##TITLE=Bis(4-chlorophenylthio)methane
##JCAMP-DX=4.24
##DATA TYPE=INFRARED SPECTRUM
##ORIGIN=EPA-IR VAPOR PHASE LIBRARY
##OWNER=SRD/NIST
Collection (C) 2018 copyright by the U.S. Secretary of Commerce
on behalf of the United States of America. All rights reserved.
##CAS REGISTRY NO=2393-97-7
##MOLFORM=C 13 H 10 Cl 2 S 2
##$NIST SOURCE=MSDC-IR
##STATE=gas
##XUNITS=1/CM
##YUNITS=ABSORBANCE
##XFACTOR=1.
##YFACTOR=0.001
##DELTAX=1.92898
##FIRSTX=549.8
##LASTX=4000.7
##FIRSTY=9.252
##MAXX=4000.7
##MINX=549.759
##MAXY=0.162342
##MINY=0
##NPOINTS=1790
##XYDATA=(X++(Y..Y))
549.759 9.252 7.942 6.352 4.962 4.472 4.422 4.062 3.402 3.532 3.432
569.049 2.462 2.552 2.322 2.332 2.662 2.812 2.482 2.532 2.782 2.622
588.339 2.532 1.922 1.672 1.622 2.242 3.082 2.582 1.5099 1.652 2.192
607.628 2.242 2.522 2.402 2.032 2.772 3.432 2.822 2.402 3.022 2.962
626.918 2.672 2.822 2.712 2.602 2.462 2.402 2.132 2.102 2.262 2.812
646.208 3.092 2.732 2.782 2.682 2.412 2.442 2.742 2.812 2.932 2.972
665.498 3.082 3.062 2.952 3.122 3.242 3.112 2.882 3.102 3.792 3.862
684.787 3.802 4.362 4.602 5.132 5.772 5.912 6.072 7.182 8.702 9.522
704.077 10.542 11.742 12.302 13.182 14.032 14.402 14.792 14.622 14.212 13.612
723.367 12.682 12.202 12.242 11.692 11.202 11.692 12.452 13.342 13.702 14.132
742.657 15.072 14.542 13.182 12.422 10.792 8.532 6.982 5.932 5.092 5.042
761.947 4.802 4.422 4.542 4.742 5.102 5.452 5.702 5.792 5.982 6.682
781.236 7.572 8.292 9.302 10.102 11.302 13.642 15.732 18.402 22.582 27.002
800.526 31.022 34.802 38.612 41.622 44.162 46.432 48.432 50.182 51.222 52.312
819.816 52.122 50.672 47.672 43.562 40.122 36.802 34.782 32.852 30.142 27.452
839.106 24.182 20.622 17.092 13.872 11.212 9.502 8.602 7.772 6.642 5.942
858.395 5.552 4.942 4.152 3.662 3.502 3.382 3.462 3.042 2.762 2.542
877.685 2.462 3.132 3.052 2.352 2.292 2.342 2.112 1.832 1.812 1.862
896.975 1.792 1.742 1.792 1.922 1.852 1.722 1.662 1.652 1.672 1.5245
916.265 1.4411 1.456 1.2453 1.1713 1.3814 1.0139 0.7848 1.3328 1.6315 1.652
935.555 1.862 1.902 1.614 1.6293 1.752 1.5951 1.4337 1.5473 1.872 2.112
954.844 1.762 1.2854 1.4113 1.782 1.962 1.722 1.2369 1.2457 1.2066 1.0514
974.134 1.2431 1.5709 1.782 1.6285 1.5184 1.932 2.582 2.822 2.592 2.452
993.424 2.752 3.112 3.962 5.622 8.242 12.952 20.842 33.062 50.842 69.112
1012.714 77.832 75.702 64.672 45.372 27.162 16.872 11.212 7.872 6.362 5.212
1032.003 4.862 5.082 4.962 4.662 4.752 5.062 5.162 5.352 4.842 4.052
1051.293 4.572 5.462 5.962 6.652 7.742 8.382 8.172 8.942 10.232 11.362
1070.583 12.232 13.142 14.542 16.032 18.432 22.892 28.392 36.462 50.562 71.112
1089.873 99.072 129.262 152.542 162.342 154.632 133.142 103.962 77.192 58.052 44.172
1109.163 33.902 26.282 22.802 20.252 16.942 15.762 14.492 11.682 10.142 9.502
1128.452 9.532 8.572 7.442 7.202 6.392 6.152 5.222 4.392 4.812 4.372
1147.742 4.262 4.402 3.742 3.682 4.382 4.382 4.562 5.182 4.892 4.992
1167.032 5.042 5.212 6.232 7.332 7.912 9.102 10.482 11.042 12.382 15.362
1186.322 20.022 24.092 28.932 34.552 40.012 43.372 41.852 37.392 30.662 22.312
1205.611 16.032 13.202 11.152 9.842 9.452 8.072 7.182 8.632 8.852 7.862
1224.901 7.032 6.252 5.722 5.432 5.552 5.262 4.552 4.742 5.032 5.382
1244.191 5.502 4.792 4.522 4.632 4.852 4.552 4.232 4.232 4.002 4.512
1263.481 4.752 3.922 3.472 3.202 2.722 2.792 2.572 2.342 2.542 2.712
1282.771 3.322 3.462 3.342 3.192 3.302 3.812 3.582 3.002 2.762 2.752
1302.060 2.962 2.992 2.822 2.942 3.042 2.982 2.882 2.912 3.072 3.062
1321.350 2.952 2.842 2.752 2.832 2.932 2.942 3.042 3.082 3.062 3.062
1340.640 3.062 3.132 3.142 3.072 3.072 3.062 3.142 3.282 3.252 3.372
1359.930 3.682 4.042 4.302 4.492 4.972 5.742 6.442 7.122 8.102 9.332
1379.219 10.602 11.782 12.932 14.002 15.032 15.462 15.262 14.912 14.272 13.702
1398.509 13.222 12.712 12.152 11.522 10.812 10.052 9.392 8.602 8.062 7.912
1417.799 7.902 7.952 8.352 8.922 9.242 9.532 9.992 10.142 9.992 9.912
1437.089 9.812 9.452 8.992 8.772 8.642 8.812 8.952 9.232 9.892 10.902
1456.378 12.432 14.692 18.262 23.382 30.712 41.702 56.872 76.542 100.522 125.372
1475.668 140.632 140.772 126.312 101.322 71.752 47.162 30.902 21.092 15.432 11.932
1494.958 9.632 8.042 7.152 6.362 5.702 5.412 5.172 4.842 4.442 3.992
1514.248 3.832 3.902 3.702 3.662 3.492 3.182 3.142 3.162 2.942 2.792
1533.538 2.882 2.842 2.912 3.012 3.202 3.582 3.762 4.022 4.332 4.342
1552.827 4.432 4.962 5.572 6.102 6.812 7.622 8.682 9.892 11.032 11.922
1572.117 12.242 12.332 12.142 11.282 10.132 9.042 7.842 6.732 6.152 5.742
1591.407 5.232 4.662 4.512 4.412 4.182 4.262 4.202 4.192 4.282 4.222
1610.697 4.392 4.452 4.382 4.512 4.812 5.042 5.172 5.272 5.322 5.342
1629.986 5.502 5.572 5.722 5.752 5.712 5.822 5.412 5.112 4.852 4.562
1649.276 4.552 4.032 3.552 3.382 3.212 3.062 2.882 2.562 2.282 2.382
1668.566 2.312 2.112 2.022 1.912 1.642 1.5746 1.6183 1.682 1.722 1.4303
1687.856 1.4028 1.6276 1.672 1.672 1.662 1.682 1.912 1.942 1.762 1.5712
1707.146 1.5198 1.536 1.6409 1.842 1.922 1.962 1.742 1.732 1.862 1.852
1726.435 1.882 1.782 1.5946 1.702 1.922 2.202 2.242 1.882 1.852 2.092
1745.725 2.252 2.192 2.042 2.142 2.432 2.652 2.772 2.912 3.072 3.172
1765.015 3.342 3.422 3.482 3.402 3.132 2.772 2.392 2.122 1.872 1.822
1784.305 1.792 1.652 1.5862 1.4877 1.4624 1.3753 1.279 1.4323 1.3608 1.1893
1803.594 1.3493 1.4329 1.2285 1.2303 1.274 1.2782 1.2985 1.3936 1.3543 1.3862
1822.884 1.4719 1.3295 1.4736 1.662 1.722 1.712 1.902 2.092 2.162 2.202
1842.174 2.242 2.212 1.972 1.992 2.042 2.002 2.042 1.952 1.932 1.972
1861.464 2.142 2.272 2.362 2.512 2.632 2.802 3.012 3.192 3.492 3.772
1880.754 3.972 4.252 4.362 4.432 4.752 5.022 4.992 4.862 4.522 4.112
1900.043 3.922 3.642 3.142 2.822 2.592 2.292 2.162 2.102 1.932 1.792
1919.333 1.682 1.6204 1.5916 1.5781 1.4475 1.3741 1.3371 1.311 1.3593 1.2976
1938.623 1.3442 1.4092 1.2865 1.2637 1.4884 1.662 1.712 1.692 1.5936 1.3986
1957.913 1.3247 1.4315 1.4571 1.2807 1.0785 1.104 1.0591 0.9316 0.9921 1.0692
1977.202 0.9984 1.0597 1.1742 1.0796 0.9967 1.0381 1.0806 0.9667 0.8671 0.9339
1996.492 1.0461 0.9874 0.9515 1.0547 0.9602 0.7893 0.8626 0.9932 0.8823 0.8192
2015.782 0.9817 1.0347 0.8864 0.73362 0.8463 0.9608 0.834 0.7992 0.8935 0.993
2035.072 0.9359 0.9879 1.1139 1.0021 0.8944 1.0626 1.0567 0.9299 0.9535 1.1104
2054.362 1.1826 1.0166 0.9584 1.0454 1.0422 1.0798 1.1494 1.1311 1.151 1.116
2073.651 0.9963 1.0483 1.2135 1.1111 0.85 0.8743 1.0468 1.0515 1.1613 1.0667
2092.941 0.9069 1.0547 1.1112 0.9825 0.9261 1.0002 1.0236 0.9911 1.0493 1.1363
2112.231 1.0832 0.9724 0.878 1.0094 1.119 1.055 0.9997 0.8457 0.8727 0.9542
2131.521 0.9675 0.9661 0.9824 1.0599 1.015 0.8901 0.8613 0.7952 0.8136 0.9318
2150.810 0.8595 0.8418 0.9184 0.9468 0.9794 0.9691 0.8252 0.5928 0.63279 0.8618
2170.100 0.9272 0.9615 0.9496 0.9449 0.9804 0.9732 1.0402 1.1143 1.0116 0.8038
2189.390 0.74027 0.8691 0.9425 0.9936 1.0398 0.8824 0.8012 0.9696 0.9706 0.8391
2208.680 0.9453 1.1175 1.1207 1.0785 1.0383 1.0323 1.104 1.0849 0.984 0.9255
2227.970 0.9266 0.9502 0.9019 0.8324 0.8539 0.8382 0.7506 0.67071 0.7649 0.9022
2247.259 0.9028 0.9669 1.046 0.9421 0.9409 1.0585 1.0863 1.0475 1.0658 1.2832
2266.549 1.3476 1.2402 1.2013 1.1734 1.1939 1.2405 1.2574 1.3167 1.2756 1.314
2285.839 1.3343 1.3034 1.384 1.2008 1.143 1.2082 1.251 1.2307 1.08 0.9786
2305.129 1.0656 1.2041 1.2922 1.1407 0.7812 0.9601 1.195 1.1671 1.1765 1.1749
2324.418 1.1587 0.9813 0.9076 0.9253 0.8572 0.71701 0.72608 0.8162 0.9662 1.0202
2343.708 0.9046 0.7591 0.7721 0.939 0.9479 1.0658 1.2437 1.0544 0.8982 0.8073
2362.998 0.73004 1.0678 1.1203 0.9826 0.9024 0.9126 1.1585 1.0718 0.9248 1.0403
2382.288 1.0594 1.0542 1.1483 1.2712 1.1459 0.9282 0.9279 0.9095 0.9631 1.0603
2401.578 0.9487 0.9185 0.9407 0.69999 0.5891 0.6679 0.646513 0.6731 0.5692 0.433
2420.867 0.6217 0.8358 0.897 0.8542 0.7843 0.8431 0.74014 0.7281 0.7819 0.8435
2440.157 0.9322 0.66789 0.5871 0.5859 0.68151 0.9308 1.1028 1.0751 0.7938 0.69365
2459.447 0.70194 0.69465 0.65273 0.71717 0.7697 0.8321 0.91 0.7477 0.63669 0.69673
2478.737 0.647416 0.67964 0.8536 0.73433 0.5594 0.858 1.0638 0.9843 1.0263 0.9658
2498.026 0.893 0.9263 0.9117 0.9177 1.1248 1.0815 0.7986 0.7609 0.803 0.8232
2517.316 0.8477 0.7872 0.8394 0.9323 1.0202 1.0706 0.9919 1.1321 1.2577 1.1796
2536.606 1.0445 0.8784 0.9151 0.9665 1.0683 1.2156 1.0841 1.1413 1.1537 1.1497
2555.896 1.2936 1.2391 1.1083 1.0323 1.1757 1.3092 1.1812 1.0635 1.2284 1.5563
2575.186 1.6406 1.652 1.712 1.4687 1.2113 1.0247 1.0683 1.2451 1.336 1.2999
2594.475 0.9276 0.977 0.9336 0.7975 0.8516 0.74108 0.8383 0.8456 0.73054 0.70608
2613.765 0.9072 0.972 0.8638 0.7699 0.63915 0.7839 1.0448 1.0073 0.8086 0.8295
2633.055 0.8067 0.9303 1.0356 1.0426 1.0114 0.72083 0.6264 0.66833 0.71752 1.1107
2652.345 1.338 1.21 1.307 1.2854 1.3744 1.4589 1.2845 1.0931 1.1898 1.3837
2671.634 1.0406 0.6277 0.5654 0.66523 0.63486 0.64007 0.7246 0.5534 0.593 0.792
2690.924 0.7932 1.0906 1.039 0.6169 0.538 0.63319 0.6015 0.269 0.32 0.5778
2710.214 0.487 0.445 0.68526 0.517 0.428 0.68597 0.444 0.526 0.7902 0.8993
2729.504 0.9673 0.68408 0.66975 0.9047 0.7763 0.7964 0.941 0.8838 0.966 0.9397
2748.794 0.789 0.65359 0.6211 0.7554 0.68393 0.4 0.5675 0.9139 0.8775 0.7966
2768.083 0.63523 0.63723 0.9236 0.9352 0.9743 1.0738 0.9163 0.9347 1.0176 0.9202
2787.373 1.0016 0.9902 0.8379 0.9057 0.8558 0.9943 1.2288 1.1506 1.1439 1.0769
2806.663 1.1564 1.1821 1.0856 1.0739 1.0075 0.9029 0.7877 0.9769 1.0035 0.9614
2825.953 0.9699 0.73684 0.72952 0.5736 0.421 0.497 0.485 0.478 0.428 0.501
2845.242 0.441 0.54 0.70482 0.716 0.5749 0.479 0.5638 0.6265 0.8132 0.70366
2864.532 0.9087 0.9067 0.422 0.523 0.69211 0.7454 0.8798 0.63787 0.525 0.6318
2883.822 0.5736 0.478 0.491 0.474 0.528 0.5703 0.68712 0.7534 0.65767 0.6182
2903.112 0.5469 0.8026 0.8406 1.0823 1.4744 1.6408 2.042 2.202 2.402 3.042
2922.401 3.872 4.662 5.242 6.002 6.682 6.542 6.402 6.122 5.302 4.352
2941.691 3.402 2.452 1.852 1.742 1.5735 1.702 1.6367 1.1684 0.884 1.2211
2960.981 1.2642 1.0289 1.2438 1.1903 1.3417 1.802 2.092 2.072 1.812 1.672
2980.271 1.782 1.722 1.5408 1.349 1.0078 1.1151 1.0543 1.0282 1.3212 1.2498
2999.561 1.0708 1.0516 1.3176 1.852 1.812 1.4344 1.712 1.812 1.932 2.412
3018.850 2.722 2.642 2.672 2.772 2.772 2.982 2.852 2.362 2.182 2.192
3038.140 2.152 2.112 2.152 2.162 1.912 2.012 2.472 2.482 2.332 2.602
3057.430 3.092 2.982 2.802 3.232 3.652 3.772 4.052 4.812 5.632 6.372
3076.720 7.412 8.592 9.312 10.072 10.252 9.702 8.852 7.852 6.852 5.652
3096.009 4.922 4.332 3.572 3.032 2.702 2.682 2.302 1.942 1.882 1.553
3115.299 1.2749 1.3225 1.1795 1.0345 1.2113 1.0943 0.73043 0.63839 0.7681 1.0376
3134.589 1.1321 0.6005 0.314 0.647524 0.9873 0.8364 0.7608 0.8021 0.7058 0.6229
3153.879 0.842 0.9051 0.8945 0.7612 0.502 0.471 0.66002 0.8228 0.6113 0.70556
3173.169 0.805 0.7899 0.69359 0.7676 0.8667 0.8102 0.7909 0.73699 0.522 0.418
3192.458 0.6319 0.7263 0.5939 0.63896 0.8779 1.1381 1.1915 0.9077 0.848 0.8234
3211.748 0.6042 0.71406 0.8194 0.541 0.535 0.8475 0.8659 0.303 0 0.35
3231.038 0.456 0.5639 0.5732 0.509 0.8854 0.9532 1.1373 1.0815 0.482 0.69852
3250.328 0.918 0.928 1.1063 0.8179 0.7906 0.9367 0.67462 0.54 0.73937 0.7436
3269.617 0.70728 0.513 0.306 0.6205 0.63998 0.514 0.5512 0.63749 0.7717 0.437
3288.907 0.381 0.70869 0.889 0.9921 1.1526 1.0979 0.8507 0.833 1.0339 0.9452
3308.197 0.8588 0.9269 0.9723 0.8308 0.463 0.7579 0.762 0.241 0.292 0.357
3327.487 0.277 0.6258 0.8217 0.8305 0.9542 0.9138 0.9088 0.7075 0.543 0.5984
3346.777 0.71014 1.1106 0.8739 0.534 0.66646 0.536 0.5692 0.7805 0.5623 0.6036
3366.066 0.9741 0.8297 0.71938 0.8479 0.812 0.8355 0.474 0.239 0.71493 0.8967
3385.356 0.622 0.69925 0.8785 0.5806 0.64098 0.8278 0.7808 0.8825 0.9485 1.0084
3404.646 1.0394 1.3772 1.4015 1.1213 0.9081 0.556 0.512 0.473 0.644659 0.6083
3423.936 0.482 0.9396 1.0588 0.9831 0.9578 0.9709 0.7596 0.7425 0.7921 0.568
3443.225 0.5496 0.9354 1.195 0.8223 0.8758 1.223 1.1099 0.63624 0.6732 1.0534
3462.515 1.1409 1.332 1.0193 0.301 0.45 0.8189 0.9219 0.5497 0.446 0.7682
3481.805 0.7425 0.6215 0.7041 0.65326 0.531 0.67674 0.7687 0.5553 0.7415 0.9579
3501.095 0.70033 0.7643 0.8656 1.0272 1.1186 0.9077 0.93 0.9462 0.7157 0.8241
3520.385 1.0695 1.02 0.5424 0.526 0.69811 0.535 0.57 1.0029 1.0483 0.66455
3539.674 0.9553 1.0242 0.795 0.66758 0.8305 1.0428 0.6195 0.5792 0.69504 0.5474
3558.964 0.541 0.8081 1.0534 1.127 1.3518 0.8966 0.7812 1.0298 0.9146 0.8919
3578.254 0.436 0.5464 0.7767 0.8404 0.591 0.5732 1.02 1.0807 1.2186 1.2017
3597.544 0.7233 0.5631 0.942 0.9422 0.603 0.5929 1.0557 1.1512 1.0446 0.69133
3616.833 0.9184 1.194 0.6302 0.416 0.326 0.237 0.504 0.8942 0.8049 0.892
3636.123 1.1009 1.0449 1.2388 0.9601 0.73429 0.9501 1.0301 0.9454 0.9509 0.886
3655.413 0.537 0.477 0.9179 1.1189 0.9844 0.9417 1.052 1.2819 1.0869 0.5991
3674.703 0.453 0.7045 0.7984 0.67352 0.8964 0.8238 0.7939 0.8837 0.843 1.0135
3693.993 0.829 0.6278 0.7693 1.2424 1.2629 0.8928 1.0532 1.1977 0.8636 0.8439
3713.282 0.9814 1.2229 1.4625 1.5506 1.2775 0.7664 0.785 1.0031 0.9182 0.8444
3732.572 0.8469 1.0263 1.5997 1.692 0.8816 0.306 0.5687 0.879 1.0091 1.3466
3751.862 1.1029 0.5877 0.639 0.6269 0.45 0.8648 0.9529 0.8145 0.71851 0.53
3771.152 0.8606 0.9039 0.9666 0.9212 0.868 0.8413 0.327 0.522 0.642255 0.508
3790.441 1.0116 1.0262 1.0732 1.4141 1.2289 1.0088 1.1764 1.2771 1.402 1.4898
3809.731 1.206 0.8463 1.0544 1.2686 1.1178 1.3601 1.5549 1.1777 1.2218 1.5112
3829.021 1.772 1.932 1.3224 0.872 1.1201 1.3486 0.9192 0.9448 1.1877 1.0847
3848.311 0.9345 0.8884 1.0451 0.8572 1.0162 0.74024 0.418 0.504 0.651587 0.8733
3867.601 0.8042 0.643176 0.886 1.0497 0.6978 0.6221 1.0424 1.1977 0.8368 0.8653
3886.890 0.68714 0.359 0.443 0.532 1.2074 1.5763 1.3204 1.1932 1.1854 1.0165
3906.180 0.8849 0.6311 0.303 0.476 0.6701 1.0583 1.0974 0.5934 0.70401 0.906
3925.470 0.70516 0.333 0.2 1.2202 1.5041 0.8 0.535 0.51 0.365 0.5641
3944.760 0.7717 0.68269 0.6687 0.65858 0.652 0.231 0.367 0.9533 0.8689 0.70086
3964.049 1.0165 0.7906 0.9098 1.2137 0.892 1.1815 0.9414 0.66245 0.8623 0.54
3983.339 0.66014 0.9037 0.6305 0.646203 0.5624 0.70792 1.02 0.6073 0.206 0.312
##END=
