##TITLE=3-(4-Aminophenyl)propionic acid
##JCAMP-DX=4.24
##DATA TYPE=INFRARED SPECTRUM
##ORIGIN=EPA-IR VAPOR PHASE LIBRARY
##OWNER=SRD/NIST
Collection (C) 2018 copyright by the U.S. Secretary of Commerce
on behalf of the United States of America. All rights reserved.
##CAS REGISTRY NO=2393-17-1
##MOLFORM=C 9 H 11 N O 2
##$NIST SOURCE=MSDC-IR
##STATE=gas
##XUNITS=1/CM
##YUNITS=ABSORBANCE
##XFACTOR=1.
##YFACTOR=0.001
##DELTAX=1.92898
##FIRSTX=549.8
##LASTX=4000.7
##FIRSTY=3.301
##MAXX=4000.7
##MINX=549.759
##MAXY=0.012871
##MINY=0
##NPOINTS=1790
##XYDATA=(X++(Y..Y))
549.759 3.301 3.141 3.281 3.431 3.611 3.541 3.351 3.401 3.211 3.311
569.049 3.361 3.301 3.161 3.071 3.071 3.011 3.301 3.221 3.041 2.861
588.339 2.701 2.541 2.491 2.631 2.501 2.781 3.141 3.041 3.051 2.991
607.628 2.821 2.801 2.951 3.131 3.211 3.251 3.201 3.051 2.831 3.031
626.918 3.181 2.971 2.851 2.751 2.851 3.161 3.271 3.361 3.501 3.691
646.208 3.951 4.051 4.231 4.151 3.881 3.761 3.861 3.801 3.561 3.491
665.498 3.381 3.081 3.081 3.171 3.031 2.881 2.761 2.611 2.541 2.591
684.787 2.451 2.241 2.191 2.321 2.311 2.171 2.181 2.051 1.911 1.881
704.077 1.861 1.861 1.811 1.801 1.771 1.821 1.741 1.4982 1.521 1.541
723.367 1.561 1.611 1.4592 1.4735 1.42 1.4095 1.3236 1.2759 1.2466 1.1491
742.657 1.2967 1.2676 1.3261 1.2254 1.1453 1.3223 1.1265 1.1413 1.2185 1.0635
761.947 1.1681 1.4215 1.4226 1.1565 1.1357 1.2706 1.2308 1.2783 1.2061 0.9835
781.236 1.1612 1.3048 1.2657 1.4566 1.671 1.641 1.671 1.741 1.781 2.041
800.526 2.261 2.301 2.511 2.781 2.721 2.831 3.081 3.351 3.291 3.191
819.816 3.131 3.071 3.181 2.811 2.591 2.441 2.191 2.061 1.911 1.831
839.106 1.751 1.551 1.3766 1.3292 1.2957 1.1707 1.1707 1.213 1.0188 0.8541
858.395 0.7995 0.9305 1.0701 1.1096 1.0733 0.8858 0.8884 0.6964 0.51354 0.6339
877.685 0.6718 0.6227 0.6666 0.9689 0.9926 0.6268 0.6729 0.8995 0.9692 0.9784
896.975 0.8131 0.8377 0.8675 0.7822 0.8491 0.9918 0.9723 0.8247 0.8689 0.9789
916.265 0.875 0.9143 0.9483 0.8999 0.9053 0.8949 0.9784 0.9292 0.8582 0.9352
935.555 0.8742 0.9079 1.0504 1.0267 1.1012 1.1042 0.9313 1.0581 1.2058 1.2062
954.844 0.9901 0.8213 1.1399 1.3132 1.2039 1.0542 0.9512 0.9019 0.905 1.0272
974.134 1.0673 1.1381 1.3258 1.2045 1.1142 1.1957 1.0822 0.9532 0.8025 0.8342
993.424 1.0444 1.2583 0.9635 0.6926 1.0561 1.1201 0.9184 1.0002 1.207 1.1929
1012.714 1.2495 1.3534 1.4502 1.581 1.631 1.581 1.741 1.551 1.0889 1.3273
1032.003 1.631 1.4458 1.4219 1.771 1.771 1.426 1.561 1.831 1.761 1.4872
1051.293 1.4122 1.711 1.761 1.721 1.611 1.3342 1.581 1.971 2.101 2.161
1070.583 1.981 2.201 2.741 2.981 2.991 3.001 3.431 3.521 3.171 3.261
1089.873 3.721 4.031 4.321 4.991 5.321 5.181 5.421 6.011 6.661 7.611
1109.163 8.181 9.051 9.831 9.761 9.791 10.111 10.351 10.381 9.741 9.061
1128.452 8.291 7.291 6.791 6.071 5.271 5.051 4.781 4.371 4.081 3.741
1147.742 4.021 3.931 3.121 2.841 2.831 2.791 2.871 2.781 2.651 2.741
1167.032 2.821 2.941 2.911 2.781 3.031 3.551 3.941 4.001 3.671 3.551
1186.322 3.721 3.491 3.131 2.901 2.721 2.611 2.721 2.621 2.021 2.011
1205.611 2.171 1.881 2.221 2.501 2.111 2.081 2.041 1.621 1.591 1.701
1224.901 1.771 1.761 1.751 1.911 1.851 1.731 1.621 1.641 1.841 2.041
1244.191 2.211 2.311 2.311 2.381 2.761 2.971 3.181 3.341 3.771 4.411
1263.481 4.971 5.551 5.691 5.851 5.991 6.031 5.791 5.221 4.781 4.401
1282.771 3.821 3.391 3.051 2.561 2.301 2.121 1.881 1.821 1.821 1.771
1302.060 1.721 1.651 1.611 1.541 1.4055 1.3923 1.511 1.511 1.4661 1.4429
1321.350 1.3529 1.3445 1.4365 1.4927 1.4512 1.4346 1.4622 1.531 1.561 1.571
1340.640 1.601 1.631 1.671 1.711 1.811 1.851 1.871 1.921 1.931 1.991
1359.930 1.991 2.001 2.091 2.201 2.291 2.351 2.411 2.451 2.511 2.551
1379.219 2.511 2.481 2.441 2.331 2.141 2.011 1.941 1.791 1.621 1.541
1398.509 1.4684 1.3997 1.3579 1.3258 1.2506 1.2392 1.2724 1.2835 1.2926 1.2205
1417.799 1.219 1.2992 1.359 1.428 1.4342 1.3991 1.3932 1.3892 1.3809 1.3769
1437.089 1.3829 1.3713 1.3118 1.316 1.3654 1.3257 1.3265 1.3748 1.3546 1.313
1456.378 1.2427 1.152 1.1229 1.1498 1.133 1.0291 0.9583 1.0276 0.9744 0.8353
1475.668 0.8254 0.8223 0.8017 0.751 0.7392 0.7812 0.8456 0.84 0.8292 0.9905
1494.958 1.2947 1.521 1.751 2.131 2.641 3.271 4.071 5.121 6.311 7.311
1514.248 7.931 8.231 8.101 7.681 6.951 5.921 4.731 3.611 2.761 2.261
1533.538 1.921 1.541 1.358 1.2434 1.1249 0.9783 0.8001 0.8257 0.8459 0.8371
1552.827 0.8373 0.8425 0.8716 0.9078 0.9618 0.9103 0.8723 0.8628 0.8448 0.9096
1572.117 0.9518 0.9598 0.9689 0.8911 0.8796 0.9435 0.9748 1.1017 1.2009 1.2042
1591.407 1.1786 1.194 1.3335 1.521 1.691 1.841 1.961 2.151 2.321 2.471
1610.697 2.751 3.081 3.491 4.021 4.511 4.991 5.551 6.001 6.191 6.171
1629.986 5.971 5.651 5.231 4.651 4.001 3.341 2.731 2.281 1.981 1.661
1649.276 1.4408 1.3558 1.2545 1.0492 0.9191 0.9402 0.9575 0.9337 0.8519 0.7746
1668.566 0.7482 0.8249 0.8557 0.8288 0.8096 0.7872 0.7422 0.8079 0.8989 0.7959
1687.856 0.7898 0.8141 0.7521 0.791 0.8507 0.8857 0.902 0.8854 0.8961 0.9628
1707.146 1.0384 1.0857 1.1069 1.1195 1.2214 1.3369 1.4148 1.4252 1.4827 1.571
1726.435 1.671 1.901 2.151 2.221 2.321 2.571 2.801 2.961 3.191 3.511
1745.725 3.871 4.201 4.451 4.821 5.291 5.751 6.271 6.861 7.491 8.251
1765.015 9.131 10.031 10.881 11.631 12.271 12.661 12.871 12.791 12.421 11.831
1784.305 11.031 10.181 9.331 8.481 7.651 6.831 6.171 5.571 4.991 4.451
1803.594 4.051 3.681 3.331 3.031 2.741 2.511 2.261 2.031 1.881 1.701
1822.884 1.4883 1.3249 1.2377 1.1402 1.0571 1.0884 1.0838 0.9578 0.8837 0.8341
1842.174 0.8217 0.8031 0.7743 0.7321 0.7051 0.7376 0.7283 0.718 0.7231 0.7301
1861.464 0.7234 0.7292 0.7698 0.7936 0.7334 0.7299 0.7267 0.6696 0.6496 0.6268
1880.754 0.6224 0.6169 0.61 0.6199 0.6133 0.59778 0.53773 0.49224 0.4785 0.465
1900.043 0.53447 0.58345 0.55396 0.54553 0.55051 0.56545 0.5368 0.49187 0.4764 0.437
1919.333 0.4607 0.54478 0.52083 0.4364 0.4469 0.49907 0.4903 0.4039 0.387 0.4
1938.623 0.4306 0.502263 0.473 0.4848 0.504 0.452 0.4492 0.4578 0.4242 0.397
1957.913 0.4322 0.4485 0.4471 0.4064 0.4275 0.4749 0.4174 0.4179 0.4417 0.4399
1977.202 0.4656 0.48 0.4895 0.49769 0.524 0.50818 0.4339 0.4253 0.4294 0.4165
1996.492 0.4329 0.4585 0.4873 0.49612 0.482 0.49699 0.4874 0.4545 0.4692 0.4659
2015.782 0.4601 0.456 0.4204 0.4121 0.4182 0.4119 0.4763 0.4868 0.4557 0.4833
2035.072 0.4633 0.4425 0.4618 0.4242 0.347 0.373 0.4257 0.4392 0.4821 0.49884
2054.362 0.4545 0.4483 0.4582 0.4392 0.412 0.442 0.4792 0.4556 0.4018 0.393
2073.651 0.4214 0.4154 0.4169 0.4714 0.49551 0.4444 0.4483 0.4539 0.429 0.4168
2092.941 0.417 0.4125 0.374 0.373 0.373 0.4271 0.50722 0.53727 0.4767 0.4032
2112.231 0.4043 0.4049 0.385 0.398 0.4623 0.469 0.4251 0.4041 0.4328 0.4306
2131.521 0.375 0.376 0.4185 0.4365 0.4139 0.415 0.4567 0.4173 0.39 0.381
2150.810 0.396 0.371 0.327 0.364 0.348 0.331 0.369 0.4105 0.366 0.308
2170.100 0.333 0.324 0.326 0.39 0.351 0.327 0.338 0.31 0.35 0.37
2189.390 0.37 0.382 0.395 0.39 0.379 0.419 0.4417 0.4246 0.4168 0.393
2208.680 0.367 0.367 0.4131 0.44 0.4484 0.49671 0.51207 0.4521 0.4453 0.4218
2227.970 0.39 0.368 0.39 0.4225 0.4236 0.407 0.4039 0.4578 0.4281 0.4659
2247.259 0.4647 0.4157 0.4274 0.4392 0.4739 0.4449 0.397 0.373 0.337 0.4039
2266.549 0.4228 0.37 0.354 0.314 0.331 0.362 0.384 0.4511 0.4649 0.378
2285.839 0.358 0.356 0.363 0.387 0.376 0.334 0.33 0.394 0.37 0.399
2305.129 0.4403 0.4818 0.54218 0.4797 0.401 0.4088 0.388 0.362 0.391 0.4489
2324.418 0.4098 0.369 0.394 0.375 0.389 0.4534 0.4658 0.4215 0.4414 0.4604
2343.708 0.4066 0.38 0.366 0.347 0.371 0.391 0.4324 0.4421 0.4461 0.4275
2362.998 0.386 0.379 0.378 0.392 0.368 0.321 0.336 0.375 0.336 0.343
2382.288 0.353 0.279 0.308 0.377 0.375 0.329 0.362 0.344 0.312 0.358
2401.578 0.328 0.301 0.35 0.341 0.345 0.4164 0.4155 0.347 0.365 0.385
2420.867 0.327 0.342 0.4141 0.4032 0.271 0.286 0.437 0.49155 0.382 0.347
2440.157 0.372 0.365 0.393 0.341 0.282 0.288 0.304 0.319 0.386 0.392
2459.447 0.349 0.377 0.316 0.313 0.368 0.361 0.344 0.334 0.375 0.4239
2478.737 0.393 0.292 0.285 0.308 0.329 0.359 0.392 0.392 0.356 0.4021
2498.026 0.4303 0.387 0.318 0.292 0.342 0.326 0.236 0.252 0.286 0.292
2517.316 0.297 0.274 0.313 0.269 0.301 0.334 0.326 0.4333 0.452 0.4542
2536.606 0.4798 0.4186 0.297 0.339 0.4707 0.411 0.364 0.35 0.283 0.3
2555.896 0.317 0.285 0.265 0.351 0.393 0.375 0.374 0.362 0.325 0.343
2575.186 0.354 0.357 0.385 0.4136 0.49451 0.4411 0.34 0.334 0.334 0.323
2594.475 0.4169 0.4572 0.364 0.349 0.368 0.326 0.305 0.303 0.315 0.358
2613.765 0.304 0.281 0.314 0.254 0.336 0.4021 0.372 0.347 0.319 0.367
2633.055 0.39 0.38 0.337 0.317 0.4198 0.4867 0.4015 0.379 0.397 0.379
2652.345 0.396 0.374 0.386 0.4116 0.378 0.382 0.375 0.39 0.317 0.272
2671.634 0.369 0.33 0.295 0.261 0.3 0.385 0.347 0.351 0.331 0.291
2690.924 0.315 0.316 0.389 0.4271 0.345 0.272 0.276 0.4015 0.4381 0.311
2710.214 0.297 0.394 0.369 0.393 0.396 0.322 0.294 0.327 0.336 0.395
2729.504 0.4297 0.352 0.36 0.401 0.365 0.346 0.4075 0.372 0.351 0.312
2748.794 0.311 0.382 0.361 0.284 0.258 0.283 0.333 0.394 0.283 0.15
2768.083 0.208 0.253 0.329 0.381 0.4021 0.4422 0.296 0.2 0.227 0.302
2787.373 0.309 0.32 0.331 0.25 0.272 0.374 0.39 0.308 0.285 0.289
2806.663 0.369 0.378 0.346 0.4049 0.4118 0.355 0.361 0.358 0.399 0.4216
2825.953 0.37 0.4173 0.4531 0.4199 0.33 0.315 0.369 0.4362 0.4687 0.485
2845.242 0.57123 0.58636 0.54601 0.6525 0.6471 0.6407 0.7409 0.6794 0.6488 0.6138
2864.532 0.59783 0.6878 0.7253 0.7952 0.9104 0.9208 0.8476 0.846 0.864 0.8863
2883.822 0.8801 0.7403 0.6782 0.6986 0.7667 0.758 0.7345 0.7087 0.6809 0.8205
2903.112 0.8976 0.8012 0.7498 0.8114 0.882 0.968 1.0268 1.0703 1.1356 1.2693
2922.401 1.3408 1.3803 1.531 1.701 1.681 1.711 1.891 1.941 1.981 1.891
2941.691 1.771 1.681 1.671 1.701 1.631 1.611 1.581 1.4772 1.4208 1.4477
2960.981 1.394 1.2685 1.1686 1.1826 1.2594 1.2397 1.0925 0.9901 0.9406 0.9256
2980.271 0.9103 0.8447 0.9123 0.9676 0.8925 1.0175 1.2406 1.3252 1.3888 1.4053
2999.561 1.521 1.631 1.681 1.811 1.811 1.811 1.951 2.031 1.961 1.861
3018.850 1.931 2.101 2.281 2.381 2.421 2.481 2.531 2.581 2.511 2.401
3038.140 2.321 2.191 2.021 1.791 1.621 1.541 1.4583 1.3887 1.3114 1.2892
3057.430 1.1702 1.1191 1.0766 1.0609 1.004 0.8168 0.8216 0.9829 0.972 0.7998
3076.720 0.7203 0.7177 0.7646 0.7517 0.54676 0.4429 0.54486 0.56132 0.7045 0.7778
3096.009 0.6195 0.4821 0.394 0.51876 0.58233 0.6316 0.6937 0.7135 0.7285 0.6337
3115.299 0.59424 0.59567 0.57178 0.52096 0.510302 0.501653 0.4195 0.4711 0.51992 0.4185
3134.589 0.36 0.394 0.4088 0.4059 0.398 0.49753 0.4782 0.342 0.4153 0.303
3153.879 0.363 0.57769 0.4575 0.311 0.297 0.348 0.289 0.279 0.247 0.186
3173.169 0.4037 0.4589 0.36 0.382 0.4534 0.4197 0.357 0.326 0.39 0.54338
3192.458 0.53031 0.45 0.394 0.358 0.4245 0.431 0.397 0.49914 0.4766 0.319
3211.748 0.236 0.294 0.397 0.398 0.369 0.4427 0.4762 0.392 0.395 0.4546
3231.038 0.399 0.4 0.4511 0.347 0.325 0.4421 0.4846 0.4044 0.273 0.295
3250.328 0.378 0.31 0.23 0.223 0.232 0.278 0.36 0.391 0.269 0.342
3269.617 0.336 0.207 0.357 0.51851 0.4647 0.4679 0.4395 0.318 0.339 0.4635
3288.907 0.4607 0.268 0.29 0.52437 0.6023 0.55655 0.56443 0.35 0.193 0.238
3308.197 0.243 0.32 0.4155 0.4049 0.362 0.33 0.391 0.318 0.139 0.207
3327.487 0.4194 0.4576 0.273 0.177 0.16 0.179 0.221 0.199 0.098 0.126
3346.777 0.236 0.327 0.4121 0.364 0.354 0.361 0.316 0.4462 0.51372 0.4347
3366.066 0.615 0.6171 0.413 0.33 0.255 0.222 0.307 0.4288 0.4159 0.4763
3385.356 0.6053 0.6305 0.6721 0.6208 0.56767 0.664 0.8295 0.9266 0.8209 0.8105
3404.646 0.88 0.8969 0.9581 1.0839 1.0639 0.8843 0.813 0.7251 0.6718 0.56611
3423.936 0.54166 0.6549 0.4623 0.303 0.349 0.4482 0.331 0.211 0.4463 0.5765
3443.225 0.52489 0.357 0.272 0.264 0.262 0.273 0.336 0.4419 0.354 0.292
3462.515 0.34 0.391 0.4618 0.55713 0.58193 0.6322 0.6762 0.57083 0.4746 0.5441
3481.805 0.6569 0.6995 0.7049 0.7605 0.7838 0.7485 0.7473 0.7649 0.7792 0.6656
3501.095 0.6709 0.7612 0.6907 0.6364 0.6565 0.6263 0.6063 0.51745 0.4896 0.59087
3520.385 0.4447 0.53132 0.67 0.4835 0.451 0.53707 0.6523 0.54397 0.348 0.55539
3539.674 0.7528 0.7145 0.6771 0.7257 0.767 0.9074 0.9737 0.9724 1.088 1.0326
3558.964 1.1643 1.4475 1.791 2.351 3.201 4.221 5.041 5.451 5.581 5.461
3578.254 5.181 4.721 3.821 2.861 2.221 1.621 1.2625 1.1726 0.9981 0.8598
3597.544 0.7592 0.6851 0.57829 0.4732 0.384 0.6064 0.8174 0.6206 0.59623 0.55277
3616.833 0.4218 0.366 0.4287 0.4405 0.4077 0.4459 0.379 0.4288 0.4367 0.348
3636.123 0.263 0.35 0.4648 0.4679 0.386 0.157 0.242 0.354 0.223 0.15
3655.413 0.146 0.326 0.439 0.4587 0.51836 0.357 0.312 0.37 0.296 0.339
3674.703 0.359 0.241 0.31 0.389 0.317 0.337 0.344 0.314 0.327 0.341
3693.993 0.384 0.4168 0.342 0.265 0.192 0.206 0.368 0.36 0.275 0.386
3713.282 0.4247 0.4022 0.4143 0.501767 0.52498 0.388 0.358 0.4599 0.56685 0.4234
3732.572 0.289 0.372 0.355 0.304 0.39 0.4235 0.297 0.342 0.4151 0.4464
3751.862 0.5629 0.52054 0.334 0.256 0.282 0.193 0.305 0.47 0.34 0.4283
3771.152 0.4781 0.245 0.337 0.52814 0.5222 0.334 0.312 0.4352 0.285 0.204
3790.441 0.269 0.381 0.49571 0.49597 0.294 0.222 0.241 0.149 0.144 0.212
3809.731 0.26 0.365 0.395 0.4228 0.4576 0.4801 0.6156 0.503962 0.346 0.331
3829.021 0.362 0.384 0.375 0.139 0 0.216 0.242 0.227 0.258 0.142
3848.311 0.12 0.24 0.422 0.51945 0.367 0.372 0.49415 0.49688 0.54659 0.58068
3867.601 0.59888 0.6339 0.463 0.314 0.272 0.287 0.4038 0.424 0.52912 0.51147
3886.890 0.39 0.358 0.262 0.4078 0.4373 0.271 0.259 0.387 0.4735 0.431
3906.180 0.4613 0.33 0.348 0.53189 0.4171 0.318 0.51648 0.509606 0.401 0.4763
3925.470 0.51419 0.4421 0.262 0.312 0.268 0.312 0.4728 0.4046 0.403 0.4663
3944.760 0.4437 0.381 0.267 0.297 0.500708 0.417 0.423 0.417 0.324 0.4434
3964.049 0.4331 0.4339 0.367 0.282 0.411 0.356 0.272 0.341 0.318 0.35
3983.339 0.4165 0.34 0.4281 0.53652 0.399 0.461 0.356 0.222 0.379 0.36
##END=
