##TITLE=Bis(3-chlorophenylsulphonyl)methane
##JCAMP-DX=4.24
##DATA TYPE=INFRARED SPECTRUM
##ORIGIN=EPA-IR VAPOR PHASE LIBRARY
##OWNER=SRD/NIST
Collection (C) 2018 copyright by the U.S. Secretary of Commerce
on behalf of the United States of America. All rights reserved.
##CAS REGISTRY NO=2394-03-8
##MOLFORM=C 13 H 10 Cl 2 O 4 S 2
##$NIST SOURCE=MSDC-IR
##STATE=gas
##XUNITS=1/CM
##YUNITS=ABSORBANCE
##XFACTOR=1.
##YFACTOR=0.001
##DELTAX=1.92898
##FIRSTX=549.8
##LASTX=4000.7
##FIRSTY=2.4175
##MAXX=4000.7
##MINX=549.759
##MAXY=0.02481
##MINY=0
##NPOINTS=1790
##XYDATA=(X++(Y..Y))
549.759 2.4175 2.2847 2.1488 2.4024 2.77 3.4 3.62 4.35 5.86 6.56
569.049 8.55 10.57 11.62 10.83 8.07 5.72 4.38 3.61 2.5971 1.85145
588.339 1.584 1.515 2.2676 3.01 2.94 1.9338 2.0785 2.4444 2.2123 2.6758
607.628 3.05 3.56 3.38 2.6125 2.1514 2.2441 2.0466 1.393 1.6881 2.1701
626.918 1.9075 2.2362 2.1196 2.6618 2.6511 1.265 1.232 1.6981 1.914 2.0129
646.208 2.1221 2.4767 2.94 3.02 2.91 3.62 4.51 4.72 5.12 6.11
665.498 6.2 5.39 5.59 6.26 7.38 8.02 7.77 7.19 5.9 4.7
684.787 3.75 3.55 3.29 2.81 2.85 3.15 3.2 2.78 2.1636 2.0904
704.077 2.82 3.05 3.07 3.48 3.99 4.34 4.46 4.65 5.08 5.12
723.367 5.9 7.37 7.01 7.15 8.11 8.91 9.33 9.46 9.95 10.45
742.657 11.58 12.36 13.08 13.15 13.13 13.34 12.59 10.81 9.03 7.94
761.947 6.75 6.19 6.6 7.15 7.05 6.59 6.57 7.03 7.77 8.47
781.236 8.22 8.11 7.88 6.74 5.88 5.64 5.53 5.44 5.7 6.19
800.526 5.89 5.01 4.99 4.99 4.94 4.47 3.73 3.81 4.17 4.32
819.816 4.14 3.84 4.81 6.15 6.75 7.77 9.62 11.19 11.86 12
839.106 11.4 9.73 8.3 7.3 6.3 5.55 4.93 4.2 3.39 3.4
858.395 2.95 2.0287 2.3172 2.6746 2.3153 2.4246 2.73 2.6328 2.76 3.05
877.685 3.26 3.16 3.2 2.87 2.77 3.38 3.63 4.03 4.04 3.34
896.975 2.92 2.94 3.12 3.03 2.86 2.8 2.4299 2.2307 2.0339 1.9311
916.265 1.9154 1.956 2.4303 2.3346 2.4431 2.6508 2.4444 2.3743 1.9813 2.0077
935.555 2.4771 2.4952 1.8866 1.7573 1.9009 1.9321 2.289 2.1611 1.9214 2.1041
954.844 2.5305 2.2089 1.8892 2.0705 2.0838 2.78 2.5303 2.0436 2.227 2.1094
974.134 2.1968 2.061 1.76002 1.9359 2.2069 1.9181 2.1267 2.467 2.0175 2.2981
993.424 1.9725 1.476 2.2167 2.2349 2.1086 2.5895 2.7573 2.6585 2.78 2.3692
1012.714 2.0663 2.0749 2.6034 2.89 2.3175 1.524 1.7038 2.1445 1.367 1.468
1032.003 2.2236 2.3825 2.2997 1.547 2.1258 3.02 2.719 1.76338 0.39 1.499
1051.293 2.5394 1.9452 1.9096 2.2101 3.18 3.84 3.46 2.3557 3.14 4.84
1070.583 5.78 6.97 8.28 9.16 7.78 5.7 3.37 3.38 4.62 4.07
1089.873 5 6.5 6.48 6.35 6.63 5.75 3.81 3.73 4.37 3.17
1109.163 4.51 4.67 2.5801 4.36 5.68 5.6 5.27 3.67 2.5391 3.09
1128.452 3.5 3.81 3.45 3.28 4.45 5.47 5.85 5.97 7.09 8.93
1147.742 10.26 12.59 15.81 17.94 18.79 19.3 18.58 17.85 17.71 16.99
1167.032 16.07 16.09 15.49 14.28 12.61 11.06 10.72 8.71 5.95 4.65
1186.322 4.12 3.62 3.35 3.35 3.72 4.11 4.79 6.03 7.7 7.54
1205.611 8.59 9.89 7.89 6.99 8.07 7.86 5.3 3.29 3.7 3.01
1224.901 1.253 1.014 1.012 1.111 1.648 1.8864 1.109 0 0.827 0.899
1244.191 0.11 0.69 0.923 1.569 1.581 0.893 0.57 0.788 1.337 1.463
1263.481 1.608 1.412 1.274 1.6776 2.0236 1.7131 1.9007 2.3373 2.85 2.6965
1282.771 2.5223 3.4 3.85 4.21 4.43 4.1 4.15 4.27 3.92 3.67
1302.060 3.22 2.94 3.21 3.25 2.95 3.05 2.98 2.79 2.82 2.7117
1321.350 2.8 3.02 3.23 3.29 3.39 3.65 4.18 4.82 5.44 6.22
1340.640 7.22 8.09 9.06 10.72 12.77 15.74 19.04 22.02 24.18 24.81
1359.930 24.31 22.84 21.32 20.12 19.25 18.2 16.32 13.98 11.21 8.77
1379.219 7.14 5.95 5.2 4.78 4.37 4.08 4.07 4.34 4.18 4.07
1398.509 4.16 4.25 4.54 4.62 4.76 5.12 5.5 6 6.5 6.77
1417.799 6.82 6.44 5.56 4.67 3.89 3.37 3.18 3.07 3.09 3.01
1437.089 2.9 3.22 3.49 3.3 3.28 3.57 3.77 4 4.38 4.74
1456.378 5.14 5.56 5.67 5.91 5.97 5.44 5.26 5.15 4.56 4.09
1475.668 3.83 3.35 3.19 3.1 2.85 2.6837 2.514 2.5108 2.3391 2.3028
1494.958 2.5651 2.5208 2.3048 2.4021 2.5443 2.4999 2.1672 2.0036 2.1999 2.2658
1514.248 1.9953 1.9429 2.012 1.8911 2.0882 2.2574 2.1388 2.1672 2.2581 2.1057
1533.538 2.0243 2.2248 2.3958 2.0547 2.038 2.0999 1.76517 2.2167 2.86 2.81
1552.827 2.77 2.6482 2.3437 2.3722 2.6955 3.03 3.04 3.25 3.52 3.78
1572.117 4.29 4.58 5.03 5.45 5.5 5.57 5.34 4.85 4.41 3.75
1591.407 3.13 2.87 2.6545 2.3367 2.1323 1.9944 1.7585 1.8216 2.3938 2.79
1610.697 2.3068 1.508 1.478 2.2619 2.3844 1.9849 1.77567 1.9635 2.1883 1.86
1629.986 1.926 2.2889 1.9734 1.6922 1.8678 1.6928 1.81463 2.1036 2.0133 1.518
1649.276 1.102 1.206 1.414 1.635 1.8996 1.9061 1.8656 1.9784 1.7914 1.658
1668.566 1.9367 1.78261 1.519 1.6944 1.9356 1.9691 2.095 2.1244 1.9403 1.9636
1687.856 1.77219 1.6996 2.1139 2.2918 2.1357 2.1663 2.0985 2.4817 2.5009 2.067
1707.146 1.85511 2.1223 2.38 2.1354 1.9966 1.9187 2.0148 2.1373 2.3391 2.2402
1726.435 1.77492 1.7278 1.81918 1.635 1.7112 1.75193 1.8823 2.0228 1.9655 1.9879
1745.725 2.0002 1.9549 1.81547 1.9163 1.9566 2.0241 2.1362 1.9678 2.1287 2.2378
1765.015 1.9191 1.9122 1.9394 1.9169 2.0434 1.9495 1.9186 1.902 2.0415 2.1756
1784.305 2.012 1.9168 2.1053 2.1213 2.0675 2.1717 2.1383 1.9431 2.0755 2.1711
1803.594 2.1186 2.3243 2.1639 2.1375 2.1545 1.85418 1.7179 1.9013 2.1168 2.1748
1822.884 2.2466 2.1733 2.0832 2.1104 1.8961 1.8882 2.0505 2.2193 2.4779 2.4954
1842.174 2.1487 1.8048 1.8934 1.8662 1.82462 1.9989 2.1146 2.1341 2.1565 2.0269
1861.464 2.0747 2.265 2.1837 2.2387 2.3643 2.3641 2.3007 2.2131 2.2566 2.4546
1880.754 2.618 2.4843 2.3642 2.3737 2.2784 2.3323 2.3256 2.1393 1.865 1.80564
1900.043 2.0705 2.3969 2.3866 2.0884 1.9581 1.9674 2.1978 2.1722 1.9485 2.1647
1919.333 2.4111 2.4102 2.3006 2.2443 2.2609 2.0518 2.0089 2.0152 2.0167 2.195
1938.623 2.1955 2.2761 2.2391 2.227 2.4505 2.5626 2.5464 2.2706 2.1755 2.3444
1957.913 2.4872 2.2383 1.9343 2.1095 2.2281 2.4263 2.3646 2.4122 2.4239 2.3162
1977.202 2.3127 2.0648 1.9609 1.9942 2.2874 2.4893 2.3361 2.1559 2.0054 2.1225
1996.492 2.167 2.1178 2.2161 2.3081 2.4558 2.2868 2.2337 2.2137 2.1313 2.3831
2015.782 2.4182 2.1467 2.0929 2.1565 2.0921 2.0561 2.0923 2.265 2.439 2.26
2035.072 2.299 2.3147 2.3237 2.4978 2.4136 2.407 2.3092 2.2138 2.2194 2.2986
2054.362 2.2594 2.1693 2.2151 2.2064 2.3316 2.3881 2.374 2.2784 2.2391 2.1689
2073.651 2.1666 2.3805 2.2908 2.1103 2.1937 2.1374 2.0334 2.2334 2.4422 2.4774
2092.941 2.2902 2.2834 2.456 2.5306 2.5234 2.3659 2.2947 2.4059 2.3636 2.3103
2112.231 2.3425 2.5332 2.3899 2.1894 2.3316 2.2375 2.1184 2.2881 2.1934 2.1075
2131.521 2.2349 2.1617 2.1926 2.2918 2.1892 2.1457 2.2985 2.3934 2.3771 2.3822
2150.810 2.392 2.2442 2.274 2.415 2.3031 2.0318 2.1196 2.2855 2.4636 2.5748
2170.100 2.3455 2.0773 1.9284 2.069 2.3107 2.3183 2.1843 2.1285 2.4088 2.4921
2189.390 2.2852 2.4769 2.633 2.4699 2.1512 2.0574 2.1309 2.2245 2.3038 2.2306
2208.680 2.3887 2.4162 2.2495 2.4665 2.88 2.8 2.4743 2.1005 2.1031 2.2485
2227.970 2.2263 2.3076 2.3313 2.4977 2.4485 2.38 2.3629 2.275 2.4925 2.531
2247.259 2.4027 2.3981 2.5211 2.6727 2.5796 2.5039 2.3858 2.4488 2.399 2.376
2266.549 2.5379 2.6213 2.6632 2.5855 2.2588 2.2702 2.3777 2.112 2.2344 2.3514
2285.839 2.1819 2.2141 2.5734 2.6598 2.6682 2.6061 2.1814 1.9433 2.1686 2.4925
2305.129 2.5298 2.476 2.3151 2.2501 2.2089 2.2965 2.5535 2.2609 2.2499 2.3816
2324.418 2.141 2.4645 2.6482 2.3589 2.3437 2.6218 2.5804 2.287 2.4031 2.4875
2343.708 2.5896 2.85 2.86 2.6637 2.4131 2.4813 2.81 2.5636 2.1387 2.6102
2362.998 2.84 2.5105 2.3738 2.1677 2.1963 2.2416 2.6419 3.16 3.02 2.6795
2382.288 2.3042 2.3878 2.7511 2.95 2.78 2.2668 2.3343 2.4129 2.397 2.7276
2401.578 2.6478 2.3919 2.4544 2.1732 1.9151 2.0324 2.3916 2.4882 2.3989 2.4779
2420.867 2.4364 2.4786 2.5617 2.4848 2.3646 2.3347 2.3076 2.0532 1.9872 2.1064
2440.157 1.82235 2.0015 2.096 2.0049 2.1284 2.1199 2.1678 2.3532 2.3487 2.1735
2459.447 2.0512 2.078 2.2119 2.3466 2.3377 2.4342 2.4993 2.3004 2.1033 2.1898
2478.737 2.4397 2.3468 2.2885 2.3622 2.1885 2.2226 2.5599 2.4556 2.247 2.2829
2498.026 2.3793 2.6146 2.5514 2.3021 2.1841 2.2187 2.6504 2.6925 2.4246 2.5304
2517.316 2.5802 2.6446 2.5939 2.4507 2.5224 2.6328 2.4718 2.3337 2.2637 2.139
2536.606 2.1291 1.9853 1.958 2.1163 2.222 2.2444 2.2276 2.181 2.3475 2.3844
2555.896 2.2601 2.2973 2.4482 2.5014 2.5513 2.3274 2.2823 2.3516 2.0077 1.84782
2575.186 2.153 2.344 2.1654 2.3749 2.2892 2.0758 2.185 2.424 2.1628 1.85784
2594.475 2.0728 2.1926 2.4082 2.5041 2.3187 1.9897 2.1655 2.5037 2.3637 2.2601
2613.765 1.9806 1.9766 2.3725 2.3051 2.2408 2.629 2.79 2.5605 2.2992 2.1142
2633.055 2.3398 2.2926 2.164 2.1943 2.3082 2.4085 2.2608 2.1143 2.3714 2.5839
2652.345 2.3817 2.3018 2.1713 1.9579 2.1267 2.2697 2.2225 2.2295 2.4649 2.6476
2671.634 2.2725 2.0639 2.3323 2.3871 2.2808 2.8 2.91 2.7411 2.79 2.5449
2690.924 2.5737 2.4275 2.3352 2.4441 2.1687 1.9527 1.9661 2.5058 2.6448 2.0943
2710.214 2.2851 2.4381 2.4636 2.4707 1.9456 1.81107 2.2222 2.1948 1.8975 2.0761
2729.504 2.4609 2.6902 2.6652 2.5311 1.9746 2.1351 2.5985 2.4531 2.4209 2.2516
2748.794 2.4005 2.6355 2.3803 2.3318 2.3516 2.3906 2.3285 1.91 1.81579 2.1927
2768.083 2.5006 2.3175 2.0749 2.0654 2.0117 2.1586 2.2619 2.0245 2.1476 2.4088
2787.373 2.2592 2.0368 2.1155 2.4024 2.5374 2.4369 2.0581 1.80308 2.3994 2.6721
2806.663 2.3092 1.9395 1.576 1.6899 1.8265 1.9318 2.4664 3.08 2.99 2.5334
2825.953 2.5102 2.2239 1.9146 2.1406 2.4396 2.6308 2.5371 2.3079 2.197 2.3617
2845.242 2.2854 2.3731 2.4232 2.3456 2.79 2.79 2.7034 2.83 2.85 2.4991
2864.532 1.9586 2.0937 2.4021 2.5279 2.6132 2.4359 2.644 2.87 2.3019 2.1343
2883.822 2.3643 2.0878 1.9768 2.4944 2.6061 2.3654 2.5457 2.78 2.663 2.548
2903.112 2.5256 2.5251 2.5921 2.4679 2.0776 2.0744 2.4189 2.524 2.0967 2.3813
2922.401 2.83 2.4642 2.78 3.15 3.23 2.91 3.11 3.34 2.91 2.87
2941.691 2.98 3.38 2.98 2.3834 2.5134 2.5641 2.77 2.99 3.13 2.5918
2960.981 1.77966 2.313 2.84 2.6552 2.3308 2.0199 1.9606 1.9042 2.2375 2.7248
2980.271 2.83 2.89 2.8 2.87 2.85 2.6043 2.7218 2.3212 2.3695 2.6755
2999.561 2.4013 2.6247 2.5728 1.9331 1.7351 1.9401 2.4632 2.7016 2.5547 2.2914
3018.850 1.77538 2.0552 2.6915 2.6642 2.3248 2.204 2.3154 2.4536 2.2826 2.2274
3038.140 2.6983 2.7474 2.2239 1.81878 1.8933 2.1155 2.1188 2.1599 2.4563 2.716
3057.430 2.9 2.83 2.5838 2.84 3.12 3.09 3.08 3.3 3.72 3.5
3076.720 3.56 4.26 4.04 3.66 3.65 3.17 2.88 2.79 2.6908 2.5059
3096.009 2.7351 2.77 2.4615 2.6317 2.4461 2.5037 2.1587 2.1451 2.6102 2.4604
3115.299 2.2366 2.1819 2.3703 2.1088 2.1706 2.2086 2.2561 2.3288 2.1685 2.1371
3134.589 1.9711 2.3013 2.1083 1.565 1.9673 2.4124 2.5096 2.5963 2.6283 3
3153.879 2.4127 2.1504 2.6616 2.508 2.6482 2.85 2.4545 2.2347 2.93 2.93
3173.169 3.12 3.2 2.1991 1.8908 2.2647 2.2149 2.0088 2.5979 3.29 3.04
3192.458 2.97 3.02 2.83 2.6742 2.2479 2.6874 2.89 2.3219 2.0066 2.2595
3211.748 2.0466 1.503 2.175 2.6686 2.4963 2.2058 1.9419 2.1787 2.1007 2.2253
3231.038 2.6355 2.6701 2.65 2.419 2.423 2.34 2.412 2.4183 2.0907 1.9702
3250.328 2.1318 2.3686 2.1739 2.2488 2.5955 2.4625 2.2361 2.1553 2.2716 2.6369
3269.617 2.7423 2.85 2.0707 1.434 2.0415 2.1463 1.954 2.5642 3.13 2.5514
3288.907 2.2316 2.5199 2.78 2.86 2.82 1.9528 1.9379 2.6222 2.89 3.17
3308.197 2.6479 2.1823 2.4742 2.6302 2.0778 2.0095 2.1114 2.061 2.4202 2.87
3327.487 2.4056 2.3189 2.5589 2.3131 2.0253 2.1117 2.3702 2.3461 2.5661 2.1499
3346.777 1.8632 2.1301 2.1643 1.9895 1.6811 1.602 2.0964 2.5522 2.3605 2.395
3366.066 2.5678 2.729 2.7277 2.5604 2.3598 2.3582 2.6162 2.4896 1.85626 1.9801
3385.356 1.9941 1.527 1.8646 1.9906 1.9921 2.3537 2.6901 2.4437 2.3922 2.1268
3404.646 2.2573 2.3246 1.9856 2.3654 2.5908 1.76191 1.546 2.0164 2.4589 2.91
3423.936 2.502 2.1893 2.0246 2.0715 2.3533 1.9568 1.6933 2.2504 1.9048 1.547
3443.225 1.9246 2.4287 2.6431 2.3044 2.1587 2.3216 2.1209 2.0243 2.497 2.6947
3462.515 2.4636 2.5037 2.3492 2.0478 2.3145 2.5976 2.4371 1.9971 2.1864 2.421
3481.805 2.1128 1.9238 2.0038 2.498 2.5426 2.3685 2.3578 2.3147 2.2124 2.2588
3501.095 2.1773 1.9199 2.3087 2.4453 1.9211 1.6841 2.1743 2.4812 1.9937 2.2642
3520.385 2.3894 2.191 2.5847 2.6963 2.79 2.1704 1.7389 2.0134 2.2293 1.967
3539.674 1.9041 1.9793 1.83128 1.83793 2.2212 2.4903 2.0861 2.2903 2.7292 2.1603
3558.964 1.697 1.6992 1.54 1.653 1.84426 1.7264 2.1342 2.1699 1.8751 1.80639
3578.254 1.8108 2.143 2.5765 2.99 2.7236 2.2402 2.0874 1.81063 1.345 1.76198
3597.544 2.1598 2.0205 2.0449 2.1268 2.3095 2.4374 3.01 2.5795 1.478 1.361
3616.833 1.7963 2.85 2.96 2.0475 1.651 1.9631 2.3843 2.1193 1.9549 2.0695
3636.123 2.2471 2.6487 2.7079 2.1899 1.82978 2.758 3.18 2.5735 2.79 2.84
3655.413 2.5036 1.79157 1.582 2.0843 1.8949 2.0853 2.257 2.1921 2.4669 2.0274
3674.703 1.8971 2.3374 2.2265 2.4103 2.95 2.94 2.5175 2.2556 2.6906 2.6666
3693.993 3.07 2.82 1.8976 1.7685 2.2622 3 2.86 2.4766 2.3637 2.4917
3713.282 2.4316 2.1391 2.212 2.3645 2.4066 2.6013 2.3195 2.1013 2.1511 2.141
3732.572 2.028 2.4948 2.89 2.5742 2.654 2.89 2.98 2.85 2.4263 1.602
3751.862 1.647 2.181 2.3942 2.0153 1.9544 2.5893 2.5056 2.3291 2.2778 2.0228
3771.152 2.0769 2.1404 2.2421 2.2702 2.0336 1.79747 1.7255 1.748 2.129 2.5195
3790.441 2.0494 1.604 1.575 2.0213 2.2878 1.9289 1.462 1.336 1.422 1.9218
3809.731 2.3066 2.3248 2.6328 2.9 2.3099 1.6929 2.0709 2.1127 1.8939 1.8756
3829.021 1.9496 2.3259 2.3146 1.78168 1.887 2.2816 2.2388 2.92 3.3 2.4867
3848.311 2.2083 2.6322 3.32 3.2 2.688 2.0394 1.537 1.7121 1.8463 1.81398
3867.601 2.0552 2.6839 2.3931 2.0324 2.577 2.79 1.9725 1.8916 2.3603 2.725
3886.890 2.84 2.7011 2.6741 2.472 2.86 3.32 3.14 2.6684 2.643 2.82
3906.180 2.2209 1.477 1.865 2.2843 2.3156 1.76973 1.521 2.4926 2.84 2.3673
3925.470 1.80674 2.0426 2.3911 2.4794 2.7033 2.5129 2.78 2.7351 2.6514 2.83
3944.760 2.1675 2.5555 3.02 3.16 3.51 2.8 2.4604 2.98 2.6481 2.81
3964.049 2.98 2.3134 2.4698 2.6435 2.85 3.41 2.98 2.3001 2.0429 2.1841
3983.339 2.79 2.83 2.6858 2.6372 2.198 2.2562 2.6175 2.5352 2.1859 1.9058
##END=
