##TITLE=1,8-Nonadiyne
##JCAMP-DX=4.24
##DATA TYPE=INFRARED SPECTRUM
##ORIGIN=NIST Mass Spectrometry Data Center
##OWNER=NIST Standard Reference Data Program
Collection (C) 2018 copyright by the U.S. Secretary of Commerce
on behalf of the United States of America. All rights reserved.
##CAS REGISTRY NO=2396-65-8
##MOLFORM=C 9 H 12
##$NIST SOURCE=MSDC-IR
##SPECTROMETER/DATA SYSTEM=HP-GC/MS/IRD
##STATE=gas
##XUNITS=1/CM
##YUNITS=ABSORBANCE
##XFACTOR=1.0
##YFACTOR=0.000003800
##DELTAX=4.0
##FIRSTX=550.0
##LASTX=3846.0
##FIRSTY=0.001079
##MAXX=3846
##MINX=550
##MAXY=0.038
##MINY=0
##NPOINTS=825
##XYDATA=(X++(Y..Y))
550.0 284 248 210 228 220 212 236 237 250 290
590.0 330 382 489 646 887 1272 1891 2741 3881 5623
630.0 8281 10000 8850 6583 4638 3077 1956 1250 832 586
670.0 428 322 255 191 151 141 118 106 108 100
710.0 113 126 134 139 138 141 131 113 112 120
750.0 107 86 73 75 67 56 49 50 52 52
790.0 50 37 39 44 51 51 54 46 37 32
830.0 35 43 37 30 35 39 33 31 36 33
870.0 32 35 38 37 24 28 42 37 28 30
910.0 18 18 24 34 48 41 42 50 44 44
950.0 43 46 53 45 33 28 26 26 28 24
990.0 14 10 14 17 17 20 20 25 32 36
1030.0 31 32 41 41 50 67 57 45 51 60
1070.0 60 61 58 56 59 48 36 32 23 21
1110.0 28 27 24 24 15 7 14 22 36 38
1150.0 29 45 52 43 47 48 57 64 69 71
1190.0 80 100 108 118 130 156 201 239 307 432
1230.0 608 884 1300 1787 2185 2315 2192 1843 1349 933
1270.0 662 507 415 350 309 282 261 250 257 261
1310.0 264 286 320 364 395 407 423 418 386 356
1350.0 337 309 274 240 201 170 150 131 110 96
1390.0 91 87 87 89 103 123 143 177 237 323
1430.0 448 578 668 713 704 650 592 544 495 428
1470.0 354 288 225 167 131 109 87 71 57 47
1510.0 50 44 33 30 28 27 23 12 14 20
1550.0 19 11 3 13 20 14 9 11 19 19
1590.0 13 18 24 18 13 17 21 21 12 9
1630.0 11 5 8 13 8 0 2 10 7 2
1670.0 7 12 13 13 9 12 11 6 5 8
1710.0 12 12 11 19 17 18 19 19 23 20
1750.0 19 23 23 20 23 26 23 25 25 23
1790.0 19 11 14 17 18 17 15 20 21 15
1830.0 14 16 15 15 13 16 16 16 22 25
1870.0 25 19 20 24 21 18 17 16 13 8
1910.0 12 12 13 14 14 20 19 13 12 15
1950.0 17 17 19 15 10 13 15 17 20 20
1990.0 18 18 20 22 23 22 25 22 24 25
2030.0 26 33 37 38 31 27 33 33 38 43
2070.0 45 54 67 79 94 120 156 198 253 317
2110.0 377 436 463 443 382 293 201 132 91 68
2150.0 53 42 40 33 26 27 31 29 29 28
2190.0 24 26 28 30 29 26 27 22 21 20
2230.0 19 18 23 27 25 20 21 24 28 29
2270.0 26 27 26 23 22 22 26 31 26 22
2310.0 28 31 27 27 28 29 24 22 23 26
2350.0 28 27 31 36 39 38 36 33 26 27
2390.0 27 23 24 27 26 23 22 23 25 22
2430.0 22 19 16 16 17 19 22 19 15 11
2470.0 12 14 14 12 10 13 16 19 21 24
2510.0 24 25 24 22 22 27 25 22 21 14
2550.0 16 18 10 11 13 12 14 18 19 24
2590.0 25 22 21 24 31 31 29 36 39 34
2630.0 37 44 51 51 45 49 53 52 59 64
2670.0 70 69 67 73 81 100 106 91 72 58
2710.0 55 54 51 50 46 47 50 54 65 60
2750.0 50 47 54 62 63 67 62 60 64 71
2790.0 77 81 90 100 105 113 131 149 169 201
2830.0 240 290 363 458 586 731 885 1058 1212 1322
2870.0 1374 1358 1282 1160 1037 959 938 973 1070 1228
2910.0 1441 1707 2026 2419 2893 3415 3961 4487 4862 4952
2950.0 4709 4139 3346 2537 1846 1302 915 652 478 368
2990.0 294 238 202 170 147 129 113 109 105 94
3030.0 87 79 70 66 61 61 64 59 54 56
3070.0 56 48 41 40 44 43 34 29 22 23
3110.0 26 30 33 29 34 33 27 22 21 24
3150.0 20 18 28 22 11 11 16 20 19 22
3190.0 22 27 33 31 23 31 41 38 33 35
3230.0 49 59 66 78 81 93 118 139 168 211
3270.0 254 307 380 475 569 680 829 1074 1404 1638
3310.0 1869 2157 2562 3194 3450 3417 3181 2224 1327 924
3350.0 693 542 433 355 282 216 166 124 103 91
3390.0 76 60 50 52 49 46 48 45 49 51
3430.0 47 44 43 40 40 43 37 38 30 31
3470.0 39 28 24 23 22 27 28 24 22 24
3510.0 21 19 25 23 16 17 26 22 22 26
3550.0 22 19 22 18 18 24 19 19 23 28
3590.0 35 31 23 22 19 22 36 34 24 20
3630.0 19 20 24 23 23 17 16 22 23 25
3670.0 29 29 32 28 20 24 25 25 27 24
3710.0 21 26 31 25 18 13 20 35 41 33
3750.0 25 30 28 26 33 38 43 32 26 32
3790.0 26 21 19 13 10 21 28 13 7 18
3830.0 22 17 20 22 15
##END=
