##TITLE=3-Bromoanisole
##JCAMP-DX=4.24
##DATA TYPE=INFRARED SPECTRUM
##ORIGIN=NIST Mass Spectrometry Data Center
##OWNER=NIST Standard Reference Data Program
Collection (C) 2018 copyright by the U.S. Secretary of Commerce
on behalf of the United States of America. All rights reserved.
##CAS REGISTRY NO=2398-37-0
##MOLFORM=C 7 H 7 Br O
##$NIST SOURCE=MSDC-IR
##SPECTROMETER/DATA SYSTEM=HP-GC/MS/IRD
##STATE=gas
##XUNITS=1/CM
##YUNITS=ABSORBANCE
##XFACTOR=1.0
##YFACTOR=0.000003000
##DELTAX=4.0
##FIRSTX=550.0
##LASTX=3846.0
##FIRSTY=0.000558
##MAXX=3846
##MINX=550
##MAXY=0.03
##MINY=0
##NPOINTS=825
##XYDATA=(X++(Y..Y))
550.0 186 334 305 253 180 152 134 79 39 28
590.0 10 0 2 30 28 29 42 46 82 85
630.0 93 115 129 162 198 281 427 602 757 920
670.0 1074 1219 1439 1443 1212 958 693 456 270 170
710.0 133 101 76 81 101 107 147 214 293 484
750.0 740 1045 1495 1984 2239 2431 2375 1877 1396 1017
790.0 677 449 365 359 435 602 916 1446 2212 3157
830.0 4091 4654 4561 3907 2836 1756 1186 1046 1003 910
870.0 777 661 546 421 320 246 195 157 136 120
910.0 105 109 96 77 82 93 83 72 83 100
950.0 104 126 156 171 203 247 294 368 516 734
990.0 913 1001 1003 905 861 972 1249 1690 2266 2989
1030.0 3816 4622 5278 5628 5538 4944 4045 3155 2395 1939
1070.0 1654 1301 1079 1024 967 848 692 518 357 286
1110.0 276 285 286 286 298 311 331 358 391 461
1150.0 585 679 735 762 741 709 710 763 819 837
1190.0 824 813 855 982 1234 1614 2144 2858 3656 4430
1230.0 5092 5601 6003 6204 6037 5538 4744 3665 2808 2487
1270.0 2526 2806 3173 3493 3682 3634 3334 2884 2351 1882
1310.0 1570 1379 1274 1200 1122 1006 842 669 531 427
1350.0 343 283 243 225 222 230 254 302 368 452
1390.0 555 657 774 905 1058 1277 1567 1877 2170 2391
1430.0 2455 2454 2512 2589 2610 2639 2673 2815 3378 4530
1470.0 6269 8031 8636 7927 6152 3822 2116 1290 925 770
1510.0 701 700 724 741 747 736 740 789 891 1053
1550.0 1297 1641 2202 3057 4180 5592 7004 8380 9474 10000
1590.0 9772 8765 7064 5086 3421 2291 1570 1105 805 612
1630.0 489 406 343 313 292 267 245 220 202 185
1670.0 169 171 172 158 143 136 133 127 120 128
1710.0 140 153 165 173 183 189 181 165 148 144
1750.0 149 137 122 110 96 90 86 80 78 75
1790.0 74 79 77 82 95 103 117 124 128 137
1830.0 144 148 141 125 109 94 81 79 79 76
1870.0 80 71 63 70 69 66 71 89 112 131
1910.0 141 144 144 127 94 71 54 34 29 31
1950.0 27 35 32 21 17 15 14 19 30 37
1990.0 39 43 47 43 43 46 48 58 72 81
2030.0 91 101 115 134 152 170 188 201 203 198
2070.0 199 211 213 206 198 176 148 125 110 93
2110.0 71 63 65 53 41 44 48 41 34 29
2150.0 30 27 23 20 19 17 5 6 10 4
2190.0 4 10 5 0 3 4 6 12 15 14
2230.0 15 22 21 21 22 23 32 35 40 41
2270.0 42 40 31 30 34 38 41 44 45 51
2310.0 55 57 59 55 50 49 44 30 27 29
2350.0 27 31 32 26 32 32 25 24 30 34
2390.0 39 43 44 44 49 58 62 63 61 57
2430.0 56 47 39 33 34 42 37 37 41 50
2470.0 56 73 86 89 102 104 104 106 100 90
2510.0 82 83 84 76 65 62 57 53 51 46
2550.0 43 46 42 42 45 57 65 61 51 45
2590.0 38 29 34 42 42 44 39 30 30 37
2630.0 48 51 40 38 35 38 42 33 39 45
2670.0 48 43 34 41 50 50 49 51 50 53
2710.0 54 59 63 57 53 57 50 42 34 32
2750.0 36 42 50 60 72 75 78 89 98 103
2790.0 103 119 143 163 184 205 238 280 333 407
2830.0 514 670 862 1031 1114 1099 978 803 661 584
2870.0 552 523 517 517 515 544 592 654 738 825
2910.0 894 958 993 1001 1014 1058 1178 1394 1650 1853
2950.0 1957 1949 1824 1668 1477 1265 1091 944 826 766
2990.0 770 833 974 1184 1436 1560 1513 1357 1076 802
3030.0 649 560 491 442 410 379 372 399 456 541
3070.0 642 755 837 863 829 702 569 458 351 273
3110.0 216 167 124 104 102 94 84 74 68 75
3150.0 85 86 76 71 76 65 61 58 46 48
3190.0 33 28 40 35 29 50 52 31 31 36
3230.0 30 27 27 28 31 34 39 31 26 27
3270.0 31 40 22 15 24 19 16 30 35 46
3310.0 49 28 11 25 36 14 12 8 7 19
3350.0 18 9 12 27 31 14 18 27 28 34
3390.0 31 17 16 16 1 8 21 31 33 24
3430.0 26 18 10 28 37 36 53 36 21 19
3470.0 8 22 33 34 30 34 48 40 27 24
3510.0 26 41 52 57 48 34 31 36 39 39
3550.0 41 42 58 60 55 59 48 37 44 50
3590.0 57 55 41 45 52 42 29 32 40 56
3630.0 51 48 57 52 51 42 48 63 56 43
3670.0 49 60 54 52 59 49 45 51 49 49
3710.0 52 57 67 67 45 42 50 56 78 84
3750.0 69 72 63 50 55 63 66 63 63 62
3790.0 58 48 44 55 47 44 67 72 46 45
3830.0 69 75 79 88 77
##END=
