##TITLE=trans-1,2-Dimethylcyclopropane
##JCAMP-DX=4.24
##DATA TYPE=INFRARED SPECTRUM
##ORIGIN=NIST Mass Spectrometry Data Center
##OWNER=NIST Standard Reference Data Program
Collection (C) 2018 copyright by the U.S. Secretary of Commerce
on behalf of the United States of America. All rights reserved.
##CAS REGISTRY NO=2402-06-4
##MOLFORM=C 5 H 10
##$NIST SOURCE=MSDC-IR
##SPECTROMETER/DATA SYSTEM=HP-GC/MS/IRD
##STATE=gas
##XUNITS=1/CM
##YUNITS=ABSORBANCE
##XFACTOR=1.0
##YFACTOR=0.000003800
##DELTAX=4.0
##FIRSTX=550.0
##LASTX=3846.0
##FIRSTY=0.000334
##MAXX=3846
##MINX=550
##MAXY=0.038
##MINY=0
##NPOINTS=825
##XYDATA=(X++(Y..Y))
550.0 88 54 47 66 85 86 51 23 0 35
590.0 61 38 62 119 140 133 146 157 147 145
630.0 129 129 162 155 133 144 146 146 145 140
670.0 154 172 178 169 161 165 161 166 197 208
710.0 201 226 269 303 310 327 397 468 534 609
750.0 666 728 828 875 790 731 685 584 508 462
790.0 417 364 308 296 296 272 243 237 253 261
830.0 295 366 445 552 691 834 954 1077 1183 1147
870.0 1032 976 917 828 729 616 513 447 398 361
910.0 321 299 287 261 251 251 248 248 260 277
950.0 294 329 373 417 459 517 575 603 632 680
990.0 716 763 840 931 1004 1035 1084 1191 1148 1040
1030.0 1037 976 869 762 683 627 596 592 622 637
1070.0 598 562 579 609 585 529 486 457 408 344
1110.0 310 291 246 222 198 175 166 156 168 170
1150.0 182 189 196 217 214 210 205 191 189 179
1190.0 157 147 151 142 125 135 150 139 131 142
1230.0 139 134 136 139 152 161 157 159 179 205
1270.0 215 225 248 269 304 362 440 533 605 620
1310.0 622 670 673 642 652 616 524 440 382 349
1350.0 351 370 401 436 479 540 610 676 802 896
1390.0 795 755 784 742 701 686 702 757 835 939
1430.0 1082 1265 1441 1560 1618 1608 1634 1748 1860 1844
1470.0 1612 1393 1247 1102 976 852 726 605 510 439
1510.0 371 323 291 271 257 246 235 224 221 215
1550.0 199 184 176 170 173 186 189 186 188 185
1590.0 180 189 202 204 207 217 219 220 225 218
1630.0 216 208 196 193 187 180 174 163 154 151
1670.0 137 122 112 109 102 96 92 88 82 78
1710.0 78 75 76 84 90 93 98 93 87 81
1750.0 73 81 86 76 82 91 94 100 113 120
1790.0 120 119 115 103 100 103 98 95 92 85
1830.0 89 97 91 89 99 100 91 84 86 91
1870.0 90 85 83 82 80 77 74 74 74 71
1910.0 75 79 81 90 98 100 97 98 107 107
1950.0 105 107 102 96 95 93 93 91 83 74
1990.0 77 81 76 79 91 98 94 102 111 116
2030.0 122 119 119 122 123 107 91 83 73 65
2070.0 62 53 50 50 44 43 43 47 50 46
2110.0 46 50 47 53 59 66 72 71 76 83
2150.0 84 86 87 84 74 68 65 53 42 38
2190.0 37 38 31 29 35 34 29 23 30 32
2230.0 43 60 57 52 55 51 46 45 41 31
2270.0 26 23 17 12 12 7 0 0 4 6
2310.0 5 5 4 12 16 10 9 12 12 6
2350.0 6 14 18 19 19 22 15 13 16 15
2390.0 16 18 13 14 19 20 22 24 27 33
2430.0 35 35 40 33 28 32 36 44 41 36
2470.0 35 38 40 33 24 23 25 22 20 17
2510.0 24 27 24 20 22 22 23 30 35 37
2550.0 40 46 47 34 25 29 25 20 22 20
2590.0 26 32 29 28 27 31 36 39 43 45
2630.0 51 55 48 44 45 49 58 63 61 63
2670.0 68 68 75 75 77 83 88 104 120 133
2710.0 139 144 162 198 235 276 315 337 369 389
2750.0 393 422 440 416 374 354 345 348 363 383
2790.0 406 424 430 442 467 500 543 589 621 665
2830.0 728 804 889 997 1138 1340 1658 2156 2867 3659
2870.0 4163 4201 4370 4669 4671 4928 5195 5085 4863 4743
2910.0 4826 5106 5514 5961 6369 6764 7352 8146 8923 9618
2950.0 10000 9787 9610 9537 9110 8529 7792 7007 6374 5956
2990.0 5713 5518 5342 5311 5817 6362 5704 4790 4299 3825
3030.0 3413 3044 2730 2510 2392 2367 2422 2453 2464 2809
3070.0 2836 2319 2145 2010 1710 1393 1126 923 763 635
3110.0 541 486 441 409 394 379 365 364 356 332
3150.0 319 309 286 262 241 219 205 194 174 153
3190.0 149 125 103 102 101 100 89 82 81 80
3230.0 82 80 92 92 74 68 72 74 71 69
3270.0 73 72 59 54 65 63 56 44 42 50
3310.0 57 52 57 62 51 40 31 37 37 38
3350.0 47 41 37 42 41 52 54 58 63 52
3390.0 47 51 49 41 35 28 22 15 13 14
3430.0 10 15 13 16 29 30 34 53 52 37
3470.0 34 43 36 23 29 31 12 12 35 29
3510.0 12 19 16 13 12 8 13 13 6 8
3550.0 8 0 7 12 9 15 17 16 28 30
3590.0 18 11 14 14 14 23 19 14 14 22
3630.0 23 18 21 18 21 30 39 26 16 20
3670.0 26 35 38 35 29 36 45 41 45 36
3710.0 25 27 23 33 48 56 53 43 46 57
3750.0 52 54 66 67 57 57 60 58 53 38
3790.0 29 24 39 46 57 69 45 39 44 55
3830.0 67 62 81 91 83
##END=
