##TITLE=Bromocycloheptane
##JCAMP-DX=4.24
##DATA TYPE=INFRARED SPECTRUM
##ORIGIN=NIST Mass Spectrometry Data Center
##OWNER=NIST Standard Reference Data Program
Collection (C) 2018 copyright by the U.S. Secretary of Commerce
on behalf of the United States of America. All rights reserved.
##CAS REGISTRY NO=2404-35-5
##MOLFORM=C 7 H 13 Br
##$NIST SOURCE=MSDC-IR
##SPECTROMETER/DATA SYSTEM=HP-GC/MS/IRD
##STATE=gas
##XUNITS=1/CM
##YUNITS=ABSORBANCE
##XFACTOR=1.0
##YFACTOR=0.000004500
##DELTAX=4.0
##FIRSTX=550.0
##LASTX=3846.0
##FIRSTY=0.000212
##MAXX=3846
##MINX=550
##MAXY=0.045
##MINY=0
##NPOINTS=825
##XYDATA=(X++(Y..Y))
550.0 47 16 0 19 45 50 61 99 151 155
590.0 139 118 81 36 3 2 7 10 6 7
630.0 23 36 59 87 116 151 188 233 290 339
670.0 377 426 500 529 505 444 342 244 177 133
710.0 117 118 134 165 207 261 287 286 266 217
750.0 158 110 89 61 40 33 27 24 27 36
790.0 35 41 56 82 117 163 198 210 222 209
830.0 208 209 185 171 161 152 140 123 96 76
870.0 76 79 85 94 112 128 137 146 159 178
910.0 199 223 247 280 316 352 381 392 379 342
950.0 281 217 166 131 113 109 118 137 162 187
990.0 201 208 210 197 179 174 164 148 123 89
1030.0 63 42 35 26 20 21 15 9 7 3
1070.0 4 9 8 6 5 18 40 54 79 96
1110.0 107 126 147 150 147 163 201 257 310 337
1150.0 333 300 240 184 148 132 131 150 192 270
1190.0 408 596 810 1030 1208 1268 1195 1030 817 593
1230.0 415 304 234 181 155 144 139 148 176 228
1270.0 300 373 421 423 388 320 246 185 145 127
1310.0 123 121 129 149 168 194 230 274 314 341
1350.0 355 340 302 254 214 169 122 93 75 66
1390.0 64 67 70 78 90 110 141 185 246 324
1430.0 424 555 728 928 1120 1267 1365 1398 1331 1154
1470.0 942 732 548 399 286 210 158 122 92 74
1510.0 68 58 45 39 41 37 29 21 20 23
1550.0 24 23 17 16 22 24 18 10 12 18
1590.0 18 17 11 9 12 12 11 9 3 8
1630.0 10 6 7 12 9 2 5 13 15 10
1670.0 7 8 11 11 6 10 13 12 12 14
1710.0 15 12 7 5 7 10 10 11 11 10
1750.0 7 8 9 8 8 9 7 6 6 8
1790.0 13 10 9 11 9 9 11 9 8 7
1830.0 10 12 11 11 10 9 10 9 9 7
1870.0 5 4 4 6 6 8 12 8 7 6
1910.0 7 11 10 6 7 6 6 7 9 10
1950.0 7 6 6 6 7 6 7 5 4 5
1990.0 3 1 1 6 10 12 9 4 6 9
2030.0 7 4 5 8 10 10 9 10 9 5
2070.0 3 4 4 6 7 7 8 6 5 12
2110.0 11 8 9 11 14 12 10 12 13 15
2150.0 16 15 18 21 21 23 21 18 21 24
2190.0 21 18 19 22 18 18 20 19 19 16
2230.0 16 15 14 13 13 12 14 17 17 18
2270.0 18 17 16 15 16 18 17 16 16 13
2310.0 11 10 10 13 13 12 12 15 13 14
2350.0 17 12 7 8 7 10 13 12 8 10
2390.0 10 8 11 10 8 8 7 9 9 4
2430.0 1 7 7 10 11 10 15 16 12 15
2470.0 17 17 18 15 9 8 10 11 14 14
2510.0 13 8 8 12 10 12 15 16 19 24
2550.0 25 23 22 29 33 29 29 28 24 26
2590.0 24 22 27 28 25 28 29 30 36 40
2630.0 46 52 54 61 68 74 82 84 97 106
2670.0 115 125 130 138 144 144 141 136 133 128
2710.0 117 102 94 88 78 72 66 62 64 61
2750.0 60 62 68 76 81 90 104 118 124 140
2790.0 163 178 193 205 219 234 250 269 298 340
2830.0 397 481 590 736 946 1239 1630 2074 2474 2743
2870.0 2823 2716 2490 2223 2009 1892 1875 1964 2155 2477
2910.0 2958 3657 4624 5877 7356 8772 9717 10000 9605 8584
2950.0 7217 5899 4843 3979 3183 2465 1855 1366 983 706
2990.0 515 394 314 258 221 199 179 162 155 148
3030.0 126 112 106 96 84 80 75 70 65 59
3070.0 57 59 57 53 51 45 41 39 36 39
3110.0 38 39 33 25 31 33 27 25 25 25
3150.0 30 31 33 35 36 35 27 26 23 23
3190.0 34 31 24 26 27 30 28 30 30 27
3230.0 26 27 26 24 21 20 27 32 28 25
3270.0 21 18 19 19 16 14 11 17 24 19
3310.0 13 15 23 17 9 15 17 10 3 5
3350.0 5 9 9 12 16 15 20 27 30 29
3390.0 26 14 6 14 20 17 16 22 26 21
3430.0 17 22 33 33 28 22 15 14 13 8
3470.0 11 23 29 26 23 17 12 19 21 11
3510.0 7 14 15 3 1 5 8 13 18 16
3550.0 9 7 9 11 9 13 21 14 8 10
3590.0 13 19 28 25 12 12 16 18 16 10
3630.0 16 24 28 23 14 12 13 17 21 19
3670.0 21 24 27 20 17 27 29 25 24 26
3710.0 22 12 13 17 21 26 27 22 11 8
3750.0 5 9 25 28 31 33 32 35 28 30
3790.0 29 22 23 22 18 23 22 19 20 16
3830.0 19 23 25 22 27
##END=
