##TITLE=Dibutyl methylphosphonate
##JCAMP-DX=4.24
##DATA TYPE=INFRARED SPECTRUM
##ORIGIN=EPA-IR VAPOR PHASE LIBRARY
##OWNER=SRD/NIST
Collection (C) 2018 copyright by the U.S. Secretary of Commerce
on behalf of the United States of America. All rights reserved.
##CAS REGISTRY NO=2404-73-1
##MOLFORM=C 9 H 21 O 3 P
##$NIST SOURCE=MSDC-IR
##STATE=gas
##XUNITS=1/CM
##YUNITS=ABSORBANCE
##XFACTOR=1.
##YFACTOR=0.001
##DELTAX=3.85796
##FIRSTX=501.5
##LASTX=4000.7
##FIRSTY=19.68
##MAXX=4000.7
##MINX=501.534
##MAXY=0.2456
##MINY=0.00003712
##NPOINTS=908
##XYDATA=(X++(Y..Y))
501.534 19.68 18.9 17.94 16.53 14.88 13.35 11.74 10.06 8.44 7.11
540.114 5.97 5.02 4.28 3.63 3.07 2.55 2.08 1.73 1.54 1.38
578.693 1.15 1.03 0.9625 0.9011 0.8675 0.8471 0.7956 0.7952 0.7933 0.7712
617.273 0.8036 0.8392 0.8347 0.8225 0.8212 0.8993 1.02 1.08 1.19 1.3
655.852 1.39 1.51 1.66 1.88 2.19 2.55 3 3.63 4.48 5.53
694.432 6.71 7.99 9.22 10.27 11.17 11.89 12.59 13.56 14.57 15.52
733.011 16.37 17.19 18.15 19.04 19.66 19.74 19.24 18.37 17.53 17.22
771.591 17.71 19.25 21.92 25.59 29.93 34.38 38.28 40.91 41.94 41.75
810.170 40.97 39.83 37.81 34.43 29.75 24.62 20.22 16.95 14.71 13.32
848.750 12.54 12.17 12.18 12.49 13.11 14.07 15.44 17.52 20.73 25.66
887.330 32.88 41.88 51.11 59.2 66.08 73.67 84.62 98.16 107.9 106.85
925.909 94.37 76.55 61.36 52.75 50.32 52.54 57.9 65 73.36 83.41
964.489 96.28 112.59 129.75 142.33 145.61 139.15 127.83 118.45 115.26 118.49
1003.068 127.38 143.43 168.41 199.95 229.4 245.6 243.12 225.41 202 181.79
1041.648 167.27 156.84 148.85 142.91 139.97 139.8 139.61 136.31 128.69 117.1
1080.227 102.54 86.45 70.99 57.85 47.54 39.93 34.6 30.9 28.38 26.81
1118.807 25.72 24.66 23.57 22.54 21.55 20.57 19.59 18.62 17.5 16.2
1157.387 14.85 13.41 12.05 10.96 10.03 9.26 8.7 8.32 8.03 7.86
1195.966 7.93 8.14 8.47 8.96 9.76 10.78 12.03 13.79 16.03 18.66
1234.546 21.74 25.59 30.63 37.92 48.99 64.92 84.87 104.97 118.18 118.72
1273.125 107.57 90.69 74.14 61.16 52.31 46.79 44.71 47.2 53.9 61.66
1311.705 64.92 58.52 45.08 31.3 21.12 15.32 12.27 10.48 9.3 8.43
1350.284 7.76 7.29 7.03 7.01 7.24 7.85 9.02 10.9 13.32 15.43
1388.864 16.32 15.53 13.52 11.29 9.51 8.51 8.37 8.9 9.7 10.29
1427.443 10.56 10.69 10.86 11.16 11.6 12.29 13.36 14.72 16.16 17.33
1466.023 17.89 17.66 16.57 14.86 12.89 10.91 9.11 7.63 6.45 5.53
1504.603 4.82 4.26 3.82 3.49 3.24 3 2.81 2.66 2.53 2.44
1543.182 2.32 2.23 2.13 2.04 1.97 1.89 1.82 1.76 1.72 1.68
1581.762 1.62 1.55 1.47 1.41 1.34 1.28 1.25 1.23 1.2 1.2
1620.341 1.19 1.16 1.15 1.14 1.13 1.13 1.11 1.12 1.16 1.18
1658.921 1.22 1.27 1.32 1.37 1.41 1.45 1.49 1.52 1.56 1.58
1697.500 1.59 1.61 1.65 1.7 1.76 1.83 1.9 1.96 2.03 2.05
1736.080 2.05 2.02 2.03 2.06 2.06 2.08 2.1 2.13 2.15 2.15
1774.659 2.16 2.15 2.12 2.12 2.13 2.11 2.1 2.12 2.16 2.19
1813.239 2.15 2.13 2.08 2 1.92 1.85 1.81 1.79 1.77 1.79
1851.819 1.81 1.83 1.82 1.8 1.76 1.68 1.58 1.5 1.41 1.3
1890.398 1.21 1.13 1.06 1 0.9423 0.8812 0.8307 0.7979 0.7782 0.7521
1928.978 0.7382 0.7331 0.7232 0.7248 0.7289 0.749 0.763 0.7661 0.7735 0.7721
1967.557 0.7792 0.7818 0.7822 0.7917 0.7974 0.7977 0.7918 0.7798 0.7713 0.7832
2006.137 0.7899 0.7789 0.7889 0.8028 0.7932 0.7903 0.7963 0.7979 0.7967 0.7997
2044.716 0.8038 0.7936 0.7697 0.7487 0.7178 0.6928 0.6729 0.6494 0.6338 0.6301
2083.296 0.6197 0.6137 0.6366 0.6637 0.6873 0.6979 0.7016 0.6836 0.6659 0.6556
2121.875 0.6292 0.5873 0.5495 0.5474 0.5309 0.5007 0.4847 0.4762 0.4615 0.4474
2160.455 0.4487 0.4631 0.4807 0.4942 0.5161 0.5333 0.5402 0.5669 0.5891 0.5915
2199.035 0.5869 0.5675 0.5681 0.5595 0.54 0.5289 0.4807 0.4485 0.4422 0.4209
2237.614 0.3987 0.3774 0.3859 0.3796 0.3548 0.3548 0.3553 0.3725 0.3798 0.3848
2276.194 0.395 0.3974 0.415 0.4216 0.4273 0.4191 0.4042 0.4039 0.4028 0.3937
2314.773 0.3817 0.3721 0.3822 0.4049 0.4221 0.428 0.4351 0.4347 0.4271 0.4369
2353.353 0.4225 0.4016 0.3867 0.3721 0.3773 0.3977 0.3954 0.3949 0.4247 0.4243
2391.932 0.4213 0.4446 0.457 0.4454 0.4462 0.4245 0.4015 0.4161 0.4112 0.4074
2430.512 0.4199 0.3949 0.3607 0.3432 0.3372 0.3443 0.3462 0.3441 0.3167 0.3063
2469.092 0.2979 0.2822 0.2996 0.3148 0.3138 0.3162 0.319 0.3282 0.3646 0.4041
2507.671 0.4431 0.4739 0.5083 0.5409 0.5555 0.5434 0.5199 0.5143 0.4778 0.4522
2546.251 0.4418 0.4441 0.4774 0.5038 0.5353 0.5752 0.5803 0.5881 0.6229 0.6627
2584.830 0.6604 0.6447 0.6665 0.6761 0.6724 0.6778 0.6983 0.7065 0.7016 0.6856
2623.410 0.6805 0.6823 0.696 0.7163 0.7405 0.7757 0.7864 0.8335 0.8844 0.9346
2661.989 1.02 1.1 1.17 1.24 1.29 1.32 1.36 1.41 1.46 1.52
2700.569 1.59 1.67 1.73 1.79 1.87 1.96 2.08 2.24 2.42 2.63
2739.148 2.86 3.12 3.36 3.49 3.57 3.59 3.55 3.52 3.52 3.5
2777.728 3.48 3.52 3.6 3.7 3.83 3.98 4.21 4.53 4.87 5.25
2816.308 5.73 6.29 6.96 7.76 8.71 9.92 11.49 13.42 15.65 18.09
2854.887 20.59 23.21 26.34 30.4 35.53 41.48 47.78 53.13 56.15 56.87
2893.467 56.16 55.61 56.42 58.44 61.21 64.26 66.99 69.28 72.02 76.34
2932.046 82.91 91.36 100.16 107.14 111.42 114.17 117.81 124.53 133.47 140.36
2970.626 139.16 126.98 106.69 84.06 64.6 50.2 40.01 33.01 28.11 24.21
3009.205 20.53 17.01 14.04 11.82 10.21 9.02 8.1 7.34 6.67 6.06
3047.785 5.51 5.06 4.64 4.29 4 3.76 3.57 3.42 3.3 3.12
3086.364 3 2.91 2.79 2.69 2.59 2.55 2.48 2.38 2.28 2.22
3124.944 2.12 2.01 1.94 1.9 1.86 1.83 1.8 1.74 1.7 1.66
3163.524 1.58 1.55 1.52 1.48 1.47 1.46 1.37 1.31 1.27 1.21
3202.103 1.14 1.09 1.05 0.9868 0.9203 0.8828 0.8445 0.8003 0.7291 0.6684
3240.683 0.6464 0.6415 0.5978 0.5459 0.5112 0.4326 0.4328 0.4674 0.439 0.4074
3279.262 0.4018 0.4073 0.4005 0.3983 0.3991 0.408 0.4274 0.4242 0.3949 0.3717
3317.842 0.3631 0.3186 0.3209 0.3294 0.2966 0.3064 0.3085 0.3111 0.303 0.2816
3356.421 0.2787 0.2761 0.2644 0.2638 0.2943 0.282 0.2584 0.2893 0.297 0.2771
3395.001 0.245 0.2341 0.2694 0.2439 0.1839 0.2167 0.2313 0.2282 0.2297 0.2046
3433.580 0.219 0.2158 0.1954 0.2246 0.2181 0.2149 0.2138 0.1952 0.173 0.1264
3472.160 0.1155 0.1073 0.1037 0.1353 0.1697 0.1441 0.1471 0.1581 0.1214 0.08869
3510.740 0.05535 0.07081 0.09941 0.07878 0.1198 0.167 0.1205 0.0777 0.0887 0.07269
3549.319 0.03712 0.05606 0.0765 0.07782 0.07641 0.09192 0.08364 0.08882 0.1037 0.06884
3587.899 0.0763 0.07603 0.08422 0.1502 0.1271 0.08693 0.1221 0.1372 0.1556 0.1913
3626.478 0.2217 0.2398 0.2581 0.2714 0.2799 0.2719 0.2713 0.2725 0.2592 0.251
3665.058 0.2488 0.2397 0.2831 0.3666 0.3928 0.3658 0.3682 0.4289 0.43 0.4174
3703.637 0.4266 0.4212 0.4236 0.4309 0.4433 0.4382 0.4332 0.4476 0.4636 0.4989
3742.217 0.4927 0.45 0.4636 0.4359 0.3848 0.4052 0.442 0.4177 0.3882 0.4464
3780.797 0.4439 0.4383 0.4243 0.4305 0.4706 0.4447 0.4714 0.5339 0.5627 0.5911
3819.376 0.6243 0.6213 0.6795 0.7398 0.7197 0.6521 0.6389 0.6763 0.6837 0.6733
3857.956 0.6593 0.6649 0.6518 0.6293 0.6119 0.5949 0.6154 0.6362 0.6519 0.6751
3896.535 0.6521 0.6178 0.637 0.6872 0.7076 0.73 0.7321 0.7307 0.7367 0.7091
3935.115 0.7066 0.6854 0.6783 0.6703 0.6544 0.6848 0.6916 0.6786 0.6637 0.6567
3973.694 0.6717 0.7469 0.8487 0.832 0.816 0.8651 0.8726 0.876
##END=
