##TITLE=Ethyl 2-isothiocyanatoacetate
##JCAMP-DX=4.24
##DATA TYPE=INFRARED SPECTRUM
##ORIGIN=EPA-IR VAPOR PHASE LIBRARY
##OWNER=SRD/NIST
Collection (C) 2018 copyright by the U.S. Secretary of Commerce
on behalf of the United States of America. All rights reserved.
##CAS REGISTRY NO=24066-82-8
##MOLFORM=C 5 H 7 N O 2 S
##$NIST SOURCE=MSDC-IR
##STATE=gas
##XUNITS=1/CM
##YUNITS=ABSORBANCE
##XFACTOR=1.
##YFACTOR=0.001
##DELTAX=1.92898
##FIRSTX=549.8
##LASTX=4000.7
##FIRSTY=8.642
##MAXX=4000.7
##MINX=549.759
##MAXY=0.315512
##MINY=0
##NPOINTS=1790
##XYDATA=(X++(Y..Y))
549.759 8.642 8.992 8.842 8.662 8.822 8.972 8.732 8.552 8.632 8.562
569.049 8.582 8.562 8.352 8.082 7.972 7.862 7.452 7.142 7.322 7.342
588.339 6.982 6.712 6.342 6.192 6.332 6.092 5.702 5.342 5.232 5.162
607.628 5.042 5.142 5.062 4.902 4.892 4.822 4.572 4.442 4.462 4.492
626.918 4.632 4.672 4.472 4.462 4.752 4.932 4.662 4.652 4.962 5.002
646.208 4.972 5.142 5.302 5.302 5.392 5.532 5.752 5.862 6.222 6.552
665.498 6.592 6.652 6.682 6.802 7.082 7.242 7.292 7.362 7.382 7.662
684.787 7.952 8.102 8.302 8.562 8.762 8.952 9.202 9.472 9.662 9.662
704.077 9.672 9.632 9.822 9.972 10.042 10.142 10.152 10.242 10.392 10.612
723.367 10.762 11.122 11.622 11.652 11.452 11.512 11.452 11.402 11.052 10.472
742.657 10.292 9.942 9.262 8.812 8.602 8.352 7.932 7.362 6.822 6.412
761.947 6.052 5.692 5.292 5.002 4.862 4.522 4.092 3.942 3.772 3.452
781.236 3.292 3.142 3.082 2.932 2.672 2.432 2.382 2.402 2.342 2.392
800.526 2.252 2.042 1.892 1.712 1.662 1.592 1.572 1.692 1.892 1.912
819.816 1.802 1.862 1.882 1.802 1.982 2.142 2.082 2.102 2.362 2.612
839.106 2.722 2.812 3.132 3.732 4.182 4.662 5.092 5.392 5.732 6.082
858.395 6.392 6.662 6.732 6.682 6.582 6.232 5.722 5.202 4.912 4.702
877.685 4.402 4.242 4.042 3.802 3.642 3.692 3.762 3.852 4.022 4.142
896.975 4.292 4.602 4.842 5.142 5.462 5.832 6.402 7.032 7.612 7.922
916.265 8.212 8.452 8.572 8.862 8.992 8.872 8.932 8.842 8.472 8.162
935.555 7.622 7.142 6.902 6.542 6.132 5.682 5.362 5.042 4.852 4.722
954.844 4.362 4.072 3.982 3.882 3.822 3.882 3.842 3.712 3.632 3.742
974.134 3.802 3.812 3.722 3.652 3.882 4.102 4.382 4.722 4.992 5.322
993.424 5.692 6.302 7.062 8.032 9.172 10.202 11.522 13.622 15.752 18.032
1012.714 21.202 24.452 27.722 31.082 34.622 38.252 41.142 43.012 44.302 44.542
1032.003 43.762 42.352 40.062 37.092 33.962 30.872 27.762 24.552 21.662 19.212
1051.293 17.342 15.872 14.252 12.872 12.072 11.282 10.462 9.812 9.372 9.162
1070.583 8.652 8.122 8.032 7.812 7.672 8.372 8.912 9.202 9.552 10.312
1089.873 11.072 11.912 12.932 13.712 14.052 13.562 13.092 13.022 13.232 13.172
1109.163 12.922 12.942 12.862 12.182 12.062 12.362 12.352 12.332 12.372 12.742
1128.452 13.202 13.372 13.702 14.122 14.682 15.352 15.912 16.982 18.202 19.452
1147.742 20.732 22.202 23.882 25.792 28.152 31.042 34.502 38.302 42.582 47.612
1167.032 53.362 59.892 67.122 75.022 83.742 93.462 103.752 113.742 123.702 133.332
1186.322 141.232 146.182 148.632 148.292 143.762 136.242 126.612 115.042 103.042 91.612
1205.611 81.522 73.492 67.072 61.572 57.312 54.202 51.512 49.232 47.602 46.422
1224.901 45.662 45.392 45.322 45.292 45.632 46.332 47.382 48.952 50.522 51.742
1244.191 52.982 54.402 56.132 57.672 58.772 59.822 60.782 61.332 61.622 61.832
1263.481 61.512 61.002 60.082 58.512 56.542 54.242 51.752 49.112 46.322 43.202
1282.771 40.102 37.282 34.702 32.622 30.872 29.302 27.942 27.032 26.482 26.082
1302.060 25.762 25.502 25.352 25.432 25.622 25.862 26.172 26.712 27.432 28.192
1321.350 29.022 29.582 29.602 29.092 28.312 27.452 26.492 25.392 23.932 22.142
1340.640 20.282 18.682 17.422 16.482 15.832 15.192 14.592 14.192 13.952 13.722
1359.930 13.642 13.952 14.552 15.342 16.152 16.672 16.932 16.912 16.682 16.382
1379.219 15.692 14.422 12.872 11.362 10.092 9.242 8.702 8.332 8.002 7.782
1398.509 7.622 7.532 7.442 7.292 7.192 7.072 7.022 7.122 7.252 7.402
1417.799 7.672 8.092 8.712 9.562 10.622 11.872 13.322 14.662 15.642 16.282
1437.089 16.692 16.932 16.832 16.232 15.202 13.822 12.212 10.812 9.872 9.162
1456.378 8.662 8.392 8.282 8.262 8.262 8.282 8.282 8.222 8.042 7.862
1475.668 7.672 7.332 6.962 6.502 6.032 5.602 5.222 4.812 4.482 4.272
1494.958 3.982 3.662 3.482 3.332 3.152 2.952 2.842 2.762 2.662 2.602
1514.248 2.502 2.412 2.342 2.262 2.212 2.172 2.112 2.102 2.132 2.032
1533.538 1.952 2.002 2.012 1.882 1.842 1.922 1.952 1.932 1.922 1.922
1552.827 1.922 1.942 1.862 1.822 1.822 1.772 1.742 1.712 1.662 1.632
1572.117 1.652 1.612 1.592 1.632 1.592 1.592 1.652 1.672 1.622 1.512
1591.407 1.502 1.482 1.512 1.532 1.502 1.512 1.462 1.412 1.412 1.442
1610.697 1.542 1.572 1.502 1.432 1.452 1.502 1.432 1.472 1.512 1.422
1629.986 1.382 1.432 1.392 1.442 1.582 1.572 1.472 1.482 1.562 1.572
1649.276 1.572 1.592 1.602 1.612 1.612 1.672 1.762 1.752 1.842 1.912
1668.566 1.922 1.992 2.022 2.112 2.212 2.222 2.332 2.452 2.532 2.672
1687.856 2.872 3.082 3.252 3.362 3.452 3.682 3.982 4.332 4.622 4.852
1707.146 5.242 5.782 6.312 6.812 7.342 8.012 8.722 9.472 10.422 11.582
1726.435 12.762 14.022 15.462 17.042 19.032 21.442 24.222 27.562 31.652 36.942
1745.725 43.612 51.992 62.232 74.102 86.452 97.242 104.932 109.202 111.532 112.932
1765.015 112.942 110.632 104.072 93.692 82.752 74.162 67.772 62.702 58.522 54.702
1784.305 50.832 46.532 41.982 37.412 33.052 29.112 25.632 22.592 20.082 17.972
1803.594 16.222 14.732 13.342 12.132 11.112 10.152 9.262 8.522 7.872 7.282
1822.884 6.742 6.272 5.952 5.622 5.302 5.032 4.812 4.602 4.432 4.342
1842.174 4.162 4.032 4.002 3.922 3.862 3.792 3.762 3.752 3.742 3.752
1861.464 3.732 3.782 3.862 3.932 4.032 4.112 4.182 4.212 4.352 4.522
1880.754 4.562 4.692 4.822 4.872 5.002 5.122 5.222 5.412 5.552 5.632
1900.043 5.752 5.912 6.112 6.362 6.542 6.732 7.042 7.332 7.662 7.962
1919.333 8.292 8.712 9.092 9.512 9.942 10.372 10.902 11.522 12.042 12.602
1938.623 13.302 13.992 14.692 15.462 16.282 17.102 17.982 18.902 19.882 20.922
1957.913 22.022 23.262 24.572 25.932 27.362 28.922 30.652 32.432 34.352 36.442
1977.202 38.732 41.202 43.872 46.702 49.692 52.962 56.572 60.502 64.572 68.852
1996.492 73.532 78.492 83.802 89.522 95.612 102.012 108.772 115.902 123.482 131.612
2015.782 140.172 149.212 158.742 168.682 179.172 190.162 201.612 213.482 225.682 238.232
2035.072 250.902 263.492 275.652 287.162 297.482 305.922 311.962 315.152 315.512 313.302
2054.362 308.852 302.412 294.022 283.962 272.642 260.262 247.092 233.602 220.082 206.822
2073.651 194.072 182.052 170.732 160.302 150.752 141.872 133.832 126.472 119.662 113.312
2092.941 107.312 101.652 96.232 91.052 86.022 81.132 76.512 72.062 67.712 63.582
2112.231 59.662 55.932 52.472 49.202 46.222 43.552 41.122 38.902 36.802 34.992
2131.521 33.462 31.992 30.752 29.682 28.642 27.792 27.042 26.302 25.662 25.102
2150.810 24.652 24.222 23.832 23.572 23.322 23.202 23.122 22.992 23.002 22.952
2170.100 22.872 22.922 23.042 23.092 23.102 23.022 22.882 22.782 22.542 22.142
2189.390 21.732 21.152 20.432 19.682 18.932 18.262 17.502 16.722 16.032 15.392
2208.680 14.882 14.442 13.952 13.572 13.312 13.002 12.772 12.592 12.452 12.422
2227.970 12.392 12.332 12.302 12.262 12.212 12.162 12.152 12.172 12.112 12.092
2247.259 12.122 12.022 11.882 11.852 11.772 11.622 11.532 11.412 11.332 11.162
2266.549 10.882 10.692 10.542 10.412 10.222 9.982 9.742 9.472 9.152 8.882
2285.839 8.652 8.402 8.062 7.752 7.452 7.122 6.802 6.512 6.232 5.902
2305.129 5.642 5.402 5.142 4.922 4.702 4.482 4.352 4.132 3.882 3.682
2324.418 3.522 3.432 3.302 3.172 3.102 3.062 2.982 2.892 2.862 2.872
2343.708 2.842 2.752 2.662 2.602 2.582 2.572 2.572 2.502 2.442 2.462
2362.998 2.462 2.442 2.362 2.272 2.262 2.292 2.232 2.202 2.172 2.072
2382.288 2.052 2.112 2.102 2.002 1.952 1.942 1.962 1.902 1.842 1.842
2401.578 1.822 1.772 1.762 1.792 1.702 1.602 1.652 1.622 1.522 1.512
2420.867 1.522 1.502 1.452 1.432 1.372 1.2995 1.3368 1.372 1.3168 1.3352
2440.157 1.412 1.342 1.284 1.2954 1.3127 1.3142 1.2814 1.3196 1.3265 1.352
2459.447 1.362 1.382 1.442 1.3383 1.3369 1.412 1.432 1.402 1.372 1.382
2478.737 1.402 1.3322 1.402 1.522 1.552 1.572 1.562 1.502 1.452 1.532
2498.026 1.622 1.642 1.632 1.642 1.652 1.632 1.652 1.742 1.692 1.612
2517.316 1.702 1.722 1.742 1.772 1.732 1.712 1.812 1.852 1.842 1.782
2536.606 1.762 1.912 1.902 1.952 2.042 2.002 1.982 1.982 2.022 2.072
2555.896 2.122 2.232 2.272 2.212 2.202 2.252 2.262 2.372 2.472 2.432
2575.186 2.412 2.482 2.442 2.422 2.462 2.432 2.432 2.472 2.492 2.402
2594.475 2.312 2.252 2.182 2.102 2.142 2.162 2.022 1.892 1.902 1.862
2613.765 1.772 1.732 1.732 1.722 1.672 1.612 1.522 1.532 1.542 1.432
2633.055 1.382 1.362 1.2885 1.2963 1.382 1.382 1.362 1.372 1.3051 1.2479
2652.345 1.2595 1.2321 1.1359 1.0514 1.1177 1.1939 1.2636 1.3234 1.2856 1.3312
2671.634 1.362 1.2932 1.2931 1.352 1.392 1.472 1.532 1.532 1.512 1.522
2690.924 1.592 1.652 1.652 1.732 1.722 1.672 1.772 1.822 1.892 1.952
2710.214 1.962 2.032 2.142 2.192 2.292 2.482 2.582 2.632 2.732 2.902
2729.504 3.052 3.192 3.372 3.492 3.582 3.722 3.872 3.942 3.972 4.092
2748.794 4.222 4.312 4.392 4.402 4.342 4.352 4.382 4.412 4.362 4.312
2768.083 4.362 4.272 4.222 4.232 4.132 4.092 4.062 3.992 3.942 3.812
2787.373 3.742 3.692 3.592 3.422 3.352 3.392 3.392 3.312 3.212 3.112
2806.663 3.092 3.072 2.962 2.952 3.002 2.972 2.842 2.912 3.022 2.952
2825.953 2.982 3.152 3.262 3.262 3.282 3.242 3.232 3.332 3.462 3.542
2845.242 3.602 3.702 3.702 3.782 4.032 4.192 4.192 4.272 4.382 4.352
2864.532 4.342 4.402 4.372 4.372 4.562 4.772 4.882 4.912 5.002 5.252
2883.822 5.502 5.592 5.642 5.722 5.892 6.092 6.132 6.092 6.182 6.382
2903.112 6.662 6.892 7.112 7.512 7.902 8.292 8.692 9.162 9.532 9.952
2922.401 10.572 11.202 12.052 13.052 14.142 15.442 16.842 18.252 19.692 20.852
2941.691 21.632 22.162 22.222 21.912 21.372 20.552 19.612 18.612 17.612 16.862
2960.981 16.202 15.752 15.672 15.772 16.172 16.632 17.082 17.882 18.962 20.322
2980.271 21.912 23.522 24.712 25.282 25.612 25.582 25.062 24.352 23.382 21.962
2999.561 20.312 18.522 16.982 15.842 14.832 13.912 13.142 12.402 11.392 10.522
3018.850 9.692 8.742 7.872 7.142 6.452 5.852 5.292 4.782 4.452 4.142
3038.140 3.882 3.582 3.242 2.972 2.872 2.722 2.572 2.442 2.142 1.992
3057.430 2.022 1.992 1.902 1.772 1.712 1.632 1.442 1.422 1.422 1.442
3076.720 1.522 1.492 1.432 1.452 1.482 1.362 1.2108 1.2359 1.2012 1.2212
3096.009 1.2374 1.1757 1.1418 1.0325 1.071 1.2181 1.3415 1.2748 1.086 0.9773
3115.299 0.992 1.1202 1.2341 1.1368 1.0539 1.1189 0.975 1.0106 1.1423 1.088
3134.589 1.068 1.0564 1.0736 1.0536 0.967 0.9153 0.8235 0.7254 0.9375 0.9554
3153.879 0.7319 0.7761 0.8206 0.9169 0.9829 0.838 0.7916 0.8828 0.9146 0.8464
3173.169 0.7994 0.7076 0.6222 0.5826 0.5008 0.5995 0.6504 0.6283 0.6226 0.5741
3192.458 0.5711 0.5934 0.621 0.6666 0.6328 0.5995 0.5403 0.44082 0.5479 0.5748
3211.748 0.6018 0.626 0.5625 0.5116 0.5502 0.4786 0.36653 0.39601 0.4494 0.4597
3231.038 0.4886 0.4676 0.42023 0.5059 0.5169 0.36219 0.2816 0.349571 0.346865 0.37683
3250.328 0.351641 0.2829 0.237 0.194 0.3056 0.36872 0.2994 0.33954 0.39188 0.344361
3269.617 0.345006 0.38282 0.35251 0.35476 0.4844 0.478 0.35332 0.3061 0.3005 0.196
3288.907 0.159 0.19 0.2729 0.38501 0.2898 0.41574 0.486 0.3039 0.2516 0.2873
3308.197 0.321 0.2522 0.2795 0.3272 0.3212 0.33692 0.2819 0.2503 0.38782 0.36797
3327.487 0.2527 0.3625 0.40164 0.33975 0.2511 0.163 0.178 0.238 0.2905 0.4302
3346.777 0.40954 0.293 0.2986 0.2534 0.2773 0.3165 0.166 0.017 0.119 0.342681
3366.066 0.40048 0.37185 0.37271 0.2503 0.204 0.37625 0.40722 0.37461 0.42266 0.43073
3385.356 0.44106 0.507 0.5283 0.41723 0.36998 0.38818 0.2723 0.202 0.203 0.241
3404.646 0.34752 0.343726 0.36963 0.42179 0.41004 0.43016 0.44123 0.4515 0.5648 0.5639
3423.936 0.44165 0.344236 0.258 0.42151 0.5298 0.42487 0.4673 0.543 0.5268 0.38796
3443.225 0.39244 0.6872 0.637 0.4688 0.4985 0.523 0.6226 0.699 0.6433 0.6622
3462.515 0.6407 0.5543 0.5996 0.5188 0.45 0.6263 0.6751 0.6071 0.7135 0.7589
3481.805 0.7362 0.8323 0.7977 0.8457 1.0282 1.0535 1.1585 1.277 1.3221 1.3271
3501.095 1.402 1.602 1.762 1.792 1.652 1.452 1.452 1.392 1.3272 1.3046
3520.385 1.1112 0.9394 0.7877 0.9281 1.1913 1.1858 1.0901 1.0168 1.0068 1.035
3539.674 0.9955 0.9159 0.7915 0.7535 0.7844 0.7276 0.7847 0.7011 0.5333 0.4533
3558.964 0.4991 0.6342 0.6122 0.6022 0.4734 0.36545 0.38381 0.2963 0.2575 0.4257
3578.254 0.5705 0.5259 0.42029 0.39685 0.40067 0.2707 0.277 0.2632 0.137 0.059
3597.544 0 0.167 0.39871 0.41136 0.40871 0.35498 0.2743 0.2437 0.214 0.2649
3616.833 0.255 0.287 0.38052 0.43687 0.39306 0.2803 0.2952 0.289 0.183 0.3028
3636.123 0.4487 0.40969 0.2514 0.156 0.2689 0.37265 0.38182 0.3271 0.41624 0.38135
3655.413 0.112 0.217 0.2623 0.101 0.143 0.165 0.237 0.33871 0.169 0.084
3674.703 0.186 0.194 0.3169 0.36964 0.2598 0.151 0.146 0.2543 0.3252 0.4449
3693.993 0.4474 0.2945 0.235 0.42372 0.41719 0.2694 0.3056 0.3232 0.38939 0.41141
3713.282 0.2884 0.278 0.4457 0.5607 0.4519 0.33919 0.2884 0.37527 0.4987 0.3771
3732.572 0.226 0.2838 0.3192 0.221 0.2982 0.3107 0.35604 0.4803 0.5274 0.4614
3751.862 0.29 0.2441 0.342645 0.3245 0.2823 0.228 0.183 0.236 0.214 0.193
3771.152 0.39921 0.5554 0.5103 0.5099 0.493 0.43379 0.40347 0.4867 0.5131 0.40425
3790.441 0.43446 0.4601 0.41766 0.482 0.43632 0.2726 0.3063 0.43748 0.39736 0.35968
3809.731 0.37522 0.42512 0.43272 0.43117 0.4587 0.44126 0.5615 0.678 0.5458 0.41508
3829.021 0.43908 0.4618 0.41421 0.39816 0.35484 0.3056 0.38871 0.5079 0.5634 0.4522
3848.311 0.37681 0.5256 0.4906 0.41782 0.5092 0.5047 0.5243 0.4798 0.41933 0.4782
3867.601 0.35553 0.3737 0.5491 0.6162 0.6668 0.7223 0.7553 0.7494 0.7466 0.6852
3886.890 0.7195 0.7836 0.5787 0.4717 0.6277 0.7352 0.5898 0.5059 0.5923 0.42439
3906.180 0.38678 0.6074 0.6369 0.5854 0.5037 0.5471 0.6269 0.6053 0.6674 0.7633
3925.470 0.7751 0.7404 0.8382 0.8893 0.7999 0.7308 0.7906 0.7133 0.6101 0.6917
3944.760 0.7597 0.7481 0.8179 0.8456 0.8627 0.9092 0.9301 0.9876 0.9814 0.9507
3964.049 0.7748 0.9447 1.0896 0.8055 0.7327 0.9137 0.9825 0.9406 0.9233 0.8888
3983.339 0.939 1.0532 1.3083 1.319 1.2215 1.2395 1.1262 1.2937 1.372 1.1967
##END=
