##TITLE=p-Dodecyloxybenzaldehyde
##JCAMP-DX=4.24
##DATA TYPE=INFRARED SPECTRUM
##ORIGIN=EPA-IR VAPOR PHASE LIBRARY
##OWNER=SRD/NIST
Collection (C) 2018 copyright by the U.S. Secretary of Commerce
on behalf of the United States of America. All rights reserved.
##CAS REGISTRY NO=24083-19-0
##MOLFORM=C 19 H 30 O 2
##$NIST SOURCE=MSDC-IR
##STATE=gas
##XUNITS=1/CM
##YUNITS=ABSORBANCE
##XFACTOR=1.
##YFACTOR=0.001
##DELTAX=1.92898
##FIRSTX=549.8
##LASTX=4000.7
##FIRSTY=2.55
##MAXX=4000.7
##MINX=549.759
##MAXY=0.30361
##MINY=0.00001873
##NPOINTS=1790
##XYDATA=(X++(Y..Y))
549.759 2.55 2.49 2.36 2.15 2.26 2.31 2.19 2 1.78 1.81
569.049 2.08 2.28 2.33 2.44 2.55 2.74 2.99 3.7 4.57 5.26
588.339 6.03 6.72 7.67 8.92 9.88 10.42 11.14 12.14 13.13 14.21
607.628 15.29 16.4 17.49 18.54 19.43 19.47 18.3 16.18 13.53 10.82
626.918 8.52 6.95 6.14 5.99 6.48 7.21 8.1 9.16 9.94 10.43
646.208 10.74 10.8 10.64 10.03 9.19 8.11 6.7 5.46 4.49 3.87
665.498 3.36 2.87 2.58 2.42 2.31 2.15 2.02 2.05 2.04 1.87
684.787 1.94 2.21 2.37 2.45 2.58 2.72 2.79 2.96 3.17 3.56
704.077 3.97 4.22 4.63 5.04 5.34 5.63 5.81 5.92 6.03 6.09
723.367 5.98 5.84 5.77 5.7 5.79 5.68 5.55 5.68 5.64 5.57
742.657 5.72 6.07 6.1 5.92 6.11 6.38 6.51 6.66 6.86 6.79
761.947 6.68 6.78 6.91 6.85 6.69 6.66 6.78 6.98 6.92 6.78
781.236 7.08 7.4 7.52 7.81 8.07 8.51 9.31 10.14 10.96 12.13
800.526 13.4 14.67 16.26 17.72 18.98 20.21 21.57 23.49 26.16 29.22
819.816 32.54 36.38 40.11 43.16 45.04 45.58 45.05 43.9 42.24 40.34
839.106 38.97 38.24 37.95 38.18 39.05 39.63 39.08 37.29 34.4 30.64
858.395 26.7 23.07 19.84 17.14 15.02 13.17 11.63 10.35 9.27 8.49
877.685 7.76 7.11 6.64 6.36 6.15 5.8 5.59 5.62 5.6 5.55
896.975 5.42 5.29 5.36 5.47 5.62 5.75 5.8 5.83 5.87 5.93
916.265 6.02 6.17 6.24 6.31 6.43 6.56 6.63 6.59 6.51 6.46
935.555 6.38 6.35 6.36 6.47 6.57 6.56 6.68 6.98 7.3 7.55
954.844 7.81 8.26 8.82 9.13 9.42 9.91 10.36 10.76 11.1 11.52
974.134 12.01 12.4 12.77 13.06 13.48 14.02 14.37 15.01 15.76 16.59
993.424 17.57 18.39 19.32 20.42 21.66 22.97 24.37 25.54 26.63 28.08
1012.714 29.61 30.88 32.27 33.61 34.41 34.8 35.18 35.32 34.99 34.11
1032.003 32.94 31.97 30.96 29.95 28.89 27.82 26.92 26.12 25.3 24.23
1051.293 23.2 22.13 21.1 20.36 19.81 19.3 18.59 17.79 16.66 15.96
1070.583 15.34 14.31 13.64 12.88 12.1 11.75 11.07 10.46 10.08 9.83
1089.873 9.85 9.76 9.66 9.9 10.26 10.78 11.5 12 12.6 12.64
1109.163 12.11 11.55 11.08 10.77 10.36 9.9 9.81 9.82 9.68 9.95
1128.452 10.3 10.48 10.84 11.33 12.05 13.5 15.53 18.07 21.82 27.75
1147.742 36.53 49.81 70.54 100.32 137.67 173.48 192.84 186.46 156.94 117.1
1167.032 81.59 56.11 39.91 30.3 24.53 21.45 19.69 18.81 18.66 19.29
1186.322 20.64 22.41 24.86 27.94 32.47 38.3 44.87 52.28 60.2 67.52
1205.611 73.1 76.68 78.26 78.7 79.82 82.2 85.83 90.29 94.84 98.88
1224.901 101.59 104.24 107.62 112.25 118.49 126.18 135.3 145.19 155 164.55
1244.191 173.64 181.31 186.98 190.55 190.84 186.31 176.65 162.39 144.84 126.04
1263.481 107.79 91.49 78.04 67.58 59.34 52.88 48.21 44.9 42.82 41.69
1282.771 41.38 42.08 43.98 46.87 50.56 55.15 60.51 66.2 71.55 75.39
1302.060 76.75 75.17 70.88 65.03 58.55 52.04 46.11 40.98 36.57 32.81
1321.350 29.64 27 24.8 22.96 21.35 20.08 19.1 18.3 17.82 17.52
1340.640 17.27 17.18 17.23 17.33 17.4 17.3 17.09 16.7 16.08 15.49
1359.930 15.01 14.61 14.36 14.26 14.3 14.46 14.8 15.44 16.56 18.24
1379.219 20.58 23.48 26.58 29.2 30.72 30.69 29.05 26.38 23.32 20.34
1398.509 17.89 15.91 14.38 13.33 12.7 12.4 12.37 12.53 12.94 13.65
1417.799 14.6 15.84 17.12 18.12 18.5 18.15 17.25 16.14 15.32 15.05
1437.089 15.29 15.77 16.48 17.44 18.59 19.92 21.42 23.01 24.64 26.28
1456.378 28 29.59 30.91 32.1 33.43 35.1 37.13 39.22 40.28 39.61
1475.668 37.09 33.12 28.78 24.88 21.92 20.11 19.56 20.17 21.98 25.12
1494.958 30.01 37.14 46.63 58.37 71.26 82.71 89.47 88.31 79.08 64.55
1514.248 49.58 37.32 28.45 22.46 18.2 15.44 13.56 12.14 11.16 10.53
1533.538 10.08 9.71 9.51 9.47 9.48 9.5 9.62 9.84 10.05 10.38
1552.827 10.98 11.84 12.91 14.35 16.3 18.68 21.85 25.95 31.08 37.56
1572.117 45.37 54.2 63.74 72.25 78.08 81.17 82.53 84.77 90.51 101.1
1591.407 116.37 135.19 155.89 175.83 191.52 199.24 196.17 181.95 159.41 133.06
1610.697 107.73 86.02 68.72 54.83 43.96 35.87 29.68 24.91 21.25 18.47
1629.986 16.2 14.39 13.06 12.07 11.22 10.61 10.12 9.72 9.39 9.07
1649.276 8.9 8.83 8.82 8.8 8.84 9 9.32 9.76 10.3 10.96
1668.566 11.8 12.74 13.75 14.82 15.87 16.81 17.73 18.75 19.95 21.36
1687.856 23.19 25.55 28.5 32.13 36.86 42.68 49.74 59.11 70.55 85.97
1707.146 105.95 131.62 163.66 200.16 235.33 257.86 256.7 229.9 184.17 135.83
1726.435 96.98 69.58 50.99 38.69 30 23.82 19.51 16.16 13.58 11.55
1745.725 10 8.8 7.89 7.16 6.51 6.05 5.75 5.49 5.3 5.07
1765.015 4.87 4.76 4.6 4.4 4.22 3.98 3.77 3.57 3.37 3.26
1784.305 3.17 3.05 3.03 2.99 2.96 2.96 2.92 2.85 2.81 2.75
1803.594 2.64 2.52 2.45 2.39 2.35 2.26 2.13 2.1 2.09 2.06
1822.884 2.04 2.02 2.03 2.04 2.01 1.99 1.99 1.98 1.99 2
1842.174 1.97 1.95 1.99 2.01 2.02 2.08 2.12 2.12 2.17 2.18
1861.464 2.11 2.05 2.08 2.1 2.04 2.06 2.11 2.11 2.23 2.32
1880.754 2.35 2.45 2.64 2.82 3 3.2 3.35 3.44 3.44 3.43
1900.043 3.34 3.1 2.91 2.74 2.56 2.44 2.33 2.25 2.25 2.24
1919.333 2.21 2.22 2.21 2.17 2.14 2.16 2.15 2.13 2.12 2.06
1938.623 2.03 1.98 1.99 1.99 1.96 1.96 1.98 2 2.08 2.19
1957.913 2.26 2.31 2.36 2.41 2.43 2.45 2.48 2.54 2.57 2.62
1977.202 2.67 2.71 2.76 2.77 2.79 2.84 2.84 2.9 3 3.06
1996.492 3.17 3.35 3.43 3.51 3.7 3.86 4.01 4.11 4.14 4.13
2015.782 4.06 3.93 3.75 3.59 3.41 3.3 3.23 3.09 3.06 3.01
2035.072 2.91 2.88 2.9 2.86 2.8 2.8 2.83 2.79 2.75 2.7
2054.362 2.62 2.57 2.56 2.54 2.45 2.34 2.28 2.29 2.29 2.23
2073.651 2.24 2.22 2.12 2.05 2.05 2.05 2.02 1.99 1.95 1.95
2092.941 1.98 1.94 1.89 1.84 1.78 1.76 1.73 1.68 1.63 1.57
2112.231 1.53 1.5 1.43 1.38 1.35 1.33 1.27 1.24 1.23 1.21
2131.521 1.21 1.17 1.16 1.18 1.22 1.2 1.21 1.21 1.18 1.19
2150.810 1.14 1.09 1.14 1.15 1.1 1.02 1.02 1.05 1.04 1.02
2170.100 0.9923 0.9749 0.9874 0.9893 0.9489 0.9094 0.8689 0.9031 0.9696 0.9775
2189.390 0.9917 0.9763 0.9628 0.9604 0.9362 0.9574 0.9877 0.9592 0.9523 1
2208.680 0.9924 0.9432 0.986 0.9878 0.9628 1.05 1.06 1 1.04 1.09
2227.970 1.1 1.08 1.02 1.02 1.02 1.06 1.13 1.12 1.14 1.16
2247.259 1.18 1.23 1.22 1.25 1.29 1.33 1.41 1.47 1.44 1.42
2266.549 1.49 1.54 1.5 1.47 1.49 1.45 1.36 1.36 1.41 1.41
2285.839 1.35 1.32 1.34 1.35 1.35 1.3 1.28 1.26 1.28 1.32
2305.129 1.37 1.44 1.44 1.46 1.52 1.52 1.49 1.51 1.51 1.5
2324.418 1.5 1.39 1.27 1.26 1.16 1.08 1.16 1.15 1.11 1.13
2343.708 1.15 1.18 1.19 1.14 1.11 1.12 1.17 1.2 1.25 1.31
2362.998 1.35 1.35 1.33 1.32 1.31 1.3 1.35 1.38 1.36 1.38
2382.288 1.43 1.48 1.53 1.57 1.59 1.6 1.64 1.71 1.79 1.86
2401.578 1.95 2.04 2.1 2.17 2.21 2.18 2.22 2.29 2.25 2.13
2420.867 2.14 2.14 2.06 2.01 1.98 1.97 2.05 2.04 2.04 2.17
2440.157 2.26 2.3 2.27 2.29 2.42 2.48 2.46 2.51 2.5 2.45
2459.447 2.44 2.42 2.44 2.4 2.34 2.32 2.32 2.35 2.24 2.19
2478.737 2.24 2.27 2.32 2.34 2.39 2.47 2.51 2.49 2.45 2.52
2498.026 2.57 2.61 2.68 2.72 2.76 2.81 2.93 3.02 2.98 2.91
2517.316 2.93 2.88 2.87 2.91 2.9 2.88 2.9 2.98 3.1 3.21
2536.606 3.29 3.49 3.67 3.7 3.74 3.91 4.01 3.99 4.09 4.16
2555.896 4.14 4.16 4.18 4.17 4.07 3.99 4.04 4.07 4.02 3.96
2575.186 4.02 4.06 4.01 4.03 4.04 4.03 4.06 4.04 4 4.05
2594.475 4.07 3.99 3.94 3.94 3.89 3.83 3.87 3.89 3.91 3.89
2613.765 3.81 3.79 3.71 3.67 3.68 3.66 3.67 3.64 3.62 3.61
2633.055 3.65 3.73 3.79 3.86 3.83 3.86 4.01 4.08 4.13 4.19
2652.345 4.26 4.38 4.49 4.53 4.72 5.03 5.26 5.58 5.99 6.35
2671.634 6.75 7.22 7.88 8.5 8.94 9.55 10.3 10.87 11.35 11.89
2690.924 12.31 12.75 13.29 13.96 14.87 16.04 17.49 19.03 20.65 22.47
2710.214 24.61 27 29.45 32.06 34.54 36.67 38.39 39.36 39.53 38.76
2729.504 37.05 34.52 31.55 28.61 25.74 23.25 21.09 19.16 17.65 16.37
2748.794 15.29 14.46 13.83 13.4 13.08 12.78 12.6 12.57 12.65 12.77
2768.083 13.06 13.45 13.82 14.43 15.3 16.26 17.35 18.67 20.13 21.63
2787.373 23.24 24.74 25.94 26.94 27.72 28.22 28.45 28.54 28.75 29.03
2806.663 29.37 30.03 30.95 31.89 32.85 33.63 33.9 33.63 32.85 31.71
2825.953 30.58 29.48 28.6 28.24 28.3 28.76 29.64 31 33.06 35.9
2845.242 39.7 44.55 50.73 58.5 67.73 78.39 89.85 100.7 109.27 114.26
2864.532 115.37 112.93 108.04 102.04 95.89 90.19 85.45 81.82 79 76.58
2883.822 74.39 72.35 70.53 69.2 68.71 69.06 70.34 72.7 75.98 80.29
2903.112 85.64 91.88 99.14 107.48 116.85 127.37 139.35 152.88 168.5 186.83
2922.401 207.82 230.75 254.29 276.02 292.79 302.34 303.61 297.25 284.79 268.22
2941.691 249.43 229.59 209.79 190.7 173.06 157.59 144.36 133.32 124.46 117.93
2960.981 113.29 109.69 106.42 102.76 97.87 91.13 82.83 73.62 64.45 56.17
2980.271 48.99 43.1 38.17 34.09 30.77 27.87 25.31 23.28 21.69 20.25
2999.561 18.95 17.86 16.94 16.11 15.33 14.74 14.24 13.62 13.13 12.84
3018.850 12.58 12.42 12.4 12.41 12.51 12.82 13.19 13.51 13.81 13.77
3038.140 13.27 12.59 11.77 10.83 9.94 9.17 8.59 8.19 7.8 7.52
3057.430 7.48 7.47 7.52 7.7 7.92 8.32 8.83 9.23 9.59 9.97
3076.720 10.05 9.71 9.09 8.49 8.07 7.65 7.38 7.37 7.45 7.49
3096.009 7.51 7.5 7.36 7.05 6.74 6.41 6 5.58 5.26 4.92
3115.299 4.62 4.46 4.28 3.97 3.54 3.33 3.24 3 2.79 2.59
3134.589 2.46 2.37 2.31 2.41 2.42 2.37 2.32 2.28 2.25 2.21
3153.879 2.14 2.16 2.14 2.1 2.09 1.97 1.78 1.69 1.71 1.79
3173.169 1.83 1.65 1.6 1.68 1.7 1.79 1.76 1.66 1.69 1.74
3192.458 1.65 1.57 1.71 1.64 1.44 1.5 1.52 1.49 1.52 1.43
3211.748 1.34 1.28 1.16 1.05 1.08 0.9842 0.8647 0.8541 0.8224 0.8316
3231.038 0.8381 0.6949 0.6282 0.6088 0.5644 0.5915 0.5528 0.6278 0.7303 0.6946
3250.328 0.6177 0.5563 0.5767 0.5915 0.59 0.5557 0.5221 0.5459 0.5407 0.5677
3269.617 0.5597 0.4819 0.4999 0.5102 0.4278 0.485 0.5881 0.5691 0.5718 0.5749
3288.907 0.5116 0.4927 0.547 0.5176 0.4403 0.4576 0.5203 0.5083 0.4424 0.4217
3308.197 0.5034 0.5491 0.5331 0.552 0.5296 0.4657 0.4269 0.411 0.4602 0.5689
3327.487 0.592 0.4861 0.4883 0.5268 0.4477 0.517 0.5097 0.4806 0.5048 0.5847
3346.777 0.6122 0.6108 0.7334 0.6907 0.6323 0.6547 0.6099 0.6211 0.6934 0.7037
3366.066 0.7382 0.7706 0.7888 0.8342 0.8863 1.03 1.09 1.06 1.03 1.13
3385.356 1.21 1.19 1.36 1.51 1.54 1.66 1.88 2.15 2.48 2.77
3404.646 2.91 2.97 3.15 3.39 3.43 3.27 3.08 2.93 2.75 2.49
3423.936 2.2 2.06 2.02 1.76 1.47 1.38 1.3 1.05 0.9042 0.9596
3443.225 0.9173 0.808 0.6951 0.5354 0.5242 0.6087 0.5003 0.5114 0.6129 0.4848
3462.515 0.4247 0.4716 0.3769 0.27 0.2702 0.3336 0.3846 0.4426 0.4564 0.3378
3481.805 0.2817 0.2623 0.2776 0.2814 0.2163 0.16 0.2544 0.3755 0.3633 0.2565
3501.095 0.2621 0.2509 0.1241 0.1991 0.2224 0.1904 0.2123 0.3116 0.3336 0.1938
3520.385 0.207 0.1725 0.07379 0.1706 0.2156 0.1806 0.09824 0.01873 0.03859 0.1173
3539.674 0.1673 0.1068 0.1094 0.1642 0.1998 0.1838 0.2098 0.2931 0.3138 0.3066
3558.964 0.3092 0.3695 0.4262 0.2619 0.2033 0.273 0.1539 0.1365 0.2853 0.351
3578.254 0.2393 0.2608 0.3798 0.3049 0.3158 0.3832 0.196 0.2327 0.4559 0.4206
3597.544 0.3256 0.4608 0.5607 0.4786 0.4313 0.3866 0.367 0.5603 0.6264 0.5536
3616.833 0.59 0.4555 0.4183 0.5337 0.6023 0.5507 0.5716 0.7 0.6802 0.6785
3636.123 0.6668 0.5783 0.4838 0.5053 0.6528 0.6943 0.6815 0.6771 0.6728 0.6417
3655.413 0.7195 0.8235 0.799 0.7743 0.7653 0.7563 0.6423 0.59 0.7109 0.7847
3674.703 0.7839 0.6977 0.6546 0.6413 0.5656 0.589 0.6483 0.6328 0.5631 0.4645
3693.993 0.4558 0.5401 0.6092 0.5869 0.5051 0.5406 0.6142 0.6659 0.6835 0.806
3713.282 0.7266 0.5546 0.5884 0.5598 0.5605 0.5945 0.5302 0.5554 0.5929 0.6231
3732.572 0.7297 0.6136 0.5654 0.5815 0.4427 0.4574 0.6374 0.594 0.5035 0.7153
3751.862 0.7315 0.6631 0.6636 0.5958 0.6077 0.5384 0.5918 0.6808 0.689 0.6263
3771.152 0.5402 0.5981 0.5757 0.4557 0.5471 0.6646 0.6327 0.5937 0.6002 0.5283
3790.441 0.5834 0.6803 0.4632 0.4204 0.5201 0.5314 0.4898 0.4839 0.5632 0.6522
3809.731 0.659 0.6618 0.7564 0.7522 0.7758 0.8389 0.8042 0.7681 0.7216 0.709
3829.021 0.6058 0.4908 0.5208 0.6413 0.6834 0.7312 0.7138 0.5919 0.6148 0.6114
3848.311 0.5827 0.6321 0.8033 0.6614 0.3881 0.4373 0.4756 0.5104 0.6812 0.6874
3867.601 0.5555 0.491 0.4488 0.517 0.6511 0.6496 0.6715 0.7706 0.7721 0.671
3886.890 0.5655 0.503 0.6059 0.7218 0.7577 0.9181 0.8794 0.6846 0.6621 0.6946
3906.180 0.6442 0.6939 0.73 0.624 0.5049 0.5737 0.7117 0.7983 0.8585 0.8054
3925.470 0.7855 0.7762 0.8052 0.934 0.9251 0.8255 0.7987 0.7587 0.7527 0.7157
3944.760 0.6791 0.6999 0.7065 0.6774 0.7269 0.8112 0.8153 0.8182 0.8052 0.8048
3964.049 0.7475 0.6843 0.721 0.7063 0.6752 0.5981 0.6742 0.7783 0.8443 1.02
3983.339 1.05 0.9617 0.9353 0.8571 0.9404 0.9945 0.8558 0.8349 0.8015 0.8652
##END=
