##TITLE=2,2,6-Trimethylcyclohexanone
##JCAMP-DX=4.24
##DATA TYPE=INFRARED SPECTRUM
##ORIGIN=NIST Mass Spectrometry Data Center
##OWNER=NIST Standard Reference Data Program
Collection (C) 2018 copyright by the U.S. Secretary of Commerce
on behalf of the United States of America. All rights reserved.
##CAS REGISTRY NO=2408-37-9
##MOLFORM=C 9 H 16 O
##$NIST SOURCE=MSDC-IR
##SPECTROMETER/DATA SYSTEM=HP-GC/MS/IRD
##STATE=gas
##XUNITS=1/CM
##YUNITS=ABSORBANCE
##XFACTOR=1.0
##YFACTOR=0.000003900
##DELTAX=4.0
##FIRSTX=550.0
##LASTX=3846.0
##FIRSTY=0.000878
##MAXX=3846
##MINX=550
##MAXY=0.039
##MINY=0
##NPOINTS=825
##XYDATA=(X++(Y..Y))
550.0 225 143 63 50 59 50 14 3 17 17
590.0 11 9 8 23 23 19 23 29 45 53
630.0 35 33 37 22 12 11 16 33 38 33
670.0 37 46 18 0 31 45 39 41 42 37
710.0 37 52 68 73 76 80 102 107 90 83
750.0 73 68 56 45 48 46 54 67 75 78
790.0 78 76 90 108 105 86 91 112 118 123
830.0 134 151 187 249 344 430 490 516 495 438
870.0 337 241 188 161 141 128 117 105 92 92
910.0 105 113 123 140 174 209 247 296 355 433
950.0 520 593 654 688 716 761 836 974 1138 1271
990.0 1335 1308 1222 1107 1005 955 928 913 848 753
1030.0 632 510 433 402 394 392 383 360 329 286
1070.0 241 218 211 225 260 310 380 467 566 693
1110.0 852 1003 1107 1136 1062 915 733 545 387 283
1150.0 226 196 191 193 191 191 188 188 182 177
1190.0 171 175 199 215 225 231 224 213 204 198
1230.0 196 206 218 229 231 227 218 195 179 183
1270.0 192 194 209 232 250 265 277 299 329 357
1310.0 368 361 348 341 334 329 348 385 434 485
1350.0 549 621 703 809 978 1135 1201 1316 1414 1380
1390.0 1248 1025 772 528 361 287 258 257 276 315
1430.0 387 506 690 941 1218 1500 1786 2003 2042 1939
1470.0 1769 1525 1226 938 681 464 324 243 187 157
1510.0 137 121 116 113 104 96 91 86 80 74
1550.0 73 74 78 75 75 79 83 78 72 76
1590.0 78 78 82 80 81 90 99 105 107 112
1630.0 123 134 147 166 189 209 230 252 274 300
1670.0 346 400 458 547 676 870 1211 1797 2706 3934
1710.0 5298 6428 7068 7054 6266 4875 3278 1928 1091 673
1750.0 474 369 310 275 246 226 210 191 180 167
1790.0 148 129 110 94 82 72 67 63 59 61
1830.0 62 59 58 56 57 57 52 48 44 40
1870.0 38 31 28 31 31 27 28 30 26 25
1910.0 26 27 25 25 23 26 27 22 23 22
1950.0 20 20 18 18 20 21 19 17 17 19
1990.0 17 17 16 13 14 16 19 16 16 15
2030.0 12 11 15 16 13 11 10 9 7 6
2070.0 6 6 8 6 5 8 10 13 15 12
2110.0 15 23 21 18 16 15 10 10 12 10
2150.0 11 12 13 12 11 11 13 15 13 11
2190.0 11 9 12 13 13 14 14 13 13 14
2230.0 13 12 9 6 9 7 5 8 8 12
2270.0 19 21 20 22 24 22 25 27 27 27
2310.0 23 21 21 25 28 27 22 22 24 25
2350.0 23 23 24 25 26 23 21 21 23 29
2390.0 32 29 31 32 31 30 30 31 31 28
2430.0 26 23 23 25 27 30 30 28 28 24
2470.0 20 25 29 31 32 31 32 33 33 34
2510.0 29 27 32 31 29 33 38 37 37 44
2550.0 45 40 42 41 40 48 49 45 47 50
2590.0 49 43 44 50 56 57 63 65 63 67
2630.0 71 75 80 86 94 99 104 102 105 113
2670.0 112 109 108 103 92 90 85 81 79 77
2710.0 81 85 96 109 117 123 133 137 135 139
2750.0 143 142 142 146 153 165 177 178 180 190
2790.0 200 218 231 249 275 296 320 347 372 399
2830.0 443 508 605 762 1020 1380 1801 2261 2717 3080
2870.0 3384 3610 3680 3650 3489 3234 3023 2924 3002 3296
2910.0 3760 4380 5197 6207 7306 8304 9464 10000 9189 8212
2950.0 7125 5843 4980 4676 4763 5198 5583 5499 5242 4684
2990.0 3736 2782 1967 1312 857 583 437 351 308 290
3030.0 268 248 235 231 227 214 208 210 204 193
3070.0 187 185 186 177 172 175 175 170 164 155
3110.0 148 143 133 126 121 122 123 127 131 124
3150.0 128 131 129 133 133 130 126 120 111 111
3190.0 105 98 90 86 87 91 94 85 75 67
3230.0 60 59 58 57 53 49 49 52 58 59
3270.0 55 56 55 49 58 58 52 56 49 38
3310.0 39 47 47 48 45 42 38 35 41 43
3350.0 41 38 38 40 44 42 42 46 51 56
3390.0 60 69 83 97 113 126 133 134 141 143
3430.0 135 111 85 73 58 48 47 40 36 35
3470.0 32 29 25 24 29 31 30 29 28 30
3510.0 28 25 21 15 23 26 18 14 10 13
3550.0 16 31 31 26 21 13 7 6 12 12
3590.0 11 8 5 14 26 16 10 11 5 7
3630.0 18 20 12 16 18 14 14 10 10 12
3670.0 19 20 16 12 19 20 8 11 19 22
3710.0 25 27 23 27 37 38 34 36 39 29
3750.0 36 37 29 29 22 19 21 23 22 21
3790.0 24 34 43 49 56 52 52 50 45 39
3830.0 34 31 29 34 33
##END=
