##TITLE=6-Methyl-5-octen-2-one
##JCAMP-DX=4.24
##DATA TYPE=INFRARED SPECTRUM
##ORIGIN=EPA-IR VAPOR PHASE LIBRARY
##OWNER=SRD/NIST
Collection (C) 2018 copyright by the U.S. Secretary of Commerce
on behalf of the United States of America. All rights reserved.
##CAS REGISTRY NO=24199-46-0
##MOLFORM=C 9 H 16 O
##$NIST SOURCE=MSDC-IR
##STATE=gas
##XUNITS=1/CM
##YUNITS=ABSORBANCE
##XFACTOR=1.
##YFACTOR=0.001
##DELTAX=1.92898
##FIRSTX=549.8
##LASTX=4000.7
##FIRSTY=3.65
##MAXX=4000.7
##MINX=549.759
##MAXY=0.03738
##MINY=0
##NPOINTS=1790
##XYDATA=(X++(Y..Y))
549.759 3.65 3.35 3.32 3.2 2.83 2.91 2.83 2.26 1.59 1.63
569.049 1.71 1.51 1.1866 0.7771 0.9788 1.2634 1.2388 1.2469 1.3013 1.42
588.339 1.4032 1.1431 0.7653 0.8866 1.286 1.3918 1.44 1.31 1.1763 1.3282
607.628 1.59 1.61 1.2789 0.926 0.9404 0.8874 0.6012 0.5433 0.49232 0.51424
626.918 0.7147 0.7423 0.4347 0.47472 0.855 0.688 0.3952 0.49543 0.5387 0.44293
646.208 0.48443 0.5402 0.3273 0.268 0.319 0.41433 0.5842 0.5902 0.5496 0.6474
665.498 0.5848 0.3397 0.194 0.082 0 0.218 0.49648 0.5244 0.3441 0.284
684.787 0.3431 0.49631 0.6291 0.7182 0.8274 0.5959 0.5597 0.729 0.71 0.7346
704.077 0.9479 0.971 0.8957 0.9153 0.8573 1.0386 1.2915 1.4051 1.3708 1.3678
723.367 1.4087 1.42 1.2732 1.2358 1.1999 1.0932 1.1828 1.152 0.9531 0.8058
742.657 0.9225 0.9202 0.856 0.8276 0.9396 1.0049 0.7516 0.5391 0.6075 0.8457
761.947 0.7646 0.8509 1.0259 0.8117 0.7467 0.9668 0.9604 0.8508 0.9506 1.1496
781.236 1.2408 1.1856 1.1857 1.2052 1.1679 0.9045 0.9934 1.2429 1.4123 1.3128
800.526 1.1819 1.2054 1.2956 1.66 1.76 1.54 1.43 1.55 1.65 2.09
819.816 2.27 2.21 2.51 2.3 2.23 2.48 2.6 2.56 2.46 2.78
839.106 3.15 3.25 3.37 3.45 3.39 3.35 3.35 3.46 3.51 3.33
858.395 3.13 3.18 3.03 2.6 2.3 2.41 2.45 2.22 2.18 2.2
877.685 2.04 1.69 1.46 1.52 1.4004 1.3922 1.65 1.74 1.51 1.5
896.975 1.75 1.78 2.09 2.27 2.24 2.15 2.04 2.12 2.18 2.17
916.265 2.16 2.32 2.61 2.65 2.51 2.53 2.58 2.52 2.49 2.5
935.555 2.52 2.55 2.74 2.87 2.73 2.71 2.89 2.79 2.55 2.4
954.844 2.56 2.75 2.38 2.27 2.37 2.29 2.53 2.71 2.67 2.77
974.134 2.78 2.79 2.75 2.66 2.59 2.69 2.94 2.91 2.8 2.74
993.424 2.98 2.8 2.46 2.84 2.92 2.4 2.3 2.33 2.28 2.34
1012.714 2.32 2.28 2.37 2.62 2.42 2.16 2.06 1.96 1.78 1.72
1032.003 1.96 2.2 2.07 1.57 1.49 1.92 2.19 2.48 2.49 2.14
1051.293 2.21 2.39 2.24 2.1 2.12 2.65 3.07 2.63 2.27 2.83
1070.583 3.28 2.82 2.65 2.57 2.25 2.11 2.17 2.11 1.99 1.94
1089.873 2.3 2.58 2.32 2.31 3.01 3.15 2.71 2.52 2.52 2.66
1109.163 2.69 3.14 3.74 4.21 4.15 3.97 4.2 4.33 4.39 4.59
1128.452 4.6 4.72 5.26 5.95 6.53 6.98 7.63 8.31 9.21 10.48
1147.742 11.34 11.64 12.11 12.79 13.11 12.71 12.56 12.33 11.88 11.74
1167.032 10.67 9.72 9.55 9.48 9.56 9.46 9.12 8.47 7.91 7.79
1186.322 7.74 7.55 7.44 7.26 7.33 7.25 6.98 7.54 7.41 7.27
1205.611 7.66 7.47 6.85 6.57 6.88 6.89 6.82 6.98 6.93 6.81
1224.901 6.93 6.84 6.49 6.44 6.49 6.58 6.5 6.11 5.87 5.67
1244.191 5.68 5.45 5.28 5.27 5 4.75 4.48 4.34 4.42 4.49
1263.481 4.35 4.09 4.06 4.06 3.93 3.92 4 3.83 3.6 3.44
1282.771 3.3 3.08 2.93 2.93 3.02 3.03 2.95 2.94 2.99 3.08
1302.060 3.2 3.48 3.75 3.89 4.16 4.52 4.89 5.35 5.78 6.11
1321.350 6.51 6.85 7.19 7.47 7.7 8.04 8.43 8.78 9.05 9.41
1340.640 9.92 10.52 11.2 12.02 12.99 14.05 15.13 16.15 17.04 17.73
1359.930 18.02 17.99 17.74 17.15 16.23 15.19 14.16 13.16 12.26 11.45
1379.219 10.75 10.21 9.69 9.21 8.76 8.33 8 7.67 7.36 7.07
1398.509 6.76 6.55 6.45 6.44 6.46 6.51 6.64 6.74 6.84 6.99
1417.799 7.07 7.17 7.29 7.45 7.54 7.59 7.65 7.65 7.73 7.85
1437.089 7.94 7.97 7.96 7.99 8.04 8.04 8 7.99 7.96 7.93
1456.378 7.87 7.78 7.64 7.42 7.13 6.74 6.32 6 5.67 5.27
1475.668 4.89 4.53 4.19 3.86 3.64 3.43 3.21 3.09 2.98 2.83
1494.958 2.73 2.69 2.59 2.52 2.47 2.35 2.31 2.36 2.32 2.28
1514.248 2.22 2.11 2.11 2.19 2.22 2.17 2.12 2.25 2.31 2.22
1533.538 2.2 2.15 2.1 2.05 2.04 2.08 2.08 2.1 2.04 2
1552.827 1.92 1.89 1.87 1.82 1.86 1.88 1.85 1.8 1.73 1.73
1572.117 1.74 1.63 1.65 1.67 1.57 1.53 1.45 1.46 1.52 1.54
1591.407 1.5 1.43 1.44 1.42 1.4092 1.3921 1.3209 1.3568 1.4181 1.43
1610.697 1.3499 1.3047 1.3539 1.2833 1.3537 1.4197 1.3797 1.4191 1.49 1.55
1629.986 1.51 1.47 1.54 1.57 1.64 1.7 1.77 1.86 1.85 1.79
1649.276 1.89 2.02 2.14 2.29 2.43 2.55 2.6 2.76 2.96 3.02
1668.566 3.1 3.37 3.53 3.64 3.82 3.97 4.22 4.53 4.88 5.24
1687.856 5.69 6.22 6.77 7.4 8.12 8.85 9.64 10.68 11.78 13.03
1707.146 14.35 15.79 17.54 19.46 21.5 23.78 26.31 28.88 31.31 33.46
1726.435 35.32 36.69 37.35 37.38 36.6 35.19 33.12 30.33 27.46 24.69
1745.725 22.06 19.39 16.96 14.76 12.85 11.24 9.79 8.6 7.6 6.72
1765.015 5.98 5.36 4.78 4.26 3.77 3.4 3.16 2.89 2.61 2.41
1784.305 2.23 2.09 2 1.83 1.7 1.67 1.53 1.42 1.4076 1.3082
1803.594 1.2198 1.1513 1.0563 1.0751 1.1007 1.0068 0.9324 0.9765 0.9849 0.9754
1822.884 0.9384 0.8404 0.9435 0.9495 0.8039 0.7742 0.8128 0.8723 0.8701 0.8075
1842.174 0.8032 0.8087 0.8017 0.7625 0.7002 0.787 0.8568 0.8555 0.8231 0.7568
1861.464 0.8092 0.8704 0.8263 0.7909 0.7938 0.732 0.6667 0.7112 0.681 0.6303
1880.754 0.6837 0.7424 0.7744 0.7491 0.7227 0.7167 0.653 0.6539 0.6882 0.7225
1900.043 0.7399 0.6966 0.732 0.701 0.5922 0.5666 0.5832 0.5946 0.6595 0.642
1919.333 0.5715 0.6371 0.6641 0.5899 0.5649 0.5953 0.5653 0.46139 0.46087 0.5769
1938.623 0.5797 0.5252 0.6053 0.6182 0.549 0.5232 0.5251 0.51948 0.5209 0.654
1957.913 0.6955 0.5649 0.5308 0.5489 0.576 0.5851 0.51008 0.48941 0.51944 0.51348
1977.202 0.5267 0.5379 0.505 0.50244 0.5356 0.5483 0.5579 0.5459 0.5292 0.48263
1996.492 0.4059 0.44536 0.5359 0.43554 0.3567 0.45806 0.552 0.5749 0.5842 0.5702
2015.782 0.51142 0.50684 0.6066 0.6749 0.5926 0.5361 0.5768 0.6113 0.6441 0.611
2035.072 0.5433 0.5632 0.5513 0.51978 0.5278 0.5476 0.5906 0.599 0.5427 0.5608
2054.362 0.6555 0.6243 0.6072 0.6469 0.5855 0.5654 0.5326 0.46364 0.48301 0.47458
2073.651 0.429609 0.47279 0.51898 0.51401 0.5425 0.5431 0.51733 0.5765 0.6204 0.6063
2092.941 0.5759 0.6698 0.6982 0.6311 0.5525 0.5231 0.6123 0.5784 0.5946 0.6308
2112.231 0.5508 0.5302 0.5776 0.5934 0.6143 0.6055 0.6171 0.51715 0.45746 0.5833
2131.521 0.5956 0.6168 0.6141 0.5462 0.5486 0.5671 0.5893 0.6436 0.6259 0.5793
2150.810 0.5715 0.5631 0.5624 0.5378 0.48781 0.49729 0.5644 0.49534 0.48548 0.5271
2170.100 0.5733 0.6513 0.5785 0.552 0.5841 0.6135 0.6011 0.5334 0.48899 0.5302
2189.390 0.5287 0.50171 0.5631 0.5832 0.5772 0.5924 0.5766 0.5391 0.45548 0.422052
2208.680 0.5461 0.5395 0.47587 0.50363 0.49336 0.48202 0.5314 0.5877 0.5942 0.5306
2227.970 0.5337 0.5314 0.4949 0.49111 0.48766 0.5375 0.5782 0.553 0.50366 0.525
2247.259 0.5595 0.5442 0.49475 0.47637 0.47006 0.46175 0.49775 0.43982 0.426746 0.51873
2266.549 0.5252 0.5243 0.50674 0.46678 0.4338 0.48922 0.6124 0.6252 0.5309 0.5438
2285.839 0.6351 0.6049 0.5834 0.49221 0.46401 0.5765 0.50888 0.3942 0.3714 0.4451
2305.129 0.48633 0.46289 0.44641 0.4605 0.41015 0.43351 0.6228 0.5681 0.48454 0.561
2324.418 0.575 0.5877 0.5368 0.51047 0.47047 0.49549 0.5433 0.5204 0.48505 0.45463
2343.708 0.5521 0.5948 0.6295 0.5699 0.49678 0.5539 0.5708 0.5861 0.5878 0.49926
2362.998 0.44994 0.45894 0.424421 0.45314 0.6029 0.6447 0.5609 0.49065 0.4588 0.5471
2382.288 0.6027 0.552 0.5626 0.556 0.5557 0.6238 0.714 0.6618 0.6114 0.695
2401.578 0.6167 0.48112 0.47256 0.5387 0.6 0.6322 0.5293 0.44855 0.50489 0.51781
2420.867 0.47587 0.43223 0.43552 0.438 0.45928 0.5432 0.5462 0.5219 0.4766 0.44607
2440.157 0.5774 0.5936 0.50892 0.47723 0.49493 0.5332 0.5433 0.49333 0.3891 0.46598
2459.447 0.6039 0.612 0.5978 0.44261 0.3552 0.46505 0.5327 0.5736 0.51101 0.4005
2478.737 0.46737 0.5299 0.5257 0.51721 0.51407 0.5508 0.5801 0.6328 0.5851 0.51887
2498.026 0.5835 0.5508 0.51734 0.5848 0.5884 0.5612 0.5257 0.45383 0.41836 0.46587
2517.316 0.49071 0.5352 0.6049 0.6148 0.6492 0.6362 0.6155 0.6318 0.5516 0.48605
2536.606 0.50827 0.5241 0.45322 0.44628 0.5333 0.5961 0.6661 0.6646 0.5955 0.6103
2555.896 0.6339 0.6337 0.6688 0.6881 0.663 0.6396 0.6087 0.5339 0.49512 0.45108
2575.186 0.49081 0.6091 0.6087 0.5961 0.6562 0.6328 0.5721 0.5756 0.6496 0.6684
2594.475 0.642 0.6711 0.6613 0.6197 0.6482 0.7634 0.7701 0.7368 0.7039 0.5843
2613.765 0.5721 0.5662 0.5222 0.49489 0.5535 0.6865 0.7671 0.8053 0.768 0.7633
2633.055 0.7307 0.7537 0.8389 0.7985 0.7157 0.6347 0.5756 0.6154 0.6018 0.50821
2652.345 0.6282 0.7206 0.6442 0.7279 0.7877 0.6801 0.6446 0.6462 0.7478 0.8514
2671.634 0.7367 0.6736 0.6845 0.6829 0.7811 0.8233 0.7319 0.5928 0.5962 0.7599
2690.924 0.9102 0.741 0.6108 0.7356 0.7192 0.7126 0.7005 0.7703 0.8957 0.8998
2710.214 0.834 0.8637 0.8544 0.8518 0.9183 0.9362 1.0475 1.1283 1.1054 1.0099
2729.504 0.9949 1.102 1.0864 1.0587 1.0817 1.1347 1.3043 1.3618 1.2834 1.2461
2748.794 1.2828 1.2514 1.2958 1.3873 1.3772 1.3382 1.3196 1.3712 1.3252 1.2718
2768.083 1.45 1.6 1.52 1.49 1.42 1.43 1.46 1.46 1.64 1.79
2787.373 1.86 1.82 1.68 1.83 1.89 1.79 1.89 1.97 2.12 2.37
2806.663 2.43 2.39 2.41 2.56 2.7 2.77 2.96 3.12 3.26 3.39
2825.953 3.66 3.96 4.1 4.47 4.86 5.1 5.47 5.96 6.53 7.08
2845.242 7.6 8.19 8.82 9.43 9.99 10.69 11.43 11.89 12.23 12.71
2864.532 13.18 13.51 13.67 13.84 14.18 14.56 15 15.66 16.38 16.85
2883.822 17.42 18.02 18.53 19.23 19.81 20.38 20.92 21.23 21.52 21.95
2903.112 22.38 22.65 22.9 23.28 23.68 24.18 24.65 25.04 25.53 25.96
2922.401 26.23 26.56 26.79 26.87 26.89 26.92 27 26.95 26.92 26.75
2941.691 26.41 25.96 25.54 25.31 24.91 24.58 24.54 24.7 25.24 26.22
2960.981 27.67 29.68 31.97 33.87 35 35.48 35.53 34.83 33.4 31.22
2980.271 28.47 25.68 22.97 20.89 19.36 17.91 16.66 15.53 14.44 13.64
2999.561 13.08 12.52 11.98 11.6 11.1 10.62 10.22 9.71 9.2 8.77
3018.850 8.36 7.91 7.5 7.18 6.97 6.63 6.36 6.16 5.85 5.72
3038.140 5.57 5.34 5.08 4.87 4.71 4.43 4.44 4.33 4.12 4.04
3057.430 3.96 3.85 3.63 3.57 3.49 3.38 3.31 3.24 3.05 2.87
3076.720 2.89 2.75 2.51 2.51 2.38 2.29 2.37 2.26 2.01 1.94
3096.009 1.86 1.79 1.78 1.78 1.86 1.73 1.53 1.43 1.4024 1.3895
3115.299 1.44 1.45 1.3357 1.3135 1.1946 1.0043 0.9959 1.1322 1.226 1.1136
3134.589 1.0002 0.8849 0.9793 1.0974 0.8856 0.8736 0.9763 1.0031 1.0222 0.9092
3153.879 0.8355 0.885 0.8959 0.8923 0.8897 0.8086 0.8685 0.8967 0.8612 0.8466
3173.169 0.8434 0.739 0.6522 0.7005 0.8597 0.8433 0.5829 0.6257 0.5493 0.4072
3192.458 0.5461 0.6751 0.6618 0.6171 0.6742 0.7663 0.7572 0.51099 0.4048 0.48527
3211.748 0.6099 0.645 0.44753 0.48511 0.5674 0.427769 0.50906 0.49674 0.45144 0.5211
3231.038 0.5312 0.6695 0.6854 0.486 0.50738 0.6343 0.5524 0.5807 0.5716 0.5272
3250.328 0.5529 0.3427 0.3858 0.49209 0.3304 0.284 0.3526 0.5463 0.5888 0.5612
3269.617 0.5649 0.49228 0.4052 0.283 0.261 0.386 0.45543 0.44286 0.316 0.223
3288.907 0.3479 0.315 0.253 0.297 0.3814 0.44589 0.5318 0.5505 0.41792 0.51643
3308.197 0.6678 0.6126 0.4323 0.3626 0.284 0.3661 0.5242 0.5715 0.5938 0.49495
3327.487 0.48701 0.5527 0.44827 0.274 0.3721 0.5207 0.44707 0.46632 0.3805 0.282
3346.777 0.424683 0.6871 0.733 0.5651 0.5542 0.3705 0.4632 0.6269 0.44916 0.49235
3366.066 0.47996 0.296 0.316 0.51596 0.5938 0.577 0.5408 0.5301 0.51434 0.526
3385.356 0.5922 0.6173 0.5846 0.422307 0.3658 0.49718 0.6148 0.6147 0.6263 0.46874
3404.646 0.3767 0.6437 0.79 0.9 0.8953 0.7957 0.8031 0.855 0.9156 0.8254
3423.936 0.5723 0.47713 0.7117 0.9351 0.9554 0.9673 1.0857 1.0937 1.001 1.1063
3443.225 1.0689 1.0394 1.191 1.2162 1.1301 0.9955 1.093 1.0331 0.8245 0.935
3462.515 1.0276 0.8626 0.7585 0.6867 0.6347 0.6019 0.3904 0.316 0.5448 0.6468
3481.805 0.5561 0.5555 0.5471 0.5326 0.47378 0.5682 0.6697 0.42293 0.267 0.3433
3501.095 0.4098 0.49957 0.5335 0.3937 0.3654 0.3547 0.3982 0.428204 0.5343 0.5907
3520.385 0.429763 0.3789 0.3661 0.3526 0.3632 0.275 0.3267 0.48732 0.3386 0.277
3539.674 0.225 0.302 0.45667 0.4094 0.420639 0.5724 0.648 0.5524 0.49332 0.289
3558.964 0.142 0.189 0.3327 0.51993 0.5873 0.50037 0.3331 0.227 0.299 0.51655
3578.254 0.6444 0.5643 0.5213 0.5632 0.6648 0.6292 0.5228 0.389 0.41616 0.4018
3597.544 0.3724 0.615 0.6736 0.48486 0.5167 0.6582 0.48552 0.46464 0.3739 0.3431
3616.833 0.45664 0.5512 0.593 0.3676 0.3575 0.41463 0.301 0.291 0.3543 0.302
3636.123 0.304 0.50691 0.50334 0.423888 0.3812 0.3581 0.295 0.103 0.167 0.265
3655.413 0.288 0.377 0.3973 0.232 0.142 0.41343 0.5403 0.291 0.227 0.3507
3674.703 0.43998 0.422768 0.47713 0.5538 0.5264 0.3279 0.204 0.46762 0.50974 0.3947
3693.993 0.351 0.3605 0.3654 0.41003 0.3805 0.3433 0.43188 0.45391 0.45734 0.284
3713.282 0.192 0.4003 0.42385 0.4049 0.6157 0.6148 0.45581 0.422815 0.43544 0.612
3732.572 0.5911 0.4013 0.4415 0.46231 0.389 0.47786 0.7182 0.6899 0.6102 0.6524
3751.862 0.6904 0.6235 0.5902 0.47767 0.4382 0.48384 0.385 0.5028 0.7386 0.5757
3771.152 0.3617 0.3222 0.239 0.237 0.353 0.5234 0.6488 0.5845 0.6071 0.6178
3790.441 0.6147 0.6992 0.5282 0.279 0.3517 0.5446 0.6429 0.6644 0.45849 0.3744
3809.731 0.3496 0.285 0.294 0.278 0.306 0.261 0.192 0.284 0.45789 0.6596
3829.021 0.4863 0.312 0.4025 0.405 0.49438 0.6118 0.5856 0.5953 0.5204 0.3386
3848.311 0.331 0.421416 0.43137 0.41764 0.46332 0.5641 0.5578 0.5807 0.8007 0.5579
3867.601 0.226 0.245 0.205 0.288 0.46433 0.43737 0.318 0.3542 0.5617 0.7245
3886.890 0.6357 0.5698 0.46749 0.394 0.45156 0.44656 0.5343 0.51935 0.50211 0.4853
3906.180 0.48116 0.4754 0.3648 0.41061 0.5693 0.5809 0.6509 0.7406 0.5943 0.6002
3925.470 0.6775 0.6056 0.7187 0.6066 0.248 0.3615 0.5902 0.6104 0.49794 0.4756
3944.760 0.6542 0.5932 0.3225 0.4557 0.7048 0.6398 0.6963 0.567 0.291 0.45124
3964.049 0.6796 0.7598 0.6328 0.5252 0.5 0.51349 0.4983 0.3671 0.4035 0.45089
3983.339 0.5521 0.6636 0.6182 0.6208 0.7121 0.5476 0.368 0.3906 0.50197 0.6624
##END=
