##TITLE=3,4,5,6-Tetrahydrophthalic anhydride
##JCAMP-DX=4.24
##DATA TYPE=INFRARED SPECTRUM
##ORIGIN=EPA-IR VAPOR PHASE LIBRARY
##OWNER=SRD/NIST
Collection (C) 2018 copyright by the U.S. Secretary of Commerce
on behalf of the United States of America. All rights reserved.
##CAS REGISTRY NO=2426-02-0
##MOLFORM=C 8 H 8 O 3
##$NIST SOURCE=MSDC-IR
##STATE=gas
##XUNITS=1/CM
##YUNITS=ABSORBANCE
##XFACTOR=1.
##YFACTOR=0.001
##DELTAX=1.92898
##FIRSTX=549.8
##LASTX=4000.7
##FIRSTY=1.711
##MAXX=4000.7
##MINX=549.759
##MAXY=0.378961
##MINY=0
##NPOINTS=1790
##XYDATA=(X++(Y..Y))
549.759 1.711 2.111 2.311 2.181 2.311 2.461 2.221 2.061 2.051 1.741
569.049 1.401 1.1032 0.7934 0.5793 0.4289 0.4694 0.3628 0.25302 0.27144 0.1952
588.339 0.3392 0.3515 0.187872 0.25994 0.1625 0.065 0.142 0.1399 0.0852 0.011
607.628 0.047 0.1399 0.1574 0.031 0.026 0 0.009 0.1125 0.0851 0.071
626.918 0.0851 0.023 0.009 0.166 0.24982 0.26577 0.22165 0.19122 0.25363 0.3289
646.208 0.24461 0.19648 0.3049 0.3852 0.4206 0.3497 0.27455 0.23979 0.3452 0.3951
665.498 0.3947 0.4659 0.5221 0.6222 0.7221 0.9166 1.271 1.731 2.251 3.061
684.787 4.051 4.971 5.901 6.891 7.811 9.211 11.341 11.291 9.781 9.291
704.077 8.991 8.721 8.491 8.511 8.821 9.401 10.171 10.711 11.121 12.431
723.367 16.301 21.821 21.221 15.301 12.321 11.681 11.081 10.111 8.671 7.091
742.657 5.591 4.341 3.341 2.621 2.101 1.731 1.591 1.451 1.361 1.241
761.947 1.0672 1.1531 1.1692 1.0809 1.0251 1.0153 1.0653 1.1395 1.1536 1.1372
781.236 1.0899 1.1147 1.201 1.251 1.391 1.501 1.611 1.661 1.661 1.701
800.526 1.721 1.731 1.691 1.681 1.751 1.831 1.781 1.781 1.851 1.901
819.816 2.071 2.141 2.311 2.711 3.121 3.641 4.321 4.831 5.151 5.531
839.106 5.951 6.191 6.321 6.591 6.761 6.721 6.721 6.881 7.311 8.051
858.395 9.051 10.311 11.901 14.201 17.281 21.221 26.031 31.751 38.621 46.291
877.685 54.371 62.711 71.151 79.821 88.641 97.391 105.951 113.461 118.381 119.881
896.975 117.871 113.341 107.521 100.941 93.991 85.311 73.361 59.711 46.711 35.491
916.265 26.701 20.241 15.571 12.311 10.131 8.711 7.731 7.131 6.831 6.901
935.555 7.241 7.741 8.511 9.641 11.011 12.321 13.381 13.991 14.051 13.831
954.844 13.841 14.071 13.841 13.081 11.861 10.431 9.251 8.331 7.511 6.801
974.134 6.331 5.891 5.501 5.201 4.911 4.681 4.401 4.141 4.051 3.951
993.424 3.731 3.601 3.521 3.371 3.291 3.491 3.701 3.791 3.981 4.381
1012.714 5.031 5.941 6.991 8.031 9.191 10.391 11.251 11.801 12.141 12.151
1032.003 11.841 11.251 10.421 9.261 7.781 6.431 5.411 4.601 3.911 3.631
1051.293 3.711 3.911 4.411 5.181 6.181 7.351 8.821 10.501 12.381 14.471
1070.583 16.701 18.571 19.521 19.921 19.631 18.471 16.651 14.611 12.761 10.821
1089.873 8.711 6.981 5.701 4.881 4.271 3.731 3.531 3.501 3.431 3.191
1109.163 3.021 3.031 3.011 2.861 2.651 2.611 2.591 2.551 2.621 2.871
1128.452 3.041 3.091 3.301 3.241 3.091 3.191 3.251 3.331 3.541 3.521
1147.742 3.511 3.641 3.891 4.211 4.691 5.411 6.291 7.391 8.601 9.991
1167.032 11.231 12.171 12.911 13.361 13.611 13.701 13.581 12.891 11.861 10.831
1186.322 9.611 8.541 7.861 7.351 6.831 6.341 6.131 6.161 6.281 6.451
1205.611 6.751 7.091 7.391 7.971 8.571 9.051 9.571 10.011 10.401 10.761
1224.901 11.081 11.471 11.861 12.161 12.611 13.491 14.781 16.561 19.121 22.681
1244.191 27.251 32.931 39.951 48.431 58.181 68.541 78.421 86.541 92.111 95.071
1263.481 95.511 93.641 89.301 82.391 74.001 63.611 50.761 38.101 28.051 21.231
1282.771 17.021 14.341 12.511 11.181 10.211 9.541 8.951 8.431 8.111 7.961
1302.060 8.011 8.191 8.401 8.481 8.461 8.361 8.101 7.761 7.381 6.951
1321.350 6.481 6.001 5.561 5.241 5.051 4.991 5.051 5.271 5.651 6.101
1340.640 6.621 7.061 7.341 7.471 7.541 7.611 7.491 7.221 6.931 6.511
1359.930 5.971 5.381 4.871 4.451 4.101 3.821 3.571 3.351 3.111 2.881
1379.219 2.711 2.561 2.451 2.351 2.251 2.181 2.121 2.091 2.011 1.901
1398.509 1.911 1.951 1.971 1.991 2.071 2.161 2.261 2.431 2.621 2.871
1417.799 3.271 3.861 4.641 5.661 7.041 8.711 10.481 12.151 13.441 14.051
1437.089 14.221 14.551 15.101 15.351 14.921 14.001 12.861 11.781 11.181 11.361
1456.378 11.261 9.631 8.101 7.431 6.891 6.361 5.811 5.141 4.461 3.821
1475.668 3.361 3.121 3.001 2.961 3.001 2.971 2.881 2.801 2.721 2.681
1494.958 2.621 2.511 2.371 2.231 2.081 1.911 1.791 1.691 1.611 1.571
1514.248 1.511 1.481 1.421 1.331 1.261 1.271 1.271 1.231 1.201 1.191
1533.538 1.221 1.261 1.301 1.321 1.381 1.401 1.441 1.571 1.651 1.701
1552.827 1.761 1.731 1.681 1.621 1.621 1.611 1.551 1.511 1.461 1.421
1572.117 1.371 1.311 1.311 1.321 1.281 1.231 1.311 1.361 1.351 1.351
1591.407 1.371 1.311 1.261 1.271 1.201 1.0895 1.0068 0.9685 0.9492 0.9421
1610.697 0.903 0.8689 0.8711 0.8658 0.8634 0.8333 0.8613 0.9139 0.9074 0.9076
1629.986 0.9437 1.0091 1.0565 1.0803 1.1142 1.1545 1.241 1.311 1.371 1.491
1649.276 1.651 1.771 1.961 2.241 2.541 2.861 3.281 3.851 4.511 5.181
1668.566 5.921 6.751 7.491 8.081 8.571 8.961 9.211 9.141 8.751 8.251
1687.856 7.681 7.001 6.231 5.481 4.861 4.341 3.981 3.761 3.691 3.761
1707.146 3.981 4.281 4.691 5.171 5.741 6.391 7.091 7.701 8.281 8.851
1726.435 9.451 10.041 10.651 11.151 11.521 11.851 12.181 12.541 13.021 13.741
1745.725 14.751 16.011 17.651 19.751 22.301 25.291 28.971 33.351 38.791 45.441
1765.015 53.451 63.351 76.071 91.621 111.921 137.421 169.821 210.501 257.791 306.421
1784.305 347.851 373.451 376.651 366.771 365.941 378.961 375.021 337.991 283.281 224.971
1803.594 172.071 129.991 99.281 78.051 63.641 53.581 46.341 40.661 36.011 32.121
1822.884 28.921 26.381 24.441 23.101 22.411 22.371 23.121 24.621 26.911 29.921
1842.174 33.481 37.621 42.091 46.631 51.051 54.731 57.271 58.471 58.101 56.151
1861.464 52.971 48.951 44.261 38.951 32.961 26.631 20.851 16.241 13.111 11.121
1880.754 9.791 8.851 8.141 7.571 7.071 6.681 6.411 6.251 6.111 6.021
1900.043 5.921 5.791 5.721 5.741 5.811 5.881 5.951 6.011 6.051 6.101
1919.333 6.121 6.081 5.971 5.811 5.571 5.311 5.061 4.761 4.441 4.181
1938.623 3.931 3.701 3.561 3.501 3.481 3.481 3.531 3.571 3.611 3.681
1957.913 3.701 3.661 3.581 3.501 3.461 3.361 3.201 3.011 2.821 2.681
1977.202 2.541 2.401 2.271 2.161 2.061 1.921 1.821 1.731 1.661 1.611
1996.492 1.541 1.521 1.491 1.471 1.471 1.471 1.501 1.541 1.551 1.581
2015.782 1.591 1.571 1.581 1.591 1.531 1.431 1.361 1.321 1.271 1.211
2035.072 1.1446 1.1074 1.0802 1.0576 1.076 1.0863 1.0739 1.0827 1.0747 1.0742
2054.362 1.0566 1.0407 1.0383 0.9984 0.9973 0.9854 0.9651 0.9898 0.9901 0.9735
2073.651 0.9856 0.9817 0.9481 0.9674 1.0131 1.0294 1.0224 1.0212 1.0089 1.0002
2092.941 1.0218 1.0617 1.1528 1.201 1.241 1.321 1.361 1.401 1.461 1.561
2112.231 1.631 1.661 1.681 1.711 1.771 1.801 1.821 1.861 1.891 1.961
2131.521 2.051 2.131 2.181 2.271 2.351 2.451 2.561 2.641 2.671 2.671
2150.810 2.661 2.631 2.601 2.531 2.451 2.341 2.151 1.961 1.811 1.691
2170.100 1.591 1.461 1.261 1.1101 1.0353 0.9633 0.8712 0.7911 0.7913 0.7623
2189.390 0.7287 0.74 0.7455 0.7493 0.7465 0.7843 0.7968 0.764 0.7708 0.7702
2208.680 0.7553 0.7568 0.7834 0.8247 0.8173 0.7765 0.7873 0.8059 0.8031 0.8091
2227.970 0.8285 0.8508 0.8537 0.8593 0.8415 0.8275 0.8354 0.8196 0.8026 0.8081
2247.259 0.825 0.7881 0.7296 0.7213 0.7243 0.7026 0.6595 0.5992 0.5691 0.597
2266.549 0.6136 0.5863 0.5752 0.5855 0.5701 0.5644 0.602 0.6296 0.6627 0.6696
2285.839 0.6452 0.6474 0.6837 0.681 0.6428 0.6736 0.6752 0.6633 0.6685 0.6395
2305.129 0.6262 0.6371 0.6376 0.6299 0.6212 0.6008 0.579 0.5901 0.6009 0.5907
2324.418 0.6175 0.6451 0.666 0.7185 0.7478 0.7278 0.7169 0.7494 0.7651 0.7451
2343.708 0.7137 0.6656 0.5892 0.5792 0.5981 0.5357 0.4883 0.4223 0.3686 0.3647
2362.998 0.3672 0.3812 0.3927 0.4036 0.4037 0.4348 0.4737 0.459 0.4551 0.453
2382.288 0.4542 0.468 0.44 0.4319 0.4229 0.4093 0.4337 0.4813 0.4833 0.4857
2401.578 0.5179 0.5137 0.4951 0.4973 0.5696 0.6408 0.6758 0.6469 0.616 0.6361
2420.867 0.6792 0.743 0.7943 0.8277 0.8528 0.8588 0.8472 0.8349 0.8234 0.8359
2440.157 0.8347 0.8142 0.7543 0.6764 0.6717 0.671 0.613 0.5825 0.5658 0.5481
2459.447 0.5243 0.4844 0.4942 0.5291 0.471 0.4286 0.4614 0.4501 0.4223 0.3972
2478.737 0.4059 0.4456 0.4308 0.4197 0.4333 0.4468 0.4688 0.4715 0.4584 0.4785
2498.026 0.485 0.4757 0.4838 0.4335 0.4029 0.4092 0.4073 0.4367 0.4469 0.4193
2517.316 0.3934 0.3592 0.3595 0.349 0.2991 0.3057 0.3127 0.3108 0.3464 0.3372
2536.606 0.3161 0.2911 0.3073 0.2811 0.27543 0.3074 0.3218 0.3454 0.3095 0.3116
2555.896 0.348 0.3402 0.3339 0.3799 0.3926 0.3639 0.3754 0.4054 0.4152 0.3857
2575.186 0.3779 0.3719 0.3343 0.3583 0.3778 0.3739 0.3876 0.3739 0.3764 0.3905
2594.475 0.3485 0.3673 0.3797 0.3685 0.3636 0.3446 0.3656 0.3933 0.3567 0.3056
2613.765 0.34 0.383 0.4175 0.4114 0.3559 0.3429 0.3816 0.4094 0.4208 0.434
2633.055 0.4366 0.446 0.4158 0.47 0.5292 0.5221 0.6072 0.6195 0.6157 0.6778
2652.345 0.699 0.7945 0.8706 0.8999 0.9672 0.9826 0.9718 0.9974 1.0006 0.8856
2671.634 0.802 0.8188 0.7728 0.7038 0.6932 0.6933 0.6732 0.5963 0.5223 0.495
2690.924 0.5138 0.5055 0.4618 0.457 0.425 0.4152 0.3862 0.3108 0.3324 0.4233
2710.214 0.435 0.4531 0.4457 0.4256 0.4324 0.396 0.3722 0.3537 0.3295 0.3166
2729.504 0.3201 0.3266 0.3261 0.27709 0.2954 0.3855 0.4168 0.3688 0.3749 0.4158
2748.794 0.4066 0.3977 0.4061 0.4529 0.5151 0.5575 0.5791 0.6055 0.6587 0.7341
2768.083 0.7839 0.7867 0.7885 0.7847 0.8228 0.8816 0.8432 0.7508 0.7269 0.7305
2787.373 0.704 0.7388 0.8017 0.79 0.8071 0.8826 0.9 0.9136 0.8942 0.9169
2806.663 0.955 0.8984 0.9101 1.0068 1.029 0.9867 1.0195 1.098 1.1762 1.221
2825.953 1.321 1.541 1.741 1.961 2.271 2.601 3.031 3.591 4.111 4.601
2845.242 5.141 5.571 5.931 6.221 6.541 6.991 7.441 7.961 8.601 9.451
2864.532 10.421 11.431 12.511 13.441 14.401 15.301 15.441 14.701 13.921 13.371
2883.822 12.671 11.831 10.861 10.061 9.471 8.921 8.531 8.311 8.231 8.261
2903.112 8.341 8.511 8.681 8.981 9.541 10.211 10.651 10.801 11.071 11.661
2922.401 12.591 13.701 14.961 16.591 18.751 21.671 25.361 28.561 30.431 31.991
2941.691 34.201 37.491 42.631 49.631 55.371 57.841 60.381 62.781 63.101 61.151
2960.981 58.291 53.261 46.891 42.591 36.871 28.641 20.271 13.601 9.031 6.171
2980.271 4.491 3.421 2.751 2.251 1.881 1.761 1.571 1.351 1.261 1.201
2999.561 1.1603 1.0204 0.9803 0.9604 0.9005 0.8386 0.734 0.7841 0.8318 0.8366
3018.850 0.8473 0.8553 0.8381 0.8645 0.9118 0.9282 0.9674 0.9145 0.893 0.9344
3038.140 0.956 0.9662 1.0238 1.0741 1.0715 1.0874 1.0764 1.057 1.0886 1.0303
3057.430 1.0084 1.0276 0.932 0.8225 0.7377 0.6899 0.6355 0.5305 0.4425 0.4025
3076.720 0.3918 0.4081 0.3489 0.27586 0.2954 0.3284 0.3338 0.3211 0.27069 0.25903
3096.009 0.3231 0.3038 0.23047 0.22757 0.27725 0.2863 0.24615 0.19374 0.186278 0.20231
3115.299 0.1657 0.184917 0.22961 0.1944 0.1604 0.17258 0.20337 0.26085 0.3026 0.180605
3134.589 0.064 0.1166 0.1463 0.1429 0.17822 0.25219 0.27031 0.17366 0.166 0.21163
3153.879 0.22083 0.22347 0.187944 0.19256 0.19482 0.24242 0.3183 0.27203 0.24887 0.20753
3173.169 0.20191 0.26712 0.22442 0.20526 0.27891 0.3259 0.3314 0.27342 0.19489 0.19845
3192.458 0.3083 0.375 0.3442 0.3304 0.3856 0.4186 0.4113 0.3634 0.3215 0.25757
3211.748 0.20798 0.3053 0.2994 0.1509 0.1159 0.1381 0.19403 0.21885 0.19512 0.182006
3231.038 0.20265 0.20344 0.1471 0.22065 0.19642 0.181686 0.26245 0.2471 0.22076 0.183525
3250.328 0.21048 0.17386 0.1253 0.1667 0.19018 0.22701 0.2759 0.3104 0.25705 0.1678
3269.617 0.1288 0.1471 0.1704 0.186124 0.17399 0.1357 0.1546 0.17721 0.1656 0.187874
3288.907 0.1663 0.1449 0.1523 0.185641 0.20201 0.1343 0.1055 0.1212 0.133 0.133
3308.197 0.129 0.0969 0.1016 0.182333 0.17328 0.0843 0.079 0.158 0.1709 0.1387
3327.487 0.1599 0.17169 0.186489 0.181736 0.23396 0.3124 0.22036 0.1467 0.22503 0.23877
3346.777 0.2319 0.25219 0.1588 0.17922 0.2903 0.2583 0.23165 0.25668 0.22209 0.23692
3366.066 0.25166 0.27499 0.3234 0.3922 0.3747 0.3087 0.2811 0.19588 0.21983 0.2864
3385.356 0.27031 0.21494 0.21063 0.19344 0.1705 0.182299 0.21926 0.3201 0.3173 0.21386
3404.646 0.25889 0.3511 0.3424 0.3254 0.3507 0.3474 0.331 0.2652 0.1083 0.1485
3423.936 0.21754 0.22173 0.19365 0.20701 0.26218 0.27736 0.2874 0.2893 0.3132 0.2688
3443.225 0.26396 0.2834 0.24621 0.17615 0.1554 0.1573 0.1206 0.1195 0.131 0.21367
3462.515 0.317 0.17937 0.081 0.19548 0.2897 0.27272 0.23753 0.3085 0.3472 0.25485
3481.805 0.2266 0.3114 0.2757 0.3129 0.3847 0.3172 0.25054 0.25217 0.36 0.4189
3501.095 0.4743 0.4669 0.5015 0.5706 0.4222 0.4715 0.5232 0.3364 0.3429 0.406
3520.385 0.4718 0.5584 0.5653 0.5975 0.609 0.6232 0.5962 0.6451 0.6897 0.6555
3539.674 0.7556 0.7993 0.8144 0.8777 0.9303 1.0175 1.0613 1.0063 1.0255 1.291
3558.964 1.401 1.441 1.661 1.761 1.771 1.751 1.851 1.941 1.871 1.941
3578.254 2.001 2.011 2.001 1.941 2.021 1.951 1.851 1.911 1.901 1.921
3597.544 2.041 2.111 2.181 2.391 2.571 2.741 3.011 3.241 3.461 3.721
3616.833 4.041 4.421 4.611 4.651 4.751 4.901 4.881 4.661 4.441 4.201
3636.123 3.811 3.481 3.171 2.771 2.431 2.081 1.761 1.611 1.541 1.361
3655.413 1.231 1.1801 1.0761 1.0143 0.9132 0.7015 0.6304 0.7009 0.6728 0.6259
3674.703 0.67 0.789 0.8383 0.7276 0.6949 0.6718 0.6603 0.7798 0.8163 0.778
3693.993 0.7445 0.7692 0.8256 0.8485 0.9007 0.8819 0.7696 0.7931 0.8118 0.7902
3713.282 0.8851 0.8681 0.717 0.6512 0.7103 0.7467 0.7209 0.6639 0.6607 0.6363
3732.572 0.4934 0.4648 0.5495 0.5306 0.4703 0.5512 0.6279 0.5164 0.3756 0.3605
3751.862 0.4537 0.482 0.4445 0.4565 0.3432 0.3434 0.4951 0.5564 0.5162 0.5196
3771.152 0.4952 0.4344 0.5207 0.4474 0.3845 0.458 0.4823 0.5084 0.4526 0.3176
3790.441 0.2956 0.3844 0.4095 0.4168 0.5002 0.5237 0.4136 0.4505 0.5252 0.4761
3809.731 0.4453 0.4389 0.4342 0.3131 0.24604 0.3193 0.3414 0.3588 0.2966 0.27591
3829.021 0.404 0.4365 0.4522 0.4332 0.335 0.3177 0.283 0.22189 0.23059 0.2852
3848.311 0.3955 0.5196 0.4206 0.26621 0.2709 0.3026 0.3382 0.2879 0.19149 0.24441
3867.601 0.23487 0.1558 0.1569 0.21014 0.24817 0.25407 0.3156 0.286 0.25984 0.27032
3886.890 0.3375 0.4799 0.4875 0.3666 0.2317 0.3011 0.4375 0.3892 0.345 0.3609
3906.180 0.3543 0.3524 0.3535 0.379 0.4076 0.3997 0.3753 0.3546 0.3849 0.4183
3925.470 0.4669 0.4437 0.401 0.39 0.3948 0.3513 0.3307 0.3374 0.2347 0.17685
3944.760 0.21036 0.3221 0.4839 0.5021 0.4376 0.3591 0.19814 0.21738 0.4183 0.4971
3964.049 0.4358 0.3464 0.27831 0.19522 0.1655 0.328 0.4691 0.339 0.25197 0.3046
3983.339 0.3424 0.4495 0.4803 0.4468 0.4803 0.4989 0.3786 0.4156 0.6102 0.6139
##END=
