##TITLE=D-.alpha.-Methylbenzyl isothiocyanate
##JCAMP-DX=4.24
##DATA TYPE=INFRARED SPECTRUM
##ORIGIN=EPA-IR VAPOR PHASE LIBRARY
##OWNER=SRD/NIST
Collection (C) 2018 copyright by the U.S. Secretary of Commerce
on behalf of the United States of America. All rights reserved.
##CAS REGISTRY NO=24277-44-9
##MOLFORM=C 9 H 9 N S
##$NIST SOURCE=MSDC-IR
##STATE=gas
##XUNITS=1/CM
##YUNITS=ABSORBANCE
##XFACTOR=1.
##YFACTOR=0.001
##DELTAX=1.92898
##FIRSTX=549.8
##LASTX=4000.7
##FIRSTY=21.871
##MAXX=4000.7
##MINX=549.759
##MAXY=0.372851
##MINY=0
##NPOINTS=1790
##XYDATA=(X++(Y..Y))
549.759 21.871 21.801 21.731 21.341 20.971 20.911 20.761 20.711 20.661 20.341
569.049 20.171 19.771 19.231 18.931 18.591 18.151 17.731 17.271 17.021 16.861
588.339 16.321 15.761 15.571 15.081 14.591 14.001 13.011 12.051 11.171 10.721
607.628 10.361 10.021 9.731 9.411 9.231 9.101 8.901 8.411 8.251 8.161
626.918 7.911 7.831 7.671 7.551 7.351 6.941 6.751 6.821 6.781 6.811
646.208 6.831 6.851 7.061 7.321 7.551 7.751 8.271 9.101 9.981 10.811
665.498 11.631 13.001 14.561 16.191 18.231 20.471 22.991 25.971 29.161 32.601
684.787 36.381 40.591 45.011 49.091 52.641 55.391 56.521 55.401 53.071 49.991
704.077 46.051 41.631 37.391 33.461 29.731 26.571 23.781 21.531 19.611 17.681
723.367 16.141 15.081 14.361 13.721 13.361 13.151 12.961 12.981 13.111 13.391
742.657 14.001 14.661 15.561 16.751 17.701 18.551 19.251 19.481 19.441 19.001
761.947 18.051 17.131 16.391 15.761 15.071 14.311 13.541 12.971 12.421 11.491
781.236 10.301 9.171 8.151 6.961 5.881 5.291 4.671 4.001 3.601 3.241
800.526 2.911 2.771 2.791 2.421 1.891 1.701 1.711 1.701 1.561 1.4822
819.816 1.4549 1.4276 1.3854 1.4667 1.4236 1.1573 1.0227 0.9267 0.8149 0.8825
839.106 0.9749 0.9475 1.0472 1.1143 1.0269 0.9958 1.0084 0.9339 0.8701 0.8753
858.395 1.0519 1.064 1.0727 1.2227 1.258 1.206 1.1296 1.1712 1.4137 1.661
877.685 1.721 1.751 1.801 1.871 1.931 2.111 2.241 2.471 2.741 2.791
896.975 2.921 3.121 3.201 3.371 3.711 3.661 3.501 3.661 3.591 3.351
916.265 3.311 3.381 3.341 3.251 3.241 3.321 3.641 3.991 4.341 4.761
935.555 5.361 6.151 6.961 7.951 8.931 9.831 10.751 11.441 11.891 12.111
954.844 12.081 11.631 10.941 10.321 9.571 8.751 7.961 7.151 6.471 6.061
974.134 5.571 5.021 4.711 4.501 4.311 4.181 4.091 4.101 4.151 4.041
993.424 4.181 4.421 4.491 4.921 5.501 6.051 6.761 7.581 9.281 11.651
1012.714 14.681 18.631 22.501 25.981 28.141 28.941 28.851 28.141 26.861 23.801
1032.003 19.351 15.551 13.341 11.911 10.771 10.231 9.641 8.861 8.241 8.031
1051.293 8.101 8.191 8.351 8.501 8.731 9.011 8.911 8.821 9.051 9.181
1070.583 8.901 8.661 8.801 8.731 8.411 8.291 7.821 7.551 7.651 7.481
1089.873 7.651 8.041 8.331 8.551 8.701 9.151 9.751 10.201 10.481 10.611
1109.163 10.481 10.421 10.561 10.301 10.251 9.931 9.501 9.541 9.021 8.171
1128.452 7.571 7.061 6.681 5.971 5.141 4.591 4.041 3.701 3.721 3.751
1147.742 3.241 3.111 3.321 3.251 3.261 3.011 2.801 2.901 3.021 2.931
1167.032 2.941 3.041 3.101 3.361 3.851 4.761 5.551 5.781 6.151 6.511
1186.322 6.711 7.151 7.461 7.631 7.911 8.361 8.801 9.201 9.261 8.731
1205.611 8.081 7.591 7.281 6.611 5.701 4.841 4.241 4.121 3.911 3.751
1224.901 3.791 3.521 3.361 3.671 3.891 4.061 4.301 4.531 4.681 4.791
1244.191 4.891 5.111 5.351 5.481 5.811 6.291 6.791 7.491 8.311 9.231
1263.481 10.611 12.151 13.951 15.811 17.331 18.761 20.151 21.341 22.171 23.051
1282.771 24.061 24.871 25.781 27.081 28.881 31.231 33.931 37.021 40.331 43.421
1302.060 46.201 48.591 50.861 53.161 55.461 57.351 58.551 59.121 59.021 58.181
1321.350 56.521 54.181 51.301 48.011 44.411 40.731 37.601 35.601 34.871 35.221
1340.640 35.771 35.801 35.181 34.121 32.651 30.341 26.891 22.611 18.471 15.251
1359.930 13.021 11.591 10.901 10.711 10.881 11.351 11.981 12.651 13.341 13.881
1379.219 14.181 14.141 13.681 12.941 11.991 10.821 9.571 8.371 7.261 6.321
1398.509 5.501 4.841 4.441 4.161 3.961 3.861 3.811 3.831 3.931 4.081
1417.799 4.221 4.451 4.741 5.131 5.551 5.981 6.611 7.321 8.061 8.901
1437.089 9.971 11.291 12.831 14.521 16.361 18.281 19.971 21.161 21.751 21.721
1456.378 21.211 20.191 18.611 16.451 14.051 11.861 10.111 8.841 7.961 7.261
1475.668 6.741 6.611 6.851 7.421 8.321 9.561 11.011 12.421 13.431 13.841
1494.958 13.811 13.391 12.641 11.451 9.681 7.751 6.171 5.001 4.231 3.691
1514.248 3.341 3.111 2.911 2.791 2.721 2.641 2.551 2.521 2.521 2.471
1533.538 2.401 2.381 2.321 2.251 2.141 2.091 2.151 2.141 2.081 2.011
1552.827 1.971 1.991 2.011 2.031 2.041 2.041 2.111 2.241 2.361 2.541
1572.117 2.741 2.961 3.191 3.481 3.731 4.101 4.571 4.931 5.331 5.821
1591.407 6.251 6.611 6.921 7.071 7.111 7.091 6.901 6.601 6.241 5.731
1610.697 5.181 4.681 4.181 3.651 3.201 2.851 2.611 2.451 2.231 2.071
1629.986 2.061 2.001 1.841 1.791 1.871 1.861 1.771 1.781 1.881 1.881
1649.276 1.871 1.921 1.971 2.001 1.981 2.031 2.121 2.171 2.221 2.251
1668.566 2.311 2.341 2.281 2.211 2.211 2.161 2.071 1.971 1.931 1.901
1687.856 1.821 1.821 1.851 1.801 1.791 1.731 1.751 1.831 1.771 1.741
1707.146 1.751 1.821 1.911 1.961 2.081 2.121 2.131 2.231 2.291 2.381
1726.435 2.491 2.571 2.701 2.781 2.791 2.871 2.901 2.861 2.861 2.801
1745.725 2.741 2.681 2.591 2.551 2.451 2.291 2.211 2.141 2.111 2.111
1765.015 2.101 2.071 2.101 2.181 2.251 2.311 2.391 2.561 2.741 2.931
1784.305 3.251 3.621 3.931 4.211 4.421 4.541 4.551 4.401 4.211 3.961
1803.594 3.681 3.401 3.121 2.891 2.731 2.651 2.571 2.541 2.511 2.431
1822.884 2.371 2.351 2.321 2.331 2.311 2.271 2.231 2.301 2.381 2.461
1842.174 2.561 2.651 2.791 2.931 3.111 3.351 3.521 3.661 3.941 4.281
1861.464 4.551 4.831 5.071 5.281 5.581 5.831 6.091 6.411 6.711 7.081
1880.754 7.501 7.861 8.171 8.481 8.761 9.011 9.291 9.641 9.941 10.181
1900.043 10.521 10.931 11.411 11.981 12.571 13.191 13.851 14.561 15.361 16.231
1919.333 17.171 18.151 19.231 20.361 21.621 22.971 24.341 25.921 27.591 29.281
1938.623 31.161 33.121 35.131 37.291 39.631 42.081 44.631 47.371 50.251 53.321
1957.913 56.511 59.731 63.031 66.551 70.141 73.721 77.381 81.121 84.951 89.031
1977.202 93.341 97.771 102.441 107.351 112.521 118.081 124.041 130.451 137.321 144.611
1996.492 152.411 160.731 169.661 179.141 189.051 199.441 210.331 221.661 233.231 244.901
2015.782 256.561 268.361 280.051 291.521 302.751 313.401 323.541 333.191 341.961 349.871
2035.072 356.871 362.721 367.301 370.611 372.511 372.851 371.691 369.331 366.071 361.971
2054.362 357.191 351.831 345.801 339.301 332.711 326.201 319.771 312.951 305.551 297.791
2073.651 289.521 280.711 271.191 260.551 248.861 236.271 222.971 209.471 196.131 183.241
2092.941 171.031 159.801 149.831 141.041 133.281 126.601 120.901 116.081 112.121 108.961
2112.231 106.611 104.851 103.541 102.701 102.111 101.791 101.611 101.451 101.371 101.141
2131.521 100.741 100.201 99.351 98.281 97.141 95.811 94.241 92.511 90.651 88.621
2150.810 86.451 83.991 81.271 78.441 75.401 72.091 68.591 65.081 61.521 57.831
2170.100 54.191 50.621 47.281 44.221 41.291 38.631 36.231 34.141 32.291 30.571
2189.390 29.081 27.801 26.701 25.811 25.041 24.401 23.871 23.271 22.691 22.211
2208.680 21.691 21.221 20.741 20.161 19.571 19.061 18.641 18.231 17.831 17.411
2227.970 17.031 16.701 16.351 15.951 15.471 14.921 14.411 13.931 13.471 12.961
2247.259 12.471 11.951 11.401 10.861 10.291 9.791 9.301 8.791 8.281 7.861
2266.549 7.431 6.971 6.571 6.181 5.851 5.511 5.221 4.991 4.781 4.561
2285.839 4.311 4.091 3.921 3.811 3.721 3.621 3.471 3.361 3.281 3.191
2305.129 3.141 3.181 3.281 3.311 3.351 3.391 3.351 3.321 3.301 3.251
2324.418 3.221 3.171 3.071 3.071 3.041 2.941 2.811 2.711 2.671 2.601
2343.708 2.521 2.471 2.481 2.451 2.391 2.351 2.281 2.221 2.181 2.171
2362.998 2.141 2.091 2.071 1.971 1.951 1.971 1.961 2.001 1.981 1.891
2382.288 1.891 1.951 1.941 1.851 1.811 1.801 1.811 1.791 1.801 1.801
2401.578 1.711 1.711 1.691 1.621 1.671 1.751 1.701 1.661 1.681 1.701
2420.867 1.691 1.651 1.611 1.621 1.571 1.5263 1.5383 1.621 1.751 1.701
2440.157 1.661 1.811 1.831 1.741 1.701 1.691 1.741 1.761 1.741 1.741
2459.447 1.721 1.771 1.841 1.861 1.891 1.841 1.821 1.881 1.861 1.911
2478.737 1.931 1.861 1.871 1.871 1.951 1.981 1.871 1.871 1.971 1.991
2498.026 2.021 2.011 1.951 1.961 2.001 1.981 2.011 2.081 2.071 2.071
2517.316 2.031 2.061 2.171 2.201 2.261 2.281 2.251 2.301 2.391 2.441
2536.606 2.501 2.601 2.671 2.711 2.771 2.821 2.841 2.821 2.841 2.921
2555.896 2.971 3.061 3.101 3.101 3.091 3.181 3.191 3.111 3.161 3.171
2575.186 3.161 3.191 3.191 3.131 3.031 3.021 3.011 2.911 2.791 2.761
2594.475 2.721 2.671 2.641 2.551 2.441 2.341 2.311 2.271 2.241 2.231
2613.765 2.221 2.251 2.261 2.181 2.161 2.151 2.141 2.121 2.111 2.151
2633.055 2.111 2.111 2.091 2.091 2.141 2.151 2.211 2.191 2.161 2.161
2652.345 2.121 2.141 2.111 2.141 2.111 1.991 2.001 2.091 2.191 2.121
2671.634 1.961 2.021 2.141 2.131 2.121 2.151 2.181 2.231 2.231 2.251
2690.924 2.301 2.301 2.351 2.361 2.391 2.381 2.441 2.591 2.631 2.751
2710.214 2.801 2.841 2.941 2.991 3.031 3.121 3.211 3.261 3.311 3.391
2729.504 3.501 3.531 3.611 3.681 3.731 3.821 3.911 3.981 3.931 3.901
2748.794 3.931 4.021 3.991 3.911 3.991 3.951 3.891 3.871 3.841 3.821
2768.083 3.811 3.771 3.661 3.601 3.571 3.471 3.451 3.481 3.311 3.181
2787.373 3.201 3.151 3.061 2.991 2.941 2.881 2.851 2.801 2.661 2.711
2806.663 2.701 2.551 2.551 2.511 2.431 2.361 2.301 2.381 2.351 2.311
2825.953 2.371 2.351 2.381 2.341 2.271 2.261 2.321 2.261 2.181 2.261
2845.242 2.261 2.241 2.251 2.241 2.321 2.411 2.481 2.541 2.751 2.981
2864.532 3.151 3.411 3.671 4.041 4.551 4.971 5.241 5.491 5.711 5.931
2883.822 6.201 6.311 6.391 6.611 6.801 7.061 7.341 7.681 8.201 8.801
2903.112 9.411 10.041 10.821 11.671 12.441 13.161 13.711 14.111 14.401 14.561
2922.401 14.481 14.331 14.331 14.351 14.321 14.441 14.771 14.981 15.161 15.211
2941.691 15.031 14.611 13.961 13.311 12.431 11.221 10.121 9.141 8.261 7.531
2960.981 6.871 6.471 6.391 6.441 6.601 7.241 8.411 9.911 12.131 15.211
2980.271 19.391 25.251 32.501 39.481 43.721 45.501 46.581 46.141 43.381 38.071
2999.561 30.581 23.221 17.711 14.071 11.791 10.401 9.471 9.161 9.381 9.801
3018.850 10.481 11.361 12.481 13.841 15.421 17.051 18.431 19.651 20.741 21.411
3038.140 21.751 21.811 21.311 20.461 19.431 18.301 17.031 15.961 15.421 15.151
3057.430 15.221 15.781 16.711 18.171 20.141 22.201 24.181 25.601 26.291 26.561
3076.720 26.241 25.331 23.781 21.811 19.791 17.931 16.381 15.251 14.381 13.511
3096.009 12.681 11.921 11.161 10.391 9.731 9.101 8.491 7.911 7.341 6.531
3115.299 5.761 5.181 4.561 4.091 3.611 2.971 2.511 2.191 2.041 1.811
3134.589 1.561 1.3852 1.2117 1.0974 1.0418 1.1493 1.1514 0.9946 0.9108 1.0435
3153.879 0.9895 0.8311 0.8705 0.9066 0.9181 1.0017 0.9396 0.7609 0.7139 0.7761
3173.169 0.9124 0.9528 0.967 0.8605 0.7272 0.7576 0.7722 0.7055 0.56517 0.55137
3192.458 0.560102 0.60234 0.6808 0.64295 0.6914 0.6847 0.560448 0.5118 0.5073 0.61231
3211.748 0.57616 0.448 0.368 0.39 0.545 0.5249 0.438 0.4907 0.59744 0.58761
3231.038 0.5472 0.58066 0.5344 0.5045 0.4754 0.383 0.43 0.425 0.302 0.258
3250.328 0.321 0.381 0.348 0.349 0.315 0.275 0.241 0.157 0.187 0.302
3269.617 0.364 0.391 0.353 0.273 0.348 0.387 0.305 0.268 0.264 0.304
3288.907 0.278 0.308 0.382 0.339 0.259 0.228 0.236 0.259 0.274 0.313
3308.197 0.228 0.176 0.238 0.218 0.17 0.16 0.192 0.136 0.121 0.181
3327.487 0.195 0.183 0.198 0.146 0.214 0.221 0.16 0.245 0.185 0.178
3346.777 0.193 0.127 0.039 0.187 0.283 0.099 0.106 0.205 0.176 0.197
3366.066 0.224 0.167 0.262 0.132 0.112 0.263 0.3 0.309 0.236 0.292
3385.356 0.262 0.274 0.242 0.158 0.306 0.322 0.28 0.33 0.372 0.382
3404.646 0.392 0.231 0.145 0.259 0.296 0.251 0.221 0.265 0.154 0.133
3423.936 0.313 0.257 0.11 0.173 0.26 0.265 0.219 0.237 0.288 0.316
3443.225 0.323 0.269 0.232 0.297 0.327 0.298 0.241 0.29 0.366 0.276
3462.515 0.118 0.096 0.094 0 0.04 0.116 0.149 0.226 0.245 0.106
3481.805 0.056 0.159 0.306 0.319 0.283 0.373 0.354 0.291 0.401 0.409
3501.095 0.171 0.214 0.435 0.336 0.348 0.376 0.308 0.449 0.5464 0.457
3520.385 0.497 0.5323 0.5004 0.57942 0.419 0.264 0.312 0.325 0.325 0.4
3539.674 0.288 0.142 0.206 0.304 0.336 0.4725 0.63066 0.6221 0.449 0.428
3558.964 0.4744 0.354 0.294 0.264 0.261 0.288 0.24 0.224 0.413 0.5001
3578.254 0.415 0.27 0.153 0.28 0.375 0.407 0.341 0.265 0.349 0.299
3597.544 0.258 0.244 0.249 0.356 0.38 0.385 0.423 0.392 0.257 0.116
3616.833 0.199 0.272 0.341 0.37 0.286 0.339 0.4696 0.452 0.405 0.5273
3636.123 0.442 0.386 0.5322 0.324 0.331 0.5355 0.4736 0.537 0.5036 0.411
3655.413 0.311 0.349 0.5273 0.4813 0.399 0.4698 0.402 0.398 0.5318 0.55408
3674.703 0.4987 0.403 0.296 0.37 0.562177 0.446 0.314 0.341 0.346 0.296
3693.993 0.296 0.404 0.413 0.356 0.405 0.4665 0.38 0.337 0.313 0.369
3713.282 0.469 0.396 0.326 0.32 0.406 0.4742 0.5207 0.418 0.314 0.398
3732.572 0.453 0.323 0.223 0.25 0.432 0.5416 0.342 0.274 0.404 0.378
3751.862 0.448 0.536 0.4714 0.451 0.4755 0.4806 0.447 0.357 0.384 0.441
3771.152 0.32 0.29 0.455 0.4704 0.3 0.282 0.327 0.36 0.328 0.299
3790.441 0.389 0.4801 0.43 0.419 0.425 0.337 0.287 0.371 0.428 0.361
3809.731 0.453 0.453 0.355 0.4719 0.55511 0.58308 0.5448 0.5227 0.61643 0.567582
3829.021 0.416 0.384 0.5434 0.7021 0.7272 0.60676 0.60851 0.7197 0.8691 0.9758
3848.311 0.958 0.9943 0.9508 0.8125 0.64087 0.7024 0.7532 0.665 0.60955 0.57951
3867.601 0.6981 0.7146 0.65465 0.7312 0.835 0.7887 0.7388 0.7808 0.7493 0.791
3886.890 0.8847 0.8833 0.8483 0.8319 0.8546 0.8297 0.796 0.8946 0.9612 0.8169
3906.180 0.7655 0.7828 0.7792 0.8787 0.9066 0.9223 0.9162 0.9064 1.036 1.1627
3925.470 1.1543 1.1814 1.1977 1.0965 1.0708 1.1414 1.2313 1.2232 1.239 1.3384
3944.760 1.3981 1.3194 1.2836 1.3788 1.4338 1.4989 1.4284 1.5295 1.711 1.5237
3964.049 1.3807 1.4644 1.397 1.3383 1.4205 1.5371 1.691 1.781 1.711 1.621
3983.339 1.691 1.681 1.591 1.721 1.891 1.861 1.761 1.791 1.861 1.951
##END=
