##TITLE=Benzonaphthofuran
##JCAMP-DX=4.24
##DATA TYPE=INFRARED SPECTRUM
##ORIGIN=NIST Mass Spectrometry Data Center
##OWNER=NIST Standard Reference Data Program
Collection (C) 2018 copyright by the U.S. Secretary of Commerce
on behalf of the United States of America. All rights reserved.
##CAS REGISTRY NO=243-42-5
##MOLFORM=C 16 H 10 O
##$NIST SOURCE=MSDC-IR
##SPECTROMETER/DATA SYSTEM=HP-GC/MS/IRD
##STATE=gas
##XUNITS=1/CM
##YUNITS=ABSORBANCE
##XFACTOR=1.0
##YFACTOR=0.000001100
##DELTAX=4.0
##FIRSTX=550.0
##LASTX=3846.0
##FIRSTY=0.000249
##MAXX=3846
##MINX=550
##MAXY=0.011
##MINY=0
##NPOINTS=825
##XYDATA=(X++(Y..Y))
550.0 226 0 18 43 281 529 496 332 100 13
590.0 42 99 125 91 119 330 593 651 491 245
630.0 202 281 309 202 139 233 261 216 170 120
670.0 116 215 266 272 298 340 347 389 481 489
710.0 570 766 1032 1310 1711 2505 3778 5086 5680 5443
750.0 4411 3299 2371 1537 957 580 382 316 303 336
790.0 358 423 425 399 394 351 296 324 364 394
830.0 501 557 625 812 1192 2032 3150 4070 4215 3330
870.0 2411 1834 1378 1005 683 500 487 635 885 999
910.0 882 621 463 442 430 427 461 487 481 478
950.0 475 432 370 358 375 352 498 777 941 879
990.0 617 409 362 457 752 1105 1151 832 496 287
1030.0 148 112 137 107 60 67 98 105 116 111
1070.0 84 101 124 185 272 367 518 622 700 853
1110.0 1501 2635 3225 2651 1306 569 427 433 727 1642
1150.0 3116 3888 3260 1698 629 385 364 558 1142 2202
1190.0 3799 6436 9275 10000 8014 5162 3398 2180 1058 427
1230.0 230 258 340 394 433 412 401 389 306 186
1270.0 96 79 111 182 305 463 522 439 324 279
1310.0 300 329 353 353 321 311 353 437 510 489
1350.0 381 327 299 243 284 317 298 294 329 490
1390.0 846 1170 1264 1113 871 768 773 840 980 1266
1430.0 1746 2125 2130 1862 1684 1862 2272 3229 4283 4409
1470.0 3302 1805 1133 966 910 990 1170 1397 1527 1380
1510.0 1051 727 477 312 229 219 197 148 129 170
1550.0 204 191 182 273 370 427 514 623 763 951
1590.0 1154 1333 1443 1451 1303 1035 781 631 554 463
1630.0 392 361 378 416 434 418 388 360 302 289
1670.0 282 259 268 250 255 243 178 120 115 136
1710.0 129 102 116 174 188 139 83 79 86 90
1750.0 92 93 112 139 145 140 150 140 125 117
1790.0 104 135 157 155 173 155 139 119 87 55
1830.0 49 58 60 55 86 104 85 65 46 39
1870.0 39 52 99 154 216 259 228 186 182 167
1910.0 164 178 191 254 351 411 373 274 184 128
1950.0 94 79 68 51 35 44 66 60 55 67
1990.0 70 70 70 71 77 69 52 42 56 63
2030.0 55 65 66 52 57 63 81 93 82 66
2070.0 48 55 52 27 35 54 76 84 81 74
2110.0 55 33 32 37 42 63 81 71 48 51
2150.0 55 46 42 50 56 60 53 51 52 63
2190.0 77 72 68 60 66 66 67 79 87 93
2230.0 90 88 103 101 81 77 45 46 67 59
2270.0 49 47 65 65 31 18 15 20 44 56
2310.0 48 25 4 3 3 3 3 3 3 23
2350.0 18 2 3 3 3 3 2 11 51 71
2390.0 66 76 81 103 130 129 110 98 108 108
2430.0 103 100 121 139 122 105 103 116 113 105
2470.0 105 102 95 91 104 118 115 117 120 118
2510.0 123 123 135 154 154 164 160 147 153 145
2550.0 134 117 82 93 108 91 86 103 111 129
2590.0 134 104 119 131 107 107 133 144 126 121
2630.0 123 135 165 177 174 146 158 163 134 175
2670.0 155 132 151 135 122 145 186 169 153 167
2710.0 160 128 134 162 158 175 187 181 176 161
2750.0 164 179 180 217 210 211 245 225 225 229
2790.0 227 238 249 267 252 229 197 176 187 215
2830.0 228 206 216 228 233 187 171 190 180 142
2870.0 127 184 201 162 166 209 202 181 182 200
2910.0 229 218 207 206 209 211 225 274 307 306
2950.0 307 308 284 279 301 276 260 271 276 286
2990.0 287 334 408 466 505 485 464 504 568 624
3030.0 700 810 970 1154 1357 1741 2244 2709 3012 3021
3070.0 2893 2699 2430 2109 1777 1499 1244 981 734 538
3110.0 427 324 255 212 222 254 245 291 297 246
3150.0 219 237 210 190 223 245 223 170 187 209
3190.0 185 165 126 148 161 160 165 189 211 184
3230.0 189 185 132 139 161 135 148 171 168 173
3270.0 203 182 95 96 152 163 163 153 129 104
3310.0 111 113 142 167 191 185 133 118 159 128
3350.0 110 140 160 148 86 91 130 126 80 102
3390.0 165 122 103 136 142 156 149 111 96 73
3430.0 82 96 47 21 49 33 39 92 105 87
3470.0 53 25 51 94 112 121 101 42 30 50
3510.0 53 57 74 54 29 69 84 63 26 6
3550.0 68 71 78 123 64 6 33 60 51 35
3590.0 55 51 55 61 53 49 59 73 82 83
3630.0 75 55 31 45 44 40 76 14 31 123
3670.0 71 30 84 111 61 73 111 84 81 100
3710.0 70 82 182 143 58 86 81 79 66 36
3750.0 32 49 127 145 106 80 90 98 122 172
3790.0 174 132 160 150 107 148 128 105 164 139
3830.0 104 79 62 141 188
##END=
