##TITLE=Ethyl thiopropionate
##JCAMP-DX=4.24
##DATA TYPE=INFRARED SPECTRUM
##ORIGIN=EPA-IR VAPOR PHASE LIBRARY
##OWNER=SRD/NIST
Collection (C) 2018 copyright by the U.S. Secretary of Commerce
on behalf of the United States of America. All rights reserved.
##CAS REGISTRY NO=2432-42-0
##MOLFORM=C 5 H 10 O S
##$NIST SOURCE=MSDC-IR
##STATE=gas
##XUNITS=1/CM
##YUNITS=ABSORBANCE
##XFACTOR=1.
##YFACTOR=0.001
##DELTAX=1.92934
##FIRSTX=549.9
##LASTX=3999.5
##FIRSTY=5.5
##MAXX=3999.53
##MINX=549.863
##MAXY=0.19601
##MINY=0
##NPOINTS=1789
##XYDATA=(X++(Y..Y))
549.863 5.5 5.99 6.25 6.6 7.14 7.61 8.13 8.69 9.42 10.34
569.156 11.27 12.18 13.27 14.37 15.55 16.85 18.06 19.1 19.97 20.72
588.450 21.25 21.48 21.54 21.41 20.8 19.9 18.9 17.65 16.34 15.15
607.743 13.88 12.59 11.32 10.12 9.16 8.25 7.42 6.71 6.15 5.65
627.037 5.11 4.73 4.38 4.16 4.05 3.89 3.65 3.51 3.47 3.31
646.330 3.24 3.38 3.45 3.42 3.48 3.52 3.69 3.89 4.11 4.38
665.624 4.6 4.91 5.29 5.64 6.07 6.56 7.1 7.63 8.16 8.76
684.917 9.43 10.13 10.87 11.63 12.39 13.24 14.06 14.85 15.52 15.99
704.210 16.51 16.9 17.02 16.91 16.66 16.32 15.78 15.1 14.28 13.31
723.504 12.13 10.82 9.56 8.32 7.23 6.37 5.68 5.08 4.64 4.31
742.797 4.01 3.83 3.75 3.71 3.64 3.57 3.43 3.39 3.38 3.4
762.091 3.42 3.44 3.53 3.58 3.6 3.59 3.61 3.65 3.71 3.69
781.384 3.6 3.56 3.52 3.46 3.41 3.36 3.33 3.28 3.19 3.09
800.678 2.99 2.94 2.88 2.79 2.67 2.6 2.56 2.56 2.54 2.49
819.971 2.47 2.432 2.4209 2.48 2.56 2.54 2.49 2.55 2.59 2.57
839.264 2.65 2.7 2.72 2.76 2.78 2.88 2.94 2.93 2.98 3.07
858.558 3.15 3.29 3.45 3.56 3.72 3.9 4.12 4.38 4.62 4.94
877.851 5.29 5.67 6.23 6.86 7.51 8.28 9.18 10.29 11.62 13.16
897.145 15.05 17.41 20.29 23.79 28.18 33.59 40.12 47.97 57.08 67.22
916.438 77.96 88.78 98.97 107.84 115.1 120.42 123.62 124.69 123.73 120.68
935.732 115.14 107.26 97.53 86.57 75.12 63.86 53.48 44.46 37.08 31.43
955.025 27.33 24.51 22.63 21.4 20.57 20.05 19.77 19.62 19.53 19.49
974.318 19.49 19.51 19.64 19.82 20 20.31 20.73 21.39 22.36 23.63
993.612 25.23 27.13 29.26 31.58 33.96 36.23 38.32 40.08 41.44 42.44
1012.905 43.03 43.16 42.79 41.99 40.77 39.15 37.25 35.29 33.43 31.76
1032.199 30.4 29.47 28.94 28.75 28.83 29.15 29.58 30.01 30.39 30.69
1051.492 30.87 30.94 30.91 30.76 30.37 29.8 29.12 28.38 27.63 26.9
1070.786 26.21 25.71 25.46 25.47 25.61 25.82 26.14 26.54 26.93 27.4
1090.079 27.89 28.25 28.53 28.83 29.1 29.42 29.76 30.17 30.73 31.35
1109.372 32.08 32.97 34.04 35.18 36.4 37.74 39.02 40.07 40.85 41.37
1128.666 41.48 41.15 40.33 39.19 37.67 35.66 33.4 30.96 28.3 25.61
1147.959 23.02 20.54 18.27 16.25 14.5 13.01 11.73 10.65 9.76 8.97
1167.253 8.22 7.59 7.16 6.78 6.35 5.95 5.67 5.36 5.03 4.81
1186.546 4.71 4.55 4.37 4.31 4.27 4.18 4.14 4.12 4.21 4.3
1205.840 4.34 4.42 4.45 4.5 4.72 4.94 5.13 5.33 5.39 5.56
1225.133 5.83 6 6.24 6.49 6.67 6.98 7.22 7.53 8.02 8.61
1244.426 9.33 10.31 11.53 13.04 14.78 16.61 18.56 20.4 21.95 23.08
1263.720 23.83 24.15 24.05 23.63 22.83 21.69 20.2 18.38 16.31 14.14
1283.013 12.21 10.58 9.32 8.41 7.73 7.21 6.88 6.63 6.44 6.34
1302.307 6.37 6.5 6.7 6.93 7.2 7.54 7.86 8.22 8.62 8.97
1321.600 9.27 9.49 9.66 9.78 9.79 9.7 9.51 9.29 9.05 8.69
1340.894 8.3 7.88 7.44 7.01 6.59 6.27 6.07 5.97 5.93 5.97
1360.187 6.11 6.36 6.69 7.01 7.4 7.88 8.41 8.96 9.51 10.02
1379.480 10.46 10.79 10.99 11.21 11.5 11.69 11.74 11.69 11.58 11.51
1398.774 11.49 11.53 11.69 11.93 12.24 12.61 13.09 13.57 14.04 14.56
1418.067 15.05 15.56 16.08 16.54 16.95 17.28 17.57 17.87 18.16 18.36
1437.361 18.53 18.76 19 19.21 19.45 19.74 20.08 20.41 20.83 21.33
1456.654 21.77 22.03 21.98 21.54 20.82 20.15 19.54 18.74 17.8 16.74
1475.948 15.51 14.1 12.65 11.31 10.13 9.18 8.37 7.64 7.03 6.55
1495.241 6.12 5.7 5.32 4.99 4.72 4.46 4.26 4.09 3.92 3.77
1514.534 3.62 3.46 3.34 3.24 3.15 3.07 2.95 2.8 2.74 2.72
1533.828 2.64 2.53 2.45 2.4245 2.3977 2.3245 2.26 2.2263 2.2042 2.2155
1553.121 2.1962 2.1613 2.1647 2.1372 2.1323 2.1385 2.1374 2.0978 2.0767 2.1104
1572.415 2.1321 2.1239 2.0913 2.0869 2.1468 2.2142 2.2429 2.2878 2.3167 2.3286
1591.708 2.3828 2.41 2.47 2.57 2.63 2.68 2.76 2.83 2.92 3.05
1611.002 3.11 3.15 3.26 3.38 3.53 3.66 3.74 3.84 4 4.17
1630.295 4.34 4.5 4.68 4.92 5.16 5.43 5.71 6.05 6.5 6.96
1649.588 7.47 8.09 8.78 9.58 10.51 11.55 12.8 14.22 15.82 17.78
1668.882 20.21 23.07 26.49 30.52 35.42 41.01 47.58 55.11 64.12 74.41
1688.175 85.8 98.72 112.88 127.82 143.77 159.14 172.57 183.93 191.3 195.21
1707.469 196.01 194.95 193.27 191 186.08 176.28 161.46 144.16 125.53 107.25
1726.762 90.55 75.81 62.93 51.99 42.43 34.63 28.41 23.34 19.42 16.28
1746.056 13.83 11.92 10.41 9.21 8.23 7.42 6.78 6.23 5.74 5.29
1765.349 4.94 4.67 4.38 4.11 3.9 3.73 3.61 3.46 3.31 3.19
1784.642 3.06 2.95 2.86 2.75 2.62 2.56 2.51 2.3999 2.3164 2.2577
1803.936 2.1809 2.0979 2.0133 1.9672 1.9204 1.8688 1.8702 1.8464 1.8335 1.8254
1823.229 1.7907 1.7807 1.7825 1.7914 1.8079 1.8018 1.8268 1.835 1.8203 1.867
1842.523 1.8888 1.9062 1.9267 1.9366 1.9379 1.9337 1.93 1.945 1.9213 1.8906
1861.816 1.8775 1.8437 1.8015 1.7376 1.7271 1.707 1.6738 1.6598 1.5913 1.5165
1881.110 1.51028 1.49196 1.4076 1.341 1.346 1.295 1.277 1.319 1.289 1.254
1900.403 1.24 1.225 1.206 1.214 1.273 1.306 1.298 1.298 1.312 1.307
1919.696 1.304 1.345 1.3758 1.4132 1.4322 1.4356 1.4379 1.4246 1.4281 1.423
1938.990 1.4014 1.3778 1.3646 1.331 1.325 1.344 1.286 1.22 1.223 1.197
1958.283 1.129 1.085 1.065 1.005 0.985 0.969 0.915 0.919 0.906 0.888
1977.577 0.858 0.852 0.883 0.895 0.911 0.905 0.904 0.912 0.938 0.964
1996.870 0.979 0.983 0.964 0.968 0.972 0.95 0.967 0.974 0.949 0.959
2016.164 0.927 0.902 0.889 0.856 0.839 0.869 0.89 0.855 0.817 0.778
2035.457 0.749 0.742 0.788 0.812 0.781 0.796 0.806 0.767 0.735 0.733
2054.750 0.758 0.781 0.77 0.703 0.662 0.664 0.672 0.667 0.681 0.717
2074.044 0.684 0.679 0.679 0.666 0.692 0.665 0.65 0.667 0.654 0.67
2093.337 0.677 0.639 0.651 0.654 0.664 0.676 0.67 0.641 0.63 0.654
2112.631 0.672 0.673 0.66 0.656 0.639 0.646 0.693 0.737 0.73 0.71
2131.924 0.717 0.725 0.729 0.732 0.767 0.833 0.849 0.827 0.796 0.816
2151.218 0.845 0.817 0.836 0.838 0.84 0.847 0.806 0.815 0.836 0.829
2170.511 0.83 0.828 0.83 0.837 0.839 0.842 0.833 0.83 0.821 0.807
2189.804 0.813 0.794 0.798 0.814 0.82 0.807 0.796 0.809 0.79 0.808
2209.098 0.851 0.829 0.831 0.861 0.861 0.88 0.903 0.891 0.892 0.899
2228.391 0.896 0.899 0.918 0.964 0.954 0.885 0.851 0.857 0.919 0.954
2247.685 0.905 0.841 0.838 0.839 0.816 0.799 0.787 0.785 0.787 0.787
2266.978 0.749 0.727 0.761 0.785 0.776 0.752 0.711 0.705 0.73 0.752
2286.272 0.751 0.708 0.708 0.778 0.807 0.815 0.79 0.771 0.792 0.824
2305.565 0.867 0.864 0.836 0.882 0.928 0.912 0.895 0.884 0.912 0.899
2324.858 0.874 0.877 0.89 0.914 0.913 0.911 0.919 0.925 0.93 0.899
2344.152 0.879 0.9 0.913 0.927 0.909 0.875 0.852 0.822 0.83 0.857
2363.445 0.829 0.783 0.752 0.776 0.815 0.798 0.806 0.819 0.802 0.812
2382.739 0.83 0.824 0.796 0.791 0.793 0.827 0.844 0.802 0.755 0.756
2402.032 0.779 0.771 0.787 0.794 0.784 0.803 0.81 0.856 0.878 0.846
2421.326 0.874 0.891 0.912 0.94 0.969 0.983 0.984 0.973 0.929 0.96
2440.619 0.997 0.965 0.923 0.873 0.824 0.826 0.822 0.821 0.822 0.76
2459.912 0.721 0.708 0.701 0.693 0.669 0.661 0.665 0.697 0.706 0.7
2479.206 0.69 0.672 0.723 0.735 0.673 0.63 0.631 0.671 0.685 0.644
2498.499 0.603 0.594 0.614 0.639 0.621 0.568 0.586 0.589 0.559 0.565
2517.793 0.553 0.549 0.539 0.525 0.496 0.467 0.451 0.42 0.4 0.43
2537.086 0.478 0.45 0.4 0.36 0.33 0.33 0.35 0.32 0.31 0.31
2556.380 0.32 0.34 0.34 0.36 0.4 0.42 0.39 0.34 0.33 0.36
2575.673 0.38 0.4 0.37 0.37 0.39 0.36 0.34 0.37 0.39 0.38
2594.966 0.39 0.42 0.44 0.44 0.477 0.452 0.454 0.508 0.5 0.529
2614.260 0.499 0.502 0.579 0.623 0.621 0.595 0.649 0.679 0.644 0.684
2633.553 0.677 0.683 0.736 0.697 0.674 0.67 0.651 0.682 0.643 0.596
2652.847 0.589 0.555 0.537 0.531 0.563 0.601 0.568 0.537 0.63 0.69
2672.140 0.664 0.7 0.722 0.72 0.777 0.791 0.808 0.85 0.883 0.931
2691.434 0.95 1.001 1.034 1.025 1.039 1.085 1.128 1.103 1.083 1.076
2710.727 1.067 1.024 1.033 1.094 1.113 1.181 1.213 1.174 1.168 1.255
2730.020 1.323 1.3702 1.44106 1.5709 1.6806 1.6856 1.7601 1.8181 1.7737 1.7779
2749.314 1.8177 1.7737 1.7522 1.7112 1.6312 1.5577 1.50762 1.45574 1.3576 1.3938
2768.607 1.44991 1.46753 1.4183 1.329 1.329 1.314 1.312 1.3529 1.3897 1.48065
2787.901 1.6092 1.6561 1.6777 1.7899 1.8602 1.8976 2.0245 2.1391 2.2251 2.46
2807.194 2.71 2.78 2.85 3.02 3.22 3.39 3.55 3.72 3.89 4.05
2826.488 4.26 4.41 4.56 4.7 4.79 4.96 5.2 5.42 5.48 5.53
2845.781 5.63 5.82 6.12 6.43 6.69 6.97 7.35 7.83 8.42 9.11
2865.074 9.9 10.83 11.81 13.08 14.59 16.24 18.17 20.18 22.13 23.79
2884.368 25.15 26.21 26.97 27.48 27.85 28.04 27.96 27.66 27.15 26.52
2903.661 25.87 25.38 25.16 25.05 25.17 25.72 26.47 27.37 28.56 30.13
2922.955 32.03 34.38 37.53 41.4 45.77 50.46 54.97 58.7 61.65 63.85
2942.248 65.36 66.26 66.24 65.69 64.55 62.61 59.93 56.78 54.02 52.08
2961.542 50.93 50.66 51.26 52.5 54.21 56.23 58.44 60.75 63.05 64.99
2980.835 66.08 66.26 65.75 64.55 62.37 59.49 56.52 53.15 49.05 44.64
3000.128 40.38 36.37 32.63 29.36 26.5 23.91 21.59 19.46 17.57 15.84
3019.422 14.26 12.87 11.7 10.52 9.52 8.62 7.77 7.19 6.64 6.03
3038.715 5.5 5.05 4.75 4.57 4.35 4.12 3.86 3.63 3.42 3.32
3058.009 3.35 3.3 3.13 3.04 2.96 2.89 2.87 2.76 2.7 2.55
3077.302 2.4226 2.4266 2.2857 2.1903 2.1895 2.1432 2.1196 2.0675 2.0193 2.0441
3096.596 1.961 1.8828 1.8876 1.8768 1.9467 1.936 1.7471 1.7255 1.8407 1.7482
3115.889 1.7636 1.8245 1.7609 1.6949 1.6496 1.6956 1.6569 1.5726 1.634 1.6604
3135.182 1.662 1.7203 1.6434 1.54178 1.3714 1.317 1.46932 1.48196 1.4113 1.342
3154.476 1.327 1.267 1.277 1.246 1.239 1.248 1.132 1.265 1.216 1.107
3173.769 1.189 1.146 1.141 1.102 1.111 1.146 0.99 0.956 0.899 0.863
3193.063 0.908 0.679 0.526 0.678 0.776 0.771 0.811 0.827 0.78 0.559
3212.356 0.37 0.476 0.571 0.501 0.45 0.41 0.37 0.32 0.32 0.29
3231.650 0.21 0.27 0.27 0.25 0.33 0.23 0.19 0.31 0.26 0.09
3250.943 0.09 0.1 0.18 0.25 0.08 0 0.03 0.11 0.15 0.13
3270.236 0.19 0.24 0.27 0.22 0.18 0.16 0.03 0.06 0.21 0.41
3289.530 0.4 0.38 0.45 0.31 0.31 0.45 0.39 0.3 0.19 0.19
3308.823 0.23 0.14 0.08 0.12 0.25 0.32 0.26 0.19 0.27 0.44
3328.117 0.477 0.43 0.36 0.31 0.29 0.44 0.558 0.45 0.42 0.525
3347.410 0.591 0.496 0.527 0.602 0.555 0.736 0.899 0.894 0.999 1.112
3366.704 1.226 1.3814 1.45866 1.6522 1.8521 1.9887 2.143 2.3034 2.56 2.8
3385.997 2.87 3.02 3.22 3.27 3.33 3.27 3.21 3.18 3.18 3.19
3405.290 3.05 2.77 2.55 2.3692 2.0021 1.7177 1.5976 1.45975 1.4002 1.189
3424.584 0.912 0.91 0.822 0.629 0.545 0.622 0.668 0.536 0.4 0.44
3443.877 0.559 0.541 0.32 0.24 0.33 0.32 0.24 0.28 0.457 0.463
3463.171 0.31 0.19 0.17 0.32 0.31 0.16 0.13 0.14 0.23 0.25
3482.464 0.24 0.3 0.24 0.21 0.3 0.28 0.19 0.11 0.15 0.18
3501.758 0.32 0.35 0.18 0.23 0.28 0.24 0.32 0.481 0.41 0.24
3521.051 0.27 0.42 0.35 0.26 0.3 0.24 0.19 0.2 0.18 0.24
3540.344 0.26 0.25 0.21 0.08 0.13 0.37 0.48 0.34 0.21 0.27
3559.638 0.31 0.31 0.37 0.31 0.25 0.28 0.35 0.41 0.36 0.25
3578.931 0.25 0.33 0.32 0.28 0.41 0.41 0.4 0.39 0.33 0.34
3598.225 0.35 0.4 0.41 0.44 0.39 0.29 0.28 0.43 0.42 0.36
3617.518 0.34 0.27 0.4 0.46 0.42 0.42 0.35 0.35 0.28 0.23
3636.812 0.38 0.41 0.42 0.28 0.23 0.44 0.538 0.454 0.38 0.498
3656.105 0.502 0.44 0.48 0.55 0.469 0.36 0.4 0.39 0.32 0.31
3675.398 0.4 0.499 0.502 0.495 0.494 0.484 0.45 0.42 0.33 0.33
3694.692 0.461 0.466 0.45 0.45 0.38 0.528 0.676 0.556 0.473 0.523
3713.985 0.478 0.43 0.539 0.515 0.466 0.462 0.473 0.514 0.502 0.502
3733.279 0.479 0.455 0.38 0.37 0.476 0.467 0.39 0.4 0.453 0.51
3752.572 0.561 0.541 0.518 0.477 0.42 0.37 0.43 0.58 0.704 0.628
3771.866 0.555 0.547 0.494 0.478 0.542 0.552 0.482 0.531 0.547 0.469
3791.159 0.43 0.49 0.5 0.514 0.524 0.43 0.454 0.519 0.472 0.43
3810.452 0.43 0.477 0.491 0.469 0.516 0.593 0.573 0.545 0.547 0.489
3829.746 0.466 0.44 0.43 0.518 0.545 0.529 0.547 0.539 0.497 0.515
3849.039 0.591 0.678 0.663 0.576 0.516 0.543 0.632 0.626 0.626 0.668
3868.333 0.608 0.618 0.716 0.68 0.705 0.762 0.618 0.572 0.649 0.614
3887.626 0.573 0.628 0.7 0.688 0.687 0.765 0.766 0.741 0.698 0.682
3906.920 0.767 0.763 0.758 0.796 0.787 0.804 0.796 0.747 0.743 0.697
3926.213 0.787 0.846 0.809 0.829 0.833 0.752 0.742 0.805 0.764 0.835
3945.506 0.904 0.815 0.749 0.838 0.901 0.94 0.928 0.878 0.866 0.813
3964.800 0.804 0.87 0.936 1.022 1.104 1.088 1.031 1.064 1.055 1.002
3984.093 1.043 1.068 1.095 1.102 1.112 1.252 1.312 1.233 1.112
##END=
