##TITLE=Bicyclo[2.2.2]-5-octene-2,3-dicarboxylic anhydride
##JCAMP-DX=4.24
##DATA TYPE=INFRARED SPECTRUM
##ORIGIN=EPA-IR VAPOR PHASE LIBRARY
##OWNER=SRD/NIST
Collection (C) 2018 copyright by the U.S. Secretary of Commerce
on behalf of the United States of America. All rights reserved.
##CAS REGISTRY NO=24327-08-0
##MOLFORM=C 10 H 10 O 3
##$NIST SOURCE=MSDC-IR
##STATE=gas
##XUNITS=1/CM
##YUNITS=ABSORBANCE
##XFACTOR=1.
##YFACTOR=0.001
##DELTAX=1.92898
##FIRSTX=549.8
##LASTX=4000.7
##FIRSTY=0.8486
##MAXX=4000.7
##MINX=549.759
##MAXY=0.340571
##MINY=0
##NPOINTS=1790
##XYDATA=(X++(Y..Y))
549.759 0.8486 1.1597 1.701 1.631 1.851 1.921 1.861 2.011 2.381 3.011
569.049 3.871 5.251 7.201 9.221 11.261 13.731 15.781 17.221 18.151 18.001
588.339 17.481 16.661 15.001 13.131 11.211 9.061 7.121 5.621 4.531 4.001
607.628 4.121 4.421 4.491 4.691 5.061 5.251 5.391 5.041 4.451 4.031
626.918 3.741 3.471 3.141 2.581 2.051 1.871 1.831 1.491 1.2031 1.2713
646.208 1.3012 1.2347 1.1578 1.421 1.521 1.521 1.811 2.191 2.671 3.421
665.498 4.511 6.401 9.371 12.651 15.711 17.941 19.631 22.061 24.221 22.751
684.787 19.671 18.141 16.181 13.171 9.951 7.071 5.161 4.131 3.601 3.401
704.077 3.701 4.361 5.471 7.381 9.981 13.091 15.941 18.531 20.971 23.101
723.367 24.361 23.961 23.011 21.581 18.761 15.471 12.461 9.711 7.381 5.751
742.657 4.681 4.071 3.781 3.771 3.911 4.021 4.281 4.531 5.021 5.691
761.947 6.561 8.031 9.751 11.371 12.771 14.241 15.491 15.981 16.021 15.701
781.236 15.021 14.001 12.451 10.481 8.591 6.821 5.491 4.481 3.701 3.351
800.526 2.981 2.591 2.431 2.311 2.111 1.991 2.031 2.141 2.421 2.621
819.816 2.621 2.961 3.501 4.201 4.831 5.811 7.301 8.221 8.661 9.781
839.106 11.321 12.721 13.861 14.561 15.231 15.801 15.771 15.481 15.291 14.881
858.395 13.931 12.751 11.861 11.031 10.101 9.291 8.641 8.111 7.701 7.621
877.685 7.941 8.781 10.131 12.131 14.861 18.151 22.661 28.171 34.751 42.921
896.975 51.991 61.651 71.011 79.271 86.221 91.031 92.441 90.321 85.401 78.461
916.265 70.331 61.621 53.081 45.481 40.101 37.561 38.051 41.591 47.861 56.271
935.555 66.121 77.041 88.971 100.831 111.231 119.571 123.331 121.191 115.261 106.431
954.844 94.711 81.621 68.281 54.991 42.611 32.291 24.691 19.651 16.471 14.801
974.134 14.051 13.571 13.581 13.761 13.661 13.301 12.671 12.031 11.391 10.341
993.424 9.121 8.371 7.601 6.711 6.311 6.241 6.031 5.751 5.731 5.801
1012.714 5.811 5.751 5.311 5.151 5.381 5.421 5.341 5.211 5.481 6.171
1032.003 5.961 5.591 6.111 6.681 7.071 7.721 8.471 9.171 10.131 10.761
1051.293 11.641 12.931 14.601 17.021 19.771 23.341 27.841 33.261 39.231 45.621
1070.583 53.131 61.121 67.761 73.231 77.921 81.541 83.501 82.931 80.151 76.451
1089.873 71.661 65.351 58.261 51.391 45.351 39.361 34.061 29.631 26.161 23.151
1109.163 20.361 17.591 14.811 12.871 11.231 9.361 7.761 6.431 5.411 4.971
1128.452 4.691 4.401 4.301 4.561 4.781 5.221 5.851 6.171 6.761 7.251
1147.742 7.051 6.601 6.741 7.091 7.061 7.361 7.901 8.421 8.681 9.511
1167.032 10.581 11.041 11.361 11.741 12.171 12.371 12.491 12.221 12.251 12.661
1186.322 12.731 13.351 14.941 16.711 18.751 21.991 26.461 31.491 36.551 42.101
1205.611 48.781 55.421 61.901 68.821 75.431 80.611 84.221 87.171 88.801 89.471
1224.901 89.541 89.141 88.121 86.371 83.691 80.721 77.331 73.201 69.381 64.931
1244.191 59.181 53.091 47.651 42.671 38.351 34.301 30.081 26.631 23.761 20.731
1263.481 17.821 15.091 12.961 11.811 11.351 10.991 10.611 10.631 10.751 10.721
1282.771 10.901 11.241 11.431 11.681 11.701 11.591 11.271 10.641 10.061 9.341
1302.060 8.381 7.481 6.711 6.121 5.811 5.771 5.891 6.041 6.221 6.451
1321.350 6.731 6.931 6.961 6.641 6.371 6.231 5.911 5.511 5.201 5.121
1340.640 5.191 5.271 5.381 5.571 5.751 5.831 5.791 5.631 5.541 5.531
1359.930 5.571 5.611 5.681 5.791 5.931 6.161 6.261 6.251 6.241 6.191
1379.219 5.951 5.641 5.341 4.941 4.531 4.161 3.851 3.581 3.341 3.081
1398.509 2.881 2.751 2.591 2.491 2.371 2.191 2.101 2.101 2.071 1.971
1417.799 1.881 1.911 1.921 1.851 1.851 1.811 1.831 1.931 2.001 2.051
1437.089 2.121 2.291 2.531 2.791 3.121 3.381 3.571 3.791 4.151 4.611
1456.378 5.071 5.591 5.981 6.131 6.251 6.561 6.531 5.981 5.391 5.011
1475.668 4.501 3.871 3.381 2.971 2.591 2.351 2.261 2.221 2.231 2.221
1494.958 2.221 2.191 2.261 2.331 2.271 2.271 2.281 2.361 2.381 2.381
1514.248 2.391 2.411 2.531 2.511 2.501 2.541 2.531 2.471 2.351 2.281
1533.538 2.171 2.091 1.931 1.701 1.671 1.741 1.681 1.581 1.571 1.541
1552.827 1.421 1.3179 1.331 1.2789 1.2485 1.2932 1.391 1.411 1.341 1.341
1572.117 1.361 1.381 1.3152 1.331 1.341 1.2374 1.2876 1.2982 1.3029 1.361
1591.407 1.371 1.411 1.401 1.531 1.691 1.721 1.671 1.751 2.001 2.231
1610.697 2.451 2.621 2.661 2.721 2.861 2.871 2.831 2.841 2.821 2.721
1629.986 2.551 2.381 2.121 1.931 1.921 1.811 1.691 1.661 1.691 1.811
1649.276 1.961 2.001 2.161 2.491 2.731 2.981 3.171 3.291 3.431 3.511
1668.566 3.591 3.641 3.571 3.531 3.501 3.421 3.421 3.391 3.311 3.391
1687.856 3.591 3.721 3.791 3.901 3.961 4.041 4.141 4.201 4.141 4.181
1707.146 4.241 4.241 4.381 4.491 4.581 4.721 4.921 5.171 5.411 5.721
1726.435 5.991 6.291 6.691 7.051 7.331 7.601 7.871 8.091 8.291 8.601
1745.725 8.991 9.521 10.271 11.301 12.631 14.141 16.071 18.331 20.881 23.891
1765.015 27.261 31.141 35.991 41.971 49.911 60.171 73.691 91.141 113.211 140.141
1784.305 171.321 205.681 240.221 272.521 300.251 321.651 335.191 340.571 337.101 324.511
1803.594 303.621 277.141 247.681 218.121 191.191 168.511 149.811 134.001 120.331 107.901
1822.884 96.491 86.201 77.281 70.001 63.991 59.391 55.921 53.331 51.381 49.671
1842.174 48.151 46.881 45.731 44.521 43.441 42.731 42.251 41.931 41.961 42.491
1861.464 43.621 45.411 47.911 50.901 54.111 57.221 59.761 61.541 62.391 61.931
1880.754 60.001 56.901 52.921 48.081 42.501 36.721 31.411 26.761 22.781 19.451
1900.043 16.631 14.131 11.941 10.191 8.791 7.571 6.581 5.801 5.161 4.721
1919.333 4.351 4.001 3.681 3.381 3.171 3.031 2.861 2.681 2.571 2.541
1938.623 2.491 2.411 2.361 2.291 2.201 2.121 2.081 2.041 2.041 2.041
1957.913 2.001 2.011 2.061 2.061 2.091 2.171 2.151 2.171 2.271 2.321
1977.202 2.371 2.401 2.431 2.471 2.451 2.481 2.551 2.571 2.531 2.491
1996.492 2.571 2.691 2.761 2.821 2.881 2.931 2.881 2.811 2.811 2.761
2015.782 2.651 2.561 2.451 2.291 2.161 2.051 1.961 1.891 1.771 1.661
2035.072 1.551 1.461 1.421 1.321 1.2769 1.2516 1.1327 1.1055 1.0853 1.0667
2054.362 1.1109 1.1378 1.1375 1.1623 1.212 1.1839 1.185 1.2616 1.2444 1.1442
2073.651 1.1617 1.226 1.1547 1.1401 1.2946 1.3002 1.1885 1.1786 1.1821 1.2025
2092.941 1.2545 1.2555 1.2816 1.411 1.511 1.531 1.501 1.581 1.671 1.701
2112.231 1.821 1.951 1.981 2.101 2.231 2.241 2.311 2.431 2.451 2.471
2131.521 2.541 2.541 2.541 2.541 2.671 2.741 2.651 2.711 2.771 2.801
2150.810 2.831 2.761 2.821 2.961 2.931 2.941 2.921 2.911 2.881 2.851
2170.100 2.871 2.691 2.591 2.581 2.541 2.431 2.331 2.251 2.191 2.111
2189.390 1.961 1.861 1.861 1.851 1.761 1.661 1.551 1.501 1.481 1.381
2208.680 1.341 1.2844 1.1659 1.1482 1.1712 1.1394 1.0268 0.9519 1.0227 1.0586
2227.970 0.9598 0.8934 0.9119 0.9222 0.9409 0.9242 0.9327 0.9637 0.9909 1.0713
2247.259 1.0714 0.9959 0.9594 1.0247 1.0761 1.0314 1.0335 1.0858 1.115 1.2076
2266.549 1.2394 1.1666 1.1335 1.2021 1.241 1.242 1.3012 1.341 1.391 1.491
2285.839 1.571 1.621 1.771 1.821 1.791 1.811 1.831 1.801 1.741 1.771
2305.129 1.811 1.801 1.781 1.761 1.701 1.581 1.491 1.471 1.451 1.441
2324.418 1.421 1.341 1.2677 1.215 1.2118 1.2391 1.2283 1.1525 1.0826 0.9901
2343.708 0.9758 0.981 0.9611 0.992 0.9517 0.9041 0.9242 0.8982 0.8682 0.8848
2362.998 0.9094 0.8985 0.8861 1.006 1.0393 0.9554 0.9405 0.8941 0.9127 0.9465
2382.288 0.8534 0.7829 0.8776 0.9406 0.9066 0.8993 0.8249 0.8091 0.8197 0.886
2401.578 0.9416 0.8867 0.8519 0.8299 0.8403 0.8811 0.9355 1.0247 1.0088 1.0153
2420.867 1.0296 0.9117 0.935 0.9928 1.011 0.9523 0.8728 0.8862 0.9187 0.947
2440.157 0.9761 1.001 0.9447 0.8945 0.8339 0.8267 0.8462 0.8158 0.8542 0.8671
2459.447 0.8372 0.8079 0.7164 0.6815 0.7001 0.692 0.6623 0.615 0.6441 0.6608
2478.737 0.6222 0.6017 0.6202 0.6433 0.6504 0.7405 0.7222 0.6073 0.6102 0.6552
2498.026 0.699 0.7175 0.6585 0.6026 0.6114 0.6706 0.6863 0.6255 0.6607 0.6746
2517.316 0.6146 0.5409 0.5963 0.711 0.5816 0.5504 0.5723 0.533 0.5678 0.5442
2536.606 0.5495 0.6273 0.6347 0.6593 0.6561 0.6757 0.6518 0.5263 0.5927 0.5529
2555.896 0.4798 0.514 0.5212 0.5147 0.5333 0.5265 0.4755 0.4641 0.4377 0.4719
2575.186 0.4899 0.5323 0.4956 0.465 0.4721 0.4174 0.4901 0.5445 0.4928 0.5067
2594.475 0.4951 0.532 0.6529 0.6138 0.6056 0.5745 0.5621 0.6172 0.645 0.6886
2613.765 0.6213 0.6082 0.7152 0.7569 0.7296 0.6922 0.6831 0.666 0.6691 0.642
2633.055 0.6483 0.684 0.6677 0.6976 0.6976 0.6451 0.6241 0.5397 0.5343 0.625
2652.345 0.6219 0.544 0.462 0.4605 0.4546 0.42092 0.48 0.5427 0.5202 0.5309
2671.634 0.5338 0.4927 0.5206 0.5221 0.4569 0.5156 0.6354 0.5659 0.4755 0.5016
2690.924 0.5762 0.6048 0.5572 0.5487 0.6592 0.7292 0.6902 0.654 0.6531 0.6854
2710.214 0.6113 0.5885 0.5584 0.589 0.673 0.5985 0.4906 0.5002 0.6213 0.5652
2729.504 0.4616 0.4509 0.4991 0.5145 0.5084 0.5498 0.5104 0.574 0.6283 0.5255
2748.794 0.4399 0.41513 0.4462 0.4452 0.4629 0.5368 0.6144 0.5412 0.5269 0.6324
2768.083 0.6529 0.6966 0.7674 0.7086 0.6887 0.8003 0.8318 0.7355 0.6245 0.5886
2787.373 0.6326 0.7427 0.6983 0.72 0.7316 0.6657 0.6998 0.6961 0.7341 0.8266
2806.663 0.9336 0.9069 0.8296 0.9233 0.8863 0.9382 1.0361 0.9816 1.0218 1.0379
2825.953 1.0653 1.0489 0.9576 0.8895 0.9162 0.9728 1.0264 1.1307 1.1646 1.2024
2845.242 1.2959 1.341 1.491 1.661 1.771 1.981 2.271 2.751 3.461 4.491
2864.532 6.061 8.191 10.941 14.191 17.571 20.651 23.001 24.491 25.681 26.631
2883.822 25.511 22.561 19.841 17.381 14.601 11.751 9.421 7.781 6.781 6.341
2903.112 6.341 6.831 7.711 8.631 9.651 10.841 11.911 13.181 14.581 15.501
2922.401 15.991 16.831 18.251 20.051 22.151 24.511 27.071 29.671 32.391 34.841
2941.691 37.191 40.441 44.521 46.021 43.651 41.841 43.071 46.301 50.071 53.001
2960.981 54.901 57.401 62.881 67.181 64.141 60.331 59.851 57.801 52.871 46.651
2980.271 40.461 34.951 30.041 25.141 20.311 15.781 11.741 8.401 6.041 4.541
2999.561 3.591 2.951 2.561 2.341 2.121 1.931 1.851 1.751 1.601 1.581
3018.850 1.551 1.521 1.451 1.321 1.2439 1.1773 1.0943 1.1084 1.2335 1.351
3038.140 1.511 1.651 1.891 2.191 2.501 3.041 3.861 4.871 6.011 7.301
3057.430 8.551 9.621 10.671 11.851 13.281 14.031 12.521 9.971 8.481 7.651
3076.720 6.601 5.291 4.041 3.051 2.241 1.641 1.3135 1.0569 0.8294 0.7718
3096.009 0.7167 0.643 0.6688 0.7825 0.8225 0.7362 0.6835 0.7567 0.7708 0.7063
3115.299 0.6939 0.7191 0.6334 0.6632 0.7283 0.6703 0.6897 0.6078 0.6068 0.6233
3134.589 0.5745 0.6465 0.5541 0.541 0.6723 0.6165 0.5272 0.4583 0.438 0.4909
3153.879 0.5305 0.4621 0.416 0.5384 0.6198 0.7154 0.8365 0.679 0.5703 0.6294
3173.169 0.7332 0.8449 0.9797 0.9285 0.8545 0.8467 0.8279 0.8349 0.8047 0.8045
3192.458 0.7393 0.7405 0.8047 0.6633 0.6319 0.7709 0.7046 0.586 0.5228 0.5185
3211.748 0.576 0.6586 0.5914 0.563 0.5161 0.5641 0.5502 0.37894 0.2901 0.108
3231.038 0.205 0.3008 0.3617 0.4499 0.2733 0.116 0.108 0.215 0.251 0.2269
3250.328 0.27 0.2284 0.126 0.177 0.2279 0.211 0.244 0.2525 0.2614 0.3098
3269.617 0.33775 0.2762 0.2956 0.323128 0.2261 0.2513 0.2623 0.34858 0.5314 0.5272
3288.907 0.38371 0.4619 0.4569 0.2972 0.2338 0.168 0.2688 0.2814 0.193 0.179
3308.197 0.188 0.2464 0.206 0.208 0.2593 0.38537 0.4911 0.37655 0.2807 0.40887
3327.487 0.5073 0.36191 0.33752 0.37576 0.32328 0.3017 0.2742 0.3424 0.2715 0.181
3346.777 0.37372 0.41237 0.36851 0.2472 0.2438 0.39112 0.33512 0.2684 0.2566 0.2855
3366.066 0.2325 0.3089 0.2776 0.215 0.2284 0.127 0.217 0.39217 0.3382 0.2554
3385.356 0.323423 0.2962 0.2898 0.2936 0.31196 0.33325 0.2589 0.2404 0.2729 0.3049
3404.646 0.2771 0.328722 0.3005 0.35125 0.35701 0.2937 0.33395 0.182 0.12 0.131
3423.936 0.2395 0.2385 0.2228 0.3052 0.321207 0.2964 0.234 0.218 0.27 0.2627
3443.225 0.2296 0.211 0.08 0 0.163 0.2535 0.31477 0.2523 0.128 0.162
3462.515 0.2473 0.3088 0.2633 0.18 0.2947 0.4742 0.5337 0.4737 0.39777 0.4569
3481.805 0.38621 0.294 0.35265 0.37183 0.268 0.151 0.21 0.2978 0.2709 0.35473
3501.095 0.3154 0.324754 0.5052 0.4749 0.34607 0.38806 0.39035 0.2833 0.38607 0.5532
3520.385 0.4673 0.36283 0.37036 0.327736 0.173 0.131 0.2817 0.4393 0.4532 0.41878
3539.674 0.5625 0.5921 0.5578 0.5881 0.4586 0.468 0.6072 0.6681 0.6075 0.6438
3558.964 0.7026 0.7034 0.8163 0.9536 0.9993 0.9902 1.0265 1.2148 1.2643 1.1931
3578.254 1.341 1.511 1.651 1.671 1.591 1.541 1.711 1.731 1.601 1.631
3597.544 1.691 1.701 1.771 1.921 1.831 1.671 1.931 2.111 2.021 2.121
3616.833 2.301 2.431 2.521 2.611 2.531 2.551 2.761 3.071 3.141 3.181
3636.123 3.221 3.271 3.451 3.471 3.431 3.421 3.381 3.321 3.291 3.221
3655.413 3.181 3.211 3.111 2.841 2.751 2.601 2.321 2.271 2.261 2.141
3674.703 1.921 1.781 1.751 1.761 1.561 1.3104 1.2988 1.249 1.1484 1.0729
3693.993 1.0869 1.138 1.1358 1.1157 1.0867 1.0637 1.008 0.998 1.1184 1.1086
3713.282 1.0567 1.0637 0.9977 0.9209 0.8348 0.8254 0.9602 1.0015 0.9146 0.7928
3732.572 0.8179 0.9703 0.9612 0.8707 0.8417 0.7942 0.6537 0.6521 0.7003 0.6695
3751.862 0.6795 0.6702 0.6219 0.749 0.8779 0.7859 0.6908 0.5343 0.59 0.6363
3771.152 0.6026 0.6946 0.6388 0.6079 0.5223 0.4691 0.5964 0.6351 0.6723 0.7057
3790.441 0.701 0.52 0.36224 0.41213 0.4873 0.5553 0.4775 0.5434 0.6504 0.6092
3809.731 0.495 0.5071 0.4571 0.33918 0.5432 0.5992 0.4447 0.513 0.5538 0.37214
3829.021 0.40619 0.39132 0.33569 0.4976 0.41116 0.32752 0.4271 0.4633 0.5354 0.6403
3848.311 0.5185 0.189 0.154 0.154 0.144 0.37388 0.4256 0.4042 0.41961 0.4274
3867.601 0.34565 0.3047 0.198 0.089 0.34934 0.6234 0.6058 0.4281 0.35761 0.34369
3886.890 0.31164 0.2767 0.31159 0.4218 0.3049 0.3691 0.4521 0.3773 0.31269 0.2287
3906.180 0.22 0.195 0.2482 0.37487 0.41065 0.38819 0.4317 0.40655 0.2403 0.146
3925.470 0.2491 0.2959 0.35892 0.475 0.39543 0.3059 0.3915 0.5391 0.5588 0.4748
3944.760 0.5526 0.6361 0.6763 0.8366 0.8252 0.7769 0.8319 0.6808 0.6394 0.7255
3964.049 0.6377 0.4791 0.5621 0.6276 0.5997 0.593 0.4497 0.41909 0.6482 0.8526
3983.339 0.767 0.7242 0.691 0.5852 0.6993 0.7001 0.5717 0.5171 0.5354 0.4981
##END=
