##TITLE=2-Methylundecanoic acid
##JCAMP-DX=4.24
##DATA TYPE=INFRARED SPECTRUM
##ORIGIN=NIST Mass Spectrometry Data Center
##OWNER=NIST Standard Reference Data Program
Collection (C) 2018 copyright by the U.S. Secretary of Commerce
on behalf of the United States of America. All rights reserved.
##CAS REGISTRY NO=24323-25-9
##MOLFORM=C 12 H 24 O 2
##$NIST SOURCE=MSDC-IR
##SPECTROMETER/DATA SYSTEM=HP-GC/MS/IRD
##STATE=gas
##XUNITS=1/CM
##YUNITS=ABSORBANCE
##XFACTOR=1.0
##YFACTOR=0.000001300
##DELTAX=4.0
##FIRSTX=550.0
##LASTX=3846.0
##FIRSTY=0.001920
##MAXX=3846
##MINX=550
##MAXY=0.013
##MINY=0
##NPOINTS=825
##XYDATA=(X++(Y..Y))
550.0 1477 1196 1041 1176 1221 1318 1422 1496 1627 1671
590.0 1590 1496 1378 1245 1121 1073 1043 952 852 716
630.0 607 502 399 326 260 221 203 191 165 199
670.0 216 165 166 187 183 186 175 194 231 277
710.0 366 418 441 441 424 431 437 456 488 504
750.0 501 513 501 462 438 404 384 375 347 310
790.0 289 272 243 219 175 162 151 129 110 97
830.0 108 93 69 64 65 72 80 88 88 93
870.0 84 77 84 83 66 65 90 100 105 85
910.0 74 76 78 84 75 65 46 19 6 20
950.0 36 36 45 66 81 85 88 117 142 177
990.0 230 265 318 369 408 442 471 510 547 573
1030.0 615 669 741 828 907 986 1057 1165 1302 1397
1070.0 1536 1740 1941 2197 2484 2776 3095 3377 3587 3669
1110.0 3577 3385 3162 2919 2701 2530 2403 2277 2168 2058
1150.0 1931 1806 1672 1555 1500 1427 1338 1267 1176 1097
1190.0 1004 879 753 661 598 539 493 445 389 347
1230.0 319 301 297 273 248 255 275 296 321 340
1270.0 364 388 416 424 435 469 500 521 526 531
1310.0 528 498 469 447 444 465 491 513 537 579
1350.0 629 647 649 670 669 679 703 731 765 756
1390.0 707 627 540 457 391 347 327 297 284 292
1430.0 310 354 438 551 675 826 1015 1157 1225 1206
1470.0 1072 850 625 451 320 238 194 168 142 126
1510.0 109 105 103 88 76 69 60 53 60 62
1550.0 46 35 38 42 46 44 34 43 47 45
1590.0 45 37 37 48 50 39 30 35 47 53
1630.0 58 57 45 37 46 61 66 64 58 64
1670.0 79 93 102 120 134 133 145 181 221 266
1710.0 312 381 482 613 787 977 1192 1453 1747 2095
1750.0 2547 3124 3910 4980 6135 6907 6777 5771 4484 3417
1790.0 2679 2158 1743 1377 1062 809 605 462 374 300
1830.0 241 209 175 149 126 112 112 93 77 80
1870.0 74 68 66 63 57 51 41 48 62 43
1910.0 34 41 38 35 25 19 31 32 26 27
1950.0 26 28 31 20 16 22 24 18 11 21
1990.0 25 7 0 8 12 19 26 29 26 25
2030.0 37 39 30 26 20 25 32 25 24 27
2070.0 23 15 8 11 18 18 15 14 17 8
2110.0 8 15 13 17 17 12 6 12 22 32
2150.0 31 27 30 35 31 34 37 32 37 42
2190.0 34 27 37 44 43 40 35 34 38 43
2230.0 45 40 26 11 14 23 23 40 34 22
2270.0 21 26 37 33 27 33 38 33 38 49
2310.0 58 64 76 80 79 85 85 83 80 71
2350.0 66 76 89 96 96 83 68 53 42 30
2390.0 25 33 24 19 24 24 33 47 39 19
2430.0 16 15 11 7 10 19 20 18 18 22
2470.0 29 33 29 27 30 28 23 20 30 32
2510.0 30 34 41 45 35 40 41 36 48 44
2550.0 38 49 48 47 61 63 53 49 57 61
2590.0 57 54 66 66 62 65 66 73 74 81
2630.0 85 95 111 97 78 81 92 106 107 111
2670.0 109 107 97 104 117 110 116 104 109 109
2710.0 90 103 113 117 130 140 146 144 140 145
2750.0 164 156 144 149 149 146 159 177 197 222
2790.0 250 273 285 299 330 362 395 435 488 556
2830.0 633 719 844 1033 1334 1786 2385 3061 3595 3768
2870.0 3616 3300 3000 2802 2680 2596 2574 2674 2935 3366
2910.0 3918 4648 5648 6957 8411 9561 10000 9689 8808 7623
2950.0 6406 5385 4702 4339 4152 3905 3525 3147 2853 2550
2990.0 2120 1642 1241 947 748 611 522 478 427 384
3030.0 356 323 286 285 276 238 227 236 228 206
3070.0 187 164 144 147 143 147 151 132 132 147
3110.0 160 153 139 129 150 152 132 126 111 87
3150.0 83 100 96 90 107 101 83 97 108 97
3190.0 81 81 91 90 84 85 84 65 72 85
3230.0 75 74 70 53 40 39 36 35 43 51
3270.0 57 63 57 42 42 40 35 35 41 49
3310.0 41 41 29 14 24 38 49 51 39 32
3350.0 40 46 64 54 30 26 27 40 55 39
3390.0 16 24 27 43 51 30 41 44 29 17
3430.0 29 35 23 24 40 39 41 44 41 53
3470.0 50 54 61 57 77 86 71 59 57 88
3510.0 106 94 95 94 103 137 174 191 223 257
3550.0 312 450 695 1081 1652 2225 2446 2113 1420 852
3590.0 527 350 252 166 114 95 100 98 73 75
3630.0 87 74 66 57 68 69 24 16 53 57
3670.0 55 47 9 13 36 54 49 25 30 42
3710.0 28 21 28 37 32 34 74 71 61 62
3750.0 43 26 33 41 37 34 38 48 50 37
3790.0 30 31 27 35 51 37 47 54 38 36
3830.0 53 76 70 48 24
##END=
