##TITLE=n-Tricosanoic acid
##JCAMP-DX=4.24
##DATA TYPE=INFRARED SPECTRUM
##ORIGIN=EPA-IR VAPOR PHASE LIBRARY
##OWNER=SRD/NIST
Collection (C) 2018 copyright by the U.S. Secretary of Commerce
on behalf of the United States of America. All rights reserved.
##CAS REGISTRY NO=2433-96-7
##MOLFORM=C 23 H 46 O 2
##$NIST SOURCE=MSDC-IR
##STATE=gas
##XUNITS=1/CM
##YUNITS=ABSORBANCE
##XFACTOR=1.
##YFACTOR=0.001
##DELTAX=1.92898
##FIRSTX=549.8
##LASTX=4000.7
##FIRSTY=2.435
##MAXX=4000.7
##MINX=549.759
##MAXY=0.069365
##MINY=0
##NPOINTS=1790
##XYDATA=(X++(Y..Y))
549.759 2.435 2.465 2.445 3.005 2.235 1.945 2.735 2.685 2.165 1.895
569.049 1.995 2.005 2.165 2.285 2.085 2.215 2.275 2.345 2.575 2.575
588.339 2.505 2.275 1.675 1.895 2.375 2.095 2.085 2.525 2.645 2.485
607.628 2.645 2.805 2.745 2.865 2.695 2.745 2.875 2.435 2.445 2.465
626.918 2.595 2.825 2.375 2.225 2.415 2.255 2.195 2.125 2.095 2.125
646.208 1.785 1.425 1.335 1.245 1.0837 0.8176 0.782 0.8929 1.0325 1.275
665.498 1.0293 0.8795 0.9998 0.9105 0.9884 1.265 1.195 1.0205 0.9211 0.903
684.787 1.0779 1.1097 1.0811 1.0451 1.0038 1.0779 1.285 1.245 1.295 1.525
704.077 1.525 1.745 1.785 1.775 1.815 1.855 1.895 1.765 1.805 1.925
723.367 1.625 1.275 1.425 1.505 1.745 1.775 1.515 1.215 1.1814 1.148
742.657 1.185 1.295 1.0583 0.9374 0.8714 0.7721 0.908 1.215 1.1589 0.8611
761.947 0.7832 0.9269 0.8449 0.731 0.6239 0.3956 0.5842 0.9597 0.9724 0.8661
781.236 0.8363 0.8293 0.6071 0.6295 0.7876 0.683 0.574 0.3873 0.3186 0.27889
800.526 0.2991 0.5157 0.583 0.4853 0.5091 0.4672 0.3245 0.3357 0.5335 0.5832
819.816 0.3431 0.4375 0.6195 0.5735 0.3942 0.28235 0.4527 0.6032 0.53 0.4161
839.106 0.3124 0.013 0.063 0.4412 0.6594 0.5604 0.3981 0.4969 0.5655 0.3311
858.395 0.054 0.3207 0.5359 0.4224 0.6943 0.7582 0.5597 0.7724 0.4899 0.3377
877.685 0.6559 0.7168 0.6331 0.5027 0.5511 0.6914 0.8713 0.7569 0.783 0.9401
896.975 0.8751 0.6741 0.4514 0.4395 0.6006 0.7504 0.616 0.539 0.4548 0.4887
916.265 0.5084 0.4628 0.5248 0.3933 0.4244 0.6747 0.6646 0.5984 0.6488 0.359
935.555 0.4628 0.659 0.4844 0.4778 0.4042 0.6138 0.7865 0.5228 0.5392 0.6907
954.844 0.5237 0.438 0.185821 0 0.23658 0.434 0.6514 0.7378 0.5445 0.1718
974.134 0.3201 0.8603 0.6673 0.6083 0.6995 0.6218 0.75 0.5362 0.4992 0.6681
993.424 0.7147 0.781 0.7605 1.0123 1.195 0.8641 0.62 0.7429 0.8265 0.7331
1012.714 1.0514 1.205 1.0995 1.475 1.795 1.465 0.9351 1.315 1.685 1.265
1032.003 1.535 1.345 1.0914 1.585 1.725 1.905 1.885 1.885 2.055 2.305
1051.293 2.595 2.285 2.345 2.505 2.415 2.785 2.735 2.725 3.045 3.395
1070.583 3.205 2.875 3.555 3.725 3.695 4.835 5.005 4.565 5.365 5.325
1089.873 5.045 5.135 5.075 5.405 5.795 6.285 7.015 7.755 7.485 7.065
1109.163 7.165 7.215 7.345 7.905 7.985 7.285 6.815 6.565 6.975 8.145
1128.452 7.895 6.715 6.605 6.365 6.055 6.855 7.425 6.925 6.335 5.455
1147.742 5.525 5.715 4.795 4.725 4.815 4.715 5.065 4.355 3.795 3.865
1167.032 3.575 3.205 3.415 3.505 2.825 2.645 2.265 2.505 2.905 2.585
1186.322 2.085 2.145 3.155 2.935 2.485 1.885 1.225 1.815 2.215 2.595
1205.611 2.005 0.6977 0.9643 1.675 1.935 1.745 1.405 1.535 0.6792 0.051
1224.901 0.9008 1.545 1.325 1.475 1.665 1.515 1.755 1.845 1.445 0.9904
1244.191 1.1226 1.235 1.1288 1.555 1.815 1.455 1.235 1.405 1.375 1.425
1263.481 1.855 1.775 1.825 1.825 1.445 1.595 1.845 1.775 1.605 1.505
1282.771 1.505 1.645 1.715 1.865 1.995 2.005 2.025 2.095 2.055 1.995
1302.060 2.115 2.095 2.025 2.005 1.975 1.995 2.015 1.875 1.795 1.915
1321.350 1.825 1.825 1.855 1.875 1.965 2.065 2.195 2.235 2.355 2.515
1340.640 2.635 2.775 2.945 3.075 3.215 3.345 3.365 3.325 3.275 3.235
1359.930 3.215 3.275 3.275 3.275 3.305 3.285 3.315 3.205 3.055 3.045
1379.219 3.075 3.005 2.805 2.685 2.615 2.575 2.455 2.185 2.045 1.925
1398.509 1.785 1.735 1.675 1.655 1.535 1.425 1.425 1.425 1.385 1.345
1417.799 1.485 1.605 1.555 1.665 1.705 1.625 1.705 1.835 2.025 2.195
1437.089 2.295 2.545 2.705 2.895 3.215 3.525 3.775 3.945 4.195 4.515
1456.378 4.865 5.135 5.245 5.155 4.955 4.635 4.245 3.855 3.455 3.035
1475.668 2.645 2.265 1.965 1.735 1.515 1.275 1.185 1.195 1.0897 0.95
1494.958 0.8154 0.8955 0.9658 0.8043 0.755 0.8327 0.9109 0.8364 0.7466 0.775
1514.248 0.8088 0.802 0.7063 0.6261 0.6373 0.5466 0.5013 0.5577 0.496 0.4393
1533.538 0.369 0.5086 0.6365 0.5426 0.4511 0.3766 0.4065 0.508 0.5979 0.607
1552.827 0.5381 0.5269 0.4901 0.5051 0.4986 0.4345 0.3806 0.3008 0.3326 0.3201
1572.117 0.23436 0.26399 0.319 0.312 0.3472 0.297 0.24679 0.3027 0.348 0.4098
1591.407 0.3944 0.363 0.3914 0.315 0.3225 0.4046 0.4015 0.4944 0.3447 0.1193
1610.697 0.3675 0.4364 0.3558 0.4044 0.4529 0.541 0.5643 0.455 0.2963 0.25218
1629.986 0.25251 0.3498 0.4852 0.4983 0.4064 0.3174 0.3714 0.4675 0.4052 0.3097
1649.276 0.321 0.378 0.4151 0.3956 0.354 0.342 0.3779 0.4116 0.4421 0.4241
1668.566 0.3662 0.4212 0.5284 0.4922 0.4638 0.4398 0.3043 0.2866 0.402 0.5052
1687.856 0.5586 0.48 0.4603 0.496 0.5429 0.6398 0.6881 0.7047 0.6717 0.7596
1707.146 0.7969 0.9 1.0343 0.9767 0.9808 1.136 1.275 1.315 1.385 1.715
1726.435 1.955 1.935 2.155 2.415 2.585 2.835 3.125 3.445 3.915 4.335
1745.725 4.665 5.135 5.645 6.085 6.525 7.145 7.735 8.405 9.265 10.075
1765.015 10.915 11.915 12.985 13.875 14.615 15.205 15.455 15.345 14.785 13.815
1784.305 12.735 11.705 10.695 9.705 8.845 8.115 7.395 6.705 6.065 5.455
1803.594 4.915 4.355 3.795 3.355 2.985 2.685 2.385 2.085 1.925 1.735
1822.884 1.435 1.225 1.1736 1.0883 1.0219 0.8664 0.7146 0.7653 0.8265 0.8135
1842.174 0.7483 0.6516 0.5961 0.6008 0.5289 0.4276 0.4446 0.5088 0.4793 0.4303
1861.464 0.3638 0.4173 0.5463 0.4328 0.4247 0.4241 0.4221 0.4661 0.3828 0.3708
1880.754 0.4284 0.4584 0.4399 0.4795 0.4061 0.3663 0.3679 0.3198 0.3619 0.4
1900.043 0.3701 0.3878 0.4015 0.3912 0.4049 0.4248 0.4202 0.3453 0.3015 0.349
1919.333 0.4242 0.3836 0.4083 0.3824 0.3738 0.39 0.21442 0.1706 0.3154 0.3563
1938.623 0.314 0.27996 0.3473 0.3926 0.296 0.27029 0.3709 0.4112 0.3541 0.3648
1957.913 0.3407 0.25916 0.2669 0.2945 0.2508 0.25878 0.28318 0.3285 0.3859 0.3144
1977.202 0.2866 0.24 0.1422 0.1348 0.1388 0.21184 0.2916 0.3092 0.3381 0.3429
1996.492 0.38 0.4166 0.4803 0.4968 0.441 0.4312 0.4419 0.4424 0.4633 0.4567
2015.782 0.402 0.3988 0.3653 0.3615 0.3895 0.3187 0.28059 0.3116 0.3464 0.4395
2035.072 0.4714 0.4719 0.488 0.4946 0.4543 0.4353 0.4203 0.3364 0.3176 0.3942
2054.362 0.3805 0.25902 0.2858 0.3792 0.3959 0.4301 0.4536 0.4657 0.4458 0.3033
2073.651 0.27032 0.3721 0.3213 0.304 0.3659 0.3339 0.3644 0.3577 0.3404 0.3706
2092.941 0.2974 0.28074 0.3414 0.27687 0.2988 0.3415 0.3642 0.3906 0.4026 0.4363
2112.231 0.3903 0.421 0.3223 0.19679 0.3001 0.3567 0.4252 0.4756 0.3635 0.3651
2131.521 0.4 0.3583 0.3381 0.3216 0.3295 0.3122 0.2327 0.26197 0.4295 0.3979
2150.810 0.27875 0.4472 0.5362 0.4294 0.3795 0.3843 0.37 0.3939 0.3415 0.2897
2170.100 0.2962 0.2897 0.3361 0.3465 0.3174 0.4345 0.4746 0.3676 0.3785 0.3823
2189.390 0.4166 0.3967 0.4439 0.4749 0.4811 0.5095 0.4398 0.3572 0.3345 0.48
2208.680 0.4733 0.3268 0.3401 0.3771 0.3948 0.3828 0.3794 0.359 0.3635 0.4554
2227.970 0.4575 0.5204 0.5263 0.4963 0.4719 0.3966 0.4091 0.4328 0.4545 0.4481
2247.259 0.4878 0.5527 0.4277 0.3213 0.429 0.4946 0.4087 0.3973 0.4265 0.3582
2266.549 0.3526 0.3463 0.3724 0.3522 0.3557 0.4375 0.4615 0.4697 0.3656 0.3597
2285.839 0.3263 0.304 0.4176 0.2879 0.28415 0.3581 0.324 0.3866 0.4149 0.4237
2305.129 0.4122 0.4055 0.4094 0.4087 0.4913 0.4689 0.3617 0.4512 0.4265 0.2988
2324.418 0.3906 0.469 0.4252 0.4683 0.522 0.4609 0.3907 0.3783 0.4066 0.3813
2343.708 0.3277 0.287 0.28099 0.4114 0.4291 0.4291 0.4985 0.4356 0.432 0.3058
2362.998 0.3062 0.4763 0.4982 0.4707 0.3881 0.3335 0.3478 0.4154 0.3914 0.3818
2382.288 0.3673 0.3249 0.3432 0.355 0.3798 0.39 0.4396 0.4418 0.3939 0.425
2401.578 0.4844 0.4677 0.4413 0.4043 0.3031 0.2877 0.2945 0.4778 0.5373 0.3661
2420.867 0.4125 0.4257 0.4117 0.4727 0.5308 0.5114 0.4055 0.3128 0.4273 0.5279
2440.157 0.3689 0.2939 0.3134 0.3069 0.3338 0.3789 0.4085 0.3675 0.3119 0.4031
2459.447 0.371 0.3376 0.3767 0.4418 0.4901 0.4662 0.5007 0.3224 0.23241 0.3347
2478.737 0.3644 0.3701 0.3279 0.301 0.2854 0.2939 0.3748 0.3958 0.3984 0.4522
2498.026 0.4951 0.5155 0.4732 0.4846 0.4889 0.4401 0.508 0.5093 0.413 0.4061
2517.316 0.4139 0.5101 0.5559 0.5234 0.4513 0.4027 0.3995 0.3659 0.4886 0.5347
2536.606 0.5066 0.4474 0.4087 0.5113 0.5024 0.4885 0.5232 0.492 0.4291 0.4889
2555.896 0.554 0.4532 0.4075 0.4907 0.6078 0.6305 0.4948 0.3835 0.3476 0.3965
2575.186 0.4614 0.5006 0.541 0.5724 0.5399 0.5055 0.4403 0.428 0.6143 0.6356
2594.475 0.612 0.639 0.6387 0.5385 0.4483 0.5729 0.5922 0.611 0.7437 0.6643
2613.765 0.5363 0.624 0.7062 0.7455 0.6665 0.5967 0.6994 0.7059 0.7765 0.8361
2633.055 0.7632 0.7306 0.7818 0.7365 0.7415 0.663 0.6578 0.7893 0.7624 0.9037
2652.345 0.9785 0.9346 0.9337 0.9534 0.9455 0.9306 0.8956 0.8617 0.8221 0.7772
2671.634 0.8139 0.8765 0.9726 0.9006 0.8137 0.7914 0.8467 0.8418 0.8013 0.9362
2690.924 0.8843 0.7363 0.8044 0.9173 0.9086 0.8449 0.8994 0.9723 0.9537 0.9088
2710.214 0.9226 0.8818 0.7901 0.7552 0.9763 0.9948 0.9106 0.9444 0.8333 0.7853
2729.504 0.8584 0.9678 0.9305 0.8918 0.9735 1.0203 1.0131 0.9324 0.81 0.8648
2748.794 0.8942 0.7799 0.7126 0.8682 0.9559 0.9787 1.0881 1.0278 0.953 1.0503
2768.083 1.0831 1.1387 1.185 1.225 1.315 1.345 1.435 1.365 1.265 1.265
2787.373 1.295 1.395 1.525 1.545 1.585 1.625 1.585 1.805 2.065 2.035
2806.663 2.005 2.075 2.075 2.195 2.275 2.365 2.465 2.605 2.735 2.795
2825.953 2.975 3.275 3.595 3.775 3.935 4.105 4.425 4.945 5.575 6.375
2845.242 7.335 8.555 10.305 12.405 14.925 17.885 20.975 23.585 25.215 25.815
2864.532 25.195 23.725 21.865 19.725 17.755 16.135 14.735 13.735 12.875 12.085
2883.822 11.665 11.365 11.215 11.185 11.265 11.455 11.765 12.575 13.685 14.885
2903.112 16.295 17.805 19.395 21.205 23.355 25.635 28.275 31.445 35.175 39.855
2922.401 45.345 51.565 58.105 64.015 68.065 69.365 68.225 64.715 59.595 53.775
2941.691 47.675 41.935 36.625 31.985 27.835 24.335 21.715 19.575 17.925 16.655
2960.981 15.535 14.915 14.285 13.415 12.645 11.585 10.425 9.335 8.305 7.485
2980.271 6.675 5.865 5.395 5.005 4.635 4.275 3.795 3.525 3.335 3.125
2999.561 2.965 2.895 2.725 2.315 2.205 2.165 1.935 1.905 1.955 1.985
3018.850 1.855 1.715 1.775 1.755 1.525 1.465 1.475 1.435 1.445 1.335
3038.140 1.315 1.365 1.355 1.255 1.0051 0.9851 1.0628 0.9724 0.9957 1.0584
3057.430 0.9445 0.8221 0.9227 0.8653 0.812 0.7821 0.6542 0.8173 0.935 0.7917
3076.720 0.7049 0.6527 0.5758 0.6664 0.6632 0.4665 0.5493 0.6005 0.5254 0.5802
3096.009 0.6442 0.7576 0.8373 0.8559 0.739 0.6486 0.4754 0.5182 0.7069 0.7371
3115.299 0.6803 0.3973 0.358 0.4248 0.4327 0.3952 0.3491 0.5489 0.5649 0.3204
3134.589 0.3593 0.4946 0.4927 0.3331 0.1559 0.3132 0.4988 0.5413 0.4247 0.3431
3153.879 0.4878 0.4267 0.27993 0.3119 0.3716 0.3287 0.3962 0.5362 0.5204 0.5484
3173.169 0.5155 0.3924 0.3165 0.3131 0.301 0.3266 0.4426 0.5695 0.5633 0.579
3192.458 0.5939 0.457 0.28251 0.2902 0.4651 0.5655 0.4537 0.3205 0.4669 0.5271
3211.748 0.5765 0.5254 0.3437 0.23067 0.1226 0.20965 0.527 0.673 0.641 0.4952
3231.038 0.3564 0.2875 0.24415 0.4064 0.3912 0.3197 0.3668 0.3897 0.4475 0.3656
3250.328 0.21835 0.1701 0.186623 0.26512 0.26443 0.3575 0.3929 0.3911 0.535 0.5473
3269.617 0.2999 0.20146 0.377 0.3832 0.4686 0.5111 0.3116 0.332 0.4799 0.4309
3288.907 0.3725 0.3438 0.2989 0.26833 0.1722 0.26778 0.5818 0.5956 0.5141 0.5433
3308.197 0.4191 0.4028 0.4437 0.3424 0.3164 0.1681 0.2864 0.4999 0.3819 0.3594
3327.487 0.4396 0.474 0.3945 0.4601 0.4767 0.3804 0.4458 0.5913 0.3444 0.1636
3346.777 0.2996 0.2998 0.3619 0.4008 0.27036 0.2133 0.2368 0.25519 0.3256 0.4099
3366.066 0.6044 0.719 0.5817 0.4932 0.5686 0.5258 0.3635 0.26855 0.3381 0.3628
3385.356 0.3871 0.519 0.4989 0.28027 0.1568 0.2553 0.445 0.3813 0.2949 0.3402
3404.646 0.3085 0.127 0.1065 0.3571 0.4316 0.27608 0.1506 0.23456 0.3603 0.3881
3423.936 0.26393 0.2221 0.3866 0.4059 0.3283 0.4559 0.5703 0.5211 0.4296 0.4242
3443.225 0.3889 0.3236 0.3063 0.22745 0.2961 0.4217 0.1295 0.072 0.3854 0.5792
3462.515 0.6384 0.4627 0.3448 0.4622 0.3503 0.21335 0.1533 0.287 0.3154 0.22029
3481.805 0.4219 0.4265 0.20867 0.24376 0.5034 0.4947 0.3483 0.3249 0.4831 0.3674
3501.095 0.2907 0.5506 0.4263 0.1379 0.1717 0.23042 0.3321 0.4116 0.542 0.6143
3520.385 0.5438 0.4935 0.3998 0.6232 0.6382 0.5989 0.6492 0.5166 0.5046 0.5231
3539.674 0.573 0.634 0.7116 0.8872 1.1495 1.0929 0.8313 0.9048 1.245 1.565
3558.964 1.805 2.015 2.275 2.895 3.675 4.455 5.345 6.265 6.555 6.375
3578.254 5.875 4.725 3.685 2.965 2.315 1.825 1.595 1.535 1.355 1.1787
3597.544 1.1797 0.8839 0.7197 0.6987 0.6287 0.5466 0.6392 0.7875 0.6714 0.721
3616.833 0.725 0.7458 0.818 0.7075 0.5418 0.4837 0.5254 0.5254 0.5165 0.4477
3636.123 0.3176 0.26682 0.3641 0.3576 0.402 0.5456 0.22908 0.25694 0.5176 0.3984
3655.413 0.3761 0.4486 0.4212 0.27845 0.3984 0.442 0.28264 0.23646 0.19715 0.1725
3674.703 0.23928 0.4144 0.5657 0.5864 0.5774 0.6093 0.613 0.4604 0.3941 0.4901
3693.993 0.3446 0.17507 0.2099 0.188849 0.3542 0.6379 0.5925 0.4814 0.4219 0.187346
3713.282 0.1474 0.3667 0.4115 0.4652 0.411 0.2935 0.4937 0.5108 0.3187 0.2751
3732.572 0.3518 0.4751 0.4372 0.3983 0.3464 0.6036 0.7195 0.4972 0.5667 0.5839
3751.862 0.4698 0.3881 0.4421 0.6264 0.7344 0.5859 0.3231 0.23158 0.3904 0.5129
3771.152 0.3846 0.3749 0.4746 0.3759 0.25429 0.3444 0.4391 0.3798 0.5835 0.7846
3790.441 0.7419 0.8046 0.6342 0.3236 0.25221 0.24114 0.3981 0.5533 0.3516 0.26103
3809.731 0.3124 0.27694 0.5479 0.7828 0.7073 0.5152 0.3561 0.5566 0.6362 0.22421
3829.021 0.3853 0.686 0.5045 0.4141 0.304 0.3829 0.4496 0.5522 0.7102 0.3804
3848.311 0.22954 0.3067 0.5416 0.6593 0.4567 0.5334 0.5487 0.4445 0.3927 0.3324
3867.601 0.3436 0.4036 0.3113 0.3716 0.5547 0.6582 0.5945 0.4545 0.6956 0.6795
3886.890 0.4143 0.3863 0.3692 0.3839 0.5211 0.3873 0.4108 0.8068 0.7984 0.4747
3906.180 0.3992 0.5747 0.6023 0.5796 0.481 0.3701 0.25142 0.3715 0.505 0.5721
3925.470 0.681 0.5821 0.3839 0.1514 0.2229 0.5488 0.6333 0.3533 0.2981 0.3541
3944.760 0.3909 0.5519 0.6563 0.6491 0.5107 0.6668 0.6751 0.4828 0.5398 0.5036
3964.049 0.3167 0.3606 0.6947 0.7294 0.5489 0.4254 0.5119 0.584 0.5155 0.26682
3983.339 0.079 0.20324 0.25204 0.394 0.6766 0.5669 0.3656 0.6369 0.7547 0.6222
##END=
