##TITLE=Dihydro-6-methyl-2,4(1H,3H)-pyrimidinedione
##JCAMP-DX=4.24
##DATA TYPE=INFRARED SPECTRUM
##ORIGIN=EPA-IR VAPOR PHASE LIBRARY
##OWNER=SRD/NIST
Collection (C) 2018 copyright by the U.S. Secretary of Commerce
on behalf of the United States of America. All rights reserved.
##CAS REGISTRY NO=2434-49-3
##MOLFORM=C 5 H 8 N 2 O 2
##$NIST SOURCE=MSDC-IR
##STATE=gas
##XUNITS=1/CM
##YUNITS=ABSORBANCE
##XFACTOR=1.
##YFACTOR=0.001
##DELTAX=1.92898
##FIRSTX=549.8
##LASTX=4000.7
##FIRSTY=2.486
##MAXX=4000.7
##MINX=549.759
##MAXY=0.091976
##MINY=0
##NPOINTS=1790
##XYDATA=(X++(Y..Y))
549.759 2.486 2.446 2.696 2.936 3.076 3.266 3.516 3.856 3.996 3.986
569.049 4.216 4.536 4.426 4.266 4.536 4.526 4.716 5.136 4.706 3.996
588.339 3.516 3.166 2.876 2.346 2.016 2.026 1.926 1.906 2.006 2.046
607.628 2.116 2.296 2.436 2.356 2.416 2.746 2.956 3.196 3.436 3.656
626.918 3.916 4.176 4.396 4.666 4.906 5.106 5.476 5.556 5.636 5.556
646.208 5.326 5.266 5.056 4.956 4.916 4.866 4.886 5.046 5.016 4.856
665.498 4.676 4.556 4.756 4.776 4.796 5.046 5.176 4.916 4.346 4.056
684.787 3.926 3.656 3.466 3.246 2.986 2.946 2.906 2.616 2.336 2.126
704.077 2.096 2.086 1.926 1.756 1.646 1.606 1.686 1.596 1.456 1.516
723.367 1.486 1.456 1.306 1.286 1.486 1.586 1.746 1.946 2.206 2.436
742.657 2.666 2.856 3.136 3.476 3.786 4.086 4.366 4.616 4.776 4.916
761.947 4.726 4.476 4.366 4.096 3.786 3.536 3.376 3.106 2.816 2.506
781.236 2.116 1.986 1.876 1.726 1.646 1.466 1.456 1.406 1.107 1.1594
800.526 1.246 1.1992 1.1537 1.1526 1.256 1.366 1.356 1.246 1.396 1.446
819.816 1.1029 1.1346 1.366 1.416 1.526 1.386 1.226 1.206 1.1658 1.246
839.106 1.226 1.1848 1.356 1.346 1.171 1.256 1.436 1.446 1.406 1.486
858.395 1.526 1.496 1.496 1.486 1.366 1.486 1.446 1.386 1.386 1.276
877.685 1.366 1.326 1.266 1.256 1.2043 1.1045 1.0652 1.086 1.1049 1.266
896.975 1.346 1.266 1.1714 1.1606 1.0698 1.0435 1.1916 1.1412 1.0789 1.0546
916.265 1.1248 1.216 1.266 1.296 1.226 1.0892 1.114 1.1842 1.256 1.356
935.555 1.336 1.256 1.286 1.356 1.246 1.346 1.406 1.216 1.1329 1.2052
954.844 1.1104 0.9957 1.0392 1.0124 0.9858 0.8678 0.8257 0.8975 0.8131 0.7354
974.134 0.6797 0.7103 0.9605 1.0787 1.0038 0.9987 1.1669 1.184 1.216 1.546
993.424 1.746 1.796 1.856 1.976 2.116 2.216 2.386 2.556 2.596 2.626
1012.714 2.676 2.596 2.366 2.336 2.026 1.536 1.486 1.546 1.396 1.366
1032.003 1.356 1.246 1.076 0.9787 1.1377 1.246 1.416 1.396 1.296 1.426
1051.293 1.446 1.426 1.286 1.266 1.426 1.446 1.536 1.666 1.886 1.876
1070.583 1.746 1.636 1.426 1.356 1.656 1.926 1.766 1.826 1.866 1.566
1089.873 1.396 1.456 1.666 1.826 1.856 1.586 1.336 1.366 1.226 1.356
1109.163 1.686 1.786 1.566 1.646 1.966 2.066 2.276 2.176 2.346 2.666
1128.452 2.486 2.606 2.536 2.576 2.906 2.836 3.006 3.266 3.206 3.186
1147.742 2.896 2.546 2.676 2.696 2.686 3.026 3.256 3.396 3.526 3.616
1167.032 4.016 4.536 4.566 4.416 5.006 5.496 6.056 6.846 7.226 7.816
1186.322 8.286 8.316 8.096 8.186 8.376 8.186 7.936 7.556 6.846 6.556
1205.611 6.106 5.216 4.536 3.996 3.766 3.716 3.596 3.366 3.456 3.516
1224.901 3.576 4.066 4.386 4.946 5.636 5.666 5.926 6.626 6.906 7.196
1244.191 7.656 7.956 8.356 8.846 8.986 8.916 9.016 9.116 8.966 8.926
1263.481 8.946 8.836 8.796 8.786 8.816 8.816 8.896 8.646 8.326 8.296
1282.771 8.206 8.066 7.816 7.596 7.346 7.086 6.806 6.376 5.926 5.536
1302.060 5.326 5.256 5.206 5.206 5.306 5.426 5.556 5.806 6.116 6.476
1321.350 6.836 7.176 7.606 8.036 8.536 9.056 9.486 9.946 10.486 10.996
1340.640 11.416 11.716 11.816 11.716 11.456 11.216 10.976 10.666 10.346 9.986
1359.930 9.656 9.426 9.246 9.166 9.216 9.286 9.346 9.416 9.586 9.826
1379.219 10.056 10.296 10.476 10.686 10.886 10.896 10.926 11.066 11.236 11.526
1398.509 11.876 12.256 12.626 12.976 13.316 13.606 13.876 14.126 14.456 14.766
1417.799 14.906 15.016 15.076 15.006 14.776 14.456 14.066 13.586 13.046 12.466
1437.089 11.856 11.176 10.366 9.556 8.786 8.046 7.416 6.906 6.356 5.866
1456.378 5.446 4.986 4.646 4.376 4.066 3.716 3.386 3.016 2.816 2.676
1475.668 2.456 2.276 2.116 1.966 1.806 1.656 1.596 1.536 1.476 1.416
1494.958 1.406 1.436 1.476 1.536 1.566 1.566 1.586 1.626 1.656 1.636
1514.248 1.576 1.526 1.536 1.526 1.496 1.426 1.306 1.226 1.1888 1.1395
1533.538 1.1223 1.1061 1.0714 1.0933 1.1047 1.0508 1.0047 0.9408 0.8717 0.8712
1552.827 0.912 0.9024 0.8886 0.8883 0.8494 0.8823 0.8444 0.8307 0.8779 0.8484
1572.117 0.8349 0.824 0.8755 0.8569 0.8236 0.8395 0.8195 0.8281 0.8367 0.7648
1591.407 0.7476 0.7945 0.7569 0.7867 0.7772 0.7216 0.7271 0.7978 0.8472 0.8071
1610.697 0.8776 1.0112 0.9903 1.0028 1.0563 1.1007 1.216 1.216 1.206 1.206
1629.986 1.216 1.236 1.216 1.246 1.386 1.416 1.346 1.336 1.356 1.336
1649.276 1.336 1.396 1.446 1.396 1.346 1.416 1.436 1.496 1.606 1.666
1668.566 1.786 1.906 2.066 2.256 2.416 2.626 2.816 2.996 3.306 3.596
1687.856 3.836 4.186 4.576 4.946 5.356 5.756 6.146 6.606 7.136 7.696
1707.146 8.186 8.806 9.596 10.406 11.296 12.386 13.646 15.136 16.936 19.096
1726.435 21.606 24.546 27.906 31.756 36.296 41.336 46.876 53.086 59.646 66.386
1745.725 72.966 78.936 83.986 87.976 90.706 91.976 91.836 90.456 87.676 83.456
1765.015 78.016 71.336 63.636 55.566 47.406 39.806 33.116 27.416 22.746 19.026
1784.305 16.106 13.706 11.766 10.256 9.066 8.026 7.116 6.386 5.836 5.316
1803.594 4.836 4.466 4.166 3.906 3.666 3.486 3.326 3.186 3.066 2.956
1822.884 2.856 2.786 2.736 2.646 2.566 2.526 2.506 2.476 2.436 2.356
1842.174 2.286 2.216 2.186 2.176 2.086 2.026 1.986 1.936 1.826 1.796
1861.464 1.816 1.746 1.696 1.706 1.626 1.636 1.666 1.576 1.476 1.496
1880.754 1.576 1.476 1.386 1.386 1.326 1.236 1.226 1.226 1.1709 1.1225
1900.043 1.0851 1.0519 1.0505 0.9998 0.9514 0.9176 0.8647 0.8649 0.8847 0.8266
1919.333 0.7805 0.7731 0.7891 0.7958 0.7398 0.7366 0.7611 0.7713 0.7543 0.7714
1938.623 0.7945 0.7744 0.7677 0.7834 0.7499 0.6675 0.6384 0.6981 0.7203 0.7094
1957.913 0.7194 0.6986 0.7385 0.7577 0.672 0.653 0.6986 0.7042 0.6872 0.7006
1977.202 0.6949 0.6566 0.6496 0.6543 0.6276 0.6323 0.6668 0.6537 0.6314 0.5364
1996.492 0.4901 0.5341 0.507 0.4707 0.4569 0.4964 0.4939 0.4321 0.4238 0.4229
2015.782 0.4376 0.4374 0.4399 0.4498 0.4573 0.5024 0.4887 0.4756 0.5353 0.5299
2035.072 0.4837 0.4448 0.4128 0.3939 0.4109 0.4684 0.4989 0.4688 0.4425 0.4306
2054.362 0.3893 0.4002 0.4466 0.4876 0.4941 0.4996 0.4778 0.4241 0.3965 0.4249
2073.651 0.4512 0.4272 0.433 0.4411 0.426 0.4388 0.4572 0.4097 0.3783 0.3718
2092.941 0.3831 0.4939 0.5465 0.5069 0.4781 0.4618 0.4433 0.4044 0.3735 0.3842
2112.231 0.3857 0.3973 0.415 0.4272 0.4217 0.4096 0.4122 0.3965 0.4042 0.3908
2131.521 0.3932 0.3629 0.3355 0.3942 0.4016 0.3921 0.4444 0.445 0.3553 0.3381
2150.810 0.3643 0.393 0.4188 0.3839 0.3756 0.402 0.4102 0.3686 0.3181 0.3764
2170.100 0.3984 0.3734 0.3936 0.3829 0.3577 0.3531 0.3577 0.3734 0.407 0.408
2189.390 0.38 0.3754 0.3819 0.3852 0.3177 0.27313 0.3113 0.3311 0.396 0.449
2208.680 0.4356 0.4282 0.4629 0.4396 0.4144 0.425 0.4286 0.3431 0.3106 0.3482
2227.970 0.3216 0.365 0.3901 0.3583 0.3091 0.30217 0.3476 0.3522 0.3832 0.3903
2247.259 0.3138 0.3543 0.4123 0.3131 0.26649 0.3504 0.3889 0.3574 0.3354 0.3401
2266.549 0.3194 0.3154 0.3502 0.3635 0.401 0.4127 0.3679 0.3647 0.4082 0.3967
2285.839 0.3604 0.3627 0.3591 0.3564 0.348 0.3799 0.4032 0.333 0.3727 0.4597
2305.129 0.4289 0.4024 0.4184 0.4431 0.4093 0.3556 0.3724 0.3821 0.372 0.3346
2324.418 0.3374 0.3123 0.28875 0.3346 0.3755 0.3535 0.3457 0.4045 0.4244 0.3795
2343.708 0.3259 0.3808 0.3724 0.28362 0.25927 0.24919 0.28007 0.3601 0.3671 0.3193
2362.998 0.29258 0.3502 0.3996 0.4116 0.4126 0.3509 0.3125 0.3582 0.4259 0.41
2382.288 0.4131 0.4278 0.3932 0.3709 0.4101 0.4143 0.431 0.4419 0.4258 0.3913
2401.578 0.3712 0.4314 0.5074 0.4846 0.3945 0.3817 0.39 0.3726 0.4221 0.4469
2420.867 0.4157 0.4567 0.4552 0.4018 0.4244 0.4476 0.4004 0.3855 0.4087 0.4388
2440.157 0.4478 0.4572 0.4139 0.3743 0.3666 0.3585 0.3928 0.421 0.4443 0.4183
2459.447 0.3744 0.3727 0.3921 0.4077 0.3515 0.3105 0.3576 0.3769 0.3673 0.3675
2478.737 0.3762 0.3912 0.3707 0.3791 0.3898 0.4125 0.3494 0.3378 0.4261 0.3664
2498.026 0.3417 0.3828 0.3326 0.3102 0.3228 0.26128 0.23331 0.27376 0.28578 0.3131
2517.316 0.3506 0.3403 0.3607 0.3235 0.25819 0.3268 0.3858 0.3674 0.3629 0.3723
2536.606 0.342 0.3175 0.3212 0.3458 0.3491 0.314 0.3288 0.30356 0.244 0.26191
2555.896 0.30093 0.30482 0.23143 0.28396 0.3755 0.379 0.4176 0.3821 0.3466 0.3701
2575.186 0.4023 0.3931 0.356 0.26629 0.27805 0.29319 0.26607 0.3145 0.3032 0.3504
2594.475 0.3948 0.30237 0.28616 0.3112 0.25082 0.29719 0.3411 0.2808 0.28291 0.4118
2613.765 0.4911 0.4576 0.3473 0.4011 0.4395 0.3324 0.3298 0.3118 0.27568 0.24964
2633.055 0.26932 0.32 0.373 0.4096 0.3632 0.3773 0.4157 0.4044 0.452 0.4448
2652.345 0.3585 0.3673 0.3886 0.391 0.4262 0.4327 0.3579 0.31 0.3413 0.27318
2671.634 0.25335 0.3666 0.3134 0.27798 0.3539 0.3343 0.3243 0.29877 0.3281 0.3883
2690.924 0.3649 0.3843 0.4505 0.4259 0.3235 0.3259 0.3865 0.3079 0.3545 0.3949
2710.214 0.3719 0.3964 0.4561 0.4328 0.3157 0.3148 0.29283 0.3334 0.4044 0.4493
2729.504 0.4653 0.4374 0.4153 0.3663 0.4267 0.5315 0.5167 0.4522 0.4323 0.3745
2748.794 0.4244 0.5733 0.5035 0.4316 0.4191 0.3906 0.4511 0.4425 0.4529 0.4483
2768.083 0.4283 0.4365 0.404 0.4648 0.4819 0.4873 0.4839 0.4188 0.454 0.501
2787.373 0.4375 0.4017 0.4564 0.5033 0.572 0.6671 0.5939 0.4884 0.4783 0.524
2806.663 0.488 0.4361 0.47 0.4772 0.4793 0.4788 0.5379 0.5657 0.5256 0.5203
2825.953 0.5036 0.5223 0.5978 0.6131 0.6072 0.6283 0.6287 0.6424 0.6462 0.5899
2845.242 0.6336 0.6849 0.669 0.6969 0.7634 0.8519 0.8635 0.9386 1.068 1.1819
2864.532 1.296 1.326 1.446 1.576 1.666 1.866 2.016 2.056 2.166 2.276
2883.822 2.156 2.106 2.096 1.976 1.916 1.876 1.746 1.656 1.666 1.676
2903.112 1.546 1.506 1.536 1.396 1.316 1.426 1.546 1.626 1.756 1.746
2922.401 1.656 1.716 1.786 1.796 1.916 2.046 2.116 2.186 2.266 2.206
2941.691 2.156 2.286 2.226 2.066 1.966 1.866 1.826 1.846 1.816 1.826
2960.981 1.926 2.146 2.456 2.866 3.276 3.616 4.036 4.556 5.076 5.156
2980.271 4.986 4.956 4.996 4.976 4.676 4.126 3.556 3.046 2.586 2.156
2999.561 1.776 1.366 1.147 1.0107 0.7492 0.6466 0.6203 0.5106 0.4678 0.5007
3018.850 0.5198 0.5388 0.5065 0.4873 0.4157 0.3171 0.3585 0.3927 0.3082 0.209081
3038.140 0.22299 0.3231 0.3839 0.28503 0.25238 0.25225 0.20362 0.28729 0.3736 0.3352
3057.430 0.29962 0.27673 0.23993 0.26404 0.27509 0.3085 0.2518 0.206468 0.23943 0.30423
3076.720 0.27983 0.2205 0.2853 0.3474 0.3194 0.3587 0.3981 0.3563 0.4321 0.5112
3096.009 0.5986 0.5406 0.479 0.5084 0.4441 0.3863 0.485 0.4746 0.3299 0.4432
3115.299 0.5275 0.5425 0.6564 0.5018 0.27176 0.30137 0.415 0.3945 0.3367 0.3975
3134.589 0.3948 0.4015 0.4522 0.4744 0.389 0.29994 0.3085 0.3565 0.3623 0.3462
3153.879 0.398 0.3874 0.328 0.25797 0.29425 0.3911 0.2878 0.14 0.26217 0.3833
3173.169 0.359 0.4137 0.364 0.314 0.3165 0.28973 0.25001 0.25492 0.26634 0.1942
3192.458 0.29231 0.3915 0.29534 0.27728 0.3164 0.3321 0.3677 0.3448 0.27 0.28077
3211.748 0.3347 0.30006 0.22749 0.24403 0.3207 0.25612 0.1372 0.1773 0.21854 0.2527
3231.038 0.28908 0.29517 0.2662 0.1786 0.209378 0.30572 0.313 0.23751 0.1683 0.26999
3250.328 0.29386 0.25705 0.28226 0.25355 0.1386 0.1253 0.1408 0.1635 0.26689 0.25194
3269.617 0.25567 0.31 0.2761 0.1476 0.092 0.095 0.20357 0.3255 0.26575 0.25565
3288.907 0.25311 0.20484 0.214738 0.19669 0.1996 0.1577 0.1387 0.1455 0.23958 0.3559
3308.197 0.3435 0.26692 0.22574 0.23409 0.27488 0.3529 0.3595 0.27784 0.27337 0.26539
3327.487 0.177 0.17 0.22304 0.2467 0.145 0.1345 0.207627 0.1329 0.1577 0.1855
3346.777 0.1681 0.23936 0.213088 0.20337 0.28999 0.28926 0.23614 0.20389 0.1705 0.1779
3366.066 0.21663 0.23292 0.3395 0.25981 0.1727 0.3318 0.30264 0.3274 0.4536 0.3655
3385.356 0.25155 0.26199 0.3918 0.406 0.3824 0.4456 0.4082 0.3975 0.5155 0.5215
3404.646 0.5419 0.7854 0.9651 1.0049 1.2044 1.536 1.866 2.376 2.896 3.526
3423.936 4.286 4.946 5.846 6.826 7.456 7.956 8.446 8.936 9.326 9.676
3443.225 9.846 9.606 9.186 8.736 8.216 7.676 7.016 6.266 5.606 5.016
3462.515 4.496 3.876 3.326 2.906 2.466 2.216 1.926 1.606 1.426 1.346
3481.805 1.316 1.1814 1.1612 1.1254 1.1296 1.2048 1.1275 1.0567 0.9625 0.9041
3501.095 0.9248 0.9428 0.8807 0.8181 0.7852 0.7392 0.6792 0.6676 0.6397 0.5813
3520.385 0.6232 0.6102 0.5823 0.5202 0.4168 0.3881 0.4115 0.5898 0.6394 0.4281
3539.674 0.4811 0.5768 0.5581 0.5434 0.518 0.4797 0.3881 0.3782 0.3975 0.4422
3558.964 0.5555 0.3834 0.28718 0.3878 0.407 0.4955 0.5191 0.4227 0.338 0.3729
3578.254 0.3723 0.3324 0.4271 0.463 0.3994 0.28075 0.1253 0.083 0.213051 0.30127
3597.544 0.26192 0.23021 0.29789 0.29094 0.1763 0.20232 0.1936 0.1786 0.26679 0.3294
3616.833 0.29073 0.2879 0.2493 0.25785 0.24673 0.208961 0.26102 0.30339 0.406 0.334
3636.123 0.20531 0.1694 0.209939 0.27286 0.21759 0.26902 0.3537 0.3463 0.22178 0.046
3655.413 0.105 0.205782 0.1083 0.1067 0.1871 0.1264 0.036 0.067 0.207517 0.25989
3674.703 0.22509 0.22897 0.3066 0.27471 0.30282 0.3268 0.1 0.089 0.1948 0.1105
3693.993 0.061 0.1578 0.27711 0.3067 0.3121 0.28484 0.23128 0.26532 0.215994 0.1422
3713.282 0.1763 0.206271 0.2215 0.23989 0.1896 0.1485 0.1659 0.1483 0.079 0.094
3732.572 0.1314 0.168 0.24044 0.3047 0.3212 0.20389 0.4039 0.4851 0.3477 0.3489
3751.862 0.27089 0.25734 0.25056 0.205644 0.1466 0.1252 0 0.031 0.215017 0.1456
3771.152 0.1311 0.25862 0.3461 0.26419 0.097 0.098 0.1552 0.1578 0.1609 0.20766
3790.441 0.1504 0.1306 0.29731 0.25591 0.24047 0.3957 0.24706 0.092 0.1408 0.1662
3809.731 0.1634 0.191 0.1142 0.05 0.1708 0.27829 0.26731 0.1856 0.23866 0.25361
3829.021 0.1891 0.147 0.1312 0.162 0.1711 0.2661 0.288 0.1731 0.1328 0.232
3848.311 0.4096 0.3276 0.22408 0.29454 0.27215 0.20257 0.22685 0.206628 0.177 0.22843
3867.601 0.25147 0.2296 0.2457 0.3259 0.319 0.22672 0.22184 0.1259 0.1354 0.3177
3886.890 0.3054 0.2795 0.28581 0.27078 0.23295 0.3132 0.3851 0.28431 0.20746 0.1863
3906.180 0.22619 0.1863 0.1185 0.1587 0.1648 0.1956 0.21155 0.1563 0.26236 0.357
3925.470 0.23596 0.1405 0.19634 0.1842 0.097 0.1147 0.25024 0.4032 0.3708 0.4338
3944.760 0.3934 0.24302 0.26851 0.26583 0.22681 0.363 0.4241 0.25677 0.1247 0.1873
3964.049 0.3689 0.3684 0.23526 0.211285 0.25547 0.25166 0.26349 0.24998 0.21902 0.1716
3983.339 0.1231 0.26685 0.3593 0.3292 0.2771 0.27238 0.30069 0.24835 0.26052 0.1952
##END=
