##TITLE=MCPA-Ester
##JCAMP-DX=4.24
##DATA TYPE=INFRARED SPECTRUM
##ORIGIN=NIST Mass Spectrometry Data Center
##OWNER=NIST Standard Reference Data Program
Collection (C) 2018 copyright by the U.S. Secretary of Commerce
on behalf of the United States of America. All rights reserved.
##CAS REGISTRY NO=2436-73-9
##MOLFORM=C9 H9 Cl O3
##$NIST SOURCE=MSDC-IR
##SPECTROMETER/DATA SYSTEM=HP-GC/MS/IRD
##STATE=gas
##XUNITS=1/CM
##YUNITS=ABSORBANCE
##XFACTOR=1.0
##YFACTOR=0.000023000
##DELTAX=4.0
##FIRSTX=550.0
##LASTX=3846.0
##FIRSTY=0.002530
##MAXX=3846
##MINX=550
##MAXY=0.23
##MINY=0
##NPOINTS=825
##XYDATA=(X++(Y..Y))
550.0 110 152 113 131 117 100 82 63 53 50
590.0 46 45 46 45 47 52 54 58 71 95
630.0 146 241 414 673 893 911 705 430 246 161
670.0 123 108 105 110 119 132 147 158 162 160
710.0 146 125 101 76 59 51 52 69 104 164
750.0 226 253 236 205 189 196 221 269 352 489
790.0 678 902 1098 1176 1100 924 730 576 474 424
830.0 412 422 437 436 406 365 346 386 504 698
870.0 946 1190 1332 1291 1028 644 344 195 122 81
910.0 56 37 23 14 7 4 6 9 12 19
950.0 32 54 81 118 168 229 300 380 465 546
990.0 625 698 760 814 874 943 1024 1105 1185 1247
1030.0 1294 1330 1364 1406 1458 1522 1595 1672 1745 1803
1070.0 1818 1751 1576 1325 1082 910 826 803 827 914
1110.0 1085 1358 1757 2289 2899 3425 3628 3425 2977 2542
1150.0 2300 2332 2723 3599 5053 6972 8872 10000 9801 8452
1190.0 6759 5499 4932 4770 4651 4471 4312 4213 4142 4054
1230.0 3941 3813 3652 3436 3169 2912 2742 2682 2717 2810
1270.0 2915 3001 3060 3105 3126 3085 2944 2690 2354 1987
1310.0 1632 1324 1076 885 742 636 560 506 473 463
1350.0 472 492 511 525 541 563 587 602 610 627
1390.0 689 803 924 961 873 729 630 622 687 807
1430.0 985 1223 1479 1630 1609 1483 1369 1314 1373 1611
1470.0 2051 2745 3706 4855 5844 6091 5340 3959 2680 1838
1510.0 1310 982 759 612 512 443 387 338 296 264
1550.0 241 227 221 219 225 238 258 281 304 330
1590.0 358 378 371 328 265 204 160 131 113 102
1630.0 93 88 82 76 69 65 62 61 62 64
1670.0 68 72 79 85 94 103 118 140 166 202
1710.0 255 324 412 519 647 803 992 1217 1502 1911
1750.0 2543 3430 4293 4647 4317 3692 3376 3533 3838 3842
1790.0 3361 2593 1869 1327 968 737 575 460 374 313
1830.0 267 232 205 181 158 135 118 104 97 91
1870.0 87 83 78 72 66 60 53 48 43 37
1910.0 34 31 29 29 30 32 33 34 33 33
1950.0 34 33 32 33 36 37 38 38 37 34
1990.0 33 31 29 28 28 30 33 34 35 37
2030.0 41 42 43 44 47 48 49 49 48 47
2070.0 47 47 46 46 47 46 46 46 47 48
2110.0 47 48 47 44 42 39 38 36 33 30
2150.0 28 25 24 21 19 16 15 14 11 10
2190.0 8 5 4 5 4 5 3 5 6 7
2230.0 9 11 15 16 15 14 12 11 11 10
2270.0 10 9 9 9 8 6 5 3 2 3
2310.0 2 1 0 1 2 1 2 2 4 7
2350.0 8 10 10 11 13 12 11 9 8 7
2390.0 7 7 7 6 7 7 5 4 3 3
2430.0 4 5 6 7 10 15 17 19 21 22
2470.0 24 24 24 23 20 18 17 14 13 12
2510.0 13 15 16 17 19 19 20 21 21 20
2550.0 18 15 14 13 12 10 10 11 10 9
2590.0 7 8 8 7 6 7 6 7 6 5
2630.0 5 6 5 6 8 9 10 11 11 11
2670.0 10 12 12 12 13 14 15 15 16 18
2710.0 19 19 21 25 28 31 35 38 41 43
2750.0 41 39 35 32 30 31 33 33 34 35
2790.0 37 40 42 46 51 58 66 76 87 101
2830.0 121 146 175 214 268 331 386 413 416 406
2870.0 404 402 395 387 384 391 410 441 482 531
2910.0 589 661 750 854 975 1106 1228 1315 1342 1327
2950.0 1320 1410 1628 1800 1742 1453 1115 895 773 697
2990.0 639 592 555 524 497 468 439 420 414 426
3030.0 446 464 465 443 403 361 328 306 293 286
3070.0 276 264 254 247 238 229 223 216 207 192
3110.0 170 143 115 95 79 66 58 51 46 42
3150.0 38 34 31 29 26 23 22 20 19 18
3190.0 17 15 14 12 9 8 6 5 5 7
3230.0 5 4 4 3 2 3 3 2 1 1
3270.0 2 1 1 2 2 1 1 1 0 0
3310.0 1 0 0 1 0 0 0 0 0 0
3350.0 0 0 1 0 0 1 2 1 0 1
3390.0 1 1 2 2 4 3 3 2 4 6
3430.0 5 5 6 6 7 6 6 9 10 12
3470.0 13 14 17 22 26 31 38 45 49 52
3510.0 50 44 42 40 38 39 38 39 39 40
3550.0 40 39 35 30 28 27 25 22 17 15
3590.0 14 13 11 10 10 8 6 8 8 6
3630.0 7 8 8 8 8 7 7 6 6 7
3670.0 8 7 6 5 6 6 7 9 9 7
3710.0 7 7 7 8 8 9 10 8 8 10
3750.0 8 10 8 6 7 9 8 8 9 10
3790.0 11 9 8 9 8 9 9 9 13 13
3830.0 13 11 14 16 15
##END=
