##TITLE=4-n-Propylbenzoic acid
##JCAMP-DX=4.24
##DATA TYPE=INFRARED SPECTRUM
##ORIGIN=EPA-IR VAPOR PHASE LIBRARY
##OWNER=SRD/NIST
Collection (C) 2018 copyright by the U.S. Secretary of Commerce
on behalf of the United States of America. All rights reserved.
##CAS REGISTRY NO=2438-05-3
##MOLFORM=C 10 H 12 O 2
##$NIST SOURCE=MSDC-IR
##STATE=gas
##XUNITS=1/CM
##YUNITS=ABSORBANCE
##XFACTOR=1.
##YFACTOR=0.001
##DELTAX=1.929
##FIRSTX=549.8
##LASTX=4000.8
##FIRSTY=5.9419
##MAXX=4000.75
##MINX=549.766
##MAXY=0.101512
##MINY=0
##NPOINTS=1790
##XYDATA=(X++(Y..Y))
549.766 5.9419 6.3419 6.6519 6.8219 7.1119 7.3619 7.8619 8.2819 8.4719 9.0019
569.056 9.4419 9.6519 9.4419 8.8419 8.4319 8.0119 7.5019 7.0819 6.7019 6.6819
588.346 7.1119 7.2719 7.2219 7.2119 6.9619 6.6519 6.2619 5.7319 5.2619 5.3919
607.636 6.1219 6.9019 7.3419 7.2419 7.0219 6.8819 6.3819 5.2519 4.1219 3.3219
626.926 2.6919 2.1619 2.0319 2.0219 1.9319 1.9019 1.8219 1.6719 1.5719 1.4719
646.216 1.3719 1.3719 1.3419 1.2819 1.2419 1.2019 1.009 0.9489 1.0919 1.2519
665.506 1.3219 1.3619 1.3819 1.3719 1.5419 1.7419 1.9719 2.4719 2.9519 3.2819
684.796 3.9319 4.7419 5.5619 6.7019 7.7919 8.6419 9.4019 9.8619 10.0019 9.8519
704.086 9.5319 9.0119 8.4019 7.8919 7.3919 6.9219 6.6319 6.5819 6.5619 6.5719
723.376 6.6819 6.8819 7.1219 7.2619 7.2919 7.2619 7.1719 6.9519 6.8619 6.9119
742.666 7.1019 7.4519 7.7919 8.2419 8.9219 9.4319 9.9519 10.4219 10.5819 10.5319
761.956 10.4619 10.3519 9.9719 9.5119 9.0019 8.4419 8.0419 7.6319 7.1519 6.6119
781.246 5.9919 5.4819 4.9119 4.3619 3.9019 3.3419 2.7919 2.4319 2.2819 2.1619
800.536 1.9319 1.8319 1.8219 1.7019 1.5719 1.5219 1.4919 1.4519 1.4519 1.4419
819.826 1.3519 1.3519 1.4019 1.3919 1.4719 1.5119 1.6019 1.7519 1.9019 1.9919
839.116 2.0519 2.1419 2.3519 2.5719 2.7319 2.8119 2.8219 2.8519 2.7519 2.7019
858.406 2.6919 2.5719 2.5019 2.4119 2.3019 2.2319 2.0619 1.8919 1.7019 1.4519
877.696 1.2919 1.2219 1.1819 1.0919 1.0519 1.0519 0.9747 0.8757 0.8396 0.7962
896.986 0.7411 0.6943 0.7207 0.7449 0.7449 0.7096 0.7077 0.7078 0.6583 0.6598
916.276 0.6132 0.5694 0.5666 0.5911 0.578 0.5445 0.5659 0.4855 0.4467 0.4833
935.566 0.4713 0.4651 0.5175 0.5289 0.5171 0.5054 0.4555 0.4684 0.4819 0.5358
954.856 0.5689 0.652 0.6181 0.5253 0.6001 0.6148 0.626 0.6816 0.6708 0.6692
974.146 0.7164 0.691 0.6587 0.6961 0.7471 0.8306 0.8831 0.8982 0.9181 1.0162
993.436 1.1319 1.1819 1.2619 1.3519 1.4619 1.7319 2.1319 2.5819 3.1819 4.1619
1012.726 5.3619 6.5119 7.1619 7.2119 7.1619 7.0119 6.5819 5.6919 4.6319 3.8919
1032.016 3.5019 3.3119 3.2919 3.3919 3.5719 3.8819 4.2019 4.6419 5.3519 6.2219
1051.306 7.2619 8.5719 10.0419 11.8119 13.7619 15.7319 17.8719 20.2919 22.9219 25.7819
1070.596 28.9719 32.3819 35.9119 39.3919 42.3119 44.1319 44.4019 42.9319 40.2619 36.7219
1089.886 32.2019 26.9819 21.8019 17.3519 14.0919 11.6119 9.6719 8.3619 7.3619 6.6519
1109.176 6.1519 5.7119 5.4419 5.3619 5.2719 5.1519 5.0619 5.0119 4.9519 4.8719
1128.467 4.8119 4.7719 4.8119 4.9619 5.0619 5.1519 5.3719 5.5719 5.8319 6.2019
1147.757 6.7219 7.5819 8.6419 10.0419 11.8719 14.3219 17.5819 21.7519 27.0719 33.3319
1167.047 39.3519 43.7219 45.6919 45.7119 44.5519 41.7319 36.8719 31.1019 26.2319 23.1819
1186.337 21.5219 20.3219 19.2319 18.3619 17.4319 15.9219 13.8619 11.5419 9.4219 7.9219
1205.627 6.9119 6.1019 5.4919 5.0419 4.7019 4.4519 4.2619 4.1419 4.0619 4.0219
1224.917 4.0619 4.0719 4.1219 4.1819 4.3019 4.4919 4.6319 4.6919 4.7619 4.9819
1244.207 5.2019 5.4019 5.5719 5.8419 6.1619 6.4319 6.7819 7.1519 7.3919 7.6119
1263.497 7.8319 7.9919 8.0019 7.9419 7.8719 7.7019 7.4819 7.1919 6.9819 6.8619
1282.787 6.7619 6.7219 6.6819 6.7119 6.8219 6.9119 7.0319 7.2019 7.4019 7.6419
1302.077 7.8319 8.1019 8.4019 8.7519 9.1219 9.4519 9.8419 10.3219 10.7019 10.9819
1321.367 11.1519 11.2219 11.2019 11.0819 10.8619 10.5319 10.2619 10.1219 10.0519 10.0119
1340.657 10.0519 10.2819 10.7419 11.3919 12.2019 13.2719 14.5519 15.9319 17.3319 18.3519
1359.947 18.6719 18.3219 17.4619 16.0819 14.1719 11.9319 9.7519 7.9919 6.7119 5.8619
1379.237 5.2419 4.7919 4.4619 4.1919 3.9819 3.8019 3.6619 3.5819 3.5219 3.4819
1398.527 3.5719 3.7119 3.9019 4.1719 4.4419 4.7219 5.0519 5.3319 5.5119 5.5919
1417.817 5.5219 5.2619 4.8719 4.4019 3.9019 3.4319 3.0719 2.8119 2.6119 2.4519
1437.107 2.3619 2.3319 2.3519 2.4019 2.4219 2.5219 2.6519 2.7019 2.7819 2.8419
1456.397 2.9219 3.0419 3.0319 2.9819 2.9219 2.8219 2.6919 2.5919 2.4519 2.2819
1475.687 2.0919 1.9319 1.8019 1.6319 1.5419 1.4619 1.3919 1.3719 1.3619 1.3519
1494.977 1.3819 1.4319 1.5019 1.6119 1.7119 1.7619 1.8019 1.8319 1.8419 1.7919
1514.267 1.7019 1.5919 1.4419 1.2719 1.1419 1.0619 0.9968 0.9599 0.9114 0.8778
1533.557 0.8651 0.8515 0.8424 0.8239 0.8497 0.9113 0.9515 0.9761 0.9987 1.0619
1552.847 1.1419 1.1419 1.1919 1.3019 1.4519 1.6419 1.7719 1.8919 2.0319 2.1519
1572.137 2.2619 2.2719 2.2219 2.2119 2.1719 2.1319 2.1119 2.1519 2.3619 2.6919
1591.427 3.1019 3.6419 4.3619 5.2419 6.2519 7.3119 8.3719 9.4019 10.2619 10.8919
1610.717 11.1619 10.9719 10.4419 9.5419 8.4219 7.2019 5.9619 4.8319 3.8819 3.1419
1630.007 2.5819 2.1719 1.8719 1.6319 1.4719 1.3319 1.2219 1.1419 1.0619 1.0314
1649.297 1.0284 1.0018 0.9572 0.981 0.9606 0.9733 0.9951 0.9724 1.009 1.0519
1668.587 1.1019 1.1419 1.1819 1.2419 1.3619 1.4719 1.5619 1.6819 1.7819 1.9519
1687.877 2.1219 2.2619 2.4619 2.5919 2.6819 2.8519 2.9719 3.1019 3.2319 3.3519
1707.167 3.5219 3.7419 3.9719 4.1619 4.3619 4.5419 4.6919 4.9219 5.1419 5.3919
1726.457 5.8019 6.4219 7.3219 8.5619 10.2519 12.4319 15.1919 18.9219 23.6619 29.8419
1745.747 37.8919 48.3419 61.2119 75.8319 89.1119 97.8219 101.362 101.512 99.4419 92.7719
1765.037 79.4419 62.5919 47.3019 36.0919 27.8119 21.6819 17.1019 13.6119 11.0419 9.1919
1784.327 7.8819 6.9019 6.1719 5.6219 5.1519 4.7519 4.4219 4.1619 4.0019 3.9019
1803.617 3.8219 3.6619 3.4619 3.3319 3.2119 3.0819 2.9519 2.7919 2.6419 2.4919
1822.907 2.3019 2.1019 1.8519 1.6419 1.4519 1.2819 1.1219 0.9455 0.8246 0.7602
1842.197 0.721 0.6495 0.6149 0.5564 0.5015 0.5045 0.4857 0.4468 0.4583 0.465
1861.487 0.4531 0.4343 0.4251 0.4488 0.4661 0.4717 0.4678 0.4826 0.463 0.4543
1880.777 0.4512 0.4308 0.4212 0.4133 0.4174 0.4392 0.4725 0.5126 0.5122 0.547
1900.067 0.5844 0.5919 0.6387 0.6661 0.7322 0.7784 0.8304 0.8768 0.9357 0.9896
1919.357 1.0086 1.0619 1.0919 1.1019 1.0719 1.0332 1.0095 0.9773 0.9283 0.9024
1938.647 0.8766 0.8205 0.7341 0.6569 0.6123 0.5895 0.5668 0.5305 0.4965 0.4485
1957.937 0.4042 0.3869 0.4017 0.388 0.3357 0.2873 0.2597 0.2424 0.218 0.2361
1977.227 0.2501 0.2352 0.2095 0.1888 0.2112 0.227 0.1959 0.182 0.192 0.1938
1996.517 0.1983 0.1876 0.191 0.198 0.1552 0.12264 0.08938 0.05862 0.08327 0.11884
2015.807 0.1579 0.12985 0.09871 0.11106 0.12552 0.1459 0.1527 0.1774 0.14017 0.12139
2035.097 0.1639 0.1652 0.12897 0.08192 0.10412 0.12668 0.0924 0.07937 0.07924 0.0891
2054.387 0.1109 0.10924 0.09058 0.07783 0.06535 0.07529 0.07187 0.07022 0.10536 0.08174
2073.677 0.0704 0.09818 0.10507 0.09107 0.08491 0.10247 0.11276 0.11753 0.09781 0.07868
2092.967 0.0792 0.12402 0.11052 0.044243 0.05643 0.09819 0.12664 0.1301 0.13559 0.1437
2112.257 0.1611 0.1436 0.11171 0.0868 0.0961 0.1315 0.1469 0.1903 0.1552 0.1227
2131.547 0.152 0.1485 0.1603 0.1705 0.1853 0.2089 0.2055 0.2271 0.2958 0.2908
2150.837 0.2564 0.2855 0.3139 0.2851 0.2512 0.2643 0.2597 0.2553 0.2133 0.1702
2170.127 0.1761 0.1759 0.172 0.1629 0.11034 0.049825 0.06776 0.1078 0.05196 0.0152
2189.417 0.06924 0.08575 0.06167 0.07042 0.048754 0.0407 0.083 0.044026 0.0104 0.0742
2208.707 0.08463 0.07473 0.09953 0.08525 0.046416 0.0264 0.05703 0.09147 0.0671 0.0168
2227.997 0.046864 0.09256 0.0588 0.0082 0 0.047078 0.11171 0.13507 0.11181 0.10669
2247.287 0.11697 0.12472 0.09025 0.0419193 0.03784 0.07534 0.09223 0.09131 0.07585 0.046532
2266.577 0.07001 0.09258 0.0953 0.09624 0.1304 0.12541 0.09234 0.10682 0.09284 0.09547
2285.868 0.151 0.1628 0.1495 0.1843 0.1697 0.13924 0.1503 0.1442 0.1664 0.2152
2305.158 0.225 0.1998 0.1516 0.14015 0.1595 0.1663 0.1592 0.1529 0.1882 0.1962
2324.448 0.1675 0.1658 0.1944 0.2498 0.2571 0.1963 0.156 0.1659 0.2208 0.2292
2343.738 0.2335 0.2835 0.3393 0.3805 0.3112 0.2056 0.173 0.1707 0.201 0.2201
2363.028 0.2399 0.2628 0.2399 0.1612 0.13408 0.1943 0.2188 0.203 0.1875 0.1744
2382.318 0.1751 0.1888 0.2033 0.2278 0.2296 0.2013 0.1969 0.2144 0.2246 0.2336
2401.608 0.2434 0.2214 0.1928 0.1842 0.2143 0.2474 0.2547 0.2292 0.2171 0.228
2420.898 0.2146 0.2089 0.2135 0.2325 0.2643 0.2462 0.207 0.1962 0.1851 0.18
2440.188 0.2011 0.2083 0.1766 0.1876 0.1795 0.1368 0.11508 0.1473 0.1642 0.13502
2459.478 0.12664 0.13868 0.13054 0.09877 0.12805 0.13251 0.06002 0.06277 0.08564 0.09084
2478.768 0.12722 0.169 0.13363 0.08933 0.10359 0.11044 0.1507 0.11225 0.06013 0.07698
2498.058 0.09608 0.06404 0.08413 0.1636 0.1733 0.13799 0.09439 0.10024 0.11567 0.09913
2517.348 0.12524 0.13708 0.1536 0.1924 0.1971 0.2006 0.1993 0.1815 0.1803 0.1929
2536.638 0.09353 0.03234 0.09073 0.12018 0.11614 0.11166 0.0956 0.07908 0.0994 0.1763
2555.928 0.1541 0.1057 0.154 0.1495 0.13575 0.1568 0.153 0.12806 0.13938 0.1593
2575.218 0.1465 0.12312 0.0865 0.11588 0.1452 0.12728 0.1627 0.1992 0.2297 0.2234
2594.508 0.2024 0.2252 0.2011 0.1677 0.1867 0.1841 0.1562 0.14155 0.1604 0.1814
2613.798 0.14047 0.11697 0.13029 0.12572 0.13919 0.10591 0.1617 0.2627 0.2439 0.1854
2633.088 0.11883 0.1074 0.1655 0.1999 0.1584 0.09319 0.11897 0.1584 0.1603 0.1452
2652.378 0.1094 0.12464 0.182 0.13986 0.10142 0.12706 0.2077 0.3114 0.274 0.2111
2671.668 0.2222 0.2092 0.2161 0.2251 0.2246 0.2502 0.2096 0.1594 0.2137 0.2837
2690.958 0.2467 0.2277 0.1965 0.13562 0.11983 0.1186 0.1462 0.2221 0.2224 0.1939
2710.248 0.1901 0.1672 0.1318 0.1621 0.1936 0.2128 0.2797 0.2685 0.1933 0.1586
2729.538 0.2257 0.2898 0.2998 0.2831 0.262 0.3196 0.4072 0.387 0.3617 0.4192
2748.828 0.4555 0.4503 0.4321 0.4015 0.3446 0.3012 0.3449 0.4377 0.4503 0.4122
2768.118 0.4378 0.4199 0.3765 0.3793 0.4345 0.4681 0.4363 0.4575 0.4756 0.4821
2787.408 0.52 0.5084 0.4805 0.5194 0.5873 0.5763 0.563 0.6522 0.7252 0.7479
2806.698 0.7544 0.7202 0.6794 0.7271 0.8486 0.901 0.8423 0.8844 0.9907 1.0619
2825.988 1.1219 1.1019 1.1319 1.3019 1.4119 1.4519 1.5319 1.6119 1.7119 1.8719
2845.278 2.0419 2.2119 2.3319 2.5819 2.9519 3.2319 3.5519 3.8519 4.1419 4.4719
2864.568 4.7619 5.1419 5.6319 6.1119 6.5919 7.0919 7.6619 8.2919 8.6619 8.8319
2883.858 8.7419 8.3919 8.0119 7.4419 6.8019 6.3319 5.9219 5.5519 5.3219 5.2319
2903.148 5.3419 5.4919 5.5819 5.8019 6.1219 6.5219 6.9419 7.4719 8.1019 8.7719
2922.438 9.5619 10.3519 11.2719 12.4019 13.6119 14.8119 15.8519 16.7219 17.4519 17.8219
2941.728 17.7019 17.2419 16.5119 15.6719 14.8419 14.0219 13.3119 12.8619 12.7019 12.8019
2961.018 13.1919 13.7119 14.3419 15.0619 15.8519 16.3719 16.4019 16.0019 15.1319 13.9319
2980.308 12.4519 10.7719 9.0719 7.6619 6.5419 5.6719 5.0919 4.6519 4.3219 4.0419
2999.598 3.7119 3.3819 3.3219 3.3219 3.1819 3.1219 3.0719 2.9619 2.9319 2.8419
3018.888 2.7919 2.8019 2.7419 2.7619 2.9219 3.2319 3.5019 3.7719 4.0319 4.2319
3038.178 4.3819 4.4819 4.5219 4.3719 4.0519 3.7519 3.4419 3.1719 2.9619 2.7019
3057.468 2.5019 2.3619 2.2419 2.1319 2.0119 1.9919 2.0119 1.9819 1.9619 1.8819
3076.758 1.8119 1.9519 2.0119 1.9919 1.9719 1.9119 1.9019 1.8619 1.8919 1.8719
3096.048 1.7819 1.7319 1.7119 1.6919 1.5119 1.3919 1.3019 1.1919 1.1519 1.0619
3115.338 0.9835 0.9091 0.8718 0.8417 0.738 0.7317 0.7633 0.7082 0.7136 0.7251
3134.628 0.7597 0.7293 0.5376 0.4404 0.4698 0.4771 0.5225 0.4962 0.3917 0.4111
3153.918 0.4121 0.3564 0.3645 0.373 0.3963 0.4103 0.3176 0.2826 0.3362 0.3411
3173.208 0.2912 0.2592 0.3252 0.2907 0.3003 0.4101 0.3345 0.2721 0.2769 0.2959
3192.498 0.3474 0.4046 0.3849 0.3017 0.2784 0.2994 0.2865 0.2782 0.2919 0.2689
3211.788 0.2805 0.2477 0.2787 0.3927 0.3389 0.1788 0.1437 0.2152 0.1912 0.1721
3231.078 0.2271 0.1868 0.13951 0.1558 0.13505 0.1628 0.1835 0.2011 0.176 0.06188
3250.368 0.09776 0.167 0.11974 0.12506 0.1514 0.11053 0.08147 0.1822 0.2711 0.3052
3269.658 0.3312 0.2247 0.1915 0.2154 0.1952 0.198 0.1687 0.2367 0.2494 0.2751
3288.948 0.3287 0.3726 0.2994 0.1691 0.2116 0.2126 0.1869 0.2364 0.2051 0.1434
3308.238 0.14108 0.12206 0.1915 0.2006 0.1551 0.047052 0.0274 0.12167 0.1668 0.1891
3327.528 0.1756 0.1977 0.2204 0.2917 0.2516 0.1716 0.2267 0.2173 0.1448 0.13067
3346.818 0.1589 0.2818 0.362 0.3109 0.2561 0.1711 0.1817 0.2738 0.2671 0.146
3366.108 0.046091 0.06706 0.1634 0.2843 0.3583 0.3956 0.2979 0.1624 0.2305 0.294
3385.398 0.2838 0.2551 0.2296 0.2005 0.1667 0.1998 0.2201 0.2439 0.2944 0.168
3404.688 0.0049 0.10057 0.1476 0.09905 0.1995 0.2891 0.2415 0.2823 0.2138 0.1939
3423.978 0.3434 0.3174 0.2393 0.1909 0.2147 0.178 0.07899 0.06375 0.1673 0.332
3443.269 0.2888 0.2208 0.3307 0.2788 0.1685 0.2846 0.3342 0.1932 0.10727 0.199
3462.559 0.3068 0.2815 0.2339 0.2857 0.2664 0.186 0.32 0.3424 0.2901 0.3894
3481.849 0.4918 0.592 0.5758 0.4948 0.5357 0.587 0.7054 0.7778 0.7823 0.9503
3501.139 1.0041 0.8722 0.8458 0.8029 0.6939 0.5513 0.5643 0.6619 0.6026 0.5082
3520.429 0.4374 0.4052 0.417 0.4684 0.5402 0.4487 0.2867 0.3202 0.42 0.5295
3539.719 0.53 0.4797 0.4943 0.4689 0.5085 0.5484 0.6763 0.9339 1.0123 1.0719
3559.009 1.2519 1.5519 2.0219 2.6719 3.6019 5.0019 7.1419 10.2819 14.4419 19.7619
3578.299 25.6219 30.3519 32.7219 32.6019 31.0019 28.0919 23.5019 17.5219 11.2919 6.6519
3597.589 3.9619 2.6319 1.9619 1.4719 1.3219 1.2019 0.9744 0.8918 0.795 0.6527
3616.879 0.5047 0.4495 0.4878 0.4305 0.3964 0.3624 0.4523 0.5166 0.4226 0.4208
3636.169 0.4475 0.4762 0.4439 0.4522 0.4901 0.5055 0.4563 0.3991 0.3816 0.457
3655.459 0.4526 0.3228 0.3782 0.4242 0.3316 0.2721 0.2813 0.3162 0.2878 0.251
3674.749 0.3019 0.296 0.3045 0.3795 0.3613 0.3039 0.2711 0.3428 0.4591 0.514
3694.039 0.5033 0.4109 0.3187 0.3293 0.3732 0.3554 0.427 0.4253 0.3285 0.3667
3713.329 0.356 0.3216 0.3742 0.3736 0.3658 0.3354 0.2529 0.2673 0.2611 0.2166
3732.619 0.2587 0.2935 0.3158 0.2791 0.2963 0.4116 0.4087 0.419 0.4444 0.4182
3751.909 0.3493 0.3049 0.2859 0.2492 0.231 0.1951 0.3412 0.4794 0.4434 0.3941
3771.199 0.2679 0.251 0.3093 0.287 0.2829 0.2 0.1877 0.2861 0.3863 0.473
3790.489 0.4485 0.372 0.3378 0.3851 0.3289 0.2663 0.3442 0.3294 0.2028 0.2885
3809.779 0.4635 0.3754 0.2721 0.284 0.2628 0.1648 0.1198 0.1728 0.211 0.2952
3829.069 0.2763 0.2083 0.3123 0.3715 0.357 0.3519 0.3832 0.3711 0.3351 0.3399
3848.359 0.2488 0.1808 0.199 0.2298 0.1482 0.1513 0.2948 0.2179 0.1776 0.2813
3867.649 0.3046 0.2646 0.2213 0.2955 0.3418 0.2898 0.3123 0.2236 0.1393 0.2348
3886.939 0.2581 0.3452 0.3891 0.3693 0.3068 0.2321 0.2547 0.2187 0.2505 0.2731
3906.229 0.3139 0.3701 0.4068 0.4888 0.5231 0.3257 0.2784 0.3727 0.3314 0.3426
3925.519 0.366 0.3371 0.3466 0.4432 0.4777 0.4077 0.2926 0.2641 0.2868 0.3758
3944.809 0.2833 0.1858 0.2999 0.2811 0.3612 0.3487 0.2503 0.1925 0.1886 0.3456
3964.099 0.4277 0.4333 0.4523 0.4688 0.3386 0.3315 0.3363 0.3774 0.4227 0.248
3983.389 0.13591 0.3083 0.5124 0.3965 0.4399 0.4413 0.3333 0.4967 0.5327 0.3626
##END=
