##TITLE=2-Methoxybenzamide
##JCAMP-DX=4.24
##DATA TYPE=INFRARED SPECTRUM
##ORIGIN=EPA-IR VAPOR PHASE LIBRARY
##OWNER=SRD/NIST
Collection (C) 2018 copyright by the U.S. Secretary of Commerce
on behalf of the United States of America. All rights reserved.
##CAS REGISTRY NO=2439-77-2
##MOLFORM=C 8 H 9 N O 2
##$NIST SOURCE=MSDC-IR
##STATE=gas
##XUNITS=1/CM
##YUNITS=ABSORBANCE
##XFACTOR=1.
##YFACTOR=0.001
##DELTAX=1.92898
##FIRSTX=549.8
##LASTX=4000.7
##FIRSTY=1.3655
##MAXX=4000.7
##MINX=549.759
##MAXY=0.027924
##MINY=0
##NPOINTS=1790
##XYDATA=(X++(Y..Y))
549.759 1.3655 1.0833 1.0589 1.1497 1.3883 1.238 1.193 1.0603 0.66159 0.8092
569.049 0.65539 0.044 0.032 0.434 0.6491 0.75889 0.8265 0.854 1.0282 1.1033
588.339 1.0283 1.3206 1.5023 1.4766 1.4534 1.3518 1.5832 1.994 2.194 2.274
607.628 2.134 2.084 2.084 2.064 2.154 1.994 1.784 1.984 1.964 1.5346
626.918 1.3379 1.0741 0.8059 0.9871 1.1965 1.1757 0.9607 0.73109 0.883 1.0965
646.208 1.1083 0.9374 0.6159 0.65694 0.8837 1.0787 1.0845 0.8738 0.8462 1.1191
665.498 1.1529 0.8121 0.8939 1.0628 1.037 1.0716 1.0572 1.3268 1.5265 1.6391
684.787 1.744 1.6026 1.6121 1.724 1.744 1.984 2.324 2.474 2.634 2.904
704.077 2.884 2.764 2.734 2.534 2.454 2.314 2.224 2.294 2.164 2.164
723.367 2.094 1.844 1.864 2.214 2.374 2.304 2.244 2.414 2.794 3.104
742.657 3.554 3.994 4.234 4.754 5.554 6.124 6.534 6.694 6.734 6.524
761.947 5.834 5.264 4.834 4.314 3.794 3.364 3.124 2.804 2.454 2.084
781.236 1.774 1.844 1.874 1.784 1.744 1.824 1.824 1.904 2.184 2.084
800.526 1.944 2.184 2.214 2.244 2.454 2.394 2.404 2.374 2.454 2.514
819.816 2.334 1.974 1.794 1.914 2.004 1.674 1.5619 1.764 1.704 1.714
839.106 1.774 1.734 1.664 1.5857 1.646 1.674 1.5 1.4492 1.3827 1.5583
858.395 1.974 2.004 1.754 1.674 1.704 1.6257 1.6112 1.674 1.6469 1.944
877.685 1.954 1.5135 1.5252 1.5522 1.4883 1.4881 1.4496 1.694 1.884 1.744
896.975 1.734 1.724 1.684 1.844 1.864 1.674 1.6584 1.774 1.4793 1.5356
916.265 1.734 1.6382 1.764 1.6447 1.5006 1.674 1.684 1.5077 1.4101 1.5519
935.555 1.774 1.814 1.684 1.6485 1.784 1.804 1.824 1.744 1.5497 1.511
954.844 1.684 1.704 1.5622 1.4608 1.3935 1.4993 1.219 1.2676 1.794 1.784
974.134 1.6258 1.6175 1.674 1.914 1.954 1.864 1.704 1.5295 1.734 1.744
993.424 1.934 2.354 2.384 2.224 2.024 2.134 2.534 3.094 3.354 3.104
1012.714 3.084 3.484 3.874 4.084 4.214 4.704 4.964 4.824 4.994 4.864
1032.003 4.624 4.624 4.634 4.434 3.914 3.814 3.974 3.814 3.504 3.184
1051.293 2.834 2.584 2.244 2.034 1.964 1.5333 1.2433 1.4133 1.613 1.2697
1070.583 0.9944 1.0513 1.1058 1.5465 1.994 2.114 2.134 2.124 2.284 1.994
1089.873 2.044 2.014 1.944 2.464 2.824 2.344 2.094 2.344 2.344 2.214
1109.163 1.854 1.5511 1.3586 1.31 1.2282 1.1933 1.2977 1.294 1.6243 1.874
1128.452 2.014 1.944 2.174 2.484 1.934 1.646 1.704 2.174 2.534 2.334
1147.742 2.384 2.504 2.514 2.434 2.654 2.554 1.964 2.294 2.614 2.614
1167.032 2.654 2.584 2.574 2.474 2.664 2.864 2.804 2.624 2.674 2.804
1186.322 2.664 2.304 2.114 2.154 1.854 2.134 2.244 2.204 2.674 2.914
1205.611 2.854 2.854 3.054 3.304 3.714 3.914 4.344 5.064 5.794 6.754
1224.901 7.564 8.144 8.894 9.444 9.794 10.084 9.984 9.984 9.774 9.134
1244.191 8.274 7.564 7.064 6.404 5.734 5.214 4.754 4.544 4.284 3.904
1263.481 3.754 3.584 3.614 3.844 3.764 3.674 3.354 3.264 3.414 3.454
1282.771 3.384 3.044 2.984 2.854 2.544 2.384 2.514 2.724 2.694 2.664
1302.060 2.694 2.614 2.584 2.604 2.604 2.764 2.924 3.044 3.214 3.354
1321.350 3.654 4.044 4.534 5.084 5.634 6.344 7.204 8.184 9.134 10.164
1340.640 11.214 12.104 12.804 13.214 13.444 13.324 12.984 12.424 11.564 10.544
1359.930 9.334 8.124 6.934 5.854 5.004 4.324 3.764 3.314 3.034 2.744
1379.219 2.454 2.204 2.034 1.904 1.774 1.684 1.5834 1.6204 1.5955 1.4702
1398.509 1.4689 1.4562 1.393 1.3797 1.3502 1.3213 1.3239 1.418 1.5292 1.4768
1417.799 1.4985 1.6076 1.714 1.924 2.254 2.564 2.864 3.294 3.734 4.054
1437.089 4.354 4.684 4.904 4.964 5.104 5.354 5.544 5.554 5.474 5.484
1456.378 5.644 5.844 6.104 6.444 6.724 6.974 7.154 7.274 7.314 7.414
1475.668 7.574 7.644 7.694 7.594 7.304 7.034 6.684 6.224 5.714 5.154
1494.958 4.554 3.984 3.454 3.034 2.714 2.484 2.224 1.914 1.744 1.5977
1514.248 1.4834 1.4029 1.4234 1.4224 1.2721 1.2795 1.3785 1.36 1.4522 1.5292
1533.538 1.4387 1.3752 1.4811 1.5916 1.674 1.854 1.944 2.034 2.264 2.534
1552.827 2.874 3.214 3.614 4.274 4.914 5.734 6.784 7.814 8.954 10.074
1572.117 10.964 11.804 12.664 13.114 13.274 13.124 12.694 12.224 11.524 10.784
1591.407 9.904 9.024 8.264 7.444 6.764 6.234 5.764 5.234 4.754 4.374
1610.697 3.884 3.424 3.094 2.794 2.424 2.134 2.124 2.094 2.014 1.994
1629.986 1.954 1.864 1.854 1.804 1.664 1.66 1.6523 1.724 1.794 1.814
1649.276 1.844 1.934 1.974 1.954 2.054 2.164 2.204 2.314 2.554 2.714
1668.566 2.844 2.984 3.144 3.434 3.734 3.924 4.214 4.704 5.244 5.874
1687.856 6.704 7.754 9.164 11.084 13.624 16.574 19.744 22.954 25.284 26.874
1707.146 27.674 27.894 27.924 27.494 26.054 23.614 20.204 16.554 13.114 10.414
1726.435 8.674 7.564 6.814 6.294 5.934 5.624 5.284 4.924 4.494 4.134
1745.725 3.834 3.524 3.244 2.894 2.594 2.334 2.104 1.974 1.854 1.674
1765.015 1.5279 1.4023 1.3034 1.3641 1.3344 1.2344 1.1309 1.0054 0.9936 1.0037
1784.305 1.0287 1.0034 0.8437 0.76369 0.8221 0.8636 0.8366 0.9229 0.9927 0.9212
1803.594 0.9074 0.9422 0.942 0.9076 0.948 0.9006 0.8532 0.8844 0.8356 0.8185
1822.884 0.7772 0.75349 0.8441 0.862 0.75358 0.6329 0.6286 0.69098 0.73718 0.74216
1842.174 0.70003 0.70812 0.70867 0.68634 0.667061 0.7125 0.75938 0.71796 0.6482 0.6522
1861.464 0.6361 0.6281 0.70483 0.65665 0.553 0.6218 0.668721 0.6118 0.68667 0.75176
1880.754 0.71599 0.70495 0.667991 0.6414 0.72755 0.75894 0.73044 0.72553 0.76352 0.72239
1900.043 0.69141 0.7285 0.71574 0.73899 0.75565 0.76326 0.7706 0.74755 0.7647 0.7689
1919.333 0.71216 0.70983 0.7812 0.7793 0.8027 0.9066 0.876 0.7886 0.8092 0.7748
1938.623 0.7483 0.8042 0.8325 0.8179 0.8698 0.9144 0.8251 0.74459 0.69665 0.69198
1957.913 0.72999 0.7721 0.72756 0.666011 0.71437 0.73121 0.6514 0.6248 0.653 0.67889
1977.202 0.69921 0.67923 0.6389 0.559 0.534 0.55 0.5848 0.65558 0.584 0.557
1996.492 0.65452 0.65642 0.6298 0.6436 0.6157 0.6099 0.68405 0.71929 0.6345 0.6069
2015.782 0.67839 0.6341 0.6028 0.69727 0.71425 0.67541 0.69979 0.70326 0.7862 0.8352
2035.072 0.70869 0.72643 0.7711 0.75906 0.785 0.7831 0.7684 0.70609 0.67529 0.69635
2054.362 0.668068 0.6301 0.66267 0.671666 0.68626 0.69081 0.6457 0.70858 0.6977 0.653
2073.651 0.69778 0.68864 0.6263 0.6082 0.5688 0.492 0.552 0.6321 0.529 0.502
2092.941 0.5755 0.6034 0.66023 0.6219 0.5788 0.534 0.491 0.5673 0.546 0.524
2112.231 0.5727 0.538 0.487 0.487 0.516 0.537 0.572 0.55 0.6316 0.69664
2131.521 0.6462 0.6419 0.555 0.545 0.6169 0.5759 0.526 0.485 0.5 0.501
2150.810 0.526 0.542 0.555 0.563 0.484 0.472 0.556 0.6174 0.6103 0.581
2170.100 0.5946 0.544 0.507 0.501 0.438 0.56 0.5648 0.475 0.523 0.536
2189.390 0.522 0.525 0.531 0.5786 0.6209 0.609 0.6102 0.509 0.427 0.473
2208.680 0.597 0.6011 0.515 0.513 0.485 0.524 0.538 0.467 0.419 0.446
2227.970 0.462 0.416 0.41 0.483 0.527 0.546 0.541 0.483 0.456 0.432
2247.259 0.488 0.548 0.529 0.555 0.519 0.495 0.525 0.5964 0.532 0.464
2266.549 0.5657 0.5825 0.5827 0.6141 0.515 0.477 0.5683 0.5769 0.6009 0.5886
2285.839 0.5709 0.5906 0.562 0.553 0.549 0.484 0.5852 0.6489 0.5935 0.5776
2305.129 0.51 0.515 0.515 0.48 0.489 0.554 0.6299 0.6021 0.5845 0.6135
2324.418 0.558 0.531 0.5662 0.537 0.47 0.498 0.6368 0.5761 0.412 0.424
2343.708 0.427 0.463 0.509 0.456 0.506 0.581 0.54 0.541 0.527 0.506
2362.998 0.547 0.6009 0.5944 0.622 0.5881 0.526 0.503 0.469 0.509 0.514
2382.288 0.478 0.488 0.531 0.486 0.402 0.455 0.522 0.489 0.52 0.6008
2401.578 0.5955 0.524 0.5692 0.6035 0.5951 0.5853 0.523 0.488 0.45 0.486
2420.867 0.5934 0.69295 0.72061 0.65849 0.532 0.474 0.553 0.6493 0.6393 0.6028
2440.157 0.6185 0.6315 0.67979 0.69692 0.645 0.6031 0.5832 0.543 0.542 0.524
2459.447 0.482 0.556 0.5979 0.5725 0.559 0.477 0.404 0.435 0.554 0.5733
2478.737 0.549 0.5815 0.553 0.5742 0.5867 0.49 0.543 0.5787 0.554 0.545
2498.026 0.456 0.431 0.489 0.507 0.508 0.5786 0.5852 0.476 0.474 0.546
2517.316 0.504 0.464 0.451 0.453 0.508 0.544 0.544 0.5658 0.553 0.476
2536.606 0.5795 0.6364 0.555 0.53 0.554 0.5672 0.55 0.6237 0.66286 0.6081
2555.896 0.523 0.543 0.5966 0.5739 0.513 0.533 0.5653 0.549 0.5829 0.5868
2575.186 0.6306 0.6298 0.5706 0.551 0.51 0.556 0.5656 0.5676 0.5751 0.511
2594.475 0.511 0.5805 0.527 0.479 0.6307 0.73881 0.72321 0.6534 0.5769 0.501
2613.765 0.401 0.491 0.508 0.501 0.551 0.498 0.52 0.539 0.526 0.546
2633.055 0.544 0.437 0.421 0.469 0.517 0.6168 0.5864 0.477 0.475 0.512
2652.345 0.496 0.419 0.498 0.6019 0.5697 0.6329 0.6056 0.543 0.51 0.461
2671.634 0.455 0.403 0.341 0.482 0.5738 0.554 0.5673 0.44 0.494 0.499
2690.924 0.469 0.46 0.363 0.49 0.548 0.54 0.672307 0.72755 0.71276 0.68444
2710.214 0.6432 0.6514 0.5725 0.497 0.513 0.487 0.44 0.377 0.455 0.5964
2729.504 0.54 0.483 0.53 0.532 0.532 0.502 0.554 0.613 0.556 0.429
2748.794 0.443 0.5657 0.553 0.6121 0.75515 0.72444 0.5646 0.535 0.526 0.53
2768.083 0.524 0.442 0.473 0.5862 0.6986 0.70194 0.549 0.523 0.526 0.51
2787.373 0.492 0.534 0.6236 0.5854 0.67997 0.7985 0.7848 0.66211 0.5945 0.72906
2806.663 0.75215 0.69507 0.72999 0.8843 0.8923 0.7844 0.8137 0.7903 0.8581 0.8936
2825.953 0.8716 1.1163 1.1524 1.0604 1.279 1.403 1.4673 1.674 1.854 1.914
2845.242 1.944 1.854 1.844 1.994 1.924 1.714 1.5507 1.4697 1.401 1.2725
2864.532 1.2525 1.2346 1.0513 1.0107 0.9377 0.9193 1.0813 1.117 1.0848 1.0083
2883.822 0.9779 1.0956 1.1855 1.0958 1.084 1.2691 1.3043 1.2361 1.2114 1.2046
2903.112 1.2583 1.2962 1.2427 1.2126 1.2343 1.2908 1.4811 1.5646 1.5621 1.545
2922.401 1.5608 1.734 1.814 1.764 1.694 1.764 1.904 1.984 2.154 2.384
2941.691 2.614 2.824 2.954 3.034 3.004 2.934 3.024 3.064 3.014 2.814
2960.981 2.634 2.564 2.384 2.284 2.314 2.204 2.064 1.934 1.714 1.754
2980.271 1.704 1.5168 1.4584 1.5283 1.4966 1.4478 1.5316 1.652 1.704 1.704
2999.561 1.944 2.184 2.154 2.234 2.394 2.334 2.154 2.024 1.954 1.794
3018.850 1.704 1.5693 1.3708 1.2618 1.2306 1.3325 1.4064 1.2153 1.1315 1.3761
3038.140 1.4045 1.2837 1.2812 1.3093 1.273 1.2255 1.1859 1.2967 1.394 1.3931
3057.430 1.491 1.5216 1.684 1.844 1.894 2.064 2.104 2.124 2.334 2.454
3076.720 2.464 2.434 2.444 2.434 2.354 2.304 2.054 1.884 1.724 1.5023
3096.009 1.3385 1.1531 1.1275 1.1646 1.0113 0.7921 0.8098 0.8206 0.8212 0.8002
3115.299 0.671189 0.7287 0.7958 0.69355 0.666679 0.564 0.5797 0.67643 0.6201 0.545
3134.589 0.558 0.5921 0.6367 0.6964 0.71207 0.6219 0.5888 0.559 0.538 0.484
3153.879 0.435 0.427 0.427 0.5963 0.664273 0.67812 0.5 0.493 0.529 0.351
3173.169 0.444 0.5856 0.5989 0.67628 0.65617 0.5942 0.663522 0.558 0.379 0.329
3192.458 0.382 0.383 0.454 0.415 0.385 0.418 0.533 0.6626 0.5879 0.553
3211.748 0.53 0.495 0.443 0.456 0.384 0.54 0.69227 0.6355 0.5976 0.588
3231.038 0.479 0.439 0.501 0.301 0.242 0.431 0.555 0.449 0.455 0.495
3250.328 0.388 0.395 0.4 0.291 0.269 0.359 0.502 0.5898 0.671446 0.666923
3269.617 0.516 0.45 0.439 0.43 0.401 0.33 0.29 0.379 0.448 0.445
3288.907 0.362 0.352 0.394 0.413 0.299 0.158 0.295 0.418 0.4 0.364
3308.197 0.394 0.445 0.342 0.307 0.305 0.374 0.558 0.469 0.425 0.499
3327.487 0.51 0.511 0.407 0.385 0.46 0.412 0.465 0.6088 0.434 0.298
3346.777 0.369 0.456 0.502 0.508 0.6059 0.670046 0.551 0.382 0.438 0.6511
3366.066 0.555 0.48 0.68556 0.70568 0.5671 0.65541 0.86 0.9348 0.9235 0.9649
3385.356 1.0698 1.1803 1.1715 1.0068 1.1698 1.5299 1.6258 1.6472 1.924 2.144
3404.646 2.284 2.564 2.834 2.944 3.014 3.224 3.234 3.134 3.224 3.084
3423.936 2.654 2.314 2.244 2.174 1.784 1.5947 1.4153 1.1603 0.9864 0.8843
3443.225 0.9826 0.9132 0.9627 0.9958 0.76015 0.76333 0.8378 0.7895 0.73396 0.6153
3462.515 0.6316 0.811 0.8657 0.7774 0.8826 0.9728 0.70254 0.468 0.471 0.557
3481.805 0.65608 0.7661 0.71969 0.68149 0.8928 0.9132 0.69348 0.7286 0.9965 1.1945
3501.095 1.2754 1.1924 1.271 1.4481 1.5112 1.674 1.914 2.144 2.314 2.524
3520.385 2.814 3.114 3.524 3.994 4.494 4.844 5.164 5.554 5.794 5.884
3539.674 6.004 5.954 5.524 5.224 4.974 4.404 3.824 3.314 2.684 2.084
3558.964 1.5128 1.2664 1.2888 1.2258 1.0502 0.9091 0.7971 0.65805 0.535 0.6518
3578.254 0.7673 0.529 0.295 0.318 0.407 0.437 0.479 0.487 0.422 0.317
3597.544 0.377 0.366 0.467 0.516 0.371 0.499 0.331 0.221 0.362 0.239
3616.833 0.297 0.5829 0.429 0.426 0.6265 0.6036 0.515 0.471 0.48 0.426
3636.123 0.253 0.184 0.386 0.447 0.427 0.492 0.6068 0.6164 0.512 0.469
3655.413 0.487 0.337 0.263 0.491 0.71042 0.462 0.193 0.241 0.333 0.562
3674.703 0.669719 0.67408 0.66603 0.457 0.458 0.414 0.37 0.448 0.405 0.472
3693.993 0.408 0.288 0.223 0.358 0.408 0.408 0.6148 0.414 0.192 0.317
3713.282 0.353 0.318 0.388 0.388 0.279 0.281 0.438 0.297 0.167 0.456
3732.572 0.447 0.346 0.437 0.34 0.163 0.201 0.344 0.314 0.329 0.332
3751.862 0.362 0.517 0.569 0.204 0.077 0.312 0.476 0.663649 0.516 0.405
3771.152 0.552 0.526 0.548 0.65797 0.559 0.302 0.171 0.275 0.276 0.374
3790.441 0.481 0.438 0.536 0.497 0.2 0.328 0.6452 0.6267 0.6417 0.669514
3809.731 0.493 0.526 0.541 0.492 0.462 0.417 0.519 0.414 0.332 0.408
3829.021 0.438 0.492 0.5 0.439 0.369 0.293 0.315 0.451 0.54 0.439
3848.311 0.361 0.396 0.423 0.362 0.382 0.538 0.5921 0.452 0.409 0.5882
3867.601 0.6364 0.451 0.38 0.447 0.435 0.458 0.495 0.482 0.412 0.319
3886.890 0.205 0.174 0.403 0.496 0.423 0.384 0.416 0.434 0.387 0.453
3906.180 0.425 0.298 0.235 0.36 0.453 0.337 0.419 0.502 0.466 0.5874
3925.470 0.6124 0.411 0.413 0.331 0.193 0.32 0.17 0 0.066 0.173
3944.760 0.367 0.5839 0.444 0.247 0.297 0.3 0.412 0.6312 0.6422 0.551
3964.049 0.478 0.363 0.44 0.76229 0.8347 0.6544 0.602 0.442 0.442 0.482
3983.339 0.347 0.315 0.482 0.546 0.457 0.438 0.461 0.41 0.41 0.412
##END=
