##TITLE=4-Ethylphenoxyacetic acid
##JCAMP-DX=4.24
##DATA TYPE=INFRARED SPECTRUM
##ORIGIN=EPA-IR VAPOR PHASE LIBRARY
##OWNER=SRD/NIST
Collection (C) 2018 copyright by the U.S. Secretary of Commerce
on behalf of the United States of America. All rights reserved.
##CAS REGISTRY NO=24431-27-4
##MOLFORM=C 10 H 12 O 3
##SOURCE REFERENCE=No.296207 (NIST/EPA/NIH MS Database)
##$NIST SOURCE=MSDC-IR
##STATE=gas
##XUNITS=1/CM
##YUNITS=ABSORBANCE
##XFACTOR=1.
##YFACTOR=0.001
##DELTAX=1.929
##FIRSTX=549.8
##LASTX=4000.8
##FIRSTY=18.588
##MAXX=4000.75
##MINX=549.766
##MAXY=0.110838
##MINY=0
##NPOINTS=1790
##XYDATA=(X++(Y..Y))
549.766 18.588 18.978 19.688 20.048 19.988 19.888 19.878 19.808 19.628 19.428
569.056 19.398 19.278 19.068 18.868 18.658 18.378 18.138 18.178 18.278 18.418
588.346 18.548 18.628 18.968 19.478 20.078 20.538 20.968 21.608 22.198 22.768
607.636 23.318 23.878 24.278 24.398 24.448 24.268 23.898 23.588 23.178 22.608
626.926 22.028 21.408 20.738 19.988 19.078 18.148 17.258 16.338 15.598 14.938
646.216 14.378 13.878 13.308 12.828 12.538 12.148 11.768 11.438 11.138 10.908
665.506 10.628 10.448 10.008 9.478 9.128 8.748 8.318 8.088 7.968 7.778
684.796 7.498 7.328 7.338 7.338 7.428 7.508 7.658 7.828 8.068 8.328
704.086 8.528 8.578 8.528 8.478 8.358 8.078 7.828 7.668 7.458 7.388
723.376 7.318 7.208 7.118 7.028 6.988 6.928 6.908 6.928 6.868 6.888
742.666 6.848 6.698 6.578 6.428 6.238 5.928 5.578 5.198 4.878 4.628
761.956 4.388 4.138 3.888 3.738 3.568 3.508 3.598 3.678 3.738 3.768
781.246 3.908 4.168 4.418 4.758 5.188 5.678 6.308 6.918 7.588 8.528
800.536 9.438 10.388 11.408 12.418 13.548 14.658 15.718 16.918 18.138 19.428
819.826 20.818 22.328 23.888 25.308 26.518 27.348 27.628 27.418 26.808 25.698
839.116 24.138 22.318 20.448 18.548 16.718 15.048 13.598 12.438 11.418 10.528
858.406 9.888 9.248 8.638 8.078 7.668 7.408 7.088 6.858 6.678 6.388
877.696 6.198 6.078 5.838 5.608 5.418 5.148 4.838 4.558 4.338 4.198
896.986 4.038 3.758 3.518 3.378 3.258 3.108 2.898 2.788 2.788 2.698
916.276 2.568 2.488 2.438 2.428 2.408 2.368 2.378 2.448 2.468 2.478
935.566 2.538 2.588 2.608 2.618 2.708 2.778 2.818 2.958 3.098 3.268
954.856 3.468 3.678 3.928 4.178 4.408 4.528 4.648 4.788 4.818 4.778
974.146 4.718 4.718 4.758 4.758 4.778 4.818 4.898 4.998 5.108 5.258
993.436 5.488 5.778 6.058 6.368 6.828 7.398 8.028 8.908 9.958 10.818
1012.726 11.338 11.728 12.078 12.228 12.238 12.358 12.668 13.258 14.108 15.138
1032.016 16.488 18.088 19.868 21.818 23.928 26.178 28.508 30.898 33.348 35.828
1051.306 38.228 40.448 42.488 44.478 46.258 47.788 49.278 50.618 51.798 52.948
1070.596 53.868 54.558 54.858 54.528 53.528 51.728 49.118 45.878 42.278 38.608
1089.886 35.068 31.998 29.658 28.078 27.288 27.268 27.858 28.948 30.518 32.678
1109.176 35.348 38.488 42.028 45.688 49.278 52.458 54.938 56.398 56.658 55.848
1128.467 54.138 51.608 48.818 46.238 43.968 42.188 40.858 40.058 39.658 39.558
1147.757 39.758 40.088 40.518 40.978 41.348 41.598 41.918 42.388 43.098 44.268
1167.047 45.988 48.148 50.218 51.438 51.448 50.338 48.218 44.998 41.018 37.128
1186.337 33.988 32.178 31.668 32.098 33.518 35.738 38.498 41.658 45.178 49.008
1205.627 53.028 57.178 61.518 66.088 70.778 75.688 80.728 85.708 90.288 93.938
1224.917 96.128 96.758 95.708 92.848 88.708 83.758 78.448 73.208 68.248 63.838
1244.207 59.948 56.468 53.318 50.348 47.668 45.288 43.108 41.198 39.708 38.608
1263.497 37.818 37.168 36.488 35.908 35.288 34.488 33.638 32.858 32.158 31.558
1282.787 31.148 30.968 30.878 30.748 30.578 30.408 30.148 29.688 29.038 28.318
1302.077 27.598 26.968 26.388 25.968 25.878 26.108 26.628 27.428 28.458 29.628
1321.367 30.898 32.238 33.498 34.668 35.758 36.728 37.528 38.138 38.548 38.728
1340.657 38.648 38.328 37.748 36.998 36.048 34.988 33.968 32.938 31.808 30.648
1359.947 29.428 28.098 26.718 25.408 24.168 22.958 21.858 20.798 19.778 18.908
1379.237 18.128 17.398 16.758 16.168 15.638 15.128 14.628 14.158 13.728 13.328
1398.527 12.918 12.458 11.968 11.538 11.158 10.768 10.458 10.218 9.998 9.888
1417.817 9.798 9.728 9.748 9.838 9.948 10.028 10.138 10.388 10.718 11.138
1437.107 11.668 12.258 12.998 13.868 14.658 15.228 15.458 15.348 14.968 14.328
1456.397 13.428 12.508 11.818 11.298 10.938 10.638 10.358 10.118 10.038 9.988
1475.687 9.998 10.128 10.408 10.898 11.578 12.488 13.758 15.578 18.108 21.518
1494.977 26.388 33.368 42.748 54.938 69.668 85.168 99.598 108.898 110.838 106.308
1514.267 96.398 81.318 62.688 45.078 30.768 21.988 16.558 13.098 10.868 9.308
1533.557 8.158 7.268 6.648 6.248 5.978 5.718 5.568 5.558 5.548 5.608
1552.847 5.728 5.788 5.778 5.798 5.778 5.748 5.788 5.808 5.868 5.978
1572.137 6.098 6.338 6.708 7.168 7.718 8.358 9.018 9.638 10.278 10.968
1591.427 11.698 12.458 13.298 14.238 15.298 16.388 17.308 17.988 18.418 18.488
1610.717 18.128 17.378 16.268 14.868 13.338 11.718 10.218 8.898 7.728 6.778
1630.007 6.038 5.488 5.038 4.648 4.338 4.138 3.948 3.728 3.558 3.408
1649.297 3.248 3.098 2.958 2.868 2.778 2.658 2.578 2.528 2.428 2.368
1668.587 2.318 2.248 2.208 2.268 2.298 2.288 2.328 2.358 2.388 2.448
1687.877 2.518 2.588 2.658 2.768 2.858 2.938 3.068 3.198 3.328 3.488
1707.167 3.658 3.818 3.998 4.198 4.418 4.658 4.938 5.248 5.608 6.018
1726.457 6.498 6.998 7.578 8.288 9.078 9.958 10.918 11.988 13.098 14.328
1745.747 15.718 17.228 18.898 20.778 22.798 24.988 27.438 30.058 32.918 36.038
1765.037 39.448 43.488 48.518 54.198 60.408 66.048 70.388 73.378 75.048 75.298
1784.327 73.868 71.258 68.758 67.348 67.428 69.048 72.058 76.248 81.268 86.628
1803.617 91.548 95.358 97.348 96.948 93.968 88.598 81.378 72.828 63.568 54.498
1822.907 46.378 39.488 33.868 29.368 25.678 22.738 20.258 18.178 16.468 14.998
1842.197 13.708 12.528 11.438 10.528 9.718 8.928 8.228 7.648 7.168 6.688
1861.487 6.278 5.998 5.728 5.478 5.258 5.028 4.848 4.638 4.438 4.248
1880.777 4.008 3.808 3.588 3.368 3.178 2.998 2.818 2.658 2.548 2.448
1900.067 2.338 2.228 2.108 1.968 1.848 1.778 1.678 1.618 1.578 1.498
1919.357 1.448 1.4062 1.3671 1.3377 1.3318 1.2902 1.2399 1.2386 1.2281 1.1793
1938.647 1.1122 1.0755 1.0713 1.0519 1.0611 1.0604 1.0095 0.9718 0.9662 0.9456
1957.937 0.9215 0.9187 0.915 0.9271 0.9166 0.9249 0.9666 0.9866 0.9905 0.9923
1977.227 0.9932 1.0032 1.0308 1.0193 1.0223 1.0439 1.0209 1.0133 1.0608 1.0563
1996.517 1.0231 1.0423 1.0571 1.0415 1.015 1.008 0.9909 1.0094 1.0515 1.0804
2015.807 1.0995 1.0954 1.0724 1.113 1.1577 1.1506 1.1387 1.1337 1.1536 1.1673
2035.097 1.165 1.1549 1.1438 1.1185 1.1236 1.1313 1.1108 1.1211 1.137 1.1429
2054.387 1.1234 1.1133 1.1227 1.0811 1.0532 1.0419 1.0352 1.0646 1.0775 1.0465
2073.677 1.0696 1.0853 1.0549 1.0601 1.0661 1.042 0.9913 0.9768 1.0071 1.0371
2092.967 1.047 1.002 0.9441 0.9478 0.9227 0.8966 0.9231 0.9104 0.8755 0.8747
2112.257 0.8913 0.8802 0.8358 0.8173 0.8496 0.8596 0.8317 0.8195 0.7986 0.7863
2131.547 0.8108 0.8247 0.8116 0.7886 0.7975 0.7683 0.7341 0.7401 0.7371 0.7615
2150.837 0.7724 0.7071 0.6563 0.6443 0.6426 0.6264 0.5923 0.6199 0.664 0.6885
2170.127 0.6765 0.648 0.6119 0.5846 0.5799 0.5915 0.6183 0.6064 0.6129 0.63
2189.417 0.6025 0.5894 0.6038 0.5902 0.551 0.50441 0.5221 0.538 0.5349 0.5361
2208.707 0.5191 0.5512 0.5401 0.5082 0.47735 0.43974 0.47893 0.5202 0.5197 0.50519
2227.997 0.4991 0.49739 0.5193 0.5318 0.5195 0.48521 0.5091 0.5843 0.5466 0.49179
2247.287 0.5081 0.5453 0.5552 0.5295 0.5175 0.5127 0.514 0.5256 0.48803 0.49194
2266.577 0.5419 0.5521 0.5665 0.6122 0.6186 0.6022 0.6461 0.6696 0.6654 0.6833
2285.868 0.7468 0.8183 0.826 0.8161 0.8762 0.9327 0.9586 1.0362 1.029 0.9803
2305.158 0.9841 1.0128 1.0651 1.0881 1.12 1.1455 1.1624 1.1753 1.1482 1.1604
2324.448 1.1805 1.1679 1.1453 1.1152 1.1251 1.1512 1.1603 1.0909 1.043 1.0793
2343.738 1.0604 1.0151 0.9925 0.9774 0.9682 0.9819 1.01 0.9998 0.9888 0.9875
2363.028 0.9802 0.9288 0.8511 0.8314 0.8302 0.8214 0.791 0.7235 0.6825 0.6452
2382.318 0.6016 0.5819 0.5313 0.49495 0.48193 0.49046 0.5188 0.49462 0.48299 0.47929
2401.608 0.46665 0.5457 0.5793 0.5706 0.566 0.537 0.5572 0.6132 0.6439 0.6142
2420.898 0.587 0.6101 0.6354 0.6436 0.6487 0.6258 0.6268 0.6542 0.6891 0.7054
2440.188 0.6636 0.6641 0.704 0.6975 0.67 0.644 0.6186 0.6108 0.6235 0.6078
2459.478 0.5721 0.5616 0.5301 0.5459 0.606 0.5475 0.4928 0.5172 0.5498 0.5491
2478.768 0.5404 0.5344 0.5702 0.6073 0.5952 0.5613 0.562 0.6098 0.6374 0.5961
2498.058 0.5702 0.5695 0.5845 0.6248 0.574 0.5113 0.5236 0.529 0.535 0.5876
2517.348 0.5587 0.5564 0.5715 0.5297 0.4806 0.46596 0.48963 0.47653 0.46014 0.45568
2536.638 0.414348 0.3612 0.3517 0.387 0.3822 0.3425 0.3385 0.303 0.253 0.276
2555.928 0.276 0.244 0.251 0.265 0.261 0.273 0.289 0.284 0.294 0.262
2575.218 0.188 0.186 0.213 0.153 0.168 0.219 0.172 0.12 0.124 0.157
2594.508 0.154 0.174 0.186 0.151 0.151 0.096 0.066 0.09 0.061 0.073
2613.798 0.082 0.079 0.097 0.143 0.174 0.179 0.177 0.181 0.187 0.134
2633.088 0.131 0.163 0.164 0.146 0.164 0.138 0.106 0.143 0.134 0.083
2652.378 0.093 0.128 0.074 0.052 0.092 0.102 0.06 0.007 0.012 0.077
2671.668 0.068 0 0.003 0.059 0.081 0.11 0.152 0.118 0.145 0.196
2690.958 0.174 0.142 0.157 0.165 0.146 0.181 0.211 0.2 0.179 0.203
2710.248 0.23 0.24 0.193 0.182 0.208 0.214 0.221 0.272 0.3413 0.334
2729.538 0.3494 0.3878 0.3788 0.3815 0.417582 0.457 0.49296 0.5159 0.50073 0.48327
2748.828 0.50289 0.5203 0.5344 0.55 0.5471 0.5757 0.6246 0.6605 0.6965 0.7758
2768.118 0.7959 0.8028 0.8517 0.8974 0.9254 0.8817 0.9113 0.9415 0.9236 0.9125
2787.408 0.8699 0.8696 0.9241 0.9267 0.8877 0.8786 0.895 0.9263 0.9773 1.0242
2806.698 1.0432 1.1033 1.16 1.1432 1.1895 1.3245 1.468 1.478 1.508 1.628
2825.988 1.748 1.868 2.008 2.218 2.388 2.528 2.758 2.948 3.158 3.448
2845.278 3.728 4.048 4.468 4.898 5.388 5.918 6.558 7.318 8.088 8.988
2864.568 9.878 10.698 11.478 12.228 12.808 13.158 13.548 14.008 14.298 14.518
2883.858 14.838 14.898 14.688 14.488 14.188 13.818 13.518 13.308 13.278 13.518
2903.148 13.918 14.258 14.638 15.018 15.368 15.778 16.158 16.618 17.248 18.018
2922.438 18.918 20.008 21.158 22.348 23.688 25.048 26.428 27.828 29.088 30.028
2941.728 30.518 30.498 30.008 29.098 27.808 26.488 25.348 24.598 24.458 24.858
2961.018 26.058 28.128 31.218 35.348 39.798 43.108 44.388 43.808 41.748 38.018
2980.308 32.638 26.868 22.098 18.798 16.598 15.078 13.858 12.828 12.028 11.458
2999.598 10.908 10.308 9.788 9.368 8.968 8.708 8.468 8.298 8.278 8.328
3018.888 8.458 8.728 9.228 9.948 10.988 12.158 13.188 14.168 15.028 15.318
3038.178 14.998 14.238 13.048 11.648 10.248 8.988 8.008 7.298 6.808 6.488
3057.468 6.258 6.068 5.988 5.928 5.908 5.868 5.788 5.788 5.668 5.458
3076.758 5.238 4.958 4.678 4.438 4.188 3.988 3.858 3.778 3.738 3.738
3096.048 3.748 3.678 3.618 3.588 3.458 3.258 3.058 2.878 2.678 2.518
3115.338 2.388 2.268 2.068 1.888 1.838 1.888 1.858 1.608 1.408 1.345
3134.628 1.2834 1.1456 0.9888 0.9155 0.8873 0.8619 0.8783 0.8786 0.8124 0.7471
3153.918 0.7105 0.7205 0.7389 0.7319 0.6727 0.6018 0.5799 0.6091 0.5354 0.48199
3173.208 0.5339 0.5237 0.50698 0.44969 0.3969 0.3697 0.3683 0.339 0.246 0.248
3192.498 0.3216 0.3359 0.3395 0.3859 0.3331 0.221 0.206 0.243 0.287 0.3272
3211.788 0.248 0.155 0.131 0.148 0.118 0.044 0.054 0.153 0.114 0.014
3231.078 0.12 0.086 0.053 0.112 0.066 0.06 0.086 0.108 0.048 0.018
3250.368 0.047 0.027 0.067 0.133 0.118 0.176 0.241 0.231 0.193 0.157
3269.658 0.201 0.21 0.168 0.229 0.289 0.209 0.211 0.271 0.245 0.197
3288.948 0.171 0.231 0.275 0.281 0.298 0.231 0.18 0.307 0.3801 0.307
3308.238 0.3254 0.31 0.259 0.264 0.231 0.225 0.296 0.3119 0.222 0.142
3327.528 0.165 0.252 0.252 0.246 0.227 0.211 0.193 0.104 0.123 0.183
3346.818 0.205 0.296 0.286 0.16 0.123 0.177 0.181 0.154 0.191 0.217
3366.108 0.188 0.188 0.266 0.3593 0.3421 0.314 0.3263 0.29 0.246 0.232
3385.398 0.225 0.208 0.214 0.217 0.236 0.281 0.3551 0.307 0.275 0.239
3404.688 0.224 0.282 0.269 0.289 0.3314 0.3199 0.3492 0.48134 0.5159 0.45836
3423.978 0.49531 0.49548 0.5605 0.718 0.7024 0.6592 0.6916 0.6725 0.5844 0.6547
3443.269 0.727 0.7253 0.7738 0.7861 0.7463 0.7692 0.8779 0.9236 0.884 0.9228
3462.559 1.0047 1.0715 1.184 1.2792 1.408 1.518 1.558 1.638 1.828 1.978
3481.849 2.108 2.328 2.578 2.888 3.218 3.608 4.088 4.528 5.058 5.638
3501.139 6.138 6.908 7.788 8.628 9.748 11.018 12.398 13.898 15.378 16.778
3520.429 17.808 18.298 18.308 17.768 16.768 15.518 14.148 12.828 11.678 10.608
3539.719 9.798 9.178 8.718 8.478 8.308 8.338 8.458 8.828 9.498 10.338
3559.009 11.578 13.268 15.588 18.738 22.798 27.718 32.558 36.458 39.228 40.398
3578.299 39.468 36.498 32.118 27.328 22.578 18.138 14.298 11.248 9.038 7.268
3597.589 6.038 5.208 4.418 3.898 3.518 3.158 2.778 2.468 2.338 2.108
3616.879 1.928 1.768 1.558 1.498 1.508 1.478 1.275 1.1655 1.134 1.0904
3636.169 1.0871 0.9739 0.8695 0.8721 0.9377 0.8476 0.6795 0.7142 0.7967 0.7362
3655.459 0.7269 0.7926 0.8154 0.8127 0.7205 0.6632 0.6285 0.5363 0.46337 0.48263
3674.749 0.50295 0.514 0.5252 0.48261 0.47358 0.5093 0.5436 0.5617 0.5565 0.5813
3694.039 0.5552 0.50329 0.5486 0.579 0.4439 0.44124 0.552 0.48112 0.46261 0.44473
3713.329 0.4139 0.4206 0.3626 0.295 0.3294 0.3965 0.3653 0.3893 0.411381 0.372
3732.619 0.416708 0.42715 0.41902 0.4202 0.3398 0.3312 0.4459 0.3939 0.3586 0.43302
3751.909 0.303 0.246 0.3269 0.3799 0.44546 0.49094 0.47003 0.42695 0.407184 0.40586
3771.199 0.40286 0.43852 0.49932 0.48991 0.44666 0.43404 0.43227 0.3764 0.277 0.276
3790.489 0.28 0.284 0.3 0.269 0.287 0.298 0.3375 0.318 0.273 0.3148
3809.779 0.3571 0.3309 0.298 0.329 0.3107 0.267 0.3369 0.3341 0.3332 0.432
3829.069 0.3874 0.3376 0.3685 0.3527 0.274 0.3219 0.44813 0.4318 0.293 0.296
3848.359 0.411859 0.39917 0.401 0.416768 0.332 0.303 0.32 0.285 0.21 0.28
3867.649 0.3871 0.3626 0.3236 0.3422 0.3937 0.411601 0.3702 0.297 0.3153 0.275
3886.939 0.209 0.303 0.3539 0.259 0.199 0.235 0.261 0.232 0.178 0.198
3906.229 0.296 0.3527 0.3674 0.3515 0.42126 0.5607 0.50345 0.46838 0.407746 0.3239
3925.519 0.3603 0.3519 0.3655 0.3435 0.3448 0.49201 0.5706 0.5609 0.50709 0.410216
3944.809 0.41748 0.411754 0.3763 0.4269 0.3981 0.43086 0.46523 0.416533 0.41431 0.43503
3964.099 0.42412 0.333 0.413436 0.46291 0.42673 0.48885 0.541 0.553 0.48647 0.47099
3983.389 0.5212 0.44165 0.3454 0.3755 0.42718 0.5174 0.5158 0.411003 0.3817 0.44731
##END=
