##TITLE=2-Hydroxyfluorene
##JCAMP-DX=4.24
##DATA TYPE=INFRARED SPECTRUM
##ORIGIN=EPA-IR VAPOR PHASE LIBRARY
##OWNER=SRD/NIST
Collection (C) 2018 copyright by the U.S. Secretary of Commerce
on behalf of the United States of America. All rights reserved.
##CAS REGISTRY NO=2443-58-5
##MOLFORM=C 13 H 10 O
##$NIST SOURCE=MSDC-IR
##STATE=gas
##XUNITS=1/CM
##YUNITS=ABSORBANCE
##XFACTOR=1.
##YFACTOR=0.001
##DELTAX=3.85796
##FIRSTX=551.7
##LASTX=4000.7
##FIRSTY=1.86
##MAXX=4000.7
##MINX=551.688
##MAXY=0.02574
##MINY=0
##NPOINTS=895
##XYDATA=(X++(Y..Y))
551.688 1.86 2.01 2.17 2.51 3.26 4.36 5.8 6.27 5.62 4.14
590.268 2.45 1.52 1.1487 1.0051 0.8325 0.7006 0.6584 0.7289 0.8443 0.8354
628.847 0.7479 0.7931 0.9173 0.9422 0.9605 0.9524 0.8481 0.8182 0.8665 0.8165
667.427 0.7972 0.855 0.8753 0.9434 1.0322 1.1137 1.1608 1.1323 1.1506 1.4159
706.006 2.24 3.8 6 8.39 10.82 13.88 13.33 10.29 8.36 6.57
744.586 5.81 6.5 8.16 10.36 12.28 11.17 8.46 6.1 4.09 2.8
783.165 2.13 1.97 2.08 2.38 2.85 3.46 3.82 3.82 3.86 4.02
821.745 4.11 4.17 4.4 4.66 4.35 3.75 3.4 3.16 3 2.98
860.324 2.96 2.6 2.2 1.92 1.66 1.4535 1.3136 1.2855 1.2576 1.1914
898.904 1.22 1.3155 1.3752 1.57 2.13 3.07 4.32 5.64 6.53 6.42
937.484 5.39 4.07 3.09 2.53 2.08 1.74 1.4766 1.2334 1.0817 0.9994
976.063 0.9719 0.9718 0.9975 1.1227 1.272 1.3924 1.53 1.58 1.56 1.54
1014.643 1.6 1.87 2.2 2.29 2.12 1.63 1.0947 0.9464 1.0697 1.1683
1053.222 1.1483 1.1626 1.2771 1.4195 1.53 1.69 1.91 2.38 3.29 4.3
1091.802 5.29 6.32 7.41 8.96 10.62 11.62 11.71 10.92 10.51 10.67
1130.381 10.16 9.13 7.6 6.26 6.45 7.65 9 11.01 14.6 19.69
1168.961 24.21 25.74 23.56 19.05 15.5 14.72 15.74 16.45 15.61 13.07
1207.540 9.8 7.56 6.32 5.36 4.55 4.04 3.9 4 4.21 4.69
1246.120 5.72 7.57 10.6 14.52 17.88 18.69 16.46 12.16 8.15 6.27
1284.699 6.08 6.53 7.54 9.24 12.01 15.12 16.2 14.48 10.45 6.26
1323.279 4.51 4.75 5.56 6.18 6.24 5.76 4.85 3.84 2.98 2.28
1361.859 1.86 1.71 1.59 1.4208 1.3108 1.2886 1.3233 1.4637 1.72 2.14
1400.438 2.75 3.47 3.99 4.28 4.58 4.82 5.38 6.52 7.74 8.48
1439.018 8.63 8.79 10.44 14.61 18.96 20.49 18.54 14.18 10.7 9.84
1477.597 10.2 10.42 9.94 8.96 7.72 6.34 5.11 4.17 3.52 3.23
1516.177 3.06 2.86 2.58 2.27 1.97 1.71 1.52 1.3808 1.333 1.4181
1554.756 1.65 2.05 2.61 3.29 4.14 5.01 5.88 6.78 7.74 8.55
1593.336 8.94 8.85 8.86 9.72 11.2 12.21 12.1 10.85 8.9 6.9
1631.915 5.21 3.93 3.21 2.87 2.63 2.33 2.01 1.79 1.59 1.4462
1670.495 1.3983 1.3728 1.3259 1.2604 1.2031 1.1528 1.092 1.0303 1.0278 1.0807
1709.075 1.0812 1.0353 0.9883 0.938 0.8626 0.7849 0.7137 0.6854 0.682 0.7042
1747.654 0.739 0.734 0.7501 0.7667 0.7793 0.7898 0.8194 0.8614 0.8561 0.8608
1786.234 0.8772 0.8815 0.8946 0.883 0.8667 0.8585 0.8485 0.8723 0.9302 1.0104
1824.813 1.0404 1.0386 1.0221 0.9872 0.9983 1.0035 1.009 1.0224 1.0271 1.0327
1863.393 1.0286 1.031 1.0658 1.1141 1.1233 1.0763 1.0086 0.9597 0.8801 0.7925
1901.972 0.7645 0.752 0.7419 0.7347 0.7527 0.8327 0.9436 1.0811 1.2245 1.2319
1940.552 1.0538 0.8283 0.6586 0.58239 0.55485 0.53301 0.53142 0.53979 0.55697 0.5745
1979.131 0.58536 0.56898 0.53408 0.50265 0.4926 0.4898 0.50541 0.52685 0.518833 0.51871
2017.711 0.5446 0.57968 0.58832 0.58655 0.5971 0.58754 0.57206 0.55641 0.53939 0.5226
2056.291 0.4787 0.4634 0.4911 0.4936 0.4739 0.4722 0.4589 0.4377 0.4388 0.4507
2094.870 0.481 0.4905 0.4782 0.4806 0.475 0.4668 0.4662 0.4538 0.4566 0.4675
2133.450 0.4584 0.4557 0.4572 0.455 0.4515 0.4739 0.484 0.4507 0.4474 0.4599
2172.029 0.4737 0.4964 0.513716 0.539 0.55131 0.55313 0.56613 0.57839 0.55632 0.53035
2210.609 0.50897 0.51219 0.514123 0.4883 0.4922 0.4997 0.50891 0.519913 0.51649 0.499
2249.188 0.4879 0.4929 0.50093 0.52582 0.55201 0.55416 0.54374 0.518043 0.50775 0.4835
2287.768 0.4656 0.4889 0.516734 0.54474 0.54092 0.55657 0.58289 0.58497 0.58746 0.59138
2326.347 0.59608 0.6072 0.6318 0.6287 0.6101 0.6112 0.6307 0.6502 0.6401 0.6225
2364.927 0.6434 0.6734 0.676 0.6803 0.6693 0.6613 0.6505 0.6535 0.6482 0.6183
2403.507 0.6154 0.6158 0.58573 0.57012 0.57096 0.57307 0.60374 0.6577 0.6653 0.6277
2442.086 0.6213 0.6208 0.59632 0.58519 0.60011 0.57804 0.54491 0.52341 0.514152 0.52327
2480.666 0.5609 0.54217 0.50051 0.50006 0.4896 0.473 0.4677 0.4908 0.4832 0.4719
2519.245 0.496 0.51324 0.50235 0.4926 0.4807 0.4696 0.4854 0.50211 0.4749 0.4457
2557.825 0.4274 0.4295 0.4347 0.4411 0.4602 0.4454 0.4562 0.4906 0.53176 0.55902
2596.404 0.58751 0.6167 0.59673 0.60352 0.6208 0.57837 0.52058 0.52029 0.50054 0.4501
2634.984 0.463 0.4706 0.4204 0.398 0.395 0.395 0.365 0.357 0.374 0.358
2673.563 0.401 0.4239 0.406 0.4231 0.4401 0.4313 0.394 0.407 0.4151 0.399
2712.143 0.4165 0.4101 0.4217 0.4363 0.4171 0.365 0.352 0.378 0.386 0.371
2750.722 0.34 0.349 0.409 0.4212 0.4342 0.4371 0.415 0.4259 0.4538 0.50256
2789.302 0.54741 0.6564 0.7687 0.8384 0.9184 0.9628 0.9519 0.8567 0.7222 0.6295
2827.882 0.55114 0.4798 0.4133 0.39 0.406 0.433 0.407 0.371 0.373 0.401
2866.461 0.4813 0.510046 0.50615 0.57859 0.6879 0.8243 1.1084 1.4998 2.03 2.84
2905.041 3.72 4.21 4.54 4.58 4.17 3.78 2.96 2.09 1.54 1.0602
2943.620 0.7743 0.60333 0.54469 0.55376 0.515869 0.4943 0.50551 0.4913 0.53039 0.58248
2982.200 0.6466 0.7697 0.9764 1.2473 1.65 2.29 3.15 4.35 5.66 6.74
3020.779 7.5 7.74 7.5 7.15 6.84 6.6 6.47 6.52 6.72 7.24
3059.359 8.07 8.96 9.63 9.73 9.08 7.93 6.53 5.12 3.99 3.13
3097.938 2.5 1.98 1.56 1.2354 0.9352 0.751 0.6223 0.52976 0.4559 0.4435
3136.518 0.4701 0.4715 0.50068 0.50892 0.52773 0.59731 0.6481 0.6335 0.57427 0.4801
3175.098 0.36 0.285 0.325 0.345 0.366 0.384 0.333 0.28 0.247 0.247
3213.677 0.276 0.248 0.219 0.226 0.22 0.217 0.201 0.226 0.254 0.227
3252.257 0.21 0.229 0.254 0.228 0.184 0.152 0.127 0.125 0.157 0.205
3290.836 0.188 0.19 0.25 0.197 0.184 0.213 0.186 0.182 0.207 0.172
3329.416 0.205 0.317 0.294 0.286 0.329 0.32 0.309 0.337 0.32 0.284
3367.995 0.341 0.343 0.308 0.301 0.311 0.364 0.353 0.348 0.389 0.359
3406.575 0.339 0.309 0.298 0.354 0.312 0.271 0.274 0.33 0.337 0.297
3445.154 0.232 0.222 0.317 0.327 0.222 0.183 0.248 0.274 0.231 0.22
3483.734 0.167 0.171 0.25 0.228 0.205 0.19 0.211 0.2 0.181 0.184
3522.314 0.108 0.106 0.232 0.307 0.263 0.191 0.228 0.253 0.202 0.172
3560.893 0.16 0.154 0.189 0.284 0.348 0.307 0.247 0.267 0.286 0.328
3599.473 0.4118 0.4446 0.433 0.52903 0.6725 0.7867 1.0581 1.4396 2.1 3.38
3638.052 5.62 9.62 15.1 19.43 19.57 16.08 10.08 4.67 2.22 1.3283
3676.632 0.8286 0.58558 0.4549 0.356 0.346 0.333 0.302 0.29 0.18 0.177
3715.211 0.238 0.273 0.359 0.336 0.229 0.169 0.2 0.194 0.218 0.205
3753.791 0.159 0.173 0.172 0.159 0.183 0.2 0.223 0.215 0.208 0.247
3792.370 0.197 0.166 0.218 0.212 0.191 0.222 0.252 0.259 0.241 0.241
3830.950 0.234 0.226 0.278 0.271 0.189 0.198 0.245 0.298 0.32 0.33
3869.530 0.351 0.33 0.316 0.309 0.297 0.313 0.273 0.244 0.271 0.231
3908.109 0.189 0.164 0.192 0.243 0.204 0.122 0.126 0.163 0.179 0.213
3946.689 0.133 0.16 0.216 0.228 0.223 0.135 0.134 0.155 0.164 0.141
3985.268 0.169 0.142 0.008 0 0.067
##END=
