##TITLE=1,3-Dibromo-3-methylbutane
##JCAMP-DX=4.24
##DATA TYPE=INFRARED SPECTRUM
##ORIGIN=NIST Mass Spectrometry Data Center
##OWNER=NIST Standard Reference Data Program
Collection (C) 2018 copyright by the U.S. Secretary of Commerce
on behalf of the United States of America. All rights reserved.
##CAS REGISTRY NO=24443-15-0
##MOLFORM=C 5 H 10 Br 2
##$NIST SOURCE=MSDC-IR
##SPECTROMETER/DATA SYSTEM=HP-GC/MS/IRD
##STATE=gas
##XUNITS=1/CM
##YUNITS=ABSORBANCE
##XFACTOR=1.0
##YFACTOR=0.000003400
##DELTAX=4.0
##FIRSTX=550.0
##LASTX=3846.0
##FIRSTY=0.002462
##MAXX=3846
##MINX=550
##MAXY=0.034
##MINY=0
##NPOINTS=825
##XYDATA=(X++(Y..Y))
550.0 724 1054 1090 1388 1495 1443 1280 1047 797 638
590.0 519 448 450 438 401 366 353 344 348 386
630.0 478 613 799 1065 1432 1875 2341 2700 2805 2574
670.0 2053 1416 881 563 399 297 224 167 136 110
710.0 64 34 25 2 5 57 109 185 298 431
750.0 560 637 643 581 474 380 328 313 311 328
790.0 379 468 527 564 591 612 650 693 778 914
830.0 1079 1201 1188 1015 769 571 448 372 346 351
870.0 364 393 435 513 625 755 820 829 856 851
910.0 781 682 608 549 527 515 486 460 427 379
950.0 352 336 347 386 448 517 530 470 387 317
990.0 270 247 241 279 326 351 374 374 342 312
1030.0 294 296 308 307 319 348 354 365 398 451
1070.0 556 771 1147 1718 2428 3164 3851 4364 4690 4799
1110.0 4586 4088 3438 2920 2731 2856 3223 3637 3872 3867
1150.0 3606 3210 2948 2936 3218 3771 4476 5088 5302 5047
1190.0 4467 3849 3501 3469 3607 3805 4063 4400 4828 5177
1230.0 5165 4704 3939 3185 2583 2096 1693 1378 1155 1010
1270.0 937 952 1017 1129 1275 1378 1401 1353 1241 1100
1310.0 1000 972 1051 1258 1541 1848 2111 2188 2084 1845
1350.0 1548 1415 1560 1971 2575 3265 3955 4144 3888 3680
1390.0 3338 2838 2253 1598 1129 927 889 972 1150 1409
1430.0 1747 2170 2677 3196 3702 4113 4226 3994 3642 3217
1470.0 2753 2291 1776 1269 905 685 554 483 436 414
1510.0 395 371 358 341 326 318 306 294 289 279
1550.0 262 250 243 237 234 230 226 224 223 220
1590.0 216 213 200 185 179 173 166 156 151 155
1630.0 167 178 189 209 221 213 207 193 169 137
1670.0 104 72 43 28 16 13 13 9 12 6
1710.0 0 5 1 1 1 4 11 15 18 24
1750.0 35 39 38 41 46 46 44 47 55 63
1790.0 73 80 84 88 84 82 83 82 75 74
1830.0 68 56 57 57 50 44 39 39 42 41
1870.0 41 44 46 44 40 40 36 30 30 41
1910.0 39 36 38 34 27 25 32 33 35 34
1950.0 30 31 30 26 23 23 24 25 27 32
1990.0 35 26 26 30 27 24 26 25 25 24
2030.0 21 24 29 29 26 24 25 24 20 17
2070.0 19 14 11 10 11 12 13 19 22 18
2110.0 16 19 22 24 26 25 27 30 28 26
2150.0 29 30 33 37 42 51 53 53 58 64
2190.0 66 65 67 61 51 47 40 34 29 29
2230.0 21 9 12 13 7 4 1 0 2 5
2270.0 12 17 16 20 26 28 34 33 38 42
2310.0 45 47 40 32 32 32 34 40 39 32
2350.0 32 37 35 37 37 40 49 50 51 48
2390.0 48 47 43 44 46 48 42 35 34 26
2430.0 29 36 30 28 28 30 31 32 29 30
2470.0 36 35 33 28 25 27 23 23 25 26
2510.0 22 20 21 20 20 26 26 25 25 23
2550.0 24 22 21 22 26 24 20 28 37 41
2590.0 46 44 40 40 53 56 53 64 71 71
2630.0 70 67 70 73 75 89 99 110 121 126
2670.0 133 141 144 128 115 116 115 107 105 102
2710.0 101 107 122 142 166 197 221 235 232 217
2750.0 207 195 177 169 181 202 220 228 228 222
2790.0 212 218 229 234 259 299 342 391 444 492
2830.0 547 624 732 859 1006 1164 1341 1538 1750 1981
2870.0 2220 2419 2572 2681 2745 2828 2975 3201 3553 4034
2910.0 4586 5177 5787 6344 6726 6840 6626 6073 5311 4538
2950.0 3914 3585 3588 3980 4973 6485 7920 8796 9164 9488
2990.0 10000 9767 8307 6154 3981 2526 1775 1382 1197 1083
3030.0 974 847 703 568 446 360 311 298 310 313
3070.0 320 359 410 419 425 410 356 305 260 217
3110.0 193 190 161 125 123 123 108 105 100 92
3150.0 92 94 93 93 101 97 97 109 104 93
3190.0 101 105 117 149 152 149 150 165 173 168
3230.0 168 162 164 175 184 187 184 171 148 131
3270.0 115 109 101 69 58 58 56 50 27 27
3310.0 24 11 14 11 5 0 4 3 11 27
3350.0 16 10 23 33 25 19 30 39 41 55
3390.0 55 44 49 45 39 32 35 44 43 37
3430.0 29 33 41 47 51 55 49 39 29 26
3470.0 31 33 38 45 48 52 66 70 54 44
3510.0 28 33 52 47 48 58 46 37 45 53
3550.0 38 33 37 45 63 51 47 55 42 35
3590.0 42 50 62 70 62 48 30 30 47 33
3630.0 21 49 70 57 56 59 58 59 45 43
3670.0 53 61 66 55 47 50 53 58 66 64
3710.0 55 49 53 53 59 59 59 57 45 48
3750.0 42 51 56 62 63 48 46 50 66 84
3790.0 72 62 64 62 65 68 66 73 72 65
3830.0 70 73 83 86 85
##END=
