##TITLE=2,12-Dibromocyclododecanone
##JCAMP-DX=4.24
##DATA TYPE=INFRARED SPECTRUM
##ORIGIN=EPA-IR VAPOR PHASE LIBRARY
##OWNER=SRD/NIST
Collection (C) 2018 copyright by the U.S. Secretary of Commerce
on behalf of the United States of America. All rights reserved.
##CAS REGISTRY NO=24459-40-3
##MOLFORM=C 12 H 20 Br 2 O
##$NIST SOURCE=MSDC-IR
##STATE=gas
##XUNITS=1/CM
##YUNITS=ABSORBANCE
##XFACTOR=1.
##YFACTOR=0.001
##DELTAX=3.85796
##FIRSTX=501.5
##LASTX=4000.7
##FIRSTY=0.5903
##MAXX=4000.7
##MINX=501.534
##MAXY=0.047688
##MINY=0
##NPOINTS=908
##XYDATA=(X++(Y..Y))
501.534 0.5903 0.5349 0.4834 0.6536 0.7857 0.7948 0.7352 0.5864 0.6322 0.6373
540.114 0.6281 0.7537 0.8241 0.866 0.8427 0.8646 1.0257 1.0934 1.1006 1.1309
578.693 1.0711 1.0635 1.0459 1.041 1.0679 1.0752 1.178 1.258 1.398 1.658
617.273 1.848 2.048 2.388 2.678 2.718 2.478 2.118 1.818 1.658 1.608
655.852 1.598 1.588 1.618 1.618 1.658 1.708 1.648 1.558 1.528 1.498
694.432 1.478 1.618 1.698 1.688 1.758 1.828 1.928 2.158 2.388 2.558
733.011 2.668 2.568 2.308 2.048 1.848 1.658 1.508 1.438 1.428 1.448
771.591 1.438 1.468 1.548 1.648 1.688 1.628 1.518 1.388 1.318 1.208
810.170 1.0801 1.009 1.0135 1.0233 1.0491 1.1333 1.198 1.218 1.188 1.158
848.750 1.178 1.218 1.178 1.1215 1.0614 1.0603 1.1489 1.218 1.268 1.278
887.330 1.228 1.168 1.198 1.218 1.1533 1.126 1.1001 1.0485 0.9902 0.9341
925.909 0.9111 0.9396 0.9968 1.0417 1.1383 1.228 1.308 1.428 1.598 1.818
964.489 2.028 2.128 2.078 1.968 1.878 1.848 1.888 1.928 1.958 2.098
1003.068 2.208 2.178 2.128 2.138 2.178 2.298 2.438 2.478 2.378 2.278
1041.648 2.248 2.188 2.118 2.238 2.518 2.818 3.088 3.228 3.218 3.038
1080.227 2.718 2.378 2.328 2.378 2.428 2.558 2.668 2.768 2.668 2.368
1118.807 2.088 1.918 1.758 1.668 1.758 1.898 2.078 2.308 2.448 2.458
1157.387 2.528 2.718 2.998 3.188 3.218 3.148 3.138 3.128 3.018 2.908
1195.966 2.838 2.768 2.708 2.688 2.728 2.828 2.918 2.918 2.838 2.938
1234.546 3.138 3.108 2.998 2.888 2.818 2.828 2.818 2.778 2.758 2.808
1273.125 2.858 2.808 2.658 2.478 2.418 2.428 2.398 2.318 2.248 2.248
1311.705 2.218 2.208 2.278 2.418 2.608 2.768 2.888 3.058 3.268 3.568
1350.284 3.828 3.938 3.808 3.448 2.938 2.368 1.858 1.498 1.248 1.0702
1388.864 0.9763 0.9035 0.8619 0.8714 0.9071 0.9636 1.0258 1.1198 1.248 1.468
1427.443 1.848 2.538 3.658 5.008 6.138 6.738 6.698 6.228 5.838 5.868
1466.023 6.008 5.628 4.478 3.098 2.068 1.438 1.087 0.8716 0.7504 0.674
1504.603 0.5977 0.5172 0.4789 0.4528 0.4187 0.3997 0.3894 0.3755 0.3625 0.3622
1543.182 0.3594 0.3458 0.3418 0.3389 0.3243 0.3237 0.3305 0.342 0.333 0.3334
1581.762 0.3469 0.3415 0.3389 0.3472 0.3671 0.3628 0.3778 0.4114 0.4443 0.4778
1620.341 0.5141 0.5856 0.6547 0.6638 0.635 0.5878 0.5174 0.474 0.4643 0.4768
1658.921 0.4909 0.5075 0.5471 0.5972 0.6953 0.8185 0.9375 1.1031 1.348 1.638
1697.500 1.958 2.358 2.978 3.908 5.038 5.938 6.398 6.928 8.078 9.618
1736.080 10.788 10.738 9.088 6.478 4.118 2.628 1.818 1.348 1.0612 0.8814
1774.659 0.7568 0.6632 0.5812 0.5248 0.4722 0.4423 0.4139 0.3712 0.34 0.3083
1813.239 0.281 0.2608 0.2604 0.25284 0.24198 0.24622 0.2553 0.24685 0.22105 0.22277
1851.819 0.23371 0.22796 0.21682 0.20773 0.19587 0.19061 0.18711 0.18284 0.18941 0.19283
1890.398 0.18697 0.18069 0.18073 0.17431 0.157146 0.15326 0.164277 0.15401 0.1414 0.161168
1928.978 0.166805 0.1447 0.1447 0.1304 0.1184 0.1275 0.1275 0.1407 0.165551 0.15321
1967.557 0.1453 0.167639 0.161615 0.15185 0.1483 0.1441 0.15044 0.17192 0.17548 0.16137
2006.137 0.157251 0.160097 0.167282 0.163749 0.166096 0.158466 0.15612 0.16959 0.165153 0.15646
2044.716 0.15679 0.159754 0.15256 0.160846 0.16802 0.161591 0.15373 0.14826 0.167502 0.17755
2083.296 0.157193 0.145 0.161411 0.1773 0.1867 0.18048 0.158168 0.162111 0.17849 0.18298
2121.875 0.16749 0.17079 0.18444 0.16971 0.164619 0.18265 0.21339 0.21499 0.18421 0.164667
2160.455 0.16247 0.160722 0.15397 0.163584 0.18294 0.17082 0.1735 0.2003 0.20929 0.21109
2199.035 0.19243 0.18287 0.18297 0.17407 0.17739 0.17552 0.16946 0.17831 0.16946 0.15421
2237.614 0.15837 0.15005 0.1457 0.163121 0.18619 0.20163 0.18875 0.17676 0.166328 0.16466
2276.194 0.18638 0.19855 0.19613 0.18869 0.17424 0.18596 0.20303 0.18268 0.17473 0.19887
2314.773 0.1916 0.17271 0.17969 0.17604 0.19273 0.19722 0.18944 0.19419 0.19504 0.19274
2353.353 0.20177 0.2001 0.17722 0.19902 0.21066 0.17965 0.163755 0.18754 0.20226 0.19379
2391.932 0.21371 0.21262 0.2066 0.21312 0.20384 0.19875 0.18082 0.17886 0.19995 0.19477
2430.512 0.1818 0.1764 0.17319 0.16848 0.1686 0.19891 0.20174 0.18577 0.18468 0.18059
2469.092 0.18027 0.19103 0.20928 0.20605 0.19878 0.21395 0.21634 0.21064 0.21294 0.20562
2507.671 0.1966 0.19653 0.20125 0.19751 0.20822 0.22386 0.2284 0.24001 0.22623 0.2174
2546.251 0.23162 0.2293 0.22193 0.20729 0.18899 0.19074 0.18347 0.18535 0.21546 0.22272
2584.830 0.20502 0.21368 0.2137 0.22572 0.23707 0.22788 0.23396 0.24525 0.2775 0.2868
2623.410 0.2819 0.2869 0.3287 0.3484 0.3375 0.3505 0.3763 0.4151 0.431 0.4541
2661.989 0.4947 0.5016 0.5186 0.5608 0.5711 0.5971 0.6183 0.6044 0.6059 0.5714
2700.569 0.5341 0.5283 0.506 0.4775 0.4508 0.4346 0.4161 0.4209 0.4533 0.437
2739.148 0.4316 0.446 0.4648 0.4962 0.4951 0.51 0.5084 0.5217 0.5655 0.5783
2777.728 0.587 0.5817 0.6408 0.7219 0.7732 0.8326 0.8878 0.95 1.0083 1.096
2816.308 1.208 1.308 1.428 1.568 1.718 1.908 2.218 2.728 3.688 5.518
2854.887 8.438 11.738 13.868 14.158 13.588 12.988 12.188 10.948 9.548 8.378
2893.467 7.758 7.868 8.808 10.918 14.358 18.428 22.118 25.498 29.928 35.698
2932.046 41.718 46.418 47.688 44.028 36.898 30.318 26.108 22.718 19.058 15.388
2970.626 12.168 9.618 7.678 6.318 5.338 4.448 3.638 2.918 2.388 2.008
3009.205 1.658 1.398 1.248 1.1077 0.9752 0.9061 0.856 0.787 0.7134 0.642
3047.785 0.6276 0.6132 0.5468 0.4876 0.4611 0.4469 0.3891 0.3388 0.3613 0.3639
3086.364 0.3858 0.3923 0.3402 0.2919 0.2731 0.2858 0.24827 0.18366 0.19399 0.24068
3124.944 0.25229 0.21373 0.18953 0.19904 0.17201 0.1503 0.15549 0.146 0.16595 0.21088
3163.524 0.21621 0.18787 0.1446 0.1247 0.159509 0.20146 0.21094 0.1803 0.1255 0.1261
3202.103 0.1151 0.1346 0.160383 0.157568 0.15672 0.1264 0.15642 0.165049 0.1325 0.139
3240.683 0.158269 0.1342 0.0925 0.0882 0.0767 0.0823 0.1156 0.1065 0.0862 0.0669
3279.262 0.0822 0.1158 0.1328 0.1125 0.1044 0.1196 0.1056 0.1242 0.1363 0.1022
3317.842 0.057 0.0855 0.1411 0.1281 0.017 0 0.06 0.0806 0.1073 0.0768
3356.421 0.0922 0.1235 0.1292 0.1089 0.0711 0.052 0.048 0.069 0.0936 0.1156
3395.001 0.159216 0.19799 0.15058 0.161016 0.21892 0.21613 0.22753 0.24207 0.2343 0.24872
3433.580 0.25098 0.2501 0.25723 0.24223 0.23811 0.23464 0.23533 0.2259 0.23996 0.2611
3472.160 0.21833 0.1777 0.18648 0.17387 0.129 0.1026 0.0924 0.0986 0.1236 0.1279
3510.740 0.0949 0.0975 0.1164 0.1098 0.1457 0.15592 0.18752 0.18663 0.1236 0.1018
3549.319 0.0974 0.0698 0.035 0.045 0.042 0.1078 0.15581 0.0916 0.0667 0.053
3587.899 0.021 0.026 0.016 0.052 0.1129 0.1034 0.0639 0.0671 0.0903 0.106
3626.478 0.0825 0.0799 0.0723 0.0826 0.15068 0.160125 0.1174 0.1081 0.1006 0.1088
3665.058 0.1429 0.163753 0.1395 0.0962 0.0915 0.088 0.1256 0.1062 0.0854 0.0872
3703.637 0.1124 0.1282 0.1039 0.1518 0.18748 0.1285 0.1072 0.1546 0.17139 0.1387
3742.217 0.0781 0.0877 0.1084 0.1094 0.0904 0.053 0.049 0.0763 0.1448 0.1454
3780.797 0.0973 0.1189 0.15483 0.1341 0.1206 0.101 0.1251 0.21976 0.19729 0.1451
3819.376 0.1508 0.1384 0.0892 0.0687 0.1069 0.1269 0.1167 0.1165 0.1243 0.18334
3857.956 0.20188 0.1136 0.0604 0.0797 0.1028 0.0841 0.0586 0.0754 0.0937 0.069
3896.535 0.0777 0.1101 0.1406 0.1381 0.1241 0.145 0.167967 0.167906 0.1132 0.1109
3935.115 0.18858 0.17421 0.15444 0.1222 0.1024 0.1057 0.1082 0.1394 0.119 0.1206
3973.694 0.1229 0.1291 0.159446 0.1235 0.1206 0.17659 0.1862 0.20389
##END=
