##TITLE=9-Chloromethyl anthracene
##JCAMP-DX=4.24
##DATA TYPE=INFRARED SPECTRUM
##ORIGIN=EPA-IR VAPOR PHASE LIBRARY
##OWNER=SRD/NIST
Collection (C) 2018 copyright by the U.S. Secretary of Commerce
on behalf of the United States of America. All rights reserved.
##CAS REGISTRY NO=24463-19-2
##MOLFORM=C 15 H 11 Cl
##$NIST SOURCE=MSDC-IR
##STATE=gas
##XUNITS=1/CM
##YUNITS=ABSORBANCE
##XFACTOR=1.
##YFACTOR=0.001
##DELTAX=1.92898
##FIRSTX=549.8
##LASTX=4000.7
##FIRSTY=3.55
##MAXX=4000.7
##MINX=549.759
##MAXY=0.04025
##MINY=0
##NPOINTS=1790
##XYDATA=(X++(Y..Y))
549.759 3.55 3.87 3.24 3.64 3.77 2.85 1.4953 1.3113 1.88 1.3596
569.049 0.89326 1.3672 2.03 2.08 1.6727 1.7271 1.461 1.5219 2.32 2.74
588.339 3.08 3.65 5.37 7.46 9.96 13.26 16.13 18.59 19.67 19.29
607.628 17.83 14.86 12.45 10.71 8.16 5.34 3.59 3.46 3.03 1.7933
626.918 1.353 1.0651 1.1955 1.93 1.85 1.5732 1.84 2.01 1.7473 1.747
646.208 1.6346 1.5402 1.5644 1.6857 1.96 2.3 2.25 1.6751 1.88 2.27
665.498 1.89 1.4879 1.6282 1.3039 1.4063 1.7019 1.7507 1.6161 1.7682 2.84
684.787 3.6 4.4 5.97 7.04 7.66 8.86 9.78 10.07 9.6 9
704.077 8.74 8.64 8.19 7.12 7.25 8.06 8.92 10.9 13.89 18.46
723.367 24.39 30.39 35.96 40.25 39.56 34.76 29.93 24.99 18.99 14.17
742.657 10.34 7.02 5.13 4 3.38 3.12 3.38 3.44 3.26 2.57
761.947 1.99 1.84 1.82 1.86 2.02 2.87 3.27 3.8 4.47 5.21
781.236 6.27 7.44 9.11 11.65 11.94 9.64 8.01 6.58 4.87 3.65
800.526 3.26 2.76 2.98 2.85 2.09 1.5104 1.3835 1.6188 1.4223 1.3489
819.816 0.603 0.7588 2.24 3.26 4.33 5.62 6.5 7.67 9.14 10.33
839.106 10.69 10.11 9.44 8.13 7.08 6.61 6.03 6.02 6.09 5.36
858.395 5.27 5.11 4.91 5.7 6.05 6.12 5.84 6.16 7.03 7.38
877.685 8.24 9.44 11.18 13.36 13.65 11.06 8.52 7.34 6.03 4.56
896.975 3.61 2.81 2.22 2.05 1.87 1.6922 1.2557 0.96 1.5963 2.19
916.265 1.7056 1.5547 1.7122 1.86 1.84 1.398 1.4692 1.6413 1.4872 1.252
935.555 1.3663 1.5861 1.1705 1.5272 2.21 2.09 2.83 3.47 3.28 3.13
954.844 3.45 3.09 2.27 2.17 1.85 1.6482 2.24 1.82 0.7544 0.987
974.134 0.7266 0.7277 1.362 1.486 1.5507 1.3053 1.6953 2.14 1.1544 0.7702
993.424 1.2649 1.1372 0.9153 0.619 0.455 1.2832 1.1814 1.3198 2.09 2.19
1012.714 2.14 2.48 4.04 4.43 4.17 4.93 4.06 2.79 2.45 1.7381
1032.003 1.2244 0.7721 0.513 0.89014 1.6537 2.41 2.62 1.98 1.6212 1.6979
1051.293 2.89 3.61 2.47 1.7342 1.6353 2.13 2.06 1.5849 1.3374 1.1138
1070.583 0.807235 0.331 0.179 0 0.211 1.1447 2.45 2.55 1.3383 0.954
1089.873 1.83 2.19 0.801227 0.278 0.9187 0.423 1.0618 1.8 0.694 2.22
1109.163 3.07 0.9198 1.0726 1.6236 1.0363 0.86158 2.47 2.64 0.7549 1.0101
1128.452 1.3008 0.623 0.537 0.88091 1.85 3.13 2.89 1.3563 0.89185 1.5144
1147.742 2.21 2.1 2.37 3.61 3.64 2.95 3.08 3.74 3.98 3.78
1167.032 3.33 2.2 2.39 2.58 2.16 2.56 2.22 2 1.7282 1.6536
1186.322 2.44 3 3.91 2.95 2.03 2.83 3.2 3.19 2.61 3.54
1205.611 5.12 3.05 2.18 4.33 4.42 4.09 4.12 4.26 2.47 1.1879
1224.901 2.85 3.07 2.05 2.03 3.64 4.98 6.38 7.17 6.67 8.02
1244.191 10.52 11.79 11.45 11.75 12.7 13.05 12.08 10.7 9.75 8.17
1263.481 6.51 5.17 4.17 3.68 3.34 3.26 2.96 2.52 2.59 2.63
1282.771 2.42 2.87 3.14 2.37 2.05 1.7761 1.5799 1.7084 1.5379 1.4534
1302.060 1.3634 1.3506 1.3923 1.6146 1.5892 1.4914 1.4825 1.367 1.273 1.1623
1321.350 1.3689 1.3443 1.15 1.177 1.1057 1.2623 1.4438 1.2623 1.1341 1.2503
1340.640 1.2526 1.102 1.1596 1.2497 1.1244 1.0819 1.0943 1.0355 1.0037 0.83061
1359.930 0.81207 0.9244 1.0531 0.934 0.9178 1.0632 1.0488 1.1996 1.3067 1.2289
1379.219 1.1873 1.2022 1.2542 1.4331 1.4935 1.4717 1.4408 1.2972 1.4225 1.4421
1398.509 1.246 1.1834 1.2429 1.1453 1.0184 1.1105 1.3075 1.4751 1.2932 1.1498
1417.799 1.0755 1.0985 1.0622 0.935 1.1561 1.559 1.5773 1.7301 2.34 3.04
1437.089 3.5 3.98 4.89 5.67 6.36 7.06 7.64 7.83 7.81 7.65
1456.378 7.26 6.78 6.18 5.85 5.47 4.87 4.15 3.45 2.99 2.67
1475.668 2.59 2.33 2.05 1.93 1.9 2.41 2.43 2.21 2.43 2.4
1494.958 2.38 2.42 2.32 2.1 2.12 2.24 2.1 2.12 2.36 2.58
1514.248 2.86 3.09 3.18 3.33 3.62 3.97 3.83 3.47 3.42 3.14
1533.538 2.77 2.58 2.44 2.05 1.7181 1.5266 1.384 1.4949 1.3381 1.3825
1552.827 1.7065 1.5433 1.4642 1.6154 1.548 1.734 1.9 1.7619 1.4968 1.3613
1572.117 1.4654 1.7028 1.88 1.6587 1.3023 1.2715 1.5056 1.43 1.3969 1.73
1591.407 1.4506 1.2711 1.4361 1.3402 1.2838 1.0392 1.0736 1.3124 1.5184 1.6814
1610.697 1.6127 1.6985 2.15 2.43 2.36 2.38 2.7 2.86 2.82 2.9
1629.986 2.86 2.62 2.28 1.98 1.6526 1.2753 1.0954 1.2254 1.511 1.6192
1649.276 1.4148 1.4376 1.6453 1.4304 1.1255 1.0323 1.1564 1.6107 1.7014 1.6566
1668.566 1.84 1.87 1.87 2.19 2.6 2.68 2.64 2.39 2.49 2.36
1687.856 2.23 2.53 2.67 2.77 2.65 2.45 2.42 2.47 2.43 2.08
1707.146 1.88 1.87 1.7413 1.7081 1.718 1.84 1.94 1.98 1.98 1.7182
1726.435 1.6833 1.84 1.6151 1.5805 1.6587 1.596 1.6222 1.6121 1.5587 1.487
1745.725 1.6792 2.01 2.23 2.37 2.38 2.4 2.29 2.39 2.49 2.2
1765.015 2.08 1.89 1.99 2.33 2.23 2.07 2.02 2.09 2.34 2.56
1784.305 2.58 2.5 2.48 2.41 2.27 2.22 2.07 2.28 2.76 2.84
1803.594 2.77 2.82 2.81 2.55 2.25 1.96 1.7124 1.5911 1.483 1.4451
1822.884 1.3698 1.2482 1.3309 1.6564 1.7337 1.7148 1.6825 1.6106 1.601 1.4677
1842.174 1.3617 1.3015 1.3832 1.5236 1.5696 1.479 1.4052 1.3795 1.4124 1.4679
1861.464 1.2945 1.103 1.167 1.1508 1.1108 1.1388 1.1141 1.1823 1.2433 1.199
1880.754 1.3036 1.4927 1.5311 1.6609 1.95 2.2 2.27 2.12 2.12 2.24
1900.043 2.19 2.12 1.97 2 2.07 1.97 2.06 2.18 2 1.93
1919.333 1.99 2.08 2.13 2.24 2.58 2.85 3.07 3.4 3.34 3.14
1938.623 2.83 2.57 2.3 1.748 1.5959 1.4752 1.3336 1.321 1.2704 1.2032
1957.913 1.1372 1.1373 1.2794 1.4911 1.4494 1.3214 1.3361 1.1475 0.9334 1.0392
1977.202 1.0709 0.9156 0.9586 0.9868 1.1036 1.1875 1.0153 0.82097 0.7541 0.88877
1996.492 0.85995 1.0995 1.2204 1.0066 0.9398 0.9099 1.2212 1.3319 1.1274 1.056
2015.782 0.9686 1.1057 1.1415 1.0863 1.1162 1.1098 1.1875 1.1985 1.0843 0.9944
2035.072 1.0487 1.0931 1.0736 1.0822 1.016 0.9999 1.0841 1.204 1.1851 1.0351
2054.362 1.1 1.1227 1.0149 1.0748 1.1361 0.9649 0.9064 0.919 0.9028 1.0023
2073.651 0.99 1.0697 1.2397 1.3107 1.2968 1.1608 1.0644 1.0511 1.2011 1.2413
2092.941 1.2484 1.2064 1.1775 1.1366 1.1334 1.1826 0.9987 0.973 0.9502 0.85738
2112.231 0.8638 0.9529 1.1307 1.1688 1.234 1.2614 1.0744 0.9935 0.81355 0.7784
2131.521 0.9205 0.89988 0.8633 0.7894 0.7658 0.9433 0.9545 0.9256 0.9953 1.0753
2150.810 1.0778 1.1461 1.1564 1.126 1.2172 1.0209 0.9658 1.1463 1.1584 0.9587
2170.100 1.0259 1.2549 1.2324 1.1593 1.1756 1.1209 1.0465 1.1693 1.2053 1.0935
2189.390 1.075 1.2017 1.2146 1.0174 0.9741 1.0604 1.1536 1.2173 1.1908 1.3038
2208.680 1.3154 1.145 1.162 0.9659 0.9295 1.0353 1.0086 1.275 1.2804 1.1525
2227.970 1.1501 1.0204 0.86937 0.9299 1.0069 0.946 0.88271 1.0147 1.1537 1.102
2247.259 1.0462 1.0368 0.9416 0.9603 1.0834 1.2482 1.2627 1.0173 1.0972 1.2289
2266.549 1.0774 1.1714 1.2666 1.2803 1.4456 1.1641 0.9373 1.1252 0.9727 0.86312
2285.839 0.9559 1.0595 1.0684 1.0668 1.3105 1.2253 1.1698 1.307 1.1194 0.955
2305.129 1.1028 1.2603 1.3826 1.308 1.0512 1.1787 1.3608 1.3698 1.3846 1.4078
2324.418 1.5995 1.5737 1.4033 1.4421 1.4534 1.2696 1.2237 1.355 1.4999 1.5988
2343.708 1.5017 1.1979 1.113 1.1521 1.3415 1.4312 1.4352 1.4968 1.3619 1.5776
2362.998 1.526 1.2231 1.1701 1.1227 1.1652 1.1024 1.1351 1.2468 1.2555 1.2324
2382.288 1.1203 1.2674 1.3149 1.3154 1.5587 1.4496 1.2407 1.2171 1.2167 1.1871
2401.578 1.2186 1.2752 1.248 1.2773 1.0624 0.84303 1.083 1.4363 1.3685 1.3326
2420.867 1.364 1.25 1.3464 1.3333 1.3299 1.3037 1.03 0.9298 1.2211 1.3943
2440.157 1.0731 0.9187 1.0152 0.85225 0.81191 1.0471 1.1888 1.2668 1.4174 1.1525
2459.447 0.9989 1.2581 1.3554 1.3268 1.3433 1.2774 0.9633 1.0716 1.2259 1.2295
2478.737 1.2213 1.2103 1.2177 1.1557 1.0041 0.9752 1.1955 1.2011 1.055 1.1909
2498.026 1.6051 1.5062 1.2289 1.1181 1.1869 1.3862 1.401 1.2153 1.1322 1.2999
2517.316 1.4147 1.3471 1.3583 1.2824 1.1969 1.3527 1.2791 0.9864 0.9944 1.1803
2536.606 1.2218 1.2513 1.1951 1.0472 1.0911 1.0943 1.101 1.1549 1.1387 1.2567
2555.896 1.2461 1.1736 0.9487 1.0459 1.1106 0.84747 1.058 1.1949 1.2598 1.2867
2575.186 1.0121 0.83778 1.0602 1.289 1.3387 1.4436 1.462 1.3426 1.1517 1.1246
2594.475 1.0398 0.89793 1.0558 1.0814 0.81633 0.9587 0.9672 1.0288 1.3928 1.4229
2613.765 1.1993 0.906 1.0247 1.1601 1.1147 1.0083 0.89822 0.9264 1.2186 1.2519
2633.055 0.9316 0.9744 1.1225 1.1697 1.1368 0.9854 0.9815 1.2812 1.2717 1.1246
2652.345 1.249 0.9854 0.85916 1.1183 1.0706 0.9062 0.968 1.0079 0.9898 1.1449
2671.634 1.0004 0.7581 1.1163 1.2879 1.0966 1.2843 1.359 1.0616 0.9933 1.2255
2690.924 1.3082 1.1379 1.0939 1.048 1.1682 1.5077 1.5458 1.6347 1.4516 1.3306
2710.214 1.3834 1.5243 1.4584 0.9466 0.7743 0.9279 1.0771 1.0973 1.0899 1.1301
2729.504 1.247 1.2748 1.1985 1.2989 1.3556 1.3295 1.3946 1.3326 1.3048 1.2856
2748.794 1.1161 1.1868 1.4165 1.1828 0.9517 0.9733 1.1401 1.3971 1.4341 1.1097
2768.083 1.2652 1.5613 1.4048 1.3449 1.2662 1.0808 1.0196 1.1898 1.3053 1.3169
2787.373 1.1306 0.88714 0.88197 1.0046 1.0962 1.4076 1.4536 1.2515 1.3144 1.2306
2806.663 1.2596 1.3462 1.3238 1.1434 1.2417 1.3454 1.0811 1.1694 1.0556 1.0882
2825.953 1.2769 1.0238 0.9242 0.9034 1.0398 1.2654 1.3015 1.2248 1.1002 1.1606
2845.242 1.3307 1.2813 1.2582 1.263 0.9789 1.1521 1.441 1.4208 1.2036 1.1099
2864.532 1.2405 1.3742 1.2542 1.1392 1.349 1.2707 1.2386 1.4679 1.3019 0.9569
2883.822 0.955 1.156 1.4082 1.6558 1.91 1.7139 1.3065 1.4694 1.7311 1.83
2903.112 1.7937 1.6886 1.84 2.17 2.07 1.7927 2 2.1 2.14 2.05
2922.401 1.6762 1.6871 1.82 1.8 1.81 1.87 1.92 1.82 1.82 2.16
2941.691 2.26 2.19 2.19 2.33 2.62 2.75 2.45 1.81 1.9 2.43
2960.981 2.37 2.47 2.91 2.8 2.74 2.84 2.7 2.66 2.75 2.79
2980.271 2.88 2.82 2.57 2.56 3.04 3.32 3.28 3.92 4.73 4.94
2999.561 4.96 5.49 5.92 6.26 6.77 6.96 6.95 6.98 7.05 6.91
3018.850 6.79 6.45 6.1 6.46 6.91 7.12 7.48 7.91 8.37 8.76
3038.140 8.81 8.8 9.15 9.82 10.58 11.58 12.99 14.47 16.38 18.26
3057.430 19.71 21.21 22.02 21.86 21.24 20.12 18.58 17.36 16.07 14.53
3076.720 13.78 13.99 14.14 14.14 14.41 14.59 14.21 13.42 12.52 11.57
3096.009 10.05 8.15 6.64 5.53 4.67 4.04 3.59 3.09 2.7 2.72
3115.299 2.73 2.35 2.34 2.33 2.24 1.92 1.4267 1.5797 1.4427 1.2927
3134.589 1.5377 1.5955 1.7622 1.7921 1.4406 1.2278 1.4465 1.3587 1.6646 2.13
3153.879 1.669 1.586 1.5894 1.4579 1.6551 1.5949 1.5624 1.4223 1.1336 1.1606
3173.169 1.3449 1.6359 1.6064 1.3752 1.3541 1.3145 1.1591 1.3425 1.6552 1.6472
3192.458 1.5275 1.1839 1.0922 1.105 1.6215 1.99 1.2196 1.0826 1.3712 1.3293
3211.748 1.3746 1.6178 1.7536 1.4387 1.3059 1.006 0.609 1.0503 1.5966 1.6501
3231.038 1.6265 1.4147 1.0216 0.9155 1.3028 1.5125 1.3236 1.2081 1.409 1.4508
3250.328 1.3269 1.3354 1.5628 1.5674 1.4233 1.6018 1.7778 1.88 1.3483 1.1261
3269.617 1.3356 1.248 1.4007 1.4376 1.203 1.4643 2.03 1.7487 1.2152 0.992
3288.907 0.9717 1.0908 1.1106 1.1469 1.1411 1.1694 1.1477 1.3966 1.5185 1.3921
3308.197 1.1347 1.082 1.0801 1.1528 1.5133 1.3939 1.1964 1.5472 1.673 0.9957
3327.487 1.1009 1.3287 1.4338 1.5574 1.478 1.507 1.1568 0.7745 0.7603 1.0828
3346.777 0.8839 0.7337 1.0139 1.2406 0.9607 0.83215 1.1136 1.2858 1.543 1.3178
3366.066 1.1364 1.4713 1.3604 1.2154 1.5335 1.449 1.3585 1.3566 1.4443 1.4849
3385.356 1.2921 1.5144 1.5928 1.2582 0.88061 1.2173 1.6797 1.5348 1.3617 1.3188
3404.646 1.2339 1.1232 1.2625 1.0227 0.85748 1.002 1.1336 1.2459 0.83902 0.339
3423.936 0.588 0.9777 1.3784 1.4465 0.9135 1.1154 1.3079 1.1619 1.2719 0.9597
3443.225 0.543 1.2162 1.89 1.5387 1.3428 1.6178 1.2812 0.587 0.502 1.1393
3462.515 1.4946 1.5343 1.5047 1.2004 1.0657 1.0301 1.4145 1.81 1.537 1.4313
3481.805 1.32 1.2279 1.3022 1.4312 1.6617 1.83 1.9 1.2658 1.1775 1.6685
3501.095 1.329 1.2275 1.3871 1.3773 1.5436 1.4674 1.503 1.6029 1.84 1.98
3520.385 2.01 1.5385 0.7915 1.0581 1.5312 1.5979 1.2782 1.256 1.2434 1.0443
3539.674 1.2724 1.1393 1.4084 1.9 1.6825 1.4248 1.3614 1.4922 1.2636 1.3357
3558.964 2.03 1.83 1.3095 1.3227 1.4963 1.7515 1.2043 0.695 0.9123 0.9282
3578.254 0.938 0.9768 1.1275 1.3711 1.204 0.9497 0.9125 0.89537 1.1129 1.2904
3597.544 1.3792 1.6839 1.5521 1.3711 1.5916 1.4709 1.3419 1.7706 1.86 1.89
3616.833 1.97 1.7252 1.7487 1.7 1.4496 1.3357 1.0741 1.1161 1.3116 1.1256
3636.123 1.1557 1.266 1.1723 0.83592 1.0063 1.4201 1.5137 1.5172 1.4738 1.3044
3655.413 1.2225 1.2681 1.5873 1.7393 1.3441 1.4779 1.7979 1.97 1.6547 1.3927
3674.703 1.3984 1.7084 1.81 1.307 1.2252 1.3081 1.3801 1.7253 1.4834 1.2112
3693.993 1.751 1.89 1.6224 1.5078 1.4098 1.2961 1.0817 1.0602 1.5504 1.3275
3713.282 0.87552 1.0384 1.0453 0.9421 1.0909 1.3266 1.6213 1.82 1.82 1.87
3732.572 1.4712 0.8114 1.1875 1.3653 1.0987 1.1616 0.89443 0.637 0.9423 1.5086
3751.862 1.5791 1.3842 1.3524 1.5193 1.5201 1.2334 0.84517 1.329 1.6632 1.7038
3771.152 1.7562 1.4556 1.5041 1.4552 1.416 1.6711 1.787 1.6665 1.7744 1.5763
3790.441 1.6331 1.99 2.06 1.6532 1.3199 1.4689 1.174 1.1457 1.0816 0.9492
3809.731 1.3991 1.2459 1.3296 1.7229 1.5697 1.704 1.5165 1.1644 1.5353 1.624
3829.021 1.7526 1.87 1.6107 1.5467 1.5428 1.6313 1.5872 1.82 1.759 1.4699
3848.311 0.9349 0.82768 1.6607 1.81 1.5789 1.0309 0.9006 1.3526 1.1756 0.89276
3867.601 1.205 1.4383 1.3184 1.4497 1.4167 1.5463 2.08 2.3 2.07 1.7142
3886.890 1.82 2.12 1.93 1.7817 1.4212 1.0112 1.2186 1.4714 1.87 2.11
3906.180 2.08 1.5836 1.4593 1.7338 1.2499 0.9665 1.2581 1.5326 1.6171 1.99
3925.470 2 1.5881 1.757 1.7601 1.5428 1.5186 1.3258 1.2979 1.7542 2.13
3944.760 1.6377 1.2531 1.2477 1.3374 1.2914 1.0346 1.1492 1.0961 1.0493 1.2319
3964.049 1.4522 1.94 1.7866 1.3798 1.0572 0.83635 1.2217 1.56 1.3754 1.2443
3983.339 1.6468 1.7489 1.6107 1.7003 1.7239 1.0794 1.1189 1.7391 1.2094 0.9567
##END=
