##TITLE=1,3-Dimethylcyclopentane
##JCAMP-DX=4.24
##DATA TYPE=INFRARED SPECTRUM
##ORIGIN=NIST Mass Spectrometry Data Center
##OWNER=NIST Standard Reference Data Program
Collection (C) 2018 copyright by the U.S. Secretary of Commerce
on behalf of the United States of America. All rights reserved.
##CAS REGISTRY NO=2453-00-1
##MOLFORM=C 7 H 14
##$NIST SOURCE=MSDC-IR
##SPECTROMETER/DATA SYSTEM=HP-GC/MS/IRD
##STATE=gas
##XUNITS=1/CM
##YUNITS=ABSORBANCE
##XFACTOR=1.0
##YFACTOR=0.000004900
##DELTAX=4.0
##FIRSTX=550.0
##LASTX=3846.0
##FIRSTY=0.000108
##MAXX=3846
##MINX=550
##MAXY=0.049
##MINY=0
##NPOINTS=825
##XYDATA=(X++(Y..Y))
550.0 22 30 5 15 30 18 24 30 11 15
590.0 8 0 23 36 34 29 29 30 22 20
630.0 22 10 10 18 12 18 26 43 43 24
670.0 21 23 26 26 20 16 14 17 25 28
710.0 23 23 28 26 18 19 24 28 27 30
750.0 39 51 47 24 30 42 29 31 40 38
790.0 29 32 35 27 28 25 31 40 35 39
830.0 34 35 49 49 53 59 56 53 56 60
870.0 51 45 49 45 41 37 35 41 40 35
910.0 36 38 37 34 42 42 35 28 32 42
950.0 47 49 54 60 64 72 80 83 82 79
990.0 76 73 73 76 75 71 67 55 48 51
1030.0 50 48 54 55 48 44 40 31 28 29
1070.0 30 33 37 36 39 40 41 41 38 38
1110.0 45 53 55 61 72 88 104 107 106 105
1150.0 100 92 84 75 69 65 56 57 58 58
1190.0 59 59 60 63 69 71 75 73 65 67
1230.0 70 71 73 71 63 62 68 69 72 73
1270.0 74 76 74 73 74 80 87 89 95 107
1310.0 118 124 127 140 156 177 211 244 271 291
1350.0 302 310 316 331 350 362 384 437 438 396
1390.0 363 306 243 197 169 154 151 162 183 216
1430.0 264 330 410 501 587 658 707 735 767 756
1470.0 681 591 502 420 347 280 223 176 141 118
1510.0 96 75 66 60 51 46 39 42 45 38
1550.0 33 35 39 32 31 35 34 30 28 30
1590.0 26 24 28 29 30 29 34 37 33 29
1630.0 28 30 30 31 33 37 40 34 30 32
1670.0 33 35 37 40 35 34 38 36 33 28
1710.0 27 30 31 26 26 27 27 25 22 20
1750.0 19 16 17 17 15 15 17 17 16 16
1790.0 17 19 14 13 15 15 17 20 20 16
1830.0 14 14 16 16 12 11 9 10 11 15
1870.0 18 15 11 8 9 14 15 13 10 8
1910.0 10 10 9 6 5 7 7 4 4 2
1950.0 4 6 1 2 4 3 4 4 4 4
1990.0 3 6 2 0 4 5 1 1 5 10
2030.0 8 6 6 4 5 7 6 5 4 2
2070.0 4 5 6 7 8 11 12 8 6 6
2110.0 6 4 6 5 6 6 5 5 3 4
2150.0 3 2 5 7 5 3 5 6 5 2
2190.0 3 8 12 8 6 6 0 4 7 7
2230.0 9 6 4 5 6 10 8 8 7 8
2270.0 11 9 10 10 9 11 13 10 10 16
2310.0 14 9 11 15 16 15 14 18 19 15
2350.0 16 15 11 12 14 14 11 14 16 15
2390.0 15 14 12 14 15 19 22 23 22 16
2430.0 15 16 17 17 19 21 20 18 16 17
2470.0 20 16 13 15 14 14 15 14 16 19
2510.0 21 22 22 24 23 17 20 25 24 23
2550.0 27 35 32 33 40 41 43 44 43 44
2590.0 46 53 59 57 52 50 50 52 52 52
2630.0 57 58 56 52 51 56 55 52 56 58
2670.0 59 63 65 67 65 65 68 69 73 78
2710.0 85 90 93 102 116 126 137 140 138 137
2750.0 131 120 117 117 118 121 125 130 134 145
2790.0 161 176 187 210 234 266 307 348 400 458
2830.0 532 634 760 917 1112 1359 1675 2068 2507 2963
2870.0 3294 3458 3591 3598 3498 3352 3191 3133 3227 3451
2910.0 3746 4084 4491 4962 5479 6094 6789 7476 8235 9129
2950.0 9738 10000 9989 9133 7967 6717 5205 3791 2650 1822
2990.0 1253 897 675 537 440 372 315 276 246 217
3030.0 200 188 174 174 171 164 161 152 149 150
3070.0 150 149 149 143 136 135 133 123 112 102
3110.0 104 103 95 93 90 85 85 88 89 86
3150.0 88 86 81 86 92 94 91 94 92 80
3190.0 81 80 70 65 61 55 49 41 35 35
3230.0 38 31 23 22 23 23 24 25 21 19
3270.0 18 19 24 26 21 18 24 31 30 28
3310.0 29 31 35 36 33 37 43 38 30 27
3350.0 27 31 32 26 27 26 21 22 22 23
3390.0 20 12 12 11 10 9 13 6 5 17
3430.0 14 8 11 8 7 2 1 10 16 16
3470.0 10 13 19 18 14 10 11 13 9 10
3510.0 9 9 9 5 12 14 18 18 12 5
3550.0 10 18 17 16 17 19 17 13 15 16
3590.0 12 17 14 8 16 17 17 17 15 12
3630.0 17 22 16 10 14 19 16 15 16 17
3670.0 19 24 20 12 17 23 22 19 20 23
3710.0 26 23 24 25 26 30 27 22 23 28
3750.0 38 35 23 23 30 29 23 21 26 24
3790.0 27 33 32 29 26 29 38 39 30 26
3830.0 33 40 33 29 35
##END=
