##TITLE=Decyl isothiocyanate
##JCAMP-DX=4.24
##DATA TYPE=INFRARED SPECTRUM
##ORIGIN=EPA-IR VAPOR PHASE LIBRARY
##OWNER=SRD/NIST
Collection (C) 2018 copyright by the U.S. Secretary of Commerce
on behalf of the United States of America. All rights reserved.
##CAS REGISTRY NO=24540-94-1
##MOLFORM=C 11 H 21 N S
##$NIST SOURCE=MSDC-IR
##STATE=gas
##XUNITS=1/CM
##YUNITS=ABSORBANCE
##XFACTOR=1.
##YFACTOR=0.001
##DELTAX=1.92898
##FIRSTX=549.8
##LASTX=4000.7
##FIRSTY=7.428
##MAXX=4000.7
##MINX=549.759
##MAXY=0.256538
##MINY=0
##NPOINTS=1790
##XYDATA=(X++(Y..Y))
549.759 7.428 7.558 7.438 7.078 6.888 7.108 6.828 6.488 6.428 6.308
569.049 6.058 5.638 5.568 5.478 5.258 5.158 4.998 4.798 4.518 4.248
588.339 4.108 3.958 3.878 3.738 3.608 3.588 3.268 3.078 3.138 2.978
607.628 2.708 2.568 2.548 2.448 2.308 2.348 2.388 2.328 2.378 2.298
626.918 2.148 2.158 2.228 2.228 2.218 2.178 2.218 2.128 2.138 2.368
646.208 2.378 2.318 2.468 2.648 2.658 2.548 2.718 2.898 2.908 2.988
665.498 2.988 2.818 2.728 2.738 2.678 2.598 2.478 2.488 2.708 2.868
684.787 2.758 2.818 3.078 3.328 3.728 4.048 4.338 4.688 5.008 5.238
704.077 5.338 5.408 5.528 5.688 5.638 5.728 5.768 5.748 5.748 5.768
723.367 5.738 5.598 5.438 5.128 5.078 5.018 4.918 4.898 4.928 4.898
742.657 4.548 4.268 4.088 3.998 3.808 3.668 3.768 3.738 3.598 3.448
761.947 3.378 3.308 3.198 3.008 3.078 3.238 3.048 2.898 2.728 2.518
781.236 2.618 2.708 2.568 2.378 2.168 1.998 2.028 1.998 1.888 1.898
800.526 1.918 1.968 1.948 1.858 1.938 1.908 1.818 1.908 2.108 2.198
819.816 2.158 2.198 2.098 1.868 1.758 1.798 1.748 1.798 1.858 1.758
839.106 1.818 1.888 1.668 1.598 1.698 1.668 1.768 1.888 1.788 1.738
858.395 1.888 1.888 1.838 1.728 1.698 1.938 2.048 1.998 1.948 1.988
877.685 1.928 1.938 1.998 1.928 1.978 2.048 2.038 1.968 1.928 1.988
896.975 2.128 2.128 2.018 1.878 1.968 2.088 1.988 2.068 2.218 2.348
916.265 2.438 2.348 2.278 2.358 2.358 2.298 2.248 2.328 2.448 2.398
935.555 2.378 2.398 2.298 2.348 2.528 2.618 2.578 2.608 2.618 2.418
954.844 2.408 2.488 2.578 2.588 2.478 2.618 2.778 2.638 2.378 2.368
974.134 2.488 2.478 2.438 2.468 2.418 2.488 2.568 2.628 2.648 2.568
993.424 2.518 2.498 2.468 2.498 2.648 2.678 2.688 2.648 2.438 2.198
1012.714 2.408 2.558 2.248 2.268 2.528 2.458 2.348 2.448 2.668 2.688
1032.003 2.548 2.588 2.608 2.628 2.788 2.718 2.598 2.748 2.768 2.928
1051.293 3.268 3.498 3.488 3.278 3.138 3.178 3.328 3.308 3.318 3.278
1070.583 3.328 3.288 3.028 3.108 3.228 3.308 3.168 3.318 3.438 3.058
1089.873 2.598 2.548 2.868 2.988 3.298 3.418 3.478 3.598 3.308 2.898
1109.163 3.058 3.358 3.328 3.038 3.118 3.358 3.338 3.648 3.608 3.208
1128.452 3.028 2.848 2.658 2.518 2.468 2.588 2.768 2.588 2.168 2.328
1147.742 2.358 2.528 2.708 2.468 2.538 2.498 2.488 2.568 2.768 2.898
1167.032 2.728 2.688 2.638 2.478 2.558 2.748 2.828 2.658 2.378 2.478
1186.322 2.458 2.298 2.378 2.438 2.588 2.648 2.948 3.038 2.888 2.968
1205.611 2.878 2.738 2.858 2.708 2.608 2.898 2.868 2.968 2.938 3.058
1224.901 3.368 3.348 3.308 3.238 3.348 3.288 3.308 3.648 3.828 3.868
1244.191 3.728 3.818 3.858 3.978 4.168 4.238 4.398 4.408 4.598 4.958
1263.481 5.068 5.018 4.978 5.048 5.318 5.518 5.648 5.828 5.998 6.118
1282.771 6.428 6.678 6.888 7.248 7.638 8.038 8.498 8.968 9.318 9.748
1302.060 10.258 10.728 11.098 11.448 11.908 12.328 12.668 12.988 13.348 13.808
1321.350 14.358 15.048 15.898 17.078 18.588 20.338 22.438 24.898 27.638 30.578
1340.640 33.608 36.508 38.958 40.738 41.678 41.538 40.368 38.388 35.938 33.308
1359.930 30.758 28.408 26.308 24.368 22.488 20.638 18.728 16.898 15.168 13.658
1379.219 12.428 11.288 10.318 9.408 8.538 7.788 7.068 6.438 5.928 5.498
1398.509 5.168 4.878 4.638 4.478 4.328 4.288 4.258 4.198 4.248 4.288
1417.799 4.348 4.548 4.788 5.018 5.268 5.598 6.108 6.718 7.468 8.388
1437.089 9.478 10.738 12.208 13.858 15.628 17.568 19.728 22.078 24.528 27.138
1456.378 29.678 31.748 32.978 33.128 32.088 29.798 26.638 23.318 20.108 17.028
1475.668 14.258 11.928 10.058 8.528 7.328 6.428 5.668 5.018 4.538 4.128
1494.958 3.768 3.498 3.228 2.978 2.798 2.698 2.548 2.398 2.288 2.198
1514.248 2.118 1.988 1.928 1.888 1.778 1.758 1.698 1.558 1.528 1.528
1533.538 1.528 1.538 1.528 1.488 1.388 1.3046 1.3605 1.3018 1.1963 1.2194
1552.827 1.191 1.1994 1.2625 1.2839 1.1684 1.0272 1.0103 1.0507 1.052 1.0384
1572.117 1.0274 0.9811 0.9762 0.9619 0.9198 0.9504 1.0183 0.9911 0.9698 0.9859
1591.407 0.9508 0.9119 0.8146 0.8283 0.9142 0.8988 0.8981 0.91 0.9179 0.9154
1610.697 0.9333 0.9468 0.9281 0.8658 0.8261 0.8508 0.8568 0.8255 0.8553 0.8982
1629.986 0.9049 0.9182 0.9166 0.9027 0.9114 0.8796 0.8081 0.7898 0.8207 0.8885
1649.276 0.9414 0.9058 0.7916 0.8136 0.8554 0.8299 0.825 0.7886 0.7566 0.7135
1668.566 0.7225 0.7413 0.743 0.7668 0.776 0.7629 0.7413 0.7916 0.7509 0.729
1687.856 0.8055 0.7738 0.8004 0.8798 0.8525 0.8151 0.8384 0.7634 0.6865 0.7173
1707.146 0.7536 0.7985 0.8277 0.8001 0.7631 0.8041 0.8177 0.7306 0.6714 0.7032
1726.435 0.7527 0.7292 0.6807 0.6968 0.7198 0.7584 0.7573 0.7084 0.716 0.7941
1745.725 0.8423 0.8465 0.8122 0.7571 0.7723 0.7286 0.6988 0.7211 0.7627 0.7834
1765.015 0.7597 0.7871 0.8212 0.8497 0.8064 0.7651 0.781 0.7955 0.8489 0.8861
1784.305 0.8527 0.8041 0.7763 0.8266 0.8918 0.8855 0.8485 0.844 0.8192 0.7828
1803.594 0.8492 0.9093 0.9013 0.9021 0.9181 0.9717 0.9635 0.9155 0.9472 1.0407
1822.884 1.1197 1.0902 1.0521 1.1175 1.1678 1.1475 1.2036 1.2703 1.2494 1.2866
1842.174 1.388 1.408 1.428 1.508 1.558 1.548 1.568 1.628 1.708 1.808
1861.464 1.898 1.938 2.038 2.118 2.098 2.188 2.348 2.438 2.488 2.568
1880.754 2.728 2.868 2.968 3.098 3.268 3.398 3.478 3.638 3.858 4.088
1900.043 4.248 4.408 4.608 4.838 5.058 5.348 5.618 5.838 6.098 6.368
1919.333 6.648 6.918 7.198 7.528 7.898 8.278 8.698 9.078 9.478 9.948
1938.623 10.398 10.878 11.398 11.938 12.478 13.058 13.728 14.458 15.178 15.888
1957.913 16.748 17.678 18.578 19.548 20.538 21.598 22.818 24.048 25.358 26.768
1977.202 28.258 29.988 31.848 33.738 35.708 37.818 40.078 42.518 45.128 47.948
1996.492 50.958 54.088 57.448 61.118 65.038 69.158 73.518 78.148 83.108 88.318
2015.782 93.808 99.698 105.908 112.488 119.498 126.978 134.668 142.638 151.108 159.908
2035.072 168.978 178.208 187.508 196.738 205.838 214.618 223.018 230.768 237.738 243.878
2054.362 248.948 252.848 255.408 256.538 256.308 254.788 251.798 247.458 241.888 235.098
2073.651 227.308 218.578 209.208 199.418 189.448 179.458 169.658 160.108 150.998 142.458
2092.941 134.378 126.898 119.998 113.688 107.848 102.398 97.448 92.998 88.948 85.178
2112.231 81.678 78.468 75.468 72.728 70.168 67.698 65.428 63.338 61.308 59.458
2131.521 57.728 56.028 54.448 52.978 51.598 50.288 49.058 47.958 46.898 45.858
2150.810 44.898 44.118 43.338 42.588 41.978 41.388 40.808 40.278 39.788 39.398
2170.100 39.078 38.728 38.388 38.148 37.908 37.678 37.418 37.178 36.938 36.608
2189.390 36.218 35.708 35.168 34.578 33.868 33.008 31.968 30.998 29.998 28.888
2208.680 27.838 26.738 25.628 24.538 23.368 22.288 21.248 20.128 19.048 18.088
2227.970 17.188 16.298 15.408 14.558 13.728 12.978 12.238 11.518 10.928 10.358
2247.259 9.808 9.298 8.878 8.488 8.028 7.618 7.288 6.998 6.668 6.398
2266.549 6.168 5.918 5.668 5.418 5.268 5.078 4.828 4.598 4.438 4.298
2285.839 4.148 4.008 3.848 3.768 3.718 3.618 3.458 3.308 3.218 3.068
2305.129 2.938 2.898 2.788 2.638 2.548 2.498 2.438 2.368 2.308 2.278
2324.418 2.268 2.188 2.068 2.058 2.018 1.908 1.818 1.828 1.828 1.788
2343.708 1.758 1.708 1.628 1.598 1.628 1.608 1.598 1.528 1.488 1.478
2362.998 1.458 1.518 1.498 1.398 1.3663 1.2976 1.2811 1.3004 1.2962 1.2491
2382.288 1.1783 1.2104 1.228 1.1898 1.1837 1.1848 1.1843 1.2029 1.1872 1.1303
2401.578 1.1821 1.1863 1.1042 1.0967 1.1166 1.0748 1.064 1.0894 1.0753 1.0835
2420.867 1.0805 1.0931 1.0616 1.0023 1.0043 1.0246 1.0399 1.0466 1.0132 0.9799
2440.157 0.9838 1.0233 1.0483 1.0176 1.0729 1.0759 1.0124 0.9963 1.0142 1.0405
2459.447 1.0676 1.1084 1.0891 1.1021 1.0946 1.0056 0.9118 0.9136 0.9648 0.9838
2478.737 1.0884 1.1348 1.0579 1.0442 1.0854 1.0918 1.1009 1.131 1.1643 1.1776
2498.026 1.1755 1.2441 1.2493 1.2012 1.2483 1.2547 1.2276 1.307 1.3239 1.3217
2517.316 1.3487 1.3151 1.3539 1.368 1.428 1.518 1.548 1.528 1.528 1.528
2536.606 1.508 1.498 1.468 1.558 1.628 1.578 1.578 1.628 1.608 1.618
2555.896 1.688 1.658 1.708 1.728 1.688 1.738 1.798 1.838 1.848 1.888
2575.186 1.948 1.898 1.878 1.998 2.048 2.008 2.008 1.968 1.928 1.958
2594.475 1.988 1.968 1.908 1.848 1.878 1.908 1.928 1.938 1.888 1.818
2613.765 1.828 1.868 1.838 1.778 1.758 1.798 1.858 1.848 1.788 1.878
2633.055 2.008 2.028 2.038 1.998 1.998 2.088 2.128 2.188 2.258 2.298
2652.345 2.308 2.268 2.358 2.388 2.488 2.618 2.688 2.818 2.938 3.018
2671.634 3.058 3.088 3.228 3.378 3.408 3.508 3.508 3.528 3.658 3.748
2690.924 3.698 3.678 3.838 3.908 3.898 3.908 3.948 3.998 4.078 4.118
2710.214 4.208 4.418 4.568 4.668 4.778 4.948 5.128 5.148 5.248 5.428
2729.504 5.488 5.598 5.708 5.738 5.738 5.698 5.708 5.708 5.638 5.658
2748.794 5.638 5.468 5.348 5.278 5.258 5.218 5.148 5.068 4.978 5.008
2768.083 4.998 4.938 4.958 4.958 4.968 5.048 5.148 5.198 5.188 5.268
2787.373 5.428 5.468 5.598 5.778 5.928 6.068 6.158 6.328 6.458 6.608
2806.663 6.888 7.178 7.338 7.528 7.868 8.198 8.598 8.958 9.268 9.648
2825.953 10.188 10.778 11.418 12.118 12.858 13.718 14.738 16.078 17.868 19.908
2845.242 22.378 25.558 29.538 34.388 40.148 46.668 53.448 59.998 65.668 69.738
2864.532 72.068 72.488 71.108 68.718 65.838 62.858 60.108 58.108 56.858 55.608
2883.822 54.418 53.298 51.788 50.238 49.058 48.148 47.788 48.088 49.148 50.948
2903.112 53.388 56.598 60.648 65.418 70.908 77.378 84.828 93.358 103.298 114.658
2922.401 127.548 141.528 155.468 168.388 178.978 186.218 189.938 190.058 187.258 182.078
2941.691 174.738 166.288 157.338 147.998 138.868 130.468 122.628 115.218 108.508 102.238
2960.981 96.528 91.508 86.838 82.118 76.948 70.848 63.918 56.428 48.888 42.118
2980.271 36.328 31.568 27.718 24.578 21.938 19.728 17.848 16.268 14.988 13.868
2999.561 12.918 11.948 11.028 10.398 9.938 9.378 8.808 8.218 7.708 7.378
3018.850 6.988 6.718 6.478 6.118 5.918 5.678 5.328 5.248 5.058 4.728
3038.140 4.528 4.418 4.278 4.148 3.928 3.608 3.538 3.418 3.208 3.168
3057.430 3.168 3.008 2.808 2.718 2.528 2.408 2.438 2.518 2.548 2.478
3076.720 2.418 2.258 2.158 2.238 2.248 2.188 2.088 1.998 1.998 1.978
3096.009 2.038 2.058 1.968 1.798 1.608 1.608 1.628 1.558 1.438 1.488
3115.299 1.568 1.568 1.588 1.488 1.3544 1.3199 1.2524 1.3668 1.508 1.368
3134.589 1.2771 1.2349 1.2655 1.398 1.488 1.438 1.398 1.3539 1.3196 1.388
3153.879 1.353 1.2857 1.2264 1.214 1.2081 1.0461 1.0899 1.1517 1.0308 1.0636
3173.169 1.1505 1.1984 1.1408 0.9461 0.8921 1.0096 0.9516 0.9401 0.9086 0.9073
3192.458 0.9806 0.8693 0.8481 0.8894 0.7672 0.6865 0.6696 0.7147 0.719 0.5949
3211.748 0.6656 0.6116 0.5287 0.5232 0.516 0.5421 0.4908 0.44434 0.44815 0.39511
3231.038 0.36194 0.41256 0.45054 0.45005 0.3457 0.367093 0.40892 0.44021 0.524 0.5168
3250.328 0.5104 0.40955 0.3156 0.46651 0.4681 0.40089 0.41722 0.375058 0.3116 0.224
3269.617 0.3185 0.45998 0.45624 0.37824 0.225 0.257 0.3407 0.2684 0.185 0.24
3288.907 0.3287 0.41265 0.43772 0.42114 0.326 0.249 0.2899 0.264 0.189 0.073
3308.197 0.202 0.3089 0.3247 0.40392 0.3485 0.3029 0.223 0.234 0.2946 0.258
3327.487 0.259 0.3296 0.43415 0.38054 0.346 0.3536 0.176 0.173 0.3356 0.39649
3346.777 0.44847 0.5101 0.6093 0.4966 0.214 0.307 0.42184 0.5224 0.549 0.39958
3366.066 0.44348 0.5056 0.41786 0.3346 0.38773 0.4929 0.46603 0.2848 0.183 0.2862
3385.356 0.368373 0.3032 0.4021 0.39501 0.279 0.39193 0.5049 0.4879 0.38984 0.38438
3404.646 0.41703 0.40353 0.4768 0.4751 0.38842 0.3192 0.3369 0.45879 0.3997 0.3261
3423.936 0.40614 0.3825 0.251 0.211 0.2946 0.3508 0.3384 0.3282 0.367546 0.5096
3443.225 0.5213 0.3291 0.2853 0.3521 0.41815 0.42366 0.401 0.2788 0.207 0.41161
3462.515 0.5814 0.4258 0.3389 0.41904 0.42221 0.3517 0.215 0.273 0.4206 0.2956
3481.805 0.208 0.2873 0.38138 0.4493 0.36473 0.302 0.18 0.264 0.3281 0.155
3501.095 0.137 0.3567 0.4896 0.4987 0.43669 0.2814 0.168 0.191 0.3149 0.2837
3520.385 0.212 0.2771 0.201 0.121 0.176 0.152 0.106 0 0.018 0.054
3539.674 0.09 0.167 0.128 0.1 0.245 0.252 0.2945 0.4078 0.373426 0.237
3558.964 0.138 0.218 0.3097 0.4849 0.4843 0.39546 0.38034 0.2871 0.2957 0.37088
3578.254 0.2949 0.257 0.3158 0.3189 0.302 0.228 0.2825 0.42266 0.39585 0.3095
3597.544 0.2966 0.41399 0.5981 0.6062 0.4761 0.3252 0.37937 0.6046 0.5899 0.5243
3616.833 0.5847 0.6475 0.4835 0.346 0.41655 0.44559 0.4882 0.5015 0.39747 0.42959
3636.123 0.5002 0.484 0.487 0.35934 0.3008 0.374453 0.39614 0.43197 0.4803 0.3148
3655.413 0.235 0.5292 0.6582 0.6433 0.6384 0.6364 0.6662 0.6227 0.6225 0.551
3674.703 0.42622 0.45659 0.5882 0.6058 0.5818 0.5755 0.45537 0.45205 0.6044 0.5609
3693.993 0.6312 0.7642 0.6506 0.6064 0.5469 0.45051 0.5215 0.5478 0.6012 0.6672
3713.282 0.5611 0.5433 0.5738 0.568 0.4542 0.44853 0.6588 0.6379 0.6196 0.6247
3732.572 0.608 0.6115 0.5286 0.4815 0.6451 0.7125 0.5601 0.4729 0.4809 0.479
3751.862 0.39826 0.472 0.6232 0.5257 0.46238 0.523 0.4201 0.563 0.6795 0.6905
3771.152 0.8027 0.7332 0.6613 0.7659 0.8831 0.7833 0.6021 0.512 0.40978 0.3901
3790.441 0.4979 0.6311 0.5832 0.5422 0.5875 0.6583 0.7763 0.8342 0.9036 0.7649
3809.731 0.636 0.727 0.7488 0.7578 0.7332 0.6821 0.7121 0.7359 0.7202 0.611
3829.021 0.5361 0.553 0.6569 0.7068 0.6915 0.8142 0.7832 0.7174 0.7105 0.6852
3848.311 0.6641 0.6151 0.6332 0.7141 0.7882 0.8109 0.7459 0.6443 0.6266 0.8471
3867.601 0.9457 0.7959 0.7611 0.791 0.7843 0.7862 0.8428 0.8385 0.7388 0.5983
3886.890 0.5071 0.6016 0.7522 0.7707 0.7383 0.5709 0.5867 0.8949 0.7439 0.5966
3906.180 0.7973 0.8268 0.8211 0.9562 1.0834 1.0147 0.87 0.949 1.0074 0.9994
3925.470 1.0038 0.8285 0.7052 0.7531 0.9088 0.9125 1.0464 1.1256 1.018 1.061
3944.760 1.0826 1.0064 1.0071 0.9677 0.9072 1.0083 0.999 0.9266 1.0017 1.0738
3964.049 1.1036 0.99 0.88 1.0564 1.2084 1.2654 1.2502 1.1174 1.1464 1.2829
3983.339 1.351 1.388 1.2992 1.3177 1.428 1.418 1.518 1.518 1.428 1.448
##END=
