##TITLE=N-(6-Bromohexyl)phthalimide
##JCAMP-DX=4.24
##DATA TYPE=INFRARED SPECTRUM
##ORIGIN=EPA-IR VAPOR PHASE LIBRARY
##OWNER=SRD/NIST
Collection (C) 2018 copyright by the U.S. Secretary of Commerce
on behalf of the United States of America. All rights reserved.
##CAS REGISTRY NO=24566-79-8
##MOLFORM=C 14 H 16 Br N O 2
##$NIST SOURCE=MSDC-IR
##STATE=gas
##XUNITS=1/CM
##YUNITS=ABSORBANCE
##XFACTOR=1.
##YFACTOR=0.001
##DELTAX=1.92898
##FIRSTX=549.8
##LASTX=4000.7
##FIRSTY=4.395
##MAXX=4000.7
##MINX=549.759
##MAXY=0.265315
##MINY=0
##NPOINTS=1790
##XYDATA=(X++(Y..Y))
549.759 4.395 4.455 4.325 4.085 3.855 3.495 3.275 3.415 3.415 3.175
569.049 3.205 3.305 3.235 3.255 2.915 2.605 2.445 2.055 1.415 1.151
588.339 1.465 1.625 1.705 1.805 1.785 1.885 2.065 2.185 2.185 1.995
607.628 2.095 2.445 2.855 3.225 3.555 4.035 4.395 4.165 3.265 2.895
626.918 2.795 2.485 2.445 2.365 2.155 2.275 2.565 2.735 2.985 3.395
646.208 3.845 3.955 4.095 4.175 4.005 3.885 3.465 2.775 2.455 2.255
665.498 1.885 1.695 1.605 1.485 1.495 1.595 1.585 1.605 1.755 2.035
684.787 2.325 2.755 3.405 4.095 4.815 5.385 5.925 6.805 7.865 9.215
704.077 11.345 14.525 19.115 25.705 34.735 44.825 52.405 54.205 49.555 40.315
723.367 30.785 23.645 18.555 14.955 12.425 10.515 9.025 7.865 6.975 6.185
742.657 5.625 5.175 4.615 4.415 4.075 3.735 3.595 3.325 3.125 3.035
761.947 3.005 2.755 2.695 2.825 2.735 2.615 2.665 2.805 3.015 3.205
781.236 3.445 3.875 3.985 4.005 3.945 3.735 3.415 2.835 2.355 2.025
800.526 2.085 2.185 2.075 1.925 1.755 1.565 1.585 1.565 1.675 1.695
819.816 1.625 1.775 1.765 1.775 1.735 1.855 2.135 2.005 1.805 1.755
839.106 1.635 1.765 1.975 1.965 1.975 2.005 2.075 2.205 2.505 2.815
858.395 2.905 2.925 3.225 3.715 3.975 4.245 4.815 5.305 5.465 5.705
877.685 5.815 5.855 6.045 6.135 5.975 5.705 5.655 5.605 5.435 5.215
896.975 4.955 4.825 4.615 4.275 4.005 3.855 3.865 3.725 3.615 3.755
916.265 3.915 3.825 3.775 3.925 4.165 4.045 3.835 3.965 4.185 4.375
935.555 4.435 4.525 4.795 5.105 5.365 5.625 5.865 6.155 6.325 6.475
954.844 6.615 6.815 6.815 6.715 6.735 6.835 6.905 6.795 6.585 6.315
974.134 6.255 6.155 5.865 5.685 5.505 5.285 5.185 5.065 4.955 4.895
993.424 4.895 4.795 4.955 5.125 5.005 5.155 5.445 5.545 5.595 5.605
1012.714 5.785 6.185 6.385 6.835 7.675 8.475 9.395 10.455 11.615 12.985
1032.003 14.175 15.675 16.805 17.595 18.335 18.645 18.455 17.415 16.585 15.695
1051.293 14.295 13.155 12.375 11.765 11.245 10.505 9.985 9.725 9.195 8.985
1070.583 8.885 8.385 8.135 8.055 7.705 7.525 7.735 8.075 8.095 7.945
1089.873 7.885 7.885 8.015 7.495 7.545 7.775 7.295 7.555 7.375 7.325
1109.163 7.615 7.115 6.675 6.385 6.195 5.895 5.505 5.285 4.835 4.355
1128.452 4.105 3.815 3.655 3.535 3.405 3.125 3.005 3.245 3.055 2.945
1147.742 3.175 3.505 4.045 4.585 5.065 5.205 5.235 5.165 4.795 4.665
1167.032 5.255 5.935 6.585 7.055 7.515 8.235 8.625 9.085 9.735 10.185
1186.322 10.105 9.395 8.765 8.065 7.405 6.995 6.435 5.995 5.795 5.775
1205.611 5.935 6.095 6.125 6.165 6.075 6.225 6.285 6.215 6.575 6.935
1224.901 7.475 8.035 8.325 8.695 8.925 9.055 9.285 9.525 9.715 10.215
1244.191 10.575 10.555 10.735 10.945 11.055 11.095 10.975 10.905 10.465 10.005
1263.481 9.875 9.785 9.985 10.005 10.085 10.315 10.375 10.395 10.295 10.255
1282.771 10.305 10.455 10.555 10.535 10.665 11.005 11.435 11.735 12.075 12.615
1302.060 12.995 13.325 13.795 14.255 14.815 15.535 16.435 17.445 18.615 19.935
1321.350 21.295 22.585 23.655 24.555 25.375 26.275 27.315 28.645 30.355 32.465
1340.640 35.055 38.165 41.845 46.125 50.995 56.365 62.015 67.435 72.345 76.475
1359.930 79.485 81.255 81.745 80.805 78.565 75.135 70.465 64.965 59.425 54.825
1379.219 52.045 51.665 53.965 58.655 64.845 70.805 74.515 74.685 70.875 63.995
1398.509 55.915 48.185 41.685 36.355 31.835 27.905 24.385 21.245 18.635 16.505
1417.799 14.795 13.535 12.695 12.135 11.925 12.125 12.655 13.565 14.965 16.815
1437.089 19.065 21.385 23.265 24.255 24.175 23.155 21.445 19.575 17.935 16.665
1456.378 15.755 15.095 14.715 14.485 14.335 14.165 13.785 12.975 11.535 9.805
1475.668 8.185 6.755 5.645 4.855 4.295 3.855 3.475 3.235 3.105 2.995
1494.958 2.905 2.825 2.765 2.635 2.535 2.475 2.375 2.325 2.265 2.235
1514.248 2.355 2.425 2.355 2.325 2.315 2.285 2.225 2.155 2.095 2.045
1533.538 2.025 2.015 1.975 1.875 1.855 1.855 1.835 1.875 1.895 1.855
1552.827 1.835 1.925 1.955 1.905 1.965 2.065 2.185 2.335 2.355 2.315
1572.117 2.395 2.485 2.555 2.665 2.675 2.655 2.785 3.055 3.255 3.365
1591.407 3.535 3.705 3.735 3.775 3.835 3.895 4.035 4.295 4.605 4.815
1610.697 4.975 4.975 4.805 4.575 4.165 3.725 3.345 3.015 2.735 2.505
1629.986 2.355 2.235 2.145 2.105 2.095 2.145 2.155 2.105 2.115 2.135
1649.276 2.165 2.255 2.295 2.395 2.565 2.665 2.765 2.875 2.985 3.105
1668.566 3.295 3.575 3.835 4.105 4.445 4.735 5.075 5.585 6.165 6.775
1687.856 7.545 8.565 9.715 10.965 12.585 14.545 16.645 18.875 21.255 23.985
1707.146 26.985 30.685 35.485 41.755 50.225 61.815 77.885 99.315 127.145 160.805
1726.435 197.525 231.895 256.765 265.315 254.875 228.505 191.925 152.415 117.365 89.515
1745.725 69.115 54.495 43.995 36.255 30.555 26.265 23.145 20.955 19.425 18.545
1765.015 18.215 18.265 18.795 19.895 21.515 23.795 26.725 30.055 33.335 35.675
1784.305 35.915 33.625 29.395 24.135 18.995 14.945 11.965 9.795 8.295 7.225
1803.594 6.445 5.755 5.205 4.805 4.415 4.075 3.885 3.765 3.595 3.445
1822.884 3.315 3.175 3.165 3.155 3.105 3.155 3.175 3.145 3.125 3.095
1842.174 3.045 2.865 2.685 2.555 2.385 2.265 2.135 2.035 1.995 1.965
1861.464 1.995 2.055 2.105 2.135 2.115 2.125 2.105 2.035 1.885 1.765
1880.754 1.665 1.575 1.565 1.515 1.505 1.535 1.515 1.485 1.525 1.585
1900.043 1.625 1.625 1.635 1.625 1.585 1.635 1.725 1.715 1.615 1.495
1919.333 1.455 1.445 1.435 1.435 1.485 1.535 1.595 1.695 1.765 1.795
1938.623 1.825 1.795 1.715 1.575 1.445 1.335 1.193 1.039 1.0013 1.0226
1957.913 1.0257 1.0812 1.1635 1.2943 1.415 1.475 1.575 1.605 1.485 1.2801
1977.202 1.1115 1.0236 0.9461 0.9107 0.8535 0.7781 0.7697 0.7142 0.7099 0.7735
1996.492 0.7768 0.769 0.7841 0.7501 0.7074 0.7052 0.6832 0.6824 0.6998 0.686
2015.782 0.6443 0.6243 0.7131 0.7982 0.7387 0.6712 0.6352 0.6497 0.7075 0.6935
2035.072 0.6627 0.6428 0.6292 0.6392 0.6338 0.6213 0.6665 0.6938 0.6541 0.639
2054.362 0.6621 0.7354 0.6845 0.5857 0.6326 0.7207 0.7122 0.6164 0.5982 0.6182
2073.651 0.6066 0.5971 0.5781 0.5904 0.6152 0.6517 0.6757 0.6519 0.6508 0.6285
2092.941 0.6535 0.7079 0.6977 0.6543 0.6503 0.6177 0.5435 0.5926 0.6031 0.5612
2112.231 0.5733 0.6105 0.5724 0.4932 0.467 0.4568 0.4904 0.5031 0.5339 0.5679
2131.521 0.5735 0.5784 0.5653 0.6176 0.6695 0.6343 0.6373 0.6243 0.611 0.605
2150.810 0.5973 0.6119 0.577 0.5587 0.5922 0.5906 0.6023 0.6322 0.5828 0.5821
2170.100 0.5294 0.5287 0.6776 0.6316 0.5545 0.5472 0.4985 0.5301 0.5019 0.5005
2189.390 0.5291 0.4933 0.4782 0.4869 0.4963 0.4966 0.4784 0.4765 0.5239 0.4883
2208.680 0.505 0.5195 0.4197 0.38133 0.36412 0.38899 0.39754 0.4366 0.5082 0.4695
2227.970 0.4502 0.4679 0.4605 0.4656 0.4758 0.5566 0.6226 0.6203 0.627 0.6205
2247.259 0.6254 0.6836 0.7228 0.6765 0.6749 0.7037 0.7078 0.7081 0.6919 0.682
2266.549 0.6451 0.6112 0.6331 0.6375 0.5751 0.5402 0.536 0.5115 0.5413 0.5381
2285.839 0.4976 0.5776 0.6463 0.6227 0.5931 0.5052 0.5406 0.6608 0.6415 0.6122
2305.129 0.6606 0.6943 0.6882 0.7088 0.7037 0.7329 0.8116 0.8501 0.8133 0.7341
2324.418 0.7861 0.8309 0.7644 0.7411 0.7445 0.7726 0.7591 0.6985 0.6761 0.7172
2343.708 0.7607 0.7026 0.6747 0.7365 0.7287 0.723 0.7543 0.7263 0.6768 0.6506
2362.998 0.6299 0.5959 0.5861 0.5801 0.573 0.6422 0.6847 0.6266 0.6028 0.5751
2382.288 0.5224 0.5231 0.6346 0.6362 0.6607 0.6805 0.6348 0.6655 0.6508 0.6576
2401.578 0.6456 0.6533 0.6562 0.6894 0.6485 0.5523 0.5998 0.6729 0.7144 0.7332
2420.867 0.7137 0.6896 0.7243 0.773 0.7983 0.8808 0.8883 0.813 0.7865 0.776
2440.157 0.7795 0.7072 0.6512 0.6743 0.724 0.7382 0.7273 0.6929 0.6418 0.6199
2459.447 0.5706 0.5628 0.5158 0.4864 0.5081 0.5847 0.6484 0.6375 0.6061 0.5762
2478.737 0.5031 0.4979 0.4763 0.38172 0.40303 0.453 0.5648 0.6159 0.5736 0.5378
2498.026 0.5797 0.5502 0.4877 0.4958 0.4416 0.40803 0.438 0.4368 0.4591 0.5154
2517.316 0.527 0.4593 0.35515 0.36126 0.43262 0.40007 0.337625 0.341685 0.36695 0.37277
2536.606 0.39453 0.39911 0.39113 0.4454 0.4353 0.3599 0.33299 0.36525 0.3059 0.3073
2555.896 0.4038 0.42357 0.39844 0.33557 0.36664 0.3983 0.41548 0.39509 0.35029 0.35158
2575.186 0.42073 0.4836 0.36074 0.2883 0.35498 0.41953 0.40361 0.341018 0.37103 0.36165
2594.475 0.3205 0.342273 0.39295 0.4647 0.4734 0.4941 0.5205 0.4779 0.42644 0.4825
2613.765 0.5513 0.5818 0.5714 0.4962 0.5448 0.5185 0.4459 0.5447 0.6032 0.5926
2633.055 0.5829 0.6482 0.7318 0.6993 0.7527 0.7129 0.6201 0.6445 0.6012 0.609
2652.345 0.6597 0.6442 0.6091 0.6467 0.7459 0.728 0.7415 0.8373 0.8536 0.8268
2671.634 0.7811 0.7916 0.9173 0.931 0.855 0.8804 0.8811 0.9722 1.0045 0.895
2690.924 0.9116 0.9551 0.8547 0.8439 0.9689 0.951 0.8843 0.845 0.7986 0.716
2710.214 0.6894 0.7005 0.6632 0.6585 0.6499 0.6223 0.6531 0.6467 0.6255 0.6332
2729.504 0.5904 0.57 0.5796 0.6489 0.707 0.6664 0.6475 0.6751 0.675 0.6726
2748.794 0.6736 0.6632 0.599 0.5893 0.7462 0.8243 0.7606 0.7732 0.7619 0.8092
2768.083 0.7944 0.7162 0.8575 0.9676 1.0394 1.1848 1.218 1.2028 1.1769 1.1363
2787.373 1.1875 1.1847 1.1781 1.2241 1.2201 1.1906 1.1721 1.2063 1.2851 1.2497
2806.663 1.2225 1.3263 1.3187 1.2857 1.2924 1.415 1.605 1.665 1.715 1.745
2825.953 1.845 2.035 2.225 2.385 2.575 2.745 2.985 3.265 3.565 3.915
2845.242 4.295 4.685 5.095 5.625 6.195 6.895 7.745 8.755 10.005 11.235
2864.532 12.385 13.265 13.725 13.825 13.545 12.895 12.145 11.385 10.485 9.665
2883.822 9.025 8.555 8.285 8.245 8.195 8.095 8.235 8.545 8.865 9.185
2903.112 9.545 9.855 10.265 10.785 11.485 12.325 13.265 14.405 15.635 17.035
2922.401 18.585 20.215 22.075 24.085 26.125 28.295 30.315 32.205 34.315 36.415
2941.691 38.145 39.425 39.875 39.205 37.385 34.635 31.295 27.615 24.135 21.085
2960.981 18.745 17.215 16.185 15.415 14.895 14.525 13.845 13.005 12.135 11.165
2980.271 10.085 9.035 7.975 6.945 6.115 5.365 4.745 4.255 3.835 3.575
2999.561 3.555 3.625 3.545 3.695 4.025 4.175 4.465 4.675 4.655 4.315
3018.850 3.685 3.105 2.685 2.505 2.335 2.135 2.035 1.995 2.045 2.145
3038.140 2.165 2.205 2.355 2.375 2.495 2.675 2.935 3.275 3.525 3.625
3057.430 3.815 4.205 4.565 4.705 4.575 4.365 4.085 3.915 4.035 4.255
3076.720 4.515 4.965 5.555 6.185 6.525 6.615 6.585 6.235 5.535 4.595
3096.009 3.795 3.135 2.475 1.975 1.715 1.505 1.2191 1.0303 0.8309 0.7278
3115.299 0.6531 0.6211 0.6209 0.5299 0.477 0.438 0.4794 0.5243 0.39822 0.3209
3134.589 0.36733 0.4165 0.41134 0.33383 0.2833 0.2755 0.2517 0.40192 0.4794 0.3216
3153.879 0.2588 0.40499 0.39336 0.2894 0.23 0.291 0.40764 0.3047 0.272 0.2919
3173.169 0.42658 0.5073 0.37906 0.328 0.36342 0.4393 0.38823 0.262 0.41056 0.4735
3192.458 0.3006 0.2794 0.4758 0.6615 0.6141 0.5086 0.4751 0.4488 0.40137 0.34127
3211.748 0.38609 0.4753 0.39527 0.36501 0.5631 0.56 0.39313 0.36851 0.39704 0.37766
3231.038 0.4494 0.42492 0.217 0.134 0.079 0.226 0.41004 0.37733 0.3167 0.3239
3250.328 0.2998 0.343266 0.35298 0.39135 0.4439 0.38863 0.3144 0.2735 0.38302 0.209
3269.617 0.107 0.192 0.112 0.145 0.146 0.189 0.3228 0.335319 0.2908 0.37621
3288.907 0.2853 0.2416 0.35904 0.2944 0.178 0.173 0.2509 0.189 0.2665 0.2924
3308.197 0.33232 0.33851 0.2751 0.231 0.25 0.3166 0.34602 0.40641 0.37812 0.206
3327.487 0.218 0.4533 0.4958 0.35084 0.232 0.3248 0.3245 0.188 0.182 0.2647
3346.777 0.2495 0.181 0.334487 0.41007 0.2475 0.09 0 0.111 0.2786 0.223
3366.066 0.097 0.123 0.187 0.196 0.158 0.2468 0.40839 0.338158 0.2637 0.2724
3385.356 0.257 0.187 0.203 0.2879 0.3007 0.2618 0.191 0.167 0.236 0.3114
3404.646 0.3168 0.277 0.36 0.339298 0.269 0.2771 0.36089 0.41902 0.3022 0.2893
3423.936 0.2432 0.2435 0.3012 0.2789 0.3157 0.5205 0.5839 0.596 0.7173 0.8243
3443.225 0.8671 0.7984 0.7484 0.8427 0.9256 0.9211 1.0695 1.1447 1.1247 1.1447
3462.515 1.1403 1.0826 0.9769 1.0539 1.1841 1.2849 1.405 1.485 1.445 1.505
3481.805 1.625 1.715 1.795 1.885 2.185 2.345 2.455 2.525 2.635 2.775
3501.095 2.725 2.585 2.355 2.115 1.865 1.645 1.415 1.2587 1.145 1.0058
3520.385 0.96 0.8538 0.6068 0.5615 0.5694 0.5512 0.6314 0.5667 0.4135 0.37881
3539.674 0.4434 0.37298 0.34712 0.4837 0.5001 0.41999 0.39111 0.37285 0.4692 0.5362
3558.964 0.42987 0.4383 0.499 0.5214 0.38841 0.2979 0.3697 0.35208 0.43309 0.39624
3578.254 0.2691 0.36731 0.37878 0.36464 0.3885 0.3111 0.2991 0.35402 0.2999 0.185
3597.544 0.098 0.175 0.3106 0.3015 0.2651 0.2366 0.2824 0.3184 0.2977 0.343794
3616.833 0.42496 0.43092 0.41538 0.38642 0.37894 0.3086 0.217 0.295 0.39547 0.3967
3636.123 0.38009 0.35793 0.439 0.4571 0.3549 0.2824 0.2917 0.4431 0.229 0.017
3655.413 0.206 0.2836 0.2811 0.32586 0.3249 0.2884 0.217 0.116 0.2625 0.42332
3674.703 0.33131 0.2844 0.34935 0.2783 0.223 0.33337 0.335437 0.3026 0.225 0.2884
3693.993 0.37381 0.3123 0.159 0.119 0.094 0.124 0.177 0.153 0.279 0.2909
3713.282 0.209 0.2443 0.233 0.36219 0.37889 0.2698 0.2822 0.3076 0.34878 0.216
3732.572 0.2768 0.38004 0.41599 0.4527 0.36559 0.3176 0.39128 0.38214 0.3066 0.2538
3751.862 0.37153 0.6031 0.5173 0.4734 0.464 0.3115 0.3935 0.4605 0.4571 0.38625
3771.152 0.2809 0.2774 0.37555 0.39097 0.31 0.33333 0.2802 0.162 0.234 0.38009
3790.441 0.33115 0.216 0.177 0.35422 0.4807 0.37303 0.2607 0.167 0.2795 0.3121
3809.731 0.32559 0.38118 0.3711 0.40729 0.3068 0.152 0.167 0.312 0.248 0.206
3829.021 0.2493 0.2825 0.2818 0.2661 0.234 0.233 0.2954 0.34795 0.3005 0.227
3848.311 0.2463 0.152 0.142 0.294 0.4537 0.541 0.5578 0.4725 0.35663 0.218
3867.601 0.175 0.234 0.2871 0.35292 0.36599 0.38853 0.463 0.5263 0.41848 0.32981
3886.890 0.36522 0.4767 0.4554 0.39511 0.3573 0.3183 0.323 0.35599 0.452 0.5064
3906.180 0.5481 0.455 0.4643 0.5688 0.4493 0.302 0.40513 0.5389 0.483 0.35551
3925.470 0.2995 0.2849 0.3212 0.2983 0.33884 0.41941 0.35627 0.40088 0.37752 0.32865
3944.760 0.2717 0.3066 0.40297 0.4692 0.4884 0.5355 0.547 0.34839 0.39626 0.5025
3964.049 0.41057 0.4214 0.5517 0.525 0.35611 0.235 0.205 0.3212 0.3203 0.2457
3983.339 0.175 0.02 0.169 0.2788 0.35024 0.4533 0.39293 0.337891 0.184 0.1
##END=
