##TITLE=3-Amino-4-methylbenzoic acid
##JCAMP-DX=4.24
##DATA TYPE=INFRARED SPECTRUM
##ORIGIN=NIST Mass Spectrometry Data Center
##OWNER=NIST Standard Reference Data Program
Collection (C) 2018 copyright by the U.S. Secretary of Commerce
on behalf of the United States of America. All rights reserved.
##CAS REGISTRY NO=2458-12-0
##MOLFORM=C 8 H 9 N O 2
##$NIST SOURCE=MSDC-IR
##SPECTROMETER/DATA SYSTEM=HP-GC/MS/IRD
##STATE=gas
##XUNITS=1/CM
##YUNITS=ABSORBANCE
##XFACTOR=1.0
##YFACTOR=0.000002200
##DELTAX=4.0
##FIRSTX=550.0
##LASTX=3846.0
##FIRSTY=0.000915
##MAXX=3846
##MINX=550
##MAXY=0.022
##MINY=0
##NPOINTS=825
##XYDATA=(X++(Y..Y))
550.0 416 746 659 745 838 949 1053 1125 1142 1130
590.0 1112 1086 1098 1177 1356 1484 1497 1392 1167 934
630.0 727 611 562 530 506 506 504 486 489 495
670.0 490 487 496 524 566 589 638 730 870 1105
710.0 1337 1432 1379 1165 858 618 541 606 787 1085
750.0 1398 1724 2061 2010 1678 1392 1062 755 525 353
790.0 270 225 183 168 174 191 181 174 175 162
830.0 142 124 120 99 87 88 101 122 144 197
870.0 240 283 334 360 355 332 296 255 231 220
910.0 241 305 351 358 339 287 224 153 98 59
950.0 33 16 9 30 57 74 109 160 240 370
990.0 502 567 559 476 340 226 179 156 141 163
1030.0 200 232 270 334 459 641 848 1045 1220 1365
1070.0 1511 1698 1922 2064 2097 2124 2073 1882 1680 1516
1110.0 1289 1026 869 866 1025 1326 1789 2390 2965 3357
1150.0 3612 3804 3887 3905 3891 3718 3300 2742 2203 1752
1190.0 1413 1208 1086 991 911 811 663 503 384 327
1230.0 306 295 315 382 477 609 736 835 917 994
1270.0 1066 1131 1210 1260 1239 1167 1089 1022 1008 1066
1310.0 1144 1250 1396 1553 1708 1846 1898 1841 1733 1609
1350.0 1499 1415 1356 1312 1247 1139 1009 834 633 512
1390.0 442 394 425 539 701 912 1177 1464 1702 1796
1430.0 1721 1496 1182 904 736 657 631 609 579 530
1470.0 449 360 304 269 266 301 356 423 499 557
1510.0 565 527 452 355 263 204 187 186 189 199
1550.0 218 274 364 478 617 788 940 1018 1035 990
1590.0 887 791 757 812 941 1129 1385 1658 1867 1966
1630.0 1937 1778 1480 1141 851 629 463 341 258 208
1670.0 189 187 195 215 247 289 354 432 500 551
1710.0 566 561 563 581 659 879 1330 2123 3504 5570
1750.0 7851 9438 10000 9430 7409 4727 2720 1633 1053 733
1790.0 564 477 428 417 428 433 398 326 246 171
1830.0 112 80 69 52 41 47 55 55 57 64
1870.0 67 77 86 83 82 82 74 67 58 42
1910.0 34 30 27 30 36 37 32 29 25 16
1950.0 10 5 0 2 3 3 4 6 6 0
1990.0 0 2 1 1 1 3 9 8 5 7
2030.0 10 11 7 14 15 12 11 13 19 15
2070.0 15 19 23 26 25 26 24 29 26 19
2110.0 16 15 24 22 10 13 16 19 21 15
2150.0 11 18 23 16 10 16 21 16 19 19
2190.0 10 10 16 16 10 14 16 17 16 15
2230.0 9 5 7 10 14 9 5 9 16 19
2270.0 13 9 6 3 3 4 7 10 15 18
2310.0 19 22 21 21 22 17 20 23 15 10
2350.0 14 22 22 22 22 19 21 14 6 8
2390.0 10 10 12 9 9 13 14 17 20 20
2430.0 20 19 22 25 23 26 27 19 19 17
2470.0 15 22 25 23 22 20 12 9 20 26
2510.0 23 25 21 17 27 32 22 17 10 13
2550.0 24 26 22 19 21 25 21 18 13 9
2590.0 14 17 24 32 35 42 47 44 40 45
2630.0 53 44 38 40 28 19 22 20 16 24
2670.0 18 20 18 15 10 12 23 18 17 19
2710.0 18 16 20 25 23 24 34 44 47 43
2750.0 36 36 31 31 35 31 15 14 25 22
2790.0 18 29 36 32 33 38 47 45 42 45
2830.0 50 57 63 83 109 112 134 182 224 283
2870.0 328 341 351 337 314 302 297 299 306 325
2910.0 348 374 398 439 491 512 510 490 448 401
2950.0 354 305 261 235 222 238 267 287 307 308
2990.0 303 292 258 228 206 199 209 232 260 282
3030.0 312 364 395 399 401 369 305 241 210 182
3070.0 148 144 157 161 151 149 136 121 120 99
3110.0 76 68 71 70 61 51 41 43 43 38
3150.0 30 27 18 15 15 18 34 38 25 11
3190.0 23 31 32 41 29 40 49 48 61 60
3230.0 61 58 38 31 44 47 36 30 28 24
3270.0 11 13 27 32 26 20 18 27 36 30
3310.0 23 20 22 25 24 10 15 39 38 28
3350.0 32 29 28 26 34 53 65 66 70 86
3390.0 112 144 176 213 267 312 311 309 269 193
3430.0 148 116 97 80 72 78 66 73 97 109
3470.0 131 160 188 240 326 392 425 423 389 334
3510.0 264 214 177 152 134 107 84 96 103 91
3550.0 97 110 145 237 428 844 1589 2493 3015 3001
3590.0 2574 1682 773 333 197 133 102 90 81 82
3630.0 76 67 65 56 59 72 59 38 44 49
3670.0 52 60 69 67 58 65 64 47 33 24
3710.0 22 23 30 43 43 39 48 50 44 63
3750.0 60 43 55 53 43 38 35 46 52 51
3790.0 46 43 55 48 33 23 28 33 29 33
3830.0 37 44 38 42 35
##END=
