##TITLE=Methyl isonicotinate
##JCAMP-DX=4.24
##DATA TYPE=INFRARED SPECTRUM
##ORIGIN=EPA-IR VAPOR PHASE LIBRARY
##OWNER=SRD/NIST
Collection (C) 2018 copyright by the U.S. Secretary of Commerce
on behalf of the United States of America. All rights reserved.
##CAS REGISTRY NO=2459-09-8
##MOLFORM=C 7 H 7 N O 2
##$NIST SOURCE=MSDC-IR
##STATE=gas
##XUNITS=1/CM
##YUNITS=ABSORBANCE
##XFACTOR=1.
##YFACTOR=0.001
##DELTAX=1.92898
##FIRSTX=549.8
##LASTX=4000.7
##FIRSTY=0.7144
##MAXX=4000.7
##MINX=549.759
##MAXY=0.37503
##MINY=0
##NPOINTS=1790
##XYDATA=(X++(Y..Y))
549.759 0.7144 0.6842 0.7631 0.5816 0.1559 0.3642 0.7665 0.7186 0.8561 0.9991
569.049 0.9339 0.8592 0.7754 0.7011 0.6566 0.646 0.6462 0.6248 0.6441 0.6319
588.339 0.3448 0.2857 0.3314 0.3498 0.3542 0.1454 0.3288 0.5428 0.6173 0.6702
607.628 0.4877 0.3906 0.551 0.4733 0.3038 0.4046 0.3298 0.2336 0.3253 0.4152
626.918 0.3205 0.2467 0.338 0.4939 0.3671 0.3311 0.4654 0.5384 0.7122 0.9824
646.208 1.5801 1.9601 2.3601 2.9801 3.6501 4.6201 5.9301 7.3101 9.2901 12.6701
665.498 17.5401 23.7101 29.8101 32.6901 33.4701 34.3701 33.5501 34.5601 36.1701 33.0701
684.787 27.1201 21.5701 17.8101 15.9501 15.5201 15.7301 16.5701 17.8701 19.4401 21.3901
704.077 23.7801 25.2201 23.5001 20.9101 19.8001 19.2501 18.7701 17.8601 16.1101 14.1401
723.367 12.4801 10.9701 9.7201 8.7601 8.2601 8.2001 8.4401 9.2801 10.4301 11.9501
742.657 14.0501 16.1301 17.9201 19.5601 21.1101 23.1101 28.0301 38.9801 40.9501 30.4801
761.947 25.4601 24.6501 23.5801 22.3501 20.3101 17.7701 15.1601 12.6801 10.2501 8.1601
781.236 6.6901 5.5201 4.6401 4.0501 3.5501 3.2401 3.1801 3.2801 3.4601 3.5501
800.526 3.6701 3.9501 4.3701 4.9001 5.4701 6.1201 6.6401 7.4201 8.3901 9.0401
819.816 9.3201 9.4901 9.7301 10.0201 10.7201 11.3501 11.5101 11.6301 11.5301 11.1901
839.106 10.9501 10.9301 11.1201 11.4301 11.6401 11.4101 10.2301 8.7101 7.7101 7.0301
858.395 6.3901 5.7401 5.0401 4.1801 3.5401 2.9001 2.3801 2.1401 1.9501 1.7501
877.685 1.5501 1.4701 1.4001 1.4201 1.4201 1.4101 1.5101 1.6801 1.6601 1.4501
896.975 1.4001 1.5201 1.5801 1.5001 1.4201 1.5101 1.4401 1.3801 1.4701 1.5201
916.265 1.4701 1.4501 1.6001 1.6601 1.6701 1.7801 1.9801 2.1501 2.2901 2.5201
935.555 2.7701 3.1401 3.6401 4.3301 5.1301 5.8101 6.6001 7.4601 8.3101 9.1901
954.844 10.3301 11.6101 12.9801 14.4301 15.8901 17.3001 18.4801 19.3901 19.9301 20.0301
974.134 19.8001 19.4501 18.7801 18.2201 17.5901 16.4201 14.7501 12.3701 10.4201 9.4501
993.424 8.4801 8.0401 7.5501 6.1001 4.4901 3.2201 2.2901 1.7901 1.7401 1.6801
1012.714 1.6301 1.6101 1.5801 1.7201 1.8801 1.9601 2.1401 2.4701 2.4701 2.3801
1032.003 2.6201 2.7201 2.8101 3.0901 3.2301 3.4401 3.7501 4.0701 4.9501 6.0801
1051.293 7.1101 8.8401 11.4401 14.7401 18.5801 22.0501 24.4301 25.3801 26.1101 26.9001
1070.583 27.1201 27.3401 25.9601 22.9001 20.7001 19.8201 20.1101 21.1701 22.5801 24.5101
1089.873 27.0901 30.6001 34.3901 39.2501 45.1501 51.7701 59.7301 68.4801 78.2701 88.1701
1109.163 97.3901 105.87 112.26 116.1 117.87 117.13 113.96 108.33 100.35 90.7301
1128.452 80.1001 69.7501 60.4101 52.8201 46.7401 41.6501 37.4701 33.7501 30.7301 28.0601
1147.742 25.6501 23.4001 21.3101 19.8301 18.7001 17.7401 16.9101 16.3001 16.1201 15.8201
1167.032 15.5001 15.6701 15.5001 15.4601 15.9801 16.5901 17.4001 18.4401 19.7801 21.0501
1186.322 22.5201 24.0001 25.1601 26.0201 26.5301 27.1201 27.9601 28.7201 29.2001 29.3301
1205.611 28.5001 26.8701 25.5501 24.8901 24.5001 24.0801 23.6501 22.9801 22.1701 21.6201
1224.901 21.9301 23.2701 25.3901 28.5301 32.2901 36.2301 40.3001 44.3301 47.7301 50.5201
1244.191 52.9901 55.0001 57.4401 60.5001 64.2301 69.3301 76.4601 86.7601 101.3 121.35
1263.481 147.12 178.1 213.25 249.97 285.67 317.74 343.67 362.16 372.69 375.03
1282.771 368.02 350.6 322.8 285.91 244.01 202.87 166.76 136.7 111.83 91.3001
1302.060 74.5301 61.1401 51.0201 43.8801 39.5001 37.8001 38.4601 40.7101 43.0401 43.8901
1321.350 43.1301 42.5601 42.5001 42.3001 41.8301 39.0001 33.4701 27.4701 22.4501 18.7201
1340.640 15.9901 13.8901 12.2701 10.9201 9.7401 8.7501 7.8301 7.0501 6.4701 6.0201
1359.930 5.6801 5.3901 5.1801 5.1301 5.1501 5.2401 5.4101 5.6801 6.0601 6.5401
1379.219 7.2101 8.0901 9.1801 10.5401 12.2101 14.1401 16.3601 18.9201 21.8001 24.7201
1398.509 27.4001 29.5001 30.6901 31.0901 31.1701 31.4901 31.9501 31.8401 30.6101 28.5801
1417.799 26.3601 24.4101 23.1201 22.6901 23.3401 25.2601 28.6201 33.1201 37.8701 41.5501
1437.089 43.4501 44.6601 45.1501 44.4501 43.5601 40.4001 33.6301 26.1501 20.3401 16.5901
1456.378 14.2101 12.7201 11.7501 11.0101 10.4101 9.9501 9.6501 9.4401 9.2301 9.0101
1475.668 8.8401 8.7301 8.7501 8.8301 8.9101 9.0401 8.9701 8.6101 8.2701 8.0101
1494.958 7.7501 7.4101 6.8601 6.1501 5.4201 4.9101 4.5401 4.2201 4.0101 3.8701
1514.248 3.8401 3.8401 3.8801 3.9901 4.1201 4.3301 4.5801 4.8501 5.2201 5.7201
1533.538 6.3201 6.9501 7.7301 8.7701 9.9201 11.1701 12.5101 13.9701 15.4401 16.8601
1552.827 18.2401 19.4601 20.3801 20.9301 21.1601 21.2201 21.0301 20.7001 20.2301 19.4301
1572.117 18.3301 17.1701 16.2401 15.6101 15.4401 15.6601 16.1401 16.8001 17.3801 17.7301
1591.407 17.6001 17.0401 16.2401 15.2101 14.0001 12.6101 11.1201 9.5501 8.0701 6.8901
1610.697 6.0901 5.6301 5.4101 5.3301 5.2401 5.1601 5.1701 5.2201 5.2301 5.1601
1629.986 5.1301 5.1101 5.0801 5.1001 4.9901 4.8501 4.7301 4.5501 4.3701 4.2001
1649.276 3.9901 3.7601 3.5601 3.4001 3.2901 3.1601 3.0301 2.9501 2.9401 2.9501
1668.566 2.8801 2.8301 2.9301 3.0901 3.3001 3.5301 3.8501 4.2201 4.6701 5.2101
1687.856 5.7801 6.4301 7.1401 7.8401 8.5901 9.4501 10.4301 11.5501 12.5301 13.1101
1707.146 13.3001 13.5701 14.1101 14.9501 15.9701 17.1001 18.4801 20.3401 23.0601 26.9101
1726.435 32.0401 38.5601 46.7901 57.0201 70.2301 86.6301 106.16 129.54 154.59 178.42
1745.725 195.78 202.03 197.84 191.64 193.89 204.8 210.89 198.93 170.7 137.7
1765.015 108.63 85.6401 67.7601 53.7601 42.2901 33.1701 26.2101 21.0401 17.4701 15.1401
1784.305 13.7001 12.8201 12.3201 12.0801 11.9701 11.9501 11.9401 12.0501 12.1301 11.8501
1803.594 11.0601 9.9001 8.8101 8.0001 7.2601 6.4401 5.6001 4.8401 4.1401 3.4701
1822.884 2.9801 2.6201 2.3001 2.1401 2.0301 1.9901 2.0601 2.1001 2.1701 2.2701
1842.174 2.3801 2.5001 2.5601 2.6001 2.6301 2.6201 2.5001 2.4201 2.3601 2.2101
1861.464 2.0301 1.8401 1.6901 1.5301 1.3701 1.2601 1.2601 1.2601 1.2401 1.3101
1880.754 1.3501 1.3801 1.5001 1.5801 1.6001 1.6601 1.7401 1.7901 1.8601 1.9701
1900.043 2.0601 2.1301 2.1701 2.2301 2.3201 2.4201 2.5601 2.6801 2.8601 3.0701
1919.333 3.2201 3.4601 3.7801 4.1101 4.4401 4.7601 5.0401 5.3401 5.6701 5.8201
1938.623 5.8401 5.8401 5.7701 5.6001 5.3601 5.0101 4.6601 4.3101 3.8601 3.3101
1957.913 2.8201 2.4501 2.1201 1.8001 1.5301 1.3601 1.2701 1.1701 1.0301 0.9526
1977.202 0.9003 0.8497 0.7891 0.778 0.7572 0.6882 0.673 0.6511 0.663 0.7057
1996.492 0.6903 0.6582 0.6924 0.736 0.749 0.7975 0.8638 0.895 0.9117 1.0193
2015.782 1.1501 1.1601 1.1301 1.1501 1.1501 1.1601 1.1601 1.1401 1.1101 1.0801
2035.072 1.0901 1.0901 1.0501 1.1201 1.1801 1.1501 1.2001 1.2101 1.2101 1.3101
2054.362 1.3201 1.3301 1.3701 1.4501 1.5101 1.5701 1.6801 1.7701 1.8201 1.9501
2073.651 2.0501 2.1101 2.2301 2.3001 2.3501 2.4701 2.5801 2.7101 2.8401 2.8501
2092.941 2.8601 2.8801 2.8801 2.8501 2.7801 2.6801 2.5901 2.4601 2.2401 2.0301
2112.231 1.8801 1.7201 1.5301 1.3401 1.1801 1.0601 0.9922 0.9167 0.8037 0.7606
2131.521 0.7442 0.6839 0.6411 0.6273 0.623 0.64 0.6735 0.6279 0.6086 0.6418
2150.810 0.6343 0.621 0.5555 0.5379 0.5709 0.5313 0.4908 0.4838 0.5039 0.4933
2170.100 0.4585 0.4841 0.4426 0.3501 0.4275 0.4651 0.3974 0.3925 0.4076 0.419
2189.390 0.3741 0.3684 0.3742 0.3467 0.3713 0.3775 0.3684 0.3838 0.4054 0.4331
2208.680 0.4318 0.3795 0.3973 0.4301 0.4051 0.4678 0.4924 0.4604 0.4492 0.4849
2227.970 0.5405 0.5289 0.5204 0.5616 0.5686 0.546 0.5739 0.6151 0.6365 0.6912
2247.259 0.7065 0.7271 0.7633 0.7855 0.8572 0.8661 0.8397 0.8746 0.9255 0.9292
2266.549 0.9412 0.8827 0.831 0.8137 0.7173 0.7019 0.7469 0.7599 0.72 0.6884
2285.839 0.6593 0.6163 0.6409 0.6487 0.6551 0.637 0.6385 0.6649 0.6221 0.5886
2305.129 0.5855 0.5782 0.549 0.5232 0.5696 0.5532 0.4792 0.4739 0.429 0.3159
2324.418 0.278 0.3123 0.2642 0.2435 0.2983 0.3148 0.3341 0.3128 0.2248 0.2185
2343.708 0.2533 0.2525 0.3034 0.2908 0.2286 0.2363 0.3189 0.3257 0.3587 0.4599
2362.998 0.4878 0.5155 0.4489 0.4024 0.5086 0.6256 0.6803 0.6778 0.6866 0.7123
2382.288 0.8016 0.8752 0.8386 0.8445 0.9262 0.9742 0.9293 0.956 1.0501 1.0201
2401.578 0.9665 0.9404 0.9168 0.9014 0.8838 0.8708 0.8355 0.7877 0.7579 0.6986
2420.867 0.6174 0.5945 0.607 0.5624 0.532 0.5262 0.4583 0.3846 0.3647 0.4201
2440.157 0.4374 0.4172 0.4037 0.3819 0.3909 0.3733 0.3016 0.3036 0.3274 0.2978
2459.447 0.3448 0.3685 0.3049 0.295 0.3178 0.3058 0.2978 0.3331 0.3455 0.3217
2478.737 0.3415 0.3492 0.3161 0.312 0.3121 0.353 0.3516 0.2951 0.2705 0.3069
2498.026 0.3221 0.2567 0.2179 0.1637 0.2642 0.3406 0.304 0.3299 0.3308 0.264
2517.316 0.2489 0.3026 0.3681 0.3717 0.3498 0.3918 0.3848 0.4076 0.4306 0.4515
2536.606 0.4921 0.5073 0.4975 0.5372 0.5914 0.5745 0.6017 0.6478 0.6689 0.6771
2555.896 0.7165 0.742 0.7823 0.7497 0.6912 0.7804 0.8385 0.8201 0.7859 0.7367
2575.186 0.6719 0.6762 0.6773 0.6021 0.5378 0.5582 0.5557 0.5399 0.5501 0.5148
2594.475 0.4784 0.446 0.4584 0.5565 0.6283 0.6268 0.5863 0.5682 0.5868 0.5796
2613.765 0.5823 0.6321 0.5714 0.3898 0.3725 0.3942 0.2988 0.2803 0.2603 0.2241
2633.055 0.2631 0.3115 0.3745 0.4158 0.4248 0.4152 0.3799 0.433 0.4916 0.4235
2652.345 0.364 0.3818 0.466 0.4444 0.4201 0.4092 0.3237 0.3023 0.3312 0.3448
2671.634 0.3001 0.277 0.2632 0.2556 0.1887 0.1375 0.2065 0.2788 0.2799 0.2994
2690.924 0.2945 0.3174 0.3748 0.3726 0.4377 0.4365 0.367 0.394 0.3966 0.3435
2710.214 0.3304 0.3938 0.4725 0.4442 0.3885 0.377 0.3857 0.37 0.4038 0.4925
2729.504 0.4485 0.3187 0.3168 0.3728 0.2787 0.2148 0.3156 0.3432 0.2884 0.2797
2748.794 0.3824 0.3803 0.3447 0.3667 0.3777 0.4071 0.4645 0.4564 0.4523 0.4554
2768.083 0.4447 0.4634 0.432 0.5071 0.5925 0.5387 0.4886 0.4698 0.368 0.307
2787.373 0.3253 0.3073 0.3616 0.455 0.4247 0.4871 0.5773 0.5025 0.513 0.5498
2806.663 0.5311 0.5468 0.6366 0.7376 0.7671 0.8336 0.957 1.0801 1.0301 1.0701
2825.953 1.2601 1.4701 1.7101 1.9001 2.1101 2.4501 2.9801 3.4801 4.0601 4.7801
2845.242 5.4701 6.1501 6.6501 6.9501 7.1501 7.3101 7.2701 6.9901 6.5401 5.9001
2864.532 5.1701 4.5101 4.0801 3.7701 3.6601 3.6301 3.5701 3.6301 3.8101 3.8601
2883.822 3.7901 3.9401 4.1901 4.3901 4.6101 4.7501 4.9301 5.2401 5.4901 5.5901
2903.112 5.7701 6.0601 6.2301 6.3501 6.3901 6.4101 6.5001 6.5601 6.5901 6.5301
2922.401 6.4501 6.3701 6.4001 6.4901 6.3801 6.3101 6.4801 6.7501 7.1401 7.6001
2941.691 8.2901 9.4501 11.0601 13.2501 16.3401 20.4201 25.4101 30.6701 35.0101 37.4301
2960.981 38.2101 38.5501 38.1601 37.1201 35.9101 32.8901 27.8301 22.3701 17.7301 14.5601
2980.271 12.7001 11.5101 10.8201 10.5001 10.4501 10.6001 10.7401 10.9501 11.3001 11.6701
2999.561 11.8501 12.0301 12.4101 12.8001 12.8601 12.8001 12.9001 13.0901 13.4701 13.8801
3018.850 14.5001 15.4501 16.3901 17.5101 18.8701 20.2001 21.5601 22.8201 23.9001 24.8201
3038.140 25.5901 26.2301 26.5001 26.4001 26.0801 25.4001 24.2301 22.7101 21.1801 19.8901
3057.430 18.8101 17.8501 17.0701 16.2901 15.5801 15.1301 14.7101 14.3801 14.2301 14.1801
3076.720 14.3901 14.5801 14.6101 14.4501 14.0001 13.4301 12.7701 12.2001 11.9301 11.7201
3096.009 11.3701 10.6601 9.6201 8.5501 7.4101 6.2201 5.3901 4.9001 4.3501 3.8601
3115.299 3.4601 2.9901 2.6101 2.4301 2.3401 2.1501 1.9901 1.9401 1.9701 1.8501
3134.589 1.5701 1.5101 1.5201 1.4401 1.3501 1.2601 1.2201 1.1401 1.0801 1.0701
3153.879 0.9308 0.8941 0.8249 0.7452 0.8183 0.7739 0.7894 0.7691 0.7473 0.7186
3173.169 0.5784 0.5585 0.7088 0.7485 0.5716 0.4903 0.5605 0.6086 0.6611 0.6561
3192.458 0.483 0.5053 0.502 0.4686 0.6298 0.5969 0.4056 0.4163 0.4511 0.4152
3211.748 0.4088 0.2862 0.2632 0.3315 0.2347 0.2054 0.2379 0.2549 0.2746 0.2615
3231.038 0.2622 0.2912 0.2467 0.1662 0.1848 0.2335 0.1966 0.04318 0.1163 0.2291
3250.328 0.1522 0.1642 0.217 0.1435 0.1341 0.2121 0.1924 0.1576 0.1556 0.1624
3269.617 0.1842 0.2024 0.2571 0.2471 0.2296 0.2669 0.2182 0.1925 0.2548 0.234
3288.907 0.3189 0.429 0.315 0.1975 0.2257 0.2264 0.1515 0.2335 0.1581 0.08789
3308.197 0.1886 0.2362 0.2045 0.07325 0.09488 0.2576 0.3218 0.2111 0.11954 0.2446
3327.487 0.2746 0.2631 0.1921 0.11995 0.1546 0.2162 0.1825 0.1234 0.2034 0.2748
3346.777 0.1873 0.1637 0.2598 0.2777 0.2272 0.202 0.272 0.2351 0.2098 0.0864
3366.066 0.0051 0.09379 0.1369 0.2746 0.2092 0.161 0.3233 0.2765 0.2657 0.1338
3385.356 0.08672 0.201 0.2448 0.2536 0.2001 0.1791 0.1881 0.2108 0.3341 0.3067
3404.646 0.147 0.179 0.2779 0.3608 0.3323 0.2882 0.378 0.4334 0.348 0.392
3423.936 0.43 0.3668 0.4132 0.2458 0.07113 0.1981 0.4245 0.5027 0.4277 0.3729
3443.225 0.3562 0.3691 0.3582 0.5013 0.5981 0.477 0.4621 0.632 0.6224 0.7317
3462.515 0.8562 0.8362 1.0118 1.2401 1.4001 1.6201 2.0301 2.2501 2.3601 2.4101
3481.805 2.5101 2.6501 2.6001 2.4901 2.5001 2.5601 2.4301 2.3401 2.0601 1.7201
3501.095 1.5501 1.3001 1.0701 0.9042 0.8709 0.8654 0.7283 0.6006 0.5003 0.5179
3520.385 0.5705 0.5956 0.5777 0.5741 0.4849 0.4415 0.5283 0.4749 0.3066 0.3364
3539.674 0.4131 0.2776 0.2674 0.3361 0.4021 0.3764 0.2497 0.2657 0.1633 0.04897
3558.964 0.2224 0.2612 0.1677 0.2293 0.2803 0.1943 0.09803 0.07959 0.1979 0.259
3578.254 0.2041 0.1566 0.1577 0.161 0.04334 0.03713 0.1498 0.1717 0.1692 0.1873
3597.544 0.2235 0.1808 0.2341 0.2725 0.1362 0.05678 0.07141 0.1526 0.1419 0.06567
3616.833 0.10235 0.2317 0.2366 0.1777 0.2134 0.1991 0.1696 0.1882 0.3077 0.3092
3636.123 0.1825 0.1471 0.1805 0.1797 0.11178 0.06897 0.1845 0.2189 0.1615 0.1725
3655.413 0.2184 0.3114 0.3896 0.34 0.1791 0.1675 0.06242 0.0008 0.0083 0
3674.703 0.1572 0.2005 0.2815 0.3865 0.2544 0.1313 0.2467 0.3991 0.2776 0.3535
3693.993 0.4263 0.3819 0.3385 0.2398 0.3827 0.4581 0.3177 0.3329 0.3176 0.2867
3713.282 0.3751 0.3098 0.2823 0.4174 0.526 0.4413 0.342 0.3814 0.36 0.2332
3732.572 0.2584 0.332 0.235 0.2592 0.3818 0.4609 0.4141 0.3081 0.383 0.4177
3751.862 0.4745 0.6267 0.6295 0.529 0.5726 0.6665 0.4331 0.2854 0.2934 0.2501
3771.152 0.375 0.3177 0.2046 0.3049 0.2051 0.1863 0.3702 0.4047 0.4811 0.3238
3790.441 0.123 0.2569 0.29 0.2975 0.353 0.1594 0.03847 0.1278 0.1842 0.07551
3809.731 0.019919 0.10517 0.2062 0.2992 0.2908 0.2261 0.11858 0.1584 0.2876 0.1782
3829.021 0.10274 0.154 0.2306 0.1601 0.10313 0.179 0.1301 0.07816 0.1559 0.348
3848.311 0.3663 0.3266 0.365 0.3412 0.2211 0.3172 0.3832 0.2947 0.2219 0.2463
3867.601 0.3194 0.3436 0.3596 0.2553 0.3376 0.3382 0.3681 0.3528 0.2098 0.2815
3886.890 0.2641 0.2635 0.2325 0.1807 0.3362 0.3685 0.3425 0.3054 0.3091 0.321
3906.180 0.1925 0.1818 0.1351 0.2447 0.3269 0.1948 0.262 0.3046 0.3013 0.3598
3925.470 0.2951 0.2658 0.4002 0.5685 0.5721 0.4949 0.3367 0.3354 0.4589 0.3135
3944.760 0.2313 0.2793 0.3704 0.4735 0.4803 0.4824 0.4587 0.4119 0.3394 0.3661
3964.049 0.3335 0.2939 0.2904 0.2305 0.3275 0.3137 0.1288 0.1562 0.271 0.2061
3983.339 0.124 0.2373 0.4468 0.4016 0.3224 0.2918 0.2725 0.152 0.1791 0.3885
##END=
