##TITLE=Monoethyl fumarate
##JCAMP-DX=4.24
##DATA TYPE=INFRARED SPECTRUM
##ORIGIN=EPA-IR VAPOR PHASE LIBRARY
##OWNER=SRD/NIST
Collection (C) 2018 copyright by the U.S. Secretary of Commerce
on behalf of the United States of America. All rights reserved.
##CAS REGISTRY NO=2459-05-4
##MOLFORM=C 6 H 8 O 4
##$NIST SOURCE=MSDC-IR
##STATE=gas
##XUNITS=1/CM
##YUNITS=ABSORBANCE
##XFACTOR=1.
##YFACTOR=0.001
##DELTAX=1.92898
##FIRSTX=549.8
##LASTX=4000.7
##FIRSTY=37.567
##MAXX=4000.7
##MINX=549.759
##MAXY=0.284467
##MINY=0
##NPOINTS=1790
##XYDATA=(X++(Y..Y))
549.759 37.567 37.357 37.197 36.837 36.327 36.187 35.917 35.407 34.777 34.077
569.049 33.407 32.647 31.637 30.497 29.517 28.687 27.977 27.417 27.037 27.037
588.339 27.667 29.027 31.467 34.787 38.337 41.397 44.107 47.467 51.977 56.737
607.628 60.577 62.737 62.857 61.287 58.697 55.427 50.897 44.487 36.697 29.047
626.918 22.877 18.417 15.327 13.127 11.597 10.597 9.987 9.537 9.317 9.157
646.208 9.057 9.077 9.087 9.197 9.127 8.957 8.777 8.497 8.297 8.017
665.498 7.587 7.177 6.797 6.437 6.057 5.727 5.337 4.887 4.667 4.547
684.787 4.217 3.957 3.847 3.727 3.597 3.417 3.277 3.227 3.107 2.987
704.077 2.947 2.917 2.787 2.737 2.687 2.637 2.617 2.607 2.827 2.817
723.367 2.747 2.907 2.947 3.057 3.227 3.307 3.497 3.637 3.877 4.257
742.657 4.577 5.027 5.407 5.907 6.637 7.417 8.387 9.397 10.497 11.797
761.947 12.997 14.177 15.477 16.717 17.747 18.537 19.067 19.257 19.217 18.687
781.236 17.767 16.897 15.877 14.747 13.567 12.307 11.207 10.097 9.127 8.347
800.526 7.637 7.007 6.577 6.227 5.917 5.697 5.427 5.277 5.127 5.017
819.816 5.017 4.927 4.927 5.027 5.097 5.117 5.107 5.307 5.607 5.767
839.106 6.047 6.537 6.947 7.397 7.857 8.327 8.887 9.457 9.857 10.087
858.395 10.247 10.087 9.707 9.277 8.717 7.977 7.257 6.617 6.167 5.937
877.685 5.817 5.857 5.907 6.017 6.307 6.667 7.027 7.377 7.767 8.197
896.975 8.537 8.817 8.967 8.957 9.057 9.107 8.907 8.697 8.627 8.657
916.265 8.637 8.657 8.837 8.977 9.137 9.327 9.587 9.907 10.127 10.357
935.555 10.647 11.027 11.507 11.997 12.587 13.337 14.237 15.137 16.017 17.127
954.844 18.347 19.917 21.847 23.927 26.197 28.497 30.767 32.977 35.127 36.977
974.134 38.427 39.367 39.787 39.657 38.697 37.097 35.087 32.867 30.567 28.177
993.424 25.977 24.147 22.367 20.917 19.977 19.487 19.617 20.187 21.107 22.447
1012.714 24.167 26.647 29.667 33.017 36.987 41.167 45.517 50.147 54.627 58.497
1032.003 61.707 64.337 65.997 66.497 65.717 63.667 60.987 57.497 53.157 48.507
1051.293 43.727 38.977 34.647 30.917 27.857 25.557 23.967 22.797 21.797 21.277
1070.583 21.277 21.447 21.767 22.567 23.777 25.367 27.457 29.897 32.777 36.107
1089.873 39.867 44.107 48.697 53.147 57.947 63.827 70.247 77.337 85.857 96.027
1109.163 108.417 123.487 140.617 158.917 176.287 189.907 197.657 199.147 196.307 190.727
1128.452 180.657 164.957 146.777 130.427 118.527 111.217 107.597 106.547 107.217 108.977
1147.742 110.877 112.597 114.297 115.627 116.737 117.957 119.357 121.027 123.377 126.747
1167.032 130.997 136.107 140.957 145.217 148.397 149.557 148.527 144.867 138.517 130.277
1186.322 121.217 111.587 101.767 92.597 84.367 77.347 71.297 66.257 62.207 58.557
1205.611 55.517 53.147 51.267 49.687 48.747 48.647 48.947 49.707 50.837 52.377
1224.901 54.407 56.717 59.607 63.017 67.017 71.677 76.817 83.297 91.397 101.177
1244.191 112.507 124.887 138.347 152.437 167.497 184.007 199.927 212.007 217.917 217.857
1263.481 213.627 206.667 195.947 180.177 161.197 141.937 124.437 109.907 99.047 91.777
1282.771 87.727 86.627 88.527 93.447 101.267 111.517 123.127 134.687 144.567 151.477
1302.060 155.067 155.187 151.407 143.117 130.607 116.107 102.057 89.737 79.347 70.797
1321.350 64.027 58.797 54.717 51.487 48.927 46.897 45.287 44.037 43.097 42.397
1340.640 41.987 41.907 42.177 42.907 44.087 45.727 47.867 50.447 53.297 56.307
1359.930 59.477 62.977 66.757 70.077 71.637 70.657 67.817 64.427 60.857 55.837
1379.219 48.807 41.587 35.577 31.147 27.857 25.347 23.367 21.737 20.307 18.987
1398.509 17.837 16.767 15.727 14.677 13.677 12.777 11.977 11.277 10.777 10.387
1417.799 10.097 9.897 9.707 9.577 9.517 9.517 9.567 9.617 9.697 9.817
1437.089 9.927 10.027 10.127 10.227 10.317 10.407 10.517 10.667 10.787 10.857
1456.378 10.927 11.067 11.277 11.617 12.077 12.427 12.697 12.867 12.817 12.537
1475.668 12.107 11.497 10.707 9.817 8.907 8.077 7.377 6.807 6.247 5.777
1494.958 5.357 4.947 4.667 4.427 4.177 4.047 3.947 3.747 3.657 3.637
1514.248 3.577 3.497 3.427 3.427 3.407 3.417 3.447 3.427 3.467 3.537
1533.538 3.577 3.627 3.687 3.767 3.867 3.897 3.837 3.877 3.977 3.967
1552.827 3.927 3.877 3.887 3.917 3.857 3.767 3.677 3.617 3.547 3.507
1572.117 3.437 3.337 3.317 3.297 3.257 3.227 3.177 3.147 3.137 3.137
1591.407 3.127 3.107 3.157 3.217 3.237 3.287 3.387 3.477 3.587 3.807
1610.697 3.987 4.197 4.457 4.767 5.147 5.557 6.087 6.767 7.517 8.377
1629.986 9.437 10.607 11.937 13.437 14.887 16.147 17.257 18.077 18.537 18.687
1649.276 18.447 17.807 16.717 15.367 14.007 12.787 11.907 11.207 10.627 10.207
1668.566 9.867 9.617 9.447 9.327 9.307 9.347 9.507 9.737 10.067 10.427
1687.856 10.827 11.377 12.037 12.867 13.857 14.887 16.037 17.357 18.727 20.467
1707.146 22.547 24.947 27.777 31.197 35.507 40.867 47.597 55.377 64.957 76.607
1726.435 90.417 106.457 125.057 145.507 168.877 193.307 215.527 235.207 249.117 258.407
1745.725 266.077 274.947 282.457 284.467 279.897 272.157 264.667 258.867 252.787 244.737
1765.015 233.787 220.617 206.337 191.587 173.687 152.927 130.927 110.637 94.097 81.167
1784.305 71.217 63.257 57.047 52.037 47.877 44.277 41.247 38.477 35.917 33.317
1803.594 30.737 28.157 25.597 23.177 20.887 18.757 16.827 15.127 13.637 12.337
1822.884 11.277 10.387 9.697 9.067 8.477 8.067 7.727 7.377 7.087 6.847
1842.174 6.647 6.447 6.287 6.147 5.987 5.877 5.737 5.577 5.477 5.387
1861.464 5.257 5.117 5.007 4.887 4.747 4.567 4.427 4.317 4.197 4.087
1880.754 3.957 3.787 3.697 3.617 3.487 3.377 3.277 3.167 3.087 2.947
1900.043 2.767 2.607 2.477 2.387 2.277 2.147 2.047 2.027 1.967 1.847
1919.333 1.767 1.747 1.687 1.577 1.547 1.527 1.497 1.487 1.487 1.477
1938.623 1.467 1.417 1.397 1.417 1.387 1.387 1.427 1.427 1.417 1.447
1957.913 1.467 1.457 1.457 1.457 1.417 1.437 1.457 1.417 1.377 1.307
1977.202 1.307 1.337 1.297 1.297 1.307 1.287 1.257 1.257 1.267 1.307
1996.492 1.357 1.367 1.397 1.417 1.427 1.437 1.527 1.587 1.627 1.687
2015.782 1.737 1.787 1.857 1.927 1.967 2.037 2.097 2.137 2.247 2.327
2035.072 2.357 2.387 2.437 2.447 2.417 2.447 2.467 2.367 2.277 2.217
2054.362 2.127 1.997 1.897 1.827 1.727 1.627 1.557 1.517 1.447 1.407
2073.651 1.417 1.407 1.407 1.407 1.397 1.407 1.427 1.467 1.497 1.517
2092.941 1.557 1.537 1.517 1.517 1.537 1.557 1.547 1.537 1.517 1.537
2112.231 1.517 1.457 1.457 1.427 1.377 1.337 1.297 1.237 1.227 1.237
2131.521 1.217 1.1779 1.14 1.0821 1.0266 1.0291 1.0291 0.999 0.9751 0.9837
2150.810 0.9666 0.9516 0.9145 0.9253 0.9699 0.9737 0.9571 0.9832 0.9735 0.9427
2170.100 0.954 0.9109 0.9124 0.9302 0.9305 0.9381 0.9342 0.895 0.9077 0.9579
2189.390 0.937 0.9271 0.9475 0.9761 1.0321 1.0345 1.027 1.0741 1.1184 1.1334
2208.680 1.1633 1.173 1.1896 1.237 1.287 1.337 1.357 1.377 1.307 1.327
2227.970 1.397 1.367 1.337 1.297 1.267 1.277 1.307 1.277 1.227 1.217
2247.259 1.217 1.131 1.0676 1.1249 1.124 1.0952 1.1152 1.1429 1.1341 1.0775
2266.549 1.0713 1.0948 1.1153 1.1162 1.0792 1.0501 1.0054 0.9713 0.9801 0.9289
2285.839 0.8686 0.8597 0.8441 0.8595 0.8774 0.8646 0.8832 0.9271 0.9474 0.9491
2305.129 0.9091 0.8749 0.8923 0.8865 0.8875 0.8916 0.9059 0.9279 0.9028 0.9283
2324.418 0.9763 0.9565 0.9825 1.0129 1.0003 0.9957 1.0082 1.0449 1.0636 1.027
2343.708 1.0293 1.0545 1.0658 1.0815 1.0735 1.0718 1.0526 1.0365 1.0122 1.0275
2362.998 1.021 0.9533 0.9426 0.9154 0.8671 0.814 0.7611 0.7382 0.746 0.731
2382.288 0.6545 0.6135 0.6058 0.6082 0.6194 0.6214 0.6195 0.6461 0.6622 0.5994
2401.578 0.5765 0.6266 0.6346 0.607 0.6344 0.6947 0.7 0.6858 0.7272 0.7936
2420.867 0.7973 0.7193 0.7178 0.7711 0.7643 0.792 0.8312 0.8348 0.859 0.9046
2440.157 0.9193 0.9154 0.9322 0.975 1.0166 1.0315 0.9914 0.9679 1.0154 1.0627
2459.447 1.0773 1.0916 1.1371 1.1498 1.1717 1.227 1.207 1.154 1.1499 1.1773
2478.737 1.1584 1.1261 1.1445 1.1204 1.0769 1.0541 0.9964 0.9638 0.9978 0.9774
2498.026 0.9601 0.9555 0.8578 0.8259 0.8522 0.8542 0.8303 0.7874 0.7555 0.7687
2517.316 0.8076 0.7658 0.6762 0.6328 0.619 0.5982 0.5388 0.4803 0.5156 0.5253
2536.606 0.4885 0.4389 0.3927 0.4225 0.4791 0.4953 0.4558 0.4203 0.4406 0.4393
2555.896 0.4491 0.4736 0.4751 0.5124 0.4973 0.4835 0.5136 0.4733 0.4227 0.4648
2575.186 0.4675 0.388 0.3751 0.38 0.4235 0.4559 0.4277 0.3935 0.3534 0.3532
2594.475 0.3897 0.3636 0.2678 0.27868 0.3319 0.325 0.3486 0.3354 0.29731 0.30514
2613.765 0.26775 0.24843 0.23377 0.1893 0.1556 0.1619 0.1348 0.1381 0.21727 0.210561
2633.055 0.1931 0.215921 0.1923 0.1608 0.1526 0.1848 0.20234 0.20804 0.20321 0.21736
2652.345 0.26674 0.22183 0.151 0.1591 0.20586 0.20441 0.1939 0.24271 0.26518 0.25913
2671.634 0.28099 0.3023 0.3472 0.3366 0.3075 0.3328 0.3205 0.3488 0.372 0.3407
2690.924 0.3781 0.3871 0.3633 0.3774 0.4425 0.4994 0.44 0.3524 0.3417 0.371
2710.214 0.3811 0.3922 0.4748 0.461 0.3961 0.4153 0.4172 0.4026 0.4145 0.4672
2729.504 0.4979 0.4759 0.4773 0.5092 0.5272 0.5278 0.4646 0.4574 0.5214 0.5098
2748.794 0.5443 0.604 0.5491 0.5637 0.5989 0.5418 0.5096 0.5475 0.6151 0.687
2768.083 0.7652 0.8162 0.824 0.8403 0.8624 0.9468 1.0113 1.0052 0.9953 0.9794
2787.373 0.9451 0.9279 0.9555 0.9121 0.8255 0.8321 0.9414 0.9322 0.8484 0.9028
2806.663 0.968 1.0132 1.1013 1.1078 1.0867 1.1327 1.1576 1.207 1.277 1.317
2825.953 1.347 1.397 1.457 1.417 1.427 1.527 1.517 1.517 1.557 1.557
2845.242 1.617 1.647 1.637 1.727 1.837 1.957 2.017 2.107 2.257 2.417
2864.532 2.587 2.767 3.027 3.267 3.537 3.877 4.207 4.637 5.137 5.587
2883.822 5.977 6.337 6.487 6.617 6.897 6.977 7.007 7.047 7.137 7.317
2903.112 7.507 7.777 8.117 8.397 8.637 8.877 9.077 9.167 9.077 8.967
2922.401 9.007 9.077 9.167 9.417 9.827 10.407 11.227 12.237 13.377 14.587
2941.691 15.737 16.557 17.017 17.177 17.107 16.897 16.397 15.617 15.007 14.677
2960.981 14.637 14.977 15.507 16.347 17.457 18.717 20.227 21.997 24.197 26.977
2980.271 29.997 32.687 34.727 35.887 36.217 36.027 35.207 33.617 31.197 28.347
2999.561 25.677 23.467 21.567 19.897 18.417 16.967 15.627 14.387 13.117 11.857
3018.850 10.757 9.747 8.807 7.917 7.137 6.477 5.907 5.467 4.997 4.527
3038.140 4.087 3.757 3.537 3.227 3.027 2.897 2.677 2.507 2.387 2.257
3057.430 2.237 2.197 2.047 2.087 2.147 2.087 2.087 2.097 2.117 2.117
3076.720 2.167 2.187 2.167 2.057 1.937 1.847 1.717 1.597 1.517 1.417
3096.009 1.247 1.207 1.1576 1.1303 1.1119 1.0621 1.1063 1.0402 0.9865 0.972
3115.299 0.9133 0.8324 0.9023 0.8837 0.764 0.7763 0.8052 0.8582 0.8059 0.7605
3134.589 0.7482 0.7044 0.7322 0.8086 0.8105 0.7267 0.671 0.668 0.7197 0.6521
3153.879 0.5438 0.6594 0.7556 0.7695 0.7933 0.7693 0.6792 0.674 0.6308 0.6063
3173.169 0.6443 0.5725 0.53 0.639 0.7302 0.6245 0.5713 0.5474 0.602 0.6411
3192.458 0.5714 0.5648 0.5644 0.5093 0.4244 0.4156 0.4918 0.4447 0.3313 0.3488
3211.748 0.3514 0.26033 0.3339 0.388 0.29721 0.2199 0.2432 0.1382 0.092 0.24263
3231.038 0.28434 0.29647 0.1961 0.1463 0.1395 0.1323 0.098 0.1134 0.1294 0.102
3250.328 0.1901 0.22065 0.1737 0.1527 0.058 0.007 0.049 0.1416 0.1702 0.1584
3269.617 0.1502 0.1111 0.093 0.1076 0.1656 0.1683 0.1685 0.1501 0.076 0.041
3288.907 0.083 0.088 0.134 0.1473 0.032 0 0.075 0.105 0.1695 0.22445
3308.197 0.1453 0.102 0.1609 0.1961 0.1481 0.1081 0.038 0.047 0.121 0.206907
3327.487 0.20434 0.057 0.1649 0.237 0.1884 0.1511 0.1813 0.29769 0.29462 0.3034
3346.777 0.29829 0.23761 0.1806 0.208205 0.25926 0.102 0.018 0.1369 0.1871 0.20776
3366.066 0.29668 0.3449 0.3612 0.4644 0.4645 0.4701 0.5253 0.456 0.3699 0.3152
3385.356 0.3757 0.4812 0.5124 0.4807 0.4145 0.412 0.3824 0.3859 0.4414 0.4759
3404.646 0.5439 0.5687 0.4755 0.4691 0.5454 0.6675 0.5926 0.47 0.4617 0.4624
3423.936 0.6852 0.7178 0.6313 0.662 0.5508 0.6364 0.7329 0.6385 0.6732 0.7441
3443.225 0.858 0.9921 1.0838 1.1314 1.327 1.557 1.667 1.787 1.917 1.987
3462.515 2.117 2.307 2.527 2.737 2.897 3.057 2.977 2.947 2.947 2.937
3481.805 2.897 2.787 2.777 2.717 2.617 2.637 2.587 2.517 2.497 2.637
3501.095 2.767 2.657 2.577 2.647 2.727 2.837 2.747 2.567 2.617 2.627
3520.385 2.417 2.347 2.357 2.287 2.187 1.977 1.957 1.957 1.877 1.857
3539.674 1.847 1.967 2.127 2.187 2.357 2.477 2.697 3.097 3.597 4.347
3558.964 5.407 6.937 9.207 12.917 18.967 28.437 41.967 59.057 76.567 90.107
3578.254 97.597 101.297 102.287 99.057 89.467 73.267 55.337 39.877 27.307 17.937
3597.544 11.867 8.287 6.197 4.907 4.017 3.407 3.017 2.687 2.407 2.167
3616.833 1.927 1.837 1.777 1.607 1.487 1.367 1.387 1.417 1.1849 1.0402
3636.123 1.022 1.0273 1.0868 1.0103 0.8999 0.7875 0.6822 0.676 0.7223 0.6732
3655.413 0.6784 0.7211 0.7076 0.6931 0.6098 0.5439 0.5002 0.4829 0.5219 0.4376
3674.703 0.5169 0.6548 0.6281 0.6627 0.6594 0.577 0.609 0.741 0.725 0.6799
3693.993 0.6456 0.7227 0.8927 0.7528 0.6137 0.5349 0.4955 0.6303 0.6093 0.5461
3713.282 0.4996 0.5223 0.5724 0.5584 0.5777 0.4684 0.3658 0.3576 0.3398 0.3096
3732.572 0.20499 0.22353 0.28905 0.25292 0.213961 0.28378 0.3452 0.26217 0.3319 0.4297
3751.862 0.3451 0.25874 0.21727 0.3149 0.3247 0.21385 0.23462 0.28296 0.3219 0.3339
3771.152 0.3457 0.27024 0.212353 0.22441 0.1677 0.24817 0.3779 0.3134 0.24072 0.22141
3790.441 0.210868 0.3243 0.28766 0.3154 0.3163 0.20328 0.29227 0.2575 0.1941 0.20187
3809.731 0.1533 0.22618 0.3206 0.26975 0.1505 0.1521 0.23424 0.1302 0.1253 0.28935
3829.021 0.335 0.3666 0.22765 0.1464 0.3473 0.25407 0.015 0.089 0.25225 0.26501
3848.311 0.1475 0.055 0.214431 0.207862 0.044 0.1534 0.23234 0.1965 0.27645 0.30265
3867.601 0.1723 0.20193 0.1172 0.012 0.022 0.053 0.26786 0.3204 0.19862 0.1903
3886.890 0.101 0.093 0.1717 0.25772 0.3776 0.3229 0.1472 0.02 0.056 0.1132
3906.180 0.171 0.29627 0.3379 0.20354 0.081 0.066 0.20269 0.28842 0.23299 0.20767
3925.470 0.1176 0.1346 0.3126 0.28154 0.1963 0.26815 0.25987 0.209085 0.24344 0.25765
3944.760 0.191 0.209521 0.1688 0.008 0.047 0.3802 0.4207 0.3182 0.24428 0.1081
3964.049 0.1208 0.1848 0.28894 0.20368 0.1748 0.24682 0.26814 0.28727 0.1414 0.1229
3983.339 0.3072 0.22248 0.1884 0.26052 0.27777 0.27431 0.3419 0.4125 0.26545 0.25792
##END=
