##TITLE=Methyl picolinate
##JCAMP-DX=4.24
##DATA TYPE=INFRARED SPECTRUM
##ORIGIN=EPA-IR VAPOR PHASE LIBRARY
##OWNER=SRD/NIST
Collection (C) 2018 copyright by the U.S. Secretary of Commerce
on behalf of the United States of America. All rights reserved.
##CAS REGISTRY NO=2459-07-6
##MOLFORM=C 7 H 7 N O 2
##$NIST SOURCE=MSDC-IR
##STATE=gas
##XUNITS=1/CM
##YUNITS=ABSORBANCE
##XFACTOR=1.
##YFACTOR=0.001
##DELTAX=1.92898
##FIRSTX=549.8
##LASTX=4000.7
##FIRSTY=0.6971
##MAXX=4000.7
##MINX=549.759
##MAXY=0.082214
##MINY=0
##NPOINTS=1790
##XYDATA=(X++(Y..Y))
549.759 0.6971 0.6961 0.7279 0.56376 0.7046 0.7076 0.5145 0.61971 0.8864 0.8332
569.049 0.6794 0.60455 0.356 0.5168 0.7938 0.7506 0.6638 0.59408 0.8923 1.0699
588.339 0.8838 1.029 1.1468 1.1692 0.9305 0.7986 1.2527 1.4632 1.5395 2.044
607.628 2.444 2.894 3.344 3.344 3.194 3.194 3.114 3.184 3.394 3.094
626.918 2.584 2.194 1.744 1.4008 1.2583 1.1573 1.1537 1.2148 0.9631 0.7465
646.208 0.9145 0.9441 0.9265 1.0565 0.9948 0.9778 1.0528 1.015 1.0182 0.9795
665.498 0.9984 1.01 1.038 1.1593 1.1675 1.2675 1.564 1.714 1.934 2.374
684.787 3.184 4.464 6.054 7.914 9.724 11.084 12.224 13.214 14.434 16.144
704.077 16.964 16.164 14.324 12.694 11.524 10.754 10.284 9.794 9.534 9.514
723.367 9.514 9.694 9.974 10.434 11.034 11.564 11.954 12.384 13.674 17.214
742.657 20.224 17.324 13.574 12.854 12.124 11.394 10.644 9.384 8.034 6.874
761.947 5.774 4.694 4.034 3.614 3.194 2.924 2.614 2.424 2.254 2.034
781.236 2.074 2.124 1.974 2.044 2.094 1.964 1.984 1.964 1.924 1.984
800.526 2.174 2.414 2.634 2.674 2.884 3.164 3.334 3.634 3.894 4.224
819.816 4.464 4.714 4.914 5.084 5.024 4.694 4.584 4.604 4.404 4.014
839.106 3.664 3.294 2.854 2.414 1.994 1.724 1.654 1.644 1.5186 1.323
858.395 1.4627 1.4555 1.2942 1.2314 1.052 0.9252 0.9702 1.0901 1.1028 0.8897
877.685 0.7578 0.7944 0.8206 0.915 0.9669 1.0798 1.1249 0.9003 0.8471 0.8951
896.975 0.8866 0.7954 0.8445 1.0342 1.1355 1.1394 0.9621 1.0508 1.2015 1.1659
916.265 1.2453 1.3946 1.3664 1.2434 1.1971 1.0744 1.1031 1.1737 1.1108 1.1111
935.555 1.145 1.1103 1.1198 1.1329 1.1612 1.2049 1.3373 1.754 1.894 1.894
954.844 2.114 2.344 2.694 3.024 3.274 3.684 3.994 4.194 4.364 4.364
974.134 4.394 4.454 4.364 4.194 4.054 3.974 3.974 3.874 3.584 3.244
993.424 2.914 2.714 2.744 2.824 2.744 2.414 1.894 1.614 1.437 1.3688
1012.714 1.3524 1.4554 1.824 1.754 1.814 2.224 2.414 2.564 2.964 3.504
1032.003 4.394 5.474 6.454 7.314 7.604 7.354 7.114 7.004 7.154 7.334
1051.293 6.624 5.404 4.564 4.104 3.434 3.064 3.154 3.194 3.524 4.084
1070.583 4.614 4.934 5.494 6.484 7.194 7.924 8.594 9.334 9.884 9.974
1089.873 10.324 10.744 11.254 11.604 12.134 12.854 13.714 15.154 17.034 19.144
1109.163 22.084 25.804 29.924 34.504 39.494 44.854 50.204 55.414 60.084 63.564
1128.452 65.764 66.994 66.564 64.544 61.574 57.484 52.464 46.444 40.184 34.894
1147.742 30.294 26.244 22.894 20.244 17.934 15.694 14.044 12.724 11.514 10.744
1167.032 10.234 9.734 9.504 9.384 9.264 9.574 9.874 10.194 10.604 11.094
1186.322 11.834 12.434 12.854 13.324 13.644 13.674 13.554 13.444 13.014 11.994
1205.611 11.134 10.524 9.914 9.304 9.084 9.004 8.984 9.544 10.154 11.054
1224.901 12.484 13.954 15.694 17.864 20.084 21.984 23.324 24.214 24.544 24.364
1244.191 23.754 22.664 21.264 19.564 17.664 15.954 14.604 14.144 14.694 15.824
1263.481 17.464 19.404 21.104 22.484 23.994 25.414 26.824 28.494 30.334 31.994
1282.771 33.404 34.884 36.954 39.944 44.064 49.174 54.874 61.204 67.374 72.614
1302.060 76.914 80.024 81.934 82.214 80.674 77.664 73.204 67.344 60.194 51.884
1321.350 43.174 35.194 28.654 23.734 20.194 17.564 15.514 13.914 12.464 11.134
1340.640 9.974 8.904 8.004 7.164 6.394 5.824 5.284 4.864 4.594 4.284
1359.930 3.954 3.684 3.484 3.314 3.184 3.094 3.004 2.954 2.944 2.944
1379.219 2.954 2.924 2.894 2.894 2.914 2.934 2.934 2.904 2.924 2.974
1398.509 3.004 3.034 3.134 3.304 3.534 3.764 4.064 4.394 4.834 5.484
1417.799 6.234 7.214 8.404 9.724 11.094 12.324 13.414 14.654 16.184 17.724
1437.089 19.024 19.474 18.844 17.824 16.894 15.904 14.954 13.644 11.684 9.764
1456.378 8.324 7.394 6.844 6.454 6.184 5.954 5.654 5.394 5.274 5.174
1475.668 4.984 4.714 4.324 3.904 3.604 3.294 3.024 2.844 2.664 2.474
1494.958 2.334 2.284 2.224 2.194 2.114 2.084 2.094 2.094 2.044 2.004
1514.248 2.134 2.204 2.204 2.224 2.294 2.364 2.394 2.404 2.434 2.494
1533.538 2.624 2.644 2.574 2.644 2.754 2.814 2.974 3.204 3.434 3.664
1552.827 3.964 4.314 4.664 5.074 5.584 6.054 6.584 7.124 7.574 8.024
1572.117 8.524 9.024 9.474 9.764 9.754 9.404 8.824 8.184 7.544 6.914
1591.407 6.334 5.744 5.194 4.694 4.254 3.894 3.584 3.374 3.234 3.124
1610.697 3.014 2.964 2.894 2.914 2.914 2.844 2.874 2.944 2.944 2.974
1629.986 3.064 3.054 2.994 2.974 2.914 2.874 2.904 2.924 2.924 2.894
1649.276 2.814 2.754 2.784 2.754 2.784 2.874 2.904 2.984 3.154 3.314
1668.566 3.454 3.614 3.814 4.014 4.274 4.564 4.824 5.124 5.574 5.944
1687.856 6.254 6.654 6.924 7.104 7.404 7.684 7.914 8.124 8.184 8.274
1707.146 8.414 8.614 8.964 9.504 10.294 11.464 13.134 15.284 18.034 21.494
1726.435 25.734 30.604 36.104 41.584 46.274 48.974 49.444 48.954 49.384 51.644
1745.725 53.664 52.964 49.224 43.774 38.394 34.034 30.664 28.354 26.984 26.434
1765.015 26.324 26.274 25.804 24.784 23.744 23.494 24.184 24.784 24.034 21.834
1784.305 18.934 16.124 13.714 11.654 10.004 8.564 7.334 6.324 5.464 4.774
1803.594 4.184 3.764 3.474 3.134 2.814 2.544 2.344 2.194 2.084 1.984
1822.884 1.874 1.744 1.594 1.5364 1.485 1.3949 1.3837 1.3414 1.2674 1.3066
1842.174 1.3906 1.3843 1.3261 1.345 1.4028 1.3921 1.3915 1.3771 1.3387 1.365
1861.464 1.3373 1.2602 1.2262 1.267 1.2945 1.2591 1.2456 1.2877 1.348 1.421
1880.754 1.4351 1.384 1.3834 1.375 1.391 1.3737 1.2965 1.2738 1.2305 1.1563
1900.043 1.0466 1.0137 1.0567 1.0575 1.0496 1.0804 1.1531 1.2353 1.2814 1.3123
1919.333 1.3672 1.4502 1.5111 1.5396 1.564 1.554 1.604 1.674 1.704 1.744
1938.623 1.844 1.874 1.884 1.964 2.034 2.064 2.054 1.984 1.934 1.884
1957.913 1.864 1.834 1.744 1.604 1.4973 1.4788 1.4704 1.4887 1.4796 1.3784
1977.202 1.3411 1.3164 1.2225 1.1864 1.1407 1.0958 1.0277 0.94 0.9282 0.8886
1996.492 0.8632 0.8159 0.7651 0.7935 0.7718 0.7592 0.7365 0.7329 0.8121 0.819
2015.782 0.7974 0.806 0.7967 0.7789 0.7776 0.7975 0.7965 0.7899 0.7863 0.7358
2035.072 0.6954 0.711 0.72 0.6897 0.729 0.7979 0.8145 0.8157 0.7814 0.7784
2054.362 0.7604 0.7483 0.7851 0.7953 0.7776 0.8179 0.8519 0.884 0.8537 0.7809
2073.651 0.8388 0.9113 0.9332 0.912 0.9341 0.9442 0.9002 0.9315 0.9813 1.0129
2092.941 1.0344 1.0087 1.024 1.0625 1.0986 1.1177 1.1177 1.087 1.1003 1.137
2112.231 1.1525 1.1639 1.1173 1.0777 1.0527 0.9732 0.9117 0.9644 0.9425 0.8916
2131.521 0.9127 0.8528 0.7952 0.8355 0.832 0.8988 0.9211 0.8478 0.7792 0.7152
2150.810 0.7194 0.7124 0.686 0.7207 0.7274 0.6499 0.64203 0.6499 0.6631 0.677
2170.100 0.6903 0.7211 0.6798 0.62428 0.6592 0.6805 0.6253 0.5909 0.56771 0.53916
2189.390 0.543779 0.55477 0.544489 0.5602 0.61618 0.63922 0.60037 0.56597 0.54108 0.57704
2208.680 0.61666 0.56071 0.553074 0.60008 0.58844 0.59553 0.6538 0.7052 0.6699 0.60936
2227.970 0.58354 0.60837 0.6378 0.59581 0.549153 0.56374 0.60047 0.58065 0.59563 0.62096
2247.259 0.62164 0.61504 0.58543 0.60619 0.6549 0.64325 0.60473 0.62373 0.6699 0.6957
2266.549 0.6602 0.6537 0.6911 0.703 0.7391 0.7549 0.704 0.7078 0.7625 0.7836
2285.839 0.7901 0.8144 0.8627 0.8179 0.8433 0.9037 0.8293 0.7422 0.7007 0.6618
2305.129 0.6721 0.6607 0.61747 0.64205 0.62036 0.53855 0.5275 0.59745 0.59711 0.56653
2324.418 0.61085 0.61179 0.6173 0.6992 0.7188 0.61444 0.54162 0.4863 0.509 0.59679
2343.708 0.5847 0.5325 0.56925 0.63046 0.60182 0.5607 0.5278 0.4971 0.5257 0.5265
2362.998 0.4986 0.4765 0.461 0.444 0.4673 0.5231 0.4754 0.4813 0.4996 0.5066
2382.288 0.4658 0.4472 0.4988 0.57257 0.58543 0.53841 0.553488 0.60007 0.6498 0.60574
2401.578 0.56921 0.62054 0.667 0.6843 0.6555 0.55983 0.55559 0.62463 0.60278 0.55681
2420.867 0.55606 0.55596 0.61537 0.62925 0.56904 0.61363 0.6631 0.6621 0.59389 0.56699
2440.157 0.6622 0.6634 0.553025 0.57065 0.6517 0.6678 0.64044 0.5738 0.60352 0.6198
2459.447 0.61385 0.63455 0.62559 0.62631 0.56334 0.5179 0.5105 0.5282 0.5836 0.61643
2478.737 0.5267 0.431 0.546149 0.62091 0.58245 0.550839 0.5153 0.5296 0.57669 0.55594
2498.026 0.56682 0.6598 0.7077 0.662 0.60054 0.58479 0.547776 0.4944 0.5153 0.5236
2517.316 0.5066 0.56183 0.57369 0.56961 0.56813 0.5281 0.5166 0.5018 0.552999 0.58962
2536.606 0.58311 0.581 0.4938 0.5163 0.6358 0.61894 0.58321 0.61245 0.6555 0.59571
2555.896 0.53498 0.57561 0.63048 0.7103 0.7235 0.63979 0.57898 0.63176 0.7077 0.6464
2575.186 0.56979 0.56026 0.57009 0.659 0.7131 0.6974 0.6903 0.6621 0.6154 0.63391
2594.475 0.6755 0.6818 0.702 0.7025 0.64369 0.7025 0.7275 0.6779 0.57705 0.57673
2613.765 0.6939 0.6498 0.6838 0.705 0.61871 0.5318 0.423 0.4 0.4523 0.468
2633.055 0.4836 0.543675 0.5145 0.4868 0.5074 0.54251 0.59617 0.59579 0.5652 0.54132
2652.345 0.547474 0.552973 0.4506 0.383 0.443 0.4828 0.4678 0.404 0.4644 0.4911
2671.634 0.4 0.417 0.4754 0.443 0.4537 0.5098 0.53863 0.4735 0.4564 0.4903
2690.924 0.4463 0.4666 0.4784 0.4663 0.4489 0.5099 0.59886 0.57302 0.5226 0.62902
2710.214 0.6578 0.57394 0.53782 0.56173 0.62468 0.57289 0.53473 0.5222 0.548623 0.5316
2729.504 0.5035 0.57427 0.60953 0.57349 0.4955 0.4663 0.4712 0.4914 0.5215 0.4946
2748.794 0.4693 0.5007 0.5039 0.5032 0.549485 0.55852 0.56809 0.5052 0.39 0.426
2768.083 0.4752 0.4719 0.4811 0.515 0.57272 0.5048 0.4572 0.522 0.499 0.4536
2787.373 0.5061 0.545903 0.4789 0.415 0.4552 0.55498 0.6138 0.61278 0.61436 0.6525
2806.663 0.6476 0.63736 0.6899 0.61851 0.4965 0.4881 0.64083 0.7886 0.8552 0.8561
2825.953 0.8918 1.0063 1.078 1.152 1.2886 1.4885 1.614 1.824 2.034 2.274
2845.242 2.474 2.644 2.774 2.824 2.954 3.014 2.924 2.754 2.404 2.094
2864.532 2.014 1.864 1.754 1.784 1.744 1.774 1.884 1.824 1.854 1.894
2883.822 1.844 1.884 2.014 2.114 2.224 2.224 2.234 2.494 2.674 2.744
2903.112 2.794 2.894 2.994 2.984 2.914 2.974 3.044 2.994 2.994 3.074
2922.401 3.034 2.974 3.004 2.984 3.004 3.054 3.234 3.334 3.474 3.774
2941.691 4.184 4.774 5.724 7.014 8.494 10.274 12.214 13.804 14.524 14.704
2960.981 14.814 14.574 14.004 13.394 12.204 10.384 8.364 6.684 5.534 4.734
2980.271 4.284 4.014 3.974 4.024 4.044 4.284 4.514 4.614 4.814 4.944
2999.561 5.154 5.444 5.564 5.544 5.464 5.524 5.714 5.964 6.044 5.944
3018.850 5.944 5.944 5.784 5.714 5.704 5.594 5.394 5.164 5.084 5.084
3038.140 5.134 5.214 5.194 5.354 5.604 5.784 6.004 6.504 7.134 7.484
3057.430 7.714 8.054 8.454 9.114 9.744 10.214 10.624 10.684 10.404 9.874
3076.720 9.414 8.914 8.274 7.694 6.944 5.934 5.084 4.314 3.784 3.554
3096.009 3.364 3.144 3.004 2.914 2.674 2.504 2.244 1.854 1.714 1.564
3115.299 1.4564 1.4859 1.3992 1.2985 1.3008 1.3433 1.3187 1.2776 1.242 1.1311
3134.589 1.098 1.141 1.1886 1.2219 1.2162 1.2373 1.2623 1.1387 1.0327 1.0545
3153.879 0.9203 0.8626 0.8233 0.7894 0.8658 0.7699 0.61353 0.5129 0.68 0.8373
3173.169 0.7272 0.6981 0.7264 0.6993 0.7413 0.8177 0.7416 0.6567 0.62689 0.60958
3192.458 0.63436 0.58538 0.5197 0.459 0.56826 0.60134 0.426 0.4899 0.55466 0.56566
3211.748 0.59801 0.62068 0.6582 0.57903 0.5337 0.5239 0.441 0.4948 0.61618 0.53516
3231.038 0.411 0.406 0.485 0.352 0.138 0.212 0.345 0.409 0.412 0.4
3250.328 0.382 0.354 0.286 0.32 0.341 0.304 0.397 0.553931 0.56319 0.4958
3269.617 0.4509 0.373 0.413 0.4514 0.4797 0.4893 0.348 0.31 0.442 0.4856
3288.907 0.4671 0.5108 0.5022 0.4848 0.43 0.431 0.5033 0.4493 0.4743 0.5237
3308.197 0.4554 0.4805 0.5155 0.4769 0.552199 0.6766 0.59491 0.379 0.296 0.344
3327.487 0.318 0.238 0.343 0.53936 0.436 0.322 0.385 0.389 0.296 0.318
3346.777 0.4801 0.323 0.153 0.337 0.339 0.255 0.4 0.4514 0.58778 0.5285
3366.066 0.4778 0.5196 0.4512 0.4751 0.5195 0.63164 0.54079 0.5116 0.61589 0.62538
3385.356 0.6617 0.5297 0.442 0.55703 0.4843 0.423 0.4917 0.5082 0.4529 0.403
3404.646 0.5054 0.673 0.61374 0.61634 0.6895 0.55844 0.61266 0.60696 0.371 0.305
3423.936 0.388 0.4639 0.5661 0.4708 0.431 0.59599 0.6627 0.6625 0.6663 0.8325
3443.225 0.871 0.7913 0.7771 0.8895 0.9848 0.9734 1.1068 1.1355 0.9201 0.7864
3462.515 0.8407 1.0067 1.0841 1.0395 1.1268 1.1611 1.031 0.7757 0.8131 0.9113
3481.805 0.7788 0.7333 0.7547 0.6557 0.6499 0.7384 0.7614 0.7339 0.57497 0.59078
3501.095 0.61223 0.64161 0.8068 0.8078 0.59666 0.4756 0.63441 0.6981 0.59402 0.5964
3520.385 0.60108 0.7004 0.8422 0.8637 0.8005 0.6954 0.60703 0.59984 0.7231 0.6955
3539.674 0.6695 0.6929 0.56082 0.54193 0.63532 0.6703 0.5302 0.4505 0.414 0.352
3558.964 0.546692 0.64327 0.5184 0.54541 0.59988 0.5131 0.4771 0.439 0.279 0.23
3578.254 0.202 0.39 0.59509 0.5334 0.5005 0.5103 0.5237 0.5193 0.386 0.384
3597.544 0.4783 0.389 0.378 0.4824 0.43 0.29 0.33 0.31 0.296 0.53808
3616.833 0.5187 0.295 0.326 0.401 0.444 0.433 0.5039 0.5158 0.38 0.333
3636.123 0.376 0.5095 0.59683 0.4607 0.4822 0.4667 0.313 0.381 0.413 0.439
3655.413 0.57532 0.6741 0.58748 0.413 0.346 0.4892 0.6738 0.7704 0.6826 0.56898
3674.703 0.57091 0.5056 0.436 0.4459 0.59881 0.6785 0.61912 0.56645 0.5166 0.4889
3693.993 0.4872 0.426 0.4785 0.4763 0.345 0.279 0.356 0.4775 0.442 0.5156
3713.282 0.5141 0.4591 0.5144 0.4993 0.425 0.339 0.292 0.404 0.41 0.307
3732.572 0.403 0.386 0.395 0.4579 0.56484 0.6572 0.4675 0.292 0.168 0.058
3751.862 0.25 0.53488 0.5111 0.435 0.4694 0.53546 0.55609 0.5293 0.7305 0.6785
3771.152 0.4682 0.60663 0.441 0.424 0.62047 0.59337 0.602 0.56176 0.5236 0.4507
3790.441 0.4856 0.59541 0.59178 0.57383 0.61265 0.6456 0.53665 0.436 0.326 0.391
3809.731 0.57788 0.58423 0.57744 0.6692 0.57523 0.53814 0.419 0.289 0.389 0.384
3829.021 0.544737 0.6479 0.63567 0.5423 0.349 0.213 0 0.089 0.205 0.182
3848.311 0.36 0.421 0.275 0.394 0.6514 0.5294 0.376 0.164 0.114 0.352
3867.601 0.395 0.441 0.5234 0.5211 0.5306 0.478 0.398 0.335 0.43 0.442
3886.890 0.396 0.39 0.404 0.413 0.218 0.229 0.4723 0.42 0.386 0.61464
3906.180 0.6454 0.61409 0.57966 0.58149 0.56986 0.4767 0.4794 0.393 0.296 0.5212
3925.470 0.4916 0.384 0.44 0.341 0.375 0.426 0.4478 0.4575 0.4449 0.6592
3944.760 0.58633 0.304 0.59345 0.61915 0.403 0.60709 0.6665 0.433 0.322 0.318
3964.049 0.4638 0.4465 0.4964 0.60915 0.4741 0.385 0.405 0.433 0.329 0.36
3983.339 0.433 0.35 0.431 0.4957 0.372 0.392 0.5062 0.427 0.403 0.344
##END=
