##TITLE=4-Bromo-2,6-dimethylaniline
##JCAMP-DX=4.24
##DATA TYPE=INFRARED SPECTRUM
##ORIGIN=EPA-IR VAPOR PHASE LIBRARY
##OWNER=SRD/NIST
Collection (C) 2018 copyright by the U.S. Secretary of Commerce
on behalf of the United States of America. All rights reserved.
##CAS REGISTRY NO=24596-19-8
##MOLFORM=C 8 H 10 Br N
##$NIST SOURCE=MSDC-IR
##STATE=gas
##XUNITS=1/CM
##YUNITS=ABSORBANCE
##XFACTOR=1.
##YFACTOR=0.001
##DELTAX=1.92898
##FIRSTX=549.8
##LASTX=4000.7
##FIRSTY=5.611
##MAXX=4000.7
##MINX=549.759
##MAXY=0.043791
##MINY=0
##NPOINTS=1790
##XYDATA=(X++(Y..Y))
549.759 5.611 5.451 5.551 5.281 5.081 5.161 4.451 4.011 4.111 4.381
569.049 4.351 4.051 3.631 3.291 3.701 4.351 4.411 3.981 3.751 3.691
588.339 3.511 3.701 4.011 4.021 3.951 4.271 4.671 4.551 4.431 4.531
607.628 4.631 4.951 5.351 5.411 5.461 5.561 5.441 5.571 5.671 5.681
626.918 5.811 5.591 5.461 5.671 5.731 5.601 5.691 5.871 6.101 6.421
646.208 6.381 6.591 7.041 7.181 7.221 7.451 7.961 8.111 7.951 7.921
665.498 7.881 7.851 7.871 7.871 7.881 8.001 7.831 7.691 8.041 7.991
684.787 7.691 7.971 8.301 8.431 8.581 8.641 8.491 8.401 8.751 9.031
704.077 9.201 9.611 9.851 10.021 10.221 10.291 10.551 10.421 9.921 9.631
723.367 8.871 8.091 7.701 7.101 6.351 5.581 4.951 4.671 4.461 4.221
742.657 4.051 3.961 3.771 3.661 3.641 3.371 3.331 3.241 3.411 3.601
761.947 3.361 3.201 3.061 3.001 3.041 3.091 2.901 2.791 2.761 2.621
781.236 2.751 2.861 2.761 2.571 2.371 2.351 2.381 2.401 2.471 2.401
800.526 2.411 2.471 2.461 2.351 2.161 2.221 2.231 2.101 2.191 2.131
819.816 2.241 2.251 2.181 2.331 2.181 2.201 2.321 2.511 2.501 2.341
839.106 2.681 3.221 4.071 5.201 6.831 8.921 11.081 13.771 17.031 20.851
858.395 25.321 28.481 27.831 25.741 24.641 23.201 20.131 15.891 11.711 8.801
877.685 6.701 5.191 4.381 3.711 3.471 3.251 3.101 2.991 2.811 2.841
896.975 2.701 2.411 2.201 2.011 2.001 2.031 2.161 2.281 2.111 2.101
916.265 2.301 2.321 2.051 1.691 1.581 1.541 1.531 1.611 1.861 1.961
935.555 1.851 1.831 1.821 1.801 1.651 1.741 1.711 1.821 2.301 2.281
954.844 2.051 2.231 2.331 2.101 2.081 2.211 2.241 2.081 1.941 2.081
974.134 2.371 2.481 2.631 2.961 3.341 3.641 3.691 3.841 4.171 4.341
993.424 4.461 4.691 4.911 4.921 5.001 5.001 4.941 4.591 3.931 3.761
1012.714 3.481 3.161 3.231 2.991 2.521 2.181 2.051 2.031 2.121 2.251
1032.003 2.001 1.681 1.541 1.751 1.471 1.411 1.961 1.631 1.391 1.461
1051.293 1.461 1.261 0.9596 1.291 1.321 1.471 1.691 1.651 1.541 1.691
1070.583 1.901 1.371 1.271 1.491 1.561 1.331 1.361 2.011 1.971 1.591
1089.873 1.471 1.471 1.1026 0.915 1.241 1.531 1.671 1.801 1.791 1.1621
1109.163 1.461 1.871 1.981 2.021 1.661 1.591 1.821 1.471 1.1737 1.661
1128.452 2.041 2.301 2.441 2.321 2.501 2.711 2.081 1.831 2.361 2.611
1147.742 2.471 2.301 2.331 2.341 2.021 1.861 1.631 1.481 1.711 1.511
1167.032 1.181 1.251 1.691 2.011 2.081 2.021 1.811 1.721 1.541 1.811
1186.322 2.241 2.051 2.041 2.441 2.551 3.101 3.631 3.821 4.201 4.811
1205.611 5.791 7.031 8.831 10.881 13.581 16.321 19.221 22.741 24.871 25.641
1224.901 25.681 24.631 23.241 20.631 17.451 14.451 11.581 9.491 8.071 7.051
1244.191 6.201 5.741 5.261 4.881 4.831 4.951 4.891 4.481 4.511 4.761
1263.481 4.841 5.361 5.801 6.131 6.451 6.691 6.761 6.721 6.471 5.861
1282.771 5.321 4.691 3.801 3.181 2.801 2.391 2.281 2.321 2.121 1.881
1302.060 1.861 1.831 1.621 1.521 1.461 1.361 1.331 1.281 1.221 1.231
1321.350 1.1591 1.0699 1.181 1.241 1.0964 1.0627 1.171 1.211 1.211 1.211
1340.640 1.181 1.181 1.191 1.201 1.221 1.271 1.431 1.571 1.691 1.821
1359.930 1.951 2.051 2.111 2.161 2.231 2.251 2.251 2.321 2.311 2.331
1379.219 2.411 2.441 2.511 2.591 2.621 2.651 2.671 2.781 3.011 3.281
1398.509 3.661 4.141 4.631 5.221 5.851 6.211 6.471 6.761 6.911 7.021
1417.799 7.091 7.291 7.671 8.031 8.821 9.991 11.331 12.911 14.541 16.061
1437.089 17.391 18.441 19.131 19.421 19.481 19.281 19.041 19.091 19.261 19.651
1456.378 20.501 21.711 23.261 25.131 27.281 29.811 32.711 35.821 38.801 41.541
1475.668 43.361 43.791 42.761 40.401 36.871 32.521 27.751 22.741 18.011 14.291
1494.958 11.551 9.561 8.221 7.251 6.451 5.881 5.421 4.961 4.531 4.231
1514.248 4.001 3.751 3.581 3.401 3.251 3.201 3.211 3.191 3.071 2.911
1533.538 2.901 2.931 2.891 2.731 2.601 2.681 2.741 2.651 2.641 2.661
1552.827 2.681 2.681 2.671 2.831 2.991 3.101 3.221 3.351 3.491 3.681
1572.117 3.901 4.121 4.361 4.661 4.951 5.171 5.331 5.501 5.621 5.691
1591.407 5.791 5.801 5.741 5.681 5.771 5.991 6.261 6.611 7.211 8.011
1610.697 9.041 10.231 11.461 12.821 14.111 15.201 16.061 16.601 16.651 16.351
1629.986 15.741 14.791 13.651 12.371 11.241 10.141 9.081 8.161 7.291 6.491
1649.276 5.711 5.011 4.371 3.961 3.631 3.281 3.031 2.801 2.571 2.371
1668.566 2.241 2.121 2.071 2.011 1.891 1.861 1.821 1.741 1.621 1.601
1687.856 1.631 1.621 1.571 1.501 1.541 1.571 1.581 1.731 1.791 1.851
1707.146 2.091 2.231 2.371 2.591 2.751 2.891 3.011 3.101 3.081 2.971
1726.435 2.891 2.781 2.591 2.441 2.221 1.921 1.721 1.581 1.511 1.401
1745.725 1.231 1.1492 1.0213 0.9276 0.9627 0.9018 0.9001 0.9582 0.8999 0.8753
1765.015 0.9045 0.878 0.7555 0.7827 0.8666 0.9104 0.9336 0.7875 0.7694 0.8283
1784.305 0.7913 0.7631 0.8308 0.7935 0.6927 0.732 0.7913 0.7454 0.6982 0.6998
1803.594 0.7022 0.7211 0.7133 0.7114 0.6237 0.5866 0.6915 0.7325 0.7559 0.7363
1822.884 0.7162 0.7478 0.6766 0.7262 0.8263 0.7404 0.7034 0.7314 0.7097 0.7281
1842.174 0.709 0.6701 0.7397 0.7887 0.7724 0.7749 0.7135 0.622 0.5944 0.6233
1861.464 0.6854 0.6831 0.6515 0.673 0.7091 0.7426 0.7791 0.6852 0.6786 0.7563
1880.754 0.7989 0.8624 0.8705 0.8848 0.8209 0.8055 0.876 0.9045 0.9748 0.9852
1900.043 0.9708 0.9677 0.9168 0.8654 0.8288 0.8569 0.7895 0.7562 0.7887 0.722
1919.333 0.7667 0.8317 0.7827 0.7576 0.75 0.749 0.7398 0.6714 0.7244 0.7801
1938.623 0.708 0.6106 0.6155 0.6904 0.6325 0.5973 0.6097 0.6187 0.6449 0.6371
1957.913 0.6052 0.6218 0.7096 0.7348 0.7013 0.6011 0.5633 0.6864 0.7323 0.6603
1977.202 0.6739 0.705 0.7282 0.7751 0.7979 0.7757 0.7634 0.7186 0.6658 0.6745
1996.492 0.6429 0.5635 0.5649 0.6454 0.636 0.5606 0.5652 0.552 0.4992 0.5264
2015.782 0.5959 0.6091 0.5654 0.5102 0.463 0.5128 0.5608 0.4975 0.454 0.4733
2035.072 0.5825 0.6331 0.6207 0.5946 0.5174 0.4743 0.4502 0.5265 0.6486 0.6379
2054.362 0.4881 0.5345 0.6403 0.6297 0.6039 0.6337 0.5893 0.5093 0.4999 0.5214
2073.651 0.5921 0.5917 0.5613 0.5786 0.5988 0.6182 0.548 0.4581 0.444 0.4696
2092.941 0.5086 0.4902 0.4573 0.4339 0.4813 0.5551 0.6106 0.5965 0.5454 0.5175
2112.231 0.5399 0.5895 0.5907 0.5454 0.5543 0.6007 0.5911 0.5625 0.5615 0.531
2131.521 0.5663 0.5895 0.6144 0.654 0.6207 0.6324 0.5603 0.5491 0.6345 0.6436
2150.810 0.6107 0.6113 0.5732 0.5244 0.5436 0.5936 0.5877 0.5591 0.539 0.4596
2170.100 0.407 0.4341 0.4368 0.4504 0.4577 0.4907 0.5329 0.5519 0.5842 0.5858
2189.390 0.5862 0.6167 0.5581 0.4531 0.5129 0.5168 0.4487 0.5287 0.6532 0.5699
2208.680 0.4886 0.4794 0.463 0.3912 0.3993 0.4218 0.3874 0.4439 0.4932 0.4745
2227.970 0.3696 0.409 0.407 0.3844 0.3563 0.3154 0.3568 0.3644 0.4369 0.4364
2247.259 0.4013 0.4315 0.4394 0.5099 0.5559 0.4557 0.4004 0.4395 0.4194 0.3437
2266.549 0.3568 0.4128 0.3846 0.3775 0.4194 0.426 0.472 0.5051 0.4469 0.4055
2285.839 0.3951 0.4751 0.5974 0.6499 0.6033 0.5879 0.6161 0.5316 0.5275 0.5051
2305.129 0.4815 0.5595 0.559 0.4401 0.4183 0.4899 0.4583 0.4164 0.3808 0.282
2324.418 0.2952 0.4123 0.4714 0.4549 0.4009 0.4269 0.3301 0.2762 0.3651 0.4181
2343.708 0.4589 0.4494 0.3844 0.4027 0.4773 0.4649 0.4061 0.4064 0.4315 0.3845
2362.998 0.3849 0.4513 0.4742 0.4403 0.477 0.4713 0.4038 0.3952 0.4167 0.3877
2382.288 0.3398 0.3716 0.3604 0.3975 0.475 0.4486 0.4398 0.4239 0.4246 0.414
2401.578 0.4437 0.4555 0.4127 0.4372 0.454 0.3996 0.4499 0.5183 0.4114 0.4257
2420.867 0.4721 0.4292 0.3946 0.4286 0.4813 0.5021 0.5186 0.479 0.471 0.4582
2440.157 0.4481 0.4387 0.5194 0.5909 0.5309 0.4814 0.4657 0.4442 0.4235 0.5158
2459.447 0.4909 0.4609 0.4548 0.3672 0.4318 0.5268 0.5232 0.4784 0.4406 0.4506
2478.737 0.3975 0.3896 0.4034 0.3496 0.3593 0.4033 0.3481 0.3346 0.4681 0.4558
2498.026 0.2823 0.27653 0.3761 0.409 0.4119 0.4466 0.5367 0.5193 0.4572 0.5345
2517.316 0.5478 0.3886 0.3142 0.379 0.391 0.3368 0.3933 0.4277 0.3345 0.4186
2536.606 0.4876 0.4875 0.528 0.4784 0.4853 0.5268 0.5135 0.4803 0.4254 0.3885
2555.896 0.4375 0.4487 0.4638 0.53 0.5256 0.4881 0.508 0.5903 0.5344 0.4228
2575.186 0.4567 0.484 0.4653 0.4833 0.4472 0.4014 0.4104 0.4659 0.5319 0.5301
2594.475 0.5489 0.6375 0.6199 0.4962 0.3937 0.3027 0.2867 0.3109 0.367 0.3707
2613.765 0.3027 0.27097 0.2857 0.3403 0.3059 0.2817 0.3151 0.2826 0.25846 0.3068
2633.055 0.4011 0.3799 0.19713 0.20871 0.27432 0.22956 0.3438 0.4222 0.3198 0.3204
2652.345 0.4076 0.4024 0.4392 0.3618 0.3011 0.4235 0.5233 0.458 0.4396 0.4709
2671.634 0.4883 0.4523 0.3531 0.3406 0.3948 0.5204 0.4865 0.3561 0.3438 0.4489
2690.924 0.5524 0.5302 0.4335 0.4231 0.4246 0.4449 0.4789 0.4149 0.4094 0.5123
2710.214 0.6186 0.602 0.5812 0.6037 0.6411 0.6819 0.6166 0.626 0.7476 0.7959
2729.504 0.8174 0.8685 0.9703 1.0874 1.18 1.311 1.381 1.381 1.401 1.381
2748.794 1.331 1.271 1.1115 1.0039 1.0008 0.8761 0.749 0.6995 0.6478 0.5785
2768.083 0.554 0.6299 0.7272 0.7154 0.5097 0.4429 0.5704 0.6011 0.6332 0.7477
2787.373 0.7312 0.7 0.8245 0.7621 0.6987 0.7623 0.7359 0.7695 0.7665 0.8615
2806.663 1.0564 1.0407 1.181 1.251 1.1056 1.1712 1.321 1.361 1.331 1.371
2825.953 1.471 1.571 1.711 1.761 1.941 2.111 2.111 2.171 2.461 2.701
2845.242 2.791 3.101 3.441 3.721 4.131 4.801 5.471 6.091 6.841 7.621
2864.532 8.231 8.721 9.101 9.471 9.771 9.741 9.651 9.511 9.321 9.061
2883.822 8.551 8.111 7.641 7.211 7.081 7.071 7.161 7.301 7.521 7.861
2903.112 8.331 9.081 9.651 10.321 11.231 11.831 12.391 12.911 13.301 13.811
2922.401 14.201 14.381 14.501 14.511 14.331 14.061 13.881 13.471 13.001 12.721
2941.691 12.131 11.321 10.641 9.951 9.131 8.201 7.611 7.161 6.521 6.091
2960.981 5.931 5.861 5.641 5.601 5.821 6.131 6.411 6.911 7.411 7.901
2980.271 8.361 8.471 8.501 8.271 7.931 7.571 6.951 6.111 5.311 4.701
2999.561 4.091 3.531 3.041 2.811 2.641 2.481 2.361 2.071 1.931 1.891
3018.850 1.981 1.931 1.791 1.791 1.811 1.841 1.791 1.971 2.141 2.211
3038.140 2.321 2.331 2.461 2.571 2.621 2.761 2.971 3.051 3.091 3.261
3057.430 3.301 3.201 3.141 3.181 3.201 2.991 2.711 2.561 2.381 2.171
3076.720 2.061 1.841 1.711 1.721 1.641 1.591 1.491 1.361 1.241 1.1732
3096.009 1.0457 1.0981 1.1361 1.181 1.251 0.9426 0.7756 0.9479 0.9753 0.8559
3115.299 0.8774 0.9358 0.8541 0.8674 0.9522 0.8223 0.7952 0.8434 0.7501 0.7238
3134.589 0.6774 0.7018 0.6226 0.5272 0.6276 0.6039 0.66 0.65 0.5952 0.576
3153.879 0.6396 0.5588 0.4438 0.567 0.5675 0.511 0.6017 0.6949 0.6 0.5297
3173.169 0.4466 0.4828 0.5737 0.6122 0.6013 0.4521 0.5052 0.5834 0.6361 0.7442
3192.458 0.6458 0.5396 0.5862 0.5711 0.6371 0.6651 0.5659 0.5052 0.4807 0.4749
3211.748 0.3259 0.3915 0.7091 0.7866 0.5369 0.5087 0.5873 0.4753 0.4224 0.4855
3231.038 0.4746 0.4635 0.4648 0.4242 0.4501 0.4196 0.54 0.6434 0.662 0.5254
3250.328 0.3967 0.5214 0.5147 0.4347 0.5118 0.512 0.3643 0.3834 0.4878 0.467
3269.617 0.4715 0.536 0.5833 0.4554 0.25267 0.24842 0.4208 0.5452 0.5251 0.4672
3288.907 0.4538 0.4109 0.4479 0.4616 0.3378 0.3601 0.4526 0.3783 0.3691 0.6091
3308.197 0.5527 0.3897 0.3992 0.4201 0.3187 0.26717 0.3841 0.558 0.5761 0.3541
3327.487 0.25736 0.3823 0.4376 0.4227 0.3565 0.343 0.49 0.3842 0.3299 0.394
3346.777 0.3313 0.2849 0.318 0.4375 0.4905 0.4527 0.3703 0.3607 0.3647 0.3346
3366.066 0.4967 0.5829 0.4599 0.3765 0.3772 0.4918 0.5655 0.386 0.27681 0.5289
3385.356 0.7064 0.7593 0.8833 0.7221 0.6503 0.7905 0.9325 1.211 1.511 1.581
3404.646 1.691 1.971 2.361 2.841 3.221 3.421 3.481 3.651 3.641 3.541
3423.936 3.241 2.911 2.721 2.401 2.061 1.741 1.461 1.271 1.331 1.231
3443.225 1.0655 0.96 0.9133 0.8871 0.8128 0.8433 0.9543 1.0898 1.1657 0.9787
3462.515 0.9924 1.0819 1.1017 1.231 1.291 1.421 1.611 1.851 2.121 2.181
3481.805 2.161 2.441 2.921 3.201 3.491 3.991 4.161 4.281 4.631 4.631
3501.095 4.691 4.791 4.351 3.971 3.681 3.281 3.001 2.831 2.461 2.051
3520.385 1.981 1.861 1.491 1.241 1.291 1.1733 1.0515 1.0833 0.8768 0.7462
3539.674 0.6951 0.6724 0.6653 0.6994 0.7145 0.6246 0.6469 0.7391 0.6586 0.6533
3558.964 0.7526 0.5634 0.4764 0.7832 0.8776 0.6167 0.4708 0.3422 0.3117 0.4197
3578.254 0.3909 0.5322 0.6835 0.7074 0.4885 0.4394 0.6363 0.5706 0.528 0.4016
3597.544 0.3081 0.3864 0.4363 0.3305 0.19945 0.22538 0.3381 0.5454 0.5313 0.4062
3616.833 0.2847 0.1658 0.3233 0.2904 0.3231 0.5272 0.4646 0.4287 0.3089 0.20741
3636.123 0.22672 0.078 0.1094 0.3299 0.3289 0.27168 0.3361 0.2986 0.3035 0.5054
3655.413 0.654 0.614 0.4345 0.4423 0.3752 0.3468 0.6213 0.5538 0.4542 0.5469
3674.703 0.4518 0.4668 0.3698 0.1168 0.25813 0.3634 0.3492 0.3743 0.5298 0.5919
3693.993 0.5492 0.6293 0.6391 0.5331 0.5106 0.4752 0.4249 0.5221 0.3614 0.26877
3713.282 0.5122 0.5203 0.3763 0.3093 0.3131 0.3879 0.4497 0.3416 0.305 0.23238
3732.572 0.1326 0.0972 0 0.24544 0.3593 0.4325 0.5078 0.3715 0.3369 0.3235
3751.862 0.25017 0.2818 0.3698 0.4083 0.5542 0.6275 0.5761 0.4918 0.4479 0.47
3771.152 0.3877 0.3448 0.5214 0.5234 0.3614 0.4136 0.3814 0.4123 0.4695 0.24754
3790.441 0.22999 0.3981 0.4289 0.2973 0.3384 0.4523 0.415 0.3716 0.1482 0.20977
3809.731 0.449 0.3542 0.182463 0.068 0.24709 0.3591 0.24529 0.3948 0.5307 0.4151
3829.021 0.2894 0.21304 0.1112 0.183199 0.4506 0.4761 0.3614 0.3905 0.3186 0.26983
3848.311 0.3521 0.3493 0.4001 0.5518 0.5912 0.5047 0.5149 0.5316 0.4211 0.5497
3867.601 0.6808 0.5158 0.5113 0.6848 0.5957 0.4976 0.6571 0.7234 0.682 0.6586
3886.890 0.4847 0.4046 0.4365 0.5521 0.6307 0.5475 0.7479 0.8878 0.6683 0.5372
3906.180 0.5378 0.6835 0.8206 0.6353 0.6795 0.895 0.9838 0.9136 0.7264 0.7377
3925.470 0.8647 0.9076 0.8236 0.747 0.5902 0.4925 0.6882 0.7573 0.8346 0.8541
3944.760 0.737 0.7339 0.7035 0.5886 0.4724 0.6058 0.6495 0.5065 0.5223 0.5716
3964.049 0.6054 0.7018 0.6824 0.5811 0.5091 0.6452 0.7535 0.6921 0.5582 0.427
3983.339 0.4083 0.4665 0.6947 0.6103 0.4072 0.4325 0.3964 0.4132 0.4767 0.7137
##END=
