##TITLE=3,5-Dinitro-2-hydroxybenzaldehyde
##JCAMP-DX=4.24
##DATA TYPE=INFRARED SPECTRUM
##ORIGIN=EPA-IR VAPOR PHASE LIBRARY
##OWNER=SRD/NIST
Collection (C) 2018 copyright by the U.S. Secretary of Commerce
on behalf of the United States of America. All rights reserved.
##CAS REGISTRY NO=2460-59-5
##MOLFORM=C 7 H 4 N 2 O 6
##$NIST SOURCE=MSDC-IR
##STATE=gas
##XUNITS=1/CM
##YUNITS=ABSORBANCE
##XFACTOR=1.
##YFACTOR=0.001
##DELTAX=1.92898
##FIRSTX=549.8
##LASTX=4000.7
##FIRSTY=2.018
##MAXX=4000.7
##MINX=549.759
##MAXY=0.083018
##MINY=0
##NPOINTS=1790
##XYDATA=(X++(Y..Y))
549.759 2.018 1.978 1.938 1.908 1.918 2.168 2.768 3.528 4.348 4.998
569.049 5.668 6.328 6.778 7.348 8.118 8.568 8.398 7.808 7.268 6.678
588.339 6.398 6.398 5.298 4.778 4.948 4.788 4.758 4.278 3.998 3.818
607.628 3.688 3.168 2.768 2.648 2.128 2.468 2.638 1.908 2.078 2.418
626.918 2.038 1.688 1.778 2.178 2.298 2.208 2.078 1.928 2.418 2.628
646.208 2.848 3.108 3.108 2.928 2.368 2.478 2.868 3.118 3.238 3.588
665.498 3.858 4.408 5.078 5.298 5.758 6.018 6.528 6.858 6.658 7.018
684.787 7.388 7.628 7.708 7.498 7.608 7.848 8.148 8.778 9.508 10.278
704.077 11.398 12.868 14.628 16.468 18.308 19.688 20.438 20.988 21.228 20.288
723.367 18.838 17.538 15.738 14.498 13.948 13.048 12.538 12.378 12.118 11.658
742.657 10.708 9.518 8.788 8.158 7.198 6.318 5.548 4.838 4.418 4.598
761.947 4.468 4.198 4.838 4.898 4.728 5.368 5.688 5.428 5.108 4.478
781.236 3.598 3.188 3.108 2.978 2.568 2.258 1.868 1.888 1.928 2.288
800.526 2.618 2.178 2.198 2.438 2.308 2.098 2.028 2.008 2.408 2.658
819.816 2.608 2.308 1.868 1.998 2.238 2.058 1.778 1.658 1.5716 1.718
839.106 1.5406 1.1399 1.1543 1.4122 1.3586 1.2609 1.4454 1.4961 1.3259 1.098
858.395 0.9213 1.1589 1.5079 1.648 1.4938 1.4257 1.798 1.768 1.2821 1.4578
877.685 1.958 2.108 2.118 1.988 1.908 1.738 1.818 2.028 2.008 2.188
896.975 2.508 2.838 3.508 4.228 4.868 5.608 6.378 7.748 9.198 10.578
916.265 11.958 13.058 14.128 14.808 14.708 14.378 13.718 12.658 11.628 10.398
935.555 9.778 9.908 9.918 10.258 10.878 11.298 11.488 11.378 11.268 10.948
954.844 10.018 8.728 7.638 6.648 5.718 5.158 4.568 3.798 3.038 2.578
974.134 2.238 1.768 1.738 1.788 1.778 1.658 1.1881 1.017 1.1701 1.598
993.424 1.658 1.3868 1.4008 1.658 1.768 1.497 1.1091 0.9099 1.0281 1.1815
1012.714 1.4703 1.4728 1.0521 1.1765 1.5089 1.3312 1.0414 0.9453 1.2221 1.2294
1032.003 1.2563 1.588 1.508 1.5055 1.4606 1.5192 1.958 2.118 2.428 2.478
1051.293 3.008 4.198 4.098 3.548 4.278 4.678 4.318 4.118 4.288 4.758
1070.583 5.678 6.628 6.468 7.628 9.178 9.678 10.688 11.118 11.758 12.678
1089.873 11.718 10.308 9.348 8.078 7.018 6.248 5.308 4.218 3.408 2.538
1109.163 2.258 2.958 3.268 2.308 1.738 1.658 1.718 1.838 2.208 2.948
1128.452 2.628 1.708 1.4937 2.028 2.548 2.378 1.928 2.008 2.388 3.108
1147.742 3.048 3.218 3.388 3.678 4.438 4.528 4.838 5.238 4.438 4.178
1167.032 5.458 5.328 4.988 5.878 5.438 4.388 4.388 4.038 3.078 2.728
1186.322 2.788 2.768 2.848 3.388 4.108 4.538 4.908 5.578 6.098 6.418
1205.611 7.348 7.328 7.358 8.858 9.288 9.488 9.688 9.358 9.388 8.628
1224.901 8.048 8.238 7.798 6.938 7.088 7.188 6.768 7.018 7.708 8.528
1244.191 9.328 10.128 10.948 12.098 12.778 13.718 15.728 17.348 18.828 19.908
1263.481 20.968 22.128 22.868 23.798 23.668 22.648 21.718 20.428 18.638 16.978
1282.771 15.368 14.358 14.118 13.908 14.128 14.838 15.738 16.528 17.648 18.848
1302.060 19.588 20.058 20.168 19.938 19.408 18.558 17.518 16.638 16.088 15.858
1321.350 15.978 16.528 17.748 19.598 21.998 25.198 29.668 35.478 42.978 51.908
1340.640 61.488 70.558 77.708 82.098 83.018 80.208 74.138 64.948 53.788 43.108
1359.930 34.268 27.378 22.178 18.328 15.688 14.078 12.748 11.778 11.148 10.668
1379.219 10.478 10.318 10.258 10.388 10.648 11.048 11.448 11.788 11.958 12.108
1398.509 12.208 12.008 11.738 11.508 11.498 11.548 11.508 11.718 12.218 12.958
1417.799 13.898 14.988 16.128 17.658 19.548 21.418 23.348 25.348 27.368 29.238
1437.089 30.918 32.138 33.118 33.738 33.878 33.658 32.858 31.868 30.588 28.888
1456.378 26.928 24.778 22.708 20.648 18.518 16.578 14.918 13.378 12.078 10.888
1475.668 9.938 9.238 8.578 8.118 7.738 7.558 7.538 7.328 7.438 7.528
1494.958 7.528 7.598 7.728 7.978 8.058 8.198 8.418 8.308 8.128 8.138
1514.248 8.118 8.018 7.868 7.748 7.718 7.808 7.868 7.948 8.338 8.788
1533.538 9.638 10.798 12.378 14.438 16.308 18.108 20.268 22.658 25.118 27.928
1552.827 30.798 33.758 36.508 38.888 40.208 40.058 38.378 35.558 32.098 28.198
1572.117 24.368 21.018 18.508 17.008 16.528 16.738 17.508 18.798 20.488 22.618
1591.407 25.128 27.688 30.268 33.138 35.838 38.318 40.978 43.508 45.458 47.208
1610.697 48.378 48.708 48.508 47.198 44.808 42.158 38.928 35.038 31.008 26.888
1629.986 23.158 19.988 17.208 14.668 12.758 11.278 9.898 8.998 8.358 7.788
1649.276 7.268 7.028 6.658 6.308 6.348 6.198 6.138 6.128 6.098 6.218
1668.566 6.508 7.018 7.858 9.358 11.308 13.578 16.528 19.518 21.758 23.118
1687.856 23.558 23.028 21.708 19.428 16.278 13.678 12.488 12.388 13.758 16.618
1707.146 20.968 26.498 31.688 34.958 35.998 35.998 34.748 31.078 24.948 18.188
1726.435 12.898 9.758 8.078 7.208 6.588 6.068 5.768 5.508 5.238 4.918
1745.725 4.598 4.208 3.768 3.408 2.988 2.648 2.508 2.418 2.288 2.238
1765.015 2.218 2.098 2.078 2.098 2.028 1.888 1.778 1.638 1.5461 1.5734
1784.305 1.5435 1.5291 1.5348 1.5119 1.4499 1.3583 1.2372 1.1651 1.1339 1.1758
1803.594 1.2576 1.2179 1.1895 1.1846 1.1501 1.0901 1.0515 1.1922 1.3149 1.263
1822.884 1.1815 1.0524 1.0626 1.2502 1.2339 1.235 1.3557 1.3893 1.4365 1.4706
1842.174 1.598 1.728 1.5862 1.525 1.5822 1.4305 1.4149 1.3846 1.2077 1.248
1861.464 1.2871 1.3843 1.4734 1.3313 1.2467 1.1423 1.0702 1.0973 1.1846 1.1736
1880.754 1.069 1.0068 0.9326 0.8986 0.9718 1.1147 1.0567 0.9457 0.9869 0.9647
1900.043 0.9131 0.916 0.8939 0.864 0.8246 0.7897 0.7426 0.7064 0.7985 0.929
1919.333 0.9826 0.977 0.9499 0.9622 0.9531 0.9354 0.8945 0.9675 0.9416 0.88
1938.623 0.888 0.7553 0.6994 0.68726 0.7082 0.7252 0.66401 0.66719 0.7001 0.7212
1957.913 0.7337 0.7424 0.8466 0.8062 0.7349 0.7092 0.6893 0.7689 0.8511 0.7808
1977.202 0.7236 0.7895 0.7947 0.7086 0.68217 0.68384 0.7442 0.7996 0.7348 0.7654
1996.492 0.7321 0.65618 0.63178 0.6995 0.7808 0.7259 0.66561 0.66949 0.591317 0.5002
2015.782 0.589856 0.7186 0.67521 0.593392 0.6245 0.6672 0.469 0.5061 0.7603 0.66156
2035.072 0.58466 0.5585 0.596256 0.5492 0.486 0.5382 0.5399 0.5546 0.445 0.39
2054.362 0.382 0.46 0.62411 0.59891 0.5258 0.567 0.62668 0.5746 0.5427 0.64312
2073.651 0.7284 0.7039 0.65856 0.60062 0.64209 0.7178 0.5607 0.58382 0.6903 0.66944
2092.941 0.7305 0.8167 0.7189 0.65386 0.7897 0.7333 0.596731 0.66125 0.79 0.66242
2112.231 0.67188 0.7631 0.7536 0.7174 0.65292 0.66745 0.7256 0.7182 0.7157 0.8176
2131.521 0.8173 0.8216 0.7617 0.7332 0.7313 0.6958 0.7504 0.8044 0.7855 0.65862
2150.810 0.596676 0.7188 0.7986 0.7791 0.734 0.68107 0.66508 0.6787 0.61703 0.7086
2170.100 0.9842 0.9071 0.7616 0.8307 0.8954 0.928 0.8447 0.7641 0.8005 0.8317
2189.390 0.8552 0.8774 0.8457 0.7423 0.61354 0.484 0.372 0.471 0.60797 0.60464
2208.680 0.66163 0.7633 0.6927 0.66948 0.7573 0.7829 0.6961 0.594124 0.739 0.7727
2227.970 0.7152 0.7166 0.7355 0.8514 0.8931 0.7473 0.592435 0.63864 0.61797 0.64348
2247.259 0.7365 0.7807 0.8313 0.8443 0.7833 0.6875 0.66028 0.7611 0.7681 0.7465
2266.549 0.8193 0.8106 0.9032 0.9168 0.7213 0.63468 0.66634 0.6933 0.7359 0.7327
2285.839 0.65698 0.64235 0.64984 0.5343 0.5356 0.61724 0.7119 0.7957 0.7758 0.7475
2305.129 0.7646 0.8948 0.9316 0.8327 0.7111 0.8055 0.8955 0.7049 0.7432 0.8244
2324.418 0.7281 0.6911 0.61529 0.5773 0.7329 0.9112 0.8646 0.8198 0.7924 0.7929
2343.708 0.7864 0.8467 1.0226 0.761 0.58609 0.8 0.7533 0.6901 0.8269 0.8232
2362.998 0.7517 0.5518 0.5059 0.5136 0.461 0.597768 0.62522 0.5679 0.6884 0.7758
2382.288 0.6895 0.8236 0.8243 0.61306 0.62718 0.7535 0.7409 0.735 0.8101 0.7456
2401.578 0.64397 0.590386 0.66016 0.62175 0.62988 0.7598 0.7845 0.8482 0.9327 0.9172
2420.867 0.9246 1.0751 1.0271 0.8416 0.8601 0.8422 0.7613 0.8194 0.8483 0.7649
2440.157 0.7087 0.8866 0.9841 0.9046 0.8324 0.889 0.9644 0.8831 0.9096 0.9652
2459.447 0.9585 1.0233 1.1731 1.1659 0.9229 0.8823 0.9947 0.9081 0.8098 0.9273
2478.737 0.9528 0.9469 0.9406 0.9572 0.8673 0.7476 0.9302 0.8635 0.8942 0.922
2498.026 0.7648 0.813 0.8489 1.0037 1.1436 1.0146 0.9538 0.9217 1.0175 1.1171
2517.316 1.1444 1.3512 1.3027 1.1468 1.1809 1.1251 0.9574 0.9414 1.0777 1.2102
2536.606 1.1543 0.9583 0.8905 1.0252 1.121 1.2267 1.1619 1.0629 1.1205 1.2093
2555.896 1.3233 1.3328 1.3117 1.0946 0.9877 1.0702 1.0267 0.9079 1.0491 1.2094
2575.186 1.1191 1.1153 1.0775 1.0905 1.1459 0.9661 0.8951 1.0554 1.2382 1.1867
2594.475 0.9192 0.9112 1.0806 1.1282 1.0823 1.1366 1.446 1.5125 1.3885 1.2951
2613.765 1.1297 1.0806 1.121 1.1188 1.1261 1.2004 1.2903 1.4487 1.4534 1.2577
2633.055 1.1565 1.2525 1.3476 1.2555 1.1583 1.3359 1.5115 1.537 1.3864 1.3074
2652.345 1.3295 1.3029 1.4856 1.3805 1.2053 1.2124 1.2786 1.4694 1.5283 1.5195
2671.634 1.5284 1.3327 1.3294 1.648 1.588 1.4163 1.4379 1.3701 1.4391 1.688
2690.924 1.828 1.958 1.968 1.928 1.758 1.668 1.888 1.868 1.5673 1.4912
2710.214 1.708 1.828 1.818 1.768 1.648 1.808 1.918 1.838 1.888 2.008
2729.504 2.298 2.298 2.158 2.338 2.238 2.158 2.198 2.108 2.228 2.098
2748.794 2.078 2.248 2.218 2.158 2.298 2.448 2.468 2.468 2.428 2.518
2768.083 2.548 2.448 2.548 2.488 2.188 2.198 2.128 1.908 1.938 1.948
2787.373 1.988 2.158 2.038 2.128 2.268 2.308 2.628 2.578 2.428 2.558
2806.663 2.638 2.708 2.858 2.778 2.528 2.538 2.588 2.638 2.698 2.698
2825.953 2.508 2.508 2.758 3.028 3.108 3.078 3.048 3.058 3.328 3.668
2845.242 4.038 4.218 4.528 4.908 5.438 6.018 6.138 5.918 5.718 5.618
2864.532 5.368 5.098 5.188 5.478 6.018 6.618 7.108 7.758 8.118 8.118
2883.822 8.058 7.828 7.288 6.488 5.528 5.038 4.598 3.828 3.678 3.518
2903.112 3.298 3.268 3.058 3.108 3.158 2.768 2.538 2.568 2.478 2.538
2922.401 2.658 2.548 2.398 2.368 2.288 2.248 2.128 2.258 2.428 2.238
2941.691 2.178 2.298 2.068 1.948 2.328 2.248 2.188 2.028 1.668 1.778
2960.981 2.128 2.198 2.038 2.208 2.148 1.968 2.048 2.038 1.988 2.048
2980.271 2.068 1.908 1.948 2.048 2.038 2.138 2.118 2.048 2.258 2.138
2999.561 1.888 1.798 1.898 2.138 2.138 2.028 1.968 2.108 2.178 2.238
3018.850 2.538 2.408 2.138 2.138 2.178 2.158 2.108 1.978 2.068 2.198
3038.140 1.948 2.118 2.508 2.478 2.288 2.118 2.358 3.008 3.028 2.608
3057.430 2.528 3.058 3.478 3.148 3.068 3.248 3.318 3.578 3.678 3.578
3076.720 3.808 3.938 4.118 4.708 4.888 5.218 5.758 6.228 6.428 6.208
3096.009 6.688 7.208 7.428 7.868 8.028 7.888 7.978 7.888 7.178 6.718
3115.299 6.408 5.748 5.048 4.668 4.508 4.598 4.708 4.698 4.888 5.168
3134.589 4.948 4.508 4.858 5.238 5.328 5.388 5.388 5.858 6.248 6.338
3153.879 6.448 6.468 6.608 6.758 6.758 6.738 6.838 7.208 7.148 6.928
3173.169 7.098 7.348 7.648 7.498 7.308 7.338 7.498 7.378 7.308 7.258
3192.458 7.328 7.558 7.448 7.258 7.158 7.148 6.798 6.508 6.848 7.308
3211.748 7.398 7.378 7.298 7.048 6.968 6.818 6.588 6.628 6.508 6.608
3231.038 6.898 6.778 6.218 5.938 6.248 6.388 6.538 6.828 6.808 6.388
3250.328 5.918 5.628 5.738 5.778 5.538 5.678 5.738 5.728 6.098 5.808
3269.617 5.198 5.358 5.608 5.408 5.338 5.328 5.048 4.888 5.238 5.408
3288.907 5.208 5.018 5.188 5.458 5.208 4.998 4.778 4.498 4.528 4.578
3308.197 4.428 4.218 4.218 3.948 4.018 4.178 3.678 3.478 3.648 4.068
3327.487 4.128 4.148 4.008 3.768 4.138 4.288 4.128 3.948 3.758 3.758
3346.777 3.948 3.808 3.658 3.848 3.968 3.718 3.088 3.018 3.428 3.568
3366.066 3.538 3.378 3.348 3.118 3.008 3.148 3.198 3.088 2.718 2.478
3385.356 2.558 2.728 2.828 2.918 2.808 2.878 2.778 2.568 2.758 3.068
3404.646 3.168 3.078 3.208 3.358 3.448 3.498 3.158 2.848 2.898 2.868
3423.936 2.628 2.598 2.478 2.208 2.178 2.418 2.558 2.428 2.498 2.728
3443.225 2.588 2.348 1.968 1.858 2.138 2.268 2.428 2.188 1.968 1.978
3462.515 1.768 1.738 1.718 1.828 2.168 2.608 2.678 2.318 2.108 1.978
3481.805 1.858 1.668 1.678 1.838 2.078 2.318 2.318 1.948 1.668 1.898
3501.095 1.968 1.728 1.818 1.898 1.908 2.188 1.678 1.2968 1.4883 1.4309
3520.385 1.3938 1.4952 1.658 1.608 1.4362 1.2017 1.1768 1.2737 1.4483 1.4963
3539.674 1.3981 1.46 1.698 1.3955 1.0803 1.1407 0.9781 1.0453 1.1891 1.1473
3558.964 0.9255 1.1027 1.498 1.5383 1.514 0.9593 0.64015 0.9729 0.8239 1.0038
3578.254 1.3901 1.1343 1.0496 1.3667 1.1762 0.9302 1.0637 1.0222 0.64808 0.672
3597.544 1.2346 1.3498 1.1707 1.0263 0.8967 0.63729 0.61946 1.1353 1.0397 0.6911
3616.833 0.7988 0.7186 0.8864 1.0704 0.8744 0.9066 0.9461 0.8171 0.60366 0.5736
3636.123 0.8262 0.8518 0.8762 0.8438 0.67595 0.573 0.7121 0.7313 0.7101 0.7091
3655.413 0.5303 0.5722 0.8361 0.9743 0.8484 0.7946 0.9431 1.0756 0.904 0.7071
3674.703 0.7059 0.63341 0.7439 0.8376 0.7839 0.8828 0.58541 0.289 0.8097 0.9405
3693.993 0.8086 1.2185 1.2308 0.84 0.68513 0.5166 0.64938 0.60065 0.256 0.361
3713.282 0.37 0.5162 0.62064 0.58406 0.344 0.61241 1.3178 0.9986 0.588758 0.64787
3732.572 0.874 0.9684 0.6908 0.377 0.5569 0.8821 0.9161 0.5569 0.273 0.439
3751.862 0.5627 0.35 0.085 0.346 0.445 0.304 0.7372 1.4434 1.0406 0.765
3771.152 1.1946 0.9288 0.67113 0.7085 0.7427 0.7888 0.8889 0.9478 0.7288 0.544
3790.441 0.62008 0.569 0.66545 0.8621 0.8137 0.9754 0.8617 0.588887 0.8122 0.8555
3809.731 0.442 0.438 0.6999 0.5602 0.8067 0.9225 0.5625 0.442 0.5052 0.592296
3829.021 0.527 0.65073 0.914 0.8922 1.0139 1.1657 1.0287 0.595472 0.481 1.0362
3848.311 0.8768 0.7445 1.0217 1.2244 1.1223 0.5627 0.57952 0.8481 1.1295 0.8977
3867.601 0.42 0.264 0.171 0.482 0.7201 0.531 0.7874 1.0218 0.6838 0.7779
3886.890 0.886 0.768 0.464 0.034 0 0.322 0.5279 0.60493 1.2024 1.2793
3906.180 0.9241 0.7489 0.5504 0.404 0.336 0.5428 0.546 0.60925 0.353 0.198
3925.470 0.5473 0.5607 0.8246 1.021 0.66537 0.369 0.459 0.8607 0.7695 0.6289
3944.760 0.8992 0.9904 0.7705 0.8412 1.1919 0.8389 0.349 0.28 0.7007 1.0076
3964.049 0.8572 0.7206 0.7836 0.9381 1.0074 0.8908 0.7183 0.7 0.5728 0.6562
3983.339 0.9423 0.9899 1.0445 1.0011 0.61711 0.7984 1.1728 1.4836 1.4574 0.45
##END=
