##TITLE=6-Methoxy-2-tetralone
##JCAMP-DX=4.24
##DATA TYPE=INFRARED SPECTRUM
##ORIGIN=EPA-IR VAPOR PHASE LIBRARY
##OWNER=SRD/NIST
Collection (C) 2018 copyright by the U.S. Secretary of Commerce
on behalf of the United States of America. All rights reserved.
##CAS REGISTRY NO=2472-22-2
##MOLFORM=C 11 H 12 O 2
##$NIST SOURCE=MSDC-IR
##STATE=gas
##XUNITS=1/CM
##YUNITS=ABSORBANCE
##XFACTOR=1.
##YFACTOR=0.001
##DELTAX=1.929
##FIRSTX=549.8
##LASTX=4000.8
##FIRSTY=1.954
##MAXX=4000.75
##MINX=549.766
##MAXY=0.058154
##MINY=0
##NPOINTS=1790
##XYDATA=(X++(Y..Y))
549.766 1.954 2.194 2.414 2.414 2.444 2.114 2.094 2.374 2.374 2.514
569.056 2.564 2.644 2.854 2.724 2.574 2.554 2.344 2.214 2.234 2.204
588.346 1.874 1.634 1.774 1.4242 1.2935 1.614 1.564 1.4438 1.3255 1.3595
607.636 1.4619 1.2629 1.024 1.0248 1.1871 1.3899 1.514 1.4146 1.3787 1.4082
626.926 1.3735 1.3956 1.534 1.704 1.544 1.25 1.2764 1.3084 1.2448 1.2963
646.216 1.2436 1.0466 1.0531 1.1341 1.0381 0.8591 0.7712 0.8662 0.8344 0.8374
665.506 0.8917 0.9322 0.931 0.9013 1.0071 1.0739 1.0168 1.0666 1.0842 1.0509
684.796 1.2987 1.3614 1.2454 1.2509 1.2626 1.2282 1.1858 1.0217 0.9904 1.0257
704.086 0.8323 0.7233 0.7863 0.8302 0.8214 0.9089 0.9632 1.004 1.0431 1.0968
723.376 1.2972 1.3896 1.5111 1.604 1.614 1.784 1.744 1.674 1.724 1.694
742.666 1.534 1.4647 1.4433 1.2946 1.1971 1.1506 1.0779 0.9058 0.8126 0.8534
761.956 1.0046 1.1122 0.9934 0.831 0.9866 1.1195 1.0122 1.1525 1.5079 1.704
781.246 1.754 1.964 2.354 2.734 3.174 3.684 4.154 4.674 5.094 5.424
800.536 5.814 6.064 6.044 6.044 5.914 5.914 5.834 5.404 4.974 4.444
819.826 4.094 3.634 3.184 2.884 2.614 2.544 2.394 2.214 2.304 2.374
839.116 2.454 2.584 2.564 2.574 2.624 2.684 2.644 2.574 2.674 2.874
858.406 3.024 3.234 3.434 3.754 4.234 4.634 4.934 5.204 5.484 5.684
877.696 5.784 5.894 5.914 5.854 5.664 5.274 4.744 4.164 3.634 3.224
896.986 2.914 2.544 2.184 1.974 1.894 1.784 1.664 1.704 1.784 1.884
916.276 1.964 2.104 2.304 2.524 2.734 2.934 3.094 3.074 2.944 2.714
935.566 2.394 2.034 1.694 1.514 1.4952 1.41 1.3058 1.2615 1.1919 1.1598
954.856 1.1697 1.2175 1.1783 1.1786 1.3565 1.3751 1.3737 1.5044 1.644 1.874
974.146 2.084 2.384 2.694 2.854 2.884 2.864 2.894 2.914 2.844 2.654
993.436 2.544 2.524 2.444 2.424 2.514 2.594 2.674 2.824 3.024 3.184
1012.726 3.454 3.754 4.064 4.524 5.104 5.724 6.484 7.444 8.524 9.714
1032.016 10.904 12.074 13.274 14.184 14.674 14.734 14.274 13.524 12.464 11.184
1051.306 9.804 8.374 7.064 5.884 4.934 4.284 3.794 3.514 3.294 3.074
1070.596 2.944 2.914 2.944 2.884 2.874 2.964 3.054 3.114 3.244 3.454
1089.886 3.674 3.964 4.454 5.124 5.874 6.654 7.464 8.284 9.064 9.764
1109.176 10.294 10.704 10.914 11.064 11.104 11.164 11.204 10.944 10.674 10.414
1128.467 10.184 9.944 9.734 9.764 10.024 10.374 10.874 11.724 12.804 14.204
1147.757 15.724 17.054 18.154 18.994 19.344 19.054 18.274 17.104 15.744 14.324
1167.047 13.044 12.054 11.274 10.794 10.664 10.764 11.074 11.434 11.814 12.224
1186.337 12.584 12.944 13.124 13.084 12.894 12.464 11.934 11.404 10.804 10.114
1205.627 9.564 9.124 8.734 8.454 8.364 8.644 9.234 9.984 11.024 12.184
1224.917 13.274 14.474 15.654 16.654 17.434 17.934 18.114 17.934 17.574 17.024
1244.207 16.454 16.124 16.024 16.264 17.014 18.484 20.704 23.364 26.314 29.274
1263.497 31.784 33.544 34.324 34.214 33.094 31.054 28.474 25.774 23.404 21.534
1282.787 20.194 19.334 18.664 18.014 17.314 16.474 15.494 14.454 13.384 12.164
1302.077 11.094 10.314 9.704 9.274 8.934 8.844 8.904 9.004 9.174 9.414
1321.367 9.754 10.144 10.604 11.014 11.244 11.164 10.714 10.084 9.244 8.194
1340.657 6.984 5.714 4.824 4.184 3.664 3.274 2.984 2.824 2.694 2.554
1359.947 2.494 2.484 2.384 2.334 2.324 2.364 2.394 2.444 2.514 2.534
1379.237 2.604 2.674 2.714 2.764 2.814 2.864 3.034 3.254 3.424 3.614
1398.527 3.954 4.354 4.784 5.324 5.834 6.274 6.824 7.464 8.074 8.654
1417.817 9.284 9.904 10.374 10.834 11.114 11.224 11.194 10.924 10.494 10.054
1437.107 9.564 9.054 8.614 8.304 8.174 8.044 7.974 8.074 8.194 8.254
1456.397 8.434 8.684 9.024 9.494 9.934 10.284 10.534 10.644 10.714 10.764
1475.687 10.734 10.804 11.214 12.104 13.634 15.854 18.814 22.624 27.084 31.594
1494.977 35.634 38.714 40.194 39.944 38.064 34.684 29.954 24.704 19.704 15.364
1514.267 11.964 9.444 7.674 6.524 5.654 4.954 4.434 4.044 3.734 3.494
1533.557 3.304 3.044 2.894 2.844 2.704 2.544 2.454 2.454 2.494 2.444
1552.847 2.464 2.554 2.674 2.914 3.104 3.264 3.504 3.924 4.474 5.074
1572.137 5.684 6.364 7.064 7.604 7.984 8.314 8.434 8.434 8.394 8.324
1591.427 8.324 8.544 9.024 9.754 10.734 11.894 13.164 14.354 15.384 16.124
1610.717 16.514 16.484 16.014 15.164 13.934 12.624 11.224 9.784 8.474 7.274
1630.007 6.214 5.434 4.854 4.294 3.794 3.414 3.094 2.834 2.714 2.644
1649.297 2.524 2.414 2.374 2.304 2.294 2.254 2.244 2.324 2.354 2.384
1668.587 2.494 2.584 2.704 2.894 3.014 3.144 3.294 3.514 3.794 4.004
1687.877 4.234 4.514 4.854 5.234 5.714 6.134 6.564 7.104 7.584 8.134
1707.167 8.824 9.584 10.414 11.444 12.754 14.374 16.264 18.444 21.214 24.554
1726.457 28.504 33.124 38.384 43.914 49.584 54.214 57.074 58.154 57.174 54.154
1745.747 49.244 42.864 35.814 28.914 23.134 18.694 15.244 12.754 10.914 9.494
1765.037 8.414 7.674 7.024 6.454 5.984 5.464 4.974 4.554 4.154 3.784
1784.327 3.374 3.024 2.804 2.624 2.404 2.174 2.014 1.884 1.824 1.804
1803.617 1.704 1.604 1.554 1.4849 1.453 1.4374 1.3612 1.3343 1.3876 1.3446
1822.907 1.2989 1.2798 1.2138 1.1709 1.1321 1.0896 1.0683 1.1111 1.1147 1.1096
1842.197 1.1702 1.1589 1.0909 1.0793 1.0852 1.121 1.1196 1.1063 1.1592 1.1706
1861.487 1.1716 1.1713 1.144 1.1031 1.0995 1.1661 1.2143 1.2036 1.1767 1.1652
1880.777 1.2067 1.2029 1.1591 1.149 1.0838 1.0614 1.0374 0.9729 0.9434 0.9208
1900.067 0.8856 0.8372 0.8535 0.8441 0.8201 0.8452 0.8377 0.789 0.7808 0.7835
1919.357 0.7954 0.7844 0.7332 0.7365 0.7633 0.7587 0.7011 0.6897 0.7063 0.6983
1938.647 0.7019 0.6856 0.7025 0.7361 0.7325 0.6906 0.6865 0.7104 0.7037 0.6957
1957.937 0.6936 0.7331 0.7809 0.7402 0.735 0.7983 0.7903 0.8107 0.7733 0.7288
1977.227 0.7615 0.8202 0.8827 0.8754 0.8692 0.8973 0.8961 0.8479 0.8874 0.9034
1996.517 0.8667 0.8536 0.837 0.85 0.8398 0.7958 0.7763 0.7956 0.7853 0.7822
2015.807 0.7989 0.8042 0.8434 0.848 0.8242 0.8388 0.832 0.8292 0.8517 0.8458
2035.097 0.8465 0.8467 0.842 0.891 0.9256 0.8644 0.8412 0.8536 0.8721 0.9078
2054.387 0.9541 0.964 0.9403 0.927 0.9496 0.9798 1.0133 1.0523 1.0601 1.0505
2073.677 1.0468 1.0474 1.0146 1.0142 1.0329 1.0401 0.9973 0.9383 0.9213 0.8943
2092.967 0.9263 0.9034 0.7928 0.7349 0.7177 0.6884 0.6507 0.7012 0.7377 0.673
2112.257 0.6561 0.6945 0.7022 0.6666 0.6665 0.7072 0.7157 0.7241 0.7284 0.7555
2131.547 0.7144 0.6862 0.7144 0.6985 0.7007 0.6816 0.6896 0.6792 0.6489 0.7205
2150.837 0.7693 0.7824 0.7524 0.7117 0.7181 0.7329 0.6789 0.6368 0.7012 0.7404
2170.127 0.773 0.7656 0.6931 0.6726 0.6997 0.7205 0.6854 0.6682 0.745 0.8029
2189.417 0.8019 0.7942 0.7595 0.7155 0.683 0.7026 0.7584 0.7343 0.6688 0.6735
2208.707 0.7108 0.6585 0.57013 0.57686 0.6254 0.6516 0.6406 0.59387 0.56268 0.56643
2227.997 0.6076 0.636 0.6314 0.6148 0.60596 0.6299 0.6339 0.6427 0.6413 0.59871
2247.287 0.6162 0.6246 0.56858 0.52247 0.517497 0.53284 0.51235 0.53248 0.519664 0.516281
2266.577 0.6144 0.60215 0.57739 0.605 0.56564 0.52537 0.52407 0.55188 0.6318 0.6765
2285.868 0.659 0.6308 0.60625 0.59202 0.6308 0.6579 0.6468 0.6323 0.6368 0.6755
2305.158 0.6861 0.6931 0.6984 0.6791 0.6549 0.6474 0.60667 0.6191 0.6574 0.6884
2324.448 0.6707 0.60603 0.6145 0.58888 0.58015 0.59718 0.574 0.5996 0.59602 0.54939
2343.738 0.58825 0.57176 0.55479 0.6275 0.60313 0.55152 0.60358 0.6273 0.6031 0.6496
2363.028 0.6929 0.6646 0.60726 0.56724 0.59019 0.55069 0.518346 0.513027 0.54129 0.57171
2382.318 0.58003 0.6296 0.55986 0.55147 0.6312 0.6451 0.6628 0.6513 0.56958 0.56823
2401.608 0.58046 0.55274 0.56934 0.57037 0.52747 0.55268 0.6215 0.6699 0.6881 0.6732
2420.898 0.679 0.6946 0.7329 0.7259 0.6693 0.6222 0.57081 0.60096 0.6551 0.56509
2440.188 0.4826 0.5378 0.61188 0.61123 0.60927 0.58616 0.4921 0.4946 0.4903 0.4735
2459.478 0.54035 0.53524 0.52416 0.54258 0.54117 0.53638 0.53128 0.58166 0.58774 0.59443
2478.768 0.6632 0.656 0.6597 0.6989 0.7497 0.684 0.6144 0.6731 0.6834 0.6683
2498.058 0.6898 0.6712 0.6571 0.6824 0.6729 0.6348 0.6287 0.57429 0.61 0.6556
2517.348 0.6427 0.6964 0.643 0.58219 0.58584 0.6731 0.6727 0.59982 0.61374 0.6713
2536.638 0.703 0.7525 0.7952 0.7247 0.6144 0.6288 0.7228 0.7564 0.7526 0.7252
2555.928 0.7457 0.7187 0.6682 0.6478 0.6775 0.6997 0.6562 0.6873 0.7274 0.7103
2575.218 0.6677 0.639 0.6463 0.6247 0.6205 0.59904 0.62 0.6811 0.6635 0.6169
2594.508 0.6367 0.7001 0.6768 0.6431 0.6438 0.6471 0.6381 0.59742 0.58905 0.55442
2613.798 0.55963 0.57723 0.53651 0.58906 0.6446 0.6427 0.6262 0.56698 0.58955 0.6668
2633.088 0.683 0.6624 0.60551 0.59152 0.58554 0.6268 0.6558 0.622 0.6257 0.625
2652.378 0.6535 0.6605 0.6264 0.636 0.59274 0.54142 0.5429 0.57087 0.522541 0.471
2671.668 0.523926 0.53636 0.5004 0.51005 0.52492 0.4639 0.4912 0.55142 0.56521 0.54456
2690.958 0.4793 0.523752 0.59382 0.6207 0.626 0.5719 0.50649 0.56953 0.6548 0.60267
2710.248 0.61058 0.6517 0.6841 0.645 0.5923 0.6872 0.7183 0.6531 0.6752 0.7895
2729.538 0.818 0.7315 0.6665 0.6708 0.6899 0.7444 0.7501 0.6942 0.7358 0.7453
2748.828 0.7374 0.7826 0.8162 0.8221 0.7733 0.7901 0.8374 0.8552 0.8669 0.8204
2768.118 0.8444 0.9698 0.9588 0.8898 0.9021 0.9766 1.0692 1.0919 1.1171 1.1312
2787.408 1.2312 1.3574 1.3191 1.432 1.644 1.704 1.704 1.774 1.914 1.954
2806.698 2.014 2.144 2.174 2.224 2.364 2.534 2.604 2.794 2.924 3.044
2825.988 3.374 3.644 4.024 4.534 5.094 5.794 6.604 7.334 7.924 8.364
2845.278 8.654 8.824 8.844 8.864 8.724 8.504 8.434 8.264 8.034 7.904
2864.568 7.794 7.584 7.374 7.244 6.994 6.674 6.544 6.474 6.274 6.064
2883.858 5.924 5.784 5.724 5.774 5.874 6.074 6.344 6.554 6.984 7.574
2903.148 8.174 8.804 9.404 10.044 10.594 10.934 11.114 11.214 11.204 11.014
2922.438 10.694 10.404 10.174 10.034 10.174 10.364 10.814 11.614 12.434 13.314
2941.728 14.224 15.024 15.924 16.714 17.114 17.284 17.294 17.194 17.034 16.564
2961.018 15.834 15.074 14.094 13.024 11.994 10.854 9.744 8.644 7.644 6.894
2980.308 6.364 5.984 5.734 5.714 5.774 5.854 6.114 6.474 6.934 7.534
2999.598 8.224 9.054 9.754 10.034 10.064 9.864 9.414 8.864 8.114 7.224
3018.888 6.704 6.414 6.184 6.144 6.144 6.104 5.914 5.804 5.584 5.084
3038.178 4.654 4.314 3.934 3.454 3.154 2.944 2.794 2.644 2.534 2.614
3057.468 2.704 2.744 2.794 2.754 2.764 2.874 2.874 3.004 3.074 2.964
3076.758 2.864 2.734 2.614 2.634 2.574 2.464 2.434 2.254 2.034 2.004
3096.048 1.904 1.604 1.423 1.4053 1.4058 1.3009 1.1507 1.1223 1.2263 1.2392
3115.338 1.183 1.1438 1.0208 0.8897 0.8928 0.992 0.8812 0.754 0.7377 0.61135
3134.628 0.4647 0.4853 0.4935 0.4457 0.50984 0.4753 0.4513 0.4153 0.4448 0.6031
3153.918 0.50844 0.394 0.4646 0.356 0.279 0.387 0.4726 0.56515 0.60964 0.55326
3173.208 0.4881 0.413 0.396 0.326 0.366 0.392 0.395 0.408 0.237 0.284
3192.498 0.363 0.404 0.355 0.257 0.282 0.228 0.252 0.261 0.215 0.226
3211.788 0.17 0.263 0.268 0.121 0.224 0.258 0.189 0.189 0.165 0.238
3231.078 0.285 0.307 0.249 0.196 0.155 0.12 0.274 0.309 0.194 0.205
3250.368 0.273 0.329 0.277 0.175 0.102 0.177 0.199 0.143 0.181 0.247
3269.658 0.3 0.222 0.179 0.126 0.066 0.159 0.24 0.19 0.16 0.199
3288.948 0.191 0.168 0.25 0.189 0.058 0.004 0 0.039 0.116 0.25
3308.238 0.252 0.222 0.283 0.219 0.102 0.102 0.119 0.161 0.146 0.136
3327.528 0.242 0.26 0.251 0.279 0.257 0.155 0.036 0.17 0.282 0.265
3346.818 0.349 0.283 0.157 0.171 0.148 0.14 0.104 0.304 0.4867 0.195
3366.108 0.11 0.251 0.205 0.201 0.28 0.326 0.335 0.371 0.394 0.397
3385.398 0.346 0.251 0.204 0.272 0.337 0.29 0.323 0.273 0.256 0.282
3404.688 0.361 0.4227 0.4445 0.381 0.256 0.247 0.234 0.367 0.389 0.473
3423.978 0.55124 0.4439 0.4225 0.384 0.413 0.50865 0.54281 0.6443 0.7152 0.7264
3443.269 0.7978 0.8935 0.9658 0.9568 1.083 1.1537 1.0771 1.075 1.1717 1.1907
3462.559 1.0691 1.0481 1.027 0.9588 0.8042 0.6883 0.6613 0.6214 0.53792 0.514252
3481.849 0.59856 0.53761 0.4212 0.387 0.373 0.441 0.52863 0.4917 0.408 0.382
3501.139 0.374 0.4256 0.4833 0.397 0.412 0.351 0.136 0.249 0.333 0.259
3520.429 0.294 0.232 0.27 0.269 0.141 0.231 0.363 0.319 0.251 0.293
3539.719 0.326 0.328 0.31 0.099 0.093 0.149 0.141 0.141 0.121 0.147
3559.009 0.107 0.2 0.263 0.314 0.273 0.163 0.07 0.065 0.215 0.244
3578.299 0.169 0.177 0.176 0.18 0.23 0.354 0.4196 0.296 0.151 0.199
3597.589 0.241 0.233 0.18 0.123 0.193 0.251 0.347 0.301 0.183 0.088
3616.879 0.056 0.136 0.212 0.197 0.265 0.306 0.287 0.121 0.139 0.235
3636.169 0.145 0.213 0.256 0.358 0.384 0.248 0.186 0.309 0.4553 0.4345
3655.459 0.4426 0.399 0.317 0.271 0.296 0.312 0.257 0.21 0.246 0.295
3674.749 0.254 0.161 0.124 0.21 0.19 0.181 0.094 0.129 0.206 0.052
3694.039 0.165 0.312 0.104 0.037 0.089 0.083 0.11 0.155 0.234 0.194
3713.329 0.091 0.104 0.116 0.204 0.267 0.196 0.227 0.191 0.195 0.305
3732.619 0.292 0.213 0.118 0.125 0.118 0.167 0.355 0.319 0.195 0.173
3751.909 0.298 0.331 0.155 0.12 0.216 0.237 0.224 0.295 0.275 0.225
3771.199 0.144 0.212 0.241 0.138 0.249 0.35 0.27 0.14 0.102 0.15
3790.489 0.263 0.202 0.25 0.342 0.248 0.2 0.267 0.251 0.224 0.299
3809.779 0.262 0.188 0.214 0.167 0.076 0.222 0.193 0.104 0.187 0.227
3829.069 0.305 0.373 0.4191 0.4226 0.427 0.4733 0.4266 0.324 0.272 0.255
3848.359 0.125 0.111 0.221 0.235 0.269 0.275 0.305 0.39 0.337 0.249
3867.649 0.188 0.251 0.286 0.175 0.216 0.38 0.57724 0.51236 0.329 0.286
3886.939 0.214 0.282 0.325 0.286 0.294 0.249 0.34 0.4 0.368 0.4657
3906.229 0.4512 0.274 0.19 0.233 0.229 0.166 0.214 0.282 0.179 0.133
3925.519 0.229 0.2 0.308 0.4461 0.379 0.311 0.255 0.263 0.329 0.212
3944.809 0.299 0.404 0.291 0.385 0.4246 0.251 0.099 0.129 0.235 0.304
3964.099 0.239 0.134 0.15 0.272 0.318 0.239 0.204 0.316 0.319 0.3
3983.389 0.36 0.351 0.319 0.339 0.402 0.50427 0.4661 0.294 0.326 0.308
##END=
