##TITLE=1-tert-Butylpyrrole
##JCAMP-DX=4.24
##DATA TYPE=INFRARED SPECTRUM
##ORIGIN=EPA-IR VAPOR PHASE LIBRARY
##OWNER=SRD/NIST
Collection (C) 2018 copyright by the U.S. Secretary of Commerce
on behalf of the United States of America. All rights reserved.
##CAS REGISTRY NO=24764-40-7
##MOLFORM=C 8 H 13 N
##$NIST SOURCE=MSDC-IR
##STATE=gas
##XUNITS=1/CM
##YUNITS=ABSORBANCE
##XFACTOR=1.
##YFACTOR=0.001
##DELTAX=1.92898
##FIRSTX=549.8
##LASTX=4000.7
##FIRSTY=1.429
##MAXX=4000.7
##MINX=549.759
##MAXY=0.286409
##MINY=0
##NPOINTS=1790
##XYDATA=(X++(Y..Y))
549.759 1.429 1.259 1.0762 0.9194 0.5264 0.9455 1.849 2.109 2.829 3.509
569.049 4.079 4.999 5.709 6.329 7.309 8.359 9.629 10.409 10.829 11.559
588.339 11.859 11.819 12.259 12.749 12.619 12.309 12.209 12.539 12.969 13.349
607.628 14.119 15.529 16.939 18.879 20.859 22.059 23.709 25.859 27.879 30.099
626.918 32.359 34.699 37.469 39.359 39.269 37.919 36.019 34.389 33.139 31.789
646.208 30.449 28.929 27.479 25.699 23.799 21.749 19.419 17.859 16.539 15.339
665.498 14.679 14.289 14.269 14.989 16.249 18.089 20.969 24.839 29.439 34.869
684.787 41.669 49.729 58.519 68.309 79.359 90.649 101.789 112.839 123.129 132.989
704.077 143.709 155.879 170.939 189.819 212.669 232.569 230.009 208.089 187.709 172.959
723.367 161.629 152.039 142.999 133.539 122.449 110.059 97.009 83.899 71.719 60.559
742.657 50.309 41.099 33.369 27.119 22.189 18.039 14.439 11.829 9.949 8.409
761.947 7.229 6.509 5.749 5.109 4.809 4.499 4.109 3.909 3.739 3.559
781.236 3.299 3.039 3.199 3.249 2.879 2.959 3.359 3.409 3.679 4.119
800.526 4.379 4.509 4.779 5.049 5.109 5.259 5.649 5.969 6.029 6.019
819.816 6.329 6.939 7.509 7.999 8.199 8.499 8.599 8.629 8.629 8.549
839.106 8.429 8.149 7.739 7.109 6.389 5.509 4.729 4.309 3.729 3.249
858.395 3.239 3.059 2.829 2.869 2.819 2.669 2.609 2.769 2.749 2.569
877.685 2.749 2.769 2.839 2.939 3.009 2.869 2.649 2.559 2.539 2.659
896.975 2.579 2.409 2.189 2.089 2.089 2.299 2.399 2.219 2.359 2.329
916.265 2.319 2.499 2.559 2.989 3.519 3.879 4.369 5.479 7.289 9.879
935.555 13.559 18.459 24.179 29.269 32.169 32.949 33.479 36.349 38.399 35.569
954.844 33.429 33.359 31.369 26.879 20.849 15.259 10.739 7.819 6.179 4.899
974.134 4.219 3.679 3.109 2.809 2.659 2.409 2.189 2.119 1.889 1.979
993.424 2.059 1.919 1.999 2.029 2.259 2.469 2.649 2.849 3.089 3.579
1012.714 4.149 4.619 5.299 5.839 6.039 6.279 6.719 7.299 8.069 8.589
1032.003 8.989 10.289 11.869 13.679 15.839 17.239 18.049 18.379 18.769 20.599
1051.293 22.319 21.929 22.119 23.799 24.999 25.919 26.489 27.909 30.139 33.349
1070.583 36.649 40.459 46.599 55.809 69.189 87.329 108.569 127.959 139.949 142.009
1089.873 145.159 160.649 163.219 144.479 139.399 143.419 135.519 114.639 87.909 64.089
1109.163 46.009 33.099 23.689 18.119 14.719 11.729 10.169 8.759 7.909 7.489
1128.452 6.269 5.809 5.929 5.289 4.639 4.749 5.099 5.119 5.009 5.419
1147.742 5.719 5.799 6.459 6.999 8.319 10.189 11.819 13.769 15.049 16.269
1167.032 17.489 18.869 19.619 19.759 19.999 20.019 19.769 19.009 17.919 16.529
1186.322 14.809 13.299 12.239 11.349 11.609 12.169 13.259 15.319 17.389 19.679
1205.611 22.109 25.559 29.749 32.539 35.709 37.799 38.369 39.229 38.989 38.049
1224.901 36.399 35.379 35.529 34.729 33.639 34.249 36.619 40.769 46.819 54.879
1244.191 65.369 78.889 95.599 115.049 137.089 161.469 186.889 211.759 235.319 255.809
1263.481 271.349 281.169 284.609 281.679 271.799 255.689 234.139 207.419 177.619 146.459
1282.771 116.429 90.859 70.909 56.089 45.329 37.559 31.849 27.449 23.859 20.929
1302.060 18.549 16.829 15.549 14.439 13.639 13.019 12.519 12.149 11.789 11.369
1321.350 11.029 10.889 10.599 10.349 10.319 10.199 10.139 10.299 10.509 10.779
1340.640 11.329 12.199 13.499 15.379 17.869 21.189 25.259 29.949 35.579 42.029
1359.930 48.999 56.279 63.669 71.149 78.299 84.819 90.369 93.669 94.399 93.259
1379.219 90.259 85.669 80.519 75.629 70.919 66.589 62.769 59.259 56.119 53.439
1398.509 50.969 48.729 46.509 43.549 40.449 37.509 34.199 30.309 25.989 21.759
1417.799 18.129 15.179 13.039 11.599 10.839 10.579 10.589 10.899 11.689 12.919
1437.089 14.349 15.999 17.949 20.079 22.509 25.269 28.299 31.479 34.909 38.209
1456.378 41.459 44.809 48.199 52.029 56.849 62.929 69.659 76.989 84.469 90.709
1475.668 94.289 95.829 96.779 97.849 97.419 93.519 88.389 83.879 77.349 67.789
1494.958 56.809 46.289 37.949 32.069 28.039 25.409 23.599 22.609 22.769 24.129
1514.248 26.879 30.899 35.609 40.399 44.789 48.259 51.869 55.979 58.589 58.069
1533.538 57.199 57.419 56.069 51.429 44.489 38.019 32.839 28.039 23.299 18.609
1552.827 14.579 11.309 8.859 7.099 5.939 5.209 4.689 4.359 3.989 3.589
1572.117 3.339 3.349 3.279 3.069 2.929 2.839 2.699 2.519 2.489 2.379
1591.407 2.259 2.279 2.119 1.939 2.019 1.969 1.939 2.069 2.089 1.949
1610.697 1.919 1.999 2.039 2.009 1.959 1.939 1.939 1.929 2.029 2.249
1629.986 2.399 2.469 2.539 2.639 2.799 2.899 3.049 3.229 3.389 3.709
1649.276 3.929 4.249 4.779 5.279 5.659 5.959 6.309 6.599 6.829 6.839
1668.566 6.889 7.079 7.179 7.239 7.349 7.379 7.249 7.089 6.719 6.189
1687.856 5.769 5.549 5.319 5.239 5.549 5.989 6.629 7.489 8.289 8.969
1707.146 9.359 9.409 9.409 9.439 9.109 8.489 8.169 7.779 6.829 5.529
1726.435 4.239 3.179 2.489 2.099 1.809 1.599 1.409 1.309 1.289 1.349
1745.725 1.329 1.269 1.229 1.1271 1.1195 1.1389 1.0969 1.1201 1.269 1.289
1765.015 1.179 1.0515 1.0392 0.9712 0.8355 0.8997 0.9212 0.7795 0.714 0.8098
1784.305 0.8498 0.8375 0.7741 0.7574 0.7975 0.829 0.8126 0.7776 0.8241 0.9372
1803.594 0.9975 0.9612 0.9855 1.0308 1.1123 1.1697 1.1193 1.0548 1.0201 1.0445
1822.884 1.1088 0.9829 0.9796 1.1484 1.1814 1.1765 1.2009 1.279 1.289 1.279
1842.174 1.249 1.219 1.279 1.389 1.449 1.399 1.389 1.389 1.359 1.269
1861.464 1.1598 1.1478 1.1668 1.1178 1.0042 0.9845 0.9586 0.8624 0.8201 0.8281
1880.754 0.7713 0.7884 0.892 0.9175 0.969 1.0163 1.0396 1.0404 1.0342 1.047
1900.043 1.0971 1.0907 1.0163 0.9896 0.9068 0.8103 0.7653 0.7026 0.6201 0.5631
1919.333 0.5458 0.523 0.5227 0.4813 0.4134 0.4346 0.4806 0.5454 0.5933 0.5592
1938.623 0.6003 0.6926 0.6606 0.6396 0.7683 0.8289 0.7662 0.7094 0.6221 0.6344
1957.913 0.75 0.7662 0.6894 0.6338 0.6033 0.6116 0.6351 0.6213 0.6298 0.6794
1977.202 0.6357 0.617 0.722 0.7641 0.7632 0.7905 0.847 0.9253 1.0811 1.219
1996.492 1.239 1.279 1.249 1.209 1.2007 1.219 1.1291 1.0369 0.9436 0.7692
2015.782 0.7608 0.7669 0.7567 0.7407 0.7186 0.665 0.6594 0.7216 0.7328 0.7322
2035.072 0.7909 0.8593 0.7627 0.6768 0.6794 0.6565 0.6598 0.6692 0.7139 0.6846
2054.362 0.6886 0.7019 0.6464 0.6734 0.6669 0.5653 0.558 0.6576 0.689 0.6707
2073.651 0.664 0.6217 0.613 0.6181 0.5713 0.6359 0.6705 0.5861 0.5226 0.5454
2092.941 0.5755 0.5859 0.5954 0.5563 0.5809 0.599 0.6277 0.7406 0.7683 0.6877
2112.231 0.7654 0.8843 0.8874 0.9477 0.9834 0.9588 1.0132 1.0916 1.1489 1.1089
2131.521 1.0327 1.0413 1.0391 1.0798 1.062 1.0104 1.028 0.985 1.0152 0.9943
2150.810 0.9468 1.0179 1.0836 1.1826 1.309 1.469 1.519 1.549 1.629 1.619
2170.100 1.699 1.719 1.739 1.869 1.899 1.909 1.909 2.039 2.119 2.059
2189.390 2.089 2.119 2.129 2.109 2.129 2.189 2.159 2.039 2.019 2.029
2208.680 1.989 1.919 1.859 1.839 1.849 1.909 1.879 1.739 1.579 1.569
2227.970 1.519 1.389 1.269 1.1561 1.1219 1.0055 0.9048 0.8816 0.9058 1.0308
2247.259 1.0273 0.9027 0.8645 0.9613 0.9879 0.9351 0.8972 0.8939 1.0335 1.1182
2266.549 1.0835 1.1337 1.1627 1.1552 1.209 1.219 1.219 1.289 1.349 1.319
2285.839 1.329 1.319 1.329 1.429 1.479 1.469 1.479 1.469 1.519 1.509
2305.129 1.439 1.399 1.369 1.379 1.399 1.259 1.206 1.259 1.1327 1.1042
2324.418 1.1614 1.1247 1.0713 1.1295 1.1161 1.0404 1.0391 0.9487 0.9066 1.0269
2343.708 1.0209 0.96 0.98 1.0228 0.9616 0.9506 1.0483 1.0107 0.9854 1.0894
2362.998 1.1938 1.1297 1.1477 1.239 1.259 1.389 1.449 1.549 1.689 1.649
2382.288 1.609 1.669 1.649 1.639 1.659 1.649 1.589 1.549 1.639 1.659
2401.578 1.669 1.619 1.519 1.469 1.349 1.369 1.429 1.369 1.369 1.439
2420.867 1.509 1.609 1.599 1.609 1.649 1.639 1.639 1.529 1.379 1.439
2440.157 1.599 1.549 1.349 1.289 1.379 1.359 1.239 1.209 1.309 1.259
2459.447 1.1448 1.1277 1.1426 1.1408 1.0902 1.0607 1.1344 1.289 1.399 1.519
2478.737 1.639 1.729 1.869 1.989 1.979 1.989 2.079 2.119 2.119 2.059
2498.026 2.049 1.889 1.739 1.719 1.519 1.319 1.1976 1.2031 1.319 1.339
2517.316 1.349 1.399 1.389 1.399 1.549 1.659 1.749 1.889 2.029 2.109
2536.606 2.179 2.279 2.329 2.369 2.469 2.469 2.449 2.499 2.539 2.629
2555.896 2.529 2.479 2.499 2.469 2.509 2.409 2.359 2.389 2.349 2.329
2575.186 2.369 2.389 2.309 2.369 2.469 2.429 2.449 2.459 2.359 2.419
2594.475 2.529 2.469 2.429 2.459 2.439 2.269 2.309 2.499 2.469 2.389
2613.765 2.249 2.229 2.409 2.399 2.289 2.209 2.109 2.129 2.079 2.059
2633.055 2.159 2.269 2.309 2.309 2.449 2.509 2.429 2.459 2.679 2.899
2652.345 2.999 3.109 3.309 3.479 3.609 3.819 4.049 4.229 4.329 4.339
2671.634 4.539 4.599 4.569 4.789 4.859 4.709 4.559 4.509 4.409 4.139
2690.924 3.899 3.819 3.649 3.459 3.349 3.159 2.959 2.929 2.959 2.929
2710.214 2.979 3.099 3.129 3.139 3.319 3.429 3.559 3.859 4.119 4.219
2729.504 4.259 4.299 4.349 4.459 4.529 4.549 4.499 4.439 4.479 4.359
2748.794 4.159 4.079 4.029 3.949 3.989 4.039 4.009 3.769 3.699 3.809
2768.083 3.819 3.909 3.859 3.869 3.779 3.789 3.889 3.779 3.819 3.909
2787.373 3.949 4.079 4.119 4.239 4.409 4.419 4.459 4.619 4.709 4.699
2806.663 4.939 5.079 5.089 5.219 5.269 5.409 5.489 5.529 5.899 6.139
2825.953 6.279 6.499 6.649 6.759 6.949 7.249 7.419 7.729 8.109 8.599
2845.242 9.129 9.579 10.169 10.759 11.469 12.519 13.719 15.069 16.589 18.209
2864.532 20.139 22.159 24.239 26.539 28.759 30.789 32.669 34.429 35.909 37.119
2883.822 37.809 38.119 38.379 38.579 38.889 39.259 39.619 40.189 41.379 42.979
2903.112 44.749 46.809 49.249 51.599 53.599 55.499 57.139 58.669 60.109 61.329
2922.401 62.389 63.199 63.909 64.729 65.399 66.129 67.109 68.099 69.219 70.519
2941.691 71.639 72.799 73.959 74.969 76.229 77.839 80.089 83.129 87.239 92.729
2960.981 100.039 109.729 122.369 138.589 158.509 181.889 207.439 232.719 254.089 269.529
2980.271 279.489 285.209 286.409 280.539 268.349 253.279 233.719 207.149 175.719 143.719
2999.561 115.039 91.309 72.429 57.749 46.399 37.289 29.909 24.289 19.869 16.329
3018.850 13.769 11.699 10.039 8.789 7.779 7.059 6.559 6.089 5.459 5.069
3038.140 4.859 4.579 4.299 4.169 4.139 3.919 3.639 3.489 3.459 3.339
3057.430 3.259 3.139 3.179 3.429 3.609 3.639 3.619 3.619 3.739 4.159
3076.720 4.549 4.889 5.209 5.739 6.369 7.019 7.759 8.489 9.349 10.359
3096.009 11.549 12.749 14.069 15.629 17.419 19.579 21.799 24.169 26.629 28.759
3115.299 30.429 31.389 31.689 31.729 31.979 30.849 28.109 26.439 24.959 22.489
3134.589 19.579 16.829 14.619 12.959 11.969 11.349 10.769 10.519 10.489 9.909
3153.879 9.329 9.079 8.689 7.979 7.269 6.769 6.189 5.749 5.419 4.959
3173.169 4.519 4.159 4.009 3.799 3.549 3.409 3.219 3.119 3.009 2.979
3192.458 3.049 3.009 2.919 2.929 2.999 2.939 2.939 2.889 2.719 2.709
3211.748 2.689 2.669 2.809 2.649 2.479 2.559 2.609 2.679 2.709 2.729
3231.038 2.629 2.569 2.499 2.609 2.689 2.479 2.499 2.599 2.679 2.599
3250.328 2.469 2.469 2.349 2.229 2.129 1.959 1.929 1.849 1.759 1.799
3269.617 1.679 1.519 1.569 1.619 1.619 1.569 1.549 1.619 1.649 1.609
3288.907 1.399 1.259 1.359 1.459 1.449 1.699 1.809 1.579 1.589 1.769
3308.197 1.879 1.979 2.019 1.989 1.939 1.929 1.889 1.909 1.999 2.099
3327.487 1.949 1.689 1.629 1.559 1.509 1.389 1.359 1.389 1.369 1.249
3346.777 1.12 1.0114 1.0425 0.9419 0.9063 1.1424 1.1938 1.1473 0.9074 0.8007
3366.066 0.9117 0.6321 0.3278 0.27663 0.3116 0.5056 0.5657 0.5706 0.637 0.6169
3385.356 0.6087 0.5465 0.5487 0.5324 0.4251 0.5733 0.7728 0.8303 0.6933 0.6043
3404.646 0.6821 0.6122 0.5592 0.6893 0.8799 0.9199 0.8364 0.9129 0.9013 0.815
3423.936 0.816 0.8123 0.9454 0.9845 0.9656 1.0153 0.9787 0.8989 0.9543 0.9783
3443.225 0.9409 1.0335 0.9177 0.8359 0.8629 0.8194 0.6741 0.6139 0.6877 0.5676
3462.515 0.5303 0.6681 0.7751 0.6313 0.4537 0.3251 0.3545 0.3477 0.3909 0.5144
3481.805 0.4687 0.30567 0.3357 0.4115 0.23483 0.28356 0.468 0.4531 0.3365 0.3254
3501.095 0.4112 0.5378 0.3771 0.399 0.351 0.26305 0.4052 0.3561 0.4253 0.384
3520.385 0.3695 0.3954 0.27738 0.24715 0.1802 0.20462 0.1252 0.1308 0.30195 0.3645
3539.674 0.5033 0.5012 0.3819 0.3252 0.365 0.3992 0.4455 0.6088 0.6056 0.6111
3558.964 0.5481 0.3498 0.5813 0.7018 0.4515 0.4217 0.4552 0.5683 0.7061 0.6493
3578.254 0.5925 0.548 0.5157 0.5754 0.623 0.3542 0.1645 0.28902 0.25041 0.3363
3597.544 0.4333 0.4277 0.3111 0.23999 0.2449 0.032 0.1604 0.3424 0.3797 0.3897
3616.833 0.3538 0.435 0.4366 0.3746 0.3194 0.3998 0.3877 0.24481 0.3472 0.3986
3636.123 0.3448 0.334 0.3345 0.28916 0.3378 0.4115 0.2616 0.1853 0.28933 0.4122
3655.413 0.3903 0.3993 0.26421 0.1099 0.23595 0.25449 0.26137 0.2343 0.1216 0.052
3674.703 0.005 0 0.1926 0.3833 0.3823 0.3097 0.22229 0.24972 0.22298 0.087
3693.993 0.147 0.3487 0.26731 0.1595 0.1603 0.1604 0.24485 0.29479 0.3794 0.3207
3713.282 0.28751 0.5574 0.7154 0.6608 0.7118 0.5142 0.24026 0.3248 0.4095 0.4166
3732.572 0.5071 0.4648 0.314 0.30551 0.4096 0.4481 0.4973 0.5168 0.4787 0.5314
3751.862 0.4823 0.433 0.4313 0.7009 0.7905 0.5179 0.4454 0.4116 0.3873 0.3966
3771.152 0.5406 0.653 0.4912 0.5061 0.5659 0.6298 0.6487 0.6616 0.6736 0.5238
3790.441 0.5356 0.4725 0.27299 0.30091 0.4462 0.607 0.8296 0.7753 0.5934 0.548
3809.731 0.5663 0.6524 0.7698 0.7518 0.7189 0.6792 0.6358 0.7473 0.954 0.8348
3829.021 0.6604 0.7049 0.5739 0.6976 0.7733 0.6806 0.8443 0.7506 0.6837 0.9031
3848.311 0.9115 0.6881 0.6303 0.7846 0.6961 0.6194 0.7606 0.6857 0.64 0.6599
3867.601 0.648 0.7053 0.693 0.6828 0.5785 0.7386 0.8906 0.7765 0.8368 0.8836
3886.890 0.9115 1.0747 1.0318 0.982 1.0248 0.9466 1.1275 1.0857 0.9569 1.0875
3906.180 1.0878 1.0991 0.9845 0.8875 0.9872 1.035 0.9898 1.0939 1.1244 1.0652
3925.470 1.1262 0.9439 0.7619 0.8318 0.9689 1.1172 1.1395 0.9737 0.9517 1.209
3944.760 1.1244 1.0659 1.309 1.329 1.379 1.499 1.409 1.479 1.709 1.859
3964.049 2.229 2.439 2.599 3.089 3.649 3.909 3.999 4.089 4.139 4.219
3983.339 4.459 4.319 4.039 4.039 3.919 3.689 3.459 3.259 3.259 3.089
##END=
