##TITLE=2,6-Bis(trifluoromethyl)benzoic acid
##JCAMP-DX=4.24
##DATA TYPE=INFRARED SPECTRUM
##ORIGIN=EPA-IR VAPOR PHASE LIBRARY
##OWNER=SRD/NIST
Collection (C) 2018 copyright by the U.S. Secretary of Commerce
on behalf of the United States of America. All rights reserved.
##CAS REGISTRY NO=24821-22-5
##MOLFORM=C 9 H 4 F 6 O 2
##$NIST SOURCE=MSDC-IR
##STATE=gas
##XUNITS=1/CM
##YUNITS=ABSORBANCE
##XFACTOR=1.
##YFACTOR=0.001
##DELTAX=1.92898
##FIRSTX=549.8
##LASTX=4000.7
##FIRSTY=44.129
##MAXX=4000.7
##MINX=549.759
##MAXY=0.643229
##MINY=0
##NPOINTS=1790
##XYDATA=(X++(Y..Y))
549.759 44.129 42.339 39.959 36.579 33.109 30.269 27.469 24.969 22.559 20.479
569.049 18.949 17.629 16.499 15.449 14.819 14.909 14.419 14.149 14.629 14.629
588.339 14.559 14.799 16.359 18.009 19.849 22.169 23.589 24.629 25.159 24.729
607.628 22.909 20.769 18.149 15.259 13.119 11.079 9.419 8.839 9.049 9.169
626.918 9.649 11.229 14.459 19.469 25.919 33.809 41.869 47.509 49.779 49.249
646.208 45.259 37.949 29.539 21.779 15.699 11.649 9.299 8.389 8.189 8.579
665.498 10.069 13.629 20.199 33.669 58.329 89.809 111.919 122.589 127.319 120.289
684.787 103.969 75.309 44.139 24.439 14.889 10.759 8.959 7.719 6.839 6.589
704.077 6.279 5.909 5.609 5.679 5.969 6.269 6.189 6.189 6.639 7.349
723.367 8.789 11.049 13.829 17.499 21.829 26.149 29.619 31.949 33.509 34.469
742.657 33.949 32.699 32.579 33.979 36.599 40.369 44.469 48.229 51.729 54.289
761.947 55.059 53.569 50.339 46.379 41.119 35.399 30.509 25.979 21.709 18.449
781.236 16.549 15.279 14.269 13.449 12.759 11.929 10.699 9.589 8.939 8.239
800.526 7.919 8.729 9.829 11.469 14.139 17.489 20.939 23.829 27.339 30.069
819.816 29.839 27.079 23.349 20.299 17.249 14.219 11.669 9.829 9.069 9.089
839.106 10.069 11.549 12.519 12.549 12.309 11.599 9.999 7.869 5.789 4.079
858.395 3.219 3.119 3.059 2.759 2.329 2.199 2.299 2.479 2.479 2.469
877.685 2.639 2.609 2.419 2.459 2.679 2.729 2.439 2.539 2.749 2.369
896.975 2.249 2.419 2.349 2.519 2.579 2.399 2.349 2.449 2.709 2.729
916.265 2.529 2.639 2.819 2.769 2.809 2.739 2.699 2.919 2.929 2.909
935.555 2.879 2.749 2.909 3.199 3.349 3.559 3.739 3.709 3.739 3.919
954.844 4.449 4.969 5.069 5.079 5.339 5.399 5.249 5.279 5.419 5.589
974.134 5.669 5.959 6.449 6.659 6.719 7.189 7.239 6.899 6.359 5.579
993.424 5.409 5.339 5.249 5.329 5.239 5.249 5.559 5.949 5.869 5.679
1012.714 6.089 6.379 6.169 6.119 6.129 6.339 6.529 6.859 7.769 8.739
1032.003 9.769 10.869 12.269 13.869 15.909 18.399 22.199 26.929 32.449 38.349
1051.293 43.389 48.459 52.869 55.619 57.499 58.519 59.659 62.129 65.589 70.479
1070.583 74.899 77.009 76.919 74.289 68.819 60.179 50.879 42.679 35.959 31.629
1089.873 29.279 29.319 30.059 31.079 34.629 39.879 45.599 52.959 60.449 67.229
1109.163 74.629 80.239 82.899 82.939 79.979 76.229 72.859 71.289 71.059 72.029
1128.452 75.869 83.059 92.979 105.869 122.929 144.339 169.549 196.699 226.309 258.069
1147.742 291.509 328.899 371.429 419.999 473.089 526.689 573.669 608.919 631.859 642.389
1167.032 643.229 639.189 638.139 640.179 637.899 631.679 614.999 588.089 553.459 511.849
1186.322 470.049 433.239 405.709 385.269 373.069 376.179 400.189 446.809 501.159 534.719
1205.611 535.989 510.299 458.859 384.169 295.829 212.369 152.489 114.469 90.279 74.419
1224.901 62.519 53.349 46.439 42.059 38.049 34.379 32.389 31.069 29.479 28.469
1244.191 27.939 27.939 28.359 28.839 29.529 30.499 31.849 33.289 35.009 36.989
1263.481 39.509 42.689 46.859 52.539 60.359 70.899 84.279 100.849 120.849 144.139
1282.771 172.109 206.769 249.929 304.389 368.819 434.979 489.209 518.859 516.519 481.749
1302.060 418.029 333.019 242.059 165.149 114.389 86.809 72.859 66.039 63.569 64.199
1321.350 67.809 74.769 85.209 99.509 118.089 140.829 166.289 191.779 213.289 227.099
1340.640 231.879 228.389 217.249 198.549 174.679 149.979 128.089 110.149 95.579 83.709
1359.930 73.759 65.079 57.469 50.929 45.109 40.059 35.689 31.919 28.789 26.019
1379.219 23.589 21.379 19.299 17.389 15.529 13.939 12.539 11.339 10.359 9.459
1398.509 8.839 8.219 7.559 7.089 6.829 6.729 6.639 6.619 6.619 6.709
1417.799 6.689 6.599 6.469 6.319 6.189 5.929 5.739 5.549 5.449 5.479
1437.089 5.469 5.349 5.349 5.379 5.459 5.669 5.839 6.089 6.429 6.869
1456.378 7.459 8.209 9.079 10.169 11.269 12.409 13.249 13.359 12.919 11.949
1475.668 10.659 9.309 7.899 6.579 5.659 5.179 4.989 4.849 4.779 4.729
1494.958 4.569 4.479 4.429 4.369 4.269 4.209 4.259 4.329 4.289 4.159
1514.248 4.109 4.119 3.999 3.879 3.879 3.629 3.519 3.649 3.639 3.469
1533.538 3.369 3.509 3.509 3.379 3.459 3.659 3.689 3.669 3.679 3.559
1552.827 3.599 3.629 3.539 3.539 3.619 3.979 4.359 4.869 5.629 6.479
1572.117 7.549 8.889 10.629 12.789 15.369 18.159 20.959 23.609 25.509 26.429
1591.407 26.319 25.149 22.919 20.109 17.429 15.269 13.639 12.459 11.599 10.639
1610.697 9.809 9.129 8.649 8.309 7.809 7.379 7.019 6.609 6.189 5.799
1629.986 5.369 5.039 4.869 4.819 4.769 4.599 4.569 4.479 4.149 3.879
1649.276 3.639 3.459 3.289 3.149 3.079 2.969 2.999 2.959 2.829 2.819
1668.566 2.759 2.859 3.039 3.229 3.429 3.599 3.889 4.229 4.569 5.039
1687.856 5.519 5.859 6.139 6.379 6.479 6.429 6.319 6.159 5.839 5.569
1707.146 5.389 5.249 5.269 5.269 5.419 5.809 6.229 6.649 7.129 7.599
1726.435 8.259 9.209 10.139 10.969 11.799 12.559 13.259 14.049 14.779 15.359
1745.725 15.759 16.049 16.499 17.219 18.059 19.239 21.239 23.849 27.629 33.099
1765.015 40.879 52.299 69.159 92.689 125.329 166.039 212.839 262.469 310.259 349.809
1784.305 369.869 359.289 320.169 269.479 216.889 165.749 121.019 85.849 61.629 46.479
1803.594 37.479 32.059 28.509 25.669 23.029 20.559 18.429 16.569 15.069 13.829
1822.884 12.899 12.319 11.979 11.749 11.529 11.369 11.079 10.719 10.229 9.569
1842.174 8.969 8.329 7.729 7.179 6.769 6.569 6.349 6.129 5.939 5.759
1861.464 5.679 5.559 5.389 5.279 5.099 4.829 4.619 4.479 4.399 4.249
1880.754 4.099 3.989 3.829 3.659 3.659 3.759 3.879 4.099 4.239 4.339
1900.043 4.499 4.699 4.929 5.249 5.579 5.779 5.929 5.909 5.719 5.429
1919.333 5.039 4.649 4.379 4.139 3.949 3.819 3.589 3.359 3.179 2.949
1938.623 2.739 2.559 2.509 2.479 2.349 2.339 2.459 2.519 2.639 2.839
1957.913 3.029 3.269 3.559 3.769 3.799 3.799 3.659 3.389 3.089 2.719
1977.202 2.439 2.159 2.079 2.079 1.909 1.799 1.819 1.779 1.779 1.849
1996.492 1.759 1.629 1.529 1.519 1.549 1.509 1.509 1.529 1.639 1.659
2015.782 1.619 1.639 1.539 1.619 1.649 1.549 1.589 1.539 1.519 1.539
2035.072 1.509 1.4008 1.3523 1.4178 1.3319 1.1758 1.1217 1.1451 1.149 1.0646
2054.362 1.0308 1.0933 1.0995 1.1002 1.1969 1.2666 1.2398 1.1973 1.23 1.2269
2073.651 1.1184 1.1516 1.2777 1.3367 1.2848 1.1614 1.1756 1.0834 0.9141 0.9213
2092.941 0.9809 0.9725 0.9264 0.9546 1.0047 1.02 0.9876 0.9746 1.1623 1.2233
2112.231 1.1162 1.1438 1.1755 1.1236 0.9711 0.9938 1.0536 0.96 0.8319 0.8269
2131.521 0.9668 0.8804 0.8774 1.0054 0.9026 1.0098 1.1718 1.1461 1.2748 1.3706
2150.810 1.3038 1.3956 1.589 1.739 1.789 1.779 1.899 1.959 2.039 2.209
2170.100 2.179 2.139 2.219 2.309 2.309 2.279 2.319 2.279 2.289 2.149
2189.390 2.029 1.989 1.779 1.489 1.3377 1.3011 1.2889 1.4218 1.459 1.449
2208.680 1.569 1.639 1.819 1.939 1.859 2.049 2.249 2.319 2.309 2.229
2227.970 2.339 2.369 2.229 2.179 2.119 1.929 1.859 1.849 1.909 1.969
2247.259 1.869 1.889 1.949 1.969 1.999 2.069 2.109 2.159 2.179 2.259
2266.549 2.339 2.459 2.489 2.479 2.579 2.739 2.909 2.929 3.029 3.249
2285.839 3.349 3.219 3.279 3.339 3.209 3.239 3.269 3.259 3.259 3.189
2305.129 3.129 3.069 2.959 2.979 3.049 3.009 2.979 2.959 2.929 2.899
2324.418 2.819 2.859 2.779 2.679 2.739 2.769 2.719 2.689 2.729 2.759
2343.708 2.629 2.549 2.569 2.629 2.729 2.719 2.729 2.839 2.849 2.899
2362.998 2.929 2.879 2.789 2.649 2.489 2.379 2.359 2.389 2.329 2.169
2382.288 2.159 2.089 2.079 2.079 2.059 2.089 1.989 1.959 2.009 1.989
2401.578 1.929 1.989 1.999 1.999 1.889 1.769 1.669 1.629 1.649 1.629
2420.867 1.519 1.2987 1.2126 1.1822 1.1803 1.1689 1.1273 1.2107 1.2969 1.3331
2440.157 1.3015 1.2567 1.3289 1.3851 1.489 1.529 1.509 1.589 1.659 1.589
2459.447 1.519 1.539 1.479 1.439 1.3838 1.4069 1.4116 1.1785 1.1759 1.2831
2478.737 1.2339 1.1944 1.0997 1.0606 1.0907 1.1499 1.1726 1.2247 1.277 1.3268
2498.026 1.3843 1.449 1.469 1.459 1.4305 1.4083 1.549 1.549 1.449 1.3936
2517.316 1.4069 1.3499 1.3454 1.3311 1.2927 1.3346 1.3006 1.277 1.3079 1.2742
2536.606 1.1721 1.04 1.0408 1.1031 1.1598 1.1877 1.0561 1.0099 0.9706 0.9294
2555.896 0.9672 0.9044 0.8856 0.9568 0.8598 0.8856 1.024 1.07 1.0275 0.8819
2575.186 0.7909 0.8775 0.9026 0.7845 0.6822 0.6263 0.6536 0.7055 0.6952 0.6794
2594.475 0.7243 0.7293 0.6385 0.6223 0.665 0.629 0.7373 0.8316 0.945 1.1016
2613.765 1.0849 1.0303 1.077 1.2018 1.3299 1.3662 1.3733 1.4287 1.499 1.4298
2633.055 1.4012 1.3766 1.3533 1.3235 1.2765 1.2278 1.1762 1.1212 0.9169 0.8758
2652.345 0.8685 0.7514 0.6849 0.8032 0.9265 0.7379 0.5906 0.6119 0.5563 0.674
2671.634 0.7982 0.7418 0.6414 0.6354 0.687 0.5445 0.46806 0.46479 0.3515 0.4188
2690.924 0.51325 0.3521 0.351 0.51674 0.6118 0.49092 0.286 0.3716 0.3445 0.4174
2710.214 0.5549 0.50751 0.51268 0.4106 0.3851 0.45778 0.48997 0.5155 0.52649 0.5522
2729.504 0.53754 0.47105 0.49843 0.6428 0.6613 0.5674 0.5544 0.53142 0.52338 0.6301
2748.794 0.6931 0.6326 0.53603 0.6295 0.8195 0.7672 0.7245 0.7799 0.6989 0.5739
2768.083 0.6312 0.8971 0.9619 0.7422 0.7073 0.888 0.9006 0.8152 0.7509 0.7807
2787.373 0.6797 0.6275 0.7627 0.8307 0.6821 0.5688 0.7402 0.8754 0.9436 0.7971
2806.663 0.6526 0.8071 0.9622 0.9207 0.8572 0.9652 0.9389 0.7184 0.5576 0.6016
2825.953 0.7287 0.7111 0.8357 0.9723 0.9285 0.8792 0.8103 0.8783 1.0022 0.7901
2845.242 0.5859 0.6732 0.8397 0.886 0.7932 0.754 0.7635 0.7208 0.6296 0.6502
2864.532 0.6694 0.66 0.5887 0.603 0.7699 0.7283 0.7974 0.9387 0.819 0.7124
2883.822 0.7694 0.826 0.9097 1.1537 1.271 1.2536 1.3356 1.378 1.2331 1.142
2903.112 1.1923 1.1597 1.156 1.2358 1.1972 1.1158 1.1176 1.2062 1.1973 1.0366
2922.401 1.108 1.2198 1.3325 1.449 1.4258 1.449 1.499 1.3865 1.2667 1.2736
2941.691 1.2441 1.308 1.2179 1.0546 1.1691 1.1596 1.0106 0.9177 0.849 0.9599
2960.981 1.0255 1.0095 1.0763 1.0957 1.1839 0.9923 0.8517 0.9002 0.9324 0.9101
2980.271 0.7363 0.6124 0.6639 0.8446 0.9072 0.8725 0.9041 0.827 0.6327 0.7593
2999.561 0.8011 0.8493 0.847 0.7129 0.8471 0.9742 0.9919 1.1443 1.2298 1.1941
3018.850 1.1709 1.1583 1.3197 1.4302 1.4017 1.3837 1.3909 1.3599 1.3522 1.3941
3038.140 1.3433 1.1088 0.9899 1.1745 1.1473 1.0396 1.1947 1.2462 1.017 1.0219
3057.430 1.2264 1.1282 1.2352 1.4109 1.3701 1.4318 1.539 1.519 1.679 1.989
3076.720 2.069 2.249 2.749 3.069 3.289 3.709 4.339 4.799 4.829 4.699
3096.009 4.529 4.319 3.869 3.319 2.679 2.149 1.749 1.3828 1.2064 1.0922
3115.299 0.9976 0.908 0.6873 0.672 0.6667 0.6198 0.6808 0.5469 0.5799 0.8619
3134.589 0.8059 0.52894 0.618 0.7203 0.6565 0.46798 0.50441 0.6665 0.5975 0.666
3153.879 0.6424 0.5479 0.52397 0.442043 0.5481 0.5678 0.47927 0.5451 0.53448 0.596
3173.169 0.7099 0.6436 0.7265 0.6161 0.5488 0.7822 0.676 0.6361 0.6632 0.6805
3192.458 0.7755 0.7379 0.7733 0.8609 0.706 0.6609 0.824 0.8433 0.7888 0.6567
3211.748 0.6249 0.47118 0.3539 0.333 0.312 0.54 0.6267 0.5914 0.34 0.157
3231.038 0.312 0.4174 0.53749 0.6244 0.5518 0.5425 0.6062 0.6155 0.43748 0.3865
3250.328 0.48643 0.289 0.265 0.276 0.158 0.271 0.191 0.215 0.399 0.324
3269.617 0.265 0.4054 0.6031 0.46977 0.4047 0.43577 0.264 0.263 0.3445 0.307
3288.907 0.213 0.138 0.192 0.322 0.304 0.26 0.201 0.234 0.225 0.207
3308.197 0.3997 0.3958 0.3543 0.3709 0.344 0.3455 0.252 0.254 0.3527 0.3679
3327.487 0.49045 0.5756 0.439061 0.256 0.176 0.288 0.427 0.4269 0.292 0.235
3346.777 0.3938 0.43571 0.201 0.034 0.162 0.51433 0.48158 0.279 0.4245 0.5394
3366.066 0.3855 0.142 0.132 0.088 0.186 0.4176 0.4076 0.3423 0.46236 0.6137
3385.356 0.5396 0.47917 0.51017 0.50145 0.7087 0.7951 0.7337 0.9793 0.9929 0.6547
3404.646 0.8012 0.9724 0.7781 0.7731 0.6897 0.6428 0.7448 0.6098 0.45228 0.5588
3423.936 0.5486 0.5467 0.7864 0.7395 0.562 0.46902 0.46112 0.373 0.3791 0.45474
3443.225 0.52427 0.8758 0.9156 0.8485 0.7276 0.7062 0.7902 0.6174 0.6003 0.47605
3462.515 0.3922 0.4243 0.51014 0.661 0.6135 0.6001 0.6271 0.8677 1.0712 1.0335
3481.805 0.8904 0.8363 0.7492 0.6787 0.8176 0.8231 0.6602 0.6335 0.7359 0.9123
3501.095 0.9461 0.9233 1.1665 1.1361 1.1999 1.2449 1.2664 1.529 1.639 1.599
3520.385 1.509 1.539 1.749 1.849 1.709 1.969 2.619 3.159 3.659 4.439
3539.674 5.349 6.669 8.579 11.239 14.869 20.029 28.109 40.119 56.619 77.819
3558.964 101.289 121.709 133.569 135.409 131.439 121.969 102.589 77.149 53.489 35.109
3578.254 22.539 14.659 9.879 7.109 5.639 4.449 3.639 3.349 3.189 2.899
3597.544 2.499 2.449 2.309 2.229 2.429 2.429 2.389 2.439 2.469 2.559
3616.833 2.859 3.329 3.329 3.069 2.789 2.459 2.249 2.029 1.909 1.729
3636.123 1.3602 1.1975 1.0865 0.9628 0.8441 0.6358 0.5979 0.6911 0.5887 0.646
3655.413 0.6488 0.5479 0.5475 0.6292 0.6968 0.6725 0.7235 0.5531 0.45155 0.5109
3674.703 0.45576 0.7035 0.8698 0.7672 0.8162 0.5582 0.346 0.374 0.46849 0.5742
3693.993 0.46571 0.51092 0.6864 0.9001 1.0266 0.8398 0.8513 0.8571 0.6385 0.748
3713.282 0.827 0.4631 0.4207 0.6318 0.8393 0.8727 0.675 0.5695 0.708 0.7922
3732.572 0.7717 0.9218 0.9349 0.8107 0.5946 0.6545 0.7175 0.5594 0.5463 0.6247
3751.862 0.7321 0.6754 0.6291 0.5712 0.50417 0.4226 0.5632 0.7521 0.6592 0.444471
3771.152 0.17 0.049 0.136 0.313 0.335 0.313 0.3547 0.292 0.3402 0.48305
3790.441 0.3803 0.44303 0.329 0.028 0.267 0.508 0.4185 0.4136 0.51813 0.5834
3809.731 0.5736 0.389 0.276 0.51345 0.47124 0.266 0.29 0.245 0.45367 0.6884
3829.021 0.53549 0.311 0.334 0.5591 0.5688 0.3853 0.3496 0.3865 0.47227 0.6705
3848.311 0.6609 0.5793 0.43223 0.293 0.299 0.27 0.3818 0.49088 0.47675 0.52355
3867.601 0.5779 0.52876 0.3565 0.48137 0.7916 0.6089 0.325 0.4927 0.6431 0.5511
3886.890 0.50766 0.5622 0.7238 0.7572 0.53416 0.7133 0.8159 0.443422 0.208 0.21
3906.180 0.297 0.261 0.269 0.216 0.226 0.4147 0.4159 0.5197 0.5731 0.43591
3925.470 0.42988 0.308 0.306 0.278 0.22 0.175 0 0.034 0.23 0.213
3944.760 0.47175 0.7312 0.5582 0.43127 0.45972 0.573 0.8331 0.854 0.5949 0.572
3964.049 0.4032 0.266 0.176 0.198 0.43287 0.47275 0.377 0.263 0.448963 0.49882
3983.339 0.113 0.031 0.325 0.49194 0.48578 0.6932 0.6896 0.316 0.3634 0.5582
##END=
