##TITLE=4-Amino-3-methylbenzoic acid
##JCAMP-DX=4.24
##DATA TYPE=INFRARED SPECTRUM
##ORIGIN=NIST Mass Spectrometry Data Center
##OWNER=NIST Standard Reference Data Program
Collection (C) 2018 copyright by the U.S. Secretary of Commerce
on behalf of the United States of America. All rights reserved.
##CAS REGISTRY NO=2486-70-6
##MOLFORM=C 8 H 9 N O 2
##$NIST SOURCE=MSDC-IR
##SPECTROMETER/DATA SYSTEM=HP-GC/MS/IRD
##STATE=gas
##XUNITS=1/CM
##YUNITS=ABSORBANCE
##XFACTOR=1.0
##YFACTOR=0.000001800
##DELTAX=4.0
##FIRSTX=550.0
##LASTX=3846.0
##FIRSTY=0.000581
##MAXX=3846
##MINX=550
##MAXY=0.018
##MINY=0
##NPOINTS=825
##XYDATA=(X++(Y..Y))
550.0 323 517 444 532 632 749 836 926 939 846
590.0 756 694 659 774 1078 1431 1636 1588 1302 862
630.0 424 237 187 125 92 105 145 136 139 173
670.0 200 230 249 271 290 315 357 429 546 739
710.0 969 1134 1176 1115 897 654 518 456 454 517
750.0 629 793 968 1139 1277 1253 1114 931 720 564
790.0 438 324 243 190 201 232 226 257 301 307
830.0 271 212 179 110 61 45 33 13 5 9
870.0 1 7 19 30 51 79 118 156 207 264
910.0 274 262 217 147 107 72 40 24 14 10
950.0 27 46 51 55 78 83 74 121 202 259
990.0 301 331 305 257 208 159 147 138 136 157
1030.0 184 239 287 356 497 659 839 1023 1182 1354
1070.0 1568 1844 2138 2415 2648 2654 2396 2030 1581 1171
1110.0 964 937 1035 1264 1631 2165 2813 3535 4181 4504
1150.0 4484 4277 3913 3388 2861 2370 1711 1035 588 332
1190.0 220 216 279 415 568 668 713 699 602 475
1230.0 385 320 264 210 193 221 292 406 540 713
1270.0 972 1358 1888 2503 3008 3160 2920 2380 1699 1178
1310.0 971 960 1069 1265 1475 1625 1683 1648 1557 1485
1350.0 1501 1628 1805 1882 1740 1450 1048 644 394 279
1390.0 221 176 156 168 196 247 314 371 405 402
1430.0 364 298 241 220 214 224 248 289 318 320
1470.0 311 303 296 309 368 491 686 963 1238 1370
1510.0 1330 1134 809 502 325 238 188 153 134 140
1550.0 154 162 192 263 361 494 660 809 893 919
1590.0 926 967 1084 1309 1608 1972 2412 2943 3431 3691
1630.0 3600 3129 2428 1723 1167 786 544 402 316 270
1670.0 245 236 243 259 285 332 371 385 408 442
1710.0 474 522 594 732 1009 1511 2427 4048 6453 8723
1750.0 9830 10000 8825 6093 3508 1976 1147 706 483 366
1790.0 295 267 273 294 325 334 305 253 201 149
1830.0 102 68 40 25 15 12 19 21 19 24
1870.0 27 25 25 43 55 54 56 61 64 57
1910.0 54 52 45 43 48 45 41 37 26 21
1950.0 17 15 14 9 0 7 9 3 15 28
1990.0 27 29 30 24 23 26 20 20 21 17
2030.0 17 19 22 27 30 31 32 31 35 41
2070.0 36 25 18 14 11 13 18 14 11 18
2110.0 9 0 3 14 18 11 9 12 10 6
2150.0 7 14 11 5 7 12 11 14 16 19
2190.0 18 11 18 27 23 21 21 12 10 12
2230.0 13 20 24 18 23 23 14 11 9 12
2270.0 19 24 14 7 10 15 16 21 23 18
2310.0 12 14 17 20 20 14 15 18 26 30
2350.0 35 34 20 28 30 29 37 33 31 33
2390.0 28 24 18 12 18 23 18 24 32 24
2430.0 20 19 20 23 17 15 14 15 16 13
2470.0 1 2 7 13 15 13 14 16 23 25
2510.0 24 15 18 26 28 32 34 33 28 19
2550.0 23 23 25 33 27 33 39 39 34 31
2590.0 32 29 38 53 53 47 51 62 65 66
2630.0 69 85 85 84 89 88 76 67 73 54
2670.0 48 48 47 46 35 35 42 51 59 64
2710.0 67 67 66 61 62 67 71 85 85 78
2750.0 83 86 75 62 62 64 67 58 47 51
2790.0 67 74 79 85 85 78 79 86 93 109
2830.0 118 116 119 139 152 152 164 196 232 265
2870.0 308 336 344 336 331 329 323 331 348 363
2910.0 386 417 442 473 505 511 496 478 446 411
2950.0 372 311 257 255 253 237 245 280 305 305
2990.0 300 278 262 241 223 225 222 228 251 282
3030.0 325 345 344 332 302 280 251 224 215 215
3070.0 206 182 186 185 165 153 137 128 131 125
3110.0 116 105 88 91 96 90 68 54 53 57
3150.0 58 63 79 69 52 56 64 76 73 60
3190.0 58 70 77 67 62 63 66 82 104 105
3230.0 83 71 66 57 55 63 50 47 52 44
3270.0 48 58 58 47 27 21 31 39 32 24
3310.0 16 9 15 16 42 49 41 38 28 39
3350.0 34 24 42 48 49 46 30 33 52 64
3390.0 70 84 130 193 255 345 425 471 503 487
3430.0 422 341 280 227 164 115 101 93 72 75
3470.0 85 102 120 136 194 244 260 278 299 320
3510.0 312 284 262 241 210 181 152 107 76 90
3550.0 107 91 106 158 250 487 998 1798 2483 2671
3590.0 2467 1853 974 380 153 97 75 32 23 32
3630.0 35 49 41 26 30 23 17 25 20 12
3670.0 8 24 40 24 3 9 38 33 7 15
3710.0 25 18 15 21 28 39 48 22 11 33
3750.0 38 65 73 63 46 27 58 65 59 50
3790.0 43 47 39 36 50 71 68 66 42 23
3830.0 40 53 70 84 78
##END=
