##TITLE=1-Allylnaphthalene
##JCAMP-DX=4.24
##DATA TYPE=INFRARED SPECTRUM
##ORIGIN=NIST Mass Spectrometry Data Center
##OWNER=NIST Standard Reference Data Program
Collection (C) 2018 copyright by the U.S. Secretary of Commerce
on behalf of the United States of America. All rights reserved.
##CAS REGISTRY NO=2489-86-3
##MOLFORM=C 13 H 12
##$NIST SOURCE=MSDC-IR
##SPECTROMETER/DATA SYSTEM=HP-GC/MS/IRD
##STATE=gas
##XUNITS=1/CM
##YUNITS=ABSORBANCE
##XFACTOR=1.0
##YFACTOR=0.000001400
##DELTAX=4.0
##FIRSTX=550.0
##LASTX=3846.0
##FIRSTY=0.001404
##MAXX=3846
##MINX=550
##MAXY=0.014
##MINY=0
##NPOINTS=825
##XYDATA=(X++(Y..Y))
550.0 1003 695 397 317 234 189 215 178 126 102
590.0 113 164 213 300 337 301 290 263 195 157
630.0 138 104 108 200 307 371 402 406 358 226
670.0 118 67 20 24 80 67 47 101 99 162
710.0 318 436 563 762 925 958 968 994 974 1093
750.0 1337 1734 2732 4365 6259 8655 10000 9001 7797 7207
790.0 6286 5045 3907 2846 2147 1628 1222 917 669 533
830.0 471 521 589 680 792 848 807 727 665 631
870.0 600 617 656 709 840 996 1222 1573 2037 2646
910.0 3250 3574 3529 3101 2441 1828 1404 1160 1040 965
950.0 882 866 903 925 912 927 1033 1198 1465 1791
990.0 2005 2017 1882 1650 1481 1430 1394 1294 1129 956
1030.0 800 637 502 410 327 263 251 244 228 265
1070.0 306 300 271 248 241 238 244 270 288 276
1110.0 227 182 130 74 62 67 86 81 76 96
1150.0 109 130 168 208 226 192 142 83 33 32
1190.0 73 95 87 118 176 229 255 251 238 204
1230.0 181 196 206 263 353 448 524 552 534 462
1270.0 376 303 261 263 289 302 279 247 239 220
1310.0 195 189 157 110 101 89 158 307 270 197
1350.0 204 224 312 413 354 358 472 550 712 1086
1390.0 1445 1683 1695 1442 1144 883 812 904 847 762
1430.0 814 1023 1100 987 976 889 912 840 575 430
1470.0 407 449 323 252 387 548 672 932 1267 1693
1510.0 1760 1433 1177 891 587 425 373 420 460 348
1550.0 276 348 487 379 322 430 523 598 640 757
1590.0 890 975 960 867 695 571 590 702 880 1159
1630.0 1503 1860 1960 1795 1486 1176 898 603 517 535
1670.0 568 589 599 681 661 512 526 591 513 389
1710.0 358 492 549 406 351 469 547 446 397 444
1750.0 510 446 388 374 388 422 364 330 402 453
1790.0 526 529 507 537 474 475 518 552 606 669
1830.0 671 643 607 630 612 493 412 392 356 331
1870.0 285 205 211 219 238 283 315 352 398 472
1910.0 536 569 589 563 511 490 471 434 395 311
1950.0 221 166 138 122 115 106 96 86 81 73
1990.0 90 80 61 64 50 60 83 83 73 57
2030.0 33 34 57 66 50 36 44 57 62 54
2070.0 47 55 57 44 49 64 65 57 46 46
2110.0 42 39 52 45 31 30 29 33 46 50
2150.0 29 13 33 49 49 46 49 42 39 54
2190.0 61 66 59 51 53 41 37 38 36 44
2230.0 44 48 51 54 44 40 51 41 31 43
2270.0 61 60 61 66 76 78 70 70 63 59
2310.0 70 85 87 100 122 131 124 95 83 79
2350.0 74 94 93 91 94 80 53 33 30 39
2390.0 48 49 54 57 62 73 82 90 63 40
2430.0 39 32 29 8 7 30 39 32 34 51
2470.0 44 30 29 30 28 25 29 32 28 35
2510.0 45 33 27 25 28 37 37 22 26 36
2550.0 28 35 38 23 36 35 17 27 27 19
2590.0 27 22 17 25 30 26 26 24 20 16
2630.0 11 27 38 32 21 39 48 37 32 13
2670.0 18 23 15 25 39 49 45 29 30 41
2710.0 36 42 48 37 33 33 47 51 38 44
2750.0 59 47 30 18 6 17 27 39 56 42
2790.0 39 51 51 68 88 99 123 142 160 205
2830.0 258 312 368 433 505 581 630 640 668 657
2870.0 630 610 578 566 579 647 743 893 1100 1324
2910.0 1548 1755 1903 1968 1933 1823 1675 1518 1380 1238
2950.0 1131 1055 982 946 947 1005 1142 1332 1528 1665
2990.0 1718 1731 1750 1909 2219 2535 2693 2655 2524 2388
3030.0 2417 2721 3278 4033 4857 5590 6252 6830 7133 7089
3070.0 6738 6189 5671 5353 5100 4584 3782 2895 2064 1436
3110.0 1009 697 511 390 308 271 243 215 188 171
3150.0 163 154 159 156 148 153 155 153 147 131
3190.0 100 94 107 87 68 77 84 79 75 85
3230.0 91 91 83 79 60 40 50 73 43 36
3270.0 70 61 37 26 28 51 55 57 33 26
3310.0 52 37 49 55 36 36 35 43 26 24
3350.0 33 37 29 24 33 22 14 33 31 33
3390.0 51 41 35 47 40 36 47 61 53 29
3430.0 15 18 34 38 43 39 50 63 52 50
3470.0 36 27 58 87 71 44 33 70 116 90
3510.0 70 38 27 108 131 72 69 69 98 166
3550.0 116 92 82 116 273 217 66 51 92 216
3590.0 200 111 97 73 137 206 181 204 132 159
3630.0 213 70 9 25 154 233 130 66 2 43
3670.0 166 182 125 40 77 130 76 42 25 26
3710.0 122 155 98 138 146 118 254 220 218 256
3750.0 191 99 20 32 20 7 6 6 6 6
3790.0 7 2 28 70 66 31 29 84 69 15
3830.0 0 67 137 96 22
##END=
