##TITLE=cis-2,6-Dimethyl-2,6-octadiene
##JCAMP-DX=4.24
##DATA TYPE=INFRARED SPECTRUM
##ORIGIN=NIST Mass Spectrometry Data Center
##OWNER=NIST Standard Reference Data Program
Collection (C) 2018 copyright by the U.S. Secretary of Commerce
on behalf of the United States of America. All rights reserved.
##CAS REGISTRY NO=2492-22-0
##MOLFORM=C 10 H 18
##$NIST SOURCE=MSDC-IR
##SPECTROMETER/DATA SYSTEM=HP-GC/MS/IRD
##STATE=gas
##XUNITS=1/CM
##YUNITS=ABSORBANCE
##XFACTOR=1.0
##YFACTOR=0.000002700
##DELTAX=4.0
##FIRSTX=550.0
##LASTX=3846.0
##FIRSTY=0.000408
##MAXX=3846
##MINX=550
##MAXY=0.027
##MINY=0
##NPOINTS=825
##XYDATA=(X++(Y..Y))
550.0 151 193 199 208 270 327 369 391 379 320
590.0 262 195 138 114 64 34 33 35 59 54
630.0 48 40 26 7 4 57 87 59 42 38
670.0 41 10 2 14 24 52 63 63 64 43
710.0 29 55 96 117 115 129 138 143 157 164
750.0 155 162 177 176 206 235 276 340 402 469
790.0 580 755 965 1198 1389 1486 1467 1352 1233 1114
830.0 999 888 802 695 558 450 382 351 319 297
870.0 284 270 253 240 229 211 201 214 209 197
910.0 209 202 183 184 190 183 199 226 237 263
950.0 280 296 317 332 343 340 331 325 325 337
990.0 350 352 328 305 298 284 275 295 321 326
1030.0 328 335 367 391 416 456 479 509 549 572
1070.0 594 594 573 561 549 539 553 598 660 708
1110.0 703 644 548 440 350 308 283 283 296 309
1150.0 313 295 273 248 223 212 203 206 227 242
1190.0 261 283 308 317 314 322 338 354 369 371
1230.0 358 352 335 315 309 297 278 263 258 253
1270.0 243 250 265 271 276 296 326 362 411 476
1310.0 531 548 530 492 446 420 439 497 576 665
1350.0 749 810 862 948 1098 1335 1627 1853 1908 1776
1390.0 1492 1183 942 803 726 710 740 778 838 951
1430.0 1105 1283 1486 1682 1839 1936 1952 1886 1742 1539
1470.0 1303 1082 906 768 654 571 499 452 428 403
1510.0 382 364 357 354 353 351 347 347 339 331
1550.0 325 313 297 293 283 274 277 266 258 264
1590.0 267 265 270 276 268 262 261 253 240 232
1630.0 227 218 213 212 218 232 244 272 303 312
1670.0 300 265 217 169 123 102 91 76 61 48
1710.0 43 41 34 40 41 40 42 41 39 38
1750.0 39 43 45 41 40 40 35 38 46 50
1790.0 60 66 64 62 66 73 73 81 87 85
1830.0 93 102 98 91 84 74 65 50 40 36
1870.0 40 36 33 39 37 38 35 39 36 30
1910.0 35 34 23 18 19 14 9 10 16 23
1950.0 25 21 21 23 22 18 10 11 16 9
1990.0 5 3 9 17 15 18 19 15 18 22
2030.0 18 15 21 26 20 12 10 8 11 9
2070.0 9 12 5 2 8 14 19 18 19 15
2110.0 7 4 4 3 4 16 13 3 8 15
2150.0 14 16 23 22 21 16 14 17 15 3
2190.0 2 9 4 6 10 9 0 10 16 8
2230.0 12 12 9 7 10 7 5 5 4 4
2270.0 5 3 2 5 7 8 7 6 1 0
2310.0 5 13 17 12 11 11 12 14 12 19
2350.0 15 4 10 12 14 11 6 15 18 20
2390.0 27 30 34 39 49 45 37 38 40 42
2430.0 49 50 43 43 48 50 47 43 39 46
2470.0 58 50 39 41 41 31 32 36 37 38
2510.0 30 30 32 32 37 32 28 24 31 46
2550.0 48 45 48 45 42 42 31 29 30 30
2590.0 39 42 37 29 38 46 47 45 42 44
2630.0 46 47 58 62 56 66 74 70 78 87
2670.0 87 96 104 102 105 114 130 138 137 143
2710.0 153 174 209 247 294 354 409 447 449 412
2750.0 382 352 323 313 301 307 314 317 335 360
2790.0 398 445 493 547 603 664 744 832 929 1042
2830.0 1190 1392 1650 1987 2440 3016 3732 4519 5242 5774
2870.0 6057 6094 5969 5801 5678 5663 5751 5931 6227 6682
2910.0 7301 8074 8902 9579 9958 10000 9696 9153 8527 7920
2950.0 7405 7067 6951 7073 7360 7557 7463 7062 6386 5642
2990.0 5007 4473 3998 3564 3186 2905 2713 2602 2559 2549
3030.0 2534 2491 2397 2220 1985 1750 1527 1336 1169 1032
3070.0 923 827 751 694 639 583 544 510 473 440
3110.0 406 372 334 302 263 238 224 200 183 172
3150.0 161 140 130 116 110 108 93 85 80 72
3190.0 79 82 66 61 69 67 47 44 49 52
3230.0 53 52 44 28 23 30 34 50 49 33
3270.0 35 42 35 31 29 26 27 19 16 33
3310.0 37 47 47 37 36 47 52 52 47 37
3350.0 44 39 29 29 37 53 56 34 20 32
3390.0 39 38 40 38 36 42 39 26 25 40
3430.0 43 33 32 24 32 46 29 18 23 28
3470.0 23 22 32 31 25 27 28 26 20 13
3510.0 19 17 21 23 26 26 10 20 29 17
3550.0 12 14 21 31 40 30 16 18 13 14
3590.0 11 6 25 38 26 10 0 12 31 23
3630.0 2 21 40 23 22 33 26 25 27 23
3670.0 34 27 33 46 27 22 24 38 44 29
3710.0 28 37 35 32 35 41 50 47 40 53
3750.0 45 26 7 25 32 23 39 41 46 29
3790.0 15 45 44 27 37 39 29 39 36 43
3830.0 68 53 33 54 54
##END=
