##TITLE=p-Octyloxybenzoic acid
##JCAMP-DX=4.24
##DATA TYPE=INFRARED SPECTRUM
##ORIGIN=EPA-IR VAPOR PHASE LIBRARY
##OWNER=SRD/NIST
Collection (C) 2018 copyright by the U.S. Secretary of Commerce
on behalf of the United States of America. All rights reserved.
##CAS REGISTRY NO=2493-84-7
##MOLFORM=C 15 H 22 O 3
##$NIST SOURCE=MSDC-IR
##STATE=gas
##XUNITS=1/CM
##YUNITS=ABSORBANCE
##XFACTOR=1.
##YFACTOR=0.001
##DELTAX=1.92898
##FIRSTX=549.8
##LASTX=4000.7
##FIRSTY=4.8937
##MAXX=4000.7
##MINX=549.759
##MAXY=0.107054
##MINY=0
##NPOINTS=1790
##XYDATA=(X++(Y..Y))
549.759 4.8937 4.8737 4.9437 5.2037 5.5237 5.9437 6.2537 6.5837 7.0437 7.3437
569.049 7.3837 7.3237 7.2437 6.6537 6.1437 5.9137 5.5637 5.5937 5.6937 5.9637
588.339 6.4637 6.7037 6.9237 7.0537 7.0837 7.1537 7.1837 7.2937 7.4837 7.7837
607.628 8.4837 9.5737 11.2237 12.8037 13.6437 13.6637 12.5537 10.6737 8.6237 6.7337
626.918 5.4437 4.8537 4.5637 4.2237 3.9437 3.5637 3.0037 2.5437 2.1237 1.8037
646.208 1.5437 1.3037 1.1237 1.1137 1.0268 0.9619 0.9109 0.9142 1.0323 1.0145
665.498 0.9859 0.9948 1.0837 1.2537 1.2637 1.4637 1.7737 2.0437 2.4437 2.7737
684.787 3.1837 3.7237 4.3337 5.0137 5.7137 6.1937 6.3937 6.4637 6.4837 6.4937
704.077 6.2437 5.9437 5.6437 5.4637 5.2937 4.9437 4.5237 4.1337 3.8837 3.5937
723.367 3.4037 3.2037 2.9437 2.7337 2.5237 2.3537 2.2337 2.1637 2.0937 2.0537
742.657 2.1237 2.1737 2.2937 2.5337 2.8237 3.1537 3.5137 4.0637 4.8437 5.6337
761.947 6.6537 7.9237 9.2737 10.3137 10.8137 10.8237 10.1837 9.0537 7.9637 6.8637
781.236 5.8137 5.1337 4.6237 4.2937 4.0037 3.7137 3.5337 3.2937 3.0637 3.0337
800.526 2.9937 2.7737 2.5937 2.5637 2.5537 2.4237 2.3937 2.4537 2.4037 2.3337
819.816 2.2537 2.2737 2.2937 2.3537 2.4137 2.5737 3.0337 3.5437 4.1137 4.7637
839.106 5.4937 6.2837 6.9637 7.3237 7.5637 7.4737 6.8437 6.0537 5.3237 4.5237
858.395 3.7637 3.3437 2.8937 2.3937 2.2137 2.1137 1.9737 1.7737 1.5937 1.6337
877.685 1.6037 1.5037 1.4537 1.4237 1.3737 1.3637 1.4337 1.4937 1.5737 1.6337
896.975 1.6737 1.7837 1.7337 1.7137 1.7637 1.7937 1.8837 1.9337 1.9137 1.7837
916.265 1.6437 1.5537 1.5837 1.5237 1.5837 1.6337 1.6337 1.6537 1.6237 1.6537
935.555 1.6137 1.6437 1.6737 1.7037 1.7837 1.9137 2.0537 2.2037 2.3637 2.4637
954.844 2.5637 2.7737 3.0937 3.3837 3.6237 3.7937 3.9737 4.2337 4.3637 4.4237
974.134 4.6637 4.8737 4.9737 5.1037 5.3737 5.6437 5.8837 6.0737 6.1237 6.2537
993.424 6.4637 6.5937 6.7837 7.0737 7.3037 7.8337 8.5537 9.2537 9.8937 10.3337
1012.714 10.4637 10.3437 10.4237 10.6637 11.1437 11.7437 12.0137 12.3337 12.7037 13.0137
1032.003 13.2237 13.1937 13.2037 13.1237 12.8837 12.7037 12.4437 12.1837 12.1737 12.3137
1051.293 12.5537 12.9037 13.3837 14.2337 15.4437 16.8837 18.6237 20.8737 23.5037 26.6437
1070.583 30.5837 35.0037 39.6737 43.7437 46.0237 46.2537 43.4137 37.6437 31.0137 24.7337
1089.873 19.3137 15.4637 12.7637 10.7837 9.5637 8.6437 7.7537 6.9337 6.3137 5.9537
1109.163 5.8637 5.7637 5.6137 5.5637 5.5437 5.5837 5.7037 5.6537 5.7237 5.7837
1128.452 5.7837 5.8537 6.0237 6.4837 6.9737 7.2837 7.8637 8.7737 10.0937 11.6037
1147.742 13.5937 16.8137 21.1537 27.3837 36.2537 47.8437 61.1437 72.6437 78.5337 76.7737
1167.032 67.5637 54.3137 41.4537 31.6837 25.6237 22.2537 20.6037 20.5537 21.7937 23.3837
1186.322 24.2037 24.2737 23.0937 20.6537 18.0237 15.7737 14.2137 13.0137 12.1837 11.7237
1205.611 11.4137 11.4537 11.8237 12.3037 12.9237 13.9037 14.8437 15.7637 16.9637 18.2537
1224.901 19.6837 21.4537 23.5137 25.7737 28.2137 30.9437 34.0537 37.3537 40.8237 44.5737
1244.191 48.5337 52.5037 55.8937 58.0937 58.5937 57.1037 53.7437 48.8237 43.1137 37.3837
1263.481 32.1637 27.7037 23.9637 21.1037 18.9737 17.2137 15.7037 14.6137 13.9237 13.4037
1282.771 13.1637 13.2637 13.5337 13.9737 14.7937 15.7837 16.8437 17.8937 18.8237 19.3737
1302.060 19.3637 18.8337 17.9037 16.9137 16.1637 15.8337 15.8037 15.9337 16.2337 16.6237
1321.350 17.0237 17.5337 18.0637 18.4137 18.4937 18.0937 17.0837 15.6637 14.1137 12.6837
1340.640 11.6137 10.9537 10.6337 10.6437 11.0237 11.8237 13.0337 14.6337 16.6837 19.0937
1359.930 21.4937 23.2037 23.5737 22.4037 19.9237 16.8137 13.8537 11.5237 9.8337 8.6737
1379.219 7.9237 7.4437 7.1937 7.0337 6.8137 6.5137 6.0737 5.5537 5.0537 4.6037
1398.509 4.2437 4.0237 3.9537 3.9637 4.0837 4.3637 4.7137 5.1237 5.5837 5.9637
1417.799 6.2037 6.1637 5.8637 5.4037 4.8437 4.3437 3.9437 3.6837 3.6137 3.6137
1437.089 3.6337 3.7437 3.8837 4.0137 4.1937 4.3837 4.6137 4.9137 5.2437 5.5637
1456.378 5.7937 6.0937 6.4337 6.7637 7.1337 7.6337 8.2937 8.9737 9.4237 9.4937
1475.668 9.1237 8.3637 7.3937 6.4537 5.7137 5.2937 5.1537 5.2437 5.6337 6.2837
1494.958 7.2437 8.6737 10.6537 13.2437 16.5137 20.1437 23.6437 26.1237 26.5837 24.7437
1514.248 21.1137 16.7737 12.7637 9.7237 7.5137 6.0137 4.9237 4.1437 3.5837 3.1937
1533.538 2.9837 2.7737 2.6337 2.6037 2.6237 2.6537 2.6137 2.5937 2.6637 2.7437
1552.827 2.8337 2.9637 3.1137 3.3137 3.5837 3.9137 4.3337 4.8237 5.4037 6.0537
1572.117 6.7137 7.3637 8.1037 8.8437 9.5137 10.1737 10.8037 11.5237 12.4637 13.7637
1591.407 15.6537 18.2637 21.5937 25.5837 30.0937 34.8037 39.1037 42.0537 42.7537 40.8237
1610.697 36.5537 30.8137 24.9737 19.8337 15.7737 12.7537 10.3837 8.5337 6.9937 5.8037
1629.986 4.9237 4.1937 3.6137 3.1937 2.8937 2.6337 2.4237 2.2937 2.2137 2.1237
1649.276 2.0337 1.9737 1.8837 1.8837 1.8737 1.7837 1.7437 1.7137 1.6637 1.6137
1668.566 1.5737 1.6037 1.6337 1.7037 1.7637 1.7837 1.8337 1.9337 2.0337 2.1837
1687.856 2.2937 2.3837 2.5137 2.6037 2.6537 2.7337 2.8137 2.8937 2.9537 3.1337
1707.146 3.4337 3.7337 4.0437 4.3337 4.5837 4.7837 4.9037 5.0937 5.4337 5.9237
1726.435 6.5537 7.4037 8.5337 9.8937 11.6637 13.8737 16.4737 19.8237 24.2137 30.2237
1745.725 38.3837 49.5837 64.2637 81.9437 98.3937 107.054 104.944 92.5537 73.1537 54.0637
1765.015 40.1237 30.4737 23.6937 19.0637 15.7637 13.3737 11.5137 9.9337 8.6437 7.5037
1784.305 6.5337 5.6937 4.9537 4.3537 3.9237 3.5637 3.2937 3.0837 2.8837 2.6937
1803.594 2.5937 2.5037 2.4537 2.4237 2.3937 2.3737 2.3537 2.3137 2.2437 2.1437
1822.884 2.0437 1.8837 1.7037 1.5837 1.4237 1.2637 1.1237 1.02 0.9342 0.8692
1842.174 0.8323 0.7637 0.7124 0.7141 0.711 0.6792 0.6313 0.6061 0.5984 0.5865
1861.464 0.5814 0.5854 0.573 0.5637 0.5598 0.5525 0.6229 0.6832 0.654 0.6532
1880.754 0.7187 0.7687 0.7759 0.818 0.8794 0.9263 0.9962 1.0066 1.0149 1.0837
1900.043 1.1637 1.1737 1.1837 1.2137 1.2437 1.2937 1.3037 1.2937 1.2937 1.2537
1919.333 1.1837 1.1237 1.0802 1.0452 0.9992 0.9975 0.9649 0.905 0.8651 0.8139
1938.623 0.7647 0.7581 0.7712 0.7225 0.685 0.7135 0.7401 0.7467 0.7368 0.7515
1957.913 0.793 0.8141 0.8021 0.7948 0.7883 0.8163 0.8394 0.8411 0.8635 0.8547
1977.202 0.8386 0.7921 0.746 0.7157 0.6995 0.7424 0.7341 0.6939 0.678 0.6726
1996.492 0.6942 0.6892 0.6689 0.6712 0.7041 0.7303 0.7119 0.7013 0.7062 0.7087
2015.782 0.6902 0.6999 0.754 0.7468 0.7151 0.7073 0.6816 0.6329 0.6337 0.6648
2035.072 0.6619 0.656 0.6431 0.6398 0.6277 0.6177 0.6372 0.6289 0.6294 0.6435
2054.362 0.6694 0.6839 0.6303 0.6258 0.645 0.6093 0.6347 0.6468 0.5884 0.5873
2073.651 0.6271 0.6174 0.6015 0.6233 0.6072 0.5859 0.578 0.5606 0.549 0.5215
2092.941 0.5208 0.5367 0.5272 0.5357 0.5599 0.5595 0.5002 0.4376 0.4517 0.4603
2112.231 0.4276 0.4167 0.4132 0.4045 0.4497 0.4467 0.4018 0.4182 0.4461 0.4534
2131.521 0.4654 0.461 0.4552 0.5033 0.5171 0.5194 0.5497 0.4998 0.4898 0.5251
2150.810 0.5183 0.5236 0.5031 0.4803 0.4869 0.4755 0.4186 0.4073 0.363 0.3243
2170.100 0.3183 0.3013 0.3064 0.3009 0.2735 0.2787 0.3 0.3309 0.3782 0.3527
2189.390 0.3078 0.2919 0.3102 0.3061 0.2824 0.2862 0.2757 0.3262 0.318 0.2665
2208.680 0.3202 0.3532 0.3379 0.3421 0.3086 0.3058 0.3791 0.4045 0.3964 0.3653
2227.970 0.3258 0.3622 0.4234 0.4142 0.391 0.3531 0.3326 0.3413 0.3021 0.3201
2247.259 0.374 0.3148 0.277 0.3041 0.316 0.3047 0.2796 0.3052 0.3172 0.2842
2266.549 0.2726 0.3112 0.3446 0.3251 0.3285 0.3139 0.3367 0.3523 0.3184 0.3079
2285.839 0.3079 0.3168 0.2972 0.3061 0.3057 0.2677 0.29 0.3113 0.3306 0.3647
2305.129 0.3536 0.3606 0.3533 0.3132 0.3522 0.4157 0.4328 0.4627 0.4934 0.4866
2324.418 0.439 0.4214 0.4255 0.3959 0.4191 0.4418 0.4267 0.4414 0.4321 0.4214
2343.708 0.4562 0.4925 0.506 0.4843 0.4735 0.4689 0.4446 0.4366 0.4556 0.4664
2362.998 0.4548 0.4347 0.483 0.511 0.4794 0.5147 0.5206 0.5096 0.5192 0.4591
2382.288 0.4269 0.4574 0.4522 0.4772 0.5095 0.5508 0.5872 0.5976 0.6143 0.5859
2401.578 0.5419 0.5264 0.5578 0.5919 0.6369 0.678 0.6435 0.6429 0.6607 0.6507
2420.867 0.6515 0.6612 0.6762 0.6602 0.6261 0.5673 0.5251 0.5397 0.5693 0.572
2440.157 0.5819 0.5666 0.5149 0.524 0.5465 0.5202 0.5147 0.5309 0.5149 0.5096
2459.447 0.5325 0.5928 0.6016 0.5476 0.5845 0.647 0.5937 0.5286 0.5564 0.5737
2478.737 0.5692 0.5556 0.5853 0.617 0.6099 0.5893 0.5607 0.6094 0.6137 0.5494
2498.026 0.5665 0.6188 0.5999 0.5831 0.6172 0.6294 0.6436 0.6413 0.6198 0.6591
2517.316 0.6531 0.6276 0.6466 0.6366 0.6464 0.6585 0.648 0.6905 0.7466 0.7683
2536.606 0.7865 0.8516 0.8774 0.8453 0.8509 0.9052 0.9 0.8854 0.9429 0.9513
2555.896 0.8943 0.8839 0.9118 0.8719 0.9178 0.9626 0.9349 0.935 0.8825 0.8844
2575.186 0.9066 0.8557 0.8694 0.8397 0.7856 0.7791 0.7555 0.792 0.8207 0.7905
2594.475 0.7366 0.743 0.772 0.7661 0.7924 0.7964 0.7587 0.7593 0.7789 0.7247
2613.765 0.6755 0.7173 0.742 0.7135 0.6462 0.6207 0.6033 0.5617 0.5522 0.5849
2633.055 0.5847 0.5692 0.6066 0.6079 0.6133 0.6028 0.5849 0.6122 0.6456 0.6462
2652.345 0.6176 0.6375 0.6168 0.5633 0.6344 0.5978 0.5278 0.6235 0.658 0.6465
2671.634 0.6954 0.6754 0.6976 0.7164 0.6828 0.7345 0.7715 0.7899 0.7571 0.7834
2690.924 0.8073 0.7082 0.681 0.7307 0.7342 0.731 0.7519 0.7686 0.7592 0.7345
2710.214 0.7002 0.7014 0.7323 0.7249 0.7764 0.8126 0.7912 0.7846 0.774 0.8204
2729.504 0.8897 0.8791 0.8553 0.879 0.9331 1.0283 1.1137 1.1237 1.1137 1.0591
2748.794 1.0837 1.1337 1.1737 1.2437 1.2037 1.2037 1.1937 1.1837 1.2337 1.2137
2768.083 1.1337 1.2237 1.2937 1.2137 1.1837 1.2037 1.2337 1.1937 1.1837 1.2037
2787.373 1.2737 1.3337 1.2837 1.2937 1.4137 1.4837 1.5437 1.6137 1.6637 1.6437
2806.663 1.6437 1.7237 1.7837 1.8637 1.9937 2.1037 2.2237 2.3137 2.3337 2.4537
2825.953 2.6537 2.8637 3.0437 3.2337 3.4637 3.7037 3.9937 4.3437 4.7237 5.2437
2845.242 5.8737 6.5237 7.3537 8.4037 9.6337 11.0337 12.5337 13.9537 15.2637 16.3637
2864.532 17.0837 17.3837 17.4337 17.2737 16.9737 16.5437 16.1537 15.8537 15.5937 15.4537
2883.822 15.1737 14.7637 14.3637 13.8737 13.5537 13.4237 13.3837 13.6337 13.9837 14.4137
2903.112 15.1137 16.0537 17.0837 18.2737 19.6837 21.2437 22.9437 24.7237 26.7337 28.9837
2922.401 31.4637 34.1337 36.8437 39.4737 41.8137 43.6737 44.8537 45.1537 44.7137 43.7837
2941.691 42.3637 40.6137 38.5937 36.3337 34.0437 31.9437 30.0937 28.5537 27.2937 26.3837
2960.981 25.8637 25.5537 25.2137 24.6537 23.7837 22.4737 20.7237 18.4937 16.0537 13.8437
2980.271 11.9137 10.2937 8.9837 7.8737 6.8937 6.2137 5.6937 5.1137 4.6937 4.3137
2999.561 4.0037 3.7737 3.5337 3.3037 3.0937 2.9037 2.7537 2.6337 2.5537 2.4537
3018.850 2.3137 2.2237 2.1337 2.0237 1.9937 1.9337 1.7937 1.7437 1.6937 1.7337
3038.140 1.7937 1.7037 1.6637 1.6937 1.7037 1.7937 1.8937 1.9337 1.9937 2.0337
3057.430 2.0137 2.0437 2.0237 1.9637 1.9137 1.8937 1.9537 1.9737 2.0337 2.1237
3076.720 2.2937 2.3737 2.3737 2.4337 2.3337 2.1237 2.0437 1.9337 1.7137 1.5537
3096.009 1.5537 1.5837 1.5737 1.5637 1.5437 1.4737 1.4037 1.3437 1.3137 1.2537
3115.299 1.1037 0.9901 1.0057 1.0094 0.9681 0.9584 0.9392 0.8688 0.8076 0.7841
3134.589 0.7671 0.6825 0.6501 0.6666 0.5948 0.5379 0.546 0.5848 0.6351 0.6212
3153.879 0.5701 0.4663 0.513 0.647 0.6235 0.5183 0.495 0.5532 0.5113 0.4307
3173.169 0.4706 0.5044 0.4637 0.4158 0.3648 0.3204 0.3164 0.3754 0.5066 0.547
3192.458 0.4454 0.4067 0.2946 0.2275 0.3003 0.3889 0.397 0.396 0.3875 0.3037
3211.748 0.3264 0.3621 0.3457 0.3652 0.3402 0.3273 0.3195 0.3055 0.3463 0.3259
3231.038 0.1963 0.12081 0.2079 0.2407 0.2292 0.2778 0.189 0.13596 0.17118 0.15561
3250.328 0.1902 0.15349 0.13401 0.2114 0.2505 0.2324 0.1968 0.2498 0.2599 0.2448
3269.617 0.3054 0.3149 0.2513 0.17875 0.186 0.2066 0.2215 0.1924 0.13545 0.09653
3288.907 0.0643 0.042 0.10457 0.2328 0.2263 0.2144 0.17613 0.17521 0.2447 0.13437
3308.197 0.15638 0.2766 0.2084 0.136 0.175 0.18071 0.10444 0.15256 0.2002 0.1608
3327.487 0.10695 0.13523 0.2256 0.2587 0.26 0.2395 0.2531 0.2766 0.2785 0.2092
3346.777 0.2083 0.1988 0.13227 0.16763 0.18233 0.1955 0.2905 0.3321 0.2698 0.2474
3366.066 0.2184 0.17028 0.12981 0.10544 0.1988 0.2458 0.15192 0.15458 0.1901 0.14775
3385.356 0.1429 0.1434 0.13136 0.088576 0.11964 0.18232 0.09908 0.0473 0.17071 0.16439
3404.646 0.086476 0.11928 0.13418 0.083154 0.12152 0.2138 0.1864 0.16952 0.17101 0.18268
3423.936 0.2148 0.2736 0.3124 0.2874 0.2729 0.2942 0.2954 0.2363 0.14909 0.2603
3443.225 0.3593 0.1934 0.1903 0.2435 0.2969 0.3581 0.2159 0.214 0.2843 0.3454
3462.515 0.3827 0.2945 0.3108 0.3652 0.2907 0.18026 0.1904 0.2721 0.414 0.5411
3481.805 0.5535 0.4914 0.4264 0.4898 0.5807 0.6957 0.7326 0.7455 0.7584 0.6865
3501.095 0.6623 0.6144 0.5762 0.6093 0.5766 0.5358 0.5339 0.4198 0.404 0.4879
3520.385 0.3606 0.2649 0.3359 0.3816 0.3021 0.2148 0.3243 0.3653 0.2187 0.2397
3539.674 0.3256 0.3093 0.3334 0.3697 0.414 0.5944 0.6916 0.6018 0.6285 0.715
3558.964 0.8177 1.0406 1.2737 1.5237 1.9837 2.6037 3.5137 4.9337 6.9637 9.8737
3578.254 13.9637 19.6637 26.3437 31.8237 33.6137 30.8537 24.4937 16.5237 10.0637 6.3237
3597.544 4.0837 2.8537 2.2137 1.7037 1.3337 1.0792 1.0083 0.9697 0.7683 0.66
3616.833 0.6319 0.5639 0.5201 0.4246 0.3818 0.4133 0.4738 0.4402 0.3724 0.3994
3636.123 0.3222 0.2693 0.3323 0.3998 0.3447 0.2766 0.2056 0.185 0.3387 0.2876
3655.413 0.2022 0.2859 0.2936 0.2775 0.2848 0.2892 0.2812 0.2186 0.2244 0.3342
3674.703 0.3324 0.3706 0.3082 0.189 0.2415 0.2795 0.3671 0.3338 0.2128 0.17258
3693.993 0.1989 0.13855 0.10231 0.14604 0.0719 0.09977 0.1995 0.2788 0.3113 0.195
3713.282 0.2001 0.2411 0.12214 0.0773 0.2625 0.3192 0.2513 0.2594 0.1854 0.0714
3732.572 0.15173 0.2678 0.2872 0.2475 0.0731 0.15829 0.17341 0.0069 0.044 0.16043
3751.862 0.17052 0.13953 0.1227 0.10278 0.2129 0.2269 0.16545 0.086097 0.13407 0.1994
3771.152 0.15493 0.1777 0.16104 0.0591 0.0639 0.13893 0.17241 0.17775 0.11592 0.14352
3790.441 0.182 0.1942 0.2403 0.3389 0.3106 0.0656 0.10106 0.2662 0.17244 0.0254
3809.731 0.0266 0.1542 0.16263 0.2344 0.2054 0 0.0335 0.09428 0.07981 0.13142
3829.021 0.14361 0.13914 0.17084 0.14692 0.17758 0.1848 0.16148 0.13803 0.088951 0.17128
3848.311 0.2463 0.11357 0.07 0.2374 0.2889 0.2713 0.2101 0.17574 0.2214 0.2454
3867.601 0.3176 0.3325 0.2686 0.3111 0.3541 0.2811 0.2119 0.2026 0.2785 0.3058
3886.890 0.3784 0.4326 0.331 0.2611 0.2087 0.15302 0.15841 0.16371 0.10379 0.189
3906.180 0.2366 0.16074 0.2056 0.2088 0.17684 0.2108 0.2534 0.2909 0.2644 0.17661
3925.470 0.13533 0.16505 0.201 0.2021 0.16145 0.09631 0.10771 0.186 0.2837 0.2194
3944.760 0.15836 0.14519 0.11533 0.10216 0.07782 0.1953 0.14324 0.15233 0.1862 0.0447
3964.049 0.15287 0.14288 0.089219 0.2333 0.15855 0.1871 0.3125 0.3387 0.3472 0.1931
3983.339 0.091825 0.258 0.3556 0.3378 0.2306 0.187 0.2416 0.11078 0.09489 0.2068
##END=
