##TITLE=2,4,6-Tritert-butylnitrosobenzene
##JCAMP-DX=4.24
##DATA TYPE=INFRARED SPECTRUM
##ORIGIN=NIST Mass Spectrometry Data Center
##OWNER=NIST Standard Reference Data Program
Collection (C) 2018 copyright by the U.S. Secretary of Commerce
on behalf of the United States of America. All rights reserved.
##CAS REGISTRY NO=24973-59-9
##MOLFORM=C 18 H 29 N O
##$NIST SOURCE=MSDC-IR
##SPECTROMETER/DATA SYSTEM=HP-GC/MS/IRD
##STATE=gas
##XUNITS=1/CM
##YUNITS=ABSORBANCE
##XFACTOR=1.0
##YFACTOR=0.000005300
##DELTAX=4.0
##FIRSTX=550.0
##LASTX=3846.0
##FIRSTY=0.000387
##MAXX=3846
##MINX=550
##MAXY=0.053
##MINY=0
##NPOINTS=825
##XYDATA=(X++(Y..Y))
550.0 73 87 105 133 141 130 127 126 124 131
590.0 139 136 138 149 164 173 169 155 133 128
630.0 130 130 142 142 116 104 104 111 104 97
670.0 97 94 92 90 104 127 142 152 174 201
710.0 227 296 487 869 1469 2195 3014 3690 3414 2619
750.0 1927 1234 700 409 279 217 178 146 115 87
790.0 72 65 74 96 144 232 381 562 644 591
830.0 436 255 141 94 87 85 76 77 79 84
870.0 88 92 98 96 87 76 69 77 86 102
910.0 138 179 170 131 107 83 54 38 30 21
950.0 13 5 4 10 7 1 2 6 8 15
990.0 31 34 27 18 5 0 13 43 105 207
1030.0 274 273 207 99 26 5 9 16 21 31
1070.0 40 44 48 61 84 111 135 153 170 216
1110.0 302 358 356 349 284 179 105 68 67 81
1150.0 90 94 92 83 88 110 145 196 288 466
1190.0 785 1201 1487 1509 1251 825 514 397 377 439
1230.0 551 616 608 523 405 359 378 448 599 917
1270.0 1610 2909 4684 6323 7401 7443 6276 4632 2912 1478
1310.0 754 477 335 244 187 152 129 119 107 106
1350.0 115 120 131 148 176 236 338 471 628 794
1390.0 933 1112 1485 2190 3018 3397 3124 2271 1262 672
1430.0 457 391 380 391 423 474 565 700 865 1112
1470.0 1554 2290 3433 5182 7410 9284 10000 9522 8103 6326
1510.0 4689 3200 1947 1156 780 610 535 511 499 474
1550.0 457 468 504 542 579 603 607 647 770 978
1590.0 1210 1319 1203 912 579 361 278 250 239 225
1630.0 210 192 163 136 122 116 111 102 100 112
1670.0 125 127 121 114 98 83 81 81 73 60
1710.0 57 64 66 60 62 80 101 115 134 152
1750.0 156 145 128 110 102 100 98 97 96 88
1790.0 85 76 70 68 63 66 74 85 101 115
1830.0 116 100 83 79 84 93 109 131 147 147
1870.0 139 121 102 87 79 80 92 117 137 145
1910.0 132 105 78 62 56 54 53 50 49 45
1950.0 42 40 40 41 43 46 45 43 42 42
1990.0 40 42 46 54 63 73 84 89 85 77
2030.0 69 58 48 44 41 35 35 42 49 55
2070.0 64 70 74 77 77 72 59 50 40 28
2110.0 26 28 26 27 24 26 32 35 35 36
2150.0 39 36 31 31 32 30 24 22 18 17
2190.0 18 15 20 25 26 25 28 30 30 30
2230.0 29 28 27 22 19 18 18 15 10 12
2270.0 17 19 20 23 25 27 33 38 40 45
2310.0 51 52 56 64 66 62 56 52 49 45
2350.0 42 47 56 58 56 55 49 44 41 45
2390.0 58 68 69 62 47 37 29 24 24 27
2430.0 35 40 42 43 43 44 47 53 55 55
2470.0 61 68 73 76 68 60 49 37 32 31
2510.0 31 35 42 47 52 53 55 58 60 56
2550.0 46 34 23 17 19 17 17 26 41 51
2590.0 60 73 81 86 86 75 59 48 36 26
2630.0 20 14 14 17 16 13 14 18 19 12
2670.0 10 12 11 8 9 12 13 14 14 12
2710.0 10 10 12 17 20 23 27 31 28 24
2750.0 20 16 12 5 3 2 1 4 6 8
2790.0 6 7 11 13 10 12 11 7 4 2
2830.0 5 4 1 4 8 15 20 19 22 23
2870.0 25 27 23 24 28 24 19 15 14 15
2910.0 16 19 26 28 25 19 10 7 7 9
2950.0 9 11 13 14 21 21 23 23 26 31
2990.0 33 34 36 48 61 79 111 163 230 295
3030.0 348 388 424 457 478 500 531 565 608 692
3070.0 812 893 878 760 577 425 340 295 253 204
3110.0 156 113 86 64 49 42 36 30 27 27
3150.0 25 26 23 18 17 15 12 9 9 14
3190.0 13 13 14 19 24 19 17 21 21 14
3230.0 9 5 13 23 19 13 14 17 16 10
3270.0 9 10 10 8 9 6 2 1 5 10
3310.0 13 15 8 2 6 12 14 9 10 15
3350.0 17 16 17 20 20 16 15 16 20 23
3390.0 15 12 20 29 34 32 38 59 78 103
3430.0 149 197 246 287 303 290 259 217 165 116
3470.0 80 58 50 47 35 30 27 28 35 29
3510.0 28 31 28 25 22 15 15 17 21 25
3550.0 19 17 19 21 28 27 18 18 20 23
3590.0 26 22 20 24 27 26 25 26 20 25
3630.0 26 21 24 29 33 30 26 25 21 18
3670.0 17 25 28 22 21 24 27 29 32 32
3710.0 33 27 18 20 29 28 29 35 39 34
3750.0 27 28 28 31 35 33 31 31 29 28
3790.0 27 31 33 30 24 24 31 37 35 24
3830.0 27 36 29 24 23
##END=
