##TITLE=Ethyl 5-hydroxyindole-2-carboxylate
##JCAMP-DX=4.24
##DATA TYPE=INFRARED SPECTRUM
##ORIGIN=EPA-IR VAPOR PHASE LIBRARY
##OWNER=SRD/NIST
Collection (C) 2018 copyright by the U.S. Secretary of Commerce
on behalf of the United States of America. All rights reserved.
##CAS REGISTRY NO=24985-85-1
##MOLFORM=C 11 H 11 N O 3
##$NIST SOURCE=MSDC-IR
##STATE=gas
##XUNITS=1/CM
##YUNITS=ABSORBANCE
##XFACTOR=1.
##YFACTOR=0.001
##DELTAX=1.92898
##FIRSTX=549.8
##LASTX=4000.7
##FIRSTY=4.71
##MAXX=4000.7
##MINX=549.759
##MAXY=0.36395
##MINY=0.000009184
##NPOINTS=1790
##XYDATA=(X++(Y..Y))
549.759 4.71 4.99 4.97 4.97 5.15 4.39 4.2 4.65 4.38 3.47
569.049 3.05 3 2.43 2.25 2.9 3.73 4.27 4.97 5.84 6.32
588.339 7.24 8.88 9.98 10 10.05 10.23 9.46 9 8.32 7.05
607.628 5.96 5.6 5.21 4.72 4.74 4.51 4.76 5.43 5.32 4.97
626.918 5.33 5.17 4.59 3.88 2.97 2.91 2.83 2.44 2.38 1.71
646.208 1.38 1.57 1.51 1.53 1.83 1.75 1.45 1.73 1.59 1.13
665.498 0.9002 0.8829 1.07 1.51 1.73 1.29 1.05 1.13 1.42 1.58
684.787 1.51 1.34 1.35 1.64 1.41 1.32 1.69 2.09 2.2 2.09
704.077 2.11 2.23 2.64 2.86 3.31 4.14 4.46 4.99 5.64 6.25
723.367 7.44 8.49 9.04 9.67 10.88 11.66 11.32 10.75 10.43 10.42
742.657 11.24 12.94 15.11 18.2 21.34 24.34 27.95 31.05 33.13 34.94
761.947 35.53 35.53 35.66 34.88 33.14 30.54 27.85 25.2 22.7 20.68
781.236 19.13 18.32 18.08 18.24 18.68 18.5 18.15 18.63 19.5 19.68
800.526 19.26 18.64 17.82 16.71 15.88 15.2 14.47 14.15 13.89 13.82
819.816 13.25 13.38 14.28 14.61 15.5 16.86 17.72 18.86 20.74 22.43
839.106 23 22.94 22.55 21.63 20.69 19.98 19.43 19.22 19.19 18.79
858.395 19.01 19.5 18.9 17.71 16.78 15.84 14.68 12.96 11.41 10.4
877.685 9.23 8.13 7.64 7.29 6.65 6.66 6.69 6.21 5.94 5.95
896.975 6.17 6.35 6.33 6.66 6.8 6.36 6.42 7.03 7.46 7.52
916.265 7.44 7.56 7.68 7.65 7.72 8.12 8.6 9.06 9.24 9.46
935.555 9.83 10.16 11.03 11.99 13.17 14.46 15.47 15.67 14.99 14.08
954.844 12.62 11.02 9.97 9.22 8.68 8.52 8.82 9.2 9.17 9.41
974.134 10.02 10.18 10.24 10.23 9.78 9.3 9 8.53 8.5 8.91
993.424 8.5 8.45 8.88 9.06 9.8 10.82 11.9 13.42 15.63 18.55
1012.714 21.71 25.2 29.4 34.01 38.19 41.41 43.54 43.73 41.94 39.2
1032.003 35.23 30.61 26.03 21.77 19.09 17.21 15.5 14.28 13.58 12.97
1051.293 12.1 11.51 10.3 10 10.37 9.39 9.04 9.54 10.07 10.72
1070.583 11.79 13.4 15.61 17.45 19.35 22.55 26.94 32.07 36.2 40.09
1089.873 45.08 49.35 52.89 56.61 57.76 57.04 55.58 51.02 44.02 36.76
1109.163 30.8 26.23 24.06 24.23 26.23 28.18 29.11 30.43 32.3 32.5
1128.452 31.34 31.74 32.11 32.19 33.57 36.79 42.83 50.73 59.24 67.61
1147.742 77.03 86.66 96.36 106.43 117.84 133.02 150.3 169.49 189.07 204.27
1167.032 210.52 208.36 199.04 182.71 164.17 148.44 138.45 133.5 132.38 132.71
1186.322 133.21 134.14 134.02 132.87 131.26 130.34 130.72 131.9 135.68 142.95
1205.611 152.42 165.96 183.02 201.93 221.59 238.04 253.69 269.6 284.63 301.15
1224.901 319.89 339.48 355.64 363.95 360.9 345.44 318.52 283.38 242.09 199.1
1244.191 160.7 128.12 101.51 81.79 66.41 54.5 45.6 38.78 33.44 29.13
1263.481 26.05 23.88 21.82 19.61 18.38 17.72 17.18 16.79 16.3 15.95
1282.771 15.66 15.52 15.5 15.7 16.1 16.71 17.81 19.09 20.47 22.01
1302.060 24.04 26.25 28.67 31.66 35.25 39.7 45.31 51.93 59.58 68.33
1321.350 77.9 88.01 97.7 105.26 108.49 106.21 98.61 87.06 72.88 57.83
1340.640 45 36.33 31.27 28.43 26.81 25.74 24.97 24.57 24.41 24.34
1359.930 24.64 25.74 27.84 31.22 35.85 41.17 46.23 50.04 51.67 50.69
1379.219 47.2 41.82 35.93 30.52 26.13 23.37 22.08 21.49 21.16 20.87
1398.509 20.49 20.05 19.66 19.29 19.24 19.71 20.61 22.05 23.96 26.14
1417.799 28.53 31.01 32.84 33.75 33.71 32.78 31.15 29.19 27.6 26.68
1437.089 26.52 27.39 28.93 30.91 32.75 33.67 34.13 33.95 32.91 31.24
1456.378 29.2 27.42 25.99 24.83 23.83 22.86 22.03 21.3 20.63 19.9
1475.668 19.16 18.46 17.72 17.12 16.67 16.2 15.76 15.26 14.5 13.62
1494.958 12.66 11.89 11.33 10.91 10.77 10.75 11.04 11.73 12.53 14.01
1514.248 16.05 18.58 21.89 25.73 30.63 36.34 42.83 50.29 58.74 69.06
1533.538 81.47 95.21 108.59 120.24 127.76 128.7 122.46 109.89 92.59 73.52
1552.827 56.4 42.56 32.76 26 21.5 18.64 16.65 15.41 14.56 13.89
1572.117 13.42 13.03 12.76 12.38 12.05 11.87 11.6 11.13 10.75 10.46
1591.407 10.12 9.79 9.57 9.38 9.11 9.07 9 8.78 8.83 8.99
1610.697 9.39 10.24 11.3 12.31 13.5 14.95 16.29 17.38 18.18 18.53
1629.986 18.39 17.95 17.23 16.24 15.14 13.95 12.97 12.22 11.44 10.83
1649.276 10.4 10.14 9.8 9.56 9.55 9.44 9.26 9.18 9.12 9.12
1668.566 9.29 9.43 9.76 10.08 10.41 10.78 11.1 11.46 11.75 12.1
1687.856 12.37 12.88 13.66 14.73 16.17 18.14 20.87 24.39 28.99 35.04
1707.146 42.99 53.52 66.67 83.38 104.15 128.59 155.8 180.67 197.96 205.5
1726.435 204.61 194.94 174.49 147.8 122.93 106.34 98.23 96.63 99.25 102.35
1745.725 103 100.9 95.72 85.46 70.19 54.26 41.28 31.75 24.74 19.59
1765.015 15.77 12.82 10.67 9.23 8.28 7.58 7.09 6.85 6.69 6.59
1784.305 6.67 6.8 6.79 6.78 6.79 6.81 6.9 6.69 6.59 6.67
1803.594 6.54 6.45 6.38 6.19 5.98 5.97 5.89 5.78 5.7 5.66
1822.884 5.77 5.61 5.39 5.33 5.15 4.98 5.02 5.05 4.9 4.8
1842.174 4.71 4.67 4.68 4.59 4.39 4.16 3.96 3.75 3.4 3.09
1861.464 2.88 2.63 2.36 2.32 2.28 2.19 2.16 2.19 2.18 2.14
1880.754 2.19 2.21 2.21 2.17 2.08 2.08 2.2 2.23 2.18 2.11
1900.043 2.05 1.84 1.78 1.82 1.75 1.64 1.55 1.55 1.61 1.65
1919.333 1.56 1.6 1.66 1.67 1.69 1.69 1.63 1.58 1.53 1.59
1938.623 1.55 1.58 1.77 1.69 1.53 1.5 1.57 1.56 1.46 1.47
1957.913 1.55 1.55 1.47 1.56 1.62 1.51 1.39 1.37 1.44 1.43
1977.202 1.36 1.33 1.3 1.27 1.37 1.36 1.23 1.23 1.33 1.22
1996.492 1.2 1.26 1.23 1.19 1.25 1.42 1.38 1.38 1.4 1.34
2015.782 1.37 1.45 1.53 1.51 1.44 1.34 1.3 1.28 1.32 1.32
2035.072 1.26 1.35 1.33 1.33 1.38 1.4 1.56 1.62 1.62 1.54
2054.362 1.55 1.63 1.59 1.49 1.48 1.52 1.45 1.59 1.63 1.4
2073.651 1.41 1.52 1.38 1.35 1.36 1.32 1.26 1.2 1.15 1.12
2092.941 1.15 1.11 1.13 1.22 1.32 1.26 1.08 1.17 1.27 1.19
2112.231 1.03 1.09 1.14 1.04 1.01 0.9508 0.8917 0.9511 0.9258 0.9377
2131.521 0.9147 0.8329 0.8715 0.9664 0.928 0.9069 0.959 0.9256 0.9683 1.04
2150.810 0.9997 0.8588 0.8025 0.8671 0.9806 0.998 1.05 1.02 1.07 1.06
2170.100 1.01 1.07 1.06 1.16 1.21 1.18 1.11 1.23 1.38 1.26
2189.390 1.21 1.2 1.23 1.32 1.28 1.17 1.05 1.04 1.2 1.34
2208.680 1.2 1.11 1.14 0.9677 0.8632 0.9537 1.04 1.08 1.06 1.07
2227.970 1.06 0.9963 0.9254 0.8793 0.9149 0.9202 0.8983 0.9937 1.01 0.9081
2247.259 0.7969 0.8549 0.9957 0.9722 1.03 1.09 1.12 1.08 1.08 1.22
2266.549 1.29 1.24 1.15 1.05 0.9725 0.9822 1.05 1.01 0.9227 1.06
2285.839 1.12 1.15 1.24 1.26 1.27 1.23 1.26 1.35 1.35 1.3
2305.129 1.37 1.44 1.43 1.36 1.29 1.35 1.42 1.39 1.38 1.46
2324.418 1.45 1.43 1.6 1.6 1.45 1.43 1.48 1.5 1.45 1.44
2343.708 1.45 1.43 1.52 1.45 1.35 1.45 1.63 1.7 1.65 1.66
2362.998 1.67 1.63 1.54 1.55 1.64 1.8 1.77 1.51 1.6 1.76
2382.288 1.77 1.89 1.69 1.52 1.59 1.6 1.6 1.6 1.64 1.59
2401.578 1.62 1.6 1.4 1.24 1.23 1.3 1.34 1.29 1.18 1.15
2420.867 1.15 1.12 0.9928 0.9833 1.08 0.997 1.15 1.29 1.19 1.1
2440.157 1.12 1.28 1.27 1.35 1.34 1.29 1.2 1.18 1.3 1.26
2459.447 1.39 1.46 1.28 1.25 1.39 1.51 1.64 1.66 1.59 1.52
2478.737 1.52 1.64 1.54 1.42 1.54 1.65 1.59 1.5 1.49 1.35
2498.026 1.27 1.31 1.36 1.47 1.51 1.48 1.62 1.59 1.5 1.62
2517.316 1.55 1.38 1.4 1.35 1.29 1.31 1.27 1.2 1.15 1.24
2536.606 1.34 1.22 1.19 1.24 1.21 1.21 1.19 1.21 1.38 1.29
2555.896 1.22 1.21 1.06 1.08 1.07 0.9848 0.8261 0.8315 0.984 1.03
2575.186 1.09 1.11 1.22 1.27 1.16 1.04 0.8184 0.8644 1.05 1.06
2594.475 1.16 1.14 1.11 1.18 1.19 1.22 1.08 1.14 1.29 1.23
2613.765 1.25 1.21 1.09 1.08 1.07 1.24 1.44 1.39 1.38 1.39
2633.055 1.28 1.22 1.28 1.2 1.3 1.47 1.54 1.64 1.64 1.69
2652.345 1.46 1.34 1.42 1.27 1.22 1.28 1.29 1.27 1.36 1.22
2671.634 1.01 1.05 1.08 1.23 1.21 1.07 1.06 1.08 1.04 0.9952
2690.924 1.06 0.9818 1.07 1.15 1.17 1.12 0.9761 0.9404 0.9469 0.8976
2710.214 0.7577 0.77 0.8347 1 1.07 0.9509 0.8545 0.8398 0.9659 1.17
2729.504 1.22 1.13 1.15 1.16 1.1 0.982 1.07 1.07 0.9948 1.14
2748.794 1.18 0.9883 1.14 1.38 1.23 1.19 1.34 1.47 1.48 1.35
2768.083 1.27 1.43 1.52 1.33 1.11 1.2 1.52 1.67 1.55 1.59
2787.373 1.6 1.46 1.63 1.74 1.53 1.43 1.6 1.57 1.58 1.57
2806.663 1.38 1.4 1.49 1.55 1.72 1.72 1.67 1.91 1.85 1.64
2825.953 1.65 1.65 1.6 1.49 1.49 1.73 1.89 1.89 1.97 2.09
2845.242 2.06 2.15 2.29 2.3 2.38 2.42 2.44 2.54 2.79 3.13
2864.532 3.36 3.56 3.79 3.94 4.13 4.34 4.75 5.28 5.65 6.03
2883.822 6.34 6.49 6.58 6.49 6.39 6.39 6.27 6.35 6.53 6.69
2903.112 7.02 7.42 7.69 7.83 8.21 8.54 8.75 8.85 8.85 8.8
2922.401 8.5 8.39 8.72 9.24 9.68 10.19 11.05 12.24 13.8 15.49
2941.691 16.91 17.54 17.59 17.61 17.06 16.29 15.54 14.86 14.47 14.33
2960.981 14.69 15.36 15.88 16.6 17.54 18.29 19.34 20.82 22.8 25.27
2980.271 28.01 30.78 32.55 33.14 32.64 30.55 27.81 24.79 21.96 20.07
2999.561 18.61 17.23 16.05 15.15 14.21 13.26 12.56 11.82 11.22 11.13
3018.850 11.4 11.67 11.79 12.19 12.79 13.02 13.01 12.92 12.82 12.46
3038.140 11.82 11.15 10.51 9.89 9.32 8.9 8.72 8.72 8.53 8.24
3057.430 7.86 7.57 7.28 7.05 7.02 6.84 6.72 6.63 6.31 5.93
3076.720 5.54 5.17 5.15 5.25 4.97 4.61 4.35 4.2 4.17 4.19
3096.009 3.88 3.67 3.61 3.22 2.86 2.6 2.41 2.31 2.02 1.78
3115.299 1.83 1.66 1.6 1.65 1.62 1.68 1.48 1.26 1.32 1.38
3134.589 1.39 1.34 1.29 1.27 1.3 1.33 1.25 1.16 1.12 1.37
3153.879 1.4 1.27 0.9973 0.8523 1.08 1.16 1.17 1.05 0.8951 0.8423
3173.169 1.01 1.23 1.22 0.9988 1.04 1.14 0.9217 0.9535 1 0.9452
3192.458 0.7808 0.6075 0.7231 0.7985 0.8413 0.7822 0.6599 0.7537 0.7341 0.6764
3211.748 0.869 0.8883 0.7638 0.6758 0.5161 0.4078 0.6691 0.9552 0.7745 0.6884
3231.038 0.7045 0.4658 0.3953 0.4444 0.5105 0.6111 0.5272 0.6971 0.7647 0.52
3250.328 0.6486 0.7544 0.7276 0.6616 0.9043 1.4 1.39 1.25 1.22 1.01
3269.617 0.9136 1.05 0.9322 0.764 0.6764 0.6691 0.681 0.6114 0.525 0.5877
3288.907 0.6287 0.4963 0.3642 0.4838 0.5172 0.5851 0.8548 0.8596 0.6923 0.4591
3308.197 0.4203 0.4288 0.6366 0.5767 0.5153 0.4901 0.4669 0.6786 0.6038 0.4049
3327.487 0.5536 0.5547 0.2436 0.3326 0.5558 0.6172 0.6887 0.8385 0.7401 0.5321
3346.777 0.4666 0.594 0.4953 0.4818 0.5864 0.545 0.5914 0.4078 0.5661 0.6887
3366.066 0.5848 0.6569 0.8398 0.9445 0.7195 0.6488 0.9471 1.04 0.9632 0.8367
3385.356 0.6797 1.02 1.31 1.22 1.08 1.11 0.8311 0.8564 1.12 0.9713
3404.646 0.9929 1.26 1.52 1.51 1.77 2.14 2.22 2.3 2.32 2.45
3423.936 2.38 2.24 2.55 2.83 2.74 2.71 2.91 2.96 3.11 3.24
3443.225 3.54 3.87 3.76 4.09 4.73 5.3 5.89 6.58 7.19 7.64
3462.515 8.37 9.53 10.93 12.33 13.82 15.87 18.79 21.89 25.25 29.08
3481.805 33.47 38.55 43.3 47.24 49.83 50.02 48.64 46.54 42.96 38.37
3501.095 33.72 29.54 26.93 25.25 23.11 20.69 18.16 15.58 12.7 9.71
3520.385 7.24 5.59 4.58 3.57 2.72 2.47 2.25 1.64 1.39 1.21
3539.674 0.9285 0.9494 1.11 1.23 1.32 1.24 0.9457 0.6208 0.605 0.7537
3558.964 0.6165 0.7343 0.8137 0.6137 0.5437 0.6759 0.7747 0.8537 0.6625 0.4284
3578.254 0.5739 0.5614 0.4736 0.6858 0.758 0.5655 0.5567 0.6306 0.6193 0.7149
3597.544 0.7088 0.8721 1.11 0.9334 0.9511 1.16 1.14 1.05 1.24 1.32
3616.833 1.45 1.7 1.96 2.13 2.2 2.47 2.98 3.7 4.25 5.16
3636.123 6.7 8.64 10.9 13.9 17.79 22.37 27.94 34.17 39.91 43.75
3655.413 45.52 45.8 43.41 37.53 29.85 22.71 16.19 10.39 6.55 4.27
3674.703 2.94 2.31 1.94 1.65 1.27 1.08 0.9895 0.8085 1.01 0.9495
3693.993 0.769 0.7938 0.7303 0.6041 0.6467 0.4718 0.2298 0.4443 0.6733 0.4392
3713.282 0.2036 0.4613 0.4947 0.3609 0.2323 0.1662 0.253 0.3394 0.3509 0.1802
3732.572 0.2562 0.2882 0.06833 0.2029 0.4473 0.6091 0.4972 0.4957 0.5211 0.3568
3751.862 0.2975 0.337 0.3299 0.283 0.5173 0.6159 0.5178 0.2733 0.07277 0.2148
3771.152 0.3304 0.1957 0.2217 0.393 0.3486 0.331 0.4424 0.258 0.1147 0.2752
3790.441 0.3853 0.4475 0.3722 0.2868 0.4585 0.5515 0.6678 0.8542 0.6233 0.1607
3809.731 0.3435 0.6369 0.3278 0.2306 0.6609 0.7411 0.4187 0.5631 0.7897 0.7227
3829.021 0.7625 0.814 0.5848 0.3497 0.5355 0.5969 0.3701 0.3593 0.6624 0.8179
3848.311 0.5982 0.4239 0.5224 0.7851 0.7364 0.5235 0.5644 0.6187 0.6163 0.7791
3867.601 0.5942 0.4714 0.6939 0.5713 0.3895 0.4335 0.7278 0.8366 0.6973 0.7297
3886.890 0.8348 0.8514 0.8727 0.7689 0.6837 0.6951 0.6206 0.6618 0.4819 0.6765
3906.180 1.1 0.9281 0.6346 0.5518 0.4569 0.5214 0.638 0.4915 0.5294 0.6489
3925.470 0.7227 0.6258 0.6651 0.7197 0.7828 0.7068 0.4367 0.5139 0.5891 0.5677
3944.760 0.4736 0.8217 0.8383 0.3637 0.4624 0.6053 0.5884 0.4203 0.5627 0.5447
3964.049 0.3739 0.3663 0.168 0.009184 0.05465 0.2748 0.2838 0.2123 0.2258 0.4763
3983.339 0.636 0.7547 0.6376 0.4996 0.3616 0.2734 0.5651 0.6179 0.7758 0.7088
##END=
