##TITLE=n-Heptyl acrylate
##JCAMP-DX=4.24
##DATA TYPE=INFRARED SPECTRUM
##ORIGIN=EPA-IR VAPOR PHASE LIBRARY
##OWNER=SRD/NIST
Collection (C) 2018 copyright by the U.S. Secretary of Commerce
on behalf of the United States of America. All rights reserved.
##CAS REGISTRY NO=2499-58-3
##MOLFORM=C 10 H 18 O 2
##$NIST SOURCE=MSDC-IR
##STATE=gas
##XUNITS=1/CM
##YUNITS=ABSORBANCE
##XFACTOR=1.
##YFACTOR=0.001
##DELTAX=3.85796
##FIRSTX=501.5
##LASTX=4000.7
##FIRSTY=0.3852
##MAXX=4000.7
##MINX=501.534
##MAXY=0.343986
##MINY=0
##NPOINTS=908
##XYDATA=(X++(Y..Y))
501.534 0.3852 0.3403 0.5902 0.8199 0.8544 0.901 0.9443 0.8893 0.8767 0.9277
540.114 0.8255 0.6707 0.5616 0.2941 0.1936 0.3083 0.2483 0.0828 0.05003 0.031436
578.693 0 0.07845 0.09578 0.08581 0.2974 0.589 0.9288 1.3856 1.6156 1.5556
617.273 1.4056 1.2456 1.1356 1.0656 0.9886 0.9799 1.1156 1.3056 1.5156 1.9456
655.852 2.5756 3.2256 3.6656 3.7056 3.3656 2.7556 2.0856 1.6156 1.3956 1.3856
694.432 1.4556 1.5856 1.8356 2.2156 2.7256 3.2956 3.8056 4.1656 4.2556 4.0856
733.011 3.8156 3.5456 3.2956 3.1756 3.0956 3.0456 3.1356 3.2556 3.4756 3.9156
771.591 4.4156 5.0556 5.8956 7.1156 8.8456 11.0456 13.8656 17.2156 20.4956 22.8656
810.170 23.3356 21.7856 19.0856 16.1556 13.5456 11.5656 10.2356 9.3556 8.7656 8.4756
848.750 8.3456 8.2656 8.3256 8.3656 8.3956 8.3856 8.3456 8.2956 8.2356 8.1756
887.330 8.1656 8.1356 8.0756 8.1256 8.2556 8.4056 8.5556 8.7156 9.0056 9.4556
925.909 10.1256 11.1856 12.6956 14.6456 17.1956 20.5056 24.6956 29.6156 34.8156 39.1956
964.489 41.7456 42.6856 43.0756 43.8756 45.1356 45.9456 45.0256 42.0156 37.7256 33.2856
1003.068 29.4656 26.7356 25.0756 24.2556 24.1356 24.6056 25.7756 27.9356 31.5956 37.1256
1041.648 44.6756 54.1656 64.9056 75.3556 83.3556 86.4056 83.2056 74.8656 64.0156 53.0356
1080.227 43.2256 35.0356 28.4456 23.3456 19.5356 16.8756 15.2356 14.3256 13.9056 13.8956
1118.807 14.1556 14.5256 15.2356 16.3256 17.8656 20.1356 23.4356 28.0056 34.2756 42.9156
1157.387 54.7456 71.5156 95.8456 131.146 180.576 242.546 304.536 343.986 342.536 300.466
1195.966 237.986 177.566 129.876 96.5756 75.0056 61.4256 53.1056 48.3956 46.5356 47.1856
1234.546 50.5356 57.3356 68.5356 85.0356 106.666 130.786 151.486 161.936 157.726 140.546
1273.125 117.336 95.6156 80.1656 73.2456 74.3456 78.3656 78.4156 71.2856 58.3956 45.0356
1311.705 35.0656 28.2456 23.5056 20.1656 17.7356 15.8556 14.4656 13.4856 12.8256 12.4356
1350.284 12.2356 12.1556 12.1856 12.3756 12.8856 13.9656 15.8956 18.5056 21.2156 23.8056
1388.864 26.5956 31.0056 39.6856 55.3456 76.1156 90.6256 90.0456 74.7056 52.7756 36.9656
1427.443 28.3656 23.8656 22.0656 21.7456 22.4556 23.9856 26.2056 28.6356 30.9056 32.1256
1466.023 31.7956 29.8356 26.3656 22.1656 18.0956 14.6556 11.9856 10.0156 8.6356 7.5956
1504.603 6.8656 6.1756 5.6356 5.2156 4.8556 4.5156 4.2256 3.9656 3.7456 3.5956
1543.182 3.4056 3.2056 3.1056 3.0556 3.0256 2.9856 3.0056 3.1056 3.2456 3.4556
1581.762 3.7356 4.1256 4.5956 5.1956 5.9756 6.9156 8.0756 9.4056 10.8356 12.4056
1620.341 14.1056 15.7856 17.4556 18.9156 19.5656 18.5656 16.0156 12.4056 9.3956 7.3956
1658.921 6.2756 5.7856 5.6856 5.8356 6.1656 6.7356 7.6156 8.8756 10.4156 12.5256
1697.500 15.3256 18.7956 22.9056 28.2656 35.3556 45.4656 59.1556 76.9356 100.356 129.906
1736.080 166.176 199.356 218.386 213.666 185.896 147.006 110.156 80.5056 58.8256 43.3356
1774.659 32.4056 24.8556 19.4656 15.5256 12.6556 10.4756 8.8256 7.5156 6.4756 5.6356
1813.239 4.9756 4.4556 4.0456 3.7256 3.4556 3.2256 3.0456 2.9156 2.8056 2.6956
1851.819 2.6156 2.5556 2.5056 2.4856 2.4556 2.4156 2.3456 2.3056 2.2956 2.3056
1890.398 2.3456 2.4256 2.5556 2.7556 3.0456 3.4356 3.9056 4.4256 4.9256 5.2256
1928.978 5.1556 4.6956 4.0956 3.5456 3.0956 2.7556 2.4556 2.2056 2.0356 1.8856
1967.557 1.7556 1.6656 1.6056 1.5856 1.5456 1.5156 1.5556 1.5856 1.6256 1.6956
2006.137 1.7756 1.8656 1.9656 2.0456 2.1256 2.1756 2.2256 2.2756 2.2856 2.3056
2044.716 2.3056 2.2556 2.2256 2.1956 2.1656 2.1256 2.0656 2.0256 1.9956 1.9456
2083.296 1.8956 1.8356 1.7456 1.6656 1.6156 1.5456 1.4856 1.4456 1.4156 1.3556
2121.875 1.3156 1.2856 1.2356 1.1756 1.0956 1.0656 1.0356 0.9841 0.9605 0.9316
2160.455 0.8889 0.8765 0.8534 0.8207 0.7938 0.7667 0.7427 0.7105 0.6768 0.6464
2199.035 0.6246 0.6151 0.6279 0.6073 0.5824 0.5871 0.5761 0.5815 0.5827 0.5643
2237.614 0.5548 0.5687 0.5793 0.5702 0.5712 0.5685 0.5755 0.5731 0.5835 0.6268
2276.194 0.6523 0.664 0.6734 0.6951 0.7145 0.7426 0.7755 0.8341 0.8984 0.9088
2314.773 0.9213 0.9403 0.9603 0.9893 1.0107 1.0556 1.1056 1.1656 1.2456 1.3356
2353.353 1.4156 1.4656 1.4756 1.4756 1.4456 1.3756 1.3056 1.2156 1.1156 1.0135
2391.932 0.9065 0.8353 0.7753 0.7198 0.6879 0.6584 0.6212 0.6088 0.5852 0.5196
2430.512 0.4861 0.4815 0.4716 0.4955 0.5266 0.531 0.5194 0.5253 0.5601 0.6003
2469.092 0.6425 0.6673 0.6959 0.6891 0.6791 0.7041 0.7215 0.6952 0.7024 0.725
2507.671 0.7301 0.7265 0.7268 0.7503 0.7509 0.7698 0.7939 0.8225 0.835 0.8424
2546.251 0.8447 0.8336 0.8434 0.8698 0.8846 0.912 0.9464 0.9933 1.0456 1.0556
2584.830 1.1056 1.1456 1.1456 1.1656 1.1856 1.2056 1.2356 1.2756 1.2956 1.3056
2623.410 1.3556 1.4356 1.4956 1.5556 1.6356 1.6856 1.7356 1.8356 1.9356 2.0056
2661.989 2.1056 2.2156 2.3256 2.4156 2.4656 2.4956 2.5356 2.5856 2.6156 2.6256
2700.569 2.6256 2.6456 2.6456 2.5956 2.5656 2.5956 2.6556 2.7156 2.8456 3.0356
2739.148 3.2056 3.3456 3.4556 3.5256 3.5456 3.5456 3.5856 3.6556 3.7456 3.8756
2777.728 4.0956 4.3156 4.6056 4.9656 5.3756 5.8256 6.2656 6.7356 7.3556 8.1056
2816.308 8.9656 9.9856 11.2056 12.6256 14.3356 16.6056 19.7156 24.1156 30.3356 38.8056
2854.887 49.3556 60.6156 70.2356 76.2256 77.8956 76.4756 73.9556 71.0856 67.9956 65.1656
2893.467 63.6456 64.9456 69.4456 76.6556 86.3456 98.6456 114.036 132.996 154.746 176.396
2932.046 193.816 203.116 202.026 191.206 175.056 159.616 149.776 146.786 147.836 146.666
2970.626 137.016 118.496 95.5456 74.7156 59.1656 47.8356 39.2556 32.4656 26.8856 22.2856
3009.205 18.7256 16.2056 14.4956 13.2956 12.5256 12.0956 11.9456 12.1056 12.3356 12.1156
3047.785 11.1956 9.6956 8.1356 7.0456 6.3956 6.0956 6.0356 5.9456 5.7856 5.5856
3086.364 5.4056 5.3356 5.4856 5.9856 6.9456 8.3156 9.0156 8.4956 6.7556 4.6956
3124.944 3.5156 2.9056 2.5556 2.3356 2.0756 1.9356 1.8656 1.7556 1.6556 1.5356
3163.524 1.4956 1.4556 1.3856 1.3356 1.2956 1.2856 1.2456 1.1856 1.1456 1.1056
3202.103 1.0856 1.018 0.9167 0.8573 0.7956 0.7308 0.7104 0.6971 0.6754 0.6577
3240.683 0.5773 0.5257 0.462 0.4149 0.4433 0.4128 0.354 0.3211 0.2823 0.2601
3279.262 0.2593 0.2538 0.2306 0.2137 0.2195 0.2334 0.225 0.1951 0.2209 0.2001
3317.842 0.2022 0.2629 0.2525 0.2698 0.2892 0.3095 0.3696 0.4469 0.432 0.3427
3356.421 0.3259 0.3799 0.435 0.4225 0.4359 0.5011 0.5119 0.4524 0.4018 0.3629
3395.001 0.3163 0.3132 0.3134 0.2933 0.3105 0.33 0.3203 0.4105 0.5092 0.5337
3433.580 0.6151 0.7145 0.7891 0.929 1.1256 1.3456 1.6156 1.9256 2.2756 2.4956
3472.160 2.4956 2.3956 2.1656 1.8456 1.5356 1.2156 0.9502 0.8032 0.6873 0.5852
3510.740 0.4568 0.3038 0.2978 0.2854 0.1683 0.1485 0.1761 0.1662 0.1557 0.1267
3549.319 0.1386 0.1149 0.01745 0.0016 0.029532 0.04544 0.06907 0.08631 0.08041 0.10638
3587.899 0.1602 0.168 0.1385 0.1312 0.1322 0.18 0.2078 0.21 0.2281 0.156
3626.478 0.1721 0.2219 0.2162 0.2279 0.2193 0.2507 0.2633 0.2445 0.2805 0.3022
3665.058 0.2965 0.2992 0.338 0.3001 0.2539 0.2821 0.2467 0.2392 0.2392 0.2473
3703.637 0.238 0.2005 0.2061 0.2203 0.2521 0.309 0.2758 0.2752 0.2994 0.259
3742.217 0.3431 0.3653 0.3394 0.353 0.3106 0.2868 0.259 0.2896 0.2979 0.2617
3780.797 0.2742 0.2986 0.3015 0.2843 0.2857 0.317 0.3638 0.3576 0.3206 0.3075
3819.376 0.2955 0.2804 0.2849 0.3333 0.3212 0.3141 0.357 0.312 0.3317 0.3535
3857.956 0.2954 0.2842 0.3341 0.3389 0.333 0.3952 0.4002 0.41 0.3626 0.3282
3896.535 0.4034 0.4559 0.4445 0.4396 0.4642 0.3997 0.357 0.4257 0.4845 0.4573
3935.115 0.4334 0.4693 0.4504 0.4423 0.4847 0.4682 0.4882 0.5424 0.5876 0.6329
3973.694 0.6731 0.6912 0.6581 0.6518 0.7175 0.7683 0.7711 0.796
##END=
