##TITLE=4-Acetamidophenylacetonitrile
##JCAMP-DX=4.24
##DATA TYPE=INFRARED SPECTRUM
##ORIGIN=EPA-IR VAPOR PHASE LIBRARY
##OWNER=SRD/NIST
Collection (C) 2018 copyright by the U.S. Secretary of Commerce
on behalf of the United States of America. All rights reserved.
##CAS REGISTRY NO=25025-06-3
##MOLFORM=C 10 H 10 N 2 O
##$NIST SOURCE=MSDC-IR
##STATE=gas
##XUNITS=1/CM
##YUNITS=ABSORBANCE
##XFACTOR=1.
##YFACTOR=0.001
##DELTAX=3.85796
##FIRSTX=551.7
##LASTX=4000.7
##FIRSTY=2.53
##MAXX=4000.7
##MINX=551.688
##MAXY=0.0312
##MINY=0.0004779
##NPOINTS=895
##XYDATA=(X++(Y..Y))
551.688 2.53 2.73 2.86 2.76 2.49 2.14 1.87 1.68 1.51 1.48
590.268 1.47 1.46 1.51 1.58 1.65 1.66 1.66 1.64 1.67 1.75
628.847 1.78 1.86 1.88 1.95 2.12 2.23 2.26 2.18 2 1.87
667.427 1.83 1.72 1.57 1.57 1.59 1.54 1.5 1.48 1.46 1.42
706.006 1.37 1.31 1.3 1.32 1.29 1.26 1.27 1.25 1.26 1.32
744.586 1.33 1.33 1.4 1.47 1.51 1.65 1.74 1.83 2.02 2.18
783.165 2.3 2.52 2.78 2.96 3.15 3.34 3.47 3.54 3.55 3.57
821.745 3.6 3.58 3.49 3.29 3.03 2.75 2.48 2.21 1.97 1.77
860.324 1.62 1.52 1.42 1.38 1.4 1.4 1.42 1.46 1.5 1.53
898.904 1.56 1.56 1.6 1.66 1.7 1.71 1.66 1.65 1.66 1.65
937.484 1.68 1.69 1.7 1.68 1.67 1.68 1.7 1.8 1.93 2.08
976.063 2.31 2.61 2.87 3.04 3.05 2.92 2.69 2.45 2.28 2.29
1014.643 2.43 2.46 2.35 2.11 1.89 1.79 1.77 1.84 1.85 1.79
1053.222 1.83 1.85 1.8 1.8 1.83 1.78 1.65 1.63 1.57 1.47
1091.802 1.46 1.39 1.46 1.53 1.5 1.59 1.64 1.71 1.7 1.61
1130.381 1.53 1.38 1.32 1.28 1.27 1.3 1.29 1.32 1.34 1.38
1168.961 1.46 1.67 2.1 2.75 3.47 4.07 4.46 4.7 5.18 5.99
1207.540 6.87 7.76 8.59 9.15 9.28 8.99 8.71 8.89 9.5 9.75
1246.120 9.07 7.59 6.17 5.45 5.32 5.54 6.02 6.58 7.03 7.43
1284.699 7.87 8.51 9.38 10.39 11.24 11.65 11.58 10.93 9.62 7.86
1323.279 5.98 4.51 3.66 3.26 3.11 3.08 3.12 3.33 3.77 4.5
1361.859 5.55 6.56 7.08 6.88 6.2 5.57 5.27 5.44 6.19 7.62
1400.438 9.68 11.67 12.52 11.74 9.74 7.71 6.65 6.14 5.69 5.16
1439.018 4.59 4.28 4.18 4.21 4.41 4.79 5.23 5.83 6.64 7.73
1477.597 9.17 11.03 13.24 15.66 18.02 20.05 21.8 23.89 27.06 30.29
1516.177 31.2 28.07 21.66 14.91 10.23 7.64 6.18 5.27 4.71 4.34
1554.756 4.03 3.74 3.44 3.26 3.18 3.24 3.45 3.83 4.46 5.18
1593.336 5.68 5.74 5.39 5.01 4.92 4.96 4.76 4.23 3.53 2.88
1631.915 2.42 2.12 1.93 1.87 1.86 1.89 1.92 1.96 2.04 2.13
1670.495 2.24 2.36 2.51 2.73 3.03 3.35 3.79 4.39 5.16 6.29
1709.075 8.09 10.85 14.68 18.66 21.38 21.86 20.29 17.83 14.85 11.68
1747.654 9 6.89 5.44 4.52 3.92 3.48 3.12 2.79 2.51 2.29
1786.234 2.11 1.97 1.83 1.69 1.58 1.48 1.4 1.34 1.31 1.28
1824.813 1.26 1.23 1.23 1.23 1.23 1.24 1.25 1.24 1.25 1.26
1863.393 1.27 1.28 1.29 1.28 1.26 1.25 1.24 1.24 1.23 1.21
1901.972 1.19 1.15 1.12 1.1 1.09 1.06 1.03 1.01 0.9815 0.9604
1940.552 0.9273 0.8993 0.8847 0.87 0.8632 0.8697 0.875 0.8694 0.8659 0.8562
1979.131 0.8458 0.8427 0.843 0.8301 0.8047 0.796 0.798 0.8035 0.8118 0.8251
2017.711 0.8102 0.7956 0.7983 0.7957 0.7821 0.7625 0.7568 0.7367 0.7186 0.7213
2056.291 0.713 0.6958 0.6939 0.6927 0.6894 0.6732 0.6556 0.6569 0.6331 0.6148
2094.870 0.6238 0.633 0.6303 0.6263 0.6239 0.6305 0.632 0.6379 0.6377 0.6203
2133.450 0.6271 0.6309 0.639 0.6413 0.6477 0.6441 0.6435 0.6568 0.6401 0.6262
2172.029 0.6178 0.6126 0.6079 0.595 0.59 0.5838 0.5762 0.565 0.5649 0.576
2210.609 0.566 0.5573 0.5688 0.5681 0.5824 0.6103 0.6087 0.6182 0.644 0.6874
2249.188 0.7436 0.7716 0.7697 0.7478 0.7118 0.6624 0.6225 0.6038 0.5996 0.5929
2287.768 0.5796 0.5963 0.6207 0.6183 0.6263 0.6219 0.6207 0.6372 0.6304 0.6261
2326.347 0.6456 0.6571 0.6322 0.6233 0.649 0.6557 0.6378 0.6475 0.6639 0.6396
2364.927 0.6253 0.6127 0.5921 0.5854 0.5717 0.5588 0.5674 0.5751 0.5674 0.5723
2403.507 0.5794 0.5645 0.561 0.5763 0.5887 0.6111 0.6038 0.6086 0.642 0.6358
2442.086 0.6291 0.6297 0.6215 0.6146 0.6104 0.6225 0.6286 0.6259 0.6278 0.613
2480.666 0.593 0.586 0.5797 0.5774 0.6012 0.6076 0.594 0.5855 0.5868 0.5941
2519.245 0.5966 0.6027 0.6002 0.5991 0.6205 0.6268 0.5952 0.6079 0.6093 0.5969
2557.825 0.5955 0.5904 0.5882 0.5803 0.579 0.578 0.5914 0.5916 0.592 0.6032
2596.404 0.5899 0.5768 0.585 0.5865 0.5829 0.5587 0.549 0.562 0.5573 0.5654
2634.984 0.5776 0.5686 0.5639 0.5764 0.5624 0.5336 0.5418 0.5466 0.5219 0.516
2673.563 0.542 0.5507 0.5558 0.5804 0.6052 0.602 0.6112 0.6294 0.6224 0.6284
2712.143 0.651 0.6582 0.6401 0.63 0.6066 0.5951 0.6231 0.6349 0.6239 0.6021
2750.722 0.5865 0.5841 0.5596 0.5474 0.5645 0.5718 0.5805 0.5628 0.5493 0.5588
2789.302 0.5571 0.5768 0.5952 0.5774 0.5574 0.5853 0.6037 0.6229 0.6535 0.6521
2827.882 0.6629 0.6895 0.7261 0.763 0.7529 0.7212 0.7029 0.7083 0.7166 0.6859
2866.461 0.6763 0.6945 0.6885 0.6903 0.7255 0.7735 0.8135 0.8354 0.8733 0.9429
2905.041 1.02 1.1 1.18 1.31 1.46 1.63 1.78 1.85 1.82 1.72
2943.620 1.58 1.43 1.33 1.24 1.16 1.09 1.02 0.9846 0.9927 1.04
2982.200 1.09 1.13 1.18 1.25 1.31 1.36 1.41 1.48 1.59 1.72
3020.779 1.98 2.31 2.66 2.94 2.99 2.81 2.51 2.26 2.15 2.08
3059.359 1.96 1.83 1.71 1.55 1.4 1.29 1.21 1.12 1.05 1.03
3097.938 1.06 1.11 1.12 1.11 1.08 1.07 1.01 0.9456 0.9067 0.8482
3136.518 0.7844 0.7258 0.682 0.6521 0.6336 0.6259 0.639 0.6702 0.6542 0.606
3175.098 0.6132 0.6116 0.592 0.6084 0.6352 0.6304 0.5926 0.6184 0.6228 0.5782
3213.677 0.5521 0.547 0.5446 0.5434 0.5265 0.4873 0.5102 0.5155 0.5323 0.5825
3252.257 0.5728 0.5674 0.5457 0.5239 0.5512 0.5406 0.5211 0.5218 0.5405 0.5597
3290.836 0.5299 0.5277 0.5692 0.5565 0.5581 0.5578 0.531 0.5445 0.5743 0.6048
3329.416 0.6072 0.5871 0.5828 0.5889 0.5875 0.5931 0.6176 0.6232 0.5975 0.6001
3367.995 0.5891 0.5745 0.6303 0.6408 0.6664 0.6856 0.6921 0.7593 0.8092 0.8431
3406.575 0.8919 0.9515 1.01 1.08 1.16 1.22 1.27 1.32 1.38 1.46
3445.154 1.6 1.77 1.94 2.11 2.22 2.2 2.1 1.94 1.74 1.46
3483.734 1.24 1.07 0.9147 0.8402 0.7854 0.7439 0.6777 0.6269 0.674 0.6673
3522.314 0.5969 0.6136 0.6495 0.6279 0.5853 0.5757 0.5856 0.5918 0.6059 0.6216
3560.893 0.6083 0.5363 0.5292 0.544 0.5077 0.5613 0.5971 0.5844 0.5961 0.5624
3599.473 0.5028 0.5109 0.547 0.5609 0.5904 0.5826 0.5606 0.5562 0.5627 0.5873
3638.052 0.5625 0.5377 0.5617 0.5758 0.5546 0.5351 0.547 0.5694 0.5983 0.6118
3676.632 0.6311 0.6267 0.6032 0.59 0.5654 0.5553 0.572 0.5573 0.5562 0.5852
3715.211 0.5497 0.5336 0.5529 0.5457 0.5891 0.6406 0.6222 0.6113 0.569 0.5585
3753.791 0.597 0.5397 0.4882 0.4844 0.4869 0.4983 0.4883 0.4955 0.5128 0.5189
3792.370 0.5248 0.5138 0.5125 0.4951 0.4779 0.5483 0.5886 0.6147 0.612 0.5962
3830.950 0.631 0.6072 0.5823 0.5295 0.5438 0.6063 0.5472 0.506 0.5304 0.5502
3869.530 0.5613 0.5726 0.5698 0.5778 0.585 0.5777 0.552 0.5443 0.5619 0.5144
3908.109 0.5028 0.5143 0.5208 0.5626 0.5772 0.5633 0.5562 0.5893 0.5866 0.5033
3946.689 0.524 0.5804 0.5862 0.6093 0.615 0.5683 0.5651 0.5966 0.5821 0.5928
3985.268 0.6117 0.6041 0.5656 0.5555 0.5385
##END=
