##TITLE=p-Chlorophenylacetyl chloride
##JCAMP-DX=4.24
##DATA TYPE=INFRARED SPECTRUM
##ORIGIN=EPA-IR VAPOR PHASE LIBRARY
##OWNER=SRD/NIST
Collection (C) 2018 copyright by the U.S. Secretary of Commerce
on behalf of the United States of America. All rights reserved.
##CAS REGISTRY NO=25026-34-0
##MOLFORM=C 8 H 6 Cl 2 O
##$NIST SOURCE=MSDC-IR
##STATE=gas
##XUNITS=1/CM
##YUNITS=ABSORBANCE
##XFACTOR=1.
##YFACTOR=0.001
##DELTAX=1.92898
##FIRSTX=549.8
##LASTX=4000.7
##FIRSTY=2.45
##MAXX=4000.7
##MINX=549.759
##MAXY=0.06549
##MINY=0
##NPOINTS=1790
##XYDATA=(X++(Y..Y))
549.759 2.45 2.74 3.03 3.03 2.93 2.79 2.93 3.19 3.21 2.75
569.049 2.4 2.38 2.2569 2.007 1.8594 2.1356 2.1578 2.1209 2.1556 1.9096
588.339 1.7104 1.8152 1.8938 1.9208 1.9707 1.8536 1.7508 1.7338 1.7924 1.7579
607.628 1.7836 1.8484 1.6847 1.7335 1.9564 1.9766 1.9455 1.9251 1.8647 1.8811
626.918 2.024 2.1708 2.0795 1.9139 1.8334 1.8724 1.895 1.8913 1.7984 1.5798
646.208 1.601 1.653 1.784 1.7467 1.6202 1.6502 1.6577 1.7231 1.6046 1.5327
665.498 1.7998 2.0448 1.8989 1.8745 2.0441 1.9159 1.753 1.7195 1.7823 1.8855
684.787 1.8705 1.8755 1.96 1.9693 1.9037 1.902 1.9643 1.9306 1.9396 2.0175
704.077 2.0223 1.9459 1.8037 1.6438 1.6342 1.7046 1.6204 1.6122 1.6518 1.6467
723.367 1.7332 1.8462 1.8306 1.7998 1.8253 1.8777 1.8524 1.773 1.7989 1.8514
742.657 1.9151 1.8665 1.78 1.8288 1.8445 1.9062 1.98 2.0195 2.0722 2.0072
761.947 2.0601 1.9221 1.6591 1.6849 1.8315 1.9567 1.9746 1.956 1.94 1.9326
781.236 1.9201 1.7686 1.7102 1.8761 1.9588 1.9917 2.1018 2.198 2.2605 2.46
800.526 2.64 2.78 2.96 3.19 3.39 3.65 3.87 4.01 4.18 4.38
819.816 4.78 4.91 4.73 4.47 4.31 4.01 3.78 3.76 3.54 3.2
839.106 2.98 2.79 2.52 2.3118 2.188 2.1694 2.2098 2.1495 2.0132 2.0231
858.395 2.1049 2.0238 2.0004 2.0243 1.915 1.9498 1.9874 2.0388 2.0576 1.9221
877.685 1.7991 1.7168 1.775 1.8491 1.7702 1.672 1.7597 1.8944 1.7768 1.6151
896.975 1.6909 1.6921 1.6796 1.818 1.7705 1.6375 1.6298 1.741 1.8401 1.7608
916.265 1.7415 1.7296 1.6119 1.6331 1.7762 1.7761 1.7517 1.8124 1.8343 1.9175
935.555 1.9882 1.9418 1.8807 1.8762 1.9238 1.9168 1.8822 1.9101 1.8933 1.9173
954.844 2.088 2.0974 2.2527 2.3452 2.2253 2.2383 2.1385 2.0139 1.9248 1.99
974.134 2.0668 2.0357 2.0434 1.8981 1.7876 1.7346 1.6681 1.8071 2.0296 1.9208
993.424 1.7373 1.9661 2.1596 2.1672 2.2211 2.42 2.67 3.05 3.47 3.63
1012.714 3.71 3.75 3.85 3.77 3.39 3.2 2.84 2.49 2.2339 2.0756
1032.003 2.0257 1.908 1.8825 2.0026 2.0782 1.7156 1.5219 1.6717 1.7004 1.7138
1051.293 1.9653 2.1293 1.905 1.9466 2.2055 2.1782 2.2046 2.47 2.71 2.59
1070.583 2.42 2.38 2.38 2.53 2.79 3.06 3.48 4.01 4.14 4.27
1089.873 4.64 5.17 5.37 5.64 5.91 5.58 5.24 5.03 4.63 4.33
1109.163 4.54 4.32 4.05 4.31 4.15 3.59 3.56 3.67 3.41 3.13
1128.452 2.88 2.56 2.52 2.44 2.2901 2.54 2.44 2.3379 2.3506 2.39
1147.742 2.327 2.1871 2.57 2.83 2.67 2.71 2.99 3.26 3.47 3.69
1167.032 3.92 4.06 4.16 4.27 4.32 4.3 4.12 3.83 3.53 3.36
1186.322 3.17 2.96 2.61 2.2317 2.43 2.48 2.4 2.36 2.2991 2.47
1205.611 2.44 2.2926 2.2391 2.1577 2.2705 2.1412 1.9937 1.9998 1.7492 1.7884
1224.901 2.0449 1.9307 1.8477 1.8181 1.615 1.5416 1.484 1.41674 1.3224 1.168
1244.191 1.108 1.042 0.904 0.646 0.564 0.566 0.34 0.25 0.23 0.17
1263.481 0.32 0.387 0.28 0.32 0.31 0.25 0.06 0 0.04 0.07
1282.771 0.12 0.13 0.2 0.31 0.36 0.362 0.437 0.524 0.654 0.788
1302.060 0.846 0.994 1.195 1.232 1.2702 1.35036 1.3673 1.38921 1.45459 1.5321
1321.350 1.5091 1.5115 1.5706 1.5647 1.5573 1.5736 1.6231 1.6129 1.5805 1.595
1340.640 1.59 1.5951 1.5515 1.5616 1.6339 1.6509 1.6767 1.6936 1.7156 1.7543
1359.930 1.8013 1.8801 1.9176 1.9396 1.9757 1.9468 1.887 1.8872 1.8514 1.7702
1379.219 1.7241 1.6467 1.6165 1.6485 1.6351 1.6169 1.6509 1.7044 1.7424 1.8048
1398.509 1.8361 1.8329 1.8839 1.9637 1.9703 1.9309 1.9512 1.9564 1.8987 1.8675
1417.799 1.8791 1.865 1.8617 1.8905 1.8911 1.8407 1.7983 1.7788 1.7311 1.675
1437.089 1.648 1.6703 1.6878 1.6678 1.632 1.623 1.6501 1.6472 1.6435 1.6756
1456.378 1.7075 1.7413 1.7672 1.7974 1.8659 1.9727 2.0303 2.106 2.238 2.45
1475.668 2.8 3.25 3.88 4.73 5.79 7.06 8.3 9.39 10.24 10.68
1494.958 10.75 10.31 9.41 8.23 6.84 5.5 4.37 3.51 2.94 2.52
1514.248 2.2746 2.1141 1.9931 1.8926 1.8147 1.776 1.7072 1.6675 1.6704 1.6315
1533.538 1.5678 1.5574 1.5304 1.4894 1.4731 1.44175 1.43444 1.4887 1.4928 1.45754
1552.827 1.45466 1.45691 1.39506 1.3411 1.37962 1.4602 1.5656 1.5694 1.5149 1.4512
1572.117 1.45241 1.4958 1.4768 1.5191 1.5439 1.603 1.6019 1.5903 1.764 1.8316
1591.407 1.8374 1.8221 1.7935 1.8588 1.8523 1.7707 1.6949 1.5656 1.5167 1.4943
1610.697 1.44605 1.45954 1.4676 1.4953 1.561 1.5886 1.548 1.5566 1.5648 1.5319
1629.986 1.4824 1.527 1.5733 1.5127 1.4973 1.4746 1.5233 1.5783 1.5035 1.4606
1649.276 1.4756 1.39056 1.35953 1.37995 1.3634 1.43091 1.44673 1.38691 1.38949 1.42119
1668.566 1.36387 1.3382 1.3394 1.36917 1.4648 1.43618 1.37985 1.38013 1.38592 1.38612
1687.856 1.35678 1.3289 1.37147 1.38349 1.36311 1.39086 1.40563 1.39662 1.35228 1.38584
1707.146 1.4817 1.4922 1.4839 1.5097 1.5017 1.5064 1.5585 1.6178 1.6376 1.6076
1726.435 1.6219 1.6449 1.6388 1.6574 1.6708 1.7036 1.6857 1.6579 1.706 1.7081
1745.725 1.7114 1.7224 1.7714 1.8097 1.818 1.8078 1.81 1.8341 1.8007 1.8144
1765.015 1.8712 1.9072 1.9358 1.9815 2.033 2.0945 2.1958 2.2598 2.3359 2.42
1784.305 2.52 2.65 2.73 2.86 3.02 3.16 3.23 3.3 3.37 3.39
1803.594 3.4 3.38 3.35 3.35 3.37 3.34 3.25 3.1 2.95 2.82
1822.884 2.66 2.51 2.4 2.2904 2.1442 2.0606 2.0122 1.9524 1.9156 1.8495
1842.174 1.7759 1.7544 1.7222 1.7118 1.7355 1.6907 1.612 1.6138 1.6458 1.6852
1861.464 1.7165 1.7509 1.7609 1.7295 1.7564 1.7752 1.7642 1.7925 1.832 1.8135
1880.754 1.8063 1.7664 1.7111 1.7154 1.7215 1.7122 1.6881 1.6831 1.6806 1.6381
1900.043 1.6298 1.6594 1.6258 1.5738 1.5797 1.5823 1.5436 1.5154 1.5535 1.5658
1919.333 1.5265 1.5054 1.5351 1.5742 1.5756 1.5326 1.5278 1.5403 1.5364 1.5562
1938.623 1.5537 1.5762 1.583 1.553 1.5049 1.4645 1.4895 1.5415 1.554 1.5265
1957.913 1.5402 1.5281 1.4976 1.5702 1.621 1.6115 1.6073 1.5671 1.5486 1.5839
1977.202 1.5841 1.5423 1.5157 1.5014 1.5075 1.5163 1.5152 1.5474 1.5857 1.5948
1996.492 1.5757 1.5661 1.5309 1.5039 1.5485 1.5606 1.5704 1.5916 1.5349 1.5384
2015.782 1.6029 1.6078 1.6153 1.5932 1.5933 1.6658 1.697 1.7051 1.7142 1.7496
2035.072 1.8177 1.8454 1.8694 1.953 1.9633 1.9361 1.9866 2.0399 2.101 2.1766
2054.362 2.2391 2.3486 2.45 2.57 2.72 2.82 2.96 3.12 3.3 3.41
2073.651 3.47 3.6 3.71 3.8 3.91 4.06 4.29 4.59 4.97 5.4
2092.941 5.99 6.79 7.77 9.01 10.52 12.42 14.82 17.77 21.39 25.85
2112.231 31.17 37.3 44.08 51.06 57.55 62.63 65.44 65.49 63.04 58.68
2131.521 52.65 44.75 35.33 26.07 18.75 13.85 10.68 8.6 7.25 6.29
2150.810 5.61 5.12 4.78 4.53 4.33 4.14 3.99 3.9 3.82 3.68
2170.100 3.52 3.4 3.27 3.09 2.95 2.84 2.73 2.62 2.53 2.51
2189.390 2.5 2.46 2.42 2.43 2.42 2.38 2.39 2.37 2.3285 2.2748
2208.680 2.1983 2.149 2.1424 2.1065 2.0353 2.0177 2.0018 1.9271 1.921 1.897
2227.970 1.8855 1.8756 1.7814 1.7601 1.7659 1.7224 1.7001 1.7303 1.7633 1.7328
2247.259 1.7146 1.7366 1.7034 1.6387 1.6131 1.6475 1.6539 1.6355 1.6506 1.6747
2266.549 1.6896 1.6342 1.614 1.6264 1.6902 1.6696 1.5741 1.6446 1.708 1.6496
2285.839 1.6272 1.6866 1.6868 1.7284 1.7709 1.74 1.7521 1.7806 1.8135 1.836
2305.129 1.7981 1.8101 1.9012 1.9113 1.9361 1.9726 1.9566 1.9779 1.9894 1.9797
2324.418 1.9733 1.9999 1.9903 1.9351 1.9479 1.9808 1.9207 1.9006 1.9117 1.8517
2343.708 1.7994 1.8305 1.8542 1.8219 1.8741 1.9243 1.9576 2.0106 2.0678 2.0851
2362.998 2.103 2.1512 2.1429 2.096 2.0358 1.9739 1.9438 1.9192 1.8573 1.8093
2382.288 1.7353 1.6588 1.6242 1.5917 1.5636 1.5471 1.5648 1.5885 1.6217 1.598
2401.578 1.6113 1.6124 1.5713 1.5897 1.5475 1.5186 1.5361 1.5593 1.5775 1.5557
2420.867 1.5381 1.5923 1.6641 1.6578 1.589 1.5466 1.5385 1.5661 1.5866 1.5837
2440.157 1.581 1.5996 1.6292 1.6055 1.5932 1.6275 1.6232 1.6169 1.6622 1.6616
2459.447 1.6025 1.6328 1.7198 1.7507 1.7052 1.7059 1.7715 1.7074 1.6657 1.6946
2478.737 1.738 1.7221 1.7074 1.725 1.6557 1.6474 1.6492 1.5683 1.5259 1.5621
2498.026 1.6154 1.6458 1.6094 1.5499 1.5658 1.5394 1.4736 1.5001 1.5666 1.5609
2517.316 1.5101 1.505 1.591 1.6008 1.5288 1.5465 1.5825 1.5843 1.6106 1.6009
2536.606 1.544 1.5687 1.6469 1.6937 1.6197 1.592 1.6134 1.6025 1.5984 1.5341
2555.896 1.4861 1.4971 1.5009 1.5136 1.528 1.5631 1.6511 1.6394 1.5615 1.5532
2575.186 1.5938 1.6457 1.6196 1.5823 1.5607 1.5699 1.606 1.64 1.6191 1.5426
2594.475 1.5818 1.6115 1.6312 1.6316 1.5934 1.5367 1.5039 1.5418 1.5016 1.44609
2613.765 1.5116 1.5445 1.5488 1.6158 1.5549 1.5603 1.6091 1.5541 1.5714 1.5625
2633.055 1.547 1.5517 1.5427 1.543 1.5224 1.5203 1.5101 1.4946 1.5429 1.6559
2652.345 1.6462 1.5071 1.4879 1.5869 1.5844 1.5469 1.5747 1.5604 1.5875 1.6068
2671.634 1.6065 1.6807 1.789 1.8364 1.6664 1.5696 1.61 1.624 1.6111 1.6229
2690.924 1.6562 1.6392 1.6287 1.5922 1.5775 1.681 1.784 1.6958 1.599 1.574
2710.214 1.5824 1.5853 1.556 1.6207 1.688 1.6319 1.6014 1.6442 1.7978 1.8965
2729.504 1.691 1.5577 1.4879 1.42265 1.4876 1.5073 1.4965 1.5307 1.552 1.5617
2748.794 1.6529 1.9244 1.8864 1.5738 1.4905 1.5377 1.5575 1.5662 1.5611 1.6096
2768.083 1.6278 1.58 1.6907 2.0198 2.1237 1.8103 1.6683 1.5767 1.5139 1.5487
2787.373 1.4905 1.4661 1.4745 1.5324 1.6675 1.9698 2.0413 1.6703 1.5394 1.5519
2806.663 1.5453 1.6339 1.6179 1.5389 1.5516 1.5992 1.7175 1.9926 2.0072 1.703
2825.953 1.5857 1.6011 1.5198 1.4967 1.5953 1.5475 1.482 1.5824 1.8167 1.9161
2845.242 1.77 1.6668 1.5574 1.5866 1.6351 1.4925 1.4862 1.5604 1.5295 1.5896
2864.532 1.6782 1.616 1.5166 1.5037 1.5319 1.4913 1.4482 1.512 1.5748 1.6149
2883.822 1.5841 1.4789 1.5391 1.6591 1.6318 1.5923 1.5497 1.5991 1.6182 1.5448
2903.112 1.6491 1.8004 1.8138 1.7567 1.6395 1.4933 1.5045 1.5165 1.4921 1.6639
2922.401 1.8126 1.9615 1.9216 1.6807 1.6545 1.6962 1.7367 1.7685 1.7309 1.7577
2941.691 1.9474 2.1957 2.0566 1.7451 1.7412 1.6674 1.5792 1.601 1.6564 1.6782
2960.981 1.8642 2.1021 1.88 1.7562 1.7545 1.6865 1.7309 1.7264 1.8287 2.0646
2980.271 2.2532 2.0344 1.7393 1.7431 1.7605 1.7116 1.7324 1.7749 1.9868 2.1693
2999.561 1.8918 1.7829 1.7859 1.7481 1.7165 1.6482 1.8018 2.0136 2.0148 1.8407
3018.850 1.8254 1.9208 1.9047 1.9536 2.1423 2.43 2.57 2.48 2.37 2.3049
3038.140 2.3564 2.41 2.5 2.54 2.44 2.3447 2.2964 2.2852 2.36 2.41
3057.430 2.47 2.6 2.59 2.51 2.45 2.3295 2.3587 2.42 2.3451 2.2538
3076.720 2.226 2.2408 2.1893 2.2194 2.2971 2.2517 2.1757 2.1498 2.1013 2.0448
3096.009 2.0697 2.1062 2.0617 2.032 2.0244 1.9563 1.85 1.7683 1.7227 1.7541
3115.299 1.7606 1.6898 1.6661 1.7424 1.7638 1.7114 1.5889 1.5227 1.5857 1.6601
3134.589 1.617 1.5459 1.6153 1.5745 1.5141 1.45865 1.4641 1.5193 1.41357 1.39373
3153.879 1.5291 1.5777 1.5636 1.629 1.6174 1.5917 1.6555 1.688 1.6435 1.5168
3173.169 1.5022 1.6129 1.7023 1.7064 1.7366 1.6834 1.5788 1.636 1.667 1.6121
3192.458 1.6295 1.7009 1.6731 1.7778 1.8178 1.7569 1.7907 1.7676 1.9202 1.9889
3211.748 1.9265 1.9668 2.0488 2.035 1.9536 1.9888 1.9193 1.7622 1.7777 1.8281
3231.038 1.8374 1.8165 1.7636 1.7832 1.6818 1.664 1.777 1.7642 1.6288 1.5755
3250.328 1.6387 1.641 1.5213 1.5318 1.5954 1.5223 1.5939 1.6975 1.6642 1.5989
3269.617 1.5536 1.6132 1.6502 1.5683 1.5841 1.6563 1.652 1.5974 1.6343 1.7257
3288.907 1.7713 1.7097 1.6912 1.7184 1.7876 1.7774 1.7153 1.6133 1.5329 1.5812
3308.197 1.6517 1.7206 1.6695 1.603 1.474 1.5011 1.6186 1.5813 1.5698 1.5302
3327.487 1.5065 1.4728 1.5022 1.5777 1.581 1.6048 1.6079 1.5667 1.6094 1.6466
3346.777 1.612 1.5413 1.5326 1.5584 1.517 1.5794 1.6369 1.5815 1.5522 1.5864
3366.066 1.6311 1.6721 1.5882 1.532 1.6398 1.5572 1.5489 1.6827 1.6667 1.6052
3385.356 1.5247 1.5086 1.5752 1.5739 1.5101 1.5227 1.41111 1.3417 1.40095 1.5654
3404.646 1.6755 1.5901 1.5304 1.5486 1.5931 1.6075 1.6115 1.5586 1.482 1.4984
3423.936 1.5336 1.45305 1.5043 1.5408 1.4934 1.5984 1.5644 1.4881 1.5187 1.5279
3443.225 1.5238 1.44481 1.40857 1.4739 1.5331 1.5651 1.6192 1.5917 1.5717 1.6877
3462.515 1.619 1.5424 1.5361 1.6355 1.7667 1.796 1.9189 1.8762 1.7389 1.7442
3481.805 1.8029 1.9011 1.9397 1.9378 1.8581 1.7305 1.7442 1.7703 1.7968 1.7206
3501.095 1.6615 1.675 1.6417 1.5547 1.5397 1.4729 1.45212 1.546 1.4833 1.42591
3520.385 1.45515 1.5732 1.6133 1.5704 1.5463 1.5077 1.43869 1.45636 1.4865 1.551
3539.674 1.4895 1.4823 1.6467 1.6895 1.652 1.6713 1.7677 1.6861 1.5543 1.584
3558.964 1.5609 1.5268 1.5624 1.4901 1.5548 1.627 1.6264 1.675 1.613 1.6114
3578.254 1.6733 1.6953 1.6861 1.5782 1.5092 1.53 1.63 1.7289 1.6762 1.7034
3597.544 1.7039 1.5689 1.4768 1.5388 1.498 1.45612 1.5857 1.6044 1.5916 1.4772
3616.833 1.4706 1.5642 1.531 1.4835 1.491 1.5316 1.41035 1.35756 1.5626 1.6246
3636.123 1.5195 1.5762 1.5512 1.42499 1.41159 1.41391 1.44356 1.40152 1.3383 1.45026
3655.413 1.5134 1.40446 1.40653 1.4939 1.496 1.4893 1.5226 1.5638 1.6068 1.664
3674.703 1.675 1.5573 1.5605 1.6349 1.6232 1.5887 1.5989 1.6054 1.5247 1.6276
3693.993 1.7212 1.6455 1.5615 1.4798 1.5209 1.5973 1.5789 1.4997 1.4888 1.544
3713.282 1.5548 1.5641 1.5828 1.5716 1.6177 1.5836 1.5058 1.4321 1.42344 1.4978
3732.572 1.5759 1.5881 1.5803 1.6572 1.5219 1.38768 1.4735 1.5932 1.5698 1.556
3751.862 1.5736 1.5417 1.45491 1.45656 1.5221 1.5062 1.545 1.6022 1.6347 1.5595
3771.152 1.466 1.40015 1.44426 1.4845 1.4883 1.5252 1.5759 1.5347 1.42829 1.5632
3790.441 1.6897 1.6355 1.5798 1.5891 1.5708 1.5397 1.6507 1.7437 1.6333 1.5182
3809.731 1.5894 1.5944 1.5105 1.502 1.595 1.5968 1.5847 1.6793 1.6068 1.5152
3829.021 1.4331 1.43279 1.4618 1.4826 1.6171 1.5974 1.5195 1.4625 1.44653 1.4833
3848.311 1.5585 1.5264 1.508 1.6308 1.6274 1.5968 1.5646 1.5245 1.41582 1.4838
3867.601 1.5977 1.532 1.5523 1.5835 1.566 1.42553 1.35603 1.6005 1.6695 1.4746
3886.890 1.38283 1.4946 1.5643 1.6082 1.6472 1.5474 1.44855 1.4443 1.4648 1.44676
3906.180 1.4944 1.43812 1.43796 1.5338 1.45887 1.4725 1.6291 1.6793 1.6712 1.563
3925.470 1.40157 1.5399 1.6295 1.5093 1.5029 1.5658 1.6215 1.5844 1.5314 1.5668
3944.760 1.5728 1.5524 1.5683 1.45554 1.35934 1.40983 1.5828 1.6167 1.484 1.5248
3964.049 1.5672 1.5358 1.5403 1.5839 1.5886 1.5991 1.5429 1.584 1.6982 1.6528
3983.339 1.5863 1.5269 1.4665 1.44775 1.4645 1.5466 1.5236 1.38979 1.44477 1.5381
##END=
