##TITLE=2-Methoxy-5-methylbenzoic acid
##JCAMP-DX=4.24
##DATA TYPE=INFRARED SPECTRUM
##ORIGIN=EPA-IR VAPOR PHASE LIBRARY
##OWNER=SRD/NIST
Collection (C) 2018 copyright by the U.S. Secretary of Commerce
on behalf of the United States of America. All rights reserved.
##CAS REGISTRY NO=25045-36-7
##MOLFORM=C 9 H 10 O 3
##$NIST SOURCE=MSDC-IR
##STATE=gas
##XUNITS=1/CM
##YUNITS=ABSORBANCE
##XFACTOR=1.
##YFACTOR=0.001
##DELTAX=1.92898
##FIRSTX=549.8
##LASTX=4000.7
##FIRSTY=9.2638
##MAXX=4000.7
##MINX=549.759
##MAXY=0.137914
##MINY=0
##NPOINTS=1790
##XYDATA=(X++(Y..Y))
549.759 9.2638 9.2638 9.8838 10.5238 11.1038 11.5538 11.6638 11.6538 11.8938 12.4138
569.049 13.2038 13.5138 13.6938 14.5838 15.4738 15.8638 15.9938 16.1738 16.2438 16.2538
588.339 15.9938 15.5338 14.9538 14.0938 13.0538 12.0238 11.2938 10.5238 9.8738 9.2338
607.628 8.4538 7.8438 7.6238 7.4038 6.9738 6.7638 6.5738 6.4538 6.4938 6.6538
626.918 7.2238 8.3838 9.9938 11.6938 13.5238 15.1538 16.3638 17.2538 17.6438 17.8438
646.208 17.6638 16.5438 15.0538 13.5838 12.1038 10.6638 9.5038 8.5938 7.8338 7.2738
665.498 6.8538 6.4938 6.0138 5.7038 5.5138 5.3238 5.0338 4.7838 4.8038 4.8938
684.787 4.8738 4.8838 4.9038 4.9938 5.2338 5.4538 5.7738 6.2438 7.0238 8.0538
704.077 9.0538 9.9538 11.0338 12.0038 12.4938 12.8238 12.9438 12.7038 12.3438 11.9438
723.367 11.0538 10.0038 9.1338 8.3938 7.5838 6.9938 6.7538 6.3538 6.0838 6.2538
742.657 6.4938 6.6838 6.8038 6.8438 6.7338 6.5638 6.4338 6.2838 5.9738 5.3738
761.947 5.0038 4.6638 4.2738 4.0138 3.7138 3.6038 3.7138 3.8338 3.8938 4.0338
781.236 4.3938 4.6638 5.2538 6.0038 6.4538 7.0438 7.8738 8.7738 9.8538 11.1138
800.526 12.6038 14.3038 16.1238 17.4238 17.8838 17.8938 17.6838 17.2938 16.8338 15.8138
819.816 14.4438 13.4338 12.1638 10.7938 9.4738 8.0338 6.9338 5.9838 5.1838 4.4338
839.106 3.8638 3.5338 3.0338 2.7538 2.4938 2.2238 1.9738 1.7938 1.7138 1.5538
858.395 1.4638 1.2738 1.1938 1.5638 1.7338 1.5538 1.6038 1.7738 1.8338 1.8638
877.685 1.9038 2.1538 2.6238 2.7638 2.9038 3.3338 3.7338 3.9238 4.0738 4.3238
896.975 4.3838 4.3738 4.4838 4.5838 4.3438 3.8438 3.3638 2.9838 2.8338 2.6338
916.265 2.3938 2.3538 2.4438 2.4338 2.1238 1.9738 1.9038 1.8938 1.9238 1.9338
935.555 2.0838 2.0638 2.1938 2.4138 2.4638 2.5138 2.5638 2.5538 2.6438 2.6238
954.844 2.5738 2.6938 2.7638 2.8938 3.0138 3.2838 3.6838 3.7538 3.9338 4.4638
974.134 4.9338 5.0538 5.3038 5.7138 6.0838 6.6038 7.0238 7.5538 8.4538 9.1038
993.424 9.4838 10.1338 11.0538 12.1538 13.2938 14.3638 15.4738 16.6538 17.8838 19.5038
1012.714 21.1538 22.5538 23.6538 24.6238 25.3338 25.6338 25.8838 26.0738 26.0938 25.6138
1032.003 24.8338 24.1038 23.3138 23.2438 23.7738 24.6838 25.6938 26.9138 28.7338 30.4738
1051.293 31.4738 31.8838 31.9338 31.5538 30.5538 28.9538 26.5438 23.4638 20.6838 18.5338
1070.583 16.7438 15.2738 14.1138 13.5038 13.4238 13.1238 13.2738 13.5138 12.8338 12.5338
1089.873 12.5738 11.6538 10.8338 10.6638 10.1838 9.6638 9.5538 9.5538 9.4738 9.3138
1109.163 9.8638 10.1538 10.2538 11.1338 12.0338 12.6538 13.5638 15.0038 16.9938 19.0538
1128.452 20.9238 23.7638 26.7938 29.6438 32.6238 35.4338 38.0838 39.8838 41.2238 42.7038
1147.742 43.9438 45.2538 46.4338 47.5938 48.6438 49.4038 50.0238 50.3138 50.2838 49.5038
1167.032 47.9538 45.7938 43.2038 40.1938 37.5538 35.7338 33.7838 31.8338 30.5638 29.5138
1186.322 28.5038 27.2238 25.6038 24.0338 22.4638 21.1038 20.1938 19.5038 18.6738 18.3738
1205.611 18.7438 19.0938 19.5338 20.5438 21.8938 23.3038 25.0838 27.0038 29.0438 31.7838
1224.901 34.8038 37.2738 40.0838 43.5538 46.4238 48.7538 50.9838 52.7138 53.2538 53.6538
1244.191 54.0038 53.6538 52.7338 51.5338 50.6738 49.8938 48.8938 48.1538 47.9038 47.5638
1263.481 47.0538 47.0138 47.0738 47.2138 47.3438 47.5338 47.9738 48.0938 47.8238 47.1938
1282.771 46.2338 44.9038 43.1038 41.0338 38.7738 36.4838 34.4538 32.5738 30.8038 29.3738
1302.060 28.1938 27.2238 26.4838 25.8538 25.5938 25.5338 25.4438 25.5138 25.7438 26.1238
1321.350 26.6138 27.1538 27.7538 28.4738 29.3238 30.1938 31.0038 31.8438 32.6538 33.3338
1340.640 33.9338 34.5238 35.0438 35.4438 35.8638 36.3238 36.7438 37.1838 37.6838 38.2538
1359.930 38.8438 39.4238 39.8438 40.1338 40.2938 40.1638 39.6938 38.9238 37.8238 36.5938
1379.219 35.1238 33.4938 31.8338 30.2438 28.9938 28.0438 27.4638 27.2338 27.4738 28.1938
1398.509 29.2338 30.7738 32.6538 34.7238 36.8738 38.8638 40.5538 41.8638 42.6538 42.7438
1417.799 42.0638 40.6438 38.7438 36.4438 33.8038 31.1838 28.6038 26.3238 24.5838 23.3638
1437.089 22.6338 22.3938 22.3838 22.5438 22.7738 22.8138 22.6438 22.4438 22.3638 22.3338
1456.378 22.3738 22.4338 22.6938 23.1538 23.5538 23.9938 24.5338 25.2038 25.9138 26.6838
1475.668 27.6638 28.9738 30.6738 33.1138 36.5438 40.8938 46.0538 51.6338 57.1438 61.9438
1494.958 65.5538 67.6738 67.9338 66.3138 62.8238 57.6838 51.1338 44.1338 37.1338 30.2838
1514.248 24.2738 19.2838 15.3438 12.5238 10.3938 8.8138 7.6138 6.8338 6.1338 5.5638
1533.538 5.1938 4.8138 4.5438 4.3138 4.1938 4.0838 3.9938 3.9138 3.8738 3.8938
1552.827 3.8538 4.0038 4.2738 4.4238 4.5338 4.7038 5.1438 5.7038 6.2638 6.8738
1572.117 7.5038 8.1838 8.8138 9.3538 9.9138 10.3238 10.5838 10.5838 10.3138 10.0738
1591.407 9.9338 9.8038 9.5838 9.5538 9.9038 10.4938 11.2938 12.0838 12.6938 13.0838
1610.697 13.2738 13.3038 13.0238 12.3138 11.2938 10.2338 9.0738 7.8038 6.7038 5.8338
1629.986 5.0138 4.3838 3.9438 3.5938 3.3638 3.1938 3.0238 2.8238 2.6938 2.5538
1649.276 2.4138 2.3938 2.2838 2.2338 2.1838 2.1238 2.1638 2.1938 2.1838 2.2238
1668.566 2.2738 2.2638 2.3338 2.4638 2.4838 2.4738 2.6038 2.8038 2.9538 3.0938
1687.856 3.2338 3.3838 3.6938 3.9938 4.3638 4.7638 5.1238 5.6238 6.1638 6.7338
1707.146 7.3738 8.0538 8.7738 9.5738 10.3738 11.2738 12.4538 13.6938 15.0438 16.5538
1726.435 18.3338 20.4538 22.9838 25.8738 29.3238 33.2438 37.4238 42.0038 46.2238 50.0038
1745.725 53.6138 57.3638 61.3838 65.9038 71.0838 77.1538 84.6638 93.4538 103.444 114.324
1765.015 125.004 133.584 137.914 137.364 132.634 126.014 118.104 107.374 93.1238 77.5138
1784.305 62.9038 50.4638 41.1138 34.2738 29.1438 25.2838 22.2738 19.7538 17.7138 15.8238
1803.594 14.0538 12.5438 11.2238 9.9238 8.7938 7.9038 7.1338 6.4338 5.8938 5.5738
1822.884 5.2938 4.9838 4.8238 4.6638 4.4538 4.3638 4.2938 4.2138 4.1138 3.9538
1842.174 3.8238 3.7538 3.6738 3.5338 3.3438 3.0938 2.9238 2.8238 2.6738 2.4838
1861.464 2.3038 2.1538 2.0638 2.0038 1.9138 1.8138 1.7638 1.8238 1.8538 1.8338
1880.754 1.7838 1.7538 1.7738 1.7538 1.7338 1.7438 1.7738 1.7838 1.7938 1.7238
1900.043 1.5638 1.5438 1.4738 1.3738 1.3838 1.3338 1.2338 1.2138 1.2738 1.2438
1919.333 1.2038 1.1438 1.1038 1.1338 1.1938 1.2038 1.1238 1.1738 1.2238 1.1538
1938.623 1.1038 1.1138 1.1738 1.2138 1.2138 1.1638 1.1338 1.1938 1.2738 1.2438
1957.913 1.2638 1.3138 1.3438 1.4138 1.3938 1.3638 1.4138 1.4738 1.5038 1.4838
1977.202 1.4438 1.4838 1.5338 1.5738 1.5838 1.6038 1.6338 1.5738 1.5438 1.5938
1996.492 1.6038 1.5738 1.5538 1.5038 1.5638 1.6638 1.6138 1.5338 1.5738 1.6038
2015.782 1.5338 1.5438 1.5438 1.5438 1.5638 1.5638 1.5138 1.4438 1.4338 1.4338
2035.072 1.4838 1.5038 1.4738 1.4538 1.4238 1.3538 1.3138 1.3638 1.3838 1.3238
2054.362 1.2338 1.1738 1.1838 1.1438 1.1238 1.1338 1.0738 1.0371 1.0354 1.0023
2073.651 0.994 0.9649 0.9216 0.8755 0.8278 0.7421 0.7255 0.7628 0.79 0.8154
2092.941 0.8394 0.8506 0.7998 0.788 0.7748 0.7047 0.6936 0.7792 0.8404 0.7869
2112.231 0.724 0.7804 0.7851 0.7459 0.6554 0.5972 0.6213 0.6176 0.5798 0.522
2131.521 0.5369 0.5355 0.506 0.4968 0.4803 0.447 0.5017 0.5829 0.5202 0.3816
2150.810 0.3533 0.3882 0.419 0.4451 0.421 0.429 0.4333 0.4629 0.4233 0.3914
2170.100 0.4431 0.4215 0.3797 0.3979 0.4511 0.4136 0.3982 0.4076 0.387 0.3581
2189.390 0.3144 0.3558 0.4263 0.3757 0.3575 0.4302 0.3777 0.3464 0.4458 0.4254
2208.680 0.4074 0.438 0.4288 0.3483 0.2662 0.3578 0.4368 0.4555 0.4412 0.4397
2227.970 0.4277 0.5054 0.5977 0.5273 0.4783 0.536 0.5919 0.6467 0.6774 0.6778
2247.259 0.6578 0.6482 0.6697 0.6824 0.6851 0.679 0.6924 0.6274 0.5616 0.5743
2266.549 0.5787 0.6328 0.6022 0.5336 0.544 0.6271 0.704 0.6156 0.5257 0.5263
2285.839 0.5518 0.575 0.5803 0.5833 0.5621 0.5589 0.5251 0.4375 0.5192 0.5884
2305.129 0.5275 0.545 0.5209 0.4409 0.4833 0.5327 0.5622 0.5667 0.5619 0.5769
2324.418 0.5352 0.5067 0.4951 0.438 0.4788 0.5219 0.486 0.5618 0.525 0.4534
2343.708 0.5369 0.5594 0.523 0.4822 0.4964 0.5519 0.597 0.5796 0.5555 0.5994
2362.998 0.5965 0.5706 0.5974 0.6285 0.6277 0.6344 0.6214 0.5469 0.509 0.5327
2382.288 0.5024 0.5223 0.5253 0.531 0.5722 0.5463 0.4874 0.4429 0.4472 0.4918
2401.578 0.5504 0.5115 0.5109 0.5434 0.4725 0.4993 0.5548 0.5306 0.5647 0.502
2420.867 0.4124 0.4634 0.5032 0.4545 0.4253 0.4896 0.5535 0.5052 0.4721 0.5189
2440.157 0.5361 0.5296 0.5426 0.5589 0.5525 0.5155 0.4935 0.4588 0.416 0.5683
2459.447 0.68 0.6315 0.6537 0.734 0.7803 0.7102 0.6209 0.5862 0.6265 0.6736
2478.737 0.6773 0.6163 0.595 0.6592 0.6237 0.6556 0.7163 0.6568 0.5927 0.5705
2498.026 0.56 0.5993 0.7047 0.6313 0.5608 0.67 0.7472 0.7537 0.748 0.8046
2517.316 0.7712 0.7558 0.7987 0.7733 0.7924 0.8631 0.9121 0.8608 0.8107 0.7412
2536.606 0.6855 0.7701 0.8518 0.7206 0.6822 0.6945 0.5903 0.6748 0.7582 0.6792
2555.896 0.5825 0.5973 0.6255 0.6562 0.6098 0.5391 0.625 0.5388 0.5091 0.5501
2575.186 0.553 0.6279 0.5223 0.5002 0.5175 0.4335 0.4954 0.569 0.5691 0.5615
2594.475 0.4654 0.4296 0.4572 0.4796 0.4729 0.4402 0.5255 0.5216 0.4686 0.5518
2613.765 0.5738 0.5216 0.4459 0.4754 0.4911 0.4713 0.5198 0.5854 0.589 0.495
2633.055 0.5243 0.5306 0.541 0.6225 0.6683 0.6975 0.6668 0.5604 0.5845 0.6332
2652.345 0.6162 0.6728 0.6597 0.6673 0.6759 0.6423 0.6267 0.6524 0.6588 0.5266
2671.634 0.4476 0.5196 0.5399 0.4979 0.5558 0.6079 0.6338 0.5462 0.5071 0.6085
2690.924 0.6193 0.5678 0.4866 0.4776 0.4428 0.4784 0.5723 0.7267 0.8123 0.7611
2710.214 0.7693 0.7272 0.6507 0.7063 0.8193 0.8111 0.7851 0.7658 0.7834 0.8331
2729.504 0.8894 0.9191 0.8924 0.9621 1.1638 1.2338 1.1738 1.1838 1.2338 1.3038
2748.794 1.3438 1.3238 1.2238 1.1938 1.2738 1.2738 1.1938 1.016 0.9796 1.0122
2768.083 0.9771 0.9425 0.877 0.9078 1.0266 1.1538 1.1238 1.0164 1.1138 1.2338
2787.373 1.1538 1.1238 1.2038 1.2638 1.3538 1.3838 1.4338 1.4438 1.3338 1.4238
2806.663 1.6338 1.7638 1.8638 2.0138 2.1638 2.3638 2.5538 2.6938 2.9938 3.1538
2825.953 3.3738 3.7438 4.1638 4.7838 5.4338 6.0338 6.6638 7.4438 8.0838 8.5238
2845.242 9.0238 9.5138 9.6738 9.6138 9.4638 9.2738 9.1638 8.8738 8.6638 8.6838
2864.532 8.6438 8.7038 8.7138 8.6638 8.8238 8.9338 8.9738 9.0038 8.9438 8.9338
2883.822 8.8438 8.7338 8.6538 8.6038 8.5938 8.5738 8.6038 8.7038 8.9038 9.1738
2903.112 9.5138 9.8938 10.1738 10.6238 11.1438 11.5938 12.0838 12.8138 13.7038 14.3938
2922.401 15.0738 15.9438 16.9438 17.9238 18.8238 19.7138 20.4538 20.9338 21.3438 21.5638
2941.691 21.5038 21.4338 21.2338 20.8838 20.6338 20.2238 19.7738 19.3038 18.7738 18.1638
2960.981 17.4238 16.5338 15.5338 14.3938 13.3338 12.6238 11.9238 11.3938 11.0538 10.7238
2980.271 10.5238 10.2438 9.8838 9.7138 9.6838 9.6538 9.8338 10.1538 10.3838 10.7338
2999.561 11.1038 11.6838 12.3138 12.7838 13.5138 13.9938 14.0638 14.1338 13.9638 13.5238
3018.850 13.1538 12.8138 12.4238 12.1138 11.9538 11.9338 11.9138 11.8638 11.9238 11.8638
3038.140 11.7338 11.2938 10.6338 9.9738 9.2738 8.6838 7.9738 7.1338 6.6038 6.3438
3057.430 6.0938 5.8738 5.6338 5.5138 5.4338 5.4738 5.5838 5.4038 5.3538 5.5138
3076.720 5.3538 5.0838 4.9538 4.8438 4.6138 4.2038 3.8938 3.6938 3.5038 3.2938
3096.009 3.0338 2.9938 2.9338 2.6938 2.5538 2.3938 2.2438 2.2438 2.2538 2.2138
3115.299 2.1638 2.1338 2.0538 1.9638 1.7738 1.7538 1.8138 1.6938 1.6338 1.4738
3134.589 1.2538 1.1738 1.2238 1.3638 1.4838 1.4338 1.2938 1.1438 1.1938 1.2238
3153.879 1.0838 1.0023 1.0006 1.0571 1.0078 1.0151 1.0509 0.9211 0.9999 1.0559
3173.169 1.0838 1.3038 1.2638 1.1538 1.2638 1.2538 1.0938 1.1438 1.2938 1.2538
3192.458 1.2038 1.2138 1.1838 1.1738 1.1838 1.1538 1.1938 1.1638 1.1138 1.0838
3211.748 1.0659 1.1738 1.2238 1.2338 1.1038 1.1038 1.2238 1.1138 0.9261 1.0474
3231.038 1.1938 1.1038 1.0838 1.0357 1.0938 1.2438 1.1438 1.0602 1.1638 1.1538
3250.328 0.9687 1.0135 1.0541 1.0051 1.1838 1.3538 1.3838 1.2438 1.1838 1.2138
3269.617 1.2838 1.4238 1.4038 1.4038 1.3938 1.2138 1.2638 1.4338 1.4538 1.4338
3288.907 1.5338 1.6438 1.6338 1.6738 1.8038 1.8538 1.6438 1.7438 1.9538 1.9538
3308.197 2.1138 2.3438 2.3838 2.2938 2.3838 2.5338 2.6638 2.6738 2.6638 2.7138
3327.487 2.7338 2.9438 3.2438 3.1238 2.9638 3.2238 3.4138 3.4838 3.5338 3.7838
3346.777 4.0938 4.3938 4.5338 4.7338 5.1038 5.0438 5.1138 5.5338 5.8938 6.3438
3366.066 6.8138 7.3038 7.8238 8.1738 8.4638 8.9438 9.4638 9.9438 10.4838 10.7938
3385.356 10.9938 11.4138 11.9638 12.3238 12.4938 12.7638 13.1238 13.4338 13.7038 14.0638
3404.646 14.3938 14.6738 14.9538 15.1438 15.5238 15.8938 16.2638 16.6438 17.0138 17.2438
3423.936 17.3338 17.7338 18.1738 18.2638 18.1738 18.3338 18.2038 17.8938 17.4938 17.1738
3443.225 17.0938 16.5938 15.9438 15.5138 15.0438 14.4838 13.9638 13.5438 13.2138 12.8338
3462.515 12.2838 11.7538 11.3138 10.8338 10.3638 9.9138 9.4238 9.0538 8.7638 8.3938
3481.805 7.9138 7.3338 7.0538 6.8638 6.5838 6.1638 5.8838 5.5738 5.2938 5.1138
3501.095 4.9038 4.7738 4.5138 4.3338 4.2038 4.0338 3.7938 3.7938 3.7638 3.7238
3520.385 3.7138 3.6738 3.4438 3.2638 3.3338 3.2538 3.2238 3.1838 2.9038 2.7138
3539.674 2.6038 2.4438 2.3438 2.5038 2.6238 2.7938 3.2938 4.1738 5.3538 7.3138
3558.964 10.1338 13.1838 16.0238 18.0638 19.6438 21.0138 21.9738 22.3138 21.9638 20.3738
3578.254 17.6038 14.7438 12.4538 10.4638 8.6938 7.0938 5.6138 4.2538 3.1738 2.6138
3597.544 2.2338 1.8738 1.5938 1.3438 1.2038 1.1038 1.057 1.0938 0.9509 1.0048
3616.833 0.9949 0.7324 0.6867 0.7374 0.7568 0.7845 0.8827 0.7484 0.6576 0.6609
3636.123 0.3626 0.2249 0.4105 0.5284 0.4603 0.369 0.506 0.6359 0.5425 0.4759
3655.413 0.3408 0.2673 0.2687 0.3215 0.4366 0.3633 0.342 0.3411 0.1928 0.1815
3674.703 0.3332 0.4156 0.3528 0.3834 0.3729 0.3208 0.293 0.2043 0.2805 0.4025
3693.993 0.326 0.2749 0.3021 0.3227 0.327 0.405 0.4476 0.216 0.3 0.4844
3713.282 0.412 0.2917 0.06 0.16334 0.3665 0.3384 0.2907 0.22 0.2849 0.3651
3732.572 0.4329 0.4026 0.3081 0.3634 0.3503 0.11923 0.15511 0.2585 0.314 0.3858
3751.862 0.2757 0.3141 0.3748 0.35 0.2849 0.14673 0.079806 0.2206 0.306 0.3197
3771.152 0.2692 0.2014 0.4362 0.5227 0.4809 0.4787 0.3254 0.2195 0.1711 0.2874
3790.441 0.3073 0.283 0.3719 0.3706 0.2598 0.3799 0.5246 0.3646 0.2673 0.14883
3809.731 0.15549 0.3234 0.3651 0.495 0.5389 0.4095 0.2663 0.15051 0.10647 0.13667
3829.021 0.2721 0.2748 0.1959 0.2253 0.38 0.4894 0.4855 0.3943 0.2439 0.1842
3848.311 0.2635 0.3081 0.3097 0.4941 0.6126 0.4611 0.2836 0.2751 0.4731 0.472
3867.601 0.2102 0.3102 0.4552 0.3575 0.5459 0.6071 0.4783 0.4172 0.3628 0.3957
3886.890 0.4747 0.5273 0.4666 0.323 0.2217 0.2501 0.14415 0 0.10021 0.2502
3906.180 0.2327 0.2198 0.1943 0.1658 0.2705 0.3102 0.3156 0.3301 0.3054 0.3881
3925.470 0.427 0.4091 0.6102 0.6475 0.5624 0.5425 0.4375 0.2625 0.0569 0.073362
3944.760 0.276 0.3729 0.3152 0.2844 0.2632 0.3727 0.429 0.4246 0.4179 0.3629
3964.049 0.4047 0.3686 0.3252 0.4156 0.5483 0.6418 0.4877 0.364 0.4692 0.394
3983.339 0.2004 0.2175 0.3727 0.4095 0.4087 0.551 0.4922 0.243 0.1799 0.1958
##END=
