##TITLE=Ethyl-.beta.-phenyl propionate
##JCAMP-DX=4.24
##DATA TYPE=INFRARED SPECTRUM
##ORIGIN=EPA-IR VAPOR PHASE LIBRARY
##OWNER=SRD/NIST
Collection (C) 2018 copyright by the U.S. Secretary of Commerce
on behalf of the United States of America. All rights reserved.
##CAS REGISTRY NO=2510-99-8
##MOLFORM=C 11 H 14 O 2
##$NIST SOURCE=MSDC-IR
##STATE=gas
##XUNITS=1/CM
##YUNITS=ABSORBANCE
##XFACTOR=1.
##YFACTOR=0.001
##DELTAX=3.85796
##FIRSTX=501.5
##LASTX=4000.7
##FIRSTY=3.5824
##MAXX=4000.7
##MINX=501.534
##MAXY=0.110462
##MINY=0
##NPOINTS=908
##XYDATA=(X++(Y..Y))
501.534 3.5824 3.1624 2.9924 2.6624 2.2024 1.9224 1.8224 1.7924 1.8624 1.9624
540.114 2.2124 2.7624 3.4524 4.2224 4.8824 4.9524 4.3824 3.3824 2.6124 2.3724
578.693 2.1824 1.9624 1.9424 1.9824 1.9124 1.8724 1.8424 1.7624 1.6924 1.6024
617.273 1.5924 1.6524 1.6424 1.7024 1.8524 2.0124 2.0924 2.1924 2.3724 2.5124
655.852 2.7224 3.1224 3.7324 4.5824 5.8224 7.3724 9.2424 11.7324 15.1624 19.4224
694.432 23.0824 24.3124 22.7824 19.5224 16.1824 13.7424 12.2324 11.4324 11.2024 11.5624
733.011 12.4824 13.8424 15.0824 15.3924 14.4024 12.4424 10.2824 8.6524 7.5624 6.7824
771.591 6.0924 5.5224 5.0924 4.7524 4.4224 4.1324 3.8624 3.5624 3.2924 3.0324
810.170 2.7924 2.6124 2.4824 2.3924 2.4324 2.5424 2.7224 3.0024 3.3824 3.8624
848.750 4.2924 4.6024 4.8124 4.7924 4.5724 4.2424 3.8524 3.4224 3.0824 2.8524
887.330 2.7124 2.6724 2.7224 2.8124 2.8224 2.8224 2.8624 2.9124 3.0724 3.3624
925.909 3.7524 4.1824 4.6024 5.0924 5.6024 5.8424 5.7224 5.3824 4.9724 4.6024
964.489 4.3124 4.1024 3.8924 3.7424 3.7124 3.7624 3.9424 4.3924 5.0924 5.9724
1003.068 7.1124 8.4324 9.9724 11.7124 13.7824 16.5324 19.9024 23.6624 27.5824 30.8824
1041.648 32.6924 32.3524 29.8024 26.0024 22.2424 19.4524 17.7624 16.7824 16.1924 15.7024
1080.227 15.2024 15.0324 15.5824 16.7624 18.0824 19.0224 19.3124 19.2124 19.3224 20.0024
1118.807 21.5824 24.4224 28.6724 34.7124 42.5324 51.5924 61.2924 70.3624 77.5224 82.3824
1157.387 84.3224 83.4224 80.3624 75.8124 70.7824 65.9924 61.8724 58.7624 56.5924 54.9924
1195.966 53.7324 52.4224 51.0324 50.1524 49.9824 50.1524 50.5824 51.3224 52.0224 52.3824
1234.546 52.3224 51.7924 50.5424 48.6124 45.9124 42.5224 38.9224 35.4624 32.6624 30.6424
1273.125 29.1224 28.0124 27.2524 26.6424 26.0124 25.3524 24.5624 23.6824 22.6924 21.4524
1311.705 19.9624 18.4224 17.1024 16.2424 15.9324 16.2324 17.1024 18.4224 19.9424 21.0224
1350.284 21.0824 20.1724 19.0324 18.9924 20.9324 23.4524 24.4424 22.8524 19.1224 15.2824
1388.864 12.6524 11.1224 10.1424 9.3824 8.7724 8.3824 8.3024 8.6124 9.3024 10.2424
1427.443 11.2624 12.1824 12.9524 13.7224 14.5424 15.2924 15.6724 15.4724 14.6924 13.6624
1466.023 12.6524 11.6624 10.6524 9.6924 9.1024 9.3624 10.7924 12.7424 13.5024 12.2924
1504.603 9.3424 6.0524 4.2024 3.3724 2.9424 2.7124 2.5624 2.4424 2.3624 2.2924
1543.182 2.2024 2.1324 2.1124 2.1424 2.1924 2.2424 2.3024 2.3924 2.5724 2.8424
1581.762 3.2024 3.7124 4.3624 5.1424 5.9924 6.6724 6.7024 5.9324 4.6824 3.4324
1620.341 2.6324 2.2324 2.0224 1.9224 1.9224 1.9624 2.0124 2.0824 2.1624 2.2324
1658.921 2.2824 2.3724 2.5024 2.6624 2.8924 3.1824 3.5324 4.0324 4.6224 5.3924
1697.500 6.3724 7.5324 8.8524 10.3924 12.1624 14.3624 17.2324 21.2624 27.3724 36.4224
1736.080 49.2424 65.1924 83.1524 99.5724 110.142 110.462 99.7124 81.7024 62.4424 45.5424
1774.659 32.5724 23.6024 17.7124 14.0024 11.6424 9.9024 8.4124 7.0824 5.9424 5.0324
1813.239 4.3324 3.7824 3.3524 2.9824 2.6824 2.4724 2.3424 2.2624 2.2024 2.1924
1851.819 2.2224 2.2524 2.3224 2.3924 2.4424 2.5024 2.5124 2.4224 2.2424 2.0524
1890.398 1.8824 1.7524 1.6524 1.5824 1.5824 1.5924 1.6424 1.7224 1.8424 1.9724
1928.978 2.1124 2.2424 2.3324 2.3924 2.4224 2.4224 2.3324 2.1124 1.7824 1.4624
1967.557 1.2724 1.2024 1.1724 1.1524 1.1524 1.1724 1.1624 1.1524 1.1424 1.1324
2006.137 1.1124 1.0824 1.0424 0.9999 0.9753 0.9521 0.9215 0.8803 0.8542 0.8407
2044.716 0.8202 0.8272 0.8282 0.7912 0.7741 0.7844 0.7866 0.7927 0.8043 0.8033
2083.296 0.7826 0.7864 0.7966 0.7601 0.7216 0.6673 0.6084 0.5793 0.5689 0.5505
2121.875 0.5154 0.5154 0.5053 0.4833 0.4727 0.4678 0.448 0.4275 0.4421 0.4503
2160.455 0.4369 0.4246 0.4078 0.397 0.4106 0.4104 0.3885 0.3746 0.3774 0.3771
2199.035 0.3852 0.4005 0.3898 0.3819 0.3743 0.3882 0.3855 0.3706 0.3765 0.3545
2237.614 0.3323 0.3389 0.355 0.3433 0.3657 0.3875 0.3827 0.3928 0.3848 0.3707
2276.194 0.3902 0.4116 0.4198 0.4301 0.4526 0.4751 0.5065 0.5551 0.5754 0.593
2314.773 0.6482 0.6705 0.6303 0.6178 0.6272 0.6459 0.6342 0.5951 0.5741 0.5567
2353.353 0.5261 0.5045 0.4963 0.4734 0.452 0.4477 0.434 0.4146 0.3965 0.3717
2391.932 0.3637 0.3645 0.3671 0.3512 0.3423 0.3575 0.3664 0.3712 0.3686 0.3529
2430.512 0.338 0.3256 0.3131 0.3002 0.2934 0.2871 0.2858 0.2929 0.3126 0.3034
2469.092 0.2663 0.2599 0.2509 0.2288 0.2265 0.1925 0.158 0.1482 0.1459 0.1512
2507.671 0.1454 0.1326 0.12125 0.12135 0.1396 0.1715 0.1648 0.1612 0.1635 0.1555
2546.251 0.1487 0.134 0.1416 0.1243 0.11916 0.1546 0.1624 0.1854 0.2131 0.2282
2584.830 0.2454 0.2603 0.2758 0.3047 0.3362 0.3391 0.3368 0.3265 0.3021 0.2996
2623.410 0.2925 0.2675 0.2563 0.2519 0.2464 0.2554 0.2567 0.2431 0.2503 0.2824
2661.989 0.2839 0.2392 0.2326 0.2408 0.231 0.2262 0.2216 0.2276 0.2353 0.2461
2700.569 0.2456 0.2373 0.2573 0.2643 0.2705 0.3066 0.3328 0.3514 0.3586 0.3754
2739.148 0.4111 0.462 0.5056 0.5092 0.5012 0.51 0.5798 0.6532 0.7183 0.8067
2777.728 0.8956 0.9705 1.0224 1.0324 1.0324 1.0424 1.0524 1.0824 1.1324 1.1924
2816.308 1.2624 1.4024 1.5724 1.7124 1.8724 2.0724 2.3124 2.5824 2.8924 3.3024
2854.887 3.8424 4.4724 5.1724 5.8624 6.4724 6.9824 7.3824 7.6924 7.9524 8.1024
2893.467 8.2124 8.5224 9.1624 10.1224 11.2624 12.5924 14.0424 15.6424 17.4824 19.5424
2932.046 21.7724 23.8624 25.4124 25.9824 25.3824 23.9824 22.5124 21.7324 21.8524 22.6324
2970.626 24.0424 26.3324 29.4424 32.2324 32.9924 31.0324 27.1324 23.1624 20.2824 18.2924
3009.205 16.8624 15.9424 15.7324 16.4924 18.2424 20.4124 21.9424 21.7524 19.6924 16.6024
3047.785 13.8924 12.3624 12.1224 13.2624 15.7024 18.4124 19.6124 18.7124 16.1024 13.2024
3086.364 11.3424 10.1324 9.0724 8.0024 6.9824 6.0424 5.1924 4.3724 3.5024 2.7024
3124.944 2.0624 1.5924 1.3024 1.1224 1.0172 0.9333 0.8565 0.8389 0.8099 0.7627
3163.524 0.7121 0.6666 0.6155 0.5442 0.4923 0.4458 0.4267 0.4142 0.3731 0.3506
3202.103 0.3494 0.3158 0.252 0.2145 0.2159 0.2199 0.2184 0.1649 0.1271 0.1533
3240.683 0.1518 0.10105 0.09027 0.10182 0.07321 0.05634 0.06896 0.05241 0.0036 0.0084
3279.262 0.06473 0.1029 0.05076 0.01926 0.0691 0.05997 0.03844 0.0366 0.024622 0.0546
3317.842 0.08977 0.09717 0.08494 0.0622 0.0396 0.05013 0.09022 0.09703 0.04885 0
3356.421 0.030945 0.08921 0.11801 0.10494 0.06618 0.06919 0.09963 0.08319 0.05922 0.07531
3395.001 0.08365 0.04666 0.027805 0.07142 0.10585 0.10544 0.11768 0.1598 0.2118 0.2108
3433.580 0.2008 0.2718 0.3058 0.292 0.3191 0.3891 0.3988 0.4245 0.555 0.675
3472.160 0.802 0.9559 1.0824 1.1524 1.2224 1.2324 1.1224 0.985 0.8477 0.7209
3510.740 0.6433 0.5517 0.4123 0.3454 0.3688 0.3275 0.2684 0.2418 0.2305 0.2284
3549.319 0.1974 0.1674 0.1269 0.10309 0.08767 0.03805 0.06718 0.10258 0.07855 0.07332
3587.899 0.0819 0.08881 0.09642 0.09066 0.08475 0.09502 0.10199 0.12085 0.10863 0.07837
3626.478 0.08526 0.1277 0.1588 0.1391 0.1498 0.1744 0.214 0.2355 0.1793 0.1541
3665.058 0.147 0.1836 0.195 0.1794 0.1754 0.1516 0.1889 0.18 0.1856 0.1992
3703.637 0.1364 0.11101 0.1386 0.1702 0.2122 0.1696 0.10188 0.1347 0.1615 0.1875
3742.217 0.1891 0.1851 0.1698 0.1692 0.1814 0.1602 0.1531 0.1431 0.2044 0.2413
3780.797 0.1933 0.1986 0.1971 0.1252 0.10383 0.1741 0.2412 0.2924 0.2633 0.2155
3819.376 0.2021 0.2203 0.2279 0.1972 0.212 0.1816 0.1529 0.1446 0.1657 0.2266
3857.956 0.2413 0.2465 0.2355 0.1898 0.1953 0.2106 0.2369 0.2452 0.2149 0.231
3896.535 0.2585 0.2417 0.2062 0.1761 0.1588 0.1657 0.1773 0.2237 0.2299 0.2067
3935.115 0.1985 0.2268 0.2566 0.2015 0.1564 0.1872 0.2306 0.2353 0.1935 0.1558
3973.694 0.1483 0.2111 0.2921 0.304 0.2594 0.2744 0.3161 0.288
##END=
