##TITLE=3,5-Dimethylisoxazole-4-carboxylic acid
##JCAMP-DX=4.24
##DATA TYPE=INFRARED SPECTRUM
##ORIGIN=EPA-IR VAPOR PHASE LIBRARY
##OWNER=SRD/NIST
Collection (C) 2018 copyright by the U.S. Secretary of Commerce
on behalf of the United States of America. All rights reserved.
##CAS REGISTRY NO=2510-36-3
##MOLFORM=C 6 H 7 N O 3
##$NIST SOURCE=MSDC-IR
##STATE=gas
##XUNITS=1/CM
##YUNITS=ABSORBANCE
##XFACTOR=1.
##YFACTOR=0.001
##DELTAX=1.92898
##FIRSTX=549.8
##LASTX=4000.7
##FIRSTY=39.951
##MAXX=4000.7
##MINX=549.759
##MAXY=0.298801
##MINY=0
##NPOINTS=1790
##XYDATA=(X++(Y..Y))
549.759 39.951 38.491 37.741 41.301 45.821 43.621 38.581 39.471 42.571 35.841
569.049 28.371 26.831 26.131 25.521 23.991 21.611 19.591 18.371 17.341 16.541
588.339 15.561 14.491 13.581 12.051 10.011 8.481 7.171 6.161 5.771 5.311
607.628 4.971 4.981 5.251 5.261 4.571 4.021 3.971 3.661 3.081 3.111
626.918 3.161 3.191 2.921 2.531 2.791 2.621 2.181 2.251 2.361 2.371
646.208 2.841 3.411 3.721 4.061 4.641 5.221 5.871 6.711 7.751 9.291
665.498 10.891 11.851 11.661 10.721 10.331 10.451 10.491 11.091 11.751 12.441
684.787 14.071 16.781 20.771 26.451 33.291 39.351 43.611 45.481 46.561 47.991
704.077 47.591 45.611 44.281 42.151 37.211 30.011 22.211 15.641 11.221 8.261
723.367 6.191 5.121 4.351 3.971 3.401 2.801 2.591 2.451 2.451 2.461
742.657 2.631 2.631 2.771 3.071 3.301 3.661 4.291 4.791 5.191 5.911
761.947 7.031 8.471 9.831 10.941 12.201 13.321 13.941 14.941 17.091 20.701
781.236 24.541 22.851 16.601 13.551 13.071 12.461 11.411 10.491 9.511 8.081
800.526 6.911 5.711 4.671 4.151 3.911 3.731 3.481 3.361 3.341 3.471
819.816 3.651 3.611 3.581 3.281 2.981 3.251 3.071 2.681 2.911 3.001
839.106 2.841 2.781 2.521 2.001 1.911 2.531 2.801 2.871 3.051 3.071
858.395 3.311 3.721 4.231 4.771 5.221 5.891 6.651 7.151 7.731 8.121
877.685 8.421 8.351 7.921 7.851 7.671 7.201 6.521 5.571 4.891 4.361
896.975 4.081 3.761 3.411 3.171 2.711 2.551 2.411 2.261 2.191 1.931
916.265 1.861 1.801 1.791 1.661 1.521 1.821 1.911 1.661 1.661 1.811
935.555 1.971 2.111 1.881 1.781 2.181 2.611 2.811 2.841 2.831 3.021
954.844 3.611 4.391 5.041 5.651 6.551 7.741 8.801 9.951 10.801 11.461
974.134 12.061 12.531 12.831 12.881 12.481 12.141 11.931 11.251 10.811 10.131
993.424 9.381 8.611 8.301 8.341 8.171 8.311 8.631 9.111 9.541 10.021
1012.714 10.911 12.141 13.961 16.631 19.331 22.421 26.121 30.251 33.931 36.941
1032.003 40.061 42.681 44.861 46.911 48.071 48.391 48.091 46.261 43.221 40.361
1051.293 37.821 35.301 33.821 33.211 32.841 33.801 36.241 39.141 42.961 48.941
1070.583 57.361 67.701 80.551 95.401 111.041 125.291 137.081 147.191 152.131 153.831
1089.873 154.261 150.411 142.841 133.091 118.731 101.251 82.741 64.421 48.711 36.071
1109.163 27.521 21.701 16.411 12.911 11.011 9.701 8.861 7.771 7.421 7.421
1128.452 7.411 8.051 7.851 7.531 8.321 8.151 7.821 8.121 8.341 8.591
1147.742 8.361 7.751 7.801 8.501 8.521 7.901 7.891 8.161 8.551 9.271
1167.032 9.771 10.621 12.051 12.911 13.761 15.861 17.961 19.361 21.621 24.481
1186.322 26.761 27.931 28.461 28.721 28.781 28.481 27.451 27.301 26.971 24.821
1205.611 22.201 20.721 19.731 18.921 19.001 19.491 20.071 20.461 20.841 21.551
1224.901 22.361 22.081 21.431 20.651 19.711 18.571 16.871 15.571 14.501 13.641
1244.191 12.691 11.651 11.301 10.991 10.871 10.861 11.161 12.261 13.271 14.161
1263.481 15.381 16.451 16.901 17.741 18.771 18.961 18.811 18.771 18.311 17.621
1282.771 16.961 15.791 14.691 14.121 13.301 12.531 12.141 11.861 11.991 12.291
1302.060 12.691 13.641 14.711 15.731 16.891 18.231 19.751 21.211 22.661 24.041
1321.350 25.021 25.711 26.161 26.081 25.511 24.801 23.791 22.451 21.011 19.431
1340.640 17.841 16.231 14.591 13.321 12.451 11.971 11.861 12.001 12.271 12.621
1359.930 13.081 13.601 14.231 14.821 15.481 16.141 16.861 17.681 18.631 19.751
1379.219 20.681 21.271 21.541 21.501 21.231 20.941 20.671 20.481 20.381 19.821
1398.509 18.631 17.421 16.791 16.961 17.981 19.691 22.071 24.991 28.521 32.481
1417.799 36.661 41.041 45.391 49.561 53.301 56.591 59.491 61.801 63.541 64.531
1437.089 64.751 64.481 63.641 62.291 60.811 59.371 57.591 55.471 53.361 51.331
1456.378 48.971 46.521 44.061 41.221 38.151 34.961 31.821 28.791 25.921 23.521
1475.668 21.491 19.491 17.491 15.601 13.991 12.791 12.001 11.421 11.271 11.331
1494.958 11.391 11.501 11.621 11.641 11.431 11.161 10.861 10.511 10.151 9.631
1514.248 9.071 8.641 8.241 7.711 7.241 6.921 6.711 6.681 6.701 6.611
1533.538 6.571 6.681 6.721 6.821 7.131 7.341 7.511 7.831 8.091 8.421
1552.827 8.971 9.431 9.791 10.221 10.671 11.181 11.661 12.221 12.801 13.411
1572.117 14.271 15.201 16.341 17.541 18.901 20.751 22.991 25.681 28.841 32.361
1591.407 36.111 40.191 44.481 48.921 53.201 57.021 60.141 62.511 63.941 64.281
1610.697 63.401 61.741 59.371 56.041 51.931 47.291 42.241 37.251 32.761 28.681
1629.986 25.051 22.011 19.491 17.061 15.051 13.221 11.481 10.101 9.031 8.041
1649.276 7.231 6.751 6.301 5.901 5.671 5.411 5.131 4.911 4.741 4.701
1668.566 4.691 4.651 4.681 4.641 4.531 4.631 4.871 5.131 5.371 5.761
1687.856 6.331 6.831 7.391 8.021 8.781 9.901 11.011 11.921 12.631 13.181
1707.146 13.501 13.541 13.561 13.751 14.061 14.411 14.751 15.441 16.421 17.731
1726.435 19.551 22.341 26.411 32.391 41.211 53.661 70.741 93.411 121.491 153.921
1745.725 188.191 220.871 248.501 270.191 285.741 295.171 298.801 296.651 287.461 269.121
1765.015 241.351 206.281 166.961 128.111 93.741 67.251 48.741 36.521 28.631 23.421
1784.305 19.801 17.051 15.181 13.911 12.881 12.201 11.821 11.581 11.601 11.671
1803.594 11.671 11.861 12.111 12.081 11.811 11.401 10.681 9.661 8.591 7.631
1822.884 6.741 5.881 5.111 4.421 3.851 3.401 3.071 2.751 2.541 2.511
1842.174 2.381 2.251 2.281 2.301 2.321 2.331 2.321 2.301 2.251 2.181
1861.464 2.091 2.121 2.211 2.111 2.001 1.971 1.991 1.981 2.011 2.091
1880.754 2.061 1.961 1.891 1.931 1.991 2.001 2.011 2.051 2.001 1.921
1900.043 1.811 1.801 1.831 1.741 1.751 1.821 1.771 1.751 1.761 1.791
1919.333 1.891 1.921 1.931 1.941 1.901 1.921 1.921 1.891 1.911 1.881
1938.623 1.681 1.551 1.501 1.461 1.451 1.3592 1.3021 1.2345 1.25 1.2738
1957.913 1.1984 1.1239 1.1028 1.0385 0.8762 0.8807 0.8817 0.8741 0.9032 0.823
1977.202 0.7314 0.789 0.8597 0.7951 0.755 0.8194 0.851 0.795 0.7875 0.8302
1996.492 0.8496 0.8551 0.947 1.0388 1.0636 1.053 1.1319 1.1748 1.1661 1.2404
2015.782 1.259 1.3271 1.3466 1.2318 1.1394 1.2042 1.3551 1.3888 1.3795 1.3415
2035.072 1.2765 1.3412 1.2988 1.2145 1.315 1.2072 1.0779 1.0226 0.9666 1.0312
2054.362 1.0414 0.9855 0.8966 0.8715 0.9658 1.0367 0.9675 0.8602 0.7857 0.8004
2073.651 0.8472 0.8196 0.8348 0.8406 0.9492 0.9822 0.8974 0.9584 0.9857 0.967
2092.941 1.0184 1.0265 0.9591 0.9528 0.9302 1.0064 1.1202 1.1278 1.2135 1.1402
2112.231 1.0835 1.177 1.2256 1.2782 1.3378 1.4037 1.4059 1.521 1.511 1.551
2131.521 1.621 1.511 1.531 1.631 1.561 1.531 1.601 1.541 1.511 1.501
2150.810 1.621 1.721 1.651 1.591 1.691 1.711 1.621 1.641 1.701 1.671
2170.100 1.621 1.571 1.601 1.691 1.701 1.661 1.621 1.471 1.3619 1.3513
2189.390 1.3276 1.2556 1.2252 1.1038 1.0787 1.1043 0.8988 0.8304 0.8375 0.8364
2208.680 0.8363 0.7941 0.7716 0.836 0.8268 0.733 0.6794 0.7567 0.8426 0.7463
2227.970 0.7109 0.7932 0.7817 0.6952 0.7001 0.6669 0.6485 0.7017 0.8143 0.8632
2247.259 0.7991 0.8552 0.8919 0.9358 0.8467 0.7169 0.8173 0.867 0.7602 0.6229
2266.549 0.5871 0.698 0.6924 0.6987 0.6914 0.571 0.6474 0.6252 0.6986 0.7882
2285.839 0.7034 0.7322 0.7169 0.7604 0.8166 0.9073 0.9541 0.9141 0.9173 0.9182
2305.129 0.9723 1.0126 1.0624 1.1454 1.152 1.1353 1.2261 1.1874 1.0382 1.0698
2324.418 1.0319 0.9988 1.1828 1.1612 1.0982 1.1485 1.1209 1.083 1.0399 1.1023
2343.708 1.0707 1.0141 1.1088 1.1995 1.302 1.3502 1.3621 1.3849 1.3887 1.481
2362.998 1.601 1.621 1.601 1.581 1.521 1.461 1.481 1.551 1.551 1.471
2382.288 1.451 1.501 1.461 1.461 1.551 1.481 1.421 1.441 1.481 1.491
2401.578 1.461 1.571 1.621 1.581 1.491 1.491 1.591 1.541 1.481 1.3553
2420.867 1.2728 1.3272 1.3955 1.2736 1.2108 1.279 1.1823 1.1451 1.1381 1.1922
2440.157 1.2615 1.1687 1.1064 1.1852 1.2452 1.2738 1.2681 1.1864 1.1763 1.1623
2459.447 1.2112 1.2728 1.134 1.1009 1.0455 0.9075 0.9522 0.9204 0.9926 1.0494
2478.737 0.9671 1.0026 0.9679 1.0072 1.1027 1.1276 0.991 0.765 0.6884 0.7272
2498.026 0.6648 0.7169 0.7699 0.7093 0.8031 0.8145 0.86 0.8982 0.8812 0.8297
2517.316 0.8854 1.0378 1.0315 1.0195 0.8772 0.8635 0.9885 0.9096 0.9053 1.0176
2536.606 1.0756 0.9186 0.7974 0.9492 0.895 0.7881 0.895 0.907 0.8121 0.7404
2555.896 0.6719 0.6543 0.8031 0.8773 0.7979 0.7018 0.6512 0.8057 0.9328 0.8627
2575.186 0.6653 0.597 0.5691 0.50811 0.5403 0.472 0.3875 0.5485 0.7449 0.6796
2594.475 0.5737 0.5919 0.6376 0.6367 0.7161 0.6679 0.6029 0.726 0.8087 0.7549
2613.765 0.7354 0.6344 0.6522 0.7052 0.684 0.6715 0.7119 0.7444 0.7297 0.6359
2633.055 0.5812 0.7934 0.9014 0.9116 0.9297 0.9217 0.8673 0.8368 0.8563 0.7027
2652.345 0.6185 0.8226 0.8384 0.775 0.8202 0.8046 0.8308 0.8166 0.693 0.6123
2671.634 0.5908 0.5281 0.4569 0.48644 0.6043 0.7384 0.719 0.7809 0.7075 0.5892
2690.924 0.7417 0.806 0.7513 0.7507 0.7384 0.817 0.8765 0.8614 0.9831 0.8418
2710.214 0.7519 0.8848 0.9202 0.8683 0.8112 0.7951 0.8046 0.8107 0.6764 0.5628
2729.504 0.6275 0.6995 0.7148 0.7289 0.7952 0.8376 0.763 0.7316 0.8247 0.8716
2748.794 0.8466 0.6854 0.577 0.7702 0.8259 0.7379 0.7399 0.7243 0.7446 0.6992
2768.083 0.7018 0.7974 0.8852 0.9381 0.9975 0.9139 0.7312 0.6723 0.7379 0.8951
2787.373 0.9384 1.0294 1.1276 0.9296 0.8093 0.9696 1.0984 1.2449 1.2741 1.1946
2806.663 1.3853 1.511 1.4126 1.3257 1.3996 1.531 1.601 1.541 1.4048 1.561
2825.953 1.581 1.571 1.811 1.811 1.661 1.711 1.781 1.781 1.871 2.061
2845.242 1.991 2.021 2.211 2.321 2.341 2.191 2.201 2.351 2.541 2.561
2864.532 2.601 2.761 2.791 2.931 2.961 2.841 2.821 2.751 2.621 2.581
2883.822 2.521 2.421 2.401 2.301 2.211 2.151 2.121 2.051 1.951 1.871
2903.112 1.971 2.021 2.041 2.121 2.121 2.061 2.081 2.391 2.561 2.661
2922.401 3.131 3.541 4.001 4.641 5.041 5.631 6.461 7.401 8.421 9.261
2941.691 10.041 10.881 11.351 11.491 11.571 11.301 10.831 10.451 9.841 9.011
2960.981 8.221 7.351 6.491 5.791 5.261 5.001 4.861 4.621 4.751 5.071
2980.271 5.091 5.171 5.401 5.821 6.161 6.321 6.151 5.831 5.901 5.931
2999.561 5.761 5.661 5.531 5.321 5.371 5.261 4.921 4.871 4.681 4.461
3018.850 4.361 4.011 3.691 3.471 3.241 3.161 3.061 2.911 2.751 2.681
3038.140 2.751 2.661 2.561 2.451 2.531 2.681 2.661 2.471 2.401 2.221
3057.430 2.031 2.181 2.141 2.021 1.981 1.911 1.771 1.751 1.971 1.961
3076.720 1.851 1.771 1.741 1.861 1.761 1.621 1.641 1.601 1.501 1.471
3096.009 1.541 1.501 1.4025 1.4167 1.461 1.471 1.451 1.3458 1.1696 1.292
3115.299 1.481 1.315 1.158 1.0319 1.163 1.3354 1.3449 1.471 1.2558 0.9933
3134.589 0.9214 0.903 0.9453 0.8955 0.9581 0.9858 0.954 0.9932 0.8922 0.8337
3153.879 0.7915 0.6895 0.8147 0.8514 0.7904 0.9361 0.9851 0.854 0.7834 0.762
3173.169 0.7475 0.839 0.8674 0.8123 0.7928 0.7533 0.6103 0.6941 0.8078 0.7319
3192.458 0.8328 0.8299 0.7966 0.8386 0.6826 0.638 0.7362 0.5529 0.5582 0.6134
3211.748 0.6173 0.844 0.8425 0.7834 0.7894 0.7313 0.5307 0.5388 0.5852 0.6243
3231.038 0.6266 0.7025 0.8192 0.6395 0.5213 0.45954 0.50305 0.424433 0.3869 0.6042
3250.328 0.5391 0.3898 0.3883 0.44783 0.3356 0.19 0.209 0.29 0.45898 0.5458
3269.617 0.5454 0.322 0.247 0.3472 0.3973 0.5283 0.7011 0.428017 0.122 0.3287
3288.907 0.424409 0.45303 0.5413 0.6134 0.47357 0.216 0.264 0.3949 0.44183 0.3362
3308.197 0.178 0.24 0.3754 0.43766 0.5533 0.5939 0.43526 0.5347 0.48596 0.3629
3327.487 0.50032 0.4102 0.403 0.43943 0.430804 0.7 0.7679 0.5659 0.6485 0.5959
3346.777 0.6254 0.865 0.7523 0.6429 0.8462 1.0644 1.0556 0.9491 1.0127 1.127
3366.066 1.0835 0.9327 1.0556 1.098 0.8126 0.5266 0.5477 0.6802 0.6551 0.5262
3385.356 0.48733 0.6415 0.6866 0.7657 0.8035 0.6688 0.3367 0.3596 0.5803 0.47556
3404.646 0.3648 0.5535 0.5905 0.44421 0.43719 0.322 0.281 0.195 0.45293 0.6286
3423.936 0.45672 0.50564 0.4167 0.295 0.47143 0.5736 0.3737 0.48212 0.5369 0.6589
3443.225 0.6558 0.47812 0.6675 0.6997 0.5805 0.527 0.3866 0.3536 0.5482 0.6482
3462.515 0.5618 0.7171 0.7437 0.6604 0.9461 0.862 0.7128 1.0202 1.2678 1.2999
3481.805 1.481 1.651 1.821 2.031 2.101 2.101 2.201 2.181 2.081 2.301
3501.095 2.331 2.211 2.141 1.891 1.711 1.611 1.741 1.861 1.531 1.2404
3520.385 1.1374 1.0876 1.3506 1.347 1.253 1.531 1.541 1.2321 1.1448 1.2564
3539.674 1.551 1.821 2.041 2.301 2.741 3.571 4.591 5.871 7.741 10.991
3558.964 15.731 21.671 29.411 38.961 49.691 60.241 68.111 72.201 73.491 73.851
3578.254 73.831 71.721 67.461 62.381 55.131 44.691 32.981 22.231 14.101 8.911
3597.544 5.911 4.111 3.251 2.611 1.971 1.681 1.2552 1.1724 1.2542 1.123
3616.833 0.9516 0.9617 0.9611 0.9953 0.9984 0.8858 0.7449 0.8891 1.0724 1.119
3636.123 1.0965 0.8282 0.872 0.7266 0.5847 0.6777 0.653 0.7096 0.6648 0.5743
3655.413 0.48857 0.297 0.191 0.247 0.44837 0.6431 0.5787 0.44212 0.3322 0.177
3674.703 0.27 0.3986 0.3508 0.281 0.4329 0.6472 0.7957 0.6359 0.46307 0.5279
3693.993 0.427075 0.5439 0.7421 0.6581 0.5467 0.46104 0.3927 0.3337 0.3488 0.46971
3713.282 0.5503 0.554 0.5767 0.547 0.409 0.317 0.317 0.45009 0.46616 0.191
3732.572 0.196 0.3635 0.302 0.172 0 0.079 0.226 0.303 0.32 0.3428
3751.862 0.3601 0.3862 0.3667 0.173 0.13 0.391 0.7232 0.7322 0.5411 0.51089
3771.152 0.5653 0.5375 0.6212 0.7215 0.44815 0.44779 0.5218 0.208 0.304 0.5492
3790.441 0.51891 0.5339 0.43461 0.279 0.201 0.257 0.144 0.003 0.3287 0.50154
3809.731 0.3469 0.3253 0.264 0.149 0.059 0.226 0.5234 0.49486 0.279 0.315
3829.021 0.43686 0.5446 0.6527 0.46215 0.3513 0.3727 0.3436 0.3421 0.422808 0.3523
3848.311 0.308 0.5318 0.6297 0.44936 0.27 0.48431 0.4486 0.274 0.29 0.24
3867.601 0.41708 0.6495 0.43545 0.135 0.242 0.49038 0.5756 0.50348 0.44846 0.50672
3886.890 0.5625 0.6035 0.6268 0.4045 0.307 0.48764 0.6944 0.5475 0.186 0.217
3906.180 0.44525 0.5508 0.3721 0.3366 0.5238 0.51172 0.50363 0.463 0.46129 0.254
3925.470 0.219 0.3949 0.45813 0.5591 0.6606 0.7844 0.8647 0.7999 0.6003 0.45962
3944.760 0.47926 0.5805 0.50194 0.47944 0.5269 0.4033 0.4097 0.3697 0.275 0.46989
3964.049 0.6531 0.5356 0.5955 0.6199 0.426708 0.3 0.263 0.46192 0.51552 0.6072
3983.339 0.49573 0.269 0.296 0.49128 0.5366 0.41811 0.5267 0.3922 0.117 0.176
##END=
