##TITLE=2,3-Diphenylacrylonitrile
##JCAMP-DX=4.24
##DATA TYPE=INFRARED SPECTRUM
##ORIGIN=EPA-IR VAPOR PHASE LIBRARY
##OWNER=SRD/NIST
Collection (C) 2018 copyright by the U.S. Secretary of Commerce
on behalf of the United States of America. All rights reserved.
##CAS REGISTRY NO=2510-95-4
##MOLFORM=C 15 H 11 N
##$NIST SOURCE=MSDC-IR
##STATE=gas
##XUNITS=1/CM
##YUNITS=ABSORBANCE
##XFACTOR=1.
##YFACTOR=0.001
##DELTAX=1.92898
##FIRSTX=549.8
##LASTX=4000.7
##FIRSTY=2.175
##MAXX=4000.7
##MINX=549.759
##MAXY=0.060315
##MINY=0
##NPOINTS=1790
##XYDATA=(X++(Y..Y))
549.759 2.175 2.095 2.165 2.285 2.515 2.385 2.715 3.215 3.245 3.845
569.049 4.885 5.975 7.485 9.605 11.795 12.945 13.195 12.755 11.105 8.845
588.339 6.745 5.325 4.465 3.555 3.055 2.795 2.645 2.695 2.575 2.325
607.628 2.345 2.645 2.645 2.635 2.795 2.945 2.915 2.615 2.505 2.535
626.918 2.605 2.575 2.605 2.825 2.925 3.125 3.245 3.155 3.275 3.645
646.208 3.785 3.825 4.175 4.605 4.795 5.435 6.755 7.995 9.225 11.055
665.498 13.445 15.835 18.565 21.535 24.555 28.095 32.105 36.505 41.235 46.005
684.787 50.915 55.425 59.185 60.315 57.455 53.295 49.205 44.985 40.535 36.115
704.077 32.085 28.655 26.025 24.095 22.445 21.195 20.385 19.625 19.105 18.805
723.367 18.585 18.345 18.355 18.635 19.015 19.455 19.985 20.735 21.685 22.795
742.657 24.085 25.785 27.955 30.565 33.555 36.675 39.675 42.195 43.625 43.585
761.947 41.665 38.365 34.745 31.105 27.545 23.875 20.475 17.855 15.785 13.995
781.236 12.485 11.085 9.985 8.935 7.965 7.275 6.545 6.045 5.495 4.785
800.526 4.305 4.035 3.905 3.535 3.135 3.195 3.295 3.035 2.805 2.865
819.816 3.015 3.255 3.485 3.615 3.655 3.555 3.315 3.115 2.705 2.255
839.106 2.095 1.905 1.965 2.035 2.005 1.985 2.025 2.095 2.315 2.495
858.395 2.495 2.825 3.275 3.475 3.685 4.005 4.305 4.605 5.135 5.625
877.685 5.945 6.305 6.595 6.825 7.025 7.195 7.045 6.735 6.415 5.945
896.975 5.725 5.815 5.895 6.085 6.245 6.305 6.675 7.065 7.475 7.915
916.265 8.115 8.065 8.105 8.155 7.805 7.135 6.405 5.755 5.225 4.675
935.555 4.195 3.755 3.285 2.905 2.735 2.685 2.375 2.325 2.415 2.315
954.844 2.325 2.275 2.245 2.395 2.285 2.285 2.425 2.465 2.705 2.925
974.134 3.155 3.455 3.685 4.005 4.555 5.175 5.325 5.475 5.685 5.585
993.424 5.605 5.965 6.745 7.495 7.515 7.455 7.295 6.255 5.055 3.925
1012.714 3.335 3.375 3.455 3.685 3.975 4.575 5.685 7.065 8.055 8.165
1032.003 7.885 7.235 5.995 4.645 3.585 2.985 2.565 2.155 2.125 2.345
1051.293 2.495 2.575 2.595 2.485 2.835 3.425 3.735 4.175 4.745 5.165
1070.583 4.975 4.785 4.815 4.855 4.725 4.415 3.965 3.535 3.225 3.155
1089.873 2.895 2.725 2.695 2.465 2.865 2.775 2.035 1.815 1.945 2.015
1109.163 1.475 1.415 1.765 1.545 1.245 1.1007 1.2027 1.245 0.9069 0.6049
1128.452 0.7818 0.8882 0.9732 0.8896 1.0176 0.9208 0.524 0.822 1.071 1.096
1147.742 0.9543 0.7763 1.0918 1.475 1.545 1.465 1.405 1.505 1.465 1.385
1167.032 1.235 1.425 1.995 2.435 2.715 2.985 3.915 5.335 6.675 7.595
1186.322 8.015 7.865 6.965 5.475 4.305 3.625 3.085 2.855 2.425 1.865
1205.611 1.855 1.905 1.905 1.705 1.745 2.055 2.615 3.175 3.235 3.415
1224.901 3.545 3.705 3.865 3.895 3.865 3.655 3.705 3.885 3.975 4.325
1244.191 4.965 5.855 6.705 7.675 8.305 8.295 7.855 7.095 5.815 4.335
1263.481 3.245 2.535 2.185 2.015 2.015 1.865 1.795 1.905 1.765 1.735
1282.771 1.745 1.745 1.895 1.985 2.075 2.225 2.285 2.305 2.335 2.385
1302.060 2.525 2.635 2.585 2.515 2.435 2.315 2.275 2.265 2.385 2.495
1321.350 2.595 2.775 2.985 3.235 3.425 3.575 3.635 3.595 3.605 3.645
1340.640 3.745 4.005 4.285 4.675 5.085 5.335 5.465 5.445 5.325 5.005
1359.930 4.625 4.285 3.965 3.725 3.555 3.375 3.215 3.155 3.105 3.035
1379.219 2.995 2.875 2.665 2.505 2.345 2.185 2.055 1.935 1.835 1.805
1398.509 1.805 1.765 1.715 1.665 1.645 1.675 1.725 1.815 1.925 2.055
1417.799 2.255 2.495 2.745 3.055 3.365 3.655 3.985 4.425 4.985 5.685
1437.089 6.615 7.825 9.235 10.835 12.525 13.905 14.645 14.595 14.005 13.335
1456.378 12.215 10.515 8.775 7.265 6.085 5.205 4.615 4.275 4.105 4.165
1475.668 4.495 5.065 5.945 7.115 8.615 10.295 12.125 13.975 15.915 17.835
1494.958 19.355 20.205 19.995 18.845 16.865 14.125 11.015 8.465 6.695 5.525
1514.248 4.735 4.075 3.565 3.225 2.965 2.725 2.515 2.355 2.265 2.205
1533.538 2.065 1.925 1.915 1.875 1.805 1.795 1.785 1.815 1.845 1.895
1552.827 1.955 2.035 2.205 2.305 2.445 2.675 2.915 3.215 3.475 3.785
1572.117 4.135 4.325 4.515 4.805 5.055 5.245 5.605 6.125 6.775 7.495
1591.407 8.375 9.285 10.015 10.405 10.395 9.915 9.055 7.845 6.665 5.795
1610.697 4.955 4.305 3.835 3.365 3.005 2.685 2.365 2.245 2.155 2.055
1629.986 1.945 1.875 1.905 1.965 2.045 2.075 2.115 2.165 2.255 2.385
1649.276 2.455 2.525 2.655 2.735 2.755 2.835 2.895 2.875 2.825 2.835
1668.566 2.855 2.785 2.665 2.545 2.425 2.195 1.995 1.945 1.825 1.665
1687.856 1.635 1.615 1.575 1.545 1.495 1.415 1.325 1.325 1.385 1.465
1707.146 1.465 1.455 1.555 1.665 1.715 1.785 1.895 1.975 2.015 2.085
1726.435 2.195 2.285 2.415 2.515 2.625 2.745 2.825 2.905 2.975 3.025
1745.725 3.015 2.935 2.935 2.905 2.835 2.855 2.875 2.845 2.835 2.875
1765.015 2.915 2.965 3.035 3.155 3.305 3.425 3.475 3.535 3.625 3.765
1784.305 4.045 4.465 4.965 5.485 5.865 6.025 6.005 5.685 5.055 4.375
1803.594 3.755 3.225 2.865 2.565 2.415 2.295 2.175 2.125 2.075 2.015
1822.884 1.905 1.815 1.765 1.705 1.715 1.755 1.745 1.745 1.795 1.845
1842.174 1.895 1.935 1.905 1.905 1.935 1.945 1.975 2.045 2.105 2.165
1861.464 2.295 2.435 2.545 2.675 2.835 3.025 3.145 3.165 3.195 3.255
1880.754 3.315 3.395 3.525 3.675 3.805 3.855 3.815 3.665 3.415 3.105
1900.043 2.795 2.535 2.345 2.115 1.875 1.785 1.685 1.605 1.575 1.605
1919.333 1.775 1.885 1.995 2.175 2.365 2.535 2.765 3.025 3.215 3.405
1938.623 3.665 3.945 4.105 4.225 4.265 4.315 4.385 4.555 4.785 4.975
1957.913 5.125 5.165 4.975 4.535 3.945 3.265 2.545 1.925 1.515 1.275
1977.202 1.1505 1.0473 0.995 0.9369 0.8507 0.7862 0.7607 0.7386 0.6967 0.6849
1996.492 0.7229 0.7504 0.6844 0.6154 0.624 0.6289 0.6116 0.5955 0.5833 0.5727
2015.782 0.5757 0.599 0.5914 0.6125 0.6523 0.6472 0.6224 0.594 0.61 0.5878
2035.072 0.5974 0.574 0.5323 0.5524 0.5081 0.4704 0.4975 0.5239 0.5543 0.6291
2054.362 0.5907 0.4937 0.5595 0.62 0.5662 0.5549 0.5156 0.516 0.5612 0.5546
2073.651 0.5238 0.5123 0.5614 0.5673 0.529 0.497 0.4833 0.4502 0.4449 0.5142
2092.941 0.5308 0.5196 0.549 0.496 0.4477 0.4626 0.4367 0.4291 0.469 0.5046
2112.231 0.4965 0.4545 0.4108 0.412 0.3981 0.4606 0.5095 0.4423 0.4832 0.5024
2131.521 0.457 0.4915 0.5008 0.4907 0.4667 0.4352 0.4835 0.474 0.4529 0.5337
2150.810 0.5516 0.5725 0.5895 0.5328 0.5317 0.5628 0.5844 0.6328 0.6466 0.6542
2170.100 0.7042 0.7748 0.7756 0.7571 0.8034 0.7803 0.7392 0.7831 0.8036 0.7916
2189.390 0.8365 0.8669 0.9716 1.1101 1.1596 1.265 1.525 1.795 2.145 2.715
2208.680 3.425 4.225 5.165 6.115 6.685 6.835 6.565 5.925 4.995 3.865
2227.970 2.855 2.165 1.675 1.375 1.1547 0.9577 0.8321 0.8764 0.9323 0.9233
2247.259 0.8755 0.8232 0.7634 0.6576 0.6559 0.7488 0.8105 0.7331 0.7226 0.8171
2266.549 0.8522 0.7757 0.7198 0.7655 0.7606 0.7001 0.6806 0.7153 0.7416 0.7349
2285.839 0.6972 0.6102 0.5787 0.6816 0.7366 0.6464 0.624 0.6463 0.6681 0.6916
2305.129 0.7285 0.786 0.7845 0.9199 1.165 1.415 1.535 1.585 1.615 1.555
2324.418 1.355 1.1442 0.9901 0.8253 0.7941 0.8797 0.9637 0.9988 0.9724 1.0175
2343.708 1.1235 1.1635 1.0983 1.0568 1.1096 1.095 1.0664 1.0331 0.9504 0.9438
2362.998 0.9119 0.8808 0.8383 0.7137 0.7987 0.8262 0.74 0.7397 0.7135 0.737
2382.288 0.6872 0.6086 0.6202 0.6451 0.6458 0.6181 0.6186 0.6038 0.5699 0.5484
2401.578 0.5127 0.5246 0.622 0.6144 0.5437 0.5695 0.6687 0.6755 0.6118 0.605
2420.867 0.6169 0.6917 0.6708 0.5921 0.5966 0.6348 0.6591 0.5746 0.5401 0.565
2440.157 0.578 0.5726 0.6055 0.6558 0.6129 0.5842 0.561 0.5522 0.5419 0.5467
2459.447 0.5512 0.5715 0.555 0.4987 0.4774 0.502 0.5379 0.4545 0.4808 0.5019
2478.737 0.4742 0.5026 0.5545 0.626 0.5611 0.5232 0.5211 0.5344 0.5874 0.5546
2498.026 0.6052 0.6234 0.5411 0.5525 0.5723 0.5778 0.6195 0.6573 0.6444 0.6268
2517.316 0.5773 0.5204 0.5418 0.5458 0.5545 0.5742 0.5198 0.5289 0.6176 0.5792
2536.606 0.6381 0.6802 0.5649 0.5811 0.5925 0.5843 0.6486 0.6439 0.5952 0.6331
2555.896 0.6203 0.5507 0.5516 0.6408 0.693 0.6836 0.6899 0.6302 0.5614 0.6786
2575.186 0.755 0.7122 0.7932 0.8356 0.7697 0.7287 0.7888 0.883 0.9234 0.9236
2594.475 0.9809 1.0206 1.0123 1.0399 1.0298 1.01 0.9354 0.876 0.8382 0.7588
2613.765 0.7808 0.7765 0.6765 0.5808 0.5919 0.6626 0.6401 0.617 0.6183 0.6359
2633.055 0.6557 0.6877 0.649 0.6201 0.6154 0.5988 0.6143 0.571 0.5078 0.4814
2652.345 0.4412 0.4118 0.4818 0.5411 0.5657 0.5873 0.5508 0.5394 0.5472 0.5109
2671.634 0.4331 0.364 0.3534 0.4341 0.475 0.4713 0.4811 0.4136 0.4166 0.3948
2690.924 0.3319 0.4412 0.5538 0.5933 0.5773 0.5401 0.5495 0.4632 0.4369 0.4498
2710.214 0.4417 0.4825 0.396 0.3717 0.4293 0.438 0.5216 0.5381 0.4962 0.4712
2729.504 0.4293 0.4667 0.5304 0.4766 0.4699 0.5606 0.5083 0.5172 0.5448 0.483
2748.794 0.4882 0.4866 0.474 0.4938 0.5789 0.5747 0.5572 0.5732 0.5331 0.4358
2768.083 0.4606 0.5836 0.6184 0.6457 0.6818 0.7243 0.7792 0.8643 0.912 0.8972
2787.373 0.9074 0.8278 0.6812 0.687 0.7526 0.8053 0.8454 0.8624 0.8101 0.6928
2806.663 0.6419 0.6914 0.7251 0.717 0.7446 0.7089 0.7129 0.6765 0.5844 0.6211
2825.953 0.7282 0.7875 0.8273 1.0032 1.06 1.0686 1.0986 1.0698 1.0631 1.1059
2845.242 1.315 1.345 1.315 1.325 1.2011 1.1303 1.0962 1.1649 1.1127 0.9801
2864.532 0.9851 0.9437 0.977 1.0254 0.9814 0.9272 0.8228 0.8452 0.9448 1.0279
2883.822 1.1085 1.155 1.255 1.375 1.445 1.325 1.255 1.275 1.265 1.1857
2903.112 1.0747 1.0669 1.1485 1.1781 1.1174 1.1242 1.2145 1.355 1.225 1.1254
2922.401 1.255 1.375 1.465 1.465 1.405 1.415 1.435 1.485 1.535 1.585
2941.691 1.585 1.425 1.415 1.445 1.485 1.495 1.455 1.455 1.425 1.485
2960.981 1.415 1.345 1.365 1.405 1.575 1.645 1.525 1.595 1.695 1.715
2980.271 1.875 1.995 1.975 1.915 2.015 2.135 2.285 2.545 2.755 2.995
2999.561 3.195 3.525 3.985 4.315 4.835 5.485 6.235 7.105 8.035 9.235
3018.850 10.885 12.965 15.535 18.525 21.635 24.975 27.955 30.035 31.015 30.685
3038.140 29.205 26.685 23.685 21.035 18.945 17.565 17.105 17.455 18.575 20.545
3057.430 23.185 26.475 30.645 35.705 41.445 47.485 52.565 55.095 54.615 51.615
3076.720 46.755 40.625 34.485 29.735 26.695 24.895 23.705 22.645 21.625 20.615
3096.009 19.525 18.415 17.185 15.975 14.985 13.845 12.625 11.365 10.095 8.795
3115.299 7.435 6.255 5.285 4.455 3.735 3.125 2.655 2.395 2.275 2.175
3134.589 2.065 2.075 2.105 2.055 2.025 1.995 2.015 1.955 1.995 1.995
3153.879 1.645 1.525 1.625 1.545 1.315 1.0694 1.1358 1.245 1.1203 0.8331
3173.169 0.7155 0.8593 0.8799 0.8001 0.7751 0.9209 0.9333 0.815 0.8147 0.8767
3192.458 0.8284 0.7948 0.7219 0.6162 0.7622 0.8941 0.8775 0.8655 0.864 0.8755
3211.748 0.785 0.6529 0.5898 0.6351 0.6136 0.4861 0.4932 0.5779 0.5653 0.586
3231.038 0.6196 0.5776 0.5755 0.4636 0.4068 0.4984 0.5533 0.4838 0.4579 0.5601
3250.328 0.5211 0.4408 0.4821 0.5433 0.5426 0.3526 0.28312 0.3683 0.29763 0.1784
3269.617 0.25383 0.3416 0.30174 0.3108 0.4134 0.3943 0.1706 0.174 0.29253 0.2773
3288.907 0.1847 0.1668 0.228025 0.29964 0.30522 0.24069 0.29233 0.26854 0.2073 0.3658
3308.197 0.4785 0.4401 0.27448 0.24856 0.23902 0.078 0.1789 0.3331 0.31521 0.32443
3327.487 0.358 0.4023 0.4112 0.30744 0.325 0.27969 0.226657 0.31775 0.4489 0.4098
3346.777 0.29331 0.3331 0.4365 0.4595 0.3862 0.3818 0.3864 0.4304 0.504 0.4225
3366.066 0.4038 0.4236 0.3969 0.28681 0.1597 0.25918 0.3587 0.3345 0.2795 0.27397
3385.356 0.22103 0.3407 0.29884 0.1297 0.233463 0.28766 0.4061 0.4494 0.3781 0.4367
3404.646 0.4225 0.3733 0.4052 0.451 0.3446 0.2415 0.25946 0.3635 0.4325 0.3949
3423.936 0.3445 0.3974 0.3718 0.22218 0.2095 0.225627 0.26644 0.29164 0.3502 0.4581
3443.225 0.414 0.4254 0.5376 0.5095 0.3522 0.349 0.3805 0.2042 0.24868 0.4333
3462.515 0.3517 0.26645 0.3412 0.3562 0.3143 0.33 0.4354 0.4433 0.4071 0.2089
3481.805 0 0.1669 0.3943 0.3357 0.3827 0.5302 0.4347 0.3725 0.3486 0.31186
3501.095 0.30866 0.22027 0.3361 0.30783 0.1496 0.28826 0.31964 0.25193 0.1999 0.29122
3520.385 0.3514 0.31284 0.3146 0.3404 0.24877 0.098 0.206 0.3574 0.3825 0.2849
3539.674 0.22043 0.3779 0.4593 0.3709 0.24513 0.32311 0.4253 0.22123 0.28829 0.428
3558.964 0.343 0.3992 0.4853 0.4416 0.184 0.1 0.1963 0.3421 0.4388 0.32477
3578.254 0.3467 0.30505 0.31453 0.5185 0.5002 0.31399 0.22195 0.2086 0.27611 0.3504
3597.544 0.29456 0.231926 0.3624 0.4683 0.4578 0.4521 0.416 0.397 0.24838 0.29108
3616.833 0.4084 0.3894 0.5008 0.534 0.4583 0.3671 0.3644 0.4284 0.446 0.5331
3636.123 0.6007 0.5413 0.6413 0.7346 0.684 0.6708 0.6797 0.7575 0.8146 0.678
3655.413 0.5916 0.6376 0.6876 0.659 0.5116 0.4081 0.4429 0.5167 0.4431 0.4689
3674.703 0.4352 0.4923 0.5756 0.4871 0.6546 0.72 0.4704 0.5217 0.7362 0.6987
3693.993 0.7107 0.7418 0.6924 0.5784 0.5695 0.6902 0.715 0.5872 0.4894 0.5076
3713.282 0.4912 0.5405 0.5913 0.6628 0.6475 0.5432 0.5747 0.6244 0.6511 0.5925
3732.572 0.5211 0.5842 0.5168 0.3898 0.4349 0.4959 0.5381 0.4878 0.5589 0.5274
3751.862 0.4049 0.4759 0.3906 0.4423 0.427 0.379 0.5065 0.4282 0.3791 0.27405
3771.152 0.28343 0.29001 0.232226 0.26079 0.28523 0.4316 0.3671 0.27232 0.3756 0.4184
3790.441 0.3587 0.27199 0.1901 0.232909 0.4544 0.5139 0.30694 0.26235 0.3702 0.4491
3809.731 0.5909 0.5289 0.4652 0.5123 0.4192 0.3672 0.4447 0.4356 0.3906 0.4447
3829.021 0.4756 0.5186 0.4425 0.3744 0.3437 0.25596 0.3151 0.3538 0.2121 0.227917
3848.311 0.3531 0.4625 0.4553 0.5093 0.4719 0.3775 0.4856 0.4386 0.1801 0.088
3867.601 0.1436 0.2034 0.3334 0.30137 0.29467 0.3816 0.4283 0.4028 0.3641 0.4032
3886.890 0.4891 0.4748 0.4732 0.4671 0.3497 0.554 0.6378 0.5748 0.636 0.6316
3906.180 0.6051 0.4434 0.4942 0.6517 0.6747 0.6465 0.6142 0.5604 0.3833 0.4089
3925.470 0.4823 0.35 0.32329 0.3868 0.3942 0.4117 0.4128 0.24203 0.1853 0.27165
3944.760 0.3581 0.446 0.3624 0.26439 0.23692 0.2107 0.3458 0.4989 0.4876 0.3619
3964.049 0.230293 0.29651 0.3773 0.4924 0.4913 0.3377 0.3824 0.4162 0.5196 0.5016
3983.339 0.4396 0.5617 0.5381 0.6029 0.6066 0.595 0.6428 0.5661 0.6455 0.6506
##END=
