##TITLE=1-(Phenylethynyl)-1-cyclopentanol
##JCAMP-DX=4.24
##DATA TYPE=INFRARED SPECTRUM
##ORIGIN=NIST Mass Spectrometry Data Center
##OWNER=NIST Standard Reference Data Program
Collection (C) 2018 copyright by the U.S. Secretary of Commerce
on behalf of the United States of America. All rights reserved.
##CAS REGISTRY NO=25118-60-9
##MOLFORM=C 13 H 14 O
##$NIST SOURCE=MSDC-IR
##SPECTROMETER/DATA SYSTEM=HP-GC/MS/IRD
##STATE=gas
##XUNITS=1/CM
##YUNITS=ABSORBANCE
##XFACTOR=1.0
##YFACTOR=0.000001900
##DELTAX=4.0
##FIRSTX=550.0
##LASTX=3846.0
##FIRSTY=0.001718
##MAXX=3846
##MINX=550
##MAXY=0.019
##MINY=0
##NPOINTS=825
##XYDATA=(X++(Y..Y))
550.0 904 434 185 234 164 206 322 410 512 593
590.0 644 633 501 355 256 211 184 142 83 35
630.0 6 2 0 13 64 166 231 312 505 721
670.0 1002 1328 1642 1972 2270 2320 2200 1966 1594 1260
710.0 965 720 564 534 665 945 1382 1922 2501 3031
750.0 3527 3769 3395 2814 2262 1647 1078 649 389 268
790.0 238 207 182 207 228 203 185 198 190 167
830.0 137 114 114 88 86 130 154 156 158 200
870.0 270 348 399 441 495 565 669 731 753 781
910.0 776 706 622 531 472 459 472 515 581 625
950.0 636 636 651 697 795 1003 1317 1737 2289 2909
990.0 3467 3800 3768 3429 2950 2480 2135 1946 1886 1921
1030.0 1930 1878 1866 1955 2155 2401 2589 2704 2730 2637
1070.0 2439 2181 1888 1631 1406 1207 1074 944 801 699
1110.0 629 535 470 475 471 459 483 548 604 653
1150.0 731 824 916 1008 1091 1216 1393 1538 1700 1977
1190.0 2298 2443 2304 1954 1591 1314 1147 1070 1026 1014
1230.0 1029 1043 1047 1087 1152 1238 1364 1495 1656 1834
1270.0 1999 2158 2310 2456 2652 2867 3066 3204 3219 3097
1310.0 2818 2438 2097 1899 1877 2032 2348 2797 3267 3724
1350.0 4057 4144 3937 3473 2856 2268 1796 1411 1118 921
1390.0 767 649 570 494 450 432 453 517 561 627
1430.0 759 959 1121 1163 1178 1140 1083 993 853 827
1470.0 980 1299 1711 2253 2907 3344 3199 2516 1706 1197
1510.0 883 649 515 414 324 258 219 233 238 190
1550.0 173 200 242 216 217 287 366 469 608 838
1590.0 1163 1475 1613 1464 1070 637 350 207 124 83
1630.0 53 53 46 33 47 109 153 137 159 164
1670.0 133 78 26 35 33 8 41 78 60 23
1710.0 22 64 82 58 71 125 158 128 111 128
1750.0 149 134 112 96 94 100 84 81 119 157
1790.0 212 245 226 194 128 108 117 108 103 83
1830.0 55 39 37 55 66 55 61 81 102 134
1870.0 158 163 189 227 238 210 154 82 45 44
1910.0 43 47 79 113 118 129 156 179 205 227
1950.0 249 269 250 180 108 63 40 26 12 16
1990.0 27 31 27 18 8 1 0 9 5 5
2030.0 14 11 13 10 4 11 12 14 18 19
2070.0 17 20 23 12 12 23 25 25 18 20
2110.0 15 13 21 20 25 30 33 35 31 32
2150.0 40 46 42 33 34 47 53 49 54 62
2190.0 62 64 81 106 113 118 142 144 130 127
2230.0 118 108 96 96 97 89 92 83 75 74
2270.0 73 77 67 63 64 52 48 49 57 75
2310.0 97 115 125 118 107 108 108 109 106 98
2350.0 92 88 99 99 101 88 64 53 44 42
2390.0 35 24 22 23 17 11 11 13 15 21
2430.0 18 6 3 6 0 5 15 11 1 1
2470.0 8 20 26 23 29 15 14 26 20 19
2510.0 29 34 23 20 20 10 12 18 18 19
2550.0 19 18 16 14 22 29 25 25 22 22
2590.0 16 29 36 31 34 28 32 37 25 25
2630.0 37 40 39 35 26 12 7 16 13 7
2670.0 24 27 19 30 33 30 34 41 36 36
2710.0 36 31 49 58 48 51 48 38 40 48
2750.0 52 51 56 66 76 77 82 93 93 94
2790.0 102 120 134 134 142 153 173 208 244 280
2830.0 319 377 443 538 667 829 1015 1182 1380 1591
2870.0 1817 2118 2473 2738 2777 2604 2353 2198 2141 2168
2910.0 2293 2453 2657 2928 3279 3711 4231 4763 5262 5755
2950.0 6235 6693 7209 7875 8697 9597 10000 9266 7469 5414
2990.0 3866 2900 2269 1841 1577 1415 1322 1268 1257 1289
3030.0 1402 1564 1648 1550 1359 1299 1495 1912 2421 2862
3070.0 2995 2754 2323 1982 1847 1757 1636 1453 1243 1020
3110.0 782 554 370 262 202 159 140 140 142 144
3150.0 130 106 93 62 47 51 46 44 45 53
3190.0 53 46 30 27 55 66 66 63 58 44
3230.0 7 15 26 23 36 31 9 9 28 28
3270.0 25 36 41 45 32 9 29 34 18 25
3310.0 31 34 10 0 18 45 54 37 35 46
3350.0 50 54 67 84 63 19 26 36 58 74
3390.0 61 57 44 43 46 61 65 36 52 68
3430.0 43 32 33 25 37 43 45 65 64 70
3470.0 77 75 76 75 76 57 49 66 76 75
3510.0 76 56 57 76 66 43 54 67 58 56
3550.0 27 30 59 73 100 86 49 56 69 91
3590.0 89 83 96 95 127 173 227 320 447 690
3630.0 1018 1299 1457 1474 1384 1104 751 500 324 239
3670.0 180 155 125 77 88 86 47 40 44 47
3710.0 69 61 48 76 88 87 115 97 98 122
3750.0 90 47 25 5 5 21 19 23 22 14
3790.0 21 40 56 54 33 0 21 66 57 34
3830.0 33 42 40 28 23
##END=
