##TITLE=Methylnadic anhydride
##JCAMP-DX=4.24
##DATA TYPE=INFRARED SPECTRUM
##ORIGIN=EPA-IR VAPOR PHASE LIBRARY
##OWNER=SRD/NIST
Collection (C) 2018 copyright by the U.S. Secretary of Commerce
on behalf of the United States of America. All rights reserved.
##CAS REGISTRY NO=25134-21-8
##MOLFORM=C 10 H 10 O 3
##$NIST SOURCE=MSDC-IR
##STATE=gas
##XUNITS=1/CM
##YUNITS=ABSORBANCE
##XFACTOR=1.
##YFACTOR=0.001
##DELTAX=1.92898
##FIRSTX=549.8
##LASTX=4000.7
##FIRSTY=1.628
##MAXX=4000.7
##MINX=549.759
##MAXY=0.262688
##MINY=0
##NPOINTS=1790
##XYDATA=(X++(Y..Y))
549.759 1.628 1.238 1.0521 1.288 1.468 1.778 2.038 2.378 2.848 3.178
569.049 3.328 3.678 4.428 4.598 4.278 4.478 4.998 5.068 5.048 5.328
588.339 5.088 4.548 4.328 4.268 4.168 3.958 3.698 3.428 3.468 3.688
607.628 4.168 4.798 5.358 5.998 6.628 7.318 7.938 8.478 8.748 8.918
626.918 9.138 9.018 8.608 7.918 7.088 6.238 5.398 4.568 3.808 3.308
646.208 2.938 2.608 2.398 2.428 2.578 2.668 2.668 2.748 2.938 2.998
665.498 2.938 2.868 2.808 3.008 2.978 2.428 2.198 2.298 2.348 2.628
684.787 3.148 3.568 3.798 3.948 4.258 4.738 5.318 6.228 6.858 7.208
704.077 7.938 8.798 9.148 8.698 8.168 7.588 6.708 5.688 4.558 3.448
723.367 2.518 1.958 1.628 1.418 1.328 1.328 1.0662 0.7781 0.7894 0.8905
742.657 1.158 1.438 1.538 1.638 1.738 1.908 2.158 2.208 2.108 1.948
761.947 1.778 1.728 1.758 1.808 1.828 1.958 2.348 2.838 3.388 4.028
781.236 4.948 6.188 7.518 8.698 9.738 10.798 11.588 12.108 12.828 12.788
800.526 11.688 10.478 9.408 8.328 6.918 5.688 4.928 4.168 3.698 3.568
819.816 3.628 3.778 4.018 4.618 5.428 6.268 7.148 8.248 9.718 11.758
839.106 13.038 11.708 9.898 9.498 9.028 8.048 7.278 6.828 6.618 6.638
858.395 6.898 7.238 7.598 8.248 8.998 9.588 10.238 10.878 11.758 12.928
877.685 14.408 16.628 19.378 22.628 26.338 30.038 33.488 36.648 39.728 43.098
896.975 46.978 50.898 54.428 58.388 63.568 69.518 75.428 80.828 85.198 88.248
916.265 90.278 91.948 93.048 92.008 87.848 81.988 76.578 72.098 67.478 62.108
935.555 56.448 50.858 45.868 41.468 36.528 30.908 25.868 21.778 18.128 14.508
954.844 11.308 8.928 7.118 5.918 5.288 4.848 4.498 4.288 4.028 3.848
974.134 3.858 3.868 3.938 4.038 4.118 4.188 4.368 4.408 4.368 4.498
993.424 4.628 4.628 4.628 4.718 4.848 4.928 4.998 5.328 5.598 5.698
1012.714 5.678 5.528 5.478 5.358 5.288 5.458 5.618 6.038 6.768 7.678
1032.003 8.468 9.308 10.208 10.978 11.748 12.518 13.138 13.518 13.858 14.438
1051.293 15.098 15.908 17.168 18.678 20.398 22.608 25.378 28.818 32.558 36.468
1070.583 40.488 44.398 48.338 51.468 53.658 54.798 54.778 53.698 51.658 48.388
1089.873 43.138 37.118 31.508 26.708 22.338 18.058 14.468 12.038 10.238 9.108
1109.163 8.368 7.498 6.828 6.168 5.648 5.078 4.678 4.638 4.328 4.158
1128.452 4.258 4.278 4.268 4.188 4.068 4.038 4.058 3.878 3.678 3.688
1147.742 3.618 3.468 3.538 3.578 3.568 3.598 3.838 3.998 4.078 4.268
1167.032 4.548 4.938 5.248 5.738 6.368 6.988 7.728 8.548 9.488 10.548
1186.322 11.638 12.918 14.378 16.278 18.618 21.028 23.888 27.328 31.228 35.608
1205.611 40.368 45.198 49.548 53.498 57.028 59.638 61.298 62.048 61.288 59.248
1224.901 56.258 52.778 48.758 44.088 39.648 35.218 30.868 27.248 24.158 21.528
1244.191 19.618 18.458 17.798 17.338 17.178 17.188 17.088 16.898 16.728 16.748
1263.481 16.588 16.158 15.488 14.728 14.308 13.878 13.368 12.918 12.638 12.618
1282.771 12.628 12.458 12.218 12.038 11.778 11.418 10.998 10.498 10.028 9.498
1302.060 8.838 8.248 7.778 7.358 7.038 6.728 6.488 6.328 6.268 6.208
1321.350 6.118 6.028 5.828 5.548 5.238 4.918 4.608 4.348 4.078 3.818
1340.640 3.648 3.558 3.468 3.388 3.358 3.308 3.258 3.228 3.168 3.088
1359.930 3.048 3.038 2.998 2.988 3.018 3.028 3.078 3.208 3.338 3.428
1379.219 3.548 3.658 3.838 4.008 4.008 3.888 3.638 3.348 3.068 2.748
1398.509 2.448 2.188 1.988 1.878 1.798 1.748 1.708 1.708 1.768 1.838
1417.799 1.948 2.078 2.198 2.368 2.598 2.898 3.258 3.668 4.138 4.648
1437.089 5.238 5.838 6.408 6.958 7.358 7.608 7.738 7.728 7.698 7.638
1456.378 7.468 7.088 6.648 6.278 5.928 5.638 5.348 4.878 4.318 3.848
1475.668 3.428 3.048 2.748 2.418 2.128 1.958 1.868 1.768 1.668 1.628
1494.958 1.608 1.598 1.618 1.648 1.638 1.588 1.618 1.668 1.688 1.748
1514.248 1.738 1.708 1.738 1.808 1.838 1.808 1.768 1.728 1.698 1.668
1533.538 1.648 1.608 1.538 1.468 1.458 1.438 1.388 1.378 1.358 1.358
1552.827 1.358 1.398 1.478 1.518 1.578 1.628 1.638 1.678 1.768 1.838
1572.117 1.928 2.028 2.068 2.118 2.178 2.248 2.288 2.288 2.328 2.428
1591.407 2.478 2.458 2.528 2.628 2.658 2.678 2.738 2.818 2.898 3.008
1610.697 3.128 3.278 3.408 3.498 3.568 3.628 3.658 3.588 3.488 3.338
1629.986 3.138 2.888 2.668 2.428 2.138 1.918 1.738 1.628 1.558 1.498
1649.276 1.498 1.498 1.478 1.508 1.568 1.598 1.628 1.648 1.678 1.738
1668.566 1.788 1.848 1.918 1.928 1.978 2.038 2.118 2.138 2.138 2.248
1687.856 2.308 2.378 2.468 2.508 2.578 2.608 2.648 2.738 2.808 2.878
1707.146 2.938 3.048 3.158 3.308 3.488 3.698 3.948 4.178 4.478 4.768
1726.435 5.058 5.348 5.628 5.918 6.218 6.518 6.838 7.218 7.608 8.068
1745.725 8.608 9.188 9.818 10.568 11.478 12.498 13.748 15.218 17.008 19.148
1765.015 21.588 24.428 27.908 32.068 37.328 43.808 52.028 62.568 75.918 92.398
1784.305 112.238 135.188 159.858 185.148 209.568 231.398 248.238 258.848 262.688 260.518
1803.594 251.938 235.448 213.738 189.958 164.228 138.498 114.758 94.188 77.518 64.678
1822.884 55.148 48.048 42.698 38.648 35.518 33.108 31.228 29.778 28.568 27.648
1842.174 27.068 26.808 26.878 27.288 28.028 29.208 30.898 33.078 35.778 38.898
1861.464 42.238 45.578 48.618 51.158 53.078 54.108 53.898 52.338 49.758 46.358
1880.754 42.148 37.378 32.418 27.598 23.108 19.128 15.828 13.128 11.008 9.408
1900.043 8.158 7.188 6.468 5.938 5.528 5.228 4.998 4.828 4.708 4.598
1919.333 4.508 4.418 4.268 4.088 3.928 3.788 3.598 3.398 3.188 2.998
1938.623 2.808 2.628 2.448 2.238 2.108 2.018 1.898 1.768 1.658 1.618
1957.913 1.588 1.518 1.488 1.498 1.468 1.458 1.478 1.458 1.438 1.408
1977.202 1.418 1.418 1.398 1.408 1.368 1.398 1.418 1.378 1.388 1.428
1996.492 1.458 1.468 1.498 1.518 1.478 1.458 1.478 1.428 1.378 1.298
2015.782 1.238 1.208 1.148 1.0898 1.0161 0.9485 0.8835 0.8364 0.7848 0.7551
2035.072 0.7598 0.7295 0.6939 0.6701 0.6934 0.7408 0.7157 0.7075 0.7522 0.7858
2054.362 0.7928 0.7577 0.7466 0.784 0.7993 0.8055 0.83 0.8175 0.8162 0.8562
2073.651 0.8483 0.8279 0.8264 0.826 0.8352 0.8643 0.9143 0.9092 0.9384 0.9926
2092.941 1.0039 1.0344 1.1055 1.188 1.228 1.258 1.308 1.398 1.498 1.548
2112.231 1.588 1.628 1.668 1.738 1.778 1.858 1.958 1.968 1.978 2.018
2131.521 2.028 2.078 2.128 2.068 2.068 2.088 2.058 2.018 1.968 1.938
2150.810 1.848 1.748 1.718 1.728 1.678 1.578 1.518 1.438 1.348 1.288
2170.100 1.198 1.148 1.138 1.1005 1.0607 1.033 1.0008 0.9496 0.9189 0.8707
2189.390 0.8026 0.7844 0.7825 0.7898 0.7733 0.7523 0.7827 0.7714 0.7153 0.7168
2208.680 0.7335 0.7033 0.6868 0.6975 0.7144 0.7315 0.7126 0.6538 0.6807 0.7233
2227.970 0.6656 0.6369 0.6457 0.6578 0.6178 0.5924 0.6195 0.6273 0.6305 0.6478
2247.259 0.6628 0.6626 0.6781 0.6805 0.7042 0.7265 0.7532 0.7534 0.7502 0.8071
2266.549 0.8561 0.9059 0.9229 0.9477 0.9306 0.9031 0.9516 0.9411 0.9179 0.9642
2285.839 1.0015 1.0173 1.0565 1.0555 1.0161 1.0298 1.0349 1.0122 0.9748 0.8989
2305.129 0.9048 0.9193 0.8812 0.8377 0.829 0.8354 0.7751 0.7016 0.6831 0.6916
2324.418 0.6872 0.655 0.5966 0.5735 0.6598 0.6978 0.6439 0.6536 0.657 0.6269
2343.708 0.5995 0.618 0.6517 0.6487 0.6374 0.6438 0.6234 0.6025 0.603 0.613
2362.998 0.5963 0.5266 0.5227 0.5227 0.4975 0.4886 0.5096 0.4446 0.4068 0.4364
2382.288 0.4406 0.427 0.4099 0.4316 0.4478 0.4788 0.4639 0.4673 0.4969 0.5189
2401.578 0.5693 0.5997 0.597 0.6331 0.6199 0.6055 0.6188 0.6391 0.6541 0.6818
2420.867 0.6845 0.6525 0.6747 0.6094 0.5438 0.5823 0.5651 0.492 0.4968 0.4827
2440.157 0.4337 0.4313 0.4369 0.4104 0.3982 0.3666 0.3361 0.3562 0.3571 0.3869
2459.447 0.3737 0.3375 0.3377 0.3474 0.4218 0.3711 0.3028 0.3708 0.4047 0.3989
2478.737 0.3651 0.3498 0.3848 0.408 0.4062 0.4036 0.4017 0.3802 0.3418 0.3123
2498.026 0.3151 0.3357 0.3258 0.3326 0.3504 0.355 0.3672 0.3124 0.281 0.3089
2517.316 0.3048 0.2823 0.2586 0.19478 0.17368 0.21135 0.17029 0.163 0.2192 0.1847
2536.606 0.16201 0.19037 0.14452 0.16143 0.2566 0.2356 0.21698 0.21574 0.2247 0.2557
2555.896 0.2658 0.2608 0.2393 0.2247 0.2292 0.2193 0.18082 0.17593 0.16546 0.14174
2575.186 0.12855 0.18572 0.21608 0.16091 0.120716 0.16476 0.1886 0.17436 0.11632 0.0993
2594.475 0.13676 0.0839 0.0976 0.14451 0.18527 0.19418 0.117272 0.0889 0.11691 0.11237
2613.765 0.0512 0.088 0.15025 0.0868 0.0192 0.0519 0.0988 0.13413 0.1066 0.0975
2633.055 0.14325 0.0918 0.0356 0.0712 0.0922 0.0884 0.0842 0.11153 0.13758 0.0885
2652.345 0.0849 0.12934 0.13693 0.1039 0.103 0.1049 0.0787 0.14927 0.21416 0.17875
2671.634 0.20733 0.15389 0.0982 0.10966 0.16584 0.185 0.1435 0.15475 0.13356 0.121725
2690.924 0.13647 0.17529 0.1435 0.0545 0.0506 0.1424 0.20639 0.21129 0.18077 0.1907
2710.214 0.2696 0.3007 0.2952 0.2466 0.19351 0.20651 0.288 0.3422 0.2634 0.20128
2729.504 0.2236 0.2747 0.3336 0.4421 0.5804 0.6632 0.6728 0.6717 0.6942 0.7169
2748.794 0.7272 0.7293 0.7387 0.6965 0.6385 0.5739 0.4999 0.4274 0.3593 0.3412
2768.083 0.3525 0.3077 0.2681 0.3398 0.3766 0.3859 0.4063 0.3941 0.3311 0.2904
2787.373 0.3394 0.3286 0.4201 0.532 0.4413 0.4207 0.4308 0.4017 0.4637 0.49
2806.663 0.4841 0.5348 0.5822 0.6427 0.6885 0.6959 0.7056 0.7564 0.851 0.8419
2825.953 0.8005 0.8811 0.9516 0.9434 0.9719 1.0659 1.0958 1.138 1.288 1.418
2845.242 1.518 1.638 1.818 2.098 2.498 2.868 3.278 3.878 4.488 5.068
2864.532 5.738 6.308 6.948 7.568 8.048 8.468 8.928 9.478 9.898 9.948
2883.822 9.728 9.628 9.578 9.508 9.418 9.118 8.538 7.868 7.298 6.758
2903.112 6.388 6.328 6.338 6.398 6.548 6.928 7.628 8.378 8.998 9.588
2922.401 10.158 10.628 11.088 11.268 11.258 11.278 11.398 11.748 12.108 12.468
2941.691 12.928 13.498 13.948 14.078 14.068 13.978 13.818 13.668 13.648 13.898
2960.981 14.328 14.888 15.838 17.658 20.058 21.618 22.208 23.268 25.148 28.038
2980.271 29.718 28.408 27.668 28.628 28.868 28.148 27.678 27.958 28.048 26.338
2999.561 24.198 22.878 21.478 19.548 16.888 13.888 11.368 9.398 7.458 5.588
3018.850 4.088 3.038 2.368 2.018 1.788 1.628 1.538 1.468 1.458 1.478
3038.140 1.538 1.538 1.568 1.728 1.928 2.158 2.368 2.648 2.948 3.328
3057.430 3.908 4.478 4.948 5.288 5.428 5.598 5.718 5.638 5.378 4.898
3076.720 4.378 3.868 3.378 2.938 2.578 2.298 2.078 1.868 1.698 1.558
3096.009 1.448 1.388 1.298 1.198 1.128 1.0066 0.8953 0.8823 0.9057 0.8726
3115.299 0.7524 0.6034 0.5119 0.5838 0.5159 0.3973 0.479 0.5513 0.5486 0.4705
3134.589 0.395 0.4087 0.3742 0.3141 0.2934 0.2472 0.2723 0.20849 0.18393 0.2885
3153.879 0.2815 0.2199 0.18837 0.2655 0.2204 0.16081 0.13687 0.0821 0.1 0.11462
3173.169 0.16233 0.11363 0.0667 0.118913 0.1373 0.11355 0.13942 0.18738 0.16933 0.13158
3192.458 0.15611 0.16138 0.13929 0.118452 0.122811 0.1586 0.1012 0.13294 0.14897 0.16307
3211.748 0.2402 0.20871 0.11541 0 0.0483 0.14189 0.1468 0.0635 0.1038 0.2233
3231.038 0.21107 0.0907 0.0606 0.0714 0.0903 0.1285 0.10883 0.10884 0.14842 0.226
3250.328 0.21608 0.14393 0.1065 0.0946 0.0621 0.0703 0.20642 0.18574 0.0575 0.1071
3269.617 0.123758 0.1086 0.0687 0.003 0.0202 0.13485 0.19315 0.20194 0.2618 0.2263
3288.907 0.20291 0.2952 0.2676 0.14651 0.2187 0.2526 0.17688 0.13839 0.1847 0.2576
3308.197 0.20986 0.2315 0.20907 0.14319 0.10857 0.0411 0.0555 0.1833 0.24 0.20179
3327.487 0.159 0.0611 0.0699 0.17612 0.18731 0.15412 0.1515 0.1493 0.18981 0.1382
3346.777 0.1076 0.0988 0.11628 0.2201 0.19118 0.14784 0.0839 0.0677 0.16988 0.19279
3366.066 0.1023 0.1077 0.125058 0.0531 0.1081 0.21069 0.15396 0.0658 0.0829 0.0653
3385.356 0.0707 0.2314 0.2794 0.2506 0.21753 0.20316 0.1818 0.0878 0.13415 0.16205
3404.646 0.16143 0.17169 0.1752 0.17167 0.0799 0.0394 0.0902 0.21762 0.2891 0.15855
3423.936 0.063 0.13823 0.2317 0.2565 0.226 0.2023 0.2852 0.2684 0.124691 0.2416
3443.225 0.3695 0.3203 0.19928 0.0781 0.13666 0.21542 0.2605 0.3509 0.2676 0.12027
3462.515 0.17026 0.2861 0.2716 0.1998 0.20558 0.2802 0.2621 0.2627 0.3099 0.3027
3481.805 0.3589 0.3674 0.3652 0.3299 0.2712 0.2447 0.2411 0.3299 0.3645 0.394
3501.095 0.4396 0.4043 0.2471 0.125681 0.0926 0.20829 0.3524 0.2999 0.3689 0.3869
3520.385 0.3821 0.4348 0.3657 0.3668 0.4815 0.5018 0.468 0.4258 0.4344 0.5152
3539.674 0.461 0.4189 0.4174 0.3683 0.4832 0.5559 0.5363 0.5985 0.5538 0.5579
3558.964 0.6321 0.6259 0.5796 0.6372 0.7809 0.8583 0.8308 0.77 0.8736 0.9732
3578.254 1.0796 1.148 1.158 1.218 1.268 1.368 1.388 1.428 1.528 1.448
3597.544 1.388 1.438 1.458 1.538 1.638 1.688 1.838 1.878 1.718 1.698
3616.833 1.808 1.858 1.848 1.908 1.938 1.878 1.938 2.158 2.248 2.308
3636.123 2.468 2.698 2.798 2.788 2.918 2.978 2.898 2.858 2.848 2.828
3655.413 2.768 2.618 2.508 2.368 2.198 2.028 1.798 1.698 1.648 1.508
3674.703 1.258 1.0135 0.9475 1.004 0.9937 0.8571 0.7985 0.6834 0.5934 0.6579
3693.993 0.7177 0.6204 0.5129 0.5861 0.7692 0.7817 0.6121 0.6495 0.6604 0.5475
3713.282 0.5732 0.5913 0.7185 0.7824 0.7198 0.6633 0.6785 0.7297 0.704 0.7271
3732.572 0.7035 0.6604 0.6343 0.6326 0.7447 0.6961 0.5937 0.7035 0.6364 0.5566
3751.862 0.6936 0.7056 0.6169 0.5733 0.567 0.5871 0.6003 0.4818 0.4035 0.4594
3771.152 0.5234 0.5414 0.5306 0.5825 0.5859 0.6001 0.514 0.4641 0.4471 0.3563
3790.441 0.4177 0.5516 0.5578 0.6018 0.5859 0.4742 0.4325 0.3896 0.3716 0.449
3809.731 0.487 0.4983 0.6088 0.6358 0.5578 0.4524 0.4367 0.471 0.4159 0.4316
3829.021 0.4915 0.504 0.4382 0.3172 0.3174 0.3735 0.4381 0.47 0.3566 0.2729
3848.311 0.2939 0.4334 0.4429 0.3628 0.4336 0.4765 0.4687 0.4081 0.3484 0.354
3867.601 0.4142 0.4105 0.3965 0.3995 0.358 0.4335 0.4868 0.5108 0.5719 0.6038
3886.890 0.6293 0.6338 0.6005 0.5704 0.5121 0.5315 0.6579 0.7809 0.7912 0.7133
3906.180 0.6772 0.5844 0.5538 0.5246 0.4763 0.443 0.5054 0.6492 0.6381 0.583
3925.470 0.5586 0.6304 0.6738 0.6077 0.5515 0.4037 0.4984 0.6402 0.5579 0.4758
3944.760 0.3923 0.5248 0.6374 0.5744 0.4794 0.3866 0.4345 0.4042 0.2658 0.3216
3964.049 0.5726 0.6335 0.5313 0.5531 0.646 0.6885 0.5902 0.5212 0.54 0.4403
3983.339 0.5134 0.4965 0.3735 0.473 0.5212 0.5155 0.4706 0.4154 0.4949 0.5609
##END=
