##TITLE=Nonylphenol
##JCAMP-DX=4.24
##DATA TYPE=INFRARED SPECTRUM
##ORIGIN=EPA-IR VAPOR PHASE LIBRARY
##OWNER=SRD/NIST
Collection (C) 2018 copyright by the U.S. Secretary of Commerce
on behalf of the United States of America. All rights reserved.
##CAS REGISTRY NO=25154-52-3
##MOLFORM=C 15 H 24 O
##$NIST SOURCE=MSDC-IR
##STATE=gas
##XUNITS=1/CM
##YUNITS=ABSORBANCE
##XFACTOR=1.
##YFACTOR=0.001
##DELTAX=1.92898
##FIRSTX=549.8
##LASTX=4000.7
##FIRSTY=7.33
##MAXX=4000.7
##MINX=549.759
##MAXY=0.10639
##MINY=0.0008879
##NPOINTS=1790
##XYDATA=(X++(Y..Y))
549.759 7.33 7.48 7.76 7.97 8.42 8.61 8.62 8.72 8.63 8.41
569.049 8.06 7.48 6.92 6.35 5.81 5.56 5.32 5.05 4.86 4.75
588.339 4.56 4.14 3.87 3.63 3.48 3.34 3.03 2.95 2.96 2.89
607.628 2.73 2.71 2.7 2.54 2.38 2.34 2.33 2.21 2.13 2.27
626.918 2.42 2.36 2.36 2.46 2.58 2.69 2.77 2.93 3.09 3.12
646.208 3.17 3.36 3.45 3.48 3.65 3.83 3.85 3.94 4.03 4.06
665.498 4.13 4.07 3.92 3.77 3.58 3.34 3.1 2.92 2.92 2.84
684.787 2.79 2.77 2.68 2.58 2.54 2.5 2.38 2.32 2.29 2.32
704.077 2.32 2.27 2.29 2.27 2.32 2.44 2.41 2.5 2.62 2.72
723.367 2.85 3.01 3.19 3.33 3.4 3.32 3.23 3.2 3.23 3.27
742.657 3.32 3.34 3.37 3.5 3.52 3.38 3.34 3.47 3.46 3.44
761.947 3.64 3.82 4.07 4.33 4.44 4.6 4.97 5.27 5.52 5.65
781.236 5.75 5.91 6.17 6.42 6.7 7.22 7.71 8.42 9.28 10.14
800.526 10.89 11.43 11.84 12.05 12.18 12.56 13.27 14.35 16.09 18.65
819.816 21.78 24.99 27.55 28.73 28.2 26.18 23.18 19.44 15.78 12.95
839.106 10.92 9.47 8.37 7.48 6.74 6.07 5.56 5.2 4.93 4.69
858.395 4.46 4.28 4.16 4.02 3.79 3.7 3.61 3.5 3.48 3.45
877.685 3.38 3.29 3.25 3.14 2.92 2.87 3.02 3.03 2.91 2.82
896.975 2.83 2.88 2.85 2.74 2.74 2.83 2.8 2.81 2.92 2.9
916.265 2.85 2.99 2.97 2.87 2.9 2.94 3 3.08 3.14 3.04
935.555 3.06 3.09 3.03 3.06 3.02 2.92 2.92 2.91 2.91 2.88
954.844 2.81 2.86 2.9 2.9 2.96 3.11 3.21 3.2 3.16 3.17
974.134 3.18 3.09 3 2.97 3.08 3.1 3.07 3.15 3.22 3.17
993.424 3.26 3.52 3.75 4.08 4.36 4.64 5.21 5.8 6.26 6.57
1012.714 6.57 6.29 5.75 5.1 4.46 3.92 3.57 3.39 3.34 3.33
1032.003 3.28 3.23 3.18 3.15 3.16 3.11 3.19 3.23 3.14 3.16
1051.293 3.18 3.12 3.08 3.26 3.35 3.26 3.22 3.24 3.4 3.55
1070.583 3.82 4.1 4.3 4.4 4.46 4.66 4.82 5.36 5.75 5.86
1089.873 6.29 6.66 6.85 7.26 7.77 7.92 8.02 8.19 8.3 8.6
1109.163 8.93 8.95 8.95 8.96 8.94 8.98 8.91 8.96 9.02 8.99
1128.452 9.05 9.09 9.01 8.87 8.77 8.7 8.8 9.11 9.5 9.79
1147.742 10.36 11.2 12.34 14.22 16.79 20.15 24.76 31.5 40.67 52.4
1167.032 66.6 81.78 95 103.55 106.39 102.92 93.53 80.53 66.75 54.6
1186.322 45.16 38.29 33.38 29.6 26.39 23.72 21.43 19.42 17.75 16.23
1205.611 14.93 13.86 13.04 12.34 11.84 11.41 11.03 10.83 10.71 10.67
1224.901 10.65 10.71 10.91 11.14 11.39 11.66 12 12.56 13.24 14.25
1244.191 16 18.55 22.17 26.96 32.56 38.69 44.31 48.04 49.05 47.16
1263.481 42.61 35.9 28.26 21.34 16.18 12.89 11.02 10.01 9.54 9.24
1282.771 8.92 8.67 8.38 8.11 7.91 7.67 7.48 7.34 7.18 7.08
1302.060 7.07 7.09 7.16 7.34 7.56 7.86 8.32 8.93 9.73 10.69
1321.350 11.67 12.54 13.25 13.7 13.82 13.65 13.34 12.92 12.37 11.81
1340.640 11.29 10.8 10.34 9.92 9.53 9.21 9.05 9 9.07 9.29
1359.930 9.67 10.22 10.87 11.61 12.38 13.08 13.63 14.11 14.66 15.29
1379.219 15.9 16.39 16.68 16.57 16.01 15.02 13.76 12.31 10.79 9.4
1398.509 8.28 7.48 6.99 6.73 6.7 6.85 7.14 7.58 8.18 8.87
1417.799 9.57 10.24 10.78 11.1 11.11 10.87 10.43 9.83 9.19 8.68
1437.089 8.37 8.31 8.43 8.74 9.18 9.75 10.48 11.32 12.3 13.31
1456.378 14.35 15.47 16.48 17.35 18.01 18.48 18.71 18.62 18.19 17.56
1475.668 16.8 15.9 14.96 14.07 13.35 12.84 12.61 12.71 13.25 14.24
1494.958 15.8 18.24 21.75 26.53 32.74 40.14 48.66 56.74 62.3 64.39
1514.248 62.53 57.03 48.55 38.94 29.37 22.07 16.89 13.4 11.06 9.48
1533.538 8.38 7.52 6.92 6.42 6.04 5.77 5.56 5.41 5.28 5.16
1552.827 5.09 4.98 4.9 4.83 4.71 4.64 4.61 4.62 4.62 4.71
1572.117 4.91 5.15 5.44 5.88 6.46 7.2 8.14 9.25 10.41 11.57
1591.407 12.64 13.49 14.1 14.46 14.67 14.97 15.45 16.19 17.09 17.91
1610.697 18.4 18.32 17.55 16.13 14.28 12.27 10.29 8.59 7.29 6.27
1629.986 5.53 5.02 4.61 4.26 4 3.77 3.57 3.46 3.33 3.2
1649.276 3.13 3.08 2.98 2.9 2.84 2.76 2.68 2.62 2.57 2.48
1668.566 2.43 2.39 2.34 2.28 2.24 2.24 2.22 2.22 2.16 2.13
1687.856 2.16 2.12 2.08 2.06 2 1.97 1.95 1.93 1.96 1.97
1707.146 1.99 1.97 1.96 1.95 1.94 1.95 2 2.04 2.04 2.06
1726.435 2.07 2.1 2.15 2.13 2.16 2.22 2.28 2.34 2.37 2.42
1745.725 2.46 2.48 2.49 2.43 2.36 2.28 2.21 2.15 2.07 1.98
1765.015 1.95 1.93 1.88 1.86 1.85 1.83 1.78 1.77 1.74 1.71
1784.305 1.7 1.63 1.61 1.64 1.63 1.59 1.63 1.62 1.57 1.56
1803.594 1.59 1.6 1.6 1.6 1.6 1.63 1.66 1.63 1.67 1.73
1822.884 1.73 1.73 1.76 1.8 1.82 1.82 1.82 1.85 1.9 1.92
1842.174 1.94 1.97 2.01 2.05 2.09 2.16 2.18 2.18 2.19 2.23
1861.464 2.28 2.33 2.39 2.44 2.49 2.54 2.55 2.55 2.56 2.55
1880.754 2.47 2.35 2.29 2.2 2.08 2.01 1.96 1.93 1.89 1.86
1900.043 1.84 1.81 1.76 1.7 1.65 1.61 1.59 1.58 1.56 1.54
1919.333 1.54 1.55 1.56 1.52 1.47 1.46 1.46 1.45 1.45 1.44
1938.623 1.41 1.4 1.38 1.39 1.39 1.36 1.37 1.37 1.34 1.34
1957.913 1.35 1.34 1.35 1.34 1.36 1.37 1.33 1.36 1.39 1.42
1977.202 1.45 1.44 1.47 1.5 1.46 1.47 1.48 1.49 1.48 1.46
1996.492 1.47 1.49 1.47 1.48 1.5 1.51 1.48 1.49 1.5 1.48
2015.782 1.48 1.48 1.49 1.49 1.46 1.42 1.41 1.42 1.37 1.32
2035.072 1.32 1.31 1.3 1.28 1.28 1.29 1.29 1.31 1.31 1.29
2054.362 1.31 1.31 1.29 1.34 1.4 1.42 1.44 1.45 1.44 1.45
2073.651 1.43 1.4 1.41 1.39 1.36 1.35 1.33 1.36 1.39 1.37
2092.941 1.36 1.32 1.28 1.28 1.28 1.23 1.21 1.19 1.13 1.09
2112.231 1.08 1.06 1.03 1.02 0.9948 0.961 0.9632 0.9607 0.9591 0.9489
2131.521 0.9438 0.9378 0.9375 0.9291 0.8974 0.9004 0.9144 0.9214 0.9186 0.9018
2150.810 0.9061 0.9294 0.9184 0.8879 0.8947 0.9488 0.9706 0.928 0.9138 0.9419
2170.100 0.941 0.907 0.9245 0.9736 0.9854 0.9565 0.9355 0.9155 0.8895 0.9374
2189.390 0.9965 0.9649 0.9297 0.9443 0.9355 0.9058 0.8951 0.9061 0.9609 0.9693
2208.680 0.922 0.9255 0.9145 0.9258 0.9722 0.9647 0.9332 0.9507 1 0.9742
2227.970 0.956 0.9858 0.9682 0.9505 0.9859 1.03 1.02 1.01 1.01 1.03
2247.259 1.05 1.01 0.9804 1.01 1.04 1.03 1.04 1.05 1.02 1.04
2266.549 1.1 1.11 1.15 1.15 1.13 1.14 1.14 1.13 1.13 1.16
2285.839 1.18 1.15 1.17 1.21 1.19 1.18 1.19 1.17 1.18 1.22
2305.129 1.2 1.19 1.18 1.17 1.19 1.2 1.18 1.22 1.23 1.18
2324.418 1.21 1.23 1.22 1.24 1.27 1.33 1.35 1.34 1.38 1.4
2343.708 1.41 1.44 1.46 1.47 1.47 1.45 1.45 1.46 1.46 1.4
2362.998 1.38 1.38 1.35 1.35 1.37 1.38 1.38 1.33 1.3 1.31
2382.288 1.31 1.33 1.35 1.34 1.31 1.32 1.34 1.36 1.37 1.38
2401.578 1.36 1.38 1.47 1.49 1.51 1.55 1.58 1.66 1.74 1.81
2420.867 1.9 1.99 2.11 2.21 2.25 2.31 2.32 2.28 2.2 2.12
2440.157 2.03 1.91 1.8 1.7 1.67 1.65 1.6 1.52 1.5 1.47
2459.447 1.41 1.4 1.38 1.37 1.36 1.35 1.33 1.32 1.32 1.29
2478.737 1.29 1.3 1.28 1.26 1.3 1.3 1.29 1.29 1.31 1.33
2498.026 1.34 1.39 1.4 1.41 1.42 1.44 1.45 1.47 1.53 1.51
2517.316 1.44 1.44 1.45 1.4 1.38 1.4 1.35 1.33 1.37 1.38
2536.606 1.37 1.36 1.34 1.29 1.29 1.3 1.31 1.32 1.32 1.32
2555.896 1.29 1.27 1.27 1.3 1.33 1.36 1.37 1.36 1.37 1.4
2575.186 1.42 1.41 1.4 1.43 1.46 1.45 1.46 1.52 1.56 1.62
2594.475 1.64 1.66 1.69 1.7 1.68 1.66 1.65 1.67 1.65 1.65
2613.765 1.68 1.63 1.59 1.62 1.66 1.68 1.7 1.66 1.61 1.62
2633.055 1.64 1.64 1.61 1.65 1.72 1.7 1.69 1.72 1.72 1.75
2652.345 1.74 1.71 1.7 1.68 1.72 1.75 1.72 1.75 1.78 1.73
2671.634 1.72 1.76 1.78 1.8 1.79 1.78 1.77 1.83 1.9 1.92
2690.924 1.9 1.88 1.89 1.92 1.95 1.96 1.97 1.96 2.02 2.03
2710.214 2.04 2.05 2.09 2.13 2.11 2.14 2.19 2.26 2.34 2.4
2729.504 2.45 2.48 2.51 2.57 2.65 2.65 2.61 2.67 2.7 2.66
2748.794 2.6 2.53 2.55 2.57 2.52 2.53 2.54 2.53 2.56 2.63
2768.083 2.64 2.63 2.68 2.77 2.8 2.77 2.78 2.81 2.84 2.89
2787.373 2.93 3 3.08 3.11 3.15 3.25 3.35 3.39 3.51 3.63
2806.663 3.68 3.74 3.86 4.01 4.15 4.28 4.43 4.59 4.75 4.98
2825.953 5.18 5.35 5.55 5.78 6.1 6.5 6.9 7.36 7.91 8.64
2845.242 9.52 10.39 11.38 12.56 13.9 15.3 16.77 18.25 19.67 21.1
2864.532 22.6 24.22 25.95 27.82 29.89 32.14 34.44 36.59 38.32 39.54
2883.822 40.11 40.01 39.36 38.3 37.09 36.02 35.26 34.84 34.94 35.48
2903.112 36.42 37.72 39.32 41.2 43.23 45.35 47.46 49.56 51.58 53.42
2922.401 55.3 57.14 58.8 60.45 62.18 63.77 65.2 66.24 66.69 66.55
2941.691 65.76 64.48 63.01 61.69 61.04 61.45 63.32 67.07 72.68 79.68
2960.981 87.49 95.01 101.1 104.8 105.58 103.32 98.23 91.08 82.63 73.55
2980.271 64.59 56.17 48.45 41.54 35.46 30.34 26.17 22.84 20.23 18.24
2999.561 16.78 15.7 14.86 14.19 13.64 13.16 12.69 12.32 12.06 11.83
3018.850 11.69 11.66 11.86 12.33 12.9 13.5 13.97 14.22 14.23 13.89
3038.140 13.2 12.25 11.25 10.29 9.44 8.8 8.35 8.09 8.08 8.2
3057.430 8.37 8.49 8.65 8.87 8.94 8.98 8.99 8.83 8.6 8.27
3076.720 7.88 7.5 7.02 6.54 6.15 5.87 5.57 5.34 5.33 5.27
3096.009 5.23 5.28 5.29 5.28 5.14 5.03 4.98 4.82 4.58 4.34
3115.299 4.18 3.99 3.83 3.72 3.59 3.41 3.28 3.25 3.16 3.01
3134.589 2.98 2.94 2.78 2.64 2.56 2.58 2.55 2.46 2.43 2.42
3153.879 2.37 2.32 2.19 2.15 2.22 2.24 2.2 2.15 2.16 2.16
3173.169 2.17 2.17 2.07 2.08 2.13 2.07 2.06 2.08 2.08 2.05
3192.458 1.97 1.96 1.97 1.92 1.87 1.85 1.84 1.75 1.68 1.7
3211.748 1.66 1.58 1.59 1.61 1.6 1.56 1.48 1.46 1.52 1.59
3231.038 1.62 1.55 1.48 1.49 1.42 1.36 1.41 1.39 1.34 1.34
3250.328 1.34 1.3 1.33 1.38 1.4 1.41 1.37 1.31 1.31 1.29
3269.617 1.29 1.36 1.45 1.53 1.44 1.33 1.33 1.33 1.3 1.29
3288.907 1.32 1.37 1.4 1.39 1.4 1.37 1.29 1.32 1.33 1.29
3308.197 1.3 1.3 1.3 1.28 1.29 1.26 1.21 1.31 1.34 1.26
3327.487 1.25 1.25 1.25 1.3 1.34 1.27 1.2 1.24 1.31 1.48
3346.777 1.61 1.62 1.72 1.72 1.67 1.68 1.74 1.72 1.58 1.54
3366.066 1.51 1.43 1.44 1.49 1.45 1.44 1.53 1.56 1.56 1.55
3385.356 1.59 1.59 1.57 1.57 1.56 1.54 1.57 1.53 1.41 1.37
3404.646 1.33 1.28 1.31 1.36 1.36 1.37 1.47 1.56 1.55 1.59
3423.936 1.54 1.42 1.43 1.5 1.5 1.46 1.43 1.44 1.46 1.47
3443.225 1.38 1.33 1.35 1.3 1.3 1.31 1.24 1.23 1.2 1.23
3462.515 1.38 1.45 1.41 1.4 1.46 1.43 1.37 1.37 1.34 1.31
3481.805 1.41 1.5 1.47 1.4 1.38 1.42 1.45 1.41 1.42 1.42
3501.095 1.28 1.23 1.24 1.2 1.19 1.16 1.2 1.18 1.19 1.23
3520.385 1.24 1.24 1.27 1.27 1.13 1.16 1.22 1.12 1.05 1.1
3539.674 1.2 1.22 1.18 1.13 1.12 1.15 1.25 1.27 1.18 1.16
3558.964 1.19 1.22 1.26 1.25 1.09 1.12 1.22 1.23 1.2 1.26
3578.254 1.29 1.26 1.24 1.23 1.26 1.29 1.34 1.38 1.39 1.42
3597.544 1.48 1.55 1.57 1.58 1.7 1.79 1.79 1.87 1.99 2.03
3616.833 2.16 2.31 2.4 2.59 2.75 2.98 3.39 3.86 4.5 5.49
3636.123 6.87 8.81 11.65 15.8 21.23 27.62 34.34 39.75 42.29 41.61
3655.413 37.29 30.47 22.97 15.44 9.88 6.61 4.8 3.82 3.1 2.69
3674.703 2.49 2.24 2.14 2.06 1.98 1.95 1.9 1.83 1.76 1.75
3693.993 1.68 1.7 1.64 1.56 1.57 1.56 1.53 1.55 1.52 1.38
3713.282 1.37 1.43 1.41 1.39 1.45 1.47 1.38 1.34 1.34 1.37
3732.572 1.41 1.28 1.24 1.22 1.12 1.1 1.04 1.12 1.22 1.15
3751.862 1.13 1.28 1.32 1.26 1.31 1.38 1.41 1.32 1.24 1.35
3771.152 1.42 1.4 1.37 1.3 1.29 1.3 1.35 1.33 1.28 1.24
3790.441 1.22 1.36 1.4 1.34 1.36 1.29 1.23 1.3 1.34 1.27
3809.731 1.26 1.28 1.3 1.42 1.43 1.34 1.31 1.38 1.44 1.3
3829.021 1.27 1.35 1.36 1.44 1.5 1.57 1.6 1.44 1.38 1.36
3848.311 1.33 1.37 1.48 1.56 1.47 1.44 1.44 1.48 1.47 1.48
3867.601 1.49 1.56 1.69 1.69 1.61 1.51 1.54 1.61 1.59 1.61
3886.890 1.58 1.53 1.55 1.62 1.63 1.54 1.51 1.63 1.65 1.61
3906.180 1.6 1.55 1.59 1.59 1.64 1.69 1.62 1.56 1.47 1.49
3925.470 1.59 1.57 1.46 1.4 1.48 1.53 1.57 1.55 1.56 1.62
3944.760 1.66 1.65 1.57 1.59 1.56 1.6 1.61 1.45 1.43 1.43
3964.049 1.44 1.38 1.31 1.42 1.4 1.35 1.34 1.42 1.46 1.41
3983.339 1.45 1.4 1.31 1.34 1.38 1.35 1.32 1.36 1.49 1.54
##END=
