##TITLE=3-(p-Methoxyphenyl)propionic acid
##JCAMP-DX=4.24
##DATA TYPE=INFRARED SPECTRUM
##ORIGIN=EPA-IR VAPOR PHASE LIBRARY
##OWNER=SRD/NIST
Collection (C) 2018 copyright by the U.S. Secretary of Commerce
on behalf of the United States of America. All rights reserved.
##CAS REGISTRY NO=25173-37-9
##MOLFORM=C 10 H 12 O 3
##$NIST SOURCE=MSDC-IR
##STATE=gas
##XUNITS=1/CM
##YUNITS=ABSORBANCE
##XFACTOR=1.
##YFACTOR=0.001
##DELTAX=1.92898
##FIRSTX=549.8
##LASTX=4000.7
##FIRSTY=16.2633
##MAXX=4000.7
##MINX=549.759
##MAXY=0.0949633
##MINY=0
##NPOINTS=1790
##XYDATA=(X++(Y..Y))
549.759 16.2633 15.9333 15.5733 15.6933 15.6433 15.7833 16.1733 16.5333 17.2633 17.6633
569.049 17.7133 18.0033 17.9033 17.6633 17.6533 17.6933 17.6733 17.8833 17.5133 16.7833
588.339 16.1433 15.3933 14.9233 14.4833 13.9633 13.4633 13.2433 13.0933 12.8333 12.9433
607.628 12.9633 12.7633 12.8733 13.0133 13.1533 13.2733 13.2333 13.3733 13.5533 13.3433
626.918 12.8633 12.4533 12.1233 11.8433 11.7233 11.3533 10.8833 10.4533 9.9733 9.3133
646.208 8.5433 8.0133 7.6333 7.2633 6.9333 6.5233 6.0933 5.7433 5.5733 5.6433
665.498 5.4933 5.2233 5.0633 5.0033 5.0033 4.8133 4.6833 4.6533 4.5433 4.3933
684.787 4.2233 4.2133 4.2033 4.0633 3.8833 3.7833 3.7733 3.6933 3.6133 3.7933
704.077 3.8533 3.7933 3.7733 3.9333 4.2233 4.3733 4.6133 5.0733 5.7733 6.5433
723.367 7.5233 8.6833 9.9833 11.6133 13.3433 15.1233 17.2833 19.6933 22.3433 25.1533
742.657 27.7033 30.1833 32.4033 33.9933 34.2333 32.7633 30.2933 27.3133 24.1333 20.8933
761.947 17.8033 14.8433 12.1933 10.1733 8.6233 7.5033 6.6633 6.0333 5.4933 5.0533
781.236 4.8933 4.7033 4.4733 4.3733 4.1833 4.0533 3.9133 3.6233 3.4233 3.4133
800.526 3.5033 3.3933 3.1833 3.1733 3.1733 3.2433 3.5233 3.6433 3.5333 3.5333
819.816 3.4833 3.2533 3.2133 3.2233 3.1633 2.9633 2.6233 2.4333 2.4233 2.2633
839.106 2.0233 1.8233 1.6033 1.6133 1.5533 1.5533 1.6033 1.5233 1.3533 1.2633
858.395 1.4033 1.4733 1.3633 1.3433 1.5133 1.5433 1.4533 1.4833 1.5833 1.5233
877.685 1.6033 1.8033 1.7333 1.6533 1.6433 1.7533 1.7333 1.7933 2.0333 2.0933
896.975 2.1633 2.1933 2.2233 2.3733 2.4133 2.2933 2.0833 2.2233 2.5333 2.6733
916.265 2.7633 2.7433 2.8933 3.0233 3.1433 3.2633 3.3633 3.4233 3.4233 3.4433
935.555 3.4733 3.7233 3.8533 3.9633 4.0933 4.1633 4.2333 4.2133 4.2433 4.2933
954.844 4.3533 4.3633 4.4233 4.3433 4.1133 4.3033 4.5333 4.4133 4.4033 4.2933
974.134 4.2833 4.5133 4.6633 4.7833 5.0133 5.3733 5.4733 5.4533 5.7433 6.0833
993.424 6.4233 6.6533 6.8933 7.1633 7.5133 7.9833 8.3233 9.0533 9.9233 10.7633
1012.714 11.4633 12.3233 13.5633 14.8233 16.0333 17.3933 18.9633 20.3533 21.4433 22.6833
1032.003 23.6433 24.4233 24.8733 24.8833 25.1633 25.1333 24.8333 24.5233 24.1133 23.3333
1051.293 22.2533 21.1433 20.1533 18.7833 16.9933 15.6833 14.6833 13.6633 12.8633 12.9533
1070.583 13.3133 13.7433 14.4533 15.1533 16.7733 18.7833 21.1733 23.8733 26.5633 29.6033
1089.873 33.2733 37.3133 41.3833 45.5633 49.3333 53.3033 57.0033 60.1833 63.0233 65.1233
1109.163 66.4133 67.7433 68.6633 68.9533 69.0933 68.2433 66.8633 65.2933 62.5833 59.0533
1128.452 55.6033 52.0233 48.1633 43.9733 39.8633 36.4333 33.7333 31.2633 28.9333 26.9333
1147.742 25.4033 24.3833 23.7333 22.9333 22.2633 21.8233 21.3433 21.3733 21.2333 20.9033
1167.032 20.8433 21.0233 21.4233 21.9833 22.7533 23.3233 23.5733 24.0333 24.3833 24.4533
1186.322 24.5033 24.7433 24.7633 24.7433 24.6333 24.4633 24.1733 23.6633 23.4833 23.0633
1205.611 22.7733 22.2533 21.9133 22.1533 22.0733 22.1433 23.0233 24.3433 26.1133 28.5633
1224.901 31.5233 35.1133 39.4433 44.9633 50.7733 56.7833 62.8433 67.9833 71.8833 74.2033
1244.191 74.5733 73.2133 70.3833 65.6933 59.5533 52.7933 46.1333 40.2533 35.3633 31.3833
1263.481 28.3833 26.1133 24.3733 23.2233 22.4333 21.7833 21.3833 21.3133 21.2533 21.0933
1282.771 20.8933 20.4933 20.0233 19.5033 18.8933 18.1033 17.1133 16.2333 15.4633 14.7633
1302.060 14.0933 13.5333 13.1733 12.9333 12.7233 12.5233 12.3933 12.3433 12.2433 12.1133
1321.350 12.0233 11.9633 11.8133 11.6333 11.4633 11.3033 11.1833 11.1233 11.0833 11.0233
1340.640 11.0133 11.0333 11.0833 11.1433 11.2133 11.3833 11.6033 11.8533 12.1033 12.3733
1359.930 12.7133 13.0933 13.5033 13.9033 14.3133 14.6933 15.0833 15.4633 15.6733 15.7733
1379.219 15.6833 15.3133 14.8133 14.1233 13.2833 12.3533 11.3933 10.4533 9.6133 8.8733
1398.509 8.2433 7.7733 7.4433 7.1933 6.9633 6.8133 6.7733 6.8533 6.9633 7.1833
1417.799 7.4933 7.8833 8.3933 8.9833 9.7033 10.5833 11.5833 12.6933 13.8833 15.1133
1437.089 16.3633 17.2733 17.8233 18.2033 18.5233 18.7633 18.8533 18.7633 18.6833 18.8333
1456.378 19.3433 19.9533 20.5533 21.1233 21.4733 21.6633 21.5933 21.4433 21.4733 21.8133
1475.668 22.4533 23.4033 24.9933 27.4233 30.4533 33.9233 37.4133 40.3633 42.2533 42.6833
1494.958 41.8733 40.0333 37.1133 33.0033 28.0433 23.0933 18.4633 14.5733 11.6933 9.4733
1514.248 7.9133 6.8033 5.9033 5.1533 4.5933 4.2233 3.8933 3.5333 3.2833 3.1833
1533.538 3.0133 2.7733 2.6633 2.5933 2.5433 2.4633 2.3533 2.3433 2.3333 2.3333
1552.827 2.4533 2.5833 2.7433 2.9933 3.2333 3.4633 3.7733 4.2233 4.7233 5.3333
1572.117 6.0333 6.7633 7.6133 8.4433 9.2433 9.9833 10.7233 11.4433 12.0633 12.5033
1591.407 12.7433 12.9833 13.1333 12.9433 12.4133 11.8333 11.1933 10.2733 9.2033 8.0433
1610.697 6.9733 5.9433 4.9733 4.2133 3.5733 3.0933 2.7233 2.4133 2.2133 2.0233
1629.986 1.8633 1.8333 1.8233 1.8033 1.6833 1.5733 1.5733 1.6233 1.6333 1.5533
1649.276 1.5233 1.5433 1.5833 1.6233 1.6333 1.6833 1.7533 1.8033 1.8333 1.8933
1668.566 2.0433 2.1333 2.0833 2.1433 2.2633 2.2733 2.3433 2.4233 2.4933 2.5633
1687.856 2.6533 2.7433 2.7733 2.9533 3.1433 3.2633 3.4333 3.5733 3.7733 4.0233
1707.146 4.3133 4.6233 4.9533 5.4033 5.8533 6.3233 6.8833 7.4433 8.1233 8.9633
1726.435 9.8333 10.8033 11.8933 13.0533 14.4333 15.8933 17.4333 19.2133 21.0933 23.0833
1745.725 25.1833 27.5033 29.9833 32.7733 35.9433 39.4533 43.5033 48.1533 53.6833 60.0033
1765.015 66.8533 74.0033 81.0233 87.0333 91.6633 94.4033 94.9633 93.1733 89.0833 83.1333
1784.305 76.2133 69.2033 62.5533 56.3633 50.7033 45.6633 41.2933 37.3633 33.8833 30.6633
1803.594 27.6433 24.8233 22.2333 19.8633 17.6533 15.6433 13.8533 12.2033 10.8333 9.6233
1822.884 8.6333 7.7033 6.8233 6.1833 5.5833 5.0833 4.6933 4.3533 4.0133 3.7333
1842.174 3.5433 3.3333 3.1033 2.9233 2.7433 2.6133 2.5233 2.4133 2.3133 2.2033
1861.464 2.1433 2.1133 2.0533 1.9533 1.9433 1.9033 1.9533 2.0233 2.0233 2.1133
1880.754 2.2533 2.2633 2.2233 2.3133 2.3533 2.2833 2.2233 2.1733 2.0433 1.9033
1900.043 1.8733 1.8033 1.6633 1.6333 1.6633 1.6433 1.6633 1.7033 1.7533 1.8133
1919.333 1.8833 1.9333 1.9333 1.9633 1.9033 1.8633 1.8333 1.7033 1.5933 1.4333
1938.623 1.2733 1.2033 1.0733 0.9844 1.0217 1.0333 0.9383 0.9017 0.9096 0.9115
1957.913 0.9254 0.9537 0.9599 0.9733 0.9821 0.9895 1.0167 0.9658 1.012 1.0533
1977.202 1.0533 1.0933 1.0933 1.1033 1.0733 1.1033 1.1433 1.1433 1.1833 1.1933
1996.492 1.1433 1.1033 1.0833 1.1233 1.0933 1.0733 1.1133 1.1033 1.0333 1.0433
2015.782 1.1133 1.0833 1.0533 1.1133 1.1533 1.1233 1.1233 1.1633 1.1933 1.1833
2035.072 1.2033 1.2433 1.2733 1.2533 1.3233 1.3533 1.3133 1.3733 1.3933 1.3933
2054.362 1.4433 1.4833 1.4733 1.4433 1.5033 1.5333 1.5133 1.4633 1.4633 1.3933
2073.651 1.2633 1.2233 1.1833 1.1233 1.0633 0.9732 0.9498 0.9294 0.8275 0.7978
2092.941 0.7901 0.8106 0.8024 0.725 0.6857 0.6716 0.6702 0.691 0.763 0.7271
2112.231 0.6524 0.6315 0.6636 0.6627 0.6189 0.6924 0.6983 0.6605 0.6719 0.6214
2131.521 0.6359 0.697 0.6232 0.6235 0.6934 0.6766 0.6873 0.6901 0.6711 0.7022
2150.810 0.6913 0.6657 0.6568 0.6556 0.6343 0.5536 0.5884 0.6426 0.6595 0.7047
2170.100 0.6653 0.6167 0.6261 0.6898 0.6363 0.5426 0.5769 0.5807 0.563 0.6165
2189.390 0.6282 0.6405 0.691 0.6465 0.6233 0.6473 0.7003 0.7392 0.7031 0.7285
2208.680 0.8373 0.8047 0.7624 0.7869 0.8357 0.8588 0.8077 0.7755 0.7553 0.7539
2227.970 0.8213 0.8868 0.8412 0.8393 0.8236 0.7902 0.8175 0.7896 0.7923 0.8253
2247.259 0.8279 0.759 0.6721 0.7646 0.7708 0.7376 0.7812 0.7195 0.6881 0.7353
2266.549 0.7799 0.793 0.717 0.6931 0.7202 0.6475 0.6489 0.7071 0.714 0.6793
2285.839 0.6735 0.6924 0.6927 0.6514 0.6247 0.6423 0.6124 0.6139 0.612 0.6137
2305.129 0.6153 0.6036 0.5651 0.5421 0.5635 0.6351 0.7194 0.6933 0.6262 0.5909
2324.418 0.6538 0.6898 0.6861 0.6623 0.6086 0.5939 0.5625 0.5909 0.6411 0.6536
2343.708 0.6173 0.5228 0.5232 0.596 0.6238 0.618 0.5904 0.5354 0.5841 0.5881
2362.998 0.5713 0.6606 0.6282 0.5747 0.5618 0.5553 0.5028 0.4466 0.4655 0.4487
2382.288 0.4434 0.4657 0.5024 0.5318 0.5505 0.583 0.5338 0.555 0.6252 0.6457
2401.578 0.691 0.6271 0.5447 0.5894 0.6275 0.6832 0.734 0.6335 0.5582 0.5373
2420.867 0.4984 0.5635 0.6271 0.6705 0.7015 0.5683 0.5574 0.6179 0.5469 0.5462
2440.157 0.5153 0.5279 0.6258 0.6595 0.6598 0.6174 0.6586 0.7521 0.7422 0.7008
2459.447 0.7323 0.7336 0.7519 0.8018 0.8557 0.8832 0.8768 0.9115 0.8576 0.8069
2478.737 0.751 0.7012 0.8159 0.8754 0.8069 0.8392 0.875 0.7887 0.7074 0.6872
2498.026 0.7567 0.8056 0.745 0.6729 0.6137 0.6622 0.6854 0.6701 0.6641 0.6366
2517.316 0.6493 0.7171 0.7714 0.7284 0.7705 0.7619 0.7728 0.8404 0.7876 0.7316
2536.606 0.7463 0.811 0.783 0.7389 0.7664 0.7624 0.6731 0.661 0.7166 0.6443
2555.896 0.5354 0.576 0.6072 0.5651 0.6243 0.6687 0.66 0.6166 0.5991 0.5636
2575.186 0.5447 0.5816 0.5435 0.5977 0.6366 0.6363 0.6478 0.5866 0.5607 0.6036
2594.475 0.6623 0.6521 0.5932 0.6335 0.7709 0.8214 0.7482 0.6792 0.629 0.6242
2613.765 0.6616 0.6684 0.7047 0.7166 0.6678 0.619 0.5308 0.4861 0.5497 0.582
2633.055 0.583 0.5407 0.6137 0.7083 0.6845 0.6323 0.5942 0.5755 0.5116 0.538
2652.345 0.529 0.4361 0.4467 0.4353 0.4345 0.5151 0.4455 0.3941 0.4156 0.3888
2671.634 0.347 0.4012 0.4541 0.4072 0.4074 0.5055 0.599 0.4997 0.3875 0.3881
2690.924 0.3819 0.4236 0.4117 0.389 0.4918 0.5224 0.5649 0.5194 0.4939 0.6064
2710.214 0.5436 0.5122 0.5752 0.5547 0.5022 0.5613 0.5615 0.5032 0.4896 0.5347
2729.504 0.5677 0.5763 0.5624 0.5435 0.6091 0.6526 0.6173 0.5739 0.537 0.4879
2748.794 0.5961 0.6029 0.5986 0.6661 0.689 0.7809 0.7688 0.6633 0.6082 0.7572
2768.083 0.8505 0.864 0.8984 0.8848 0.9096 0.8925 0.8881 0.9753 1.0733 1.0333
2787.373 1.0933 1.1733 1.1333 1.1633 1.2633 1.2933 1.3633 1.4333 1.4633 1.5233
2806.663 1.5533 1.6933 1.8433 1.9533 2.0833 2.2233 2.4433 2.6333 2.8633 3.2533
2825.953 3.6733 4.1233 4.5633 5.2533 6.2033 7.3333 8.5333 9.4033 10.1033 10.6533
2845.242 10.9333 10.9333 10.6433 10.0833 9.2233 8.3933 7.6533 6.9133 6.2833 5.8933
2864.532 5.6733 5.5533 5.5733 5.5133 5.4433 5.4233 5.5033 5.7433 5.8233 5.8533
2883.822 5.8733 5.9133 5.9733 6.0333 6.3733 6.6433 6.7833 6.9833 7.3033 7.7033
2903.112 8.0833 8.4533 8.7833 9.2733 9.8433 10.4233 11.1033 11.8033 12.3533 12.7433
2922.401 13.1033 13.6433 14.2633 15.1033 16.0533 16.7933 17.7333 18.8433 20.0833 21.3833
2941.691 22.4233 23.2933 23.9633 24.2333 24.0933 23.6833 23.0533 22.2333 21.1533 20.1133
2960.981 19.0133 17.5633 16.2533 15.1233 14.0533 13.1633 12.3533 11.6533 10.9833 10.5233
2980.271 10.2133 9.9633 9.8933 9.8533 9.8133 9.9833 10.2533 10.6333 11.2133 11.7033
2999.561 12.3533 12.9033 12.9933 12.9233 12.6833 12.1733 11.7033 11.1633 10.4533 10.0633
3018.850 9.8233 9.6633 9.7233 10.0533 10.4233 10.5633 10.5333 10.4533 10.3833 10.1533
3038.140 9.8333 9.3333 8.8333 8.2533 7.9133 7.8433 7.6833 7.6933 7.8233 8.0433
3057.430 8.3733 8.8633 9.3333 9.6533 10.0933 10.6233 11.1133 11.4933 11.8733 12.1033
3076.720 12.0733 11.9233 11.4933 10.8833 10.0833 9.1933 8.3433 7.3633 6.4133 5.5633
3096.009 4.7733 4.2533 3.8533 3.5933 3.4933 3.4133 3.3433 3.0733 2.7333 2.5233
3115.299 2.3933 2.3033 1.9933 1.8033 1.7333 1.5833 1.3533 1.0933 1.1233 1.0015
3134.589 0.8814 0.9718 0.9244 0.9262 0.9673 0.7611 0.6989 0.8218 0.8381 0.7983
3153.879 0.9123 0.9413 0.8582 0.9675 0.8617 0.7578 0.8115 0.7963 0.7867 0.8774
3173.169 0.8978 0.6433 0.5545 0.5251 0.4478 0.5713 0.7899 0.7418 0.4956 0.4785
3192.458 0.5459 0.4795 0.478 0.7117 0.7472 0.4561 0.2436 0.2677 0.3303 0.305
3211.748 0.3305 0.2942 0.396 0.5957 0.5342 0.3372 0.2649 0.1864 0.1401 0.3531
3231.038 0.295 0.3361 0.4263 0.2723 0.1856 0.2581 0.3456 0.2472 0.2541 0.3026
3250.328 0.2661 0.2774 0.1782 0.2069 0.1974 0.01769 0 0.1655 0.2958 0.1723
3269.617 0.1733 0.1854 0.2285 0.3617 0.4266 0.4542 0.4246 0.4041 0.4623 0.3026
3288.907 0.1301 0.10745 0.1612 0.348 0.4354 0.2977 0.3493 0.4499 0.1507 0.08627
3308.197 0.2039 0.2303 0.3773 0.3325 0.2735 0.4453 0.3403 0.1692 0.2758 0.4212
3327.487 0.3153 0.2792 0.3979 0.3825 0.2241 0.10231 0.1412 0.2181 0.3207 0.4196
3346.777 0.3251 0.2089 0.1715 0.2061 0.268 0.2062 0.1735 0.2785 0.2587 0.1663
3366.066 0.11834 0.0885 0.2804 0.4025 0.3103 0.2668 0.2269 0.2086 0.2869 0.375
3385.356 0.351 0.1786 0.01454 0.029899 0.1615 0.11407 0.2654 0.2891 0.1895 0.4537
3404.646 0.534 0.3522 0.211 0.2217 0.2159 0.2198 0.2829 0.3236 0.3093 0.2798
3423.936 0.4068 0.3199 0.07752 0.1342 0.3494 0.4122 0.4386 0.3747 0.2964 0.3001
3443.225 0.2164 0.3989 0.5608 0.4819 0.5117 0.4104 0.175 0.2184 0.3471 0.4655
3462.515 0.447 0.6452 0.6671 0.4349 0.5068 0.5152 0.5543 0.5251 0.4663 0.5054
3481.805 0.5517 0.5114 0.5459 0.7254 0.7091 0.7706 0.9166 0.9682 0.9827 0.9759
3501.095 1.0533 1.0333 1.0099 1.0433 1.1433 1.1933 1.1633 1.2233 1.2633 1.3433
3520.385 1.4833 1.4333 1.5133 1.6333 1.7133 1.8133 1.8333 1.9633 2.0633 2.0633
3539.674 2.2133 2.2933 2.3933 2.7933 3.0033 3.0433 3.2333 3.7033 4.3333 4.9733
3558.964 6.0133 7.5933 10.1733 14.2333 20.1233 27.3433 33.3733 36.7533 38.3833 38.1733
3578.254 36.2233 33.0333 27.1333 19.8633 13.5433 9.2533 6.9133 5.5933 4.6833 3.8333
3597.544 3.2233 2.9033 2.8033 2.4533 2.1433 2.0633 1.9433 1.7533 1.7133 1.5033
3616.833 1.2933 1.2833 1.1633 1.0733 0.9446 0.9787 0.9899 0.7718 0.6578 0.6762
3636.123 0.7351 0.8196 0.7837 0.811 0.7839 0.7112 0.7304 0.5383 0.395 0.3564
3655.413 0.4095 0.485 0.4414 0.5659 0.6305 0.3646 0.2659 0.4195 0.5265 0.5879
3674.703 0.7774 0.6962 0.4084 0.1812 0.10465 0.3081 0.3026 0.2477 0.3516 0.2991
3693.993 0.2938 0.3234 0.1344 0.1617 0.3576 0.4661 0.466 0.5341 0.608 0.4752
3713.282 0.4931 0.4455 0.2712 0.3995 0.3616 0.1555 0.1832 0.2373 0.2558 0.3088
3732.572 0.3501 0.3787 0.2842 0.1361 0.3752 0.4465 0.2238 0.11779 0.152 0.2633
3751.862 0.1644 0.2198 0.4161 0.2851 0.09751 0.05857 0.273 0.4353 0.2893 0.3538
3771.152 0.3162 0.1542 0.2029 0.244 0.3508 0.3845 0.2565 0.1934 0.10028 0.11237
3790.441 0.2113 0.2037 0.1588 0.12318 0.1487 0.183 0.2003 0.2313 0.2858 0.1674
3809.731 0.12269 0.257 0.1675 0.1499 0.2263 0.1432 0.2426 0.2585 0.1765 0.182
3829.021 0.2516 0.3755 0.4037 0.3821 0.2455 0.2049 0.2627 0.1877 0.1833 0.03416
3848.311 0.1563 0.3269 0.2619 0.3772 0.3862 0.4651 0.5132 0.4382 0.4183 0.4001
3867.601 0.4191 0.5394 0.4937 0.3258 0.2192 0.2448 0.3926 0.2805 0.1805 0.3626
3886.890 0.4217 0.3431 0.2675 0.2595 0.4116 0.3932 0.4244 0.5385 0.4848 0.4929
3906.180 0.3423 0.3093 0.2713 0.1814 0.2185 0.1545 0.1808 0.2681 0.2771 0.1898
3925.470 0.1064 0.269 0.4582 0.4263 0.3324 0.3724 0.4221 0.2824 0.2757 0.27
3944.760 0.2874 0.3481 0.2771 0.3175 0.4487 0.5898 0.4041 0.2107 0.3781 0.4206
3964.049 0.5542 0.601 0.326 0.3832 0.5334 0.3292 0.1631 0.275 0.5061 0.5165
3983.339 0.4851 0.5011 0.614 0.7269 0.5731 0.654 0.7487 0.5779 0.5665 0.4489
##END=
