##TITLE=3-(3,4-Dichlorophenyl)propionic acid
##JCAMP-DX=4.24
##DATA TYPE=INFRARED SPECTRUM
##ORIGIN=EPA-IR VAPOR PHASE LIBRARY
##OWNER=SRD/NIST
Collection (C) 2018 copyright by the U.S. Secretary of Commerce
on behalf of the United States of America. All rights reserved.
##CAS REGISTRY NO=25173-68-6
##MOLFORM=C 9 H 8 Cl 2 O 2
##$NIST SOURCE=MSDC-IR
##STATE=gas
##XUNITS=1/CM
##YUNITS=ABSORBANCE
##XFACTOR=1.
##YFACTOR=0.001
##DELTAX=1.92898
##FIRSTX=549.8
##LASTX=4000.7
##FIRSTY=14.628
##MAXX=4000.7
##MINX=549.759
##MAXY=0.123488
##MINY=0
##NPOINTS=1790
##XYDATA=(X++(Y..Y))
549.759 14.628 14.798 14.868 14.868 15.098 15.618 15.928 16.538 17.488 18.308
569.049 19.118 20.558 22.008 23.098 24.588 26.138 27.278 27.928 28.558 28.728
588.339 28.338 27.778 26.998 26.238 25.388 24.798 24.278 24.128 24.378 24.198
607.628 23.878 23.278 22.378 21.478 20.088 18.608 17.398 16.308 15.438 14.458
626.918 13.918 13.548 12.868 12.598 12.638 13.088 13.778 14.718 15.898 17.058
646.208 18.038 18.608 18.828 18.658 18.288 17.938 17.538 17.198 16.888 16.588
665.498 16.438 16.388 16.378 16.278 16.398 16.548 16.638 16.988 17.338 17.198
684.787 16.498 15.508 14.228 12.788 11.498 10.488 9.688 9.198 9.128 9.068
704.077 8.938 8.788 8.418 8.148 7.958 7.468 6.948 6.568 6.038 5.488
723.367 5.308 5.028 4.728 4.628 4.528 4.318 4.148 4.018 3.788 3.618
742.657 3.558 3.588 3.438 3.248 3.288 3.348 3.278 3.198 3.248 3.348
761.947 3.398 3.448 3.448 3.418 3.458 3.508 3.508 3.568 3.568 3.598
781.236 3.748 3.838 3.978 4.348 4.708 5.218 5.828 6.458 7.248 7.938
800.526 8.828 9.888 11.098 12.608 14.328 16.128 17.728 19.098 20.138 20.288
819.816 19.378 17.868 15.918 14.128 12.358 10.328 8.828 8.018 7.498 7.238
839.106 7.248 7.618 8.208 8.478 8.908 9.528 9.728 9.848 9.928 9.658
858.395 9.578 9.598 9.598 10.038 10.538 11.028 11.568 11.818 11.808 11.448
877.685 10.798 10.148 9.118 8.028 7.248 6.528 5.858 5.308 5.008 4.768
896.975 4.668 4.708 4.718 4.878 4.878 4.838 5.018 5.018 5.058 5.038
916.265 4.718 4.538 4.438 4.348 4.408 4.388 4.338 4.268 4.348 4.668
935.555 4.958 5.108 5.228 5.368 5.738 6.098 6.068 6.218 6.328 6.308
954.844 6.458 6.488 6.538 6.458 6.288 6.288 6.178 5.938 5.758 5.558
974.134 5.518 5.598 5.558 5.568 5.518 5.568 5.718 5.718 5.738 5.928
993.424 6.198 6.438 6.698 7.158 7.498 7.988 8.538 8.948 9.478 10.168
1012.714 11.168 12.508 14.148 16.148 18.468 21.218 24.878 28.688 32.198 34.988
1032.003 36.088 35.328 33.098 30.068 26.158 21.718 18.058 15.448 13.508 11.998
1051.293 11.058 10.278 9.548 9.368 9.258 9.298 9.268 9.498 9.968 10.298
1070.583 11.228 12.178 13.018 14.108 15.248 16.978 18.888 20.608 22.488 24.628
1089.873 27.408 29.968 32.278 34.838 38.238 42.468 46.678 52.438 59.198 66.508
1109.163 74.748 83.858 93.318 101.748 108.208 112.488 114.518 113.678 111.098 107.978
1128.452 103.428 98.038 93.078 87.948 81.878 75.318 68.758 62.378 56.978 52.688
1147.742 49.038 45.938 42.848 39.578 36.438 33.038 30.208 27.708 25.498 24.208
1167.032 23.408 23.108 23.348 23.648 24.038 24.398 24.388 24.838 25.428 25.488
1186.322 25.318 24.908 24.768 24.738 24.458 23.948 23.658 23.868 23.748 23.458
1205.611 23.138 22.378 21.468 20.468 19.498 18.378 17.188 16.248 15.278 14.648
1224.901 13.878 13.028 12.748 12.568 12.508 12.288 12.088 11.848 11.938 12.358
1244.191 12.408 12.398 12.668 12.908 13.028 13.258 13.238 13.428 13.818 14.158
1263.481 14.158 13.778 13.598 13.238 12.818 12.408 11.988 11.778 11.508 11.078
1282.771 10.668 10.328 10.048 9.888 9.848 9.738 9.628 9.468 9.388 9.408
1302.060 9.348 9.278 9.198 9.148 9.208 9.258 9.298 9.318 9.298 9.438
1321.350 9.618 9.878 10.188 10.378 10.618 10.898 11.188 11.388 11.438 11.418
1340.640 11.388 11.418 11.428 11.538 11.818 12.248 12.838 13.548 14.298 15.108
1359.930 15.988 16.878 17.868 18.908 19.918 20.998 22.058 23.128 24.208 25.178
1379.219 26.118 26.938 27.608 28.038 28.198 28.248 28.098 27.668 27.038 26.148
1398.509 25.028 23.758 22.278 20.528 18.708 16.998 15.408 14.028 13.068 12.388
1417.799 11.928 11.758 11.778 11.898 12.078 12.288 12.408 12.518 12.618 12.658
1437.089 12.788 12.988 13.348 13.908 14.658 15.618 16.808 18.068 19.348 20.728
1456.378 22.258 24.038 26.148 28.968 32.698 37.528 42.858 47.958 51.558 52.618
1475.668 50.718 46.098 39.398 31.508 23.908 17.868 13.668 10.788 8.798 7.428
1494.958 6.488 5.748 5.088 4.558 4.158 3.858 3.558 3.328 3.198 3.038
1514.248 2.918 2.818 2.728 2.678 2.698 2.708 2.658 2.698 2.788 2.788
1533.538 2.778 2.928 3.228 3.548 3.858 4.228 4.658 5.198 5.808 6.348
1552.827 6.848 7.408 7.888 8.268 8.398 8.348 8.218 7.948 7.668 7.408
1572.117 7.098 6.908 6.768 6.568 6.368 6.118 5.918 5.728 5.708 5.878
1591.407 6.078 6.058 5.908 5.658 5.198 4.658 4.088 3.618 3.238 2.838
1610.697 2.568 2.468 2.328 2.228 2.248 2.098 1.988 1.958 1.978 1.988
1629.986 1.998 2.028 1.988 1.978 1.948 1.848 1.768 1.728 1.688 1.628
1649.276 1.478 1.448 1.488 1.438 1.448 1.518 1.518 1.528 1.558 1.618
1668.566 1.718 1.758 1.768 1.758 1.788 1.848 1.948 2.038 2.138 2.268
1687.856 2.398 2.488 2.618 2.808 3.058 3.228 3.428 3.748 4.008 4.338
1707.146 4.648 5.018 5.578 6.098 6.698 7.468 8.218 9.048 9.998 11.128
1726.435 12.398 13.678 15.108 16.668 18.458 20.328 22.288 24.528 26.958 29.608
1745.725 32.328 35.218 38.278 41.578 45.138 48.978 53.468 58.578 64.528 71.308
1765.015 78.678 86.558 94.958 103.158 111.058 117.598 121.788 123.488 122.488 118.578
1784.305 111.848 103.058 93.328 83.538 74.328 66.098 59.068 52.948 47.838 43.328
1803.594 39.388 35.738 32.318 29.178 26.238 23.538 21.028 18.648 16.478 14.578
1822.884 12.878 11.398 10.158 9.058 8.098 7.278 6.578 5.908 5.328 4.858
1842.174 4.448 4.078 3.698 3.408 3.148 2.958 2.808 2.638 2.508 2.398
1861.464 2.318 2.228 2.208 2.218 2.198 2.208 2.258 2.318 2.318 2.398
1880.754 2.538 2.648 2.758 2.708 2.648 2.638 2.608 2.548 2.438 2.308
1900.043 2.198 2.078 1.958 1.878 1.778 1.658 1.598 1.518 1.488 1.488
1919.333 1.418 1.328 1.308 1.298 1.298 1.2012 1.155 1.1638 1.0975 1.0547
1938.623 1.0493 1.0187 1.0234 1.0538 1.0613 1.0476 1.0284 1.0094 0.9586 0.9268
1957.913 0.9088 0.9213 0.9486 0.9552 0.9307 0.8887 0.8762 0.8955 0.883 0.9062
1977.202 0.9615 0.9511 0.9772 0.9693 0.9205 0.9466 0.9724 0.8941 0.8864 0.9002
1996.492 0.8368 0.8211 0.7985 0.785 0.7873 0.7697 0.785 0.7996 0.7191 0.6851
2015.782 0.7363 0.7 0.7288 0.7789 0.7332 0.7417 0.751 0.6872 0.6736 0.7054
2035.072 0.7191 0.7332 0.6713 0.6493 0.6543 0.6591 0.6449 0.6627 0.7517 0.7155
2054.362 0.6634 0.6861 0.6536 0.64 0.7022 0.6817 0.6658 0.6815 0.7072 0.7259
2073.651 0.6789 0.6277 0.624 0.6461 0.6395 0.6841 0.7051 0.6435 0.5806 0.5778
2092.941 0.624 0.6694 0.6752 0.703 0.6972 0.7025 0.6464 0.5605 0.6262 0.6872
2112.231 0.7443 0.7499 0.7319 0.7507 0.7399 0.7111 0.6858 0.6576 0.6603 0.6959
2131.521 0.7397 0.8144 0.8311 0.7978 0.7868 0.7925 0.7802 0.7442 0.7419 0.7377
2150.810 0.7308 0.7606 0.7896 0.7294 0.7324 0.7624 0.7558 0.8359 0.831 0.7643
2170.100 0.7232 0.7032 0.7132 0.6827 0.6849 0.7116 0.7643 0.76 0.6945 0.7026
2189.390 0.7642 0.8336 0.7903 0.7628 0.7484 0.6985 0.6966 0.7323 0.8188 0.8288
2208.680 0.8283 0.8538 0.8394 0.8139 0.8015 0.8971 0.9582 0.9459 0.9276 0.9139
2227.970 0.9068 0.9434 1.0025 0.9909 0.9832 1.0223 1.0329 0.9809 0.9405 0.9151
2247.259 0.9648 0.9845 0.9088 0.8964 0.9243 0.8753 0.7746 0.7276 0.753 0.7664
2266.549 0.7508 0.7146 0.7277 0.8004 0.8325 0.8185 0.8009 0.7691 0.7707 0.7215
2285.839 0.7109 0.784 0.7558 0.7222 0.782 0.7799 0.707 0.7664 0.8072 0.7526
2305.129 0.6396 0.598 0.6615 0.7063 0.7036 0.6119 0.5667 0.5683 0.6362 0.6521
2324.418 0.553 0.5612 0.6115 0.6075 0.5933 0.6071 0.653 0.6555 0.6452 0.7014
2343.708 0.6829 0.7128 0.7003 0.5474 0.5447 0.6267 0.6785 0.7227 0.689 0.6406
2362.998 0.6612 0.6816 0.7558 0.8384 0.82 0.8011 0.7971 0.7838 0.801 0.8759
2382.288 0.854 0.8364 0.8778 0.8786 0.8791 0.8203 0.8193 0.7966 0.7831 0.84
2401.578 0.824 0.7695 0.7356 0.7586 0.7835 0.8314 0.8309 0.807 0.7745 0.7139
2420.867 0.6812 0.7035 0.7619 0.7795 0.7258 0.6156 0.6157 0.7188 0.7598 0.6647
2440.157 0.6037 0.616 0.6647 0.7357 0.734 0.6956 0.6581 0.6681 0.7207 0.7355
2459.447 0.7253 0.7289 0.7634 0.73 0.6406 0.6822 0.6792 0.6368 0.6815 0.5894
2478.737 0.5209 0.5653 0.5582 0.5297 0.5524 0.6035 0.6416 0.6473 0.5504 0.5119
2498.026 0.5865 0.675 0.6855 0.6682 0.6336 0.6435 0.6401 0.6294 0.6559 0.6094
2517.316 0.6308 0.6571 0.6119 0.5712 0.6048 0.6348 0.6051 0.5725 0.5267 0.5529
2536.606 0.6631 0.6283 0.5421 0.598 0.7049 0.7174 0.6183 0.5406 0.5582 0.5921
2555.896 0.5547 0.5213 0.5267 0.5735 0.5387 0.4178 0.4006 0.38582 0.4612 0.6386
2575.186 0.6027 0.4839 0.5007 0.6614 0.6953 0.6005 0.6122 0.5597 0.5615 0.6005
2594.475 0.5727 0.5461 0.5443 0.5224 0.4985 0.5614 0.5749 0.5697 0.5617 0.5284
2613.765 0.4898 0.5003 0.5205 0.5396 0.5744 0.4755 0.4962 0.5413 0.5214 0.5755
2633.055 0.5628 0.4582 0.4438 0.4811 0.4727 0.496 0.486 0.5693 0.6485 0.5355
2652.345 0.4487 0.5622 0.6077 0.5451 0.5459 0.4844 0.4832 0.5659 0.5707 0.5812
2671.634 0.5785 0.5237 0.4516 0.4593 0.4887 0.4374 0.4902 0.49 0.4797 0.5537
2690.924 0.5369 0.5386 0.5019 0.3917 0.4064 0.5104 0.5499 0.5387 0.532 0.575
2710.214 0.5527 0.5595 0.5748 0.4835 0.4491 0.5546 0.638 0.6038 0.5012 0.4295
2729.504 0.4614 0.5579 0.5763 0.4805 0.4554 0.4457 0.4095 0.35129 0.34668 0.37766
2748.794 0.4074 0.4403 0.4479 0.4462 0.5251 0.5501 0.4269 0.4313 0.5047 0.5757
2768.083 0.5804 0.5328 0.5303 0.5568 0.5644 0.5597 0.5846 0.6872 0.7445 0.6416
2787.373 0.6263 0.686 0.7509 0.7605 0.722 0.6962 0.6048 0.5244 0.5233 0.5964
2806.663 0.7356 0.7142 0.6097 0.6695 0.715 0.6926 0.7267 0.7085 0.6819 0.6629
2825.953 0.7446 0.8892 0.9918 1.0451 0.9761 0.9431 1.0192 1.1131 1.1798 1.288
2845.242 1.308 1.328 1.488 1.568 1.598 1.728 1.888 1.978 2.068 2.208
2864.532 2.228 2.368 2.628 2.788 3.008 3.148 3.198 3.178 3.148 3.138
2883.822 3.118 2.998 2.818 2.688 2.608 2.568 2.518 2.438 2.468 2.568
2903.112 2.628 2.688 2.788 2.958 3.168 3.418 3.778 4.188 4.518 5.068
2922.401 5.748 6.418 7.138 7.748 8.378 9.098 9.838 10.478 11.018 11.368
2941.691 11.448 11.358 11.108 10.768 10.348 9.788 9.208 8.728 8.548 8.498
2960.981 8.408 8.278 8.168 8.048 7.838 7.698 7.508 7.218 6.848 6.418
2980.271 6.028 5.718 5.248 4.898 4.668 4.408 4.098 3.748 3.528 3.278
2999.561 2.928 2.628 2.448 2.428 2.398 2.288 2.218 2.138 2.228 2.318
3018.850 2.378 2.418 2.388 2.598 2.778 2.838 2.938 3.108 3.318 3.268
3038.140 3.168 3.208 3.188 3.098 3.168 3.408 3.528 3.558 3.678 3.888
3057.430 4.068 4.178 4.128 4.038 3.948 3.748 3.538 3.178 2.768 2.688
3076.720 2.548 2.428 2.358 2.158 2.088 2.028 2.048 2.028 1.908 1.868
3096.009 1.698 1.518 1.378 1.1061 0.9782 0.905 0.7871 0.7167 0.5619 0.5352
3115.299 0.5812 0.4965 0.4803 0.4025 0.28004 0.31101 0.4229 0.4344 0.4167 0.38336
3134.589 0.4436 0.4714 0.35034 0.3494 0.4606 0.4295 0.4517 0.5239 0.5125 0.5576
3153.879 0.4647 0.36127 0.4252 0.5077 0.4949 0.494 0.4884 0.34023 0.2772 0.3973
3173.169 0.33696 0.2738 0.38687 0.35975 0.37975 0.4094 0.35207 0.2667 0.2086 0.186
3192.458 0.2028 0.2247 0.18 0.243 0.31829 0.289082 0.173 0.098 0.143 0.2141
3211.748 0.27925 0.27878 0.2418 0.116 0.121 0.2124 0.163 0.142 0.2666 0.2331
3231.038 0.141 0.2219 0.25 0.2074 0.2289 0.1998 0.115 0.2087 0.146 0.065
3250.328 0.159 0.181 0.142 0.076 0.099 0.2047 0.2497 0.2514 0.2246 0.142
3269.617 0.136 0.2084 0.116 0.089 0.108 0.055 0.113 0.158 0.171 0.2459
3288.907 0.33268 0.30108 0.2258 0.1924 0.2373 0.33225 0.1907 0.103 0.148 0.2307
3308.197 0.2477 0.293074 0.4543 0.2747 0.1912 0.3054 0.2373 0.179 0.249 0.2266
3327.487 0.154 0.1881 0.178 0.2231 0.187 0.2103 0.32122 0.2159 0.2379 0.31577
3346.777 0.33899 0.28602 0.132 0.146 0.11 0.171 0.3991 0.4528 0.4023 0.2393
3366.066 0.2421 0.2635 0.2389 0.36144 0.34762 0.2666 0.28649 0.2144 0.1948 0.34322
3385.356 0.271 0.2306 0.318 0.35785 0.3269 0.293024 0.2267 0.121 0.156 0.122
3404.646 0 0.02 0.2147 0.30783 0.30476 0.1976 0.2125 0.166 0.147 0.37746
3423.936 0.4023 0.287642 0.149 0.108 0.1939 0.2522 0.17 0.137 0.184 0.30466
3443.225 0.4011 0.3964 0.38282 0.405 0.34616 0.201 0.148 0.1986 0.28085 0.161
3462.515 0.151 0.32145 0.3922 0.3813 0.2533 0.30401 0.392 0.4617 0.5861 0.6295
3481.805 0.5972 0.5431 0.5607 0.5901 0.6619 0.7598 0.7158 0.7478 0.8374 0.7464
3501.095 0.6836 0.8657 0.9958 0.9773 1.1089 1.2329 1.2493 1.2318 1.408 1.668
3520.385 1.678 1.748 1.898 1.958 2.118 2.208 2.358 2.498 2.608 2.778
3539.674 3.028 3.418 3.738 4.158 4.608 5.168 5.858 6.768 8.038 9.618
3558.964 11.938 15.158 19.678 25.918 34.488 45.478 55.798 61.978 63.048 60.378
3578.254 53.698 42.618 30.748 21.578 15.468 11.588 9.158 7.378 6.148 5.268
3597.544 4.468 3.928 3.408 2.968 2.768 2.498 2.178 1.888 1.718 1.708
3616.833 1.638 1.638 1.518 1.498 1.608 1.408 1.209 1.1331 1.0837 1.0747
3636.123 0.9803 0.799 0.8619 0.8841 0.7001 0.6525 0.6317 0.4691 0.4228 0.5158
3655.413 0.5396 0.4652 0.4961 0.452 0.4691 0.5526 0.5192 0.433 0.36427 0.4322
3674.703 0.4726 0.4184 0.37005 0.30257 0.28847 0.2572 0.2458 0.2195 0.162 0.2682
3693.993 0.36712 0.4159 0.444 0.4045 0.2747 0.276 0.37754 0.34885 0.35167 0.37722
3713.282 0.3987 0.5228 0.5154 0.5208 0.5485 0.5049 0.4876 0.3893 0.31243 0.37302
3732.572 0.4129 0.4073 0.3929 0.28043 0.2378 0.2341 0.2613 0.4062 0.37906 0.2604
3751.862 0.2739 0.2593 0.2409 0.3946 0.4394 0.36393 0.33076 0.254 0.3024 0.32412
3771.152 0.2465 0.292633 0.32597 0.2805 0.2483 0.2072 0.2591 0.3337 0.295746 0.32203
3790.441 0.31819 0.2592 0.2506 0.2644 0.2258 0.2747 0.35166 0.34325 0.2645 0.2332
3809.731 0.3884 0.31863 0.115 0.1948 0.289734 0.29929 0.289209 0.32595 0.34119 0.32256
3829.021 0.2716 0.2338 0.290246 0.147 0.081 0.134 0.125 0.16 0.2518 0.2766
3848.311 0.177 0.138 0.152 0.2412 0.2768 0.4232 0.5726 0.4166 0.35415 0.37872
3867.601 0.4124 0.31913 0.2458 0.4155 0.35326 0.35371 0.35404 0.164 0.202 0.2396
3886.890 0.2155 0.2546 0.28239 0.28554 0.2217 0.1974 0.2743 0.32277 0.4278 0.425
3906.180 0.381 0.3439 0.2441 0.2525 0.237 0.1889 0.2304 0.2731 0.289467 0.2547
3925.470 0.31751 0.4129 0.30694 0.2314 0.2526 0.2659 0.2609 0.2028 0.2021 0.29829
3944.760 0.38106 0.294837 0.175 0.2654 0.2492 0.33893 0.5085 0.4018 0.4211 0.4057
3964.049 0.2385 0.2217 0.2405 0.2274 0.2769 0.27904 0.2381 0.243 0.2041 0.2474
3983.339 0.2167 0.126 0.283 0.34668 0.293195 0.2608 0.2156 0.182 0.2208 0.31044
##END=
