##TITLE=3-(3,4,5-Trimethoxyphenyl)propionic acid
##JCAMP-DX=4.24
##DATA TYPE=INFRARED SPECTRUM
##ORIGIN=EPA-IR VAPOR PHASE LIBRARY
##OWNER=SRD/NIST
Collection (C) 2018 copyright by the U.S. Secretary of Commerce
on behalf of the United States of America. All rights reserved.
##CAS REGISTRY NO=25173-72-2
##MOLFORM=C 12 H 16 O 5
##$NIST SOURCE=MSDC-IR
##STATE=gas
##XUNITS=1/CM
##YUNITS=ABSORBANCE
##XFACTOR=1.
##YFACTOR=0.001
##DELTAX=1.92934
##FIRSTX=549.9
##LASTX=3999.5
##FIRSTY=10.82
##MAXX=3999.53
##MINX=549.863
##MAXY=0.09737
##MINY=0
##NPOINTS=1789
##XYDATA=(X++(Y..Y))
549.863 10.82 11.14 11.48 11.76 12.1 12.58 13.06 13.5 13.99 14.5
569.156 14.94 15.26 15.44 15.56 15.52 15.28 14.89 14.43 13.93 13.41
588.450 13.06 12.63 12.28 12.12 12.03 12.02 11.97 11.81 11.68 11.52
607.743 11.29 11.01 10.79 10.57 10.26 10.04 9.83 9.57 9.36 9.2
627.037 9.02 8.9 8.82 8.7 8.59 8.46 8.29 8.19 8.13 8.05
646.330 7.93 7.79 7.63 7.51 7.4 7.19 6.96 6.71 6.52 6.37
665.624 6.09 5.7 5.5 5.37 5.15 4.92 4.73 4.53 4.38 4.3
684.917 4.16 4.01 3.89 3.76 3.59 3.49 3.4 3.31 3.27 3.16
704.210 3.02 3.01 2.98 2.94 2.88 2.8014 2.7485 2.7458 2.7131 2.7048
723.504 2.7071 2.716 2.706 2.6606 2.7325 2.84 3.02 3.25 3.41 3.56
742.797 3.71 3.8 3.79 3.71 3.55 3.35 3.21 3.11 3.11 3.16
762.091 3.2 3.36 3.67 4.03 4.53 5.06 5.6 6.13 6.45 6.48
781.384 6.26 5.79 5.18 4.56 4.01 3.54 3.24 3 2.7864 2.7084
800.678 2.6681 2.5636 2.5331 2.59 2.6239 2.76 2.94 3.14 3.46 3.9
819.971 4.32 4.67 5.06 5.45 5.75 5.92 6.01 6.03 5.95 5.89
839.264 5.82 5.7 5.62 5.5 5.37 5.33 5.26 5.1 4.89 4.67
858.558 4.45 4.2 3.94 3.72 3.49 3.32 3.22 3.12 3.07 2.99
877.851 2.98 2.99 3 3.06 3.19 3.35 3.5 3.66 3.89 4.19
897.145 4.47 4.68 4.79 4.83 4.81 4.67 4.5 4.43 4.44 4.49
916.438 4.61 4.77 4.95 5.15 5.27 5.37 5.47 5.48 5.44 5.38
935.732 5.37 5.37 5.38 5.4 5.41 5.45 5.56 5.61 5.61 5.66
955.025 5.72 5.8 5.9 5.94 6.01 6.1 6.16 6.24 6.35 6.46
974.318 6.58 6.67 6.75 6.91 7.09 7.26 7.47 7.73 8.08 8.56
993.612 9.15 9.91 10.87 12.02 13.43 15.14 17.06 19.23 21.6 23.95
1012.905 25.94 27.25 27.72 27.22 25.81 23.81 21.66 19.71 18.22 17.26
1032.199 16.79 16.86 17.39 18.21 19.17 20.01 20.44 20.35 19.71 18.67
1051.492 17.42 16.18 15.16 14.5 14.21 14.25 14.6 15.16 15.95 17.01
1070.786 18.31 19.82 21.61 23.6 25.83 28.31 30.98 33.83 36.82 39.95
1090.079 43.23 46.66 50.23 53.9 57.79 61.9 66.17 70.63 75.28 80.01
1109.372 84.72 89.17 93.03 95.91 97.37 97.22 95.34 91.86 87.23 81.98
1128.666 76.63 71.57 66.94 62.81 59.03 55.39 51.9 48.46 45.05 41.71
1147.959 38.36 35.11 32.05 29.24 26.74 24.52 22.66 21.18 20.01 19.2
1167.253 18.71 18.47 18.48 18.77 19.21 19.76 20.46 21.14 21.66 21.99
1186.546 22.05 21.9 21.62 21.18 20.69 20.27 19.96 19.74 19.65 19.73
1205.840 20.07 20.64 21.5 22.68 24.13 25.92 28.09 30.61 33.43 36.47
1225.133 39.58 42.58 45.27 47.45 48.91 49.54 49.33 48.22 46.37 43.97
1244.426 41.15 38.17 35.22 32.43 29.81 27.53 25.61 23.88 22.43 21.22
1263.720 20.07 19.05 18.2 17.43 16.68 15.97 15.33 14.75 14.24 13.82
1283.013 13.5 13.3 13.12 13.04 13.02 13.12 13.31 13.54 13.96 14.55
1302.307 15.33 16.34 17.48 18.83 20.37 21.96 23.48 24.72 25.61 26.11
1321.600 26.14 25.82 25.28 24.75 24.42 24.31 24.5 25.03 25.73 26.41
1340.894 26.9 26.99 26.6 25.68 24.31 22.65 20.94 19.37 18.05 17.04
1360.187 16.37 15.95 15.66 15.52 15.48 15.45 15.45 15.49 15.48 15.41
1379.480 15.23 14.94 14.52 14.06 13.6 13.12 12.76 12.65 12.82 13.2
1398.774 13.91 15 16.49 18.46 20.84 23.57 26.55 29.47 31.96 33.86
1418.067 34.97 35.09 34.43 33.27 31.76 30.28 28.99 27.74 26.42 25.03
1437.361 23.39 21.77 20.34 19.35 19.13 19.69 20.84 22.36 24.1 25.68
1456.654 26.92 27.64 27.8 27.51 26.85 26.06 25.28 24.47 23.69 22.97
1475.948 22.45 22.34 22.79 23.89 25.61 27.82 30.44 33.31 36.09 38.4
1495.241 40.05 40.81 40.5 39.18 37.02 34.18 30.72 27.1 23.7 20.48
1514.534 17.69 15.28 13.26 11.74 10.45 9.56 8.9 8.31 7.89 7.57
1533.828 7.32 7.19 7.13 7.08 7.09 7.17 7.29 7.46 7.77 8.12
1553.121 8.58 9.15 9.85 10.86 12.09 13.44 15.14 17.16 19.44 22.08
1572.415 24.86 27.6 30.34 32.66 34.22 34.94 34.66 33.42 31.36 28.74
1591.708 25.9 23.15 20.72 18.77 17.29 16.11 15.07 14.01 12.87 11.7
1611.002 10.48 9.29 8.25 7.28 6.49 5.86 5.31 4.9 4.63 4.41
1630.295 4.23 4.06 3.92 3.83 3.74 3.62 3.48 3.4 3.35 3.24
1649.588 3.15 3.08 3.07 3.05 3.05 3.05 3.03 2.96 2.93 2.94
1668.882 2.93 2.94 2.94 2.94 2.91 2.92 2.99 3.02 3.04 3.09
1688.175 3.17 3.25 3.35 3.44 3.49 3.61 3.72 3.83 3.93 4.05
1707.469 4.23 4.38 4.55 4.79 5.1 5.44 5.76 6.1 6.54 7.05
1726.762 7.63 8.27 8.93 9.63 10.39 11.15 12.01 13.01 14.07 15.2
1746.056 16.38 17.66 19.04 20.57 22.23 24.09 26.3 28.77 31.65 34.9
1765.349 38.38 42.17 46.07 49.6 52.68 54.8 55.71 55.35 53.68 50.92
1784.642 47.35 43.28 39.15 35.15 31.39 28.09 25.31 22.86 20.76 18.9
1803.936 17.19 15.63 14.21 12.87 11.59 10.45 9.41 8.4 7.53 6.78
1823.229 6.13 5.57 5.04 4.61 4.24 3.92 3.64 3.39 3.14 2.97
1842.523 2.8174 2.6589 2.5453 2.446 2.3371 2.2383 2.1611 2.1228 2.0977 2.0392
1861.816 1.9836 1.93078 1.88795 1.88688 1.86936 1.8223 1.795 1.7816 1.7732 1.7835
1881.110 1.7866 1.7969 1.7862 1.7518 1.769 1.7646 1.7602 1.7649 1.7572 1.7734
1900.403 1.7615 1.736 1.726 1.718 1.732 1.7532 1.7458 1.709 1.693 1.69
1919.696 1.666 1.666 1.66 1.636 1.616 1.612 1.634 1.644 1.673 1.709
1938.990 1.724 1.735 1.729 1.7595 1.8207 1.84893 1.85562 1.87905 1.92966 1.9965
1958.283 2.0305 2.0596 2.1162 2.1393 2.1344 2.1365 2.1599 2.1806 2.1579 2.1184
1977.577 2.1105 2.0911 2.0585 2.0656 2.0765 2.0991 2.1171 2.1316 2.1519 2.1494
1996.870 2.1614 2.2027 2.2468 2.282 2.3198 2.333 2.3844 2.4376 2.4582 2.4757
2016.164 2.4903 2.5285 2.5441 2.5249 2.496 2.4398 2.3395 2.257 2.1976 2.1171
2035.457 2.0159 1.90824 1.8391 1.7879 1.7541 1.739 1.705 1.674 1.659 1.649
2054.750 1.663 1.687 1.689 1.687 1.689 1.712 1.732 1.731 1.73 1.728
2074.044 1.71 1.672 1.669 1.645 1.592 1.559 1.522 1.517 1.537 1.515
2093.337 1.486 1.484 1.479 1.467 1.469 1.48 1.489 1.51 1.507 1.471
2112.631 1.444 1.466 1.482 1.476 1.487 1.49 1.499 1.523 1.534 1.527
2131.924 1.521 1.532 1.529 1.534 1.569 1.556 1.57 1.621 1.635 1.64
2151.218 1.643 1.65 1.648 1.633 1.618 1.609 1.584 1.567 1.537 1.513
2170.511 1.516 1.496 1.479 1.47 1.485 1.477 1.443 1.429 1.422 1.399
2189.804 1.39 1.396 1.394 1.402 1.397 1.379 1.374 1.389 1.411 1.413
2209.098 1.41 1.434 1.447 1.456 1.46 1.447 1.476 1.505 1.511 1.544
2228.391 1.599 1.593 1.559 1.605 1.658 1.66 1.665 1.693 1.705 1.679
2247.685 1.625 1.613 1.606 1.575 1.558 1.553 1.559 1.529 1.505 1.5
2266.978 1.461 1.433 1.427 1.413 1.393 1.359 1.321 1.285 1.248 1.223
2286.272 1.209 1.147 1.103 1.116 1.094 1.052 1.022 1.016 1.013 1.011
2305.565 0.973 0.935 0.933 0.915 0.935 0.933 0.885 0.886 0.901 0.903
2324.858 0.875 0.848 0.878 0.86 0.871 0.906 0.897 0.894 0.882 0.914
2344.152 0.943 0.962 0.992 0.981 0.931 0.901 0.912 0.888 0.843 0.82
2363.445 0.82 0.868 0.923 0.975 1.006 1.038 1.057 1.082 1.112 1.111
2382.739 1.134 1.168 1.183 1.175 1.173 1.186 1.172 1.173 1.18 1.165
2402.032 1.179 1.218 1.233 1.215 1.217 1.216 1.217 1.24 1.238 1.249
2421.326 1.252 1.227 1.258 1.28 1.259 1.233 1.193 1.198 1.233 1.245
2440.619 1.223 1.209 1.234 1.281 1.263 1.27 1.307 1.327 1.34 1.335
2459.912 1.305 1.276 1.276 1.279 1.295 1.313 1.308 1.291 1.309 1.272
2479.206 1.215 1.224 1.236 1.21 1.201 1.194 1.178 1.165 1.151 1.174
2498.499 1.216 1.235 1.22 1.176 1.144 1.147 1.133 1.117 1.091 1.058
2517.793 1.071 1.08 1.07 1.072 1.104 1.115 1.087 1.066 1.075 1.081
2537.086 1.118 1.155 1.167 1.166 1.177 1.213 1.219 1.21 1.201 1.214
2556.380 1.211 1.246 1.257 1.246 1.272 1.263 1.259 1.249 1.227 1.249
2575.673 1.245 1.235 1.234 1.225 1.205 1.191 1.203 1.196 1.213 1.259
2594.966 1.25 1.233 1.235 1.22 1.232 1.233 1.209 1.185 1.173 1.137
2614.260 1.087 1.055 1.069 1.092 1.104 1.14 1.13 1.076 1.047 1.056
2633.553 1.103 1.132 1.14 1.133 1.118 1.116 1.137 1.128 1.117 1.152
2652.847 1.164 1.172 1.153 1.094 1.079 1.048 1.02 1.033 1.031 1.034
2672.140 0.988 0.965 0.989 0.974 0.979 0.961 0.957 0.989 0.982 0.953
2691.434 0.964 0.999 1.004 0.989 0.958 0.95 0.956 0.996 1.05 1.045
2710.727 0.999 0.99 1.023 1.061 1.059 1.038 1.107 1.168 1.166 1.166
2730.020 1.147 1.135 1.138 1.109 1.123 1.188 1.194 1.199 1.182 1.16
2749.314 1.213 1.251 1.231 1.256 1.288 1.255 1.256 1.284 1.285 1.323
2768.607 1.439 1.503 1.507 1.511 1.551 1.576 1.57 1.643 1.731 1.785
2787.901 1.84567 1.88886 1.91107 1.9636 2.1358 2.2612 2.3245 2.4803 2.6788 2.85
2807.194 3.01 3.22 3.48 3.79 4.12 4.49 4.96 5.56 6.28 7.18
2826.488 8.26 9.54 11.11 12.8 14.27 15.51 16.42 16.75 16.61 16.14
2845.781 15.36 14.45 13.55 12.53 11.49 10.71 10.14 9.73 9.48 9.35
2865.074 9.37 9.46 9.62 9.82 10.09 10.31 10.49 10.72 10.89 11.04
2884.368 11.11 11.22 11.43 11.56 11.62 11.75 11.94 12 12.05 12.23
2903.661 12.38 12.55 12.83 13.33 13.91 14.47 15.13 15.82 16.58 17.41
2922.955 18.33 19.45 20.78 22.3 24.08 26.18 28.51 30.98 33.39 35.49
2942.248 37.03 37.75 37.67 36.77 35.08 33.04 30.89 28.75 27 25.49
2961.542 24.12 23 22.01 20.98 19.99 19.09 18.25 17.54 17 16.55
2980.835 16.2 16.05 16.11 16.37 16.68 17.21 17.97 18.75 19.6 20.44
3000.128 20.98 21.1 20.72 19.82 18.52 16.9 15.12 13.29 11.66 10.27
3019.422 9.1 8.26 7.46 6.81 6.41 6.18 5.92 5.6 5.42 5.26
3038.715 5.11 5.01 4.98 4.97 4.88 4.89 5.03 5.06 5.07 5.12
3058.009 5 4.83 4.73 4.68 4.59 4.42 4.21 4.04 3.94 3.84
3077.302 3.62 3.43 3.17 2.89 2.7731 2.5979 2.4656 2.3818 2.2531 2.2432
3096.596 2.1942 2.0191 1.88167 1.7495 1.6 1.601 1.573 1.382 1.292 1.221
3115.889 1.21 1.253 1.203 1.117 1.029 1.015 0.946 0.868 0.83 0.74
3135.182 0.67 0.66 0.69 0.66 0.62 0.64 0.61 0.53 0.5 0.52
3154.476 0.45 0.41 0.4 0.39 0.38 0.32 0.29 0.23 0.21 0.28
3173.769 0.25 0.23 0.17 0.13 0.24 0.23 0.18 0.24 0.24 0.21
3193.063 0.24 0.25 0.26 0.26 0.24 0.24 0.2 0.26 0.29 0.22
3212.356 0.21 0.21 0.17 0.15 0.19 0.16 0.09 0.07 0 0.09
3231.650 0.16 0.11 0.04 0.05 0.13 0.14 0.1 0.12 0.11 0.1
3250.943 0.14 0.08 0.1 0.13 0.09 0.09 0.07 0.05 0.06 0.09
3270.236 0.14 0.17 0.15 0.18 0.17 0.15 0.16 0.15 0.24 0.18
3289.530 0.11 0.16 0.13 0.21 0.27 0.19 0.16 0.13 0.16 0.16
3308.823 0.04 0.1 0.15 0.19 0.21 0.21 0.18 0.1 0.11 0.12
3328.117 0.17 0.22 0.2 0.19 0.19 0.23 0.26 0.28 0.28 0.29
3347.410 0.29 0.32 0.34 0.18 0.2 0.31 0.29 0.3 0.27 0.2
3366.704 0.18 0.2 0.29 0.3 0.3 0.29 0.3 0.32 0.32 0.41
3385.997 0.39 0.26 0.35 0.46 0.48 0.49 0.4 0.38 0.43 0.44
3405.290 0.49 0.47 0.51 0.5 0.48 0.48 0.43 0.42 0.48 0.58
3424.584 0.58 0.52 0.44 0.44 0.49 0.42 0.38 0.39 0.41 0.4
3443.877 0.37 0.45 0.58 0.59 0.5 0.42 0.47 0.53 0.5 0.47
3463.171 0.53 0.6 0.59 0.66 0.65 0.57 0.6 0.6 0.61 0.68
3482.464 0.77 0.74 0.7 0.72 0.66 0.64 0.7 0.77 0.79 0.83
3501.758 0.911 0.886 0.896 0.952 0.976 1.065 1.163 1.234 1.296 1.294
3521.051 1.284 1.422 1.546 1.543 1.586 1.652 1.671 1.73 1.85193 1.87533
3540.344 1.91882 2.0508 2.1314 2.2226 2.4207 2.6322 2.89 3.28 3.78 4.39
3559.638 5.24 6.53 8.43 11.26 15.31 20.24 24.6 27.27 27.66 25.83
3578.931 22.14 17.13 12.29 8.84 6.71 5.21 4.18 3.55 3.07 2.6469
3598.225 2.2805 2.0623 1.89664 1.7643 1.67 1.598 1.518 1.419 1.329 1.334
3617.518 1.355 1.249 1.178 1.22 1.252 1.194 1.178 1.162 1.095 1.078
3636.812 1.075 1.033 0.913 0.922 0.941 0.74 0.61 0.69 0.7 0.65
3656.105 0.69 0.72 0.71 0.74 0.74 0.76 0.77 0.8 0.81 0.8
3675.398 0.841 0.881 0.872 0.83 0.77 0.78 0.83 0.83 0.83 0.853
3694.692 0.869 0.84 0.848 0.877 0.854 0.84 0.848 0.882 0.869 0.78
3713.985 0.78 0.872 0.925 0.913 0.931 0.893 0.869 0.888 0.862 0.863
3733.279 0.909 0.93 0.898 0.852 0.8 0.82 0.879 0.861 0.76 0.74
3752.572 0.79 0.82 0.84 0.84 0.82 0.867 0.854 0.865 0.872 0.869
3771.866 0.942 0.923 0.861 0.91 0.95 0.857 0.894 0.966 0.917 0.85
3791.159 0.902 0.907 0.86 0.916 0.935 0.913 0.881 0.864 0.933 0.998
3810.452 0.975 0.92 0.913 0.923 0.87 0.82 0.82 0.853 0.844 0.844
3829.746 0.863 0.91 0.963 0.962 0.924 0.918 0.911 0.908 0.922 0.902
3849.039 0.923 0.967 0.927 0.936 0.975 0.906 0.887 0.944 0.95 0.942
3868.333 0.888 0.952 1.053 0.993 0.964 0.941 0.955 0.954 0.935 0.943
3887.626 0.972 1.012 0.96 0.894 0.974 1.002 0.962 1.034 1.053 0.981
3906.920 0.971 0.983 0.954 0.927 1.008 1.105 1.038 0.961 0.96 0.925
3926.213 0.933 0.985 0.981 0.988 1.051 1.057 1.009 1.013 1.087 1.13
3945.506 1.108 1.137 1.162 1.114 1.153 1.251 1.229 1.158 1.149 1.162
3964.800 1.1 1.15 1.215 1.144 1.093 1.089 1.085 1.075 1.111 1.122
3984.093 1.05 1.05 1.106 1.109 1.126 1.1 1.043 1.056 1.048
##END=
