##TITLE=2,6-Dichlorobenzaldoxime
##JCAMP-DX=4.24
##DATA TYPE=INFRARED SPECTRUM
##ORIGIN=EPA-IR VAPOR PHASE LIBRARY
##OWNER=SRD/NIST
Collection (C) 2018 copyright by the U.S. Secretary of Commerce
on behalf of the United States of America. All rights reserved.
##CAS REGISTRY NO=25185-95-9
##MOLFORM=C 7 H 5 Cl 2 N O
##$NIST SOURCE=MSDC-IR
##STATE=gas
##XUNITS=1/CM
##YUNITS=ABSORBANCE
##XFACTOR=1.
##YFACTOR=0.001
##DELTAX=3.85796
##FIRSTX=551.7
##LASTX=4000.7
##FIRSTY=2.51
##MAXX=4000.7
##MINX=551.688
##MAXY=0.12844
##MINY=0
##NPOINTS=895
##XYDATA=(X++(Y..Y))
551.688 2.51 2.45 2.58 2.4 2.23 2.18 2.25 2.37 2.45 2.64
590.268 2.61 2.53 2.57 2.59 2.49 2.46 2.51 2.54 2.49 2.62
628.847 2.88 3.11 3.32 3.59 4 4.53 5.05 5.74 6.89 8.77
667.427 11.03 12.84 13.93 14.06 13.41 12.9 12.78 12.93 13.4 14.41
706.006 16.14 18.96 22.07 24.74 26.11 24.03 19.87 16.51 14.07 12.71
744.586 12 12.12 12.87 15.31 20.81 33.05 51.78 82.89 121.84 128.44
783.165 112.8 88.37 54.7 29.47 16.57 11.32 8.61 7.16 6.21 5.69
821.745 5.36 5.25 5.21 5.31 5.74 6.55 7.68 9.41 12.13 16.69
860.324 23.9 33.37 43.22 50.59 52.39 48.32 39.9 29.9 22.25 18.24
898.904 16.58 16.48 17.44 19.19 21.41 23.35 25.02 26.88 29.82 35.51
937.484 45.5 60.23 77.27 90.49 93.87 86.01 67.98 45.43 27.64 17.48
976.063 12.12 8.93 6.91 5.68 4.8 4.19 3.81 3.38 3 2.92
1014.643 2.81 2.62 2.47 2.48 2.5 2.51 2.75 2.93 3.16 3.35
1053.222 3.3 3.29 3.42 3.67 4.2 5.02 6.17 7.77 10.25 14.49
1091.802 20.05 24.41 25.54 23.26 17.88 11.87 8.02 6.36 5.56 4.84
1130.381 4.05 3.78 4.14 4.96 6.3 7.81 9.38 10.55 10.61 10.14
1168.961 9.77 9.77 11.27 14.98 20.43 25.43 28.2 28.15 24.87 20.13
1207.540 16.36 14.17 13.21 12.73 12.84 13.47 14.58 16.69 19.67 23.8
1246.120 30.33 39.36 48.56 54.24 53.92 47.59 37.5 27.15 19.32 14.36
1284.699 11.35 9.53 8.31 7.5 6.83 6.15 5.51 4.88 4.37 4.09
1323.279 4.07 4.25 4.59 4.89 5.21 5.26 4.68 4.14 3.85 3.77
1361.859 4.07 4.77 6.06 8.18 11.22 14.64 17.17 18.14 17.63 15.89
1400.438 14.37 14.66 17 21.21 27.65 38.1 52.69 66.15 71.76 68.29
1439.018 57.22 42.66 31.78 26.18 21.99 16.71 11.21 7.28 5.43 4.97
1477.597 5.16 5.52 5.83 5.93 5.66 5.2 4.72 4.21 3.7 3.21
1516.177 2.75 2.49 2.48 2.78 3.43 4.62 6.87 11.04 17.54 26.31
1554.756 34.66 39.51 39.26 33.54 25.35 20.46 18.62 16.75 13.82 10.38
1593.336 7.3 5.25 4.17 3.61 3.2 2.87 2.66 2.44 2.29 2.22
1631.915 2.11 2.05 2.11 2.2 2.35 2.59 2.88 3.22 3.39 3.26
1670.495 2.88 2.35 1.81 1.48 1.33 1.23 1.14 1.0534 0.9825 0.9272
1709.075 0.9036 0.903 0.9312 0.9835 1.0163 1.0267 1.0555 1.0804 1.0739 1.0249
1747.654 0.9864 0.9401 0.913 0.9818 1.16 1.47 1.85 2.19 2.32 2.25
1786.234 2 1.61 1.27 1.15 1.11 1.1131 1.21 1.31 1.39 1.48
1824.813 1.58 1.71 1.88 2.08 2.34 2.62 2.91 3.11 3.06 2.83
1863.393 2.53 2.19 2.04 2.05 2.11 2.2 2.27 2.27 2.33 2.37
1901.972 2.29 2.2 2.15 2.18 2.38 2.71 3 2.99 2.63 2.11
1940.552 1.47 0.9523 0.6728 0.5123 0.457 0.4762 0.4869 0.4565 0.4597 0.4676
1979.131 0.4426 0.4258 0.4016 0.3358 0.3314 0.3787 0.3726 0.3445 0.3487 0.3688
2017.711 0.3707 0.3538 0.3204 0.3206 0.3127 0.2722 0.2664 0.2529 0.2659 0.3286
2056.291 0.3175 0.2943 0.2924 0.2809 0.2812 0.2709 0.2665 0.267 0.2821 0.2722
2094.870 0.2562 0.2729 0.2744 0.2864 0.2764 0.284 0.3113 0.3112 0.3045 0.2785
2133.450 0.304 0.3196 0.3129 0.3121 0.2903 0.3123 0.3164 0.2841 0.3049 0.3151
2172.029 0.2921 0.3013 0.3109 0.3258 0.3233 0.3314 0.3731 0.4144 0.4573 0.4881
2210.609 0.4766 0.4615 0.4647 0.4337 0.4235 0.4389 0.462 0.4602 0.4156 0.4025
2249.188 0.4083 0.4006 0.4237 0.449 0.4662 0.4512 0.4265 0.4094 0.408 0.4198
2287.768 0.4192 0.462 0.5522 0.6419 0.7064 0.817 0.8656 0.8203 0.7954 0.7327
2326.347 0.6847 0.6796 0.6525 0.6123 0.5658 0.5165 0.5031 0.5082 0.4773 0.4602
2364.927 0.4909 0.4729 0.4639 0.462 0.4413 0.414 0.4195 0.4037 0.3265 0.3073
2403.507 0.3042 0.3107 0.2985 0.2809 0.2931 0.3082 0.3317 0.3228 0.3305 0.3882
2442.086 0.4061 0.3914 0.4053 0.4202 0.4408 0.4785 0.4536 0.415 0.4478 0.4595
2480.666 0.4827 0.5235 0.511 0.5812 0.6479 0.6582 0.7174 0.7829 0.7657 0.6928
2519.245 0.637 0.6092 0.5542 0.4739 0.4266 0.4404 0.4852 0.471 0.4628 0.5189
2557.825 0.5728 0.5781 0.5757 0.612 0.6418 0.6581 0.6507 0.6233 0.6552 0.7257
2596.404 0.804 0.8287 0.8176 0.8658 0.9338 1.0037 1.16 1.27 1.33 1.41
2634.984 1.43 1.44 1.42 1.31 1.2 1.1069 1.0053 0.9465 0.9031 0.8285
2673.563 0.744 0.6907 0.6042 0.5345 0.4883 0.4728 0.4974 0.463 0.4235 0.4471
2712.143 0.4642 0.4181 0.3553 0.3289 0.317 0.2992 0.322 0.3195 0.2358 0.21691
2750.722 0.2937 0.3683 0.4356 0.4239 0.4372 0.4448 0.3981 0.3775 0.3147 0.2603
2789.302 0.2693 0.2841 0.2843 0.3415 0.3627 0.3536 0.3787 0.38 0.3844 0.4434
2827.882 0.4585 0.391 0.3802 0.3851 0.3946 0.391 0.3525 0.3057 0.2713 0.3191
2866.461 0.3579 0.339 0.295 0.2883 0.304 0.3336 0.3719 0.3749 0.4189 0.4042
2905.041 0.3075 0.2561 0.3132 0.3517 0.3229 0.3263 0.373 0.5156 0.5502 0.572
2943.620 0.6319 0.685 0.813 0.9213 1.1036 1.37 1.71 2.08 2.33 2.47
2982.200 2.34 2.01 1.58 1.2 1.048 0.953 0.8992 0.9061 0.8945 0.9541
3020.779 0.9569 0.9507 0.9985 0.9805 1.0188 1.19 1.46 1.85 2.54 3.52
3059.359 4.47 4.95 4.92 4.56 4.01 3.73 3.72 3.49 2.97 2.23
3097.938 1.63 1.44 1.45 1.6 1.81 1.88 1.92 1.82 1.48 1.0983
3136.518 0.7132 0.4251 0.2992 0.2692 0.3041 0.2266 0.19471 0.22449 0.17061 0.15153
3175.098 0.15039 0.15563 0.15374 0.14765 0.17262 0.21394 0.2624 0.3059 0.3056 0.3058
3213.677 0.4196 0.4834 0.4598 0.3853 0.3306 0.4245 0.5354 0.638 0.6811 0.6629
3252.257 0.662 0.6348 0.6204 0.6409 0.5351 0.5092 0.5243 0.5288 0.4916 0.3856
3290.836 0.3616 0.3514 0.3223 0.2751 0.21864 0.2382 0.2554 0.2441 0.21429 0.21645
3329.416 0.2625 0.22532 0.1656 0.16181 0.14602 0.089 0.0431 0 0.029 0.0916
3367.995 0.0982 0.0623 0.0758 0.15137 0.17756 0.137323 0.0978 0.1017 0.084 0.1181
3406.575 0.15811 0.1083 0.12149 0.17674 0.22064 0.19945 0.0902 0.0771 0.21261 0.2341
3445.154 0.1185 0.15896 0.2777 0.2366 0.19782 0.20212 0.247 0.3022 0.2425 0.2487
3483.734 0.2786 0.2593 0.334 0.4061 0.4119 0.4177 0.4193 0.3901 0.3537 0.3814
3522.314 0.4401 0.4993 0.5367 0.5265 0.5363 0.5975 0.6494 0.7679 0.92 0.9803
3560.893 1.0431 1.21 1.48 1.81 2.18 2.64 3.29 4.09 5.11 6.37
3599.473 7.82 9.56 11.74 14.85 19.11 25.01 33.38 45 61.17 78.09
3638.052 85.6 80.34 66.85 45.09 24.82 14.27 10.12 8.2 6.91 5.99
3676.632 5.12 4.23 3.56 2.93 2.36 1.92 1.51 1.3 1.15 0.9807
3715.211 0.8294 0.7351 0.7378 0.6968 0.5877 0.4681 0.487 0.4786 0.3797 0.3518
3753.791 0.2844 0.15308 0.21143 0.281 0.2661 0.3133 0.3137 0.272 0.20537 0.2598
3792.370 0.2751 0.21856 0.2884 0.3025 0.22453 0.2637 0.3264 0.2842 0.2971 0.3072
3830.950 0.2794 0.2814 0.22625 0.17607 0.1684 0.235 0.2992 0.3542 0.4112 0.3834
3869.530 0.3828 0.4198 0.3472 0.2885 0.2366 0.16067 0.17299 0.2509 0.3945 0.4046
3908.109 0.3192 0.3267 0.2704 0.2969 0.4494 0.448 0.4713 0.5595 0.6324 0.6619
3946.689 0.6354 0.6318 0.6145 0.6251 0.5669 0.5597 0.6137 0.5532 0.532 0.5847
3985.268 0.5794 0.508 0.4878 0.5583 0.4797
##END=
