##TITLE=4-Methyl-1,6-heptadien-4-ol
##JCAMP-DX=4.24
##DATA TYPE=INFRARED SPECTRUM
##ORIGIN=NIST Mass Spectrometry Data Center
##OWNER=NIST Standard Reference Data Program
Collection (C) 2018 copyright by the U.S. Secretary of Commerce
on behalf of the United States of America. All rights reserved.
##CAS REGISTRY NO=25201-40-5
##MOLFORM=C 8 H 14 O
##$NIST SOURCE=MSDC-IR
##SPECTROMETER/DATA SYSTEM=HP-GC/MS/IRD
##STATE=gas
##XUNITS=1/CM
##YUNITS=ABSORBANCE
##XFACTOR=1.0
##YFACTOR=0.000001400
##DELTAX=4.0
##FIRSTX=550.0
##LASTX=3846.0
##FIRSTY=0.000571
##MAXX=3846
##MINX=550
##MAXY=0.014
##MINY=0
##NPOINTS=825
##XYDATA=(X++(Y..Y))
550.0 408 202 186 171 72 107 103 135 252 347
590.0 462 538 583 575 587 560 481 459 460 482
630.0 514 559 609 668 709 690 582 533 580 588
670.0 632 666 633 630 584 477 378 338 298 242
710.0 204 167 150 92 67 33 1 12 5 20
750.0 52 83 145 267 428 583 733 863 921 893
790.0 790 639 519 432 315 227 238 258 265 288
830.0 338 391 437 523 633 751 934 1140 1352 1614
870.0 1871 2113 2376 2637 2793 2885 3133 3658 4602 6028
910.0 7658 9154 10000 9759 8659 7118 5661 4592 3914 3568
950.0 3369 3157 2915 2697 2503 2420 2513 2808 3282 3915
990.0 4581 5067 5183 4893 4261 3493 2850 2413 2190 2148
1030.0 2228 2330 2441 2520 2547 2568 2567 2582 2617 2631
1070.0 2690 2784 2836 2868 2902 2953 2999 3029 3074 3124
1110.0 3195 3251 3264 3267 3247 3245 3231 3236 3297 3347
1150.0 3376 3381 3338 3246 3080 2872 2639 2422 2217 2018
1190.0 1898 1809 1728 1688 1673 1703 1753 1821 1888 1928
1230.0 1972 2014 2092 2155 2220 2338 2434 2500 2556 2560
1270.0 2550 2526 2495 2434 2351 2289 2260 2245 2242 2219
1310.0 2182 2139 2112 2103 2109 2159 2261 2378 2468 2572
1350.0 2631 2640 2647 2716 2881 3093 3339 3532 3499 3238
1390.0 2808 2332 1915 1638 1512 1513 1594 1721 1903 2130
1430.0 2376 2606 2757 2788 2689 2471 2187 1898 1624 1358
1470.0 1108 872 694 550 437 356 305 277 263 251
1510.0 244 230 199 192 180 160 159 143 133 124
1550.0 131 135 124 134 129 133 154 160 171 178
1590.0 194 235 273 312 376 479 608 814 1136 1591
1630.0 2136 2584 2815 2797 2507 1952 1272 757 471 314
1670.0 240 195 141 123 107 85 61 43 29 24
1710.0 25 14 2 10 9 8 6 4 19 19
1750.0 12 4 13 31 26 27 51 56 49 58
1790.0 64 62 68 85 118 160 200 288 430 589
1830.0 758 891 963 958 874 731 557 398 267 188
1870.0 139 99 79 72 64 54 56 64 57 52
1910.0 48 44 32 20 24 25 21 18 22 20
1950.0 15 13 23 32 43 64 68 76 100 102
1990.0 88 84 86 63 41 40 31 18 24 31
2030.0 30 25 28 24 13 16 21 10 1 7
2070.0 11 12 8 10 10 4 2 6 18 20
2110.0 20 24 20 14 23 30 32 30 20 19
2150.0 9 13 26 24 25 32 25 12 11 19
2190.0 13 8 18 22 23 25 31 40 39 26
2230.0 32 38 29 38 26 10 3 21 37 35
2270.0 28 28 31 30 28 33 23 17 31 40
2310.0 43 37 34 41 51 46 41 46 40 45
2350.0 37 36 48 49 40 42 58 63 47 43
2390.0 54 60 54 55 57 51 34 24 30 48
2430.0 53 36 26 23 36 45 47 52 50 45
2470.0 46 57 45 37 47 46 49 50 54 51
2510.0 52 58 57 67 72 69 80 92 98 93
2550.0 87 86 88 86 85 94 103 104 98 94
2590.0 88 87 87 83 80 84 89 83 72 83
2630.0 99 88 82 71 54 63 81 85 85 93
2670.0 86 88 93 89 99 108 118 119 108 100
2710.0 114 128 126 130 144 159 166 160 172 169
2750.0 153 162 164 168 180 178 176 170 188 225
2790.0 236 244 279 328 366 406 490 592 682 792
2830.0 919 1068 1217 1340 1426 1484 1524 1566 1621 1694
2870.0 1775 1862 1994 2165 2404 2696 3053 3510 4035 4593
2910.0 5132 5618 6038 6383 6654 6791 6731 6438 5900 5216
2950.0 4541 4092 4037 4438 5315 6502 7666 8440 8602 8107
2990.0 7071 5762 4544 3665 3158 2917 2777 2570 2258 1929
3030.0 1595 1354 1219 1147 1167 1278 1441 1680 2047 2559
3070.0 3265 4194 5070 5606 5616 4995 4022 2783 1691 1036
3110.0 704 531 422 383 341 316 320 301 272 274
3150.0 283 262 226 207 193 192 176 145 155 147
3190.0 136 106 97 127 123 114 95 102 94 85
3230.0 100 75 76 86 75 74 82 80 63 70
3270.0 68 61 78 90 68 54 68 76 48 34
3310.0 60 51 54 58 63 62 61 68 48 57
3350.0 60 52 57 48 59 81 61 40 49 56
3390.0 55 46 30 31 45 33 39 42 33 55
3430.0 49 33 29 29 27 33 23 35 59 39
3470.0 22 13 1 4 20 44 29 30 46 8
3510.0 31 85 63 26 47 32 14 37 52 72
3550.0 74 56 54 58 76 98 118 157 218 311
3590.0 409 578 798 971 1118 1218 1229 1194 1175 1175
3630.0 1156 1127 1099 988 824 661 496 339 235 174
3670.0 95 41 57 72 54 68 78 64 58 58
3710.0 47 24 11 18 4 1 0 16 13 1
3750.0 1 1 40 38 9 15 13 0 2 10
3790.0 14 6 7 19 27 16 7 9 7 8
3830.0 19 35 45 52 37
##END=
