##TITLE=4-Chlorothiobenzamide
##JCAMP-DX=4.24
##DATA TYPE=INFRARED SPECTRUM
##ORIGIN=EPA-IR VAPOR PHASE LIBRARY
##OWNER=SRD/NIST
Collection (C) 2018 copyright by the U.S. Secretary of Commerce
on behalf of the United States of America. All rights reserved.
##CAS REGISTRY NO=2521-24-6
##MOLFORM=C 7 H 6 Cl N S
##$NIST SOURCE=MSDC-IR
##STATE=gas
##XUNITS=1/CM
##YUNITS=ABSORBANCE
##XFACTOR=1.
##YFACTOR=0.001
##DELTAX=1.92934
##FIRSTX=549.9
##LASTX=3999.5
##FIRSTY=6.086
##MAXX=3999.53
##MINX=549.863
##MAXY=0.063716
##MINY=0
##NPOINTS=1789
##XYDATA=(X++(Y..Y))
549.863 6.086 5.516 4.996 4.706 4.466 4.266 4.236 4.416 4.536 4.616
569.156 4.996 5.536 6.096 6.896 7.986 8.986 9.506 9.556 9.396 9.126
588.450 8.916 8.496 7.606 6.296 4.946 4.066 3.576 3.206 3.006 2.936
607.743 2.946 3.056 3.156 3.306 3.476 3.586 3.716 3.776 3.866 3.946
627.037 3.976 4.026 4.056 3.996 3.916 3.806 3.676 3.586 3.456 3.266
646.330 3.086 2.866 2.666 2.536 2.296 2.116 2.036 1.986 1.976 1.956
665.624 1.886 1.816 1.7242 1.6737 1.6469 1.6505 1.6544 1.6656 1.7311 1.7223
684.917 1.7315 1.766 1.796 1.856 1.846 1.876 1.936 1.956 1.996 2.066
704.210 2.166 2.276 2.326 2.406 2.486 2.586 2.696 2.726 2.766 2.806
723.504 2.826 2.806 2.746 2.756 2.916 3.166 3.446 3.896 4.556 5.336
742.797 6.156 6.786 7.056 7.156 7.186 7.056 6.726 6.176 5.646 5.406
762.091 5.376 5.456 5.776 6.236 6.676 7.056 7.286 7.436 7.636 7.826
781.384 8.006 8.106 8.076 7.956 7.856 7.796 7.786 7.936 8.156 8.486
800.678 8.996 9.666 10.526 11.546 12.796 14.266 16.046 18.026 19.976 21.846
819.971 23.396 24.866 26.606 29.226 33.446 37.376 36.216 32.906 31.946 30.446
839.264 28.046 25.956 23.696 21.106 18.446 15.906 13.566 11.616 9.996 8.666
858.558 7.736 7.066 6.456 5.966 5.646 5.336 5.056 4.856 4.706 4.586
877.851 4.526 4.536 4.626 4.746 4.936 5.246 5.556 5.936 6.426 6.916
897.145 7.436 8.016 8.526 8.996 9.456 9.846 10.106 10.276 10.406 10.406
916.438 10.376 10.326 10.176 9.996 9.796 9.586 9.336 9.046 8.766 8.476
935.732 8.256 8.086 7.936 7.926 8.036 8.176 8.306 8.446 8.526 8.476
955.025 8.416 8.226 7.926 7.596 7.206 6.816 6.476 6.176 5.966 5.856
974.318 5.766 5.636 5.506 5.446 5.426 5.376 5.296 5.186 5.066 5.006
993.612 4.996 5.006 5.176 5.606 6.396 7.756 9.896 12.766 15.766 18.006
1012.905 19.146 19.346 18.736 17.496 15.606 13.276 11.006 8.696 6.576 5.106
1032.199 4.266 3.806 3.546 3.396 3.296 3.276 3.276 3.276 3.286 3.296
1051.492 3.386 3.506 3.606 3.736 3.886 4.106 4.366 4.666 5.076 5.506
1070.786 6.106 6.926 7.976 9.536 11.836 15.376 20.646 27.826 36.446 45.046
1090.079 51.886 56.026 57.856 58.436 57.586 53.216 43.506 31.316 21.546 15.646
1109.372 12.446 10.526 9.306 8.406 7.556 6.796 6.156 5.576 5.036 4.566
1128.666 4.116 3.836 3.616 3.356 3.096 2.886 2.746 2.526 2.416 2.396
1147.959 2.366 2.436 2.496 2.456 2.606 2.686 2.606 2.686 2.766 2.936
1167.253 3.106 3.266 3.446 3.606 3.776 3.906 3.896 3.826 3.856 3.646
1186.546 3.426 3.446 3.236 3.056 3.146 3.246 3.416 3.426 3.386 3.356
1205.840 3.276 3.266 3.426 3.706 3.876 4.056 4.276 4.276 4.136 4.346
1225.133 4.556 4.636 4.876 5.236 5.596 5.956 6.276 6.586 7.016 7.576
1244.426 8.306 9.086 9.816 10.516 11.236 11.756 11.836 11.826 11.796 11.476
1263.720 10.986 10.416 9.706 8.906 8.276 7.876 7.606 7.566 7.736 8.026
1283.013 8.566 9.436 10.496 11.806 13.366 14.696 15.546 16.336 17.236 18.206
1302.307 19.126 19.766 20.606 22.206 24.496 27.366 30.746 34.596 38.866 43.476
1321.600 48.196 52.836 57.006 60.136 61.686 61.306 59.096 55.486 50.936 45.926
1340.894 40.806 35.976 31.686 27.896 24.596 21.776 19.376 17.326 15.586 14.126
1360.187 13.056 12.196 11.306 10.496 9.876 9.376 8.956 8.686 8.366 8.156
1379.480 8.086 8.116 8.306 8.696 9.246 9.736 10.296 11.066 11.796 12.296
1398.774 12.616 12.596 12.316 11.946 11.506 10.906 10.046 8.956 7.886 7.016
1418.067 6.336 5.556 4.736 4.216 3.706 3.276 3.016 2.756 2.556 2.596
1437.361 2.526 2.216 2.126 2.116 2.076 2.146 2.206 2.236 2.366 2.686
1456.654 3.166 3.306 3.406 3.886 4.726 5.786 7.036 8.686 10.716 12.936
1475.948 15.556 18.976 23.086 27.636 31.896 35.116 36.756 36.716 34.816 31.616
1495.241 28.046 23.816 18.766 13.826 9.766 7.066 5.436 4.166 3.356 2.936
1514.534 2.696 2.606 2.476 2.616 2.586 2.426 2.506 2.456 2.396 2.546
1533.828 2.666 2.666 2.876 3.176 3.266 3.386 3.516 3.576 3.916 4.266
1553.121 4.686 5.276 5.956 6.876 7.456 7.946 8.746 9.646 10.616 11.576
1572.415 12.706 14.356 16.526 19.136 22.636 27.196 32.766 39.306 46.496 53.486
1591.708 59.066 62.456 63.716 63.436 61.596 57.776 52.026 45.086 38.076 31.726
1611.002 26.296 21.846 18.336 15.376 12.826 10.856 9.316 8.046 7.016 6.216
1630.295 5.576 5.116 4.906 4.756 4.456 4.176 4.026 3.976 4.016 3.926
1649.588 3.706 3.786 3.816 3.466 3.236 3.126 2.996 2.946 2.866 2.826
1668.882 2.856 2.816 2.716 2.726 2.646 2.526 2.466 2.486 2.496 2.196
1688.175 1.926 1.766 1.616 1.6717 1.7415 1.6162 1.6445 1.5412 1.3821 1.3574
1707.469 1.2569 1.1926 1.189 1.2541 1.385 1.4858 1.3079 1.0749 1.0266 1.0563
1726.762 1.1094 1.1528 1.2033 1.3854 1.4316 1.195 1.1771 1.2351 1.2397 1.2569
1746.056 1.2342 1.2914 1.4854 1.5209 1.3695 1.4329 1.5127 1.5408 1.6617 1.684
1765.349 1.7124 1.936 1.986 1.996 2.046 1.986 1.956 1.956 1.926 1.856
1784.642 1.776 1.6037 1.4625 1.4506 1.3852 1.2505 1.1654 1.1373 1.1843 1.1902
1803.936 1.0518 0.9739 0.9706 0.9892 1.0064 0.9477 0.9152 0.9447 0.9122 0.8757
1823.229 0.9264 1.0007 0.9564 0.9471 0.9943 0.9817 0.9828 0.9884 0.9991 1.0019
1842.523 1.1005 1.1712 1.0927 1.057 0.9982 0.9336 0.9209 0.9019 0.9164 0.9692
1861.816 1.0098 1.0668 1.117 1.2045 1.2825 1.2585 1.286 1.347 1.4289 1.5083
1881.110 1.5663 1.6568 1.7211 1.776 1.916 2.006 2.076 2.126 2.166 2.196
1900.403 2.216 2.246 2.236 2.246 2.246 2.196 2.146 2.076 1.976 1.906
1919.696 1.796 1.6682 1.5191 1.3728 1.2835 1.2198 1.1549 1.0766 1.02 0.9483
1938.990 0.8897 0.8734 0.8619 0.81834 0.763993 0.7308 0.7131 0.7193 0.74839 0.7147
1958.283 0.7333 0.7733 0.77924 0.79415 0.78024 0.78104 0.764051 0.757312 0.760917 0.760882
1977.577 0.760567 0.7434 0.764844 0.76989 0.7387 0.7439 0.756268 0.74884 0.7404 0.7303
1996.870 0.7329 0.75433 0.74651 0.7339 0.724 0.7166 0.7213 0.7292 0.7112 0.706
2016.164 0.75136 0.758352 0.77974 0.77348 0.77077 0.80124 0.82541 0.85341 0.8785 0.89
2035.457 0.9136 0.9435 0.9213 0.9218 0.9208 0.9189 0.9299 0.8985 0.85351 0.83826
2054.750 0.82773 0.84629 0.84651 0.83549 0.8609 0.8921 0.9202 0.9105 0.9217 0.9998
2074.044 1.0083 0.9795 0.9693 0.9217 0.8721 0.84051 0.8115 0.756493 0.713 0.6964
2093.337 0.6797 0.6985 0.6954 0.6759 0.683 0.6669 0.65 0.6601 0.6681 0.6574
2112.631 0.6594 0.6614 0.653 0.646 0.655 0.648 0.65 0.633 0.646 0.6919
2131.924 0.6767 0.646 0.622 0.625 0.6588 0.6705 0.657 0.6629 0.6561 0.636
2151.218 0.643 0.647 0.652 0.6591 0.638 0.632 0.653 0.6564 0.6569 0.6775
2170.511 0.7042 0.7154 0.7151 0.7037 0.7109 0.756641 0.7426 0.733 0.755007 0.7254
2189.804 0.7223 0.7388 0.7232 0.7049 0.7007 0.7277 0.75069 0.73 0.7379 0.77448
2209.098 0.83373 0.8872 0.9524 1.0805 1.2493 1.4446 1.7209 2.066 2.406 2.816
2228.391 3.216 3.516 3.726 3.856 3.856 3.706 3.466 3.146 2.756 2.286
2247.685 1.766 1.2952 1.0418 0.9169 0.84545 0.80536 0.77404 0.8058 0.82062 0.8224
2266.978 0.82652 0.8484 0.8831 0.8969 0.9183 0.9425 0.9523 0.9653 0.9784 0.9914
2286.272 0.976 0.9475 0.9824 0.9812 0.9359 0.9492 0.9314 0.9144 0.9168 0.8925
2305.565 0.8923 0.8964 0.8705 0.85548 0.85586 0.8571 0.84241 0.80418 0.7839 0.79424
2324.858 0.77856 0.760056 0.77719 0.80025 0.80789 0.81896 0.81648 0.80535 0.82195 0.81447
2344.152 0.78895 0.75071 0.7412 0.755756 0.77146 0.77992 0.81787 0.8599 0.8693 0.8784
2363.445 0.8728 0.865 0.8711 0.8774 0.8686 0.8611 0.79036 0.7342 0.74903 0.756745
2382.739 0.759088 0.74921 0.7337 0.7339 0.7226 0.7151 0.721 0.7411 0.7341 0.7114
2402.032 0.7213 0.7425 0.7183 0.7004 0.7066 0.7011 0.6937 0.644 0.6646 0.7024
2421.326 0.6673 0.6666 0.6646 0.648 0.651 0.641 0.631 0.607 0.591 0.613
2440.619 0.651 0.635 0.617 0.62 0.611 0.619 0.604 0.634 0.654 0.621
2459.912 0.614 0.614 0.631 0.643 0.644 0.666 0.6788 0.6777 0.6751 0.6784
2479.206 0.6781 0.6728 0.6985 0.7333 0.74978 0.78639 0.86 0.8833 0.8659 0.8821
2498.499 0.9001 0.9201 0.9332 0.9586 0.9879 1.0012 1.0137 1.0111 1.0087 1.0265
2517.793 1.0345 0.9938 0.9739 0.9529 0.9287 0.939 0.9303 0.889 0.8621 0.8824
2537.086 0.8604 0.81816 0.8088 0.80096 0.77854 0.80801 0.82156 0.76877 0.74712 0.7155
2556.380 0.7233 0.76868 0.7392 0.7177 0.757977 0.77456 0.78716 0.79712 0.80873 0.83332
2575.673 0.85134 0.8899 0.8978 0.9199 0.9068 0.84722 0.84919 0.85103 0.83284 0.80544
2594.966 0.7743 0.7153 0.6856 0.7452 0.756145 0.758003 0.76796 0.7206 0.7169 0.7082
2614.260 0.6925 0.7094 0.7236 0.7008 0.7245 0.7249 0.6727 0.6976 0.7254 0.7087
2633.553 0.6993 0.7027 0.6874 0.7141 0.74815 0.7336 0.76235 0.7965 0.78731 0.77565
2652.847 0.79856 0.82079 0.80164 0.81743 0.868 0.84425 0.80336 0.78026 0.78663 0.77108
2672.140 0.75106 0.78358 0.79079 0.755053 0.7439 0.77593 0.755523 0.679 0.6854 0.7173
2691.434 0.6802 0.6902 0.6868 0.6736 0.6701 0.597 0.612 0.621 0.609 0.648
2710.727 0.632 0.6574 0.6913 0.6591 0.63 0.639 0.608 0.565 0.54 0.554
2730.020 0.624 0.634 0.588 0.612 0.6676 0.647 0.63 0.6586 0.642 0.626
2749.314 0.624 0.612 0.591 0.603 0.598 0.569 0.589 0.626 0.6939 0.7156
2768.607 0.6769 0.6611 0.651 0.693 0.761701 0.7318 0.6636 0.612 0.556 0.562
2787.901 0.597 0.594 0.644 0.644 0.572 0.635 0.6739 0.595 0.567 0.564
2807.194 0.545 0.528 0.508 0.573 0.606 0.589 0.589 0.6 0.597 0.543
2826.488 0.536 0.484 0.456 0.473 0.46 0.468 0.447 0.44 0.444 0.41
2845.781 0.418 0.466 0.443 0.425 0.389 0.348 0.369 0.375 0.383 0.426
2865.074 0.411 0.41 0.395 0.358 0.325 0.259 0.343 0.416 0.418 0.391
2884.368 0.35 0.393 0.459 0.423 0.425 0.44 0.423 0.475 0.517 0.557
2903.661 0.56 0.532 0.495 0.559 0.652 0.6829 0.6666 0.7052 0.7034 0.6622
2922.955 0.7348 0.7149 0.7148 0.6905 0.6645 0.632 0.55 0.591 0.555 0.573
2942.248 0.622 0.476 0.449 0.493 0.46 0.449 0.438 0.399 0.405 0.467
2961.542 0.461 0.399 0.339 0.356 0.364 0.298 0.302 0.34 0.399 0.406
2980.835 0.429 0.45 0.378 0.404 0.367 0.271 0.325 0.389 0.389 0.431
3000.128 0.399 0.408 0.491 0.537 0.598 0.585 0.591 0.643 0.631 0.653
3019.422 0.7302 0.8044 0.8601 0.9081 0.9905 1.1161 1.2402 1.2333 1.2643 1.3936
3038.715 1.4678 1.4635 1.4305 1.3594 1.4279 1.5563 1.4175 1.3894 1.5199 1.4891
3058.009 1.4822 1.4711 1.4686 1.4277 1.4085 1.5299 1.557 1.5683 1.5318 1.567
3077.302 1.7314 1.846 1.946 2.006 2.106 2.096 2.096 2.266 2.286 2.216
3096.596 2.176 2.126 2.056 1.986 1.796 1.4634 1.2695 1.16 1.0315 0.8818
3115.889 0.78776 0.724 0.592 0.544 0.544 0.502 0.432 0.43 0.359 0.401
3135.182 0.474 0.467 0.476 0.452 0.449 0.375 0.339 0.415 0.432 0.408
3154.476 0.465 0.472 0.465 0.56 0.6662 0.554 0.487 0.569 0.579 0.601
3173.769 0.651 0.641 0.504 0.482 0.52 0.621 0.6562 0.504 0.446 0.468
3193.063 0.444 0.435 0.381 0.367 0.468 0.489 0.435 0.335 0.295 0.297
3212.356 0.298 0.365 0.302 0.308 0.375 0.308 0.306 0.142 0 0.077
3231.650 0.043 0.011 0.079 0.167 0.213 0.16 0.201 0.21 0.141 0.259
3250.943 0.298 0.265 0.309 0.289 0.113 0.125 0.276 0.293 0.166 0.145
3270.236 0.192 0.159 0.265 0.243 0.221 0.245 0.234 0.178 0.219 0.301
3289.530 0.237 0.152 0.182 0.182 0.185 0.262 0.241 0.26 0.233 0.22
3308.823 0.234 0.222 0.299 0.327 0.263 0.277 0.419 0.401 0.402 0.46
3328.117 0.396 0.4 0.429 0.523 0.494 0.385 0.458 0.468 0.472 0.571
3347.410 0.56 0.556 0.6575 0.7357 0.85278 0.8906 0.8852 0.9356 1.033 1.2664
3366.704 1.4362 1.4877 1.5386 1.729 1.976 2.296 2.676 3.036 3.326 3.776
3385.997 4.386 4.996 5.676 6.376 7.106 7.946 8.856 9.696 10.496 11.066
3405.290 11.376 11.556 11.516 11.146 10.616 9.946 8.936 7.856 6.876 5.846
3424.584 4.906 4.116 3.466 2.946 2.476 2.086 1.846 1.6665 1.4472 1.3105
3443.877 1.1991 1.143 1.1302 1.07 1.0343 1.006 0.9862 0.9395 0.9217 0.9761
3463.171 1.026 1.0499 1.0563 1.0755 1.1754 1.2418 1.2646 1.3624 1.4973 1.5845
3482.464 1.7454 1.796 1.876 2.116 2.246 2.446 2.666 2.806 2.996 3.236
3501.758 3.546 3.926 4.326 4.746 5.096 5.516 6.006 6.476 7.066 7.786
3521.051 8.606 9.366 9.956 10.106 9.896 9.356 8.436 7.386 6.196 4.886
3540.344 3.676 2.726 2.046 1.655 1.42 1.1839 1.0622 1.0174 0.9764 0.9016
3559.638 0.8919 0.8582 0.83534 0.9479 1.0509 1.0172 0.82453 0.7039 0.74666 0.761267
3578.931 0.7154 0.76772 0.762532 0.77921 0.8976 0.9093 0.76762 0.649 0.573 0.552
3598.225 0.566 0.588 0.614 0.645 0.728 0.74719 0.7261 0.7195 0.80441 0.79004
3617.518 0.76722 0.758173 0.6634 0.622 0.656 0.764573 0.8728 0.83606 0.647 0.511
3636.812 0.516 0.6678 0.760796 0.80434 0.75384 0.76964 0.9174 0.9182 0.7926 0.6876
3656.105 0.7335 0.764925 0.6952 0.6624 0.6903 0.7439 0.79031 0.77272 0.75146 0.764886
3675.398 0.81773 0.711 0.623 0.6595 0.635 0.637 0.760212 0.85057 0.78475 0.74943
3694.692 0.7057 0.6756 0.7178 0.6658 0.576 0.6595 0.7156 0.634 0.6774 0.83357
3713.985 0.7991 0.7099 0.6954 0.7338 0.83092 0.79604 0.83389 0.8602 0.82356 0.9125
3733.279 1.0028 1.0899 1.0187 0.9026 0.9748 1.0891 1.1179 1.0574 1.0208 0.962
3752.572 0.8365 0.7372 0.77479 0.78828 0.7068 0.6655 0.6807 0.77735 0.78595 0.7163
3771.866 0.6586 0.6654 0.7335 0.6813 0.607 0.649 0.7011 0.75418 0.755398 0.75491
3791.159 0.7321 0.636 0.633 0.7453 0.81429 0.81583 0.83103 0.80217 0.79901 0.77636
3810.452 0.7195 0.77541 0.8698 0.8857 0.8386 0.8751 0.9051 0.78526 0.74725 0.81633
3829.746 0.82364 0.8917 0.9217 0.9525 1.1038 1.0417 0.867 0.889 0.9112 0.84334
3849.039 0.82897 0.9471 1.1145 1.0839 0.9248 0.85395 0.8969 0.8877 0.8363 0.79708
3868.333 0.9116 0.9562 0.869 0.84944 0.81283 0.85594 0.9336 0.9949 1.011 1.0173
3887.626 0.9861 0.9603 0.9931 0.9107 0.81369 0.8973 0.9611 0.9671 0.9388 0.863
3906.920 0.80198 0.7398 0.7374 0.7152 0.7373 0.79869 0.7728 0.7306 0.6633 0.631
3926.213 0.6784 0.7366 0.7383 0.7417 0.761595 0.6752 0.569 0.591 0.6905 0.7239
3945.506 0.756832 0.75054 0.653 0.608 0.65 0.6811 0.682 0.7308 0.6943 0.655
3964.800 0.6763 0.6573 0.65 0.6593 0.635 0.589 0.563 0.565 0.639 0.6795
3984.093 0.6567 0.7033 0.7159 0.6566 0.6704 0.631 0.553 0.504 0.512
##END=
