##TITLE=1-Naphthyl N-propylcarbamate
##JCAMP-DX=4.24
##DATA TYPE=INFRARED SPECTRUM
##ORIGIN=EPA-IR VAPOR PHASE LIBRARY
##OWNER=SRD/NIST
Collection (C) 2018 copyright by the U.S. Secretary of Commerce
on behalf of the United States of America. All rights reserved.
##CAS REGISTRY NO=25216-27-7
##MOLFORM=C 14 H 15 N O 2
##$NIST SOURCE=MSDC-IR
##STATE=gas
##XUNITS=1/CM
##YUNITS=ABSORBANCE
##XFACTOR=1.
##YFACTOR=0.001
##DELTAX=1.92898
##FIRSTX=549.8
##LASTX=4000.7
##FIRSTY=1.629
##MAXX=4000.7
##MINX=549.759
##MAXY=0.031359
##MINY=0
##NPOINTS=1790
##XYDATA=(X++(Y..Y))
549.759 1.629 1.589 1.359 1.629 1.749 1.859 1.889 1.669 1.1426 0.9339
569.049 1.259 1.279 1.1087 1.0558 1.1988 1.489 1.369 0.9451 0.9091 0.8945
588.339 0.7022 0.8766 0.9567 0.892 0.9582 0.9545 0.8712 0.9154 0.9713 0.9732
607.628 0.8637 0.6961 0.7292 0.7925 0.8882 0.8495 0.6688 0.6771 0.6457 0.6843
626.918 0.6736 0.6138 0.5172 0.4774 0.6536 0.7062 0.5378 0.4405 0.5555 0.6678
646.208 0.6164 0.461 0.5191 0.6155 0.6086 0.7141 0.5741 0.4241 0.4783 0.4677
665.498 0.5056 0.6096 0.4663 0.4985 0.7321 0.6795 0.5717 0.5039 0.5068 0.4495
684.787 0.4584 0.6375 0.6772 0.6569 0.5823 0.477 0.6089 0.7532 0.8028 0.8856
704.077 0.9893 1.0692 1.0437 0.8981 0.8655 0.9379 0.9944 0.9346 0.8241 0.7104
723.367 0.8231 1.0366 1.1724 1.1655 1.0817 1.076 1.0656 1.1123 1.2008 1.479
742.657 1.669 1.879 2.109 2.229 2.599 3.359 4.159 4.769 5.859 7.219
761.947 8.509 9.879 10.869 11.159 10.629 9.639 8.609 7.489 6.499 5.519
781.236 4.789 4.559 4.449 4.319 4.029 4.019 4.129 4.009 3.689 3.269
800.526 3.039 2.479 1.889 1.739 1.629 1.459 1.2146 1.1456 1.1601 1.0025
819.816 0.8707 0.7674 0.5994 0.7718 1.0783 1.0611 0.9656 0.9987 1.1583 1.1682
839.106 1.1638 1.0945 1.0546 1.279 1.409 1.379 1.259 1.329 1.569 1.679
858.395 1.669 1.699 1.649 1.779 2.029 2.029 1.789 1.749 1.879 1.819
877.685 1.849 1.829 1.749 1.809 1.929 1.969 1.999 1.979 1.989 2.009
896.975 2.009 1.979 1.979 2.039 2.099 2.129 1.939 1.739 1.689 1.679
916.265 1.609 1.649 1.789 1.769 1.849 2.089 2.149 1.979 1.889 1.969
935.555 1.939 1.849 1.869 1.869 1.879 2.029 2.399 2.579 2.439 2.699
954.844 3.199 3.459 3.619 3.769 4.099 4.409 4.369 4.149 3.939 3.669
974.134 3.339 3.059 2.879 2.609 2.239 2.239 2.299 2.059 1.719 1.889
993.424 2.029 1.669 1.719 2.029 2.299 2.329 2.609 3.079 3.429 3.699
1012.714 3.829 3.839 3.899 3.889 3.529 3.179 2.759 2.509 2.369 2.279
1032.003 2.509 2.879 3.189 3.549 4.219 5.059 5.529 5.529 5.099 4.559
1051.293 4.109 3.509 2.909 2.539 2.369 2.339 2.179 2.429 3.039 2.859
1070.583 2.999 3.219 3.259 3.719 3.829 4.099 5.269 6.179 6.539 6.509
1089.873 6.069 5.939 6.079 5.889 5.859 6.299 6.609 6.419 6.239 6.279
1109.163 6.669 6.969 6.879 6.669 6.539 6.589 6.629 6.539 5.809 5.329
1128.452 4.859 4.439 4.159 3.669 3.829 4.199 4.299 4.909 5.759 6.749
1147.742 8.399 10.529 13.489 15.719 16.559 16.269 15.469 14.489 13.309 13.089
1167.032 13.519 14.199 14.809 14.839 14.169 13.549 13.879 14.739 16.369 18.549
1186.322 20.739 22.839 25.249 27.809 29.749 30.979 31.359 30.679 29.169 27.749
1205.611 26.049 23.969 21.559 19.489 18.659 18.189 17.279 16.669 16.829 16.759
1224.901 16.569 16.339 15.599 14.719 13.199 11.309 9.979 8.729 7.869 7.559
1244.191 7.279 7.489 8.059 8.579 9.089 9.449 9.499 8.959 8.259 7.699
1263.481 6.829 5.979 5.419 5.219 4.999 4.709 4.519 4.339 4.289 4.119
1282.771 3.959 4.069 4.049 3.989 4.019 4.009 3.979 3.849 3.759 3.739
1302.060 3.779 3.849 3.959 4.109 4.239 4.399 4.479 4.659 5.009 5.199
1321.350 5.259 5.239 5.189 5.139 4.989 4.799 4.619 4.399 4.139 3.919
1340.640 3.829 3.759 3.619 3.529 3.479 3.459 3.439 3.339 3.309 3.339
1359.930 3.309 3.299 3.439 3.579 3.679 3.849 4.069 4.409 4.799 5.229
1379.219 5.789 6.389 7.009 7.739 8.599 9.549 10.309 10.579 10.229 9.389
1398.509 8.119 6.589 5.229 4.189 3.579 3.279 3.159 3.039 2.919 2.859
1417.799 2.759 2.779 2.879 2.869 2.829 2.839 2.959 3.179 3.579 4.059
1437.089 4.679 5.329 5.799 6.119 6.279 6.219 6.159 6.159 6.329 6.689
1456.378 7.239 8.079 8.889 9.459 9.699 9.739 9.619 9.349 9.159 9.339
1475.668 9.849 10.719 11.939 13.469 15.319 17.389 19.369 21.029 22.349 22.899
1494.958 22.509 21.389 19.729 17.729 15.649 13.689 11.979 10.879 10.199 9.489
1514.248 8.779 8.159 7.449 6.719 6.089 5.559 5.029 4.599 4.269 3.989
1533.538 3.699 3.469 3.229 2.969 2.789 2.679 2.569 2.429 2.359 2.299
1552.827 2.219 2.149 2.049 1.899 1.869 1.979 2.119 2.199 2.199 2.159
1572.117 2.239 2.239 2.189 2.299 2.309 2.229 2.209 2.249 2.259 2.319
1591.407 2.479 2.689 2.819 2.869 2.799 2.529 2.329 2.109 1.759 1.479
1610.697 1.329 1.239 1.206 1.1733 1.0784 1.0919 1.095 1.0665 1.1118 1.1734
1629.986 1.1669 1.1439 1.1005 0.9882 1.014 1.0025 0.9389 0.9137 0.8638 0.8133
1649.276 0.7967 0.7654 0.6703 0.7092 0.8647 0.9369 0.8827 0.8236 0.848 0.8503
1668.566 0.8201 0.7932 0.7621 0.7308 0.8117 0.9137 0.8874 0.859 0.8193 0.9266
1687.856 0.9833 0.9594 1.0027 0.874 0.807 0.9338 0.9099 0.8472 0.9247 1.0392
1707.146 1.2107 1.289 1.329 1.449 1.489 1.519 1.639 1.779 1.889 2.009
1726.435 2.119 2.179 2.319 2.399 2.499 2.749 2.849 2.989 3.249 3.589
1745.725 4.039 4.539 5.139 5.929 7.009 8.209 9.719 11.599 13.829 16.499
1765.015 19.529 22.719 25.989 28.789 30.639 31.179 30.179 27.599 23.939 20.039
1784.305 16.349 13.039 10.359 8.349 6.789 5.659 4.899 4.239 3.729 3.399
1803.594 3.169 2.939 2.769 2.539 2.419 2.359 2.199 2.159 2.139 2.029
1822.884 1.859 1.739 1.659 1.529 1.469 1.449 1.359 1.299 1.289 1.1855
1842.174 1.0613 0.9941 0.985 0.9383 0.9178 0.9392 0.8647 0.8568 0.8057 0.7461
1861.464 0.7145 0.6673 0.6558 0.5582 0.512 0.5941 0.587 0.5655 0.6485 0.6405
1880.754 0.5934 0.5792 0.5512 0.5435 0.5567 0.5968 0.5796 0.5873 0.6262 0.6417
1900.043 0.6839 0.771 0.7753 0.7877 0.8692 0.9095 0.949 0.9285 0.8844 0.8432
1919.333 0.8015 0.8137 0.8369 0.8017 0.7997 0.759 0.7161 0.7458 0.7096 0.6744
1938.623 0.6854 0.6478 0.6104 0.6929 0.6653 0.5249 0.4964 0.5229 0.541 0.5042
1957.913 0.47 0.4721 0.4917 0.4365 0.3981 0.4158 0.438 0.4289 0.427 0.4928
1977.202 0.4915 0.4492 0.4079 0.4512 0.535 0.5218 0.418 0.3667 0.3937 0.3728
1996.492 0.3938 0.4386 0.4165 0.3795 0.3801 0.3785 0.3951 0.4293 0.3971 0.3989
2015.782 0.4231 0.4163 0.4073 0.3848 0.3811 0.3713 0.3998 0.4383 0.3712 0.4563
2035.072 0.5044 0.456 0.5112 0.4774 0.4498 0.4445 0.4333 0.4967 0.5033 0.4053
2054.362 0.3978 0.4213 0.4076 0.3738 0.3783 0.4246 0.4591 0.4692 0.4297 0.4201
2073.651 0.422 0.3924 0.4482 0.4548 0.4114 0.4275 0.3851 0.3975 0.4567 0.4916
2092.941 0.482 0.4848 0.4802 0.4317 0.4647 0.4382 0.4101 0.4045 0.4031 0.4705
2112.231 0.5189 0.5351 0.5257 0.5148 0.4937 0.4396 0.4635 0.5083 0.4837 0.46
2131.521 0.4147 0.4406 0.5132 0.4488 0.3749 0.4276 0.4439 0.451 0.5518 0.5731
2150.810 0.4993 0.4991 0.5501 0.5317 0.576 0.6651 0.6635 0.6018 0.538 0.5555
2170.100 0.5837 0.6174 0.639 0.6352 0.6465 0.6128 0.5639 0.5129 0.5119 0.6721
2189.390 0.761 0.7351 0.6891 0.6392 0.6814 0.7801 0.8239 0.7581 0.7836 0.8729
2208.680 0.8711 0.8642 0.8341 0.8579 0.9037 0.922 1.033 1.1008 1.2025 1.339
2227.970 1.389 1.399 1.449 1.589 1.779 1.919 2.069 2.239 2.449 2.629
2247.259 2.819 3.089 3.369 3.629 3.869 4.129 4.379 4.539 4.719 4.899
2266.549 4.949 5.029 5.059 5.059 5.049 4.949 4.779 4.509 4.309 4.109
2285.839 3.819 3.629 3.459 3.259 3.149 2.929 2.699 2.529 2.309 2.159
2305.129 2.039 1.899 1.769 1.589 1.409 1.329 1.279 1.1686 1.0801 1.0396
2324.418 0.9977 0.9196 0.8779 0.8231 0.7618 0.6916 0.6401 0.6626 0.6248 0.5772
2343.708 0.5558 0.5733 0.6146 0.5645 0.4953 0.4808 0.5018 0.5042 0.5024 0.5144
2362.998 0.4375 0.364 0.45 0.4864 0.429 0.4393 0.5129 0.5592 0.5498 0.5055
2382.288 0.5017 0.5023 0.4874 0.4759 0.4856 0.4682 0.4034 0.4114 0.4454 0.4498
2401.578 0.4522 0.4614 0.4383 0.4096 0.4485 0.5015 0.5267 0.4998 0.5057 0.4446
2420.867 0.4175 0.4756 0.4293 0.3714 0.3748 0.4055 0.3938 0.3526 0.3576 0.3912
2440.157 0.404 0.4404 0.4193 0.3828 0.3305 0.3283 0.3326 0.3258 0.3719 0.3367
2459.447 0.3951 0.4306 0.361 0.3396 0.29439 0.23196 0.29518 0.4067 0.3354 0.23679
2478.737 0.26383 0.3208 0.3306 0.29694 0.323 0.3493 0.3574 0.3972 0.3872 0.3343
2498.026 0.3457 0.3542 0.28706 0.2938 0.3696 0.4165 0.3827 0.3419 0.28614 0.29894
2517.316 0.3735 0.3499 0.3426 0.3524 0.28526 0.27861 0.25705 0.2553 0.30122 0.24972
2536.606 0.225615 0.20912 0.25426 0.29772 0.3674 0.31586 0.24307 0.3406 0.3206 0.24349
2555.896 0.21127 0.23521 0.30193 0.3463 0.3809 0.327 0.2782 0.25338 0.27427 0.30952
2575.186 0.2005 0.178 0.23174 0.2043 0.225009 0.27296 0.25188 0.1844 0.23368 0.3375
2594.475 0.3994 0.4242 0.3488 0.3328 0.3447 0.3359 0.28578 0.30875 0.33 0.26486
2613.765 0.1983 0.226829 0.31833 0.28998 0.23912 0.27351 0.3852 0.4368 0.4137 0.347
2633.055 0.27489 0.27752 0.2887 0.3536 0.3768 0.3574 0.4 0.3596 0.30731 0.3457
2652.345 0.418 0.3448 0.26557 0.3192 0.4069 0.29964 0.2154 0.27125 0.26841 0.30218
2671.634 0.3953 0.4496 0.4532 0.408 0.3297 0.3779 0.3365 0.3353 0.4266 0.4069
2690.924 0.3508 0.28435 0.23859 0.2661 0.3472 0.4149 0.4519 0.3549 0.2998 0.30745
2710.214 0.22995 0.30473 0.3756 0.3742 0.4654 0.4581 0.425 0.4364 0.3538 0.4227
2729.504 0.545 0.4349 0.3744 0.3909 0.3874 0.3633 0.4149 0.421 0.405 0.3955
2748.794 0.3563 0.3847 0.3877 0.4101 0.3975 0.3991 0.405 0.4088 0.3754 0.4192
2768.083 0.4055 0.3632 0.4716 0.4542 0.4394 0.4659 0.3486 0.26246 0.27006 0.3281
2787.373 0.3827 0.3883 0.3805 0.3969 0.4404 0.4561 0.505 0.5062 0.3995 0.3286
2806.663 0.4038 0.4278 0.3863 0.3283 0.3688 0.5312 0.4571 0.4787 0.5522 0.5393
2825.953 0.6184 0.5729 0.4794 0.5725 0.633 0.6327 0.6593 0.7244 0.8379 0.7864
2845.242 0.8171 0.8231 0.7904 0.9475 0.9822 0.9789 1.1295 1.329 1.409 1.429
2864.532 1.619 1.789 1.929 2.159 2.289 2.459 2.679 2.789 2.929 3.099
2883.822 3.219 3.209 3.209 3.329 3.319 3.049 2.809 2.709 2.669 2.599
2903.112 2.539 2.589 2.589 2.639 2.689 2.719 2.849 2.929 3.009 3.129
2922.401 3.319 3.479 3.719 4.029 4.249 4.539 4.919 5.179 5.279 5.449
2941.691 5.579 5.539 5.429 5.429 5.359 5.189 5.099 5.039 5.039 5.099
2960.981 5.209 5.459 5.779 6.079 6.359 6.459 6.639 6.809 6.619 6.129
2980.271 5.589 5.109 4.639 4.039 3.489 3.179 2.839 2.619 2.359 2.029
2999.561 1.899 1.719 1.659 1.639 1.509 1.469 1.549 1.579 1.489 1.419
3018.850 1.359 1.279 1.279 1.309 1.249 1.279 1.379 1.329 1.299 1.379
3038.140 1.559 1.749 1.939 2.109 2.309 2.639 2.999 3.449 4.059 4.749
3057.430 5.369 5.809 6.079 6.239 6.019 5.599 5.159 4.779 4.369 3.929
3076.720 3.639 3.469 3.189 2.899 2.779 2.639 2.609 2.499 2.209 1.979
3096.009 1.889 1.759 1.489 1.379 1.279 1.0654 0.9527 0.8846 0.7775 0.7543
3115.299 0.723 0.5468 0.4662 0.4199 0.4472 0.5724 0.5603 0.4864 0.4773 0.3819
3134.589 0.31237 0.3862 0.4496 0.494 0.3567 0.2086 0.24946 0.3581 0.4565 0.30471
3153.879 0.21449 0.28406 0.4195 0.5117 0.3926 0.2453 0.1788 0.22425 0.29592 0.3353
3173.169 0.381 0.3948 0.3385 0.30871 0.3916 0.4238 0.3293 0.27269 0.25285 0.30123
3192.458 0.3746 0.3941 0.3479 0.3355 0.2995 0.221444 0.3227 0.362 0.3423 0.24079
3211.748 0.1238 0.1793 0.3238 0.4012 0.3429 0.3652 0.3541 0.28118 0.1199 0
3231.038 0.058 0.1508 0.218557 0.224303 0.28235 0.3568 0.23813 0.21144 0.28483 0.24985
3250.328 0.3692 0.3798 0.23987 0.1902 0.1543 0.1337 0.086 0.1623 0.23643 0.2533
3269.617 0.221303 0.21022 0.26077 0.4031 0.3964 0.1479 0.1687 0.3415 0.3781 0.21451
3288.907 0.1288 0.24208 0.223661 0.30183 0.3975 0.3889 0.3521 0.26241 0.26666 0.31772
3308.197 0.31529 0.31357 0.3851 0.24198 0.1716 0.198 0.25441 0.26509 0.31749 0.29132
3327.487 0.116 0.085 0.094 0.1425 0.175 0.2084 0.3834 0.4837 0.4978 0.5222
3346.777 0.422 0.3679 0.3405 0.3679 0.3476 0.173 0.1538 0.25399 0.24066 0.2451
3366.066 0.31186 0.3331 0.24098 0.136 0.1884 0.2004 0.21094 0.218766 0.172 0.3961
3385.356 0.4312 0.23198 0.23401 0.3641 0.3591 0.28682 0.3616 0.366 0.25002 0.29912
3404.646 0.4623 0.4806 0.355 0.30348 0.3216 0.1932 0.24951 0.3494 0.29138 0.2872
3423.936 0.2981 0.4299 0.4374 0.3615 0.3965 0.5413 0.714 0.6525 0.5051 0.3403
3443.225 0.526 0.8598 0.9831 1.0037 1.0607 1.0875 1.0412 1.319 1.409 1.469
3462.515 1.729 1.969 2.049 2.149 2.099 2.049 2.259 2.229 2.099 1.989
3481.805 1.969 1.789 1.649 1.569 1.339 1.1341 0.882 0.8253 0.9154 0.7932
3501.095 0.6226 0.7009 0.5557 0.3476 0.3389 0.4679 0.5827 0.5102 0.4149 0.4256
3520.385 0.475 0.4735 0.4902 0.4077 0.3998 0.4326 0.4871 0.4615 0.3661 0.4309
3539.674 0.5778 0.6299 0.5334 0.26146 0.1886 0.3361 0.326 0.28335 0.1448 0.132
3558.964 0.3203 0.397 0.26823 0.21462 0.29652 0.30211 0.3799 0.4779 0.4711 0.3998
3578.254 0.3492 0.3299 0.30947 0.21385 0.1208 0.186 0.26384 0.26413 0.33 0.3554
3597.544 0.25089 0.21688 0.27825 0.394 0.4568 0.29315 0.2031 0.2459 0.29241 0.4374
3616.833 0.3407 0.24609 0.28344 0.29269 0.4115 0.5717 0.5007 0.4476 0.441 0.3533
3636.123 0.3898 0.5009 0.5984 0.5148 0.622 0.7666 0.6428 0.5149 0.3747 0.4757
3655.413 0.7371 0.7021 0.6153 0.4991 0.3752 0.3949 0.3798 0.26678 0.29857 0.3975
3674.703 0.3337 0.2167 0.1447 0.374 0.5352 0.4291 0.3619 0.3267 0.28613 0.3474
3693.993 0.4145 0.4225 0.5117 0.5028 0.29845 0.1722 0.30517 0.3311 0.25531 0.2079
3713.282 0.07 0.1268 0.24538 0.24331 0.2477 0.084 0.075 0.321 0.3598 0.1614
3732.572 0.081 0.091 0.078 0.1436 0.1792 0.1831 0.209 0.1347 0.1662 0.1873
3751.862 0.103 0.28091 0.4136 0.4078 0.3607 0.3465 0.3035 0.1471 0.23213 0.2436
3771.152 0.27757 0.4179 0.3285 0.27945 0.23185 0.3287 0.4246 0.4765 0.388 0.3395
3790.441 0.4179 0.333 0.26663 0.366 0.3767 0.21521 0.2018 0.1194 0.21564 0.27335
3809.731 0.3781 0.5521 0.325 0.3231 0.4022 0.24652 0.24553 0.26444 0.25911 0.1506
3829.021 0.082 0.1522 0.2041 0.26418 0.24679 0.221484 0.27056 0.328 0.23115 0.1869
3848.311 0.1389 0.064 0.107 0.21504 0.3581 0.3306 0.1328 0.057 0.1746 0.3231
3867.601 0.2026 0.084 0.24159 0.1748 0.06 0.093 0.116 0.21731 0.30719 0.26605
3886.890 0.21192 0.1522 0.1 0.2034 0.30381 0.20982 0.1768 0.1392 0.126 0.23637
3906.180 0.23955 0.2086 0.27922 0.349 0.23659 0.27752 0.30654 0.096 0.044 0.021
3925.470 0.066 0.1699 0.23237 0.3816 0.5568 0.6004 0.3628 0.1935 0.24893 0.3572
3944.760 0.3802 0.3807 0.3724 0.31249 0.30247 0.3843 0.3831 0.27039 0.26417 0.25729
3964.049 0.26319 0.1899 0.102 0.29343 0.31017 0.097 0.1714 0.3686 0.4578 0.30852
3983.339 0.1967 0.1997 0.1704 0.3711 0.5265 0.4251 0.3479 0.351 0.1896 0.022
##END=
