##TITLE=Diphenyl phosphorochloridate
##JCAMP-DX=4.24
##DATA TYPE=INFRARED SPECTRUM
##ORIGIN=EPA-IR VAPOR PHASE LIBRARY
##OWNER=SRD/NIST
Collection (C) 2018 copyright by the U.S. Secretary of Commerce
on behalf of the United States of America. All rights reserved.
##CAS REGISTRY NO=2524-64-3
##MOLFORM=C 12 H 10 Cl O 3 P
##$NIST SOURCE=MSDC-IR
##STATE=gas
##XUNITS=1/CM
##YUNITS=ABSORBANCE
##XFACTOR=1.
##YFACTOR=0.001
##DELTAX=1.92934
##FIRSTX=549.9
##LASTX=3999.5
##FIRSTY=38.56
##MAXX=3999.53
##MINX=549.863
##MAXY=0.38866
##MINY=0
##NPOINTS=1789
##XYDATA=(X++(Y..Y))
549.863 38.56 38.11 37.72 37.34 37.32 37.43 37.63 38.12 38.62 39.4
569.156 40.63 42 43.64 45.39 47 48.51 49.65 50.06 49.75 48.75
588.450 47.27 45.73 44.2 43.1 42.65 42.83 43.73 45.21 47.15 49.41
607.743 51.71 54.09 56.51 58.44 59.61 59.71 58.37 55.87 52.49 48.49
627.037 44.2 39.87 35.75 31.92 28.58 25.76 23.18 20.93 19.18 17.75
646.330 16.57 15.64 14.93 14.49 14.23 14.12 14.18 14.43 14.88 15.38
665.624 16.19 17.28 18.5 20.03 21.87 24.07 26.76 29.83 33.08 36.08
684.917 38.25 39.11 38.39 36.25 33.27 29.99 26.85 24.05 21.56 19.44
704.210 17.71 16.3 15.25 14.53 14.14 14.1 14.41 15.05 16.05 17.34
723.504 18.87 20.52 22.26 24.04 25.72 27.42 29.22 31.15 33.47 36.47
742.797 40.07 44.4 49.46 54.94 60.71 66.69 72.71 78.7 84.38 89.31
762.091 92.74 93.96 92.72 88.86 82.77 75.01 66.22 57.38 49.11 41.71
781.384 35.29 29.86 25.46 21.84 18.89 16.53 14.67 13.16 11.92 10.98
800.678 10.23 9.68 9.29 9.07 8.91 8.89 8.9 8.84 8.72 8.58
819.971 8.37 8.02 7.68 7.4 7.2 7.09 7.04 7 7.02 7.01
839.264 6.98 7.03 7.13 7.19 7.25 7.35 7.53 7.71 7.85 8
858.558 8.19 8.43 8.75 8.98 9.21 9.56 9.9 10.26 10.63 11.02
877.851 11.51 12.02 12.56 13.17 13.85 14.66 15.59 16.7 18.01 19.47
897.145 21 22.52 23.87 25.05 26.07 27 28.06 29.36 31.12 33.61
916.438 36.9 41.09 46.56 53.58 62.17 72.42 84.13 96.46 108.32 118.87
935.732 127.36 133.55 137.89 141.26 145.33 152.44 165.03 185.19 213.71 249.73
955.025 290.47 330.59 363.65 384.22 388.66 375.94 347.98 309.37 266.37 225.12
974.318 189.61 161.29 139.71 123.2 110.03 98.74 88.44 79.01 70.6 63.48
993.612 57.81 53.63 51.05 50.5 53.02 59.9 69.87 77.38 79.42 77.61
1012.905 72.55 63.47 55.18 55.07 62.48 70.82 75.08 74.5 69.55 59.67
1032.199 46.69 35.24 27.48 22.65 19.55 17.49 16.1 15.02 14.3 13.91
1051.492 13.64 13.52 13.55 13.71 14.02 14.37 14.7 14.96 15.14 15.05
1070.786 14.66 14.11 13.42 12.62 11.8 11.06 10.39 9.8 9.36 9.02
1090.079 8.78 8.58 8.43 8.34 8.26 8.24 8.24 8.23 8.21 8.21
1109.372 8.26 8.32 8.44 8.63 8.92 9.27 9.76 10.33 10.93 11.65
1128.666 12.45 13.43 14.68 16.11 17.8 19.91 22.52 25.78 30.07 35.68
1147.959 43.18 53.42 67.3 85.83 109.89 138.3 166.28 187.23 197.49 197.29
1167.253 187.93 172.89 160.13 158.16 171.32 200.21 242.51 291.11 334.53 362.28
1186.546 368.87 352.23 314.59 266.05 219.83 183.48 157.95 141.83 132.96 128.7
1205.840 126.69 125.06 122.48 118.06 111.68 103.67 94.65 85.73 77.86 71.64
1225.133 66.95 63.18 59.58 55.66 51.19 46.29 41.32 36.66 32.77 29.67
1244.426 27.26 25.41 23.97 22.85 21.97 21.31 20.75 20.3 19.97 19.73
1263.720 19.46 19.19 19.03 18.89 18.8 18.74 18.66 18.59 18.51 18.47
1283.013 18.53 18.7 18.99 19.49 20.28 21.39 22.98 25.13 27.93 31.44
1302.307 35.71 40.8 46.84 53.78 61.33 69.13 76.7 83.33 88.39 91.58
1321.600 93.04 93.33 93.03 92.47 91.74 90.62 88.5 84.66 78.82 71.28
1340.894 62.48 53.06 43.9 35.91 29.43 24.42 20.63 17.75 15.59 13.93
1360.187 12.68 11.72 10.87 10.21 9.72 9.22 8.81 8.53 8.3 8.1
1379.480 7.96 7.84 7.72 7.62 7.54 7.42 7.32 7.22 7.11 6.96
1398.774 6.8 6.66 6.55 6.38 6.23 6.15 6.05 5.95 5.91 5.87
1418.067 5.88 5.98 6.07 6.17 6.37 6.59 6.8 7.09 7.38 7.69
1437.361 8.12 8.58 9.1 9.67 10.31 11.08 11.99 12.95 14.02 15.13
1456.654 16.29 17.62 19.04 20.63 22.53 24.79 27.38 30.51 34.56 39.87
1475.948 47 57.34 72.24 93.5 121.31 152.8 180.89 197.41 198.8 186
1495.241 160.67 127.26 95.3 70.65 53.85 42.56 34.38 28.5 24.33 21.14
1514.534 18.64 16.66 15.08 13.76 12.66 11.79 11.09 10.55 10.07 9.67
1533.828 9.37 9.08 8.81 8.66 8.63 8.67 8.8 9 9.27 9.62
1553.121 10.02 10.54 11.13 11.87 12.85 14.07 15.6 17.58 20.18 23.41
1572.415 27.36 32.11 37.83 44.24 51.01 58.11 65.18 71.78 77.23 80.72
1591.708 81.43 79.01 73.45 65.16 55.3 45.44 36.67 29.64 24.31 20.2
1611.002 17.02 14.61 12.76 11.18 9.95 8.98 8.13 7.49 6.99 6.57
1630.295 6.24 5.97 5.79 5.66 5.58 5.53 5.4303 5.358 5.2915 5.2118
1649.588 5.0793 4.9255 4.9124 4.9346 4.9024 4.836 4.7878 4.762 4.7376 4.7412
1668.882 4.7047 4.6998 4.7563 4.8003 4.8478 4.9276 5.041 5.1384 5.3008 5.53
1688.175 5.73 5.88 6.07 6.27 6.46 6.66 6.82 7 7.13 7.19
1707.469 7.23 7.28 7.33 7.35 7.38 7.43 7.44 7.43 7.39 7.29
1726.762 7.15 6.99 6.79 6.56 6.35 6.14 5.98 5.82 5.68 5.55
1746.056 5.3797 5.2914 5.2587 5.2086 5.1735 5.1934 5.2786 5.3746 5.52 5.72
1765.349 6.03 6.44 6.81 7.11 7.31 7.35 7.24 6.98 6.55 6.07
1784.642 5.59 5.1894 4.9279 4.7579 4.6087 4.49278 4.4001 4.288 4.184 4.104
1803.936 4.04 3.937 3.828 3.727 3.626 3.6 3.586 3.52 3.49 3.47
1823.229 3.45 3.47 3.514 3.619 3.689 3.736 3.849 3.966 4.046 4.167
1842.523 4.309 4.4325 4.6048 4.8225 5.0475 5.2386 5.3847 5.54 5.71 5.8
1861.816 5.88 5.94 5.98 6.01 6.07 6.12 6.15 6.16 6.15 6.1
1881.110 5.97 5.87 5.81 5.8 5.83 5.9 6.04 6.18 6.31 6.42
1900.403 6.49 6.58 6.71 6.84 6.99 7.2 7.43 7.65 7.89 8.16
1919.696 8.36 8.53 8.74 8.9 9.06 9.17 9.25 9.29 9.22 9.1
1938.990 8.94 8.77 8.65 8.55 8.5 8.49 8.48 8.42 8.28 8.06
1958.283 7.73 7.35 7.01 6.71 6.43 6.19 6.02 5.86 5.73 5.59
1977.577 5.4281 5.2741 5.1284 4.9762 4.796 4.59961 4.421 4.287 4.155 4.01
1996.870 3.896 3.752 3.647 3.589 3.5 3.42 3.34 3.24 3.16 3.11
2016.164 3.09 3.08 3.02 3 3.01 3.01 3.02 3 2.99 2.98
2035.457 2.94 2.89 2.89 2.87 2.85 2.88 2.88 2.86 2.85 2.86
2054.750 2.86 2.86 2.88 2.91 2.89 2.87 2.92 2.96 2.94 2.88
2074.044 2.86 2.88 2.87 2.81 2.77 2.75 2.75 2.75 2.73 2.72
2093.337 2.7 2.68 2.69 2.69 2.68 2.71 2.71 2.68 2.67 2.65
2112.631 2.66 2.68 2.69 2.65 2.66 2.68 2.67 2.68 2.68 2.66
2131.924 2.64 2.63 2.64 2.61 2.62 2.64 2.61 2.58 2.59 2.6
2151.218 2.59 2.58 2.58 2.6 2.59 2.59 2.61 2.63 2.63 2.62
2170.511 2.62 2.61 2.63 2.59 2.58 2.63 2.65 2.65 2.65 2.63
2189.804 2.59 2.62 2.64 2.62 2.63 2.62 2.61 2.63 2.66 2.69
2209.098 2.69 2.7 2.73 2.76 2.82 2.85 2.87 2.91 2.92 2.93
2228.391 2.94 2.93 2.94 2.97 2.99 3.03 3.08 3.07 3.07 3.12
2247.685 3.11 3.1 3.13 3.13 3.13 3.11 3.1 3.1 3.06 3.04
2266.978 2.98 2.96 2.98 2.95 2.89 2.83 2.81 2.79 2.8 2.8
2286.272 2.74 2.74 2.78 2.78 2.77 2.78 2.82 2.86 2.91 2.99
2305.565 3.08 3.15 3.24 3.34 3.4 3.44 3.44 3.46 3.48 3.46
2324.858 3.46 3.48 3.501 3.54 3.505 3.46 3.47 3.45 3.46 3.49
2344.152 3.512 3.559 3.561 3.526 3.536 3.522 3.5 3.48 3.43 3.44
2363.445 3.45 3.48 3.49 3.506 3.51 3.509 3.512 3.48 3.508 3.508
2382.739 3.47 3.49 3.47 3.47 3.521 3.521 3.515 3.49 3.45 3.4
2402.032 3.34 3.25 3.16 3.14 3.11 3 2.94 2.94 2.95 2.93
2421.326 2.9 2.89 2.88 2.88 2.88 2.88 2.89 2.87 2.86 2.85
2440.619 2.81 2.77 2.74 2.72 2.7 2.67 2.61 2.59 2.59 2.6
2459.912 2.6 2.53 2.5 2.48 2.46 2.45 2.46 2.47 2.5 2.51
2479.206 2.47 2.44 2.43 2.45 2.5 2.51 2.51 2.52 2.5 2.48
2498.499 2.49 2.49 2.47 2.48 2.51 2.51 2.49 2.52 2.53 2.52
2517.793 2.55 2.51 2.48 2.46 2.43 2.46 2.46 2.47 2.48 2.5
2537.086 2.52 2.53 2.54 2.54 2.53 2.56 2.59 2.56 2.55 2.54
2556.380 2.54 2.55 2.57 2.57 2.59 2.59 2.52 2.5 2.53 2.5
2575.673 2.49 2.48 2.45 2.41 2.4 2.36 2.29 2.3 2.29 2.28
2594.966 2.26 2.24 2.26 2.27 2.24 2.25 2.33 2.36 2.35 2.36
2614.260 2.37 2.35 2.32 2.31 2.29 2.32 2.33 2.28 2.31 2.29
2633.553 2.24 2.24 2.23 2.21 2.19 2.18 2.19 2.18 2.15 2.16
2652.847 2.2 2.2 2.17 2.12 2.05 2.06 2.02 1.96 1.91 1.9
2672.140 1.92 1.89 1.91 1.92 1.9 1.84 1.8 1.77 1.76 1.77
2691.434 1.73 1.68 1.7 1.76 1.77 1.81 1.83 1.72 1.71 1.73
2710.727 1.66 1.6 1.67 1.69 1.64 1.68 1.72 1.73 1.82 1.85
2730.020 1.75 1.67 1.69 1.71 1.64 1.58 1.65 1.6 1.53 1.62
2749.314 1.68 1.73 1.68 1.59 1.57 1.51 1.48 1.49 1.5 1.51
2768.607 1.52 1.51 1.53 1.58 1.6 1.58 1.52 1.46 1.43 1.45
2787.901 1.44 1.39 1.38 1.4 1.45 1.53 1.47 1.34 1.32 1.33
2807.194 1.34 1.31 1.27 1.25 1.23 1.2 1.26 1.38 1.31 1.22
2826.488 1.27 1.27 1.24 1.21 1.19 1.18 1.2 1.26 1.26 1.28
2845.781 1.26 1.16 1.08 1.11 1.13 1.12 1.15 1.18 1.16 1.24
2865.074 1.34 1.33 1.31 1.33 1.31 1.2 1.16 1.15 1.18 1.19
2884.368 1.19 1.22 1.12 1.07 1.12 1.15 1.14 1.12 1.12 1.22
2903.661 1.29 1.2 1.17 1.17 1.13 1.09 1.06 0.98 0.95 0.94
2922.955 0.97 0.99 0.97 0.95 0.94 0.94 0.88 0.87 0.89 0.96
2942.248 1.09 1.13 1.08 1.01 0.92 0.95 0.89 0.83 0.93 0.93
2961.542 0.92 0.93 0.85 0.73 0.76 0.82 0.8 0.76 0.74 0.8
2980.835 0.79 0.69 0.59 0.65 0.87 0.93 0.87 0.95 1.03 1.17
3000.128 1.2 1.14 1.19 1.37 1.58 1.8 2.09 2.3 2.49 2.8
3019.422 3.22 3.577 3.956 4.51265 5.2004 5.89 6.54 7.26 7.94 8.82
3038.715 10.03 11.3 12.64 13.97 15.21 16.15 16.81 17.01 16.9 16.63
3058.009 16.2 16.05 16.27 16.63 17.14 18.01 19.06 20.51 22.3 24.38
3077.302 26.77 28.77 29.87 29.75 28.16 25.49 22.14 18.59 15.47 13.22
3096.596 11.76 10.87 10.32 9.72 8.9 7.98 7.15 6.21 5.2784 4.50752
3115.889 3.77 3.1 2.66 2.33 1.95 1.67 1.42 1.16 1.06 1.06
3135.182 0.87 0.72 0.74 0.73 0.68 0.64 0.57 0.5 0.57 0.51
3154.476 0.38 0.33 0.31 0.34 0.32 0.33 0.43 0.56 0.51 0.48
3173.769 0.46 0.31 0.39 0.53 0.45 0.38 0.39 0.46 0.47 0.35
3193.063 0.26 0.34 0.37 0.39 0.4 0.22 0.17 0.24 0.31 0.32
3212.356 0.24 0.27 0.34 0.35 0.33 0.28 0.2 0.22 0.19 0.05
3231.650 0 0.01 0 0.11 0.3 0.29 0.27 0.21 0.2 0.27
3250.943 0.3 0.27 0.18 0.16 0.33 0.26 0.16 0.23 0.28 0.37
3270.236 0.29 0.27 0.34 0.4 0.39 0.3 0.17 0.19 0.31 0.35
3289.530 0.32 0.24 0.24 0.24 0.3 0.39 0.33 0.3 0.44 0.4
3308.823 0.31 0.38 0.44 0.35 0.26 0.38 0.41 0.4 0.48 0.45
3328.117 0.39 0.36 0.38 0.4 0.37 0.38 0.47 0.49 0.43 0.44
3347.410 0.54 0.62 0.71 0.62 0.43 0.39 0.44 0.55 0.59 0.61
3366.704 0.69 0.72 0.58 0.58 0.7 0.69 0.67 0.64 0.71 0.71
3385.997 0.59 0.63 0.78 0.75 0.7 0.73 0.68 0.7 0.79 0.77
3405.290 0.7 0.72 0.74 0.68 0.72 0.73 0.68 0.77 0.87 0.8
3424.584 0.74 0.79 0.95 1.01 0.86 0.99 0.99 0.73 0.81 0.87
3443.877 0.89 0.99 0.95 0.94 1.01 1.01 0.97 1.01 1.15 1.23
3463.171 1.21 1.16 1.23 1.23 1.11 1.11 1.15 1.19 1.26 1.21
3482.464 1.16 1.28 1.26 1.25 1.19 1.13 1.17 1.1 1.13 1.28
3501.758 1.32 1.21 1.2 1.28 1.33 1.32 1.31 1.35 1.36 1.39
3521.051 1.4 1.32 1.39 1.54 1.57 1.5 1.4 1.42 1.43 1.44
3540.344 1.47 1.45 1.57 1.68 1.55 1.44 1.52 1.52 1.63 1.66
3559.638 1.59 1.64 1.58 1.53 1.54 1.51 1.51 1.67 1.73 1.7
3578.931 1.7 1.71 1.75 1.74 1.77 1.77 1.68 1.71 1.82 1.74
3598.225 1.68 1.72 1.73 1.76 1.86 1.88 1.82 1.71 1.8 1.84
3617.518 1.8 1.82 1.83 1.9 1.85 1.89 1.95 1.96 1.96 1.97
3636.812 1.99 1.99 1.97 1.94 2 2.02 1.99 2.01 2.01 2.01
3656.105 2.04 2.09 2.16 2.22 2.2 2.11 2.05 2.11 2.16 2.21
3675.398 2.16 2.12 2.1 2.09 2.13 2.08 2.11 2.19 2.23 2.18
3694.692 2.23 2.32 2.27 2.15 2.09 2.11 2.15 2.23 2.22 2.26
3713.985 2.21 2.15 2.23 2.23 2.2 2.18 2.14 2.15 2.18 2.12
3733.279 2.1 2.13 2.02 2.04 2.07 2.02 2.08 2.08 1.96 2
3752.572 2.13 2.09 2.09 2.08 1.95 2.01 2.15 2.17 2.14 2.09
3771.866 2.14 2.25 2.28 2.29 2.23 2.18 2.24 2.18 2.18 2.17
3791.159 2.13 2.21 2.12 2.06 2.19 2.22 2.24 2.23 2.21 2.43
3810.452 2.52 2.44 2.36 2.22 2.22 2.25 2.17 2.22 2.35 2.39
3829.746 2.35 2.2 2.2 2.22 2.15 2.2 2.26 2.18 2.2 2.31
3849.039 2.3 2.22 2.15 2.15 2.21 2.21 2.28 2.3 2.26 2.23
3868.333 2.24 2.22 2.18 2.18 2.16 2.15 2.23 2.31 2.25 2.16
3887.626 2.06 2.05 2.05 2.06 2.13 2.18 2.27 2.27 2.23 2.2
3906.920 2.1 2.12 2.18 2.17 2.19 2.3 2.37 2.28 2.21 2.27
3926.213 2.26 2.26 2.31 2.28 2.21 2.19 2.26 2.26 2.21 2.18
3945.506 2.16 2.17 2.19 2.15 2.12 2.21 2.28 2.21 2.18 2.14
3964.800 2.18 2.3 2.28 2.26 2.29 2.34 2.34 2.26 2.32 2.33
3984.093 2.27 2.35 2.34 2.25 2.26 2.36 2.43 2.37 2.3
##END=
