##TITLE=Quinazoline
##JCAMP-DX=4.24
##DATA TYPE=INFRARED SPECTRUM
##ORIGIN=EPA-IR VAPOR PHASE LIBRARY
##OWNER=SRD/NIST
Collection (C) 2018 copyright by the U.S. Secretary of Commerce
on behalf of the United States of America. All rights reserved.
##CAS REGISTRY NO=253-82-7
##MOLFORM=C 8 H 6 N 2
##$NIST SOURCE=MSDC-IR
##STATE=gas
##XUNITS=1/CM
##YUNITS=ABSORBANCE
##XFACTOR=1.
##YFACTOR=0.001
##DELTAX=1.92898
##FIRSTX=549.8
##LASTX=4000.7
##FIRSTY=0.5889
##MAXX=4000.7
##MINX=549.759
##MAXY=0.116816
##MINY=0
##NPOINTS=1790
##XYDATA=(X++(Y..Y))
549.759 0.5889 0.4845 0.4299 0.3814 0.21674 0.22468 0.4997 0.587 0.3406 0.3843
569.049 0.588 0.4028 0.0942 0.16589 0.369 0.4026 0.3335 0.0685 0.16915 0.494
588.339 0.3912 0.3319 0.2784 0.2696 0.2765 0.2685 0.532 0.6567 0.7468 1.0224
607.628 1.416 1.906 2.666 3.846 5.056 6.646 9.326 13.246 18.146 23.456
626.918 28.296 31.336 32.746 35.386 42.896 47.046 39.906 31.576 26.886 21.986
646.208 16.506 11.476 7.546 5.056 3.406 2.256 1.546 1.216 1.186 1.0891
665.498 1.0016 0.8625 0.7366 0.6879 0.7562 0.8508 1.0137 1.0778 0.9377 1.0261
684.787 1.146 1.216 1.216 1.0704 1.0769 1.146 1.226 1.166 0.9949 1.0568
704.077 1.276 1.336 1.246 1.326 1.776 2.416 3.216 4.306 6.146 8.716
723.367 11.816 15.806 20.656 26.226 32.106 37.486 42.156 45.916 49.266 54.086
742.657 65.996 91.466 116.816 103.506 69.906 56.596 54.386 52.096 49.056 45.256
761.947 41.176 36.596 32.266 28.456 25.076 22.616 21.236 20.816 21.766 23.606
781.236 25.146 26.036 26.696 28.376 32.896 37.696 35.236 27.396 23.056 21.376
800.526 19.326 17.486 16.156 14.736 13.356 12.186 11.256 10.356 9.186 8.296
819.816 8.206 8.066 7.656 7.766 7.716 6.996 5.896 4.936 4.246 3.686
839.106 3.276 3.236 3.536 3.876 4.396 5.066 5.666 6.106 6.436 6.676
858.395 7.016 7.906 9.736 11.946 13.056 11.286 8.346 7.046 6.636 6.316
877.685 5.976 5.466 4.936 4.376 3.766 3.306 3.036 2.846 2.906 3.096
896.975 3.686 4.636 5.616 6.646 7.576 8.486 9.316 9.896 10.316 11.086
916.265 12.676 15.316 17.786 18.256 16.266 14.206 14.206 15.566 17.486 19.176
935.555 19.826 19.306 18.506 19.406 19.456 17.966 18.236 18.186 16.686 15.146
954.844 14.476 13.976 11.696 8.536 6.736 6.116 5.596 5.016 4.596 3.946
974.134 3.166 2.606 2.276 2.106 1.946 1.646 1.266 1.156 1.038 1.0684
993.424 1.536 2.106 2.676 3.526 4.226 4.446 4.256 4.166 4.616 4.526
1012.714 3.826 3.766 3.896 3.456 2.756 2.096 1.486 1.0728 0.9979 1.129
1032.003 1.196 1.0028 1.1374 1.376 1.496 1.986 2.806 3.816 5.006 6.816
1051.293 9.066 11.606 14.676 17.376 19.246 19.716 19.096 19.006 19.406 19.556
1070.583 20.246 20.776 18.876 15.276 11.576 8.566 6.666 5.356 4.276 3.586
1089.873 3.136 2.876 2.606 2.306 2.276 2.626 2.796 2.856 3.146 3.526
1109.163 3.956 4.406 4.966 5.166 5.776 6.826 8.086 9.826 11.596 13.406
1128.452 14.756 15.356 15.766 16.846 18.956 21.696 24.066 25.136 24.226 21.736
1147.742 19.716 19.566 20.246 20.296 19.256 17.046 14.406 11.786 9.266 7.016
1167.032 5.276 4.096 3.066 2.306 1.996 1.706 1.436 1.256 1.456 1.726
1186.322 1.926 2.476 3.096 3.856 4.546 5.216 5.956 6.156 5.656 5.606
1205.611 5.746 5.936 6.306 6.226 5.796 4.916 4.076 3.596 3.386 3.196
1224.901 2.926 2.866 3.126 3.176 3.176 3.386 3.426 3.326 3.086 2.846
1244.191 2.666 2.546 2.496 2.536 2.686 2.636 2.526 2.636 2.666 2.496
1263.481 2.276 2.366 2.576 2.586 2.766 2.966 3.196 3.556 4.096 4.886
1282.771 5.796 6.946 8.246 9.626 10.846 11.686 12.226 12.456 12.536 12.766
1302.060 13.146 13.596 13.766 13.366 12.606 11.416 9.916 8.506 7.436 6.776
1321.350 6.376 6.026 5.476 4.776 4.116 3.616 3.316 3.246 3.336 3.626
1340.640 4.116 4.736 5.496 6.526 8.016 10.056 12.716 16.246 20.926 26.726
1359.930 33.476 40.546 47.006 51.956 55.446 58.436 61.126 62.286 61.146 59.206
1379.219 55.946 49.726 42.476 36.976 33.216 30.246 27.926 26.366 25.606 25.386
1398.509 25.156 24.516 23.696 23.006 22.516 22.006 20.936 19.336 17.576 15.116
1417.799 12.126 9.316 7.316 6.166 5.556 5.226 5.076 5.076 5.076 5.076
1437.089 5.206 5.366 5.336 5.206 5.136 5.136 5.196 5.456 5.996 6.596
1456.378 7.226 7.836 8.396 9.236 10.516 12.186 14.306 17.306 21.566 27.176
1475.668 33.356 40.006 45.916 50.126 51.716 51.066 49.826 49.776 50.096 50.116
1494.958 49.256 44.486 36.106 27.046 19.496 14.386 11.006 8.966 7.806 6.956
1514.248 6.336 6.006 5.966 6.136 6.536 7.096 7.816 8.636 9.536 10.586
1533.538 11.936 13.726 16.126 19.456 23.606 28.466 34.046 40.526 47.836 56.286
1552.827 64.916 73.916 81.876 88.706 94.166 97.066 98.006 98.356 98.846 98.566
1572.117 96.236 91.676 85.206 78.736 72.686 65.816 60.156 56.976 54.546 51.306
1591.407 47.786 43.696 38.556 33.526 29.946 28.466 29.246 31.706 35.306 40.056
1610.697 45.666 51.676 56.976 60.706 62.326 61.936 60.326 57.946 54.716 50.716
1629.986 46.506 41.086 33.736 25.316 18.246 13.366 10.266 8.556 7.406 6.646
1649.276 6.096 5.626 5.026 4.546 4.176 3.836 3.586 3.436 3.426 3.336
1668.566 3.236 3.186 3.096 3.016 2.936 2.876 2.816 2.796 2.786 2.886
1687.856 2.996 3.076 3.326 3.576 3.706 3.766 3.786 3.836 3.796 3.666
1707.146 3.516 3.386 3.236 2.996 2.796 2.586 2.436 2.336 2.206 2.236
1726.435 2.266 2.256 2.336 2.326 2.306 2.316 2.356 2.426 2.396 2.366
1745.725 2.396 2.416 2.396 2.366 2.366 2.406 2.386 2.316 2.296 2.316
1765.015 2.306 2.346 2.366 2.296 2.266 2.246 2.176 2.116 2.056 1.956
1784.305 1.776 1.646 1.526 1.396 1.356 1.326 1.356 1.396 1.466 1.596
1803.594 1.776 1.966 2.156 2.366 2.636 2.866 3.026 3.096 3.086 3.136
1822.884 3.246 3.416 3.616 3.776 3.836 3.836 3.836 3.806 3.766 3.776
1842.174 3.706 3.556 3.416 3.216 3.046 2.866 2.616 2.436 2.256 2.096
1861.464 1.976 1.976 2.076 2.236 2.556 2.836 3.086 3.336 3.556 3.766
1880.754 3.996 4.226 4.406 4.596 4.786 4.946 5.016 5.076 5.046 4.926
1900.043 4.856 4.776 4.566 4.436 4.356 4.136 3.846 3.466 3.116 2.966
1919.333 2.956 3.036 3.146 3.266 3.436 3.596 3.736 3.896 3.966 3.986
1938.623 4.046 4.176 4.366 4.556 4.726 4.856 4.916 4.966 5.106 5.226
1957.913 5.296 5.326 5.236 5.026 4.776 4.526 4.216 3.896 3.506 2.926
1977.202 2.296 1.886 1.616 1.366 1.256 1.256 1.196 1.176 1.246 1.256
1996.492 1.206 1.196 1.216 1.256 1.256 1.236 1.236 1.216 1.1372 1.1099
2015.782 1.1255 1.0645 0.9983 1.0126 1.0445 1.0205 0.9438 0.9202 0.8843 0.8047
2035.072 0.8122 0.8013 0.733 0.717 0.7045 0.6758 0.6768 0.6961 0.7153 0.7243
2054.362 0.7366 0.7342 0.7202 0.7265 0.7562 0.7718 0.7673 0.7574 0.7762 0.8353
2073.651 0.8525 0.8233 0.8437 0.8945 0.8897 0.8794 0.8736 0.8318 0.8079 0.799
2092.941 0.7367 0.7161 0.7211 0.6387 0.617 0.6269 0.5454 0.5318 0.5387 0.5421
2112.231 0.5732 0.5345 0.5092 0.5212 0.5611 0.6085 0.6512 0.6545 0.6698 0.7445
2131.521 0.7425 0.6972 0.7223 0.7528 0.7533 0.7767 0.7679 0.7704 0.7449 0.6714
2150.810 0.675 0.6379 0.6049 0.6284 0.5888 0.506 0.4658 0.4867 0.4916 0.4914
2170.100 0.4553 0.4697 0.51 0.4784 0.5113 0.5718 0.5587 0.5298 0.5532 0.6159
2189.390 0.6299 0.6533 0.7192 0.7397 0.762 0.8272 0.88 0.9377 1.0715 1.176
2208.680 1.166 1.098 1.0982 1.156 1.176 1.1312 1.0867 1.0255 0.9266 0.8211
2227.970 0.7457 0.6966 0.622 0.6275 0.6748 0.7079 0.7316 0.7533 0.7557 0.7382
2247.259 0.7717 0.8689 0.9259 0.9342 0.9992 1.0589 1.1241 1.226 1.266 1.346
2266.549 1.496 1.536 1.526 1.566 1.626 1.656 1.616 1.546 1.506 1.436
2285.839 1.416 1.386 1.316 1.316 1.296 1.256 1.176 1.146 1.176 1.156
2305.129 1.0827 1.0002 1.0094 0.9462 0.8908 0.95 0.9219 0.8419 0.8121 0.8148
2324.418 0.822 0.835 0.8921 0.9812 0.9731 1.0058 1.0505 1.0354 1.1131 1.1389
2343.708 1.0912 1.156 1.176 1.146 1.146 1.1152 1.0409 0.9515 0.887 0.8521
2362.998 0.8239 0.7378 0.7698 0.8288 0.8464 0.8571 0.8445 0.9045 0.9237 0.932
2382.288 0.9014 0.9262 0.9626 0.9556 1.0517 1.0727 1.0376 1.0766 1.156 1.186
2401.578 1.226 1.206 1.196 1.276 1.256 1.186 1.1434 1.156 1.186 1.176
2420.867 1.114 1.0986 1.1349 1.216 1.306 1.346 1.396 1.506 1.566 1.526
2440.157 1.546 1.576 1.476 1.396 1.426 1.386 1.316 1.276 1.196 1.156
2459.447 1.1059 1.0382 1.0499 1.0732 1.032 0.9343 0.8773 0.9229 0.903 0.7979
2478.737 0.753 0.7714 0.7074 0.6287 0.6513 0.707 0.734 0.6537 0.6437 0.7293
2498.026 0.806 0.8544 0.8686 0.9101 0.9621 0.9884 1.0125 1.0125 0.9898 1.0655
2517.316 1.1228 1.0462 1.0621 1.0791 0.9691 0.9388 0.9483 0.9672 0.9311 0.8468
2536.606 0.8395 0.8479 0.8422 0.8752 0.9087 0.8403 0.7536 0.7518 0.7837 0.8215
2555.896 0.8909 0.9102 0.8916 0.8841 0.8151 0.8061 0.8453 0.8864 0.9059 0.8718
2575.186 0.84 0.8127 0.8092 0.7894 0.7566 0.7689 0.8167 0.8314 0.7951 0.7922
2594.475 0.7374 0.6905 0.7156 0.7514 0.8285 0.8618 0.87 0.8357 0.8318 0.8996
2613.765 0.8778 0.8016 0.79 0.7872 0.7622 0.8316 0.9019 0.8774 0.8825 0.8921
2633.055 0.8609 0.8666 0.8838 0.8745 0.8228 0.7784 0.7695 0.7557 0.7588 0.7654
2652.345 0.674 0.6561 0.6664 0.712 0.7818 0.7956 0.7746 0.6641 0.7473 0.8036
2671.634 0.7649 0.7551 0.6807 0.6577 0.6447 0.5937 0.5484 0.5387 0.5189 0.5345
2690.924 0.5851 0.5983 0.6038 0.6158 0.6713 0.6898 0.6623 0.6784 0.5984 0.5846
2710.214 0.6413 0.5907 0.6546 0.7395 0.647 0.6656 0.7168 0.5997 0.5876 0.639
2729.504 0.6816 0.6908 0.6908 0.7439 0.6925 0.6943 0.7266 0.7334 0.722 0.6814
2748.794 0.7569 0.7143 0.5884 0.6098 0.6229 0.5908 0.6809 0.8047 0.7839 0.6767
2768.083 0.6718 0.7324 0.7707 0.8269 0.8853 0.8785 0.8179 0.8175 0.8081 0.7328
2787.373 0.6454 0.6158 0.6104 0.5934 0.5753 0.5671 0.5623 0.4947 0.3795 0.3312
2806.663 0.3098 0.3076 0.365 0.3743 0.3982 0.3808 0.4253 0.5174 0.5391 0.5375
2825.953 0.5691 0.7276 0.8486 0.915 0.9399 0.9061 0.9176 1.0909 1.256 1.296
2845.242 1.346 1.376 1.376 1.416 1.486 1.586 1.796 1.746 1.596 1.626
2864.532 1.686 1.686 1.606 1.526 1.486 1.526 1.556 1.586 1.586 1.516
2883.822 1.486 1.506 1.446 1.466 1.446 1.476 1.546 1.496 1.526 1.546
2903.112 1.516 1.626 1.826 1.956 2.156 2.346 2.566 2.836 2.916 3.046
2922.401 3.306 3.506 3.826 4.076 4.186 4.386 4.436 4.426 4.446 4.496
2941.691 4.516 4.476 4.416 4.306 4.256 4.196 3.986 3.856 3.876 3.846
2960.981 3.736 3.736 3.776 3.806 3.886 3.986 4.056 4.086 4.256 4.366
2980.271 4.546 4.856 5.066 5.316 5.766 6.406 7.076 7.786 8.606 9.656
2999.561 10.936 12.396 14.186 16.446 18.816 21.136 23.716 26.016 27.646 28.526
3018.850 28.786 28.806 29.166 30.116 31.066 31.356 30.926 29.826 28.556 27.726
3038.140 27.276 27.276 27.766 28.676 30.146 32.046 34.246 36.616 38.876 41.026
3057.430 43.456 45.936 48.216 50.576 52.626 53.896 54.276 53.516 51.906 49.996
3076.720 47.676 44.916 41.916 38.266 33.856 29.166 24.546 20.456 17.296 14.706
3096.009 12.426 10.466 8.586 6.946 5.606 4.526 3.826 3.306 3.066 2.966
3115.299 2.746 2.736 2.736 2.496 2.336 2.236 2.256 2.246 2.096 2.046
3134.589 1.926 1.786 1.816 1.876 1.856 1.896 1.866 1.816 1.886 1.886
3153.879 1.666 1.566 1.536 1.546 1.656 1.686 1.676 1.516 1.416 1.436
3173.169 1.346 1.266 1.286 1.266 1.296 1.386 1.386 1.216 1.0374 1.0162
3192.458 1.1077 1.0482 0.9176 0.9306 0.8675 0.7069 0.7399 0.7583 0.6125 0.6178
3211.748 0.6162 0.5605 0.5359 0.4345 0.444 0.5673 0.6758 0.6766 0.6106 0.6025
3231.038 0.613 0.692 0.7542 0.68 0.6853 0.676 0.5535 0.5732 0.6474 0.5658
3250.328 0.4535 0.3948 0.3101 0.2762 0.3484 0.3525 0.4698 0.4773 0.4265 0.4776
3269.617 0.4067 0.3028 0.324 0.4648 0.4258 0.3497 0.339 0.3949 0.3411 0.22463
3288.907 0.18167 0.22648 0.3615 0.4082 0.3873 0.3924 0.3386 0.335 0.3779 0.3318
3308.197 0.2712 0.3028 0.3161 0.2807 0.3108 0.3652 0.3884 0.3768 0.5474 0.5189
3327.487 0.3204 0.3829 0.4256 0.3772 0.3985 0.34 0.23781 0.3653 0.4712 0.3846
3346.777 0.3326 0.3206 0.2559 0.3432 0.3533 0.18062 0.21923 0.23846 0.24027 0.3213
3366.066 0.3739 0.3752 0.3017 0.3653 0.3671 0.3491 0.3732 0.3147 0.22397 0.3442
3385.356 0.5351 0.4263 0.3755 0.3959 0.4061 0.3685 0.24394 0.2761 0.3355 0.4125
3404.646 0.5363 0.3853 0.0709 0 0.1995 0.4493 0.4921 0.409 0.3785 0.3793
3423.936 0.4262 0.3994 0.3199 0.3472 0.4286 0.4475 0.4969 0.4445 0.3857 0.4933
3443.225 0.5081 0.3862 0.3996 0.5639 0.6153 0.5469 0.4933 0.4591 0.4742 0.4893
3462.515 0.486 0.4754 0.3947 0.3445 0.4277 0.542 0.4161 0.2598 0.294 0.4429
3481.805 0.3927 0.18383 0.2671 0.3842 0.3617 0.4373 0.5101 0.3442 0.20252 0.2549
3501.095 0.2903 0.23014 0.2791 0.3791 0.4113 0.4598 0.4068 0.371 0.4477 0.5307
3520.385 0.5192 0.4904 0.4818 0.4016 0.3745 0.442 0.5197 0.5959 0.5973 0.4376
3539.674 0.3494 0.4107 0.4015 0.3867 0.385 0.3117 0.4527 0.4789 0.308 0.4014
3558.964 0.4006 0.2758 0.3463 0.3371 0.3534 0.4909 0.4962 0.4819 0.5417 0.6112
3578.254 0.5556 0.4882 0.5305 0.521 0.4858 0.5399 0.5488 0.5743 0.5977 0.4429
3597.544 0.3223 0.481 0.6721 0.7114 0.6628 0.5884 0.5782 0.5305 0.5817 0.6348
3616.833 0.5096 0.4566 0.4686 0.6595 0.7416 0.5667 0.4544 0.4924 0.4828 0.3349
3636.123 0.4266 0.6272 0.5961 0.5915 0.6118 0.4697 0.3652 0.3427 0.4265 0.5517
3655.413 0.4965 0.5185 0.617 0.6202 0.6676 0.6838 0.6078 0.545 0.5694 0.577
3674.703 0.6211 0.5919 0.5183 0.4031 0.3049 0.3464 0.3647 0.3585 0.4064 0.531
3693.993 0.5194 0.3658 0.3504 0.3155 0.3218 0.4565 0.4622 0.2958 0.2993 0.5616
3713.282 0.5805 0.5179 0.4854 0.4008 0.4396 0.5353 0.4332 0.4021 0.503 0.4862
3732.572 0.401 0.4589 0.6765 0.6825 0.547 0.4824 0.5801 0.5343 0.2948 0.3219
3751.862 0.437 0.3749 0.3145 0.2483 0.3722 0.4431 0.3517 0.3606 0.3198 0.4598
3771.152 0.6058 0.5619 0.433 0.4197 0.5686 0.3962 0.2596 0.3769 0.5208 0.5159
3790.441 0.5477 0.6285 0.601 0.5881 0.4376 0.3099 0.406 0.4701 0.394 0.4609
3809.731 0.6308 0.7533 0.6183 0.5938 0.7299 0.6331 0.5177 0.5024 0.5334 0.5005
3829.021 0.5123 0.527 0.6338 0.6474 0.6921 0.7399 0.7847 0.9744 0.944 0.8089
3848.311 0.7552 0.7865 0.7307 0.7575 0.6344 0.5307 0.7615 0.845 0.7913 0.7508
3867.601 0.8664 0.903 0.8358 0.8568 0.8708 1.0513 1.206 1.1114 1.0423 1.1055
3886.890 1.186 1.176 0.9375 1.0476 1.064 0.7846 0.8819 0.824 0.7449 0.9285
3906.180 0.7423 0.5224 0.5484 0.5588 0.527 0.5355 0.5107 0.522 0.5469 0.4782
3925.470 0.3746 0.3581 0.4641 0.5225 0.51 0.6428 0.654 0.5666 0.5856 0.3984
3944.760 0.4563 0.6745 0.7313 0.7125 0.6809 0.8252 0.9237 0.7988 0.6401 0.6614
3964.049 0.7849 0.9849 1.0037 0.7928 0.858 1.0057 0.8988 0.7025 0.8022 0.9492
3983.339 0.9228 0.9519 0.9509 0.9168 1.0004 1.1317 1.1291 1.0948 0.9939 0.9744
##END=
