##TITLE=1-Ethyl-4-iodobenzene
##JCAMP-DX=4.24
##DATA TYPE=INFRARED SPECTRUM
##ORIGIN=EPA-IR VAPOR PHASE LIBRARY
##OWNER=SRD/NIST
Collection (C) 2018 copyright by the U.S. Secretary of Commerce
on behalf of the United States of America. All rights reserved.
##CAS REGISTRY NO=25309-64-2
##MOLFORM=C 8 H 9 I
##$NIST SOURCE=MSDC-IR
##STATE=gas
##XUNITS=1/CM
##YUNITS=ABSORBANCE
##XFACTOR=1.
##YFACTOR=0.001
##DELTAX=1.92898
##FIRSTX=549.8
##LASTX=4000.7
##FIRSTY=1.339
##MAXX=4000.7
##MINX=549.759
##MAXY=0.060529
##MINY=0
##NPOINTS=1790
##XYDATA=(X++(Y..Y))
549.759 1.339 1.399 1.379 1.319 1.379 1.579 1.559 1.309 1.579 2.109
569.049 2.509 2.859 3.229 3.789 4.639 5.669 6.379 6.349 6.539 6.679
588.339 5.879 4.559 3.289 2.439 2.239 1.979 1.699 1.619 1.379 1.309
607.628 1.2295 1.2271 1.2415 1.0377 0.9061 0.9969 1.2152 1.359 1.309 1.329
626.918 1.309 1.2731 1.2314 1.2052 1.2388 1.215 1.1952 1.2138 1.1412 1.0141
646.208 0.9009 0.8429 0.9024 1.0384 1.0816 1.0071 0.9897 0.9896 0.8527 0.6365
665.498 0.634 0.7365 0.8686 0.9276 0.7872 0.777 1.0139 0.9757 0.999 1.2073
684.787 1.0916 1.284 1.459 1.2409 1.409 1.589 1.489 1.469 1.559 1.659
704.077 1.909 1.969 1.889 2.139 2.239 2.069 1.969 1.939 1.949 2.009
723.367 1.979 1.919 2.009 2.069 2.209 2.339 2.409 2.549 2.679 2.999
742.657 3.269 3.349 3.589 3.989 4.589 5.169 5.749 6.789 7.969 9.219
761.947 10.539 11.609 12.209 12.079 11.539 10.789 9.539 8.239 7.369 6.749
781.236 6.499 6.729 7.049 7.359 7.909 8.649 9.459 10.419 11.669 13.119
800.526 14.549 16.069 17.669 19.239 20.819 22.219 23.329 24.249 24.669 24.579
819.816 24.209 23.529 22.369 20.869 19.279 17.479 15.679 13.869 11.999 10.289
839.106 8.859 7.579 6.259 5.299 4.539 3.829 3.259 2.769 2.469 2.329
858.395 2.079 2.009 1.909 1.729 1.719 1.529 1.389 1.379 1.379 1.359
877.685 1.1776 1.0359 1.047 1.1564 1.1353 1.0998 1.0957 1.0559 0.9715 0.844
896.975 0.9949 1.0216 0.8658 0.9044 0.8718 0.7421 0.6179 0.695 0.8884 0.9115
916.265 0.894 0.8382 0.817 0.904 0.7962 0.8668 0.9501 0.8294 0.778 0.866
935.555 1.0216 1.0137 0.9411 1.0778 1.2497 1.389 1.379 1.319 1.519 1.939
954.844 2.409 2.829 3.479 4.159 4.789 5.459 5.979 6.199 6.069 5.819
974.134 5.519 5.099 4.709 4.369 4.279 4.449 4.689 5.209 6.149 7.379
993.424 9.219 12.339 17.339 24.919 34.479 43.129 48.199 49.989 50.239 48.159
1012.714 41.099 30.139 19.829 12.879 8.569 6.279 5.159 4.319 3.629 3.269
1032.003 3.339 3.309 3.299 3.379 3.429 3.839 4.299 4.489 5.149 6.099
1051.293 7.699 10.649 14.429 18.779 22.929 25.599 26.199 25.619 23.769 19.429
1070.583 13.959 9.319 6.469 4.919 3.889 3.529 3.549 3.619 3.409 3.389
1089.873 3.469 3.409 3.419 3.219 3.539 3.709 3.459 3.599 3.819 3.989
1109.163 3.969 3.649 3.679 3.849 3.609 3.729 3.719 3.579 3.479 2.989
1128.452 2.529 2.469 2.569 2.449 2.099 1.659 1.599 1.519 1.339 1.288
1147.742 1.309 1.699 1.779 1.569 1.609 1.859 1.819 1.719 1.809 1.669
1167.032 1.769 2.109 2.139 2.229 2.419 2.519 2.649 3.009 3.299 3.439
1186.322 3.829 4.289 4.629 5.299 6.049 6.139 6.229 6.309 6.069 5.689
1205.611 4.969 4.119 3.659 3.649 3.749 3.829 4.159 4.909 5.089 4.789
1224.901 4.529 4.179 3.769 3.049 2.249 1.609 1.1668 1.1245 1.1235 1.0747
1244.191 1.349 1.299 1.2532 1.359 1.449 1.549 1.619 1.369 1.0649 1.1999
1263.481 1.2637 1.1925 1.2489 1.339 1.2623 1.319 1.449 1.499 1.569 1.709
1282.771 1.689 1.719 1.829 1.829 1.949 2.049 2.109 2.299 2.449 2.559
1302.060 2.749 2.939 3.199 3.509 3.829 4.069 4.319 4.689 5.079 5.359
1321.350 5.439 5.469 5.349 4.949 4.519 4.069 3.589 3.149 2.799 2.529
1340.640 2.379 2.349 2.289 2.209 2.199 2.189 2.139 2.129 2.169 2.179
1359.930 2.179 2.249 2.299 2.399 2.599 2.829 3.069 3.329 3.729 4.209
1379.219 4.689 5.199 5.749 6.339 6.829 7.349 7.879 8.249 8.559 8.839
1398.509 8.959 9.009 9.019 8.939 8.789 8.409 7.929 7.539 7.119 6.759
1417.799 6.459 6.159 5.939 5.829 5.829 5.839 5.829 5.919 6.059 6.219
1437.089 6.489 6.719 6.959 7.219 7.399 7.679 7.919 8.149 8.419 8.659
1456.378 9.069 9.549 10.049 10.769 11.669 12.769 14.239 16.229 19.049 22.989
1475.668 28.289 35.279 43.409 51.239 56.719 58.409 56.529 52.289 45.589 35.969
1494.958 25.309 16.709 11.329 8.279 6.519 5.429 4.719 4.109 3.629 3.349
1514.248 3.109 2.849 2.559 2.349 2.199 2.009 1.849 1.729 1.689 1.559
1533.538 1.409 1.339 1.349 1.359 1.309 1.349 1.379 1.389 1.359 1.309
1552.827 1.349 1.439 1.489 1.459 1.469 1.529 1.549 1.599 1.659 1.619
1572.117 1.609 1.689 1.839 1.959 2.149 2.369 2.579 2.819 3.039 3.199
1591.407 3.239 3.109 2.889 2.619 2.319 2.049 1.779 1.579 1.519 1.449
1610.697 1.459 1.579 1.599 1.669 1.749 1.859 1.969 2.079 2.239 2.329
1629.986 2.379 2.489 2.629 2.679 2.619 2.649 2.709 2.699 2.669 2.609
1649.276 2.439 2.269 2.059 1.819 1.699 1.559 1.379 1.2988 1.2181 1.145
1668.566 1.1095 1.0421 1.0021 0.9851 0.9073 0.861 0.8774 0.8097 0.7368 0.6894
1687.856 0.6112 0.6146 0.6739 0.6634 0.6042 0.5774 0.6316 0.6767 0.6748 0.6323
1707.146 0.5719 0.572 0.6449 0.6331 0.6379 0.6865 0.6402 0.6151 0.5762 0.5642
1726.435 0.5932 0.6419 0.6595 0.6243 0.6719 0.7589 0.8229 0.9374 1.0325 1.04
1745.725 1.0429 1.0835 1.1287 1.1159 1.087 1.1058 1.1164 1.1235 1.2038 1.299
1765.015 1.459 1.669 1.859 2.099 2.329 2.489 2.489 2.359 2.139 1.799
1784.305 1.439 1.122 0.8318 0.7048 0.5985 0.488 0.4869 0.4691 0.4409 0.4356
1803.594 0.4823 0.4728 0.4225 0.4169 0.4473 0.4777 0.4926 0.4975 0.4756 0.4827
1822.884 0.5029 0.4986 0.4638 0.4147 0.4174 0.4894 0.5239 0.5105 0.4589 0.4613
1842.174 0.5376 0.5445 0.5671 0.5489 0.5465 0.6209 0.6451 0.6725 0.7694 0.9298
1861.464 1.0084 1.0958 1.2123 1.2754 1.419 1.649 1.879 2.079 2.269 2.429
1880.754 2.609 2.789 2.919 3.069 3.119 3.079 3.069 2.959 2.859 2.729
1900.043 2.489 2.239 1.979 1.729 1.509 1.309 1.1693 1.0638 0.9265 0.7483
1919.333 0.6415 0.6231 0.6004 0.5828 0.6061 0.5652 0.5165 0.5249 0.4858 0.5232
1938.623 0.5639 0.5047 0.4838 0.4941 0.4939 0.4658 0.4367 0.4189 0.4137 0.4764
1957.913 0.4903 0.4333 0.4384 0.4471 0.4299 0.4008 0.3889 0.38884 0.3852 0.4063
1977.202 0.4355 0.412 0.37916 0.37332 0.38358 0.39762 0.33597 0.3161 0.39866 0.4106
1996.492 0.35065 0.36007 0.38676 0.4053 0.4248 0.4021 0.4405 0.4865 0.5238 0.5173
2015.782 0.4626 0.4795 0.4964 0.4869 0.5089 0.5136 0.4625 0.4907 0.5068 0.479
2035.072 0.5044 0.497 0.4422 0.38929 0.4118 0.464 0.4609 0.4443 0.4635 0.5011
2054.362 0.4632 0.4611 0.539 0.5388 0.5533 0.5822 0.5586 0.5473 0.5091 0.5561
2073.651 0.6335 0.5876 0.5474 0.5097 0.4579 0.439 0.4692 0.4541 0.4187 0.4332
2092.941 0.414 0.4458 0.4801 0.4707 0.4932 0.4691 0.4473 0.4138 0.4128 0.4945
2112.231 0.4945 0.4628 0.453 0.4961 0.5648 0.5258 0.5508 0.5442 0.4638 0.4655
2131.521 0.4676 0.4536 0.39516 0.38595 0.299015 0.2809 0.39883 0.35753 0.35423 0.4198
2150.810 0.4125 0.4026 0.4121 0.4279 0.37825 0.33085 0.33919 0.31281 0.3348 0.39072
2170.100 0.37847 0.39624 0.34694 0.2852 0.3404 0.3349 0.35323 0.39658 0.4324 0.4628
2189.390 0.3998 0.35804 0.39284 0.39566 0.4299 0.4536 0.39807 0.4353 0.459 0.4296
2208.680 0.38926 0.37445 0.4669 0.4648 0.36548 0.37259 0.39815 0.456 0.5128 0.4859
2227.970 0.4328 0.4319 0.5067 0.5914 0.6026 0.5613 0.5765 0.607 0.6415 0.5997
2247.259 0.5033 0.4287 0.4312 0.4833 0.4977 0.4955 0.5095 0.5501 0.5016 0.4796
2266.549 0.5248 0.504 0.4912 0.4598 0.4611 0.4936 0.4673 0.5151 0.607 0.6378
2285.839 0.6735 0.6409 0.6371 0.7171 0.7068 0.7278 0.7564 0.7435 0.7089 0.6871
2305.129 0.7172 0.7033 0.6451 0.6394 0.6429 0.5902 0.5532 0.5688 0.6073 0.5694
2324.418 0.4845 0.4496 0.4622 0.5104 0.5538 0.5829 0.5914 0.5971 0.5973 0.5494
2343.708 0.5269 0.5271 0.5695 0.5849 0.5624 0.5391 0.5742 0.6393 0.6298 0.625
2362.998 0.6088 0.6103 0.6034 0.5531 0.4982 0.4706 0.4727 0.4774 0.5259 0.5489
2382.288 0.5395 0.5748 0.596 0.551 0.4509 0.4465 0.4826 0.519 0.4825 0.4361
2401.578 0.4426 0.4379 0.4735 0.453 0.5119 0.5764 0.476 0.4097 0.5379 0.5973
2420.867 0.5884 0.6477 0.6372 0.6359 0.6423 0.6183 0.6379 0.6422 0.5866 0.5815
2440.157 0.5444 0.4686 0.473 0.4812 0.4008 0.37154 0.4232 0.4306 0.469 0.4831
2459.447 0.39581 0.36232 0.36105 0.3815 0.36448 0.31127 0.35779 0.4032 0.4281 0.4516
2478.737 0.38151 0.36205 0.4468 0.4546 0.4923 0.4726 0.39802 0.4015 0.4424 0.4534
2498.026 0.4539 0.479 0.4909 0.5398 0.589 0.5061 0.4822 0.5061 0.5121 0.5657
2517.316 0.5767 0.5895 0.5711 0.5564 0.5894 0.6062 0.6207 0.65 0.6985 0.6808
2536.606 0.66 0.6901 0.6593 0.6879 0.6852 0.6614 0.7312 0.7829 0.7529 0.7169
2555.896 0.5825 0.5044 0.6168 0.642 0.6653 0.6547 0.5592 0.5392 0.6109 0.6627
2575.186 0.6875 0.6487 0.5921 0.6362 0.7106 0.7516 0.7769 0.8437 0.892 0.8733
2594.475 0.8852 0.9459 0.891 0.7702 0.7632 0.6915 0.5956 0.6498 0.6405 0.6025
2613.765 0.5379 0.4992 0.487 0.484 0.5386 0.565 0.6077 0.6305 0.6623 0.72
2633.055 0.6842 0.7413 0.8882 0.8025 0.7359 0.7478 0.7764 0.727 0.6417 0.6826
2652.345 0.6994 0.658 0.6223 0.6225 0.5718 0.471 0.48 0.5776 0.5767 0.5413
2671.634 0.5616 0.5631 0.5142 0.4849 0.4495 0.4481 0.5399 0.6141 0.5129 0.37524
2690.924 0.4122 0.4561 0.4809 0.5913 0.5479 0.5093 0.5748 0.5293 0.5407 0.5352
2710.214 0.5839 0.6853 0.6494 0.6195 0.6259 0.5963 0.5829 0.6886 0.6948 0.6173
2729.504 0.6828 0.7529 0.8163 0.882 0.9204 0.984 0.9725 0.9316 0.903 0.89
2748.794 0.9309 0.9232 0.831 0.8483 0.9979 1.0508 1.0944 1.1906 1.2086 1.309
2768.083 1.389 1.379 1.429 1.379 1.309 1.379 1.429 1.479 1.489 1.349
2787.373 1.399 1.529 1.519 1.569 1.619 1.609 1.629 1.669 1.689 1.689
2806.663 1.699 1.759 1.809 1.849 2.049 2.219 2.129 2.109 2.289 2.429
2825.953 2.469 2.399 2.529 2.809 2.989 3.119 3.339 3.639 3.909 4.109
2845.242 4.429 4.719 4.969 5.349 5.839 6.369 6.909 7.589 8.399 9.329
2864.532 10.259 11.199 12.119 12.949 13.679 14.309 14.889 15.369 15.879 16.609
2883.822 17.299 17.829 18.169 18.139 17.929 17.469 16.909 16.419 16.039 15.809
2903.112 15.749 15.859 16.029 16.239 16.229 16.129 16.149 16.119 16.099 16.289
2922.401 16.719 17.369 18.179 19.179 20.379 21.739 23.379 25.139 27.159 29.279
2941.691 31.049 32.259 32.719 32.539 31.799 30.609 29.149 27.699 26.909 27.039
2960.981 28.029 29.919 32.919 37.589 44.459 52.649 58.779 60.529 59.719 58.219
2980.271 53.979 45.609 36.079 28.569 23.659 20.279 17.779 15.989 14.479 13.199
2999.561 12.249 11.469 10.789 10.329 9.949 9.819 10.069 10.449 11.039 11.869
3018.850 12.779 13.659 14.399 14.969 15.159 14.919 14.489 13.799 12.999 12.189
3038.140 11.579 11.179 10.739 10.289 9.979 9.699 9.429 9.299 9.209 9.259
3057.430 9.349 9.399 9.399 9.299 9.209 9.159 9.119 9.079 9.069 9.039
3076.720 9.059 9.249 9.349 9.259 9.099 8.809 8.349 7.709 7.019 6.259
3096.009 5.639 4.859 4.069 3.659 3.239 2.729 2.379 2.269 2.009 1.799
3115.299 1.709 1.629 1.599 1.509 1.439 1.409 1.389 1.449 1.389 1.329
3134.589 1.459 1.399 1.379 1.539 1.379 1.2092 1.2556 1.2165 1.1671 1.1712
3153.879 1.292 1.1984 1.0407 0.9776 0.9044 0.9855 0.9791 0.971 0.9874 1.0832
3173.169 1.0878 1.0463 1.0347 0.9367 0.8467 0.8531 0.9972 1.0025 0.9582 0.9942
3192.458 0.8585 0.7915 0.8351 0.7483 0.6813 0.7318 0.8507 0.9177 0.7218 0.5505
3211.748 0.6491 0.6562 0.6668 0.5999 0.5883 0.6261 0.5103 0.471 0.4774 0.5237
3231.038 0.6332 0.5363 0.4832 0.5108 0.4302 0.4709 0.4324 0.37563 0.36633 0.32919
3250.328 0.4096 0.4408 0.4017 0.4473 0.36775 0.35755 0.37925 0.2498 0.2209 0.192
3269.617 0.2076 0.32225 0.4567 0.6033 0.5197 0.4569 0.35963 0.35322 0.4206 0.302629
3288.907 0.32487 0.37059 0.4389 0.4449 0.4371 0.3803 0.300572 0.29376 0.306398 0.31062
3308.197 0.30249 0.37823 0.2707 0.182 0.136 0.149 0.31135 0.34515 0.32715 0.223
3327.487 0.2822 0.4512 0.37509 0.4105 0.4254 0.37581 0.4155 0.34983 0.28962 0.299845
3346.777 0.39423 0.38516 0.28917 0.2848 0.34061 0.37801 0.2918 0.2266 0.2398 0.194
3366.066 0.161 0.2036 0.299819 0.35844 0.4001 0.3401 0.38133 0.30792 0.137 0.2679
3385.356 0.2048 0.2296 0.306564 0.266 0.29727 0.2078 0.2163 0.31768 0.2155 0.141
3404.646 0.2528 0.4087 0.32865 0.2089 0.2444 0.175 0.173 0.193 0.2531 0.2584
3423.936 0.111 0.118 0.302013 0.4197 0.4011 0.298575 0.2243 0.183 0.128 0.1991
3443.225 0.177 0.2115 0.4163 0.4744 0.4035 0.31377 0.2722 0.299911 0.4372 0.39526
3462.515 0.174 0.095 0.156 0.2346 0.2851 0.2741 0.2731 0.36947 0.35982 0.2321
3481.805 0.043 0.041 0.095 0.037 0 0.054 0.4109 0.6352 0.5622 0.38541
3501.095 0.173 0.2239 0.304922 0.2197 0.216 0.35125 0.4699 0.2783 0.116 0.2672
3520.385 0.2837 0.2122 0.263 0.2311 0.183 0.2357 0.2137 0.2431 0.303043 0.2214
3539.674 0.301786 0.31987 0.31135 0.3587 0.302781 0.2284 0.071 0.171 0.31732 0.3485
3558.964 0.2811 0.2188 0.4615 0.5035 0.39112 0.32896 0.16 0.142 0.34281 0.46
3578.254 0.3478 0.2384 0.32812 0.34031 0.17 0.145 0.2389 0.31675 0.4216 0.4437
3597.544 0.33583 0.37061 0.408 0.4195 0.33006 0.117 0.2621 0.38703 0.31329 0.36038
3616.833 0.33074 0.35228 0.4591 0.3999 0.2601 0.2056 0.299369 0.33576 0.36969 0.4158
3636.123 0.36494 0.32644 0.2653 0.2755 0.4355 0.33416 0.302748 0.4793 0.4492 0.4269
3655.413 0.4394 0.4395 0.502 0.5877 0.6688 0.658 0.5254 0.35223 0.3659 0.5235
3674.703 0.5882 0.4985 0.4821 0.5397 0.5117 0.4515 0.4247 0.39488 0.37596 0.4008
3693.993 0.4032 0.4207 0.37229 0.34545 0.4142 0.4081 0.4255 0.6002 0.726 0.7512
3713.282 0.5848 0.35636 0.409 0.5471 0.6372 0.6349 0.5285 0.4753 0.38105 0.275
3732.572 0.4285 0.6135 0.4444 0.2777 0.3284 0.29327 0.187 0.2722 0.4106 0.37548
3751.862 0.304335 0.37574 0.4647 0.4167 0.38081 0.3482 0.4154 0.4471 0.307812 0.2886
3771.152 0.29777 0.2876 0.303268 0.38838 0.4217 0.4027 0.35975 0.2745 0.32828 0.39101
3790.441 0.32723 0.32688 0.36052 0.4095 0.5058 0.4762 0.4314 0.4615 0.4646 0.38838
3809.731 0.33964 0.31027 0.29284 0.2863 0.32396 0.4849 0.4695 0.36949 0.4005 0.5038
3829.021 0.4732 0.2173 0.4227 0.638 0.3387 0.2401 0.182 0.2232 0.36591 0.38583
3848.311 0.4956 0.5175 0.5251 0.4944 0.4127 0.4549 0.5232 0.5244 0.5445 0.602
3867.601 0.5911 0.5937 0.5231 0.39326 0.33609 0.307926 0.5288 0.6767 0.38585 0.302337
3886.890 0.4876 0.541 0.4473 0.34142 0.37283 0.5087 0.5385 0.36566 0.36176 0.4126
3906.180 0.33185 0.36699 0.39599 0.37285 0.33669 0.33664 0.2888 0.31734 0.433 0.37518
3925.470 0.3711 0.4343 0.4893 0.5347 0.4548 0.38348 0.4429 0.4757 0.5455 0.5673
3944.760 0.4209 0.4885 0.55 0.4459 0.34832 0.29226 0.437 0.5851 0.5341 0.4972
3964.049 0.5519 0.491 0.5051 0.4378 0.4355 0.5301 0.4414 0.28964 0.37069 0.6023
3983.339 0.5979 0.5556 0.5528 0.5797 0.5619 0.4806 0.5822 0.6541 0.6045 0.613
##END=
