##TITLE=Ethyl 2-nitropropionate
##JCAMP-DX=4.24
##DATA TYPE=INFRARED SPECTRUM
##ORIGIN=EPA-IR VAPOR PHASE LIBRARY
##OWNER=SRD/NIST
Collection (C) 2018 copyright by the U.S. Secretary of Commerce
on behalf of the United States of America. All rights reserved.
##CAS REGISTRY NO=2531-80-8
##MOLFORM=C 5 H 9 N O 4
##$NIST SOURCE=MSDC-IR
##STATE=gas
##XUNITS=1/CM
##YUNITS=ABSORBANCE
##XFACTOR=1.
##YFACTOR=0.001
##DELTAX=1.92898
##FIRSTX=549.8
##LASTX=4000.7
##FIRSTY=1.4578
##MAXX=4000.7
##MINX=549.759
##MAXY=0.06819
##MINY=0
##NPOINTS=1790
##XYDATA=(X++(Y..Y))
549.759 1.4578 0.605 0.12 0.698 2.13 2.22 1.09708 0.742 1.0234 1.5091
569.049 2.26 2.72 2.21 1.5905 1.7379 2.51 2.99 2.91 2.41 2.17
588.339 2.21 2.44 2.47 2.1 2.07 1.6891 1.3827 1.6688 1.3419 1.3254
607.628 1.6507 1.0278 0.9745 0.978 1.11961 1.6099 1.549 1.5345 1.7421 1.7349
626.918 1.3122 1.4052 2.1 2.36 2.0151 1.6914 1.6856 1.4267 1.2599 1.6691
646.208 2.23 2.47 1.9847 1.5196 1.3419 1.5667 2.26 2.43 2.4 2.56
665.498 2.89 3.08 3.08 3.31 2.92 3.1 3.57 3.38 3.45 3.62
684.787 3.76 3.73 3.89 4.2 3.96 3.38 3.26 3.38 3.14 3.12
704.077 3.16 3.45 3.61 3.02 2.73 2.65 2.93 3.12 2.91 2.44
723.367 1.9914 2.013 1.9415 1.7196 1.2675 1.0391 1.2389 1.3673 1.5655 1.5076
742.657 1.3101 0.9793 0.814 1.4157 1.7846 1.8203 2.0021 2.41 2 1.2352
761.947 1.2418 1.3936 1.6751 1.9118 2.0051 2.29 2.63 2.3 1.9293 1.9374
781.236 2.048 1.979 1.4021 1.4433 1.6155 1.7924 1.9655 1.5994 1.7094 1.4791
800.526 0.939 0.939 1.7772 2.26 1.9892 1.7878 2.0107 2.34 3.16 3.56
819.816 3.19 3.02 2.49 2.61 2.57 2.3 2.46 2.76 3.3 3.66
839.106 3.35 3.37 3.97 4.39 4.99 6.11 7.02 7.71 8.84 9.85
858.395 9.96 10.45 11.2 11.27 11.28 11.14 10.66 9.9 9.05 7.9
877.685 6.96 6 4.89 4.25 3.89 3.3 3.13 3.3 3.32 3.53
896.975 3.51 3.41 3.1 3.22 3.36 2.98 2.94 2.85 2.46 2.0377
916.265 1.8248 1.8085 1.9561 2.0071 1.7923 1.8099 1.7194 1.5042 1.2895 1.0446
935.555 0.9972 1.2653 1.5816 1.2982 0.803 0.939 1.5238 1.7715 1.6023 1.3751
954.844 1.6452 1.5773 1.13596 1.7131 1.9313 1.8303 1.6882 1.3472 2.13 2.56
974.134 1.8769 1.4335 1.8578 2.7 2.87 2.87 2.87 3.08 3.35 3.67
993.424 4.12 3.87 4.55 4.9 4.68 5.42 5.92 5.72 6.44 7.63
1012.714 8.28 9.24 9.69 10.45 11 11.83 13.17 12.97 13.66 14.92
1032.003 15.75 16.14 15.51 15.1 14.79 14.82 14.79 14.33 13.83 12.91
1051.293 12.19 11.39 10.97 10.56 10.54 10.27 10.01 11.34 12.74 13.55
1070.583 13.53 14.65 15.72 15.18 16.31 17.95 18.63 18.76 17.76 17.87
1089.873 18.97 18.36 17.6 16.06 15.18 16.32 17.13 16.12 15.26 15.34
1109.163 16.56 18.21 17.12 17.15 17.9 17.3 16.41 16.03 15.43 14.17
1128.452 12.67 11.4 10.27 9.94 10.72 10.3 9.98 9.63 9.05 8.19
1147.742 8.51 9.71 10.66 12.11 13.2 14.66 16.34 17.33 18.13 20.49
1167.032 22.77 24.08 26.12 28.35 30.72 33.35 34.75 36.61 38.75 39.63
1186.322 40.01 40.24 40.52 42.48 44.36 43.26 41.26 40.8 39.41 36.79
1205.611 36.88 38.46 37.15 34.57 32.51 30.46 28.87 28.2 27.8 26.66
1224.901 26.2 24.83 24.09 23.44 22.59 22.7 22.25 22.47 23.66 24.83
1244.191 26.14 26.81 27.14 28.01 28.51 29.38 29.58 28.72 28.71 29.38
1263.481 29.19 29 27.46 25.35 24.15 22.81 21.46 20.05 19.31 18.38
1282.771 16.94 15.98 15.52 15.16 14.93 14.74 14.32 14.67 15.07 15.06
1302.060 15.71 16.27 16.98 17.79 18.55 19.27 19.79 20.27 20.53 20.88
1321.350 20.99 20.72 20.19 19.68 19.3 18.7 18.17 17.75 17.29 16.98
1340.640 16.92 17.11 17.39 17.54 17.61 17.84 17.94 18.05 18.28 18.46
1359.930 18.38 18.09 17.8 17.43 16.88 16.4 16.22 16.07 16.13 16.48
1379.219 16.85 17.15 17.45 17.79 17.9 17.79 17.72 17.64 17.42 16.75
1398.509 15.65 14.24 12.89 11.48 10.13 9.31 8.4 7.59 6.98 6.25
1417.799 5.88 5.87 5.76 5.39 5.32 5.56 5.8 5.88 6.12 6.45
1437.089 6.79 7.27 7.89 8.46 9.03 9.79 10.44 11.02 11.24 11.37
1456.378 11.58 11.54 11.25 10.88 10.49 10.09 9.61 8.99 8.62 8.16
1475.668 7.58 7.04 6.63 6.16 5.43 5.25 5.3 4.92 4.52 4.29
1494.958 4.12 4.2 4.16 3.9 3.92 4.08 4.32 4.65 4.67 4.9
1514.248 5.3 5.51 5.93 6.33 6.6 7.18 7.97 8.55 9.01 9.69
1533.538 10.65 11.44 12.35 13.42 14.6 15.95 17.48 19.29 21.66 24.58
1552.827 27.67 31.02 34.61 38.87 43.5 47.8 52.05 56.33 60.26 63.72
1572.117 66.4 67.86 68.19 67.14 64.6 61.26 57.37 52.7 47.85 42.92
1591.407 38.06 33.32 28.8 25.22 22.04 19.19 16.9 14.78 13.21 11.66
1610.697 10.11 9.15 8.31 7.84 7.47 6.79 6.12 5.49 5.11 4.86
1629.986 4.51 4.29 4.07 3.63 3.49 3.4 3.16 3.08 3.15 2.92
1649.276 2.39 2.15 2.26 2.27 2.34 2.41 2.34 2.31 2.44 2.26
1668.566 2.11 2.26 2.12 1.897 1.9894 2.2 2.25 2.27 2.36 2.25
1687.856 2.11 2.39 2.58 2.58 2.69 2.6 2.48 2.39 2.47 2.79
1707.146 3 3.24 3.52 3.79 4.13 4.58 4.8 4.9 5.34 5.85
1726.435 6.46 7.12 7.72 8.64 9.71 10.79 12.35 14.3 16.37 19.05
1745.725 22.42 26.12 30.22 35.05 40.05 45.16 50.12 54.4 58.08 60.86
1765.015 62.7 63.44 63.36 62.52 60.08 56.11 50.91 45.43 39.85 34.34
1784.305 29.47 24.98 21.08 17.9 15.12 12.77 11.08 9.77 8.5 7.48
1803.594 6.8 6.17 5.59 5.05 4.57 4.36 4.11 3.73 3.61 3.42
1822.884 3.11 2.9 3.02 2.94 2.64 2.48 2.41 2.24 2.1 2.13
1842.174 2.13 2.12 1.8871 1.735 1.803 1.7757 1.7107 1.6681 1.6556 1.7097
1861.464 1.5485 1.419 1.6079 1.5959 1.6179 1.7145 1.6917 1.6078 1.3953 1.4145
1880.754 1.4852 1.5844 1.7282 1.6945 1.5139 1.322 1.4009 1.5139 1.4631 1.2762
1900.043 1.3136 1.4294 1.4846 1.3814 1.1731 1.2694 1.4702 1.5524 1.4491 1.3037
1919.333 1.5062 1.6938 1.6141 1.4382 1.216 1.14782 1.1769 1.15347 1.2957 1.3665
1938.623 1.2628 1.2851 1.277 1.2733 1.2842 1.3296 1.14307 0.9905 1.12165 1.07897
1957.913 1.0384 1.05154 1.0053 1.07244 1.0073 0.919 1.10213 1.21 1.15491 1.06188
1977.202 1.09619 1.14388 1.07667 1.07007 1.08832 1.1658 1.2263 1.2738 1.1793 1.008
1996.492 1.05812 1.2037 1.2291 1.1931 1.06468 0.938 1.0164 1.1938 1.15593 0.9769
2015.782 1.0291 1.09028 1.0341 0.948 0.9907 1.12089 1.07488 1.0006 1.05095 1.0073
2035.072 1.11546 1.2533 1.2626 1.14562 0.9766 1.05134 1.1918 1.2005 1.0147 1.10541
2054.362 1.2497 1.2608 1.2446 1.1697 1.2151 1.11622 1.0843 1.2886 1.4773 1.3323
2073.651 1.175 1.3333 1.2012 0.9974 0.955 0.9691 1.1849 1.12725 1.09288 1.1797
2092.941 1.2337 1.4256 1.3508 1.1915 1.2414 1.1627 0.959 1.08216 1.3065 1.2441
2112.231 1.12372 1.11125 1.2225 1.2806 1.167 1.12112 1.2736 1.258 1.1845 1.1002
2131.521 1.0132 1.0033 0.925 0.912 0.956 1.05645 1.09486 1.13094 1.0463 0.953
2150.810 1.0255 0.947 0.779 0.737 0.86 0.917 0.867 1.1703 1.2162 0.953
2170.100 0.926 1.0418 1.0456 0.959 1.09934 1.0469 0.9817 1.10618 1.0467 1.0332
2189.390 1.10182 1.08617 0.949 0.788 0.849 1.0367 1.0412 0.985 0.937 0.798
2208.680 1.0269 1.2497 1.2106 1.15066 1.10246 0.96 0.951 1.08185 0.9899 1.0368
2227.970 1.2018 1.1942 1.14087 1.2272 1.2725 1.13189 1.08288 1.2232 1.09034 1.06697
2247.259 1.2358 1.14078 1.0236 0.9844 1.15035 1.4365 1.2898 1.14021 1.1771 1.05241
2266.549 1.0632 0.923 1.0128 1.4193 1.5853 1.5724 1.4148 1.2627 1.1685 1.1817
2285.839 1.2594 1.1956 1.2011 1.1657 1.2508 1.2796 1.1691 1.05496 1.07218 1.3686
2305.129 1.3844 1.2865 1.322 1.2215 1.13087 1.2976 1.2945 1.2653 1.2743 1.3408
2324.418 1.3827 1.4222 1.5871 1.4051 1.3934 1.5186 1.351 1.3082 1.1696 1.13909
2343.708 1.247 1.2259 1.1833 1.192 1.2568 1.2858 1.302 1.422 1.6019 1.5132
2362.998 1.4461 1.6633 1.7273 1.458 1.2051 1.2079 1.4805 1.4564 1.14632 1.05012
2382.288 1.08958 1.22 1.1869 1.2633 1.53 1.4193 1.3136 1.269 1.1942 1.3009
2401.578 1.319 1.3407 1.2166 1.0152 0.9729 0.935 1.0182 1.2197 1.2866 1.0359
2420.867 0.925 1.2713 1.5612 1.6723 1.61 1.3145 1.2369 1.3656 1.4501 1.4628
2440.157 1.3629 1.09547 1.1772 1.3807 1.4122 1.4816 1.11355 0.922 1.06769 1.0368
2459.447 1.203 1.403 1.2264 1.1744 1.14604 1.192 1.2791 1.1966 1.09899 1.0178
2478.737 1.15182 1.1915 1.05113 1.0142 1.11216 1.15288 1.09343 0.926 0.949 1.05825
2498.026 1.12264 1.2405 1.313 1.2479 1.0496 1.09217 1.244 1.1964 1.2948 1.3904
2517.316 1.3089 1.2477 1.2173 1.09459 1.06945 1.1643 1.13867 1.2639 1.1929 0.9715
2536.606 1.07977 1.15142 0.9964 1.09891 1.2119 1.1836 1.306 1.3067 1.12112 0.9885
2555.896 1.2163 1.2125 0.892 0.775 0.937 1.1713 1.3015 1.14312 0.864 0.9739
2575.186 0.9816 0.72 0.657 0.928 0.9772 0.9959 1.2194 1.2249 0.929 0.824
2594.475 1.1978 1.3399 1.09567 1.10347 1.2872 1.3808 1.06045 1.0108 1.3112 1.2702
2613.765 1.13185 1.07801 1.08486 0.886 0.9717 1.3528 1.585 1.5505 1.3525 1.2942
2633.055 1.3215 1.2446 1.2766 1.5909 1.5334 1.2233 1.2015 1.2463 1.4262 1.586
2652.345 1.5926 1.4134 1.3743 1.6168 1.5928 1.2389 1.2751 1.3465 1.10968 1.0385
2671.634 1.0314 1.12357 1.251 1.2381 1.3383 1.4932 1.361 1.10863 1.0151 1.07109
2690.924 1.14556 1.4382 1.6812 1.3065 1.10708 1.277 1.216 1.1796 1.14984 1.2791
2710.214 1.5589 1.5797 1.3902 1.3461 1.3478 1.505 1.548 1.5241 1.4891 1.2668
2729.504 1.2489 1.1725 0.9642 0.9 1.07991 1.2815 1.2928 1.3381 1.4411 1.2479
2748.794 1.3031 1.4215 1.265 0.9724 0.856 1.07376 1.2059 1.4184 1.3536 1.1612
2768.083 1.1876 1.3665 1.7284 1.8772 1.7771 1.6022 1.4585 1.3656 1.3435 1.3647
2787.373 1.6392 1.5537 1.2423 1.6022 2.0181 1.9693 1.5598 1.5771 1.6351 1.5544
2806.663 1.8546 1.9267 1.7224 1.4745 1.2831 1.4815 1.5975 1.4868 1.5068 1.5113
2825.953 1.4712 1.5707 1.5375 1.5511 1.7115 1.6016 1.7957 1.9123 1.8194 1.8003
2845.242 1.3981 1.5683 1.8747 1.8574 1.9949 2.11 2.12 1.9137 1.9044 2.28
2864.532 2.67 2.77 3.03 3.12 3.13 3.3 3.47 3.56 3.75 3.79
2883.822 3.48 3.96 4.28 4.33 4.68 4.73 4.7 4.66 4.47 4.54
2903.112 4.8 4.94 5.07 5.07 5.26 5.46 5.33 5.36 5.54 5.74
2922.401 5.88 5.61 5.37 5.72 6.1 6.21 6.77 7.46 7.91 7.96
2941.691 8.15 8.66 8.97 9.16 9.11 9.31 9.37 9.06 8.74 8.4
2960.981 8.15 8.27 8.2 7.74 7.96 8.42 8.66 9.17 10.16 11.55
2980.271 12.44 12.99 13.75 13.99 14.3 14.71 15.16 15.27 14.81 14.27
2999.561 13.55 12.91 12.09 11.91 11.81 11.26 10.48 9.45 8.84 8.08
3018.850 7.35 6.7 5.63 4.84 4.54 4.36 3.9 3.48 3.15 3.09
3038.140 3.02 2.39 2.0291 2.38 2.71 2.2 1.8939 1.8799 1.6673 1.426
3057.430 1.6286 1.9617 2.0265 2.08 2.1 1.9077 1.6386 1.7963 1.9175 1.9037
3076.720 1.8369 1.3336 1.4441 1.8185 1.666 1.7735 1.7156 1.5253 1.5073 1.4766
3096.009 1.417 1.8263 1.9442 1.6903 1.6362 1.6237 1.7016 1.5542 1.3093 1.09331
3115.299 1.10388 1.1617 1.08648 1.0331 1.13764 1.2572 1.6369 1.6378 1.5453 1.5276
3134.589 1.4547 1.3047 1.1986 1.2194 1.3964 1.75 1.3535 0.889 0.9712 1.2004
3153.879 1.2075 1.2599 1.09197 0.846 0.827 0.863 0.942 0.9706 0.762 0.497
3173.169 0.933 1.2237 0.932 1.0357 1.1621 0.863 0.63 0.728 0.921 0.9668
3192.458 1.11584 1.3391 1.4423 1.1177 1.2922 1.2473 0.86 1.1203 0.9755 0.89
3211.748 0.721 0.538 0.879 0.947 0.596 0.705 0.825 0.407 0.629 0.746
3231.038 0.52 0.899 0.883 0.778 0.874 0.828 0.955 0.855 1.0445 1.1746
3250.328 0.79 0.769 0.877 0.9836 1.12234 0.997 1.09567 1.3328 1.3635 1.2877
3269.617 1.1602 1.07884 1.3173 1.5748 1.09465 1.2195 1.2906 0.418 0.427 1.2217
3288.907 1.234 0.722 1.0105 1.09165 0.719 0.366 0.04 0.269 0.371 0.646
3308.197 1.07074 1.15477 0.9993 1.13414 0.9882 0.389 0.111 0 0.364 0.621
3327.487 0.633 0.642 0.51 0.725 1.1218 0.84 0.596 0.835 0.814 0.826
3346.777 0.815 0.877 0.9797 0.849 0.653 0.772 0.905 1.0467 0.9884 0.614
3366.066 0.324 0.342 0.855 0.767 0.696 0.923 1.08215 1.06133 0.661 0.808
3385.356 0.9977 0.9698 1.05499 0.583 0.289 0.512 0.584 0.487 0.638 0.9625
3404.646 1.2021 1.2561 0.983 0.927 1.13583 1.2331 1.1189 1.14201 0.764 0.753
3423.936 1.2944 1.2706 1.06261 0.58 0.53 1.1083 1.3331 1.11091 1.07672 1.3148
3443.225 1.1249 0.885 0.6 0.248 0.32 0.464 0.841 1.2138 1.4933 1.4735
3462.515 1.0432 1.05221 1.24 1.05372 0.39 0.194 0.66 0.495 0.211 0.577
3481.805 0.959 0.9758 1.2429 1.07706 1.2165 1.4552 1.427 1.886 1.7249 1.6046
3501.095 1.5552 1.6599 1.9784 1.6018 1.2464 1.15805 1.3717 1.597 1.5143 1.8095
3520.385 1.6527 1.3884 1.5876 1.9934 2.2 1.4446 1.1871 1.3287 1.07036 0.9831
3539.674 1.14735 1.2004 0.9944 0.693 0.63 0.865 1.0055 1.12569 1.2336 0.809
3558.964 0.421 0.437 0.466 0.39 0.412 0.636 0.645 0.623 0.922 1.0004
3578.254 0.729 1.0131 1.0152 0.582 0.837 0.9 0.655 0.752 0.809 0.942
3597.544 0.834 0.871 1.1961 0.845 0.601 0.809 0.561 0.606 1.0019 0.902
3616.833 0.572 0.546 0.896 1.3265 1.4027 1.07441 0.778 0.634 0.776 1.0673
3636.123 1.08101 1.3215 1.4137 1.11336 0.831 0.571 0.723 1.06175 0.943 0.685
3655.413 0.709 0.692 0.715 0.787 0.759 0.467 0.199 0.653 0.843 0.9839
3674.703 1.3166 1.0433 1.1778 1.0297 0.801 0.707 0.557 0.695 0.92 0.897
3693.993 0.789 1.10133 1.12717 1.3302 1.474 1.023 0.938 1.13455 1.0321 0.86
3713.282 0.809 0.673 0.823 1.2501 1.09986 0.641 0.693 1.2301 1.2585 1.1923
3732.572 1.14756 0.728 0.878 1.2319 1.3157 1.3043 1.3832 1.3392 0.933 0.442
3751.862 0.817 0.9649 0.661 0.949 0.865 0.846 1.1817 1.2713 0.633 0.676
3771.152 1.0364 0.694 0.885 0.914 0.854 0.805 0.659 0.746 1.1631 1.3988
3790.441 1.05023 0.653 0.808 0.904 0.9657 1.304 1.207 1.2618 1.2283 0.859
3809.731 0.724 0.916 1.07248 0.961 0.777 0.831 0.501 0.857 1.4662 0.755
3829.021 0.786 1.3083 0.89 0.857 0.805 0.616 0.55 0.607 1.3903 1.6029
3848.311 1.4288 1.7487 1.8358 1.6517 1.2934 0.903 1.2842 1.7501 1.15055 0.626
3867.601 0.827 0.9687 0.941 0.84 0.72 0.485 0.15 0.175 0.829 1.3202
3886.890 1.0315 0.846 0.633 0.288 0.774 0.775 0.252 0.685 1.11041 0.869
3906.180 0.798 0.726 0.8 0.625 0.44 0.804 1.05559 1.3414 1.3844 1.4513
3925.470 1.438 1.0928 0.764 0.697 0.92 1.3149 0.812 0.565 1.0229 0.831
3944.760 0.561 0.484 0.807 0.629 0.328 0.622 0.966 0.9999 0.651 0.813
3964.049 0.9976 1.07922 0.853 0.893 1.12871 0.811 0.945 1.3609 1.2165 0.492
3983.339 0.342 0.457 1.0415 1.3413 1.4755 1.7125 1.10845 0.413 0.104 0.134
##END=
