##TITLE=Di-isopropylbenzene
##JCAMP-DX=4.24
##DATA TYPE=INFRARED SPECTRUM
##ORIGIN=NIST Mass Spectrometry Data Center
##OWNER=NIST Standard Reference Data Program
Collection (C) 2018 copyright by the U.S. Secretary of Commerce
on behalf of the United States of America. All rights reserved.
##CAS REGISTRY NO=25321-09-9
##MOLFORM=C 12 H 18
##$NIST SOURCE=MSDC-IR
##SPECTROMETER/DATA SYSTEM=HP-GC/MS/IRD
##STATE=gas
##XUNITS=1/CM
##YUNITS=ABSORBANCE
##XFACTOR=1.0
##YFACTOR=0.000005100
##DELTAX=4.0
##FIRSTX=550.0
##LASTX=3846.0
##FIRSTY=0.001556
##MAXX=3846
##MINX=550
##MAXY=0.051
##MINY=0
##NPOINTS=825
##XYDATA=(X++(Y..Y))
550.0 305 416 541 644 733 788 788 727 614 480
590.0 357 245 177 136 105 92 80 68 59 41
630.0 35 46 44 31 28 27 17 5 17 41
670.0 58 62 68 70 61 51 37 25 28 28
710.0 19 24 24 30 28 25 25 22 26 32
750.0 37 28 12 18 34 38 46 61 68 83
790.0 111 136 172 224 306 437 628 902 1195 1396
830.0 1414 1228 929 625 389 245 174 139 112 94
870.0 82 79 80 88 94 81 68 58 54 55
910.0 55 58 69 78 79 79 71 51 45 41
950.0 35 36 36 37 42 42 51 64 69 79
990.0 84 96 122 176 290 445 535 523 431 288
1030.0 198 187 217 275 361 447 499 544 618 694
1070.0 707 632 498 368 302 282 292 328 365 386
1110.0 377 339 284 238 210 208 220 240 264 266
1150.0 230 172 113 77 67 52 41 35 35 40
1190.0 40 42 49 66 79 85 84 79 77 79
1230.0 83 87 82 73 74 85 103 132 165 207
1270.0 246 261 265 271 305 389 479 527 510 449
1310.0 407 412 434 449 444 410 381 374 397 441
1350.0 476 502 523 566 616 651 660 674 699 711
1390.0 698 640 564 516 493 483 487 490 481 460
1430.0 433 415 424 465 535 630 739 853 940 968
1470.0 921 828 708 601 554 567 639 766 918 1063
1510.0 1152 1132 1000 782 545 348 219 154 118 94
1550.0 84 73 65 65 63 62 65 57 47 42
1590.0 40 38 37 43 46 47 48 49 49 51
1630.0 54 63 79 98 115 126 129 125 108 86
1670.0 71 58 49 44 38 35 33 28 26 23
1710.0 18 19 20 17 15 17 21 22 25 31
1750.0 39 47 55 69 84 93 99 105 101 80
1790.0 56 37 26 22 20 18 18 17 17 19
1830.0 20 22 23 25 26 22 21 27 35 45
1870.0 55 69 84 96 111 123 125 118 102 83
1910.0 64 46 36 31 27 25 22 20 16 14
1950.0 14 13 11 11 10 8 11 10 8 6
1990.0 5 4 4 8 10 9 10 10 10 12
2030.0 12 7 5 6 5 6 7 7 6 5
2070.0 3 4 3 3 8 9 7 6 7 6
2110.0 2 1 5 7 3 2 0 3 4 3
2150.0 4 2 2 5 6 7 6 8 9 11
2190.0 13 12 8 7 7 8 7 8 11 13
2230.0 13 15 19 21 22 24 28 32 34 33
2270.0 30 29 29 26 26 25 22 19 18 19
2310.0 18 19 17 17 18 18 21 25 22 21
2350.0 24 21 22 23 23 22 24 30 28 28
2390.0 29 27 25 24 23 22 21 21 19 21
2430.0 19 14 13 17 22 29 31 31 32 30
2470.0 31 32 30 29 30 31 31 30 28 27
2510.0 26 26 27 30 30 30 32 29 29 31
2550.0 35 38 34 37 43 46 53 59 65 76
2590.0 85 83 77 74 74 69 61 59 58 49
2630.0 44 45 43 42 47 48 50 48 47 53
2670.0 58 65 62 58 58 57 59 64 68 76
2710.0 84 93 103 115 126 130 130 125 119 113
2750.0 116 123 126 127 129 125 116 114 115 118
2790.0 134 154 164 176 194 210 223 237 247 255
2830.0 268 283 314 361 420 502 613 761 968 1251
2870.0 1636 2078 2443 2638 2655 2573 2508 2499 2518 2533
2910.0 2522 2497 2489 2542 2687 2943 3272 3552 3687 3741
2950.0 3951 4701 6400 8514 9945 10000 8367 6061 4145 2848
2990.0 2107 1678 1423 1271 1205 1225 1313 1430 1487 1428
3030.0 1272 1083 942 869 851 841 812 774 725 673
3070.0 629 594 571 557 536 511 469 421 375 335
3110.0 299 270 257 250 238 221 195 176 162 148
3150.0 137 130 128 125 121 127 134 135 131 129
3190.0 126 124 120 117 121 110 103 96 92 89
3230.0 74 67 61 51 49 49 47 41 39 34
3270.0 30 36 41 37 32 29 30 31 32 37
3310.0 39 37 39 35 25 21 23 24 25 24
3350.0 26 30 24 24 28 23 22 28 29 24
3390.0 21 20 23 34 34 28 24 26 34 35
3430.0 31 24 27 25 16 14 14 14 18 20
3470.0 15 15 20 23 22 18 21 22 16 16
3510.0 18 18 16 11 15 17 17 21 16 10
3550.0 10 14 14 8 9 11 13 15 10 6
3590.0 8 13 14 12 20 29 22 22 28 17
3630.0 11 10 17 20 18 24 27 25 23 23
3670.0 22 17 18 21 20 19 14 14 16 16
3710.0 21 25 22 15 20 26 20 13 22 27
3750.0 25 30 24 24 27 20 19 25 30 32
3790.0 31 26 33 40 41 35 30 28 32 29
3830.0 35 43 43 38 34
##END=
