##TITLE=1.alpha.,2.beta.,3.alpha.,4.beta.-Tetramethylcyclope
##JCAMP-DX=4.24
##DATA TYPE=INFRARED SPECTRUM
##ORIGIN=NIST Mass Spectrometry Data Center
##OWNER=NIST Standard Reference Data Program
Collection (C) 2018 copyright by the U.S. Secretary of Commerce
on behalf of the United States of America. All rights reserved.
##CAS REGISTRY NO=2532-67-4
##MOLFORM=C 9 H 18
##$NIST SOURCE=MSDC-IR
##SPECTROMETER/DATA SYSTEM=HP-GC/MS/IRD
##STATE=gas
##XUNITS=1/CM
##YUNITS=ABSORBANCE
##XFACTOR=1.0
##YFACTOR=0.000003300
##DELTAX=4.0
##FIRSTX=550.0
##LASTX=3846.0
##FIRSTY=0.000241
##MAXX=3846
##MINX=550
##MAXY=0.033
##MINY=0
##NPOINTS=825
##XYDATA=(X++(Y..Y))
550.0 73 69 75 101 119 77 5 22 49 53
590.0 58 76 114 114 110 121 98 65 69 68
630.0 58 65 76 84 86 82 101 118 96 68
670.0 79 104 118 94 83 96 89 87 86 81
710.0 79 76 70 72 85 91 85 95 94 77
750.0 81 97 96 97 100 92 86 96 100 99
790.0 94 64 62 86 93 70 65 58 3 17
830.0 79 105 116 98 85 87 90 96 102 103
870.0 95 95 95 87 78 85 98 96 89 86
910.0 108 119 112 122 119 101 93 99 112 121
950.0 127 143 157 158 161 168 174 183 187 198
990.0 215 232 249 248 225 211 209 200 189 176
1030.0 155 139 128 117 116 111 111 111 102 89
1070.0 86 83 69 70 81 78 74 61 51 51
1110.0 56 66 80 79 70 80 97 100 103 106
1150.0 109 129 145 156 154 137 130 123 117 111
1190.0 103 98 100 94 81 79 78 85 95 99
1230.0 109 122 126 126 132 123 133 147 153 165
1270.0 170 178 192 210 214 212 208 198 202 202
1310.0 196 202 205 201 192 184 189 214 246 292
1350.0 335 378 440 527 625 754 904 932 852 759
1390.0 612 431 302 235 202 191 193 207 223 244
1430.0 288 354 458 605 782 951 1087 1181 1213 1148
1470.0 975 792 619 464 350 263 207 173 150 135
1510.0 118 103 98 96 89 87 88 91 91 83
1550.0 74 72 75 65 65 76 82 79 67 74
1590.0 81 72 64 69 77 77 81 80 77 84
1630.0 88 85 78 81 86 95 97 81 75 78
1670.0 79 80 89 90 74 59 64 66 61 57
1710.0 50 51 59 51 45 52 58 55 51 48
1750.0 50 43 37 44 50 57 49 40 39 40
1790.0 40 36 41 41 37 32 26 27 34 46
1830.0 49 45 38 35 35 30 30 29 32 34
1870.0 30 30 30 26 24 24 27 29 28 28
1910.0 31 34 34 25 20 21 18 24 27 23
1950.0 22 20 18 25 29 28 21 16 15 16
1990.0 18 20 21 18 15 16 19 18 14 14
2030.0 10 9 12 15 18 19 16 13 16 13
2070.0 9 14 20 21 19 17 14 11 16 19
2110.0 19 17 13 8 13 18 14 9 10 13
2150.0 12 13 16 18 12 16 23 21 20 18
2190.0 12 9 9 15 19 14 11 2 0 8
2230.0 9 9 8 7 7 9 18 27 24 16
2270.0 12 12 13 10 8 10 15 20 19 21
2310.0 28 30 30 26 25 35 35 34 37 37
2350.0 35 36 41 41 41 33 31 28 22 28
2390.0 31 31 33 30 35 36 37 44 41 42
2430.0 42 42 48 41 38 34 31 34 32 28
2470.0 28 30 31 33 31 27 30 35 40 42
2510.0 40 40 45 44 49 53 49 42 38 45
2550.0 48 56 60 54 56 66 72 62 58 62
2590.0 67 73 80 83 84 84 82 76 82 91
2630.0 75 74 78 63 59 64 66 78 84 76
2670.0 70 70 78 80 79 80 88 98 103 116
2710.0 125 140 160 176 189 203 207 198 193 178
2750.0 158 143 140 138 138 142 148 147 149 162
2790.0 173 185 206 229 256 292 333 367 408 450
2830.0 496 565 648 747 892 1113 1458 1958 2643 3398
2870.0 4050 4557 4912 4979 4625 4096 3651 3343 3215 3264
2910.0 3457 3773 4173 4569 5003 5544 5720 5565 5746 6472
2950.0 7634 9099 10000 9446 8200 6559 4423 2596 1527 1010
2990.0 739 569 463 391 339 297 272 248 224 215
3030.0 208 199 199 202 205 206 194 187 185 189
3070.0 188 181 181 185 185 179 171 162 150 147
3110.0 150 148 141 133 132 133 136 132 134 142
3150.0 141 143 135 133 147 151 140 132 128 118
3190.0 93 86 95 99 98 89 87 85 65 46
3230.0 46 43 38 48 43 35 34 26 34 38
3270.0 28 21 24 21 15 21 21 22 28 17
3310.0 15 19 24 32 28 29 25 15 18 20
3350.0 16 24 30 24 28 33 28 16 16 32
3390.0 36 24 18 23 32 28 14 12 11 2
3430.0 0 5 11 15 20 22 20 19 17 18
3470.0 22 24 21 20 16 17 21 22 29 27
3510.0 11 1 4 20 23 24 34 26 10 7
3550.0 13 19 18 26 20 8 11 26 34 35
3590.0 36 23 12 24 27 24 20 19 18 16
3630.0 25 27 34 40 37 32 28 33 35 25
3670.0 21 33 31 23 32 38 36 26 26 31
3710.0 25 23 22 18 21 10 11 28 39 37
3750.0 25 28 32 23 13 15 9 13 13 18
3790.0 38 41 35 36 42 40 34 27 24 27
3830.0 42 52 35 16 23
##END=
