##TITLE=2-Chloro-4-methylpentane
##JCAMP-DX=4.24
##DATA TYPE=INFRARED SPECTRUM
##ORIGIN=NIST Mass Spectrometry Data Center
##OWNER=NIST Standard Reference Data Program
Collection (C) 2018 copyright by the U.S. Secretary of Commerce
on behalf of the United States of America. All rights reserved.
##CAS REGISTRY NO=25346-32-1
##MOLFORM=C 6 H 13 Cl
##$NIST SOURCE=MSDC-IR
##SPECTROMETER/DATA SYSTEM=HP-GC/MS/IRD
##STATE=gas
##XUNITS=1/CM
##YUNITS=ABSORBANCE
##XFACTOR=1.0
##YFACTOR=0.000003200
##DELTAX=4.0
##FIRSTX=550.0
##LASTX=3846.0
##FIRSTY=0.000448
##MAXX=3846
##MINX=550
##MAXY=0.032
##MINY=0
##NPOINTS=825
##XYDATA=(X++(Y..Y))
550.0 140 71 38 47 38 54 50 61 77 84
590.0 122 164 219 289 406 597 819 1002 1118 1159
630.0 1137 1039 842 631 473 376 331 345 413 514
670.0 623 679 722 744 707 599 446 308 213 145
710.0 90 79 77 52 33 25 19 22 38 36
750.0 25 29 27 25 22 34 40 36 42 47
790.0 56 56 65 78 78 83 87 80 77 85
830.0 92 134 187 220 257 298 328 332 331 331
870.0 331 335 317 301 298 297 297 292 275 259
910.0 235 211 204 199 198 191 181 178 188 198
950.0 220 245 258 274 281 293 303 296 307 344
990.0 397 451 499 535 562 560 531 476 403 327
1030.0 280 268 254 254 280 284 272 258 245 234
1070.0 227 233 274 339 398 441 468 477 455 419
1110.0 380 348 340 361 402 467 560 685 769 813
1150.0 839 840 808 744 656 570 495 422 350 283
1190.0 249 254 273 315 385 470 552 615 648 651
1230.0 629 573 519 488 495 540 622 737 870 1001
1270.0 1126 1203 1225 1177 1075 942 791 655 539 437
1310.0 369 335 317 319 334 350 383 431 484 555
1350.0 648 749 866 990 1120 1263 1408 1501 1547 1536
1390.0 1437 1230 979 744 553 434 387 386 427 500
1430.0 593 706 829 950 1086 1221 1331 1421 1476 1481
1470.0 1429 1300 1111 909 716 537 396 292 223 181
1510.0 150 121 110 103 90 83 74 68 68 63
1550.0 58 54 51 51 52 55 56 51 49 50
1590.0 56 52 38 40 45 42 46 52 48 43
1630.0 41 40 44 42 34 42 50 49 48 42
1670.0 44 53 51 47 51 49 46 46 45 43
1710.0 37 31 31 30 27 23 21 28 22 20
1750.0 25 23 19 23 27 18 10 11 16 19
1790.0 18 17 15 14 13 12 12 9 7 9
1830.0 11 12 8 7 9 9 12 16 13 8
1870.0 7 5 5 3 1 6 12 11 9 10
1910.0 9 5 0 2 8 7 9 8 9 10
1950.0 9 10 7 5 6 7 7 9 11 6
1990.0 7 7 7 9 10 11 10 7 5 2
2030.0 5 6 6 7 8 11 11 13 12 11
2070.0 8 6 11 6 5 5 3 0 1 14
2110.0 12 12 19 15 12 11 11 9 8 11
2150.0 14 14 12 14 13 8 13 20 21 21
2190.0 21 26 27 22 21 24 22 20 25 25
2230.0 25 27 23 23 23 23 26 24 25 30
2270.0 30 27 24 20 21 21 18 22 27 25
2310.0 22 27 30 30 33 36 33 32 27 28
2350.0 31 34 43 39 34 37 36 32 35 38
2390.0 38 43 46 42 40 44 45 40 41 47
2430.0 46 45 50 44 47 50 44 41 39 35
2470.0 39 45 38 38 45 50 54 54 51 56
2510.0 56 51 46 48 49 46 51 58 59 55
2550.0 52 51 59 72 77 70 77 84 82 84
2590.0 84 80 79 89 93 85 87 93 96 99
2630.0 90 88 91 89 90 93 93 89 101 100
2670.0 92 94 103 109 111 117 120 121 133 137
2710.0 133 150 172 187 209 224 225 230 234 229
2750.0 218 209 199 196 200 202 208 207 213 239
2790.0 259 274 287 301 337 375 409 452 498 558
2830.0 625 694 756 815 877 941 1045 1214 1453 1792
2870.0 2220 2671 3058 3334 3477 3490 3430 3344 3299 3352
2910.0 3501 3731 4044 4436 4841 5205 5482 5660 5781 5944
2950.0 6312 7037 8202 9389 10000 9976 9428 8369 6872 5423
2990.0 4350 3503 2727 2086 1533 1105 821 634 511 422
3030.0 369 332 303 279 260 250 245 247 247 241
3070.0 234 232 233 227 220 209 196 198 202 199
3110.0 191 181 185 184 182 180 169 161 170 181
3150.0 176 177 180 177 178 176 173 185 184 173
3190.0 177 175 168 164 158 142 130 122 114 105
3230.0 95 85 77 81 89 85 75 74 81 80
3270.0 61 49 62 71 58 51 60 68 57 57
3310.0 72 70 63 55 55 63 64 64 67 70
3350.0 68 71 68 62 70 68 69 63 55 66
3390.0 59 42 53 67 64 64 57 51 55 52
3430.0 53 49 43 46 45 42 41 37 27 27
3470.0 32 28 26 27 28 31 37 38 47 34
3510.0 18 34 27 28 41 35 39 34 27 34
3550.0 38 41 32 32 33 19 22 25 18 21
3590.0 31 41 31 24 32 34 35 38 48 54
3630.0 51 47 46 44 53 49 51 52 40 36
3670.0 40 41 30 33 42 33 22 29 40 32
3710.0 32 42 41 41 47 49 52 52 48 50
3750.0 47 50 55 51 55 58 54 58 49 47
3790.0 60 54 71 84 79 74 66 64 59 61
3830.0 79 86 77 75 85
##END=
