##TITLE=Diethyl benzene
##JCAMP-DX=4.24
##DATA TYPE=INFRARED SPECTRUM
##ORIGIN=NIST Mass Spectrometry Data Center
##OWNER=NIST Standard Reference Data Program
Collection (C) 2018 copyright by the U.S. Secretary of Commerce
on behalf of the United States of America. All rights reserved.
##CAS REGISTRY NO=25340-17-4
##MOLFORM=C 10 H 14
##$NIST SOURCE=MSDC-IR
##SPECTROMETER/DATA SYSTEM=HP-GC/MS/IRD
##STATE=gas
##XUNITS=1/CM
##YUNITS=ABSORBANCE
##XFACTOR=1.0
##YFACTOR=0.000001600
##DELTAX=4.0
##FIRSTX=550.0
##LASTX=3846.0
##FIRSTY=0.000280
##MAXX=3846
##MINX=550
##MAXY=0.016
##MINY=0
##NPOINTS=825
##XYDATA=(X++(Y..Y))
550.0 175 108 3 37 66 62 78 104 115 56
590.0 33 30 105 139 60 24 88 146 96 85
630.0 99 84 90 70 56 61 71 89 145 211
670.0 228 258 376 633 914 1197 1624 2066 2094 1842
710.0 1587 1279 975 726 619 572 523 504 559 606
750.0 612 643 680 727 800 940 1162 1409 1605 1715
790.0 1675 1480 1230 997 791 600 477 424 371 284
830.0 256 244 235 239 269 358 492 631 721 755
870.0 736 673 672 776 816 670 523 424 313 221
910.0 156 137 108 73 58 72 109 114 89 104
950.0 144 156 140 144 170 158 138 139 133 146
990.0 134 111 124 134 146 173 186 204 207 234
1030.0 262 303 373 421 485 518 542 574 590 585
1070.0 522 417 346 297 252 244 238 251 274 272
1110.0 248 209 172 160 155 127 112 122 123 140
1150.0 184 193 188 210 184 157 132 111 129 146
1190.0 126 101 119 117 114 128 139 125 127 141
1230.0 132 149 171 185 203 205 185 169 173 178
1270.0 202 227 254 280 304 312 321 386 460 535
1310.0 640 727 789 797 737 653 552 461 387 318
1350.0 273 254 264 305 342 388 439 494 518 503
1390.0 475 459 461 457 452 482 530 586 658 757
1430.0 879 1036 1164 1275 1412 1537 1622 1657 1659 1641
1470.0 1602 1599 1663 1686 1640 1531 1323 1040 795 627
1510.0 496 418 355 297 276 263 246 244 239 222
1550.0 228 244 254 297 366 454 556 687 861 1052
1590.0 1273 1517 1753 1910 1935 1792 1488 1096 736 474
1630.0 313 246 235 208 192 183 164 155 165 172
1670.0 181 201 196 198 196 180 177 153 123 114
1710.0 106 100 104 121 132 120 111 116 123 134
1750.0 140 154 189 213 219 218 239 247 219 203
1790.0 196 176 139 113 96 85 82 77 79 85
1830.0 87 106 120 140 189 237 264 257 224 194
1870.0 148 94 80 83 84 87 88 85 72 89
1910.0 116 142 166 166 181 184 164 133 107 89
1950.0 69 56 50 48 50 51 55 58 42 43
1990.0 56 50 46 43 53 57 58 61 62 75
2030.0 80 83 81 70 59 54 45 43 42 33
2070.0 32 40 40 37 43 34 29 44 39 34
2110.0 44 47 40 36 33 35 45 42 35 44
2150.0 56 58 47 43 52 44 17 21 37 36
2190.0 37 36 34 35 33 21 14 18 39 53
2230.0 61 59 36 32 39 30 29 36 31 39
2270.0 54 61 59 50 47 47 37 34 43 52
2310.0 53 52 58 67 58 59 73 76 73 73
2350.0 65 54 41 37 46 47 46 40 25 30
2390.0 41 42 38 39 49 46 39 48 45 42
2430.0 45 43 51 50 44 38 45 45 27 36
2470.0 41 32 39 31 22 15 15 25 27 34
2510.0 35 21 2 5 25 33 23 29 41 38
2550.0 40 36 23 23 26 13 13 31 42 52
2590.0 64 62 53 53 74 81 68 60 61 67
2630.0 65 69 82 77 73 75 66 45 28 37
2670.0 61 72 68 56 57 66 80 86 88 94
2710.0 93 93 97 119 124 137 158 151 161 175
2750.0 171 162 179 194 201 212 214 225 230 244
2790.0 263 269 277 305 339 362 393 437 488 536
2830.0 610 709 803 897 1014 1180 1407 1674 2010 2373
2870.0 2742 3102 3399 3647 3783 3798 3762 3666 3552 3458
2910.0 3406 3403 3517 3807 4285 4989 5785 6391 6589 6455
2950.0 6147 5877 6094 7199 8849 9939 10000 9227 7440 5260
2990.0 3768 2998 2653 2526 2561 2647 2740 2851 2960 3019
3030.0 2956 2821 2634 2437 2300 2286 2313 2276 2195 2059
3070.0 1831 1490 1180 962 822 742 693 663 619 577
3110.0 541 483 415 353 313 281 275 268 260 259
3150.0 242 247 239 227 221 218 185 146 150 146
3190.0 135 147 141 118 95 84 79 83 67 47
3230.0 67 76 87 85 72 79 80 85 72 50
3270.0 51 35 41 69 79 80 60 71 82 57
3310.0 57 60 38 40 58 62 62 51 34 22
3350.0 43 64 72 87 72 51 52 52 38 24
3390.0 29 46 32 0 39 85 67 55 36 38
3430.0 59 43 48 50 40 55 67 75 62 49
3470.0 59 42 39 66 79 67 53 52 52 33
3510.0 53 70 69 114 110 48 31 48 58 76
3550.0 84 88 108 113 87 83 82 57 57 79
3590.0 85 67 71 97 95 77 55 60 77 64
3630.0 69 89 92 73 66 68 75 69 63 84
3670.0 97 108 90 66 75 110 125 123 141 147
3710.0 123 103 114 112 116 137 144 137 136 137
3750.0 136 125 124 131 135 128 111 105 109 116
3790.0 119 106 87 76 70 95 110 113 136 142
3830.0 140 128 124 130 120
##END=
