##TITLE=2,6-Diisopropylphenyl isothiocyanate
##JCAMP-DX=4.24
##DATA TYPE=INFRARED SPECTRUM
##ORIGIN=EPA-IR VAPOR PHASE LIBRARY
##OWNER=SRD/NIST
Collection (C) 2018 copyright by the U.S. Secretary of Commerce
on behalf of the United States of America. All rights reserved.
##CAS REGISTRY NO=25343-70-8
##MOLFORM=C 13 H 17 N S
##$NIST SOURCE=MSDC-IR
##STATE=gas
##XUNITS=1/CM
##YUNITS=ABSORBANCE
##XFACTOR=1.
##YFACTOR=0.001
##DELTAX=1.92898
##FIRSTX=549.8
##LASTX=4000.7
##FIRSTY=6.52
##MAXX=4000.7
##MINX=549.759
##MAXY=0.48634
##MINY=0
##NPOINTS=1790
##XYDATA=(X++(Y..Y))
549.759 6.52 6.86 7.09 7.28 7.81 8.38 8.8 8.94 8.58 8.17
569.049 7.88 7.65 7.37 6.7 5.85 5.16 4.84 4.68 4.48 4.06
588.339 3.72 3.65 3.63 3.83 3.8 3.85 4.23 4.45 4.51 4.81
607.628 5.1 5.13 5.04 5 5.04 4.99 4.79 4.62 4.47 4.16
626.918 3.87 3.62 3.23 2.87 2.78 2.66 2.31 1.92 1.69 1.75
646.208 1.55 1.2476 1.4031 1.47 1.4226 1.4478 1.55 1.52 1.52 1.52
665.498 1.54 1.62 1.62 1.7 1.56 1.47 1.47 1.3343 1.3428 1.4065
684.787 1.3741 1.49 1.55 1.48 1.76 2.06 2.37 2.84 3.19 3.87
704.077 4.66 5.53 6.43 7.17 8.43 10 11.81 14.22 17.24 20.75
723.367 24.22 26.98 28.88 29.53 29.59 29.71 31.03 34.33 38 40.43
742.657 48.08 61.67 54.98 36.62 29.75 24.55 17.2 10.77 6.53 4.31
761.947 3.29 2.64 2.41 2.66 2.98 3.58 4.3 4.96 5.69 6.53
781.236 7.65 9.38 11.65 13.95 16.14 19 23.23 24.04 20.24 17.36
800.526 15.18 12.3 9.4 7.03 5.36 4.13 3.32 2.81 2.49 2.23
819.816 1.76 1.4576 1.459 1.59 1.78 1.82 1.69 1.7 1.67 1.4359
839.106 1.4098 1.4293 1.51 1.59 1.51 1.4476 1.3442 1.3234 1.3616 1.1843
858.395 1.2482 1.55 1.89 2.25 2.56 2.96 3.54 4.11 4.7 5.18
877.685 5.4 5.49 5.38 5.17 5.04 4.85 4.83 5.03 5.31 5.83
896.975 6.24 6.65 7.34 8.07 8.82 9.65 10.64 11.9 13.45 15.51
916.265 18.12 21.21 24.79 28.72 32.66 36.71 40.49 43.66 46.02 47.23
935.555 47.28 46.23 44.39 41.77 38.36 34.77 30.95 27.09 23.68 20.64
954.844 17.9 15.42 13.57 12.03 10.51 9.44 8.47 7.34 6.5 5.65
974.134 4.9 4.44 3.99 3.6 3.25 2.99 2.71 2.31 2.21 2.25
993.424 2.1 2.11 2.18 2.12 2.07 2.07 1.89 1.61 1.63 1.82
1012.714 1.83 1.61 1.2836 1.1588 0.9918 0.852 0.8848 1.1161 1.1502 1.0236
1032.003 1.3427 1.3309 1.3328 1.4011 1.63 2.25 2.35 2.5 2.75 2.97
1051.293 3.6 4.19 4.85 5.73 6.33 6.74 6.76 6.43 5.87 5.18
1070.583 4.59 4 3.82 3.63 3.13 2.75 2.75 3.13 3.26 2.89
1089.873 2.99 3.1 3.42 4.05 4.05 4.76 5.76 5.92 5.9 5.83
1109.163 5.8 5.53 4.98 4.43 3.88 3.53 3.24 3.01 2.7 2.37
1128.452 2.18 2.04 1.85 1.82 1.77 1.81 1.97 1.99 2.16 2.27
1147.742 2.32 2.56 2.6 2.6 2.95 3.48 3.68 3.71 3.45 3.13
1167.032 2.95 2.78 3.02 3.41 3.95 4.47 4.77 4.95 4.87 4.53
1186.322 4.13 3.48 2.72 2.41 2.13 1.96 2.03 1.95 1.78 1.8
1205.611 2.03 2.35 2.75 2.52 2.32 2.72 2.94 3.08 3.15 3.05
1224.901 3.06 3 2.83 2.89 3.05 3.15 3.53 3.72 3.71 4.4
1244.191 5.26 6.45 8.2 10.1 12.04 13.55 14.39 14.59 13.86 12.21
1263.481 10.04 7.82 6.15 5.04 4.5 4.29 4.13 4.11 3.95 3.68
1282.771 3.62 3.77 3.93 3.93 3.97 4.04 4.29 4.72 5.03 5.33
1302.060 5.8 6.18 6.43 6.71 6.96 7.32 7.82 8.43 9.09 9.75
1321.350 10.48 11.13 11.82 12.55 13.24 13.91 14.63 15.38 15.95 16.3
1340.640 16.49 16.34 15.99 15.44 14.62 13.72 12.92 12.32 12 12.04
1359.930 12.71 13.89 15.29 16.66 18.87 21.44 20.33 16.98 15.09 13.77
1379.219 12.48 11.82 12.12 13.12 14.04 14.48 14.44 13.85 12.66 10.76
1398.509 8.86 7.59 6.84 6.52 6.43 6.45 6.61 6.87 7.36 8.06
1417.799 8.94 10.09 11.55 13.34 15.6 18.25 21.31 24.55 27.62 30.2
1437.089 32.13 33.03 32.74 31.49 29.59 27.3 25.08 23.34 22.23 21.86
1456.378 22.16 22.91 23.93 25.09 26.19 27.14 27.69 27.64 26.91 25.56
1475.668 23.62 21.13 18.32 15.36 12.59 10.3 8.59 7.42 6.6 5.99
1494.958 5.51 5.11 4.75 4.44 4.25 4.11 3.97 3.77 3.59 3.5
1514.248 3.36 3.18 3.07 2.92 2.94 2.92 2.85 2.96 3.06 3.24
1533.538 3.43 3.59 3.81 3.88 3.8 3.68 3.54 3.41 3.25 3.11
1552.827 3.12 3.21 3.24 3.26 3.28 3.37 3.59 3.88 4.3 4.89
1572.117 5.63 6.44 7.43 8.41 9.14 9.65 9.95 9.96 9.5 8.76
1591.407 7.98 7.06 6.11 5.29 4.67 4.2 3.84 3.58 3.44 3.38
1610.697 3.44 3.42 3.38 3.33 3.17 3.01 2.94 2.88 2.78 2.79
1629.986 2.78 2.8 2.96 3.09 3.16 3.21 3.18 3.06 2.91 2.81
1649.276 2.65 2.44 2.21 2.1 2.03 2 2.03 2 1.98 1.99
1668.566 1.95 1.94 2.03 2.14 2.18 2.21 2.4 2.65 2.88 3.13
1687.856 3.37 3.59 3.71 3.84 3.88 3.84 3.87 3.84 3.79 3.83
1707.146 3.8 3.72 3.62 3.43 3.27 3.1 2.83 2.66 2.62 2.54
1726.435 2.46 2.4 2.33 2.26 2.24 2.17 2.12 2.1 2.08 2.06
1745.725 2.08 2.12 2.08 2.1 2.17 2.18 2.11 2.06 2.01 1.97
1765.015 1.97 2 1.96 1.93 1.92 1.9 1.96 1.99 2.04 2.11
1784.305 2.21 2.41 2.61 2.8 2.96 2.98 2.97 2.95 2.8 2.66
1803.594 2.53 2.4 2.26 2.18 2.16 2.16 2.15 2.17 2.22 2.31
1822.884 2.41 2.46 2.51 2.62 2.76 2.91 3.04 3.18 3.26 3.37
1842.174 3.54 3.73 3.96 4.22 4.48 4.82 5.21 5.5 5.78 5.95
1861.464 6.02 5.97 5.77 5.48 5.17 4.89 4.66 4.51 4.39 4.3
1880.754 4.21 4.14 4.1 4.07 4.02 4.02 4.06 4.06 4.08 4.07
1900.043 4.1 4.15 4.15 4.2 4.32 4.52 4.78 5.11 5.61 6.23
1919.333 6.86 7.46 8.06 8.56 8.86 8.96 8.76 8.38 7.94 7.52
1938.623 7.17 6.97 6.98 7.1 7.31 7.55 7.91 8.3 8.72 9.2
1957.913 9.66 10.16 10.71 11.31 11.98 12.7 13.48 14.3 15.19 16.17
1977.202 17.25 18.37 19.46 20.64 21.95 23.28 24.67 26.17 27.83 29.54
1996.492 31.38 33.39 35.48 37.68 39.99 42.39 44.96 47.79 50.78 53.93
2015.782 57.3 60.94 64.89 69.13 73.71 78.67 84 89.77 96.01 102.84
2035.072 110.16 118.02 126.61 135.84 145.84 156.65 168.26 180.72 194.06 208.22
2054.362 223.29 239.25 256.11 273.75 291.92 310.57 329.56 348.58 367.44 385.88
2073.651 403.28 419.46 434.41 447.64 459.22 469.08 476.67 482.14 485.47 486.34
2092.941 484.58 479.77 471.26 459.07 443.41 424.65 403.01 379.2 354.56 330.13
2112.231 306.72 285.06 265.83 249.33 235.42 223.94 214.77 207.69 202.46 198.78
2131.521 196.43 195.2 194.68 194.69 195.11 195.64 195.91 195.47 194.08 191.45
2150.810 187.13 180.84 172.7 162.95 151.9 140.11 128.01 116.29 105.39 95.38
2170.100 86.42 78.55 71.65 65.62 60.37 55.81 51.92 48.49 45.34 42.54
2189.390 40.06 37.78 35.62 33.6 31.65 29.73 27.96 26.26 24.53 22.9
2208.680 21.42 20 18.65 17.4 16.29 15.27 14.24 13.28 12.45 11.76
2227.970 11.1 10.48 9.95 9.53 9.15 8.74 8.34 7.96 7.64 7.41
2247.259 7.22 7.03 6.77 6.48 6.3 6.14 5.92 5.75 5.6 5.44
2266.549 5.29 5.16 5.04 4.85 4.65 4.5 4.32 4.16 4.01 3.9
2285.839 3.88 3.76 3.6 3.57 3.56 3.52 3.57 3.61 3.63 3.71
2305.129 3.74 3.68 3.64 3.63 3.6 3.55 3.45 3.3 3.14 3.05
2324.418 3.02 2.96 2.8 2.72 2.7 2.67 2.63 2.62 2.62 2.63
2343.708 2.59 2.57 2.65 2.67 2.66 2.66 2.69 2.72 2.79 2.81
2362.998 2.75 2.72 2.69 2.69 2.7 2.68 2.64 2.68 2.77 2.77
2382.288 2.86 2.99 3.04 3.1 3.19 3.29 3.36 3.45 3.62 3.78
2401.578 3.88 3.91 3.92 3.86 3.78 3.7 3.59 3.39 3.26 3.28
2420.867 3.21 3.16 3.13 3.1 3.14 3.21 3.27 3.42 3.59 3.63
2440.157 3.75 3.92 4.09 4.24 4.33 4.44 4.54 4.54 4.7 4.77
2459.447 4.75 4.85 4.79 4.68 4.53 4.48 4.5 4.41 4.34 4.31
2478.737 4.29 4.26 4.21 4.14 4.12 4.08 4.02 4.09 4.11 4.04
2498.026 4.13 4.17 4.18 4.24 4.23 4.3 4.38 4.36 4.38 4.43
2517.316 4.44 4.45 4.41 4.4 4.5 4.5 4.43 4.46 4.48 4.42
2536.606 4.43 4.47 4.5 4.47 4.37 4.31 4.29 4.27 4.2 4.16
2555.896 4.22 4.2 4.09 4.11 4.17 4.13 4.09 4.07 4.08 4.12
2575.186 4.1 4.01 3.91 3.9 3.89 3.81 3.73 3.68 3.55 3.43
2594.475 3.42 3.38 3.26 3.18 3.07 2.88 2.79 2.8 2.71 2.61
2613.765 2.58 2.45 2.3 2.26 2.23 2.19 2.13 2.04 2.01 2.05
2633.055 2.1 2.07 2.04 2.03 1.95 1.88 1.94 2.01 2.03 2.04
2652.345 2 1.97 1.99 2.01 2.02 1.95 1.96 2.04 2.1 2.08
2671.634 2.12 2.24 2.21 2.21 2.25 2.18 2.17 2.24 2.22 2.16
2690.924 2.19 2.3 2.45 2.52 2.48 2.53 2.64 2.7 2.83 2.9
2710.214 2.9 2.99 3.08 3.19 3.3 3.33 3.44 3.58 3.71 3.83
2729.504 3.89 3.89 3.84 3.79 3.82 3.79 3.63 3.5 3.35 3.15
2748.794 3.04 2.99 3 3.01 2.99 3.05 3.13 3.17 3.27 3.39
2768.083 3.52 3.6 3.58 3.55 3.53 3.46 3.47 3.51 3.51 3.66
2787.373 3.7 3.69 3.86 3.99 4.03 4.13 4.28 4.48 4.59 4.71
2806.663 4.93 5.08 5.25 5.34 5.52 5.73 5.73 5.72 5.85 5.88
2825.953 5.85 5.94 5.99 5.92 5.9 5.98 6.02 6.14 6.32 6.59
2845.242 6.85 6.97 7.32 7.79 8.2 8.76 9.4 10.23 11.27 12.46
2864.532 13.97 15.95 18.58 22.02 25.97 30.46 35.08 39.15 42.49 44.67
2883.822 45.11 44.01 42.06 39.47 36.75 34.37 32.55 31.49 31.02 31.04
2903.112 31.31 31.83 32.49 33.21 33.97 34.83 35.71 36.59 37.7 39.04
2922.401 40.75 42.9 45.55 48.72 52.38 56.31 60.28 63.85 66.24 67.01
2941.691 66.11 63.99 60.93 57.34 53.96 51.35 50.29 51.49 55.61 63.65
2960.981 76.37 93.91 114.85 136.54 156.09 170.64 178.09 176.4 164.11 143.78
2980.271 121.04 99.14 79.08 62.33 49.75 40.49 33.61 28.55 24.81 22.01
2999.561 19.92 18.56 17.49 16.74 16.06 15.23 14.66 14.14 13.68 13.34
3018.850 12.96 12.66 12.47 12.22 11.96 11.7 11.45 11.12 10.83 10.56
3038.140 10.21 9.92 9.65 9.44 9.36 9.43 9.72 10.32 11.04 11.91
3057.430 13.14 14.77 16.75 18.86 21.13 23.62 26.08 27.91 28.86 28.84
3076.720 27.76 25.7 22.8 19.44 16.2 13.33 10.75 8.68 7.26 6.41
3096.009 5.76 5.22 4.94 4.8 4.49 4.26 4.19 4.08 3.87 3.59
3115.299 3.35 3.3 3.28 3.11 3.08 2.98 2.84 2.74 2.56 2.5
3134.589 2.51 2.52 2.46 2.39 2.42 2.33 2.32 2.43 2.48 2.51
3153.879 2.49 2.6 2.68 2.7 2.75 2.68 2.55 2.65 2.67 2.48
3173.169 2.47 2.48 2.45 2.38 2.18 2.11 2.07 1.99 1.99 2.07
3192.458 2.05 1.95 1.9 1.76 1.71 1.73 1.58 1.4566 1.4016 1.4267
3211.748 1.3811 1.3242 1.3942 1.3113 1.1545 1.2587 1.3876 1.3094 1.2504 1.2176
3231.038 1.0806 0.9912 1.0887 1.0243 0.8417 0.8759 0.8865 0.8222 0.9004 0.8602
3250.328 0.7324 0.5938 0.5815 0.6102 0.477071 0.4547 0.4065 0.4287 0.475412 0.55701
3269.617 0.6238 0.4088 0.324 0.4251 0.48701 0.55514 0.52267 0.4317 0.48369 0.48274
3288.907 0.50002 0.3849 0.338 0.348 0.254 0.249 0.221 0.312 0.33 0.319
3308.197 0.239 0.197 0.216 0.147 0.204 0.315 0.258 0.201 0.297 0.25
3327.487 0.241 0.282 0.268 0.244 0.232 0.32 0.285 0.327 0.322 0.25
3346.777 0.277 0.4411 0.51859 0.4544 0.349 0.267 0.358 0.4224 0.435 0.353
3366.066 0.273 0.46476 0.542 0.33 0.319 0.287 0.26 0.34 0.259 0.324
3385.356 0.394 0.369 0.4337 0.46873 0.46468 0.326 0.171 0.165 0.335 0.55764
3404.646 0.5849 0.3965 0.46737 0.54786 0.4426 0.48306 0.339 0.294 0.358 0.369
3423.936 0.4131 0.4149 0.329 0.239 0.362 0.49097 0.3719 0.266 0.355 0.3929
3443.225 0.31 0.251 0.352 0.4387 0.359 0.334 0.344 0.3 0.247 0.147
3462.515 0.232 0.289 0.191 0.144 0.256 0.219 0.142 0.181 0.217 0.226
3481.805 0.257 0.37 0.4347 0.347 0.194 0.293 0.355 0.278 0.314 0.365
3501.095 0.288 0.219 0.248 0.367 0.348 0.22 0.244 0.294 0.344 0.3839
3520.385 0.306 0.299 0.368 0.289 0.228 0.204 0.201 0.235 0.4319 0.51461
3539.674 0.346 0.3815 0.368 0.28 0.3739 0.4377 0.4118 0.21 0.205 0.355
3558.964 0.313 0.314 0.24 0.245 0.251 0.229 0.253 0.277 0.326 0.291
3578.254 0.248 0.267 0.249 0.236 0.254 0.293 0.3739 0.365 0.299 0.302
3597.544 0.277 0.282 0.358 0.4148 0.4338 0.359 0.249 0.207 0.151 0.035
3616.833 0.137 0.256 0.146 0.165 0.242 0.211 0.069 0.024 0.108 0.158
3636.123 0.107 0 0.107 0.202 0.076 0.058 0.208 0.196 0.052 0.032
3655.413 0.156 0.186 0.231 0.354 0.32 0.148 0.127 0.198 0.18 0.168
3674.703 0.363 0.3924 0.299 0.399 0.366 0.281 0.33 0.319 0.26 0.157
3693.993 0.232 0.284 0.216 0.225 0.097 0.059 0.167 0.4291 0.4316 0.4229
3713.282 0.361 0.169 0.13 0.203 0.22 0.116 0.13 0.061 0.175 0.353
3732.572 0.3739 0.4557 0.50267 0.365 0.197 0.137 0.168 0.271 0.19 0.248
3751.862 0.36 0.4156 0.4148 0.3855 0.4304 0.323 0.264 0.219 0.256 0.312
3771.152 0.305 0.3741 0.4104 0.48439 0.48359 0.4328 0.46837 0.54861 0.58 0.453
3790.441 0.307 0.4507 0.52827 0.3892 0.4337 0.51494 0.5815 0.56626 0.6445 0.6998
3809.731 0.7304 0.7249 0.7013 0.6434 0.50441 0.56602 0.6284 0.54507 0.55022 0.56502
3829.021 0.51897 0.50367 0.6413 0.7975 0.6421 0.6588 0.6484 0.637 0.7605 0.6378
3848.311 0.6116 0.53416 0.4077 0.4567 0.53808 0.596 0.6933 0.7313 0.7133 0.7539
3867.601 0.7472 0.7378 0.6921 0.5999 0.6606 0.6715 0.6193 0.5855 0.49373 0.46771
3886.890 0.454 0.5891 0.6137 0.4227 0.4377 0.4494 0.49641 0.6449 0.7454 0.7333
3906.180 0.6195 0.5734 0.5993 0.5917 0.6645 0.7227 0.6059 0.5788 0.5936 0.4303
3925.470 0.477547 0.5947 0.55374 0.50862 0.4582 0.5956 0.7502 0.8187 0.7391 0.6165
3944.760 0.6599 0.7105 0.54947 0.472507 0.55417 0.6338 0.8515 0.8492 0.6427 0.637
3964.049 0.7827 0.8247 0.8685 0.8801 0.7859 0.8414 0.9681 0.9491 0.802 0.6815
3983.339 0.7216 0.8075 0.8338 0.8928 0.8044 0.8084 0.9383 1.0367 1.1594 1.1831
##END=
