##TITLE=4-Methylthiomorpholine-1,1-dioxide
##JCAMP-DX=4.24
##DATA TYPE=INFRARED SPECTRUM
##ORIGIN=EPA-IR VAPOR PHASE LIBRARY
##OWNER=SRD/NIST
Collection (C) 2018 copyright by the U.S. Secretary of Commerce
on behalf of the United States of America. All rights reserved.
##CAS REGISTRY NO=25343-91-3
##MOLFORM=C 5 H 11 N O 2 S
##$NIST SOURCE=MSDC-IR
##STATE=gas
##XUNITS=1/CM
##YUNITS=ABSORBANCE
##XFACTOR=1.
##YFACTOR=0.001
##DELTAX=1.92898
##FIRSTX=549.8
##LASTX=4000.7
##FIRSTY=1.3143
##MAXX=4000.7
##MINX=549.759
##MAXY=0.117771
##MINY=0
##NPOINTS=1790
##XYDATA=(X++(Y..Y))
549.759 1.3143 1.1913 0.6953 0.244 0 0.041 0.47836 0.948 1.1092 0.8106
569.049 0.5582 0.9299 1.2226 1.1884 0.9311 1.1536 1.1093 0.9719 1.1955 1.771
588.339 2.051 1.911 2.111 2.371 2.261 2.631 2.891 2.501 2.441 2.301
607.628 2.571 2.561 1.861 1.571 1.541 1.401 1.2443 1.0746 0.8073 0.9744
626.918 1.501 1.631 1.2471 1.04 1.0864 1.2475 1.3806 1.611 1.921 2.301
646.208 2.901 3.801 4.601 5.211 6.331 7.411 8.531 9.511 9.631 9.721
665.498 10.171 10.191 9.821 9.221 8.361 7.371 6.261 5.161 4.631 4.021
684.787 3.221 3.171 3.641 4.201 4.591 4.891 5.661 6.661 7.251 8.021
704.077 9.501 10.721 11.541 12.351 12.631 12.551 12.401 12.651 12.461 11.551
723.367 10.681 9.531 8.281 6.931 5.591 4.761 3.691 3.151 3.251 2.741
742.657 2.831 3.031 3.081 3.171 3.071 3.361 3.651 3.771 4.031 4.031
761.947 3.881 3.931 3.801 3.611 3.221 2.791 2.461 2.161 1.971 1.671
781.236 1.501 1.3651 1.1815 1.1079 1.1273 1.1116 1.1199 1.0907 0.62 0.5429
800.526 0.7204 0.698 0.8317 1.0884 1.0773 0.9204 1.411 1.791 1.631 1.851
819.816 2.171 2.571 3.581 4.561 5.341 6.521 7.871 9.351 10.491 11.811
839.106 13.611 14.561 15.181 15.221 15.211 15.561 15.471 14.411 13.021 11.731
858.395 10.241 9.121 7.771 6.251 5.211 4.621 3.781 3.041 2.591 2.071
877.685 1.881 1.671 1.551 1.471 1.2319 1.0265 0.89 0.8115 0.888 1.209
896.975 1.491 1.531 1.501 1.3006 1.391 1.771 1.691 1.941 2.351 2.451
916.265 2.701 2.841 3.051 3.331 3.611 3.901 4.051 4.351 4.571 5.041
935.555 5.601 6.581 7.911 9.181 10.501 11.481 12.331 12.661 12.501 12.341
954.844 12.571 12.491 11.401 10.081 8.991 8.491 8.371 8.471 8.791 9.101
974.134 9.901 10.641 11.201 11.861 12.211 12.311 12.091 12.181 12.261 12.391
993.424 12.011 10.661 9.951 9.321 8.131 7.761 7.871 7.221 6.801 6.621
1012.714 6.411 6.151 6.131 6.091 6.071 6.321 6.171 6.831 8.161 9.221
1032.003 10.331 11.811 12.691 13.521 14.931 15.791 15.971 15.921 16.031 16.601
1051.293 16.521 15.891 14.561 13.091 12.431 11.481 10.901 10.771 11.101 10.351
1070.583 8.501 7.631 7.071 6.391 5.901 5.191 4.931 3.691 3.001 3.441
1089.873 3.631 4.151 4.301 5.281 7.171 8.541 8.261 9.201 12.731 16.021
1109.163 20.921 27.211 33.591 41.751 50.871 59.381 66.141 71.881 79.061 85.561
1128.452 89.021 92.391 96.371 97.471 94.351 88.001 81.631 77.501 75.471 73.711
1147.742 69.871 64.871 59.451 53.231 46.391 39.751 34.301 30.251 26.801 23.891
1167.032 20.481 16.871 14.521 13.611 13.021 14.071 16.921 19.391 22.171 25.681
1186.322 28.221 28.861 29.661 30.921 31.071 30.151 29.031 27.051 23.351 20.211
1205.611 17.001 12.581 9.831 8.251 6.521 5.801 6.221 5.551 4.951 5.311
1224.901 5.301 4.481 4.501 4.891 4.671 5.201 6.131 6.491 6.861 7.471
1244.191 7.941 9.101 11.431 13.561 15.681 19.041 22.561 26.551 31.711 37.531
1263.481 42.871 47.351 50.411 51.951 52.401 51.661 50.081 46.681 41.491 36.071
1282.771 30.461 25.321 21.381 18.611 16.801 15.681 15.241 15.341 15.491 15.831
1302.060 16.411 17.101 18.161 19.251 20.461 21.611 22.741 24.281 26.001 28.131
1321.350 30.721 33.821 37.581 42.171 47.571 53.531 60.411 68.141 76.441 85.041
1340.640 93.431 101.061 107.601 112.741 116.351 117.771 115.571 109.201 101.361 94.121
1359.930 86.061 77.051 68.411 61.121 55.581 51.501 48.381 45.781 43.391 41.171
1379.219 39.521 38.401 35.561 32.281 30.711 28.521 25.011 21.351 18.231 15.811
1398.509 14.251 13.371 12.731 11.951 11.131 10.381 9.511 8.751 8.201 7.701
1417.799 7.151 6.741 6.511 6.281 6.251 6.371 6.491 6.461 6.561 6.871
1437.089 7.201 7.741 8.261 8.891 9.691 10.561 11.521 12.521 13.411 14.311
1456.378 15.111 15.811 16.391 16.811 16.861 16.391 15.851 15.471 14.551 13.121
1475.668 12.031 11.001 9.711 8.251 6.951 5.961 5.071 4.241 3.651 3.231
1494.958 2.851 2.471 2.221 2.071 1.841 1.581 1.511 1.481 1.3662 1.3612
1514.248 1.3345 1.3503 1.3591 1.2909 1.3374 1.431 1.3706 1.3468 1.3324 1.3073
1533.538 1.3464 1.1979 0.9842 0.927 0.9635 0.9866 0.9656 0.8634 0.8994 1.0475
1552.827 1.0144 1.0584 1.0936 1.0639 1.1242 1.0456 0.887 0.8543 0.9655 0.924
1572.117 0.7085 0.7173 0.9356 0.926 0.8025 0.7286 0.726 0.8484 0.8457 0.7562
1591.407 0.8925 0.9711 0.8264 0.8187 0.7714 0.7847 0.821 0.7922 0.8557 0.9753
1610.697 1.0429 1.0314 0.8762 0.7785 0.9362 1.0841 1.0966 0.941 0.8577 0.9003
1629.986 0.9213 1.0107 1.1058 1.1206 1.0709 0.9855 1.0836 1.1447 1.1291 1.0521
1649.276 0.8793 0.8179 0.859 0.9388 0.9354 0.8911 1.0046 1.148 1.0254 0.9531
1668.566 0.8926 0.8657 0.92 0.8352 0.7546 0.7386 0.9124 1.058 0.9026 0.8704
1687.856 0.8929 0.8429 0.7719 0.573 0.5558 0.8226 0.9876 0.9252 0.89 0.969
1707.146 1.0076 0.8721 0.8758 0.8667 0.832 0.8233 0.7337 0.7284 0.735 0.7011
1726.435 0.628 0.6131 0.5878 0.6203 0.7068 0.8215 0.8497 0.7183 0.745 0.7302
1745.725 0.6688 0.6934 0.7704 0.8295 0.9009 0.929 0.8865 0.8612 0.7785 0.8044
1765.015 0.8009 0.6818 0.6485 0.706 0.7892 0.7936 0.7809 0.7662 0.7034 0.6108
1784.305 0.6149 0.6086 0.6179 0.7258 0.8285 0.9267 0.8105 0.6938 0.7251 0.7646
1803.594 0.7378 0.6936 0.7425 0.7369 0.6816 0.761 0.7757 0.6969 0.6825 0.7357
1822.884 0.707 0.7489 0.7997 0.7257 0.7635 0.7024 0.6049 0.6296 0.6925 0.6404
1842.174 0.6481 0.7252 0.6965 0.6388 0.5833 0.6157 0.6848 0.7863 0.8162 0.7682
1861.464 0.7094 0.6792 0.8031 0.7873 0.7933 0.9639 0.966 0.9176 0.9601 0.9934
1880.754 0.8719 0.832 0.9701 0.9995 1.1046 1.0643 0.9388 1.0169 0.9567 0.9123
1900.043 0.9043 0.7913 0.7615 0.7525 0.7807 0.8999 0.8962 0.82 0.7693 0.7363
1919.333 0.84 0.9753 0.961 0.8876 0.9245 1.0141 0.9732 0.9281 1.0365 1.0372
1938.623 0.9035 0.8164 0.75 0.7305 0.7364 0.8362 0.8501 0.7308 0.6914 0.6942
1957.913 0.5828 0.5689 0.7182 0.7536 0.7866 0.8449 0.7537 0.6367 0.6723 0.6941
1977.202 0.6411 0.7494 0.8872 0.9409 0.9395 0.8368 0.7664 0.7236 0.7389 0.8915
1996.492 0.9895 0.9774 0.9218 0.7658 0.7357 0.9241 1.026 1.002 1.0591 1.0996
2015.782 0.9765 1.0109 1.0857 0.9474 0.8936 0.9428 1.0069 1.0067 0.9148 0.8454
2035.072 0.8702 0.8176 0.7916 0.8464 0.8111 0.7861 0.8098 0.8308 0.7901 0.7576
2054.362 0.7648 0.8244 0.8498 0.7955 0.7714 0.6976 0.6655 0.7817 0.7103 0.6453
2073.651 0.6424 0.6056 0.7388 0.8175 0.7833 0.7753 0.8578 0.9166 0.8922 0.8771
2092.941 0.9055 0.8413 0.9025 0.9971 1.0074 1.0798 1.0533 0.9835 1.0964 1.2121
2112.231 1.183 1.1884 1.1435 0.9594 0.9237 1.0305 1.1269 1.0009 0.7674 0.7612
2131.521 0.7521 0.705 0.647 0.7196 0.8257 0.8655 0.8572 0.8114 0.77 0.7184
2150.810 0.7588 0.8067 0.7798 0.693 0.7039 0.7578 0.7465 0.778 0.7675 0.7263
2170.100 0.7708 0.842 0.804 0.8378 0.9653 0.8818 0.8453 0.9271 0.9223 0.8259
2189.390 0.8206 0.826 0.7254 0.6568 0.671 0.6721 0.6191 0.6748 0.7846 0.7556
2208.680 0.6682 0.711 0.7255 0.6971 0.703 0.7938 0.8192 0.8479 0.9927 1.0671
2227.970 0.9715 0.8916 0.9814 1.1191 1.1958 1.2537 1.2768 1.1664 1.2711 1.3281
2247.259 1.242 1.285 1.2917 1.237 1.1999 1.2673 1.2974 1.2448 1.097 1.0403
2266.549 1.0813 1.1252 1.2188 1.2429 1.1855 1.1153 1.0605 1.102 1.087 0.9014
2285.839 0.7857 0.7074 0.7257 0.8521 0.9089 0.9333 0.9445 0.905 0.8345 0.7788
2305.129 0.8659 0.9194 0.9089 0.9349 0.8286 0.7733 0.8651 0.746 0.616 0.6874
2324.418 0.7536 0.7844 0.7317 0.7692 0.8028 0.7859 0.7915 0.7347 0.798 0.783
2343.708 0.7031 0.7147 0.6437 0.6224 0.746 0.8304 0.8022 0.8063 0.71 0.6364
2362.998 0.6587 0.5455 0.6772 0.7935 0.699 0.8028 0.924 0.9161 1.0436 0.9959
2382.288 0.7987 0.8136 0.8511 0.9301 0.897 0.7932 0.7687 0.8798 1.034 0.9191
2401.578 0.92 1.0289 0.8793 0.8252 0.8297 0.8467 0.7457 0.7212 0.8357 0.9203
2420.867 0.9405 0.9029 0.9092 0.8156 0.785 0.8581 0.8962 0.9266 0.9585 0.9973
2440.157 0.9119 0.8785 0.9438 1.0474 1.1499 1.1274 1.199 1.1689 1.0649 1.2595
2459.447 1.451 1.421 1.2416 1.109 1.1571 1.1072 1.2212 1.2659 1.1711 1.3072
2478.737 1.3165 1.3121 1.312 1.2834 1.306 1.421 1.441 1.2782 1.2157 1.2166
2498.026 1.1639 0.9382 0.816 1.0085 1.1057 1.0885 1.2023 1.093 0.9275 1.0245
2517.316 1.032 0.9644 1.0875 1.0879 1.0523 0.9291 0.8377 0.8749 0.8673 0.8887
2536.606 0.9086 0.9617 0.85 0.8729 0.9479 0.9502 0.9499 0.9189 0.902 0.8802
2555.896 0.8284 0.7643 0.8157 0.826 0.848 0.8149 0.7672 0.806 0.8452 0.8121
2575.186 0.7491 0.7637 0.7998 0.8981 1.0099 0.9596 0.8402 0.8946 1.0503 1.114
2594.475 1.1447 1.1754 1.1236 1.0772 1.114 1.0711 0.9631 1.0655 1.1341 1.0699
2613.765 1.1233 1.1164 1.1426 1.299 1.3227 1.3536 1.421 1.2744 1.1397 1.2591
2633.055 1.2893 1.2142 1.2405 1.1922 1.1427 1.2609 1.3 1.2606 1.1444 1.0705
2652.345 1.1995 1.3119 1.3373 1.301 1.501 1.601 1.561 1.641 1.671 1.691
2671.634 1.871 2.041 2.101 2.181 2.291 2.481 2.441 2.481 2.651 2.651
2690.924 2.571 2.541 2.631 2.761 2.861 2.921 3.021 2.951 2.861 2.941
2710.214 3.011 3.291 3.511 3.551 3.521 3.581 3.611 3.391 3.291 3.521
2729.504 3.651 3.561 3.601 3.641 3.631 3.801 4.201 4.231 4.141 4.241
2748.794 4.331 4.461 4.591 4.761 4.941 5.111 5.401 5.801 6.331 6.741
2768.083 7.411 8.451 9.231 10.301 11.651 12.661 13.561 14.391 15.091 15.921
2787.373 16.341 16.511 16.821 17.121 17.501 18.051 19.071 20.511 22.301 24.411
2806.663 26.961 29.641 32.161 34.361 36.131 37.571 38.581 39.161 39.191 38.861
2825.953 38.341 37.741 36.881 35.771 34.421 33.021 31.801 30.261 28.821 27.501
2845.242 26.191 24.891 23.681 22.961 22.451 21.781 21.171 20.901 20.521 19.871
2864.532 18.991 17.981 17.011 15.861 14.941 14.341 13.551 12.771 12.251 11.871
2883.822 11.631 11.671 11.481 11.451 11.701 11.831 12.001 11.991 11.891 11.811
2903.112 11.481 11.151 11.061 11.051 10.891 10.791 11.091 11.351 11.681 12.481
2922.401 13.451 14.501 15.851 17.351 19.161 21.311 23.551 26.111 28.811 31.681
2941.691 34.781 37.811 40.851 43.141 44.441 44.941 45.041 44.581 43.451 41.271
2960.981 38.131 35.011 31.751 28.411 25.271 22.581 20.541 19.321 18.671 18.321
2980.271 18.101 17.671 17.011 16.721 16.461 15.641 14.631 13.231 11.361 9.791
2999.561 8.341 7.091 6.071 4.721 3.801 3.351 2.741 2.231 1.741 1.401
3018.850 1.461 1.421 1.411 1.461 1.501 1.641 1.601 1.421 1.431 1.711
3038.140 1.681 1.471 1.601 1.421 1.1904 1.2784 1.3664 1.3628 1.3109 1.451
3057.430 1.381 1.1893 1.0669 0.9184 0.9183 1.0302 1.1868 1.501 1.511 1.1831
3076.720 1.1385 1.2837 1.2302 1.1773 1.2096 1.1501 0.9572 1.0872 1.2865 1.0583
3096.009 0.8583 1.0357 1.209 1.1324 1.0132 0.9526 0.9972 1.0295 0.9602 0.916
3115.299 0.779 1.071 1.2852 1.0148 0.997 1.0225 0.9716 0.9554 1.0537 1.1487
3134.589 0.9899 0.8427 0.795 0.7775 0.9276 0.8647 0.7856 1.012 1.0754 0.845
3153.879 0.7768 0.8042 0.8656 0.7532 0.7349 0.9381 0.8888 0.8917 0.9495 0.7777
3173.169 0.6458 0.87 0.8552 0.5753 0.6993 0.6515 0.6064 0.736 0.6514 0.6964
3192.458 0.7915 0.8167 0.8064 0.8662 0.9738 0.8749 0.7966 0.8613 1.0117 0.9428
3211.748 0.9177 1.0711 0.8022 0.6517 0.7364 0.8247 0.7213 0.5959 0.8522 0.5958
3231.038 0.209 0.46915 0.6191 0.512 0.5206 0.5636 0.7259 0.7463 0.6857 0.5997
3250.328 0.40631 0.47532 0.6787 0.788 0.6176 0.2998 0.259 0.380254 0.39284 0.5894
3269.617 0.7719 0.7328 0.48094 0.3633 0.5816 0.6627 0.4905 0.4736 0.6196 0.6255
3288.907 0.6243 0.6499 0.575 0.5392 0.6045 0.8568 0.8026 0.7435 0.9096 0.6559
3308.197 0.5555 0.6769 0.6185 0.6274 0.6451 0.5177 0.6068 0.9106 0.973 0.7408
3327.487 0.6139 0.7113 0.7206 0.5551 0.5206 0.6582 0.7863 0.7252 0.5993 0.649
3346.777 0.8202 0.7554 0.6814 0.5134 0.47425 0.9125 1.0405 0.7358 0.517 0.6747
3366.066 0.7779 0.74 0.6306 0.3657 0.358 0.7997 0.8937 0.6599 0.40664 0.242
3385.356 0.5522 0.739 0.5976 0.40888 0.46689 0.5696 0.5579 0.40117 0.3276 0.6875
3404.646 0.8732 0.5493 0.5652 0.7911 0.5829 0.42291 0.4816 0.5109 0.5946 0.6718
3423.936 0.7067 0.7678 0.7154 0.7062 0.6142 0.5981 0.7341 0.5881 0.3275 0.40322
3443.225 0.5406 0.504 0.3266 0.39668 0.5097 0.45947 0.40445 0.5094 0.47332 0.2942
3462.515 0.5148 0.7906 0.68 0.387901 0.5444 0.7013 0.7889 0.7214 0.41618 0.3084
3481.805 0.40046 0.3596 0.2966 0.5734 0.7208 0.47517 0.5037 0.5616 0.4856 0.5821
3501.095 0.5437 0.45472 0.45009 0.6618 0.8705 0.9662 0.6415 0.28 0.223 0.206
3520.385 0.2942 0.5507 0.8125 0.651 0.5229 0.7712 0.7927 0.751 0.962 0.9548
3539.674 0.6889 0.4524 0.46711 0.5211 0.4872 0.5453 0.5416 0.6723 1.0016 0.9559
3558.964 0.567 0.41747 0.45204 0.2858 0.3342 0.46432 0.6179 0.7842 0.6139 0.40913
3578.254 0.5086 0.64 0.6606 0.7671 0.8251 0.6754 0.67 0.6176 0.5071 0.6069
3597.544 0.6044 0.4948 0.5517 0.7986 0.6664 0.5488 0.5374 0.6179 0.47568 0.3376
3616.833 0.5912 0.5632 0.5162 0.37217 0.326 0.6436 0.6328 0.4869 0.5711 0.7009
3636.123 0.8036 0.5018 0.4204 0.5673 0.4927 0.4312 0.5374 0.8331 0.9427 0.7118
3655.413 0.5279 0.6296 0.564 0.6281 0.665 0.6376 0.7882 0.6555 0.5318 0.6806
3674.703 0.8844 0.6813 0.6082 0.9212 0.9797 0.7811 0.6272 0.6525 0.6791 0.5661
3693.993 0.5505 0.6553 0.5089 0.3374 0.5435 0.7095 0.5842 0.6395 0.5552 0.3141
3713.282 0.44947 0.4871 0.46547 0.3039 0.193 0.3599 0.5297 0.6785 0.7211 0.6052
3732.572 0.5275 0.5779 0.5663 0.5278 0.4878 0.40523 0.234 0.266 0.5241 0.6855
3751.862 0.46665 0.5055 0.7045 0.6303 0.6335 0.47639 0.3605 0.5996 0.6931 0.5066
3771.152 0.43142 0.5072 0.6701 0.8801 0.7138 0.4044 0.6231 0.7844 0.5482 0.46376
3790.441 0.5995 0.6144 0.6154 0.581 0.636 0.8453 0.6868 0.42626 0.4207 0.45678
3809.731 0.44241 0.5771 0.686 0.5705 0.40281 0.4835 0.6715 0.5572 0.6023 0.6039
3829.021 0.47486 0.6079 0.6867 0.45914 0.3306 0.4844 0.6235 0.5534 0.284 0.43755
3848.311 0.47609 0.5511 0.7004 0.39473 0.235 0.26 0.39782 0.3383 0.2906 0.47944
3867.601 0.7059 0.8688 0.8223 0.7013 0.5352 0.3519 0.5549 0.7797 0.8836 0.8223
3886.890 0.7803 1.1691 1.0265 0.7609 0.9066 0.9009 0.7759 0.7449 1.0258 1.0267
3906.180 0.6458 0.5316 0.6771 0.971 1.0356 0.9779 0.7387 0.6268 0.8086 0.9003
3925.470 1.0962 0.9534 0.8523 0.9636 0.8301 0.863 1.1763 1.3346 0.9807 0.8322
3944.760 0.9461 0.8506 0.7529 0.5159 0.5588 0.9715 1.1255 1.0404 1.0293 1.0421
3964.049 1.0509 0.8629 1.0277 1.0167 0.5502 0.5526 0.7655 0.7837 0.6338 0.3622
3983.339 0.5223 0.7796 0.7036 0.8501 0.8661 0.911 0.8216 0.7267 0.7392 0.7839
##END=
