##TITLE=exo-2-Bromonorbornane
##JCAMP-DX=4.24
##DATA TYPE=INFRARED SPECTRUM
##ORIGIN=NIST Mass Spectrometry Data Center
##OWNER=NIST Standard Reference Data Program
Collection (C) 2018 copyright by the U.S. Secretary of Commerce
on behalf of the United States of America. All rights reserved.
##CAS REGISTRY NO=2534-77-2
##MOLFORM=C 7 H 11 Br
##$NIST SOURCE=MSDC-IR
##SPECTROMETER/DATA SYSTEM=HP-GC/MS/IRD
##STATE=gas
##XUNITS=1/CM
##YUNITS=ABSORBANCE
##XFACTOR=1.0
##YFACTOR=0.000010600
##DELTAX=4.0
##FIRSTX=550.0
##LASTX=3846.0
##FIRSTY=0.000286
##MAXX=3846
##MINX=550
##MAXY=0.106
##MINY=0
##NPOINTS=825
##XYDATA=(X++(Y..Y))
550.0 27 19 16 65 114 143 154 146 107 66
590.0 63 81 113 170 287 476 717 963 1140 1173
630.0 1055 783 425 188 101 64 52 49 53 62
670.0 59 54 44 21 5 0 2 4 10 20
710.0 31 34 34 32 18 3 1 10 30 68
750.0 125 203 304 365 363 337 268 179 127 115
790.0 121 145 185 204 198 212 218 193 173 166
830.0 151 126 104 85 71 73 83 99 125 162
870.0 200 231 293 386 452 462 454 408 294 196
910.0 173 183 199 220 254 356 580 904 1157 1227
950.0 1162 913 524 240 120 65 40 27 17 15
990.0 15 19 26 27 26 29 30 37 55 79
1030.0 115 166 205 219 222 198 154 104 57 32
1070.0 24 19 16 21 29 34 41 52 73 106
1110.0 140 167 190 224 260 279 289 283 249 199
1150.0 150 121 108 99 95 107 147 232 381 537
1190.0 626 647 608 495 385 370 468 741 1170 1517
1230.0 1672 1751 1707 1424 1100 926 816 634 428 316
1270.0 264 228 222 241 281 330 378 425 469 507
1310.0 515 483 415 313 215 148 104 74 54 41
1350.0 31 24 18 13 9 7 9 11 14 16
1390.0 20 27 36 45 53 61 73 94 127 178
1430.0 255 360 500 653 797 904 935 895 805 683
1470.0 575 486 405 340 278 204 140 100 76 59
1510.0 48 42 36 33 32 30 28 26 23 24
1550.0 23 16 10 10 10 9 10 11 12 12
1590.0 11 9 10 10 11 10 6 6 7 6
1630.0 5 4 3 3 4 3 0 3 7 8
1670.0 8 6 8 10 9 8 6 2 4 7
1710.0 6 4 2 3 5 5 3 5 8 8
1750.0 10 11 11 13 14 14 13 14 13 13
1790.0 11 10 11 10 9 10 12 13 12 13
1830.0 14 16 16 15 16 14 14 15 13 11
1870.0 13 14 15 15 14 13 13 12 10 11
1910.0 9 10 11 11 12 15 16 17 16 17
1950.0 17 14 14 12 9 7 6 6 7 8
1990.0 9 8 7 8 11 12 13 15 16 17
2030.0 18 18 18 20 20 21 25 31 35 37
2070.0 39 41 38 36 33 31 28 26 28 25
2110.0 22 21 22 25 28 30 33 35 34 33
2150.0 34 34 33 33 35 36 38 38 40 40
2190.0 36 34 34 33 32 32 31 30 31 30
2230.0 30 31 32 30 27 26 25 23 21 21
2270.0 20 18 16 16 19 20 21 20 22 23
2310.0 26 28 26 26 25 24 26 28 29 29
2350.0 27 22 20 18 16 15 16 16 15 13
2390.0 15 16 15 14 14 14 13 14 14 14
2430.0 14 14 15 13 16 12 9 9 6 5
2470.0 3 5 6 6 5 7 9 9 10 11
2510.0 10 9 9 7 4 3 5 6 6 7
2550.0 7 8 9 12 14 14 16 14 15 15
2590.0 14 14 15 14 12 13 12 8 7 4
2630.0 0 1 2 4 5 6 8 10 9 8
2670.0 7 7 9 11 10 11 13 14 14 15
2710.0 17 15 15 18 20 21 18 20 28 27
2750.0 29 35 39 46 49 50 53 55 54 51
2790.0 49 46 44 44 46 48 52 58 65 77
2830.0 95 116 145 185 236 312 426 591 830 1164
2870.0 1613 2134 2538 2720 2700 2461 2052 1656 1410 1319
2910.0 1345 1445 1603 1832 2141 2504 2896 3342 3860 4456
2950.0 5244 6337 7731 9166 10000 9966 9257 8089 6512 4956
2990.0 3768 2862 2126 1482 985 630 401 270 193 150
3030.0 130 119 112 108 105 106 106 101 96 95
3070.0 88 73 63 54 44 31 24 22 23 22
3110.0 19 19 18 17 16 14 14 16 16 18
3150.0 22 27 33 37 36 40 42 36 32 29
3190.0 25 21 18 17 15 11 7 10 15 16
3230.0 23 28 29 31 29 21 16 17 19 11
3270.0 4 7 8 7 7 4 3 2 4 5
3310.0 6 5 1 3 5 12 14 15 22 24
3350.0 24 25 25 22 22 21 15 11 9 7
3390.0 7 6 4 5 10 16 18 21 25 28
3430.0 31 30 28 21 12 13 13 9 8 7
3470.0 7 8 4 0 0 3 7 6 4 4
3510.0 6 7 7 5 7 5 7 15 12 12
3550.0 12 9 7 6 5 5 9 14 15 11
3590.0 9 7 6 15 16 11 13 14 12 13
3630.0 10 8 7 11 14 11 12 14 13 12
3670.0 9 11 15 15 13 10 14 16 21 24
3710.0 23 27 31 33 36 39 35 31 34 32
3750.0 25 27 25 26 29 26 22 25 26 25
3790.0 23 19 24 28 29 25 18 17 19 21
3830.0 23 20 19 24 24
##END=
