##TITLE=1-(3-Tolyl)imidazole
##JCAMP-DX=4.24
##DATA TYPE=INFRARED SPECTRUM
##ORIGIN=EPA-IR VAPOR PHASE LIBRARY
##OWNER=SRD/NIST
Collection (C) 2018 copyright by the U.S. Secretary of Commerce
on behalf of the United States of America. All rights reserved.
##CAS REGISTRY NO=25364-43-6
##MOLFORM=C 10 H 10 N 2
##$NIST SOURCE=MSDC-IR
##STATE=gas
##XUNITS=1/CM
##YUNITS=ABSORBANCE
##XFACTOR=1.
##YFACTOR=0.001
##DELTAX=1.92898
##FIRSTX=549.8
##LASTX=4000.7
##FIRSTY=0.707
##MAXX=4000.7
##MINX=549.759
##MAXY=0.140501
##MINY=0
##NPOINTS=1790
##XYDATA=(X++(Y..Y))
549.759 0.707 0.5337 0.058 0.1436 0.4222 0.3975 0.4708 0.8185 0.7991 0.6961
569.049 0.8603 0.7794 0.7201 0.9658 1.0716 0.6637 0.1548 0.1299 0.6952 0.9068
588.339 0.844 0.7302 0.4708 0.4329 0.6711 0.8461 0.8975 1.017 0.9349 0.9624
607.628 1.301 1.531 1.541 1.771 2.051 2.271 2.631 2.981 3.321 3.511
626.918 3.701 3.961 4.081 4.151 4.351 4.731 5.331 6.261 7.521 8.761
646.208 10.301 11.921 13.051 14.131 15.221 15.591 14.961 14.311 13.631 12.611
665.498 12.111 11.981 11.971 12.411 12.841 13.251 14.081 15.191 16.611 17.801
684.787 18.691 20.031 22.011 24.191 24.401 22.341 20.291 18.941 18.061 17.091
704.077 16.231 15.901 15.891 16.491 17.611 19.051 20.861 22.721 24.121 24.941
723.367 24.731 23.341 21.741 19.961 17.761 15.401 13.101 11.181 9.571 8.181
742.657 7.051 6.151 5.601 5.381 5.221 5.051 5.321 5.701 6.221 7.381
761.947 8.811 10.661 13.091 15.611 18.181 20.771 23.281 26.011 29.181 33.471
781.236 35.931 32.811 28.301 25.971 24.341 22.661 20.741 18.951 17.911 17.251
800.526 17.041 17.571 18.361 19.111 19.821 19.951 19.131 17.931 16.601 14.941
819.816 13.331 11.991 11.081 11.121 11.951 13.021 13.781 13.841 13.531 13.021
839.106 12.511 11.931 10.251 7.871 6.001 4.941 4.551 4.671 4.811 5.121
858.395 5.371 5.581 6.161 6.731 7.111 7.301 7.201 6.711 6.231 6.141
877.685 5.921 5.591 5.611 5.891 6.471 7.601 9.451 11.801 13.661 13.991
896.975 13.651 13.301 12.691 12.041 10.211 7.271 4.701 3.041 2.251 1.931
916.265 1.641 1.341 1.241 1.201 1.0563 0.9349 0.9773 0.925 0.7423 0.7146
935.555 0.8934 1.051 1.0634 1.043 0.9751 1.1637 1.401 1.361 1.311 1.341
954.844 1.431 1.701 1.961 2.041 2.241 2.521 2.921 3.401 3.811 4.161
974.134 4.351 4.601 5.051 5.311 5.391 5.511 5.651 5.981 6.491 6.841
993.424 7.071 7.231 7.361 7.571 7.731 7.811 7.521 7.021 6.621 6.201
1012.714 5.781 5.491 5.011 4.471 4.241 3.851 3.671 3.961 3.831 3.911
1032.003 4.411 4.941 6.091 7.791 10.651 15.581 22.851 32.861 45.581 57.481
1051.293 64.781 68.071 69.291 68.441 65.231 57.811 45.561 32.121 21.411 14.691
1070.583 10.621 8.541 7.541 7.031 7.041 7.251 7.771 8.481 8.881 8.921
1089.873 9.371 10.371 10.901 11.011 11.011 10.721 10.641 11.111 11.251 10.951
1109.163 10.421 9.761 9.351 8.621 7.831 7.281 6.661 5.631 4.611 3.991
1128.452 3.501 3.171 2.541 2.461 2.571 2.441 2.441 2.051 2.151 2.531
1147.742 2.291 1.921 1.791 1.951 2.161 2.081 2.301 2.611 2.621 2.561
1167.032 2.671 2.811 2.831 2.811 3.061 3.391 3.881 4.791 5.841 7.391
1186.322 8.831 10.101 11.221 12.161 13.021 13.181 12.541 11.271 9.461 7.961
1205.611 6.971 6.041 5.021 4.311 3.971 3.851 4.031 4.121 4.101 4.221
1224.901 4.391 5.031 6.411 8.001 10.281 13.161 16.181 18.631 20.421 21.551
1244.191 21.991 22.071 21.261 19.251 16.311 13.771 11.981 10.341 8.871 7.651
1263.481 6.861 6.191 5.591 5.471 5.441 5.491 5.711 6.021 6.491 7.341
1282.771 8.571 10.321 12.741 15.851 20.231 25.791 32.181 38.691 44.541 49.111
1302.060 51.921 52.841 51.711 48.501 43.501 37.181 30.251 23.871 18.791 15.001
1321.350 12.201 10.021 8.181 6.621 5.351 4.421 3.831 3.491 3.361 3.291
1340.640 3.221 3.291 3.421 3.581 3.761 3.961 4.301 4.731 5.221 5.721
1359.930 6.281 6.811 7.241 7.601 7.851 7.971 7.841 7.491 7.071 6.461
1379.219 5.811 5.311 4.761 4.301 3.991 3.741 3.641 3.601 3.551 3.521
1398.509 3.491 3.501 3.531 3.551 3.541 3.621 3.701 3.731 3.861 4.031
1417.799 4.221 4.481 4.821 5.231 5.771 6.331 6.901 7.561 8.271 8.931
1437.089 9.721 10.601 11.481 12.331 13.101 13.851 14.651 15.571 16.511 17.421
1456.378 18.201 18.741 19.321 20.021 21.011 22.431 24.391 27.181 30.941 35.941
1475.668 41.611 47.121 52.281 58.051 65.421 74.821 86.101 98.221 110.231 121.521
1494.958 131.021 137.701 140.501 138.981 132.411 120.201 102.931 83.901 66.691 52.881
1514.248 42.601 34.881 29.121 25.051 22.331 20.661 19.791 19.431 19.191 18.901
1533.538 18.591 18.111 17.401 16.551 15.571 14.551 13.491 12.521 11.681 11.001
1552.827 10.691 10.641 10.851 11.411 12.371 13.711 15.301 17.051 18.891 20.611
1572.117 22.121 23.521 25.021 26.611 28.201 29.911 31.761 33.631 35.541 37.461
1591.407 39.061 40.421 41.671 42.831 43.931 45.101 46.611 48.461 50.511 52.271
1610.697 52.991 52.331 50.121 46.371 41.651 36.401 30.761 25.171 20.191 15.991
1629.986 12.621 10.121 8.341 7.021 6.141 5.591 5.231 5.081 5.041 5.101
1649.276 5.321 5.701 6.071 6.291 6.411 6.511 6.411 6.121 5.791 5.441
1668.566 4.991 4.431 3.971 3.571 3.261 3.071 2.951 2.861 2.781 2.781
1687.856 2.881 3.091 3.441 3.811 4.271 4.581 4.601 4.541 4.351 4.071
1707.146 3.771 3.331 2.771 2.361 2.181 2.061 2.081 2.151 2.151 2.201
1726.435 2.241 2.291 2.341 2.361 2.301 2.331 2.321 2.171 2.121 2.061
1745.725 2.021 2.011 2.051 2.041 2.001 2.061 2.071 2.001 1.991 1.981
1765.015 1.921 1.901 1.811 1.741 1.691 1.601 1.491 1.411 1.381 1.371
1784.305 1.371 1.351 1.291 1.251 1.201 1.1386 1.0833 1.0825 1.0631 0.9792
1803.594 0.9947 1.0045 0.8987 0.8919 0.8865 0.8116 0.8746 0.9725 0.9998 1.0273
1822.884 1.1137 1.1767 1.211 1.231 1.241 1.291 1.361 1.381 1.411 1.381
1842.174 1.331 1.351 1.381 1.461 1.531 1.571 1.671 1.751 1.791 1.831
1861.464 1.821 1.771 1.671 1.531 1.431 1.271 1.0814 0.9348 0.7848 0.7222
1880.754 0.7372 0.696 0.6261 0.5932 0.5715 0.5673 0.5496 0.5523 0.6411 0.7102
1900.043 0.7253 0.7495 0.7955 0.8301 0.8268 0.8651 1.0178 1.0731 1.1052 1.251
1919.333 1.381 1.551 1.691 1.801 1.921 2.011 2.051 2.001 1.941 1.881
1938.623 1.751 1.631 1.461 1.271 1.1384 1.0129 0.905 0.8327 0.7624 0.7063
1957.913 0.613 0.584 0.6569 0.6724 0.6694 0.6417 0.5904 0.6378 0.7419 0.7076
1977.202 0.6834 0.6976 0.6766 0.6465 0.635 0.6562 0.6149 0.5524 0.4978 0.5088
1996.492 0.5134 0.4441 0.4004 0.3727 0.3994 0.4281 0.4544 0.4164 0.3795 0.4534
2015.782 0.4639 0.3665 0.3768 0.4492 0.4156 0.4018 0.4397 0.4686 0.423 0.3984
2035.072 0.4425 0.4784 0.5262 0.5608 0.4942 0.4198 0.4979 0.5813 0.5635 0.5475
2054.362 0.5259 0.4901 0.5398 0.5533 0.525 0.4954 0.4901 0.5248 0.4845 0.4256
2073.651 0.4249 0.4534 0.4723 0.4596 0.444 0.434 0.4144 0.4262 0.3877 0.363
2092.941 0.4159 0.4273 0.4519 0.4541 0.4333 0.4672 0.5395 0.5421 0.5079 0.498
2112.231 0.4554 0.4187 0.3926 0.4452 0.4262 0.3852 0.431 0.4717 0.5157 0.5185
2131.521 0.572 0.5712 0.5471 0.5986 0.6278 0.6218 0.5893 0.6513 0.7053 0.6597
2150.810 0.6057 0.5875 0.5582 0.5889 0.6302 0.6088 0.6218 0.6458 0.6514 0.6303
2170.100 0.6422 0.617 0.5628 0.6453 0.7292 0.6885 0.6668 0.6554 0.5722 0.511
2189.390 0.5265 0.5178 0.5192 0.5587 0.5836 0.608 0.5942 0.6088 0.6022 0.5724
2208.680 0.6095 0.5838 0.5515 0.5648 0.606 0.6472 0.6062 0.6308 0.71 0.7136
2227.970 0.5923 0.4549 0.466 0.5204 0.4875 0.4429 0.4344 0.4147 0.4184 0.4312
2247.259 0.3976 0.433 0.5507 0.4977 0.4406 0.4621 0.4573 0.4964 0.5083 0.5518
2266.549 0.5952 0.5632 0.5305 0.5271 0.5815 0.6197 0.5653 0.5524 0.5843 0.6398
2285.839 0.6724 0.6249 0.6703 0.6922 0.7096 0.7945 0.7489 0.7055 0.7361 0.7379
2305.129 0.7207 0.6786 0.6459 0.6218 0.554 0.5111 0.5276 0.57 0.6065 0.5563
2324.418 0.5225 0.545 0.5767 0.6447 0.6705 0.6516 0.6963 0.7315 0.7466 0.7885
2343.708 0.8097 0.8347 0.837 0.8095 0.8185 0.8468 0.8083 0.7563 0.7326 0.7346
2362.998 0.7203 0.7707 0.7479 0.6031 0.613 0.688 0.6622 0.6934 0.7599 0.6909
2382.288 0.6823 0.7217 0.7066 0.743 0.793 0.8109 0.8366 0.8561 0.8455 0.8523
2401.578 0.9326 1.0016 0.9981 0.9909 0.9511 0.9444 0.9541 0.9673 1.0541 1.1006
2420.867 1.0302 1.0032 1.0267 1.0202 0.9859 0.9197 0.8112 0.7381 0.7295 0.6794
2440.157 0.647 0.6089 0.5734 0.5994 0.5784 0.6373 0.7584 0.773 0.7246 0.6432
2459.447 0.6351 0.6377 0.6536 0.6874 0.6903 0.7392 0.8424 0.922 0.9821 1.0005
2478.737 0.972 0.9886 0.9852 1.0522 1.0934 1.1142 1.261 1.311 1.271 1.311
2498.026 1.381 1.311 1.241 1.221 1.201 1.1664 1.0938 1.0313 1.0165 1.0326
2517.316 0.9839 0.9927 1.0479 1.0087 0.9218 0.9493 1.0158 0.9847 0.9397 0.9455
2536.606 1.0628 1.0818 0.9878 1.0537 1.191 1.261 1.331 1.391 1.381 1.341
2555.896 1.381 1.451 1.481 1.511 1.541 1.531 1.581 1.611 1.541 1.571
2575.186 1.591 1.601 1.631 1.531 1.471 1.461 1.431 1.431 1.431 1.501
2594.475 1.481 1.391 1.451 1.471 1.451 1.461 1.371 1.331 1.291 1.211
2613.765 1.191 1.191 1.135 1.0222 1.0171 0.9743 0.8734 0.8406 0.8387 0.7552
2633.055 0.6842 0.7006 0.6529 0.6026 0.5787 0.5844 0.6193 0.6366 0.6126 0.6648
2652.345 0.7145 0.6652 0.5821 0.6291 0.6859 0.6163 0.554 0.6292 0.7074 0.7615
2671.634 0.8769 0.8197 0.7262 0.7643 0.788 0.8189 0.8913 0.8422 0.8332 0.8605
2690.924 0.8358 0.8608 0.8654 0.8768 0.8735 0.8295 0.7988 0.8663 0.9086 0.9519
2710.214 1.1088 1.1055 1.1057 1.271 1.421 1.491 1.511 1.591 1.611 1.601
2729.504 1.701 1.751 1.721 1.701 1.661 1.591 1.621 1.651 1.571 1.531
2748.794 1.581 1.571 1.591 1.521 1.401 1.411 1.341 1.291 1.271 1.281
2768.083 1.391 1.381 1.371 1.461 1.511 1.551 1.621 1.631 1.591 1.631
2787.373 1.661 1.631 1.591 1.541 1.511 1.551 1.601 1.591 1.501 1.451
2806.663 1.371 1.271 1.281 1.211 1.1493 1.1457 1.1497 1.1661 1.211 1.281
2825.953 1.311 1.331 1.331 1.441 1.551 1.531 1.671 1.811 1.791 1.921
2845.242 2.131 2.321 2.461 2.531 2.671 2.911 3.221 3.431 3.591 3.891
2864.532 4.231 4.621 5.031 5.461 5.811 5.991 6.221 6.331 6.341 6.301
2883.822 6.211 5.991 5.701 5.571 5.401 5.281 5.271 5.291 5.211 5.281
2903.112 5.571 5.851 6.151 6.381 6.631 7.231 7.751 8.261 9.001 9.761
2922.401 10.621 11.541 12.491 13.341 13.871 14.231 14.451 14.291 13.921 13.351
2941.691 12.541 11.681 10.811 9.901 9.081 8.441 7.761 7.121 6.691 6.271
2960.981 5.911 5.631 5.401 5.291 5.131 4.861 4.601 4.421 4.171 4.041
2980.271 4.161 4.231 4.311 4.431 4.451 4.701 5.041 5.141 5.221 5.391
2999.561 5.501 5.521 5.451 5.461 5.591 5.751 5.791 5.691 5.701 5.901
3018.850 6.081 6.401 6.861 7.311 7.931 8.701 9.521 10.251 11.071 12.011
3038.140 12.891 13.721 14.531 15.061 15.281 15.351 15.391 15.411 15.201 14.841
3057.430 14.421 13.801 13.431 13.291 13.071 13.001 12.801 12.391 11.791 11.071
3076.720 10.441 9.801 9.131 8.391 7.691 7.031 6.361 5.771 5.311 4.951
3096.009 4.701 4.511 4.321 4.201 4.251 4.311 4.451 4.581 4.611 4.841
3115.299 5.141 5.561 5.781 5.711 5.621 5.601 5.411 5.031 4.481 3.841
3134.589 3.241 2.721 2.461 2.281 2.171 2.181 2.291 2.341 2.311 2.291
3153.879 2.311 2.251 2.131 1.931 1.541 1.251 1.0125 0.887 0.8205 0.7493
3173.169 0.7544 0.5901 0.4958 0.52 0.5306 0.5392 0.5169 0.5017 0.4606 0.3721
3192.458 0.2993 0.3757 0.4158 0.4183 0.4251 0.3655 0.5328 0.5422 0.3564 0.2785
3211.748 0.2963 0.4241 0.4549 0.5437 0.4706 0.3293 0.328 0.3433 0.4093 0.3854
3231.038 0.3433 0.27593 0.184793 0.22374 0.3293 0.2317 0.318 0.3688 0.21242 0.2843
3250.328 0.3147 0.3817 0.4169 0.3652 0.3822 0.3274 0.25607 0.4435 0.4983 0.3501
3269.617 0.27111 0.21663 0.20092 0.21798 0.22367 0.18997 0.25545 0.236 0.23233 0.371
3288.907 0.318 0.3601 0.23689 0.047 0.1422 0.1245 0.3088 0.315 0.24728 0.26178
3308.197 0.1628 0.21374 0.3676 0.4368 0.4089 0.3202 0.27484 0.2997 0.2953 0.185707
3327.487 0.1189 0.22449 0.25804 0.22138 0.24375 0.2956 0.2895 0.3661 0.3562 0.3464
3346.777 0.4356 0.4317 0.3681 0.3435 0.2916 0.22787 0.21165 0.27946 0.3081 0.2897
3366.066 0.3488 0.2918 0.069 0 0.1651 0.20285 0.2252 0.2858 0.3245 0.3517
3385.356 0.3614 0.4428 0.3381 0.20223 0.3169 0.4022 0.456 0.4542 0.3808 0.333
3404.646 0.344 0.4338 0.4506 0.329 0.3699 0.5029 0.4144 0.27433 0.1116 0.1564
3423.936 0.3192 0.26539 0.2996 0.28076 0.1426 0.08 0.0868 0.19531 0.3658 0.3595
3443.225 0.1531 0.17 0.3543 0.3421 0.24668 0.23619 0.3483 0.4217 0.2846 0.20587
3462.515 0.1717 0.20448 0.24315 0.23497 0.2971 0.344 0.3785 0.3631 0.2991 0.342
3481.805 0.4084 0.4218 0.4435 0.3037 0.1525 0.1493 0.20433 0.2996 0.3079 0.2916
3501.095 0.23762 0.25515 0.20781 0.25496 0.26274 0.0895 0.112 0.26454 0.36 0.3158
3520.385 0.181484 0.0889 0.1137 0.1682 0.3214 0.293 0.2574 0.24739 0.26795 0.39
3539.674 0.3582 0.3006 0.25846 0.1578 0.23877 0.3053 0.2823 0.4169 0.3505 0.24525
3558.964 0.3176 0.3417 0.3253 0.26022 0.2932 0.3457 0.3079 0.3249 0.24241 0.19604
3578.254 0.188254 0.19346 0.3902 0.4024 0.3079 0.27829 0.185461 0.23662 0.26506 0.121
3597.544 0.1455 0.26127 0.3955 0.4418 0.3976 0.3097 0.24866 0.3095 0.1678 0.1559
3616.833 0.3884 0.2961 0.19263 0.22434 0.1533 0.1684 0.17371 0.22094 0.24399 0.3275
3636.123 0.4137 0.4176 0.3738 0.17395 0.2816 0.2964 0.21695 0.3323 0.27989 0.366
3655.413 0.3983 0.25995 0.3028 0.4082 0.3845 0.2845 0.1303 0.27178 0.4682 0.3145
3674.703 0.3047 0.3166 0.19571 0.21931 0.22788 0.19226 0.1144 0.2848 0.3859 0.26622
3693.993 0.27743 0.25085 0.281 0.321 0.3655 0.4357 0.4981 0.4849 0.4834 0.4119
3713.282 0.3263 0.3942 0.4358 0.482 0.4547 0.5018 0.5108 0.4413 0.4513 0.3668
3732.572 0.4404 0.4852 0.437 0.5068 0.4632 0.3189 0.4195 0.4934 0.437 0.4298
3751.862 0.3169 0.23789 0.27765 0.2835 0.3505 0.4385 0.4113 0.3231 0.26597 0.3097
3771.152 0.4011 0.3661 0.3011 0.22887 0.26231 0.3797 0.3168 0.19912 0.2819 0.3804
3790.441 0.3246 0.3044 0.3243 0.3165 0.24615 0.3196 0.3107 0.2973 0.3866 0.3553
3809.731 0.2642 0.27339 0.25075 0.20062 0.2495 0.2953 0.365 0.27699 0.20504 0.2817
3829.021 0.25454 0.1695 0.19137 0.17966 0.071 0.184849 0.3166 0.3297 0.4083 0.384
3848.311 0.393 0.2818 0.21069 0.3429 0.4134 0.3986 0.27825 0.24145 0.334 0.3466
3867.601 0.3827 0.3845 0.3625 0.4328 0.3653 0.27776 0.24826 0.22851 0.27745 0.3054
3886.890 0.4176 0.5646 0.3878 0.2853 0.3361 0.4471 0.4723 0.3751 0.4649 0.4094
3906.180 0.325 0.439 0.5837 0.6737 0.571 0.4652 0.5042 0.4785 0.44 0.5151
3925.470 0.5339 0.4239 0.397 0.3806 0.3693 0.3283 0.22 0.22844 0.20453 0.2829
3944.760 0.486 0.3886 0.3176 0.21863 0.053 0.25301 0.4108 0.4381 0.5845 0.6002
3964.049 0.3488 0.2596 0.2229 0.24603 0.4006 0.4844 0.6316 0.5115 0.4987 0.5325
3983.339 0.3616 0.4277 0.5215 0.4632 0.4195 0.4461 0.3405 0.4356 0.4863 0.4799
##END=
