##TITLE=2-Amino-6-methylbenzothiazole
##JCAMP-DX=4.24
##DATA TYPE=INFRARED SPECTRUM
##ORIGIN=NIST Mass Spectrometry Data Center
##OWNER=NIST Standard Reference Data Program
Collection (C) 2018 copyright by the U.S. Secretary of Commerce
on behalf of the United States of America. All rights reserved.
##CAS REGISTRY NO=2536-91-6
##MOLFORM=C 8 H 8 N 2 S
##$NIST SOURCE=MSDC-IR
##SPECTROMETER/DATA SYSTEM=HP-GC/MS/IRD
##STATE=gas
##XUNITS=1/CM
##YUNITS=ABSORBANCE
##XFACTOR=1.0
##YFACTOR=0.000003100
##DELTAX=4.0
##FIRSTX=550.0
##LASTX=3846.0
##FIRSTY=0.001941
##MAXX=3846
##MINX=550
##MAXY=0.031
##MINY=0
##NPOINTS=825
##XYDATA=(X++(Y..Y))
550.0 626 990 788 868 803 749 681 644 647 667
590.0 732 815 872 862 783 672 557 490 504 572
630.0 691 848 1003 1127 1185 1164 1075 994 947 938
670.0 931 888 798 730 690 680 740 826 853 860
710.0 852 764 696 669 650 630 647 699 750 789
750.0 805 802 779 763 769 779 794 804 811 848
790.0 948 1149 1479 1917 2430 3269 3651 3181 2728 2138
830.0 1462 970 696 594 549 531 540 509 419 341
870.0 280 232 198 200 223 264 322 354 364 347
910.0 301 245 184 140 113 99 100 105 114 105
950.0 90 78 69 61 56 52 53 61 68 85
990.0 102 113 107 98 89 58 30 16 24 52
1030.0 70 87 98 137 210 292 333 333 311 252
1070.0 249 364 571 880 1217 1438 1515 1462 1219 891
1110.0 636 459 333 265 216 158 97 54 37 30
1150.0 20 15 9 10 13 27 48 45 36 51
1190.0 89 141 198 232 234 216 168 133 149 192
1230.0 243 310 411 556 738 923 1133 1369 1579 1866
1270.0 2310 2843 3332 3694 3867 3890 3898 3928 3989 4059
1310.0 4093 4050 3828 3361 2718 2048 1486 1092 831 630
1350.0 480 369 279 215 176 148 134 127 116 118
1390.0 150 218 323 450 563 629 631 579 513 470
1430.0 464 497 609 882 1463 2475 3768 4938 5408 5033
1470.0 3947 2541 1477 912 654 528 471 475 527 619
1510.0 737 892 1090 1341 1682 2227 3194 4908 7307 9106
1550.0 9525 8764 6534 3876 2393 1767 1537 1547 1754 2157
1590.0 2766 3579 4653 6036 7612 9097 10000 9864 8723 6931
1630.0 4987 3398 2331 1667 1201 867 641 498 411 351
1670.0 306 270 242 225 226 237 249 257 261 255
1710.0 234 205 165 131 107 89 79 80 95 107
1750.0 106 97 71 41 24 18 20 22 30 36
1790.0 49 66 65 58 52 39 25 14 6 4
1830.0 2 0 0 0 9 19 22 22 36 59
1870.0 90 121 133 129 118 99 76 51 35 22
1910.0 12 6 3 2 1 1 0 2 8 12
1950.0 10 10 10 8 7 12 16 22 25 25
1990.0 27 23 16 13 10 8 4 6 12 7
2030.0 1 7 17 19 22 24 24 31 37 38
2070.0 35 32 30 25 23 22 21 26 25 28
2110.0 23 15 24 24 24 31 33 34 36 39
2150.0 49 51 44 36 33 32 30 32 33 38
2190.0 45 46 49 54 48 38 35 31 26 27
2230.0 25 26 33 28 22 28 30 28 28 30
2270.0 28 26 25 23 16 17 26 24 22 31
2310.0 29 23 23 30 27 21 20 26 35 27
2350.0 23 31 34 43 49 47 42 43 45 44
2390.0 42 35 30 30 30 28 21 17 14 13
2430.0 14 16 24 22 18 21 23 17 17 24
2470.0 20 17 19 17 17 16 18 23 25 24
2510.0 20 24 24 27 29 25 22 18 25 29
2550.0 24 22 21 24 35 41 44 43 43 41
2590.0 33 29 34 38 38 43 46 39 43 58
2630.0 74 85 88 84 80 75 69 63 56 50
2670.0 53 63 70 68 75 89 98 99 96 95
2710.0 97 88 82 84 84 85 85 94 110 116
2750.0 105 76 61 49 42 47 46 49 55 61
2790.0 68 69 74 86 89 79 92 117 125 136
2830.0 158 188 215 242 276 316 374 447 532 634
2870.0 724 795 822 812 771 722 687 684 698 723
2910.0 782 864 992 1174 1374 1517 1551 1445 1231 967
2950.0 743 618 538 480 451 440 430 425 443 457
2990.0 475 507 535 554 586 627 677 752 848 959
3030.0 1049 1081 1043 955 868 825 808 790 762 713
3070.0 659 618 573 525 478 427 370 305 239 180
3110.0 148 125 108 94 89 98 101 109 124 129
3150.0 118 106 98 89 80 71 54 55 67 55
3190.0 51 64 76 80 85 86 87 100 100 87
3230.0 87 89 91 74 49 51 53 41 40 45
3270.0 35 30 24 25 40 44 41 35 36 39
3310.0 41 42 46 55 53 50 43 38 35 41
3350.0 59 61 62 85 107 123 154 205 266 359
3390.0 524 774 1155 1680 2170 2451 2490 2263 1846 1435
3430.0 1065 751 520 346 241 197 158 133 137 149
3470.0 158 182 240 307 397 533 689 851 981 1045
3510.0 1063 1014 913 803 691 577 462 385 313 221
3550.0 161 137 102 71 59 50 48 33 29 37
3590.0 27 16 19 23 27 24 22 44 47 34
3630.0 28 30 36 44 36 34 36 35 37 35
3670.0 44 43 32 22 23 33 45 58 51 42
3710.0 44 49 51 56 62 66 64 61 62 74
3750.0 86 79 73 73 68 71 71 64 56 55
3790.0 46 36 39 36 38 36 30 31 40 57
3830.0 53 44 49 53 54
##END=
