##TITLE=1-(4-Trifluoromethylphenyl)imidazole
##JCAMP-DX=4.24
##DATA TYPE=INFRARED SPECTRUM
##ORIGIN=EPA-IR VAPOR PHASE LIBRARY
##OWNER=SRD/NIST
Collection (C) 2018 copyright by the U.S. Secretary of Commerce
on behalf of the United States of America. All rights reserved.
##CAS REGISTRY NO=25371-98-6
##MOLFORM=C 10 H 7 F 3 N 2
##$NIST SOURCE=MSDC-IR
##STATE=gas
##XUNITS=1/CM
##YUNITS=ABSORBANCE
##XFACTOR=1.
##YFACTOR=0.001
##DELTAX=1.92898
##FIRSTX=549.8
##LASTX=4000.7
##FIRSTY=1.4258
##MAXX=4000.7
##MINX=549.759
##MAXY=0.42377
##MINY=0
##NPOINTS=1790
##XYDATA=(X++(Y..Y))
549.759 1.4258 1.48 1.79 1.77 1.56 1.94 2.25 2.7 3.07 3.16
569.049 3.14 3.14 3.39 3.56 4.06 4.48 4.58 4.8 5.15 5.96
588.339 6.85 7.37 7.87 8.73 9.93 10.92 11.31 11.51 11.68 11.47
607.628 11.19 10.88 10.45 9.89 9.13 8.4 7.57 7.12 6.7 6.2
626.918 5.84 5.93 6.21 6.4 6.99 7.51 8.11 9.06 9.95 11
646.208 12.17 13.19 14.16 14.89 15.17 14.78 13.91 12.97 12.06 11.25
665.498 10.33 9.38 8.43 7.41 6.74 6.34 6.15 6.19 6.5 6.8
684.787 7.14 7.96 9.32 11.35 13.33 14.57 15.12 15.62 15.6 14.43
704.077 13.47 13.73 14.85 16.47 18.06 19.7 21.38 22.67 23.4 23.24
723.367 22.17 20.8 19.58 18.1 16.3 14.34 12.39 10.69 9.26 8.16
742.657 7.15 6 5.11 4.9 4.79 4.37 3.95 3.8 3.7 3.76
761.947 3.76 3.99 4.44 4.72 5.57 6.65 7.64 8.5 9.24 9.58
781.236 9.21 8.72 8.46 8.52 9.02 9.73 10.62 11.72 13.41 15.22
800.526 16.76 18.36 19.85 21.52 22.89 23.16 22.67 22.26 21.95 21.67
819.816 21.47 21.41 21.83 22.91 24.69 27.06 29.95 33.16 35.99 38.76
839.106 41.81 44.8 46.03 44.09 41.44 39.29 36.56 33.05 29.34 25.81
858.395 22.46 18.98 15.94 13.48 11.28 9.49 7.79 6.48 5.6 4.94
877.685 4.35 4.02 3.92 3.98 4.24 5.08 7.13 10.73 14.54 15.63
896.975 15.06 15.27 13.75 9.21 5.54 4.03 3.44 3.06 2.73 2.42
916.265 1.96 1.96 2.02 2.04 2.05 1.87 2.05 2.09 2.11 2.22
935.555 2.32 2.58 2.82 3.16 3.64 4.09 4.44 5.16 6.39 8.45
954.844 12 17.94 25.85 31.79 33.1 32.51 30.57 24.19 15.29 8.66
974.134 5.53 4.28 3.71 3.68 3.59 3.57 3.74 3.83 4.06 4.42
993.424 4.72 5.06 5.81 6.43 6.86 7.78 8.91 9.85 11.13 13.48
1012.714 17.38 23.34 30.55 36.09 38.03 38.05 36.51 31.59 25.37 21.69
1032.003 21.6 24.45 29.8 39.05 53.75 75.78 103.85 129.7 144.42 146.73
1051.293 139.5 120.36 90.46 61.97 45.23 41.53 47.68 62.12 80.43 93.4
1070.583 97.97 97.47 89.38 68.73 46.17 32.48 26.93 25.96 26.02 26.78
1089.873 28.91 32.21 36.8 43.28 49.49 53.29 56.2 58.29 57.76 56
1109.163 54.98 54.83 56.01 58.08 60.27 61.68 62.55 63.81 65.78 68.46
1128.452 71.78 76.48 83.02 91.18 102.22 115.58 130.73 147.98 166.5 186.03
1147.742 204.4 219.13 227.46 227.84 222.3 212 197.91 183.65 172.69 167.89
1167.032 168.75 173.23 177.56 177.81 173.66 163.86 150.08 135.64 121.41 108.04
1186.322 94.61 80.92 68.09 56.29 46.65 38.95 32.69 28.71 26 23.19
1205.611 20.67 19.19 17.91 17.18 16.97 17.1 17.59 18.05 18.86 19.61
1224.901 20.54 21.62 22.92 24.71 27.23 31.71 38.28 45.89 54.14 61.05
1244.191 64.55 64.84 62.13 56.25 49.34 43.65 39.13 35.7 32.72 29.72
1263.481 26.87 24.31 22.09 20.36 19.67 19.37 19.33 19.81 20.93 22.93
1282.771 25.64 29.51 35.46 44.16 56.92 74.76 97.98 125.63 153.36 175.02
1302.060 186.77 188.96 182.07 166.86 150.79 144.33 152.95 177.62 218.72 274
1321.350 335.47 389.74 421.89 423.77 395.22 338.63 261.59 183.21 123.06 85.32
1340.640 62.12 46.35 35.31 27.75 22.65 19.29 17.03 15.61 14.89 14.67
1359.930 14.94 15.91 17.63 20.18 23.68 28.07 32.85 37.11 39.73 39.89
1379.219 37.64 33.4 27.71 21.65 16.72 13.52 11.65 10.41 9.58 9.06
1398.509 8.73 8.65 8.69 8.89 9.41 10.12 10.94 11.88 12.84 13.85
1417.799 14.72 15.35 15.8 16.03 15.93 15.6 15.17 14.65 14.22 13.87
1437.089 13.54 13.36 13.32 13.32 13.43 13.76 14.29 14.99 15.82 16.78
1456.378 17.8 18.82 19.8 20.99 22.83 25.83 30.85 39.1 51.63 68.76
1475.668 88.24 105.77 115.35 115.09 106.79 91 68.54 46.45 31.48 23.83
1494.958 20.55 19.75 20.71 23.28 27.48 33.41 40.84 48.21 54.32 59.46
1514.248 64.08 67.98 70.81 73.43 76.16 77.53 76.22 71.82 65.13 57.18
1533.538 49.07 42.07 36.69 32.51 29.15 26.22 23.66 21.44 19.36 17.41
1552.827 15.55 13.79 12.5 11.62 11.15 11.12 11.54 12.49 13.82 15.33
1572.117 16.67 17.58 17.87 17.61 16.82 15.61 14.51 13.73 13.46 13.56
1591.407 14.05 15.13 16.5 18.54 21.68 26.13 32.14 40.12 50.09 61.29
1610.697 72.51 82.45 89.1 90.81 87.24 79.03 67.28 53.8 41.05 30.45
1629.986 22.43 16.87 13.2 10.68 9 7.99 7.26 6.79 6.54 6.45
1649.276 6.58 6.83 7.22 7.9 8.59 9.11 9.45 9.53 9.4 9.05
1668.566 8.48 7.79 7.03 6.44 5.95 5.57 5.23 4.86 4.5 4.1
1687.856 3.76 3.49 3.37 3.42 3.55 3.78 4.21 4.81 5.48 6.03
1707.146 6.3 6.38 6.06 5.47 4.76 3.95 3.32 2.89 2.59 2.45
1726.435 2.3 2.16 2.2 2.23 2.2 2.35 2.52 2.65 2.75 2.85
1745.725 2.94 2.93 2.91 2.92 2.91 2.89 2.9 2.86 2.87 2.97
1765.015 3.03 3.12 3.24 3.42 3.68 3.9 4.14 4.42 4.62 4.71
1784.305 4.65 4.44 4.08 3.67 3.3 2.93 2.64 2.44 2.23 2.03
1803.594 1.8 1.58 1.4497 1.3279 1.2346 1.2103 1.1983 1.1429 1.1838 1.2107
1822.884 1.2347 1.2712 1.2912 1.4339 1.55 1.61 1.67 1.64 1.66 1.7
1842.174 1.69 1.63 1.69 1.67 1.5 1.47 1.52 1.49 1.3401 1.2192
1861.464 1.1758 1.1606 1.1643 1.0865 1.0953 1.1687 1.1739 1.1618 1.2192 1.3554
1880.754 1.4245 1.48 1.56 1.69 1.92 2.07 2.24 2.52 2.83 3.12
1900.043 3.29 3.5 3.65 3.66 3.73 3.75 3.61 3.5 3.39 3.24
1919.333 2.99 2.77 2.59 2.35 2.18 1.98 1.79 1.69 1.59 1.47
1938.623 1.3902 1.3963 1.3766 1.377 1.3886 1.3541 1.2859 1.2876 1.344 1.373
1957.913 1.3159 1.2703 1.3419 1.3281 1.2028 1.2143 1.2682 1.3659 1.45 1.433
1977.202 1.4255 1.4286 1.49 1.5 1.5 1.51 1.51 1.4468 1.4281 1.48
1996.492 1.4069 1.284 1.2155 1.2236 1.2078 1.1245 1.0996 1.1041 1.085 0.995
2015.782 0.9656 0.9788 0.9068 0.9139 0.9273 0.9029 0.8514 0.8503 0.8373 0.7886
2035.072 0.7886 0.8532 0.8258 0.7419 0.7251 0.7636 0.7803 0.7747 0.739 0.6554
2054.362 0.7005 0.7627 0.769 0.7538 0.8236 0.86 0.846 0.8358 0.9252 1.0608
2073.651 1.0734 1.1128 1.0572 1.0406 1.0536 1.0372 1.0615 1.1456 1.2534 1.3307
2092.941 1.54 1.69 1.75 1.86 1.87 1.8 1.78 1.73 1.64 1.59
2112.231 1.5 1.2565 1.1016 1.0847 1.0512 1.031 0.9361 0.8544 0.9065 0.8994
2131.521 0.8752 0.881 0.8885 0.9522 0.9844 1.006 1.0209 1.0622 1.0583 1.0003
2150.810 1.0094 1.0223 0.9668 0.993 1.0327 0.9397 0.8928 0.8659 0.8644 0.8822
2170.100 0.8339 0.8495 0.8472 0.8758 0.995 0.9882 0.9154 0.9107 0.8758 0.8283
2189.390 0.9002 0.9715 0.9944 1.0164 1.0508 1.1062 1.1323 1.2499 1.3059 1.2654
2208.680 1.3764 1.4444 1.341 1.361 1.4033 1.4362 1.56 1.55 1.46 1.4454
2227.970 1.4125 1.3408 1.2223 1.242 1.3353 1.2803 1.2394 1.2189 1.2411 1.2357
2247.259 1.1683 1.1834 1.222 1.2285 1.1628 1.144 1.2199 1.2777 1.4278 1.53
2266.549 1.5 1.5 1.62 1.7 1.76 1.85 1.88 1.94 1.97 2.04
2285.839 2.09 2.02 2 2.04 1.98 1.84 1.79 1.71 1.61 1.61
2305.129 1.61 1.64 1.67 1.58 1.55 1.55 1.56 1.65 1.65 1.58
2324.418 1.5 1.47 1.55 1.53 1.4352 1.48 1.58 1.49 1.4449 1.48
2343.708 1.48 1.49 1.45 1.53 1.46 1.3152 1.3219 1.259 1.2359 1.2281
2362.998 1.2402 1.2617 1.2175 1.0875 1.0692 1.1224 1.0765 1.0083 0.9963 1.1165
2382.288 1.1029 1.0833 1.1352 1.145 1.2031 1.2611 1.3674 1.344 1.3699 1.4182
2401.578 1.313 1.3349 1.3366 1.2856 1.2542 1.2169 1.3178 1.2752 1.1921 1.3197
2420.867 1.397 1.47 1.47 1.3773 1.3538 1.2958 1.209 1.1572 1.1242 1.0468
2440.157 0.9829 0.9174 1.0081 1.1009 1.0084 1.0199 0.9659 0.8627 0.8793 0.955
2459.447 1.0112 1.0671 1.1245 1.1216 1.0925 1.185 1.3469 1.53 1.64 1.71
2478.737 1.82 1.86 1.99 2.1 2.17 2.23 2.24 2.33 2.3 2.23
2498.026 2.27 2.17 2.02 1.97 1.92 1.78 1.65 1.52 1.4418 1.3642
2517.316 1.2609 1.285 1.27 1.1825 1.0667 1.0123 1.0484 1.0941 1.0875 1.1275
2536.606 1.2039 1.2124 1.3108 1.46 1.49 1.391 1.4465 1.55 1.64 1.66
2555.896 1.66 1.77 1.75 1.75 1.82 1.86 1.91 1.8 1.66 1.72
2575.186 1.75 1.72 1.78 1.83 1.83 1.82 1.83 1.86 1.85 1.78
2594.475 1.84 1.97 1.96 1.87 1.79 1.75 1.75 1.72 1.69 1.72
2613.765 1.69 1.63 1.67 1.8 1.8 1.63 1.54 1.58 1.58 1.55
2633.055 1.59 1.6 1.55 1.46 1.4187 1.56 1.63 1.54 1.53 1.55
2652.345 1.4019 1.3751 1.3789 1.3337 1.3073 1.0931 1.0905 1.1551 1.1268 1.1117
2671.634 1.0763 1.0849 1.0642 1.0879 1.108 0.9942 0.9311 0.9369 0.8998 0.9073
2690.924 0.927 0.949 0.9841 0.9793 1.0378 1.0677 1.0577 1.1167 1.1728 1.2627
2710.214 1.3459 1.45 1.55 1.68 1.76 1.83 1.92 1.89 1.89 1.76
2729.504 1.7 1.79 1.76 1.68 1.64 1.7 1.68 1.59 1.56 1.46
2748.794 1.4111 1.5 1.46 1.2819 1.2613 1.2933 1.3317 1.3784 1.3615 1.3841
2768.083 1.47 1.62 1.64 1.58 1.71 1.77 1.76 1.77 1.56 1.5
2787.373 1.47 1.2354 1.0929 1.0805 1.0204 0.8636 0.8453 0.7764 0.6974 0.848
2806.663 0.8294 0.6955 0.7373 0.7803 0.7755 0.7729 0.8251 0.8844 0.8502 0.8959
2825.953 0.9281 0.8263 0.8677 0.9869 0.9642 0.8992 0.931 1.0546 0.9926 0.9809
2845.242 1.0665 0.9409 0.9534 1.0036 0.9115 0.7422 0.6844 0.7631 0.6601 0.53565
2864.532 0.5882 0.6331 0.5665 0.53349 0.6627 0.6024 0.481 0.50966 0.53539 0.5877
2883.822 0.5878 0.6307 0.6247 0.5931 0.5787 0.6368 0.6745 0.594 0.6967 0.7073
2903.112 0.6615 0.7909 0.8075 0.9601 0.9126 0.868 1.0714 1.0527 1.1555 1.2986
2922.401 1.1651 1.0532 1.243 1.4118 1.48 1.58 1.67 1.77 1.79 1.77
2941.691 1.8 1.76 1.68 1.6 1.49 1.5 1.49 1.3771 1.2671 1.209
2960.981 1.0179 0.7687 0.6194 0.48263 0.47874 0.6471 0.6734 0.6451 0.5603 0.46214
2980.271 0.49449 0.53897 0.52853 0.4346 0.53237 0.5991 0.5862 0.52073 0.3967 0.449011
2999.561 0.6253 0.5929 0.6587 0.8757 0.9152 0.8184 0.6784 0.7543 0.7429 0.6655
3018.850 0.7435 0.8774 0.8028 0.6686 0.7323 0.8238 0.8847 0.7918 0.8274 0.9343
3038.140 0.9482 0.9933 1.1709 1.3124 1.3149 1.46 1.5 1.72 2.11 2.27
3057.430 2.52 2.8 3.05 3.17 3.24 3.08 2.81 2.67 2.42 2.13
3076.720 2.18 2.27 2.15 2.33 2.6 2.61 2.62 2.62 2.56 2.47
3096.009 2.41 2.41 2.32 2.18 2.2 2.36 2.42 2.39 2.48 2.58
3115.299 2.8 3.2 3.51 3.81 4.13 4.36 4.26 4.07 3.88 3.42
3134.589 2.91 2.51 2.23 2.08 2.05 2.09 1.98 2.06 2.25 2.22
3153.879 2.13 2.01 1.8 1.54 1.2163 0.9437 0.8149 0.73 0.7328 0.6287
3173.169 0.5975 0.6783 0.5805 0.52367 0.50472 0.53291 0.5698 0.54728 0.6288 0.52985
3192.458 0.46917 0.52582 0.322 0.148 0.205 0.277 0.283 0.302 0.334 0.289
3211.748 0.289 0.331 0.3979 0.4186 0.4104 0.52991 0.6722 0.6148 0.458312 0.49756
3231.038 0.3583 0.332 0.3739 0.333 0.384 0.46155 0.48512 0.4145 0.3951 0.368
3250.328 0.286 0.236 0.26 0.179 0.005 0.113 0.337 0.334 0.198 0.198
3269.617 0.4124 0.3965 0.3732 0.318 0.256 0.4205 0.46616 0.47781 0.47159 0.265
3288.907 0.215 0.383 0.44237 0.237 0.185 0.50448 0.5741 0.3651 0.204 0.14
3308.197 0.158 0.18 0.284 0.212 0.155 0.167 0.222 0.233 0.124 0.219
3327.487 0.201 0.183 0.212 0.128 0.166 0.3938 0.48666 0.284 0.161 0.215
3346.777 0.11 0.077 0.141 0.082 0.105 0.259 0.308 0.314 0.4176 0.408
3366.066 0.292 0.32 0.50661 0.5591 0.276 0.267 0.3985 0.279 0.237 0.253
3385.356 0.253 0.143 0.159 0.39 0.3528 0.071 0.084 0.229 0.321 0.4133
3404.646 0.305 0.272 0.48498 0.51675 0.3541 0.192 0.019 0.139 0.261 0.148
3423.936 0.213 0.3552 0.3646 0.264 0.176 0.186 0.248 0.285 0.337 0.4212
3443.225 0.3787 0.244 0.137 0.221 0.32 0.268 0.3821 0.4264 0.173 0.186
3462.515 0.261 0.272 0.236 0.325 0.4397 0.245 0.188 0.059 0.159 0.3509
3481.805 0.3607 0.3798 0.302 0.223 0.305 0.346 0.278 0.4254 0.4327 0.3787
3501.095 0.329 0.271 0.249 0.334 0.48751 0.331 0.263 0.3907 0.259 0.096
3520.385 0.102 0.331 0.453169 0.264 0.198 0.269 0.307 0.303 0.3655 0.334
3539.674 0.3829 0.256 0 0.081 0.16 0.086 0.187 0.297 0.098 0.046
3558.964 0.223 0.269 0.23 0.206 0.33 0.3677 0.227 0.296 0.391 0.4086
3578.254 0.3803 0.31 0.307 0.261 0.347 0.4396 0.3691 0.274 0.298 0.287
3597.544 0.25 0.32 0.256 0.17 0.153 0.287 0.312 0.264 0.258 0.127
3616.833 0.217 0.263 0.182 0.158 0.179 0.338 0.4041 0.3507 0.34 0.3532
3636.123 0.318 0.221 0.276 0.3514 0.235 0.152 0.227 0.303 0.217 0.183
3655.413 0.183 0.149 0.148 0.122 0.099 0.193 0.234 0.236 0.3 0.254
3674.703 0.167 0.267 0.4198 0.4034 0.3592 0.3834 0.4209 0.4382 0.4317 0.49835
3693.993 0.6142 0.4307 0.276 0.318 0.327 0.323 0.4161 0.6633 0.6374 0.3793
3713.282 0.3 0.46328 0.6054 0.5596 0.5489 0.6115 0.53118 0.46258 0.5556 0.6305
3732.572 0.47931 0.3716 0.3646 0.336 0.4026 0.47479 0.4101 0.309 0.217 0.282
3751.862 0.5767 0.5957 0.44632 0.4389 0.45761 0.5917 0.5552 0.373 0.279 0.32
3771.152 0.47762 0.54866 0.5394 0.4046 0.52208 0.5668 0.426 0.426 0.5501 0.51768
3790.441 0.44457 0.48887 0.52589 0.51801 0.317 0.252 0.173 0.269 0.5526 0.52865
3809.731 0.336 0.27 0.4076 0.3937 0.46823 0.44866 0.3675 0.3954 0.337 0.3876
3829.021 0.4106 0.4436 0.4126 0.454458 0.46193 0.436 0.53087 0.4172 0.27 0.252
3848.311 0.238 0.233 0.266 0.322 0.33 0.333 0.219 0.21 0.293 0.261
3867.601 0.252 0.233 0.337 0.3656 0.4035 0.4969 0.494 0.44053 0.329 0.318
3886.890 0.251 0.248 0.342 0.263 0.239 0.3675 0.298 0.008 0.002 0.257
3906.180 0.277 0.335 0.281 0.294 0.53697 0.6041 0.52457 0.51271 0.6042 0.6408
3925.470 0.46635 0.22 0.291 0.203 0.119 0.286 0.3 0.312 0.179 0.08
3944.760 0.251 0.227 0.238 0.187 0.034 0.191 0.296 0.34 0.348 0.035
3964.049 0.04 0.315 0.317 0.266 0.197 0.344 0.5515 0.27 0.206 0.4252
3983.339 0.28 0.232 0.311 0.237 0.269 0.336 0.4336 0.4241 0.48223 0.5754
##END=
