##TITLE=1-(2-Trifluoromethylphenyl)imidazoline-2-thione
##JCAMP-DX=4.24
##DATA TYPE=INFRARED SPECTRUM
##ORIGIN=EPA-IR VAPOR PHASE LIBRARY
##OWNER=SRD/NIST
Collection (C) 2018 copyright by the U.S. Secretary of Commerce
on behalf of the United States of America. All rights reserved.
##CAS REGISTRY NO=25372-17-2
##MOLFORM=C 10 H 7 F 3 N 2 S
##$NIST SOURCE=MSDC-IR
##STATE=gas
##XUNITS=1/CM
##YUNITS=ABSORBANCE
##XFACTOR=1.
##YFACTOR=0.001
##DELTAX=1.92898
##FIRSTX=549.8
##LASTX=4000.7
##FIRSTY=0.8029
##MAXX=4000.7
##MINX=549.759
##MAXY=0.023495
##MINY=0
##NPOINTS=1790
##XYDATA=(X++(Y..Y))
549.759 0.8029 0.4296 0.5583 0.9229 1.0361 0.8606 1.0717 0.9046 0.865 1.1462
569.049 1.265 1.615 1.635 1.775 2.145 2.275 2.485 2.335 1.975 1.765
588.339 1.725 1.535 1.525 1.685 1.425 1.555 1.615 1.585 1.655 1.385
607.628 1.325 1.405 1.1687 0.7851 0.6748 0.7596 0.7467 0.7628 0.7806 0.8177
626.918 0.5048 0.1749 0.3356 0.4622 0.6524 0.8607 1.1015 1.525 1.755 1.735
646.208 1.865 2.005 2.115 2.275 2.495 2.815 3.265 3.795 4.235 4.435
665.498 4.255 3.845 3.345 2.555 1.865 1.535 1.415 1.385 1.265 1.405
684.787 1.625 1.895 2.255 2.735 3.365 4.105 4.915 5.335 5.345 5.175
704.077 4.585 3.675 2.835 2.075 1.655 1.355 0.8952 0.6782 0.7028 0.5955
723.367 0.4987 0.5491 0.671 0.6751 0.6626 0.5908 0.4571 0.4914 0.7012 0.7023
742.657 0.6041 0.7768 1.0132 1.365 1.845 2.385 3.165 3.825 4.315 5.195
761.947 5.775 5.345 4.475 3.665 2.895 2.285 1.935 1.585 1.285 1.0133
781.236 0.81 0.6382 0.6667 0.6909 0.5317 0.495 0.5435 0.5278 0.4332 0.3497
800.526 0.3315 0.3675 0.082 0.08 0.152 0.1427 0.2148 0.111 0.061 0.22764
819.816 0.3631 0.325 0.445 0.3872 0.285 0.30887 0.3802 0.4013 0.5296 0.5196
839.106 0.3896 0.601 0.6916 0.4564 0.29452 0.4856 0.4907 0.486 0.5639 0.6335
858.395 0.6578 0.6515 0.6675 0.792 1.0633 1.0688 1.024 0.9929 0.8542 0.5486
877.685 0.30759 0.5177 0.7178 0.7173 0.669 0.5305 0.5446 0.6044 0.5714 0.7516
896.975 1.1922 1.575 1.725 1.965 2.155 2.035 1.775 1.575 1.255 0.8988
916.265 0.6912 0.5231 0.5469 0.5236 0.4886 0.5288 0.4816 0.3906 0.4324 0.3972
935.555 0.3803 0.5162 0.6123 0.5723 0.5947 0.8481 0.7776 0.7365 0.9015 0.9075
954.844 0.7722 0.7494 0.9409 1.115 1.265 1.325 1.425 1.565 1.575 1.435
974.134 1.375 1.325 1.1458 0.8989 0.7307 0.643 0.6164 0.6792 0.7261 0.6977
993.424 0.5535 0.543 0.645 0.7801 0.8528 0.8572 0.7129 0.7446 0.9041 0.8586
1012.714 0.8933 0.7948 1.1327 1.395 1.1415 1.255 1.805 2.545 3.305 3.885
1032.003 4.535 5.195 5.465 5.765 5.845 5.835 5.885 5.615 5.325 5.125
1051.293 5.295 5.435 5.505 6.005 6.375 6.825 7.705 8.265 8.285 8.055
1070.583 7.425 6.735 5.585 4.605 4.095 3.015 2.235 2.095 2.385 2.475
1089.873 2.335 2.635 2.625 2.915 3.055 3.175 3.345 3.395 3.955 4.355
1109.163 4.915 5.365 5.645 6.045 6.385 6.635 6.945 7.405 7.415 7.355
1128.452 7.665 7.235 6.955 7.685 8.825 10.175 11.645 13.515 14.995 15.665
1147.742 16.395 16.085 14.495 12.665 10.325 8.175 6.715 5.895 5.445 5.015
1167.032 5.335 5.675 6.315 7.665 9.295 11.255 13.045 14.755 16.085 16.905
1186.322 17.035 15.965 13.865 11.825 9.745 7.655 6.155 4.845 4.205 3.945
1205.611 3.665 3.745 3.595 3.625 4.165 4.735 4.955 5.015 5.225 4.795
1224.901 4.255 4.255 4.365 4.435 4.785 4.965 5.085 5.585 6.315 6.995
1244.191 7.265 7.485 7.545 7.495 7.405 7.175 6.665 5.915 5.445 5.365
1263.481 5.235 5.335 5.675 5.855 5.995 6.225 6.305 5.945 5.505 5.105
1282.771 4.705 4.615 4.575 4.505 4.725 5.235 5.895 6.795 8.025 9.555
1302.060 11.515 13.785 16.115 18.455 20.565 22.255 23.295 23.495 22.815 21.185
1321.350 18.735 15.815 12.785 9.835 7.235 5.235 3.865 3.025 2.445 2.095
1340.640 1.905 1.785 1.705 1.655 1.655 1.635 1.585 1.575 1.585 1.575
1359.930 1.515 1.455 1.395 1.325 1.265 1.1836 1.1201 1.1207 1.103 1.0674
1379.219 1.1305 1.225 1.355 1.515 1.775 2.115 2.555 3.035 3.505 4.025
1398.509 4.495 4.815 4.965 4.885 4.585 4.175 3.675 3.255 2.925 2.775
1417.799 2.865 3.065 3.405 3.995 4.905 6.105 7.585 9.445 11.625 14.065
1437.089 16.645 18.905 20.695 21.685 21.785 21.055 19.635 18.045 16.555 15.305
1456.378 14.435 13.935 13.615 13.235 12.615 11.745 10.745 9.555 8.305 7.055
1475.668 5.965 5.095 4.345 3.745 3.385 3.225 3.355 3.645 3.995 4.465
1494.958 4.965 5.545 6.145 6.605 6.835 6.795 6.655 6.225 5.615 4.895
1514.248 4.045 3.265 2.605 2.115 1.685 1.395 1.1901 1.1102 1.0456 0.9317
1533.538 0.9447 0.9956 0.9459 0.8637 0.8082 0.8059 0.7656 0.704 0.7496 0.8187
1552.827 0.8643 0.884 0.8321 0.6995 0.7321 0.8533 0.9374 1.0899 1.295 1.385
1572.117 1.435 1.615 1.825 1.925 2.005 2.075 2.125 2.135 2.095 2.075
1591.407 2.035 2.005 2.045 2.155 2.295 2.435 2.665 2.835 2.815 2.745
1610.697 2.595 2.435 2.155 1.845 1.595 1.355 1.1767 1.0412 0.9286 0.9089
1629.986 0.8967 0.8885 0.8299 0.6881 0.6181 0.5362 0.4916 0.5204 0.4644 0.4213
1649.276 0.4734 0.4496 0.3983 0.3805 0.3703 0.3978 0.4067 0.3984 0.436 0.3693
1668.566 0.3542 0.3841 0.32085 0.3418 0.4048 0.3916 0.3574 0.3299 0.3258 0.26571
1687.856 0.28017 0.3977 0.4143 0.4169 0.3768 0.34 0.4068 0.4195 0.3443 0.3401
1707.146 0.3461 0.3444 0.4009 0.3973 0.329 0.3528 0.3918 0.371 0.3855 0.4421
1726.435 0.4059 0.3807 0.5007 0.4959 0.4723 0.5052 0.4457 0.4023 0.4238 0.4217
1745.725 0.3808 0.3469 0.30933 0.27108 0.30293 0.3685 0.3556 0.30963 0.31703 0.31425
1765.015 0.27475 0.27283 0.30974 0.30806 0.27314 0.283 0.26042 0.28 0.3454 0.30948
1784.305 0.26099 0.27618 0.29574 0.31259 0.295 0.25919 0.26109 0.29767 0.3542 0.3674
1803.594 0.3838 0.3955 0.4094 0.4263 0.4024 0.3783 0.4252 0.4741 0.4747 0.4261
1822.884 0.3705 0.3703 0.3389 0.31976 0.3383 0.30048 0.27353 0.341 0.3645 0.4008
1842.174 0.3709 0.28663 0.3454 0.4002 0.3822 0.3629 0.31056 0.28054 0.25818 0.2169
1861.464 0.21858 0.22394 0.24872 0.30752 0.28166 0.228807 0.21567 0.225896 0.26716 0.22289
1880.754 0.21534 0.23962 0.24354 0.29401 0.31591 0.30277 0.27745 0.28139 0.27079 0.29592
1900.043 0.3441 0.3285 0.28006 0.28392 0.30643 0.27105 0.29864 0.3372 0.3461 0.4044
1919.333 0.4016 0.396 0.4069 0.4051 0.4495 0.4652 0.4688 0.426 0.3887 0.3787
1938.623 0.3955 0.4034 0.3462 0.29378 0.32005 0.326 0.28213 0.30705 0.3762 0.3888
1957.913 0.4046 0.4087 0.4106 0.4789 0.4921 0.474 0.4508 0.3585 0.26373 0.232916
1977.202 0.25826 0.23594 0.1994 0.28324 0.3372 0.25065 0.1606 0.122 0.1712 0.26407
1996.492 0.25006 0.1863 0.139 0.1775 0.2514 0.25026 0.227639 0.231086 0.22332 0.1972
2015.782 0.1797 0.2015 0.22191 0.2094 0.188 0.226001 0.26675 0.28796 0.32093 0.30632
2035.072 0.26662 0.229267 0.1965 0.1937 0.1775 0.2078 0.28262 0.24402 0.25014 0.2831
2054.362 0.228645 0.1928 0.1749 0.225599 0.23327 0.2123 0.23906 0.24315 0.27961 0.25681
2073.651 0.21922 0.2105 0.2117 0.21687 0.23695 0.25082 0.224425 0.228144 0.26137 0.3256
2092.941 0.3398 0.3582 0.3987 0.3482 0.28549 0.28938 0.3432 0.3604 0.3273 0.29713
2112.231 0.3166 0.28616 0.26944 0.32321 0.27508 0.23877 0.26483 0.24743 0.231257 0.28809
2131.521 0.29451 0.25086 0.224361 0.22357 0.27226 0.26859 0.25416 0.27129 0.2079 0.1998
2150.810 0.27376 0.33 0.3456 0.26394 0.23551 0.27371 0.24534 0.2017 0.2789 0.3359
2170.100 0.2693 0.25214 0.2806 0.26934 0.24601 0.25547 0.29669 0.3483 0.3502 0.3468
2189.390 0.32332 0.1968 0.21747 0.31069 0.27718 0.23538 0.25497 0.31779 0.3503 0.3449
2208.680 0.31004 0.27328 0.26256 0.29397 0.28306 0.25687 0.25557 0.23881 0.24991 0.24229
2227.970 0.24689 0.2784 0.27915 0.30156 0.3283 0.3291 0.30507 0.25785 0.288 0.28791
2247.259 0.25351 0.25766 0.27742 0.26266 0.28585 0.3476 0.31105 0.2887 0.29295 0.28697
2266.549 0.32163 0.29316 0.26104 0.3223 0.27821 0.24727 0.25906 0.2136 0.229362 0.25303
2285.839 0.2727 0.3358 0.4261 0.3938 0.3395 0.31495 0.24224 0.25265 0.30802 0.29099
2305.129 0.30102 0.3534 0.31781 0.26758 0.234009 0.2041 0.23868 0.31538 0.3755 0.3967
2324.418 0.3591 0.3423 0.3862 0.4268 0.3975 0.4044 0.4489 0.3774 0.31621 0.3619
2343.708 0.3387 0.27618 0.2115 0.1681 0.1763 0.1615 0.1511 0.177 0.227222 0.25878
2362.998 0.29634 0.28214 0.228883 0.232264 0.2139 0.225024 0.31523 0.30137 0.25645 0.227795
2382.288 0.24795 0.3629 0.3606 0.27667 0.23603 0.23895 0.27513 0.2834 0.27509 0.28686
2401.578 0.30625 0.27431 0.25572 0.27011 0.22119 0.25145 0.32039 0.32374 0.28735 0.24631
2420.867 0.2018 0.26385 0.31877 0.32392 0.29438 0.27517 0.3501 0.28422 0.26983 0.29648
2440.157 0.25609 0.29957 0.3398 0.29512 0.23476 0.228467 0.24003 0.26678 0.2717 0.2095
2459.447 0.26922 0.30759 0.25246 0.26919 0.27242 0.26521 0.28206 0.2829 0.27867 0.25454
2478.737 0.2973 0.29742 0.234406 0.26906 0.2941 0.32382 0.3408 0.3247 0.3693 0.3414
2498.026 0.27031 0.27862 0.30094 0.30341 0.30912 0.30695 0.29972 0.29098 0.30217 0.29492
2517.316 0.1781 0.1759 0.25303 0.21588 0.23664 0.23981 0.1725 0.124 0.1594 0.243
2536.606 0.22027 0.1814 0.1925 0.1759 0.1751 0.228025 0.24356 0.22217 0.1557 0.1621
2555.896 0.1626 0.1521 0.091 0.138 0.2857 0.26504 0.24245 0.28529 0.30364 0.27549
2575.186 0.23513 0.1852 0.108 0.1975 0.25458 0.1923 0.2372 0.29239 0.28993 0.27471
2594.475 0.26131 0.23818 0.227996 0.26697 0.29183 0.2169 0.1508 0.2033 0.26292 0.24284
2613.765 0.22207 0.21684 0.24521 0.24017 0.21838 0.2107 0.25485 0.27319 0.30313 0.31519
2633.055 0.25788 0.22248 0.2093 0.26184 0.3055 0.32326 0.3316 0.28775 0.321 0.3263
2652.345 0.30537 0.25631 0.21663 0.27665 0.31769 0.29664 0.30004 0.30849 0.27068 0.25533
2671.634 0.2121 0.2059 0.21888 0.1869 0.1429 0.1739 0.1731 0.1718 0.1744 0.1833
2690.924 0.233377 0.1999 0.1271 0.1422 0.1797 0.093 0.107 0.1792 0.1583 0.230559
2710.214 0.30584 0.24807 0.2483 0.23778 0.2079 0.26431 0.23817 0.232021 0.29758 0.26215
2729.504 0.1911 0.1725 0.1661 0.1757 0.1577 0.172 0.1785 0.1616 0.153 0.1377
2748.794 0.123 0.08 0.1314 0.1696 0.24275 0.30978 0.1753 0.1324 0.1757 0.1347
2768.083 0.1279 0.1336 0.115 0.1988 0.31284 0.27956 0.27761 0.30476 0.22128 0.1868
2787.373 0.21656 0.22179 0.1684 0.1879 0.25716 0.1944 0.1625 0.1743 0.1433 0.155
2806.663 0.202 0.24317 0.1497 0.1302 0.1335 0.099 0.105 0.1541 0.22084 0.232473
2825.953 0.2466 0.24356 0.1532 0.1723 0.3609 0.25626 0.1615 0.25387 0.2565 0.25275
2845.242 0.22019 0.152 0.1659 0.1409 0.1769 0.28501 0.29898 0.29336 0.28483 0.307
2864.532 0.28378 0.28701 0.25216 0.1512 0.224588 0.22283 0.1376 0.2679 0.32086 0.1754
2883.822 0.21777 0.26948 0.227721 0.31918 0.30329 0.1553 0.098 0.224957 0.230169 0.1704
2903.112 0.24931 0.26774 0.29764 0.30511 0.225618 0.1398 0.1977 0.28486 0.212 0.173
2922.401 0.1532 0.1716 0.2925 0.30307 0.1953 0.1462 0.188 0.226772 0.28248 0.3411
2941.691 0.30336 0.26325 0.226269 0.147 0.1761 0.1923 0.1822 0.30199 0.22234 0.197
2960.981 0.4066 0.4089 0.233273 0.113 0.105 0.1521 0.1698 0.1393 0.109 0.021
2980.271 0.1256 0.23784 0.107 0.1522 0.22498 0.1535 0.21814 0.3976 0.3403 0.092
2999.561 0.11 0.123 0.043 0.075 0.1896 0.29134 0.26423 0.2868 0.2539 0.28254
3018.850 0.435 0.4597 0.3647 0.21932 0.1459 0.1719 0.32279 0.4019 0.4104 0.5248
3038.140 0.5071 0.4233 0.4319 0.4216 0.3393 0.30821 0.4282 0.5616 0.4797 0.3668
3057.430 0.4176 0.6061 0.6588 0.6135 0.584 0.504 0.583 0.6394 0.7296 0.8136
3076.720 0.7666 0.8211 0.9229 0.9476 1.0475 1.0838 1.0387 0.9612 0.8402 0.7289
3096.009 0.6406 0.6118 0.5525 0.4725 0.4096 0.453 0.4441 0.24079 0.24457 0.3809
3115.299 0.3429 0.24211 0.29052 0.28965 0.21553 0.1574 0.1483 0.28421 0.4052 0.4378
3134.589 0.3404 0.3489 0.30008 0.1544 0.2092 0.409 0.514 0.517 0.5793 0.5741
3153.879 0.5776 0.5882 0.5918 0.5952 0.3907 0.1596 0.1736 0.3313 0.3832 0.4648
3173.169 0.4912 0.3641 0.26076 0.24261 0.30773 0.3689 0.326 0.1965 0.1865 0.288
3192.458 0.3696 0.3369 0.24338 0.25759 0.207 0.2076 0.3748 0.3531 0.32022 0.3433
3211.748 0.3284 0.3881 0.25339 0.038 0.2099 0.31038 0.2074 0.1667 0.1322 0.088
3231.038 0.24494 0.3575 0.1396 0.131 0.25671 0.28553 0.29252 0.27818 0.31616 0.29833
3250.328 0.1289 0.066 0.1557 0.232772 0.22343 0.22364 0.2138 0.115 0.21 0.26035
3269.617 0.114 0.085 0.1653 0.2599 0.22223 0.1834 0.1965 0.141 0.1722 0.1756
3288.907 0.094 0.25216 0.25518 0.1736 0.23755 0.2128 0.1534 0.069 0.2083 0.3418
3308.197 0.1457 0.1409 0.1527 0.085 0.1497 0.21755 0.24532 0.2053 0.26017 0.3073
3327.487 0.27346 0.1999 0.22186 0.26992 0.224664 0.26337 0.24846 0.22262 0.3945 0.3272
3346.777 0.1501 0.118 0.1632 0.102 0.096 0.1407 0.1414 0.23808 0.24157 0.1676
3366.066 0.1474 0.1886 0.1936 0.25382 0.26368 0.25232 0.2072 0.226124 0.29426 0.3299
3385.356 0.31447 0.127 0.1473 0.27477 0.3305 0.3584 0.3389 0.3582 0.3401 0.3417
3404.646 0.4408 0.4644 0.3769 0.32428 0.30151 0.30428 0.3335 0.30671 0.29578 0.22394
3423.936 0.1764 0.28189 0.4016 0.5038 0.4134 0.3255 0.26897 0.22215 0.23921 0.24322
3443.225 0.27204 0.29343 0.31452 0.32143 0.21544 0.1752 0.3441 0.5035 0.4259 0.29494
3462.515 0.3383 0.5451 0.7137 0.6589 0.5376 0.5236 0.5889 0.7415 1.0203 1.1019
3481.805 1.1792 1.545 1.855 2.075 2.445 2.895 3.495 3.985 4.625 5.795
3501.095 6.935 7.725 8.275 8.485 7.995 6.945 5.835 4.655 3.195 1.875
3520.385 1.1407 0.7629 0.5482 0.5553 0.493 0.4613 0.4193 0.224214 0.26468 0.3731
3539.674 0.30361 0.28931 0.3419 0.27549 0.28742 0.332 0.3606 0.353 0.3439 0.3486
3558.964 0.3944 0.4323 0.3983 0.4737 0.3552 0.225517 0.26427 0.1 0.1259 0.5068
3578.254 0.5324 0.3261 0.3347 0.3971 0.4359 0.446 0.346 0.26277 0.3576 0.4536
3597.544 0.4622 0.4176 0.3303 0.3398 0.3766 0.29379 0.156 0.228384 0.3353 0.113
3616.833 0.075 0.24794 0.25625 0.1668 0.097 0.3438 0.3706 0.1408 0.108 0.1646
3636.123 0.201 0.089 0.085 0.2931 0.4203 0.31001 0.22352 0.2013 0.1539 0.2081
3655.413 0.29463 0.3475 0.281 0.29025 0.4259 0.3434 0.3266 0.3681 0.2058 0.1477
3674.703 0.27814 0.4102 0.4891 0.3299 0.233172 0.31846 0.231016 0.192 0.31784 0.22338
3693.993 0.1651 0.25679 0.1581 0.2047 0.27855 0.229448 0.2115 0.233067 0.3572 0.3346
3713.282 0.1694 0.22114 0.227089 0.2125 0.2022 0.1447 0.2007 0.26166 0.3913 0.4302
3732.572 0.3376 0.3327 0.30156 0.2024 0.25929 0.29269 0.2422 0.1301 0.1266 0.1575
3751.862 0.027 0.054 0.1747 0.224503 0.26013 0.27211 0.3519 0.397 0.4302 0.5366
3771.152 0.31352 0.205 0.3782 0.3656 0.31544 0.23815 0.113 0.1771 0.28071 0.25539
3790.441 0.25735 0.30214 0.2825 0.2088 0.30866 0.4668 0.4498 0.4806 0.352 0.188
3809.731 0.31208 0.3331 0.32428 0.2993 0.29042 0.3614 0.3539 0.27159 0.1794 0.1261
3829.021 0.25257 0.3609 0.32479 0.29464 0.28356 0.3733 0.3379 0.230459 0.1716 0.23735
3848.311 0.3696 0.3654 0.1846 0.086 0.058 0.034 0.1348 0.123 0.1444 0.24499
3867.601 0.23798 0.25083 0.1755 0.1702 0.24464 0.184 0.1709 0.2753 0.32212 0.3414
3886.890 0.4686 0.3745 0.26565 0.27083 0.24867 0.24972 0.3904 0.3938 0.3491 0.3496
3906.180 0.1534 0.063 0.2056 0.29624 0.02 0 0.1961 0.117 0.1498 0.1849
3925.470 0.1381 0.1522 0.116 0.053 0.102 0.22195 0.27931 0.24942 0.30927 0.3622
3944.760 0.31748 0.32398 0.30576 0.23571 0.24857 0.4023 0.31883 0.1634 0.2109 0.1568
3964.049 0.1806 0.1787 0.101 0.228773 0.230142 0.162 0.24068 0.118 0.087 0.3524
3983.339 0.3584 0.27175 0.29528 0.28775 0.26337 0.27774 0.1798 0.1335 0.27305 0.31361
##END=
