##TITLE=5-Dimethylamino-2-methyl-3-pentyn-2-ol
##JCAMP-DX=4.24
##DATA TYPE=INFRARED SPECTRUM
##ORIGIN=EPA-IR VAPOR PHASE LIBRARY
##OWNER=SRD/NIST
Collection (C) 2018 copyright by the U.S. Secretary of Commerce
on behalf of the United States of America. All rights reserved.
##CAS REGISTRY NO=25400-83-3
##MOLFORM=C 8 H 15 N O
##$NIST SOURCE=MSDC-IR
##STATE=gas
##XUNITS=1/CM
##YUNITS=ABSORBANCE
##XFACTOR=1.
##YFACTOR=0.001
##DELTAX=1.92898
##FIRSTX=549.8
##LASTX=4000.7
##FIRSTY=10.214
##MAXX=4000.7
##MINX=549.759
##MAXY=0.112794
##MINY=0
##NPOINTS=1790
##XYDATA=(X++(Y..Y))
549.759 10.214 11.394 12.364 12.694 11.784 10.584 10.654 10.524 10.644 10.964
569.049 9.714 9.194 9.164 8.024 7.784 7.974 7.584 7.604 7.934 7.854
588.339 7.254 6.784 6.584 5.844 5.064 4.414 3.954 3.864 4.144 4.834
607.628 4.954 4.264 3.684 3.584 3.394 3.454 4.124 4.004 3.364 3.114
626.918 2.784 2.684 2.824 2.644 2.804 3.274 3.044 2.544 2.754 2.984
646.208 2.934 2.894 2.624 2.604 2.774 2.874 3.414 3.884 3.764 3.874
665.498 4.044 4.114 4.274 4.554 4.994 4.984 4.804 5.344 5.584 5.474
684.787 5.574 5.484 5.174 4.984 5.014 4.884 4.754 4.364 4.054 3.874
704.077 3.454 3.404 3.104 2.854 3.114 3.014 2.764 2.714 2.424 2.064
723.367 1.974 2.174 2.574 2.334 2.164 2.134 1.804 2.124 2.444 2.104
742.657 1.704 1.484 1.654 1.814 1.754 1.804 1.684 1.454 1.714 1.694
761.947 1.3411 1.2191 1.3186 1.704 1.594 1.744 1.994 1.814 1.964 1.934
781.236 1.624 1.684 2.294 2.344 2.074 2.354 2.864 2.844 2.944 3.784
800.526 4.794 5.694 6.464 7.404 8.304 9.284 9.754 9.704 9.924 10.004
819.816 9.984 9.534 9.404 9.924 9.874 10.224 10.684 10.724 11.024 11.194
839.106 11.024 10.924 11.174 11.004 10.094 9.944 10.164 10.034 10.084 9.764
858.395 9.444 9.164 8.934 8.244 7.344 6.874 6.554 5.944 5.214 4.844
877.685 4.634 4.594 4.494 4.134 4.104 4.314 4.044 4.094 4.624 4.764
896.975 5.154 5.404 5.924 6.724 6.994 7.304 7.714 8.584 9.824 11.304
916.265 12.994 14.764 16.484 18.734 21.494 24.244 27.254 30.564 33.414 35.824
935.555 38.314 40.084 40.854 41.434 41.044 39.194 36.834 34.474 31.384 28.134
954.844 25.284 22.364 19.234 16.204 14.354 12.714 10.664 9.644 9.244 8.484
974.134 7.414 7.144 7.514 7.234 7.604 8.034 7.474 7.404 7.904 8.684
993.424 9.464 10.184 11.514 13.214 14.834 16.874 18.794 20.444 22.804 24.534
1012.714 25.094 26.034 26.584 26.474 26.054 25.414 25.174 24.844 25.524 27.324
1032.003 28.714 30.804 32.794 33.834 34.934 35.514 34.714 33.084 31.744 30.514
1051.293 28.704 26.534 24.794 23.184 21.654 19.714 17.634 16.744 16.694 16.244
1070.583 15.424 14.314 13.124 13.174 12.944 13.154 13.344 13.764 15.284 16.174
1089.873 16.684 16.324 17.204 18.014 18.854 19.924 20.694 21.364 20.814 21.714
1109.163 23.634 23.854 24.074 24.804 25.044 25.004 26.024 26.374 25.904 27.214
1128.452 28.264 29.314 30.304 32.274 35.154 36.694 38.454 41.324 44.754 47.834
1147.742 51.544 55.724 58.994 62.754 65.724 67.414 69.194 70.134 70.114 69.034
1167.032 66.974 64.354 60.994 57.654 54.124 49.894 45.834 41.764 38.634 35.984
1186.322 32.444 29.434 27.724 25.114 23.034 23.384 23.844 23.124 23.464 24.904
1205.611 26.764 27.854 27.364 28.364 30.454 31.874 32.664 33.264 33.744 34.834
1224.901 36.084 35.844 34.704 34.024 33.614 32.804 32.284 32.354 32.924 32.804
1244.191 32.924 33.114 33.284 34.484 35.104 35.584 36.644 37.604 38.084 38.034
1263.481 37.944 37.604 37.094 36.644 35.244 33.554 32.214 31.104 29.684 28.574
1282.771 27.814 27.004 26.554 26.164 25.784 25.714 26.094 26.714 27.414 28.084
1302.060 29.014 30.404 32.054 34.324 36.954 39.734 43.294 47.594 52.064 55.764
1321.350 57.954 58.424 57.954 56.894 55.324 53.264 50.304 47.104 44.744 43.514
1340.640 43.044 43.364 44.374 46.084 48.424 50.924 53.314 55.004 55.924 56.394
1359.930 56.164 55.044 52.954 49.964 46.564 43.344 40.464 38.174 36.214 34.484
1379.219 32.874 30.924 28.894 26.684 24.324 22.164 19.844 17.464 15.124 13.134
1398.509 11.904 11.114 10.454 9.814 9.604 9.434 9.194 9.154 9.334 9.724
1417.799 9.974 10.454 11.274 12.214 13.174 14.174 15.124 16.064 17.214 18.214
1437.089 19.294 20.324 21.174 22.084 23.174 24.254 25.144 26.024 26.794 27.224
1456.378 27.424 27.444 27.594 27.584 27.284 26.644 25.374 24.184 23.054 21.534
1475.668 19.794 18.084 16.374 14.584 12.944 11.514 10.234 9.064 8.194 7.474
1494.958 6.834 6.234 5.684 5.254 5.004 4.804 4.484 4.324 4.114 3.864
1514.248 3.784 3.804 3.694 3.554 3.454 3.374 3.344 3.164 3.094 3.064
1533.538 2.924 2.724 2.624 2.604 2.524 2.504 2.294 2.134 2.304 2.344
1552.827 2.194 2.124 1.924 1.944 2.014 2.034 2.034 1.864 1.764 1.564
1572.117 1.634 1.954 1.954 1.704 1.654 1.794 1.974 1.854 1.634 1.774
1591.407 1.824 1.844 1.834 1.634 1.734 1.824 1.764 1.834 1.754 1.704
1610.697 1.694 1.784 1.934 1.974 1.874 1.704 1.594 1.584 1.614 1.624
1629.986 1.714 1.694 1.634 1.594 1.614 1.704 1.524 1.374 1.384 1.3083
1649.276 1.3131 1.424 1.484 1.414 1.424 1.454 1.504 1.494 1.524 1.454
1668.566 1.2486 1.0614 1.2126 1.484 1.404 1.484 1.634 1.474 1.3058 1.2777
1687.856 1.2998 1.504 1.494 1.1691 1.2169 1.2874 1.1592 1.1383 1.1583 1.1107
1707.146 1.0262 1.0128 1.1926 1.2947 1.1137 1.1331 1.2444 1.1728 1.0654 1.0387
1726.435 0.9642 0.8836 0.7757 0.7852 0.7825 0.8025 0.9348 1.0246 0.9876 0.9852
1745.725 1.0331 0.9319 0.8621 1.0198 1.1318 1.0101 1.0087 0.9088 0.8372 0.948
1765.015 1.1337 1.136 1.0112 1.1004 1.231 1.2206 1.1265 1.0608 1.1266 1.1971
1784.305 1.1844 1.2562 1.2654 1.2367 1.1885 1.2051 1.2842 1.2056 1.1385 1.138
1803.594 1.0673 1.0592 1.1498 1.1775 1.1604 1.0481 0.9458 1.0271 1.0157 1.0389
1822.884 1.0996 1.1266 1.1565 1.1104 1.1436 1.2384 1.384 1.424 1.3482 1.464
1842.174 1.514 1.309 1.3406 1.514 1.444 1.424 1.534 1.374 1.3423 1.524
1861.464 1.424 1.394 1.414 1.2993 1.2636 1.2803 1.2461 1.1747 1.1255 1.1478
1880.754 1.0507 0.9602 1.0546 1.1398 1.143 1.1338 1.0553 0.8658 0.8704 1.046
1900.043 1.0928 0.9171 0.7322 0.752 0.7764 0.7886 0.9155 0.8849 0.7366 0.66
1919.333 0.6889 0.6732 0.6333 0.8138 0.8011 0.6448 0.576 0.6978 0.8561 0.86
1938.623 0.8939 0.9531 0.964 0.8718 0.769 0.8068 0.9133 0.9031 0.8597 1.003
1957.913 1.1076 1.0127 0.9683 0.9285 0.9645 0.9456 0.8156 0.7764 0.8406 0.8693
1977.202 0.8989 0.8691 0.8855 0.9813 0.9363 0.8096 0.6934 0.784 0.8969 0.947
1996.492 0.8511 0.8026 0.8181 0.8011 0.8699 0.9238 0.9826 0.8541 0.7445 0.8641
2015.782 1.0446 0.9439 0.8351 0.8985 0.8619 0.7779 0.7324 0.7847 0.729 0.6989
2035.072 0.7992 0.9545 0.9082 0.7812 0.817 0.843 1.0602 1.2224 1.0582 0.9577
2054.362 0.8815 0.8013 0.9631 1.1008 1.0942 1.0621 1.0902 1.3568 1.454 1.394
2073.651 1.514 1.584 1.494 1.3297 1.2978 1.3331 1.3666 1.404 1.3507 1.1998
2092.941 1.3429 1.494 1.3298 1.2637 1.3192 1.2541 1.113 1.1213 1.1148 0.9952
2112.231 0.8362 0.8171 0.9247 0.9309 0.9443 0.8939 0.7782 0.7662 0.9513 1.0753
2131.521 0.9156 0.6494 0.6235 0.8462 0.8123 0.6092 0.6369 0.7202 0.6528 0.6512
2150.810 0.6963 0.8503 1.0162 0.8706 0.6125 0.5486 0.695 0.8717 0.8586 0.7196
2170.100 0.7067 0.7386 0.7575 0.9222 0.9648 0.8685 1.0531 1.1762 0.9949 0.9919
2189.390 1.0745 0.9293 0.9387 1.0228 1.0758 1.1461 1.076 1.0348 1.0338 1.1614
2208.680 1.1354 1.0816 1.2155 1.1833 1.0639 1.2102 1.414 1.374 1.374 1.3332
2227.970 1.2713 1.414 1.424 1.3 1.3356 1.2962 1.2294 1.1177 1.1149 1.2684
2247.259 1.1797 1.1645 1.0048 0.8688 0.9172 0.9739 0.9679 0.7979 0.9428 1.083
2266.549 1.0546 0.9526 0.9303 0.8755 0.8863 1.055 1.1221 1.2065 1.1715 0.9944
2285.839 1.0267 1.1643 1.0465 1.0296 1.1488 1.1533 1.0715 1.0995 1.1495 1.1666
2305.129 1.2678 1.3696 1.2789 1.1434 1.2325 1.2716 1.1493 1.1288 1.0222 0.8441
2324.418 0.8657 0.8452 0.8942 0.9981 1.1488 1.1066 0.8628 0.7141 0.7459 0.8194
2343.708 0.8224 0.9244 1.0706 0.9382 0.7591 0.8345 0.9781 0.9237 0.9471 0.9623
2362.998 0.8338 0.9118 0.9322 0.9075 0.9042 0.9579 1.0355 0.9603 0.9031 0.8946
2382.288 0.9367 0.9961 0.8964 0.9772 1.1213 1.1137 0.9365 0.8889 0.9495 0.8567
2401.578 0.7806 0.7852 0.9499 1.2266 1.2928 1.1074 1.0598 1.1074 1.1373 1.2342
2420.867 1.454 1.2479 1.0977 1.2895 1.2798 1.2337 1.1795 1.2093 1.1558 1.242
2440.157 1.2746 1.0387 0.9668 1.025 0.9394 0.809 0.7846 0.9819 1.1076 1.0709
2459.447 1.1879 1.1502 1.0194 0.9714 0.9676 1.0468 0.968 0.8867 0.9076 0.9795
2478.737 1.114 1.159 1.2785 1.414 1.2967 1.2196 1.404 1.484 1.2927 1.1585
2498.026 1.404 1.474 1.3389 1.424 1.504 1.764 2.034 1.874 1.884 2.014
2517.316 1.844 1.634 1.584 1.544 1.544 1.614 1.494 1.524 1.814 1.914
2536.606 1.774 1.694 1.504 1.494 1.744 1.604 1.3625 1.424 1.534 1.3487
2555.896 1.1562 1.3064 1.514 1.734 1.694 1.434 1.2631 1.2583 1.3106 1.3136
2575.186 1.464 1.554 1.464 1.594 1.814 1.854 1.764 1.684 1.764 1.794
2594.475 1.594 1.604 1.714 1.734 1.834 1.804 1.714 1.944 2.104 1.974
2613.765 1.984 2.024 1.954 1.854 1.904 2.064 2.064 2.014 1.764 1.604
2633.055 1.734 1.864 1.844 1.834 1.794 1.714 1.834 1.854 1.814 1.864
2652.345 1.794 1.854 1.924 1.884 2.124 2.234 1.944 1.984 2.454 2.664
2671.634 2.524 2.454 2.754 3.094 3.234 3.234 3.294 3.374 3.484 3.864
2690.924 4.214 4.254 4.484 4.884 4.904 5.244 5.524 5.704 6.144 6.274
2710.214 6.364 6.654 7.104 7.454 7.674 8.024 8.404 8.724 9.194 9.314
2729.504 9.164 9.494 9.764 10.054 10.354 10.654 11.174 11.444 12.344 13.464
2748.794 14.524 16.214 18.054 19.964 22.304 25.234 28.764 32.704 36.644 40.784
2768.083 45.074 49.144 53.114 57.164 60.394 62.744 64.564 64.594 63.644 62.444
2787.373 60.294 57.684 54.774 51.824 48.854 45.854 42.914 40.204 37.724 35.334
2806.663 33.484 32.264 31.714 31.674 31.634 31.964 32.974 34.214 35.594 36.914
2825.953 38.094 38.564 38.724 38.734 38.404 37.924 36.914 35.734 34.424 33.074
2845.242 32.024 31.194 30.624 30.364 30.164 30.074 30.074 30.324 30.854 31.364
2864.532 31.954 32.434 32.614 32.974 33.334 33.514 33.594 33.714 33.304 32.944
2883.822 32.924 32.394 31.654 31.344 31.104 30.824 30.944 30.924 30.824 31.304
2903.112 31.824 32.624 33.954 35.034 36.404 38.174 40.394 42.704 44.934 47.394
2922.401 50.044 52.584 55.024 57.814 61.014 64.194 67.214 70.484 73.544 76.854
2941.691 79.994 81.934 83.204 83.194 81.964 79.584 76.244 72.464 68.664 65.254
2960.981 62.454 60.634 60.144 61.484 64.334 68.364 72.984 78.194 84.814 92.914
2980.271 101.574 108.874 112.794 112.474 109.144 103.874 96.094 86.264 74.124 60.364
2999.561 48.274 38.654 31.684 26.634 22.184 18.524 15.814 13.584 11.624 10.094
3018.850 8.844 7.814 6.534 5.744 5.504 5.294 5.134 4.984 5.054 4.864
3038.140 4.384 4.244 4.384 4.224 3.994 3.804 3.814 4.004 4.034 3.824
3057.430 3.544 3.594 3.554 3.064 2.844 3.094 3.184 3.284 3.314 3.004
3076.720 2.784 2.754 2.784 2.714 2.574 2.754 2.884 2.814 2.844 2.984
3096.009 2.884 2.754 2.974 2.994 3.014 2.874 2.514 2.314 2.534 2.684
3115.299 2.404 2.214 1.934 1.954 2.604 2.644 2.514 2.524 2.204 2.274
3134.589 2.444 2.504 2.644 2.404 2.094 2.474 2.734 2.484 2.094 1.844
3153.879 1.894 1.724 1.744 2.074 2.114 2.024 2.024 2.284 2.334 2.304
3173.169 1.984 1.674 1.734 1.674 2.144 2.454 2.404 2.544 2.304 2.544
3192.458 2.934 2.404 2.234 2.364 2.234 2.174 2.554 2.734 2.144 1.864
3211.748 1.924 1.894 1.954 2.214 2.324 2.034 1.944 2.164 2.154 2.044
3231.038 1.934 1.764 1.714 1.614 1.3639 1.544 1.444 1.0261 0.957 1.2507
3250.328 1.454 1.554 1.674 1.534 1.464 1.404 1.474 1.3458 1.2103 1.2041
3269.617 0.8677 0.9446 1.1795 1.0941 1.1003 1.0705 0.9662 0.8212 0.738 0.9495
3288.907 0.8633 0.8133 0.9835 0.8355 0.8668 0.7093 0.7328 1.1444 1.0546 0.9784
3308.197 1.1586 1.0931 0.8243 0.652 0.763 0.8401 0.8952 0.6969 0.354 0.5938
3327.487 0.9304 0.983 1.1392 0.8615 0.876 1.3551 1.3416 0.974 0.9036 0.9774
3346.777 0.9033 1.404 1.2881 0.9878 1.3016 1.2846 1.2333 1.2784 1.514 1.654
3366.066 1.684 1.444 1.1281 1.464 1.3569 0.9825 0.9949 1.1085 1.2129 1.0544
3385.356 1.1069 0.9587 0.7767 1.1104 1.3617 1.2708 1.0339 1.0536 0.9585 1.1736
3404.646 1.2108 0.6159 0.8451 1.0803 0.6991 0.7556 0.9911 0.6429 0.4523 1.1693
3423.936 1.394 0.9798 0.7394 0.6269 0.8267 1.0631 0.8034 0.8547 0.9812 1.0906
3443.225 1.0208 0.6022 0.47059 0.6333 0.7268 0.5272 0.6533 0.6944 0.9235 0.8041
3462.515 0.39199 0.618 0.9165 0.9749 0.8148 0.728 0.7713 0.9057 0.803 0.5536
3481.805 0.5322 0.5306 0.8608 1.0955 0.9439 0.8426 0.9216 1.2627 1.2644 1.1745
3501.095 1.1297 1.0503 0.8581 0.7452 0.7787 0.7004 0.557 0.9215 1.2301 0.5879
3520.385 0.5516 0.8516 0.9032 0.8272 0.7204 0.7417 0.6605 0.788 0.8041 0.5939
3539.674 0.6722 0.5867 0.3224 0.5472 0.42716 0.5913 1.1066 1.0856 0.6435 0.36636
3558.964 0.535 0.3308 0.067 0.5316 0.8534 0.7204 0.7192 0.8475 0.723 0.6488
3578.254 0.9292 0.8877 0.9102 1.1717 1.0944 0.7009 0.6906 0.9859 1.1542 1.0165
3597.544 0.8016 1.145 1.904 1.904 1.954 1.984 1.614 1.824 2.204 2.924
3616.833 3.614 3.564 4.014 5.064 6.284 7.574 8.654 9.434 10.044 11.064
3636.123 11.844 12.504 13.084 13.074 12.874 12.584 12.114 11.124 9.844 8.994
3655.413 8.084 7.024 6.094 5.234 4.504 3.634 2.984 2.744 2.524 1.994
3674.703 1.384 1.0048 0.8988 0.9379 0.9533 0.7735 0.8084 0.9235 0.7128 0.801
3693.993 1.0215 1.0018 0.9097 0.8157 0.5873 0.6855 0.43982 0 0.41786 0.5661
3713.282 0.2927 0.3219 0.821 0.8472 0.5394 0.376313 0.2897 0.7834 0.6656 0.095
3732.572 0.256 0.7712 0.8831 0.5676 0.5144 0.7903 0.8185 0.6308 0.5348 0.5211
3751.862 0.239 0.074 0.3173 0.45692 0.41926 0.8696 1.644 1.1775 0.5467 0.7178
3771.152 0.9639 1.3261 1.514 1.444 1.151 1.1588 1.1202 0.8014 1.0346 1.1002
3790.441 0.9514 1.0003 0.9791 1.1148 1.073 0.957 0.8296 1.091 1.112 0.4827
3809.731 0.5937 0.9098 1.0087 1.2676 1.2309 1.0604 1.1026 1.0581 1.0002 0.8537
3829.021 0.7417 0.9911 1.0658 0.8687 0.9289 0.863 0.7064 0.7164 0.5435 0.5017
3848.311 0.5928 0.489 0.502 0.7284 0.5977 0.059 0.244 0.9378 0.8281 0.879
3867.601 1.3483 1.2238 0.8203 0.43256 0.229 0.5301 0.8121 0.5896 0.4826 0.7261
3886.890 0.8065 0.9309 0.8825 0.6759 1.1641 1.424 1.1024 0.977 0.8157 0.6199
3906.180 0.7843 1.0631 1.0266 1.0365 1.1598 1.3582 1.394 0.9756 0.9278 0.9074
3925.470 0.8156 1.0138 0.9297 0.6448 0.4956 1.076 1.3501 1.1858 1.1263 1.424
3944.760 1.394 0.5995 1.0826 1.424 1.0203 1.414 1.3556 0.6021 0.5557 0.9639
3964.049 0.7487 0.6098 0.9644 1.1264 1.1647 1.085 0.9127 0.6652 0.5747 0.8075
3983.339 1.0863 1.0987 1.0123 0.731 0.5897 0.8006 0.749 0.7804 0.9312 0.8882
##END=
