##TITLE=2-Chloro-6-methylpyridine-4-carboxylic acid
##JCAMP-DX=4.24
##DATA TYPE=INFRARED SPECTRUM
##ORIGIN=EPA-IR VAPOR PHASE LIBRARY
##OWNER=SRD/NIST
Collection (C) 2018 copyright by the U.S. Secretary of Commerce
on behalf of the United States of America. All rights reserved.
##CAS REGISTRY NO=25462-85-5
##MOLFORM=C 7 H 6 Cl N O 2
##$NIST SOURCE=MSDC-IR
##STATE=gas
##XUNITS=1/CM
##YUNITS=ABSORBANCE
##XFACTOR=1.
##YFACTOR=0.001
##DELTAX=1.92898
##FIRSTX=549.8
##LASTX=4000.7
##FIRSTY=4.901
##MAXX=4000.7
##MINX=549.759
##MAXY=0.040791
##MINY=0
##NPOINTS=1790
##XYDATA=(X++(Y..Y))
549.759 4.901 4.411 4.501 3.561 3.101 2.821 3.031 3.851 3.451 3.401
569.049 4.101 4.741 5.291 4.811 4.461 4.871 5.471 5.771 6.001 6.891
588.339 6.991 7.381 7.881 7.251 6.961 6.661 5.911 6.051 5.771 4.911
607.628 4.721 4.061 3.441 3.211 3.081 2.781 1.971 2.961 3.941 3.251
626.918 1.941 1.058 0.9821 1.7599 2.261 3.131 4.231 4.491 5.351 7.271
646.208 11.231 14.731 15.941 16.421 18.011 18.211 17.231 15.781 12.051 8.421
665.498 5.811 4.001 2.881 2.511 1.841 1.2586 1.5017 1.841 2.041 1.3883
684.787 1.4583 2.241 2.051 1.971 2.041 2.021 2.411 2.411 1.791 1.4622
704.077 1.2823 1.881 2.261 1.6855 2.231 2.701 2.401 2.731 2.841 2.681
723.367 2.991 3.021 2.481 1.951 2.051 1.881 1.559 1.5411 1.7324 1.841
742.657 1.901 1.951 2.601 2.801 2.221 2.571 3.411 4.131 4.921 6.101
761.947 6.821 7.301 8.801 9.611 8.511 7.211 6.421 6.011 5.651 4.671
781.236 3.811 3.361 3.461 3.451 2.901 2.291 1.981 2.261 2.671 3.351
800.526 3.001 2.401 1.971 2.121 2.571 2.631 2.661 2.861 2.521 2.021
819.816 2.151 1.861 1.831 2.111 2.271 3.071 3.681 3.731 4.751 5.871
839.106 6.381 6.761 7.221 7.471 7.491 7.101 6.461 6.221 5.401 4.521
858.395 3.841 2.981 2.391 2.071 2.271 2.641 2.591 2.671 3.341 3.621
877.685 3.351 3.241 3.601 3.981 4.201 4.451 4.141 3.531 3.791 4.241
896.975 3.801 3.531 3.671 4.461 5.451 5.291 5.151 5.531 5.621 5.871
916.265 5.721 4.971 4.601 4.171 3.741 3.341 2.531 2.401 2.551 1.6808
935.555 1.6658 1.911 1.7601 1.931 2.021 1.6288 1.7493 2.111 1.1522 0.9358
954.844 1.6688 1.901 1.771 1.2502 1.3066 1.791 2.141 1.981 1.891 2.501
974.134 2.361 2.501 2.641 2.711 2.741 2.681 2.171 1.5023 1.4547 1.4251
993.424 2.071 2.841 3.011 2.771 2.441 2.381 2.661 2.401 2.121 1.841
1012.714 2.061 2.371 1.971 2.021 1.6223 1.6353 1.5927 2.211 3.121 2.221
1032.003 2.031 3.031 2.671 2.611 3.721 3.221 2.691 2.541 2.951 3.161
1051.293 3.121 3.311 3.191 2.651 2.131 2.571 3.301 3.231 2.851 3.431
1070.583 3.311 2.231 2.601 3.221 3.751 4.631 4.451 6.751 7.701 7.361
1089.873 7.841 8.371 9.261 11.241 13.011 12.171 12.031 12.421 11.231 9.051
1109.163 9.581 8.541 6.961 7.921 8.551 8.341 8.701 9.611 9.541 10.911
1128.452 13.841 15.481 17.261 19.701 20.491 20.531 21.931 22.211 21.001 20.701
1147.742 19.391 17.751 16.671 15.571 14.531 13.491 13.181 12.861 11.341 10.611
1167.032 11.651 13.071 14.161 15.041 15.671 16.931 17.991 18.931 20.031 20.081
1186.322 19.011 17.861 17.141 15.241 12.691 10.921 8.281 6.641 8.151 7.221
1205.611 4.101 3.601 4.141 3.881 3.991 4.451 4.511 4.381 3.651 2.941
1224.901 3.331 4.061 3.361 2.201 3.331 5.291 5.221 4.611 5.261 6.381
1244.191 6.401 6.191 7.051 7.361 6.971 6.051 5.261 4.831 5.031 5.121
1263.481 4.561 4.151 3.101 2.661 3.121 2.981 2.941 3.171 3.711 4.081
1282.771 4.291 4.671 4.551 4.841 4.831 5.141 5.641 5.581 5.921 6.611
1302.060 7.151 7.041 7.401 8.161 8.171 8.031 8.291 8.731 9.021 9.261
1321.350 9.881 10.831 11.701 12.271 12.981 13.771 14.081 14.371 14.511 14.211
1340.640 13.601 12.641 11.721 11.031 10.211 9.151 8.461 8.091 7.621 7.391
1359.930 7.311 7.601 8.161 8.661 9.451 10.341 11.071 11.401 11.401 11.821
1379.219 12.071 11.861 11.651 11.631 11.971 12.361 12.781 13.291 14.411 15.591
1398.509 16.151 16.511 16.671 16.531 15.971 15.071 13.791 12.231 10.781 9.701
1417.799 8.721 7.371 6.431 5.991 5.491 5.041 4.671 4.101 3.751 3.721
1437.089 3.731 3.681 3.361 3.311 3.521 3.541 3.591 3.791 3.751 3.721
1456.378 3.841 3.751 3.641 3.711 3.811 3.631 3.421 3.371 3.231 3.051
1475.668 2.911 2.821 2.861 2.861 2.921 3.061 2.811 2.801 3.021 2.971
1494.958 3.061 2.981 2.841 2.811 2.881 2.971 3.071 3.251 3.111 3.131
1514.248 3.371 3.521 3.951 4.341 4.301 4.291 4.691 5.001 5.231 5.701
1533.538 5.951 6.351 6.741 7.291 8.401 9.491 10.461 11.801 13.551 15.271
1552.827 16.641 17.401 17.741 17.931 17.651 16.921 15.541 13.691 11.931 10.081
1572.117 8.361 7.161 5.941 5.351 5.581 5.611 5.441 5.321 5.531 5.941
1591.407 6.271 6.261 6.291 6.491 6.581 6.161 5.621 5.271 4.861 4.491
1610.697 4.311 4.071 3.661 3.321 2.751 2.111 1.781 1.754 1.971 2.111
1629.986 1.981 2.001 2.051 1.991 1.721 1.5507 1.7154 1.7424 1.6817 1.911
1649.276 1.981 2.031 1.811 1.6662 1.761 1.6601 1.741 2.001 2.041 1.791
1668.566 1.771 1.791 1.5525 1.5501 1.921 2.121 2.061 1.971 1.941 2.021
1687.856 2.101 2.101 2.031 2.051 2.121 2.051 2.021 2.151 2.341 2.321
1707.146 2.471 2.461 2.381 2.731 3.181 3.591 3.831 4.181 4.441 4.641
1726.435 4.901 5.181 5.241 5.371 5.691 5.611 5.411 5.321 5.801 6.571
1745.725 7.111 7.861 8.971 10.471 12.411 14.681 17.931 22.021 26.661 31.621
1765.015 36.101 39.341 40.791 40.681 39.691 38.371 35.421 30.111 23.661 18.021
1784.305 13.741 10.331 8.251 7.001 5.831 5.071 4.731 4.431 4.231 4.041
1803.594 4.201 4.401 4.371 4.421 4.761 4.981 4.751 4.411 4.081 3.921
1822.884 3.691 3.271 2.911 2.621 2.401 2.261 2.101 2.041 1.911 1.871
1842.174 1.961 1.851 1.851 1.771 1.7058 1.7281 1.493 1.4114 1.4515 1.4704
1861.464 1.5816 1.6749 1.841 1.811 1.5567 1.4158 1.4845 1.4905 1.4939 1.5706
1880.754 1.473 1.4154 1.4616 1.47 1.4822 1.4804 1.4686 1.5204 1.431 1.4534
1900.043 1.4907 1.5517 1.6148 1.5663 1.6412 1.6365 1.7182 1.871 1.961 1.951
1919.333 1.971 1.821 1.5655 1.5607 1.3836 1.4246 1.603 1.761 1.791 1.6486
1938.623 1.6599 1.4936 1.3993 1.6264 1.791 1.5857 1.4802 1.5528 1.6161 1.4786
1957.913 1.5141 1.589 1.4412 1.4382 1.591 1.6857 1.5398 1.356 1.5614 1.831
1977.202 1.6598 1.5402 1.6317 1.6952 1.5594 1.6265 1.761 1.771 1.6187 1.4907
1996.492 1.4946 1.351 1.3543 1.5704 1.6331 1.5477 1.6174 1.6838 1.4977 1.2876
2015.782 1.4072 1.55 1.5481 1.426 1.4257 1.5265 1.6963 1.6371 1.4576 1.4173
2035.072 1.3854 1.4479 1.352 1.2413 1.1787 1.0765 1.1979 1.4014 1.5256 1.5386
2054.362 1.2395 1.2745 1.3563 1.3254 1.4944 1.513 1.4 1.357 1.3484 1.3227
2073.651 1.209 1.2022 1.2113 1.24 1.5171 1.6415 1.5823 1.628 1.7183 1.7356
2092.941 1.7322 1.6956 1.6142 1.5718 1.4912 1.5708 1.7078 1.6279 1.548 1.411
2112.231 1.3218 1.3014 1.0828 1.1412 1.4192 1.4807 1.5636 1.288 1.0774 1.3203
2131.521 1.6443 1.6292 1.3741 1.4718 1.488 1.222 1.222 1.3636 1.5611 1.6452
2150.810 1.6556 1.801 1.6608 1.3855 1.5029 1.3608 1.2333 1.535 1.5547 1.4549
2170.100 1.5139 1.4738 1.317 1.2119 1.2768 1.5357 1.5589 1.3757 1.4184 1.3794
2189.390 1.3496 1.3948 1.1861 1.4367 1.519 1.3113 1.3515 1.2055 1.1572 1.3624
2208.680 1.5026 1.3646 1.3221 1.324 1.3962 1.5729 1.4084 1.3614 1.4664 1.3765
2227.970 1.2501 1.4047 1.4665 1.3566 1.4202 1.3741 1.1505 1.1946 1.2578 1.0356
2247.259 1.1456 1.4915 1.3428 1.1831 1.1882 1.0638 1.276 1.334 1.231 1.217
2266.549 1.1658 1.2896 1.4204 1.5743 1.3932 1.1811 1.2146 1.1336 1.1387 1.0622
2285.839 1.0257 1.2252 1.3107 1.3869 1.3685 0.98 1.192 1.5444 1.5498 1.6055
2305.129 1.5779 1.5457 1.5671 1.831 1.771 1.5241 1.5934 1.801 1.736 1.3854
2324.418 1.3543 1.3661 1.2827 1.2307 1.1672 1.4897 1.6897 1.2746 1.1277 1.1445
2343.708 1.2403 1.4675 1.4244 1.4535 1.3216 1.3143 1.4373 1.4627 1.621 1.6704
2362.998 1.4667 1.3205 1.435 1.5142 1.3754 1.2777 1.4853 1.4411 1.2889 1.2244
2382.288 1.2444 1.2751 1.446 1.6938 1.3983 1.1215 1.4284 1.5499 1.2371 1.1901
2401.578 1.3742 1.7402 1.722 1.371 1.2158 1.3779 1.4407 1.5158 1.7034 1.3843
2420.867 1.2159 1.2175 1.0827 1.1453 1.4636 1.821 1.7592 1.3254 1.2688 1.4988
2440.157 1.3547 1.1537 1.2307 1.4462 1.781 1.3725 0.9961 1.238 1.2019 1.2637
2459.447 1.4375 1.54 1.4914 1.3888 1.3245 1.2401 1.3717 1.3702 1.2048 1.3877
2478.737 1.6734 1.4352 1.0473 1.1764 1.4543 1.5143 1.3617 1.2321 1.526 1.6575
2498.026 1.4529 1.6594 1.891 1.72 1.4365 1.3308 1.2297 1.2377 1.3753 1.4288
2517.316 1.5432 1.801 1.841 1.4317 1.2014 1.2682 1.4023 1.7262 1.7498 1.3823
2536.606 1.2516 1.4494 1.5604 1.5371 1.5201 1.4424 1.374 1.4407 1.0115 0.9539
2555.896 1.0983 1.0261 1.2855 1.41 1.5486 1.5059 1.5322 2.001 1.971 1.5692
2575.186 1.4395 1.2176 1.1969 1.1275 0.9802 0.9803 1.2894 1.4 1.3043 1.4422
2594.475 1.3596 1.5115 1.921 1.7453 1.1463 1.0071 1.1851 1.3343 1.2538 1.2418
2613.765 1.308 1.3671 1.4847 1.5715 1.514 1.3965 1.6407 1.7046 1.4936 1.4588
2633.055 1.2994 1.2685 1.6567 1.5492 1.0993 1.1271 1.3635 1.5531 1.3247 1.0644
2652.345 1.2472 1.4374 1.3505 1.3536 1.653 1.6612 1.4004 1.197 0.9765 0.79839
2671.634 1.1107 1.3861 1.4077 1.1925 1.1184 0.9571 1.1476 1.5747 1.4682 1.5419
2690.924 1.3304 0.9969 1.3881 1.5713 1.3947 1.1463 1.2519 1.3513 1.0059 1.1834
2710.214 1.3766 1.2052 1.3432 1.2232 1.2792 1.771 1.5642 1.2868 1.2286 1.218
2729.504 1.2366 1.2622 1.3602 1.2079 1.1519 1.3144 1.3508 1.6335 1.3164 1.2524
2748.794 1.5077 1.2064 1.2095 1.1915 1.3918 1.3838 0.9946 1.0605 1.1795 1.3106
2768.083 1.3276 1.1325 1.0165 1.2601 1.5047 1.3871 1.2493 1.2806 1.6514 1.6063
2787.373 1.2188 1.3115 1.4537 1.2634 1.5757 1.801 1.3623 1.4377 1.2613 1.1437
2806.663 1.1529 1.1714 1.3446 1.4399 1.771 1.5749 1.3007 1.3352 1.532 1.51
2825.953 1.2543 1.1297 1.2022 1.35 1.4176 1.5279 1.4608 1.6125 1.5893 1.4837
2845.242 1.6768 1.791 1.861 1.4958 1.2597 1.5766 1.891 2.061 2.281 2.551
2864.532 2.441 2.221 2.051 1.941 1.6557 1.1794 1.413 1.5983 1.2835 1.3661
2883.822 1.5043 1.851 2.141 1.4736 1.1167 1.6526 1.7588 1.861 1.821 1.861
2903.112 1.921 1.7339 2.251 1.961 1.6991 1.861 1.5772 1.6767 1.7079 1.5188
2922.401 2.011 2.201 1.971 2.041 2.541 2.881 2.971 3.461 3.401 2.921
2941.691 2.741 2.531 2.071 2.101 2.181 2.111 1.951 1.4591 1.4902 2.141
2960.981 2.331 1.6389 1.2037 1.5622 2.041 1.891 1.911 2.171 2.031 1.7219
2980.271 1.6681 1.7053 1.841 1.981 1.911 2.371 2.431 1.941 1.851 1.7284
2999.561 1.4235 1.981 2.501 2.161 1.6522 1.4213 1.6212 1.6439 1.4787 1.3786
3018.850 1.5598 1.5268 1.2785 1.1927 1.1747 1.6862 1.7583 1.5625 1.791 1.7516
3038.140 1.891 2.121 1.6248 1.3657 1.2666 1.334 1.4977 1.4077 1.5955 1.7472
3057.430 2.011 2.071 1.6435 1.1826 1.4802 1.901 1.4809 1.1679 1.2579 1.5694
3076.720 1.811 1.5837 1.5545 1.5059 1.5186 1.6521 1.3904 1.0925 1.4064 1.5688
3096.009 1.3982 1.6464 1.6068 1.2925 1.1681 1.3259 1.3514 1.4352 1.821 1.811
3115.299 1.2865 1.6177 1.522 1.5651 1.481 1.038 1.7321 1.6762 1.1098 0.83532
3134.589 0.9233 1.101 1.2916 1.0678 0.9098 1.5423 1.921 2.001 2.301 2.071
3153.879 1.6646 1.4492 1.2703 1.272 1.761 1.921 1.6204 1.2405 0.9865 1.5756
3173.169 1.6829 1.296 1.4768 1.2447 0.717 0.9235 1.074 1.1354 1.1967 1.1871
3192.458 1.7439 1.4561 1.0018 0.897 1.2296 1.5579 1.2824 0.9673 0.577 1.0841
3211.748 1.1568 0.589 0.85699 1.6106 1.911 1.6108 1.0587 1.1419 1.3002 1.1375
3231.038 1.0801 1.5185 2.061 1.4941 0.9344 1.1858 1.2739 1.65 1.538 1.3534
3250.328 1.2808 1.1221 1.5308 1.2144 1.01 1.396 1.1962 0.933 1.1916 1.0206
3269.617 0.8655 0.733 0.468 1.3444 1.6184 1.1782 1.3791 1.4824 1.3749 0.945
3288.907 0.75128 0.9859 1.0809 1.0234 1.1211 1.1782 1.124 0.9992 1.3734 1.921
3308.197 1.7444 1.6385 1.351 0.425 0.591 1.1853 1.1043 1.2873 1.306 1.3882
3327.487 1.941 1.7535 1.0058 1.1757 1.3566 0.9663 1.0544 1.4099 1.608 1.6555
3346.777 1.2145 0.82329 0.9862 0.81436 1.1145 1.7208 1.4154 1.138 1.3181 1.0189
3366.066 0.85363 1.5028 1.3818 1.6398 1.771 1.0202 1.1436 1.5363 1.7028 1.4974
3385.356 1.7257 2.081 1.63 1.3078 1.4813 1.4195 1.2907 1.0853 0.85984 1.0772
3404.646 1.1981 1.2847 1.0941 0.9155 0.9346 1.0494 1.258 0.9483 1.1945 1.771
3423.936 1.791 1.791 1.2757 0.8905 1.2878 0.75589 0.549 1.7174 1.901 1.811
3443.225 2.181 1.871 1.7325 2.401 2.321 1.7527 1.5634 1.4068 1.418 2.181
3462.515 2.681 2.251 1.861 1.2426 0.9473 1.5113 2.151 1.3087 0.64 0.57
3481.805 0.651 1.1547 1.6188 2.201 1.5956 0.81865 0.9592 1.2297 1.2728 1.1107
3501.095 1.761 1.791 0.78229 1.2165 2.101 2.081 2.131 1.791 1.6183 2.351
3520.385 1.971 1.6993 2.731 2.921 2.201 2.191 1.911 1.931 2.001 1.2599
3539.674 1.397 1.496 1.5561 1.7309 1.861 1.6694 1.2619 2.131 2.231 1.5946
3558.964 1.5385 2.381 3.701 4.621 6.661 8.931 10.981 13.261 15.721 17.631
3578.254 18.111 17.621 17.551 16.431 14.781 12.811 9.501 6.471 4.621 3.321
3597.544 2.361 1.991 1.5469 1.951 2.141 1.6337 1.6193 2.171 2.401 2.361
3616.833 2.201 2.021 1.6974 1.6734 1.781 1.355 1.1983 0.9229 0.9804 1.452
3636.123 1.242 1.6197 1.6667 1.1053 1.263 1.53 1.238 1.3438 1.4729 1.5065
3655.413 1.3872 0.302 0.606 1.821 2.531 2.431 1.931 1.941 1.851 1.543
3674.703 0.9133 1.0248 1.881 1.911 1.941 1.5739 1.2633 1.1946 0.619 0.9413
3693.993 1.5251 1.3779 1.1439 1.941 2.131 1.3475 0.84833 0.8672 1.2332 1.1138
3713.282 1.0087 1.2108 1.5778 1.951 1.7087 1.3515 1.6793 1.5385 0.8777 1.0703
3732.572 1.419 1.7471 1.801 1.981 2.021 1.496 1.692 1.801 1.811 1.7138
3751.862 0.83932 0.7015 0.78328 0.34 0.80752 1.5513 1.4265 1.1609 1.3619 1.2735
3771.152 1.1516 0.9827 1.3064 1.3316 1.1 1.0863 0.6999 0.6933 0.78434 1.0585
3790.441 1.0376 0.421 0.7212 0.9589 1.1599 1.4279 1.0572 1.2602 1.2722 0.79531
3809.731 0.499 0.9799 1.4133 1.3503 1.1867 1.0217 0.84926 0.958 0.9227 0.602
3829.021 0.9721 1.3271 1.1002 1.5269 1.4943 0.6612 1 1.5332 1.449 1.3492
3848.311 1.3638 1.05 0.92 0.8952 0.8989 1.2315 1.5484 1.4072 0.7311 0.568
3867.601 1.0914 1.1222 0.9311 1.1794 1.4305 1.3785 1.452 2.201 2.181 1.841
3886.890 1.318 0.9428 0.9411 0.617 0.618 1.1078 1.1273 0.8842 0.8628 0.636
3906.180 0.893 1.0145 1.3222 1.0359 0.392 0.524 1.2286 1.5101 1.2885 0.6973
3925.470 0.262 0.7066 0.963 1.482 1.5101 1.5139 1.3367 1.0853 1.6991 2.131
3944.760 1.971 1.4229 1.3627 1.5308 0.83388 0.75877 1.1416 0.9326 0.6806 0.364
3964.049 1.2707 1.6712 0.234 0 1.6181 2.041 1.821 1.6477 1.821 1.781
3983.339 1.1254 1.0476 1.4892 1.6648 1.3091 1.4704 1.4406 1.166 1.0863 0.78702
##END=
