##TITLE=1-Acetylpiperidine-4-carboxylic acid
##JCAMP-DX=4.24
##DATA TYPE=INFRARED SPECTRUM
##ORIGIN=EPA-IR VAPOR PHASE LIBRARY
##OWNER=SRD/NIST
Collection (C) 2018 copyright by the U.S. Secretary of Commerce
on behalf of the United States of America. All rights reserved.
##CAS REGISTRY NO=25503-90-6
##MOLFORM=C 8 H 13 N O 3
##$NIST SOURCE=MSDC-IR
##STATE=gas
##XUNITS=1/CM
##YUNITS=ABSORBANCE
##XFACTOR=1.
##YFACTOR=0.001
##DELTAX=1.92934
##FIRSTX=549.9
##LASTX=3999.5
##FIRSTY=4.938
##MAXX=3999.53
##MINX=549.863
##MAXY=0.054588
##MINY=0
##NPOINTS=1789
##XYDATA=(X++(Y..Y))
549.863 4.938 5.138 5.358 5.418 5.418 5.548 5.758 5.908 5.908 5.898
569.156 5.928 5.898 5.918 6.108 6.288 6.358 6.368 6.498 6.598 6.688
588.450 6.858 6.938 7.018 7.158 7.078 6.758 6.578 6.338 6.008 5.678
607.743 5.258 4.938 4.698 4.328 3.978 3.718 3.518 3.388 3.308 3.218
627.037 3.128 3.118 3.188 3.378 3.548 3.728 3.958 4.138 4.348 4.498
646.330 4.418 4.268 4.168 3.938 3.588 3.198 2.838 2.658 2.418 2.178
665.624 2.148 2.108 2.088 2.098 1.978 1.9085 1.8876 1.8742 1.8311 1.8164
684.917 1.8773 1.8475 1.8703 1.948 1.978 2.038 2.128 2.238 2.358 2.448
704.210 2.608 2.758 2.858 2.968 3.038 3.168 3.298 3.308 3.338 3.318
723.504 3.178 3.078 2.978 2.838 2.668 2.608 2.528 2.308 2.148 2.058
742.797 1.978 1.928 1.9081 1.8736 1.863 1.8658 1.8579 1.8538 1.8171 1.7483
762.091 1.7108 1.7135 1.6714 1.5957 1.5322 1.4461 1.4029 1.3771 1.3057 1.2646
781.384 1.2053 1.133 1.1027 1.0945 1.0959 1.0633 1.0422 1.0265 1.0105 0.9928
800.678 0.97612 1.0451 1.1088 1.1084 1.075 1.067 1.1225 1.1912 1.2835 1.3344
819.971 1.3709 1.4437 1.5286 1.5659 1.5204 1.4876 1.4409 1.3556 1.339 1.308
839.264 1.1848 1.1043 1.0842 1.0523 1.0258 1.0315 0.96292 0.95276 1.0292 1.0435
858.558 1.0464 1.01595 0.99977 1.01067 0.99256 0.97979 0.98112 0.99747 1.01173 1.0224
877.851 1.0445 0.99806 0.99852 1.0593 1.037 1.0421 1.0926 1.1191 1.152 1.1674
897.145 1.2131 1.2912 1.3386 1.3974 1.4471 1.4799 1.5187 1.522 1.5048 1.5026
916.438 1.4868 1.4957 1.5389 1.5169 1.5448 1.5725 1.5126 1.5559 1.6017 1.658
935.732 1.7578 1.8265 1.958 2.158 2.398 2.648 2.828 3.008 3.178 3.298
955.025 3.388 3.448 3.488 3.608 3.818 4.048 4.358 4.818 5.378 5.868
974.318 6.298 6.678 6.958 7.108 7.148 7.128 6.998 6.788 6.578 6.358
993.612 6.128 5.928 5.818 5.658 5.408 5.218 5.068 4.958 4.948 5.008
1012.905 5.138 5.358 5.708 6.158 6.668 7.188 7.618 7.908 8.038 7.988
1032.199 7.768 7.338 6.778 6.148 5.548 5.108 4.848 4.678 4.518 4.408
1051.492 4.338 4.298 4.268 4.208 4.208 4.288 4.328 4.378 4.528 4.668
1070.786 4.838 5.108 5.498 5.938 6.458 7.148 7.998 8.948 9.928 10.868
1090.079 11.838 12.748 13.528 14.208 14.718 15.088 15.258 15.308 15.338 15.418
1109.372 15.558 15.718 15.918 16.238 16.708 17.158 17.678 18.288 18.828 19.398
1128.666 19.868 20.108 20.308 20.458 20.238 19.618 19.048 18.418 17.518 16.568
1147.959 15.678 14.838 14.088 13.438 12.878 12.418 11.848 11.338 10.848 10.198
1167.253 9.618 9.118 8.628 8.088 7.698 7.308 6.878 6.538 6.288 6.048
1186.546 5.818 5.658 5.608 5.728 5.598 5.538 5.668 5.618 5.648 5.928
1205.840 6.358 6.948 7.838 8.788 10.058 11.428 12.338 13.168 13.878 14.208
1225.133 14.128 13.768 12.938 11.738 10.588 9.538 8.598 7.898 7.368 6.998
1244.426 6.768 6.748 6.848 7.138 7.508 7.848 8.398 9.168 9.868 10.518
1263.720 11.248 11.778 12.198 12.348 12.308 12.108 11.688 11.228 10.688 10.178
1283.013 9.638 9.228 9.028 8.858 8.748 8.678 8.598 8.518 8.398 8.248
1302.307 8.088 7.868 7.608 7.278 6.938 6.648 6.408 6.238 6.138 6.138
1321.600 6.208 6.348 6.568 6.848 7.128 7.408 7.718 8.018 8.268 8.468
1340.894 8.648 8.718 8.658 8.578 8.418 8.228 7.988 7.738 7.658 7.608
1360.187 7.578 7.648 7.848 8.088 8.328 8.578 8.818 9.008 9.258 9.598
1379.480 9.928 10.278 10.688 11.158 11.678 12.358 13.168 14.068 15.148 16.328
1398.774 17.608 19.018 20.448 21.898 23.258 24.398 25.318 25.918 26.138 26.008
1418.067 25.488 24.668 23.568 22.158 20.598 19.028 17.428 15.948 14.638 13.418
1437.361 12.398 11.648 11.008 10.488 10.098 9.718 9.348 9.038 8.698 8.278
1456.654 7.758 7.348 6.978 6.528 6.068 5.668 5.318 4.918 4.518 4.198
1475.948 3.928 3.638 3.398 3.168 2.958 2.758 2.538 2.418 2.358 2.308
1495.241 2.248 2.158 2.138 2.108 2.028 1.948 1.8803 1.8631 1.852 1.8449
1514.534 1.8315 1.7429 1.6895 1.6317 1.567 1.5593 1.5596 1.5517 1.5417 1.5214
1533.828 1.4866 1.5129 1.523 1.4759 1.4294 1.4009 1.4071 1.4078 1.3758 1.3862
1553.121 1.3935 1.3545 1.3302 1.3218 1.3196 1.3508 1.3977 1.3987 1.3655 1.3692
1572.415 1.4432 1.4464 1.4551 1.5163 1.5444 1.5692 1.5989 1.6176 1.6572 1.73
1591.708 1.8152 1.8836 1.9114 1.948 1.948 1.938 1.948 1.938 1.958 1.968
1611.002 1.958 1.938 1.903 1.938 1.988 2.008 2.088 2.178 2.278 2.358
1630.295 2.478 2.598 2.758 2.978 3.188 3.388 3.628 3.858 4.088 4.318
1649.588 4.628 4.938 5.328 5.888 6.548 7.388 8.458 9.768 11.488 13.658
1668.882 16.508 20.128 24.518 29.718 35.638 41.608 47.138 51.418 53.888 54.588
1688.175 53.558 50.748 46.158 40.148 33.128 26.528 21.058 16.518 13.268 10.778
1707.469 9.038 7.728 6.818 6.238 5.848 5.608 5.538 5.488 5.508 5.618
1726.762 5.778 5.948 6.178 6.508 6.908 7.388 7.898 8.448 9.088 9.838
1746.056 10.698 11.628 12.648 13.848 15.268 16.888 18.788 20.938 23.358 25.898
1765.349 28.338 30.368 31.808 32.578 32.618 31.858 30.218 27.848 25.088 22.318
1784.642 19.708 17.368 15.418 13.748 12.288 11.128 10.078 9.108 8.238 7.438
1803.936 6.718 6.008 5.348 4.758 4.208 3.728 3.348 2.988 2.688 2.448
1823.229 2.268 2.118 1.978 1.8384 1.7621 1.7014 1.6184 1.5499 1.4757 1.4436
1842.523 1.4166 1.308 1.2357 1.238 1.2372 1.213 1.1589 1.1138 1.0795 1.0238
1861.816 1.00949 1.01794 0.98075 0.96666 0.95423 0.94387 0.96759 0.96733 0.925543 0.8816
1881.110 0.8911 0.926755 0.93653 0.9066 0.9025 0.921623 0.923355 0.8881 0.8695 0.8832
1900.403 0.8966 0.8767 0.8574 0.8767 0.8667 0.8762 0.9046 0.8997 0.8946 0.9021
1919.696 0.921734 0.921784 0.9074 0.9068 0.8949 0.9014 0.9165 0.93494 0.94661 0.926753
1938.990 0.8897 0.8758 0.8937 0.923735 0.919098 0.8879 0.8826 0.8632 0.8423 0.809
1958.283 0.818 0.838 0.817 0.786 0.786 0.8201 0.8701 0.885 0.8404 0.8381
1977.577 0.8303 0.8232 0.8243 0.806 0.808 0.8323 0.8467 0.8378 0.806 0.779
1996.870 0.805 0.797 0.775 0.802 0.801 0.789 0.8197 0.8219 0.811 0.817
2016.164 0.797 0.801 0.807 0.792 0.806 0.8314 0.8306 0.802 0.79 0.794
2035.457 0.811 0.8213 0.813 0.787 0.752 0.764 0.798 0.799 0.786 0.786
2054.750 0.758 0.736 0.738 0.758 0.778 0.764 0.748 0.777 0.786 0.761
2074.044 0.766 0.77 0.767 0.76 0.773 0.767 0.778 0.79 0.786 0.791
2093.337 0.779 0.806 0.8221 0.809 0.81 0.837 0.8648 0.8691 0.8705 0.8894
2112.631 0.917047 0.93235 0.95504 0.96128 0.96145 0.98462 1.00415 0.9766 0.93169 0.91204
2131.924 0.8906 0.91058 0.92312 0.8907 0.89 0.8961 0.8564 0.8384 0.8232 0.794
2151.218 0.817 0.8189 0.799 0.8195 0.8182 0.796 0.803 0.806 0.796 0.778
2170.511 0.775 0.787 0.79 0.772 0.778 0.798 0.809 0.808 0.779 0.767
2189.804 0.786 0.794 0.805 0.812 0.8229 0.8256 0.803 0.8185 0.8452 0.864
2209.098 0.8445 0.8234 0.816 0.803 0.791 0.79 0.809 0.812 0.801 0.812
2228.391 0.816 0.807 0.806 0.834 0.8286 0.767 0.783 0.8205 0.8439 0.8433
2247.685 0.808 0.813 0.815 0.8 0.804 0.808 0.8295 0.8485 0.8322 0.8241
2266.978 0.8267 0.8397 0.8311 0.8 0.794 0.799 0.795 0.797 0.783 0.786
2286.272 0.802 0.783 0.785 0.8211 0.8193 0.786 0.799 0.796 0.785 0.786
2305.565 0.795 0.794 0.763 0.759 0.78 0.791 0.789 0.768 0.726 0.725
2324.858 0.761 0.766 0.745 0.742 0.782 0.796 0.757 0.733 0.751 0.763
2344.152 0.788 0.815 0.784 0.769 0.766 0.738 0.745 0.752 0.779 0.8206
2363.445 0.805 0.809 0.8306 0.815 0.784 0.784 0.801 0.805 0.806 0.814
2382.739 0.8363 0.8367 0.8236 0.8391 0.8444 0.801 0.768 0.77 0.776 0.778
2402.032 0.778 0.745 0.744 0.76 0.744 0.747 0.759 0.754 0.763 0.748
2421.326 0.733 0.73 0.746 0.753 0.744 0.758 0.765 0.785 0.808 0.791
2440.619 0.749 0.748 0.761 0.741 0.748 0.75 0.728 0.75 0.772 0.806
2459.912 0.809 0.783 0.79 0.766 0.741 0.742 0.707 0.717 0.767 0.763
2479.206 0.748 0.746 0.725 0.692 0.699 0.729 0.745 0.726 0.693 0.672
2498.499 0.674 0.69 0.659 0.667 0.715 0.726 0.701 0.719 0.711 0.66
2517.793 0.687 0.696 0.661 0.649 0.664 0.666 0.644 0.663 0.665 0.64
2537.086 0.677 0.727 0.756 0.712 0.668 0.669 0.653 0.645 0.633 0.666
2556.380 0.695 0.689 0.686 0.675 0.676 0.698 0.701 0.651 0.635 0.69
2575.673 0.704 0.664 0.657 0.675 0.66 0.656 0.67 0.655 0.649 0.681
2594.966 0.698 0.713 0.727 0.742 0.724 0.696 0.726 0.708 0.661 0.673
2614.260 0.717 0.722 0.724 0.75 0.76 0.758 0.729 0.715 0.744 0.775
2633.553 0.758 0.735 0.723 0.74 0.765 0.746 0.709 0.695 0.735 0.777
2652.847 0.798 0.765 0.703 0.728 0.792 0.785 0.811 0.8359 0.8697 0.8785
2672.140 0.8207 0.814 0.8602 0.8859 0.8906 0.923703 0.91128 0.9012 0.9137 0.91638
2691.434 0.8872 0.8323 0.848 0.8684 0.846 0.8419 0.808 0.762 0.795 0.8374
2710.727 0.8339 0.8479 0.808 0.748 0.802 0.8677 0.8639 0.8637 0.8736 0.9012
2730.020 0.99855 0.95798 0.9009 0.8951 0.8644 0.8675 0.8622 0.8204 0.779 0.785
2749.314 0.8193 0.816 0.8368 0.8314 0.725 0.736 0.76 0.737 0.8 0.8382
2768.607 0.8571 0.8608 0.8229 0.779 0.747 0.777 0.763 0.763 0.813 0.8287
2787.901 0.8774 0.907 0.8776 0.93435 0.97933 1.0149 1.0586 1.0633 1.0488 1.0738
2807.194 1.1534 1.1803 1.2714 1.4019 1.4572 1.5077 1.6376 1.7341 1.8438 2.038
2826.488 2.158 2.238 2.308 2.358 2.468 2.708 2.948 3.178 3.518 3.858
2845.781 4.288 4.818 5.378 5.898 6.358 6.898 7.348 7.578 7.708 7.708
2865.074 7.508 7.308 7.088 6.768 6.458 6.188 5.838 5.538 5.258 4.958
2884.368 4.808 4.718 4.548 4.368 4.298 4.248 4.178 4.158 4.148 4.068
2903.661 4.068 4.028 3.988 4.108 4.208 4.278 4.398 4.578 4.738 4.968
2922.955 5.298 5.568 5.818 6.138 6.478 6.808 7.128 7.388 7.618 7.828
2942.248 7.918 8.138 8.458 8.678 8.948 9.368 9.768 10.088 10.368 10.408
2961.542 10.228 9.888 9.388 8.738 7.888 6.998 6.168 5.378 4.688 4.228
2980.835 3.808 3.428 3.128 2.968 2.878 2.888 3.018 3.138 3.358 3.658
3000.128 3.948 4.148 4.328 4.498 4.528 4.428 4.338 4.238 3.938 3.508
3019.422 3.138 2.798 2.408 2.058 1.8387 1.5917 1.3746 1.2711 1.1659 1.1269
3038.715 1.15 1.0635 0.97272 0.91051 0.8461 0.8741 0.8746 0.737 0.718 0.729
3058.009 0.689 0.713 0.721 0.667 0.61 0.583 0.537 0.514 0.588 0.649
3077.302 0.588 0.575 0.63 0.651 0.58 0.551 0.571 0.585 0.585 0.558
3096.596 0.515 0.457 0.506 0.533 0.441 0.343 0.368 0.429 0.464 0.554
3115.889 0.553 0.538 0.511 0.434 0.387 0.356 0.365 0.316 0.31 0.45
3135.182 0.535 0.467 0.446 0.464 0.395 0.361 0.314 0.201 0.162 0.199
3154.476 0.26 0.252 0.203 0.291 0.326 0.224 0.133 0 0.13 0.306
3173.769 0.318 0.328 0.22 0.148 0.12 0.134 0.202 0.172 0.196 0.308
3193.063 0.265 0.207 0.193 0.147 0.176 0.113 0.016 0.052 0.089 0.138
3212.356 0.137 0.024 0.082 0.22 0.101 0.081 0.236 0.221 0.173 0.174
3231.650 0.144 0.098 0.072 0.086 0.145 0.124 0.128 0.162 0.123 0.138
3250.943 0.119 0.208 0.233 0.163 0.04 0.032 0.099 0.117 0.159 0.083
3270.236 0.116 0.129 0.064 0.054 0.158 0.18 0.08 0.111 0.102 0.091
3289.530 0.141 0.164 0.201 0.204 0.184 0.167 0.166 0.233 0.277 0.183
3308.823 0.162 0.174 0.155 0.241 0.266 0.211 0.233 0.21 0.191 0.307
3328.117 0.396 0.409 0.409 0.377 0.322 0.268 0.416 0.65 0.658 0.576
3347.410 0.46 0.506 0.567 0.557 0.583 0.558 0.611 0.667 0.541 0.32
3366.704 0.395 0.562 0.471 0.41 0.453 0.394 0.309 0.255 0.249 0.26
3385.997 0.252 0.259 0.224 0.237 0.236 0.226 0.2 0.168 0.264 0.323
3405.290 0.214 0.202 0.343 0.277 0.11 0.168 0.2 0.198 0.285 0.302
3424.584 0.273 0.153 0.086 0.189 0.194 0.21 0.194 0.147 0.187 0.194
3443.877 0.265 0.321 0.296 0.332 0.326 0.232 0.217 0.198 0.23 0.325
3463.171 0.317 0.322 0.325 0.312 0.228 0.22 0.305 0.273 0.28 0.349
3482.464 0.414 0.442 0.449 0.459 0.469 0.423 0.407 0.345 0.38 0.44
3501.758 0.44 0.485 0.482 0.447 0.436 0.482 0.622 0.668 0.559 0.614
3521.051 0.686 0.578 0.573 0.646 0.622 0.706 0.772 0.814 0.867 0.8841
3540.344 0.8503 0.782 0.8334 0.8833 0.96756 1.2222 1.4102 1.6315 2.098 2.818
3559.638 3.748 5.078 6.968 9.328 11.738 13.568 14.518 14.798 14.478 13.498
3578.931 11.908 9.688 7.218 5.068 3.518 2.488 1.8629 1.4862 1.2195 1.0529
3598.225 0.93889 0.8452 0.811 0.776 0.754 0.756 0.733 0.675 0.571 0.522
3617.518 0.551 0.596 0.594 0.568 0.525 0.453 0.439 0.423 0.434 0.499
3636.812 0.517 0.494 0.4 0.344 0.361 0.404 0.364 0.319 0.383 0.491
3656.105 0.52 0.477 0.498 0.52 0.536 0.524 0.492 0.498 0.533 0.508
3675.398 0.486 0.456 0.427 0.47 0.452 0.461 0.496 0.437 0.496 0.602
3694.692 0.619 0.55 0.416 0.432 0.473 0.485 0.526 0.476 0.398 0.467
3713.985 0.481 0.508 0.526 0.439 0.413 0.419 0.443 0.454 0.524 0.477
3733.279 0.383 0.436 0.453 0.441 0.487 0.439 0.369 0.385 0.449 0.517
3752.572 0.464 0.465 0.464 0.389 0.447 0.517 0.491 0.479 0.481 0.465
3771.866 0.488 0.507 0.507 0.517 0.561 0.496 0.412 0.518 0.533 0.546
3791.159 0.606 0.567 0.559 0.502 0.458 0.474 0.419 0.415 0.535 0.568
3810.452 0.489 0.518 0.535 0.561 0.629 0.632 0.661 0.625 0.49 0.435
3829.746 0.488 0.46 0.468 0.512 0.558 0.531 0.497 0.519 0.445 0.43
3849.039 0.518 0.524 0.456 0.431 0.47 0.516 0.557 0.562 0.523 0.51
3868.333 0.481 0.508 0.47 0.501 0.559 0.5 0.423 0.447 0.526 0.513
3887.626 0.512 0.462 0.459 0.55 0.6 0.556 0.484 0.429 0.461 0.486
3906.920 0.548 0.61 0.638 0.608 0.542 0.593 0.577 0.561 0.572 0.551
3926.213 0.488 0.486 0.533 0.569 0.614 0.608 0.525 0.551 0.556 0.49
3945.506 0.463 0.536 0.57 0.55 0.684 0.704 0.607 0.538 0.574 0.625
3964.800 0.635 0.639 0.591 0.608 0.648 0.602 0.615 0.657 0.621 0.612
3984.093 0.69 0.691 0.611 0.642 0.646 0.592 0.591 0.626 0.62
##END=
