##TITLE=3-Methyl-2-hexanone
##JCAMP-DX=4.24
##DATA TYPE=INFRARED SPECTRUM
##ORIGIN=NIST Mass Spectrometry Data Center
##OWNER=NIST Standard Reference Data Program
Collection (C) 2018 copyright by the U.S. Secretary of Commerce
on behalf of the United States of America. All rights reserved.
##CAS REGISTRY NO=2550-21-2
##MOLFORM=C 7 H 14 O
##$NIST SOURCE=MSDC-IR
##SPECTROMETER/DATA SYSTEM=HP-GC/MS/IRD
##STATE=gas
##XUNITS=1/CM
##YUNITS=ABSORBANCE
##XFACTOR=1.0
##YFACTOR=0.000002000
##DELTAX=4.0
##FIRSTX=550.0
##LASTX=3846.0
##FIRSTY=0.000358
##MAXX=3846
##MINX=550
##MAXY=0.02
##MINY=0
##NPOINTS=825
##XYDATA=(X++(Y..Y))
550.0 179 178 199 188 175 220 274 328 399 439
590.0 477 520 468 384 345 301 222 168 156 134
630.0 100 68 69 95 111 80 44 44 39 8
670.0 9 30 46 65 94 146 182 205 264 285
710.0 258 252 248 210 183 179 172 144 115 119
750.0 134 131 112 107 127 117 88 101 126 110
790.0 86 65 61 51 38 44 54 69 57 55
830.0 64 55 66 86 88 73 62 69 82 94
870.0 95 98 124 130 125 134 167 217 255 303
910.0 358 410 466 525 587 655 747 846 912 957
950.0 967 925 848 756 659 590 548 519 501 481
990.0 452 437 430 414 405 394 393 385 379 372
1030.0 360 360 359 355 352 377 386 392 414 425
1070.0 460 511 578 667 760 866 968 1057 1140 1203
1110.0 1260 1333 1440 1583 1725 1842 1886 1848 1777 1669
1150.0 1545 1501 1582 1761 1979 2153 2231 2197 2042 1814
1190.0 1545 1297 1124 1023 969 944 952 989 1026 1057
1230.0 1085 1085 1063 1004 924 839 767 713 664 622
1270.0 574 531 517 511 498 503 524 538 564 600
1310.0 649 692 743 836 960 1131 1359 1660 2084 2592
1350.0 3092 3496 3694 3660 3435 3062 2636 2289 2034 1823
1390.0 1630 1425 1216 1059 954 907 879 874 936 1011
1430.0 1070 1144 1268 1446 1636 1844 2008 2141 2227 2166
1470.0 2000 1751 1487 1209 946 744 614 526 462 385
1510.0 343 343 331 323 327 321 305 280 252 263
1550.0 274 256 224 238 265 258 237 227 225 229
1590.0 227 218 220 214 206 205 195 194 205 216
1630.0 228 222 232 251 263 273 303 365 438 518
1670.0 612 744 908 1088 1334 1638 2023 2536 3277 4244
1710.0 5412 6663 7875 8861 9420 9170 8029 6612 5152 3744
1750.0 2608 1831 1343 1041 828 658 529 428 336 278
1790.0 220 174 151 127 122 112 103 95 83 67
1830.0 63 74 78 59 52 63 64 64 67 61
1870.0 56 61 64 62 58 54 53 52 54 51
1910.0 48 46 40 32 31 40 47 47 37 38
1950.0 45 46 45 42 37 40 36 30 34 28
1990.0 16 23 34 34 33 28 24 20 29 41
2030.0 36 41 38 33 37 38 40 37 37 45
2070.0 51 43 27 28 31 25 19 18 24 26
2110.0 28 34 35 27 20 19 20 22 26 29
2150.0 24 16 17 19 20 14 12 15 15 18
2190.0 17 14 15 12 9 12 14 17 20 16
2230.0 10 6 6 11 7 5 12 15 14 16
2270.0 8 2 14 22 23 21 18 16 20 23
2310.0 29 27 24 27 22 17 15 21 21 16
2350.0 15 12 15 17 13 10 9 19 22 26
2390.0 39 38 35 32 18 12 21 29 32 30
2430.0 24 22 18 16 21 29 25 32 40 32
2470.0 36 35 23 24 30 35 36 35 33 34
2510.0 35 38 33 31 36 36 38 39 37 40
2550.0 37 34 46 50 51 51 54 57 50 56
2590.0 65 55 54 65 66 60 61 70 74 69
2630.0 65 66 70 73 73 76 82 82 88 109
2670.0 113 108 113 122 116 112 122 126 127 127
2710.0 129 137 136 139 148 161 179 190 199 214
2750.0 226 222 211 207 209 207 223 249 252 260
2790.0 283 302 333 372 400 431 471 507 556 615
2830.0 685 775 880 1024 1207 1429 1704 2020 2383 2798
2870.0 3273 3787 4206 4474 4585 4547 4412 4219 4088 4115
2910.0 4310 4654 5124 5695 6353 7017 7594 7966 8040 7943
2950.0 7868 7942 8298 8956 9635 10000 9767 8909 7571 6007
2990.0 4563 3416 2619 2103 1766 1530 1366 1239 1114 1004
3030.0 907 833 778 717 671 642 604 573 540 508
3070.0 489 467 454 431 401 386 361 338 324 313
3110.0 297 276 264 256 239 218 218 221 202 190
3150.0 187 177 172 167 150 133 135 147 149 144
3190.0 134 119 111 115 98 76 70 72 65 60
3230.0 57 45 42 38 39 44 41 46 44 38
3270.0 44 32 20 23 22 26 32 32 23 9
3310.0 24 30 24 36 37 26 28 35 36 32
3350.0 20 23 27 16 27 35 38 56 60 71
3390.0 79 72 78 80 90 112 133 161 181 188
3430.0 195 192 186 173 156 139 125 103 86 70
3470.0 60 56 36 27 33 29 29 29 16 10
3510.0 8 14 26 18 8 28 30 25 22 0
3550.0 10 36 44 35 6 16 29 20 24 13
3590.0 15 26 42 57 36 24 20 5 19 27
3630.0 28 43 39 36 20 4 20 25 27 20
3670.0 5 5 34 47 21 20 53 60 51 38
3710.0 23 36 47 48 40 35 23 37 28 15
3750.0 13 30 60 62 62 53 60 68 71 73
3790.0 75 53 30 32 48 71 60 41 48 64
3830.0 63 53 49 53 63
##END=
