##TITLE=Diethoxydiphenylsilane
##JCAMP-DX=4.24
##DATA TYPE=INFRARED SPECTRUM
##ORIGIN=EPA-IR VAPOR PHASE LIBRARY
##OWNER=SRD/NIST
Collection (C) 2018 copyright by the U.S. Secretary of Commerce
on behalf of the United States of America. All rights reserved.
##CAS REGISTRY NO=2553-19-7
##MOLFORM=C 16 H 20 O 2 Si
##$NIST SOURCE=MSDC-IR
##STATE=gas
##XUNITS=1/CM
##YUNITS=ABSORBANCE
##XFACTOR=1.
##YFACTOR=0.001
##DELTAX=3.85796
##FIRSTX=501.5
##LASTX=4000.7
##FIRSTY=19.52
##MAXX=4000.7
##MINX=501.534
##MAXY=0.12847
##MINY=0.0002095
##NPOINTS=908
##XYDATA=(X++(Y..Y))
501.534 19.52 22.12 26.63 34.19 44.86 53.77 53.14 41.39 25.84 14.49
540.114 8.62 5.71 4.05 3.05 2.4 1.89 1.57 1.31 1.06 0.914
578.693 0.873 0.7935 0.8123 0.8915 0.8009 0.7745 0.7627 0.7848 0.9534 1.01
617.273 1.08 1.18 1.2 1.2 1.2 1.22 1.55 2.05 2.48 3.03
655.852 3.8 4.56 5.09 5.44 5.9 6.66 7.47 8.74 11.42 16.56
694.432 23.82 29.68 31.74 32.88 38.08 45.53 47.43 42.01 36.58 36.61
733.011 38.51 36.01 29.61 23.84 20.21 17.25 14.5 12.72 12.39 13.23
771.591 14.75 16.17 16.35 14.8 12.14 9.41 7.23 5.62 4.46 3.68
810.170 3.07 2.63 2.31 2.11 1.95 1.78 1.65 1.52 1.39 1.32
848.750 1.3 1.26 1.23 1.23 1.2 1.19 1.22 1.25 1.3 1.33
887.330 1.41 1.57 1.76 1.99 2.26 2.61 3.08 3.83 4.93 6.48
925.909 8.68 11.68 15.25 18.59 21.11 22.63 23.11 22.33 20.01 16.58
964.489 12.93 9.78 7.45 5.91 4.96 4.45 4.27 4.54 5.05 5.31
1003.068 5.16 5.02 5.24 5.74 6.45 7.4 8.57 9.67 10.5 11.36
1041.648 12.48 14.05 16.18 18.94 22.61 27.53 33.89 41.82 50.85 58.95
1080.227 63.3 62.4 58.25 55.73 58.98 68.81 83.03 98.65 113.15 124.33
1118.807 128.47 120.89 102.31 80.57 63.48 52.64 45.8 41.16 37.7 34.99
1157.387 32.6 30.31 28.05 25.87 23.83 21.9 20.18 18.48 16.42 13.75
1195.966 11.07 8.93 7.41 6.31 5.58 5.1 4.57 4.24 4.01 3.88
1234.546 3.92 3.94 3.96 3.91 3.89 3.92 3.84 3.77 3.76 3.78
1273.125 3.83 3.86 3.88 3.91 3.89 3.94 3.99 3.98 3.83 3.54
1311.705 3.22 2.93 2.73 2.6 2.52 2.44 2.34 2.27 2.29 2.42
1350.284 2.62 2.92 3.28 3.74 4.3 4.83 5.36 6.03 7.15 8.87
1388.864 10.76 11.77 10.99 8.86 6.79 5.55 5.12 5.31 6.3 8.21
1427.443 10.23 10.59 8.66 6.15 4.58 3.87 3.52 3.21 2.87 2.58
1466.023 2.31 2.13 2.03 2.04 2.18 2.28 2.21 1.93 1.59 1.38
1504.603 1.26 1.16 1.09 1.04 1 0.9744 0.9445 0.9545 0.9704 0.9939
1543.182 1.07 1.15 1.17 1.14 1.12 1.16 1.21 1.29 1.36 1.55
1581.762 1.96 2.51 2.89 2.74 2.12 1.48 1.16 1.13 1.14 1.1
1620.341 0.9868 0.845 0.7715 0.7497 0.7677 0.843 0.9688 1.14 1.27 1.27
1658.921 1.16 0.9847 0.8225 0.724 0.6576 0.6278 0.6061 0.5702 0.5625 0.5608
1697.500 0.5459 0.5373 0.5613 0.6121 0.6253 0.6182 0.627 0.6241 0.6197 0.6284
1736.080 0.6562 0.6679 0.6697 0.68 0.7247 0.7824 0.8609 0.9704 1.04 1.1
1774.659 1.14 1.07 0.9701 0.9179 0.9036 0.9373 1.06 1.27 1.57 1.97
1813.239 2.4 2.65 2.57 2.32 2.07 1.88 1.74 1.62 1.55 1.56
1851.819 1.62 1.65 1.67 1.72 1.8 1.91 2.07 2.29 2.49 2.62
1890.398 2.66 2.6 2.4 2.06 1.64 1.3 1.09 0.9731 0.885 0.8292
1928.978 0.8086 0.8023 0.8559 0.9939 1.2 1.46 1.66 1.68 1.62 1.5
1967.557 1.27 0.9686 0.7056 0.538 0.4296 0.381 0.3603 0.3188 0.2983 0.2977
2006.137 0.2916 0.2959 0.291 0.2839 0.2808 0.2596 0.2352 0.2219 0.2242 0.2217
2044.716 0.2429 0.2522 0.2278 0.2386 0.2348 0.2203 0.2129 0.2095 0.2304 0.2364
2083.296 0.2282 0.2353 0.2438 0.2381 0.2399 0.2464 0.2357 0.2455 0.2574 0.2442
2121.875 0.2312 0.2381 0.268 0.2898 0.308 0.3343 0.3386 0.3284 0.3275 0.3249
2160.455 0.3319 0.352 0.3721 0.3918 0.413 0.4138 0.4123 0.4128 0.3923 0.3808
2199.035 0.3713 0.3534 0.3575 0.384 0.4181 0.4279 0.4452 0.4758 0.4881 0.4639
2237.614 0.428 0.4291 0.4141 0.3921 0.3911 0.3846 0.3639 0.3513 0.3377 0.3317
2276.194 0.3292 0.3143 0.3203 0.3421 0.3677 0.3879 0.3851 0.4115 0.5012 0.5982
2314.773 0.6449 0.6139 0.5241 0.4337 0.3963 0.4132 0.4472 0.4451 0.4367 0.4116
2353.353 0.3617 0.3356 0.3095 0.2703 0.2568 0.2554 0.2518 0.2601 0.2805 0.2871
2391.932 0.2712 0.2766 0.2869 0.2822 0.274 0.2798 0.29 0.2875 0.2794 0.2898
2430.512 0.3233 0.3174 0.3108 0.3469 0.3631 0.3773 0.3749 0.3267 0.2771 0.2691
2469.092 0.2934 0.2875 0.2656 0.2691 0.2743 0.2645 0.2673 0.2913 0.3017 0.3052
2507.671 0.2868 0.2855 0.3032 0.2972 0.3004 0.2974 0.3073 0.3251 0.3115 0.3019
2546.251 0.3076 0.3073 0.3327 0.3646 0.3839 0.3565 0.3318 0.3749 0.4463 0.4938
2584.830 0.4756 0.47 0.4999 0.4878 0.4817 0.5115 0.5156 0.5434 0.5631 0.5517
2623.410 0.5476 0.5309 0.4999 0.4682 0.468 0.4862 0.4544 0.453 0.4737 0.4627
2661.989 0.5121 0.5391 0.5363 0.5347 0.5368 0.5763 0.6154 0.6731 0.737 0.8019
2700.569 0.8939 0.955 0.9857 1.02 1.08 1.2 1.31 1.34 1.36 1.41
2739.148 1.46 1.51 1.51 1.45 1.4 1.42 1.51 1.59 1.62 1.62
2777.728 1.56 1.48 1.45 1.44 1.45 1.51 1.57 1.68 1.81 1.94
2816.308 2.1 2.25 2.34 2.48 2.66 2.84 3.13 3.46 3.83 4.32
2854.887 4.87 5.49 6.3 7.42 8.84 10.47 12.17 13.76 15.14 15.94
2893.467 15.92 15.36 14.81 14.6 14.68 14.99 15.38 15.76 16.48 17.97
2932.046 19.77 20.53 19.34 16.86 14.48 13.03 12.52 12.89 14.17 16.45
2970.626 19.94 23.93 26.15 24.86 21.18 17.51 15.03 13.69 13.02 12.61
3009.205 12.33 12.08 11.63 10.69 9.58 8.76 8.25 7.97 8.16 9.35
3047.785 12.05 16.52 21.66 24.44 23.26 20.56 19.21 18.32 15.76 12.21
3086.364 9.49 7.91 6.77 5.51 4.12 3.03 2.37 1.98 1.8 1.78
3124.944 1.84 1.91 1.97 1.98 1.86 1.57 1.23 0.9592 0.8217 0.7531
3163.524 0.7193 0.6979 0.6853 0.7073 0.72 0.678 0.6603 0.6903 0.6381 0.6056
3202.103 0.6026 0.6012 0.5659 0.5386 0.5619 0.5201 0.4912 0.5125 0.5317 0.5146
3240.683 0.4877 0.4656 0.4033 0.3734 0.3698 0.3944 0.4394 0.4274 0.386 0.3687
3279.262 0.393 0.4071 0.3736 0.3407 0.3895 0.4001 0.3849 0.3612 0.3003 0.268
3317.842 0.3074 0.3571 0.317 0.3391 0.3644 0.2863 0.289 0.2995 0.2934 0.3207
3356.421 0.3231 0.3299 0.3097 0.2876 0.3032 0.3256 0.3397 0.3366 0.2886 0.3225
3395.001 0.36 0.3493 0.3526 0.3182 0.383 0.4027 0.3366 0.3228 0.331 0.3415
3433.580 0.3527 0.3655 0.3246 0.3407 0.3424 0.2809 0.2936 0.2897 0.3225 0.3502
3472.160 0.3046 0.3134 0.347 0.3561 0.349 0.3117 0.2898 0.2628 0.2226 0.2552
3510.740 0.3089 0.3213 0.2982 0.2886 0.3396 0.3465 0.286 0.2554 0.2513 0.2586
3549.319 0.2554 0.2702 0.302 0.3077 0.3153 0.3077 0.2909 0.2605 0.2553 0.2979
3587.899 0.2899 0.3024 0.3503 0.3464 0.2608 0.2329 0.2954 0.3737 0.4079 0.4402
3626.478 0.4367 0.3748 0.4049 0.3899 0.3668 0.3297 0.326 0.3658 0.3527 0.3449
3665.058 0.3634 0.3844 0.3712 0.4126 0.4175 0.4145 0.4649 0.5246 0.553 0.5026
3703.637 0.4783 0.4597 0.4495 0.4238 0.4159 0.4286 0.4158 0.4237 0.4524 0.4441
3742.217 0.4303 0.4547 0.4753 0.4409 0.3704 0.384 0.4467 0.4907 0.4664 0.4544
3780.797 0.4903 0.5047 0.5009 0.4627 0.4408 0.4931 0.5231 0.4692 0.421 0.3659
3819.376 0.4009 0.4833 0.453 0.4417 0.4378 0.3885 0.3827 0.388 0.3656 0.3882
3857.956 0.4011 0.4496 0.4556 0.4052 0.4037 0.41 0.4325 0.4455 0.4553 0.4399
3896.535 0.4626 0.4553 0.4458 0.4746 0.4528 0.3988 0.401 0.4291 0.4341 0.4414
3935.115 0.4344 0.513 0.5422 0.5091 0.4667 0.438 0.483 0.5274 0.5469 0.4979
3973.694 0.504 0.5283 0.5165 0.5617 0.6284 0.7161 0.7339 0.7175
##END=
