##TITLE=2-Methoxybenzophenone
##JCAMP-DX=4.24
##DATA TYPE=INFRARED SPECTRUM
##ORIGIN=EPA-IR VAPOR PHASE LIBRARY
##OWNER=SRD/NIST
Collection (C) 2018 copyright by the U.S. Secretary of Commerce
on behalf of the United States of America. All rights reserved.
##CAS REGISTRY NO=2553-04-0
##MOLFORM=C 14 H 12 O 2
##$NIST SOURCE=MSDC-IR
##STATE=gas
##XUNITS=1/CM
##YUNITS=ABSORBANCE
##XFACTOR=1.
##YFACTOR=0.001
##DELTAX=1.92898
##FIRSTX=549.8
##LASTX=4000.7
##FIRSTY=13.063
##MAXX=4000.7
##MINX=549.759
##MAXY=0.378753
##MINY=0
##NPOINTS=1790
##XYDATA=(X++(Y..Y))
549.759 13.063 13.633 14.593 15.163 15.583 16.523 17.273 17.303 17.093 16.893
569.049 16.493 15.883 14.853 13.803 12.963 11.963 11.293 11.113 10.753 10.483
588.339 10.233 9.993 9.653 9.043 8.653 8.263 7.543 7.023 6.733 6.653
607.628 6.773 7.043 7.553 8.203 8.813 9.963 11.713 14.573 20.183 30.453
626.918 48.523 75.833 107.083 130.873 145.473 153.023 148.573 132.363 103.763 70.953
646.208 46.833 32.923 25.573 21.823 20.013 19.083 18.593 18.413 18.773 19.523
665.498 20.413 21.553 23.273 25.213 27.493 30.573 34.563 39.653 46.483 55.483
684.787 67.103 82.573 102.433 125.323 149.053 171.123 187.343 194.933 194.053 184.353
704.077 167.863 147.333 125.663 105.833 89.243 76.053 65.793 58.103 52.283 47.863
723.367 44.933 43.343 42.953 43.693 45.473 48.993 55.053 63.963 75.773 90.683
742.657 107.943 126.293 144.743 161.063 172.003 174.063 166.643 152.953 135.533 116.063
761.947 97.063 80.363 66.303 54.733 45.763 38.883 33.473 29.433 26.443 24.423
781.236 22.993 21.863 21.423 21.673 22.833 24.513 26.803 29.433 32.043 34.383
800.526 36.033 36.173 34.973 32.843 29.373 25.363 21.663 18.423 15.673 13.723
819.816 12.273 11.013 10.133 9.613 9.383 9.273 8.893 8.643 8.743 8.823
839.106 8.963 9.313 9.473 9.673 9.693 9.463 9.683 10.103 10.193 10.053
858.395 10.003 10.263 10.453 10.443 10.573 10.553 10.403 10.413 10.473 10.693
877.685 11.213 11.483 11.793 12.563 13.083 13.533 14.233 14.823 15.693 17.073
896.975 18.703 20.823 23.413 26.513 30.233 34.733 40.713 49.043 61.243 79.673
916.265 106.073 139.603 174.873 205.203 226.243 235.083 231.503 217.263 194.303 169.163
935.555 149.323 136.143 126.893 118.443 108.393 95.233 78.013 58.953 42.713 31.763
954.844 25.273 21.573 19.533 18.443 17.843 17.483 17.233 16.713 16.143 15.633
974.134 15.213 14.793 14.573 14.853 15.463 16.073 16.733 17.563 18.903 21.083
993.424 24.043 27.253 30.333 33.543 37.143 40.713 44.563 48.863 52.913 57.783
1012.714 63.703 70.083 76.863 83.933 90.403 95.033 97.873 98.933 97.793 95.383
1032.003 92.523 88.993 85.793 84.243 83.603 83.123 82.613 80.803 77.303 72.003
1051.293 65.223 58.383 51.443 44.533 39.103 35.043 31.733 29.473 28.053 26.533
1070.583 25.033 23.733 22.433 21.273 19.953 18.893 19.093 20.043 21.243 23.073
1089.873 26.053 29.943 34.173 39.143 44.823 50.763 56.153 60.133 62.633 64.243
1109.163 64.083 61.413 57.633 52.673 47.003 41.643 37.143 33.123 30.103 28.363
1128.452 27.473 27.223 27.273 28.313 30.293 33.563 37.623 42.133 47.623 53.033
1147.742 57.923 62.403 66.443 69.553 70.603 69.113 65.743 62.223 58.683 54.313
1167.032 50.453 48.593 50.033 54.833 61.653 68.063 71.883 73.043 71.823 68.203
1186.322 61.593 53.293 46.003 40.923 38.413 37.253 37.023 37.793 38.853 40.673
1205.611 43.173 46.063 50.163 55.463 61.593 69.283 77.943 87.973 100.573 116.383
1224.901 135.293 156.933 181.113 208.013 237.403 266.603 294.643 320.273 342.103 359.073
1244.191 370.173 375.823 376.823 374.303 367.993 358.283 345.693 330.833 314.283 296.523
1263.481 278.723 262.943 249.923 240.033 235.073 236.293 243.513 256.083 273.873 295.573
1282.771 318.153 339.073 354.993 362.383 359.233 345.673 323.013 293.463 260.683 228.903
1302.060 201.543 181.443 170.043 165.903 164.883 162.623 157.013 147.423 133.283 114.893
1321.350 94.163 74.503 59.333 49.213 42.503 37.763 34.143 31.243 28.753 26.573
1340.640 24.613 22.783 21.273 19.973 18.803 17.853 17.073 16.443 15.883 15.353
1359.930 15.023 14.743 14.413 14.173 14.093 14.083 14.073 14.133 14.293 14.383
1379.219 14.423 14.513 14.483 14.343 14.183 14.053 14.023 14.103 14.223 14.533
1398.509 15.013 15.553 16.293 17.203 18.313 19.623 21.253 23.283 25.783 28.813
1417.799 32.503 37.213 42.953 50.013 58.853 69.103 81.043 93.713 105.913 116.193
1437.089 124.623 130.773 135.083 138.113 139.413 139.073 138.743 138.723 138.283 136.603
1456.378 132.663 128.523 126.343 125.173 124.523 124.563 126.433 130.393 136.393 144.733
1475.668 154.593 165.733 176.503 185.703 191.473 192.303 187.363 176.943 161.563 143.283
1494.958 123.703 103.763 86.213 71.493 59.673 50.693 43.483 37.903 33.743 30.393
1514.248 27.833 25.753 24.023 22.753 21.713 20.933 20.433 20.093 19.923 19.853
1533.538 19.993 20.303 20.653 20.903 21.433 22.043 22.553 23.153 23.813 24.773
1552.827 25.943 27.253 29.003 31.143 33.633 36.523 40.333 44.993 50.493 57.253
1572.117 64.873 72.863 81.573 90.173 97.933 105.323 112.203 119.393 127.383 136.803
1591.407 148.013 160.023 170.873 177.673 178.233 171.603 158.243 140.173 119.373 98.013
1610.697 79.373 64.373 53.583 45.923 40.203 36.173 33.273 31.093 29.413 28.063
1629.986 27.263 27.053 27.003 27.213 27.833 28.583 29.633 30.803 32.233 33.953
1649.276 35.993 38.513 42.203 46.613 51.843 58.493 66.683 76.643 88.493 102.633
1668.566 120.573 143.523 171.343 204.143 243.213 282.413 320.233 351.413 371.573 378.753
1687.856 367.983 341.223 304.433 264.843 223.393 185.433 155.393 128.613 110.163 95.253
1707.146 83.883 74.533 66.593 59.593 53.603 48.453 44.033 40.293 36.863 33.773
1726.435 31.063 28.443 25.953 23.583 21.343 19.483 18.033 16.603 15.553 14.733
1745.725 14.133 13.623 13.313 13.113 12.983 12.833 12.683 12.563 12.373 12.243
1765.015 12.213 12.033 11.903 11.873 11.683 11.503 11.233 10.883 10.613 10.273
1784.305 10.003 9.863 9.963 10.253 10.543 10.883 11.343 11.883 12.433 12.953
1803.594 13.483 13.763 13.843 13.683 13.233 12.573 11.803 10.983 10.133 9.303
1822.884 8.603 8.023 7.513 7.023 6.693 6.413 6.123 5.853 5.653 5.663
1842.174 5.713 5.743 5.823 5.893 6.003 6.103 6.173 6.223 6.233 6.243
1861.464 6.253 6.173 6.133 6.153 6.083 6.053 6.133 6.343 6.613 6.893
1880.754 7.273 7.763 8.333 8.923 9.633 10.313 10.873 11.323 11.693 12.143
1900.043 12.453 12.623 12.833 12.923 12.733 12.253 11.593 10.823 9.913 9.023
1919.333 8.353 7.823 7.483 7.513 7.733 8.133 8.573 8.973 9.363 9.593
1938.623 9.713 9.753 9.853 9.923 9.883 9.943 10.053 10.103 10.053 9.863
1957.913 9.603 9.343 9.063 8.773 8.313 7.743 7.193 6.643 6.023 5.333
1977.202 4.783 4.443 4.163 3.963 3.973 4.053 4.023 4.053 4.093 4.123
1996.492 4.163 4.203 4.213 4.303 4.423 4.513 4.653 4.723 4.853 4.993
2015.782 5.153 5.443 5.693 5.953 6.333 6.663 6.893 7.093 7.343 7.573
2035.072 7.793 7.923 7.933 8.083 8.183 8.203 8.263 8.183 8.043 7.953
2054.362 7.823 7.673 7.513 7.193 6.843 6.613 6.333 5.993 5.733 5.453
2073.651 5.153 4.893 4.733 4.603 4.313 3.973 3.793 3.643 3.453 3.283
2092.941 3.053 2.923 2.843 2.673 2.533 2.393 2.303 2.183 1.993 1.923
2112.231 1.943 1.833 1.803 1.833 1.783 1.823 1.843 1.823 1.793 1.783
2131.521 1.873 1.903 1.873 1.843 1.913 1.933 1.913 1.853 1.723 1.743
2150.810 1.813 1.823 1.833 1.823 1.823 1.903 1.913 1.853 1.913 2.003
2170.100 1.983 1.983 1.993 1.963 2.023 2.043 2.033 2.073 2.103 2.123
2189.390 2.123 2.133 2.153 2.153 2.113 2.073 2.003 1.893 1.813 1.833
2208.680 1.873 1.803 1.703 1.643 1.713 1.823 1.793 1.733 1.753 1.853
2227.970 1.823 1.833 1.983 2.103 2.073 2.073 2.243 2.293 2.353 2.423
2247.259 2.513 2.693 2.803 2.933 3.013 3.053 3.113 3.043 3.073 3.283
2266.549 3.403 3.453 3.473 3.473 3.503 3.523 3.643 3.753 3.703 3.543
2285.839 3.433 3.383 3.293 3.233 3.223 3.183 3.063 2.933 2.833 2.783
2305.129 2.703 2.773 3.063 3.223 3.353 3.553 3.653 3.673 3.513 3.343
2324.418 3.173 2.883 2.723 2.633 2.593 2.713 2.663 2.573 2.623 2.613
2343.708 2.543 2.423 2.313 2.213 2.173 2.193 2.133 1.993 1.983 2.063
2362.998 2.183 2.233 2.273 2.383 2.463 2.413 2.433 2.573 2.723 2.873
2382.288 2.983 3.103 3.153 3.193 3.223 3.293 3.363 3.253 3.233 3.243
2401.578 3.203 3.183 3.053 3.003 2.883 2.673 2.563 2.463 2.393 2.313
2420.867 2.273 2.263 2.243 2.213 2.233 2.283 2.263 2.263 2.193 2.163
2440.157 2.183 2.113 2.193 2.183 2.053 2.093 2.213 2.253 2.123 2.123
2459.447 2.243 2.333 2.363 2.413 2.573 2.593 2.533 2.663 2.763 2.773
2478.737 2.833 2.963 2.933 2.933 2.993 2.973 3.043 3.123 3.223 3.193
2498.026 3.143 3.133 3.133 3.263 3.333 3.293 3.263 3.383 3.453 3.343
2517.316 3.363 3.393 3.273 3.303 3.423 3.313 3.323 3.473 3.393 3.363
2536.606 3.413 3.493 3.563 3.493 3.403 3.353 3.303 3.283 3.333 3.233
2555.896 3.093 3.053 3.053 3.023 2.923 2.803 2.643 2.573 2.643 2.753
2575.186 2.833 2.863 2.933 2.913 2.893 2.983 3.023 3.013 3.073 3.153
2594.475 3.273 3.293 3.143 3.093 2.993 2.763 2.743 2.663 2.563 2.543
2613.765 2.453 2.393 2.413 2.383 2.423 2.483 2.493 2.513 2.433 2.393
2633.055 2.513 2.543 2.553 2.423 2.213 2.193 2.183 2.063 1.893 1.743
2652.345 1.593 1.5401 1.4184 1.3265 1.3943 1.3786 1.2731 1.2153 1.2102 1.2546
2671.634 1.2704 1.1861 1.115 1.2004 1.3287 1.4007 1.2988 1.2873 1.5058 1.683
2690.924 1.723 1.723 1.853 2.023 2.103 2.183 2.213 2.213 2.343 2.453
2710.214 2.423 2.463 2.663 2.673 2.633 2.683 2.713 2.813 2.703 2.663
2729.504 2.813 3.023 3.093 3.173 3.473 3.553 3.563 3.563 3.573 3.563
2748.794 3.453 3.373 3.273 3.163 3.213 3.303 3.243 3.143 3.173 3.193
2768.083 2.953 2.933 3.153 3.223 3.283 3.323 3.383 3.373 3.293 3.393
2787.373 3.533 3.753 4.063 4.313 4.353 4.383 4.693 5.003 5.263 5.613
2806.663 5.893 6.193 6.783 7.423 8.133 8.873 9.733 10.753 11.923 13.403
2825.953 14.993 17.123 19.773 22.853 26.693 30.923 35.213 39.353 42.823 44.793
2845.242 45.193 44.463 42.273 38.813 35.013 31.163 27.663 25.173 23.223 21.783
2864.532 20.913 20.293 19.913 19.743 19.763 19.823 20.113 20.503 20.823 21.093
2883.822 21.333 21.673 22.033 22.443 23.003 23.653 24.253 24.793 25.393 25.883
2903.112 26.463 27.213 27.813 28.523 29.273 30.093 31.063 32.073 33.163 34.213
2922.401 35.483 36.983 38.603 40.513 42.863 45.573 49.113 53.163 57.243 61.523
2941.691 65.583 68.753 70.763 71.543 71.093 69.613 67.073 63.853 60.523 57.473
2960.981 54.503 51.683 49.123 46.103 42.703 39.623 36.893 34.203 31.893 30.233
2980.271 28.793 27.913 27.483 27.453 27.883 28.613 29.733 30.993 32.853 35.183
2999.561 37.803 40.763 43.783 46.563 48.793 50.143 50.453 50.093 49.253 48.013
3018.850 47.053 46.813 47.343 48.583 50.333 52.343 54.173 55.423 55.983 55.843
3038.140 54.703 52.883 51.203 49.743 48.583 48.123 48.663 50.623 54.123 59.003
3057.430 65.143 72.483 81.193 91.443 102.833 113.873 122.543 128.063 130.413 129.613
3076.720 126.163 120.063 112.013 104.143 97.213 90.053 82.173 73.643 64.933 56.753
3096.009 49.673 43.753 38.653 34.553 31.083 27.673 24.433 21.463 18.653 15.983
3115.299 13.783 12.093 10.703 9.703 8.963 8.303 7.743 7.443 7.213 6.773
3134.589 6.273 6.053 5.973 5.803 5.613 5.733 5.883 5.903 5.993 5.943
3153.879 6.093 6.283 6.043 5.713 5.603 5.523 5.223 4.753 4.373 3.923
3173.169 3.553 3.153 2.813 2.573 2.473 2.403 2.143 2.063 2.003 1.773
3192.458 1.793 1.733 1.633 1.583 1.5064 1.633 1.623 1.4572 1.2293 1.1003
3211.748 0.9983 1.0982 1.1744 1.1468 1.1362 1.0548 1.062 1.0709 1.0545 0.9155
3231.038 0.9297 1.0091 0.8276 0.7795 0.9615 0.9348 0.8036 0.7832 0.8815 0.8565
3250.328 0.7139 0.7487 0.8073 0.7578 0.8248 0.9935 0.9546 0.961 1.1196 1.0357
3269.617 0.9239 0.95 0.8341 0.8583 1.0938 1.0635 0.9538 0.996 1.0318 0.9416
3288.907 0.9409 1.0329 0.9669 0.8202 0.8983 1.0208 1.059 1.2565 1.2097 1.2549
3308.197 1.4186 1.3472 1.377 1.4147 1.4955 1.663 1.723 1.793 1.853 2.143
3327.487 2.293 2.323 2.673 2.843 3.063 3.383 3.743 4.263 4.563 4.823
3346.777 5.283 5.473 5.293 5.233 5.273 5.113 4.873 4.723 4.433 4.033
3366.066 3.603 3.183 2.853 2.803 2.773 2.523 2.203 2.153 2.083 1.663
3385.356 1.5466 1.733 1.4304 1.1482 1.0422 1.1128 1.3997 1.3175 1.231 0.9411
3404.646 0.737 0.9894 0.963 0.8989 0.9705 1.0877 1.006 0.8143 0.68275 0.6771
3423.936 0.7874 0.786 0.68046 0.447 0.278 0.415 0.6627 0.7349 0.63691 0.5006
3443.225 0.425 0.329 0.3 0.309 0.271 0.301 0.321 0.232 0.331 0.4894
3462.515 0.60252 0.5128 0.414 0.342 0.339 0.45 0.417 0.5376 0.45 0.288
3481.805 0.165 0.304 0.5033 0.209 0.235 0.389 0.281 0.133 0.152 0.341
3501.095 0.5205 0.405 0.257 0.368 0.422 0.272 0.13 0 0.02 0.228
3520.385 0.362 0.306 0.218 0.382 0.5211 0.353 0.255 0.418 0.445 0.19
3539.674 0.134 0.168 0.127 0.2 0.252 0.34 0.298 0.4951 0.5572 0.396
3558.964 0.397 0.15 0.268 0.323 0.095 0.185 0.263 0.26 0.141 0.147
3578.254 0.236 0.373 0.418 0.452 0.399 0.359 0.355 0.263 0.277 0.354
3597.544 0.399 0.37 0.403 0.304 0.283 0.361 0.25 0.395 0.4993 0.26
3616.833 0.024 0.026 0.273 0.233 0.231 0.395 0.25 0.267 0.6713 0.8694
3636.123 0.857 0.817 0.8648 0.8515 0.8095 0.7765 0.63232 0.65458 0.7034 0.7677
3655.413 0.7663 0.9256 1.0198 0.7467 0.8459 1.2713 1.2383 0.8655 0.8501 0.63737
3674.703 0.415 0.7583 0.818 0.64604 0.62961 0.62812 0.7738 0.62249 0.5225 0.7405
3693.993 0.6935 0.7869 0.873 0.946 1.1817 1.0359 0.9941 1.158 1.1615 1.1721
3713.282 1.1995 1.2597 1.3302 1.3984 1.2087 0.8592 0.61182 0.60449 0.5316 0.5221
3732.572 0.5353 0.349 0.57837 0.7789 0.429 0.21 0.35 0.4 0.439 0.65497
3751.862 0.7278 0.62116 0.65321 0.6417 0.7605 0.814 0.7508 0.8776 0.9438 0.9626
3771.152 1.0566 0.9998 0.9334 0.8185 0.65667 0.7705 0.8202 0.9339 1.0088 0.8098
3790.441 0.8384 0.904 0.7295 0.60094 0.62405 0.7044 0.67965 0.7958 0.7151 0.4994
3809.731 0.61283 0.63217 0.64949 0.67774 0.66672 0.772 0.7631 0.5182 0.443 0.7629
3829.021 0.61646 0.365 0.5101 0.64398 0.7827 1.07 0.9317 0.7012 0.8329 0.7105
3848.311 0.5648 0.5217 0.4863 0.5608 1.0365 1.1793 1.1239 1.2346 1.3217 1.4296
3867.601 1.3783 1.4305 1.2598 0.8347 0.8025 1.0071 0.8245 0.8499 1.2504 1.0687
3886.890 0.7266 0.8301 0.7331 0.5686 0.457 0.384 0.5623 0.59943 0.5546 0.62701
3906.180 0.6417 0.58057 0.5642 0.508 0.453 0.4939 0.7125 0.5123 0.343 0.424
3925.470 0.443 0.5574 0.6832 0.7597 0.8618 0.9632 0.8377 0.7767 0.8408 0.9213
3944.760 0.9839 1.1484 1.0675 0.758 0.8675 0.9826 0.8837 0.8589 0.9955 1.2083
3964.049 1.3196 1.4526 1.4642 1.5338 1.5758 1.2936 1.3644 1.4792 1.23 1.2621
3983.339 1.3681 1.341 1.4451 1.803 2.123 2.013 2.043 2.173 1.993 1.813
##END=
