##TITLE=p-Methoxybenzylidene p-biphenylaniline
##JCAMP-DX=4.24
##DATA TYPE=INFRARED SPECTRUM
##ORIGIN=EPA-IR VAPOR PHASE LIBRARY
##OWNER=SRD/NIST
Collection (C) 2018 copyright by the U.S. Secretary of Commerce
on behalf of the United States of America. All rights reserved.
##CAS REGISTRY NO=25543-63-9
##MOLFORM=C 20 H 17 N O
##$NIST SOURCE=MSDC-IR
##STATE=gas
##XUNITS=1/CM
##YUNITS=ABSORBANCE
##XFACTOR=1.
##YFACTOR=0.001
##DELTAX=1.92898
##FIRSTX=549.8
##LASTX=4000.7
##FIRSTY=1.843
##MAXX=4000.7
##MINX=549.759
##MAXY=0.034273
##MINY=0
##NPOINTS=1790
##XYDATA=(X++(Y..Y))
549.759 1.843 2.053 2.063 2.403 2.383 1.943 1.973 2.293 2.353 1.973
569.049 1.753 1.653 1.353 1.153 0.8882 0.8208 0.8496 0.9067 1.035 0.7378
588.339 0.6537 0.5404 0.3038 0.4379 0.6549 0.7667 0.7842 0.8401 0.8582 0.9398
607.628 1.313 1.803 2.413 3.133 3.633 3.893 3.433 2.593 2.053 1.623
626.918 1.373 1.084 0.9812 1.0049 0.9383 0.9087 0.8654 1.0206 1.0871 0.8735
646.208 0.8559 0.7671 0.5782 0.6496 0.8867 0.9539 0.8635 0.8653 0.8419 0.8445
665.498 0.8757 0.9603 0.983 0.952 1.0953 1.243 1.213 1.303 1.533 1.853
684.787 2.163 2.373 2.773 3.163 3.393 3.683 3.783 3.713 3.733 3.553
704.077 3.173 2.783 2.543 2.393 2.143 1.913 1.913 1.903 1.823 1.923
723.367 1.953 1.893 1.923 2.003 1.933 1.783 1.773 1.773 1.863 1.893
742.657 1.883 2.023 2.253 2.493 2.763 3.213 3.543 3.733 3.813 3.913
761.947 3.913 3.703 3.503 3.273 2.963 2.653 2.363 1.963 1.713 1.653
781.236 1.603 1.423 1.133 1.0568 1.1204 1.1169 1.233 1.443 1.443 1.363
800.526 1.433 1.503 1.473 1.503 1.803 2.033 1.973 2.193 2.603 2.933
819.816 3.493 3.853 4.083 4.493 5.043 5.793 6.463 6.973 7.463 7.653
839.106 7.443 6.923 6.393 5.963 5.253 4.463 3.923 3.553 3.073 2.553
858.395 2.283 2.163 2.093 2.113 2.213 2.213 2.183 2.313 2.423 2.553
877.685 2.803 3.213 3.693 4.033 4.193 4.323 4.103 3.603 3.163 2.573
896.975 2.093 1.723 1.533 1.303 1.0541 1.0155 1.0027 0.9282 0.9031 0.9371
916.265 0.8799 0.9368 0.8768 0.7146 0.796 0.8201 0.8167 0.8674 0.8287 0.8507
935.555 0.8563 0.8197 0.8781 0.9595 1.0458 1.133 0.9905 0.9514 0.9669 0.9088
954.844 0.9396 1.163 1.243 1.213 1.333 1.263 1.233 1.373 1.503 1.493
974.134 1.433 1.373 1.283 1.353 1.373 1.173 1.193 1.423 1.413 1.413
993.424 1.643 1.853 1.783 1.853 2.213 2.793 3.833 4.743 4.753 3.893
1012.714 2.873 2.433 2.453 2.663 2.883 3.053 3.393 3.813 4.183 4.783
1032.003 5.383 5.783 6.213 6.443 6.343 5.873 5.183 4.563 3.893 3.423
1051.293 3.123 2.643 2.283 2.123 2.013 1.963 1.703 1.433 1.503 1.543
1070.583 1.533 1.563 1.413 1.433 1.333 0.8288 0.9016 1.213 1.223 1.123
1089.873 1.183 1.303 1.183 1.493 1.863 1.983 2.413 2.483 2.543 2.873
1109.163 2.663 2.323 2.223 1.923 1.813 1.663 1.363 1.403 1.443 1.383
1128.452 1.413 1.613 1.693 1.383 1.1088 1.243 1.563 1.693 1.793 2.263
1147.742 2.803 3.263 4.423 5.843 7.823 11.583 18.033 26.123 32.703 34.273
1167.032 29.463 21.503 14.513 10.123 7.753 6.603 6.083 5.863 5.663 5.073
1186.322 4.863 5.153 5.423 5.983 6.333 6.323 5.943 5.283 4.743 4.323
1205.611 3.823 3.383 3.573 3.953 4.123 4.283 4.773 5.283 5.183 5.203
1224.901 5.773 6.553 7.503 8.393 9.553 10.983 12.563 14.693 16.963 19.363
1244.191 22.043 24.513 26.493 27.413 26.913 25.323 23.043 20.343 17.483 14.643
1263.481 11.913 9.703 8.343 7.303 6.493 6.053 5.753 5.393 5.153 5.253
1282.771 5.383 5.673 6.013 6.413 6.943 7.313 7.763 8.263 8.733 9.223
1302.060 9.543 9.403 8.663 7.523 6.353 5.273 4.373 3.673 3.113 2.693
1321.350 2.423 2.193 2.013 1.903 1.833 1.783 1.723 1.653 1.603 1.593
1340.640 1.563 1.503 1.433 1.393 1.383 1.303 1.253 1.223 1.223 1.263
1359.930 1.283 1.333 1.353 1.353 1.363 1.313 1.283 1.273 1.233 1.223
1379.219 1.223 1.213 1.203 1.223 1.223 1.233 1.233 1.223 1.243 1.273
1398.509 1.283 1.333 1.423 1.543 1.703 1.853 2.143 2.543 2.993 3.533
1417.799 3.973 4.093 3.823 3.283 2.753 2.323 2.013 1.863 1.873 2.003
1437.089 2.133 2.303 2.603 2.993 3.323 3.413 3.313 3.133 2.993 2.913
1456.378 2.943 3.093 3.283 3.563 3.883 4.273 4.703 5.093 5.473 5.983
1475.668 6.873 8.333 10.283 12.123 12.843 12.073 10.123 8.043 6.663 6.023
1494.958 5.973 6.413 7.303 8.553 10.293 12.583 15.463 18.533 21.263 23.063
1514.248 23.043 20.843 16.873 12.593 8.913 6.563 5.063 4.103 3.483 3.063
1533.538 2.793 2.533 2.433 2.413 2.333 2.323 2.263 2.193 2.213 2.323
1552.827 2.463 2.593 2.743 2.883 3.123 3.453 3.893 4.543 5.463 6.583
1572.117 8.013 9.593 11.013 11.693 11.293 10.373 9.703 9.863 11.123 13.283
1591.407 15.933 18.903 21.863 24.273 25.463 25.073 23.503 21.143 18.493 15.903
1610.697 13.503 11.483 10.013 8.983 8.373 8.393 8.823 9.683 11.023 12.603
1629.986 14.013 14.753 14.473 13.143 11.303 9.423 7.873 6.693 5.743 5.053
1649.276 4.483 4.003 3.643 3.353 3.093 2.903 2.683 2.503 2.353 2.203
1668.566 2.063 1.923 1.773 1.673 1.563 1.493 1.443 1.303 1.203 1.153
1687.856 1.1092 1.0726 1.037 1.019 0.9628 0.9433 0.9188 0.8707 0.913 0.9247
1707.146 0.8816 0.8387 0.8451 0.8671 0.8979 0.9165 0.8703 0.8499 0.8406 0.8352
1726.435 0.8621 0.8362 0.8039 0.7986 0.8129 0.7881 0.7399 0.7898 0.7769 0.7609
1745.725 0.7977 0.8213 0.8017 0.781 0.8028 0.8021 0.8012 0.8469 0.9126 0.9409
1765.015 0.9343 0.9445 0.8906 0.8285 0.8569 0.8555 0.8402 0.82 0.7875 0.7618
1784.305 0.7365 0.7646 0.8067 0.8102 0.8567 0.8705 0.8134 0.7814 0.7605 0.7249
1803.594 0.6669 0.6087 0.5818 0.6009 0.621 0.5999 0.5865 0.5798 0.5846 0.6051
1822.884 0.607 0.5795 0.5572 0.5703 0.5568 0.5517 0.5702 0.5852 0.5672 0.5297
1842.174 0.5572 0.5546 0.5123 0.577 0.6033 0.5462 0.5517 0.5775 0.5955 0.629
1861.464 0.6227 0.6037 0.6754 0.7244 0.7248 0.7366 0.7526 0.8013 0.8826 0.9296
1880.754 0.9084 0.9617 1.0069 1.0019 1.0299 0.9313 0.8629 0.8587 0.8124 0.821
1900.043 0.8094 0.7483 0.7227 0.7124 0.686 0.6641 0.631 0.6435 0.6973 0.7211
1919.333 0.7213 0.691 0.7066 0.7987 0.8214 0.8229 0.9004 0.9327 0.9175 0.9144
1938.623 0.8832 0.8587 0.8318 0.8042 0.7803 0.7566 0.777 0.7388 0.7188 0.7485
1957.913 0.6995 0.608 0.5501 0.5476 0.5246 0.4929 0.4858 0.4697 0.5099 0.5303
1977.202 0.5028 0.4635 0.4427 0.4957 0.5344 0.5502 0.5201 0.5077 0.5129 0.5417
1996.492 0.5684 0.5459 0.5045 0.5527 0.6866 0.6717 0.6882 0.7729 0.7819 0.8107
2015.782 0.8136 0.8146 0.8372 0.7878 0.7687 0.7764 0.7492 0.7116 0.7141 0.6907
2035.072 0.6829 0.7307 0.7023 0.6686 0.6559 0.6723 0.7212 0.7481 0.7593 0.8062
2054.362 0.8098 0.8231 0.84 0.8022 0.8106 0.8198 0.8256 0.7953 0.7656 0.7741
2073.651 0.7764 0.774 0.7596 0.7453 0.6343 0.5822 0.5891 0.5749 0.6009 0.5438
2092.941 0.5003 0.5371 0.5445 0.5149 0.4805 0.4556 0.435 0.4295 0.4348 0.3652
2112.231 0.2876 0.322 0.427 0.4018 0.3274 0.3325 0.3466 0.3355 0.3086 0.3369
2131.521 0.3773 0.362 0.3386 0.3659 0.4118 0.4097 0.3609 0.2803 0.2817 0.346
2150.810 0.3768 0.3509 0.297 0.2901 0.2804 0.3115 0.3556 0.3739 0.3395 0.2922
2170.100 0.318 0.3106 0.2828 0.2588 0.2627 0.2933 0.2759 0.2855 0.3061 0.325
2189.390 0.28 0.2396 0.2855 0.256 0.2463 0.2549 0.19668 0.19598 0.2682 0.2753
2208.680 0.2441 0.2538 0.2958 0.3301 0.3377 0.319 0.3443 0.3675 0.2806 0.2714
2227.970 0.3348 0.3576 0.3629 0.3484 0.3124 0.3128 0.334 0.3474 0.3431 0.2958
2247.259 0.33 0.3637 0.3474 0.3417 0.3328 0.343 0.3579 0.3638 0.3835 0.4138
2266.549 0.4252 0.4699 0.4176 0.3481 0.3921 0.4177 0.4012 0.416 0.4469 0.4375
2285.839 0.4375 0.427 0.4387 0.4419 0.3518 0.3399 0.4006 0.4135 0.4039 0.4039
2305.129 0.3779 0.3861 0.3583 0.3066 0.3737 0.4235 0.3819 0.3818 0.4195 0.3871
2324.418 0.3862 0.437 0.412 0.3878 0.3899 0.436 0.4779 0.3967 0.4031 0.4184
2343.708 0.4373 0.4467 0.432 0.4253 0.4268 0.419 0.3329 0.3211 0.3747 0.3893
2362.998 0.3554 0.3596 0.3691 0.3801 0.4123 0.408 0.4216 0.4364 0.3948 0.4001
2382.288 0.3951 0.3709 0.4229 0.4353 0.4228 0.4251 0.3975 0.3951 0.4062 0.4028
2401.578 0.3912 0.4184 0.4363 0.4016 0.3809 0.3431 0.3118 0.3441 0.3939 0.4177
2420.867 0.4069 0.3754 0.3848 0.3906 0.3805 0.4073 0.4704 0.4034 0.3651 0.4348
2440.157 0.4138 0.3427 0.3936 0.4673 0.435 0.4394 0.4111 0.4328 0.4025 0.355
2459.447 0.3951 0.3816 0.414 0.4203 0.417 0.4362 0.4304 0.4426 0.4111 0.3898
2478.737 0.4453 0.4543 0.4628 0.4611 0.3976 0.3892 0.4621 0.5291 0.5204 0.5443
2498.026 0.495 0.4281 0.4462 0.4572 0.4593 0.4208 0.4726 0.5086 0.4523 0.5175
2517.316 0.5213 0.4798 0.4955 0.492 0.4732 0.43 0.4301 0.4246 0.4991 0.5503
2536.606 0.5325 0.5764 0.6597 0.7057 0.7021 0.6762 0.7042 0.7466 0.7043 0.6704
2555.896 0.6836 0.6884 0.6901 0.6236 0.5423 0.4922 0.4901 0.5361 0.5336 0.507
2575.186 0.4427 0.3709 0.3907 0.433 0.4345 0.438 0.4282 0.4607 0.4889 0.4191
2594.475 0.4172 0.4822 0.4322 0.3946 0.3639 0.3625 0.4068 0.3758 0.3428 0.4054
2613.765 0.395 0.3596 0.3783 0.3926 0.4489 0.4853 0.4301 0.3988 0.3953 0.352
2633.055 0.4036 0.4128 0.3413 0.3436 0.3724 0.3699 0.3656 0.3595 0.3329 0.2795
2652.345 0.2424 0.2902 0.3358 0.2779 0.2822 0.3506 0.3596 0.3129 0.3091 0.3075
2671.634 0.3045 0.3787 0.3484 0.3015 0.2991 0.2734 0.3384 0.3653 0.3008 0.2823
2690.924 0.2631 0.2503 0.3605 0.4126 0.2677 0.21352 0.3214 0.3754 0.4007 0.3859
2710.214 0.3477 0.3816 0.3967 0.4328 0.428 0.4045 0.4049 0.3809 0.364 0.3623
2729.504 0.3601 0.4106 0.4277 0.3904 0.3539 0.3442 0.357 0.3559 0.4135 0.5059
2748.794 0.4973 0.4624 0.53 0.5605 0.5419 0.4687 0.4144 0.463 0.49 0.4343
2768.083 0.3976 0.3666 0.4493 0.5541 0.5578 0.578 0.5357 0.4569 0.4762 0.524
2787.373 0.5255 0.5173 0.4656 0.5202 0.5931 0.5886 0.6451 0.6293 0.5894 0.637
2806.663 0.6614 0.6401 0.6504 0.6862 0.7366 0.8033 0.8588 0.8494 0.8692 0.9576
2825.953 1.0326 1.133 1.333 1.483 1.573 1.793 2.043 2.383 2.853 3.383
2845.242 3.813 3.953 3.823 3.643 3.373 3.043 2.803 2.713 2.653 2.633
2864.532 2.633 2.573 2.493 2.403 2.363 2.333 2.313 2.313 2.283 2.193
2883.822 2.083 1.983 1.903 1.883 1.933 1.843 1.723 1.593 1.563 1.633
2903.112 1.693 1.783 1.803 1.883 2.023 2.163 2.223 2.113 2.083 2.093
2922.401 2.073 2.113 2.133 2.153 2.163 2.233 2.363 2.533 2.733 2.983
2941.691 3.133 3.273 3.363 3.323 3.303 3.233 3.243 3.223 3.063 2.993
2960.981 2.963 2.823 2.743 2.573 2.353 2.293 2.183 2.003 1.933 1.893
2980.271 1.823 1.853 1.913 1.903 1.923 1.893 1.843 2.033 2.343 2.483
2999.561 2.673 2.853 3.113 3.533 3.893 4.263 4.433 4.303 4.033 3.643
3018.850 3.373 3.213 3.433 3.883 4.333 5.013 5.723 6.313 6.633 6.413
3038.140 5.763 5.023 4.253 3.593 3.243 3.033 2.953 3.023 3.153 3.313
3057.430 3.523 3.763 4.003 4.623 5.463 6.103 6.523 6.513 6.093 5.623
3076.720 5.293 5.003 4.693 4.373 4.113 3.823 3.513 3.223 2.993 2.783
3096.009 2.533 2.373 2.163 2.013 1.923 1.753 1.643 1.633 1.583 1.413
3115.299 1.293 1.263 1.203 1.0629 0.9795 0.9223 0.8312 0.7413 0.7098 0.6686
3134.589 0.6345 0.6497 0.6074 0.5171 0.5022 0.524 0.5059 0.5101 0.5307 0.4747
3153.879 0.4109 0.4018 0.3803 0.3738 0.3957 0.4678 0.4332 0.3157 0.3227 0.229
3173.169 0.129364 0.1799 0.3028 0.2863 0.16072 0.2589 0.3105 0.321 0.3088 0.277
3192.458 0.3472 0.3375 0.3915 0.418 0.286 0.2902 0.3252 0.3633 0.3272 0.21369
3211.748 0.2321 0.2929 0.321 0.2986 0.289 0.3515 0.3271 0.2993 0.3918 0.4442
3231.038 0.4206 0.4168 0.411 0.3624 0.329 0.3154 0.3885 0.3642 0.2584 0.2745
3250.328 0.3313 0.4035 0.3266 0.2274 0.2776 0.3606 0.421 0.3337 0.2661 0.31
3269.617 0.2895 0.2439 0.223 0.2346 0.20669 0.16205 0.14288 0.0814 0.13858 0.241
3288.907 0.2093 0.20892 0.3347 0.3491 0.264 0.20835 0.14035 0.15613 0.2075 0.13367
3308.197 0.09 0.1444 0.16909 0.19621 0.15736 0.132178 0.18819 0.17096 0.16346 0.16964
3327.487 0.11734 0.1391 0.1658 0.223 0.20685 0.16943 0.245 0.2296 0.2476 0.2802
3346.777 0.2572 0.3332 0.3089 0.19025 0.2233 0.2737 0.2857 0.2374 0.15078 0.19726
3366.066 0.15715 0.0626 0.1094 0.18812 0.1966 0.2313 0.2246 0.133 0.21715 0.2599
3385.356 0.3515 0.3666 0.245 0.20788 0.18751 0.2374 0.2693 0.21464 0.17089 0.21865
3404.646 0.20703 0.15782 0.20824 0.21707 0.20849 0.2342 0.16431 0.14099 0.2599 0.3237
3423.936 0.2395 0.1868 0.14898 0.0907 0.1042 0.2515 0.3845 0.3179 0.17141 0.0704
3443.225 0.15757 0.128918 0.0988 0.2476 0.265 0.19336 0.147 0.2284 0.21249 0.2633
3462.515 0.3148 0.2584 0.21957 0.2291 0.19028 0.11785 0.1058 0.092 0.15883 0.2451
3481.805 0.2309 0.126034 0.14659 0.18308 0.2286 0.17996 0.128002 0.2546 0.3021 0.3235
3501.095 0.19353 0.091 0.21728 0.2382 0.2461 0.3187 0.3394 0.3008 0.2657 0.3423
3520.385 0.3664 0.2407 0.20629 0.2586 0.2682 0.2862 0.2883 0.3491 0.3348 0.2483
3539.674 0.22202 0.2237 0.3623 0.3167 0.159 0.21602 0.21949 0.21007 0.2749 0.2793
3558.964 0.245 0.1996 0.19493 0.19134 0.20794 0.17934 0.132842 0.123911 0.0746 0.15162
3578.254 0.20917 0.16951 0.15741 0.16591 0.18291 0.15447 0.14477 0.16055 0.131873 0.0791
3597.544 0.065 0.14605 0.18467 0.17733 0.131962 0.0709 0.11374 0.13037 0.21408 0.16991
3616.833 0.0644 0.0929 0.014 0 0.16635 0.3472 0.351 0.2958 0.21728 0.2251
3636.123 0.3005 0.3031 0.2324 0.15393 0.18916 0.17887 0.132334 0.22122 0.2836 0.2239
3655.413 0.2584 0.21169 0.1106 0.224 0.2376 0.14283 0.2039 0.2809 0.324 0.2738
3674.703 0.2537 0.341 0.3651 0.2779 0.2454 0.19602 0.122408 0.18582 0.22211 0.3128
3693.993 0.3421 0.18574 0.16357 0.21676 0.2508 0.16301 0.0789 0.1007 0.11851 0.1016
3713.282 0.0805 0.18125 0.2692 0.2716 0.18788 0.16604 0.127004 0.11309 0.2365 0.20885
3732.572 0.18021 0.2369 0.20666 0.14791 0.2254 0.2561 0.093 0.0916 0.269 0.2881
3751.862 0.2658 0.21369 0.19455 0.2414 0.19832 0.16419 0.2454 0.3336 0.3383 0.3082
3771.152 0.246 0.2754 0.2539 0.2145 0.17143 0.1928 0.18326 0.12009 0.13761 0.17329
3790.441 0.13967 0.224 0.3442 0.2269 0.15115 0.2413 0.20227 0.12012 0.21109 0.3371
3809.731 0.3624 0.19445 0.0984 0.134 0.18399 0.20868 0.2451 0.309 0.2266 0.0788
3829.021 0.16271 0.2774 0.25 0.16951 0.0858 0.15111 0.22221 0.2483 0.3271 0.2418
3848.311 0.16699 0.15155 0.1024 0.13596 0.19233 0.2589 0.3521 0.2488 0.18657 0.267
3867.601 0.275 0.3197 0.3161 0.3507 0.3673 0.3131 0.20987 0.14391 0.12122 0.0942
3886.890 0.16858 0.21604 0.14425 0.0747 0.17498 0.2283 0.304 0.3343 0.242 0.3376
3906.180 0.2434 0.0387 0.11759 0.11705 0.02 0.130531 0.2361 0.19108 0.2457 0.20923
3925.470 0.13945 0.18664 0.19597 0.21707 0.15809 0.15741 0.16194 0.21478 0.2754 0.2484
3944.760 0.2247 0.3517 0.4165 0.2238 0.0994 0.1059 0.1784 0.14819 0.14295 0.17469
3964.049 0.16644 0.2891 0.3004 0.2515 0.2724 0.2874 0.2668 0.2139 0.15531 0.0951
3983.339 0.13384 0.14474 0.1015 0.1033 0.17569 0.2316 0.18676 0.18216 0.129504 0.1128
##END=
