##TITLE=2-Phenoxyphenylacetonitrile
##JCAMP-DX=4.24
##DATA TYPE=INFRARED SPECTRUM
##ORIGIN=EPA-IR VAPOR PHASE LIBRARY
##OWNER=SRD/NIST
Collection (C) 2018 copyright by the U.S. Secretary of Commerce
on behalf of the United States of America. All rights reserved.
##CAS REGISTRY NO=25562-98-5
##MOLFORM=C 14 H 11 N O
##$NIST SOURCE=MSDC-IR
##STATE=gas
##XUNITS=1/CM
##YUNITS=ABSORBANCE
##XFACTOR=1.
##YFACTOR=0.001
##DELTAX=1.92898
##FIRSTX=549.8
##LASTX=4000.7
##FIRSTY=0.8673
##MAXX=4000.7
##MINX=549.759
##MAXY=0.312342
##MINY=0
##NPOINTS=1790
##XYDATA=(X++(Y..Y))
549.759 0.8673 0.8395 0.9208 0.8581 0.7689 1.0065 0.8642 0.7919 0.8888 0.5683
569.049 0.5907 0.7956 0.9465 1.292 1.292 1.1263 0.9474 0.8688 0.8698 0.911
588.339 1.0407 1.0225 1.1276 1.1513 1.262 1.222 1.312 1.742 1.792 1.862
607.628 2.012 2.082 2.112 2.222 2.242 2.082 2.182 2.332 2.312 2.262
626.918 2.262 2.282 2.192 2.072 1.912 1.982 2.122 2.012 2.222 2.362
646.208 2.272 2.312 2.562 3.012 3.322 3.582 4.082 4.432 4.702 4.872
665.498 5.002 5.172 5.332 5.732 6.232 7.182 8.832 10.852 13.812 18.052
684.787 22.312 25.762 27.432 28.142 28.492 26.572 23.202 19.712 16.542 14.162
704.077 12.512 11.652 11.202 10.982 11.152 11.332 11.522 11.862 12.272 12.882
723.367 13.692 14.932 16.772 19.342 22.892 27.522 33.642 41.082 49.562 58.442
742.657 66.482 72.822 76.472 76.032 71.062 63.772 55.832 47.872 40.402 33.882
761.947 28.962 25.432 22.952 21.202 19.872 19.082 18.592 18.062 17.742 17.972
781.236 18.182 18.212 18.402 18.362 18.112 17.902 17.692 17.522 17.272 17.072
800.526 16.892 16.372 15.932 15.412 14.552 13.742 12.772 11.502 10.172 9.052
819.816 8.202 7.442 6.842 6.332 5.862 5.462 5.122 4.972 4.942 5.002
839.106 4.982 5.032 5.332 5.732 6.232 6.812 7.612 8.752 10.022 11.662
858.395 13.632 16.202 19.602 23.322 27.442 31.202 33.852 35.012 34.592 32.702
877.685 29.652 25.732 21.412 17.792 15.032 12.992 11.652 10.862 10.192 9.732
896.975 9.312 8.952 8.932 8.752 8.392 8.192 7.902 7.672 7.422 7.102
916.265 6.792 6.292 6.022 5.822 5.472 5.262 5.132 4.982 4.812 4.592
935.555 4.572 4.532 4.502 4.572 4.582 4.532 4.532 4.522 4.152 3.762
954.844 3.372 3.082 2.852 2.662 2.532 2.512 2.442 2.332 2.412 2.442
974.134 2.372 2.292 2.352 2.372 2.382 2.572 2.612 2.532 2.542 2.512
993.424 2.552 2.672 2.782 3.062 3.352 3.442 3.562 3.792 3.912 4.202
1012.714 4.922 5.992 7.352 8.612 9.622 10.102 9.992 9.512 8.602 7.632
1032.003 6.862 6.762 7.012 7.302 7.342 6.982 6.752 6.302 5.822 5.172
1051.293 4.652 4.572 4.622 4.652 4.952 5.772 6.502 7.042 7.662 8.132
1070.583 8.042 7.762 7.612 7.052 6.352 6.022 6.022 6.472 7.642 9.502
1089.873 11.782 14.732 17.902 20.182 21.542 22.022 20.962 18.692 15.872 12.202
1109.163 9.082 7.322 5.862 4.532 3.682 2.972 2.822 3.042 3.172 3.292
1128.452 3.062 3.012 3.352 3.562 3.552 3.952 4.772 5.172 5.732 6.402
1147.742 7.592 9.262 10.922 13.582 16.732 19.822 22.922 25.202 26.612 27.592
1167.032 28.122 27.912 27.002 26.312 25.812 25.752 25.692 25.382 25.392 26.042
1186.322 27.232 29.602 33.242 37.842 43.752 50.602 57.592 63.422 67.282 68.432
1205.611 67.162 64.312 60.202 55.822 53.052 52.852 55.132 60.002 67.852 79.272
1224.901 94.232 113.722 138.842 169.512 204.722 241.482 274.802 299.802 312.342 309.462
1244.191 291.322 260.412 220.982 179.352 141.522 110.862 87.972 71.762 60.332 52.132
1263.481 46.382 42.362 39.272 37.232 35.632 34.032 32.682 31.162 29.602 28.172
1282.771 26.592 24.882 23.242 21.742 20.422 19.372 18.462 17.862 17.532 17.282
1302.060 17.192 17.202 17.382 17.632 17.912 18.392 19.022 19.572 20.172 20.652
1321.350 20.712 20.412 19.782 18.722 17.372 15.772 14.102 12.692 11.422 10.262
1340.640 9.282 8.422 7.702 7.072 6.452 5.962 5.612 5.332 5.122 5.002
1359.930 4.842 4.702 4.652 4.622 4.602 4.652 4.662 4.722 4.822 4.842
1379.219 4.862 4.932 4.932 4.942 4.932 4.882 4.892 4.902 4.942 4.912
1398.509 4.942 5.092 5.322 5.662 6.052 6.482 7.012 7.652 8.532 9.522
1417.799 10.632 11.832 12.822 13.492 13.862 14.062 14.112 13.942 13.902 14.262
1437.089 15.122 16.662 19.102 22.702 27.872 34.902 43.802 53.512 61.962 67.242
1456.378 68.952 67.452 63.322 56.872 49.382 43.792 42.022 43.752 48.622 56.812
1475.668 68.762 85.252 106.332 131.652 158.932 183.902 201.682 208.772 204.342 189.962
1494.958 167.332 138.872 109.692 84.232 64.662 50.582 40.052 32.062 26.092 21.522
1514.248 18.122 15.512 13.482 11.982 10.832 9.892 9.092 8.532 8.072 7.742
1533.538 7.552 7.392 7.282 7.262 7.352 7.452 7.722 8.122 8.622 9.242
1552.827 9.972 10.862 11.932 13.252 14.952 17.262 20.332 24.192 29.252 35.702
1572.117 43.172 51.402 60.202 68.822 76.082 81.232 83.292 82.292 78.702 73.052
1591.407 66.052 58.522 51.852 46.402 41.602 37.082 32.502 28.002 23.742 19.802
1610.697 16.392 13.692 11.682 10.092 8.882 7.952 7.262 6.722 6.262 5.932
1629.986 5.602 5.342 5.162 4.892 4.682 4.582 4.452 4.272 4.052 3.842
1649.276 3.742 3.642 3.502 3.432 3.432 3.342 3.342 3.312 3.232 3.252
1668.566 3.242 3.182 3.122 3.152 3.202 3.162 3.102 3.102 3.112 3.132
1687.856 3.192 3.252 3.292 3.352 3.372 3.342 3.282 3.352 3.422 3.392
1707.146 3.382 3.382 3.352 3.272 3.202 3.072 2.962 2.912 2.802 2.672
1726.435 2.692 2.632 2.482 2.382 2.272 2.242 2.212 2.122 2.022 1.972
1745.725 1.992 2.022 2.002 2.032 2.062 2.122 2.222 2.352 2.482 2.632
1765.015 2.812 2.992 3.282 3.482 3.582 3.582 3.542 3.482 3.302 3.172
1784.305 3.062 2.952 2.872 2.812 2.792 2.732 2.692 2.642 2.542 2.472
1803.594 2.402 2.272 2.192 2.092 2.002 2.012 1.982 2.002 2.012 2.032
1822.884 2.032 2.022 2.042 2.052 2.102 2.152 2.202 2.222 2.282 2.392
1842.174 2.502 2.582 2.642 2.692 2.762 2.832 2.762 2.742 2.782 2.742
1861.464 2.722 2.712 2.702 2.672 2.612 2.572 2.492 2.452 2.412 2.352
1880.754 2.342 2.342 2.352 2.372 2.432 2.552 2.602 2.612 2.682 2.752
1900.043 2.792 2.872 2.982 3.092 3.192 3.342 3.602 3.752 3.872 4.082
1919.333 4.242 4.362 4.492 4.562 4.612 4.662 4.712 4.722 4.682 4.682
1938.623 4.622 4.572 4.552 4.472 4.332 4.152 3.912 3.612 3.282 2.992
1957.913 2.762 2.582 2.562 2.522 2.462 2.482 2.522 2.582 2.612 2.612
1977.202 2.622 2.622 2.662 2.692 2.672 2.652 2.582 2.522 2.422 2.362
1996.492 2.352 2.252 2.152 2.112 2.112 2.152 2.132 2.122 2.152 2.172
2015.782 2.202 2.252 2.322 2.462 2.602 2.702 2.812 2.922 3.062 3.132
2035.072 3.102 3.102 3.072 3.022 2.962 2.862 2.772 2.682 2.542 2.402
2054.362 2.322 2.282 2.272 2.212 2.142 2.092 2.082 2.072 2.002 1.992
2073.651 1.992 1.972 1.942 1.852 1.772 1.702 1.652 1.562 1.452 1.392
2092.941 1.402 1.412 1.362 1.352 1.332 1.282 1.252 1.232 1.162 1.162
2112.231 1.172 1.1315 1.0889 1.0156 1.0461 1.0054 0.9766 1.0178 0.9264 0.8692
2131.521 0.8775 0.8781 0.8312 0.7756 0.7982 0.8278 0.8513 0.8793 0.8286 0.767
2150.810 0.816 0.8392 0.7727 0.7276 0.7384 0.762 0.7582 0.7584 0.7288 0.7797
2170.100 0.813 0.7772 0.8263 0.8242 0.8377 0.8905 0.8915 0.8422 0.8034 0.7863
2189.390 0.8611 0.9491 0.8874 0.8996 0.9239 0.8961 0.936 0.9228 0.8153 0.8421
2208.680 0.9564 1.0103 0.943 0.9134 0.9532 1.0112 1.0749 1.0738 1.0789 1.074
2227.970 1.1186 1.202 1.332 1.402 1.442 1.572 1.692 1.762 1.892 2.092
2247.259 2.232 2.292 2.352 2.422 2.482 2.442 2.422 2.372 2.242 2.152
2266.549 2.062 1.922 1.732 1.602 1.522 1.542 1.502 1.352 1.312 1.292
2285.839 1.252 1.252 1.262 1.262 1.212 1.202 1.242 1.262 1.322 1.402
2305.129 1.472 1.482 1.512 1.602 1.682 1.762 1.842 1.852 1.872 1.942
2324.418 1.992 2.002 2.002 2.002 1.982 1.952 1.892 1.872 1.882 1.832
2343.708 1.802 1.772 1.722 1.672 1.692 1.722 1.732 1.742 1.772 1.792
2362.998 1.782 1.802 1.782 1.782 1.782 1.762 1.722 1.682 1.672 1.672
2382.288 1.752 1.832 1.892 1.962 2.052 2.152 2.212 2.312 2.462 2.572
2401.578 2.632 2.672 2.672 2.672 2.662 2.572 2.462 2.432 2.392 2.262
2420.867 2.232 2.232 2.262 2.342 2.372 2.382 2.532 2.652 2.722 2.772
2440.157 2.842 2.922 2.902 2.822 2.702 2.632 2.562 2.442 2.342 2.252
2459.447 2.122 2.142 2.232 2.222 2.192 2.152 2.172 2.152 2.072 2.042
2478.737 2.012 1.982 1.872 1.722 1.622 1.542 1.422 1.352 1.292 1.232
2498.026 1.212 1.1331 1.1203 1.1489 1.1146 1.1394 1.172 1.0942 1.1156 1.154
2517.316 1.1216 1.162 1.252 1.252 1.182 1.162 1.222 1.232 1.252 1.322
2536.606 1.312 1.332 1.372 1.332 1.322 1.352 1.332 1.342 1.412 1.452
2555.896 1.432 1.302 1.322 1.322 1.262 1.222 1.182 1.252 1.212 1.1166
2575.186 1.1428 1.222 1.222 1.172 1.162 1.182 1.1382 1.1603 1.192 1.162
2594.475 1.212 1.162 1.06 1.1329 1.1428 1.0493 1.0239 1.059 1.0938 1.0944
2613.765 1.0756 1.0552 0.9829 0.9498 0.9612 0.8871 0.8025 0.7811 0.7864 0.7351
2633.055 0.6987 0.6578 0.6774 0.8189 0.8668 0.7166 0.6404 0.688 0.7349 0.7219
2652.345 0.7109 0.7422 0.7009 0.7249 0.7053 0.6611 0.5582 0.5126 0.5738 0.573
2671.634 0.6051 0.6043 0.5751 0.6058 0.6401 0.6736 0.7208 0.7313 0.7681 0.7623
2690.924 0.7924 0.83 0.8279 0.8752 0.926 0.935 0.8955 0.8523 0.8591 0.856
2710.214 0.8164 0.7569 0.7063 0.6785 0.6258 0.683 0.765 0.8075 0.8199 0.7624
2729.504 0.7703 0.8144 0.8369 0.8769 0.8852 0.8945 0.8996 0.8669 0.8045 0.7737
2748.794 0.7625 0.7431 0.754 0.6785 0.6427 0.6427 0.6659 0.7515 0.7155 0.5969
2768.083 0.5919 0.6612 0.6943 0.6716 0.681 0.6982 0.7944 0.8355 0.701 0.5923
2787.373 0.614 0.6756 0.6633 0.6575 0.6589 0.6756 0.6904 0.6813 0.6079 0.6741
2806.663 0.6787 0.4967 0.561 0.7125 0.6915 0.6875 0.7466 0.8106 0.8727 0.963
2825.953 1.0457 1.001 1.0295 1.0259 1.0209 1.1585 1.252 1.172 1.0666 1.0719
2845.242 0.9993 0.9573 0.9235 0.9698 0.9773 0.9219 0.9426 0.9418 0.9649 1.0073
2864.532 1.0201 1.0029 0.9751 0.9316 0.9275 0.9212 0.9498 0.9704 0.9629 0.9871
2883.822 1.0036 1.0146 1.0236 1.0552 1.0549 1.0201 1.0143 1.0109 1.0221 1.0378
2903.112 1.0196 1.131 1.262 1.392 1.462 1.422 1.552 1.652 1.682 1.782
2922.401 2.052 2.382 2.562 2.762 3.082 3.372 3.672 4.042 4.242 4.392
2941.691 4.392 4.182 3.802 3.402 3.112 2.772 2.472 2.222 1.952 1.712
2960.981 1.492 1.412 1.472 1.512 1.482 1.382 1.382 1.412 1.322 1.322
2980.271 1.272 1.302 1.482 1.512 1.572 1.582 1.612 1.732 1.852 1.942
2999.561 1.982 2.092 2.252 2.482 2.892 3.372 3.882 4.342 4.842 5.562
3018.850 6.232 6.982 7.892 8.862 9.972 11.172 12.352 13.712 15.142 16.442
3038.140 17.722 18.862 19.722 20.212 20.392 20.202 19.562 18.792 17.972 17.292
3057.430 17.022 16.992 17.512 18.542 19.672 21.162 23.062 25.002 27.032 29.222
3076.720 31.202 32.572 33.172 32.842 31.542 29.402 26.712 23.702 20.742 18.292
3096.009 16.162 14.162 12.402 10.962 9.662 8.322 7.192 6.152 5.142 4.392
3115.299 3.782 3.312 2.912 2.452 2.132 1.902 1.752 1.672 1.492 1.372
3134.589 1.282 1.222 1.1102 0.9635 1.0436 1.0295 0.953 0.8863 0.8552 0.8842
3153.879 0.9557 0.9736 0.8861 0.9769 1.192 1.182 1.1112 1.1517 1.202 1.222
3173.169 1.182 1.1121 1.0319 0.9937 1.0718 1.172 1.192 1.1161 1.012 1.0894
3192.458 1.1184 1.0274 0.9889 0.8615 0.8952 0.9578 0.8241 0.8407 0.8882 0.7973
3211.748 0.7205 0.6751 0.6774 0.6111 0.4082 0.3714 0.4503 0.4203 0.4396 0.5309
3231.038 0.4555 0.3646 0.3889 0.4355 0.4206 0.4132 0.4662 0.4724 0.4167 0.465
3250.328 0.4528 0.3545 0.4051 0.3726 0.2874 0.21715 0.2982 0.2923 0.24182 0.2983
3269.617 0.21501 0.171168 0.2694 0.3862 0.3287 0.1489 0.17419 0.3089 0.2707 0.3235
3288.907 0.4486 0.4426 0.4055 0.4098 0.3426 0.351 0.4028 0.3686 0.3528 0.3918
3308.197 0.2801 0.25118 0.3245 0.2822 0.22921 0.20994 0.26079 0.3541 0.3825 0.28
3327.487 0.23275 0.26006 0.2738 0.3146 0.3926 0.3519 0.3021 0.4631 0.5019 0.25744
3346.777 0.2663 0.3135 0.19037 0.164732 0.3626 0.5488 0.4032 0.3346 0.3157 0.23066
3366.066 0.2553 0.2725 0.1262 0.1108 0.3029 0.3029 0.3084 0.3965 0.3821 0.386
3385.356 0.3838 0.3093 0.268 0.3586 0.4416 0.33 0.2917 0.2978 0.1061 0
3404.646 0.1103 0.3062 0.2776 0.22467 0.24452 0.2198 0.24082 0.20175 0.2823 0.3058
3423.936 0.1916 0.1511 0.25533 0.3744 0.23816 0.16786 0.3015 0.3612 0.3903 0.4341
3443.225 0.3107 0.2738 0.3411 0.23868 0.1491 0.18443 0.2739 0.24627 0.2726 0.3269
3462.515 0.3474 0.3225 0.24659 0.3353 0.4107 0.3477 0.2645 0.3112 0.4019 0.412
3481.805 0.3561 0.19541 0.1222 0.1411 0.1225 0.1175 0.18512 0.3029 0.24039 0.1442
3501.095 0.149 0.2892 0.3172 0.169738 0.22411 0.2809 0.21916 0.18291 0.20328 0.2827
3520.385 0.3411 0.3283 0.2961 0.3013 0.2652 0.2847 0.387 0.4168 0.3214 0.23677
3539.674 0.22594 0.22944 0.271 0.3218 0.4129 0.4339 0.3992 0.29 0.2282 0.22129
3558.964 0.3301 0.4158 0.33 0.3019 0.3182 0.435 0.4537 0.3806 0.3715 0.4153
3578.254 0.4042 0.3101 0.3731 0.3524 0.24568 0.276 0.3583 0.3537 0.2897 0.25464
3597.544 0.2761 0.3049 0.3527 0.3099 0.25366 0.2628 0.2687 0.5107 0.5359 0.3248
3616.833 0.3287 0.3498 0.3712 0.5076 0.4883 0.4713 0.5233 0.4388 0.4 0.2751
3636.123 0.23693 0.3942 0.5439 0.5619 0.5101 0.542 0.5818 0.5204 0.5097 0.6253
3655.413 0.5736 0.4935 0.5228 0.5966 0.5473 0.4818 0.4846 0.5257 0.5476 0.5018
3674.703 0.5657 0.4811 0.3939 0.4489 0.555 0.5525 0.3407 0.2947 0.3161 0.2997
3693.993 0.5038 0.6304 0.4562 0.3042 0.3797 0.4694 0.4099 0.4024 0.3458 0.2859
3713.282 0.2109 0.26163 0.442 0.3846 0.3213 0.2931 0.2759 0.3481 0.4178 0.5298
3732.572 0.4372 0.20843 0.17226 0.2892 0.3836 0.24237 0.17373 0.3087 0.3114 0.25285
3751.862 0.3221 0.4124 0.5149 0.4778 0.3055 0.2845 0.3727 0.3445 0.26166 0.23396
3771.152 0.2796 0.2735 0.2872 0.2633 0.1167 0.23545 0.4613 0.3914 0.3538 0.3878
3790.441 0.23703 0.2984 0.20777 0.20365 0.3524 0.2837 0.3013 0.309 0.2935 0.3188
3809.731 0.3592 0.3695 0.4381 0.4773 0.5911 0.5004 0.3346 0.3839 0.4602 0.4814
3829.021 0.4135 0.3971 0.4433 0.5566 0.4044 0.4053 0.5065 0.4218 0.3363 0.2709
3848.311 0.3357 0.4357 0.5096 0.5872 0.5887 0.461 0.486 0.4734 0.5267 0.4962
3867.601 0.4469 0.4822 0.4258 0.5154 0.4221 0.402 0.5849 0.6474 0.6204 0.5901
3886.890 0.5749 0.5587 0.5825 0.5463 0.4774 0.3711 0.3419 0.4689 0.4435 0.4342
3906.180 0.5252 0.5071 0.6151 0.5666 0.4036 0.3773 0.4928 0.6903 0.6351 0.5808
3925.470 0.6548 0.6117 0.5735 0.6401 0.6594 0.6155 0.5942 0.4542 0.5208 0.5684
3944.760 0.4454 0.533 0.5137 0.5899 0.635 0.506 0.5661 0.524 0.5101 0.6219
3964.049 0.5243 0.4305 0.424 0.3599 0.3808 0.3686 0.24433 0.2857 0.3899 0.337
3983.339 0.24771 0.283 0.2977 0.3753 0.3531 0.25529 0.2817 0.20819 0.262 0.376
##END=
