##TITLE=2-Fluorothiophenol
##JCAMP-DX=4.24
##DATA TYPE=INFRARED SPECTRUM
##ORIGIN=EPA-IR VAPOR PHASE LIBRARY
##OWNER=SRD/NIST
Collection (C) 2018 copyright by the U.S. Secretary of Commerce
on behalf of the United States of America. All rights reserved.
##CAS REGISTRY NO=2557-78-0
##MOLFORM=C 6 H 5 F S
##$NIST SOURCE=MSDC-IR
##STATE=gas
##XUNITS=1/CM
##YUNITS=ABSORBANCE
##XFACTOR=1.
##YFACTOR=0.001
##DELTAX=1.92898
##FIRSTX=549.8
##LASTX=4000.7
##FIRSTY=3.88
##MAXX=4000.7
##MINX=549.759
##MAXY=0.0455
##MINY=0
##NPOINTS=1790
##XYDATA=(X++(Y..Y))
549.759 3.88 4.06 4.18 4.6 4.42 3.89 3.17 4 3.61 2.61
569.049 1.3986 0.585 0.352 0.513 0.814 1.106 2.48 2.72 1.157 1.002
588.339 1.5174 1.4221 1.7784 1.9824 2.59 2.31 0.844 0.774 0.918 1.2438
607.628 1.2995 0.429 0.457 0.768 0 0.03 0.935 1.147 0.948 1.34258
626.918 1.8581 1.7003 2.0357 1.9104 1.4121 2.2785 2.45 1.4427 2.3 2.42
646.208 1.4451 1.6898 1.8212 1.7046 1.9284 2.0126 2.55 3.17 3.21 3.87
665.498 4.39 4.64 5.62 5.85 6.16 7.27 5.96 4.87 5.96 5.83
684.787 5.11 4.65 3.97 3.5 3.11 3.05 3.2 3.49 3.74 3.22
704.077 2.51 2.54 2.62 2.0867 2.29 2.82 3.29 3.33 3.21 4.12
723.367 5.32 6.85 9.1 11.54 13.71 15.92 17.88 19.2 20.77 23.16
742.657 27.57 34.46 41.71 45.5 40.05 29.47 23.22 21.55 20.63 18.91
761.947 17.69 15.74 13.12 10.35 7.41 6.25 5.39 3.96 3.48 3.37
781.236 3.12 3.05 2.93 3.37 3.53 2.78 2.5 2.64 2.65 3.33
800.526 3.82 4.03 4.94 5.63 6.3 7.65 8.64 9.03 8.99 8.7
819.816 9.6 11.25 12.26 11.02 8.94 8.62 7.63 6.33 5.48 5.16
839.106 4.32 3.02 2.97 3.35 3.55 3.26 2.36 1.611 2.1408 2.1339
858.395 1.6951 2.37 1.9161 1.2647 2.0047 2.2115 2.265 2.1767 2.1778 2.67
877.685 2.62 2.42 2.89 2.94 2.57 2.37 1.8587 1.8048 1.9486 1.9809
896.975 1.9583 1.28342 0.874 1.4183 1.8693 2.0516 2.58 2.74 2.1446 1.9263
916.265 1.9723 1.9893 2.35 2.6 2.42 2.74 3.33 3.73 4.11 3.6
935.555 2.91 2.48 2.43 2.76 2.42 1.9002 1.8055 2.0143 2.0875 1.5258
954.844 1.7577 2.167 1.5815 1.5195 1.37472 1.112 1.7162 2.1795 2.4 2.37
974.134 1.2328 1.388 2.0765 1.27468 1.041 1.7686 2.31 2.39 2.55 1.7617
993.424 1.6172 1.9606 1.054 1.34881 2.1331 1.8727 1.775 2.46 2.76 2.95
1012.714 3.61 4.06 4.73 5.42 5.39 5.57 5.5 5.37 5.41 5.25
1032.003 5.08 4.29 4.26 4.51 3.99 3.63 3.76 3.16 2.76 3.41
1051.293 3.47 2.62 3.06 3.55 3.16 3.2 3.83 5.32 5.73 5.58
1070.583 5.55 6.52 7.02 6.43 5.93 4.71 5.45 7.21 7.69 6.87
1089.873 6.53 5.16 1.4448 0.598 3.11 2.61 0.782 0.752 1.6803 3.28
1109.163 2.41 0.695 0.681 2.1258 2.86 3.23 3.29 3.48 4.19 3.49
1128.452 4.21 4.99 4.4 3.63 2.7 2.2497 2.46 2.69 2.34 3.15
1147.742 3.87 3.21 2.56 2.31 1.8124 1.27043 1.36632 1.084 0.877 1.35881
1167.032 2.2449 2.33 1.6624 0.813 0.775 2.56 3.14 1.6123 1.1998 1.7097
1186.322 0.505 0.634 1.7141 1.6087 1.2216 3.04 3.9 2.1306 2.264 4.12
1205.611 5.03 4.77 5.14 6.26 7.72 9.44 12.11 15.24 17.25 20.28
1224.901 23.05 24.43 25.41 26.14 27.18 25.99 25.19 26.84 28.27 25.83
1244.191 21.58 18.46 15.28 12.55 10.52 9.44 9.3 8.93 8.7 8.82
1263.481 7.85 7.54 8.08 8.66 8.16 6.8 6.67 6.31 5.56 5.35
1282.771 4.59 3.84 4.12 4.11 3.75 3.19 2.63 2.37 2.42 2.2796
1302.060 1.8026 1.814 2.101 2.0378 1.6871 1.6423 1.6854 1.6293 1.5717 1.5809
1321.350 1.5351 1.5734 1.6219 1.33244 1.3916 1.6497 1.6481 1.7456 1.9272 1.7908
1340.640 1.6636 1.7415 1.7279 1.5834 1.4445 1.5951 1.8784 1.8478 1.7385 1.7504
1359.930 1.6661 1.6167 1.6578 1.7478 1.9697 2.2205 2.38 2.59 2.65 2.52
1379.219 2.51 2.44 2.34 2.41 2.49 2.58 2.7 2.65 2.44 2.44
1398.509 2.45 2.41 2.38 2.162 2.14 2.2599 2.063 2.126 2.3 2.0979
1417.799 2.1791 2.45 2.71 3.12 3.6 4.36 5.18 5.73 6.49 7.46
1437.089 8.48 9.45 9.94 10.19 10.39 10.29 10.29 11.05 12.23 13.18
1456.378 13.75 14.79 16.39 18.6 21.88 25.65 29.43 32.72 34.9 36.23
1475.668 36.52 36.08 36.16 36.45 36.57 36.17 34.16 30.58 26.13 21.59
1494.958 17.66 14.61 12.32 10.57 9.67 8.91 7.92 7.1 6.33 5.36
1514.248 4.32 3.69 2.91 2.67 2.6 2.2121 2.1837 2.2366 2.29 2.202
1533.538 1.9518 2.0351 2.1808 1.9423 2.31 2.4 2.2014 2.76 3.24 3.4
1552.827 3.46 3.92 4.67 5.21 5.83 6.38 6.99 7.72 8.34 8.44
1572.117 8.73 9.04 9.36 9.64 9.36 9.17 8.69 8.16 7.31 6.44
1591.407 5.76 5.29 4.92 4.36 4.07 3.74 3.62 3.59 3.33 3.07
1610.697 2.65 2.46 2.36 2.0926 2.0692 2.2436 2.5 2.45 2.0252 1.8653
1629.986 1.806 1.7134 1.6427 1.6361 1.706 1.8195 1.8278 1.8824 2.0728 1.8944
1649.276 1.7936 1.741 1.1934 1.2615 1.7737 1.7009 1.4914 1.9642 2.0011 1.7051
1668.566 1.9604 2.31 2.31 2.33 2.1137 1.6765 1.8962 1.8528 1.7009 1.8744
1687.856 2.0561 1.9066 1.8928 1.9612 1.8059 1.7064 1.5819 1.6228 1.5734 1.8809
1707.146 2.0896 1.862 1.7976 1.5986 1.4353 1.5689 1.7821 1.6128 1.5333 1.5372
1726.435 1.4263 1.5046 1.7449 1.561 1.5894 1.52 1.34503 1.35192 1.36057 1.6627
1745.725 1.8504 1.9252 1.8144 1.9175 1.8359 2.0244 2.2032 2.1307 2.0334 1.9443
1765.015 2.0741 2.1176 2.42 2.47 2.34 2.47 2.56 2.66 2.52 2.33
1784.305 2.2707 2.2411 2.2334 2.0693 1.7698 1.694 1.8584 1.9279 1.8191 1.8058
1803.594 1.8055 1.7891 1.8554 1.7602 1.8007 1.8955 1.8591 1.6521 1.4768 1.6586
1822.884 1.8209 1.6896 1.5043 1.4604 1.5384 1.6084 1.7158 1.7546 1.6392 1.4646
1842.174 1.5417 1.5665 1.4355 1.6724 1.8349 1.8777 1.8927 1.8211 1.9159 1.8873
1861.464 1.8181 1.7333 1.6403 1.9225 2.1851 2.0339 1.8823 2.0895 2.28 2.0697
1880.754 2.0414 2.2573 2.2575 2.2669 2.49 2.55 2.51 2.5 2.44 2.41
1900.043 2.47 2.44 2.4 2.54 2.52 2.255 1.9697 2.0562 2.1089 1.9771
1919.333 2.0894 2.1612 2.29 2.38 2.37 2.38 2.3 2.31 2.36 2.0021
1938.623 1.8129 1.9534 1.8306 1.795 1.862 1.8025 1.6479 1.4353 1.33649 1.37103
1957.913 1.4258 1.593 1.5972 1.35437 1.35794 1.4762 1.35653 1.3633 1.533 1.6285
1977.202 1.4059 1.2253 1.4237 1.5912 1.5419 1.32175 1.28786 1.4438 1.4675 1.33678
1996.492 1.138 1.1872 1.4643 1.5844 1.5733 1.5487 1.4994 1.578 1.464 1.4224
2015.782 1.5987 1.6614 1.6971 1.9171 1.898 1.7917 1.7527 1.7307 1.7959 1.7699
2035.072 2.106 2.0612 1.9647 2.1937 2.1019 1.823 1.5003 1.4692 1.7751 1.7519
2054.362 1.5773 1.6417 1.5609 1.6472 1.6769 1.5981 1.5956 1.4366 1.1904 1.136
2073.651 1.32837 1.6477 1.741 1.5006 1.4758 1.5402 1.5288 1.422 1.5251 1.776
2092.941 1.6774 1.5216 1.36787 1.1955 1.29624 1.4335 1.3839 1.2488 1.126 1.229
2112.231 1.4886 1.535 1.44 1.33452 1.085 1.16 1.36142 1.5889 1.7383 1.5928
2131.521 1.6587 1.6806 1.7087 1.696 1.5499 1.4139 1.4583 1.5463 1.4449 1.5197
2150.810 1.5649 1.5476 1.4777 1.3839 1.5403 1.523 1.4492 1.6217 1.8429 1.7534
2170.100 1.4654 1.2655 1.37884 1.4282 1.1988 1.34935 1.6335 1.5489 1.2227 1.123
2189.390 1.382 1.5652 1.5238 1.473 1.3904 1.31382 1.3809 1.5623 1.5743 1.4177
2208.680 1.547 1.6104 1.2624 1.153 1.27909 1.3878 1.5753 1.5761 1.4801 1.6121
2227.970 1.6713 1.7629 1.747 1.6145 1.6975 1.5982 1.3847 1.4433 1.4471 1.6568
2247.259 1.558 1.3935 1.7265 1.801 1.8614 1.878 1.7112 1.4624 1.5818 1.967
2266.549 1.9021 1.9534 2.0827 1.8383 1.7852 1.7419 1.8021 1.8687 1.7312 1.7666
2285.839 1.935 2.0052 2.0264 1.8103 1.6681 1.8767 1.8846 1.6337 1.3931 1.2623
2305.129 1.4689 1.7685 1.6977 1.5475 1.4586 1.5493 1.6519 1.5576 1.3331 1.001
2324.418 1.169 1.5322 1.5052 1.5308 1.5836 1.7374 1.6166 1.36014 1.6113 1.8297
2343.708 1.7258 1.5412 1.6482 1.6642 1.5131 1.6375 1.5837 1.4781 1.3929 1.4932
2362.998 1.748 1.4338 1.6752 1.8306 1.4645 1.7235 1.7728 1.6715 1.8254 1.7252
2382.288 1.5972 1.6038 1.6477 1.6017 1.5575 1.6323 1.7529 1.6057 1.4484 1.6848
2401.578 1.7382 1.7942 1.91 1.7132 1.5974 1.5653 1.4775 1.6504 1.8876 1.6335
2420.867 1.454 1.5035 1.35039 1.466 1.6159 1.5646 1.6984 1.7574 1.7664 2.0038
2440.157 1.8195 1.838 1.8927 1.9116 2.1223 1.8404 1.8405 2.0908 2.0049 2.0083
2459.447 1.95 1.8034 1.8271 1.6536 1.9087 1.9836 1.7981 1.9891 1.9235 1.7977
2478.737 1.5127 1.29277 1.2297 1.5168 1.7898 1.5226 1.7523 1.8608 1.37105 1.27764
2498.026 1.4233 1.6441 1.8271 1.6869 1.5765 1.6048 1.6092 1.266 1.022 1.4572
2517.316 1.566 1.6224 1.6115 1.4671 1.733 1.905 1.7578 1.5892 1.6832 1.5166
2536.606 1.37391 1.3158 1.35794 1.6428 1.8915 2.0066 1.9831 2.0441 2.1764 1.8505
2555.896 1.7172 1.9717 1.9256 2.0285 1.9488 1.9587 2.1203 2.1207 2.0733 2.0285
2575.186 2.1822 2.2243 2.1956 2.0101 1.6672 1.7071 1.6899 1.5596 1.6421 1.6172
2594.475 1.5365 1.5512 1.6768 1.534 1.6968 2.183 2.188 1.957 1.9354 1.9841
2613.765 2.2105 2.4 2.39 2.37 1.9517 1.7955 1.9569 1.665 1.4448 1.4322
2633.055 1.4902 1.6759 1.7051 1.803 1.6785 1.28147 1.153 1.03 1.02 1.2307
2652.345 1.27529 1.5418 1.8503 1.7134 1.5128 1.688 1.5703 1.6961 1.6737 1.4754
2671.634 1.5007 1.3853 1.526 1.5557 1.8675 1.6588 1.3905 1.7143 1.6922 1.6292
2690.924 1.8869 2.0843 2.073 1.7461 1.5606 1.9168 1.775 1.7253 1.7792 1.6519
2710.214 1.6869 1.4613 1.37766 1.4805 1.6003 1.5435 1.4946 1.7141 1.6135 1.5294
2729.504 1.4113 1.2271 1.34761 1.3903 1.30364 1.2455 1.29884 1.30249 1.5491 1.8358
2748.794 1.5962 1.4327 1.766 2.2737 2.1857 1.5485 1.533 1.9443 2.2055 2.205
2768.083 2.0021 1.8117 1.7415 1.5168 1.2229 1.5147 1.4545 1.2023 1.5627 1.6747
2787.373 1.5842 1.7639 1.8322 1.8802 1.8322 1.6036 1.5516 1.4089 1.1952 1.36885
2806.663 1.2351 1.137 1.3263 1.189 1.2246 1.4876 1.5615 1.122 0.998 1.054
2825.953 1.08 1.061 1.058 1.636 2.081 2.0507 1.6963 1.31529 1.5696 2.0953
2845.242 1.9286 1.8689 1.9822 1.7441 1.7095 1.5632 1.4563 1.7292 1.7377 1.5949
2864.532 1.932 1.9891 1.8787 1.7765 1.7463 2.1791 2.0506 1.5139 1.30412 1.2157
2883.822 1.3776 1.5971 1.428 1.515 1.5796 1.5267 1.8804 1.6903 1.107 1.141
2903.112 1.4871 1.5305 1.2325 1.36593 1.6978 1.6482 1.5284 1.7752 1.9011 1.8426
2922.401 1.8404 1.7251 1.5689 1.33875 1.3888 1.5568 1.9722 2.1658 2.0289 1.9077
2941.691 2.0304 1.9304 1.2678 1.148 1.7606 1.9301 1.30103 0.874 1.022 1.4614
2960.981 1.5035 1.7935 1.872 1.5959 1.6127 1.5441 1.7748 1.83 1.9448 1.8278
2980.271 2.0151 2.0943 1.9085 2.0344 2.33 2.213 1.8769 2.1523 1.576 1.2409
2999.561 1.8954 2.0498 1.5523 1.31088 1.32085 1.37275 2.129 2.57 2.2555 2.45
3018.850 3.16 3.54 3.72 3.6 3 2.82 3.26 3.69 4.24 4.46
3038.140 3.97 3.6 3.54 3.2 3.34 3.58 3.73 3.88 3.45 4.04
3057.430 4.67 4.86 5.33 5.32 5.64 6.55 6.84 7.33 8.01 8.11
3076.720 8.24 8.48 8.4 8.27 8.39 8.33 8.43 8.11 7.43 6.94
3096.009 5.73 4.48 3.69 3.64 3.54 2.91 2.93 2.69 2.34 1.9995
3115.299 1.452 1.4162 1.6502 1.5395 1.4237 1.5376 1.4895 1.5851 1.9701 2.31
3134.589 1.9294 1.138 1.3875 2.0699 1.6886 1.4625 1.5783 1.9112 1.6874 1.34487
3153.879 1.6912 1.5168 1.5487 1.28878 0.982 1.6861 2.1167 1.4045 1.2154 1.4795
3173.169 1.5107 1.8544 1.8144 1.5328 2.141 2.61 2.33 2.0372 1.3872 1.7281
3192.458 1.8949 1.3917 1.4528 1.5055 1.6549 1.556 1.4416 1.5548 1.7611 2.2122
3211.748 1.9852 1.4317 1.5124 1.3491 1.141 1.29046 1.5862 2.2498 2.1678 1.71
3231.038 2.1109 2.41 1.9843 2.0161 1.8594 1.27729 1.31294 1.4745 1.52 1.7693
3250.328 1.8975 1.8012 1.9394 1.7678 1.7745 1.9021 1.7365 1.7311 1.7326 1.5217
3269.617 1.6721 2.1795 1.853 1.33962 1.7235 1.4729 0.87 1.06 1.144 0.957
3288.907 0.829 0.735 1.175 1.3848 1.36384 1.7645 1.6911 1.36286 1.35096 1.4495
3308.197 1.7728 2.35 2.47 2.0129 1.27132 1.023 1.154 0.93 1.148 1.32431
3327.487 1.007 0.877 1.115 1.5491 0.889 0.616 1.058 0.722 0.813 1.7178
3346.777 1.7024 1.3557 1.4075 1.8662 1.9636 1.4035 1.7926 1.8373 1.4845 1.7627
3366.066 1.5151 0.881 1.034 1.6209 2.1183 2.0432 1.4556 1.166 1.28238 1.4775
3385.356 1.016 1.09 1.598 1.35304 1.5265 1.31534 1.028 1.4123 1.476 1.2338
3404.646 1.4722 2.0445 1.743 1.2267 0.914 1.048 1.35818 1.076 1.4703 1.8703
3423.936 0.859 1.2553 1.962 1.35192 1.33512 1.7096 1.6598 1.035 0.675 0.853
3443.225 1.4323 1.5713 1.6219 2.0959 1.7759 1.18 1.7624 2.1345 1.8859 1.5673
3462.515 1.4336 1.5225 1.7101 2.1616 1.9246 1.129 1.109 2.1347 2.59 2.1121
3481.805 1.8262 2.0186 1.8381 1.27858 1.5651 1.6691 1.6138 1.9884 2.1416 1.7362
3501.095 1.29687 1.4798 2.0437 2.5 2.39 1.65 1.7542 2.56 1.6538 1.01
3520.385 1.5618 1.7322 2.0481 2.1028 1.7726 1.9956 1.7673 1.5764 2.0722 2.234
3539.674 1.7621 1.8197 1.9724 1.3877 1.4495 1.7472 1.5461 1.4157 1.8514 2.0414
3558.964 1.8005 1.7097 1.35386 1.4252 1.8385 1.8138 1.36914 1.5058 1.8964 1.7787
3578.254 1.5261 1.4522 1.4103 1.5591 2.0951 2.0418 1.5753 1.5096 1.34294 0.988
3597.544 1.6799 2.004 1.4306 1.769 1.7191 1.3905 1.411 1.4504 1.8 1.8971
3616.833 1.5833 1.155 1.6372 1.6446 1.5128 2.2023 2.41 2.2519 2.1258 1.5197
3636.123 1.2021 1.6747 1.6914 1.9563 2.0505 1.32809 1.4712 1.6285 1.4918 1.5573
3655.413 1.6777 2.0048 1.5211 1.32025 2.0296 1.8263 1.158 1.4484 2.38 2.2605
3674.703 1.7305 1.4064 1.1913 1.6975 2.42 2.36 2.0363 1.4545 0.987 1.7751
3693.993 2.237 2.2607 2.33 1.7838 1.651 1.8924 1.608 1.3814 1.91 1.8318
3713.282 1.27994 1.6963 2.0435 1.698 1.8386 2.275 2.1265 1.8389 1.31123 0.846
3732.572 0.837 1.8238 2.78 2.37 1.8034 1.6169 1.34827 2.0324 2.56 2.52
3751.862 2.2153 1.6833 1.7981 2.34 2.34 1.5335 1.2632 1.30192 1.9653 2.66
3771.152 2.1889 1.6202 2.0277 2.2616 2.28 1.9127 1.4874 1.667 1.6628 1.5107
3790.441 1.8012 1.7104 1.29879 0.946 0.576 0.943 0.989 0.912 1.4866 2.0344
3809.731 1.6785 1.4555 2.1883 2.57 2.1791 1.7841 1.8069 1.9724 1.7066 1.5466
3829.021 1.855 1.5896 1.34763 1.816 1.7839 1.7119 1.6944 1.6475 1.6271 1.9531
3848.311 2.56 2.66 2.56 2.31 2.1168 2.1511 2.0347 2.0215 1.754 2.0073
3867.601 2.1511 1.7932 1.5965 1.431 1.4294 1.4565 1.947 2.2004 1.9739 2.1239
3886.890 2.56 2.65 2.1343 1.7681 1.9332 1.4253 1.32527 1.4995 1.7888 2.44
3906.180 2.2531 2.2106 2.1868 1.9049 1.598 1.5451 2.1304 2.39 2.36 2.71
3925.470 2.75 2.0144 1.34743 1.37995 1.4283 1.5717 1.477 1.4855 1.4586 1.36007
3944.760 2.1143 1.8862 1.1821 1.9635 2.47 2.231 2.1668 1.814 1.706 1.9793
3964.049 2.0976 2.55 2.87 2.57 2.5 2.75 2.75 2.48 2.33 2.0817
3983.339 1.6208 1.151 1.7727 2.37 2.65 2.54 2.0801 2.1917 2.31 1.8687
##END=
