##TITLE=Methyl 3-trifluoromethylbenzoate
##JCAMP-DX=4.24
##DATA TYPE=INFRARED SPECTRUM
##ORIGIN=EPA-IR VAPOR PHASE LIBRARY
##OWNER=SRD/NIST
Collection (C) 2018 copyright by the U.S. Secretary of Commerce
on behalf of the United States of America. All rights reserved.
##CAS REGISTRY NO=2557-13-3
##MOLFORM=C 9 H 7 F 3 O 2
##$NIST SOURCE=MSDC-IR
##STATE=gas
##XUNITS=1/CM
##YUNITS=ABSORBANCE
##XFACTOR=1.
##YFACTOR=0.001
##DELTAX=1.92898
##FIRSTX=549.8
##LASTX=4000.7
##FIRSTY=0.62239
##MAXX=4000.7
##MINX=549.759
##MAXY=0.410204
##MINY=0
##NPOINTS=1790
##XYDATA=(X++(Y..Y))
549.759 0.62239 0.7793 0.4471 0.4654 0.6843 0.57746 0.318 0 0.188 0.385
569.049 0.376 0.304 0.272 0.355 0.4982 0.6501 0.6915 0.61898 0.59634 0.58135
588.339 0.4863 0.57665 0.59754 0.63692 0.7504 0.9295 0.9781 1.1386 1.2889 1.4272
607.628 1.614 1.584 1.574 1.5066 1.3935 1.4713 1.42 1.3171 1.2623 1.2213
626.918 1.3253 1.5361 1.5418 1.594 1.824 1.994 2.424 3.094 4.214 5.884
646.208 7.514 8.164 8.174 8.154 8.174 7.764 6.244 4.624 3.654 3.044
665.498 2.784 2.744 2.804 2.874 3.244 3.854 4.604 6.184 8.884 13.074
684.787 19.444 28.264 37.344 43.874 48.614 52.834 53.344 48.194 39.734 30.484
704.077 22.954 17.374 13.154 9.934 7.364 5.534 4.384 3.504 2.994 2.714
723.367 2.504 2.474 2.424 2.434 2.724 2.964 3.124 3.784 4.644 5.704
742.657 7.304 9.484 12.214 15.274 18.444 21.904 25.594 29.314 31.794 31.224
761.947 28.444 25.744 23.294 20.934 18.634 16.154 13.754 11.524 9.724 8.244
781.236 6.704 5.354 4.224 3.404 3.114 3.054 2.884 2.944 3.444 3.624
800.526 3.894 4.534 5.034 5.654 6.244 6.554 6.984 7.704 8.034 7.634
819.816 6.834 6.074 5.344 4.784 4.634 4.514 4.354 4.524 5.094 5.854
839.106 6.544 6.914 7.044 7.074 6.844 6.384 5.774 5.064 4.654 4.354
858.395 3.864 3.354 3.064 2.774 2.474 2.144 1.904 1.824 1.774 1.784
877.685 1.634 1.564 1.644 1.594 1.674 1.674 1.594 1.764 1.884 1.964
896.975 2.114 2.334 2.654 2.864 3.244 3.844 4.554 5.444 6.294 7.124
916.265 7.954 8.654 9.064 9.034 8.744 8.314 7.774 7.204 6.494 5.704
935.555 5.044 4.544 4.234 4.184 4.214 4.274 4.404 4.734 4.964 5.334
954.844 5.994 6.614 7.294 8.294 9.344 10.804 12.734 14.824 17.174 19.194
974.134 21.294 23.284 24.154 24.404 23.864 21.964 19.464 16.874 14.064 11.204
993.424 8.664 6.764 5.734 5.174 4.664 4.424 4.494 4.494 4.314 4.244
1012.714 4.274 4.214 3.994 3.984 3.974 3.834 3.874 3.784 3.714 3.974
1032.003 4.174 4.074 4.014 4.224 4.324 4.444 4.984 5.364 5.744 6.494
1051.293 7.244 8.254 9.404 11.224 13.774 17.104 21.524 26.704 33.054 40.574
1070.583 47.774 53.664 59.114 63.944 67.224 68.514 67.984 66.304 63.414 59.544
1089.873 55.944 51.644 46.394 41.324 36.384 33.264 31.974 32.084 34.304 37.314
1109.163 40.274 43.154 45.474 47.894 49.564 49.994 50.324 50.604 51.824 54.144
1128.452 57.624 62.744 70.294 80.444 92.724 107.544 124.424 141.954 159.144 175.614
1147.742 188.464 193.654 189.204 175.704 157.194 138.104 121.074 107.754 99.944 98.944
1167.032 103.084 108.634 114.494 120.984 125.854 125.614 121.174 115.314 107.814 98.984
1186.322 89.734 80.624 71.324 62.294 54.654 48.484 43.144 38.804 35.194 32.314
1205.611 30.174 28.384 26.904 25.664 25.164 25.094 25.724 27.114 29.084 31.744
1224.901 35.314 40.114 46.354 54.634 65.514 79.584 97.784 121.374 151.204 187.694
1244.191 230.754 278.264 325.614 366.924 396.544 410.204 406.014 384.014 345.474 294.824
1263.481 240.194 189.794 148.344 115.714 90.204 71.264 57.994 48.824 42.854 39.484
1282.771 37.964 37.934 38.954 40.764 42.994 44.794 45.614 45.274 44.264 42.884
1302.060 40.874 38.414 36.144 34.764 34.614 35.574 37.544 40.874 46.184 54.034
1321.350 64.754 78.444 94.804 112.534 129.534 143.654 152.844 155.944 152.504 142.854
1340.640 128.064 109.824 90.244 71.484 55.464 43.014 33.824 27.154 22.304 18.834
1359.930 16.344 14.374 12.764 11.504 10.404 9.454 8.704 8.034 7.454 7.034
1379.219 6.714 6.464 6.344 6.184 6.034 5.924 5.804 5.804 5.804 5.794
1398.509 5.814 5.884 5.954 6.144 6.414 6.694 7.004 7.234 7.524 7.924
1417.799 8.434 9.254 10.334 11.784 13.914 16.694 20.294 24.364 28.224 30.814
1437.089 31.964 31.974 30.544 27.484 23.164 18.774 15.384 13.134 11.564 10.384
1456.378 9.424 8.554 7.824 7.324 6.974 6.714 6.484 6.214 5.954 5.754
1475.668 5.594 5.434 5.304 5.214 5.174 5.124 5.044 4.954 4.804 4.674
1494.958 4.514 4.234 3.974 3.744 3.574 3.394 3.224 3.154 3.124 3.144
1514.248 3.174 3.164 3.134 3.124 3.104 3.024 3.044 3.054 2.974 2.974
1533.538 2.974 2.984 2.984 2.914 2.854 2.884 2.914 2.854 2.824 2.794
1552.827 2.704 2.694 2.824 2.964 2.944 2.984 3.094 3.154 3.254 3.354
1572.117 3.494 3.624 3.664 3.714 3.884 4.074 4.244 4.444 4.634 4.824
1591.407 4.944 5.074 5.214 5.294 5.374 5.514 5.754 6.054 6.504 7.254
1610.697 8.024 8.754 9.364 9.674 9.644 9.264 8.624 7.764 6.854 6.084
1629.986 5.504 5.114 4.814 4.564 4.354 4.154 4.024 3.884 3.764 3.714
1649.276 3.574 3.474 3.384 3.224 3.074 2.924 2.834 2.814 2.754 2.704
1668.566 2.794 2.864 2.914 2.994 3.124 3.264 3.464 3.744 4.054 4.404
1687.856 4.784 5.234 5.744 6.324 6.954 7.624 8.374 9.284 10.104 10.884
1707.146 11.444 11.804 12.014 11.954 11.744 11.564 11.584 11.964 12.714 14.064
1726.435 16.214 19.294 23.614 29.544 37.904 48.814 62.644 81.134 103.084 126.484
1745.725 146.194 158.334 163.264 162.814 155.624 138.584 111.374 82.324 58.334 41.134
1765.015 29.524 21.544 16.104 12.764 10.664 9.544 9.104 8.984 9.184 9.564
1784.305 10.074 10.674 11.044 11.194 11.044 10.444 9.564 8.514 7.384 6.334
1803.594 5.444 4.664 4.034 3.544 3.204 2.924 2.694 2.594 2.484 2.394
1822.884 2.384 2.364 2.364 2.484 2.584 2.564 2.574 2.644 2.664 2.684
1842.174 2.754 2.804 2.794 2.774 2.744 2.704 2.664 2.614 2.494 2.374
1861.464 2.194 2.104 2.044 1.904 1.814 1.774 1.714 1.614 1.5149 1.4888
1880.754 1.4452 1.3556 1.3333 1.3309 1.3169 1.371 1.4566 1.4816 1.554 1.664
1900.043 1.774 1.994 2.124 2.224 2.434 2.634 2.734 2.784 2.834 2.854
1919.333 2.784 2.654 2.554 2.444 2.344 2.254 2.144 2.034 2.044 2.074
1938.623 2.104 2.164 2.174 2.254 2.374 2.444 2.544 2.584 2.594 2.624
1957.913 2.634 2.644 2.644 2.584 2.474 2.434 2.304 2.194 2.034 1.874
1977.202 1.734 1.564 1.4751 1.3727 1.2449 1.173 1.1178 1.0737 1.0614 1.0479
1996.492 1.013 0.9735 0.9552 0.936 0.9521 0.9412 0.9338 0.9349 0.9452 1
2015.782 1.0147 1.0288 1.0866 1.1237 1.1426 1.1735 1.1848 1.1859 1.2469 1.2511
2035.072 1.1912 1.1769 1.1942 1.1518 1.1504 1.2054 1.1171 1.0386 1.1207 1.1306
2054.362 1.1145 1.1859 1.2183 1.2089 1.1781 1.2178 1.2502 1.2967 1.3757 1.3771
2073.651 1.3161 1.3089 1.3975 1.4669 1.5178 1.624 1.654 1.704 1.774 1.794
2092.941 1.784 1.864 1.894 1.854 1.904 1.914 1.894 1.854 1.814 1.764
2112.231 1.684 1.5434 1.4119 1.2822 1.1473 1.1052 1.0746 0.9821 0.9433 0.9047
2131.521 0.8199 0.824 0.8782 0.8938 0.8806 0.8611 0.8821 0.8923 0.9005 0.8915
2150.810 0.8537 0.8812 0.9184 0.9457 0.9248 0.8535 0.8448 0.8271 0.8788 0.9857
2170.100 0.9635 0.9633 1.0015 1.0008 1.012 1.008 0.9742 0.9403 0.9408 0.9376
2189.390 0.9664 0.966 0.9676 0.9807 0.9351 0.8857 0.8725 0.8815 0.8525 0.8612
2208.680 0.8809 0.8968 0.917 0.8939 0.915 0.9624 0.9987 1.0427 1.0825 1.0615
2227.970 1.0216 1.059 1.1054 1.0899 1.1197 1.0849 1.004 0.9835 1.0349 1.052
2247.259 1.0237 1.0129 0.9951 1.0417 1.0396 0.9908 1.0417 1.0737 1.0869 1.1011
2266.549 1.1219 1.1417 1.0693 1.1059 1.1779 1.1969 1.1929 1.1899 1.2398 1.2639
2285.839 1.3413 1.3577 1.307 1.3114 1.2894 1.231 1.179 1.1549 1.1185 1.0653
2305.129 0.9886 0.9575 0.9205 0.9011 0.9734 1.0145 1.0128 1.0129 1.0075 1.0086
2324.418 1.0254 1.0169 0.9601 0.8739 0.8792 1.004 1.0583 1.1394 1.1566 1.071
2343.708 1.1349 1.2234 1.1969 1.1537 1.2222 1.201 1.0996 1.1179 1.0971 1.0384
2362.998 0.9939 0.9807 1.0463 1.0408 0.9622 0.9108 0.9258 0.9105 0.843 0.833
2382.288 0.8713 0.8745 0.8491 0.7886 0.7932 0.8176 0.8175 0.8492 0.8184 0.7902
2401.578 0.7886 0.8557 0.8543 0.8153 0.8003 0.7542 0.7894 0.8165 0.836 0.8417
2420.867 0.7866 0.7623 0.779 0.7813 0.7406 0.7352 0.751 0.7018 0.6545 0.63875
2440.157 0.6736 0.6751 0.62144 0.63997 0.6605 0.63505 0.6944 0.6955 0.64324 0.6634
2459.447 0.61676 0.64306 0.7199 0.6588 0.6558 0.6897 0.63847 0.61532 0.6478 0.7173
2478.737 0.7669 0.7118 0.6913 0.746 0.755 0.8006 0.8046 0.7148 0.6928 0.7599
2498.026 0.8038 0.835 0.7833 0.7709 0.855 0.7954 0.7647 0.7811 0.788 0.8125
2517.316 0.7455 0.6886 0.61935 0.56608 0.63424 0.6804 0.6811 0.6594 0.6598 0.6836
2536.606 0.6818 0.629 0.552272 0.63691 0.6891 0.61514 0.60603 0.6926 0.7034 0.6644
2555.896 0.64239 0.6522 0.7003 0.63509 0.60643 0.6715 0.7444 0.7352 0.6983 0.7313
2575.186 0.7517 0.7899 0.8534 0.9107 0.8929 0.962 1.0577 1.0302 1.0392 1.053
2594.475 1.0828 1.0433 0.9609 0.9517 0.9778 0.9752 0.9423 0.9075 0.8461 0.811
2613.765 0.7976 0.7976 0.7836 0.7489 0.7344 0.6881 0.64119 0.6203 0.6378 0.655
2633.055 0.60166 0.56886 0.4872 0.478 0.551986 0.548364 0.57605 0.553716 0.6167 0.60693
2652.345 0.4949 0.56272 0.58506 0.547448 0.543716 0.60778 0.57956 0.55539 0.57071 0.4529
2671.634 0.459 0.5171 0.443 0.374 0.345 0.403 0.457 0.431 0.439 0.4928
2690.924 0.473 0.426 0.39 0.371 0.4855 0.54195 0.5062 0.5078 0.4546 0.394
2710.214 0.4461 0.4854 0.468 0.5271 0.61011 0.6505 0.63219 0.61426 0.60975 0.55975
2729.504 0.53588 0.5374 0.6101 0.6494 0.6624 0.7083 0.6656 0.60173 0.6058 0.595
2748.794 0.58065 0.57971 0.6498 0.58699 0.56411 0.6981 0.62973 0.5198 0.53425 0.59995
2768.083 0.60498 0.58089 0.6718 0.56992 0.459 0.58763 0.62444 0.5321 0.4749 0.4959
2787.373 0.59147 0.63855 0.56013 0.57648 0.63657 0.6508 0.6194 0.5701 0.59554 0.7246
2806.663 0.8085 0.817 0.7677 0.7572 0.836 0.8978 0.8575 0.8768 0.9859 1.007
2825.953 1.058 1.1262 1.2209 1.3216 1.4123 1.664 1.874 2.084 2.524 3.044
2845.242 3.504 3.924 4.264 4.434 4.454 4.384 4.174 3.714 3.174 2.734
2864.532 2.284 1.904 1.824 1.934 1.894 1.714 1.694 1.824 1.984 2.044
2883.822 2.154 2.244 2.254 2.434 2.574 2.654 2.774 2.994 3.214 3.294
2903.112 3.334 3.414 3.604 3.854 4.034 4.104 4.034 4.104 4.254 4.284
2922.401 4.204 4.164 4.024 3.894 3.974 3.914 3.974 4.204 4.324 4.524
2941.691 4.964 5.694 6.504 7.514 8.924 10.754 13.244 16.584 20.314 23.474
2960.981 25.194 25.514 24.814 23.134 20.294 16.254 12.264 9.294 7.364 6.174
2980.271 5.384 4.874 4.664 4.534 4.504 4.664 4.874 5.064 5.214 5.454
2999.561 5.764 6.014 6.204 6.264 6.204 6.064 5.904 5.654 5.384 5.174
3018.850 5.014 4.894 4.784 4.824 4.934 4.924 4.944 5.004 4.974 4.854
3038.140 4.754 4.554 4.314 4.234 4.104 3.934 3.874 3.744 3.604 3.614
3057.430 3.574 3.514 3.544 3.694 3.804 3.874 4.154 4.514 4.934 5.374
3076.720 5.864 6.374 6.784 7.104 7.204 7.004 6.724 6.224 5.664 5.084
3096.009 4.384 3.754 3.304 2.874 2.524 2.384 2.214 2.114 2.024 1.944
3115.299 1.834 1.684 1.5224 1.3729 1.4426 1.4924 1.4025 1.3037 1.2856 1.2913
3134.589 1.2109 1.2009 1.1966 1.052 0.9294 0.861 0.8158 0.7639 0.7507 0.7111
3153.879 0.7896 0.8517 0.732 0.6849 0.6882 0.6911 0.8023 0.9081 0.8709 0.8515
3173.169 0.7713 0.7116 0.7842 0.8279 0.7981 0.803 0.8488 0.8251 0.9232 0.896
3192.458 0.7682 0.7642 0.7194 0.7521 0.8547 0.808 0.7518 0.8145 0.887 0.8813
3211.748 0.7942 0.6942 0.6755 0.6892 0.6498 0.60214 0.5854 0.58531 0.5271 0.58429
3231.038 0.63675 0.552651 0.401 0.4603 0.5375 0.4703 0.55606 0.553487 0.4902 0.4889
3250.328 0.459 0.414 0.4751 0.5136 0.414 0.433 0.5235 0.524 0.4483 0.5058
3269.617 0.53756 0.435 0.5287 0.61973 0.54068 0.4784 0.5011 0.5083 0.551712 0.57463
3288.907 0.506 0.53699 0.5179 0.5034 0.58595 0.5248 0.5238 0.5307 0.550139 0.5008
3308.197 0.433 0.4904 0.4513 0.55879 0.5028 0.352 0.415 0.4693 0.60389 0.5202
3327.487 0.39 0.4892 0.5258 0.5192 0.58186 0.56731 0.57489 0.6229 0.552609 0.58442
3346.777 0.55859 0.4604 0.4743 0.552184 0.56768 0.5321 0.61173 0.6836 0.60772 0.54054
3366.066 0.64215 0.63904 0.546721 0.4891 0.428 0.4577 0.498 0.4861 0.4802 0.4812
3385.356 0.5021 0.549016 0.58373 0.7283 0.7383 0.56907 0.4493 0.351 0.356 0.4479
3404.646 0.5045 0.4667 0.5136 0.58385 0.56333 0.61781 0.64316 0.64172 0.61876 0.6566
3423.936 0.6537 0.63592 0.61489 0.5466 0.62239 0.56824 0.4836 0.56775 0.6941 0.6577
3443.225 0.6479 0.7326 0.7 0.6783 0.6516 0.7087 0.7779 0.7623 0.8686 0.9048
3462.515 0.9008 0.9395 0.9395 1.2322 1.4807 1.644 1.834 1.894 2.104 2.124
3481.805 1.974 2.014 2.004 1.864 1.704 1.3992 1.2533 1.1834 0.9818 0.9326
3501.095 0.9352 0.881 0.8812 0.8238 0.7902 0.8324 0.7182 0.6007 0.6561 0.7008
3520.385 0.7435 0.8105 0.7791 0.62632 0.4828 0.4507 0.5021 0.664 0.63472 0.4652
3539.674 0.55243 0.54132 0.408 0.381 0.4539 0.61364 0.62177 0.5021 0.3 0.308
3558.964 0.437 0.4856 0.57513 0.57758 0.4896 0.4828 0.5005 0.4891 0.59723 0.58266
3578.254 0.544306 0.6649 0.61528 0.5284 0.6522 0.7201 0.62191 0.57864 0.59091 0.58378
3597.544 0.4582 0.34 0.398 0.56504 0.61958 0.5177 0.60997 0.61142 0.4849 0.458
3616.833 0.54197 0.553875 0.4713 0.61899 0.60277 0.5224 0.4907 0.5138 0.6475 0.61164
3636.123 0.5194 0.513 0.551674 0.546749 0.423 0.301 0.319 0.5069 0.375 0.262
3655.413 0.4493 0.4757 0.4727 0.547763 0.545681 0.375 0.381 0.5243 0.63661 0.59658
3674.703 0.53426 0.4959 0.53927 0.59415 0.4509 0.4977 0.6387 0.6775 0.6645 0.5168
3693.993 0.4501 0.5784 0.64291 0.5212 0.393 0.4593 0.59252 0.701 0.6942 0.63028
3713.282 0.6619 0.60189 0.56985 0.5233 0.398 0.404 0.381 0.4657 0.59618 0.59061
3732.572 0.5138 0.421 0.4761 0.60056 0.6823 0.57776 0.5126 0.6251 0.6716 0.4784
3751.862 0.415 0.5213 0.4826 0.6805 0.6748 0.57523 0.6704 0.7043 0.63196 0.57926
3771.152 0.57256 0.6445 0.64003 0.55875 0.56607 0.5019 0.56983 0.6446 0.4665 0.314
3790.441 0.4532 0.58913 0.5305 0.463 0.57528 0.63747 0.553082 0.59383 0.6647 0.57343
3809.731 0.546992 0.546588 0.4675 0.4679 0.5315 0.6614 0.58115 0.62059 0.57905 0.405
3829.021 0.4626 0.5182 0.6477 0.729 0.799 0.7117 0.59648 0.6728 0.5864 0.412
3848.311 0.442 0.7598 0.8106 0.4911 0.413 0.432 0.443 0.55725 0.56058 0.4483
3867.601 0.412 0.4568 0.4817 0.4471 0.4637 0.4676 0.5172 0.60973 0.5014 0.363
3886.890 0.339 0.394 0.488 0.4516 0.5087 0.60392 0.60315 0.60745 0.59228 0.6911
3906.180 0.6973 0.61786 0.59186 0.60688 0.6455 0.62368 0.59899 0.57802 0.62 0.6527
3925.470 0.553145 0.5299 0.58635 0.55531 0.63111 0.7306 0.6742 0.61593 0.6562 0.59884
3944.760 0.6631 0.6848 0.547415 0.647 0.663 0.5595 0.58182 0.58825 0.4696 0.46
3964.049 0.60223 0.63742 0.59691 0.63318 0.60856 0.4669 0.417 0.4664 0.5136 0.5887
3983.339 0.545416 0.4735 0.5233 0.6314 0.53775 0.57176 0.57623 0.4936 0.7341 0.7127
##END=
