##TITLE=3-Fluorothiophenol
##JCAMP-DX=4.24
##DATA TYPE=INFRARED SPECTRUM
##ORIGIN=EPA-IR VAPOR PHASE LIBRARY
##OWNER=SRD/NIST
Collection (C) 2018 copyright by the U.S. Secretary of Commerce
on behalf of the United States of America. All rights reserved.
##CAS REGISTRY NO=2557-77-9
##MOLFORM=C 6 H 5 F S
##$NIST SOURCE=MSDC-IR
##STATE=gas
##XUNITS=1/CM
##YUNITS=ABSORBANCE
##XFACTOR=1.
##YFACTOR=0.001
##DELTAX=1.92898
##FIRSTX=549.8
##LASTX=4000.7
##FIRSTY=2.333
##MAXX=4000.7
##MINX=549.759
##MAXY=0.073943
##MINY=0
##NPOINTS=1790
##XYDATA=(X++(Y..Y))
549.759 2.333 1.5176 1.4905 2.063 1.0955 0.539 0.314 0.9644 1.2256 1.245
569.049 0.983 0.7351 0.9838 1.112 0.83091 0 0.355 1.2256 1.6084 1.7242
588.339 1.6959 1.5621 0.539 0.037 1.2046 1.883 1.843 1.1877 0.445 0.7618
607.628 0.9045 0.81855 1.0304 1.283 1.2461 1.1807 1.4465 1.923 1.7366 1.114
626.918 1.2092 1.813 2.363 2.433 1.983 1.3594 1.4369 1.903 1.893 2.703
646.208 2.843 2.283 3.263 3.883 4.343 5.313 5.723 6.153 6.883 7.503
665.498 7.883 8.283 9.343 10.973 14.043 15.693 13.053 10.583 9.413 8.283
684.787 7.933 7.703 7.323 6.403 5.463 4.913 4.033 3.333 2.813 2.453
704.077 2.123 2.073 2.233 1.983 1.7279 1.6694 1.389 1.4023 1.7031 1.5554
723.367 1.5196 1.7003 1.6471 1.3672 1.973 2.213 2.293 2.493 2.523 3.113
742.657 3.613 4.603 5.793 6.843 8.093 9.453 11.333 13.173 14.583 16.323
761.947 18.193 20.423 23.103 26.563 30.173 32.383 30.523 25.383 21.653 19.793
781.236 17.973 16.203 14.763 13.453 11.783 9.803 7.813 6.193 4.993 3.833
800.526 3.143 2.563 2.343 2.203 2.153 2.073 1.7016 1.953 2.453 2.723
819.816 2.573 2.993 3.343 2.713 2.823 3.243 3.433 4.133 4.733 5.153
839.106 5.993 6.033 6.443 7.533 8.493 9.703 10.543 10.673 11.383 13.063
858.395 14.793 16.763 18.793 21.283 24.523 27.633 30.413 33.383 36.443 38.813
877.685 40.013 40.333 40.073 38.613 36.443 33.773 30.803 27.903 23.393 18.623
896.975 13.883 9.763 7.823 6.423 5.963 5.843 5.183 5.083 4.873 4.803
916.265 5.213 5.313 5.283 5.253 4.953 4.723 4.673 4.393 3.893 3.713
935.555 3.403 2.793 2.303 2.003 1.943 1.873 2.103 1.923 1.2901 1.411
954.844 1.6572 1.803 1.7137 1.5232 1.913 1.6942 1.3726 1.1875 1.2548 1.933
974.134 1.7028 1.0368 1.1347 1.4401 1.6861 1.6504 1.5146 1.863 2.393 2.863
993.424 3.053 3.083 2.863 2.793 2.923 3.303 2.833 1.6643 1.3677 1.873
1012.714 2.583 2.603 2.393 2.003 1.783 1.833 2.003 2.043 2.023 2.153
1032.003 2.303 2.323 1.472 0.938 1.6223 1.7212 1.3086 0.9005 1.5333 3.163
1051.293 3.483 3.613 3.653 4.403 5.063 4.413 4.023 3.963 4.883 5.453
1070.583 4.463 4.763 4.903 4.643 4.743 4.733 5.253 5.253 5.243 6.213
1089.873 7.423 8.093 8.723 7.793 6.943 7.253 7.453 6.923 6.113 4.913
1109.163 2.953 2.183 1.893 1.983 2.723 2.823 1.5096 1.2755 1.863 0.313
1128.452 0.381 1.6418 1.269 0.9131 1.5568 2.133 2.593 2.933 2.803 3.493
1147.742 4.313 5.013 5.713 5.293 4.703 5.063 5.003 4.173 3.923 4.183
1167.032 4.233 3.303 2.603 2.533 1.993 1.6111 1.793 2.473 2.463 3.303
1186.322 4.873 4.823 3.613 3.493 4.703 5.693 5.763 6.523 8.983 9.863
1205.611 10.183 13.183 16.203 18.503 20.933 23.433 26.513 29.083 30.293 30.223
1224.901 29.463 29.363 29.523 29.593 30.123 28.473 24.773 21.393 16.963 14.513
1244.191 13.623 12.833 12.893 13.953 16.033 17.463 19.273 20.553 20.673 20.183
1263.481 20.473 20.703 20.823 21.263 20.453 17.923 14.973 11.603 8.623 6.863
1282.771 5.473 5.393 5.323 4.693 4.173 3.923 3.983 3.843 3.643 3.593
1302.060 3.283 3.063 3.213 2.933 2.673 2.673 2.603 2.463 2.293 2.473
1321.350 2.583 2.603 2.753 2.813 2.713 2.553 2.373 2.343 2.393 2.183
1340.640 1.973 1.883 1.933 2.033 1.7665 1.5468 1.4572 1.5274 1.6491 1.5663
1359.930 1.4992 1.5318 1.6328 1.7352 1.7202 1.6333 1.6429 1.6755 1.823 2.043
1379.219 2.153 2.263 2.383 2.503 2.733 2.973 3.223 3.453 3.363 3.493
1398.509 4.033 4.543 5.083 5.793 6.663 7.673 9.023 10.333 11.653 13.243
1417.799 14.803 16.443 17.543 17.703 17.383 16.983 17.023 17.323 17.523 17.213
1437.089 15.493 13.553 11.963 10.393 9.223 8.593 8.433 8.623 9.243 10.193
1456.378 11.663 13.703 16.103 19.423 23.923 29.173 34.723 39.633 42.873 44.003
1475.668 43.283 42.413 41.713 40.103 38.373 36.653 32.483 25.763 18.793 13.253
1494.958 9.533 7.453 6.403 5.883 5.693 5.663 5.893 6.253 6.473 6.823
1514.248 6.893 6.993 7.083 7.083 7.163 7.103 6.703 6.263 5.843 5.403
1533.538 5.163 4.813 4.713 4.863 4.883 5.213 5.743 6.043 6.723 7.503
1552.827 7.973 8.843 10.183 11.993 13.663 15.513 18.233 21.103 24.313 27.803
1572.117 31.073 34.363 38.043 41.843 45.713 50.163 54.913 59.483 63.813 67.943
1591.407 71.583 73.943 73.533 70.103 64.863 58.983 52.933 46.553 40.013 33.433
1610.697 26.753 20.543 15.313 11.053 8.213 6.613 5.733 4.853 4.303 3.803
1629.986 3.463 3.073 2.563 2.383 2.363 2.243 2.013 2.023 2.143 2.193
1649.276 2.183 2.393 2.423 2.573 2.773 2.693 2.693 2.483 2.183 2.253
1668.566 2.433 2.513 2.303 2.023 2.003 2.083 2.043 1.923 2.043 2.213
1687.856 2.223 2.163 2.153 2.183 2.123 2.033 2.023 2.373 2.453 2.353
1707.146 2.463 2.563 2.733 2.753 2.513 2.533 2.693 2.893 2.823 2.653
1726.435 2.933 2.793 2.613 2.763 2.843 2.693 2.503 2.513 2.563 2.543
1745.725 2.393 2.333 2.523 2.543 2.383 2.323 2.153 2.033 2.063 1.943
1765.015 1.873 1.893 1.7697 1.7678 1.943 1.913 1.833 1.783 1.7705 1.7065
1784.305 1.863 1.813 1.7422 1.7508 1.4737 1.3402 1.3412 1.4357 1.5404 1.432
1803.594 1.3005 1.4166 1.487 1.4901 1.6112 1.5415 1.5436 1.5244 1.5007 1.6117
1822.884 1.5773 1.587 1.6419 1.6107 1.7453 1.903 1.973 2.013 2.043 2.283
1842.174 2.303 2.113 1.993 2.093 2.143 1.923 1.7137 1.4551 1.3544 1.5096
1861.464 1.5767 1.5735 1.4625 1.4301 1.5721 1.4338 1.2161 1.1111 1.1604 1.3008
1880.754 1.2273 1.1368 1.2432 1.4136 1.435 1.2852 1.3694 1.549 1.5337 1.5001
1900.043 1.4817 1.5011 1.723 1.963 1.973 1.993 2.093 2.233 2.203 2.173
1919.333 2.323 2.353 2.273 2.113 2.023 2.023 1.933 1.923 1.731 1.6556
1938.623 1.7365 1.5563 1.4076 1.237 1.107 1.0273 0.9887 1.1204 1.1426 1.1378
1957.913 1.0914 1.0694 1.1456 1.1902 1.2078 1.2562 1.1806 1.1336 1.365 1.2891
1977.202 0.9675 1.1239 1.3124 1.1235 1.0843 1.1628 1.2568 1.2274 0.9901 0.9544
1996.492 1.0709 0.9372 1.0218 1.2152 1.1147 1.1123 1.1841 1.2147 1.214 1.208
2015.782 1.1879 1.0139 0.9508 1.1024 1.0973 1.0158 1.077 1.0782 1.0371 1.1352
2035.072 1.0899 0.9547 1.1093 1.2277 1.1215 1.1975 1.3085 1.2465 1.1122 1.0099
2054.362 1.0464 1.0046 0.9414 1.0781 1.0847 0.9972 1.0686 1.0253 1.0549 1.1738
2073.651 1.0863 1.0766 1.2401 1.3594 1.2972 1.1771 1.3481 1.6013 1.6084 1.4992
2092.941 1.5784 1.5599 1.4784 1.6403 1.6933 1.6916 1.803 1.6332 1.4942 1.5907
2112.231 1.5483 1.627 1.7643 1.5233 1.2942 1.2761 1.1549 1.0672 1.1114 1.0354
2131.521 0.9531 1.2094 1.3704 1.2209 1.1472 1.2606 1.3305 1.3511 1.3673 1.5357
2150.810 1.4494 1.2506 1.306 1.3077 1.3444 1.2954 1.1021 1.0864 1.0782 0.9947
2170.100 1.0938 1.1365 1.0699 0.944 0.9755 0.9299 0.9211 0.9296 0.85423 1.0296
2189.390 1.1976 1.0643 0.85964 0.8495 0.82062 0.9409 1.0943 1.0199 1.0075 0.9425
2208.680 0.9298 0.9785 0.9432 1.0681 1.2305 1.1569 1.0022 0.928 1.0437 1.0909
2227.970 1.0209 1.1074 1.1155 0.82355 0.659 0.775117 0.9448 1.1122 1.2703 1.2272
2247.259 1.0864 1.1277 1.1328 0.9987 0.9351 1.0234 0.9431 0.9874 1.0041 0.9585
2266.549 0.86279 0.81724 0.9283 0.9795 1.0847 1.2037 1.2772 1.294 1.3188 1.2033
2285.839 0.9942 1.2524 1.3257 0.9592 0.9343 1.0356 1.0771 1.2767 1.5498 1.423
2305.129 1.1773 1.1373 1.1983 1.4658 1.6776 1.4974 1.3433 1.2661 1.2647 1.4047
2324.418 1.3367 1.3422 1.3559 1.411 1.3061 1.0619 1.1173 1.0952 1.2671 1.3662
2343.708 1.1853 1.2243 1.2955 1.3578 1.2786 1.0748 1.0475 1.0947 1.2768 1.5169
2362.998 1.3193 1.2222 1.3516 1.3236 1.278 1.2182 1.2324 1.3492 1.3005 1.1913
2382.288 1.1613 1.0416 1.0994 1.2042 1.4892 1.562 1.3562 1.1917 1.0201 1.0389
2401.578 1.0785 1.0335 1.0855 1.1053 1.0369 1.1632 1.2764 1.4158 1.2698 1.0018
2420.867 1.2157 1.4295 1.2105 1.1346 1.3302 1.5277 1.5981 1.5106 1.5068 1.3876
2440.157 1.2996 1.3265 1.1808 1.3174 1.833 2.003 1.7049 1.4118 1.1097 1.0701
2459.447 1.4375 1.5944 1.4951 1.3674 1.5022 1.6276 1.6242 1.5873 1.6708 1.833
2478.737 1.6199 1.4359 1.4764 1.4723 1.547 1.4001 1.2828 1.2167 1.119 1.2324
2498.026 1.1436 1.0505 1.1056 1.2271 1.3035 1.0588 0.9858 1.1627 1.3513 1.3152
2517.316 1.0857 0.9397 0.9433 0.9846 0.9769 0.9458 0.85282 0.9448 1.0177 0.8769
2536.606 0.80455 1.0872 1.396 1.1878 0.85276 1.1715 1.5024 1.3013 1.2316 1.3311
2555.896 1.1336 1.0124 1.2955 1.5713 1.1861 0.86724 0.9854 1.0271 1.219 1.3899
2575.186 1.3885 1.547 1.6433 1.4443 1.3023 1.1514 1.1543 1.2024 1.0489 1.1301
2594.475 1.1828 1.0323 1.0877 0.9957 0.86686 0.9841 1.0128 0.9767 0.9044 1.0385
2613.765 1.0548 0.9872 0.9841 0.7484 0.779287 0.84418 1.0573 1.3831 1.2848 1.1551
2633.055 1.1121 0.986 0.9747 1.0611 1.1123 1.1348 1.0858 1.0396 1.0348 1.0441
2652.345 1.0984 1.117 1.1625 1.3081 1.2018 1.2206 1.2663 0.9529 0.739 0.9239
2671.634 1.0389 0.8961 0.9993 1.2433 1.4068 1.3109 1.4733 1.6771 1.3914 1.0269
2690.924 1.0471 1.4315 1.4844 1.1135 0.8798 0.9824 0.9694 1.0304 1.2285 1.1765
2710.214 1.2729 1.258 1.0601 1.0184 1.2568 1.5189 1.6105 1.3495 1.1972 1.2263
2729.504 0.9799 0.732 0.777654 1.0299 1.0692 1.0564 0.9882 1.1958 1.2586 0.9544
2748.794 0.86428 0.9276 0.83512 0.7096 0.83291 0.665 0.6737 0.9105 0.9357 1.2065
2768.083 1.0658 0.83174 0.7389 0.581 0.699 0.84501 1.0314 1.3824 1.473 1.2661
2787.373 1.2534 1.1663 0.9824 0.9123 1.0091 1.4138 1.5124 0.9468 0.7123 1.05
2806.663 0.9655 0.9554 1.1166 0.8922 0.9088 0.76495 0.7194 1.2363 1.3539 1.1593
2825.953 1.2697 1.476 1.3278 1.0646 1.153 1.2575 0.9856 0.7439 0.85759 1.1611
2845.242 1.316 1.3941 1.2154 0.654 0.495 0.86975 1.1565 1.0682 0.7473 0.522
2864.532 0.79271 0.8819 0.624 0.8313 0.85248 0.8215 0.8867 0.6768 0.558 0.84822
2883.822 0.6958 0.365 0.601 0.7075 0.609 0.6857 0.78359 0.9235 0.8861 0.59
2903.112 0.6751 0.636 0.542 0.9028 0.9919 0.9836 1.2257 1.1666 0.9057 1.0698
2922.401 1.2633 1.4261 1.0035 0.415 0.53 1.0922 1.4833 1.3785 1.3836 1.1862
2941.691 1.0668 0.9351 0.8828 0.9006 1.127 1.1999 0.80129 0.9053 0.9422 0.82132
2960.981 1.166 1.2746 1.2996 1.276 1.1702 1.1018 0.774034 0.78723 1.1233 0.9285
2980.271 0.85202 0.83072 0.80497 1.0834 1.3026 1.362 1.407 1.5345 1.1936 1.1001
2999.561 0.9906 1.0278 1.1561 1.0494 1.3268 1.4023 1.4054 1.47 1.6808 2.203
3018.850 1.993 1.4216 1.983 2.323 1.953 1.823 2.023 2.393 2.433 2.553
3038.140 2.873 2.743 2.723 3.193 3.093 2.823 2.773 2.703 2.983 3.333
3057.430 3.693 4.213 4.903 5.063 4.743 4.943 5.333 5.793 6.433 6.813
3076.720 6.803 6.533 6.493 6.633 6.653 6.253 5.933 5.703 5.373 4.653
3096.009 3.833 3.283 2.733 2.263 2.633 2.983 2.743 2.113 1.6859 1.913
3115.299 1.933 2.083 1.973 1.893 1.893 1.7025 1.0303 0.7077 0.9733 0.662
3134.589 0.491 0.53 0.601 0.648 0.7218 0.85089 0.7403 0.469 0.297 0.609
3153.879 0.6986 0.6994 0.81031 0.76497 0.7249 0.538 0.558 0.7087 0.9969 1.2712
3173.169 1.1074 1.2434 1.5972 1.7089 1.3469 1.2273 1.3032 0.9367 1.1138 1.1127
3192.458 0.9515 0.9177 0.82263 1.1095 1.4807 1.2615 0.9236 0.86659 0.663 0.439
3211.748 0.667 1.1894 1.3581 1.2666 1.227 1.2109 0.7488 0.8086 1.0525 0.9144
3231.038 1.1511 1.3613 1.2521 1.0608 0.7859 0.6758 0.7022 0.593 0.576 0.7086
3250.328 1.148 1.3201 1.5434 1.4311 0.9197 0.83036 0.8779 1.2051 1.1129 0.9709
3269.617 0.8115 1.0276 1.3643 1.2009 1.0737 0.9028 0.85929 0.772616 0.9647 1.2908
3288.907 1.1482 0.81054 0.9183 1.2608 0.9868 0.355 0.7454 1.2563 0.84624 1.2596
3308.197 1.4908 1.112 0.9216 0.532 0.409 0.7501 0.636 0.598 0.86271 0.78912
3327.487 0.577 0.84074 1.3223 1.1061 0.8763 0.7485 1.1188 1.336 0.975 1.0515
3346.777 0.9142 0.7378 0.86638 0.9772 1.4656 1.7146 1.6015 1.3272 0.79008 0.77014
3366.066 0.8895 0.7095 0.84862 1.0732 1.2005 1.0348 0.84847 1.223 1.3885 1.292
3385.356 1.03 1.2563 1.4666 0.82267 0.9976 1.348 1.2008 0.9696 1.0995 1.1447
3404.646 0.9725 1.3995 1.3778 1.0702 0.9318 0.8108 1.191 1.0839 0.6739 1.2477
3423.936 1.583 1.127 1.0397 0.9459 0.7253 1.0084 1.3154 1.3242 1.1102 0.79758
3443.225 0.9521 1.0872 1.0863 1.0252 0.85809 0.7409 0.7112 0.588 0.6927 1.0974
3462.515 0.9491 0.538 0.80482 1.406 1.2832 0.9614 0.9761 1.0565 1.3382 1.5016
3481.805 1.1802 0.85301 1.0501 1.0367 0.7315 1.0027 1.2764 1.461 1.1674 1.1532
3501.095 1.2176 0.7458 0.652 0.6753 0.9433 0.79766 0.780434 0.9102 0.9902 1.4479
3520.385 1.46 1.0375 0.6919 0.9584 1.4643 1.3036 1.1011 1.3868 1.4055 1.4215
3539.674 1.4634 0.9168 0.6823 0.9175 1.0339 1.0182 0.84956 0.84755 0.9464 1.1418
3558.964 1.1708 0.8823 0.7946 0.782855 0.780873 1.1316 1.3943 1.3301 1.4289 1.4897
3578.254 1.1784 0.871 1.0122 1.2617 1.1752 1.0948 1.4471 1.7049 1.5629 1.3769
3597.544 0.9023 0.83468 0.8945 0.863 1.1542 1.438 1.3655 1.1548 0.9275 0.6863
3616.833 0.657 0.884 0.9062 0.83388 1.2019 1.4284 1.2564 1.5498 1.6699 1.268
3636.123 1.2385 1.0436 0.76387 0.624 0.9273 1.3011 0.86576 0.379 0.525 0.7549
3655.413 0.956 1.2156 1.4468 1.4085 1.152 0.7931 0.754 1.0246 1.0534 1.1313
3674.703 0.79217 0.9428 1.4552 1.1626 1.0322 1.0468 0.8488 0.77118 0.962 1.0464
3693.993 0.48 0.506 0.734 0.82523 1.246 1.1043 0.598 0.323 0.669 0.85564
3713.282 0.7102 0.583 0.515 0.558 0.9381 1.2055 1.2527 1.2883 1.1236 0.9089
3732.572 0.9881 1.1264 0.99 0.9596 1.3247 1.1406 0.82361 1.2581 1.2122 1.1845
3751.862 1.1365 1.2803 1.4319 1.3012 1.2813 1.2961 1.6088 1.5142 0.9574 0.653
3771.152 0.8877 1.0186 0.9684 1.1084 1.0618 1.0259 1.0173 0.9612 0.9983 1.2344
3790.441 0.7335 0.585 1.2723 1.0678 0.7866 0.7448 0.396 0.9763 1.298 1.0791
3809.731 0.779723 0.264 0.625 0.9612 0.7435 0.673 1.0573 1.0633 0.9105 0.7599
3829.021 1.0316 1.6832 1.5564 1.1693 1.1304 1.3068 0.9301 0.8746 1.1881 0.9443
3848.311 0.495 0.7184 1.1564 1.0508 1.3582 1.3959 1.0022 1.2798 1.1323 0.42
3867.601 0.6742 1.0241 0.78726 0.495 0.633 1.2205 1.5923 1.2417 1.1466 1.0701
3886.890 1.0176 1.0003 0.57 0.425 1.0428 1.5007 1.3383 0.9784 0.332 0.339
3906.180 0.321 0.286 0.63 0.7084 1.212 1.3692 1.0345 0.9216 0.9847 1.4499
3925.470 1.3643 0.9999 0.7997 0.6881 1.2927 1.7635 1.3293 0.6753 1.1985 1.6778
3944.760 1.0845 0.773609 0.9924 1.3943 1.257 1.0366 0.778082 0.655 0.601 0.6945
3964.049 0.9656 1.1119 1.0629 0.9745 0.9591 0.84073 1.3275 1.2804 1.0829 1.3427
3983.339 1.2321 1.5162 1.6517 1.1739 1.1892 1.1967 1.1811 1.4877 1.0687 0.7544
##END=
