##TITLE=3,3,'5,5'-Tetramethylbiphenyl
##JCAMP-DX=4.24
##DATA TYPE=INFRARED SPECTRUM
##ORIGIN=EPA-IR VAPOR PHASE LIBRARY
##OWNER=SRD/NIST
Collection (C) 2018 copyright by the U.S. Secretary of Commerce
on behalf of the United States of America. All rights reserved.
##CAS REGISTRY NO=25570-02-9
##MOLFORM=C 16 H 18
##$NIST SOURCE=MSDC-IR
##STATE=gas
##XUNITS=1/CM
##YUNITS=ABSORBANCE
##XFACTOR=1.
##YFACTOR=0.001
##DELTAX=1.92898
##FIRSTX=549.8
##LASTX=4000.7
##FIRSTY=0.7756
##MAXX=4000.7
##MINX=549.759
##MAXY=0.2318
##MINY=0
##NPOINTS=1790
##XYDATA=(X++(Y..Y))
549.759 0.7756 0.3431 0.4091 0.4079 0.5684 1.31 1.83 1.73 1.28 1.38
569.049 1.25 1.24 1.8 1.87 1.89 2.23 1.84 1.35 0.9716 0.4002
588.339 0.3369 0.4376 0.6522 0.859 0.7205 0.8212 0.8416 0.525 1.0171 1.23
607.628 1.1399 1.34 1.37 1.26 0.7167 0.26336 0.5375 0.3847 0 0.1167
626.918 0.391 0.6883 1.0517 1.23 1.1439 1.25 1.44 1.39 1.1998 0.9821
646.208 1.37 1.96 1.54 1.42 1.69 1.44 1.26 1.61 2.2 2.41
665.498 2.69 3.14 3.88 4.37 4.2 4.68 6.19 7.94 10.75 15.12
684.787 20.46 27.28 34.88 42.38 53.34 63.02 59.79 51.81 46.76 40.69
704.077 33.19 26.23 20.57 15.56 11.47 8.72 7.19 6.62 6.93 8.37
723.367 11.87 18.09 25.07 29.75 32.17 32.28 29.18 22.75 14.77 8.58
742.657 5.26 3.95 3.83 3.29 2.29 2.19 1.9 1.29 1.4 1.64
761.947 1.81 1.52 1.1015 1.27 1.76 2.04 1.94 1.92 2.17 2.52
781.236 2.78 2.69 2.69 2.38 1.8 1.79 1.83 1.69 1.82 2.22
800.526 2.33 2.29 2.08 2.35 2.69 3.09 3.78 4.14 4.44 4.91
819.816 6.33 8.38 11.38 15.94 22.39 32.41 46.1 61.44 77.48 94.45
839.106 114.78 127.66 117.68 101.47 90.05 76.11 59.79 45.39 34.89 26.47
858.395 19.66 14.58 10.69 8.35 7.02 6.47 6.23 6.15 6.68 7.27
877.685 7.99 8.64 8.75 8.86 8.5 7.88 8 8.24 7.98 7.46
896.975 7.23 7.07 6.09 5.4 5.21 4.58 4.05 4.08 4.52 4.84
916.265 5.07 5.19 5.22 5.26 5.03 4.8 4.67 4.76 4.9 5.29
935.555 6.49 7.34 7.58 7.86 7.61 7.29 6.82 6.18 5.38 4.73
954.844 4.93 5.04 4.86 4.68 4.8 4.63 4.24 4.14 4.33 4.55
974.134 4.73 4.87 4.68 4.69 4.99 4.7 4.8 5.6 5.62 5.13
993.424 5.36 6.1 6.31 6.02 5.76 5.47 4.96 4.56 4.22 4.19
1012.714 4.03 4.44 4.52 4.08 4.48 4.14 4.28 5.01 4.87 4.74
1032.003 5.16 5.76 6.45 7.26 7.82 8.08 8.07 7.99 8.62 9.28
1051.293 8.86 8.01 8.06 8.32 8.03 8.04 7.68 6.96 5.89 5.78
1070.583 5.57 4.36 4.9 5.33 4.35 4.56 5.12 3.91 3.13 3.49
1089.873 3.61 3.7 5.32 7.23 8.87 10.44 12.02 13.7 13.89 13.18
1109.163 12.16 9.6 7.69 6.75 5.06 4.67 4.82 3.89 3.32 3.43
1128.452 3.32 3.09 3.08 3.44 3.25 2.37 2.58 2.76 2.49 1.86
1147.742 1.33 2.79 2.94 2.92 3.54 3.37 2.96 2.62 2.97 2.96
1167.032 2.55 2.12 2.09 2.48 2.64 2.69 3.02 2.9 2.85 3.22
1186.322 3.34 3.63 3.34 3.05 2.76 2.5 3.79 4.62 4.65 4.84
1205.611 4.48 3.92 4 4.03 3.13 3.3 3.41 3.41 3.73 3.37
1224.901 3.09 3.02 3.31 3.5 3.63 3.56 3.41 3.94 3.82 3.56
1244.191 3.89 3.63 3.33 3.31 3.65 3.98 3.95 3.61 3.02 2.97
1263.481 3.34 3.54 3.55 3.27 3.14 3.27 3.58 3.52 3.1 3.28
1282.771 3.52 3.67 3.9 4.18 4.29 4.41 4.79 4.88 4.96 5.01
1302.060 5.07 5.14 5.05 4.89 4.77 4.78 4.68 4.68 4.63 4.6
1321.350 4.61 4.65 4.72 4.78 4.91 5.07 5.44 5.7 5.91 6.29
1340.640 6.55 6.93 7.49 8.04 8.64 9.21 9.73 10.22 10.73 11.27
1359.930 11.77 12.3 12.74 13.16 13.61 14.1 14.79 15.73 16.82 17.87
1379.219 18.6 19.07 19.41 19.35 18.86 18.19 17.73 17.5 17.52 17.74
1398.509 17.91 18.15 18.51 18.77 19.02 19.44 19.75 20.08 20.56 21.23
1417.799 22.1 23.04 24.28 25.86 27.9 30.4 33.36 36.77 40.32 43.38
1437.089 45.46 46.57 46.79 45.95 44.5 43.23 42.08 40.94 39.92 39.11
1456.378 38.07 36.83 35.48 33.97 32.66 31.66 30.97 30.65 30.61 30.98
1475.668 31.98 33.14 34.59 36.15 37.22 38 38.33 37.97 37.11 36.06
1494.958 35.05 34.08 33.38 32.95 32.63 32.29 31.68 30.82 29.96 29.35
1514.248 29.14 29.17 29.16 29.71 30.6 31.5 32.6 33.65 34.68 35.45
1533.538 35.76 35.56 34.95 33.87 32.4 30.98 29.55 28.21 27.32 26.79
1552.827 26.83 27.06 27.75 29.22 30.78 32.38 34.19 35.96 37.97 40.39
1572.117 43.55 47.61 52.63 58.78 66.56 76.8 89.7 105.59 124.76 146.85
1591.407 170.98 195.59 216.87 230.25 231.8 219.69 195.03 161.8 126.99 96.31
1610.697 72.44 55.18 43.26 34.43 27.43 22.43 18.6 15.54 13.23 11.25
1629.986 9.9 8.98 8.15 7.38 6.62 6.07 5.78 5.54 5.23 4.96
1649.276 4.7 4.52 4.34 4.08 3.89 3.68 3.43 3.16 3.06 3.03
1668.566 2.99 3.1 3.04 3.05 3.2 3.4 3.44 3.47 3.76 3.97
1687.856 4.17 4.46 4.47 4.2 4 3.82 3.77 3.82 3.89 4.03
1707.146 4.21 4.58 4.92 5.29 5.65 6.06 6.73 7.6 8.85 10.4
1726.435 12.35 14.34 15.65 16.02 15.53 14.16 12.18 10.18 8.32 7.08
1745.725 6.57 6.52 6.91 7.48 8.19 8.75 9.18 9.48 9.68 9.69
1765.015 9.53 9.24 8.89 8.74 8.76 8.6 8.17 7.58 6.8 5.91
1784.305 4.93 3.99 3.4 2.96 2.51 2.18 2.07 2.01 1.93 1.89
1803.594 1.97 1.91 1.87 1.98 2.07 2.1 2.16 2.21 2.08 2.21
1822.884 2.42 2.45 2.37 2.22 2.19 2.04 1.92 1.91 1.95 1.97
1842.174 1.83 1.92 1.97 1.9 2.01 1.99 1.92 2 2.09 2.06
1861.464 1.88 1.83 1.94 2.12 2.2 2.21 2.35 2.43 2.51 2.6
1880.754 2.6 2.62 2.79 3.01 3.11 3.15 3.19 3.21 3.15 3.05
1900.043 2.98 2.88 2.87 2.83 2.73 2.67 2.57 2.66 2.57 2.53
1919.333 2.77 2.74 2.64 2.73 2.76 2.69 2.59 2.53 2.49 2.36
1938.623 2.17 2.11 2.07 2.03 1.91 1.71 1.64 1.46 1.35 1.41
1957.913 1.37 1.142 1.0401 1.105 1.1265 1.1057 1.0417 1.1118 1.1684 1.081
1977.202 0.9957 1.0635 1.1138 0.9691 0.8972 0.9512 0.9847 0.9228 0.9125 0.9342
1996.492 0.9245 0.9474 1.0026 0.9712 0.9184 0.8537 0.7711 0.7179 0.7335 0.7368
2015.782 0.7679 0.7875 0.813 0.8413 0.8638 0.9724 0.8203 0.8113 0.8795 0.7933
2035.072 0.7584 0.6527 0.5596 0.5397 0.6592 0.7646 0.5712 0.5509 0.678 0.7015
2054.362 0.7715 0.6358 0.5923 0.6523 0.6415 0.6359 0.5903 0.6182 0.6035 0.6257
2073.651 0.7189 0.7538 0.7785 0.7448 0.7688 0.7475 0.6757 0.7801 0.9017 0.8896
2092.941 0.8664 0.8585 0.907 1.0851 1.23 1.21 1.1669 1.3 1.5 1.66
2112.231 1.7 1.52 1.44 1.5 1.31 1.1967 1.1073 1.1739 1.31 1.23
2131.521 1.23 1.25 1.22 1.1804 1.28 1.43 1.33 1.1717 1.2 1.1496
2150.810 0.9773 0.9473 0.9587 0.8432 0.6899 0.6914 0.7071 0.6732 0.7967 0.7901
2170.100 0.6838 0.7412 0.7463 0.741 0.8616 0.8916 0.7271 0.6139 0.7187 0.8018
2189.390 0.757 0.834 0.8893 0.8138 0.6915 0.6789 0.6022 0.5153 0.6456 0.5815
2208.680 0.516 0.6648 0.7266 0.6012 0.4673 0.4469 0.5855 0.6969 0.7732 0.8952
2227.970 0.8802 0.8396 0.9062 1.0486 0.993 0.7969 0.687 0.4996 0.4685 0.6656
2247.259 0.7201 0.7616 0.857 0.8691 0.8241 0.8035 0.7172 0.6963 0.7303 0.6476
2266.549 0.6045 0.7661 0.8663 0.7777 0.7995 0.8283 0.6689 0.5925 0.755 0.9155
2285.839 0.8554 0.6321 0.6322 0.7253 0.7831 1.0942 1.29 1.1023 1.0466 1.1219
2305.129 1.0461 1.1365 1.24 1.26 1.34 1.33 1.37 1.5 1.74 1.98
2324.418 2.05 2.09 2.12 2.15 2.15 2.03 1.88 1.88 1.8 1.58
2343.708 1.35 1.1055 1.1621 1.41 1.46 1.3 1.1986 1.159 1.1651 1.1922
2362.998 1.23 1.1417 1.1843 1.26 1.23 1.38 1.49 1.58 1.43 1.33
2382.288 1.4 1.53 1.51 1.61 1.79 1.73 1.79 1.87 1.75 1.61
2401.578 1.7 1.71 1.65 1.69 1.72 1.84 1.92 1.94 1.87 1.9
2420.867 1.91 1.79 1.86 1.9 1.85 1.94 1.71 1.62 1.78 1.81
2440.157 1.91 1.8 1.81 1.85 1.76 1.63 1.6 1.78 1.83 1.64
2459.447 1.55 1.59 1.59 1.42 1.29 1.34 1.36 1.6 1.64 1.5
2478.737 1.42 1.29 1.36 1.41 1.32 1.25 1.32 1.37 1.39 1.44
2498.026 1.42 1.37 1.43 1.43 1.35 1.28 1.1364 1.0986 1.32 1.32
2517.316 1.25 1.28 1.0119 0.8403 0.9439 1.0692 1.0902 1.0176 1.0779 1.1975
2536.606 1.1828 1.23 1.24 1.089 1.1 1.1569 1.1336 1.1578 1.1124 1.0579
2555.896 1.0498 1.0755 1.129 0.8987 0.7487 0.9164 1.0345 1.039 0.8629 0.7896
2575.186 0.9869 1.0261 1.026 1.0641 0.9966 0.9475 0.9692 1.1044 1.21 1.26
2594.475 1.14 1.0975 1.24 1.1583 1.0592 1.0154 1.001 0.9358 0.9155 0.9543
2613.765 0.9564 0.854 0.6885 0.7634 0.966 1.0587 1.1161 1.0895 1.086 1.26
2633.055 1.38 1.42 1.34 1.1013 0.9943 1.0908 1.1459 0.9239 0.8374 1.0158
2652.345 1.1081 1.0474 1.0008 1.024 0.9531 0.9209 0.8805 0.9988 0.9985 0.9057
2671.634 0.9365 0.9488 0.973 0.904 0.8658 0.9851 1.0473 1.0568 1.1237 1.23
2690.924 1.32 1.29 1.35 1.53 1.69 1.8 1.76 1.58 1.66 1.94
2710.214 1.98 2.09 2.26 2.39 2.56 2.79 3.14 3.3 3.62 4.21
2729.504 4.84 5.57 6.56 7.72 8.59 9.15 9.49 9.59 9.06 8.18
2748.794 7.36 6.51 5.7 5.04 4.53 4.11 3.71 3.51 3.35 3.25
2768.083 3.21 3 2.85 2.78 2.97 3.21 3.26 3.26 3.27 3.32
2787.373 3.56 4.02 4.2 4.12 4.24 4.46 4.62 4.74 5.07 5.26
2806.663 5.42 5.94 6.41 6.78 7.23 7.95 8.48 8.9 9.51 10.16
2825.953 10.78 11.34 12.02 12.72 13.72 14.97 16 17.14 18.34 19.83
2845.242 21.69 23.9 26.22 28.67 31.84 35.21 39.01 43.78 48.91 54.62
2864.532 60.86 66.86 72.36 77.03 80.4 82.22 82.16 80 76.48 72.52
2883.822 68.37 64.51 61.43 59.5 58.58 58.5 59.43 61.05 63.56 66.6
2903.112 69.84 73.74 78.02 82.58 87.87 94.27 102.1 111.52 122.97 136.16
2922.401 149.82 162.96 173.78 180.85 182.84 179.36 171.39 158.98 144.05 129.21
2941.691 115.2 102.64 91.78 82.74 75.4 69.28 64.2 59.54 55.22 51.67
2960.981 48.6 45.48 42.6 40.02 37.92 36.61 35.96 36.19 37 38.63
2980.271 40.94 43.57 46.38 49.11 52.06 54.59 57.15 59.85 61.78 63.68
2999.561 66.04 68.66 71.28 74.12 76.83 79.65 83.13 87.74 94.1 101.84
3018.850 110.64 119.87 128.01 134.26 137.84 138.13 135.9 131.34 124.88 117.36
3038.140 109.65 102.11 94.34 86.54 79.01 71.59 64.34 57.78 51.91 46.71
3057.430 41.92 37.51 33.75 30.29 27.37 25.29 23.14 21.39 20.49 19.46
3076.720 18.29 17.44 16.81 16.03 15.15 14.53 14.09 13.52 12.9 12.07
3096.009 11.44 10.76 9.78 9.04 8.14 7.22 6.84 6.49 5.93 5.64
3115.299 5.37 4.92 4.74 4.43 4.01 3.88 3.52 3.19 3.2 2.98
3134.589 2.74 2.67 2.57 2.43 2.35 2.34 2.36 2.11 1.87 1.93
3153.879 1.87 1.67 1.66 1.85 1.69 1.51 1.58 1.81 1.72 1.53
3173.169 1.55 1.68 1.55 1.32 1.4 1.44 1.1611 1.1733 1.42 1.4
3192.458 1.41 1.54 1.72 1.63 1.71 1.65 1.46 1.41 1.37 1.43
3211.748 1.39 1.4 1.32 1.1605 1.1433 1.1495 1.0715 1.0823 0.969 0.828
3231.038 0.8812 0.8454 0.9365 1.0279 1.1315 1.1599 1.164 1.1358 0.9758 1.0707
3250.328 1.1899 1.046 0.9681 1.27 1.4 1.1209 0.956 0.8693 1.1489 1.44
3269.617 1.1977 1.13 1.1161 0.9104 0.8984 1.0074 1.0683 1.105 1.1006 1.23
3288.907 1.1644 0.9698 1.1514 1.21 0.8605 0.7318 1.0813 1.0358 0.6898 0.686
3308.197 0.7136 0.8677 1.0488 0.7884 0.5694 0.7433 0.7143 0.5278 0.5714 0.7799
3327.487 0.9178 0.8393 0.9006 1.0641 0.7389 0.5761 0.7957 0.9421 1.0503 0.9263
3346.777 0.9123 0.8736 0.8345 0.9015 0.8209 0.86 0.9946 1.0341 1.167 1.1015
3366.066 1.1023 1.24 1.1152 0.8992 0.662 0.7884 0.8356 0.7618 0.6737 0.5498
3385.356 0.7382 0.9413 0.8558 0.8341 0.8514 0.8652 0.9389 0.7229 0.6492 0.7291
3404.646 0.7523 1.0942 1.0997 1.0764 0.9511 0.5002 0.4667 0.5767 0.7388 0.9438
3423.936 0.9689 0.9846 1.1525 1.1759 0.9611 0.8904 0.7984 0.757 0.8987 1.0173
3443.225 1.1149 1.33 1.0599 0.711 0.9211 1.0615 1.0509 1.0841 1.27 1.0908
3462.515 0.9444 0.9462 1.1465 1.38 1.1113 0.8342 0.7433 0.8034 0.8022 0.8006
3481.805 0.8887 0.6817 0.28595 0.24666 0.43 0.549 0.4754 0.6056 0.5454 0.4715
3501.095 0.6874 0.6515 0.6111 0.5666 0.6713 0.6676 0.5321 0.5458 0.7135 0.6969
3520.385 0.7505 0.7185 0.7134 0.7729 0.5848 0.388 0.1531 0.3874 0.9837 1.1413
3539.674 1.0109 0.9655 1.0001 1.0495 0.8798 0.907 1.1257 0.9895 0.9075 0.9819
3558.964 1.0433 0.9635 0.8612 0.979 1.1716 1.28 1.0487 0.9564 0.8639 0.6913
3578.254 0.9728 1.08 0.8214 0.6363 0.579 0.3579 0.3588 0.4293 0.3668 0.4126
3597.544 0.375 0.5098 0.7897 1.0003 0.9473 0.7059 0.3929 0.322 0.5085 0.4347
3616.833 0.5818 0.9642 0.8249 0.5402 0.4395 0.5903 0.5245 0.5292 0.3754 0.19772
3636.123 0.4982 0.3725 0.4641 0.7549 0.6964 0.6023 0.5158 0.5193 0.5049 0.4195
3655.413 0.4644 0.509 0.5347 0.8435 0.8915 0.5727 0.481 0.3325 0.23189 0.5496
3674.703 0.5616 0.4397 0.5785 0.5864 0.4484 0.29505 0.1626 0.3015 0.53 0.6349
3693.993 0.5567 0.5343 0.7221 0.7447 0.5337 0.3134 0.3996 0.4526 0.5972 0.7197
3713.282 0.6414 0.6449 0.7798 0.8406 0.8373 0.8662 0.7754 0.3801 0.077 0.23903
3732.572 0.3349 0.4053 0.6179 0.8288 0.6716 0.5994 0.672 0.4869 0.7564 1.013
3751.862 0.9967 0.6564 0.3933 0.691 0.867 0.9064 0.8425 0.6788 0.5103 0.7551
3771.152 1.23 1.1023 0.6341 0.5453 0.4104 0.23116 0.5404 0.751 0.7829 0.7106
3790.441 0.613 0.7466 0.8607 0.8287 0.7996 0.7811 0.7721 0.6506 0.4383 0.4603
3809.731 0.5514 0.4342 0.6438 0.8124 0.6766 0.9103 1.0197 0.9138 0.747 0.5236
3829.021 0.5591 0.9605 1.1574 1.0432 0.7902 0.7667 1.0171 0.8005 0.8844 0.8577
3848.311 0.6597 0.8 0.9499 1.027 0.9879 0.9726 1.1931 1.37 0.9802 0.8188
3867.601 1.0917 1.23 1.21 1.1441 1.23 1.42 1.43 1.33 1.32 1.1604
3886.890 0.8632 0.9349 1.36 1.51 1.21 1.084 1.38 1.49 1.3 1.6
3906.180 1.95 1.73 1.65 1.62 1.41 1.66 2.03 1.87 1.67 1.65
3925.470 1.54 1.63 1.69 1.77 1.78 1.77 1.5 1.32 1.6 1.48
3944.760 1.51 1.63 1.44 1.21 1.21 1.52 1.85 1.45 1.32 1.7
3964.049 1.71 1.45 1.27 1.24 1.3 1.41 1.29 1.53 1.83 1.8
3983.339 1.59 1.56 1.77 1.9 1.66 1.45 1.78 1.86 1.61 1.7
##END=
