##TITLE=Hydroxypropyl acrylate
##JCAMP-DX=4.24
##DATA TYPE=INFRARED SPECTRUM
##ORIGIN=EPA-IR VAPOR PHASE LIBRARY
##OWNER=SRD/NIST
Collection (C) 2018 copyright by the U.S. Secretary of Commerce
on behalf of the United States of America. All rights reserved.
##CAS REGISTRY NO=25584-83-2
##MOLFORM=C 6 H 10 O 3
##$NIST SOURCE=MSDC-IR
##STATE=gas
##XUNITS=1/CM
##YUNITS=ABSORBANCE
##XFACTOR=1.
##YFACTOR=0.001
##DELTAX=3.85796
##FIRSTX=501.5
##LASTX=4000.7
##FIRSTY=1.4206
##MAXX=4000.7
##MINX=501.534
##MAXY=0.0752006
##MINY=0
##NPOINTS=908
##XYDATA=(X++(Y..Y))
501.534 1.4206 1.4006 1.5306 1.4606 1.2706 1.1206 1.2006 1.2206 1.1506 1.0206
540.114 0.9834 0.9855 0.8986 0.8458 0.7969 0.7767 0.7986 0.7739 0.7491 0.8604
578.693 0.9149 0.8008 0.7002 0.6815 0.7524 0.8446 0.7833 0.6983 0.8063 0.857
617.273 0.8284 0.8553 0.8687 0.8642 0.8598 0.9217 0.9647 0.9861 0.9523 1.0306
655.852 1.1706 1.2606 1.3706 1.3806 1.2806 1.1306 0.9238 0.7387 0.647 0.5449
694.432 0.4565 0.4408 0.4528 0.4508 0.422 0.3749 0.3685 0.3804 0.4027 0.4491
733.011 0.4649 0.485 0.5298 0.5203 0.5543 0.5802 0.5301 0.6083 0.6927 0.7938
771.591 0.9263 1.1006 1.4006 1.8106 2.3206 2.9206 3.7106 4.5906 5.3806 6.0106
810.170 6.2206 6.0406 5.6406 5.1506 4.6406 4.1906 3.9506 3.7806 3.6406 3.5206
848.750 3.4706 3.4106 3.2706 3.1206 3.0406 2.9506 2.8206 2.8006 2.8206 2.8206
887.330 2.8906 2.9806 3.1306 3.2706 3.3806 3.6306 3.9406 4.3206 4.8906 5.5206
925.909 6.1806 6.9406 7.7206 8.4906 9.1406 9.7406 10.3506 10.8906 11.4506 12.0306
964.489 12.3206 12.5106 12.8206 13.0806 13.3906 13.5606 13.3906 12.9306 12.3106 11.7906
1003.068 11.3306 10.7506 9.9706 8.9906 8.1406 7.6706 7.7806 8.5406 9.7806 11.4606
1041.648 13.7206 16.6306 20.0406 23.3206 25.7606 26.8806 26.4506 24.5306 21.3706 18.0206
1080.227 15.4306 13.5906 12.3606 11.5406 10.9406 10.6506 10.4906 10.3206 10.3406 10.5706
1118.807 11.0206 11.6106 12.3306 13.1206 13.9606 14.9706 15.9806 17.1306 18.5006 20.4406
1157.387 23.3506 27.6206 33.8806 42.4306 52.8306 63.3406 71.5106 75.2006 73.1406 65.2406
1195.966 53.7006 41.5906 30.9806 23.1206 18.1306 15.3306 13.9906 13.6606 14.2406 15.6606
1234.546 17.8406 20.8806 24.6606 28.8206 32.8506 35.9706 37.4406 37.0006 34.7806 31.3006
1273.125 27.1306 23.2706 20.5706 19.2206 18.6906 18.1106 17.1606 15.6606 13.5106 11.1606
1311.705 9.2306 7.9506 7.1606 6.6806 6.3606 6.1306 5.9306 5.7206 5.5706 5.5106
1350.284 5.4906 5.5206 5.6506 5.8506 6.1606 6.6206 7.2406 7.9806 8.7206 9.5106
1388.864 10.5406 12.2406 15.2906 19.6306 23.2306 24.5906 24.1206 21.5406 16.6006 11.6906
1427.443 8.5606 6.9306 6.2206 5.9706 5.9406 5.9906 5.9906 5.8606 5.6006 5.2106
1466.023 4.7106 4.1906 3.6506 3.1206 2.6606 2.2906 2.0106 1.7906 1.6206 1.5006
1504.603 1.4106 1.3106 1.2506 1.2006 1.1306 1.0606 1.0406 1.0106 0.9679 0.9296
1543.182 0.8762 0.8228 0.8089 0.7714 0.7 0.6908 0.7183 0.7102 0.7078 0.7806
1581.762 0.86 0.9269 1.0706 1.2406 1.4106 1.6706 1.9806 2.3106 2.6906 3.1206
1620.341 3.6006 4.1306 4.6406 4.9706 4.9506 4.6206 4.0506 3.2406 2.4406 1.8906
1658.921 1.6206 1.5106 1.4706 1.4906 1.5906 1.7306 1.9206 2.1806 2.5006 2.9206
1697.500 3.4706 4.1806 5.0906 6.3306 8.0506 10.4106 13.5306 17.5106 22.4706 28.2606
1736.080 34.7106 40.6906 45.0306 46.7606 45.8406 42.3506 36.4306 28.9006 21.6106 15.6206
1774.659 11.1206 8.0106 5.8806 4.4706 3.5506 2.8806 2.4106 2.0706 1.8106 1.6206
1813.239 1.4406 1.3106 1.1906 1.0506 0.9339 0.8612 0.8379 0.8073 0.7528 0.7328
1851.819 0.7236 0.6991 0.6738 0.6336 0.6078 0.603 0.5972 0.5824 0.5718 0.5823
1890.398 0.585 0.5943 0.6156 0.6524 0.7092 0.7797 0.8719 0.9761 1.0806 1.1506
1928.978 1.1906 1.1606 1.0906 1.0004 0.8719 0.7386 0.6582 0.6086 0.537 0.4751
1967.557 0.4552 0.425 0.3976 0.4026 0.4207 0.4184 0.4302 0.463 0.4944 0.5265
2006.137 0.5475 0.5525 0.5556 0.5865 0.5939 0.5914 0.5784 0.5558 0.5465 0.5365
2044.716 0.5119 0.4675 0.4527 0.4526 0.4619 0.4642 0.4377 0.4367 0.4537 0.4453
2083.296 0.4267 0.4296 0.4234 0.3965 0.397 0.3922 0.3587 0.3258 0.3256 0.3375
2121.875 0.3247 0.2892 0.2684 0.2614 0.2231 0.1961 0.2068 0.2132 0.1979 0.1795
2160.455 0.1703 0.1562 0.1582 0.1588 0.1531 0.159 0.1576 0.1543 0.1513 0.1457
2199.035 0.1481 0.1367 0.1276 0.1319 0.1148 0.117 0.1277 0.1204 0.1166 0.1148
2237.614 0.1303 0.1402 0.1279 0.1147 0.09792 0.1115 0.1184 0.1138 0.1229 0.1159
2276.194 0.10741 0.11025 0.1309 0.1434 0.1518 0.1674 0.1762 0.177 0.1872 0.2164
2314.773 0.207 0.2017 0.1987 0.1941 0.223 0.2303 0.2145 0.2226 0.2218 0.2264
2353.353 0.2755 0.2822 0.2767 0.262 0.2564 0.2817 0.2786 0.2413 0.1965 0.1805
2391.932 0.1695 0.1498 0.1506 0.1384 0.1231 0.1333 0.1193 0.0908 0.09585 0.1107
2430.512 0.10004 0.10246 0.1172 0.1207 0.1365 0.1419 0.1557 0.1619 0.1295 0.1092
2469.092 0.1344 0.1572 0.1547 0.1707 0.1965 0.1781 0.1437 0.1389 0.1246 0.1186
2507.671 0.1312 0.1177 0.1133 0.1273 0.1153 0.09827 0.10661 0.1234 0.09645 0.05385
2546.251 0.06671 0.09476 0.10494 0.10504 0.0893 0.09981 0.1184 0.1164 0.1406 0.1633
2584.830 0.1661 0.1711 0.141 0.1184 0.145 0.1792 0.1612 0.1463 0.1534 0.1272
2623.410 0.1334 0.1734 0.1971 0.1979 0.1881 0.1926 0.1916 0.1801 0.2091 0.2225
2661.989 0.2219 0.258 0.271 0.2564 0.2607 0.2838 0.2852 0.2861 0.311 0.2914
2700.569 0.2654 0.2648 0.2673 0.2791 0.2873 0.2623 0.2478 0.2673 0.2942 0.3127
2739.148 0.3061 0.3253 0.339 0.331 0.3333 0.3477 0.3529 0.362 0.3853 0.3983
2777.728 0.3835 0.3959 0.4376 0.444 0.4655 0.5036 0.5418 0.5719 0.5938 0.6079
2816.308 0.6271 0.6845 0.7564 0.7937 0.8274 0.9403 1.0206 1.0906 1.2106 1.3606
2854.887 1.5506 1.7706 2.0506 2.3906 2.8006 3.3406 3.9506 4.5206 5.0606 5.5006
2893.467 5.7906 5.9406 5.9506 5.8906 5.7806 5.6606 5.5806 5.5906 5.6906 5.9306
2932.046 6.3006 6.7506 7.3106 7.9706 8.6506 9.1706 9.5706 9.8506 10.0006 10.2406
2970.626 10.6506 11.3206 12.2506 13.0806 13.2106 12.5406 11.2206 9.3106 7.1506 5.1906
3009.205 3.7206 2.7106 2.1006 1.7306 1.5506 1.5006 1.5506 1.6906 1.7706 1.7406
3047.785 1.5906 1.4006 1.1806 0.9318 0.7897 0.7646 0.7588 0.7143 0.7089 0.7215
3086.364 0.6956 0.6992 0.7703 0.9618 1.2106 1.4406 1.5206 1.4206 1.2606 1.0306
3124.944 0.6869 0.3979 0.2662 0.2522 0.2423 0.2245 0.2011 0.1598 0.155 0.1718
3163.524 0.1556 0.1364 0.1495 0.1611 0.1843 0.1957 0.2039 0.2238 0.2069 0.1527
3202.103 0.1656 0.1669 0.1343 0.1367 0.148 0.1371 0.10399 0.07862 0.09568 0.09631
3240.683 0.05774 0.07819 0.08795 0.06234 0.07992 0.09243 0.05656 0.08731 0.10638 0.06805
3279.262 0.0791 0.09082 0.07946 0.08233 0.07211 0.10232 0.1335 0.1133 0.05655 0.06811
3317.842 0.1213 0.10674 0.05614 0.04962 0.1177 0.1117 0.08051 0.07495 0.08388 0.1304
3356.421 0.1437 0.1503 0.132 0.1702 0.2712 0.287 0.2761 0.2916 0.3058 0.3077
3395.001 0.3386 0.3668 0.3432 0.3052 0.3118 0.3558 0.3916 0.3968 0.382 0.3415
3433.580 0.3288 0.4144 0.4919 0.4753 0.4718 0.5599 0.5766 0.6213 0.7118 0.7543
3472.160 0.8361 0.8792 0.8756 0.8736 0.8544 0.8389 0.7718 0.7139 0.7124 0.673
3510.740 0.6457 0.661 0.6906 0.6948 0.7388 0.8791 1.0406 1.1906 1.3806 1.5406
3549.319 1.6506 1.6906 1.7006 1.7006 1.6806 1.6906 1.6306 1.5806 1.6206 1.6506
3587.899 1.6006 1.5206 1.5306 1.5206 1.4206 1.3706 1.3706 1.3706 1.4606 1.6606
3626.478 1.9506 2.3406 2.8706 3.3806 3.6506 3.7706 3.7206 3.4106 3.0306 2.6606
3665.058 2.2306 1.8406 1.4806 1.1706 0.9809 0.8278 0.6978 0.5852 0.4681 0.4537
3703.637 0.4702 0.4144 0.3149 0.2297 0.2738 0.3043 0.2285 0.1832 0.19 0.232
3742.217 0.2225 0.1859 0.2198 0.2198 0.2321 0.2216 0.1327 0.06611 0.09792 0.1761
3780.797 0.1915 0.174 0.1152 0.09713 0.1144 0.1266 0.159 0.1939 0.2102 0.2366
3819.376 0.2812 0.2123 0.157 0.1747 0.2186 0.2012 0.1816 0.1953 0.1861 0.2177
3857.956 0.2406 0.2464 0.2027 0.2121 0.2626 0.3046 0.2815 0.1962 0.1453 0.1344
3896.535 0.1584 0.1791 0.1804 0.187 0.1828 0.1764 0.1696 0.1416 0.135 0.1456
3935.115 0.1326 0.1467 0.1426 0.04396 0.013048 0.0806 0.1187 0.10972 0.1319 0.1306
3973.694 0.07147 0.04518 0.0017 0 0.09236 0.1715 0.1566 0.08673
##END=
