##TITLE=9-Phenyl-9-fluorenol
##JCAMP-DX=4.24
##DATA TYPE=INFRARED SPECTRUM
##ORIGIN=EPA-IR VAPOR PHASE LIBRARY
##OWNER=SRD/NIST
Collection (C) 2018 copyright by the U.S. Secretary of Commerce
on behalf of the United States of America. All rights reserved.
##CAS REGISTRY NO=25603-67-2
##MOLFORM=C 19 H 14 O
##$NIST SOURCE=MSDC-IR
##STATE=gas
##XUNITS=1/CM
##YUNITS=ABSORBANCE
##XFACTOR=1.
##YFACTOR=0.001
##DELTAX=1.92898
##FIRSTX=549.8
##LASTX=4000.7
##FIRSTY=0.8676
##MAXX=4000.7
##MINX=549.759
##MAXY=0.0822954
##MINY=0
##NPOINTS=1790
##XYDATA=(X++(Y..Y))
549.759 0.8676 1.008 0.9389 0.8895 0.88 0.7794 1.0454 1.0954 0.9305 0.9364
569.049 0.9532 0.9758 1.2554 1.6454 1.9554 2.4054 2.7354 3.4054 4.3954 5.3154
588.339 5.8454 5.8054 5.4354 4.7154 4.0054 3.1554 2.3154 1.9254 1.7054 1.4954
607.628 1.5754 1.8354 2.1454 2.6854 3.2454 3.9254 4.4054 4.3654 4.3454 4.0654
626.918 3.6754 3.8854 5.0254 7.5154 11.4454 16.6054 21.6054 25.0354 26.7654 25.5854
646.208 20.9954 15.7754 11.2554 7.6154 5.4254 4.2054 3.7154 3.7454 3.7754 4.1654
665.498 4.7554 5.1654 5.6754 6.0654 6.2854 6.4954 6.6254 6.7254 6.9854 7.4954
684.787 8.5754 10.7154 14.3554 19.1354 24.0554 28.0254 30.1854 30.2554 28.1654 24.1354
704.077 19.3054 15.1854 12.2954 10.5554 9.8454 9.7154 10.1054 11.6954 15.2554 21.4454
723.367 30.8654 42.8754 55.7654 69.8254 82.2954 82.2054 73.5754 65.8454 57.2954 49.4354
742.657 45.2654 44.8854 46.1254 49.2954 55.6254 55.1554 47.9654 44.0154 40.7154 37.0454
761.947 34.4154 33.6254 34.6854 33.6354 28.8754 23.8954 19.5254 15.3254 12.0854 9.6754
781.236 8.2854 7.4754 6.6654 5.9854 5.3154 4.6954 4.2554 3.6154 2.9354 2.6554
800.526 2.5754 2.3454 2.1154 2.0954 2.0754 1.8954 1.8254 1.8054 1.7354 1.8554
819.816 1.9854 1.9154 1.8954 1.7554 1.5454 1.7654 1.8554 1.6854 1.6754 1.6654
839.106 1.8154 2.0754 2.0754 2.0154 2.0954 2.2054 2.2454 2.1954 2.2354 2.5154
858.395 2.7054 2.8354 3.0854 3.0754 2.9754 3.1554 3.2054 3.1354 3.3754 3.6454
877.685 3.9154 4.2854 4.6954 5.2954 5.8754 6.3454 6.7954 7.2054 7.4454 7.4754
896.975 7.6654 8.1754 8.9254 10.0354 11.7554 13.7754 15.6554 17.0754 17.7154 17.3654
916.265 16.4454 14.9354 12.9054 10.8054 9.0154 7.6154 6.4454 5.6754 5.0554 4.6854
935.555 4.5354 4.4254 4.2754 4.0054 3.8454 3.7454 3.5554 3.4054 3.3954 3.4454
954.844 3.4554 3.4754 3.5254 3.4754 3.4954 3.7554 3.8454 3.6554 3.7054 3.8854
974.134 3.9754 4.0854 4.1154 4.1254 4.2254 4.3954 4.7554 5.2054 5.8054 6.4054
993.424 6.7254 7.0654 7.5154 7.9254 8.4354 9.0654 9.9854 11.5554 13.5854 16.0754
1012.714 19.0854 22.6054 26.2854 30.1454 33.8654 36.7454 38.5754 39.4254 39.0054 36.7354
1032.003 33.8854 31.8054 29.0954 24.7554 20.0654 15.8954 12.5454 9.9854 7.8954 6.3654
1051.293 5.6054 4.9054 4.0754 3.6154 3.3754 2.9754 2.5054 2.2754 2.3754 2.5954
1070.583 2.6954 3.0154 3.1254 2.7754 2.9154 2.8154 2.6954 2.8854 2.7554 2.7454
1089.873 2.5954 2.6654 3.2354 3.7954 4.1554 4.3854 4.9154 5.0754 4.6954 4.7554
1109.163 4.6054 4.1054 3.5754 3.2554 3.2054 3.4354 3.7954 3.7154 3.6054 3.6654
1128.452 3.9554 4.2654 4.2754 4.6554 5.5454 6.1354 6.6454 7.5154 8.7054 10.4154
1147.742 12.2754 14.0154 15.9954 17.6854 18.7354 19.3954 20.0254 20.9354 21.6754 22.3554
1167.032 23.6054 24.7354 25.4954 26.0154 25.8154 24.8654 23.5554 21.9754 20.3554 18.1854
1186.322 15.5954 13.3154 11.3154 9.2754 7.7254 6.6954 6.0454 5.7754 5.2254 5.4354
1205.611 5.4754 5.0654 4.9554 4.6354 4.5554 4.7454 4.4054 4.3054 4.8354 4.9554
1224.901 4.9354 5.2954 5.5154 5.5954 5.8554 6.1254 6.3554 6.4254 6.4854 6.2854
1244.191 6.1854 6.2154 6.1754 6.2354 6.1454 5.9454 6.0454 6.2054 6.0354 6.1854
1263.481 6.5554 6.6954 7.0154 7.5054 7.8554 8.4854 9.3654 10.1654 11.0354 11.8254
1282.771 12.6054 13.3354 13.6054 13.4954 13.1654 12.7254 12.3154 11.9354 11.6354 11.4754
1302.060 11.3954 11.3954 11.5054 11.7154 12.0354 12.4254 12.8554 13.4154 14.1354 14.8654
1321.350 15.6854 16.5854 17.4954 18.4054 19.2454 19.9254 20.1954 19.9254 19.0854 17.7354
1340.640 16.0854 14.2854 12.4554 10.8154 9.3654 8.1654 7.2754 6.5654 5.9254 5.4154
1359.930 5.0154 4.6954 4.4454 4.2654 4.1254 3.9854 3.8954 3.8454 3.7954 3.7354
1379.219 3.6454 3.5254 3.3854 3.1854 2.9454 2.8654 2.8254 2.6854 2.5854 2.5754
1398.509 2.5054 2.5254 2.6154 2.6454 2.7654 2.8754 3.0054 3.2054 3.4854 3.7754
1417.799 4.0554 4.4054 4.8154 5.1854 5.5354 5.8754 6.3554 7.0454 8.2154 10.0754
1437.089 13.0254 17.1554 22.0854 27.5654 33.0354 37.2554 39.1054 38.0954 34.3254 29.0554
1456.378 22.8154 16.6854 12.1754 9.2754 7.8154 7.3654 7.6354 8.1354 8.6054 8.9854
1475.668 9.3554 9.6054 9.6654 9.6754 9.7454 9.8754 10.1054 10.5054 11.0554 11.5554
1494.958 11.7254 11.4954 10.7654 9.5254 7.9754 6.2654 4.7554 3.8054 3.1754 2.7454
1514.248 2.4254 2.1054 1.8954 1.7254 1.6954 1.7254 1.6254 1.5954 1.6454 1.6254
1533.538 1.5954 1.6054 1.5654 1.3554 1.2454 1.1854 1.1054 1.1354 1.1054 1.1154
1552.827 1.0754 1.0854 1.0754 0.9208 1.1054 1.2854 1.3254 1.5254 1.7454 2.0354
1572.117 2.4254 2.8554 3.3554 4.0454 4.8954 5.8154 6.7654 7.6054 8.4154 9.2354
1591.407 9.9754 10.6954 11.4054 12.0254 12.4254 12.3654 11.7454 10.7754 9.6754 8.3954
1610.697 7.0754 5.9454 4.9954 4.2154 3.6954 3.2954 2.9254 2.7854 2.6354 2.3354
1629.986 2.1254 1.8654 1.6554 1.4854 1.2654 1.1554 1.1654 1.1854 1.1354 1.0954
1649.276 1.0454 0.9038 0.8346 0.9854 1.1354 1.2454 1.2954 1.3654 1.4754 1.4754
1668.566 1.4454 1.4554 1.4054 1.3754 1.4254 1.4954 1.4254 1.3754 1.4154 1.4854
1687.856 1.5454 1.6054 1.6454 1.5554 1.4754 1.5454 1.4654 1.3654 1.3854 1.2554
1707.146 1.1954 1.1654 1.0754 1.0454 1.0654 1.0454 1.1154 1.2754 1.3754 1.4554
1726.435 1.5354 1.5754 1.6154 1.5254 1.3954 1.4454 1.4254 1.3454 1.3454 1.3854
1745.725 1.4654 1.7054 2.0054 2.3854 2.9154 3.1954 3.1554 2.9854 2.6354 2.2254
1765.015 1.9554 1.7554 1.6254 1.5654 1.5554 1.5354 1.5154 1.5054 1.4954 1.5054
1784.305 1.5854 1.7354 1.9354 2.1954 2.5954 3.1254 3.5554 3.9554 4.2554 4.3654
1803.594 4.2854 3.9354 3.4454 2.9154 2.4454 2.0954 1.7454 1.5154 1.4354 1.3654
1822.884 1.3054 1.3654 1.5554 1.7054 1.8254 1.9154 1.8854 1.8454 1.8654 1.8454
1842.174 1.7354 1.6954 1.6754 1.6454 1.6454 1.6954 1.6854 1.5854 1.5754 1.5654
1861.464 1.5354 1.5554 1.5754 1.6054 1.7254 1.9754 2.1354 2.1954 2.2554 2.2054
1880.754 2.1254 2.0654 1.9454 1.8654 1.7954 1.7954 1.8254 1.9254 2.1454 2.4554
1900.043 2.8854 3.3054 3.6954 3.9854 4.0754 3.9454 3.6154 3.1554 2.6054 2.0654
1919.333 1.6754 1.4054 1.2854 1.3054 1.3954 1.6654 2.0354 2.5754 3.2954 4.0954
1938.623 4.8654 5.3954 5.5954 5.5254 5.0654 4.3554 3.5854 2.8454 2.3154 1.9354
1957.913 1.6554 1.4554 1.2954 1.1054 0.8746 0.6995 0.5775 0.5569 0.5263 0.4455
1977.202 0.4471 0.4474 0.4158 0.4094 0.3857 0.3637 0.3056 0.2357 0.2553 0.2924
1996.492 0.3054 0.3062 0.2931 0.2991 0.3001 0.2873 0.2416 0.2467 0.2502 0.2221
2015.782 0.2745 0.2652 0.2706 0.2841 0.2286 0.2387 0.2217 0.2157 0.2671 0.2833
2035.072 0.2948 0.2634 0.2762 0.3052 0.3041 0.343 0.3678 0.37 0.3726 0.3763
2054.362 0.3265 0.2918 0.3424 0.3688 0.3235 0.2741 0.2495 0.2628 0.2284 0.2107
2073.651 0.2703 0.2925 0.2762 0.2297 0.2198 0.2465 0.2284 0.1798 0.1917 0.2616
2092.941 0.2595 0.2302 0.2241 0.2092 0.2442 0.3117 0.3201 0.2906 0.2656 0.275
2112.231 0.2988 0.2636 0.2192 0.2057 0.176 0.1878 0.2261 0.2425 0.2 0.1827
2131.521 0.2274 0.2183 0.2006 0.1881 0.2083 0.216 0.2047 0.1532 0.138 0.1787
2150.810 0.1857 0.1388 0.1194 0.1676 0.1999 0.219 0.194 0.1861 0.1528 0.1703
2170.100 0.2346 0.2356 0.2547 0.2438 0.2341 0.2929 0.321 0.3046 0.2718 0.3016
2189.390 0.3037 0.2689 0.3319 0.3216 0.3184 0.3145 0.2953 0.3234 0.3032 0.3234
2208.680 0.3714 0.3533 0.2826 0.2975 0.3385 0.3263 0.317 0.293 0.3662 0.4199
2227.970 0.2946 0.2673 0.3145 0.2761 0.2857 0.3164 0.34 0.3345 0.3015 0.2898
2247.259 0.2903 0.349 0.3861 0.4278 0.4908 0.5026 0.4641 0.4466 0.459 0.4644
2266.549 0.4762 0.4316 0.4415 0.3915 0.3141 0.2972 0.3541 0.4115 0.3472 0.286
2285.839 0.3071 0.3284 0.3342 0.3896 0.3568 0.3486 0.4609 0.5105 0.5035 0.5629
2305.129 0.7185 0.9318 1.0454 1.0954 1.1554 1.1354 0.9892 0.891 0.804 0.6155
2324.418 0.4921 0.4377 0.4066 0.38 0.3375 0.2871 0.2634 0.3138 0.4138 0.4083
2343.708 0.3084 0.3011 0.2943 0.295 0.2922 0.2781 0.2784 0.2431 0.2757 0.3435
2362.998 0.2938 0.2672 0.3459 0.2705 0.195 0.2934 0.3196 0.2764 0.2556 0.2535
2382.288 0.2812 0.2325 0.2555 0.3079 0.3426 0.3872 0.2985 0.2941 0.365 0.353
2401.578 0.3526 0.3398 0.3232 0.32 0.2804 0.2774 0.2384 0.2293 0.3045 0.4064
2420.867 0.3947 0.3252 0.3139 0.3152 0.3727 0.4039 0.3807 0.3402 0.3943 0.4278
2440.157 0.3603 0.3497 0.3939 0.4126 0.3835 0.3241 0.285 0.3111 0.3205 0.2943
2459.447 0.3065 0.3403 0.2994 0.3016 0.3835 0.3353 0.2925 0.3272 0.331 0.3428
2478.737 0.3441 0.3267 0.3338 0.2881 0.2846 0.3549 0.3505 0.3369 0.3578 0.3894
2498.026 0.4122 0.4311 0.3883 0.3554 0.3806 0.3979 0.3866 0.3454 0.3112 0.3553
2517.316 0.3788 0.3738 0.3804 0.3371 0.3068 0.2886 0.3117 0.323 0.2975 0.2279
2536.606 0.2629 0.3375 0.3091 0.3024 0.2634 0.2609 0.3409 0.358 0.3392 0.3348
2555.896 0.335 0.3391 0.3027 0.3455 0.3832 0.4253 0.487 0.4094 0.3579 0.4084
2575.186 0.4844 0.4665 0.4529 0.4942 0.5129 0.5275 0.4844 0.449 0.4416 0.4993
2594.475 0.5767 0.6286 0.6237 0.5867 0.6051 0.5735 0.528 0.5056 0.5365 0.6073
2613.765 0.6189 0.5929 0.5908 0.6355 0.6162 0.632 0.6612 0.632 0.6429 0.5581
2633.055 0.519 0.5988 0.5963 0.5612 0.5912 0.6038 0.5413 0.5013 0.5077 0.532
2652.345 0.4401 0.3227 0.2715 0.3294 0.4031 0.3609 0.3456 0.3727 0.455 0.4403
2671.634 0.4076 0.3735 0.2669 0.3032 0.3119 0.2614 0.2874 0.2829 0.2626 0.1855
2690.924 0.1944 0.2869 0.2486 0.3033 0.416 0.3689 0.3176 0.3027 0.2912 0.2604
2710.214 0.2357 0.2168 0.2397 0.2595 0.2236 0.3073 0.2821 0.2063 0.2075 0.2369
2729.504 0.2847 0.2561 0.2959 0.3991 0.4332 0.3877 0.3494 0.3305 0.3172 0.4099
2748.794 0.4504 0.4383 0.5054 0.4866 0.4509 0.4841 0.5127 0.5682 0.6009 0.5795
2768.083 0.5447 0.4927 0.5177 0.6093 0.6264 0.6616 0.5643 0.393 0.4572 0.4729
2787.373 0.4756 0.5264 0.5416 0.4666 0.3673 0.42 0.4482 0.38 0.3547 0.3708
2806.663 0.4158 0.4679 0.5069 0.5601 0.5079 0.4518 0.467 0.3603 0.3312 0.4513
2825.953 0.5122 0.5387 0.5707 0.5473 0.5067 0.5026 0.466 0.4369 0.472 0.5046
2845.242 0.538 0.4803 0.5477 0.7134 0.7809 0.8794 0.8954 0.9546 1.003 1.015
2864.532 1.0954 1.0954 1.0554 1.0954 1.1254 1.0454 0.9664 1.0354 1.0754 1.0134
2883.822 1.0354 1.1554 1.1454 1.1054 1.0954 1.1954 1.3054 1.2454 1.2554 1.3054
2903.112 1.2954 1.1754 1.1854 1.2354 1.2954 1.5154 1.6554 1.6154 1.6254 1.7154
2922.401 1.7954 1.9254 1.9554 2.0254 2.2054 2.2454 2.2054 2.1754 2.0854 1.9954
2941.691 1.9154 1.8454 1.7254 1.5954 1.5354 1.4454 1.3454 1.3054 1.3154 1.2454
2960.981 1.2354 1.2454 1.2454 1.2354 1.2354 1.2954 1.3054 1.3154 1.3354 1.3654
2980.271 1.3854 1.4254 1.4854 1.4954 1.4854 1.4954 1.5554 1.7054 2.0254 2.3254
2999.561 2.6254 2.9954 3.3554 3.8354 4.3754 5.1354 6.2054 7.4754 8.8654 10.4654
3018.850 12.4654 14.7054 16.9254 18.8654 20.6254 22.0254 22.9154 23.5354 23.6954 23.5254
3038.140 23.2954 22.9854 22.5854 22.3054 22.3554 22.5354 23.0954 24.0054 25.5754 27.8954
3057.430 31.0354 35.3354 40.4154 46.0354 51.6154 56.5254 59.9554 60.9854 59.5054 55.8454
3076.720 50.3254 43.9154 37.7254 32.2154 28.0454 25.0954 22.5954 20.4054 18.3554 16.2454
3096.009 14.0254 11.8054 9.8954 8.2554 6.8854 5.8154 4.9054 4.3754 4.0054 3.5654
3115.299 3.1354 2.7754 2.4154 2.1854 2.0754 1.8454 1.6854 1.5954 1.4254 1.3254
3134.589 1.3254 1.3054 1.2054 1.1354 1.1254 1.0091 0.9812 1.1254 1.1454 1.0954
3153.879 1.2554 1.3954 1.4254 1.5154 1.5754 1.5354 1.4054 1.3354 1.3754 1.2354
3173.169 1.0954 1.0013 0.8597 0.7677 0.6113 0.4871 0.4534 0.4868 0.4583 0.4026
3192.458 0.4053 0.3834 0.3648 0.4767 0.4795 0.3624 0.3011 0.308 0.3359 0.2029
3211.748 0.2011 0.3384 0.3638 0.4028 0.2786 0.1558 0.1552 0.05818 0.1522 0.1926
3231.038 0.1171 0.2482 0.2661 0.1489 0.10737 0.1373 0.2585 0.2434 0.1379 0.1604
3250.328 0.1165 0.0549 0.1282 0.11329 0.1297 0.2145 0.1608 0.1959 0.2175 0.1353
3269.617 0.06266 0.1272 0.1498 0.1208 0.1864 0.2738 0.2007 0.04245 0.07243 0.1326
3288.907 0.1162 0.07191 0.05754 0.05361 0.1194 0.254 0.2938 0.2437 0.2275 0.1815
3308.197 0.1619 0.07453 0.07629 0.10486 0.11292 0.1368 0.10109 0.1445 0.187 0.169
3327.487 0.06365 0.1752 0.2119 0.1274 0.1662 0.1413 0.2905 0.3486 0.3175 0.286
3346.777 0.1778 0.2746 0.2861 0.1308 0.1299 0.4255 0.4524 0.3247 0.452 0.4069
3366.066 0.3895 0.4 0.3727 0.4276 0.4393 0.3677 0.3651 0.4485 0.4474 0.3913
3385.356 0.4387 0.4636 0.4813 0.3721 0.3015 0.4734 0.461 0.3787 0.4005 0.4161
3404.646 0.4303 0.4191 0.3516 0.3636 0.4338 0.4389 0.4332 0.2877 0.2383 0.3023
3423.936 0.3547 0.4186 0.2481 0.1357 0.3182 0.3483 0.2343 0.3352 0.2969 0.2693
3443.225 0.4606 0.4851 0.3571 0.3177 0.2992 0.239 0.2414 0.3897 0.4082 0.3253
3462.515 0.3492 0.378 0.3419 0.3034 0.2468 0.237 0.3008 0.3043 0.3426 0.3264
3481.805 0.2021 0.09578 0.1965 0.2316 0.11466 0.10097 0.1775 0.2592 0.1812 0.1429
3501.095 0.1976 0.238 0.2216 0.1598 0.03977 0 0.018727 0.09116 0.2964 0.25
3520.385 0.2171 0.2852 0.175 0.09365 0.1733 0.1871 0.1613 0.2309 0.1715 0.2492
3539.674 0.4148 0.3969 0.2342 0.1491 0.1884 0.2094 0.2017 0.1976 0.2785 0.1793
3558.964 0.146 0.2109 0.2399 0.3118 0.2977 0.3646 0.4486 0.5689 0.6925 0.6701
3578.254 0.5862 0.6065 0.7261 0.7891 0.7912 0.7712 0.8201 0.6365 0.5867 0.6386
3597.544 0.6228 0.7394 0.6854 0.7234 0.7513 0.786 0.8851 1.0454 1.3954 1.9954
3616.833 2.8554 4.0554 5.8754 8.0654 10.6454 13.3554 15.7854 17.1754 16.8054 14.7954
3636.123 11.9854 9.2754 6.8954 4.8254 3.1854 2.2854 1.7554 1.3654 1.2454 1.2054
3655.413 1.0754 0.9201 0.8507 0.8382 0.8807 0.9109 0.8241 0.6162 0.5184 0.624
3674.703 0.6182 0.5111 0.4844 0.5954 0.6698 0.6255 0.4858 0.4805 0.6254 0.6594
3693.993 0.5806 0.5966 0.5965 0.578 0.6302 0.5783 0.6951 0.7986 0.6805 0.6583
3713.282 0.581 0.5418 0.5071 0.4571 0.4785 0.4115 0.4405 0.3985 0.3539 0.3584
3732.572 0.3204 0.2101 0.1557 0.2256 0.2642 0.2416 0.1514 0.1737 0.1637 0.1959
3751.862 0.2743 0.2586 0.3334 0.3324 0.3641 0.4604 0.4033 0.4688 0.5824 0.4663
3771.152 0.5258 0.4957 0.4274 0.4617 0.4071 0.4159 0.4377 0.3924 0.3564 0.3831
3790.441 0.4092 0.4734 0.479 0.4875 0.4745 0.3475 0.3694 0.3596 0.2107 0.3386
3809.731 0.4736 0.4838 0.4663 0.3021 0.2737 0.3272 0.4435 0.5818 0.5719 0.5279
3829.021 0.4926 0.3996 0.4341 0.4748 0.3821 0.3347 0.3818 0.5296 0.409 0.3076
3848.311 0.4123 0.3205 0.1646 0.213 0.2861 0.2931 0.3873 0.4385 0.2872 0.216
3867.601 0.2143 0.2554 0.1903 0.2686 0.3821 0.2107 0.2523 0.3298 0.3217 0.3522
3886.890 0.3511 0.2068 0.1261 0.2366 0.2338 0.06966 0.08482 0.2496 0.2565 0.2062
3906.180 0.2393 0.2565 0.2085 0.128 0.2588 0.3523 0.4073 0.3811 0.1593 0.10303
3925.470 0.1256 0.3103 0.3439 0.1667 0.1543 0.2452 0.1996 0.2692 0.3416 0.2066
3944.760 0.2614 0.3208 0.1708 0.1363 0.3305 0.3397 0.2196 0.2499 0.3093 0.3195
3964.049 0.2782 0.3272 0.3762 0.3091 0.2289 0.2834 0.3144 0.3066 0.3896 0.3735
3983.339 0.3724 0.4049 0.3899 0.3066 0.2347 0.3086 0.2937 0.2936 0.4341 0.5107
##END=
