##TITLE=2-Ethoxy-4-methylphenol
##JCAMP-DX=4.24
##DATA TYPE=INFRARED SPECTRUM
##ORIGIN=EPA-IR VAPOR PHASE LIBRARY
##OWNER=SRD/NIST
Collection (C) 2018 copyright by the U.S. Secretary of Commerce
on behalf of the United States of America. All rights reserved.
##CAS REGISTRY NO=2563-07-7
##MOLFORM=C 9 H 12 O 2
##$NIST SOURCE=MSDC-IR
##STATE=gas
##XUNITS=1/CM
##YUNITS=ABSORBANCE
##XFACTOR=1.
##YFACTOR=0.001
##DELTAX=1.92898
##FIRSTX=549.8
##LASTX=4000.7
##FIRSTY=9.68
##MAXX=4000.7
##MINX=549.759
##MAXY=0.34155
##MINY=0.0003665
##NPOINTS=1790
##XYDATA=(X++(Y..Y))
549.759 9.68 9.86 9.86 9.82 9.65 9.45 9.49 9.32 9.19 9.24
569.049 9.64 10.39 10.8 11.49 12.11 12.46 13.33 14.38 15.33 15.86
588.339 15.72 15.34 15.24 15.38 15.06 14.29 13.62 12.71 11.57 10.59
607.628 9.72 8.84 7.99 7.21 6.25 5.48 5.06 4.62 4.21 3.83
626.918 3.86 3.66 3.16 2.97 2.87 2.63 2.53 2.55 2.27 2.15
646.208 2 1.79 1.83 2.01 2.02 2.01 2 1.94 2.09 2.3
665.498 2.4 2.3 2.31 2.48 2.53 2.6 2.7 2.64 2.68 2.84
684.787 2.79 2.88 3.02 3.07 3.06 2.91 2.99 3.19 3.28 3.5
704.077 3.76 3.91 4.22 4.56 4.9 5.24 5.47 5.81 5.98 5.88
723.367 5.96 5.92 5.93 5.95 5.97 6.15 6.09 6.15 6.32 6.62
742.657 6.73 6.84 7.3 7.94 8.41 8.69 8.99 9.38 10.06 10.95
761.947 11.95 13.17 14.74 16.77 19.23 22.09 25.52 29.13 32.72 36.37
781.236 40.13 43.68 47.06 50.84 54.65 58.53 62.55 66.45 70.11 73.44
800.526 76.34 79 82.31 86.94 92.78 92.96 80.69 66.22 57.46 51.15
819.816 45.34 39.03 32.61 27.27 23.07 20.08 18.29 17.13 16.78 16.75
839.106 16.69 16.99 17.36 17.48 17.45 17.52 17.49 17.73 18.12 18.2
858.395 18.02 17.88 17.79 17.53 17.2 16.66 16.01 15.46 14.94 14.41
877.685 13.97 13.38 12.71 12.17 11.68 10.98 10.12 9.7 9.28 8.84
896.975 8.63 8.06 7.59 7.44 7.37 7.36 7.44 7.61 7.93 8.26
916.265 8.49 8.94 9.51 10.29 11.28 12.49 13.89 15.58 17.37 18.9
935.555 20.38 21.93 23.54 24.93 26.01 26.83 27.26 27.25 26.71 25.76
954.844 24.71 23.49 22.03 20.36 18.64 17.12 15.81 14.77 13.92 13.52
974.134 13.3 13.4 13.83 14.18 14.77 15.52 16.11 16.68 17.36 17.94
993.424 18.46 18.91 19.58 20.19 20.55 20.86 21.43 22.57 23.92 25.49
1012.714 27.8 30.89 34.46 39.13 44.83 50.87 57.42 65.03 73.14 80.86
1032.003 88.02 93.93 98.57 101.98 103.44 103.29 101.12 97.01 91.65 85.02
1051.293 77.53 69.91 62.39 54.91 47.86 41.82 36.85 32.81 29.69 27.5
1070.583 25.85 24.62 24.25 24.31 24.36 24.67 24.85 25.06 25.3 25.54
1089.873 26.09 26.71 27.66 28.91 30.58 33.41 37.66 43.48 51.07 60.56
1109.163 71.71 84.73 98.01 108.64 116.77 121.56 122.92 121.87 119 114.95
1128.452 109.74 103.88 99.13 96.85 97.48 100.76 105.6 110.78 115.22 118.28
1147.742 119.73 119.48 117.24 112.42 106.89 101.31 95.63 90.76 86.99 83.91
1167.032 81.01 78.73 77.16 76.21 75.44 75.16 75.7 76.47 77.7 79.53
1186.322 82.28 85.71 89.48 93.01 95.92 98.49 99.53 99.16 98.38 97.28
1205.611 95.31 92.57 89.65 87.5 87.5 89.84 94.45 101.78 110.82 121.36
1224.901 133.43 145.5 156.93 167.51 176.24 182.67 187.38 190.39 191.44 190.55
1244.191 187.9 184.54 182.56 182.63 185.76 192.96 204.07 218.87 236.93 256.22
1263.481 274.46 289.98 300.77 305.81 304.13 295.51 279.72 256.95 228.57 197.78
1282.771 168.58 143.41 122.49 105.46 91.54 79.72 69.53 60.8 53.61 47.99
1302.060 43.53 39.92 36.96 34.3 32.01 30.17 28.74 27.78 27.13 26.68
1321.350 26.6 26.84 27.32 27.97 28.95 30.42 32.34 34.83 37.97 41.81
1340.640 46.26 51.15 56.14 60.76 64.6 67.66 69.94 71.43 72.12 71.84
1359.930 70.73 69.13 67.54 66.16 64.98 63.72 62.18 60.65 59.49 58.75
1379.219 58.16 57.26 55.92 54.45 53.11 51.99 51 50.06 48.98 47.73
1398.509 46.32 44.63 42.7 40.64 38.66 37.08 36.14 35.99 36.62 38
1417.799 40.11 42.84 45.95 49.17 52.28 54.99 56.96 58.03 58.03 56.98
1437.089 54.95 52.27 49.02 45.37 41.7 38.26 35.35 33.08 31.35 30.02
1456.378 29.03 28.29 27.85 27.66 27.8 28.37 29.37 30.91 33.07 35.92
1475.668 39.37 43.19 46.95 50.71 55.11 60.52 67 75.34 86.25 99.85
1494.958 117.36 140.33 168.32 200.45 234.74 267.89 298.2 322.11 336.66 341.55
1514.248 336.3 321.01 296.51 264.89 226.43 187.33 149.85 117.18 91.15 71.52
1533.538 57.03 46.45 39 33.46 29.3 26.19 23.83 22.03 20.75 19.64
1552.827 18.73 17.99 17.43 16.94 16.44 15.97 15.59 15.34 15.08 14.9
1572.117 14.93 15.09 15.4 15.9 16.61 17.56 18.82 20.5 22.54 24.86
1591.407 27.46 30.34 33.18 35.92 38.26 40.06 41.42 42.34 42.64 42.03
1610.697 40.63 38.47 35.81 32.97 30.08 27.09 23.93 20.63 17.5 14.76
1629.986 12.53 10.81 9.55 8.65 7.96 7.49 7.21 7.01 6.79 6.58
1649.276 6.47 6.38 6.26 6.15 6.04 5.94 5.8 5.66 5.57 5.49
1668.566 5.41 5.33 5.22 5.13 5.07 5.04 4.99 4.9 4.85 4.76
1687.856 4.7 4.7 4.65 4.59 4.51 4.41 4.33 4.3 4.25 4.18
1707.146 4.13 4.05 4 4.02 4.09 4.1 4.09 4.26 4.39 4.39
1726.435 4.42 4.46 4.55 4.59 4.61 4.59 4.54 4.42 4.32 4.24
1745.725 4.18 4.03 3.9 3.81 3.7 3.65 3.55 3.44 3.38 3.33
1765.015 3.23 3.15 3.13 3.05 3.01 2.99 2.87 2.81 2.81 2.73
1784.305 2.68 2.63 2.54 2.52 2.53 2.49 2.45 2.44 2.44 2.43
1803.594 2.42 2.39 2.37 2.42 2.44 2.4 2.41 2.5 2.58 2.6
1822.884 2.72 2.93 3.1 3.3 3.52 3.76 4.03 4.34 4.71 5.1
1842.174 5.46 5.93 6.37 6.65 6.93 7.18 7.3 7.31 7.23 7.04
1861.464 6.72 6.37 6.03 5.62 5.18 4.77 4.39 4.12 3.91 3.77
1880.754 3.67 3.58 3.52 3.45 3.45 3.4 3.39 3.44 3.46 3.49
1900.043 3.52 3.56 3.57 3.57 3.57 3.57 3.61 3.63 3.59 3.54
1919.333 3.5 3.4 3.36 3.32 3.21 3.12 3.03 2.92 2.88 2.84
1938.623 2.73 2.67 2.64 2.57 2.47 2.42 2.44 2.42 2.36 2.28
1957.913 2.22 2.21 2.21 2.23 2.26 2.29 2.25 2.2 2.23 2.28
1977.202 2.28 2.3 2.38 2.43 2.39 2.42 2.46 2.47 2.49 2.51
1996.492 2.5 2.52 2.53 2.5 2.45 2.5 2.56 2.56 2.57 2.53
2015.782 2.55 2.56 2.5 2.54 2.65 2.72 2.75 2.77 2.84 2.97
2035.072 3.04 3.06 3.11 3.16 3.22 3.3 3.4 3.42 3.43 3.49
2054.362 3.49 3.44 3.41 3.42 3.4 3.32 3.24 3.16 3.1 3.04
2073.651 2.93 2.77 2.62 2.54 2.44 2.27 2.18 2.11 1.99 1.9
2092.941 1.84 1.73 1.63 1.63 1.6 1.51 1.45 1.41 1.39 1.37
2112.231 1.37 1.39 1.36 1.4 1.43 1.43 1.48 1.5 1.49 1.51
2131.521 1.57 1.64 1.66 1.65 1.71 1.77 1.75 1.77 1.77 1.74
2150.810 1.78 1.8 1.81 1.88 1.84 1.73 1.7 1.68 1.66 1.66
2170.100 1.65 1.65 1.58 1.52 1.53 1.54 1.48 1.41 1.37 1.37
2189.390 1.38 1.38 1.4 1.32 1.28 1.35 1.42 1.47 1.45 1.48
2208.680 1.55 1.55 1.61 1.63 1.52 1.56 1.62 1.62 1.68 1.69
2227.970 1.66 1.63 1.66 1.64 1.58 1.57 1.54 1.49 1.47 1.46
2247.259 1.48 1.55 1.51 1.49 1.51 1.52 1.6 1.67 1.66 1.67
2266.549 1.75 1.8 1.85 1.88 1.96 2.01 2.04 2.1 2.21 2.31
2285.839 2.38 2.45 2.51 2.57 2.6 2.63 2.7 2.74 2.78 2.79
2305.129 2.8 2.79 2.72 2.68 2.74 2.74 2.63 2.54 2.52 2.52
2324.418 2.5 2.45 2.43 2.39 2.26 2.15 2.14 2.08 1.97 1.88
2343.708 1.89 1.94 1.84 1.76 1.85 1.85 1.8 1.81 1.89 1.92
2362.998 1.89 1.9 1.97 2.09 2.12 2.13 2.2 2.28 2.33 2.43
2382.288 2.52 2.58 2.66 2.69 2.73 2.82 2.84 2.87 2.86 2.9
2401.578 2.97 2.98 2.95 2.97 2.98 2.94 2.95 2.89 2.9 2.93
2420.867 2.83 2.85 2.86 2.73 2.66 2.6 2.59 2.53 2.36 2.35
2440.157 2.45 2.43 2.42 2.43 2.42 2.44 2.48 2.55 2.59 2.65
2459.447 2.7 2.75 2.87 2.93 2.93 2.98 3.04 3.06 3.07 3.1
2478.737 3.14 3.17 3.15 3.2 3.31 3.38 3.43 3.46 3.46 3.51
2498.026 3.55 3.61 3.66 3.68 3.64 3.57 3.53 3.42 3.34 3.34
2517.316 3.29 3.19 3.12 3.01 3.01 2.95 2.86 2.84 2.83 2.87
2536.606 2.89 2.98 2.95 2.84 2.81 2.76 2.74 2.65 2.56 2.54
2555.896 2.45 2.31 2.23 2.17 2.05 1.94 1.9 1.83 1.78 1.76
2575.186 1.67 1.61 1.58 1.53 1.52 1.53 1.56 1.59 1.59 1.6
2594.475 1.6 1.63 1.67 1.69 1.78 1.87 1.91 1.95 2 2.02
2613.765 2.08 2.18 2.26 2.33 2.47 2.51 2.45 2.47 2.45 2.41
2633.055 2.37 2.36 2.32 2.26 2.21 2.16 2.15 2.12 2.07 2.07
2652.345 2.02 1.89 1.83 1.79 1.78 1.81 1.79 1.72 1.68 1.64
2671.634 1.62 1.63 1.65 1.73 1.67 1.62 1.64 1.66 1.65 1.72
2690.924 1.79 1.86 2 2 1.99 2.13 2.14 2.18 2.24 2.31
2710.214 2.53 2.61 2.61 2.71 2.85 3.01 3.21 3.39 3.42 3.52
2729.504 3.76 4.1 4.4 4.65 4.87 5 5.23 5.43 5.54 5.44
2748.794 5.3 5.23 4.93 4.67 4.57 4.49 4.46 4.38 4.32 4.36
2768.083 4.26 4.17 4.27 4.34 4.35 4.31 4.28 4.32 4.39 4.4
2787.373 4.45 4.53 4.56 4.43 4.51 4.69 4.66 4.69 4.86 5.13
2806.663 5.26 5.41 5.57 5.65 5.83 6.08 6.35 6.59 6.83 7.14
2825.953 7.41 7.7 7.98 8.4 8.89 9.29 9.73 10.19 10.89 11.65
2845.242 12.48 13.42 14.43 15.66 17 18.53 20.43 22.54 24.98 27.72
2864.532 30.57 33.57 36.67 39.86 42.7 45.12 47.25 49 50.37 51.21
2883.822 51.63 51.81 51.61 51.21 50.9 50.74 50.76 50.95 51.28 51.81
2903.112 52.49 53.32 54.5 55.99 57.63 59.43 61.67 64.52 67.78 71.72
2922.401 76.01 79.85 83.07 85.51 87.32 88.48 88.76 88.11 86.51 83.83
2941.691 80.29 76.28 71.97 67.79 63.83 60.08 56.83 54.09 51.81 50.24
2960.981 49.37 49.1 49.75 51.06 52.88 55.57 59.06 63.22 67.87 72.52
2980.271 76.65 79.83 81.76 82.95 83.89 84.72 82.9 76.62 69.36 63.33
2999.561 58.32 53.78 49.4 45.5 42.35 40.06 38.32 36.78 35.59 34.81
3018.850 34.27 34.1 34.26 34.54 35.08 35.87 36.72 37.77 38.97 40.14
3038.140 41.39 42.58 43.49 44.36 45.09 45.41 45.34 44.79 43.64 41.99
3057.430 39.9 37.5 34.92 32.19 29.36 26.62 24 21.66 19.51 17.53
3076.720 15.8 14.04 12.44 11.07 9.79 8.7 7.96 7.42 6.95 6.67
3096.009 6.54 6.43 6.25 6.02 5.85 5.82 5.82 5.72 5.72 5.62
3115.299 5.45 5.38 5.28 5.07 4.74 4.62 4.61 4.34 4.09 4.04
3134.589 3.93 3.66 3.35 3.16 3.03 2.92 2.74 2.63 2.56 2.38
3153.879 2.21 2.23 2.23 2.05 1.95 2 1.93 1.83 1.77 1.78
3173.169 1.78 1.71 1.69 1.67 1.61 1.56 1.63 1.7 1.75 1.7
3192.458 1.67 1.81 1.79 1.63 1.58 1.69 1.73 1.63 1.74 1.87
3211.748 1.69 1.64 1.76 1.82 1.74 1.59 1.55 1.59 1.65 1.61
3231.038 1.58 1.68 1.56 1.44 1.42 1.25 1.21 1.25 1.16 1.08
3250.328 1.13 1.18 1.2 1.23 1.35 1.48 1.41 1.36 1.39 1.4
3269.617 1.42 1.42 1.4 1.39 1.32 1.24 1.43 1.59 1.58 1.5
3288.907 1.45 1.35 1.28 1.41 1.44 1.45 1.31 1.24 1.25 1.14
3308.197 1.13 1.17 1.15 1.01 1.07 1.15 1.05 0.9449 0.8484 0.8064
3327.487 0.8094 0.8212 0.8306 0.867 0.8683 0.8277 0.7139 0.64 0.81 0.8466
3346.777 0.7783 0.7797 0.7421 0.7273 0.6309 0.6807 0.7438 0.7959 0.7755 0.7233
3366.066 0.6879 0.4852 0.3665 0.5302 0.699 0.6485 0.5769 0.5793 0.5973 0.5967
3385.356 0.628 0.6047 0.5683 0.5257 0.5399 0.5011 0.5926 0.7432 0.5942 0.5931
3404.646 0.6391 0.5022 0.5583 0.7479 0.7726 0.6173 0.5989 0.7792 0.6337 0.4375
3423.936 0.4532 0.5421 0.674 0.6141 0.5827 0.6147 0.5798 0.5797 0.5464 0.5355
3443.225 0.664 0.7766 0.7051 0.5538 0.6487 0.6865 0.625 0.667 0.6655 0.6867
3462.515 0.8026 0.7851 0.6105 0.4921 0.5087 0.7052 0.7306 0.7428 0.75 0.6937
3481.805 0.7849 0.7984 0.8209 0.8388 0.8523 0.9546 0.9112 0.8567 0.9541 1.09
3501.095 1.17 1.24 1.24 1.18 1.23 1.19 1.19 1.36 1.57 1.65
3520.385 1.68 1.97 2.07 2.03 2.22 2.44 2.63 2.8 2.93 3.21
3539.674 3.72 4.24 4.64 5.2 5.95 6.76 7.77 9.02 10.6 12.53
3558.964 14.85 17.59 21.49 27.03 34.15 43.56 55.59 70.14 85.83 100.86
3578.254 114.39 126.1 135.71 141.98 143.53 139.97 131.61 119.75 105.77 90.99
3597.544 76.47 62.82 50.38 39.73 30.89 23.92 18.82 15.14 12.54 10.61
3616.833 9.01 7.68 6.69 6.15 5.66 5.03 4.53 4.17 4.13 4.21
3636.123 4.22 4.37 4.6 4.95 5.41 5.97 6.15 5.83 5.53 5.48
3655.413 5.52 5.23 4.55 3.83 3.19 2.61 2.21 1.98 1.53 1.24
3674.703 1.18 1.1 1.07 0.9839 0.8778 0.7456 0.7349 0.7902 0.8241 0.8335
3693.993 0.8099 0.8906 0.8329 0.8129 0.919 0.8088 0.6238 0.6824 0.8511 0.8626
3713.282 0.7951 0.701 0.6971 0.772 0.6758 0.5903 0.842 1.04 0.9089 0.8456
3732.572 0.9662 1.02 0.9031 0.8894 0.8358 0.7373 0.9445 0.9771 1.02 1.11
3751.862 0.9479 0.9317 1.07 1.12 1 0.8116 0.7498 0.9188 1 0.926
3771.152 0.93 0.9101 0.927 0.8775 0.8313 0.8047 0.6954 0.6228 0.6476 0.8108
3790.441 0.9092 0.9019 0.8295 0.8831 0.746 0.455 0.527 0.6607 0.7042 0.5926
3809.731 0.591 0.7923 0.794 0.7079 0.7396 0.8424 0.8111 0.7986 0.8449 0.8275
3829.021 0.8946 0.9072 0.9324 0.9613 0.8857 0.8796 0.9577 0.9483 0.9834 1.08
3848.311 1.06 1.15 1.17 1.23 1.34 1.37 1.52 1.46 1.34 1.53
3867.601 1.56 1.42 1.46 1.57 1.58 1.57 1.48 1.49 1.75 1.73
3886.890 1.63 1.61 1.53 1.49 1.41 1.25 1.19 1.27 1.29 1.26
3906.180 1.18 1.1 1.15 1.11 1.12 1.1 1 1.06 1.04 1.1
3925.470 1.1 1.08 1.13 1.08 1.17 1.19 1.07 1.02 1.03 1.04
3944.760 1.06 1.07 1.12 1.17 1.02 1.03 1.14 1.19 1.27 1.17
3964.049 1.18 1.11 1.08 1.07 1 1.15 1.35 1.38 1.31 1.36
3983.339 1.42 1.4 1.42 1.39 1.39 1.47 1.44 1.36 1.39 1.45
##END=
