##TITLE=trans-1,2-Bis(4-fluorobenzoyl)ethylene
##JCAMP-DX=4.24
##DATA TYPE=INFRARED SPECTRUM
##ORIGIN=EPA-IR VAPOR PHASE LIBRARY
##OWNER=SRD/NIST
Collection (C) 2018 copyright by the U.S. Secretary of Commerce
on behalf of the United States of America. All rights reserved.
##CAS REGISTRY NO=25650-13-9
##MOLFORM=C 16 H 10 F 2 O 2
##$NIST SOURCE=MSDC-IR
##STATE=gas
##XUNITS=1/CM
##YUNITS=ABSORBANCE
##XFACTOR=1.
##YFACTOR=0.001
##DELTAX=1.92898
##FIRSTX=549.8
##LASTX=4000.7
##FIRSTY=4.847
##MAXX=4000.7
##MINX=549.759
##MAXY=0.139817
##MINY=0
##NPOINTS=1790
##XYDATA=(X++(Y..Y))
549.759 4.847 5.427 6.487 7.737 9.167 11.207 13.977 17.157 19.147 20.307
569.049 22.407 23.167 22.917 23.847 25.317 26.627 28.647 29.957 29.327 27.467
588.339 23.997 19.737 15.767 12.677 10.717 9.577 8.707 8.407 8.037 7.407
607.628 6.557 5.647 5.277 5.337 4.507 3.267 3.487 3.567 3.297 3.207
626.918 3.067 3.017 3.027 2.957 2.687 2.437 2.447 2.877 2.827 2.717
646.208 2.527 2.027 2.087 2.487 2.237 1.5544 1.627 1.837 1.857 1.777
665.498 1.5228 1.837 2.217 2.137 2.317 2.777 3.077 3.247 3.287 3.557
684.787 3.987 4.517 4.507 3.877 3.787 3.577 2.927 2.537 2.617 2.737
704.077 2.647 2.607 2.437 2.357 2.317 2.317 2.617 2.697 2.687 3.017
723.367 3.477 3.457 3.387 3.617 3.867 4.237 4.207 3.757 3.727 3.937
742.657 4.127 4.777 5.767 6.547 7.487 9.077 10.697 11.697 12.227 12.687
761.947 12.727 11.967 10.307 8.517 7.577 6.217 5.367 5.207 4.537 4.017
781.236 3.627 3.697 3.807 4.047 4.517 4.407 4.307 4.827 5.317 5.907
800.526 6.937 7.947 8.907 10.097 10.847 11.227 12.087 12.487 12.567 12.647
819.816 13.157 13.447 13.247 13.777 15.457 17.917 20.267 23.967 27.707 30.557
839.106 32.967 34.267 34.787 34.897 34.797 33.427 30.357 26.567 22.777 19.087
858.395 15.797 13.247 11.357 9.797 8.367 7.437 6.377 5.747 5.637 5.407
877.685 5.137 4.577 4.317 4.127 3.867 3.857 3.957 3.657 3.227 3.297
896.975 3.457 3.337 2.587 2.137 2.397 2.537 2.637 2.517 2.507 2.847
916.265 3.217 3.087 2.607 2.447 2.587 2.697 2.887 3.057 3.077 2.997
935.555 3.127 3.367 3.647 3.547 3.597 3.977 4.017 4.487 4.817 5.207
954.844 5.997 6.817 7.927 8.957 9.697 10.877 11.797 12.337 12.567 12.757
974.134 12.997 12.547 11.927 11.217 10.917 10.667 10.007 9.497 9.147 9.127
993.424 9.227 9.847 10.647 11.407 13.077 15.637 19.107 24.057 30.017 34.557
1012.714 37.547 38.697 37.787 37.277 38.767 40.187 39.277 35.767 30.727 25.387
1032.003 20.617 17.587 15.157 13.687 12.857 11.697 11.397 11.297 10.477 9.597
1051.293 9.487 8.727 7.487 7.987 8.217 7.997 8.367 8.257 7.967 7.517
1070.583 7.047 6.387 5.827 4.907 3.817 3.537 3.397 3.397 3.667 4.477
1089.873 4.677 4.017 3.837 4.597 4.467 4.847 6.137 6.077 6.067 5.547
1109.163 4.077 2.857 2.877 3.147 3.167 3.347 3.357 3.287 3.607 3.767
1128.452 4.057 4.397 4.567 4.687 5.537 6.297 7.287 9.287 11.077 14.767
1147.742 21.277 33.057 54.647 82.977 101.757 102.747 85.967 57.377 34.617 22.547
1167.032 16.547 13.227 11.637 11.717 11.807 12.757 14.797 18.397 23.097 28.407
1186.322 34.297 39.477 42.517 41.917 39.117 34.037 29.297 27.457 24.077 21.217
1205.611 19.677 18.417 17.887 17.497 19.097 21.537 23.757 25.437 26.757 29.357
1224.901 34.337 39.787 45.487 52.907 63.597 77.767 94.607 113.747 130.767 139.817
1244.191 137.467 123.137 103.357 84.827 71.127 62.947 59.027 58.217 59.117 59.847
1263.481 59.937 59.807 58.957 57.427 55.897 54.737 54.347 55.447 57.867 61.917
1282.771 67.537 74.637 83.427 93.027 100.707 103.087 98.687 89.387 79.787 76.487
1302.060 81.257 89.907 98.197 102.597 101.457 94.657 84.137 72.737 61.847 52.097
1321.350 43.697 36.587 30.757 26.027 22.237 19.297 16.997 15.247 13.877 12.847
1340.640 12.127 11.637 11.187 10.807 10.667 10.487 10.187 9.567 8.787 8.037
1359.930 7.317 6.767 6.257 5.857 5.557 5.347 5.257 5.157 4.927 4.887
1379.219 5.017 5.097 5.157 5.327 5.627 5.857 6.197 6.847 7.747 9.047
1398.509 10.987 13.657 16.897 20.627 23.957 25.487 24.627 21.617 17.507 13.567
1417.799 10.647 8.727 7.417 6.527 5.937 5.387 4.957 4.597 4.237 4.077
1437.089 3.997 3.867 3.657 3.577 3.627 3.557 3.547 3.737 3.917 4.027
1456.378 4.027 4.017 4.107 4.267 4.467 4.567 4.677 4.827 4.977 5.257
1475.668 5.487 5.787 6.137 6.467 7.087 7.797 8.587 9.757 11.157 12.837
1494.958 15.197 18.467 22.487 27.207 32.857 38.627 43.037 44.497 41.997 36.057
1514.248 28.677 21.777 16.227 12.437 9.787 7.897 6.767 5.937 5.247 4.797
1533.538 4.487 4.137 4.157 4.337 4.457 4.647 4.637 4.587 4.727 4.897
1552.827 5.037 5.337 5.587 5.877 6.227 6.607 7.107 7.867 8.807 9.947
1572.117 11.517 13.487 16.037 19.287 23.437 28.657 35.037 43.177 53.487 65.537
1591.407 78.457 91.217 102.087 109.177 110.867 106.357 96.327 82.207 66.967 53.357
1610.697 42.787 35.167 29.737 25.537 22.107 19.467 17.197 15.357 13.947 12.807
1629.986 11.937 11.417 11.097 10.917 10.837 10.857 11.117 11.507 12.087 12.637
1649.276 12.987 13.647 14.627 15.887 17.507 19.587 22.437 26.597 32.497 40.167
1668.566 49.887 61.337 72.887 82.777 89.647 91.947 89.047 82.327 73.177 62.967
1687.856 53.457 44.897 37.627 31.757 26.877 22.827 19.627 16.797 14.487 12.467
1707.146 10.707 9.147 8.017 7.247 6.527 6.067 5.707 5.127 4.617 4.267
1726.435 4.017 3.777 3.667 3.597 3.307 3.147 3.057 2.967 2.997 2.957
1745.725 2.887 2.887 2.967 2.937 2.777 2.787 2.757 2.697 2.737 2.687
1765.015 2.667 2.797 2.797 2.867 3.167 3.167 2.937 2.697 2.627 2.537
1784.305 2.287 2.127 1.907 1.827 1.917 1.927 1.787 1.697 1.707 1.657
1803.594 1.677 1.6158 1.4823 1.5243 1.5593 1.6011 1.737 1.637 1.3783 1.3089
1822.884 1.4229 1.4803 1.4228 1.381 1.3755 1.4465 1.522 1.3839 1.2764 1.4103
1842.174 1.6134 1.647 1.5601 1.5844 1.5649 1.5256 1.4431 1.3212 1.2801 1.3329
1861.464 1.4297 1.4643 1.3608 1.2773 1.3671 1.3784 1.4108 1.637 1.817 1.827
1880.754 1.887 2.067 2.097 2.007 2.047 2.177 2.167 2.027 1.957 2.107
1900.043 2.227 2.207 2.237 2.277 2.347 2.307 2.267 2.187 2.057 2.037
1919.333 1.967 1.907 1.817 1.837 1.907 1.807 1.677 1.5455 1.4623 1.4892
1938.623 1.457 1.3387 1.3854 1.4974 1.4584 1.295 1.2096 1.2504 1.2791 1.2624
1957.913 1.3905 1.4514 1.3884 1.4214 1.3987 1.4117 1.4169 1.3691 1.3878 1.4062
1977.202 1.3592 1.406 1.3244 1.3294 1.4095 1.3787 1.4351 1.3779 1.276 1.2832
1996.492 1.2559 1.2494 1.1948 1.0802 1.0921 1.1253 1.1105 1.1287 1.1473 1.1303
2015.782 1.2058 1.3046 1.3449 1.3301 1.2989 1.1935 1.155 1.2019 1.2449 1.2613
2035.072 1.3265 1.2789 1.2598 1.3317 1.5045 1.5878 1.4261 1.4079 1.4317 1.4806
2054.362 1.4976 1.5075 1.4436 1.4135 1.5028 1.4444 1.4753 1.5542 1.4313 1.4778
2073.651 1.5364 1.3875 1.3135 1.342 1.3061 1.1482 0.9885 0.9422 1.0034 0.9243
2092.941 0.8891 1.0281 0.99 0.8436 0.8956 1.0962 1.1563 0.9575 0.7897 0.8795
2112.231 0.9369 0.9388 0.8341 0.67967 0.7189 0.7642 0.8753 0.8939 0.8108 0.8716
2131.521 0.8623 0.7988 0.7683 0.625726 0.68878 0.8865 0.9676 0.8567 0.7295 0.7551
2150.810 0.7309 0.8665 0.9241 0.8108 0.7495 0.70831 0.8302 0.8033 0.69094 0.67725
2170.100 0.6776 0.7258 0.69637 0.67305 0.7292 0.67496 0.617337 0.6774 0.69517 0.66637
2189.390 0.66003 0.7676 0.8542 0.8258 0.744 0.69818 0.7803 0.7917 0.7618 0.7874
2208.680 0.7789 0.7231 0.7401 0.8203 0.7884 0.7675 0.7351 0.70098 0.7636 0.68479
2227.970 0.65258 0.7851 0.8216 0.9124 1.0264 0.9103 0.8013 0.8765 0.8411 0.7496
2247.259 0.8848 0.9491 0.9809 1.106 0.9972 1.0454 1.2784 1.1803 1.068 1.1476
2266.549 1.2064 1.1372 1.0456 1.0808 1.0839 1.0502 0.979 0.8487 0.8645 0.8831
2285.839 0.8189 0.8763 0.8629 0.8827 0.9565 0.8779 0.8635 0.8925 0.9313 0.9353
2305.129 0.8524 0.8132 0.9219 1.0117 0.9779 0.9574 1.0925 1.1577 0.997 0.9645
2324.418 0.9092 0.91 0.9904 1.0072 0.8874 0.8221 0.8615 0.7809 0.7821 0.9188
2343.708 0.9109 0.8979 0.9677 0.897 0.8277 0.8352 0.859 0.8716 0.9259 0.9374
2362.998 0.8637 0.879 0.8902 0.7791 0.8239 0.7573 0.7183 1.0046 1.151 1.1678
2382.288 1.1363 1.0842 1.109 1.125 1.2267 1.3295 1.4745 1.5516 1.5074 1.5799
2401.578 1.5603 1.5384 1.5473 1.5858 1.6001 1.4275 1.521 1.657 1.617 1.627
2420.867 1.5922 1.5387 1.5426 1.627 1.647 1.6076 1.417 1.4075 1.4923 1.5216
2440.157 1.4755 1.3149 1.3346 1.219 1.2266 1.2946 1.25 1.2663 1.3026 1.3354
2459.447 1.3388 1.2689 1.3503 1.3923 1.2849 1.356 1.3936 1.5107 1.5752 1.627
2478.737 1.657 1.4937 1.4698 1.4321 1.3026 1.3296 1.3406 1.2737 1.1349 1.0229
2498.026 1.0456 1.0326 1.0005 1.0814 1.0361 0.9688 1.0717 1.1126 1.2165 1.2121
2517.316 1.2531 1.2696 1.0772 1.041 0.9471 1.0185 1.2496 1.2962 1.2854 1.229
2536.606 1.2733 1.2776 1.163 1.1 1.0686 0.9961 0.9756 1.1318 1.1569 1.2106
2555.896 1.3336 1.3166 1.2952 1.343 1.4102 1.5491 1.697 1.717 1.737 1.637
2575.186 1.6123 1.787 1.967 2.047 1.957 1.907 1.957 1.917 1.897 1.877
2594.475 1.777 1.737 1.707 1.606 1.5171 1.3141 1.149 1.1703 1.2114 1.1346
2613.765 1.0485 0.9719 0.9074 0.9942 0.9789 1.0131 1.1049 1.1241 1.197 1.1811
2633.055 1.0684 1.0551 1.011 0.9375 0.8934 0.9487 1.0494 0.9997 1.0321 1.0499
2652.345 0.962 0.8817 0.7857 0.8984 0.9369 0.8808 0.9156 0.8497 0.991 1.0585
2671.634 0.9622 0.915 0.8434 0.8804 0.9212 0.9745 0.8337 0.8186 0.998 0.9638
2690.924 0.8139 0.8276 0.9626 1.0189 1.0492 0.9668 0.8232 0.7821 0.869 1.0178
2710.214 1.1131 1.2295 1.1559 0.9312 0.8407 0.9565 1.0499 0.9285 0.9688 1.0069
2729.504 0.984 1.0783 1.2941 1.1794 0.9346 1.1052 1.0921 0.9208 0.8914 1.1067
2748.794 1.3047 1.1747 1.1495 1.1704 0.9781 0.9266 0.9632 1.0105 1.115 0.8836
2768.083 0.7417 0.7518 0.828 0.9225 0.8666 0.8776 1.0517 1.0742 0.9757 1.0419
2787.373 1.1318 1.1464 1.1386 1.0555 0.8818 0.8958 0.938 0.9275 0.9255 0.8706
2806.663 0.8288 0.7658 0.65764 0.7192 0.914 0.9251 0.8361 0.7563 0.7224 0.8576
2825.953 0.8424 0.829 0.8985 0.8017 0.8484 0.9044 0.8628 0.8641 0.8694 0.9177
2845.242 0.8253 0.7369 0.66156 0.5643 0.65171 0.8017 0.7674 0.7543 0.8956 0.9062
2864.532 0.8007 0.8023 0.9246 0.8393 0.8563 1.0466 1.0516 0.8979 0.9128 1.1135
2883.822 1.0739 0.9389 0.8366 0.7658 0.7777 0.8564 0.9438 0.8776 0.70645 0.6917
2903.112 0.70655 0.70873 0.6446 0.60782 0.619884 0.66109 0.504 0.43 0.68087 0.67098
2922.401 0.617394 0.5772 0.5823 0.63858 0.66743 0.7358 0.8126 0.769 0.68017 0.6743
2941.691 0.68408 0.60777 0.67009 0.8477 0.7428 0.737 0.66359 0.5892 0.6025 0.7181
2960.981 0.7419 0.63646 0.68667 0.62904 0.5763 0.65396 0.8211 0.66049 0.5297 0.618766
2980.271 0.67263 0.67852 0.7358 0.9452 1.0712 1.0496 0.9375 0.9424 1.0539 1.249
2999.561 1.242 0.9552 0.8882 1.0212 1.0078 1.0228 1.2518 1.1888 1.0037 1.1378
3018.850 1.183 1.2 1.252 1.3195 1.2655 1.2722 1.5972 1.747 1.5583 1.4804
3038.140 1.897 2.237 2.377 2.567 2.797 3.257 3.997 4.487 4.787 5.087
3057.430 5.117 4.787 4.337 4.187 4.197 4.277 4.277 3.977 3.587 3.487
3076.720 3.807 4.357 4.747 5.137 5.117 4.557 3.947 3.117 2.477 2.277
3096.009 2.097 2.187 2.177 2.077 2.067 2.067 2.277 2.137 2.087 2.097
3115.299 1.917 1.897 1.727 1.4216 1.3283 1.2143 1.094 1.23 1.229 1.0987
3134.589 1.0899 1.0106 1.0782 1.0385 0.795 0.8822 1.0496 1.0256 1.0062 0.8633
3153.879 0.5347 0.536 0.8891 1.0302 1.0776 1.0166 0.8697 0.7962 0.8581 1.0126
3173.169 1.0509 0.865 0.9371 1.0104 0.8887 1.0806 1.0577 0.8284 0.7981 0.8163
3192.458 0.7604 0.726 0.63547 0.61306 0.68464 0.63186 0.68289 0.63221 0.47 0.487
3211.748 0.517 0.65125 0.71464 0.63542 0.68235 0.9275 1.022 0.8522 0.7854 0.9076
3231.038 0.9149 0.7809 0.7332 0.5629 0.5413 0.7228 0.6056 0.5506 0.7194 0.68527
3250.328 0.7227 0.8719 0.9278 0.85 0.746 0.7048 0.5997 0.71389 0.7447 0.68617
3269.617 0.71068 0.7626 0.7395 0.456 0.495 0.7771 0.8095 0.7927 0.9746 1.0606
3288.907 0.912 0.9936 1.0812 1.005 1.248 1.3703 1.1107 0.9513 0.9141 0.9785
3308.197 1.0459 1.1548 1.1561 1.0326 1.0624 1.2066 1.2364 1.1822 1.2633 1.4011
3327.487 1.3915 1.2316 1.2354 1.357 1.4668 1.637 1.657 1.807 1.787 1.857
3346.777 1.847 1.3978 1.4861 1.757 1.6078 1.647 1.757 1.647 1.627 1.5244
3366.066 1.4211 1.1543 0.7213 0.7995 1.1148 1.1535 1.1641 1.1724 1.2793 1.0293
3385.356 0.8139 0.8891 0.8464 0.855 1.0744 1.0678 0.7957 0.64226 0.418 0.434
3404.646 0.62856 0.69432 0.491 0.262 0.409 0.61505 0.618534 0.536 0.471 0.5352
3423.936 0.445 0.256 0.356 0.5766 0.71564 0.63366 0.5556 0.5851 0.745 0.8382
3443.225 0.8269 0.7665 0.70987 0.7303 0.5619 0.469 0.5279 0.481 0.5225 0.509
3462.515 0.5248 0.64347 0.491 0.322 0.44 0.622924 0.71247 0.72 0.8687 0.9465
3481.805 0.7797 0.771 0.7702 0.8062 0.6555 0.457 0.37 0.474 0.5757 0.64276
3501.095 0.486 0.265 0.414 0.442 0.5304 0.493 0.334 0.449 0.5348 0.403
3520.385 0.6026 0.62445 0.34 0.427 0.5255 0.5941 0.512 0.456 0.547 0.395
3539.674 0.449 0.516 0.405 0.64048 0.8265 0.353 0.132 0.358 0.54 0.626478
3558.964 0.325 0.234 0.263 0.303 0.5222 0.459 0.202 0.418 0.7172 0.66232
3578.254 0.8672 1.1311 1.0095 0.803 0.5987 0.7471 0.96 0.7751 0.65028 0.5653
3597.544 0.5415 0.6024 0.8082 0.8917 0.5746 0.408 0.458 0.67981 0.7382 0.503
3616.833 0.403 0.492 0.5854 0.5512 0.67053 0.6006 0.624 0.67725 0.223 0.128
3636.123 0.374 0.482 0.491 0.384 0.343 0.485 0.5655 0.42 0.313 0.428
3655.413 0.5235 0.5929 0.65964 0.5931 0.5785 0.71172 0.7902 0.70058 0.9743 1.2357
3674.703 0.9634 0.62854 0.404 0.454 0.8254 0.8697 0.7912 0.9469 1.0582 0.7939
3693.993 0.504 0.64819 0.67719 0.6784 0.5918 0.336 0.401 0.503 0.64793 0.70423
3713.282 0.69052 0.8468 0.9457 1.0094 1.0738 0.965 0.67868 0.7174 0.7451 0.269
3732.572 0.185 0.408 0.461 0.463 0.417 0.63559 0.7295 0.5654 0.5604 0.5184
3751.862 0.5447 0.8033 0.8396 0.7629 0.9137 1.0476 0.7199 0.378 0.407 0.5206
3771.152 0.5867 0.66102 0.61549 0.394 0.317 0.381 0.459 0.45 0.226 0.278
3790.441 0.64543 0.7275 0.5689 0.442 0.399 0.5256 0.68837 0.8818 0.7719 0.7861
3809.731 0.9767 0.7547 0.69553 0.481 0.3 0.5644 0.70596 0.5535 0.445 0.464
3829.021 0.511 0.5899 0.5705 0.5594 0.5473 0.5873 0.5493 0.366 0.036 0
3848.311 0.202 0.407 0.65538 0.68869 0.7384 0.64673 0.6013 0.68356 0.7779 0.7276
3867.601 0.68865 0.5769 0.39 0.5867 0.795 0.68091 0.455 0.482 0.534 0.495
3886.890 0.516 0.341 0.49 0.8389 0.5417 0.44 0.67024 0.69299 0.66911 0.7307
3906.180 0.7906 0.63788 0.504 0.34 0.247 0.432 0.427 0.276 0.373 0.54
3925.470 0.5599 0.7772 0.8229 0.63802 0.618822 0.478 0.29 0.411 0.61268 0.5191
3944.760 0.358 0.48 0.516 0.406 0.5672 0.7427 0.503 0.435 0.496 0.5684
3964.049 0.7759 0.849 0.7804 0.431 0.63818 0.65128 0.342 0.201 0.184 0.32
3983.339 0.25 0.353 0.69268 0.7673 0.483 0.364 0.56 0.5879 0.467 0.5854
##END=
