##TITLE=Methyl m-tolyl carbinol
##JCAMP-DX=4.24
##DATA TYPE=INFRARED SPECTRUM
##ORIGIN=EPA-IR VAPOR PHASE LIBRARY
##OWNER=SRD/NIST
Collection (C) 2018 copyright by the U.S. Secretary of Commerce
on behalf of the United States of America. All rights reserved.
##CAS REGISTRY NO=25675-28-9
##MOLFORM=C 9 H 12 O
##$NIST SOURCE=MSDC-IR
##STATE=gas
##XUNITS=1/CM
##YUNITS=ABSORBANCE
##XFACTOR=1.
##YFACTOR=0.001
##DELTAX=1.92934
##FIRSTX=549.9
##LASTX=3999.5
##FIRSTY=1.2728
##MAXX=3999.53
##MINX=549.863
##MAXY=0.026777
##MINY=0
##NPOINTS=1789
##XYDATA=(X++(Y..Y))
549.863 1.2728 1.2517 1.3338 1.4195 1.3994 1.3548 1.4364 1.6635 1.5892 1.3509
569.156 1.3282 1.3962 1.3721 1.3083 1.3918 1.6247 1.6175 1.5902 1.5645 1.4953
588.450 1.5775 1.5247 1.543 1.6858 1.7777 1.8949 2.007 2.067 2.047 2.067
607.743 2.177 2.237 2.367 2.607 2.757 2.707 2.627 2.607 2.547 2.467
627.037 2.407 2.267 2.077 1.897 1.7513 1.6253 1.5516 1.4774 1.4458 1.4592
646.330 1.3193 1.2177 1.2948 1.3335 1.3072 1.3613 1.3886 1.3734 1.4821 1.5036
665.624 1.506 1.5374 1.6001 1.793 2.007 2.157 2.427 2.847 3.287 3.967
684.917 4.827 5.767 6.827 7.917 9.057 10.337 11.547 12.927 14.657 16.167
704.210 16.217 14.697 13.277 12.287 11.157 10.057 9.027 7.907 6.877 5.957
723.504 5.147 4.417 3.837 3.497 3.237 3.047 2.917 2.797 2.687 2.607
742.797 2.557 2.507 2.547 2.677 2.837 2.917 3.057 3.317 3.667 4.167
762.091 4.797 5.597 6.617 7.727 8.867 10.057 11.277 12.597 14.047 15.557
781.384 16.887 17.387 16.427 14.667 13.107 11.757 10.497 9.347 8.127 6.867
800.678 5.757 4.767 3.937 3.407 2.957 2.547 2.297 2.127 1.997 1.907
819.971 1.8638 1.7982 1.7525 1.8132 1.937 1.997 2.077 2.237 2.457 2.687
839.264 2.987 3.487 4.077 4.637 5.197 5.727 6.107 6.437 6.647 6.717
858.558 6.777 6.707 6.467 6.127 5.747 5.457 5.267 5.177 5.177 5.167
877.851 5.107 5.037 4.987 4.917 4.787 4.667 4.567 4.517 4.567 4.647
897.145 4.807 5.027 5.217 5.267 5.417 5.727 5.997 6.207 6.377 6.537
916.438 6.677 6.767 6.697 6.577 6.377 6.017 5.597 5.177 4.777 4.407
935.732 3.987 3.637 3.367 3.107 2.987 2.907 2.777 2.747 2.767 2.767
955.025 2.767 2.827 2.897 2.957 3.097 3.267 3.397 3.527 3.757 3.967
974.318 4.167 4.407 4.657 4.977 5.337 5.677 6.107 6.577 7.027 7.407
993.612 7.877 8.467 8.987 9.437 9.807 10.187 10.507 10.717 10.857 10.897
1012.905 10.807 10.587 10.307 9.997 9.697 9.317 8.947 8.657 8.397 8.177
1032.199 8.037 7.997 8.057 8.297 8.597 8.967 9.497 10.077 10.647 11.347
1051.492 12.047 12.727 13.477 14.227 15.007 15.727 16.457 17.267 18.057 18.877
1070.786 19.617 20.277 21.017 21.577 21.917 22.147 22.107 21.827 21.367 20.757
1090.079 19.877 18.887 17.887 16.817 15.827 14.857 13.847 12.887 11.997 11.107
1109.372 10.227 9.467 8.787 8.147 7.577 6.967 6.487 6.037 5.637 5.397
1128.666 5.267 5.197 5.237 5.247 5.257 5.517 5.777 6.197 6.707 7.217
1147.959 7.937 8.677 9.157 9.367 9.487 9.507 9.447 9.227 8.997 8.597
1167.253 7.877 7.247 6.677 6.227 5.877 5.567 5.287 4.957 4.687 4.567
1186.546 4.527 4.567 4.607 4.567 4.547 4.727 4.997 5.017 5.027 4.977
1205.840 5.077 5.457 5.617 5.567 5.657 5.907 6.067 6.087 6.077 6.217
1225.133 6.577 6.907 7.307 7.717 7.957 8.427 8.967 9.347 9.677 10.057
1244.426 10.477 10.747 10.947 11.227 11.287 11.117 10.937 10.667 10.407 10.177
1263.720 9.957 9.797 9.727 9.807 9.797 9.817 9.837 9.827 9.707 9.487
1283.013 9.417 9.267 8.887 8.517 8.167 7.837 7.687 7.547 7.467 7.447
1302.307 7.437 7.427 7.447 7.437 7.387 7.377 7.447 7.527 7.517 7.537
1321.600 7.657 7.837 8.137 8.457 8.767 9.157 9.597 10.107 10.577 11.017
1340.894 11.447 11.817 12.227 12.597 12.807 12.977 13.047 13.037 13.007 12.967
1360.187 12.947 12.887 12.817 12.737 12.707 12.807 12.987 13.147 13.227 13.137
1379.480 12.897 12.537 12.057 11.527 10.887 10.177 9.507 8.807 8.137 7.577
1398.774 7.127 6.737 6.467 6.247 6.017 5.887 5.857 5.827 5.817 5.857
1418.067 5.917 5.967 6.047 6.187 6.387 6.637 6.917 7.247 7.607 7.927
1437.361 8.157 8.377 8.547 8.627 8.657 8.697 8.617 8.477 8.297 8.107
1456.654 7.907 7.587 7.357 7.187 7.057 6.987 6.917 6.887 6.967 7.107
1475.948 7.277 7.557 7.827 8.097 8.307 8.367 8.277 8.127 7.917 7.587
1495.241 7.187 6.727 6.167 5.617 5.097 4.667 4.347 4.017 3.777 3.627
1514.534 3.517 3.477 3.367 3.347 3.327 3.237 3.257 3.187 3.127 3.097
1533.828 3.007 2.947 2.887 2.767 2.717 2.667 2.547 2.517 2.547 2.527
1553.121 2.477 2.447 2.477 2.537 2.547 2.627 2.707 2.747 2.837 2.977
1572.415 3.147 3.347 3.527 3.717 3.897 4.077 4.347 4.687 5.047 5.367
1591.708 5.787 6.277 6.777 7.357 7.867 8.287 8.627 8.747 8.597 8.307
1611.002 7.857 7.327 6.767 6.017 5.197 4.417 3.677 3.107 2.637 2.257
1630.295 1.977 1.7734 1.6782 1.5541 1.4546 1.409 1.3281 1.2639 1.2201 1.2295
1649.588 1.2117 1.2083 1.2117 1.1354 1.1217 1.1523 1.2116 1.2533 1.292 1.3541
1668.882 1.4019 1.4363 1.4292 1.4732 1.5318 1.5813 1.6299 1.6275 1.6055 1.5562
1688.175 1.5407 1.5006 1.4028 1.3473 1.3195 1.1926 1.0779 1.0138 0.9934 0.95399
1707.469 0.90012 0.89514 0.8603 0.8615 0.902545 0.88858 0.8428 0.8685 0.9084 0.896054
1726.762 0.8783 0.8865 0.91416 0.98152 1.0438 1.0308 1.0493 1.1204 1.1638 1.1798
1746.056 1.2144 1.2767 1.3602 1.3716 1.3167 1.3413 1.3737 1.4172 1.4334 1.4357
1765.349 1.4589 1.4822 1.5326 1.5614 1.5672 1.5755 1.5722 1.5831 1.5601 1.5537
1784.642 1.5403 1.4428 1.399 1.3708 1.3227 1.2441 1.1594 1.1023 1.1 1.1108
1803.936 1.0502 0.98752 0.95269 0.95815 0.96722 0.92351 0.904431 0.92023 0.93519 0.96983
1823.229 0.99426 1.0278 1.0489 1.0635 1.0935 1.1408 1.1583 1.1661 1.2287 1.3004
1842.523 1.376 1.4177 1.4255 1.4519 1.4584 1.4774 1.5556 1.6348 1.666 1.6628
1861.816 1.6704 1.6638 1.611 1.5628 1.5411 1.4609 1.3761 1.316 1.2027 1.1351
1881.110 1.0554 0.97124 0.95981 0.89296 0.8389 0.8283 0.8257 0.8053 0.785 0.8229
1900.403 0.8525 0.8588 0.8643 0.8647 0.94742 1.0412 1.0568 1.0735 1.1436 1.2334
1919.696 1.3004 1.3625 1.434 1.5261 1.5561 1.5578 1.619 1.6496 1.5984 1.5316
1938.990 1.4647 1.4241 1.3609 1.2641 1.1712 1.1114 1.0724 1.0079 0.91619 0.8705
1958.283 0.8652 0.8645 0.8379 0.755 0.715 0.722 0.706 0.669 0.69 0.71
1977.577 0.717 0.745 0.776 0.734 0.692 0.74 0.717 0.659 0.664 0.662
1996.870 0.644 0.653 0.689 0.716 0.724 0.695 0.69 0.722 0.707 0.66
2016.164 0.638 0.645 0.678 0.685 0.701 0.698 0.644 0.618 0.588 0.573
2035.457 0.571 0.593 0.608 0.616 0.618 0.58 0.564 0.565 0.604 0.648
2054.750 0.595 0.579 0.617 0.572 0.538 0.584 0.626 0.621 0.651 0.645
2074.044 0.554 0.544 0.618 0.651 0.589 0.576 0.615 0.623 0.581 0.571
2093.337 0.608 0.617 0.631 0.6 0.605 0.613 0.585 0.595 0.613 0.621
2112.631 0.588 0.583 0.581 0.561 0.558 0.554 0.537 0.556 0.578 0.577
2131.924 0.559 0.542 0.559 0.573 0.571 0.555 0.567 0.581 0.567 0.564
2151.218 0.575 0.559 0.566 0.577 0.551 0.553 0.589 0.618 0.603 0.567
2170.511 0.567 0.577 0.595 0.585 0.583 0.599 0.599 0.603 0.596 0.574
2189.804 0.564 0.565 0.58 0.605 0.574 0.575 0.617 0.627 0.619 0.584
2209.098 0.58 0.579 0.595 0.644 0.619 0.613 0.655 0.657 0.617 0.635
2228.391 0.669 0.667 0.687 0.706 0.682 0.668 0.677 0.668 0.699 0.699
2247.685 0.67 0.669 0.68 0.695 0.654 0.651 0.713 0.69 0.667 0.663
2266.978 0.633 0.645 0.65 0.643 0.631 0.62 0.644 0.626 0.627 0.655
2286.272 0.668 0.683 0.653 0.627 0.655 0.681 0.686 0.695 0.717 0.727
2305.565 0.682 0.684 0.696 0.708 0.73 0.707 0.652 0.653 0.687 0.668
2324.858 0.699 0.742 0.74 0.749 0.75 0.754 0.768 0.748 0.787 0.8349
2344.152 0.782 0.794 0.8392 0.784 0.745 0.72 0.686 0.699 0.718 0.721
2363.445 0.702 0.694 0.725 0.712 0.699 0.72 0.685 0.679 0.702 0.74
2382.739 0.771 0.743 0.744 0.756 0.745 0.746 0.769 0.719 0.721 0.8184
2402.032 0.8364 0.8002 0.777 0.76 0.796 0.8248 0.8049 0.8081 0.788 0.783
2421.326 0.78 0.745 0.732 0.743 0.775 0.806 0.8273 0.8316 0.787 0.744
2440.619 0.743 0.758 0.781 0.802 0.789 0.792 0.8065 0.798 0.763 0.769
2459.912 0.791 0.8326 0.8464 0.772 0.758 0.769 0.761 0.787 0.786 0.753
2479.206 0.746 0.774 0.785 0.782 0.777 0.737 0.755 0.8091 0.756 0.756
2498.499 0.8024 0.758 0.729 0.758 0.7996 0.764 0.706 0.692 0.734 0.779
2517.793 0.757 0.725 0.718 0.72 0.711 0.701 0.674 0.627 0.687 0.694
2537.086 0.656 0.699 0.724 0.711 0.721 0.758 0.748 0.722 0.709 0.727
2556.380 0.732 0.706 0.707 0.713 0.727 0.751 0.77 0.77 0.788 0.789
2575.673 0.78 0.8278 0.8355 0.8161 0.8243 0.8434 0.8725 0.8841 0.9195 0.92966
2594.966 0.9267 0.95266 0.93061 0.95855 0.99344 0.9999 0.97089 0.93816 0.92824 0.90745
2614.260 0.94636 0.94623 0.91252 0.90715 0.90925 0.89371 0.8629 0.8617 0.837 0.772
2633.553 0.758 0.8568 0.8864 0.8702 0.8583 0.8621 0.8769 0.8439 0.8321 0.8107
2652.847 0.752 0.75 0.786 0.8464 0.8585 0.817 0.786 0.76 0.8041 0.821
2672.140 0.775 0.787 0.8613 0.8224 0.761 0.76 0.738 0.758 0.782 0.8031
2691.434 0.8176 0.8258 0.788 0.8049 0.8797 0.8466 0.8141 0.8696 0.8934 0.8762
2710.727 0.900978 0.899622 0.90719 0.91374 0.97085 1.046 1.0508 0.9984 1.0481 1.1998
2730.020 1.2434 1.255 1.24 1.2534 1.3416 1.4097 1.4395 1.3919 1.3547 1.3723
2749.314 1.3819 1.3566 1.2981 1.2487 1.2109 1.1367 1.1177 1.128 1.1085 1.0821
2768.607 1.0832 1.131 1.1986 1.1929 1.1446 1.1474 1.1874 1.2713 1.2251 1.1546
2787.901 1.2109 1.2327 1.2749 1.3565 1.4064 1.4167 1.4607 1.5422 1.5864 1.6216
2807.194 1.6996 1.8075 1.8254 1.8844 1.997 2.047 2.087 2.157 2.257 2.367
2826.488 2.467 2.557 2.697 2.847 3.017 3.177 3.297 3.497 3.737 4.027
2845.781 4.337 4.607 4.977 5.377 5.837 6.417 6.977 7.637 8.397 9.227
2865.074 10.147 11.067 11.987 12.757 13.477 14.267 14.977 15.527 15.897 16.107
2884.368 16.167 16.157 16.067 15.907 15.747 15.637 15.437 15.297 15.197 15.057
2903.661 14.967 14.897 14.937 15.037 15.197 15.397 15.697 16.207 16.877 17.587
2922.955 18.327 18.997 19.577 20.037 20.287 20.277 20.127 19.787 19.127 18.327
2942.248 17.357 16.357 15.367 14.377 13.537 12.857 12.447 12.227 12.207 12.347
2961.542 12.817 13.577 14.597 15.917 17.467 19.187 21.137 23.157 24.797 26.067
2980.835 26.767 26.777 26.287 25.537 24.447 22.757 20.747 18.557 16.307 14.487
3000.128 13.257 12.397 11.847 11.617 11.617 11.727 11.917 12.277 12.797 13.247
3019.422 13.857 14.657 15.237 15.747 16.187 16.447 16.557 16.617 16.577 16.357
3038.715 16.047 15.567 15.117 14.757 14.327 13.977 13.747 13.697 13.697 13.577
3058.009 13.437 13.327 13.047 12.627 12.227 11.667 11.017 10.327 9.477 8.737
3077.302 8.037 7.347 6.627 5.967 5.567 5.127 4.707 4.427 4.127 3.897
3096.596 3.807 3.687 3.557 3.477 3.317 3.037 2.847 2.727 2.567 2.497
3115.889 2.267 1.947 1.794 1.5756 1.3176 1.1774 0.94967 0.901221 0.95032 0.732
3135.182 0.614 0.654 0.676 0.737 0.657 0.507 0.564 0.665 0.71 0.609
3154.476 0.506 0.492 0.479 0.425 0.342 0.402 0.482 0.473 0.528 0.49
3173.769 0.433 0.503 0.523 0.405 0.407 0.371 0.306 0.331 0.281 0.234
3193.063 0.228 0.306 0.359 0.409 0.474 0.473 0.294 0.349 0.493 0.469
3212.356 0.423 0.236 0.174 0.269 0.315 0.337 0.424 0.435 0.328 0.267
3231.650 0.29 0.336 0.337 0.319 0.328 0.196 0.087 0.202 0.174 0.069
3250.943 0.12 0.209 0.238 0.222 0.196 0.288 0.242 0.041 0.124 0.228
3270.236 0.167 0.211 0.285 0.343 0.342 0.12 0.067 0.222 0.219 0.185
3289.530 0.163 0.091 0.009 0 0.123 0.042 0.032 0.167 0.2 0.213
3308.823 0.212 0.138 0.074 0.084 0.029 0.001 0.05 0.119 0.147 0.193
3328.117 0.098 0.072 0.247 0.197 0.131 0.187 0.308 0.24 0.115 0.238
3347.410 0.189 0.243 0.326 0.182 0.303 0.287 0.17 0.196 0.325 0.487
3366.704 0.382 0.462 0.427 0.154 0.039 0.28 0.394 0.243 0.314 0.323
3385.997 0.32 0.312 0.216 0.136 0.248 0.388 0.375 0.445 0.384 0.235
3405.290 0.327 0.448 0.354 0.251 0.307 0.277 0.228 0.308 0.325 0.213
3424.584 0.301 0.317 0.237 0.236 0.214 0.248 0.222 0.244 0.444 0.381
3443.877 0.154 0.358 0.374 0.281 0.364 0.292 0.222 0.246 0.304 0.314
3463.171 0.293 0.327 0.383 0.309 0.316 0.349 0.317 0.366 0.393 0.357
3482.464 0.315 0.306 0.387 0.381 0.207 0.107 0.088 0.143 0.349 0.49
3501.758 0.472 0.289 0.15 0.214 0.132 0.108 0.202 0.221 0.194 0.157
3521.051 0.202 0.375 0.475 0.474 0.531 0.447 0.348 0.41 0.494 0.335
3540.344 0.207 0.27 0.23 0.222 0.251 0.247 0.258 0.245 0.27 0.423
3559.638 0.439 0.285 0.289 0.406 0.379 0.363 0.383 0.398 0.415 0.28
3578.931 0.188 0.229 0.304 0.458 0.655 0.675 0.552 0.555 0.586 0.593
3598.225 0.535 0.615 0.8063 0.723 0.635 0.749 0.91873 0.96075 1.0817 1.3113
3617.518 1.4199 1.5266 1.6754 1.8787 2.227 2.567 2.907 3.207 3.617 4.157
3636.812 4.567 4.987 5.577 6.197 6.667 7.007 7.107 6.847 6.577 6.257
3656.105 5.697 5.237 4.707 4.117 3.667 3.207 2.747 2.297 1.927 1.6936
3675.398 1.5036 1.3616 1.3168 1.1431 0.95764 0.92478 0.7978 0.755 0.728 0.664
3694.692 0.699 0.764 0.762 0.667 0.556 0.523 0.512 0.526 0.537 0.446
3713.985 0.431 0.45 0.435 0.469 0.427 0.44 0.418 0.414 0.497 0.56
3733.279 0.583 0.485 0.442 0.475 0.529 0.544 0.507 0.572 0.577 0.406
3752.572 0.441 0.478 0.614 0.655 0.502 0.512 0.537 0.62 0.555 0.405
3771.866 0.363 0.455 0.575 0.627 0.653 0.567 0.522 0.541 0.548 0.57
3791.159 0.554 0.595 0.566 0.493 0.478 0.522 0.514 0.468 0.652 0.687
3810.452 0.532 0.514 0.49 0.435 0.478 0.554 0.567 0.557 0.517 0.55
3829.746 0.673 0.653 0.564 0.57 0.516 0.5 0.519 0.481 0.529 0.565
3849.039 0.576 0.614 0.674 0.628 0.591 0.599 0.61 0.642 0.582 0.605
3868.333 0.68 0.696 0.706 0.73 0.732 0.688 0.685 0.659 0.552 0.553
3887.626 0.687 0.68 0.522 0.581 0.611 0.566 0.618 0.634 0.697 0.764
3906.920 0.768 0.675 0.61 0.672 0.7 0.678 0.603 0.555 0.633 0.686
3926.213 0.703 0.691 0.668 0.66 0.654 0.571 0.44 0.458 0.583 0.676
3945.506 0.639 0.495 0.398 0.496 0.602 0.541 0.48 0.551 0.528 0.49
3964.800 0.518 0.442 0.469 0.505 0.487 0.543 0.56 0.591 0.58 0.516
3984.093 0.551 0.56 0.568 0.537 0.587 0.544 0.428 0.449 0.609
##END=
