##TITLE=2-Chloro-5-nitrobenzoyl chloride
##JCAMP-DX=4.24
##DATA TYPE=INFRARED SPECTRUM
##ORIGIN=EPA-IR VAPOR PHASE LIBRARY
##OWNER=SRD/NIST
Collection (C) 2018 copyright by the U.S. Secretary of Commerce
on behalf of the United States of America. All rights reserved.
##CAS REGISTRY NO=25784-91-2
##MOLFORM=C 7 H 3 Cl 2 N O 3
##$NIST SOURCE=MSDC-IR
##STATE=gas
##XUNITS=1/CM
##YUNITS=ABSORBANCE
##XFACTOR=1.
##YFACTOR=0.001
##DELTAX=1.92898
##FIRSTX=549.8
##LASTX=4000.7
##FIRSTY=29.337
##MAXX=4000.7
##MINX=549.759
##MAXY=0.478287
##MINY=0
##NPOINTS=1790
##XYDATA=(X++(Y..Y))
549.759 29.337 27.647 25.917 24.907 23.807 22.597 21.357 19.807 18.897 18.577
569.049 18.447 19.077 19.957 20.937 22.167 23.567 24.267 24.237 24.177 24.047
588.339 23.507 22.177 20.767 19.737 18.907 17.647 16.487 16.007 15.507 15.027
607.628 15.027 14.727 14.457 14.607 14.737 15.097 15.927 16.777 17.737 19.117
626.918 21.117 23.567 27.057 32.077 37.927 44.347 51.277 58.117 64.147 69.317
646.208 73.497 77.187 80.827 84.067 86.427 87.667 86.667 83.107 77.827 70.217
665.498 60.787 51.287 43.937 39.857 38.137 38.507 39.857 40.967 41.567 41.527
684.787 40.277 37.997 35.277 32.047 28.957 26.307 24.147 22.627 21.817 21.267
704.077 20.707 20.697 21.277 22.457 24.567 27.637 31.377 36.107 41.587 47.697
723.367 54.797 63.097 72.767 83.837 96.057 110.287 129.097 153.837 180.387 203.867
742.657 227.157 248.367 260.517 262.307 254.427 236.327 207.097 170.287 132.587 99.767
761.947 74.367 55.897 42.807 33.757 27.717 23.557 20.417 18.137 16.537 15.097
781.236 14.107 13.607 13.237 12.837 12.677 12.717 13.047 13.917 14.807 15.827
800.526 17.117 18.687 20.437 22.947 26.197 29.627 33.867 39.487 46.357 55.087
819.816 66.017 79.597 97.207 120.047 149.467 185.267 226.667 271.697 317.127 356.767
839.106 379.857 381.567 367.297 340.757 302.757 256.127 205.837 159.447 121.977 94.057
858.395 74.217 60.367 50.907 43.987 38.677 34.717 31.557 29.257 27.057 25.067
877.685 23.857 22.787 21.957 21.417 21.037 21.007 21.397 22.307 24.157 26.797
896.975 30.047 34.207 39.367 45.747 52.937 60.467 68.447 76.917 85.377 93.267
916.265 100.667 107.997 116.257 126.097 137.337 149.147 160.187 169.257 175.707 179.277
935.555 179.597 176.507 170.967 164.407 157.847 151.697 145.577 138.837 131.487 124.007
954.844 116.387 108.477 100.367 92.117 83.567 75.097 67.057 59.127 51.367 44.687
974.134 39.167 34.027 29.417 25.577 22.547 20.237 18.327 16.577 14.997 13.607
993.424 12.577 11.807 11.137 10.647 10.337 10.217 10.027 10.017 10.237 10.497
1012.714 10.537 10.457 10.727 11.187 11.667 12.177 12.927 14.027 15.257 16.717
1032.003 18.887 21.317 24.137 27.847 32.537 38.317 45.427 54.277 64.807 77.067
1051.293 91.277 106.647 122.887 140.357 157.737 173.497 185.797 191.907 191.027 183.817
1070.583 169.957 150.627 127.897 104.387 83.027 65.817 53.427 44.997 39.067 34.347
1089.873 30.917 29.007 28.277 29.377 31.587 34.647 38.577 42.047 44.047 45.007
1109.163 45.617 44.697 41.777 37.937 33.547 28.997 25.157 22.247 20.027 18.707
1128.452 18.367 18.697 18.817 18.727 18.567 18.377 18.077 17.587 17.257 17.297
1147.742 18.297 19.537 20.547 22.207 24.137 26.047 28.437 31.277 34.557 38.497
1167.032 43.007 48.377 54.917 62.637 72.067 83.797 97.737 113.007 128.927 143.837
1186.322 155.777 163.967 167.367 164.617 156.207 142.757 125.317 106.867 89.637 74.777
1205.611 63.077 53.427 45.567 39.907 34.887 30.767 28.287 26.677 25.107 23.487
1224.901 22.687 22.567 22.577 23.057 23.767 24.707 26.977 31.327 38.177 49.217
1244.191 65.377 84.547 101.127 111.937 117.687 117.057 110.377 96.767 77.327 60.027
1263.481 49.527 44.357 43.367 45.647 49.677 54.857 60.837 67.067 73.137 77.937
1282.771 80.957 81.957 80.247 76.207 70.357 63.337 55.887 48.947 43.167 38.917
1302.060 36.177 34.597 33.977 33.977 34.537 35.797 37.617 40.027 43.137 47.117
1321.350 52.407 59.357 68.547 80.837 97.547 120.137 150.047 188.577 236.157 291.207
1340.640 349.457 404.007 447.377 473.277 478.287 461.077 422.847 368.847 307.397 248.177
1359.930 198.057 158.767 129.067 107.187 91.177 79.477 70.827 64.437 59.687 55.957
1379.219 52.807 50.047 47.627 45.507 43.567 41.827 40.447 39.477 38.797 38.267
1398.509 37.907 37.657 37.397 37.167 37.197 37.567 38.247 39.077 39.777 40.217
1417.799 40.207 39.527 38.337 36.907 35.327 34.067 33.387 33.387 34.307 36.067
1437.089 38.747 42.067 46.017 50.597 55.807 62.027 69.477 77.807 86.967 96.117
1456.378 104.077 109.917 112.267 110.717 105.327 96.627 85.637 73.887 62.967 53.687
1475.668 46.567 41.297 37.617 35.097 33.677 33.227 33.627 34.897 36.827 39.187
1494.958 41.867 44.507 46.647 48.147 49.007 49.027 48.207 47.097 46.157 45.837
1514.248 46.457 48.347 51.767 56.927 64.327 74.157 87.137 103.767 124.487 149.537
1533.538 178.997 212.277 246.867 281.547 312.767 336.357 348.697 347.617 333.607 308.627
1552.827 276.447 239.257 202.157 168.997 143.437 127.117 118.097 114.947 116.257 120.437
1572.117 125.727 131.017 135.677 139.307 141.397 141.607 139.937 137.027 134.397 133.297
1591.407 134.147 137.007 141.867 148.687 156.817 165.357 172.887 177.197 176.617 170.297
1610.697 158.457 141.877 122.017 100.577 79.997 62.597 49.157 39.547 32.887 28.417
1629.986 25.417 23.347 21.997 21.187 20.627 20.247 20.057 20.037 20.117 20.057
1649.276 19.907 19.777 19.457 18.957 18.437 17.927 17.417 17.027 16.777 16.587
1668.566 16.557 16.547 16.267 15.937 15.527 15.037 14.487 13.877 13.177 12.557
1687.856 12.097 11.687 11.357 11.087 10.867 10.677 10.537 10.417 10.287 10.277
1707.146 10.347 10.497 10.737 10.907 11.157 11.617 12.167 12.857 13.677 14.757
1726.435 16.137 17.647 19.347 21.337 23.697 26.337 29.297 32.667 36.357 40.517
1745.725 45.027 49.947 55.327 61.317 67.927 75.067 83.057 91.687 100.947 110.897
1765.015 121.347 132.047 142.797 153.167 163.487 173.447 182.937 192.137 201.167 210.457
1784.305 220.617 232.587 247.287 265.597 287.817 312.647 336.677 356.197 367.607 368.197
1803.594 356.547 333.947 303.347 269.137 236.097 207.007 182.137 160.587 141.687 124.867
1822.884 109.647 95.787 83.307 72.247 62.377 53.757 46.287 39.847 34.447 30.157
1842.174 26.647 23.717 21.417 19.577 18.137 16.977 16.017 15.307 14.727 14.197
1861.464 13.667 13.257 12.977 12.627 12.267 11.907 11.587 11.427 11.237 11.007
1880.754 10.877 10.717 10.557 10.387 10.267 10.147 9.967 9.787 9.667 9.657
1900.043 9.737 9.857 9.997 10.117 10.237 10.377 10.467 10.457 10.397 10.317
1919.333 10.247 10.137 9.997 9.797 9.367 8.777 8.117 7.377 6.667 5.867
1938.623 5.087 4.397 3.847 3.417 3.027 2.717 2.537 2.397 2.197 2.127
1957.913 2.027 1.897 1.877 1.807 1.747 1.777 1.737 1.647 1.587 1.577
1977.202 1.567 1.547 1.527 1.527 1.547 1.507 1.477 1.447 1.4168 1.437
1996.492 1.4157 1.417 1.437 1.467 1.517 1.487 1.467 1.507 1.537 1.517
2015.782 1.457 1.447 1.497 1.517 1.507 1.497 1.497 1.507 1.507 1.477
2035.072 1.507 1.487 1.467 1.437 1.3456 1.3211 1.2749 1.2217 1.2063 1.1862
2054.362 1.1693 1.1244 1.0643 1.0239 0.9736 0.9579 1.0152 1.0241 0.9979 1.0753
2073.651 1.0995 1.0576 1.0727 1.0741 1.0557 1.1463 1.227 1.2065 1.2536 1.2513
2092.941 1.2717 1.3707 1.457 1.497 1.517 1.567 1.627 1.647 1.707 1.797
2112.231 1.827 1.877 1.887 1.877 1.827 1.737 1.697 1.697 1.647 1.577
2131.521 1.577 1.537 1.507 1.507 1.497 1.477 1.427 1.4107 1.427 1.3353
2150.810 1.2824 1.302 1.1958 1.1468 1.2123 1.1958 1.1061 1.1141 1.0921 0.9982
2170.100 0.9029 0.8733 0.9438 0.9258 0.835 0.8709 0.8939 0.8898 0.9252 0.9342
2189.390 0.9838 0.9735 0.9445 0.913 0.8874 0.934 0.9397 0.9135 0.9106 0.9589
2208.680 0.9917 0.8832 0.8567 0.91 0.8975 0.9028 0.9437 0.9362 0.9128 0.8708
2227.970 0.9035 0.9512 0.9382 0.9558 0.9976 1.0556 1.0911 1.1491 1.2373 1.2865
2247.259 1.2486 1.3026 1.457 1.547 1.587 1.687 1.797 1.857 2.007 2.147
2266.549 2.197 2.217 2.207 2.157 2.077 2.017 1.957 1.897 1.777 1.677
2285.839 1.657 1.577 1.537 1.567 1.487 1.3886 1.3973 1.3895 1.371 1.3145
2305.129 1.2033 1.1573 1.118 1.1706 1.194 1.0792 1.0822 1.1843 1.2407 1.197
2324.418 1.1301 1.1301 1.1122 1.1313 1.0943 0.9893 1.0224 1.1043 1.1722 1.2244
2343.708 1.2679 1.2546 1.3352 1.3729 1.3902 1.467 1.457 1.487 1.567 1.597
2362.998 1.607 1.607 1.587 1.607 1.527 1.487 1.567 1.647 1.727 1.797
2382.288 1.767 1.637 1.557 1.557 1.467 1.3949 1.3217 1.2269 1.195 1.1714
2401.578 1.1097 1.0139 0.9531 1.0072 0.9858 0.9061 0.9747 1.0793 0.9846 0.9934
2420.867 1.1705 1.055 0.946 1.0321 1.1073 1.1514 1.2267 1.3645 1.527 1.527
2440.157 1.527 1.627 1.647 1.767 1.867 1.867 1.947 1.937 1.867 1.767
2459.447 1.687 1.707 1.597 1.517 1.477 1.4017 1.417 1.4169 1.437 1.447
2478.737 1.3785 1.3212 1.3288 1.3348 1.287 1.2443 1.2475 1.2934 1.3051 1.3035
2498.026 1.3248 1.3696 1.3808 1.4152 1.4077 1.3428 1.3956 1.447 1.447 1.4148
2517.316 1.497 1.587 1.597 1.717 1.777 1.827 1.847 1.917 2.017 2.057
2536.606 2.067 2.007 1.967 1.917 1.847 1.897 1.887 1.847 1.857 1.937
2555.896 2.027 2.037 2.027 2.137 2.287 2.437 2.577 2.537 2.447 2.467
2575.186 2.527 2.557 2.447 2.297 2.287 2.247 2.197 2.127 2.087 1.997
2594.475 1.967 1.937 1.757 1.687 1.637 1.547 1.487 1.457 1.4022 1.36
2613.765 1.2824 1.2432 1.161 1.1463 1.2646 1.165 1.0824 1.2143 1.239 1.2222
2633.055 1.3462 1.447 1.637 1.787 1.737 1.747 1.947 1.977 2.027 2.177
2652.345 2.117 2.167 2.297 2.377 2.407 2.497 2.737 2.957 3.007 3.087
2671.634 3.407 3.707 3.927 4.147 4.447 4.587 4.597 4.657 4.617 4.537
2690.924 4.367 4.167 3.997 3.737 3.557 3.417 3.307 3.137 2.997 2.897
2710.214 2.727 2.607 2.537 2.457 2.257 2.057 2.117 2.007 1.757 1.797
2729.504 1.797 1.787 1.767 1.687 1.627 1.577 1.607 1.637 1.547 1.467
2748.794 1.497 1.517 1.477 1.447 1.437 1.3529 1.3439 1.3792 1.3408 1.3957
2768.083 1.447 1.4095 1.3463 1.3842 1.447 1.3583 1.3605 1.467 1.537 1.517
2787.373 1.577 1.617 1.637 1.687 1.667 1.707 1.747 1.737 1.657 1.487
2806.663 1.587 1.817 1.797 1.637 1.557 1.687 1.847 1.907 1.907 1.887
2825.953 1.907 2.037 2.097 2.147 2.247 2.297 2.407 2.567 2.747 2.947
2845.242 3.127 3.267 3.407 3.497 3.747 4.057 4.367 4.657 4.947 5.197
2864.532 5.437 5.807 6.097 6.477 6.797 7.027 7.327 7.607 7.777 7.857
2883.822 7.917 7.927 7.767 7.547 7.277 6.867 6.397 5.877 5.507 5.197
2903.112 4.877 4.557 4.177 4.017 3.937 3.987 4.047 3.967 3.857 3.827
2922.401 3.937 3.897 3.887 3.907 3.707 3.507 3.487 3.457 3.437 3.487
2941.691 3.577 3.567 3.457 3.367 3.277 3.227 3.157 3.067 2.977 2.817
2960.981 2.737 2.587 2.447 2.267 2.017 1.867 1.697 1.537 1.437 1.447
2980.271 1.487 1.467 1.2473 1.1131 1.1789 1.1322 1.1866 1.3916 1.497 1.427
2999.561 1.3709 1.3852 1.447 1.4168 1.3438 1.3597 1.3107 1.3803 1.527 1.437
3018.850 1.3996 1.527 1.587 1.617 1.637 1.637 1.687 1.647 1.567 1.507
3038.140 1.4126 1.3544 1.457 1.527 1.457 1.517 1.567 1.607 1.757 1.737
3057.430 1.777 2.137 2.337 2.517 2.927 3.347 3.947 4.867 5.997 7.337
3076.720 9.077 11.137 13.457 15.887 18.297 20.477 22.097 23.187 23.397 22.597
3096.009 21.277 19.687 17.837 15.917 14.167 12.627 11.377 10.347 9.337 8.227
3115.299 6.987 5.907 5.157 4.387 3.757 3.327 2.867 2.427 2.277 2.037
3134.589 1.707 1.577 1.427 1.2982 1.3204 1.2935 1.1427 1.0981 0.8968 0.7201
3153.879 0.6673 0.7849 0.905 0.8642 0.8158 0.7537 0.8336 0.7683 0.7067 0.8102
3173.169 0.846 0.8635 0.985 0.9059 0.8006 0.9406 0.977 0.8917 0.9139 0.857
3192.458 0.8109 0.8927 0.9004 0.9726 1.074 1.078 1.121 0.981 0.9253 1.1169
3211.748 1.1475 1.0443 0.9892 0.9033 0.7578 0.8089 0.7595 0.7297 0.6274 0.51473
3231.038 0.582 0.5427 0.50462 0.49296 0.3833 0.271 0.422867 0.47628 0.3 0.314
3250.328 0.46447 0.45644 0.347 0.282 0.308 0.243 0.191 0.312 0.287 0.217
3269.617 0.147 0.158 0.179 0.154 0.22 0.301 0.265 0.133 0.087 0.181
3288.907 0.232 0.186 0.161 0.133 0.043 0.097 0.263 0.287 0.25 0.115
3308.197 0.071 0.175 0.17 0.058 0.135 0.117 0.078 0.03 0.016 0.225
3327.487 0.227 0.242 0.262 0.197 0.222 0.221 0.082 0 0.055 0.132
3346.777 0.117 0.153 0.228 0.225 0.264 0.11 0.036 0.257 0.3412 0.233
3366.066 0.211 0.3551 0.3789 0.247 0.14 0.174 0.257 0.307 0.29 0.245
3385.356 0.314 0.3449 0.147 0.175 0.299 0.291 0.31 0.3209 0.3759 0.4865
3404.646 0.5388 0.4718 0.44939 0.43357 0.3221 0.3653 0.43159 0.305 0.213 0.231
3423.936 0.43006 0.50984 0.420258 0.3903 0.46653 0.5519 0.5677 0.45252 0.209 0.301
3443.225 0.45674 0.44945 0.49157 0.45196 0.4004 0.5208 0.612 0.5372 0.43608 0.49736
3462.515 0.5545 0.5401 0.6338 0.7251 0.7579 0.7999 0.7253 0.6658 0.7896 0.7597
3481.805 0.7497 0.9207 0.9852 1.0176 1.1466 1.3638 1.477 1.336 1.1437 1.1721
3501.095 1.2579 1.1464 1.105 1.2296 1.3104 1.3205 1.3836 1.547 1.627 1.747
3520.385 1.907 1.967 1.987 2.167 2.397 2.487 2.657 2.807 3.007 3.237
3539.674 3.347 3.467 3.697 3.847 3.947 4.377 4.697 4.957 5.167 5.157
3558.964 5.257 5.347 5.367 5.337 5.297 5.067 4.727 4.577 4.547 4.397
3578.254 4.287 4.267 4.217 4.077 3.907 3.767 3.517 3.517 3.497 3.297
3597.544 3.027 2.817 2.717 2.617 2.427 2.157 1.947 1.847 1.867 1.867
3616.833 1.797 1.677 1.497 1.437 1.517 1.4102 1.1991 1.0916 1.1227 1.2433
3636.123 1.217 1.1594 1.2762 1.2395 0.968 0.8183 0.7931 0.9046 0.9358 0.8043
3655.413 0.9949 1.0699 0.904 0.8531 0.8621 0.7235 0.6017 0.7003 0.7203 0.7665
3674.703 0.8443 0.8409 0.8871 0.7547 0.6791 0.6618 0.6081 0.6184 0.6196 0.6747
3693.993 0.5742 0.51216 0.574 0.5819 0.5798 0.6754 0.7757 0.7333 0.53 0.5361
3713.282 0.49389 0.44429 0.5538 0.47057 0.4035 0.44331 0.5501 0.5846 0.6516 0.6063
3732.572 0.5789 0.6454 0.5524 0.594 0.6249 0.5749 0.6304 0.6406 0.6124 0.6597
3751.862 0.5687 0.43786 0.45621 0.5527 0.6404 0.5555 0.5823 0.6676 0.6842 0.6857
3771.152 0.47173 0.4302 0.6585 0.6311 0.46877 0.46336 0.4772 0.49579 0.5863 0.607
3790.441 0.5896 0.566 0.6054 0.6433 0.5683 0.5883 0.51419 0.42749 0.3986 0.44554
3809.731 0.569 0.5669 0.43303 0.4058 0.4049 0.3261 0.3886 0.3478 0.3503 0.51115
3829.021 0.7399 0.7029 0.48566 0.44472 0.46516 0.47628 0.50038 0.5917 0.7398 0.7182
3848.311 0.6355 0.695 0.5552 0.4744 0.49254 0.6106 0.6077 0.47907 0.46127 0.276
3867.601 0.294 0.44291 0.3238 0.241 0.3182 0.3633 0.3845 0.43148 0.43958 0.44993
3886.890 0.5229 0.54 0.47186 0.247 0.114 0.233 0.3302 0.201 0.147 0.078
3906.180 0.233 0.5738 0.5785 0.51346 0.40948 0.44544 0.6494 0.6791 0.5875 0.5715
3925.470 0.5866 0.6169 0.7125 0.6553 0.49264 0.582 0.7895 0.6774 0.5645 0.4684
3944.760 0.47394 0.5901 0.5349 0.42544 0.3934 0.50027 0.43312 0.302 0.268 0.268
3964.049 0.279 0.3629 0.3392 0.313 0.3991 0.3342 0.3642 0.46467 0.5217 0.5698
3983.339 0.5562 0.50225 0.49535 0.43777 0.47316 0.5513 0.45206 0.43903 0.4597 0.6141
##END=
