##TITLE=5-Chloro-2-nitrodiphenylamine
##JCAMP-DX=4.24
##DATA TYPE=INFRARED SPECTRUM
##ORIGIN=NIST Mass Spectrometry Data Center
##OWNER=NIST Standard Reference Data Program
Collection (C) 2018 copyright by the U.S. Secretary of Commerce
on behalf of the United States of America. All rights reserved.
##CAS REGISTRY NO=25781-92-4
##MOLFORM=C 12 H 9 Cl N 2 O 2
##$NIST SOURCE=MSDC-IR
##SPECTROMETER/DATA SYSTEM=HP-GC/MS/IRD
##STATE=gas
##XUNITS=1/CM
##YUNITS=ABSORBANCE
##XFACTOR=1.0
##YFACTOR=0.000029100
##DELTAX=4.0
##FIRSTX=550.0
##LASTX=3846.0
##FIRSTY=0.007421
##MAXX=3846
##MINX=550
##MAXY=0.291
##MINY=0
##NPOINTS=825
##XYDATA=(X++(Y..Y))
550.0 255 321 169 169 145 134 123 125 141 168
590.0 198 222 222 206 182 158 140 129 121 117
630.0 120 125 131 142 158 167 166 166 175 195
670.0 220 251 298 390 544 687 753 773 845 935
710.0 896 718 518 394 351 364 421 542 757 1075
750.0 1353 1278 995 738 514 339 231 174 127 87
790.0 71 87 162 297 457 475 341 244 241 338
830.0 517 761 982 1060 981 868 823 770 626 458
870.0 330 242 192 173 171 167 161 165 195 263
910.0 370 534 786 1160 1635 2017 2053 1684 1130 674
950.0 389 221 129 80 48 28 16 10 2 0
990.0 1 11 31 60 81 95 128 195 275 305
1030.0 268 207 174 175 201 267 386 574 829 1030
1070.0 1021 794 504 309 223 209 251 328 390 378
1110.0 292 209 172 165 162 161 164 178 226 316
1150.0 382 365 304 277 307 361 415 456 487 518
1190.0 569 666 834 1057 1260 1350 1314 1236 1208 1250
1230.0 1348 1528 1861 2437 3292 4365 5391 5943 5719 4855
1270.0 3795 2911 2320 2001 1887 1907 1990 2065 2046 1885
1310.0 1664 1560 1748 2280 2975 3434 3325 2701 1979 1470
1350.0 1157 940 779 678 629 627 667 732 799 848
1390.0 892 982 1182 1504 1856 2050 2009 1849 1706 1572
1430.0 1401 1264 1256 1363 1527 1704 1856 1967 2058 2196
1470.0 2432 2834 3499 4574 6036 7756 9385 10000 8849 6434
1510.0 4190 2939 2320 1982 1782 1705 1766 1917 2033 2041
1550.0 2037 2201 2690 3571 4680 5658 6063 6010 6136 6868
1590.0 8003 8705 8290 7205 6402 6081 5720 4972 3934 2832
1630.0 1900 1305 980 789 648 534 444 382 345 329
1670.0 329 337 356 385 429 491 558 597 582 526
1710.0 478 469 514 584 599 544 482 428 361 290
1750.0 231 193 167 148 135 130 129 129 129 129
1790.0 123 110 96 84 77 68 61 52 48 45
1830.0 43 44 46 50 53 55 57 58 61 66
1870.0 71 76 80 87 94 97 94 84 67 53
1910.0 46 45 46 48 53 61 69 75 75 71
1950.0 70 66 57 42 29 19 14 10 9 9
1990.0 9 8 7 8 7 7 4 2 0 0
2030.0 0 0 2 1 1 2 3 3 4 7
2070.0 9 10 9 10 9 8 7 6 6 6
2110.0 5 6 7 7 8 9 9 9 8 8
2150.0 8 9 10 14 16 17 17 16 13 10
2190.0 7 6 4 2 1 2 1 2 3 1
2230.0 0 0 0 2 3 5 6 8 10 11
2270.0 12 13 12 13 14 16 23 30 33 33
2310.0 35 36 37 37 36 38 39 42 44 45
2350.0 47 49 48 45 41 38 35 35 36 38
2390.0 41 45 46 46 43 39 37 35 33 32
2430.0 33 34 34 35 37 36 35 35 33 34
2470.0 35 36 38 39 38 36 34 31 30 29
2510.0 28 28 30 32 35 39 45 51 54 56
2550.0 57 57 55 53 50 46 42 40 38 37
2590.0 37 36 35 36 35 36 37 37 37 38
2630.0 39 38 37 38 35 33 32 32 33 35
2670.0 37 36 33 33 31 31 30 29 30 33
2710.0 35 37 39 42 43 44 45 44 42 41
2750.0 39 36 35 35 34 35 38 41 45 48
2790.0 51 55 58 60 61 63 67 72 75 78
2830.0 80 81 84 89 94 102 115 141 177 205
2870.0 210 202 181 156 138 129 130 134 137 136
2910.0 137 139 147 168 205 264 342 431 529 614
2950.0 605 465 306 212 166 143 127 109 92 78
2990.0 67 62 63 69 77 88 101 122 149 187
3030.0 234 293 361 422 455 442 402 369 368 403
3070.0 474 546 564 512 432 374 341 304 265 229
3110.0 194 160 125 93 71 58 50 45 44 43
3150.0 44 45 45 46 44 43 43 41 39 37
3190.0 35 33 31 28 27 26 27 28 26 24
3230.0 24 26 28 27 27 29 31 32 35 40
3270.0 47 54 63 75 88 105 121 135 147 158
3310.0 169 181 196 215 241 276 325 387 468 576
3350.0 718 894 1085 1252 1348 1357 1289 1167 1019 877
3390.0 761 672 593 508 419 338 267 216 180 152
3430.0 128 109 90 74 63 55 47 41 34 29
3470.0 26 23 20 17 16 14 10 8 6 6
3510.0 6 4 2 1 2 5 1 1 4 3
3550.0 4 5 6 7 6 4 5 5 2 1
3590.0 2 1 0 1 1 2 2 0 2 4
3630.0 3 2 4 5 4 4 5 5 4 5
3670.0 6 5 5 6 7 7 7 6 6 7
3710.0 6 5 6 2 1 2 0 2 2 0
3750.0 2 1 1 0 1 4 3 0 1 1
3790.0 2 4 4 2 4 4 3 3 4 3
3830.0 3 4 3 3 4
##END=
