##TITLE=4,4'-Bis(hexyloxy)azoxybenzene
##JCAMP-DX=4.24
##DATA TYPE=INFRARED SPECTRUM
##ORIGIN=EPA-IR VAPOR PHASE LIBRARY
##OWNER=SRD/NIST
Collection (C) 2018 copyright by the U.S. Secretary of Commerce
on behalf of the United States of America. All rights reserved.
##CAS REGISTRY NO=2587-42-0
##MOLFORM=C 24 H 34 N 2 O 3
##$NIST SOURCE=MSDC-IR
##STATE=gas
##XUNITS=1/CM
##YUNITS=ABSORBANCE
##XFACTOR=1.
##YFACTOR=0.001
##DELTAX=1.92898
##FIRSTX=549.8
##LASTX=4000.7
##FIRSTY=1.5514
##MAXX=4000.7
##MINX=549.759
##MAXY=0.02412
##MINY=0
##NPOINTS=1790
##XYDATA=(X++(Y..Y))
549.759 1.5514 1.8472 1.8558 1.8728 1.8035 1.5852 1.4837 1.537 1.5854 1.5138
569.049 1.7595 1.9095 1.9088 2.1153 2.0755 2.0045 1.8408 1.6519 1.6411 1.28532
588.339 1.102 1.1664 1.091 1.004 1.1531 1.24826 1.1373 0.971 0.867 0.959
607.628 1.03 1.019 0.918 1.006 1.026 0.87 0.956 1.028 1.063 1.08
626.918 1.051 1.1322 1.21857 1.3198 1.4075 1.27075 1.1715 1.2499 1.25156 1.24595
646.208 1.4278 1.5407 1.4855 1.46 1.4289 1.3623 1.3244 1.26662 1.1789 1.11
665.498 1.07 1.107 1.20213 1.21837 1.1959 1.1467 1.055 1.076 1.008 1.046
684.787 1.1354 1.086 1.1556 1.25157 1.20359 1.06 1.069 1.076 1.035 1.1218
704.077 1.1971 1.1932 1.21687 1.1213 1.102 1.29818 1.3783 1.3666 1.3727 1.372
723.367 1.3222 1.30606 1.4282 1.4166 1.3262 1.29567 1.1997 1.1516 1.1985 1.3324
742.657 1.3151 1.23336 1.25333 1.24909 1.1604 1.1709 1.3145 1.21498 1.111 1.1747
761.947 1.22078 1.1844 1.24152 1.3375 1.357 1.3267 1.26236 1.073 1.1497 1.3404
781.236 1.26817 1.3413 1.4567 1.4428 1.4253 1.5208 1.517 1.4832 1.5489 1.5392
800.526 1.62 1.8082 1.7464 1.5903 1.7401 1.7972 1.8551 2.0131 2.0093 2.008
819.816 2.1813 2.46 2.68 3.02 3.41 3.82 4.22 4.57 4.79 4.78
839.106 4.7 4.43 4.08 3.65 3.19 2.85 2.49 2.26 2.1386 2.0396
858.395 1.945 1.9626 2.0385 1.911 1.719 1.6504 1.5853 1.5156 1.5848 1.5293
877.685 1.5297 1.5937 1.4927 1.4183 1.4723 1.4697 1.4189 1.4339 1.4981 1.5351
896.975 1.516 1.5448 1.5649 1.6394 1.8574 2.0071 2.1851 2.39 2.6 2.83
916.265 2.89 2.75 2.6 2.49 2.31 2.24 2.27 2.2094 2.1285 2.22
935.555 2.27 2.1281 2.029 2.0742 2.0759 1.9635 1.8244 1.6624 1.688 1.6174
954.844 1.5008 1.5109 1.477 1.5872 1.5161 1.4142 1.4029 1.3926 1.4326 1.4256
974.134 1.4832 1.5205 1.5307 1.5885 1.7063 1.7634 1.6828 1.7059 1.8347 1.9808
993.424 2.23 2.42 2.51 2.79 3.2 3.54 4.04 4.57 4.9 5.11
1012.714 5.01 4.93 5.15 5.24 5.25 5.26 5.14 4.98 4.72 4.58
1032.003 4.55 4.45 4.41 4.13 3.78 3.85 3.65 3.6 3.86 3.76
1051.293 3.76 3.61 3.31 3.18 2.98 2.7 2.64 2.47 2.35 2.37
1070.583 2.26 2.25 2.27 2.23 2.0943 1.7818 1.7786 1.8434 1.6815 1.6794
1089.873 1.7754 1.7646 1.684 1.9797 1.9843 1.8553 1.8861 1.9899 2.1919 2.37
1109.163 2.42 2.2049 2.0756 2.0751 2.0515 1.8354 1.7543 1.8373 1.9671 2.032
1128.452 2.111 2.24 2.4 2.33 2.1868 2.52 2.78 2.87 3.24 3.9
1147.742 4.57 5.39 7.02 9.67 13.22 15.93 15.5 12.27 8.85 6.56
1167.032 5.07 4.16 3.54 3.17 2.72 2.51 2.59 2.36 2.2029 2.37
1186.322 2.51 2.59 2.76 2.99 3.5 4.07 4.54 4.9 5.39 5.89
1205.611 6.3 6.43 6.51 6.67 6.79 7.27 7.99 8.73 9.4 10.45
1224.901 11.58 12.63 13.91 15.11 16.23 17.76 19.55 21.07 22.42 23.36
1244.191 23.56 23.09 21.86 19.9 17.61 15.27 13.05 11.31 9.98 8.88
1263.481 8.04 7.6 7.28 6.97 6.85 6.72 6.63 6.65 6.76 6.91
1282.771 6.95 6.9 6.91 6.93 6.97 6.9 6.6 6.18 5.7 5.28
1302.060 4.93 4.69 4.5 4.31 4.24 4.28 4.24 4.09 3.98 3.87
1321.350 3.73 3.6 3.49 3.41 3.3 3.13 3 2.9 2.85 2.78
1340.640 2.61 2.4 2.28 2.24 2.22 2.1734 2.1357 2.141 2.1341 2.1391
1359.930 2.1903 2.28 2.2083 2.0392 2.0259 2.0927 2.1833 2.27 2.31 2.46
1379.219 2.66 2.8 2.95 3.18 3.41 3.26 2.96 2.86 2.79 2.6
1398.509 2.5 2.38 2.3 2.4 2.44 2.46 2.51 2.45 2.35 2.31
1417.799 2.34 2.25 2.036 2.0263 1.9933 1.9853 2.0273 2.0514 2.1421 2.5
1437.089 2.76 2.65 2.73 2.91 3.14 3.49 3.84 4.22 4.68 5.3
1456.378 6.14 6.64 6.98 7.57 8.29 8.93 9.55 10.27 10.78 10.66
1475.668 9.94 8.89 7.86 7.19 6.96 7.28 8.13 9.61 11.65 14.4
1494.958 18.13 22 24.12 23.17 19.3 14.7 10.96 8.17 6.28 5.03
1514.248 4.17 3.62 3.14 2.94 2.7 2.32 2.2093 2.0675 1.9214 1.8987
1533.538 1.8981 1.8008 1.8373 2.0215 2.0036 1.9707 1.9433 1.8091 1.9234 1.991
1552.827 2.0607 2.22 2.35 2.73 2.77 2.72 2.91 3.02 3.15 3.23
1572.117 3.22 3.33 3.62 3.87 4.22 4.8 5.55 6.45 7.53 8.8
1591.407 10.07 11.08 11.73 11.82 11.33 10.56 9.64 8.59 7.49 6.46
1610.697 5.49 4.62 3.96 3.46 2.96 2.6 2.41 2.2098 2.083 2.0181
1629.986 1.8887 1.7964 1.8293 1.874 1.7542 1.6583 1.6696 1.6996 1.7591 1.7455
1649.276 1.6252 1.7689 1.983 1.7659 1.5377 1.4848 1.4996 1.5196 1.4892 1.4869
1668.566 1.5361 1.554 1.4896 1.5286 1.5097 1.4626 1.5005 1.5634 1.6947 1.5212
1687.856 1.3612 1.3595 1.27465 1.3811 1.5765 1.4771 1.5548 1.5214 1.3214 1.30947
1707.146 1.22687 1.21345 1.2326 1.3113 1.4725 1.6292 1.5066 1.29282 1.26361 1.23439
1726.435 1.21603 1.26616 1.30895 1.4814 1.5775 1.3166 1.26385 1.27663 1.24187 1.3156
1745.725 1.29692 1.3183 1.4762 1.5149 1.29321 1.26367 1.27552 1.20132 1.24231 1.1658
1765.015 1.087 1.21729 1.20343 1.1312 1.1501 1.1172 1.057 1.007 1.043 1.054
1784.305 1.1307 1.06 0.983 1.11 1.1417 1.042 0.987 0.974 1.032 1.102
1803.594 0.998 0.92 0.925 0.904 0.924 0.91 0.896 0.942 0.907 0.895
1822.884 0.941 0.999 0.974 0.975 0.99 0.953 0.916 0.913 0.911 0.889
1842.174 0.998 1.073 1.003 0.962 0.914 0.888 0.907 0.895 0.936 0.969
1861.464 0.945 0.953 1.003 1.047 1.061 1.011 0.981 0.97 0.944 0.965
1880.754 0.993 0.985 0.992 1.006 0.996 1 1.002 1.005 0.995 0.964
1900.043 0.979 0.977 0.937 0.945 0.939 0.916 0.901 0.91 0.939 0.961
1919.333 0.946 0.948 0.939 0.865 0.861 0.872 0.853 0.881 0.883 0.869
1938.623 0.854 0.89 0.905 0.884 0.887 0.874 0.883 0.89 0.903 0.91
1957.913 0.901 0.883 0.91 0.903 0.885 0.906 0.896 0.887 0.881 0.899
1977.202 0.925 0.917 0.897 0.916 0.928 0.918 0.902 0.941 0.972 0.936
1996.492 0.908 0.914 0.928 0.901 0.931 0.949 0.911 0.923 0.953 0.978
2015.782 1.028 1.041 0.986 0.961 0.984 0.991 0.985 0.953 0.959 0.968
2035.072 0.944 0.969 0.977 0.95 0.938 0.957 0.961 0.931 0.908 0.919
2054.362 0.94 0.935 0.948 0.909 0.866 0.894 0.892 0.861 0.842 0.833
2073.651 0.866 0.886 0.839 0.767 0.787 0.856 0.856 0.868 0.882 0.836
2092.941 0.81 0.829 0.8 0.802 0.811 0.795 0.809 0.805 0.795 0.799
2112.231 0.818 0.853 0.864 0.837 0.817 0.781 0.721 0.713 0.745 0.752
2131.521 0.74 0.712 0.737 0.779 0.752 0.733 0.71 0.7 0.73 0.762
2150.810 0.763 0.749 0.747 0.754 0.772 0.778 0.747 0.753 0.755 0.752
2170.100 0.772 0.743 0.743 0.787 0.785 0.746 0.714 0.725 0.754 0.731
2189.390 0.724 0.709 0.69 0.683 0.689 0.729 0.737 0.73 0.743 0.708
2208.680 0.683 0.749 0.775 0.807 0.805 0.805 0.821 0.756 0.736 0.775
2227.970 0.797 0.793 0.76 0.726 0.746 0.756 0.758 0.73 0.718 0.752
2247.259 0.765 0.763 0.708 0.705 0.771 0.815 0.796 0.749 0.763 0.805
2266.549 0.824 0.81 0.808 0.842 0.842 0.842 0.825 0.773 0.794 0.813
2285.839 0.804 0.819 0.813 0.843 0.878 0.86 0.877 0.878 0.87 0.902
2305.129 0.89 0.873 0.88 0.919 0.94 0.92 0.925 0.922 0.933 0.988
2324.418 0.967 0.907 0.898 0.918 0.913 0.872 0.896 0.927 0.921 0.915
2343.708 0.898 0.904 0.911 0.873 0.866 0.88 0.879 0.889 0.922 0.946
2362.998 0.961 0.945 0.95 0.999 0.984 0.964 0.988 1.017 1.003 0.939
2382.288 0.904 0.929 0.93 0.91 0.902 0.887 0.888 0.885 0.867 0.897
2401.578 0.903 0.865 0.865 0.864 0.875 0.902 0.909 0.891 0.86 0.827
2420.867 0.815 0.846 0.861 0.834 0.866 0.889 0.854 0.854 0.857 0.851
2440.157 0.826 0.842 0.844 0.835 0.871 0.907 0.912 0.908 0.916 0.901
2459.447 0.898 0.914 0.913 0.843 0.787 0.793 0.845 0.867 0.87 0.889
2478.737 0.881 0.876 0.88 0.912 0.905 0.898 0.914 0.908 0.907 0.898
2498.026 0.88 0.904 0.941 0.957 0.955 0.917 0.937 0.928 0.926 0.939
2517.316 0.937 0.934 0.92 0.925 0.943 0.943 0.944 0.962 0.95 0.949
2536.606 0.958 0.985 1.014 1.015 0.983 0.939 0.966 1.008 1.006 0.985
2555.896 0.947 0.963 0.966 0.952 0.958 0.953 0.921 0.911 0.917 0.901
2575.186 0.86 0.832 0.898 0.95 0.915 0.866 0.861 0.864 0.837 0.833
2594.475 0.877 0.896 0.875 0.863 0.87 0.817 0.798 0.881 0.873 0.794
2613.765 0.832 0.889 0.797 0.759 0.809 0.813 0.784 0.769 0.806 0.825
2633.055 0.821 0.827 0.816 0.806 0.796 0.829 0.887 0.843 0.808 0.844
2652.345 0.815 0.828 0.833 0.77 0.777 0.845 0.88 0.885 0.85 0.829
2671.634 0.86 0.877 0.897 0.902 0.931 0.932 0.876 0.897 0.936 0.945
2690.924 0.954 0.939 0.896 0.915 0.94 0.928 0.899 0.919 0.942 0.895
2710.214 0.903 0.899 0.88 0.92 0.948 0.952 0.891 0.867 0.972 0.977
2729.504 0.968 1.03 1.059 1.076 1.058 1.058 1.033 1.014 1.073 1.1105
2748.794 1.109 1.085 1.035 1.018 1.067 1.067 1.022 0.984 0.978 0.992
2768.083 1.007 0.952 0.917 0.948 0.971 1.003 1.032 1.038 1.048 1.045
2787.373 1.049 1.087 1.079 1.038 1.017 1.035 1.017 1.077 1.1339 1.085
2806.663 1.1266 1.1853 1.1815 1.1582 1.1606 1.1684 1.21092 1.25243 1.2794 1.3424
2825.953 1.3689 1.4396 1.5055 1.5509 1.631 1.6958 1.7438 1.8302 1.9431 2.0549
2845.242 2.1736 2.3 2.54 2.76 2.99 3.25 3.53 3.85 4.24 4.5
2864.532 4.71 4.92 5.03 5.16 5.23 5.31 5.35 5.35 5.37 5.29
2883.822 5.27 5.25 5.14 5.03 4.88 4.85 4.79 4.66 4.73 4.83
2903.112 4.98 5.22 5.48 5.77 6.03 6.37 6.7 7 7.42 7.81
2922.401 8.18 8.61 9.12 9.69 10.21 10.65 10.99 11.27 11.37 11.36
2941.691 11.27 11.13 10.91 10.54 10.1 9.69 9.35 9.12 9.03 8.95
2960.981 8.97 9.04 8.99 8.9 8.72 8.4 7.82 6.94 6.07 5.29
2980.271 4.63 4.1 3.61 3.18 2.85 2.63 2.42 2.2017 2.0665 1.9965
2999.561 1.9192 1.8161 1.7114 1.6205 1.5235 1.4534 1.4624 1.4204 1.3916 1.3592
3018.850 1.30159 1.21778 1.1731 1.1983 1.1993 1.2018 1.148 1.107 1.1812 1.2546
3038.140 1.30232 1.3368 1.3352 1.373 1.3919 1.3755 1.3576 1.3767 1.3662 1.315
3057.430 1.26771 1.27351 1.3268 1.3597 1.3851 1.3797 1.3743 1.4618 1.5656 1.592
3076.720 1.5694 1.5675 1.6421 1.7605 1.7858 1.7714 1.7989 1.7787 1.6915 1.5584
3096.009 1.4353 1.3421 1.24575 1.1831 1.1362 1.092 1.107 1.1115 1.084 1.1
3115.299 1.078 1.06 1.079 1.043 1.049 1.107 1.157 1.1347 1.075 1.041
3134.589 1.044 1.083 1.046 0.994 0.986 1.016 1.015 1.02 1.087 1.085
3153.879 1.074 1.001 0.975 0.992 1.008 1.01 0.974 0.969 1.021 1.046
3173.169 0.977 0.984 1.071 0.964 0.855 0.945 1.035 1.084 1.007 0.962
3192.458 1.025 1.026 0.96 1.009 1.046 1.034 1.005 0.969 0.947 0.949
3211.748 0.962 0.985 1.023 1.007 0.958 0.934 0.927 0.897 0.925 0.952
3231.038 0.957 0.933 0.922 0.969 0.959 0.9 0.901 0.9 0.939 0.916
3250.328 0.839 0.827 0.906 0.962 0.917 0.899 0.802 0.782 0.849 0.838
3269.617 0.881 0.824 0.762 0.771 0.811 0.876 0.904 0.86 0.781 0.798
3288.907 0.761 0.737 0.772 0.787 0.765 0.704 0.697 0.751 0.677 0.587
3308.197 0.652 0.635 0.692 0.756 0.625 0.588 0.594 0.633 0.681 0.651
3327.487 0.591 0.509 0.548 0.596 0.618 0.606 0.582 0.607 0.586 0.595
3346.777 0.626 0.591 0.529 0.517 0.54 0.525 0.51 0.565 0.579 0.59
3366.066 0.652 0.607 0.47 0.505 0.621 0.625 0.573 0.535 0.528 0.525
3385.356 0.517 0.491 0.454 0.452 0.518 0.508 0.405 0.351 0.461 0.489
3404.646 0.405 0.418 0.42 0.38 0.47 0.552 0.504 0.423 0.427 0.479
3423.936 0.521 0.519 0.404 0.378 0.386 0.402 0.417 0.406 0.339 0.345
3443.225 0.484 0.523 0.41 0.337 0.348 0.319 0.308 0.369 0.367 0.319
3462.515 0.362 0.396 0.347 0.211 0.244 0.353 0.304 0.36 0.432 0.403
3481.805 0.357 0.311 0.333 0.355 0.341 0.394 0.401 0.314 0.284 0.416
3501.095 0.46 0.33 0.24 0.277 0.335 0.33 0.287 0.221 0.305 0.41
3520.385 0.418 0.448 0.429 0.338 0.309 0.304 0.217 0.239 0.345 0.314
3539.674 0.255 0.272 0.349 0.448 0.372 0.21 0.289 0.308 0.239 0.281
3558.964 0.315 0.354 0.374 0.473 0.589 0.448 0.271 0.271 0.233 0.17
3578.254 0.242 0.314 0.281 0.267 0.44 0.57 0.369 0.279 0.352 0.316
3597.544 0.309 0.301 0.233 0.217 0.274 0.369 0.419 0.459 0.454 0.357
3616.833 0.367 0.461 0.451 0.315 0.268 0.451 0.604 0.423 0.219 0.15
3636.123 0.13 0.22 0.19 0.17 0.286 0.357 0.442 0.483 0.417 0.334
3655.413 0.349 0.33 0.231 0.18 0.13 0.234 0.408 0.434 0.356 0.348
3674.703 0.456 0.416 0.288 0.259 0.2 0.19 0.239 0.38 0.299 0.17
3693.993 0.17 0.214 0.18 0.14 0.226 0.18 0.19 0.357 0.404 0.352
3713.282 0.318 0.234 0.18 0.11 0.17 0.29 0.34 0.382 0.287 0.216
3732.572 0.341 0.556 0.578 0.468 0.391 0.439 0.688 0.562 0.376 0.328
3751.862 0.21 0.18 0.22 0.24 0.2 0.15 0.13 0.17 0.217 0.271
3771.152 0.296 0.215 0.15 0.2 0.18 0.11 0.07 0.15 0.2 0.12
3790.441 0.11 0.18 0.15 0.08 0.1 0.266 0.382 0.259 0.14 0.07
3809.731 0.13 0.21 0.19 0.222 0.273 0.327 0.267 0.1 0.08 0.15
3829.021 0.14 0.13 0.13 0.06 0.15 0.277 0.19 0.08 0.07 0.04
3848.311 0.09 0.304 0.467 0.421 0.283 0.214 0.19 0.19 0.223 0.217
3867.601 0.217 0.328 0.335 0.259 0.28 0.2 0.06 0.09 0.15 0.229
3886.890 0.264 0.256 0.262 0.18 0.13 0.18 0.2 0.288 0.389 0.279
3906.180 0.13 0.08 0.08 0.13 0.1 0.15 0.226 0.16 0.16 0.19
3925.470 0.12 0 0.09 0.347 0.262 0.14 0.12 0.07 0.15 0.22
3944.760 0.225 0.19 0.13 0.11 0.11 0.1 0.18 0.19 0.2 0.211
3964.049 0.08 0.07 0.225 0.17 0.1 0.13 0.14 0.11 0.09 0.13
3983.339 0.11 0.12 0.16 0.17 0.11 0.09 0.04 0.02 0.09 0.13
##END=
