##TITLE=1,3,5-Tribenzoylbenzene
##JCAMP-DX=4.24
##DATA TYPE=INFRARED SPECTRUM
##ORIGIN=EPA-IR VAPOR PHASE LIBRARY
##OWNER=SRD/NIST
Collection (C) 2018 copyright by the U.S. Secretary of Commerce
on behalf of the United States of America. All rights reserved.
##CAS REGISTRY NO=25871-69-6
##MOLFORM=C 27 H 18 O 3
##$NIST SOURCE=MSDC-IR
##STATE=gas
##XUNITS=1/CM
##YUNITS=ABSORBANCE
##XFACTOR=1.
##YFACTOR=0.001
##DELTAX=1.92898
##FIRSTX=549.8
##LASTX=4000.7
##FIRSTY=0.3126
##MAXX=4000.7
##MINX=549.759
##MAXY=0.0097897
##MINY=0
##NPOINTS=1790
##XYDATA=(X++(Y..Y))
549.759 0.3126 0.2634 0.4135 0.4315 0.4117 0.4124 0.4787 0.4504 0.3255 0.18278
569.049 0.12942 0.106403 0.4116 0.5661 0.4228 0.4352 0.2922 0.275 0.3074 0.2064
588.339 0.3086 0.3669 0.3011 0.2903 0.3686 0.535 0.6193 0.5349 0.3958 0.4613
607.628 0.506 0.49 0.5084 0.4882 0.5043 0.389 0.3866 0.5708 0.7036 0.6675
626.918 0.6734 0.7079 0.7998 0.9919 1.2197 1.7397 2.4797 3.0897 3.5697 3.8397
646.208 3.7397 3.6297 3.5197 3.1897 2.6297 2.0097 1.6497 1.4497 1.1197 0.9713
665.498 1.0091 1.0523 1.0899 1.0583 0.9486 0.9315 1.0316 1.0681 1.1897 1.2997
684.787 1.4297 1.7397 2.1397 2.7697 3.3397 3.4497 3.1897 2.7997 2.5097 2.3597
704.077 2.2497 2.2697 2.3297 2.5397 2.8597 3.0397 3.2497 3.4497 3.3897 3.0697
723.367 2.6797 2.2497 1.8597 1.6197 1.4197 1.1597 0.9658 0.9635 0.9014 0.7278
742.657 0.6925 0.6807 0.735 0.7546 0.6204 0.6106 0.7237 0.8005 0.855 0.9576
761.947 1.1097 1.2197 1.1897 0.9538 0.7941 0.7411 0.6328 0.5772 0.6883 0.8592
781.236 0.8371 0.8296 0.9551 1.1197 1.1797 1.0901 1.0671 1.2097 1.3397 1.2197
800.526 1.1397 1.0481 0.7788 0.6653 0.6861 0.5977 0.4406 0.4393 0.4682 0.3791
819.816 0.2573 0.2393 0.2037 0.18385 0.2535 0.3077 0.3411 0.3763 0.3686 0.4078
839.106 0.4346 0.3699 0.3575 0.2698 0.3059 0.4106 0.4331 0.4025 0.3094 0.2305
858.395 0.19615 0.14249 0.14838 0.2583 0.3527 0.438 0.4697 0.3937 0.295 0.2849
877.685 0.3452 0.281 0.2723 0.3332 0.2632 0.3274 0.4594 0.5348 0.5704 0.6585
896.975 0.6629 0.4473 0.3988 0.5633 0.5237 0.5027 0.5015 0.5263 0.6492 0.5817
916.265 0.5531 0.657 0.758 0.6472 0.5459 0.7153 0.6897 0.5876 0.5806 0.5679
935.555 0.469 0.3029 0.3688 0.4663 0.5056 0.3802 0.2704 0.3144 0.2853 0.3419
954.844 0.3226 0.2742 0.2716 0.4001 0.5556 0.5173 0.4779 0.5098 0.6175 0.6996
974.134 0.6245 0.4577 0.4594 0.7199 0.9531 1.0572 1.1297 1.2997 1.6997 2.0097
993.424 2.0597 2.1597 2.2097 2.3097 2.5297 2.8197 3.1497 3.4097 3.4297 3.1997
1012.714 2.7697 2.1597 1.6397 1.0997 0.8977 0.821 0.6361 0.6242 0.575 0.4801
1032.003 0.6252 0.7866 0.7155 0.5658 0.4325 0.4009 0.3276 0.3844 0.4973 0.4628
1051.293 0.395 0.2708 0.2757 0.2837 0.2183 0.3237 0.4435 0.3635 0.3548 0.431
1070.583 0.256 0.4287 0.6053 0.4184 0.6708 0.8835 0.7013 0.6148 0.545 0.3543
1089.873 0.4261 0.4088 0.5068 0.7181 0.645 0.8493 0.8348 0.86 0.8992 0.9012
1109.163 0.9711 0.9147 1.0577 1.3797 1.5997 1.2297 1.0858 1.4697 1.5997 1.6697
1128.452 1.7097 1.6397 1.5597 1.5297 1.5797 1.3697 1.2697 0.9698 0.5415 0.6079
1147.742 0.6565 0.4742 0.5741 0.8532 0.8319 0.7959 0.8052 0.7044 0.6477 0.674
1167.032 0.8373 1.2697 1.4897 1.4997 1.8797 2.2897 2.7197 2.8297 2.4297 2.0297
1186.322 1.7197 1.3597 1.1997 0.9883 0.7175 0.8587 0.8335 0.663 0.5085 0.754
1205.611 1.2597 1.0696 1.1097 1.7897 1.8797 1.8797 2.2197 2.4597 2.8797 3.3497
1224.901 4.2497 5.2497 5.8697 6.4597 6.8097 7.1597 7.3797 7.6897 8.0397 8.1797
1244.191 8.4597 8.9497 9.4497 9.7897 9.7597 9.2797 8.5997 7.7297 6.8097 6.2497
1263.481 5.9397 5.6797 5.5697 5.1997 4.4497 3.8297 3.2797 2.6097 2.1497 1.8497
1282.771 1.6097 1.4897 1.3897 1.2697 1.1897 1.1997 1.1297 1.0997 1.2397 1.3397
1302.060 1.3597 1.4397 1.4897 1.5497 1.6197 1.6597 1.6797 1.6197 1.4897 1.3497
1321.350 1.2397 1.2197 1.1997 1.1197 1.0367 0.9741 0.9141 0.8418 0.8 0.7458
1340.640 0.6779 0.6454 0.6054 0.5611 0.5223 0.4767 0.4402 0.4325 0.4291 0.4351
1359.930 0.4314 0.3889 0.3759 0.4165 0.3903 0.3712 0.4322 0.432 0.4085 0.417
1379.219 0.414 0.419 0.3889 0.3677 0.3903 0.3878 0.389 0.3873 0.3693 0.3415
1398.509 0.3195 0.3384 0.3762 0.4221 0.4429 0.4396 0.4512 0.4777 0.5411 0.5958
1417.799 0.6491 0.7017 0.7541 0.8123 0.8378 0.8398 0.8048 0.7986 0.8394 0.8624
1437.089 0.8817 0.9319 1.0453 1.2097 1.3997 1.5597 1.5597 1.4097 1.1997 0.9954
1456.378 0.8673 0.74 0.6195 0.5464 0.5239 0.5117 0.4883 0.4267 0.3812 0.3962
1475.668 0.3985 0.3841 0.3908 0.3671 0.3428 0.3734 0.3819 0.3745 0.3725 0.3799
1494.958 0.366 0.3414 0.3476 0.3363 0.2826 0.2966 0.3442 0.3112 0.3106 0.3024
1514.248 0.2965 0.316 0.2924 0.264 0.2746 0.3233 0.3198 0.297 0.2772 0.2396
1533.538 0.3073 0.3914 0.3926 0.3757 0.3659 0.4281 0.4829 0.4375 0.3903 0.396
1552.827 0.4256 0.483 0.4893 0.498 0.5178 0.4863 0.5303 0.6195 0.6837 0.7466
1572.117 0.7817 0.7898 0.8941 1.0163 1.0873 1.1097 1.1297 1.2197 1.2597 1.2997
1591.407 1.3797 1.3897 1.4497 1.4897 1.4997 1.4597 1.2697 1.0326 0.8493 0.7289
1610.697 0.6763 0.6381 0.6054 0.5695 0.5522 0.5556 0.558 0.5488 0.5184 0.5163
1629.986 0.5173 0.5368 0.5852 0.6149 0.7086 0.7922 0.7768 0.8002 0.863 0.9243
1649.276 0.9575 1.0435 1.1897 1.2397 1.2897 1.4397 1.6097 1.7897 2.0197 2.2697
1668.566 2.6097 3.0597 3.6597 4.4597 5.4597 6.6697 7.8997 8.8697 9.3697 9.2697
1687.856 8.5797 7.5597 6.4497 5.4297 4.5597 3.8497 3.3197 2.8897 2.5497 2.1997
1707.146 1.8997 1.6897 1.5197 1.3297 1.1797 1.0975 1.0171 0.9569 0.8675 0.7807
1726.435 0.7247 0.6411 0.5817 0.5409 0.5225 0.4978 0.4848 0.479 0.4434 0.4126
1745.725 0.4156 0.3863 0.3568 0.3307 0.3138 0.3387 0.3598 0.3466 0.3226 0.3045
1765.015 0.3101 0.3215 0.3065 0.3414 0.3585 0.3208 0.3089 0.3019 0.2883 0.2755
1784.305 0.2677 0.2567 0.2514 0.2925 0.2964 0.3142 0.3708 0.353 0.3517 0.3875
1803.594 0.3967 0.3982 0.4256 0.4031 0.3675 0.4128 0.4075 0.3745 0.3767 0.3515
1822.884 0.3008 0.3058 0.3628 0.3438 0.3019 0.3185 0.3204 0.3142 0.3181 0.2983
1842.174 0.2636 0.2494 0.2424 0.2472 0.2871 0.3064 0.3184 0.331 0.3511 0.3277
1861.464 0.3037 0.3106 0.31 0.295 0.2629 0.2914 0.2917 0.282 0.3221 0.312
1880.754 0.2892 0.3312 0.3499 0.3493 0.3608 0.3398 0.3441 0.349 0.3271 0.3306
1900.043 0.3589 0.3502 0.3182 0.3167 0.3503 0.3472 0.2978 0.3002 0.3212 0.3043
1919.333 0.2823 0.2641 0.2183 0.23 0.2779 0.2446 0.2195 0.2586 0.273 0.2731
1938.623 0.2484 0.19509 0.2171 0.257 0.2786 0.3133 0.3607 0.3626 0.332 0.3397
1957.913 0.3625 0.3502 0.317 0.2835 0.2877 0.3074 0.3206 0.2957 0.2651 0.2753
1977.202 0.2489 0.2312 0.2043 0.2094 0.2381 0.2339 0.2458 0.2458 0.2282 0.2286
1996.492 0.2184 0.2295 0.2348 0.2341 0.2347 0.2384 0.2611 0.2621 0.2807 0.2589
2015.782 0.2221 0.2185 0.2248 0.2402 0.2136 0.18443 0.1831 0.18235 0.2129 0.2384
2035.072 0.2634 0.2555 0.2402 0.2062 0.1626 0.19551 0.2395 0.2662 0.2083 0.17811
2054.362 0.2202 0.2262 0.2248 0.2427 0.2421 0.2419 0.2298 0.17192 0.15956 0.19696
2073.651 0.19208 0.19323 0.2 0.19088 0.19533 0.2194 0.206 0.17674 0.19093 0.224
2092.941 0.2592 0.234 0.2116 0.2067 0.19952 0.18167 0.16037 0.15748 0.18888 0.2245
2112.231 0.202 0.14509 0.1507 0.2115 0.202 0.18709 0.2148 0.2275 0.2098 0.19496
2131.521 0.224 0.19808 0.2137 0.2291 0.17871 0.2088 0.2242 0.17712 0.16452 0.17885
2150.810 0.2042 0.2374 0.2204 0.18716 0.18284 0.2409 0.285 0.2349 0.19576 0.1998
2170.100 0.2079 0.2183 0.204 0.2284 0.2798 0.2323 0.18128 0.15012 0.12026 0.19046
2189.390 0.2098 0.19889 0.2366 0.2274 0.19274 0.16594 0.19403 0.2167 0.18271 0.2053
2208.680 0.2309 0.2024 0.2009 0.2217 0.2024 0.18689 0.18044 0.19001 0.2065 0.1745
2227.970 0.16742 0.2125 0.2035 0.209 0.2603 0.2482 0.2099 0.2126 0.1954 0.16149
2247.259 0.16955 0.16066 0.15677 0.19155 0.2261 0.18892 0.13474 0.2129 0.2528 0.2121
2266.549 0.2323 0.2647 0.2732 0.2788 0.2608 0.2379 0.241 0.232 0.2224 0.2503
2285.839 0.2543 0.2173 0.2114 0.2306 0.2916 0.2924 0.2474 0.2793 0.2703 0.2113
2305.129 0.2146 0.19544 0.2066 0.2656 0.243 0.2631 0.2948 0.2762 0.27 0.2771
2324.418 0.2609 0.2043 0.2047 0.2167 0.2548 0.2593 0.19617 0.2083 0.2327 0.2469
2343.708 0.26 0.2316 0.17895 0.15288 0.1935 0.2471 0.2271 0.17136 0.16772 0.1992
2362.998 0.2039 0.2068 0.2377 0.2538 0.2302 0.2498 0.2803 0.2108 0.19206 0.2356
2382.288 0.2612 0.2963 0.289 0.2642 0.2458 0.19014 0.17795 0.2068 0.2172 0.2276
2401.578 0.2183 0.2344 0.2451 0.2407 0.204 0.2083 0.2627 0.2574 0.2527 0.2893
2420.867 0.3042 0.2402 0.2198 0.2397 0.235 0.2127 0.2125 0.221 0.2253 0.2289
2440.157 0.2365 0.2202 0.2044 0.2069 0.2291 0.2648 0.233 0.18143 0.17013 0.18051
2459.447 0.1516 0.15401 0.19706 0.18302 0.16885 0.2273 0.2405 0.2288 0.2478 0.2283
2478.737 0.18785 0.18132 0.2344 0.2294 0.18632 0.16362 0.14693 0.19247 0.19112 0.16702
2498.026 0.2105 0.239 0.2404 0.2421 0.208 0.2012 0.18783 0.2128 0.3027 0.2753
2517.316 0.2226 0.2381 0.2544 0.2233 0.17449 0.12968 0.17216 0.2158 0.18073 0.19188
2536.606 0.17889 0.2082 0.2014 0.1645 0.2535 0.2448 0.16805 0.17 0.1929 0.2625
2555.896 0.2677 0.2082 0.19107 0.18128 0.2039 0.214 0.19044 0.19582 0.2252 0.2844
2575.186 0.2691 0.2228 0.2267 0.2461 0.2614 0.26 0.2467 0.17657 0.1693 0.2245
2594.475 0.2624 0.2715 0.245 0.2025 0.2276 0.2736 0.2605 0.2148 0.2064 0.16639
2613.765 0.2096 0.231 0.14179 0.18972 0.2701 0.3152 0.2938 0.2114 0.16879 0.17237
2633.055 0.17323 0.18639 0.19672 0.17986 0.16588 0.16048 0.19545 0.2055 0.18268 0.2366
2652.345 0.2806 0.2539 0.18656 0.14849 0.14598 0.13166 0.13431 0.1497 0.15264 0.2175
2671.634 0.2708 0.2612 0.2633 0.2291 0.2256 0.2688 0.228 0.19633 0.19373 0.18253
2690.924 0.16268 0.2 0.2425 0.2026 0.2007 0.2328 0.19824 0.16301 0.17694 0.16881
2710.214 0.14858 0.16459 0.1637 0.1818 0.15736 0.1452 0.2154 0.2223 0.19965 0.1833
2729.504 0.18262 0.2016 0.2187 0.15499 0.2247 0.2712 0.1998 0.1862 0.17626 0.17739
2748.794 0.17643 0.18679 0.1747 0.14744 0.2084 0.2266 0.18957 0.18632 0.2207 0.2587
2768.083 0.2358 0.2248 0.18507 0.17002 0.2337 0.2209 0.12412 0.09285 0.11633 0.2006
2787.373 0.2306 0.19689 0.19317 0.16017 0.1383 0.17745 0.2133 0.16556 0.2043 0.2589
2806.663 0.2332 0.2496 0.2112 0.2067 0.2483 0.2359 0.2134 0.18538 0.2132 0.2263
2825.953 0.2226 0.2429 0.2587 0.2635 0.2616 0.2399 0.19738 0.15379 0.19825 0.2081
2845.242 0.14363 0.18437 0.2319 0.2461 0.2693 0.2782 0.2685 0.2297 0.2264 0.2496
2864.532 0.2355 0.2173 0.2357 0.3159 0.3655 0.351 0.2934 0.2868 0.2583 0.19185
2883.822 0.2082 0.211 0.2179 0.2274 0.2423 0.215 0.2224 0.2462 0.2427 0.2048
2903.112 0.2055 0.2299 0.13554 0.14754 0.2346 0.2734 0.3074 0.2513 0.16331 0.2002
2922.401 0.19678 0.16817 0.17271 0.15865 0.17164 0.19031 0.2113 0.2572 0.249 0.18077
2941.691 0.1617 0.1639 0.16355 0.19331 0.2173 0.2411 0.2019 0.17631 0.19063 0.19804
2960.981 0.2634 0.2675 0.212 0.15369 0.16217 0.2008 0.15735 0.1518 0.15421 0.1747
2980.271 0.2181 0.2208 0.19401 0.1805 0.2351 0.2227 0.15077 0.17024 0.2376 0.2751
2999.561 0.3216 0.2707 0.2624 0.3418 0.3305 0.3335 0.3625 0.3653 0.3486 0.3703
3018.850 0.3919 0.4508 0.4875 0.4691 0.4544 0.5454 0.7551 0.8536 0.8717 0.8043
3038.140 0.7841 0.8275 0.7661 0.7112 0.6539 0.6293 0.6866 0.7618 0.8238 0.8758
3057.430 0.9283 0.9898 1.1197 1.1897 1.2597 1.4697 1.7597 1.9897 1.9197 1.7397
3076.720 1.6197 1.4597 1.2697 1.1797 1.2997 1.3797 1.3797 1.3297 1.1297 0.991
3096.009 0.9299 0.8049 0.6732 0.6286 0.6046 0.5565 0.4765 0.4241 0.4519 0.362
3115.299 0.3285 0.4332 0.4115 0.334 0.2646 0.2941 0.3317 0.2521 0.2295 0.2223
3134.589 0.2924 0.2976 0.2698 0.3009 0.2256 0.19408 0.2388 0.19942 0.16142 0.15698
3153.879 0.0708 0.11473 0.16304 0.11401 0.12941 0.1516 0.1998 0.2219 0.16657 0.16771
3173.169 0.1245 0.14842 0.2471 0.2232 0.18575 0.16572 0.17669 0.17726 0.2291 0.3114
3192.458 0.299 0.2456 0.2279 0.2461 0.2341 0.2032 0.19166 0.16383 0.2332 0.2739
3211.748 0.2205 0.19203 0.2138 0.2922 0.3008 0.15429 0.1444 0.209 0.11939 0.0692
3231.038 0.18104 0.2416 0.239 0.2634 0.18537 0.15205 0.19466 0.2253 0.2121 0.15728
3250.328 0.11778 0.11399 0.17976 0.2314 0.19231 0.16883 0.2161 0.2295 0.222 0.2387
3269.617 0.2378 0.2134 0.14869 0.13705 0.223 0.2807 0.2761 0.2567 0.16866 0.19637
3288.907 0.2246 0.14621 0.101802 0.13867 0.19701 0.2737 0.3021 0.2435 0.2496 0.2585
3308.197 0.2603 0.2449 0.2306 0.2261 0.2033 0.18249 0.17741 0.17377 0.1999 0.2063
3327.487 0.2936 0.3335 0.2835 0.2878 0.2524 0.2685 0.2956 0.2866 0.3183 0.3229
3346.777 0.3856 0.4125 0.328 0.3161 0.3348 0.3695 0.3422 0.2714 0.2602 0.2457
3366.066 0.2576 0.2851 0.2414 0.2286 0.2248 0.18425 0.18789 0.239 0.2773 0.2978
3385.356 0.3033 0.2549 0.216 0.2176 0.2316 0.2094 0.15367 0.11685 0.2014 0.2683
3404.646 0.2475 0.2773 0.292 0.18705 0.105504 0.2075 0.2876 0.3145 0.3208 0.2866
3423.936 0.2761 0.2294 0.2127 0.207 0.19929 0.2166 0.15343 0.0845 0.15928 0.2148
3443.225 0.18715 0.16993 0.14491 0.2125 0.3336 0.3434 0.348 0.3744 0.2956 0.18402
3462.515 0.19791 0.2031 0.2025 0.252 0.2635 0.2874 0.2589 0.19704 0.2194 0.2352
3481.805 0.243 0.2313 0.3033 0.263 0.0708 0.12431 0.224 0.2144 0.16449 0.19112
3501.095 0.2892 0.19174 0.108224 0.13036 0.16014 0.19719 0.2286 0.2596 0.19764 0.1616
3520.385 0.15914 0.15734 0.11395 0.14797 0.223 0.2091 0.2264 0.2614 0.2551 0.2701
3539.674 0.2408 0.14155 0.13102 0.2082 0.17849 0.13234 0.1674 0.2052 0.1547 0.11185
3558.964 0.14266 0.11903 0.10251 0.11774 0.10213 0.16587 0.19861 0.19159 0.15969 0.13297
3578.254 0.103965 0.138 0.2229 0.1986 0.18986 0.1914 0.19627 0.17493 0.1554 0.11854
3597.544 0.15412 0.2422 0.19078 0.12882 0.2234 0.2674 0.1968 0.17275 0.19625 0.1732
3616.833 0.14426 0.15069 0.14082 0.12908 0.0718 0.106667 0.2102 0.13114 0.0642 0.18182
3636.123 0.3246 0.3064 0.3149 0.2795 0.2604 0.3864 0.3579 0.3053 0.2486 0.2435
3655.413 0.1996 0.16568 0.12972 0.18294 0.2941 0.2282 0.2071 0.13154 0.11403 0.102303
3674.703 0.079 0.15957 0.2447 0.2799 0.2306 0.2039 0.14226 0.11582 0.17233 0.2426
3693.993 0.2775 0.2844 0.3238 0.3237 0.2446 0.17178 0.2465 0.2918 0.2789 0.19792
3713.282 0.107207 0.2007 0.2025 0.13692 0.16224 0.1968 0.2654 0.2186 0.16867 0.2522
3732.572 0.2329 0.2055 0.2947 0.3692 0.2422 0.11232 0.11957 0.101919 0.13762 0.11349
3751.862 0.11918 0.26 0.2988 0.2062 0.16636 0.1584 0.13677 0.2105 0.2015 0.16145
3771.152 0.19018 0.17101 0.17922 0.19786 0.14932 0.1518 0.2679 0.19798 0.0779 0.1511
3790.441 0.2399 0.202 0.19836 0.18907 0.15378 0.15797 0.18411 0.17226 0.0716 0.0133
3809.731 0 0.11695 0.208 0.12655 0.11508 0.18598 0.2288 0.1733 0.0821 0.14635
3829.021 0.2065 0.0871 0.12612 0.17458 0.18788 0.2973 0.19377 0.17399 0.15595 0.15446
3848.311 0.2412 0.2608 0.2388 0.2158 0.2445 0.19644 0.15645 0.17399 0.12216 0.13574
3867.601 0.2199 0.203 0.2213 0.17606 0.105039 0.12271 0.14997 0.2294 0.2268 0.19757
3886.890 0.16565 0.0893 0.0083 0.0119 0.0284 0.09252 0.0892 0.09501 0.2532 0.3505
3906.180 0.2897 0.19647 0.15746 0.0647 0.109347 0.2091 0.1999 0.19843 0.2426 0.2846
3925.470 0.2841 0.2264 0.17475 0.16146 0.2265 0.2377 0.17327 0.15983 0.16783 0.2311
3944.760 0.2043 0.18456 0.2495 0.2839 0.3221 0.3103 0.14622 0.09486 0.09757 0.14517
3964.049 0.2736 0.253 0.2579 0.2735 0.2433 0.19346 0.19502 0.1968 0.13896 0.2194
3983.339 0.2958 0.2939 0.2595 0.14622 0.2204 0.2113 0.105958 0.11809 0.11429 0.0568
##END=
