##TITLE=Biphenylene
##JCAMP-DX=4.24
##DATA TYPE=INFRARED SPECTRUM
##ORIGIN=NIST Mass Spectrometry Data Center
##OWNER=NIST Standard Reference Data Program
Collection (C) 2018 copyright by the U.S. Secretary of Commerce
on behalf of the United States of America. All rights reserved.
##CAS REGISTRY NO=259-79-0
##MOLFORM=C 12 H 8
##$NIST SOURCE=MSDC-IR
##SPECTROMETER/DATA SYSTEM=HP-GC/MS/IRD
##STATE=gas
##XUNITS=1/CM
##YUNITS=ABSORBANCE
##XFACTOR=1.0
##YFACTOR=0.000002600
##DELTAX=4.0
##FIRSTX=550.0
##LASTX=3846.0
##FIRSTY=0.000088
##MAXX=3846
##MINX=550
##MAXY=0.026
##MINY=0
##NPOINTS=825
##XYDATA=(X++(Y..Y))
550.0 34 26 10 15 31 25 0 17 30 13
590.0 9 29 55 113 205 258 266 268 166 62
630.0 21 30 81 124 127 121 95 35 30 35
670.0 27 49 71 71 120 180 274 405 650 1069
710.0 1912 3136 4669 5965 8161 10000 7757 5706 4677 3121
750.0 1961 1175 711 438 274 171 122 85 63 53
790.0 31 46 69 64 70 90 117 133 127 136
830.0 192 244 256 240 178 103 71 65 53 53
870.0 59 65 79 84 85 111 160 238 314 390
910.0 550 545 380 307 235 165 138 188 395 947
950.0 1780 2367 2422 2152 1438 593 219 125 81 64
990.0 55 54 65 89 100 90 86 76 77 89
1030.0 114 134 129 123 102 89 66 56 55 54
1070.0 65 69 58 67 97 124 173 216 249 262
1110.0 309 396 515 601 604 702 886 1301 1780 1830
1150.0 1663 1259 574 143 37 4 4 1 1 2
1190.0 11 16 18 22 13 3 7 20 34 76
1230.0 138 201 320 572 957 1271 1374 1337 1058 595
1270.0 344 272 204 150 99 65 45 35 37 39
1310.0 62 118 197 242 239 204 119 46 25 16
1350.0 15 14 12 15 24 22 23 31 42 51
1390.0 74 143 282 485 671 920 1432 2033 2305 2307
1430.0 2111 1550 1011 765 627 525 407 309 289 288
1470.0 259 221 159 87 47 35 33 27 22 19
1510.0 12 5 3 4 8 11 12 20 21 11
1550.0 12 24 31 41 54 71 105 148 179 205
1590.0 206 195 190 186 191 198 186 175 167 136
1630.0 104 104 120 137 161 173 151 121 90 62
1670.0 54 51 45 45 61 69 71 74 67 63
1710.0 54 46 50 63 94 133 155 155 134 107
1750.0 92 101 133 178 214 231 249 263 254 224
1790.0 191 165 142 120 105 113 165 240 305 329
1830.0 306 250 174 110 78 77 98 135 188 241
1870.0 275 279 263 220 165 121 90 83 96 127
1910.0 191 285 358 370 334 260 154 80 54 41
1950.0 32 28 28 25 22 14 9 14 11 4
1990.0 11 19 19 18 16 14 10 10 14 10
2030.0 11 20 23 23 25 26 24 25 30 23
2070.0 21 29 25 22 23 22 20 28 36 37
2110.0 41 46 51 53 55 54 49 49 42 35
2150.0 34 28 27 32 29 20 18 26 28 23
2190.0 25 19 20 20 16 25 29 32 31 27
2230.0 26 36 45 32 32 38 32 32 34 31
2270.0 19 12 22 32 26 27 29 33 47 60
2310.0 70 72 66 49 38 22 19 20 17 25
2350.0 33 34 37 30 22 26 25 21 17 15
2390.0 19 25 35 40 48 60 63 68 66 51
2430.0 43 40 33 27 26 24 22 25 24 20
2470.0 30 36 31 19 22 34 32 32 46 48
2510.0 44 42 40 43 51 53 54 53 45 54
2550.0 58 53 57 62 68 76 78 74 65 60
2590.0 55 57 53 46 48 43 34 24 17 19
2630.0 34 45 45 45 33 31 37 36 31 28
2670.0 27 26 30 34 43 49 52 53 57 60
2710.0 58 56 56 50 47 46 38 38 31 18
2750.0 7 0 12 30 38 32 23 25 28 35
2790.0 33 22 21 24 26 23 29 27 17 19
2830.0 24 26 31 31 44 62 60 57 71 75
2870.0 75 90 107 110 100 83 75 66 56 56
2910.0 51 48 56 57 48 44 41 38 49 59
2950.0 66 64 79 113 133 150 161 154 157 181
2990.0 194 219 257 317 410 533 660 794 918 983
3030.0 976 914 822 761 812 1024 1422 2053 3000 4149
3070.0 4978 5179 4873 3944 2638 1598 972 607 389 267
3110.0 192 149 129 109 93 82 74 74 64 52
3150.0 61 67 76 83 85 84 80 81 69 59
3190.0 50 44 33 35 56 46 48 57 53 49
3230.0 43 34 44 63 61 46 43 42 26 24
3270.0 30 28 34 41 46 47 37 32 36 26
3310.0 33 40 25 21 19 9 0 4 17 26
3350.0 36 40 44 39 31 25 15 18 25 26
3390.0 36 18 13 31 28 19 8 22 28 16
3430.0 20 37 32 26 19 12 24 48 50 21
3470.0 22 38 37 45 54 63 60 52 51 29
3510.0 12 4 23 42 27 28 21 27 39 33
3550.0 35 38 43 42 31 22 25 31 38 41
3590.0 32 34 45 33 38 43 27 29 31 37
3630.0 45 36 30 47 42 41 43 34 68 99
3670.0 86 62 53 59 75 63 47 46 31 23
3710.0 38 28 19 24 31 35 22 23 31 48
3750.0 52 50 43 35 49 62 54 47 64 76
3790.0 66 54 56 37 28 29 16 25 46 52
3830.0 68 71 38 29 48
##END=
