##TITLE=Terrazole
##JCAMP-DX=4.24
##DATA TYPE=INFRARED SPECTRUM
##ORIGIN=NIST Mass Spectrometry Data Center
##OWNER=NIST Standard Reference Data Program
Collection (C) 2018 copyright by the U.S. Secretary of Commerce
on behalf of the United States of America. All rights reserved.
##CAS REGISTRY NO=2593-15-9
##MOLFORM=C 5 H 5 Cl 3 N 2 O S
##$NIST SOURCE=MSDC-IR
##SPECTROMETER/DATA SYSTEM=HP-GC/MS/IRD
##STATE=gas
##XUNITS=1/CM
##YUNITS=ABSORBANCE
##XFACTOR=1.0
##YFACTOR=0.000001300
##DELTAX=4.0
##FIRSTX=550.0
##LASTX=3846.0
##FIRSTY=0.000235
##MAXX=3846
##MINX=550
##MAXY=0.013
##MINY=0
##NPOINTS=825
##XYDATA=(X++(Y..Y))
550.0 181 77 0 124 95 41 131 101 103 107
590.0 131 193 151 160 209 186 112 132 218 134
630.0 25 33 67 46 27 77 103 95 153 203
670.0 201 294 476 645 909 1230 1459 1572 1509 1215
710.0 864 575 425 376 378 437 611 888 1262 1531
750.0 1516 1359 1133 918 804 754 796 916 1112 1471
790.0 1962 2541 3054 3095 2649 2163 1975 2115 2387 2734
830.0 2801 2448 1860 1346 1103 1108 1365 1704 2040 2231
870.0 2102 1709 1210 830 606 451 352 280 251 240
910.0 285 298 255 208 166 220 244 241 221 191
950.0 249 292 276 253 257 274 278 337 442 573
990.0 705 880 1189 1520 1730 1774 1665 1480 1264 1108
1030.0 940 778 689 571 513 509 450 363 289 318
1070.0 418 376 324 373 393 464 566 516 389 338
1110.0 277 215 226 226 187 152 134 135 100 93
1150.0 82 62 86 112 83 63 75 69 84 144
1190.0 228 312 428 610 888 1267 1692 2090 2421 2539
1230.0 2434 2455 2788 3276 3644 3512 2801 1907 1170 721
1270.0 496 400 413 418 466 640 905 1295 1846 2517
1310.0 3138 3427 3155 2357 1450 811 484 361 351 428
1350.0 598 867 1137 1219 1065 785 568 552 721 1007
1390.0 1272 1344 1207 957 715 557 477 464 523 649
1430.0 839 1103 1466 1958 2477 2873 3006 2880 2619 2320
1470.0 2083 1890 1649 1371 1111 938 890 964 1160 1609
1510.0 2543 4194 6531 8885 10000 9030 6454 3742 2003 1228
1550.0 878 686 548 492 471 437 402 373 338 307
1590.0 291 281 268 254 269 279 248 218 211 210
1630.0 179 140 135 136 117 95 87 110 122 107
1670.0 108 96 67 54 61 57 44 36 32 57
1710.0 73 57 46 56 78 72 54 55 67 76
1750.0 81 82 58 51 58 52 45 44 39 37
1790.0 36 23 39 49 48 54 46 35 47 54
1830.0 46 66 79 58 51 61 69 73 78 88
1870.0 77 69 69 68 75 58 51 46 43 42
1910.0 51 67 68 63 58 49 48 47 49 76
1950.0 81 69 49 46 67 70 66 59 65 61
1990.0 45 46 57 58 63 68 69 81 74 54
2030.0 50 65 75 79 95 90 83 80 62 57
2070.0 65 68 77 55 41 58 66 68 50 36
2110.0 48 64 72 74 77 64 50 44 46 49
2150.0 43 52 52 45 58 62 48 53 58 62
2190.0 76 84 77 62 63 76 85 74 75 87
2230.0 67 61 84 91 68 55 62 67 94 88
2270.0 74 94 100 89 80 67 61 65 42 33
2310.0 48 27 20 53 59 55 58 28 34 57
2350.0 42 22 24 34 48 48 57 42 37 65
2390.0 86 86 68 65 56 54 46 38 57 56
2430.0 67 78 61 56 73 82 88 58 36 73
2470.0 103 79 57 77 72 47 37 39 50 75
2510.0 87 89 89 73 61 65 74 61 61 77
2550.0 107 106 86 96 95 78 64 74 65 69
2590.0 80 75 90 107 91 79 71 67 63 45
2630.0 39 63 92 90 97 106 93 82 107 109
2670.0 81 86 104 110 96 116 137 124 133 125
2710.0 108 123 125 124 131 127 121 118 140 165
2750.0 155 151 165 180 185 185 158 150 148 118
2790.0 111 131 130 115 123 130 135 135 136 145
2830.0 152 135 124 139 133 152 183 141 138 151
2870.0 139 185 224 218 240 236 217 240 230 220
2910.0 248 246 256 287 292 320 357 388 445 511
2950.0 521 470 469 482 482 509 541 597 655 687
2990.0 725 740 746 708 627 586 518 431 337 290
3030.0 257 201 171 136 129 131 120 98 82 99
3070.0 112 95 94 92 91 124 100 76 82 98
3110.0 98 80 114 145 110 62 57 109 118 104
3150.0 123 129 149 97 57 99 111 110 135 110
3190.0 72 49 65 85 55 69 94 123 110 104
3230.0 122 106 72 58 85 107 88 54 52 76
3270.0 68 44 89 104 55 66 130 136 138 108
3310.0 74 128 157 108 79 113 85 100 109 80
3350.0 76 80 106 126 141 143 127 126 130 96
3390.0 77 101 131 108 118 73 30 32 39 79
3430.0 101 123 120 60 72 84 63 66 61 115
3470.0 147 136 131 130 83 56 49 42 91 136
3510.0 134 81 80 75 82 114 113 111 102 78
3550.0 53 65 61 64 85 79 71 104 105 73
3590.0 79 88 63 51 62 101 119 92 129 154
3630.0 62 75 124 76 75 68 70 85 89 101
3670.0 64 23 79 131 103 81 103 100 86 97
3710.0 131 141 147 124 116 142 151 156 109 119
3750.0 126 119 141 132 118 115 110 102 137 138
3790.0 128 159 151 118 112 124 134 161 151 89
3830.0 84 67 46 99 101
##END=
