##TITLE=8-Acetoxyquinoline
##JCAMP-DX=4.24
##DATA TYPE=INFRARED SPECTRUM
##ORIGIN=EPA-IR VAPOR PHASE LIBRARY
##OWNER=SRD/NIST
Collection (C) 2018 copyright by the U.S. Secretary of Commerce
on behalf of the United States of America. All rights reserved.
##CAS REGISTRY NO=2598-29-0
##MOLFORM=C 11 H 9 N O 2
##$NIST SOURCE=MSDC-IR
##STATE=gas
##XUNITS=1/CM
##YUNITS=ABSORBANCE
##XFACTOR=1.
##YFACTOR=0.001
##DELTAX=1.92898
##FIRSTX=549.8
##LASTX=4000.7
##FIRSTY=7.109
##MAXX=4000.7
##MINX=549.759
##MAXY=0.374379
##MINY=0
##NPOINTS=1790
##XYDATA=(X++(Y..Y))
549.759 7.109 7.949 8.259 9.459 10.639 10.739 10.769 10.569 10.139 9.779
569.049 8.869 8.169 7.069 5.829 5.229 4.929 4.949 5.289 5.519 5.839
588.339 6.229 6.439 6.619 6.679 6.439 5.709 4.819 4.189 3.519 2.759
607.628 2.699 2.649 2.299 2.519 2.729 2.989 2.909 2.689 2.929 2.689
626.918 2.539 2.419 2.049 1.879 1.839 1.789 1.769 1.609 1.539 1.859
646.208 1.929 1.879 1.969 2.229 2.579 2.469 2.609 2.889 2.789 2.819
665.498 2.699 2.209 1.889 1.799 1.699 1.519 1.2768 1.3339 1.1907 1.0413
684.787 1.027 0.8169 0.9558 1.0696 1.2069 1.389 1.469 1.679 1.749 1.729
704.077 1.779 2.159 2.559 2.699 2.849 3.369 4.309 5.179 5.879 6.719
723.367 7.359 7.859 8.689 9.359 9.429 9.029 8.759 9.299 10.309 11.189
742.657 12.589 13.929 15.069 17.549 21.909 24.109 20.499 16.709 15.709 15.099
761.947 14.099 13.259 13.039 13.779 16.479 20.629 25.919 32.299 38.599 44.649
781.236 50.609 57.259 65.269 67.139 58.039 47.749 40.959 34.409 27.599 21.769
800.526 17.079 13.789 12.369 12.049 12.649 13.509 14.309 15.569 16.979 18.329
819.816 18.019 15.849 14.149 12.939 11.429 10.269 9.519 9.029 8.779 8.589
839.106 9.309 10.889 12.679 14.529 16.909 19.509 21.349 22.779 23.889 23.959
858.395 22.909 20.829 17.869 15.059 12.349 9.679 7.569 5.999 5.309 5.049
877.685 4.979 4.839 4.919 5.559 6.099 6.359 6.799 7.169 7.619 8.569
896.975 9.489 10.519 12.439 15.089 17.809 20.479 22.479 23.559 23.489 22.339
916.265 20.329 17.769 14.899 11.849 9.169 7.409 5.969 4.729 4.089 3.739
935.555 3.529 3.199 3.039 2.929 2.489 2.439 2.759 2.979 3.349 3.559
954.844 3.849 3.979 3.879 3.939 3.779 3.629 3.869 4.189 4.499 4.959
974.134 5.359 5.639 5.639 6.049 6.889 7.609 8.349 9.039 10.209 11.699
993.424 13.229 15.149 16.689 18.099 19.189 19.379 19.539 19.289 18.569 17.739
1012.714 17.039 16.829 16.509 16.349 16.269 15.809 15.169 14.279 13.109 12.099
1032.003 11.279 10.569 10.269 10.319 11.259 13.389 16.329 20.109 24.129 27.419
1051.293 29.759 31.339 31.209 30.509 29.429 27.169 24.359 22.629 22.799 23.719
1070.583 26.469 31.069 38.169 46.799 55.529 65.189 74.429 81.129 84.039 83.489
1089.873 79.649 73.839 66.229 56.889 47.109 36.779 28.979 24.899 21.939 19.139
1109.163 16.259 15.249 15.059 13.869 13.199 12.889 12.969 13.529 14.059 14.359
1128.452 14.159 14.079 14.939 15.479 14.939 14.659 14.849 14.769 14.319 14.529
1147.742 15.649 17.439 19.779 22.899 28.389 35.989 44.299 52.959 60.409 66.839
1167.032 72.949 77.099 81.439 87.359 93.749 102.249 116.169 136.999 164.579 198.119
1186.322 233.769 271.939 310.219 341.719 364.009 374.379 370.949 352.289 323.179 285.819
1205.611 244.339 202.549 160.509 125.219 99.859 82.739 69.959 59.299 51.069 45.709
1224.901 42.599 39.399 36.289 35.489 36.969 39.169 41.549 43.189 43.879 44.219
1244.191 42.909 41.199 38.779 34.269 28.409 22.819 18.509 14.899 12.599 11.299
1263.481 9.949 9.189 8.949 8.789 8.759 8.349 7.929 7.719 7.319 7.389
1282.771 7.669 7.519 7.549 7.589 7.509 7.879 8.579 9.449 10.559 12.169
1302.060 14.129 15.859 17.629 19.049 19.819 19.959 19.269 18.139 16.519 14.349
1321.350 12.049 9.949 8.309 7.149 6.459 6.119 6.049 6.249 6.659 7.279
1340.640 8.179 9.509 11.239 13.449 16.239 19.869 24.369 29.499 35.379 41.899
1359.930 48.779 55.659 61.889 66.589 69.359 70.109 68.789 65.749 61.129 55.089
1379.219 48.689 42.909 37.909 33.669 30.119 27.169 24.639 22.489 20.349 18.049
1398.509 15.829 14.079 12.719 11.599 10.749 10.049 9.669 9.549 9.639 9.939
1417.799 10.549 11.149 11.609 12.039 12.289 12.509 12.809 12.949 12.829 12.619
1437.089 12.259 11.899 11.769 11.599 11.459 11.529 11.779 12.129 12.839 14.029
1456.378 15.869 18.619 22.019 25.659 28.779 31.259 33.029 33.869 33.819 32.849
1475.668 31.039 28.759 26.519 25.049 25.059 26.379 28.699 32.119 36.219 39.859
1494.958 42.329 43.129 42.519 40.999 38.179 33.649 27.489 21.099 16.019 12.439
1514.248 10.119 8.629 7.599 6.959 6.379 5.989 5.789 5.469 5.259 5.159
1533.538 5.189 5.139 4.999 4.979 5.009 4.849 4.779 4.969 5.249 5.689
1552.827 6.039 6.549 7.309 8.039 9.069 10.339 11.419 12.509 13.209 13.569
1572.117 13.939 13.859 13.509 13.079 12.649 12.209 11.989 12.239 12.879 13.709
1591.407 14.559 15.239 15.569 15.699 15.379 14.649 13.979 12.949 11.639 10.379
1610.697 9.369 8.699 8.439 8.609 8.739 8.869 9.089 9.319 9.299 8.979
1629.986 8.649 8.289 7.769 7.099 6.269 5.539 5.039 4.579 4.279 4.109
1649.276 3.919 3.719 3.579 3.629 3.759 3.869 4.029 4.019 3.889 3.819
1668.566 3.789 3.769 3.579 3.499 3.549 3.489 3.509 3.599 3.629 3.699
1687.856 3.859 4.089 4.289 4.439 4.609 4.899 5.169 5.479 5.829 6.069
1707.146 6.209 6.289 6.539 6.769 6.889 7.099 7.309 7.469 7.679 8.039
1726.435 8.339 8.619 8.779 8.879 9.199 9.489 9.979 10.699 11.429 12.259
1745.725 13.279 14.289 15.259 16.179 16.919 17.609 18.419 19.279 20.279 21.529
1765.015 22.989 24.999 27.949 32.169 38.049 45.749 55.779 68.089 81.899 96.149
1784.305 110.159 124.269 138.659 151.289 155.929 147.919 131.939 115.659 100.949 86.429
1803.594 71.979 58.219 46.149 36.739 29.499 23.839 19.719 16.859 14.819 13.199
1822.884 11.969 11.029 10.109 9.219 8.479 7.909 7.249 6.609 6.199 5.889
1842.174 5.739 5.699 5.659 5.649 5.699 5.799 5.829 5.859 5.979 5.959
1861.464 5.819 5.789 5.769 5.589 5.399 5.229 5.029 4.969 4.889 4.619
1880.754 4.379 4.249 4.079 3.809 3.539 3.439 3.369 3.259 3.299 3.349
1900.043 3.419 3.659 3.969 4.309 4.689 5.059 5.219 5.249 5.409 5.429
1919.333 5.319 5.109 4.799 4.539 4.239 4.069 3.899 3.739 3.729 3.719
1938.623 3.649 3.649 3.619 3.599 3.459 3.159 3.029 2.859 2.609 2.379
1957.913 2.199 2.019 1.919 1.839 1.729 1.729 1.739 1.639 1.699 1.679
1977.202 1.629 1.749 1.749 1.679 1.669 1.579 1.539 1.519 1.549 1.759
1996.492 1.809 1.739 1.759 1.829 1.769 1.769 1.899 1.949 1.959 1.989
2015.782 2.029 2.039 1.999 2.079 2.099 2.049 2.159 2.259 2.169 2.159
2035.072 2.289 2.379 2.449 2.519 2.589 2.559 2.589 2.719 2.699 2.569
2054.362 2.539 2.519 2.259 2.129 2.099 1.979 1.829 1.659 1.599 1.519
2073.651 1.459 1.489 1.479 1.469 1.429 1.349 1.379 1.509 1.619 1.659
2092.941 1.749 1.799 1.829 1.909 1.999 2.029 2.079 2.129 2.189 2.129
2112.231 1.889 1.869 1.879 1.869 1.809 1.819 1.869 1.849 1.879 1.789
2131.521 1.759 1.739 1.649 1.609 1.569 1.629 1.709 1.609 1.459 1.389
2150.810 1.399 1.409 1.409 1.479 1.489 1.509 1.569 1.509 1.469 1.499
2170.100 1.489 1.419 1.389 1.3305 1.2453 1.2011 1.0856 1.0931 1.0583 1.0277
2189.390 1.0244 0.9646 1.0218 0.9944 0.9162 0.8966 0.8476 0.9856 1.076 0.9345
2208.680 0.8647 0.9178 0.9842 1.0817 1.1092 0.9662 0.9996 1.1345 1.0677 0.9841
2227.970 1.0279 0.9952 0.9013 0.9437 0.9268 0.8911 0.9675 1.0125 1.0452 0.9874
2247.259 0.9929 0.9521 0.8833 0.9996 1.0414 1.0525 1.1521 1.2153 1.2252 1.2072
2266.549 1.1213 1.0443 1.0352 1.0375 1.0059 1.0201 1.131 1.1468 0.9442 0.9344
2285.839 0.9978 1.0819 1.1887 1.1014 1.1132 1.1253 1.0318 0.9461 0.9156 0.9108
2305.129 0.9068 0.9825 0.9959 0.9818 1.0747 1.1291 1.1819 1.2415 1.2292 1.302
2324.418 1.429 1.3177 1.2356 1.369 1.509 1.419 1.2419 1.1886 1.0685 1.1373
2343.708 1.1692 0.9707 0.8364 0.9509 1.0442 0.9041 1.0651 1.1876 1.0773 1.0706
2362.998 1.0583 1.1322 1.1501 1.1997 1.2923 1.2741 1.3009 1.349 1.409 1.3235
2382.288 1.2742 1.1861 1.1375 1.1768 1.024 1.1195 1.1639 0.9948 1.0676 1.1085
2401.578 1.1932 1.2581 1.1126 1.0733 1.0758 1.0597 1.0456 1.0597 1.0551 1.0019
2420.867 0.9984 1.1085 1.0604 0.9317 1.0172 1.061 1.0744 1.1567 1.1444 1.0995
2440.157 1.0863 1.1113 0.9779 0.7967 0.8919 0.9865 0.9203 0.8931 0.935 0.9954
2459.447 1.0647 1.0619 1.0151 1.0583 1.1212 1.1306 1.1748 1.2648 1.2508 1.1168
2478.737 1.1226 1.1874 1.2728 1.0722 0.8358 0.9693 0.9758 0.9492 1.0773 1.0094
2498.026 0.8834 0.8935 0.7545 0.6833 0.8069 0.7998 0.7919 0.8162 0.7512 0.7299
2517.316 0.7538 0.7166 0.6647 0.6779 0.7369 0.8266 0.8102 0.7849 0.7703 0.6684
2536.606 0.7078 0.9241 0.9445 0.915 0.9755 0.8641 0.9095 1.0219 1.03 0.9773
2555.896 0.9668 0.9576 0.9476 1.094 1.0953 0.9216 0.8146 0.8899 0.9226 0.9263
2575.186 0.997 0.9829 0.9164 0.818 0.8386 0.921 0.9075 0.9857 0.9418 0.8283
2594.475 0.8965 1.0179 1.0763 0.9164 0.8251 0.8621 0.8322 0.7155 0.621 0.6831
2613.765 0.8262 0.9174 0.8708 0.7669 0.84 0.9268 0.8344 0.9023 0.9056 0.7726
2633.055 0.7761 0.7516 0.6218 0.5963 0.6278 0.6379 0.695 0.6497 0.6241 0.7344
2652.345 0.6948 0.6434 0.8076 0.8875 0.7587 0.7249 0.6872 0.5848 0.6318 0.7316
2671.634 0.7484 0.6528 0.6819 0.7388 0.7224 0.6633 0.616 0.6568 0.6473 0.6809
2690.924 0.643 0.6374 0.7499 0.6894 0.7165 0.7857 0.7161 0.7641 0.7969 0.7319
2710.214 0.6622 0.7355 0.8664 0.8614 0.8097 0.6454 0.5818 0.6504 0.6257 0.488
2729.504 0.5128 0.6553 0.5421 0.5791 0.7555 0.6192 0.5379 0.5995 0.6835 0.7069
2748.794 0.6097 0.5742 0.6035 0.6108 0.6514 0.6868 0.6357 0.6981 0.8113 0.7267
2768.083 0.6365 0.6886 0.801 0.8155 0.8045 0.8484 0.7524 0.5591 0.6041 0.7214
2787.373 0.7788 0.8539 0.8412 0.7467 0.4918 0.7062 0.9034 0.7629 0.7145 0.6722
2806.663 0.6608 0.5233 0.42295 0.4703 0.5678 0.7411 0.8192 0.669 0.6546 0.6189
2825.953 0.6368 0.7868 0.7772 0.6932 0.6684 0.8184 1.0022 1.0455 1.1224 1.2949
2845.242 1.3041 1.1555 1.1071 1.2345 1.379 1.459 1.349 1.2724 1.1769 1.272
2864.532 1.369 1.0645 0.9511 1.0491 1.0772 1.0281 0.8127 0.8324 0.947 0.9366
2883.822 0.9906 1.0141 1.1293 1.0515 0.9921 1.1308 1.0997 1.1025 1.1979 1.2175
2903.112 1.1412 1.1121 1.0475 1.0918 1.2412 1.1144 1.0896 1.2608 1.509 1.719
2922.401 1.699 1.849 2.169 2.209 2.259 2.399 2.479 2.759 3.389 3.769
2941.691 3.919 4.269 4.539 5.039 5.489 5.339 5.159 5.039 4.589 4.139
2960.981 3.829 3.509 3.179 2.989 2.989 2.969 2.839 2.679 2.759 2.799
2980.271 2.819 2.849 2.919 3.149 3.329 3.469 3.609 3.829 4.159 4.289
2999.561 4.659 5.379 6.119 6.559 6.959 7.719 8.579 9.319 10.099 10.989
3018.850 11.649 12.209 12.599 13.109 13.649 13.989 14.749 15.509 15.989 16.619
3038.140 17.159 17.809 18.659 19.819 21.379 23.009 24.629 26.149 27.209 27.779
3057.430 28.189 28.699 28.989 28.669 27.789 26.729 25.719 24.959 24.149 22.669
3076.720 21.009 19.369 17.349 15.519 14.229 13.179 12.239 11.319 10.479 9.769
3096.009 9.069 8.489 7.759 6.839 6.259 5.659 4.999 4.309 3.639 3.189
3115.299 2.779 2.409 1.999 1.579 1.359 1.2711 1.3241 1.389 1.379 1.489
3134.589 1.359 1.2206 1.1462 1.1099 1.2188 1.0144 0.8697 0.9632 0.9161 0.8072
3153.879 1.0751 1.2117 1.0778 1.2283 1.3129 1.0909 0.9494 1.0769 1.0729 0.8992
3173.169 0.8271 0.9089 1.1276 1.1094 1.0177 1.0556 1.031 0.9978 0.8715 0.9716
3192.458 1.1958 1.3036 1.349 1.3382 1.1318 1.1009 1.1026 0.8905 0.7846 0.598
3211.748 0.559 0.6914 0.6594 0.7206 0.8238 0.6783 0.7515 0.9449 0.8833 0.7509
3231.038 0.6191 0.4948 0.475 0.464 0.5229 0.7278 0.6715 0.37467 0.5602 0.7324
3250.328 0.6125 0.5509 0.5003 0.5595 0.6128 0.4461 0.22 0.3222 0.6288 0.6379
3269.617 0.5131 0.5489 0.43146 0.3286 0.157 0 0.4564 0.7207 0.33261 0.135
3288.907 0.234 0.2657 0.4654 0.6147 0.4884 0.43714 0.4567 0.2542 0.2557 0.37741
3308.197 0.2589 0.3967 0.39575 0.3955 0.4478 0.39825 0.6137 0.6317 0.5746 0.6099
3327.487 0.5325 0.39437 0.41612 0.42911 0.4839 0.5371 0.4135 0.348249 0.238 0.35535
3346.777 0.2925 0.087 0.37406 0.35631 0.2408 0.345356 0.2815 0.214 0.183 0.034
3366.066 0.16 0.2786 0.174 0.3191 0.42766 0.4406 0.36933 0.41946 0.5407 0.3028
3385.356 0.1 0.33563 0.36507 0.3118 0.5659 0.6181 0.5794 0.5101 0.4613 0.5976
3404.646 0.7351 0.6645 0.42641 0.35807 0.3007 0.223 0.213 0.2556 0.156 0.096
3423.936 0.36705 0.531 0.361 0.4584 0.5896 0.5132 0.343077 0.34923 0.5503 0.5341
3443.225 0.5584 0.5134 0.2796 0.158 0.234 0.4644 0.563 0.6236 0.7144 0.6887
3462.515 0.8181 0.8532 0.8404 0.7774 0.5776 0.5923 0.6196 0.5489 0.41821 0.348782
3481.805 0.35873 0.4793 0.6105 0.8372 0.8671 0.7516 0.7171 0.494 0.4695 0.35201
3501.095 0.501 0.7935 0.721 0.8418 1.0547 0.9823 0.7528 0.5709 0.667 0.9632
3520.385 0.9439 0.9263 1.0993 1.0238 0.9785 1.0669 1.0197 1.0048 1.0911 1.2589
3539.674 1.2427 0.8909 0.946 1.3044 1.489 1.3171 1.3301 1.739 1.999 2.059
3558.964 1.909 1.989 1.969 1.859 1.919 1.829 1.779 1.749 1.729 1.739
3578.254 1.569 1.359 1.2858 1.0615 0.9614 1.1978 1.1094 0.9426 0.9034 0.8296
3597.544 0.916 0.9793 0.8138 0.6489 0.8461 0.7914 0.6011 0.624 0.7727 0.9973
3616.833 0.8258 0.6646 0.618 0.5086 0.5962 0.744 0.5526 0.4979 0.5928 0.5601
3636.123 0.5009 0.39376 0.4448 0.4644 0.5902 0.6977 0.5465 0.2579 0.217 0.344959
3655.413 0.4083 0.4804 0.494 0.5473 0.5229 0.609 0.5432 0.4942 0.5507 0.39483
3674.703 0.648 0.8458 0.7445 0.5782 0.4723 0.4796 0.35878 0.137 0.087 0.227
3693.993 0.2593 0.3203 0.4757 0.2872 0.121 0.191 0.234 0.286 0.2861 0.346873
3713.282 0.5015 0.6851 0.6927 0.6566 0.6365 0.42207 0.37366 0.42221 0.43818 0.4011
3732.572 0.198 0.199 0.341129 0.523 0.5847 0.543 0.4787 0.3183 0.221 0.208
3751.862 0.41323 0.4546 0.303 0.3634 0.4604 0.4593 0.7407 0.7076 0.346418 0.37697
3771.152 0.41439 0.127 0.06 0.2775 0.328 0.5737 0.7207 0.519 0.3963 0.39166
3790.441 0.5142 0.37353 0.163 0.5242 0.37119 0.131 0.4645 0.5337 0.5143 0.5497
3809.731 0.7219 0.962 0.8734 0.776 0.7399 0.38734 0.079 0.34999 0.6494 0.5785
3829.021 0.613 0.5811 0.5251 0.40931 0.2862 0.3143 0.399 0.5095 0.33257 0.41395
3848.311 0.53 0.5441 0.6324 0.4894 0.284 0.5195 0.8975 0.9131 0.8035 0.7993
3867.601 0.6419 0.515 0.7773 0.6934 0.6836 0.8534 0.6619 0.5499 0.5729 0.6875
3886.890 0.8775 0.665 0.4825 0.5437 0.578 0.5818 0.793 1.0015 0.7559 0.7842
3906.180 0.8582 0.682 0.5508 0.5258 0.6737 0.6352 0.6337 0.8682 0.9926 0.8921
3925.470 0.6105 0.612 0.6842 0.4826 0.5513 0.7322 0.5745 0.616 0.6785 0.7129
3944.760 0.8521 0.8029 0.8373 0.7274 0.5691 0.6455 0.6864 0.7647 0.8704 1.0175
3964.049 0.9853 0.8789 0.9295 1.041 0.8953 0.4835 0.6545 0.7516 0.6223 0.8511
3983.339 0.9899 0.9135 0.9726 0.9113 0.7134 0.6905 0.5161 0.4914 0.43368 0.36478
##END=
