##TITLE=Acridine
##JCAMP-DX=4.24
##DATA TYPE=INFRARED SPECTRUM
##ORIGIN=NIST Mass Spectrometry Data Center
##OWNER=NIST Standard Reference Data Program
Collection (C) 2018 copyright by the U.S. Secretary of Commerce
on behalf of the United States of America. All rights reserved.
##CAS REGISTRY NO=260-94-6
##MOLFORM=C 13 H 9 N
##$NIST SOURCE=MSDC-IR
##SPECTROMETER/DATA SYSTEM=HP-GC/MS/IRD
##STATE=gas
##XUNITS=1/CM
##YUNITS=ABSORBANCE
##XFACTOR=1.0
##YFACTOR=0.000002400
##DELTAX=4.0
##FIRSTX=550.0
##LASTX=3846.0
##FIRSTY=0.000413
##MAXX=3846
##MINX=550
##MAXY=0.024
##MINY=0
##NPOINTS=825
##XYDATA=(X++(Y..Y))
550.0 172 64 5 11 32 56 26 32 97 323
590.0 844 1260 1376 1254 825 558 468 337 274 208
630.0 169 147 133 193 270 283 267 279 222 159
670.0 135 94 58 59 61 91 119 157 233 386
710.0 635 1305 2554 4434 6240 8869 10000 7646 5707 3837
750.0 1995 991 495 343 350 449 598 763 931 914
790.0 720 535 385 333 399 438 444 367 219 168
830.0 247 432 729 1078 1486 1841 1629 1194 861 537
870.0 330 229 209 281 455 754 1067 1432 1827 1615
910.0 1188 949 656 434 270 147 109 142 219 297
950.0 388 490 435 329 254 170 122 123 211 426
990.0 679 780 700 474 226 109 58 35 19 2
1030.0 10 36 50 63 83 75 77 100 132 176
1070.0 178 161 119 78 66 57 87 190 347 467
1110.0 533 551 522 493 499 549 715 820 774 768
1150.0 592 338 216 196 198 178 147 84 35 19
1190.0 32 45 50 73 90 85 72 55 72 82
1230.0 85 93 86 76 64 51 38 38 42 54
1270.0 76 76 78 87 89 77 60 41 44 59
1310.0 70 81 91 96 96 97 103 106 117 128
1350.0 128 121 137 191 278 350 378 358 351 409
1390.0 487 528 504 444 358 262 180 115 93 100
1430.0 114 126 139 167 187 228 287 352 403 430
1470.0 409 340 310 321 339 394 539 872 1537 2525
1510.0 3418 3674 3172 2155 1204 666 423 346 379 512
1550.0 670 774 816 794 738 713 691 639 534 411
1590.0 324 294 312 404 598 987 1559 2029 2109 1773
1630.0 1170 659 420 320 255 204 171 155 137 127
1670.0 121 154 242 305 316 293 243 234 294 375
1710.0 416 389 318 237 177 154 150 155 166 178
1750.0 190 206 202 170 117 79 64 66 81 117
1790.0 179 252 321 361 386 413 445 478 474 399
1830.0 278 167 108 92 112 159 189 183 151 111
1870.0 80 70 65 59 67 93 142 217 283 305
1910.0 287 241 209 212 219 241 287 365 444 446
1950.0 376 261 140 70 47 34 27 33 28 25
1990.0 23 26 34 30 27 33 43 44 41 46
2030.0 45 39 36 34 36 35 26 19 17 10
2070.0 8 11 14 13 12 21 22 25 30 31
2110.0 31 30 28 25 26 23 20 17 16 18
2150.0 18 18 18 14 15 19 15 14 16 23
2190.0 32 37 32 25 25 21 27 34 28 24
2230.0 26 25 21 31 43 43 42 45 56 72
2270.0 90 102 98 82 73 63 53 51 49 52
2310.0 52 44 39 43 44 41 37 27 20 15
2350.0 12 16 23 31 35 34 42 40 44 45
2390.0 38 33 35 37 36 31 24 23 28 33
2430.0 33 33 30 30 26 24 23 27 27 19
2470.0 18 27 24 16 17 12 14 18 24 25
2510.0 20 21 31 37 39 40 30 25 35 42
2550.0 31 26 30 25 27 23 30 35 34 33
2590.0 32 28 23 20 25 26 24 20 9 9
2630.0 17 22 22 18 16 16 13 14 15 11
2670.0 13 18 25 25 23 18 17 20 17 13
2710.0 8 10 19 15 7 4 8 13 10 14
2750.0 22 18 14 30 31 22 25 22 21 18
2790.0 8 2 5 13 15 14 15 12 15 26
2830.0 25 27 45 53 57 66 58 42 41 37
2870.0 36 41 40 40 48 58 71 87 95 94
2910.0 91 89 85 85 83 78 76 82 79 74
2950.0 77 70 76 90 99 114 151 180 213 267
2990.0 335 405 478 544 606 682 788 958 1205 1513
3030.0 1824 2075 2273 2456 2686 2990 3296 3530 3617 3545
3070.0 3422 3337 3329 3286 3032 2568 1970 1331 815 512
3110.0 356 265 211 189 163 141 128 117 109 97
3150.0 93 91 84 82 81 75 71 81 90 77
3190.0 66 68 72 57 44 33 38 41 27 16
3230.0 15 23 30 37 44 37 22 31 43 26
3270.0 11 14 19 22 24 22 17 16 33 35
3310.0 22 21 34 38 37 37 33 30 25 22
3350.0 22 25 30 33 28 23 23 25 22 13
3390.0 15 20 18 15 20 23 15 21 36 32
3430.0 37 28 20 32 32 32 27 31 37 34
3470.0 31 24 24 23 27 25 15 20 13 6
3510.0 22 27 20 11 3 17 39 44 33 12
3550.0 19 18 12 16 11 14 31 31 11 0
3590.0 10 28 32 33 24 16 27 32 44 38
3630.0 24 35 47 55 34 30 46 44 48 39
3670.0 24 41 53 46 40 40 49 71 66 53
3710.0 51 50 52 43 46 38 27 40 26 24
3750.0 30 27 33 28 25 33 42 39 47 42
3790.0 37 51 46 40 49 56 50 37 43 59
3830.0 46 31 21 35 56
##END=
