##TITLE=2,3-Dichloropropanenitrile
##JCAMP-DX=4.24
##DATA TYPE=INFRARED SPECTRUM
##ORIGIN=EPA-IR VAPOR PHASE LIBRARY
##OWNER=SRD/NIST
Collection (C) 2018 copyright by the U.S. Secretary of Commerce
on behalf of the United States of America. All rights reserved.
##CAS REGISTRY NO=2601-89-0
##MOLFORM=C 3 H 3 Cl 2 N
##$NIST SOURCE=MSDC-IR
##STATE=gas
##XUNITS=1/CM
##YUNITS=ABSORBANCE
##XFACTOR=1.
##YFACTOR=0.001
##DELTAX=3.85796
##FIRSTX=501.5
##LASTX=4000.7
##FIRSTY=0.3802
##MAXX=4000.7
##MINX=501.534
##MAXY=0.0300033
##MINY=0
##NPOINTS=908
##XYDATA=(X++(Y..Y))
501.534 0.3802 0.2715 0.3521 0.5236 0.6357 0.7117 0.8301 0.9369 1.0085 0.9944
540.114 1.0144 1.0311 0.9178 0.7672 0.6974 0.4997 0.2074 0.2375 0.365 0.4238
578.693 0.5842 0.8253 0.9699 1.0444 1.1733 1.2233 1.2133 1.2033 1.0404 0.876
617.273 0.7655 0.759 0.8874 1.0285 1.1933 1.4033 1.6133 1.7533 1.8933 2.1333
655.852 2.4433 2.8033 3.2033 3.6033 4.0733 4.6033 5.1433 5.4133 5.3633 5.4533
694.432 5.5633 5.2633 4.7333 4.5433 5.1933 6.9633 10.1433 14.8733 20.3633 25.1833
733.011 28.4033 30.0033 29.6033 26.4533 20.1733 13.4233 9.8333 9.1933 9.5933 10.3433
771.591 11.2633 11.9133 11.9033 11.2933 10.2333 8.4833 6.2433 3.9933 2.3533 1.6133
810.170 1.3833 1.4233 1.6733 2.0333 2.4633 2.9433 3.3533 3.4733 3.3533 3.1833
848.750 2.8933 2.3933 1.8433 1.4033 1.1533 1.0377 0.9855 1.0076 1.045 1.0733
887.330 1.1233 1.1933 1.3533 1.5233 1.7833 2.0833 2.6533 3.3833 3.3933 3.3433
925.909 3.7133 3.9333 3.9533 4.0333 4.2533 4.5633 4.8833 5.2533 5.6733 5.9833
964.489 6.1933 6.4433 6.6533 6.7233 6.7233 6.4833 5.9533 5.4333 4.8533 4.0333
1003.068 3.0933 2.3633 1.8833 1.6033 1.5433 1.5333 1.5833 1.6333 1.6633 1.6633
1041.648 1.5833 1.4933 1.3733 1.2333 1.1433 0.9567 0.8691 0.8549 0.7066 0.579
1080.227 0.4797 0.4618 0.4253 0.3201 0.3445 0.3398 0.3028 0.2665 0.2063 0.2803
1118.807 0.3599 0.3809 0.3748 0.4022 0.5408 0.6889 0.9501 1.3233 1.8033 2.3733
1157.387 2.8233 3.0433 3.0233 2.9133 2.5633 2.1833 2.0733 1.9733 1.9933 2.3433
1195.966 2.9333 3.4333 3.7433 4.0133 3.9433 3.6933 3.1333 2.4333 2.0733 2.0133
1234.546 2.1833 2.5533 3.1233 3.7233 4.2633 4.5733 4.2333 3.7433 3.8333 4.1033
1273.125 4.1833 4.0133 3.7833 3.4133 3.0233 2.5533 2.0833 2.0833 2.5333 3.1733
1311.705 3.8533 4.4933 4.9233 4.8533 4.4733 3.9133 3.1233 2.2433 1.4733 0.9521
1350.284 0.6807 0.5569 0.4913 0.4656 0.4322 0.4083 0.4073 0.4025 0.3956 0.374
1388.864 0.3522 0.357 0.3904 0.4432 0.512 0.6101 0.7845 1.0533 1.4433 1.9133
1427.443 2.4033 3.0133 3.5433 3.7733 3.7833 3.7433 3.4333 2.7733 2.2033 1.6733
1466.023 1.1833 0.8453 0.6047 0.4694 0.4047 0.3647 0.3446 0.3479 0.3195 0.2954
1504.603 0.2861 0.2861 0.3017 0.3007 0.3194 0.3382 0.3451 0.333 0.3024 0.2899
1543.182 0.2609 0.2465 0.261 0.2552 0.2355 0.2511 0.2784 0.305 0.3471 0.3968
1581.762 0.485 0.5691 0.6575 0.7524 0.7889 0.7695 0.7076 0.6895 0.7253 0.7031
1620.341 0.5918 0.4383 0.3178 0.2542 0.1965 0.15059 0.1272 0.12214 0.10498 0.06452
1658.921 0.057675 0.06449 0.05167 0.0288 0.0257 0.018 0.002 0.0063 0.0195 0.0331
1697.500 0.0314 0.034 0.0348 0.0267 0.0175 0.0012 0 0.0118 0.0093 0.0123
1736.080 0.0121 0.0227 0.0376 0.060023 0.07234 0.06452 0.07251 0.08326 0.07199 0.056785
1774.659 0.06908 0.07839 0.07679 0.08502 0.09801 0.12429 0.14532 0.1463 0.1389 0.13077
1813.239 0.15247 0.1835 0.1809 0.1639 0.1549 0.1546 0.1656 0.1837 0.175 0.14078
1851.819 0.13506 0.12263 0.09849 0.08271 0.08298 0.09497 0.08184 0.09071 0.1106 0.10073
1890.398 0.11084 0.13087 0.12111 0.10587 0.10548 0.09916 0.105 0.12104 0.11543 0.1249
1928.978 0.14526 0.13643 0.13859 0.14608 0.14665 0.13543 0.12983 0.13339 0.14537 0.1586
1967.557 0.1668 0.172 0.1615 0.1659 0.1789 0.1794 0.1737 0.1749 0.1792 0.1721
2006.137 0.182 0.1975 0.1907 0.1903 0.1876 0.1813 0.1755 0.1818 0.1854 0.1884
2044.716 0.1999 0.2089 0.2113 0.2096 0.2266 0.2271 0.2024 0.2083 0.2316 0.225
2083.296 0.2345 0.2597 0.2706 0.2735 0.2874 0.2878 0.2724 0.2666 0.2417 0.2377
2121.875 0.2113 0.1908 0.1911 0.1773 0.1919 0.211 0.2122 0.2091 0.2132 0.219
2160.455 0.2218 0.2303 0.2339 0.2345 0.2409 0.2282 0.2262 0.247 0.2545 0.2525
2199.035 0.2656 0.2927 0.3037 0.3076 0.3398 0.3852 0.4548 0.5956 0.7702 0.9412
2237.614 1.1633 1.4233 1.6233 1.7433 1.7533 1.6833 1.5433 1.2833 0.9616 0.6724
2276.194 0.4795 0.3875 0.3284 0.2929 0.2785 0.262 0.2588 0.2435 0.2391 0.2545
2314.773 0.2557 0.2557 0.2661 0.2631 0.2754 0.3068 0.3252 0.3407 0.3488 0.3721
2353.353 0.4025 0.4065 0.4055 0.4193 0.4092 0.3948 0.4176 0.4258 0.4374 0.4885
2391.932 0.5218 0.5618 0.5868 0.5702 0.5482 0.5235 0.5117 0.4932 0.4716 0.4516
2430.512 0.4455 0.421 0.3782 0.3649 0.3625 0.3874 0.4151 0.4386 0.474 0.4865
2469.092 0.51 0.5517 0.5696 0.5756 0.5649 0.5611 0.5426 0.4781 0.4285 0.4096
2507.671 0.3757 0.35 0.3521 0.352 0.3398 0.3394 0.3345 0.3157 0.3472 0.3626
2546.251 0.3477 0.3459 0.3322 0.3205 0.2991 0.2952 0.3019 0.3072 0.3039 0.2803
2584.830 0.2624 0.2431 0.234 0.2646 0.3015 0.2934 0.2868 0.29 0.2652 0.2613
2623.410 0.3192 0.3281 0.2788 0.2753 0.3135 0.3327 0.3296 0.3401 0.3192 0.2521
2661.989 0.2177 0.2402 0.2397 0.2632 0.2962 0.2751 0.291 0.3067 0.2955 0.2862
2700.569 0.3762 0.4272 0.3994 0.39 0.3828 0.3923 0.4884 0.5687 0.487 0.4358
2739.148 0.4192 0.3695 0.4003 0.5112 0.4357 0.3166 0.3152 0.3085 0.3168 0.4603
2777.728 0.4572 0.3155 0.3263 0.3459 0.3737 0.4834 0.4288 0.306 0.3264 0.3028
2816.308 0.3564 0.4746 0.4292 0.3652 0.3551 0.3697 0.4997 0.6134 0.5937 0.5912
2854.887 0.6045 0.6084 0.6823 0.7099 0.6879 0.684 0.6609 0.6177 0.5809 0.5267
2893.467 0.5057 0.4582 0.4072 0.4293 0.3656 0.333 0.3676 0.4046 0.5242 0.5145
2932.046 0.5049 0.6097 0.819 1.2133 1.4733 1.8033 2.3633 2.9933 3.7633 4.0233
2970.626 3.8233 4.1233 4.5033 4.0433 3.3133 2.8333 2.5133 2.0333 1.2533 0.7876
3009.205 0.6872 0.7096 0.6344 0.5445 0.5173 0.5353 0.4823 0.3992 0.421 0.4436
3047.785 0.3854 0.3303 0.3486 0.342 0.3354 0.3497 0.3362 0.3156 0.3108 0.28
3086.364 0.2579 0.2548 0.2603 0.2873 0.3003 0.2825 0.2741 0.2742 0.2785 0.2656
3124.944 0.2487 0.244 0.2464 0.2903 0.2951 0.2761 0.221 0.1999 0.2316 0.2169
3163.524 0.2258 0.2599 0.2786 0.2668 0.267 0.2689 0.1968 0.1888 0.2326 0.226
3202.103 0.2342 0.259 0.2879 0.292 0.2468 0.2399 0.256 0.2489 0.2401 0.1972
3240.683 0.1978 0.2172 0.217 0.2104 0.2232 0.2434 0.2316 0.2612 0.2735 0.2586
3279.262 0.2515 0.2201 0.1965 0.1886 0.1974 0.2008 0.1981 0.168 0.1743 0.2298
3317.842 0.2474 0.2654 0.242 0.2246 0.2424 0.2062 0.1633 0.1609 0.1588 0.1348
3356.421 0.14721 0.1711 0.1852 0.2271 0.2099 0.1618 0.14182 0.1676 0.2014 0.1609
3395.001 0.12938 0.13925 0.14868 0.13906 0.14386 0.1415 0.12647 0.10388 0.13584 0.1678
3433.580 0.1579 0.1596 0.1536 0.158 0.15003 0.1879 0.2306 0.2093 0.1629 0.12537
3472.160 0.11129 0.14474 0.1639 0.1701 0.1734 0.143 0.171 0.2088 0.1843 0.13824
3510.740 0.1549 0.15292 0.13382 0.1593 0.1689 0.1819 0.1536 0.12248 0.1849 0.2278
3549.319 0.1965 0.1772 0.1889 0.13107 0.13537 0.1974 0.1931 0.2043 0.1605 0.12248
3587.899 0.12796 0.139 0.12562 0.12438 0.1849 0.1949 0.1633 0.1636 0.1602 0.13482
3626.478 0.1726 0.2171 0.1846 0.176 0.2031 0.2402 0.2374 0.1671 0.12974 0.14678
3665.058 0.1679 0.1534 0.1568 0.2182 0.2017 0.1812 0.2098 0.14993 0.12899 0.1841
3703.637 0.224 0.2511 0.2181 0.1906 0.2073 0.2218 0.2274 0.2272 0.2211 0.2074
3742.217 0.2391 0.2999 0.3315 0.3061 0.2841 0.285 0.2706 0.2622 0.2447 0.2093
3780.797 0.2152 0.2325 0.2282 0.2417 0.2109 0.1956 0.2284 0.2372 0.2415 0.2031
3819.376 0.187 0.2467 0.2673 0.2098 0.1734 0.2221 0.2466 0.1702 0.13658 0.1665
3857.956 0.1789 0.2437 0.2318 0.1676 0.2091 0.2233 0.181 0.1827 0.2025 0.2406
3896.535 0.2141 0.1725 0.1903 0.1665 0.1725 0.2226 0.2505 0.2055 0.1865 0.232
3935.115 0.1762 0.2076 0.2434 0.2262 0.2616 0.2447 0.23 0.2207 0.2183 0.2231
3973.694 0.2723 0.2591 0.1798 0.12575 0.1907 0.241 0.2309 0.2983
##END=
