##TITLE=2,3,5,6-Tetramethylbenzoic acid
##JCAMP-DX=4.24
##DATA TYPE=INFRARED SPECTRUM
##ORIGIN=EPA-IR VAPOR PHASE LIBRARY
##OWNER=SRD/NIST
Collection (C) 2018 copyright by the U.S. Secretary of Commerce
on behalf of the United States of America. All rights reserved.
##CAS REGISTRY NO=2604-45-7
##MOLFORM=C 11 H 14 O 2
##$NIST SOURCE=MSDC-IR
##STATE=gas
##XUNITS=1/CM
##YUNITS=ABSORBANCE
##XFACTOR=1.
##YFACTOR=0.001
##DELTAX=1.929
##FIRSTX=549.8
##LASTX=4000.8
##FIRSTY=2.884
##MAXX=4000.75
##MINX=549.766
##MAXY=0.086184
##MINY=0
##NPOINTS=1790
##XYDATA=(X++(Y..Y))
549.766 2.884 2.984 3.184 3.414 3.504 3.354 3.754 4.484 4.874 5.284
569.056 5.784 6.494 7.164 7.764 8.324 8.554 9.074 9.944 10.684 11.634
588.346 12.774 13.994 15.054 15.874 16.494 16.874 17.114 16.904 15.604 13.494
607.636 11.434 9.514 7.864 6.394 5.164 4.404 3.884 3.414 3.114 2.934
626.926 2.744 2.784 2.924 2.904 2.994 3.254 3.504 4.134 5.504 7.404
646.216 9.564 11.674 12.844 13.714 14.804 14.084 12.794 11.894 10.074 7.784
665.506 6.054 5.074 4.754 4.944 5.424 6.204 6.934 7.434 7.784 7.884
684.796 7.604 7.094 6.374 5.514 4.514 3.604 2.984 2.514 2.214 2.024
704.086 1.844 1.774 1.654 1.654 1.604 1.3705 1.3021 1.33 1.394 1.384
723.376 1.464 1.584 1.734 1.884 2.154 2.564 2.914 3.444 4.004 4.614
742.666 5.164 5.454 5.594 5.434 5.164 4.904 4.424 3.824 3.204 2.724
761.956 2.354 1.984 1.814 1.734 1.634 1.474 1.494 1.564 1.474 1.554
781.246 1.664 1.694 1.674 1.734 1.814 1.794 1.774 1.654 1.574 1.574
800.536 1.494 1.514 1.524 1.474 1.424 1.307 1.3102 1.2873 1.1557 1.1007
819.826 0.9799 0.9681 1.0027 0.9271 0.964 1.1025 1.1449 1.2224 1.3086 1.524
839.116 1.764 1.884 2.124 2.334 2.444 2.564 2.714 2.844 2.934 3.054
858.406 3.284 3.454 3.624 3.834 4.014 4.394 4.714 4.654 4.224 3.594
877.696 3.154 2.914 2.654 2.294 1.984 1.764 1.634 1.494 1.464 1.3828
896.986 1.2444 1.2334 1.2498 1.1772 1.0932 1.0981 1.136 1.1141 1.1254 1.2033
916.276 1.1391 1.0513 1.0188 1.1427 1.1524 0.9972 1.0056 1.0037 0.9745 1.0604
935.566 1.1053 1.0251 0.9958 1.009 1.107 1.1776 1.121 1.0878 1.1592 1.2482
954.856 1.2816 1.384 1.434 1.434 1.574 1.724 1.784 1.824 1.914 2.084
974.146 2.244 2.394 2.584 2.824 3.114 3.304 3.534 3.854 4.234 4.644
993.436 5.134 5.674 6.244 7.034 7.884 8.654 9.444 10.204 10.864 11.384
1012.726 11.784 12.004 12.054 11.914 11.734 11.454 11.054 10.614 10.134 9.654
1032.016 9.124 8.714 8.284 7.854 7.434 6.974 6.734 6.474 6.224 6.074
1051.306 5.884 5.734 5.584 5.464 5.304 5.244 5.264 5.254 5.264 5.314
1070.596 5.414 5.504 5.614 5.794 5.924 6.044 6.184 6.254 6.344 6.444
1089.886 6.554 6.744 6.954 7.204 7.544 7.934 8.524 9.264 10.264 11.654
1109.176 13.344 15.454 18.164 21.474 25.544 30.434 35.774 41.264 46.884 52.264
1128.467 56.894 60.274 61.934 61.464 58.704 53.904 47.874 41.544 35.234 29.294
1147.757 23.964 19.494 16.164 13.674 11.764 10.444 9.614 8.964 8.434 8.234
1167.047 8.044 7.744 7.474 7.204 6.934 6.594 6.274 5.904 5.554 5.234
1186.337 5.074 4.974 4.794 4.764 4.724 4.724 4.914 5.144 5.424 5.914
1205.627 6.664 7.394 8.044 8.784 9.454 9.954 10.194 9.934 9.184 8.404
1224.917 7.644 6.764 5.884 5.194 4.784 4.404 4.164 4.014 3.904 3.954
1244.207 4.124 4.244 4.274 4.464 4.664 4.744 4.894 5.064 5.174 5.214
1263.497 5.234 5.134 4.924 4.734 4.554 4.264 4.004 3.884 3.754 3.604
1282.787 3.594 3.764 4.034 4.294 4.694 5.254 5.934 6.704 7.604 8.664
1302.077 9.774 10.884 11.924 12.984 13.884 14.454 14.684 14.594 14.314 13.934
1321.367 13.264 12.394 11.464 10.464 9.484 8.554 7.694 6.934 6.304 5.874
1340.657 5.574 5.284 5.124 5.064 4.944 4.864 4.854 4.884 4.924 5.014
1359.947 5.154 5.274 5.454 5.674 6.024 6.494 6.974 7.504 8.034 8.414
1379.237 8.674 8.734 8.624 8.434 8.154 7.744 7.264 6.914 6.684 6.514
1398.527 6.404 6.274 6.104 5.904 5.634 5.354 5.054 4.714 4.404 4.084
1417.817 3.794 3.614 3.454 3.384 3.434 3.464 3.594 3.814 4.094 4.454
1437.107 4.814 5.214 5.664 6.094 6.534 6.994 7.454 7.934 8.364 8.814
1456.397 9.294 9.764 10.314 10.874 11.414 11.854 12.144 12.304 12.224 11.904
1475.687 11.344 10.594 9.704 8.714 7.694 6.764 5.944 5.214 4.674 4.234
1494.977 3.874 3.654 3.544 3.374 3.194 3.134 3.084 2.954 2.874 2.824
1514.267 2.744 2.704 2.674 2.614 2.564 2.534 2.524 2.494 2.434 2.434
1533.557 2.394 2.364 2.424 2.414 2.354 2.394 2.394 2.344 2.264 2.214
1552.847 2.214 2.244 2.284 2.294 2.274 2.274 2.264 2.244 2.224 2.154
1572.137 2.104 2.134 2.204 2.154 2.024 1.954 1.984 1.994 1.944 1.954
1591.427 1.984 2.014 2.024 2.014 2.084 2.114 2.084 2.044 1.984 1.914
1610.717 1.824 1.694 1.554 1.514 1.3624 1.2433 1.2324 1.1828 1.1385 1.082
1630.007 1.0354 1.029 1.0874 1.1188 1.0538 1.0234 1.0512 1.0642 1.1148 1.1541
1649.297 1.1152 1.1363 1.1335 1.0887 1.0902 1.1132 1.1491 1.1865 1.233 1.2712
1668.587 1.3226 1.382 1.454 1.564 1.674 1.724 1.704 1.764 1.904 1.884
1687.877 1.914 2.064 2.164 2.314 2.564 2.804 3.104 3.494 3.864 4.274
1707.167 4.674 5.054 5.394 5.784 6.174 6.514 6.754 6.874 7.024 7.124
1726.457 7.234 7.454 7.724 8.094 8.654 9.364 10.414 12.064 14.394 17.704
1745.747 22.074 27.764 34.834 43.144 52.144 61.254 70.114 77.764 83.594 86.184
1765.037 83.744 76.264 66.164 56.314 46.664 37.584 29.514 23.004 18.264 15.054
1784.327 13.094 11.914 11.234 10.864 10.644 10.384 10.094 9.744 9.324 8.774
1803.617 8.104 7.404 6.634 5.814 5.004 4.284 3.654 3.124 2.714 2.424
1822.907 2.244 2.074 1.944 1.914 1.854 1.764 1.734 1.704 1.654 1.654
1842.197 1.654 1.664 1.654 1.564 1.444 1.3566 1.2705 1.14 1.0382 0.9651
1861.487 0.8931 0.8878 0.8386 0.795 0.8371 0.8486 0.8233 0.8057 0.7963 0.8173
1880.777 0.834 0.7941 0.7311 0.708 0.7574 0.7389 0.6735 0.6867 0.733 0.7021
1900.067 0.6729 0.6953 0.6615 0.59 0.5595 0.5768 0.5847 0.5568 0.5284 0.5606
1919.357 0.5506 0.5225 0.5204 0.44127 0.44948 0.45534 0.39848 0.393297 0.3494 0.3377
1938.647 0.3416 0.3654 0.3584 0.3176 0.3008 0.298 0.3217 0.3308 0.3593 0.386333
1957.937 0.392775 0.361 0.3544 0.38025 0.40069 0.40891 0.357 0.3649 0.40664 0.39475
1977.227 0.40314 0.46561 0.505 0.4961 0.4963 0.4916 0.5253 0.5768 0.5811 0.5467
1996.517 0.5363 0.5379 0.4974 0.46943 0.44831 0.44602 0.4251 0.3616 0.351 0.3737
2015.807 0.391951 0.3683 0.3583 0.4068 0.40656 0.354 0.3505 0.3719 0.3548 0.37421
2035.097 0.42037 0.387655 0.3475 0.3574 0.3444 0.332 0.3459 0.2996 0.267 0.272
2054.387 0.282 0.3258 0.3416 0.325 0.298 0.267 0.273 0.281 0.28 0.2984
2073.677 0.3082 0.2983 0.3064 0.3556 0.3473 0.2896 0.225 0.227 0.276 0.3123
2092.967 0.3053 0.274 0.2948 0.2894 0.241 0.254 0.2994 0.283 0.246 0.3067
2112.257 0.3133 0.3064 0.3733 0.37428 0.3306 0.3122 0.3179 0.3415 0.37485 0.393995
2131.547 0.43645 0.45656 0.42832 0.41496 0.42144 0.43551 0.41131 0.3656 0.3498 0.3084
2150.837 0.2859 0.3317 0.3649 0.3039 0.287 0.3403 0.332 0.3062 0.28 0.26
2170.127 0.272 0.274 0.226 0.232 0.258 0.281 0.3023 0.274 0.282 0.268
2189.417 0.246 0.27 0.268 0.244 0.253 0.274 0.288 0.281 0.266 0.271
2208.707 0.2965 0.306 0.281 0.213 0.212 0.283 0.275 0.2929 0.3494 0.3238
2227.997 0.281 0.295 0.3097 0.3005 0.3591 0.40117 0.39773 0.38141 0.3297 0.3309
2247.287 0.38983 0.41816 0.44724 0.44078 0.40101 0.40438 0.37451 0.3283 0.3455 0.3656
2266.577 0.3478 0.3443 0.39416 0.3924 0.3059 0.245 0.246 0.279 0.253 0.276
2285.868 0.3402 0.3145 0.271 0.211 0.183 0.197 0.197 0.225 0.234 0.204
2305.158 0.201 0.217 0.222 0.227 0.236 0.272 0.3108 0.2847 0.253 0.263
2324.448 0.265 0.3171 0.3186 0.2891 0.3083 0.3106 0.299 0.326 0.385105 0.3625
2343.738 0.3115 0.3631 0.40597 0.373 0.3422 0.2992 0.3137 0.3402 0.3638 0.40656
2363.028 0.39524 0.3552 0.3263 0.331 0.3217 0.3727 0.37637 0.3015 0.3045 0.3038
2382.318 0.3017 0.284 0.239 0.2943 0.3356 0.3463 0.37863 0.3481 0.3504 0.3575
2401.608 0.38072 0.390081 0.38291 0.40083 0.384623 0.40199 0.39465 0.39209 0.39534 0.392363
2420.898 0.40834 0.3563 0.37907 0.4279 0.42041 0.4468 0.42376 0.3674 0.3721 0.41031
2440.188 0.39429 0.40007 0.42146 0.41465 0.42573 0.40445 0.3408 0.3621 0.42245 0.384187
2459.478 0.3494 0.37547 0.40096 0.393317 0.3406 0.3378 0.37756 0.3647 0.3487 0.3449
2478.768 0.3556 0.38433 0.3497 0.2972 0.3254 0.3356 0.3228 0.3033 0.3397 0.3385
2498.058 0.241 0.21 0.205 0.249 0.265 0.232 0.197 0.224 0.2902 0.265
2517.348 0.224 0.22 0.231 0.274 0.2852 0.238 0.217 0.235 0.216 0.231
2536.638 0.251 0.222 0.219 0.21 0.254 0.261 0.195 0.15 0.175 0.211
2555.928 0.174 0.231 0.271 0.205 0.158 0.176 0.265 0.224 0.148 0.191
2575.218 0.202 0.148 0.173 0.205 0.146 0.151 0.18 0.165 0.202 0.244
2594.508 0.231 0.163 0.192 0.242 0.227 0.278 0.266 0.209 0.249 0.237
2613.798 0.195 0.237 0.2904 0.2969 0.199 0.202 0.274 0.229 0.187 0.197
2633.088 0.214 0.217 0.208 0.201 0.228 0.26 0.2 0.145 0.217 0.233
2652.378 0.179 0.163 0.171 0.131 0.137 0.143 0.111 0.181 0.247 0.228
2671.668 0.231 0.265 0.255 0.222 0.223 0.2929 0.272 0.263 0.2912 0.248
2690.958 0.201 0.179 0.233 0.3074 0.3138 0.3701 0.3566 0.263 0.273 0.3159
2710.248 0.3248 0.3244 0.3693 0.3688 0.39919 0.42363 0.37663 0.42166 0.5354 0.5465
2729.538 0.584 0.6809 0.694 0.8017 0.9313 0.9176 0.9238 1.0125 1.0878 1.1097
2748.828 1.0983 1.0412 0.9892 1.0043 0.9194 0.8024 0.7152 0.7275 0.8154 0.8747
2768.118 0.8927 0.853 0.8459 0.8489 0.9551 0.974 0.8751 0.8929 0.9115 0.9166
2787.408 0.9391 0.9248 0.9006 0.9448 0.8988 0.8343 0.8996 0.9011 0.9102 0.9553
2806.698 0.9783 1.0225 0.9963 1.004 1.1165 1.1227 1.144 1.2699 1.2958 1.3267
2825.988 1.414 1.524 1.664 1.754 1.824 1.904 2.064 2.284 2.394 2.484
2845.278 2.684 2.894 3.094 3.364 3.704 3.954 4.364 4.864 5.314 5.874
2864.568 6.394 7.024 7.744 8.394 9.004 9.524 9.954 10.154 10.284 10.384
2883.858 10.284 10.124 9.864 9.604 9.384 9.234 9.084 8.924 8.894 8.944
2903.148 9.064 9.244 9.424 9.674 10.054 10.514 11.084 11.734 12.594 13.574
2922.438 14.634 15.824 16.964 18.114 19.144 19.984 20.604 20.954 21.004 20.794
2941.728 20.394 19.774 19.154 18.334 17.584 17.024 16.284 15.604 14.904 14.124
2961.018 13.414 12.824 12.364 12.034 11.784 11.484 11.354 11.354 11.274 11.054
2980.308 10.814 10.564 10.184 9.694 9.234 8.864 8.564 8.344 8.284 8.364
2999.598 8.434 8.704 9.104 9.564 10.044 10.354 10.544 10.574 10.204 9.654
3018.888 9.024 8.214 7.314 6.534 5.954 5.504 5.144 4.844 4.614 4.434
3038.178 4.274 4.214 4.214 4.164 4.124 4.134 4.054 3.954 3.834 3.794
3057.468 3.864 3.814 3.784 3.754 3.654 3.544 3.404 3.214 3.154 3.014
3076.758 2.824 2.744 2.654 2.554 2.474 2.354 2.184 2.034 1.914 1.814
3096.048 1.704 1.594 1.424 1.2561 1.1909 1.2284 1.1877 1.0988 1.1554 1.053
3115.338 0.8518 0.7106 0.7093 0.8227 0.8518 0.8289 0.7827 0.8188 0.7638 0.621
3134.628 0.5375 0.6484 0.8006 0.7034 0.5738 0.5188 0.5116 0.5183 0.47366 0.42921
3153.918 0.459 0.5844 0.5448 0.40004 0.46068 0.46192 0.3074 0.272 0.3329 0.3604
3173.208 0.41426 0.43467 0.38119 0.39429 0.4915 0.42085 0.3491 0.3647 0.3256 0.231
3192.498 0.204 0.197 0.216 0.393858 0.3684 0.272 0.39936 0.37541 0.064 0.045
3211.788 0.227 0.313 0.3418 0.3551 0.232 0.121 0.274 0.3024 0.211 0.245
3231.078 0.2892 0.3431 0.3383 0.164 0.196 0.3108 0.3384 0.233 0.138 0.141
3250.368 0.13 0.102 0.14 0.24 0.2902 0.3516 0.3009 0.3478 0.3549 0.3293
3269.658 0.39476 0.271 0.204 0.27 0.19 0.14 0.201 0.176 0.228 0.225
3288.948 0.064 0 0.042 0.135 0.22 0.253 0.2883 0.259 0.179 0.18
3308.238 0.3208 0.3361 0.209 0.167 0.191 0.143 0.073 0.116 0.057 0.092
3327.528 0.194 0.262 0.3164 0.25 0.236 0.218 0.232 0.136 0.02 0.024
3346.818 0.133 0.28 0.253 0.185 0.217 0.273 0.17 0.203 0.198 0.155
3366.108 0.31 0.344 0.24 0.22 0.2964 0.3572 0.267 0.159 0.197 0.225
3385.398 0.3105 0.391469 0.3296 0.269 0.2934 0.279 0.176 0.155 0.3029 0.3332
3404.688 0.048 0.045 0.197 0.222 0.3212 0.3455 0.237 0.197 0.123 0.017
3423.978 0.143 0.158 0.14 0.194 0.213 0.283 0.267 0.074 0.085 0.249
3443.269 0.239 0.265 0.222 0.209 0.207 0.201 0.3005 0.3605 0.48053 0.5348
3462.559 0.3668 0.2982 0.5104 0.5424 0.3148 0.259 0.3448 0.3709 0.412 0.39906
3481.849 0.39464 0.5444 0.6617 0.626 0.594 0.6474 0.6184 0.6033 0.7513 0.7975
3501.139 0.7833 0.8626 0.9458 0.877 0.9411 0.9776 0.8266 0.783 0.788 0.8307
3520.429 0.7351 0.6509 0.7165 0.8076 0.9392 1.0833 1.1821 1.2306 1.434 2.004
3539.719 2.734 3.894 5.974 9.094 13.124 17.244 20.754 23.384 24.824 25.204
3559.009 24.354 22.284 19.404 15.664 11.324 7.464 4.704 2.884 1.924 1.484
3578.299 1.1933 0.9283 0.8339 0.7966 0.6957 0.6808 0.5587 0.47088 0.5981 0.746
3597.589 0.7575 0.7381 0.8793 0.9591 1.0298 1.0796 1.1585 1.3589 1.3706 1.1746
3616.879 0.9447 0.8634 0.8787 0.8049 0.7134 0.616 0.46781 0.3367 0.3062 0.3082
3636.169 0.241 0.192 0.203 0.3326 0.3223 0.266 0.254 0.248 0.2954 0.3293
3655.459 0.3489 0.247 0.2855 0.42099 0.42814 0.2885 0.223 0.26 0.24 0.211
3674.749 0.203 0.224 0.131 0.125 0.233 0.3691 0.40985 0.38071 0.3569 0.262
3694.039 0.217 0.265 0.256 0.165 0.182 0.137 0.129 0.167 0.183 0.189
3713.329 0.145 0.118 0.287 0.3656 0.244 0.248 0.28 0.241 0.089 0.178
3732.619 0.281 0.248 0.2865 0.186 0.179 0.157 0.062 0.091 0.281 0.41175
3751.909 0.3043 0.2951 0.252 0.237 0.264 0.134 0.115 0.144 0.093 0.115
3771.199 0.173 0.199 0.114 0.084 0.185 0.222 0.233 0.16 0.217 0.273
3790.489 0.184 0.267 0.40692 0.277 0.144 0.276 0.3471 0.3421 0.3632 0.37508
3809.779 0.3075 0.176 0.192 0.227 0.256 0.2882 0.184 0.173 0.228 0.185
3829.069 0.226 0.273 0.129 0.233 0.41407 0.2891 0.2895 0.3093 0.2972 0.3202
3848.359 0.273 0.197 0.244 0.3702 0.3569 0.314 0.269 0.37456 0.45848 0.4059
3867.649 0.43791 0.3002 0.278 0.386029 0.2888 0.27 0.366 0.3256 0.216 0.197
3886.939 0.259 0.271 0.187 0.265 0.3244 0.3138 0.3323 0.39105 0.41197 0.39587
3906.229 0.41358 0.3694 0.44439 0.40833 0.3649 0.40361 0.244 0.125 0.164 0.181
3925.519 0.274 0.42103 0.41587 0.46226 0.38191 0.185 0.212 0.256 0.235 0.216
3944.809 0.2955 0.258 0.181 0.3181 0.2994 0.27 0.43395 0.46389 0.3724 0.3348
3964.099 0.254 0.218 0.261 0.179 0.152 0.216 0.088 0.079 0.219 0.3013
3983.389 0.281 0.3087 0.3153 0.2886 0.261 0.107 0.18 0.3018 0.3231 0.3219
##END=
