##TITLE=1,3-Dinitrobenzoxazine
##JCAMP-DX=4.24
##DATA TYPE=INFRARED SPECTRUM
##ORIGIN=EPA-IR VAPOR PHASE LIBRARY
##OWNER=SRD/NIST
Collection (C) 2018 copyright by the U.S. Secretary of Commerce
on behalf of the United States of America. All rights reserved.
##CAS REGISTRY NO=26103-32-2
##MOLFORM=C 12 H 7 N 3 O 5
##$NIST SOURCE=MSDC-IR
##STATE=gas
##XUNITS=1/CM
##YUNITS=ABSORBANCE
##XFACTOR=1.
##YFACTOR=0.001
##DELTAX=1.92898
##FIRSTX=549.8
##LASTX=4000.7
##FIRSTY=1.588
##MAXX=4000.7
##MINX=549.759
##MAXY=0.061948
##MINY=0
##NPOINTS=1790
##XYDATA=(X++(Y..Y))
549.759 1.588 1.638 1.718 1.958 2.408 2.358 2.138 2.058 2.068 2.028
569.049 1.798 2.138 2.608 2.508 2.578 2.568 2.588 2.558 2.338 2.358
588.339 2.378 2.238 1.938 1.948 2.318 2.188 1.848 1.518 1.578 1.878
607.628 1.708 1.508 1.358 1.2055 1.1989 1.348 1.358 1.278 1.328 1.398
626.918 1.228 1.1495 1.1788 1.0071 0.782 0.8766 0.9425 0.9551 1.0061 0.7772
646.208 0.7513 0.897 0.9891 1.1704 1.0236 0.8798 1.0373 0.8177 0.7013 0.8943
665.498 1.1454 1.348 1.258 1.308 1.448 1.548 1.558 1.448 1.398 1.468
684.787 1.378 1.248 1.478 1.728 1.808 1.788 1.828 1.918 1.778 1.778
704.077 1.818 1.628 1.628 1.518 1.658 1.928 2.088 2.328 2.728 3.218
723.367 3.778 4.268 4.878 5.628 6.078 6.748 7.898 9.238 10.888 12.958
742.657 14.738 14.728 12.748 10.318 8.218 6.248 4.638 3.878 3.538 3.448
761.947 3.528 3.738 3.958 3.958 3.718 3.338 2.898 2.488 2.058 1.398
781.236 1.1008 1.1735 1.0534 0.9308 0.8472 0.861 0.9413 1.0861 0.9974 0.8545
800.526 1.0906 1.528 2.528 4.148 6.408 8.948 10.468 10.648 10.028 8.358
819.816 5.738 3.468 2.368 1.918 1.398 1.1622 1.0421 1.0666 1.1045 0.9992
839.106 1.1297 1.0462 1.0188 1.0553 1.0106 1.0865 1.0288 1.014 0.8631 0.7448
858.395 0.9492 0.8921 0.7865 0.833 0.9789 0.9668 0.9852 1.1729 1.248 1.518
877.685 1.878 2.328 2.898 3.258 3.458 3.778 4.018 3.748 3.468 3.468
896.975 3.398 3.028 2.728 2.628 2.358 1.978 1.548 1.398 1.1934 1.0468
916.265 1.1769 1.358 1.598 1.808 1.978 1.918 2.248 2.798 2.958 2.938
935.555 2.878 2.828 2.868 2.498 1.848 1.528 1.216 1.0958 0.953 0.7351
954.844 0.7361 0.6849 0.5858 0.5509 0.6366 0.7729 0.6295 0.5464 0.5561 0.5414
974.134 0.645 0.5096 0.4197 0.5341 0.4145 0.4845 0.6699 0.5915 0.6205 0.6111
993.424 0.6863 0.7981 0.9177 0.8997 0.5611 0.545 0.8422 0.8618 0.6587 0.7527
1012.714 1.1706 1.398 1.358 1.308 1.1344 0.9708 0.9204 1.1299 1.238 1.308
1032.003 1.308 1.308 1.468 1.348 1.2023 1.1153 1.1746 0.8812 0.6899 1.1157
1051.293 1.328 1.318 1.278 1.478 1.808 2.128 2.628 3.008 3.218 3.768
1070.583 4.148 4.348 4.368 4.558 4.588 3.818 3.658 3.298 2.738 2.478
1089.873 2.328 1.988 1.478 1.2056 1.1927 1.428 1.628 2.038 2.538 2.528
1109.163 2.158 1.798 1.498 1.398 1.328 1.328 1.1433 0.6087 0.8165 1.638
1128.452 1.598 1.278 1.288 1.278 1.1272 0.8262 1.1705 1.648 1.428 1.348
1147.742 1.828 2.418 2.598 2.168 2.288 2.768 2.938 3.028 3.318 3.508
1167.032 3.528 3.558 3.178 2.588 2.198 2.028 1.698 1.498 1.388 1.688
1186.322 2.148 2.058 2.138 2.268 2.328 2.328 2.448 2.668 2.708 2.448
1205.611 1.998 2.468 3.038 3.098 2.958 3.208 3.728 4.028 5.488 6.728
1224.901 6.878 7.338 7.728 7.378 7.228 7.388 7.368 7.108 6.758 6.918
1244.191 7.438 7.978 8.618 9.388 9.808 9.988 10.198 10.308 10.898 12.318
1263.481 14.348 17.098 21.018 26.408 32.728 38.668 43.448 46.098 45.708 42.528
1282.771 37.268 31.458 26.398 22.448 19.488 17.258 15.598 14.218 13.038 12.228
1302.060 11.638 11.318 11.348 11.818 12.678 13.958 15.808 18.158 20.658 22.828
1321.350 24.388 25.328 25.948 26.528 27.818 30.628 35.478 42.128 49.488 55.838
1340.640 59.298 58.868 54.488 46.808 37.568 29.068 22.518 17.858 14.648 12.358
1359.930 10.698 9.468 8.528 7.948 7.558 7.208 6.848 6.428 6.098 5.848
1379.219 5.578 5.588 5.768 6.118 6.778 7.568 8.618 9.918 11.358 12.778
1398.509 13.928 14.628 14.668 13.978 12.728 11.178 9.508 7.918 6.588 5.608
1417.799 5.048 4.688 4.408 4.228 4.138 4.118 4.198 4.448 4.718 5.058
1437.089 5.528 5.988 6.398 6.738 7.008 7.108 7.058 6.978 6.958 7.038
1456.378 7.328 7.788 8.318 8.858 9.188 9.238 8.968 8.618 8.468 8.458
1475.668 8.748 9.548 10.928 12.938 15.758 19.398 24.038 29.898 36.688 43.848
1494.958 50.778 56.598 60.368 61.948 61.548 59.638 56.298 52.278 48.008 43.328
1514.248 38.708 34.488 30.658 27.398 24.428 21.628 18.948 16.808 15.528 15.178
1533.538 15.888 17.398 19.468 21.888 23.838 25.058 25.788 26.258 26.918 28.098
1552.827 29.298 29.708 28.878 26.408 22.528 18.488 15.168 13.128 12.298 12.378
1572.117 13.158 14.498 16.388 18.518 20.658 22.548 23.798 24.548 24.548 23.568
1591.407 21.798 19.618 17.128 14.758 13.048 12.158 11.828 11.598 11.328 10.888
1610.697 10.148 9.118 8.018 6.918 5.908 5.198 4.868 4.718 4.578 4.668
1629.986 4.918 5.158 5.388 5.368 5.078 4.658 4.178 3.738 3.328 2.928
1649.276 2.608 2.378 2.138 2.008 1.858 1.748 1.688 1.668 1.608 1.618
1668.566 1.618 1.548 1.468 1.378 1.408 1.388 1.268 1.288 1.358 1.268
1687.856 1.268 1.268 1.173 1.1564 1.1826 1.1055 1.0089 1.0072 1.0097 0.9722
1707.146 0.9894 0.978 0.8785 0.8524 0.9267 0.9911 0.987 0.8503 0.753 0.7956
1726.435 0.7937 0.7744 0.829 0.8096 0.7334 0.7061 0.6558 0.5837 0.6114 0.7466
1745.725 0.693 0.6358 0.7891 0.8999 0.9026 0.9851 1.0358 1.05 1.1288 1.1774
1765.015 1.268 1.378 1.328 1.268 1.228 1.1938 1.228 1.228 1.171 1.1434
1784.305 1.1187 1.0992 1.0945 1.0873 1.1035 1.0578 1.0266 1.0372 1.1 1.1131
1803.594 1.0228 0.9975 0.9554 0.9079 0.8538 0.753 0.7071 0.7062 0.6738 0.6041
1822.884 0.6202 0.6993 0.7461 0.7972 0.8028 0.696 0.6474 0.7439 0.8268 0.8855
1842.174 0.9143 0.9115 0.8311 0.7268 0.704 0.7185 0.6453 0.6108 0.6503 0.6724
1861.464 0.6665 0.6863 0.7574 0.7848 0.8035 0.827 0.8289 0.8246 0.8399 0.9042
1880.754 0.9252 0.8637 0.8409 0.8104 0.742 0.6901 0.677 0.6679 0.6467 0.6192
1900.043 0.6003 0.6084 0.6512 0.6517 0.6378 0.7212 0.7693 0.7658 0.7695 0.849
1919.333 0.9108 0.9056 0.8722 0.8209 0.818 0.7811 0.7045 0.6562 0.6471 0.6072
1938.623 0.6063 0.614 0.5455 0.5261 0.5482 0.5566 0.5533 0.5524 0.5593 0.5498
1957.913 0.5525 0.5723 0.5661 0.5225 0.4827 0.5356 0.6071 0.5783 0.5394 0.5654
1977.202 0.593 0.5757 0.5563 0.5521 0.5278 0.4946 0.4549 0.5009 0.5783 0.5702
1996.492 0.5067 0.5481 0.6158 0.5256 0.515 0.5608 0.5459 0.5271 0.4903 0.4636
2015.782 0.4983 0.5151 0.538 0.55 0.5281 0.5844 0.5664 0.5467 0.6379 0.5948
2035.072 0.5237 0.5793 0.6801 0.7173 0.7216 0.7129 0.635 0.6112 0.6134 0.6328
2054.362 0.6187 0.5864 0.6138 0.607 0.6111 0.6212 0.6311 0.5951 0.6089 0.64
2073.651 0.6171 0.6765 0.7195 0.6521 0.6426 0.7142 0.7023 0.649 0.5806 0.5506
2092.941 0.5526 0.613 0.6977 0.6547 0.5978 0.6294 0.6708 0.6635 0.6152 0.598
2112.231 0.6254 0.6404 0.6113 0.5948 0.6322 0.6492 0.6167 0.6115 0.5806 0.5034
2131.521 0.4804 0.4774 0.5479 0.5969 0.5157 0.4472 0.4721 0.4961 0.4678 0.4812
2150.810 0.5231 0.4789 0.475 0.5263 0.526 0.4946 0.5565 0.5812 0.4854 0.4465
2170.100 0.462 0.4901 0.4974 0.5675 0.5668 0.5305 0.5307 0.51 0.5315 0.5316
2189.390 0.5144 0.5304 0.4935 0.5044 0.5779 0.5779 0.5911 0.62 0.5755 0.5907
2208.680 0.662 0.672 0.6418 0.6396 0.6242 0.5436 0.4688 0.4611 0.5565 0.5336
2227.970 0.461 0.5538 0.6528 0.6099 0.5459 0.5326 0.588 0.6162 0.6246 0.6171
2247.259 0.5655 0.5273 0.5505 0.5569 0.5574 0.5956 0.5653 0.6056 0.6653 0.6696
2266.549 0.7034 0.7185 0.6747 0.6182 0.6281 0.6569 0.6533 0.6465 0.5818 0.5754
2285.839 0.5553 0.5556 0.5419 0.471 0.5635 0.6591 0.6258 0.5485 0.551 0.5734
2305.129 0.6071 0.6742 0.7168 0.7161 0.6033 0.519 0.5719 0.623 0.5983 0.5872
2324.418 0.5876 0.6488 0.6583 0.5966 0.5629 0.5581 0.6023 0.6366 0.6032 0.6649
2343.708 0.8086 0.8005 0.732 0.6715 0.6231 0.6338 0.7072 0.7827 0.7754 0.6423
2362.998 0.6053 0.7122 0.7126 0.6977 0.6981 0.6993 0.6977 0.7041 0.6423 0.6263
2382.288 0.6641 0.6238 0.6319 0.6199 0.5943 0.5801 0.6303 0.6558 0.6793 0.7106
2401.578 0.6874 0.6463 0.6772 0.7517 0.684 0.6092 0.6464 0.7045 0.6589 0.6432
2420.867 0.7016 0.7021 0.7 0.7176 0.6523 0.6357 0.6852 0.6664 0.603 0.5823
2440.157 0.622 0.6567 0.6682 0.6877 0.7512 0.8043 0.7797 0.704 0.6984 0.6545
2459.447 0.5971 0.7029 0.7241 0.6747 0.7419 0.756 0.7973 0.8477 0.8928 0.8972
2478.737 0.8213 0.8427 0.8661 0.834 0.8422 0.834 0.7538 0.7581 0.8186 0.7571
2498.026 0.6336 0.6614 0.653 0.5403 0.5768 0.5978 0.6025 0.6604 0.6666 0.5629
2517.316 0.5085 0.5785 0.599 0.5779 0.6453 0.7258 0.6406 0.5312 0.5496 0.5486
2536.606 0.5435 0.5879 0.6431 0.6473 0.6232 0.5631 0.5551 0.7154 0.6835 0.5318
2555.896 0.5824 0.7053 0.6814 0.6106 0.6453 0.665 0.7473 0.8015 0.7413 0.7372
2575.186 0.7164 0.7628 0.8474 0.7964 0.7023 0.684 0.649 0.6544 0.6393 0.6425
2594.475 0.7707 0.8534 0.7136 0.6581 0.8284 0.8441 0.8399 0.9187 0.9098 0.8905
2613.765 0.8649 0.8532 0.9038 0.8932 0.9285 0.9645 0.9611 0.9853 1.0442 1.0905
2633.055 1.0227 0.9083 0.8781 0.9405 1.0217 0.9861 0.8156 0.8088 0.8911 0.852
2652.345 0.8268 0.84 0.8384 0.7729 0.7611 0.7814 0.7746 0.7724 0.865 0.9063
2671.634 0.8337 0.7658 0.765 0.791 0.7355 0.7065 0.6709 0.7091 0.6875 0.7085
2690.924 0.7447 0.6376 0.6449 0.6007 0.5538 0.6595 0.7197 0.6498 0.6282 0.5918
2710.214 0.5288 0.5755 0.5926 0.5545 0.5445 0.5255 0.472 0.5703 0.6048 0.5605
2729.504 0.6696 0.6663 0.6411 0.6684 0.6219 0.6521 0.7003 0.6277 0.6347 0.7679
2748.794 0.7989 0.7168 0.7044 0.673 0.6175 0.6596 0.7233 0.6894 0.6709 0.7096
2768.083 0.6668 0.6327 0.6191 0.6705 0.7882 0.8046 0.8318 0.8131 0.7705 0.8137
2787.373 0.833 0.7893 0.7033 0.7665 0.853 0.8915 0.8964 0.7844 0.7387 0.8201
2806.663 0.7331 0.6293 0.7661 0.791 0.6481 0.63 0.7053 0.6842 0.7043 0.7435
2825.953 0.6581 0.7519 0.835 0.8237 0.8927 0.7602 0.7528 0.8347 0.8553 0.8178
2845.242 0.7629 0.7859 0.7687 0.7079 0.6767 0.7085 0.7123 0.6908 0.7256 0.8908
2864.532 0.9449 0.8717 0.9348 1.0973 1.0217 0.9398 0.9951 0.9491 0.8971 0.8364
2883.822 0.8066 0.9261 0.9142 0.7783 0.733 0.6751 0.7462 0.849 0.7288 0.6846
2903.112 0.7307 0.7184 0.6451 0.628 0.6807 0.5596 0.4923 0.7029 0.8245 0.7675
2922.401 0.7885 0.8329 0.7935 0.7917 0.7447 0.7367 0.7591 0.6878 0.7231 0.6587
2941.691 0.6864 0.7486 0.7324 0.7489 0.5809 0.5413 0.6135 0.5745 0.5767 0.6711
2960.981 0.7161 0.6481 0.5641 0.5416 0.5213 0.6081 0.6704 0.6174 0.5974 0.5617
2980.271 0.5872 0.6768 0.7132 0.6761 0.6065 0.5896 0.5826 0.6059 0.6581 0.5949
2999.561 0.499 0.5988 0.741 0.7049 0.6994 0.6347 0.613 0.6477 0.6343 0.5991
3018.850 0.632 0.6474 0.5638 0.5993 0.5337 0.4985 0.6083 0.5796 0.6611 0.6689
3038.140 0.6135 0.9297 1.1606 1.1241 1.1722 1.1852 1.1026 1.1509 1.2037 1.298
3057.430 1.2036 1.1418 1.268 1.288 1.408 1.538 1.608 1.698 1.868 2.018
3076.720 2.108 2.208 2.338 2.278 2.088 1.948 1.788 1.738 1.658 1.658
3096.009 1.688 1.768 1.908 1.918 2.068 2.298 2.398 2.528 2.728 2.938
3115.299 3.028 2.938 2.698 2.318 1.898 1.398 0.9662 0.8778 0.8556 0.7657
3134.589 0.6886 0.6234 0.6108 0.5366 0.5317 0.4592 0.4347 0.4156 0.29495 0.3911
3153.879 0.4459 0.3589 0.4639 0.6067 0.5569 0.486 0.4204 0.3874 0.361 0.24963
3173.169 0.24566 0.30304 0.3577 0.3904 0.3637 0.4423 0.5817 0.6743 0.6266 0.6169
3192.458 0.6496 0.5778 0.6214 0.6721 0.5379 0.4095 0.3734 0.412 0.4641 0.5015
3211.748 0.5165 0.502 0.4249 0.3356 0.4592 0.6608 0.5573 0.4738 0.5055 0.4978
3231.038 0.5414 0.4759 0.4057 0.3365 0.3894 0.4659 0.4412 0.5185 0.4477 0.3192
3250.328 0.3604 0.464 0.4828 0.3356 0.1753 0.2049 0.26319 0.28605 0.3964 0.29632
3269.617 0.25138 0.4465 0.4964 0.4222 0.3915 0.4067 0.4424 0.513 0.5098 0.4108
3288.907 0.3885 0.4318 0.5234 0.4893 0.4492 0.4239 0.4056 0.4864 0.5308 0.4893
3308.197 0.3818 0.28404 0.24834 0.3272 0.31189 0.23903 0.3371 0.6337 0.6675 0.5551
3327.487 0.518 0.6278 0.6643 0.7104 0.9104 0.8286 0.8297 0.9421 0.9406 0.9215
3346.777 1.0918 1.248 1.388 1.578 1.798 2.138 2.398 2.788 3.298 3.738
3366.066 4.418 5.268 5.838 6.368 7.068 7.478 7.758 7.908 7.638 7.188
3385.356 6.618 6.058 5.378 4.598 4.048 3.668 3.068 2.528 2.248 2.108
3404.646 1.988 1.628 1.368 1.328 1.2025 1.169 1.1497 1.0669 0.9761 0.8935
3423.936 0.7774 0.719 0.7417 0.7724 0.6789 0.6256 0.6684 0.5422 0.5902 0.5386
3443.225 0.4466 0.5513 0.6377 0.5386 0.4019 0.3373 0.28849 0.24889 0.221962 0.26808
3462.515 0.30714 0.3569 0.29028 0.4282 0.4799 0.3976 0.4083 0.31494 0.30237 0.30167
3481.805 0.3769 0.3196 0.3666 0.4395 0.3525 0.4306 0.3986 0.4056 0.474 0.575
3501.095 0.543 0.29802 0.28497 0.4211 0.497 0.4468 0.4517 0.4819 0.4327 0.396
3520.385 0.29005 0.28543 0.3221 0.3909 0.4895 0.3454 0.21031 0.2708 0.3427 0.31679
3539.674 0.25338 0.3465 0.41 0.3834 0.227056 0.116 0.28236 0.4315 0.3581 0.27795
3558.964 0.23016 0.201 0.21445 0.23625 0.3972 0.31411 0.1876 0.23153 0.3164 0.25643
3578.254 0.1326 0.1959 0.1852 0.2069 0.3429 0.342 0.25038 0.31328 0.29246 0.2049
3597.544 0.1272 0.052 0.026 0.011 0.1516 0.3231 0.31015 0.3837 0.3453 0.21578
3616.833 0.3276 0.27935 0.23835 0.3343 0.3504 0.25859 0.25914 0.28516 0.3272 0.4203
3636.123 0.3947 0.3244 0.4917 0.6147 0.4041 0.3681 0.3326 0.29276 0.24718 0.1419
3655.413 0.29059 0.4081 0.3595 0.30208 0.3509 0.4423 0.4972 0.3968 0.1218 0.093
3674.703 0.1441 0.21054 0.25892 0.29714 0.4304 0.31689 0.23808 0.218894 0.1576 0.26042
3693.993 0.29487 0.3379 0.3389 0.1663 0.042 0.063 0.111 0.227594 0.343 0.29215
3713.282 0.22812 0.30545 0.24825 0.071 0.073 0.085 0.1772 0.27696 0.29369 0.24182
3732.572 0.173 0.220482 0.27278 0.23334 0.08 0.043 0.219114 0.193 0.235 0.4443
3751.862 0.3497 0.25028 0.3325 0.30648 0.31687 0.26794 0.29808 0.3874 0.3581 0.4188
3771.152 0.4461 0.4623 0.4191 0.4253 0.4135 0.271 0.1502 0.018 0.075 0.1551
3790.441 0.21439 0.21661 0.2032 0.227674 0.1376 0.26933 0.31699 0.177 0.133 0.049
3809.731 0.079 0.1664 0.1289 0.014 0.032 0.1407 0.1214 0.25355 0.25899 0.24641
3829.021 0.31186 0.3475 0.27945 0.1969 0.2058 0.225641 0.2956 0.28961 0.23506 0.27606
3848.311 0.4174 0.4133 0.30909 0.1418 0.071 0.091 0.079 0.1802 0.23401 0.135
3867.601 0.169 0.29484 0.21685 0.1904 0.24733 0.28317 0.24995 0.23795 0.3842 0.442
3886.890 0.3985 0.4002 0.3238 0.199 0.24343 0.31405 0.5058 0.4057 0.23386 0.3328
3906.180 0.1942 0.1201 0.3167 0.24027 0.25442 0.3931 0.28952 0.1649 0.1746 0.1971
3925.470 0.014 0 0.23123 0.3497 0.28074 0.146 0.109 0.223609 0.4262 0.5447
3944.760 0.4991 0.4283 0.3809 0.3834 0.3743 0.5133 0.6107 0.472 0.4018 0.4068
3964.049 0.127 0.118 0.3193 0.24955 0.224031 0.3518 0.5503 0.4824 0.349 0.3375
3983.339 0.23485 0.075 0.195 0.3476 0.25166 0.3229 0.1943 0.1235 0.3841 0.4501
##END=
