##TITLE=2,4,6-Trimethylheptane
##JCAMP-DX=4.24
##DATA TYPE=INFRARED SPECTRUM
##ORIGIN=NIST Mass Spectrometry Data Center
##OWNER=NIST Standard Reference Data Program
Collection (C) 2018 copyright by the U.S. Secretary of Commerce
on behalf of the United States of America. All rights reserved.
##CAS REGISTRY NO=2613-61-8
##MOLFORM=C 10 H 22
##$NIST SOURCE=MSDC-IR
##SPECTROMETER/DATA SYSTEM=HP-GC/MS/IRD
##STATE=gas
##XUNITS=1/CM
##YUNITS=ABSORBANCE
##XFACTOR=1.0
##YFACTOR=0.000004500
##DELTAX=4.0
##FIRSTX=550.0
##LASTX=3846.0
##FIRSTY=0.000207
##MAXX=3846
##MINX=550
##MAXY=0.045
##MINY=0
##NPOINTS=825
##XYDATA=(X++(Y..Y))
550.0 46 24 0 11 13 8 19 7 5 17
590.0 23 13 0 13 36 42 40 40 43 36
630.0 20 14 18 24 28 30 43 45 31 24
670.0 27 23 25 39 32 26 38 44 41 31
710.0 31 43 43 32 25 31 31 32 41 37
750.0 39 51 51 50 53 54 57 60 56 71
790.0 85 79 84 92 96 93 93 97 93 89
830.0 82 81 85 81 83 90 93 91 90 90
870.0 81 76 79 77 75 71 69 72 79 83
910.0 86 94 105 114 113 105 93 96 97 97
950.0 104 111 125 148 178 216 245 250 225 187
990.0 146 114 96 85 79 79 80 79 73 63
1030.0 65 65 65 61 55 58 55 56 57 61
1070.0 63 66 70 71 69 62 64 70 72 73
1110.0 70 70 77 91 104 115 132 159 188 224
1150.0 287 354 416 453 442 390 308 227 166 127
1190.0 99 77 72 74 73 66 61 72 79 80
1230.0 79 82 84 87 84 93 102 102 101 101
1270.0 106 110 110 111 112 114 119 124 130 137
1310.0 152 176 200 223 242 259 275 289 316 358
1350.0 412 489 592 710 817 912 978 1032 1064 1035
1390.0 928 768 576 410 308 251 224 213 215 225
1430.0 247 291 356 436 544 681 829 977 1099 1159
1470.0 1142 1036 861 668 492 364 276 219 184 155
1510.0 135 120 103 89 79 72 68 62 61 61
1550.0 54 51 50 49 49 50 48 44 45 49
1590.0 49 45 46 50 50 48 45 46 49 51
1630.0 52 51 49 45 45 44 42 45 42 41
1670.0 44 44 42 43 44 45 43 38 41 39
1710.0 36 34 31 30 27 27 30 29 25 24
1750.0 23 24 22 20 19 19 21 21 20 18
1790.0 17 23 26 24 24 24 19 17 18 17
1830.0 17 16 17 16 14 18 19 19 18 16
1870.0 17 17 18 18 15 13 14 12 11 13
1910.0 12 9 12 14 12 10 9 11 10 6
1950.0 6 8 10 12 9 10 13 10 9 9
1990.0 7 5 2 3 3 3 6 7 10 7
2030.0 7 8 9 6 1 3 8 7 4 6
2070.0 7 2 1 2 2 7 7 5 7 7
2110.0 4 2 5 10 10 7 4 3 5 8
2150.0 7 8 12 14 11 11 14 16 16 14
2190.0 12 8 11 16 15 11 8 7 5 6
2230.0 5 6 9 9 7 7 7 5 7 6
2270.0 5 8 10 8 8 10 9 10 12 12
2310.0 7 0 3 7 5 3 7 8 7 14
2350.0 15 12 11 11 12 16 20 20 20 18
2390.0 18 20 17 18 24 25 23 22 24 21
2430.0 21 27 23 19 20 20 22 22 21 24
2470.0 21 17 21 26 28 26 27 29 29 28
2510.0 29 33 34 34 34 35 36 41 42 41
2550.0 42 43 45 51 57 61 65 67 71 76
2590.0 75 77 83 84 80 82 86 83 80 83
2630.0 86 85 86 87 87 88 83 81 80 83
2670.0 87 89 88 89 96 99 103 106 111 122
2710.0 132 147 163 175 190 203 203 198 190 182
2750.0 179 177 177 181 186 193 199 204 218 231
2790.0 245 264 280 298 323 352 386 428 476 544
2830.0 636 761 922 1102 1269 1399 1490 1579 1741 2039
2870.0 2462 2895 3214 3373 3401 3399 3519 3828 4283 4800
2910.0 5227 5443 5436 5289 5117 4997 4929 4913 5001 5338
2950.0 6097 7364 8904 10000 9935 8647 6590 4449 2856 1918
2990.0 1389 1072 862 715 603 513 442 385 344 309
3030.0 282 265 250 242 229 217 210 202 201 201
3070.0 199 195 192 192 194 190 184 175 166 157
3110.0 162 156 150 150 147 144 138 141 141 138
3150.0 139 135 136 140 139 138 139 139 131 128
3190.0 124 121 120 109 96 86 82 75 67 58
3230.0 50 48 48 49 45 41 39 43 41 37
3270.0 35 36 37 34 39 42 35 35 33 28
3310.0 30 37 36 38 37 31 32 33 33 37
3350.0 35 36 40 38 32 28 29 28 30 30
3390.0 32 29 22 19 16 19 18 16 15 17
3430.0 25 26 15 9 7 11 17 13 5 3
3470.0 8 6 7 12 12 11 10 12 12 4
3510.0 0 1 5 7 8 5 4 11 9 4
3550.0 4 3 2 2 5 7 10 14 12 7
3590.0 5 6 3 1 9 14 5 3 7 6
3630.0 6 8 5 5 6 4 6 6 6 11
3670.0 11 12 9 8 3 2 11 11 13 16
3710.0 15 16 17 13 11 9 8 10 14 14
3750.0 16 19 11 9 10 9 12 11 14 19
3790.0 23 24 23 21 21 26 27 20 22 22
3830.0 21 24 16 18 22
##END=
