##TITLE=3-Acetylthianaphthene
##JCAMP-DX=4.24
##DATA TYPE=INFRARED SPECTRUM
##ORIGIN=EPA-IR VAPOR PHASE LIBRARY
##OWNER=SRD/NIST
Collection (C) 2018 copyright by the U.S. Secretary of Commerce
on behalf of the United States of America. All rights reserved.
##CAS REGISTRY NO=26168-40-1
##MOLFORM=C 10 H 8 O S
##$NIST SOURCE=MSDC-IR
##STATE=gas
##XUNITS=1/CM
##YUNITS=ABSORBANCE
##XFACTOR=1.
##YFACTOR=0.001
##DELTAX=1.92898
##FIRSTX=549.8
##LASTX=4000.7
##FIRSTY=22.428
##MAXX=4000.7
##MINX=549.759
##MAXY=0.268338
##MINY=0
##NPOINTS=1790
##XYDATA=(X++(Y..Y))
549.759 22.428 20.468 18.528 15.298 11.478 8.538 7.458 7.938 8.108 8.498
569.049 9.688 11.388 12.758 13.028 13.698 13.738 12.588 11.738 10.368 8.858
588.339 7.988 7.048 6.208 6.228 6.198 6.698 7.778 8.518 9.788 11.368
607.628 14.218 19.438 26.398 34.198 40.488 43.028 45.098 46.898 45.658 44.028
626.918 39.718 30.768 22.348 16.388 11.608 8.538 7.168 6.178 4.998 4.038
646.208 3.138 2.568 2.748 2.898 2.758 2.418 2.438 2.668 2.628 2.628
665.498 2.788 3.138 3.328 2.878 2.828 3.078 2.938 3.238 3.388 2.958
684.787 2.988 3.178 3.108 3.378 3.768 4.148 4.808 5.868 7.338 9.138
704.077 10.798 12.148 13.348 14.658 16.348 18.448 20.788 23.618 28.008 34.008
723.367 40.668 47.438 53.868 61.238 72.378 90.518 95.378 74.548 59.828 58.958
742.657 60.128 61.608 62.828 64.078 65.798 71.618 85.798 104.948 103.798 77.638
761.947 60.638 55.368 49.318 42.768 36.368 30.858 26.628 24.178 23.628 24.908
781.236 27.998 31.608 32.148 27.828 22.838 19.738 17.528 15.488 13.158 11.378
800.526 10.038 8.498 7.178 6.928 6.578 6.188 6.258 6.188 6.138 6.268
819.816 6.518 6.548 6.688 7.538 8.898 9.818 11.108 13.468 15.918 18.168
839.106 21.098 25.308 29.878 34.518 39.318 44.218 48.618 51.608 52.888 52.028
858.395 49.168 45.238 40.858 35.038 27.808 20.748 14.558 10.208 7.728 5.808
877.685 4.808 4.618 4.358 4.118 4.078 4.408 4.768 5.348 6.008 6.458
896.975 7.078 8.428 10.718 14.028 18.908 25.088 31.818 38.168 42.758 45.198
916.265 46.538 46.538 44.448 40.678 34.288 25.898 18.368 13.688 11.138 9.508
935.555 8.748 8.178 7.858 7.818 7.788 7.298 6.588 6.238 6.268 6.528
954.844 6.158 5.638 5.768 5.898 5.678 5.588 5.488 5.328 5.738 5.988
974.134 5.968 6.278 6.808 7.068 6.948 7.078 7.418 8.088 8.808 9.618
993.424 10.628 12.048 13.888 15.468 16.988 18.638 20.018 20.888 21.618 22.568
1012.714 23.818 25.538 26.978 27.428 26.748 25.618 24.588 23.268 21.738 19.328
1032.003 16.198 13.528 11.768 11.288 10.998 10.148 9.738 10.028 10.468 11.358
1051.293 12.828 15.008 17.508 20.398 23.188 24.668 24.798 24.418 24.428 23.578
1070.583 22.018 19.498 15.918 13.098 11.408 9.368 7.518 6.598 6.698 7.368
1089.873 6.598 5.478 4.748 4.858 4.988 4.488 4.308 4.208 4.778 5.388
1109.163 5.488 5.838 6.458 6.918 7.848 9.448 11.458 12.538 13.578 15.568
1128.452 16.858 17.168 16.418 15.808 16.428 16.978 16.628 17.108 19.008 21.498
1147.742 22.938 22.998 23.488 23.908 23.418 22.568 20.718 17.708 15.488 14.928
1167.032 14.868 15.198 16.228 16.968 17.448 18.228 19.098 21.068 23.978 28.948
1186.322 36.728 46.788 59.588 77.088 99.888 125.708 151.298 173.248 189.158 197.328
1205.611 200.458 197.298 186.538 168.538 142.108 112.438 87.988 71.318 59.408 48.818
1224.901 40.458 34.668 30.108 26.258 22.798 20.718 19.168 17.438 15.858 14.988
1244.191 14.558 14.198 14.588 15.618 16.468 16.798 16.688 16.538 16.498 17.028
1263.481 17.228 16.398 14.838 12.808 11.168 9.978 9.138 8.018 7.138 6.288
1282.771 5.378 4.938 4.598 4.578 4.658 4.718 5.048 5.408 6.058 6.438
1302.060 6.668 7.218 7.588 7.928 8.338 8.718 9.068 9.408 9.818 10.278
1321.350 10.898 11.598 12.408 13.428 14.618 16.138 18.078 20.248 22.318 24.138
1340.640 25.478 26.388 27.618 29.668 31.918 33.908 36.128 39.598 45.028 52.558
1359.930 62.018 72.718 83.348 92.498 99.218 102.888 103.418 100.458 94.058 84.698
1379.219 73.028 60.648 49.288 40.128 33.308 28.538 25.218 22.898 21.278 20.028
1398.509 19.278 19.308 20.418 22.698 26.158 30.898 36.828 43.698 51.228 59.398
1417.799 67.168 73.338 76.778 76.948 75.138 73.008 70.068 64.478 56.278 47.828
1437.089 40.778 36.098 33.708 33.538 35.798 40.528 47.698 56.248 64.298 70.028
1456.378 73.198 74.478 73.348 69.458 63.888 55.368 44.068 34.218 28.378 26.308
1475.668 27.108 30.258 35.628 43.458 53.868 66.358 80.038 93.628 105.198 113.088
1494.958 116.968 116.788 112.408 103.998 91.858 76.878 61.178 47.428 36.808 29.408
1514.248 24.568 20.888 18.298 16.618 15.018 13.768 12.928 12.358 12.108 11.998
1533.538 12.048 12.178 12.418 12.758 13.098 13.578 14.168 14.878 15.848 16.898
1552.827 17.838 18.908 20.028 20.978 21.888 22.328 22.068 21.658 21.078 20.358
1572.117 19.498 18.468 17.278 16.088 15.218 14.408 13.738 13.098 12.478 12.078
1591.407 11.438 10.718 10.198 9.598 8.968 8.568 8.398 8.138 7.868 7.768
1610.697 7.598 7.468 7.438 7.288 7.208 7.258 7.118 6.968 7.028 7.248
1629.986 7.668 8.188 8.888 9.778 10.738 11.818 13.088 14.578 16.318 17.868
1649.276 18.648 18.938 19.268 19.658 20.148 20.878 21.978 23.498 25.808 29.038
1668.566 33.518 39.838 48.828 61.348 78.518 101.348 131.088 165.668 201.378 231.688
1687.856 249.998 258.658 264.318 268.338 262.328 240.048 204.668 164.678 129.058 99.158
1707.146 75.828 58.258 45.688 36.878 30.708 26.438 23.578 21.648 20.408 19.748
1726.435 19.568 19.748 20.038 20.328 20.778 21.138 21.118 20.588 19.338 17.628
1745.725 16.148 14.838 13.488 12.098 10.758 9.608 8.588 7.708 7.008 6.288
1765.015 5.698 5.278 4.948 4.748 4.648 4.678 4.818 4.938 5.048 5.198
1784.305 5.478 5.968 6.328 6.638 6.888 6.858 6.778 6.648 6.468 6.268
1803.594 5.898 5.418 4.948 4.628 4.498 4.508 4.648 4.948 5.188 5.398
1822.884 5.708 5.998 6.158 6.088 5.948 5.708 5.338 4.908 4.368 3.718
1842.174 3.228 2.848 2.488 2.318 2.238 2.088 2.088 2.218 2.398 2.588
1861.464 2.628 2.528 2.558 2.698 2.708 2.688 2.768 2.908 3.048 3.198
1880.754 3.348 3.268 3.178 3.258 3.148 2.848 2.678 2.588 2.608 2.608
1900.043 2.618 2.788 2.988 3.388 3.808 4.098 4.358 4.498 4.578 4.588
1919.333 4.458 4.278 4.008 3.658 3.368 3.038 2.688 2.528 2.548 2.668
1938.623 2.768 2.948 3.178 3.258 3.388 3.518 3.488 3.438 3.308 3.118
1957.913 2.918 2.538 2.158 1.918 1.708 1.548 1.368 1.208 1.13 1.0737
1977.202 1.1431 1.1489 1.1834 1.348 1.388 1.438 1.538 1.498 1.358 1.348
1996.492 1.408 1.398 1.448 1.378 1.298 1.348 1.378 1.298 1.1632 1.1529
2015.782 1.1153 1.0488 1.0901 1.0888 1.0356 1.0388 0.9476 0.9096 0.893 0.8159
2035.072 0.8883 0.9832 0.9683 0.9847 1.0472 1.0058 0.8857 0.8589 0.849 0.8046
2054.362 0.7616 0.6797 0.756 0.7802 0.6827 0.7093 0.7049 0.7029 0.7601 0.8048
2073.651 0.7659 0.7259 0.6748 0.6382 0.6764 0.773 0.811 0.833 0.8253 0.7725
2092.941 0.7125 0.7924 0.9068 0.834 0.859 0.8175 0.8698 0.9946 0.9813 1.0151
2112.231 1.0347 1.0959 1.248 1.1771 1.0465 1.146 1.328 1.298 1.1468 1.0029
2131.521 0.8457 0.7992 0.7126 0.654 0.6781 0.638 0.6038 0.6704 0.6825 0.6811
2150.810 0.8146 0.7553 0.6971 0.8322 0.7769 0.7615 0.8795 0.7391 0.5453 0.6572
2170.100 0.7654 0.8104 0.7766 0.7127 0.7938 0.7416 0.6657 0.7334 0.7964 0.723
2189.390 0.7458 0.8725 0.9799 1.0019 0.9855 0.9895 1.116 1.218 1.208 1.278
2208.680 1.228 1.0762 1.0538 1.0991 1.1043 0.9515 0.7607 0.8108 0.8825 0.7738
2227.970 0.7828 0.8278 0.8151 0.8421 0.8265 0.8176 0.9017 0.9172 0.9396 0.987
2247.259 0.9492 1.0452 1.1169 1.1573 1.0273 0.9846 1.1198 1.1355 1.1036 1.1636
2266.549 1.228 1.1488 1.1796 1.278 1.348 1.488 1.598 1.668 1.718 1.818
2285.839 1.838 1.688 1.648 1.728 1.698 1.618 1.678 1.628 1.538 1.538
2305.129 1.548 1.578 1.578 1.478 1.448 1.508 1.428 1.418 1.548 1.528
2324.418 1.508 1.478 1.388 1.338 1.378 1.478 1.558 1.598 1.578 1.478
2343.708 1.378 1.378 1.278 1.248 1.318 1.308 1.388 1.458 1.288 1.1433
2362.998 1.0427 1.1015 1.1326 1.0275 1.0569 1.1114 1.0361 1.0588 1.218 1.155
2382.288 0.9933 0.9366 0.9689 0.8406 0.6463 0.7817 0.9936 0.9546 0.9943 1.0094
2401.578 0.9822 1.0377 1.0049 0.9458 0.9436 1.0799 1.1095 0.9429 0.9056 0.9149
2420.867 0.7604 0.7315 0.9222 0.9651 0.9468 1.0102 1.0112 0.9246 0.9404 0.9737
2440.157 1.0231 1.0042 0.8776 0.9926 0.943 0.8671 0.8835 0.8216 0.7931 0.8422
2459.447 0.8679 0.8493 0.8541 0.8441 0.9163 1.0299 0.9605 0.9552 1.043 1.0253
2478.737 1.0974 1.0095 0.9764 1.0287 0.9765 1.0925 1.1247 1.073 0.9787 0.9218
2498.026 0.9592 0.9818 0.9444 0.7583 0.7374 0.9225 1.0063 0.8316 0.818 0.8596
2517.316 0.7828 0.7782 0.7611 0.7725 0.7725 0.7534 0.8146 0.789 0.8025 0.8877
2536.606 0.9188 1.0765 1.1924 1.208 1.1897 1.174 1.258 1.288 1.248 1.288
2555.896 1.278 1.1744 1.1277 1.1268 1.102 1.1499 1.127 1.0096 0.9624 1.0274
2575.186 0.9991 0.8304 0.8428 0.9331 0.8846 0.9191 0.8335 0.7741 0.9357 1.0954
2594.475 1.178 1.218 1.298 1.338 1.398 1.368 1.398 1.418 1.348 1.318
2613.765 1.448 1.478 1.308 1.318 1.308 1.1566 1.0683 1.096 0.9518 0.8471
2633.055 1.0019 1.072 1.0602 1.0564 1.0238 0.9263 0.9055 1.0187 0.9191 0.8495
2652.345 0.8539 0.8306 0.7059 0.6354 0.7025 0.7133 0.7454 0.713 0.7493 0.6519
2671.634 0.5547 0.5864 0.5428 0.6766 0.6977 0.6409 0.7075 0.6741 0.7247 0.6654
2690.924 0.5683 0.5421 0.4246 0.3251 0.5206 0.7085 0.6765 0.8581 0.7584 0.5049
2710.214 0.5054 0.4581 0.491 0.6175 0.6403 0.6449 0.6675 0.6646 0.5774 0.605
2729.504 0.5826 0.3988 0.4717 0.6189 0.658 0.59 0.6109 0.6716 0.6638 0.8101
2748.794 0.8118 0.7704 0.7835 0.8348 0.91 0.985 1.0549 0.904 0.8645 0.7678
2768.083 0.7038 0.8552 0.9963 0.9017 0.7076 0.7476 0.9259 0.8823 0.7157 0.7075
2787.373 0.7843 0.7925 0.7937 0.864 0.8299 0.7526 0.7239 0.6737 0.7658 0.9477
2806.663 0.8893 0.8166 0.757 0.8354 1.0315 1.1694 1.218 1.1531 1.183 1.318
2825.953 1.508 1.598 1.738 2.068 2.328 2.258 2.188 2.428 2.558 2.558
2845.242 2.658 2.628 2.378 2.388 2.308 2.188 2.278 2.288 2.378 2.458
2864.532 2.488 2.368 2.268 2.558 2.588 2.248 2.108 2.158 2.378 2.498
2883.822 2.298 2.188 2.238 2.188 2.208 2.408 2.588 2.598 2.548 2.588
2903.112 2.878 3.018 2.968 2.998 3.018 3.198 3.428 3.748 3.908 4.168
2922.401 4.798 5.208 5.558 6.138 6.638 6.908 6.848 6.748 6.818 6.698
2941.691 6.348 5.868 5.488 4.938 4.348 4.368 4.298 4.178 4.298 4.498
2960.981 4.808 5.228 5.488 5.708 6.328 6.858 7.108 7.578 7.668 7.288
2980.271 7.158 7.168 7.108 6.918 7.088 7.338 7.368 7.578 8.138 8.458
2999.561 8.938 10.058 10.818 11.418 12.298 12.788 12.878 12.878 12.838 12.648
3018.850 12.288 12.018 11.658 11.268 10.968 10.918 11.268 11.498 11.478 11.548
3038.140 11.728 11.928 11.898 11.818 11.968 12.518 13.488 14.858 17.178 20.318
3057.430 24.028 28.488 33.168 38.018 42.278 45.438 47.828 48.958 48.328 45.578
3076.720 41.488 36.758 31.668 26.448 21.308 17.248 14.708 13.038 12.178 11.968
3096.009 11.918 11.928 11.908 11.878 11.858 11.888 11.738 11.298 10.518 9.818
3115.299 9.098 8.228 7.498 6.468 5.408 4.618 3.788 3.308 3.008 2.608
3134.589 2.368 2.048 1.908 1.868 1.668 1.488 1.598 1.598 1.538 1.468
3153.879 1.1816 1.1821 1.388 1.418 1.0994 0.9258 1.208 1.368 1.238 1.228
3173.169 1.258 1.1307 0.9604 1.1958 1.368 1.248 1.208 1.1447 0.9306 0.9729
3192.458 0.9313 0.6558 0.7496 0.8188 0.6577 0.7672 0.7568 0.4308 0.3404 0.4335
3211.748 0.5669 0.7116 0.5825 0.3883 0.3992 0.25719 0.4463 0.5235 0.3068 0.4676
3231.038 0.4049 0.5409 0.6826 0.5116 0.5579 0.5402 0.4255 0.3476 0.591 0.817
3250.328 0.5936 0.3796 0.4932 0.7185 0.6355 0.4435 0.4663 0.5535 0.7145 0.7647
3269.617 0.7152 0.6509 0.6769 0.6093 0.5785 0.7329 0.7171 0.6928 0.6976 0.388
3288.907 0.27768 0.45 0.4558 0.5597 0.6433 0.5614 0.5954 0.6473 0.5158 0.5037
3308.197 0.6502 0.7015 0.7368 0.6508 0.3613 0.26923 0.6144 0.8545 0.7909 0.7339
3327.487 0.7521 0.9626 1.0519 0.7427 0.7654 0.9819 1.0098 1.171 1.418 1.658
3346.777 1.888 2.168 2.508 3.038 3.398 3.548 3.928 4.238 4.398 4.388
3366.066 4.348 4.098 3.828 3.788 3.498 3.018 2.598 2.138 1.818 1.688
3385.356 1.378 1.1771 1.208 1.228 1.0681 0.9551 0.965 1.0252 1.0406 1.0966
3404.646 1.1055 0.8481 0.6697 0.5625 0.4418 0.5096 0.5218 0.5003 0.5543 0.6006
3423.936 0.5523 0.5481 0.6152 0.6911 0.7386 0.4516 0.1713 0.1614 0.1833 0.23386
3443.225 0.4434 0.21344 0.028 0.2153 0.3025 0.2813 0.063 0.066 0.19455 0.1741
3462.515 0.066 0 0.1303 0.385 0.4381 0.3419 0.26606 0.3613 0.3778 0.203546
3481.805 0.065 0.1569 0.3892 0.27721 0.309 0.6213 0.5803 0.3172 0.23336 0.27978
3501.095 0.3249 0.3016 0.326 0.4189 0.5073 0.4206 0.4035 0.5126 0.399 0.3725
3520.385 0.5237 0.5899 0.4286 0.1061 0.1756 0.3694 0.4411 0.454 0.26991 0.25232
3539.674 0.22448 0.176 0.23261 0.145 0.22321 0.3268 0.25652 0.28488 0.19095 0.21098
3558.964 0.22339 0.074 0.19568 0.3042 0.4403 0.4411 0.465 0.4917 0.1293 0.019
3578.254 0.1423 0.1651 0.1162 0.2706 0.4812 0.5246 0.5518 0.384 0.21766 0.3681
3597.544 0.6011 0.4945 0.25514 0.2998 0.3565 0.3152 0.3085 0.205491 0.21689 0.4187
3616.833 0.6207 0.5824 0.4433 0.3345 0.26859 0.1615 0 0.052 0.097 0.1537
3636.123 0.3546 0.3097 0.1061 0.1302 0.23407 0.28056 0.20614 0.3283 0.4366 0.4537
3655.413 0.4141 0.3946 0.3579 0.1334 0.27018 0.4522 0.24908 0.038 0.08 0.1508
3674.703 0.058 0.1815 0.411 0.3643 0.2793 0.4358 0.4953 0.3409 0.4307 0.5317
3693.993 0.4523 0.4916 0.4788 0.29252 0.23386 0.1484 0.1782 0.3933 0.3279 0.1676
3713.282 0.1669 0.356 0.3892 0.172 0.1565 0.3898 0.4177 0.19017 0.23146 0.3603
3732.572 0.3247 0.4029 0.4254 0.5369 0.7437 0.6324 0.465 0.2999 0.23083 0.4841
3751.862 0.5128 0.4868 0.6244 0.5099 0.4582 0.4473 0.3634 0.396 0.23264 0.3478
3771.152 0.5713 0.512 0.5092 0.4942 0.6707 0.5741 0.4243 0.5855 0.7998 1.0094
3790.441 0.9747 0.8969 0.8847 0.699 0.6616 0.7097 0.7257 0.8564 0.8492 0.8523
3809.731 0.8634 0.8428 0.8314 0.736 0.6046 0.6089 0.5813 0.5414 0.5609 0.6481
3829.021 0.5262 0.21306 0.341 0.4679 0.4519 0.6382 0.6208 0.4468 0.4844 0.4388
3848.311 0.4362 0.4782 0.4722 0.45 0.4485 0.4878 0.6019 0.763 0.5611 0.3368
3867.601 0.4274 0.435 0.21518 0.1344 0.3152 0.3178 0.27261 0.4096 0.3689 0.27924
3886.890 0.4271 0.5744 0.568 0.7392 0.6302 0.3703 0.5285 0.4927 0.4079 0.4195
3906.180 0.4228 0.4201 0.26529 0.5542 0.7693 0.5287 0.25932 0.1137 0.1469 0.3282
3925.470 0.5659 0.7764 1.046 0.8788 0.822 0.8447 0.6473 0.7604 0.7626 0.6483
3944.760 0.5761 0.5692 0.6726 0.7406 0.7521 0.6572 0.4769 0.3832 0.6382 0.8103
3964.049 0.7133 0.8362 0.913 1.1675 1.288 0.9865 0.8934 0.7701 0.3698 0.28491
3983.339 0.5983 0.6783 0.5435 0.3513 0.397 0.3738 0.29218 0.418 0.4167 0.3159
##END=
