##TITLE=(S)-(+)-2-Pentanol
##JCAMP-DX=4.24
##DATA TYPE=INFRARED SPECTRUM
##ORIGIN=EPA-IR VAPOR PHASE LIBRARY
##OWNER=SRD/NIST
Collection (C) 2018 copyright by the U.S. Secretary of Commerce
on behalf of the United States of America. All rights reserved.
##CAS REGISTRY NO=26184-62-3
##MOLFORM=C 5 H 12 O
##$NIST SOURCE=MSDC-IR
##STATE=gas
##XUNITS=1/CM
##YUNITS=ABSORBANCE
##XFACTOR=1.
##YFACTOR=0.001
##DELTAX=1.92898
##FIRSTX=549.8
##LASTX=4000.7
##FIRSTY=1.609
##MAXX=4000.7
##MINX=549.759
##MAXY=0.081839
##MINY=0
##NPOINTS=1790
##XYDATA=(X++(Y..Y))
549.759 1.609 1.709 1.3952 1.3725 1.1903 1.3814 1.4782 1.1669 0.186 0.4451
569.049 0.5727 0.53572 0.6785 0 0.885 1.509 1.4216 1.779 1.2509 0.8114
588.339 1.2873 1.699 1.489 1.3085 1.1042 0.192 0.205 1.1828 1.1556 1.1975
607.628 1.3962 1.1154 0.9668 0.8381 0.9273 1.519 1.1911 0.7795 1.3549 1.869
626.918 1.4264 1.125 0.9777 0.8231 1.2983 1.2051 1.0565 0.7836 0.4104 0.6171
646.208 0.7799 0.8989 1.1736 1.3727 1.4266 1.2295 0.8117 1.143 1.347 1.4491
665.498 1.869 1.579 1.559 1.849 1.779 1.619 1.4062 1.3413 1.4633 1.589
684.787 1.579 1.3806 1.1459 0.9242 0.6915 0.8474 1.1354 1.2601 1.499 1.4494
704.077 1.499 1.3605 0.8687 0.7675 0.9893 1.2011 1.375 1.4372 1.499 1.699
723.367 1.629 1.478 1.679 1.579 1.619 1.699 1.4613 1.549 1.709 2.229
742.657 2.129 1.999 2.119 1.679 1.589 1.589 1.739 1.929 2.039 1.889
761.947 1.3715 0.9843 0.7949 0.8941 1.2534 1.4178 1.3787 1.2717 1.1712 1.315
781.236 1.2384 1.0448 1.2026 1.4598 1.639 1.4236 1.3585 1.689 1.759 1.759
800.526 2.109 2.479 2.319 2.319 2.539 2.879 3.169 3.009 3.049 3.449
819.816 3.969 4.009 4.269 4.319 4.059 4.429 4.729 4.959 4.969 4.729
839.106 4.899 5.209 4.879 4.889 4.889 4.449 4.349 3.859 3.949 4.009
858.395 3.649 3.639 3.529 4.169 4.039 3.349 3.939 4.409 4.329 4.709
877.685 4.789 4.949 5.799 6.049 5.989 5.939 6.219 6.639 6.599 6.869
896.975 6.809 6.589 6.809 6.729 6.979 6.829 6.279 6.229 6.099 6.189
916.265 6.319 6.719 6.779 6.409 6.939 7.689 8.189 8.309 8.569 8.889
935.555 9.269 9.659 9.189 8.939 9.029 9.069 9.489 9.579 9.249 8.829
954.844 8.299 7.719 7.339 7.159 7.029 7.019 6.849 6.719 6.289 5.939
974.134 6.439 6.429 5.999 6.619 7.219 7.289 7.319 7.989 8.899 9.139
993.424 9.339 9.499 9.839 10.429 10.889 11.739 12.599 13.099 13.509 13.309
1012.714 13.459 14.559 14.649 14.519 14.099 13.229 13.739 14.039 13.509 13.089
1032.003 12.709 12.259 12.389 12.479 11.639 10.919 11.669 12.059 11.809 11.629
1051.293 11.409 11.909 12.169 12.819 13.329 12.849 13.369 14.019 14.069 14.789
1070.583 14.769 14.299 14.359 14.259 14.149 15.069 15.149 15.019 16.949 16.839
1089.873 14.879 14.939 14.929 15.099 16.399 16.739 16.499 15.569 14.289 15.239
1109.163 16.309 16.079 16.809 17.459 18.119 18.309 18.419 19.439 19.759 19.529
1128.452 19.329 19.609 21.029 21.259 20.559 21.159 19.709 18.469 18.489 17.989
1147.742 17.999 16.769 15.359 14.339 13.199 12.659 11.939 10.959 10.539 9.809
1167.032 8.569 7.879 7.909 7.429 6.829 6.439 6.699 6.829 6.659 7.419
1186.322 7.509 6.489 5.989 5.939 5.669 6.479 6.839 6.089 6.179 7.419
1205.611 9.389 10.369 9.609 7.369 6.479 7.699 9.389 9.479 9.449 11.249
1224.901 11.059 10.869 12.239 12.799 12.989 12.039 12.129 12.809 12.569 12.849
1244.191 12.689 12.319 12.279 12.489 12.369 12.159 11.929 11.409 11.179 11.079
1263.481 10.649 10.679 10.069 9.169 8.799 9.159 9.239 8.619 8.149 7.319
1282.771 7.059 7.329 7.349 6.889 6.139 6.309 6.329 5.979 6.139 6.159
1302.060 6.099 5.989 5.789 5.809 5.839 5.799 5.829 5.849 5.939 6.099
1321.350 6.439 6.619 6.789 6.989 7.059 7.249 7.599 7.849 7.969 8.209
1340.640 8.499 8.879 9.339 9.699 9.999 10.509 11.099 11.479 12.079 12.929
1359.930 13.809 14.659 15.519 16.349 17.159 18.009 18.719 19.319 19.769 19.959
1379.219 20.129 20.169 20.209 20.209 19.729 19.019 18.229 17.309 16.349 15.359
1398.509 14.279 13.309 12.409 11.329 10.519 9.929 9.149 8.509 7.929 7.449
1417.799 7.259 6.929 6.729 6.579 6.699 6.939 7.159 7.599 7.659 7.729
1437.089 7.939 8.309 8.799 9.119 9.419 9.909 10.289 10.569 10.739 11.019
1456.378 11.179 11.019 11.009 11.119 10.859 10.269 10.059 9.839 9.509 8.919
1475.668 8.389 8.069 7.619 7.059 6.509 5.999 5.239 4.759 4.579 4.129
1494.958 4.059 3.799 3.059 2.909 2.909 2.699 2.359 2.179 2.219 2.239
1514.248 2.229 2.089 1.889 1.869 1.969 1.999 1.969 1.899 1.639 1.4094
1533.538 1.3693 1.569 1.659 1.2687 1.212 1.312 1.2509 1.1385 1.2844 1.4105
1552.827 1.2031 1.155 1.2699 1.2263 1.2245 1.1867 1.1709 1.0765 0.9649 1.1152
1572.117 1.2022 1.2288 1.304 1.2952 1.0586 1.0099 1.142 1.0862 1.1651 1.2324
1591.407 1.2808 1.0553 0.8329 1.0152 1.2227 1.0577 0.7178 0.7487 1.0169 1.1711
1610.697 1.131 1.2713 1.0815 0.6431 0.7745 0.8638 0.57055 0.7342 0.772 0.7453
1629.986 0.855 0.8426 1.0506 1.0079 1.1752 1.2239 1.1624 1.1596 0.9086 0.8316
1649.276 0.8265 0.7283 0.7318 0.9519 0.9766 0.9455 0.9579 1.0444 1.119 1.1762
1668.566 1.0045 0.706 0.8564 0.9507 0.9005 1.0091 0.8994 0.7472 0.8139 0.9496
1687.856 0.9542 0.9649 1.0004 0.9362 0.9035 0.8287 0.7192 0.7195 0.9163 0.9341
1707.146 0.913 0.9022 0.8589 0.8388 0.87 0.9001 0.761 0.8034 0.8607 0.9364
1726.435 0.9589 0.9829 1.0584 0.8713 0.8111 0.8728 0.9051 0.8907 0.8832 0.9443
1745.725 0.8085 0.668 0.5859 0.51878 0.6015 0.746 0.7566 0.7064 0.8674 0.8855
1765.015 0.7979 0.7516 0.7123 0.8327 0.76 0.6516 0.6715 0.7783 0.7907 0.8717
1784.305 0.8291 0.7439 0.8217 0.7969 0.7436 0.7172 0.6714 0.7278 0.8429 0.7559
1803.594 0.7678 0.8337 0.8141 0.792 0.8414 0.9363 0.9716 0.9244 0.9177 0.8926
1822.884 0.8399 0.9262 0.9422 0.768 0.7683 0.8488 0.7938 0.7399 0.7552 0.7465
1842.174 0.675 0.8056 0.9244 0.7467 0.751 0.8019 0.7868 0.7955 0.8002 0.9311
1861.464 0.8876 0.781 0.8658 0.9068 0.7891 0.7545 0.776 0.7644 0.8568 0.7656
1880.754 0.7437 0.8418 0.8632 0.7476 0.6163 0.6446 0.5339 0.51722 0.6069 0.55955
1900.043 0.50262 0.6156 0.7384 0.704 0.6644 0.6465 0.7604 0.8019 0.6174 0.49888
1919.333 0.4457 0.6139 0.8163 0.8847 0.756 0.6855 0.8096 0.8396 0.6938 0.6344
1938.623 0.6702 0.7257 0.8315 0.8257 0.7448 0.7051 0.8864 1.0148 0.8934 0.8535
1957.913 0.843 0.8157 0.912 0.7621 0.4061 0.4352 0.6481 0.6244 0.674 0.8868
1977.202 0.9307 0.7138 0.7188 0.854 0.7984 0.6775 0.6879 0.7566 0.7037 0.7183
1996.492 0.6361 0.51432 0.6834 0.6723 0.5942 0.8193 0.7406 0.56971 0.6678 0.8065
2015.782 0.7794 0.54312 0.6165 0.7281 0.5974 0.6016 0.6343 0.6571 0.6383 0.56229
2035.072 0.6683 0.7481 0.7773 0.875 0.9353 0.8502 0.7257 0.7101 0.7076 0.7527
2054.362 0.7859 0.896 0.9314 0.827 0.8309 0.8037 0.6974 0.57305 0.54574 0.6546
2073.651 0.7007 0.7024 0.6065 0.4092 0.361 0.4443 0.6871 0.7871 0.6871 0.6317
2092.941 0.7702 0.9686 0.7401 0.8042 0.9149 0.8627 0.8325 0.6568 0.7107 0.7201
2112.231 0.7487 0.8135 0.8695 0.7324 0.6282 0.6677 0.55936 0.693 0.8742 0.7679
2131.521 0.8015 0.9555 0.8899 0.7272 0.6716 0.7532 0.795 0.8424 0.9413 0.8921
2150.810 0.9409 1.0861 0.8723 0.632 0.693 0.8567 0.9238 0.6895 0.49959 0.7355
2170.100 0.8582 0.7461 0.7043 0.8578 0.9098 0.8781 0.9458 0.8587 0.7963 0.7368
2189.390 0.7388 0.8745 0.9223 0.9763 0.9582 0.9467 0.9763 0.8439 0.8091 0.8733
2208.680 0.8948 0.986 0.8973 0.8602 0.8544 0.8376 0.8576 0.7716 0.8267 0.9578
2227.970 0.8439 0.7396 0.9528 1.0791 1.1039 1.0888 1.0048 0.7812 0.7192 0.7751
2247.259 0.7801 0.8909 0.7664 0.6631 0.8986 0.8711 0.8394 0.8673 0.8106 1.004
2266.549 1.0607 0.8574 0.933 0.9768 0.8736 1.0047 0.9791 0.909 0.9925 0.9527
2285.839 0.8274 0.7734 0.851 0.8367 0.8448 1.0035 0.969 0.9205 0.9881 0.8967
2305.129 0.9026 1.0263 0.8983 0.7376 0.8276 0.9942 1.0806 0.9791 0.8852 0.9212
2324.418 0.9054 0.9974 0.8883 0.7479 0.8256 0.8403 0.7981 0.7091 0.6888 0.7039
2343.708 0.8369 0.9884 0.8282 0.84 0.975 1.0516 0.9777 0.8438 0.8672 0.7023
2362.998 0.6464 0.883 1.0543 1.16 1.3093 1.3065 1.1665 1.1402 1.0289 1.041
2382.288 1.2332 1.1922 0.9968 0.8983 0.8819 1.1256 1.2585 1.122 1.1118 0.9257
2401.578 0.9581 1.1825 1.0581 1.0642 1.3085 1.3226 1.2215 1.1077 1.0014 0.8613
2420.867 0.8686 1.0849 1.1487 0.9477 0.8204 0.9998 1.1324 1.2879 1.2986 1.2698
2440.157 1.316 1.2059 0.8647 0.5982 0.7513 0.8819 0.7902 0.8244 0.9589 0.8824
2459.447 0.7014 0.8145 0.8224 0.6397 0.7776 1.0109 1.0873 1.0461 0.9887 1.0605
2478.737 1.0022 0.973 1.2084 1.0032 0.677 0.6411 0.7452 0.9292 1.0174 0.8996
2498.026 0.9845 0.9588 0.7978 1.0315 1.0787 0.8622 0.8483 1.1055 1.1333 1.0189
2517.316 1.0878 1.1549 0.9986 0.8971 0.8847 0.7625 0.6846 0.907 1.1052 0.9878
2536.606 0.9986 1.1149 1.1765 1.082 1.0502 1.0894 1.0687 0.9839 0.9106 1.0146
2555.896 1.0254 0.9969 0.9098 1.0866 1.2491 1.0778 1.2084 1.2789 1.2993 1.3757
2575.186 1.362 1.4623 1.529 1.3701 1.4487 1.539 1.429 1.549 1.659 1.4717
2594.475 1.1459 1.13 1.3373 1.4313 1.489 1.549 1.529 1.699 1.879 1.619
2613.765 1.539 1.589 1.529 1.3979 1.2683 1.3042 1.589 1.709 1.539 1.919
2633.055 2.279 2.129 1.909 1.879 2.099 2.189 2.029 1.969 1.789 1.799
2652.345 2.119 2.039 2.009 2.229 2.259 2.099 2.049 2.219 2.179 2.409
2671.634 2.499 2.079 2.219 2.229 2.089 2.079 2.229 2.459 2.459 2.369
2690.924 2.199 2.189 2.079 1.979 1.999 2.199 2.439 2.369 2.129 1.989
2710.214 2.099 2.219 2.499 2.629 2.539 2.609 2.399 2.389 2.469 2.409
2729.504 2.749 2.779 2.479 2.779 2.989 2.869 2.929 2.799 2.819 3.139
2748.794 3.149 3.069 2.939 2.929 2.989 3.039 3.109 2.979 3.059 2.799
2768.083 2.789 3.179 3.019 2.819 3.149 3.309 3.059 3.119 3.339 3.359
2787.373 3.519 3.709 3.859 4.139 4.329 4.119 4.049 4.319 4.249 4.279
2806.663 4.539 4.759 4.999 4.999 5.229 5.589 5.759 6.039 6.399 6.819
2825.953 7.429 8.019 8.469 8.789 9.059 9.729 10.649 11.119 11.869 12.889
2845.242 13.599 14.509 15.609 16.589 17.819 19.189 20.439 21.619 22.959 24.479
2864.532 25.819 27.419 29.609 31.689 33.959 36.299 37.489 38.499 39.619 40.129
2883.822 40.699 41.419 41.419 41.519 41.989 42.269 42.309 42.189 42.299 42.859
2903.112 43.589 43.919 44.519 45.739 47.469 48.969 50.129 51.939 53.789 55.699
2922.401 57.289 58.909 60.729 61.939 62.979 64.079 64.539 64.449 64.319 64.269
2941.691 64.459 64.619 65.469 66.019 66.439 67.589 69.009 70.889 72.749 74.699
2960.981 76.879 78.789 80.589 81.639 81.839 81.499 80.449 78.769 75.779 72.179
2980.271 68.339 63.839 58.619 52.799 46.989 41.839 36.819 31.949 27.759 23.979
2999.561 20.519 17.609 14.709 12.699 11.529 10.079 8.959 8.269 7.769 6.959
3018.850 6.249 5.709 5.459 5.399 5.019 5.219 5.269 4.739 4.389 4.239
3038.140 4.269 3.849 3.889 4.189 4.389 4.419 3.809 3.249 3.089 3.409
3057.430 3.729 3.369 2.989 2.979 2.699 2.759 2.889 3.019 3.259 3.129
3076.720 2.799 2.729 2.879 2.889 2.859 2.699 2.479 2.279 2.409 2.309
3096.009 2.399 2.669 2.479 2.469 2.599 2.799 2.709 2.469 2.329 2.069
3115.299 1.979 2.189 2.259 1.989 1.989 2.289 2.289 2.119 1.609 1.3422
3134.589 1.3464 1.4523 1.569 1.519 1.819 2.029 1.959 1.479 1.529 1.949
3153.879 2.179 2.409 2.309 2.089 1.739 1.709 1.539 1.549 1.759 1.569
3173.169 1.4577 1.3742 1.529 1.829 1.689 1.589 1.849 1.609 1.0996 1.3562
3192.458 1.619 1.3704 1.839 2.339 1.909 1.719 1.539 1.2361 1.4373 1.4406
3211.748 1.1854 1.3838 1.799 2.019 1.799 1.4097 1.148 1.0411 1.2942 1.2314
3231.038 1.1039 1.1612 0.8534 0.57268 1.0504 1.1281 1.0382 1.2763 0.9014 0.485109
3250.328 0.4576 0.4359 0.4305 0.7484 1.017 0.9014 0.986 0.9883 0.7404 0.8478
3269.617 1.2331 1.3901 0.8557 0.54942 1.038 0.9972 0.8972 0.8654 0.5431 0.7848
3288.907 0.9768 0.8796 0.8768 0.7366 0.5898 0.54916 0.294 0.138 0.55582 1.0107
3308.197 0.7783 0.7756 0.7395 0.6044 0.8882 0.9875 0.8921 0.6972 0.5891 0.9173
3327.487 1.0749 0.7783 0.7232 0.9646 1.3279 1.475 1.709 1.539 1.0735 0.855
3346.777 0.48915 0.3959 0.8508 1.1645 1.0052 0.54498 0.4654 0.8982 0.8724 0.7363
3366.066 0.9441 1.2535 1.1984 0.8001 0.7226 1.1011 1.1922 1.2913 1.3782 1.1744
3385.356 1.2899 1.1359 0.5956 0.4489 0.6466 1.1408 1.2747 1.3628 1.415 1.3053
3404.646 1.489 1.2423 1.1739 1.0959 0.9862 1.4266 1.649 1.2993 1.2296 1.3279
3423.936 0.9642 0.6091 0.9999 1.2527 1.4267 1.629 1.519 1.3342 1.1483 1.3513
3443.225 1.2042 1.1742 1.2058 1.305 1.3389 1.0202 1.0596 1.2952 1.3008 0.9715
3462.515 1.1539 1.331 1.0792 0.9875 0.8943 0.7586 0.6978 0.9017 1.1611 0.7914
3481.805 0.51081 0.8396 0.8935 1.0798 1.4052 1.3343 1.244 1.3436 1.799 1.3292
3501.095 0.5016 0.7183 0.719 0.7823 0.9918 0.9318 1.0186 0.6545 0.305 0.55706
3520.385 0.8279 0.7354 0.8524 1.024 0.8956 0.8962 0.9475 1.0052 0.6836 0.50878
3539.674 0.7378 0.8127 0.6364 0.51277 0.56832 0.9622 1.3547 1.2127 0.7568 0.882
3558.964 1.0821 0.7963 0.9705 0.928 0.53739 0.47608 0.8508 1.1478 1.3986 1.2434
3578.254 0.8547 0.9036 0.8372 0.7888 1.489 2.059 1.4182 1.1075 1.3873 1.4701
3597.544 1.3709 1.0454 1.3057 1.639 1.3434 0.945 1.2375 1.849 2.079 1.989
3616.833 1.929 1.929 2.069 2.429 2.479 2.619 3.399 3.939 4.189 4.849
3636.123 5.239 5.459 6.229 6.599 6.709 6.929 6.969 7.089 7.359 7.259
3655.413 7.319 7.329 7.149 7.049 6.599 6.439 6.059 5.489 5.379 5.099
3674.703 4.219 3.829 3.379 2.959 2.809 2.259 1.739 1.549 1.301 1.4662
3693.993 2.179 2.049 1.2233 1.0439 1.1569 0.9484 0.9831 0.9333 0.9718 1.2455
3713.282 1.0589 1.1058 1.1638 0.7986 0.8227 1.1293 1.0192 0.9276 0.9226 0.8812
3732.572 0.8549 0.7494 0.8859 0.9806 1.3329 1.2918 1.0731 1.1951 1.1209 1.0588
3751.862 0.6918 0.54991 0.6489 1.0504 1.0987 1.0881 1.3394 1.0493 0.9139 1.0024
3771.152 0.8802 1.004 1.0375 0.53745 0.6116 1.0624 0.9716 0.731 0.7629 0.4363
3790.441 0.51281 1.2737 1.2025 0.7901 0.8587 0.804 0.7936 1.1609 1.0857 1.0864
3809.731 1.4321 1.0793 0.8736 1.0126 1.2669 1.3898 0.932 0.9447 1.1496 1.2317
3829.021 1.2208 0.8337 0.9742 1.1337 0.891 1.2473 1.3856 0.928 0.9742 0.9838
3848.311 0.9453 1.1702 0.8402 0.50362 1.3371 1.839 1.2546 1.0451 0.8174 0.6194
3867.601 1.0436 1.0081 0.6919 0.9349 0.971 1.3163 1.4651 0.7595 0.5904 0.6319
3886.890 0.479525 0.8005 1.4671 1.4264 1.1181 1.509 1.4768 0.8756 0.7234 0.7964
3906.180 0.846 0.9996 0.7219 0.303 0.4542 0.961 1.3021 1.4062 1.4468 1.2715
3925.470 1.0082 0.6271 1.0908 0.996 0.5305 0.9172 1.0659 0.8602 0.6712 0.8591
3944.760 0.9407 0.8715 0.8236 0.817 0.649 0.53232 0.7642 0.6189 0.5927 0.7862
3964.049 0.47713 0.7222 1.1047 1.0825 1.196 0.9202 0.6192 0.6488 1.0321 1.499
3983.339 1.1248 0.9059 1.3796 1.2164 0.9478 0.6139 0.4442 0.7377 0.54768 0.365
##END=
