##TITLE=3,4-Methylenedioxynitrobenzene
##JCAMP-DX=4.24
##DATA TYPE=INFRARED SPECTRUM
##ORIGIN=EPA-IR VAPOR PHASE LIBRARY
##OWNER=SRD/NIST
Collection (C) 2018 copyright by the U.S. Secretary of Commerce
on behalf of the United States of America. All rights reserved.
##CAS REGISTRY NO=2620-44-2
##MOLFORM=C 7 H 5 N O 4
##$NIST SOURCE=MSDC-IR
##STATE=gas
##XUNITS=1/CM
##YUNITS=ABSORBANCE
##XFACTOR=1.
##YFACTOR=0.001
##DELTAX=1.92898
##FIRSTX=549.8
##LASTX=4000.7
##FIRSTY=1.3222
##MAXX=4000.7
##MINX=549.759
##MAXY=0.092375
##MINY=0
##NPOINTS=1790
##XYDATA=(X++(Y..Y))
549.759 1.3222 1.3184 1.0882 0.91 0.9129 0.7289 0.9007 1.1107 1.0785 1.525
569.049 2.025 2.685 3.535 4.125 4.435 4.655 4.745 4.525 4.335 4.045
588.339 3.615 2.925 1.955 1.425 1.4114 1.2738 1.072 1.045 0.9252 0.8641
607.628 0.9673 0.854 0.6356 0.6067 0.7011 0.52171 0.46339 0.7086 0.8689 0.8729
626.918 0.8373 0.758 0.6948 0.7597 0.8885 0.9945 1.0212 1.0431 1.0824 1.0575
646.208 1.05 1.0071 0.8989 0.8327 0.8679 1.0769 1.221 1.2155 1.0205 1.0341
665.498 1.2461 1.505 2.005 2.715 3.455 4.005 4.445 4.695 4.895 5.045
684.787 4.945 4.545 3.845 3.205 2.865 2.635 2.285 2.125 2.045 1.975
704.077 2.185 2.245 2.405 2.865 3.425 4.365 5.115 5.485 5.955 6.575
723.367 7.195 7.865 8.465 9.005 9.625 9.655 9.495 9.835 11.045 12.435
742.657 11.725 9.565 8.235 7.615 6.945 6.105 5.165 4.325 3.595 2.815
761.947 2.225 1.925 1.665 1.525 1.425 1.3875 1.4076 1.398 1.2966 1.2939
781.236 1.485 1.595 1.695 2.065 2.675 3.415 4.375 5.615 7.225 9.055
800.526 10.805 12.385 13.715 14.895 16.155 17.545 19.155 20.745 22.045 22.365
819.816 22.115 21.285 19.355 17.755 16.035 13.195 10.395 8.395 6.845 5.725
839.106 4.995 4.335 3.745 3.245 2.975 3.065 3.135 3.335 3.765 4.295
858.395 5.005 5.695 6.455 7.375 8.295 9.035 9.765 10.545 11.125 11.315
877.685 11.015 10.005 8.705 7.785 6.885 5.885 5.125 4.495 3.955 3.535
896.975 3.305 3.355 3.575 4.075 4.835 5.745 6.845 8.185 9.675 10.995
916.265 12.005 12.575 12.995 13.785 14.615 14.865 14.645 14.235 13.985 13.965
935.555 14.035 14.215 14.215 14.185 14.135 13.805 13.195 12.395 11.465 10.415
954.844 9.255 8.145 7.065 5.795 4.765 4.005 3.485 3.175 2.835 2.625
974.134 2.455 2.375 2.305 2.215 2.145 2.225 2.185 2.075 2.165 2.325
993.424 2.425 2.575 2.735 2.945 3.245 3.515 3.805 4.105 4.595 5.315
1012.714 6.285 7.355 8.385 9.595 11.185 12.945 15.055 17.685 20.645 24.205
1032.003 28.085 31.635 35.235 38.645 41.045 42.675 43.655 43.575 42.405 39.825
1051.293 36.465 33.235 30.075 26.915 23.975 21.205 18.815 16.575 14.945 14.075
1070.583 12.795 11.295 9.905 8.655 7.515 6.715 6.345 5.735 5.105 4.805
1089.873 4.935 4.985 5.035 5.425 5.755 6.525 7.715 9.245 10.405 11.095
1109.163 11.795 12.415 12.515 12.295 12.165 11.725 10.315 8.955 8.045 7.005
1128.452 6.135 5.455 4.855 4.215 3.585 3.125 2.985 2.585 2.565 2.635
1147.742 2.345 2.225 2.405 2.495 2.625 2.925 3.235 3.425 3.285 3.335
1167.032 3.425 3.495 3.465 3.225 2.885 2.555 2.475 2.315 1.995 1.885
1186.322 1.855 1.785 1.785 1.845 1.985 2.215 2.305 2.535 2.935 2.955
1205.611 3.395 4.145 4.985 6.075 7.415 9.625 12.325 15.575 19.465 23.645
1224.901 28.095 33.155 38.505 43.815 48.495 51.815 53.375 53.395 53.275 53.275
1244.191 54.235 56.885 61.595 68.105 74.805 79.965 83.125 84.905 84.825 81.595
1263.481 73.785 61.965 48.765 37.035 28.175 22.045 17.365 13.585 10.975 9.305
1282.771 8.385 7.975 7.705 7.525 7.475 7.305 7.125 7.045 6.935 6.695
1302.060 6.315 6.075 6.165 6.565 7.215 7.955 8.945 10.325 12.105 14.115
1321.350 16.375 18.915 21.505 24.205 27.075 30.085 33.325 37.105 41.765 47.665
1340.640 54.815 62.615 70.245 76.745 81.595 84.575 85.455 83.915 79.435 72.635
1359.930 64.845 57.115 50.025 43.915 38.925 34.855 31.425 28.155 24.595 20.685
1379.219 16.765 13.505 11.185 9.715 8.885 8.505 8.445 8.645 9.025 9.475
1398.509 9.965 10.415 10.715 10.905 11.025 10.925 10.645 10.275 9.905 9.645
1417.799 9.595 9.845 10.455 11.495 12.895 14.535 16.235 17.725 18.885 19.615
1437.089 19.975 19.975 19.505 18.575 17.425 16.365 15.855 16.025 16.745 17.935
1456.378 19.615 21.875 24.565 27.845 31.755 36.465 42.265 49.355 57.575 66.715
1475.668 75.415 82.895 88.255 91.475 92.375 90.155 84.435 75.935 65.715 55.645
1494.958 46.295 37.855 31.665 28.425 27.755 28.145 28.325 28.185 28.315 28.675
1514.248 29.015 28.815 28.105 27.975 29.095 31.335 34.515 38.375 42.655 47.005
1533.538 51.195 54.945 57.795 59.635 60.355 60.335 59.925 59.185 57.745 55.315
1552.827 52.175 48.605 45.195 41.715 38.205 35.135 32.395 29.925 27.225 24.215
1572.117 21.245 18.455 16.005 14.095 12.535 11.305 10.395 9.635 9.075 8.705
1591.407 8.475 8.335 8.285 8.255 8.255 8.265 8.285 8.275 8.235 8.115
1610.697 7.855 7.575 7.165 6.625 5.995 5.405 4.905 4.445 4.195 3.985
1629.986 3.805 3.765 3.685 3.615 3.555 3.425 3.275 3.135 3.015 2.795
1649.276 2.545 2.415 2.195 1.865 1.695 1.645 1.545 1.505 1.495 1.485
1668.566 1.495 1.445 1.4111 1.435 1.455 1.455 1.525 1.615 1.685 1.745
1687.856 1.735 1.765 1.775 1.755 1.715 1.715 1.725 1.615 1.525 1.495
1707.146 1.4032 1.3242 1.2966 1.2281 1.1957 1.1937 1.1903 1.2529 1.286 1.2866
1726.435 1.3742 1.495 1.575 1.695 1.875 2.055 2.205 2.355 2.475 2.565
1745.725 2.605 2.585 2.535 2.415 2.335 2.235 2.095 1.965 1.805 1.655
1765.015 1.565 1.485 1.366 1.2777 1.2505 1.1925 1.1694 1.1427 1.0937 1.0431
1784.305 0.9832 0.9556 0.9285 0.8813 0.8239 0.8029 0.785 0.7884 0.8011 0.7608
1803.594 0.7415 0.773 0.8189 0.8239 0.8346 0.8464 0.8486 0.8575 0.8551 0.9632
1822.884 1.0977 1.1038 1.1301 1.2147 1.2561 1.3221 1.455 1.555 1.615 1.765
1842.174 1.825 1.895 2.075 2.125 2.205 2.315 2.385 2.475 2.525 2.555
1861.464 2.555 2.505 2.445 2.455 2.385 2.245 2.145 2.085 1.945 1.775
1880.754 1.685 1.575 1.515 1.4193 1.3203 1.2469 1.0705 0.9685 0.9579 0.9083
1900.043 0.8099 0.7143 0.7066 0.7473 0.7207 0.6746 0.6569 0.6309 0.6044 0.5927
1919.333 0.6324 0.6515 0.6275 0.6509 0.7018 0.7471 0.7627 0.7292 0.7142 0.7197
1938.623 0.7316 0.7672 0.7674 0.7763 0.7738 0.7495 0.7864 0.7978 0.8101 0.8722
1957.913 0.8794 0.8792 0.8927 0.9242 0.9909 1.0671 1.1448 1.1925 1.2926 1.3661
1977.202 1.4145 1.495 1.505 1.505 1.515 1.505 1.425 1.2832 1.1464 1.0648
1996.492 1.0042 0.9927 0.9878 0.865 0.8444 0.8554 0.8089 0.7998 0.7511 0.6996
2015.782 0.6988 0.7278 0.7156 0.6735 0.6679 0.6751 0.6828 0.7037 0.7078 0.7186
2035.072 0.749 0.7681 0.7984 0.8735 0.9433 0.9902 1.0662 1.0798 1.0422 1.0278
2054.362 1.0484 1.0718 1.0734 1.101 1.0958 1.0766 1.1367 1.2127 1.2008 1.184
2073.651 1.193 1.1442 1.1095 1.1046 1.1187 1.1403 1.0904 1.063 1.0553 0.9908
2092.941 0.9283 0.9403 0.9587 0.8859 0.8366 0.8454 0.8523 0.795 0.7332 0.7571
2112.231 0.7714 0.7446 0.6727 0.6191 0.6022 0.593 0.5977 0.5899 0.5813 0.5816
2131.521 0.5345 0.51316 0.5282 0.50836 0.48636 0.50491 0.5466 0.5285 0.5325 0.5419
2150.810 0.52011 0.5287 0.5698 0.5459 0.51282 0.5421 0.5738 0.604 0.5716 0.5311
2170.100 0.5331 0.5632 0.5915 0.594 0.5888 0.5368 0.5562 0.6214 0.628 0.5488
2189.390 0.526 0.5858 0.548 0.51184 0.49593 0.5361 0.5724 0.5311 0.5392 0.5849
2208.680 0.5961 0.5604 0.5472 0.5857 0.5782 0.6258 0.7231 0.7126 0.6614 0.6471
2227.970 0.6498 0.6485 0.6379 0.6637 0.694 0.6702 0.6637 0.6277 0.6281 0.6828
2247.259 0.6439 0.6072 0.6403 0.6674 0.6701 0.6912 0.7096 0.7171 0.7671 0.8339
2266.549 0.8888 0.886 0.9282 1.0109 1.051 1.0172 0.9975 1.0617 1.0552 0.9723
2285.839 0.9724 0.9627 0.9138 0.9635 0.9435 0.8869 0.897 0.942 0.9975 0.9746
2305.129 0.97 0.9783 0.9508 0.9481 0.9474 0.9905 1.0397 1.0639 1.0741 1.0284
2324.418 0.9843 1.0017 0.9763 0.859 0.7892 0.8611 0.8812 0.7962 0.8114 0.8446
2343.708 0.8144 0.7851 0.762 0.77 0.76 0.6984 0.6994 0.7595 0.783 0.7454
2362.998 0.7452 0.7511 0.7183 0.6758 0.6539 0.6741 0.6412 0.5907 0.557 0.5694
2382.288 0.6126 0.6196 0.6061 0.6561 0.6432 0.6556 0.7286 0.7299 0.7534 0.7729
2401.578 0.7345 0.749 0.7698 0.7094 0.7052 0.7734 0.7775 0.775 0.8365 0.8007
2420.867 0.7089 0.7314 0.7691 0.7936 0.7832 0.7573 0.7821 0.7659 0.7087 0.6573
2440.157 0.6456 0.6464 0.6125 0.6037 0.6298 0.6407 0.6052 0.5444 0.5511 0.572
2459.447 0.6437 0.7174 0.7089 0.6487 0.5781 0.6006 0.6159 0.638 0.6966 0.7199
2478.737 0.7063 0.6983 0.7333 0.6966 0.7267 0.7486 0.7072 0.733 0.7306 0.7405
2498.026 0.7332 0.7203 0.767 0.7713 0.8105 0.7983 0.7615 0.8408 0.944 0.9792
2517.316 0.9235 0.9862 1.0346 1.0348 1.0408 1.0348 1.0064 1.0557 1.1415 1.0847
2536.606 1.0129 0.9185 0.8576 0.847 0.822 0.8215 0.8304 0.8414 0.803 0.7388
2555.896 0.7251 0.7464 0.78 0.7859 0.7503 0.6902 0.7303 0.8199 0.7686 0.7845
2575.186 0.8653 0.8709 0.8981 0.899 0.8927 0.9216 0.926 0.9176 0.9564 1.0383
2594.475 1.0865 1.0894 1.0749 1.127 1.1601 1.183 1.2368 1.3179 1.465 1.505
2613.765 1.505 1.575 1.575 1.625 1.685 1.685 1.725 1.735 1.715 1.635
2633.055 1.535 1.445 1.3394 1.2447 1.2028 1.1957 1.1582 1.0328 1.0243 1.0533
2652.345 1.0182 0.986 0.965 0.9595 0.9179 0.9887 1.0936 1.0732 1.0569 1.0498
2671.634 1.0912 1.0852 1.0706 1.1217 1.0913 1.0734 1.1283 1.1559 1.1089 1.1018
2690.924 1.1145 1.1121 1.1198 1.1865 1.2661 1.2069 1.1328 1.1585 1.1779 1.1625
2710.214 1.2177 1.2468 1.296 1.3465 1.2782 1.289 1.3849 1.4205 1.425 1.495
2729.504 1.455 1.445 1.555 1.585 1.555 1.605 1.605 1.455 1.435 1.505
2748.794 1.475 1.3665 1.3775 1.495 1.605 1.615 1.685 1.905 2.045 2.155
2768.083 2.345 2.545 2.715 2.945 3.205 3.465 3.605 3.555 3.445 3.255
2787.373 3.075 2.905 2.585 2.305 2.105 1.925 1.805 1.705 1.705 1.695
2806.663 1.635 1.605 1.675 1.705 1.685 1.755 1.835 1.865 1.925 2.075
2825.953 2.115 2.115 2.215 2.395 2.525 2.655 2.785 2.865 2.965 3.095
2845.242 3.205 3.325 3.555 3.775 3.925 4.105 4.405 4.705 4.895 5.335
2864.532 5.905 6.265 6.675 7.045 7.365 7.685 7.935 8.155 8.395 8.495
2883.822 8.665 8.975 9.185 9.395 9.655 9.915 10.095 10.315 10.535 10.625
2903.112 10.635 10.685 10.725 10.715 10.825 11.025 11.105 11.085 11.265 11.345
2922.401 11.225 11.095 10.805 10.435 10.135 9.845 9.555 9.315 8.925 8.585
2941.691 8.445 8.315 8.185 7.965 7.835 7.655 7.475 7.545 7.525 7.425
2960.981 7.275 7.095 6.845 6.475 6.255 6.025 5.695 5.405 5.135 4.905
2980.271 4.695 4.575 4.495 4.475 4.375 4.225 4.215 4.085 3.965 3.885
2999.561 3.775 3.695 3.635 3.525 3.495 3.545 3.565 3.685 3.935 4.255
3018.850 4.495 4.525 4.415 4.325 4.155 3.955 3.735 3.415 3.085 2.725
3038.140 2.505 2.505 2.315 2.095 1.975 1.845 1.825 1.855 1.795 1.585
3057.430 1.445 1.416 1.445 1.4007 1.3038 1.3456 1.3755 1.465 1.455 1.2542
3076.720 1.2832 1.391 1.475 1.695 1.915 2.075 2.345 2.585 2.725 2.945
3096.009 3.045 3.095 3.075 3.035 3.055 2.835 2.715 2.615 2.505 2.475
3115.299 2.255 2.065 1.925 1.795 1.545 1.2961 1.2538 1.0862 0.8667 0.8819
3134.589 0.8077 0.5964 0.5305 0.45622 0.3386 0.3599 0.4111 0.3702 0.283 0.246
3153.879 0.3421 0.4086 0.3688 0.3582 0.41903 0.4748 0.3922 0.3678 0.3351 0.185
3173.169 0.162 0.26 0.3323 0.3757 0.3536 0.3578 0.3577 0.4067 0.4116 0.426321
3192.458 0.5389 0.4033 0.269 0.41773 0.5753 0.5711 0.3907 0.4123 0.5753 0.5712
3211.748 0.5849 0.51069 0.4591 0.49737 0.3704 0.213 0.212 0.214 0.21 0.218
3231.038 0.252 0.315 0.3513 0.46084 0.5797 0.5431 0.41762 0.3735 0.4128 0.44472
3250.328 0.46004 0.3935 0.425259 0.4127 0.321 0.43939 0.5713 0.5279 0.5434 0.52005
3269.617 0.3922 0.4087 0.3736 0.3423 0.266 0.203 0.3327 0.44901 0.3969 0.3284
3288.907 0.3528 0.321 0.227 0.24 0.345 0.3601 0.306 0.263 0.222 0.17
3308.197 0.211 0.271 0.142 0.138 0.271 0.252 0.204 0.277 0.3551 0.3505
3327.487 0.299 0.292 0.283 0.302 0.3548 0.312 0.23 0.158 0.207 0.251
3346.777 0.226 0.203 0.226 0.274 0.301 0.322 0.267 0.173 0.216 0.224
3366.066 0.226 0.263 0.3625 0.322 0.127 0.088 0.188 0.27 0.269 0.3324
3385.356 0.323 0.21 0.197 0.284 0.303 0.316 0.277 0.155 0.212 0.265
3404.646 0.255 0.259 0.196 0.124 0.039 0.112 0.21 0.256 0.233 0.207
3423.936 0.206 0.24 0.323 0.293 0.277 0.264 0.274 0.305 0.234 0.166
3443.225 0.181 0.296 0.32 0.25 0.157 0.146 0.225 0.209 0.221 0.257
3462.515 0.155 0.174 0.351 0.3257 0.253 0.274 0.234 0.128 0.156 0.319
3481.805 0.3658 0.24 0.192 0.3 0.3278 0.311 0.183 0.246 0.41639 0.277
3501.095 0.314 0.3948 0.251 0.2 0.296 0.233 0.204 0.166 0.155 0.248
3520.385 0.3333 0.282 0.283 0.248 0.162 0.252 0.214 0.202 0.3436 0.3719
3539.674 0.254 0.235 0.234 0.247 0.207 0.212 0.297 0.261 0.228 0.164
3558.964 0.04 0.051 0.147 0.171 0.201 0.202 0.084 0.175 0.27 0.218
3578.254 0.287 0.295 0.228 0.3384 0.391 0.28 0.233 0.132 0.107 0.257
3597.544 0.281 0.208 0.228 0.262 0.3313 0.304 0.242 0.19 0.217 0.296
3616.833 0.273 0.3252 0.293 0.315 0.294 0.126 0.157 0.239 0.284 0.296
3636.123 0.286 0.228 0.254 0.3336 0.314 0.279 0.178 0.245 0.3536 0.266
3655.413 0.176 0.129 0.167 0.268 0.223 0.234 0.276 0.27 0.299 0.299
3674.703 0.3878 0.42995 0.43994 0.49028 0.42241 0.303 0.269 0.3825 0.3327 0.223
3693.993 0.4014 0.332 0.259 0.314 0.262 0.303 0.367 0.5486 0.47379 0.324
3713.282 0.3547 0.232 0.194 0.222 0.129 0.184 0.228 0.191 0.207 0.227
3732.572 0.246 0.211 0.28 0.317 0.226 0.272 0.281 0.244 0.3266 0.279
3751.862 0.185 0.137 0.174 0.3472 0.3808 0.244 0.231 0.307 0.311 0.289
3771.152 0.215 0.235 0.259 0.182 0.216 0.313 0.3386 0.25 0.236 0.244
3790.441 0.324 0.3483 0.237 0.133 0.126 0.247 0.301 0.271 0.3253 0.4129
3809.731 0.282 0.086 0.124 0.303 0.4118 0.3398 0.31 0.3526 0.22 0.132
3829.021 0.275 0.3286 0.218 0.279 0.345 0.428543 0.3643 0.153 0.214 0.318
3848.311 0.44996 0.46044 0.3 0.199 0.187 0.271 0.3665 0.3531 0.196 0.263
3867.601 0.355 0.2 0.172 0.215 0.207 0.079 0 0.067 0.122 0.229
3886.890 0.218 0.165 0.19 0.292 0.427132 0.44589 0.41557 0.3373 0.294 0.41644
3906.180 0.46778 0.4483 0.43913 0.3999 0.431573 0.52197 0.42091 0.3915 0.3681 0.314
3925.470 0.405 0.3885 0.3843 0.45462 0.47487 0.544 0.6324 0.48361 0.44223 0.3834
3944.760 0.336 0.43775 0.4493 0.43121 0.465 0.425661 0.217 0.32 0.6108 0.6078
3964.049 0.45588 0.427741 0.4594 0.375 0.45034 0.426119 0.28 0.41557 0.430526 0.3648
3983.339 0.259 0.203 0.371 0.325 0.196 0.25 0.268 0.322 0.3253 0.285
##END=
