##TITLE=4-sec-Butyl-2-(.alpha.-methylbenzyl)phenol
##JCAMP-DX=4.24
##DATA TYPE=INFRARED SPECTRUM
##ORIGIN=EPA-IR VAPOR PHASE LIBRARY
##OWNER=SRD/NIST
Collection (C) 2018 copyright by the U.S. Secretary of Commerce
on behalf of the United States of America. All rights reserved.
##CAS REGISTRY NO=2622-83-5
##MOLFORM=C 18 H 22 O
##$NIST SOURCE=MSDC-IR
##STATE=gas
##XUNITS=1/CM
##YUNITS=ABSORBANCE
##XFACTOR=1.
##YFACTOR=0.001
##DELTAX=1.92898
##FIRSTX=549.8
##LASTX=4000.7
##FIRSTY=4.89
##MAXX=4000.7
##MINX=549.759
##MAXY=0.09101
##MINY=0.0001568
##NPOINTS=1790
##XYDATA=(X++(Y..Y))
549.759 4.89 4.59 5.06 5.63 5.36 4.97 4.74 4.38 4.51 4.66
569.049 4.52 4.6 4.59 4.6 4.61 5.01 5.42 5.55 6 6.13
588.339 5.97 5.74 5.64 5.59 4.82 3.83 3.57 3.42 3.05 2.88
607.628 2.76 2.71 2.89 2.89 2.83 2.99 2.82 2.61 2.92 3.24
626.918 3.12 3.08 3.33 3.49 3.4 3.47 3.75 3.87 3.75 3.78
646.208 4.08 4.2 4.16 4.17 4.1 4.07 3.86 3.83 3.89 3.98
665.498 4.29 4.44 4.76 5.14 5.49 6.1 6.83 7.45 8.15 9.26
684.787 10.74 12.62 15.38 18.88 22.54 25.96 28.37 28.95 27.96 25.67
704.077 22.23 18.76 15.56 12.97 11.1 9.71 8.72 7.99 7.63 7.45
723.367 7.23 7.02 6.97 7.23 7.62 7.7 7.84 8.09 8.13 7.98
742.657 8.07 8.07 8.02 8.32 8.66 9.17 9.68 10.17 10.39 10.18
761.947 9.7 9.03 8.39 7.79 7.26 6.96 6.99 7.22 7.65 8.75
781.236 10.16 11.29 12.47 13.56 13.81 13.49 13.1 12.35 11.89 12.13
800.526 12.64 13.08 13.34 13.48 13.33 12.82 12.21 11.88 11.79 11.87
819.816 12 11.87 11.3 10.52 9.47 7.99 6.5 5.24 4.4 3.84
839.106 3.31 2.96 2.79 2.8 2.4 2.08 1.99 1.74 1.65 1.72
858.395 1.61 1.41 1.48 1.63 1.87 1.95 1.82 1.88 2.24 2.64
877.685 3.01 3.53 4.23 5 5.86 6.42 6.78 6.94 6.59 6.4
896.975 6.15 5.6 5.34 5.03 4.55 4.15 3.85 3.41 2.92 2.64
916.265 2.45 2.16 1.83 1.62 1.62 1.65 1.62 1.4 1.28 1.38
935.555 1.44 1.29 1.24 1.5 1.58 1.61 1.64 1.64 1.72 2.02
954.844 1.99 1.88 2.07 2.01 1.92 1.99 1.94 1.84 2.05 2.22
974.134 2.13 2.3 2.54 2.62 2.85 3.14 3.59 3.7 3.63 3.79
993.424 3.66 3.59 3.84 4.04 4.17 4.41 4.7 4.76 4.75 4.91
1012.714 5.46 5.8 5.8 6.28 6.75 7.46 8.95 10.06 10.02 9.62
1032.003 8.96 7.94 7.29 6.55 5.8 5.78 6 5.93 5.91 6.13
1051.293 6.53 6.89 7.31 7.48 7.22 7.19 7.28 6.99 6.62 6.54
1070.583 6.57 6.56 6.72 6.92 6.96 7.34 7.87 7.87 8.33 8.51
1089.873 9.04 9.97 10.04 10.48 10.89 11.5 12.05 12.4 13.19 14.28
1109.163 14.84 15.12 15.49 15.58 15.3 14.47 12.91 11.43 10.09 9.22
1128.452 8.61 7.91 7.95 7.46 7.21 7.34 7.68 8.17 8.44 9.06
1147.742 9.71 10.49 11.71 12.99 13.94 15.37 16.45 17.35 18.35 19.4
1167.032 20.78 22.26 24.25 26.93 29.63 32.25 35.06 36.75 37.38 37.57
1186.322 36.77 35.28 33.94 32.08 29.91 27.44 24.73 22.26 20.39 18.97
1205.611 17.99 17.79 17.55 17.6 17.95 17.9 17.95 18.02 17.77 17.43
1224.901 16.58 15.93 15.66 15.5 15.69 16.03 16.57 17.37 18.66 20.09
1244.191 21.86 23.54 25.26 26.8 27.63 27.84 27.62 27.21 26.05 24.51
1263.481 23.15 21.75 20.3 19.14 17.92 16.48 15.42 14.58 13.64 12.75
1282.771 12.09 11.84 11.6 11.52 11.4 11.09 10.87 10.59 10.39 10.54
1302.060 10.77 11.11 11.83 12.67 13.75 14.97 16.08 17 17.47 17.39
1321.350 16.87 15.91 14.69 13.34 11.99 10.93 10.13 9.55 9.17 8.9
1340.640 8.53 8.09 7.72 7.28 6.79 6.36 6.03 5.69 5.38 5.17
1359.930 5.04 5.06 5.2 5.57 6.19 7.15 8.47 9.92 11.37 12.54
1379.219 13.08 12.85 11.97 10.67 9.18 7.78 6.62 5.73 5.14 4.75
1398.509 4.48 4.4 4.36 4.34 4.56 4.9 5.27 5.79 6.44 7.26
1417.799 8.2 9.24 10.24 10.96 11.39 11.49 11.16 10.6 9.92 9.3
1437.089 9.09 9.32 9.84 10.73 12.06 13.74 15.52 17.17 18.63 19.76
1456.378 20.49 20.77 20.62 20.09 19.28 18.36 17.5 16.73 16.36 16.36
1475.668 16.92 18.26 20.31 23.18 26.96 31.8 37.72 44.25 50.87 56.62
1494.958 60.39 61.56 59.93 55.83 49.7 42.52 34.97 28.12 22.35 17.54
1514.248 14 11.47 9.67 8.38 7.35 6.67 6.21 5.71 5.22 4.83
1533.538 4.59 4.43 4.18 3.89 3.68 3.44 3.32 3.23 3.08 2.9
1552.827 2.69 2.59 2.58 2.56 2.53 2.54 2.63 2.7 2.74 2.94
1572.117 3.23 3.47 3.79 4.19 4.55 4.95 5.43 6.01 6.62 7.18
1591.407 7.85 8.56 9.21 9.93 10.4 10.56 10.54 10.17 9.49 8.65
1610.697 7.71 6.73 5.81 4.97 4.19 3.57 3.04 2.59 2.32 2.16
1629.986 2.02 1.88 1.8 1.73 1.68 1.71 1.66 1.65 1.67 1.62
1649.276 1.58 1.45 1.31 1.44 1.48 1.35 1.29 1.27 1.26 1.27
1668.566 1.29 1.18 1.16 1.2 1.18 1.12 1.05 0.9781 0.9715 0.9704
1687.856 0.8961 0.8931 0.9845 0.9959 0.875 0.9087 0.9422 0.8963 0.8662 0.8497
1707.146 0.8418 0.7439 0.7777 0.898 0.8926 0.8805 0.8774 0.9413 1.13 1.17
1726.435 1.13 1.22 1.27 1.25 1.24 1.26 1.31 1.34 1.34 1.39
1745.725 1.36 1.28 1.35 1.38 1.37 1.29 1.21 1.26 1.3 1.32
1765.015 1.34 1.3 1.24 1.22 1.27 1.41 1.47 1.45 1.49 1.5
1784.305 1.49 1.6 1.75 1.83 1.88 1.98 2.09 2.05 1.92 1.84
1803.594 1.74 1.56 1.45 1.46 1.42 1.35 1.25 1.24 1.34 1.36
1822.884 1.32 1.21 1.03 0.9918 0.9686 0.9212 0.9031 0.8333 0.9149 1.04
1842.174 1.08 1.14 1.25 1.37 1.43 1.44 1.46 1.49 1.51 1.59
1861.464 1.7 1.84 1.91 1.96 2.07 2.11 2.12 2.21 2.25 2.25
1880.754 2.21 2.08 1.97 1.78 1.49 1.3 1.16 0.987 0.8778 0.8256
1900.043 0.7367 0.6405 0.6238 0.6149 0.6404 0.6806 0.681 0.7189 0.7482 0.7464
1919.333 0.7326 0.7643 0.8663 0.9915 1.11 1.22 1.37 1.5 1.6 1.7
1938.623 1.72 1.75 1.76 1.71 1.67 1.62 1.6 1.56 1.43 1.35
1957.913 1.21 1.02 0.9122 0.793 0.5984 0.5382 0.5598 0.5025 0.4854 0.5831
1977.202 0.6283 0.5343 0.5281 0.5876 0.5654 0.5381 0.5007 0.4669 0.5343 0.5487
1996.492 0.5714 0.5819 0.505 0.4435 0.4385 0.5272 0.4961 0.4203 0.4595 0.4728
2015.782 0.4383 0.4523 0.4825 0.4898 0.4852 0.5121 0.5165 0.4901 0.4348 0.3627
2035.072 0.4179 0.4784 0.4787 0.4634 0.4703 0.4097 0.4212 0.5106 0.4721 0.4312
2054.362 0.4515 0.4197 0.4056 0.4153 0.3751 0.3984 0.4765 0.5528 0.5275 0.4085
2073.651 0.3858 0.4231 0.4404 0.472 0.4138 0.3098 0.2996 0.3433 0.3872 0.4006
2092.941 0.3756 0.3726 0.354 0.282 0.2586 0.2752 0.2509 0.2276 0.2248 0.2056
2112.231 0.2015 0.2509 0.2778 0.2025 0.1754 0.2199 0.2783 0.3544 0.2742 0.2676
2131.521 0.3068 0.2092 0.1957 0.3246 0.3623 0.3113 0.2842 0.2558 0.2557 0.2377
2150.810 0.2328 0.2369 0.2266 0.2932 0.3242 0.2825 0.3034 0.334 0.2852 0.2411
2170.100 0.2403 0.2314 0.2565 0.2153 0.2163 0.2512 0.1939 0.1646 0.1993 0.3134
2189.390 0.3183 0.2027 0.1901 0.186 0.1568 0.2533 0.3782 0.3201 0.283 0.2942
2208.680 0.1956 0.199 0.2848 0.334 0.4248 0.4005 0.2855 0.3042 0.3393 0.3051
2227.970 0.3618 0.3632 0.3218 0.3811 0.3451 0.275 0.3223 0.3905 0.4769 0.4801
2247.259 0.4717 0.5193 0.4902 0.4231 0.3448 0.3378 0.4078 0.4647 0.458 0.4264
2266.549 0.3754 0.4141 0.5528 0.5169 0.446 0.5692 0.6986 0.6685 0.5092 0.4914
2285.839 0.5878 0.6478 0.6403 0.6398 0.6934 0.6514 0.6512 0.6357 0.6589 0.6754
2305.129 0.6505 0.6768 0.7307 0.8127 0.7681 0.6868 0.6752 0.6462 0.6654 0.7312
2324.418 0.6798 0.6807 0.7014 0.8053 0.9114 0.8985 0.9177 0.8635 0.8385 0.9682
2343.708 0.9384 0.8346 0.8951 0.9274 0.8537 0.7823 0.741 0.7371 0.832 0.984
2362.998 1.01 0.9303 0.8707 0.7885 0.7485 0.7099 0.6751 0.7262 0.866 0.9082
2382.288 0.8302 0.7811 0.8108 0.8109 0.7627 0.8326 0.7683 0.6646 0.6339 0.6689
2401.578 0.8037 0.7805 0.8006 0.8686 0.7408 0.7775 0.9757 0.9532 0.8938 0.8837
2420.867 0.8589 0.7762 0.6756 0.6866 0.7124 0.7043 0.7847 0.8175 0.8412 0.8715
2440.157 0.7735 0.7526 0.7642 0.8481 0.9024 0.8472 0.8902 0.8776 0.7708 0.8115
2459.447 0.7909 0.7355 0.8288 0.8659 0.7755 0.718 0.7884 0.8669 0.8341 0.7804
2478.737 0.7688 0.7874 0.7836 0.7885 0.8242 0.8307 0.8006 0.7866 0.7848 0.7383
2498.026 0.8205 0.8653 0.7961 0.8129 0.9039 0.8856 0.8484 0.8027 0.8337 0.8734
2517.316 0.8347 0.8272 0.7336 0.7049 0.7911 0.7923 0.6787 0.6303 0.6511 0.7178
2536.606 0.7363 0.6959 0.7324 0.7621 0.7404 0.7335 0.6474 0.5773 0.6159 0.6701
2555.896 0.7118 0.7865 0.8166 0.7854 0.7888 0.7874 0.8413 0.8978 0.8852 0.9007
2575.186 0.9273 0.9107 0.8667 0.8015 0.9068 0.9844 0.845 0.7629 0.8262 0.8984
2594.475 0.9063 0.9389 0.8962 0.8634 0.8758 0.9036 0.9809 0.9943 0.9748 0.9386
2613.765 0.9161 0.9122 0.8353 0.7851 0.8488 0.8489 0.905 0.8834 0.7817 0.8546
2633.055 0.9289 0.9419 0.8855 0.8131 0.8358 0.9649 1.02 0.9643 0.9208 0.853
2652.345 0.7936 0.8125 0.935 0.9493 0.8727 0.9232 0.9909 1.06 1 0.9831
2671.634 0.986 0.8995 0.9164 0.8633 0.9133 0.9893 0.8445 0.7877 0.85 0.8532
2690.924 0.8749 0.8989 0.9445 0.9335 0.8539 0.8384 0.7699 0.7435 0.7241 0.8664
2710.214 1 0.9814 1.08 1.15 1.17 1.18 1.16 1.14 1.2 1.21
2729.504 1.25 1.45 1.58 1.67 1.78 1.68 1.64 1.72 1.77 1.76
2748.794 1.56 1.41 1.42 1.37 1.32 1.24 1.13 1.14 1.33 1.42
2768.083 1.43 1.47 1.47 1.5 1.5 1.58 1.6 1.6 1.63 1.68
2787.373 1.7 1.71 1.77 1.74 1.76 1.9 2.04 2.07 2.13 2.19
2806.663 2.15 2.2 2.33 2.37 2.39 2.53 2.65 2.57 2.71 3.04
2825.953 3.17 3.29 3.49 3.79 3.9 3.99 4.18 4.44 4.64 4.82
2845.242 5.08 5.4 5.85 6.56 7.34 8.13 9.36 10.81 12.52 14.4
2864.532 16.21 17.87 19.31 20.8 22.47 24.53 27.06 29.62 32.15 34.21
2883.822 35.35 35.33 34.12 32.17 29.7 27.31 25.17 23.37 22.3 21.73
2903.112 21.47 21.68 22.33 23.38 24.8 26.65 28.85 31.07 33.33 35.58
2922.401 37.36 38.66 39.54 40.29 41.3 42.54 43.78 44.5 44.58 43.89
2941.691 42.41 40.24 37.65 35.15 33.4 33.13 34.56 38.08 43.54 50.24
2960.981 57.93 66.17 73.89 80.69 86.42 90.16 91.01 88.11 81.24 71.24
2980.271 59.67 48.03 37.63 29.65 23.97 20.06 17.38 15.53 14.33 13.44
2999.561 12.84 12.56 12.45 12.52 12.64 12.85 13.3 13.99 14.78 15.65
3018.850 16.71 17.82 19.09 20.33 21.43 22.24 22.46 22.24 21.78 20.91
3038.140 19.67 18.34 17.26 16.52 16.03 15.8 15.8 16.07 16.45 16.85
3057.430 17.47 18.57 19.88 21.16 22.45 23.61 23.97 23.35 22.03 20.12
3076.720 17.85 15.88 14.61 13.73 13.19 12.64 11.81 11.01 10.34 9.56
3096.009 8.68 7.9 7.36 6.82 6.28 6.01 5.72 5.32 4.98 4.66
3115.299 4.16 3.71 3.36 3.16 2.99 2.7 2.45 2.22 2.18 2.1
3134.589 1.87 1.9 1.91 1.81 1.74 1.62 1.63 1.79 1.83 1.75
3153.879 1.52 1.37 1.61 1.65 1.59 1.63 1.6 1.45 1.37 1.38
3173.169 1.42 1.54 1.59 1.54 1.4 1.44 1.45 1.39 1.31 1.3
3192.458 1.34 1.33 1.37 1.35 1.37 1.33 1.11 1.07 1.25 1.25
3211.748 0.9785 0.9359 1.02 0.9142 0.8582 0.8388 0.8657 0.8677 0.8371 0.7582
3231.038 0.6758 0.6331 0.5732 0.6746 0.8156 0.8471 0.7968 0.7894 0.8291 0.8095
3250.328 0.6775 0.5544 0.6278 0.777 0.8214 0.6819 0.6479 0.7207 0.5703 0.5299
3269.617 0.6901 0.655 0.57 0.5744 0.6035 0.7632 0.7597 0.6519 0.6324 0.4346
3288.907 0.4036 0.5653 0.4978 0.3919 0.3217 0.2666 0.2249 0.2342 0.2526 0.2632
3308.197 0.4447 0.6944 0.7636 0.5725 0.4304 0.4204 0.4455 0.4919 0.5313 0.5739
3327.487 0.5336 0.4237 0.4301 0.3852 0.3755 0.529 0.6321 0.7356 0.7819 0.6091
3346.777 0.465 0.5697 0.5555 0.5924 0.587 0.3474 0.4779 0.703 0.6591 0.5936
3366.066 0.5564 0.4844 0.729 0.9495 0.8504 0.7052 0.5521 0.6066 0.6641 0.6662
3385.356 0.7793 0.7752 0.6938 0.8062 0.8462 0.6753 0.7349 0.834 0.7925 0.6559
3404.646 0.503 0.5636 0.4921 0.439 0.5189 0.6477 0.7627 0.7379 0.7122 0.6991
3423.936 0.6585 0.7749 0.8275 0.6783 0.5939 0.664 0.6205 0.6554 0.6945 0.5444
3443.225 0.6386 0.7785 0.8006 0.6962 0.6144 0.6741 0.5484 0.3698 0.4149 0.47
3462.515 0.638 0.737 0.5379 0.5031 0.5368 0.4109 0.4144 0.5839 0.7366 0.7979
3481.805 0.8074 0.8479 0.7266 0.4878 0.4617 0.554 0.5367 0.7652 0.9874 0.9512
3501.095 0.8889 0.9113 0.9197 0.7809 0.9233 1.04 0.9974 1.15 1.33 1.28
3520.385 1.21 1.18 1.18 1.27 1.34 1.4 1.43 1.48 1.69 2.06
3539.674 2.36 2.51 2.67 3 3.44 3.8 4.19 4.73 5.3 6.05
3558.964 7.05 8.09 9.24 10.7 12.45 14.29 15.94 17.37 18.48 19.24
3578.254 19.54 19.45 19.25 19.22 19.17 18.94 18.67 17.97 17.07 16.06
3597.544 14.8 13.44 12 10.73 9.52 8.34 7.33 6.78 6.42 6.09
3616.833 5.88 5.72 5.69 5.67 5.62 5.66 5.86 6.04 6.21 6.68
3636.123 7.63 9.09 11.03 13.52 16.62 19.49 22.01 23.32 22.68 20.91
3655.413 17.69 13.55 9.91 6.96 4.91 3.69 2.94 2.3 1.99 1.97
3674.703 1.78 1.56 1.37 1.25 1.28 1.27 1.07 1.01 1.14 1
3693.993 0.8405 0.8551 0.8381 0.7759 0.793 0.7897 0.6469 0.5369 0.6461 0.7771
3713.282 0.762 0.5956 0.5747 0.4681 0.5441 0.8344 0.7085 0.6894 0.6647 0.7466
3732.572 0.8233 0.703 0.6127 0.5248 0.6911 0.8253 0.7285 0.4963 0.4569 0.5933
3751.862 0.7109 0.6242 0.4803 0.5653 0.4825 0.3618 0.3558 0.4938 0.786 0.7077
3771.152 0.5115 0.748 0.7696 0.5723 0.668 0.6596 0.61 0.6077 0.5286 0.6435
3790.441 0.7555 0.5381 0.4249 0.5602 0.6589 0.6246 0.5623 0.5333 0.5505 0.6909
3809.731 0.7746 0.6186 0.6132 0.6559 0.5731 0.756 0.6466 0.5224 0.7967 0.8678
3829.021 0.7813 0.6768 0.5777 0.6731 0.8218 0.697 0.7498 0.9701 0.8269 0.7301
3848.311 0.7138 0.5837 0.6593 0.843 0.7259 0.6124 0.7048 0.8298 0.7658 0.4693
3867.601 0.5884 0.8838 0.8946 0.8923 0.9663 0.8774 0.8746 0.7957 0.6963 1
3886.890 1.03 0.9079 0.9213 0.7583 0.564 0.7455 0.7728 0.6587 0.8964 1.05
3906.180 0.915 0.7982 0.838 0.7568 0.6284 0.6153 0.6616 0.6526 0.6058 0.6539
3925.470 0.6924 0.5815 0.5592 0.8402 0.8919 0.8417 0.8294 0.8008 0.7796 0.7844
3944.760 0.8883 0.8505 0.7737 0.7932 0.792 0.7221 0.7652 0.7557 0.6038 0.6245
3964.049 0.6793 0.5839 0.5227 0.6392 0.7636 0.6905 0.5563 0.5402 0.4706 0.3953
3983.339 0.4251 0.6027 0.7916 0.6203 0.5424 0.728 0.8692 0.8365 0.8002 0.8346
##END=
