##TITLE=3-(Diethylamino)propyl isothiocyanate
##JCAMP-DX=4.24
##DATA TYPE=INFRARED SPECTRUM
##ORIGIN=EPA-IR VAPOR PHASE LIBRARY
##OWNER=SRD/NIST
Collection (C) 2018 copyright by the U.S. Secretary of Commerce
on behalf of the United States of America. All rights reserved.
##CAS REGISTRY NO=2626-52-0
##MOLFORM=C 8 H 16 N 2 S
##$NIST SOURCE=MSDC-IR
##STATE=gas
##XUNITS=1/CM
##YUNITS=ABSORBANCE
##XFACTOR=1.
##YFACTOR=0.001
##DELTAX=1.929
##FIRSTX=549.8
##LASTX=4000.8
##FIRSTY=4.02
##MAXX=4000.75
##MINX=549.766
##MAXY=0.12481
##MINY=0
##NPOINTS=1790
##XYDATA=(X++(Y..Y))
549.766 4.02 4.14 4.25 4.06 3.87 3.76 3.96 3.99 3.61 3.49
569.056 3.41 3.1 2.94 2.88 3.09 2.92 2.79 2.93 2.61 2.49
588.346 2.59 2.44 2.33 2.16 1.8983 1.9482 1.9764 2.08 2.15 1.9102
607.636 1.657 1.6028 1.544 1.4583 1.6315 1.6849 1.5716 1.5762 1.3927 1.319
626.926 1.4846 1.366 1.3131 1.468 1.5084 1.499 1.3992 1.4084 1.5025 1.5962
646.216 1.7792 1.5402 1.4489 1.5964 1.5723 1.6849 1.7198 1.7343 1.7595 1.7453
665.506 1.7328 1.6359 1.4942 1.4277 1.4667 1.4995 1.4148 1.3962 1.4992 1.4509
684.796 1.4359 1.584 1.6182 1.7272 1.8239 1.8742 1.9323 2.02 2.24 2.21
704.086 2.17 2.31 2.29 2.26 2.3 2.34 2.34 2.32 2.6 2.81
723.376 2.86 2.97 2.96 3.06 3.12 3.09 3.08 2.94 2.83 2.66
742.666 2.44 2.34 2.19 2.13 2.16 2.04 2.01 2.14 2.11 2.05
761.956 2.03 2.09 2.13 2.18 2.22 2.08 2.07 2.28 2.28 2.23
781.246 2.29 2.31 2.42 2.47 2.39 2.5 2.54 2.51 2.65 2.69
800.536 2.61 2.47 2.44 2.45 2.52 2.48 1.9521 1.7027 1.7428 1.703
819.826 1.7867 1.8583 1.724 1.6759 1.6998 1.5854 1.5225 1.4201 1.2235 1.1351
839.116 1.1807 1.2574 1.2105 1.1586 1.1578 1.1632 1.2282 1.2997 1.4165 1.4926
858.406 1.4606 1.4876 1.4797 1.371 1.3512 1.2636 1.1913 1.1216 0.9846 0.9292
877.696 0.9324 0.9533 0.985 0.9368 0.9576 1.00066 1.02591 1.02212 0.9308 0.87
896.986 0.899 0.9945 0.9856 1.00742 1.03386 1.06575 1.1984 1.1537 1.1307 1.221
916.276 1.2964 1.3024 1.1979 1.163 1.2626 1.2793 1.2198 1.2562 1.2036 1.1278
935.566 1.1576 1.1637 1.1433 1.2248 1.2602 1.2971 1.3872 1.3674 1.3739 1.3955
954.856 1.4192 1.4947 1.6308 1.6764 1.6398 1.7489 1.8426 1.8317 1.8317 1.847
974.146 1.9104 1.981 2.03 2.11 2.21 2.19 2.19 2.32 2.44 2.5
993.436 2.57 2.65 2.72 2.76 2.78 2.74 2.72 2.74 2.83 2.93
1012.726 2.91 2.91 3.05 3.18 3.39 3.58 3.74 3.94 4.12 4.25
1032.016 4.42 4.56 4.68 4.94 5.15 5.42 5.76 6.08 6.39 6.78
1051.306 7.29 7.84 8.5 9.25 9.97 10.64 11.37 12.12 12.77 13.26
1070.596 13.66 13.91 13.9 13.8 13.6 13.33 13.1 12.71 12.2 11.74
1089.886 11.18 10.53 9.94 9.48 8.98 8.44 8 7.53 7.17 6.92
1109.176 6.6 6.36 6.14 5.92 5.82 5.7 5.57 5.47 5.37 5.16
1128.467 4.93 4.76 4.62 4.5 4.39 4.31 4.28 4.2 4.12 4.23
1147.757 4.45 4.72 5.02 5.24 5.53 5.98 6.45 6.76 6.98 7.14
1167.047 7.2 7.18 7.09 6.94 6.8 6.61 6.31 6.17 6.21 6.32
1186.337 6.62 6.97 7.45 8.08 8.76 9.52 10.12 10.58 10.75 10.58
1205.627 10.22 9.64 8.89 8.17 7.42 6.81 6.28 5.86 5.73 5.6
1224.917 5.36 5.17 5.08 4.99 4.91 4.8 4.73 4.74 4.82 4.92
1244.207 5.04 5.16 5.2 5.19 5.2 5.18 5.09 5 4.85 4.71
1263.497 4.52 4.4 4.4 4.46 4.45 4.5 4.66 4.81 5 5.31
1282.787 5.67 5.97 6.4 6.88 7.39 7.9 8.42 8.92 9.33 9.74
1302.077 10.15 10.48 10.67 10.78 10.84 10.85 10.88 10.81 10.75 10.83
1321.367 11.07 11.46 12.12 13.05 14.24 15.6 16.99 18.34 19.56 20.67
1340.657 21.56 22.11 22.22 21.84 21.2 20.44 19.6 18.76 17.97 17.35
1359.947 16.77 16.25 15.89 15.68 15.56 15.5 15.58 15.68 15.74 15.75
1379.237 15.62 15.37 14.9 14.24 13.41 12.4 11.35 10.22 9.13 8.11
1398.527 7.1 6.33 5.71 5.08 4.59 4.21 3.96 3.71 3.53 3.5
1417.817 3.59 3.55 3.52 3.66 3.84 4.09 4.38 4.67 5.02 5.47
1437.107 6 6.53 7.2 8.02 9.03 10.17 11.38 12.57 13.59 14.45
1456.397 15.14 15.38 15.19 14.73 13.97 12.85 11.61 10.47 9.47 8.54
1475.687 7.68 6.89 6.14 5.39 4.71 4.19 3.72 3.33 2.98 2.68
1494.977 2.51 2.33 2.12 2.01 1.9444 1.8404 1.7402 1.5565 1.4394 1.4169
1514.267 1.3983 1.43 1.3829 1.3349 1.3187 1.2279 1.2237 1.2185 1.1309 1.09986
1533.557 1.1122 1.10112 1.134 1.1924 1.1701 1.04615 1.0107 0.9644 0.909 0.9294
1552.847 0.9267 0.908 0.9483 1.053 0.9644 0.864 0.824 0.792 0.868 0.896
1572.137 0.81 0.823 0.816 0.742 0.722 0.729 0.76 0.753 0.748 0.76
1591.427 0.733 0.747 0.766 0.738 0.752 0.712 0.733 0.777 0.765 0.747
1610.717 0.764 0.762 0.756 0.733 0.66 0.628 0.631 0.639 0.648 0.7
1630.007 0.696 0.719 0.828 0.885 0.783 0.724 0.768 0.81 0.853 0.839
1649.297 0.761 0.793 0.9242 0.837 0.723 0.703 0.691 0.665 0.652 0.652
1668.587 0.65 0.673 0.668 0.688 0.661 0.644 0.671 0.661 0.695 0.631
1687.877 0.575 0.607 0.596 0.629 0.685 0.672 0.726 0.649 0.576 0.642
1707.167 0.607 0.58 0.565 0.58 0.618 0.611 0.584 0.573 0.567 0.576
1726.457 0.588 0.608 0.614 0.681 0.732 0.58 0.548 0.618 0.578 0.549
1745.747 0.592 0.627 0.657 0.702 0.656 0.614 0.628 0.674 0.723 0.683
1765.037 0.618 0.628 0.659 0.679 0.732 0.704 0.675 0.694 0.699 0.697
1784.327 0.712 0.709 0.696 0.745 0.761 0.716 0.724 0.726 0.725 0.74
1803.617 0.736 0.745 0.755 0.754 0.77 0.792 0.818 0.833 0.822 0.816
1822.907 0.833 0.9216 0.9219 0.9108 0.9635 0.9285 0.865 0.878 0.9184 0.9564
1842.197 0.9913 0.998 1.04956 1.04126 1.00337 1.0328 1.05914 1.09686 1.1604 1.1823
1861.487 1.1843 1.2118 1.2607 1.2888 1.3414 1.3974 1.418 1.4684 1.5252 1.5898
1880.777 1.6629 1.7333 1.7656 1.7688 1.8322 1.9525 2.04 2.11 2.21 2.27
1900.067 2.35 2.45 2.6 2.71 2.78 2.91 3.04 3.18 3.29 3.43
1919.357 3.57 3.75 3.89 4.04 4.22 4.38 4.55 4.73 4.96 5.22
1938.647 5.48 5.72 5.95 6.18 6.49 6.79 7.06 7.38 7.74 8.13
1957.937 8.52 8.92 9.35 9.84 10.33 10.83 11.41 11.98 12.55 13.25
1977.227 14.03 14.84 15.7 16.61 17.58 18.61 19.72 20.94 22.19 23.49
1996.517 24.98 26.55 28.16 29.93 31.76 33.66 35.75 37.97 40.29 42.79
2015.807 45.51 48.39 51.44 54.62 58.01 61.65 65.46 69.47 73.63 77.97
2035.097 82.43 86.89 91.38 95.88 100.3 104.56 108.6 112.38 115.74 118.57
2054.387 120.97 122.84 124.11 124.76 124.81 124.24 123.04 121.32 119.03 116.23
2073.677 113 109.36 105.42 101.29 96.97 92.58 88.26 83.97 79.93 76.1
2092.967 72.4 68.98 65.71 62.65 59.87 57.25 54.77 52.38 50.1 47.98
2112.257 46 44.12 42.3 40.56 38.95 37.44 36 34.63 33.33 32.11
2131.547 31.01 29.94 28.93 28.09 27.25 26.46 25.75 25.06 24.44 23.85
2150.837 23.36 22.93 22.53 22.18 21.88 21.55 21.24 20.96 20.69 20.52
2170.127 20.38 20.19 20.04 19.95 19.82 19.67 19.54 19.44 19.31 19.12
2189.417 18.97 18.75 18.53 18.31 18 17.59 17.17 16.75 16.18 15.59
2208.707 15.03 14.38 13.69 13 12.33 11.68 11.11 10.49 9.83 9.31
2227.997 8.8 8.24 7.81 7.4 6.97 6.64 6.35 6.06 5.79 5.53
2247.287 5.24 4.99 4.85 4.66 4.44 4.26 4.14 3.97 3.77 3.66
2266.577 3.52 3.44 3.36 3.23 3.11 2.98 2.83 2.73 2.62 2.57
2285.868 2.5 2.36 2.3 2.26 2.2 2.09 2.04 2.03 1.9119 1.818
2305.158 1.8124 1.824 1.7482 1.6363 1.6217 1.6351 1.5635 1.5097 1.5003 1.4787
2324.448 1.4288 1.3711 1.3742 1.3841 1.345 1.3213 1.3316 1.3125 1.2806 1.2808
2343.738 1.2563 1.1775 1.1433 1.1566 1.1497 1.1324 1.1114 1.08683 1.08291 1.1367
2363.028 1.1599 1.113 1.04047 0.9958 1.01631 1.05421 1.06873 1.00057 0.895 0.9156
2382.318 0.9565 0.9278 0.899 0.89 0.9212 0.9729 0.9967 0.9295 0.889 0.9218
2401.608 0.9666 0.9245 0.9186 1.00065 0.9553 0.902 0.87 0.836 0.841 0.863
2420.898 0.891 0.878 0.881 0.887 0.906 0.9222 0.9186 0.9186 0.916 0.876
2440.188 0.817 0.821 0.86 0.878 0.878 0.875 0.856 0.874 0.891 0.866
2459.478 0.821 0.845 0.898 0.906 0.901 0.898 0.876 0.874 0.877 0.887
2478.768 0.863 0.862 0.9636 0.9492 0.897 0.9429 0.9569 0.9645 1.06247 1.08374
2498.058 1.03092 1.08279 1.1286 1.0979 1.05996 1.1424 1.1615 1.07264 1.04999 1.02857
2517.348 1.01719 1.06514 1.10091 1.09021 1.0999 1.193 1.2399 1.1984 1.2307 1.2807
2536.638 1.2778 1.2619 1.2752 1.2715 1.2654 1.2854 1.3021 1.3266 1.3507 1.3764
2555.928 1.3369 1.3628 1.4316 1.454 1.4708 1.4789 1.4864 1.5375 1.5476 1.5014
2575.218 1.5301 1.6052 1.6201 1.5453 1.6027 1.6739 1.6536 1.6605 1.6297 1.6515
2594.508 1.645 1.5915 1.6737 1.7051 1.6511 1.6837 1.7185 1.6723 1.749 1.7653
2613.798 1.6178 1.6322 1.6585 1.7449 1.7748 1.7561 1.8563 1.8986 1.8879 1.9142
2633.088 1.9677 1.9389 1.8697 1.8542 1.9675 2.04 2.03 2.03 2.09 2.14
2652.378 2.15 2.25 2.34 2.39 2.43 2.47 2.55 2.63 2.73 2.8
2671.668 2.85 2.95 3.03 3.05 3.18 3.36 3.43 3.45 3.52 3.61
2690.958 3.64 3.68 3.81 3.92 4.06 4.21 4.29 4.37 4.51 4.72
2710.248 4.83 4.9 5 5.13 5.28 5.4 5.61 5.74 5.76 5.8
2729.538 5.91 6.12 6.23 6.28 6.37 6.36 6.43 6.58 6.68 6.78
2748.828 6.91 6.98 7.03 7.2 7.32 7.44 7.68 7.81 7.89 8.07
2768.118 8.27 8.4 8.55 8.84 9.18 9.45 9.82 10.31 10.78 11.29
2787.408 11.91 12.56 13.29 14.16 15.14 16.27 17.39 18.53 19.78 20.97
2806.698 21.96 22.77 23.52 24.11 24.35 24.34 24.23 23.95 23.35 22.65
2825.988 21.93 21.03 20.05 19.13 18.16 17.14 16.3 15.55 14.73 13.95
2845.278 13.25 12.67 12.17 11.75 11.41 11.18 11.01 10.92 10.9 11.03
2864.568 11.28 11.47 11.92 12.56 13.26 14.06 14.87 15.73 16.51 17.03
2883.858 17.36 17.49 17.42 17.23 16.91 16.58 16.29 16.01 15.69 15.56
2903.148 15.59 15.66 15.87 16.04 16.29 16.62 17.11 17.75 18.36 19.35
2922.438 20.48 21.65 23.01 24.45 26.05 27.68 29.18 30.64 31.92 32.98
2941.728 33.87 34.51 34.92 35.12 35.23 35.36 35.5 35.69 36.16 36.9
2961.018 37.76 38.79 40.1 41.66 43.27 44.64 45.52 45.7 45.11 43.58
2980.308 40.83 37.15 33.15 29.2 25.27 21.43 18.13 15.39 13.04 11.26
2999.598 9.88 8.61 7.66 6.86 6.19 5.64 5.09 4.69 4.39 4.15
3018.888 3.91 3.74 3.56 3.44 3.37 3.28 3.13 2.88 2.7 2.63
3038.178 2.57 2.51 2.42 2.34 2.3 2.16 2.04 2.04 2.01 1.9547
3057.468 1.8827 1.8071 1.9215 1.8654 1.7212 1.7728 1.7179 1.6391 1.6076 1.583
3076.758 1.6164 1.6157 1.5872 1.5572 1.5675 1.5162 1.3755 1.3118 1.3124 1.3428
3096.048 1.3422 1.304 1.3007 1.3064 1.2539 1.2557 1.3028 1.1724 1.04167 1.1231
3115.338 1.2007 1.1113 1.06441 1.0429 1.02978 1.07916 1.10485 1.09836 1.03223 0.9436
3134.628 0.9507 0.9405 0.9161 0.851 0.793 0.821 0.908 0.86 0.695 0.701
3153.918 0.745 0.721 0.723 0.858 0.869 0.669 0.619 0.686 0.753 0.72
3173.208 0.659 0.654 0.613 0.662 0.632 0.651 0.687 0.629 0.64 0.578
3192.498 0.519 0.507 0.53 0.546 0.605 0.572 0.426 0.446 0.458 0.506
3211.788 0.459 0.448 0.466 0.37 0.329 0.26 0.22 0.271 0.21 0.207
3231.078 0.413 0.437 0.399 0.391 0.328 0.291 0.269 0.324 0.316 0.143
3250.368 0.142 0.27 0.298 0.452 0.486 0.367 0.361 0.299 0.158 0.11
3269.658 0.165 0.264 0.184 0.122 0.228 0.29 0.275 0.26 0.213 0.19
3288.948 0.177 0.126 0.246 0.204 0.179 0.28 0.292 0.353 0.353 0.191
3308.238 0.201 0.195 0.102 0.138 0.185 0.227 0.133 0.139 0.277 0.283
3327.528 0.296 0.235 0.191 0.262 0.168 0.259 0.424 0.314 0.185 0.158
3346.818 0.196 0.11 0.036 0.12 0.209 0.148 0.065 0.152 0.231 0.226
3366.108 0.229 0.204 0.157 0.093 0.123 0.268 0.24 0.187 0.151 0.137
3385.398 0.168 0.225 0.277 0.285 0.258 0.341 0.356 0.124 0.059 0.142
3404.688 0.26 0.248 0.137 0.092 0.201 0.218 0.183 0.271 0.156 0.124
3423.978 0.124 0.184 0.348 0.252 0.17 0.241 0.141 0 0.146 0.254
3443.269 0.221 0.196 0.141 0 0.03 0.16 0.186 0.211 0.155 0.185
3462.559 0.353 0.294 0.103 0.146 0.198 0.148 0.157 0.189 0.177 0.128
3481.849 0.095 0.087 0.091 0.157 0.173 0.116 0.102 0.092 0.141 0.111
3501.139 0.128 0.087 0.065 0.179 0.176 0.175 0.08 0.12 0.267 0.279
3520.429 0.302 0.22 0.241 0.283 0.168 0.165 0.116 0.114 0.155 0.277
3539.719 0.33 0.316 0.294 0.259 0.183 0.153 0.326 0.332 0.367 0.251
3559.009 0.101 0.108 0.2 0.251 0.223 0.252 0.201 0.114 0.12 0.17
3578.299 0.241 0.324 0.212 0.177 0.164 0.161 0.276 0.336 0.203 0.127
3597.589 0.125 0.189 0.399 0.34 0.244 0.161 0.058 0.115 0.095 0.211
3616.879 0.433 0.298 0.135 0.059 0.072 0.191 0.276 0.341 0.21 0.097
3636.169 0.222 0.28 0.25 0.366 0.424 0.348 0.326 0.373 0.243 0.199
3655.459 0.428 0.464 0.38 0.278 0.304 0.337 0.36 0.494 0.529 0.502
3674.749 0.538 0.519 0.387 0.345 0.241 0.155 0.32 0.654 0.716 0.504
3694.039 0.307 0.322 0.407 0.432 0.435 0.35 0.36 0.412 0.304 0.278
3713.329 0.364 0.484 0.547 0.42 0.319 0.274 0.363 0.491 0.447 0.319
3732.619 0.286 0.402 0.446 0.413 0.399 0.337 0.47 0.543 0.605 0.71
3751.909 0.593 0.542 0.473 0.424 0.402 0.345 0.293 0.192 0.252 0.295
3771.199 0.323 0.435 0.374 0.381 0.328 0.355 0.421 0.403 0.543 0.501
3790.489 0.385 0.427 0.386 0.427 0.599 0.588 0.5 0.47 0.432 0.426
3809.779 0.368 0.333 0.489 0.57 0.452 0.44 0.543 0.534 0.464 0.438
3829.069 0.499 0.576 0.609 0.591 0.546 0.443 0.499 0.543 0.527 0.586
3848.359 0.604 0.74 0.707 0.477 0.342 0.421 0.589 0.512 0.475 0.481
3867.649 0.582 0.71 0.7 0.739 0.64 0.673 0.723 0.542 0.491 0.596
3886.939 0.622 0.596 0.61 0.629 0.55 0.645 0.842 0.748 0.629 0.79
3906.229 0.77 0.493 0.502 0.505 0.54 0.64 0.631 0.62 0.641 0.675
3925.519 0.662 0.605 0.649 0.717 0.722 0.765 0.753 0.676 0.714 0.813
3944.809 0.835 0.799 0.822 0.812 0.85 0.899 0.827 0.871 0.87 0.687
3964.099 0.686 0.804 0.818 0.9209 0.9386 0.9921 1.08988 0.9992 0.9703 0.9835
3983.389 0.9 0.879 0.883 1.02787 1.1484 1.02379 1.00223 0.9941 1.02541 1.07309
##END=
