##TITLE=3-Phenylpropyl isothiocyanate
##JCAMP-DX=4.24
##DATA TYPE=INFRARED SPECTRUM
##ORIGIN=EPA-IR VAPOR PHASE LIBRARY
##OWNER=SRD/NIST
Collection (C) 2018 copyright by the U.S. Secretary of Commerce
on behalf of the United States of America. All rights reserved.
##CAS REGISTRY NO=2627-27-2
##MOLFORM=C 10 H 11 N S
##$NIST SOURCE=MSDC-IR
##STATE=gas
##XUNITS=1/CM
##YUNITS=ABSORBANCE
##XFACTOR=1.
##YFACTOR=0.001
##DELTAX=1.92898
##FIRSTX=549.8
##LASTX=4000.7
##FIRSTY=8.515
##MAXX=4000.7
##MINX=549.759
##MAXY=0.285595
##MINY=0
##NPOINTS=1790
##XYDATA=(X++(Y..Y))
549.759 8.515 8.485 8.365 8.135 7.835 7.705 7.685 7.345 7.085 6.995
569.049 6.735 6.465 6.395 6.455 6.175 5.905 5.875 5.835 5.865 5.675
588.339 5.505 5.215 5.075 5.185 5.195 5.355 5.035 4.555 4.105 3.775
607.628 3.755 3.705 3.505 3.635 3.655 3.235 2.875 2.945 2.935 2.755
626.918 2.815 2.785 2.935 2.955 2.945 2.975 3.045 3.325 3.355 3.255
646.208 3.295 3.545 3.845 4.115 4.145 4.255 4.515 4.615 4.995 5.405
665.498 5.905 6.405 6.695 7.225 8.055 8.925 9.765 10.815 11.895 13.445
684.787 15.475 17.545 20.255 23.505 26.695 29.315 31.435 32.535 32.225 30.785
704.077 28.635 26.145 23.555 21.475 19.585 17.775 16.305 15.395 14.705 14.215
723.367 14.325 14.915 15.765 16.785 18.165 19.785 21.575 23.065 23.935 24.425
742.657 24.205 23.135 21.545 19.725 18.015 16.345 14.775 13.585 12.585 11.625
761.947 10.655 10.135 9.755 9.145 8.595 8.075 7.595 7.075 6.435 5.825
781.236 5.225 4.695 4.335 4.105 3.875 3.365 3.215 3.315 3.345 3.315
800.526 3.225 3.225 3.345 3.345 3.425 3.615 3.725 4.065 4.345 4.395
819.816 4.355 4.165 3.855 3.685 3.575 3.275 3.185 3.015 2.575 2.315
839.106 2.275 2.395 2.435 2.675 2.735 2.605 2.575 2.605 2.645 2.605
858.395 2.515 2.485 2.595 2.365 1.965 1.995 2.175 2.265 2.205 2.015
877.685 1.955 2.145 2.275 2.065 1.975 2.125 2.125 2.135 2.435 2.725
896.975 2.885 3.045 3.445 3.875 4.005 4.115 4.215 4.075 3.825 3.305
916.265 2.855 2.765 2.695 2.875 2.805 2.535 2.485 2.465 2.435 2.525
935.555 2.785 2.805 2.765 2.975 3.045 3.165 3.555 3.805 3.975 4.275
954.844 4.515 4.655 4.785 4.765 4.905 4.925 4.755 4.785 4.455 4.115
974.134 4.015 3.805 3.555 3.385 3.195 3.015 2.945 2.905 2.685 2.655
993.424 2.785 2.835 2.905 2.885 2.835 3.035 3.385 3.425 3.495 3.925
1012.714 4.265 4.655 5.085 5.405 5.935 6.475 7.215 8.045 8.335 8.285
1032.003 8.085 7.895 7.475 6.965 6.405 5.575 4.935 4.885 5.105 4.875
1051.293 4.415 4.375 4.385 4.345 4.215 4.005 3.925 3.925 3.845 3.935
1070.583 4.105 4.165 4.565 4.725 4.585 4.245 4.105 4.215 4.195 4.065
1089.873 3.935 3.905 3.945 3.875 3.705 3.565 3.245 3.445 3.865 3.895
1109.163 4.025 3.705 3.115 2.965 3.185 3.635 3.625 3.285 3.235 3.055
1128.452 2.845 2.875 3.265 3.475 3.205 2.995 2.995 2.835 2.565 2.575
1147.742 2.805 3.075 2.875 2.625 2.845 2.985 3.125 3.365 3.345 3.245
1167.032 3.405 3.555 3.515 3.485 3.725 3.845 3.525 3.415 3.455 3.265
1186.322 3.495 3.385 2.965 2.935 3.325 3.755 3.585 3.505 3.535 3.685
1205.611 3.355 3.405 3.635 3.465 3.755 3.865 3.695 3.815 3.955 3.935
1224.901 4.265 4.355 4.415 4.575 4.725 4.895 4.745 4.385 4.305 4.375
1244.191 4.275 4.255 4.285 4.335 4.275 4.235 4.215 4.255 4.395 4.275
1263.481 4.335 4.635 4.615 4.645 4.875 5.105 5.315 5.575 5.905 6.045
1282.771 6.085 6.285 6.455 6.675 6.925 7.245 7.665 8.075 8.465 8.905
1302.060 9.415 9.965 10.525 11.105 11.685 12.295 13.045 13.795 14.535 15.405
1321.350 16.345 17.505 18.995 20.825 23.095 25.775 28.715 31.775 34.695 37.405
1340.640 40.025 42.415 44.305 45.145 44.705 43.495 41.795 39.665 37.205 34.385
1359.930 31.415 28.725 26.515 24.545 22.585 20.575 18.485 16.385 14.305 12.355
1379.219 10.675 9.365 8.275 7.315 6.535 5.985 5.515 5.065 4.685 4.375
1398.509 4.195 4.035 3.895 3.765 3.655 3.655 3.645 3.615 3.615 3.675
1417.799 3.845 4.055 4.285 4.535 4.895 5.425 6.025 6.755 7.695 8.765
1437.089 10.065 11.595 13.295 15.185 17.315 19.605 22.105 24.915 27.745 30.125
1456.378 31.665 32.135 31.605 30.205 27.875 24.415 20.515 16.905 13.885 11.445
1475.668 9.605 8.405 7.685 7.355 7.495 7.995 8.955 10.435 12.255 14.115
1494.958 15.315 15.625 15.265 14.305 12.625 10.205 7.625 5.605 4.395 3.635
1514.248 3.145 2.845 2.595 2.445 2.295 2.165 2.135 2.135 2.115 2.165
1533.538 2.145 2.055 2.055 2.045 1.965 1.845 1.835 1.885 1.805 1.775
1552.827 1.755 1.685 1.675 1.795 1.945 1.935 1.975 2.045 2.175 2.375
1572.117 2.505 2.655 2.845 3.125 3.325 3.565 3.905 4.195 4.575 5.115
1591.407 5.715 6.355 6.985 7.395 7.725 8.005 8.075 7.795 7.225 6.565
1610.697 5.715 4.785 3.955 3.255 2.825 2.485 2.165 2.025 1.945 1.835
1629.986 1.735 1.665 1.6245 1.5786 1.627 1.6121 1.5911 1.655 1.6286 1.6272
1649.276 1.6387 1.5753 1.5399 1.547 1.4924 1.4514 1.3467 1.3226 1.3805 1.3569
1668.566 1.3383 1.2826 1.2405 1.2463 1.2382 1.2413 1.2336 1.2188 1.2627 1.2933
1687.856 1.2745 1.2454 1.2657 1.2806 1.2359 1.2452 1.2526 1.2493 1.3185 1.3561
1707.146 1.3325 1.3387 1.4166 1.4573 1.4607 1.4737 1.5 1.5256 1.5197 1.5528
1726.435 1.5252 1.5168 1.5437 1.5908 1.755 1.795 1.765 1.825 1.845 1.875
1745.725 1.825 1.715 1.705 1.705 1.6273 1.5546 1.5881 1.6049 1.5212 1.5313
1765.015 1.5591 1.5277 1.5715 1.6347 1.735 1.845 1.915 1.965 2.055 2.145
1784.305 2.275 2.465 2.665 2.875 3.015 3.105 3.165 3.195 3.105 2.915
1803.594 2.765 2.615 2.465 2.355 2.285 2.195 2.075 2.025 2.035 2.005
1822.884 1.995 1.985 1.985 2.045 2.025 2.015 2.055 2.095 2.135 2.145
1842.174 2.185 2.295 2.385 2.505 2.615 2.655 2.795 3.015 3.135 3.245
1861.464 3.425 3.555 3.735 3.895 3.995 4.105 4.255 4.405 4.495 4.625
1880.754 4.765 4.855 4.905 4.935 5.015 5.105 5.155 5.265 5.395 5.525
1900.043 5.735 6.005 6.275 6.505 6.775 7.135 7.435 7.755 8.175 8.605
1919.333 8.985 9.355 9.825 10.375 10.905 11.375 11.955 12.625 13.225 13.785
1938.623 14.365 15.075 15.745 16.375 17.025 17.615 18.255 19.005 19.835 20.595
1957.913 21.365 22.145 22.925 23.835 24.865 26.015 27.295 28.685 30.265 31.985
1977.202 33.895 35.955 38.105 40.425 42.995 45.775 48.735 51.955 55.385 59.075
1996.492 63.015 67.135 71.565 76.325 81.395 86.715 92.305 98.215 104.495 111.105
2015.782 117.965 125.255 132.895 140.835 149.155 157.765 166.685 175.945 185.435 195.125
2035.072 204.915 214.695 224.355 233.675 242.585 250.875 258.395 265.255 271.195 276.125
2054.362 280.055 282.885 284.635 285.535 285.595 284.645 282.745 279.705 275.715 270.795
2073.651 264.815 257.795 249.775 240.695 230.615 219.995 208.905 197.365 185.825 174.405
2092.941 163.165 152.345 142.155 132.735 124.075 116.285 109.245 102.945 97.395 92.445
2112.231 88.035 84.105 80.605 77.455 74.575 72.035 69.805 67.665 65.725 63.955
2131.521 62.275 60.705 59.245 57.935 56.655 55.425 54.305 53.315 52.335 51.305
2150.810 50.335 49.505 48.625 47.665 46.825 46.015 45.265 44.555 43.815 43.265
2170.100 42.775 42.345 42.055 41.815 41.675 41.585 41.505 41.415 41.335 41.275
2189.390 41.175 40.995 40.725 40.315 39.785 39.205 38.465 37.515 36.465 35.345
2208.680 34.105 32.735 31.325 29.835 28.265 26.645 25.115 23.585 22.135 20.845
2227.970 19.565 18.335 17.145 16.115 15.205 14.365 13.595 12.855 12.175 11.545
2247.259 11.015 10.475 9.995 9.575 9.155 8.845 8.485 8.125 7.875 7.665
2266.549 7.415 7.105 6.845 6.605 6.405 6.215 6.005 5.835 5.605 5.395
2285.839 5.225 5.075 4.925 4.765 4.565 4.355 4.165 4.045 4.035 3.905
2305.129 3.775 3.735 3.655 3.525 3.425 3.425 3.325 3.205 3.095 2.985
2324.418 2.875 2.755 2.715 2.665 2.605 2.485 2.355 2.365 2.315 2.275
2343.708 2.265 2.145 2.105 2.065 2.035 1.945 1.855 1.925 1.905 1.755
2362.998 1.6232 1.6032 1.6265 1.6173 1.5394 1.4602 1.4692 1.5196 1.4738 1.3739
2382.288 1.3661 1.3967 1.3472 1.3105 1.3199 1.3164 1.3011 1.2884 1.269 1.1216
2401.578 1.0885 1.2021 1.1828 1.1489 1.1826 1.1811 1.1629 1.1173 1.0973 1.1269
2420.867 1.1156 1.1031 1.1488 1.1878 1.1485 1.1313 1.1394 1.1245 1.0702 1.0823
2440.157 1.1549 1.1191 1.0799 1.1592 1.1612 1.066 1.0424 1.0366 1.0388 1.0853
2459.447 1.1103 1.1042 1.1037 1.0958 1.1314 1.1574 1.1703 1.137 1.0953 1.1346
2478.737 1.1918 1.2483 1.2774 1.2702 1.2663 1.2469 1.2004 1.2249 1.2541 1.2616
2498.026 1.2547 1.294 1.339 1.2892 1.3316 1.3721 1.3554 1.4026 1.4426 1.3883
2517.316 1.3411 1.3632 1.4264 1.4599 1.4642 1.4734 1.46 1.4136 1.3828 1.452
2536.606 1.4935 1.5602 1.57 1.5295 1.5153 1.5905 1.6376 1.6053 1.5754 1.5195
2555.896 1.5894 1.685 1.6316 1.645 1.755 1.775 1.785 1.725 1.695 1.745
2575.186 1.715 1.675 1.755 1.815 1.825 1.845 1.855 1.775 1.745 1.745
2594.475 1.715 1.725 1.715 1.715 1.705 1.745 1.6411 1.5597 1.5769 1.5251
2613.765 1.5242 1.566 1.5172 1.5069 1.5353 1.4814 1.4999 1.488 1.3774 1.3653
2633.055 1.5185 1.5735 1.5222 1.5958 1.665 1.5904 1.5328 1.547 1.6066 1.5763
2652.345 1.5463 1.6311 1.665 1.695 1.795 1.895 1.975 1.935 1.885 1.985
2671.634 2.095 2.165 2.195 2.145 2.175 2.235 2.375 2.495 2.535 2.555
2690.924 2.625 2.755 2.735 2.725 2.845 2.955 3.105 3.215 3.215 3.245
2710.214 3.355 3.495 3.595 3.665 3.725 3.845 3.985 4.165 4.325 4.385
2729.504 4.515 4.585 4.625 4.735 4.825 4.915 4.985 4.855 4.675 4.605
2748.794 4.495 4.395 4.385 4.325 4.215 4.035 3.915 3.855 3.665 3.545
2768.083 3.525 3.465 3.435 3.395 3.285 3.185 3.185 3.225 3.245 3.175
2787.373 3.035 3.015 3.045 2.995 3.005 3.015 2.985 3.025 2.955 2.845
2806.663 2.915 2.935 2.925 2.935 2.875 2.885 2.945 2.915 2.935 3.095
2825.953 3.225 3.185 3.165 3.205 3.245 3.385 3.535 3.685 4.045 4.495
2845.242 4.845 5.205 5.755 6.405 7.155 8.065 8.865 9.645 10.515 11.365
2864.532 12.125 12.805 13.295 13.695 14.125 14.595 15.065 15.435 15.705 16.025
2883.822 16.195 16.115 15.935 15.565 15.015 14.345 13.705 13.055 12.425 12.005
2903.112 11.795 11.585 11.575 11.715 12.075 12.865 13.905 15.105 16.435 17.875
2922.401 19.345 21.035 22.815 24.425 26.025 27.455 28.925 30.545 32.135 34.035
2941.691 36.235 38.755 41.515 44.315 46.835 48.895 50.275 50.615 49.725 47.535
2960.981 44.105 39.705 35.165 30.545 25.815 21.575 17.855 14.705 12.245 10.295
2980.271 8.795 7.605 6.745 6.185 5.725 5.485 5.235 5.045 5.175 5.345
2999.561 5.615 5.905 6.265 6.815 7.385 7.925 8.475 9.135 10.035 11.125
3018.850 12.425 14.075 15.925 17.965 20.085 22.045 23.485 24.305 24.485 23.825
3038.140 22.495 20.615 18.225 15.915 13.925 12.465 11.655 11.275 11.155 11.565
3057.430 12.395 13.315 14.635 16.505 18.585 20.425 21.835 22.525 22.475 21.975
3076.720 20.955 19.235 17.175 15.495 14.295 13.445 12.665 11.895 11.135 10.245
3096.009 9.465 8.835 8.175 7.425 6.815 6.345 5.795 5.255 4.875 4.475
3115.299 3.995 3.525 3.155 2.835 2.305 1.985 1.855 1.628 1.465 1.3157
3134.589 1.2068 1.1576 1.049 1.0072 0.9225 0.8507 0.8475 0.8792 0.9082 0.9164
3153.879 0.8414 0.5895 0.6127 0.7905 0.8231 0.7737 0.67922 0.650419 0.5939 0.6168
3173.169 0.67742 0.571 0.606 0.6045 0.541 0.428 0.304 0.35 0.361 0.457
3192.458 0.53 0.499 0.468 0.468 0.498 0.5467 0.44 0.285 0.334 0.517
3211.748 0.5966 0.368 0.228 0.387 0.429 0.377 0.273 0.167 0.323 0.323
3231.038 0.298 0.344 0.334 0.248 0.288 0.419 0.416 0.389 0.394 0.42
3250.328 0.361 0.298 0.321 0.319 0.318 0.387 0.304 0.31 0.372 0.239
3269.617 0.184 0.257 0.217 0.303 0.373 0.334 0.365 0.314 0.357 0.513
3288.907 0.372 0.176 0.098 0.124 0.225 0.31 0.418 0.356 0.265 0.171
3308.197 0.1 0.063 0 0.037 0.145 0.334 0.425 0.306 0.319 0.368
3327.487 0.273 0.262 0.288 0.271 0.325 0.298 0.301 0.384 0.327 0.235
3346.777 0.207 0.311 0.131 0.094 0.366 0.444 0.428 0.344 0.336 0.265
3366.066 0.257 0.389 0.408 0.453 0.411 0.278 0.282 0.378 0.545 0.507
3385.356 0.465 0.379 0.26 0.407 0.438 0.369 0.362 0.315 0.321 0.244
3404.646 0.084 0.265 0.431 0.444 0.406 0.306 0.339 0.313 0.31 0.488
3423.936 0.484 0.405 0.374 0.427 0.515 0.403 0.372 0.324 0.39 0.491
3443.225 0.452 0.513 0.427 0.234 0.183 0.182 0.226 0.332 0.501 0.388
3462.515 0.257 0.384 0.257 0.25 0.487 0.532 0.472 0.384 0.314 0.386
3481.805 0.382 0.364 0.458 0.421 0.418 0.488 0.428 0.395 0.368 0.341
3501.095 0.254 0.157 0.196 0.377 0.451 0.289 0.202 0.209 0.303 0.338
3520.385 0.336 0.403 0.361 0.367 0.43 0.355 0.356 0.331 0.313 0.249
3539.674 0.158 0.346 0.399 0.279 0.367 0.331 0.286 0.438 0.435 0.405
3558.964 0.39 0.365 0.338 0.327 0.347 0.341 0.436 0.499 0.5563 0.429
3578.254 0.17 0.241 0.38 0.45 0.425 0.526 0.5481 0.395 0.371 0.318
3597.544 0.344 0.404 0.387 0.271 0.215 0.309 0.429 0.477 0.402 0.476
3616.833 0.498 0.439 0.438 0.386 0.35 0.405 0.441 0.463 0.478 0.48
3636.123 0.436 0.459 0.511 0.447 0.486 0.5505 0.526 0.5938 0.5772 0.5665
3655.413 0.70201 0.66391 0.5497 0.374 0.271 0.33 0.391 0.449 0.469 0.458
3674.703 0.508 0.451 0.408 0.45 0.433 0.383 0.335 0.345 0.451 0.468
3693.993 0.44 0.519 0.426 0.493 0.5796 0.5824 0.5882 0.498 0.486 0.5631
3713.282 0.6165 0.534 0.399 0.354 0.404 0.435 0.461 0.543 0.6254 0.5544
3732.572 0.493 0.524 0.649261 0.5799 0.379 0.345 0.372 0.439 0.511 0.519
3751.862 0.5686 0.474 0.301 0.402 0.543 0.465 0.405 0.483 0.511 0.511
3771.152 0.5692 0.64085 0.614 0.628 0.647779 0.5638 0.41 0.4 0.544 0.541
3790.441 0.548 0.534 0.463 0.5 0.5959 0.5928 0.535 0.476 0.424 0.472
3809.731 0.486 0.431 0.555 0.68708 0.647549 0.5794 0.5855 0.6101 0.67035 0.5837
3829.021 0.531 0.533 0.5 0.6076 0.5847 0.648025 0.6129 0.518 0.519 0.512
3848.311 0.606 0.64151 0.6 0.6053 0.5887 0.5992 0.72151 0.68097 0.474 0.484
3867.601 0.72189 0.8475 0.794 0.6142 0.5652 0.714 0.648651 0.5906 0.71692 0.66273
3886.890 0.5883 0.73885 0.8175 0.7988 0.68745 0.529 0.534 0.674 0.68461 0.69623
3906.180 0.72993 0.71128 0.8224 0.8534 0.71675 0.69317 0.5461 0.48 0.5 0.5859
3925.470 0.66212 0.5969 0.7555 0.8259 0.8415 0.8079 0.72607 0.74027 0.68815 0.74323
3944.760 0.8133 0.756 0.825 1.0081 1.049 0.9363 0.8248 0.8755 0.9617 0.8967
3964.049 0.971 0.9443 0.9521 1.0885 1.1099 1.1311 1.1623 1.369 1.2853 1.0235
3983.339 1.0941 1.0142 1.0411 1.161 1.1233 1.2762 1.4182 1.3916 1.3487 1.3769
##END=
