##TITLE=2-Pentenenitrile
##JCAMP-DX=4.24
##DATA TYPE=INFRARED SPECTRUM
##ORIGIN=EPA-IR VAPOR PHASE LIBRARY
##OWNER=SRD/NIST
Collection (C) 2018 copyright by the U.S. Secretary of Commerce
on behalf of the United States of America. All rights reserved.
##CAS REGISTRY NO=26294-98-4
##MOLFORM=C 5 H 7 N
##$NIST SOURCE=MSDC-IR
##STATE=gas
##XUNITS=1/CM
##YUNITS=ABSORBANCE
##XFACTOR=1.
##YFACTOR=0.001
##DELTAX=1.92898
##FIRSTX=549.8
##LASTX=4000.7
##FIRSTY=0.95
##MAXX=4000.7
##MINX=549.759
##MAXY=0.0234592
##MINY=0
##NPOINTS=1790
##XYDATA=(X++(Y..Y))
549.759 0.95 1.0406 1.0291 0.6474 0.5414 0.5869 0.6221 0.9436 1.0449 0.8827
569.049 0.8532 0.8595 0.8241 0.7867 0.7929 0.656 0.5247 0.6929 0.9027 0.7751
588.339 0.5546 0.4945 0.5387 0.6573 0.7143 0.4647 0.382 0.4603 0.3477 0.435
607.628 0.5015 0.5148 0.5425 0.6412 0.5789 0.3137 0.3432 0.5365 0.5546 0.6133
626.918 0.6032 0.65 0.7282 0.6196 0.5779 0.665 0.6244 0.6353 0.8925 0.9232
646.208 0.9495 1.2092 1.2692 1.0792 1.2092 1.4992 1.5892 1.5692 1.6192 1.6092
665.498 1.5492 1.5892 1.6892 1.7292 1.8392 1.9392 2.0192 2.1492 2.2492 2.1992
684.787 2.1992 2.4192 2.6392 2.9192 3.1392 3.3092 3.7692 4.3492 4.8692 5.4492
704.077 6.1292 6.8592 7.5492 8.4692 9.3892 10.3392 11.4692 12.3992 13.3892 14.2192
723.367 14.9592 15.6392 15.8492 15.9892 16.0992 16.0692 15.9292 15.6692 15.0792 14.2592
742.657 13.6092 12.8592 12.0992 11.6392 11.1192 10.4292 9.8192 9.1292 8.4392 7.9792
761.947 7.2992 6.7192 6.3092 5.7892 5.2992 4.8892 4.6192 4.1792 3.8692 3.6192
781.236 3.3392 3.1692 2.9892 2.8992 2.9292 2.8392 2.7392 2.8092 2.7292 2.6692
800.526 2.6092 2.6192 2.7192 2.7592 2.8592 2.6492 2.3792 2.3092 2.3892 2.2292
819.816 1.8492 1.7692 1.8292 1.7792 1.5292 1.3992 1.5292 1.5792 1.4892 1.5192
839.106 1.7092 1.8792 1.8092 1.8192 1.9192 1.9592 2.0792 1.9092 1.8692 2.0392
858.395 1.9792 1.8692 2.0292 2.0292 1.8992 1.8392 1.7292 1.7592 1.7492 1.4892
877.685 1.2992 1.3092 1.4292 1.5292 1.4692 1.3192 1.3492 1.3792 1.2392 1.2392
896.975 1.2992 1.3492 1.3492 1.3092 1.3692 1.3192 1.2692 1.0992 1.1192 1.2892
916.265 1.2992 1.3492 1.2992 1.3392 1.2992 1.2692 1.4892 1.5592 1.7492 1.9592
935.555 2.0792 2.0692 1.9992 2.0892 2.0492 1.8892 1.8892 1.9892 1.8292 1.7992
954.844 1.7692 1.6092 1.5692 1.5792 1.6292 1.5992 1.5692 1.4192 1.1692 1.0415
974.134 1.0591 1.046 1.0171 1.0792 1.0892 1.019 0.9662 0.8884 0.8445 1.069
993.424 1.3692 1.4692 1.3992 1.3392 1.5492 1.6792 1.7992 1.9692 2.0692 2.1192
1012.714 2.0392 2.0792 2.0492 1.9792 1.9892 1.9992 2.0292 1.9292 1.7792 1.7592
1032.003 1.7492 1.7492 1.6092 1.3692 1.5792 1.7692 1.7092 1.6492 1.6592 1.7292
1051.293 1.6892 1.7092 1.8692 1.7892 1.5592 1.8292 2.2292 2.2792 2.2192 2.1892
1070.583 2.2892 2.7392 3.0192 2.9092 2.8792 2.7792 2.5892 2.3292 2.2492 2.4392
1089.873 2.0992 1.8892 2.0292 1.8092 1.7392 1.9092 1.8292 1.9492 1.6492 1.5592
1109.163 1.8792 1.5792 1.2992 1.2492 1.2292 1.2892 1.2992 1.4092 1.6192 1.3792
1128.452 1.057 0.9411 0.9667 0.8921 0.6598 0.5733 0.8581 0.9563 0.929 0.8514
1147.742 0.7214 0.8116 1.0073 0.9641 0.6509 0.6663 0.7097 0.4432 0.4401 0.6366
1167.032 0.5463 0.5198 0.6272 0.5762 0.6024 0.7539 0.5337 0.3751 0.4074 0.31
1186.322 0.3663 0.3891 0.3709 0.2491 0.2723 0.3054 0.2297 0.2154 0.0263 0.11042
1205.611 0.2065 0.3263 0.6423 0.7225 0.5707 0.5822 0.6038 0.6469 0.7275 0.6204
1224.901 0.5901 0.7147 0.6881 0.5105 0.5211 0.5767 0.4687 0.3221 0.3394 0.4714
1244.191 0.5801 0.4776 0.408 0.4166 0.3238 0.3174 0.2777 0.2391 0.2138 0.0504
1263.481 0 0.2175 0.4408 0.4151 0.3573 0.495 0.4592 0.3664 0.4836 0.5665
1282.771 0.5832 0.5653 0.5555 0.6945 0.9106 0.9943 1.0992 1.2892 1.4792 1.5992
1302.060 1.7192 1.7692 1.7592 1.7492 1.7092 1.6892 1.6592 1.6792 1.7392 1.7392
1321.350 1.6992 1.6592 1.5592 1.3992 1.2192 1.0339 0.9426 0.899 0.8222 0.739
1340.640 0.7129 0.7289 0.6974 0.6843 0.7279 0.792 0.8276 0.849 0.8672 0.8552
1359.930 0.8439 0.8599 0.914 0.9806 1.007 1.0047 1.0892 1.1692 1.2092 1.1992
1379.219 1.2192 1.3392 1.3792 1.3792 1.4692 1.5492 1.5792 1.6692 1.7392 1.7692
1398.509 1.8092 1.8892 1.9592 2.0092 2.0492 2.0892 2.1392 2.1792 2.2092 2.1992
1417.799 2.2892 2.4592 2.5492 2.6092 2.7092 2.9092 3.0792 3.3092 3.5892 3.7992
1437.089 4.0392 4.2692 4.4392 4.6092 4.8292 5.1092 5.3892 5.6192 5.8192 5.9492
1456.378 6.0592 6.1992 6.2292 6.1292 5.9792 5.7092 5.4392 5.3092 5.2392 5.1492
1475.668 5.0492 4.9092 4.6792 4.4492 4.2492 3.9892 3.7092 3.4092 3.1892 2.9992
1494.958 2.7492 2.5392 2.3392 2.1992 2.0892 1.9692 1.7892 1.6392 1.5492 1.4492
1514.248 1.3792 1.2792 1.1892 1.1492 1.1192 1.033 0.9598 0.8879 0.8987 0.9416
1533.538 0.8912 0.8636 0.8307 0.697 0.6584 0.6749 0.6344 0.6323 0.65 0.653
1552.827 0.6052 0.597 0.6176 0.6035 0.644 0.6125 0.5809 0.614 0.5658 0.4896
1572.117 0.4738 0.5353 0.6054 0.6097 0.6476 0.7391 0.7154 0.7159 0.8031 0.8756
1591.407 0.9581 1.0176 1.1292 1.2892 1.4392 1.5792 1.8092 2.0792 2.3092 2.5692
1610.697 2.8192 3.0692 3.2292 3.3492 3.4592 3.4792 3.4992 3.3892 3.2792 3.2392
1629.986 3.1692 3.0492 2.8492 2.6592 2.4292 2.1692 1.8392 1.5692 1.3892 1.2492
1649.276 1.0992 0.982 0.9992 1.0792 1.0992 1.1492 1.1792 1.2092 1.3492 1.4592
1668.566 1.4892 1.5192 1.6292 1.6992 1.7192 1.7692 1.8392 1.8492 1.8692 1.8992
1687.856 1.9792 2.0292 2.0292 2.1092 2.0692 1.9492 1.8292 1.7692 1.7092 1.6092
1707.146 1.5292 1.4192 1.3192 1.2392 1.1392 1.0218 0.9375 0.9025 0.8352 0.7902
1726.435 0.7575 0.7163 0.6887 0.6618 0.6373 0.6266 0.5603 0.5037 0.4753 0.4661
1745.725 0.4778 0.4907 0.4924 0.4722 0.5139 0.4944 0.4362 0.4441 0.4621 0.4862
1765.015 0.5193 0.4614 0.4334 0.4581 0.4132 0.4166 0.4012 0.3773 0.4022 0.4367
1784.305 0.4194 0.337 0.3488 0.4024 0.397 0.3838 0.4062 0.4398 0.375 0.3342
1803.594 0.4056 0.4427 0.4499 0.4692 0.442 0.4205 0.4035 0.3645 0.3531 0.32
1822.884 0.3432 0.3833 0.3708 0.3851 0.3377 0.2758 0.3001 0.3581 0.3111 0.2588
1842.174 0.2714 0.274 0.2814 0.2806 0.2633 0.2566 0.2322 0.2156 0.2474 0.2857
1861.464 0.2808 0.2258 0.2512 0.2905 0.2822 0.2929 0.2773 0.2836 0.3474 0.3466
1880.754 0.3189 0.3405 0.319 0.2998 0.3036 0.27 0.2374 0.2445 0.2537 0.2569
1900.043 0.3367 0.393 0.4017 0.4049 0.4184 0.4193 0.4089 0.4234 0.4108 0.416
1919.333 0.4294 0.4238 0.4518 0.4658 0.4453 0.3944 0.3516 0.3719 0.3913 0.3528
1938.623 0.3181 0.2975 0.262 0.2986 0.3403 0.3113 0.2678 0.3032 0.3175 0.3123
1957.913 0.287 0.2248 0.2295 0.2745 0.2792 0.2705 0.317 0.3268 0.3346 0.3211
1977.202 0.303 0.2802 0.2367 0.2598 0.2778 0.2896 0.2853 0.2757 0.2529 0.2553
1996.492 0.3137 0.3132 0.2661 0.2354 0.2963 0.3866 0.3491 0.2863 0.3223 0.4024
2015.782 0.4104 0.3939 0.412 0.3875 0.4616 0.5027 0.4643 0.4751 0.4554 0.4265
2035.072 0.3889 0.4045 0.4084 0.373 0.4301 0.4227 0.3003 0.2784 0.2721 0.2337
2054.362 0.2442 0.2409 0.2503 0.268 0.2694 0.2818 0.29 0.2854 0.2784 0.2898
2073.651 0.2842 0.2782 0.3113 0.3298 0.3098 0.2737 0.2523 0.2598 0.308 0.2748
2092.941 0.2124 0.1983 0.2182 0.2471 0.248 0.2531 0.2361 0.2234 0.2105 0.2007
2112.231 0.2304 0.2534 0.2961 0.2606 0.1775 0.2141 0.2265 0.2783 0.2972 0.3005
2131.521 0.2969 0.2322 0.2555 0.2713 0.2626 0.2445 0.2104 0.1982 0.2148 0.2186
2150.810 0.2594 0.2539 0.2438 0.2754 0.2596 0.2474 0.2712 0.2776 0.2407 0.2335
2170.100 0.2507 0.2459 0.2193 0.2148 0.2717 0.3338 0.3261 0.3215 0.3261 0.2992
2189.390 0.2781 0.2984 0.3615 0.447 0.4933 0.5361 0.6526 0.8466 1.0792 1.2892
2208.680 1.4592 1.6692 1.8592 2.0392 2.2392 2.3492 2.3192 2.3892 2.5092 2.4792
2227.970 2.4492 2.4692 2.5292 2.5092 2.3292 2.0292 1.6892 1.4492 1.2492 0.9883
2247.259 0.7513 0.6189 0.5647 0.5478 0.4744 0.4085 0.4139 0.3969 0.3292 0.3078
2266.549 0.3136 0.3072 0.2509 0.2203 0.2587 0.2472 0.2789 0.3022 0.2952 0.2562
2285.839 0.2137 0.2282 0.2332 0.2126 0.2496 0.2809 0.2094 0.2012 0.2353 0.2225
2305.129 0.2462 0.2626 0.2519 0.2434 0.2584 0.3358 0.3469 0.3243 0.2825 0.3081
2324.418 0.3488 0.3198 0.3528 0.3715 0.3648 0.3321 0.2863 0.3004 0.3267 0.324
2343.708 0.3097 0.27 0.2574 0.3006 0.3116 0.299 0.3037 0.301 0.3006 0.2957
2362.998 0.27 0.2649 0.2941 0.3005 0.2791 0.2781 0.2461 0.2186 0.3036 0.2985
2382.288 0.2629 0.2992 0.2957 0.3721 0.3619 0.312 0.2693 0.2995 0.3654 0.3034
2401.578 0.2577 0.2745 0.3181 0.3302 0.3577 0.3416 0.3304 0.3441 0.333 0.318
2420.867 0.3248 0.2864 0.2359 0.2896 0.2862 0.282 0.3159 0.2848 0.2637 0.2884
2440.157 0.3387 0.3869 0.3486 0.3152 0.3179 0.3112 0.3247 0.3843 0.3706 0.3188
2459.447 0.3234 0.3571 0.4213 0.4345 0.3684 0.3331 0.3642 0.3487 0.3836 0.3742
2478.737 0.2987 0.3423 0.4101 0.413 0.312 0.2676 0.296 0.2713 0.314 0.2976
2498.026 0.2511 0.2904 0.2527 0.254 0.2723 0.2554 0.2335 0.2486 0.2758 0.2496
2517.316 0.2281 0.2224 0.3096 0.3631 0.2687 0.1879 0.2326 0.233 0.2143 0.3102
2536.606 0.305 0.2526 0.271 0.226 0.2621 0.3163 0.3126 0.3059 0.2718 0.246
2555.896 0.2948 0.3615 0.2867 0.2795 0.3192 0.327 0.3918 0.3655 0.3436 0.3605
2575.186 0.4006 0.3581 0.2063 0.1989 0.2383 0.2883 0.341 0.3177 0.3157 0.3245
2594.475 0.3318 0.2861 0.2477 0.2593 0.2781 0.2523 0.2777 0.2936 0.3004 0.3425
2613.765 0.2736 0.1895 0.16416 0.2316 0.2752 0.2977 0.359 0.3585 0.3469 0.3248
2633.055 0.3041 0.262 0.2299 0.1902 0.1864 0.276 0.238 0.1828 0.16865 0.15748
2652.345 0.1847 0.1859 0.13683 0.13476 0.1989 0.2407 0.14849 0.075058 0.1913 0.2306
2671.634 0.1848 0.2277 0.2367 0.2212 0.2529 0.2696 0.2054 0.14207 0.2287 0.2864
2690.924 0.282 0.29 0.2907 0.3422 0.2432 0.2294 0.3086 0.3001 0.3396 0.2612
2710.214 0.2235 0.2546 0.2706 0.2724 0.2721 0.2297 0.1969 0.2545 0.3149 0.4013
2729.504 0.4706 0.5446 0.6409 0.652 0.5729 0.5144 0.5793 0.6517 0.703 0.7515
2748.794 0.725 0.7659 0.8974 0.9216 0.8767 0.8583 0.7747 0.7215 0.7315 0.6624
2768.083 0.6525 0.8027 0.7888 0.7419 0.7671 0.6674 0.6314 0.723 0.8033 0.7796
2787.373 0.8269 0.8595 0.8674 0.897 0.8898 0.8614 0.8015 0.8157 0.8567 0.9143
2806.663 0.9889 0.9868 0.9921 1.0892 1.1492 1.2592 1.3292 1.3492 1.4492 1.4592
2825.953 1.5192 1.5792 1.5492 1.6792 1.8492 1.9092 1.9992 2.0992 2.1992 2.3392
2845.242 2.4892 2.6592 2.8792 2.9792 3.0292 3.2192 3.4892 3.6992 3.8592 4.1192
2864.532 4.5192 4.8692 5.1892 5.5292 6.0492 6.6892 7.1692 7.7692 8.4192 8.9692
2883.822 9.5292 9.8392 9.9792 10.2892 10.4692 10.5392 10.7892 11.0492 11.0392 11.0092
2903.112 10.9992 10.8592 10.6292 10.4392 10.2292 10.0792 9.8592 9.7592 9.7692 9.7492
2922.401 9.8792 10.0292 10.3092 10.7192 11.1592 11.6992 12.3692 12.9192 13.4592 13.8192
2941.691 13.9192 14.0492 14.3092 14.6492 15.0992 15.4992 15.7692 16.2492 16.7692 17.1892
2960.981 17.7392 18.2692 18.7392 19.2092 19.9592 20.9492 21.8992 22.6692 23.2892 23.4592
2980.271 23.1092 22.8892 23.0492 22.9592 22.1692 21.4992 20.9092 19.7892 18.3492 16.7292
2999.561 14.9692 13.3692 11.8692 10.5592 9.5192 8.6492 8.0292 7.3692 6.8792 6.7192
3018.850 6.5092 6.2292 6.1692 6.1692 6.3192 6.5092 6.5792 6.6092 6.6392 6.6292
3038.140 6.3692 6.2292 6.1092 5.9692 5.9592 6.0692 6.1292 5.9592 5.6392 5.2492
3057.430 4.7592 4.2392 3.7792 3.5192 3.1992 2.9592 2.7692 2.4192 2.1692 2.0492
3076.720 1.8092 1.6692 1.7192 1.6492 1.5792 1.4892 1.3992 1.2792 1.2192 1.1792
3096.009 1.1692 1.2692 1.2692 1.1392 1.1192 1.2292 1.2292 1.1192 0.9688 0.958
3115.299 0.9792 0.9271 1.0619 1.1392 1.1192 1.1092 1.1592 1.1692 1.1092 1.011
3134.589 1.0262 1.0692 0.9289 0.8496 0.8954 0.9821 0.8952 0.8388 0.8454 0.7932
3153.879 0.8334 0.8877 0.8022 0.7762 0.8942 0.835 0.8315 0.8174 0.8458 1.0231
3173.169 1.0992 1.1392 1.0281 0.9175 0.9615 0.9695 0.8287 0.7473 0.8174 0.8783
3192.458 0.8272 0.7218 0.721 0.7435 0.7438 0.7487 0.7074 0.8125 0.806 0.7104
3211.748 0.7971 0.7347 0.6766 0.7064 0.5859 0.4532 0.431 0.445 0.4947 0.5662
3231.038 0.6064 0.7174 0.7503 0.6347 0.6076 0.6705 0.5882 0.406 0.4548 0.5665
3250.328 0.5647 0.509 0.4659 0.434 0.4136 0.411 0.4106 0.3138 0.228 0.3091
3269.617 0.3709 0.391 0.389 0.3795 0.4527 0.5831 0.5566 0.5519 0.6133 0.4898
3288.907 0.3078 0.3726 0.5346 0.532 0.3851 0.3822 0.5133 0.4864 0.5278 0.6231
3308.197 0.5706 0.5159 0.3945 0.3979 0.4945 0.5208 0.5138 0.5311 0.6128 0.5253
3327.487 0.4759 0.4631 0.4284 0.385 0.4206 0.5079 0.4796 0.4116 0.396 0.4724
3346.777 0.4854 0.5237 0.6287 0.5524 0.5891 0.5663 0.4195 0.4255 0.4152 0.4242
3366.066 0.4469 0.456 0.4727 0.3709 0.3326 0.496 0.5188 0.5891 0.5951 0.4579
3385.356 0.4748 0.5035 0.5167 0.4814 0.4383 0.4295 0.3724 0.4383 0.4619 0.4664
3404.646 0.4833 0.5387 0.49 0.3309 0.4062 0.5484 0.5393 0.502 0.469 0.4882
3423.936 0.6136 0.5657 0.501 0.6941 0.7648 0.5067 0.4472 0.5598 0.5476 0.4311
3443.225 0.4708 0.5535 0.5001 0.47 0.5938 0.6417 0.6676 0.63 0.5536 0.582
3462.515 0.5263 0.4737 0.5122 0.5822 0.542 0.5488 0.5176 0.3986 0.3718 0.4019
3481.805 0.5327 0.5169 0.571 0.7558 0.6311 0.6033 0.6322 0.4853 0.4685 0.5754
3501.095 0.6045 0.4296 0.3846 0.5228 0.5706 0.6897 0.6814 0.4555 0.4503 0.4646
3520.385 0.4686 0.6347 0.6411 0.6143 0.6743 0.5787 0.4778 0.5369 0.6245 0.6049
3539.674 0.505 0.4589 0.4729 0.4555 0.4725 0.4726 0.48 0.4533 0.43 0.5769
3558.964 0.6183 0.6369 0.7001 0.6108 0.5635 0.5556 0.3157 0.331 0.4659 0.4348
3578.254 0.4975 0.4623 0.4834 0.5736 0.5628 0.4982 0.5491 0.4527 0.3867 0.5169
3597.544 0.4798 0.6229 0.7416 0.6823 0.6742 0.7364 0.5873 0.4806 0.6838 0.664
3616.833 0.5932 0.5826 0.4828 0.537 0.4651 0.5028 0.6046 0.5212 0.5608 0.4976
3636.123 0.5614 0.6922 0.6797 0.4337 0.2373 0.4158 0.4962 0.5024 0.4432 0.3282
3655.413 0.3997 0.4444 0.5003 0.5192 0.4889 0.3255 0.3124 0.655 0.6244 0.3737
3674.703 0.4972 0.5571 0.5642 0.6871 0.6502 0.4834 0.5507 0.7193 0.6404 0.5452
3693.993 0.6659 0.7965 0.6896 0.6364 0.729 0.9647 0.9539 0.6781 0.6044 0.5221
3713.282 0.4966 0.5965 0.4322 0.5179 0.7894 0.7253 0.5681 0.4943 0.6876 0.7671
3732.572 0.6014 0.546 0.6863 0.8734 0.8033 0.7427 0.6527 0.7008 0.9102 0.8273
3751.862 0.6991 0.8095 0.7688 0.5108 0.5153 0.7353 0.7693 0.7037 0.6177 0.5738
3771.152 0.5987 0.5982 0.6394 0.5575 0.4774 0.559 0.6314 0.6618 0.6207 0.6061
3790.441 0.6662 0.7547 0.6588 0.5276 0.6476 0.6574 0.5832 0.5723 0.5874 0.6842
3809.731 0.7848 0.7044 0.5593 0.8066 0.9024 0.8495 0.826 0.6736 0.6542 0.6846
3829.021 0.8542 0.8097 0.6271 0.6053 0.6467 0.6229 0.4888 0.6066 0.7339 0.6912
3848.311 0.79 0.7899 0.865 0.7836 0.4865 0.4846 0.5028 0.5819 0.7292 0.7136
3867.601 0.5467 0.505 0.6384 0.5841 0.4347 0.4307 0.4226 0.4308 0.5526 0.667
3886.890 0.707 0.7276 0.7838 0.6001 0.4397 0.7228 0.8802 0.6525 0.603 0.6588
3906.180 0.5734 0.5208 0.5603 0.7106 0.7855 0.8497 0.7787 0.6715 0.6061 0.6463
3925.470 0.8272 0.884 0.83 0.7421 0.6394 0.5751 0.7029 0.8196 0.7265 0.6038
3944.760 0.6149 0.717 0.781 0.703 0.4602 0.4539 0.6832 0.7762 0.7554 0.7573
3964.049 0.674 0.4717 0.4827 0.5783 0.7204 0.8022 0.7487 0.6368 0.6299 0.67
3983.339 0.7634 0.9271 0.8337 0.6832 0.6617 0.5266 0.4624 0.7157 0.9935 0.9983
##END=
