##TITLE=p-Pentylbenzoic acid
##JCAMP-DX=4.24
##DATA TYPE=INFRARED SPECTRUM
##ORIGIN=EPA-IR VAPOR PHASE LIBRARY
##OWNER=SRD/NIST
Collection (C) 2018 copyright by the U.S. Secretary of Commerce
on behalf of the United States of America. All rights reserved.
##CAS REGISTRY NO=26311-45-5
##MOLFORM=C 12 H 16 O 2
##$NIST SOURCE=MSDC-IR
##STATE=gas
##XUNITS=1/CM
##YUNITS=ABSORBANCE
##XFACTOR=1.
##YFACTOR=0.001
##DELTAX=1.92898
##FIRSTX=549.8
##LASTX=4000.7
##FIRSTY=3.357
##MAXX=4000.7
##MINX=549.759
##MAXY=0.066867
##MINY=0
##NPOINTS=1790
##XYDATA=(X++(Y..Y))
549.759 3.357 3.337 3.327 3.377 3.567 3.837 3.647 3.977 4.687 4.737
569.049 5.007 5.317 5.257 4.987 4.467 4.207 4.047 3.887 3.667 3.587
588.339 3.777 3.947 4.097 4.157 4.087 4.067 3.877 3.507 3.347 3.447
607.628 3.877 4.237 4.477 4.617 4.537 4.267 3.577 2.797 2.117 1.617
626.918 1.467 1.457 1.1842 0.9094 1.0303 1.1021 1.0532 0.8982 0.7949 0.9915
646.208 0.9677 0.8213 0.9052 0.9141 0.8426 0.6963 0.6588 0.7534 0.7103 0.6962
665.498 0.8243 0.8698 0.9187 1.0634 1.0737 1.1456 1.217 1.347 1.567 1.867
684.787 2.167 2.517 3.137 3.717 4.287 5.037 5.777 6.207 6.277 6.327
704.077 6.167 5.727 5.277 4.877 4.627 4.537 4.477 4.457 4.467 4.537
723.367 4.717 4.867 4.937 4.987 5.187 5.317 5.217 5.167 5.177 5.057
742.657 4.937 4.907 4.837 4.767 4.987 5.307 5.577 5.977 6.177 6.017
761.947 5.747 5.597 5.527 5.127 4.757 4.577 4.317 3.927 3.467 3.077
781.236 2.787 2.627 2.477 2.177 1.977 1.927 1.757 1.537 1.437 1.247
800.526 0.945 0.9486 1.1187 1.0564 1.0335 1.0149 0.834 0.8579 1.0094 0.856
819.816 0.696 0.7553 0.8861 0.9172 0.8595 0.9733 1.1223 1.1288 1.1484 1.217
839.106 1.307 1.417 1.527 1.687 1.927 2.107 2.077 2.097 2.127 2.087
858.395 1.997 1.847 1.517 1.347 1.287 1.151 1.0176 0.8629 0.8724 0.839
877.685 0.6961 0.6603 0.7619 0.7234 0.7112 0.7489 0.6497 0.7975 0.8389 0.7233
896.975 0.7405 0.6944 0.7088 0.6579 0.7433 0.8096 0.6281 0.681 0.7583 0.6787
916.265 0.6455 0.7156 0.7218 0.6584 0.6608 0.6109 0.4883 0.5075 0.7385 0.8231
935.555 0.7702 0.6196 0.573 0.738 0.8226 0.8295 0.6626 0.5678 0.703 0.7631
954.844 0.6459 0.6196 0.7264 0.7867 0.7803 0.7987 0.8025 0.8828 0.8932 0.8944
974.134 0.9407 0.9475 1.0245 0.9508 0.8778 0.8294 0.6938 0.6966 0.8673 0.8138
993.424 0.772 0.8255 0.8641 0.9763 1.1951 1.407 1.487 1.577 1.897 2.487
1012.714 3.337 4.277 5.077 5.377 4.987 4.657 4.027 2.977 2.417 2.257
1032.003 2.037 2.067 1.857 1.467 1.547 1.807 2.097 2.387 2.727 3.117
1051.293 3.547 4.017 4.567 5.307 6.547 8.147 9.727 11.607 13.837 16.407
1070.583 19.157 22.017 24.227 25.157 25.937 25.897 24.637 23.377 21.347 18.497
1089.873 15.657 13.327 11.337 9.317 7.667 6.517 5.757 5.257 4.767 3.767
1109.163 3.517 4.087 3.737 3.547 3.647 3.477 3.417 3.377 3.407 3.467
1128.452 3.137 2.967 3.327 3.417 3.287 3.177 3.317 3.537 3.757 4.077
1147.742 4.417 5.067 5.667 5.947 6.897 8.457 10.167 12.347 15.387 19.117
1167.032 23.117 26.717 28.567 28.767 27.407 24.337 20.187 16.397 14.027 12.827
1186.322 12.067 11.887 12.007 11.677 10.737 9.587 8.417 6.907 5.787 4.897
1205.611 4.187 3.777 3.497 3.107 2.717 2.507 2.447 2.597 2.427 2.457
1224.901 2.627 2.847 3.317 3.167 2.867 3.007 3.007 3.017 3.287 3.307
1244.191 3.237 3.267 3.317 3.427 3.697 3.827 3.817 4.047 4.257 4.557
1263.481 4.837 4.947 5.057 5.017 4.977 4.927 4.877 4.747 4.527 4.507
1282.771 4.607 4.707 4.627 4.497 4.487 4.597 4.747 4.897 5.007 5.127
1302.060 5.257 5.327 5.477 5.647 5.817 5.977 6.087 6.287 6.507 6.727
1321.350 6.887 6.967 7.047 7.107 7.077 6.997 6.857 6.717 6.597 6.517
1340.640 6.527 6.627 6.847 7.207 7.747 8.407 9.107 9.877 10.667 11.347
1359.930 11.727 11.707 11.197 10.227 8.947 7.527 6.217 5.197 4.397 3.777
1379.219 3.357 3.077 2.877 2.727 2.537 2.417 2.347 2.217 2.147 2.167
1398.509 2.227 2.327 2.447 2.667 2.957 3.257 3.517 3.727 3.837 3.807
1417.799 3.697 3.527 3.237 2.847 2.527 2.317 2.127 1.957 1.867 1.827
1437.089 1.777 1.827 1.977 2.057 2.127 2.287 2.367 2.387 2.517 2.557
1456.378 2.567 2.607 2.647 2.677 2.637 2.567 2.477 2.337 2.137 1.947
1475.668 1.807 1.697 1.577 1.467 1.347 1.247 1.1552 1.1258 1.1316 1.135
1494.958 1.1181 1.0785 1.1506 1.247 1.327 1.387 1.397 1.377 1.367 1.347
1514.248 1.297 1.156 1.0252 0.9336 0.8543 0.8138 0.79 0.7929 0.8132 0.8183
1533.538 0.7812 0.7682 0.7147 0.7195 0.7666 0.7431 0.7709 0.892 0.9166 0.8664
1552.827 0.8523 0.9034 1.0187 1.0819 1.1791 1.247 1.277 1.387 1.517 1.567
1572.117 1.587 1.607 1.577 1.477 1.407 1.437 1.427 1.427 1.537 1.767
1591.407 2.047 2.317 2.767 3.327 3.917 4.657 5.447 6.207 6.957 7.597
1610.697 7.857 7.827 7.467 6.677 5.687 4.647 3.767 3.007 2.397 1.967
1629.986 1.677 1.437 1.277 1.1124 1.0417 1.0431 0.9462 0.8722 0.8218 0.7734
1649.276 0.7558 0.7851 0.7687 0.7468 0.7876 0.8156 0.8358 0.8419 0.828 0.8537
1668.566 0.8922 0.9319 0.9873 0.9902 0.9957 1.0909 1.1677 1.257 1.407 1.447
1687.856 1.427 1.547 1.647 1.727 1.847 1.887 1.967 2.017 2.047 2.197
1707.146 2.297 2.387 2.537 2.687 2.827 2.987 3.157 3.297 3.447 3.677
1726.435 3.997 4.367 4.887 5.567 6.457 7.587 9.017 10.937 13.377 16.587
1745.725 20.817 26.457 33.957 43.507 53.737 62.127 66.557 66.867 63.337 55.137
1765.015 43.877 33.307 25.307 19.537 15.187 11.987 9.667 7.987 6.887 6.067
1784.305 5.337 4.797 4.367 3.967 3.627 3.257 2.957 2.817 2.667 2.507
1803.594 2.487 2.417 2.287 2.177 2.077 2.017 1.947 1.877 1.797 1.727
1822.884 1.587 1.437 1.297 1.1598 1.0588 0.9628 0.8724 0.8009 0.7703 0.6944
1842.174 0.6107 0.6086 0.6139 0.6043 0.56 0.4991 0.4553 0.4347 0.481 0.5291
1861.464 0.5194 0.527 0.5281 0.5133 0.5067 0.4689 0.4737 0.516 0.5006 0.4821
1880.754 0.5038 0.5563 0.5876 0.5852 0.5813 0.5668 0.5362 0.5506 0.6082 0.5862
1900.043 0.5567 0.6103 0.6343 0.6302 0.6648 0.7359 0.7768 0.7627 0.7852 0.7947
1919.333 0.7985 0.8479 0.8901 0.8657 0.8246 0.8092 0.8117 0.7787 0.7195 0.7272
1938.623 0.6993 0.6045 0.6187 0.6205 0.5429 0.537 0.5207 0.5167 0.5246 0.5178
1957.913 0.498 0.4677 0.4857 0.521 0.5016 0.4657 0.4689 0.4294 0.361 0.3772
1977.202 0.4233 0.4365 0.4454 0.4219 0.3984 0.3822 0.359 0.3863 0.4111 0.4069
1996.492 0.3932 0.3409 0.29257 0.28235 0.26349 0.27012 0.28695 0.31166 0.3613 0.3217
2015.782 0.21407 0.25832 0.349 0.31388 0.27091 0.30775 0.3373 0.3246 0.3289 0.31695
2035.072 0.3592 0.31289 0.2706 0.3327 0.3241 0.3204 0.3212 0.2901 0.2339 0.23913
2054.362 0.26423 0.26121 0.27814 0.29644 0.30037 0.27103 0.3343 0.29619 0.22877 0.3129
2073.651 0.31607 0.3222 0.3485 0.3322 0.3375 0.30479 0.3171 0.3391 0.3291 0.3697
2092.941 0.4118 0.4091 0.3712 0.3552 0.3515 0.3452 0.3467 0.3379 0.3518 0.3245
2112.231 0.26458 0.3212 0.3211 0.3436 0.4357 0.3808 0.2961 0.3203 0.367 0.3834
2131.521 0.4076 0.4514 0.4257 0.4474 0.4698 0.4341 0.448 0.4128 0.4192 0.4205
2150.810 0.4058 0.4579 0.474 0.4889 0.4875 0.5071 0.5397 0.4975 0.4695 0.3984
2170.100 0.3424 0.3569 0.3453 0.3535 0.3522 0.3292 0.328 0.31369 0.2945 0.3263
2189.390 0.3435 0.3246 0.3238 0.3207 0.3426 0.3362 0.28447 0.23912 0.27067 0.3254
2208.680 0.337 0.3034 0.3275 0.3779 0.3566 0.3349 0.28514 0.27718 0.3528 0.3785
2227.970 0.30408 0.27896 0.30742 0.29618 0.30005 0.3364 0.3375 0.3737 0.4366 0.4304
2247.259 0.3931 0.29934 0.25595 0.31686 0.355 0.29538 0.3214 0.3729 0.3567 0.31294
2266.549 0.29108 0.3254 0.28818 0.28923 0.27877 0.30535 0.3457 0.28384 0.27593 0.3288
2285.839 0.31364 0.31652 0.3397 0.3317 0.366 0.3734 0.3868 0.3799 0.3884 0.4221
2305.129 0.4059 0.3585 0.3531 0.3968 0.349 0.3707 0.3893 0.3439 0.3416 0.3803
2324.418 0.4222 0.4335 0.4197 0.3668 0.4156 0.4249 0.4516 0.4892 0.4684 0.4625
2343.708 0.4614 0.4073 0.3637 0.3726 0.3371 0.3669 0.3959 0.3753 0.373 0.4445
2362.998 0.4546 0.3958 0.395 0.3897 0.3692 0.3819 0.4178 0.3695 0.3497 0.4024
2382.288 0.4113 0.4093 0.4082 0.413 0.4034 0.4399 0.4117 0.4036 0.4082 0.356
2401.578 0.4208 0.4354 0.4122 0.3774 0.31039 0.3397 0.3877 0.4068 0.44 0.4391
2420.867 0.4385 0.3963 0.3887 0.4029 0.4104 0.4718 0.4492 0.3817 0.3286 0.351
2440.157 0.3987 0.4113 0.3821 0.3932 0.436 0.3803 0.29656 0.28146 0.3215 0.3504
2459.447 0.3437 0.3285 0.3385 0.3668 0.3818 0.3544 0.3413 0.3313 0.3347 0.3454
2478.737 0.324 0.3379 0.4399 0.4448 0.3503 0.31436 0.3839 0.3914 0.371 0.3881
2498.026 0.3752 0.3612 0.3377 0.3827 0.3464 0.26141 0.29711 0.3491 0.3212 0.3381
2517.316 0.3759 0.3172 0.30032 0.3559 0.3275 0.3347 0.4195 0.3648 0.27994 0.31247
2536.606 0.3633 0.3282 0.28555 0.322 0.3745 0.3966 0.4022 0.4299 0.3822 0.4154
2555.896 0.4668 0.4205 0.4054 0.43 0.4408 0.3743 0.3751 0.3926 0.3714 0.4078
2575.186 0.4025 0.3257 0.3394 0.3986 0.3937 0.386 0.4088 0.4194 0.4634 0.4514
2594.475 0.3664 0.3234 0.3384 0.4045 0.4083 0.3429 0.3321 0.3576 0.3651 0.3952
2613.765 0.4102 0.4414 0.5109 0.4831 0.4005 0.4058 0.4598 0.5295 0.5065 0.4367
2633.055 0.5257 0.554 0.4119 0.4149 0.5223 0.4787 0.4769 0.5056 0.5496 0.495
2652.345 0.3985 0.4088 0.4254 0.465 0.4781 0.441 0.4375 0.5289 0.5433 0.5211
2671.634 0.4948 0.4982 0.5729 0.6459 0.5578 0.4129 0.425 0.4703 0.5084 0.5854
2690.924 0.6149 0.5134 0.4566 0.4582 0.4527 0.4469 0.4528 0.4748 0.519 0.5211
2710.214 0.4639 0.389 0.3998 0.4753 0.419 0.3829 0.4642 0.528 0.5771 0.553
2729.504 0.5469 0.592 0.4851 0.5026 0.5891 0.6031 0.605 0.6081 0.5409 0.4784
2748.794 0.5109 0.5939 0.5646 0.56 0.7028 0.6743 0.6723 0.6857 0.5928 0.5359
2768.083 0.5894 0.6045 0.5012 0.5803 0.6684 0.6306 0.643 0.6553 0.5968 0.6086
2787.373 0.766 0.8272 0.7797 0.7389 0.7618 0.856 0.932 0.9478 0.9074 0.9254
2806.663 0.9584 0.981 1.104 1.1779 1.1245 1.0963 1.1668 1.247 1.317 1.327
2825.953 1.407 1.497 1.457 1.557 1.697 1.737 1.857 2.047 2.227 2.377
2845.242 2.657 2.987 3.397 3.767 4.107 4.577 5.177 5.827 6.427 7.007
2864.532 7.537 7.777 7.937 8.047 7.887 7.787 7.667 7.497 7.357 7.147
2883.822 6.987 6.777 6.467 6.247 6.017 5.717 5.567 5.557 5.627 5.697
2903.112 5.917 6.367 6.707 7.037 7.537 8.097 8.777 9.507 10.357 11.447
2922.401 12.677 13.917 15.327 16.757 18.047 19.307 20.347 20.997 21.287 21.127
2941.691 20.447 19.327 17.957 16.527 15.087 13.847 12.817 12.087 11.767 11.667
2960.981 11.887 12.107 12.277 12.587 12.587 12.187 11.417 10.417 9.297 8.057
2980.271 6.877 5.867 5.037 4.357 3.927 3.597 3.317 3.127 2.867 2.787
2999.561 2.617 2.477 2.477 2.347 2.297 2.177 2.207 2.277 2.197 2.127
3018.850 2.047 2.027 2.087 2.177 2.237 2.287 2.397 2.527 2.667 2.807
3038.140 2.997 3.087 2.957 2.907 2.727 2.517 2.357 2.147 1.957 1.837
3057.430 1.667 1.527 1.457 1.397 1.377 1.467 1.547 1.517 1.607 1.577
3076.720 1.497 1.477 1.287 1.227 1.247 1.297 1.407 1.447 1.437 1.327
3096.009 1.247 1.1742 1.1925 1.237 1.1625 1.1105 1.0176 0.8593 0.8134 0.7793
3115.299 0.779 0.7676 0.8377 0.8364 0.6064 0.5836 0.7151 0.6953 0.717 0.7374
3134.589 0.5575 0.4773 0.5578 0.5899 0.5519 0.5182 0.5564 0.5583 0.51 0.5146
3153.879 0.4677 0.4414 0.5146 0.5563 0.4966 0.4162 0.3688 0.3551 0.3969 0.4289
3173.169 0.4641 0.4724 0.3364 0.29091 0.3624 0.29568 0.28353 0.3785 0.3779 0.30549
3192.458 0.3336 0.4447 0.4377 0.3579 0.23521 0.24277 0.3319 0.3452 0.26718 0.1938
3211.748 0.22909 0.30961 0.2968 0.30189 0.3664 0.3671 0.4519 0.3852 0.2404 0.24934
3231.038 0.3749 0.411 0.30465 0.29525 0.28721 0.27633 0.27882 0.27494 0.29385 0.28081
3250.328 0.3007 0.2808 0.30501 0.4157 0.336 0.3362 0.4467 0.4278 0.29958 0.26532
3269.617 0.3843 0.4105 0.3599 0.31022 0.3019 0.4014 0.4282 0.3534 0.3228 0.25719
3288.907 0.1666 0.1724 0.24317 0.23724 0.31678 0.3672 0.1881 0.22885 0.4139 0.28687
3308.197 0.1894 0.28466 0.2708 0.325 0.348 0.28863 0.3228 0.28436 0.3313 0.3989
3327.487 0.31204 0.3279 0.3277 0.3528 0.3776 0.3359 0.24064 0.104 0.27522 0.3426
3346.777 0.1842 0.1977 0.33 0.4093 0.27698 0.1571 0.24832 0.3378 0.3456 0.3806
3366.066 0.3756 0.29364 0.3899 0.375 0.220692 0.25649 0.3371 0.3767 0.3474 0.3573
3385.356 0.4134 0.39 0.223398 0.22816 0.31173 0.3573 0.3859 0.27453 0.2043 0.1706
3404.646 0.2014 0.25558 0.28817 0.4252 0.428 0.3947 0.3188 0.1638 0.21576 0.24204
3423.936 0.2155 0.26456 0.24692 0.29418 0.29726 0.24649 0.21583 0.1309 0.14 0.26496
3443.225 0.4012 0.2944 0.333 0.30758 0.1613 0.334 0.447 0.27995 0.1846 0.25879
3462.515 0.23898 0.26394 0.29538 0.30505 0.3645 0.31626 0.31168 0.28018 0.188 0.3226
3481.805 0.3656 0.3714 0.4461 0.3972 0.4232 0.5236 0.5683 0.5658 0.6441 0.7867
3501.095 0.7973 0.5265 0.4737 0.688 0.6582 0.5696 0.4674 0.27976 0.25509 0.3769
3520.385 0.496 0.5631 0.5705 0.4846 0.30951 0.27257 0.24008 0.26776 0.4094 0.402
3539.674 0.377 0.4206 0.5163 0.6248 0.626 0.5557 0.383 0.4424 0.6169 0.7207
3558.964 0.8574 0.9231 1.1699 1.477 1.997 2.777 3.757 5.247 7.357 10.237
3578.254 14.047 18.167 21.037 21.567 20.287 17.717 13.777 9.317 5.587 3.357
3597.544 2.297 1.657 1.237 1.0295 0.9092 0.9123 0.7858 0.608 0.5602 0.6038
3616.833 0.619 0.4373 0.4873 0.5591 0.5407 0.5555 0.4457 0.3858 0.4949 0.4415
3636.123 0.4065 0.3961 0.30324 0.28501 0.24518 0.31555 0.345 0.3536 0.4687 0.3517
3655.413 0.23628 0.26253 0.2589 0.4075 0.4235 0.4616 0.5197 0.4593 0.3425 0.26635
3674.703 0.28153 0.31093 0.26966 0.25421 0.30043 0.30509 0.3497 0.3814 0.3598 0.3633
3693.993 0.3946 0.446 0.4 0.5373 0.5854 0.3751 0.3426 0.365 0.3625 0.3355
3713.282 0.28274 0.1933 0.1618 0.1702 0.3984 0.5578 0.3433 0.25024 0.3897 0.3608
3732.572 0.1991 0.1406 0.1735 0.24986 0.224192 0.1991 0.1978 0.1666 0.1298 0.1507
3751.862 0.2353 0.30249 0.3705 0.23931 0.092 0.219463 0.29833 0.21309 0.23349 0.3381
3771.152 0.31136 0.147 0.019 0.088 0.25653 0.27375 0.28238 0.3573 0.30099 0.29718
3790.441 0.3505 0.3272 0.1981 0.23357 0.4449 0.25655 0.1776 0.2365 0.218662 0.092
3809.731 0.1617 0.3998 0.3464 0.25033 0.23398 0.23023 0.1646 0.088 0.1486 0.24312
3829.021 0.22956 0.116 0.2006 0.3885 0.1992 0.081 0.1278 0.20872 0.29362 0.183
3848.311 0.1222 0.23838 0.26977 0.23636 0.3246 0.25246 0.20874 0.20813 0.1619 0.31625
3867.601 0.3493 0.1886 0.1569 0.22968 0.1757 0.163 0.20855 0.086 0.111 0.3244
3886.890 0.27543 0.1759 0.2467 0.4124 0.3978 0.21024 0.023 0 0.21033 0.3433
3906.180 0.3564 0.29594 0.23151 0.2034 0.2025 0.115 0.1308 0.3274 0.4223 0.3792
3925.470 0.1907 0.1944 0.3329 0.28095 0.23557 0.1825 0.218248 0.24233 0.2397 0.1737
3944.760 0.138 0.29814 0.218352 0.1499 0.3707 0.3932 0.25833 0.30936 0.3835 0.28969
3964.049 0.1924 0.29487 0.4004 0.31118 0.26931 0.3776 0.31658 0.1775 0.1491 0.29587
3983.339 0.4486 0.3761 0.24601 0.1502 0.1405 0.1523 0.174 0.25835 0.23589 0.26981
##END=
