##TITLE=3,5-Diiodo-2-hydroxybenzaldehyde
##JCAMP-DX=4.24
##DATA TYPE=INFRARED SPECTRUM
##ORIGIN=EPA-IR VAPOR PHASE LIBRARY
##OWNER=SRD/NIST
Collection (C) 2018 copyright by the U.S. Secretary of Commerce
on behalf of the United States of America. All rights reserved.
##CAS REGISTRY NO=2631-77-8
##MOLFORM=C 7 H 4 I 2 O 2
##$NIST SOURCE=MSDC-IR
##STATE=gas
##XUNITS=1/CM
##YUNITS=ABSORBANCE
##XFACTOR=1.
##YFACTOR=0.001
##DELTAX=3.85796
##FIRSTX=501.5
##LASTX=4000.7
##FIRSTY=0.9414
##MAXX=4000.7
##MINX=501.534
##MAXY=0.062586
##MINY=0
##NPOINTS=908
##XYDATA=(X++(Y..Y))
501.534 0.9414 0.35386 0.28833 0.36126 0.1968 0.149 0.33931 0.37731 0.4759 0.8817
540.114 1.356 1.566 1.646 1.556 1.2392 1.0434 1.0972 1.0762 0.9062 0.8017
578.693 0.857 0.9602 0.9659 0.9474 0.9726 0.9829 0.9742 1.0172 1.0421 1.1647
617.273 1.386 1.586 1.876 2.296 2.966 3.846 4.746 5.296 5.506 6.406
655.852 8.826 11.546 11.616 8.396 4.886 3.266 3.196 4.066 5.796 8.616
694.432 11.626 12.746 11.346 8.736 7.166 6.976 7.256 7.486 7.326 7.216
733.011 7.626 8.276 8.056 6.486 4.386 2.746 1.786 1.326 1.0782 0.9158
771.591 0.8222 0.7693 0.7279 0.6777 0.6518 0.6236 0.5862 0.5627 0.5538 0.6941
810.170 0.8695 0.9341 0.7901 0.5744 0.5207 0.4835 0.433 0.441 0.4714 0.4623
848.750 0.4953 0.6701 1.0243 1.806 3.026 4.326 4.576 3.466 2.206 1.476
887.330 1.406 1.906 2.686 3.206 2.986 2.186 1.396 0.9252 0.6504 0.5025
925.909 0.4699 0.4376 0.3531 0.37051 0.38562 0.2742 0.168 0.092 0.06 0.101
964.489 0.166 0.177 0.161 0.098 0.145 0.2221 0.2758 0.38418 0.3925 0.4045
1003.068 0.4566 0.4142 0.31214 0.2132 0.136 0.127 0.142 0.192 0.2557 0.2478
1041.648 0.193 0.2154 0.2823 0.2321 0.169 0.193 0.185 0.2131 0.2794 0.2611
1080.227 0.417 0.6282 0.7396 0.9959 1.212 1.376 1.596 1.886 2.406 3.116
1118.807 3.976 5.166 6.756 9.186 13.166 18.196 21.996 21.706 17.096 11.346
1157.387 7.326 5.076 3.846 3.496 3.756 4.356 5.436 6.686 7.946 9.286
1195.966 10.736 12.456 13.706 13.406 11.376 8.616 6.486 5.346 4.776 4.466
1234.546 4.406 4.456 4.596 4.786 5.156 6.136 8.206 11.966 17.886 24.986
1273.125 29.926 28.996 22.086 13.446 7.766 5.516 4.986 5.216 5.776 6.286
1311.705 6.596 6.886 7.346 7.886 8.146 8.006 7.796 7.656 7.486 7.246
1350.284 7.006 6.916 6.986 6.906 6.406 5.516 4.646 4.396 5.076 6.586
1388.864 8.716 11.576 15.396 19.366 21.926 22.486 22.106 21.506 20.426 19.036
1427.443 18.056 17.646 17.166 15.926 13.736 11.126 8.856 7.156 5.816 4.816
1466.023 3.996 3.306 2.806 2.486 2.226 1.956 1.696 1.496 1.336 1.221
1504.603 1.1865 1.1443 1.0681 1.0059 0.9691 0.98 1.0098 1.0627 1.1654 1.2456
1543.182 1.2249 1.1611 1.1402 1.1634 1.2458 1.366 1.586 1.966 2.496 3.256
1581.762 4.196 5.276 6.086 6.076 5.196 3.966 2.946 2.336 2.086 2.126
1620.341 2.326 2.536 2.716 2.886 3.116 3.426 3.786 4.206 4.966 6.486
1658.921 9.456 15.736 28.176 47.366 62.586 60.486 42.516 23.726 14.356 10.366
1697.500 8.666 8.146 8.256 8.456 8.076 6.826 5.196 3.856 3.046 2.656
1736.080 2.376 2.056 1.716 1.426 1.2787 1.2717 1.356 1.446 1.486 1.406
1774.659 1.175 0.9562 0.8145 0.7582 0.7963 0.8572 0.9288 0.9745 0.9628 0.916
1813.239 0.8364 0.7423 0.6671 0.5985 0.5485 0.5247 0.4777 0.426 0.38371 0.38808
1851.819 0.4227 0.4247 0.4378 0.4439 0.4206 0.4093 0.4153 0.38417 0.3713 0.38415
1890.398 0.37534 0.37902 0.37409 0.32659 0.2904 0.2771 0.2685 0.2737 0.2669 0.302334
1928.978 0.33173 0.32024 0.305747 0.2814 0.2658 0.2524 0.2303 0.2113 0.195 0.2055
1967.557 0.2002 0.184 0.2211 0.2378 0.2136 0.189 0.183 0.2013 0.2239 0.2106
2006.137 0.19 0.194 0.2041 0.2062 0.2283 0.2338 0.2162 0.2536 0.28961 0.29279
2044.716 0.29098 0.2781 0.2598 0.2346 0.2267 0.2195 0.2204 0.2593 0.2837 0.2872
2083.296 0.30648 0.31437 0.30459 0.28932 0.278 0.2826 0.2791 0.2402 0.193 0.181
2121.875 0.176 0.171 0.173 0.187 0.188 0.163 0.156 0.162 0.147 0.164
2160.455 0.2059 0.2049 0.2183 0.216 0.179 0.181 0.194 0.196 0.185 0.186
2199.035 0.164 0.141 0.181 0.2129 0.2195 0.2307 0.2391 0.246 0.2223 0.2209
2237.614 0.2424 0.2253 0.2211 0.2307 0.2225 0.2072 0.1992 0.2117 0.228 0.2409
2276.194 0.234 0.2058 0.2159 0.249 0.2576 0.2431 0.2358 0.244 0.2529 0.2614
2314.773 0.2705 0.2518 0.2409 0.237 0.2376 0.2641 0.271 0.2779 0.2577 0.2395
2353.353 0.2568 0.2364 0.2174 0.2097 0.218 0.2517 0.2662 0.2635 0.2709 0.2788
2391.932 0.28855 0.33524 0.36898 0.36786 0.36899 0.36264 0.34604 0.32199 0.32473 0.339
2430.512 0.32342 0.28747 0.2767 0.3073 0.34096 0.3395 0.32984 0.33917 0.35342 0.37091
2469.092 0.38985 0.4018 0.398 0.4293 0.4598 0.4494 0.4443 0.4105 0.4021 0.414
2507.671 0.3968 0.39549 0.38009 0.39311 0.4364 0.4772 0.5661 0.6483 0.7151 0.7994
2546.251 0.8487 0.8677 0.8594 0.8232 0.7647 0.6909 0.6446 0.6131 0.5637 0.5224
2584.830 0.5316 0.5758 0.585 0.5734 0.5547 0.5456 0.5488 0.5162 0.5019 0.5062
2623.410 0.5228 0.5494 0.5406 0.5714 0.603 0.5937 0.6295 0.6328 0.6126 0.6867
2661.989 0.7227 0.7408 0.7845 0.8161 0.878 0.907 0.9364 0.9596 0.9649 0.9952
2700.569 1.0427 1.1016 1.1816 1.316 1.446 1.636 1.926 2.166 2.326 2.316
2739.148 2.236 2.086 1.966 1.936 1.866 1.766 1.676 1.596 1.526 1.486
2777.728 1.456 1.496 1.546 1.626 1.746 1.776 1.806 1.876 2.006 2.216
2816.308 2.526 2.956 3.576 4.516 5.956 8.146 10.976 12.926 12.176 8.966
2854.887 5.526 3.576 2.806 2.506 2.296 1.986 1.666 1.396 1.238 1.1265
2893.467 1.0487 0.973 0.9211 0.9253 0.9072 0.9247 0.957 0.9556 0.9431 0.9809
2932.046 1.0493 1.0925 1.1095 1.0944 1.0822 1.1098 1.1508 1.1531 1.1514 1.1134
2970.626 1.1011 1.1518 1.1798 1.1708 1.1673 1.2026 1.2665 1.2792 1.2691 1.2689
3009.205 1.2373 1.2343 1.2211 1.237 1.306 1.326 1.336 1.386 1.536 1.646
3047.785 1.696 1.796 1.856 1.926 2.006 2.106 2.206 2.336 2.376 2.366
3086.364 2.466 2.516 2.556 2.636 2.686 2.726 2.776 2.796 2.816 2.876
3124.944 3.016 3.146 3.186 3.316 3.436 3.436 3.446 3.516 3.616 3.726
3163.524 3.806 3.856 3.856 3.836 3.866 3.886 3.886 3.826 3.736 3.686
3202.103 3.636 3.626 3.586 3.466 3.356 3.276 3.246 3.236 3.256 3.306
3240.683 3.326 3.316 3.306 3.346 3.336 3.376 3.396 3.366 3.326 3.276
3279.262 3.236 3.176 3.096 3.016 2.976 2.916 2.806 2.716 2.636 2.586
3317.842 2.556 2.486 2.526 2.686 2.836 2.986 3.046 2.956 2.796 2.546
3356.421 2.396 2.266 2.136 2.116 1.996 1.896 1.886 1.846 1.866 1.806
3395.001 1.716 1.636 1.596 1.606 1.536 1.486 1.426 1.356 1.376 1.366
3433.580 1.2835 1.2913 1.306 1.2283 1.1886 1.1987 1.1789 1.1151 1.0595 1.0436
3472.160 1.0691 1.0499 0.9832 0.9389 0.9579 0.9767 0.9835 1.0852 1.2841 1.606
3510.740 1.906 1.906 1.596 1.326 1.2037 0.996 0.813 0.7393 0.6438 0.6042
3549.319 0.5659 0.5245 0.4793 0.4768 0.461 0.4123 0.4493 0.4405 0.36327 0.32731
3587.899 0.299283 0.2771 0.305287 0.349 0.31299 0.2477 0.2279 0.181 0.177 0.2247
3626.478 0.2366 0.177 0.179 0.2037 0.179 0.2132 0.193 0.133 0.179 0.2364
3665.058 0.2368 0.2238 0.2053 0.2271 0.196 0.169 0.142 0.111 0.14 0.146
3703.637 0.164 0.139 0.11 0.132 0.139 0.146 0.179 0.2232 0.171 0.146
3742.217 0.2354 0.2231 0.169 0.175 0.177 0.108 0.073 0.134 0.145 0.136
3780.797 0.114 0.079 0.057 0 0.045 0.111 0.134 0.155 0.163 0.141
3819.376 0.098 0.073 0.097 0.14 0.105 0.022 0.113 0.2238 0.119 0.077
3857.956 0.149 0.179 0.155 0.14 0.132 0.12 0.128 0.09 0.132 0.179
3896.535 0.166 0.118 0.065 0.076 0.083 0.094 0.183 0.196 0.136 0.129
3935.115 0.13 0.2137 0.186 0.097 0.159 0.166 0.117 0.104 0.099 0.075
3973.694 0.089 0.2066 0.241 0.182 0.154 0.2082 0.227 0.2123
##END=
