##TITLE=3,4-Methylenedioxybromobenzene
##JCAMP-DX=4.24
##DATA TYPE=INFRARED SPECTRUM
##ORIGIN=EPA-IR VAPOR PHASE LIBRARY
##OWNER=SRD/NIST
Collection (C) 2018 copyright by the U.S. Secretary of Commerce
on behalf of the United States of America. All rights reserved.
##CAS REGISTRY NO=2635-13-4
##MOLFORM=C 7 H 5 Br O 2
##$NIST SOURCE=MSDC-IR
##STATE=gas
##XUNITS=1/CM
##YUNITS=ABSORBANCE
##XFACTOR=1.
##YFACTOR=0.001
##DELTAX=1.92898
##FIRSTX=549.8
##LASTX=4000.7
##FIRSTY=2.608
##MAXX=4000.7
##MINX=549.759
##MAXY=0.499338
##MINY=0
##NPOINTS=1790
##XYDATA=(X++(Y..Y))
549.759 2.608 3.288 3.998 4.748 6.108 7.848 9.878 13.078 16.938 21.488
569.049 26.178 29.428 31.798 32.808 31.018 27.638 22.848 16.808 11.868 8.608
588.339 6.628 5.158 3.878 2.928 1.958 1.378 1.288 1.1262 0.9474 0.9648
607.628 0.9422 0.9075 0.9982 0.8242 0.6275 0.763 0.8597 1.1486 1.368 1.388
626.918 1.588 1.788 1.968 2.058 2.168 2.318 2.238 2.168 2.318 2.348
646.208 2.398 2.408 2.488 2.598 2.748 3.238 3.968 4.828 6.398 9.188
665.498 12.988 17.158 19.938 20.698 20.748 20.998 20.428 17.398 12.538 8.198
684.787 5.498 3.918 2.958 2.308 1.848 1.738 1.648 1.508 1.418 1.318
704.077 1.298 1.608 2.138 2.838 4.138 5.818 7.278 8.188 8.308 8.058
723.367 7.888 7.248 5.498 3.488 2.308 1.638 1.0625 0.8286 0.6754 0.6017
742.657 0.829 0.7288 0.5616 0.6635 0.9202 0.9259 0.8453 1.0932 1.218 1.198
761.947 1.1632 1.358 1.748 2.328 3.048 3.928 5.098 6.778 8.968 11.758
781.236 15.488 19.938 24.958 30.518 36.138 41.958 48.688 56.968 67.208 74.768
800.526 71.748 64.408 60.428 56.588 50.938 43.528 35.428 27.998 22.138 17.908
819.816 15.128 13.358 12.298 12.258 12.728 13.448 14.748 16.298 18.228 20.468
839.106 22.488 24.158 25.598 27.578 31.008 36.118 35.148 28.798 26.728 26.808
858.395 26.478 26.358 26.828 28.928 33.638 41.688 52.568 62.648 66.108 63.738
877.685 62.558 63.388 59.408 45.478 28.608 17.858 12.848 10.268 8.638 7.528
896.975 6.808 6.588 6.648 6.788 7.248 8.068 8.898 9.868 11.228 13.008
916.265 14.818 16.578 18.878 21.868 25.108 28.618 32.728 37.198 41.888 46.558
935.555 51.198 55.768 60.028 63.808 66.218 66.168 64.068 60.808 57.518 53.898
954.844 48.428 41.048 33.228 26.868 22.028 17.898 14.588 12.188 10.358 9.188
974.134 8.338 7.658 7.168 6.878 6.998 7.018 7.108 7.388 7.408 7.338
993.424 7.798 8.408 8.758 9.478 10.288 10.898 12.148 13.658 14.768 16.598
1012.714 19.078 21.888 25.248 29.048 33.928 39.908 46.638 54.778 64.618 75.528
1032.003 87.178 99.648 112.238 123.938 133.768 141.048 145.568 146.928 144.488 139.208
1051.293 132.758 124.558 114.918 105.338 95.848 86.098 76.458 67.168 58.318 49.658
1070.583 42.038 35.898 30.888 26.908 24.088 22.148 20.708 20.448 20.868 21.828
1089.873 23.938 26.888 30.368 33.848 36.708 39.228 41.108 42.108 42.448 42.188
1109.163 40.608 38.188 35.338 32.108 29.478 27.198 25.428 23.678 22.108 20.648
1128.452 19.428 18.838 18.208 17.818 18.248 19.338 21.098 23.788 26.818 30.158
1147.742 34.408 39.728 45.408 49.928 51.248 49.928 47.688 44.688 40.248 33.608
1167.032 26.018 19.248 14.878 12.168 10.168 9.108 8.418 8.168 7.738 7.958
1186.322 8.868 9.508 10.488 12.018 14.228 16.968 20.698 25.488 30.668 37.208
1205.611 44.968 54.308 65.798 78.998 95.758 116.738 142.028 172.478 207.758 246.198
1224.901 284.818 318.118 340.818 349.428 342.658 322.518 290.068 247.978 201.498 156.998
1244.191 119.808 91.548 71.768 59.278 51.358 44.248 35.958 27.858 21.728 17.608
1263.481 14.658 12.438 10.818 9.478 8.598 8.078 7.508 6.938 6.798 6.828
1282.771 6.818 6.858 6.878 7.068 7.258 7.288 7.078 6.848 6.788 6.718
1302.060 6.678 6.728 6.928 7.378 8.148 9.248 10.578 12.278 14.508 17.278
1321.350 20.528 24.178 28.128 32.358 36.398 39.408 40.518 39.608 37.658 35.158
1340.640 31.638 26.518 20.698 15.958 12.878 10.788 9.168 7.958 7.118 6.638
1359.930 6.458 6.528 6.808 7.188 7.688 8.178 8.508 8.808 9.108 9.308
1379.219 9.398 9.558 10.038 10.968 12.408 14.238 16.218 17.988 19.168 19.958
1398.509 20.718 21.478 21.838 21.778 22.258 23.928 26.828 30.938 35.998 41.608
1417.799 47.058 51.158 52.748 51.958 49.968 47.068 42.488 36.508 30.308 25.188
1437.089 21.668 19.628 18.808 18.908 19.918 21.878 24.968 29.718 36.958 47.788
1456.378 63.928 87.328 120.048 163.898 218.348 280.178 342.828 400.228 448.768 484.988
1475.668 499.338 484.218 444.838 396.468 347.658 294.628 234.328 175.108 129.368 100.348
1494.958 81.738 68.188 59.198 55.238 54.258 52.548 49.748 47.718 45.638 41.108
1514.248 33.568 25.808 20.168 16.468 14.058 12.628 11.648 10.938 10.408 9.928
1533.538 9.418 8.848 8.288 7.768 7.328 6.918 6.568 6.208 5.818 5.448
1552.827 5.088 4.638 4.078 3.598 3.248 3.008 2.958 3.158 3.418 3.738
1572.117 4.198 4.808 5.498 6.258 7.238 8.288 9.368 10.418 11.288 12.008
1591.407 12.528 12.828 12.998 13.108 13.138 13.068 12.868 12.628 12.398 12.108
1610.697 11.798 11.358 10.848 10.278 9.648 8.988 8.268 7.588 6.858 6.128
1629.986 5.548 4.938 4.348 3.858 3.458 3.128 2.848 2.578 2.378 2.198
1649.276 2.018 2.058 2.088 1.998 1.988 2.058 2.178 2.308 2.408 2.558
1668.566 2.758 2.958 3.128 3.288 3.488 3.648 3.858 4.178 4.498 4.858
1687.856 5.218 5.488 5.708 5.798 5.648 5.538 5.548 5.408 5.108 4.688
1707.146 4.298 3.988 3.638 3.288 2.958 2.668 2.378 2.068 1.818 1.648
1726.435 1.598 1.618 1.658 1.728 1.858 2.008 2.158 2.398 2.678 3.018
1745.725 3.398 3.868 4.288 4.608 4.858 4.968 4.998 4.908 4.608 4.168
1765.015 3.818 3.628 3.498 3.308 3.088 2.868 2.718 2.608 2.488 2.368
1784.305 2.298 2.298 2.288 2.298 2.418 2.578 2.768 2.998 3.198 3.388
1803.594 3.648 3.898 4.248 4.658 4.958 5.378 5.808 6.148 6.518 6.868
1822.884 7.068 6.988 6.768 6.488 6.268 5.968 5.438 4.848 4.258 3.818
1842.174 3.488 3.188 2.988 2.908 2.868 2.828 2.828 2.898 2.938 3.028
1861.464 3.108 3.138 3.278 3.378 3.478 3.618 3.698 3.828 3.988 4.008
1880.754 4.018 4.058 4.048 3.998 3.868 3.658 3.518 3.378 3.098 2.858
1900.043 2.698 2.518 2.448 2.398 2.298 2.168 2.028 1.938 1.818 1.608
1919.333 1.418 1.238 1.1134 1.0451 0.9561 0.8716 0.875 0.9592 0.9551 0.8694
1938.623 0.8724 0.9183 0.9105 0.8972 0.9253 0.9876 1.0491 1.0836 1.0642 1.1378
1957.913 1.288 1.308 1.338 1.458 1.588 1.708 1.798 1.848 1.968 2.058
1977.202 2.098 2.138 2.048 1.968 1.838 1.698 1.628 1.538 1.508 1.438
1996.492 1.378 1.348 1.358 1.398 1.418 1.548 1.818 1.998 2.198 2.448
2015.782 2.728 3.078 3.438 3.858 4.258 4.498 4.718 4.938 5.008 4.958
2035.072 4.808 4.588 4.388 4.078 3.718 3.388 3.108 2.908 2.768 2.658
2054.362 2.498 2.338 2.248 2.168 2.058 1.938 1.858 1.818 1.778 1.718
2073.651 1.648 1.658 1.698 1.718 1.688 1.668 1.728 1.768 1.758 1.748
2092.941 1.698 1.688 1.668 1.608 1.568 1.508 1.448 1.388 1.308 1.258
2112.231 1.248 1.228 1.198 1.1729 1.147 1.1183 1.1349 1.1491 1.1216 1.1236
2131.521 1.1368 1.1238 1.1135 1.1294 1.1683 1.1422 1.0874 1.0456 0.9959 1.0013
2150.810 1.0162 0.9821 0.9593 0.9174 0.8627 0.8626 0.8534 0.8222 0.7857 0.7973
2170.100 0.8425 0.8374 0.8421 0.8582 0.9006 0.9002 0.8684 0.9553 0.9995 0.9524
2189.390 0.962 1.05 1.1208 1.0845 1.0588 1.097 1.1243 1.0879 1.0498 1.074
2208.680 1.0805 1.1382 1.1751 1.1289 1.1476 1.169 1.1348 1.198 1.238 1.208
2227.970 1.188 1.198 1.198 1.1196 1.0744 1.022 0.9843 1.0291 1.1068 1.248
2247.259 1.338 1.398 1.568 1.738 1.808 1.858 1.938 2.048 2.158 2.288
2266.549 2.428 2.478 2.598 2.708 2.778 2.908 2.938 2.968 2.978 2.858
2285.839 2.728 2.648 2.638 2.618 2.468 2.378 2.338 2.318 2.348 2.288
2305.129 2.268 2.298 2.248 2.198 2.158 2.048 1.878 1.688 1.558 1.478
2324.418 1.388 1.288 1.178 1.0874 1.046 1.0663 1.0872 1.0536 1.039 1.0139
2343.708 0.9709 0.8831 0.8237 0.875 0.9373 0.9138 0.8914 0.9339 0.9921 1.0119
2362.998 0.9292 0.8968 1.0078 1.0584 0.9444 0.8768 0.921 0.9951 0.9756 0.909
2382.288 0.8855 0.873 0.8084 0.7854 0.8318 0.7465 0.6917 0.6913 0.6872 0.7086
2401.578 0.6903 0.6694 0.7036 0.7226 0.6875 0.7167 0.6973 0.6127 0.5637 0.484
2420.867 0.4711 0.54 0.6054 0.6083 0.5975 0.6438 0.7133 0.758 0.7836 0.8641
2440.157 0.9376 0.9949 1.0418 1.1254 1.198 1.278 1.458 1.608 1.778 1.908
2459.447 1.948 1.998 2.078 2.198 2.228 2.198 2.228 2.258 2.338 2.308
2478.737 2.188 2.198 2.208 2.118 2.018 1.938 1.848 1.728 1.588 1.438
2498.026 1.288 1.208 1.1429 1.1419 1.1574 1.154 1.1571 1.188 1.1692 1.102
2517.316 1.208 1.278 1.248 1.248 1.268 1.348 1.318 1.348 1.488 1.578
2536.606 1.638 1.698 1.818 1.918 2.048 2.178 2.338 2.438 2.468 2.618
2555.896 2.738 2.798 2.878 3.008 3.078 3.048 3.038 2.948 2.788 2.728
2575.186 2.518 2.328 2.278 1.998 1.678 1.548 1.438 1.368 1.258 1.208
2594.475 1.198 1.0972 1.0353 0.9613 0.8833 0.9048 0.9392 0.9472 0.9855 1.0323
2613.765 1.0889 1.086 1.0735 1.095 1.218 1.258 1.338 1.478 1.548 1.698
2633.055 1.788 1.798 1.788 1.888 1.978 1.928 1.958 2.008 1.918 1.888
2652.345 1.918 1.918 1.918 1.938 1.928 1.888 1.878 1.778 1.678 1.728
2671.634 1.818 1.708 1.658 1.758 1.758 1.798 1.798 1.808 1.898 1.978
2690.924 2.058 2.068 2.238 2.378 2.378 2.318 2.258 2.318 2.308 2.258
2710.214 2.178 2.058 2.018 2.008 2.008 1.988 1.938 1.898 1.968 2.008
2729.504 2.008 2.088 2.128 2.258 2.468 2.668 2.748 2.828 3.058 3.308
2748.794 3.548 3.818 4.168 4.678 5.188 5.748 6.498 7.478 8.648 9.898
2768.083 11.278 12.528 13.428 13.948 13.998 13.538 12.648 11.438 9.948 8.438
2787.373 7.078 5.978 5.368 5.118 5.028 5.058 5.068 5.028 5.208 5.468
2806.663 5.618 5.758 5.888 6.158 6.488 6.788 7.028 7.248 7.558 7.808
2825.953 8.058 8.438 8.818 9.198 9.538 9.768 10.128 10.688 11.248 11.848
2845.242 12.488 13.228 14.068 15.018 16.118 17.308 18.738 20.338 21.968 23.658
2864.532 25.538 27.428 29.228 30.928 32.518 34.218 35.988 37.878 39.758 41.508
2883.822 43.098 44.278 44.728 44.758 44.298 43.338 42.108 40.838 39.928 39.378
2903.112 39.228 39.358 39.698 39.978 40.188 40.228 39.968 39.388 38.648 38.068
2922.401 37.228 36.398 35.658 34.888 34.318 33.678 32.928 32.178 31.508 30.858
2941.691 30.128 29.378 28.688 28.048 27.378 26.588 25.648 24.628 23.728 22.898
2960.981 22.028 21.128 20.138 19.248 18.578 18.038 17.678 17.338 16.958 16.628
2980.271 16.298 16.008 15.608 15.038 14.338 13.578 12.828 12.118 11.528 10.988
2999.561 10.588 10.508 10.658 11.118 12.048 13.318 14.608 15.968 17.248 18.068
3018.850 18.518 18.508 17.968 16.958 15.698 14.358 13.058 11.878 10.818 9.888
3038.140 9.128 8.498 7.938 7.398 6.918 6.598 6.288 5.838 5.538 5.238
3057.430 4.868 4.668 4.538 4.428 4.298 4.198 4.228 4.508 4.858 5.248
3076.720 5.748 6.148 6.648 7.008 7.028 6.988 6.708 6.128 5.378 4.608
3096.009 3.998 3.418 2.978 2.728 2.378 2.148 2.098 1.888 1.618 1.458
3115.299 1.228 1.0576 1.0333 0.9431 0.8793 0.7673 0.783 0.7406 0.5571 0.6252
3134.589 0.637 0.5515 0.5695 0.5986 0.5572 0.4705 0.3723 0.3907 0.3445 0.3095
3153.879 0.2962 0.3166 0.4135 0.3155 0.21161 0.17185 0.21118 0.27171 0.22505 0.2942
3173.169 0.3631 0.3482 0.4081 0.3394 0.2626 0.3372 0.3148 0.3032 0.3046 0.26507
3192.458 0.3542 0.4681 0.4353 0.4304 0.4065 0.3271 0.4209 0.4656 0.4455 0.4124
3211.748 0.3969 0.4662 0.4499 0.4424 0.4228 0.4677 0.4859 0.4936 0.6169 0.5339
3231.038 0.4285 0.4735 0.4788 0.3526 0.3908 0.4935 0.4301 0.4547 0.4862 0.4959
3250.328 0.5043 0.5524 0.5954 0.4188 0.3411 0.3286 0.2326 0.3522 0.4 0.3655
3269.617 0.4116 0.3531 0.27699 0.3006 0.4028 0.4098 0.3562 0.3411 0.180008 0.1421
3288.907 0.3005 0.24515 0.22405 0.3293 0.3565 0.352 0.3379 0.2813 0.157 0.134
3308.197 0.22194 0.3492 0.3013 0.22695 0.25464 0.1576 0.1108 0.23709 0.4195 0.3998
3327.487 0.2941 0.17212 0.2106 0.4249 0.3265 0.186428 0.177765 0.1203 0.17661 0.22432
3346.777 0.26179 0.2922 0.24168 0.22975 0.3746 0.4738 0.3522 0.2906 0.2959 0.304
3366.066 0.3172 0.24881 0.25342 0.20267 0.1192 0.1542 0.2483 0.3105 0.2136 0.285
3385.356 0.3965 0.3666 0.302 0.3177 0.2901 0.2028 0.23421 0.19019 0.22189 0.3288
3404.646 0.26586 0.1382 0.071 0 0.0821 0.20597 0.19527 0.25844 0.1897 0.039
3423.936 0.1142 0.19609 0.21472 0.3111 0.3915 0.321 0.24461 0.20842 0.23349 0.312
3443.225 0.25056 0.1286 0.1652 0.3186 0.24033 0.0949 0.1335 0.25161 0.3666 0.3036
3462.515 0.18909 0.24696 0.2979 0.21775 0.154 0.24737 0.2788 0.3 0.3664 0.3306
3481.805 0.3579 0.3899 0.4666 0.4202 0.3042 0.4063 0.3891 0.3494 0.3709 0.27382
3501.095 0.2165 0.23959 0.22384 0.26812 0.3514 0.26614 0.27299 0.3112 0.26622 0.1138
3520.385 0.19319 0.3996 0.3031 0.2799 0.4604 0.452 0.3546 0.3471 0.24652 0.25439
3539.674 0.4346 0.4063 0.2839 0.2967 0.23522 0.23665 0.2279 0.0816 0.07 0.20963
3558.964 0.154 0.179572 0.287 0.19911 0.21981 0.22566 0.25325 0.3277 0.1621 0.21546
3578.254 0.4245 0.3529 0.25335 0.27453 0.2892 0.2821 0.3972 0.4405 0.4542 0.4641
3597.544 0.483 0.4169 0.3278 0.3987 0.4413 0.4376 0.4885 0.4872 0.4061 0.4334
3616.833 0.464 0.4898 0.59 0.6381 0.4281 0.3537 0.4081 0.2898 0.22043 0.3683
3636.123 0.4088 0.3392 0.3592 0.3491 0.4149 0.5315 0.495 0.4744 0.5156 0.5441
3655.413 0.52 0.5172 0.5891 0.5211 0.379 0.3419 0.2962 0.2911 0.472 0.5557
3674.703 0.5769 0.4748 0.3213 0.3791 0.4683 0.5131 0.5477 0.4726 0.4006 0.4367
3693.993 0.3898 0.3493 0.3983 0.3032 0.24902 0.21717 0.16972 0.27273 0.4465 0.4801
3713.282 0.3867 0.3206 0.3355 0.3693 0.2884 0.3528 0.4376 0.3086 0.3505 0.467
3732.572 0.4626 0.5313 0.5057 0.3216 0.21965 0.23736 0.3952 0.5363 0.4929 0.4129
3751.862 0.3705 0.4384 0.4611 0.4579 0.4681 0.4685 0.4413 0.4021 0.4953 0.5544
3771.152 0.5969 0.4433 0.3395 0.5371 0.67 0.5687 0.4564 0.374 0.3265 0.4259
3790.441 0.3879 0.26738 0.3832 0.6533 0.6477 0.3872 0.25717 0.3946 0.5895 0.5869
3809.731 0.4833 0.5256 0.4875 0.4427 0.5795 0.4783 0.3458 0.4207 0.3874 0.4905
3829.021 0.6371 0.6556 0.6481 0.5786 0.62 0.5258 0.4703 0.586 0.5348 0.4076
3848.311 0.26236 0.2914 0.3538 0.2829 0.3461 0.4714 0.5239 0.5275 0.4938 0.4383
3867.601 0.4241 0.5459 0.6985 0.6644 0.522 0.4419 0.567 0.6505 0.4759 0.4759
3886.890 0.6459 0.6628 0.5795 0.4709 0.3823 0.3861 0.4771 0.6448 0.7181 0.6594
3906.180 0.5631 0.5806 0.6962 0.8009 0.8287 0.7107 0.7973 0.8619 0.8034 0.8421
3925.470 0.9013 0.9414 0.9222 0.9303 1.0372 1.1057 1.0812 1.1256 1.258 1.378
3944.760 1.398 1.308 1.258 1.228 1.268 1.308 1.358 1.548 1.538 1.498
3964.049 1.498 1.518 1.588 1.518 1.408 1.288 1.218 1.1548 1.0456 0.9433
3983.339 0.9067 0.8212 0.6404 0.6921 0.904 0.8224 0.5879 0.5115 0.523 0.5877
##END=
