##TITLE=2-Mercaptopyridine
##JCAMP-DX=4.24
##DATA TYPE=INFRARED SPECTRUM
##ORIGIN=EPA-IR VAPOR PHASE LIBRARY
##OWNER=SRD/NIST
Collection (C) 2018 copyright by the U.S. Secretary of Commerce
on behalf of the United States of America. All rights reserved.
##CAS REGISTRY NO=2637-34-5
##MOLFORM=C 5 H 5 N S
##$NIST SOURCE=MSDC-IR
##STATE=gas
##XUNITS=1/CM
##YUNITS=ABSORBANCE
##XFACTOR=1.
##YFACTOR=0.001
##DELTAX=1.92898
##FIRSTX=549.8
##LASTX=4000.7
##FIRSTY=0.2049
##MAXX=4000.7
##MINX=549.759
##MAXY=0.0157971
##MINY=0
##NPOINTS=1790
##XYDATA=(X++(Y..Y))
549.759 0.2049 0.3026 0.2216 0.3068 0.2379 0.06021 0.2046 0.215 0.3265 0.2839
569.049 0.13136 0.3535 0.4339 0.2886 0.3117 0.3136 0.3752 0.3852 0.4608 0.5433
588.339 0.3211 0.3253 0.6756 0.5751 0.406 0.6249 0.7072 0.7227 0.6489 0.6792
607.628 0.7038 0.6373 0.7834 0.8418 0.5772 0.4205 0.4866 0.5544 0.6148 0.6938
626.918 0.6409 0.6199 0.5787 0.3995 0.2687 0.3539 0.5301 0.3779 0.2589 0.204
646.208 0.1995 0.3016 0.3147 0.2757 0.2193 0.3195 0.464 0.5161 0.4173 0.3768
665.498 0.4176 0.4295 0.4488 0.4693 0.4774 0.553 0.6499 0.6247 0.7064 0.8809
684.787 0.8363 0.6594 0.7099 0.8883 0.9956 1.1171 1.1571 1.2571 1.5171 1.6571
704.077 1.7371 1.8671 2.1271 2.4771 2.8171 3.2571 3.6471 3.8671 4.1571 4.6371
723.367 5.0771 5.4671 5.7071 5.7971 6.1271 6.6571 7.0171 6.9771 6.7371 6.5071
742.657 6.5271 6.5271 6.5171 6.7471 6.9171 7.4771 8.2271 7.8871 6.6771 5.7171
761.947 5.1171 4.6371 4.3071 3.9971 3.6571 3.3071 2.9571 2.5771 2.1771 1.8971
781.236 1.5771 1.2571 1.0105 0.8579 0.8152 0.6475 0.4722 0.4142 0.4266 0.4562
800.526 0.4862 0.4183 0.3361 0.3906 0.4698 0.4799 0.4027 0.317 0.2715 0.249
819.816 0.3232 0.4634 0.3711 0.4425 0.5621 0.3935 0.2964 0.5229 0.6037 0.5548
839.106 0.4388 0.252 0.2518 0.3131 0.3458 0.4056 0.4503 0.4551 0.4541 0.3642
858.395 0.4334 0.5428 0.5706 0.6864 0.7703 0.7282 0.8578 0.9454 0.9805 0.9895
877.685 1.0304 1.0971 1.0243 1.033 1.0471 1.0671 1.2071 1.4271 1.4571 1.2971
896.975 1.1471 1.0771 1.0041 0.8904 0.8931 0.8649 0.9307 1.0471 0.9573 0.7706
916.265 0.6979 0.7157 0.8013 0.7739 0.6863 0.7465 0.7941 0.777 0.6571 0.5453
935.555 0.5585 0.6452 0.6263 0.6536 0.6335 0.57 0.6921 0.8875 0.8469 0.7393
954.844 0.9712 1.1871 1.2771 1.3971 1.5871 1.7271 1.7971 1.9771 2.0971 2.1471
974.134 2.2671 2.3571 2.4971 2.3971 2.2071 2.0171 1.6571 1.4871 1.4671 1.3471
993.424 1.1771 1.0671 0.8746 0.7255 0.7324 0.6523 0.5782 0.593 0.522 0.4298
1012.714 0.5608 0.8066 0.5564 0.4298 0.5056 0.5963 0.7135 0.7612 0.7935 0.8516
1032.003 0.9717 1.1171 1.2871 1.3271 1.2971 1.1371 1.0121 0.9164 1.0471 1.2071
1051.293 1.3771 1.4771 1.1571 0.9655 0.7325 0.6258 0.7068 0.6547 0.413 0.3501
1070.583 0.5799 0.4949 0.638 0.9907 1.0671 1.037 0.7767 0.8425 1.1671 1.2071
1089.873 1.0671 1.3471 1.6771 1.3671 1.0471 1.1871 1.5071 1.5871 1.5171 1.9771
1109.163 2.6171 2.9171 3.5571 4.2171 5.0871 5.9071 6.1471 6.5771 7.2271 7.7671
1128.452 8.5171 9.2471 10.1371 10.9771 11.0271 10.5371 10.1071 9.9571 9.7271 9.4171
1147.742 9.5771 9.6971 9.3971 8.8271 8.0971 7.1771 6.2371 5.7171 5.2171 4.8771
1167.032 4.6071 3.9571 3.2871 2.6071 1.9571 1.6271 1.3471 0.8918 0.7854 0.775
1186.322 0.6004 0.7738 0.5924 0.1737 0.2209 0.3283 0.4129 0.3918 0.2728 0.4113
1205.611 0.6023 0.4697 0.3226 0.5116 0.4328 0.2245 0.5746 0.7347 0.4149 0.2958
1224.901 0.3146 0.3345 0.5438 0.7391 0.8264 0.679 0.5318 0.4208 0.2431 0.3323
1244.191 0.5924 0.5898 0.5551 0.6888 0.5776 0.4188 0.6046 0.6606 0.6866 0.8102
1263.481 0.6874 0.7488 0.8376 0.9376 1.1271 1.1771 1.2371 1.3571 1.3971 1.3071
1282.771 1.1771 1.2171 1.3271 1.1471 0.9546 1.0571 1.0671 0.9386 0.7803 0.6137
1302.060 0.5471 0.4443 0.3162 0.3529 0.3424 0.3022 0.328 0.3108 0.2847 0.2728
1321.350 0.3515 0.3684 0.3541 0.39 0.3974 0.3999 0.4158 0.4633 0.4959 0.4888
1340.640 0.4943 0.5211 0.498 0.4954 0.5147 0.5178 0.5224 0.5018 0.4757 0.4585
1359.930 0.4664 0.4537 0.4329 0.4373 0.4471 0.4492 0.4244 0.4203 0.4449 0.4459
1379.219 0.4778 0.5041 0.5161 0.5868 0.6292 0.6683 0.7672 0.9824 1.2971 1.6371
1398.509 2.0671 2.6571 3.4971 4.6171 5.8871 7.2071 8.4271 9.2471 9.5271 9.4871
1417.799 9.5071 9.9471 10.0371 9.5771 9.7671 9.9271 9.2871 8.0671 6.7471 5.7071
1437.089 5.0371 4.7771 4.8971 5.2771 5.7071 6.2071 6.6671 7.1071 7.4371 7.5971
1456.378 7.6871 7.5771 7.3271 7.0071 6.5371 6.0271 5.5971 5.0171 4.2471 3.3671
1475.668 2.6471 2.1171 1.7271 1.5271 1.4271 1.3071 1.2171 1.1771 1.0471 0.9309
1494.958 0.9164 0.9035 0.8235 0.7993 0.806 0.7754 0.7905 0.8181 0.8087 0.7586
1514.248 0.7391 0.777 0.8631 0.9759 1.0671 1.1771 1.4271 1.6971 1.9371 2.3571
1533.538 2.8971 3.4571 4.0871 4.7471 5.4271 6.0271 6.5371 7.0371 7.5871 8.2071
1552.827 8.8171 9.3671 9.9271 10.5771 11.2371 11.8271 12.5971 13.6371 14.6771 15.4571
1572.117 15.7971 15.5671 14.7871 13.7471 12.8171 12.0571 11.1971 10.1971 9.2171 8.2271
1591.407 7.0271 5.6571 4.3471 3.2671 2.5371 2.1071 1.8171 1.6571 1.6371 1.6071
1610.697 1.5971 1.6271 1.6871 1.7271 1.6171 1.5271 1.4971 1.3871 1.2571 1.2371
1629.986 1.2471 1.1571 1.0279 0.8832 0.785 0.6862 0.6348 0.6028 0.5509 0.4994
1649.276 0.4353 0.4602 0.5033 0.4749 0.4444 0.4757 0.4436 0.4063 0.4271 0.4178
1668.566 0.4375 0.4209 0.3923 0.4133 0.3926 0.3495 0.3677 0.3969 0.4107 0.4121
1687.856 0.4364 0.4018 0.381 0.4616 0.4907 0.4259 0.4194 0.4992 0.5114 0.511
1707.146 0.534 0.5373 0.5498 0.5618 0.518 0.5142 0.5597 0.5335 0.5113 0.5487
1726.435 0.5285 0.532 0.4909 0.4511 0.517 0.4624 0.4184 0.4369 0.3974 0.4026
1745.725 0.4476 0.4547 0.4108 0.3829 0.3863 0.388 0.3455 0.3476 0.3976 0.3985
1765.015 0.3912 0.4154 0.4357 0.3774 0.3276 0.318 0.3058 0.2881 0.2664 0.2656
1784.305 0.2531 0.218 0.2153 0.226 0.2296 0.2365 0.2747 0.3483 0.3398 0.333
1803.594 0.3619 0.332 0.335 0.3514 0.3642 0.36 0.3619 0.3922 0.4418 0.4823
1822.884 0.4567 0.4576 0.5187 0.5364 0.4998 0.5094 0.5479 0.5404 0.5343 0.5181
1842.174 0.5096 0.5273 0.5082 0.5446 0.5862 0.5397 0.5048 0.5299 0.5493 0.4816
1861.464 0.4399 0.4647 0.4786 0.442 0.4104 0.3969 0.3823 0.3838 0.3489 0.3549
1880.754 0.4007 0.415 0.4339 0.4343 0.4224 0.3923 0.4089 0.4633 0.4829 0.4716
1900.043 0.4699 0.4639 0.4269 0.4343 0.4314 0.4545 0.4617 0.4128 0.4462 0.5248
1919.333 0.5375 0.5174 0.5087 0.4983 0.4615 0.4671 0.5161 0.5163 0.5135 0.5034
1938.623 0.4649 0.4657 0.4723 0.5017 0.5292 0.5076 0.4988 0.5395 0.5735 0.5204
1957.913 0.4727 0.4842 0.456 0.4431 0.4354 0.4285 0.4237 0.4152 0.4101 0.3811
1977.202 0.3492 0.3457 0.3452 0.3106 0.2808 0.2862 0.2878 0.2847 0.2937 0.3207
1996.492 0.3893 0.4012 0.3662 0.3362 0.3087 0.2778 0.2273 0.2486 0.2746 0.2737
2015.782 0.2927 0.2391 0.2247 0.2693 0.325 0.3317 0.3277 0.3289 0.3208 0.2969
2035.072 0.2463 0.2449 0.3087 0.3431 0.3085 0.3055 0.2834 0.24 0.2834 0.3275
2054.362 0.2895 0.2619 0.2528 0.1998 0.2176 0.3019 0.3146 0.2585 0.2643 0.2992
2073.651 0.2708 0.3118 0.3288 0.2799 0.2528 0.2274 0.2274 0.2479 0.2459 0.2589
2092.941 0.2648 0.2906 0.3183 0.3289 0.3698 0.3287 0.3112 0.3672 0.3138 0.2346
2112.231 0.2584 0.3195 0.3279 0.2904 0.2803 0.3264 0.2933 0.2721 0.3233 0.2916
2131.521 0.2884 0.3422 0.348 0.3521 0.3577 0.2785 0.2383 0.314 0.3787 0.3496
2150.810 0.3043 0.3243 0.3425 0.3679 0.3431 0.3043 0.3154 0.3293 0.3347 0.2819
2170.100 0.215 0.2404 0.2705 0.2936 0.3411 0.3055 0.2837 0.2726 0.2527 0.2646
2189.390 0.3027 0.367 0.3557 0.3447 0.3778 0.3058 0.2757 0.3199 0.308 0.294
2208.680 0.2921 0.2959 0.2835 0.3265 0.3474 0.3283 0.377 0.3857 0.3427 0.2979
2227.970 0.2874 0.3042 0.3216 0.3504 0.317 0.2557 0.2522 0.2623 0.2699 0.248
2247.259 0.2502 0.3049 0.2762 0.2411 0.312 0.3135 0.322 0.343 0.3238 0.3833
2266.549 0.4237 0.3942 0.3501 0.3543 0.4037 0.4109 0.3745 0.3324 0.3613 0.3899
2285.839 0.3464 0.3192 0.3353 0.3525 0.3395 0.4005 0.4164 0.4386 0.4402 0.3752
2305.129 0.3731 0.3898 0.4073 0.4591 0.4462 0.3407 0.319 0.3804 0.4712 0.5004
2324.418 0.4682 0.4255 0.3464 0.3224 0.3032 0.3235 0.3687 0.3281 0.3585 0.4027
2343.708 0.4086 0.3159 0.211 0.2483 0.298 0.3445 0.382 0.42 0.397 0.3212
2362.998 0.3441 0.4171 0.4169 0.3338 0.2646 0.2827 0.3785 0.4094 0.3358 0.3123
2382.288 0.3545 0.3283 0.3299 0.3398 0.3447 0.3469 0.2955 0.2917 0.3285 0.3268
2401.578 0.2901 0.2973 0.3081 0.3541 0.3525 0.2519 0.259 0.3643 0.3821 0.3329
2420.867 0.326 0.3275 0.3493 0.3527 0.3393 0.3434 0.3683 0.3578 0.2972 0.3692
2440.157 0.4222 0.3822 0.3567 0.3406 0.357 0.3325 0.3254 0.3203 0.3232 0.3705
2459.447 0.392 0.4132 0.4027 0.4058 0.4026 0.3285 0.3779 0.3769 0.3403 0.4054
2478.737 0.416 0.3835 0.3773 0.3402 0.3113 0.3607 0.3847 0.3638 0.3225 0.3571
2498.026 0.4256 0.388 0.3815 0.4256 0.4024 0.3906 0.4021 0.3984 0.369 0.344
2517.316 0.361 0.3773 0.3667 0.385 0.3773 0.3706 0.3014 0.271 0.2702 0.2022
2536.606 0.1987 0.252 0.2641 0.3064 0.362 0.4049 0.4256 0.3332 0.2864 0.3601
2555.896 0.3715 0.3548 0.3574 0.286 0.2224 0.2282 0.2718 0.2502 0.3105 0.4159
2575.186 0.4165 0.4464 0.449 0.4191 0.4127 0.423 0.5201 0.5643 0.5668 0.5545
2594.475 0.568 0.6318 0.6716 0.6695 0.5632 0.5285 0.5547 0.5568 0.5506 0.6101
2613.765 0.6197 0.5178 0.4238 0.4279 0.4527 0.3713 0.2699 0.2741 0.3809 0.3702
2633.055 0.3361 0.3292 0.224 0.1758 0.2393 0.3124 0.3445 0.3833 0.3663 0.2526
2652.345 0.2209 0.2875 0.3218 0.3517 0.3676 0.3139 0.2627 0.2793 0.3396 0.3515
2671.634 0.3909 0.3885 0.3142 0.3321 0.3515 0.3394 0.3091 0.3271 0.3329 0.2879
2690.924 0.3453 0.3407 0.2623 0.14423 0.1818 0.2807 0.3048 0.3213 0.2714 0.3203
2710.214 0.3478 0.2778 0.22 0.2825 0.365 0.3368 0.3629 0.3791 0.3742 0.3755
2729.504 0.3186 0.3159 0.3437 0.3483 0.4184 0.4329 0.3681 0.2885 0.2511 0.2903
2748.794 0.3224 0.3119 0.2701 0.268 0.2788 0.1887 0.1473 0.2465 0.3314 0.3529
2768.083 0.2585 0.228 0.2445 0.2686 0.2921 0.2841 0.3129 0.3367 0.4092 0.3714
2787.373 0.3054 0.3388 0.3109 0.2583 0.292 0.3383 0.3221 0.3771 0.3787 0.2782
2806.663 0.2553 0.261 0.2791 0.2969 0.3492 0.3493 0.2576 0.3089 0.3717 0.3838
2825.953 0.4085 0.3328 0.3505 0.3912 0.357 0.3761 0.3518 0.3286 0.3562 0.3203
2845.242 0.2882 0.3089 0.3015 0.2777 0.3286 0.3742 0.3654 0.452 0.4914 0.4138
2864.532 0.3076 0.3217 0.4468 0.4372 0.3715 0.3833 0.3454 0.3171 0.2553 0.2145
2883.822 0.393 0.4611 0.4078 0.4175 0.3618 0.4012 0.5529 0.5154 0.4237 0.5079
2903.112 0.5148 0.4031 0.3964 0.3277 0.341 0.4666 0.4848 0.446 0.441 0.4555
2922.401 0.3708 0.4022 0.5322 0.4506 0.197 0.10852 0.2211 0.3309 0.3978 0.3098
2941.691 0.24 0.2712 0.2479 0.2573 0.3178 0.2813 0.2448 0.2344 0.2376 0.2551
2960.981 0.2919 0.3696 0.3645 0.3552 0.4151 0.5165 0.5192 0.4394 0.5376 0.7251
2980.271 0.7592 0.8325 0.9404 0.9277 0.914 0.9411 1.0087 1.0771 1.0771 1.2171
2999.561 1.3171 1.2571 1.1571 1.1171 1.1471 1.1171 1.1571 1.1471 1.0971 1.0071
3018.850 0.87 0.8531 0.9323 0.8628 0.7781 0.8456 0.9432 0.9845 1.0871 1.2571
3038.140 1.3871 1.5171 1.6771 1.8771 2.0871 2.3871 2.5171 2.5171 2.6971 2.7471
3057.430 2.8371 3.0671 3.4271 3.8171 3.9871 4.1371 4.2471 4.2371 4.0771 3.9671
3076.720 3.9971 3.8771 3.5371 3.3071 3.2571 3.1371 2.9671 2.6671 2.3271 2.0271
3096.009 1.7171 1.4471 1.2171 1.0471 0.8363 0.7579 0.8322 0.7595 0.641 0.6968
3115.299 0.7268 0.7146 0.7492 0.7784 0.651 0.5128 0.4615 0.4546 0.5286 0.6007
3134.589 0.6857 0.5396 0.3654 0.4394 0.5255 0.5693 0.4635 0.3465 0.4543 0.5182
3153.879 0.3967 0.3337 0.4148 0.3424 0.322 0.3501 0.3471 0.5095 0.4528 0.2808
3173.169 0.3588 0.4126 0.3456 0.2871 0.317 0.3277 0.2648 0.298 0.296 0.2777
3192.458 0.2757 0.326 0.4374 0.4547 0.4433 0.4493 0.3019 0.1972 0.2439 0.2038
3211.748 0.1697 0.2624 0.3555 0.341 0.2242 0.235 0.34 0.312 0.261 0.3294
3231.038 0.348 0.3019 0.3545 0.3193 0.2116 0.1658 0.1543 0.2529 0.2998 0.2072
3250.328 0.2257 0.2277 0.2196 0.1545 0.1993 0.3434 0.3289 0.2233 0.178 0.13154
3269.617 0.1692 0.2551 0.1903 0.1958 0.22 0.3374 0.3728 0.4004 0.4511 0.2955
3288.907 0.1901 0.2132 0.2852 0.3183 0.2095 0.2373 0.2879 0.2614 0.2674 0.1888
3308.197 0.2132 0.1646 0.2191 0.3734 0.3577 0.2633 0.2989 0.3618 0.3894 0.4765
3327.487 0.398 0.197 0.1906 0.3382 0.3728 0.3692 0.3979 0.372 0.1952 0.14527
3346.777 0.2797 0.2401 0.2025 0.275 0.2754 0.2097 0.2331 0.2951 0.2364 0.2497
3366.066 0.3347 0.3288 0.2909 0.2491 0.258 0.3964 0.5197 0.43 0.2851 0.362
3385.356 0.3929 0.456 0.5071 0.6083 0.7754 0.7187 0.7974 0.8244 0.6828 0.6551
3404.646 0.7235 0.734 0.6442 0.598 0.7078 0.7266 0.6109 0.414 0.3485 0.4118
3423.936 0.3368 0.3161 0.3049 0.3003 0.2755 0.3541 0.425 0.4461 0.4709 0.2942
3443.225 0.1873 0.1962 0.2246 0.3282 0.4114 0.4001 0.3977 0.348 0.3776 0.3671
3462.515 0.243 0.2154 0.2806 0.2799 0.3328 0.4694 0.4216 0.3493 0.4524 0.5644
3481.805 0.4032 0.3629 0.4815 0.4342 0.3825 0.4623 0.4386 0.3764 0.4023 0.2125
3501.095 0.14378 0.2915 0.319 0.2925 0.2421 0.12807 0.0272 0.06009 0.1893 0.2559
3520.385 0.1578 0.13988 0.174 0.1774 0.3146 0.1679 0.03758 0.2457 0.2839 0.2338
3539.674 0.2099 0.1727 0.2062 0.11889 0.10454 0.2917 0.3291 0.251 0.2651 0.2602
3558.964 0.2442 0.2225 0.1852 0.2105 0.1146 0.04172 0.2137 0.2526 0.178 0.2251
3578.254 0.2064 0.2956 0.4034 0.2835 0.2134 0.2257 0.1804 0.1755 0.261 0.2919
3597.544 0.283 0.2627 0.3064 0.2861 0.1918 0.2199 0.1511 0.04465 0.05889 0.1868
3616.833 0.2047 0.1794 0.2706 0.2379 0.14455 0.139 0.1857 0.2466 0.2624 0.3152
3636.123 0.3317 0.2735 0.2684 0.2216 0.08106 0.05871 0.14706 0.2392 0.3398 0.2819
3655.413 0.2187 0.2087 0.2 0.2631 0.1898 0.1655 0.2581 0.2152 0.13121 0.2519
3674.703 0.3257 0.289 0.2314 0.1575 0.06156 0.07097 0.1748 0.09429 0.2253 0.2513
3693.993 0.2129 0.14513 0.055321 0.2766 0.3366 0.2083 0.275 0.4411 0.2502 0.1171
3713.282 0.1742 0.1729 0.2823 0.3926 0.3556 0.2475 0.2984 0.2825 0.2008 0.1356
3732.572 0.1973 0.3255 0.2502 0.221 0.2596 0.2295 0.2463 0.1807 0.1811 0.2714
3751.862 0.3031 0.4425 0.3784 0.3819 0.488 0.3751 0.3622 0.3606 0.2978 0.1817
3771.152 0.25 0.4194 0.3876 0.2604 0.1605 0.2272 0.1844 0.1206 0.13072 0.14485
3790.441 0.2108 0.2523 0.1746 0.1666 0.4032 0.5741 0.4001 0.1939 0.2855 0.4027
3809.731 0.316 0.2447 0.308 0.2763 0.1598 0.2585 0.4753 0.3456 0.13381 0.1834
3829.021 0.3739 0.4059 0.2976 0.3003 0.4408 0.5217 0.3425 0.3445 0.3983 0.3705
3848.311 0.2526 0.14674 0.1755 0.2519 0.3194 0.2264 0.1753 0.1704 0.228 0.2076
3867.601 0.1976 0.2369 0.1441 0.07077 0.13846 0.295 0.2463 0.06404 0.1873 0.3516
3886.890 0.1816 0.2436 0.4627 0.349 0.2092 0.1809 0.2674 0.3302 0.3925 0.4571
3906.180 0.3459 0.1752 0.202 0.3687 0.322 0.1697 0.14549 0.2029 0.2534 0.2981
3925.470 0.2829 0.3055 0.3361 0.2419 0.2798 0.3769 0.3517 0.3493 0.3743 0.404
3944.760 0.3575 0.4008 0.5435 0.4897 0.1881 0 0.054606 0.09099 0.1612 0.06804
3964.049 0.05629 0.1617 0.1788 0.2378 0.1655 0.09866 0.10743 0.1486 0.1958 0.2707
3983.339 0.2846 0.1976 0.1664 0.13839 0.1675 0.2043 0.2251 0.1755 0.2978 0.4483
##END=
