##TITLE=Diphenylphosphonic azide
##JCAMP-DX=4.24
##DATA TYPE=INFRARED SPECTRUM
##ORIGIN=EPA-IR VAPOR PHASE LIBRARY
##OWNER=SRD/NIST
Collection (C) 2018 copyright by the U.S. Secretary of Commerce
on behalf of the United States of America. All rights reserved.
##CAS REGISTRY NO=26386-88-9
##MOLFORM=C 12 H 10 N 3 O 3 P
##$NIST SOURCE=MSDC-IR
##STATE=gas
##XUNITS=1/CM
##YUNITS=ABSORBANCE
##XFACTOR=1.
##YFACTOR=0.001
##DELTAX=1.929
##FIRSTX=549.8
##LASTX=4000.8
##FIRSTY=11.81
##MAXX=4000.75
##MINX=549.766
##MAXY=0.2732
##MINY=0
##NPOINTS=1790
##XYDATA=(X++(Y..Y))
549.766 11.81 12.51 13.4 14.46 15.35 16.04 16.76 17.46 17.78 17.97
569.056 18.04 18.2 18.55 18.92 19.25 19.4 19.42 19.6 19.92 20.3
588.346 21.19 22.43 23.84 25.5 27.4 29.39 31.38 33.35 34.93 36.33
607.636 37.62 38.76 39.57 40.04 39.86 38.73 36.9 34.38 31.24 27.79
626.926 24.54 21.33 18.37 16 14.21 12.72 11.47 10.5 9.73 9.15
646.216 8.7 8.46 8.42 8.38 8.35 8.42 8.65 8.91 9.29 9.87
665.506 10.45 10.97 11.65 12.67 13.9 15.28 17.07 19.27 21.67 24.18
684.796 26.27 27.34 27.18 25.7 23.56 21.29 18.95 16.9 15.26 13.91
704.086 12.74 11.71 11.2 10.91 10.55 10.46 10.47 10.59 10.93 11.19
723.376 11.61 12.23 12.91 13.92 15.16 16.59 18.25 20.03 22.13 24.46
742.666 26.76 29.28 31.99 34.73 37.34 39.66 42.1 44.93 47.99 51.34
761.956 55.32 59.95 64.89 70.09 75.39 80.32 84.83 88.62 91.35 92.82
781.246 92.64 90.52 86.29 80.15 72.43 63.75 54.68 45.88 38.03 31.45
800.536 26.11 21.94 18.8 16.4 14.94 13.96 13.21 12.75 12.17 11.45
819.826 10.6 9.77 8.96 8.12 7.48 7.04 6.67 6.35 6.11 6.07
839.116 6.06 5.95 5.92 5.96 6 6.05 6.03 6.02 6.22 6.4
858.406 6.56 6.71 6.86 7.17 7.48 7.75 8.02 8.34 8.68 9.03
877.696 9.46 9.94 10.5 11.05 11.63 12.43 13.31 14.26 15.36 16.73
896.986 18.26 19.68 20.9 21.92 22.78 23.59 24.4 25.37 26.9 29.1
916.276 31.83 35.32 39.93 45.63 52.83 61.76 72.45 84.82 98.23 111.92
935.566 124.98 136.62 146.56 155.08 163.08 171.82 182.3 194.99 209.56 224.89
954.856 239.61 251.5 258.23 258.32 250.83 236.28 216.37 193.51 170.25 148.54
974.146 129.64 113.99 101.18 90.46 81.14 72.59 64.64 57.29 50.67 45.13
993.436 40.66 37.3 35.24 34.83 36.85 42.11 49.29 54.52 55.94 54.12
1012.726 49.76 42.93 36.95 36.89 42.31 48.5 51.76 51.57 48.34 41.57
1032.016 32.44 24.24 18.53 15.01 12.86 11.45 10.52 9.83 9.35 9.01
1051.306 8.85 8.84 8.87 9.03 9.31 9.55 9.88 10.2 10.36 10.41
1070.596 10.19 9.74 9.2 8.59 7.97 7.36 6.93 6.63 6.33 6.05
1089.886 5.88 5.86 5.87 5.91 5.98 6.07 6.21 6.37 6.5 6.67
1109.176 6.92 7.13 7.28 7.48 7.75 8.04 8.34 8.63 8.92 9.27
1128.467 9.71 10.2 10.79 11.57 12.49 13.6 15 16.78 19.02 21.75
1147.757 25.34 30.29 37.01 46.05 58.12 73.37 89.83 103.66 111.97 114.17
1167.047 110.81 103.21 95 90.88 93.77 104.88 124.34 151.85 185.58 220.79
1186.337 250.72 269.24 273.2 262.29 239.64 212.13 187.73 171.06 162.67 160.78
1205.627 162.17 163.67 163.11 158.91 150.47 138.59 124.67 110.73 98.5 88.98
1224.917 82 76.79 72.52 68.36 63.75 58.55 53.41 48.64 44.56 41.51
1244.207 39.41 38.18 37.7 37.91 38.76 40.13 42.17 45.08 48.89 53.9
1263.497 60.02 67.06 74.61 81.71 87.15 89.74 89.01 85.02 78.31 69.96
1282.787 61.25 53.28 46.87 42.05 38.73 36.89 36.24 36.58 37.89 39.98
1302.077 42.76 46.09 49.73 53.57 57.31 60.74 63.62 65.83 67.53 68.77
1321.367 69.43 69.29 68.14 65.94 62.76 58.88 54.54 49.97 45.38 40.86
1340.657 36.48 32.36 28.52 25.13 22.14 19.54 17.37 15.55 14.03 12.79
1359.947 11.78 10.93 10.23 9.67 9.11 8.67 8.35 8.11 7.87 7.7
1379.237 7.58 7.45 7.34 7.21 7.15 7.14 7.08 6.99 6.98 6.96
1398.527 6.87 6.78 6.74 6.72 6.71 6.66 6.6 6.56 6.48 6.41
1417.817 6.36 6.22 6.08 6 5.93 5.94 6.02 6.11 6.25 6.46
1437.107 6.75 7.01 7.26 7.59 8.02 8.48 9.05 9.66 10.33 11.03
1456.397 11.81 12.64 13.51 14.58 15.84 17.36 19.12 21.31 24.18 27.91
1475.687 32.8 39.69 49.38 63.14 81.21 102.38 123.09 137.58 142.12 136.46
1494.977 121.61 99.85 77.05 57.71 43.73 34.26 27.39 22.64 19.39 16.88
1514.267 14.94 13.39 12.16 11.16 10.27 9.59 9.06 8.59 8.22 7.93
1533.557 7.68 7.49 7.33 7.17 7.13 7.2 7.28 7.4 7.63 7.94
1552.847 8.28 8.69 9.12 9.72 10.56 11.45 12.49 13.83 15.58 17.8
1572.137 20.45 23.47 27.22 31.52 35.91 40.6 45.32 49.96 54.18 57.51
1591.427 59.28 58.9 56.13 51.12 44.46 37.12 30.13 24.18 19.51 15.97
1610.717 13.32 11.32 9.75 8.41 7.44 6.67 6.02 5.51 5.07 4.7
1630.007 4.41 4.18 3.99 3.87 3.76 3.68 3.67 3.62 3.55 3.47
1649.297 3.43 3.38 3.31 3.35 3.34 3.33 3.28 3.23 3.21 3.16
1668.587 3.15 3.13 3.11 3.14 3.21 3.26 3.27 3.24 3.26 3.36
1687.877 3.48 3.54 3.59 3.63 3.68 3.8 3.9 4.02 4.08 4.15
1707.167 4.27 4.37 4.43 4.51 4.63 4.68 4.68 4.69 4.71 4.64
1726.457 4.55 4.44 4.32 4.18 3.97 3.86 3.72 3.57 3.52 3.5
1745.747 3.46 3.41 3.35 3.29 3.28 3.34 3.4 3.47 3.6 3.79
1765.037 3.99 4.19 4.42 4.59 4.73 4.8 4.75 4.59 4.31 4.02
1784.327 3.76 3.49 3.25 3.09 2.97 2.87 2.8 2.7253 2.6622 2.6233
1803.617 2.5071 2.3948 2.371 2.3093 2.2418 2.1754 2.1299 2.1162 2.0959 2.1147
1822.907 2.1337 2.156 2.1821 2.2184 2.2848 2.3221 2.3548 2.423 2.5243 2.6632
1842.197 2.7459 2.84 2.97 3.07 3.22 3.39 3.53 3.63 3.71 3.79
1861.487 3.85 3.93 3.99 3.98 4.03 4.05 4.06 4.14 4.09 4.02
1880.777 3.94 3.82 3.78 3.77 3.74 3.72 3.75 3.78 3.8 3.82
1900.067 3.89 4 4.06 4.22 4.39 4.47 4.63 4.81 4.94 5.05
1919.357 5.23 5.38 5.48 5.67 5.83 5.95 6.08 6.13 6.17 6.17
1938.647 6.08 5.93 5.85 5.8 5.72 5.68 5.67 5.6 5.47 5.34
1957.937 5.17 4.96 4.76 4.58 4.44 4.36 4.3 4.24 4.13 4.05
1977.227 3.98 3.89 3.85 3.77 3.64 3.54 3.48 3.38 3.3 3.24
1996.517 3.18 3.12 3.07 3 2.91 2.85 2.84 2.81 2.79 2.79
2015.807 2.77 2.76 2.7362 2.8 2.89 2.94 2.96 3.01 3.06 3.07
2035.097 3.15 3.2 3.19 3.22 3.26 3.34 3.44 3.46 3.52 3.6
2054.387 3.62 3.66 3.71 3.71 3.74 3.78 3.76 3.77 3.79 3.8
2073.677 3.83 3.84 3.84 3.87 3.98 4.08 4.16 4.27 4.44 4.67
2092.967 4.89 5.09 5.32 5.61 5.94 6.33 6.75 7.25 7.88 8.56
2112.257 9.32 10.27 11.36 12.57 13.96 15.56 17.35 19.38 21.73 24.36
2131.547 27.3 30.63 34.44 38.78 43.69 49.32 55.75 63.26 72.03 82.21
2150.837 94.29 108.6 125.32 144.64 166.28 189.31 212.13 232.29 246.97 253.5
2170.127 250.18 236.86 214.83 186.8 156.32 126.87 101.23 80.86 65.8 54.98
2189.417 46.98 40.74 35.4 30.64 26.38 22.72 19.62 16.99 14.87 13.17
2208.707 11.83 10.68 9.7 8.89 8.15 7.52 7.03 6.57 6.14 5.81
2227.997 5.49 5.18 4.94 4.77 4.62 4.48 4.34 4.18 4.05 3.98
2247.287 3.89 3.82 3.81 3.72 3.61 3.57 3.56 3.48 3.44 3.41
2266.577 3.34 3.24 3.23 3.21 3.17 3.13 3.09 3.07 3.02 3.02
2285.868 3 2.97 2.98 2.99 3 2.95 2.94 2.98 2.97 2.94
2305.158 2.92 2.95 3.01 3 2.94 2.93 2.92 2.87 2.77 2.7203
2324.448 2.7135 2.6664 2.6375 2.5786 2.5298 2.5082 2.491 2.5201 2.5291 2.5135
2343.738 2.5485 2.5662 2.57 2.565 2.5285 2.4928 2.5334 2.5921 2.5527 2.5238
2363.028 2.556 2.5864 2.5959 2.5744 2.6085 2.6775 2.6777 2.6563 2.7072 2.79
2382.318 2.81 2.7548 2.76 2.78 2.77 2.8 2.82 2.84 2.83 2.78
2401.608 2.6969 2.6331 2.5676 2.4929 2.4938 2.4675 2.4722 2.4937 2.4086 2.3512
2420.898 2.36 2.3865 2.3876 2.4245 2.4879 2.447 2.4517 2.4773 2.4881 2.5153
2440.188 2.4938 2.4711 2.4624 2.485 2.4928 2.4829 2.5081 2.5608 2.6051 2.6087
2459.478 2.6536 2.7225 2.78 2.85 2.85 2.88 2.98 3.07 3.14 3.18
2478.768 3.22 3.26 3.24 3.17 3.12 3.06 3.05 3.07 2.98 2.94
2498.058 2.92 2.86 2.85 2.85 2.94 3.01 3 3.05 3.09 3.1
2517.348 3.14 3.18 3.29 3.35 3.3 3.31 3.38 3.41 3.39 3.36
2536.638 3.34 3.29 3.16 3.06 2.98 2.88 2.8 2.6615 2.5576 2.4812
2555.928 2.3881 2.3439 2.3061 2.1856 2.0828 2.0721 2.0088 1.9632 1.9906 1.968
2575.218 1.9033 1.83217 1.78574 1.75711 1.6981 1.657 1.596 1.529 1.504 1.546
2594.508 1.542 1.469 1.429 1.417 1.437 1.469 1.478 1.49 1.503 1.563
2613.798 1.595 1.502 1.447 1.408 1.417 1.41 1.304 1.3 1.337 1.352
2633.088 1.289 1.207 1.249 1.209 1.149 1.185 1.18 1.144 1.153 1.172
2652.378 1.171 1.125 1.125 1.172 1.132 1.123 1.111 1.09 1.086 1.037
2671.668 1.023 1.043 1.024 1.029 1.017 0.983 0.986 1.01 1.014 0.942
2690.958 0.986 0.98 0.895 0.923 0.934 0.944 0.942 0.965 0.963 0.945
2710.248 0.961 1.019 0.964 0.906 0.951 0.933 0.911 0.885 0.919 0.903
2729.538 0.903 0.939 0.971 0.918 0.856 0.857 0.831 0.846 0.799 0.75
2748.828 0.71 0.73 0.803 0.781 0.778 0.788 0.74 0.74 0.75 0.74
2768.118 0.74 0.71 0.72 0.798 0.833 0.79 0.74 0.74 0.764 0.72
2787.408 0.71 0.71 0.72 0.74 0.75 0.75 0.67 0.61 0.6 0.61
2806.698 0.65 0.63 0.55 0.64 0.67 0.6 0.62 0.61 0.55 0.5
2825.988 0.51 0.55 0.59 0.63 0.64 0.62 0.59 0.61 0.53 0.48
2845.278 0.53 0.54 0.55 0.58 0.62 0.66 0.66 0.61 0.63 0.72
2864.568 0.73 0.71 0.808 0.923 0.907 0.822 0.809 0.846 0.944 0.998
2883.858 0.978 0.933 0.911 0.94 0.895 0.875 0.954 0.987 1.03 1.053
2903.148 1.036 1.109 1.153 1.179 1.228 1.176 1.103 1.047 1.043 1.089
2922.438 1.048 1.032 1.145 1.158 1.12 1.195 1.297 1.314 1.287 1.296
2941.728 1.308 1.376 1.463 1.477 1.541 1.531 1.39 1.311 1.253 1.295
2961.018 1.325 1.185 1.087 1.08 1.014 0.88 0.75 0.7 0.72 0.66
2980.308 0.64 0.7 0.71 0.66 0.61 0.64 0.64 0.6 0.68 0.73
2999.598 0.72 0.771 0.915 1.008 1.108 1.275 1.487 1.623 1.7694 2.0157
3018.888 2.3314 2.5983 2.79 3.2 3.6 3.95 4.44 5.1 5.77 6.4
3038.178 7.14 8 8.99 9.9 10.67 11.42 11.92 12 11.91 11.65
3057.468 11.33 11.11 11.15 11.46 11.84 12.38 13.13 14.13 15.4 16.95
3076.758 18.61 20.06 20.81 20.6 19.46 17.56 15.25 12.79 10.66 9.18
3096.048 8.26 7.85 7.55 7.05 6.53 5.92 5.22 4.64 4.1 3.47
3115.338 3 2.6151 2.1839 1.81043 1.582 1.416 1.159 0.977 0.928 0.845
3134.628 0.782 0.71 0.65 0.72 0.63 0.44 0.41 0.43 0.45 0.4
3153.918 0.38 0.42 0.38 0.37 0.36 0.36 0.33 0.33 0.41 0.39
3173.208 0.41 0.46 0.46 0.39 0.36 0.38 0.32 0.24 0.27 0.3
3192.498 0.38 0.34 0.36 0.41 0.35 0.38 0.29 0.27 0.27 0.15
3211.788 0.1 0.1 0.03 0 0.13 0.25 0.21 0.24 0.28 0.3
3231.078 0.31 0.2 0.16 0.19 0.18 0.12 0.23 0.25 0.18 0.22
3250.368 0.18 0.31 0.39 0.28 0.25 0.23 0.21 0.23 0.25 0.29
3269.658 0.27 0.26 0.24 0.24 0.21 0.16 0.3 0.35 0.31 0.33
3288.948 0.35 0.34 0.29 0.3 0.34 0.35 0.36 0.37 0.41 0.49
3308.238 0.43 0.39 0.49 0.51 0.47 0.37 0.4 0.46 0.48 0.63
3327.528 0.64 0.56 0.56 0.65 0.74 0.75 0.74 0.7 0.73 0.64
3346.818 0.64 0.811 0.85 0.898 0.884 0.852 0.894 0.929 1.016 1.099
3366.108 1.104 1.169 1.207 1.144 1.269 1.44 1.44 1.43 1.409 1.331
3385.398 1.395 1.472 1.438 1.458 1.522 1.506 1.491 1.562 1.555 1.694
3404.688 1.84662 1.9456 2.067 2.1751 2.3097 2.453 2.5973 2.6225 2.6699 2.5935
3423.978 2.5517 2.6873 2.7327 2.6591 2.5442 2.367 2.2538 2.1461 1.8914 1.762
3443.269 1.6689 1.527 1.404 1.277 1.18 1.102 1.054 0.994 0.87 0.805
3462.559 0.824 0.805 0.769 0.778 0.863 0.87 0.885 0.924 0.823 0.806
3481.849 0.783 0.69 0.76 0.8 0.785 0.66 0.53 0.53 0.59 0.7
3501.139 0.75 0.801 0.7 0.56 0.52 0.52 0.49 0.52 0.61 0.55
3520.429 0.46 0.49 0.57 0.58 0.47 0.51 0.61 0.52 0.5 0.52
3539.719 0.46 0.38 0.47 0.63 0.59 0.55 0.63 0.65 0.58 0.51
3559.009 0.57 0.62 0.58 0.65 0.62 0.46 0.5 0.55 0.62 0.62
3578.299 0.55 0.55 0.55 0.58 0.52 0.49 0.47 0.53 0.61 0.58
3597.589 0.62 0.66 0.52 0.44 0.58 0.58 0.49 0.41 0.33 0.41
3616.879 0.43 0.44 0.48 0.53 0.55 0.47 0.43 0.52 0.55 0.57
3636.169 0.65 0.69 0.59 0.53 0.68 0.75 0.67 0.68 0.72 0.7
3655.459 0.69 0.66 0.69 0.6 0.61 0.61 0.59 0.68 0.59 0.62
3674.749 0.57 0.51 0.62 0.65 0.59 0.58 0.61 0.64 0.7 0.68
3694.039 0.69 0.75 0.69 0.61 0.61 0.58 0.59 0.63 0.69 0.63
3713.329 0.5 0.57 0.67 0.7 0.66 0.64 0.64 0.65 0.62 0.55
3732.619 0.47 0.51 0.58 0.53 0.45 0.49 0.5 0.37 0.4 0.39
3751.909 0.35 0.45 0.51 0.46 0.38 0.44 0.54 0.51 0.47 0.56
3771.199 0.59 0.51 0.54 0.56 0.59 0.62 0.6 0.59 0.61 0.5
3790.489 0.43 0.45 0.46 0.49 0.47 0.43 0.49 0.6 0.59 0.66
3809.779 0.7 0.62 0.55 0.46 0.39 0.44 0.41 0.33 0.44 0.5
3829.069 0.43 0.46 0.52 0.41 0.38 0.44 0.45 0.52 0.48 0.44
3848.359 0.48 0.44 0.36 0.38 0.41 0.44 0.47 0.4 0.38 0.37
3867.649 0.41 0.4 0.21 0.24 0.36 0.47 0.52 0.53 0.61 0.57
3886.939 0.48 0.46 0.48 0.36 0.36 0.45 0.38 0.44 0.47 0.53
3906.229 0.61 0.53 0.42 0.37 0.32 0.22 0.23 0.43 0.51 0.38
3925.519 0.42 0.57 0.48 0.38 0.47 0.36 0.26 0.38 0.51 0.57
3944.809 0.6 0.55 0.49 0.48 0.42 0.48 0.54 0.44 0.33 0.37
3964.099 0.36 0.35 0.48 0.49 0.48 0.61 0.72 0.61 0.59 0.59
3983.389 0.5 0.49 0.53 0.56 0.55 0.51 0.49 0.57 0.6 0.62
##END=
