##TITLE=N-(2-Chloroethyl)benzamide
##JCAMP-DX=4.24
##DATA TYPE=INFRARED SPECTRUM
##ORIGIN=EPA-IR VAPOR PHASE LIBRARY
##OWNER=SRD/NIST
Collection (C) 2018 copyright by the U.S. Secretary of Commerce
on behalf of the United States of America. All rights reserved.
##CAS REGISTRY NO=26385-07-9
##MOLFORM=C 9 H 10 Cl N O
##$NIST SOURCE=MSDC-IR
##STATE=gas
##XUNITS=1/CM
##YUNITS=ABSORBANCE
##XFACTOR=1.
##YFACTOR=0.001
##DELTAX=1.92934
##FIRSTX=549.9
##LASTX=3999.5
##FIRSTY=0.243
##MAXX=3999.53
##MINX=549.863
##MAXY=0.00751
##MINY=0
##NPOINTS=1789
##XYDATA=(X++(Y..Y))
549.863 0.243 0.153 0.073 0.132 0.334 0.304 0.26 0.223 0.067 0.086
569.156 0.185 0.309 0.349 0.329 0.341 0.392 0.513 0.462 0.404 0.407
588.450 0.363 0.393 0.367 0.375 0.38 0.356 0.402 0.422 0.37 0.362
607.743 0.436 0.48 0.452 0.385 0.485 0.535 0.482 0.505 0.529 0.577
627.037 0.538 0.42 0.403 0.441 0.441 0.493 0.548 0.588 0.631 0.605
646.330 0.609 0.629 0.679 0.7787 0.7668 0.7877 0.90806 1.0194 1.1347 1.2837
665.624 1.476 1.7406 2.02 2.29 2.75 3.32 3.77 4.19 4.4 4.47
684.917 4.61 4.78 5.04 5.51 5.41 4.6 4.13 3.89 3.62 3.39
704.210 3.05 2.65 2.33 2.01 1.6884 1.433 1.3128 1.1875 1.0763 1.0207
723.504 0.9415 0.9616 0.9393 0.87116 0.84517 0.7741 0.7407 0.7875 0.84099 0.83891
742.797 0.83453 0.811343 0.8509 0.9233 0.9747 1.0001 1.0586 1.1799 1.2932 1.3616
762.091 1.3983 1.4995 1.5798 1.6798 1.7793 1.8087 1.7853 1.7652 1.6911 1.5896
781.384 1.476 1.3315 1.2407 1.213 1.1076 0.9649 0.9455 0.92 0.90084 0.89485
800.678 0.80499 0.7418 0.7481 0.7163 0.654 0.66 0.627 0.689 0.7568 0.661
819.971 0.663 0.7296 0.685 0.62 0.631 0.631 0.703 0.7799 0.7717 0.683
839.264 0.626 0.68 0.716 0.7129 0.7164 0.685 0.651 0.686 0.7263 0.7396
858.558 0.7802 0.83093 0.87051 0.89073 0.9723 1.0017 0.992 1.0822 1.1426 1.1755
877.851 1.1493 1.1944 1.3345 1.3919 1.4 1.4195 1.3681 1.3158 1.3112 1.333
897.145 1.4056 1.4205 1.3721 1.2914 1.1665 1.116 1.14 1.168 1.1667 1.1483
916.438 1.1168 1.1392 1.1947 1.2313 1.3105 1.3888 1.5177 1.7584 2.01 2.31
935.732 2.67 2.99 3.28 3.46 3.5 3.46 3.38 3.25 3.07 2.79
955.025 2.44 2.17 2.05 2.12 2.31 2.57 2.87 3.11 3.25 3.31
974.318 3.24 3.13 2.99 2.77 2.48 2.04 1.6183 1.3732 1.2619 1.2307
993.612 1.2561 1.2904 1.2719 1.2824 1.3061 1.3041 1.3765 1.5344 1.6704 1.7827
1012.905 1.98 2.33 2.78 3.14 3.4 3.64 3.86 4 4 3.87
1032.199 3.63 3.3 3.03 2.82 2.67 2.62 2.67 2.93 3.33 3.82
1051.492 4.4 4.92 5.38 5.74 6.03 6.37 6.72 7.05 7.21 6.99
1070.786 6.6 6.16 5.74 5.36 4.94 4.38 3.78 3.24 2.74 2.36
1090.079 2.07 1.94 1.91 1.8027 1.638 1.5539 1.5291 1.5571 1.5509 1.5159
1109.372 1.5091 1.4754 1.4399 1.4263 1.4498 1.4539 1.434 1.4897 1.5848 1.5542
1128.666 1.4933 1.4733 1.4927 1.5976 1.5693 1.5186 1.5256 1.4643 1.5207 1.6537
1147.959 1.6047 1.4675 1.4414 1.4861 1.466 1.4778 1.5005 1.4901 1.5675 1.6852
1167.253 1.8032 1.94 2.15 2.18 2.18 2.27 2.2 2.28 2.4 2.22
1186.546 2.12 2.08 1.97 1.98 1.96 1.94 1.95 1.88 1.99 1.98
1205.840 1.85 1.7395 1.7243 1.97 2.03 2.1 2.21 2.1 2.01 2.01
1225.133 2.2 2.22 2.01 2.05 2.18 2.31 2.41 2.48 2.61 2.77
1244.426 3.01 3.21 3.31 3.35 3.45 3.42 3.22 3.08 2.96 2.93
1263.720 2.89 2.59 2.33 2.13 1.83 1.5768 1.4062 1.2722 1.0875 1.0344
1283.013 1.0713 1.095 1.1591 1.1565 1.0557 1.0073 1.0765 1.1589 1.1786 1.2419
1302.307 1.3276 1.407 1.518 1.59 1.7335 1.9 2 2.17 2.38 2.56
1321.600 2.78 2.98 3.19 3.4 3.6 3.81 4.02 4.25 4.48 4.66
1340.894 4.85 5.02 5.14 5.21 5.25 5.29 5.25 5.1 4.91 4.67
1360.187 4.35 3.99 3.67 3.3 2.92 2.58 2.25 1.96 1.7679 1.6285
1379.480 1.5144 1.4285 1.3697 1.3427 1.3213 1.274 1.2519 1.2413 1.2126 1.1856
1398.774 1.1857 1.18 1.1989 1.198 1.1635 1.191 1.1811 1.1695 1.1899 1.1631
1418.067 1.1488 1.1757 1.2015 1.1904 1.1902 1.2382 1.2309 1.2571 1.3541 1.3857
1437.361 1.4444 1.5411 1.6249 1.7608 1.88 1.94 1.98 1.97 1.94 1.94
1456.654 1.92 1.84 1.7021 1.5935 1.4969 1.4227 1.3628 1.3297 1.3344 1.3883
1475.948 1.4426 1.4821 1.559 1.5818 1.6217 1.7382 1.86 1.94 2.01 2.03
1495.241 2 1.95 1.9 1.88 1.86 1.7777 1.6805 1.561 1.4717 1.3993
1514.534 1.3193 1.3151 1.2877 1.2441 1.2126 1.1805 1.1793 1.1969 1.2181 1.2082
1533.828 1.1856 1.1935 1.1962 1.2082 1.2396 1.2397 1.2065 1.1987 1.2382 1.2201
1553.121 1.2331 1.285 1.3032 1.335 1.3289 1.3339 1.3766 1.426 1.4963 1.5403
1572.415 1.5929 1.6989 1.7644 1.7525 1.7877 1.81 1.801 1.82 1.7513 1.6839
1591.708 1.6915 1.6593 1.6409 1.6514 1.6784 1.6846 1.6684 1.6643 1.6746 1.6677
1611.002 1.6524 1.6486 1.6442 1.6334 1.6287 1.6406 1.6953 1.7784 1.83 1.91
1630.295 2.06 2.31 2.62 2.98 3.44 3.92 4.49 5.13 5.75 6.38
1649.588 6.89 7.22 7.47 7.51 7.39 7.17 6.84 6.38 5.72 4.97
1668.882 4.32 3.77 3.3 2.95 2.67 2.44 2.25 2.1 1.96 1.83
1688.175 1.7397 1.7194 1.6863 1.6527 1.6151 1.5703 1.6104 1.5836 1.4763 1.4042
1707.469 1.3537 1.3177 1.239 1.2039 1.194 1.1398 1.0997 1.0593 1.0386 1.0205
1726.762 1.0413 1.0594 1.0083 1.0005 0.9858 0.969 1.0273 1.028 1.0032 0.974
1746.056 0.9638 1.0196 1.0078 0.9962 1.0193 0.9972 0.9897 1.008 1.0352 1.0386
1765.349 1.0379 1.0414 1.0419 1.0252 1.008 1.0249 1.0096 0.9937 0.9949 1.0044
1784.642 0.9979 0.9854 0.9713 0.9748 1.0042 1.0031 1.0235 1.0409 1.0782 1.1294
1803.936 1.1291 1.1093 1.0911 1.1085 1.0993 1.0937 1.0746 1.0053 0.9974 0.989
1823.229 0.9747 1.0058 0.9982 0.9681 0.9648 0.9684 0.9568 0.9677 0.9812 0.9335
1842.523 0.9535 0.9943 0.9441 0.9247 0.915 0.9286 0.9632 0.9475 0.9167 0.9154
1861.816 0.9194 0.9292 0.9548 0.9463 0.9192 0.9228 0.9753 0.9844 0.9589 0.9657
1881.110 0.9476 0.949 1.0208 1.0324 1.0175 1.0388 0.9993 0.9793 1.0388 1.0577
1900.403 1.0334 1.046 1.0509 1.0695 1.0717 1.0649 1.0789 1.0756 1.0548 1.0155
1919.696 1.0053 1.0077 1.004 0.9749 0.9791 0.9812 0.975 0.9795 1.0043 1.0606
1938.990 1.0428 1.019 1.0619 1.0719 1.0843 1.1193 1.1168 1.0827 1.0659 1.099
1958.283 1.1287 1.1496 1.1255 1.0624 1.0508 1.0487 1.0203 0.9789 0.9589 0.9776
1977.577 0.9623 0.9416 0.9491 0.9347 0.90025 0.90742 0.9391 0.9307 0.9523 0.9723
1996.870 0.9418 0.9294 0.9309 0.9157 0.88621 0.88274 0.89584 0.90451 0.926 0.9117
2016.164 0.87209 0.88132 0.86476 0.85961 0.89791 0.90803 0.88003 0.85705 0.85352 0.83979
2035.457 0.82875 0.84545 0.88681 0.88884 0.86855 0.84674 0.814479 0.80234 0.810322 0.81499
2054.750 0.812408 0.7801 0.7614 0.7594 0.7565 0.811243 0.82359 0.7946 0.7869 0.7848
2074.044 0.82194 0.815168 0.7675 0.7937 0.7874 0.7454 0.7683 0.7894 0.7823 0.7909
2093.337 0.817226 0.80675 0.7635 0.7506 0.7798 0.7807 0.7759 0.7658 0.7344 0.7344
2112.631 0.7548 0.7369 0.7272 0.7752 0.7767 0.7726 0.7929 0.798 0.7833 0.7738
2131.924 0.778 0.7517 0.75 0.7366 0.7543 0.7759 0.7694 0.7788 0.774 0.7816
2151.218 0.7931 0.7895 0.7763 0.7846 0.791 0.7698 0.7447 0.7431 0.7477 0.7246
2170.511 0.708 0.7448 0.7437 0.7422 0.7394 0.7133 0.7424 0.7231 0.714 0.7505
2189.804 0.7349 0.7221 0.7131 0.7259 0.7401 0.7295 0.7259 0.7279 0.7279 0.7221
2209.098 0.7178 0.7178 0.7168 0.703 0.696 0.707 0.7108 0.7 0.706 0.689
2228.391 0.685 0.704 0.7173 0.7319 0.7214 0.704 0.706 0.691 0.703 0.694
2247.685 0.688 0.7347 0.749 0.7103 0.695 0.7291 0.7138 0.69 0.692 0.688
2266.978 0.694 0.7164 0.7304 0.7575 0.7666 0.7274 0.698 0.687 0.709 0.709
2286.272 0.7122 0.7325 0.709 0.695 0.681 0.698 0.7313 0.7259 0.7192 0.7167
2305.565 0.702 0.702 0.703 0.7116 0.7403 0.7284 0.7457 0.7756 0.7624 0.7588
2324.858 0.7197 0.704 0.7382 0.75 0.705 0.679 0.677 0.667 0.674 0.664
2344.152 0.671 0.65 0.614 0.655 0.65 0.623 0.632 0.637 0.68 0.674
2363.445 0.628 0.637 0.669 0.696 0.689 0.639 0.642 0.632 0.61 0.677
2382.739 0.676 0.652 0.661 0.666 0.667 0.686 0.693 0.659 0.642 0.632
2402.032 0.634 0.618 0.613 0.618 0.632 0.647 0.651 0.629 0.599 0.589
2421.326 0.59 0.584 0.565 0.58 0.582 0.58 0.608 0.608 0.597 0.613
2440.619 0.606 0.573 0.57 0.583 0.598 0.617 0.607 0.596 0.599 0.593
2459.912 0.613 0.598 0.559 0.598 0.596 0.563 0.598 0.59 0.569 0.567
2479.206 0.549 0.546 0.583 0.585 0.554 0.568 0.624 0.648 0.611 0.6
2498.499 0.585 0.557 0.542 0.535 0.557 0.577 0.531 0.53 0.557 0.51
2517.793 0.506 0.515 0.494 0.504 0.564 0.591 0.549 0.542 0.556 0.526
2537.086 0.491 0.485 0.516 0.554 0.59 0.581 0.53 0.497 0.506 0.509
2556.380 0.496 0.539 0.554 0.493 0.5 0.546 0.524 0.502 0.522 0.526
2575.673 0.494 0.494 0.492 0.506 0.529 0.503 0.473 0.471 0.497 0.496
2594.966 0.495 0.521 0.517 0.514 0.515 0.514 0.482 0.464 0.47 0.475
2614.260 0.499 0.493 0.473 0.488 0.485 0.446 0.456 0.472 0.438 0.424
2633.553 0.47 0.491 0.478 0.464 0.483 0.466 0.433 0.431 0.436 0.457
2652.847 0.421 0.414 0.469 0.498 0.472 0.459 0.496 0.457 0.421 0.437
2672.140 0.415 0.414 0.409 0.396 0.407 0.424 0.391 0.361 0.38 0.38
2691.434 0.356 0.351 0.38 0.402 0.388 0.328 0.303 0.311 0.378 0.403
2710.727 0.409 0.437 0.393 0.395 0.35 0.289 0.298 0.315 0.314 0.282
2730.020 0.307 0.346 0.336 0.34 0.331 0.337 0.308 0.305 0.347 0.379
2749.314 0.396 0.332 0.31 0.31 0.284 0.288 0.333 0.373 0.372 0.344
2768.607 0.293 0.285 0.296 0.283 0.28 0.297 0.326 0.307 0.242 0.244
2787.901 0.267 0.335 0.393 0.392 0.375 0.337 0.372 0.404 0.401 0.381
2807.194 0.363 0.362 0.362 0.373 0.308 0.289 0.34 0.346 0.379 0.389
2826.488 0.373 0.335 0.261 0.297 0.405 0.403 0.371 0.398 0.437 0.406
2845.781 0.347 0.384 0.454 0.481 0.438 0.424 0.435 0.466 0.502 0.53
2865.074 0.614 0.7482 0.7716 0.693 0.81264 0.9797 1.0982 1.3095 1.551 1.7155
2884.368 1.85 2.1 2.27 2.28 2.31 2.34 2.39 2.33 2.23 2.23
2903.661 2.25 2.29 2.41 2.5 2.35 2.16 2.04 1.95 1.87 1.6794
2922.955 1.4765 1.4004 1.3488 1.3676 1.3883 1.4527 1.6199 1.779 1.98 2.15
2942.248 2.28 2.5 2.62 2.64 2.69 2.78 2.79 2.82 2.83 2.76
2961.542 2.82 2.8 2.82 2.98 3.18 3.28 3.35 3.44 3.31 3.18
2980.835 3.03 2.82 2.6 2.3 2.04 1.82 1.5479 1.2607 1.0065 0.80059
3000.128 0.696 0.623 0.603 0.564 0.565 0.514 0.441 0.464 0.392 0.424
3019.422 0.486 0.481 0.513 0.508 0.474 0.569 0.655 0.718 0.82344 0.83354
3038.715 0.7262 0.7293 0.9102 1.0426 1.0384 1.0004 1.0705 1.0506 1.0374 1.0696
3058.009 1.1702 1.3912 1.5264 1.6615 1.7035 1.7167 1.88 1.93 1.89 1.83
3077.302 1.7685 1.6999 1.5269 1.4179 1.3236 1.0903 0.9891 1.0561 0.9602 0.82349
3096.596 0.7269 0.709 0.7123 0.646 0.561 0.437 0.312 0.361 0.367 0.28
3115.889 0.234 0.117 0.085 0.079 0.175 0.249 0.094 0.018 0.069 0.085
3135.182 0.071 0.019 0.04 0.117 0.16 0.071 0 0.018 0.055 0.057
3154.476 0.037 0.084 0.091 0.126 0.087 0.033 0.073 0.125 0.141 0.087
3173.769 0.059 0.023 0 0.045 0.121 0.185 0.193 0.215 0.251 0.205
3193.063 0.179 0.084 0.003 0.038 0.038 0.011 0.062 0.125 0.119 0.185
3212.356 0.209 0.134 0.015 0.053 0.226 0.204 0.13 0.278 0.338 0.194
3231.650 0.182 0.195 0.159 0.186 0.21 0.189 0.196 0.302 0.345 0.229
3250.943 0.112 0.088 0.111 0.126 0.149 0.185 0.168 0.185 0.208 0.195
3270.236 0.143 0.167 0.268 0.212 0.225 0.289 0.208 0.141 0.194 0.226
3289.530 0.237 0.259 0.205 0.173 0.246 0.283 0.312 0.372 0.354 0.395
3308.823 0.393 0.332 0.204 0.198 0.372 0.359 0.381 0.41 0.356 0.236
3328.117 0.147 0.268 0.299 0.225 0.217 0.31 0.35 0.286 0.342 0.356
3347.410 0.251 0.267 0.237 0.144 0.25 0.294 0.109 0.109 0.278 0.303
3366.704 0.298 0.337 0.294 0.267 0.287 0.28 0.335 0.356 0.299 0.33
3385.997 0.354 0.298 0.266 0.278 0.381 0.399 0.419 0.465 0.435 0.337
3405.290 0.385 0.47 0.45 0.355 0.205 0.256 0.303 0.431 0.43 0.259
3424.584 0.255 0.32 0.304 0.189 0.273 0.414 0.306 0.248 0.32 0.368
3443.877 0.376 0.344 0.266 0.393 0.413 0.297 0.484 0.612 0.602 0.533
3463.171 0.537 0.539 0.405 0.397 0.305 0.282 0.407 0.362 0.228 0.251
3482.464 0.382 0.411 0.444 0.447 0.476 0.474 0.448 0.412 0.426 0.57
3501.758 0.602 0.602 0.581 0.585 0.596 0.528 0.559 0.578 0.461 0.38
3521.051 0.418 0.488 0.502 0.482 0.521 0.468 0.437 0.455 0.451 0.453
3540.344 0.453 0.496 0.603 0.6 0.528 0.512 0.47 0.434 0.434 0.504
3559.638 0.538 0.442 0.416 0.505 0.545 0.457 0.458 0.525 0.444 0.438
3578.931 0.43 0.41 0.414 0.349 0.41 0.391 0.348 0.493 0.575 0.596
3598.225 0.613 0.634 0.562 0.485 0.522 0.489 0.485 0.565 0.55 0.558
3617.518 0.575 0.566 0.567 0.523 0.519 0.495 0.482 0.4 0.444 0.641
3636.812 0.574 0.446 0.452 0.492 0.52 0.441 0.37 0.459 0.509 0.476
3656.105 0.519 0.552 0.475 0.499 0.497 0.508 0.602 0.561 0.514 0.522
3675.398 0.538 0.549 0.521 0.57 0.562 0.495 0.487 0.505 0.582 0.559
3694.692 0.502 0.499 0.55 0.562 0.48 0.481 0.488 0.515 0.554 0.506
3713.985 0.44 0.385 0.395 0.5 0.47 0.446 0.616 0.639 0.498 0.427
3733.279 0.475 0.465 0.516 0.601 0.536 0.392 0.348 0.471 0.489 0.506
3752.572 0.484 0.448 0.557 0.587 0.546 0.54 0.536 0.497 0.462 0.441
3771.866 0.456 0.509 0.549 0.477 0.418 0.425 0.429 0.494 0.468 0.407
3791.159 0.471 0.558 0.612 0.593 0.472 0.437 0.379 0.358 0.404 0.391
3810.452 0.507 0.573 0.517 0.439 0.424 0.501 0.536 0.498 0.466 0.494
3829.746 0.486 0.451 0.537 0.573 0.441 0.419 0.491 0.471 0.416 0.467
3849.039 0.549 0.479 0.398 0.441 0.512 0.498 0.473 0.468 0.476 0.449
3868.333 0.465 0.572 0.557 0.445 0.431 0.445 0.415 0.399 0.415 0.425
3887.626 0.435 0.506 0.536 0.45 0.424 0.494 0.451 0.457 0.531 0.552
3906.920 0.555 0.545 0.552 0.578 0.548 0.572 0.589 0.557 0.47 0.462
3926.213 0.562 0.524 0.487 0.44 0.393 0.421 0.388 0.342 0.391 0.5
3945.506 0.561 0.513 0.49 0.468 0.507 0.55 0.531 0.482 0.453 0.484
3964.800 0.519 0.521 0.452 0.482 0.508 0.423 0.412 0.497 0.487 0.44
3984.093 0.456 0.493 0.498 0.519 0.527 0.47 0.451 0.433 0.42
##END=
