##TITLE=Azinphos-ethyl
##JCAMP-DX=4.24
##DATA TYPE=INFRARED SPECTRUM
##ORIGIN=NIST Mass Spectrometry Data Center
##OWNER=NIST Standard Reference Data Program
Collection (C) 2018 copyright by the U.S. Secretary of Commerce
on behalf of the United States of America. All rights reserved.
##CAS REGISTRY NO=2642-71-9
##MOLFORM=C 12 H 16 N 3 O 3 P S 2
##$NIST SOURCE=MSDC-IR
##SPECTROMETER/DATA SYSTEM=HP-GC/MS/IRD
##STATE=gas
##XUNITS=1/CM
##YUNITS=ABSORBANCE
##XFACTOR=1.0
##YFACTOR=0.000005000
##DELTAX=4.0
##FIRSTX=550.0
##LASTX=3846.0
##FIRSTY=0.006175
##MAXX=3846
##MINX=550
##MAXY=0.05
##MINY=0
##NPOINTS=825
##XYDATA=(X++(Y..Y))
550.0 1235 783 434 310 206 137 99 94 102 78
590.0 49 41 23 6 33 120 245 291 237 220
630.0 287 434 693 1141 1917 3098 4372 4924 4304 3115
670.0 2162 1608 1283 1052 861 724 669 695 677 613
710.0 606 605 572 500 406 336 286 267 282 339
750.0 455 618 839 1203 1896 3178 4560 4615 3419 2515
790.0 2283 2315 2414 2477 2438 2290 2046 1760 1490 1236
830.0 1019 829 676 565 501 502 524 505 424 336
870.0 303 322 402 581 951 1557 2056 1981 1477 1055
910.0 865 799 819 929 1135 1439 1874 2437 3102 3797
950.0 4348 4602 4518 4183 3720 3264 2850 2386 1920 1649
990.0 1630 1820 2212 2849 3800 5061 6546 8033 9204 9846
1030.0 10000 9793 9213 8274 7146 6045 5082 4245 3490 2867
1070.0 2405 2043 1788 1598 1468 1427 1375 1282 1155 1003
1110.0 898 826 743 688 670 668 674 698 742 805
1150.0 827 790 758 753 796 908 1093 1223 1175 964
1190.0 758 661 594 542 516 533 585 588 559 539
1230.0 541 564 603 687 832 1053 1345 1667 1897 1934
1270.0 1834 1874 2307 2979 3251 2763 1993 1464 1218 1129
1310.0 1153 1291 1467 1493 1276 976 797 736 658 520
1350.0 391 317 283 277 282 299 338 409 519 671
1390.0 816 878 830 728 647 581 516 455 402 369
1430.0 367 400 451 508 600 730 912 1156 1333 1224
1470.0 882 593 461 420 461 608 800 835 640 390
1510.0 231 153 109 80 61 46 34 29 31 36
1550.0 43 49 53 57 71 98 145 205 248 259
1590.0 251 252 271 301 344 373 345 261 179 131
1630.0 106 93 91 97 115 143 183 223 271 332
1670.0 394 449 505 605 785 1067 1585 2554 4281 6803
1710.0 9006 9007 6677 4010 2337 1497 1084 848 680 553
1750.0 459 395 348 303 261 234 210 187 169 154
1790.0 139 128 125 126 125 125 126 131 142 145
1830.0 152 163 168 168 159 135 112 101 99 100
1870.0 89 76 61 47 41 34 29 26 21 15
1910.0 14 19 22 25 33 38 39 43 51 64
1950.0 68 57 39 29 35 45 51 43 25 13
1990.0 7 5 3 7 11 11 7 5 8 14
2030.0 11 9 15 22 25 21 26 31 30 30
2070.0 27 23 26 24 19 18 18 14 12 12
2110.0 12 13 14 15 16 16 16 19 21 21
2150.0 24 21 15 14 10 11 14 14 10 6
2190.0 10 14 16 21 16 12 11 8 6 7
2230.0 8 11 11 14 19 25 30 34 35 33
2270.0 29 23 22 22 22 30 41 42 38 38
2310.0 45 49 48 48 52 51 50 49 42 32
2350.0 30 30 24 18 19 20 18 18 16 15
2390.0 13 14 16 15 10 12 18 23 17 12
2430.0 11 13 10 8 15 17 17 20 19 17
2470.0 12 10 14 17 13 13 14 12 8 5
2510.0 6 2 3 5 0 0 0 6 8 7
2550.0 12 16 11 7 11 12 10 13 15 8
2590.0 6 11 13 16 15 7 5 8 9 9
2630.0 7 9 7 5 10 10 14 17 12 7
2670.0 8 10 6 12 18 22 23 22 26 29
2710.0 31 27 22 28 28 22 24 29 27 27
2750.0 35 34 33 35 38 44 40 35 38 39
2790.0 36 34 33 30 29 36 42 46 55 64
2830.0 65 59 62 75 86 97 109 123 151 180
2870.0 218 258 297 327 347 363 378 416 473 532
2910.0 572 576 556 555 600 707 875 1051 1145 1115
2950.0 997 877 828 858 929 1018 1123 1267 1455 1570
2990.0 1509 1356 1191 1005 835 720 646 588 527 458
3030.0 394 348 307 264 237 220 206 202 202 228
3070.0 296 395 520 561 490 386 290 200 126 90
3110.0 77 69 58 47 48 45 43 40 32 31
3150.0 32 36 42 46 37 24 26 26 23 24
3190.0 19 27 27 16 12 12 13 15 22 23
3230.0 20 16 18 17 10 8 8 12 14 15
3270.0 14 15 9 4 13 14 6 14 22 20
3310.0 19 19 13 22 21 16 17 15 11 8
3350.0 14 8 16 30 29 29 25 21 33 45
3390.0 46 52 72 93 93 84 79 84 74 52
3430.0 50 53 49 35 25 31 38 30 23 25
3470.0 30 34 33 37 44 42 38 35 34 35
3510.0 38 33 34 44 38 38 37 33 38 33
3550.0 29 41 40 41 50 41 36 40 36 39
3590.0 42 38 35 45 49 35 36 39 38 42
3630.0 39 38 35 24 36 43 41 41 40 39
3670.0 49 52 44 41 34 32 31 27 35 46
3710.0 43 38 43 51 52 42 40 38 23 26
3750.0 35 32 26 20 26 33 40 35 33 39
3790.0 41 32 23 30 36 37 32 22 22 36
3830.0 44 49 52 48 51
##END=
