##TITLE=p-[(2-Chloroethyl)ethylamino]benzaldehyde
##JCAMP-DX=4.24
##DATA TYPE=INFRARED SPECTRUM
##ORIGIN=EPA-IR VAPOR PHASE LIBRARY
##OWNER=SRD/NIST
Collection (C) 2018 copyright by the U.S. Secretary of Commerce
on behalf of the United States of America. All rights reserved.
##CAS REGISTRY NO=2643-07-4
##MOLFORM=C 11 H 14 Cl N O
##$NIST SOURCE=MSDC-IR
##STATE=gas
##XUNITS=1/CM
##YUNITS=ABSORBANCE
##XFACTOR=1.
##YFACTOR=0.001
##DELTAX=1.92898
##FIRSTX=549.8
##LASTX=4000.7
##FIRSTY=3.061
##MAXX=4000.7
##MINX=549.759
##MAXY=0.135221
##MINY=0
##NPOINTS=1790
##XYDATA=(X++(Y..Y))
549.759 3.061 3.021 2.841 2.691 2.661 2.701 2.671 2.621 2.541 2.671
569.049 2.951 2.831 2.691 2.891 3.121 3.371 3.751 4.311 4.831 5.081
588.339 5.481 5.951 6.231 6.341 6.451 6.301 5.971 5.751 5.371 4.771
607.628 4.061 3.431 3.151 3.031 2.711 2.421 2.261 1.961 1.711 1.881
626.918 2.161 2.081 2.041 2.201 2.201 2.221 2.311 2.211 2.101 2.131
646.208 2.121 2.121 2.181 2.411 2.511 2.561 2.601 2.841 3.271 3.571
665.498 3.771 3.951 4.251 4.201 4.041 3.941 3.811 3.581 3.371 3.301
684.787 3.141 2.971 3.031 3.201 3.211 3.261 3.641 4.301 5.101 6.511
704.077 8.401 10.421 12.701 15.271 17.751 19.351 19.611 18.721 16.721 13.911
723.367 10.921 8.061 5.961 4.741 4.051 3.601 3.491 3.501 3.521 3.721
742.657 3.821 4.081 4.511 4.891 5.471 6.221 6.921 7.561 8.081 8.191
761.947 8.061 7.951 7.721 7.101 6.321 5.821 5.531 5.171 4.841 4.821
781.236 4.861 4.881 5.101 5.411 5.711 6.161 6.831 7.661 8.581 9.631
800.526 10.801 12.301 14.031 15.851 17.881 19.891 21.861 23.491 24.501 24.671
819.816 23.901 22.691 21.331 20.061 18.841 17.671 16.891 16.351 15.991 15.711
839.106 15.361 14.711 13.961 13.141 11.991 10.651 9.331 8.271 7.241 6.341
858.395 5.851 5.481 5.091 4.931 4.841 4.731 4.581 4.581 4.611 4.421
877.685 4.551 4.681 4.601 4.471 4.511 4.651 4.581 4.461 4.411 4.371
896.975 4.181 4.101 3.931 3.561 3.301 3.061 2.611 2.281 2.081 1.911
916.265 1.841 1.941 2.051 1.941 1.991 2.091 2.021 2.061 2.171 2.391
935.555 2.571 2.531 2.541 2.561 2.611 2.581 2.541 2.611 2.611 2.491
954.844 2.401 2.421 2.361 2.341 2.441 2.541 2.621 2.751 2.771 2.871
974.134 3.181 3.441 3.731 4.051 4.421 4.911 5.381 5.951 6.701 7.411
993.424 7.881 8.071 8.311 8.281 8.051 8.111 7.851 7.531 7.331 6.781
1012.714 6.281 5.941 5.691 5.631 5.471 5.291 5.341 5.221 4.961 4.811
1032.003 4.721 4.681 4.881 4.841 4.411 4.001 3.901 3.771 3.621 3.911
1051.293 4.111 3.971 3.941 4.101 4.211 4.261 4.501 5.021 5.421 5.831
1070.583 6.291 6.631 6.761 6.501 6.301 5.761 5.281 5.721 5.651 4.981
1089.873 4.911 5.141 5.271 5.341 5.661 6.391 6.701 7.341 8.721 9.471
1109.163 10.331 11.551 12.701 13.511 13.901 14.511 14.851 14.941 15.111 15.091
1128.452 14.891 14.601 14.431 14.181 14.061 14.471 15.091 16.161 18.101 20.911
1147.742 24.771 30.071 37.051 45.701 56.121 67.511 78.701 88.611 95.611 98.641
1167.032 97.161 91.771 83.651 73.931 63.211 53.311 44.791 36.941 30.261 25.261
1186.322 21.731 19.931 19.021 18.401 18.631 19.101 19.841 20.531 21.081 21.911
1205.611 22.681 23.201 23.541 24.171 25.191 26.131 27.241 28.741 30.291 31.601
1224.901 32.811 33.651 33.561 32.271 30.111 27.951 25.781 23.731 22.481 21.971
1244.191 21.961 22.411 23.281 24.081 24.611 24.971 25.151 25.481 26.251 27.151
1263.481 28.221 29.361 30.161 30.581 30.151 28.801 26.691 24.201 21.711 19.381
1282.771 17.421 15.871 14.751 14.091 13.801 13.761 14.031 14.481 14.961 15.671
1302.060 16.661 17.861 19.311 20.831 22.181 23.121 23.461 23.141 22.261 21.041
1321.350 19.701 18.481 17.601 17.211 17.281 17.841 18.791 20.061 21.751 23.761
1340.640 26.011 28.561 31.271 34.021 36.651 38.971 40.721 41.691 41.681 40.521
1359.930 38.431 35.611 32.411 29.291 26.531 24.331 23.021 22.711 23.291 24.531
1379.219 26.251 28.051 29.701 31.011 31.691 31.611 30.831 29.491 27.561 25.231
1398.509 22.671 20.031 17.581 15.311 13.461 12.091 11.061 10.321 9.951 9.851
1417.799 9.951 10.271 10.721 11.251 11.761 12.111 12.211 12.081 11.731 11.181
1437.089 10.641 10.251 10.111 10.201 10.441 10.801 11.101 11.311 11.441 11.341
1456.378 10.941 10.511 10.131 9.741 9.411 9.161 8.961 8.681 8.351 8.061
1475.668 7.831 7.681 7.571 7.471 7.401 7.451 7.621 7.881 8.301 8.911
1494.958 9.871 11.211 13.121 15.811 19.271 23.471 28.901 35.221 41.461 47.151
1514.248 51.171 52.791 51.651 48.031 42.341 36.061 29.691 24.211 20.051 17.111
1533.538 15.091 13.561 12.451 11.581 10.901 10.531 10.351 10.381 10.751 11.441
1552.827 12.531 14.211 16.381 19.141 22.571 25.921 28.881 31.031 32.131 32.311
1572.117 31.741 31.011 30.921 32.251 35.301 40.131 46.441 54.081 62.821 72.591
1591.407 83.031 93.691 103.851 112.771 119.771 124.031 124.841 121.841 115.071 104.991
1610.697 92.701 79.241 66.221 54.111 43.921 36.201 30.081 25.381 21.861 19.071
1629.986 16.911 15.191 13.841 12.611 11.541 10.751 10.081 9.521 9.031 8.741
1649.276 8.601 8.501 8.501 8.601 8.701 8.891 9.191 9.561 10.001 10.381
1668.566 10.731 11.181 11.671 12.101 12.431 12.731 13.141 13.521 14.051 14.861
1687.856 15.811 17.121 18.951 21.351 25.021 30.081 37.131 48.021 61.761 80.321
1707.146 101.171 119.821 131.741 135.221 130.011 115.961 93.911 70.931 51.021 36.291
1726.435 26.101 19.321 14.761 11.701 9.561 8.131 7.171 6.331 5.641 5.141
1745.725 4.751 4.381 4.111 3.861 3.601 3.321 3.061 2.901 2.761 2.641
1765.015 2.451 2.291 2.181 2.091 2.011 1.931 1.801 1.701 1.661 1.661
1784.305 1.621 1.521 1.481 1.461 1.401 1.361 1.371 1.391 1.401 1.381
1803.594 1.401 1.411 1.401 1.401 1.391 1.411 1.391 1.361 1.331 1.321
1822.884 1.321 1.291 1.281 1.311 1.321 1.311 1.351 1.351 1.311 1.311
1842.174 1.331 1.371 1.351 1.321 1.361 1.421 1.441 1.481 1.501 1.501
1861.464 1.561 1.631 1.671 1.701 1.691 1.711 1.711 1.701 1.701 1.741
1880.754 1.811 1.821 1.811 1.831 1.851 1.811 1.811 1.791 1.701 1.651
1900.043 1.631 1.521 1.411 1.351 1.291 1.2306 1.219 1.216 1.2402 1.291
1919.333 1.321 1.331 1.321 1.291 1.256 1.202 1.1681 1.1734 1.1307 1.0944
1938.623 1.106 1.1181 1.1305 1.1352 1.1349 1.1139 1.117 1.147 1.1549 1.1446
1957.913 1.179 1.1958 1.1824 1.1687 1.1405 1.1559 1.2105 1.2425 1.281 1.321
1977.202 1.331 1.341 1.341 1.391 1.461 1.451 1.441 1.451 1.481 1.521
1996.492 1.561 1.601 1.611 1.621 1.601 1.571 1.521 1.491 1.461 1.431
2015.782 1.361 1.2356 1.1524 1.1323 1.0881 1.0752 1.1029 1.0414 0.9846 0.9709
2035.072 0.9608 0.9704 0.95 0.966 0.9971 0.9953 1.0039 1.0287 1.0499 1.074
2054.362 1.0888 1.0384 1.0593 1.0821 1.0582 1.0459 1.0425 1.0356 1.0416 1.0583
2073.651 0.9888 0.9373 0.8937 0.8471 0.8621 0.8708 0.9127 0.8403 0.7804 0.8388
2092.941 0.8383 0.8385 0.8829 0.8907 0.86 0.8505 0.8242 0.8525 0.9057 0.9067
2112.231 0.8506 0.8083 0.7509 0.7443 0.7497 0.6936 0.6828 0.6994 0.7104 0.6987
2131.521 0.6946 0.6023 0.5236 0.5301 0.547 0.6107 0.6178 0.6084 0.6284 0.6391
2150.810 0.6581 0.6424 0.6311 0.6479 0.676 0.6873 0.6367 0.5898 0.5724 0.572
2170.100 0.586 0.6113 0.6152 0.6173 0.6406 0.6228 0.5588 0.5523 0.646 0.6502
2189.390 0.6875 0.7062 0.6563 0.6693 0.655 0.6518 0.6929 0.6587 0.6152 0.6282
2208.680 0.6698 0.7131 0.7218 0.7588 0.7565 0.7518 0.7547 0.7693 0.8259 0.8328
2227.970 0.7753 0.7579 0.7984 0.8095 0.742 0.7354 0.7211 0.6441 0.6096 0.6421
2247.259 0.6208 0.5915 0.6048 0.6153 0.5854 0.5232 0.5301 0.554 0.6154 0.6247
2266.549 0.6131 0.5597 0.5273 0.643 0.6895 0.6675 0.6582 0.5952 0.5598 0.5671
2285.839 0.5548 0.5462 0.5941 0.6407 0.614 0.5806 0.6372 0.6957 0.718 0.7282
2305.129 0.6972 0.6997 0.6849 0.6999 0.7163 0.7227 0.7891 0.8222 0.7539 0.716
2324.418 0.7931 0.8205 0.816 0.8203 0.8206 0.8105 0.7756 0.7831 0.7897 0.7238
2343.708 0.7099 0.7827 0.7945 0.7705 0.7297 0.7264 0.683 0.6266 0.5975 0.5726
2362.998 0.6115 0.611 0.6342 0.63 0.609 0.5988 0.6401 0.7132 0.7312 0.7855
2382.288 0.8336 0.8218 0.8447 0.8629 0.8544 0.837 0.8388 0.8487 0.8177 0.8453
2401.578 0.9638 0.9776 0.9124 0.8989 0.8888 0.8671 0.8232 0.7788 0.8603 0.9848
2420.867 0.9504 0.9468 1.0514 1.0809 0.9829 0.9894 1.1016 1.0368 0.9774 1.0077
2440.157 1.047 1.0835 1.1464 1.1468 1.1229 1.1796 1.0863 1.1032 1.1538 1.0643
2459.447 1.0114 1.0097 0.9933 1.0086 1.0556 0.9953 0.9718 0.9785 0.9743 0.9606
2478.737 0.9673 1.0396 1.0957 1.0729 1.083 1.1379 1.0942 1.0486 1.0745 1.0416
2498.026 1.0007 1.0575 1.1589 1.1951 1.1449 1.1944 1.2408 1.2144 1.2707 1.267
2517.316 1.2687 1.351 1.341 1.241 1.2506 1.321 1.281 1.281 1.2464 1.2176
2536.606 1.2655 1.2571 1.2695 1.361 1.411 1.411 1.441 1.501 1.581 1.631
2555.896 1.651 1.661 1.711 1.731 1.731 1.741 1.781 1.811 1.821 1.841
2575.186 1.821 1.861 1.861 1.871 1.861 1.931 2.021 1.991 2.021 2.051
2594.475 2.071 2.091 2.091 2.081 2.061 2.061 2.051 2.011 2.031 2.051
2613.765 2.011 1.951 1.931 1.971 1.891 1.821 1.881 1.911 1.891 1.901
2633.055 1.921 1.871 1.791 1.801 1.831 1.821 1.841 1.851 1.841 1.811
2652.345 1.831 1.911 1.991 2.091 2.121 2.181 2.311 2.401 2.551 2.781
2671.634 2.921 3.031 3.271 3.571 3.931 4.381 4.911 5.441 5.991 6.651
2690.924 7.211 7.761 8.261 8.571 8.861 9.071 9.261 9.631 10.181 10.941
2710.214 11.961 13.331 15.181 17.311 19.461 21.501 23.111 23.871 23.671 22.571
2729.504 20.771 18.491 15.981 13.701 11.851 10.321 9.081 8.001 7.101 6.441
2748.794 5.921 5.561 5.351 5.021 4.801 4.711 4.621 4.681 4.741 4.791
2768.083 4.981 5.171 5.321 5.591 5.841 6.161 6.721 7.251 7.921 8.761
2787.373 9.641 10.661 11.861 13.001 13.991 14.881 15.491 15.761 15.831 15.701
2806.663 15.281 14.781 14.311 13.951 13.591 13.131 12.731 12.301 11.731 11.151
2825.953 10.531 9.901 9.321 8.751 8.291 7.871 7.541 7.351 7.251 7.141
2845.242 7.061 7.121 7.201 7.201 7.311 7.381 7.401 7.541 7.601 7.741
2864.532 7.901 8.111 8.361 8.611 9.051 9.471 9.901 10.451 10.911 11.321
2883.822 11.631 11.811 11.871 11.761 11.551 11.311 11.111 10.901 10.661 10.441
2903.112 10.221 10.081 9.921 9.611 9.391 9.211 9.081 9.051 8.981 8.981
2922.401 9.081 9.281 9.551 9.791 10.181 10.871 11.641 12.401 13.111 13.721
2941.691 14.091 14.121 13.991 13.761 13.381 13.051 12.861 12.981 13.391 13.851
2960.981 14.491 15.321 16.231 17.021 17.961 19.051 20.141 21.311 22.321 23.061
2980.271 23.681 23.971 23.571 22.571 21.081 19.171 17.061 15.071 13.311 11.861
2999.561 10.841 10.221 9.981 9.931 9.831 9.701 9.461 9.061 8.521 7.931
3018.850 7.341 6.801 6.391 6.171 6.101 6.051 6.041 6.131 6.071 5.911
3038.140 5.771 5.551 5.201 4.741 4.271 3.911 3.631 3.431 3.271 3.111
3057.430 2.991 2.901 2.911 2.961 3.001 3.131 3.251 3.411 3.681 3.881
3076.720 4.101 4.261 4.341 4.521 4.751 4.811 4.901 5.101 5.251 5.331
3096.009 5.361 5.281 5.211 5.031 4.701 4.431 4.001 3.551 3.221 3.001
3115.299 2.781 2.561 2.431 2.321 2.321 2.251 2.041 1.951 1.861 1.751
3134.589 1.651 1.571 1.541 1.311 1.1843 1.0975 0.8852 0.8143 0.7995 0.7966
3153.879 0.7872 0.7375 0.6959 0.7124 0.7663 0.7591 0.6849 0.6194 0.6299 0.7243
3173.169 0.7142 0.5123 0.423 0.4839 0.5591 0.6424 0.6833 0.655 0.6583 0.7173
3192.458 0.7206 0.736 0.7132 0.6844 0.6783 0.7026 0.7848 0.7374 0.7385 0.6465
3211.748 0.5708 0.6023 0.608 0.6007 0.5802 0.5943 0.5033 0.3494 0.35494 0.4063
3231.038 0.327 0.3844 0.5194 0.4213 0.278585 0.2878 0.2302 0.2441 0.29179 0.2237
3250.328 0.1735 0.1946 0.31285 0.34048 0.30596 0.34029 0.34458 0.29021 0.2407 0.256
3269.617 0.29718 0.30067 0.323 0.32185 0.279821 0.31772 0.3751 0.30446 0.175 0.2139
3288.907 0.31301 0.34257 0.231 0.233 0.4528 0.4327 0.31282 0.2443 0.155 0.2335
3308.197 0.31189 0.30547 0.33461 0.3188 0.29023 0.34851 0.33039 0.33278 0.358 0.33287
3327.487 0.31864 0.2287 0.2278 0.34836 0.35839 0.35151 0.3734 0.3985 0.4407 0.4986
3346.777 0.5391 0.4509 0.3775 0.3903 0.3824 0.4656 0.5966 0.5505 0.4603 0.4547
3366.066 0.5489 0.6545 0.6837 0.734 0.6733 0.6162 0.6826 0.7786 0.9485 1.0515
3385.356 1.1117 1.0417 0.9988 1.233 1.381 1.331 1.311 1.2623 1.291 1.441
3404.646 1.541 1.521 1.541 1.611 1.581 1.331 1.1833 1.1393 0.9397 0.8697
3423.936 0.7571 0.7062 0.7275 0.696 0.7198 0.6272 0.5235 0.4576 0.4419 0.4462
3443.225 0.397 0.31666 0.277803 0.33615 0.32467 0.2435 0.32578 0.35446 0.3844 0.3998
3462.515 0.29352 0.29065 0.3848 0.4708 0.4152 0.3866 0.34307 0.277819 0.3362 0.31847
3481.805 0.2602 0.2598 0.3792 0.4277 0.33352 0.4851 0.5199 0.4142 0.3767 0.27062
3501.095 0.2327 0.29911 0.31078 0.2077 0.1866 0.2405 0.30135 0.279443 0.145 0.094
3520.385 0.26814 0.3842 0.2439 0.26481 0.37085 0.3741 0.34613 0.34465 0.3875 0.34903
3539.674 0.3978 0.4529 0.36628 0.257 0.33486 0.5398 0.5151 0.4027 0.3831 0.2433
3558.964 0.038 0 0.2232 0.30881 0.2297 0.32734 0.3906 0.34299 0.29381 0.2401
3578.254 0.153 0.138 0.2486 0.26546 0.1758 0.22 0.29072 0.28793 0.34418 0.3495
3597.544 0.30701 0.36617 0.26735 0.1885 0.2547 0.36175 0.4349 0.3367 0.33781 0.4139
3616.833 0.3945 0.28241 0.2314 0.2505 0.26667 0.29049 0.2276 0.2509 0.34625 0.3952
3636.123 0.3779 0.5096 0.5247 0.3897 0.4443 0.4142 0.28496 0.3828 0.4862 0.4228
3655.413 0.3268 0.30827 0.35036 0.3741 0.3723 0.32028 0.35678 0.31885 0.2465 0.36967
3674.703 0.31685 0.2485 0.2972 0.1721 0.2201 0.30097 0.3719 0.419 0.29903 0.2491
3693.993 0.4084 0.4935 0.4198 0.31442 0.2154 0.29001 0.35568 0.32958 0.32708 0.33599
3713.282 0.31807 0.2543 0.159 0.1901 0.37039 0.4021 0.35173 0.35847 0.374 0.4544
3732.572 0.3894 0.2102 0.2009 0.33569 0.4167 0.4119 0.3728 0.3778 0.4426 0.4773
3751.862 0.5053 0.4184 0.454 0.3746 0.276506 0.407 0.34779 0.31626 0.34692 0.3568
3771.152 0.391 0.4085 0.4157 0.35746 0.271186 0.2306 0.277267 0.3703 0.5046 0.36187
3790.441 0.1869 0.32273 0.3916 0.37007 0.35689 0.4338 0.4617 0.4163 0.3716 0.3232
3809.731 0.31988 0.4432 0.4856 0.36549 0.3771 0.3932 0.4188 0.32194 0.30897 0.4062
3829.021 0.3787 0.3489 0.32017 0.3974 0.4275 0.4182 0.438 0.4115 0.3741 0.36638
3848.311 0.3724 0.34525 0.34928 0.28861 0.2542 0.35036 0.33543 0.29137 0.32873 0.4672
3867.601 0.4211 0.2413 0.1966 0.2549 0.3987 0.36188 0.32662 0.35566 0.2551 0.2362
3886.890 0.30581 0.3796 0.36447 0.35647 0.4175 0.35857 0.3317 0.3533 0.31117 0.2508
3906.180 0.3762 0.4388 0.35066 0.33645 0.2283 0.2203 0.278155 0.26869 0.29937 0.29222
3925.470 0.271824 0.3501 0.36453 0.32408 0.34697 0.26252 0.28655 0.3961 0.36863 0.32933
3944.760 0.43 0.35225 0.26706 0.32142 0.33157 0.31513 0.34989 0.35018 0.4028 0.4761
3964.049 0.35835 0.28746 0.4058 0.5272 0.5137 0.6476 0.6802 0.3831 0.26456 0.3767
3983.339 0.33726 0.37082 0.4424 0.3964 0.396 0.3883 0.3847 0.4638 0.4388 0.4527
##END=
