##TITLE=Methylenebis(p-phenylisocyanate)
##JCAMP-DX=4.24
##DATA TYPE=INFRARED SPECTRUM
##ORIGIN=EPA-IR VAPOR PHASE LIBRARY
##OWNER=SRD/NIST
Collection (C) 2018 copyright by the U.S. Secretary of Commerce
on behalf of the United States of America. All rights reserved.
##CAS REGISTRY NO=26447-40-5
##MOLFORM=C 15 H 10 N 2 O 2
##$NIST SOURCE=MSDC-IR
##STATE=gas
##XUNITS=1/CM
##YUNITS=ABSORBANCE
##XFACTOR=1.
##YFACTOR=0.001
##DELTAX=1.92898
##FIRSTX=549.8
##LASTX=4000.7
##FIRSTY=2.107
##MAXX=4000.7
##MINX=549.759
##MAXY=0.224077
##MINY=0
##NPOINTS=1790
##XYDATA=(X++(Y..Y))
549.759 2.107 2.177 1.917 1.587 1.617 1.707 1.817 2.107 2.267 2.227
569.049 2.437 2.537 2.407 2.557 2.807 2.887 3.217 3.117 2.797 3.057
588.339 3.297 3.567 3.707 3.467 3.387 3.467 3.567 3.677 3.837 3.917
607.628 3.787 3.497 3.407 3.467 3.237 3.157 3.167 2.957 2.807 2.747
626.918 2.667 2.657 2.737 2.647 2.297 2.137 2.257 2.237 2.027 1.767
646.208 1.797 1.897 1.837 1.657 1.547 1.567 1.687 1.617 1.377 1.1935
665.498 1.0668 0.9887 1.0089 1.1247 1.247 1.207 1.227 1.307 1.0786 1.0458
684.787 1.0207 1.0421 1.1983 1.1091 0.9897 1.1284 1.1976 1.1273 1.1941 1.227
704.077 1.1769 1.0822 0.9943 1.041 0.9978 0.968 1.0144 1.0925 1.1808 1.1311
723.367 1.1419 1.2036 1.0823 0.9719 0.9215 0.9448 1.0679 1.247 1.347 1.397
742.657 1.587 1.597 1.567 1.627 1.697 1.847 1.777 1.497 1.587 1.647
761.947 1.497 1.577 1.537 1.457 1.547 1.707 1.627 1.617 1.787 1.937
781.236 2.077 2.177 2.337 2.637 3.177 3.717 4.297 4.827 5.377 5.857
800.526 6.317 6.867 7.187 7.517 7.917 8.327 8.847 9.137 9.057 8.897
819.816 8.437 7.857 7.147 6.237 5.567 5.047 4.497 3.907 3.677 3.557
839.106 3.437 3.337 3.137 3.007 3.027 3.037 3.147 3.067 2.867 2.837
858.395 2.567 2.317 1.977 1.797 1.707 1.477 1.307 1.207 1.2068 1.1664
877.685 1.0609 1.0087 0.9122 0.8302 0.8822 0.8352 0.77 0.7906 0.703 0.7737
896.975 0.8653 0.8303 0.7227 0.7196 0.7747 0.6986 0.7854 0.7761 0.7951 0.9278
916.265 0.9869 0.9037 0.7546 0.7944 0.8111 0.6265 0.6537 0.7029 0.6311 0.673
935.555 0.6319 0.6637 0.6443 0.5153 0.4623 0.4725 0.3697 0.312 0.27597 0.24897
954.844 0.3946 0.4543 0.4727 0.4971 0.4423 0.3649 0.3395 0.426 0.4621 0.3254
974.134 0.3985 0.4799 0.5264 0.576 0.5853 0.5642 0.3852 0.3803 0.5306 0.5017
993.424 0.4662 0.5624 0.6377 0.656 0.572 0.594 0.7439 0.9502 1.1368 1.767
1012.714 2.857 3.887 4.487 4.467 4.087 2.967 1.617 1.1022 0.9372 0.8143
1032.003 0.6657 0.422 0.3199 0.3139 0.4551 0.5703 0.5794 0.4768 0.4092 0.5166
1051.293 0.4521 0.5323 0.5825 0.6619 0.9197 0.853 0.8486 0.8633 0.8404 0.8346
1070.583 0.8473 0.7796 0.6707 0.7427 0.8659 1.0496 1.337 1.557 1.697 1.997
1089.873 2.457 2.497 2.857 3.887 4.657 5.657 6.737 7.737 9.367 11.257
1109.163 13.007 14.347 14.527 13.547 11.757 10.137 8.477 6.857 5.667 4.787
1128.452 4.467 4.077 3.697 3.417 3.027 2.737 2.677 2.767 2.947 3.017
1147.742 2.987 2.947 2.997 3.497 3.777 3.867 3.937 3.857 3.597 3.337
1167.032 3.277 3.207 2.997 2.867 3.007 2.637 2.137 2.077 2.067 2.027
1186.322 2.057 2.107 2.347 2.487 2.067 1.897 2.207 2.257 2.327 2.307
1205.611 1.877 1.165 0.9946 1.477 1.717 1.777 2.017 1.887 1.577 1.737
1224.901 2.007 2.237 2.077 1.757 1.817 1.767 1.307 1.1585 1.1683 0.9996
1244.191 1.0757 1.2001 1.1144 1.1247 1.0408 1.1128 1.277 1.1874 1.1547 1.1728
1263.481 1.257 1.227 0.9984 1.0401 1.1706 1.237 1.277 1.227 1.287 1.397
1282.771 1.317 1.337 1.387 1.337 1.347 1.327 1.277 1.297 1.287 1.247
1302.060 1.257 1.237 1.154 1.0694 1.0735 1.0291 0.9763 1.0128 1.043 1.0329
1321.350 1.0052 0.9699 0.9726 0.9809 0.9703 0.9379 0.9312 0.9932 0.9474 0.9089
1340.640 0.9034 0.9177 0.9738 0.9567 0.9183 0.902 0.9352 0.9379 0.8989 0.8812
1359.930 0.8651 0.8623 0.8748 0.8276 0.8327 0.8592 0.8211 0.7876 0.7775 0.7712
1379.219 0.7886 0.8249 0.8723 0.8776 0.807 0.8119 0.8401 0.8144 0.7999 0.8137
1398.509 0.8371 0.9052 1.019 1.0764 1.0797 1.08 1.1151 1.1639 1.227 1.257
1417.799 1.267 1.267 1.277 1.297 1.327 1.357 1.387 1.547 1.727 1.837
1437.089 1.957 2.097 2.157 2.217 2.247 2.157 2.007 1.857 1.767 1.657
1456.378 1.527 1.487 1.447 1.427 1.467 1.507 1.567 1.637 1.687 1.777
1475.668 1.917 2.057 2.217 2.387 2.547 2.787 3.157 3.527 3.977 4.607
1494.958 5.357 6.267 7.237 8.317 9.607 10.937 12.277 13.757 15.117 16.307
1514.248 17.507 18.587 19.507 20.257 20.907 21.447 21.707 21.647 21.147 20.187
1533.538 18.797 17.037 14.947 12.697 10.747 9.057 7.587 6.447 5.577 4.867
1552.827 4.397 3.977 3.617 3.397 3.247 3.337 3.467 3.467 3.517 3.687
1572.117 3.827 3.847 3.757 3.637 3.517 3.457 3.377 3.287 3.257 3.197
1591.407 3.277 3.547 3.957 4.547 5.297 6.167 7.117 7.837 8.357 8.597
1610.697 8.427 7.877 6.917 5.897 5.037 4.217 3.467 2.907 2.497 2.187
1629.986 1.947 1.747 1.547 1.507 1.487 1.407 1.367 1.267 1.1764 1.1636
1649.276 1.1906 1.1125 0.9349 0.9927 1.0329 0.9477 0.8756 0.8186 0.7705 0.7582
1668.566 0.7179 0.6705 0.7167 0.7101 0.7204 0.7249 0.6629 0.6503 0.6022 0.5974
1687.856 0.6128 0.5668 0.5909 0.5857 0.4842 0.4265 0.4968 0.5183 0.4976 0.4907
1707.146 0.5277 0.5512 0.5005 0.5217 0.5484 0.5336 0.5485 0.5806 0.5824 0.5567
1726.435 0.5581 0.5768 0.5759 0.5401 0.5056 0.5326 0.5729 0.6219 0.585 0.5423
1745.725 0.5684 0.657 0.6731 0.6021 0.6388 0.6973 0.68 0.6638 0.6674 0.6558
1765.015 0.7014 0.8312 0.905 0.8756 0.8747 0.8262 0.7199 0.7114 0.7231 0.6385
1784.305 0.5644 0.578 0.5856 0.5144 0.4542 0.441 0.4318 0.4476 0.5276 0.5772
1803.594 0.5185 0.4505 0.4749 0.5301 0.5582 0.527 0.5034 0.4696 0.4526 0.4642
1822.884 0.4825 0.4761 0.4416 0.4801 0.4648 0.5129 0.5414 0.5431 0.5605 0.5562
1842.174 0.6253 0.6304 0.6198 0.6304 0.5748 0.5709 0.675 0.7177 0.6944 0.6837
1861.464 0.6668 0.7037 0.7537 0.788 0.8135 0.8175 0.8443 0.8737 0.9056 0.9443
1880.754 1.0036 1.0171 1.0583 1.1274 1.1479 1.2 1.2038 1.1562 1.1544 1.088
1900.043 1.0104 1.0372 1.0366 0.9218 0.767 0.7396 0.7412 0.6872 0.6641 0.6257
1919.333 0.6453 0.6602 0.6317 0.6065 0.5311 0.5086 0.5795 0.5448 0.5393 0.534
1938.623 0.4523 0.5184 0.5383 0.4962 0.5284 0.5422 0.4939 0.495 0.5291 0.5097
1957.913 0.5292 0.5164 0.5041 0.5642 0.5226 0.4665 0.4657 0.4631 0.4608 0.5233
1977.202 0.5617 0.5437 0.5398 0.5336 0.4998 0.4501 0.4305 0.4422 0.4717 0.4776
1996.492 0.5022 0.5308 0.545 0.5292 0.5201 0.5247 0.4879 0.4365 0.5267 0.5924
2015.782 0.5376 0.521 0.5053 0.5628 0.675 0.7049 0.7192 0.7565 0.7133 0.6356
2035.072 0.6426 0.6989 0.7319 0.7689 0.8012 0.8046 0.8124 0.8467 0.8586 0.8547
2054.362 0.8872 0.9327 0.9912 1.0059 1.0402 1.1029 1.1125 1.1941 1.247 1.307
2073.651 1.427 1.487 1.537 1.547 1.567 1.627 1.627 1.637 1.657 1.637
2092.941 1.697 1.797 1.817 1.797 1.797 1.797 1.897 1.917 1.957 2.027
2112.231 2.077 2.147 2.197 2.297 2.387 2.427 2.487 2.687 2.867 2.967
2131.521 3.137 3.287 3.487 3.707 3.867 4.087 4.337 4.557 4.817 5.077
2150.810 5.357 5.687 6.087 6.397 6.727 7.177 7.637 8.047 8.427 8.847
2170.100 9.347 9.797 10.177 10.577 11.007 11.517 12.037 12.587 13.117 13.657
2189.390 14.357 15.107 15.837 16.577 17.457 18.397 19.267 20.177 21.147 22.177
2208.680 23.277 24.427 25.567 26.637 27.797 29.067 30.357 31.747 33.417 35.267
2227.970 37.327 39.747 42.487 45.717 49.427 53.577 58.377 63.757 69.757 76.497
2247.259 83.867 91.847 100.457 109.527 119.177 129.297 139.657 150.337 161.227 172.267
2266.549 183.307 194.297 204.837 214.067 220.857 224.077 222.867 216.647 205.457 190.407
2285.839 172.977 154.547 136.457 119.477 104.157 90.717 79.037 69.127 60.897 54.027
2305.129 48.197 43.347 39.367 36.007 33.167 30.757 28.807 27.157 25.687 24.537
2324.418 23.647 22.817 22.177 21.807 21.437 21.157 20.957 20.787 20.947 21.137
2343.708 21.217 21.307 21.417 21.487 21.437 21.217 20.857 20.327 19.627 18.847
2362.998 17.847 16.807 15.707 14.397 13.167 12.087 11.037 10.057 9.127 8.317
2382.288 7.617 6.947 6.307 5.747 5.327 5.007 4.577 4.237 4.107 3.857
2401.578 3.637 3.527 3.377 3.187 3.047 2.907 2.817 2.797 2.707 2.567
2420.867 2.527 2.487 2.417 2.397 2.267 2.227 2.267 2.247 2.147 2.037
2440.157 2.007 1.997 1.927 1.767 1.657 1.617 1.597 1.547 1.417 1.307
2459.447 1.237 1.247 1.247 1.2069 1.129 1.1204 1.1001 1.0379 1.0696 1.0771
2478.737 1.0229 0.9603 0.902 0.8294 0.8608 0.8596 0.7579 0.7453 0.7534 0.7055
2498.026 0.6482 0.6545 0.7741 0.8224 0.7752 0.7714 0.8052 0.7587 0.7222 0.6357
2517.316 0.6329 0.7403 0.7642 0.7903 0.7382 0.7666 0.7508 0.717 0.6902 0.6189
2536.606 0.6299 0.6416 0.5984 0.6507 0.7067 0.67 0.6066 0.5378 0.5747 0.6288
2555.896 0.7063 0.6992 0.6551 0.7302 0.7165 0.6594 0.6293 0.6085 0.5678 0.6267
2575.186 0.7186 0.6793 0.6709 0.6405 0.5555 0.5317 0.633 0.7145 0.6763 0.6223
2594.475 0.6375 0.673 0.6891 0.7485 0.7424 0.7177 0.7063 0.7009 0.7564 0.6419
2613.765 0.6315 0.7657 0.68 0.5427 0.5678 0.6589 0.6439 0.5403 0.5168 0.488
2633.055 0.4766 0.5382 0.5129 0.4631 0.5099 0.5683 0.4936 0.548 0.6481 0.5909
2652.345 0.5769 0.5265 0.4887 0.4698 0.4202 0.4044 0.5649 0.5624 0.537 0.6545
2671.634 0.6341 0.6866 0.5829 0.54 0.6298 0.6668 0.641 0.6001 0.6784 0.6979
2690.924 0.6538 0.5981 0.6472 0.6506 0.5769 0.5787 0.551 0.5138 0.4936 0.5035
2710.214 0.5869 0.5657 0.5226 0.5955 0.6899 0.7824 0.6772 0.5574 0.646 0.7533
2729.504 0.772 0.718 0.6955 0.726 0.6959 0.6253 0.6748 0.6973 0.623 0.6603
2748.794 0.6635 0.5629 0.4748 0.415 0.4768 0.5207 0.5221 0.4949 0.4333 0.4878
2768.083 0.5047 0.5404 0.5412 0.4334 0.5063 0.6323 0.6158 0.57 0.4845 0.4635
2787.373 0.6284 0.631 0.5412 0.5301 0.5842 0.6331 0.5754 0.611 0.6205 0.4896
2806.663 0.5472 0.6061 0.5626 0.6612 0.7049 0.6454 0.6776 0.7073 0.5452 0.5504
2825.953 0.6421 0.5256 0.5805 0.7097 0.6898 0.7103 0.7327 0.8102 0.9419 0.8886
2845.242 0.8703 0.9734 1.1032 1.207 1.237 1.237 1.237 1.257 1.1949 1.1137
2864.532 1.0496 1.0485 0.9082 0.755 0.8473 0.9891 0.9532 0.8972 0.8957 0.9928
2883.822 1.057 0.8975 0.8217 0.9692 1.0116 0.9642 1.0655 1.1095 1.0899 1.217
2903.112 1.277 1.1934 1.347 1.627 1.827 2.097 2.417 2.657 2.917 3.047
2922.401 3.177 3.307 3.237 3.057 2.847 2.687 2.427 2.177 2.147 1.997
2941.691 1.837 1.667 1.427 1.237 1.1163 1.1243 1.0715 1.0691 1.1463 1.0345
2960.981 1.0733 1.1216 1.0555 1.1823 1.207 1.1921 1.1736 1.277 1.417 1.437
2980.271 1.487 1.477 1.517 1.647 1.677 1.687 1.707 1.677 1.667 1.667
2999.561 1.817 2.007 2.027 2.047 2.057 2.077 2.177 2.307 2.437 2.567
3018.850 2.717 2.947 3.077 3.177 3.447 3.657 3.747 3.597 3.407 3.267
3038.140 3.197 3.177 3.047 2.877 2.817 2.937 3.037 3.087 3.077 2.807
3057.430 2.687 2.817 2.827 2.877 2.917 2.907 2.927 2.767 2.677 2.787
3076.720 2.677 2.347 2.187 2.107 1.917 1.767 1.717 1.687 1.627 1.487
3096.009 1.417 1.447 1.397 1.267 1.1785 1.227 1.1167 0.9935 0.9927 0.9324
3115.299 0.7869 0.681 0.6503 0.7145 0.771 0.6424 0.4844 0.5057 0.5504 0.5339
3134.589 0.4899 0.4479 0.367 0.3825 0.24988 0.1671 0.448 0.5192 0.4977 0.4757
3153.879 0.3833 0.3256 0.3658 0.4302 0.4263 0.363 0.1531 0.035 0.101 0.076
3173.169 0.038 0.23654 0.3403 0.3159 0.28147 0.1165 0.095 0.29902 0.3852 0.339
3192.458 0.3246 0.1811 0.1942 0.21665 0.107 0.2446 0.27809 0.22199 0.22575 0.1453
3211.748 0.22274 0.28246 0.23343 0.21838 0.26566 0.3146 0.2715 0.26288 0.21462 0.1089
3231.038 0.043 0.22606 0.3692 0.1631 0.183 0.23093 0.1405 0.28729 0.3402 0.1829
3250.328 0.29069 0.23848 0.042 0.1566 0.29356 0.3493 0.3959 0.4242 0.1792 0.094
3269.617 0.1945 0.1574 0.1366 0.177 0.1462 0 0.105 0.333 0.30212 0.1458
3288.907 0.1639 0.144 0.1303 0.25431 0.28994 0.3522 0.4337 0.29743 0.19825 0.26445
3308.197 0.22523 0.22666 0.3185 0.1907 0.3123 0.4868 0.341 0.4181 0.4931 0.4737
3327.487 0.3864 0.313 0.3556 0.4547 0.5104 0.6003 0.7137 0.5677 0.4314 0.5252
3346.777 0.6149 0.7408 0.7635 0.6824 0.7753 0.7936 0.8083 0.8709 0.8506 0.8206
3366.066 0.8518 0.8113 0.8592 1.1378 1.347 1.497 1.337 1.0875 1.287 1.457
3385.356 1.497 1.477 1.417 1.307 1.1731 1.237 1.387 1.627 1.547 1.417
3404.646 1.367 1.257 1.327 1.317 1.257 1.277 1.327 1.367 1.1581 1.0907
3423.936 1.1691 1.1663 0.9876 0.8761 0.9817 1.0491 0.9323 0.9212 0.9192 0.7599
3443.225 0.6617 0.6283 0.7089 0.7688 0.6351 0.5083 0.4947 0.4111 0.4267 0.4226
3462.515 0.4127 0.5897 0.6154 0.4166 0.4263 0.6119 0.6991 0.6224 0.466 0.4562
3481.805 0.3468 0.4459 0.5803 0.3666 0.3354 0.3584 0.4356 0.5321 0.4457 0.26115
3501.095 0.3322 0.4782 0.5083 0.5018 0.3469 0.368 0.4358 0.30345 0.214857 0.363
3520.385 0.5327 0.3847 0.3139 0.3608 0.3725 0.4918 0.5757 0.4902 0.3487 0.29658
3539.674 0.3425 0.6026 0.5163 0.28842 0.3116 0.26297 0.3911 0.488 0.25961 0.1104
3558.964 0.2557 0.4328 0.4328 0.1519 0.22844 0.4554 0.29657 0.3353 0.29728 0.3807
3578.254 0.519 0.4895 0.6186 0.6534 0.7335 0.6996 0.584 0.5647 0.5215 0.5236
3597.544 0.5083 0.6063 0.6886 0.5702 0.5133 0.5192 0.5206 0.588 0.6632 0.6438
3616.833 0.4298 0.427 0.6238 0.8085 0.8145 0.6144 0.6519 0.7373 0.7668 0.675
3636.123 0.6142 0.5866 0.6348 0.7859 0.7728 0.6678 0.7796 0.9345 0.9631 1.0284
3655.413 1.0835 0.9763 0.7167 0.8706 0.8997 0.7775 0.9095 1.0004 1.0301 0.999
3674.703 1.0969 1.257 1.287 1.1887 1.0832 1.207 1.407 1.247 1.0324 1.1748
3693.993 1.317 1.327 1.437 1.467 1.417 1.517 1.477 1.347 1.247 1.1588
3713.282 1.317 1.417 1.277 1.1553 1.0883 0.9851 0.9722 1.1253 1.088 0.8626
3732.572 0.8089 0.9168 0.9069 0.6925 0.6831 0.8252 0.8525 0.748 0.7436 0.6358
3751.862 0.5298 0.5478 0.4217 0.4191 0.6012 0.7521 0.8124 0.7509 0.859 1.0692
3771.152 0.9535 0.809 0.637 0.4962 0.5617 0.7372 0.9157 0.834 0.723 0.593
3790.441 0.5698 0.7496 0.933 1.0476 0.7712 0.5348 0.7583 0.8942 0.6661 0.4519
3809.731 0.519 0.6364 0.696 0.6983 0.6583 0.5254 0.3752 0.4985 0.5545 0.5506
3829.021 0.6924 0.6454 0.5618 0.6238 0.6078 0.6177 0.5431 0.4546 0.3666 0.3471
3848.311 0.3169 0.3358 0.5815 0.4415 0.29415 0.4444 0.4956 0.3633 0.4117 0.6041
3867.601 0.5962 0.5267 0.4432 0.4154 0.5211 0.5081 0.3923 0.5577 0.652 0.4513
3886.890 0.3515 0.4142 0.4844 0.3171 0.26707 0.3972 0.4256 0.3252 0.1951 0.3308
3906.180 0.3762 0.25746 0.209494 0.1287 0.26096 0.3301 0.1828 0.1363 0.28787 0.5452
3925.470 0.3915 0.22186 0.297 0.1588 0.031 0.1536 0.24596 0.23866 0.1811 0.3899
3944.760 0.48 0.3348 0.347 0.3944 0.37 0.3299 0.5992 0.8217 0.6587 0.4396
3964.049 0.3561 0.3559 0.28575 0.3575 0.4568 0.212726 0.1704 0.3897 0.3674 0.6003
3983.339 0.7196 0.4917 0.3919 0.3829 0.3684 0.25853 0.2571 0.3252 0.3242 0.1092
##END=
