##TITLE=4-N,N-Bis(2-chloroethyl)amino-2-tolualdehyde
##JCAMP-DX=4.24
##DATA TYPE=INFRARED SPECTRUM
##ORIGIN=EPA-IR VAPOR PHASE LIBRARY
##OWNER=SRD/NIST
Collection (C) 2018 copyright by the U.S. Secretary of Commerce
on behalf of the United States of America. All rights reserved.
##CAS REGISTRY NO=26459-95-0
##MOLFORM=C 12 H 15 Cl 2 N O
##$NIST SOURCE=MSDC-IR
##STATE=gas
##XUNITS=1/CM
##YUNITS=ABSORBANCE
##XFACTOR=1.
##YFACTOR=0.001
##DELTAX=1.92898
##FIRSTX=549.8
##LASTX=4000.7
##FIRSTY=3.096
##MAXX=4000.7
##MINX=549.759
##MAXY=0.201616
##MINY=0
##NPOINTS=1790
##XYDATA=(X++(Y..Y))
549.759 3.096 3.246 3.286 3.076 2.826 2.466 2.266 2.556 2.626 2.526
569.049 2.586 2.646 2.656 2.426 2.356 2.476 2.566 2.646 2.836 3.156
588.339 3.086 3.026 3.246 3.406 3.686 4.066 4.206 4.366 4.646 4.886
607.628 5.026 5.286 5.636 5.816 5.896 5.846 5.466 5.006 4.886 4.606
626.918 4.156 3.896 3.736 3.616 3.436 3.386 3.466 3.426 3.366 3.296
646.208 3.346 3.516 3.696 3.836 4.046 4.486 5.106 5.686 6.466 7.716
665.498 9.056 10.146 11.036 11.886 12.306 12.006 11.206 10.186 9.256 8.476
684.787 7.956 7.796 7.856 8.096 8.516 8.956 9.576 10.246 10.936 11.716
704.077 12.336 12.786 12.786 12.376 11.496 10.456 9.526 8.676 8.256 8.106
723.367 8.026 8.256 8.766 9.236 9.866 10.726 11.456 12.606 14.066 15.546
742.657 17.616 20.066 22.866 25.996 28.796 30.796 31.906 32.396 32.306 31.766
761.947 31.086 30.196 29.266 28.106 26.716 25.106 23.446 21.816 20.236 19.096
781.236 18.466 18.066 17.866 18.066 18.876 20.126 21.516 22.986 24.316 25.476
800.526 25.866 25.006 23.276 21.346 19.356 17.116 14.956 13.096 11.616 10.436
819.816 9.356 8.616 8.076 7.646 7.636 7.826 8.116 8.556 8.906 9.546
839.106 10.406 11.006 11.376 11.646 11.646 11.266 10.666 9.806 8.786 7.866
858.395 7.116 6.306 5.576 5.166 4.726 4.236 4.066 3.996 3.976 4.136
877.685 4.156 3.956 3.696 3.626 3.706 3.766 3.696 3.796 3.956 3.976
896.975 4.296 4.586 4.716 5.036 5.416 5.856 6.306 6.796 7.376 7.966
916.265 8.616 9.086 9.436 9.876 10.266 10.626 11.036 11.336 11.596 11.906
935.555 12.076 11.876 11.456 10.936 10.316 9.626 8.946 8.406 8.016 7.616
954.844 7.486 7.696 7.946 8.236 8.556 9.066 9.546 9.746 9.906 9.966
974.134 9.826 9.446 9.106 8.786 8.306 8.126 8.046 7.916 7.936 7.916
993.424 7.966 7.996 8.166 8.536 8.726 8.996 9.316 9.646 9.916 9.956
1012.714 10.086 10.116 9.676 9.186 8.856 8.456 8.046 7.726 7.416 7.356
1032.003 7.126 6.826 6.566 6.166 5.886 5.886 5.746 5.396 5.336 5.386
1051.293 5.576 5.566 5.646 5.966 6.296 6.696 6.806 6.926 7.266 7.266
1070.583 7.016 6.646 6.336 6.476 6.596 6.686 7.056 8.226 9.236 9.626
1089.873 10.646 12.636 15.266 17.706 20.156 23.346 26.946 29.016 29.956 30.516
1109.163 31.226 32.736 35.116 39.136 45.286 53.286 61.246 68.036 72.396 73.046
1128.452 69.756 63.866 57.066 50.836 45.466 40.666 36.886 34.026 31.856 30.566
1147.742 29.646 28.666 28.116 28.216 28.206 27.556 26.886 26.286 25.426 24.136
1167.032 23.136 22.376 21.216 19.896 19.066 18.566 17.786 17.446 17.686 18.356
1186.322 19.726 21.786 24.736 28.966 33.896 39.526 45.816 51.976 56.806 59.186
1205.611 59.636 58.006 54.336 50.306 46.776 43.716 41.316 40.026 39.916 40.416
1224.901 41.166 42.146 42.866 42.926 42.486 41.826 40.966 40.196 40.246 40.656
1244.191 41.026 41.646 42.296 42.926 43.366 43.156 42.356 41.046 39.166 37.306
1263.481 35.766 34.566 34.196 34.436 34.976 35.606 35.776 35.616 35.246 34.666
1282.771 34.076 33.696 33.246 32.966 32.956 32.786 32.516 31.926 30.946 29.796
1302.060 28.706 27.686 26.836 26.096 25.436 24.816 24.156 23.456 22.716 22.126
1321.350 21.746 21.656 22.076 22.916 24.106 25.786 27.796 30.216 33.146 36.626
1340.640 40.786 45.566 50.906 56.516 61.646 65.596 67.666 67.416 65.026 60.776
1359.930 55.316 49.646 44.446 40.056 36.576 34.046 32.436 31.666 31.836 32.666
1379.219 33.806 34.876 35.506 35.456 34.686 33.486 31.996 30.316 28.586 26.836
1398.509 25.076 23.356 21.786 20.186 18.706 17.296 15.976 14.986 14.316 13.976
1417.799 13.996 14.396 15.056 15.666 16.276 16.906 17.446 17.966 18.616 19.306
1437.089 20.176 21.166 22.146 23.156 24.216 25.346 26.576 27.566 27.966 27.656
1456.378 26.626 25.156 23.496 21.846 20.396 19.236 18.466 17.826 17.336 16.976
1475.668 16.606 16.216 15.856 15.476 15.246 15.166 15.436 16.166 17.536 19.586
1494.958 22.206 25.496 29.116 32.546 35.246 36.766 36.716 35.256 32.846 29.756
1514.248 26.756 24.196 22.176 20.776 19.906 19.536 19.446 19.656 20.146 20.866
1533.538 21.866 23.236 24.936 27.166 29.876 33.056 36.976 41.656 46.806 52.616
1552.827 58.316 63.336 66.586 67.726 66.466 63.006 57.756 51.916 46.636 42.426
1572.117 39.946 39.216 40.096 42.596 46.676 52.586 60.456 70.666 83.306 98.616
1591.407 116.456 136.176 156.606 175.886 191.326 200.466 201.616 194.056 178.726 157.546
1610.697 133.676 109.716 88.496 70.206 55.826 45.456 37.596 31.646 27.156 23.756
1629.986 20.996 18.846 17.186 15.736 14.506 13.526 12.736 12.076 11.506 11.016
1649.276 10.606 10.346 10.116 9.876 9.886 10.076 10.246 10.536 11.026 11.506
1668.566 12.046 12.666 13.326 13.996 14.906 15.976 17.496 19.506 22.486 26.446
1687.856 31.726 39.416 50.056 63.366 79.626 96.416 111.396 127.526 142.276 156.896
1707.146 168.696 174.366 170.226 155.056 129.686 99.356 70.386 49.496 35.286 26.096
1726.435 20.226 16.286 13.576 11.606 10.086 8.896 7.986 7.206 6.476 5.926
1745.725 5.506 5.076 4.706 4.396 4.226 4.046 3.806 3.636 3.516 3.386
1765.015 3.286 3.256 3.226 3.136 3.086 3.046 2.956 2.846 2.786 2.776
1784.305 2.716 2.656 2.586 2.486 2.486 2.456 2.326 2.256 2.226 2.216
1803.594 2.186 2.146 2.126 2.116 2.116 2.106 2.096 2.056 2.046 2.016
1822.884 2.006 1.996 2.056 2.096 2.056 2.036 2.066 2.036 1.976 1.906
1842.174 1.776 1.696 1.686 1.646 1.616 1.606 1.666 1.726 1.686 1.686
1861.464 1.716 1.786 1.856 1.836 1.846 1.926 1.926 1.886 1.856 1.846
1880.754 1.796 1.736 1.686 1.636 1.656 1.686 1.706 1.696 1.676 1.716
1900.043 1.706 1.696 1.676 1.626 1.636 1.596 1.556 1.556 1.486 1.406
1919.333 1.406 1.446 1.446 1.436 1.436 1.426 1.436 1.426 1.426 1.416
1938.623 1.436 1.396 1.336 1.336 1.356 1.386 1.386 1.356 1.346 1.326
1957.913 1.336 1.316 1.296 1.286 1.276 1.306 1.326 1.346 1.346 1.356
1977.202 1.416 1.406 1.396 1.426 1.406 1.376 1.346 1.336 1.366 1.336
1996.492 1.276 1.316 1.326 1.276 1.266 1.2417 1.256 1.286 1.2156 1.1596
2015.782 1.2 1.2424 1.266 1.2158 1.2329 1.296 1.286 1.316 1.376 1.386
2035.072 1.366 1.336 1.356 1.386 1.416 1.446 1.406 1.396 1.406 1.356
2054.362 1.346 1.386 1.366 1.346 1.306 1.256 1.256 1.246 1.2225 1.1554
2073.651 1.1618 1.1928 1.189 1.1619 1.0994 1.1598 1.1974 1.1122 1.0843 1.1079
2092.941 1.0781 1.0481 1.0751 1.0384 1.0583 1.0871 1.0416 0.9779 0.9125 0.9213
2112.231 0.9085 0.9033 0.9478 0.9274 0.918 0.9289 0.8962 0.8519 0.8098 0.7962
2131.521 0.7896 0.813 0.826 0.8423 0.8784 0.8456 0.8788 0.8564 0.7952 0.7887
2150.810 0.7429 0.7843 0.8295 0.8057 0.8213 0.8055 0.789 0.8154 0.8504 0.8828
2170.100 0.9001 0.866 0.8135 0.8211 0.8164 0.7914 0.7834 0.7858 0.7498 0.7566
2189.390 0.7975 0.7539 0.7356 0.7959 0.7924 0.8228 0.8713 0.8121 0.7811 0.8536
2208.680 0.8947 0.8722 0.8719 0.8526 0.869 0.8952 0.8697 0.8668 0.8002 0.7348
2227.970 0.7216 0.7687 0.8525 0.8985 0.8886 0.8379 0.877 0.9166 0.8844 0.8846
2247.259 0.9654 0.9974 1.0201 1.0422 1.0055 1.0192 1.0042 1.0088 1.0724 1.04
2266.549 0.9432 0.9153 0.9766 1.005 0.9892 0.9765 0.995 0.993 0.9776 0.9977
2285.839 1.0221 1.0153 1.007 1.0091 1.0355 1.0635 1.1276 1.122 1.0979 1.1252
2305.129 1.0787 1.0896 1.154 1.154 1.1479 1.1801 1.1571 1.1642 1.306 1.346
2324.418 1.276 1.266 1.286 1.286 1.2301 1.246 1.306 1.316 1.2319 1.1973
2343.708 1.1778 1.1116 1.0975 1.043 1.018 1.0357 0.9852 0.9666 0.9702 0.9722
2362.998 1.0176 1.0483 1.0509 1.0713 1.0562 1.053 1.1105 1.1405 1.1084 1.0506
2382.288 1.0474 1.0956 1.1698 1.1725 1.1763 1.2022 1.1811 1.1721 1.1663 1.1574
2401.578 1.131 1.2043 1.256 1.1935 1.1848 1.1981 1.2022 1.2217 1.256 1.296
2420.867 1.2232 1.2058 1.2293 1.2345 1.266 1.2327 1.1967 1.1892 1.1881 1.2086
2440.157 1.286 1.256 1.276 1.296 1.2393 1.1796 1.1981 1.2212 1.223 1.306
2459.447 1.296 1.286 1.316 1.316 1.296 1.286 1.286 1.296 1.336 1.376
2478.737 1.416 1.396 1.386 1.376 1.466 1.506 1.496 1.496 1.426 1.436
2498.026 1.436 1.416 1.406 1.456 1.526 1.516 1.486 1.546 1.566 1.546
2517.316 1.526 1.406 1.336 1.356 1.446 1.456 1.366 1.376 1.426 1.416
2536.606 1.406 1.436 1.466 1.466 1.456 1.466 1.566 1.576 1.526 1.636
2555.896 1.656 1.626 1.656 1.706 1.756 1.806 1.876 1.906 1.876 1.956
2575.186 2.026 2.016 2.096 2.186 2.196 2.196 2.196 2.166 2.266 2.346
2594.475 2.416 2.446 2.396 2.416 2.406 2.386 2.406 2.436 2.396 2.356
2613.765 2.376 2.326 2.316 2.306 2.236 2.226 2.246 2.246 2.166 2.106
2633.055 2.076 2.066 2.076 2.046 2.046 2.106 2.086 2.126 2.266 2.326
2652.345 2.296 2.296 2.396 2.476 2.606 2.776 2.876 2.966 3.056 3.186
2671.634 3.366 3.596 3.936 4.336 4.696 5.276 5.926 6.506 7.176 7.896
2690.924 8.676 9.466 10.076 10.836 11.796 12.736 13.926 15.366 17.006 19.056
2710.214 21.416 24.006 26.806 29.276 31.166 32.086 31.586 29.716 26.796 23.426
2729.504 20.106 17.156 14.936 13.416 12.476 12.266 12.476 12.966 13.716 14.366
2748.794 14.546 14.256 13.516 12.286 10.906 9.516 8.196 7.156 6.506 6.006
2768.083 5.636 5.556 5.426 5.286 5.286 5.336 5.336 5.456 5.606 5.746
2787.373 5.956 6.206 6.406 6.616 6.866 7.046 7.326 7.626 8.006 8.566
2806.663 9.086 9.636 10.256 10.816 11.406 11.986 12.496 13.156 13.896 14.526
2825.953 15.256 16.066 16.836 17.526 18.046 18.466 18.776 18.866 18.816 18.576
2845.242 18.246 17.846 17.386 16.836 16.296 15.856 15.506 15.146 14.746 14.416
2864.532 14.216 13.916 13.636 13.596 13.546 13.526 13.536 13.536 13.616 13.706
2883.822 13.746 13.696 13.636 13.486 13.246 13.016 12.806 12.596 12.366 12.216
2903.112 12.056 11.926 11.766 11.566 11.546 11.556 11.466 11.466 11.776 12.176
2922.401 12.416 12.866 13.476 14.186 15.016 15.896 16.826 17.666 18.046 17.906
2941.691 17.506 16.946 16.376 15.886 15.606 15.796 16.466 17.586 19.146 21.056
2960.981 23.116 24.796 25.776 26.106 25.856 25.256 24.326 23.276 22.216 21.096
2980.271 19.816 18.416 17.056 15.876 14.796 13.756 12.966 12.426 12.066 12.016
2999.561 12.276 12.926 13.956 15.046 16.006 16.516 16.396 15.706 14.526 13.116
3018.850 11.926 11.016 10.246 9.666 9.176 8.656 8.166 7.636 7.186 6.786
3038.140 6.316 5.926 5.616 5.316 5.126 4.966 4.846 4.846 4.936 5.046
3057.430 5.116 5.166 5.236 5.366 5.506 5.606 5.756 5.876 5.786 5.716
3076.720 5.676 5.706 5.836 5.956 6.186 6.226 6.046 5.896 5.786 5.706
3096.009 5.486 5.146 4.926 4.696 4.406 4.376 4.406 4.306 4.216 4.126
3115.299 3.866 3.606 3.436 3.206 2.876 2.646 2.436 2.256 2.106 1.766
3134.589 1.476 1.406 1.316 1.1577 1.1578 1.1618 1.0769 1.0505 0.8831 0.7932
3153.879 0.8793 0.8074 0.8444 0.9947 0.9552 0.8665 0.8288 0.7238 0.5737 0.6214
3173.169 0.6939 0.6652 0.666 0.6492 0.6587 0.5948 0.5647 0.6791 0.6597 0.5197
3192.458 0.5034 0.5548 0.6045 0.6001 0.5205 0.5505 0.6676 0.5808 0.4957 0.5899
3211.748 0.6123 0.4607 0.4983 0.5587 0.5088 0.5 0.4543 0.4408 0.4117 0.3316
3231.038 0.249051 0.3516 0.4298 0.3836 0.4466 0.5827 0.51 0.30125 0.245931 0.27153
3250.328 0.23661 0.101 0.032 0.099 0.2051 0.33368 0.3528 0.295 0.34325 0.336
3269.617 0.33438 0.3601 0.4085 0.3794 0.33872 0.3835 0.31282 0.29308 0.30574 0.331
3288.907 0.29724 0.26006 0.3475 0.409 0.4004 0.3971 0.4602 0.4165 0.27455 0.32997
3308.197 0.3854 0.31545 0.30924 0.3339 0.32846 0.4052 0.3928 0.4355 0.4473 0.3583
3327.487 0.3477 0.3729 0.4464 0.3761 0.32188 0.32905 0.3776 0.4098 0.5541 0.5649
3346.777 0.5106 0.5161 0.5444 0.6482 0.6556 0.6343 0.5337 0.4764 0.5248 0.5624
3366.066 0.5936 0.7739 0.9745 1.051 1.171 1.356 1.536 1.546 1.526 1.816
3385.356 1.876 1.796 1.786 1.946 2.116 2.166 2.196 2.246 2.306 2.056
3404.646 1.796 1.666 1.506 1.266 1.036 0.8815 0.8386 0.7497 0.7034 0.689
3423.936 0.6213 0.5511 0.5331 0.5807 0.5186 0.4519 0.4705 0.4065 0.3859 0.4726
3443.225 0.3683 0.34541 0.4153 0.32733 0.34549 0.3816 0.30198 0.31589 0.319 0.26343
3462.515 0.26409 0.2306 0.23667 0.198 0.105 0.091 0.1592 0.1797 0.2295 0.29055
3481.805 0.2191 0.144 0.2074 0.26535 0.1721 0.27675 0.31699 0.26447 0.30623 0.24214
3501.095 0.3469 0.3667 0.27055 0.24018 0.114 0.061 0.1643 0.1752 0.006 0
3520.385 0.1819 0.27173 0.29321 0.25937 0.119 0.139 0.143 0.083 0.116 0.1654
3539.674 0.3338 0.31229 0.148 0.1712 0.31817 0.3648 0.114 0.142 0.30448 0.2224
3558.964 0.27397 0.2272 0.06 0.06 0.2229 0.27536 0.1731 0.1778 0.2001 0.1931
3578.254 0.1586 0.186 0.29234 0.27216 0.179 0.101 0.113 0.145 0.116 0.1818
3597.544 0.26258 0.2025 0.1487 0.092 0.091 0.2108 0.30324 0.30126 0.29454 0.247899
3616.833 0.1925 0.229 0.1564 0.1531 0.28137 0.26883 0.084 0.1859 0.1992 0.131
3636.123 0.1946 0.146 0.2153 0.203 0.1573 0.2029 0.27902 0.27131 0.27086 0.1563
3655.413 0.084 0.11 0.099 0.2089 0.29153 0.21 0.1542 0.119 0.077 0.122
3674.703 0.2114 0.1998 0.1523 0.2244 0.27498 0.34085 0.26606 0.2101 0.1507 0.1703
3693.993 0.2107 0.13 0.2048 0.251963 0.2112 0.2308 0.3468 0.4011 0.29102 0.2089
3713.282 0.092 0.101 0.27773 0.29488 0.27011 0.1993 0.1641 0.31987 0.32262 0.3814
3732.572 0.4639 0.28254 0.1767 0.2245 0.3726 0.3556 0.23732 0.259 0.274 0.28961
3751.862 0.27109 0.2696 0.34255 0.33093 0.2145 0.115 0.135 0.27027 0.24553 0.13
3771.152 0.2317 0.2069 0.2196 0.2757 0.1809 0.127 0.117 0.129 0.1834 0.2031
3790.441 0.24012 0.2077 0.109 0.089 0.109 0.1968 0.1646 0.2131 0.32381 0.31823
3809.731 0.1866 0.1526 0.30878 0.4583 0.4037 0.1804 0.1792 0.198 0.1656 0.2339
3829.021 0.1919 0.084 0.073 0.1639 0.188 0.1488 0.145 0.1869 0.23765 0.31083
3848.311 0.28301 0.32246 0.3561 0.34532 0.31963 0.27177 0.4144 0.4395 0.3497 0.4289
3867.601 0.4057 0.255356 0.2101 0.2159 0.27829 0.27371 0.1946 0.143 0.26634 0.3933
3886.890 0.24273 0.1643 0.2256 0.2777 0.3738 0.3904 0.28496 0.105 0.116 0.247383
3906.180 0.23777 0.30538 0.33663 0.31374 0.28667 0.2328 0.2007 0.255062 0.31406 0.32645
3925.470 0.31296 0.2216 0.32145 0.2259 0.1713 0.2436 0.250548 0.28992 0.253572 0.2043
3944.760 0.30144 0.4061 0.4075 0.3764 0.34047 0.4323 0.3766 0.28182 0.25627 0.28555
3964.049 0.4588 0.5503 0.4656 0.3584 0.2665 0.3815 0.4772 0.4768 0.5198 0.5786
3983.339 0.5833 0.456 0.5114 0.5983 0.4886 0.4442 0.5392 0.3961 0.173 0.2886
##END=
