##TITLE=3,3,5,5-Tetramethylcyclohexanol
##JCAMP-DX=4.24
##DATA TYPE=INFRARED SPECTRUM
##ORIGIN=NIST Mass Spectrometry Data Center
##OWNER=NIST Standard Reference Data Program
Collection (C) 2018 copyright by the U.S. Secretary of Commerce
on behalf of the United States of America. All rights reserved.
##CAS REGISTRY NO=2650-40-0
##MOLFORM=C 10 H 20 O
##$NIST SOURCE=MSDC-IR
##SPECTROMETER/DATA SYSTEM=HP-GC/MS/IRD
##STATE=gas
##XUNITS=1/CM
##YUNITS=ABSORBANCE
##XFACTOR=1.0
##YFACTOR=0.000003800
##DELTAX=4.0
##FIRSTX=550.0
##LASTX=3846.0
##FIRSTY=0.000057
##MAXX=3846
##MINX=550
##MAXY=0.038
##MINY=0
##NPOINTS=825
##XYDATA=(X++(Y..Y))
550.0 15 19 16 4 22 31 12 4 5 8
590.0 11 18 31 31 35 48 50 43 30 34
630.0 53 42 35 38 36 32 27 47 46 36
670.0 45 45 38 41 66 66 43 40 36 39
710.0 51 44 39 42 34 36 34 20 25 40
750.0 38 29 45 65 73 95 114 117 113 107
790.0 106 100 86 65 65 75 70 71 113 106
830.0 60 60 68 75 85 105 135 165 199 239
870.0 246 230 223 229 263 332 420 502 545 525
910.0 462 382 314 287 291 305 323 343 364 411
950.0 472 504 506 490 447 390 369 403 494 654
990.0 888 1121 1295 1376 1336 1212 1079 1023 1128 1391
1030.0 1793 2337 2970 3515 3814 3718 3192 2402 1594 996
1070.0 654 489 411 367 334 309 289 265 249 250
1110.0 261 278 286 303 339 377 436 513 585 647
1150.0 684 675 650 621 601 600 630 676 726 774
1190.0 814 841 851 833 796 761 755 770 801 853
1230.0 926 995 1047 1084 1065 998 898 783 690 621
1270.0 570 555 553 559 582 603 622 644 656 643
1310.0 617 585 561 536 520 530 562 630 733 851
1350.0 998 1190 1437 1671 1885 2080 1992 1782 1677 1581
1390.0 1517 1395 1207 981 731 552 458 424 425 449
1430.0 492 544 602 672 777 934 1122 1304 1508 1563
1470.0 1451 1336 1164 958 759 586 439 328 251 210
1510.0 168 130 116 104 91 84 78 79 80 72
1550.0 60 55 59 51 44 42 44 43 38 39
1590.0 39 36 35 39 39 37 42 45 39 34
1630.0 33 41 38 32 33 36 37 28 26 24
1670.0 25 27 22 25 29 20 24 28 23 20
1710.0 21 25 23 16 12 16 26 24 13 10
1750.0 14 9 7 10 8 9 5 6 9 9
1790.0 12 9 4 6 6 7 9 9 11 11
1830.0 9 9 8 8 9 8 5 3 8 10
1870.0 7 4 2 1 3 6 6 4 4 3
1910.0 6 10 9 6 8 8 9 10 9 8
1950.0 5 2 5 7 7 6 7 4 1 4
1990.0 4 7 8 9 8 8 8 8 12 11
2030.0 10 11 15 13 16 17 15 14 13 13
2070.0 12 13 12 11 11 13 13 9 7 8
2110.0 5 2 6 9 10 11 9 9 9 11
2150.0 10 7 9 12 9 3 1 5 4 0
2190.0 1 3 5 8 10 5 5 9 10 11
2230.0 9 7 5 6 8 11 11 10 8 7
2270.0 10 13 13 14 15 17 19 16 14 14
2310.0 13 15 14 15 17 15 19 23 22 18
2350.0 20 26 28 27 25 22 20 20 22 22
2390.0 25 29 26 23 27 27 28 26 25 28
2430.0 30 33 34 35 28 28 33 34 32 36
2470.0 40 34 33 34 35 37 33 30 33 38
2510.0 36 33 35 38 37 34 37 38 37 42
2550.0 48 48 49 48 48 51 53 57 59 63
2590.0 68 67 65 68 73 76 76 78 83 88
2630.0 86 87 90 99 107 111 121 125 128 135
2670.0 131 131 137 139 140 147 152 153 164 176
2710.0 186 197 208 214 215 211 208 205 206 208
2750.0 206 206 209 221 239 257 276 286 291 295
2790.0 300 314 331 359 398 450 517 594 692 817
2830.0 992 1232 1537 1865 2147 2343 2459 2562 2731 2980
2870.0 3296 3626 3913 4145 4397 4774 5324 5948 6585 7051
2910.0 7231 7333 7401 7481 7576 7517 7210 6854 6733 7126
2950.0 8088 9148 10000 9794 8120 6062 4185 2904 2326 2145
2990.0 2108 2050 1934 1737 1444 1140 869 642 492 404
3030.0 345 302 275 248 222 205 195 189 183 176
3070.0 174 178 179 179 173 170 165 158 151 147
3110.0 141 141 144 144 149 149 144 138 136 136
3150.0 133 125 121 128 130 127 128 131 135 138
3190.0 143 149 144 137 131 126 119 112 105 94
3230.0 92 91 80 71 69 59 53 49 45 44
3270.0 41 40 39 32 32 36 35 35 37 34
3310.0 37 43 40 45 47 39 40 43 35 32
3350.0 36 39 39 40 38 38 46 46 41 43
3390.0 47 53 55 50 46 43 41 43 48 49
3430.0 46 43 39 45 56 60 60 54 47 45
3470.0 41 31 25 24 22 17 19 19 16 19
3510.0 20 23 24 22 17 17 12 5 5 12
3550.0 11 5 10 18 21 16 9 12 20 21
3590.0 25 33 30 25 31 44 58 80 111 166
3630.0 237 316 415 514 587 613 545 431 298 188
3670.0 125 89 62 39 32 26 21 25 26 20
3710.0 19 23 27 33 35 33 38 38 32 32
3750.0 35 31 26 27 35 40 37 38 40 39
3790.0 36 34 40 45 37 31 39 50 55 49
3830.0 41 49 58 56 55
##END=
