##TITLE=2-Methyl-3-octanol
##JCAMP-DX=4.24
##DATA TYPE=INFRARED SPECTRUM
##ORIGIN=NIST Mass Spectrometry Data Center
##OWNER=NIST Standard Reference Data Program
Collection (C) 2018 copyright by the U.S. Secretary of Commerce
on behalf of the United States of America. All rights reserved.
##CAS REGISTRY NO=26533-34-6
##MOLFORM=C 9 H 20 O
##$NIST SOURCE=MSDC-IR
##SPECTROMETER/DATA SYSTEM=HP-GC/MS/IRD
##STATE=gas
##XUNITS=1/CM
##YUNITS=ABSORBANCE
##XFACTOR=1.0
##YFACTOR=0.000003000
##DELTAX=4.0
##FIRSTX=550.0
##LASTX=3846.0
##FIRSTY=0.000591
##MAXX=3846
##MINX=550
##MAXY=0.03
##MINY=0
##NPOINTS=825
##XYDATA=(X++(Y..Y))
550.0 197 100 75 103 85 81 87 54 27 50
590.0 58 55 68 76 55 44 74 66 52 49
630.0 25 12 17 18 7 9 20 19 29 23
670.0 12 39 38 17 16 9 29 40 40 66
710.0 80 95 104 112 104 92 104 96 95 100
750.0 93 80 78 98 109 103 118 125 108 92
790.0 83 85 102 116 119 120 121 135 160 139
830.0 124 133 127 128 134 135 126 123 130 128
870.0 138 163 176 195 222 248 272 307 330 347
910.0 375 391 400 434 492 567 645 715 781 828
950.0 847 849 837 825 826 844 874 926 995 1070
990.0 1138 1212 1277 1328 1363 1386 1395 1400 1383 1338
1030.0 1281 1210 1120 1041 987 926 862 815 788 766
1070.0 758 752 742 741 751 762 771 774 787 793
1110.0 784 791 772 746 753 773 788 782 768 735
1150.0 686 658 643 639 630 616 585 555 543 526
1190.0 512 520 534 548 567 597 623 647 670 688
1230.0 719 745 753 758 749 726 701 694 669 648
1270.0 641 619 606 598 580 570 562 553 549 542
1310.0 528 509 486 470 470 481 502 536 570 610
1350.0 650 709 803 915 1034 1142 1244 1329 1381 1405
1390.0 1371 1253 1078 882 710 587 505 462 453 459
1430.0 486 541 611 703 824 969 1121 1279 1395 1455
1470.0 1432 1298 1095 873 670 510 401 325 267 237
1510.0 209 185 164 151 141 123 111 106 99 90
1550.0 82 77 78 70 60 57 58 55 55 53
1590.0 51 51 45 44 43 38 45 46 38 40
1630.0 40 42 42 39 40 44 40 34 34 32
1670.0 26 25 22 21 21 19 20 23 21 16
1710.0 17 18 20 17 13 12 11 9 8 9
1750.0 11 6 4 8 6 7 12 7 5 3
1790.0 3 7 6 3 0 2 7 4 2 4
1830.0 2 3 4 5 4 6 5 1 3 5
1870.0 9 12 13 12 12 11 7 9 4 4
1910.0 10 3 6 13 12 10 7 8 11 17
1950.0 15 14 18 15 6 3 1 0 7 12
1990.0 7 3 5 6 4 5 9 6 3 6
2030.0 12 13 9 10 11 10 8 3 5 11
2070.0 6 1 1 5 15 11 2 3 8 4
2110.0 4 2 7 12 6 6 5 7 12 12
2150.0 10 6 4 8 14 13 14 13 6 8
2190.0 14 13 10 8 8 11 11 10 9 7
2230.0 8 6 9 11 11 14 15 12 4 6
2270.0 12 16 22 24 20 20 22 19 17 20
2310.0 19 11 12 21 26 29 26 22 29 26
2350.0 17 21 21 21 25 30 31 29 32 26
2390.0 19 22 25 33 32 23 19 19 28 28
2430.0 20 19 18 23 21 16 21 21 18 17
2470.0 15 14 17 16 17 16 17 17 17 18
2510.0 17 22 20 14 22 30 29 28 35 39
2550.0 36 38 43 49 57 58 60 65 72 77
2590.0 82 82 83 91 97 100 108 104 100 106
2630.0 108 111 114 111 110 116 119 121 124 132
2670.0 139 145 148 145 146 148 145 151 161 165
2710.0 168 177 192 197 205 220 233 242 244 245
2750.0 245 246 249 258 266 280 296 306 318 334
2790.0 355 381 408 433 471 518 570 628 699 785
2830.0 892 1042 1245 1512 1863 2299 2812 3331 3826 4252
2870.0 4587 4865 5032 5064 4972 4810 4653 4622 4758 5026
2910.0 5406 5894 6514 7266 8085 8853 9434 9680 9549 9136
2950.0 8682 8507 8852 9558 10000 9685 8536 6810 5078 3710
2990.0 2722 2045 1589 1276 1047 875 744 652 581 525
3030.0 477 437 411 368 330 309 282 258 245 239
3070.0 230 214 208 198 194 195 189 174 161 156
3110.0 157 153 138 136 136 125 116 113 125 127
3150.0 115 117 121 119 122 120 113 115 116 110
3190.0 102 92 79 65 67 70 69 62 45 43
3230.0 35 21 23 19 18 31 32 24 26 26
3270.0 18 11 10 13 17 21 17 20 28 21
3310.0 12 22 21 19 22 22 24 23 23 19
3350.0 7 5 6 19 29 28 20 17 25 38
3390.0 36 31 36 33 43 46 38 42 42 41
3430.0 47 49 48 37 35 37 40 45 45 35
3470.0 36 43 37 36 42 36 35 38 29 23
3510.0 27 22 23 33 25 26 28 26 24 25
3550.0 33 35 26 24 29 22 25 33 34 39
3590.0 43 49 52 61 74 85 94 116 149 165
3630.0 184 218 267 322 390 461 520 550 534 465
3670.0 388 306 221 162 124 106 93 76 64 62
3710.0 52 50 60 64 63 56 50 50 53 54
3750.0 40 34 44 47 52 46 33 36 40 44
3790.0 47 51 57 64 62 61 63 61 59 52
3830.0 54 60 59 72 71
##END=
