##TITLE=2-Methyl-4-nonanol
##JCAMP-DX=4.24
##DATA TYPE=INFRARED SPECTRUM
##ORIGIN=NIST Mass Spectrometry Data Center
##OWNER=NIST Standard Reference Data Program
Collection (C) 2018 copyright by the U.S. Secretary of Commerce
on behalf of the United States of America. All rights reserved.
##CAS REGISTRY NO=26533-31-3
##MOLFORM=C 10 H 22 O
##$NIST SOURCE=MSDC-IR
##SPECTROMETER/DATA SYSTEM=HP-GC/MS/IRD
##STATE=gas
##XUNITS=1/CM
##YUNITS=ABSORBANCE
##XFACTOR=1.0
##YFACTOR=0.000003400
##DELTAX=4.0
##FIRSTX=550.0
##LASTX=3846.0
##FIRSTY=0.000442
##MAXX=3846
##MINX=550
##MAXY=0.034
##MINY=0
##NPOINTS=825
##XYDATA=(X++(Y..Y))
550.0 130 115 126 144 123 103 88 80 96 99
590.0 75 53 38 39 36 33 54 62 55 66
630.0 56 35 27 28 32 29 34 45 42 33
670.0 15 9 9 3 16 22 21 32 30 42
710.0 58 79 95 108 127 133 118 105 105 96
750.0 86 87 80 82 100 94 77 75 78 70
790.0 76 83 79 96 112 119 139 154 185 216
830.0 229 245 253 265 267 248 216 188 173 160
870.0 160 158 153 147 148 174 193 203 230 269
910.0 310 354 405 450 480 513 531 543 549 528
950.0 508 481 443 422 424 432 444 467 507 555
990.0 601 649 705 762 821 886 951 996 1029 1060
1030.0 1074 1065 1032 990 936 863 796 741 692 651
1070.0 622 614 601 597 606 609 619 639 655 667
1110.0 689 717 751 796 853 902 930 926 873 807
1150.0 741 676 632 622 627 615 587 542 517 511
1190.0 521 536 555 578 594 607 620 624 615 602
1230.0 593 589 596 603 604 603 610 616 616 618
1270.0 618 617 606 586 573 549 525 500 479 473
1310.0 472 460 453 467 498 533 563 603 651 693
1350.0 746 816 912 1037 1163 1262 1330 1359 1351 1290
1390.0 1175 1017 847 699 589 516 468 442 437 452
1430.0 494 555 625 711 803 907 1029 1149 1235 1271
1470.0 1216 1069 873 675 512 393 308 253 217 186
1510.0 162 142 121 104 92 83 74 68 69 64
1550.0 57 52 44 45 48 46 44 43 42 38
1590.0 40 37 36 36 37 38 30 27 30 31
1630.0 33 30 29 25 21 21 21 25 19 14
1670.0 19 21 23 18 16 22 25 17 15 20
1710.0 22 20 13 13 18 21 18 9 4 5
1750.0 8 9 7 8 9 5 5 4 2 2
1790.0 4 5 6 8 7 7 11 9 5 7
1830.0 7 7 1 2 7 10 11 7 5 3
1870.0 1 3 8 9 5 6 7 5 3 0
1910.0 3 6 5 6 4 4 3 2 6 7
1950.0 3 5 5 2 3 5 6 11 11 6
1990.0 5 5 5 7 9 7 2 4 8 4
2030.0 3 10 12 9 11 12 10 10 12 12
2070.0 12 16 12 6 8 12 8 7 10 6
2110.0 4 4 3 7 14 17 14 9 10 13
2150.0 13 10 12 11 9 10 9 10 13 11
2190.0 15 16 15 11 8 8 7 5 7 10
2230.0 6 6 8 6 6 5 3 5 9 11
2270.0 9 6 5 9 12 13 15 14 12 11
2310.0 12 14 13 13 16 18 20 15 13 16
2350.0 15 16 19 18 17 19 19 17 20 21
2390.0 21 20 21 27 26 25 24 23 24 26
2430.0 25 25 23 18 19 22 21 17 14 16
2470.0 21 25 24 24 23 21 20 19 20 23
2510.0 20 20 27 27 28 32 30 30 31 34
2550.0 37 40 47 49 49 53 54 56 58 63
2590.0 67 71 75 77 85 87 86 91 98 97
2630.0 96 103 106 110 112 115 117 121 126 130
2670.0 130 132 131 133 139 141 145 149 151 154
2710.0 161 171 179 186 196 211 222 227 231 228
2750.0 225 224 223 225 231 243 260 274 287 301
2790.0 321 346 376 404 438 476 530 595 666 750
2830.0 857 996 1178 1401 1677 2013 2405 2826 3247 3645
2870.0 4005 4305 4517 4574 4477 4328 4248 4349 4657 5140
2910.0 5744 6436 7221 8088 8950 9648 10000 9896 9376 8687
2950.0 8188 8207 8810 9533 9610 8627 6838 4899 3395 2452
2990.0 1860 1464 1194 998 844 713 612 540 480 432
3030.0 390 357 328 301 281 265 250 235 225 216
3070.0 205 202 197 187 182 174 167 161 159 156
3110.0 142 128 124 119 110 109 109 112 112 107
3150.0 101 103 109 110 103 94 94 96 102 99
3190.0 89 81 77 76 69 52 43 43 41 36
3230.0 30 24 20 20 23 21 16 19 22 20
3270.0 21 22 18 14 11 7 7 4 6 11
3310.0 13 14 10 11 11 15 21 21 20 18
3350.0 21 16 13 20 23 28 35 34 27 25
3390.0 32 28 23 23 26 28 23 22 25 22
3430.0 20 27 29 24 20 24 23 21 22 17
3470.0 16 11 12 20 18 11 13 18 11 6
3510.0 8 6 7 16 18 12 8 15 24 17
3550.0 5 6 15 16 11 10 8 6 9 14
3590.0 19 22 25 31 39 54 68 83 106 143
3630.0 173 200 250 315 388 437 452 421 348 268
3670.0 193 141 103 78 65 53 45 41 33 22
3710.0 18 15 20 28 29 29 24 16 14 19
3750.0 23 33 26 18 29 37 34 35 35 30
3790.0 31 35 36 33 26 23 21 29 37 33
3830.0 40 31 23 30 25
##END=
