##TITLE=8-Phenyloctanoic acid
##JCAMP-DX=4.24
##DATA TYPE=INFRARED SPECTRUM
##ORIGIN=EPA-IR VAPOR PHASE LIBRARY
##OWNER=SRD/NIST
Collection (C) 2018 copyright by the U.S. Secretary of Commerce
on behalf of the United States of America. All rights reserved.
##CAS REGISTRY NO=26547-51-3
##MOLFORM=C 14 H 20 O 2
##$NIST SOURCE=MSDC-IR
##STATE=gas
##XUNITS=1/CM
##YUNITS=ABSORBANCE
##XFACTOR=1.
##YFACTOR=0.001
##DELTAX=1.92898
##FIRSTX=549.8
##LASTX=4000.7
##FIRSTY=56.57
##MAXX=4000.7
##MINX=549.759
##MAXY=0.41308
##MINY=0.0001036
##NPOINTS=1790
##XYDATA=(X++(Y..Y))
549.759 56.57 58.95 61.5 64.03 66.19 67.55 68.44 69.07 69.92 70.89
569.049 70.81 69.73 68.56 68.22 68.23 67.99 67.74 68.36 69.69 70.67
588.339 71.42 72.05 72.45 73.11 73.46 72.99 72.85 72.87 72.65 72.55
607.628 72.39 72.26 71.8 70.78 69.68 68.66 67.75 66.78 65.86 64.81
626.918 63.56 62.29 60.94 58.92 56.55 54.02 51.34 48.82 46.29 44.14
646.208 42.13 40.29 38.6 37.26 36.45 35.56 35.02 34.44 34.06 34.43
665.498 34.7 35.33 36.33 37.52 39.17 41.08 43.75 46.72 50.2 54.8
684.787 60.18 67.16 76.38 87.66 99.78 109.25 114.31 114.44 109.15 100.63
704.077 92.48 86.16 81.22 77.52 74.51 72.36 71.18 70.5 70.14 70.15
723.367 70.3 70.97 72.41 73.99 76.16 78.56 80.51 81.98 82.1 80.52
742.657 77.35 72.46 66.68 60.5 54.33 48.83 44.06 39.79 35.99 33.01
761.947 30.2 27.8 26.21 24.61 22.86 21.25 19.96 19.05 18.15 16.79
781.236 15.53 14.82 13.97 12.73 11.95 11.47 11 10.8 10.25 9.79
800.526 9.51 9.03 8.85 8.67 8.35 8.5 8.87 8.56 8.36 8.28
819.816 7.81 7.64 7.97 8.31 8.32 8.32 8.44 8.45 8.44 8.64
839.106 8.73 8.57 8.68 8.9 8.93 9.13 9.12 9.14 9.2 9.2
858.395 9.39 9.6 9.66 9.74 9.95 9.79 9.6 9.8 9.79 9.83
877.685 9.99 10.07 10.25 10.37 10.42 10.39 10.65 10.85 10.78 10.94
896.975 11.35 11.89 12.29 12.51 12.74 12.68 12.25 11.55 10.85 10.5
916.265 10.1 9.62 9.3 9.06 9.05 9.12 9 8.74 8.51 8.5
935.555 8.72 8.51 8.5 8.69 8.72 8.91 8.74 8.92 9.23 9.35
954.844 9.43 9.48 9.77 9.99 10.38 10.71 10.86 11.02 11.28 11.66
974.134 12.15 12.69 12.92 12.9 13.3 13.91 14.46 15.32 15.66 15.7
993.424 16.21 16.66 17.31 18.05 18.27 18.75 19.32 19.74 20.29 21.27
1012.714 22.27 23.14 24.68 26.46 28.28 30.78 34.05 37.34 39.95 41.44
1032.003 41.6 40.93 40.28 40.2 41.05 42.59 44.77 47.48 50.99 54.9
1051.293 58.73 62.72 66.02 69.66 73.76 77.28 80.49 83.15 86.35 89.54
1070.583 92.52 95.88 99.65 103.5 107.37 111.11 113.19 115.85 119.14 121.43
1089.873 123.7 125.8 128.92 132.03 135.49 141.49 148.22 155.8 165.01 174.62
1109.163 183.94 193.98 204.64 214.44 222.11 226.57 227.26 223.9 218.41 211.56
1128.452 202.78 192.47 182.29 173.12 164.3 156.87 150.95 144.78 139.97 136.73
1147.742 132.05 127.4 123.65 119.98 116.64 112.84 109.62 106.93 103.93 101.16
1167.032 98.76 96.37 93.85 91.53 88.83 86.45 84.09 81.55 78.93 76.34
1186.322 74.08 71.68 69.35 67.26 65.42 63.28 61.52 59.71 57.77 56.55
1205.611 55.12 54.11 53.1 50.85 49.06 47.89 45.91 43.91 42.9 42.39
1224.901 41.77 40.58 39.64 39.21 38.21 37.81 38.05 37.37 37.03 36.87
1244.191 36.29 36.21 36.25 36.05 36.28 36.54 36.8 37.26 37.17 36.72
1263.481 36.75 36.66 36.33 36.37 36.36 36.12 35.96 35.76 35.68 35.71
1282.771 35.49 35.3 35.14 35.06 34.76 34.35 34.25 34.12 33.96 33.91
1302.060 33.72 33.47 33.35 33.34 33.31 33.13 32.98 32.97 33.04 33.18
1321.350 33.36 33.75 34.36 35.06 36.04 37.24 38.57 40.18 42.02 43.96
1340.640 45.95 48.01 50.15 52.36 54.39 56.16 57.59 58.62 59.23 59.66
1359.930 60.09 60.45 61 61.67 62.37 62.96 63.32 63.5 63.44 63.05
1379.219 62.39 61.45 60.02 58.04 55.56 52.62 49.41 45.99 42.65 39.56
1398.509 36.62 34.05 31.86 29.92 28.41 27.36 26.51 25.94 25.71 25.73
1417.799 25.98 26.62 27.56 28.59 29.65 30.7 31.94 33.24 34.52 35.92
1437.089 37.71 39.98 42.62 45.76 49.19 52.46 55.62 58.45 60.65 62.06
1456.378 62.71 62.43 60.77 57.87 54.05 49.57 44.87 40.22 35.89 32.05
1475.668 28.86 26.38 24.88 24.4 25.03 26.83 29.87 34.35 40 45.6
1494.958 49.37 49.78 46.61 40.43 32.25 24.53 18.8 14.94 12.29 10.4
1514.248 9.15 8.27 7.63 7.19 7.01 6.93 6.77 6.68 6.76 6.84
1533.538 6.75 6.55 6.52 6.38 6.13 5.97 5.78 5.66 5.65 5.57
1552.827 5.4 5.35 5.42 5.48 5.57 5.72 5.93 6.18 6.54 6.97
1572.117 7.35 7.83 8.53 9.38 10.13 11.18 12.22 13.21 14.49 15.84
1591.407 17.33 18.97 20.88 22.95 24.79 26.27 26.82 26.07 23.96 20.92
1610.697 17.53 14.29 11.68 9.62 8.11 7.16 6.6 6.08 5.68 5.36
1629.986 5.05 5.01 4.96 4.94 5 4.94 4.89 4.96 5.08 5.09
1649.276 5.03 5.04 5.03 5.04 5.09 5.1 5.16 5.27 5.38 5.41
1668.566 5.54 5.69 5.82 6.01 6.25 6.48 6.77 7.13 7.44 7.82
1687.856 8.32 8.94 9.5 10.08 10.83 11.65 12.46 13.39 14.44 15.57
1707.146 16.91 18.32 20.01 21.91 23.98 26.38 29.03 31.99 35.45 39.35
1726.435 43.71 48.57 53.9 59.67 66.23 73.4 81.21 89.9 99.32 109.55
1745.725 120.42 132.12 144.36 157.48 171.48 186.39 202.73 220.61 240.56 262.81
1765.015 287.18 313.07 339.98 366.03 388.85 405.63 413.08 409.48 395.59 373.37
1784.305 345.95 317.1 289.31 263.83 240.6 219.45 200.13 181.92 164.7 148.09
1803.594 132.31 117.43 103.57 90.98 79.53 69.28 60.33 52.52 45.88 40.15
1822.884 35.28 31.22 27.71 24.82 22.28 20.07 18.3 16.77 15.42 14.31
1842.174 13.37 12.56 11.92 11.41 11.07 10.75 10.43 10.17 10.02 9.92
1861.464 9.78 9.58 9.41 9.26 9.08 8.91 8.74 8.51 8.18 7.85
1880.754 7.58 7.24 6.82 6.37 5.95 5.67 5.45 5.25 5.02 4.91
1900.043 4.84 4.68 4.64 4.64 4.69 4.8 4.84 4.94 5.11 5.28
1919.333 5.47 5.69 6.02 6.43 6.81 7.17 7.57 7.87 7.97 8.05
1938.623 8.13 8.16 8.09 7.95 7.92 7.9 7.79 7.45 6.84 6.12
1957.913 5.52 4.97 4.28 3.72 3.37 3.15 3.02 2.9 2.78 2.74
1977.202 2.82 2.82 2.75 2.71 2.66 2.56 2.46 2.5 2.48 2.4
1996.492 2.4 2.32 2.29 2.33 2.29 2.27 2.27 2.24 2.15 2.08
2015.782 2.19 2.29 2.18 2.18 2.33 2.33 2.36 2.36 2.27 2.31
2035.072 2.33 2.3 2.28 2.21 2.15 2.07 2.13 2.18 2.06 2
2054.362 1.92 1.92 1.93 1.86 1.82 1.84 1.82 1.75 1.79 1.82
2073.651 1.82 1.76 1.76 1.77 1.73 1.82 1.84 1.77 1.71 1.68
2092.941 1.67 1.61 1.66 1.66 1.58 1.63 1.68 1.69 1.68 1.69
2112.231 1.77 1.8 1.83 1.8 1.72 1.83 1.84 1.69 1.76 1.93
2131.521 2.03 1.94 1.89 1.99 1.99 2.03 2.09 2.06 2.02 2.12
2150.810 2.15 2.11 2.17 2.2 2.19 2.31 2.31 2.3 2.38 2.48
2170.100 2.56 2.56 2.57 2.55 2.55 2.63 2.67 2.62 2.64 2.59
2189.390 2.55 2.54 2.58 2.64 2.59 2.58 2.59 2.56 2.58 2.71
2208.680 2.78 2.66 2.56 2.58 2.58 2.49 2.41 2.44 2.45 2.47
2227.970 2.5 2.5 2.52 2.52 2.54 2.55 2.54 2.5 2.48 2.51
2247.259 2.48 2.41 2.38 2.37 2.42 2.41 2.38 2.43 2.34 2.31
2266.549 2.34 2.31 2.29 2.29 2.29 2.17 2.1 2.23 2.29 2.3
2285.839 2.37 2.33 2.23 2.19 2.13 2.12 2.29 2.36 2.34 2.37
2305.129 2.4 2.54 2.65 2.7 2.78 2.85 2.85 2.7 2.53 2.45
2324.418 2.44 2.45 2.44 2.45 2.47 2.48 2.52 2.56 2.52 2.54
2343.708 2.48 2.36 2.36 2.3 2.28 2.41 2.43 2.4 2.34 2.27
2362.998 2.27 2.27 2.25 2.34 2.32 2.15 2.17 2.14 2.08 2.12
2382.288 2.07 1.96 1.98 2.06 1.99 1.97 2.07 2.08 2.04 2.04
2401.578 2.03 2.01 2.04 2.14 2.15 2.04 2.04 2.06 1.96 1.97
2420.867 1.97 1.9 1.91 2.01 2.06 2 1.94 2.05 2.07 1.98
2440.157 2.02 1.98 1.89 1.91 1.91 1.93 1.98 1.94 1.89 1.88
2459.447 1.91 1.93 1.91 1.75 1.73 1.84 1.77 1.74 1.72 1.67
2478.737 1.67 1.59 1.59 1.71 1.75 1.71 1.77 1.74 1.8 1.9
2498.026 1.86 1.89 1.91 2 1.93 1.84 1.99 2 1.97 2.02
2517.316 2.12 2.1 2.04 2.15 2.19 2.1 2.05 2.01 2.01 2.09
2536.606 2.14 2.11 2.02 2.06 2.04 2.07 2.08 1.97 1.9 1.94
2555.896 1.99 1.91 1.96 2.01 1.94 1.92 1.94 1.94 2.01 2.12
2575.186 2.22 2.26 2.3 2.33 2.29 2.28 2.29 2.42 2.58 2.61
2594.475 2.65 2.69 2.73 2.86 2.85 2.8 2.95 3.04 3.06 3.24
2613.765 3.19 3.14 3.18 3.1 3.19 3.36 3.39 3.37 3.49 3.56
2633.055 3.57 3.52 3.52 3.6 3.55 3.62 3.8 3.87 3.92 3.9
2652.345 3.89 3.99 4.06 4.16 4.18 4.14 4.08 4.03 4.11 4.23
2671.634 4.41 4.41 4.38 4.42 4.49 4.64 4.76 4.7 4.74 4.82
2690.924 4.72 4.69 4.67 4.54 4.45 4.5 4.49 4.28 4.27 4.44
2710.214 4.33 4.18 3.99 3.93 3.88 3.75 3.8 3.89 3.94 3.86
2729.504 3.85 3.99 3.96 3.94 3.93 3.94 4.06 4.16 4.23 4.32
2748.794 4.36 4.32 4.33 4.48 4.67 4.84 4.95 5 5.03 5.13
2768.083 5.28 5.35 5.43 5.67 6.01 6.24 6.5 6.83 7.1 7.5
2787.373 7.78 7.88 8.07 8.31 8.65 8.95 9.33 9.76 10.09 10.44
2806.663 10.78 11.13 11.53 12.04 12.75 13.41 14.03 14.93 15.94 16.94
2825.953 18.03 19.2 20.46 21.93 23.52 25.48 27.95 30.74 33.99 38.12
2845.242 43.65 50.73 59.53 70.25 83.06 97.54 112.88 128.06 141.54 151.56
2864.532 157.07 157.45 152.83 144.91 134.81 123.73 113 103.11 94.38 87.18
2883.822 81.6 77.4 74.52 73.04 72.87 73.78 75.94 79.4 84.11 90.1
2903.112 97.25 105.7 115.57 126.92 139.56 153.49 169.04 186.21 205.65 227.51
2922.401 251.67 277.91 305.41 333.36 359.71 382.69 400.57 410.94 411.96 403.49
2941.691 386.22 361.34 331.87 300.49 269.15 239.13 211.5 186.49 164.28 144.84
2960.981 127.7 113.02 100.55 90.08 81.07 73.19 66.47 60.89 56.09 51.66
2980.271 47.67 44.29 41.35 38.65 36.27 34.09 32.41 31.07 29.98 29.59
2999.561 29.7 30.06 30.7 31.55 32.48 33.55 34.88 36.73 39.39 43
3018.850 47.67 53.32 59.88 67.23 74.6 81 85.52 87.07 85.36 80.43
3038.140 72.88 64.23 56.21 49.93 45.52 42.38 40.36 39.85 40.44 42.25
3057.430 45.22 49.33 54.59 60.96 68.02 74.21 77.78 77.74 74.59 68.67
3076.720 61.36 54.94 50.4 47.07 44.4 42.22 39.92 37.33 34.62 31.87
3096.009 29.2 26.96 24.94 22.76 21.06 19.63 18.19 16.7 15.04 13.56
3115.299 11.99 10.34 8.88 7.74 6.77 5.73 4.95 4.65 4.38 3.89
3134.589 3.49 3.23 3.02 2.88 2.66 2.75 2.88 2.73 2.58 2.35
3153.879 2.39 2.61 2.57 2.47 2.36 2.43 2.43 2.2 1.98 1.82
3173.169 1.75 1.53 1.39 1.43 1.43 1.38 1.27 1.25 1.24 1.2
3192.458 0.9815 0.9939 1.15 1.04 0.9507 0.8287 0.8152 0.8421 0.8187 0.7118
3211.748 0.6747 0.641 0.6986 0.7615 0.6963 0.7543 0.6918 0.6933 0.6526 0.505
3231.038 0.4382 0.405 0.4022 0.334 0.301 0.4025 0.5261 0.4815 0.4095 0.3723
3250.328 0.3475 0.4092 0.4573 0.4569 0.6182 0.6766 0.6206 0.6059 0.474 0.3934
3269.617 0.4831 0.5228 0.5237 0.3521 0.365 0.6134 0.5703 0.5802 0.6168 0.4145
3288.907 0.3605 0.3608 0.3225 0.5357 0.5271 0.2654 0.372 0.4633 0.4566 0.3807
3308.197 0.1516 0.2905 0.4165 0.4035 0.3535 0.1532 0.1758 0.3329 0.3349 0.3295
3327.487 0.4083 0.4239 0.3058 0.2352 0.1637 0.2523 0.3747 0.4068 0.2169 0.162
3346.777 0.2359 0.1486 0.1181 0.2043 0.1036 0.141 0.2528 0.219 0.2787 0.2393
3366.066 0.1736 0.1733 0.2089 0.3029 0.414 0.3939 0.5147 0.6388 0.586 0.457
3385.356 0.4666 0.6806 0.6742 0.4396 0.4247 0.4941 0.4738 0.4472 0.3836 0.3422
3404.646 0.5961 0.5027 0.2516 0.3281 0.3523 0.4743 0.626 0.4585 0.311 0.3351
3423.936 0.3462 0.313 0.4687 0.6433 0.5535 0.5254 0.5995 0.6375 0.5783 0.7067
3443.225 0.6153 0.4659 0.3741 0.2896 0.4379 0.4748 0.4994 0.5643 0.6503 0.6331
3462.515 0.7586 0.7834 0.6446 0.8367 0.905 1.02 1.04 1 1.03 1.06
3481.805 1.41 1.64 1.83 1.78 1.77 2.03 2.15 2.36 2.43 2.41
3501.095 2.7 2.87 2.87 3.18 3.53 3.7 3.94 4.27 4.52 4.72
3520.385 5.08 5.31 5.54 5.9 6.2 6.58 7.13 7.74 8.15 8.72
3539.674 9.52 10.39 11.35 12.47 13.93 15.66 17.84 20.77 24.56 29.61
3558.964 36.37 44.99 55.95 69.9 87.93 111.88 139.7 162.98 173.46 170.32
3578.254 154.37 127.4 97.85 74.05 57.04 44.44 35 27.95 22.64 18.76
3597.544 15.88 13.44 11.47 10.06 8.81 7.72 6.99 6.42 5.88 5.41
3616.833 4.91 4.56 4.28 3.81 3.67 3.63 3.4 3.34 3.28 2.96
3636.123 2.71 2.77 2.81 2.59 2.35 2.4 2.42 2.18 2.05 2
3655.413 1.84 1.73 1.6 1.43 1.4 1.41 1.39 1.31 1.34 1.29
3674.703 1.01 0.91 0.9576 1.09 1.1 0.9546 1.16 1.24 1.06 1.02
3693.993 1.01 0.9898 0.9137 0.8816 0.9981 1.17 1.05 0.7332 0.6755 0.8317
3713.282 0.8016 0.6662 0.5912 0.716 0.8345 0.636 0.4401 0.3099 0.4897 0.626
3732.572 0.6688 0.5836 0.4575 0.5571 0.533 0.4351 0.463 0.6172 0.663 0.4594
3751.862 0.3838 0.519 0.4585 0.5141 0.5659 0.6244 0.7534 0.6021 0.5204 0.7404
3771.152 0.8565 0.5919 0.4063 0.3932 0.3728 0.5233 0.6711 0.7424 0.7698 0.762
3790.441 0.7183 0.6559 0.5869 0.4714 0.579 0.7854 0.7996 0.7504 0.6989 0.7198
3809.731 0.7959 0.8369 0.7253 0.5876 0.5101 0.4628 0.5553 0.7073 0.8099 0.6285
3829.021 0.6112 0.6425 0.6079 0.8046 0.7488 0.5717 0.5796 0.7436 0.7789 0.6307
3848.311 0.6138 0.5973 0.6404 0.6364 0.657 0.7199 0.7611 0.7347 0.7605 0.8809
3867.601 0.7691 0.745 0.724 0.7323 0.8069 0.8979 0.8197 0.6862 0.5428 0.5459
3886.890 0.7049 0.6441 0.6538 0.7236 0.7548 0.755 0.8277 0.8029 0.6561 0.6206
3906.180 0.6027 0.611 0.6079 0.6047 0.7454 0.8422 0.801 0.8147 0.7204 0.7591
3925.470 0.8959 0.8893 0.8635 0.8794 0.9871 1.06 0.97 1.05 1.1 1.07
3944.760 1.16 1.04 1.09 1.1 0.8872 0.9348 0.8566 0.674 0.7398 0.8628
3964.049 0.9029 0.9254 0.8343 0.7399 0.8539 0.847 0.7241 0.7424 0.7502 0.7913
3983.339 0.9672 0.9772 0.9427 1.01 1.17 1.26 1.3 1.22 1.23 1.46
##END=
