##TITLE=Methoxycarbonylsulfenyl chloride
##JCAMP-DX=4.24
##DATA TYPE=INFRARED SPECTRUM
##ORIGIN=EPA-IR VAPOR PHASE LIBRARY
##OWNER=SRD/NIST
Collection (C) 2018 copyright by the U.S. Secretary of Commerce
on behalf of the United States of America. All rights reserved.
##CAS REGISTRY NO=26555-40-8
##MOLFORM=C 2 H 3 Cl O 2 S
##$NIST SOURCE=MSDC-IR
##STATE=gas
##XUNITS=1/CM
##YUNITS=ABSORBANCE
##XFACTOR=1.
##YFACTOR=0.001
##DELTAX=1.92898
##FIRSTX=549.8
##LASTX=4000.7
##FIRSTY=20.5016
##MAXX=4000.7
##MINX=549.759
##MAXY=0.306302
##MINY=0
##NPOINTS=1790
##XYDATA=(X++(Y..Y))
549.759 20.5016 20.3216 19.7616 18.6416 17.1716 15.6116 14.4616 13.5116 12.1816 10.4016
569.049 8.3316 6.4216 4.5816 3.2816 2.4516 1.9716 1.6616 1.2416 1.1716 0.9601
588.339 0.675 0.6728 0.6866 0.7005 0.6302 0.5293 0.3498 0.1716 0 0.1555
607.628 0.4855 0.5502 0.4424 0.4355 0.7082 0.8239 0.8608 0.7058 0.4948 0.6669
626.918 0.7946 0.9374 1.2216 1.5516 1.6316 1.3816 1.5016 2.0216 2.3716 2.5916
646.208 3.0216 3.4116 3.5216 3.6616 4.0516 4.4916 4.8916 5.6716 6.9516 7.5116
665.498 7.4916 9.2216 8.3916 5.6416 5.1516 5.1516 5.0516 4.7116 4.3316 4.0316
684.787 3.6416 3.0816 2.7816 2.5516 1.9616 1.7016 1.6616 1.3116 1.2416 1.4716
704.077 1.3716 1.1916 1.2016 1.2316 1.1216 0.9963 1.0916 1.1316 1.1016 0.9731
723.367 0.9526 1.1316 1.1216 1.1116 1.1616 0.9888 1.0416 1.4016 1.4116 1.3416
742.657 1.5016 1.5616 1.3616 1.3816 1.5816 1.6016 1.7216 1.8716 1.6416 1.6616
761.947 1.8416 1.8316 2.2216 2.7416 3.0016 3.1116 3.6416 4.2616 4.8016 5.3116
781.236 5.7516 6.4516 7.1016 7.7616 8.7416 9.7516 10.7116 11.5616 12.6916 14.0816
800.526 15.2816 16.4516 17.6116 18.3816 18.6216 18.6316 18.3416 18.1116 17.7716 17.3616
819.816 16.7916 15.4916 13.9816 12.1316 10.2816 8.9016 7.6316 6.5416 5.7216 5.1116
839.106 4.6116 4.1916 3.6516 3.0716 2.7716 2.5016 2.2916 1.9916 1.8416 1.8916
858.395 1.7716 1.6316 1.4216 1.3316 1.5816 1.4316 1.2316 1.4116 1.4116 1.2816
877.685 1.1216 0.9883 0.975 0.907 0.6994 0.8177 0.8767 0.7872 0.9664 0.905
896.975 0.8296 0.9162 0.9059 0.8715 0.8322 1.0132 1.1416 0.9909 0.8802 0.8104
916.265 0.753 0.8521 1.0201 0.9706 0.8284 0.8222 0.8954 0.9855 1.1016 1.2816
935.555 1.3216 1.3816 1.5816 1.8516 2.0716 2.1816 2.4616 2.7916 3.0716 3.2816
954.844 3.6016 3.8416 4.0916 4.3916 4.3216 4.2316 4.2616 4.4116 4.3816 4.3016
974.134 4.4616 4.3816 4.2216 4.1316 3.8716 3.5816 3.2816 3.1416 3.1216 2.8716
993.424 2.5816 2.6116 2.7716 2.9616 2.7116 2.4516 2.5416 2.4816 2.6016 2.6116
1012.714 2.4416 2.3916 2.4416 2.3116 2.1716 1.9516 2.0316 2.2416 2.0216 2.0516
1032.003 2.3816 2.5116 2.5116 2.7316 2.9116 2.9816 3.2116 3.5116 3.8616 4.2916
1051.293 4.4416 4.7916 5.3916 5.8716 6.3316 6.7616 7.6216 8.4516 9.0916 9.8816
1070.583 10.7816 12.1816 13.7316 14.8516 15.9316 17.3316 18.6016 20.1716 22.0416 23.8216
1089.873 25.2616 26.6516 28.2316 29.7116 30.8416 32.1916 34.3616 36.6316 38.8516 41.9816
1109.163 45.9116 49.9016 55.0616 61.9516 69.4816 78.1716 88.7516 100.952 115.052 131.152
1128.452 148.552 167.792 189.142 211.162 232.182 252.582 271.732 286.422 297.472 304.172
1147.742 306.302 304.622 298.802 289.412 275.922 259.222 240.082 217.692 192.762 170.212
1167.032 152.532 139.312 130.552 125.112 121.982 120.232 118.812 117.002 115.042 112.802
1186.322 110.042 106.422 102.002 98.8316 96.3116 92.8816 89.5116 86.5416 82.6616 78.3416
1205.611 74.4516 70.3716 65.4116 60.3216 56.4216 53.1516 49.6216 45.9216 42.1516 38.1716
1224.901 34.4716 31.0316 28.1616 25.9516 23.9816 22.6216 21.3316 20.2916 19.1016 17.6516
1244.191 16.6316 15.7916 14.9016 14.1216 13.6716 13.0216 12.3516 11.9316 11.3516 10.9016
1263.481 10.4116 9.8916 9.5516 9.0316 8.4916 8.0316 7.6616 7.1816 6.9316 6.8816
1282.771 6.7916 6.8416 6.8516 6.9416 7.1216 7.1516 7.1316 7.2716 7.2816 7.2416
1302.060 7.2916 7.2016 7.1516 7.2016 7.2116 7.1716 7.1016 6.9816 6.8016 6.5916
1321.350 6.4516 6.3316 6.2016 6.1716 6.1516 6.0316 5.8716 5.5516 5.0816 4.6616
1340.640 4.2916 3.9516 3.7516 3.5516 3.3816 3.2316 3.0316 2.9816 2.9816 2.9516
1359.930 2.9016 2.8216 2.7516 2.6816 2.5816 2.4916 2.4816 2.5016 2.4816 2.4816
1379.219 2.4716 2.4616 2.4916 2.5316 2.5716 2.5916 2.6716 2.7216 2.8716 3.0616
1398.509 3.1916 3.4516 3.7416 4.0316 4.2716 4.5216 4.9216 5.3216 5.6616 6.2716
1417.799 7.1316 8.0816 9.2816 10.8216 12.5516 14.2916 15.8116 16.8716 17.2416 17.7316
1437.089 18.4616 18.3316 18.6016 19.2016 18.3716 16.1916 13.6016 11.4116 9.9016 9.1016
1456.378 8.5216 8.0016 7.6316 7.2416 6.9416 6.6216 6.3416 6.2116 6.1316 5.9116
1475.668 5.6816 5.5416 5.3316 5.0716 4.8816 4.6316 4.3316 4.2216 4.1316 3.9416
1494.958 3.8416 3.7316 3.5516 3.3716 3.2616 3.1916 3.1816 3.1416 3.0216 2.9416
1514.248 2.8616 2.9016 2.9316 2.8316 2.7616 2.7316 2.7016 2.6916 2.6616 2.6516
1533.538 2.5916 2.5616 2.6416 2.7016 2.6716 2.6716 2.6616 2.5816 2.5716 2.5416
1552.827 2.4616 2.4216 2.4516 2.4416 2.4216 2.3816 2.3316 2.3016 2.3416 2.3716
1572.117 2.3616 2.3216 2.2816 2.2916 2.2216 2.1916 2.1716 2.1116 2.0816 2.1016
1591.407 2.1916 2.1516 2.0416 2.0216 1.9916 1.9916 2.0916 2.0516 1.9916 2.0016
1610.697 2.0616 2.1616 2.1816 2.2016 2.3316 2.4816 2.4916 2.4816 2.5916 2.6616
1629.986 2.6516 2.6616 2.7516 2.8116 2.7616 2.6716 2.5616 2.5016 2.3816 2.2916
1649.276 2.2516 2.1616 2.1016 2.0316 1.9616 1.9716 1.9816 1.9616 2.0016 2.0016
1668.566 2.0416 2.1216 2.2116 2.3816 2.5816 2.8016 3.0216 3.2516 3.5316 3.8416
1687.856 4.1716 4.5716 5.0216 5.6716 6.5916 7.6016 8.8316 10.4916 12.4216 14.8316
1707.146 18.0216 22.0216 27.0116 33.2416 40.6316 48.8016 57.3716 65.1416 71.0916 74.2716
1726.435 74.6616 73.3716 72.8016 74.5316 77.3716 81.0716 82.7916 79.2516 71.8016 63.2916
1745.725 56.3416 52.0816 50.5916 51.4316 53.9616 57.6716 62.5316 68.4016 75.0716 82.3516
1765.015 89.4916 95.3616 98.8816 99.2816 96.3716 91.8416 88.9216 90.0916 94.7016 98.7316
1784.305 97.9016 91.0616 80.7016 69.4516 58.8416 49.6316 41.8016 35.0016 29.1316 24.0216
1803.594 19.6416 15.9216 12.7616 10.1716 8.2516 6.7816 5.6916 4.8816 4.3016 3.8716
1822.884 3.5216 3.2816 2.9916 2.7916 2.6916 2.5816 2.4716 2.4616 2.4216 2.3716
1842.174 2.4416 2.4416 2.4516 2.4816 2.5416 2.6616 2.7216 2.8016 2.9216 3.0316
1861.464 3.0616 3.0516 3.0516 3.0516 3.0316 3.0116 2.9816 2.9416 2.8916 2.7716
1880.754 2.6516 2.5416 2.5516 2.5816 2.5016 2.4816 2.4716 2.4416 2.4516 2.4316
1900.043 2.4316 2.4816 2.4616 2.4216 2.4616 2.5316 2.6316 2.7116 2.7216 2.7316
1919.333 2.7416 2.7916 2.8216 2.8016 2.8716 2.9016 2.8516 2.8116 2.7616 2.7516
1938.623 2.7216 2.6416 2.5816 2.5216 2.5716 2.5916 2.5416 2.4916 2.4616 2.4316
1957.913 2.4016 2.3916 2.3916 2.3516 2.2716 2.2116 2.1716 2.0716 1.9616 1.9316
1977.202 1.9116 1.8516 1.8416 1.8416 1.7916 1.8016 1.8416 1.8516 1.8916 1.9116
1996.492 1.8416 1.8516 1.9116 1.9416 2.0016 2.0716 2.0616 2.0316 2.0016 2.0416
2015.782 2.1116 2.1216 2.1516 2.1616 2.2416 2.4016 2.4716 2.5516 2.6816 2.8216
2035.072 2.9616 3.0716 3.1416 3.1816 3.2216 3.3016 3.2916 3.2416 3.2616 3.1916
2054.362 3.1416 3.1516 3.1416 3.0216 3.0416 3.3416 3.7016 3.9716 4.1516 4.2416
2073.651 4.1916 4.0716 3.8716 3.6016 3.3716 3.1316 2.8416 2.6416 2.4816 2.3516
2092.941 2.2716 2.1816 2.1116 2.0216 1.9616 1.9316 1.8716 1.7916 1.7616 1.7016
2112.231 1.6216 1.5416 1.4816 1.4416 1.4216 1.4116 1.4216 1.4316 1.3616 1.4016
2131.521 1.4616 1.4116 1.4116 1.4316 1.3716 1.3416 1.4016 1.3816 1.3316 1.3216
2150.810 1.2916 1.2316 1.2116 1.1716 1.1616 1.1416 1.0616 1.0916 1.0616 1.0516
2170.100 1.0616 1.0033 0.9717 1.0257 1.0416 1.0616 1.0716 1.0316 1.0316 1.0416
2189.390 1.0516 1.0018 0.9013 0.9466 0.993 0.9114 0.8907 0.8907 0.8641 0.8988
2208.680 0.8909 0.8312 0.8815 0.9554 0.9464 0.9422 0.8814 0.8859 0.9269 0.9288
2227.970 0.9583 0.9303 0.9805 1.0516 1.0616 1.1216 1.1716 1.1316 1.1816 1.2516
2247.259 1.2716 1.3116 1.3516 1.3916 1.4216 1.4016 1.4016 1.4716 1.5616 1.6616
2266.549 1.7016 1.7616 1.8316 1.8516 1.9116 1.9616 2.0516 2.1916 2.2416 2.3516
2285.839 2.4716 2.5916 2.7416 2.8816 3.0116 3.3416 3.6516 3.8816 4.1616 4.3916
2305.129 4.6416 4.9216 5.3016 5.6416 5.8716 6.1416 6.3916 6.6816 6.8816 7.0416
2324.418 7.2216 7.2716 7.3116 7.2916 7.1316 6.9016 6.8516 6.7116 6.6116 6.6116
2343.708 6.3116 5.8816 5.4116 5.4016 6.1016 6.9516 7.8316 8.5216 8.9516 9.2316
2362.998 9.3916 9.3916 9.2716 8.9616 8.3416 7.6516 6.8716 6.0516 5.1916 4.3016
2382.288 3.5316 2.8916 2.3916 1.9816 1.6516 1.4316 1.3716 1.3016 1.2216 1.2416
2401.578 1.2016 1.2016 1.1616 1.1216 1.1316 1.0816 1.0516 1.0013 0.9737 0.9647
2420.867 0.9709 1.0416 1.0138 0.9595 0.9856 0.9774 0.946 0.9618 0.9369 0.9069
2440.157 0.9526 0.9829 0.9329 0.8752 0.8556 0.8003 0.8381 0.9128 0.9114 0.9245
2459.447 0.9741 0.9348 0.8675 0.9084 0.9661 0.9599 0.9103 0.8963 0.9002 0.8876
2478.737 0.8832 0.9051 0.9085 0.8933 0.8658 0.8101 0.8634 0.9394 0.8667 0.8768
2498.026 1.0267 0.9892 0.9291 0.9124 0.8485 0.9039 0.9006 0.8776 0.8941 0.9733
2517.316 0.9897 0.9284 0.8792 0.7603 0.7861 0.8689 0.8845 0.9703 1.0159 0.9982
2536.606 0.9146 0.8825 0.9664 0.9712 1.0416 1.0616 1.0416 1.0291 1.0217 1.0316
2555.896 1.0716 1.1316 1.1016 1.0131 1.0209 1.1216 1.1416 1.1416 1.1016 1.0716
2575.186 1.1216 1.1616 1.1916 1.1916 1.2416 1.2716 1.2316 1.1216 1.0114 1.0816
2594.475 1.1816 1.0816 1.0716 1.1116 1.1416 1.1516 1.0616 1.0816 1.1216 1.1016
2613.765 1.1716 1.1516 1.0716 1.0916 1.1516 1.1716 1.1616 1.1116 1.0816 1.004
2633.055 0.9917 1.0616 1.0416 0.9828 0.9657 0.9621 0.961 0.9844 1.0185 1.0516
2652.345 1.1016 1.1516 1.0716 0.8993 0.8505 0.8996 0.9718 0.9289 0.8592 0.8067
2671.634 0.7715 0.9096 1.0154 0.9972 1.0308 1.1016 1.0416 0.9822 0.9321 0.9352
2690.924 0.9056 0.7548 0.7819 0.9326 1.0316 1.1616 1.2716 1.1416 0.9263 0.8631
2710.214 0.8988 0.9716 0.9762 0.954 0.973 0.9721 0.9931 1.01 1.1216 1.1716
2729.504 1.0616 0.9014 0.9117 1.0263 0.9287 0.9075 0.947 0.9167 0.917 0.9477
2748.794 1.0416 1.2416 1.2616 1.0292 0.9727 0.9528 0.9255 1.0416 1.1116 1.0516
2768.083 1.0107 1.0516 1.0516 1.1616 1.2416 1.0516 1.0516 1.1516 1.0616 1.0009
2787.373 1.0416 1.0158 0.9653 1.0123 1.0716 1.3016 1.4316 1.3016 1.3416 1.2816
2806.663 1.1816 1.2216 1.2416 1.2716 1.3716 1.4116 1.5216 1.7916 1.8216 1.7716
2825.953 1.8616 1.8816 2.0516 2.2616 2.6216 3.0216 3.2916 3.6116 4.0216 4.2416
2845.242 4.1216 4.0816 4.0316 3.8916 4.0216 4.1216 3.9816 3.6116 3.1416 2.8716
2864.532 2.7216 2.5316 2.4316 2.4516 2.4616 2.4916 2.5516 2.6716 2.8416 2.9016
2883.822 3.0016 3.2816 3.4516 3.6616 3.9016 4.0316 4.1516 4.3616 4.5516 4.6816
2903.112 4.8516 4.9516 4.9416 4.9516 5.0216 4.8716 4.7116 4.7016 4.5916 4.5116
2922.401 4.5916 4.7216 4.6616 4.4916 4.5616 4.5616 4.5716 4.8216 5.0916 5.5016
2941.691 6.1616 7.0216 7.7816 8.7716 10.5916 12.9116 15.5816 18.6316 21.5516 23.5716
2960.981 24.5016 24.4616 24.1716 24.0816 23.6116 23.4416 23.2616 21.7516 19.0616 16.0316
2980.271 13.2216 10.6616 8.6416 7.4116 6.7216 6.3716 6.0516 5.8816 5.9416 6.0616
2999.561 5.9716 5.8116 5.9016 6.0816 6.2816 6.4116 6.5016 6.6716 6.7216 6.5516
3018.850 6.4516 6.4316 6.4316 6.3016 6.3216 6.4316 6.3416 6.2216 6.1016 5.8816
3038.140 5.6916 5.6616 5.5416 5.3316 5.1316 4.9916 4.8116 4.6616 4.6016 4.4816
3057.430 4.1416 3.7816 3.6316 3.5916 3.4516 3.2216 3.0816 3.0816 2.8916 2.6416
3076.720 2.6616 2.6516 2.5716 2.5716 2.6116 2.5116 2.5016 2.6216 2.5716 2.4016
3096.009 2.4816 2.5116 2.3116 2.3116 2.3216 2.3916 2.5016 2.4216 2.3116 2.3416
3115.299 2.3716 2.3016 2.3016 2.2916 2.2416 2.2616 2.2116 2.0416 1.8616 1.8916
3134.589 1.8716 1.7916 1.8116 1.8316 1.8916 1.7716 1.7116 1.7616 1.8116 1.7216
3153.879 1.7116 1.7616 1.5616 1.4716 1.5316 1.5216 1.4416 1.4616 1.5316 1.5516
3173.169 1.4616 1.3416 1.3116 1.3716 1.3316 1.2316 1.3016 1.3616 1.3616 1.2916
3192.458 1.2516 1.3016 1.2716 1.2316 1.2816 1.3316 1.3216 1.2116 1.1716 1.2316
3211.748 1.1616 1.0716 1.2016 1.3516 1.3316 1.3316 1.2516 1.1116 1.0916 1.1516
3231.038 1.2216 1.2116 1.1016 1.1516 1.1516 1.1416 1.2116 1.2516 1.2516 1.2516
3250.328 1.2416 1.2916 1.2916 1.2016 1.1816 1.1016 1.0516 1.1716 1.2216 1.1516
3269.617 1.1316 1.0516 0.9527 0.961 1.1716 1.1716 0.9403 0.9521 1.0916 1.0616
3288.907 1.0816 1.0316 1.0001 1.1016 1.0516 1.1216 1.1816 1.1116 1.1116 1.1516
3308.197 1.1916 1.1216 1.0816 1.0232 1.0416 1.2116 1.1916 1.1316 1.0916 1.0616
3327.487 1.1416 1.2616 1.2316 1.0816 1.1516 1.2416 1.2816 1.3716 1.3416 1.1816
3346.777 0.9851 0.9878 1.1616 1.2816 1.2116 1.0297 1.1816 1.1816 1.0274 1.0916
3366.066 1.1516 1.2216 1.2716 1.1616 1.1316 1.1816 1.2116 1.2516 1.2516 1.3516
3385.356 1.3216 1.1816 1.2116 1.2016 0.9978 0.9796 1.2116 1.3516 1.2016 1.1616
3404.646 1.3016 1.2916 1.2016 1.1916 1.3616 1.4916 1.5616 1.6316 1.6316 1.5716
3423.936 1.6416 1.9016 2.0416 2.0216 2.0516 2.1816 2.1616 2.2016 2.2916 2.0516
3443.225 2.1116 2.2216 2.1116 2.1116 2.0116 1.8716 1.8816 1.8316 1.6616 1.5816
3462.515 1.5316 1.4216 1.3616 1.4616 1.4416 1.4316 1.6216 1.5816 1.3916 1.3516
3481.805 1.5316 1.6416 1.7016 1.5816 1.3916 1.4516 1.4416 1.4316 1.6316 1.7016
3501.095 1.6416 1.7616 1.7716 1.8816 2.0016 1.9216 2.0016 2.1216 2.3116 2.3416
3520.385 2.2316 2.2116 2.2816 2.4316 2.3416 2.2516 2.3516 2.4716 2.5216 2.4416
3539.674 2.2616 2.2416 2.3416 2.1916 1.9116 1.8716 1.9716 1.9316 1.8316 1.7416
3558.964 1.6416 1.6016 1.5516 1.4616 1.4616 1.4916 1.4916 1.4216 1.4516 1.5516
3578.254 1.6316 1.5816 1.4316 1.4316 1.4616 1.4616 1.3616 1.1916 1.2016 1.3416
3597.544 1.4216 1.2816 1.1416 1.2316 1.3216 1.4716 1.5916 1.4316 1.2516 1.2616
3616.833 1.3216 1.3716 1.3916 1.3916 1.3616 1.3416 1.3516 1.3616 1.4016 1.4916
3636.123 1.3916 1.1516 1.1016 1.3016 1.6316 1.7216 1.5616 1.3516 1.2816 1.1816
3655.413 1.0816 1.1316 1.2016 1.2116 1.0816 1.0816 1.2516 1.1816 1.1316 1.2616
3674.703 1.4216 1.5816 1.5616 1.5016 1.4616 1.3716 1.3816 1.4716 1.4016 1.4116
3693.993 1.4816 1.4716 1.4116 1.3616 1.3316 1.3216 1.3216 1.4216 1.5016 1.3116
3713.282 1.2716 1.3916 1.4516 1.4916 1.4116 1.3816 1.4116 1.3316 1.2716 1.3216
3732.572 1.2016 1.1916 1.2116 1.2016 1.4016 1.5416 1.5616 1.4116 1.3616 1.5116
3751.862 1.5516 1.4716 1.4116 1.4116 1.2816 1.1616 1.2716 1.3416 1.3016 1.2716
3771.152 1.3116 1.3416 1.4216 1.4216 1.2116 1.0416 1.1116 1.2816 1.2816 1.2316
3790.441 1.2316 1.2716 1.2816 1.1016 1.0516 1.1816 1.3716 1.3616 1.3416 1.3616
3809.731 1.2816 1.1716 1.2716 1.4016 1.3416 1.2916 1.2616 1.4016 1.3116 1.3316
3829.021 1.3816 1.3116 1.3916 1.4816 1.5016 1.4916 1.5316 1.4316 1.3216 1.2316
3848.311 1.3416 1.4816 1.4416 1.2816 1.1516 1.3116 1.5516 1.3716 1.2016 1.2216
3867.601 1.2316 1.2916 1.3216 1.3816 1.3416 1.4016 1.2916 1.2016 1.3116 1.3516
3886.890 1.4416 1.5616 1.5916 1.4016 1.3116 1.4416 1.3816 1.2816 1.3416 1.2816
3906.180 1.1316 1.2516 1.4316 1.3216 1.2016 1.2816 1.4316 1.4916 1.5216 1.5716
3925.470 1.5016 1.4716 1.5416 1.5016 1.3416 1.3316 1.3916 1.4416 1.4516 1.4416
3944.760 1.3816 1.3516 1.4516 1.5316 1.4716 1.3816 1.4216 1.5716 1.5716 1.4716
3964.049 1.5416 1.5216 1.4616 1.5216 1.2816 1.3216 1.6516 1.6516 1.4416 1.3716
3983.339 1.4716 1.4616 1.5716 1.7616 1.6716 1.5716 1.4816 1.4416 1.5416 1.7116
##END=
