##TITLE=p,p'-Dioctyldiphenylamine
##JCAMP-DX=4.24
##DATA TYPE=INFRARED SPECTRUM
##ORIGIN=EPA-IR VAPOR PHASE LIBRARY
##OWNER=SRD/NIST
Collection (C) 2018 copyright by the U.S. Secretary of Commerce
on behalf of the United States of America. All rights reserved.
##CAS REGISTRY NO=26603-23-6
##MOLFORM=C 28 H 43 N
##$NIST SOURCE=MSDC-IR
##STATE=gas
##XUNITS=1/CM
##YUNITS=ABSORBANCE
##XFACTOR=1.
##YFACTOR=0.001
##DELTAX=3.85796
##FIRSTX=501.5
##LASTX=4000.7
##FIRSTY=4.2244
##MAXX=4000.7
##MINX=501.534
##MAXY=0.126664
##MINY=0
##NPOINTS=908
##XYDATA=(X++(Y..Y))
501.534 4.2244 4.7244 5.3044 5.3344 4.9044 4.3344 3.8644 3.5644 3.4044 3.2944
540.114 3.3844 3.5744 3.6444 3.7744 3.8244 3.9444 4.1044 4.2344 4.6844 5.3344
578.693 5.7744 5.6844 5.1744 4.5144 4.0544 3.8844 3.7944 3.6244 3.3844 3.1844
617.273 2.9344 2.7244 2.5744 2.4244 2.4144 2.4244 2.3444 2.0744 1.8644 1.7644
655.852 1.6144 1.4744 1.3344 1.3144 1.4044 1.4944 1.6044 1.7244 1.8444 2.0144
694.432 2.2144 2.3944 2.5244 2.5844 2.6144 2.6044 2.7144 2.9344 3.1044 3.1744
733.011 2.9944 2.6544 2.4344 2.2844 2.1544 2.0644 2.0444 1.9944 1.9244 1.8744
771.591 1.8944 1.9444 1.9344 2.0644 2.3544 2.7544 3.4944 4.7644 6.5244 8.7044
810.170 11.5044 15.3344 19.7844 22.5644 21.4444 16.9944 11.9144 8.2344 6.1244 4.9744
848.750 4.2544 3.7644 3.4344 3.2244 3.1244 3.2344 3.6744 4.1444 4.1144 3.4044
887.330 2.6044 2.1344 1.9244 1.9044 2.0544 2.2144 2.3344 2.5144 2.6444 2.5044
925.909 2.2744 2.1544 2.1444 2.0844 1.9444 1.7944 1.7344 1.7544 1.8744 2.1844
964.489 2.5644 2.8744 2.9944 2.8244 2.4444 1.9144 1.4944 1.3044 1.3044 1.5044
1003.068 2.0744 3.8644 7.0044 7.2044 4.1944 2.5044 1.8844 1.4644 1.2644 1.0495
1041.648 0.9698 0.9618 0.8921 0.8559 0.8813 0.9372 1.0253 1.1144 1.2144 1.4144
1080.227 1.8344 2.4844 3.5644 5.1044 6.0244 5.5344 4.3944 3.6044 3.2044 2.9344
1118.807 2.9444 3.1644 3.5044 3.7544 3.5844 3.2644 3.0144 2.8344 2.7844 2.9544
1157.387 3.3744 3.8244 4.2444 4.6744 5.3444 6.6544 9.0244 13.9844 20.6944 21.6344
1195.966 16.2644 11.8744 9.8144 8.6944 8.0844 8.0044 8.5844 9.9544 12.1244 15.2344
1234.546 19.4744 24.2444 27.9644 28.5644 25.4244 20.6644 16.9844 15.3844 15.5844 17.0244
1273.125 19.3844 22.4344 26.1144 30.2344 34.3344 37.5844 38.9144 39.1744 39.9344 39.9944
1311.705 37.4244 33.2144 29.3944 26.7444 24.4644 21.5244 18.5644 16.5444 15.3544 14.3744
1350.284 13.3044 12.6944 13.5844 16.7644 21.5544 23.4744 19.9044 15.7044 14.7744 16.7644
1388.864 19.6344 20.0844 18.0044 14.8844 11.3944 8.7844 7.4444 6.8744 6.6444 6.6544
1427.443 7.0944 7.8944 8.7844 9.7844 11.2144 13.1844 15.3844 17.4944 19.6844 22.2044
1466.023 25.2844 28.2644 30.2044 30.3944 29.2144 27.9044 27.9344 31.2144 39.9144 56.1144
1504.603 80.6344 110.454 126.664 114.844 85.1944 57.7244 39.6344 28.4444 21.3644 16.6844
1543.182 13.4044 11.1744 9.6944 8.7944 8.2544 7.9544 7.9944 8.3844 9.0544 9.9844
1581.762 11.0744 12.6144 15.3744 20.4744 28.3644 37.0844 41.2044 36.9044 28.0644 20.2244
1620.341 14.9444 11.4944 9.0644 7.3244 5.9644 4.9444 4.2144 3.6644 3.2844 2.9644
1658.921 2.6544 2.4244 2.2844 2.1544 2.0244 1.9044 1.8144 1.7544 1.6744 1.6044
1697.500 1.5344 1.4844 1.4744 1.4544 1.4344 1.4244 1.4244 1.4444 1.4644 1.5144
1736.080 1.5644 1.6244 1.6944 1.7744 1.8344 1.8644 1.8744 1.8044 1.7044 1.6244
1774.659 1.4944 1.3444 1.2344 1.1644 1.1044 1.0708 1.0529 1.0199 0.9931 0.98
1813.239 0.9667 0.9699 0.9524 0.9321 0.9518 0.9542 0.9461 0.9688 1.0234 1.1044
1851.819 1.1644 1.2444 1.3744 1.5144 1.6544 1.7644 1.8644 1.9644 1.9744 1.8944
1890.398 1.7544 1.6144 1.4544 1.2844 1.1644 1.0944 1.0111 0.9574 0.9362 0.9198
1928.978 0.8918 0.8446 0.809 0.7831 0.7684 0.7586 0.7486 0.7241 0.6966 0.6643
1967.557 0.6331 0.6298 0.631 0.6318 0.6202 0.6031 0.5701 0.5528 0.5582 0.5574
2006.137 0.5624 0.563 0.5606 0.5684 0.5811 0.585 0.5866 0.5616 0.5366 0.5518
2044.716 0.557 0.5642 0.5913 0.5983 0.6153 0.6499 0.6555 0.6491 0.658 0.658
2083.296 0.641 0.6474 0.6621 0.6879 0.7188 0.7222 0.7301 0.7431 0.7417 0.702
2121.875 0.6576 0.6292 0.6041 0.5824 0.5605 0.5481 0.5417 0.5431 0.5297 0.5023
2160.455 0.4962 0.4814 0.4525 0.4412 0.4409 0.4184 0.3647 0.3667 0.3936 0.3898
2199.035 0.3768 0.3711 0.3737 0.3526 0.3352 0.3324 0.3372 0.3545 0.3324 0.3096
2237.614 0.3125 0.3038 0.3175 0.3306 0.3457 0.3414 0.3405 0.3597 0.3744 0.396
2276.194 0.3951 0.4021 0.4234 0.4433 0.4518 0.4495 0.4538 0.4735 0.4739 0.4461
2314.773 0.4367 0.4315 0.4237 0.4196 0.3937 0.3724 0.3916 0.4056 0.3875 0.3974
2353.353 0.3979 0.3717 0.38 0.4145 0.4481 0.4949 0.5399 0.5565 0.5841 0.5964
2391.932 0.5817 0.5655 0.5487 0.5121 0.4935 0.5023 0.5098 0.4992 0.4984 0.5037
2430.512 0.4921 0.4778 0.4747 0.4968 0.5093 0.511 0.5472 0.5821 0.6119 0.667
2469.092 0.7048 0.7541 0.8254 0.8505 0.8686 0.9327 0.9973 1.0386 1.0549 1.0643
2507.671 1.0754 1.1144 1.1644 1.1944 1.2244 1.2144 1.1444 1.1044 1.0473 0.9894
2546.251 0.9678 0.9337 0.8644 0.8466 0.8743 0.8275 0.7679 0.752 0.7218 0.6722
2584.830 0.6674 0.6637 0.6591 0.6534 0.6273 0.6041 0.6028 0.6313 0.6551 0.677
2623.410 0.6984 0.7126 0.758 0.8075 0.8694 0.9783 1.0407 1.0626 1.1244 1.1844
2661.989 1.2544 1.3144 1.3544 1.3844 1.3944 1.3944 1.3644 1.3344 1.3944 1.5144
2700.569 1.6144 1.6844 1.7844 1.8944 2.0244 2.1344 2.1544 2.1144 2.0544 1.9744
2739.148 1.9044 1.8444 1.8144 1.8344 1.8844 1.8744 1.8844 1.9244 1.9844 2.0644
2777.728 2.1444 2.2544 2.4044 2.6044 2.8044 2.9344 3.0444 3.2744 3.6044 3.9544
2816.308 4.2844 4.5844 4.8944 5.3344 6.0244 6.9144 8.0244 9.2344 10.3244 11.3044
2854.887 12.5244 14.5744 17.8344 22.4144 27.7644 32.7244 36.4244 38.8944 40.7244 42.6344
2893.467 45.1344 47.8144 49.5644 50.4844 51.5344 52.2544 51.5744 49.5944 47.6044 46.8844
2932.046 47.7344 50.0044 53.8044 59.7244 68.8944 82.8044 101.924 120.784 126.424 114.664
2970.626 94.9044 75.1744 59.9344 50.4744 44.1944 38.6744 33.9344 29.6844 25.2344 20.9844
3009.205 17.6144 15.4744 14.5444 14.6144 15.2244 15.4844 14.5644 12.7344 11.0544 10.0144
3047.785 9.5144 9.3644 9.3444 9.2144 8.6844 7.7944 6.8844 6.1244 5.6144 5.3744
3086.364 5.3344 5.3744 5.3144 5.0544 4.5544 3.9344 3.3644 2.9444 2.6544 2.5244
3124.944 2.3944 2.1944 1.9844 1.8144 1.6944 1.5744 1.4644 1.4044 1.3644 1.3544
3163.524 1.3644 1.3444 1.2944 1.2744 1.3044 1.3344 1.3144 1.3044 1.2644 1.2244
3202.103 1.3144 1.3744 1.3244 1.2844 1.3044 1.2744 1.2344 1.1944 1.1244 1.0369
3240.683 0.9617 0.9342 0.9007 0.8617 0.7737 0.7232 0.7539 0.7201 0.6643 0.6445
3279.262 0.5964 0.5198 0.5163 0.5389 0.5264 0.5313 0.4794 0.412 0.4497 0.4804
3317.842 0.4478 0.4524 0.4658 0.4429 0.4581 0.4678 0.4588 0.4422 0.4273 0.4703
3356.421 0.4799 0.4506 0.4769 0.5345 0.5732 0.6208 0.6399 0.656 0.6555 0.635
3395.001 0.7207 0.8393 0.9259 1.1244 1.4044 1.6144 1.8444 2.0744 2.2844 2.4244
3433.580 2.4244 2.2844 2.1044 1.9244 1.6544 1.3444 1.085 0.8878 0.723 0.5831
3472.160 0.4548 0.3787 0.3573 0.3442 0.2931 0.2405 0.2064 0.1872 0.17719 0.16449
3510.740 0.14656 0.11089 0.14372 0.16496 0.152 0.14451 0.08989 0.0585 0.0486 0.0746
3549.319 0.081 0.0335 0.0167 0.022 0.0417 0.0479 0.047 0.09011 0.0465 0.0421
3587.899 0.0506 0.0247 0.0358 0 0.0024 0.0137 0.0206 0.0357 0.0575 0.0463
3626.478 0.0392 0.0792 0.098255 0.08915 0.0571 0.0563 0.0819 0.09228 0.11667 0.15911
3665.058 0.17915 0.11837 0.0541 0.11748 0.17029 0.12908 0.12058 0.15126 0.18094 0.15485
3703.637 0.09302 0.097999 0.18452 0.16157 0.097344 0.15949 0.15902 0.14939 0.16957 0.16519
3742.217 0.17837 0.12298 0.11604 0.14634 0.15528 0.15361 0.13728 0.16483 0.18407 0.16969
3780.797 0.209 0.2044 0.18502 0.18045 0.13574 0.17905 0.2447 0.2157 0.17863 0.1965
3819.376 0.2187 0.243 0.2521 0.2461 0.2047 0.1829 0.13965 0.10916 0.13519 0.16599
3857.956 0.2522 0.2261 0.18902 0.2706 0.3246 0.3209 0.2406 0.2389 0.3449 0.397
3896.535 0.3391 0.3236 0.3277 0.2882 0.2956 0.2791 0.2546 0.2565 0.2804 0.2803
3935.115 0.2304 0.2457 0.2688 0.2271 0.2324 0.2744 0.3036 0.3056 0.3208 0.2937
3973.694 0.2431 0.2308 0.2441 0.2603 0.2443 0.2365 0.2297 0.2474
##END=
