##TITLE=4,4'-Thiodiphenol
##JCAMP-DX=4.24
##DATA TYPE=INFRARED SPECTRUM
##ORIGIN=NIST Mass Spectrometry Data Center
##OWNER=NIST Standard Reference Data Program
Collection (C) 2018 copyright by the U.S. Secretary of Commerce
on behalf of the United States of America. All rights reserved.
##CAS REGISTRY NO=2664-63-3
##MOLFORM=C 12 H 10 O 2 S
##$NIST SOURCE=MSDC-IR
##SPECTROMETER/DATA SYSTEM=HP-GC/MS/IRD
##STATE=gas
##XUNITS=1/CM
##YUNITS=ABSORBANCE
##XFACTOR=1.0
##YFACTOR=0.000000600
##DELTAX=4.0
##FIRSTX=550.0
##LASTX=3846.0
##FIRSTY=0.000458
##MAXX=3846
##MINX=550
##MAXY=0.006
##MINY=0
##NPOINTS=825
##XYDATA=(X++(Y..Y))
550.0 764 640 414 361 350 406 466 368 248 314
590.0 350 298 167 55 134 221 288 322 319 358
630.0 477 575 647 543 469 499 410 316 244 283
670.0 287 145 121 139 158 118 13 87 121 218
710.0 292 186 178 253 335 285 266 328 223 135
750.0 151 155 247 279 202 197 229 234 253 287
790.0 445 708 919 1114 1317 1479 1707 2029 2471 2586
830.0 2248 1732 1103 828 693 490 373 282 203 253
870.0 214 138 188 157 114 144 101 115 208 147
910.0 145 187 217 233 208 182 108 150 245 206
950.0 103 111 113 77 91 98 74 71 60 0
990.0 94 173 159 286 396 452 448 346 150 73
1030.0 155 82 116 177 155 152 215 294 194 141
1070.0 417 473 501 792 1012 1049 910 794 722 668
1110.0 658 731 751 620 627 745 838 964 1124 1214
1150.0 1405 1931 3133 5496 8139 9948 10000 8293 5934 4000
1190.0 2753 2069 1660 1252 989 1097 1127 1019 1122 1300
1230.0 1382 1527 1885 2731 3983 5392 6282 5994 4641 3000
1270.0 1908 1381 1035 727 574 508 433 407 463 594
1310.0 813 1062 1194 1140 961 824 748 673 572 496
1350.0 399 327 345 324 242 218 212 208 240 246
1390.0 273 324 398 499 623 861 1167 1348 1251 982
1430.0 721 569 518 482 477 499 530 592 621 683
1470.0 877 1346 2299 4033 6134 7207 6388 4426 2651 1651
1510.0 1088 786 628 528 466 438 406 381 389 414
1550.0 422 472 564 663 788 942 1196 1587 1977 2227
1590.0 2371 2379 2206 1954 1547 1106 734 522 420 343
1630.0 302 310 293 248 265 301 302 222 153 141
1670.0 113 124 150 147 119 124 164 191 214 194
1710.0 197 225 201 159 179 207 246 239 195 197
1750.0 216 204 157 153 171 162 115 86 65 40
1790.0 38 51 74 97 86 59 73 118 139 148
1830.0 149 120 163 213 177 169 181 171 170 190
1870.0 229 254 231 209 220 212 185 145 134 154
1910.0 149 143 122 109 108 75 40 85 105 99
1950.0 127 137 111 96 112 127 122 101 87 92
1990.0 96 125 146 105 92 95 70 102 148 150
2030.0 125 107 81 76 54 62 91 119 170 186
2070.0 169 188 189 170 161 105 74 65 65 87
2110.0 90 118 105 93 96 54 44 52 46 68
2150.0 95 77 72 79 54 53 47 77 95 110
2190.0 123 81 80 130 106 63 77 81 72 77
2230.0 81 72 95 121 148 112 74 112 103 101
2270.0 104 93 105 126 127 142 137 105 118 132
2310.0 153 169 186 164 144 180 183 161 130 104
2350.0 114 109 124 144 181 192 149 111 92 124
2390.0 148 142 151 182 207 189 232 265 252 230
2430.0 215 203 153 147 130 124 169 106 58 114
2470.0 152 161 169 169 118 114 136 92 93 145
2510.0 169 178 161 146 139 151 159 99 78 89
2550.0 97 87 72 78 93 119 116 106 97 86
2590.0 72 92 90 91 97 89 93 88 53 76
2630.0 148 172 161 131 146 139 119 151 150 120
2670.0 136 185 198 138 99 93 99 109 134 131
2710.0 64 33 63 39 3 54 122 146 136 126
2750.0 96 102 149 198 193 111 54 21 66 96
2790.0 79 49 63 83 102 126 111 91 98 183
2830.0 218 201 185 129 172 216 213 155 89 102
2870.0 110 156 153 113 164 134 94 111 90 71
2910.0 79 70 66 48 95 163 175 174 149 148
2950.0 82 42 79 76 98 184 239 178 209 226
2990.0 191 225 253 286 272 306 390 436 542 727
3030.0 857 836 713 572 499 435 358 359 500 558
3070.0 547 537 506 490 445 435 453 434 376 284
3110.0 240 186 130 85 90 102 70 137 157 117
3150.0 169 170 148 192 198 112 90 164 199 154
3190.0 128 148 126 150 212 177 124 91 58 152
3230.0 282 166 99 136 120 102 70 133 181 136
3270.0 158 209 158 139 167 213 247 189 151 185
3310.0 235 221 137 148 198 195 230 242 265 264
3350.0 185 144 219 291 282 319 332 231 199 176
3390.0 157 149 206 240 219 167 119 237 215 157
3430.0 301 310 280 250 134 100 149 217 171 131
3470.0 199 227 219 257 244 190 200 318 342 248
3510.0 282 225 76 37 119 172 184 265 159 10
3550.0 108 160 168 180 157 191 186 123 214 296
3590.0 246 228 220 254 269 347 442 379 440 594
3630.0 706 876 1419 2464 3691 4338 3911 2713 1453 727
3670.0 487 539 431 311 309 247 195 115 54 284
3710.0 418 277 266 306 239 96 163 260 203 186
3750.0 163 163 183 203 172 122 27 14 122 252
3790.0 182 129 161 243 218 231 239 149 156 201
3830.0 208 259 224 247 257
##END=
