##TITLE=n-Dodecyl 4-hydroxybenzoate
##JCAMP-DX=4.24
##DATA TYPE=INFRARED SPECTRUM
##ORIGIN=EPA-IR VAPOR PHASE LIBRARY
##OWNER=SRD/NIST
Collection (C) 2018 copyright by the U.S. Secretary of Commerce
on behalf of the United States of America. All rights reserved.
##CAS REGISTRY NO=2664-60-0
##MOLFORM=C 19 H 30 O 3
##$NIST SOURCE=MSDC-IR
##STATE=gas
##XUNITS=1/CM
##YUNITS=ABSORBANCE
##XFACTOR=1.
##YFACTOR=0.001
##DELTAX=1.92934
##FIRSTX=549.9
##LASTX=3999.5
##FIRSTY=0.905
##MAXX=3999.53
##MINX=549.863
##MAXY=0.07038
##MINY=0
##NPOINTS=1789
##XYDATA=(X++(Y..Y))
549.863 0.905 0.952 0.697 0.836 0.955 1.18002 1.3641 1.279 1.3324 1.2647
569.156 0.973 1.0069 1.09374 0.9929 0.885 0.911 1.0036 0.973 0.97 0.983
588.450 0.842 0.87 1.12282 1.2795 1.3162 1.3224 1.4186 1.5876 1.7217 2.14
607.743 2.76 3.27 3.91 4.47 4.81 4.79 4.27 3.45 2.68 2.17
627.037 1.784 1.5427 1.4871 1.4278 1.4295 1.5321 1.499 1.3849 1.2648 1.2674
646.330 1.2703 1.3059 1.3612 1.3507 1.2793 1.18311 1.09577 1.09275 1.15152 1.1254
665.624 1.192 1.2495 1.2024 1.3085 1.4291 1.5035 1.7065 1.7924 1.8915 2.11
684.917 2.19 2.21 2.37 2.5 2.46 2.35 2.24 2.17 2.0394 1.937
704.210 1.8787 1.7462 1.7024 1.779 1.7691 1.7183 1.7414 1.7812 1.8194 1.7631
723.504 1.6723 1.642 1.6786 1.6873 1.6027 1.5431 1.5899 1.6464 1.6656 1.7545
742.797 1.8451 1.8974 2.0124 2.2 2.44 2.74 3.08 3.47 3.94 4.4
762.091 4.91 5.45 5.71 5.82 5.75 5.31 4.81 4.35 3.86 3.46
781.384 3.11 2.81 2.55 2.28 2.14 2.16 2.19 2.16 2.11 2.06
800.678 2.0827 2.17 2.34 2.42 2.41 2.45 2.42 2.35 2.33 2.35
819.971 2.3 2.31 2.4 2.53 2.71 2.92 3.18 3.48 3.86 4.24
839.264 4.61 4.93 5.19 5.32 5.24 5.06 4.77 4.37 4 3.54
858.558 3.2 2.92 2.6 2.41 2.18 2.0222 1.9052 1.8286 1.7894 1.7087
877.851 1.6789 1.6393 1.556 1.5024 1.4607 1.5033 1.5433 1.4935 1.4719 1.5422
897.145 1.5856 1.5179 1.4814 1.5354 1.6211 1.6037 1.5108 1.5207 1.5256 1.4809
916.438 1.4939 1.5067 1.5318 1.4843 1.4859 1.5609 1.5749 1.5211 1.5197 1.5492
935.732 1.5643 1.6505 1.7333 1.7893 1.8789 1.946 1.9744 2.0716 2.15 2.14
955.025 2.2 2.32 2.41 2.4 2.38 2.37 2.34 2.38 2.37 2.31
974.318 2.27 2.24 2.22 2.2 2.13 2.1 2.09 2.0482 2.0315 2.0184
993.612 2.0111 2.0166 2.1 2.15 2.19 2.31 2.5 2.77 3.18 3.74
1012.905 4.06 3.99 3.72 3.2 2.72 2.49 2.35 2.27 2.21 2.2
1032.199 2.18 2.16 2.17 2.21 2.19 2.19 2.27 2.35 2.41 2.47
1051.492 2.53 2.68 2.86 3 3.17 3.35 3.56 3.83 4.17 4.57
1070.786 4.98 5.46 6.1 6.95 8.01 9.25 10.91 12.92 15.12 17.44
1090.079 19.74 21.6 22.98 24.15 25.34 26.65 27.88 28.73 28.6 27.56
1109.372 26.18 24.56 22.85 20.81 18.38 15.86 13.49 11.57 9.93 8.64
1128.666 7.71 6.96 6.46 6.23 6.02 6.03 6.27 6.39 6.76 7.43
1147.959 8.45 9.79 11.48 13.95 17.64 22.93 29.76 37.03 42.03 42.18
1167.253 37.06 28.66 20.77 15.61 12.95 12.08 12.16 13.07 14.78 17.29
1186.546 19.92 21.73 22.14 20.69 17.78 14.13 11.01 9.01 7.72 6.67
1205.840 5.94 5.83 5.91 6.03 5.89 5.76 6.08 6.05 5.97 6.3
1225.133 6.61 6.83 7.28 7.7 7.97 8.26 8.97 9.92 10.88 12.3
1244.426 14.13 16.4 19.33 23.37 28.6 35.21 43.22 52.04 60.61 67.22
1263.720 70.38 69.79 66.27 61 54.85 48.28 41.36 34.49 28.16 22.76
1283.013 18.58 15.38 13.06 11.43 10.27 9.51 9.1 8.96 8.85 8.61
1302.307 8.3 7.95 7.62 7.44 7.41 7.47 7.54 7.52 7.44 7.27
1321.600 7.01 6.76 6.55 6.35 6.06 5.53 5 4.56 4.19 3.93
1340.894 3.73 3.65 3.59 3.57 3.61 3.65 3.71 3.78 3.75 3.74
1360.187 3.74 3.64 3.54 3.51 3.46 3.44 3.42 3.46 3.62 3.76
1379.480 3.91 4.07 4.21 4.26 4.15 3.93 3.69 3.42 3.2 3.01
1398.774 2.83 2.67 2.6 2.6 2.63 2.63 2.66 2.76 2.89 3.07
1418.067 3.27 3.49 3.76 4.08 4.47 4.89 5.25 5.53 5.63 5.53
1437.361 5.3 5.07 4.84 4.7 4.68 4.66 4.73 4.97 5.23 5.45
1456.654 5.72 5.87 5.91 5.87 5.81 5.73 5.5 5.24 4.9 4.52
1475.948 4.14 3.79 3.46 3.16 3.01 2.89 2.78 2.78 2.86 2.99
1495.241 3.26 3.61 4.06 4.69 5.52 6.63 7.8 8.79 9.32 9.07
1514.534 8.03 6.54 5.05 3.92 3.17 2.68 2.37 2.2 2.13 2.0381
1533.828 1.9636 1.9275 1.9298 1.8891 1.8694 1.8694 1.8814 1.9366 1.9224 1.947
1553.121 1.9939 2.0231 2.09 2.16 2.22 2.33 2.45 2.57 2.69 2.86
1572.415 3 3.17 3.5 3.82 4.2 4.74 5.43 6.18 6.98 7.93
1591.708 8.97 9.91 10.7 11.38 12 12.65 13.4 14.18 14.79 14.98
1611.002 14.55 13.53 12.18 10.65 9.12 7.72 6.51 5.52 4.67 4.05
1630.295 3.61 3.23 2.93 2.7 2.5 2.31 2.17 2.1 2.0578 1.9969
1649.588 1.9379 1.9176 1.8907 1.8921 1.8976 1.8509 1.8008 1.7699 1.7507 1.7594
1668.882 1.8183 1.7813 1.7454 1.8583 1.8881 1.9155 2.0359 2.0738 2.16 2.31
1688.175 2.36 2.45 2.54 2.63 2.73 2.77 2.84 2.99 3.25 3.58
1707.469 3.92 4.36 4.9 5.62 6.52 7.64 9.08 10.78 12.91 15.53
1726.762 18.65 22.21 26.08 29.79 32.79 34.22 33.6 31.03 27.09 22.51
1746.056 18.22 14.57 11.68 9.42 7.59 6.27 5.26 4.4 3.86 3.45
1765.349 3.13 2.94 2.71 2.54 2.43 2.32 2.24 2.15 2.11 2.09
1784.642 2.0227 2.0074 1.9718 1.9323 1.9357 1.873 1.7943 1.765 1.6969 1.648
1803.936 1.6243 1.5726 1.4932 1.4369 1.4262 1.4163 1.3996 1.3601 1.3139 1.2754
1823.229 1.2755 1.2782 1.2851 1.2964 1.2892 1.2247 1.17042 1.2278 1.2259 1.17033
1842.523 1.2168 1.2242 1.17736 1.1915 1.2044 1.18915 1.1823 1.18061 1.14591 1.14779
1861.816 1.1712 1.2062 1.18994 1.18358 1.2346 1.2507 1.2871 1.291 1.3164 1.3675
1881.110 1.3576 1.3624 1.4158 1.4157 1.374 1.3908 1.4472 1.4519 1.4257 1.4077
1900.403 1.4009 1.4028 1.4467 1.4837 1.4613 1.4324 1.371 1.3349 1.3635 1.3814
1919.696 1.3372 1.2882 1.2759 1.2489 1.2266 1.2299 1.2303 1.2167 1.16205 1.11954
1938.990 1.11259 1.14645 1.11919 1.0606 1.08045 1.12486 1.16229 1.13715 1.13284 1.16153
1958.283 1.1579 1.12803 1.12939 1.15834 1.1246 1.0799 1.0711 1.0515 1.08144 1.10607
1977.577 1.073 1.0717 1.0756 1.0368 1.045 1.065 1.0543 1.0439 1.0393 1.0744
1996.870 1.0718 1.079 1.12195 1.11167 1.11359 1.11614 1.09465 1.08301 1.11469 1.14316
2016.164 1.09626 1.11318 1.13591 1.14743 1.17611 1.1719 1.17072 1.16283 1.17467 1.1927
2035.457 1.16775 1.10767 1.0684 1.099 1.14801 1.16645 1.16329 1.16121 1.2153 1.2431
2054.750 1.2004 1.1537 1.15728 1.16864 1.18509 1.2189 1.2138 1.18862 1.18805 1.17308
2074.044 1.14855 1.1953 1.18727 1.14881 1.17412 1.16089 1.08426 1.0671 1.10149 1.10249
2093.337 1.1059 1.11964 1.1332 1.13597 1.11465 1.1047 1.11315 1.08971 1.0576 1.0502
2112.631 1.0886 1.09956 1.0742 1.08638 1.08895 1.0323 0.993 0.976 1.0177 1.0444
2131.924 1.0085 1.0042 1.002 0.9977 0.969 0.959 0.968 1.0277 1.0243 0.956
2151.218 0.899 0.876 0.945 0.966 0.973 1.0116 0.95 0.903 0.951 0.941
2170.511 0.906 0.935 0.949 0.918 0.909 0.94 0.954 0.939 0.934 0.955
2189.804 0.943 0.942 0.967 0.97 0.962 0.92 0.929 0.945 0.929 0.934
2209.098 0.957 0.985 0.988 0.969 0.957 0.952 0.973 0.9939 0.966 0.962
2228.391 0.982 0.981 0.974 0.977 0.991 0.994 0.973 0.947 0.96 0.981
2247.685 0.946 0.936 0.972 0.9929 0.981 0.984 0.985 0.981 1.0107 1.0219
2266.978 1.0503 1.0483 1.0267 1.0417 1.0192 0.985 0.988 0.977 0.983 0.965
2286.272 0.913 0.948 0.9928 0.959 0.956 0.9941 1.0193 0.9972 1.0058 1.0203
2305.565 1.0182 1.0529 1.0547 1.067 1.0502 1.0278 1.0433 1.0539 1.0415 1.0496
2324.858 1.08215 1.09157 1.12681 1.11539 1.09047 1.11394 1.10816 1.08822 1.0477 1.08597
2344.152 1.1566 1.14352 1.09623 1.08999 1.09421 1.08707 1.12474 1.12475 1.11101 1.14415
2363.445 1.14967 1.13385 1.11416 1.0751 1.0793 1.09254 1.0738 1.0641 1.0538 1.0745
2382.739 1.12414 1.12812 1.09391 1.066 1.0662 1.0483 0.9997 1.0009 1.0178 1.036
2402.032 1.0597 1.0522 1.0729 1.10068 1.09524 1.11103 1.10335 1.0687 1.0497 1.0593
2421.326 1.12976 1.15126 1.1501 1.16812 1.1467 1.14507 1.09074 1.08115 1.1307 1.1172
2440.619 1.11763 1.13009 1.14251 1.15014 1.14125 1.10064 1.09511 1.14734 1.13291 1.09548
2459.912 1.0357 0.961 0.978 0.982 0.983 1.0226 1.0051 0.954 0.927 0.948
2479.206 0.957 0.935 0.949 0.966 0.9906 0.98 0.975 1.0283 1.0151 0.9982
2498.499 1.0243 1.0329 1.0125 1.0117 1.0158 1.0305 1.0572 1.041 1.0345 1.08805
2517.793 1.10797 1.11272 1.14743 1.14944 1.12343 1.0416 1.0358 1.037 1.0021 1.0291
2537.086 1.0636 1.0313 1.0213 1.0446 0.978 0.914 0.925 0.966 1.0021 1.008
2556.380 1.0004 0.967 0.941 0.941 0.953 0.957 0.957 0.984 0.986 0.9924
2575.673 1.0215 1.0341 1.0533 1.029 1.0044 1.0377 1.052 1.0369 1.0059 1.0207
2594.966 1.0138 1.01 1.0249 1.0176 1.0453 1.0301 1.0562 1.0468 0.9945 1.0423
2614.260 1.0606 1.0155 1.0332 1.09902 1.0601 1.0095 1.0642 1.10006 1.08542 1.0291
2633.553 0.998 1.0441 1.0826 1.0617 1.0166 1.10354 1.16779 1.14438 1.12602 1.11149
2652.847 1.12688 1.15575 1.16814 1.15943 1.16559 1.10797 1.0884 1.12898 1.09556 1.10695
2672.140 1.11721 1.10253 1.1049 1.1113 1.13742 1.18728 1.2689 1.2901 1.2447 1.18396
2691.434 1.1599 1.1951 1.2188 1.1915 1.14912 1.12432 1.11855 1.0795 1.0521 1.0553
2710.727 1.09037 1.0561 1.0485 1.09283 1.0497 0.974 0.995 1.13664 1.13323 1.066
2730.020 1.13058 1.14868 1.12038 1.14833 1.17275 1.189 1.14924 1.13227 1.2123 1.2094
2749.314 1.15093 1.18409 1.2902 1.2781 1.2835 1.3443 1.3123 1.3237 1.3876 1.4323
2768.607 1.3613 1.3247 1.3849 1.3985 1.3832 1.351 1.3302 1.3202 1.369 1.4142
2787.901 1.4242 1.4753 1.471 1.5157 1.5534 1.558 1.6481 1.7379 1.7701 1.8024
2807.194 1.8608 1.9303 1.9666 2.0377 2.13 2.18 2.3 2.43 2.47 2.64
2826.488 2.79 2.81 2.91 3.13 3.33 3.57 3.91 4.25 4.65 5.09
2845.781 5.79 6.77 7.71 9.01 10.77 12.51 14.2 15.73 16.91 17.45
2865.074 17.34 16.76 15.8 14.78 13.73 12.81 12.05 11.49 11.07 10.67
2884.368 10.37 10.12 9.95 9.84 9.95 10.18 10.49 11.01 11.73 12.47
2903.661 13.3 14.41 15.62 16.93 18.32 19.88 21.65 23.64 26.06 28.9
2922.955 32.12 35.8 39.51 42.73 45.13 46.43 46.29 44.68 42.38 39.6
2942.248 36.26 32.82 29.67 26.81 24.23 22.21 20.74 19.78 19.22 18.79
2961.542 18.51 18.17 17.66 16.97 15.98 14.7 13.24 11.92 10.57 9.36
2980.835 8.45 7.61 6.9 6.09 5.42 5.06 4.73 4.29 3.92 3.69
3000.128 3.44 3.24 3.06 2.96 2.89 2.8 2.79 2.78 2.68 2.59
3019.422 2.5 2.33 2.22 2.22 2.23 2.19 2.15 2.15 2.25 2.37
3038.715 2.39 2.37 2.34 2.3 2.0863 1.8552 1.7038 1.4917 1.4697 1.4189
3058.009 1.2885 1.2126 1.09706 1.2157 1.3167 1.3061 1.4075 1.5 1.6249 1.7663
3077.302 1.7275 1.6621 1.6766 1.5287 1.2653 1.13564 0.982 0.877 0.852 0.913
3096.596 0.9937 0.873 0.836 0.837 0.851 0.879 0.911 0.89 0.684 0.609
3115.889 0.588 0.584 0.552 0.543 0.711 0.626 0.476 0.518 0.531 0.478
3135.182 0.51 0.561 0.622 0.617 0.401 0.313 0.438 0.399 0.33 0.317
3154.476 0.246 0.257 0.286 0.253 0.288 0.374 0.357 0.379 0.347 0.326
3173.769 0.469 0.518 0.467 0.379 0.397 0.6 0.551 0.412 0.414 0.407
3193.063 0.442 0.433 0.335 0.204 0.17 0.207 0.275 0.244 0.09 0.08
3212.356 0.211 0.31 0.366 0.247 0.194 0.195 0.124 0.05 0.109 0.148
3231.650 0.151 0.2 0.05 0.171 0.277 0.183 0.216 0.278 0.308 0.21
3250.943 0.129 0.112 0.259 0.307 0.178 0.092 0 0.05 0.1 0.06
3270.236 0.06 0.124 0.13 0.06 0.07 0.098 0.116 0.204 0.276 0.233
3289.530 0.143 0.097 0.154 0.236 0.233 0.192 0.163 0.28 0.228 0.183
3308.823 0.274 0.308 0.299 0.282 0.396 0.297 0.116 0.142 0.265 0.334
3328.117 0.341 0.367 0.35 0.208 0.173 0.279 0.237 0.165 0.246 0.248
3347.410 0.19 0.129 0.112 0.11 0.05 0.091 0.142 0.199 0.241 0.216
3366.704 0.128 0.02 0.01 0.209 0.451 0.511 0.403 0.2 0.151 0.268
3385.997 0.308 0.251 0.231 0.267 0.307 0.316 0.213 0.203 0.253 0.187
3405.290 0.091 0.118 0.241 0.237 0.189 0.175 0.195 0.226 0.255 0.231
3424.584 0.184 0.274 0.271 0.191 0.212 0.28 0.287 0.216 0.318 0.496
3443.877 0.448 0.413 0.53 0.539 0.413 0.391 0.565 0.637 0.517 0.371
3463.171 0.292 0.329 0.352 0.278 0.233 0.183 0.22 0.277 0.201 0.127
3482.464 0.183 0.292 0.364 0.301 0.152 0.232 0.296 0.232 0.308 0.424
3501.758 0.349 0.268 0.301 0.212 0.25 0.245 0.191 0.319 0.367 0.206
3521.051 0.138 0.269 0.27 0.33 0.434 0.27 0.148 0.204 0.283 0.394
3540.344 0.421 0.365 0.32 0.209 0.165 0.235 0.242 0.273 0.406 0.383
3559.638 0.297 0.394 0.276 0.233 0.431 0.511 0.491 0.365 0.394 0.497
3578.931 0.509 0.488 0.495 0.633 0.576 0.357 0.282 0.29 0.387 0.424
3598.225 0.47 0.584 0.496 0.437 0.446 0.5 0.66 0.789 0.742 0.682
3617.518 0.751 0.904 1.10899 1.14288 1.2725 1.5355 1.8036 2.21 2.77 3.65
3636.812 4.95 6.5 8.22 9.95 11.61 12.77 12.86 11.71 9.55 7.05
3656.105 4.89 3.39 2.41 1.9274 1.5969 1.3029 1.16566 1.0325 0.949 0.918
3675.398 0.86 0.873 0.8 0.693 0.68 0.606 0.622 0.695 0.678 0.671
3694.692 0.683 0.626 0.509 0.51 0.619 0.653 0.524 0.537 0.519 0.544
3713.985 0.573 0.445 0.502 0.638 0.715 0.672 0.593 0.467 0.493 0.631
3733.279 0.644 0.551 0.524 0.57 0.637 0.633 0.532 0.451 0.435 0.5
3752.572 0.501 0.509 0.457 0.407 0.511 0.59 0.524 0.472 0.528 0.584
3771.866 0.576 0.577 0.569 0.557 0.549 0.495 0.472 0.477 0.453 0.553
3791.159 0.544 0.479 0.564 0.514 0.488 0.541 0.526 0.496 0.499 0.495
3810.452 0.516 0.53 0.503 0.521 0.538 0.529 0.6 0.57 0.483 0.551
3829.746 0.624 0.635 0.622 0.521 0.432 0.421 0.477 0.566 0.538 0.573
3849.039 0.595 0.53 0.574 0.665 0.625 0.601 0.61 0.514 0.509 0.558
3868.333 0.503 0.586 0.727 0.618 0.563 0.618 0.638 0.682 0.596 0.623
3887.626 0.67 0.548 0.613 0.625 0.559 0.597 0.589 0.587 0.594 0.584
3906.920 0.61 0.647 0.645 0.628 0.598 0.596 0.686 0.688 0.611 0.55
3926.213 0.538 0.605 0.708 0.728 0.638 0.695 0.711 0.62 0.628 0.649
3945.506 0.739 0.783 0.737 0.575 0.544 0.596 0.615 0.714 0.707 0.654
3964.800 0.648 0.601 0.662 0.799 0.751 0.679 0.671 0.674 0.749 0.81
3984.093 0.822 0.752 0.722 0.723 0.577 0.53 0.608 0.639 0.576
##END=
