##TITLE=2-Octenyl succinic anhydride
##JCAMP-DX=4.24
##DATA TYPE=INFRARED SPECTRUM
##ORIGIN=NIST Mass Spectrometry Data Center
##OWNER=NIST Standard Reference Data Program
Collection (C) 2018 copyright by the U.S. Secretary of Commerce
on behalf of the United States of America. All rights reserved.
##CAS REGISTRY NO=26680-54-6
##MOLFORM=C 12 H 18 O 3
##$NIST SOURCE=MSDC-IR
##SPECTROMETER/DATA SYSTEM=HP-GC/MS/IRD
##STATE=gas
##XUNITS=1/CM
##YUNITS=ABSORBANCE
##XFACTOR=1.0
##YFACTOR=0.000004900
##DELTAX=4.0
##FIRSTX=550.0
##LASTX=3846.0
##FIRSTY=0.001039
##MAXX=3846
##MINX=550
##MAXY=0.049
##MINY=0
##NPOINTS=825
##XYDATA=(X++(Y..Y))
550.0 212 138 101 133 168 228 251 234 216 180
590.0 160 142 150 142 110 115 118 123 146 151
630.0 142 145 143 125 111 109 99 93 92 87
670.0 84 82 91 96 103 121 141 161 182 208
710.0 247 281 308 321 316 299 263 218 184 146
750.0 109 81 58 51 49 53 59 52 50 51
790.0 39 32 30 19 7 2 0 1 7 16
830.0 19 27 35 44 59 83 110 145 197 271
870.0 375 525 725 963 1219 1469 1692 1885 2077 2289
910.0 2500 2658 2722 2655 2466 2192 1901 1645 1450 1309
950.0 1224 1187 1187 1210 1248 1281 1276 1230 1141 1034
990.0 950 903 897 912 929 946 970 995 1027 1064
1030.0 1120 1214 1337 1477 1624 1785 1960 2150 2307 2360
1070.0 2233 1933 1541 1168 874 669 529 428 362 310
1110.0 267 236 217 206 198 189 195 203 216 241
1150.0 271 307 349 396 452 504 564 621 682 752
1190.0 829 922 1030 1155 1288 1415 1513 1569 1586 1552
1230.0 1462 1325 1164 1006 875 768 684 620 563 520
1270.0 483 435 404 381 378 375 356 349 349 356
1310.0 380 414 410 364 332 306 354 472 391 278
1350.0 261 242 287 351 243 203 243 216 204 281
1390.0 283 307 320 221 208 208 312 522 527 476
1430.0 496 620 636 489 523 511 689 754 509 420
1470.0 470 527 342 208 279 328 277 263 278 549
1510.0 589 388 433 453 325 242 251 374 452 319
1550.0 225 302 462 270 87 98 117 109 19 6
1590.0 7 11 8 15 22 25 83 124 102 84
1630.0 73 176 167 136 223 365 411 211 150 183
1670.0 228 245 229 360 368 199 296 460 388 235
1710.0 192 343 422 250 195 363 506 417 379 480
1750.0 622 634 685 817 1040 1348 1604 1967 2576 3369
1790.0 4493 5950 7625 9238 10000 9633 8242 6429 4843 3701
1830.0 2872 2256 1838 1632 1465 1265 1188 1246 1387 1658
1870.0 1992 2249 2325 2029 1502 1027 691 487 361 291
1910.0 245 219 225 195 140 111 99 100 120 94
1950.0 61 57 48 44 58 48 31 26 22 31
1990.0 59 54 32 32 35 34 45 53 31 20
2030.0 17 11 12 14 6 1 1 0 11 15
2070.0 6 5 5 5 13 18 14 15 16 17
2110.0 22 28 28 27 29 31 32 33 33 29
2150.0 28 28 29 28 22 19 19 17 16 16
2190.0 11 11 11 13 16 12 11 10 8 9
2230.0 13 11 10 12 12 15 14 14 16 14
2270.0 14 16 16 16 17 17 18 19 20 22
2310.0 25 28 29 28 23 22 20 20 24 21
2350.0 18 21 25 26 25 24 19 10 3 2
2390.0 1 2 4 4 6 8 8 9 13 12
2430.0 8 6 5 6 6 5 5 4 4 1
2470.0 0 0 0 2 2 5 7 7 5 6
2510.0 5 7 6 4 4 3 4 4 2 2
2550.0 5 7 5 6 6 5 7 9 7 6
2590.0 7 6 5 4 4 6 9 9 9 12
2630.0 13 13 15 16 18 20 22 20 19 22
2670.0 27 29 26 25 28 27 23 22 18 17
2710.0 21 25 27 28 30 35 37 37 36 38
2750.0 38 36 39 41 44 48 52 55 59 66
2790.0 75 78 84 98 107 118 129 142 164 189
2830.0 220 262 320 394 495 631 796 953 1078 1141
2870.0 1143 1101 1055 1028 1002 966 946 978 1068 1202
2910.0 1379 1606 1903 2277 2701 3083 3287 3229 2945 2561
2950.0 2195 1947 1856 1879 1939 1897 1684 1360 1058 845
2990.0 706 610 533 479 444 429 418 403 382 352
3030.0 321 284 245 208 169 139 117 100 91 81
3070.0 71 63 59 59 53 47 46 43 41 40
3110.0 37 36 33 31 26 22 21 22 22 21
3150.0 23 27 30 30 27 27 24 23 22 16
3190.0 17 20 20 18 15 17 14 11 10 15
3230.0 20 17 14 14 15 15 15 11 10 9
3270.0 8 11 14 16 14 9 10 11 7 8
3310.0 7 1 3 3 5 11 18 16 10 5
3350.0 3 6 10 10 10 5 0 1 6 7
3390.0 5 11 13 10 0 3 10 13 15 9
3430.0 7 12 19 18 21 8 8 29 29 14
3470.0 5 5 24 48 35 21 14 46 91 72
3510.0 48 22 22 92 119 53 49 47 88 171
3550.0 110 55 52 120 272 206 58 50 98 245
3590.0 247 153 126 104 204 292 254 258 180 261
3630.0 349 166 106 116 269 370 262 198 135 183
3670.0 307 335 233 112 165 197 98 89 101 95
3710.0 191 195 118 189 224 200 355 300 303 382
3750.0 308 209 96 68 69 65 14 16 24 13
3790.0 2 22 88 130 101 55 94 156 126 66
3830.0 57 136 197 139 50
##END=
