##TITLE=(+)-cis-2-Benzamidocyclohexanecarboxylic acid
##JCAMP-DX=4.24
##DATA TYPE=INFRARED SPECTRUM
##ORIGIN=EPA-IR VAPOR PHASE LIBRARY
##OWNER=SRD/NIST
Collection (C) 2018 copyright by the U.S. Secretary of Commerce
on behalf of the United States of America. All rights reserved.
##CAS REGISTRY NO=26685-82-5
##MOLFORM=C 14 H 17 N O 3
##$NIST SOURCE=MSDC-IR
##STATE=gas
##XUNITS=1/CM
##YUNITS=ABSORBANCE
##XFACTOR=1.
##YFACTOR=0.001
##DELTAX=1.92898
##FIRSTX=549.8
##LASTX=4000.7
##FIRSTY=4.04
##MAXX=4000.7
##MINX=549.759
##MAXY=0.01559
##MINY=0
##NPOINTS=1790
##XYDATA=(X++(Y..Y))
549.759 4.04 3.69 3.81 3.81 3.18 3.65 4.84 4.23 3.69 3.47
569.049 4.16 4.06 3.5 3.29 3.06 3.08 2.98 3.53 3.87 4.28
588.339 4.19 4.08 4.19 4.62 4.5 4.04 3.85 4.01 4.42 3.97
607.628 3.69 3.36 3.74 4.59 3.86 3.84 4.52 4.44 4.72 4.17
626.918 3.13 3 2.75 2.77 3.56 3.57 3.45 3.54 3.27 3.01
646.208 2.5 2.61 3.1 3.18 2.97 2.4 2.83 3.19 3.01 3.18
665.498 3.46 3.25 3.36 4.59 4.73 3.74 4.22 5.16 5.44 6.16
684.787 6.88 7.63 8.4 9.18 8.79 7.51 6.14 5.58 5.57 4.91
704.077 4.32 4.1 4.42 3.95 3.1 3.17 3.47 3.15 2.53 2.0241
723.367 2.2401 2.73 2.8 3.05 3.21 2.73 2.2622 2.3248 2.2601 2.39
742.657 2.53 2.43 2.35 2.0347 2.1832 2.0165 1.7567 1.8734 1.9787 2.3286
761.947 2.68 2.49 2.34 2.47 2.3156 1.968 1.741 1.661 1.5804 2.0878
781.236 2.1031 1.5744 1.4523 1.33474 1.3128 0.961 1.37819 1.6573 1.34594 2.106
800.526 2.0754 1.7583 2.2031 2.35 2.0097 1.9635 2.2902 2.91 2.93 3.17
819.816 3.75 3.04 2.2642 2.1346 2.51 2.48 1.6757 1.8219 2.246 2.3248
839.106 2.55 3.28 3.38 2.3173 1.8518 2.075 2.0624 1.40602 1.035 1.8651
858.395 2.73 2.87 2.55 2.072 1.9273 1.5254 1.5987 2.0266 1.7693 1.176
877.685 1.074 1.19 1.34787 1.109 1.112 1.5419 1.6121 1.7613 1.5344 1.5791
896.975 1.6487 1.42396 1.5759 1.6158 1.6969 1.9274 1.6923 1.5719 1.34907 1.104
916.265 1.2565 1.193 1.34663 1.5318 1.5613 1.41423 1.021 0.734 0.592 1.023
935.555 1.3199 1.071 1.5518 1.5632 1.06 1.35323 1.012 0.92 1.5545 1.35547
954.844 0.667 0.624 0.935 0.843 0.861 1.118 1.5976 2.2491 2.1478 1.8826
974.134 1.4828 1.33403 0.995 0.499 0.745 0.552 0.444 0.26 0.24 0.32
993.424 0.838 1.4438 1.3174 1.3651 1.4803 1.7766 1.4526 1.4605 1.7689 1.5731
1012.714 1.39915 1.062 1.182 1.4791 2.0913 1.2827 1.561 2.95 2.86 2.66
1032.003 2.3362 2.61 1.9352 1.8471 2.63 2.72 2.67 2.48 2.39 2.63
1051.293 3.38 3.31 3.31 4 3.11 2.52 3.24 3.86 4.21 4.73
1070.583 5.63 4.92 3.4 3.75 4.86 4.35 5.11 7.43 5.44 3.5
1089.873 4.95 7.69 8.2 8.1 8.36 6.74 7.82 8.54 9.36 10.31
1109.163 8.87 9.66 10.64 10.87 12.32 12.2 11.37 12.34 11.42 10.36
1128.452 10.81 9.61 9.71 9.75 8.79 8.06 7.74 7.8 7.76 8.68
1147.742 8.87 8.24 8.08 7.06 6.31 6.73 7.12 7.53 6.79 6.2
1167.032 6.69 6.14 6.4 7.58 7.59 6.93 5.7 5.72 5.39 5.56
1186.322 7.75 7.58 6.81 6.38 6.84 6.98 6.27 6.05 7.19 9.54
1205.611 10.06 8.98 8.19 7.57 7.9 8.76 8.73 7.96 5.94 6.39
1224.901 6.65 6.84 8.08 8.39 8.01 7.28 5.96 5.19 5.67 5.66
1244.191 5.84 5.74 4.93 5.61 6.13 5.19 5.22 5.39 4.92 5.13
1263.481 5.54 5.14 4.86 4.58 3.91 3.82 4.36 4.11 3.85 4.35
1282.771 3.9 3.72 3.47 3.34 4.06 3.93 3.8 3.6 2.97 2.86
1302.060 3.12 3.07 2.91 3.04 3.03 2.78 2.64 2.59 2.66 2.8
1321.350 2.88 2.74 2.7 2.99 3.1 2.98 2.92 3.03 3.02 3.02
1340.640 3.11 3.05 3.12 3.23 3.08 3.05 3.31 3.57 3.48 3.28
1359.930 3.32 3.48 3.58 3.66 3.76 3.83 3.98 3.99 3.91 4.07
1379.219 4.05 3.9 3.82 3.77 3.73 3.66 3.65 3.39 3.13 2.98
1398.509 2.87 2.9 2.68 2.46 2.62 2.69 2.69 2.69 2.49 2.45
1417.799 2.72 2.73 2.58 2.72 2.72 2.69 2.78 2.89 3.04 3.15
1437.089 3.4 3.45 3.33 3.45 3.31 3.13 3.26 3.09 2.82 2.75
1456.378 2.88 3.11 3.06 2.76 2.67 2.66 2.46 2.2607 2.164 2.2045
1475.668 2.0411 1.6692 1.6441 1.8621 1.8388 1.711 1.7102 1.7542 1.7234 1.8977
1494.958 1.9929 1.5585 1.37845 1.5097 1.7213 1.7183 1.3089 1.42032 1.5352 1.37133
1514.248 1.39158 1.3045 1.34652 1.6116 1.6296 1.5108 1.6091 1.5944 1.5825 1.5793
1533.538 1.5927 1.38227 1.3157 1.7031 1.8503 1.782 1.4647 1.4987 1.689 1.5972
1552.827 1.8492 1.8598 1.6365 1.8947 1.9217 1.5181 1.217 1.3843 1.4962 1.5312
1572.117 1.7474 1.7233 1.43559 1.4682 1.6399 1.5721 1.5315 1.7207 1.7035 1.43651
1591.407 1.5407 1.5907 1.5718 1.38413 1.027 0.978 1.2746 1.657 1.6715 1.6549
1610.697 1.5456 1.4436 1.4977 1.4984 1.6556 1.8519 2.1777 1.979 1.5821 1.6722
1629.986 1.649 1.504 1.5812 1.7355 1.9379 2.1114 1.8599 1.5599 1.8149 1.8611
1649.276 1.6498 1.8415 1.8747 1.611 1.5017 1.558 1.6413 1.7978 1.9203 1.9703
1668.566 1.7401 1.4922 1.5447 1.7952 1.9576 2.0295 2.0967 2.0166 1.9404 1.7722
1687.856 1.7455 1.899 2.0383 2.0717 1.9488 2.0356 2.3352 2.38 2.1323 2.1086
1707.146 2.2277 2.46 2.72 2.46 2.49 2.73 2.66 2.7 2.79 2.95
1726.435 2.83 2.89 3.39 3.82 4.15 4.09 4.31 4.63 4.76 5.07
1745.725 5.49 6.07 6.36 6.82 7.25 7.54 8.16 8.74 9.31 10.16
1765.015 11.09 12.17 13.15 14.02 14.87 15.32 15.58 15.59 15.05 14.25
1784.305 13.59 12.72 11.6 10.68 9.76 8.86 8.09 7.36 6.75 6.31
1803.594 5.89 5.32 4.88 4.63 4.28 3.79 3.28 2.92 2.89 2.77
1822.884 2.44 2.3078 2.1223 2.0143 2.014 1.9563 1.9828 1.9825 2.001 1.9796
1842.174 1.9651 1.6931 1.6095 1.8532 1.7913 1.8304 1.7962 1.5649 1.5852 1.5262
1861.464 1.4883 1.6058 1.5582 1.5801 1.6414 1.5413 1.5636 1.6978 1.6536 1.4486
1880.754 1.2552 1.2462 1.5387 1.5474 1.37198 1.4588 1.4546 1.5272 1.6532 1.4428
1900.043 1.313 1.40064 1.2481 1.38483 1.6489 1.5715 1.5019 1.39027 1.2447 1.3196
1919.333 1.4966 1.40179 1.36112 1.43246 1.40637 1.40632 1.4619 1.38606 1.2711 1.2612
1938.623 1.35313 1.40058 1.3651 1.2434 1.2566 1.2629 1.35708 1.4945 1.43034 1.3019
1957.913 1.238 1.2855 1.3085 1.3215 1.083 1.065 1.285 1.36459 1.2702 1.2836
1977.202 1.188 1.048 1.2536 1.199 1.128 1.2898 1.3147 1.198 1.098 1.215
1996.492 1.2625 1.11 1.069 1.093 1.086 1.11 1.2457 1.4721 1.40417 0.973
2015.782 0.937 1.188 1.229 1.305 1.176 1.172 1.42775 1.16 0.843 1.034
2035.072 1.107 1.113 1.227 1.39209 1.314 1.2836 1.4432 1.4913 1.33319 0.958
2054.362 0.935 1.069 1.2513 1.4381 1.4649 1.142 0.825 0.954 1.033 0.982
2073.651 1.169 1.227 1.168 1.154 1.2564 1.2644 1.191 1.41612 1.34346 0.966
2092.941 1.007 1.2917 1.072 1.028 1.097 0.946 0.82 0.935 1.135 1.02
2112.231 1.035 1.005 0.906 0.813 0.786 0.974 1.159 1.188 1.111 1.2918
2131.521 1.37737 1.2607 1.33085 1.37769 1.2571 1.159 1.129 1.007 1.071 1.079
2150.810 1.044 0.969 0.934 1.098 1.157 1.084 1.062 1.104 1.108 1.113
2170.100 1.074 1.233 1.084 0.896 1.125 1.061 1.115 1.3106 1.111 0.934
2189.390 1.069 1.029 1.029 1.071 1.055 1.212 1.2822 1.2 1.075 0.991
2208.680 0.915 0.969 0.913 0.659 0.647 1.026 1.094 0.882 1.055 1.202
2227.970 1.025 1.006 1.025 0.929 0.863 1.102 1.43211 1.40379 1.2843 1.2649
2247.259 1.23 1.126 1.116 1.2564 1.3125 0.921 0.919 1.085 1.04 1.01
2266.549 1.061 1.031 0.915 0.975 0.956 1.168 1.2508 1.278 1.207 0.973
2285.839 1.108 1.048 0.99 1.071 1.11 1.154 1.2757 1.4272 1.2881 1.3049
2305.129 1.217 0.793 1.015 1.2406 0.996 1.05 0.95 0.654 0.875 1.056
2324.418 0.882 0.986 1.149 1.151 0.916 0.961 0.947 0.994 1.072 1.03
2343.708 1.177 1.035 0.983 0.895 1.012 1.172 1.009 0.795 0.793 0.979
2362.998 1.11 1.124 1.205 1.192 1.127 0.958 0.854 0.934 0.916 1.1
2382.288 0.904 0.637 0.903 0.967 0.935 1.118 1.096 1.016 1.128 1.174
2401.578 1.2449 1.33323 1.34917 1.069 0.937 1.07 0.869 0.743 0.951 0.901
2420.867 0.466 0.5 0.834 0.997 0.953 1.106 1.3886 1.4814 1.2742 1.143
2440.157 1.099 1.002 1.113 1.2462 1.2961 1.2481 1.043 1.084 1.01 1.032
2459.447 1.117 0.966 0.975 1.088 1.106 0.995 1.042 1.153 1.178 1.13
2478.737 1.2929 1.2661 1.122 1.001 1.039 1.196 0.87 0.446 0.665 0.794
2498.026 0.67 0.957 1.129 0.601 0.23 0.362 0.494 0.405 0.527 0.827
2517.316 0.845 0.955 0.9 1.017 1.202 1.315 1.2788 1.2433 0.979 0.711
2536.606 0.945 0.785 0.596 0.594 0.97 1.36554 1.242 0.905 0.74 0.885
2555.896 0.792 0.828 1.086 1.149 1.5257 1.4951 1.03 1.003 0.895 0.597
2575.186 0.583 0.755 1.23 1.4988 0.923 0.859 1.3436 1.2521 0.863 0.769
2594.475 0.99 1.2445 1.122 0.988 1.116 0.985 0.741 0.889 1.175 1.3035
2613.765 1.025 0.744 0.882 0.94 0.844 0.59 0.811 0.921 0.748 0.779
2633.055 0.794 1.175 1.4859 1.472 1.4653 1.5957 1.39817 1.053 0.827 1.05
2652.345 1.2802 1.1 0.965 0.874 0.722 0.823 1.2 1.034 0.702 0.831
2671.634 0.883 0.765 0.68 0.951 1.3195 1.233 1.34777 1.183 0.923 1.129
2690.924 0.937 1.001 1.032 0.957 0.888 0.946 1.114 0.608 0.677 1.2504
2710.214 1.36435 1.2971 1.35038 1.3231 1.153 1.074 1.082 1.3417 1.6508 1.28
2729.504 0.545 0.477 0.724 0.939 1.105 0.662 0.493 0.776 0.925 0.718
2748.794 0.434 0.612 0.925 0.802 0.79 0.873 0.904 1.036 0.833 0.962
2768.083 0.849 0.31 0.414 0.666 0.562 0.832 0.884 0.977 0.944 0.659
2787.373 0.663 0.589 0.724 0.93 1.173 0.935 0.871 1.095 1.181 1.229
2806.663 1.09 1.078 0.795 0.763 1.33304 1.176 0.829 1.042 0.977 0.488
2825.953 0.801 1.048 0.785 0.911 1.158 0.995 1.215 1.6864 1.5274 1.4762
2845.242 1.122 0.881 1.2793 1.31 1.197 1.4976 1.8253 2.34 2.53 2.3024
2864.532 2.5 2.7 2.58 2.89 2.82 2.2701 1.9575 1.8836 1.9117 1.8611
2883.822 1.8788 1.7468 1.4738 1.6068 1.8211 1.9731 1.9579 1.6476 1.5222 1.8644
2903.112 2.3059 2.46 2.49 2.46 2.53 2.87 3.48 3.64 3.7 3.57
2922.401 3.72 3.96 4.11 4.89 5.17 5.17 5.3 4.97 4.75 4.98
2941.691 5.37 5.71 5.27 4.8 5.31 5.59 4.63 4.08 4.18 4
2960.981 3.53 3.59 3.26 2.3237 2.42 2.318 2.38 2.64 2.35 2.3058
2980.271 2.2635 2.34 2.0885 1.5317 1.5207 1.3244 1.3039 1.6867 1.38709 0.841
2999.561 0.859 0.918 1.058 1.032 0.728 0.946 1.43411 1.6003 1.43261 1.053
3018.850 0.941 0.8 0.681 0.706 0.775 1.06 1.34487 1.43769 1.5999 1.6218
3038.140 1.4412 1.177 0.864 0.781 0.574 0.358 0.528 1.5378 1.7646 1.3148
3057.430 1.5617 1.43773 0.826 1.075 1.2634 1.193 1.42507 1.5786 1.3121 1.083
3076.720 1.4955 1.7062 1.8368 1.9934 1.6365 1.6182 1.948 2.0877 2.0014 1.8706
3096.009 1.6968 1.201 1.3266 1.3001 1.204 1.5339 1.35427 1.007 0.797 0.961
3115.299 1.6136 1.4833 1.3143 1.032 0.86 1.33771 1.3207 1.4696 1.34753 0.828
3134.589 0.76 0.824 0.866 0.57 0.736 1.3066 1.054 0.956 0.842 0.772
3153.879 1.019 1.043 0.912 0.936 0.669 0.486 0.777 0.455 0.13 0.584
3173.169 1.03 0.68 0.499 1.087 1.235 0.91 1.228 1.262 0.635 0.448
3192.458 0.772 1.34605 1.4497 0.898 0.29 0.395 0.974 1.2726 0.855 0.646
3211.748 0.778 1.094 1.35607 1.202 1.36449 1.2412 1.2 1.2535 0.931 1.007
3231.038 1.42368 1.3288 1.158 0.953 1.329 1.004 0.373 1.02 1.137 1.2542
3250.328 1.36741 1.4934 1.122 0.622 0.844 1.008 1.135 0.704 0.95 1.5344
3269.617 1.2516 1.2599 1.35575 1.246 1.2963 1.2782 1.205 0.999 0.912 0.555
3288.907 0.503 0.797 0.873 1.225 1.3157 1.188 0.965 0.775 1.041 1.6867
3308.197 2.0746 1.8666 1.7743 1.8422 1.6989 1.122 1.019 1.43996 1.5549 1.2544
3327.487 0.728 0.617 0.826 0.772 0.713 1.07 1.181 0.915 0.974 1.119
3346.777 0.858 1.004 1.204 1.2779 0.899 1.142 1.7454 1.2748 1.141 1.2501
3366.066 1.222 1.211 1.39537 1.122 0.985 1.4628 1.4528 1.5111 1.4532 1.43774
3385.356 1.3194 0.907 0.988 0.991 0.919 0.999 0.607 0.663 1.5956 1.7588
3404.646 1.01 1.207 1.177 1.034 1.5866 1.5207 1.091 0.963 1.37464 1.164
3423.936 1.114 1.5086 1.3182 0.994 1.226 1.41604 1.154 1.233 1.203 1.2912
3443.225 1.445 1.2629 1.4597 1.5385 1.42863 1.39015 0.925 0.471 0.379 0.579
3462.515 0.515 0.05 0.553 1.089 1.2972 1.4885 1.4579 1.6078 1.43427 1.39786
3481.805 1.6133 1.9404 1.5486 0.941 0.911 0.97 1.12 1.4861 1.6223 1.5488
3501.095 1.9797 2.0485 1.3978 0.932 0.98 0.889 1.195 1.33767 0.882 1.3132
3520.385 2.0943 2.1246 1.6242 1.5904 1.5648 1.38222 2.2497 2.89 1.885 1
3539.674 1.108 1.192 1.33766 1.8879 1.8997 2.0676 2.2227 1.5741 1.37249 1.9986
3558.964 2.42 2.1753 2.78 3.65 4.46 5.63 6.51 6.67 6.97 6.99
3578.254 6.39 5.83 4.93 3.83 2.88 2.2763 1.975 1.9761 1.9838 1.6156
3597.544 1.3073 1.6727 1.9479 1.8047 1.6599 1.201 1.5501 2.0248 1.7239 1.9257
3616.833 1.8292 1.4417 1.2848 0.973 0.998 1.6973 1.718 1.037 1.2478 1.6889
3636.123 1.4242 1.33849 1.4866 1.207 0.619 0.656 1.028 1.2836 1.054 1.3219
3655.413 1.9747 1.8524 1.8406 1.168 0.947 1.031 0.566 0.705 0.887 0.66
3674.703 0.383 0.868 1.6006 1.7171 1.43972 1.2904 1.3096 1.1 1.228 1.39029
3693.993 1.2699 0.697 0.12 0.24 0.755 1.4732 1.35384 0.992 1.021 0.77
3713.282 0.563 0.943 1.5309 1.3041 0.626 0.602 1.029 1.02 1.077 1.43679
3732.572 1.6607 1.7134 1.37212 1.224 0.909 0.784 1.212 1.197 0.867 0.808
3751.862 1.027 0.945 1.035 0.928 0.564 0.985 1.088 0.889 1.167 1.4915
3771.152 1.2542 1.114 1.18 0.834 1.173 1.4783 1.069 0.855 0.812 1.01
3790.441 1.8147 1.7846 1.093 1.3711 1.7121 1.6985 1.076 0.484 1.037 1.39299
3809.731 1.7171 1.6893 1.183 1.2949 1.165 1.34561 1.736 1.088 0.802 1.5637
3829.021 1.5366 0.934 1.083 0.926 0.868 1.2589 1.7105 2.058 1.7084 1.3189
3848.311 1.069 0.561 0.595 1.9621 2.0469 1.082 1.142 1.155 0.851 1.061
3867.601 1.4406 0.991 0.897 1.2534 1.2519 1.205 1.5067 1.533 1.5203 1.4956
3886.890 0.632 0.376 0.917 1.5974 1.6557 1.215 0.795 1.04 1.082 0.99
3906.180 1.016 0.799 1.2757 1.289 1.009 1.121 1.239 1.5661 0.987 0.366
3925.470 1.172 1.5801 1.2509 1.36806 0.811 0.31 0.733 1.5931 1.55 0.538
3944.760 0 0.582 1.2782 0.913 1.40475 2.0545 1.8058 1.174 0.749 1.156
3964.049 1.179 0.871 0.93 0.624 0.13 0.3 1.025 0.842 0.454 0.918
3983.339 1.5038 1.7767 1.6609 1.916 1.9602 1.4955 1.39672 1.4636 1.047 0.655
##END=
