##TITLE=Phloroglucinol triacetate
##JCAMP-DX=4.24
##DATA TYPE=INFRARED SPECTRUM
##ORIGIN=EPA-IR VAPOR PHASE LIBRARY
##OWNER=SRD/NIST
Collection (C) 2018 copyright by the U.S. Secretary of Commerce
on behalf of the United States of America. All rights reserved.
##CAS REGISTRY NO=2672-58-4
##MOLFORM=C 12 H 12 O 6
##$NIST SOURCE=MSDC-IR
##STATE=gas
##XUNITS=1/CM
##YUNITS=ABSORBANCE
##XFACTOR=1.
##YFACTOR=0.001
##DELTAX=1.92898
##FIRSTX=549.8
##LASTX=4000.7
##FIRSTY=1.406
##MAXX=4000.7
##MINX=549.759
##MAXY=0.288226
##MINY=0
##NPOINTS=1790
##XYDATA=(X++(Y..Y))
549.759 1.406 1.696 1.886 1.986 2.096 2.066 2.126 2.346 2.406 2.246
569.049 1.886 1.916 2.156 2.016 2.116 2.226 2.156 2.376 2.456 2.236
588.339 2.396 2.726 2.836 3.086 3.326 3.146 3.066 2.976 2.536 2.306
607.628 2.206 2.096 1.936 1.826 1.776 1.706 1.416 1.2121 1.1614 1.1108
626.918 1.1664 1.1852 1.2786 1.3211 1.3434 1.366 1.2948 1.426 1.576 1.636
646.208 2.006 2.436 2.996 3.486 3.896 4.126 4.246 4.386 4.166 3.626
665.498 3.146 2.706 2.316 2.306 2.296 2.096 2.216 2.366 2.396 2.656
684.787 3.166 3.666 4.206 5.056 5.976 6.596 6.896 6.636 6.076 5.376
704.077 4.366 3.296 2.516 2.066 1.736 1.506 1.446 1.356 1.1711 1.2355
723.367 1.1496 0.7945 0.7767 0.9657 0.8896 0.9345 1.0886 0.8464 0.7736 0.7164
742.657 0.661 0.752 0.7418 0.8655 0.8173 0.645 0.7042 0.7783 0.6969 0.6924
761.947 0.7657 0.8289 0.7474 0.808 0.8125 0.8068 0.7893 0.6885 0.7897 0.7792
781.236 0.7604 0.9084 0.936 0.9037 1.1105 1.3407 1.506 1.486 1.376 1.506
800.526 1.656 1.776 1.846 1.876 2.206 2.476 2.576 2.726 2.896 3.286
819.816 3.526 3.666 4.036 4.156 3.956 3.696 3.626 3.536 3.236 2.956
839.106 2.766 2.426 2.176 2.326 2.346 2.366 2.276 2.446 2.816 2.996
858.395 3.036 2.856 3.146 3.426 3.606 3.946 4.156 4.646 5.386 5.816
877.685 6.416 7.416 8.156 8.886 9.686 10.286 10.706 10.836 10.686 10.686
896.975 10.666 10.236 9.716 9.146 8.536 7.946 7.266 6.326 5.496 4.996
916.265 4.606 4.036 3.496 3.356 3.216 2.946 2.916 2.926 2.806 2.616
935.555 2.536 2.466 2.386 2.296 2.326 2.336 2.296 2.306 2.286 2.316
954.844 2.236 2.436 2.766 2.786 2.766 2.996 3.186 3.366 3.586 3.876
974.134 4.176 4.656 5.436 6.206 6.746 7.086 7.586 8.386 9.066 9.456
993.424 10.076 10.976 12.016 13.226 14.796 16.606 18.556 20.996 23.876 27.306
1012.714 31.446 35.986 40.936 46.186 50.786 53.836 54.876 53.706 50.386 44.906
1032.003 38.306 31.716 26.166 21.746 17.996 15.536 14.086 12.956 11.826 10.786
1051.293 10.246 10.116 10.076 10.176 10.236 10.276 10.626 11.426 11.986 12.596
1070.583 13.006 13.216 13.446 13.236 12.956 12.616 12.306 11.566 10.786 10.576
1089.873 10.396 10.466 10.626 10.796 11.566 12.806 13.926 15.636 18.966 22.856
1109.163 28.176 35.836 45.356 56.656 68.726 80.326 88.356 90.686 87.846 79.416
1128.452 66.796 53.776 42.786 34.786 29.236 25.056 22.246 20.366 18.856 17.616
1147.742 16.926 16.596 16.376 16.746 17.656 18.906 20.696 22.896 25.596 28.896
1167.032 32.596 37.506 43.656 51.116 61.076 73.466 89.656 112.126 141.276 175.756
1186.322 213.156 248.846 275.756 288.226 283.196 261.336 226.726 185.246 144.636 111.416
1205.611 87.116 70.396 58.866 50.356 43.766 38.586 34.276 30.376 27.186 24.176
1224.901 21.816 19.946 18.136 16.856 15.636 14.406 13.206 12.106 11.086 10.216
1244.191 9.486 8.676 8.096 7.806 7.486 7.286 7.336 7.276 7.316 7.386
1263.481 7.526 7.576 7.346 7.166 7.176 7.006 6.886 6.866 6.786 6.626
1282.771 6.326 6.156 6.016 5.916 5.836 5.736 5.656 5.546 5.466 5.396
1302.060 5.286 5.256 5.206 5.136 5.126 5.156 5.046 4.876 4.746 4.666
1321.350 4.566 4.426 4.266 4.116 3.996 3.856 3.796 3.796 3.786 3.816
1340.640 3.926 4.116 4.326 4.596 5.046 5.646 6.456 7.496 8.806 10.636
1359.930 13.036 16.346 20.606 25.456 30.326 34.326 36.696 36.836 34.686 30.686
1379.219 25.906 21.436 17.626 14.686 12.666 11.266 10.226 9.486 8.906 8.346
1398.509 7.856 7.466 7.206 6.986 6.776 6.656 6.596 6.546 6.536 6.526
1417.799 6.576 6.736 6.936 7.216 7.516 7.746 8.136 8.656 9.276 10.016
1437.089 10.856 11.856 13.046 14.356 15.906 17.676 19.616 21.716 23.676 25.236
1456.378 26.156 26.266 25.546 24.006 21.706 18.946 16.036 13.256 10.776 8.826
1475.668 7.476 6.386 5.586 5.036 4.676 4.376 4.106 3.906 3.766 3.606
1494.958 3.406 3.226 3.116 3.056 2.946 2.866 2.876 2.896 2.896 2.906
1514.248 2.956 3.026 3.146 3.266 3.386 3.446 3.466 3.516 3.576 3.576
1533.538 3.616 3.636 3.616 3.686 3.686 3.626 3.756 3.896 3.916 3.986
1552.827 4.016 4.116 4.186 4.316 4.596 4.856 5.056 5.386 5.766 6.266
1572.117 6.906 7.476 8.136 8.846 9.666 10.526 11.406 12.436 13.586 14.816
1591.407 16.006 17.406 19.126 21.036 23.166 25.546 28.046 30.496 32.596 34.096
1610.697 34.706 34.156 32.336 29.396 25.786 21.976 18.396 15.276 12.576 10.446
1629.986 8.736 7.416 6.406 5.616 4.986 4.496 4.106 3.786 3.466 3.246
1649.276 3.116 2.976 2.836 2.766 2.756 2.686 2.656 2.686 2.756 2.666
1668.566 2.596 2.696 2.736 2.806 2.826 2.846 2.886 2.826 2.746 2.776
1687.856 2.776 2.756 2.776 2.776 2.816 2.876 2.916 2.976 3.126 3.266
1707.146 3.386 3.546 3.686 3.806 3.936 4.096 4.246 4.416 4.666 4.966
1726.435 5.206 5.436 5.736 5.976 6.216 6.436 6.686 7.036 7.376 7.806
1745.725 8.376 9.046 9.706 10.456 11.346 12.336 13.516 15.016 16.896 19.056
1765.015 21.536 24.276 27.086 29.676 32.026 33.996 35.856 38.116 41.316 45.886
1784.305 51.916 59.096 66.476 72.936 76.806 77.036 74.076 69.306 63.676 57.716
1803.594 51.846 45.896 39.896 33.946 28.426 23.476 19.216 15.786 13.086 10.936
1822.884 9.226 7.886 6.816 5.956 5.236 4.676 4.226 3.856 3.586 3.426
1842.174 3.306 3.246 3.206 3.086 2.986 2.926 2.826 2.716 2.546 2.376
1861.464 2.246 2.126 2.026 1.956 1.876 1.766 1.706 1.696 1.636 1.546
1880.754 1.476 1.486 1.536 1.496 1.496 1.556 1.526 1.496 1.506 1.476
1900.043 1.486 1.486 1.466 1.506 1.486 1.436 1.426 1.426 1.366 1.3178
1919.333 1.3029 1.257 1.1891 1.2384 1.2404 1.1814 1.1552 1.1498 1.1147 1.0313
1938.623 1.0565 1.0854 1.0116 0.9697 0.962 0.9797 1.0088 0.9993 0.9577 0.9683
1957.913 0.9953 0.9445 0.8919 0.8218 0.8466 0.9758 0.9595 0.8957 0.8757 0.8476
1977.202 0.819 0.79 0.8695 0.944 0.8802 0.8649 0.8794 0.8713 0.9288 0.9509
1996.492 0.9677 1.0513 1.092 1.1155 1.155 1.1812 1.2642 1.376 1.426 1.446
2015.782 1.476 1.546 1.556 1.486 1.496 1.516 1.466 1.456 1.436 1.366
2035.072 1.356 1.308 1.2318 1.1897 1.1832 1.1663 1.1095 1.1105 1.1559 1.1478
2054.362 1.0997 1.0446 1.1026 1.1974 1.1598 1.1361 1.1559 1.1742 1.1882 1.1873
2073.651 1.2313 1.3013 1.2541 1.2284 1.316 1.3457 1.3526 1.3245 1.3317 1.3215
2092.941 1.2523 1.2493 1.2659 1.2352 1.2231 1.2457 1.2269 1.1597 1.0449 1.0125
2112.231 1.0274 0.9488 0.8838 0.8846 0.8491 0.8332 0.8288 0.8009 0.8288 0.8069
2131.521 0.8469 0.886 0.8853 0.8726 0.7836 0.776 0.879 0.8853 0.8402 0.7974
2150.810 0.726 0.7785 0.7988 0.7606 0.7298 0.7008 0.6974 0.6748 0.6615 0.6022
2170.100 0.578 0.5943 0.5794 0.6521 0.6399 0.6227 0.6566 0.6373 0.6101 0.5557
2189.390 0.561 0.5571 0.5775 0.6539 0.6611 0.5945 0.5836 0.6319 0.6112 0.5907
2208.680 0.6234 0.6092 0.536 0.4791 0.5479 0.5677 0.5151 0.5412 0.5882 0.6294
2227.970 0.5822 0.55 0.5497 0.5441 0.5464 0.6063 0.6574 0.5679 0.5334 0.6366
2247.259 0.6538 0.6495 0.6784 0.5795 0.45016 0.4932 0.5987 0.5554 0.5158 0.5671
2266.549 0.5902 0.6171 0.6286 0.6367 0.6475 0.5924 0.6158 0.5824 0.5314 0.5652
2285.839 0.541 0.5797 0.6192 0.5924 0.5062 0.5312 0.6223 0.5626 0.5215 0.4978
2305.129 0.5681 0.6364 0.5916 0.5613 0.5944 0.6396 0.5727 0.5878 0.5574 0.502
2324.418 0.5864 0.6411 0.6435 0.6496 0.601 0.5592 0.5977 0.5866 0.6213 0.6217
2343.708 0.6373 0.6626 0.6053 0.6387 0.6623 0.6199 0.672 0.6858 0.6191 0.5625
2362.998 0.5128 0.44822 0.45502 0.5475 0.5587 0.5932 0.5816 0.6102 0.7674 0.7404
2382.288 0.6664 0.7144 0.7224 0.7109 0.7022 0.8069 0.8397 0.8378 0.9165 0.8591
2401.578 0.847 0.9301 0.9558 0.9493 1.0513 1.0819 1.0017 1 1.0343 1.0162
2420.867 0.9685 0.9176 0.894 0.8395 0.8001 0.7533 0.6511 0.6488 0.5977 0.5386
2440.157 0.5703 0.5584 0.5117 0.5424 0.555 0.4745 0.43999 0.4482 0.44187 0.42529
2459.447 0.43792 0.41236 0.43469 0.4782 0.41692 0.41809 0.4601 0.4797 0.43891 0.41643
2478.737 0.4072 0.4214 0.4852 0.469 0.39803 0.39237 0.4962 0.4942 0.42788 0.467
2498.026 0.4683 0.3019 0.179 0.184 0.2681 0.2825 0.235 0.3114 0.35008 0.3388
2517.316 0.2672 0.19 0.3278 0.41848 0.359641 0.3799 0.3978 0.3348 0.3373 0.3831
2536.606 0.4375 0.41946 0.3438 0.40393 0.4269 0.36965 0.3346 0.3189 0.3391 0.362167
2555.896 0.37724 0.3317 0.2729 0.3165 0.39481 0.4613 0.4607 0.45291 0.42106 0.37004
2575.186 0.37707 0.42064 0.44347 0.42996 0.41744 0.40785 0.474 0.41985 0.3414 0.3316
2594.475 0.241 0.234 0.2747 0.3079 0.3086 0.2736 0.2724 0.233 0.201 0.204
2613.765 0.249 0.3187 0.3104 0.2981 0.233 0.158 0.143 0.213 0.254 0.165
2633.055 0.137 0.124 0.169 0.244 0.223 0.177 0.176 0.205 0.192 0.114
2652.345 0.125 0.239 0.37182 0.37426 0.362976 0.3271 0.249 0.276 0.271 0.2988
2671.634 0.3227 0.2957 0.3156 0.3277 0.2688 0.254 0.247 0.2598 0.2985 0.3019
2690.924 0.2971 0.3115 0.2624 0.218 0.242 0.2836 0.355371 0.356222 0.3096 0.2786
2710.214 0.255 0.2921 0.3277 0.34862 0.37794 0.34874 0.2958 0.3181 0.3448 0.361394
2729.504 0.38196 0.3129 0.2833 0.2746 0.254 0.2842 0.221 0.2742 0.41479 0.4727
2748.794 0.5052 0.5021 0.43329 0.2664 0.24 0.2705 0.229 0.2732 0.3297 0.40337
2768.083 0.40238 0.36636 0.3329 0.3221 0.4657 0.43031 0.3244 0.3259 0.3076 0.3414
2787.373 0.34815 0.2624 0.244 0.2799 0.2962 0.2596 0.224 0.3051 0.38249 0.292
2806.663 0.185 0.156 0.192 0.217 0.231 0.2649 0.3027 0.37078 0.2845 0.199
2825.953 0.238 0.3205 0.37232 0.3166 0.2971 0.3131 0.2584 0.245 0.3062 0.2938
2845.242 0.3676 0.39065 0.34671 0.41049 0.3277 0.37049 0.35489 0.3159 0.4816 0.4612
2864.532 0.4357 0.38176 0.3301 0.37632 0.44838 0.40661 0.315 0.3312 0.245 0.2662
2883.822 0.3141 0.3146 0.3176 0.2766 0.2659 0.146 0.092 0.205 0.3015 0.357309
2903.112 0.36571 0.2616 0.3005 0.44405 0.41371 0.2898 0.3044 0.4216 0.4576 0.481
2922.401 0.40568 0.3418 0.40137 0.4654 0.494 0.5108 0.5859 0.6162 0.7307 0.7953
2941.691 0.7876 0.9117 1.1152 1.366 1.506 1.566 1.576 1.486 1.356 1.2748
2960.981 1.1101 1.075 1.1163 0.9058 0.8386 0.7296 0.6445 0.7416 0.7382 0.7811
2980.271 0.8562 0.8839 0.903 0.9475 0.8939 0.7536 0.7577 0.729 0.7053 0.8282
2999.561 0.7745 0.7018 0.7139 0.683 0.7248 0.8852 0.9117 0.959 0.955 0.8028
3018.850 0.8973 1.029 1.1648 1.2356 1.2522 1.376 1.476 1.596 1.556 1.456
3038.140 1.386 1.2518 1.1608 1.0533 0.9222 0.8818 0.8983 0.8616 0.9001 0.9722
3057.430 0.894 0.8562 0.8956 0.8067 0.8175 0.8819 0.8591 0.8127 0.782 0.8779
3076.720 0.8721 0.834 0.7802 0.7382 0.8398 0.885 0.8916 0.8789 0.8653 0.91
3096.009 0.9064 0.8274 0.814 0.775 0.7511 0.776 0.7179 0.6595 0.619 0.5987
3115.299 0.6452 0.6049 0.5256 0.5508 0.6819 0.7988 0.7658 0.7244 0.7705 0.7351
3134.589 0.7261 0.7992 0.6913 0.6293 0.618 0.5974 0.5822 0.5512 0.6798 0.6784
3153.879 0.6347 0.5647 0.5389 0.6871 0.6762 0.5705 0.5378 0.5505 0.5033 0.4875
3173.169 0.5736 0.6701 0.636 0.5653 0.5182 0.34852 0.3438 0.39028 0.39927 0.4861
3192.458 0.4863 0.5403 0.38734 0.235 0.252 0.3102 0.360679 0.2847 0.41148 0.4847
3211.748 0.43979 0.45394 0.43129 0.43746 0.4826 0.4038 0.242 0.23 0.35195 0.40169
3231.038 0.303 0.3107 0.41236 0.41039 0.3169 0.225 0.212 0.2943 0.34767 0.3023
3250.328 0.3133 0.35762 0.2794 0.221 0.223 0.3046 0.38999 0.3403 0.3172 0.3346
3269.617 0.3163 0.171 0.12 0.2727 0.2773 0.202 0.243 0.216 0.211 0.3008
3288.907 0.234 0.172 0.2764 0.197 0.081 0.235 0.187 0.019 0.09 0.162
3308.197 0.2813 0.43079 0.249 0.162 0.129 0.149 0.2733 0.2747 0.2596 0.234
3327.487 0.186 0.214 0.3027 0.3067 0.233 0.182 0.228 0.2684 0.254 0.21
3346.777 0.3347 0.2863 0.217 0.232 0.3153 0.41023 0.232 0.201 0.3098 0.157
3366.066 0.252 0.4914 0.41803 0.355576 0.3104 0.2957 0.204 0.073 0.146 0.202
3385.356 0.231 0.3655 0.38831 0.3229 0.2872 0.3089 0.2778 0.2898 0.363354 0.40562
3404.646 0.33 0.38907 0.35125 0.234 0.232 0.2922 0.3018 0.3482 0.5054 0.38383
3423.936 0.2668 0.183 0.126 0.3118 0.43715 0.37362 0.3109 0.3795 0.4894 0.331
3443.225 0.3016 0.34862 0.37458 0.44357 0.42292 0.3194 0.203 0.117 0.174 0.2993
3462.515 0.216 0.251 0.4194 0.39969 0.2713 0.19 0.156 0.2692 0.44176 0.43157
3481.805 0.358908 0.34605 0.3376 0.41567 0.38722 0.35051 0.357872 0.241 0.3404 0.44396
3501.095 0.44368 0.4676 0.40508 0.3475 0.5323 0.5575 0.5538 0.5863 0.4795 0.4981
3520.385 0.4698 0.5102 0.5851 0.5996 0.5825 0.6459 0.666 0.7144 0.7687 0.7669
3539.674 0.7709 0.8111 0.8304 0.6602 0.6905 0.7977 0.8853 0.9642 0.9494 1.1626
3558.964 1.189 1.0379 1.0558 1.0906 1.056 0.9464 0.9187 1.0007 1.0624 1.004
3578.254 0.83 0.783 0.816 0.7251 0.678 0.6849 0.7293 0.7277 0.7218 0.4857
3597.544 0.254 0.3389 0.40788 0.364969 0.3308 0.365539 0.3954 0.4732 0.5016 0.4168
3616.833 0.41185 0.3391 0.2818 0.4006 0.459 0.38434 0.37596 0.361178 0.4185 0.42503
3636.123 0.42937 0.5793 0.658 0.4881 0.44004 0.7335 0.8201 0.7361 0.7526 0.8035
3655.413 0.7663 0.8785 0.7781 0.4628 0.44737 0.5584 0.4227 0.44003 0.5063 0.35168
3674.703 0.35038 0.3032 0.138 0.142 0.213 0.207 0.2854 0.237 0.243 0.3352
3693.993 0.2768 0.295 0.2737 0.152 0 0.09 0.243 0.339 0.42709 0.3407
3713.282 0.297 0.25 0.213 0.3061 0.358097 0.2979 0.37892 0.45378 0.38406 0.2752
3732.572 0.211 0.233 0.2995 0.42515 0.34851 0.224 0.35358 0.358107 0.2848 0.2719
3751.862 0.225 0.188 0.179 0.186 0.2643 0.196 0.179 0.338 0.3152 0.188
3771.152 0.244 0.336 0.3158 0.355937 0.245 0.23 0.2774 0.209 0.109 0.191
3790.441 0.360477 0.4908 0.5552 0.4846 0.35233 0.2584 0.2894 0.41891 0.39441 0.2563
3809.731 0.3004 0.3074 0.2782 0.2648 0.2715 0.2713 0.206 0.242 0.2868 0.223
3829.021 0.21 0.3133 0.5342 0.5611 0.322 0.312 0.41323 0.4639 0.44785 0.3143
3848.311 0.244 0.216 0.166 0.124 0.2814 0.38969 0.23 0.242 0.45136 0.4439
3867.601 0.39978 0.3247 0.238 0.37071 0.43078 0.41014 0.42604 0.5104 0.4141 0.211
3886.890 0.247 0.2916 0.3084 0.2786 0.361005 0.37594 0.3501 0.41703 0.45307 0.44828
3906.180 0.228 0.239 0.222 0.181 0.3002 0.3112 0.34947 0.327 0.3284 0.37833
3925.470 0.2987 0.2624 0.3455 0.121 0.178 0.42722 0.5338 0.5673 0.3441 0.143
3944.760 0.067 0.199 0.34602 0.43403 0.3301 0.183 0.239 0.3081 0.35378 0.3438
3964.049 0.177 0.128 0.2814 0.3126 0.3019 0.41412 0.4701 0.2719 0.2 0.34835
3983.339 0.3062 0.2679 0.3726 0.345 0.3301 0.3281 0.44777 0.4629 0.42828 0.4652
##END=
