##TITLE=1,3-Dinitro-2,4,5-trichlorobenzene
##JCAMP-DX=4.24
##DATA TYPE=INFRARED SPECTRUM
##ORIGIN=EPA-IR VAPOR PHASE LIBRARY
##OWNER=SRD/NIST
Collection (C) 2018 copyright by the U.S. Secretary of Commerce
on behalf of the United States of America. All rights reserved.
##CAS REGISTRY NO=2678-21-9
##MOLFORM=C 6 H Cl 3 N 2 O 4
##$NIST SOURCE=MSDC-IR
##STATE=gas
##XUNITS=1/CM
##YUNITS=ABSORBANCE
##XFACTOR=1.
##YFACTOR=0.001
##DELTAX=1.92934
##FIRSTX=549.9
##LASTX=3999.5
##FIRSTY=17.38
##MAXX=3999.53
##MINX=549.863
##MAXY=0.52417
##MINY=0
##NPOINTS=1789
##XYDATA=(X++(Y..Y))
549.863 17.38 14.7 12.59 11.1 9.95 9.04 8.38 7.93 7.8 7.88
569.156 8.06 8.62 9.34 10.15 11.38 13.05 15.18 17.79 20.9 24.35
588.450 28.24 32.19 35.56 37.97 38.97 38.22 35.89 32.51 28.51 24.53
607.743 21.15 18.4 16.35 14.96 14 13.47 13.32 13.54 14.1 14.91
627.037 15.88 16.89 17.86 18.61 19.08 19.2 18.93 18.47 17.83 17.12
646.330 16.44 15.78 15.39 15.42 15.67 16.11 16.81 17.55 18.1 18.48
665.624 18.6 18.47 17.87 17.03 16.38 15.78 15.16 14.7 14.41 14.27
684.917 14.21 14.09 13.81 13.34 12.67 11.78 10.75 9.73 8.94 8.45
704.210 8.31 8.51 9.09 10.28 12.37 15.69 20.77 28.28 38.2 48.91
723.504 57.7 62.86 64.79 63.62 58.33 49.96 41.59 35.49 31.82 30.04
742.797 29.71 30.66 32.8 35.53 38.07 39.65 40.03 39.64 38.79 37.79
762.091 37.45 38.41 40.2 41.72 41.84 40.11 36.46 31.11 24.7 18.65
781.384 14.23 11.34 9.51 8.28 7.44 6.87 6.44 6.16 5.94 5.86
800.678 5.81 5.83 5.96 6.09 6.25 6.49 6.85 7.19 7.33 7.26
819.971 7.01 6.62 6.2 5.76 5.29 4.98 4.8 4.67 4.53 4.43
839.264 4.42 4.38 4.31 4.31 4.32 4.38 4.49 4.58 4.73 4.92
858.558 5.18 5.5 5.85 6.28 6.81 7.49 8.51 9.87 11.63 13.95
877.851 16.74 19.75 22.77 25.63 27.92 28.76 27.39 24.37 20.89 17.66
897.145 14.91 12.74 11.27 10.47 10.18 10.29 10.76 11.52 12.74 14.49
916.438 16.8 19.92 23.99 29.26 35.79 43.27 51.08 58.1 63.1 65.07
935.732 63.59 58.78 51.16 41.9 32.56 24.59 18.49 14.03 10.83 8.53
955.025 6.95 5.84 5.01 4.42 4.04 3.7 3.4167 3.2354 3.079 2.937
974.318 2.8199 2.7418 2.6986 2.59691 2.4709 2.388 2.391 2.367 2.307 2.35
993.612 2.34 2.305 2.298 2.292 2.333 2.37 2.339 2.365 2.4467 2.52167
1012.905 2.625 2.7261 2.7769 2.8448 2.9175 2.9182 2.9499 3.0448 3.1311 3.2613
1032.199 3.4186 3.5084 3.57 3.7 3.82 3.87 3.84 3.77 3.77 3.73
1051.492 3.66 3.61 3.57 3.4504 3.2976 3.2512 3.3179 3.3601 3.4118 3.51
1070.786 3.56 3.64 3.78 3.91 4.08 4.34 4.57 4.85 5.35 6.04
1090.079 6.99 8.39 10.4 13.11 16.69 21.39 26.97 33.03 39.24 45.08
1109.372 49.89 52.66 52.32 49.1 43.91 37.24 29.8 22.83 17.1 13.2
1128.666 11.03 9.75 8.99 8.39 8.05 7.71 7.3 7.17 7.14 7.16
1147.959 7.09 6.95 7.18 7.98 9.21 11.01 13.63 16.78 20.12 23.32
1167.253 25.94 27.84 28.98 29.36 28.99 28.43 27.84 27.27 26.96 26.6
1186.546 26.26 25.92 25.4 24.8 24.46 24.05 23.19 22.2 20.91 19.02
1205.840 17.12 15.11 13.2 12.04 11.09 10.27 9.69 9.14 8.85 8.94
1225.133 9.05 9.09 9.28 9.97 10.85 11.93 13.27 14.83 16.79 18.75
1244.426 20.39 21.48 21.93 21.3 19.8 17.79 15.45 13.31 11.75 10.86
1263.720 10.37 10.2 10.34 10.59 10.87 11.25 11.71 12.14 12.5 12.99
1283.013 13.57 14.01 14.45 14.93 15.52 16.26 17.11 18.13 19.4 21.01
1302.307 23.07 25.6 28.71 32.62 37.52 43.8 52.01 62.76 76.66 94.35
1321.600 116.28 142.18 170.74 199.32 223.86 240.6 247.31 243.98 232.3 214.92
1340.894 195.77 179.56 168.82 163.3 160.92 159.11 156.05 150.89 143.38 134.11
1360.187 123.77 112.92 102.19 92.2 83.34 75.82 69.4 63.62 58.14 53
1379.480 48.2 43.75 39.77 36.52 34.05 32.45 31.86 32.24 33.35 34.96
1398.774 37.2 40.07 43.49 47.71 52.79 58.88 66 74.35 83.63 93.41
1418.067 102.8 110.78 115.5 115.77 111.2 102.28 89.93 75.89 61.97 49.82
1437.361 40.04 33.12 28.21 24.62 21.93 19.76 17.94 16.47 15.27 14.38
1456.654 13.58 12.87 12.42 12.03 11.77 11.65 11.57 11.63 11.8 12.07
1475.948 12.41 12.84 13.31 13.94 14.72 15.6 16.69 18.1 19.88 21.91
1495.241 24.26 26.95 29.78 32.5 35.13 37.55 39.77 41.89 43.87 45.94
1514.534 48.23 50.7 53.19 55.84 58.97 62.4 66.3 70.73 75.74 81.24
1533.828 87.12 93.23 99.55 106.4 113.48 120.97 129.46 139.43 151.66 167.22
1553.121 186.65 211.57 241.13 277.41 319.64 363.4 408.57 451.54 487.69 513.84
1572.415 524.17 511.95 471.72 411.27 344.5 280.85 225.73 179.38 143.49 117.66
1591.708 99.94 87.33 77.68 69.44 62.03 55.08 48.71 42.97 38 33.91
1611.002 30.78 28.53 27.21 26.73 26.93 27.53 28.31 28.97 29.16 28.66
1630.295 27.48 25.79 23.86 21.82 19.92 18.28 16.74 15.21 13.66 12.06
1649.588 10.61 9.37 8.28 7.38 6.72 6.21 5.77 5.4 5.09 4.84
1668.882 4.58 4.41 4.33 4.2 4.12 4.09 4.05 3.99 3.93 3.89
1688.175 3.83 3.7 3.58 3.4702 3.3096 3.193 3.0651 2.9627 2.9409 2.8845
1707.469 2.8662 2.8229 2.7737 2.7553 2.712 2.6464 2.64 2.653 2.6176 2.60552
1726.762 2.6139 2.58782 2.5862 2.58925 2.58554 2.6227 2.6873 2.7675 2.8972 2.994
1746.056 3.0777 3.26 3.4488 3.66 3.93 4.2 4.47 4.78 5.08 5.34
1765.349 5.51 5.61 5.63 5.49 5.29 5.1 4.8 4.36 3.88 3.4599
1784.642 3.1359 2.8538 2.6027 2.4708 2.36 2.229 2.147 2.11 2.029 1.951
1803.936 1.936 1.906 1.893 1.898 1.889 1.856 1.853 1.866 1.839 1.849
1823.229 1.854 1.828 1.851 1.871 1.872 1.894 1.904 1.937 1.934 1.877
1842.523 1.878 1.945 1.973 1.958 1.962 1.94 1.895 1.9 1.906 1.89
1861.816 1.892 1.904 1.867 1.776 1.753 1.775 1.721 1.667 1.666 1.655
1881.110 1.665 1.676 1.629 1.607 1.645 1.648 1.635 1.651 1.652 1.653
1900.403 1.709 1.727 1.694 1.731 1.734 1.707 1.698 1.707 1.753 1.738
1919.696 1.718 1.793 1.815 1.79 1.804 1.775 1.753 1.748 1.719 1.706
1938.990 1.731 1.723 1.711 1.729 1.741 1.776 1.779 1.805 1.862 1.908
1958.283 1.931 1.948 1.935 1.907 1.894 1.851 1.843 1.821 1.797 1.801
1977.577 1.738 1.671 1.622 1.623 1.629 1.599 1.626 1.641 1.658 1.683
1996.870 1.65 1.648 1.663 1.679 1.668 1.653 1.652 1.601 1.553 1.51
2016.164 1.49 1.5 1.49 1.47 1.44 1.42 1.41 1.38 1.34 1.33
2035.457 1.34 1.34 1.33 1.33 1.33 1.31 1.31 1.34 1.33 1.29
2054.750 1.3 1.34 1.33 1.33 1.32 1.28 1.31 1.36 1.38 1.37
2074.044 1.37 1.41 1.43 1.38 1.34 1.34 1.32 1.36 1.39 1.35
2093.337 1.31 1.3 1.29 1.3 1.31 1.28 1.27 1.28 1.28 1.27
2112.631 1.27 1.29 1.26 1.24 1.25 1.24 1.22 1.19 1.23 1.25
2131.924 1.23 1.21 1.21 1.22 1.23 1.22 1.24 1.26 1.26 1.24
2151.218 1.25 1.24 1.26 1.27 1.24 1.26 1.28 1.25 1.23 1.26
2170.511 1.28 1.29 1.3 1.3 1.27 1.31 1.34 1.3 1.3 1.29
2189.804 1.28 1.25 1.25 1.28 1.28 1.26 1.24 1.25 1.21 1.15
2209.098 1.12 1.09 1.07 1.07 1.05 1.05 1.1 1.09 1.03 1.05
2228.391 1.09 1.08 1.09 1.07 1.08 1.08 1.07 1.08 1.08 1.1
2247.685 1.13 1.11 1.08 1.09 1.12 1.1 1.11 1.13 1.12 1.13
2266.978 1.15 1.16 1.15 1.15 1.19 1.2 1.15 1.17 1.24 1.25
2286.272 1.27 1.3 1.32 1.35 1.34 1.32 1.38 1.41 1.41 1.4
2305.565 1.35 1.35 1.37 1.38 1.41 1.44 1.44 1.43 1.47 1.49
2324.858 1.49 1.5 1.535 1.57 1.544 1.47 1.48 1.512 1.49 1.47
2344.152 1.43 1.43 1.38 1.34 1.38 1.37 1.31 1.27 1.23 1.24
2363.445 1.25 1.26 1.29 1.28 1.29 1.31 1.3 1.27 1.29 1.32
2382.739 1.32 1.3 1.28 1.27 1.28 1.23 1.18 1.2 1.18 1.1
2402.032 1.1 1.11 1.05 1.04 1.02 1.06 1.08 1.06 1.08 1.03
2421.326 1 0.99 0.97 0.95 0.94 0.93 0.93 1 1.04 1.03
2440.619 1.07 1.11 1.15 1.16 1.18 1.22 1.25 1.34 1.43 1.5
2459.912 1.618 1.732 1.76 1.774 1.812 1.844 1.84 1.823 1.836 1.835
2479.206 1.809 1.769 1.746 1.74 1.772 1.844 1.879 1.922 1.982 2.017
2498.499 2.026 2.033 2.04 1.992 1.924 1.875 1.822 1.69 1.551 1.49
2517.793 1.43 1.34 1.28 1.23 1.18 1.19 1.21 1.17 1.15 1.13
2537.086 1.11 1.12 1.09 1.04 1.04 1.09 1.09 1.08 1.1 1.12
2556.380 1.12 1.08 1.05 1.07 1.12 1.14 1.16 1.19 1.2 1.15
2575.673 1.11 1.19 1.24 1.25 1.22 1.24 1.24 1.26 1.24 1.2
2594.966 1.22 1.25 1.27 1.25 1.2 1.17 1.19 1.25 1.27 1.26
2614.260 1.27 1.3 1.25 1.23 1.32 1.3 1.26 1.26 1.26 1.26
2633.553 1.29 1.31 1.36 1.4 1.43 1.52 1.638 1.753 1.798 1.85
2652.847 1.991 2.115 2.307 2.5352 2.703 2.8877 3.0665 3.2436 3.4085 3.58
2672.140 3.75 3.91 4.07 4.17 4.27 4.35 4.34 4.29 4.2 4.07
2691.434 3.92 3.77 3.59 3.4706 3.4174 3.3978 3.3653 3.2498 3.1838 3.1078
2710.727 3.0149 2.9385 2.8085 2.7301 2.7175 2.6867 2.6218 2.55092 2.4762 2.38
2730.020 2.341 2.352 2.332 2.215 2.064 2.036 2.044 2.03 2.038 2.005
2749.314 1.882 1.865 1.93 1.908 1.829 1.806 1.869 1.835 1.827 1.95
2768.607 1.988 1.99 2.083 2.07 2.049 2.076 2.049 2.069 2.111 2.11
2787.901 2.085 2.063 1.943 1.864 1.794 1.684 1.614 1.594 1.551 1.47
2807.194 1.44 1.42 1.4 1.36 1.35 1.42 1.45 1.43 1.48 1.635
2826.488 1.697 1.566 1.536 1.637 1.708 1.739 1.818 1.919 1.959 1.952
2845.781 1.994 2.044 2.169 2.348 2.366 2.391 2.53018 2.7242 2.956 3.0639
2865.074 3.1064 3.3249 3.64 3.87 4.1 4.36 4.69 5.07 5.4 5.78
2884.368 6.13 6.45 6.84 7.24 7.52 7.85 8.1 8.14 8.04 7.82
2903.661 7.59 7.28 6.97 6.74 6.48 6.21 6.01 5.97 5.83 5.5
2922.955 5.27 5.2 5.1 4.91 4.73 4.54 4.32 4.04 3.78 3.6
2942.248 3.4428 3.2559 2.9825 2.6503 2.4427 2.22 1.955 1.803 1.531 1.21
2961.542 1.09 1.04 0.88 0.85 0.83 0.75 0.71 0.67 0.62 0.5
2980.835 0.43 0.42 0.47 0.52 0.46 0.42 0.43 0.37 0.36 0.45
3000.128 0.34 0.25 0.3 0.31 0.26 0.2 0.25 0.26 0.19 0.1
3019.422 0.09 0.14 0.16 0.09 0.02 0.04 0.05 0.15 0.16 0
3038.715 0.05 0.16 0.18 0.26 0.32 0.33 0.33 0.19 0.2 0.39
3058.009 0.48 0.6 0.71 0.87 1.07 1.27 1.625 2.038 2.54446 3.1783
3077.302 3.88 4.87 6.15 7.61 9.38 11.02 12.11 12.49 12.19 11.26
3096.596 9.76 7.86 5.95 4.39 3.308 2.6764 2.208 1.836 1.608 1.518
3115.889 1.48 1.44 1.39 1.3 1.25 1.4 1.519 1.512 1.42 1.38
3135.182 1.24 1.18 1.19 1.09 0.98 0.85 0.79 0.69 0.75 0.83
3154.476 0.72 0.58 0.46 0.36 0.41 0.32 0.25 0.37 0.44 0.45
3173.769 0.38 0.42 0.43 0.37 0.4 0.33 0.25 0.33 0.32 0.21
3193.063 0.17 0.27 0.37 0.35 0.36 0.26 0.16 0.18 0.22 0.28
3212.356 0.22 0.24 0.36 0.29 0.16 0.13 0.31 0.37 0.24 0.25
3231.650 0.29 0.35 0.43 0.43 0.46 0.47 0.39 0.33 0.28 0.38
3250.943 0.4 0.41 0.56 0.47 0.39 0.42 0.46 0.58 0.7 0.69
3270.236 0.69 0.69 0.61 0.55 0.46 0.42 0.39 0.49 0.6 0.53
3289.530 0.66 0.75 0.57 0.49 0.59 0.72 0.66 0.7 0.71 0.59
3308.823 0.56 0.63 0.73 0.64 0.57 0.61 0.63 0.74 0.77 0.74
3328.117 0.77 0.75 0.79 0.87 0.9 0.96 0.85 0.81 0.88 0.88
3347.410 0.95 0.96 0.89 0.81 0.91 0.94 0.88 0.9 1.01 1.24
3366.704 1.09 0.86 1.03 1.07 0.92 0.89 0.97 1.05 1.1 1.12
3385.997 1.01 1.09 1.13 1.17 1.3 1.3 1.19 1.09 0.98 0.99
3405.290 1.08 1.06 1.13 1.23 1.24 1.22 1.29 1.33 1.3 1.3
3424.584 1.36 1.36 1.42 1.46 1.35 1.33 1.34 1.38 1.46 1.51
3443.877 1.4 1.3 1.35 1.44 1.47 1.38 1.32 1.29 1.29 1.36
3463.171 1.41 1.31 1.34 1.51 1.48 1.4 1.34 1.31 1.41 1.57
3482.464 1.46 1.43 1.545 1.569 1.594 1.44 1.39 1.572 1.617 1.555
3501.758 1.543 1.555 1.558 1.44 1.43 1.538 1.537 1.604 1.687 1.652
3521.051 1.641 1.624 1.515 1.582 1.68 1.575 1.44 1.512 1.636 1.635
3540.344 1.574 1.48 1.542 1.564 1.43 1.48 1.569 1.524 1.521 1.588
3559.638 1.655 1.641 1.564 1.626 1.683 1.677 1.719 1.752 1.753 1.681
3578.931 1.715 1.763 1.707 1.65 1.721 1.788 1.686 1.646 1.713 1.666
3598.225 1.621 1.679 1.656 1.731 1.836 1.788 1.738 1.734 1.707 1.74
3617.518 1.756 1.73 1.864 1.868 1.763 1.696 1.65 1.669 1.747 1.744
3636.812 1.691 1.725 1.732 1.71 1.726 1.791 1.842 1.785 1.732 1.776
3656.105 1.697 1.664 1.73 1.724 1.674 1.597 1.639 1.759 1.785 1.692
3675.398 1.72 1.789 1.7 1.667 1.634 1.683 1.745 1.689 1.712 1.784
3694.692 1.808 1.735 1.776 1.79 1.736 1.802 1.815 1.683 1.652 1.673
3713.985 1.609 1.661 1.72 1.735 1.748 1.763 1.827 1.872 1.776 1.732
3733.279 1.687 1.67 1.688 1.707 1.784 1.841 1.793 1.844 1.896 1.847
3752.572 1.917 1.863 1.741 1.702 1.775 1.772 1.664 1.654 1.643 1.592
3771.866 1.647 1.734 1.803 1.783 1.697 1.692 1.638 1.674 1.803 1.778
3791.159 1.734 1.818 1.816 1.77 1.851 1.887 1.861 1.797 1.802 1.869
3810.452 1.885 1.83 1.887 1.917 1.839 1.775 1.703 1.741 1.73 1.707
3829.746 1.746 1.754 1.741 1.689 1.684 1.791 1.806 1.722 1.673 1.601
3849.039 1.572 1.653 1.655 1.613 1.735 1.701 1.566 1.655 1.721 1.642
3868.333 1.607 1.695 1.71 1.614 1.637 1.644 1.694 1.735 1.683 1.626
3887.626 1.607 1.552 1.556 1.644 1.634 1.611 1.595 1.593 1.513 1.5
3906.920 1.647 1.713 1.669 1.635 1.543 1.42 1.45 1.519 1.513 1.546
3926.213 1.6 1.585 1.573 1.48 1.5 1.591 1.639 1.696 1.697 1.664
3945.506 1.624 1.636 1.613 1.635 1.658 1.608 1.538 1.559 1.674 1.739
3964.800 1.733 1.717 1.738 1.77 1.736 1.636 1.646 1.65 1.682 1.705
3984.093 1.66 1.746 1.719 1.585 1.569 1.57 1.558 1.517 1.523
##END=
