##TITLE=1-Chloro-4-decyne
##JCAMP-DX=4.24
##DATA TYPE=INFRARED SPECTRUM
##ORIGIN=NIST Mass Spectrometry Data Center
##OWNER=NIST Standard Reference Data Program
Collection (C) 2018 copyright by the U.S. Secretary of Commerce
on behalf of the United States of America. All rights reserved.
##CAS REGISTRY NO=26817-65-2
##MOLFORM=C 10 H 17 Cl
##$NIST SOURCE=MSDC-IR
##SPECTROMETER/DATA SYSTEM=HP-GC/MS/IRD
##STATE=gas
##XUNITS=1/CM
##YUNITS=ABSORBANCE
##XFACTOR=1.0
##YFACTOR=0.000003500
##DELTAX=4.0
##FIRSTX=550.0
##LASTX=3846.0
##FIRSTY=0.001155
##MAXX=3846
##MINX=550
##MAXY=0.035
##MINY=0
##NPOINTS=825
##XYDATA=(X++(Y..Y))
550.0 330 146 41 96 102 52 47 90 89 76
590.0 83 60 28 23 39 52 58 62 75 110
630.0 150 174 223 282 328 400 495 574 615 594
670.0 519 442 371 320 285 277 282 271 279 305
710.0 346 382 431 512 597 680 724 714 656 561
750.0 473 418 385 372 368 345 328 320 298 273
790.0 257 248 241 237 222 217 203 180 156 144
830.0 148 162 191 213 247 302 344 356 323 259
870.0 190 142 107 75 63 60 65 61 56 62
910.0 64 69 68 65 76 76 72 72 77 92
950.0 114 135 152 188 239 277 302 299 267 242
990.0 224 199 172 145 119 95 82 72 69 70
1030.0 59 62 72 73 68 74 91 96 89 76
1070.0 67 56 49 48 46 54 61 64 78 87
1110.0 77 65 56 43 31 43 39 33 41 38
1150.0 48 60 62 57 46 41 40 51 71 81
1190.0 88 91 92 100 105 114 124 133 137 156
1230.0 181 197 210 212 217 241 298 383 500 632
1270.0 755 871 1012 1201 1407 1544 1523 1359 1153 997
1310.0 920 914 967 1094 1263 1376 1361 1251 1128 1059
1350.0 1018 948 831 681 548 459 403 378 373 364
1390.0 340 307 271 248 253 279 327 408 519 681
1430.0 924 1219 1457 1579 1593 1511 1418 1298 1160 1019
1470.0 882 730 570 440 357 300 256 218 187 178
1510.0 165 149 145 140 122 99 91 102 100 76
1550.0 66 74 97 79 53 57 62 57 43 38
1590.0 37 36 32 29 29 29 37 39 32 29
1630.0 25 33 30 25 37 55 53 31 20 19
1670.0 31 38 31 43 41 19 38 57 45 28
1710.0 22 34 38 17 9 23 33 17 8 14
1750.0 25 20 9 8 11 17 9 0 6 12
1790.0 14 15 13 15 13 12 10 7 9 9
1830.0 11 12 9 14 20 13 10 9 4 11
1870.0 14 7 3 7 11 10 10 13 13 12
1910.0 10 5 7 13 11 10 14 14 15 13
1950.0 9 8 10 11 15 10 8 13 15 13
1990.0 11 11 10 9 9 11 19 25 26 23
2030.0 21 25 24 28 33 30 33 32 31 30
2070.0 26 26 27 26 26 31 32 29 27 26
2110.0 27 30 29 22 22 20 23 29 27 26
2150.0 25 23 30 34 33 32 34 36 40 39
2190.0 32 35 39 38 44 49 47 46 50 54
2230.0 47 41 40 37 37 37 36 39 37 36
2270.0 43 43 39 38 38 41 44 42 38 36
2310.0 41 41 34 33 36 33 29 21 22 28
2350.0 27 26 25 24 27 35 36 34 39 41
2390.0 40 40 39 40 43 40 39 41 41 38
2430.0 40 37 34 34 29 28 33 37 37 38
2470.0 37 35 37 38 36 36 37 36 30 22
2510.0 28 33 29 27 29 31 34 39 44 41
2550.0 40 45 49 48 48 58 66 61 54 57
2590.0 59 61 68 64 64 70 70 75 76 80
2630.0 87 86 87 93 101 109 112 114 119 113
2670.0 114 116 115 117 116 112 110 107 107 109
2710.0 103 105 112 122 127 131 148 157 152 154
2750.0 156 154 160 163 163 170 184 195 206 224
2790.0 236 257 281 302 332 363 388 426 491 567
2830.0 659 788 968 1220 1549 1936 2345 2726 3055 3311
2870.0 3437 3425 3348 3247 3111 2957 2860 2903 3141 3571
2910.0 4151 4846 5619 6483 7487 8561 9490 10000 9909 9339
2950.0 8507 7712 7186 6942 6768 6288 5437 4360 3335 2569
2990.0 2054 1748 1592 1486 1346 1132 897 715 593 520
3030.0 469 425 382 337 305 282 260 236 216 204
3070.0 199 196 191 176 163 153 149 138 139 143
3110.0 137 126 112 105 98 91 95 110 111 105
3150.0 102 87 83 100 96 86 88 88 86 87
3190.0 93 85 79 82 78 65 53 59 60 51
3230.0 46 40 40 37 45 54 43 36 44 48
3270.0 44 42 39 27 30 42 40 35 32 38
3310.0 43 40 42 37 44 55 47 44 50 54
3350.0 47 44 45 43 41 44 44 39 44 49
3390.0 47 48 51 37 26 30 37 55 64 58
3430.0 48 50 61 63 50 43 40 41 43 37
3470.0 43 53 48 28 23 36 39 46 45 40
3510.0 47 32 23 40 34 26 31 33 39 56
3550.0 46 31 23 28 53 49 37 37 34 47
3590.0 60 62 49 40 48 59 56 57 56 72
3630.0 78 51 50 47 58 71 62 61 54 54
3670.0 65 70 63 54 63 71 60 57 61 61
3710.0 64 58 50 61 67 67 77 71 73 87
3750.0 82 60 54 61 53 54 51 49 58 59
3790.0 50 45 49 54 55 55 67 65 59 62
3830.0 64 68 73 70 64
##END=
