##TITLE=5-Diethylamino-1-pentanol
##JCAMP-DX=4.24
##DATA TYPE=INFRARED SPECTRUM
##ORIGIN=EPA-IR VAPOR PHASE LIBRARY
##OWNER=SRD/NIST
Collection (C) 2018 copyright by the U.S. Secretary of Commerce
on behalf of the United States of America. All rights reserved.
##CAS REGISTRY NO=2683-57-0
##MOLFORM=C 9 H 21 N O
##$NIST SOURCE=MSDC-IR
##STATE=gas
##XUNITS=1/CM
##YUNITS=ABSORBANCE
##XFACTOR=1.
##YFACTOR=0.001
##DELTAX=3.85796
##FIRSTX=501.5
##LASTX=4000.7
##FIRSTY=0.8242
##MAXX=4000.7
##MINX=501.534
##MAXY=0.0609242
##MINY=0
##NPOINTS=908
##XYDATA=(X++(Y..Y))
501.534 0.8242 0.9854 0.9446 0.7647 0.7345 0.7687 0.5901 0.5307 0.6439 0.5726
540.114 0.4474 0.5205 0.5658 0.4678 0.3724 0.3983 0.3766 0.3161 0.2739 0.1381
578.693 0.06468 0.12089 0.1766 0.11623 0.10553 0.1767 0.13 0.1368 0.1571 0.1373
617.273 0.11264 0.08974 0.10597 0.09324 0.06733 0.03672 0.0081 0 0.0561 0.1283
655.852 0.128 0.161 0.1642 0.1649 0.2087 0.2342 0.2787 0.2657 0.2997 0.3853
694.432 0.4018 0.4898 0.713 0.8981 1.0542 1.1942 1.2742 1.3442 1.3642 1.2742
733.011 1.1942 1.2942 1.3542 1.3942 1.5242 1.6242 1.6742 1.7142 1.7542 1.7842
771.591 1.8342 1.8542 1.8542 1.8542 1.8842 1.9142 1.9342 1.8742 1.8742 1.8842
810.170 1.7942 1.6542 1.4142 1.2442 1.1142 1.0054 0.9947 1.0107 1.006 1.0112
848.750 0.984 1.0222 1.0842 1.1442 1.2242 1.2342 1.3242 1.4242 1.4442 1.4642
887.330 1.5442 1.6342 1.7042 1.7342 1.7942 1.9042 2.0242 2.1942 2.3442 2.4542
925.909 2.5342 2.5742 2.6242 2.6742 2.6742 2.7342 2.8942 3.1342 3.4042 3.6742
964.489 3.9442 4.2342 4.5342 4.8842 5.2342 5.6042 6.1142 6.6542 7.1242 7.5542
1003.068 8.0042 8.5642 9.2142 10.0242 11.1742 12.5942 14.0942 15.5942 16.7542 17.5142
1041.648 17.7642 17.6642 17.6542 17.8742 18.1642 18.5342 18.8942 19.0542 18.9942 18.6042
1080.227 17.8542 16.7142 15.3842 13.9342 12.4642 11.1342 9.9642 8.9842 8.2142 7.5642
1118.807 7.0442 6.5842 6.2042 5.9742 5.6842 5.4242 5.3242 5.3342 5.3542 5.3442
1157.387 5.4142 5.4942 5.5642 5.6242 5.8142 6.1442 6.5842 7.2242 8.1242 9.3942
1195.966 10.7942 11.8442 12.2942 11.8042 10.5942 9.2442 7.9842 7.0442 6.3442 5.8542
1234.546 5.5542 5.3342 5.1442 5.0442 5.0242 5.0242 5.0542 5.0442 5.1642 5.3142
1273.125 5.5542 5.8142 6.1442 6.6342 7.1042 7.4842 7.7042 7.7442 7.6142 7.3642
1311.705 7.0842 6.8242 6.6642 6.6642 6.8042 7.1242 7.6242 8.2142 8.8042 9.3442
1350.284 9.8342 10.2142 10.5342 10.9642 11.7542 12.9442 14.2642 15.3142 15.5442 14.7342
1388.864 13.1042 11.0842 9.0042 7.2142 5.8642 4.8942 4.2242 3.7942 3.5442 3.4342
1427.443 3.4742 3.6842 4.0542 4.5742 5.2042 5.9042 6.6142 7.2042 7.5842 7.7542
1466.023 7.7042 7.4442 6.9542 6.1942 5.1942 4.1142 3.1742 2.5042 2.0542 1.7242
1504.603 1.5142 1.3642 1.2542 1.1542 1.0642 1.0024 0.9387 0.8754 0.828 0.7874
1543.182 0.7634 0.7322 0.6893 0.6476 0.6084 0.5878 0.5726 0.5465 0.524 0.4946
1581.762 0.4677 0.4485 0.4339 0.4237 0.4093 0.3922 0.3759 0.3607 0.373 0.3883
1620.341 0.3952 0.4211 0.4406 0.456 0.4754 0.4594 0.4231 0.3999 0.3709 0.323
1658.921 0.2999 0.2867 0.2744 0.2607 0.2267 0.2056 0.1919 0.1854 0.1767 0.1712
1697.500 0.1632 0.1498 0.1585 0.1562 0.1515 0.157 0.1528 0.1528 0.1616 0.1651
1736.080 0.1678 0.1595 0.1751 0.1747 0.148 0.1492 0.1749 0.1728 0.1502 0.163
1774.659 0.1833 0.1925 0.1951 0.2011 0.2098 0.2227 0.2066 0.2101 0.2336 0.2335
1813.239 0.2447 0.2492 0.2466 0.247 0.2469 0.2576 0.257 0.242 0.2381 0.2318
1851.819 0.2171 0.2046 0.1974 0.1922 0.1942 0.2045 0.2119 0.2077 0.2051 0.2002
1890.398 0.1949 0.1906 0.1864 0.1933 0.201 0.2038 0.2084 0.2191 0.222 0.2162
1928.978 0.2164 0.2273 0.2312 0.2306 0.2363 0.222 0.2027 0.2134 0.21 0.206
1967.557 0.2287 0.2444 0.2482 0.2349 0.2108 0.2175 0.2286 0.2127 0.2147 0.2358
2006.137 0.2488 0.2627 0.2706 0.2597 0.262 0.2664 0.2739 0.2935 0.2953 0.3027
2044.716 0.2975 0.2833 0.2719 0.2707 0.2748 0.2659 0.2774 0.2857 0.2682 0.2559
2083.296 0.2651 0.2702 0.2692 0.2659 0.2512 0.2404 0.2212 0.2092 0.2068 0.2236
2121.875 0.2299 0.2119 0.2085 0.19 0.1874 0.2 0.1984 0.1979 0.1908 0.187
2160.455 0.1971 0.2132 0.2196 0.219 0.2222 0.219 0.2222 0.2261 0.2091 0.1989
2199.035 0.2056 0.215 0.2089 0.2054 0.2123 0.1911 0.1826 0.1971 0.1933 0.2011
2237.614 0.2354 0.2581 0.247 0.2254 0.2464 0.2679 0.2544 0.2618 0.2798 0.2872
2276.194 0.2909 0.2877 0.2825 0.2808 0.2865 0.2996 0.3056 0.296 0.2754 0.2817
2314.773 0.285 0.2874 0.3067 0.3016 0.2891 0.293 0.3014 0.2999 0.302 0.2987
2353.353 0.3085 0.3259 0.3419 0.369 0.3642 0.3434 0.3502 0.3536 0.3553 0.3655
2391.932 0.3498 0.3438 0.3748 0.3764 0.3663 0.3903 0.4136 0.4247 0.4316 0.4335
2430.512 0.4369 0.4486 0.4479 0.4124 0.3938 0.3861 0.3597 0.3525 0.3484 0.3416
2469.092 0.3575 0.3561 0.3521 0.3517 0.3711 0.3869 0.3898 0.3925 0.3829 0.398
2507.671 0.4353 0.4527 0.4678 0.5064 0.4941 0.5009 0.5603 0.5772 0.599 0.6536
2546.251 0.6987 0.7388 0.7696 0.7903 0.8365 0.8894 0.9068 0.9402 0.9924 1.0077
2584.830 1.0342 1.0642 1.0842 1.1142 1.1442 1.1642 1.1842 1.2542 1.2942 1.3142
2623.410 1.3642 1.4542 1.5542 1.6342 1.7242 1.8342 1.9642 2.0942 2.1842 2.2842
2661.989 2.3942 2.5142 2.6742 2.8142 2.9642 3.1142 3.2342 3.3542 3.5142 3.7142
2700.569 3.9342 4.1342 4.3442 4.5842 4.8142 5.0442 5.2742 5.4842 5.6542 5.8342
2739.148 6.0442 6.3042 6.6242 7.0242 7.5042 8.0142 8.5642 9.1642 9.8142 10.5842
2777.728 11.5742 12.8142 14.4642 16.5542 18.9842 21.5542 23.8442 25.3942 26.0042 25.7642
2816.308 24.8042 23.3742 21.7042 19.9742 18.4142 17.1842 16.4242 16.2142 16.5042 17.3542
2854.887 18.7242 20.4542 22.3442 24.1942 25.8942 27.2842 28.1642 28.3842 27.9842 27.3042
2893.467 26.8742 27.0942 28.0242 29.5242 31.5142 33.9542 36.8442 40.3742 44.6342 49.6142
2932.046 54.8042 59.0242 60.9242 59.7842 55.8742 50.5642 45.6042 42.3242 41.4142 42.6442
2970.626 44.5942 45.2542 42.8742 37.0842 29.4442 22.0942 16.3042 12.2542 9.5342 7.7142
3009.205 6.4742 5.5342 4.8042 4.2642 3.8142 3.4642 3.1542 2.8942 2.7142 2.5242
3047.785 2.3642 2.2442 2.1142 1.9742 1.8842 1.8142 1.7142 1.6042 1.5042 1.4342
3086.364 1.3742 1.3242 1.2642 1.1942 1.1742 1.1542 1.1142 1.0742 1.0152 0.9641
3124.944 0.8876 0.8264 0.8169 0.8142 0.8081 0.7878 0.7571 0.7293 0.704 0.6769
3163.524 0.6423 0.6134 0.5578 0.5255 0.5397 0.5344 0.5165 0.469 0.44 0.4346
3202.103 0.4164 0.3917 0.384 0.3817 0.3719 0.3471 0.3103 0.293 0.3138 0.3351
3240.683 0.2777 0.2664 0.2941 0.2936 0.2848 0.3036 0.3121 0.2776 0.2592 0.2704
3279.262 0.275 0.238 0.2083 0.2113 0.2445 0.2649 0.2421 0.1907 0.2205 0.2808
3317.842 0.2528 0.2093 0.2294 0.2753 0.3005 0.2764 0.2259 0.2291 0.2351 0.2563
3356.421 0.2249 0.2058 0.2436 0.2173 0.1988 0.2512 0.2851 0.2626 0.2764 0.2721
3395.001 0.2263 0.2305 0.2116 0.225 0.309 0.328 0.3046 0.2859 0.258 0.2776
3433.580 0.3393 0.3404 0.2861 0.276 0.3007 0.3111 0.2913 0.3107 0.3812 0.3918
3472.160 0.3514 0.3685 0.3679 0.2937 0.3082 0.3339 0.345 0.3356 0.2558 0.2327
3510.740 0.264 0.2856 0.258 0.2141 0.2223 0.2485 0.2661 0.2428 0.2086 0.2029
3549.319 0.198 0.1984 0.1961 0.217 0.2042 0.1922 0.2641 0.2847 0.285 0.305
3587.899 0.2898 0.3066 0.2832 0.2718 0.3386 0.361 0.3896 0.4662 0.5442 0.5788
3626.478 0.6264 0.7495 0.8967 1.0742 1.3242 1.6242 2.0242 2.5542 3.0942 3.5542
3665.058 3.8542 3.9042 3.6942 3.2742 2.6842 2.0642 1.5142 1.1442 0.9039 0.7521
3703.637 0.6405 0.5626 0.5073 0.4823 0.4481 0.4033 0.3553 0.3505 0.335 0.313
3742.217 0.3076 0.2424 0.2518 0.2608 0.2205 0.2323 0.2777 0.2731 0.2642 0.2359
3780.797 0.2254 0.2178 0.2266 0.2672 0.2679 0.2602 0.2134 0.214 0.2366 0.262
3819.376 0.2459 0.2452 0.2702 0.2705 0.3001 0.3341 0.3081 0.3077 0.3733 0.3901
3857.956 0.388 0.3711 0.334 0.2968 0.2746 0.2811 0.3137 0.3242 0.3335 0.3462
3896.535 0.3367 0.2991 0.321 0.3451 0.282 0.2707 0.2637 0.2466 0.2661 0.2
3935.115 0.1887 0.2371 0.2389 0.2669 0.2359 0.2317 0.252 0.2095 0.2168 0.2109
3973.694 0.2088 0.2393 0.2943 0.3153 0.2777 0.3165 0.3192 0.3409
##END=
