##TITLE=Neodecanoic acid
##JCAMP-DX=4.24
##DATA TYPE=INFRARED SPECTRUM
##ORIGIN=EPA-IR VAPOR PHASE LIBRARY
##OWNER=SRD/NIST
Collection (C) 2018 copyright by the U.S. Secretary of Commerce
on behalf of the United States of America. All rights reserved.
##CAS REGISTRY NO=26896-20-8
##MOLFORM=C 10 H 20 O 2
##$NIST SOURCE=MSDC-IR
##STATE=gas
##XUNITS=1/CM
##YUNITS=ABSORBANCE
##XFACTOR=1.
##YFACTOR=0.001
##DELTAX=1.92898
##FIRSTX=549.8
##LASTX=4000.7
##FIRSTY=5.346
##MAXX=4000.7
##MINX=549.759
##MAXY=0.057976
##MINY=0
##NPOINTS=1790
##XYDATA=(X++(Y..Y))
549.759 5.346 5.506 5.726 5.796 5.956 6.356 6.766 7.246 7.656 8.046
569.049 8.456 8.966 9.486 9.836 10.086 10.306 10.416 10.536 10.746 10.696
588.339 10.396 10.296 10.326 10.136 9.926 9.746 9.596 9.386 9.126 8.726
607.628 8.276 7.876 7.476 7.166 6.796 6.106 5.376 4.886 4.506 4.096
626.918 3.566 3.186 2.856 2.396 2.056 1.916 1.856 1.766 1.676 1.616
646.208 1.466 1.386 1.306 1.206 1.176 1.0343 0.9339 0.966 0.9667 0.9514
665.498 1.0387 1.0824 0.9949 1.0119 1.112 1.0058 0.9486 1.156 1.266 1.376
684.787 1.476 1.586 1.846 2.006 2.156 2.436 2.666 2.806 3.036 3.176
704.077 3.146 3.236 3.366 3.336 3.366 3.266 3.076 3.046 2.926 2.716
723.367 2.536 2.376 2.316 2.336 2.286 2.246 2.226 2.286 2.386 2.496
742.657 2.606 2.696 2.726 2.846 3.146 3.316 3.446 3.566 3.646 3.716
761.947 3.676 3.666 3.686 3.636 3.556 3.466 3.356 3.176 2.916 2.846
781.236 2.786 2.526 2.356 2.356 2.326 2.096 1.856 1.806 1.746 1.706
800.526 1.596 1.386 1.306 1.226 1.0891 0.9861 0.9891 0.9531 0.9128 0.8783
819.816 0.846 1.0286 1.126 1.0146 0.9485 1.0023 1.0079 0.9682 0.9377 0.8767
839.106 0.79 0.7486 0.772 0.7376 0.7674 0.8424 0.8006 0.7451 0.7519 0.8109
858.395 0.8092 0.7437 0.7388 0.7124 0.6909 0.7469 0.714 0.6233 0.642 0.7288
877.685 0.7678 0.7586 0.7924 0.872 0.9084 0.9259 0.881 0.8753 0.9673 0.9366
896.975 0.8439 0.8887 1.063 1.1 1.0063 0.9605 0.9496 0.9068 0.8575 0.8604
916.265 0.8363 0.8492 0.9568 1.0308 1.156 1.216 1.196 1.186 1.0704 1.0476
935.555 1.146 1.266 1.266 1.166 1.146 1.166 1.118 1.0743 1.1216 1.1243
954.844 1.0189 0.9801 1.103 1.146 1.0865 1.146 1.216 1.236 1.196 1.0971
974.134 1.1059 1.216 1.356 1.426 1.466 1.476 1.536 1.676 1.726 1.796
993.424 1.836 1.926 2.166 2.346 2.526 2.776 2.926 2.976 3.016 3.016
1012.714 3.086 3.176 3.236 3.316 3.336 3.396 3.476 3.566 3.626 3.606
1032.003 3.816 4.016 4.146 4.496 4.876 5.076 5.226 5.356 5.696 6.086
1051.293 6.316 6.706 7.086 7.426 7.866 8.196 8.576 9.086 9.536 10.046
1070.583 10.776 11.596 12.376 13.366 14.416 15.526 17.076 18.356 19.556 21.116
1089.873 22.626 24.096 25.736 27.536 28.966 30.186 31.266 31.816 32.086 32.256
1109.163 32.006 31.436 30.706 29.506 27.886 26.186 24.386 22.536 20.586 18.696
1128.452 16.846 15.256 13.956 12.686 11.616 10.636 9.876 9.146 8.416 8.046
1147.742 7.556 6.936 6.566 6.246 5.986 5.776 5.666 5.606 5.666 5.696
1167.032 5.646 5.726 5.646 5.436 5.466 5.696 5.836 5.906 6.016 6.046
1186.322 6.166 6.356 6.336 6.146 6.106 6.126 6.126 5.956 5.686 5.526
1205.611 5.286 4.876 4.466 4.336 4.006 3.426 3.116 3.006 2.776 2.456
1224.901 2.286 2.176 1.986 1.906 2.066 1.986 1.906 1.816 1.616 1.686
1244.191 1.746 1.736 1.866 1.976 2.006 1.956 1.936 2.026 2.166 2.346
1263.481 2.426 2.446 2.556 2.566 2.686 2.766 2.726 2.886 2.946 2.936
1282.771 2.946 3.026 3.116 3.096 3.126 3.146 3.106 3.126 3.176 3.216
1302.060 3.236 3.186 3.146 3.166 3.156 3.106 3.086 3.036 2.976 2.936
1321.350 2.896 2.896 2.856 2.826 2.846 2.816 2.846 2.826 2.806 2.866
1340.640 2.886 2.906 2.916 2.926 2.926 2.926 2.946 2.966 3.046 3.156
1359.930 3.246 3.336 3.466 3.656 3.916 4.186 4.496 4.866 5.276 5.746
1379.219 6.226 6.666 7.046 7.336 7.446 7.366 7.126 6.726 6.196 5.606
1398.509 4.966 4.306 3.726 3.206 2.776 2.416 2.166 2.016 1.876 1.786
1417.799 1.776 1.796 1.786 1.786 1.826 1.866 1.966 2.116 2.256 2.426
1437.089 2.626 2.836 3.156 3.496 3.886 4.326 4.816 5.376 5.986 6.596
1456.378 7.166 7.696 8.126 8.486 8.756 8.876 8.846 8.666 8.326 7.816
1475.668 7.206 6.526 5.816 5.096 4.406 3.816 3.286 2.836 2.496 2.216
1494.958 1.986 1.796 1.626 1.476 1.386 1.356 1.346 1.286 1.206 1.156
1514.248 1.136 1.0712 1.0375 1.027 0.9966 0.9634 0.9325 0.9067 0.9028 0.8981
1533.538 0.9221 0.8646 0.7893 0.8641 0.8538 0.7814 0.7951 0.8023 0.7901 0.7825
1552.827 0.7593 0.7312 0.7385 0.7631 0.7532 0.7013 0.647 0.6187 0.6298 0.6276
1572.117 0.6206 0.6092 0.6273 0.6161 0.5988 0.6241 0.6403 0.6357 0.6076 0.616
1591.407 0.6117 0.5778 0.5637 0.5796 0.6341 0.6288 0.5846 0.5737 0.5676 0.5782
1610.697 0.5779 0.5499 0.5238 0.5632 0.5665 0.5843 0.5866 0.5501 0.5626 0.5917
1629.986 0.6106 0.5963 0.6092 0.6398 0.6385 0.6276 0.6588 0.6971 0.6572 0.6215
1649.276 0.6391 0.6577 0.6962 0.7492 0.7504 0.7467 0.7871 0.7695 0.7621 0.8069
1668.566 0.8589 0.8914 0.9062 0.9567 1.0177 1.0487 1.0962 1.146 1.246 1.356
1687.856 1.386 1.476 1.596 1.706 1.886 2.036 2.206 2.396 2.556 2.796
1707.146 3.026 3.296 3.606 3.866 4.176 4.496 4.776 5.036 5.346 5.676
1726.435 6.016 6.406 6.856 7.466 8.346 9.386 10.746 12.716 15.276 18.586
1745.725 22.696 27.586 33.146 39.226 45.336 50.886 55.336 57.846 57.976 55.806
1765.015 51.696 46.076 39.496 32.826 26.396 20.886 16.556 13.366 11.116 9.526
1784.305 8.486 7.696 7.036 6.496 5.996 5.526 5.086 4.636 4.246 3.926
1803.594 3.626 3.296 2.996 2.786 2.606 2.396 2.196 2.016 1.896 1.796
1822.884 1.666 1.546 1.426 1.326 1.236 1.156 1.0681 0.9858 0.93 0.8676
1842.174 0.8251 0.7728 0.7104 0.687 0.6723 0.6481 0.6297 0.6032 0.5784 0.5348
1861.464 0.5165 0.5332 0.5146 0.4726 0.4529 0.4671 0.4858 0.4702 0.4631 0.4278
1880.754 0.3979 0.4189 0.4413 0.4468 0.4517 0.4362 0.4295 0.4473 0.4172 0.3859
1900.043 0.4026 0.4243 0.4332 0.3897 0.3347 0.3636 0.394 0.3865 0.3833 0.3607
1919.333 0.3251 0.3525 0.3652 0.356 0.3513 0.3615 0.3561 0.3118 0.3079 0.3363
1938.623 0.3527 0.3561 0.3206 0.3052 0.3263 0.3241 0.324 0.3078 0.2919 0.2798
1957.913 0.2742 0.3104 0.342 0.3161 0.2897 0.2768 0.2806 0.3054 0.2918 0.2715
1977.202 0.2825 0.2877 0.2879 0.2998 0.2988 0.2666 0.2458 0.2791 0.3088 0.2934
1996.492 0.2912 0.2953 0.2979 0.2993 0.2809 0.2557 0.2368 0.2314 0.2485 0.2818
2015.782 0.2945 0.2842 0.3081 0.2912 0.21901 0.2425 0.2703 0.2546 0.2438 0.2347
2035.072 0.2368 0.2391 0.2587 0.2951 0.3143 0.3182 0.3184 0.2814 0.2815 0.3093
2054.362 0.3137 0.2833 0.2312 0.2362 0.2609 0.289 0.3167 0.3122 0.2943 0.2812
2073.651 0.2554 0.2332 0.242 0.2736 0.2943 0.2817 0.2809 0.3 0.3111 0.31
2092.941 0.2667 0.2451 0.2614 0.2763 0.2642 0.2527 0.283 0.3151 0.3172 0.2876
2112.231 0.2787 0.2897 0.2915 0.2833 0.2541 0.2706 0.2721 0.2681 0.2881 0.3129
2131.521 0.3169 0.2899 0.3073 0.2721 0.288 0.3414 0.3045 0.284 0.2949 0.3064
2150.810 0.3117 0.3008 0.2675 0.2747 0.3405 0.3351 0.2737 0.3068 0.3785 0.3548
2170.100 0.3256 0.3456 0.3387 0.3254 0.2914 0.3223 0.4212 0.4284 0.4047 0.3868
2189.390 0.398 0.411 0.4003 0.4353 0.4308 0.3969 0.3858 0.3847 0.4002 0.4166
2208.680 0.3619 0.3001 0.3452 0.3776 0.342 0.3588 0.3611 0.3076 0.3499 0.3756
2227.970 0.3632 0.3195 0.2832 0.3198 0.3225 0.3155 0.3366 0.317 0.2973 0.2937
2247.259 0.2836 0.299 0.3203 0.2916 0.2717 0.2806 0.2846 0.2999 0.3166 0.2961
2266.549 0.2679 0.2805 0.3051 0.3177 0.2928 0.2889 0.2811 0.2849 0.322 0.3248
2285.839 0.3004 0.2882 0.2688 0.2568 0.2858 0.3085 0.2883 0.2685 0.2521 0.2948
2305.129 0.3504 0.2985 0.2971 0.3083 0.2903 0.3105 0.3154 0.2953 0.2909 0.3243
2324.418 0.3217 0.2924 0.298 0.3241 0.3172 0.3312 0.3571 0.3637 0.3484 0.317
2343.708 0.3219 0.3351 0.3884 0.3964 0.3659 0.3681 0.3673 0.3882 0.4364 0.4217
2362.998 0.3993 0.3807 0.3656 0.4038 0.4215 0.4124 0.4121 0.4302 0.3989 0.3668
2382.288 0.3529 0.3955 0.4581 0.4543 0.4292 0.3944 0.3788 0.3932 0.3508 0.3063
2401.578 0.3422 0.4216 0.4495 0.3818 0.3663 0.425 0.412 0.3812 0.3998 0.3918
2420.867 0.3727 0.373 0.3693 0.3289 0.3328 0.3508 0.3171 0.2968 0.3311 0.3636
2440.157 0.332 0.3428 0.3724 0.3377 0.3313 0.3572 0.3642 0.334 0.3278 0.342
2459.447 0.3589 0.3463 0.3055 0.3263 0.3443 0.3426 0.3269 0.3373 0.3444 0.338
2478.737 0.296 0.2425 0.2908 0.2996 0.277 0.3253 0.3416 0.2805 0.21953 0.22522
2498.026 0.284 0.3286 0.2975 0.282 0.3035 0.3412 0.3644 0.3328 0.366 0.4099
2517.316 0.3443 0.2606 0.2979 0.3039 0.2656 0.2821 0.2855 0.2983 0.3013 0.3342
2536.606 0.3607 0.3266 0.2866 0.3308 0.3837 0.3232 0.3053 0.3608 0.4059 0.4024
2555.896 0.3835 0.402 0.3978 0.3843 0.39 0.3768 0.3689 0.3553 0.3191 0.317
2575.186 0.3746 0.3912 0.4187 0.4591 0.4009 0.3619 0.3651 0.3936 0.406 0.4304
2594.475 0.4485 0.4166 0.4122 0.4298 0.4703 0.4575 0.4575 0.4867 0.4666 0.407
2613.765 0.3982 0.4425 0.4732 0.5344 0.5249 0.4622 0.4554 0.4627 0.5094 0.4715
2633.055 0.4112 0.5299 0.5675 0.5117 0.5101 0.5111 0.5151 0.5046 0.5047 0.5026
2652.345 0.4916 0.4516 0.4629 0.502 0.5014 0.4883 0.4632 0.4863 0.511 0.5807
2671.634 0.5801 0.5027 0.4896 0.5311 0.5709 0.5519 0.4755 0.4872 0.5853 0.5531
2690.924 0.5443 0.563 0.5384 0.5443 0.5409 0.5641 0.6102 0.614 0.6073 0.6039
2710.214 0.5769 0.5661 0.6048 0.6165 0.6272 0.6179 0.5827 0.6318 0.6201 0.6527
2729.504 0.7232 0.7529 0.7829 0.7973 0.8569 0.9361 0.9797 0.9732 0.9415 0.9775
2748.794 1.0278 1.0196 1.0086 1.012 1.0596 1.0279 0.9881 0.9741 0.9741 1.0399
2768.083 1.0287 1.0119 0.9654 0.9306 1.0197 1.027 1.0171 1.0552 1.0743 1.166
2787.373 1.206 1.216 1.216 1.186 1.186 1.266 1.356 1.356 1.396 1.466
2806.663 1.506 1.616 1.666 1.696 1.696 1.786 1.946 1.956 1.976 1.956
2825.953 1.996 2.146 2.256 2.346 2.476 2.666 2.826 2.936 3.076 3.246
2845.242 3.516 3.836 4.186 4.616 5.076 5.546 6.106 6.706 7.396 8.216
2864.532 9.036 9.846 10.666 11.436 12.266 13.156 13.996 14.816 15.566 16.086
2883.822 16.506 16.856 16.936 16.696 16.356 16.016 15.576 15.176 14.836 14.616
2903.112 14.586 14.646 14.746 15.036 15.566 16.216 16.876 17.546 18.356 19.326
2922.401 20.306 21.366 22.506 23.716 24.996 26.356 27.676 28.966 30.226 31.286
2941.691 32.126 32.656 32.946 32.926 32.606 32.356 32.246 32.336 32.786 33.806
2960.981 35.256 36.936 38.636 40.046 41.096 41.556 41.346 40.536 39.116 37.066
2980.271 34.786 32.496 30.096 27.836 25.706 23.516 21.346 19.316 17.306 15.376
2999.561 13.646 11.936 10.346 9.036 7.966 7.026 6.156 5.476 4.976 4.496
3018.850 4.146 3.856 3.546 3.326 3.206 3.016 2.766 2.626 2.486 2.346
3038.140 2.316 2.236 2.066 2.016 1.966 1.826 1.776 1.806 1.796 1.706
3057.430 1.606 1.556 1.516 1.496 1.456 1.386 1.336 1.286 1.296 1.336
3076.720 1.276 1.256 1.296 1.256 1.146 1.121 1.156 1.166 1.136 1.176
3096.009 1.196 1.0989 1.0898 1.1001 0.9817 0.9579 1.0054 0.9522 0.8924 0.8611
3115.299 0.9471 1.006 0.9665 0.9551 0.9573 0.9751 0.9258 0.8312 0.7916 0.7716
3134.589 0.8069 0.8231 0.8142 0.8553 0.8595 0.8605 0.8414 0.8047 0.8419 0.8077
3153.879 0.7387 0.8027 0.7715 0.6493 0.6536 0.7664 0.7747 0.6895 0.7172 0.7389
3173.169 0.6603 0.6286 0.6446 0.6462 0.6264 0.6422 0.672 0.6512 0.5864 0.6321
3192.458 0.6857 0.654 0.6488 0.6634 0.6468 0.5774 0.5465 0.5141 0.5004 0.502
3211.748 0.4613 0.4564 0.4863 0.5086 0.4966 0.393 0.3569 0.3757 0.3633 0.3695
3231.038 0.4085 0.4089 0.3696 0.4117 0.4251 0.3445 0.3246 0.3942 0.3727 0.3353
3250.328 0.328 0.2989 0.257 0.2501 0.3116 0.2806 0.2164 0.22187 0.3263 0.3965
3269.617 0.2626 0.2631 0.3782 0.436 0.3919 0.3207 0.3437 0.2957 0.2727 0.3122
3288.907 0.3462 0.3047 0.3171 0.3573 0.3412 0.2907 0.2669 0.318 0.2936 0.2764
3308.197 0.2563 0.2496 0.2876 0.2144 0.13769 0.13651 0.1154 0.1069 0.127139 0.125661
3327.487 0.18148 0.3208 0.319 0.18638 0.129004 0.14638 0.2299 0.2554 0.2743 0.293
3346.777 0.2296 0.15715 0.14967 0.19249 0.17732 0.22103 0.2583 0.2622 0.3263 0.20785
3366.066 0.105 0.20862 0.16033 0.1103 0.20941 0.2373 0.20539 0.18994 0.19651 0.19293
3385.356 0.2242 0.2688 0.2969 0.3119 0.3049 0.3123 0.227 0.20723 0.2938 0.3201
3404.646 0.2924 0.2934 0.3024 0.21373 0.20493 0.20389 0.134064 0.21232 0.2728 0.2593
3423.936 0.3039 0.3038 0.288 0.2581 0.2533 0.15741 0.14577 0.19289 0.14139 0.16325
3443.225 0.17901 0.13966 0.17778 0.14448 0.1098 0.15668 0.17361 0.22561 0.2419 0.3251
3462.515 0.3858 0.3288 0.22301 0.19379 0.2775 0.324 0.3268 0.3529 0.3099 0.3675
3481.805 0.3368 0.3692 0.4875 0.4105 0.4201 0.4657 0.5808 0.6193 0.535 0.5448
3501.095 0.6549 0.6188 0.6066 0.7738 0.6981 0.603 0.6713 0.6589 0.5059 0.3799
3520.385 0.4071 0.4711 0.5517 0.5858 0.5744 0.6071 0.598 0.6446 0.7301 0.6657
3539.674 0.7255 0.9027 1.0615 1.306 1.546 2.046 2.926 4.066 5.496 7.276
3558.964 9.326 11.596 14.016 16.116 17.506 18.396 18.586 17.856 16.546 14.646
3578.254 12.356 9.986 7.716 5.706 4.006 2.796 2.046 1.466 1.0766 0.8487
3597.544 0.7897 0.8708 0.7641 0.613 0.5446 0.6339 0.7368 0.6972 0.6252 0.6116
3616.833 0.6536 0.5663 0.4311 0.468 0.6186 0.5736 0.4496 0.3512 0.2814 0.3565
3636.123 0.3986 0.3674 0.4607 0.4565 0.3238 0.323 0.3385 0.4674 0.4118 0.20312
3655.413 0.2852 0.3154 0.11979 0.0674 0.22351 0.2802 0.289 0.2978 0.2532 0.2795
3674.703 0.3211 0.2931 0.2924 0.21306 0.21681 0.3205 0.2714 0.2741 0.2752 0.2945
3693.993 0.3117 0.2704 0.1444 0.0751 0.131204 0.2346 0.2773 0.21283 0.15835 0.1001
3713.282 0.20698 0.3041 0.2787 0.2925 0.2398 0.14357 0.1824 0.16988 0.20098 0.20012
3732.572 0.17355 0.3025 0.2267 0.117 0.19554 0.2367 0.2422 0.3454 0.3277 0.20667
3751.862 0.18839 0.16638 0.18513 0.21814 0.15799 0.18593 0.16577 0.21427 0.368 0.3639
3771.152 0.276 0.2317 0.2806 0.3147 0.18179 0.008 0.13827 0.2756 0.22045 0.2335
3790.441 0.2368 0.261 0.2649 0.2352 0.2296 0.0731 0 0.0864 0.0875 0.20483
3809.731 0.3223 0.293 0.229 0.19072 0.2692 0.3353 0.3123 0.2597 0.3221 0.2806
3829.021 0.2445 0.2671 0.18049 0.15821 0.1342 0.2187 0.363 0.2475 0.085 0.0704
3848.311 0.1094 0.16785 0.2736 0.18447 0.0411 0.127926 0.2558 0.2684 0.2949 0.3071
3867.601 0.2322 0.21945 0.2362 0.19876 0.14139 0.20531 0.232 0.22147 0.17589 0.2115
3886.890 0.2623 0.2594 0.2795 0.2419 0.2558 0.2398 0.1703 0.19235 0.1985 0.2304
3906.180 0.3021 0.2852 0.2911 0.2833 0.2503 0.3106 0.3685 0.2834 0.21127 0.3156
3925.470 0.3237 0.2677 0.2809 0.2787 0.2556 0.2428 0.2907 0.3303 0.2717 0.2318
3944.760 0.20087 0.16076 0.21242 0.22273 0.15145 0.18669 0.3105 0.3049 0.3196 0.2801
3964.049 0.15206 0.017 0.075 0.14324 0.0945 0.0768 0.0865 0.16011 0.2968 0.297
3983.339 0.2303 0.3068 0.19262 0.19101 0.326 0.2478 0.2592 0.3761 0.3315 0.2695
##END=
