##TITLE=3-Cyclopentylcyclopentene
##JCAMP-DX=4.24
##DATA TYPE=INFRARED SPECTRUM
##ORIGIN=NIST Mass Spectrometry Data Center
##OWNER=NIST Standard Reference Data Program
Collection (C) 2018 copyright by the U.S. Secretary of Commerce
on behalf of the United States of America. All rights reserved.
##CAS REGISTRY NO=2690-17-7
##MOLFORM=C 10 H 16
##$NIST SOURCE=MSDC-IR
##SPECTROMETER/DATA SYSTEM=HP-GC/MS/IRD
##STATE=gas
##XUNITS=1/CM
##YUNITS=ABSORBANCE
##XFACTOR=1.0
##YFACTOR=0.000003400
##DELTAX=4.0
##FIRSTX=550.0
##LASTX=3846.0
##FIRSTY=0.000483
##MAXX=3846
##MINX=550
##MAXY=0.034
##MINY=0
##NPOINTS=825
##XYDATA=(X++(Y..Y))
550.0 142 117 85 80 79 98 103 82 70 66
590.0 54 44 45 31 21 17 24 45 63 58
630.0 37 31 33 31 45 58 74 92 103 119
670.0 125 123 161 201 238 304 369 455 571 696
710.0 842 992 1085 1112 1059 962 843 704 574 468
750.0 365 290 256 227 190 163 149 132 101 81
790.0 67 59 59 53 47 38 35 29 32 40
830.0 35 31 24 26 30 25 26 29 31 31
870.0 34 51 80 125 184 235 283 324 346 342
910.0 319 290 258 217 189 182 174 167 155 121
950.0 92 80 71 69 79 95 98 99 113 120
990.0 130 147 155 161 166 152 142 137 126 122
1030.0 116 111 100 91 89 68 56 56 52 57
1070.0 58 60 67 67 58 55 45 38 44 51
1110.0 66 79 81 81 83 79 78 81 75 64
1150.0 62 67 65 63 69 69 68 67 68 72
1190.0 78 77 73 77 79 76 81 86 86 90
1230.0 105 120 124 136 148 153 151 152 157 158
1270.0 163 151 147 149 139 139 142 143 145 142
1310.0 128 116 110 99 92 94 104 127 151 181
1350.0 210 227 233 225 209 177 142 106 76 59
1390.0 56 58 62 66 72 78 88 98 108 126
1430.0 154 187 228 280 336 394 427 447 442 416
1470.0 384 332 278 245 212 170 130 99 79 67
1510.0 58 48 42 35 27 19 19 19 13 14
1550.0 18 15 14 13 9 7 10 12 16 24
1590.0 27 33 46 59 70 79 88 91 81 74
1630.0 74 76 80 95 103 105 112 107 89 79
1670.0 63 52 47 33 28 25 21 15 10 12
1710.0 11 8 7 7 1 2 5 3 3 1
1750.0 0 2 5 10 11 5 6 7 6 6
1790.0 2 3 5 4 1 0 3 3 2 2
1830.0 3 4 7 10 9 12 19 23 20 20
1870.0 22 16 13 17 24 20 16 18 18 14
1910.0 15 13 13 18 19 20 24 28 27 22
1950.0 24 21 15 14 15 16 17 16 14 14
1990.0 17 14 15 19 17 17 20 21 21 25
2030.0 24 23 21 17 18 21 23 20 20 22
2070.0 20 18 20 20 18 20 19 17 18 22
2110.0 22 19 17 23 30 27 27 31 30 25
2150.0 29 32 30 31 35 37 39 44 47 44
2190.0 42 45 45 42 41 43 44 41 41 39
2230.0 36 37 35 32 32 30 32 38 40 36
2270.0 32 31 33 36 36 32 31 29 26 31
2310.0 34 37 37 35 33 29 34 40 40 43
2350.0 40 31 27 23 25 23 23 24 24 22
2390.0 23 26 24 18 19 19 17 19 24 24
2430.0 21 20 21 23 20 20 22 25 25 25
2470.0 26 28 32 37 36 32 33 32 30 28
2510.0 27 30 33 31 31 37 39 35 39 37
2550.0 35 44 50 50 50 55 57 49 48 52
2590.0 54 55 55 55 59 59 55 52 52 54
2630.0 53 50 51 53 59 60 59 58 56 57
2670.0 60 59 55 52 59 60 58 60 58 62
2710.0 67 64 67 76 82 77 75 87 95 96
2750.0 98 102 114 113 116 132 145 166 182 196
2790.0 220 246 278 312 344 382 438 513 598 693
2830.0 818 981 1190 1481 1875 2361 2868 3350 3789 4149
2870.0 4423 4570 4563 4413 4134 3804 3536 3392 3369 3445
2910.0 3578 3758 3984 4251 4569 4986 5531 6248 7151 8168
2950.0 9092 9745 10000 9375 7952 6385 4882 3574 2572 1892
2990.0 1445 1163 975 839 731 645 569 511 473 446
3030.0 449 495 589 745 981 1279 1544 1660 1600 1426
3070.0 1140 798 524 342 232 170 129 102 88 84
3110.0 85 80 77 73 73 70 64 59 57 57
3150.0 58 61 59 53 50 47 44 45 51 49
3190.0 41 49 55 55 61 61 64 62 60 59
3230.0 52 46 36 29 35 36 31 32 37 41
3270.0 35 28 32 32 26 24 31 32 23 26
3310.0 28 24 19 24 33 36 32 28 27 22
3350.0 27 30 25 18 22 26 24 24 19 20
3390.0 28 28 26 28 27 19 18 22 29 33
3430.0 34 35 28 25 26 32 32 34 36 29
3470.0 29 30 23 31 38 36 36 39 41 34
3510.0 37 38 38 37 41 42 39 48 50 44
3550.0 43 39 41 42 36 38 41 45 42 32
3590.0 31 33 35 42 38 38 41 46 48 36
3630.0 37 38 39 48 45 42 48 47 48 49
3670.0 42 39 42 50 49 48 51 54 59 55
3710.0 49 53 58 64 60 50 54 61 57 41
3750.0 42 50 57 61 59 64 63 64 68 66
3790.0 66 66 65 66 66 69 81 83 81 87
3830.0 87 92 91 82 77
##END=
