##TITLE=2,4,4,6-Tetramethyl-1-oxa-3-aza-2-cyclohexene
##JCAMP-DX=4.24
##DATA TYPE=INFRARED SPECTRUM
##ORIGIN=NIST Mass Spectrometry Data Center
##OWNER=NIST Standard Reference Data Program
Collection (C) 2018 copyright by the U.S. Secretary of Commerce
on behalf of the United States of America. All rights reserved.
##CAS REGISTRY NO=26939-18-4
##MOLFORM=C 8 H 15 N O
##$NIST SOURCE=MSDC-IR
##SPECTROMETER/DATA SYSTEM=HP-GC/MS/IRD
##STATE=gas
##XUNITS=1/CM
##YUNITS=ABSORBANCE
##XFACTOR=1.0
##YFACTOR=0.000003400
##DELTAX=4.0
##FIRSTX=550.0
##LASTX=3846.0
##FIRSTY=0.000228
##MAXX=3846
##MINX=550
##MAXY=0.034
##MINY=0
##NPOINTS=825
##XYDATA=(X++(Y..Y))
550.0 67 28 33 9 0 9 44 69 50 35
590.0 31 66 103 120 129 138 193 280 360 462
630.0 597 533 402 363 255 150 114 96 69 55
670.0 53 50 50 59 56 47 62 76 65 63
710.0 69 55 55 72 76 75 65 69 89 88
750.0 82 87 104 113 126 143 158 203 247 256
790.0 259 252 231 216 185 171 207 250 308 468
830.0 704 901 1041 1067 989 826 613 485 448 442
870.0 440 439 436 439 472 555 685 786 822 811
910.0 765 703 657 695 839 1052 1263 1391 1411 1338
950.0 1180 948 737 656 711 836 996 1136 1196 1175
990.0 1081 925 739 587 500 460 439 446 513 655
1030.0 889 1219 1596 1925 2128 2162 2023 1761 1491 1350
1070.0 1381 1535 1737 1869 1877 1770 1546 1222 922 750
1110.0 660 618 623 685 804 963 1173 1369 1489 1535
1150.0 1517 1437 1351 1366 1552 1918 2476 3171 3842 4352
1190.0 4613 4624 4454 4175 3839 3522 3237 2956 2715 2651
1230.0 2944 3699 4964 6639 8322 9531 10000 9610 8316 6348
1270.0 4379 2969 2123 1644 1433 1383 1379 1362 1270 1115
1310.0 918 712 571 503 472 463 472 508 582 727
1350.0 965 1316 1723 2435 3227 3678 4087 4227 3969 3368
1390.0 2510 1665 1026 673 507 444 433 469 552 684
1430.0 865 1063 1242 1391 1499 1499 1416 1323 1208 1078
1470.0 945 795 646 521 416 334 283 253 237 223
1510.0 214 212 214 213 214 218 228 242 256 264
1550.0 262 266 279 280 272 270 275 273 279 291
1590.0 300 300 294 308 318 337 368 411 476 575
1630.0 709 885 1137 1485 1998 2707 3726 5029 6569 8123
1670.0 9335 9958 9851 9039 7659 6140 4821 3783 2938 2206
1710.0 1579 1132 856 679 570 492 433 384 337 299
1750.0 266 239 226 228 225 219 215 202 188 171
1790.0 162 161 154 152 156 157 157 155 153 149
1830.0 144 141 137 136 129 118 107 102 98 99
1870.0 105 101 106 113 105 101 98 87 88 96
1910.0 92 95 100 95 88 81 74 65 67 64
1950.0 59 60 64 62 57 57 63 66 63 62
1990.0 59 55 49 39 39 41 36 39 43 45
2030.0 49 53 54 54 49 42 41 42 41 39
2070.0 43 44 41 40 44 53 53 48 45 40
2110.0 38 38 37 34 35 37 34 30 33 39
2150.0 38 40 39 39 40 36 34 31 26 22
2190.0 22 19 20 17 13 14 15 19 17 16
2230.0 17 17 20 16 9 9 7 6 6 1
2270.0 2 14 19 16 17 19 17 21 24 20
2310.0 16 20 23 18 16 8 7 11 7 9
2350.0 5 7 10 15 18 9 9 14 12 9
2390.0 12 13 18 22 16 16 17 20 26 27
2430.0 22 24 30 33 32 37 36 29 24 29
2470.0 32 24 21 26 22 19 23 25 24 26
2510.0 28 28 27 34 41 43 42 48 55 53
2550.0 50 55 60 53 45 47 43 37 41 34
2590.0 37 40 37 36 36 48 55 59 60 58
2630.0 70 88 92 89 93 96 92 87 82 80
2670.0 73 61 55 58 63 56 55 65 71 75
2710.0 88 105 120 130 139 142 140 143 146 148
2750.0 150 138 119 116 113 120 126 122 127 136
2790.0 147 167 186 199 222 253 280 296 313 339
2830.0 376 440 518 610 732 853 957 1069 1193 1324
2870.0 1439 1543 1619 1682 1764 1876 2044 2317 2686 3066
2910.0 3372 3770 4161 4344 4763 5409 5945 6320 6100 5451
2950.0 4797 4181 4006 4496 5707 7078 7930 8500 8116 6788
2990.0 5187 3513 2199 1331 889 688 600 558 522 480
3030.0 426 381 338 290 258 249 245 238 243 244
3070.0 247 253 256 252 248 248 244 231 225 219
3110.0 220 210 195 190 180 174 163 138 116 106
3150.0 109 117 117 111 112 113 112 113 120 125
3190.0 124 120 119 123 122 117 115 111 102 89
3230.0 78 69 67 68 69 61 55 61 54 50
3270.0 66 70 57 49 45 58 72 70 82 93
3310.0 102 120 130 138 142 128 126 133 124 118
3350.0 120 103 95 84 62 56 62 64 66 69
3390.0 37 30 48 44 42 47 66 66 50 53
3430.0 53 47 55 56 54 45 31 36 45 40
3470.0 37 45 47 29 24 30 26 22 22 32
3510.0 32 24 31 28 25 35 39 38 34 29
3550.0 27 22 34 41 26 20 30 35 31 20
3590.0 14 27 38 37 37 24 9 19 34 24
3630.0 1 0 11 16 7 11 22 14 23 40
3670.0 41 28 23 26 24 27 29 27 26 33
3710.0 39 32 23 25 34 37 33 38 34 24
3750.0 27 20 21 44 55 51 54 58 43 40
3790.0 53 60 53 44 44 47 53 56 63 71
3830.0 68 63 51 57 70
##END=
