##TITLE=6-Bromo-1-hexene
##JCAMP-DX=4.24
##DATA TYPE=INFRARED SPECTRUM
##ORIGIN=NIST Mass Spectrometry Data Center
##OWNER=NIST Standard Reference Data Program
Collection (C) 2018 copyright by the U.S. Secretary of Commerce
on behalf of the United States of America. All rights reserved.
##CAS REGISTRY NO=2695-47-8
##MOLFORM=C 6 H 11 Br
##$NIST SOURCE=MSDC-IR
##SPECTROMETER/DATA SYSTEM=HP-GC/MS/IRD
##STATE=gas
##XUNITS=1/CM
##YUNITS=ABSORBANCE
##XFACTOR=1.0
##YFACTOR=0.000000700
##DELTAX=4.0
##FIRSTX=550.0
##LASTX=3846.0
##FIRSTY=0.000756
##MAXX=3846
##MINX=550
##MAXY=0.007
##MINY=0
##NPOINTS=825
##XYDATA=(X++(Y..Y))
550.0 1080 910 790 1115 1337 1328 1216 1145 885 609
590.0 555 392 417 470 532 697 935 1113 1233 1398
630.0 1359 1219 1199 1149 1117 1179 1130 926 691 613
670.0 495 306 251 186 91 92 61 55 81 110
710.0 152 155 177 259 365 539 662 658 672 691
750.0 683 588 457 422 396 327 275 224 194 222
790.0 214 237 264 268 275 307 353 316 311 324
830.0 254 241 290 340 400 482 556 623 705 765
870.0 789 829 892 1011 1190 1359 1622 2072 2689 3518
910.0 4401 4970 5062 4632 3775 2923 2284 1835 1496 1273
950.0 1131 1043 1067 1122 1230 1364 1509 1743 2045 2354
990.0 2534 2509 2299 1979 1607 1311 1099 933 840 757
1030.0 665 583 472 419 428 439 401 326 331 305
1070.0 247 261 264 196 170 223 228 217 215 178
1110.0 147 136 121 114 120 126 146 86 74 123
1150.0 86 103 134 153 183 196 237 353 422 488
1190.0 620 743 875 992 1055 1127 1207 1336 1609 2009
1230.0 2390 2736 3056 3323 3558 3750 3706 3454 3032 2562
1270.0 2220 2012 1914 1909 1941 1935 1854 1707 1514 1317
1310.0 1120 950 819 704 662 627 599 593 605 642
1350.0 642 620 594 546 473 397 333 262 253 264
1390.0 292 333 366 440 540 644 776 940 1115 1328
1430.0 1626 1987 2357 2621 2702 2598 2318 1963 1673 1388
1470.0 1107 839 621 479 399 318 247 227 222 167
1510.0 116 130 134 124 113 127 153 133 119 123
1550.0 131 119 115 119 106 98 99 136 129 116
1590.0 163 195 232 256 290 362 465 578 722 973
1630.0 1290 1628 1903 1995 1853 1473 1011 676 469 364
1670.0 276 198 143 120 106 91 95 92 71 67
1710.0 58 51 30 0 19 33 24 40 57 59
1750.0 69 73 69 55 67 86 97 97 95 88
1790.0 82 92 102 144 169 165 196 287 393 480
1830.0 552 588 565 501 402 290 222 190 163 144
1870.0 133 116 117 136 139 124 119 123 106 86
1910.0 100 110 101 94 65 61 94 110 89 75
1950.0 84 90 123 142 148 146 108 114 133 151
1990.0 142 108 108 115 136 161 142 122 120 127
2030.0 141 128 129 144 127 107 93 87 128 130
2070.0 108 108 106 118 108 100 128 131 107 100
2110.0 121 123 109 111 99 92 83 93 112 96
2150.0 81 79 82 85 82 94 129 151 145 117
2190.0 104 137 148 112 113 128 104 94 125 143
2230.0 116 104 118 129 144 136 132 141 146 138
2270.0 118 120 138 135 124 121 120 91 54 77
2310.0 116 119 115 91 89 86 88 109 101 111
2350.0 147 151 139 129 123 121 135 144 109 88
2390.0 81 97 108 116 131 121 96 95 130 150
2430.0 134 123 113 109 140 163 140 129 123 109
2470.0 136 133 101 106 90 101 118 69 89 143
2510.0 155 140 125 106 97 71 68 76 58 59
2550.0 77 90 103 92 95 112 82 82 119 115
2590.0 110 85 57 92 149 154 130 129 145 173
2630.0 157 146 149 149 167 170 169 184 185 172
2670.0 188 222 211 224 252 225 205 180 180 189
2710.0 184 207 226 231 221 232 216 172 191 218
2750.0 212 186 215 253 236 232 247 233 245 287
2790.0 347 395 396 446 448 478 542 639 784 923
2830.0 1124 1410 1739 2097 2488 2869 3213 3453 3640 3737
2870.0 3756 3720 3601 3492 3495 3597 3785 4101 4492 4936
2910.0 5487 6057 6689 7416 8120 8872 9506 9897 10000 9681
2950.0 9036 8254 7445 6819 6316 5886 5562 5262 4926 4531
2990.0 4136 3785 3605 3563 3585 3455 3178 2844 2390 1935
3030.0 1577 1296 1183 1126 1071 1133 1224 1329 1481 1647
3070.0 1885 2181 2608 3025 3106 2972 2591 1939 1374 997
3110.0 757 615 473 409 418 377 304 298 280 266
3150.0 281 279 243 173 185 209 168 187 219 230
3190.0 197 139 149 193 185 122 85 122 127 130
3230.0 140 157 196 182 208 212 122 85 156 164
3270.0 153 166 159 158 169 174 116 84 156 139
3310.0 114 152 157 171 141 82 119 169 132 108
3350.0 114 105 89 115 175 179 145 118 128 109
3390.0 66 117 129 111 117 109 174 192 108 108
3430.0 67 62 156 169 160 131 129 123 110 140
3470.0 149 144 165 180 169 141 94 106 193 235
3510.0 268 256 201 139 103 155 187 166 185 190
3550.0 128 163 210 197 178 158 201 190 144 181
3590.0 167 135 222 235 199 237 238 216 169 166
3630.0 202 199 167 189 211 174 189 208 210 188
3670.0 189 202 182 178 181 183 202 166 204 250
3710.0 203 182 215 251 255 202 214 252 180 222
3750.0 220 196 238 240 230 210 207 265 272 207
3790.0 191 197 199 193 209 230 254 217 175 186
3830.0 201 242 241 239 231
##END=
