##TITLE=8-Bromo-1-octene
##JCAMP-DX=4.24
##DATA TYPE=INFRARED SPECTRUM
##ORIGIN=NIST Mass Spectrometry Data Center
##OWNER=NIST Standard Reference Data Program
Collection (C) 2018 copyright by the U.S. Secretary of Commerce
on behalf of the United States of America. All rights reserved.
##CAS REGISTRY NO=2695-48-9
##MOLFORM=C 8 H 15 Br
##$NIST SOURCE=MSDC-IR
##SPECTROMETER/DATA SYSTEM=HP-GC/MS/IRD
##STATE=gas
##XUNITS=1/CM
##YUNITS=ABSORBANCE
##XFACTOR=1.0
##YFACTOR=0.000002900
##DELTAX=4.0
##FIRSTX=550.0
##LASTX=3846.0
##FIRSTY=0.001314
##MAXX=3846
##MINX=550
##MAXY=0.029
##MINY=0
##NPOINTS=825
##XYDATA=(X++(Y..Y))
550.0 453 386 382 499 570 587 530 411 304 217
590.0 151 107 96 111 128 164 212 269 319 395
630.0 461 482 555 661 733 765 727 560 379 264
670.0 188 132 61 32 29 33 59 67 75 109
710.0 150 190 237 276 312 329 286 241 220 184
750.0 170 174 145 121 117 88 65 60 57 56
790.0 55 58 72 89 100 115 104 93 95 94
830.0 91 113 129 134 166 175 189 211 226 259
870.0 288 323 364 403 464 556 677 883 1183 1585
910.0 2020 2274 2170 1796 1380 1059 841 693 580 519
950.0 482 455 444 436 446 467 517 596 701 828
990.0 939 974 895 752 613 519 453 399 353 320
1030.0 286 258 230 199 175 157 143 131 122 116
1070.0 96 84 96 83 66 55 41 40 49 48
1110.0 38 40 42 33 35 43 49 49 46 47
1150.0 62 70 72 80 89 110 128 145 160 182
1190.0 224 279 337 410 507 624 781 932 1041 1082
1230.0 1076 1067 1064 1071 1098 1177 1283 1375 1413 1358
1270.0 1238 1097 978 901 856 818 773 723 653 565
1310.0 491 428 378 352 330 327 334 354 401 441
1350.0 451 436 404 356 307 266 221 183 164 149
1390.0 145 154 163 185 223 271 331 393 465 562
1430.0 692 878 1094 1264 1338 1320 1252 1164 1057 893
1470.0 710 532 390 288 202 144 109 87 69 51
1510.0 41 41 38 35 37 37 42 46 39 37
1550.0 32 22 23 26 21 12 15 24 28 37
1590.0 41 52 69 87 112 146 190 235 301 406
1630.0 545 716 868 906 783 567 371 244 165 115
1670.0 88 67 48 39 35 30 29 24 17 5
1710.0 6 6 6 3 0 1 5 4 1 0
1750.0 0 0 6 9 5 3 2 5 6 9
1790.0 19 26 31 39 50 59 83 119 158 195
1830.0 212 209 187 153 121 91 65 53 44 29
1870.0 23 23 19 18 21 14 13 16 11 14
1910.0 11 10 9 10 14 11 13 22 16 14
1950.0 16 13 23 32 32 30 35 37 31 28
1990.0 26 23 23 25 26 26 21 24 24 28
2030.0 31 32 33 33 32 33 38 39 37 32
2070.0 32 31 29 30 28 31 33 36 34 28
2110.0 30 31 29 33 29 29 35 36 32 32
2150.0 36 34 37 40 40 37 36 37 36 37
2190.0 41 42 39 35 36 39 37 29 29 35
2230.0 37 41 46 41 36 37 38 40 40 42
2270.0 44 43 41 41 38 37 41 39 35 33
2310.0 33 39 38 34 31 27 27 27 32 36
2350.0 33 32 26 22 22 27 31 34 36 39
2390.0 43 40 33 37 46 43 40 43 39 37
2430.0 38 38 39 35 34 40 39 34 37 36
2470.0 33 27 33 42 41 38 37 37 36 34
2510.0 37 41 47 50 50 46 45 46 40 42
2550.0 44 47 43 36 31 29 39 42 46 52
2590.0 56 56 53 53 54 56 65 68 62 69
2630.0 76 82 87 84 87 92 99 107 105 114
2670.0 124 130 139 139 138 136 128 124 127 125
2710.0 119 111 109 105 101 101 99 100 109 114
2750.0 117 123 132 140 147 156 166 177 183 194
2790.0 208 224 247 282 316 356 395 440 512 607
2830.0 727 884 1110 1399 1753 2177 2640 3089 3439 3593
2870.0 3512 3246 2922 2644 2490 2459 2565 2772 3070 3464
2910.0 3969 4630 5477 6522 7714 8893 9761 10000 9462 8299
2950.0 6877 5537 4490 3797 3397 3136 2903 2658 2382 2141
2990.0 1912 1748 1671 1658 1694 1688 1580 1359 1105 879
3030.0 725 638 590 557 542 541 558 599 667 746
3070.0 848 990 1180 1392 1477 1368 1085 768 547 407
3110.0 328 275 232 195 173 168 156 134 125 126
3150.0 113 96 99 95 79 83 79 74 78 72
3190.0 57 58 73 68 58 60 58 55 42 43
3230.0 48 52 59 58 62 55 41 42 44 48
3270.0 54 50 48 50 55 57 51 40 51 52
3310.0 53 43 28 37 39 42 55 60 47 47
3350.0 50 46 44 50 54 49 51 47 49 61
3390.0 55 45 53 60 55 68 67 56 53 51
3430.0 58 55 44 47 44 30 30 39 46 55
3470.0 59 60 64 55 54 72 69 56 59 65
3510.0 72 68 63 61 59 64 72 71 72 71
3550.0 68 77 70 69 75 79 83 86 88 82
3590.0 78 84 88 83 77 71 82 89 90 88
3630.0 72 69 77 79 72 72 85 82 73 85
3670.0 88 75 75 86 91 84 72 70 79 84
3710.0 81 71 74 90 97 99 93 85 80 77
3750.0 90 87 80 79 87 96 88 83 78 79
3790.0 87 94 101 88 76 85 96 95 94 88
3830.0 76 91 98 104 109
##END=
