##TITLE=N,N-Diisopropylformide
##JCAMP-DX=4.24
##DATA TYPE=INFRARED SPECTRUM
##ORIGIN=EPA-IR VAPOR PHASE LIBRARY
##OWNER=SRD/NIST
Collection (C) 2018 copyright by the U.S. Secretary of Commerce
on behalf of the United States of America. All rights reserved.
##CAS REGISTRY NO=2700-30-3
##MOLFORM=C 7 H 15 N O
##$NIST SOURCE=MSDC-IR
##STATE=gas
##XUNITS=1/CM
##YUNITS=ABSORBANCE
##XFACTOR=1.
##YFACTOR=0.001
##DELTAX=1.92898
##FIRSTX=549.8
##LASTX=4000.7
##FIRSTY=1.512
##MAXX=4000.7
##MINX=549.759
##MAXY=0.111922
##MINY=0
##NPOINTS=1790
##XYDATA=(X++(Y..Y))
549.759 1.512 1.352 1.392 1.372 1.1286 1.2023 1.0878 0.9766 1.0985 0.9023
569.049 0.6661 0.5944 0.6323 0.6286 0.4765 0.4905 0.6662 0.812 0.7331 0.593
588.339 0.756 0.8066 0.7252 0.8454 0.8005 0.7189 0.8825 1.0583 1.2276 1.2465
607.628 1.2851 1.462 1.492 1.582 1.562 1.572 1.712 1.862 1.832 1.522
626.918 1.362 1.352 1.332 1.1549 1.156 1.2384 1.1293 1.122 1.1177 0.9724
646.208 0.9065 0.9801 0.9606 0.8875 0.7084 0.4879 0.39255 0.36122 0.2764 0.41121
665.498 0.4897 0.34972 0.177 0.171 0.31724 0.326569 0.329117 0.2654 0.197 0.2365
684.787 0.2223 0.2524 0.322471 0.34797 0.38657 0.34679 0.2979 0.37562 0.39054 0.40549
704.077 0.4346 0.38284 0.4635 0.4374 0.4591 0.5055 0.522 0.547 0.5888 0.8307
723.367 0.9003 0.9965 0.9817 1.0306 1.3009 1.2257 1.0877 1.0001 0.8456 0.7722
742.657 0.7292 0.7143 0.7663 0.727 0.7763 0.9011 0.9211 1.0499 1.2747 1.522
761.947 1.692 1.812 1.962 2.162 2.352 2.422 2.592 2.652 2.582 2.532
781.236 2.352 2.222 2.112 1.952 1.752 1.492 1.2227 0.9963 0.8495 0.6471
800.526 0.5029 0.6083 0.6657 0.5865 0.5746 0.41175 0.2241 0.2961 0.4658 0.41494
819.816 0.2934 0.36454 0.36503 0.36391 0.41195 0.452 0.41779 0.37279 0.2781 0.2949
839.106 0.4758 0.5337 0.595 0.64 0.6661 0.653 0.5934 0.6294 0.7161 0.7165
858.395 0.532 0.4982 0.6753 0.7929 0.8993 0.9192 0.7857 0.8065 0.8734 0.7925
877.685 0.7046 0.6914 0.6378 0.5594 0.6026 0.7373 0.7688 0.6541 0.6492 0.5832
896.975 0.5638 0.7693 0.7545 0.6764 0.847 0.8451 0.835 0.9394 0.8933 0.727
916.265 0.705 0.6905 0.6079 0.5428 0.4688 0.5062 0.5911 0.6121 0.5262 0.4276
935.555 0.469 0.5579 0.5775 0.5424 0.5267 0.5453 0.5392 0.4943 0.4787 0.589
954.844 0.6535 0.5657 0.5741 0.6315 0.5795 0.5183 0.4301 0.4878 0.6492 0.5397
974.134 0.5039 0.4771 0.306 0.39958 0.6807 0.7697 0.5961 0.4762 0.598 0.6493
993.424 0.5468 0.5821 0.6466 0.6236 0.5504 0.4935 0.6638 0.9085 0.909 0.969
1012.714 1.0206 1.1306 1.342 1.402 1.442 1.522 1.642 1.872 2.112 2.242
1032.003 2.402 2.452 2.422 2.262 2.252 2.292 2.242 2.202 2.132 2.142
1051.293 2.102 2.202 1.992 1.682 1.902 1.952 2.062 2.272 2.152 2.122
1070.583 2.242 2.322 2.282 2.402 2.682 2.852 3.182 3.742 4.442 5.232
1089.873 5.772 6.332 7.212 8.002 8.412 8.792 9.372 9.642 9.732 9.732
1109.163 9.822 9.972 9.562 9.092 9.232 9.252 9.102 8.782 8.612 8.892
1128.452 9.062 8.892 8.702 8.532 8.182 7.962 7.872 8.122 8.122 7.832
1147.742 7.912 8.002 8.112 8.022 7.912 8.212 8.182 7.892 7.672 7.362
1167.032 6.932 6.522 6.352 6.202 5.992 5.852 5.792 5.842 6.242 6.672
1186.322 7.192 7.972 8.942 10.262 11.852 13.272 14.452 15.262 16.272 17.242
1205.611 17.362 17.412 17.432 16.632 15.132 13.742 12.622 11.332 9.722 8.222
1224.901 7.032 6.072 5.422 5.042 4.852 4.772 4.852 5.062 5.392 6.022
1244.191 6.692 7.292 8.132 9.332 10.612 11.952 13.222 14.332 15.512 16.612
1263.481 17.622 18.402 18.812 19.112 19.472 19.812 20.102 20.432 20.672 20.932
1282.771 21.212 21.452 21.462 21.222 20.912 20.302 19.302 18.072 16.642 15.112
1302.060 13.602 12.102 10.562 9.142 7.912 6.882 6.152 5.502 4.912 4.502
1321.350 4.102 3.782 3.642 3.512 3.342 3.272 3.322 3.382 3.452 3.672
1340.640 3.962 4.282 4.712 5.212 5.772 6.352 7.042 7.792 8.592 9.412
1359.930 10.142 10.762 11.282 11.752 12.282 12.942 13.882 14.552 14.002 12.912
1379.219 12.252 11.962 11.762 11.352 10.692 9.932 9.322 9.022 8.892 8.792
1398.509 8.742 8.932 9.382 10.052 10.882 11.712 12.552 13.322 14.052 14.822
1417.799 15.542 16.142 16.272 16.082 15.902 15.732 15.392 14.782 13.932 13.032
1437.089 12.092 11.192 10.352 9.642 9.002 8.372 7.892 7.572 7.362 7.192
1456.378 6.992 6.922 6.952 6.932 6.792 6.662 6.542 6.322 6.032 5.702
1475.668 5.392 5.002 4.592 4.212 3.832 3.412 3.082 2.732 2.432 2.172
1494.958 1.942 1.842 1.702 1.522 1.442 1.402 1.2696 1.2199 1.1966 1.1286
1514.248 1.1048 1.1068 1.1494 1.1416 1.1082 1.0944 1.021 1.0234 1.0663 1.0293
1533.538 1.0253 1.0311 0.9794 0.9629 0.9891 1.031 1.0283 1.0007 1.0144 0.9656
1552.827 0.9031 0.8813 0.8449 0.8634 0.9415 0.9467 0.8804 0.8853 0.956 0.9075
1572.117 0.8395 0.8362 0.8541 0.8583 0.8581 0.861 0.8184 0.8403 0.9055 0.8386
1591.407 0.8346 0.8718 0.8636 0.8906 0.9414 0.9464 0.9894 0.9967 0.9942 1.0826
1610.697 1.143 1.2045 1.2782 1.352 1.412 1.452 1.512 1.552 1.692 1.862
1629.986 1.982 2.092 2.232 2.412 2.612 2.822 3.042 3.252 3.542 3.802
1649.276 4.092 4.372 4.742 5.142 5.532 6.002 6.622 7.352 8.242 9.432
1668.566 11.062 13.142 15.942 19.672 24.762 30.752 38.112 46.282 55.342 65.112
1687.856 74.692 85.062 95.912 105.322 111.052 111.922 109.792 108.832 108.242 100.422
1707.146 85.742 73.402 63.802 53.202 41.292 29.862 20.362 13.902 9.832 7.352
1726.435 5.782 4.702 4.062 3.572 3.122 2.822 2.642 2.422 2.292 2.162
1745.725 2.022 1.922 1.852 1.732 1.652 1.622 1.592 1.542 1.452 1.392
1765.015 1.362 1.2923 1.2099 1.1412 1.0951 1.0939 1.1146 1.0625 0.9904 1.0097
1784.305 1.0168 0.9581 0.962 1.0043 0.9863 0.9709 0.9917 0.9867 1.0468 1.0768
1803.594 1.0354 1.0226 1.0484 1.0723 1.0518 1.031 1.049 1.0285 0.9747 0.9732
1822.884 0.9339 0.8945 0.8886 0.8636 0.8506 0.8287 0.8012 0.8176 0.774 0.7195
1842.174 0.7513 0.7124 0.6855 0.6986 0.6871 0.6682 0.6321 0.6077 0.6362 0.6542
1861.464 0.636 0.6475 0.6791 0.6148 0.5776 0.6103 0.6135 0.5713 0.5554 0.6165
1880.754 0.6082 0.5877 0.6545 0.67 0.6123 0.6073 0.6143 0.6662 0.7014 0.7179
1900.043 0.7562 0.6974 0.6609 0.6845 0.7082 0.7044 0.6987 0.6753 0.6464 0.6578
1919.333 0.6606 0.6597 0.6801 0.6807 0.6373 0.6306 0.6277 0.6151 0.6237 0.6383
1938.623 0.628 0.5885 0.6031 0.5827 0.5651 0.5806 0.5408 0.4741 0.4677 0.4804
1957.913 0.5159 0.539 0.4948 0.486 0.4337 0.40432 0.4369 0.4384 0.4641 0.465
1977.202 0.4515 0.4589 0.4568 0.4485 0.454 0.4922 0.5092 0.4706 0.4934 0.5094
1996.492 0.5075 0.5179 0.4909 0.4999 0.4877 0.4401 0.4395 0.4719 0.4917 0.473
2015.782 0.4345 0.4662 0.4962 0.41982 0.4173 0.4865 0.4812 0.4259 0.402 0.4225
2035.072 0.4487 0.40038 0.37538 0.434 0.5008 0.4384 0.38092 0.4439 0.4469 0.4534
2054.362 0.4554 0.4558 0.4933 0.4707 0.39093 0.36221 0.36031 0.37299 0.38701 0.41375
2073.651 0.4266 0.39684 0.3658 0.35823 0.37318 0.39474 0.37663 0.31221 0.32049 0.328572
2092.941 0.36906 0.40436 0.37328 0.39036 0.39 0.37147 0.33738 0.32576 0.33571 0.33535
2112.231 0.33467 0.3094 0.330496 0.2993 0.2885 0.34854 0.3704 0.3676 0.33533 0.31451
2131.521 0.3052 0.3548 0.39525 0.3576 0.33282 0.34435 0.37035 0.38181 0.37145 0.35143
2150.810 0.34966 0.36586 0.330999 0.37385 0.4425 0.41294 0.38988 0.36583 0.36845 0.36776
2170.100 0.33383 0.34964 0.3943 0.42019 0.40258 0.412 0.41924 0.4352 0.441 0.37094
2189.390 0.36322 0.4313 0.446 0.4455 0.4577 0.4221 0.41725 0.4523 0.4912 0.532
2208.680 0.5181 0.4357 0.4654 0.505 0.4802 0.4828 0.5022 0.5434 0.4833 0.4914
2227.970 0.5253 0.4867 0.5188 0.5041 0.4705 0.4972 0.5015 0.4675 0.41587 0.4421
2247.259 0.5176 0.5155 0.5251 0.5244 0.483 0.449 0.439 0.4576 0.4666 0.446
2266.549 0.4545 0.4463 0.41284 0.41206 0.437 0.4656 0.4449 0.4406 0.4323 0.4363
2285.839 0.4617 0.4739 0.508 0.4886 0.4469 0.4531 0.4523 0.4438 0.4579 0.4449
2305.129 0.4271 0.4407 0.4926 0.5235 0.4969 0.5027 0.5185 0.4502 0.41248 0.5245
2324.418 0.5218 0.4586 0.4914 0.5006 0.4643 0.41754 0.41714 0.4334 0.42113 0.39787
2343.708 0.39128 0.40996 0.41668 0.40679 0.427 0.433 0.426 0.3881 0.37065 0.41084
2362.998 0.4276 0.40197 0.38675 0.37836 0.37221 0.4575 0.4854 0.4667 0.5275 0.5688
2382.288 0.5441 0.4966 0.5378 0.5757 0.5669 0.5407 0.5185 0.5102 0.5469 0.5873
2401.578 0.5557 0.542 0.5327 0.5209 0.5086 0.4535 0.40312 0.42144 0.4499 0.4351
2420.867 0.41785 0.4624 0.4958 0.4644 0.4382 0.4934 0.5188 0.4785 0.4624 0.4237
2440.157 0.40131 0.38922 0.4437 0.4785 0.4626 0.4538 0.4221 0.4255 0.39252 0.3559
2459.447 0.40139 0.41337 0.39271 0.39784 0.43 0.39628 0.40205 0.4279 0.38945 0.4229
2478.737 0.4279 0.4506 0.492 0.5229 0.5195 0.5072 0.5107 0.5018 0.5528 0.536
2498.026 0.5068 0.548 0.5611 0.5706 0.516 0.5445 0.6149 0.5757 0.5447 0.5388
2517.316 0.5531 0.59 0.5954 0.5449 0.5142 0.5454 0.5871 0.5364 0.485 0.4813
2536.606 0.4619 0.5016 0.5769 0.521 0.40281 0.41506 0.4863 0.5209 0.543 0.54
2555.896 0.5177 0.4965 0.4913 0.4915 0.5614 0.6105 0.5715 0.5692 0.5922 0.5539
2575.186 0.526 0.5711 0.5437 0.5309 0.5538 0.5402 0.553 0.544 0.5361 0.5159
2594.475 0.5272 0.5782 0.582 0.5785 0.6168 0.6172 0.6137 0.6336 0.6482 0.6911
2613.765 0.6979 0.6859 0.6616 0.6327 0.5936 0.6236 0.6112 0.55 0.5545 0.6316
2633.055 0.6751 0.636 0.636 0.6307 0.604 0.6222 0.7004 0.6762 0.6553 0.6323
2652.345 0.6152 0.6807 0.6704 0.6673 0.6195 0.6031 0.6525 0.563 0.4934 0.6082
2671.634 0.6691 0.6334 0.6406 0.6313 0.6844 0.7694 0.736 0.7064 0.7516 0.7613
2690.924 0.7877 0.8439 0.9036 0.9428 1.0017 1.1067 1.0975 1.0837 1.0893 1.1361
2710.214 1.1841 1.2439 1.352 1.322 1.3039 1.442 1.622 1.742 1.872 2.052
2729.504 2.252 2.412 2.672 2.982 3.292 3.632 3.842 4.042 4.252 4.362
2748.794 4.482 4.592 4.562 4.422 4.272 4.122 4.032 3.862 3.712 3.682
2768.083 3.612 3.552 3.492 3.462 3.462 3.492 3.712 3.952 4.092 4.232
2787.373 4.422 4.672 5.012 5.362 5.602 5.742 5.802 5.822 5.822 5.802
2806.663 5.662 5.452 5.282 5.032 4.692 4.382 4.212 4.082 3.892 3.832
2825.953 3.742 3.732 3.742 3.792 3.862 3.892 4.082 4.332 4.542 4.782
2845.242 5.172 5.612 6.042 6.612 7.122 7.442 7.742 8.192 8.682 9.072
2864.532 9.452 9.822 10.102 10.422 10.782 11.032 11.262 11.512 11.742 11.872
2883.822 11.982 12.002 11.902 11.802 11.612 11.412 11.182 10.942 10.682 10.382
2903.112 10.132 9.992 9.892 9.872 9.802 9.852 10.052 10.312 10.712 11.132
2922.401 11.762 12.442 13.142 13.942 14.782 15.522 16.202 16.862 17.502 17.942
2941.691 18.122 18.142 17.892 17.492 17.192 16.962 16.812 16.982 17.422 18.332
2960.981 19.862 22.002 24.632 27.552 30.512 33.372 36.162 38.732 40.512 41.062
2980.271 40.792 39.772 38.002 35.512 32.202 28.412 24.592 21.082 18.002 15.302
2999.561 13.062 11.352 9.912 8.762 7.772 6.862 6.102 5.382 4.842 4.392
3018.850 3.872 3.362 3.002 2.792 2.482 2.232 2.182 2.032 1.892 1.892
3038.140 1.882 1.772 1.682 1.672 1.632 1.582 1.552 1.562 1.542 1.522
3057.430 1.582 1.502 1.422 1.442 1.392 1.296 1.3113 1.402 1.422 1.362
3076.720 1.2771 1.2533 1.2996 1.362 1.352 1.332 1.2884 1.2486 1.276 1.3176
3096.009 1.412 1.432 1.2958 1.3089 1.402 1.332 1.3107 1.352 1.362 1.342
3115.299 1.2973 1.288 1.2695 1.288 1.2812 1.1851 1.1766 1.2324 1.2123 1.1386
3134.589 1.2121 1.2176 1.0892 1.0896 1.0235 0.9888 0.9918 0.9741 1.0206 0.9914
3153.879 0.9497 0.995 1.0148 0.9322 0.8717 0.9989 1.0814 1.0469 1.1147 1.0765
3173.169 0.8916 0.8293 0.838 0.8581 0.939 0.926 0.9227 0.9513 0.903 0.8974
3192.458 0.9338 0.9162 0.8894 0.9057 0.9116 0.845 0.893 0.8987 0.8126 0.7707
3211.748 0.7382 0.6599 0.6135 0.6431 0.6292 0.6457 0.6077 0.6293 0.7285 0.7294
3231.038 0.6257 0.6037 0.6209 0.5434 0.5091 0.5132 0.4392 0.4309 0.5291 0.5635
3250.328 0.501 0.5208 0.4396 0.36252 0.4758 0.5127 0.5307 0.5016 0.4809 0.4907
3269.617 0.4556 0.4931 0.527 0.4561 0.437 0.5075 0.4712 0.37899 0.40692 0.5152
3288.907 0.5132 0.4495 0.4362 0.39127 0.38466 0.4645 0.4897 0.4613 0.40733 0.4279
3308.197 0.4334 0.322671 0.4395 0.5213 0.514 0.6341 0.5374 0.4746 0.5227 0.4599
3327.487 0.4792 0.5401 0.5231 0.5572 0.6707 0.6973 0.5888 0.5492 0.5001 0.5549
3346.777 0.6369 0.6368 0.6862 0.7255 0.7421 0.6959 0.7822 0.8795 0.9367 1.0435
3366.066 1.219 1.228 1.1159 1.1919 1.2503 1.2054 1.234 1.422 1.502 1.432
3385.356 1.362 1.2386 1.1983 1.173 0.9459 0.8679 0.9449 0.8259 0.7138 0.5972
3404.646 0.5262 0.4918 0.553 0.5462 0.4482 0.4875 0.5482 0.6384 0.6064 0.4664
3423.936 0.471 0.5191 0.5209 0.4472 0.3037 0.31658 0.38199 0.31638 0.2761 0.39568
3443.225 0.42167 0.40381 0.323216 0.2491 0.2939 0.3588 0.36483 0.2634 0.218 0.2561
3462.515 0.2647 0.34157 0.4677 0.4579 0.31969 0.2621 0.33696 0.2394 0.2409 0.41075
3481.805 0.36797 0.31225 0.35177 0.38187 0.37192 0.36991 0.39835 0.4223 0.4244 0.4649
3501.095 0.441 0.3065 0.222 0.162 0.208 0.31865 0.37067 0.35671 0.36514 0.37803
3520.385 0.37131 0.41917 0.5038 0.445 0.37779 0.3002 0.155 0.2386 0.3115 0.229
3539.674 0.173 0.2238 0.2773 0.2893 0.327419 0.2847 0.2229 0.3057 0.2868 0.178
3558.964 0.198 0.2322 0.3068 0.36322 0.36655 0.31438 0.155 0.187 0.33983 0.33531
3578.254 0.31482 0.2883 0.2413 0.172 0.146 0.205 0.275 0.34674 0.34934 0.4365
3597.544 0.38465 0.2896 0.327039 0.225 0.155 0.184 0.17 0.186 0.330939 0.38003
3616.833 0.329087 0.2981 0.2815 0.2786 0.33393 0.34514 0.2912 0.39395 0.3051 0.177
3636.123 0.3047 0.34447 0.2624 0.3056 0.2999 0.2899 0.2828 0.2417 0.2974 0.330689
3655.413 0.3016 0.212 0.14 0.112 0.111 0.157 0.134 0.087 0.148 0.2601
3674.703 0.21 0.153 0.3382 0.31948 0.2878 0.2834 0.212 0.178 0.194 0.243
3693.993 0.2261 0.2369 0.2593 0.34443 0.36731 0.2923 0.2 0.142 0.214 0.2778
3713.282 0.3012 0.34496 0.35558 0.3064 0.146 0.127 0.164 0 0.028 0.2262
3732.572 0.2985 0.2823 0.3014 0.38686 0.39857 0.2476 0.173 0.199 0.2269 0.2414
3751.862 0.187 0.2909 0.36348 0.221 0.217 0.2427 0.174 0.097 0.177 0.2782
3771.152 0.33242 0.36017 0.35163 0.36508 0.36363 0.38443 0.37117 0.2507 0.183 0.2608
3790.441 0.2589 0.2879 0.37341 0.2743 0.176 0.233 0.2492 0.2718 0.2399 0.37192
3809.731 0.484 0.3375 0.3047 0.34806 0.33417 0.330607 0.331923 0.35835 0.38268 0.3838
3829.021 0.325714 0.2484 0.2777 0.276 0.2576 0.2 0.072 0.078 0.245 0.2947
3848.311 0.214 0.331019 0.33324 0.255 0.34293 0.36447 0.42098 0.5147 0.4439 0.33831
3867.601 0.3038 0.34575 0.37969 0.321119 0.2992 0.3012 0.38098 0.4416 0.4451 0.38004
3886.890 0.188 0.143 0.2317 0.3559 0.38697 0.2972 0.2782 0.41151 0.4257 0.3095
3906.180 0.33835 0.36074 0.3764 0.41563 0.41997 0.34139 0.218 0.204 0.38572 0.554
3925.470 0.36511 0.2435 0.34671 0.3568 0.34945 0.2394 0.136 0.204 0.214 0.2733
3944.760 0.2587 0.141 0.173 0.2572 0.40006 0.38283 0.328422 0.422 0.4596 0.40316
3964.049 0.37987 0.35096 0.294 0.3108 0.3673 0.36991 0.2947 0.34536 0.5352 0.4463
3983.339 0.37918 0.4324 0.322043 0.37138 0.5309 0.4595 0.34001 0.39983 0.38156 0.38067
##END=
