##TITLE=Methyl 3,5-dinitrobenzoate
##JCAMP-DX=4.24
##DATA TYPE=INFRARED SPECTRUM
##ORIGIN=EPA-IR VAPOR PHASE LIBRARY
##OWNER=SRD/NIST
Collection (C) 2018 copyright by the U.S. Secretary of Commerce
on behalf of the United States of America. All rights reserved.
##CAS REGISTRY NO=2702-58-1
##MOLFORM=C 8 H 6 N 2 O 6
##$NIST SOURCE=MSDC-IR
##STATE=gas
##XUNITS=1/CM
##YUNITS=ABSORBANCE
##XFACTOR=1.
##YFACTOR=0.001
##DELTAX=1.92898
##FIRSTX=549.8
##LASTX=4000.7
##FIRSTY=0.63545
##MAXX=4000.7
##MINX=549.759
##MAXY=0.223919
##MINY=0
##NPOINTS=1790
##XYDATA=(X++(Y..Y))
549.759 0.63545 0.59666 0.5492 0.394 0.56706 0.8276 0.58334 0.338 0.055 0.182
569.049 0.4905 0.374 0.331 0.5445 0.6069 0.238 0 0.148 0.345 0.456
588.339 0.421 0.273 0.384 0.60018 0.64586 0.351 0.342 0.60292 0.61763 0.337
607.628 0.362 0.66353 0.5308 0.424 0.41 0.59103 0.65153 0.5494 0.448 0.427
626.918 0.66393 0.7821 0.7305 0.55921 0.572578 0.7353 0.8006 0.9896 1.1675 1.268
646.208 1.3169 1.3309 1.4561 1.789 2.019 2.149 2.269 2.319 2.499 2.339
665.498 2.349 2.449 2.099 1.909 2.089 2.219 2.069 2.099 2.379 2.439
684.787 2.499 2.639 2.749 2.859 2.909 3.229 3.559 3.929 4.589 5.399
704.077 6.579 8.419 10.869 14.429 19.789 27.239 37.109 48.519 61.189 73.569
723.367 80.829 82.779 80.479 73.489 64.639 54.709 42.969 31.309 22.049 15.839
742.657 11.659 8.669 6.589 5.329 4.619 4.059 3.629 3.479 3.489 3.569
761.947 3.789 4.209 4.679 5.199 5.729 6.349 7.069 7.009 6.079 5.079
781.236 4.269 3.629 2.889 2.299 2.029 1.829 1.719 1.749 1.759 1.719
800.526 1.739 2.079 2.699 3.389 4.369 5.579 6.499 6.839 6.799 6.589
819.816 6.079 4.859 3.429 2.419 1.949 1.799 1.799 1.809 1.719 1.729
839.106 1.859 1.879 1.919 2.039 2.209 2.499 2.609 2.509 2.529 2.509
858.395 2.459 2.429 2.449 2.459 2.389 2.469 2.679 2.959 3.319 4.069
877.685 5.029 5.859 6.449 6.879 6.959 6.699 6.329 5.739 5.009 4.549
896.975 4.579 4.689 5.129 5.899 7.009 8.589 10.569 12.769 14.869 16.639
916.265 17.799 18.469 18.739 18.269 16.919 14.929 12.809 10.849 8.909 7.269
935.555 5.939 4.719 3.879 3.289 2.929 2.749 2.619 2.659 2.789 2.819
954.844 2.729 2.659 2.859 3.239 3.559 3.899 4.409 5.099 5.929 6.789
974.134 7.899 9.769 11.929 14.109 16.599 18.859 20.589 22.029 22.529 21.649
993.424 19.789 17.139 14.059 11.149 8.709 6.659 5.339 4.679 3.969 3.299
1012.714 2.909 2.709 2.549 2.579 2.449 2.259 2.409 2.359 2.099 2.229
1032.003 2.449 2.279 2.169 2.259 2.509 2.539 2.619 2.829 3.169 3.549
1051.293 3.799 4.239 4.959 5.669 6.639 8.149 10.029 12.599 15.489 18.159
1070.583 20.209 21.729 22.689 22.619 21.279 19.649 18.159 16.399 14.779 13.569
1089.873 12.689 11.859 11.299 10.469 9.739 9.539 8.889 7.999 7.249 6.829
1109.163 6.649 6.489 6.259 6.189 6.579 6.899 7.039 7.439 7.799 8.119
1128.452 8.719 9.479 10.349 11.399 12.509 14.109 15.909 18.069 21.549 26.359
1147.742 32.399 39.929 49.439 59.819 69.689 77.559 82.259 83.009 79.499 72.109
1167.032 62.169 51.739 42.229 34.739 29.039 25.099 22.629 20.949 20.139 19.809
1186.322 19.939 20.409 20.819 20.979 20.829 20.649 20.179 19.189 17.669 15.759
1205.611 14.429 13.159 11.629 10.589 9.909 9.469 9.139 8.859 8.639 8.769
1224.901 9.279 9.769 10.529 11.359 12.149 13.069 14.059 15.109 16.189 17.669
1244.191 19.099 20.539 22.409 24.679 27.389 30.609 34.699 39.799 46.299 55.179
1263.481 66.929 82.059 101.529 125.379 152.249 179.549 203.199 219.119 223.919 216.019
1282.771 195.719 165.859 131.679 99.389 73.549 55.549 44.149 37.229 33.229 30.949
1302.060 29.569 28.959 29.069 29.529 30.129 30.799 31.189 31.159 30.719 30.009
1321.350 29.319 29.039 29.799 32.159 36.739 43.989 54.379 68.249 85.269 103.999
1340.640 121.569 134.329 140.189 139.409 132.039 117.379 97.559 77.599 61.219 48.949
1359.930 39.939 33.229 27.929 23.619 20.159 17.379 15.159 13.459 12.159 11.169
1379.219 10.439 9.889 9.429 9.019 8.629 8.319 8.029 7.709 7.479 7.349
1398.509 7.249 7.339 7.619 8.009 8.529 9.039 9.459 9.729 9.759 9.619
1417.799 9.339 9.009 8.699 8.519 8.639 9.069 9.879 11.059 12.789 14.859
1437.089 16.799 18.339 19.379 19.799 19.569 18.899 18.369 18.629 19.749 21.279
1456.378 22.799 23.959 24.189 23.239 21.389 18.879 16.039 13.319 11.249 9.989
1475.668 9.309 8.979 8.849 8.839 8.919 8.999 9.109 9.259 9.559 10.029
1494.958 10.609 11.329 12.239 13.319 14.619 16.169 18.079 20.269 22.469 24.539
1514.248 26.109 26.679 25.959 24.299 22.349 20.589 18.999 17.829 17.279 17.439
1533.538 18.379 20.189 23.019 27.409 33.779 42.689 55.299 72.639 95.289 123.499
1552.827 153.479 180.359 197.019 200.289 190.569 169.429 138.179 103.289 72.979 51.249
1572.117 38.029 30.529 26.299 23.959 22.849 22.559 22.899 23.689 24.779 26.229
1591.407 27.899 29.569 30.989 31.909 31.839 30.499 27.949 24.509 21.079 18.239
1610.697 16.159 14.939 14.659 15.359 16.829 18.909 21.269 23.499 25.029 25.399
1629.986 24.609 22.689 19.869 16.599 13.509 10.969 9.149 8.009 7.219 6.589
1649.276 6.039 5.619 5.309 5.039 4.789 4.559 4.409 4.359 4.279 4.189
1668.566 4.189 4.159 3.959 3.739 3.639 3.529 3.419 3.359 3.339 3.319
1687.856 3.349 3.479 3.609 3.719 3.899 4.159 4.549 4.969 5.429 6.129
1707.146 6.929 7.809 8.719 9.539 10.259 10.879 11.109 10.779 10.209 9.759
1726.435 9.399 9.239 9.399 9.919 10.929 12.539 15.019 19.159 25.689 35.909
1745.725 50.759 70.309 92.129 111.539 123.409 127.109 124.589 113.819 93.229 68.839
1765.015 48.329 34.109 25.159 19.649 16.029 13.469 11.659 10.449 9.679 9.279
1784.305 9.289 9.619 10.199 10.829 11.209 11.159 10.619 9.669 8.449 7.289
1803.594 6.199 5.189 4.439 3.859 3.449 3.189 2.969 2.829 2.769 2.719
1822.884 2.669 2.639 2.639 2.699 2.819 2.919 2.979 3.079 3.209 3.249
1842.174 3.279 3.379 3.449 3.529 3.669 3.729 3.789 3.769 3.679 3.659
1861.464 3.669 3.529 3.319 3.199 3.059 2.889 2.769 2.669 2.579 2.429
1880.754 2.259 2.129 2.039 1.899 1.749 1.609 1.4957 1.366 1.2991 1.2889
1900.043 1.2737 1.2562 1.1828 1.1507 1.118 1.1033 1.0858 1.0672 1.0192 0.969
1919.333 0.9977 0.9987 0.983 0.9979 0.9926 0.9271 0.9268 0.9778 0.9984 1.0207
1938.623 1.0398 1.0768 1.1031 1.0901 1.0984 1.1324 1.1488 1.1623 1.2194 1.33
1957.913 1.3633 1.3355 1.4123 1.4265 1.4242 1.4913 1.5076 1.569 1.629 1.619
1977.202 1.5448 1.436 1.3651 1.3358 1.3007 1.2012 1.1152 1.0886 1.1142 1.1196
1996.492 1.0839 1.0348 0.9751 0.9611 0.9626 0.9582 1.0291 1.0121 0.9565 0.9576
2015.782 0.9507 0.9364 0.9402 0.9606 0.9342 0.941 0.9645 0.966 0.9765 0.9998
2035.072 1.0708 1.1079 1.0943 1.1599 1.1603 1.1211 1.1204 1.1497 1.1811 1.0949
2054.362 1.0564 1.0661 1.0785 1.1234 1.1846 1.1736 1.1518 1.1869 1.1857 1.2095
2073.651 1.258 1.2988 1.3205 1.3239 1.3488 1.4165 1.4716 1.4819 1.4632 1.4186
2092.941 1.3853 1.3493 1.3124 1.2642 1.1818 1.1228 1.0747 1.0284 1.038 0.9862
2112.231 0.9558 0.9488 0.8892 0.8824 0.8969 0.9098 0.9216 0.9233 0.9307 0.9454
2131.521 0.9776 1.051 1.0369 1.0004 1.0477 1.0839 1.1109 1.2131 1.2412 1.2266
2150.810 1.2765 1.3346 1.3564 1.4049 1.454 1.4742 1.4659 1.3995 1.3839 1.2786
2170.100 1.1796 1.1379 1.0529 0.994 0.9463 0.8929 0.8389 0.847 0.8574 0.8316
2189.390 0.7721 0.7441 0.7491 0.7316 0.7713 0.7644 0.7505 0.7362 0.6947 0.7577
2208.680 0.8113 0.7376 0.61744 0.59593 0.65776 0.64735 0.62643 0.66192 0.6563 0.63242
2227.970 0.63157 0.64548 0.6832 0.65989 0.62858 0.6866 0.7046 0.6739 0.6779 0.674
2247.259 0.705 0.7484 0.7494 0.7223 0.7345 0.751 0.7027 0.6694 0.65927 0.725
2266.549 0.7838 0.7086 0.6922 0.7625 0.761 0.7503 0.7398 0.7912 0.7959 0.6996
2285.839 0.6715 0.6819 0.65262 0.6821 0.7664 0.7888 0.7838 0.7206 0.7061 0.7882
2305.129 0.7848 0.7485 0.8469 0.9169 0.8816 0.87 0.9281 0.9982 1.0197 1.0573
2324.418 0.996 0.9126 0.9426 0.9533 0.9104 0.8996 0.9003 0.8858 0.9124 0.9595
2343.708 0.9822 0.9703 0.9768 0.9355 0.8629 0.8695 0.8398 0.8103 0.8686 0.9022
2362.998 0.9243 0.9733 0.9526 0.9345 0.9331 0.9197 0.9785 0.9792 0.864 0.7438
2382.288 0.7576 0.8199 0.7721 0.797 0.7904 0.7474 0.8168 0.7974 0.773 0.767
2401.578 0.7044 0.681 0.7529 0.7654 0.7309 0.7603 0.8059 0.8327 0.8692 0.8973
2420.867 0.8649 0.8946 0.914 0.9104 0.9711 1.0797 1.0149 0.9877 1.0704 1.0244
2440.157 1.0476 1.0891 1.0562 0.9903 0.929 0.9307 0.9615 0.9454 0.9458 0.9304
2459.447 0.926 0.9382 0.9176 0.9704 1.0301 1.0887 1.1334 1.0894 1.0936 1.1376
2478.737 1.0625 0.983 0.8866 0.8583 0.9003 0.7967 0.7666 0.8524 0.8433 0.7886
2498.026 0.818 0.8308 0.7953 0.7934 0.8386 0.8407 0.8488 0.9245 0.9611 0.8688
2517.316 0.8448 0.9324 0.8801 0.8495 0.8296 0.818 0.8067 0.7802 0.8028 0.7695
2536.606 0.8149 0.8001 0.7188 0.7374 0.7613 0.8807 0.8742 0.8005 0.8148 0.8009
2555.896 0.8467 0.828 0.7836 0.7832 0.8279 0.8229 0.7753 0.8671 0.8846 0.8612
2575.186 0.9086 0.9026 0.859 0.8554 0.8722 0.8711 0.8964 0.8723 0.8702 0.9644
2594.475 0.9886 0.9734 0.9361 0.9175 0.9103 0.9493 1.0033 1.0121 1.0895 1.1274
2613.765 1.094 1.065 1.0965 1.1161 1.0473 1.059 1.1278 1.1136 1.0457 0.9577
2633.055 0.9793 1.072 1.1024 1.0622 1.0896 1.0146 0.8856 0.9698 1.0073 0.9567
2652.345 0.9851 1.0435 1.0053 0.9273 0.8952 0.9455 1.0342 1.1314 1.159 1.1716
2671.634 1.2502 1.3232 1.4361 1.5068 1.579 1.629 1.649 1.749 1.769 1.709
2690.924 1.639 1.599 1.639 1.609 1.599 1.569 1.4786 1.48 1.4636 1.3674
2710.214 1.3192 1.2899 1.1737 1.1 1.1367 1.1515 1.1866 1.1165 0.9927 1.0387
2729.504 1.0895 1.1019 1.0826 1.0928 1.0964 1.065 1.0537 1.0688 1.1469 1.1272
2748.794 1.1528 1.2822 1.3186 1.24 1.2398 1.1706 1.0947 1.098 1.1189 1.1511
2768.083 1.0437 1.0789 1.2173 1.2287 1.2143 1.224 1.1974 1.1356 1.1529 1.1739
2787.373 1.213 1.2378 1.1332 1.1132 1.1517 1.1269 1.1422 1.1898 1.1184 1.0815
2806.663 1.1175 1.205 1.184 1.117 1.3062 1.3776 1.3874 1.4233 1.4775 1.5529
2825.953 1.599 1.629 1.609 1.709 1.849 1.949 2.079 2.219 2.339 2.509
2845.242 2.749 3.049 3.429 3.809 4.049 4.179 4.149 3.959 3.739 3.529
2864.532 3.279 3.099 2.969 2.889 2.899 2.979 3.089 3.259 3.519 3.739
2883.822 4.079 4.519 4.929 5.279 5.509 5.779 5.969 5.919 5.699 5.429
2903.112 5.189 4.909 4.659 4.469 4.349 4.319 4.269 4.189 4.139 3.969
2922.401 3.899 3.829 3.689 3.659 3.569 3.459 3.409 3.439 3.489 3.489
2941.691 3.569 3.699 3.869 4.189 4.619 5.239 6.079 7.339 9.309 11.959
2960.981 15.069 17.779 19.149 19.229 18.239 16.229 13.309 9.959 7.239 5.529
2980.271 4.389 3.689 3.299 3.049 2.879 2.759 2.809 2.989 3.089 3.099
2999.561 3.269 3.569 3.839 4.039 4.209 4.389 4.459 4.409 4.409 4.289
3018.850 4.109 3.909 3.629 3.429 3.429 3.479 3.459 3.499 3.459 3.409
3038.140 3.429 3.349 3.389 3.469 3.339 3.139 2.969 2.759 2.609 2.429
3057.430 2.319 2.309 2.239 2.269 2.399 2.509 2.549 2.549 2.629 2.739
3076.720 2.859 3.159 3.549 3.869 4.229 4.819 5.619 6.569 7.759 9.229
3096.009 10.849 12.619 14.469 16.229 17.939 19.309 19.919 19.549 18.399 16.469
3115.299 13.899 11.269 8.579 6.179 4.419 3.319 2.649 2.159 1.849 1.709
3134.589 1.599 1.5514 1.5344 1.3888 1.3315 1.36 1.3685 1.2907 1.2232 1.1573
3153.879 1.0932 1.0472 1.0302 1.0959 1.054 1.045 1.011 0.9957 1.0302 1.03
3173.169 1.0196 1.0542 1.0945 1.1123 1.1323 1.0372 1.0067 1.0556 1.0733 1.0898
3192.458 1.1118 1.0995 1.032 0.9446 0.9564 0.9812 0.9351 0.8668 0.7752 0.6951
3211.748 0.7179 0.7934 0.8252 0.841 0.767 0.64705 0.65199 0.59448 0.6893 0.7904
3231.038 0.6983 0.63923 0.6636 0.66045 0.6977 0.7487 0.7633 0.7396 0.6399 0.64307
3250.328 0.59932 0.5468 0.59534 0.63993 0.702 0.8023 0.8584 0.7941 0.6942 0.718
3269.617 0.7031 0.7153 0.7484 0.7068 0.59285 0.65208 0.6669 0.552 0.5566 0.5869
3288.907 0.7012 0.71 0.66709 0.65948 0.6953 0.742 0.63504 0.62427 0.6832 0.7395
3308.197 0.751 0.66152 0.6836 0.6969 0.65095 0.8228 0.8552 0.6903 0.5537 0.5202
3327.487 0.577112 0.56737 0.5262 0.46 0.55911 0.6679 0.66849 0.7297 0.7677 0.7504
3346.777 0.7659 0.7809 0.7851 0.7661 0.7745 0.6563 0.65996 0.7245 0.64944 0.6781
3366.066 0.66338 0.63737 0.62068 0.60705 0.5451 0.60454 0.7138 0.7517 0.6962 0.6907
3385.356 0.7161 0.65342 0.722 0.7489 0.6868 0.64656 0.6704 0.7466 0.7269 0.7099
3404.646 0.7632 0.8517 0.8026 0.6813 0.7358 0.61199 0.57291 0.6864 0.743 0.7803
3423.936 0.7598 0.7791 0.7415 0.65484 0.65431 0.63807 0.738 0.8415 0.7794 0.709
3443.225 0.63802 0.66245 0.8047 0.8769 0.8212 0.8969 0.9563 0.891 0.9515 0.9029
3462.515 0.8764 0.9304 0.8621 0.8567 0.8792 0.8995 0.9638 1.0753 1.1973 1.267
3481.805 1.2669 1.4416 1.649 1.729 1.829 1.889 1.869 1.929 2.029 1.809
3501.095 1.5325 1.3327 1.1082 1.0741 1.0884 1.0228 1 0.9194 0.8124 0.7266
3520.385 0.6968 0.6876 0.6739 0.7714 0.8135 0.813 0.7307 0.7337 0.7322 0.62432
3539.674 0.6895 0.63625 0.467 0.5274 0.62946 0.5322 0.452 0.568537 0.59927 0.4931
3558.964 0.46 0.4786 0.5406 0.59423 0.58729 0.59616 0.6436 0.63927 0.6704 0.62387
3578.254 0.5219 0.5453 0.5398 0.60136 0.5229 0.38 0.4979 0.6478 0.66798 0.7349
3597.544 0.7541 0.60225 0.7074 0.8103 0.64936 0.570436 0.59457 0.61461 0.7154 0.8258
3616.833 0.738 0.63308 0.61605 0.527 0.467 0.532 0.4938 0.484 0.59522 0.64794
3636.123 0.66584 0.64505 0.6956 0.7162 0.5544 0.4724 0.502 0.59753 0.61891 0.5232
3655.413 0.4754 0.463 0.4944 0.467 0.435 0.60253 0.6914 0.531 0.5545 0.6849
3674.703 0.702 0.56518 0.5167 0.5232 0.5496 0.713 0.65873 0.59073 0.66741 0.7727
3693.993 0.7397 0.62092 0.65268 0.6817 0.5539 0.5477 0.62955 0.64048 0.7169 0.6648
3713.282 0.56409 0.60205 0.62742 0.61356 0.65101 0.59055 0.62888 0.7696 0.7394 0.65629
3732.572 0.5587 0.5227 0.56497 0.60424 0.717 0.6795 0.5261 0.4869 0.54 0.573112
3751.862 0.61191 0.64105 0.6766 0.66611 0.62316 0.6889 0.697 0.767 0.922 0.8691
3771.152 0.6633 0.59494 0.6739 0.7815 0.6942 0.7324 0.796 0.59372 0.60368 0.62666
3790.441 0.574011 0.7334 0.78 0.8367 0.9295 0.8547 0.815 0.7645 0.747 0.7109
3809.731 0.6948 0.7363 0.7098 0.7908 0.8637 0.8158 0.8743 0.8369 0.7182 0.7764
3829.021 0.7631 0.7634 0.807 0.7743 0.7802 0.7542 0.6847 0.58553 0.5544 0.58047
3848.311 0.65969 0.66297 0.5443 0.5316 0.4838 0.4827 0.58715 0.5406 0.455 0.42
3867.601 0.4742 0.63639 0.66417 0.7089 0.6984 0.64571 0.568866 0.461 0.59026 0.63585
3886.890 0.60655 0.61961 0.64339 0.7615 0.6778 0.5816 0.64036 0.58095 0.58677 0.64249
3906.180 0.56004 0.64839 0.7533 0.7222 0.66311 0.64167 0.62347 0.5572 0.5921 0.7387
3925.470 0.7568 0.65122 0.66544 0.7145 0.6869 0.6807 0.6962 0.7433 0.7546 0.663
3944.760 0.60271 0.62518 0.7129 0.7664 0.8182 0.8015 0.7798 0.812 0.8338 0.7001
3964.049 0.66877 0.65014 0.5451 0.63005 0.60141 0.59345 0.6898 0.6729 0.812 0.8325
3983.339 0.60614 0.570484 0.6751 0.7617 0.8345 0.7821 0.7616 0.8551 0.8246 0.8321
##END=
