##TITLE=2-Bromo-5-methoxytoluene
##JCAMP-DX=4.24
##DATA TYPE=INFRARED SPECTRUM
##ORIGIN=EPA-IR VAPOR PHASE LIBRARY
##OWNER=SRD/NIST
Collection (C) 2018 copyright by the U.S. Secretary of Commerce
on behalf of the United States of America. All rights reserved.
##CAS REGISTRY NO=27060-75-9
##MOLFORM=C 8 H 9 Br O
##$NIST SOURCE=MSDC-IR
##STATE=gas
##XUNITS=1/CM
##YUNITS=ABSORBANCE
##XFACTOR=1.
##YFACTOR=0.001
##DELTAX=1.92898
##FIRSTX=549.8
##LASTX=4000.7
##FIRSTY=3.095
##MAXX=4000.7
##MINX=549.759
##MAXY=0.162625
##MINY=0
##NPOINTS=1790
##XYDATA=(X++(Y..Y))
549.759 3.095 3.605 3.725 3.775 3.835 4.015 4.435 4.865 5.225 5.455
569.049 5.885 6.495 7.175 8.055 8.835 9.835 11.435 13.115 15.085 17.605
588.339 20.545 23.835 27.435 30.615 32.795 33.705 33.175 31.535 29.055 25.655
607.628 21.425 17.425 14.325 12.145 10.835 9.915 9.335 8.665 7.945 7.425
626.918 6.865 6.145 5.155 4.285 3.695 3.135 2.475 1.995 1.695 1.565
646.208 1.375 1.165 1.145 1.0896 1.0288 0.9961 1.0617 0.9908 0.9107 1.0377
665.498 1.0179 1.145 1.325 1.405 1.605 1.655 1.675 1.755 1.895 2.115
684.787 2.215 2.145 2.335 2.705 2.895 2.905 2.845 2.825 2.675 2.535
704.077 2.515 2.265 2.055 2.025 2.005 2.105 2.155 2.175 2.335 2.445
723.367 2.405 2.505 2.565 2.515 2.405 2.055 1.825 1.905 1.955 1.905
742.657 1.765 1.505 1.455 1.435 1.375 1.415 1.485 1.605 1.645 1.545
761.947 1.665 1.875 1.985 2.305 2.565 2.755 3.275 4.045 4.975 6.135
781.236 7.485 8.935 10.705 12.665 14.395 16.515 18.875 20.595 21.425 21.755
800.526 22.095 22.065 21.945 21.985 21.955 21.215 18.805 16.155 14.365 13.035
819.816 11.885 10.505 9.305 8.775 8.685 8.815 9.215 9.665 10.435 11.605
839.106 12.775 13.925 14.605 14.775 14.935 15.125 15.555 16.145 16.635 17.085
858.395 17.405 17.915 18.725 19.115 18.285 16.675 15.325 13.875 12.305 11.215
877.685 10.045 8.575 7.365 6.305 5.325 4.815 4.485 4.065 3.735 3.555
896.975 3.475 3.225 2.995 3.085 3.135 3.115 3.195 3.285 3.475 3.815
916.265 3.985 4.035 4.265 4.385 4.295 4.235 4.245 4.055 3.955 3.735
935.555 3.425 3.445 3.315 3.065 2.965 2.865 2.705 2.645 2.675 2.715
954.844 2.795 2.825 2.915 3.105 3.225 3.395 3.555 3.655 3.995 4.325
974.134 4.545 4.835 5.105 5.645 6.525 7.145 7.545 8.295 9.245 10.325
993.424 11.445 12.555 13.705 14.905 16.625 18.585 20.735 23.405 26.605 30.885
1012.714 36.135 42.265 49.785 58.365 67.015 73.905 77.915 79.395 78.115 74.065
1032.003 67.625 59.145 50.065 42.665 37.895 35.655 35.165 35.705 36.865 38.245
1051.293 39.615 40.625 41.175 41.085 40.255 38.555 36.315 33.855 30.785 27.905
1070.583 25.155 22.095 19.195 16.655 14.775 13.135 11.885 11.095 10.065 9.365
1089.873 9.235 8.945 8.785 8.695 8.655 8.775 9.125 9.835 10.965 12.645
1109.163 14.655 17.445 20.765 23.305 25.135 27.015 28.515 29.205 29.165 28.395
1128.452 27.715 27.215 26.765 27.115 27.935 28.605 29.545 30.545 31.705 33.035
1147.742 34.775 38.105 42.475 48.615 57.185 66.025 73.505 78.635 81.345 81.775
1167.032 78.565 71.305 61.545 51.655 43.135 36.205 30.395 25.835 23.085 21.395
1186.322 20.275 19.605 18.605 17.265 16.495 15.895 14.905 13.705 12.985 12.935
1205.611 13.085 13.175 13.495 14.435 15.935 17.645 20.125 23.775 28.585 34.975
1224.901 43.665 55.455 70.055 87.495 106.425 124.275 138.915 148.055 151.735 149.435
1244.191 140.235 124.525 105.085 86.185 69.955 56.635 46.735 40.465 36.735 35.515
1263.481 36.125 37.945 41.315 46.435 53.115 61.255 70.665 80.625 90.835 100.625
1282.771 108.765 114.345 116.615 115.515 111.575 105.395 97.975 90.065 82.435 76.145
1302.060 71.395 67.745 64.645 61.115 56.745 51.735 46.045 39.765 33.425 27.735
1321.350 23.105 19.455 16.475 13.995 12.045 10.445 9.205 8.275 7.555 7.075
1340.640 6.825 6.655 6.455 6.325 6.355 6.465 6.565 6.785 7.125 7.535
1359.930 7.965 8.485 9.135 9.885 10.635 11.455 12.345 13.175 14.045 14.895
1379.219 15.705 16.385 16.885 17.605 18.865 20.515 22.235 24.035 25.895 27.795
1398.509 29.715 31.475 32.865 33.665 33.725 33.095 32.015 30.595 28.895 26.995
1417.799 24.985 23.245 22.155 21.715 21.735 22.175 23.065 24.195 25.535 27.165
1437.089 29.055 30.955 32.895 34.755 36.225 37.425 38.745 40.435 42.565 45.235
1456.378 49.005 54.335 61.495 70.465 80.655 92.525 106.315 121.565 136.905 150.355
1475.668 159.175 162.625 160.425 152.645 140.165 124.235 106.475 89.125 73.945 62.065
1494.958 53.325 46.835 41.865 37.845 34.395 31.465 28.805 26.345 24.335 22.645
1514.248 21.175 19.875 18.605 17.445 16.385 15.425 14.655 14.005 13.535 13.245
1533.538 13.065 12.995 13.075 13.335 13.675 14.135 14.855 15.795 17.035 18.615
1552.827 20.435 22.735 25.535 28.825 32.495 36.355 40.405 44.415 47.885 50.685
1572.117 52.635 53.385 53.035 51.775 50.035 48.125 46.545 45.785 46.145 47.485
1591.407 49.185 50.605 51.265 50.895 49.355 46.695 42.975 38.455 33.675 29.085
1610.697 25.035 21.575 18.705 16.275 14.285 12.665 11.295 10.195 9.275 8.355
1629.986 7.515 6.865 6.295 5.855 5.385 4.955 4.745 4.595 4.495 4.405
1649.276 4.265 4.155 4.095 4.005 3.815 3.685 3.585 3.475 3.345 3.235
1668.566 3.155 3.035 2.895 2.775 2.715 2.615 2.515 2.495 2.445 2.325
1687.856 2.235 2.215 2.125 2.115 2.135 2.125 2.095 2.065 2.075 2.155
1707.146 2.285 2.345 2.395 2.515 2.625 2.705 2.815 2.785 2.735 2.775
1726.435 2.735 2.655 2.635 2.605 2.565 2.535 2.465 2.455 2.395 2.305
1745.725 2.185 2.085 2.005 1.855 1.735 1.635 1.505 1.405 1.395 1.355
1765.015 1.305 1.245 1.195 1.165 1.115 1.135 1.115 1.0861 1.105 1.195
1784.305 1.245 1.245 1.245 1.225 1.225 1.215 1.205 1.205 1.165 1.0568
1803.594 0.9687 0.9927 1.0234 1.0245 1.0424 1.0487 1.0909 1.175 1.195 1.295
1822.884 1.455 1.555 1.715 1.885 2.015 2.135 2.265 2.385 2.555 2.785
1842.174 2.845 2.825 2.825 2.845 2.855 2.795 2.735 2.735 2.765 2.825
1861.464 2.875 2.905 2.965 3.005 2.995 3.065 3.195 3.255 3.225 3.215
1880.754 3.235 3.195 3.075 2.875 2.725 2.555 2.355 2.205 2.045 1.865
1900.043 1.755 1.665 1.615 1.615 1.525 1.435 1.385 1.305 1.225 1.185
1919.333 1.135 1.115 1.115 1.096 1.0314 1.0027 1.0242 0.9726 1.0339 1.165
1938.623 1.205 1.255 1.355 1.475 1.615 1.725 1.885 2.025 2.115 2.195
1957.913 2.265 2.315 2.375 2.335 2.235 2.175 2.105 2.005 1.935 1.845
1977.202 1.675 1.585 1.565 1.505 1.395 1.315 1.275 1.225 1.275 1.325
1996.492 1.335 1.415 1.455 1.485 1.515 1.515 1.525 1.565 1.615 1.595
2015.782 1.525 1.495 1.525 1.515 1.495 1.495 1.515 1.475 1.445 1.505
2035.072 1.525 1.545 1.585 1.655 1.745 1.755 1.835 1.895 1.875 1.865
2054.362 1.865 1.865 1.925 1.935 1.875 1.895 1.945 1.955 1.955 1.955
2073.651 1.985 1.995 2.005 1.925 1.825 1.795 1.755 1.755 1.705 1.665
2092.941 1.665 1.595 1.595 1.565 1.495 1.475 1.415 1.395 1.395 1.235
2112.231 1.195 1.195 1.165 1.205 1.195 1.115 1.0893 1.135 1.115 1.043
2131.521 0.978 0.9632 0.983 1.0449 1.0935 1.0508 1.048 1.185 1.285 1.355
2150.810 1.455 1.595 1.715 1.675 1.665 1.675 1.625 1.575 1.545 1.495
2170.100 1.385 1.305 1.225 1.185 1.155 1.125 1.145 1.175 1.165 1.175
2189.390 1.265 1.375 1.435 1.445 1.505 1.515 1.475 1.465 1.395 1.305
2208.680 1.275 1.305 1.285 1.205 1.175 1.165 1.135 1.115 1.125 1.081
2227.970 1.044 0.9957 0.9455 0.9757 0.9525 0.8705 0.7985 0.7353 0.6962 0.6569
2247.259 0.5775 0.4956 0.4161 0.3278 0.3438 0.3815 0.3278 0.3408 0.385 0.3327
2266.549 0.3419 0.4207 0.5132 0.5544 0.5512 0.5931 0.6646 0.734 0.7994 0.8595
2285.839 0.8233 0.8278 0.9633 1.046 1.0263 1.0321 1.155 1.215 1.185 1.165
2305.129 1.0788 1.007 1.0482 1.0643 0.978 0.9285 0.872 0.8649 0.9182 0.8829
2324.418 0.7827 0.7608 0.7127 0.6228 0.6066 0.6454 0.6278 0.5442 0.5042 0.5028
2343.708 0.4994 0.5139 0.4909 0.4492 0.5358 0.6093 0.6121 0.5868 0.5608 0.5611
2362.998 0.5853 0.5605 0.4879 0.5221 0.5492 0.4902 0.5174 0.5959 0.6041 0.6889
2382.288 0.7816 0.7114 0.6843 0.7821 0.8985 0.8849 0.8581 0.8482 0.8899 0.9978
2401.578 1.0262 0.9882 1.006 1.0359 1.0051 1.0004 0.978 1.0242 0.9742 0.9129
2420.867 0.9208 0.8664 0.9481 1.0666 1.0447 1.0476 1.0713 1.0353 1.0041 0.9765
2440.157 0.9395 0.8606 0.8918 0.9685 0.9692 1.0177 0.9765 0.943 1.0096 0.994
2459.447 0.9978 1.0327 1.039 1.105 1.145 1.105 1.165 1.225 1.265 1.235
2478.737 1.195 1.245 1.235 1.165 1.165 1.155 1.165 1.175 1.0946 1.0587
2498.026 1.0681 1.0577 1.0516 1.115 1.145 1.145 1.145 1.145 1.185 1.265
2517.316 1.295 1.315 1.375 1.425 1.515 1.545 1.555 1.595 1.575 1.555
2536.606 1.565 1.555 1.465 1.395 1.375 1.355 1.285 1.205 1.135 1.0899
2555.896 1.0823 1.0619 1.0991 1.105 1.0508 1.0548 1.0497 1.125 1.0847 0.9882
2575.186 1.0283 1.041 1.0318 0.9772 0.9126 0.9094 0.87 0.871 0.8024 0.749
2594.475 0.8876 0.9421 0.976 1.0547 1.145 1.185 1.135 1.125 1.135 1.125
2613.765 1.125 1.0803 1.115 1.1036 1.0232 1.018 1.0986 1.0881 0.9498 1.0108
2633.055 1.0338 0.9708 0.96 0.9425 0.9318 0.9104 0.9688 0.9023 0.8306 0.8528
2652.345 0.8216 0.6863 0.6004 0.6568 0.7884 0.8126 0.6516 0.6482 0.6027 0.5193
2671.634 0.5502 0.4644 0.4849 0.534 0.5664 0.6103 0.5415 0.5232 0.516 0.5335
2690.924 0.6101 0.5862 0.6146 0.701 0.726 0.667 0.5995 0.6266 0.6553 0.641
2710.214 0.6693 0.7251 0.6974 0.7991 0.8139 0.75 0.8078 0.8247 0.8747 0.9033
2729.504 0.9478 1.0704 1.115 1.175 1.275 1.375 1.475 1.555 1.665 1.735
2748.794 1.785 1.765 1.775 1.745 1.685 1.665 1.575 1.575 1.625 1.635
2768.083 1.575 1.575 1.615 1.625 1.705 1.775 1.865 1.945 2.015 2.185
2787.373 2.345 2.465 2.585 2.665 2.805 3.025 3.205 3.365 3.535 3.785
2806.663 4.095 4.435 4.795 5.125 5.465 5.915 6.385 6.895 7.575 8.275
2825.953 9.105 10.185 11.545 13.235 14.985 17.055 19.225 21.195 22.985 24.345
2845.242 25.235 25.585 25.375 24.715 23.545 22.135 20.745 19.415 18.385 17.485
2864.532 16.635 16.035 15.475 14.925 14.615 14.325 14.095 13.915 13.815 13.815
2883.822 13.805 13.845 14.005 14.345 14.595 14.875 15.445 16.185 16.975 17.855
2903.112 19.015 20.255 21.435 22.745 24.155 25.535 26.815 27.835 28.735 29.585
2922.401 30.525 31.575 32.835 34.485 36.255 38.155 40.245 42.685 45.285 47.935
2941.691 50.145 51.425 51.825 51.475 50.655 49.285 47.175 44.855 42.865 40.855
2960.981 38.695 36.535 34.495 32.585 30.785 29.105 27.455 26.085 25.185 24.465
2980.271 23.835 23.355 23.125 22.975 22.855 23.175 23.655 24.125 25.105 26.555
2999.561 28.525 31.225 34.035 36.315 37.365 37.105 36.005 33.995 31.055 27.385
3018.850 23.515 20.145 17.705 15.885 14.595 13.725 13.055 12.605 12.185 11.735
3038.140 11.355 10.915 10.435 10.175 9.875 9.635 9.605 9.475 9.335 9.355
3057.430 9.405 9.435 9.615 9.935 10.265 10.575 10.925 11.305 11.625 11.795
3076.720 11.845 11.765 11.545 11.265 10.955 10.505 9.795 9.155 8.725 8.275
3096.009 7.795 7.285 6.685 6.125 5.685 5.125 4.605 4.295 3.965 3.645
3115.299 3.385 3.135 3.025 2.875 2.535 2.305 2.235 2.235 2.135 2.135
3134.589 2.125 1.995 1.925 1.835 1.755 1.635 1.605 1.495 1.385 1.435
3153.879 1.375 1.245 1.225 1.295 1.105 0.9482 1.135 1.185 1.135 1.115
3173.169 1.0274 1.0603 1.105 1.0085 0.8758 0.7607 0.7605 0.8308 0.7776 0.7644
3192.458 0.7393 0.6101 0.6003 0.5934 0.5661 0.4919 0.5221 0.5015 0.419 0.5802
3211.748 0.6501 0.4968 0.4692 0.5225 0.5726 0.5103 0.4331 0.3632 0.3118 0.3823
3231.038 0.4161 0.4897 0.4322 0.4098 0.4106 0.3661 0.3088 0.3186 0.3164 0.17956
3250.328 0.14715 0.14882 0.2286 0.3204 0.2611 0.18544 0.2114 0.19858 0.17929 0.1629
3269.617 0.105249 0.17028 0.18583 0.2455 0.207 0.17699 0.2613 0.2125 0.17842 0.3279
3288.907 0.4598 0.3713 0.276 0.3091 0.2685 0.15688 0.2814 0.2609 0.20094 0.2293
3308.197 0.2247 0.19366 0.0935 0.0133 0.0533 0.13127 0.10065 0.2072 0.16639 0.14801
3327.487 0.229 0.16392 0.3124 0.3292 0.18923 0.2154 0.3207 0.3103 0.20313 0.2368
3346.777 0.3406 0.3186 0.3106 0.2587 0.19299 0.2932 0.28 0.12281 0.12003 0.2241
3366.066 0.2235 0.2628 0.2232 0.113252 0.14263 0.2253 0.2726 0.18135 0.0772 0.18235
3385.356 0.3246 0.2462 0.0583 0.0297 0.109597 0.14665 0.2555 0.3157 0.2382 0.3545
3404.646 0.3729 0.18285 0.1896 0.19555 0.16608 0.17233 0.1575 0.1623 0.15908 0.1823
3423.936 0.16888 0.18648 0.2772 0.3054 0.2897 0.3192 0.2639 0.0532 0 0.12025
3443.225 0.13455 0.18164 0.2941 0.3365 0.2659 0.12654 0.14446 0.0925 0.0412 0.09839
3462.515 0.18159 0.2792 0.16273 0.003 0.0416 0.2303 0.3034 0.2407 0.2223 0.2318
3481.805 0.2764 0.4378 0.3562 0.2875 0.2071 0.0178 0.0751 0.12309 0.3046 0.3517
3501.095 0.17145 0.18323 0.2064 0.12248 0.0895 0.18678 0.2419 0.2172 0.3022 0.2837
3520.385 0.19539 0.2458 0.20068 0.19454 0.2894 0.2907 0.2261 0.2568 0.2693 0.11993
3539.674 0.17567 0.2432 0.17206 0.16715 0.2149 0.2551 0.3344 0.2298 0.18649 0.3149
3558.964 0.2163 0.2567 0.3874 0.456 0.3758 0.15603 0.113924 0.2083 0.2157 0.13531
3578.254 0.11649 0.3025 0.4554 0.3945 0.2286 0.1837 0.2435 0.2792 0.2405 0.13996
3597.544 0.18564 0.17362 0.2679 0.355 0.3061 0.2722 0.3137 0.3719 0.3766 0.415
3616.833 0.3712 0.2158 0.114687 0.20241 0.3071 0.3034 0.2284 0.322 0.4641 0.5768
3636.123 0.5294 0.3895 0.3143 0.18259 0.2591 0.3337 0.2666 0.3138 0.4101 0.2268
3655.413 0.13103 0.3322 0.288 0.14981 0.2456 0.3276 0.2095 0.2104 0.17266 0.18488
3674.703 0.2923 0.3208 0.3158 0.2178 0.2355 0.247 0.3287 0.4061 0.3939 0.3901
3693.993 0.3292 0.2565 0.2585 0.2948 0.3366 0.2389 0.1189 0.17927 0.241 0.3281
3713.282 0.3167 0.2926 0.4012 0.4236 0.2966 0.18262 0.2778 0.4086 0.4554 0.3801
3732.572 0.16431 0.17319 0.3585 0.4732 0.4828 0.4084 0.4364 0.4972 0.4297 0.4441
3751.862 0.3539 0.228 0.3597 0.4898 0.3857 0.274 0.3191 0.4435 0.4586 0.3169
3771.152 0.4114 0.3726 0.2886 0.3434 0.2842 0.2099 0.2402 0.3723 0.4723 0.5291
3790.441 0.5241 0.5663 0.3796 0.2228 0.4105 0.5085 0.4313 0.3081 0.3242 0.3926
3809.731 0.4149 0.5746 0.5465 0.415 0.4211 0.4308 0.496 0.4826 0.3607 0.3912
3829.021 0.5711 0.5216 0.3473 0.4345 0.4631 0.3658 0.243 0.13684 0.16749 0.2813
3848.311 0.442 0.3883 0.372 0.5292 0.5162 0.4069 0.4025 0.3906 0.3724 0.4125
3867.601 0.3905 0.3456 0.342 0.2963 0.2552 0.3098 0.403 0.4215 0.3925 0.5552
3886.890 0.7434 0.6404 0.5162 0.3975 0.3441 0.4742 0.514 0.4966 0.5618 0.5444
3906.180 0.4872 0.5022 0.4542 0.5121 0.5508 0.515 0.5868 0.5185 0.5408 0.5736
3925.470 0.3469 0.2835 0.5319 0.5971 0.536 0.5437 0.4455 0.4644 0.5044 0.4319
3944.760 0.5397 0.5779 0.4546 0.6001 0.723 0.6904 0.6436 0.7124 0.8378 0.7584
3964.049 0.5404 0.576 0.7042 0.705 0.6824 0.7629 0.678 0.5327 0.5398 0.561
3983.339 0.7916 0.9347 0.8703 0.807 0.8571 0.9124 0.9074 1.0066 1.092 0.8474
##END=
