##TITLE=Perfluoropentanoic acid
##JCAMP-DX=4.24
##DATA TYPE=INFRARED SPECTRUM
##ORIGIN=EPA-IR VAPOR PHASE LIBRARY
##OWNER=SRD/NIST
Collection (C) 2018 copyright by the U.S. Secretary of Commerce
on behalf of the United States of America. All rights reserved.
##CAS REGISTRY NO=2706-90-3
##MOLFORM=C 5 H F 9 O 2
##$NIST SOURCE=MSDC-IR
##STATE=gas
##XUNITS=1/CM
##YUNITS=ABSORBANCE
##XFACTOR=1.
##YFACTOR=0.001
##DELTAX=1.92898
##FIRSTX=549.8
##LASTX=4000.7
##FIRSTY=5.83
##MAXX=4000.7
##MINX=549.759
##MAXY=0.12512
##MINY=0
##NPOINTS=1790
##XYDATA=(X++(Y..Y))
549.759 5.83 6.51 6.12 5.62 4.86 5.54 6.38 7.12 7.4 7.26
569.049 7.74 7.65 7.74 8.31 8.76 8.97 9.17 9.38 9.86 9.68
588.339 9.05 9.03 8.56 7.69 7.56 7.59 7.21 7.28 7.01 6.87
607.628 6.78 6.22 6.78 7.53 8.12 8.46 7.92 7.72 8.24 8.54
626.918 8.36 8.43 8.52 8.43 8.02 7.82 7.78 7.53 7.69 8.16
646.208 8.28 8.38 8.87 9.03 9.33 10.05 10.34 10.3 10.62 11.69
665.498 12.54 12.98 12.73 12.09 11.75 11.41 11 10.15 9.74 9.46
684.787 9.14 9.36 9.8 10.12 10.55 10.66 10.17 9.56 8.4 7.29
704.077 6.92 6.29 4.87 4.06 3.76 3.25 3.1 3.15 3.12 3.21
723.367 3.41 3.07 3.01 3.2 2.97 3 3.44 4.43 5.43 6.36
742.657 7.69 8.85 9.99 10.24 9.84 10.05 8.99 7.62 7.18 6.82
761.947 6.32 5.36 4.85 4.78 4.23 3.7 3.71 3.26 2.85 3.13
781.236 2.9 2.51 2.44 2.13 1.71 1.9 1.99 1.78 1.79 1.96
800.526 1.95 1.5405 1.3788 2.04 2.3 1.88 1.82 1.94 2.06 2.31
819.816 1.4233 0.239 0 1.5298 3.14 3.35 4.14 4.53 4.97 5.92
839.106 6.49 7.05 7.82 8.76 9.17 8.72 8.04 7.5 7.05 6.45
858.395 6.16 6.41 7.29 8.55 9.86 11.67 13.19 14.56 16.37 17.76
877.685 18.15 17.61 16.85 15.61 14.46 13.43 12.13 11.34 10.23 9.22
896.975 8.86 8.39 7.68 6.88 6.81 6.45 5.56 5.4 5.68 5.81
916.265 5.86 6.17 6.53 6.76 6.58 6.02 5.62 5.38 4.95 4.64
935.555 4.34 4.09 3.89 3.39 2.82 2.46 2.45 2.49 2.39 2.1
954.844 1.99 2.07 2.17 2.18 1.5485 1.4373 1.78 1.5641 2 2.32
974.134 2.31 2.57 2.5 2.39 2.35 2.54 2.79 2.36 2.46 2.97
993.424 2.49 2.19 2.56 2.9 3.11 3.43 3.87 4.5 5.65 6.87
1012.714 7.48 8.18 9.07 9.76 10.23 11.24 11.75 11.79 11.81 11.26
1032.003 9.95 8.69 8.5 7.83 7.04 6.73 5.84 5.22 5.1 5.03
1051.293 4.61 3.98 4.26 4.21 4.08 4.3 4.46 3.99 3.25 3.81
1070.583 4.18 3.54 4.01 4.42 4.25 4.75 5.65 7.13 7.05 7.06
1089.873 7.56 7.68 9.17 9.88 11.43 13.12 13.29 14.23 15.27 17.45
1109.163 20.86 23.81 26.96 29.19 31.18 34.45 36.94 37.88 38.56 40.14
1128.452 41.24 41.97 42.39 42.61 43.5 44.26 44.58 44.29 43.47 41.25
1147.742 38.13 36.28 34.14 31.17 29.12 27.41 26.34 26.41 27.33 27.04
1167.032 26.42 26.71 27.12 28.29 29.49 30.39 30.64 31.1 32.28 33.55
1186.322 34.3 34.78 35.39 35.89 37.44 38.41 39.46 40.35 40.8 41.86
1205.611 43.26 45.63 46.89 48.5 51.74 54.6 56.17 59.91 64.67 68.41
1224.901 73.58 79.12 86.86 95.56 103.35 111.74 118.66 123.34 125.12 123.27
1244.191 118.12 109.63 98.2 85.09 71.99 60 49.53 40.84 34.51 29.62
1263.481 25.42 22.23 20 17.9 15.55 14.78 14.52 13.8 13.03 12.74
1282.771 12.65 12.04 11.63 11.62 11.44 11.09 10.72 10.19 9.62 9.2
1302.060 8.76 8.29 8.04 7.83 7.87 8.12 8.34 8.63 9.1 9.65
1321.350 10.16 10.72 11.38 11.99 12.78 13.62 14.37 15.04 15.64 16.07
1340.640 16.07 15.95 15.56 14.59 13.43 12.36 11.09 9.68 8.5 7.5
1359.930 6.66 6.06 5.48 5.12 5.2 5.23 5.16 5.27 5.52 5.81
1379.219 6.01 6.16 6.16 6.13 6.05 5.67 5.19 4.8 4.69 4.33
1398.509 3.81 3.46 3.35 3.19 2.84 2.72 2.6 2.45 2.37 2.37
1417.799 2.31 2.1 2.01 2.11 2.09 1.96 1.8 1.72 1.73 1.77
1437.089 1.81 1.74 1.8 1.9 1.92 1.7 1.5568 1.67 1.69 1.66
1456.378 1.4941 1.4818 1.5087 1.4539 1.4543 1.5857 1.81 1.65 1.4071 1.5499
1475.668 1.5913 1.4168 1.66 1.66 1.4834 1.6 1.62 1.62 1.4087 1.2243
1494.958 1.3544 1.3743 1.3354 1.4412 1.4663 1.5636 1.7 1.67 1.73 1.63
1514.248 1.5316 1.63 1.55 1.3645 1.5011 1.4382 1.269 1.4694 1.64 1.77
1533.538 1.5832 1.5107 1.5881 1.5934 1.5157 1.4254 1.4098 1.3969 1.404 1.3673
1552.827 1.3826 1.3907 1.2597 1.3017 1.4934 1.3254 1.3315 1.5377 1.63 1.5124
1572.117 1.4145 1.4581 1.3866 1.4762 1.4465 1.1791 1.0901 1.2485 1.3645 1.2539
1591.407 1.255 1.4015 1.3661 1.1917 1.0881 1.0509 1.2195 1.4135 1.1802 1.0785
1610.697 1.1638 1.0916 1.1529 1.2517 1.3273 1.3871 1.2336 1.1287 1.3166 1.2296
1629.986 1.1158 1.2046 1.1294 1.0535 0.9286 1.0004 1.1554 1.1516 1.167 1.2844
1649.276 1.1701 1.0036 1.0442 1.1757 1.2703 1.0695 1.0229 1.0915 0.9925 0.9482
1668.566 1.0804 1.1043 1.0088 1.0226 0.897 0.8664 1.0997 0.9884 0.8078 0.8898
1687.856 0.9137 1.1401 1.2784 1.1219 1.0796 1.0759 1.1179 1.0544 1.0475 1.104
1707.146 1.0846 1.1211 1.0945 1.1435 1.2116 1.286 1.1573 1.0208 1.1886 1.3435
1726.435 1.3745 1.4275 1.4234 1.4322 1.4666 1.471 1.5309 1.63 1.73 1.76
1745.725 1.73 1.85 2.01 2.12 2.25 2.43 2.57 2.61 2.92 3.29
1765.015 3.66 4.1 4.32 4.39 4.77 5.4 5.78 6.21 6.67 7.17
1784.305 7.73 8.51 9.32 10.11 11.07 12.2 13.74 15.69 18.1 21.07
1803.594 24.58 28.45 32.25 35.82 38.83 40.56 40.93 39.86 37.35 33.88
1822.884 29.87 25.86 22.32 19.14 16.69 14.93 13.51 12.51 11.55 10.56
1842.174 9.46 8.54 7.68 6.94 6.2 5.44 4.83 4.26 3.89 3.51
1861.464 3.25 3.08 2.88 2.66 2.51 2.47 2.29 2.16 2.05 2.06
1880.754 2 1.95 1.87 1.66 1.6 1.5839 1.5334 1.399 1.411 1.4207
1900.043 1.3994 1.4585 1.4157 1.4647 1.453 1.3636 1.3161 1.3508 1.3456 1.242
1919.333 1.2636 1.2084 1.2262 1.1893 1.065 1.1182 1.1081 1.0514 1.2044 1.2694
1938.623 1.1696 1.0816 1.0018 0.9936 1.0845 1.1364 1.1003 1.0901 1.1123 1.116
1957.913 1.1848 1.222 1.1378 1.2744 1.3763 1.277 1.2625 1.3655 1.2456 1.0912
1977.202 1.1762 1.2576 1.2272 1.3073 1.3949 1.2476 1.0649 1.0899 1.163 1.1446
1996.492 1.1 1.1088 1.1295 1.1195 1.0975 1.0487 1.0568 1.049 0.9674 0.921
2015.782 0.8072 0.7563 0.972 1.0504 1.0004 1.0527 1.0686 1.1426 1.0258 0.9002
2035.072 0.974 0.9735 1.0442 1.0637 1.0643 1.1918 1.1882 1.1006 1.0707 1.0174
2054.362 0.9898 0.9839 0.9659 1.0307 1.2491 1.2466 1.106 1.0565 1.0176 1.03
2073.651 1.0217 1.0188 1.0321 1.0372 1.0537 0.9695 0.9397 0.9514 0.9259 1.0838
2092.941 1.2902 1.1922 1.1042 1.0956 1.1249 1.1846 1.0224 0.9609 0.9978 0.9998
2112.231 1.1418 1.1625 0.9852 0.8924 0.8689 0.841 0.8932 1.0363 1.0358 0.9207
2131.521 0.8288 0.9132 1.0479 1.0769 1.0631 1.0206 1.0105 1.0117 1.0314 1.0128
2150.810 0.9684 0.8778 0.8725 0.9658 1.02 1.0089 1.0249 1.1549 1.0466 1.1041
2170.100 1.2897 1.1393 1.1119 1.147 1.0917 1.0878 1.0701 1.0383 1.0048 0.966
2189.390 0.9131 0.9731 1.0136 0.9942 1.1085 1.1539 1.1273 0.9864 0.9478 1.2309
2208.680 1.2332 1.0681 1.065 1.0765 1.1758 1.1703 1.1809 1.2927 1.147 1.026
2227.970 1.2333 1.1738 0.9753 1.1607 1.3162 1.3319 1.27 1.3115 1.2491 1.1574
2247.259 1.2368 1.1655 1.1401 1.2161 1.1136 1.0745 1.1523 1.095 1.0141 1.0464
2266.549 1.0025 0.9488 1.0388 1.1223 1.2231 1.2632 1.2635 1.1121 1.102 1.2981
2285.839 1.3603 1.2267 1.1317 1.2444 1.2698 1.3188 1.2135 1.1476 1.3577 1.5617
2305.129 1.4889 1.3329 1.5118 1.6 1.66 1.64 1.66 1.72 1.75 1.72
2324.418 1.8 1.96 1.93 1.89 1.72 1.5645 1.4551 1.4503 1.4998 1.5843
2343.708 1.64 1.5956 1.5055 1.4744 1.64 1.77 1.79 1.76 1.91 2.08
2362.998 2 1.96 2.06 2.12 1.85 1.62 1.65 1.5951 1.4439 1.4512
2382.288 1.4927 1.4442 1.4124 1.4927 1.4556 1.4874 1.4862 1.3785 1.4486 1.379
2401.578 1.1928 1.0761 1.4007 1.4353 1.1654 1.2841 1.307 1.3411 1.4583 1.5289
2420.867 1.4517 1.3155 1.2262 1.1383 1.2941 1.3669 1.1734 1.1459 1.253 1.4253
2440.157 1.4469 1.3817 1.4895 1.5493 1.551 1.4174 1.19 1.2764 1.3511 1.2271
2459.447 1.3152 1.4886 1.3367 1.1774 1.213 1.1744 1.2818 1.4008 1.407 1.5225
2478.737 1.4634 1.4533 1.5886 1.4605 1.3579 1.3198 1.3407 1.5049 1.5399 1.4099
2498.026 1.3257 1.4548 1.4958 1.4443 1.5252 1.4455 1.4016 1.3351 1.3047 1.2577
2517.316 1.1531 1.1198 1.0175 1.0316 0.9588 1.0743 1.1986 1.175 1.1334 1.0371
2536.606 1.1459 1.2638 1.2496 1.1781 1.1336 1.1802 1.1923 1.1497 1.3647 1.3327
2555.896 1.1143 0.9914 0.8859 0.9316 1.1913 1.2411 1.0719 1.0797 1.0435 1.0556
2575.186 1.1534 1.1197 0.9507 0.9585 1.1699 1.3673 1.2481 1.1113 1.1584 1.0686
2594.475 1.0312 1.1662 1.1026 1.0749 1.1062 0.9795 0.872 0.8669 0.8471 0.9382
2613.765 0.9598 0.9058 0.9885 0.8295 0.9408 1.1775 1.1137 1.0607 1.0182 0.9926
2633.055 1.0543 1.174 1.1622 1.0233 0.9734 1.0783 1.0325 1.0783 1.2567 1.1861
2652.345 1.0784 1.0662 0.9278 0.741 0.8394 0.9622 1.017 1.1363 0.912 0.5508
2671.634 0.5065 0.5635 0.5787 0.8365 1.0125 0.9142 0.8682 0.8792 0.9388 0.9074
2690.924 0.8595 0.9601 1.0236 0.93 1.1062 1.2441 1.0305 0.948 0.8144 0.5923
2710.214 0.788 1.1749 1.0429 0.66113 0.5748 0.67198 0.9265 1.1038 1.0375 0.9276
2729.504 0.8875 0.7798 0.61538 0.68543 0.8428 0.8671 0.7863 0.9435 1.0851 1.0158
2748.794 0.8684 0.6319 0.62119 0.64725 0.69624 0.9506 0.9831 0.8671 0.68367 0.7029
2768.083 0.9116 0.7943 0.7246 0.8495 0.9016 0.9342 0.9563 0.8871 0.8062 0.7787
2787.373 0.8472 0.8226 0.61816 0.5519 0.5273 0.5358 0.5491 0.5054 0.8972 1.0842
2806.663 0.8094 0.7947 0.8409 0.7648 0.746 0.9844 0.8966 0.65084 0.69774 0.63135
2825.953 0.67577 1.1013 1.2787 1.0084 0.9578 1.0512 1.1486 1.0442 1.0162 1.2573
2845.242 1.0821 0.5627 0.5842 0.9438 1.1098 1.1557 1.0549 1.1705 1.1965 0.8917
2864.532 0.8744 0.7913 0.8464 1.1533 1.2512 1.0212 0.8596 0.7064 0.7763 1.159
2883.822 1.0578 0.8744 0.8882 1.0109 1.0981 0.9186 0.8644 0.8602 0.8494 1.0962
2903.112 0.9057 0.59027 0.66529 0.856 0.9028 0.9008 0.7988 0.8816 0.902 0.65794
2922.401 0.9354 1.5278 1.88 1.3259 0.736 0.8748 0.9654 1.0419 1.2263 1.245
2941.691 1.4024 1.3065 1.0684 1.1221 1.0838 0.9016 0.8183 0.7956 0.7961 0.8562
2960.981 0.8264 0.8032 0.7178 0.79 0.9131 1.0268 1.3114 1.083 0.8931 1.2032
2980.271 1.2172 1.0027 0.8459 0.8225 0.7409 0.9696 1.3302 1.1257 0.8883 1.0643
2999.561 1.0967 1.0269 0.9813 0.8204 0.847 0.8109 0.9635 0.9289 0.549 0.5259
3018.850 0.62316 0.7536 0.8816 1.0558 1.0437 1.1641 1.0588 0.815 0.9165 0.8078
3038.140 0.62882 0.68984 0.9093 1.0219 1.2072 1.0925 1.1487 1.1589 1.0652 1.2561
3057.430 1.0904 1.2594 1.3237 1.1894 1.3073 1.0223 0.7806 1.0147 1.1688 0.9467
3076.720 0.7236 0.8702 0.9965 0.61025 0.466 0.63567 0.7677 1.1448 1.1388 0.8146
3096.009 0.7286 0.7614 0.8549 0.7775 1.1718 1.2762 1.1243 1.2359 1.0724 1.0266
3115.299 1.1931 1.3127 1.2498 1.201 1.1387 0.8924 0.62228 0.7081 0.8607 0.65465
3134.589 0.718 0.7257 0.5696 0.749 1.0454 1.1082 0.9525 0.8332 0.8209 0.8887
3153.879 1.0194 1.2431 1.177 0.7339 0.5731 0.84 0.8006 0.8976 0.9429 0.9867
3173.169 0.9117 0.67694 0.8282 0.7545 0.9249 1.0432 0.9404 0.935 0.8947 0.8157
3192.458 0.66303 0.62257 0.7535 0.971 0.9505 1.0166 1.3277 1.2051 1.0283 0.9258
3211.748 0.7885 1.1114 0.9214 0.7687 0.988 0.9696 1.1458 1.1709 1.061 1.3263
3231.038 0.9567 0.6176 0.7465 0.8373 0.9987 0.68821 0.296 0.36 0.62546 0.7022
3250.328 0.8622 0.7421 0.63813 0.8805 1.0192 1.3294 1.3004 1.0171 0.7841 0.8746
3269.617 1.062 1.2337 1.1583 0.59113 0.323 0.606273 1.1174 1.2219 1.1596 1.3981
3288.907 1.3838 1.3608 1.4405 1.1205 0.9617 1.0142 1.0944 0.938 0.9378 1.064
3308.197 0.9649 0.9442 0.8716 0.7965 0.8755 0.9147 1.108 0.993 0.5726 0.7141
3327.487 1.212 1.0825 0.7916 0.68291 0.72 0.9541 0.9839 0.8382 0.702 1.0698
3346.777 1.3538 1.2222 1.2938 1.3486 1.4268 1.4656 1.4961 1.0827 0.8848 1.151
3366.066 0.8798 0.8066 0.5148 0.8166 1.2029 0.8595 0.9899 0.969 0.7976 1.1137
3385.356 1.3263 1.2716 1.0822 0.9129 0.9395 0.9994 1.0698 1.1776 1.4403 1.1532
3404.646 0.605406 0.5524 0.7673 1.0361 1.2703 1.4153 1.2559 0.9055 0.8629 0.7834
3423.936 0.476 0.5951 0.7809 0.9549 1.0221 1.0705 1.4863 1.3854 0.7457 0.263
3443.225 0.223 0.68907 1.0046 0.8164 0.997 1.1851 1.0002 0.9251 0.7896 0.9063
3462.515 1.0154 1.0671 1.0715 0.7185 0.7822 1.0262 1.1225 1.1907 1.3747 1.4012
3481.805 1.236 1.1921 0.62439 0.218 0.5749 0.9652 0.9937 0.9193 0.9233 0.8017
3501.095 0.7741 1.102 0.7626 0.228 0.59058 0.8588 0.7046 0.7425 0.821 0.9825
3520.385 1.1321 1.0319 1.1418 1.5077 1.79 1.5888 1.3544 1.082 1.3315 1.84
3539.674 1.95 2.15 1.88 1.4904 1.64 2.19 2.42 2.82 3.58 4.37
3558.964 5.94 8.4 11.45 15.6 20.27 23.7 25.69 26.7 25.92 23.25
3578.254 19.89 15.8 11.34 8.14 5.99 4.39 3.74 3.6 3.46 3.47
3597.544 3.79 3.85 3.78 3.72 3.64 3.51 3.45 3.48 3.37 2.92
3616.833 2.47 2.01 1.71 1.98 2.04 1.63 1.5422 1.83 1.91 1.79
3636.123 1.465 1.3003 1.2225 1.2008 1.1719 0.9164 1.0956 1.5126 1.5275 1.3356
3655.413 1.2929 1.259 1.1959 0.9981 0.8543 1.2147 1.3605 1.1973 1.1035 0.9214
3674.703 0.9167 0.9553 0.769 0.9732 1.1903 0.9535 0.9452 0.9719 1.0357 1.1772
3693.993 0.8869 0.69009 1.0539 1.2014 0.9683 1.2379 1.0497 0.7261 0.775 0.7597
3713.282 1.0574 1.1761 1.0538 0.8391 0.792 0.7858 0.66785 0.9222 1.4002 1.0853
3732.572 0.7838 1.2271 1.2813 1.2822 1.3267 0.69453 0.7818 1.5202 1.231 0.8743
3751.862 1.1492 1.1732 1.023 1.1226 1.2628 1.148 1.1123 1.1048 0.8972 1.0338
3771.152 1.0448 0.9683 1.2865 1.3782 1.1974 0.9264 0.7664 0.9825 1.3781 1.3509
3790.441 1.2055 1.0018 0.5801 0.8982 1.097 1.0191 1.2092 1.3193 1.175 0.9937
3809.731 0.63048 0.242 0.473 0.5659 0.9379 1.2958 1.0346 1.0236 1.2017 1.5442
3829.021 1.3671 0.9658 1.1961 1.1792 1.076 1.3539 1.3003 1.2189 1.1696 0.822
3848.311 0.7213 1.1416 1.1248 0.9303 0.8966 0.9248 1.3188 1.2788 1.228 1.2908
3867.601 1.0635 0.9689 1.1642 0.9817 0.6514 1.1366 1.4517 0.9512 0.395 0.68172
3886.890 1.2317 1.4369 1.4381 1.5507 1.71 1.3458 1.1252 0.8486 0.67089 0.8904
3906.180 1.0783 1.4009 1.4318 1.0376 0.9361 0.9431 0.9832 0.9866 0.8904 0.7512
3925.470 0.9616 1.3897 1.32 1.3082 1.2957 1.1993 1.0256 1.2834 1.4388 1.2455
3944.760 1.5043 1.454 1.0159 0.64496 0.5038 0.37 0.865 1.4326 1.204 1.2965
3964.049 1.5369 1.0974 0.8636 1.0078 0.7952 0.473 0.61445 0.9792 1.0489 1.3077
3983.339 0.8806 0.397 0.68325 0.7174 0.9442 1.3589 1.2275 0.8793 0.8431 0.883
##END=
