##TITLE=7-Azaindole
##JCAMP-DX=4.24
##DATA TYPE=INFRARED SPECTRUM
##ORIGIN=NIST Mass Spectrometry Data Center
##OWNER=NIST Standard Reference Data Program
Collection (C) 2018 copyright by the U.S. Secretary of Commerce
on behalf of the United States of America. All rights reserved.
##CAS REGISTRY NO=271-63-6
##MOLFORM=C 7 H 6 N 2
##$NIST SOURCE=MSDC-IR
##SPECTROMETER/DATA SYSTEM=HP-GC/MS/IRD
##STATE=gas
##XUNITS=1/CM
##YUNITS=ABSORBANCE
##XFACTOR=1.0
##YFACTOR=0.000007500
##DELTAX=4.0
##FIRSTX=550.0
##LASTX=3846.0
##FIRSTY=0.000735
##MAXX=3846
##MINX=550
##MAXY=0.075
##MINY=0
##NPOINTS=825
##XYDATA=(X++(Y..Y))
550.0 98 78 41 91 88 71 168 278 182 117
590.0 133 134 180 257 296 402 473 443 431 363
630.0 284 174 72 26 12 16 33 69 106 152
670.0 195 241 321 473 686 1114 1777 2704 3543 4302
710.0 4815 7517 10000 6775 4724 4531 3707 2858 2092 1804
750.0 1848 2082 2426 2938 3977 5266 4972 3984 3825 3652
790.0 3408 3516 3005 1922 1479 1243 981 735 564 475
830.0 424 406 411 426 443 468 540 631 722 787
870.0 819 887 1110 1551 2044 2105 2091 2084 2003 1995
910.0 1676 1476 1582 1846 2149 2443 2695 2869 2926 2880
950.0 2775 2613 2354 2008 1683 1418 1159 932 753 617
990.0 527 460 389 321 266 232 213 208 217 224
1030.0 223 248 318 420 595 839 1040 1126 1232 1468
1070.0 1753 1884 1794 1678 1760 1797 1529 1251 1168 1036
1110.0 821 664 554 509 371 194 113 87 76 67
1150.0 49 44 53 78 109 127 150 197 283 382
1190.0 430 428 420 417 385 276 170 122 109 100
1230.0 99 111 123 151 205 304 526 973 1740 2767
1270.0 3671 4116 4296 4380 4337 3821 2935 2415 2129 1987
1310.0 2168 2190 1825 1502 1507 1740 2036 2345 2612 2691
1350.0 2536 2212 1807 1323 864 631 597 716 1007 1552
1390.0 2435 3609 4822 5893 6984 7845 8090 7596 6499 5489
1430.0 4464 3298 2326 1639 1136 793 599 486 410 390
1470.0 451 589 782 1005 1213 1439 1748 2038 2118 1959
1510.0 1808 1719 1528 1261 970 704 543 496 554 711
1550.0 963 1289 1682 2125 2521 2809 2944 3203 3670 3956
1590.0 3949 3712 3272 2740 2150 1562 996 562 363 292
1630.0 261 248 257 275 283 281 277 264 239 202
1670.0 182 184 208 266 355 454 540 611 657 672
1710.0 647 592 508 414 330 259 197 136 85 54
1750.0 39 33 32 34 36 39 41 42 42 39
1790.0 39 33 27 21 22 26 34 45 56 77
1830.0 106 147 198 241 266 276 274 266 258 247
1870.0 243 255 262 256 258 260 244 230 243 270
1910.0 275 264 242 216 166 97 50 28 21 19
1950.0 19 19 19 21 23 24 22 20 20 23
1990.0 22 21 22 19 16 14 13 14 12 14
2030.0 12 12 15 20 29 33 32 34 34 32
2070.0 32 28 24 24 27 30 33 36 37 35
2110.0 37 40 39 43 48 54 62 71 78 86
2150.0 91 95 98 104 109 108 106 105 97 87
2190.0 76 62 53 51 50 51 53 55 57 57
2230.0 58 62 59 51 46 45 40 38 40 41
2270.0 43 47 52 62 74 86 95 97 94 93
2310.0 89 81 66 53 46 41 37 37 38 40
2350.0 41 45 47 49 52 56 64 69 71 76
2390.0 80 81 82 82 77 67 60 58 58 59
2430.0 61 67 76 88 105 118 136 156 172 183
2470.0 194 203 205 200 192 178 167 157 143 133
2510.0 125 112 96 85 78 65 52 48 48 50
2550.0 53 60 69 77 89 105 121 136 146 160
2590.0 173 179 180 175 171 171 163 146 118 91
2630.0 77 60 44 35 30 26 24 24 26 33
2670.0 41 47 55 62 70 75 79 86 86 83
2710.0 83 82 75 62 48 36 29 21 15 12
2750.0 13 17 22 23 26 32 36 39 43 49
2790.0 52 55 63 67 67 67 63 60 57 52
2830.0 48 47 45 43 40 40 43 45 43 44
2870.0 46 43 45 55 61 68 72 76 81 78
2910.0 78 75 71 67 54 45 45 45 44 48
2950.0 62 82 101 131 162 189 221 251 274 288
2990.0 290 286 285 294 313 343 397 489 625 795
3030.0 971 1168 1437 1828 2330 2816 3126 3269 3386 3415
3070.0 3145 2632 2070 1627 1346 1155 987 823 674 538
3110.0 441 398 390 416 467 507 501 469 427 376
3150.0 305 199 121 87 72 72 77 78 78 75
3190.0 74 74 68 62 51 37 24 16 9 4
3230.0 6 4 4 1 1 7 10 6 0 2
3270.0 7 9 12 14 19 18 16 17 19 17
3310.0 14 7 3 9 10 8 10 12 9 8
3350.0 10 13 14 13 15 19 21 25 24 20
3390.0 25 29 30 29 35 44 51 59 68 83
3430.0 99 120 145 172 209 261 325 398 496 635
3470.0 836 1132 1552 2121 2872 3781 4775 5758 6608 7099
3510.0 6913 6234 5679 4961 3660 2373 1516 998 674 485
3550.0 372 282 206 149 109 80 65 57 48 40
3590.0 31 25 23 26 27 28 30 28 25 18
3630.0 16 22 22 22 22 13 12 21 18 19
3670.0 22 25 32 31 34 35 35 40 40 36
3710.0 38 38 34 34 34 35 39 40 43 37
3750.0 32 29 32 29 23 25 26 15 15 21
3790.0 22 19 17 17 19 25 27 31 25 16
3830.0 25 27 20 16 20
##END=
