##TITLE=3,5-Dimethylbenzyl bromide
##JCAMP-DX=4.24
##DATA TYPE=INFRARED SPECTRUM
##ORIGIN=EPA-IR VAPOR PHASE LIBRARY
##OWNER=SRD/NIST
Collection (C) 2018 copyright by the U.S. Secretary of Commerce
on behalf of the United States of America. All rights reserved.
##CAS REGISTRY NO=27129-86-8
##MOLFORM=C 9 H 11 Br
##$NIST SOURCE=MSDC-IR
##STATE=gas
##XUNITS=1/CM
##YUNITS=ABSORBANCE
##XFACTOR=1.
##YFACTOR=0.001
##DELTAX=1.92898
##FIRSTX=549.8
##LASTX=4000.7
##FIRSTY=1.0038
##MAXX=4000.7
##MINX=549.759
##MAXY=0.02451
##MINY=0
##NPOINTS=1790
##XYDATA=(X++(Y..Y))
549.759 1.0038 0.9028 1.0809 0.995 0.7122 0.4772 0.6022 0.5846 0.4822 0.555
569.049 0.626 0.7172 0.7211 0.5506 0.5537 0.7221 0.9804 1.48 1.85 2.09
588.339 2.74 3.88 5.74 7.74 9.41 10.49 10.73 10.38 9.71 8.88
607.628 7.21 5.36 4.24 3.41 2.81 2.73 2.99 3.29 3.92 4.86
626.918 5.6 6.53 7.54 7.72 7.81 7.77 7.1 6.29 5.49 4.82
646.208 4.33 3.86 3.5 3.19 2.83 2.53 2.31 2.12 2.06 2.25
665.498 2.2 2 2.01 2.15 2.53 2.83 3.16 3.86 4.62 5.56
684.787 6.7 8.02 9.57 11.12 12.34 13.15 13.54 13.08 11.58 9.8
704.077 8.33 6.95 5.72 4.67 3.58 2.62 1.98 1.7 1.47 1.2099
723.367 1.1188 1.207 1.0326 0.7305 0.643 0.6055 0.7442 0.7478 0.5229 0.5245
742.657 0.5153 0.5287 0.6641 0.6008 0.4275 0.36062 0.2417 0.2616 0.29991 0.280789
761.947 0.4739 0.4773 0.4807 0.6049 0.605 0.47 0.525 0.683 0.6821 0.6147
781.236 0.5924 0.6713 0.5574 0.4585 0.6965 0.765 0.6943 0.666 0.8009 0.8842
800.526 0.8628 0.9144 1.0087 1.0699 0.9871 1.0227 1.2302 1.39 1.62 1.91
819.816 2.05 2.29 2.72 3.15 3.34 3.52 3.78 3.99 4.35 4.86
839.106 5.52 6.23 6.98 7.65 8.42 8.74 8.12 7.21 6.4 5.69
858.395 4.89 4.09 3.57 3.18 2.68 2.29 2.13 1.93 1.72 1.5
877.685 1.49 1.54 1.29 1.1212 1.1538 1.1555 1.0059 0.7908 0.8984 1.0462
896.975 0.9285 1.063 1.2794 1.37 1.36 1.3 1.31 1.1899 1.2099 1.29
916.265 1.33 1.37 1.1383 1.0562 1.0887 0.9245 0.9885 1.36 1.59 1.52
935.555 1.54 1.59 1.6 1.74 1.71 1.68 1.72 1.73 1.69 1.69
954.844 1.68 1.48 1.32 1.1002 0.7528 0.7276 0.6747 0.6053 0.5608 0.5024
974.134 0.6404 0.7051 0.5824 0.7543 1.0236 0.8613 0.8178 0.7948 0.8253 1.1648
993.424 1.45 1.32 1.42 1.55 1.6 1.5 1.36 1.42 1.1624 0.9526
1012.714 0.9432 1.0679 0.9406 0.8201 0.8094 0.9388 1.0975 1.0409 1.144 1.44
1032.003 1.3 1.1266 1.1755 1.33 1.39 1.29 1.39 1.42 1.58 1.74
1051.293 1.52 1.44 1.51 1.44 1.32 1.2388 1.29 1.44 1.32 1.36
1070.583 1.33 1.0646 1.4 1.38 0.9699 0.8548 1.0833 0.5588 0.3856 0.7842
1089.873 0.7425 0.9976 1.0975 1.1174 1.1041 0.7919 0.7412 0.465 0.034 0.35193
1109.163 0.9839 1.2497 1.27 1.1799 0.9409 0.9669 1.0818 1.46 1.37 1.31
1128.452 1.5 1.43 1.62 1.88 1.84 1.6 1.72 2.17 2.18 1.97
1147.742 2.57 2.6 2.5 2.69 2.46 2.36 2.66 2.79 2.63 2.6
1167.032 2.66 2.58 2.23 1.74 1.2474 1.2495 1.63 2.02 2.32 2.53
1186.322 2.59 2.59 2.84 3.41 4.13 5.13 5.91 7.3 9.88 12.92
1205.611 16.48 19.95 22.78 24.2 24.51 23.71 21.8 19.22 15.97 12.72
1224.901 9.76 7.45 6.03 4.92 4.33 3.92 3.5 3.44 3.21 3.13
1244.191 2.82 2.67 2.71 2.47 2.28 1.97 1.77 1.76 1.77 1.57
1263.481 1.57 1.72 1.54 1.56 1.73 1.85 2.05 2.13 2.28 2.48
1282.771 2.84 3.42 3.97 4.56 5.29 5.95 6.54 6.95 7 6.69
1302.060 6.35 5.77 4.87 4.08 3.35 2.64 2.11 1.83 1.66 1.54
1321.350 1.44 1.31 1.32 1.35 1.34 1.38 1.35 1.29 1.3 1.38
1340.640 1.38 1.35 1.4 1.49 1.55 1.59 1.67 1.73 1.79 1.88
1359.930 1.95 2.04 2.19 2.22 2.24 2.36 2.5 2.67 2.87 3.06
1379.219 3.28 3.43 3.54 3.67 3.67 3.52 3.3 3.03 2.77 2.59
1398.509 2.48 2.43 2.41 2.41 2.45 2.43 2.4 2.41 2.4 2.42
1417.799 2.45 2.51 2.61 2.74 2.89 3.01 3.22 3.5 3.82 4.24
1437.089 4.82 5.37 5.89 6.41 6.9 7.4 7.74 7.9 7.96 7.84
1456.378 7.61 7.36 7.19 7 6.7 6.41 6.21 6.1 5.99 5.95
1475.668 5.93 5.86 5.78 5.79 5.78 5.69 5.61 5.45 5.3 5.14
1494.958 4.94 4.84 4.78 4.7 4.69 4.67 4.57 4.49 4.38 4.28
1514.248 4.16 4.15 4.2 4.14 4.14 4.16 4.21 4.25 4.32 4.36
1533.538 4.29 4.19 4.06 3.89 3.74 3.63 3.5 3.39 3.32 3.34
1552.827 3.26 3.16 3.24 3.32 3.3 3.36 3.49 3.6 3.67 3.75
1572.117 3.88 3.92 4.06 4.28 4.48 4.68 4.99 5.58 6.28 7.14
1591.407 8.18 9.44 10.97 12.59 14.23 15.87 17.19 17.82 17.64 16.75
1610.697 15.21 13.18 11.07 9 7.19 5.78 4.56 3.64 2.95 2.37
1629.986 1.95 1.67 1.46 1.31 1.2215 1.1339 0.9906 0.953 0.9169 0.7982
1649.276 0.8039 0.7893 0.7409 0.7047 0.723 0.6888 0.664 0.699 0.6519 0.5922
1668.566 0.5367 0.5583 0.6382 0.6319 0.6128 0.7076 0.7187 0.6566 0.6907 0.7742
1687.856 0.7882 0.7763 0.8078 0.8451 0.8524 0.8416 0.8635 0.9149 0.9446 0.9494
1707.146 0.9258 0.8813 0.9295 1.0151 1.0226 0.9944 1.0447 1.1457 1.2344 1.36
1726.435 1.47 1.6 1.7 1.68 1.69 1.77 1.79 1.72 1.68 1.71
1745.725 1.69 1.61 1.55 1.54 1.53 1.59 1.6 1.57 1.6 1.6
1765.015 1.58 1.56 1.5 1.48 1.45 1.32 1.2346 1.1508 1.0154 0.8894
1784.305 0.8135 0.7726 0.7366 0.7056 0.6236 0.5377 0.5262 0.5205 0.5721 0.5371
1803.594 0.4572 0.4903 0.524 0.4988 0.4897 0.5517 0.5215 0.4629 0.4788 0.4864
1822.884 0.4915 0.5005 0.5295 0.5332 0.4844 0.5711 0.5873 0.5366 0.5519 0.5129
1842.174 0.492 0.4885 0.4909 0.5105 0.4367 0.4234 0.4303 0.4025 0.4462 0.4469
1861.464 0.4805 0.5401 0.5261 0.4653 0.4762 0.5002 0.4841 0.4889 0.4853 0.4952
1880.754 0.5422 0.5292 0.6151 0.6595 0.5383 0.5278 0.6291 0.6804 0.7029 0.7307
1900.043 0.7062 0.7043 0.7002 0.6544 0.6276 0.5957 0.5594 0.5719 0.559 0.5142
1919.333 0.5136 0.5125 0.4808 0.5131 0.5595 0.5189 0.449 0.4401 0.5022 0.5583
1938.623 0.5967 0.5783 0.49 0.4314 0.4515 0.4928 0.4824 0.4175 0.4017 0.4376
1957.913 0.4779 0.4593 0.4138 0.4504 0.4455 0.4336 0.4303 0.4662 0.4943 0.4955
1977.202 0.4706 0.4573 0.5006 0.496 0.5003 0.4609 0.4966 0.5207 0.4792 0.5133
1996.492 0.4496 0.36558 0.4267 0.4831 0.4298 0.3809 0.3807 0.3816 0.4032 0.3891
2015.782 0.36794 0.35187 0.3055 0.32562 0.349 0.32596 0.33633 0.30529 0.27326 0.33745
2035.072 0.35023 0.29308 0.2545 0.27712 0.285315 0.27462 0.27213 0.2459 0.27174 0.2458
2054.362 0.2306 0.29609 0.34123 0.3034 0.2639 0.2516 0.27547 0.3836 0.37356 0.31989
2073.651 0.35429 0.32164 0.2992 0.30516 0.286019 0.29963 0.27138 0.288736 0.36241 0.3955
2092.941 0.34975 0.37731 0.4079 0.34343 0.36398 0.34751 0.30045 0.3623 0.3851 0.32823
2112.231 0.30937 0.395 0.4364 0.3832 0.36633 0.384 0.3969 0.35388 0.3304 0.34212
2131.521 0.33615 0.33195 0.33173 0.35472 0.35608 0.29584 0.279558 0.316 0.29094 0.29267
2150.810 0.30017 0.2491 0.2858 0.29696 0.30825 0.34067 0.33099 0.34418 0.37272 0.4283
2170.100 0.4052 0.37073 0.3882 0.289739 0.2312 0.29222 0.288945 0.21 0.2395 0.284271
2189.390 0.2911 0.35672 0.4115 0.4071 0.32114 0.2683 0.29236 0.27832 0.263 0.288198
2208.680 0.29498 0.32198 0.30183 0.2522 0.30255 0.36577 0.3808 0.3818 0.4003 0.4317
2227.970 0.4021 0.3813 0.4275 0.4414 0.4279 0.42 0.4044 0.3805 0.32364 0.30837
2247.259 0.30156 0.32494 0.3998 0.4588 0.415 0.37328 0.3866 0.34529 0.287781 0.34359
2266.549 0.3958 0.32111 0.31852 0.34926 0.3987 0.36972 0.35444 0.4421 0.4111 0.29157
2285.839 0.283216 0.3843 0.37783 0.34648 0.4046 0.4622 0.467 0.4347 0.3919 0.3979
2305.129 0.4081 0.4159 0.394 0.4294 0.51 0.5194 0.52 0.487 0.4365 0.4364
2324.418 0.4602 0.4329 0.4069 0.4199 0.4262 0.4579 0.48 0.4763 0.398 0.4128
2343.708 0.4687 0.3923 0.3898 0.37195 0.37672 0.4328 0.381 0.37728 0.36681 0.33899
2362.998 0.33661 0.31296 0.3866 0.36137 0.35822 0.4755 0.5008 0.4946 0.4471 0.4038
2382.288 0.4138 0.3987 0.4762 0.4722 0.4393 0.4495 0.4598 0.5066 0.4849 0.4831
2401.578 0.4776 0.4368 0.4069 0.4296 0.5154 0.5335 0.5188 0.5996 0.5833 0.5606
2420.867 0.5864 0.5603 0.5974 0.5803 0.5156 0.4697 0.3823 0.3872 0.4232 0.4429
2440.157 0.4629 0.4582 0.5016 0.5783 0.5562 0.4916 0.5243 0.5542 0.5342 0.5122
2459.447 0.4955 0.4902 0.5218 0.5072 0.4072 0.3999 0.4508 0.4567 0.4608 0.4426
2478.737 0.4105 0.3879 0.35478 0.33424 0.36409 0.36245 0.4415 0.4566 0.4159 0.4522
2498.026 0.5017 0.5079 0.3988 0.31769 0.37023 0.4055 0.4318 0.4747 0.4 0.32219
2517.316 0.36163 0.3946 0.4331 0.4123 0.35582 0.32568 0.2418 0.30068 0.34001 0.3052
2536.606 0.325 0.3818 0.36461 0.30625 0.31959 0.4082 0.47 0.36171 0.29032 0.37059
2555.896 0.35712 0.3519 0.35993 0.32844 0.3826 0.4257 0.3923 0.3879 0.4065 0.33891
2575.186 0.34029 0.31865 0.2499 0.2133 0.2203 0.33641 0.4189 0.445 0.4871 0.4476
2594.475 0.33875 0.4107 0.4393 0.31338 0.32218 0.4165 0.37116 0.34561 0.37754 0.3246
2613.765 0.279211 0.2545 0.29751 0.33326 0.2523 0.2496 0.30604 0.34905 0.4568 0.4427
2633.055 0.34983 0.33526 0.35786 0.35912 0.33433 0.3929 0.461 0.4544 0.4203 0.4279
2652.345 0.5246 0.5708 0.5055 0.5469 0.5875 0.6359 0.7194 0.6226 0.4862 0.35604
2671.634 0.35432 0.4118 0.4253 0.4099 0.484 0.5367 0.4628 0.3978 0.4376 0.499
2690.924 0.4672 0.4505 0.4563 0.4446 0.4324 0.4075 0.4137 0.5077 0.4542 0.3716
2710.214 0.35447 0.34833 0.4469 0.4751 0.438 0.508 0.612 0.6905 0.6805 0.6566
2729.504 0.7742 0.9095 0.885 0.9281 1.0771 1.1248 1.2084 1.29 1.2643 1.251
2748.794 1.2257 1.07 0.9764 0.9846 0.9244 0.776 0.6103 0.5866 0.6033 0.6046
2768.083 0.6428 0.649 0.656 0.6412 0.642 0.6622 0.6369 0.6053 0.5265 0.5607
2787.373 0.6494 0.5663 0.5914 0.6975 0.7462 0.7164 0.6911 0.7582 0.7826 0.722
2806.663 0.7542 0.8523 0.87 0.9294 1.023 1.1176 1.2328 1.2252 1.1616 1.28
2825.953 1.43 1.47 1.54 1.73 1.9 2.04 2.27 2.45 2.64 2.83
2845.242 3.07 3.3 3.42 3.66 4.06 4.42 4.76 5.14 5.59 6.25
2864.532 6.82 7.46 8.04 8.51 8.97 9.21 9.37 9.3 9.18 9
2883.822 8.66 8.32 8.05 7.87 7.63 7.46 7.59 7.8 8.04 8.33
2903.112 8.67 9.07 9.48 9.87 10.42 11.12 11.88 12.89 14.05 15.18
2922.401 16.56 17.9 18.98 19.84 20.4 20.52 20.32 19.76 18.81 17.67
2941.691 16.22 14.87 13.58 12.33 11.37 10.52 9.7 9.08 8.75 8.48
2960.981 8.28 8.12 8.03 8.16 8.27 8.43 8.72 9 9.19 9.12
2980.271 9.05 9.04 8.85 8.7 8.63 8.61 8.6 8.53 8.62 8.68
2999.561 8.85 9.28 9.66 10.09 10.75 11.55 12.45 13.56 14.79 16.17
3018.850 17.56 18.74 19.67 20.18 20.23 19.76 18.84 17.67 16.21 14.62
3038.140 13.15 11.76 10.49 9.36 8.42 7.73 7.24 6.75 6.22 5.71
3057.430 5.33 4.78 4.24 3.94 3.8 3.55 3.16 3.05 2.88 2.65
3076.720 2.52 2.42 2.36 2.3 2.24 2.18 2.07 1.89 1.84 1.81
3096.009 1.56 1.42 1.34 1.32 1.2315 1.1425 1.2052 1.1514 1.053 0.937
3115.299 0.9147 0.8939 0.8256 0.756 0.6879 0.7322 0.7374 0.7032 0.6624 0.5782
3134.589 0.5153 0.512 0.5491 0.524 0.4626 0.4018 0.33922 0.3901 0.4771 0.5337
3153.879 0.4389 0.2441 0.27507 0.34438 0.29272 0.30524 0.37894 0.3976 0.31017 0.29765
3173.169 0.32788 0.4069 0.5049 0.4558 0.5221 0.4949 0.3853 0.3927 0.4647 0.4364
3192.458 0.33823 0.279938 0.2697 0.3677 0.4544 0.3862 0.32197 0.31988 0.288659 0.4678
3211.748 0.4609 0.288981 0.184 0.1839 0.33489 0.4193 0.5329 0.5523 0.35445 0.283004
3231.038 0.282692 0.2474 0.3056 0.4023 0.35976 0.2438 0.29515 0.35787 0.29928 0.34414
3250.328 0.34743 0.3879 0.4791 0.30875 0.2639 0.35787 0.34338 0.30362 0.32966 0.4229
3269.617 0.4968 0.3812 0.35764 0.4978 0.4832 0.4168 0.4293 0.3639 0.2742 0.152
3288.907 0.2348 0.5383 0.5396 0.4537 0.5662 0.5125 0.4382 0.5023 0.3935 0.32165
3308.197 0.31767 0.36128 0.32724 0.166 0.26 0.35645 0.2234 0.2451 0.36852 0.32304
3327.487 0.2512 0.2642 0.30959 0.2309 0.2267 0.37268 0.4155 0.279342 0.151 0.154
3346.777 0.193 0.2487 0.27155 0.2492 0.280685 0.2089 0.171 0.2505 0.259 0.2147
3366.066 0.11 0.13 0.27648 0.1957 0 0.2191 0.37772 0.31422 0.2679 0.289347
3385.356 0.4517 0.4788 0.283698 0.27021 0.3827 0.32803 0.27502 0.2431 0.30519 0.4138
3404.646 0.36973 0.3858 0.3799 0.2612 0.147 0.174 0.2644 0.2138 0.1951 0.35436
3423.936 0.4489 0.32734 0.31307 0.280861 0.121 0.111 0.2514 0.3606 0.36182 0.35825
3443.225 0.37568 0.448 0.4999 0.4011 0.37245 0.36918 0.37294 0.4123 0.3103 0.1878
3462.515 0.286677 0.4076 0.4792 0.448 0.33153 0.4061 0.4247 0.2505 0.1972 0.2515
3481.805 0.36363 0.4808 0.4993 0.32087 0.2379 0.287022 0.282585 0.4261 0.37867 0.15
3501.095 0.136 0.29775 0.30243 0.2642 0.285115 0.37149 0.33422 0.1866 0.2191 0.35763
3520.385 0.2686 0.171 0.33777 0.4458 0.35691 0.27229 0.4166 0.4362 0.3921 0.37165
3539.674 0.27332 0.144 0.31516 0.5023 0.3923 0.37591 0.424 0.4459 0.35976 0.281221
3558.964 0.2621 0.3349 0.4109 0.37369 0.36805 0.36365 0.2298 0.153 0.2232 0.288065
3578.254 0.285497 0.177 0.138 0.2176 0.2095 0.27684 0.3601 0.3892 0.35396 0.37184
3597.544 0.34602 0.2524 0.2492 0.2466 0.142 0.26 0.3954 0.286294 0.30572 0.31956
3616.833 0.36394 0.30681 0.2055 0.124 0.024 0.069 0.148 0.2488 0.3813 0.36239
3636.123 0.30366 0.31949 0.2536 0.282699 0.3846 0.34114 0.2093 0.27747 0.2275 0.072
3655.413 0.1986 0.2355 0.31073 0.32382 0.29988 0.37071 0.2173 0.2492 0.2641 0.2314
3674.703 0.2945 0.28893 0.31331 0.35787 0.4252 0.4487 0.2203 0.031 0.098 0.27742
3693.993 0.286693 0.2242 0.29146 0.2186 0.1944 0.286371 0.3921 0.37534 0.2775 0.31486
3713.282 0.29914 0.2084 0.208 0.229 0.34363 0.3406 0.2516 0.134 0.113 0.075
3732.572 0.112 0.2379 0.2376 0.2571 0.35392 0.389 0.36545 0.36522 0.3483 0.2466
3751.862 0.137 0.2017 0.1934 0.067 0.034 0.113 0.156 0.30817 0.4151 0.2907
3771.152 0.137 0.179 0.27457 0.2226 0.236 0.34636 0.36258 0.36994 0.4345 0.4445
3790.441 0.33454 0.32096 0.286813 0.2401 0.27852 0.2306 0.2075 0.2108 0.2469 0.2411
3809.731 0.2552 0.2337 0.112 0.116 0.288039 0.32733 0.2554 0.2493 0.2114 0.1842
3829.021 0.2152 0.27713 0.31389 0.35672 0.4406 0.3934 0.288396 0.30742 0.23 0.177
3848.311 0.2067 0.3101 0.4556 0.4217 0.4198 0.31732 0.2184 0.164 0.2396 0.35752
3867.601 0.30669 0.37352 0.36904 0.281247 0.2408 0.2167 0.4462 0.5462 0.2239 0.053
3886.890 0.2014 0.27984 0.2084 0.2567 0.34874 0.3986 0.5218 0.5632 0.4972 0.5164
3906.180 0.4207 0.3883 0.4179 0.35683 0.37605 0.441 0.30267 0.175 0.35428 0.31419
3925.470 0.174 0.2 0.2317 0.2431 0.29283 0.29088 0.3814 0.4869 0.5075 0.4556
3944.760 0.32682 0.3971 0.4845 0.4253 0.4227 0.5392 0.6778 0.7043 0.5516 0.4343
3964.049 0.4414 0.3991 0.213 0.30994 0.6422 0.6678 0.5579 0.5283 0.5123 0.435
3983.339 0.3571 0.2928 0.31946 0.4559 0.4875 0.4327 0.31551 0.156 0.132 0.35108
##END=
