##TITLE=2,5-Difluorophenol
##JCAMP-DX=4.24
##DATA TYPE=INFRARED SPECTRUM
##ORIGIN=EPA-IR VAPOR PHASE LIBRARY
##OWNER=SRD/NIST
Collection (C) 2018 copyright by the U.S. Secretary of Commerce
on behalf of the United States of America. All rights reserved.
##CAS REGISTRY NO=2713-31-7
##MOLFORM=C 6 H 4 F 2 O
##$NIST SOURCE=MSDC-IR
##STATE=gas
##XUNITS=1/CM
##YUNITS=ABSORBANCE
##XFACTOR=1.
##YFACTOR=0.001
##DELTAX=1.92898
##FIRSTX=549.8
##LASTX=4000.7
##FIRSTY=3.702
##MAXX=4000.7
##MINX=549.759
##MAXY=0.840302
##MINY=0
##NPOINTS=1790
##XYDATA=(X++(Y..Y))
549.759 3.702 3.472 2.942 2.832 3.592 4.182 3.852 4.282 4.892 4.602
569.049 4.812 5.492 6.582 7.762 8.192 8.472 8.402 9.312 11.532 12.712
588.339 13.712 15.552 16.442 17.082 17.732 18.142 19.662 22.262 25.312 27.612
607.628 26.272 21.512 17.932 15.852 14.552 14.052 13.262 12.062 10.622 8.862
626.918 7.022 6.132 5.642 4.812 4.442 4.222 3.572 3.332 3.122 2.952
646.208 3.182 3.062 2.992 3.412 4.012 4.482 4.882 5.342 5.682 5.812
665.498 5.382 5.192 5.642 5.402 5.372 5.682 5.312 5.162 4.922 4.902
684.787 4.682 4.372 4.622 4.712 4.572 4.422 4.352 4.472 5.162 5.902
704.077 6.852 8.452 10.902 14.972 21.582 30.212 40.092 50.542 59.382 67.552
723.367 76.462 82.552 85.322 90.752 96.732 98.102 96.202 92.032 86.792 79.892
742.657 70.802 61.672 53.892 48.042 44.682 43.212 43.582 48.102 58.572 76.432
761.947 102.132 130.932 155.252 169.832 175.932 183.692 195.822 193.862 186.372 196.742
781.236 203.572 186.322 155.992 127.362 109.452 105.952 115.782 132.722 135.982 112.022
800.526 87.322 77.572 73.322 69.062 64.832 59.822 53.622 47.472 41.682 36.752
819.816 32.492 30.142 29.672 29.692 31.162 35.002 41.662 51.132 58.342 61.912
839.106 66.872 72.712 77.572 81.882 86.402 94.732 115.062 152.932 172.292 132.572
858.395 92.312 81.182 76.722 72.852 67.702 60.162 51.012 42.122 33.442 26.142
877.685 20.222 15.452 12.332 10.032 8.492 7.942 7.682 6.962 6.642 6.892
896.975 7.312 7.602 7.902 7.842 7.892 8.402 8.392 8.662 9.172 9.662
916.265 10.852 11.722 10.602 9.122 8.632 9.102 9.622 10.302 11.512 13.242
935.555 15.242 17.102 19.562 23.102 27.502 33.862 42.972 54.982 71.592 92.222
954.844 114.312 133.712 144.242 144.522 141.452 145.652 146.892 140.812 140.112 135.662
974.134 119.402 95.392 70.042 49.012 34.712 25.802 19.592 15.432 12.802 10.722
993.424 9.542 8.952 8.192 7.692 7.512 7.382 6.922 6.502 6.382 6.352
1012.714 5.862 5.672 5.872 5.582 5.222 5.102 5.282 5.502 5.782 5.322
1032.003 4.992 5.482 5.682 6.222 7.222 8.152 8.322 8.302 9.202 10.522
1051.293 11.222 10.422 10.032 11.232 12.402 12.792 12.932 13.122 12.932 13.322
1070.583 15.112 16.412 17.982 20.702 23.322 27.392 32.462 35.872 38.942 40.812
1089.873 38.832 34.802 33.872 37.452 41.132 41.382 37.682 32.782 29.112 27.862
1109.163 26.362 25.822 27.642 30.772 38.142 50.152 68.162 97.452 139.552 194.012
1128.452 257.852 320.822 370.602 398.502 412.372 431.202 443.892 430.712 429.302 435.982
1147.742 405.802 345.032 273.112 205.072 151.962 116.012 95.372 85.642 80.852 78.942
1167.032 76.612 72.082 68.332 64.932 61.572 59.522 57.562 55.372 51.682 46.432
1186.322 42.022 39.022 37.352 36.812 38.242 40.632 43.222 48.002 54.382 60.182
1205.611 66.602 73.512 80.572 91.602 107.942 130.832 160.482 193.102 228.642 262.982
1224.901 290.862 309.662 317.682 321.802 330.822 337.372 336.672 336.282 320.072 282.882
1244.191 237.312 194.372 159.482 135.032 120.392 112.932 111.912 115.572 121.762 128.292
1263.481 133.592 134.982 133.442 134.142 142.432 155.492 165.902 170.912 172.142 173.192
1282.771 176.652 183.012 190.182 195.882 199.092 200.232 198.942 196.232 194.212 193.982
1302.060 195.312 193.882 183.742 165.452 145.472 127.662 112.552 99.442 87.932 77.582
1321.350 68.532 60.962 54.822 49.992 46.272 43.942 42.592 41.392 39.402 35.792
1340.640 30.922 26.072 21.782 18.292 15.592 13.302 11.422 9.892 8.792 8.132
1359.930 7.642 7.352 7.062 6.632 6.452 6.422 6.422 6.472 6.632 6.812
1379.219 6.932 7.142 7.512 7.842 8.232 8.832 9.372 9.832 10.052 9.932
1398.509 9.632 9.342 9.342 9.412 9.392 9.292 9.002 8.672 8.532 8.562
1417.799 8.812 9.492 10.442 11.662 13.062 14.502 16.002 17.382 18.832 20.722
1437.089 23.432 26.962 31.452 36.972 43.542 51.152 58.952 65.802 70.972 73.822
1456.378 75.022 75.882 76.812 76.392 74.412 73.072 71.132 66.382 60.572 56.732
1475.668 57.002 61.402 68.972 79.142 92.592 110.742 135.582 169.932 216.522 276.432
1494.958 350.972 440.982 539.472 636.842 721.302 781.532 816.512 833.822 840.302 833.272
1514.248 806.152 768.722 722.432 648.212 541.502 426.962 326.852 251.832 200.962 165.092
1533.538 137.002 114.152 94.172 77.782 65.562 55.772 47.912 42.332 38.782 36.542
1552.827 35.152 34.142 32.952 31.502 30.062 28.532 27.232 26.182 25.792 26.022
1572.117 26.172 26.642 27.392 28.412 29.852 31.402 32.992 34.742 36.862 39.322
1591.407 42.422 46.672 51.372 56.432 62.682 69.702 77.302 86.042 95.762 106.572
1610.697 118.052 129.642 141.452 153.762 166.132 178.262 188.622 194.602 194.332 188.072
1629.986 178.722 167.632 156.492 147.552 140.182 132.032 121.082 107.912 93.992 80.722
1649.276 68.842 59.132 51.662 45.232 39.202 33.792 28.922 24.512 20.612 17.442
1668.566 15.332 13.942 13.012 12.082 11.402 11.002 10.572 10.252 9.862 9.472
1687.856 9.292 9.302 9.572 10.112 10.672 11.152 11.452 11.562 11.542 11.372
1707.146 11.072 10.952 10.952 10.562 9.782 8.922 8.042 7.132 6.262 5.502
1726.435 4.882 4.442 4.152 3.902 3.662 3.522 3.502 3.362 3.202 3.272
1745.725 3.252 3.242 3.202 3.052 3.152 3.262 3.252 3.102 3.112 3.312
1765.015 3.272 3.182 3.072 2.962 2.992 3.072 3.062 2.942 2.832 2.672
1784.305 2.572 2.562 2.592 2.592 2.742 2.922 2.982 3.262 3.532 3.842
1803.594 4.342 4.812 5.322 5.942 6.702 7.612 8.552 9.442 10.212 10.932
1822.884 11.632 12.232 12.412 12.062 11.552 11.172 11.022 11.042 10.742 10.002
1842.174 8.982 7.962 7.182 6.592 6.252 6.132 6.082 6.142 6.332 6.372
1861.464 6.472 6.652 6.662 6.622 6.532 6.542 6.512 6.232 5.772 5.392
1880.754 4.992 4.672 4.492 4.332 4.292 4.292 4.172 4.072 4.022 3.922
1900.043 3.872 3.742 3.552 3.432 3.252 3.002 2.952 2.962 2.732 2.462
1919.333 2.372 2.432 2.422 2.252 2.052 1.902 1.872 1.912 1.992 2.192
1938.623 2.132 2.072 2.192 2.222 2.202 2.112 2.232 2.392 2.232 2.112
1957.913 2.062 1.892 1.832 1.892 1.992 2.012 1.802 1.732 1.842 2.012
1977.202 2.152 2.172 2.142 2.192 2.442 2.582 2.582 2.632 2.712 2.852
1996.492 3.072 3.262 3.412 3.562 3.682 3.762 3.742 3.712 3.672 3.542
2015.782 3.452 3.292 3.052 2.872 2.752 2.622 2.512 2.352 2.292 2.332
2035.072 2.362 2.432 2.522 2.762 2.962 2.902 2.852 2.962 3.132 3.322
2054.362 3.402 3.272 3.302 3.512 3.382 3.242 3.172 2.982 2.962 2.982
2073.651 2.942 2.852 2.762 2.722 2.592 2.452 2.422 2.432 2.472 2.342
2092.941 2.162 2.232 2.292 2.252 2.102 2.072 2.112 2.072 1.982 1.882
2112.231 1.782 1.592 1.482 1.322 1.232 1.272 1.262 1.2102 1.1298 1.0249
2131.521 1.122 1.0717 0.9834 1.0563 0.8222 0.7025 0.8334 0.9151 0.8587 0.8468
2150.810 0.933 0.9523 0.8602 0.7673 0.6493 0.5908 0.7509 0.8269 0.8126 0.867
2170.100 0.9842 1.1267 1.0934 1.0755 1.2209 1.362 1.372 1.412 1.482 1.572
2189.390 1.772 1.902 1.842 1.752 1.662 1.582 1.572 1.612 1.692 1.662
2208.680 1.662 1.702 1.612 1.482 1.402 1.612 1.882 2.182 2.352 2.362
2227.970 2.562 2.602 2.562 2.742 3.032 3.212 3.112 2.982 3.072 3.132
2247.259 3.192 3.202 3.202 3.362 3.382 3.442 3.712 3.912 4.002 4.312
2266.549 4.702 4.742 4.702 4.912 5.102 5.112 5.102 5.132 5.162 5.042
2285.839 4.862 4.532 4.252 4.132 3.942 3.712 3.472 3.292 3.142 2.982
2305.129 3.102 3.212 3.142 3.262 3.352 3.282 3.262 3.382 3.602 3.562
2324.418 3.472 3.552 3.592 3.562 3.472 3.422 3.392 3.462 3.452 3.582
2343.708 3.812 3.852 3.932 4.092 4.212 4.202 4.122 3.942 3.812 3.692
2362.998 3.582 3.582 3.552 3.462 3.482 3.442 3.292 3.292 3.332 3.432
2382.288 3.672 3.842 4.132 4.602 4.812 4.892 5.132 5.502 5.802 5.902
2401.578 6.022 6.212 6.312 6.382 6.352 6.242 6.112 5.902 5.772 5.862
2420.867 5.942 5.892 6.162 6.792 7.062 7.042 7.132 7.282 7.372 7.352
2440.157 7.342 7.242 6.892 6.672 6.662 6.222 5.672 5.492 5.472 5.272
2459.447 5.012 4.812 4.612 4.452 4.292 4.232 4.262 4.332 4.212 3.952
2478.737 3.782 3.632 3.542 3.592 3.612 3.492 3.732 4.022 3.902 3.792
2498.026 3.912 3.972 3.892 3.742 3.732 3.722 3.612 3.392 2.962 2.632
2517.316 2.552 2.502 2.352 2.442 2.692 2.732 2.552 2.452 2.452 2.452
2536.606 2.542 2.632 2.702 2.782 2.762 2.782 2.702 2.802 2.882 2.652
2555.896 2.562 2.702 2.752 2.712 2.682 2.582 2.522 2.562 2.532 2.412
2575.186 2.722 2.962 2.942 3.252 3.402 3.522 3.882 4.052 4.132 4.292
2594.475 4.262 4.242 4.152 3.982 3.932 3.792 3.622 3.302 2.942 2.692
2613.765 2.542 2.212 1.842 1.812 1.722 1.722 1.672 1.642 1.612 1.422
2633.055 1.532 1.832 1.932 1.992 2.092 2.102 2.012 2.032 1.982 1.802
2652.345 1.722 1.752 1.842 1.682 1.602 1.622 1.452 1.422 1.332 1.0418
2671.634 1.081 1.252 1.1204 1.1535 1.0375 0.797 0.9632 1.0523 0.8509 0.6729
2690.924 0.7393 0.7732 0.6596 0.6623 0.7955 0.7882 0.8217 0.8184 0.7333 0.6409
2710.214 0.6468 0.7476 0.8115 0.9104 0.8541 0.9854 1.1048 1.1774 1.462 1.502
2729.504 1.442 1.532 1.782 1.902 2.032 2.062 2.132 2.392 2.552 2.592
2748.794 2.712 2.932 3.012 2.952 2.942 2.842 2.792 2.962 2.992 2.882
2768.083 2.812 2.602 2.562 2.742 2.802 2.782 2.712 2.672 2.712 2.652
2787.373 2.532 2.532 2.422 2.372 2.282 2.102 2.182 2.142 1.942 1.842
2806.663 1.912 1.872 1.722 1.492 1.442 1.462 1.362 1.302 1.252 1.153
2825.953 1.1574 1.2101 1.1778 1.1431 1.13 1.0785 0.996 0.8924 0.9267 1.252
2845.242 1.2103 1.072 1.1095 1.1628 1.0204 0.8543 0.9158 0.9984 1.0322 1.1638
2864.532 1.1253 1.064 1.139 1.0954 1.0463 1.0441 0.8851 0.7423 1.0064 1.2287
2883.822 1.116 1.1604 1.1596 1.1353 1.282 1.252 1.262 1.312 1.332 1.1724
2903.112 1.119 1.312 1.332 1.312 1.272 1.2003 1.302 1.282 1.11 1.2052
2922.401 1.252 1.412 1.532 1.462 1.412 1.372 1.422 1.2317 1.0638 1.262
2941.691 1.262 1.2201 1.412 1.0953 1.0526 1.282 1.1421 1.174 1.302 1.352
2960.981 1.402 1.146 1.0062 0.9723 0.9738 1.0898 0.8929 0.8536 0.9583 0.9495
2980.271 0.5326 0.239871 0.1478 0.036 0.1509 0.3449 0.25749 0.2076 0.25441 0.1376
2999.561 0.199 0.4408 0.496 0.4367 0.3465 0.4287 0.4966 0.3496 0.3664 0.434
3018.850 0.4653 0.4386 0.24789 0.3058 0.4303 0.3322 0.3527 0.32081 0.31398 0.29711
3038.140 0.354 0.4792 0.7174 1.0251 0.9624 1.1159 1.562 1.632 1.622 1.772
3057.430 1.852 2.302 2.822 2.992 3.162 3.512 3.662 3.732 3.892 3.872
3076.720 3.942 3.852 3.922 4.222 4.112 3.952 3.852 3.682 3.582 3.572
3096.009 3.472 3.432 3.262 2.722 2.352 2.182 2.082 1.892 1.602 1.0671
3115.299 0.9281 1.0318 0.8572 0.5588 0.5406 0.7736 0.5639 0.27001 0.2153 0.26595
3134.589 0.4357 0.5722 0.7957 1.0105 0.817 0.7718 0.6579 0.5343 0.5602 0.3482
3153.879 0.4165 0.5642 0.3732 0.233832 0.2104 0.204 0.2077 0.078 0.001 0.072
3173.169 0.3946 0.6587 0.605 0.32564 0.1506 0.32906 0.3702 0.422 0.3389 0.209
3192.458 0.25786 0.24822 0.4957 0.5129 0.353 0.4869 0.4168 0.27528 0.4305 0.5687
3211.748 0.6081 0.5506 0.595 0.8659 1.0883 1.1117 1.2227 1.562 1.622 1.572
3231.038 1.802 2.312 2.542 2.952 3.412 3.412 3.332 3.162 2.872 2.622
3250.328 2.742 2.622 2.542 2.532 2.512 2.442 2.322 2.262 2.192 2.142
3269.617 1.912 1.702 1.902 2.092 1.782 1.632 1.562 1.632 1.792 1.812
3288.907 1.552 1.1864 1.302 1.742 1.842 1.622 1.422 1.2074 1.1441 0.9764
3308.197 1.0084 1.432 1.832 1.662 1.512 1.652 1.612 1.822 2.152 2.282
3327.487 1.992 1.782 2.032 1.992 1.712 1.962 1.772 1.392 1.562 1.382
3346.777 1.1505 1.1314 0.9839 0.785 0.734 0.8749 0.935 0.8332 0.7219 0.736
3366.066 0.9126 1.0178 0.7614 0.6653 0.8139 0.8157 0.8227 0.9849 1.175 1.1083
3385.356 1.0478 1.0018 0.8017 0.9454 0.8529 0.7097 0.8439 0.9403 0.9254 0.7901
3404.646 1.0419 1.0275 0.8487 0.884 0.9835 0.9524 0.7684 0.6936 0.6085 0.726
3423.936 0.8466 0.6708 0.574 0.5965 0.6913 0.5593 0.4036 0.4025 0.4834 0.36
3443.225 0.153 0.3558 0.5582 0.4577 0.1937 0 0.4002 0.4512 0.1444 0.1999
3462.515 0.3818 0.5041 0.3896 0.3876 0.4611 0.3819 0.4539 0.5284 0.234694 0.073
3481.805 0.051 0.3663 0.6397 0.5255 0.6627 0.7147 0.3811 0.1607 0.2088 0.231594
3501.095 0.059 0.003 0 0.31323 0.4884 0.3654 0.364 0.6007 0.9062 0.6712
3520.385 0.483 0.6348 0.5099 0.117 0.27964 0.5974 0.5631 0.4282 0.32843 0.3769
3539.674 0.30344 0.3622 0.5585 0.831 1.282 1.352 1.0884 1.242 1.2283 1.1325
3558.964 1.432 1.662 2.042 1.882 1.342 1.442 1.772 1.992 2.042 2.032
3578.254 2.172 2.502 2.682 2.962 3.672 4.402 4.762 5.002 5.762 7.132
3597.544 9.022 11.142 14.682 20.122 28.422 42.082 63.072 94.372 136.402 185.642
3616.833 233.652 270.142 287.422 292.812 300.782 308.992 304.182 289.542 279.222 258.582
3636.123 215.612 163.162 115.252 79.332 56.512 43.962 36.792 32.162 28.492 24.922
3655.413 22.032 20.932 21.232 21.332 19.722 16.682 13.732 10.872 8.622 7.192
3674.703 5.842 4.742 3.912 3.312 3.032 2.672 2.182 1.932 1.882 1.632
3693.993 1.302 1.352 1.532 1.612 1.492 1.2088 0.9777 1.032 1.0697 1.1775
3713.282 1.2294 0.9047 0.7814 0.9219 0.9436 0.9588 0.9737 0.9951 0.8597 0.7051
3732.572 0.7701 0.8168 0.7545 0.7208 0.6326 0.4126 0.6294 0.5766 0.3455 0.4934
3751.862 0.5131 0.4928 0.752 0.8865 0.7443 0.53 0.3939 0.2755 0.31914 0.6021
3771.152 0.6391 0.5792 0.5848 0.6695 0.8299 0.7991 0.7433 0.7202 0.8014 0.847
3790.441 0.9404 1.043 1.0386 1.242 1.232 1.0727 1.0266 1.128 0.9466 1.0783
3809.731 1.0846 0.894 1.2045 1.292 1.342 1.292 1.262 1.1563 1.282 1.562
3829.021 1.252 1.1417 1.372 1.282 1.422 1.812 1.652 1.1274 0.9949 1.642
3848.311 2.002 1.822 1.412 1.322 1.722 1.742 1.402 1.232 1.392 1.482
3867.601 1.522 1.312 1.252 1.482 1.422 1.382 1.312 1.119 1.1935 0.957
3886.890 0.7964 0.7521 0.7721 0.9982 1.0056 1.0992 1.542 1.662 1.722 1.942
3906.180 2.152 2.282 2.062 2.292 2.722 2.762 2.452 2.532 2.962 2.902
3925.470 2.712 2.472 2.012 2.062 2.422 2.352 1.782 1.632 1.752 1.742
3944.760 1.392 1.372 1.482 1.402 1.562 1.402 1.292 1.522 1.402 1.228
3964.049 1.322 1.382 1.482 1.432 1.352 1.2002 1.472 1.952 2.002 1.902
3983.339 1.872 1.852 1.702 1.682 1.672 1.422 1.402 1.782 1.992 1.792
##END=
