##TITLE=4,4'-Dimethoxy-N-methyldiphenylamine
##JCAMP-DX=4.24
##DATA TYPE=INFRARED SPECTRUM
##ORIGIN=EPA-IR VAPOR PHASE LIBRARY
##OWNER=SRD/NIST
Collection (C) 2018 copyright by the U.S. Secretary of Commerce
on behalf of the United States of America. All rights reserved.
##CAS REGISTRY NO=27151-57-1
##MOLFORM=C 15 H 17 N O 2
##$NIST SOURCE=MSDC-IR
##STATE=gas
##XUNITS=1/CM
##YUNITS=ABSORBANCE
##XFACTOR=1.
##YFACTOR=0.001
##DELTAX=1.92898
##FIRSTX=549.8
##LASTX=4000.7
##FIRSTY=33.81
##MAXX=4000.7
##MINX=549.759
##MAXY=0.85486
##MINY=0
##NPOINTS=1790
##XYDATA=(X++(Y..Y))
549.759 33.81 35.96 37.85 39.35 40.72 42.23 43.21 44.14 44.98 44.29
569.049 42.89 41.48 39.39 37.13 34.29 31.2 27.97 24.54 21.59 19.14
588.339 17.32 15.62 13.74 12.14 11.07 9.97 9.26 8.99 8.74 8.01
607.628 7.35 7.04 6.61 6.62 6.39 5.77 5.72 5.27 5.13 5.17
626.918 5.04 5.85 6.2 6.01 5.9 6.01 6.54 7.02 7.21 7.31
646.208 7.36 7.7 7.61 7.28 7.44 7.22 6.8 6.43 6.23 5.77
665.498 5.05 4.93 4.95 4.72 4.5 4.4 4.55 4.83 4.57 4.23
684.787 4.07 4.15 4.53 4.6 4.52 4.58 4.81 5.01 5.14 5.34
704.077 5.5 5.64 5.95 6.32 6.58 7.08 7.52 7.89 8.8 9.24
723.367 9.58 10.45 11.21 11.99 12.25 12.39 12.3 11.84 11.69 11.45
742.657 11.25 11.47 11.69 12.12 13.55 15.81 19.66 25.68 33.96 45.11
761.947 56.34 63.6 65.17 61.11 52.28 41.1 31.27 24.26 20.25 18
781.236 16.85 16.39 16.21 16.67 17.3 18.1 19.4 21.39 23.31 25.17
800.526 27.47 29.95 32.56 35.22 38.55 42.74 47.49 52.92 58.41 63.55
819.816 67.91 70.5 71.24 71.48 71 69.7 67.92 65.68 62.86 58.59
839.106 53.87 48.28 42.14 36.59 31.45 27.05 23.52 20.99 19.42 18.38
858.395 17.9 18.35 19.68 21.58 23.35 24.34 24.38 22.93 20.22 17.06
877.685 14.34 12.1 10.12 9.05 8.31 7.47 6.65 6.12 6.01 5.79
896.975 5.4 5.02 4.57 4.23 4.16 4.11 4.11 4.03 3.99 3.9
916.265 3.43 3.47 3.85 3.9 4.07 4.15 4.05 4.15 4.04 3.78
935.555 3.94 4.01 4.13 4.25 4.36 4.61 4.67 4.8 4.92 5.12
954.844 5.48 5.58 5.58 5.84 6.21 6.77 7.04 7.09 7.51 8.33
974.134 8.75 9.12 9.6 9.98 10.87 11.79 12.76 13.55 14.52 15.64
993.424 16.6 17.75 19.07 20.82 23.01 25.36 27.42 29.72 32.63 35.57
1012.714 38.07 40.79 44.67 49.99 56.75 64.39 72.94 82.71 93.4 105.38
1032.003 118.59 130.95 141.17 149.24 152.89 151.48 145.91 135.67 122.95 108.8
1051.293 94.56 82 72.21 64.41 58.7 55.87 53.56 51.99 51.2 49.7
1070.583 47.76 45.79 43.6 40.87 37.4 32.81 29.6 28.28 27.01 26.74
1089.873 27.5 28.8 31.35 34.67 37.3 39.63 41.62 43.13 45.15 46.48
1109.163 48.05 49.88 50.66 50.91 51.76 53.39 55.15 56.7 59.36 63.56
1128.452 66.92 69.17 68.42 65.58 60.55 54.33 48.59 43.41 39.55 36.97
1147.742 36.1 36.02 36.62 37.77 40.53 44.2 49.27 57.14 65.95 75.6
1167.032 85.23 92.25 95.79 96.12 93.86 90.17 86.36 81.81 76.14 69.73
1186.322 63.2 56.95 51.78 48.92 47.79 47.12 47.44 49.31 51.48 53.88
1205.611 57.37 62.36 67.49 73.95 82.17 89.98 99.68 113.52 130.02 151.01
1224.901 177.09 209.76 251.16 300.41 358.34 422.16 487.19 543 577.74 587.47
1244.191 570.52 528.98 472.37 413.46 361.39 317.67 281.46 253.13 231.18 213.81
1263.481 200.16 189.34 180.24 172.68 166.11 160.02 154.08 148 141.89 135.87
1282.771 129.77 123.08 115.81 108.34 101.11 93.74 86.42 79.32 72.71 67.01
1302.060 61.82 57.19 53.31 50.21 47.91 46.11 44.82 44.02 43.57 43.47
1321.350 43.66 43.94 44.2 44.34 44.26 43.84 42.78 41.2 39.17 36.67
1340.640 33.96 31.29 28.71 26.26 24.16 22.3 20.7 19.37 18.25 17.28
1359.930 16.4 15.61 15.04 14.59 14.1 13.49 12.97 12.73 12.51 12.19
1379.219 11.95 11.84 11.69 11.58 11.56 11.57 11.66 11.96 12.25 12.49
1398.509 12.92 13.43 13.98 14.65 15.51 16.33 17.18 18.22 19.28 20.46
1417.799 21.72 23.01 24.47 26.12 28 30.12 32.66 35.7 39.47 44.15
1437.089 49.94 56.93 64.67 71.85 76.74 78.78 78.09 75.39 72.43 70.84
1456.378 71.23 73.58 77.39 82.35 88.08 93.62 97.69 99.63 99.64 98.1
1475.668 96.18 95.79 98.28 104.26 114.61 130.29 152.51 183.31 225.8 282.92
1494.958 357.89 452.99 563.86 680.17 782.57 845.93 854.86 808.51 715.01 595.06
1514.248 475.43 373.59 294.1 233.61 186.46 150.26 122.31 101.06 84.85 72.47
1533.538 63.12 55.98 50.35 45.77 41.78 38.57 36.09 33.92 32.06 30.58
1552.827 29.4 28.44 27.72 27.29 27.09 26.89 27.09 27.44 27.73 28.19
1572.117 28.56 28.96 29.3 29.19 28.89 28.4 27.4 26.31 25.33 24.21
1591.407 23.29 22.78 22.55 22.38 22.17 22.03 21.96 21.83 21.61 21.46
1610.697 21.25 20.94 20.56 20.1 19.65 19.24 18.72 18.09 17.6 17.14
1629.986 16.73 16.33 15.79 15.16 14.57 13.91 13.3 12.7 12.03 11.46
1649.276 10.95 10.31 9.6 9.24 8.96 8.57 8.16 7.85 7.6 7.21
1668.566 6.85 6.61 6.39 6.26 6.24 6.12 5.97 5.78 5.51 5.47
1687.856 5.46 5.38 5.38 5.34 5.26 5.19 5.16 5.24 5.32 5.29
1707.146 5.26 5.22 5.21 5.27 5.35 5.37 5.35 5.51 5.61 5.64
1726.435 5.76 5.83 5.95 5.97 5.91 5.98 6.04 5.94 5.82 5.76
1745.725 5.72 5.55 5.36 5.2 5.05 4.94 4.9 4.9 4.81 4.68
1765.015 4.59 4.62 4.6 4.61 4.73 4.72 4.67 4.67 4.77 4.8
1784.305 4.69 4.77 4.83 4.75 4.77 4.87 4.92 4.99 5.19 5.38
1803.594 5.55 5.69 5.78 5.9 5.89 5.75 5.71 5.68 5.6 5.66
1822.884 5.78 5.85 5.95 6.03 6.09 6.15 6.26 6.4 6.52 6.59
1842.174 6.62 6.76 6.86 6.82 6.88 6.94 6.92 6.94 6.91 6.9
1861.464 6.98 7.1 7.17 7.29 7.4 7.49 7.62 7.69 7.63 7.4
1880.754 7.17 6.97 6.74 6.47 6.15 5.93 5.78 5.57 5.33 5.08
1900.043 4.77 4.57 4.41 4.17 4 3.85 3.72 3.64 3.6 3.57
1919.333 3.56 3.57 3.62 3.66 3.77 3.88 3.95 4.12 4.2 4.27
1938.623 4.35 4.32 4.28 4.19 4.1 3.99 3.96 3.97 3.88 3.86
1957.913 3.87 3.91 4.04 4.09 4.16 4.31 4.44 4.56 4.59 4.66
1977.202 4.77 4.87 5.09 5.27 5.35 5.41 5.38 5.41 5.61 5.78
1996.492 5.83 5.89 6.04 6.21 6.37 6.55 6.56 6.5 6.54 6.51
2015.782 6.39 6.4 6.39 6.28 6.24 6.34 6.6 6.93 7.19 7.48
2035.072 7.81 8.16 8.53 8.82 9.07 9.34 9.53 9.57 9.52 9.46
2054.362 9.44 9.44 9.37 9.21 8.99 8.91 8.78 8.57 8.55 8.43
2073.651 8.23 8.01 7.71 7.48 7.25 6.91 6.5 6.09 5.8 5.48
2092.941 5.16 4.92 4.72 4.47 4.22 4.09 4.01 3.95 3.85 3.7
2112.231 3.68 3.6 3.38 3.15 3.05 2.95 2.77 2.54 2.34 2.27
2131.521 2.27 2.17 2.15 2.22 2.17 1.99 1.91 1.93 1.88 1.88
2150.810 1.78 1.64 1.66 1.66 1.59 1.54 1.54 1.51 1.3911 1.4832
2170.100 1.54 1.53 1.53 1.53 1.56 1.58 1.53 1.52 1.51 1.4404
2189.390 1.4658 1.4495 1.4432 1.49 1.4239 1.3687 1.419 1.4746 1.53 1.54
2208.680 1.55 1.4787 1.4893 1.57 1.64 1.69 1.65 1.71 1.77 1.72
2227.970 1.85 1.99 1.94 1.9 1.91 2.05 2.14 2.1 2.2 2.28
2247.259 2.29 2.32 2.44 2.66 2.76 2.79 2.92 3.07 3.2 3.31
2266.549 3.38 3.46 3.59 3.64 3.71 3.71 3.64 3.62 3.54 3.44
2285.839 3.3 3.23 3.23 3.27 3.32 3.26 3.26 3.34 3.35 3.43
2305.129 3.59 3.53 3.35 3.23 3.08 2.93 2.81 2.65 2.57 2.41
2324.418 2.32 2.36 2.27 2.24 2.24 2.13 2.12 2.15 2.12 2.01
2343.708 2.03 2.06 2.12 2.2 2.16 2.13 2.14 2.25 2.38 2.43
2362.998 2.53 2.66 2.79 2.94 3.04 3.15 3.16 3.21 3.26 3.25
2382.288 3.27 3.11 3.02 3.02 2.9 2.71 2.64 2.7 2.74 2.73
2401.578 2.91 3.04 2.94 3.03 3.17 3.09 2.98 3.01 3.01 2.96
2420.867 2.89 2.82 2.8 2.73 2.64 2.53 2.38 2.38 2.31 2.29
2440.157 2.43 2.45 2.47 2.5 2.66 2.72 2.66 2.73 2.83 2.9
2459.447 3.03 3.19 3.35 3.51 3.49 3.46 3.55 3.73 3.78 3.91
2478.737 4.07 3.97 3.96 3.97 3.88 3.85 3.74 3.59 3.51 3.49
2498.026 3.52 3.55 3.6 3.64 3.77 3.89 3.9 3.82 3.85 4.03
2517.316 4.18 4.28 4.23 4.24 4.3 4.35 4.38 4.44 4.55 4.52
2536.606 4.48 4.39 4.25 4.16 4.05 4 3.95 3.88 3.88 3.85
2555.896 3.75 3.73 3.63 3.69 3.79 3.72 3.8 3.97 4.01 3.91
2575.186 3.89 3.91 4.02 4.08 4.05 4.09 4.05 4.13 4.16 4.01
2594.475 3.95 3.99 3.99 3.94 3.95 3.8 3.63 3.61 3.58 3.47
2613.765 3.31 3.19 3.08 3.09 3.15 3.19 3.22 3.22 3.19 3.09
2633.055 3.11 3.31 3.33 3.18 3.15 3.14 3.1 3.07 2.99 2.95
2652.345 2.97 2.88 2.81 2.86 2.77 2.65 2.61 2.55 2.51 2.48
2671.634 2.49 2.64 2.7 2.6 2.55 2.62 2.68 2.71 2.74 2.7
2690.924 2.8 2.93 2.84 2.83 2.89 2.85 2.97 3.1 3.07 3.16
2710.214 3.25 3.17 3.28 3.38 3.34 3.39 3.45 3.53 3.62 3.53
2729.504 3.57 3.77 3.8 3.99 4.25 4.4 4.41 4.62 4.86 5.01
2748.794 5.33 5.54 5.64 5.82 6.03 6.36 6.75 7.16 7.56 7.83
2768.083 8.26 8.69 9.18 9.85 10.26 10.82 11.65 12.51 13.48 14.34
2787.373 15.27 16.35 17.52 18.98 20.7 22.52 24.26 26.26 28.35 30.44
2806.663 32.41 34.16 35.57 36.62 37.68 38.33 38.57 38.65 38.68 39.03
2825.953 39.8 41.16 43.73 47.61 52.96 59.48 66.14 71.59 74.16 73.47
2845.242 69.75 64.12 58.14 52.89 48.66 45.51 43.37 41.86 40.85 40.21
2864.532 39.98 39.9 39.98 40.29 40.8 41.28 41.6 42.1 42.62 43.11
2883.822 43.88 44.61 45.16 45.73 46.4 47.11 47.99 49.05 50.04 51.46
2903.112 53.33 55.46 57.74 59.6 61.27 62.9 63.87 64.25 64.29 64.19
2922.401 64.19 64.35 64.95 66.34 68.58 71.56 75.56 80.25 85.01 89.39
2941.691 92.69 94.7 95.18 93.95 91.89 89.62 87.02 83.89 80.1 75.96
2960.981 71.63 67.17 62.95 58.8 55.24 52.31 49.71 48.01 46.97 46.44
2980.271 46.66 47.89 49.82 52.7 56.34 60.35 65.12 70.29 75.68 81.05
2999.561 85.85 89.28 89.96 87.09 80.51 71.24 61.01 51.44 43.87 38.32
3018.850 34.41 31.7 30.12 29.55 29.44 29.95 31.1 32.73 35.14 38.02
3038.140 41.28 44.54 47.37 49.3 49.98 49.16 46.93 43.89 40.52 37.55
3057.430 35.08 33.1 31.53 30.34 29.43 28.62 28.04 27.52 26.9 26.01
3076.720 24.88 23.71 22.55 21.71 21.18 20.8 20.68 20.79 20.9 20.84
3096.009 20.69 20.4 19.75 19.02 18.19 17.13 15.97 14.59 13.45 12.53
3115.299 11.49 10.51 9.85 9.27 8.61 8.03 7.61 7.24 6.61 6.04
3134.589 5.63 5.18 4.82 4.42 4.16 3.99 3.78 3.64 3.37 3.33
3153.879 3.29 3.11 3.08 2.9 2.68 2.6 2.48 2.41 2.54 2.53
3173.169 2.2 1.98 2.01 2.03 1.92 1.74 1.58 1.68 1.67 1.62
3192.458 1.68 1.57 1.51 1.61 1.6 1.57 1.57 1.49 1.4701 1.2864
3211.748 1.2428 1.2912 1.383 1.3516 1.1311 1.2065 1.1193 1.0358 1.0875 0.996
3231.038 0.9886 1.0667 0.9033 0.846 0.8377 0.7697 0.7848 0.7178 0.7774 0.7394
3250.328 0.57226 0.54506 0.698 0.8279 0.6951 0.4537 0.4028 0.4809 0.4786 0.3948
3269.617 0.4327 0.6148 0.6422 0.58985 0.7856 0.9395 0.8545 0.635 0.4737 0.52884
3288.907 0.58591 0.5064 0.54905 0.7573 0.7433 0.55821 0.4312 0.318 0.52301 0.6173
3308.197 0.454 0.4536 0.345 0.289 0.388 0.489729 0.4751 0.323 0.184 0.139
3327.487 0.336 0.385 0.225 0.271 0.4293 0.48733 0.301 0.263 0.185 0.253
3346.777 0.52982 0.51168 0.4552 0.52247 0.6537 0.56421 0.271 0.372 0.48029 0.203
3366.066 0.258 0.306 0.329 0.3944 0.227 0.176 0.238 0.2 0.156 0.197
3385.356 0.198 0.162 0.36 0.351 0.108 0.257 0.48477 0.4106 0.229 0.255
3404.646 0.329 0.4587 0.56629 0.4625 0.4702 0.4778 0.312 0.245 0.159 0.205
3423.936 0.3901 0.4085 0.112 0 0.224 0.343 0.34 0.309 0.318 0.13
3443.225 0.016 0.16 0.211 0.238 0.303 0.362 0.4597 0.53823 0.54141 0.4285
3462.515 0.362 0.367 0.183 0.158 0.113 0.046 0.159 0.365 0.4078 0.152
3481.805 0.318 0.54085 0.56951 0.55636 0.4569 0.4848 0.4677 0.093 0.121 0.4323
3501.095 0.239 0.175 0.295 0.374 0.4552 0.4815 0.52176 0.3926 0.32 0.52185
3520.385 0.56344 0.55561 0.53638 0.4405 0.4036 0.223 0.266 0.302 0.178 0.208
3539.674 0.125 0.073 0.352 0.4539 0.4116 0.244 0.21 0.4434 0.302 0.217
3558.964 0.3966 0.48396 0.348 0.249 0.104 0.09 0.357 0.323 0.055 0.184
3578.254 0.4329 0.275 0.372 0.4713 0.26 0.191 0.34 0.388 0.287 0.365
3597.544 0.52729 0.4019 0.102 0.194 0.305 0.335 0.339 0.219 0.313 0.48468
3616.833 0.282 0.19 0.55055 0.58367 0.5397 0.497118 0.234 0.205 0.344 0.347
3636.123 0.4515 0.52859 0.3948 0.359 0.4223 0.4154 0.53151 0.52536 0.493742 0.6133
3655.413 0.6118 0.496926 0.50406 0.51528 0.491078 0.55701 0.56948 0.6612 0.54668 0.6186
3674.703 0.6125 0.4485 0.56153 0.6909 0.7564 0.7206 0.7014 0.5973 0.51444 0.7078
3693.993 0.9393 0.9588 0.8326 0.6314 0.4328 0.5972 0.6136 0.4579 0.54087 0.48161
3713.282 0.437 0.55838 0.6948 0.5306 0.239 0.218 0.317 0.4142 0.54881 0.5981
3732.572 0.6174 0.6696 0.56973 0.51531 0.58356 0.57642 0.369 0.203 0.116 0.02
3751.862 0.038 0.283 0.6321 0.7784 0.54171 0.204 0.307 0.57962 0.51797 0.51905
3771.152 0.4514 0.146 0.069 0.256 0.195 0.195 0.4294 0.6187 0.6754 0.492403
3790.441 0.329 0.306 0.50711 0.628 0.474 0.4736 0.468 0.324 0.207 0.179
3809.731 0.4037 0.5029 0.4012 0.46 0.7087 0.7037 0.56038 0.6477 0.7644 0.5964
3829.021 0.4721 0.55208 0.4358 0.496951 0.52489 0.4267 0.4476 0.54579 0.7907 0.9464
3848.311 1.0783 1.0353 0.9854 1.0628 0.87 0.9141 0.98 0.9476 0.9463 0.8204
3867.601 0.9223 1.0686 1.0289 0.8183 0.7985 1.1004 1.2511 1.1732 1.3772 1.367
3886.890 1.0522 0.9167 0.8514 0.923 1.0115 0.9346 0.8674 0.7357 0.6787 0.7486
3906.180 0.6889 0.7526 0.9071 0.6613 0.379 0.4066 0.6102 0.9455 0.9903 0.8444
3925.470 0.7716 0.7312 0.8082 0.8161 0.8771 0.8716 0.8684 1.1425 1.1275 1.1206
3944.760 0.9685 0.667 0.878 1.1188 1.0592 1.0541 1.0726 0.9953 1.1939 1.4149
3964.049 1.3027 1.306 1.056 0.9607 1.2978 1.3601 1.1702 1.0953 1.0696 1.108
3983.339 1.3239 1.2085 1.0606 1.1576 1.1929 1.1812 1.1583 1.179 1.2315 1.1621
##END=
