##TITLE=1-Chloro-9-phenylnonane
##JCAMP-DX=4.24
##DATA TYPE=INFRARED SPECTRUM
##ORIGIN=EPA-IR VAPOR PHASE LIBRARY
##OWNER=SRD/NIST
Collection (C) 2018 copyright by the U.S. Secretary of Commerce
on behalf of the United States of America. All rights reserved.
##CAS REGISTRY NO=27175-81-1
##MOLFORM=C15 H23 Cl
##$NIST SOURCE=MSDC-IR
##STATE=gas
##XUNITS=1/CM
##YUNITS=ABSORBANCE
##XFACTOR=1.
##YFACTOR=0.001
##DELTAX=1.92898
##FIRSTX=549.8
##LASTX=4000.7
##FIRSTY=2.702
##MAXX=4000.7
##MINX=549.759
##MAXY=0.147312
##MINY=0
##NPOINTS=1790
##XYDATA=(X++(Y..Y))
549.759 2.702 3.362 3.492 2.712 2.322 2.512 3.092 3.372 2.492 2.652
569.049 2.702 2.372 2.192 2.472 2.012 1.972 2.382 2.322 2.992 2.462
588.339 1.243 1.1292 1.4468 1.6522 1.7546 2.492 2.512 1.6094 1.7703 1.5345
607.628 0.696 1.106 1.5046 1.932 1.7553 1.0964 1.2801 1.7893 1.4791 0.938
626.918 1.4505 2.082 2.422 2.392 2.642 2.962 3.132 3.732 4.002 4.022
646.208 4.442 5.302 5.512 5.312 6.192 7.332 8.482 9.222 9.252 8.902
665.498 8.602 8.602 8.352 8.012 8.252 8.702 8.982 8.952 9.432 11.042
684.787 12.732 14.012 15.872 19.162 22.662 25.382 26.572 27.062 25.852 23.252
704.077 21.472 20.092 19.232 18.482 18.042 17.902 17.602 17.442 18.142 19.202
723.367 19.682 19.882 20.362 21.582 22.932 24.062 24.892 25.632 25.772 25.082
742.657 24.392 23.132 21.572 19.702 17.412 15.312 13.912 12.992 11.912 10.812
761.947 9.672 8.652 7.852 7.592 7.242 6.292 5.922 5.852 5.582 5.022
781.236 4.272 4.072 4.222 4.332 4.442 4.342 3.692 3.432 3.382 2.682
800.526 2.552 3.112 3.492 3.622 3.632 3.902 3.612 2.662 2.542 2.902
819.816 2.572 1.862 2.042 2.502 2.672 2.902 2.752 2.612 2.772 2.572
839.106 2.372 2.122 2.202 2.672 2.782 2.432 2.052 2.382 2.412 2.092
858.395 1.892 1.8119 2.242 2.422 2.402 2.822 2.592 2.112 2.112 2.362
877.685 2.612 2.482 2.662 2.832 2.592 2.682 2.522 2.352 2.632 3.192
896.975 3.442 2.972 3.192 3.462 3.212 3.412 3.742 3.442 3.112 3.312
916.265 2.982 2.632 2.792 2.532 2.172 2.282 2.672 3.092 2.712 1.822
935.555 1.7538 2.242 2.202 2.172 2.852 2.672 2.042 2.162 2.202 2.112
954.844 2.312 2.272 2.062 2.052 2.572 2.942 2.712 2.532 1.7644 1.71
974.134 2.632 2.702 2.512 2.782 2.932 2.792 2.682 2.562 2.622 2.592
993.424 2.472 2.492 2.812 2.642 1.7885 1.7632 2.692 3.102 3.272 2.782
1012.714 2.392 2.882 3.132 3.502 3.812 4.022 4.412 5.252 5.782 5.702
1032.003 5.692 5.572 4.702 4.532 4.292 3.772 3.042 2.832 3.072 2.972
1051.293 3.522 4.012 4.472 4.832 5.552 5.972 4.952 3.992 3.942 3.862
1070.583 4.262 4.522 4.292 3.912 3.862 3.582 2.862 3.352 3.792 3.692
1089.873 3.742 2.652 2.862 2.462 2.022 3.262 2.992 2.472 2.132 2.542
1109.163 2.962 1.862 1.4595 2.222 2.832 3.702 3.362 2.452 2.382 2.762
1128.452 3.162 2.632 2.182 1.862 1.5409 1.4342 1.6644 1.5378 1.4899 2.782
1147.742 2.852 2.042 1.3945 1.2347 1.33 1.5385 1.842 1.5633 1.6304 1.6653
1167.032 1.822 2.052 1.4578 1.5632 2.722 2.702 2.842 4.282 3.042 1.1983
1186.322 1.1458 1.5538 1.452 0.96 1.6569 2.892 3.092 2.772 2.452 1.962
1205.611 1.7677 1.0896 1.4806 3.322 2.662 1.3198 1.972 2.222 2.692 3.122
1224.901 2.232 1.912 2.162 1.7409 1.962 2.422 3.322 4.042 3.252 3.072
1244.191 3.022 2.812 2.952 3.732 4.042 3.342 3.742 4.322 4.472 4.912
1263.481 4.942 4.532 4.902 5.632 5.792 6.032 6.082 6.042 6.942 7.972
1282.771 7.882 7.882 8.612 8.992 9.152 9.172 9.322 9.422 9.352 9.202
1302.060 9.182 9.422 9.402 8.972 8.722 8.882 8.762 8.452 8.272 7.972
1321.350 7.512 7.232 7.032 6.782 6.482 6.222 6.212 6.212 6.152 6.342
1340.640 6.642 6.822 6.992 7.272 7.632 7.662 7.572 7.492 7.192 6.832
1359.930 6.612 6.322 6.022 5.752 5.352 5.082 4.832 4.552 4.362 3.972
1379.219 3.552 3.362 3.182 2.952 2.872 2.772 2.592 2.662 2.712 2.552
1398.509 2.462 2.502 2.642 2.702 2.732 2.722 2.772 3.012 3.232 3.232
1417.799 3.232 3.562 3.962 4.322 4.512 4.802 5.322 5.792 6.582 7.422
1437.089 8.372 9.572 10.992 12.352 13.732 15.522 17.032 18.032 18.682 18.852
1456.378 18.712 18.432 17.692 16.552 15.332 14.032 12.972 11.732 10.412 9.172
1475.668 8.172 7.572 7.032 6.852 6.872 7.202 8.242 9.312 10.712 12.212
1494.958 13.092 13.132 12.222 10.682 8.712 6.842 5.292 4.452 3.822 3.112
1514.248 2.892 2.782 2.712 2.822 2.702 2.542 2.472 2.552 2.492 2.472
1533.538 2.472 2.352 2.392 2.262 2.032 1.922 1.972 2.032 2.212 2.232
1552.827 1.992 1.902 1.882 1.952 1.852 1.952 2.232 2.122 2.072 2.272
1572.117 2.302 2.432 2.642 2.742 3.052 3.322 3.402 3.782 4.452 4.812
1591.407 4.912 5.292 6.012 6.442 6.892 7.162 7.172 6.942 6.292 5.422
1610.697 4.432 3.752 3.002 2.442 2.462 2.322 2.122 2.042 2.082 1.822
1629.986 1.4882 1.5008 1.3896 1.3981 1.626 1.567 1.4637 1.2635 1.0975 1.3526
1649.276 1.4132 1.1302 1.3599 1.6108 1.2827 1.3376 1.4686 1.5217 1.4979 1.2449
1668.566 1.2207 1.3532 1.251 1.1137 1.1317 1.1548 1.2823 1.2361 1.1724 1.2865
1687.856 1.0949 1.03 1.1681 1.187 1.1487 1.3182 1.3408 1.3072 1.5052 1.4809
1707.146 1.4744 1.4701 1.3444 1.2804 1.15 1.1238 1.3799 1.3955 1.435 1.5572
1726.435 1.5939 1.3329 1.2169 1.446 1.3491 1.4025 1.4223 1.4057 1.5333 1.6275
1745.725 1.4808 1.3365 1.3127 1.2054 1.2905 1.3422 1.1844 1.1445 1.187 1.0911
1765.015 1.1169 1.0628 1.1379 1.3353 1.4635 1.6324 1.7013 1.852 1.942 2.042
1784.305 2.162 2.172 2.292 2.422 2.412 2.542 2.702 2.482 2.162 2.032
1803.594 2.052 1.932 1.7777 1.771 1.822 1.7169 1.5729 1.5081 1.4782 1.5726
1822.884 1.533 1.4844 1.4607 1.4987 1.4519 1.3944 1.5413 1.5964 1.6673 1.7416
1842.174 1.5562 1.5206 1.6863 1.761 1.7222 1.7717 1.7477 1.6844 1.922 2.032
1861.464 2.102 2.092 2.132 2.232 2.252 2.082 1.872 1.902 1.922 1.8056
1880.754 1.5818 1.5482 1.6215 1.7177 1.5516 1.4978 1.5369 1.4374 1.2888 1.2503
1900.043 1.348 1.2679 1.2515 1.3163 1.4434 1.4621 1.4274 1.511 1.469 1.6514
1919.333 1.872 1.852 1.942 2.072 2.112 2.052 2.242 2.652 2.652 2.672
1938.623 2.622 2.372 2.452 2.522 2.512 2.532 2.422 2.412 2.322 2.162
1957.913 2.112 1.932 1.7454 1.5118 1.428 1.4009 1.3737 1.4537 1.55 1.4833
1977.202 1.3421 1.3664 1.4276 1.5024 1.4064 1.2849 1.3613 1.2835 1.1521 1.3027
1996.492 1.4352 1.2701 1.0839 1.1001 1.1453 1.2772 1.2983 1.2098 1.2201 1.1605
2015.782 1.2528 1.4845 1.3973 1.1932 1.1921 1.2683 1.2031 1.2667 1.3123 1.3001
2035.072 1.5812 1.5688 1.3653 1.4521 1.3553 1.3729 1.4943 1.3594 1.2532 1.2408
2054.362 1.4368 1.5417 1.405 1.3237 1.28 1.2916 1.3392 1.3212 1.1944 1.2281
2073.651 1.3887 1.3107 1.3659 1.4883 1.4906 1.4881 1.2264 1.2255 1.2983 1.1617
2092.941 1.0956 1.086 1.2027 1.2826 1.2179 1.1169 1.2582 1.3445 1.2181 1.0579
2112.231 1.129 1.386 1.3778 1.328 1.3171 1.3439 1.3975 1.3713 1.3219 1.2925
2131.521 1.4587 1.4545 1.5441 1.5297 1.3174 1.2596 1.28 1.453 1.4358 1.1715
2150.810 1.0871 1.2259 1.3565 1.3145 1.2566 1.3951 1.3062 1.0554 1.1632 1.4109
2170.100 1.5256 1.4565 1.384 1.2215 0.9773 1.248 1.4904 1.4435 1.3797 1.3072
2189.390 1.44 1.4749 1.3965 1.4355 1.2469 1.1753 1.2979 1.2837 1.1281 1.0008
2208.680 1.1456 1.2197 1.1853 1.2991 1.3058 1.1641 1.0772 0.989 1.0716 1.182
2227.970 1.2005 1.148 1.0846 1.0471 1.0937 1.3783 1.5619 1.3299 1.138 1.1078
2247.259 1.0802 1.2283 1.334 1.2036 1.2646 1.3259 1.2483 1.2399 1.2288 1.3601
2266.549 1.2733 0.9449 1.077 1.3659 1.3847 1.3971 1.269 1.2269 1.4122 1.5425
2285.839 1.3875 1.2878 1.4176 1.4475 1.42 1.4308 1.365 1.3214 1.2759 1.3208
2305.129 1.3186 1.3497 1.5176 1.5317 1.5928 1.6057 1.4576 1.6602 1.7236 1.399
2324.418 1.3807 1.3206 1.1837 1.1668 1.3552 1.4577 1.2842 1.3072 1.4703 1.2961
2343.708 1.2432 1.4503 1.5519 1.533 1.3533 1.4042 1.3544 1.3863 1.7162 1.5838
2362.998 1.2696 1.2519 1.4298 1.5205 1.7699 1.6716 1.4904 1.2845 0.89265 1.1022
2382.288 1.4322 1.3898 1.2394 1.2184 1.215 1.2842 1.3099 1.2749 1.2103 1.1073
2401.578 1.3016 1.6178 1.4933 1.2112 1.2598 1.4713 1.5107 1.1611 0.965 1.2288
2420.867 1.3632 1.2925 1.3063 1.393 1.2673 1.2162 1.2647 1.1961 1.1198 1.1783
2440.157 1.2237 1.1679 1.0767 0.9971 1.0931 1.2301 1.1607 1.0777 1.0875 1.2452
2459.447 1.3907 1.2851 1.4162 1.7417 1.5973 1.597 1.4646 1.0808 1.2865 1.2762
2478.737 1.3917 1.3515 1.1169 1.3216 1.4427 1.4245 1.4403 1.5096 1.5482 1.7625
2498.026 1.646 1.247 1.2054 1.2997 1.2566 1.2571 1.5743 1.5999 1.1411 0.84481
2517.316 0.85459 1.1777 1.3314 1.2872 1.2932 1.3206 1.4326 1.3407 1.3023 1.5515
2536.606 1.5764 1.3949 1.1539 1.2105 1.1311 1.1441 1.6508 1.4935 1.3523 1.2506
2555.896 1.0434 1.1395 1.2786 1.5662 1.5616 1.5104 1.812 1.7201 1.6259 1.6782
2575.186 1.4035 1.252 1.2929 1.3922 1.6458 1.4699 1.3528 1.6137 1.852 1.7432
2594.475 1.4611 1.6412 1.832 1.842 1.7348 1.7809 1.952 1.842 1.7489 1.912
2613.765 1.852 1.6802 1.5692 1.832 2.292 1.982 1.5575 1.6864 1.922 1.7223
2633.055 1.7059 1.7454 1.7096 1.932 2.142 2.262 2.182 2.142 1.942 1.912
2652.345 2.262 2.322 2.182 2.252 2.302 2.092 1.7728 1.742 1.982 2.112
2671.634 2.172 2.342 2.282 2.312 2.382 2.372 2.352 2.402 2.632 2.492
2690.924 2.212 2.292 2.232 2.122 2.292 2.502 2.942 3.052 2.562 2.352
2710.214 2.312 2.402 2.492 2.182 2.372 2.722 2.532 2.192 2.172 2.272
2729.504 2.072 1.862 1.7507 1.7458 1.7187 1.902 2.232 2.312 2.372 2.372
2748.794 2.272 2.332 2.272 2.192 2.442 2.442 2.412 2.492 2.252 2.302
2768.083 2.452 2.792 3.202 3.092 3.252 3.502 3.452 3.512 3.572 3.162
2787.373 3.192 3.742 3.782 3.922 3.962 3.852 3.792 4.032 4.502 4.362
2806.663 4.182 4.432 4.842 5.372 5.882 5.882 5.592 6.012 6.802 7.052
2825.953 7.412 7.962 8.552 9.052 9.342 10.092 11.242 12.032 13.242 14.962
2845.242 16.922 19.842 23.222 26.842 31.732 37.752 43.782 49.272 53.302 55.782
2864.532 56.692 55.602 52.772 49.012 44.942 40.752 37.032 33.752 30.792 28.592
2883.822 27.042 25.482 24.732 25.282 25.862 26.542 27.532 28.812 30.712 33.172
2903.112 35.822 38.712 42.282 46.022 50.052 54.662 59.412 65.312 72.782 81.222
2922.401 90.612 101.372 112.822 123.822 133.942 141.492 145.912 147.312 144.682 138.572
2941.691 129.332 117.462 104.722 92.272 80.442 69.882 60.882 53.602 48.192 43.902
2960.981 40.162 37.002 34.142 31.002 27.882 25.052 22.622 20.352 18.522 16.932
2980.271 15.512 14.602 14.142 13.882 13.872 14.212 14.522 15.112 15.462 15.882
2999.561 15.822 15.122 14.442 13.672 13.262 12.392 11.652 11.812 12.422 13.662
3018.850 14.832 15.872 17.142 18.852 20.972 22.802 23.702 23.462 22.752 21.762
3038.140 19.932 17.632 15.632 14.222 12.962 11.822 11.462 11.612 12.072 12.242
3057.430 12.692 13.602 14.682 16.362 18.062 19.602 20.402 19.842 18.992 17.722
3076.720 16.192 15.052 13.832 12.482 11.552 11.212 10.592 9.962 9.672 9.142
3096.009 8.222 7.462 6.792 6.052 5.352 5.102 5.252 5.162 4.942 4.272
3115.299 4.082 3.892 2.762 2.412 2.452 2.032 2.052 2.542 2.572 2.282
3134.589 1.972 1.7033 1.731 1.6932 2.112 2.082 1.5394 1.7669 1.727 1.2911
3153.879 1.2235 1.3598 1.6456 1.882 2.032 2.182 1.7902 1.3203 1.1902 1.0128
3173.169 0.87523 1.2153 1.503 1.7271 1.6853 1.562 1.7456 1.6845 1.6373 1.922
3192.458 1.842 1.2637 1.0821 0.89204 1.0028 1.1651 1.0133 0.9914 1.3969 1.982
3211.748 1.5582 1.1272 1.356 1.0395 0.611 0.697 0.85584 0.653 0.706 0.9785
3231.038 1.1079 1.3382 1.1729 1.0449 1.018 1.3821 1.4666 1.3287 1.3405 1.4204
3250.328 1.4289 1.2876 1.832 1.6605 0.9704 0.9796 1.0792 0.9048 0.744 1.1878
3269.617 1.5691 1.3064 1.4639 1.4409 0.821886 0.585 0.561 0.642 0.818218 1.1692
3288.907 1.6686 1.501 1.3816 1.2148 0.976 1.2059 1.0349 1.149 1.3108 1.1779
3308.197 1.0772 1.1294 1.4209 1.2967 0.84696 0.628 0.388 0.684 0.639 0
3327.487 0.414 0.84436 0.601 0.472 0.261 0.386 1.005 1.0755 1.1981 1.109
3346.777 1.1403 1.3923 1.0415 1.1894 1.4749 1.451 1.234 1.0994 1.2418 0.9122
3366.066 0.635 0.9803 0.616 0.54 1.1161 1.2777 1.2486 0.7551 0.573 0.462
3385.356 0.334 0.693 1.1514 1.1798 0.9331 0.47 0.532 0.67 0.446 0.90167
3404.646 1.1087 1.061 1.403 1.5153 1.1863 1.0404 1.0201 0.63 0.599 0.9766
3423.936 0.9606 0.935 0.91 0.9478 1.2411 1.2456 1.0677 0.684 1.0292 1.5168
3443.225 1.1821 1.2552 1.377 0.9831 0.84062 0.697 0.341 0.508 0.702 0.80865
3462.515 0.84088 0.538 0.651 1.1708 1.1082 1.1203 1.1795 0.67 0.372 0.508
3481.805 0.89632 1.0363 0.5 0.483 0.89439 1.4343 1.1831 0.548 1.1212 1.1538
3501.095 0.8876 0.9512 1.0371 1.1685 0.631 0.287 0.7258 0.7337 0.7831 0.84347
3520.385 0.84414 1.01 1.0195 0.7431 0.53 0.84407 0.88442 0.37 0.231 0.7784
3539.674 0.71 0.329 0.148 0 0.328 0.35 0.269 0.7536 0.84922 0.545
3558.964 0.83988 1.104 0.87013 0.83522 0.86869 0.7786 0.937 1.3251 1.2796 1.308
3578.254 1.4198 1.587 1.5945 1.3391 1.3801 1.2178 1.2652 1.1995 1.1346 1.2
3597.544 1.0719 1.3678 1.5641 1.246 1.4272 1.3631 1.1474 1.4659 1.3375 1.1641
3616.833 0.7928 0.7572 1.1252 1.1572 1.2758 1.1274 0.9679 0.86539 1.2001 1.3374
3636.123 0.89111 0.7626 0.7627 1.0282 1.1925 1.048 1.0382 1.0748 1.0609 1.4947
3655.413 1.6287 1.8027 1.902 1.5627 1.412 1.0775 0.86095 0.9279 0.86694 0.813787
3674.703 0.87856 1.0005 1.2972 1.5884 1.3809 1.0141 1.199 1.2948 0.90555 0.64
3693.993 0.756 1.0346 0.7502 0.7771 1.3524 1.5258 1.4899 1.281 1.2928 1.4202
3713.282 1.2907 0.9731 0.90049 0.9679 0.9791 1.1397 1.0974 0.554 0.653 0.90591
3732.572 1.225 1.3578 0.601 0.344 0.82931 0.9618 0.88376 1.3669 1.3253 1.2732
3751.862 1.0159 0.9176 1.4418 1.5126 1.0477 1.0475 1.1013 0.9877 1.1487 1.3811
3771.152 1.5427 1.3184 1.1935 0.84861 0.9516 1.057 1.099 1.2672 1.1587 1.5472
3790.441 1.4773 1.1845 1.0256 1.3944 1.4738 1.0446 1.0786 1.348 2.022 2.162
3809.731 1.6575 1.2725 1.3364 1.6639 1.5469 1.5961 1.5143 1.4377 1.5948 1.2981
3829.021 1.3695 1.3264 0.671 0.459 1.0212 1.4057 1.6824 1.364 0.80567 0.617
3848.311 0.677 1.3062 0.9824 0.66 1.44 1.1608 1.0076 1.2497 0.9801 1.028
3867.601 1.4104 1.6544 1.5897 1.628 1.5444 1.663 1.2492 1.0971 1.5844 1.5613
3886.890 1.6764 1.2789 1.0711 1.3679 0.89786 0.7977 1.4055 1.3603 1.0589 0.9983
3906.180 1.3644 1.4959 1.2841 1.4462 1.3369 1.36 1.4264 1.5959 1.7349 1.45
3925.470 1.3627 1.1996 0.9906 1.1691 1.7598 1.6186 1.204 1.2178 0.647 0.249
3944.760 0.7798 0.7164 0.263 0.361 1.1158 1.2556 0.9154 1.2381 0.7482 0.627
3964.049 1.3224 1.4557 1.4488 1.1871 1.1131 1.6222 1.5638 1.1931 1.5328 1.822
3983.339 1.3579 1.2563 1.4257 1.5758 1.3513 0.9483 1.3642 1.6905 1.2839 1.2541
##END=
