##TITLE=Cyclohexanecarbonyl chloride
##JCAMP-DX=4.24
##DATA TYPE=INFRARED SPECTRUM
##ORIGIN=EPA-IR VAPOR PHASE LIBRARY
##OWNER=SRD/NIST
Collection (C) 2018 copyright by the U.S. Secretary of Commerce
on behalf of the United States of America. All rights reserved.
##CAS REGISTRY NO=2719-27-9
##MOLFORM=C 7 H 11 Cl O
##$NIST SOURCE=MSDC-IR
##STATE=gas
##XUNITS=1/CM
##YUNITS=ABSORBANCE
##XFACTOR=1.
##YFACTOR=0.001
##DELTAX=1.92898
##FIRSTX=549.8
##LASTX=4000.7
##FIRSTY=3.034
##MAXX=4000.7
##MINX=549.759
##MAXY=0.145814
##MINY=0
##NPOINTS=1790
##XYDATA=(X++(Y..Y))
549.759 3.034 2.844 2.594 2.294 1.714 2.284 2.844 2.394 2.314 2.494
569.049 2.404 2.754 2.664 2.064 2.584 3.514 3.614 3.484 3.744 4.224
588.339 4.454 4.494 5.034 5.494 5.764 6.464 7.114 7.664 8.054 8.184
607.628 8.134 8.294 8.704 8.894 9.094 9.464 10.074 10.224 10.574 11.224
626.918 11.434 11.624 11.614 11.164 10.754 10.054 9.084 8.584 7.854 6.884
646.208 5.984 5.224 4.904 4.564 4.264 4.284 4.054 3.964 3.954 3.674
665.498 3.684 3.674 3.704 3.834 3.724 3.754 3.994 4.154 4.084 3.974
684.787 3.994 4.014 4.234 4.624 5.064 5.454 5.414 5.444 6.034 6.614
704.077 7.094 7.704 8.334 9.024 10.044 11.394 12.914 14.534 16.504 19.224
723.367 22.404 26.594 32.074 38.444 45.904 54.074 61.924 68.094 71.904 73.564
742.657 73.084 70.714 67.094 62.424 55.114 44.974 34.344 25.464 19.614 15.904
761.947 13.294 11.464 10.244 9.424 9.064 9.284 9.714 10.204 10.854 12.274
781.236 14.104 15.994 17.804 19.134 19.794 20.134 20.394 20.114 19.404 18.344
800.526 16.314 13.834 11.714 9.494 7.744 6.594 5.814 5.544 5.534 5.784
819.816 6.214 6.704 7.504 8.594 9.964 11.544 13.324 15.074 16.464 17.774
839.106 18.474 18.954 19.294 18.824 18.194 17.084 15.364 13.534 11.854 10.734
858.395 10.204 9.884 9.404 8.974 8.544 8.184 8.214 8.204 7.754 7.214
877.685 6.614 6.194 6.114 6.164 6.294 6.514 6.644 6.694 6.724 6.974
896.975 7.194 7.214 7.194 7.204 7.214 7.344 7.704 8.254 8.884 9.784
916.265 10.804 11.794 12.994 14.374 15.964 17.794 20.094 23.044 26.694 31.124
935.555 36.224 41.684 47.324 52.964 58.504 64.064 68.984 72.424 74.134 73.534
954.844 70.884 66.714 61.064 54.954 48.564 41.524 34.084 27.034 21.354 16.814
974.134 13.174 10.804 9.694 8.484 7.274 6.784 6.154 5.494 5.194 4.834
993.424 4.774 5.004 5.184 5.264 5.274 5.714 6.204 6.754 7.374 7.984
1012.714 8.314 8.344 8.344 8.504 8.724 8.914 9.384 9.474 9.574 9.854
1032.003 9.994 10.484 11.204 11.314 11.684 12.474 12.534 12.354 12.544 12.804
1051.293 12.374 11.684 11.234 10.754 10.224 9.674 9.314 8.994 8.954 9.484
1070.583 9.704 9.454 9.914 10.764 11.234 11.724 11.964 12.304 13.134 13.824
1089.873 13.894 13.874 13.374 12.114 11.554 10.794 9.654 8.444 7.294 6.384
1109.163 5.544 5.144 4.644 4.294 4.144 4.234 4.664 4.884 5.214 5.854
1128.452 6.244 6.674 7.514 7.844 8.124 8.404 8.134 7.984 7.944 7.094
1147.742 5.814 4.804 4.044 3.764 3.304 2.804 2.794 2.914 2.924 2.954
1167.032 3.134 3.174 3.134 3.084 3.084 3.124 2.744 2.664 2.964 2.974
1186.322 2.844 2.784 2.454 2.034 2.224 2.444 2.024 1.734 1.624 1.624
1205.611 1.634 1.414 1.574 1.694 1.474 1.624 1.994 2.154 2.404 2.924
1224.901 3.324 3.334 3.454 4.024 4.544 4.544 4.654 4.774 4.594 4.514
1244.191 4.474 3.994 3.474 3.424 3.234 2.904 2.864 2.764 2.424 2.164
1263.481 2.134 2.194 2.134 2.154 2.134 2.264 2.504 2.474 2.704 3.204
1282.771 3.624 4.034 4.674 5.214 5.674 6.284 6.844 7.154 7.274 7.244
1302.060 7.014 6.634 6.154 5.804 5.614 5.304 5.004 4.874 4.744 4.634
1321.350 4.584 4.544 4.474 4.364 4.244 4.074 3.954 3.864 3.734 3.544
1340.640 3.374 3.314 3.264 3.214 3.214 3.314 3.384 3.474 3.604 3.604
1359.930 3.484 3.324 3.204 2.944 2.694 2.524 2.204 1.984 1.794 1.604
1379.219 1.494 1.354 1.254 1.214 1.264 1.254 1.214 1.304 1.344 1.324
1398.509 1.354 1.414 1.474 1.494 1.574 1.614 1.624 1.674 1.724 1.774
1417.799 1.824 1.934 2.104 2.244 2.454 2.794 3.224 3.804 4.514 5.454
1437.089 6.724 8.144 9.874 11.894 13.974 15.884 17.614 19.114 19.924 20.584
1456.378 21.094 20.194 18.614 17.084 15.234 13.234 11.344 9.544 8.024 6.774
1475.668 5.604 4.684 4.024 3.334 2.834 2.434 2.074 1.824 1.704 1.604
1494.958 1.464 1.354 1.224 1.1374 1.0805 0.9792 0.9268 0.9818 1.031 0.9484
1514.248 0.8271 0.7892 0.7798 0.7723 0.7633 0.7107 0.7375 0.7846 0.7333 0.672
1533.538 0.7551 0.8777 0.7486 0.5379 0.5654 0.718 0.7557 0.7182 0.7247 0.7301
1552.827 0.757 0.7322 0.6154 0.5487 0.6053 0.735 0.8236 0.8689 0.8135 0.6716
1572.117 0.7336 0.8187 0.7544 0.7248 0.7066 0.787 0.811 0.7946 0.8199 0.6939
1591.407 0.6922 0.603 0.6033 0.7273 0.6977 0.7426 0.7024 0.6737 0.7119 0.6829
1610.697 0.5506 0.6148 0.6139 0.5549 0.703 0.6492 0.5644 0.5123 0.5652 0.6302
1629.986 0.5496 0.5089 0.5485 0.6428 0.8028 0.7435 0.6199 0.6465 0.6393 0.6875
1649.276 0.6692 0.5541 0.5308 0.643 0.6402 0.5915 0.5962 0.6778 0.7695 0.8125
1668.566 0.839 0.8363 0.8838 0.9678 1.0479 1.0424 1.1228 1.129 1.0667 1.194
1687.856 1.304 1.414 1.444 1.424 1.444 1.614 1.714 1.744 1.784 1.774
1707.146 1.804 1.834 1.964 2.064 2.184 2.254 2.324 2.484 2.584 2.694
1726.435 2.924 3.154 3.384 3.664 3.954 4.334 4.664 4.994 5.464 5.914
1745.725 6.414 7.044 7.794 8.554 9.364 10.264 11.354 12.594 13.934 15.504
1765.015 17.184 18.984 21.064 23.414 26.194 29.274 32.674 36.524 40.954 46.004
1784.305 51.744 58.274 65.564 73.504 82.024 91.034 100.044 108.924 116.974 123.884
1803.594 128.904 131.304 130.964 128.054 123.104 116.514 108.274 98.414 87.434 76.014
1822.884 64.974 54.824 45.864 38.264 31.844 26.714 22.614 19.354 16.644 14.594
1842.174 13.014 11.654 10.544 9.584 8.774 8.004 7.284 6.704 6.244 5.854
1861.464 5.444 5.174 4.954 4.734 4.584 4.474 4.384 4.304 4.154 4.094
1880.754 4.084 3.984 3.944 3.914 3.904 3.864 3.754 3.714 3.644 3.574
1900.043 3.534 3.454 3.334 3.234 3.074 2.934 2.824 2.634 2.464 2.334
1919.333 2.144 1.934 1.814 1.714 1.634 1.574 1.534 1.474 1.354 1.304
1938.623 1.264 1.234 1.194 1.164 1.184 1.204 1.224 1.1035 1.034 1.1422
1957.913 1.224 1.224 1.204 1.244 1.224 1.1387 1.1451 1.214 1.264 1.294
1977.202 1.284 1.204 1.214 1.224 1.224 1.204 1.1212 1.0812 1.0609 1.0559
1996.492 1.0028 0.9513 0.9404 0.995 0.9516 0.8418 0.8772 0.928 0.8539 0.8291
2015.782 0.8372 0.7391 0.7217 0.7311 0.7632 0.7924 0.7588 0.8077 0.8761 0.8751
2035.072 0.884 0.924 0.9177 0.8823 0.8538 0.8359 0.858 0.867 0.9132 0.9495
2054.362 0.9336 0.9962 1.0306 1.0267 1.0619 1.154 1.264 1.364 1.484 1.644
2073.651 1.794 2.024 2.334 2.524 2.754 3.094 3.494 3.934 4.424 4.914
2092.941 5.464 6.094 6.694 7.434 8.164 8.824 9.564 10.324 11.034 11.664
2112.231 12.184 12.564 12.814 12.884 12.804 12.604 12.254 11.684 11.014 10.094
2131.521 8.894 7.574 6.284 5.284 4.514 3.874 3.174 2.544 2.064 1.744
2150.810 1.514 1.364 1.244 1.184 1.174 1.1399 1.154 1.1132 1.0503 0.9616
2170.100 0.9113 0.9467 0.9394 0.9137 0.9398 0.9306 0.9091 0.9421 0.9114 0.8477
2189.390 0.8209 0.8196 0.8291 0.8952 0.913 0.8523 0.8587 0.8064 0.7408 0.8362
2208.680 0.8547 0.7922 0.8357 0.822 0.7889 0.8372 0.9132 0.8601 0.732 0.7387
2227.970 0.8926 0.9436 0.9953 1.045 0.9601 0.9363 1.028 1.0905 1.0885 1.0609
2247.259 1.0125 0.9514 0.9199 0.9105 0.8315 0.7873 0.8063 0.7954 0.7076 0.6382
2266.549 0.6364 0.6152 0.6159 0.5678 0.5095 0.535 0.5362 0.5575 0.5691 0.5304
2285.839 0.556 0.6092 0.5997 0.5682 0.5183 0.5036 0.5441 0.6064 0.6177 0.5793
2305.129 0.6142 0.6232 0.5233 0.5413 0.6176 0.69 0.7629 0.6519 0.5763 0.571
2324.418 0.5964 0.6118 0.5598 0.5388 0.6209 0.6491 0.5996 0.6663 0.6674 0.5767
2343.708 0.546 0.5543 0.5985 0.5866 0.5543 0.6299 0.6248 0.6106 0.7195 0.6834
2362.998 0.6384 0.7282 0.6658 0.6616 0.7287 0.7558 0.734 0.7537 0.819 0.7416
2382.288 0.6406 0.6792 0.7405 0.6396 0.6377 0.7885 0.7707 0.694 0.7121 0.689
2401.578 0.6402 0.5945 0.5712 0.6207 0.639 0.5827 0.5804 0.5584 0.5648 0.5334
2420.867 0.4566 0.4469 0.4177 0.4124 0.392 0.3737 0.4119 0.4141 0.388 0.3782
2440.157 0.4066 0.4663 0.4302 0.4777 0.4758 0.4049 0.3537 0.2928 0.3427 0.3828
2459.447 0.347 0.23804 0.24329 0.341 0.3633 0.4373 0.5463 0.5721 0.5543 0.5228
2478.737 0.4983 0.4668 0.5091 0.5016 0.417 0.3808 0.4156 0.4819 0.5302 0.5211
2498.026 0.4489 0.4825 0.6136 0.5606 0.5079 0.5541 0.4605 0.3596 0.3291 0.2795
2517.316 0.2906 0.3701 0.4155 0.4736 0.5043 0.4339 0.3682 0.3874 0.461 0.4848
2536.606 0.3834 0.327 0.4312 0.5298 0.5089 0.4335 0.4482 0.4544 0.388 0.4361
2555.896 0.4493 0.3755 0.5269 0.5937 0.4051 0.3789 0.4426 0.5205 0.6701 0.6153
2575.186 0.5512 0.6024 0.5855 0.6041 0.6038 0.5934 0.5633 0.5948 0.7395 0.787
2594.475 0.7025 0.7708 0.9087 0.8572 0.8223 0.7809 0.7594 0.8618 0.823 0.727
2613.765 0.6777 0.8056 0.8602 0.8405 0.8405 0.7912 0.8529 0.8365 0.789 0.8917
2633.055 0.9876 0.9953 0.9765 0.9582 1.0099 1.047 1.1269 1.244 1.374 1.394
2652.345 1.394 1.464 1.524 1.594 1.704 1.814 1.804 1.914 1.914 1.824
2671.634 1.964 1.984 1.874 1.834 1.674 1.504 1.504 1.564 1.514 1.434
2690.924 1.324 1.294 1.284 1.234 1.264 1.284 1.264 1.0929 0.8697 0.837
2710.214 0.8952 0.91 0.9777 0.9126 0.8382 0.8227 0.7849 0.8205 0.8434 0.8924
2729.504 0.9057 0.8941 0.8588 0.7074 0.7099 0.8037 0.8819 0.8678 0.8315 0.8791
2748.794 0.8727 0.9427 1.0747 0.9501 0.9021 1.0407 1.073 1.194 1.264 1.194
2768.083 1.214 1.234 1.284 1.404 1.574 1.534 1.464 1.604 1.714 1.724
2787.373 1.744 1.714 1.894 2.024 2.024 2.334 2.354 2.274 2.444 2.484
2806.663 2.414 2.354 2.384 2.474 2.584 2.694 2.804 2.894 2.884 3.054
2825.953 3.244 3.394 3.724 4.014 4.274 4.684 5.224 5.834 6.614 7.634
2845.242 8.874 10.594 13.044 15.844 19.184 23.254 27.644 32.074 36.274 39.864
2864.532 42.714 44.504 45.354 45.204 43.764 41.064 37.574 33.954 30.214 26.594
2883.822 23.464 20.874 18.834 17.334 16.254 15.504 15.114 15.204 15.714 16.554
2903.112 17.714 19.214 21.094 23.114 25.224 27.714 30.664 33.944 37.564 41.774
2922.401 46.934 52.974 59.864 67.754 76.764 86.914 98.244 110.564 122.744 133.134
2941.691 141.044 145.284 145.814 145.104 142.014 134.414 123.504 110.274 95.554 80.684
2960.981 67.154 55.904 46.304 38.144 31.534 26.014 21.204 17.174 14.114 11.804
2980.271 10.014 8.244 6.794 5.854 4.984 4.314 3.904 3.444 3.054 2.954
2999.561 2.524 2.244 2.204 2.004 1.774 1.514 1.404 1.354 1.304 1.264
3018.850 1.224 1.224 1.194 1.234 1.214 1.1534 1.224 1.274 1.314 1.194
3038.140 1.174 1.154 1.1355 1.274 1.274 1.0994 0.8767 0.8119 0.8135 0.7862
3057.430 0.786 0.7918 0.7367 0.7603 0.7123 0.548 0.5829 0.6788 0.6107 0.4766
3076.720 0.5186 0.5124 0.3699 0.4616 0.6205 0.4733 0.3341 0.4884 0.5392 0.5579
3096.009 0.5348 0.4248 0.5152 0.5175 0.5872 0.5408 0.3236 0.3949 0.5406 0.5707
3115.299 0.4648 0.3267 0.345 0.409 0.455 0.4527 0.44 0.392 0.4019 0.4058
3134.589 0.4652 0.5328 0.4784 0.4536 0.3948 0.3593 0.4204 0.5861 0.6092 0.5651
3153.879 0.5423 0.4934 0.6554 0.8175 0.6927 0.6669 0.6148 0.5591 0.7369 0.7253
3173.169 0.5497 0.6683 0.6255 0.3893 0.4227 0.4746 0.572 0.551 0.5653 0.5843
3192.458 0.4638 0.3948 0.3916 0.4387 0.3489 0.348 0.4555 0.4793 0.3723 0.3414
3211.748 0.3522 0.23 0.17114 0.3596 0.4363 0.2766 0.21063 0.23035 0.4419 0.4876
3231.038 0.137 0.0717 0.2856 0.3511 0.4041 0.4523 0.3964 0.4258 0.363 0.1122
3250.328 0.012 0.0582 0.0767 0.15189 0.2921 0.3177 0.4583 0.478 0.2813 0.2917
3269.617 0.2931 0.2656 0.21611 0.1487 0.3494 0.4604 0.23691 0.1305 0.20843 0.2725
3288.907 0.2164 0.162116 0.18469 0.156326 0.1944 0.18069 0.161194 0.2764 0.3259 0.18783
3308.197 0.275 0.4618 0.4331 0.4217 0.4158 0.24437 0.14475 0.24313 0.22068 0.0883
3327.487 0.19035 0.28 0.2678 0.3501 0.4197 0.3451 0.1304 0.1209 0.158095 0.160541
3346.777 0.2927 0.4541 0.4343 0.3997 0.3306 0.2065 0.17417 0.18062 0.2731 0.2626
3366.066 0.22501 0.3137 0.23924 0.2829 0.5177 0.4935 0.4191 0.3169 0.2803 0.352
3385.356 0.3297 0.345 0.3448 0.343 0.3613 0.24624 0.319 0.3838 0.1334 0.21792
3404.646 0.3966 0.4225 0.4184 0.24122 0.0619 0.18178 0.3294 0.2371 0.19728 0.19081
3423.936 0.23091 0.3193 0.3433 0.2966 0.2764 0.3519 0.3769 0.2677 0.17575 0.20203
3443.225 0.2717 0.2952 0.3514 0.4167 0.3419 0.4705 0.6617 0.5931 0.5315 0.548
3462.515 0.4867 0.3331 0.499 0.462 0.2874 0.4762 0.4687 0.4057 0.4745 0.4483
3481.805 0.4282 0.5272 0.463 0.3586 0.4901 0.4025 0.3202 0.5179 0.5364 0.4624
3501.095 0.3352 0.3021 0.5319 0.499 0.3356 0.3599 0.4377 0.5592 0.5369 0.4447
3520.385 0.523 0.4967 0.5285 0.6438 0.633 0.536 0.5907 0.7487 0.7387 0.6419
3539.674 0.6833 0.7411 0.683 0.6924 0.7504 0.8247 0.9219 1.1025 1.1259 1.0208
3558.964 1.164 1.454 1.584 1.594 1.514 1.494 1.734 1.974 2.024 1.834
3578.254 1.844 2.134 2.264 2.384 2.334 2.224 2.294 2.234 2.124 2.064
3597.544 2.034 1.934 1.664 1.544 1.474 1.454 1.394 1.204 1.0176 1.0116
3616.833 1.1075 0.7819 0.6287 0.744 0.6885 0.7089 0.6903 0.5325 0.5366 0.5731
3636.123 0.4343 0.4909 0.6894 0.6333 0.5753 0.5691 0.5103 0.6531 0.7762 0.4807
3655.413 0.2131 0.3829 0.4895 0.4436 0.4354 0.3875 0.3216 0.392 0.4303 0.23432
3674.703 0.24813 0.384 0.39 0.3132 0.3275 0.4279 0.4178 0.4193 0.2767 0.2918
3693.993 0.375 0.3419 0.4771 0.4913 0.4172 0.5759 0.6011 0.5049 0.3611 0.3371
3713.282 0.4303 0.3115 0.3797 0.4838 0.3825 0.3837 0.4624 0.338 0.2939 0.2712
3732.572 0.16463 0.2772 0.4729 0.4019 0.3535 0.4308 0.4862 0.5636 0.6143 0.4767
3751.862 0.1113 0.0663 0.3391 0.438 0.4385 0.4376 0.3669 0.3087 0.1019 0.0938
3771.152 0.1813 0.032 0.18362 0.2912 0.2545 0.17263 0.072 0.25242 0.4208 0.5379
3790.441 0.627 0.5654 0.3031 0.24045 0.422 0.4041 0.2816 0.4057 0.4555 0.3973
3809.731 0.2997 0.22369 0.3289 0.3268 0.4509 0.5385 0.3711 0.21674 0.22448 0.4005
3829.021 0.4387 0.4529 0.5515 0.4875 0.3132 0.20794 0.25292 0.1062 0.22665 0.3919
3848.311 0.349 0.2888 0 0.1216 0.2591 0.20915 0.25093 0.16957 0.2004 0.3049
3867.601 0.4461 0.4384 0.3297 0.2836 0.20725 0.3096 0.2648 0.2442 0.22991 0.23427
3886.890 0.2633 0.21172 0.2971 0.3334 0.2628 0.3758 0.4879 0.492 0.5567 0.3684
3906.180 0.18441 0.20705 0.2889 0.305 0.4296 0.4289 0.23566 0.2966 0.2574 0.1297
3925.470 0.15111 0.1429 0.1304 0.154976 0.2871 0.24416 0.17784 0.3615 0.3964 0.4607
3944.760 0.5736 0.4402 0.4422 0.5392 0.4583 0.5618 0.6501 0.5624 0.5901 0.5768
3964.049 0.4585 0.4603 0.4545 0.4161 0.3492 0.3977 0.3522 0.267 0.4322 0.5368
3983.339 0.4622 0.5398 0.6676 0.6199 0.3679 0.17058 0.2325 0.326 0.498 0.5585
##END=
