##TITLE=Octylphenol
##JCAMP-DX=4.24
##DATA TYPE=INFRARED SPECTRUM
##ORIGIN=EPA-IR VAPOR PHASE LIBRARY
##OWNER=SRD/NIST
Collection (C) 2018 copyright by the U.S. Secretary of Commerce
on behalf of the United States of America. All rights reserved.
##CAS REGISTRY NO=27193-28-8
##MOLFORM=C 14 H 22 O
##$NIST SOURCE=MSDC-IR
##STATE=gas
##XUNITS=1/CM
##YUNITS=ABSORBANCE
##XFACTOR=1.
##YFACTOR=0.001
##DELTAX=1.92898
##FIRSTX=549.8
##LASTX=4000.7
##FIRSTY=7.673
##MAXX=4000.7
##MINX=549.759
##MAXY=0.222883
##MINY=0
##NPOINTS=1790
##XYDATA=(X++(Y..Y))
549.759 7.673 7.973 8.163 8.093 7.963 8.433 9.013 9.743 11.073 12.553
569.049 14.093 15.503 16.773 17.703 17.803 17.483 16.363 14.293 12.113 9.733
588.339 7.563 5.893 4.673 3.753 3.123 2.903 2.573 2.433 2.023 1.703
607.628 1.993 2.043 1.833 1.563 1.473 1.493 1.613 1.663 1.563 1.523
626.918 1.603 1.673 1.743 2.063 2.093 2.043 2.323 2.373 2.483 2.763
646.208 2.903 2.863 2.953 3.233 3.533 4.193 4.943 5.473 5.993 6.453
665.498 6.463 6.183 5.793 5.113 4.433 3.783 3.263 2.993 2.643 2.593
684.787 2.813 2.663 2.463 2.493 2.543 2.493 2.353 2.373 2.313 2.133
704.077 2.013 1.803 1.663 1.573 1.443 1.363 1.593 1.783 1.843 2.173
723.367 2.463 2.823 3.233 3.533 3.763 3.863 3.663 3.573 3.683 3.433
742.657 3.393 3.583 3.323 3.093 2.973 2.683 2.413 2.223 2.193 1.983
761.947 1.953 2.323 2.433 2.673 3.083 3.133 3.253 3.403 3.553 3.733
781.236 3.923 4.253 4.533 4.923 5.863 7.083 8.663 10.823 13.143 15.503
800.526 17.943 20.433 22.833 25.043 26.963 28.633 30.603 33.613 37.533 42.433
819.816 48.403 54.303 58.493 59.663 58.313 54.743 48.403 39.963 31.633 24.883
839.106 19.683 15.953 13.473 11.563 9.863 8.403 7.323 6.463 5.843 5.333
858.395 5.033 4.993 4.933 4.853 4.513 4.233 4.303 4.453 4.193 3.983
877.685 3.893 3.693 3.473 3.283 3.013 2.573 2.403 2.323 2.273 2.343
896.975 2.523 2.613 2.523 2.583 2.823 3.223 3.463 3.573 3.773 3.803
916.265 3.983 4.133 3.973 3.873 3.753 3.543 3.413 3.403 3.363 3.283
935.555 3.263 3.333 3.333 3.233 3.123 3.083 2.973 2.863 2.923 3.033
954.844 3.203 3.513 3.693 3.853 4.043 4.383 4.773 4.993 5.233 5.133
974.134 4.863 4.813 4.653 4.203 3.753 3.423 3.233 2.933 2.613 2.563
993.424 2.533 2.443 2.633 2.883 3.113 3.753 4.643 5.903 7.053 7.673
1012.714 7.953 7.723 7.313 6.643 5.603 4.883 4.353 3.963 3.713 3.493
1032.003 3.273 3.163 3.153 2.973 2.683 2.793 2.893 2.673 2.623 2.463
1051.293 2.353 2.413 2.433 2.373 2.493 2.653 2.643 2.533 2.933 3.493
1070.583 3.733 3.913 4.173 4.623 4.893 5.233 5.853 6.913 8.113 9.283
1089.873 10.973 12.743 14.393 15.783 16.943 17.533 17.123 16.153 15.213 14.303
1109.163 13.503 12.853 12.503 13.073 13.813 14.783 15.883 16.803 17.673 17.913
1128.452 17.593 17.003 16.213 15.643 14.773 14.023 13.833 13.863 14.233 14.783
1147.742 16.013 17.783 19.803 23.113 28.153 35.063 45.033 59.493 80.213 107.983
1167.032 141.143 174.713 201.313 217.953 222.883 214.853 195.173 166.033 134.623 108.023
1186.322 88.393 74.613 65.163 58.873 54.033 50.113 47.093 44.523 42.293 40.443
1205.611 38.953 37.393 35.733 33.973 31.993 30.343 29.033 28.023 27.603 27.723
1224.901 28.413 29.753 31.583 33.673 36.023 38.923 42.303 46.113 50.303 54.553
1244.191 58.743 62.893 67.473 72.723 78.423 84.523 90.023 93.333 93.503 89.713
1263.481 81.883 70.743 57.343 43.693 32.333 24.463 19.623 17.003 15.573 14.943
1282.771 14.703 14.273 13.653 12.803 11.773 10.723 9.703 8.813 8.103 7.623
1302.060 7.373 7.363 7.563 7.913 8.523 9.423 10.763 12.603 14.953 17.733
1321.350 20.723 23.433 25.493 26.823 27.283 26.903 25.833 24.353 22.933 21.913
1340.640 21.103 20.463 19.913 19.333 18.763 18.193 17.793 17.943 18.893 20.823
1359.930 23.843 27.673 31.943 35.993 39.303 40.683 39.063 35.743 31.913 27.983
1379.219 24.463 22.153 21.363 21.663 22.603 23.803 25.013 25.943 26.173 25.563
1398.509 24.313 22.653 20.923 19.053 17.193 15.753 14.983 14.933 15.483 16.553
1417.799 18.023 19.583 20.843 21.743 22.023 21.653 20.743 19.413 17.923 16.523
1437.089 15.533 15.073 15.103 15.523 16.163 16.983 17.973 19.093 20.303 21.633
1456.378 23.263 25.073 26.883 28.943 31.243 33.813 36.313 38.663 40.643 41.973
1475.668 42.533 42.523 41.833 40.413 38.463 36.363 34.523 33.323 33.073 34.143
1494.958 36.993 41.983 49.253 58.993 71.233 85.323 101.463 116.563 126.433 129.913
1514.248 126.373 116.503 101.143 83.283 63.583 47.403 35.183 26.793 21.533 18.013
1533.538 15.423 13.543 12.213 11.043 10.023 9.343 8.763 8.253 7.983 7.693
1552.827 7.433 7.193 7.023 6.913 6.643 6.453 6.243 6.103 6.133 6.313
1572.117 6.683 7.133 7.783 8.713 9.913 11.413 13.323 15.643 18.183 20.703
1591.407 23.033 24.953 26.353 27.273 27.683 27.973 28.543 29.653 31.123 32.453
1610.697 33.263 33.093 31.723 29.173 25.813 22.193 18.613 15.163 12.433 10.513
1629.986 8.973 7.833 6.913 6.143 5.493 4.953 4.483 4.183 3.963 3.773
1649.276 3.583 3.513 3.433 3.243 3.133 3.043 2.893 2.723 2.573 2.493
1668.566 2.383 2.213 2.103 2.013 1.943 1.943 1.923 1.933 1.903 1.773
1687.856 1.683 1.613 1.583 1.563 1.553 1.493 1.493 1.513 1.493 1.503
1707.146 1.503 1.543 1.583 1.573 1.553 1.713 1.783 1.673 1.723 1.813
1726.435 1.863 1.913 1.943 1.983 2.063 2.183 2.363 2.493 2.613 2.743
1745.725 2.793 2.863 2.843 2.703 2.533 2.333 2.123 1.983 1.853 1.723
1765.015 1.623 1.593 1.553 1.503 1.463 1.333 1.233 1.163 1.1 1.0438
1784.305 0.959 0.9382 0.9347 0.8854 0.8594 0.8687 0.8678 0.8444 0.8335 0.8493
1803.594 0.8444 0.8273 0.8895 0.9441 0.9552 0.9759 0.9792 1.0117 1.1101 1.143
1822.884 1.163 1.253 1.293 1.243 1.273 1.303 1.323 1.443 1.523 1.583
1842.174 1.633 1.673 1.763 1.853 1.923 2.003 2.073 2.173 2.273 2.323
1861.464 2.353 2.343 2.413 2.603 2.723 2.743 2.753 2.763 2.743 2.733
1880.754 2.663 2.543 2.393 2.193 2.023 1.893 1.813 1.793 1.763 1.653
1900.043 1.543 1.423 1.313 1.213 1.183 1.153 1.0677 1.0393 1.0179 1.0065
1919.333 1.0056 0.9881 0.9769 0.9078 0.8725 0.8589 0.7902 0.6945 0.6556 0.6851
1938.623 0.6865 0.641 0.5911 0.5937 0.629 0.6133 0.5081 0.4983 0.5142 0.541
1957.913 0.563 0.5468 0.5666 0.5928 0.6066 0.6345 0.6759 0.7014 0.7519 0.7857
1977.202 0.8258 0.8815 0.8963 0.9201 0.9676 0.9778 0.9515 0.933 1.0014 0.9971
1996.492 0.9048 0.8582 0.8461 0.8288 0.8608 0.8973 0.866 0.8179 0.8265 0.9141
2015.782 0.9678 0.9701 0.9779 0.9597 0.8926 0.8661 0.8168 0.7705 0.724 0.6562
2035.072 0.6593 0.5931 0.5037 0.5263 0.5299 0.5136 0.5628 0.6102 0.596 0.6557
2054.362 0.8045 0.9014 0.9497 1.0497 1.163 1.263 1.313 1.313 1.333 1.333
2073.651 1.273 1.253 1.163 1.0633 1.0257 0.9261 0.9106 0.9523 0.9799 0.9931
2092.941 0.9889 1.0385 1.0888 1.1201 1.153 1.1198 1.0521 0.9552 0.8291 0.7694
2112.231 0.7265 0.6213 0.5093 0.4989 0.4802 0.42 0.3375 0.3308 0.4196 0.3813
2131.521 0.3623 0.3958 0.3627 0.332 0.3093 0.3052 0.3402 0.3288 0.3541 0.3572
2150.810 0.2964 0.2565 0.2308 0.315 0.3627 0.3274 0.3189 0.3012 0.301 0.3143
2170.100 0.3314 0.3091 0.2922 0.2872 0.328 0.4351 0.4237 0.3334 0.3389 0.3884
2189.390 0.3727 0.3746 0.3512 0.3318 0.3268 0.3036 0.3374 0.3238 0.2941 0.3131
2208.680 0.3291 0.3133 0.316 0.3543 0.3699 0.3881 0.448 0.4465 0.3713 0.3493
2227.970 0.4328 0.4955 0.3996 0.3188 0.3744 0.4505 0.4415 0.3801 0.3843 0.3551
2247.259 0.3501 0.4334 0.3688 0.3296 0.3933 0.4073 0.4817 0.5681 0.6237 0.7372
2266.549 0.7811 0.7481 0.7275 0.7449 0.7966 0.8507 0.822 0.8032 0.8097 0.8264
2285.839 0.865 0.8633 0.8166 0.7844 0.8192 0.8713 0.9161 0.8653 0.8127 0.7776
2305.129 0.7606 0.7817 0.8031 0.8113 0.7845 0.8471 0.8937 0.8765 0.9102 0.9049
2324.418 0.9027 0.9548 0.9343 0.989 1.0157 0.9697 1.0087 0.987 1.0373 1.133
2343.708 1.183 1.303 1.333 1.303 1.293 1.283 1.333 1.283 1.143 1.1061
2362.998 1.0732 1.0352 1.0199 0.9875 0.8263 0.7711 0.8349 0.8288 0.8422 0.9103
2382.288 0.9349 0.8916 0.8499 0.8765 0.9301 0.9351 0.9304 0.9121 0.9648 1.0236
2401.578 1.091 1.163 1.203 1.243 1.323 1.453 1.573 1.683 1.803 2.003
2420.867 2.253 2.463 2.593 2.743 2.893 2.893 2.813 2.793 2.753 2.583
2440.157 2.353 2.033 1.813 1.693 1.543 1.383 1.193 1.133 1.193 1.213
2459.447 1.1101 1.0777 1.0575 1.0512 0.9906 0.9252 1.0074 1.051 1.0366 0.9559
2478.737 0.916 1.0008 1.0201 0.9599 0.9405 0.9848 1.1019 1.1199 1.0464 1.0258
2498.026 1.0599 1.163 1.213 1.133 1.133 1.233 1.303 1.373 1.393 1.403
2517.316 1.343 1.243 1.253 1.223 1.143 1.0395 0.9107 0.8293 0.9113 1.008
2536.606 0.8927 0.7932 0.8368 0.842 0.7755 0.7849 0.8446 0.8797 0.9237 0.8399
2555.896 0.8263 0.879 0.7901 0.6503 0.7077 0.8811 0.8423 0.8089 0.8316 0.8273
2575.186 0.7969 0.746 0.8056 0.8896 0.9776 0.9979 0.9761 1.0564 1.0847 1.1172
2594.475 1.143 1.1198 1.193 1.233 1.183 1.203 1.213 1.123 1.0854 1.0964
2613.765 1.1143 1.0512 1.0273 1.1095 1.133 1.133 1.0981 1.0697 1.0903 1.1024
2633.055 1.223 1.303 1.323 1.383 1.423 1.493 1.583 1.643 1.723 1.813
2652.345 1.903 1.953 1.933 1.893 2.023 2.183 2.203 2.233 2.173 2.053
2671.634 2.103 2.203 2.243 2.263 2.263 2.303 2.223 2.123 2.103 2.103
2690.924 2.103 2.143 2.173 2.103 2.083 2.113 2.163 2.253 2.383 2.443
2710.214 2.513 2.673 2.783 2.913 3.003 3.043 3.173 3.213 3.193 3.223
2729.504 3.213 3.073 2.953 2.963 3.043 2.983 2.723 2.623 2.653 2.613
2748.794 2.633 2.743 2.843 2.793 2.763 2.883 2.913 2.893 2.923 2.983
2768.083 3.053 3.053 3.073 3.113 3.233 3.323 3.353 3.473 3.483 3.523
2787.373 3.683 3.813 4.003 4.043 4.063 4.283 4.503 4.703 4.823 4.933
2806.663 5.153 5.393 5.523 5.833 6.233 6.503 6.613 6.753 7.053 7.353
2825.953 7.683 8.073 8.553 9.163 9.783 10.533 11.413 12.223 13.183 14.153
2845.242 15.063 16.013 16.963 17.913 18.943 20.123 21.663 23.823 26.403 29.563
2864.532 33.393 37.563 41.943 46.443 50.763 54.783 58.403 61.433 63.923 65.863
2883.822 67.553 69.183 70.793 72.453 74.113 75.913 77.793 79.723 81.573 83.283
2903.112 84.873 86.333 87.643 88.853 89.723 89.883 89.513 88.643 87.143 85.353
2922.401 83.613 82.023 80.763 80.163 80.283 80.893 82.373 84.613 87.543 91.563
2941.691 96.443 102.323 109.853 119.303 130.833 144.523 160.093 176.983 193.393 206.703
2960.981 215.333 218.663 215.103 205.083 190.643 173.263 155.273 138.063 122.293 108.863
2980.271 98.023 89.503 82.773 77.213 72.343 67.953 63.953 60.143 56.523 53.073
2999.561 49.763 46.453 43.093 39.823 36.673 33.503 30.533 27.993 25.813 24.083
3018.850 22.733 22.013 21.933 22.163 22.913 23.863 24.673 25.193 25.033 24.263
3038.140 22.783 20.823 18.733 16.593 14.793 13.463 12.623 12.283 12.293 12.433
3057.430 12.633 13.113 13.723 13.923 13.873 13.913 13.913 13.653 13.193 12.633
3076.720 11.793 10.963 10.133 9.313 8.583 8.013 7.523 7.183 6.933 6.643
3096.009 6.703 6.743 6.673 6.663 6.723 6.733 6.523 6.313 6.143 5.883
3115.299 5.513 5.163 4.963 4.683 4.333 4.123 3.993 3.753 3.483 3.193
3134.589 3.033 2.853 2.763 2.803 2.783 2.673 2.473 2.393 2.293 2.203
3153.879 2.213 2.303 2.243 2.083 2.013 2.013 2.103 2.193 2.183 2.203
3173.169 2.143 2.173 2.243 2.203 2.253 2.373 2.453 2.433 2.433 2.423
3192.458 2.453 2.403 2.333 2.333 2.293 2.373 2.433 2.313 2.193 2.063
3211.748 2.023 2.033 2.123 2.173 2.053 2.043 2.063 2.003 1.873 1.833
3231.038 1.963 1.893 1.763 1.723 1.703 1.763 1.803 1.633 1.433 1.393
3250.328 1.413 1.483 1.503 1.483 1.333 1.263 1.283 1.213 1.143 1.203
3269.617 1.193 1.0433 0.9059 0.8568 0.9205 1.054 1.123 1.0584 0.9376 0.8263
3288.907 0.9289 0.9928 0.9985 0.9955 0.9788 0.9851 0.9252 0.9033 0.7894 0.862
3308.197 0.8125 0.6337 0.7881 0.8864 0.9607 0.9921 0.9539 0.8702 0.6957 0.6969
3327.487 0.878 0.9769 1.0162 0.9288 0.7742 0.7611 0.8801 1.1125 1.173 1.183
3346.777 1.273 1.373 1.503 1.523 1.623 1.743 1.643 1.533 1.563 1.523
3366.066 1.373 1.323 1.233 1.253 1.303 1.293 1.243 1.333 1.413 1.393
3385.356 1.423 1.443 1.523 1.193 0.9189 1.0286 1.0555 1.0283 1.0737 1.153
3404.646 1.193 1.0609 0.9805 1.0469 0.9864 0.9271 0.9756 1.0694 1.0629 1.1021
3423.936 1.0208 0.8446 0.9648 0.9585 0.8793 0.9139 1.0317 0.8777 0.7268 0.7894
3443.225 0.669 0.6288 0.7416 0.6288 0.4766 0.4639 0.5889 0.6414 0.6395 0.7296
3462.515 0.6535 0.6419 0.6906 0.6309 0.545 0.6118 0.6569 0.8065 0.8044 0.6781
3481.805 0.7136 0.597 0.4915 0.5238 0.533 0.4579 0.462 0.5922 0.7528 0.8607
3501.095 0.6927 0.5837 0.4673 0.314 0.3164 0.4153 0.5626 0.5278 0.4004 0.2899
3520.385 0.1403 0 0.0633 0.14381 0.18233 0.16153 0.14017 0.2621 0.4405 0.3966
3539.674 0.2318 0.19116 0.3171 0.348 0.3104 0.4236 0.4522 0.4377 0.4587 0.4473
3558.964 0.13782 0.0837 0.3236 0.2435 0.2781 0.4598 0.5221 0.5823 0.6925 0.6123
3578.254 0.4643 0.5211 0.513 0.5225 0.608 0.722 0.8136 0.861 0.9404 1.0139
3597.544 1.0035 1.0679 1.323 1.153 1.0024 1.163 1.403 1.593 1.723 1.813
3616.833 1.813 2.053 2.313 2.663 3.153 3.693 4.573 5.763 7.333 9.443
3636.123 12.283 16.863 23.433 32.093 43.303 56.083 69.093 78.843 82.753 81.503
3655.413 73.833 61.593 47.553 32.443 20.403 12.723 8.333 5.893 4.303 3.203
3674.703 2.553 2.233 2.003 1.763 1.583 1.533 1.493 1.223 1.133 1.233
3693.993 1.213 1.0937 0.9704 1.0584 1.1044 1.0292 0.9266 0.8853 0.9202 0.8642
3713.282 0.8426 0.8269 0.8347 0.8713 0.8897 0.7527 0.5975 0.6437 0.5323 0.3938
3732.572 0.406 0.4937 0.408 0.4346 0.5091 0.3664 0.4343 0.4762 0.6598 0.8367
3751.862 0.8248 0.6475 0.4251 0.3856 0.4149 0.5223 0.6171 0.4402 0.3244 0.3292
3771.152 0.4021 0.8017 0.8983 0.5561 0.4859 0.4286 0.4027 0.4474 0.3191 0.528
3790.441 0.6695 0.6135 0.513 0.4531 0.571 0.7558 0.6413 0.689 0.9687 0.9308
3809.731 0.7702 0.6317 0.5309 0.4993 0.5427 0.7157 0.7858 0.7272 0.716 0.691
3829.021 0.6484 0.591 0.8168 1.0039 0.9739 0.8852 0.8463 0.7921 0.7722 0.8538
3848.311 0.9358 0.8977 0.7884 0.9813 1.0942 0.9658 0.961 1.0824 1.0675 0.9873
3867.601 0.9512 1.0865 1.193 1.0994 1.173 1.1173 0.8982 1.0496 1.343 1.323
3886.890 1.223 1.183 1.1154 1.072 1.0789 1.173 1.263 1.143 0.9099 1.0895
3906.180 1.393 1.313 1.233 1.273 1.343 1.363 1.253 1.233 1.213 1.193
3925.470 1.143 1.0103 0.9427 0.8619 0.9177 1.043 1.0718 0.9937 1.0471 1.203
3944.760 1.1152 1.0928 1.263 1.303 1.253 1.203 1.0955 1.0157 1.133 0.9919
3964.049 0.6755 0.6888 0.569 0.3298 0.3608 0.4 0.4028 0.5182 0.5478 0.478
3983.339 0.4805 0.6402 0.5265 0.354 0.503 0.6277 0.5282 0.3311 0.4623 0.5097
##END=
