##TITLE=(1-Methybutyl)benzene
##JCAMP-DX=4.24
##DATA TYPE=INFRARED SPECTRUM
##ORIGIN=NIST Mass Spectrometry Data Center
##OWNER=NIST Standard Reference Data Program
Collection (C) 2018 copyright by the U.S. Secretary of Commerce
on behalf of the United States of America. All rights reserved.
##CAS REGISTRY NO=2719-52-0
##MOLFORM=C 11 H 16
##$NIST SOURCE=MSDC-IR
##SPECTROMETER/DATA SYSTEM=HP-GC/MS/IRD
##STATE=gas
##XUNITS=1/CM
##YUNITS=ABSORBANCE
##XFACTOR=1.0
##YFACTOR=0.000003900
##DELTAX=4.0
##FIRSTX=550.0
##LASTX=3846.0
##FIRSTY=0.002516
##MAXX=3846
##MINX=550
##MAXY=0.039
##MINY=0
##NPOINTS=825
##XYDATA=(X++(Y..Y))
550.0 645 513 398 284 206 151 116 114 90 71
590.0 51 52 53 46 45 48 41 31 31 31
630.0 38 39 45 61 84 135 198 246 283 337
670.0 409 513 701 1078 1723 2593 3341 3668 3511 2843
710.0 2000 1372 1030 884 848 856 867 915 1032 1245
750.0 1556 1846 1963 1835 1480 1027 632 376 242 192
790.0 168 133 106 94 71 32 25 23 0 27
830.0 47 39 45 40 42 50 41 39 48 70
870.0 77 75 69 71 92 111 143 191 219 241
910.0 250 230 207 188 163 127 93 72 57 45
950.0 43 47 51 55 55 63 87 133 198 257
990.0 293 303 295 271 254 283 344 432 537 574
1030.0 530 437 333 256 238 259 292 346 383 402
1070.0 401 401 414 417 395 352 301 255 225 200
1110.0 179 160 134 117 103 101 99 93 78 52
1150.0 39 31 23 18 12 9 7 11 19 21
1190.0 23 23 20 22 29 36 42 55 60 71
1230.0 85 90 96 96 88 86 94 90 86 99
1270.0 113 128 133 146 169 188 213 231 248 254
1310.0 255 261 264 269 274 265 256 262 287 333
1350.0 390 442 482 517 577 663 769 868 904 851
1390.0 716 549 403 309 258 246 250 261 279 313
1430.0 385 499 679 925 1200 1467 1644 1676 1608 1458
1470.0 1273 1112 1038 1096 1261 1385 1373 1216 928 615
1510.0 402 304 254 223 204 192 183 170 145 119
1550.0 106 102 109 118 127 150 188 242 317 422
1590.0 546 669 754 761 678 531 364 217 134 99
1630.0 74 65 64 63 68 81 87 91 96 90
1670.0 78 66 48 40 41 38 35 33 31 29
1710.0 33 44 51 54 65 78 89 91 84 68
1750.0 53 42 34 32 36 46 59 85 125 162
1790.0 190 196 181 150 113 85 70 57 51 42
1830.0 36 36 43 52 65 83 102 124 143 152
1870.0 154 153 140 123 99 71 56 48 39 38
1910.0 44 55 70 98 129 160 184 195 196 187
1950.0 170 143 107 69 40 26 21 22 22 16
1990.0 14 10 8 8 7 7 12 12 8 10
2030.0 12 12 12 11 11 12 11 8 6 6
2070.0 2 2 7 2 0 3 3 4 6 6
2110.0 5 4 0 0 7 5 0 0 1 0
2150.0 1 1 3 7 4 3 7 6 9 12
2190.0 8 2 1 5 4 0 4 7 12 11
2230.0 10 13 10 7 9 10 11 8 7 9
2270.0 9 8 8 11 13 14 17 21 27 32
2310.0 33 34 37 38 30 30 38 39 39 35
2350.0 30 33 38 34 30 29 29 30 32 32
2390.0 30 26 27 26 26 26 27 29 28 26
2430.0 27 28 26 24 22 24 28 26 28 29
2470.0 30 32 30 25 24 25 25 25 30 31
2510.0 27 23 23 30 31 29 34 36 36 41
2550.0 47 48 53 60 64 66 64 65 67 71
2590.0 77 78 80 77 73 77 78 71 70 78
2630.0 77 73 74 71 67 67 68 71 78 91
2670.0 96 94 95 98 100 94 95 99 98 102
2710.0 102 106 117 128 138 154 171 183 189 189
2750.0 185 181 181 180 182 189 194 204 221 238
2790.0 254 271 298 320 346 375 399 430 466 504
2830.0 553 616 701 841 1057 1332 1643 1954 2261 2585
2870.0 2984 3469 3903 4128 4137 3954 3685 3542 3611 3882
2910.0 4294 4767 5268 5785 6256 6616 6792 6708 6385 6000
2950.0 5862 6298 7405 8905 10000 9999 8771 6751 4666 3065
2990.0 2113 1629 1399 1296 1272 1333 1491 1759 2132 2510
3030.0 2759 2785 2581 2238 1893 1676 1657 1856 2195 2504
3070.0 2655 2608 2380 2052 1755 1505 1278 1079 916 778
3110.0 656 545 451 362 299 264 235 211 198 192
3150.0 193 188 178 173 167 164 160 144 135 130
3190.0 124 121 115 117 107 89 82 74 70 58
3230.0 43 43 44 41 35 35 36 33 37 47
3270.0 38 32 31 20 25 33 29 27 40 38
3310.0 32 30 20 26 31 20 17 21 21 22
3350.0 24 25 19 7 5 16 31 32 25 24
3390.0 26 23 15 16 15 13 18 23 23 16
3430.0 11 10 22 31 22 18 28 27 23 18
3470.0 15 23 23 17 18 19 10 7 12 14
3510.0 11 7 6 7 16 21 20 13 12 18
3550.0 14 11 14 9 0 2 13 13 7 11
3590.0 17 13 11 19 29 34 31 24 25 26
3630.0 29 36 36 35 42 37 30 35 32 30
3670.0 39 44 44 41 38 37 37 36 33 34
3710.0 44 47 38 39 38 37 35 32 32 35
3750.0 38 32 37 50 45 42 37 42 51 52
3790.0 50 47 53 58 57 41 39 48 38 30
3830.0 31 36 37 35 40
##END=
