##TITLE=3-Chloro-4-methylbenzyl chloride
##JCAMP-DX=4.24
##DATA TYPE=INFRARED SPECTRUM
##ORIGIN=EPA-IR VAPOR PHASE LIBRARY
##OWNER=SRD/NIST
Collection (C) 2018 copyright by the U.S. Secretary of Commerce
on behalf of the United States of America. All rights reserved.
##CAS REGISTRY NO=2719-40-6
##MOLFORM=C 8 H 8 Cl 2
##$NIST SOURCE=MSDC-IR
##STATE=gas
##XUNITS=1/CM
##YUNITS=ABSORBANCE
##XFACTOR=1.
##YFACTOR=0.001
##DELTAX=1.92898
##FIRSTX=549.8
##LASTX=4000.7
##FIRSTY=1.584
##MAXX=4000.7
##MINX=549.759
##MAXY=0.028404
##MINY=0
##NPOINTS=1790
##XYDATA=(X++(Y..Y))
549.759 1.584 2.104 2.854 3.184 3.394 3.664 3.234 3.374 3.664 3.124
569.049 2.904 2.724 2.134 1.964 1.884 1.794 1.514 1.187 1.434 1.294
588.339 1.0704 1.177 1.1137 0.9662 0.7629 0.7387 0.6515 0.587 0.7825 0.8602
607.628 0.8922 0.7954 0.5331 0.6273 0.6757 0.8582 0.9396 0.8606 0.9525 0.8081
626.918 0.8693 1.1552 1.574 1.644 1.654 1.894 2.264 2.534 2.704 2.744
646.208 2.694 2.544 2.514 2.554 2.214 2.014 2.004 2.024 2.094 2.254
665.498 2.404 2.514 2.764 3.204 3.684 4.264 4.924 5.764 6.724 7.704
684.787 8.814 9.604 10.084 10.434 10.364 9.974 9.594 9.104 8.504 7.984
704.077 7.794 7.844 8.064 8.634 9.484 10.294 11.294 12.754 14.214 15.644
723.367 17.474 19.234 20.334 21.184 21.574 21.324 20.934 20.284 19.114 17.514
742.657 16.044 14.854 13.804 12.914 11.984 11.154 10.344 9.594 8.864 8.024
761.947 7.514 6.904 6.254 5.984 5.564 5.314 5.064 4.774 4.654 4.434
781.236 4.124 3.954 4.044 3.974 4.044 4.154 4.264 4.624 4.894 5.144
800.526 5.654 6.104 6.574 7.364 8.114 8.714 9.044 8.994 8.554 7.854
819.816 7.294 6.624 5.684 4.864 4.244 3.574 2.874 2.534 2.234 1.844
839.106 1.754 1.594 1.614 1.564 1.344 1.414 1.384 1.494 1.644 1.764
858.395 2.064 2.284 2.184 2.344 2.524 2.834 3.254 3.414 3.694 3.874
877.685 4.094 4.144 4.224 4.344 4.064 4.024 4.104 3.924 3.964 3.944
896.975 3.774 3.804 3.714 3.714 3.914 3.974 3.974 3.924 3.864 3.914
916.265 3.934 3.914 3.874 3.824 3.874 3.874 3.774 3.804 3.934 4.004
935.555 4.224 4.514 4.514 4.254 4.074 4.014 3.714 3.204 2.734 2.394
954.844 1.944 1.604 1.574 1.434 1.394 1.534 1.384 1.294 1.2162 1.0623
974.134 1.2233 1.2257 1.1682 1.424 1.694 1.764 1.694 1.844 1.884 1.774
993.424 1.994 2.254 2.314 2.414 2.544 2.494 2.344 2.294 2.264 2.164
1012.714 2.204 2.674 2.964 3.214 3.584 3.764 4.174 4.984 5.964 6.744
1032.003 7.474 8.324 9.934 11.904 13.594 15.744 18.394 21.064 23.864 26.394
1051.293 27.974 28.404 27.774 26.484 24.124 20.974 17.184 13.234 10.374 8.184
1070.583 6.604 5.594 4.714 4.114 3.624 3.404 3.544 3.614 3.064 2.564
1089.873 2.404 2.054 2.364 2.674 2.684 2.634 2.474 2.364 2.514 3.004
1109.163 2.914 2.484 2.244 1.984 1.954 2.004 2.304 2.584 2.384 2.414
1128.452 2.534 2.714 2.874 2.964 3.254 2.994 2.834 3.524 3.674 3.134
1147.742 3.174 3.444 3.144 2.934 2.864 2.394 2.254 2.314 2.254 2.404
1167.032 2.694 2.864 2.884 2.614 2.094 2.174 2.724 2.814 2.734 2.714
1186.322 2.284 2.014 2.104 2.134 2.484 2.984 3.404 3.564 3.704 4.234
1205.611 4.424 4.604 4.344 4.174 4.464 4.284 4.344 4.404 4.264 3.754
1224.901 3.244 3.154 2.934 2.994 2.894 2.904 3.164 3.514 4.084 4.574
1244.191 5.134 5.784 6.544 7.374 8.384 9.554 10.824 12.254 13.624 14.704
1263.481 15.694 16.194 16.064 15.804 15.304 14.374 13.094 11.694 10.754 9.954
1282.771 9.274 8.994 8.524 7.844 7.294 6.764 6.024 5.174 4.374 3.624
1302.060 3.044 2.694 2.474 2.234 1.994 1.844 1.734 1.674 1.554 1.414
1321.350 1.344 1.334 1.314 1.314 1.2386 1.1348 1.0897 1.1041 1.0957 1.0475
1340.640 1.0544 1.0181 1.0913 1.2058 1.1763 1.2042 1.274 1.254 1.244 1.354
1359.930 1.484 1.534 1.634 1.764 1.874 2.084 2.344 2.654 2.964 3.284
1379.219 3.794 4.264 4.614 4.984 5.374 5.804 6.124 6.354 6.464 6.514
1398.509 6.534 6.614 6.654 6.514 6.254 5.924 5.634 5.364 5.124 4.924
1417.799 4.784 4.694 4.644 4.714 4.884 5.084 5.334 5.594 5.924 6.314
1437.089 6.764 7.184 7.634 8.014 8.304 8.564 8.704 8.714 8.594 8.464
1456.378 8.294 8.194 8.254 8.494 8.964 9.664 10.614 11.754 12.984 14.244
1475.668 15.374 16.274 16.814 17.134 17.204 17.004 16.524 15.844 15.084 14.214
1494.958 13.194 11.994 10.814 9.504 8.124 6.884 5.754 4.844 4.194 3.734
1514.248 3.344 3.074 2.884 2.734 2.574 2.374 2.204 2.114 2.054 1.994
1533.538 1.974 1.964 2.034 2.194 2.164 2.104 2.154 2.204 2.254 2.374
1552.827 2.514 2.604 2.794 3.074 3.174 3.264 3.384 3.534 3.684 3.674
1572.117 3.634 3.644 3.694 3.604 3.404 3.224 3.044 2.944 2.754 2.604
1591.407 2.624 2.634 2.644 2.634 2.704 2.754 2.744 2.874 2.824 2.704
1610.697 2.654 2.474 2.264 2.064 1.994 1.814 1.554 1.404 1.324 1.244
1629.986 1.1988 1.2117 1.254 1.244 1.1358 1.081 1.0356 0.9572 0.9679 0.908
1649.276 0.7848 0.8236 0.7988 0.7108 0.6913 0.6916 0.6554 0.6336 0.6353 0.6369
1668.566 0.6637 0.6055 0.4948 0.5101 0.6 0.5756 0.5659 0.6559 0.693 0.6086
1687.856 0.6321 0.6135 0.5472 0.6303 0.6775 0.6521 0.6733 0.5923 0.5496 0.6205
1707.146 0.6143 0.5571 0.5352 0.5698 0.6142 0.7123 0.6557 0.6091 0.6393 0.669
1726.435 0.7568 0.6606 0.6483 0.8438 0.9465 0.8809 0.9196 1.0322 1.0647 1.1105
1745.725 1.1556 1.2067 1.324 1.384 1.344 1.364 1.334 1.2274 1.1958 1.1225
1765.015 1.0531 0.9657 0.8895 0.8595 0.8298 0.8023 0.7385 0.724 0.7373 0.7165
1784.305 0.6655 0.6738 0.6205 0.5622 0.5531 0.5118 0.5264 0.547 0.5938 0.5565
1803.594 0.5003 0.5207 0.4809 0.4433 0.4481 0.4951 0.4881 0.4267 0.4259 0.4441
1822.884 0.4057 0.4017 0.4039 0.3961 0.4331 0.4527 0.4386 0.4347 0.4253 0.3997
1842.174 0.4121 0.425 0.3992 0.4203 0.4623 0.4447 0.4629 0.4256 0.4076 0.5407
1861.464 0.6341 0.6318 0.6469 0.7118 0.7754 0.7398 0.7528 0.9237 1.0632 1.1221
1880.754 1.119 1.1459 1.2183 1.2224 1.214 1.222 1.1594 1.0913 0.9977 0.8621
1900.043 0.7836 0.7555 0.7183 0.6932 0.6458 0.5829 0.5552 0.5691 0.5661 0.5049
1919.333 0.4201 0.4317 0.4543 0.3802 0.3627 0.3716 0.3728 0.4169 0.4325 0.34171
1938.623 0.31464 0.33798 0.30857 0.33609 0.31805 0.30968 0.2948 0.28225 0.344 0.3752
1957.913 0.3831 0.3501 0.30425 0.24112 0.1927 0.249175 0.31473 0.28282 0.249337 0.26663
1977.202 0.29859 0.28196 0.25825 0.26136 0.28156 0.30098 0.2231 0.1841 0.24117 0.25689
1996.492 0.246729 0.23886 0.24844 0.1918 0.1742 0.29564 0.3434 0.30593 0.28751 0.28772
2015.782 0.26556 0.30886 0.34132 0.29246 0.32692 0.31942 0.3242 0.34237 0.31072 0.31442
2035.072 0.2916 0.3136 0.3447 0.30842 0.27616 0.31677 0.3539 0.33702 0.33354 0.3239
2054.362 0.27365 0.29411 0.3454 0.31015 0.27991 0.244363 0.2219 0.2802 0.32102 0.30601
2073.651 0.31063 0.3631 0.3517 0.32526 0.31862 0.3051 0.3807 0.4025 0.3591 0.31778
2092.941 0.28449 0.3474 0.419 0.3636 0.32058 0.34101 0.32442 0.31404 0.28635 0.23676
2112.231 0.228 0.2406 0.25983 0.2823 0.31954 0.30264 0.30758 0.29766 0.23575 0.2322
2131.521 0.2255 0.25659 0.32569 0.3679 0.4093 0.3635 0.27988 0.26492 0.26571 0.3174
2150.810 0.27461 0.2405 0.2797 0.27878 0.26737 0.27911 0.26366 0.142 0.116 0.1645
2170.100 0.1693 0.27196 0.30143 0.2209 0.28434 0.3103 0.2275 0.245425 0.31744 0.28432
2189.390 0.26956 0.27695 0.25617 0.28004 0.28239 0.28459 0.27281 0.2345 0.249598 0.30376
2208.680 0.31009 0.28379 0.24271 0.32132 0.4129 0.33193 0.250523 0.1714 0.117 0.13
2227.970 0.1963 0.23516 0.1526 0.1804 0.28668 0.23954 0.1919 0.24004 0.2311 0.1853
2247.259 0.219 0.2375 0.2815 0.26195 0.19 0.2558 0.29544 0.27422 0.2234 0.2234
2266.549 0.29643 0.31453 0.32229 0.30103 0.26236 0.2231 0.26481 0.3789 0.3764 0.33998
2285.839 0.372 0.4222 0.4273 0.4273 0.4267 0.3863 0.4105 0.456 0.3685 0.33786
2305.129 0.4727 0.501 0.3674 0.3462 0.4232 0.4209 0.3481 0.32346 0.356 0.30745
2324.418 0.29761 0.3487 0.3335 0.33983 0.3991 0.4046 0.3539 0.2915 0.3562 0.5374
2343.708 0.5388 0.4078 0.3571 0.3753 0.4285 0.4047 0.3731 0.3918 0.34052 0.33428
2362.998 0.3698 0.3767 0.3604 0.4411 0.4745 0.3866 0.377 0.3839 0.28762 0.2896
2382.288 0.3385 0.3493 0.4523 0.4489 0.3696 0.4006 0.4306 0.3682 0.25877 0.26287
2401.578 0.366 0.3693 0.3897 0.4126 0.3916 0.4058 0.30796 0.28589 0.3719 0.3598
2420.867 0.3276 0.3512 0.3838 0.3459 0.3788 0.439 0.4605 0.4057 0.34053 0.29109
2440.157 0.28866 0.4019 0.4589 0.4443 0.3693 0.31154 0.28066 0.2313 0.28008 0.3437
2459.447 0.31363 0.26483 0.27848 0.31107 0.3594 0.32964 0.246134 0.29483 0.30065 0.2189
2478.737 0.263 0.2754 0.26015 0.28443 0.250738 0.2932 0.385 0.3784 0.29467 0.24005
2498.026 0.244923 0.28867 0.32871 0.3638 0.3995 0.33239 0.23594 0.29081 0.3816 0.3568
2517.316 0.366 0.396 0.3723 0.3784 0.3838 0.3627 0.27663 0.233 0.27231 0.32754
2536.606 0.383 0.3528 0.3834 0.3598 0.28646 0.3807 0.4072 0.31467 0.30718 0.30637
2555.896 0.30185 0.29057 0.25622 0.33075 0.408 0.3595 0.29471 0.30875 0.31481 0.29758
2575.186 0.29563 0.32306 0.3496 0.3855 0.2962 0.29998 0.3954 0.358 0.3978 0.3866
2594.475 0.25908 0.2176 0.25213 0.27907 0.30691 0.2266 0.2174 0.3421 0.4026 0.4575
2613.765 0.466 0.4351 0.4342 0.3958 0.3796 0.4033 0.3529 0.33959 0.371 0.366
2633.055 0.3547 0.3731 0.3801 0.250858 0.2141 0.27491 0.1957 0.1881 0.2329 0.28646
2652.345 0.3587 0.31769 0.29639 0.2301 0.1817 0.169 0.1922 0.32779 0.4311 0.4321
2671.634 0.3767 0.42 0.418 0.3803 0.4577 0.3948 0.249135 0.247173 0.32527 0.33973
2690.924 0.32851 0.4829 0.5246 0.451 0.4404 0.3794 0.4037 0.5821 0.5947 0.5355
2710.214 0.5622 0.5333 0.5213 0.5364 0.5762 0.5469 0.497 0.5321 0.5162 0.4533
2729.504 0.3989 0.34196 0.4383 0.4917 0.5081 0.5546 0.5634 0.5805 0.6132 0.63
2748.794 0.623 0.7077 0.6769 0.5356 0.541 0.5782 0.5751 0.4945 0.4208 0.486
2768.083 0.5277 0.4436 0.4414 0.4232 0.32534 0.3458 0.28725 0.28922 0.3834 0.4256
2787.373 0.4213 0.5306 0.6096 0.5464 0.4572 0.5028 0.605 0.6002 0.5716 0.5576
2806.663 0.5613 0.5368 0.584 0.5965 0.554 0.5295 0.5262 0.5807 0.6361 0.7654
2825.953 0.7899 0.7358 0.9544 0.9797 0.8559 0.9375 0.9703 0.9577 1.0562 1.1637
2845.242 1.2299 1.374 1.554 1.604 1.644 1.894 2.134 2.174 2.224 2.374
2864.532 2.554 2.734 2.894 2.944 2.994 3.134 3.174 3.184 3.164 3.124
2883.822 3.034 3.014 2.974 2.944 2.904 2.764 2.804 2.824 2.664 2.644
2903.112 2.714 2.694 2.744 2.934 3.094 3.214 3.284 3.454 3.794 4.094
2922.401 4.424 4.934 5.434 5.914 6.504 7.194 7.654 8.104 8.464 8.584
2941.691 8.574 8.394 8.094 7.684 7.404 7.234 7.154 7.154 7.354 7.644
2960.981 7.894 8.224 8.774 9.154 9.154 9.094 8.934 8.634 8.344 8.074
2980.271 7.804 7.554 7.304 7.124 6.884 6.564 6.434 6.384 6.104 5.834
2999.561 5.784 5.734 5.584 5.344 5.344 5.404 5.284 5.204 5.054 5.134
3018.850 5.454 5.634 5.604 5.694 5.844 5.754 5.614 5.514 5.434 5.314
3038.140 5.254 5.074 4.844 4.764 4.754 4.694 4.544 4.564 4.574 4.504
3057.430 4.484 4.414 4.304 4.234 4.164 4.064 3.914 3.744 3.544 3.304
3076.720 3.204 3.224 2.974 2.694 2.594 2.394 2.404 2.384 2.154 1.924
3096.009 1.844 1.814 1.644 1.524 1.584 1.614 1.464 1.206 1.1245 1.2016
3115.299 1.0481 0.8797 0.9212 0.8039 0.7005 0.6625 0.6263 0.58 0.4999 0.5639
3134.589 0.5936 0.5352 0.533 0.547 0.6236 0.6594 0.5456 0.4857 0.4841 0.4692
3153.879 0.3845 0.3619 0.3964 0.4699 0.5153 0.4698 0.4713 0.4989 0.4262 0.3991
3173.169 0.4161 0.4187 0.3845 0.3855 0.4238 0.4103 0.4021 0.26015 0.30532 0.359
3192.458 0.248576 0.31818 0.32277 0.26471 0.32983 0.369 0.416 0.4274 0.4675 0.5513
3211.748 0.4326 0.3508 0.32986 0.30305 0.27065 0.2244 0.33015 0.29709 0.2044 0.2052
3231.038 0.27903 0.26737 0.1841 0.2319 0.249291 0.27408 0.31493 0.3555 0.3541 0.2126
3250.328 0.1848 0.26191 0.356 0.253426 0.106 0.1578 0.2049 0.29644 0.29046 0.148
3269.617 0.071 0.089 0.13 0.3537 0.3667 0.1558 0.1923 0.2301 0.222 0.2292
3288.907 0.25523 0.166 0.1765 0.257 0.28766 0.3857 0.4012 0.4438 0.3814 0.24072
3308.197 0.29028 0.2248 0.2173 0.3844 0.2067 0.046 0.1468 0.23641 0.3618 0.4098
3327.487 0.3522 0.3619 0.33974 0.1872 0.1818 0.29316 0.248378 0.2059 0.2212 0.26142
3346.777 0.1925 0.103 0.2 0.32394 0.27357 0.1934 0.2228 0.244921 0.33907 0.3473
3366.066 0.27318 0.17 0.073 0.1462 0.143 0.133 0.244336 0.30285 0.1732 0.138
3385.356 0.4368 0.3972 0.2292 0.4376 0.5534 0.4718 0.4751 0.38 0.3277 0.23878
3404.646 0.1546 0.4167 0.3869 0.168 0.1783 0.1906 0.2329 0.3646 0.3932 0.2168
3423.936 0.232 0.4608 0.4569 0.2174 0.23805 0.27764 0.058 0.245556 0.29177 0.083
3443.225 0.2233 0.34247 0.33618 0.28111 0.3866 0.5603 0.4312 0.30924 0.3853 0.4049
3462.515 0.32522 0.3589 0.3713 0.30542 0.3657 0.4467 0.3702 0.3751 0.4142 0.3509
3481.805 0.2195 0.16 0.1984 0.226 0.2221 0.1806 0.30903 0.31787 0.177 0.2286
3501.095 0.28762 0.3954 0.4564 0.3834 0.32492 0.30881 0.32708 0.3838 0.249821 0.112
3520.385 0.1633 0.1806 0.1968 0.1991 0.113 0.1725 0.2323 0.115 0.072 0.1516
3539.674 0.30956 0.3763 0.4689 0.4381 0.4561 0.5361 0.29452 0.086 0.25499 0.27567
3558.964 0.118 0.252125 0.23543 0.137 0.23833 0.34355 0.3748 0.3931 0.4147 0.28915
3578.254 0.236 0.3671 0.34194 0.29337 0.3799 0.25621 0.17 0.1571 0.249183 0.4333
3597.544 0.2696 0.2212 0.1805 0.119 0.2255 0.2213 0.1822 0.2236 0.2166 0.063
3616.833 0 0.036 0.128 0.2115 0.33074 0.2878 0.24167 0.3944 0.514 0.5696
3636.123 0.5733 0.4626 0.26457 0.32761 0.30205 0.2209 0.30854 0.5761 0.485 0.29028
3655.413 0.39 0.27524 0.1854 0.1964 0.1446 0.073 0.1963 0.2226 0.32664 0.4479
3674.703 0.3568 0.4088 0.28093 0.057 0.073 0.26779 0.4376 0.4746 0.4036 0.3565
3693.993 0.4083 0.31556 0.24362 0.1668 0.104 0.248788 0.24888 0.28931 0.5328 0.4645
3713.282 0.31904 0.3705 0.30899 0.4065 0.4317 0.31217 0.3684 0.32371 0.2064 0.25821
3732.572 0.3933 0.4922 0.5818 0.6128 0.4096 0.22 0.32584 0.3756 0.28395 0.32468
3751.862 0.4561 0.4695 0.5476 0.5752 0.3946 0.30664 0.34252 0.3544 0.4179 0.3616
3771.152 0.27603 0.28107 0.250172 0.3166 0.4209 0.3805 0.25955 0.246904 0.251906 0.3826
3790.441 0.4724 0.33958 0.3048 0.3692 0.3552 0.3617 0.417 0.32217 0.2039 0.3618
3809.731 0.506 0.4105 0.3663 0.4504 0.5022 0.4898 0.5617 0.4637 0.3647 0.31488
3829.021 0.25971 0.3378 0.3635 0.4647 0.6441 0.5604 0.4334 0.416 0.33517 0.34013
3848.311 0.364 0.3947 0.443 0.469 0.5139 0.4749 0.476 0.3834 0.1905 0.31343
3867.601 0.4313 0.3913 0.4726 0.5162 0.407 0.26605 0.1534 0.1682 0.4048 0.4589
3886.890 0.4299 0.4535 0.3815 0.4556 0.5127 0.4558 0.3768 0.25555 0.1507 0.2137
3906.180 0.25946 0.2153 0.2358 0.2096 0.2335 0.3831 0.4587 0.4301 0.4338 0.30907
3925.470 0.2201 0.095 0.105 0.30602 0.32802 0.5209 0.6308 0.5143 0.4151 0.1959
3944.760 0.059 0.23517 0.5028 0.6754 0.7173 0.583 0.5571 0.5255 0.3908 0.4548
3964.049 0.27664 0.2023 0.3461 0.4677 0.5572 0.4152 0.3484 0.3568 0.4795 0.5203
3983.339 0.4338 0.4574 0.4172 0.27458 0.2318 0.3477 0.5705 0.3864 0.26304 0.2916
##END=
