##TITLE=4-Acetamidoacetophenone
##JCAMP-DX=4.24
##DATA TYPE=INFRARED SPECTRUM
##ORIGIN=EPA-IR VAPOR PHASE LIBRARY
##OWNER=SRD/NIST
Collection (C) 2018 copyright by the U.S. Secretary of Commerce
on behalf of the United States of America. All rights reserved.
##CAS REGISTRY NO=2719-21-3
##MOLFORM=C 10 H 11 N O 2
##$NIST SOURCE=MSDC-IR
##STATE=gas
##XUNITS=1/CM
##YUNITS=ABSORBANCE
##XFACTOR=1.
##YFACTOR=0.001
##DELTAX=3.85796
##FIRSTX=551.7
##LASTX=4000.7
##FIRSTY=1.97
##MAXX=4000.7
##MINX=551.688
##MAXY=0.01941
##MINY=0.0003948
##NPOINTS=895
##XYDATA=(X++(Y..Y))
551.688 1.97 1.88 1.86 1.77 1.66 1.77 2 2.28 2.46 2.61
590.268 2.73 2.76 2.77 2.89 3.18 3.68 4.25 4.52 4.17 3.43
628.847 2.85 2.68 2.57 2.31 1.96 1.72 1.61 1.54 1.47 1.41
667.427 1.4 1.36 1.3 1.27 1.3 1.29 1.2 1.21 1.27 1.25
706.006 1.23 1.24 1.24 1.24 1.2 1.2 1.21 1.15 1.13 1.18
744.586 1.23 1.22 1.17 1.12 1.13 1.19 1.19 1.2 1.27 1.28
783.165 1.3 1.36 1.44 1.54 1.68 1.83 1.95 2.06 2.23 2.48
821.745 2.72 3.03 3.36 3.62 3.65 3.44 3.12 2.7 2.28 1.97
860.324 1.76 1.56 1.4 1.34 1.38 1.4 1.34 1.32 1.38 1.34
898.904 1.32 1.35 1.34 1.36 1.37 1.38 1.37 1.45 1.61 1.78
937.484 2.03 2.38 2.83 3.31 3.62 3.62 3.33 2.85 2.49 2.41
976.063 2.43 2.53 2.72 2.89 2.87 2.72 2.55 2.43 2.4 2.35
1014.643 2.28 2.17 1.94 1.76 1.71 1.66 1.62 1.66 1.74 1.81
1053.222 1.85 1.82 1.84 1.93 1.93 1.88 1.84 1.83 1.75 1.59
1091.802 1.58 1.64 1.62 1.59 1.66 1.64 1.67 1.78 1.81 1.72
1130.381 1.64 1.58 1.47 1.45 1.48 1.57 1.68 1.8 2 2.53
1168.961 3.61 5.71 7.95 8.69 7.74 5.74 4.46 4.33 4.74 5.54
1207.540 6.49 7.49 8.4 8.92 8.9 8.94 9.55 10.77 12.11 12.9
1246.120 13.13 13.66 15.6 18.28 19.41 17.56 13.13 8.98 7.2 6.99
1284.699 7.29 7.7 8.16 8.72 9.43 9.99 9.72 8.48 6.59 4.82
1323.279 3.81 3.33 3.16 3.24 3.41 3.68 4.16 4.98 6.19 7.48
1361.859 8.42 8.72 8.36 7.66 6.93 6.41 6.29 6.6 7.2 7.81
1400.438 8.08 7.78 6.95 5.85 4.83 4.11 3.67 3.46 3.39 3.34
1439.018 3.33 3.4 3.48 3.61 3.8 4.05 4.37 4.87 5.61 6.68
1477.597 8.11 9.86 11.84 13.65 14.72 14.89 14.84 15.36 16.32 16.51
1516.177 15.08 12.25 9.25 6.99 5.45 4.45 3.85 3.44 3.16 2.99
1554.756 2.89 2.86 2.9 3.05 3.37 3.85 4.61 5.64 6.93 8.38
1593.336 9.96 11.46 12.19 11.52 9.45 6.87 4.82 3.61 2.96 2.61
1631.915 2.42 2.33 2.29 2.29 2.32 2.37 2.48 2.6 2.75 2.88
1670.495 3.06 3.38 3.9 4.71 6.16 8.51 11.89 15.11 16.55 15.82
1709.075 13.37 11.29 11.06 12.23 13.82 14.92 14.56 13.41 11.83 9.41
1747.654 7.06 5.31 4.2 3.54 3.14 2.87 2.66 2.42 2.21 2.04
1786.234 1.89 1.78 1.68 1.58 1.49 1.4 1.34 1.28 1.24 1.23
1824.813 1.22 1.2 1.18 1.18 1.18 1.16 1.18 1.21 1.21 1.2
1863.393 1.22 1.23 1.22 1.21 1.19 1.17 1.15 1.13 1.16 1.16
1901.972 1.15 1.15 1.13 1.11 1.1 1.08 1.05 1.02 1.01 0.9997
1940.552 0.9714 0.9591 0.9589 0.9542 0.9524 0.9496 0.94 0.9267 0.9245 0.9265
1979.131 0.906 0.9029 0.9032 0.8825 0.8904 0.8929 0.8715 0.873 0.9006 0.8914
2017.711 0.8678 0.8544 0.847 0.8456 0.8321 0.7938 0.784 0.7931 0.7824 0.768
2056.291 0.7389 0.7297 0.7292 0.7442 0.7409 0.7141 0.7013 0.6822 0.6729 0.6747
2094.870 0.6681 0.6664 0.6566 0.6389 0.6458 0.6515 0.6366 0.6381 0.664 0.6771
2133.450 0.6726 0.6653 0.6652 0.683 0.6846 0.6653 0.6579 0.655 0.6442 0.6273
2172.029 0.6114 0.6105 0.6027 0.5869 0.6027 0.6202 0.6192 0.6092 0.596 0.5993
2210.609 0.6242 0.6296 0.606 0.5945 0.5981 0.5863 0.5632 0.555 0.5546 0.5619
2249.188 0.562 0.5503 0.5542 0.5417 0.5397 0.5588 0.5548 0.5509 0.5694 0.5894
2287.768 0.5961 0.6088 0.6177 0.6413 0.6585 0.6377 0.6323 0.6361 0.6354 0.6265
2326.347 0.609 0.6007 0.6192 0.6413 0.6334 0.6225 0.6159 0.6271 0.6275 0.5979
2364.927 0.5574 0.5506 0.5713 0.5683 0.5641 0.5775 0.5762 0.5744 0.583 0.5762
2403.507 0.5727 0.5732 0.5913 0.5943 0.5994 0.6277 0.6393 0.6505 0.6608 0.6624
2442.086 0.6658 0.6477 0.6248 0.6079 0.5936 0.5855 0.5847 0.6124 0.6005 0.5903
2480.666 0.62 0.6129 0.5895 0.5998 0.6206 0.6103 0.6191 0.6461 0.6526 0.6784
2519.245 0.6892 0.6667 0.6585 0.6767 0.68 0.674 0.6682 0.6514 0.66 0.6594
2557.825 0.6381 0.6286 0.6208 0.6057 0.5877 0.5822 0.6056 0.6198 0.6064 0.5955
2596.404 0.5849 0.5712 0.5505 0.5414 0.5591 0.5647 0.5668 0.573 0.5804 0.5733
2634.984 0.5427 0.5376 0.5552 0.5682 0.553 0.5549 0.5779 0.6007 0.6093 0.5982
2673.563 0.5859 0.5724 0.5641 0.5681 0.5876 0.5803 0.5782 0.608 0.6168 0.6139
2712.143 0.6078 0.6234 0.6133 0.5781 0.5652 0.5685 0.5886 0.5544 0.5374 0.5962
2750.722 0.6168 0.5978 0.5863 0.5767 0.5413 0.5284 0.5862 0.608 0.5902 0.5717
2789.302 0.5738 0.5774 0.5915 0.5841 0.5377 0.555 0.5984 0.6224 0.6152 0.6017
2827.882 0.6217 0.6365 0.6317 0.6249 0.6551 0.6888 0.7197 0.7351 0.7283 0.7143
2866.461 0.7061 0.6925 0.6712 0.692 0.7231 0.7476 0.7606 0.7427 0.7687 0.8029
2905.041 0.8332 0.8741 0.8976 0.9225 0.9059 0.9865 1.13 1.2 1.2 1.22
2943.620 1.18 1.1 1.07 1.05 1.01 1 1.03 1.05 1.06 1.07
2982.200 1.06 1.06 1.07 1.11 1.17 1.26 1.37 1.5 1.62 1.7
3020.779 1.73 1.8 1.87 1.89 1.84 1.71 1.56 1.45 1.38 1.36
3059.359 1.44 1.47 1.45 1.48 1.47 1.39 1.29 1.25 1.22 1.15
3097.938 1.08 1.06 1.08 1.05 0.9857 0.9298 0.8604 0.8145 0.78 0.7337
3136.518 0.723 0.7465 0.6758 0.5982 0.5774 0.6187 0.6256 0.5776 0.5951 0.5971
3175.098 0.5673 0.5916 0.5878 0.5728 0.5917 0.5361 0.5174 0.5469 0.5606 0.5263
3213.677 0.521 0.52 0.5397 0.5884 0.5686 0.5656 0.5522 0.513 0.5241 0.5608
3252.257 0.5354 0.4924 0.4652 0.4889 0.5428 0.5403 0.5474 0.5749 0.5492 0.5466
3290.836 0.5584 0.5495 0.5404 0.4866 0.4609 0.4969 0.5014 0.542 0.5935 0.6032
3329.416 0.5731 0.5388 0.5837 0.5943 0.6017 0.6108 0.5699 0.5524 0.6117 0.6483
3367.995 0.6845 0.7014 0.7243 0.7786 0.8197 0.8734 0.8794 0.7938 0.7564 0.7982
3406.575 0.8344 0.8884 0.8752 0.8637 0.8566 0.8714 0.9199 0.9561 1 1.12
3445.154 1.26 1.38 1.55 1.66 1.71 1.71 1.59 1.41 1.2 1.01
3483.734 0.9172 0.8017 0.6886 0.641 0.6383 0.6448 0.6106 0.5562 0.5557 0.5558
3522.314 0.5524 0.5527 0.5198 0.5164 0.5477 0.5655 0.5426 0.5331 0.5319 0.5071
3560.893 0.5247 0.5611 0.5353 0.5299 0.5836 0.5846 0.5452 0.5712 0.5836 0.5221
3599.473 0.4925 0.5463 0.5628 0.5375 0.5765 0.5633 0.5787 0.5724 0.5139 0.552
3638.052 0.5881 0.6118 0.6002 0.5913 0.5955 0.5844 0.6086 0.6211 0.6107 0.5844
3676.632 0.5768 0.5984 0.6036 0.5925 0.5832 0.603 0.5693 0.5608 0.5578 0.5269
3715.211 0.5426 0.5554 0.5248 0.4639 0.4809 0.4919 0.4472 0.4764 0.5087 0.463
3753.791 0.4826 0.5294 0.5015 0.5195 0.5306 0.5404 0.5204 0.4851 0.4963 0.5032
3792.370 0.5277 0.5222 0.4884 0.509 0.5295 0.4859 0.4212 0.3948 0.4273 0.4302
3830.950 0.4474 0.4426 0.41 0.4705 0.4891 0.4864 0.5676 0.5649 0.5534 0.5963
3869.530 0.5736 0.4923 0.4546 0.5084 0.5722 0.5408 0.4973 0.5089 0.4746 0.5069
3908.109 0.5798 0.5539 0.5379 0.5639 0.5428 0.5097 0.5155 0.5666 0.6071 0.5588
3946.689 0.5682 0.5211 0.4285 0.4847 0.497 0.5073 0.4954 0.4878 0.4815 0.5043
3985.268 0.5516 0.5281 0.5695 0.5553 0.4991
##END=
