##TITLE=(-)-1-(4-Bromophenyl)ethylamine
##JCAMP-DX=4.24
##DATA TYPE=INFRARED SPECTRUM
##ORIGIN=EPA-IR VAPOR PHASE LIBRARY
##OWNER=SRD/NIST
Collection (C) 2018 copyright by the U.S. Secretary of Commerce
on behalf of the United States of America. All rights reserved.
##CAS REGISTRY NO=27298-97-1
##MOLFORM=C 8 H 10 Br N
##$NIST SOURCE=MSDC-IR
##STATE=gas
##XUNITS=1/CM
##YUNITS=ABSORBANCE
##XFACTOR=1.
##YFACTOR=0.001
##DELTAX=1.92898
##FIRSTX=549.8
##LASTX=4000.7
##FIRSTY=7.96
##MAXX=4000.7
##MINX=549.759
##MAXY=0.04648
##MINY=0
##NPOINTS=1790
##XYDATA=(X++(Y..Y))
549.759 7.96 9.99 9.63 7.55 6.19 5.74 6.73 8.91 5.4588 3.14
569.049 3.18 6.51 10.48 7.5 2.32 0.9 2.49 5.5457 6.62 2.47
588.339 2.12 3.93 4.231 5.73 6.51 8.11 9.67 9.56 10.84 12.27
607.628 12.56 12.55 11.28 11.11 11.04 10.79 11.93 11.26 8.41 6.32
626.918 9.03 10.08 8.86 10.42 10.66 10.89 10.51 8.73 7.06 7.21
646.208 8.78 6.22 6.09 7.19 5.5698 7.5 8.24 6.91 7.28 7.11
665.498 8.2 8.28 7.64 7.64 6.84 7.88 8.61 8.43 7.5 6.95
684.787 7.34 7.06 6.53 7.14 8.5 7.81 8.65 10.29 10.32 10.92
704.077 10.19 11.37 12.39 10.84 11.69 13.5 13.34 13.03 12.69 12.31
723.367 13.72 14.39 14.27 14.08 13.7 14.29 16.02 17.15 17.55 16.2
742.657 15.29 18 20.7 21.6 20.21 20.28 22.21 22.82 24.38 25.18
761.947 24.44 23.74 23.64 23.9 23.54 23.08 24.66 25.3 24.43 24.52
781.236 25.5 25.77 25.7 26.05 25.5 25.99 26.67 26.75 26.85 26.45
800.526 27.09 28.26 28.7 30.21 32.26 34.76 35.64 35.49 37.7 42.46
819.816 46.48 41.86 37.35 37.7 35.5 32.08 29.6 28.06 25.44 23.9
839.106 21.7 18.42 16.45 14.86 14.57 13.47 11.57 11.18 10.93 10.44
858.395 10.45 9.76 8.97 8.46 8.26 8.35 7.87 6.86 6.86 7.38
877.685 6.74 6.56 6.64 6.65 6.28 6.85 7.87 6.81 6 7.14
896.975 8.31 8.67 8.82 8.73 8.27 8.07 8.76 8.29 7.08 6.7
916.265 7.16 7.06 6.62 7.09 6.31 4.8156 5.554 6.92 6.89 5.72
935.555 5.4685 5.79 5.96 6.38 5.74 5.445 5.636 5.277 5.0016 5.1784
954.844 5.3969 4.8312 4.083 4.125 6.01 6.41 4.322 5.1976 6.57 6.23
974.134 5.7 5.0673 4.9359 5.74 6.64 7.77 8.17 8.76 8.8 8.26
993.424 9.2 9.47 11.14 14.84 19.13 24.44 32.12 37.91 40.62 41.65
1012.714 40.16 36.15 28.74 22.92 17.35 12.19 12.2 13.63 11.93 9.08
1032.003 8.26 9.38 10.95 10.23 8.36 8.33 9.64 10.14 8.68 6.88
1051.293 8.76 10.63 11.47 13.26 14.39 13.11 12.97 19.29 24.12 25.75
1070.583 30.08 32.86 33.96 36.66 33.67 29.47 27.71 22.9 19.9 19.81
1089.873 21.19 20.16 17.31 16.9 19.53 18.47 16.83 17.29 12.78 11.93
1109.163 11.5 9.49 11.5 9.89 7.4 8.97 8.92 7.2 5.95 5.94
1128.452 6.31 7.22 7.33 7.05 5.0838 3.16 3.08 3.12 5.5259 7.71
1147.742 6.71 4.449 4.70579 7.01 5.4688 5.0011 7.17 6.82 6.2 6.17
1167.032 5.6666 6.87 5.3271 7.25 8.93 6.06 7.96 7.48 5.74 5.2421
1186.322 3.807 5.1709 8.25 7.24 6.9 6.03 5.1044 6.07 7.13 7.31
1205.611 6.42 7.6 9.09 8.24 6.47 7.21 7.06 8.48 9.95 8.54
1224.901 10.56 14.02 13.89 10.35 6.65 5.4774 7.08 7.11 7.01 7.87
1244.191 8.89 8.89 8.11 7.27 7.19 7.61 8.15 9.67 8.35 5.81
1263.481 5.5016 5.97 5.96 7.38 7.34 5.92 5.75 6.46 7.11 7.03
1282.771 7.88 8.09 7.55 8.23 9.31 10.02 9.86 9.99 10.76 10.82
1302.060 9.91 8.55 8.35 8.96 8.95 8.79 9.1 9.26 9.19 9.86
1321.350 9.98 9.98 10.48 11.06 11.38 11.4 11.34 11.39 11.58 11.37
1340.640 11.08 10.87 11.08 11.4 11.76 12.08 12.48 12.97 13.17 13.31
1359.930 13.19 13.4 13.66 13.75 13.7 13.83 14.04 13.72 13.18 13.08
1379.219 13.37 13.51 13.29 12.59 12.24 12 11.85 11.89 12.4 12.77
1398.509 12.79 12.75 12.96 13.47 13.13 12.63 11.95 11.65 11.41 10.88
1417.799 10.37 9.55 9.73 9.54 8.91 8.15 7.66 8.28 8.22 8.01
1437.089 8.41 8.13 8 8.82 9.06 9.03 9.54 10.17 10.64 11.07
1456.378 11.54 11.52 11.92 12.41 12.33 12.13 12.51 13.8 14.92 15.82
1475.668 18 21.24 24.87 29.72 35 40.16 43.35 43.52 42.12 39.41
1494.958 34.24 26.94 20.08 14.66 11.3 9.94 9.31 7.86 6.96 6.87
1514.248 6.39 5.97 5.6246 6.11 6.4 6.58 6.8 6.58 5.69 5.0056
1533.538 5.6748 5.76 5.475 5.2209 5.14 5.89 5.78 5.6401 5.83 5.68
1552.827 6.06 6.7 7.01 7.25 7.84 7.38 7.01 7.06 6.62 6.91
1572.117 7.98 8.7 8.54 8.77 9.9 10.37 11.18 12.56 13.01 13.19
1591.407 13.76 13.53 13.38 13.35 12.8 12.58 12.56 11.96 10.94 11.52
1610.697 12.3 12.12 12.48 13.15 13.77 13.93 13.3 13.11 13.35 13.09
1629.986 12.43 12.12 12.24 11.89 11 10.6 10.08 9.09 8.35 8.71
1649.276 8.92 8.4 8.01 7.15 6.25 6.29 5.71 5.427 5.84 5.83
1668.566 5.3978 4.875 4.6536 4.401 4.521 5.0942 5.2005 5.2264 5.6174 5.4877
1687.856 4.88 4.5975 4.5929 4.199 4.185 4.8253 5.0589 4.6372 4.575 4.339
1707.146 4.249 4.139 4.301 4.518 4.259 4.292 4.373 4.177 4.269 4.533
1726.435 4.6345 4.547 4.307 4.067 4.163 3.897 3.61 3.869 3.866 3.45
1745.725 3.44 4.183 4.448 4.302 4.48 4.8029 4.69904 4.554 4.428 4.572
1765.015 4.9779 4.9179 5.0062 5.307 4.8938 4.67371 5.0033 4.8568 4.818 4.6249
1784.305 3.853 3.932 4.1 3.869 3.958 4.106 4.109 4.172 4.15 3.854
1803.594 3.34 2.87 2.97 3.44 3.56 3.59 3.56 3.21 3.64 4.191
1822.884 4.107 3.941 3.889 3.707 3.32 3.36 3.43 3.15 3.36 3.48
1842.174 3.68 4.129 4.181 4.213 3.786 3.66 3.837 4.244 4.445 3.728
1861.464 3.56 3.999 4.229 4.522 4.74824 4.559 4.029 3.68 4.166 4.73667
1880.754 4.543 4.8087 5.0723 5.292 5.6498 5.4477 5.0138 4.6537 4.9656 4.9533
1900.043 4.6637 4.67576 5.2632 5.2745 5.0486 4.75025 4.498 4.241 3.69 3.761
1919.333 3.777 3.697 3.47 3.27 3.33 3.4 3.53 3.58 3.54 3.54
1938.623 3.64 3.968 3.912 3.38 3.34 3.06 3.02 3.29 3.17 3.47
1957.913 3.806 3.68 3.28 3.21 3.46 3.51 3.51 3.47 3.62 3.803
1977.202 3.798 3.795 3.18 3.61 4.222 3.48 3.02 3.02 3.05 3.21
1996.492 3.13 3.06 3.23 3.43 3.37 3.34 3.16 3.12 3.66 3.48
2015.782 3.44 3.45 2.86 2.58 3.11 3.03 2.8 3.45 3.683 3.63
2035.072 3.48 3.31 3.46 3.57 3.44 3.62 3.785 3.44 2.96 2.98
2054.362 3.2 3.21 3.2 2.87 3.05 3.43 3.21 3.2 3.15 3.27
2073.651 3.45 3.07 2.87 3.46 3.63 3.29 3.41 3.42 3.31 3.12
2092.941 3.08 3.5 4.112 4.276 3.44 2.81 2.95 3.16 3.26 3.25
2112.231 3.33 2.94 2.75 3.02 3.26 3.704 3.78 3.724 3.711 3.807
2131.521 4.015 3.43 3.12 3.707 3.28 2.83 2.51 2.4 2.99 3.06
2150.810 3.22 3.51 3.735 3.47 3 2.74 2.54 3.01 3.27 3.28
2170.100 3.27 3.33 3.44 2.87 3.02 3.63 3.63 3.58 3.44 3.29
2189.390 3.2 3.01 2.83 3.12 3.2 2.75 2.62 2.81 2.85 2.58
2208.680 2.71 3.04 3.18 3.26 2.9 2.53 3.06 3.64 3.66 3.08
2227.970 3.18 3.49 3.3 3.806 3.746 3.02 2.72 2.81 3.27 3.818
2247.259 3.958 3.759 3.03 2.84 3.23 3.34 3.34 2.8 2.56 2.88
2266.549 2.91 3.21 3.718 3.976 4.157 4.454 4.317 3.59 3.818 3.816
2285.839 3.47 3.65 3.54 3.53 3.59 3.904 4.208 4.341 3.718 3.5
2305.129 3.22 2.78 3.41 3.41 3.23 3.719 3.58 3.13 3.6 3.718
2324.418 3.33 2.77 2.99 3.08 2.65 2.93 3.2 2.92 2.84 3.13
2343.708 3.65 3.841 3.877 4.122 3.95 3.933 3.44 3.18 3.78 3.38
2362.998 2.99 3.21 3.41 3.23 2.96 3.01 3.19 3.51 3.58 3.821
2382.288 3.686 3.11 3.34 3.71 3.41 3.19 3.21 3.17 3.18 3.15
2401.578 2.96 2.95 2.96 3.767 4.371 4.303 4.533 4.502 3.783 3.89
2420.867 4.461 4.079 3.6 3.08 2.99 3.54 3.921 3.777 3.41 3.26
2440.157 3.11 3.02 3.4 3.855 4.25 4.025 3.32 3.43 3.992 3.12
2459.447 2.63 3.18 3.28 3.31 3.42 3.35 3.41 3.62 3.27 3.12
2478.737 2.8 2.58 3.47 3.6 2.9 3.09 3.03 3.28 3.36 3.59
2498.026 3.912 3.14 3.4 3.6 3 3.46 4.015 4.345 4.442 4.171
2517.316 3.869 3.76 4.032 3.836 4.148 4.097 3.06 2.48 2.98 3.34
2536.606 3.49 4.064 4.325 4.391 3.928 3.67 3.808 3.884 4.334 4.126
2555.896 3.03 2.01 2.28 3.36 3.09 3.23 3.51 2.48 2.93 3.788
2575.186 3.67 3.28 2.85 3.31 3.43 3.814 3.862 3.27 3.23 3.15
2594.475 3.46 4.054 3.47 2.9 3.04 3.18 3.16 3.763 4.312 4.182
2613.765 4.164 3.5 3.59 4.08 3.72 3.48 3.694 3.47 2.89 3.07
2633.055 3.18 3.17 3.757 4.531 3.841 2.67 3.13 3.06 2.39 2.17
2652.345 2.58 3.33 3.9 3.728 3.22 2.92 2.53 3.13 3.16 2.98
2671.634 2.71 2.38 2.83 2.42 2.75 3.19 3.05 2.78 2.31 3.11
2690.924 3.779 3.901 4.008 3.864 4.145 3.19 3.24 4.189 3.18 1.68
2710.214 2.51 3.866 4.248 4.6011 4.08 3.945 3.884 3.4 3.5 3.58
2729.504 3.716 3.59 3.36 3.55 4.107 4.9548 5.0964 4.6257 4.069 3.68
2748.794 3.798 4.348 3.62 3.44 3.51 3.09 3.54 4.283 4.231 4.195
2768.083 4.8401 4.195 3.858 3.37 2.95 4.057 4.553 4.372 4.238 4.235
2787.373 4.197 4.015 4.5916 5.0466 4.198 4.405 5.1666 5.1038 4.8769 4.6126
2806.663 4.73768 5.0628 5.3189 4.919 4.439 4.6023 5.472 5.69 5.2272 5.88
2825.953 6.99 7.07 6.41 6.64 6.91 7.51 8.71 8.67 8.29 8.09
2845.242 8.41 9.97 11.2 10.8 10.11 10.18 10.6 11.14 11.39 11.1
2864.532 11.62 12.5 12.05 11.39 12.29 14.07 14.49 14.15 13.6 12.94
2883.822 12.73 12.77 12.93 12.66 12.6 12.48 12.23 11.56 10.71 10.6
2903.112 10.67 11.07 11.44 11.54 12.03 11.23 10.85 11.77 11.86 12
2922.401 13.51 14.47 14.28 14.3 14.5 14.97 15.41 15.22 14.3 13.78
2941.691 12.79 11.94 12.54 13.09 12.21 12.09 12.92 14.02 15.28 17.43
2960.981 21.04 24.31 27.84 30.37 32.17 34.4 35.27 34.11 31.46 28.72
2980.271 25.78 23.62 21.96 20.22 18.93 16.56 15.28 13.52 11.08 10.67
2999.561 10.32 10.33 8.9 6.14 5.3015 6.1 6.3 7.47 8.41 7.26
3018.850 7.48 8.3 8.85 9.69 10.48 9.92 8.81 8.04 7.83 8.52
3038.140 8.75 9.08 9.57 8.75 7.39 6.89 7.71 7.27 6.99 7.76
3057.430 6.58 6.33 6.51 6.49 6.86 6.39 6.15 6.78 6.57 6.58
3076.720 6.63 6.2 7.11 8.54 9.15 9.46 8.47 8.21 9.22 7.92
3096.009 6.66 6.73 6.29 5.98 5.88 5.556 5.456 5.3876 5.1522 4.159
3115.299 3.63 4.292 4.7995 4.404 4.5858 4.054 3.18 2.92 2.59 2.49
3134.589 2.64 3.826 4.294 3.896 3.6 4.153 3.749 4.122 4.9532 3.44
3153.879 2.79 3.37 3.47 2.93 2.93 3.36 3.998 4.107 3.54 3.36
3173.169 2.98 2.54 2.16 2.01 4.118 5.97 3.831 1.87 1.83 2.05
3192.458 2.79 3.59 2.98 2.29 3.806 3.879 2.48 2.2 2.49 3.21
3211.748 3.59 3.16 2.5 1.65 2.82 3.852 4.264 3.974 2.58 3.02
3231.038 3.05 2.42 2.45 2.8 3.38 3.846 3.918 3.35 3.04 3.62
3250.328 3.89 3.01 2.5 3.25 2.85 2.86 3.14 2.42 3.2 4.048
3269.617 4.335 4.564 3.24 1.98 2.48 3.11 2.76 2.28 2.37 2.9
3288.907 4.423 3.95 2.64 3.32 2.69 1.61 3.17 3.38 1.59 2.12
3308.197 3.46 3.96 4.155 2.82 1.82 2.79 2.92 2.24 2.21 3
3327.487 3.35 3.926 5.5429 5.578 4.8248 4.8433 4.6267 3.913 3.18 3.55
3346.777 3.922 5.2326 4.381 2.81 3.43 3.66 4.457 5.3919 5.3856 4.06
3366.066 4.223 3.6 2.18 2.26 3.62 3.908 2.62 3.37 3.955 3.927
3385.356 3.925 3.05 2.8 3.52 3.695 4.27 4.72709 4.123 4.042 3.06
3404.646 2.19 2.04 2.21 3.07 3.17 1.72 0 1.08 2.61 2.16
3423.936 2.69 3.47 2.38 2.12 2.02 2.71 4.297 4.175 3.777 3.53
3443.225 4.175 4.284 3.32 3.24 3.65 4.68357 5.2285 4.9922 4.6625 3.64
3462.515 2.2 1.92 2.83 3.19 1.86 0.98 1.51 2.45 2.93 3.4
3481.805 3.998 3.908 4.336 3.791 2.16 2.42 3.52 2.88 1.57 2
3501.095 3.734 4.69727 5.0031 4.8552 4.9988 4.427 3.09 3.02 3.03 2.64
3520.385 3.23 3.06 3.6 4.71943 3.45 2.9 3.843 4.13 2.46 1.8
3539.674 2.96 4.248 4.56 3.38 3.42 4.055 3 2.08 1.2 0.86
3558.964 1.88 4.017 4.8776 5.1686 5.6071 3.743 3.57 3.5 2.33 3.21
3578.254 3.85 2.51 3 3.48 2.81 4.156 4.275 2.84 2.12 2.85
3597.544 3.52 3.27 3.16 2.92 2.91 3.05 2.11 1.58 2.06 2.64
3616.833 2.63 2.36 2.84 3.57 3.34 1.37 1.49 1.71 1.43 2.35
3636.123 2.01 0.85 0.65 2.6 3.62 4.016 5.0672 3.838 1.79 2.25
3655.413 2.76 2.7 3.48 3.67 3.04 3 3.21 2.6 2.57 3.929
3674.703 4.429 3.6 3.21 2.99 2.32 1.34 1.77 3.67 4.469 3.65
3693.993 3.827 3.06 1.7 2.13 1.01 0.92 3.19 4.019 3.51 2.8
3713.282 2.64 3.825 3.862 3.34 4.6027 4.76847 4.194 3.62 3.32 2.67
3732.572 2.66 3.709 3.53 4.543 4.9844 3.754 3.65 4.126 4.70066 4.014
3751.862 1.7 0.82 1.01 1.71 2.32 3.21 3.893 3.46 2.43 2.42
3771.152 3.63 3.746 3.49 3.02 2 2.47 3.14 2.86 3.13 3.38
3790.441 3.994 4.382 4.439 4.094 2.73 2.26 2.59 2.81 2.61 2.32
3809.731 3.697 4.578 3.38 2.67 3.39 4.8072 5.2754 3.903 2.77 2.27
3829.021 2.85 1.86 2.24 4.9992 3.783 3.11 5.1567 5.69 4.71 3.768
3848.311 3.702 3.865 2.75 3.08 4.567 4.17 5.0343 4.73554 3.716 4.439
3867.601 4.8207 4.9006 3.59 2.76 2.73 1.91 1.66 2.49 3.733 4.224
3886.890 3.748 4.029 3.52 3.11 3.55 2.2 1.41 2.09 3.23 4.9284
3906.180 4.388 4.6257 5.1514 2.81 1.94 2.07 2.9 2.75 3.45 3.32
3925.470 3.732 4.547 2.54 2.39 1.86 1.37 3.18 4.8124 3.975 3.04
3944.760 3.02 3.52 2.96 1.09 1.5 2.81 1.48 1.65 2.55 3.11
3964.049 3.37 2.69 3.08 3.39 3.13 3.21 2.9 1.5 2.35 2.78
3983.339 2.45 2.66 2.78 3.4 2.31 0.36 1.02 1.44 1.31 2.2
##END=
