##TITLE=Benzoxazole
##JCAMP-DX=4.24
##DATA TYPE=INFRARED SPECTRUM
##ORIGIN=NIST Mass Spectrometry Data Center
##OWNER=NIST Standard Reference Data Program
Collection (C) 2018 copyright by the U.S. Secretary of Commerce
on behalf of the United States of America. All rights reserved.
##CAS REGISTRY NO=273-53-0
##MOLFORM=C 7 H 5 N O
##$NIST SOURCE=MSDC-IR
##SPECTROMETER/DATA SYSTEM=HP-GC/MS/IRD
##STATE=gas
##XUNITS=1/CM
##YUNITS=ABSORBANCE
##XFACTOR=1.0
##YFACTOR=0.000006300
##DELTAX=4.0
##FIRSTX=550.0
##LASTX=3846.0
##FIRSTY=0.000920
##MAXX=3846
##MINX=550
##MAXY=0.063
##MINY=0
##NPOINTS=825
##XYDATA=(X++(Y..Y))
550.0 146 89 61 39 5 26 26 13 25 33
590.0 47 97 165 241 338 471 596 619 519 439
630.0 376 286 199 134 91 75 79 78 65 57
670.0 71 74 76 84 95 112 131 136 188 278
710.0 450 759 1336 2184 3188 4051 4696 6322 10000 9407
750.0 5894 5338 5172 4617 3626 2623 2070 1700 1394 1084
790.0 663 363 214 162 143 152 163 181 196 240
830.0 316 396 506 690 856 1019 1224 1531 1763 1603
870.0 1412 1233 1015 834 629 463 388 399 507 700
910.0 898 951 920 1050 1143 995 722 501 373 291
950.0 248 211 178 158 142 142 146 172 251 375
990.0 510 571 591 582 543 498 396 338 363 433
1030.0 544 733 1044 1507 2114 2922 4031 5395 6496 6734
1070.0 6426 6257 5971 4712 3089 2198 2020 2068 1790 1551
1110.0 1742 1672 1267 894 641 503 425 418 486 572
1150.0 601 547 484 460 423 357 289 245 237 241
1190.0 236 222 222 255 344 533 943 1747 2951 4113
1230.0 4719 5028 4995 4750 3868 2061 761 332 230 219
1270.0 247 297 371 482 606 696 671 590 603 603
1310.0 479 340 264 235 213 195 189 189 189 188
1350.0 175 159 150 139 121 105 89 76 72 75
1390.0 86 110 153 214 277 321 357 407 473 576
1430.0 810 1310 2106 2871 3374 3686 3683 3592 3116 2402
1470.0 1869 1350 1077 1103 1143 1067 989 1018 1219 1626
1510.0 2250 2961 3557 3648 3293 3369 3428 2656 1702 1067
1550.0 679 440 314 279 305 378 485 582 630 659
1590.0 735 802 769 703 679 645 538 405 303 229
1630.0 168 124 100 93 101 112 137 178 219 260
1670.0 297 329 373 427 519 642 767 866 941 1006
1710.0 1064 1041 890 724 621 531 382 249 185 165
1750.0 169 194 231 260 284 294 286 272 254 223
1790.0 183 159 154 158 155 144 133 119 102 85
1830.0 75 74 79 90 103 111 117 120 123 133
1870.0 146 160 178 198 212 232 240 234 223 208
1910.0 195 190 204 227 253 266 262 250 222 172
1950.0 123 89 71 65 64 61 60 63 63 61
1990.0 61 56 47 40 38 39 37 38 36 29
2030.0 26 25 24 27 26 25 26 28 30 33
2070.0 36 37 38 41 47 51 59 69 75 79
2110.0 91 105 109 109 112 111 102 92 80 74
2150.0 69 67 70 76 77 75 74 65 53 43
2190.0 36 31 30 34 39 42 51 59 60 64
2230.0 69 67 64 61 57 57 56 54 51 52
2270.0 56 54 55 62 64 65 66 61 52 45
2310.0 40 38 36 30 28 32 34 34 39 46
2350.0 55 62 63 69 73 74 73 71 69 63
2390.0 60 56 55 51 50 50 46 44 43 42
2430.0 48 56 60 61 65 69 69 66 65 66
2470.0 65 62 56 53 49 45 41 37 32 24
2510.0 17 17 21 19 18 20 23 28 27 27
2550.0 29 33 36 41 53 66 74 83 91 95
2590.0 95 89 75 66 61 46 32 26 18 17
2630.0 20 22 24 24 25 25 23 25 31 43
2670.0 46 46 49 52 52 47 37 26 21 19
2710.0 15 13 11 9 7 5 5 13 15 9
2750.0 14 23 28 28 27 26 27 22 16 19
2790.0 23 26 26 23 17 19 22 26 30 21
2830.0 13 13 17 14 5 14 18 9 9 7
2870.0 6 14 19 13 10 15 20 18 16 21
2910.0 19 20 24 25 28 39 51 57 57 59
2950.0 53 51 52 45 38 34 38 40 39 42
2990.0 45 38 34 49 63 72 90 120 159 208
3030.0 281 377 490 610 718 838 1014 1194 1297 1310
3070.0 1332 1379 1410 1370 1285 1224 1150 1040 904 736
3110.0 535 364 241 165 116 80 63 50 42 34
3150.0 32 38 42 39 27 15 10 16 15 8
3190.0 7 13 19 14 11 14 6 7 19 19
3230.0 13 7 9 5 2 8 11 13 11 19
3270.0 22 17 15 15 11 10 8 8 9 9
3310.0 8 6 5 3 0 0 2 11 18 17
3350.0 10 9 9 14 13 17 22 9 10 17
3390.0 15 15 22 21 6 3 4 4 6 10
3430.0 17 17 14 17 16 8 5 10 19 25
3470.0 25 23 19 22 22 19 32 37 28 20
3510.0 23 22 16 15 10 10 8 9 9 4
3550.0 10 21 29 17 10 22 24 18 17 18
3590.0 11 10 16 25 31 26 34 34 31 32
3630.0 21 22 37 40 27 27 33 30 29 29
3670.0 26 36 34 28 27 30 32 25 24 33
3710.0 31 23 23 19 22 22 15 26 33 28
3750.0 23 18 25 30 24 20 26 32 33 34
3790.0 21 18 18 20 31 36 34 26 24 30
3830.0 28 28 32 31 24
##END=
