##TITLE=Norflurazon
##JCAMP-DX=4.24
##DATA TYPE=INFRARED SPECTRUM
##ORIGIN=NIST Mass Spectrometry Data Center
##OWNER=NIST Standard Reference Data Program
Collection (C) 2018 copyright by the U.S. Secretary of Commerce
on behalf of the United States of America. All rights reserved.
##CAS REGISTRY NO=27314-13-2
##MOLFORM=C 12 H 9 Cl F 3 N 3 O
##$NIST SOURCE=MSDC-IR
##SPECTROMETER/DATA SYSTEM=HP-GC/MS/IRD
##STATE=gas
##XUNITS=1/CM
##YUNITS=ABSORBANCE
##XFACTOR=1.0
##YFACTOR=0.000004400
##DELTAX=4.0
##FIRSTX=550.0
##LASTX=3846.0
##FIRSTY=0.001346
##MAXX=3846
##MINX=550
##MAXY=0.044
##MINY=0
##NPOINTS=825
##XYDATA=(X++(Y..Y))
550.0 306 252 239 292 337 363 284 177 169 133
590.0 67 39 40 30 17 1 7 47 70 78
630.0 88 106 124 138 160 228 332 380 309 207
670.0 175 204 222 243 327 495 595 495 322 178
710.0 104 126 253 487 651 535 327 233 182 118
750.0 62 39 50 86 170 343 669 1118 1430 1414
790.0 1189 978 792 568 389 264 157 140 148 141
830.0 157 207 305 471 699 849 766 547 331 202
870.0 146 117 120 128 145 208 269 261 208 146
910.0 123 104 73 51 39 20 14 27 22 31
950.0 35 34 43 80 116 151 218 311 378 355
990.0 271 182 110 66 40 30 18 19 21 27
1030.0 37 64 132 194 305 523 861 1163 1248 1163
1070.0 1106 1163 1193 1086 982 1034 1130 1056 830 647
1110.0 580 590 670 839 1189 1790 2738 4119 5623 6499
1150.0 6059 4566 3058 2325 2440 3003 3456 3562 3200 2366
1190.0 1492 946 688 564 515 506 512 530 544 565
1230.0 576 551 518 479 448 443 483 531 625 794
1270.0 1017 1285 1527 1659 1657 1604 1622 1730 1909 2145
1310.0 2449 2991 4089 5994 8407 10000 9181 6295 3486 1907
1350.0 1185 837 646 528 458 403 377 376 376 372
1390.0 382 425 517 676 904 1147 1259 1173 1022 950
1430.0 975 1064 1214 1474 1845 2079 1885 1376 943 714
1470.0 635 630 671 720 783 855 835 669 462 318
1510.0 257 239 225 217 218 210 188 162 144 139
1550.0 141 151 169 207 248 300 373 472 625 829
1590.0 1071 1337 1571 1773 2120 2756 3632 4593 5260 5075
1630.0 3962 2613 1663 1167 915 790 738 726 754 844
1670.0 1020 1334 1903 2837 4201 5572 6248 5929 4971 3812
1710.0 2647 1686 1033 660 457 334 257 207 176 156
1750.0 141 134 126 117 110 93 80 77 74 74
1790.0 75 62 56 52 41 39 48 53 51 49
1830.0 41 30 22 14 8 9 12 19 22 19
1870.0 24 36 45 54 52 37 23 18 18 14
1910.0 13 14 15 14 16 21 26 38 44 45
1950.0 37 17 11 15 14 9 2 1 9 15
1990.0 16 15 20 12 9 18 17 12 9 11
2030.0 12 11 12 8 6 9 16 22 15 8
2070.0 7 4 4 8 7 2 5 8 4 6
2110.0 10 9 9 7 8 14 9 5 12 15
2150.0 19 18 18 22 18 13 12 13 15 16
2190.0 20 20 22 27 31 33 35 33 34 31
2230.0 31 34 27 26 31 35 36 35 36 37
2270.0 38 39 44 46 43 42 37 30 25 28
2310.0 23 15 14 13 11 11 20 24 20 21
2350.0 23 11 7 9 2 4 10 11 7 3
2390.0 8 15 16 16 15 17 21 19 17 19
2430.0 20 17 17 18 21 27 21 21 19 15
2470.0 16 17 22 24 23 21 19 21 23 23
2510.0 21 20 19 16 15 17 16 22 20 19
2550.0 31 22 19 24 21 20 21 29 32 29
2590.0 33 28 19 23 28 23 17 15 18 21
2630.0 20 18 17 18 25 27 22 25 27 28
2670.0 31 34 31 14 9 14 18 13 9 5
2710.0 3 9 13 7 0 12 24 23 18 19
2750.0 19 24 26 21 27 35 28 36 42 41
2790.0 39 38 52 56 52 60 74 87 110 129
2830.0 145 171 189 199 205 197 174 159 153 162
2870.0 183 193 221 229 214 194 170 159 160 171
2910.0 184 199 234 261 285 315 345 365 383 410
2950.0 445 468 459 416 371 310 245 204 187 182
2990.0 175 186 202 214 214 180 141 132 123 105
3030.0 102 105 106 109 120 137 142 149 146 132
3070.0 132 147 168 204 226 228 208 155 126 102
3110.0 91 83 64 58 62 62 54 45 35 29
3150.0 29 19 10 16 18 24 30 24 23 31
3190.0 40 20 2 7 10 22 27 11 25 41
3230.0 38 40 36 26 18 20 30 22 11 19
3270.0 28 24 19 16 13 11 13 23 33 35
3310.0 35 30 25 29 38 40 39 34 24 28
3350.0 51 69 63 71 87 92 94 92 90 96
3390.0 99 89 94 105 115 133 187 257 322 433
3430.0 564 652 634 530 405 294 225 179 135 104
3470.0 89 79 73 50 36 44 45 37 33 36
3510.0 40 56 78 69 43 44 46 33 31 40
3550.0 47 53 52 43 33 41 49 39 42 47
3590.0 42 39 53 71 59 59 75 76 77 61
3630.0 48 48 34 30 27 16 37 53 49 54
3670.0 57 56 65 64 58 54 47 39 47 51
3710.0 43 52 56 47 56 48 47 68 62 59
3750.0 55 40 35 34 38 37 52 65 57 55
3790.0 51 54 65 62 46 45 55 58 49 45
3830.0 46 39 41 32 38
##END=
