##TITLE=3-Trifluoromethylbenzoylacetonitrile
##JCAMP-DX=4.24
##DATA TYPE=INFRARED SPECTRUM
##ORIGIN=EPA-IR VAPOR PHASE LIBRARY
##OWNER=SRD/NIST
Collection (C) 2018 copyright by the U.S. Secretary of Commerce
on behalf of the United States of America. All rights reserved.
##CAS REGISTRY NO=27328-86-5
##MOLFORM=C 10 H 6 F 3 N O
##$NIST SOURCE=MSDC-IR
##STATE=gas
##XUNITS=1/CM
##YUNITS=ABSORBANCE
##XFACTOR=1.
##YFACTOR=0.001
##DELTAX=1.92898
##FIRSTX=549.8
##LASTX=4000.7
##FIRSTY=4.035
##MAXX=4000.7
##MINX=549.759
##MAXY=0.103465
##MINY=0
##NPOINTS=1790
##XYDATA=(X++(Y..Y))
549.759 4.035 5.225 5.925 5.875 6.315 6.845 6.575 6.325 5.745 4.825
569.049 4.955 4.505 3.445 3.975 4.195 3.545 3.295 3.385 3.235 3.145
588.339 3.275 2.945 2.835 2.865 2.945 3.065 3.105 3.285 2.855 3.035
607.628 3.415 3.185 3.025 2.905 3.505 3.305 2.945 3.165 3.275 3.495
626.918 2.625 2.135 2.255 2.235 2.605 2.425 2.515 3.245 3.675 4.375
646.208 5.845 6.965 7.185 7.875 8.745 8.365 7.545 6.805 5.645 4.805
665.498 4.775 4.575 4.555 5.295 5.545 5.855 6.995 8.425 9.825 11.215
684.787 12.815 14.655 16.455 17.965 19.145 19.055 18.465 17.255 15.395 14.265
704.077 13.085 11.775 11.055 10.025 8.635 7.725 6.785 5.935 5.535 4.955
723.367 4.225 3.705 3.695 3.705 3.475 3.625 3.865 4.095 4.075 3.875
742.657 3.825 3.825 3.425 3.445 3.495 2.905 2.555 2.685 3.215 3.635
761.947 3.375 2.915 2.985 2.805 2.795 2.945 2.925 3.345 3.465 3.295
781.236 3.365 3.625 4.215 5.145 5.645 6.325 7.045 7.755 8.625 8.985
800.526 9.365 9.565 9.595 9.445 8.905 8.795 8.235 7.185 6.535 5.305
819.816 4.195 4.565 4.695 3.515 3.025 2.965 2.615 2.455 2.605 2.645
839.106 2.435 2.345 2.145 2.195 2.295 1.995 1.985 1.7795 1.4811 1.5842
858.395 1.2722 1.0412 1.2399 1.5084 1.6124 1.5562 1.8032 1.8039 1.6732 1.513
877.685 1.6651 2.335 2.605 2.405 2.645 3.105 3.415 3.695 3.805 3.875
896.975 4.095 3.795 3.335 3.705 3.805 3.745 4.185 4.725 4.415 4.375
916.265 4.945 4.985 5.195 5.265 4.945 4.945 4.935 5.075 4.775 4.095
935.555 3.985 3.965 3.915 3.815 3.285 2.745 2.675 2.795 2.805 2.665
954.844 2.425 2.185 1.7896 1.4648 1.4571 1.6698 1.8156 1.8036 1.6332 1.793
974.134 1.915 1.8569 2.145 2.325 2.025 1.7428 1.915 1.6931 1.5394 2.035
993.424 2.555 3.135 3.465 3.295 3.135 2.905 2.845 3.185 3.345 3.655
1012.714 3.985 4.165 4.925 4.825 4.585 5.555 6.045 5.745 5.975 6.185
1032.003 6.105 6.105 5.575 5.275 5.285 5.225 5.035 4.245 4.235 4.955
1051.293 4.995 4.425 4.915 5.835 6.245 8.165 10.485 12.105 14.305 16.765
1070.583 19.475 21.735 22.355 22.995 22.675 21.765 20.985 18.635 16.355 15.245
1089.873 14.245 14.025 14.325 13.845 13.335 12.225 12.215 12.785 12.085 11.355
1109.163 10.875 10.925 10.775 10.395 10.705 11.465 12.485 12.505 12.585 14.435
1128.452 17.085 19.245 21.815 26.185 31.505 37.085 44.555 52.995 62.305 72.515
1147.742 81.805 91.095 99.155 103.465 102.925 98.525 92.125 85.175 79.225 76.015
1167.032 75.375 77.355 81.185 84.675 86.765 87.585 87.925 86.005 82.025 77.785
1186.322 71.515 65.215 59.715 53.825 48.795 44.325 41.375 40.155 39.045 37.645
1205.611 35.335 32.225 29.605 27.335 25.705 24.425 24.065 23.675 23.425 23.895
1224.901 23.995 25.475 27.625 30.305 33.635 37.565 43.165 49.685 55.015 60.075
1244.191 65.125 67.345 66.955 64.075 59.245 53.195 45.785 38.835 32.735 27.935
1263.481 24.925 22.075 19.735 18.125 17.295 16.205 15.335 15.445 15.495 15.415
1282.771 15.525 15.295 15.175 15.375 15.575 16.385 17.285 18.035 18.905 20.285
1302.060 21.775 23.265 24.955 26.785 29.075 31.895 34.705 37.945 41.875 46.445
1321.350 51.865 58.015 65.065 72.315 78.325 81.695 82.025 79.365 73.135 64.125
1340.640 53.685 43.045 33.575 26.015 20.375 16.265 13.255 11.155 9.645 8.415
1359.930 7.255 6.415 5.905 5.555 5.235 4.835 4.505 4.335 4.295 4.195
1379.219 4.065 3.935 3.755 3.685 3.745 3.935 4.045 3.995 4.005 3.945
1398.509 4.065 4.345 4.535 4.825 5.125 5.395 5.785 6.245 6.585 6.825
1417.799 7.065 7.285 7.395 7.615 7.715 7.545 7.655 7.995 8.195 8.305
1437.089 8.165 7.675 7.035 6.235 5.565 4.855 4.115 3.625 3.215 3.035
1456.378 2.885 2.595 2.495 2.565 2.525 2.455 2.425 2.405 2.315 2.245
1475.668 2.305 2.315 2.395 2.495 2.475 2.575 2.575 2.355 2.415 2.365
1494.958 2.245 2.275 2.205 2.085 1.875 1.7938 1.7255 1.5561 1.4146 1.3569
1514.248 1.4654 1.5338 1.5486 1.7011 1.7217 1.6769 1.6062 1.4927 1.6921 1.7727
1533.538 1.5727 1.6691 1.895 1.8506 1.6986 1.6643 1.5926 1.4699 1.646 1.8414
1552.827 1.8578 1.8723 1.905 1.945 1.8648 1.915 2.055 2.155 2.165 2.085
1572.117 1.975 2.215 2.535 2.725 3.185 3.395 3.525 4.005 4.355 4.655
1591.407 5.005 5.205 5.235 5.425 5.635 5.695 5.925 6.295 6.925 7.745
1610.697 8.205 8.435 8.555 8.355 7.905 7.145 6.415 5.785 5.375 4.975
1629.986 4.545 4.275 4.005 3.735 3.345 3.115 3.165 3.095 2.925 2.895
1649.276 3.005 3.075 3.265 3.415 3.105 2.795 2.865 3.045 3.245 3.335
1668.566 3.585 3.905 3.855 4.175 4.475 4.585 4.925 5.195 5.495 5.795
1687.856 6.335 6.935 7.685 8.615 9.615 10.885 12.795 15.225 17.875 21.335
1707.146 25.625 30.635 35.405 39.655 43.155 45.485 46.315 45.715 43.305 39.365
1726.435 34.865 30.405 26.025 21.965 18.335 15.325 13.025 11.235 9.845 8.645
1745.725 7.695 7.015 6.725 6.285 5.715 5.285 4.865 4.665 4.445 4.175
1765.015 3.895 3.725 3.475 3.205 3.075 2.925 2.795 2.645 2.545 2.585
1784.305 2.525 2.445 2.515 2.545 2.395 2.325 2.465 2.385 2.175 2.225
1803.594 2.295 2.305 2.275 2.225 2.265 2.265 2.245 2.265 2.285 2.195
1822.884 2.165 2.155 2.035 2.055 2.115 2.075 2.025 2.025 2.025 1.975
1842.174 1.955 1.935 1.915 1.895 1.8312 1.7845 1.8029 1.945 2.015 1.8635
1861.464 1.7589 1.8326 1.8731 1.7703 1.7322 1.772 1.7517 1.6824 1.625 1.709
1880.754 1.6803 1.6761 1.7428 1.7216 1.7595 1.7869 1.925 1.935 1.875 1.8289
1900.043 1.6909 1.7344 1.8159 1.7738 1.7205 1.7854 1.8545 1.8692 1.8705 1.7454
1919.333 1.7592 1.905 1.7771 1.7583 1.935 1.8396 1.7512 1.6587 1.5738 1.547
1938.623 1.5645 1.6235 1.6699 1.6858 1.58 1.5028 1.6468 1.7395 1.6392 1.6984
1957.913 1.6003 1.5713 1.6668 1.5781 1.6484 1.702 1.6852 1.6882 1.7236 1.7525
1977.202 1.5881 1.63 1.64 1.4709 1.4937 1.3684 1.3079 1.3925 1.2535 1.1336
1996.492 1.2308 1.2478 1.1494 1.1579 1.105 1.1877 1.3215 1.341 1.3431 1.2931
2015.782 1.3476 1.366 1.1975 0.95067 0.93642 1.0306 1.0639 1.159 1.3091 1.3044
2035.072 1.0624 1.0112 1.0896 1.1257 1.1522 1.1654 1.0919 1.1492 1.224 1.0384
2054.362 1.0349 1.1287 1.0839 1.1532 1.1855 1.0595 1.0588 1.1865 1.2302 1.1039
2073.651 1.0914 1.0347 1.1949 1.406 1.3145 1.1565 1.0953 1.1777 1.2029 1.2796
2092.941 1.2838 1.2165 1.2232 1.161 1.1674 1.1618 1.046 1.0612 1.0626 0.95813
2112.231 0.93035 1.034 0.95167 0.91328 1.0286 0.9846 0.91376 1.0062 1.2166 1.2252
2131.521 1.0829 1.0539 1.2108 1.3518 1.2526 1.2325 1.1974 1.0921 1.1895 1.2784
2150.810 1.2507 1.2587 1.2964 1.2776 1.1663 1.1206 1.2143 1.1621 1.1295 1.2001
2170.100 1.1579 1.0516 0.93427 0.9302 1.1411 1.1854 1.1134 1.1531 1.1863 1.315
2189.390 1.2515 1.2112 1.285 1.1949 1.1637 1.2158 1.2106 1.3057 1.4372 1.4062
2208.680 1.4185 1.4074 1.3986 1.5305 1.6459 1.5232 1.2722 1.1731 1.316 1.3186
2227.970 1.2423 1.3801 1.3398 1.1255 1.0713 1.3174 1.4509 1.3502 1.2593 1.3227
2247.259 1.4011 1.3072 1.3835 1.536 1.7583 1.8196 1.6406 1.5936 1.6806 1.8378
2266.549 1.6078 1.5342 1.6402 1.3298 1.2044 1.2564 1.1552 1.2255 1.3043 1.24
2285.839 1.4475 1.4879 1.2986 1.3785 1.3455 1.2727 1.4068 1.4953 1.3568 1.3488
2305.129 1.3983 1.3214 1.2078 1.2708 1.3381 1.0527 0.9205 0.7998 0.725 0.92244
2324.418 1.1606 1.1938 1.2377 1.4133 1.4158 1.38 1.4371 1.4069 1.3905 1.5271
2343.708 1.5451 1.4251 1.5076 1.5403 1.4469 1.4431 1.3439 1.2611 1.3948 1.5574
2362.998 1.5388 1.4794 1.5413 1.4173 1.2255 1.3933 1.3684 1.2092 1.3093 1.1231
2382.288 1.1011 1.2185 1.0354 0.96982 1.0755 1.128 1.1159 1.1005 1.1292 1.1802
2401.578 1.2091 1.2538 1.2421 1.1806 1.1444 1.101 1.0391 1.0975 1.1546 1.0337
2420.867 1.063 1.2866 1.362 1.2074 1.1222 1.0499 0.9689 1.0192 1.0811 1.1813
2440.157 1.1644 1.119 1.0125 0.984 1.0586 1.0862 1.1 1.0621 1.0115 0.92042
2459.447 0.97271 1.1278 1.0332 0.8498 1.0372 1.0706 0.8347 0.8717 0.87296 0.89423
2478.737 0.96867 0.9988 0.96563 0.9776 1.2455 1.3938 1.1942 1.1707 1.2038 1.024
2498.026 0.9954 1.1086 1.2211 1.0697 0.92366 1.0667 1.1782 1.1769 0.90342 0.86841
2517.316 1.0295 0.86838 0.745 0.858 1.0298 0.94489 1.1064 1.2982 1.1627 0.96259
2536.606 0.88864 1.0361 1.1287 1.0498 0.8644 0.709 1.0576 1.2159 0.8206 0.8444
2555.896 0.91165 0.716 0.759 0.91294 0.874441 0.93868 1.0555 1.1635 1.0582 1.0154
2575.186 1.1883 1.1607 0.95122 0.97067 0.9902 0.9803 1.2711 1.1841 0.9955 0.9947
2594.475 0.96362 1.03 0.94329 1.0603 1.3378 1.2785 1.146 0.9806 1.022 0.9788
2613.765 0.92092 0.9931 0.8567 0.96077 1.22 1.023 0.87751 1.0123 1.0148 1.0901
2633.055 1.0884 0.7982 0.762 0.8631 1.0871 1.0823 0.8631 0.9886 0.8861 0.8175
2652.345 0.9838 1.2064 1.4495 1.4105 1.1537 1.0329 0.8426 0.8646 1.0321 0.881172
2671.634 0.89268 0.90335 0.759 0.657 0.879954 1.1135 0.88503 0.72 0.90047 1.1124
2690.924 1.2832 1.2206 0.8145 0.76 0.96555 0.92545 0.91858 0.8552 0.594 0.609
2710.214 0.8371 0.683 0.608 0.761 0.9918 1.0651 0.91979 0.95266 0.95905 1.065
2729.504 0.995 0.8066 0.808 0.9772 1.1152 1.0403 1.1926 1.0993 0.8684 0.94433
2748.794 0.657 0.6 0.8 0.758 0.8279 0.88862 0.90883 1.0575 1.3063 1.3102
2768.083 1.2378 1.1777 0.9952 0.91232 0.702 0.9089 1.0592 0.90865 0.851 0.8071
2787.373 0.9249 0.8122 0.766 0.591 0.443 0.614 0.532 0.519 0.785 1.0208
2806.663 0.96201 0.8602 0.96236 0.93948 0.8089 0.748 0.7855 0.9987 0.93133 0.742
2825.953 0.72 0.585 0.718 1.0568 1.0997 0.8317 0.771 0.9055 0.7935 0.672
2845.242 0.707 0.584 0.61 0.725 0.636 0.757 0.90074 0.602 0.321 0.504
2864.532 0.628 0.765 0.813 0.743 0.768 0.666 0.7828 0.68 0.482 0.564
2883.822 0.772 0.758 0.764 0.95698 1.0454 1.0694 0.9128 1.0241 1.1489 0.9823
2903.112 1.1098 1.2188 1.1273 1.017 1.1312 1.1825 1.1336 1.4165 1.5063 1.0624
2922.401 0.91464 1.433 1.5301 1.2814 1.3131 1.6769 1.895 1.8554 1.995 2.035
2941.691 1.6167 1.5539 1.6992 1.3783 1.0145 0.9588 1.192 1.0942 1.2481 1.3769
2960.981 0.94112 1.0799 1.3906 1.3422 1.1276 1.0547 1.2605 1.1572 0.9279 1.1796
2980.271 1.0342 0.752 0.96322 1.0567 1.1788 1.1743 1.2689 1.326 1.2092 1.376
2999.561 1.3099 1.264 1.2517 1.1017 0.91096 1.0515 1.0593 0.795 0.95278 1.1985
3018.850 1.1627 0.93017 0.661 0.65 1.2028 1.3575 1.0977 1.1534 1.0336 1.0314
3038.140 1.274 1.1586 1.1031 1.1461 1.2397 1.4979 1.721 1.8125 1.7516 1.5337
3057.430 1.4861 1.5517 1.6634 1.7715 1.905 2.155 2.395 2.405 2.435 2.415
3076.720 2.485 2.985 3.155 3.005 3.245 3.225 2.865 2.805 2.765 2.675
3096.009 2.305 1.7955 1.6479 1.6508 1.5756 1.4951 1.4503 1.3277 0.95508 0.880261
3115.299 1.0877 1.3129 1.4525 1.2795 1.1609 1.3951 1.3593 1.3041 1.4156 1.2478
3134.589 0.9988 0.90137 0.9946 0.881108 0.77 0.723 1.1062 1.4429 1.1106 0.8387
3153.879 0.481 0.62 1.0022 1.1149 0.95584 0.748 0.8374 0.8556 0.86699 0.92903
3173.169 0.93562 0.8247 0.674 0.769 0.672 0.832 1.2464 1.271 1.3268 1.2916
3192.458 1.2081 1.0254 0.875384 0.90298 0.738 1.017 1.5588 1.3807 0.7761 0.7907
3211.748 1.1489 1.1068 1.06 1.245 1.3507 1.2035 1.153 0.9974 0.94058 1.0486
3231.038 1.0549 1.075 1.1057 0.95563 1.0779 1.1223 0.745 0.333 0 0.131
3250.328 0.553 0.567 0.493 0.879349 1.3237 1.1187 0.529 0.641 0.7914 0.293
3269.617 0.479 0.96745 0.7862 0.744 0.736 1.0293 1.0641 0.773 0.774 0.7763
3288.907 0.89112 1.1258 1.335 1.1793 1.2638 1.2902 1.1436 1.1549 0.96182 0.675
3308.197 0.389 0.314 0.90322 1.218 0.8403 0.8366 1.1682 1.1783 1.2076 1.0703
3327.487 0.8005 0.524 0.51 1.0497 1.2568 1.128 0.95325 0.95006 1.2314 1.4232
3346.777 1.2922 0.9863 0.96014 0.9817 1.0376 1.1992 0.92952 0.75 1.0775 1.1461
3366.066 1.0005 0.8324 0.738 0.87075 0.94493 1.1071 0.92863 0.8073 0.88923 0.9971
3385.356 1.5293 1.3505 0.89129 0.9909 0.9989 1.0947 1.2276 1.1754 1.1634 1.216
3404.646 1.2808 1.5088 1.8243 1.8 1.3769 1.4558 1.4515 1.3621 1.7072 1.6818
3423.936 1.4879 1.6369 1.5845 0.92152 0.9869 1.5085 1.2988 1.215 1.3372 1.4168
3443.225 1.3293 1.2786 0.90682 0.8594 1.5078 1.4694 1.0081 1.3285 1.885 1.5886
3462.515 1.2451 1.3526 1.623 1.4869 1.1129 0.984 1.1494 0.9758 0.624 0.91608
3481.805 0.95464 0.9862 0.9784 0.91953 0.91374 0.93185 1.3763 1.0971 0.9928 1.3781
3501.095 1.4411 1.3043 0.776 0.759 1.0704 1.15 1.282 1.1694 0.96358 0.9757
3520.385 0.88532 0.718 0.8348 0.95994 1.1399 1.0478 0.705 0.8341 1.2012 1.0705
3539.674 1.1215 1.4027 1.6163 1.6674 1.7129 1.8252 1.4134 1.4288 1.6621 1.4807
3558.964 0.88744 0.8331 1.1966 1.3605 1.3849 1.2383 1.2299 1.1753 1.343 1.5495
3578.254 1.2139 1.1008 1.2316 0.749 0.619 1.0869 1.2335 1.2227 1.007 0.72
3597.544 1.0413 1.1121 0.96169 1.1174 1.1937 1.2286 1.2649 1.1486 0.8553 0.7866
3616.833 0.76 0.317 0.415 1.001 1.1103 0.93268 0.8611 1.0253 1.3995 1.6913
3636.123 1.5502 1.2556 1.3074 1.4236 1.191 1.3513 1.4384 1.0747 0.7962 0.9093
3655.413 1.1939 1.2352 0.94716 0.585 0.687 0.777 0.724 1.0398 1.4208 1.4111
3674.703 1.3897 1.3498 1.3474 1.3431 1.1771 1.2753 1.2288 1.1151 1.1247 1.1367
3693.993 1.104 0.713 0.751 1.1539 1.4181 1.4684 1.5868 1.4663 0.95732 1.0898
3713.282 0.89537 0.8106 1.0451 0.883586 1.1691 1.2745 0.93985 0.704 0.707 1.1528
3732.572 1.3217 1.1573 1.338 1.2954 0.682 0.647 1.0312 0.751 1.1305 1.4768
3751.862 1.1511 1.2845 1.3666 0.92087 0.91468 1.3902 1.238 1.0238 0.97416 0.921
3771.152 0.9941 1.1244 0.93738 0.8563 1.2718 1.3251 1.0024 1.0226 1.2169 0.9885
3790.441 0.90215 1.1617 1.2546 1.2555 1.0601 0.8429 0.88656 0.9776 0.645 0.882431
3809.731 1.1553 0.729 0.76 0.96049 1.1151 1.2934 0.9841 0.89265 0.95109 0.91189
3829.021 0.9901 0.7952 0.90481 0.7825 0.90262 0.9558 0.62 0.8467 1.0987 1.0024
3848.311 0.661 0.882666 1.1415 0.7771 0.92483 0.94694 0.764 0.8115 0.705 0.8178
3867.601 0.7773 0.623 0.645 0.363 0.652 0.776 0.389 0.737 0.9905 0.8394
3886.890 0.8473 0.617 0.57 1.0396 0.751 0.167 0.615 0.97398 0.9875 1.2934
3906.180 1.3455 1.1751 0.878369 0.544 0.625 0.9214 1.0016 1.2494 1.2415 0.9791
3925.470 0.95487 1.1027 1.2039 0.8219 0.568 0.9821 1.2453 0.7901 0.661 0.95152
3944.760 0.683 0.433 0.742 0.8297 0.76 1.1422 1.2562 1.008 0.95413 0.97065
3964.049 0.97057 1.261 1.1642 0.8536 1.0972 1.1366 1.0829 1.0193 1.0924 1.304
3983.339 1.1793 0.89518 0.7972 0.683 0.8272 1.1473 1.0875 0.95619 0.695 0.673
##END=
