##TITLE=2-Methyl-2-hexene
##JCAMP-DX=4.24
##DATA TYPE=INFRARED SPECTRUM
##ORIGIN=NIST Mass Spectrometry Data Center
##OWNER=NIST Standard Reference Data Program
Collection (C) 2018 copyright by the U.S. Secretary of Commerce
on behalf of the United States of America. All rights reserved.
##CAS REGISTRY NO=2738-19-4
##MOLFORM=C 7 H 14
##$NIST SOURCE=MSDC-IR
##SPECTROMETER/DATA SYSTEM=HP-GC/MS/IRD
##STATE=gas
##XUNITS=1/CM
##YUNITS=ABSORBANCE
##XFACTOR=1.0
##YFACTOR=0.000003400
##DELTAX=4.0
##FIRSTX=550.0
##LASTX=3846.0
##FIRSTY=0.000452
##MAXX=3846
##MINX=550
##MAXY=0.034
##MINY=0
##NPOINTS=825
##XYDATA=(X++(Y..Y))
550.0 133 116 78 92 111 81 51 49 50 48
590.0 19 43 56 47 53 24 6 17 15 15
630.0 34 19 7 21 19 15 22 20 14 21
670.0 41 48 40 37 36 39 41 39 53 62
710.0 78 97 115 136 156 178 184 191 207 219
750.0 207 199 213 234 249 256 275 292 281 276
790.0 290 297 313 337 345 362 382 403 423 417
830.0 384 360 354 347 326 310 319 347 385 415
870.0 423 441 473 488 468 437 395 353 307 266
910.0 221 178 157 133 118 119 120 116 111 114
950.0 115 120 132 138 143 151 162 168 178 183
990.0 170 158 143 120 110 103 95 101 110 103
1030.0 105 118 131 150 158 176 214 252 290 331
1070.0 383 420 431 414 394 384 370 382 416 467
1110.0 529 569 588 562 490 398 307 226 157 122
1150.0 109 98 94 100 107 118 137 161 195 224
1190.0 235 246 257 255 245 230 192 169 172 182
1230.0 187 192 201 202 206 209 203 213 229 240
1270.0 256 259 251 237 213 198 192 198 219 247
1310.0 277 309 342 380 410 417 421 432 431 446
1350.0 472 515 595 705 843 1015 1174 1279 1344 1366
1390.0 1300 1142 952 793 679 616 603 632 691 775
1430.0 888 1019 1154 1281 1404 1496 1539 1532 1483 1397
1470.0 1266 1111 962 814 687 585 505 430 373 350
1510.0 312 282 265 247 231 228 227 233 233 217
1550.0 207 211 220 211 189 174 172 177 174 166
1590.0 162 169 166 159 155 152 154 148 140 146
1630.0 147 156 156 156 172 183 193 206 223 232
1670.0 233 222 200 173 137 108 101 95 79 66
1710.0 60 57 49 42 43 50 52 48 42 44
1750.0 43 29 28 35 34 35 29 27 28 23
1790.0 23 24 22 21 19 21 23 26 26 27
1830.0 27 22 19 28 32 27 25 26 33 35
1870.0 28 17 15 16 16 21 23 22 21 22
1910.0 20 18 17 18 20 22 24 24 23 25
1950.0 24 17 19 22 22 20 18 13 13 14
1990.0 14 14 10 12 6 0 6 11 13 18
2030.0 18 13 10 9 5 3 8 6 8 8
2070.0 0 9 12 6 7 9 8 6 5 3
2110.0 1 2 8 14 17 10 14 18 16 22
2150.0 22 20 17 15 15 18 20 14 5 7
2190.0 11 9 15 17 15 10 9 13 16 16
2230.0 8 9 13 13 11 13 14 12 12 18
2270.0 16 10 13 16 13 12 14 12 8 6
2310.0 10 18 17 17 23 23 28 34 32 28
2350.0 33 35 38 50 47 42 43 40 38 41
2390.0 43 35 31 37 40 42 43 44 43 46
2430.0 42 38 35 29 36 44 38 39 41 38
2470.0 35 37 37 38 41 47 46 40 41 39
2510.0 38 41 45 47 49 53 56 53 53 56
2550.0 53 54 63 62 58 63 70 68 59 61
2590.0 70 69 68 73 74 66 62 64 72 74
2630.0 79 88 88 81 88 99 102 104 107 111
2670.0 114 111 110 114 125 128 130 143 146 166
2710.0 191 198 224 256 284 325 357 378 380 376
2750.0 374 357 330 310 312 321 333 356 382 413
2790.0 459 498 527 565 621 687 755 836 940 1064
2830.0 1217 1407 1653 1966 2335 2784 3322 3938 4556 5102
2870.0 5595 6011 6240 6274 6209 6109 5999 5969 6102 6434
2910.0 6952 7600 8299 8943 9458 9835 10000 9812 9372 8999
2950.0 8805 8791 9079 9590 9821 9626 9199 8533 7536 6319
2990.0 5245 4428 3769 3241 2810 2447 2168 1951 1789 1658
3030.0 1556 1468 1379 1294 1208 1124 1040 967 892 823
3070.0 759 692 639 592 546 518 488 461 438 419
3110.0 394 365 346 326 296 275 263 245 221 197
3150.0 180 172 162 164 164 150 142 146 146 138
3190.0 120 113 117 107 101 106 98 81 71 71
3230.0 76 69 60 55 58 60 64 61 57 65
3270.0 55 44 55 65 59 57 68 67 63 61
3310.0 55 48 41 43 43 42 43 51 57 52
3350.0 50 51 43 48 51 49 59 58 52 56
3390.0 54 47 44 40 35 31 39 46 44 41
3430.0 40 44 37 31 35 34 42 42 39 36
3470.0 35 44 37 23 22 30 27 11 23 28
3510.0 25 32 37 40 38 32 32 28 20 28
3550.0 41 51 41 12 10 30 32 29 27 34
3590.0 40 25 29 37 32 21 20 32 34 37
3630.0 48 51 44 49 49 45 51 52 48 51
3670.0 49 49 48 49 62 61 57 57 52 68
3710.0 73 50 49 64 59 50 58 61 55 68
3750.0 75 65 61 63 68 72 63 52 47 52
3790.0 52 52 59 62 59 68 74 65 57 64
3830.0 83 82 68 66 56
##END=
