##TITLE=4-Fluorobenzyl isothiocyanate
##JCAMP-DX=4.24
##DATA TYPE=INFRARED SPECTRUM
##ORIGIN=EPA-IR VAPOR PHASE LIBRARY
##OWNER=SRD/NIST
Collection (C) 2018 copyright by the U.S. Secretary of Commerce
on behalf of the United States of America. All rights reserved.
##CAS REGISTRY NO=2740-88-7
##MOLFORM=C 8 H 6 F N S
##$NIST SOURCE=MSDC-IR
##STATE=gas
##XUNITS=1/CM
##YUNITS=ABSORBANCE
##XFACTOR=1.
##YFACTOR=0.001
##DELTAX=1.92898
##FIRSTX=549.8
##LASTX=4000.7
##FIRSTY=13.884
##MAXX=4000.7
##MINX=549.759
##MAXY=0.350204
##MINY=0
##NPOINTS=1790
##XYDATA=(X++(Y..Y))
549.759 13.884 14.304 14.554 14.664 14.904 15.674 16.224 16.274 16.224 16.184
569.049 16.144 16.194 15.944 15.224 14.364 13.874 13.514 12.804 12.044 11.254
588.339 10.684 10.204 9.564 9.004 8.424 7.654 7.034 6.664 6.254 5.894
607.628 5.524 5.084 4.734 4.434 4.144 3.574 3.184 3.174 3.004 2.884
626.918 2.814 2.824 2.844 2.694 2.794 2.954 2.884 2.864 2.824 2.864
646.208 2.964 3.224 3.374 3.324 3.484 3.784 4.024 4.244 4.754 5.314
665.498 5.814 6.374 7.154 7.814 8.404 9.244 10.244 11.124 11.564 11.784
684.787 11.854 11.864 11.814 11.564 11.134 10.764 10.464 10.144 9.794 9.374
704.077 8.904 8.814 8.974 9.234 9.564 9.914 10.754 11.774 12.454 12.984
723.367 13.644 14.074 13.994 13.854 13.534 13.134 12.764 12.294 11.894 11.394
742.657 10.874 10.514 10.344 10.374 10.544 10.774 10.904 11.084 11.264 11.194
761.947 10.934 10.434 9.894 9.444 9.024 8.534 7.764 7.104 6.664 6.324
781.236 6.114 5.854 5.744 5.954 6.384 6.834 7.304 7.974 8.864 10.084
800.526 11.344 12.844 14.624 16.674 18.764 20.814 22.734 24.544 26.334 27.904
819.816 29.354 30.534 31.734 32.604 32.934 33.164 33.144 32.904 32.624 32.644
839.106 33.294 34.344 35.524 35.904 35.024 33.034 30.474 27.194 22.964 18.464
858.395 14.324 11.054 8.714 7.004 5.824 5.134 4.654 4.174 3.644 3.304
877.685 3.114 2.824 2.624 2.584 2.414 2.304 2.334 2.174 2.174 2.334
896.975 2.284 2.164 2.134 2.214 2.254 2.264 2.464 2.614 2.524 2.574
916.265 2.714 2.784 2.984 3.094 3.104 3.164 3.174 3.184 3.074 2.984
935.555 3.114 3.164 3.114 2.994 3.034 3.104 2.904 2.824 2.804 2.664
954.844 2.494 2.424 2.514 2.504 2.544 2.484 2.354 2.264 2.154 2.124
974.134 2.074 2.054 2.034 2.094 2.014 1.934 1.974 2.044 1.944 1.764
993.424 1.884 1.874 1.814 2.054 2.424 2.714 3.244 4.334 5.804 7.064
1012.714 7.624 7.614 7.444 7.144 6.804 5.924 4.424 3.444 3.014 2.514
1032.003 2.234 2.124 1.894 2.074 2.234 2.124 2.214 2.534 2.624 2.434
1051.293 2.534 2.384 2.114 2.314 2.534 2.324 2.244 2.454 2.464 2.514
1070.583 2.634 2.644 2.744 3.054 3.534 3.724 3.774 4.164 4.214 4.424
1089.873 4.574 4.654 5.284 5.674 5.644 5.744 5.474 5.234 5.574 5.584
1109.163 5.354 5.404 5.254 5.034 4.864 4.464 4.254 3.794 3.284 3.534
1128.452 3.594 3.324 3.214 3.234 3.364 3.674 4.164 4.784 5.464 6.264
1147.742 8.094 11.834 18.414 26.734 33.304 35.544 35.654 36.114 35.784 31.164
1167.032 22.424 14.344 9.494 7.414 6.354 5.834 5.684 5.584 5.294 5.414
1186.322 5.594 5.754 5.864 5.384 5.524 6.204 6.734 7.284 7.804 8.684
1205.611 9.914 11.144 12.614 14.804 17.434 20.034 23.094 26.724 31.404 37.154
1224.901 44.364 54.354 66.734 81.524 97.754 113.254 126.564 135.174 138.154 135.364
1244.191 125.664 110.254 91.104 71.264 54.454 41.744 32.554 26.044 21.334 17.944
1263.481 15.604 13.824 12.194 11.414 11.224 10.984 10.954 11.104 11.204 11.464
1282.771 11.854 12.244 12.804 13.364 14.154 14.774 15.154 15.654 16.194 16.894
1302.060 17.594 18.234 18.944 19.724 20.564 21.494 22.614 23.824 25.184 26.824
1321.350 28.734 30.934 33.554 36.634 40.254 44.634 49.794 55.584 61.604 66.854
1340.640 70.024 70.224 67.814 63.594 58.064 51.434 43.994 36.544 29.954 24.664
1359.930 20.794 17.954 15.804 14.134 12.764 11.664 10.664 9.794 9.104 8.534
1379.219 8.094 7.744 7.434 7.204 7.094 7.124 7.204 7.244 7.344 7.574
1398.509 7.874 8.164 8.514 8.894 9.164 9.404 9.594 9.684 9.644 9.594
1417.799 9.634 9.614 9.564 9.554 9.494 9.354 9.224 9.114 9.074 9.234
1437.089 9.554 10.154 11.174 12.754 15.084 18.074 21.504 24.634 26.644 27.444
1456.378 27.514 26.704 23.964 19.204 14.154 10.284 7.874 6.584 5.994 5.824
1475.668 5.844 5.974 6.274 6.794 7.584 8.534 9.734 11.384 13.584 16.524
1494.958 20.624 26.194 33.444 42.804 54.494 68.164 83.054 96.964 107.414 113.004
1514.248 113.074 108.034 98.434 85.354 70.014 54.894 41.654 31.324 23.894 18.474
1533.538 14.494 11.634 9.544 7.894 6.764 5.854 5.144 4.724 4.364 4.074
1552.827 3.894 3.814 3.824 3.904 3.984 4.114 4.334 4.594 4.904 5.364
1572.117 5.874 6.384 6.994 7.704 8.554 9.554 10.664 11.864 13.194 14.604
1591.407 16.194 17.984 19.994 22.194 24.514 26.894 29.274 31.364 32.714 32.974
1610.697 32.144 30.224 27.524 24.424 21.124 17.994 15.304 13.154 11.374 9.914
1629.986 8.754 7.744 6.974 6.404 5.854 5.464 5.054 4.734 4.504 4.244
1649.276 4.014 3.734 3.464 3.274 3.084 2.934 2.804 2.594 2.404 2.274
1668.566 2.154 2.054 1.914 1.814 1.774 1.694 1.654 1.654 1.654 1.634
1687.856 1.604 1.574 1.574 1.614 1.624 1.594 1.604 1.634 1.644 1.614
1707.146 1.584 1.594 1.664 1.704 1.664 1.644 1.664 1.754 1.744 1.754
1726.435 1.834 1.864 1.924 1.994 2.064 2.144 2.204 2.254 2.304 2.464
1745.725 2.674 2.904 3.124 3.334 3.504 3.594 3.624 3.564 3.414 3.194
1765.015 2.994 2.744 2.414 2.164 2.034 1.904 1.744 1.664 1.664 1.664
1784.305 1.594 1.4705 1.4321 1.4795 1.519 1.5315 1.4802 1.4155 1.41 1.4318
1803.594 1.4859 1.5126 1.544 1.604 1.594 1.614 1.644 1.644 1.664 1.694
1822.884 1.734 1.834 1.894 1.904 1.954 1.964 2.014 2.094 2.154 2.224
1842.174 2.314 2.504 2.654 2.814 3.064 3.224 3.464 3.794 4.094 4.384
1861.464 4.694 5.044 5.404 5.764 6.114 6.434 6.724 6.984 7.274 7.524
1880.754 7.664 7.774 7.914 7.964 8.064 8.174 8.194 8.224 8.284 8.424
1900.043 8.604 8.784 8.944 9.144 9.414 9.724 10.034 10.354 10.724 11.134
1919.333 11.514 11.954 12.454 12.974 13.504 14.074 14.664 15.294 15.974 16.794
1938.623 17.654 18.524 19.494 20.544 21.604 22.764 24.134 25.584 27.094 28.714
1957.913 30.504 32.474 34.614 36.884 39.324 41.984 44.804 47.904 51.224 54.774
1977.202 58.554 62.584 66.914 71.574 76.514 81.784 87.444 93.424 99.824 106.624
1996.492 113.804 121.304 129.204 137.474 146.084 155.094 164.394 173.964 183.894 194.024
2015.782 204.294 214.854 225.464 236.074 246.734 257.224 267.614 277.844 287.814 297.334
2035.072 306.214 314.594 322.364 329.454 335.714 340.934 345.044 348.084 349.924 350.204
2054.362 348.984 346.314 342.194 336.884 330.254 322.484 313.734 303.854 293.034 281.034
2073.651 267.724 253.364 238.304 222.904 207.574 192.704 178.464 164.834 151.914 139.854
2092.941 128.634 118.284 108.814 100.104 92.224 85.204 78.864 73.124 67.994 63.374
2112.231 59.314 55.814 52.704 50.044 47.774 45.774 44.104 42.694 41.534 40.624
2131.521 39.784 39.134 38.764 38.474 38.284 38.314 38.414 38.544 38.894 39.524
2150.810 40.204 41.004 42.054 43.164 44.514 46.124 47.884 49.714 51.574 53.484
2170.100 55.284 56.844 58.034 58.844 59.184 59.084 58.554 57.534 56.164 54.504
2189.390 52.634 50.674 48.674 46.594 44.484 42.404 40.294 38.234 36.284 34.394
2208.680 32.494 30.684 28.974 27.334 25.804 24.424 23.084 21.754 20.514 19.374
2227.970 18.324 17.254 16.244 15.254 14.284 13.354 12.434 11.724 11.124 10.524
2247.259 9.914 9.464 9.064 8.734 8.394 8.064 7.844 7.574 7.304 7.084
2266.549 6.974 6.824 6.654 6.514 6.384 6.214 6.094 5.944 5.784 5.834
2285.839 5.794 5.674 5.584 5.494 5.404 5.324 5.304 5.214 5.074 4.954
2305.129 4.854 4.764 4.654 4.544 4.444 4.304 4.164 4.024 3.904 3.794
2324.418 3.694 3.564 3.364 3.194 3.084 2.984 2.874 2.794 2.674 2.624
2343.708 2.644 2.624 2.574 2.494 2.454 2.444 2.394 2.374 2.344 2.294
2362.998 2.324 2.274 2.174 2.094 2.054 2.064 2.064 2.074 2.024 1.974
2382.288 1.944 2.024 2.064 2.074 2.184 2.204 2.174 2.174 2.194 2.194
2401.578 2.124 2.044 2.044 2.034 1.974 1.874 1.864 1.774 1.674 1.714
2420.867 1.714 1.724 1.704 1.664 1.684 1.664 1.624 1.624 1.584 1.584
2440.157 1.644 1.724 1.784 1.824 1.914 1.874 1.904 2.044 2.094 2.054
2459.447 2.064 2.164 2.234 2.314 2.354 2.294 2.304 2.374 2.334 2.274
2478.737 2.264 2.254 2.254 2.154 2.104 2.074 2.004 1.994 1.954 1.944
2498.026 1.974 1.924 1.844 1.854 1.804 1.734 1.784 1.804 1.754 1.714
2517.316 1.664 1.664 1.704 1.724 1.774 1.804 1.884 1.924 1.884 1.844
2536.606 1.804 1.824 1.874 1.954 1.994 1.964 1.954 2.004 1.964 1.994
2555.896 2.034 1.984 2.034 2.094 2.114 2.114 2.114 2.144 2.174 2.264
2575.186 2.334 2.334 2.304 2.344 2.434 2.424 2.344 2.274 2.324 2.394
2594.475 2.314 2.334 2.334 2.314 2.394 2.434 2.434 2.494 2.524 2.504
2613.765 2.374 2.244 2.244 2.234 2.144 2.024 1.914 1.854 1.754 1.684
2633.055 1.654 1.564 1.4846 1.4556 1.4844 1.4525 1.3541 1.3316 1.3809 1.3034
2652.345 1.237 1.2934 1.2837 1.3117 1.3471 1.3343 1.4048 1.4549 1.4991 1.4871
2671.634 1.4477 1.5135 1.654 1.744 1.764 1.774 1.714 1.774 1.794 1.774
2690.924 1.854 1.964 2.154 2.274 2.244 2.304 2.434 2.394 2.424 2.614
2710.214 2.724 2.814 2.854 2.824 2.854 2.944 3.034 2.994 2.914 3.034
2729.504 3.144 3.154 3.234 3.364 3.344 3.284 3.364 3.364 3.304 3.344
2748.794 3.454 3.484 3.534 3.534 3.494 3.534 3.544 3.644 3.674 3.704
2768.083 3.794 3.884 3.884 3.924 4.034 4.064 4.124 4.174 4.214 4.264
2787.373 4.234 4.204 4.274 4.314 4.384 4.354 4.204 4.234 4.224 3.984
2806.663 3.794 3.684 3.524 3.434 3.364 3.254 3.044 2.924 2.954 2.884
2825.953 2.714 2.634 2.654 2.574 2.444 2.394 2.384 2.544 2.524 2.454
2845.242 2.574 2.714 2.804 2.714 2.814 3.114 3.454 3.724 4.074 4.584
2864.532 4.854 5.264 5.884 6.354 6.834 7.324 7.644 7.804 8.024 8.254
2883.822 8.274 8.184 8.244 8.094 7.794 7.664 7.474 7.114 6.664 6.264
2903.112 5.914 5.624 5.334 5.084 5.184 5.284 5.294 5.694 6.184 6.624
2922.401 7.284 8.004 8.864 9.934 10.734 11.464 12.274 12.814 13.284 13.564
2941.691 13.594 13.664 13.574 13.394 13.164 12.714 12.194 11.704 11.124 10.334
2960.981 9.454 8.514 7.694 6.984 6.044 5.284 4.744 4.124 3.554 3.104
2980.271 2.704 2.554 2.474 2.294 2.324 2.324 2.204 2.254 2.444 2.554
2999.561 2.644 2.814 2.904 3.014 3.234 3.354 3.424 3.394 3.394 3.414
3018.850 3.404 3.364 3.344 3.494 3.644 3.814 4.164 4.614 5.034 5.474
3038.140 6.214 6.944 7.484 8.004 8.354 8.654 8.664 8.264 7.754 7.244
3057.430 6.584 5.964 5.494 5.014 4.584 4.304 4.214 4.004 3.874 3.944
3076.720 4.004 4.044 3.884 3.754 3.634 3.394 3.084 2.674 2.294 2.094
3096.009 2.024 2.014 1.964 1.804 1.714 1.644 1.724 1.824 1.654 1.614
3115.299 1.704 1.764 1.774 1.704 1.684 1.644 1.4755 1.3923 1.4687 1.3895
3134.589 1.259 1.2018 1.2081 1.1645 0.9828 0.7581 0.6488 0.62801 0.56512 0.5162
3153.879 0.4891 0.431 0.343 0.395 0.421 0.432 0.416 0.4551 0.522 0.358
3173.169 0.268 0.263 0.351 0.4761 0.4792 0.53837 0.482 0.4475 0.4873 0.42
3192.458 0.4604 0.4879 0.439 0.442 0.363 0.368 0.5027 0.398 0.411 0.4546
3211.748 0.385 0.4496 0.382 0.312 0.23 0.304 0.432 0.323 0.366 0.244
3231.038 0.21 0.365 0.336 0.355 0.4457 0.56825 0.4561 0.275 0.191 0.162
3250.328 0.224 0.313 0.315 0.282 0.29 0.403 0.5199 0.403 0.272 0.227
3269.617 0.264 0.387 0.335 0.206 0.205 0.251 0.313 0.333 0.245 0.202
3288.907 0.142 0.136 0.178 0.15 0.242 0.408 0.398 0.204 0.191 0.195
3308.197 0.206 0.131 0.014 0.193 0.28 0.235 0.199 0.182 0.074 0
3327.487 0.114 0.195 0.243 0.316 0.239 0.202 0.247 0.279 0.4796 0.60438
3346.777 0.4635 0.286 0.223 0.223 0.257 0.309 0.296 0.186 0.21 0.11
3366.066 0.097 0.247 0.284 0.357 0.386 0.258 0.143 0.255 0.4465 0.395
3385.356 0.293 0.333 0.246 0.224 0.32 0.295 0.3 0.246 0.143 0.248
3404.646 0.259 0.287 0.301 0.246 0.407 0.381 0.339 0.382 0.306 0.381
3423.936 0.338 0.375 0.4986 0.4955 0.399 0.224 0.157 0.314 0.275 0.111
3443.225 0.234 0.385 0.4443 0.413 0.352 0.265 0.328 0.367 0.289 0.29
3462.515 0.419 0.4647 0.335 0.278 0.212 0.306 0.407 0.33 0.273 0.236
3481.805 0.32 0.388 0.392 0.417 0.409 0.39 0.275 0.28 0.4528 0.4947
3501.095 0.5072 0.5255 0.382 0.22 0.229 0.19 0.113 0.223 0.296 0.356
3520.385 0.428 0.4534 0.39 0.304 0.4989 0.6726 0.59379 0.5246 0.377 0.337
3539.674 0.4633 0.414 0.387 0.441 0.4465 0.429 0.4736 0.297 0.203 0.325
3558.964 0.363 0.418 0.439 0.341 0.252 0.352 0.403 0.327 0.405 0.411
3578.254 0.415 0.4733 0.4655 0.4799 0.4467 0.5156 0.546259 0.405 0.372 0.5041
3597.544 0.60938 0.5121 0.412 0.4792 0.5329 0.5217 0.53973 0.4794 0.415 0.4816
3616.833 0.43 0.387 0.443 0.4938 0.376 0.295 0.381 0.56154 0.62781 0.5284
3636.123 0.58157 0.5314 0.326 0.192 0.249 0.385 0.4546 0.4991 0.435 0.403
3655.413 0.4668 0.4614 0.4784 0.5286 0.56789 0.58674 0.4689 0.433 0.55773 0.57951
3674.703 0.56548 0.60112 0.59507 0.6565 0.59253 0.4557 0.56545 0.6649 0.6881 0.7097
3693.993 0.547299 0.4813 0.5069 0.4842 0.4816 0.5005 0.55827 0.5312 0.57521 0.63694
3713.282 0.62155 0.60597 0.60399 0.59656 0.56085 0.57059 0.58429 0.6507 0.6467 0.5029
3732.572 0.339 0.413 0.5316 0.4441 0.5293 0.61739 0.56633 0.64041 0.7947 0.8117
3751.862 0.7142 0.5219 0.413 0.424 0.62215 0.7033 0.7064 0.7746 0.6623 0.4721
3771.152 0.4583 0.6793 0.58412 0.378 0.396 0.357 0.4861 0.6309 0.60878 0.54274
3790.441 0.5186 0.61675 0.62585 0.57109 0.59102 0.61797 0.6486 0.68 0.6445 0.64023
3809.731 0.58505 0.63072 0.59684 0.497 0.58882 0.63402 0.6477 0.7223 0.62004 0.5184
3829.021 0.486 0.5613 0.64089 0.56675 0.7146 0.6937 0.6116 0.6212 0.5813 0.6508
3848.311 0.64058 0.6526 0.7751 0.6635 0.56182 0.7022 0.7385 0.61486 0.58102 0.6098
3867.601 0.695 0.8624 0.9244 0.8818 0.782 0.7072 0.7252 0.7672 0.7258 0.7231
3886.890 0.7824 0.985 1.138 0.9866 0.8702 0.9203 0.8661 0.8487 0.8743 0.8341
3906.180 0.7948 0.7339 0.6492 0.7476 1.0117 1.0113 0.9 1.0565 1.1387 0.9504
3925.470 0.8889 0.8913 0.8503 0.8911 0.9017 1.059 1.1006 0.9734 1.0697 1.0534
3944.760 1.0131 1.1401 1.0637 1.1289 1.3329 1.2301 1.2036 1.2094 1.2041 1.329
3964.049 1.39 1.4399 1.4378 1.4147 1.4023 1.3754 1.4079 1.3881 1.4019 1.4682
3983.339 1.4237 1.3987 1.4826 1.604 1.584 1.614 1.574 1.4477 1.634 1.744
##END=
