##TITLE=Allyldiphenylphosphine
##JCAMP-DX=4.24
##DATA TYPE=INFRARED SPECTRUM
##ORIGIN=NIST Mass Spectrometry Data Center
##OWNER=NIST Standard Reference Data Program
Collection (C) 2018 copyright by the U.S. Secretary of Commerce
on behalf of the United States of America. All rights reserved.
##CAS REGISTRY NO=2741-38-0
##MOLFORM=C 15 H 15 P
##$NIST SOURCE=MSDC-IR
##SPECTROMETER/DATA SYSTEM=HP-GC/MS/IRD
##STATE=gas
##XUNITS=1/CM
##YUNITS=ABSORBANCE
##XFACTOR=1.0
##YFACTOR=0.000003900
##DELTAX=4.0
##FIRSTX=550.0
##LASTX=3846.0
##FIRSTY=0.002870
##MAXX=3846
##MINX=550
##MAXY=0.039
##MINY=0
##NPOINTS=825
##XYDATA=(X++(Y..Y))
550.0 736 630 620 863 1131 1453 1761 1815 1584 1175
590.0 720 407 228 151 107 50 36 22 12 26
630.0 15 31 57 87 141 219 359 560 819 1167
670.0 1592 2133 2898 4039 5654 7424 8436 8087 6835 5454
710.0 4422 3894 3847 4237 5005 5947 6705 6785 6058 4820
750.0 3479 2379 1584 1033 693 513 421 361 305 268
790.0 256 274 305 404 558 703 820 905 1035 1188
830.0 1210 1035 755 502 343 260 235 228 213 227
870.0 247 260 301 357 441 580 829 1296 2159 3311
910.0 4164 4155 3297 2313 1668 1297 1049 834 686 601
950.0 552 531 525 541 572 642 775 990 1260 1470
990.0 1570 1589 1493 1266 947 663 599 821 1230 1463
1030.0 1329 905 523 445 503 647 802 921 999 1003
1070.0 1011 1057 1181 1451 1715 1852 1853 1674 1345 995
1110.0 691 477 349 261 216 181 157 144 132 129
1150.0 124 167 233 265 336 479 680 902 1072 1098
1190.0 973 785 605 451 335 246 189 149 136 140
1230.0 127 128 123 128 143 172 210 236 270 279
1270.0 276 244 199 197 237 317 426 541 606 596
1310.0 547 492 442 411 388 338 272 201 140 109
1350.0 99 99 119 157 192 222 245 262 281 316
1390.0 392 517 678 843 991 1125 1301 1627 2115 2646
1430.0 3053 3120 2715 2047 1417 983 753 660 678 795
1470.0 1033 1426 1889 2179 2064 1573 972 524 291 188
1510.0 132 102 101 102 109 125 136 139 138 146
1550.0 162 188 241 321 429 572 750 977 1186 1241
1590.0 1087 808 563 454 443 493 599 790 1099 1544
1630.0 2020 2264 2100 1592 1037 688 493 358 260 197
1670.0 145 109 81 59 45 37 37 39 47 59
1710.0 63 70 81 83 87 92 104 122 137 150
1750.0 159 150 131 124 130 153 173 190 200 248
1790.0 343 470 581 641 630 580 559 606 682 705
1830.0 633 491 349 256 202 186 206 247 288 337
1870.0 396 451 504 535 514 444 347 249 172 133
1910.0 120 110 131 168 201 259 324 400 472 525
1950.0 563 574 538 456 340 229 146 101 80 61
1990.0 50 34 21 20 20 20 20 18 15 9
2030.0 5 5 9 6 3 7 5 4 5 0
2070.0 0 0 0 1 8 12 10 13 15 14
2110.0 10 14 25 29 25 15 14 15 18 16
2150.0 10 15 19 17 17 16 10 15 22 21
2190.0 20 15 12 13 11 9 11 12 14 12
2230.0 15 12 13 14 16 20 24 23 20 26
2270.0 32 30 26 32 39 28 24 33 36 54
2310.0 99 131 124 101 79 76 79 80 90 90
2350.0 84 80 77 73 64 63 61 58 51 46
2390.0 44 37 38 37 32 31 28 28 25 21
2430.0 21 14 10 8 8 8 14 13 8 7
2470.0 2 4 6 8 14 13 12 13 9 3
2510.0 7 14 16 16 10 11 7 14 25 25
2550.0 23 23 30 41 49 58 73 80 87 94
2590.0 85 73 74 81 83 77 80 72 62 51
2630.0 39 36 39 45 39 44 44 46 60 69
2670.0 77 78 71 70 58 43 45 38 29 27
2710.0 25 19 10 15 30 29 25 27 26 23
2750.0 18 24 36 40 45 48 50 58 62 66
2790.0 77 106 131 136 146 161 162 154 155 150
2830.0 145 149 149 148 162 162 153 169 182 200
2870.0 216 224 247 295 383 530 746 997 1211 1289
2910.0 1194 1014 853 777 818 905 992 1035 970 812
2950.0 643 539 520 550 614 715 859 1054 1243 1391
2990.0 1484 1591 1812 2166 2593 2989 3199 3161 2927 2608
3030.0 2326 2180 2200 2387 2851 3813 5523 7783 9562 10000
3070.0 9228 8232 7733 7480 6951 5839 4245 2623 1571 1053
3110.0 776 647 555 510 504 496 513 527 512 464
3150.0 368 280 213 174 151 128 119 127 120 99
3190.0 101 88 64 66 59 53 59 40 25 26
3230.0 31 39 40 51 48 29 31 39 55 58
3270.0 51 52 46 38 21 17 27 29 25 26
3310.0 35 47 40 29 40 40 38 43 36 34
3350.0 33 19 16 20 19 25 37 37 17 18
3390.0 23 11 20 37 40 38 43 43 44 50
3430.0 51 37 33 53 47 27 29 34 31 22
3470.0 23 35 36 32 33 30 30 40 40 37
3510.0 19 19 39 39 36 38 28 22 35 37
3550.0 21 40 45 19 9 12 29 53 51 39
3590.0 35 30 33 37 44 49 43 61 58 40
3630.0 39 42 56 65 72 74 74 64 54 55
3670.0 57 65 77 79 82 90 104 92 71 81
3710.0 64 30 41 71 64 73 79 68 72 81
3750.0 66 71 76 75 73 53 34 22 22 32
3790.0 47 48 47 44 29 18 13 14 13 11
3830.0 29 39 31 26 29
##END=
