##TITLE=3-((Dimethylamino)phenyl isothiocyanate
##JCAMP-DX=4.24
##DATA TYPE=INFRARED SPECTRUM
##ORIGIN=EPA-IR VAPOR PHASE LIBRARY
##OWNER=SRD/NIST
Collection (C) 2018 copyright by the U.S. Secretary of Commerce
on behalf of the United States of America. All rights reserved.
##CAS REGISTRY NO=27421-70-1
##MOLFORM=C 6 H 12 N 2 S
##$NIST SOURCE=MSDC-IR
##STATE=gas
##XUNITS=1/CM
##YUNITS=ABSORBANCE
##XFACTOR=1.
##YFACTOR=0.001
##DELTAX=1.92898
##FIRSTX=549.8
##LASTX=4000.7
##FIRSTY=9.01
##MAXX=4000.7
##MINX=549.759
##MAXY=0.33297
##MINY=0
##NPOINTS=1790
##XYDATA=(X++(Y..Y))
549.759 9.01 9.1 8.99 8.94 8.47 8.19 8.47 8.83 8.58 7.73
569.049 7.56 7.79 7.55 7.1 6.81 6.91 6.74 6.21 5.79 5.93
588.339 5.74 5.08 5.06 4.91 4.78 4.55 4.15 4 3.81 3.87
607.628 4.01 3.7 3.35 3.24 3.26 3.28 3.23 2.99 2.85 2.78
626.918 2.7 2.77 2.66 2.62 2.76 2.93 3.08 2.82 2.79 3.12
646.208 3.15 3.25 3.43 3.74 3.87 3.76 3.75 3.9 3.89 3.73
665.498 3.73 3.69 3.54 3.56 3.46 3.37 3.31 3.16 3.12 3.04
684.787 2.98 3.11 3.36 3.55 3.74 4.05 4.25 4.46 4.51 4.59
704.077 4.81 4.72 4.65 4.62 4.5 4.21 4.02 3.8 3.66 3.47
723.367 3.09 2.93 2.7 2.51 2.53 2.6 2.9 3.17 3.27 3.58
742.657 3.91 4.24 4.63 5.2 5.84 6.46 7.11 7.58 7.78 7.72
761.947 7.68 7.7 7.55 7.05 6.7 6.27 5.59 5.33 5.06 4.58
781.236 4.43 4.23 4.08 4.05 3.84 3.65 3.5 3.39 3.26 3.14
800.526 3.17 3.18 3.07 3.13 3.35 3.48 3.59 3.74 4.04 4.37
819.816 4.59 4.91 5.4 5.64 5.55 5.72 6.04 6.23 6.18 6.1
839.106 6.17 6.29 6.22 6 5.87 5.81 5.84 5.6 5.27 5.2
858.395 5.21 5.35 5.46 5.5 5.6 5.66 5.88 6 5.91 5.69
877.685 5.45 5.16 4.8 4.59 4.11 3.66 3.37 3.08 2.94 2.98
896.975 3 2.86 2.92 2.92 2.85 2.92 2.79 2.56 2.57 2.77
916.265 2.8 2.72 2.71 2.64 2.61 2.71 2.83 2.86 2.81 2.82
935.555 2.88 2.83 2.9 3.01 3.21 3.24 3.42 3.79 3.94 4.1
954.844 4.39 4.76 5.07 5.24 5.4 5.57 5.62 5.85 5.93 5.83
974.134 5.68 5.47 5.41 5.3 5.07 5.08 5.39 5.58 5.73 6.14
993.424 6.45 6.71 7.15 7.51 8.17 8.9 9.54 10.35 11.19 11.71
1012.714 11.91 12.2 12.72 13.42 14.1 14.96 15.92 16.78 17.87 19.12
1032.003 20.3 21.9 23.41 24.5 25.41 26.19 26.39 26.45 26.93 26.96
1051.293 26.79 26.6 26.43 26.72 26.79 26.47 26.09 25.59 24.77 23.84
1070.583 22.61 20.95 19.42 18.1 16.57 15.33 14.62 13.41 12.52 11.99
1089.873 11.26 11.33 11.49 11 10.84 10.75 10.5 10.52 9.99 9.14
1109.163 9.03 8.68 8.23 8.22 7.9 7.7 7.72 7.54 7.84 8.13
1128.452 8.34 8.55 8.56 8.61 8.86 9.22 9.95 10.84 11.28 12.02
1147.742 13.25 14.09 14.51 15.39 15.68 15.67 15.79 15.53 15.52 15.14
1167.032 14.33 13.71 13.39 13 12.46 11.74 10.93 10.53 9.97 9.45
1186.322 9.02 8.37 7.85 7.36 7.17 7.35 7.07 6.64 6.78 6.99
1205.611 6.72 6.61 6.96 7.41 7.8 8.13 8.47 8.99 10.06 10.79
1224.901 11.18 11.66 11.9 12.14 12.5 12.53 12.18 11.93 11.81 11.92
1244.191 11.88 11.66 11.98 12.67 13.25 14.11 15.15 16.22 17.56 18.67
1263.481 19.69 20.46 20.71 20.92 21.04 20.57 19.79 19.05 18.36 17.69
1282.771 16.99 16.54 16.24 15.92 15.96 16.19 16.49 16.9 17.41 18.14
1302.060 19.12 20.29 21.46 22.41 22.93 23.1 23.15 23.12 22.98 22.6
1321.350 22.31 22.6 23.41 24.87 27.09 29.9 33.02 36.11 39.06 41.54
1340.640 43.52 45.02 45.85 45.72 44.57 42.57 40.14 37.75 35.59 33.62
1359.930 31.78 30.16 28.76 27.47 26.36 25.41 24.43 23.46 22.45 21.45
1379.219 20.53 19.58 18.53 17.55 16.48 15.32 14.17 13.02 11.92 10.88
1398.509 9.89 8.98 8.31 7.79 7.37 7.1 6.94 6.82 6.89 7.06
1417.799 7.35 7.76 8.2 8.83 9.56 10.35 11.38 12.59 13.97 15.52
1437.089 17.34 19.37 21.69 24.46 27.71 31.38 35.19 38.91 42.38 45.44
1456.378 47.88 49.43 49.93 49.18 47.16 43.92 39.72 35 30.38 26.25
1475.668 22.85 19.94 17.47 15.37 13.56 12.08 10.83 9.74 8.77 7.96
1494.958 7.31 6.62 6.03 5.56 5.21 4.87 4.48 4.22 3.95 3.67
1514.248 3.5 3.36 3.22 3.09 2.92 2.78 2.67 2.52 2.45 2.41
1533.538 2.33 2.29 2.32 2.23 2.07 1.99 1.95 1.91 1.77 1.75
1552.827 1.84 1.85 1.82 1.77 1.74 1.66 1.6 1.62 1.65 1.7
1572.117 1.62 1.53 1.5 1.48 1.53 1.53 1.46 1.53 1.57 1.53
1591.407 1.49 1.4 1.37 1.39 1.33 1.29 1.35 1.34 1.35 1.4
1610.697 1.3 1.2467 1.32 1.27 1.2078 1.2069 1.27 1.35 1.31 1.2312
1629.986 1.2172 1.27 1.29 1.27 1.25 1.206 1.26 1.31 1.2461 1.27
1649.276 1.33 1.33 1.31 1.31 1.28 1.2496 1.27 1.29 1.31 1.2338
1668.566 1.2446 1.26 1.2202 1.2493 1.239 1.1984 1.1672 1.2454 1.28 1.1949
1687.856 1.1817 1.1685 1.2036 1.1934 1.1052 1.0714 1.046 1.0946 1.0862 1.0628
1707.146 1.0754 1.0525 1.0845 1.0956 1.1032 1.118 1.0671 1.0689 1.1118 1.0963
1726.435 1.0975 1.1667 1.1607 1.1416 1.1411 1.074 1.1075 1.1453 1.1611 1.1953
1745.725 1.1774 1.1211 1.0706 1.0821 1.1042 1.1316 1.1914 1.1925 1.1626 1.2263
1765.015 1.25 1.2241 1.2257 1.2227 1.1982 1.2062 1.2458 1.2213 1.2185 1.2264
1784.305 1.2142 1.2409 1.26 1.35 1.42 1.36 1.29 1.33 1.36 1.35
1803.594 1.37 1.38 1.42 1.44 1.44 1.47 1.49 1.48 1.54 1.54
1822.884 1.58 1.7 1.74 1.71 1.74 1.81 1.86 1.92 1.98 2.01
1842.174 1.98 2.02 2.1 2.17 2.26 2.33 2.38 2.42 2.5 2.58
1861.464 2.64 2.78 2.89 2.93 3.01 3.11 3.21 3.31 3.5 3.66
1880.754 3.81 3.99 4.09 4.26 4.43 4.62 4.82 5.01 5.27 5.46
1900.043 5.67 5.91 6.16 6.49 6.81 7.15 7.5 7.81 8.11 8.52
1919.333 8.96 9.35 9.71 10.19 10.71 11.14 11.64 12.26 12.85 13.39
1938.623 13.98 14.59 15.29 15.99 16.67 17.41 18.26 19.18 20.12 21.09
1957.913 22.11 23.19 24.37 25.6 26.92 28.29 29.71 31.32 33.04 34.87
1977.202 36.82 38.86 41 43.29 45.89 48.63 51.49 54.68 58.16 61.74
1996.492 65.57 69.7 74.1 78.76 83.79 89.16 94.82 100.9 107.33 114.14
2015.782 121.43 129.21 137.45 146.23 155.5 165.27 175.59 186.57 197.99 209.65
2035.072 221.62 233.79 246.06 258.21 270.16 281.54 292.08 301.87 310.54 317.78
2054.362 323.72 328.31 331.39 332.86 332.97 331.88 329.36 325.48 320.36 313.92
2073.651 306.21 297.37 287.48 276.52 264.51 251.75 238.61 225.4 212.38 199.78
2092.941 187.84 176.71 166.52 157.39 149.29 142.12 135.93 130.5 125.63 121.25
2112.231 117.26 113.52 109.87 106.28 102.69 99.03 95.26 91.51 87.89 84.25
2131.521 80.79 77.62 74.6 71.79 69.29 67.07 65.01 63.11 61.46 60.03
2150.810 58.75 57.65 56.72 55.91 55.15 54.5 53.98 53.39 52.85 52.45
2170.100 52.11 51.67 51.23 50.82 50.4 50.07 49.72 49.38 49.11 48.83
2189.390 48.54 48.16 47.72 47.32 46.78 46.11 45.36 44.42 43.35 42.18
2208.680 40.74 39.09 37.35 35.53 33.65 31.71 29.8 27.93 26.05 24.31
2227.970 22.71 21.26 19.96 18.74 17.56 16.59 15.66 14.77 14.07 13.42
2247.259 12.82 12.26 11.83 11.38 10.88 10.42 9.97 9.59 9.23 8.87
2266.549 8.59 8.27 7.91 7.63 7.32 7.03 6.72 6.42 6.26 6.03
2285.839 5.73 5.52 5.37 5.19 4.95 4.73 4.57 4.42 4.2 4.07
2305.129 4.07 3.95 3.81 3.68 3.56 3.47 3.4 3.37 3.22 3.03
2324.418 2.95 2.88 2.78 2.75 2.7 2.59 2.5 2.41 2.39 2.38
2343.708 2.34 2.34 2.27 2.14 2.1 2.08 2.04 2.05 2.06 2.01
2362.998 1.94 1.83 1.78 1.75 1.73 1.69 1.65 1.66 1.62 1.58
2382.288 1.58 1.54 1.53 1.51 1.42 1.37 1.34 1.37 1.41 1.47
2401.578 1.47 1.44 1.42 1.41 1.45 1.49 1.54 1.58 1.51 1.52
2420.867 1.56 1.53 1.56 1.49 1.49 1.53 1.53 1.48 1.46 1.51
2440.157 1.46 1.43 1.43 1.4 1.37 1.39 1.47 1.48 1.42 1.45
2459.447 1.52 1.48 1.36 1.37 1.42 1.4 1.37 1.46 1.57 1.56
2478.737 1.62 1.69 1.68 1.71 1.86 2.01 2.03 2.07 2.09 2.08
2498.026 2.15 2.24 2.29 2.36 2.39 2.3 2.27 2.3 2.32 2.28
2517.316 2.23 2.27 2.39 2.47 2.42 2.36 2.34 2.38 2.42 2.4
2536.606 2.32 2.36 2.38 2.37 2.37 2.33 2.28 2.23 2.27 2.31
2555.896 2.34 2.34 2.36 2.35 2.32 2.4 2.42 2.44 2.44 2.47
2575.186 2.51 2.53 2.54 2.43 2.45 2.62 2.73 2.72 2.71 2.82
2594.475 2.84 2.76 2.88 2.99 2.95 2.99 3.01 2.99 2.99 3
2613.765 2.92 3.01 3.19 3.07 2.96 2.89 2.86 2.97 3.11 3.12
2633.055 3.01 3.03 3.13 3.13 3.11 3.18 3.19 3.26 3.43 3.47
2652.345 3.52 3.64 3.76 3.83 3.98 4.19 4.34 4.49 4.67 4.91
2671.634 5.13 5.35 5.5 5.74 6.08 6.27 6.41 6.52 6.79 7.16
2690.924 7.41 7.59 7.88 8.32 8.73 9.13 9.57 10.04 10.56 11.17
2710.214 11.85 12.42 13.09 13.8 14.39 15.01 15.71 16.4 16.98 17.58
2729.504 18.23 18.73 19.27 19.97 20.52 21.01 21.57 22.19 22.87 23.7
2748.794 24.69 25.7 26.81 28.23 29.93 31.94 34.58 37.78 41.37 45.71
2768.083 50.67 55.94 61.22 66 69.85 72.58 74.22 74.81 74.48 73.08
2787.373 70.77 68.21 65.81 63.73 62 60.45 59.06 57.98 56.99 55.91
2806.663 54.71 53.63 52.8 52.24 52.23 52.62 53.28 54.14 54.95 55.48
2825.953 55.29 54.26 52.83 50.76 47.96 44.69 41.21 38.06 35.41 33.26
2845.242 31.53 30.3 29.58 29.17 28.94 28.92 29.25 29.72 30.2 30.81
2864.532 31.54 32.15 32.71 33.4 33.81 34.01 34.31 34.61 34.78 34.8
2883.822 34.9 34.95 34.81 34.7 34.49 34.1 33.78 33.43 32.97 32.59
2903.112 32.38 32.37 32.33 32.31 32.49 32.75 33.15 33.8 34.64 35.67
2922.401 36.94 38.59 40.47 42.39 44.71 47.16 49.83 52.95 56.34 60.14
2941.691 64.04 68.19 72.74 77.19 81.2 84.67 87.11 88.4 88.83 88.41
2960.981 87 84.46 81.21 77.81 74.66 72.14 70.07 68.5 66.99 64.63
2980.271 61.65 58.28 54.25 49.76 44.57 38.52 32.53 26.98 22.36 18.89
2999.561 16.2 14.03 12.28 10.86 9.71 8.84 8.15 7.44 6.85 6.41
3018.850 5.86 5.49 5.21 4.85 4.61 4.41 4.26 4.21 4.02 3.93
3038.140 3.84 3.65 3.64 3.47 3.31 3.27 3.15 3.08 3.05 3.02
3057.430 2.92 2.83 2.83 2.83 2.81 2.73 2.56 2.52 2.56 2.49
3076.720 2.46 2.39 2.35 2.37 2.31 2.23 2.07 2.04 2.16 2.14
3096.009 2.14 2 1.85 1.84 1.76 1.83 1.76 1.7 1.76 1.68
3115.299 1.58 1.49 1.42 1.44 1.56 1.61 1.48 1.5 1.58 1.51
3134.589 1.42 1.37 1.47 1.49 1.32 1.26 1.31 1.36 1.44 1.49
3153.879 1.42 1.35 1.2278 1.26 1.3 1.1086 1.0767 1.1619 1.1752 1.1455
3173.169 1.1796 1.26 1.1515 1.0634 1.1719 1.0846 0.9447 1.1179 1.196 1.1193
3192.458 1.1268 1.0539 1.0183 1.098 1.1502 1.1249 1.0885 0.9385 0.7773 0.6711
3211.748 0.7058 0.8377 0.8487 0.7523 0.7837 0.6795 0.5993 0.7005 0.7147 0.6708
3231.038 0.4693 0.5383 0.5333 0.4647 0.4502 0.4028 0.4485 0.4733 0.5095 0.4307
3250.328 0.3683 0.4324 0.28037 0.26836 0.4157 0.4103 0.4091 0.32289 0.34671 0.3895
3269.617 0.34295 0.3816 0.3751 0.4353 0.4229 0.4029 0.3701 0.1529 0.106 0.1622
3288.907 0.087 0.128 0.255329 0.259259 0.3293 0.29925 0.29854 0.1791 0.1679 0.3086
3308.197 0.2367 0.2188 0.30118 0.31544 0.33254 0.3645 0.2756 0.28615 0.28006 0.1626
3327.487 0.053 0 0.091 0.2281 0.2201 0.1602 0.1927 0.3066 0.2067 0.1756
3346.777 0.34098 0.4109 0.30492 0.3874 0.425 0.2367 0.3175 0.4146 0.4549 0.31392
3366.066 0.1614 0.2186 0.29539 0.251146 0.092 0.2248 0.4248 0.3512 0.27089 0.249899
3385.356 0.29599 0.3545 0.3157 0.3738 0.29098 0.114 0.24893 0.4523 0.4312 0.3552
3404.646 0.32445 0.29261 0.372 0.3765 0.3559 0.3809 0.4125 0.4697 0.4501 0.4725
3423.936 0.4958 0.4786 0.4159 0.3589 0.4211 0.4047 0.31771 0.31772 0.27873 0.3645
3443.225 0.4538 0.3962 0.34398 0.4327 0.3557 0.2161 0.31546 0.3009 0.2759 0.34034
3462.515 0.30107 0.2198 0.3573 0.3933 0.4017 0.3749 0.29517 0.3709 0.4329 0.4344
3481.805 0.4627 0.3695 0.30373 0.4504 0.4299 0.3807 0.34771 0.29584 0.253873 0.1997
3501.095 0.2145 0.1885 0.33138 0.2311 0.138 0.3693 0.31828 0.2008 0.1776 0.2331
3520.385 0.33327 0.3691 0.3669 0.30094 0.335 0.3675 0.3533 0.383 0.4024 0.4573
3539.674 0.4314 0.4401 0.4188 0.27445 0.33407 0.4561 0.4361 0.29239 0.28064 0.3601
3558.964 0.2741 0.27498 0.4861 0.5349 0.4199 0.34928 0.29723 0.3702 0.3827 0.2281
3578.254 0.2142 0.28773 0.31853 0.3972 0.3955 0.3207 0.29544 0.27772 0.2341 0.386
3597.544 0.4635 0.3863 0.3894 0.30053 0.3721 0.5219 0.4029 0.2749 0.3814 0.6045
3616.833 0.5005 0.373 0.4485 0.3552 0.29658 0.2161 0.1844 0.4182 0.5311 0.4338
3636.123 0.3958 0.30305 0.2209 0.34152 0.3551 0.27968 0.28321 0.3586 0.31688 0.32437
3655.413 0.4113 0.4242 0.5428 0.4697 0.33125 0.3528 0.33001 0.3058 0.33835 0.4483
3674.703 0.4449 0.3781 0.28637 0.3629 0.4574 0.3603 0.31608 0.34368 0.33168 0.29089
3693.993 0.26071 0.30152 0.3627 0.3678 0.3637 0.3008 0.29129 0.33138 0.29504 0.29927
3713.282 0.26222 0.27807 0.4102 0.3933 0.5252 0.5695 0.3761 0.4042 0.4493 0.3723
3732.572 0.3592 0.32891 0.30655 0.4765 0.5635 0.4742 0.3966 0.28286 0.31698 0.4234
3751.862 0.448 0.4745 0.5447 0.5922 0.5244 0.5872 0.7212 0.6967 0.6323 0.4209
3771.152 0.4426 0.5935 0.537 0.5559 0.4776 0.4882 0.6177 0.5519 0.5308 0.5749
3790.441 0.58 0.5369 0.548 0.6933 0.6849 0.5816 0.5211 0.5674 0.6028 0.5712
3809.731 0.5523 0.6648 0.8003 0.7959 0.8597 0.7949 0.5824 0.4875 0.6541 0.7902
3829.021 0.8111 0.9123 0.9232 0.8496 0.8757 0.8918 0.6445 0.5246 0.5404 0.643
3848.311 0.7959 0.9155 0.9912 0.9074 0.8911 0.8848 0.8886 0.9209 0.8067 0.7591
3867.601 0.7698 0.8203 0.7633 0.663 0.6341 0.7131 0.8819 0.8961 0.8102 0.7963
3886.890 0.786 0.7919 0.7622 0.7504 0.8045 0.7577 0.7199 0.716 0.7251 0.8328
3906.180 0.9592 1.0047 0.8232 0.6848 0.8736 0.9351 0.96 0.8931 0.8354 0.8498
3925.470 0.8435 0.8814 0.97 1.1331 1.1762 1.1064 1.06 1.0669 1.1457 1.28
3944.760 1.34 1.36 1.31 1.2423 1.2469 1.29 1.28 1.1889 1.1964 1.2093
3964.049 1.31 1.39 1.36 1.33 1.26 1.29 1.39 1.43 1.39 1.33
3983.339 1.39 1.42 1.42 1.51 1.66 1.68 1.62 1.68 1.78 1.8
##END=
