##TITLE=3,4-Diethoxyphenylacetonitrile
##JCAMP-DX=4.24
##DATA TYPE=INFRARED SPECTRUM
##ORIGIN=EPA-IR VAPOR PHASE LIBRARY
##OWNER=SRD/NIST
Collection (C) 2018 copyright by the U.S. Secretary of Commerce
on behalf of the United States of America. All rights reserved.
##CAS REGISTRY NO=27472-21-5
##MOLFORM=C12 H15 N O2
##$NIST SOURCE=MSDC-IR
##STATE=gas
##XUNITS=1/CM
##YUNITS=ABSORBANCE
##XFACTOR=1.
##YFACTOR=0.001
##DELTAX=1.92898
##FIRSTX=549.8
##LASTX=4000.7
##FIRSTY=1.427
##MAXX=4000.7
##MINX=549.759
##MAXY=0.084607
##MINY=0
##NPOINTS=1790
##XYDATA=(X++(Y..Y))
549.759 1.427 1.437 1.607 1.617 1.0863 0.9439 1.397 1.617 1.587 1.777
569.049 1.777 1.497 1.587 1.957 2.087 2.017 2.217 2.317 2.407 2.567
588.339 2.577 2.427 2.307 2.377 2.117 1.957 1.987 1.837 1.917 2.157
607.628 2.097 2.137 2.337 2.327 2.317 2.357 2.367 2.337 2.337 2.357
626.918 2.167 2.017 2.037 2.127 2.057 1.847 1.767 1.657 1.607 1.507
646.208 1.367 1.407 1.497 1.557 1.387 1.187 1.2459 1.0807 0.8827 0.7505
665.498 0.6829 0.7709 0.9002 0.9133 0.8335 0.9014 0.9251 0.9592 1.039 0.9779
684.787 0.9708 1.0393 1.2199 1.3176 1.2296 1.1398 1.1459 1.2129 1.198 1.1928
704.077 1.387 1.517 1.487 1.587 1.687 1.777 1.987 2.257 2.527 2.647
723.367 2.637 2.547 2.627 2.907 3.047 3.137 3.137 3.167 3.307 3.477
742.657 3.577 3.627 3.767 3.667 3.637 3.827 3.897 3.957 4.017 4.187
761.947 4.207 4.297 4.557 4.617 4.527 4.627 4.707 4.897 5.107 5.017
781.236 5.067 5.297 5.597 5.897 6.347 6.907 7.427 7.947 8.487 8.867
800.526 9.237 9.447 9.357 9.237 9.177 9.087 8.827 8.597 8.357 7.957
819.816 7.737 7.547 7.057 6.767 6.247 5.527 5.327 5.127 4.757 4.697
839.106 4.627 4.597 4.727 4.657 4.557 4.547 4.477 4.577 4.747 4.857
858.395 4.957 4.977 5.137 5.377 5.447 5.577 5.757 5.967 6.347 6.577
877.685 6.567 6.627 6.727 6.787 7.047 7.237 7.437 7.657 7.767 8.057
896.975 8.287 8.467 8.727 8.727 8.567 8.397 8.257 8.137 7.917 7.657
916.265 7.477 7.357 7.107 7.037 6.867 6.687 6.497 6.197 5.907 5.487
935.555 5.137 4.817 4.467 4.297 4.167 3.767 3.537 3.557 3.517 3.497
954.844 3.457 3.557 3.957 4.067 4.337 4.737 5.067 5.427 5.647 5.807
974.134 5.987 6.237 6.147 5.887 5.627 5.687 5.557 5.277 5.197 5.127
993.424 5.177 5.257 5.577 5.827 6.297 6.907 7.587 8.567 9.537 10.777
1012.714 12.287 14.077 16.257 18.907 21.827 24.827 28.477 32.477 36.197 40.047
1032.003 43.947 46.977 48.737 49.627 49.407 48.237 46.107 43.197 39.617 35.697
1051.293 31.587 27.487 24.177 20.997 18.327 16.197 14.287 12.997 11.807 11.147
1070.583 10.727 10.307 10.147 10.257 10.697 11.227 11.717 12.097 12.707 13.417
1089.873 14.017 14.327 14.167 13.947 14.107 14.157 13.497 13.367 14.097 14.967
1109.163 15.987 17.187 18.667 20.277 22.517 25.327 27.717 29.687 31.907 34.397
1128.452 36.017 36.877 37.397 37.297 36.387 35.357 34.317 33.227 31.977 30.647
1147.742 29.337 27.647 26.307 25.127 23.697 22.067 20.347 18.897 17.517 16.217
1167.032 14.807 13.247 12.137 11.387 10.787 10.287 9.697 9.127 8.927 9.007
1186.322 9.347 9.617 9.947 10.447 11.187 12.427 13.917 15.777 17.917 20.267
1205.611 23.127 26.417 29.887 33.367 36.867 39.877 42.707 44.887 45.887 46.587
1224.901 47.097 47.027 45.997 44.467 42.907 41.347 39.967 39.087 38.717 38.717
1244.191 39.547 41.407 44.097 48.107 53.077 58.307 63.817 69.497 74.787 79.127
1263.481 82.377 84.367 84.607 83.177 80.477 76.767 72.457 67.657 63.057 58.617
1282.771 54.337 50.277 46.517 43.427 41.007 38.837 36.697 35.007 33.467 31.957
1302.060 30.707 29.557 28.187 26.727 25.427 24.157 22.887 21.527 20.127 18.757
1321.350 17.357 16.087 14.887 13.667 12.537 11.587 10.637 9.787 9.127 8.467
1340.640 7.897 7.447 7.047 6.757 6.587 6.437 6.327 6.327 6.447 6.627
1359.930 6.837 7.047 7.277 7.517 7.777 8.207 8.777 9.517 10.527 11.807
1379.219 13.387 15.197 17.257 19.377 21.297 22.857 23.827 24.137 23.717 22.687
1398.509 21.187 19.407 17.687 16.087 14.867 14.097 13.877 14.227 15.027 16.317
1417.799 18.157 20.547 23.167 25.777 27.987 29.297 29.517 28.557 26.637 23.907
1437.089 20.557 17.407 14.977 13.267 12.017 11.197 10.647 10.197 9.917 9.667
1456.378 9.457 9.387 9.467 9.637 10.037 10.767 11.707 12.947 14.587 16.597
1475.668 18.717 20.737 22.317 23.367 24.087 24.717 25.567 27.027 29.627 33.707
1494.958 39.437 46.777 55.047 63.677 71.777 78.067 81.817 82.597 79.987 74.317
1514.248 66.607 57.717 48.547 40.367 33.247 27.577 23.117 19.557 16.787 14.567
1533.538 12.727 11.327 10.297 9.397 8.627 8.047 7.617 7.277 7.017 6.837
1552.827 6.647 6.467 6.347 6.337 6.407 6.647 6.977 7.307 7.637 8.117
1572.117 8.757 9.467 10.227 10.877 11.377 11.697 11.867 11.847 11.607 11.347
1591.407 10.997 10.577 10.487 10.447 10.367 10.477 10.647 10.607 10.427 10.097
1610.697 9.557 8.917 8.057 7.037 6.077 5.267 4.597 4.007 3.537 3.227
1629.986 2.987 2.787 2.647 2.537 2.467 2.347 2.227 2.187 2.157 2.117
1649.276 2.067 2.037 2.057 2.037 1.947 1.897 1.887 1.897 1.877 1.847
1668.566 1.807 1.817 1.867 1.777 1.717 1.737 1.697 1.667 1.697 1.737
1687.856 1.727 1.677 1.617 1.627 1.657 1.617 1.537 1.537 1.527 1.487
1707.146 1.527 1.557 1.507 1.487 1.467 1.447 1.507 1.457 1.377 1.417
1726.435 1.417 1.407 1.467 1.467 1.437 1.437 1.407 1.377 1.407 1.437
1745.725 1.407 1.397 1.417 1.497 1.487 1.447 1.477 1.527 1.517 1.517
1765.015 1.527 1.557 1.547 1.547 1.557 1.537 1.517 1.467 1.437 1.457
1784.305 1.407 1.387 1.407 1.3294 1.3129 1.367 1.387 1.367 1.2977 1.2737
1803.594 1.3073 1.3222 1.347 1.337 1.3101 1.2935 1.2559 1.263 1.286 1.2885
1822.884 1.298 1.337 1.293 1.2918 1.397 1.397 1.357 1.387 1.427 1.397
1842.174 1.417 1.467 1.487 1.487 1.507 1.557 1.607 1.647 1.657 1.687
1861.464 1.747 1.727 1.697 1.767 1.827 1.807 1.797 1.807 1.807 1.757
1880.754 1.737 1.737 1.727 1.707 1.667 1.727 1.757 1.727 1.677 1.677
1900.043 1.677 1.577 1.557 1.587 1.577 1.537 1.567 1.617 1.617 1.597
1919.333 1.597 1.587 1.537 1.507 1.487 1.497 1.507 1.497 1.457 1.437
1938.623 1.447 1.407 1.407 1.377 1.3317 1.377 1.387 1.367 1.2931 1.2095
1957.913 1.2088 1.2381 1.2334 1.2364 1.2285 1.1975 1.2103 1.2059 1.2233 1.2456
1977.202 1.2221 1.2091 1.2267 1.2754 1.31 1.3086 1.3097 1.2982 1.2661 1.2717
1996.492 1.2822 1.2597 1.265 1.2925 1.337 1.3179 1.2526 1.2356 1.2658 1.289
2015.782 1.2913 1.3003 1.3162 1.3307 1.347 1.288 1.2858 1.357 1.387 1.377
2035.072 1.3343 1.397 1.437 1.437 1.427 1.3295 1.2718 1.3128 1.2706 1.2705
2054.362 1.2771 1.2675 1.2694 1.2226 1.1584 1.0775 1.0782 1.1054 1.1472 1.1116
2073.651 1.0204 1.0247 1.0444 1.0473 0.9837 0.9667 0.9968 0.9618 0.9565 0.9563
2092.941 0.902 0.8777 0.851 0.8473 0.9367 0.9451 0.8975 0.8673 0.8528 0.878
2112.231 0.9196 0.939 0.9647 0.9912 0.9639 0.8594 0.8109 0.8027 0.867 0.9524
2131.521 0.9565 0.9317 0.8754 0.8824 0.9094 0.9193 0.8868 0.8728 0.88 0.8219
2150.810 0.813 0.8409 0.847 0.8395 0.8204 0.8281 0.899 0.8902 0.7753 0.7627
2170.100 0.7806 0.7429 0.7369 0.7533 0.7615 0.7629 0.7542 0.7485 0.7592 0.7949
2189.390 0.7956 0.7492 0.6809 0.6985 0.7338 0.7109 0.6946 0.7132 0.6819 0.6443
2208.680 0.6986 0.7442 0.7378 0.7371 0.7556 0.7694 0.7442 0.7546 0.8206 0.8326
2227.970 0.8696 0.8739 0.9048 0.9944 1.0172 1.0852 1.1341 1.1522 1.2735 1.367
2247.259 1.487 1.557 1.577 1.747 1.857 1.887 1.857 1.727 1.657 1.597
2266.549 1.447 1.347 1.3105 1.25 1.1436 1.0771 1.0951 1.0849 1.0802 1.0501
2285.839 1.0375 1.0357 1.0332 1.0002 0.9465 1.0198 1.0392 0.9817 0.9953 0.938
2305.129 0.9024 0.9264 0.8808 0.8731 0.7869 0.7665 0.8253 0.8903 0.9182 0.8863
2324.418 0.9051 0.8773 0.8309 0.8184 0.9177 1.0064 0.9809 0.9305 0.8908 0.8707
2343.708 0.8893 0.8959 0.9129 0.9432 0.9129 0.8431 0.8455 0.8486 0.8617 0.8915
2362.998 0.8362 0.8179 0.7922 0.7477 0.7767 0.8045 0.7734 0.8073 0.8705 0.8766
2382.288 0.8345 0.9078 0.9682 0.9118 0.9214 0.9053 0.9132 0.9368 0.9636 0.9727
2401.578 0.9625 0.9735 0.9442 0.9702 0.9969 1.0509 1.1192 1.1234 1.0972 1.1124
2420.867 1.154 1.1636 1.155 1.0933 1.0208 0.9907 1.0501 1.0082 0.9679 1.0035
2440.157 0.9256 0.9454 0.9924 0.9347 0.8999 0.9356 0.956 0.9563 0.9688 0.9441
2459.447 0.9102 0.887 0.8918 0.9393 0.9748 0.9236 0.9307 1.0036 1.0952 1.131
2478.737 1.0686 1.0521 1.0287 0.9928 0.9635 0.9469 0.9621 0.9428 0.9309 1.0117
2498.026 1.0185 0.9566 1.0017 1.0653 1.0337 1.0342 1.1082 1.1039 1.0983 1.0903
2517.316 1.1148 1.111 1.1178 1.2052 1.2546 1.2241 1.2628 1.3336 1.357 1.397
2536.606 1.417 1.417 1.437 1.477 1.507 1.527 1.527 1.517 1.507 1.507
2555.896 1.467 1.517 1.527 1.477 1.487 1.497 1.467 1.447 1.457 1.487
2575.186 1.437 1.427 1.437 1.417 1.447 1.457 1.377 1.2978 1.2293 1.265
2594.475 1.2858 1.29 1.273 1.0816 1.0288 1.0294 1.0288 1.0913 1.0853 1.0758
2613.765 1.0273 0.9681 0.9581 0.961 0.9149 0.8278 0.8787 0.9489 0.8394 0.7688
2633.055 0.8077 0.8211 0.8497 0.8421 0.7952 0.7474 0.7277 0.6928 0.6798 0.7148
2652.345 0.742 0.7324 0.6777 0.6618 0.7399 0.7911 0.7118 0.6883 0.7646 0.7227
2671.634 0.6883 0.733 0.7802 0.7862 0.7596 0.7383 0.7819 0.8579 0.874 0.9301
2690.924 0.9836 1.0341 1.0068 1.0074 1.0628 1.0635 1.1201 1.1232 1.1328 1.2066
2710.214 1.2497 1.2869 1.2959 1.2427 1.2637 1.407 1.457 1.437 1.557 1.657
2729.504 1.627 1.557 1.537 1.597 1.677 1.697 1.657 1.647 1.627 1.667
2748.794 1.717 1.657 1.617 1.597 1.627 1.717 1.747 1.697 1.657 1.747
2768.083 1.847 1.867 1.807 1.717 1.717 1.727 1.727 1.797 1.867 1.907
2787.373 1.877 1.837 1.867 1.817 1.827 1.877 1.797 1.797 1.927 2.067
2806.663 2.187 2.197 2.227 2.317 2.367 2.457 2.627 2.777 2.827 2.907
2825.953 3.007 3.107 3.337 3.487 3.587 3.747 3.827 3.917 4.107 4.247
2845.242 4.377 4.447 4.517 4.717 4.967 5.217 5.507 5.907 6.307 6.797
2864.532 7.327 7.897 8.547 9.307 10.137 11.087 12.117 13.027 13.907 14.807
2883.822 15.597 16.137 16.447 16.697 16.837 16.757 16.547 16.357 16.267 16.297
2903.112 16.417 16.557 16.767 17.077 17.367 17.557 17.837 18.197 18.547 18.847
2922.401 19.087 19.577 20.177 20.967 21.857 22.657 23.597 24.437 25.077 25.367
2941.691 25.277 24.837 23.957 22.837 21.447 19.987 18.867 17.917 17.277 17.177
2960.981 17.297 17.677 18.337 19.187 20.387 21.977 23.667 25.587 27.947 30.197
2980.271 32.247 34.197 35.417 35.827 35.577 34.617 32.787 30.007 26.787 23.517
2999.561 20.487 17.917 15.727 13.917 12.357 11.127 10.247 9.427 8.787 8.347
3018.850 7.937 7.537 7.277 7.177 7.097 7.037 6.907 6.787 6.827 7.047
3038.140 7.317 7.317 7.217 7.237 7.227 6.967 6.767 6.577 6.317 6.117
3057.430 5.987 5.757 5.437 5.267 5.057 4.737 4.447 4.297 4.097 3.677
3076.720 3.327 3.187 2.987 2.837 2.777 2.517 2.347 2.247 2.127 2.077
3096.009 2.047 1.977 1.887 1.887 1.837 1.707 1.737 1.767 1.577 1.557
3115.299 1.667 1.467 1.347 1.3369 1.417 1.457 1.2747 1.1785 1.2101 1.2872
3134.589 1.2957 1.253 1.193 1.1271 1.031 1.0036 1.1053 1.0453 1.0451 0.9878
3153.879 0.916 1.0393 0.9376 0.835 0.8149 0.8642 0.9387 0.9472 0.9885 0.9462
3173.169 1.01 1.1486 1.0984 0.9605 0.8159 0.8293 0.8508 0.7299 0.7514 0.821
3192.458 0.7834 0.8 0.7875 0.7701 0.8989 0.8905 0.7939 0.832 0.8493 0.7768
3211.748 0.7369 0.7116 0.6927 0.6682 0.6193 0.5865 0.6078 0.6106 0.6224 0.5193
3231.038 0.526 0.7491 0.6478 0.5868 0.6791 0.6024 0.4536 0.4212 0.4729 0.4837
3250.328 0.5193 0.5333 0.5063 0.5185 0.5444 0.5314 0.5096 0.5034 0.538 0.5098
3269.617 0.3063 0.2401 0.3093 0.43542 0.4846 0.4416 0.463 0.35321 0.43314 0.5022
3288.907 0.542 0.5373 0.4761 0.4567 0.4406 0.4465 0.5038 0.4431 0.2744 0.2525
3308.197 0.35159 0.4641 0.4841 0.4539 0.37666 0.34755 0.3211 0.3014 0.2757 0.2989
3327.487 0.2729 0.2518 0.35805 0.4557 0.4472 0.42479 0.416 0.36097 0.225 0.215
3346.777 0.2816 0.2703 0.2621 0.2778 0.2871 0.3807 0.36235 0.33491 0.36017 0.2874
3366.066 0.339982 0.2787 0.2942 0.38441 0.196 0.07 0.141 0.164 0.33497 0.4992
3385.356 0.37287 0.234 0.194 0.237 0.3183 0.3019 0.205 0.107 0.2619 0.5569
3404.646 0.41199 0.153 0.201 0.2851 0.2484 0.2457 0.35386 0.35846 0.35473 0.296
3423.936 0.345053 0.43375 0.36634 0.3051 0.217 0.121 0.151 0.212 0.149 0.2542
3443.225 0.38681 0.40828 0.2743 0.2744 0.36573 0.37185 0.33228 0.185 0.213 0.226
3462.515 0.2513 0.2864 0.129 0.086 0.166 0.21 0.2766 0.3168 0.231 0.2797
3481.805 0.40155 0.345128 0.234 0.236 0.26 0.2777 0.35463 0.206 0.208 0.35033
3501.095 0.33241 0.346342 0.226 0.166 0.224 0.214 0.2795 0.307 0.41703 0.4611
3520.385 0.4521 0.4418 0.37859 0.3246 0.32805 0.35839 0.34812 0.35517 0.2871 0.216
3539.674 0.15 0.193 0.2372 0.35303 0.38289 0.3007 0.3067 0.2641 0.2628 0.2972
3558.964 0.2858 0.2628 0.3039 0.2604 0.139 0.2445 0.36154 0.234 0.131 0.149
3578.254 0.152 0.164 0.236 0.236 0.36069 0.42111 0.192 0.146 0.2875 0.2962
3597.544 0.2488 0.35625 0.39491 0.19 0.204 0.325 0.2742 0.2897 0.2589 0.2759
3616.833 0.2664 0.111 0.176 0.3047 0.2594 0.3006 0.3623 0.33592 0.336584 0.2905
3636.123 0.244 0.2798 0.3045 0.37549 0.2735 0.2477 0.41459 0.2903 0.231 0.2744
3655.413 0.2934 0.34944 0.3142 0.37364 0.37634 0.2614 0.204 0.2416 0.2863 0.3117
3674.703 0.296 0.227 0.2574 0.3012 0.2429 0.3265 0.43309 0.217 0.3111 0.38021
3693.993 0.2661 0.2497 0.223 0.40017 0.343543 0.2748 0.3268 0.3059 0.35476 0.36867
3713.282 0.43385 0.39362 0.19 0.229 0.3001 0.2614 0.205 0.2866 0.41208 0.39138
3732.572 0.38379 0.36455 0.3215 0.4118 0.42605 0.38547 0.41277 0.37812 0.36181 0.39601
3751.862 0.5739 0.7105 0.5407 0.40726 0.5643 0.4398 0.339577 0.39572 0.36043 0.2582
3771.152 0.157 0.3471 0.43653 0.282 0.201 0.168 0.3234 0.5389 0.5037 0.4555
3790.441 0.345051 0.226 0.2464 0.2499 0.3058 0.36302 0.42508 0.2921 0.127 0.213
3809.731 0.2612 0.185 0.205 0.42345 0.42437 0.2941 0.3136 0.2966 0.2952 0.40428
3829.021 0.457 0.39573 0.41597 0.40772 0.40068 0.3093 0.14 0.222 0.209 0.134
3848.311 0.339987 0.4575 0.35861 0.40679 0.43332 0.147 0.061 0.40466 0.4597 0.2526
3867.601 0.186 0.172 0.115 0.083 0.2598 0.38132 0.41476 0.4568 0.39965 0.2691
3886.890 0.2646 0.267 0.232 0.32913 0.43292 0.5371 0.527 0.4481 0.34094 0.342509
3906.180 0.2729 0.222 0.264 0.034 0 0.157 0.204 0.3023 0.3203 0.2719
3925.470 0.2932 0.2907 0.3164 0.271 0.3002 0.43332 0.3065 0.2898 0.36105 0.2795
3944.760 0.37597 0.41079 0.2782 0.37548 0.5128 0.5654 0.4539 0.295 0.36157 0.5136
3964.049 0.4972 0.40715 0.36891 0.199 0.175 0.32971 0.39662 0.4749 0.5775 0.5764
3983.339 0.5567 0.492 0.502 0.6136 0.4797 0.35518 0.5044 0.4922 0.37152 0.2895
##END=
