##TITLE=2-Ethyl-1-pentanol
##JCAMP-DX=4.24
##DATA TYPE=INFRARED SPECTRUM
##ORIGIN=NIST Mass Spectrometry Data Center
##OWNER=NIST Standard Reference Data Program
Collection (C) 2018 copyright by the U.S. Secretary of Commerce
on behalf of the United States of America. All rights reserved.
##CAS REGISTRY NO=27522-11-8
##MOLFORM=C 7 H 16 O
##$NIST SOURCE=MSDC-IR
##SPECTROMETER/DATA SYSTEM=HP-GC/MS/IRD
##STATE=gas
##XUNITS=1/CM
##YUNITS=ABSORBANCE
##XFACTOR=1.0
##YFACTOR=0.000003300
##DELTAX=4.0
##FIRSTX=550.0
##LASTX=3846.0
##FIRSTY=0.000307
##MAXX=3846
##MINX=550
##MAXY=0.033
##MINY=0
##NPOINTS=825
##XYDATA=(X++(Y..Y))
550.0 93 47 5 36 74 87 70 49 46 46
590.0 41 57 82 76 64 69 74 55 48 52
630.0 30 18 45 64 50 41 41 27 3 9
670.0 43 56 44 32 33 45 55 60 55 74
710.0 91 82 95 113 133 155 183 207 213 204
750.0 186 190 215 227 245 275 284 272 254 227
790.0 210 202 192 180 165 147 146 156 160 152
830.0 141 138 136 142 146 156 176 190 201 214
870.0 230 246 272 299 312 325 337 342 345 342
910.0 341 333 335 349 353 375 411 462 518 568
950.0 622 673 705 719 726 729 739 752 774 817
990.0 888 984 1113 1280 1489 1752 2093 2508 2968 3453
1030.0 3879 4155 4244 4095 3730 3234 2687 2164 1737 1410
1070.0 1158 971 853 773 713 673 646 639 631 629
1110.0 622 601 581 562 527 511 508 502 506 505
1150.0 502 489 480 464 453 450 451 476 499 512
1190.0 534 553 571 592 594 589 595 597 596 597
1230.0 595 586 576 575 581 587 594 594 594 591
1270.0 587 583 585 582 578 571 565 559 560 559
1310.0 553 551 545 544 554 569 585 598 613 629
1350.0 645 654 673 705 768 856 955 1046 1119 1130
1390.0 1068 947 799 664 553 479 432 403 392 393
1430.0 419 467 549 673 842 1034 1223 1401 1506 1549
1470.0 1520 1388 1200 997 795 606 464 362 291 251
1510.0 215 186 171 162 148 134 129 131 118 102
1550.0 98 97 97 90 81 74 79 83 72 64
1590.0 58 58 58 61 64 57 56 60 59 52
1630.0 47 48 48 47 47 51 48 37 34 34
1670.0 35 37 31 31 39 33 31 37 29 22
1710.0 20 20 20 16 15 16 13 8 9 13
1750.0 14 8 10 12 9 15 13 6 7 10
1790.0 12 8 2 4 9 11 6 5 7 5
1830.0 3 4 9 8 3 0 0 0 4 10
1870.0 11 11 9 7 5 10 11 8 9 6
1910.0 2 2 6 8 4 5 10 10 7 7
1950.0 6 4 5 5 1 3 10 9 6 8
1990.0 9 13 16 14 12 17 23 21 22 24
2030.0 25 23 21 29 35 36 32 30 30 31
2070.0 29 27 26 20 18 18 12 12 15 12
2110.0 11 9 8 5 3 4 5 6 6 1
2150.0 2 7 11 11 8 4 3 3 2 2
2190.0 4 4 2 1 0 4 9 11 10 8
2230.0 10 6 2 4 3 5 11 11 10 11
2270.0 11 10 11 13 9 6 9 14 15 15
2310.0 14 14 17 23 23 19 21 18 24 30
2350.0 26 27 30 33 31 29 27 25 25 27
2390.0 29 33 40 40 38 36 37 37 28 26
2430.0 27 30 37 33 26 23 23 22 22 17
2470.0 15 22 25 20 17 16 19 29 31 30
2510.0 36 29 21 29 35 37 37 32 29 33
2550.0 35 37 45 51 61 65 63 64 66 67
2590.0 68 74 76 78 84 84 77 78 84 84
2630.0 87 86 90 101 107 109 111 117 121 130
2670.0 133 134 144 148 150 159 167 170 182 196
2710.0 201 208 225 236 253 276 297 324 344 355
2750.0 365 369 366 365 371 384 403 425 443 459
2790.0 482 508 524 552 581 620 666 713 771 844
2830.0 933 1061 1236 1456 1752 2130 2614 3199 3854 4562
2870.0 5315 6023 6549 6830 6860 6683 6406 6174 6141 6364
2910.0 6795 7359 7997 8613 9116 9449 9549 9387 9038 8643
2950.0 8405 8506 8968 9582 10000 9757 8742 7288 5606 4042
2990.0 2888 2129 1656 1349 1140 989 884 800 730 667
3030.0 614 568 521 480 444 415 380 351 330 301
3070.0 283 272 264 247 231 219 211 209 202 190
3110.0 183 180 167 159 154 156 150 138 137 136
3150.0 125 120 120 109 96 97 94 86 83 83
3190.0 92 86 77 79 64 36 26 36 32 26
3230.0 20 19 26 22 15 6 6 10 7 13
3270.0 16 17 13 5 3 3 3 4 0 2
3310.0 9 9 0 6 4 6 15 14 9 3
3350.0 3 11 12 9 7 4 8 7 2 16
3390.0 26 22 15 16 22 15 26 35 21 19
3430.0 27 31 16 6 20 32 37 32 36 46
3470.0 43 46 40 33 35 37 45 51 45 39
3510.0 25 24 35 30 28 41 48 32 26 31
3550.0 32 37 39 41 42 35 31 36 36 35
3590.0 39 40 54 67 61 63 72 85 96 109
3630.0 139 164 201 264 354 468 595 744 875 939
3670.0 945 889 767 622 481 345 237 161 125 114
3710.0 105 93 78 72 67 69 75 69 59 63
3750.0 65 66 68 69 59 68 69 52 54 58
3790.0 62 67 59 52 57 62 66 65 75 88
3830.0 88 78 74 72 63
##END=
