##TITLE=Chlorocarbonyl sulphenyl chloride
##JCAMP-DX=4.24
##DATA TYPE=INFRARED SPECTRUM
##ORIGIN=EPA-IR VAPOR PHASE LIBRARY
##OWNER=SRD/NIST
Collection (C) 2018 copyright by the U.S. Secretary of Commerce
on behalf of the United States of America. All rights reserved.
##CAS REGISTRY NO=2757-23-5
##MOLFORM=C Cl 2 O S
##$NIST SOURCE=MSDC-IR
##STATE=gas
##XUNITS=1/CM
##YUNITS=ABSORBANCE
##XFACTOR=1.
##YFACTOR=0.001
##DELTAX=1.92898
##FIRSTX=549.8
##LASTX=4000.7
##FIRSTY=58.14
##MAXX=4000.7
##MINX=549.759
##MAXY=0.25086
##MINY=0
##NPOINTS=1790
##XYDATA=(X++(Y..Y))
549.759 58.14 55.45 51.82 46.98 39.87 31.42 24.51 20.98 20.53 20.7
569.049 21.58 23.21 24.48 26.01 28.53 30.04 29.92 29.32 27.96 27.48
588.339 27.14 26.8 25.97 24.3 21.76 17.54 13.54 10.49 8.52 7.14
607.628 6.1 5.7008 6.03 5.95 5.1964 5.162 5.2222 5.1223 4.9811 4.6904
626.918 4.8581 5.1135 4.79201 4.9112 4.8269 4.71 5.1367 5.071 4.6863 4.9616
646.208 6.18 6.36 5.4644 5.4821 6 6.2 6.18 6.29 6.59 6.43
665.498 6.69 7.51 7.01 6.43 6.28 6.53 6.94 6.48 6.51 6.38
684.787 6.02 6.37 6.73 6.98 6.98 6.69 6.6 6.58 7.12 7.82
704.077 7.67 7.25 7.56 7.8 7.48 7.45 8.28 8.94 9.33 9.75
723.367 10.27 11.23 11.72 12.21 12.95 13.14 13.07 12.99 13.25 14.04
742.657 14.46 14.37 14.16 13.79 13.13 13.14 13.67 14.22 15.62 17.8
761.947 20.68 23.68 26.93 31.83 37.37 43.06 50.31 58.72 67.71 77.26
781.236 87.79 99.23 111 123.31 136.54 150.39 163.86 177.69 192.43 206.69
800.526 220.02 231.99 241.5 247.91 250.86 249.8 244.5 235.85 224.86 214.9
819.816 204.31 191.64 174.81 149.47 120.17 93.78 73.89 62.35 56.82 51.88
839.106 46.92 43.27 40.45 36.79 32.36 28.77 25.42 22.52 20.8 19.4
858.395 18.22 17.64 18.15 19.05 19.56 20.14 20.35 20.98 21.87 22
877.685 22.39 22.66 22.59 21.92 21.02 20.93 20.54 19.63 18.98 18.53
896.975 17.57 16.38 15.22 13.98 13.27 12.81 12.35 11.91 12.12 12.55
916.265 12.14 11.67 11.07 10.47 9.74 8.87 9.04 9.08 9.04 9.53
935.555 9.67 10.01 10.35 10.48 10.83 11.54 11.85 11.74 12.02 11.96
954.844 11.94 12.27 12 11.67 11.09 10.78 10.95 10.41 9.96 9.81
974.134 9.37 8.71 7.84 7.71 8.19 8.38 9.12 9.63 10 11.15
993.424 12.22 13.15 13.82 13.94 13.33 13.06 13.58 14.02 14.2 13.56
1012.714 12.68 11.54 10.09 8.89 7.94 7.17 6.12 5.87 6.35 6.34
1032.003 6.12 5.3959 4.64 4.79589 5.0899 5.1831 5.2029 4.9619 3.938 3.977
1051.293 4.501 4.446 4.418 4.274 4.437 3.977 3.939 3.946 4.6631 5.6437
1070.583 5.5429 5.2493 5.2334 4.82 4.8714 6 6.08 5.94 6.58 7
1089.873 7.7 7.21 6.95 8.15 7.96 8.11 8.19 8.34 8.15 7.84
1109.163 7.92 6.9 5.7192 5.96 6.94 7.13 6.76 6.69 6.16 4.8785
1128.452 5.0654 6.57 6.69 6.17 6.18 5.6978 4.72246 4.331 5.0965 6.37
1147.742 6.65 6.39 6.12 5.78 5.4318 4.6556 5.0331 5.88 6.65 6.49
1167.032 5.6754 5.6464 5.3434 5.2409 4.551 3.57 3.722 4.164 3.49 3.1
1186.322 4.109 4.588 3.818 2.24 1.61 2.6 2.96 1.94 0.86 1.16
1205.611 1.33 0.69 0.09 0.89 1.86 1.28 1.31 0.71 0.09 0.41
1224.901 1.65 2.19 1.96 1.33 1.17 2.02 2.4 2.05 1.88 2.35
1244.191 1.46 1.22 1.96 1.57 1.34 1.15 0.66 0.37 0.46 1.04
1263.481 1.15 0.74 0.29 0 0.52 0.76 0.86 0.85 0.4 0.84
1282.771 1.17 1.17 1.5 1.45 1.39 1.7 1.98 2.23 2.39 2.31
1302.060 2.46 2.81 3.13 3.2 3.37 3.69 3.932 3.967 3.989 4.133
1321.350 4.136 4.109 4.325 4.469 4.452 4.454 4.586 4.76544 4.80195 4.8524
1340.640 4.8702 5.0311 5.0743 5.0811 5.4764 5.7155 5.88 6.31 6.8 6.97
1359.930 6.98 7.01 6.75 6.55 6.33 6.13 6.09 5.95 5.94 6.01
1379.219 5.89 5.93 6.02 5.95 5.89 5.89 5.97 6.05 5.97 5.9
1398.509 5.78 5.6051 5.5457 5.5362 5.5785 5.6588 5.4581 5.2211 5.2585 5.3306
1417.799 5.2871 5.3006 5.3374 5.1588 5.2154 5.3704 5.3701 5.2492 5.1271 5.1311
1437.089 5.2413 5.1953 5.2417 5.3932 5.2855 5.2863 5.3193 5.3003 5.4605 5.5073
1456.378 5.4664 5.5146 5.3009 5.2867 5.5 5.602 5.4905 5.5198 5.5919 5.4569
1475.668 5.4177 5.5896 5.76 5.8 5.86 5.9 5.94 6.09 6.11 6.11
1494.958 6.33 6.26 6.2 6.43 6.42 6.07 6.11 6.22 6.12 6.13
1514.248 6.24 6.45 6.44 6.49 6.59 6.55 6.6 6.6 6.83 7.06
1533.538 7 7.22 7.44 7.44 7.39 7.37 7.27 7.33 7.72 7.92
1552.827 8.03 8.26 8.5 8.3 8.33 8.63 8.69 8.68 8.62 8.73
1572.117 9.08 9.25 9.3 9.27 9.44 9.52 9.37 9.55 9.81 10.09
1591.407 10.33 10.4 10.39 10.67 10.77 10.75 10.99 11.07 10.93 10.92
1610.697 10.89 10.92 10.98 10.83 10.63 10.81 10.92 10.54 10.06 9.58
1629.986 9.23 8.49 8 7.83 7.56 7.29 7.26 7.1 6.81 6.77
1649.276 6.56 6.37 6.14 6.21 6.45 6.39 6.04 5.92 5.94 5.78
1668.566 5.93 5.98 5.87 5.93 6.12 6.22 6.22 6.36 6.63 6.99
1687.856 7.37 7.68 8.09 8.59 9.25 9.75 10.21 11.18 11.81 12.55
1707.146 13.42 13.98 14.47 14.77 14.8 14.76 14.79 14.73 14.82 14.94
1726.435 14.62 14.2 13.63 12.84 12.2 11.78 11.64 11.68 12.04 12.71
1745.725 13.3 13.98 14.87 15.84 16.8 17.85 19.23 20.73 22.25 23.94
1765.015 25.84 28.24 31.12 34.08 37.65 41.7 46.49 51.88 58 64.94
1784.305 72.42 80.79 90.01 100.18 111.06 122.61 134.55 146.29 156.85 166.22
1803.594 173.28 178.01 180.74 182.19 182.33 180.46 177.9 175.56 173.46 170.01
1822.884 163.64 153.66 140.41 125.58 110.11 96.17 83.66 72.26 62.54 53.89
1842.174 46.1 39.1 33.04 28.1 23.96 20.45 17.59 15.53 13.7 12.24
1861.464 11.12 10.09 9.32 8.7 8.19 7.89 7.47 7.13 7.04 6.78
1880.754 6.48 6.33 6.26 6.24 6 5.82 5.74 5.72 5.78 5.86
1900.043 6.1 6.1 5.94 5.84 5.94 6.06 5.96 5.9 5.86 5.74
1919.333 5.6354 5.631 5.6409 5.4078 5.3685 5.5397 5.4621 5.3742 5.3646 5.3164
1938.623 5.3895 5.551 5.5876 5.75 5.79 5.5795 5.5615 5.75 6.01 6.16
1957.913 6.19 6.21 6.15 6.14 6.13 5.99 5.87 5.96 6.08 6.05
1977.202 6.05 6.08 5.93 6.03 6.13 6.04 6.17 6.26 6.22 6.48
1996.492 6.91 7.28 7.69 8.09 8.74 9.49 10.66 11.94 13.39 15.32
2015.782 17.5 20.11 22.93 26.05 29.56 33.32 37.55 42.17 47.12 52.08
2035.072 56.59 61.21 65.66 68.75 70.84 72.83 73.12 71.57 69.79 66.53
2054.362 62.38 59.94 58.44 56.62 58.52 67.95 79.92 89.14 94.49 95.71
2073.651 92.91 86.26 76.44 64.29 51.42 39.02 28.22 19.64 13.42 9.46
2092.941 7.42 6.56 6.28 6.59 6.53 6.18 5.96 5.93 5.81 5.649
2112.231 5.573 5.6345 5.6519 5.519 5.4785 5.2414 5.065 5.2215 5.2462 5.2641
2131.521 5.4341 5.3016 5.1793 5.1017 5.0144 5.0331 5.0872 5.0044 4.9674 5.0197
2150.810 5.0104 5.1329 5.095 5.0071 5.0548 5.0533 5.1144 5.0149 5.0584 5.2191
2170.100 5.2458 5.2526 5.2138 5.2061 5.2471 5.343 5.3845 5.1465 5.0162 5.0931
2189.390 5.093 5.2096 5.0977 4.9276 5.2735 5.3633 5.1241 5.0268 5.1511 5.2348
2208.680 5.1211 5.0944 5.0826 5.0586 4.926 4.6934 4.8791 4.9967 4.9102 4.9311
2227.970 4.8566 4.8212 4.78231 4.75294 4.77738 4.8241 4.75423 4.6209 4.577 4.493
2247.259 4.449 4.353 4.361 4.373 4.53 4.74855 4.572 4.532 4.484 4.553
2266.549 4.6258 4.551 4.451 4.428 4.562 4.457 4.567 4.73733 4.8571 4.9955
2285.839 4.9184 4.75482 4.75147 4.995 5.1254 5.168 5.2228 5.3317 5.3985 5.3233
2305.129 5.2904 5.478 5.4933 5.5463 5.6574 5.5495 5.5214 5.6315 5.83 5.74
2324.418 5.5422 5.5524 5.75 5.78 5.75 5.76 5.6957 5.76 5.85 5.6478
2343.708 5.4703 5.429 5.4776 5.7175 5.91 6.05 5.98 5.89 5.89 6.14
2362.998 6.37 6.41 6.32 6.05 5.99 6.05 5.93 5.84 5.6668 5.3665
2382.288 5.3226 5.2568 5.1743 5.2305 5.3243 5.2688 5.0207 4.8494 4.9189 5.02
2401.578 5.1674 5.189 4.9987 5.1045 4.9548 4.7842 4.9768 4.9267 4.79252 4.9165
2420.867 4.9657 4.8398 4.72904 4.577 4.591 4.953 5.256 5.206 4.8877 4.6778
2440.157 4.7189 4.75524 4.81678 4.77249 4.75666 4.84 4.80267 4.6936 4.6741 4.8367
2459.447 4.79105 4.78663 4.9263 4.8908 4.6949 4.6452 4.6758 4.8235 4.9479 4.77123
2478.737 4.78291 5.0742 5.1555 4.8727 4.6831 4.8751 4.919 4.7099 4.71112 4.604
2498.026 4.72653 4.616 4.556 5.0145 5.1412 4.947 4.924 5.115 5.0807 4.8914
2517.316 4.80487 4.9338 4.9072 4.833 4.8726 4.9192 4.6904 4.42 4.82 5.1625
2536.606 5.1107 5.14 5.1489 5.1672 5.0385 4.9337 4.9942 5.0071 5.0848 5.1063
2555.896 5.1081 5.0398 4.863 4.79508 4.8973 5.1303 5.3136 5.3729 5.1461 4.9918
2575.186 5.1075 5.0261 4.8638 4.9381 4.9277 4.9546 5.0403 4.972 5.1478 5.2897
2594.475 5.1686 5.1248 5.1444 4.9168 5.1137 5.7068 5.5118 5.2106 5.3975 5.4986
2613.765 5.4094 5.2268 5.1627 5.1521 5.1079 5.5171 5.77 5.271 5.0473 5.2325
2633.055 5.3924 5.6742 5.4442 4.9761 4.9774 5.1129 5.3205 5.3979 5.4211 5.6346
2652.345 5.5888 5.2876 5.1511 5.2033 5.2338 4.8771 4.81242 5.0635 5.2891 5.3136
2671.634 5.2696 5.4055 5.7019 5.7177 5.0344 4.9001 4.9697 4.9066 5.1162 4.888
2690.924 4.8244 5.0734 4.975 4.9284 4.9706 6 6.96 6.11 5.1953 5.0932
2710.214 5.1543 5.0484 4.9681 5.1195 5.2548 5.0999 5.247 5.74 6.51 6.78
2729.504 5.75 5.3268 5.3738 5.2769 5.0435 4.6582 4.6939 4.79719 4.8403 5.2369
2748.794 6.05 7.28 6.81 5.4097 4.9141 4.8202 5.0388 4.9443 4.8406 5.0551
2768.083 5.1774 5.2307 5.78 7.17 7.4 5.83 5.204 5.0818 5.1317 5.1559
2787.373 5.0136 5.2046 5.4365 5.4404 5.78 7.33 7.56 5.84 5.1238 5.3328
2806.663 5.5677 5.3059 4.71557 4.9752 5.2976 5.5162 6.34 7.57 7.14 5.349
2825.953 5.0071 5.2566 5.0915 4.938 4.9454 5.0978 5.2654 5.5301 6.55 7.34
2845.242 6.29 5.3457 5.4471 5.4885 5.1657 4.9941 5.1332 5.2627 5.576 6.25
2864.532 6.55 5.79 5.4675 5.5021 5.489 5.5256 5.3856 5.7152 5.6076 5.4721
2883.822 5.5013 5.3625 5.6587 5.89 6.06 6.38 6.32 6.16 5.88 5.76
2903.112 6.17 7.08 6.98 5.96 5.6436 6.06 6.22 5.85 5.79 6
2922.401 6.68 7.59 7.52 6.23 5.95 6.06 5.75 5.94 5.93 5.76
2941.691 6.54 7.88 7.37 5.77 5.3341 5.3429 5.3282 5.3606 5.5622 5.99
2960.981 7.03 7.55 6.03 5.3478 5.81 5.6212 5.5839 5.5012 5.3109 6.34
2980.271 7.77 6.45 5.0006 5.0467 5.2966 5.5795 5.5485 5.88 6.94 7.44
2999.561 6.03 5.3366 5.2135 5.3234 5.81 5.93 6.39 7.21 6.67 5.2152
3018.850 5.5707 6.04 5.5678 5.4761 5.6711 6.3 6.23 5.2949 5.0713 5.1345
3038.140 5.2259 5.3364 5.4268 6.07 6.12 5.3784 5.0908 4.8628 4.9349 5.304
3057.430 6.04 6.47 5.5693 5.2992 5.6636 5.529 5.7096 5.95 5.7169 5.344
3076.720 5.3121 5.6566 5.5311 5.2067 5.5401 5.74 5.5541 5.2147 5.1451 5.4272
3096.009 5.4996 5.2536 5.2353 5.1928 4.948 5.1603 5.2048 5.2389 5.395 5.3439
3115.299 5.1009 5.068 4.79329 4.578 4.9609 4.9232 5.242 5.5959 5.4936 5.3484
3134.589 5.2175 4.76794 4.647 5.1297 5.3526 5.1286 4.9096 5.2471 5.3259 5.1477
3153.879 4.9228 4.8991 5.2706 5.5596 5.3545 5.2338 5.3324 4.8793 4.582 4.80563
3173.169 4.9837 4.995 4.9224 5.1388 5.4717 5.4382 5.3109 5.1194 5.3333 5.2091
3192.458 4.81252 5.0668 5.1827 4.9583 4.78495 4.81243 5.0401 5.1806 5.4954 5.96
3211.748 5.582 5.2154 5.0903 5.0748 5.2804 5.4981 5.6364 5.1057 4.903 5.3327
3231.038 5.3498 5.1375 4.78125 4.9695 5.3194 4.7003 4.72376 5.0483 4.9075 4.962
3250.328 4.79374 5.0111 5.09 4.9032 5.0757 4.8672 4.6806 4.569 4.74639 4.9253
3269.617 4.9903 5.2296 5.3917 5.2325 4.906 5.1804 5.597 5.77 5.5259 5.0569
3288.907 4.8993 5.4899 5.9 6 5.73 4.971 4.9253 4.8409 4.9358 5.235
3308.197 5.1677 5.2687 5.3918 5.347 5.2444 5.1583 5.1507 5.2824 5.6103 5.5794
3327.487 5.2073 5.1484 5.2629 5.0377 4.6676 4.504 5.0235 5.7123 5.5462 5.1385
3346.777 4.9128 4.9966 5.3572 5.4956 5.1293 5.1277 5.2215 5.0413 5.2985 5.1579
3366.066 4.7875 5.0512 5.3604 5.2335 4.9643 4.75739 4.8308 5.1104 5.304 5.1943
3385.356 5.4785 5.4728 5.2936 5.0618 4.447 4.6236 4.80908 4.9143 5.1948 5.2656
3404.646 5.514 5.4366 5.0879 5.0192 4.74314 4.9877 5.4478 5.5083 5.5659 5.2652
3423.936 5.2475 5.2941 5.128 5.4438 5.4938 5.5233 5.4495 5.144 5.4562 5.4957
3443.225 5.5966 5.6481 5.3025 5.0455 5.4877 5.88 5.3793 5.1235 5.0996 4.8969
3462.515 5.0237 5.2789 5.2208 4.9804 4.9349 5.3217 5.3196 5.0774 4.8554 4.78653
3481.805 4.8619 5.2393 5.3046 4.695 4.6349 5.0424 5.0127 4.9334 5.261 4.8856
3501.095 4.81411 5.1442 4.6873 4.76384 5.1968 4.9557 4.71586 5.1045 5.2394 4.8855
3520.385 5.0768 5.1418 5.4892 5.4495 4.9982 5.2191 4.9737 4.592 4.587 4.8792
3539.674 5.2984 5.5174 5.86 5.95 5.405 5.5884 5.83 5.7002 5.5496 5.2997
3558.964 5.2497 5.4762 5.94 6.03 5.92 5.87 6.02 6.18 6.43 6.9
3578.254 6.84 6.8 6.99 6.84 6.96 7.08 7.14 6.96 6.48 6.73
3597.544 6.99 7.12 6.77 6.46 6.64 6.8 6.85 6.96 7.01 6.61
3616.833 6.55 6.5 6.38 6.31 6.03 6.13 6.41 5.99 5.5447 5.79
3636.123 5.62 5.5855 5.82 5.81 5.9 5.91 5.84 5.4536 5.2641 5.0356
3655.413 4.80757 4.8296 5.0505 5.2078 5.0563 5.2752 5.2399 5.0642 5.1145 5.0459
3674.703 4.8297 4.9735 5.2041 5.2236 5.1133 4.581 4.454 4.528 4.8995 5.3536
3693.993 5.2701 5.2405 5.3487 5.3047 5.3153 5.467 5.2484 5.3134 5.0479 4.6544
3713.282 4.9441 5.0155 4.6896 4.81822 5.0002 4.8303 4.79835 4.76876 5.278 5.5602
3732.572 5.3344 5.2498 5.0057 4.75485 5.0545 5.1122 4.81797 5.0527 5.2602 5.1895
3751.862 5.0423 4.9303 4.9884 4.81128 5.1661 5.6285 5.4044 5.001 4.6235 4.373
3771.152 4.76838 5.2772 5.0636 4.6851 4.6411 4.506 4.74092 4.9851 5.003 5.0222
3790.441 4.71269 4.71872 4.8432 5.0238 5.0501 4.9816 4.9121 5.0433 5.0059 4.549
3809.731 4.71987 5.1251 5.1784 5.0981 4.879 4.8833 5.196 4.9808 4.9176 5.1337
3829.021 5.1928 5.3646 5.5148 5.327 4.9086 4.9562 5.2505 5.396 5.1835 4.8727
3848.311 5.1738 5.4047 5.285 5.6104 5.3943 4.7099 4.635 4.8671 4.9005 5.2714
3867.601 5.4598 5.0319 4.615 4.589 4.78528 5.0185 5.0626 5.0818 5.2974 5.1365
3886.890 4.9164 4.9994 5.1913 5.2956 5.1452 5.2732 4.9422 4.76679 5.1956 5.2409
3906.180 5.263 5.2189 4.9814 5.1571 5.6786 5.3359 4.6613 4.446 4.625 5.2955
3925.470 5.5072 4.8078 4.75882 5.2571 4.81809 4.604 4.6424 4.448 4.172 3.953
3944.760 4.524 5.1127 4.8275 4.8454 5.0869 4.551 4.75768 5.4068 5.3768 4.9665
3964.049 4.9211 5.0748 4.6651 4.532 5.1696 5.1041 4.43 4.246 4.8233 5.2295
3983.339 5.1727 5.1783 5.3111 5.6615 5.5517 5.0056 4.9871 5.6081 5.5233 5.4956
##END=
