##TITLE=2,3,4,5,6-Pentafluorobenzhydrol
##JCAMP-DX=4.24
##DATA TYPE=INFRARED SPECTRUM
##ORIGIN=EPA-IR VAPOR PHASE LIBRARY
##OWNER=SRD/NIST
Collection (C) 2018 copyright by the U.S. Secretary of Commerce
on behalf of the United States of America. All rights reserved.
##CAS REGISTRY NO=27599-16-2
##MOLFORM=C 13 H 7 F 5 O
##$NIST SOURCE=MSDC-IR
##STATE=gas
##XUNITS=1/CM
##YUNITS=ABSORBANCE
##XFACTOR=1.
##YFACTOR=0.001
##DELTAX=1.92898
##FIRSTX=549.8
##LASTX=4000.7
##FIRSTY=10.39
##MAXX=4000.7
##MINX=549.759
##MAXY=1.49839
##MINY=0.0004315
##NPOINTS=1790
##XYDATA=(X++(Y..Y))
549.759 10.39 10.7 11.07 11.37 11.61 11.93 12.39 13.39 15.46 19.12
569.049 25.68 34.46 41.74 46.77 48 45.1 38.98 30.37 23.63 20.33
588.339 19.55 20.65 22.22 24.84 28.39 33.39 40.57 49.66 61.05 72.66
607.628 81.68 86.57 87.8 86.17 82.39 77.86 75.43 76.14 78.9 82.79
626.918 88.41 96.12 105.53 117.14 130.09 143.21 156.01 166.09 170.92 170.87
646.208 165.42 155.27 142.76 128.64 114.74 102.5 92.37 84.55 78.92 74.78
665.498 71.99 70.66 70.58 72.09 75.13 79.45 85.31 92.93 102.16 113.28
684.787 125.99 140.24 155.72 171.58 185.97 195.56 197.83 192.53 180.77 164.5
704.077 147.11 130.81 115.63 102.36 90.88 80.76 72.55 65.86 61.03 58.05
723.367 57.03 58.16 61.56 67.19 74.17 81.17 86.73 90.16 91.55 91.67
742.657 90.76 88.87 86 82.43 78.62 74.81 71.13 68.12 66.37 65.27
761.947 65.65 68.17 72.49 79.16 88.81 101.34 115.1 126.48 131.96 130.13
781.236 121.14 105.64 86.41 68.35 54.27 44.37 37.87 33.5 29.92 26.93
800.526 24.78 23.09 21.57 20.34 19.64 19.26 19.3 19.85 20.54 21.74
819.816 23.54 26 29.39 34 39.41 45.07 50.44 54.17 55.69 54.79
839.106 51.24 46.13 40.93 36.16 32.05 28.45 25.65 23.99 22.65 21.8
858.395 21.49 20.98 20.34 19.91 19.5 19.06 18.99 18.62 18.13 18.07
877.685 18.21 18.45 18.78 19.22 19.78 20.14 20.63 21.41 22.11 22.94
896.975 24.03 25.14 26.25 27.73 29.66 31.75 34.07 37.01 40.62 44.52
916.265 48.79 53.72 59.55 66.15 73.92 84.06 97.21 114.05 136.26 165.25
935.555 201.43 243.32 287.18 327.73 355.44 363.69 351.74 321.25 279.28 234.89
954.844 195.04 163.81 141.76 127.51 119.53 115.87 115.68 118.43 123.62 132.22
974.134 145.57 164.53 191.44 228.7 279.02 344.96 425.99 519.67 618.74 711.01
993.424 778.73 811.08 801.18 747.31 660.55 554.87 452.11 365.77 301.27 259.51
1012.714 234.61 221.75 217.23 217.57 221.91 228.39 234.2 237.9 238.38 235.18
1032.003 230.96 229.04 229.51 231.39 234.18 235.09 233.1 226.8 215.11 199.51
1051.293 182.79 166.27 150.12 135.76 123.62 113.8 105.31 98.4 93.46 89.93
1070.583 87.22 85.04 83.87 83.59 83.51 83.18 83.12 82.49 81.44 81.55
1089.873 83.1 86.1 90.86 99.13 111.11 126.58 146.55 172.74 206.13 247.42
1109.163 296.7 354.38 421.18 491.99 557.96 614.05 646.45 646.38 610.77 544.02
1128.452 461.95 376.49 303.38 249.64 214.41 194.43 182.86 173.98 164.51 151.55
1147.742 136.53 121.12 105.57 92.87 83.99 77.95 74.03 70.94 68.59 68.28
1167.032 68.78 69.57 71.43 73.69 76.49 80.77 86.14 90.53 93.36 94.85
1186.322 94.31 92.16 87.69 82.62 78.62 74.29 70.53 67.33 64.22 62
1205.611 60.88 61.82 64.5 66.96 69.68 72.74 76.34 80.35 84.03 87.39
1224.901 89.84 91.03 91 90.31 89.07 87.13 84.93 82.82 81.17 79.72
1244.191 78.9 78.15 76.92 75.69 74.49 73.17 71.22 70.13 70.02 69.96
1263.481 70.62 71.91 73.6 75.68 77.93 80.01 81.95 83.73 85.43 87.23
1282.771 89.37 91.88 94.98 99.21 104.96 112.03 120.39 130.07 141.5 153.73
1302.060 165.22 174.69 180.15 181.09 177.86 171.39 163.13 155 148.5 143.77
1321.350 140.5 138.32 136.78 135.39 133.72 131.77 129.55 127.09 124.42 121.68
1340.640 119.07 116.42 113.96 111.74 109.6 107.48 105.4 103.33 101.26 99.28
1359.930 97.5 95.95 94.66 93.75 93.17 92.83 92.78 93.24 94.37 95.97
1379.219 98.31 101.58 105.65 110.19 114.81 119.33 123.12 125.85 127.57 128.34
1398.509 128.29 128.02 128.05 129.07 131.58 135.86 141.49 147.02 150.54 150.28
1417.799 145.32 135.42 122.28 108.01 94.78 84.28 77.13 73.14 71.5 71.67
1437.089 73.34 76.34 80.34 85.18 90.53 95.78 100.32 103.58 105.5 106.14
1456.378 106.17 106.68 108.58 112.64 119.71 130.22 144.55 163.31 187.06 216.44
1475.668 251.14 292.85 341.34 399.02 468.88 553.83 657.93 783.67 929.62 1085.13
1494.958 1230.64 1352.34 1438.64 1489.65 1498.39 1462.27 1391.68 1317.36 1251.42 1211.66
1514.248 1203.31 1204.3 1184.82 1122.21 1011.26 863.03 689.97 523.66 386.22 284.37
1533.538 212.84 164.06 132.04 109.2 93 81.5 72.98 66.68 62.16 58.62
1552.827 55.9 53.92 52.57 51.44 50.53 49.66 48.8 48.25 47.68 47.17
1572.117 47.01 47.14 47.7 48.68 49.87 51.29 52.63 53.52 53.78 53.55
1591.407 53.33 53.12 53.35 53.96 54.51 54.59 53.76 52.17 49.96 47.59
1610.697 45.38 43.64 42.64 42.23 42.46 43.18 44.73 47.34 50.84 55.22
1629.986 60.68 67.68 76.39 87.54 101.3 116.88 133.05 147.29 157.31 160.89
1649.276 156.26 143.89 124.81 103.78 83.92 66.38 52.72 42.49 35.24 29.97
1668.566 26.1 23.16 20.9 19.13 17.9 17 16.3 15.83 15.5 15.37
1687.856 15.33 15.33 15.48 15.49 15.24 14.8 14.25 13.71 13.34 12.94
1707.146 12.56 12.56 12.87 13.24 13.77 14.38 14.92 15.21 15.36 15.25
1726.435 15.01 14.75 14.42 14.15 13.87 13.71 13.68 13.69 13.74 13.71
1745.725 13.79 13.89 13.75 13.63 13.49 13.15 12.75 12.4 12.01 11.67
1765.015 11.36 11.13 11.05 10.99 10.92 10.9 10.99 11.04 11.24 11.61
1784.305 12.03 12.78 13.89 15.07 16.35 17.54 18.33 18.47 17.86 16.64
1803.594 14.95 13.17 11.45 10.06 9.06 8.17 7.58 7.15 6.81 6.58
1822.884 6.3 5.99 5.68 5.32 5.01 4.79 4.59 4.43 4.29 4.18
1842.174 4.14 4.27 4.52 4.73 5.04 5.49 5.9 6.42 6.92 7.47
1861.464 8.14 8.62 9.11 9.64 10.09 10.39 10.63 10.86 11.03 11.09
1880.754 11.16 11.25 11.18 11.18 11.23 11.21 11.06 10.56 9.74 8.8
1900.043 7.9 7.05 6.24 5.65 5.35 5.25 5.24 5.22 5.35 5.44
1919.333 5.61 5.94 6.27 6.59 6.88 7.17 7.47 8.03 8.73 9.3
1938.623 9.9 10.41 10.74 11.08 11.28 11.28 11.23 11.24 11.38 11.6
1957.913 11.66 11.59 11.2 10.37 9.24 7.96 6.74 5.59 4.73 4.33
1977.202 4.1 3.96 3.91 3.92 3.99 4.02 3.99 3.97 3.95 3.89
1996.492 3.82 3.78 3.91 4.04 3.97 3.83 3.79 3.7 3.5 3.34
2015.782 3.17 2.94 2.86 2.93 3.01 3.08 3.07 3.06 3.04 3.14
2035.072 3.22 3.23 3.32 3.44 3.51 3.6 3.83 4.08 4.28 4.5
2054.362 4.82 5.03 5.3 5.67 6 6.4 6.96 7.49 7.86 8.2
2073.651 8.54 8.75 8.74 8.64 8.61 8.51 8.35 8.08 7.97 7.91
2092.941 7.67 7.37 6.85 6.4 6.07 5.59 5.21 4.94 4.77 4.68
2112.231 4.51 4.47 4.49 4.49 4.48 4.52 4.59 4.59 4.63 4.8
2131.521 4.95 5.04 5.03 4.97 4.81 4.57 4.31 3.97 3.67 3.49
2150.810 3.35 3.2 3.07 2.89 2.79 2.78 2.76 2.75 2.66 2.62
2170.100 2.61 2.53 2.48 2.48 2.49 2.55 2.51 2.46 2.45 2.44
2189.390 2.47 2.42 2.52 2.64 2.64 2.7 2.87 3.05 3.18 3.29
2208.680 3.51 3.81 4.1 4.38 4.67 4.91 4.98 5.01 4.99 4.84
2227.970 4.6 4.4 4.12 3.98 3.96 3.74 3.63 3.55 3.36 3.35
2247.259 3.37 3.24 3.17 3.14 3.06 3.01 2.98 2.97 2.93 2.9
2266.549 2.95 2.97 2.92 2.85 2.82 2.93 3.02 3.01 2.95 2.88
2285.839 2.83 2.78 2.84 2.82 2.73 2.7 2.67 2.61 2.5 2.49
2305.129 2.56 2.62 2.78 3.09 3.37 3.62 3.81 3.89 3.81 3.66
2324.418 3.37 3.25 3.29 3.21 3.36 3.6 3.83 4.01 4.15 4.41
2343.708 4.7 4.9 4.95 4.99 5.18 5.37 5.53 5.57 5.55 5.6
2362.998 5.65 5.69 5.62 5.65 5.74 5.84 5.95 6.03 6.2 6.42
2382.288 6.56 6.82 7.18 7.53 7.88 8.13 8.41 8.81 9.18 9.52
2401.578 9.88 10.18 10.36 10.54 10.73 10.81 10.79 10.78 10.66 10.52
2420.867 10.35 10.19 10.09 10.04 10.1 10.04 10.03 10.13 10.23 10.4
2440.157 10.53 10.61 10.6 10.62 10.64 10.44 10.17 9.88 9.43 9.01
2459.447 8.67 8.18 7.75 7.36 6.89 6.54 6.33 5.93 5.51 5.26
2478.737 5.04 4.89 4.75 4.68 4.59 4.37 4.27 4.4 4.5 4.46
2498.026 4.44 4.5 4.61 4.64 4.7 4.8 4.87 4.92 4.89 4.81
2517.316 4.65 4.55 4.52 4.41 4.3 4.14 4.05 4.12 4.08 3.99
2536.606 3.99 4.05 4.02 3.95 4.03 4.14 4.16 4.2 4.32 4.41
2555.896 4.33 4.22 4.25 4.26 4.18 4.27 4.39 4.25 4.18 4.29
2575.186 4.31 4.25 4.43 4.65 4.73 4.79 4.96 5.07 5.11 5.44
2594.475 5.77 6.03 6.31 6.58 6.88 7.12 7.49 7.97 8.32 8.78
2613.765 9.31 9.73 10.17 10.47 10.94 11.47 11.83 12.26 12.7 12.96
2633.055 13.3 13.48 13.51 13.52 13.33 13.11 12.84 12.34 11.7 11.07
2652.345 10.4 9.93 9.43 8.68 8.05 7.52 6.91 6.27 5.7 5.08
2671.634 4.58 4.26 3.91 3.61 3.39 3.19 3.08 3.06 2.95 2.8
2690.924 2.7 2.67 2.72 2.81 2.86 2.93 2.86 2.88 2.88 2.87
2710.214 2.95 3.05 3.06 3.05 3.14 3.12 2.93 2.88 3.1 3.12
2729.504 2.96 2.87 3.04 3 2.88 2.94 3.05 3.15 3.09 3.11
2748.794 3.18 3.26 3.41 3.54 3.55 3.65 3.68 3.78 3.93 3.89
2768.083 3.97 4.01 4.04 4.05 3.91 3.82 3.77 3.71 3.65 3.44
2787.373 3.27 3.22 3.14 3.05 3.03 2.9 2.65 2.51 2.44 2.51
2806.663 2.57 2.62 2.65 2.57 2.61 2.67 2.69 2.64 2.61 2.63
2825.953 2.65 2.74 2.76 2.68 2.62 2.62 2.66 2.66 2.62 2.68
2845.242 2.72 2.83 3.05 3.06 2.99 3.04 3.08 3.28 3.61 3.81
2864.532 3.83 4.04 4.13 4.18 4.54 4.74 5 5.35 5.64 5.87
2883.822 6.17 6.43 6.83 7.34 7.74 8.1 8.46 8.84 9.31 9.85
2903.112 10.38 10.86 11.28 11.84 12.48 13.01 13.56 14.29 15.1 15.85
2922.401 16.56 17.43 18.21 18.91 19.48 19.68 19.68 19.64 19.27 18.65
2941.691 18.19 17.71 17.18 16.66 16.11 15.62 15.21 14.75 14.18 13.7
2960.981 13.27 12.61 11.89 11.01 10.15 9.57 9.02 8.55 8.04 7.53
2980.271 7.3 7.11 6.96 6.88 6.76 6.87 7 7.37 7.87 8.28
2999.561 8.9 9.75 10.79 12.25 13.91 15.29 16.87 18.98 21.45 24.2
3018.850 27.49 31.6 36.5 42.04 48.37 55.39 62.31 68.24 72.65 75.28
3038.140 75.56 73.4 69.67 64.95 60.05 55.94 52.72 50.7 49.97 50.5
3057.430 52.37 55.87 61.04 67.95 76.82 87.52 98.91 108.74 114.51 114.83
3076.720 109.48 99.53 87.4 75.62 66.35 60.39 57.02 55.2 53.75 51.96
3096.009 49.67 46.75 43.27 39.84 36.37 32.75 29.68 26.99 24.33 21.77
3115.299 19.1 16.49 14.09 11.99 10 8.29 7.29 6.56 5.89 5.18
3134.589 4.57 4.24 3.99 3.68 3.43 3.31 3.19 2.94 2.86 3
3153.879 2.93 2.71 2.63 2.47 2.41 2.65 2.82 2.76 2.59 2.48
3173.169 2.42 2.22 1.76 1.48 1.4 1.32 1.36 1.17 0.9777 1.07
3192.458 1.08 1.05 0.9318 0.8246 0.7632 0.6953 0.8171 0.9982 1.04 0.9506
3211.748 0.793 0.6019 0.601 0.6456 0.6514 0.628 0.547 0.6728 0.813 0.8946
3231.038 0.7892 0.6779 0.7588 0.6158 0.4315 0.4938 0.5135 0.6631 0.7605 0.8475
3250.328 0.9215 0.749 0.7196 0.8437 0.8442 0.655 0.6704 0.8799 0.8197 0.7803
3269.617 1.04 1.08 1.13 1.16 1.32 1.43 1.28 1.33 1.46 1.53
3288.907 1.47 1.43 1.5 1.51 1.42 1.33 1.28 1.44 1.59 1.57
3308.197 1.59 1.55 1.57 1.56 1.46 1.54 1.55 1.55 1.51 1.39
3327.487 1.57 1.71 1.56 1.6 1.65 1.62 1.64 1.54 1.49 1.49
3346.777 1.48 1.68 1.91 1.83 1.7 1.76 1.72 1.6 1.75 1.9
3366.066 1.9 1.82 1.78 1.8 1.84 1.89 1.82 1.8 1.89 1.98
3385.356 1.99 2.12 2.23 2.16 2.12 2.08 2.29 2.47 2.35 2.2
3404.646 2.16 2.25 2.24 2.32 2.54 2.4 2.24 2.17 2.16 2.23
3423.936 2.3 2.43 2.45 2.54 2.46 2.34 2.28 2.28 2.5 2.37
3443.225 2.26 2.29 2.31 2.42 2.48 2.46 2.45 2.4 2.32 2.41
3462.515 2.5 2.44 2.45 2.55 2.59 2.48 2.51 2.64 2.55 2.45
3481.805 2.52 2.48 2.34 2.34 2.31 2.24 2.38 2.59 2.29 2.03
3501.095 2.26 2.24 2.14 2.29 2.19 1.96 1.9 2.02 2.08 1.97
3520.385 1.89 1.78 1.79 1.93 2.06 1.95 1.84 1.9 1.97 2.01
3539.674 1.93 1.94 1.91 1.68 1.57 1.64 1.67 1.84 1.85 1.77
3558.964 1.73 1.67 1.8 1.95 2.13 2.23 2.19 2.19 2.17 2.1
3578.254 2.25 2.35 2.4 2.5 2.47 2.76 3.28 3.56 3.79 4.08
3597.544 4.46 4.97 5.5 6.15 6.78 7.24 7.89 8.77 9.94 11.43
3616.833 13.1 15.4 18.65 22.66 27.55 32.94 39.02 45.87 52.32 58.77
3636.123 65.28 71.65 77.69 83.28 88.01 91.12 92.06 90.62 86.99 81.28
3655.413 74.08 65.96 57.46 49.08 41.49 34.92 29.47 24.95 21.01 17.96
3674.703 15.61 13.37 11.58 10.4 9.37 8.41 7.67 6.93 6.23 5.75
3693.993 5.43 4.95 4.54 4.39 4.2 4.01 3.86 3.83 3.65 3.35
3713.282 3.02 2.87 2.96 2.9 2.6 2.44 2.57 2.64 2.6 2.58
3732.572 2.51 2.29 2.07 1.99 2.08 2.28 2.36 2.26 2.1 2.02
3751.862 2.19 2.35 2.46 2.43 2.28 2.45 2.43 2.38 2.54 2.43
3771.152 2.5 2.52 2.49 2.66 2.6 2.46 2.45 2.37 2.45 2.6
3790.441 2.56 2.48 2.54 2.76 2.73 2.66 2.8 2.77 2.83 2.95
3809.731 2.97 2.84 2.74 2.89 2.85 2.99 3.2 3.12 3.04 2.93
3829.021 2.92 2.88 2.81 2.74 2.67 2.83 2.89 2.87 2.88 2.9
3848.311 2.88 2.83 2.8 2.88 3.07 3.03 3 2.97 2.96 3.14
3867.601 3.28 3.13 3.01 3.09 3.09 3.38 3.47 3.5 3.56 3.24
3886.890 3.06 3.02 3.06 3.15 3.09 3.1 3.25 3.15 2.87 2.79
3906.180 2.98 2.97 2.65 2.72 2.81 2.57 2.69 2.85 2.73 2.7
3925.470 2.7 2.67 2.66 2.46 2.43 2.57 2.46 2.42 2.28 2.1
3944.760 2.2 2.18 2.12 2.16 2.18 2.27 2.32 2.17 2 2.09
3964.049 2.23 2.17 1.94 1.91 1.93 1.95 1.97 1.89 1.82 1.72
3983.339 1.84 1.79 1.67 1.69 1.47 1.44 1.62 1.65 1.66 1.59
##END=
