##TITLE=1-Benzylpiperazine
##JCAMP-DX=4.24
##DATA TYPE=INFRARED SPECTRUM
##ORIGIN=EPA-IR VAPOR PHASE LIBRARY
##OWNER=SRD/NIST
Collection (C) 2018 copyright by the U.S. Secretary of Commerce
on behalf of the United States of America. All rights reserved.
##CAS REGISTRY NO=2759-28-6
##MOLFORM=C 11 H 16 N 2
##$NIST SOURCE=MSDC-IR
##STATE=gas
##XUNITS=1/CM
##YUNITS=ABSORBANCE
##XFACTOR=1.
##YFACTOR=0.001
##DELTAX=1.92934
##FIRSTX=549.9
##LASTX=3999.5
##FIRSTY=15.44
##MAXX=3999.53
##MINX=549.863
##MAXY=0.60456
##MINY=0
##NPOINTS=1789
##XYDATA=(X++(Y..Y))
549.863 15.44 16.44 17.52 18.69 19.93 21.17 22.31 23.38 24.77 26.61
569.156 28.95 31.79 35.51 40.1 44.86 48.88 51.38 52.43 52.51 51.96
588.450 51.03 49.97 49.42 49.83 51.46 54.32 57.96 60.75 61.48 60.73
607.743 58.82 55.64 50.99 45.05 38.86 33.27 28.66 25.15 22.68 21.01
627.037 19.84 18.85 18.11 17.78 17.76 18 18.34 18.71 19.11 19.44
646.330 19.71 19.95 20.4 21.1 21.95 23.19 24.77 26.57 28.53 30.69
665.624 32.99 35.41 37.68 39.82 42.43 45.71 50.04 56.06 64.38 75.57
684.917 90.14 108.42 129.97 152.47 172.14 186.86 196.88 201.45 198.5 187.44
704.210 171.75 155.03 139.47 126.74 117.72 112.91 112.68 117.24 126.52 140.13
723.504 157.49 177.71 199.49 220.86 239.16 252.43 260.35 263.35 261.85 256.82
742.797 249.99 244.36 242.55 245.52 253.28 264.99 279 293.06 304.08 309.22
762.091 306.93 296.64 278.89 255.16 227.72 198.92 171.07 146.28 125.73 109.87
781.384 98.4 90.73 86.2 84.22 84.21 85.35 86.91 88.02 88.02 86.38
800.678 83.01 78.32 72.83 67.05 61.47 56.71 52.96 50.04 47.59 45.32
819.971 43.01 40.46 37.72 34.94 32.22 29.62 27.32 25.39 23.85 22.65
839.264 21.66 20.87 20.23 19.72 19.42 19.27 19.12 19.01 18.98 18.98
858.558 19.03 19.13 19.27 19.51 19.89 20.46 21.17 22.06 23.2 24.66
877.851 26.35 28.21 30.24 32.26 34.22 36.05 37.84 39.81 42.23 45.41
897.145 49.7 55.06 60.73 65.52 68.72 70.43 70.48 68.2 63.04 55.97
916.438 48.93 42.73 37.22 32.08 27.58 24.09 21.55 19.85 18.67 17.78
935.732 17.12 16.6 16.2 15.77 15.3 14.89 14.52 14.28 14.22 14.25
955.025 14.41 14.7 15.16 15.82 16.65 17.67 18.94 20.53 22.5 24.79
974.318 27.35 30.08 32.94 36.01 39.31 42.94 47.31 53.19 61.02 70.66
993.612 81.35 91.87 101.69 111.26 120.58 128.83 133.86 133.57 128.12 119.55
1012.905 110.44 101.16 90.3 79.14 71.79 69.54 69.24 67.84 65.11 61.6
1032.199 57.32 51.19 43.45 37.04 33.67 33.05 34.45 37.32 41.28 45.79
1051.492 50.22 53.96 56.73 58.74 60.01 60.4 60.04 59.33 58.58 57.71
1070.786 56.36 54.43 51.93 48.9 45.55 42.18 39.28 37.3 36.38 36.54
1090.079 37.86 40.38 44.12 49.11 55.13 62.01 69.66 78.12 87.49 97.89
1109.372 109.38 122.25 137.02 154.11 173.1 193.01 212.95 232.13 249.7 264.49
1128.666 275.46 282.57 286.54 287.55 285.16 279.45 271.58 262.24 250.06 233.4
1147.959 212.64 189.41 165.42 141.97 120.31 101.8 87.05 75.68 67.19 61.12
1167.253 56.99 54.42 53.18 52.89 53.21 53.72 53.96 53.8 53.29 52.38
1186.546 51.03 49.34 47.47 45.65 43.91 42.13 40.18 38.1 35.88 33.5
1205.840 31.07 28.56 26.09 23.97 22.29 21.07 20.35 19.97 19.85 19.89
1225.133 19.97 20.07 20.2 20.37 20.63 21 21.55 22.38 23.56 25.15
1244.426 27.19 29.66 32.56 35.8 39.22 42.73 46.22 49.58 52.64 55.38
1263.720 57.91 60.3 62.63 65.01 67.4 69.72 71.95 73.89 75.35 76.21
1283.013 76.4 75.97 75.04 73.84 72.53 71.41 70.86 71.07 72.21 74.44
1302.307 77.96 83 89.61 97.75 107.21 117.75 129.02 140.54 151.56 160.55
1321.600 166.26 168.77 169.04 167.64 165.44 163.68 162.56 160.45 155.3 147.66
1340.894 139.23 130.61 120.52 109.27 100.86 98.29 101.81 110.08 120.24 128.16
1360.187 130.64 127.61 120.97 111.53 98.21 81.65 66.2 55.17 48.37 44.39
1379.480 41.9 40.21 38.93 37.77 36.51 35.03 33.46 31.9 30.2 28.41
1398.774 26.76 25.38 24.46 23.89 23.57 23.5 23.79 24.41 25.33 26.51
1418.067 28.03 29.97 32.32 35.33 39.07 43.57 49.16 55.84 63.9 73.5
1437.361 84.96 96.91 109.07 120.65 130.41 137.97 143.22 145.74 144.93 140.8
1456.654 133.67 124.61 114.46 103.03 90.62 78.07 66.65 56.8 48.76 42.35
1475.948 37.99 35.41 34.7 35.72 38.46 42.77 48.19 53.71 57.93 59.73
1495.241 59.01 56.05 51.25 44.59 36.75 29.19 22.66 17.93 14.85 12.73
1514.534 11.36 10.44 9.84 9.48 9.23 9.07 9.02 9.02 9.02 9.05
1533.828 9.03 8.9 8.77 8.67 8.55 8.41 8.2624 8.0967 8.0041 7.9471
1553.121 7.9623 8.0264 8.1137 8.37 8.71 9.03 9.45 9.93 10.42 10.99
1572.415 11.63 12.31 13.11 14.01 14.98 16.02 17.18 18.46 19.88 21.41
1591.708 22.88 24.22 25.31 26.11 26.55 26.48 25.87 24.71 23.11 21.23
1611.002 19.18 17.09 15.11 13.26 11.71 10.54 9.68 9.09 8.72 8.51
1630.295 8.39 8.4 8.43 8.48 8.54 8.53 8.44 8.3335 8.1647 7.903
1649.588 7.6089 7.3257 7.02 6.708 6.481 6.29 6.07 5.89 5.77 5.65
1668.882 5.51 5.42 5.34 5.29 5.27 5.24 5.22 5.2 5.15 5.2
1688.175 5.28 5.32 5.39 5.5 5.66 5.8 5.94 6.07 6.1 6.11
1707.469 6.12 6.1 6.05 6.02 6.01 6.03 6.01 5.99 6.05 6.16
1726.762 6.31 6.502 6.746 7.006 7.245 7.44862 7.6872 7.8797 8.0478 8.1455
1746.056 8.1071 8.0209 7.9136 7.6858 7.40791 7.185 6.964 6.779 6.625 6.518
1765.349 6.511 6.594 6.687 6.814 6.991 7.156 7.3271 7.5653 7.8901 8.2492
1784.642 8.68 9.26 10.05 11.03 12.13 13.25 14.23 14.99 15.4 15.43
1803.936 15.06 14.48 13.77 12.99 12.29 11.69 11.24 10.83 10.31 9.7
1823.229 9.03 8.3066 7.6536 7.164 6.83 6.605 6.45 6.37 6.394 6.477
1842.523 6.613 6.831 7.048 7.3434 7.7203 8.1004 8.56 9.08 9.65 10.2
1861.816 10.74 11.26 11.67 12.05 12.37 12.59 12.74 12.82 12.86 12.8
1881.110 12.63 12.37 11.99 11.5 10.95 10.37 9.81 9.32 8.98 8.76
1900.403 8.65 8.62 8.67 8.78 8.88 8.99 9.13 9.32 9.54 9.82
1919.696 10.14 10.55 11.06 11.64 12.3 13.04 13.79 14.55 15.35 16.02
1938.990 16.42 16.65 16.72 16.62 16.4 16.06 15.55 14.89 14.08 13.09
1958.283 11.97 10.77 9.59 8.44 7.4595 6.75 6.26 5.97 5.79 5.69
1977.577 5.62 5.58 5.52 5.44 5.36 5.31 5.22 5.11 5.01 4.93
1996.870 4.85 4.78 4.74 4.68 4.63 4.62 4.65 4.69 4.71 4.73
2016.164 4.78 4.84 4.88 4.89 4.9 4.92 4.95 4.97 4.97 4.97
2035.457 4.99 4.99 4.94 4.87 4.86 4.87 4.82 4.76 4.73 4.69
2054.750 4.65 4.62 4.57 4.53 4.49 4.43 4.36 4.33 4.33 4.31
2074.044 4.29 4.3 4.28 4.26 4.29 4.28 4.24 4.24 4.27 4.3
2093.337 4.32 4.32 4.34 4.41 4.42 4.44 4.47 4.49 4.5 4.52
2112.631 4.56 4.62 4.63 4.64 4.65 4.62 4.58 4.56 4.55 4.53
2131.924 4.49 4.46 4.47 4.46 4.46 4.48 4.47 4.48 4.5 4.51
2151.218 4.52 4.54 4.54 4.53 4.53 4.51 4.54 4.58 4.59 4.62
2170.511 4.62 4.63 4.65 4.68 4.72 4.74 4.73 4.76 4.78 4.77
2189.804 4.76 4.75 4.72 4.67 4.64 4.64 4.61 4.59 4.59 4.59
2209.098 4.62 4.63 4.64 4.67 4.71 4.77 4.87 4.98 5.07 5.18
2228.391 5.31 5.45 5.63 5.78 5.95 6.11 6.25 6.392 6.53 6.669
2247.685 6.755 6.83 6.88 6.898 6.934 6.946 6.973 6.998 6.953 6.899
2266.978 6.864 6.855 6.832 6.778 6.714 6.667 6.568 6.418 6.3 6.22
2286.272 6.13 6.07 6.01 5.94 5.92 5.94 6 6.12 6.3 6.494
2305.565 6.671 6.837 6.976 7.051 7.053 6.974 6.805 6.58 6.448 6.361
2324.858 6.28 6.28 6.3 6.3 6.29 6.27 6.24 6.2 6.15 6.09
2344.152 6.04 6 5.97 5.92 5.87 5.83 5.82 5.78 5.71 5.65
2363.445 5.6 5.54 5.5 5.43 5.29 5.18 5.12 5.07 5 4.92
2382.739 4.89 4.83 4.74 4.7 4.68 4.67 4.64 4.62 4.61 4.6
2402.032 4.65 4.67 4.69 4.72 4.76 4.82 4.85 4.9 4.93 4.97
2421.326 4.97 5.01 5.08 5.13 5.19 5.26 5.34 5.4 5.47 5.58
2440.619 5.67 5.78 5.92 6.02 6.14 6.28 6.399 6.506 6.621 6.742
2459.912 6.868 7.012 7.16 7.2803 7.3383 7.38032 7.42549 7.40382 7.3435 7.264
2479.206 7.186 7.14 7.074 7.059 7.122 7.187 7.2614 7.3341 7.41001 7.4954
2498.499 7.6114 7.7355 7.7971 7.8878 7.991 8.0688 8.1574 8.2356 8.2923 8.2644
2517.793 8.1821 8.1229 8.0288 7.8917 7.7092 7.5661 7.4716 7.35845 7.249 7.155
2537.086 7.081 7.027 7 6.977 6.955 6.998 7.072 7.151 7.204 7.2652
2556.380 7.40731 7.5785 7.7562 7.9512 8.141 8.3052 8.49 8.72 8.96 9.16
2575.673 9.39 9.64 9.92 10.21 10.49 10.79 11.03 11.3 11.61 11.85
2594.966 12.13 12.43 12.73 13.09 13.49 13.9 14.36 14.84 15.39 15.96
2614.260 16.58 17.25 18.02 18.9 19.86 20.88 22.03 23.25 24.49 25.8
2633.553 27.05 28.24 29.39 30.45 31.38 32.29 33.16 33.99 34.87 35.84
2652.847 36.87 37.94 39.05 40.27 41.55 42.83 44.13 45.41 46.61 47.67
2672.140 48.63 49.39 50.03 50.66 51.22 51.77 52.29 52.82 53.31 53.75
2691.434 54.13 54.35 54.46 54.6 54.83 55.23 55.92 56.96 58.39 60.25
2710.727 62.35 64.6 67.03 69.53 72.13 74.88 77.89 81.33 85.29 89.93
2730.020 95.25 101.21 107.89 115.14 122.68 130.39 138.09 145.54 152.72 159.42
2749.314 165.57 171.22 176.17 180.53 184.33 187.51 190.14 192.41 194.47 196.55
2768.607 199.09 202.39 206.79 212.54 219.8 228.5 238.62 249.8 261.6 273.96
2787.901 286.81 300.05 313.53 327.04 340.48 353.67 366.15 377.75 387.98 396.39
2807.194 402.92 407.16 409.02 408.7 406.5 402.96 398.41 393.01 386.57 378.53
2826.488 368.48 356.03 340.71 322.42 301.52 278.48 254.09 229.99 207.67 187.95
2845.781 171.2 157.64 147.04 138.89 133.06 129.16 126.58 125.17 124.66 124.76
2865.074 125.43 126.46 127.86 129.65 131.74 134.15 136.79 139.63 142.41 144.97
2884.368 147.49 150.02 152.52 155.1 157.91 160.97 164.46 168.66 173.69 179.64
2903.661 186.76 195.28 205.4 217.03 229.92 243.85 258.39 272.94 286.74 299.24
2922.955 310.16 319.52 327.68 335.37 343.37 353.06 366.05 383.62 407.15 438.24
2942.248 478.54 526.2 572.02 601.25 604.56 586.07 550.63 495.57 421.41 339.12
2961.542 264.19 204.12 157.67 121.99 94.9 74.77 60.21 49.77 42.33 37.09
2980.835 33.33 30.58 28.61 27.15 26.03 25.3 24.89 24.86 25.15 25.76
3000.128 26.75 27.97 29.57 31.55 33.9 36.85 40.65 45.35 51.23 58.57
3019.422 67.38 77.48 88.55 100.05 111.06 120.5 127.53 131.62 132.25 129.39
3038.715 123.53 115.38 105.94 96.33 87.57 80.4 75.47 73.44 74.71 79.38
3058.009 87.47 98.93 113.1 128.41 142.08 151.25 155.01 154.09 149.27 140.61
3077.302 128.14 114.18 102.01 92.95 86.46 81.14 76 70.77 65.39 59.78
3096.596 54.01 48.54 43.57 39.06 35.24 31.99 29.01 26.39 23.99 21.61
3115.889 19.24 16.94 14.82 12.91 11.22 9.78 8.59 7.5795 6.797 6.18
3135.182 5.57 5.13 4.86 4.56 4.31 4.17 4.11 4.06 4.02 3.99
3154.476 4 4.15 4.17 4.12 4.13 4.19 4.18 4.09 3.95 3.73
3173.769 3.57 3.29 2.96 2.76 2.61 2.54 2.49 2.44 2.43 2.48
3193.063 2.51 2.5 2.47 2.47 2.45 2.48 2.47 2.44 2.46 2.36
3212.356 2.23 2.22 2.1 2.06 2.08 1.85 1.68 1.63 1.64 1.66
3231.650 1.65 1.63 1.55 1.41 1.26 1.2 1.18 1.2 1.26 1.22
3250.943 1.07 0.98 1.04 1.08 1.07 1.12 1.09 1.06 1.05 1.03
3270.236 0.97 0.92 0.92 0.8 0.69 0.64 0.61 0.53 0.36 0.34
3289.530 0.43 0.49 0.42 0.32 0.27 0.21 0.19 0.27 0.42 0.6
3308.823 0.69 0.69 0.88 1.22 1.4 1.67 1.96 2.19 2.32 2.33
3328.117 2.38 2.37 2.13 1.75 1.53 1.41 1.18 0.92 0.73 0.55
3347.410 0.47 0.42 0.44 0.48 0.46 0.47 0.56 0.67 0.68 0.75
3366.704 0.83 0.86 0.89 0.83 0.88 0.95 0.89 0.78 0.71 0.76
3385.997 0.8 0.7 0.62 0.61 0.59 0.57 0.49 0.51 0.5 0.32
3405.290 0.27 0.35 0.38 0.39 0.38 0.36 0.44 0.45 0.45 0.57
3424.584 0.59 0.53 0.55 0.6 0.64 0.55 0.53 0.6 0.56 0.49
3443.877 0.4 0.36 0.34 0.25 0.19 0.04 0 0.05 0.08 0.11
3463.171 0.02 0 0.05 0.07 0.06 0.14 0.14 0.1 0.15 0.2
3482.464 0.23 0.27 0.28 0.22 0.14 0.2 0.4 0.47 0.43 0.39
3501.758 0.43 0.57 0.57 0.48 0.48 0.53 0.56 0.61 0.67 0.71
3521.051 0.79 0.77 0.78 0.85 0.83 0.79 0.76 0.79 0.85 0.91
3540.344 0.9 0.99 1.04 1.04 1.1 1.11 1.1 1.11 1.14 1.18
3559.638 1.23 1.18 1.07 1.07 1.14 1.16 1.14 1.01 0.95 0.97
3578.931 1.02 1.08 1.09 1.09 1.11 1.22 1.25 1.25 1.3 1.3
3598.225 1.38 1.43 1.37 1.37 1.49 1.6 1.6 1.64 1.66 1.63
3617.518 1.69 1.76 1.81 1.83 1.84 1.93 2.03 2.08 2.08 2.07
3636.812 2.14 2.21 2.21 2.36 2.56 2.6 2.6 2.67 2.72 2.75
3656.105 2.77 2.75 2.68 2.56 2.53 2.54 2.54 2.49 2.45 2.42
3675.398 2.37 2.35 2.39 2.45 2.5 2.49 2.49 2.49 2.57 2.71
3694.692 2.7 2.6 2.61 2.58 2.5 2.55 2.6 2.59 2.55 2.53
3713.985 2.49 2.37 2.31 2.3 2.31 2.38 2.35 2.29 2.24 2.17
3733.279 2.2 2.25 2.24 2.35 2.52 2.47 2.31 2.23 2.22 2.24
3752.572 2.19 2.23 2.32 2.33 2.3 2.3 2.35 2.31 2.35 2.41
3771.866 2.41 2.49 2.49 2.51 2.6 2.65 2.78 2.97 3.21 3.2
3791.159 2.93 2.89 2.94 2.96 2.99 2.95 2.94 2.96 2.94 2.94
3810.452 2.99 3 3.01 2.99 2.99 3.03 3.09 3.06 3.06 3.12
3829.746 3.17 3.31 3.55 3.42 3.24 3.28 3.29 3.29 3.25 3.32
3849.039 3.43 3.53 3.55 3.52 3.59 3.65 3.69 3.78 3.81 3.87
3868.333 3.91 3.85 3.81 3.92 4.16 4.26 4.11 3.96 3.92 3.91
3887.626 3.91 3.92 3.87 3.82 3.85 3.87 3.91 3.94 3.91 3.87
3906.920 3.87 3.92 3.94 3.95 4.07 4.18 4.33 4.49 4.47 4.43
3926.213 4.54 4.66 4.72 4.75 4.76 4.85 4.98 4.98 5.04 5.12
3945.506 5.1 5.08 5.03 4.98 4.88 4.8 4.79 4.72 4.61 4.53
3964.800 4.43 4.4 4.43 4.43 4.39 4.39 4.39 4.34 4.26 4.2
3984.093 4.16 4.19 4.23 4.23 4.2 4.21 4.31 4.42 4.52
##END=
