##TITLE=10-Undecynoic acid
##JCAMP-DX=4.24
##DATA TYPE=INFRARED SPECTRUM
##ORIGIN=NIST Mass Spectrometry Data Center
##OWNER=NIST Standard Reference Data Program
Collection (C) 2018 copyright by the U.S. Secretary of Commerce
on behalf of the United States of America. All rights reserved.
##CAS REGISTRY NO=2777-65-3
##MOLFORM=C 11 H 18 O 2
##$NIST SOURCE=MSDC-IR
##SPECTROMETER/DATA SYSTEM=HP-GC/MS/IRD
##STATE=gas
##XUNITS=1/CM
##YUNITS=ABSORBANCE
##XFACTOR=1.0
##YFACTOR=0.000001100
##DELTAX=4.0
##FIRSTX=550.0
##LASTX=3846.0
##FIRSTY=0.001531
##MAXX=3846
##MINX=550
##MAXY=0.011
##MINY=0
##NPOINTS=825
##XYDATA=(X++(Y..Y))
550.0 1392 1518 1614 1587 1527 1530 1538 1572 1601 1653
590.0 1728 1784 1850 1927 2041 2255 2649 3168 3857 4977
630.0 6582 7244 6203 4633 3309 2353 1674 1229 1016 873
670.0 699 590 546 525 490 465 492 488 462 486
710.0 523 539 555 538 499 472 428 401 356 297
750.0 280 234 208 230 216 175 174 166 127 106
790.0 95 106 102 91 76 36 17 10 53 70
830.0 29 0 26 74 79 76 94 103 101 111
870.0 94 79 84 96 93 88 105 95 102 108
910.0 119 140 108 94 106 101 68 81 106 79
950.0 83 110 104 93 132 151 148 165 197 234
990.0 265 310 354 397 428 444 488 522 528 548
1030.0 583 630 682 751 861 976 1101 1260 1488 1781
1070.0 2069 2370 2669 2908 3055 3154 3240 3304 3456 3722
1110.0 4145 4625 5041 5256 5147 4775 4272 3813 3493 3231
1150.0 3007 2822 2655 2496 2350 2220 2092 1983 1863 1728
1190.0 1611 1535 1456 1367 1306 1253 1185 1144 1133 1138
1230.0 1158 1260 1507 1827 2088 2167 2004 1683 1408 1221
1270.0 1109 1016 933 880 873 858 835 815 812 829
1310.0 828 840 868 885 918 953 990 1060 1130 1193
1350.0 1279 1346 1384 1413 1441 1459 1467 1455 1419 1324
1390.0 1190 1026 876 766 680 626 605 619 681 768
1430.0 858 954 1045 1089 1083 1104 1149 1181 1159 1031
1470.0 826 629 481 353 265 212 146 122 115 92
1510.0 96 81 62 56 60 59 50 21 23 56
1550.0 58 26 0 35 50 31 5 31 62 34
1590.0 35 40 34 31 35 50 28 10 28 43
1630.0 44 22 31 46 31 14 33 70 70 81
1670.0 95 114 152 155 152 194 213 222 297 380
1710.0 444 529 653 833 1047 1276 1568 1951 2420 2955
1750.0 3542 4231 5035 5994 7138 8310 9247 9513 8910 7718
1790.0 6380 5218 4281 3468 2752 2126 1616 1216 925 698
1830.0 548 450 376 326 279 239 206 182 166 149
1870.0 141 133 115 97 91 87 86 90 89 84
1910.0 78 79 87 94 84 69 63 61 60 63
1950.0 62 59 60 50 51 49 54 68 49 33
1990.0 44 47 36 34 31 31 36 44 58 53
2030.0 41 46 45 38 43 55 50 46 44 40
2070.0 47 52 50 51 62 78 106 144 175 216
2110.0 265 286 300 300 253 179 127 94 67 56
2150.0 52 52 48 42 38 38 42 54 59 54
2190.0 48 46 50 35 32 49 46 36 34 39
2230.0 39 26 28 31 36 34 19 23 28 29
2270.0 29 31 29 27 28 21 21 27 33 42
2310.0 54 54 44 43 44 37 26 36 50 36
2350.0 32 34 32 31 38 38 28 12 7 13
2390.0 11 7 1 7 21 24 22 13 21 34
2430.0 19 10 13 16 17 17 22 17 15 16
2470.0 12 19 15 12 21 22 23 23 17 18
2510.0 24 31 34 27 37 47 40 25 17 28
2550.0 27 16 10 11 14 17 29 21 20 25
2590.0 23 30 38 35 29 28 29 46 60 58
2630.0 58 64 69 69 67 61 69 85 97 103
2670.0 96 98 118 127 122 110 110 121 121 114
2710.0 102 89 78 95 102 85 81 84 94 116
2750.0 103 109 116 91 103 129 132 129 139 147
2790.0 158 189 230 253 260 288 319 356 403 458
2830.0 539 641 764 966 1252 1636 2167 2781 3312 3612
2870.0 3547 3221 2783 2378 2118 1976 1972 2105 2400 2868
2910.0 3484 4225 5094 6109 7267 8424 9388 9974 10000 9390
2950.0 8174 6628 5119 3872 2933 2260 1785 1434 1183 1012
2990.0 836 683 575 498 434 370 331 314 263 235
3030.0 229 223 217 179 153 140 127 115 125 116
3070.0 92 100 107 97 86 106 101 61 64 72
3110.0 56 60 70 56 49 64 84 81 51 29
3150.0 43 46 33 19 19 41 51 45 59 63
3190.0 63 64 52 45 52 46 30 34 33 40
3230.0 56 67 71 61 54 78 111 137 176 176
3270.0 175 207 254 314 390 472 530 617 825 1050
3310.0 1179 1227 1335 1750 2195 2246 1752 1074 682 504
3350.0 426 355 270 197 176 158 121 90 68 75
3390.0 66 50 42 31 29 17 27 41 24 6
3430.0 18 26 31 38 18 18 23 19 21 24
3470.0 37 49 51 46 50 78 94 80 65 69
3510.0 113 142 142 149 154 170 217 258 292 359
3550.0 471 610 857 1287 1993 3013 3736 3523 2538 1536
3590.0 953 646 452 316 237 177 136 120 93 92
3630.0 107 118 97 48 33 35 45 40 14 1
3670.0 19 23 12 36 33 3 26 47 37 42
3710.0 68 86 85 72 48 31 40 44 26 15
3750.0 1 1 1 1 6 18 40 50 41 54
3790.0 52 42 35 34 34 32 26 1 21 36
3830.0 23 34 16 14 56
##END=
