##TITLE=Ethyl-2-hexenoate
##JCAMP-DX=4.24
##DATA TYPE=INFRARED SPECTRUM
##ORIGIN=EPA-IR VAPOR PHASE LIBRARY
##OWNER=SRD/NIST
Collection (C) 2018 copyright by the U.S. Secretary of Commerce
on behalf of the United States of America. All rights reserved.
##CAS REGISTRY NO=27829-72-7
##MOLFORM=C 8 H 14 O 2
##$NIST SOURCE=MSDC-IR
##STATE=gas
##XUNITS=1/CM
##YUNITS=ABSORBANCE
##XFACTOR=1.
##YFACTOR=0.001
##DELTAX=3.85796
##FIRSTX=501.5
##LASTX=4000.7
##FIRSTY=0.48
##MAXX=4000.7
##MINX=501.534
##MAXY=0.134026
##MINY=0
##NPOINTS=908
##XYDATA=(X++(Y..Y))
501.534 0.48 0.187 0.243 0.237 0.145 0.295 0.6041 0.7588 0.625011 0.5628
540.114 0.6018 0.5261 0.369 0.315 0.296 0.291 0.271 0.129 0.164 0.278
578.693 0.203 0.073 0 0.133 0.091 0.109 0.265 0.222 0.285 0.337
617.273 0.379 0.453 0.373 0.335 0.5372 0.6492 0.5832 0.5905 0.6586 0.7646
655.852 0.9256 1.2251 1.488 1.706 1.916 2.236 2.716 3.146 3.546 3.956
694.432 4.276 4.526 4.626 4.576 4.436 4.346 4.186 3.796 3.506 3.346
733.011 3.146 2.936 2.816 2.686 2.606 2.626 2.676 2.766 2.936 3.136
771.591 3.256 3.316 3.186 3.086 3.056 2.876 2.786 2.736 2.746 2.916
810.170 3.106 3.436 3.866 4.216 4.566 4.986 5.276 5.546 5.836 5.936
848.750 6.066 6.086 5.916 5.736 5.646 5.516 5.196 4.896 4.576 4.366
887.330 4.276 4.076 3.846 3.656 3.526 3.486 3.466 3.566 3.826 4.206
925.909 4.706 5.356 6.046 6.706 7.366 8.136 9.056 10.226 11.746 13.616
964.489 15.736 17.926 20.036 21.446 21.536 20.356 18.266 15.746 13.316 11.496
1003.068 10.496 10.196 10.566 11.696 13.816 17.016 21.136 25.926 31.146 36.166
1041.648 40.596 44.126 45.606 44.266 40.286 34.606 29.036 24.706 21.566 19.466
1080.227 18.396 18.326 19.156 20.686 22.606 24.386 26.036 28.246 31.406 34.856
1118.807 37.006 36.526 33.146 28.196 23.736 21.536 21.936 24.726 30.216 38.976
1157.387 52.126 70.196 91.256 110.006 119.776 116.186 100.546 79.266 59.966 46.546
1195.966 38.676 34.866 33.676 34.476 37.016 40.716 44.566 47.526 49.106 49.546
1234.546 50.536 53.856 60.426 70.346 82.096 92.246 97.156 94.836 85.606 72.496
1273.125 59.476 49.256 43.116 40.976 41.356 42.886 44.776 46.636 48.346 49.726
1311.705 49.946 47.906 43.296 37.096 30.976 26.476 23.836 21.856 19.646 17.146
1350.284 14.806 13.506 14.086 16.946 20.316 21.736 21.096 18.206 14.516 12.406
1388.864 11.516 10.886 10.236 9.566 8.896 8.306 7.906 7.706 7.736 7.976
1427.443 8.386 8.976 9.676 10.386 11.076 11.726 12.246 12.646 13.096 13.536
1466.023 13.686 13.336 12.346 10.876 9.226 7.736 6.516 5.566 4.846 4.256
1504.603 3.826 3.516 3.266 3.066 2.916 2.786 2.676 2.586 2.546 2.526
1543.182 2.476 2.406 2.386 2.406 2.426 2.386 2.366 2.376 2.386 2.386
1581.762 2.416 2.446 2.466 2.536 2.606 2.706 2.896 3.146 3.466 3.966
1620.341 4.656 5.586 6.816 8.596 11.246 14.946 19.686 24.996 29.406 31.386
1658.921 29.986 25.616 20.116 15.666 12.876 11.236 10.376 10.136 10.446 11.246
1697.500 12.436 14.116 16.486 20.086 25.636 34.206 46.756 63.916 85.716 109.266
1736.080 127.686 134.026 127.906 108.536 82.006 58.796 41.096 28.226 19.676 14.236
1774.659 10.836 8.676 7.206 6.156 5.376 4.746 4.256 3.866 3.566 3.316
1813.239 3.106 2.916 2.716 2.546 2.396 2.276 2.156 2.056 1.976 1.906
1851.819 1.876 1.846 1.806 1.806 1.826 1.836 1.846 1.856 1.866 1.916
1890.398 1.966 1.966 1.956 1.916 1.836 1.756 1.676 1.5994 1.5496 1.4862
1928.978 1.4405 1.4154 1.3747 1.3292 1.3182 1.3006 1.2773 1.278 1.2502 1.2312
1967.557 1.2414 1.2545 1.252 1.2663 1.2535 1.2121 1.2029 1.189 1.1506 1.1346
2006.137 1.1338 1.1382 1.1715 1.2332 1.2622 1.2988 1.3634 1.4405 1.4878 1.499
2044.716 1.5122 1.5085 1.4831 1.4206 1.3575 1.3082 1.282 1.2649 1.2612 1.2756
2083.296 1.3053 1.303 1.2707 1.2775 1.3017 1.2987 1.2927 1.2986 1.3155 1.3278
2121.875 1.3335 1.3094 1.254 1.232 1.1942 1.1181 1.0833 1.0689 1.0254 1.0064
2160.455 1.0008 1.0183 1.0457 1.0455 1 0.9816 1.0037 0.9648 0.9519 0.9459
2199.035 0.9275 0.9228 0.9112 0.9214 0.8968 0.8678 0.8823 0.8786 0.8663 0.9033
2237.614 0.9447 0.9251 0.8951 0.8928 0.9153 0.92 0.9219 0.9385 0.9515 0.9537
2276.194 0.9365 0.933 0.903 0.8723 0.8723 0.8822 0.8759 0.8587 0.8621 0.8356
2314.773 0.8294 0.8583 0.8631 0.8948 0.9548 0.9741 0.9752 1.0073 1.0139 0.9756
2353.353 0.9617 0.9564 0.9204 0.8929 0.8839 0.8315 0.7827 0.7815 0.808 0.8251
2391.932 0.8146 0.7797 0.8042 0.8315 0.8207 0.8517 0.8458 0.8169 0.8368 0.8126
2430.512 0.7385 0.7263 0.7335 0.7692 0.7862 0.7576 0.7677 0.7784 0.7741 0.7831
2469.092 0.763 0.76 0.7665 0.7512 0.7426 0.7369 0.7727 0.8113 0.7926 0.7844
2507.671 0.8035 0.7615 0.7277 0.7465 0.7391 0.7425 0.7627 0.7672 0.7801 0.7695
2546.251 0.773 0.7949 0.7755 0.7525 0.7424 0.736 0.7334 0.7538 0.7736 0.7719
2584.830 0.7764 0.7861 0.8062 0.8317 0.8293 0.8237 0.8373 0.843 0.8363 0.8211
2623.410 0.8144 0.7853 0.7858 0.8463 0.8416 0.8393 0.8753 0.8812 0.8677 0.8926
2661.989 0.9218 0.9513 0.9683 0.9681 0.9982 1.0347 1.0931 1.1036 1.0723 1.0954
2700.569 1.1368 1.0831 1.0242 1.0389 1.0635 1.1065 1.1642 1.2162 1.2933 1.3842
2739.148 1.4651 1.5279 1.5682 1.5991 1.5993 1.626 1.706 1.736 1.766 1.876
2777.728 2.016 2.096 2.156 2.246 2.296 2.326 2.456 2.626 2.756 2.966
2816.308 3.246 3.576 3.926 4.326 4.866 5.506 6.206 7.016 7.966 8.916
2854.887 9.846 10.816 11.956 13.606 15.866 18.636 21.576 23.886 24.786 24.516
2893.467 23.496 22.576 22.546 23.346 24.606 26.006 27.586 29.516 32.306 36.366
2932.046 41.596 47.246 51.706 53.086 51.346 48.146 45.306 44.686 46.856 51.036
2970.626 55.336 57.576 57.536 54.306 48.096 41.336 34.636 28.576 23.856 20.206
3009.205 17.256 14.726 12.566 10.866 9.566 8.586 7.886 7.326 6.916 6.726
3047.785 6.606 6.526 6.366 6.086 5.726 5.186 4.626 4.116 3.646 3.216
3086.364 2.896 2.636 2.446 2.366 2.266 2.136 2.026 1.946 1.906 1.866
3124.944 1.736 1.636 1.646 1.636 1.5785 1.5421 1.5096 1.5161 1.4964 1.4131
3163.524 1.3586 1.3337 1.3395 1.3246 1.273 1.2094 1.1968 1.1857 1.1614 1.1278
3202.103 1.092 1.0798 0.9921 0.9093 0.8974 0.8599 0.8111 0.8485 0.8495 0.7166
3240.683 0.6857 0.7188 0.69011 0.697 0.69186 0.65176 0.624253 0.60996 0.61489 0.620521
3279.262 0.63774 0.625116 0.582 0.5805 0.5763 0.5534 0.551 0.5561 0.5889 0.5998
3317.842 0.57 0.5636 0.5843 0.5981 0.5883 0.60644 0.64619 0.68324 0.67723 0.65313
3356.421 0.63898 0.65374 0.63191 0.65928 0.719 0.66132 0.69245 0.8532 0.8889 0.8418
3395.001 0.8402 0.801 0.7523 0.7556 0.7289 0.67353 0.68308 0.69745 0.69271 0.7664
3433.580 0.8535 0.9875 1.1582 1.2817 1.3901 1.5796 1.756 1.806 1.806 1.746
3472.160 1.6022 1.3864 1.2243 1.0689 0.9967 0.9594 0.882 0.7749 0.71547 0.7185
3510.740 0.7194 0.68598 0.5926 0.5263 0.478 0.46 0.452 0.465 0.508 0.5842
3549.319 0.5846 0.496 0.462 0.476 0.456 0.464 0.488 0.5295 0.5415 0.453
3587.899 0.477 0.5641 0.60648 0.5436 0.495 0.496 0.446 0.471 0.44 0.386
3626.478 0.478 0.5738 0.5194 0.484 0.49 0.5 0.5687 0.5628 0.494 0.453
3665.058 0.466 0.477 0.501 0.61109 0.65352 0.6018 0.5962 0.5502 0.5429 0.5689
3703.637 0.5513 0.5798 0.619236 0.62059 0.5786 0.5324 0.502 0.486 0.5446 0.63381
3742.217 0.67002 0.66509 0.62763 0.620488 0.5818 0.5892 0.68003 0.69865 0.65509 0.68207
3780.797 0.7281 0.7573 0.7319 0.7256 0.7848 0.69992 0.66546 0.67662 0.61186 0.6038
3819.376 0.61487 0.63266 0.66437 0.68017 0.70812 0.742 0.63525 0.5203 0.5991 0.6568
3857.956 0.5915 0.6076 0.65517 0.66463 0.65919 0.66248 0.70706 0.68527 0.64635 0.65087
3896.535 0.61449 0.5766 0.5725 0.5798 0.61373 0.619747 0.5848 0.5945 0.63138 0.64504
3935.115 0.67768 0.7508 0.68943 0.63967 0.69071 0.70713 0.69901 0.67588 0.7317 0.7567
3973.694 0.7562 0.7542 0.7849 0.9065 0.9221 0.8505 0.8199 0.7938
##END=
