##TITLE=3-Ethoxybenzhydrazide
##JCAMP-DX=4.24
##DATA TYPE=INFRARED SPECTRUM
##ORIGIN=EPA-IR VAPOR PHASE LIBRARY
##OWNER=SRD/NIST
Collection (C) 2018 copyright by the U.S. Secretary of Commerce
on behalf of the United States of America. All rights reserved.
##CAS REGISTRY NO=27830-16-6
##MOLFORM=C 9 H 12 N 2 O 2
##$NIST SOURCE=MSDC-IR
##STATE=gas
##XUNITS=1/CM
##YUNITS=ABSORBANCE
##XFACTOR=1.
##YFACTOR=0.001
##DELTAX=1.92898
##FIRSTX=549.8
##LASTX=4000.7
##FIRSTY=1.96
##MAXX=4000.7
##MINX=549.759
##MAXY=0.03188
##MINY=0.00005944
##NPOINTS=1790
##XYDATA=(X++(Y..Y))
549.759 1.96 1.7 1.91 1.83 1.62 1.71 1.66 1.64 1.87 2
569.049 1.81 1.77 1.9 2 2.04 1.91 1.62 1.61 1.63 1.58
588.339 1.7 1.82 1.82 1.9 1.97 1.96 1.77 1.65 1.62 1.55
607.628 1.67 1.52 1.33 1.47 1.56 1.6 1.52 1.52 1.61 1.51
626.918 1.37 1.03 0.9908 1.21 1.18 1.16 1.24 1.36 1.36 1.27
646.208 1.28 1.52 1.41 1.23 1.27 1.29 1.38 1.46 1.61 1.87
665.498 2.02 1.84 1.96 2.29 2.69 3.11 3.37 3.64 3.97 4.34
684.787 4.57 4.69 4.48 4.06 3.74 3.58 3.43 3.15 2.71 2.43
704.077 2.26 2.1 2.12 2.07 2.05 2.01 1.97 1.93 1.88 1.85
723.367 1.88 2.01 2.28 2.55 2.75 3.09 3.48 3.88 4.24 4.58
742.657 5.01 5.44 5.55 5.52 5.55 5.4 5.08 4.63 4.26 4.11
761.947 3.94 3.47 3.29 3.34 3.07 2.98 3.14 3.29 3.47 3.69
781.236 4.05 4.16 4.27 4.54 4.92 5.26 5.28 5.26 5.14 4.91
800.526 4.85 4.85 4.65 4.76 4.73 4.26 4.26 4.29 4.1 3.84
819.816 3.64 3.59 3.41 3.16 2.92 2.74 2.7 2.68 2.69 2.69
839.106 2.51 2.64 2.76 2.79 3.07 3.05 2.93 3.02 3.1 3.13
858.395 3.24 3.33 3.54 3.54 3.66 4.09 4.26 4.23 4.42 4.69
877.685 4.81 5.12 5.31 5.54 5.68 5.6 5.79 6.07 6.22 6.41
896.975 6.85 7.35 7.67 8.01 8.45 8.94 9.39 9.72 10.11 10.47
916.265 10.66 10.8 10.94 10.87 10.58 10.09 9.75 9.3 8.64 7.96
935.555 7.13 6.62 6.2 5.59 5.2 4.9 4.53 4.43 4.42 4.38
954.844 4.39 4.54 4.6 4.7 4.85 4.85 4.9 4.74 4.52 4.36
974.134 3.9 3.5 3.3 3.06 2.84 2.76 2.49 2.26 2.33 2.27
993.424 2.36 2.34 2.25 2.4 2.43 2.24 2.24 2.49 2.43 2.4
1012.714 2.58 2.65 2.94 3.22 3.46 3.74 4.06 4.54 5.24 5.96
1032.003 6.63 7.69 8.25 8.75 9.68 10.32 10.6 10.93 10.89 10.61
1051.293 10.73 10.15 9.21 8.22 7.02 5.95 5.48 5.33 4.72 4.16
1070.583 3.95 4 4.05 3.93 3.98 3.99 4.17 4.2 4.34 4.91
1089.873 5.12 4.77 4.78 4.8 4.8 4.32 3.79 4.19 4.12 4.07
1109.163 3.97 3.87 3.79 3.97 4.18 3.71 3.28 3.14 3.24 3.31
1128.452 3.04 2.85 3.05 3.11 3.4 4.16 4.4 4.63 5.28 5.86
1147.742 6.31 6.62 7.07 7.47 7.38 6.95 6.19 5.77 5.45 4.89
1167.032 4.24 3.87 3.61 3.29 3.12 2.87 2.73 2.65 2.42 2.41
1186.322 2.83 2.84 2.58 2.5 2.78 3.06 3.19 3.48 3.74 4.08
1205.611 4.25 4.64 5.38 6.42 7.12 8.04 9.6 10.75 12 13.39
1224.901 15.15 16.61 17.3 17.74 17.79 17.64 17.61 17.35 16.48 15.36
1244.191 14.38 13.64 12.91 12.28 11.78 11.41 11.34 11.6 12.31 13.19
1263.481 14.15 15.54 17.38 19.25 21.17 23.1 24.93 26.71 28.3 29.69
1282.771 30.72 31.46 31.88 31.8 31.4 30.49 28.83 26.49 23.92 21.43
1302.060 19.17 17.24 15.74 14.59 13.64 12.81 12.11 11.38 10.64 10
1321.350 9.3 8.59 7.98 7.38 6.77 6.19 5.64 5.22 4.84 4.54
1340.640 4.23 3.94 3.73 3.54 3.38 3.23 3.11 3.03 2.95 2.86
1359.930 2.83 2.88 2.9 2.87 2.88 2.96 3.05 3.11 3.28 3.54
1379.219 3.79 4.11 4.48 4.88 5.38 5.84 6.24 6.61 6.81 6.84
1398.509 6.77 6.62 6.52 6.44 6.3 6.29 6.41 6.64 6.96 7.34
1417.799 7.87 8.5 9.24 10.15 11.11 12.12 13.21 14.36 15.61 16.88
1437.089 18.2 19.53 20.91 22.28 23.59 24.94 26.09 26.79 27.1 27.08
1456.378 26.63 25.8 24.79 23.56 22.37 21.32 20.36 19.57 18.82 18.19
1475.668 17.61 17.06 16.54 16.03 15.59 15.04 14.4 13.71 12.98 12.17
1494.958 11.38 10.58 9.77 9.04 8.36 7.63 6.91 6.36 5.85 5.3
1514.248 4.84 4.5 4.25 4.05 3.8 3.59 3.46 3.38 3.23 3.07
1533.538 2.97 2.96 2.91 2.88 2.91 2.99 3.08 3.12 3.18 3.3
1552.827 3.47 3.62 3.86 4.23 4.82 5.45 6.09 6.92 7.89 9.05
1572.117 10.42 11.85 13.4 14.79 15.85 16.65 16.97 16.91 16.63 16.16
1591.407 15.57 15.15 14.8 14.38 14.14 13.88 13.51 13.05 12.45 11.79
1610.697 10.95 10.12 9.35 8.57 8 7.68 7.56 7.49 7.54 7.72
1629.986 7.9 8.03 8.1 8.08 7.94 7.7 7.37 6.93 6.39 5.91
1649.276 5.5 5.11 4.79 4.64 4.62 4.62 4.66 4.68 4.82 5.14
1668.566 5.43 5.74 6.06 6.47 7 7.58 8.24 8.98 9.98 11.32
1687.856 13.07 15.36 18.01 20.76 23.58 25.87 27.18 27.78 27.48 26.21
1707.146 23.79 20.38 16.76 13.71 11.44 9.82 8.64 7.91 7.38 6.97
1726.435 6.66 6.25 5.81 5.33 4.82 4.4 3.92 3.51 3.16 2.8
1745.725 2.5 2.27 2.13 1.99 1.86 1.78 1.71 1.63 1.56 1.49
1765.015 1.46 1.42 1.35 1.3 1.23 1.16 1.15 1.15 1.11 1.13
1784.305 1.13 1.08 1.09 1.09 1.06 1.02 0.931 0.9129 0.9266 0.8976
1803.594 0.8793 0.8606 0.8262 0.7767 0.7909 0.8522 0.8931 0.8715 0.8142 0.7987
1822.884 0.776 0.7877 0.8013 0.7633 0.7432 0.7555 0.759 0.7576 0.7517 0.7465
1842.174 0.7735 0.7733 0.8015 0.85 0.828 0.8024 0.8181 0.7415 0.7341 0.7347
1861.464 0.7098 0.7442 0.693 0.6578 0.634 0.6225 0.6485 0.6706 0.6539 0.6427
1880.754 0.6557 0.6146 0.6169 0.6536 0.643 0.6219 0.5623 0.578 0.6689 0.6741
1900.043 0.6434 0.6537 0.7034 0.6991 0.7249 0.7695 0.765 0.7731 0.7819 0.7946
1919.333 0.76 0.7812 0.8322 0.8214 0.8217 0.84 0.8664 0.8758 0.8618 0.8091
1938.623 0.7296 0.6587 0.6158 0.6144 0.6357 0.6432 0.6222 0.6039 0.589 0.5482
1957.913 0.5185 0.5186 0.4668 0.5049 0.6213 0.6067 0.5285 0.5325 0.5302 0.5211
1977.202 0.5622 0.5408 0.4829 0.4384 0.4371 0.4796 0.4926 0.49 0.4633 0.4411
1996.492 0.4492 0.4414 0.476 0.5006 0.5271 0.5365 0.4842 0.484 0.5479 0.5433
2015.782 0.4587 0.4557 0.4741 0.4675 0.4693 0.4772 0.5437 0.562 0.5614 0.5651
2035.072 0.525 0.5219 0.5104 0.4945 0.5047 0.5564 0.5695 0.4868 0.5193 0.5373
2054.362 0.495 0.533 0.5382 0.5156 0.4994 0.4802 0.4786 0.4943 0.4838 0.4369
2073.651 0.4596 0.5256 0.5164 0.4424 0.4429 0.4504 0.4245 0.4296 0.4301 0.4599
2092.941 0.4535 0.4103 0.4092 0.4478 0.4673 0.4629 0.4408 0.4099 0.4001 0.436
2112.231 0.4414 0.4288 0.4477 0.444 0.4388 0.4325 0.3719 0.3886 0.3896 0.3467
2131.521 0.3556 0.3595 0.3496 0.3286 0.3156 0.3331 0.336 0.3311 0.3816 0.3707
2150.810 0.4382 0.4488 0.3037 0.2674 0.3101 0.3588 0.3997 0.3971 0.3676 0.3587
2170.100 0.3284 0.337 0.3238 0.2818 0.2837 0.256 0.2745 0.3503 0.4014 0.4075
2189.390 0.3647 0.3127 0.2993 0.3405 0.3865 0.3205 0.2951 0.2839 0.1932 0.2592
2208.680 0.2833 0.175 0.1972 0.3188 0.3417 0.3083 0.3097 0.3261 0.3275 0.3237
2227.970 0.3548 0.4066 0.3617 0.2635 0.2633 0.2747 0.1906 0.1868 0.2811 0.2918
2247.259 0.2658 0.2711 0.2667 0.2957 0.3105 0.2443 0.2117 0.1652 0.1203 0.1082
2266.549 0.09473 0.06382 0.08523 0.1154 0.07176 0.05944 0.09779 0.1182 0.1497 0.1346
2285.839 0.07565 0.09609 0.1053 0.1695 0.2363 0.2709 0.359 0.3401 0.3132 0.3577
2305.129 0.3659 0.3435 0.3228 0.2849 0.288 0.3867 0.3989 0.3361 0.3406 0.3642
2324.418 0.3601 0.2815 0.2834 0.3045 0.2543 0.2832 0.3396 0.2902 0.1685 0.2083
2343.708 0.3357 0.3701 0.4076 0.3512 0.2893 0.2608 0.2238 0.253 0.2872 0.2505
2362.998 0.2534 0.3572 0.3425 0.3363 0.3373 0.2923 0.256 0.3117 0.4029 0.3817
2382.288 0.353 0.3354 0.3515 0.4335 0.4316 0.408 0.3894 0.3091 0.3354 0.3543
2401.578 0.3409 0.3203 0.2744 0.2655 0.2747 0.3046 0.3715 0.3868 0.402 0.4488
2420.867 0.4356 0.3528 0.3145 0.3747 0.3548 0.3577 0.3389 0.3588 0.3974 0.4267
2440.157 0.509 0.449 0.4101 0.506 0.519 0.4878 0.4668 0.4197 0.3542 0.399
2459.447 0.5024 0.4704 0.4413 0.4566 0.4136 0.3974 0.4872 0.5315 0.484 0.4281
2478.737 0.4527 0.5301 0.4992 0.3678 0.3236 0.3333 0.3259 0.367 0.4328 0.4127
2498.026 0.4114 0.4404 0.4489 0.4621 0.4668 0.4715 0.4478 0.4265 0.462 0.5097
2517.316 0.4668 0.4758 0.4645 0.441 0.4349 0.3859 0.433 0.5017 0.5635 0.5848
2536.606 0.4989 0.3949 0.3352 0.3442 0.4035 0.4382 0.4528 0.539 0.5345 0.5016
2555.896 0.5686 0.5648 0.4828 0.4864 0.5245 0.5674 0.5689 0.5051 0.4905 0.4872
2575.186 0.4961 0.463 0.4363 0.5077 0.5585 0.6036 0.6155 0.5092 0.5067 0.5291
2594.475 0.5011 0.512 0.5475 0.4892 0.4131 0.4564 0.4962 0.4511 0.4237 0.399
2613.765 0.4166 0.4499 0.4138 0.4466 0.4196 0.3831 0.4298 0.345 0.2605 0.2795
2633.055 0.2769 0.3049 0.4136 0.4702 0.4182 0.4114 0.3597 0.2687 0.2525 0.317
2652.345 0.3763 0.3539 0.329 0.342 0.3555 0.3699 0.3299 0.3069 0.3711 0.3767
2671.634 0.3543 0.3231 0.3294 0.3267 0.3563 0.3857 0.3703 0.4221 0.3846 0.3529
2690.924 0.3972 0.3963 0.3886 0.3046 0.2428 0.371 0.4177 0.4669 0.5089 0.505
2710.214 0.4909 0.4697 0.522 0.4991 0.5083 0.563 0.4461 0.3269 0.4676 0.5623
2729.504 0.5367 0.5748 0.5382 0.4457 0.5114 0.6862 0.6724 0.6261 0.7372 0.7433
2748.794 0.6857 0.6769 0.6489 0.4716 0.4608 0.5749 0.5488 0.5384 0.6004 0.5938
2768.083 0.5214 0.527 0.544 0.5299 0.5034 0.5079 0.4861 0.5105 0.5665 0.5555
2787.373 0.5991 0.6185 0.6061 0.6266 0.6463 0.6338 0.6173 0.6799 0.6652 0.5939
2806.663 0.654 0.7018 0.7079 0.7015 0.694 0.7771 0.8257 0.8011 0.8395 0.8581
2825.953 0.7191 0.7043 0.7427 0.682 0.7993 0.9845 1.05 0.9859 0.8722 0.8322
2845.242 0.8996 1.05 1.1 1.08 1.16 1.31 1.51 1.52 1.53 1.63
2864.532 1.66 1.67 1.75 1.99 2.21 2.42 2.58 2.72 2.8 2.92
2883.822 3.23 3.48 3.46 3.4 3.33 3.43 3.57 3.53 3.61 3.72
2903.112 3.8 3.76 3.67 3.81 3.95 3.88 3.87 3.84 3.88 3.94
2922.401 3.87 3.84 3.87 3.87 3.97 4.08 4.18 4.36 4.57 4.72
2941.691 4.82 4.84 4.78 4.68 4.5 4.32 4.09 3.87 3.67 3.46
2960.981 3.42 3.43 3.42 3.6 3.76 3.94 4.22 4.62 5.14 5.74
2980.271 6.22 6.61 7.18 7.62 7.73 7.66 7.5 7.07 6.5 5.85
2999.561 5.08 4.34 3.71 3.23 2.96 2.76 2.49 2.23 2.06 1.94
3018.850 1.92 1.89 1.8 1.73 1.7 1.78 1.89 1.89 1.84 1.98
3038.140 2.08 2.02 2.12 2.09 1.99 2.13 2.19 2.07 2.01 2.06
3057.430 2.06 2.12 2.32 2.57 2.7 2.84 3.05 3.13 3.32 3.48
3076.720 3.37 3.32 3.28 3.11 2.92 2.68 2.26 1.93 1.78 1.75
3096.009 1.66 1.5 1.28 1.06 0.9701 0.941 0.9746 0.9927 0.9046 0.8645
3115.299 0.8019 0.6304 0.6059 0.6164 0.6545 0.6577 0.5318 0.5328 0.6087 0.5565
3134.589 0.4543 0.406 0.4603 0.5204 0.6069 0.5677 0.5909 0.669 0.5549 0.5475
3153.879 0.5357 0.6442 0.686 0.6464 0.6646 0.5368 0.5569 0.6486 0.4762 0.3754
3173.169 0.4878 0.4693 0.4327 0.5634 0.5993 0.5702 0.5893 0.5756 0.6936 0.6339
3192.458 0.6552 0.8322 0.7794 0.7735 0.7525 0.6548 0.6805 0.6562 0.6809 0.7784
3211.748 0.8231 0.6804 0.5879 0.7589 0.7542 0.6695 0.5934 0.614 0.6092 0.4899
3231.038 0.4408 0.6527 0.7337 0.5189 0.5347 0.5821 0.5382 0.5067 0.5577 0.5103
3250.328 0.261 0.333 0.6005 0.5517 0.514 0.6231 0.5961 0.578 0.5586 0.3915
3269.617 0.31 0.4417 0.5059 0.5015 0.5292 0.6198 0.6769 0.4184 0.4283 0.6172
3288.907 0.5638 0.5196 0.4702 0.512 0.5442 0.6068 0.7097 0.6508 0.6157 0.5772
3308.197 0.4664 0.4377 0.5971 0.6877 0.5813 0.6443 0.6967 0.5675 0.5149 0.6364
3327.487 0.6518 0.6403 0.682 0.6999 0.6132 0.5449 0.6633 0.7107 0.6898 0.6607
3346.777 0.7035 0.8587 0.8543 0.733 0.6552 0.6544 0.7774 0.7825 0.8253 0.8985
3366.066 0.9029 0.8087 0.6769 0.7356 0.7718 0.8181 0.852 0.7986 0.7994 0.8263
3385.356 0.8447 0.8288 0.7389 0.5874 0.5652 0.8227 0.983 0.9582 0.9291 0.9531
3404.646 0.9647 0.8808 0.808 0.761 0.813 0.7526 0.7132 0.7747 0.8031 0.8609
3423.936 0.8494 0.9091 0.9469 0.9908 1.13 1.35 1.44 1.24 1.33 1.66
3443.225 1.62 1.59 1.83 1.94 2.03 2.22 2.45 2.65 2.77 3
3462.515 3.29 3.55 3.78 4.06 4.46 4.48 4.42 4.39 4.01 3.79
3481.805 3.57 3.27 2.95 2.49 2.2 2.05 1.96 1.73 1.54 1.44
3501.095 1.29 1.11 1.03 1.02 1.01 0.9646 0.8214 0.8133 0.907 0.8587
3520.385 0.7226 0.6758 0.7243 0.6971 0.5774 0.5169 0.5664 0.6114 0.6161 0.6501
3539.674 0.6229 0.5625 0.58 0.4871 0.3832 0.4927 0.4764 0.4601 0.6446 0.6256
3558.964 0.4883 0.5939 0.7602 0.646 0.5898 0.585 0.3997 0.4088 0.3868 0.4239
3578.254 0.5143 0.5846 0.5015 0.4524 0.6294 0.582 0.4774 0.3928 0.5148 0.5577
3597.544 0.6381 0.6662 0.4707 0.4029 0.2701 0.3988 0.5382 0.5126 0.523 0.5081
3616.833 0.5043 0.4729 0.4722 0.5182 0.4561 0.3901 0.5026 0.5694 0.5101 0.5193
3636.123 0.5537 0.6061 0.6434 0.6136 0.5882 0.4513 0.3755 0.3647 0.3334 0.3548
3655.413 0.3341 0.3569 0.5052 0.6196 0.5315 0.373 0.4794 0.5318 0.4823 0.4848
3674.703 0.4318 0.5233 0.6021 0.6556 0.6467 0.5456 0.552 0.5443 0.5327 0.5941
3693.993 0.5399 0.4316 0.3964 0.4463 0.4928 0.5087 0.4801 0.4723 0.5621 0.4978
3713.282 0.4054 0.4282 0.4564 0.4235 0.379 0.4915 0.4935 0.3655 0.5022 0.576
3732.572 0.5695 0.4898 0.3983 0.3381 0.3037 0.467 0.5417 0.5225 0.4389 0.3223
3751.862 0.2628 0.2887 0.3574 0.3864 0.4014 0.4369 0.4768 0.529 0.5167 0.4129
3771.152 0.4754 0.5722 0.4911 0.4855 0.4995 0.4815 0.489 0.4889 0.5803 0.6066
3790.441 0.496 0.4597 0.3744 0.4194 0.4457 0.4091 0.3755 0.2804 0.3187 0.3041
3809.731 0.3714 0.4217 0.4349 0.4268 0.4399 0.532 0.4778 0.4012 0.3752 0.3592
3829.021 0.4084 0.4603 0.4778 0.4794 0.47 0.5014 0.5322 0.5517 0.5712 0.4981
3848.311 0.4259 0.42 0.2581 0.2985 0.3939 0.4028 0.459 0.4573 0.5271 0.5567
3867.601 0.4599 0.3201 0.2992 0.4162 0.5345 0.5901 0.6094 0.5403 0.4858 0.5469
3886.890 0.5035 0.4312 0.557 0.5445 0.5515 0.555 0.4729 0.485 0.4534 0.5174
3906.180 0.5577 0.5861 0.6588 0.468 0.2892 0.2921 0.3975 0.461 0.3916 0.4519
3925.470 0.5351 0.4822 0.4523 0.4594 0.4885 0.5743 0.5153 0.477 0.5592 0.5754
3944.760 0.6137 0.687 0.6725 0.5448 0.4777 0.5826 0.6431 0.6209 0.5443 0.6067
3964.049 0.5164 0.4047 0.5747 0.6196 0.6014 0.6061 0.5835 0.5285 0.5014 0.4848
3983.339 0.4947 0.5689 0.6227 0.633 0.7232 0.666 0.5504 0.5368 0.4879 0.5148
##END=
