##TITLE=trans-3-Methyl-1,3-pentadiene
##JCAMP-DX=4.24
##DATA TYPE=INFRARED SPECTRUM
##ORIGIN=NIST Mass Spectrometry Data Center
##OWNER=NIST Standard Reference Data Program
Collection (C) 2018 copyright by the U.S. Secretary of Commerce
on behalf of the United States of America. All rights reserved.
##CAS REGISTRY NO=2787-43-1
##MOLFORM=C 6 H 10
##$NIST SOURCE=MSDC-IR
##SPECTROMETER/DATA SYSTEM=HP-GC/MS/IRD
##STATE=gas
##XUNITS=1/CM
##YUNITS=ABSORBANCE
##XFACTOR=1.0
##YFACTOR=0.000002100
##DELTAX=4.0
##FIRSTX=550.0
##LASTX=3846.0
##FIRSTY=0.000454
##MAXX=3846
##MINX=550
##MAXY=0.021
##MINY=0
##NPOINTS=825
##XYDATA=(X++(Y..Y))
550.0 216 181 121 76 106 79 4 59 92 101
590.0 79 80 79 42 47 74 61 77 129 124
630.0 98 96 113 134 189 190 147 157 196 211
670.0 252 269 282 277 220 247 273 246 277 274
710.0 290 326 315 341 354 401 418 449 528 607
750.0 656 658 675 703 724 678 607 577 608 676
790.0 751 906 1123 1386 1731 2061 2377 2672 3139 3889
830.0 4146 3656 3190 2853 2571 2389 2203 2108 2195 2448
870.0 2877 3457 4104 4739 5283 6344 8381 8739 7251 6508
910.0 6176 5473 4657 3907 3195 2580 2082 1757 1558 1525
950.0 1594 1721 1929 2200 2520 2841 3178 3555 4028 4493
990.0 4401 3846 3492 3300 3031 2652 2286 1967 1693 1521
1030.0 1394 1301 1236 1206 1184 1219 1335 1529 1816 2116
1070.0 2366 2571 2646 2585 2439 2161 1793 1431 1123 879
1110.0 711 586 527 502 458 426 397 402 420 366
1150.0 338 361 348 317 307 299 285 288 279 287
1190.0 306 325 351 381 399 408 428 448 446 444
1230.0 442 438 426 403 389 373 392 417 427 431
1270.0 437 473 517 563 589 609 619 627 650 653
1310.0 664 695 705 717 768 856 968 1077 1140 1187
1350.0 1250 1341 1476 1589 1690 1848 2047 2208 2322 2433
1390.0 2548 2623 2599 2488 2421 2402 2362 2300 2247 2218
1430.0 2214 2170 2056 1958 1915 1872 1776 1680 1591 1500
1470.0 1415 1346 1285 1220 1169 1146 1119 1089 1065 1051
1510.0 1056 1051 1029 1036 1072 1089 1093 1114 1163 1231
1550.0 1271 1273 1246 1217 1223 1243 1239 1258 1361 1596
1590.0 2002 2519 3026 3344 3497 3658 3782 3803 3585 3194
1630.0 2992 2985 2994 2966 2891 2752 2528 2191 1768 1378
1670.0 1067 838 688 568 507 482 423 386 387 383
1710.0 338 303 279 258 253 235 210 209 213 216
1750.0 228 254 265 273 315 362 455 625 822 1014
1790.0 1152 1227 1247 1287 1280 1137 948 767 654 594
1830.0 564 547 529 525 542 553 525 506 491 450
1870.0 394 325 280 236 196 175 156 146 133 141
1910.0 135 119 118 119 119 117 117 118 131 143
1950.0 149 160 176 191 189 185 184 165 143 136
1990.0 135 121 106 91 89 84 78 98 106 91
2030.0 84 80 71 65 66 63 59 57 67 80
2070.0 70 62 71 80 74 61 58 64 65 70
2110.0 76 69 56 52 43 40 41 46 45 48
2150.0 50 51 57 51 36 24 24 28 35 34
2190.0 27 30 21 10 15 12 7 6 6 4
2230.0 7 15 16 7 16 24 13 13 23 25
2270.0 29 31 30 20 10 14 34 42 36 53
2310.0 59 48 49 42 32 31 26 28 37 62
2350.0 64 56 57 63 77 83 98 99 96 89
2390.0 93 114 113 105 103 103 100 109 110 103
2430.0 110 105 104 111 108 101 96 99 100 102
2470.0 105 97 86 82 67 59 62 51 45 50
2510.0 56 58 65 67 57 50 53 64 53 48
2550.0 49 46 36 28 50 52 47 47 53 53
2590.0 39 38 41 46 37 32 54 54 47 55
2630.0 55 57 53 55 60 57 57 70 84 82
2670.0 86 104 110 100 110 130 147 163 169 192
2710.0 237 277 310 339 361 376 378 383 402 412
2750.0 426 455 460 436 427 419 395 384 372 379
2790.0 421 449 455 512 565 597 676 777 881 1009
2830.0 1152 1325 1562 1849 2210 2680 3274 3954 4580 5057
2870.0 5384 5622 5781 5836 5774 5676 5652 5766 6075 6602
2910.0 7350 8227 9037 9594 9885 10000 9969 9712 9117 8248
2950.0 7411 6762 6283 6012 5901 5913 6038 6256 6556 6892
2990.0 7301 7755 8148 8472 8674 8596 8436 8323 8192 7973
3030.0 7542 7042 6598 6176 5744 5306 4851 4429 4045 3717
3070.0 3535 3524 3667 3910 4138 4211 3952 3623 3545 3423
3110.0 2883 2141 1569 1188 935 756 602 504 435 354
3150.0 319 303 274 237 216 206 212 224 207 188
3190.0 186 179 173 164 135 131 149 143 131 125
3230.0 122 119 117 121 114 112 93 90 104 96
3270.0 82 95 118 113 93 70 55 81 100 83
3310.0 74 92 101 98 90 79 90 79 68 74
3350.0 88 90 69 68 72 59 67 77 71 69
3390.0 71 54 52 71 72 71 58 68 85 71
3430.0 67 53 37 48 63 46 23 6 7 29
3470.0 35 25 33 36 40 79 74 55 82 83
3510.0 77 53 23 43 62 55 43 60 60 45
3550.0 47 39 38 54 93 89 62 73 58 39
3590.0 47 33 15 39 51 40 46 53 59 59
3630.0 42 37 42 39 31 16 11 24 32 33
3670.0 53 51 54 67 35 15 33 33 22 36
3710.0 57 53 48 73 93 37 16 47 35 4
3750.0 4 39 40 16 22 7 37 45 45 50
3790.0 54 46 19 25 58 44 9 0 37 73
3830.0 56 53 64 51 70
##END=
