##TITLE=5-Isobutyl-5-methylhydantoin
##JCAMP-DX=4.24
##DATA TYPE=INFRARED SPECTRUM
##ORIGIN=EPA-IR VAPOR PHASE LIBRARY
##OWNER=SRD/NIST
Collection (C) 2018 copyright by the U.S. Secretary of Commerce
on behalf of the United States of America. All rights reserved.
##CAS REGISTRY NO=27886-67-5
##MOLFORM=C 8 H 14 N 2 O 2
##$NIST SOURCE=MSDC-IR
##STATE=gas
##XUNITS=1/CM
##YUNITS=ABSORBANCE
##XFACTOR=1.
##YFACTOR=0.001
##DELTAX=1.92898
##FIRSTX=549.8
##LASTX=4000.7
##FIRSTY=15.381
##MAXX=4000.7
##MINX=549.759
##MAXY=0.211221
##MINY=0
##NPOINTS=1790
##XYDATA=(X++(Y..Y))
549.759 15.381 17.511 19.541 21.661 22.771 23.471 24.151 24.071 23.791 23.211
569.049 22.161 20.751 19.121 17.831 16.891 15.811 14.701 13.821 13.071 12.511
588.339 11.921 11.511 10.911 9.971 9.171 8.441 7.741 7.061 6.461 6.061
607.628 5.681 5.301 5.171 5.021 4.991 5.081 4.821 4.711 4.841 4.811
626.918 4.661 4.461 4.541 4.811 4.681 4.391 4.081 3.911 3.851 3.631
646.208 3.171 2.791 2.791 2.641 2.231 1.941 1.741 1.691 1.711 1.491
665.498 1.341 1.291 1.401 1.491 1.371 1.381 1.451 1.501 1.421 1.381
684.787 1.421 1.341 1.301 1.401 1.491 1.561 1.531 1.541 1.631 1.741
704.077 1.721 1.661 1.771 1.901 2.031 2.011 2.001 2.211 2.351 2.511
723.367 2.631 2.831 3.091 3.201 3.471 3.981 4.281 4.521 4.771 4.871
742.657 5.301 5.661 5.831 6.171 6.631 6.791 6.851 6.861 6.611 6.601
761.947 6.551 6.211 5.781 5.321 4.791 4.281 3.871 3.481 3.161 2.921
781.236 2.761 2.411 2.191 2.211 2.071 1.811 1.601 1.521 1.511 1.571
800.526 1.401 1.1596 1.241 1.341 1.411 1.351 1.2248 1.351 1.441 1.381
819.816 1.281 1.411 1.661 1.771 1.491 1.251 1.321 1.1445 1.0307 0.9962
839.106 0.9759 0.9125 0.8779 1.0069 1.0188 0.9708 0.8265 0.7095 0.8202 0.8442
858.395 1.0291 1.0114 0.894 1.0301 0.9393 1.0295 1.361 1.401 1.331 1.471
877.685 1.641 1.471 1.2239 1.241 1.301 1.331 1.241 1.1693 1.271 1.391
896.975 1.351 1.351 1.501 1.591 1.481 1.431 1.561 1.651 1.651 1.551
916.265 1.521 1.561 1.641 1.651 1.561 1.521 1.461 1.531 1.781 1.751
935.555 1.651 1.831 2.101 2.371 2.511 2.731 3.181 3.621 3.981 4.331
954.844 4.531 4.861 5.431 5.961 6.301 6.621 7.061 7.401 7.701 7.931
974.134 8.261 8.741 9.011 8.981 8.861 8.911 8.681 8.191 7.741 7.061
993.424 6.331 5.741 5.051 4.351 3.831 3.261 2.581 2.191 2.051 1.851
1012.714 1.701 1.701 1.741 1.541 1.361 1.381 1.281 1.2017 1.2197 1.411
1032.003 1.631 1.651 1.661 1.851 2.071 2.311 2.591 2.541 2.601 2.791
1051.293 2.801 2.881 2.881 3.011 3.281 3.751 3.801 3.761 3.921 4.011
1070.583 4.351 4.451 4.021 3.891 4.051 3.981 4.111 3.981 3.411 3.451
1089.873 3.781 3.981 4.151 4.601 4.991 4.931 5.111 4.941 5.101 5.421
1109.163 5.661 6.211 6.571 6.471 6.081 6.221 6.421 6.181 6.431 6.411
1128.452 6.211 5.971 5.791 5.741 5.321 5.201 5.021 4.841 4.881 5.001
1147.742 4.811 4.531 4.571 4.781 4.901 4.891 4.971 5.131 5.331 5.431
1167.032 5.321 5.491 5.681 5.721 5.801 5.581 5.421 5.431 5.651 5.711
1186.322 5.711 5.781 5.821 5.711 5.761 5.811 5.831 5.941 5.791 5.881
1205.611 6.011 5.811 5.821 6.081 6.141 6.281 6.271 6.371 6.641 6.951
1224.901 7.051 6.981 6.491 5.961 5.941 5.601 5.231 5.051 5.121 5.081
1244.191 4.691 4.501 4.551 4.591 4.611 4.541 4.601 4.801 5.051 5.421
1263.481 5.741 6.281 6.781 7.231 7.901 8.521 8.931 9.511 10.191 10.681
1282.771 11.101 11.541 11.941 12.351 12.751 13.111 13.301 13.351 13.331 13.151
1302.060 12.881 12.541 12.131 11.711 11.341 11.021 10.791 10.681 10.721 10.891
1321.350 11.131 11.501 12.031 12.521 12.911 13.261 13.561 13.841 14.081 14.231
1340.640 14.411 14.681 15.121 15.781 16.581 17.621 19.061 20.761 22.681 24.771
1359.930 26.911 28.881 30.571 31.801 32.431 32.511 32.111 31.271 30.051 28.631
1379.219 27.181 25.821 24.611 23.531 22.361 20.891 19.261 17.611 15.861 14.081
1398.509 12.251 10.521 9.001 7.661 6.591 5.701 4.951 4.401 3.961 3.561
1417.799 3.251 2.981 2.801 2.721 2.721 2.751 2.761 2.801 2.911 3.011
1437.089 3.061 3.191 3.351 3.501 3.601 3.831 4.171 4.431 4.731 5.041
1456.378 5.231 5.431 5.631 5.671 5.601 5.501 5.401 5.221 5.011 4.761
1475.668 4.481 4.141 3.881 3.631 3.391 3.141 2.871 2.671 2.541 2.491
1494.958 2.381 2.241 2.181 2.171 2.061 1.961 1.931 1.891 1.851 1.811
1514.248 1.821 1.761 1.671 1.621 1.591 1.591 1.511 1.451 1.411 1.331
1533.538 1.261 1.261 1.2062 1.0876 1.0763 1.0896 1.1253 1.118 1.08 0.9815
1552.827 0.906 0.8879 0.8687 0.8852 0.8671 0.8664 0.9099 0.8884 0.8229 0.8256
1572.117 0.9003 0.9103 0.7829 0.7861 0.8468 0.8129 0.7499 0.8338 0.9124 0.8454
1591.407 0.8535 0.8675 0.7951 0.743 0.8648 0.9222 0.8853 0.8618 0.841 0.8371
1610.697 0.8685 0.9255 0.8625 0.8427 0.9088 0.8869 0.8438 0.8301 0.8855 0.8811
1629.986 0.8646 0.9257 0.9565 0.9676 0.9749 0.9335 0.9419 1.013 1.0196 1.0297
1649.276 1.0917 1.0796 1.0802 1.22 1.321 1.351 1.421 1.471 1.481 1.461
1668.566 1.471 1.521 1.601 1.691 1.721 1.761 1.851 1.901 1.971 2.071
1687.856 2.151 2.251 2.411 2.611 2.771 2.961 3.191 3.391 3.631 3.851
1707.146 4.131 4.451 4.711 4.971 5.281 5.641 6.061 6.531 7.051 7.641
1726.435 8.371 9.181 10.111 11.161 12.431 13.861 15.501 17.461 19.761 22.551
1745.725 26.031 30.501 36.181 43.721 53.461 65.751 81.631 100.431 121.921 145.021
1765.015 167.081 186.251 201.021 209.611 211.221 205.531 192.241 172.721 149.001 123.751
1784.305 99.631 78.931 63.671 53.881 49.251 48.851 51.661 56.461 62.211 68.031
1803.594 72.951 76.171 76.971 74.971 70.561 64.271 56.311 47.121 37.981 30.001
1822.884 23.601 18.781 15.271 12.681 10.761 9.401 8.361 7.511 6.831 6.251
1842.174 5.691 5.221 4.871 4.571 4.321 4.081 3.891 3.691 3.481 3.341
1861.464 3.221 3.131 3.001 2.881 2.781 2.581 2.481 2.421 2.341 2.251
1880.754 2.131 2.131 2.071 1.991 1.991 1.941 1.871 1.851 1.861 1.841
1900.043 1.801 1.741 1.741 1.751 1.771 1.781 1.761 1.771 1.791 1.801
1919.333 1.851 1.901 1.871 1.941 2.051 2.081 2.091 2.161 2.281 2.301
1938.623 2.311 2.331 2.341 2.341 2.381 2.371 2.351 2.341 2.271 2.181
1957.913 2.061 2.011 1.961 1.871 1.771 1.681 1.641 1.551 1.451 1.391
1977.202 1.361 1.311 1.241 1.1489 1.0712 1.0753 1.1079 1.0766 1.0445 1.0155
1996.492 0.9619 0.9609 0.9538 0.8864 0.8557 0.8439 0.7791 0.775 0.7915 0.7942
2015.782 0.7978 0.7828 0.7653 0.7385 0.7458 0.7314 0.7211 0.7025 0.7055 0.7268
2035.072 0.6696 0.6766 0.7017 0.6207 0.5899 0.6312 0.6266 0.6002 0.5982 0.5702
2054.362 0.5208 0.505 0.5093 0.5408 0.5377 0.4975 0.5114 0.5486 0.5804 0.6014
2073.651 0.5997 0.5922 0.5367 0.5152 0.5201 0.5111 0.526 0.5313 0.5189 0.52
2092.941 0.5726 0.5593 0.5373 0.5554 0.5251 0.5361 0.5011 0.4667 0.475 0.4545
2112.231 0.5145 0.5152 0.4908 0.5119 0.448 0.4407 0.502 0.4216 0.3472 0.3702
2131.521 0.4317 0.4573 0.4167 0.3905 0.4092 0.4361 0.4711 0.4338 0.3961 0.3866
2150.810 0.336 0.3837 0.4035 0.3792 0.3629 0.3369 0.3503 0.3614 0.3455 0.4044
2170.100 0.434 0.384 0.3816 0.4014 0.4066 0.3861 0.3861 0.4191 0.3543 0.3356
2189.390 0.3884 0.4092 0.4367 0.454 0.4572 0.4097 0.4262 0.4739 0.4571 0.4211
2208.680 0.3849 0.373 0.377 0.4093 0.4305 0.4068 0.4646 0.5009 0.4121 0.3354
2227.970 0.3513 0.35 0.3338 0.3713 0.3851 0.3721 0.3644 0.3679 0.3548 0.4686
2247.259 0.5363 0.5131 0.4752 0.4562 0.4913 0.4819 0.4767 0.4873 0.5106 0.4668
2266.549 0.4186 0.4508 0.5121 0.5383 0.4933 0.4127 0.4422 0.473 0.4552 0.4942
2285.839 0.4574 0.3977 0.4837 0.5133 0.4962 0.5084 0.5085 0.5102 0.444 0.446
2305.129 0.4896 0.5469 0.4914 0.3938 0.3863 0.4365 0.47 0.4471 0.4465 0.5079
2324.418 0.5326 0.4626 0.4339 0.4562 0.4841 0.4899 0.4831 0.4603 0.4241 0.3583
2343.708 0.361 0.32098 0.367 0.4925 0.47 0.3786 0.3575 0.3704 0.3862 0.4289
2362.998 0.4931 0.5499 0.4881 0.4267 0.4084 0.472 0.5499 0.5072 0.4881 0.5149
2382.288 0.5247 0.5736 0.5865 0.6157 0.6779 0.6582 0.5772 0.5222 0.5571 0.6628
2401.578 0.6832 0.6529 0.678 0.6896 0.7064 0.6963 0.675 0.7402 0.7118 0.6174
2420.867 0.618 0.6278 0.6657 0.7165 0.6754 0.6255 0.6208 0.5655 0.5565 0.5966
2440.157 0.6134 0.5951 0.6188 0.6305 0.6062 0.6369 0.6272 0.6042 0.6017 0.6424
2459.447 0.5792 0.5362 0.5703 0.549 0.5132 0.4528 0.5187 0.5742 0.5915 0.5204
2478.737 0.4512 0.5165 0.4973 0.4674 0.5155 0.5691 0.56 0.4717 0.45 0.5335
2498.026 0.529 0.5102 0.5221 0.5114 0.4905 0.485 0.4972 0.4851 0.5253 0.5242
2517.316 0.4719 0.4611 0.4699 0.4454 0.3639 0.3771 0.4471 0.4086 0.4282 0.436
2536.606 0.3944 0.4734 0.5357 0.4742 0.3373 0.32067 0.4281 0.4301 0.3905 0.3416
2555.896 0.32312 0.4491 0.5323 0.4753 0.4219 0.4607 0.4805 0.4931 0.5031 0.5376
2575.186 0.6202 0.526 0.3768 0.4052 0.4666 0.4931 0.4974 0.4649 0.4779 0.4678
2594.475 0.4055 0.434 0.5366 0.6118 0.631 0.5812 0.5205 0.5248 0.4855 0.4724
2613.765 0.4931 0.567 0.622 0.5738 0.5955 0.5674 0.5275 0.5072 0.5108 0.5856
2633.055 0.5894 0.6086 0.6599 0.5583 0.5251 0.5394 0.5749 0.6765 0.7091 0.7394
2652.345 0.6459 0.6322 0.693 0.6245 0.583 0.6355 0.6808 0.674 0.6653 0.6186
2671.634 0.6844 0.798 0.813 0.7757 0.717 0.6265 0.5797 0.6305 0.6324 0.6062
2690.924 0.6622 0.7051 0.6458 0.6084 0.6353 0.6154 0.6458 0.6846 0.6577 0.6745
2710.214 0.6977 0.6926 0.6958 0.7693 0.7961 0.7264 0.7099 0.7708 0.7278 0.667
2729.504 0.8195 0.8412 0.7354 0.7904 0.8128 0.7577 0.8 0.8337 0.8081 0.834
2748.794 0.841 0.8022 0.7948 0.8063 0.7314 0.6561 0.7065 0.7354 0.7436 0.7803
2768.083 0.7588 0.7408 0.7344 0.7044 0.7787 0.8203 0.7477 0.7994 0.8194 0.7551
2787.373 0.6674 0.6591 0.7024 0.7125 0.7323 0.7758 0.8136 0.8329 0.9008 0.9081
2806.663 0.9343 1.0154 0.9972 0.9101 0.9137 1.0769 1.1512 1.198 1.271 1.321
2825.953 1.391 1.391 1.471 1.561 1.581 1.631 1.771 1.881 1.921 2.071
2845.242 2.311 2.461 2.511 2.681 2.831 2.851 2.891 3.011 3.251 3.531
2864.532 3.781 4.121 4.531 4.991 5.571 6.171 6.831 7.481 8.001 8.421
2883.822 8.651 8.781 8.811 8.731 8.601 8.501 8.601 8.781 8.911 9.191
2903.112 9.651 10.001 10.281 10.501 10.611 10.651 10.761 10.861 10.891 10.991
2922.401 11.191 11.471 11.861 12.431 13.071 13.611 14.201 14.771 15.131 15.211
2941.691 15.021 14.811 14.601 14.321 13.941 13.891 14.201 14.711 15.711 17.051
2960.981 18.611 20.251 21.931 23.461 24.451 24.771 24.361 23.491 22.551 21.281
2980.271 19.391 17.341 15.651 14.101 12.461 11.141 10.041 8.781 7.521 6.601
2999.561 5.891 5.011 4.091 3.471 2.961 2.561 2.361 2.031 1.821 1.651
3018.850 1.431 1.391 1.271 1.1332 1.0219 1.0076 1.0606 1.0419 0.9802 0.9035
3038.140 0.8147 0.7996 0.7941 0.6735 0.7809 0.8422 0.7447 0.7288 0.7862 0.8034
3057.430 0.7547 0.7392 0.738 0.7631 0.8303 0.7795 0.7308 0.8782 0.9477 0.8914
3076.720 0.7936 0.749 0.8604 0.8732 0.8134 0.8505 0.8749 0.8601 0.9022 1.015
3096.009 0.9372 0.8412 0.9373 0.9991 0.9181 0.8565 0.8518 0.9117 0.8766 0.8817
3115.299 0.8168 0.73 0.8181 0.8568 0.8491 0.8594 0.8706 0.8752 0.8681 0.8416
3134.589 0.9189 0.9329 0.9377 0.9343 0.9316 0.8975 0.8173 0.8203 0.8642 0.9569
3153.879 1.011 0.9378 0.7976 0.7835 0.926 0.9443 0.8274 0.8546 0.8211 0.6766
3173.169 0.6745 0.7278 0.7928 0.7541 0.7463 0.763 0.7821 0.785 0.6474 0.5775
3192.458 0.7231 0.8187 0.7119 0.6115 0.5367 0.5821 0.6816 0.768 0.8073 0.6682
3211.748 0.5417 0.4882 0.445 0.5875 0.6573 0.5615 0.5229 0.536 0.5563 0.5749
3231.038 0.4875 0.3343 0.31631 0.3806 0.4303 0.4314 0.394 0.3596 0.3341 0.3946
3250.328 0.4193 0.2206 0.1932 0.24353 0.2265 0.30347 0.1897 0.1328 0.24824 0.3408
3269.617 0.26428 0.26589 0.3748 0.3524 0.3912 0.4092 0.29898 0.3377 0.3476 0.240216
3288.907 0.30721 0.3398 0.27764 0.31372 0.32439 0.2151 0.2116 0.29424 0.377 0.4116
3308.197 0.3416 0.2161 0.232944 0.31511 0.3089 0.3552 0.3331 0.27443 0.28013 0.3328
3327.487 0.3507 0.4626 0.4854 0.3911 0.4741 0.4589 0.3877 0.30142 0.28693 0.3392
3346.777 0.4177 0.3536 0.2807 0.3507 0.3921 0.4205 0.3528 0.31612 0.4084 0.3993
3366.066 0.31237 0.24194 0.26294 0.29332 0.29636 0.3327 0.26788 0.116 0.114 0.27646
3385.356 0.25962 0.26844 0.230118 0.23375 0.3848 0.4005 0.332 0.27267 0.22842 0.28605
3404.646 0.4206 0.4024 0.3072 0.354 0.3571 0.3751 0.5026 0.4991 0.5257 0.6209
3423.936 0.6114 0.5942 0.5887 0.553 0.7239 0.9072 0.9509 1.026 1.1286 1.321
3443.225 1.591 1.841 2.141 2.461 2.831 3.381 4.121 5.021 6.031 7.351
3462.515 8.851 10.611 12.571 14.661 17.071 19.481 21.881 23.951 25.431 26.391
3481.805 26.531 25.951 24.541 22.141 19.341 16.371 13.321 10.491 7.921 5.881
3501.095 4.351 3.231 2.631 2.171 1.791 1.561 1.401 1.431 1.431 1.361
3520.385 1.251 1.2011 1.381 1.461 1.341 1.291 1.311 1.321 1.401 1.591
3539.674 1.521 1.511 1.601 1.521 1.421 1.461 1.431 1.461 1.621 1.571
3558.964 1.641 1.701 1.721 1.811 1.671 1.481 1.461 1.471 1.431 1.401
3578.254 1.271 1.0733 0.9255 0.7954 0.7727 0.7377 0.8268 0.745 0.6179 0.7224
3597.544 0.7713 0.8169 0.7931 0.7225 0.7356 0.7203 0.6461 0.6236 0.6935 0.7046
3616.833 0.6034 0.5706 0.5645 0.5905 0.6551 0.6393 0.4328 0.3636 0.4302 0.4244
3636.123 0.4421 0.3378 0.3249 0.4319 0.3962 0.30575 0.30328 0.27504 0.1939 0.095
3655.413 0.1667 0.29187 0.32305 0.3363 0.30387 0.24874 0.1669 0.31848 0.3718 0.3145
3674.703 0.22572 0.025 0.034 0.085 0.078 0.121 0.118 0.086 0.104 0.1326
3693.993 0.1809 0.22717 0.167 0.1311 0.097 0.1339 0.3689 0.4559 0.3641 0.29173
3713.282 0.2842 0.26246 0.2133 0.25698 0.096 0 0.1998 0.29259 0.24702 0.1413
3732.572 0.038 0.051 0.22978 0.4244 0.3609 0.22805 0.1551 0.116 0.1636 0.1867
3751.862 0.094 0.1723 0.30942 0.22513 0.31893 0.433 0.27879 0.1777 0.214 0.28035
3771.152 0.1751 0.131 0.1646 0.1862 0.32885 0.29639 0.22993 0.3537 0.4496 0.3494
3790.441 0.3557 0.3305 0.1845 0.1827 0.26304 0.25448 0.25695 0.28705 0.32896 0.4016
3809.731 0.3844 0.31027 0.3391 0.3967 0.4179 0.4643 0.4325 0.3867 0.3951 0.385
3829.021 0.3988 0.3204 0.234104 0.3421 0.26717 0.230642 0.3605 0.2813 0.2644 0.29787
3848.311 0.26241 0.32388 0.3843 0.4251 0.374 0.31499 0.4012 0.3529 0.30559 0.24648
3867.601 0.1912 0.22331 0.1485 0.107 0.2005 0.32378 0.4134 0.4072 0.31061 0.26157
3886.890 0.2124 0.141 0.2087 0.25843 0.2047 0.2023 0.2614 0.4328 0.4605 0.27756
3906.180 0.2091 0.27626 0.233722 0.1418 0.1788 0.2582 0.1584 0.103 0.22132 0.3326
3925.470 0.233488 0.1808 0.1473 0.1358 0.1817 0.12 0.116 0.235164 0.2571 0.1868
3944.760 0.111 0.105 0.26485 0.3758 0.24573 0.117 0.128 0.043 0.118 0.23869
3964.049 0.1759 0.1502 0.239723 0.1832 0.2193 0.26566 0.25565 0.30609 0.28191 0.3601
3983.339 0.3513 0.29003 0.30911 0.3623 0.4541 0.3537 0.30001 0.29868 0.27839 0.29424
##END=
