##TITLE=4,4',4"-(Ethylidene)trisphenol
##JCAMP-DX=4.24
##DATA TYPE=INFRARED SPECTRUM
##ORIGIN=EPA-IR VAPOR PHASE LIBRARY
##OWNER=SRD/NIST
Collection (C) 2018 copyright by the U.S. Secretary of Commerce
on behalf of the United States of America. All rights reserved.
##CAS REGISTRY NO=27955-94-8
##MOLFORM=C 20 H 18 O 3
##$NIST SOURCE=MSDC-IR
##STATE=gas
##XUNITS=1/CM
##YUNITS=ABSORBANCE
##XFACTOR=1.
##YFACTOR=0.001
##DELTAX=1.92898
##FIRSTX=549.8
##LASTX=4000.7
##FIRSTY=1.805
##MAXX=4000.7
##MINX=549.759
##MAXY=0.030355
##MINY=0
##NPOINTS=1790
##XYDATA=(X++(Y..Y))
549.759 1.805 1.815 1.975 2.525 3.085 3.515 4.425 5.765 6.835 7.305
569.049 7.105 6.135 4.725 3.625 2.865 2.375 2.195 1.995 1.855 1.732
588.339 1.5662 1.5271 1.3555 1.2043 1.292 1.3324 1.2979 1.228 1.1276 1.1057
607.628 1.3119 1.3605 1.241 1.2621 1.2583 1.1388 1.1433 1.1986 1.2387 1.352
626.918 1.2946 1.1484 1.1279 1.2101 1.2206 1.1512 1.3099 1.384 1.1463 1.1612
646.208 1.3036 1.2221 1.075 1.0125 1.0827 1.1025 1.0412 1.0473 1.0672 1.0658
665.498 1.1594 1.4284 1.3091 1.1335 1.1365 1.0311 1.0436 1.1155 1.1556 1.146
684.787 1.1927 1.2761 1.2334 1.1439 1.2321 1.2748 1.2871 1.4058 1.4108 1.4092
704.077 1.4126 1.3342 1.2889 1.2677 1.2404 1.2196 1.2719 1.4041 1.436 1.4983
723.367 1.6179 1.466 1.2399 1.3167 1.4526 1.2941 1.1597 1.2074 1.3066 1.3108
742.657 1.2712 1.2671 1.1799 1.0539 1.0615 1.131 1.0248 1.0272 1.1293 1.1033
761.947 1.1087 1.0846 1.0997 1.2699 1.2945 1.3855 1.379 1.2634 1.3311 1.3629
781.236 1.4949 1.5844 1.5713 1.5753 1.664 1.7715 1.985 2.245 2.315 2.325
800.526 2.525 2.855 3.105 3.345 3.475 3.425 3.475 3.785 4.035 4.395
819.816 4.815 5.265 6.245 7.285 7.805 8.055 7.825 7.135 6.305 5.245
839.106 4.215 3.405 2.885 2.495 2.085 2.005 2.025 1.865 1.6626 1.6104
858.395 1.718 1.6943 1.5278 1.361 1.3675 1.4919 1.5524 1.5173 1.4111 1.3695
877.685 1.4117 1.4787 1.5032 1.4761 1.5247 1.4313 1.3781 1.5267 1.4354 1.3067
896.975 1.3078 1.4374 1.3953 1.25 1.3028 1.2353 1.1961 1.2605 1.3709 1.4381
916.265 1.3008 1.1877 1.1249 1.1451 1.1335 1.1004 1.3306 1.3996 1.2839 1.2266
935.555 1.2807 1.3059 1.1712 1.1228 1.1577 1.0655 1.1011 1.2218 1.0919 1.0187
954.844 1.1522 1.1975 1.0748 1.0295 1.0281 0.9741 0.9729 1.0241 0.9908 0.87217
974.134 0.797683 0.78711 1.0189 1.0604 1.0033 1.1874 1.221 1.1563 1.176 1.2409
993.424 1.21 1.0856 1.1218 1.2581 1.4466 1.5166 1.525 1.825 2.125 2.405
1012.714 2.585 2.615 2.495 2.175 1.7506 1.6177 1.7558 1.7273 1.7275 1.7322
1032.003 1.573 1.5851 1.5967 1.4931 1.4346 1.5497 1.6906 1.6512 1.5988 1.6328
1051.293 1.7776 2.115 2.275 2.095 2.095 2.135 1.935 1.885 2.015 2.005
1070.583 2.055 1.955 1.855 1.935 2.065 2.205 2.055 1.965 2.305 2.445
1089.873 2.135 2.195 2.255 2.175 2.435 2.515 2.605 2.875 2.885 2.945
1109.163 3.135 3.195 2.945 2.775 2.695 2.445 2.625 2.825 2.835 2.625
1128.452 2.555 2.915 3.255 3.265 3.115 3.025 2.945 3.025 3.125 3.145
1147.742 3.115 3.245 3.665 4.275 4.835 5.685 6.875 8.345 10.415 13.535
1167.032 17.885 23.045 27.785 30.355 29.865 26.465 21.315 16.105 12.275 9.885
1186.322 8.265 7.375 6.805 6.015 5.565 5.245 4.635 4.275 4.085 3.825
1205.611 3.495 3.405 3.515 3.345 3.135 3.235 3.185 2.905 2.765 2.585
1224.901 2.615 2.365 2.035 2.145 2.265 2.425 2.535 2.595 2.595 2.765
1244.191 3.095 3.645 4.675 5.985 7.565 9.455 11.355 12.645 12.915 12.085
1263.481 10.325 8.055 5.965 4.445 3.445 2.835 2.325 1.845 1.5489 1.548
1282.771 1.6972 1.6472 1.563 1.5321 1.523 1.5484 1.4658 1.457 1.4432 1.3638
1302.060 1.2819 1.2465 1.3407 1.4165 1.4667 1.5504 1.6285 1.7525 1.925 2.135
1321.350 2.405 2.755 3.105 3.385 3.485 3.375 3.145 2.875 2.715 2.615
1340.640 2.425 2.245 2.095 1.975 1.895 1.7805 1.7013 1.627 1.5656 1.5486
1359.930 1.5726 1.6134 1.5856 1.5633 1.616 1.7087 1.7678 1.825 1.915 2.055
1379.219 2.045 1.845 1.6306 1.4668 1.342 1.2256 1.2097 1.2341 1.2198 1.2537
1398.509 1.2248 1.2026 1.2897 1.3543 1.426 1.5448 1.6917 1.855 2.045 2.365
1417.799 2.515 2.645 2.975 3.125 3.055 2.825 2.525 2.285 2.095 1.795
1437.089 1.5734 1.5635 1.572 1.5517 1.5046 1.419 1.4338 1.4784 1.4989 1.4039
1456.378 1.132 1.2749 1.5596 1.5782 1.5123 1.5637 1.6158 1.4851 1.3111 1.3449
1475.668 1.5282 1.6692 1.835 2.015 2.235 2.455 2.715 3.175 3.785 4.485
1494.958 5.175 6.035 7.265 8.745 10.445 12.095 14.085 16.205 17.005 16.105
1514.248 13.985 11.035 8.105 5.725 4.125 3.415 2.915 2.535 2.325 2.095
1533.538 1.805 1.793 1.4377 0.88134 1.0216 1.3829 1.5525 1.5952 1.5749 1.5262
1552.827 1.3844 1.2899 1.0334 0.6 0.9881 1.5479 1.6113 1.6342 1.5844 1.6235
1572.117 1.885 1.865 1.7016 2.085 2.475 2.725 2.995 3.245 3.575 3.895
1591.407 4.145 4.285 4.315 4.285 4.255 4.305 4.505 4.755 4.975 5.165
1610.697 5.315 5.355 4.895 4.115 3.765 3.335 2.675 2.325 2.095 1.835
1629.986 1.7525 1.7212 1.3873 1.1575 1.4251 1.5752 1.5856 1.443 1.1087 1.0454
1649.276 1.2387 0.83322 0.437 1.0998 1.5005 1.5009 1.4319 1.3127 1.4191 1.3768
1668.566 1.1158 1.1108 1.2793 1.1338 1.1543 1.3495 1.3424 1.1128 0.6993 0.9198
1687.856 1.3058 1.2651 1.2509 1.0579 0.7229 0.82684 0.656 0.7307 1.1034 1.0801
1707.146 1.1112 1.2029 1.248 1.2269 1.1158 0.84451 0.9171 1.1857 1.2231 1.2131
1726.435 1.2482 1.2079 1.1893 1.0088 0.78841 1.0475 1.1438 1.0591 1.1516 1.2076
1745.725 1.205 1.1838 1.204 1.2482 1.3459 1.3403 1.295 1.2885 1.2166 1.2411
1765.015 1.2817 1.2429 1.2172 1.0306 0.9117 1.1029 1.2657 1.2601 1.2304 1.2563
1784.305 1.2888 1.2583 1.2325 1.1266 0.9361 0.9997 1.1321 1.121 1.1133 1.1896
1803.594 1.206 1.1577 1.1156 1.0548 1.0878 1.1403 1.1215 1.1234 1.0818 1.065
1822.884 1.0997 1.0812 1.0498 0.9541 0.9464 1.0911 1.1166 1.0822 1.1015 1.1424
1842.174 1.0751 0.9441 1.0203 1.1366 1.1758 1.1317 1.1429 1.181 1.1836 1.2388
1861.464 1.2373 1.2088 1.2032 1.1688 1.1467 1.207 1.2851 1.3169 1.3026 1.3361
1880.754 1.3825 1.3527 1.3361 1.362 1.3124 1.251 1.2399 1.2444 1.2363 1.2102
1900.043 1.2199 1.2081 1.158 1.126 1.1723 1.1752 1.1372 1.1912 1.1779 1.1014
1919.333 1.0866 1.1113 1.1322 1.1364 1.0969 1.0766 1.1127 1.082 1.047 1.0702
1938.623 1.0719 1.1063 1.1067 1.0978 1.1303 1.0985 1.1067 1.1396 1.1202 1.0733
1957.913 1.0836 1.1017 1.0619 1.0785 1.1096 1.0947 1.1089 1.1343 1.1106 1.12
1977.202 1.1373 1.1195 1.1438 1.1322 1.0881 1.0918 1.0951 1.0946 1.1175 1.142
1996.492 1.1308 1.1312 1.1493 1.1654 1.1757 1.2066 1.2197 1.1461 1.1054 1.1253
2015.782 1.1284 1.1447 1.1389 1.1122 1.1221 1.1455 1.1381 1.113 1.1041 1.1347
2035.072 1.1184 1.0961 1.102 1.1223 1.1669 1.1737 1.1859 1.2062 1.1828 1.1489
2054.362 1.1409 1.1161 1.136 1.1467 1.0833 1.0947 1.1629 1.1535 1.1512 1.1447
2073.651 1.1303 1.1017 1.0931 1.1527 1.1789 1.1547 1.1629 1.1789 1.1656 1.1512
2092.941 1.1514 1.1333 1.0895 1.1254 1.1406 1.1108 1.0973 1.086 1.0886 1.0966
2112.231 1.1204 1.1144 1.1326 1.1419 1.1217 1.131 1.0922 1.0258 1.0169 1.0592
2131.521 1.0693 1.0579 1.0686 1.0723 1.0529 1.0547 1.1025 1.1125 1.1029 1.0952
2150.810 1.0524 1.0687 1.1273 1.1306 1.0979 1.077 1.0852 1.0926 1.0785 1.0615
2170.100 1.087 1.0993 1.0827 1.1028 1.0941 1.0802 1.0557 1.0735 1.1121 1.1031
2189.390 1.105 1.098 1.0758 1.0705 1.0879 1.0872 1.0677 1.0729 1.0655 1.0677
2208.680 1.0873 1.0741 1.0927 1.0858 1.0737 1.1071 1.114 1.0814 1.0805 1.1514
2227.970 1.1698 1.1028 1.1135 1.1439 1.1227 1.1258 1.124 1.1121 1.0995 1.094
2247.259 1.1256 1.1656 1.151 1.1297 1.1515 1.1823 1.1519 1.0792 1.0686 1.1181
2266.549 1.0992 1.0957 1.1382 1.149 1.1451 1.1237 1.1184 1.1375 1.1845 1.2295
2285.839 1.254 1.2468 1.2507 1.2431 1.242 1.3226 1.3216 1.2942 1.3125 1.3041
2305.129 1.3148 1.3169 1.3331 1.3717 1.3922 1.3644 1.3998 1.4816 1.5082 1.5269
2324.418 1.5432 1.5556 1.5548 1.5686 1.5537 1.5475 1.5701 1.592 1.6348 1.6682
2343.708 1.639 1.5419 1.4614 1.4459 1.516 1.5972 1.6567 1.6962 1.7106 1.7007
2362.998 1.6995 1.7297 1.7309 1.6805 1.6085 1.5213 1.464 1.4224 1.3557 1.2818
2382.288 1.2532 1.2067 1.1726 1.184 1.2173 1.2588 1.22 1.1807 1.1637 1.1994
2401.578 1.2313 1.1995 1.165 1.1625 1.1717 1.1731 1.2108 1.2493 1.2545 1.2298
2420.867 1.2621 1.3036 1.3109 1.3337 1.3476 1.3798 1.3628 1.305 1.2708 1.2976
2440.157 1.3272 1.2746 1.2385 1.2054 1.1729 1.1752 1.1491 1.1474 1.1697 1.1645
2459.447 1.1618 1.2217 1.2013 1.1261 1.1338 1.1862 1.1826 1.1437 1.2211 1.2139
2478.737 1.1164 1.1512 1.1782 1.0969 1.0206 1.0403 1.1648 1.1922 1.1343 1.1284
2498.026 1.1291 1.1901 1.2277 1.1906 1.1552 1.161 1.1971 1.2206 1.2542 1.226
2517.316 1.1871 1.1837 1.1803 1.1547 1.1352 1.1376 1.1539 1.1801 1.1377 1.1017
2536.606 1.1426 1.1455 1.134 1.135 1.1312 1.1196 1.0879 1.0891 1.0728 1.0618
2555.896 1.1248 1.1551 1.1114 1.1067 1.0668 1.0104 1.0628 1.0833 1.0821 1.1084
2575.186 1.1004 1.0889 1.0261 1.0192 1.0976 1.1712 1.2028 1.1435 1.1193 1.0981
2594.475 1.0825 1.0748 1.095 1.1536 1.1393 1.1242 1.0886 1.0716 1.0561 1.0467
2613.765 1.1118 1.1044 1.0378 1.0367 1.0041 1.0075 1.0295 1.0614 1.0587 1.0168
2633.055 1.0586 1.0852 1.0901 1.1445 1.127 1.0965 1.0793 1.0123 1.083 1.1154
2652.345 1.0747 1.1492 1.1074 1.038 1.0835 1.0569 1.0884 1.1398 1.147 1.1412
2671.634 1.1567 1.1326 1.0354 1.0476 1.1348 1.1657 1.1184 1.1035 1.1231 1.1675
2690.924 1.1097 1.0467 1.1275 1.1344 1.0866 1.0692 1.0968 1.1369 1.108 1.1098
2710.214 1.0913 1.072 1.0971 1.1078 1.0652 1.009 1.0405 1.1105 1.1588 1.0907
2729.504 1.0201 1.0231 1.0566 1.0996 1.1107 1.1 1.0442 1.0336 1.077 1.0762
2748.794 1.0713 1.0536 1.0601 1.1319 1.1578 1.1345 1.126 1.0757 1.0988 1.1087
2768.083 1.1373 1.1928 1.1513 1.1199 1.0716 1.0893 1.1109 1.0821 1.0746 1.1133
2787.373 1.1361 1.1119 1.0769 1.0385 1.0024 1.0068 1.1014 1.1203 1.0646 1.1023
2806.663 1.1305 1.079 1.0602 1.0267 1.0258 1.0663 1.0277 0.9771 1.0206 1.0796
2825.953 1.0971 1.1216 1.1246 1.0959 1.1401 1.1889 1.1715 1.1148 1.0933 1.1376
2845.242 1.145 1.1371 1.0581 1.0315 1.0624 1.0478 1.0696 1.1355 1.1362 1.0529
2864.532 1.0578 1.1073 1.1159 1.1052 1.1318 1.1961 1.2227 1.2008 1.1788 1.1907
2883.822 1.2454 1.3179 1.3317 1.3378 1.3122 1.3154 1.3021 1.2287 1.2364 1.1683
2903.112 1.0954 1.13 1.1562 1.2199 1.3078 1.3094 1.2784 1.3408 1.3513 1.2809
2922.401 1.2548 1.1868 1.1306 1.2035 1.2297 1.2327 1.3201 1.3236 1.3419 1.4261
2941.691 1.4567 1.3984 1.4101 1.4793 1.5468 1.5413 1.4707 1.4808 1.4394 1.3585
2960.981 1.3344 1.3576 1.3337 1.3235 1.4251 1.5444 1.581 1.6663 1.885 2.225
2980.271 2.725 3.295 3.765 4.005 3.985 3.655 3.115 2.645 2.315 2.065
2999.561 1.995 2.005 1.985 2.005 2.025 2.035 2.095 2.135 2.135 2.115
3018.850 2.195 2.325 2.455 2.595 2.775 2.845 2.915 3.085 3.135 3.075
3038.140 2.865 2.625 2.445 2.225 2.015 1.885 1.835 1.805 1.7836 1.815
3057.430 1.845 1.885 2.065 2.185 2.185 2.255 2.285 2.265 2.245 2.155
3076.720 1.965 1.895 1.815 1.7289 1.7105 1.5882 1.4987 1.5757 1.6116 1.5351
3096.009 1.5738 1.6074 1.5501 1.5874 1.5816 1.5779 1.6494 1.604 1.5992 1.5392
3115.299 1.4448 1.4845 1.5464 1.5784 1.561 1.5148 1.4184 1.438 1.4698 1.471
3134.589 1.4783 1.4753 1.5438 1.5016 1.5114 1.5185 1.4502 1.4155 1.3727 1.3173
3153.879 1.3217 1.4197 1.4112 1.3556 1.3877 1.4387 1.4789 1.428 1.3504 1.3527
3173.169 1.3223 1.2287 1.2413 1.404 1.5169 1.4997 1.4021 1.3614 1.4475 1.4501
3192.458 1.317 1.2945 1.4048 1.446 1.4572 1.4154 1.3992 1.3734 1.3101 1.3493
3211.748 1.3897 1.3807 1.3468 1.4085 1.4786 1.4723 1.3895 1.4073 1.4853 1.4992
3231.038 1.5697 1.5346 1.5212 1.5185 1.3865 1.3525 1.3913 1.4013 1.3585 1.3578
3250.328 1.3867 1.3774 1.3566 1.2688 1.3471 1.4371 1.3996 1.4579 1.4277 1.3688
3269.617 1.3652 1.2999 1.3307 1.2938 1.2174 1.2638 1.2297 1.2124 1.264 1.2834
3288.907 1.2824 1.2862 1.2559 1.2285 1.2322 1.2068 1.1558 1.1503 1.1995 1.1801
3308.197 1.1984 1.2434 1.1344 1.1423 1.2248 1.2198 1.1757 1.1512 1.1247 1.073
3327.487 1.0524 1.1024 1.1495 1.1246 1.1686 1.1786 1.2167 1.2745 1.2853 1.3002
3346.777 1.2498 1.2097 1.1589 1.0395 1.0309 1.0647 1.0483 1.0864 1.1346 1.1659
3366.066 1.134 1.1171 1.1848 1.1435 1.1057 1.1234 1.0749 1.1185 1.1314 1.0947
3385.356 1.0006 0.9138 1.0796 1.1935 1.1156 1.1042 1.0811 1.0645 1.1126 1.053
3404.646 0.88725 0.85865 0.9575 0.997 1.1021 1.1276 0.9931 0.96 1.0363 1.0068
3423.936 0.9879 1.0482 0.9987 0.9347 0.9293 0.9586 1.1294 1.1503 1.0499 1.0107
3443.225 0.9187 0.9087 0.9855 0.9801 0.8954 0.86833 0.9121 0.943 0.9985 1.0003
3462.515 0.9401 0.901 0.87736 0.86169 0.87295 0.9479 0.9455 0.9758 0.9842 0.89167
3481.805 0.868 0.9189 0.9441 0.9228 0.88991 0.84841 0.8405 0.87505 0.84732 0.84221
3501.095 0.8964 0.8671 0.86555 0.82048 0.7318 0.7259 0.8073 0.86234 0.7757 0.7849
3520.385 0.82118 0.9166 1.0497 1.0069 0.87657 0.7768 0.86117 0.9269 0.89374 0.9205
3539.674 0.9048 0.87683 0.9123 0.9571 0.9348 0.792 0.7454 0.84364 0.83577 0.7561
3558.964 0.81303 0.9202 0.976 1.0358 1.0421 1.0566 1.0613 0.9628 0.82516 0.7392
3578.254 0.80735 0.922 0.9747 0.88656 0.83932 0.9145 0.88696 0.82374 0.800044 0.7797
3597.544 0.84075 0.87628 0.7927 0.808 0.82906 0.800207 0.83853 0.9562 0.996 0.9123
3616.833 0.86447 0.7864 0.86388 1.0749 1.1041 1.0452 0.9956 1.2074 1.5393 1.7602
3636.123 2.095 2.555 3.355 4.565 6.045 7.805 9.715 11.135 11.525 10.525
3655.413 8.335 5.935 3.925 2.565 1.855 1.4639 1.2249 0.9273 0.755 0.7813
3674.703 0.518 0.46 0.7543 0.9077 0.9219 0.9183 0.675 0.417 0.5 0.7229
3693.993 0.82055 0.7154 0.7541 0.7729 0.7284 0.677 0.518 0.45 0.551 0.591
3713.282 0.639 0.745 0.7718 0.7773 0.7432 0.739 0.7729 0.7309 0.666 0.563
3732.572 0.462 0.489 0.545 0.62 0.7036 0.531 0.228 0.292 0.227 0
3751.862 0.082 0.476 0.623 0.531 0.501 0.578 0.7384 0.7125 0.578 0.525
3771.152 0.587 0.668 0.7713 0.801561 0.7153 0.654 0.7072 0.7632 0.7191 0.707
3790.441 0.82503 0.7815 0.604 0.573 0.539 0.255 0.331 0.615 0.525 0.56
3809.731 0.641 0.635 0.466 0.247 0.386 0.498 0.463 0.583 0.692 0.651
3829.021 0.616 0.605 0.583 0.476 0.229 0.096 0.308 0.557 0.7159 0.7434
3848.311 0.601 0.377 0.092 0.161 0.605 0.691 0.586 0.662 0.49 0.439
3867.601 0.593 0.548 0.587 0.68 0.7319 0.7473 0.652 0.668 0.7138 0.572
3886.890 0.64 0.7443 0.614 0.635 0.7314 0.654 0.564 0.621 0.7256 0.7202
3906.180 0.79348 0.798049 0.674 0.7102 0.84727 0.80704 0.7314 0.7446 0.7218 0.81207
3925.470 0.7711 0.674 0.66 0.7196 0.7843 0.7535 0.7141 0.7228 0.7236 0.7163
3944.760 0.7809 0.88535 0.9053 0.804205 0.79149 0.79367 0.758 0.81501 0.9519 0.81238
3964.049 0.6998 0.84968 0.8056 0.7197 0.645 0.479 0.496 0.573 0.626 0.598
3983.339 0.524 0.68 0.7347 0.68 0.7119 0.7494 0.69 0.632 0.689 0.7484
##END=
