##TITLE=2-Amino-3-chloro-1,4-naphthoquinone
##JCAMP-DX=4.24
##DATA TYPE=INFRARED SPECTRUM
##ORIGIN=EPA-IR VAPOR PHASE LIBRARY
##OWNER=SRD/NIST
Collection (C) 2018 copyright by the U.S. Secretary of Commerce
on behalf of the United States of America. All rights reserved.
##CAS REGISTRY NO=2797-51-5
##MOLFORM=C 10 H 6 Cl N O 2
##$NIST SOURCE=MSDC-IR
##STATE=gas
##XUNITS=1/CM
##YUNITS=ABSORBANCE
##XFACTOR=1.
##YFACTOR=0.001
##DELTAX=1.92898
##FIRSTX=549.8
##LASTX=4000.7
##FIRSTY=1.692
##MAXX=4000.7
##MINX=549.759
##MAXY=0.054782
##MINY=0
##NPOINTS=1790
##XYDATA=(X++(Y..Y))
549.759 1.692 1.762 2.082 1.852 1.402 1.382 1.432 1.632 1.362 1.1411
569.049 1.412 1.392 1.382 1.1878 0.9426 1.592 2.032 2.212 2.312 2.032
588.339 2.022 1.982 1.842 1.962 2.132 1.962 1.702 1.682 1.432 1.452
607.628 1.372 1.482 1.852 1.652 1.412 1.342 1.532 1.682 1.632 1.442
626.918 1.352 1.312 1.272 1.542 1.912 2.022 1.792 1.842 2.122 2.042
646.208 2.192 2.482 2.652 3.192 3.592 3.572 3.672 3.782 3.762 3.422
665.498 3.052 2.662 2.522 2.782 2.862 3.202 3.632 4.112 4.342 4.632
684.787 5.052 4.642 4.382 4.262 3.902 3.682 3.542 3.432 3.612 3.832
704.077 4.142 4.772 5.572 6.322 7.012 7.652 7.912 8.562 9.482 9.182
723.367 7.752 6.592 5.882 5.222 4.422 3.582 2.982 2.812 2.772 2.482
742.657 2.372 2.362 2.372 2.412 2.402 2.312 2.292 2.372 2.472 2.672
761.947 2.812 2.722 2.622 2.802 2.942 3.112 3.512 3.892 4.302 4.442
781.236 4.782 5.172 5.232 5.002 4.762 4.572 4.322 4.242 3.952 3.832
800.526 4.072 4.602 4.832 4.822 5.242 5.542 5.672 5.742 5.522 5.732
819.816 5.872 5.832 5.842 5.642 5.822 5.862 5.622 5.912 6.372 6.632
839.106 6.882 7.462 8.262 8.932 9.292 9.332 8.912 8.262 7.462 6.422
858.395 5.202 3.842 2.982 2.512 2.302 2.182 2.102 2.182 2.202 2.272
877.685 2.362 2.232 2.422 2.602 2.432 2.292 2.202 2.252 2.442 2.662
896.975 2.532 2.392 2.412 2.562 2.392 2.302 2.552 2.672 2.532 2.222
916.265 2.012 2.192 2.522 2.442 2.542 2.642 2.452 2.312 2.362 2.352
935.555 2.212 2.012 2.082 2.382 2.272 2.312 2.582 2.602 2.472 2.392
954.844 2.372 2.162 2.282 2.492 2.382 2.522 2.712 2.802 2.732 2.542
974.134 2.452 2.592 2.542 2.432 2.732 2.822 2.782 3.112 3.462 3.862
993.424 4.432 4.442 4.492 5.302 5.912 5.962 5.772 5.722 5.612 5.012
1012.714 4.642 4.292 3.492 3.112 2.652 2.062 2.092 2.152 2.052 2.042
1032.003 1.762 1.982 2.442 2.412 2.482 2.042 1.712 1.832 1.622 1.412
1051.293 1.472 1.632 1.522 1.1107 1.0736 1.322 1.592 1.842 1.762 1.752
1070.583 1.842 1.842 2.162 2.242 1.862 2.222 2.592 2.012 2.072 2.372
1089.873 2.292 2.142 2.292 2.432 2.502 2.872 2.852 3.112 4.132 4.882
1109.163 5.322 5.982 5.862 5.812 5.742 5.402 4.962 4.442 4.732 4.952
1128.452 4.482 3.612 3.272 3.202 2.752 2.502 2.522 2.482 2.242 1.972
1147.742 1.772 1.592 1.742 1.662 1.912 2.342 2.212 1.972 1.832 1.592
1167.032 1.422 1.312 1.1828 1.292 1.362 1.462 1.712 1.902 1.982 1.892
1186.322 1.762 2.082 2.122 1.992 2.022 1.962 2.302 2.632 2.862 3.062
1205.611 3.382 3.642 4.012 4.552 4.732 4.982 5.042 5.272 5.192 4.412
1224.901 3.912 3.982 3.922 3.702 3.552 3.662 3.472 3.152 3.262 3.402
1244.191 3.582 3.902 4.272 4.662 5.232 5.992 6.762 7.822 9.662 12.032
1263.481 14.942 18.682 22.112 24.512 25.632 25.312 24.272 22.452 19.052 14.892
1282.771 11.692 9.842 9.142 9.112 9.242 9.302 9.312 9.252 9.112 8.672
1302.060 8.172 7.892 7.922 8.352 9.002 9.622 10.062 10.192 10.062 9.602
1321.350 8.772 7.742 6.712 5.792 4.942 4.282 3.872 3.692 3.632 3.672
1340.640 3.812 4.012 4.422 4.922 5.422 6.192 7.222 8.452 9.742 11.132
1359.930 12.472 13.602 14.482 15.042 15.202 14.862 14.152 13.122 11.912 10.652
1379.219 9.422 8.342 7.402 6.592 5.922 5.392 4.862 4.492 4.252 3.922
1398.509 3.552 3.172 2.902 2.682 2.512 2.362 2.212 2.052 1.852 1.752
1417.799 1.602 1.412 1.412 1.462 1.412 1.312 1.2222 1.1499 1.1359 1.0232
1437.089 0.9328 1.0038 1.0702 1.1124 1.1111 1.1615 1.2079 1.292 1.452 1.572
1456.378 1.612 1.522 1.582 1.592 1.442 1.362 1.332 1.1626 1.0585 1.1347
1475.668 1.1834 1.0731 1.0739 1.2074 1.1994 1.2007 1.1854 1.0987 1.0236 1.0659
1494.958 1.0711 1.0515 1.1528 1.1931 1.0632 0.8685 0.8592 1.0105 1.0626 1.1532
1514.248 1.2512 1.1912 1.1699 1.1431 1.1489 1.2266 1.282 1.382 1.512 1.612
1533.538 1.642 1.652 1.722 1.832 2.082 2.402 2.672 3.062 3.552 3.912
1552.827 4.302 4.742 4.992 5.062 5.212 5.382 5.462 5.632 5.782 6.062
1572.117 6.562 7.182 8.002 8.902 9.652 10.172 10.612 11.102 11.462 11.602
1591.407 11.682 11.892 12.242 12.702 13.232 13.772 14.542 15.742 17.352 19.652
1610.697 22.782 27.042 32.172 38.332 44.762 50.022 53.472 54.782 54.072 51.242
1629.986 46.462 39.842 32.202 24.462 18.262 13.892 10.812 8.812 7.472 6.572
1649.276 6.232 6.022 5.852 6.032 6.372 6.922 7.612 8.482 9.502 10.642
1668.566 11.762 12.862 14.052 15.432 17.092 18.822 20.692 22.402 23.712 24.502
1687.856 24.532 24.152 23.442 21.862 19.112 15.982 13.032 10.372 8.492 6.872
1707.146 5.702 4.762 3.962 3.392 2.982 2.632 2.392 2.232 2.132 2.022
1726.435 1.922 1.852 1.792 1.642 1.492 1.502 1.442 1.342 1.302 1.302
1745.725 1.2253 1.1726 1.1924 1.1719 1.2175 1.1543 1.0415 1.0053 0.9262 0.8451
1765.015 0.8895 0.9349 0.9568 0.9658 0.8792 0.8587 0.902 0.9333 0.8966 0.8717
1784.305 0.8531 0.7966 0.8196 0.8661 0.8444 0.7471 0.775 0.8955 0.8867 0.9064
1803.594 0.9104 0.8075 0.8288 0.8735 0.8148 0.7837 0.7692 0.7701 0.7044 0.7461
1822.884 0.8407 0.7982 0.8076 0.7662 0.7193 0.7841 0.7905 0.6903 0.6792 0.7279
1842.174 0.7045 0.704 0.8081 0.7766 0.6964 0.7724 0.8718 0.9092 0.8578 0.8878
1861.464 0.8896 0.8467 0.9256 0.9419 0.9058 0.8848 0.8516 0.844 0.7957 0.8077
1880.754 0.8361 0.7972 0.773 0.7587 0.7556 0.7444 0.7366 0.6767 0.6215 0.6325
1900.043 0.6288 0.6366 0.6239 0.5759 0.6279 0.6454 0.6578 0.6913 0.6773 0.6422
1919.333 0.6346 0.6732 0.6322 0.6683 0.7365 0.7089 0.6643 0.7393 0.7773 0.7214
1938.623 0.7281 0.7824 0.8383 0.8403 0.8158 0.8047 0.8085 0.82 0.8063 0.7852
1957.913 0.7877 0.8102 0.8136 0.8395 0.8902 0.8656 0.8356 0.8083 0.7913 0.8152
1977.202 0.8207 0.7678 0.7777 0.8074 0.7826 0.7846 0.7228 0.665 0.6273 0.5795
1996.492 0.6314 0.6552 0.6522 0.6471 0.6303 0.6702 0.6691 0.6019 0.6498 0.6937
2015.782 0.6168 0.6309 0.6982 0.6647 0.6237 0.6257 0.5787 0.5714 0.6064 0.5438
2035.072 0.5071 0.551 0.5607 0.5786 0.5461 0.5435 0.6393 0.6267 0.6135 0.5819
2054.362 0.4954 0.5413 0.5758 0.5676 0.6109 0.5886 0.5238 0.5237 0.5533 0.5865
2073.651 0.5794 0.5666 0.5584 0.535 0.5252 0.5371 0.5896 0.634 0.5869 0.5037
2092.941 0.5005 0.5754 0.5971 0.5367 0.5676 0.6157 0.5526 0.5272 0.5605 0.5775
2112.231 0.5841 0.5852 0.5726 0.5355 0.5476 0.568 0.5974 0.5433 0.5061 0.5272
2131.521 0.598 0.575 0.5112 0.5583 0.5069 0.5258 0.5292 0.4903 0.5133 0.5305
2150.810 0.5393 0.556 0.5762 0.5 0.4483 0.5259 0.5453 0.574 0.626 0.6081
2170.100 0.5871 0.5115 0.4821 0.5059 0.4673 0.5085 0.5497 0.5356 0.5477 0.5631
2189.390 0.5576 0.5597 0.4898 0.4323 0.4546 0.4077 0.5145 0.5993 0.527 0.5677
2208.680 0.5622 0.4902 0.5146 0.462 0.4758 0.5642 0.5491 0.5382 0.489 0.4196
2227.970 0.34761 0.3873 0.4392 0.4197 0.4788 0.5223 0.5358 0.528 0.5729 0.5215
2247.259 0.4643 0.523 0.5024 0.4306 0.4465 0.5781 0.5639 0.4963 0.4606 0.4454
2266.549 0.4786 0.4203 0.3846 0.4572 0.4999 0.5538 0.6102 0.5794 0.5299 0.5465
2285.839 0.6004 0.6129 0.5933 0.5759 0.5498 0.4703 0.4874 0.5188 0.4781 0.5007
2305.129 0.4716 0.4626 0.5859 0.5692 0.4862 0.5064 0.6166 0.6252 0.5424 0.4875
2324.418 0.385 0.4941 0.6124 0.5224 0.4446 0.4622 0.4588 0.5219 0.5017 0.4126
2343.708 0.4349 0.4769 0.4634 0.4402 0.4873 0.542 0.5493 0.4958 0.4151 0.4415
2362.998 0.4955 0.4631 0.5183 0.4968 0.4965 0.5989 0.5132 0.4249 0.5152 0.5422
2382.288 0.5142 0.5681 0.5134 0.4846 0.5041 0.4964 0.472 0.4648 0.4959 0.5216
2401.578 0.5813 0.5667 0.4752 0.4046 0.3908 0.3913 0.3791 0.4456 0.4393 0.3907
2420.867 0.5181 0.5843 0.6038 0.5361 0.4206 0.408 0.4593 0.473 0.3835 0.4439
2440.157 0.5142 0.4386 0.4371 0.4649 0.4262 0.4206 0.4035 0.4457 0.4054 0.3513
2459.447 0.4474 0.4371 0.4116 0.4864 0.5831 0.5102 0.3965 0.3943 0.4201 0.4069
2478.737 0.33661 0.3921 0.4917 0.447 0.4094 0.4532 0.4533 0.4743 0.5227 0.5071
2498.026 0.35486 0.28143 0.267191 0.2417 0.32274 0.385 0.3871 0.32858 0.35267 0.4101
2517.316 0.451 0.4668 0.3657 0.263996 0.31206 0.3639 0.4469 0.5078 0.4821 0.4306
2536.606 0.3803 0.3982 0.3773 0.3745 0.4463 0.5157 0.5094 0.4241 0.34313 0.28678
2555.896 0.34898 0.4814 0.5233 0.467 0.397 0.4173 0.4229 0.3748 0.4196 0.3903
2575.186 0.31328 0.35945 0.4098 0.4764 0.507 0.4465 0.3647 0.3775 0.4823 0.5181
2594.475 0.4963 0.452 0.3928 0.3838 0.3685 0.425 0.4539 0.3936 0.34493 0.3912
2613.765 0.4819 0.4941 0.4292 0.4791 0.5041 0.4523 0.5171 0.4512 0.4235 0.5394
2633.055 0.5033 0.4952 0.5505 0.4781 0.4445 0.4238 0.4552 0.4804 0.4762 0.4331
2652.345 0.36085 0.4158 0.4027 0.3523 0.3702 0.388 0.4009 0.4167 0.4927 0.444
2671.634 0.35966 0.4351 0.4262 0.4277 0.504 0.396 0.33795 0.3953 0.35295 0.414
2690.924 0.4962 0.4419 0.4341 0.4595 0.5457 0.6042 0.4363 0.3839 0.4243 0.461
2710.214 0.4965 0.4885 0.4986 0.5096 0.4144 0.30403 0.384 0.4114 0.4736 0.5018
2729.504 0.4115 0.4062 0.4064 0.34045 0.32935 0.3926 0.4359 0.4557 0.4496 0.4339
2748.794 0.4484 0.4445 0.3814 0.3646 0.376 0.3757 0.34223 0.33668 0.36091 0.34062
2768.083 0.3787 0.4227 0.3867 0.33995 0.3782 0.3897 0.35626 0.4307 0.4688 0.4045
2787.373 0.4049 0.4234 0.31902 0.4172 0.5346 0.481 0.5121 0.4505 0.3686 0.3852
2806.663 0.4533 0.4782 0.4879 0.4109 0.4011 0.5302 0.4923 0.4078 0.3849 0.4208
2825.953 0.33514 0.184 0.2164 0.30551 0.3777 0.34338 0.3662 0.34338 0.2488 0.31353
2845.242 0.366 0.28979 0.2361 0.29296 0.31392 0.3817 0.37 0.32578 0.3912 0.4351
2864.532 0.33183 0.29692 0.512 0.5526 0.3995 0.3971 0.3875 0.4413 0.5259 0.4811
2883.822 0.4412 0.4155 0.4218 0.4149 0.4704 0.4708 0.4158 0.3716 0.33094 0.4091
2903.112 0.4503 0.4289 0.4323 0.4408 0.3163 0.1731 0.249 0.33083 0.4067 0.4029
2922.401 0.32409 0.35701 0.4104 0.4657 0.29908 0.2101 0.31925 0.4197 0.4922 0.452
2941.691 0.4771 0.4705 0.4058 0.4081 0.4314 0.4942 0.5019 0.4325 0.3624 0.3885
2960.981 0.4906 0.5002 0.3932 0.4155 0.4312 0.35589 0.4128 0.472 0.6029 0.6367
2980.271 0.6101 0.5869 0.5305 0.5858 0.6062 0.5451 0.5352 0.6042 0.5383 0.56
2999.561 0.6158 0.5217 0.5231 0.6149 0.7106 0.6684 0.5094 0.5368 0.6194 0.6644
3018.850 0.628 0.5163 0.6107 0.6159 0.6423 0.7104 0.5667 0.5864 0.6049 0.516
3038.140 0.6166 0.6396 0.6167 0.6908 0.6366 0.4854 0.6508 0.8394 0.6946 0.5563
3057.430 0.6489 0.8574 0.9272 0.9469 1.0919 1.362 1.632 2.002 2.432 2.742
3076.720 2.932 3.312 3.572 3.352 2.932 2.472 2.042 1.662 1.292 0.9864
3096.009 0.8649 0.7198 0.693 0.6818 0.6198 0.6032 0.4693 0.434 0.4768 0.3886
3115.299 0.366 0.4827 0.5322 0.43 0.33485 0.2332 0.196 0.30351 0.4033 0.468
3134.589 0.35757 0.3907 0.3971 0.28912 0.25983 0.35947 0.4404 0.435 0.4071 0.36055
3153.879 0.2429 0.1951 0.33943 0.28912 0.27363 0.3963 0.4564 0.4085 0.34262 0.34339
3173.169 0.2408 0.29439 0.35409 0.3736 0.31691 0.28366 0.34101 0.29933 0.1674 0.1931
3192.458 0.4885 0.5297 0.4202 0.2538 0.27579 0.33675 0.3747 0.4735 0.4899 0.4551
3211.748 0.372 0.3937 0.28338 0.116 0.30111 0.4605 0.414 0.3663 0.4135 0.6295
3231.038 0.5539 0.3918 0.405 0.32834 0.404 0.5456 0.7009 0.6342 0.428 0.3855
3250.328 0.4711 0.4469 0.35795 0.4111 0.4114 0.3837 0.3727 0.5078 0.5875 0.5861
3269.617 0.4798 0.3859 0.5078 0.5276 0.5304 0.4961 0.32614 0.34278 0.4906 0.5269
3288.907 0.4267 0.4991 0.6509 0.6465 0.7166 0.6467 0.4429 0.4367 0.4573 0.3734
3308.197 0.4833 0.5293 0.4847 0.6225 0.6795 0.6985 0.7356 0.4846 0.4935 0.8919
3327.487 0.96 0.9612 1.0259 0.9225 0.7957 0.7615 0.7944 0.7137 0.6177 0.7141
3346.777 0.7475 0.6944 0.6871 0.6333 0.5858 0.6776 0.7542 0.6784 0.7662 0.8828
3366.066 0.8761 0.7791 0.8111 0.951 0.9697 1.1179 1.322 1.552 1.692 1.872
3385.356 2.262 2.632 2.922 3.262 3.802 4.252 4.842 5.432 6.002 6.732
3404.646 7.172 7.482 7.802 7.972 7.762 7.362 6.832 6.292 5.642 4.892
3423.936 4.082 3.032 2.262 1.782 1.422 1.2279 1.0238 0.8048 0.8562 0.9715
3443.225 0.7676 0.516 0.5659 0.7236 0.8319 0.8417 0.6678 0.6752 0.7003 0.675
3462.515 0.731 0.711 0.8418 0.9667 0.797 0.7835 1.0622 1.2221 1.2522 1.2092
3481.805 1.1439 1.1569 1.1577 1.282 1.332 1.282 1.482 1.602 1.702 2.142
3501.095 2.402 2.432 2.562 2.762 3.162 3.472 3.602 3.652 3.852 4.112
3520.385 4.232 4.342 4.492 4.682 4.792 4.722 4.502 4.352 3.902 3.542
3539.674 3.112 2.402 1.962 1.682 1.322 1.0539 0.8919 0.7445 0.712 0.6518
3558.964 0.6685 0.664 0.3783 0.269115 0.3979 0.4787 0.5715 0.47 0.3827 0.476
3578.254 0.3811 0.31772 0.4719 0.4978 0.31393 0.2418 0.34169 0.1877 0.115 0.3825
3597.544 0.5027 0.34987 0.28586 0.28386 0.2494 0.29133 0.4063 0.3416 0.28675 0.27342
3616.833 0.29158 0.4917 0.4842 0.31672 0.2025 0.09 0.132 0.181 0.154 0.32535
3636.123 0.34996 0.5029 0.4809 0.3674 0.3864 0.1791 0.088 0.3265 0.4572 0.30912
3655.413 0.262481 0.488 0.517 0.29616 0.34293 0.4078 0.4137 0.30839 0.2109 0.062
3674.703 0.051 0.30545 0.35997 0.2378 0.1633 0.2174 0.31914 0.471 0.4291 0.28414
3693.993 0.3832 0.4079 0.31709 0.30162 0.104 0.014 0.152 0.213 0.2481 0.142
3713.282 0.138 0.1973 0.144 0.107 0.095 0.156 0.262968 0.261709 0.189 0.2141
3732.572 0.35723 0.4902 0.35422 0.27994 0.28719 0.14 0.105 0.29888 0.3835 0.25719
3751.862 0.1827 0.3178 0.373 0.30627 0.261157 0.2517 0.3962 0.32143 0.2181 0.3743
3771.152 0.34991 0.4622 0.5647 0.4003 0.2156 0.30063 0.33546 0.118 0.25848 0.2227
3790.441 0.077 0.157 0.1806 0.101 0.1634 0.25265 0.1647 0.107 0.116 0.1838
3809.731 0.35688 0.4058 0.32844 0.28569 0.2194 0.151 0.2287 0.3652 0.3447 0.4031
3829.021 0.3798 0.32387 0.2341 0.144 0.134 0.145 0.34796 0.4523 0.3947 0.28328
3848.311 0.35585 0.34248 0.102 0.031 0.1946 0.3655 0.34036 0.4065 0.3661 0.1877
3867.601 0.103 0.098 0.136 0.101 0.151 0.33177 0.34513 0.30832 0.29221 0.2387
3886.890 0.1941 0.026 0.005 0.1847 0.4894 0.448 0.1706 0.1814 0.271946 0.3057
3906.180 0.30536 0.31902 0.26016 0.27907 0.3446 0.27474 0.3403 0.416 0.34713 0.29894
3925.470 0.2098 0.075 0.075 0.117 0.094 0.34654 0.5406 0.35861 0.2019 0.133
3944.760 0.179 0.2497 0.32807 0.269061 0.098 0.183 0.3789 0.5864 0.5207 0.3967
3964.049 0.270132 0.29089 0.25408 0.1765 0.34475 0.2167 0.119 0.094 0 0.1672
3983.339 0.35803 0.16 0.024 0.1666 0.25573 0.2317 0.1827 0.3096 0.30993 0.1786
##END=
