##TITLE=3-Bromopropyl isothiocyanate
##JCAMP-DX=4.24
##DATA TYPE=INFRARED SPECTRUM
##ORIGIN=EPA-IR VAPOR PHASE LIBRARY
##OWNER=SRD/NIST
Collection (C) 2018 copyright by the U.S. Secretary of Commerce
on behalf of the United States of America. All rights reserved.
##CAS REGISTRY NO=2799-73-7
##MOLFORM=C 4 H 6 Br N S
##$NIST SOURCE=MSDC-IR
##STATE=gas
##XUNITS=1/CM
##YUNITS=ABSORBANCE
##XFACTOR=1.
##YFACTOR=0.001
##DELTAX=1.92898
##FIRSTX=549.8
##LASTX=4000.7
##FIRSTY=11.428
##MAXX=4000.7
##MINX=549.759
##MAXY=0.344978
##MINY=0
##NPOINTS=1790
##XYDATA=(X++(Y..Y))
549.759 11.428 11.318 11.278 11.428 11.438 11.398 11.348 11.288 11.558 11.768
569.049 11.768 11.908 11.658 11.368 10.958 10.388 9.888 9.058 8.368 7.828
588.339 7.288 6.548 6.148 5.888 5.328 4.908 4.428 4.218 4.218 3.848
607.628 3.658 3.568 3.418 3.258 3.018 3.058 2.918 2.828 3.088 3.168
626.918 3.178 3.228 3.218 3.238 3.488 3.608 3.548 3.638 3.698 3.988
646.208 4.328 4.408 4.548 4.758 4.758 4.888 5.078 5.138 5.198 5.068
665.498 4.838 4.488 4.218 4.038 3.878 3.738 3.468 3.328 3.338 3.128
684.787 2.978 3.028 2.948 2.658 2.758 2.828 2.668 2.788 2.788 2.858
704.077 2.988 2.928 2.788 2.758 2.898 2.868 2.728 2.538 2.308 2.198
723.367 2.028 1.788 1.748 1.808 1.808 1.828 1.818 1.818 1.628 1.608
742.657 1.808 1.808 1.778 1.968 2.258 2.498 2.668 2.898 3.098 3.448
761.947 4.058 4.578 4.968 5.458 6.088 6.688 7.318 8.038 8.878 9.608
781.236 10.008 10.028 9.698 9.288 8.918 8.318 7.638 6.738 5.778 5.218
800.526 4.758 4.438 4.238 4.058 3.898 3.588 3.398 3.348 2.998 2.828
819.816 2.848 2.878 2.978 2.948 3.038 3.048 2.968 2.848 2.848 2.738
839.106 2.678 2.748 2.808 2.938 2.858 2.848 2.808 2.838 3.138 3.188
858.395 3.158 3.178 3.148 2.968 2.698 2.728 2.528 2.308 2.288 2.128
877.685 2.088 2.068 1.838 1.808 1.748 1.638 1.668 1.648 1.588 1.638
896.975 1.668 1.678 1.728 1.798 1.938 2.168 2.338 2.238 2.318 2.488
916.265 2.648 2.828 2.928 3.038 3.048 3.158 3.598 4.008 4.098 4.288
935.555 4.598 4.948 5.138 5.208 5.228 5.128 5.138 5.128 5.108 4.998
954.844 4.778 4.548 4.268 4.238 4.178 4.098 4.128 4.168 4.168 4.178
974.134 4.358 4.478 4.338 4.128 4.148 3.968 3.508 3.218 3.168 3.158
993.424 3.178 3.088 2.948 3.078 3.348 3.668 4.018 4.308 4.628 4.668
1012.714 4.628 4.718 4.688 4.648 4.788 4.548 4.078 3.928 3.608 3.428
1032.003 3.618 3.488 3.228 3.258 3.408 3.408 3.068 2.838 2.998 3.088
1051.293 3.158 3.138 3.298 3.518 3.508 3.438 3.208 3.328 3.418 3.298
1070.583 3.398 3.278 3.228 3.258 3.028 3.078 3.208 3.048 3.208 3.228
1089.873 3.088 3.178 3.158 3.358 3.518 3.288 3.198 3.138 3.078 3.408
1109.163 3.518 3.388 3.388 3.938 4.278 4.398 4.248 4.038 4.048 3.848
1128.452 3.778 3.538 3.558 3.358 3.298 3.348 3.228 3.368 3.558 3.788
1147.742 3.758 3.698 3.898 3.788 3.528 3.608 3.528 3.538 3.798 3.758
1167.032 3.828 3.858 3.818 3.928 4.178 4.308 4.548 4.918 4.958 5.428
1186.322 5.978 6.438 6.798 7.138 7.878 8.498 8.968 9.448 9.808 9.788
1205.611 9.918 10.308 10.458 10.738 10.708 10.408 10.588 10.648 10.318 9.798
1224.901 8.858 7.948 7.728 7.348 7.258 7.248 7.098 7.438 7.978 8.808
1244.191 9.668 10.838 12.588 14.858 17.768 21.068 23.738 25.498 26.318 26.368
1263.481 25.988 25.308 23.708 21.088 18.778 17.288 16.888 17.138 17.668 18.318
1282.771 18.798 19.078 19.108 18.968 18.778 18.248 17.288 16.008 14.508 13.168
1302.060 12.048 11.088 10.378 9.898 9.658 9.628 9.688 9.808 9.948 10.268
1321.350 10.678 11.178 12.058 13.258 14.788 16.698 18.958 21.598 24.748 28.498
1340.640 32.738 37.338 41.828 45.618 48.178 49.238 49.138 48.278 46.518 43.798
1359.930 40.088 35.728 31.688 28.578 26.178 24.128 22.108 19.958 17.788 15.738
1379.219 13.738 11.668 9.708 8.198 7.158 6.478 6.018 5.658 5.368 5.098
1398.509 4.868 4.698 4.558 4.368 4.278 4.288 4.248 4.248 4.428 4.708
1417.799 5.038 5.558 6.098 6.638 7.268 7.918 8.638 9.368 10.418 11.778
1437.089 13.218 14.458 15.318 15.958 16.688 17.598 18.558 19.768 21.198 22.458
1456.378 23.528 24.158 24.208 23.768 22.728 20.818 17.948 14.618 11.388 8.688
1475.668 6.788 5.518 4.638 3.928 3.398 3.028 2.768 2.598 2.398 2.268
1494.958 2.118 1.958 1.828 1.718 1.668 1.578 1.498 1.448 1.3736 1.3341
1514.248 1.309 1.2379 1.2139 1.2568 1.2769 1.2098 1.1389 1.1354 1.2097 1.1946
1533.538 1.1122 1.1484 1.1236 1.0441 1.0514 1.0233 0.9369 0.9346 0.9905 1.019
1552.827 0.9552 0.9475 0.9289 0.8748 0.9339 0.9617 0.9105 0.935 0.9218 0.8298
1572.117 0.8625 0.9247 0.987 1.0099 0.9902 0.9448 0.8943 0.864 0.8935 0.8884
1591.407 0.8386 0.8711 0.8716 0.8294 0.8473 0.8911 0.9319 0.8686 0.745 0.73
1610.697 0.8009 0.811 0.8138 0.7944 0.7933 0.8336 0.7713 0.7692 0.8272 0.8597
1629.986 0.8731 0.8344 0.8401 0.8693 0.8319 0.8644 0.8893 0.8346 0.8058 0.7776
1649.276 0.7158 0.7672 0.8833 0.8314 0.7726 0.8234 0.8015 0.7278 0.7104 0.7171
1668.566 0.7231 0.7576 0.8108 0.8012 0.7764 0.7569 0.7122 0.7334 0.7586 0.7816
1687.856 0.7862 0.7968 0.7928 0.7667 0.8236 0.8321 0.8296 0.8525 0.8086 0.7519
1707.146 0.7859 0.8185 0.8219 0.84 0.7981 0.8198 0.8535 0.8203 0.7636 0.7383
1726.435 0.7814 0.7918 0.7211 0.7376 0.8436 0.8291 0.7916 0.7675 0.776 0.7749
1745.725 0.7555 0.7926 0.7855 0.784 0.8443 0.8346 0.8339 0.8639 0.9106 0.9112
1765.015 0.8768 0.8928 0.8525 0.8584 0.9057 0.9012 0.9056 0.9496 0.9696 0.9416
1784.305 0.9908 1.0352 1.0264 1.0686 1.094 1.0649 1.0562 1.0939 1.1378 1.153
1803.594 1.2019 1.1833 1.2085 1.2798 1.2464 1.2865 1.3372 1.3496 1.398 1.468
1822.884 1.518 1.498 1.488 1.598 1.708 1.718 1.668 1.698 1.758 1.838
1842.174 1.828 1.918 2.058 2.128 2.238 2.298 2.338 2.398 2.508 2.668
1861.464 2.818 2.908 3.018 3.168 3.278 3.398 3.498 3.638 3.818 3.908
1880.754 4.128 4.368 4.538 4.738 4.908 5.088 5.308 5.568 5.828 6.078
1900.043 6.398 6.628 6.928 7.308 7.668 8.038 8.388 8.818 9.268 9.658
1919.333 10.158 10.678 11.188 11.758 12.238 12.848 13.528 14.138 14.788 15.458
1938.623 16.178 16.978 17.838 18.598 19.408 20.318 21.308 22.358 23.408 24.568
1957.913 25.828 27.168 28.598 30.118 31.798 33.608 35.528 37.628 39.838 42.288
1977.202 44.898 47.698 50.798 54.128 57.758 61.638 65.768 70.268 75.078 80.158
1996.492 85.598 91.498 97.668 104.128 110.988 118.208 125.818 133.788 142.098 150.788
2015.782 159.878 169.358 179.098 189.208 199.658 210.428 221.508 232.688 243.908 255.168
2035.072 266.388 277.378 288.038 298.298 307.998 316.868 324.738 331.588 337.208 341.398
2054.362 344.058 344.978 344.238 341.758 337.408 331.098 322.828 312.728 300.658 286.678
2073.651 271.208 254.738 237.718 220.428 203.358 186.868 171.298 157.018 144.088 132.468
2092.941 122.318 113.598 105.998 99.308 93.478 88.368 83.968 80.288 77.148 74.478
2112.231 72.248 70.438 68.898 67.518 66.208 64.968 63.678 62.448 61.228 59.958
2131.521 58.748 57.558 56.388 55.258 54.168 53.198 52.268 51.308 50.618 50.098
2150.810 49.558 49.118 48.758 48.398 48.018 47.668 47.228 46.708 46.178 45.448
2170.100 44.638 43.808 42.918 42.018 41.128 40.288 39.548 38.848 38.128 37.558
2189.390 37.068 36.548 36.018 35.398 34.788 34.208 33.508 32.758 31.958 31.088
2208.680 30.248 29.448 28.538 27.528 26.448 25.408 24.358 23.218 22.128 21.118
2227.970 20.088 19.018 18.058 17.208 16.458 15.688 14.948 14.278 13.638 13.078
2247.259 12.518 12.018 11.608 11.118 10.558 10.128 9.748 9.328 8.938 8.538
2266.549 8.118 7.808 7.568 7.258 6.958 6.698 6.498 6.288 6.008 5.778
2285.839 5.588 5.408 5.188 4.978 4.808 4.588 4.358 4.198 4.098 3.908
2305.129 3.698 3.608 3.468 3.348 3.338 3.188 2.998 2.878 2.778 2.708
2324.418 2.638 2.508 2.428 2.308 2.148 2.058 1.938 1.898 1.888 1.878
2343.708 1.898 1.828 1.738 1.668 1.538 1.408 1.438 1.518 1.498 1.408
2362.998 1.352 1.388 1.3667 1.3156 1.2287 1.224 1.2754 1.2613 1.1759 1.1328
2382.288 1.2273 1.1951 1.1695 1.1516 1.0837 1.0976 1.0939 1.09 1.1303 1.1235
2401.578 1.0423 1.0486 1.0977 1.0631 1.0699 1.0949 1.023 1.0181 1.0571 1.0272
2420.867 0.9874 1.0199 1.0499 1.0236 0.9957 0.9909 1.0287 1.011 0.982 0.992
2440.157 1.0677 1.0871 1.0015 1.0245 1.0735 1.0743 1.0826 1.1035 1.1464 1.1358
2459.447 1.1602 1.1786 1.1561 1.1788 1.1468 1.1141 1.0989 1.1763 1.2509 1.1969
2478.737 1.2262 1.2435 1.2411 1.2656 1.2274 1.1964 1.1859 1.2215 1.2639 1.1872
2498.026 1.1378 1.2485 1.3431 1.28 1.2759 1.3134 1.3078 1.2814 1.2777 1.3149
2517.316 1.3288 1.3516 1.3179 1.3003 1.3044 1.3425 1.3226 1.297 1.398 1.398
2536.606 1.3724 1.438 1.438 1.438 1.508 1.558 1.538 1.458 1.518 1.618
2555.896 1.648 1.618 1.528 1.538 1.688 1.758 1.818 1.858 1.858 1.848
2575.186 1.738 1.758 1.808 1.768 1.708 1.658 1.568 1.528 1.578 1.528
2594.475 1.478 1.428 1.2639 1.2114 1.213 1.1586 1.2004 1.2119 1.2307 1.2612
2613.765 1.2097 1.2106 1.2167 1.1649 1.1305 1.1759 1.1989 1.1278 1.1697 1.2724
2633.055 1.2046 1.1105 1.1793 1.1768 1.1626 1.2445 1.2629 1.246 1.3234 1.3762
2652.345 1.3563 1.3714 1.3439 1.326 1.428 1.568 1.538 1.478 1.618 1.698
2671.634 1.718 1.738 1.778 1.868 2.018 2.118 2.168 2.318 2.378 2.458
2690.924 2.618 2.708 2.808 2.928 3.048 3.188 3.248 3.228 3.388 3.608
2710.214 3.728 3.878 4.038 4.188 4.288 4.408 4.568 4.758 4.968 5.098
2729.504 5.198 5.218 5.288 5.418 5.448 5.428 5.338 5.228 5.098 5.008
2748.794 4.878 4.638 4.368 4.248 4.258 4.078 3.848 3.628 3.388 3.318
2768.083 3.178 3.038 3.118 2.998 2.778 2.668 2.608 2.578 2.498 2.488
2787.373 2.348 2.278 2.248 2.218 2.238 2.188 2.238 2.208 2.108 2.048
2806.663 2.158 2.218 2.208 2.218 2.208 2.178 2.098 2.068 2.158 2.258
2825.953 2.298 2.358 2.428 2.508 2.658 2.758 2.748 2.868 3.008 3.078
2845.242 3.158 3.178 3.238 3.408 3.518 3.628 3.808 3.908 4.158 4.448
2864.532 4.748 4.988 5.348 5.968 6.528 7.048 7.528 8.038 8.618 9.028
2883.822 9.328 9.668 9.928 10.078 10.118 9.988 9.828 9.558 9.138 8.938
2903.112 8.858 8.808 8.808 8.808 8.848 8.948 8.978 9.068 9.298 9.488
2922.401 9.708 9.928 10.218 10.518 10.758 11.118 11.558 12.248 12.988 13.828
2941.691 15.038 16.518 17.998 19.588 21.348 22.988 24.288 25.118 25.758 26.418
2960.981 26.738 26.308 25.368 24.318 23.218 21.928 20.408 19.028 17.668 16.328
2980.271 15.218 13.918 12.538 11.388 10.148 8.988 8.098 7.228 6.468 5.888
2999.561 5.378 4.968 4.568 4.368 4.358 4.258 4.328 4.438 4.468 4.548
3018.850 4.538 4.388 4.168 4.028 3.778 3.388 3.088 2.728 2.318 2.068
3038.140 1.878 1.658 1.488 1.3704 1.3002 1.1575 1.0042 0.9775 1.0403 0.98
3057.430 0.8743 0.8496 0.8246 0.8 0.7609 0.6994 0.7803 0.7585 0.6756 0.729
3076.720 0.7061 0.8068 0.8699 0.5876 0.4564 0.6376 0.6032 0.5371 0.5561 0.5277
3096.009 0.42862 0.4587 0.5857 0.6026 0.604 0.5161 0.44685 0.3348 0.261 0.252
3115.299 0.3129 0.42723 0.44675 0.45039 0.3363 0.3356 0.4955 0.45041 0.40963 0.5504
3134.589 0.5972 0.44733 0.3309 0.40023 0.42789 0.40839 0.46832 0.43456 0.3504 0.246
3153.879 0.3419 0.5144 0.43716 0.389874 0.41562 0.4898 0.48023 0.2953 0.43466 0.5244
3173.169 0.3617 0.42803 0.38421 0.252 0.214 0.212 0.172 0.215 0.14 0.146
3192.458 0.168 0.154 0.288 0.3466 0.3427 0.3381 0.40466 0.3554 0.274 0.126
3211.748 0.213 0.3197 0.3382 0.286 0.12 0.09 0.124 0.149 0.202 0.237
3231.038 0.142 0.063 0.041 0.091 0.1 0.231 0.387556 0.286 0.106 0.092
3250.328 0.082 0.047 0.163 0.257 0.263 0.252 0.173 0.122 0.257 0.3025
3269.617 0.217 0.196 0.251 0.191 0.168 0.141 0 0.116 0.28 0.2936
3288.907 0.13 0.103 0.217 0.196 0.189 0.2 0.25 0.3021 0.3239 0.286
3308.197 0.134 0.06 0.167 0.173 0.086 0.12 0.187 0.263 0.286 0.166
3327.487 0.154 0.4087 0.40293 0.38335 0.43611 0.33 0.267 0.258 0.3038 0.40183
3346.777 0.40719 0.3543 0.282 0.3167 0.3519 0.367 0.2966 0.128 0.192 0.3795
3366.066 0.3735 0.251 0.181 0.159 0.286 0.289 0.264 0.42441 0.40696 0.222
3385.356 0.3511 0.41412 0.215 0.13 0.143 0.3188 0.390828 0.236 0.217 0.3021
3404.646 0.274 0.158 0.202 0.28 0.3002 0.264 0.198 0.148 0.233 0.274
3423.936 0.194 0.206 0.42535 0.47658 0.3234 0.3253 0.38583 0.3845 0.196 0.217
3443.225 0.3011 0.3037 0.41059 0.5093 0.5343 0.40288 0.3667 0.3985 0.374 0.43993
3462.515 0.47876 0.227 0.119 0.3308 0.3666 0.43779 0.45069 0.41494 0.44478 0.3172
3481.805 0.4151 0.4896 0.3301 0.3422 0.392486 0.3341 0.3243 0.3625 0.38327 0.3652
3501.095 0.3286 0.223 0.228 0.3547 0.39955 0.3538 0.43156 0.47201 0.3108 0.3589
3520.385 0.5886 0.6124 0.45169 0.42319 0.42606 0.45694 0.5199 0.361 0.41633 0.4515
3539.674 0.3145 0.3025 0.38654 0.41305 0.40207 0.40125 0.4947 0.5213 0.389454 0.3382
3558.964 0.3511 0.45398 0.3702 0.3709 0.390919 0.43043 0.47918 0.414 0.44305 0.5114
3578.254 0.5101 0.5374 0.4951 0.41131 0.42569 0.46033 0.43741 0.5422 0.6341 0.5312
3597.544 0.44144 0.3198 0.3674 0.5711 0.46046 0.3672 0.394133 0.266 0.186 0.3411
3616.833 0.5186 0.3368 0.203 0.42723 0.4272 0.266 0.3192 0.4296 0.5665 0.6457
3636.123 0.5639 0.397943 0.523 0.6529 0.459 0.3542 0.43998 0.42458 0.3368 0.3645
3655.413 0.47307 0.6031 0.5945 0.4171 0.3074 0.316 0.3615 0.40544 0.44905 0.4524
3674.703 0.37906 0.397883 0.47275 0.4082 0.3716 0.2987 0.43031 0.44631 0.246 0.3314
3693.993 0.40198 0.41197 0.48182 0.45288 0.3562 0.40404 0.42167 0.45947 0.39826 0.3752
3713.282 0.46117 0.5706 0.5624 0.5343 0.6597 0.5371 0.3769 0.42064 0.392476 0.41448
3732.572 0.5576 0.44149 0.3561 0.5289 0.5259 0.5275 0.6409 0.5677 0.47717 0.5318
3751.862 0.6556 0.5574 0.41765 0.3686 0.253 0.3779 0.46525 0.39142 0.47055 0.5328
3771.152 0.46422 0.5515 0.511 0.44688 0.46287 0.3579 0.3676 0.41004 0.47142 0.5005
3790.441 0.6144 0.7085 0.627 0.559 0.5752 0.6429 0.5251 0.43001 0.5129 0.45161
3809.731 0.391001 0.4988 0.604 0.6016 0.6518 0.5896 0.5812 0.6169 0.5806 0.573
3829.021 0.6276 0.7419 0.7091 0.621 0.43138 0.389662 0.48331 0.4969 0.45797 0.42032
3848.311 0.48567 0.6848 0.7027 0.6892 0.6652 0.6014 0.7334 0.8093 0.7084 0.6686
3867.601 0.5762 0.46049 0.6136 0.6973 0.6292 0.5016 0.5897 0.6808 0.589 0.6421
3886.890 0.736 0.7249 0.8246 0.756 0.7045 0.7823 0.7218 0.755 0.7556 0.7162
3906.180 0.6361 0.5407 0.6067 0.6854 0.7058 0.784 0.769 0.6909 0.6573 0.7046
3925.470 0.6623 0.6487 0.7543 0.8696 1.0453 1.1288 1.006 1.0063 1.0312 0.8802
3944.760 0.8578 0.7676 0.8641 1.0334 0.8612 0.887 1.0843 1.0926 0.9966 0.9241
3964.049 0.9169 1.0331 1.1944 1.2629 1.1902 1.2102 1.2951 1.2031 1.2493 1.3042
3983.339 1.232 1.2067 1.2652 1.2036 1.1435 1.237 1.398 1.3822 1.3169 1.498
##END=
