##TITLE=Bicyclo[2.2.2]octane
##JCAMP-DX=4.24
##DATA TYPE=INFRARED SPECTRUM
##ORIGIN=NIST Mass Spectrometry Data Center
##OWNER=NIST Standard Reference Data Program
Collection (C) 2018 copyright by the U.S. Secretary of Commerce
on behalf of the United States of America. All rights reserved.
##CAS REGISTRY NO=280-33-1
##MOLFORM=C 8 H 14
##$NIST SOURCE=MSDC-IR
##SPECTROMETER/DATA SYSTEM=HP-GC/MS/IRD
##STATE=gas
##XUNITS=1/CM
##YUNITS=ABSORBANCE
##XFACTOR=1.0
##YFACTOR=0.000002400
##DELTAX=4.0
##FIRSTX=550.0
##LASTX=3846.0
##FIRSTY=0.000403
##MAXX=3846
##MINX=550
##MAXY=0.024
##MINY=0
##NPOINTS=825
##XYDATA=(X++(Y..Y))
550.0 168 168 113 48 58 59 79 100 56 109
590.0 121 112 91 65 93 70 63 56 28 28
630.0 27 58 56 16 9 22 49 35 51 76
670.0 66 68 57 46 35 51 60 43 36 49
710.0 73 75 50 47 40 31 32 26 32 44
750.0 41 44 60 38 33 46 44 33 44 82
790.0 71 98 94 48 71 77 46 59 114 91
830.0 54 46 49 58 61 66 68 86 117 128
870.0 103 83 73 56 37 40 40 17 9 13
910.0 10 2 8 19 13 12 27 33 25 37
950.0 43 40 36 27 31 41 37 27 38 56
990.0 53 48 49 42 32 20 28 41 43 51
1030.0 66 68 48 32 30 35 40 42 42 44
1070.0 56 58 48 48 53 57 48 49 64 59
1110.0 52 67 79 90 94 73 62 53 40 33
1150.0 36 48 43 47 49 40 39 44 53 54
1190.0 48 54 58 50 48 58 53 46 51 58
1230.0 69 72 68 69 76 94 121 150 161 159
1270.0 159 146 122 97 78 57 42 33 29 28
1310.0 33 35 25 18 20 24 22 18 20 27
1350.0 27 23 28 28 41 46 34 33 31 28
1390.0 29 34 41 40 39 48 50 58 64 66
1430.0 83 122 186 260 333 407 458 524 595 493
1470.0 384 356 278 197 131 95 73 63 55 53
1510.0 43 39 41 39 39 41 40 51 50 29
1550.0 26 40 55 41 30 31 32 29 27 30
1590.0 22 18 27 38 37 34 40 41 37 31
1630.0 29 40 40 30 28 38 44 26 16 20
1670.0 30 37 31 27 28 24 24 30 31 26
1710.0 28 30 29 31 26 17 28 36 24 21
1750.0 21 9 6 8 14 28 28 20 12 7
1790.0 5 10 17 17 14 21 22 17 20 24
1830.0 22 14 6 3 12 20 21 19 19 20
1870.0 19 14 12 13 9 6 9 10 9 14
1910.0 14 9 10 10 9 10 14 19 11 10
1950.0 16 18 24 28 18 16 20 14 13 12
1990.0 11 14 19 12 7 5 2 6 12 16
2030.0 6 5 14 14 16 14 14 9 14 20
2070.0 10 10 16 19 16 12 17 20 21 20
2110.0 24 31 30 24 23 22 21 13 11 16
2150.0 14 14 17 21 21 23 24 21 24 22
2190.0 22 20 20 19 23 21 8 8 10 11
2230.0 18 20 24 25 19 17 16 12 11 13
2270.0 18 13 16 14 3 7 20 20 17 12
2310.0 16 13 9 16 24 30 31 28 30 35
2350.0 35 37 36 35 35 25 14 14 16 14
2390.0 10 7 10 14 16 18 16 9 7 12
2430.0 20 24 19 10 9 9 10 12 17 22
2470.0 25 14 7 6 9 18 20 20 22 19
2510.0 17 20 22 29 32 20 16 19 23 32
2550.0 33 34 37 37 34 31 36 42 49 39
2590.0 32 33 31 33 31 32 30 24 39 59
2630.0 70 78 95 105 101 103 102 84 77 76
2670.0 67 57 46 34 29 29 23 16 14 21
2710.0 26 20 17 20 25 23 19 29 33 38
2750.0 49 48 58 70 76 80 85 93 98 110
2790.0 116 108 110 123 127 119 128 140 162 183
2830.0 189 208 258 363 554 880 1341 1817 2160 2459
2870.0 2952 3150 2645 2265 2104 1867 1720 1769 2058 2642
2910.0 3435 4223 5131 6737 8120 8278 8126 9644 10000 7375
2950.0 6085 5383 3986 2609 1602 1006 681 500 395 322
2990.0 280 249 214 199 197 175 163 156 141 130
3030.0 129 115 98 86 81 72 60 49 39 37
3070.0 39 46 40 32 31 22 13 11 17 32
3110.0 37 33 34 19 0 9 31 36 28 20
3150.0 25 28 23 13 23 31 31 31 33 40
3190.0 51 61 67 72 62 57 51 47 46 41
3230.0 47 47 49 54 43 34 24 27 32 30
3270.0 34 38 32 28 26 24 42 43 44 57
3310.0 67 62 61 43 30 44 52 58 49 47
3350.0 49 36 34 31 35 38 32 37 40 57
3390.0 62 66 66 56 62 59 53 57 65 62
3430.0 61 68 58 32 32 43 35 42 53 42
3470.0 46 57 55 51 56 62 63 58 48 47
3510.0 56 58 55 54 61 59 52 61 67 57
3550.0 37 47 56 64 71 68 65 75 84 75
3590.0 77 69 63 76 65 56 59 63 71 65
3630.0 61 68 63 57 69 79 70 81 85 79
3670.0 81 87 86 80 79 83 75 80 87 72
3710.0 78 90 81 77 97 101 78 62 88 122
3750.0 123 92 79 87 94 87 81 89 88 83
3790.0 81 83 87 89 99 97 88 97 97 90
3830.0 95 103 108 100 99
##END=
