##TITLE=2,2,4-Trimethylcyclopentanone
##JCAMP-DX=4.24
##DATA TYPE=INFRARED SPECTRUM
##ORIGIN=NIST Mass Spectrometry Data Center
##OWNER=NIST Standard Reference Data Program
Collection (C) 2018 copyright by the U.S. Secretary of Commerce
on behalf of the United States of America. All rights reserved.
##CAS REGISTRY NO=28056-54-4
##MOLFORM=C 8 H 14 O
##$NIST SOURCE=MSDC-IR
##SPECTROMETER/DATA SYSTEM=HP-GC/MS/IRD
##STATE=gas
##XUNITS=1/CM
##YUNITS=ABSORBANCE
##XFACTOR=1.0
##YFACTOR=0.000004600
##DELTAX=4.0
##FIRSTX=550.0
##LASTX=3846.0
##FIRSTY=0.000064
##MAXX=3846
##MINX=550
##MAXY=0.046
##MINY=0
##NPOINTS=825
##XYDATA=(X++(Y..Y))
550.0 14 18 25 48 65 75 101 110 98 81
590.0 82 77 78 84 85 84 71 63 61 35
630.0 29 44 43 36 21 12 15 28 37 32
670.0 43 67 85 115 151 169 182 184 166 144
710.0 110 81 59 40 31 22 13 8 5 5
750.0 1 1 8 9 13 14 11 13 11 17
790.0 25 26 34 49 67 73 97 132 164 217
830.0 265 296 304 274 236 196 153 118 91 78
870.0 78 74 70 71 77 93 114 148 190 230
910.0 257 264 256 238 195 154 130 117 120 114
950.0 114 110 101 100 100 108 111 112 119 131
990.0 142 146 154 168 185 208 243 287 334 377
1030.0 415 442 450 452 467 499 555 663 835 1056
1070.0 1280 1473 1607 1646 1585 1435 1241 1051 864 707
1110.0 600 535 501 501 555 673 857 1049 1186 1245
1150.0 1208 1087 891 658 480 391 362 356 371 394
1190.0 406 421 446 473 505 527 526 512 495 483
1230.0 489 506 526 543 535 502 441 366 316 281
1270.0 251 238 240 258 294 345 392 425 446 445
1310.0 424 388 350 323 304 297 325 384 460 529
1350.0 588 629 665 720 811 866 917 1007 1081 1067
1390.0 970 895 790 696 682 712 738 736 691 621
1430.0 558 539 592 710 883 1082 1285 1433 1510 1492
1470.0 1352 1157 944 735 547 392 285 209 166 150
1510.0 125 107 104 99 89 83 82 87 81 67
1550.0 61 65 78 66 54 58 65 64 61 61
1590.0 61 62 62 63 62 64 70 73 73 74
1630.0 79 88 90 93 106 125 137 138 146 157
1670.0 175 192 205 233 261 282 327 380 429 484
1710.0 559 667 816 1040 1410 2030 3013 4402 6126 7883
1750.0 9273 10000 9855 8861 7102 4929 3043 1821 1138 769
1790.0 572 459 387 348 322 300 278 255 236 213
1830.0 190 164 138 118 101 86 76 68 64 67
1870.0 68 66 66 62 59 61 64 60 56 52
1910.0 48 47 48 49 49 47 45 45 44 40
1950.0 37 37 35 31 27 28 30 33 36 36
1990.0 36 32 29 28 27 25 22 20 22 20
2030.0 21 23 24 24 23 22 20 19 19 16
2070.0 15 18 16 16 17 13 10 14 16 16
2110.0 12 12 11 13 14 12 13 15 17 12
2150.0 12 14 10 9 10 11 14 15 15 16
2190.0 16 13 12 13 15 16 15 15 11 10
2230.0 15 13 12 15 15 13 12 13 12 12
2270.0 15 14 14 13 13 14 14 16 18 14
2310.0 12 11 10 12 13 14 15 23 21 17
2350.0 19 22 21 20 18 18 20 17 13 9
2390.0 12 13 13 16 16 11 14 18 15 15
2430.0 15 16 18 16 20 19 17 16 16 12
2470.0 9 9 6 0 1 5 6 4 5 3
2510.0 0 6 11 9 7 6 7 12 12 10
2550.0 15 19 22 20 20 23 24 24 26 26
2590.0 27 33 35 35 35 33 32 34 34 33
2630.0 33 30 29 30 31 36 36 37 40 44
2670.0 43 42 46 47 48 49 48 49 52 51
2710.0 49 58 68 79 95 107 118 130 136 137
2750.0 139 136 130 124 120 123 123 124 126 132
2790.0 144 162 185 210 233 253 279 300 317 346
2830.0 382 432 505 609 750 929 1156 1430 1737 2085
2870.0 2439 2713 2866 2860 2741 2610 2476 2411 2486 2658
2910.0 2874 3160 3532 3974 4421 4848 5275 5578 5718 5927
2950.0 6371 6962 7664 8340 8560 8118 7188 5915 4410 3110
2990.0 2111 1339 876 626 488 415 370 332 305 276
3030.0 251 237 222 201 186 174 162 153 149 146
3070.0 145 144 144 138 135 133 132 129 122 116
3110.0 113 110 111 112 112 109 102 100 104 112
3150.0 114 113 118 123 122 117 119 121 121 111
3190.0 108 105 97 92 85 79 71 63 55 48
3230.0 48 48 43 41 43 40 37 27 21 19
3270.0 17 19 21 20 18 22 26 22 25 29
3310.0 27 26 26 24 22 25 25 24 23 25
3350.0 23 22 20 18 21 19 18 19 18 18
3390.0 21 22 18 16 15 16 17 14 13 17
3430.0 20 17 14 15 29 41 47 55 71 92
3470.0 113 139 164 183 200 207 199 180 157 130
3510.0 97 73 60 47 43 41 31 28 19 17
3550.0 15 8 8 11 13 12 11 11 8 6
3590.0 2 1 10 8 3 4 10 11 4 7
3630.0 10 9 6 7 10 16 17 12 10 11
3670.0 14 19 13 9 16 20 14 9 9 12
3710.0 22 21 13 15 14 17 23 16 20 30
3750.0 29 27 24 19 18 18 19 23 24 23
3790.0 23 27 33 38 41 35 37 47 39 32
3830.0 34 35 36 37 30
##END=
