##TITLE=1-Methyl-2-methylenecyclohexane
##JCAMP-DX=4.24
##DATA TYPE=INFRARED SPECTRUM
##ORIGIN=NIST Mass Spectrometry Data Center
##OWNER=NIST Standard Reference Data Program
Collection (C) 2018 copyright by the U.S. Secretary of Commerce
on behalf of the United States of America. All rights reserved.
##CAS REGISTRY NO=2808-75-5
##MOLFORM=C 8 H 14
##$NIST SOURCE=MSDC-IR
##SPECTROMETER/DATA SYSTEM=HP-GC/MS/IRD
##STATE=gas
##XUNITS=1/CM
##YUNITS=ABSORBANCE
##XFACTOR=1.0
##YFACTOR=0.000005300
##DELTAX=4.0
##FIRSTX=550.0
##LASTX=3846.0
##FIRSTY=0.000228
##MAXX=3846
##MINX=550
##MAXY=0.053
##MINY=0
##NPOINTS=825
##XYDATA=(X++(Y..Y))
550.0 43 31 16 28 33 27 46 70 56 49
590.0 50 45 42 47 64 79 96 141 190 184
630.0 157 146 132 103 76 56 41 38 27 18
670.0 18 10 3 8 14 8 8 12 11 14
710.0 20 22 22 29 32 27 36 35 20 14
750.0 15 16 18 16 16 19 18 20 25 34
790.0 43 48 58 74 86 99 118 126 116 123
830.0 133 124 118 128 133 130 138 160 210 314
870.0 492 734 987 1189 1570 2024 1841 1430 1220 956
910.0 665 428 275 191 151 134 129 125 125 122
950.0 119 116 111 108 100 91 89 91 107 127
990.0 139 147 146 139 125 107 92 77 65 61
1030.0 58 57 51 46 45 42 45 56 71 74
1070.0 77 90 104 105 92 91 89 72 59 54
1110.0 47 42 39 39 38 34 40 47 55 64
1150.0 76 90 96 95 89 80 69 57 40 28
1190.0 26 27 27 29 31 31 41 52 67 92
1230.0 119 136 153 164 162 151 132 106 83 65
1270.0 55 49 43 42 47 48 50 55 64 70
1310.0 72 75 82 91 94 97 103 115 122 122
1350.0 133 153 178 217 256 290 341 363 357 350
1390.0 323 286 259 237 226 224 228 251 298 381
1430.0 503 651 804 940 1064 1125 1120 1066 962 800
1470.0 632 493 375 277 195 136 97 69 53 47
1510.0 42 39 36 34 34 35 34 32 27 27
1550.0 31 30 30 29 28 31 33 37 41 46
1590.0 48 56 66 79 100 126 172 233 314 429
1630.0 563 682 777 830 827 766 656 515 363 238
1670.0 157 113 85 68 56 48 40 37 33 30
1710.0 29 28 26 23 22 21 20 18 15 18
1750.0 20 23 30 36 48 66 86 106 121 128
1790.0 131 128 116 99 77 54 39 26 18 14
1830.0 9 5 3 3 3 2 2 1 0 2
1870.0 3 3 4 2 3 4 2 4 5 6
1910.0 6 3 1 2 3 2 3 6 4 4
1950.0 3 1 3 5 1 1 2 2 1 2
1990.0 0 5 6 2 1 2 1 3 2 1
2030.0 5 5 2 1 1 0 1 3 3 0
2070.0 0 2 3 5 7 4 4 8 7 4
2110.0 4 4 2 4 2 2 5 5 6 7
2150.0 9 9 7 8 7 8 10 10 9 9
2190.0 7 10 10 8 8 7 6 5 9 10
2230.0 4 4 5 8 12 9 9 10 12 14
2270.0 15 14 14 15 13 14 17 17 19 16
2310.0 13 13 11 10 12 13 11 11 13 12
2350.0 9 8 11 14 12 11 12 12 12 13
2390.0 12 13 15 16 15 16 15 13 12 10
2430.0 13 15 16 14 14 12 9 13 18 15
2470.0 14 13 12 13 15 15 14 15 14 13
2510.0 14 13 13 17 20 19 22 27 28 29
2550.0 33 34 34 37 39 42 44 42 42 45
2590.0 49 45 44 46 47 50 51 50 53 59
2630.0 59 62 70 76 81 86 93 101 105 105
2670.0 104 101 97 90 84 77 74 74 69 66
2710.0 65 67 70 67 64 66 67 73 76 78
2750.0 82 89 97 109 118 122 130 140 147 154
2790.0 166 173 181 189 195 212 234 273 331 415
2830.0 542 719 964 1295 1711 2172 2659 3080 3192 3101
2870.0 2984 2798 2535 2272 2079 2003 2069 2232 2465 2844
2910.0 3457 4306 5337 6427 7640 9048 10000 9641 8633 7821
2950.0 6793 5573 4446 3690 3298 2978 2722 2391 2009 1666
2990.0 1316 1032 833 690 564 454 360 295 259 237
3030.0 223 221 223 228 236 255 294 355 424 484
3070.0 566 660 724 746 725 669 581 497 393 270
3110.0 173 119 89 70 58 54 53 49 44 43
3150.0 45 46 48 50 50 50 46 42 38 38
3190.0 36 42 43 40 46 50 48 48 49 45
3230.0 43 42 39 35 28 24 24 25 25 26
3270.0 26 24 27 29 26 23 26 25 19 15
3310.0 15 18 16 16 21 19 15 16 19 19
3350.0 12 12 19 17 12 14 16 17 22 26
3390.0 25 19 15 17 14 12 12 8 6 6
3430.0 7 7 5 10 15 13 16 17 12 14
3470.0 15 15 16 12 8 5 10 16 13 13
3510.0 11 7 6 6 9 11 12 9 9 13
3550.0 20 22 21 20 19 20 16 7 4 13
3590.0 16 11 10 8 6 11 11 10 9 12
3630.0 11 7 5 12 17 14 15 22 14 9
3670.0 14 18 15 15 18 16 12 14 18 18
3710.0 19 22 21 17 15 16 22 25 18 16
3750.0 19 18 23 24 23 28 30 28 28 23
3790.0 24 28 25 22 22 20 24 27 29 26
3830.0 24 25 26 28 25
##END=
