##TITLE=1-Ethynyl-1-cycloheptanol
##JCAMP-DX=4.24
##DATA TYPE=INFRARED SPECTRUM
##ORIGIN=NIST Mass Spectrometry Data Center
##OWNER=NIST Standard Reference Data Program
Collection (C) 2018 copyright by the U.S. Secretary of Commerce
on behalf of the United States of America. All rights reserved.
##CAS REGISTRY NO=2809-78-1
##MOLFORM=C 9 H 14 O
##$NIST SOURCE=MSDC-IR
##SPECTROMETER/DATA SYSTEM=HP-GC/MS/IRD
##STATE=gas
##XUNITS=1/CM
##YUNITS=ABSORBANCE
##XFACTOR=1.0
##YFACTOR=0.000003600
##DELTAX=4.0
##FIRSTX=550.0
##LASTX=3846.0
##FIRSTY=0.001534
##MAXX=3846
##MINX=550
##MAXY=0.036
##MINY=0
##NPOINTS=825
##XYDATA=(X++(Y..Y))
550.0 426 346 266 235 199 176 161 149 130 104
590.0 91 99 126 174 252 403 667 1037 1465 1985
630.0 2524 2647 2563 2591 2648 2630 2373 1842 1355 937
670.0 562 319 183 98 55 44 34 17 18 17
710.0 3 16 25 27 27 33 46 47 43 48
750.0 61 68 89 118 148 174 182 188 180 159
790.0 142 113 94 77 58 55 57 58 62 81
830.0 117 163 211 268 309 339 349 336 304 267
870.0 237 219 220 254 304 364 434 501 565 621
910.0 661 679 694 677 617 551 481 422 390 376
950.0 379 378 364 359 365 396 452 518 585 653
990.0 725 821 962 1181 1493 1888 2310 2684 2914 2947
1030.0 2792 2473 2081 1716 1427 1186 971 781 623 511
1070.0 439 381 337 310 291 283 287 304 331 367
1110.0 418 461 476 465 435 406 377 345 327 327
1150.0 332 339 358 380 404 448 509 574 652 743
1190.0 823 888 928 940 924 882 830 791 758 745
1230.0 767 829 952 1142 1359 1517 1568 1529 1405 1241
1270.0 1096 997 944 917 888 859 858 879 891 918
1310.0 950 966 964 943 925 901 865 822 776 731
1350.0 690 648 615 601 593 576 558 532 490 442
1390.0 389 339 299 279 266 256 256 271 305 359
1430.0 440 553 700 859 1009 1124 1175 1176 1138 1016
1470.0 847 672 518 387 280 203 153 126 104 79
1510.0 66 61 49 41 43 40 36 25 18 27
1550.0 26 13 3 17 24 21 18 18 27 24
1590.0 19 20 25 26 26 19 14 13 15 19
1630.0 20 12 11 15 16 6 0 6 12 15
1670.0 10 4 5 2 4 16 10 1 5 12
1710.0 13 9 5 14 19 12 2 7 14 15
1750.0 14 13 14 13 10 5 8 14 10 7
1790.0 6 10 12 13 14 14 15 13 13 15
1830.0 14 14 14 15 17 17 17 17 16 13
1870.0 12 16 18 16 14 13 16 19 18 14
1910.0 15 13 15 19 20 17 15 18 16 14
1950.0 15 16 15 15 15 17 17 15 14 15
1990.0 14 15 17 13 11 11 11 13 14 13
2030.0 15 17 18 17 14 14 13 12 13 14
2070.0 15 17 19 20 21 24 29 32 33 35
2110.0 37 35 29 19 15 20 21 16 16 12
2150.0 11 13 11 12 16 16 14 10 13 18
2190.0 20 23 25 25 22 21 23 23 19 23
2230.0 28 24 21 20 18 18 20 20 18 15
2270.0 13 13 17 19 15 10 9 9 11 8
2310.0 5 4 4 4 2 0 0 0 0 8
2350.0 8 3 2 2 0 0 5 12 14 10
2390.0 12 13 13 12 13 16 14 14 12 10
2430.0 9 10 11 10 13 15 13 7 7 13
2470.0 17 17 15 16 15 11 10 12 15 15
2510.0 16 19 19 16 13 18 22 19 22 24
2550.0 26 30 25 25 29 26 24 21 20 25
2590.0 27 27 29 29 30 32 36 36 37 40
2630.0 45 55 59 63 75 83 84 91 99 111
2670.0 122 133 138 139 143 145 142 135 128 119
2710.0 110 98 90 89 84 77 74 69 61 65
2750.0 68 65 72 82 85 87 95 103 121 133
2790.0 136 150 175 192 206 224 238 246 261 284
2830.0 310 356 435 564 767 1063 1450 1873 2262 2511
2870.0 2601 2536 2333 2075 1843 1684 1648 1740 1955 2325
2910.0 2852 3593 4607 5898 7332 8634 9590 10000 9675 8696
2950.0 7292 5714 4259 3063 2131 1463 1020 741 551 425
2990.0 346 288 243 210 179 156 137 119 105 97
3030.0 86 73 70 63 57 53 48 45 42 40
3070.0 38 43 40 32 23 20 29 35 37 33
3110.0 33 32 27 33 32 24 26 31 28 26
3150.0 25 22 22 19 21 28 25 25 35 40
3190.0 39 27 27 29 23 24 28 27 29 33
3230.0 29 27 34 32 33 41 47 60 82 107
3270.0 134 166 209 259 316 413 544 683 844 998
3310.0 1220 1542 1784 2032 2018 1728 1380 865 477 291
3350.0 205 156 114 92 75 61 55 51 47 40
3390.0 38 39 38 39 36 41 39 34 33 32
3430.0 32 37 31 27 28 19 23 30 29 34
3470.0 29 20 18 24 34 30 26 21 5 10
3510.0 19 20 23 20 17 17 17 19 14 13
3550.0 11 6 8 6 10 15 9 12 20 15
3590.0 24 31 29 45 59 78 112 177 314 496
3630.0 686 842 901 810 646 433 260 153 94 64
3670.0 39 17 16 26 18 17 17 15 18 14
3710.0 11 9 15 18 11 5 0 2 0 0
3750.0 0 5 16 17 10 10 25 25 24 29
3790.0 29 34 31 24 26 30 34 27 21 22
3830.0 23 18 13 23 29
##END=
