##TITLE=2-Octyne
##JCAMP-DX=4.24
##DATA TYPE=INFRARED SPECTRUM
##ORIGIN=NIST Mass Spectrometry Data Center
##OWNER=NIST Standard Reference Data Program
Collection (C) 2018 copyright by the U.S. Secretary of Commerce
on behalf of the United States of America. All rights reserved.
##CAS REGISTRY NO=2809-67-8
##MOLFORM=C 8 H 14
##$NIST SOURCE=MSDC-IR
##SPECTROMETER/DATA SYSTEM=HP-GC/MS/IRD
##STATE=gas
##XUNITS=1/CM
##YUNITS=ABSORBANCE
##XFACTOR=1.0
##YFACTOR=0.000004200
##DELTAX=4.0
##FIRSTX=550.0
##LASTX=3846.0
##FIRSTY=0.000428
##MAXX=3846
##MINX=550
##MAXY=0.042
##MINY=0
##NPOINTS=825
##XYDATA=(X++(Y..Y))
550.0 102 79 54 59 63 57 42 45 52 27
590.0 21 39 46 45 31 4 1 8 0 8
630.0 9 9 8 21 36 27 19 9 5 14
670.0 23 33 36 29 30 32 24 27 47 52
710.0 56 64 78 96 111 131 129 122 110 105
750.0 110 99 78 69 78 80 74 70 59 54
790.0 47 35 31 26 30 30 17 18 12 9
830.0 19 24 25 26 27 24 26 27 18 24
870.0 34 35 39 47 50 44 37 40 45 40
910.0 37 39 35 31 30 29 25 19 24 33
950.0 42 51 57 58 66 78 83 82 89 93
990.0 80 69 63 55 49 46 40 39 49 51
1030.0 47 36 36 40 50 50 38 38 42 40
1070.0 43 49 51 45 46 57 57 67 69 60
1110.0 74 66 42 38 33 17 16 20 16 21
1150.0 22 23 28 33 28 25 30 37 33 43
1190.0 54 48 55 60 61 62 66 68 71 77
1230.0 90 93 92 99 103 103 97 101 117 134
1270.0 150 175 210 235 259 282 290 295 304 315
1310.0 339 380 441 516 588 642 669 655 614 574
1350.0 542 508 491 488 486 498 562 600 569 532
1390.0 503 428 346 318 318 319 341 392 440 478
1430.0 562 674 766 843 910 945 947 971 996 950
1470.0 855 744 633 542 459 398 362 335 298 258
1510.0 234 219 200 184 175 168 165 171 166 143
1550.0 129 118 112 107 104 104 100 97 96 87
1590.0 75 67 63 61 54 44 42 46 44 41
1630.0 36 34 39 39 35 37 31 22 24 25
1670.0 25 26 25 27 25 21 18 18 15 17
1710.0 20 17 12 11 9 3 1 5 10 6
1750.0 0 4 5 2 0 2 10 11 10 8
1790.0 7 10 9 7 6 6 10 12 8 9
1830.0 10 8 11 10 4 0 0 5 8 9
1870.0 6 4 3 5 5 2 2 8 12 9
1910.0 12 11 7 8 6 6 10 9 11 10
1950.0 11 10 11 10 10 11 7 8 14 10
1990.0 6 7 5 0 3 7 9 10 10 11
2030.0 15 20 24 33 38 41 43 43 41 37
2070.0 30 23 19 21 19 13 11 13 14 10
2110.0 5 10 13 12 11 14 17 14 13 15
2150.0 14 12 8 4 2 2 8 12 13 17
2190.0 13 7 10 14 8 10 17 17 17 15
2230.0 9 10 10 13 12 10 10 13 13 11
2270.0 14 15 11 9 11 13 13 14 16 14
2310.0 2 1 8 16 19 15 13 16 15 11
2350.0 10 17 19 17 20 17 14 16 16 17
2390.0 16 17 16 19 26 29 29 34 33 30
2430.0 28 26 26 31 28 31 35 28 29 27
2470.0 26 25 26 28 27 30 29 24 24 23
2510.0 30 34 35 41 39 39 38 39 47 43
2550.0 38 30 27 34 41 42 40 46 48 44
2590.0 43 35 34 38 43 44 41 42 46 52
2630.0 59 70 78 68 71 85 89 96 89 94
2670.0 102 101 102 101 95 91 93 90 89 93
2710.0 101 111 115 118 133 159 179 195 215 232
2750.0 235 231 219 203 191 192 188 194 210 228
2790.0 250 270 296 317 339 372 412 454 507 578
2830.0 671 786 945 1172 1463 1806 2188 2616 3040 3400
2870.0 3648 3785 3787 3613 3390 3200 3042 3005 3138 3443
2910.0 3932 4652 5575 6668 7906 9039 9742 10000 9694 8761
2950.0 7654 6764 6174 5875 5640 5218 4640 3852 2971 2263
2990.0 1764 1443 1222 1086 980 854 757 669 629 600
3030.0 580 567 490 426 383 349 323 311 304 274
3070.0 253 231 214 203 198 197 182 171 162 147
3110.0 130 125 129 122 109 101 98 97 98 103
3150.0 101 81 70 80 80 85 94 86 71 69
3190.0 68 57 60 69 73 69 62 50 48 44
3230.0 35 30 33 35 34 26 26 31 33 27
3270.0 29 33 24 23 29 28 32 32 31 39
3310.0 36 28 33 38 41 51 45 34 33 33
3350.0 38 48 43 27 23 26 29 20 14 18
3390.0 21 16 15 22 23 18 24 28 26 29
3430.0 33 33 39 55 47 43 45 41 36 32
3470.0 26 19 20 24 23 19 13 13 18 26
3510.0 24 13 13 7 10 17 8 1 8 6
3550.0 8 23 30 21 9 18 27 18 8 0
3590.0 7 19 8 7 15 19 31 31 26 25
3630.0 23 31 25 17 19 27 42 41 41 40
3670.0 29 20 25 20 7 13 27 33 33 24
3710.0 22 20 17 23 36 37 30 30 27 25
3750.0 36 36 33 35 36 43 34 19 25 36
3790.0 38 39 38 43 44 50 55 49 49 43
3830.0 26 26 51 47 37
##END=
