##TITLE=Adamantane
##JCAMP-DX=4.24
##DATA TYPE=INFRARED SPECTRUM
##ORIGIN=NIST Mass Spectrometry Data Center
##OWNER=NIST Standard Reference Data Program
Collection (C) 2018 copyright by the U.S. Secretary of Commerce
on behalf of the United States of America. All rights reserved.
##CAS REGISTRY NO=281-23-2
##MOLFORM=C 10 H 16
##$NIST SOURCE=MSDC-IR
##SPECTROMETER/DATA SYSTEM=HP-GC/MS/IRD
##STATE=gas
##XUNITS=1/CM
##YUNITS=ABSORBANCE
##XFACTOR=1.0
##YFACTOR=0.000010900
##DELTAX=4.0
##FIRSTX=550.0
##LASTX=3846.0
##FIRSTY=0.000087
##MAXX=3846
##MINX=550
##MAXY=0.109
##MINY=0
##NPOINTS=825
##XYDATA=(X++(Y..Y))
550.0 8 6 4 7 8 2 0 9 7 11
590.0 16 10 8 12 12 9 10 10 10 14
630.0 19 11 7 9 10 10 7 7 11 12
670.0 7 3 6 8 8 5 7 10 11 10
710.0 7 7 10 10 7 8 10 10 9 8
750.0 8 8 10 10 11 14 14 15 21 22
790.0 27 39 30 20 20 18 13 10 11 13
830.0 11 7 7 4 6 6 5 3 5 10
870.0 10 10 12 12 10 9 8 6 5 6
910.0 6 4 6 8 9 10 9 11 21 29
950.0 37 48 60 63 69 68 52 39 28 16
990.0 12 11 10 9 10 9 8 9 7 7
1030.0 9 6 4 5 7 9 8 8 9 10
1070.0 11 15 28 56 102 140 191 219 167 150
1110.0 129 71 32 18 14 11 9 7 4 5
1150.0 7 6 5 5 8 9 6 4 6 7
1190.0 6 7 8 7 8 8 7 8 6 3
1230.0 3 5 6 4 6 8 8 7 7 7
1270.0 5 6 8 9 8 9 8 10 15 20
1310.0 20 16 12 11 10 12 14 19 28 35
1350.0 47 52 43 35 26 16 12 11 10 12
1390.0 15 20 24 29 36 39 42 44 50 61
1430.0 80 130 222 341 392 417 623 581 383 370
1470.0 301 187 95 52 29 22 19 18 15 16
1510.0 18 19 15 13 14 13 12 8 7 7
1550.0 7 5 2 1 1 2 3 2 4 2
1590.0 4 5 5 6 4 4 5 3 3 5
1630.0 5 3 4 2 1 0 1 3 4 3
1670.0 2 2 3 3 1 1 0 0 1 3
1710.0 3 2 1 2 4 3 1 3 7 9
1750.0 10 10 9 9 9 7 6 6 4 3
1790.0 5 5 6 7 5 5 6 5 5 6
1830.0 5 3 3 4 5 6 5 6 4 2
1870.0 2 3 2 2 3 5 7 8 7 7
1910.0 6 7 8 7 7 8 7 6 5 3
1950.0 1 1 2 3 3 3 4 3 2 4
1990.0 5 6 8 10 9 8 7 5 3 4
2030.0 4 3 2 2 3 2 3 4 5 6
2070.0 5 7 8 8 10 11 10 11 13 14
2110.0 12 10 11 12 9 6 5 3 3 4
2150.0 3 3 4 3 3 2 0 2 3 2
2190.0 1 1 3 3 5 8 9 10 8 6
2230.0 4 5 4 3 2 1 2 2 1 2
2270.0 3 3 2 2 2 3 3 4 5 5
2310.0 6 7 5 4 5 7 5 3 1 3
2350.0 3 0 0 0 0 0 0 2 4 6
2390.0 7 9 10 11 11 13 15 16 15 15
2430.0 18 16 16 14 12 11 9 8 7 7
2470.0 6 4 4 3 3 4 4 3 2 1
2510.0 2 4 5 7 8 8 11 12 16 23
2550.0 28 32 38 42 41 37 35 33 31 28
2590.0 27 28 27 26 26 28 32 38 45 55
2630.0 67 80 98 116 130 147 163 171 174 170
2670.0 157 129 100 77 57 44 37 34 30 28
2710.0 27 24 24 25 28 31 36 41 44 43
2750.0 43 43 40 39 39 36 41 46 53 62
2790.0 73 84 93 99 114 130 138 149 176 213
2830.0 268 379 602 951 1353 1651 1991 2240 2021 1743
2870.0 1498 1186 958 942 1216 1861 2853 4279 6258 7895
2910.0 8758 10000 9856 7789 6663 5263 3588 2471 1638 1215
2950.0 959 670 432 283 202 154 124 99 83 70
2990.0 61 53 47 41 36 30 29 27 23 20
3030.0 18 16 15 13 13 12 11 11 11 12
3070.0 12 12 12 10 9 9 8 6 6 6
3110.0 6 6 4 4 6 6 4 5 4 5
3150.0 4 4 5 5 4 6 9 9 8 7
3190.0 8 8 7 7 9 13 21 32 38 40
3230.0 39 34 25 15 12 9 5 2 1 1
3270.0 5 5 3 0 1 6 8 10 11 10
3310.0 10 11 9 7 6 4 5 11 16 25
3350.0 29 32 37 37 32 26 21 12 7 4
3390.0 3 2 0 3 6 4 4 6 5 1
3430.0 3 2 2 1 0 1 3 2 0 1
3470.0 2 3 3 5 7 6 8 9 8 7
3510.0 6 5 7 9 9 10 13 14 18 22
3550.0 21 20 15 13 10 9 9 8 7 5
3590.0 4 5 5 4 5 6 6 8 9 7
3630.0 6 5 7 9 8 8 9 10 8 7
3670.0 8 7 8 9 8 8 10 12 15 13
3710.0 16 18 15 18 18 15 14 15 15 14
3750.0 11 9 11 9 9 11 9 10 11 12
3790.0 12 16 16 15 19 20 20 19 18 20
3830.0 20 13 11 12 11
##END=
