##TITLE=Ethyl thiophene-2-carboxylate
##JCAMP-DX=4.24
##DATA TYPE=INFRARED SPECTRUM
##ORIGIN=EPA-IR VAPOR PHASE LIBRARY
##OWNER=SRD/NIST
Collection (C) 2018 copyright by the U.S. Secretary of Commerce
on behalf of the United States of America. All rights reserved.
##CAS REGISTRY NO=2810-04-0
##MOLFORM=C 7 H 8 O 2 S
##$NIST SOURCE=MSDC-IR
##STATE=gas
##XUNITS=1/CM
##YUNITS=ABSORBANCE
##XFACTOR=1.
##YFACTOR=0.001
##DELTAX=1.92934
##FIRSTX=549.9
##LASTX=3999.5
##FIRSTY=6.5971
##MAXX=3999.53
##MINX=549.863
##MAXY=1.26011
##MINY=0
##NPOINTS=1789
##XYDATA=(X++(Y..Y))
549.863 6.5971 6.5242 6.5272 6.5982 6.3794 6.3922 6.3296 6.15284 6.0366 5.898
569.156 5.954 5.817 5.726 5.767 5.653 5.472 5.302 5.242 5.258 5.239
588.450 5.123 4.99 4.97 5.1 5.09 5 4.99 4.96 4.88 4.92
607.743 5.05 5.04 5.09 5.34 5.645 5.787 5.916 6.16752 6.4539 6.8388
627.037 7.32 7.92 8.67 9.41 9.97 10.4 10.87 11.53 12.23 12.99
646.330 13.63 13.89 14.14 14.35 14.46 14.47 14.31 13.98 13.44 12.74
665.624 11.88 11.01 10.34 10.06 9.95 10.15 10.71 11.57 12.84 14.77
684.917 17.67 21.96 28.16 36.78 48.24 62.82 80.13 99.38 119.12 137.71
704.210 154.12 170.83 196.59 243.78 278.04 243.31 195.35 176.43 165.64 151.56
723.504 133.95 114.82 96.79 82.05 71.87 66.42 65.36 68.01 73.39 80.73
742.797 89.44 99.83 113.51 131.52 145.68 143.85 133.44 125.53 119.13 111.42
762.091 101.18 89.09 76.93 66.01 56.69 48.94 42.73 37.86 33.9 30.72
781.384 28.23 26.25 24.6 23.32 22.5 21.95 21.58 21.43 21.61 22
800.678 22.64 23.53 24.56 25.57 26.43 27.17 27.78 28.26 28.56 28.76
819.971 28.89 28.92 28.84 28.77 28.83 29.02 29.51 30.3 31.33 32.72
839.264 34.4 36.43 38.91 42.02 45.98 50.25 54.23 57.71 59.62 60.02
858.558 60.05 60.47 61.76 62.64 60.89 56 49.74 43.74 38.31 32.79
877.851 27.08 21.88 17.69 14.68 12.72 11.54 10.83 10.43 10.24 10.1
897.145 10.08 10.09 10.12 10.2 10.25 10.37 10.44 10.44 10.37 10.27
916.438 10.21 10.21 10.22 10.15 10.01 9.88 9.74 9.55 9.41 9.26
935.732 9.13 9.08 9.09 9.19 9.29 9.37 9.47 9.61 9.79 9.95
955.025 10.11 10.43 10.82 11.18 11.63 12.09 12.63 13.27 13.93 14.72
974.318 15.65 16.61 17.58 18.73 20.07 21.53 23.12 24.79 26.5 28.31
993.612 30.24 32.2 34.21 36.27 38.3 40.15 41.62 42.58 43 43.09
1012.905 42.91 42.43 41.74 40.88 40.15 39.81 40.13 41.43 43.77 47.13
1032.199 51.28 55.68 59.38 61.63 62.68 63.66 65.06 66.63 67.9 68.53
1051.492 70.04 74.64 83.82 98.46 119.2 147.02 182.32 223.9 268.26 309.38
1070.786 341.72 364.91 386.33 413.87 450.19 492.31 531.6 564.19 595.88 633.97
1090.079 678.21 720.34 747.37 746.19 712.04 650.49 572.15 486.39 400.23 318.75
1109.372 246.76 189.05 146.95 118.16 98.98 86.03 76.93 70.14 64.86 60.49
1128.666 56.73 53.44 50.43 47.8 45.52 43.62 42.12 40.94 40.16 39.78
1147.959 39.72 39.93 40.48 41.14 41.98 43.11 44.45 45.92 47.56 49.24
1167.253 50.92 52.46 53.51 54.08 54.24 54.18 53.98 53.63 53.17 52.92
1186.546 53.11 53.96 55.68 58.3 61.87 66.47 72.27 79.08 86.87 95.92
1205.840 106.27 118.24 131.98 147.93 166.01 185.5 205.05 222.68 236.91 247.29
1225.133 255.75 263.92 271.47 276.41 279.39 285.02 299.07 330.37 384.39 460.94
1244.426 560.27 680.49 812.94 944.02 1060.09 1151.84 1217.05 1254.86 1260.11 1226.81
1263.720 1155.2 1054.32 943.31 840.51 753.32 679.09 609.89 539.82 466.58 392.74
1283.013 324.75 267.41 221.76 186.28 158.87 137.87 122.47 111.98 105.28 101.1
1302.307 98.22 95.88 93.64 91.24 88.44 84.8 80.23 75.11 69.86 64.58
1321.600 59.26 53.9 48.81 44.38 40.88 38.33 36.59 35.8 36.06 37.46
1340.894 40.44 45.62 53.64 64.5 77 88.94 98.24 105.31 112.83 121.95
1360.187 132.08 141.77 146.31 143.42 136.29 129.2 123.21 117.59 111.31 100.71
1379.480 85.44 70.72 60.09 54.09 51.36 50.46 50.79 51.98 54.04 57.04
1398.774 61.15 66.74 74.18 84.31 97.57 114.62 136 161.45 189.1 216.1
1418.067 237.78 251.12 254.36 249.35 237.9 220.69 197.02 166.45 131.47 100.09
1437.361 76.26 61.66 53.42 48.7 46.04 44.68 44.17 44.35 44.93 45.4
1456.654 45.94 46.77 47.87 49.26 50.78 52.09 52.82 52.87 52.23 51.03
1475.948 49.34 47.14 44.54 41.49 38.37 35.68 33.59 32.16 31.23 30.78
1495.241 30.81 31.29 32.35 34.1 36.57 40.05 45.04 51.53 60.08 71.68
1514.534 85.97 102.55 119.54 134.18 145.27 150.63 150.76 146.76 138.62 125.44
1533.828 107.33 86.2 64.96 46.28 34.5 28.86 26.73 26.5 27.28 28.54
1553.121 29.78 30.8 31.3 31.23 30.69 29.99 29.13 27.96 26.22 24.16
1572.415 22.48 21.31 20.53 20.12 20.04 20.12 20.38 20.65 20.94 21.22
1591.708 21.42 21.52 21.45 21.22 20.87 20.4 19.92 19.56 19.21 18.8
1611.002 18.37 17.96 17.58 17.09 16.6 16.29 15.94 15.52 15.03 14.51
1630.295 14.07 13.66 13.42 13.28 13.14 13.19 13.38 13.57 13.9 14.31
1649.588 14.79 15.45 16.17 16.76 17.35 18.02 18.85 19.77 20.7 21.71
1668.882 22.86 24.15 25.55 27.17 29.02 30.99 33.3 35.66 38.37 41.24
1688.175 43.97 46.9 49.93 53.24 57.3 61.8 66.98 73.29 80.5 90.37
1707.469 103.29 120.23 141.87 169.01 203.01 245.45 297.44 356.05 422.49 493.64
1726.762 563.48 625.73 676.95 716.7 749.43 770.67 767.12 739.63 698.27 645.59
1746.056 579.61 500.31 416.04 335.79 268.18 213.18 167.85 132.48 104.29 82.36
1765.349 66.01 53.61 43.94 36.83 31.54 27.77 25.21 23.47 22.3 21.65
1784.642 21.36 21.29 21.48 21.84 22.25 22.65 22.99 23.28 23.43 23.42
1803.936 23.3 23.13 22.86 22.48 22.03 21.5 20.81 20.02 19.17 18.24
1823.229 17.4 16.58 15.73 14.94 14.23 13.68 13.29 12.96 12.75 12.56
1842.523 12.4 12.28 12.14 11.97 11.8 11.71 11.66 11.52 11.4 11.32
1861.816 11.18 11.03 10.83 10.62 10.41 10.13 9.81 9.5 9.25 9.04
1881.110 8.82 8.63 8.51 8.42 8.37 8.34 8.28 8.22 8.16 8.07
1900.403 8 7.9 7.73 7.56 7.37 7.22 7.1073 7.0317 7.0149 6.9884
1919.696 6.9178 6.9212 7.0386 7.19 7.36 7.56 7.79 8.12 8.46 8.77
1938.990 9 9.19 9.33 9.4 9.44 9.39 9.27 9.08 8.87 8.6
1958.283 8.31 8.09 7.87 7.66 7.46 7.2 6.8731 6.6108 6.3519 6.0479
1977.577 5.815 5.649 5.518 5.41 5.357 5.316 5.27 5.24 5.204 5.193
1996.870 5.183 5.189 5.167 5.194 5.226 5.189 5.165 5.173 5.203 5.212
2016.164 5.225 5.249 5.221 5.181 5.192 5.19 5.172 5.137 5.184 5.205
2035.457 5.216 5.239 5.277 5.394 5.514 5.6 5.67 5.727 5.807 5.982
2054.750 6.16585 6.3238 6.4549 6.5426 6.6574 6.8324 6.9894 7.1162 7.22 7.32
2074.044 7.42 7.49 7.51 7.54 7.52 7.42 7.34 7.28 7.15 7.0195
2093.337 6.9093 6.791 6.667 6.514 6.4042 6.3523 6.2629 6.15836 6.0882 6
2112.631 5.908 5.84 5.811 5.776 5.715 5.619 5.557 5.52 5.472 5.411
2131.924 5.354 5.291 5.228 5.11 4.98 4.92 4.86 4.78 4.73 4.7
2151.218 4.7 4.69 4.66 4.65 4.68 4.68 4.7 4.71 4.73 4.78
2170.511 4.75 4.73 4.7 4.6 4.53 4.45 4.31 4.12 4.01 3.91
2189.804 3.79 3.73 3.67 3.55 3.53 3.53 3.52 3.55 3.57 3.62
2209.098 3.69 3.73 3.76 3.81 3.85 3.9 3.95 3.98 4.01 4.02
2228.391 4.04 4.04 4.08 4.12 4.15 4.14 4.17 4.2 4.21 4.26
2247.685 4.27 4.31 4.4 4.41 4.43 4.49 4.55 4.61 4.64 4.69
2266.978 4.76 4.8 4.87 4.88 4.87 4.9 4.9 4.87 4.84 4.8
2286.272 4.68 4.53 4.42 4.3 4.2 4.12 4.02 3.97 3.9 3.82
2305.565 3.82 3.84 3.83 3.84 3.86 3.92 3.97 3.95 3.95 3.97
2324.858 4.01 3.97 3.99 4.03 4.02 4.01 4.02 4.07 4.12 4.11
2344.152 4.09 4.08 4.07 4.04 4.03 3.99 3.92 3.88 3.86 3.82
2363.445 3.78 3.77 3.76 3.73 3.76 3.8 3.77 3.83 3.92 3.95
2382.739 3.95 3.94 3.99 4.02 4.04 4.04 4.01 3.99 4.01 4.01
2402.032 3.98 3.98 3.96 3.93 3.92 3.96 4 4.05 4.14 4.2
2421.326 4.24 4.32 4.44 4.49 4.5 4.56 4.62 4.66 4.69 4.69
2440.619 4.71 4.73 4.74 4.78 4.81 4.84 4.87 4.87 4.77 4.68
2459.912 4.64 4.48 4.31 4.19 3.99 3.82 3.72 3.56 3.38 3.31
2479.206 3.27 3.22 3.22 3.21 3.2 3.24 3.21 3.21 3.25 3.22
2498.499 3.23 3.24 3.22 3.25 3.19 3.14 3.16 3.1 3.06 3.01
2517.793 3.02 3.02 2.95 2.9 2.84 2.79 2.76 2.73 2.77 2.78
2537.086 2.73 2.7 2.64 2.58 2.63 2.61 2.56 2.54 2.46 2.45
2556.380 2.45 2.44 2.41 2.37 2.34 2.32 2.33 2.37 2.41 2.41
2575.673 2.4 2.42 2.44 2.48 2.51 2.52 2.49 2.47 2.48 2.49
2594.966 2.51 2.56 2.68 2.78 2.89 3 3.09 3.18 3.27 3.4
2614.260 3.43 3.48 3.52 3.51 3.47 3.42 3.34 3.24 3.2 3.16
2633.553 3.04 2.93 2.8 2.74 2.72 2.66 2.62 2.59 2.56 2.52
2652.847 2.46 2.48 2.56 2.6 2.6 2.63 2.71 2.81 2.86 2.92
2672.140 3.01 3.11 3.16 3.12 3.05 3.02 2.99 2.87 2.8 2.68
2691.434 2.56 2.42 2.33 2.3 2.12 1.99 1.94 1.82 1.81 1.86
2710.727 1.88 1.91 2.02 2.06 2.12 2.33 2.47 2.61 2.71 2.77
2730.020 2.86 2.95 3.05 3.16 3.21 3.3 3.42 3.44 3.51 3.58
2749.314 3.6 3.64 3.65 3.67 3.74 3.8 3.9 4.07 4.21 4.3
2768.607 4.43 4.62 4.76 4.82 4.9 4.92 4.87 4.84 4.77 4.71
2787.901 4.66 4.57 4.52 4.5 4.54 4.65 4.78 4.9 5.02 5.139
2807.194 5.376 5.622 5.879 6.14559 6.4374 6.7306 6.9565 7.22 7.55 7.77
2826.488 7.81 7.79 7.79 7.85 7.8 7.7 7.58 7.35 7.16 7.0669
2845.781 7.035 7.0147 7.0426 7.16 7.39 7.69 7.9 8.28 8.82 9.38
2865.074 10.08 10.93 12.01 13.31 14.82 16.55 18.38 20.41 22.33 23.75
2884.368 24.74 25.56 26.28 26.75 26.98 26.98 26.95 27.01 27.3 27.9
2903.661 28.9 30.04 31.04 32.06 33 33.71 34.04 34.24 34.48 34.75
2922.955 35.24 36.02 37.26 39.06 41.89 45.68 50.19 55.2 60.17 64.65
2942.248 67.97 69.99 71.04 71.37 70.87 69.49 67.44 65.26 63.67 63.13
2961.542 63.75 65.55 68.48 72.25 76.65 81.97 88.71 97.29 107.22 117.07
2980.835 125.55 131.62 135.06 136.33 135.73 133.12 128.29 120.67 110.34 99.21
3000.128 89.23 80.72 73.37 67.07 61.49 56.2 51.02 45.91 41 36.65
3019.422 32.66 28.99 25.82 23.15 20.73 18.64 16.93 15.46 14.05 12.7
3038.715 11.6 10.73 9.97 9.12 8.4 7.84 7.26 6.795 6.41 6.12673
3058.009 5.894 5.67 5.525 5.627 5.881 6.3271 7.103 8.03 9.2 10.71
3077.302 12.59 14.83 17.26 19.12 20.01 20.08 19.92 19.59 18.98 18.12
3096.596 16.34 13.91 11.92 10.81 10.21 9.76 9.83 10.03 9.73 9.13
3115.889 8.44 7.8 7.19 6.6722 5.933 4.99 4.07 3.25 2.87 2.63
3135.182 2.47 2.29 2.19 2.33 2.43 2.52 2.57 2.64 2.75 2.83
3154.476 2.79 2.85 2.97 2.8 2.53 2.47 2.43 2.39 2.2 1.88
3173.769 1.79 1.66 1.36 1.26 1.29 1.21 1.24 1.37 1.26 1.08
3193.063 1.06 0.93 0.85 0.87 0.7 0.6 0.59 0.61 0.64 0.53
3212.356 0.47 0.39 0.3 0.25 0.18 0.16 0.11 0.04 0.18 0.24
3231.650 0.17 0.08 0.09 0.22 0.08 0 0.16 0.23 0.22 0.26
3250.943 0.38 0.58 0.56 0.41 0.56 0.64 0.48 0.5 0.51 0.37
3270.236 0.29 0.32 0.34 0.29 0.14 0.03 0.26 0.39 0.25 0.11
3289.530 0.08 0.18 0.26 0.25 0.27 0.2 0.08 0.15 0.27 0.44
3308.823 0.54 0.41 0.4 0.33 0.24 0.43 0.46 0.43 0.49 0.49
3328.117 0.43 0.51 0.68 0.67 0.71 0.8 0.91 0.87 0.6 0.75
3347.410 0.9 0.72 0.84 0.9 0.83 0.93 0.93 0.94 1.02 1.11
3366.704 1.08 1.1 1.19 1.08 1.15 1.4 1.42 1.24 1.13 1.33
3385.997 1.43 1.28 1.24 1.43 1.53 1.5 1.66 1.79 1.71 1.56
3405.290 1.71 2.02 2.1 2.09 2.33 2.58 2.71 2.81 2.89 3.08
3424.584 3.29 3.48 3.85 4.23 4.62 5.09 5.411 5.781 6.256 6.7756
3443.877 7.13 7.36 7.61 7.79 7.93 8.02 7.97 7.72 7.35 6.9839
3463.171 6.5231 5.944 5.449 4.88 4.39 4.12 3.76 3.44 3.29 3.01
3482.464 2.85 2.67 2.45 2.37 2.46 2.44 2.11 1.95 1.98 1.93
3501.758 2.05 2.06 1.93 1.94 1.94 1.93 1.86 1.9 1.86 1.91
3521.051 2.06 2.06 2.08 2.02 1.91 1.96 2.08 2.1 2.03 2.04
3540.344 1.93 1.81 1.96 2.08 2.11 2.15 2.12 2.05 2.09 2.07
3559.638 2.02 2.08 2.21 2.17 2.15 2.13 2.2 2.34 2.28 2.25
3578.931 2.27 2.38 2.38 2.16 2.19 2.23 2.16 2.25 2.39 2.33
3598.225 2.27 2.31 2.29 2.21 2.22 2.32 2.24 2.19 2.15 2.11
3617.518 2.24 2.27 2.23 2.3 2.37 2.45 2.51 2.5 2.43 2.47
3636.812 2.49 2.42 2.39 2.42 2.35 2.34 2.42 2.45 2.5 2.45
3656.105 2.45 2.42 2.41 2.47 2.4 2.34 2.38 2.38 2.43 2.48
3675.398 2.41 2.37 2.35 2.42 2.46 2.4 2.51 2.6 2.61 2.61
3694.692 2.56 2.51 2.45 2.5 2.53 2.52 2.48 2.46 2.63 2.71
3713.985 2.7 2.77 2.77 2.89 2.96 2.92 3.04 3.16 3.17 3.24
3733.279 3.31 3.33 3.31 3.31 3.53 3.57 3.49 3.54 3.52 3.62
3752.572 3.71 3.69 3.63 3.49 3.47 3.46 3.42 3.4 3.41 3.42
3771.866 3.29 3.15 3.16 3.21 3.1 2.94 2.98 2.94 2.87 3.05
3791.159 3.06 2.93 3.03 3.17 3.2 3.22 3.22 3.13 3.06 3.11
3810.452 3.1 3.15 3.3 3.3 3.23 3.23 3.34 3.54 3.69 3.7
3829.746 3.73 3.97 4.06 4.11 4.27 4.32 4.37 4.45 4.39 4.35
3849.039 4.45 4.48 4.38 4.16 3.99 3.94 3.86 3.79 3.78 3.75
3868.333 3.67 3.56 3.38 3.2 3.13 3.08 3.11 3.08 3.02 2.99
3887.626 3.02 3.02 2.91 2.92 2.89 2.93 2.95 2.88 2.87 2.87
3906.920 2.9 2.91 2.9 2.91 3 2.98 2.9 2.97 3.12 3.14
3926.213 3.19 3.32 3.46 3.64 3.86 4.03 4.11 4.15 4.26 4.52
3945.506 4.72 4.77 4.81 4.9 4.91 4.83 4.7 4.62 4.62 4.62
3964.800 4.63 4.58 4.55 4.5 4.39 4.21 4.07 3.96 3.91 3.84
3984.093 3.67 3.59 3.54 3.5 3.48 3.46 3.4 3.34 3.36
##END=
