##TITLE=2,6-Dimethylcyclohexanone
##JCAMP-DX=4.24
##DATA TYPE=INFRARED SPECTRUM
##ORIGIN=NIST Mass Spectrometry Data Center
##OWNER=NIST Standard Reference Data Program
Collection (C) 2018 copyright by the U.S. Secretary of Commerce
on behalf of the United States of America. All rights reserved.
##CAS REGISTRY NO=2816-57-1
##MOLFORM=C 8 H 14 O
##$NIST SOURCE=MSDC-IR
##SPECTROMETER/DATA SYSTEM=HP-GC/MS/IRD
##STATE=gas
##XUNITS=1/CM
##YUNITS=ABSORBANCE
##XFACTOR=1.0
##YFACTOR=0.000002500
##DELTAX=4.0
##FIRSTX=550.0
##LASTX=3846.0
##FIRSTY=0.000140
##MAXX=3846
##MINX=550
##MAXY=0.025
##MINY=0
##NPOINTS=825
##XYDATA=(X++(Y..Y))
550.0 56 65 53 34 36 75 83 57 69 93
590.0 88 88 105 63 28 39 28 32 33 2
630.0 5 25 35 53 52 49 51 45 45 57
670.0 47 29 37 35 21 23 22 21 39 30
710.0 36 43 40 43 50 66 68 88 119 143
750.0 170 176 175 163 129 81 47 35 31 43
790.0 39 28 37 38 17 29 60 69 44 63
830.0 115 137 217 338 453 535 578 567 520 415
870.0 255 143 98 82 73 66 67 78 85 90
910.0 86 96 108 115 140 179 224 308 405 449
950.0 505 586 679 806 943 1070 1178 1230 1229 1158
990.0 988 773 605 483 371 262 188 161 162 158
1030.0 168 194 212 219 225 226 252 293 305 317
1070.0 347 354 349 344 315 298 317 380 481 630
1110.0 837 1069 1313 1509 1596 1580 1438 1191 903 629
1150.0 432 310 229 172 154 141 120 120 103 80
1190.0 69 74 88 104 123 158 184 183 179 185
1230.0 158 115 110 112 107 103 96 104 119 121
1270.0 122 130 140 146 154 186 223 259 327 396
1310.0 444 479 481 455 403 346 323 320 336 382
1350.0 444 511 577 635 698 802 883 940 970 925
1390.0 824 662 475 341 262 222 218 232 254 300
1430.0 393 547 762 1009 1244 1524 1800 1765 1601 1414
1470.0 1151 890 635 440 313 233 179 150 134 122
1510.0 103 90 90 88 77 76 83 86 82 77
1550.0 74 73 77 67 63 68 73 80 76 68
1590.0 61 64 62 65 74 78 87 88 86 93
1630.0 105 122 124 132 159 173 183 181 187 209
1670.0 234 270 312 368 455 573 754 1020 1439 2099
1710.0 3086 4352 5671 6598 6929 6828 6151 4780 3141 1797
1750.0 981 588 412 317 270 241 213 185 168 159
1790.0 149 131 121 118 104 86 74 72 66 66
1830.0 66 67 71 67 58 49 42 46 47 38
1870.0 34 34 30 29 31 23 16 19 22 28
1910.0 30 25 24 21 19 16 23 29 28 27
1950.0 22 17 20 22 24 22 19 21 26 35
1990.0 34 24 20 19 16 11 10 17 23 23
2030.0 24 23 22 21 18 24 24 22 24 21
2070.0 16 22 29 26 21 19 16 19 22 22
2110.0 29 30 27 24 23 19 19 12 8 10
2150.0 15 12 9 6 4 2 1 6 8 12
2190.0 24 27 23 18 17 24 23 20 9 2
2230.0 6 0 10 18 13 17 21 20 21 18
2270.0 16 15 20 28 30 23 26 33 37 42
2310.0 36 26 27 35 32 25 25 38 39 39
2350.0 36 35 31 29 33 35 34 30 34 34
2390.0 33 30 30 38 30 22 32 31 26 22
2430.0 17 21 26 28 32 22 13 22 34 38
2470.0 35 31 35 37 33 31 33 33 30 34
2510.0 31 25 24 28 38 32 24 27 33 34
2550.0 42 48 49 51 41 35 37 40 43 50
2590.0 51 42 36 36 50 60 58 58 57 53
2630.0 52 58 72 81 85 83 88 91 96 110
2670.0 107 97 89 87 88 87 81 74 73 73
2710.0 72 69 71 79 92 100 103 115 137 151
2750.0 142 126 116 118 133 133 132 148 157 165
2790.0 189 205 223 241 255 267 277 293 307 331
2830.0 362 398 477 632 884 1285 1850 2530 3235 3730
2870.0 3979 4193 4180 3653 3024 2616 2305 2084 2024 2145
2910.0 2469 3030 3846 4989 6685 8647 9879 10000 9247 8206
2950.0 6808 5034 3653 3013 2910 3188 3714 3757 3525 3333
2990.0 2761 2089 1526 1054 700 464 331 257 225 203
3030.0 181 173 178 188 189 185 177 172 177 182
3070.0 171 156 159 156 147 144 144 133 124 132
3110.0 126 111 115 104 85 79 85 81 87 95
3150.0 98 95 94 94 90 95 95 100 107 98
3190.0 77 77 66 49 52 44 52 67 58 47
3230.0 49 44 35 43 54 61 60 54 55 53
3270.0 52 49 44 41 33 25 21 28 38 27
3310.0 25 27 25 24 30 25 30 42 30 21
3350.0 24 27 28 30 24 30 38 28 35 42
3390.0 47 49 37 47 73 84 93 101 101 118
3430.0 144 149 142 127 113 92 67 63 54 41
3470.0 35 29 40 44 35 36 38 32 31 16
3510.0 8 4 0 22 33 26 24 18 17 25
3550.0 28 28 9 0 11 16 22 27 25 25
3590.0 31 22 15 15 9 18 28 23 13 29
3630.0 39 17 8 11 11 17 22 21 18 25
3670.0 15 11 15 10 21 36 35 28 21 28
3710.0 39 41 46 42 27 32 35 15 15 32
3750.0 31 30 35 34 40 38 36 36 34 47
3790.0 35 9 18 35 36 35 26 16 29 32
3830.0 23 27 35 42 54
##END=
