##TITLE=2,6-Difluorophenol
##JCAMP-DX=4.24
##DATA TYPE=INFRARED SPECTRUM
##ORIGIN=EPA-IR VAPOR PHASE LIBRARY
##OWNER=SRD/NIST
Collection (C) 2018 copyright by the U.S. Secretary of Commerce
on behalf of the United States of America. All rights reserved.
##CAS REGISTRY NO=28177-48-2
##MOLFORM=C 6 H 4 F 2 O
##$NIST SOURCE=MSDC-IR
##STATE=gas
##XUNITS=1/CM
##YUNITS=ABSORBANCE
##XFACTOR=1.
##YFACTOR=0.001
##DELTAX=1.92934
##FIRSTX=549.9
##LASTX=3999.5
##FIRSTY=3.31
##MAXX=3999.53
##MINX=549.863
##MAXY=0.09187
##MINY=0
##NPOINTS=1789
##XYDATA=(X++(Y..Y))
549.863 3.31 3.5 3.49 3.58 3.63 3.79 4.3 4.83 5.44 6.16
569.156 6.68 6.72 6.65 6.74 6.99 7.15 7.3 7.55 7.45 6.96
588.450 6.29 5.64 5.1 4.63 4.31 4.07 3.79 3.66 3.54 3.33
607.743 3.22 3.15 2.93 2.78 2.83 2.81 2.78 2.77 2.6758 2.5681
627.037 2.5978 2.6596 2.6241 2.627 2.6632 2.76 2.83 2.84 2.94 2.99
646.330 3.04 3.1 3.1 3.14 3.24 3.33 3.31 3.38 3.42 3.51
665.624 3.64 3.82 4.14 4.65 5.48 6.62 8.13 10.01 12.19 14.58
684.917 16.91 18.91 20.08 20.11 20.11 21.49 22.91 23.23 23.48 25.31
704.210 30.37 36.52 33.15 21.21 14.7 13.61 13.3 13.03 12.2 10.87
723.504 9.34 7.72 6.23 5.13 4.36 3.96 3.74 3.79 4.06 4.54
742.797 5.32 6.54 8.16 10.05 12.13 14.2 16.15 17.82 19.07 20.47
762.091 22.6 26.94 35.3 46.78 46.39 31.47 21.99 20.27 20.13 19.86
781.384 18.58 16.57 14.02 11.4 9.07 7.21 5.78 4.79 4.14 3.78
800.678 3.55 3.43 3.49 3.64 3.73 3.88 4.21 4.67 5.14 5.6
819.971 6.06 6.47 6.75 6.94 7.18 7.5 8.04 8.62 8.97 9.02
839.264 8.63 8.04 7.48 7.09 6.83 6.56 6.18 5.63 4.96 4.32
858.558 3.73 3.17 2.7365 2.4411 2.2239 2.0878 2.0263 2.01 1.9457 1.852
877.851 1.84247 1.8575 1.8313 1.84872 1.9661 2.0223 2.0337 2.0524 2.0897 2.1669
897.145 2.1983 2.2058 2.255 2.2806 2.2705 2.3074 2.3099 2.3359 2.3952 2.3853
916.438 2.4123 2.4556 2.4812 2.5978 2.7403 2.88 3.04 3.16 3.31 3.48
935.732 3.6 3.7 3.87 4.34 5 5.46 5.42 5.39 5.94 6.81
955.025 7.98 9.71 11.95 14.77 18.35 22.67 27.7 33.35 39.51 46.16
974.318 53.31 60.24 65.74 69.49 71.73 73.09 73.67 72.13 69.08 66.17
993.612 62.68 57.16 49.55 41.06 33.2 26.88 22.01 18.34 15.52 13.28
1012.905 11.45 9.98 8.91 8.05 7.34 6.81 6.39 6.02 5.7 5.45
1032.199 5.36 5.44 5.67 6.1 6.72 7.4 8.15 8.91 9.59 10.07
1051.492 10.28 10.29 10.29 10.48 10.69 10.65 10.36 9.77 8.84 7.75
1070.786 6.71 5.78 4.95 4.32 3.83 3.47 3.16 2.88 2.6084 2.4881
1090.079 2.5117 2.3802 2.3244 2.3619 2.3346 2.3368 2.3491 2.4673 2.5705 2.5599
1109.372 2.607 2.6678 2.7294 2.79 2.86 3 3.13 3.26 3.43 3.62
1128.666 3.83 4.11 4.47 4.86 5.21 5.39 5.39 5.21 4.95 4.93
1147.959 5.16 5.3 5.22 4.97 4.68 4.34 4.02 3.76 3.62 3.66
1167.253 3.8 4.06 4.37 4.75 5.29 6 6.66 7.35 8.17 8.9
1186.546 9.68 10.74 12.31 14.46 17.46 21.62 27.28 34.65 43.84 54.68
1205.840 66.18 76.75 84.74 89.17 90.23 89.57 89.3 90.21 91.5 91.87
1225.133 88.57 80.3 68.74 57.04 48.17 43.21 41.57 41.98 43.56 45.86
1244.426 48.5 50.65 51.47 50.64 48.5 46.29 45.23 44.25 42.27 39.96
1263.720 37.68 35.43 33.72 33.11 33.94 36.32 39.82 43.86 47.91 51.36
1283.013 53.69 54.76 54.95 54.77 54.51 54.05 52.95 50.47 46.42 41.58
1302.307 36.63 31.99 28.12 25.16 22.89 21 19.38 18.15 17.44 17.36
1321.600 17.47 17.31 17.03 16.86 16.85 17.06 17.46 17.98 18.42 18.61
1340.894 18.36 17.81 17.15 16.4 15.69 14.97 13.88 12.29 10.41 8.52
1360.187 6.76 5.3 4.3 3.54 3.01 2.7083 2.5158 2.3771 2.2095 2.1041
1379.480 2.0779 2.0157 1.9804 1.9966 2.0213 2.0341 2.0229 2.0168 2.072 2.0598
1398.774 2.0544 2.0962 2.104 2.1751 2.254 2.3113 2.3685 2.4387 2.5158 2.6014
1418.067 2.6825 2.79 2.86 2.88 2.93 3 3.12 3.22 3.32 3.47
1437.361 3.69 3.9 4.14 4.42 4.83 5.42 6.13 7.04 8.3 9.91
1456.654 12.2 15.11 18.54 22.74 27.72 33.38 39.25 45.06 50.42 54.77
1475.948 57.58 59.08 59.63 59.94 60.22 60.02 58.89 57.98 57.62 56.99
1495.241 56.8 57.97 60.9 65.65 71.59 77.82 83.5 86.85 87.25 85.32
1514.534 82.56 80.91 80.65 79.52 74.65 66.35 55.61 44.32 34.14 26.02
1533.828 20.06 16.22 14.1 12.87 12.22 12.06 12.16 12.29 12.4 12.36
1553.121 12.23 12.14 12.12 12.02 11.75 11.53 11.39 11.28 11.12 10.9
1572.415 10.61 10.34 10.13 9.99 10.04 10.3 10.76 11.52 12.46 13.66
1591.708 15.27 17.16 19.48 22.13 24.78 27.35 29.65 31.48 32.89 33.93
1611.002 34.57 34.83 34.57 33.58 31.78 29.27 26.14 22.55 19.14 16.4
1630.295 14.48 13.18 12.07 10.85 9.54 8.33 7.24 6.36 5.73 5.27
1649.588 4.97 4.83 4.64 4.41 4.19 4.05 3.95 3.77 3.6 3.44
1668.882 3.25 3.03 2.75 2.5133 2.333 2.1665 2.0113 1.9342 1.8816 1.80554
1688.175 1.76843 1.76213 1.7767 1.83108 1.9173 1.9462 1.9488 1.8869 1.8555 1.8913
1707.469 1.8964 1.8652 1.8679 1.8891 1.8946 1.9443 1.9669 1.9931 2.0079 2.0297
1726.762 2.1047 2.1715 2.2207 2.3355 2.4139 2.3734 2.3535 2.3296 2.3038 2.2451
1746.056 2.1558 2.1037 2.0509 1.9648 1.8789 1.78175 1.6947 1.637 1.606 1.573
1765.349 1.559 1.558 1.535 1.539 1.556 1.602 1.64 1.634 1.603 1.606
1784.642 1.645 1.6642 1.7071 1.75195 1.8605 1.9646 1.9923 2.1273 2.2787 2.3835
1803.936 2.5466 2.6733 2.7497 2.83 2.81 2.79 2.83 2.79 2.684 2.575
1823.229 2.4843 2.3831 2.24 2.0766 1.9013 1.74575 1.595 1.52 1.478 1.4
1842.523 1.38 1.39 1.386 1.381 1.345 1.328 1.314 1.333 1.375 1.383
1861.816 1.421 1.494 1.576 1.6991 1.83014 1.9216 2.0925 2.2614 2.3851 2.5543
1881.110 2.6721 2.6912 2.7058 2.7032 2.6856 2.7175 2.78 2.78 2.6729 2.5327
1900.403 2.3929 2.2642 2.1226 2.0089 1.9556 1.8855 1.81883 1.7723 1.75737 1.7357
1919.696 1.6936 1.6552 1.603 1.577 1.535 1.489 1.479 1.467 1.472 1.477
1938.990 1.484 1.452 1.421 1.432 1.402 1.371 1.343 1.333 1.351 1.341
1958.283 1.344 1.369 1.377 1.373 1.38 1.428 1.473 1.519 1.555 1.541
1977.577 1.551 1.582 1.586 1.544 1.533 1.531 1.486 1.451 1.423 1.393
1996.870 1.339 1.319 1.34 1.276 1.242 1.248 1.234 1.267 1.259 1.239
2016.164 1.234 1.234 1.222 1.209 1.235 1.272 1.285 1.3 1.335 1.385
2035.457 1.401 1.414 1.436 1.451 1.47 1.494 1.559 1.602 1.635 1.649
2054.750 1.609 1.603 1.628 1.624 1.603 1.6 1.594 1.578 1.562 1.569
2074.044 1.543 1.532 1.538 1.51 1.483 1.476 1.48 1.469 1.451 1.423
2093.337 1.423 1.385 1.34 1.37 1.363 1.301 1.257 1.26 1.27 1.246
2112.631 1.198 1.18 1.183 1.169 1.137 1.132 1.166 1.142 1.109 1.096
2131.924 1.124 1.127 1.115 1.125 1.12 1.135 1.143 1.147 1.148 1.135
2151.218 1.164 1.222 1.242 1.219 1.208 1.266 1.277 1.26 1.283 1.305
2170.511 1.366 1.436 1.443 1.465 1.512 1.527 1.588 1.643 1.6828 1.747
2189.804 1.81117 1.8823 1.9354 1.9591 1.9961 2.0062 1.9874 1.9996 1.9734 1.9333
2209.098 1.898 1.8779 1.8635 1.78282 1.6896 1.649 1.614 1.539 1.509 1.482
2228.391 1.451 1.442 1.457 1.482 1.452 1.427 1.39 1.338 1.318 1.302
2247.685 1.281 1.258 1.249 1.257 1.275 1.291 1.29 1.297 1.343 1.385
2266.978 1.403 1.45 1.498 1.518 1.522 1.532 1.517 1.547 1.589 1.569
2286.272 1.552 1.598 1.624 1.577 1.549 1.531 1.526 1.519 1.491 1.471
2305.565 1.463 1.498 1.489 1.465 1.482 1.446 1.393 1.38 1.394 1.411
2324.858 1.402 1.377 1.367 1.35 1.327 1.339 1.329 1.29 1.292 1.294
2344.152 1.277 1.256 1.268 1.245 1.209 1.201 1.174 1.167 1.145 1.141
2363.445 1.155 1.109 1.086 1.091 1.062 1.022 0.997 1.002 0.999 0.983
2382.739 0.998 0.984 0.975 0.988 0.968 0.98 1.009 1.021 1.036 1.03
2402.032 1.013 0.998 1.016 1.054 1.043 1.058 1.073 1.097 1.169 1.188
2421.326 1.189 1.207 1.22 1.274 1.339 1.372 1.403 1.475 1.551 1.633
2440.619 1.725 1.78176 1.8828 2.0076 2.0807 2.1284 2.178 2.2545 2.3316 2.3754
2459.912 2.4637 2.5699 2.6397 2.6786 2.701 2.7392 2.75 2.6989 2.6605 2.6352
2479.206 2.5708 2.522 2.4738 2.4476 2.3972 2.35 2.3544 2.3691 2.3626 2.3363
2498.499 2.2929 2.2486 2.2233 2.168 2.0085 1.9074 1.83454 1.77842 1.7343 1.556
2517.793 1.478 1.464 1.44 1.401 1.327 1.311 1.312 1.328 1.309 1.274
2537.086 1.35 1.369 1.334 1.329 1.289 1.306 1.308 1.253 1.214 1.176
2556.380 1.132 1.101 1.078 1.114 1.145 1.081 1.022 1.03 1.058 1.04
2575.673 0.998 0.994 1.033 1.07 1.112 1.132 1.097 1.092 1.113 1.107
2594.966 1.047 1.002 0.966 0.976 0.982 0.921 0.908 0.898 0.901 0.921
2614.260 0.861 0.79 0.813 0.854 0.884 0.86 0.819 0.86 0.883 0.85
2633.553 0.837 0.814 0.788 0.773 0.784 0.78 0.7 0.7 0.73 0.7
2652.847 0.74 0.826 0.869 0.874 0.883 0.903 0.93 0.964 0.965 0.943
2672.140 0.994 1.07 1.061 1.121 1.159 1.145 1.147 1.091 1.068 1.06
2691.434 1.003 1.003 0.966 0.876 0.886 0.918 0.917 0.857 0.824 0.866
2710.727 0.883 0.876 0.892 0.915 0.892 0.938 0.984 0.952 0.979 0.983
2730.020 0.987 1.024 1.01 0.947 0.93 0.913 0.875 0.888 0.825 0.799
2749.314 0.833 0.778 0.71 0.73 0.72 0.72 0.786 0.778 0.72 0.71
2768.607 0.73 0.71 0.65 0.59 0.61 0.64 0.6 0.56 0.54 0.48
2787.901 0.44 0.44 0.48 0.58 0.6 0.5 0.45 0.49 0.5 0.47
2807.194 0.46 0.51 0.5 0.48 0.48 0.43 0.47 0.48 0.48 0.45
2826.488 0.45 0.47 0.48 0.49 0.37 0.39 0.51 0.51 0.44 0.39
2845.781 0.35 0.3 0.43 0.49 0.42 0.34 0.29 0.29 0.31 0.31
2865.074 0.32 0.36 0.39 0.38 0.32 0.24 0.29 0.38 0.37 0.34
2884.368 0.27 0.28 0.29 0.28 0.37 0.34 0.23 0.16 0.17 0.2
2903.661 0.18 0.15 0.2 0.31 0.31 0.2 0.11 0.07 0.16 0.18
2922.955 0.06 0.09 0.11 0 0.01 0.1 0.17 0.13 0.07 0.11
2942.248 0.06 0.04 0.22 0.23 0.06 0.07 0.19 0.19 0.17 0.13
2961.542 0.15 0.31 0.27 0.14 0.08 0.05 0.14 0.18 0.11 0.11
2980.835 0.21 0.24 0.17 0.15 0.22 0.28 0.2 0.19 0.28 0.31
3000.128 0.24 0.27 0.3 0.22 0.24 0.25 0.23 0.22 0.17 0.16
3019.422 0.16 0.17 0.16 0.14 0.16 0.29 0.42 0.37 0.31 0.36
3038.715 0.45 0.58 0.71 0.825 1.023 1.134 1.194 1.366 1.533 1.605
3058.009 1.7336 1.9026 2.011 2.1194 2.1933 2.26 2.3354 2.439 2.5346 2.6189
3077.302 2.7165 2.83 2.8 2.85 3.01 2.87 2.7011 2.6654 2.5231 2.2927
3096.596 2.1292 1.9642 1.8835 1.83215 1.58 1.427 1.395 1.227 1.084 1.043
3115.889 1.073 1.024 0.85 0.63 0.46 0.45 0.5 0.53 0.56 0.53
3135.182 0.38 0.27 0.27 0.21 0.24 0.28 0.21 0.18 0.12 0.1
3154.476 0.18 0.2 0.18 0.24 0.26 0.31 0.3 0.22 0.14 0.01
3173.769 0.08 0.28 0.25 0.2 0.21 0.33 0.51 0.49 0.32 0.27
3193.063 0.24 0.19 0.23 0.16 0.1 0.14 0.16 0.26 0.32 0.24
3212.356 0.26 0.31 0.36 0.33 0.34 0.29 0.26 0.46 0.49 0.43
3231.650 0.29 0.32 0.27 0.16 0.32 0.48 0.53 0.61 0.58 0.45
3250.943 0.44 0.5 0.59 0.61 0.61 0.61 0.838 0.927 0.915 1.009
3270.236 1.038 0.957 0.775 0.66 0.64 0.67 0.73 0.73 0.63 0.67
3289.530 0.74 0.67 0.62 0.66 0.72 0.824 0.92 0.887 0.827 0.815
3308.823 0.804 0.73 0.69 0.72 0.71 0.72 0.861 0.921 0.916 0.891
3328.117 0.882 0.836 0.865 1.017 1.054 1.111 1.072 1.054 1.165 1.222
3347.410 1.207 1.084 1.039 1.054 0.986 0.947 0.921 0.922 0.852 0.76
3366.704 0.829 0.815 0.789 0.827 0.917 0.94 0.98 1.083 0.922 0.827
3385.997 0.889 0.925 0.927 0.833 0.72 0.786 0.829 0.827 0.971 1.045
3405.290 0.849 0.758 0.786 0.816 0.906 0.867 0.883 0.894 0.834 0.75
3424.584 0.785 0.813 0.774 0.808 0.761 0.71 0.76 0.893 1.068 1.125
3443.877 0.991 1.005 0.998 0.831 0.812 0.948 1.093 1.135 0.974 0.964
3463.171 0.998 0.905 0.991 1.074 1.008 0.966 0.964 0.968 0.955 0.894
3482.464 0.83 0.877 0.958 0.993 0.92 0.78 0.835 0.882 0.946 1.054
3501.758 1.151 1.186 1.078 0.965 1.01 1.033 0.986 1.075 1.162 1.129
3521.051 1.011 1.026 1.058 1.012 1.079 1.131 1.084 1.087 1.123 1.142
3540.344 1.111 1.013 1.026 1.129 1.197 1.303 1.27 1.185 1.284 1.401
3559.638 1.361 1.365 1.401 1.416 1.467 1.436 1.418 1.543 1.599 1.509
3578.931 1.532 1.607 1.633 1.7273 1.883 1.99 2.2319 2.4772 2.6473 2.9
3598.225 3.26 3.85 4.86 6.1 7.72 10.26 13.98 19.04 25.77 34.05
3617.518 43.19 52.04 58.39 61.17 61.12 60.06 60.08 60.84 61.02 60.43
3636.812 57.29 50.47 41.1 31.08 22.34 15.68 10.89 7.87 5.98 4.69
3656.105 3.91 3.34 2.87 2.5066 2.2811 2.2023 2.1673 1.9959 1.8682 1.8866
3675.398 1.9211 1.6647 1.537 1.538 1.505 1.522 1.509 1.531 1.492 1.495
3694.692 1.487 1.515 1.487 1.443 1.411 1.325 1.372 1.449 1.388 1.369
3713.985 1.36 1.327 1.473 1.432 1.208 1.162 1.133 1.066 1.204 1.426
3733.279 1.4 1.281 1.193 1.185 1.208 1.248 1.3 1.298 1.332 1.342
3752.572 1.352 1.301 1.225 1.275 1.398 1.406 1.301 1.315 1.306 1.187
3771.866 1.213 1.307 1.323 1.308 1.296 1.246 1.196 1.209 1.176 1.23
3791.159 1.27 1.146 1.178 1.286 1.349 1.361 1.313 1.335 1.359 1.304
3810.452 1.222 1.164 1.209 1.31 1.352 1.247 1.082 1.122 1.236 1.344
3829.746 1.38 1.266 1.243 1.272 1.229 1.309 1.39 1.352 1.309 1.269
3849.039 1.336 1.379 1.418 1.461 1.384 1.355 1.291 1.322 1.47 1.509
3868.333 1.513 1.511 1.483 1.458 1.451 1.479 1.502 1.498 1.516 1.528
3887.626 1.528 1.542 1.55 1.617 1.6608 1.616 1.627 1.687 1.6802 1.7143
3906.920 1.83771 1.80428 1.80485 1.9574 1.9701 1.9566 2.0744 2.0446 1.8648 1.83616
3926.213 1.8175 1.7257 1.6519 1.7162 1.7063 1.583 1.488 1.434 1.469 1.475
3945.506 1.479 1.607 1.638 1.503 1.488 1.443 1.339 1.332 1.348 1.331
3964.800 1.354 1.395 1.364 1.285 1.284 1.295 1.326 1.419 1.481 1.418
3984.093 1.331 1.368 1.514 1.6612 1.559 1.318 1.205 1.187 1.198
##END=
