##TITLE=m-Cyanobenzyl bromide
##JCAMP-DX=4.24
##DATA TYPE=INFRARED SPECTRUM
##ORIGIN=EPA-IR VAPOR PHASE LIBRARY
##OWNER=SRD/NIST
Collection (C) 2018 copyright by the U.S. Secretary of Commerce
on behalf of the United States of America. All rights reserved.
##CAS REGISTRY NO=28188-41-2
##MOLFORM=C 8 H 6 Br N
##$NIST SOURCE=MSDC-IR
##STATE=gas
##XUNITS=1/CM
##YUNITS=ABSORBANCE
##XFACTOR=1.
##YFACTOR=0.001
##DELTAX=3.85796
##FIRSTX=551.7
##LASTX=4000.7
##FIRSTY=4.0203
##MAXX=4000.7
##MINX=551.688
##MAXY=0.0279703
##MINY=0
##NPOINTS=895
##XYDATA=(X++(Y..Y))
551.688 4.0203 4.3903 5.2303 6.8903 10.1203 13.8703 15.8103 14.9103 11.8903 8.1303
590.268 5.0803 3.4903 2.7503 2.3603 2.1703 2.0903 2.1803 2.1903 2.1503 2.2103
628.847 2.3503 2.6003 3.2003 4.5003 6.3403 8.1503 9.1803 9.1003 8.1503 7.1603
667.427 7.2403 8.9303 12.4003 17.2403 22.9203 27.8203 27.9703 23.6003 18.0703 12.9203
706.006 9.4703 7.8403 7.1603 6.5303 5.5003 4.1303 2.9003 2.2603 2.0603 1.9803
744.586 1.9003 1.8603 1.9903 2.1203 2.2303 2.5603 3.2903 4.6003 6.6603 9.3303
783.165 12.4903 15.6903 17.3203 16.5003 13.7903 10.2203 6.7003 4.1103 2.8003 2.1503
821.745 1.7603 1.5203 1.2503 1.0903 1.0903 1.0172 0.973 0.9631 0.9462 1.0112
860.324 1.0603 1.1303 1.2503 1.4303 1.7703 2.1403 2.5903 3.3703 4.4403 5.6803
898.904 6.6903 7.0303 6.6603 5.8203 5.0103 4.3103 3.5703 2.9403 2.3803 1.8803
937.484 1.4703 1.1603 1.048 0.8698 0.6878 0.6121 0.5831 0.534 0.4595 0.4169
976.063 0.46 0.5797 0.6172 0.6194 0.7102 0.7591 0.679 0.6906 0.652 0.6658
1014.643 0.651 0.5392 0.5628 0.5018 0.4875 0.6347 0.6625 0.7034 0.7955 0.7324
1053.222 0.8903 1.1903 1.2903 1.2203 1.3103 1.6303 2.0703 2.4303 2.9803 3.4303
1091.802 3.1603 2.9403 2.7503 2.1203 1.6203 1.5703 1.6303 1.7203 1.7703 1.7503
1130.381 1.5503 1.6403 1.8803 2.2003 2.8203 3.2003 2.8903 2.4703 2.1703 2.0603
1168.961 2.3303 2.5003 2.5803 2.5003 2.5403 2.9703 3.7903 5.4303 8.3303 13.0403
1207.540 18.8603 22.4503 22.0203 18.7003 13.9203 10.0903 8.1503 7.5903 7.5303 7.8503
1246.120 8.5403 8.6703 7.9803 6.8903 5.8603 5.1303 4.5103 3.8903 3.5603 3.4603
1284.699 3.2803 3.1203 2.9203 2.6703 2.4303 2.1703 2.0103 1.9103 1.7203 1.4403
1323.279 1.1303 0.8648 0.7347 0.6964 0.6966 0.7327 0.7492 0.7538 0.7772 0.7646
1361.859 0.7232 0.671 0.6398 0.6294 0.648 0.6957 0.7593 0.8656 1.0241 1.2603
1400.438 1.5703 1.9303 2.3303 2.7903 3.3603 4.0903 4.9203 5.7003 6.2003 6.3303
1439.018 6.0303 5.3203 4.5403 3.9303 3.5403 3.2803 3.2503 3.6103 4.4903 6.1603
1477.597 8.3903 10.0403 10.0303 8.3903 5.7303 3.2503 1.9003 1.3503 1.0903 0.9126
1516.177 0.8157 0.7352 0.6903 0.7367 0.738 0.7539 0.8044 0.8026 0.8654 0.9916
1554.756 1.0903 1.2903 1.5603 1.9003 2.4303 3.0503 3.6703 4.1403 4.3803 4.4103
1593.336 4.2703 4.0703 3.9203 3.6503 3.2003 2.6903 2.1503 1.6703 1.2803 1.013
1631.915 0.889 0.7716 0.6226 0.531 0.4852 0.4779 0.4542 0.4472 0.4828 0.4908
1670.495 0.4746 0.4682 0.4968 0.5317 0.6409 0.8079 1.0603 1.4203 1.7703 1.9903
1709.075 1.9803 1.7403 1.3303 0.9755 0.7885 0.7069 0.6477 0.6089 0.6165 0.6421
1747.654 0.6646 0.7029 0.7718 0.8395 0.9008 0.9462 1.0388 1.1103 1.1403 1.1903
1786.234 1.2203 1.2403 1.2303 1.2003 1.1603 1.1403 1.1103 1.1103 1.1303 1.1603
1824.813 1.2103 1.2303 1.2203 1.1203 0.9976 0.861 0.7333 0.6502 0.6007 0.5819
1863.393 0.6051 0.6586 0.7454 0.9238 1.2103 1.5503 1.8403 1.9103 1.6503 1.2603
1901.972 0.89 0.6118 0.4871 0.4499 0.4259 0.41 0.4484 0.5216 0.6665 0.8741
1940.552 1.0903 1.2903 1.4103 1.3903 1.2503 0.9974 0.7046 0.5304 0.4636 0.432
1979.131 0.4344 0.4243 0.4036 0.3889 0.3668 0.3549 0.3408 0.3233 0.3141 0.3072
2017.711 0.2851 0.2637 0.268 0.2333 0.2274 0.2507 0.255 0.2661 0.2231 0.1945
2056.291 0.2118 0.2259 0.2278 0.2119 0.2314 0.2554 0.2299 0.226 0.2828 0.2928
2094.870 0.2715 0.2647 0.2507 0.2614 0.2282 0.1865 0.169 0.1859 0.2178 0.2047
2133.450 0.1886 0.1806 0.1844 0.2169 0.2236 0.2041 0.2129 0.2165 0.2176 0.247
2172.029 0.2619 0.2869 0.2856 0.2591 0.2773 0.2766 0.282 0.2997 0.3644 0.4923
2210.609 0.633 0.8872 1.3103 2.0203 3.1203 4.4003 5.3303 5.4003 4.5803 3.1703
2249.188 1.8103 1.0088 0.734 0.6454 0.5321 0.4788 0.4606 0.4206 0.4142 0.4381
2287.768 0.4976 0.5265 0.4991 0.476 0.4285 0.4332 0.4599 0.4353 0.4219 0.4105
2326.347 0.419 0.4262 0.4295 0.4512 0.4879 0.4942 0.4815 0.4715 0.4288 0.4143
2364.927 0.4167 0.4286 0.4486 0.4103 0.3992 0.4243 0.4205 0.3903 0.3997 0.4336
2403.507 0.4043 0.3906 0.4332 0.4282 0.3959 0.3905 0.3894 0.3553 0.3274 0.3084
2442.086 0.2784 0.2609 0.2704 0.3099 0.29 0.2678 0.2757 0.2874 0.2871 0.2504
2480.666 0.266 0.2641 0.2507 0.2633 0.2388 0.2389 0.2717 0.2756 0.2593 0.2465
2519.245 0.2313 0.2063 0.2009 0.2109 0.1909 0.204 0.2397 0.1997 0.1759 0.2003
2557.825 0.2147 0.2533 0.259 0.2537 0.2726 0.2787 0.2652 0.25 0.2758 0.2579
2596.404 0.2782 0.3708 0.3499 0.3236 0.3642 0.3262 0.2289 0.206 0.2092 0.2374
2634.984 0.2785 0.2941 0.3128 0.3281 0.3793 0.4309 0.4312 0.4413 0.4576 0.4285
2673.563 0.4156 0.3941 0.3624 0.3556 0.3311 0.3306 0.3315 0.3004 0.2643 0.2607
2712.143 0.2092 0.1758 0.1834 0.12401 0.10854 0.12535 0.12487 0.1686 0.1801 0.1558
2750.722 0.11248 0.10211 0.12101 0.13337 0.1728 0.1814 0.2022 0.2068 0.1947 0.2117
2789.302 0.1823 0.1831 0.2098 0.1799 0.2115 0.3098 0.3297 0.289 0.3045 0.3547
2827.882 0.382 0.4089 0.4573 0.5101 0.5581 0.5934 0.6428 0.6129 0.5979 0.654
2866.461 0.6817 0.708 0.622 0.5545 0.5616 0.5289 0.4797 0.4449 0.4114 0.3796
2905.041 0.3443 0.3033 0.309 0.3378 0.3207 0.3048 0.3477 0.4028 0.5295 0.7404
2943.620 0.9794 1.1203 1.3003 1.5903 1.7803 2.0403 2.5103 3.0903 3.7203 4.1803
2982.200 4.1403 3.6403 2.9503 2.3803 1.9303 1.6203 1.4703 1.3903 1.4603 1.6403
3020.779 1.8603 2.1003 2.3803 2.7103 3.0203 3.2503 3.4103 3.5203 3.6603 3.8403
3059.359 4.0103 4.1303 4.2803 4.4703 4.6603 4.8503 4.6903 4.2003 3.6003 3.0103
3097.938 2.6003 2.3503 2.0703 1.7703 1.3903 1.0146 0.792 0.5837 0.4444 0.3424
3136.518 0.2688 0.2855 0.2462 0.2511 0.2913 0.2592 0.301 0.3339 0.3208 0.3667
3175.098 0.3369 0.287 0.2946 0.274 0.2612 0.2702 0.2413 0.14983 0.08577 0.04636
3213.677 0.0298 0.051487 0.07448 0.059827 0.0427 0.10181 0.06156 0.0006 0.07071 0.059494
3252.257 0.0343 0.10322 0.1793 0.1756 0.1382 0.10355 0.11986 0.08249 0 0.053502
3290.836 0.07972 0.0198 0.0397 0.056766 0.0402 0.011 0.0054 0.049919 0.11441 0.12149
3329.416 0.10118 0.13633 0.12504 0.1745 0.1771 0.1739 0.1804 0.11016 0.13373 0.1659
3367.995 0.1669 0.1825 0.258 0.2714 0.2079 0.2118 0.1901 0.1637 0.1584 0.12478
3406.575 0.09076 0.11643 0.1575 0.09972 0.053424 0.0713 0.12011 0.1635 0.1859 0.2641
3445.154 0.2788 0.2738 0.3029 0.2454 0.2025 0.2187 0.1934 0.189 0.2261 0.2629
3483.734 0.269 0.2508 0.2818 0.2503 0.1609 0.2119 0.2148 0.12224 0.0982 0.12286
3522.314 0.1689 0.1556 0.09488 0.11262 0.1565 0.1503 0.1643 0.12595 0.06045 0.06634
3560.893 0.08505 0.1431 0.1848 0.09321 0.06894 0.14758 0.12278 0.08716 0.12055 0.1594
3599.473 0.1752 0.14598 0.1754 0.1723 0.168 0.2396 0.2016 0.151 0.1885 0.1952
3638.052 0.1664 0.14299 0.197 0.2201 0.14362 0.1733 0.191 0.1744 0.1786 0.13907
3676.632 0.12471 0.1573 0.205 0.2143 0.157 0.1521 0.1809 0.1745 0.10236 0.10616
3715.211 0.1733 0.1721 0.1875 0.1318 0.10611 0.11211 0.10623 0.12021 0.13904 0.192
3753.791 0.1561 0.13463 0.1786 0.2387 0.232 0.14246 0.1855 0.229 0.204 0.1732
3792.370 0.1903 0.1909 0.13763 0.1227 0.1829 0.2341 0.1616 0.1826 0.2268 0.2243
3830.950 0.2367 0.2141 0.2085 0.2101 0.2286 0.2749 0.2773 0.1985 0.1547 0.1745
3869.530 0.2129 0.1903 0.14554 0.14572 0.13874 0.09807 0.14364 0.1634 0.10561 0.11087
3908.109 0.1596 0.1831 0.1775 0.2313 0.1922 0.1751 0.1791 0.1633 0.1708 0.12568
3946.689 0.1762 0.1881 0.08698 0.12 0.1789 0.14518 0.1747 0.1884 0.1531 0.1561
3985.268 0.1508 0.1788 0.13069 0.053821 0.12563
##END=
