##TITLE=3',4'-Methylenedioxypropiophenone
##JCAMP-DX=4.24
##DATA TYPE=INFRARED SPECTRUM
##ORIGIN=EPA-IR VAPOR PHASE LIBRARY
##OWNER=SRD/NIST
Collection (C) 2018 copyright by the U.S. Secretary of Commerce
on behalf of the United States of America. All rights reserved.
##CAS REGISTRY NO=28281-49-4
##MOLFORM=C 10 H 10 O 3
##$NIST SOURCE=MSDC-IR
##STATE=gas
##XUNITS=1/CM
##YUNITS=ABSORBANCE
##XFACTOR=1.
##YFACTOR=0.001
##DELTAX=1.92898
##FIRSTX=549.8
##LASTX=4000.7
##FIRSTY=5.173
##MAXX=4000.7
##MINX=549.759
##MAXY=0.238523
##MINY=0
##NPOINTS=1790
##XYDATA=(X++(Y..Y))
549.759 5.173 6.013 6.733 6.733 6.813 7.243 7.843 8.183 8.203 8.343
569.049 8.423 8.403 8.153 7.393 6.453 5.463 4.573 3.773 3.063 2.663
588.339 2.393 2.093 1.793 1.853 1.933 1.703 1.863 2.143 2.223 2.503
607.628 2.763 2.863 2.903 2.873 2.973 3.153 3.133 3.113 3.223 3.253
626.918 3.123 3.043 3.083 3.203 3.223 3.173 3.143 3.053 3.153 3.193
646.208 3.113 3.033 2.953 2.933 2.783 2.693 2.603 2.583 2.653 2.593
665.498 2.403 2.193 2.133 1.943 1.773 1.693 1.633 1.643 1.563 1.553
684.787 1.713 1.653 1.483 1.523 1.523 1.543 1.533 1.593 1.793 1.783
704.077 1.953 2.303 2.493 2.783 3.223 3.623 4.003 4.663 4.923 4.763
723.367 4.633 4.403 4.123 3.733 3.333 3.253 3.253 3.223 3.403 3.633
742.657 3.523 3.413 3.603 3.623 3.493 3.643 3.693 3.503 3.483 3.533
761.947 3.503 3.453 3.693 4.233 4.633 4.813 5.273 6.083 7.023 8.053
781.236 9.253 10.473 11.873 13.733 15.753 17.703 19.443 21.013 22.653 24.223
800.526 25.333 25.863 25.653 24.873 23.773 22.553 21.153 19.383 17.793 16.683
819.816 15.893 15.303 14.753 14.223 13.543 12.823 12.003 11.163 10.353 9.373
839.106 8.513 7.783 7.273 6.813 6.393 6.383 6.633 6.943 7.273 7.893
858.395 8.603 9.533 10.733 11.723 12.683 13.973 15.723 17.433 18.653 19.523
877.685 20.483 21.153 21.073 20.063 18.263 16.753 15.523 14.063 12.313 10.653
896.975 9.293 8.053 7.213 6.583 6.193 6.143 6.173 6.203 6.403 6.843
916.265 7.423 8.243 9.303 10.433 11.883 13.693 15.613 17.783 20.373 23.163
935.555 25.963 28.943 31.453 33.493 35.243 36.073 36.193 35.883 34.943 33.373
954.844 31.323 28.903 26.313 23.753 21.463 19.383 17.253 15.143 13.173 11.263
974.134 9.853 8.733 7.713 7.023 6.493 6.203 6.103 5.983 6.133 6.613
993.424 7.213 7.843 8.453 9.263 10.313 11.203 12.303 13.493 14.473 15.163
1012.714 15.513 16.093 16.713 17.653 18.503 19.723 21.563 23.733 27.173 31.433
1032.003 35.873 40.863 46.573 52.823 58.663 64.043 69.093 72.583 74.683 75.573
1051.293 74.813 72.733 69.293 64.923 60.333 55.393 50.073 44.833 39.973 35.543
1070.583 31.813 28.783 26.123 23.893 22.343 21.163 20.103 19.743 20.423 20.983
1089.873 21.803 23.433 24.973 26.733 28.503 30.133 31.583 32.523 32.773 32.583
1109.163 32.043 31.243 30.203 28.733 26.653 24.803 23.693 22.483 21.593 20.843
1128.452 20.253 19.683 19.263 19.473 19.433 18.933 18.493 18.043 16.933 15.003
1147.742 13.403 12.023 10.613 9.653 8.463 6.973 6.053 5.573 5.353 4.983
1167.032 4.563 4.723 4.633 4.593 4.823 5.273 5.633 5.863 6.193 6.333
1186.322 6.913 7.713 8.833 10.083 11.173 12.293 13.493 15.063 16.903 18.233
1205.611 19.283 20.673 21.893 22.753 24.133 26.123 28.353 31.103 35.653 42.043
1224.901 50.303 61.313 75.443 93.023 113.543 136.653 161.503 186.373 208.493 225.583
1244.191 236.223 238.523 232.103 217.923 197.493 173.353 147.983 123.693 102.273 85.273
1263.481 72.443 62.993 56.663 52.273 48.993 46.403 44.073 41.863 39.503 36.803
1282.771 33.883 30.873 27.863 25.053 22.763 20.803 19.333 18.383 17.833 17.673
1302.060 17.793 18.083 18.533 19.023 19.383 19.573 19.683 19.753 19.833 20.033
1321.350 20.433 21.033 21.923 23.213 24.943 27.193 29.983 33.243 36.853 40.723
1340.640 44.503 47.963 50.903 53.013 54.083 53.963 52.573 50.003 46.493 42.303
1359.930 37.793 33.263 28.923 25.053 21.773 19.283 17.513 16.353 15.713 15.343
1379.219 15.093 14.793 14.413 14.033 13.613 13.023 12.403 11.953 11.853 11.983
1398.509 12.323 12.833 13.453 14.253 15.243 16.563 18.343 20.613 23.413 26.993
1417.799 31.523 37.313 44.163 52.053 61.023 70.533 80.153 88.863 95.843 100.423
1437.089 102.173 100.843 96.583 89.953 81.863 73.143 64.523 56.973 50.883 46.383
1456.378 43.253 41.223 40.333 40.363 41.063 42.273 44.263 47.253 51.193 56.213
1475.668 62.453 70.093 78.373 86.273 92.473 96.143 96.543 93.353 86.593 77.273
1494.958 66.873 56.703 48.363 42.543 39.283 37.373 35.383 33.373 31.593 29.443
1514.248 26.143 21.613 17.003 13.483 10.963 9.293 8.073 7.093 6.433 5.963
1533.538 5.573 5.263 5.063 4.833 4.593 4.433 4.303 4.253 4.123 3.963
1552.827 3.913 3.843 3.843 3.833 3.783 3.873 4.003 4.093 4.183 4.313
1572.117 4.543 4.863 5.203 5.543 5.933 6.473 7.093 7.733 8.583 9.583
1591.407 10.653 11.903 13.183 14.543 16.023 17.553 19.123 20.813 22.453 23.933
1610.697 25.223 26.143 26.433 25.953 24.933 23.463 21.583 19.343 16.903 14.573
1629.986 12.593 11.043 9.923 9.063 8.413 7.893 7.513 7.293 7.183 7.183
1649.276 7.263 7.443 7.693 7.963 8.353 8.753 9.213 9.783 10.423 11.163
1668.566 12.113 13.303 14.823 16.793 19.523 22.843 27.133 32.383 38.983 47.083
1687.856 55.993 66.113 76.563 85.933 93.423 98.013 98.903 96.903 91.873 83.003
1707.146 71.363 58.743 46.643 36.383 28.393 22.433 17.973 14.833 12.623 11.053
1726.435 9.983 9.193 8.533 8.123 7.863 7.563 7.273 7.003 6.753 6.433
1745.725 6.143 5.803 5.483 5.253 5.003 4.833 4.693 4.533 4.393 4.273
1765.015 4.143 4.003 3.893 3.843 3.773 3.633 3.443 3.273 3.183 3.073
1784.305 2.903 2.733 2.553 2.423 2.353 2.213 2.103 2.013 1.993 2.033
1803.594 2.033 2.003 1.963 1.993 2.023 2.053 2.103 2.183 2.263 2.383
1822.884 2.473 2.553 2.673 2.733 2.793 2.853 2.873 2.883 2.883 2.873
1842.174 2.833 2.713 2.603 2.483 2.353 2.243 2.213 2.213 2.203 2.163
1861.464 2.143 2.193 2.313 2.413 2.453 2.513 2.593 2.663 2.733 2.813
1880.754 2.863 2.823 2.783 2.693 2.583 2.443 2.253 2.083 1.923 1.733
1900.043 1.563 1.443 1.343 1.283 1.163 1.113 1.153 1.0605 1.0233 1.0847
1919.333 1.0632 1.0388 1.0628 0.9999 0.9729 1.0509 1.0854 1.0489 1.0481 1.055
1938.623 1.0847 1.1009 1.103 1.0857 1.0497 1.1022 1.0891 1.0384 1.0572 1.113
1957.913 1.133 1.1024 1.0675 1.0782 1.183 1.283 1.263 1.293 1.393 1.463
1977.202 1.503 1.513 1.543 1.583 1.633 1.643 1.663 1.653 1.543 1.483
1996.492 1.463 1.463 1.463 1.413 1.433 1.473 1.443 1.493 1.573 1.553
2015.782 1.503 1.543 1.593 1.533 1.553 1.613 1.563 1.573 1.593 1.603
2035.072 1.673 1.713 1.683 1.673 1.693 1.723 1.713 1.683 1.743 1.763
2054.362 1.683 1.733 1.723 1.603 1.573 1.573 1.553 1.553 1.543 1.503
2073.651 1.453 1.433 1.433 1.423 1.383 1.353 1.333 1.263 1.0978 1.0596
2092.941 1.0934 1.0191 0.9514 0.8925 0.8568 0.7755 0.6929 0.6932 0.6668 0.6395
2112.231 0.6148 0.5773 0.5682 0.6334 0.6546 0.6317 0.6116 0.6177 0.6703 0.6525
2131.521 0.5909 0.6181 0.6914 0.6853 0.644 0.6415 0.6937 0.7363 0.6776 0.6681
2150.810 0.6627 0.6608 0.7208 0.7145 0.7086 0.6483 0.6147 0.6312 0.6424 0.6981
2170.100 0.6559 0.5925 0.5961 0.6182 0.6566 0.619 0.5841 0.5992 0.5666 0.585
2189.390 0.565 0.5296 0.5904 0.6189 0.6821 0.7454 0.7358 0.6899 0.6121 0.6752
2208.680 0.7392 0.7033 0.7932 0.8367 0.7744 0.7528 0.8185 0.8578 0.8733 0.9209
2227.970 0.9405 0.9356 0.8769 0.8547 0.901 0.9603 0.9638 0.9662 1.0019 0.9982
2247.259 0.9479 0.9317 0.9657 0.967 0.9295 0.8853 0.8313 0.8097 0.8601 0.9125
2266.549 0.921 0.9069 0.9483 1.022 1.0388 1.036 1.0949 1.163 1.153 1.113
2285.839 1.103 1.1028 1.133 1.143 1.123 1.0814 1.0545 1.0341 1.0746 1.113
2305.129 1.065 1.0267 1.0323 1.0089 1.0076 1.0131 1.0059 0.9786 0.9109 0.9266
2324.418 0.8868 0.9143 0.9352 0.8282 0.7523 0.7484 0.758 0.7227 0.7424 0.7564
2343.708 0.6726 0.666 0.7143 0.6499 0.6276 0.62 0.544 0.5774 0.5792 0.5678
2362.998 0.6246 0.6469 0.5762 0.5292 0.6064 0.5973 0.5406 0.5612 0.5697 0.4944
2382.288 0.5314 0.6222 0.6407 0.6588 0.6265 0.56 0.6284 0.6876 0.596 0.5387
2401.578 0.6166 0.6934 0.6729 0.7082 0.7339 0.6868 0.7164 0.7048 0.6764 0.6686
2420.867 0.6401 0.5932 0.6296 0.6855 0.6547 0.6159 0.5908 0.633 0.6701 0.6966
2440.157 0.6745 0.6876 0.7103 0.6815 0.7302 0.7396 0.7371 0.7931 0.7595 0.7841
2459.447 0.8164 0.8003 0.8756 0.9021 0.8949 0.9726 1.0211 1.0403 1.0665 1.0498
2478.737 1.113 1.253 1.183 1.213 1.313 1.293 1.203 1.123 1.153 1.0922
2498.026 1.0367 0.9894 0.9154 0.8382 0.8273 0.8353 0.7647 0.7446 0.7785 0.7511
2517.316 0.6827 0.6519 0.6078 0.5883 0.6144 0.6524 0.7484 0.7844 0.7763 0.8461
2536.606 0.9262 0.9147 0.8946 0.9403 0.9361 0.9549 1.0221 1.0816 1.153 1.183
2555.896 1.123 1.103 1.123 1.203 1.273 1.333 1.403 1.373 1.373 1.433
2575.186 1.413 1.503 1.693 1.783 1.813 1.923 2.103 2.153 2.153 2.223
2594.475 2.253 2.193 2.173 2.213 2.193 2.093 1.973 1.863 1.773 1.663
2613.765 1.463 1.383 1.373 1.293 1.273 1.213 1.0735 0.9477 0.9155 0.9911
2633.055 1.0157 1.0117 1.0436 1.0094 0.9187 0.9258 1.0109 1.0202 1.029 1.0232
2652.345 1.113 1.183 1.283 1.453 1.433 1.433 1.463 1.603 1.683 1.663
2671.634 1.773 1.813 1.823 1.893 1.893 1.913 2.003 2.023 2.013 2.013
2690.924 1.953 1.923 1.853 1.823 1.893 1.933 1.953 1.973 1.993 1.893
2710.214 1.863 1.833 1.763 1.713 1.653 1.593 1.483 1.483 1.563 1.583
2729.504 1.583 1.643 1.713 1.803 1.943 2.033 2.093 2.173 2.253 2.343
2748.794 2.433 2.543 2.643 2.753 2.873 3.053 3.253 3.453 3.783 4.303
2768.083 4.893 5.533 6.263 6.953 7.383 7.603 7.533 7.243 6.773 6.103
2787.373 5.423 4.643 4.013 3.623 3.373 3.203 3.033 3.003 3.073 3.113
2806.663 3.203 3.383 3.503 3.573 3.713 3.793 4.023 4.313 4.533 4.773
2825.953 5.083 5.423 5.613 5.733 5.933 6.083 6.303 6.603 6.883 7.103
2845.242 7.293 7.643 8.013 8.483 9.173 9.973 10.763 11.653 12.623 13.583
2864.532 14.713 15.983 17.163 18.333 19.563 20.703 21.753 22.773 23.803 24.673
2883.822 25.453 26.063 26.473 26.863 27.083 27.113 27.013 26.883 26.873 27.023
2903.112 27.323 27.703 28.323 29.193 29.933 30.633 31.293 31.603 31.573 31.303
2922.401 30.763 30.053 29.343 28.563 27.783 27.203 27.003 27.153 27.683 28.703
2941.691 30.183 31.933 33.223 33.603 33.503 33.043 31.823 29.953 27.573 25.183
2960.981 23.273 21.783 20.693 20.073 20.073 20.643 21.423 22.543 23.973 25.363
2980.271 26.643 27.543 27.903 27.763 27.173 26.253 24.923 23.103 20.933 18.813
2999.561 17.093 15.733 14.573 13.543 12.793 12.353 12.203 12.233 12.323 12.363
3018.850 12.303 12.123 11.763 11.333 10.713 9.963 9.333 8.743 8.113 7.573
3038.140 7.073 6.673 6.353 5.943 5.683 5.573 5.333 5.103 4.913 4.663
3057.430 4.513 4.493 4.323 4.233 4.363 4.453 4.503 4.613 4.973 5.543
3076.720 6.163 6.823 7.343 7.743 7.933 7.803 7.353 6.673 5.833 4.933
3096.009 4.263 3.793 3.533 3.313 3.033 2.863 2.723 2.533 2.403 2.223
3115.299 1.953 1.783 1.803 1.773 1.623 1.383 1.243 1.223 1.213 1.0534
3134.589 0.8283 0.8575 0.9165 0.8872 0.8416 0.7609 0.7642 0.8593 0.8653 0.796
3153.879 0.7722 0.7291 0.7069 0.7582 0.6828 0.6198 0.6442 0.6846 0.747 0.6443
3173.169 0.5051 0.5271 0.523 0.4788 0.4316 0.4859 0.5084 0.553 0.5498 0.4986
3192.458 0.5196 0.4316 0.4139 0.5059 0.5394 0.4601 0.4542 0.5267 0.5164 0.5897
3211.748 0.7216 0.6577 0.6112 0.6102 0.6317 0.5934 0.6154 0.6356 0.5477 0.4821
3231.038 0.5127 0.5193 0.4883 0.512 0.4949 0.6222 0.6145 0.5663 0.5388 0.4408
3250.328 0.4272 0.4013 0.318 0.2594 0.2285 0.2171 0.3203 0.4051 0.3825 0.3273
3269.617 0.2904 0.3518 0.338 0.2911 0.3653 0.3843 0.3558 0.3983 0.3592 0.3156
3288.907 0.4238 0.3447 0.2536 0.2684 0.2284 0.3348 0.334 0.16374 0.2225 0.2942
3308.197 0.3632 0.4249 0.4898 0.4211 0.2491 0.2987 0.4208 0.4547 0.391 0.3486
3327.487 0.4148 0.3867 0.3928 0.439 0.317 0.3957 0.6175 0.6382 0.6736 0.6155
3346.777 0.4443 0.4521 0.5582 0.8066 0.8109 0.8336 0.9586 0.9207 0.9923 1.0285
3366.066 1.0852 1.103 1.273 1.413 1.363 1.523 1.653 1.673 1.603 1.623
3385.356 1.693 1.633 1.503 1.403 1.353 1.273 1.0247 0.8434 0.8209 0.7287
3404.646 0.5943 0.5463 0.5485 0.5032 0.4426 0.3929 0.4151 0.4057 0.2767 0.224
3423.936 0.314 0.3876 0.464 0.5045 0.3838 0.4108 0.5012 0.5141 0.4244 0.218
3443.225 0.2525 0.3011 0.3296 0.3185 0.2161 0.17468 0.13103 0.16017 0.2754 0.2818
3462.515 0.2945 0.2118 0.18686 0.3115 0.2524 0.2541 0.3306 0.18092 0.108336 0.12797
3481.805 0.107662 0.0852 0.12929 0.19415 0.12902 0.103795 0.17404 0.2748 0.2464 0.3224
3501.095 0.3178 0.2233 0.16065 0.0646 0.14262 0.20007 0.15758 0.0922 0.11513 0.2863
3520.385 0.2042 0.15767 0.19782 0.21 0.2263 0.110895 0.0859 0.15982 0.2444 0.2979
3539.674 0.2247 0.1487 0.2345 0.16988 0.19063 0.2779 0.2678 0.20205 0.14155 0.07
3558.964 0.002 0.0294 0.15447 0.2424 0.249 0.12347 0.0864 0.2515 0.16951 0.0888
3578.254 0.12738 0.0862 0.0611 0.17531 0.2054 0.18797 0.2242 0.22 0.2277 0.33
3597.544 0.3692 0.2109 0.0805 0.14547 0.14763 0.0082 0 0.0835 0.15294 0.14471
3616.833 0.1558 0.239 0.2486 0.2294 0.3277 0.3731 0.3517 0.3704 0.18533 0.1509
3636.123 0.2991 0.302 0.342 0.3038 0.2239 0.2375 0.3853 0.3246 0.2173 0.3128
3655.413 0.2766 0.2164 0.1961 0.18623 0.2173 0.2586 0.2444 0.3338 0.3762 0.2695
3674.703 0.3492 0.3385 0.328 0.2844 0.2549 0.3648 0.3573 0.3511 0.354 0.2285
3693.993 0.0487 0.09742 0.11696 0.089 0.13986 0.15148 0.2289 0.2554 0.2856 0.2578
3713.282 0.1266 0.0848 0.15638 0.2963 0.3272 0.2684 0.287 0.2604 0.2685 0.3308
3732.572 0.3881 0.4863 0.4558 0.3904 0.2992 0.17254 0.1666 0.15808 0.12557 0.19931
3751.862 0.2744 0.2805 0.2694 0.3085 0.3079 0.2048 0.317 0.3212 0.19106 0.19157
3771.152 0.2657 0.3356 0.2896 0.2494 0.3098 0.3671 0.2801 0.3033 0.3323 0.4147
3790.441 0.4742 0.3643 0.3188 0.3783 0.3514 0.2912 0.4485 0.4447 0.3006 0.2668
3809.731 0.2168 0.2714 0.3641 0.3113 0.3227 0.3983 0.2612 0.3081 0.4377 0.3598
3829.021 0.3644 0.3958 0.3192 0.3059 0.4728 0.5188 0.5438 0.4418 0.3936 0.4647
3848.311 0.4035 0.3157 0.2251 0.26 0.398 0.4387 0.3761 0.2673 0.3105 0.3362
3867.601 0.2949 0.2297 0.2077 0.3336 0.2351 0.14626 0.14487 0.12108 0.18477 0.4439
3886.890 0.4575 0.4245 0.5005 0.422 0.4185 0.3138 0.2405 0.3336 0.3366 0.4384
3906.180 0.4798 0.4836 0.6063 0.5976 0.433 0.3724 0.361 0.4234 0.5133 0.4812
3925.470 0.5091 0.5824 0.6791 0.7763 0.665 0.5362 0.6198 0.6392 0.598 0.6259
3944.760 0.6233 0.5711 0.6791 0.7789 0.7429 0.6853 0.7329 0.8476 0.8645 0.842
3964.049 0.8959 0.9061 0.6585 0.585 0.7817 0.8726 0.8229 0.6727 0.6717 0.7607
3983.339 0.7513 0.7245 0.6131 0.6021 0.6425 0.5914 0.5809 0.5832 0.5521 0.5588
##END=
