##TITLE=3-Aminoheptane
##JCAMP-DX=4.24
##DATA TYPE=INFRARED SPECTRUM
##ORIGIN=NIST Mass Spectrometry Data Center
##OWNER=NIST Standard Reference Data Program
Collection (C) 2018 copyright by the U.S. Secretary of Commerce
on behalf of the United States of America. All rights reserved.
##CAS REGISTRY NO=28292-42-4
##MOLFORM=C 7 H 17 N
##$NIST SOURCE=MSDC-IR
##SPECTROMETER/DATA SYSTEM=HP-GC/MS/IRD
##STATE=gas
##XUNITS=1/CM
##YUNITS=ABSORBANCE
##XFACTOR=1.0
##YFACTOR=0.000003300
##DELTAX=4.0
##FIRSTX=550.0
##LASTX=3846.0
##FIRSTY=0.000888
##MAXX=3846
##MINX=550
##MAXY=0.033
##MINY=0
##NPOINTS=825
##XYDATA=(X++(Y..Y))
550.0 269 200 16 97 93 103 118 78 47 64
590.0 60 51 33 37 50 43 37 52 58 59
630.0 79 90 89 98 98 108 135 139 139 154
670.0 174 194 209 229 252 273 308 346 396 443
710.0 483 542 618 692 785 877 970 1079 1197 1329
750.0 1447 1572 1689 1772 1840 1868 1862 1847 1827 1799
790.0 1741 1652 1566 1443 1285 1118 962 841 726 646
830.0 588 530 494 467 435 393 362 338 312 290
870.0 269 249 226 207 205 202 200 205 201 180
910.0 169 164 159 154 142 152 165 166 181 184
950.0 180 193 207 213 218 236 252 275 292 297
990.0 294 281 259 244 241 235 221 229 238 227
1030.0 216 213 198 177 152 137 124 103 91 96
1070.0 108 104 103 102 97 100 103 115 130 146
1110.0 169 185 207 236 265 285 311 334 338 316
1150.0 280 240 198 156 111 86 73 59 57 48
1190.0 46 58 69 69 71 74 78 83 85 88
1230.0 83 82 92 91 87 91 92 99 104 101
1270.0 110 112 114 131 149 161 174 185 197 208
1310.0 211 216 221 231 259 296 337 381 431 485
1350.0 542 593 644 683 715 754 801 838 841 806
1390.0 730 608 476 370 299 254 238 244 261 293
1430.0 346 425 528 661 806 946 1078 1179 1210 1175
1470.0 1088 950 782 615 481 379 301 242 202 174
1510.0 148 135 131 126 122 115 118 123 119 119
1550.0 124 126 138 153 166 184 201 227 255 302
1590.0 357 426 511 603 694 777 835 864 850 788
1630.0 696 598 490 390 305 244 192 149 118 95
1670.0 76 65 59 49 37 32 28 28 25 14
1710.0 8 11 9 8 11 14 15 12 8 5
1750.0 3 4 3 0 1 11 14 7 5 7
1790.0 9 15 15 10 8 9 7 6 7 8
1830.0 9 8 6 10 14 8 4 4 5 4
1870.0 3 2 2 0 0 3 6 10 11 9
1910.0 7 2 4 4 3 3 2 3 5 7
1950.0 8 6 3 1 4 9 7 3 2 5
1990.0 11 15 9 6 13 17 18 19 15 14
2030.0 17 18 25 25 19 27 35 32 28 26
2070.0 28 29 33 35 34 35 37 38 35 34
2110.0 39 36 30 36 37 33 31 32 38 42
2150.0 39 39 43 45 44 36 33 41 44 40
2190.0 41 42 38 34 32 37 41 42 43 41
2230.0 41 39 42 46 41 46 51 48 44 43
2270.0 53 57 46 42 42 45 50 51 49 47
2310.0 48 49 46 45 47 47 45 46 46 49
2350.0 54 58 60 56 50 49 52 49 55 61
2390.0 62 60 56 52 45 44 52 59 57 54
2430.0 55 56 54 48 46 47 45 42 42 50
2470.0 55 53 46 49 55 47 49 53 54 54
2510.0 51 53 61 65 64 64 60 59 62 66
2550.0 73 76 83 87 90 98 103 108 114 121
2590.0 121 121 129 136 133 128 130 134 135 141
2630.0 148 152 156 159 163 172 183 186 190 186
2670.0 189 194 199 205 203 207 213 217 217 219
2710.0 218 222 229 235 252 267 279 296 304 305
2750.0 320 322 317 317 318 324 340 356 376 407
2790.0 432 464 504 549 617 687 754 841 955 1091
2830.0 1248 1435 1657 1921 2225 2586 2995 3404 3780 4099
2870.0 4375 4642 4843 4888 4836 4740 4627 4609 4809 5258
2910.0 5913 6708 7588 8484 9263 9794 10000 9829 9314 8655
2950.0 8067 7745 7835 8240 8504 8264 7525 6338 4889 3585
2990.0 2640 2001 1564 1264 1061 919 812 730 669 618
3030.0 567 516 480 455 420 384 365 355 345 325
3070.0 300 291 290 281 275 267 258 247 231 218
3110.0 204 189 187 182 169 154 145 147 147 151
3150.0 147 134 129 131 128 127 126 125 126 116
3190.0 106 106 107 94 75 70 77 85 86 77
3230.0 74 72 68 63 52 50 58 61 66 76
3270.0 72 64 77 72 57 59 52 48 60 61
3310.0 66 78 99 106 115 127 128 135 125 103
3350.0 94 85 80 78 67 53 56 61 60 57
3390.0 45 48 66 63 55 52 58 65 59 61
3430.0 61 50 49 52 48 50 61 63 50 48
3470.0 49 49 50 46 46 36 32 37 49 64
3510.0 62 56 47 37 52 57 47 52 57 55
3550.0 49 43 39 49 56 61 59 47 47 39
3590.0 32 39 40 41 38 43 43 45 57 64
3630.0 60 64 59 52 62 65 61 61 62 61
3670.0 59 51 53 58 67 68 62 54 50 51
3710.0 58 60 41 40 58 55 51 49 57 64
3750.0 61 64 55 49 62 67 67 64 53 52
3790.0 63 59 58 68 66 57 55 55 56 43
3830.0 43 50 64 72 66
##END=
