##TITLE=2,4,6-Trifluorobenzoic acid
##JCAMP-DX=4.24
##DATA TYPE=INFRARED SPECTRUM
##ORIGIN=EPA-IR VAPOR PHASE LIBRARY
##OWNER=SRD/NIST
Collection (C) 2018 copyright by the U.S. Secretary of Commerce
on behalf of the United States of America. All rights reserved.
##CAS REGISTRY NO=28314-80-9
##MOLFORM=C 7 H 3 F 3 O 2
##$NIST SOURCE=MSDC-IR
##STATE=gas
##XUNITS=1/CM
##YUNITS=ABSORBANCE
##XFACTOR=1.
##YFACTOR=0.001
##DELTAX=1.92898
##FIRSTX=549.8
##LASTX=4000.7
##FIRSTY=10.484
##MAXX=4000.7
##MINX=549.759
##MAXY=0.084294
##MINY=0
##NPOINTS=1790
##XYDATA=(X++(Y..Y))
549.759 10.484 10.434 10.394 10.354 11.064 13.704 15.924 17.014 18.124 19.354
569.049 20.034 20.904 23.504 25.544 23.454 21.024 20.534 19.714 19.494 19.334
588.339 17.304 14.074 11.474 10.124 8.754 7.724 7.554 7.554 7.764 7.924
607.628 8.164 8.784 9.494 9.534 9.154 9.974 10.494 9.984 10.064 9.514
626.918 8.694 7.774 6.574 5.694 4.754 4.174 3.774 3.844 3.914 3.284
646.208 2.984 2.634 2.404 2.264 2.274 2.754 2.504 2.124 2.254 2.284
665.498 2.104 2.454 2.714 2.484 2.414 2.414 2.464 2.274 1.984 1.774
684.787 1.714 1.894 1.854 1.994 2.294 2.444 2.954 3.244 3.624 3.774
704.077 3.854 4.224 4.024 4.464 5.054 5.444 5.714 5.334 5.154 5.584
723.367 5.764 5.944 6.514 6.584 6.464 6.354 6.084 5.594 4.884 4.314
742.657 3.974 3.244 2.404 1.834 1.624 1.774 1.804 1.744 1.704 2.134
761.947 2.144 1.824 1.674 1.744 1.724 1.2177 1.5209 2.554 2.694 2.324
781.236 2.004 2.064 2.664 3.204 3.014 2.624 2.334 1.964 2.014 1.884
800.526 1.794 1.764 1.544 1.834 2.034 1.804 1.764 1.814 2.034 2.504
819.816 2.234 0.9695 0.361 2.624 4.874 5.664 7.214 9.444 11.364 12.824
839.106 14.934 17.124 21.304 26.634 25.154 18.644 15.444 13.944 12.464 10.744
858.395 8.484 6.504 4.834 3.704 2.894 2.354 1.914 1.924 2.324 2.124
877.685 1.406 1.3741 1.506 1.4763 1.574 1.2373 1.0736 0.8945 0.8515 1.1667
896.975 1.2153 1.1255 1.0855 0.9862 0.8572 0.7726 0.724 0.9128 1.2269 0.958
916.265 0.8376 0.9712 0.7731 0.9605 0.8858 0.9063 1.2831 0.9439 0.59608 0.9084
935.555 1.0264 0.9221 0.9955 1.2227 1.2615 1.1725 0.883 0.676 1.195 1.3798
954.844 1.2475 1.2172 0.9512 1.1552 1.265 1.0698 1.029 1.3153 1.834 1.774
974.134 1.614 1.894 2.164 2.314 2.454 2.664 2.974 3.274 4.294 5.724
993.424 7.704 10.454 12.454 13.234 13.314 13.494 13.364 12.754 12.054 10.124
1012.714 7.624 6.154 5.164 5.114 5.574 5.684 6.614 7.254 8.694 10.624
1032.003 11.634 14.494 17.734 20.724 24.254 28.274 32.094 34.734 36.224 37.584
1051.293 38.724 38.074 36.924 34.544 30.984 27.584 24.064 20.954 18.454 17.614
1070.583 18.184 19.324 20.514 20.624 22.014 24.054 25.084 25.104 25.364 25.624
1089.873 24.354 21.804 18.594 16.124 14.014 12.174 10.384 8.894 8.104 8.654
1109.163 9.114 10.144 12.754 16.254 21.104 27.514 35.744 42.994 48.444 52.844
1128.452 55.114 56.134 53.944 48.964 42.984 34.564 25.314 18.354 14.454 12.584
1147.742 12.094 11.264 10.314 11.384 12.924 14.494 17.024 19.444 21.834 25.164
1167.032 28.224 29.734 30.984 33.224 35.554 36.654 36.424 35.294 34.344 33.764
1186.322 33.004 31.294 28.944 26.984 25.234 23.194 21.574 18.924 17.724 17.494
1205.611 15.784 15.254 13.684 12.854 12.484 11.724 11.574 10.284 10.664 11.064
1224.901 10.194 9.684 9.904 10.474 9.534 8.864 8.794 8.334 8.144 8.264
1244.191 8.044 7.524 7.904 7.704 6.824 7.204 7.244 7.004 7.434 7.324
1263.481 7.024 6.434 6.394 6.604 6.864 7.354 7.124 6.884 6.414 6.444
1282.771 6.804 6.924 7.284 7.784 7.934 8.194 8.814 9.374 9.784 10.464
1302.060 11.274 11.864 12.694 13.544 14.284 14.944 15.514 15.954 16.384 16.704
1321.350 16.844 16.984 17.124 16.994 16.764 16.404 15.804 15.434 14.974 14.554
1340.640 14.434 14.364 14.284 14.174 14.244 14.214 13.934 13.514 12.884 12.054
1359.930 11.224 10.324 9.394 8.734 8.094 7.544 7.134 6.604 6.014 5.564
1379.219 5.154 4.654 4.104 3.774 3.774 3.594 3.254 3.194 3.354 3.384
1398.509 3.334 3.354 3.534 3.754 3.934 4.284 4.714 5.064 5.574 6.284
1417.799 6.894 7.584 8.564 9.734 10.924 12.224 13.884 15.874 18.184 20.704
1437.089 23.404 26.124 28.234 29.564 30.064 29.884 29.584 28.964 27.434 24.944
1456.378 21.614 18.424 15.764 13.214 11.354 9.884 8.654 7.674 6.774 6.164
1475.668 5.814 5.424 5.214 5.424 5.754 6.114 6.804 7.574 8.144 8.504
1494.958 8.714 8.924 8.954 8.694 8.404 8.044 7.324 6.494 6.084 5.654
1514.248 4.974 4.574 4.374 4.004 3.624 3.434 3.274 3.244 3.074 2.914
1533.538 2.834 2.794 2.894 2.794 3.074 3.424 3.424 3.614 4.034 4.274
1552.827 4.474 4.964 5.424 5.634 6.074 6.764 7.074 7.274 7.794 8.594
1572.117 9.214 9.724 10.284 11.314 12.474 13.764 15.294 17.274 19.734 22.574
1591.407 25.974 29.444 32.844 36.574 40.244 43.324 45.784 47.064 47.464 47.024
1610.697 45.754 44.014 41.924 39.654 38.204 38.244 39.554 42.544 46.664 51.674
1629.986 56.664 60.564 62.934 63.414 61.874 58.354 53.184 47.104 40.224 33.254
1649.276 26.874 21.544 17.554 14.844 13.054 11.934 11.154 10.444 9.624 8.744
1668.566 8.074 7.584 6.834 6.224 5.894 5.374 5.054 4.964 4.534 4.274
1687.856 4.214 4.054 3.954 3.814 3.834 4.024 4.184 4.294 4.394 4.284
1707.146 4.434 4.774 4.634 4.614 4.684 4.734 4.804 4.984 5.474 5.994
1726.435 6.394 7.014 7.994 8.934 9.984 10.834 11.654 12.934 14.134 15.264
1745.725 16.374 17.374 18.604 19.964 21.474 23.374 25.784 29.104 33.514 39.104
1765.015 45.954 53.954 62.394 69.824 76.144 81.094 84.214 84.294 80.244 72.984
1784.305 64.254 54.834 46.024 38.554 32.484 28.014 24.614 21.924 20.014 18.354
1803.594 16.924 15.704 14.334 12.744 11.304 10.084 8.894 7.924 7.174 6.474
1822.884 5.744 5.044 4.374 3.964 3.644 3.194 3.004 2.834 2.554 2.464
1842.174 2.314 2.324 2.324 2.124 2.194 2.254 2.114 2.104 1.974 1.724
1861.464 1.674 1.654 1.624 1.654 1.694 1.5217 1.4126 1.4299 1.4165 1.3438
1880.754 1.3051 1.3115 1.2404 1.201 1.1744 1.1153 1.1623 1.2139 1.2068 1.2889
1900.043 1.3953 1.534 1.4067 1.3063 1.2734 1.2923 1.4811 1.45 1.4441 1.2746
1919.333 1.2424 1.4073 1.345 1.377 1.3553 1.3364 1.3443 1.1809 1.0318 1.1766
1938.623 1.2963 1.2913 1.2236 1.0194 0.9172 1.0457 1.0658 0.9152 0.9267 1.1153
1957.913 1.1043 0.961 0.9988 1.077 1.2367 1.1464 0.8952 0.8337 0.7808 0.7808
1977.202 0.8829 0.8392 0.8177 0.8329 0.9686 1.0848 1.036 1.0344 1.0516 1.0313
1996.492 0.963 0.9233 0.7706 0.7928 1.0455 1.1639 1.1849 1.1553 0.8881 0.758
2015.782 0.8659 0.9393 0.9345 0.8491 0.9678 1.0235 0.9838 0.9468 0.7317 0.8208
2035.072 0.9545 0.6951 0.6518 0.7802 0.7247 0.6421 0.6714 0.6602 0.7439 0.8838
2054.362 0.8337 0.9041 1.0927 1.0385 0.9864 0.838 0.57491 0.8099 1.0211 0.9136
2073.651 0.9582 0.9537 0.8116 0.7872 0.8217 0.9046 0.7414 0.60444 0.7893 0.9385
2092.941 1.0454 1.1681 1.1673 1.0534 0.889 0.8065 0.8417 0.79 0.8347 0.8823
2112.231 0.91 0.8711 0.802 0.8656 0.9064 1 1.0616 1.0613 1.2105 1.2327
2131.521 1.0939 1.0947 1.1729 1.3143 1.1921 0.9428 0.934 0.949 1.1974 1.2523
2150.810 1.1082 1.073 1.116 1.3128 1.4568 1.3618 1.1903 1.2938 1.415 1.3895
2170.100 1.3291 1.4332 1.5236 1.4693 1.4369 1.544 1.534 1.3924 1.4358 1.3665
2189.390 1.2909 1.3047 1.2761 1.4303 1.402 1.2044 1.1579 1.2725 1.3357 1.3293
2208.680 1.2116 1.0233 1.1641 1.1454 0.9518 1.0124 1.1027 1.1008 1.1631 1.1868
2227.970 1.2097 1.144 0.8351 0.7553 0.8613 0.9581 0.805 0.7457 0.9146 0.9491
2247.259 0.9478 0.9459 1.1149 1.0257 0.9174 0.9751 0.9347 0.8855 0.9087 1.054
2266.549 0.9338 0.60563 0.6966 0.9362 0.7144 0.6574 0.8815 0.8593 0.789 0.8745
2285.839 1.1085 1.1995 1.1249 1.0644 0.8755 0.8878 1.0276 1.0439 0.9416 0.9898
2305.129 1.1556 1.0835 1.1305 1.3628 1.356 1.2297 1.3228 1.3375 1.3469 1.4086
2324.418 1.3808 1.4107 1.3934 1.4058 1.3852 1.1163 1.0416 1.2994 1.347 1.2821
2343.708 1.2669 1.2507 1.4873 1.524 1.544 1.764 1.974 1.914 1.774 1.664
2362.998 1.534 1.614 1.634 1.734 1.814 1.714 1.4504 1.2468 1.3055 1.3057
2382.288 1.1737 1.1604 1.1712 1.1912 1.0566 1.163 1.3432 1.2138 1.0798 1.26
2401.578 1.4434 1.4255 1.4342 1.574 1.694 1.554 1.5017 1.654 1.724 1.544
2420.867 1.448 1.4097 1.2025 1.0679 1.0303 1.0716 1.2998 1.2771 1.1979 1.2693
2440.157 1.1089 0.8498 0.9208 0.9378 0.8225 0.8692 0.8332 1.0186 1.0554 0.8767
2459.447 0.983 0.9016 1.0783 1.299 1.1865 1.1435 1.0586 1.0993 1.2876 1.4107
2478.737 1.4912 1.604 1.604 1.654 1.714 1.564 1.5153 1.4684 1.4203 1.2885
2498.026 1.1602 1.293 1.4399 1.4413 1.2261 0.9879 1.172 1.2229 1.0801 1.1079
2517.316 1.058 1.0033 1.1655 1.3128 1.2759 1.2121 0.9931 0.7898 0.8197 0.7296
2536.606 0.8283 1.265 1.3196 1.147 1.1577 1.1362 0.8562 0.9125 1.0859 0.9619
2555.896 1.0372 1.225 1.2468 1.0478 0.8047 0.8601 0.9626 1.0091 1.1485 1.2388
2575.186 1.3059 1.2478 1.2114 1.1869 1.1628 1.1328 1.1147 1.0931 1.1012 1.096
2594.475 0.8564 0.7643 0.8232 0.849 0.8604 0.8448 0.8058 0.867 0.9188 0.9369
2613.765 0.9061 0.8368 0.68 0.51909 0.8855 1.0858 1.0471 0.9255 0.7342 0.7947
2633.055 0.8206 0.6863 0.7645 0.8301 0.7763 0.9882 0.8351 0.57996 0.863 1.0771
2652.345 0.9616 0.8433 0.8481 0.9743 1.0063 1.1212 1.0609 0.7689 0.8136 0.8213
2671.634 0.6681 0.8802 0.9548 0.9023 0.9635 0.6898 0.7866 1.1955 1.0948 0.9627
2690.924 0.8441 0.8873 0.8298 0.7477 1.0252 1.11 0.934 0.7276 0.7231 0.6505
2710.214 0.6691 0.9639 0.9778 0.9017 0.8717 0.9545 0.9422 1.2392 1.4234 1.0542
2729.504 1.0098 1.2707 1.2364 1.0996 1.1649 1.0935 0.9924 0.8503 1.0018 1.0077
2748.794 0.8987 0.9697 0.9017 1.0347 1.0567 0.8449 0.9257 0.9026 0.9338 0.8734
2768.083 0.6609 0.58915 0.7989 0.9731 0.9556 1.0361 1.0177 1.0052 0.9642 0.6742
2787.373 0.4336 0.7906 1.1012 1.1521 1.0309 0.8082 0.7711 0.7397 0.625 0.6591
2806.663 0.8368 0.964 0.9204 0.9461 0.9874 0.6364 0.55449 0.377 0.4759 0.775
2825.953 1.0756 1.1939 0.9613 1.143 1.1377 1.1619 1.0923 0.9388 0.8504 0.8528
2845.242 0.9581 1.042 1.0286 0.55068 0.6251 1.0397 0.9759 0.864 0.8009 0.87
2864.532 0.9907 0.8714 0.8231 0.9271 1.0322 0.9137 0.6841 0.8214 0.9141 0.954
2883.822 0.56578 0.338 0.8561 1.043 0.7111 0.843 1.094 1.1205 1.053 0.9378
2903.112 1.0511 0.7939 0.7551 0.8835 0.6404 0.7128 0.9102 0.7823 0.57698 0.309
2922.401 0.4992 0.6489 0.57053 0.753 0.6971 0.57054 0.5025 0.4622 0.58246 0.7737
2941.691 0.6533 0.56524 0.7763 0.7823 0.8816 0.9862 0.8567 0.56707 0.59973 0.7566
2960.981 0.56675 0.379 0.4985 0.56882 0.59778 0.8296 0.61775 0.4744 0.6686 0.6706
2980.271 0.415 0.365 0.235 0.154 0.347 0.328 0.283 0.6751 0.75 0.6368
2999.561 0.6649 0.499 0.416 0.528662 0.418 0.382 0.6958 0.7674 0.7489 0.9321
3018.850 0.8692 0.9445 0.9781 0.6407 0.8275 0.8461 0.6391 1.0639 1.2362 0.8054
3038.140 0.6401 0.56415 0.7319 1.1012 1.088 1.2499 1.2584 0.8424 0.7332 0.60914
3057.430 0.422 0.4402 0.59469 0.60805 0.8545 1.133 0.9795 0.7879 0.6377 0.7778
3076.720 1.275 1.4972 1.1459 0.9566 1.0054 1.1119 1.4392 1.3211 1.0281 1.1963
3096.009 1.534 1.704 1.5013 1.029 0.8822 1.0813 1.1903 1.4243 1.624 1.4258
3115.299 1.1187 1.1393 1.18 0.9328 0.9114 1.221 1.2951 1.2653 1.2226 1.076
3134.589 0.943 0.9575 0.742 0.53653 0.8161 0.8999 0.7092 0.54776 0.4842 0.60651
3153.879 1.0175 1.297 1.0397 0.8883 0.9458 0.8993 1.0726 1.1584 0.97 0.7357
3173.169 0.6963 1.1064 0.9446 0.918 1.2024 0.8909 0.6358 0.664 0.8729 1.0147
3192.458 1.008 0.8491 0.9988 0.8972 0.8844 1.0203 0.9346 1.1641 1.2581 0.8475
3211.748 0.351 0.7117 0.838 0.6995 0.8082 0.8554 0.7864 0.4594 0.53507 0.53519
3231.038 0.821 0.6913 0.4508 0.7904 0.977 0.7522 0.6917 0.8815 0.8166 0.8618
3250.328 0.904 0.7587 0.6132 0.683 0.6848 0.9306 1.1205 0.8593 0.61689 0.62135
3269.617 1.0056 1.492 1.0653 0.6838 0.9711 0.8509 0.8759 1.0462 0.7398 0.394
3288.907 0.311 0.7205 0.8998 1.115 1.2494 0.61397 0.530258 0.9511 0.7601 0.55432
3308.197 0.57828 0.156 0.369 0.7732 0.8062 0.61047 0.58739 0.9264 0.8595 0.9236
3327.487 1.0681 1.0102 0.7715 0.7899 0.809 1.0028 0.6195 0.319 0.4976 0.355
3346.777 0.384 0.52182 1.0095 1.1182 0.6975 0.361 0.4926 0.961 1.4186 1.4239
3366.066 1.0678 0.9916 0.51942 0.41 0.7759 0.8506 1.0007 0.7199 0.7039 0.61325
3385.356 0.3 0.4644 0.59704 0.9673 1.3651 0.8782 0.355 0.58474 0.55848 0.54906
3404.646 0.6385 0.448 0.4737 0.533494 0.6905 0.9078 0.8104 0.6346 0.59247 0.56311
3423.936 0.60394 0.7665 0.7942 0.8876 0.9536 0.711 0.8012 0.8268 0.7347 0.4539
3443.225 0.13 0.408 0.7607 0.9808 1.3514 1.544 1.2017 1.0478 1.2342 1.1502
3462.515 1.085 1.1217 1.2094 1.4496 1.2114 0.8976 1.149 1.2288 1.1347 1.294
3481.805 0.8438 0.6581 0.8687 0.9152 1.1329 1.0577 1.0515 1.3453 1.1309 0.6569
3501.095 0.56783 0.8943 1.048 1.1023 1.2271 1.1669 0.9973 0.731 1.3018 1.784
3520.385 1.824 1.724 1.684 1.724 1.2046 1.0604 1.584 1.944 2.064 2.254
3539.674 2.414 2.294 2.094 2.134 2.524 3.214 3.994 4.984 6.414 9.144
3558.964 13.194 17.764 22.514 26.644 28.844 29.984 30.904 29.774 27.314 24.364
3578.254 19.544 13.794 9.084 5.824 3.904 3.024 2.474 2.124 1.904 1.624
3597.544 1.4978 1.604 1.794 1.724 1.516 1.3897 1.2102 1.3253 1.2835 1.1562
3616.833 1.2759 1.416 1.694 1.904 2.014 1.914 1.744 1.674 1.4465 1.264
3636.123 1.3395 1.624 1.2904 1.0031 1.4586 1.644 1.544 1.584 1.3068 0.9535
3655.413 0.847 0.7923 0.7001 0.58092 0.56232 0.7114 0.9711 0.9677 1.1482 1.2132
3674.703 0.7662 0.57401 0.525778 0.523017 0.6656 0.761 0.61155 0.411 0.7326 0.6956
3693.993 0.58212 0.54174 0.33 0.7911 0.8699 0.7492 0.9925 0.9308 0.9666 1.0928
3713.282 1.1977 1.3264 1.3543 0.9948 0.57707 0.9234 1.2056 0.9371 0.7467 0.6467
3732.572 0.61044 0.455 0.293 0.4973 0.7024 0.8498 0.7016 0.4921 0.7317 0.62208
3751.862 0.62011 0.9576 1.0173 0.749 0.52206 0.62014 0.8097 0.7899 0.4309 0.531183
3771.152 0.38 0.082 0.6706 1.1011 0.7194 0.39 0.8122 1.0451 0.8898 1.021
3790.441 1.2158 0.7045 0.381 0.7564 1.0948 1.0167 0.6546 0.362 0.59861 0.7504
3809.731 0.7824 0.8675 0.6549 0.6581 0.6733 0.4847 0.4618 0.58923 0.4412 0.6857
3829.021 0.5188 0.53638 0.6956 0.327 0.9261 1.1407 0.4696 0.366 0.7068 0.53943
3848.311 0.362 0.277 0.26 0.6688 0.7616 0.8867 0.8652 0.8573 0.9859 0.8404
3867.601 0.60372 0.316 0.6393 1.1231 1.0162 0.6538 0.4303 0.387 0.4885 0.8039
3886.890 0.7832 0.55457 0.57486 0.6935 0.5015 0.5655 0.5187 0.322 0.6046 0.9162
3906.180 0.9252 0.5594 0.6136 0.55549 0.126 0.424 0.6877 0.255 0.7248 0.6363
3925.470 0 0.136 0.302 0.8331 1.3639 1.4342 1.14 1.0536 0.8558 0.4843
3944.760 0.34 0.4456 0.4469 0.53677 1.1888 1.1677 0.7536 0.58899 0.234 0.185
3964.049 0.7547 0.6858 0.364 0.7063 0.4817 0.5719 0.768 0.57975 0.499 0.54405
3983.339 0.6529 0.5539 0.8401 1.1352 1.2811 0.819 0.9143 1.1818 0.7462 0.51521
##END=
