##TITLE=5-Hydroxy-1-tetralone
##JCAMP-DX=4.24
##DATA TYPE=INFRARED SPECTRUM
##ORIGIN=EPA-IR VAPOR PHASE LIBRARY
##OWNER=SRD/NIST
Collection (C) 2018 copyright by the U.S. Secretary of Commerce
on behalf of the United States of America. All rights reserved.
##CAS REGISTRY NO=28315-93-7
##MOLFORM=C 10 H 10 O 2
##$NIST SOURCE=MSDC-IR
##STATE=gas
##XUNITS=1/CM
##YUNITS=ABSORBANCE
##XFACTOR=1.
##YFACTOR=0.001
##DELTAX=1.92898
##FIRSTX=549.8
##LASTX=4000.7
##FIRSTY=2.149
##MAXX=4000.7
##MINX=549.759
##MAXY=0.018349
##MINY=0
##NPOINTS=1790
##XYDATA=(X++(Y..Y))
549.759 2.149 2.789 3.759 4.079 4.149 2.869 2.489 3.109 3.009 3.789
569.049 3.419 2.509 2.359 2.069 2.059 1.7417 1.4957 1.1258 0.71 1.1175
588.339 1.2256 0.8673 1.2236 1.5985 1.8932 2.039 1.6903 1.6023 1.5879 1.7326
607.628 1.7244 1.2541 1.2597 1.9165 2.119 1.5509 1.01481 1.5878 1.6411 1.3771
626.918 1.5554 1.6863 1.6654 1.942 1.6713 1.02042 1.8334 1.989 1.4456 1.00374
646.208 1.1742 1.4699 1.1888 1.1057 1.207 0.829 0.773 0.713 0.363 0.069
665.498 0.374 1.1556 1.3395 1.7225 1.6783 1.5698 1.6863 1.3086 1.0856 1.4279
684.787 1.7993 1.5186 1.2963 1.1641 0.543 0.475 0.583 0.795 1.0823 0.98485
704.077 1.7412 2.609 2.419 1.9369 2.119 2.439 2.649 3.279 3.889 3.679
723.367 3.579 3.959 4.189 4.059 3.859 3.769 2.919 2.379 2.309 1.6013
742.657 1.1166 1.1747 1.6185 1.752 1.1558 1.03899 1.1711 1.2878 1.2423 1.1632
761.947 1.3945 1.3883 1.5167 1.2835 1.4194 1.883 2.109 2.309 1.979 2.519
781.236 3.469 3.739 4.209 4.659 4.729 4.469 4.119 4.459 4.829 4.059
800.526 3.719 3.659 3.009 2.399 2.129 2.179 2.089 2.189 2.119 1.9005
819.816 2.749 3.469 3.329 2.689 1.5275 1.3296 1.304 1.2155 1.7115 1.7209
839.106 1.1771 1.1009 1.1211 1.2153 1.206 0.806 0.9375 1.2458 1.6167 1.858
858.395 1.8728 2.419 2.219 1.5903 1.4425 1.4688 1.6689 1.6429 1.6867 1.6991
877.685 1.5552 2.179 2.479 2.299 2.699 2.889 2.479 2.499 3.049 3.499
896.975 3.999 3.719 3.719 4.079 3.869 3.509 2.899 2.989 3.529 3.179
916.265 2.639 2.449 2.889 3.569 3.399 3.239 3.359 3.189 2.919 2.519
935.555 2.119 1.9321 2.009 1.7841 1.3164 1.4032 1.2649 1.2841 1.427 1.2008
954.844 1.3987 1.4949 1.6926 1.2471 0.8998 1.01329 1.353 1.7726 1.6023 1.4803
974.134 1.0724 0.8879 1.2413 1.1705 1.2033 1.6667 1.8373 1.4382 1.4134 1.549
993.424 1.2024 1.0953 1.4648 2.199 2.379 1.754 1.1246 1.1129 1.6559 1.782
1012.714 1.7125 2.639 2.889 2.439 1.6104 1.2495 1.6461 1.7248 1.9282 2.029
1032.003 2.039 2.299 2.419 2.189 1.537 1.871 2.459 1.999 1.2918 1.2799
1051.293 1.3237 0.365 0.111 1.2074 1.8537 1.9118 1.9131 2.439 2.529 2.249
1070.583 2.839 3.269 3.029 2.919 2.389 1.4149 2.399 3.089 2.559 2.669
1089.873 2.499 2.539 3.629 4.889 6.739 7.079 6.009 5.059 5.369 6.109
1109.163 4.989 4.339 3.429 2.839 2.259 1.52 1.4604 1.2053 0.8549 0.8754
1128.452 2.259 2.499 2.789 3.839 3.399 2.679 2.999 3.669 3.989 3.939
1147.742 3.329 3.819 4.529 4.529 5.269 4.439 3.289 4.309 5.089 4.349
1167.032 4.349 4.849 5.269 6.459 6.909 6.989 7.189 7.559 8.729 9.659
1186.322 10.119 10.639 10.799 10.489 10.469 10.799 9.319 8.679 10.479 10.479
1205.611 9.479 8.979 7.509 5.999 6.299 5.649 3.839 4.799 6.559 5.089
1224.901 3.439 2.549 2.849 3.859 2.919 2.829 3.579 3.969 4.179 3.969
1244.191 3.339 3.059 3.809 4.449 5.219 6.129 6.969 8.439 9.609 10.219
1263.481 10.819 12.019 13.249 13.869 14.759 15.649 15.759 15.819 15.959 15.249
1282.771 14.419 14.139 13.449 12.109 10.649 9.209 8.219 7.469 6.629 5.809
1302.060 5.199 4.819 4.469 4.439 4.619 4.869 5.299 5.829 6.169 6.289
1321.350 6.309 6.019 5.709 5.429 5.209 4.979 4.329 3.759 3.509 3.269
1340.640 2.879 2.799 2.949 2.979 2.879 2.839 2.729 2.399 2.249 2.029
1359.930 1.8972 1.7301 1.6301 1.6374 1.4888 1.4082 1.2746 1.327 1.4233 1.4825
1379.219 1.5463 1.4649 1.3809 1.3516 1.2759 1.2235 1.3647 1.4596 1.315 1.3308
1398.509 1.5206 1.5369 1.5436 1.6641 1.6076 1.4775 1.7156 2.059 2.239 2.249
1417.799 2.169 2.159 2.169 2.299 2.459 2.479 2.549 2.749 2.749 2.589
1437.089 2.619 2.769 2.809 2.909 2.989 3.229 3.359 3.399 3.979 4.439
1456.378 4.929 5.369 5.639 5.859 5.919 5.819 5.609 5.539 5.279 4.629
1475.668 4.019 3.569 3.169 2.839 2.739 2.579 2.219 2.199 2.039 1.7864
1494.958 1.6457 1.3097 1.2589 1.3617 1.2011 1.3848 1.5526 1.3084 1.2728 1.4013
1514.248 1.2999 1.286 1.3209 1.2497 1.3549 1.342 1.2929 1.4978 1.5653 1.3165
1533.538 1.3485 1.4177 1.2821 1.4029 1.4964 1.3308 1.063 1.0918 1.3605 1.434
1552.827 1.5181 1.6205 1.6864 1.7826 1.94 2.039 2.319 2.769 3.019 3.339
1572.117 3.629 3.889 4.479 4.809 4.999 5.319 5.369 5.329 5.209 4.929
1591.407 4.779 4.699 4.409 4.179 3.959 3.739 3.849 3.849 3.629 3.679
1610.697 3.529 3.069 2.959 3.119 2.849 2.349 2.219 1.9142 1.7114 1.6477
1629.986 1.4203 1.2282 1.4442 1.7375 1.6434 1.5981 1.548 1.6635 1.7705 1.801
1649.276 1.8034 1.645 1.5687 1.5749 1.5964 1.6322 1.8434 1.8607 1.7114 1.9052
1668.566 1.979 2.159 2.319 2.299 2.309 2.419 2.679 2.929 3.199 3.879
1687.856 4.749 5.469 6.549 8.079 9.769 11.579 13.329 15.059 16.549 17.559
1707.146 18.079 18.349 18.059 17.149 15.779 13.999 12.029 10.129 8.359 6.949
1726.435 5.609 4.389 3.749 3.329 2.879 2.579 2.319 2.139 1.9454 1.8945
1745.725 1.959 1.8511 1.706 1.711 1.8074 1.8329 1.7104 1.6362 1.6281 1.6849
1765.015 1.677 1.5624 1.7011 1.7594 1.7324 1.8725 1.7211 1.563 1.617 1.6267
1784.305 1.6412 1.5516 1.4161 1.3171 1.3106 1.2961 1.1731 1.1185 1.3889 1.4937
1803.594 1.354 1.2703 1.1506 1.1833 1.3511 1.3827 1.2505 1.2915 1.4213 1.3653
1822.884 1.1931 1.1691 1.2249 1.0717 1.02528 1.1092 1.04402 1.0585 1.1403 1.2044
1842.174 1.2386 1.3157 1.3958 1.3211 1.3867 1.5074 1.258 1.2411 1.4751 1.3145
1861.464 1.1128 1.1069 1.0435 1.1196 1.216 1.1253 0.951294 0.97707 1.1399 1.1608
1880.754 0.98537 0.8724 1.00949 0.8773 0.9101 1.02077 0.8759 0.9033 1.0956 1.2754
1900.043 1.2338 1.0912 0.99842 1.1102 1.2471 1.1434 1.0795 1.1146 1.2006 1.222
1919.333 1.02939 1.02647 1.239 1.3332 1.2616 1.2448 1.2315 1.1072 1.0973 1.2464
1938.623 1.3536 1.3544 1.2901 1.1475 1.155 1.2903 1.286 1.1662 1.0606 1.071
1957.913 1.0808 1.1711 1.2284 1.1881 1.2155 1.226 1.2643 1.02416 0.8849 0.8929
1977.202 0.9318 1.04772 1.00703 0.94051 0.9184 0.98641 0.8971 0.9156 1.0796 1.049
1996.492 1.02729 1.02926 1.1117 1.0907 0.9369 0.815 0.82 0.8855 0.99684 1.1196
2015.782 1.02457 0.98195 1.01851 1.1127 1.1443 1.1044 1.1771 1.0809 0.9134 1.01296
2035.072 1.1769 1.3025 1.2218 1.085 1.0741 1.04351 1.0904 1.0601 0.94159 0.97574
2054.362 1.00166 1.1211 1.1332 1.1019 1.1454 0.9307 0.8888 1.0593 1.1522 1.0889
2073.651 1.03805 1.1548 1.2509 0.99366 0.9336 1.2584 1.1557 1.1458 1.2525 1.1313
2092.941 1.04453 0.98947 0.957712 1.04633 1.0797 0.8941 0.94267 0.9014 0.8666 0.94515
2112.231 0.96981 1.00012 0.845 0.827 0.9033 1.0603 0.9945 0.797 0.9292 1.0872
2131.521 1.03206 0.8602 0.843 0.789 0.8953 1.1373 1.2447 1.0531 0.8976 1.0624
2150.810 1.1219 1.0957 1.1362 1.3053 1.1398 0.9229 0.93945 0.817 0.818 1.00357
2170.100 1.1274 1.0875 1.02759 1.2049 1.1969 1.00817 0.8728 1.0023 1.061 0.817
2189.390 0.94409 0.98066 0.9982 0.98068 0.8917 0.8695 0.743 0.786 0.8877 1.02503
2208.680 0.9258 0.794 0.94018 1.01223 1.01529 1.0772 1.0989 0.9244 0.958326 1.2377
2227.970 1.0978 1.0916 1.1743 1.2628 1.2673 0.9158 0.74 0.913 0.9002 0.727
2247.259 0.83 0.8678 0.9036 0.9274 0.821 0.8789 0.739 0.556 0.727 0.9676
2266.549 0.94568 0.757 0.874 0.9235 0.9351 1.0682 1.146 1.03669 1.1082 1.3537
2285.839 1.2351 1.04022 1.0917 0.8979 0.8624 0.94774 0.674 0.777 1.1239 1.1047
2305.129 1.1778 1.2122 1.236 1.2877 1.1561 1.0607 0.97404 1.1003 1.2951 1.0796
2324.418 1.00616 1.0043 0.893 0.772 0.833 1.03137 1.04542 1.1621 1.1039 1.0873
2343.708 1.1214 1.1398 1.107 0.8564 1.02334 1.2503 0.98336 1.0567 1.2339 1.00481
2362.998 0.9361 1.1163 1.1777 1.2404 1.1763 1.1509 1.0579 1.00835 1.0824 0.98175
2382.288 1.1461 1.03915 0.737 0.8947 0.8797 0.788 0.774 0.8514 1.03984 0.94493
2401.578 0.715 0.8567 1.0592 1.093 1.01914 0.9168 0.764 0.9113 0.97688 0.8539
2420.867 0.99935 0.8745 0.736 0.761 0.8911 0.98171 0.8929 0.8558 0.773 0.799
2440.157 1.00233 1.03511 0.8619 0.93907 1.2188 1.04599 0.822 0.9098 0.808 0.736
2459.447 1.0721 1.0693 0.842 0.783 1.01134 1.2986 1.2075 0.9036 0.837 1.01738
2478.737 1.01567 0.742 0.71 1.058 1.1591 1.0639 1.02594 0.96473 0.96675 0.9205
2498.026 0.798 1.0009 1.1353 0.826 0.752 1.1124 0.94447 0.9209 1.165 0.9234
2517.316 0.8726 1.02769 0.948288 0.957535 1.0865 0.9327 0.98007 1.0769 0.882 0.804
2536.606 0.8803 0.99948 1.1496 1.181 1.0954 1.1855 1.1293 0.794 0.8708 0.956757
2555.896 0.99181 1.4685 1.4778 1.2077 1.0571 0.846 0.94424 1.01657 0.9042 0.81
2575.186 0.798 0.826 0.762 0.749 1.02134 1.0596 0.94684 0.9012 0.728 0.8557
2594.475 0.795 0.653 0.9619 1.119 1.2111 1.2601 0.99752 0.687 0.62 0.837
2613.765 0.9103 0.929 1.1037 0.98334 0.826 1.00945 1.2623 1.02057 0.8882 1.1144
2633.055 1.1752 1.2992 1.285 1.00577 0.805 0.8804 1.0532 1.1177 1.1023 1.1174
2652.345 1.01433 0.99725 1.0875 0.9969 0.8764 0.9264 1.0175 0.956855 0.8617 0.628
2671.634 0.595 0.799 0.77 0.8898 0.9115 0.765 0.697 0.758 0.8949 0.9341
2690.924 1.0939 0.97472 0.661 0.705 0.723 0.427 0.671 0.9218 0.8682 0.9157
2710.214 0.78 0.703 0.731 0.75 0.659 0.689 0.949755 0.99081 1.0564 1.1532
2729.504 1.131 0.958409 0.8628 0.837 0.738 0.9153 1.0871 1.0606 0.9387 0.782
2748.794 0.839 0.9339 0.9993 0.8939 0.677 0.833 1.0947 1.1147 0.8804 0.511
2768.083 0.497 0.8739 1.1974 1.5642 1.3214 0.657 0.565 0.919 1.3563 1.5485
2787.373 1.4085 1.1639 1.0827 1.1808 1.424 1.108 0.496 0.49 0.816 0.861
2806.663 0.807 1.03551 1.1516 1.0623 0.8697 0.835 1.02861 1.1779 1.1339 0.8993
2825.953 0.69 1.02006 0.97403 0.8553 1.3835 1.6821 1.8377 1.8742 1.9336 1.969
2845.242 2.019 2.159 1.9206 1.8159 1.959 1.6453 1.3434 1.8055 2.249 2.169
2864.532 1.9283 2.049 2.399 2.559 2.659 2.729 2.999 3.179 3.049 2.859
2883.822 2.759 3.029 3.319 3.229 3.139 3.199 3.209 3.229 3.189 3.299
2903.112 3.359 3.069 3.009 2.739 2.409 2.959 3.129 2.619 2.609 2.579
2922.401 2.539 2.719 2.849 2.939 2.919 3.249 3.499 4.089 4.869 4.879
2941.691 4.889 5.199 5.899 6.669 6.869 6.519 6.399 6.759 7.109 6.639
2960.981 6.149 5.919 5.089 4.549 4.439 3.899 3.349 2.829 2.399 2.009
2980.271 1.8807 2.069 1.769 1.0709 0.749 0.94131 0.807 0.757 1.1819 1.2065
2999.561 1.03513 1.1483 1.2528 1.2452 1.3946 1.6745 1.4304 1.6645 2.029 1.7811
3018.850 1.7155 1.7646 1.5179 1.6076 1.4822 1.3903 1.4313 1.4979 1.5271 1.4749
3038.140 1.3525 1.0797 1.2122 1.1803 1.057 1.1486 1.5307 1.4923 1.6329 1.8727
3057.430 1.9145 1.8385 1.5075 1.4887 1.6586 1.8246 1.64 1.4946 1.9374 2.179
3076.720 2.019 2.079 2.179 2.309 2.479 2.369 2.069 1.8605 1.3724 1.0603
3096.009 1.4213 1.4253 1.03506 0.94398 1.2697 1.4956 1.3368 1.3881 1.298 0.734
3115.299 0.487 0.706 0.8856 0.469 0.401 0.9349 1.0921 1.0577 1.1312 1.01902
3134.589 1.01182 1.3011 1.1322 0.8494 0.763 0.736 0.772 0.8737 1.0767 1.1569
3153.879 1.4252 1.4446 1.0992 0.804 1.1345 1.0776 0.8568 1.0989 0.8638 0.686
3173.169 0.764 1.0852 1.205 1.2928 1.1672 1.1328 1.2896 1.1042 1.1779 1.3111
3192.458 1.3622 0.972 0.68 1.1049 1.01406 1.0782 1.2382 1.3038 1.4597 1.3623
3211.748 1.4012 1.5193 1.5781 1.0956 0.99546 1.5845 1.4348 1.197 1.1994 1.02887
3231.038 0.884 0.9187 1.01631 0.704 0.63 0.459 0.052 0.463 0.701 0.571
3250.328 0.666 0.8861 0.659 0.34 0.777 0.845 0.597 0.311 1.1399 1.4183
3269.617 0.464 0.801 1.0735 0.779 0.699 0.784 1.309 1.4637 0.703 0.436
3288.907 0.741 0.9073 1.0842 1.2375 1.1895 0.8534 0.468 0.483 0.615 0.775
3308.197 1.2028 1.0896 1.00658 1.2072 1.4449 1.3116 1.0608 1.3898 1.1291 0.671
3327.487 0.439 0.561 1.0942 1.4283 1.4769 1.5322 1.3417 1.3225 1.4487 1.0614
3346.777 1.0711 1.2721 1.2512 1.607 1.6504 1.5146 1.4883 1.0867 0.765 0.429
3366.066 0.489 0.69 0.8824 0.98095 0.633 0.718 1.1957 1.9448 1.9213 1.1126
3385.356 1.1834 1.6231 1.5689 1.7235 1.989 1.5699 1.1422 1.03034 0.848 0.821
3404.646 0.81 0.99106 1.0219 0.94485 1.1978 1.0988 1.2172 1.04157 0.72 1.1577
3423.936 0.68 0.332 0.714 0.707 1.2018 1.2908 1.2511 1.827 1.7105 1.0822
3443.225 0.99392 1.3299 1.0761 0.731 1.1991 1.3166 1.2549 1.3528 1.3438 1.1736
3462.515 0.828 0.8572 0.9162 0.8592 0.776 0.834 1.0988 0.9219 0.951005 1.3639
3481.805 1.2831 0.799 0.661 0.9696 0.849 0.769 1.072 0.8951 0.787 0.8782
3501.095 1.1213 1.123 0.9119 1.0117 0.637 0.751 1.1033 1.0888 0.844 0.9079
3520.385 1.2704 0.901 0.503 0.758 1.1346 1.1063 1.223 1.3474 0.949263 0.723
3539.674 0.844 1.1324 1.2343 1.4423 1.3657 1.01191 0.857 0.765 1.0612 0.8689
3558.964 0.805 1.0494 1.00822 0.98177 0.95914 1.206 1.03445 0.729 1.1106 1.0745
3578.254 0.9291 1.3134 1.3697 1.03945 0.587 0.8 1.1182 1.1163 1.3644 1.0895
3597.544 0.8786 1.1376 1.3724 1.2764 0.702 1.0894 1.4769 1.2814 1.3541 1.3441
3616.833 1.3216 1.2705 1.2435 1.3523 1.7521 1.7453 1.3922 1.3129 1.5941 1.8836
3636.123 2.039 2.579 3.359 4.359 5.759 6.489 6.429 6.719 6.679 6.379
3655.413 6.439 5.569 4.489 3.649 2.839 2.459 2.169 1.8821 1.4196 1.6671
3674.703 1.979 1.5838 1.3587 1.2777 1.1631 0.8637 0.625 0.289 0 0.204
3693.993 0.688 1.01235 0.9139 0.791 0.495 0.691 1.4896 1.5625 1.4053 0.725
3713.282 0.466 0.714 0.823 1.00461 0.82 0.815 0.562 0.728 1.1322 1.04661
3732.572 0.9107 0.743 0.518 0.808 0.837 0.465 0.554 0.96378 0.98082 0.8885
3751.862 0.728 0.505 0.633 1.00478 0.9051 0.9376 1.1767 1.0808 1.0826 0.873
3771.152 1.0959 1.4124 1.5525 1.6332 1.1823 1.0844 1.1013 0.814 0.761 0.52
3790.441 0.52 0.772 1.00198 0.9863 0.507 0.421 0.772 1.0618 1.04094 1.01077
3809.731 0.96386 0.818 1.01724 1.2715 1.3453 1.5983 1.4701 0.8573 1.1615 1.1539
3829.021 1.1619 1.5006 1.3033 0.98873 1.118 0.839 0.749 1.1833 1.1328 0.694
3848.311 0.085 0.305 0.841 1.1753 1.1795 0.9072 1.1599 1.137 0.8742 1.0845
3867.601 1.168 0.948176 0.8768 1.3026 1.0574 0.8712 0.952068 0.808 1.03898 1.5619
3886.890 0.9094 0.223 0.342 0.558 0.693 0.203 0.13 0.638 1.01283 0.784
3906.180 0.751 0.948062 0.694 0.642 0.48 0.554 0.8543 0.96037 0.97058 0.758
3925.470 0.78 0.803 0.771 0.96751 0.8754 0.77 0.829 1.0815 0.8656 0.428
3944.760 1.3029 1.3146 0.622 0.8679 0.802 0.729 1.03157 1.1306 0.8946 0.711
3964.049 0.9005 0.97258 1.203 1.3454 1.2135 0.809 0.509 0.695 1.2026 1.5746
3983.339 1.2352 0.8951 1.1064 1.4515 1.166 0.584 0.803 1.2765 1.23 1.2629
##END=
