##TITLE=11-Bromoundecanoic acid
##JCAMP-DX=4.24
##DATA TYPE=INFRARED SPECTRUM
##ORIGIN=NIST Mass Spectrometry Data Center
##OWNER=NIST Standard Reference Data Program
Collection (C) 2018 copyright by the U.S. Secretary of Commerce
on behalf of the United States of America. All rights reserved.
##CAS REGISTRY NO=2834-05-1
##MOLFORM=C 11 H 21 Br O 2
##$NIST SOURCE=MSDC-IR
##SPECTROMETER/DATA SYSTEM=HP-GC/MS/IRD
##STATE=gas
##XUNITS=1/CM
##YUNITS=ABSORBANCE
##XFACTOR=1.0
##YFACTOR=0.000014000
##DELTAX=4.0
##FIRSTX=550.0
##LASTX=3846.0
##FIRSTY=0.009478
##MAXX=3846
##MINX=550
##MAXY=0.14
##MINY=0
##NPOINTS=825
##XYDATA=(X++(Y..Y))
550.0 677 1266 1191 1317 1367 1382 1346 1297 1265 1260
590.0 1269 1283 1296 1309 1313 1303 1283 1262 1240 1219
630.0 1193 1154 1109 1062 1014 954 861 737 612 515
670.0 453 413 385 367 358 355 354 362 381 403
710.0 433 463 483 486 484 474 454 430 401 373
750.0 344 307 263 224 196 171 146 129 112 94
790.0 81 69 65 63 61 57 52 47 42 37
830.0 39 44 47 50 57 66 73 79 81 85
870.0 90 95 95 92 87 83 79 76 74 69
910.0 65 64 66 64 67 72 75 78 81 87
950.0 93 100 103 109 116 121 123 132 147 160
990.0 174 196 221 247 279 313 350 391 435 481
1030.0 523 567 615 670 739 819 915 1038 1185 1353
1070.0 1541 1744 1953 2160 2343 2507 2668 2838 3038 3275
1110.0 3520 3718 3819 3810 3707 3550 3370 3181 2983 2775
1150.0 2566 2363 2176 2013 1874 1758 1654 1566 1491 1421
1190.0 1364 1318 1286 1265 1248 1236 1229 1225 1219 1207
1230.0 1191 1181 1183 1204 1238 1278 1314 1333 1317 1273
1270.0 1219 1162 1109 1060 1011 964 919 876 833 791
1310.0 747 709 679 659 656 678 725 794 873 960
1350.0 1043 1106 1134 1149 1167 1180 1181 1160 1112 1035
1390.0 924 798 677 582 516 478 469 487 531 595
1430.0 677 766 860 949 1004 1041 1099 1151 1124 988
1470.0 793 584 410 290 211 158 125 99 81 66
1510.0 51 41 35 29 23 18 14 12 12 8
1550.0 7 6 5 3 2 3 2 0 0 0
1590.0 0 1 0 1 3 4 5 7 9 10
1630.0 12 15 16 18 23 28 32 36 43 50
1670.0 58 69 79 94 112 131 156 188 226 271
1710.0 330 406 505 624 780 975 1221 1520 1880 2304
1750.0 2792 3350 4001 4786 5704 6677 7459 7651 7102 6096
1790.0 5057 4159 3414 2760 2179 1675 1265 949 716 549
1830.0 426 337 272 226 189 160 138 122 109 97
1870.0 86 79 73 69 66 62 59 55 54 50
1910.0 49 50 48 47 45 44 44 43 42 39
1950.0 39 39 38 39 37 36 36 35 36 37
1990.0 37 36 35 35 36 36 38 39 40 41
2030.0 43 41 41 42 42 42 41 41 40 38
2070.0 37 36 36 37 38 37 36 37 38 37
2110.0 39 40 39 39 41 41 42 44 45 46
2150.0 47 46 47 49 50 52 53 54 54 55
2190.0 54 53 52 54 56 55 55 55 54 53
2230.0 54 53 54 53 52 52 52 52 51 49
2270.0 48 47 45 46 46 44 45 44 43 43
2310.0 42 43 43 41 42 43 42 43 43 42
2350.0 42 43 44 44 45 44 45 44 45 47
2390.0 46 46 44 42 43 43 42 41 42 43
2430.0 42 41 42 40 41 39 41 42 39 37
2470.0 38 40 41 42 43 42 42 43 44 43
2510.0 43 43 44 47 47 48 49 49 51 48
2550.0 48 48 46 47 48 49 49 50 51 52
2590.0 55 58 61 62 64 66 68 74 76 78
2630.0 83 87 91 93 95 100 105 108 111 116
2670.0 122 127 131 134 136 135 134 133 129 124
2710.0 120 119 117 116 117 118 117 118 119 121
2750.0 126 133 135 139 143 149 156 165 180 194
2790.0 211 228 247 269 293 323 358 400 454 517
2830.0 592 690 824 1015 1294 1710 2318 3072 3716 3933
2870.0 3676 3173 2673 2300 2081 2009 2065 2227 2492 2877
2910.0 3398 4089 5014 6242 7714 9098 9954 10000 9257 7997
2950.0 6574 5251 4176 3411 2914 2550 2182 1807 1477 1211
2990.0 1009 865 769 716 706 724 717 628 496 389
3030.0 326 282 247 221 202 187 170 156 146 138
3070.0 129 121 116 108 101 97 92 87 84 81
3110.0 78 76 76 75 71 67 69 68 69 68
3150.0 68 68 65 62 63 63 62 62 59 56
3190.0 57 59 54 51 52 49 48 47 46 44
3230.0 46 43 42 45 43 41 41 42 40 37
3270.0 39 42 44 42 42 43 42 42 42 41
3310.0 41 42 40 40 41 43 42 43 46 44
3350.0 41 42 44 46 47 48 47 48 47 47
3390.0 49 54 55 52 52 53 50 54 55 53
3430.0 56 58 59 58 58 59 63 67 67 67
3470.0 70 72 76 82 85 87 90 95 102 112
3510.0 124 131 143 153 168 191 216 248 282 327
3550.0 400 513 707 1044 1593 2411 3113 2969 2088 1276
3590.0 798 533 387 300 238 195 165 149 137 126
3630.0 120 116 108 97 95 93 89 84 80 82
3670.0 81 77 72 70 70 72 72 71 68 66
3710.0 68 68 69 71 66 63 64 65 65 69
3750.0 74 71 71 69 67 66 65 64 66 69
3790.0 69 69 67 67 69 70 68 69 72 71
3830.0 70 70 72 73 69
##END=
