##TITLE=4-n-Butoxyphenyl isocyanate
##JCAMP-DX=4.24
##DATA TYPE=INFRARED SPECTRUM
##ORIGIN=EPA-IR VAPOR PHASE LIBRARY
##OWNER=SRD/NIST
Collection (C) 2018 copyright by the U.S. Secretary of Commerce
on behalf of the United States of America. All rights reserved.
##CAS REGISTRY NO=28439-86-3
##MOLFORM=C 11 H 13 N O 2
##$NIST SOURCE=MSDC-IR
##STATE=gas
##XUNITS=1/CM
##YUNITS=ABSORBANCE
##XFACTOR=1.
##YFACTOR=0.001
##DELTAX=1.92898
##FIRSTX=549.8
##LASTX=4000.7
##FIRSTY=3.936
##MAXX=4000.7
##MINX=549.759
##MAXY=0.580376
##MINY=0
##NPOINTS=1790
##XYDATA=(X++(Y..Y))
549.759 3.936 4.506 4.656 4.816 5.106 5.406 5.496 5.646 6.076 6.266
569.049 6.456 6.546 6.496 6.576 6.856 7.446 7.626 7.856 8.366 8.086
588.339 8.606 9.086 9.266 9.676 9.666 9.686 9.856 9.696 9.236 9.206
607.628 9.236 9.186 9.296 8.966 8.696 8.986 8.606 8.776 9.376 9.346
626.918 9.616 9.496 9.516 9.676 9.226 9.046 9.416 10.186 10.256 9.276
646.208 8.866 8.746 8.366 8.036 7.886 7.506 6.836 6.666 6.736 6.756
665.498 6.806 6.696 6.576 6.046 5.676 5.846 5.516 5.756 6.006 5.556
684.787 5.506 5.506 5.146 5.176 5.486 5.836 5.856 5.566 5.996 6.376
704.077 6.186 6.256 6.296 6.306 6.776 6.846 6.446 6.136 5.956 5.486
723.367 5.346 5.656 5.116 5.016 5.436 5.466 4.976 4.216 4.646 5.156
742.657 4.666 4.026 3.916 3.876 3.706 3.776 4.016 4.026 3.396 3.196
761.947 3.016 2.606 2.526 2.696 3.056 2.826 2.726 2.886 2.986 3.146
781.236 3.256 3.216 3.276 3.466 3.936 4.296 4.356 4.656 5.276 5.956
800.526 6.136 6.086 6.286 7.356 8.416 9.126 10.266 12.186 14.816 17.386
819.816 20.036 22.996 25.536 27.896 29.806 31.026 31.456 30.836 29.486 27.496
839.106 25.006 22.246 19.996 17.186 14.796 13.416 11.596 10.116 9.176 8.306
858.395 7.766 7.286 6.676 6.436 6.256 6.116 6.516 6.576 6.456 6.686
877.685 6.356 5.946 5.526 5.146 4.606 4.066 4.236 3.916 3.446 3.246
896.975 3.046 3.166 3.266 3.276 3.166 2.876 2.686 3.086 3.136 2.906
916.265 2.846 2.476 2.006 1.936 2.476 2.806 2.436 2.246 2.416 2.796
935.555 3.006 3.016 3.286 3.556 3.536 3.696 4.706 5.286 5.426 6.236
954.844 6.726 6.796 7.526 8.126 8.306 9.176 9.956 10.566 11.156 11.506
974.134 11.866 11.776 11.576 11.366 10.716 10.226 10.246 10.496 10.516 10.106
993.424 10.496 11.246 11.736 12.666 14.626 16.896 18.556 21.286 23.516 24.346
1012.714 25.086 25.296 24.756 24.596 25.476 26.026 26.306 26.166 25.026 24.176
1032.003 23.896 23.296 21.786 19.776 17.896 16.086 15.356 14.136 12.546 12.536
1051.293 12.406 11.766 11.416 12.376 13.766 15.226 16.696 17.506 18.166 17.486
1070.583 17.096 16.756 15.136 13.836 12.446 10.506 10.896 10.736 10.146 10.856
1089.873 10.606 11.566 12.776 13.486 14.796 16.276 16.876 18.116 20.756 22.786
1109.163 23.096 23.676 24.316 22.776 20.656 19.116 17.586 15.686 13.396 10.886
1128.452 8.956 9.036 9.156 8.756 8.876 8.526 9.056 9.856 8.996 8.896
1147.742 9.216 9.236 9.156 9.316 10.176 11.766 15.146 19.326 24.396 29.366
1167.032 32.776 34.936 34.686 30.586 25.656 21.426 16.596 13.876 13.016 11.526
1186.322 10.816 10.866 10.996 11.666 12.296 13.216 13.836 14.716 17.406 19.176
1205.611 21.696 25.866 29.216 33.086 37.646 43.996 50.846 56.986 62.776 68.466
1224.901 74.616 80.676 88.216 97.296 108.186 121.026 133.166 141.986 145.846 145.456
1244.191 138.896 126.316 110.696 94.216 79.246 67.326 57.986 51.006 46.846 44.886
1263.481 43.676 42.886 43.166 44.026 45.256 46.816 48.156 48.846 48.046 45.936
1282.771 43.226 39.406 35.576 31.846 28.316 25.306 22.726 20.926 20.006 19.326
1302.060 18.476 17.876 17.076 15.946 14.526 13.176 12.056 10.666 9.416 8.476
1321.350 7.756 7.126 6.626 6.336 5.876 5.536 5.216 5.016 4.996 4.826
1340.640 4.696 4.496 4.406 4.436 4.346 4.276 4.266 4.206 3.996 3.916
1359.930 3.906 3.976 4.196 4.356 4.526 4.846 5.316 5.966 6.816 7.986
1379.219 9.486 10.976 12.476 13.786 14.296 14.216 13.596 12.456 10.946 9.376
1398.509 7.946 6.786 6.076 5.486 5.176 5.046 4.886 4.946 5.216 5.536
1417.799 5.806 6.296 7.016 7.626 8.256 8.886 9.576 10.466 11.306 12.056
1437.089 12.716 13.116 13.816 14.676 15.356 16.246 17.316 18.306 19.176 20.016
1456.378 20.966 21.906 22.666 23.646 24.786 26.166 27.686 28.916 29.756 29.896
1475.668 29.716 29.096 27.686 26.296 25.486 25.306 25.916 27.376 29.656 32.636
1494.958 36.756 41.846 47.506 54.016 61.326 68.896 77.306 86.146 94.496 102.706
1514.248 110.186 116.856 122.436 126.196 128.086 127.426 123.806 117.486 108.946 98.626
1533.538 87.166 75.636 64.996 54.576 45.076 37.236 30.696 25.286 21.076 17.806
1552.827 15.436 13.476 11.836 10.816 10.106 9.546 9.376 9.366 9.526 9.776
1572.117 10.206 10.606 11.016 11.506 11.506 11.326 11.006 10.256 9.066 7.826
1591.407 7.056 6.506 6.186 5.866 5.476 5.366 5.486 5.396 5.336 5.456
1610.697 5.426 5.546 5.486 5.216 5.246 5.206 4.816 4.486 4.476 4.356
1629.986 4.146 3.896 3.646 3.476 3.156 2.986 2.976 2.866 2.886 2.796
1649.276 2.426 2.156 2.116 2.206 2.116 1.966 1.906 1.706 1.426 1.396
1668.566 1.356 1.126 1.136 1.246 1.236 1.306 1.306 1.0295 0.9205 1.0078
1687.856 1.0607 1.0185 1.0144 0.956 0.8376 1.0462 0.9515 0.9328 1.0386 0.9165
1707.146 0.8959 0.8599 0.9127 0.86 0.7623 0.8081 1.0978 1.136 1.126 1.196
1726.435 1.226 1.276 1.236 1.266 1.386 1.466 1.466 1.546 1.596 1.416
1745.725 1.126 1.0811 1.126 1.146 0.9343 0.6897 0.6428 0.647 0.7491 0.8761
1765.015 0.8777 0.8482 0.8281 0.8552 0.9006 0.8942 0.8014 0.8344 0.9174 0.9051
1784.305 1.0314 0.9306 0.6628 0.7647 0.9032 0.8869 0.9661 1.0371 1.0393 0.9773
1803.594 1.0557 1.276 1.306 1.176 1.216 1.206 1.126 1.216 1.306 1.356
1822.884 1.416 1.466 1.486 1.596 1.666 1.616 1.646 1.686 1.626 1.836
1842.174 1.946 1.936 2.116 2.136 2.276 2.476 2.556 2.536 2.586 2.726
1861.464 2.846 2.936 3.056 3.016 2.896 2.906 2.756 2.576 2.636 2.586
1880.754 2.426 2.336 2.146 2.056 2.176 2.026 1.786 1.756 1.816 1.686
1900.043 1.466 1.466 1.506 1.456 1.426 1.396 1.386 1.406 1.386 1.386
1919.333 1.396 1.486 1.456 1.436 1.446 1.466 1.566 1.486 1.476 1.536
1938.623 1.526 1.526 1.546 1.576 1.376 1.416 1.696 1.786 1.736 1.766
1957.913 1.866 1.846 1.796 1.686 1.746 1.856 1.916 1.986 1.916 1.896
1977.202 1.876 1.776 1.856 2.006 1.986 1.946 2.096 2.086 2.016 2.046
1996.492 2.106 2.176 2.316 2.366 2.206 2.276 2.286 2.286 2.246 2.396
2015.782 2.576 2.496 2.396 2.316 2.496 2.666 2.606 2.546 2.636 2.686
2035.072 2.686 2.826 2.926 2.926 2.966 3.116 3.286 3.316 3.326 3.276
2054.362 3.306 3.446 3.506 3.456 3.536 3.826 3.906 3.906 4.036 4.236
2073.651 4.346 4.246 4.336 4.526 4.496 4.476 4.616 4.606 4.566 4.586
2092.941 4.516 4.486 4.506 4.456 4.596 4.656 4.486 4.426 4.736 5.146
2112.231 5.206 5.146 5.386 5.696 5.796 6.056 6.236 6.526 6.976 7.286
2131.521 7.676 8.036 8.486 9.136 9.686 10.346 10.916 11.376 12.066 12.786
2150.810 13.546 14.216 14.766 15.436 16.146 16.796 17.486 18.116 18.786 19.456
2170.100 19.946 20.496 21.166 21.736 22.586 23.666 24.666 25.806 27.086 28.506
2189.390 29.986 31.576 33.476 35.666 37.856 40.136 42.806 45.476 48.206 51.456
2208.680 54.786 58.166 61.686 65.246 69.056 72.956 77.126 81.656 86.156 90.966
2227.970 96.456 102.396 108.396 114.716 121.406 128.306 136.106 144.766 154.046 164.206
2247.259 175.156 187.206 200.636 215.626 232.436 251.246 272.316 296.226 323.436 353.816
2266.549 386.946 422.686 460.806 499.346 535.266 563.536 579.666 580.376 563.236 529.326
2285.839 483.126 429.996 374.516 322.396 276.556 237.636 205.426 179.236 158.246 141.156
2305.129 127.006 115.346 105.586 97.286 90.386 84.566 79.456 75.136 71.406 68.156
2324.418 65.416 63.136 61.196 59.566 58.456 57.416 56.636 56.136 55.786 55.596
2343.708 55.366 55.176 54.936 54.576 54.146 53.626 52.796 51.766 50.196 47.956
2362.998 45.826 43.426 40.526 37.596 34.656 31.636 28.686 26.046 23.816 21.776
2382.288 19.766 18.176 16.706 15.296 14.206 13.286 12.526 11.766 10.976 10.336
2401.578 9.986 9.746 9.366 8.806 8.186 7.746 7.446 7.106 6.676 6.506
2420.867 6.366 6.056 5.846 5.636 5.466 5.306 5.106 4.936 4.876 4.776
2440.157 4.756 4.806 4.616 4.476 4.276 3.986 4.006 3.696 3.536 3.636
2459.447 3.426 3.176 3.096 3.226 3.136 3.116 3.046 2.806 2.836 2.796
2478.737 2.686 2.566 2.386 2.316 2.206 2.196 2.436 2.426 2.306 2.466
2498.026 2.466 2.236 2.276 2.556 2.316 2.186 2.656 2.616 2.486 2.466
2517.316 2.356 2.416 2.566 2.766 2.626 2.506 2.426 2.156 2.176 2.076
2536.606 2.016 2.206 2.226 2.116 2.046 2.096 2.166 2.146 1.936 1.736
2555.896 1.726 1.606 1.576 1.646 1.546 1.636 1.646 1.526 1.596 1.746
2575.186 1.886 1.816 1.596 1.796 1.896 1.586 1.616 1.746 1.616 1.636
2594.475 1.826 1.726 1.746 1.736 1.766 1.876 1.706 1.656 1.796 1.646
2613.765 1.606 1.836 1.776 1.866 1.846 1.776 1.936 1.826 1.706 1.576
2633.055 1.606 1.726 1.546 1.516 1.606 1.596 1.616 1.656 1.436 1.316
2652.345 1.326 1.436 1.746 1.836 1.926 1.946 1.886 1.936 1.926 1.946
2671.634 1.966 1.756 1.836 2.066 2.006 1.866 1.966 2.306 2.336 2.266
2690.924 2.176 2.086 2.186 2.066 1.946 1.966 1.876 1.946 1.946 2.056
2710.214 2.126 2.056 2.236 2.026 1.836 1.846 1.906 2.186 2.216 2.166
2729.504 2.366 2.486 2.756 2.776 2.466 2.596 2.616 2.836 3.056 2.866
2748.794 2.976 2.936 2.766 2.896 2.686 2.526 2.856 2.976 2.866 2.766
2768.083 2.526 2.576 2.636 2.756 2.746 2.416 2.526 2.766 2.746 2.656
2787.373 2.606 2.686 2.716 2.686 2.906 2.926 2.996 2.966 2.996 3.266
2806.663 3.216 3.446 3.756 3.726 3.786 3.966 4.056 4.156 4.516 4.736
2825.953 4.726 4.686 4.826 5.266 5.506 5.676 5.866 6.326 6.916 7.286
2845.242 7.756 8.256 8.886 9.606 10.496 11.126 11.666 12.456 13.116 14.016
2864.532 15.236 16.566 18.186 19.486 20.646 22.376 24.266 25.556 26.716 27.766
2883.822 28.286 28.396 28.316 27.906 26.846 25.896 25.316 24.836 24.316 24.156
2903.112 24.586 25.166 25.836 26.746 27.416 28.136 29.106 30.136 30.716 31.176
2922.401 32.156 33.096 33.896 35.016 36.546 37.976 39.706 41.496 43.276 45.206
2941.691 46.946 48.386 48.866 48.536 48.236 47.936 47.376 47.126 47.946 49.416
2960.981 50.796 52.346 53.446 54.436 55.006 54.046 51.896 48.496 44.506 40.206
2980.271 35.376 30.976 27.216 24.056 21.626 19.446 17.066 15.246 14.346 13.356
2999.561 12.186 11.136 10.496 9.906 9.246 9.166 9.066 8.606 8.406 7.756
3018.850 7.266 7.446 7.436 7.266 7.176 7.556 7.736 7.556 7.456 7.586
3038.140 7.876 7.946 7.996 8.206 8.356 8.286 7.966 7.806 7.986 8.026
3057.430 7.836 7.776 7.596 7.676 8.006 7.896 7.796 7.756 7.526 7.386
3076.720 7.166 6.816 6.886 6.666 5.836 5.686 5.906 5.536 5.076 4.616
3096.009 4.646 4.726 4.316 4.186 4.386 4.296 4.026 3.686 3.346 3.256
3115.299 2.786 2.686 2.766 2.506 2.406 2.366 2.446 2.306 1.366 1.0669
3134.589 1.666 1.656 1.806 1.786 1.376 1.406 1.586 1.616 1.366 1.0622
3153.879 1.0695 1.276 1.376 1.356 1.286 1.506 1.506 1.1053 1.0965 1.1038
3173.169 0.8704 0.8346 1.196 1.246 0.9827 1.146 1.356 1.246 0.9013 0.8148
3192.458 1.1065 1.206 1.256 1.0775 0.8759 1.196 1.356 1.326 1.166 1.002
3211.748 0.9844 0.7568 0.6589 0.7572 0.8304 0.8209 0.2601 0.0776 0.4935 0.584
3231.038 0.6554 0.5682 0.45 0.8223 1.0317 0.6472 0.2968 0.5127 0.4918 0.18264
3250.328 0.3017 0.4545 0.4503 0.5829 0.3922 0.16532 0.4279 0.7412 0.4215 0.014
3269.617 0.2889 0.3818 0.13289 0.3183 0.8625 0.8305 0.7176 0.8561 0.5466 0.5303
3288.907 0.6171 0.4007 0.2591 0.2248 0.5753 0.635 0.15573 0.0272 0.2653 0.3256
3308.197 0.7283 1.156 0.8468 0.9318 0.7985 0.2658 0.2252 0.3814 0.6207 0.7596
3327.487 0.8066 0.8253 1.0062 0.7146 0.4344 0.7419 0.9375 1.1062 1.1043 0.9599
3346.777 1.156 1.436 1.496 1.596 1.526 1.596 1.616 1.426 1.526 1.896
3366.066 2.256 2.416 2.266 2.146 2.496 2.686 2.796 3.066 2.996 2.946
3385.356 3.066 2.766 3.046 3.396 3.416 4.196 4.386 3.966 3.766 3.386
3404.646 3.566 3.666 3.846 3.916 3.686 3.966 3.516 3.016 3.286 2.936
3423.936 2.626 2.726 2.526 2.386 2.476 2.266 1.966 1.926 1.726 1.496
3443.225 1.716 1.506 1.396 1.526 0.9039 1.0769 1.526 1.536 1.456 1.256
3462.515 1.0957 1.116 1.426 1.526 1.436 1.126 0.661 0.5587 0.943 1.406
3481.805 1.246 0.9561 0.8448 0.8815 0.961 1.0035 1.436 1.366 1.0052 0.962
3501.095 0.9753 0.5511 0.3005 0.4586 0.6366 1.0598 1.0077 0.6394 0.13555 0.3185
3520.385 0.7197 0.4841 0.4424 0.4784 0.9242 1.306 0.9923 0.6507 0.4997 0.3607
3539.674 0.7404 1.176 0.7863 0.707 0.9795 0.8162 0.7063 0.8543 1.0214 1.0542
3558.964 0.9833 0.8652 0.7971 0.9148 1.0084 0.6484 0.3096 0.3539 0.631 0.7488
3578.254 0.7324 1.0326 1.366 1.346 1.1047 0.9524 1.0482 1.526 1.676 1.496
3597.544 1.286 1.0049 0.9936 1.0828 0.9938 1.246 1.246 1.186 1.336 1.146
3616.833 1.1034 1.276 1.496 1.024 0.6094 0.7779 1.146 1.496 1.186 1.0157
3636.123 1.216 1.396 1.556 1.626 1.806 1.626 1.196 1.546 2.256 2.096
3655.413 1.726 1.936 2.376 2.586 2.556 2.346 2.196 2.566 2.846 2.546
3674.703 2.546 2.746 2.766 2.876 2.696 2.656 2.966 3.226 3.006 2.676
3693.993 3.086 3.446 3.336 3.186 3.286 3.186 3.136 3.286 2.986 3.056
3713.282 3.276 3.046 3.016 2.806 2.566 2.856 2.806 2.936 3.226 3.106
3732.572 2.516 2.016 1.996 2.126 2.016 1.706 1.606 1.746 2.046 1.836
3751.862 1.776 1.596 1.436 1.626 1.606 1.656 1.526 1.616 1.646 1.586
3771.152 1.696 1.696 1.706 1.756 1.726 1.386 1.406 1.726 1.746 1.626
3790.441 1.526 1.236 0.7235 0.5948 1.236 1.746 1.676 1.826 1.846 1.596
3809.731 1.376 1.766 1.656 1.356 1.936 1.806 1.626 1.366 0.7388 0.8665
3829.021 1.136 1.166 1.1148 0.7641 0.6966 0.922 0.8464 0.9293 1.126 1.0729
3848.311 1.0428 1.0036 1.126 1.0779 0.9105 0.9389 1.0837 1.496 1.616 1.136
3867.601 0.7873 0.7101 0.7182 0.771 0.6934 1.0082 1.0441 0.8873 0.9803 0.7501
3886.890 1.1124 1.296 0.9066 0.9174 1.0115 0.7662 0.7024 0.6475 0.6246 0.8528
3906.180 1.0037 0.5956 0.3329 0.8059 0.9607 0.8086 0.7354 0.8131 0.7552 0.4408
3925.470 0.2917 0.19902 0 0.2159 0.5353 0.5923 0.3624 0.3995 0.9864 0.7802
3944.760 0.5215 0.4305 0.4284 0.639 0.6421 0.5585 0.4386 0.6767 0.5313 0.418
3964.049 0.5503 0.6972 0.6778 0.3801 0.6608 0.6938 0.4295 0.6435 0.7721 0.775
3983.339 0.8944 0.855 0.7218 0.3587 0.0609 0.4296 0.6251 0.9144 1.0467 0.5064
##END=
