##TITLE=Dimethyl phthalimidomethylphosphonate
##JCAMP-DX=4.24
##DATA TYPE=INFRARED SPECTRUM
##ORIGIN=EPA-IR VAPOR PHASE LIBRARY
##OWNER=SRD/NIST
Collection (C) 2018 copyright by the U.S. Secretary of Commerce
on behalf of the United States of America. All rights reserved.
##CAS REGISTRY NO=28447-26-9
##MOLFORM=C11 H12 N O5 P
##$NIST SOURCE=MSDC-IR
##STATE=gas
##XUNITS=1/CM
##YUNITS=ABSORBANCE
##XFACTOR=1.
##YFACTOR=0.001
##DELTAX=1.92934
##FIRSTX=549.9
##LASTX=3999.5
##FIRSTY=0.7757
##MAXX=3999.53
##MINX=549.863
##MAXY=0.006701
##MINY=0
##NPOINTS=1789
##XYDATA=(X++(Y..Y))
549.863 0.7757 0.7509 0.573 0.4 0.469 0.5768 0.6075 0.68172 0.61875 0.5416
569.156 0.472 0.355 0.368 0.372 0.39 0.363 0.338 0.383 0.42 0.409
588.450 0.335 0.401 0.508 0.502 0.502 0.5408 0.561 0.519 0.5357 0.5733
607.743 0.5908 0.6469 0.6001 0.5407 0.5901 0.5958 0.561 0.501 0.545 0.562
627.037 0.513 0.556 0.5746 0.5436 0.5436 0.5307 0.411 0.443 0.5249 0.519
646.330 0.5315 0.476 0.469 0.5496 0.58 0.5382 0.508 0.5298 0.533 0.5471
665.624 0.488 0.501 0.5766 0.5597 0.5456 0.5503 0.5277 0.526 0.555 0.5544
684.917 0.5703 0.61322 0.65837 0.67977 0.70922 0.7348 0.67996 0.68361 0.8026 0.9241
704.210 0.9966 1.0391 1.1123 1.2404 1.3643 1.4085 1.4532 1.5262 1.52 1.3747
723.504 1.19 1.0133 0.9022 0.8669 0.8474 0.7817 0.69591 0.65003 0.626734 0.6483
742.797 0.67931 0.71385 0.70224 0.64355 0.61764 0.621711 0.65533 0.66774 0.67018 0.64645
762.091 0.63445 0.63255 0.63515 0.68189 0.7215 0.7475 0.7424 0.7461 0.8138 0.9084
781.384 0.9636 1.0158 1.0862 1.151 1.202 1.2466 1.2814 1.2865 1.2403 1.2123
800.678 1.1956 1.1189 1.02 0.9495 0.9268 0.9325 0.9608 0.9774 0.9929 1.0029
819.971 0.9856 0.9876 1.0196 1.0907 1.1219 1.1183 1.1347 1.1425 1.1272 1.1118
839.264 1.0987 1.0548 1.0177 1.0186 1.006 0.9116 0.8719 0.8506 0.8193 0.7638
858.558 0.71678 0.70555 0.65804 0.621752 0.63316 0.65324 0.63889 0.68742 0.679 0.627645
877.851 0.65337 0.68435 0.67257 0.67966 0.7303 0.7554 0.7876 0.8632 0.9232 0.9853
897.145 1.1168 1.2533 1.3989 1.4965 1.5464 1.5934 1.5223 1.3853 1.2573 1.1223
916.438 0.9968 0.9233 0.871 0.8101 0.7697 0.72067 0.70203 0.6818 0.64808 0.67088
935.732 0.64414 0.628234 0.65826 0.65251 0.63309 0.64106 0.71679 0.72004 0.683 0.7321
955.025 0.7337 0.71421 0.70223 0.66636 0.7338 0.7943 0.8197 0.903 0.9659 1.0356
974.318 1.0615 1.0863 1.1137 1.0438 0.9608 0.8956 0.8709 0.8471 0.7923 0.769
993.612 0.7812 0.8041 0.8093 0.8247 0.8397 0.8449 0.8735 0.8908 0.9441 1.0418
1012.905 1.0875 1.1098 1.191 1.297 1.3755 1.4409 1.5673 1.741 1.941 2.141
1032.199 2.341 2.581 2.831 3.051 3.271 3.471 3.531 3.491 3.461 3.411
1051.492 3.301 3.211 3.181 3.191 3.221 3.271 3.311 3.351 3.311 3.141
1070.786 2.961 2.781 2.531 2.271 2.061 1.851 1.681 1.5735 1.4494 1.3945
1090.079 1.3813 1.3521 1.3027 1.2651 1.2456 1.1822 1.1346 1.137 1.104 1.0722
1109.372 1.0666 1.0324 1.0193 1.0485 1.0377 0.9647 0.9493 0.9898 0.9654 0.9247
1128.666 0.9065 0.9119 0.8923 0.8257 0.8602 0.917 0.9018 0.9154 0.917 0.8815
1147.959 0.9282 0.9474 0.9212 0.9024 0.9325 0.9197 0.8753 0.9199 0.9102 0.9486
1167.253 1.0281 1.0374 1.0167 1.003 1.0525 1.0928 1.1237 1.1515 1.1892 1.2378
1186.546 1.2157 1.179 1.2287 1.2355 1.2118 1.2037 1.1008 1.0206 1.03 1.0551
1205.840 1.0527 1.0558 0.9978 0.9776 1.0435 1.0868 1.08 0.9744 0.9677 1.0256
1225.133 1.015 1.0047 1.0176 0.9552 0.8989 0.9514 1.0057 0.9689 0.9368 0.9784
1244.426 1.0224 0.9932 0.9842 1.0643 1.1081 1.1687 1.2209 1.2674 1.3069 1.3603
1263.720 1.4487 1.5201 1.5768 1.5995 1.6126 1.5879 1.5693 1.572 1.5541 1.4997
1283.013 1.4607 1.4506 1.4125 1.3333 1.2967 1.2952 1.3273 1.3576 1.3285 1.3622
1302.307 1.4458 1.4639 1.4483 1.448 1.468 1.4838 1.4545 1.4161 1.3754 1.2761
1321.600 1.212 1.1692 1.1052 1.0536 1.01 0.9655 0.9311 0.9316 0.916 0.916
1340.894 0.9457 0.958 0.9325 0.9207 0.9385 0.9346 0.9579 1.0185 1.0677 1.1395
1360.187 1.2249 1.3266 1.4587 1.5871 1.741 1.931 2.131 2.361 2.581 2.781
1379.480 2.921 2.951 2.891 2.721 2.431 2.161 1.931 1.781 1.681 1.651
1398.774 1.761 1.931 2.071 2.171 2.221 2.181 2.101 1.961 1.751 1.5579
1418.067 1.4123 1.286 1.1848 1.0957 1.0235 0.9888 0.9412 0.8963 0.8661 0.8607
1437.361 0.8311 0.7988 0.8276 0.8506 0.8594 0.8416 0.837 0.8508 0.8594 0.8409
1456.654 0.8145 0.8571 0.8814 0.882 0.9033 0.907 0.902 0.8872 0.8534 0.8419
1475.948 0.8373 0.7756 0.7492 0.7687 0.7322 0.71717 0.7452 0.7221 0.6701 0.68324
1495.241 0.7246 0.71461 0.6975 0.70812 0.70862 0.67715 0.69942 0.7361 0.7333 0.7357
1514.534 0.744 0.7509 0.7346 0.7216 0.71871 0.71318 0.71933 0.71942 0.71286 0.7247
1533.828 0.69493 0.68674 0.70818 0.67621 0.68664 0.7165 0.7405 0.7489 0.7263 0.7379
1553.121 0.7573 0.7354 0.7483 0.7526 0.7411 0.769 0.7306 0.69911 0.69141 0.70793
1572.415 0.7576 0.7469 0.7235 0.71836 0.7239 0.7609 0.7875 0.7724 0.7727 0.7972
1591.708 0.806 0.8227 0.8224 0.8123 0.7851 0.7601 0.7958 0.793 0.752 0.7848
1611.002 0.7941 0.7895 0.7991 0.7848 0.7671 0.7338 0.7447 0.7657 0.7352 0.70791
1630.295 0.7191 0.7289 0.69007 0.64178 0.6874 0.7419 0.7348 0.725 0.70457 0.67921
1649.588 0.67916 0.66933 0.6539 0.67966 0.69471 0.69539 0.7457 0.7672 0.7303 0.70244
1668.882 0.71868 0.7373 0.747 0.7536 0.7586 0.7678 0.74 0.71602 0.71007 0.7575
1688.175 0.7777 0.7459 0.7491 0.775 0.8308 0.856 0.8279 0.8498 0.8739 0.8694
1707.469 0.9421 1.0082 1.0231 1.0404 1.0644 1.1028 1.2109 1.3781 1.6171 1.941
1726.762 2.401 3.061 3.871 4.801 5.781 6.471 6.701 6.691 6.371 5.531
1746.056 4.451 3.461 2.681 2.151 1.801 1.603 1.4703 1.3713 1.2931 1.2156
1765.349 1.155 1.1414 1.1455 1.0973 1.0628 1.1404 1.2044 1.2307 1.3086 1.3823
1784.642 1.4265 1.4673 1.4403 1.3258 1.1998 1.1121 1.0198 0.9557 0.9317 0.8711
1803.936 0.8318 0.852 0.8585 0.8255 0.8393 0.8571 0.826 0.7988 0.7902 0.7518
1823.229 0.7233 0.7368 0.7532 0.7681 0.7708 0.7798 0.7692 0.7654 0.7786 0.7625
1842.523 0.70551 0.70153 0.7451 0.7404 0.71906 0.7257 0.7364 0.69791 0.69387 0.70503
1861.816 0.67133 0.70914 0.7591 0.7239 0.7264 0.7607 0.7526 0.71779 0.68362 0.67832
1881.110 0.70971 0.71468 0.69837 0.71383 0.71983 0.7228 0.71025 0.68864 0.67749 0.6571
1900.403 0.67607 0.70247 0.69608 0.71473 0.71491 0.69131 0.69068 0.6834 0.67901 0.67095
1919.696 0.65331 0.66755 0.68018 0.67518 0.68633 0.68268 0.64029 0.63472 0.65714 0.65184
1938.990 0.65852 0.65586 0.630767 0.64751 0.68756 0.69449 0.68212 0.69261 0.66905 0.625319
1958.283 0.625064 0.63919 0.6542 0.66862 0.65498 0.63766 0.63476 0.62108 0.629523 0.61567
1977.577 0.5902 0.6032 0.61471 0.62893 0.64299 0.62355 0.61716 0.5838 0.5711 0.5992
1996.870 0.5981 0.6034 0.6071 0.63033 0.627989 0.602 0.6053 0.6032 0.61356 0.6012
2016.164 0.5745 0.5835 0.5898 0.5872 0.585 0.6028 0.596 0.5619 0.5727 0.5982
2035.457 0.583 0.5684 0.5929 0.61142 0.5978 0.5725 0.5778 0.5886 0.5832 0.574
2054.750 0.5562 0.5765 0.5711 0.5437 0.5473 0.5315 0.5354 0.56 0.5677 0.559
2074.044 0.5339 0.5344 0.5666 0.5705 0.548 0.5578 0.5922 0.5812 0.5588 0.5753
2093.337 0.58 0.5787 0.5908 0.5718 0.5505 0.5658 0.5724 0.575 0.5644 0.5578
2112.631 0.569 0.5728 0.5496 0.5252 0.5434 0.5684 0.5589 0.5463 0.5481 0.5643
2131.924 0.5867 0.5648 0.5434 0.543 0.5477 0.5524 0.5503 0.5337 0.5497 0.5782
2151.218 0.5539 0.5363 0.5487 0.5457 0.525 0.5321 0.5415 0.5606 0.5755 0.5699
2170.511 0.5661 0.5553 0.548 0.5479 0.5698 0.5667 0.5467 0.5578 0.5622 0.5536
2189.804 0.54 0.5326 0.5338 0.5351 0.5457 0.5486 0.5252 0.5258 0.5416 0.5324
2209.098 0.5237 0.5469 0.5512 0.5299 0.53 0.511 0.507 0.5364 0.524 0.49
2228.391 0.517 0.533 0.517 0.5345 0.5564 0.5475 0.5221 0.509 0.52 0.532
2247.685 0.5605 0.5639 0.5267 0.5351 0.5303 0.503 0.503 0.502 0.504 0.519
2266.978 0.5339 0.5271 0.5427 0.543 0.505 0.514 0.5337 0.5359 0.514 0.524
2286.272 0.5658 0.5573 0.5268 0.49 0.504 0.5238 0.5339 0.52 0.508 0.5214
2305.565 0.502 0.5261 0.533 0.5278 0.525 0.505 0.493 0.495 0.5294 0.5359
2324.858 0.52 0.503 0.483 0.474 0.491 0.502 0.489 0.474 0.47 0.47
2344.152 0.476 0.506 0.5244 0.5271 0.493 0.441 0.465 0.519 0.468 0.432
2363.445 0.45 0.447 0.432 0.444 0.453 0.434 0.445 0.456 0.471 0.487
2382.739 0.464 0.462 0.479 0.476 0.511 0.506 0.479 0.475 0.464 0.477
2402.032 0.478 0.489 0.501 0.492 0.472 0.451 0.446 0.475 0.483 0.46
2421.326 0.459 0.433 0.42 0.445 0.459 0.472 0.451 0.432 0.472 0.483
2440.619 0.473 0.465 0.474 0.479 0.473 0.501 0.487 0.458 0.426 0.42
2459.912 0.429 0.423 0.412 0.401 0.418 0.395 0.356 0.384 0.437 0.445
2479.206 0.425 0.433 0.444 0.425 0.416 0.431 0.441 0.436 0.434 0.401
2498.499 0.355 0.393 0.435 0.413 0.416 0.416 0.377 0.366 0.398 0.419
2517.793 0.415 0.414 0.388 0.387 0.413 0.413 0.399 0.382 0.373 0.4
2537.086 0.429 0.437 0.432 0.386 0.333 0.333 0.383 0.399 0.379 0.395
2556.380 0.41 0.384 0.4 0.42 0.403 0.412 0.4 0.393 0.394 0.388
2575.673 0.393 0.375 0.371 0.358 0.344 0.348 0.336 0.344 0.367 0.368
2594.966 0.37 0.357 0.382 0.387 0.38 0.394 0.386 0.367 0.353 0.349
2614.260 0.355 0.354 0.306 0.282 0.282 0.307 0.332 0.364 0.36 0.345
2633.553 0.383 0.366 0.342 0.356 0.385 0.391 0.38 0.348 0.354 0.332
2652.847 0.262 0.303 0.308 0.298 0.324 0.329 0.299 0.3 0.334 0.292
2672.140 0.293 0.311 0.295 0.311 0.279 0.282 0.292 0.254 0.259 0.251
2691.434 0.291 0.326 0.314 0.337 0.376 0.356 0.324 0.322 0.315 0.293
2710.727 0.302 0.28 0.251 0.278 0.293 0.262 0.211 0.208 0.242 0.288
2730.020 0.268 0.269 0.275 0.282 0.274 0.284 0.303 0.227 0.183 0.197
2749.314 0.256 0.28 0.257 0.283 0.279 0.264 0.262 0.23 0.235 0.229
2768.607 0.212 0.263 0.249 0.23 0.265 0.216 0.158 0.186 0.273 0.263
2787.901 0.283 0.306 0.205 0.132 0.124 0.164 0.2 0.262 0.281 0.219
2807.194 0.21 0.209 0.197 0.234 0.254 0.24 0.2 0.151 0.121 0.146
2826.488 0.176 0.164 0.191 0.21 0.158 0.145 0.204 0.19 0.171 0.187
2845.781 0.21 0.27 0.259 0.213 0.209 0.278 0.351 0.314 0.242 0.268
2865.074 0.341 0.283 0.236 0.277 0.267 0.275 0.305 0.23 0.174 0.182
2884.368 0.228 0.208 0.108 0.124 0.13 0.078 0.114 0.151 0.122 0.065
2903.661 0.109 0.194 0.209 0.207 0.207 0.269 0.274 0.157 0.153 0.165
2922.955 0.157 0.229 0.287 0.243 0.217 0.277 0.317 0.383 0.421 0.347
2942.248 0.328 0.451 0.499 0.465 0.444 0.447 0.469 0.484 0.5507 0.67402
2961.542 0.65447 0.61159 0.7212 0.7227 0.622413 0.477 0.355 0.356 0.341 0.318
2980.835 0.346 0.347 0.324 0.363 0.363 0.286 0.257 0.286 0.296 0.276
3000.128 0.282 0.274 0.253 0.247 0.26 0.246 0.238 0.209 0.181 0.217
3019.422 0.249 0.275 0.235 0.244 0.29 0.243 0.203 0.249 0.316 0.33
3038.715 0.264 0.179 0.173 0.232 0.203 0.125 0.14 0.203 0.247 0.244
3058.009 0.219 0.209 0.203 0.245 0.347 0.294 0.209 0.194 0.141 0.162
3077.302 0.204 0.269 0.285 0.219 0.252 0.354 0.287 0.2 0.228 0.239
3096.596 0.24 0.19 0.122 0.105 0.122 0.101 0.092 0.173 0.184 0.18
3115.889 0.147 0.053 0.094 0.156 0.231 0.249 0.132 0.058 0.059 0.035
3135.182 0.017 0.067 0.028 0 0.1 0.106 0.072 0.097 0.137 0.064
3154.476 0.051 0.129 0.188 0.267 0.224 0.167 0.142 0.073 0.047 0.13
3173.769 0.207 0.263 0.163 0.03 0.012 0.005 0 0.026 0.085 0.221
3193.063 0.22 0.102 0.119 0.091 0.073 0.145 0.148 0.218 0.226 0.13
3212.356 0.102 0.119 0.174 0.161 0.109 0.064 0.114 0.196 0.176 0.204
3231.650 0.261 0.228 0.296 0.319 0.197 0.172 0.214 0.2 0.204 0.154
3250.943 0.101 0.072 0.033 0.132 0.166 0.084 0.143 0.205 0.208 0.154
3270.236 0.017 0.082 0.236 0.224 0.154 0.16 0.137 0.143 0.183 0.094
3289.530 0.11 0.15 0.078 0.102 0.212 0.295 0.215 0.216 0.269 0.237
3308.823 0.186 0.131 0.234 0.298 0.276 0.286 0.28 0.215 0.18 0.262
3328.117 0.358 0.249 0.129 0.231 0.245 0.109 0.164 0.224 0.174 0.169
3347.410 0.138 0.111 0.139 0.245 0.372 0.365 0.284 0.223 0.223 0.095
3366.704 0.121 0.289 0.125 0.121 0.208 0.23 0.239 0.164 0.197 0.231
3385.997 0.24 0.214 0.236 0.288 0.259 0.236 0.249 0.291 0.303 0.254
3405.290 0.237 0.224 0.229 0.275 0.174 0.258 0.375 0.306 0.286 0.299
3424.584 0.288 0.409 0.455 0.302 0.142 0.095 0.197 0.297 0.35 0.246
3443.877 0.201 0.296 0.328 0.394 0.419 0.346 0.322 0.298 0.246 0.244
3463.171 0.29 0.333 0.355 0.221 0.122 0.162 0.274 0.34 0.311 0.322
3482.464 0.349 0.291 0.313 0.35 0.334 0.383 0.416 0.302 0.24 0.27
3501.758 0.263 0.337 0.351 0.36 0.386 0.393 0.395 0.405 0.426 0.451
3521.051 0.429 0.399 0.381 0.32 0.249 0.203 0.31 0.383 0.434 0.408
3540.344 0.303 0.324 0.244 0.255 0.32 0.338 0.381 0.36 0.292 0.332
3559.638 0.338 0.309 0.378 0.372 0.278 0.309 0.357 0.342 0.283 0.253
3578.931 0.348 0.342 0.365 0.375 0.343 0.306 0.278 0.317 0.283 0.338
3598.225 0.398 0.314 0.369 0.435 0.358 0.286 0.246 0.329 0.422 0.409
3617.518 0.371 0.268 0.267 0.358 0.364 0.299 0.241 0.269 0.299 0.273
3636.812 0.287 0.263 0.21 0.236 0.276 0.349 0.35 0.351 0.379 0.36
3656.105 0.332 0.296 0.265 0.279 0.326 0.359 0.4 0.32 0.258 0.284
3675.398 0.276 0.332 0.37 0.329 0.246 0.185 0.271 0.319 0.323 0.327
3694.692 0.315 0.315 0.349 0.362 0.285 0.258 0.265 0.325 0.389 0.381
3713.985 0.387 0.328 0.274 0.378 0.379 0.315 0.348 0.326 0.29 0.305
3733.279 0.295 0.299 0.263 0.184 0.232 0.273 0.278 0.333 0.393 0.368
3752.572 0.264 0.24 0.295 0.318 0.304 0.316 0.363 0.326 0.268 0.364
3771.866 0.362 0.354 0.408 0.382 0.323 0.296 0.352 0.321 0.258 0.326
3791.159 0.319 0.27 0.279 0.257 0.264 0.262 0.279 0.279 0.295 0.301
3810.452 0.299 0.356 0.406 0.321 0.271 0.277 0.334 0.359 0.326 0.379
3829.746 0.383 0.372 0.31 0.263 0.256 0.283 0.274 0.251 0.299 0.295
3849.039 0.226 0.251 0.288 0.337 0.291 0.221 0.287 0.304 0.3 0.344
3868.333 0.376 0.304 0.272 0.306 0.299 0.333 0.354 0.297 0.253 0.222
3887.626 0.241 0.359 0.342 0.301 0.317 0.317 0.36 0.371 0.408 0.353
3906.920 0.273 0.295 0.302 0.377 0.391 0.27 0.263 0.311 0.292 0.263
3926.213 0.311 0.379 0.426 0.401 0.366 0.375 0.361 0.333 0.33 0.338
3945.506 0.313 0.276 0.281 0.279 0.281 0.302 0.316 0.293 0.272 0.288
3964.800 0.254 0.24 0.275 0.319 0.299 0.267 0.328 0.373 0.341 0.31
3984.093 0.233 0.258 0.347 0.295 0.311 0.297 0.216 0.232 0.288
##END=
