##TITLE=3-Chloroanisole
##JCAMP-DX=4.24
##DATA TYPE=INFRARED SPECTRUM
##ORIGIN=NIST Mass Spectrometry Data Center
##OWNER=NIST Standard Reference Data Program
Collection (C) 2018 copyright by the U.S. Secretary of Commerce
on behalf of the United States of America. All rights reserved.
##CAS REGISTRY NO=2845-89-8
##MOLFORM=C 7 H 7 Cl O
##$NIST SOURCE=MSDC-IR
##SPECTROMETER/DATA SYSTEM=HP-GC/MS/IRD
##STATE=gas
##XUNITS=1/CM
##YUNITS=ABSORBANCE
##XFACTOR=1.0
##YFACTOR=0.000004100
##DELTAX=4.0
##FIRSTX=550.0
##LASTX=3846.0
##FIRSTY=0.000820
##MAXX=3846
##MINX=550
##MAXY=0.041
##MINY=0
##NPOINTS=825
##XYDATA=(X++(Y..Y))
550.0 200 326 244 239 204 161 128 91 61 48
590.0 18 2 31 37 8 22 56 54 61 85
630.0 90 97 115 135 133 146 218 322 497 710
670.0 913 1171 1487 1542 1334 1095 843 611 403 254
710.0 170 112 92 87 76 90 125 191 289 442
750.0 662 941 1340 1758 1947 2147 2183 1737 1284 957
790.0 660 433 316 255 236 282 316 367 471 611
830.0 824 1190 1752 2352 2947 3592 4086 4213 4012 3515
870.0 2732 1852 1145 720 498 369 279 227 199 172
910.0 140 122 112 107 103 93 89 83 82 78
950.0 75 81 98 128 152 176 205 254 332 424
990.0 491 528 579 624 660 767 977 1294 1729 2288
1030.0 2919 3535 4051 4357 4392 4150 3682 3159 2756 2483
1070.0 2373 2380 2350 2265 2244 2297 2266 2087 1729 1261
1110.0 832 527 372 296 249 236 250 268 309 385
1150.0 455 506 535 542 524 517 555 603 630 664
1190.0 685 668 690 793 958 1213 1609 2188 2863 3483
1230.0 4017 4516 4888 5098 5208 5133 4897 4427 3651 3023
1270.0 2900 3063 3233 3319 3338 3191 2831 2432 2069 1731
1310.0 1468 1281 1145 1041 943 850 722 562 434 346
1350.0 293 256 233 220 210 200 213 240 277 325
1390.0 396 478 570 683 825 1005 1235 1493 1746 1990
1430.0 2203 2322 2389 2434 2399 2366 2458 2693 3115 3765
1470.0 4616 5707 6588 6700 6112 5087 3727 2271 1300 880
1510.0 706 650 633 655 696 731 759 771 797 865
1550.0 971 1132 1391 1817 2417 3293 4417 5866 7552 9205
1590.0 10000 9518 8212 6447 4496 2830 1770 1191 875 684
1630.0 560 479 429 382 329 277 242 230 217 207
1670.0 199 199 192 176 159 159 151 138 140 152
1710.0 157 152 156 175 175 158 145 141 136 136
1750.0 132 131 128 117 111 102 97 104 104 92
1790.0 84 83 84 86 90 95 100 101 105 108
1830.0 113 120 121 112 105 98 85 79 72 64
1870.0 58 59 61 65 76 87 101 113 130 147
1910.0 154 156 149 142 131 109 82 62 49 40
1950.0 32 32 35 32 32 38 41 39 36 39
1990.0 42 42 43 40 39 36 39 49 52 57
2030.0 68 70 73 78 82 89 99 115 129 139
2070.0 151 161 166 163 154 151 143 136 137 143
2110.0 138 124 115 99 86 80 74 66 58 51
2150.0 52 45 39 43 40 29 23 27 23 20
2190.0 20 11 7 10 7 2 6 10 9 5
2230.0 12 11 13 16 13 14 21 27 35 41
2270.0 46 52 58 58 53 49 43 42 43 43
2310.0 49 56 64 62 60 59 51 45 44 37
2350.0 31 30 29 26 25 28 27 25 29 27
2390.0 28 32 32 33 38 38 33 35 38 44
2430.0 46 46 56 62 63 65 62 66 61 52
2470.0 60 66 72 84 89 97 101 101 108 106
2510.0 95 89 90 88 80 71 61 52 52 56
2550.0 58 63 62 56 56 51 52 54 49 50
2590.0 54 57 56 52 46 44 47 45 42 41
2630.0 49 59 56 56 57 62 64 56 57 54
2670.0 52 62 70 68 65 65 60 60 61 64
2710.0 65 70 75 68 63 67 71 70 73 64
2750.0 57 60 65 73 74 76 83 81 89 102
2790.0 117 130 141 158 173 190 219 262 308 383
2830.0 498 646 819 952 1014 1004 911 761 629 546
2870.0 508 495 498 511 530 543 566 617 679 745
2910.0 825 889 928 957 964 1004 1128 1320 1534 1693
2950.0 1792 1815 1728 1593 1407 1193 1020 888 790 732
2990.0 737 807 942 1130 1316 1387 1346 1233 1024 777
3030.0 613 537 490 454 426 410 395 390 417 470
3070.0 544 625 706 743 727 683 597 482 386 306
3110.0 237 184 160 145 120 107 94 79 80 78
3150.0 70 66 64 67 71 70 70 72 68 69
3190.0 64 48 42 44 54 54 37 39 46 33
3230.0 34 35 18 14 14 20 22 22 31 33
3270.0 19 4 8 5 5 21 28 34 38 39
3310.0 34 25 27 29 9 10 23 22 22 18
3350.0 19 14 10 14 15 11 9 17 20 17
3390.0 18 21 27 23 12 10 14 15 16 37
3430.0 36 25 18 9 11 15 21 30 30 22
3470.0 13 9 11 19 31 37 27 17 31 33
3510.0 26 23 26 34 23 22 36 33 24 30
3550.0 33 12 0 6 12 17 19 26 30 20
3590.0 14 5 2 17 23 19 35 30 14 12
3630.0 16 25 27 25 9 12 13 3 3 7
3670.0 8 7 21 24 17 23 28 18 15 21
3710.0 17 27 33 28 37 33 18 16 1 0
3750.0 0 6 23 30 42 42 44 40 25 23
3790.0 29 23 10 22 27 18 9 14 22 18
3830.0 25 21 12 18 32
##END=
