##TITLE=Benzenesulphonyl isocyanate
##JCAMP-DX=4.24
##DATA TYPE=INFRARED SPECTRUM
##ORIGIN=EPA-IR VAPOR PHASE LIBRARY
##OWNER=SRD/NIST
Collection (C) 2018 copyright by the U.S. Secretary of Commerce
on behalf of the United States of America. All rights reserved.
##CAS REGISTRY NO=2845-62-7
##MOLFORM=C 7 H 5 N O 3 S
##$NIST SOURCE=MSDC-IR
##STATE=gas
##XUNITS=1/CM
##YUNITS=ABSORBANCE
##XFACTOR=1.
##YFACTOR=0.001
##DELTAX=1.92898
##FIRSTX=549.8
##LASTX=4000.7
##FIRSTY=8.853
##MAXX=4000.7
##MINX=549.759
##MAXY=1.17756
##MINY=0
##NPOINTS=1790
##XYDATA=(X++(Y..Y))
549.759 8.853 10.173 11.673 14.753 19.793 26.633 37.163 51.853 70.283 91.003
569.049 108.423 116.443 123.453 129.883 128.893 124.283 110.513 89.213 70.433 58.443
588.339 52.853 50.613 49.933 51.263 54.823 59.233 65.013 72.763 83.463 97.863
607.628 117.153 142.693 176.023 214.633 250.453 278.763 295.783 299.333 293.603 281.283
626.918 261.383 230.593 191.213 152.383 119.823 94.493 76.763 64.273 54.823 47.753
646.208 42.133 37.593 33.193 29.383 27.203 26.083 25.173 24.783 25.053 25.833
665.498 27.323 30.233 33.323 35.863 39.483 43.803 48.393 52.743 56.813 59.603
684.787 60.523 61.033 60.703 58.833 55.903 52.693 49.753 47.873 47.293 47.653
704.077 48.953 51.283 54.263 57.863 62.533 67.943 74.623 83.003 93.733 107.593
723.367 124.253 143.783 165.173 186.923 207.833 224.953 236.183 241.183 239.273 228.823
742.657 209.693 183.983 156.093 128.743 104.573 86.653 73.523 63.263 54.703 47.423
761.947 41.323 35.543 30.563 26.673 23.583 21.343 20.103 19.373 18.303 17.143
781.236 15.933 15.033 14.333 13.513 12.283 11.103 10.313 9.383 8.523 7.913
800.526 7.573 6.813 6.423 6.193 5.773 5.383 4.853 4.913 4.543 4.183
819.816 3.773 2.493 1.433 2.283 3.263 3.123 3.443 3.693 3.483 3.193
839.106 3.323 3.163 2.883 2.663 2.473 2.573 2.503 2.213 2.293 2.423
858.395 2.263 2.153 2.063 1.913 1.953 2.073 2.063 2.083 1.933 1.803
877.685 2.173 2.553 2.543 2.233 1.953 2.083 1.943 1.713 1.883 1.803
896.975 1.513 1.553 1.683 1.623 1.603 1.293 1.2103 1.223 0.9212 1.2008
916.265 1.293 1.293 1.733 1.483 1.0633 0.9861 1.1777 1.473 1.533 1.443
935.555 1.124 0.9551 1.293 1.233 0.7635 1.1554 1.0451 0.8404 1.233 1.253
954.844 1.1619 1.1836 1.1778 1.243 1.383 1.423 1.533 1.413 1.148 0.9404
974.134 1.263 1.553 1.373 1.313 1.2075 1.1985 1.303 1.283 2.003 3.073
993.424 3.633 3.883 3.593 3.533 3.853 3.783 3.723 3.663 3.443 3.513
1012.714 3.883 4.363 4.463 4.763 5.453 5.913 6.233 6.013 5.803 5.373
1032.003 4.423 4.263 3.943 3.363 3.613 3.883 2.943 2.293 2.773 2.973
1051.293 3.153 3.773 4.493 4.733 5.083 5.983 5.973 5.423 6.003 7.093
1070.583 7.463 8.103 9.093 11.083 14.563 18.783 24.413 30.343 35.903 40.863
1089.873 44.003 46.453 47.663 45.303 40.883 36.923 32.193 25.383 18.343 14.073
1109.163 11.353 9.143 7.303 5.503 5.073 5.213 4.313 3.273 2.993 2.673
1128.452 2.673 3.653 4.033 3.013 3.393 4.143 3.973 4.123 4.823 5.583
1147.742 6.233 6.503 7.213 8.183 8.893 10.723 13.053 15.753 19.883 25.383
1167.032 32.263 42.213 55.173 69.783 86.683 106.863 130.283 156.273 182.983 208.583
1186.322 229.713 243.073 247.903 244.883 235.993 220.153 196.473 168.723 139.553 110.913
1205.611 86.653 67.993 52.363 42.143 35.463 28.803 24.203 22.193 20.133 16.983
1224.901 15.203 13.823 13.173 12.363 11.743 12.033 11.383 11.033 10.583 9.713
1244.191 9.253 8.763 8.333 7.993 8.083 8.033 7.253 7.453 7.813 7.233
1263.481 7.783 8.113 7.923 8.343 8.823 8.923 9.073 9.323 9.813 10.173
1282.771 10.543 11.183 11.713 12.033 12.423 12.823 13.123 13.523 13.873 14.353
1302.060 14.913 15.503 16.173 16.873 17.633 18.613 19.583 20.493 21.743 23.023
1321.350 24.323 26.033 27.913 29.713 31.563 33.413 35.283 37.323 39.473 41.953
1340.640 45.033 48.703 53.093 58.333 64.153 70.253 76.243 81.773 86.423 90.073
1359.930 92.523 93.633 94.083 93.843 93.113 92.803 93.503 95.683 99.773 106.223
1379.219 115.483 127.253 141.163 156.243 171.673 185.973 197.193 204.663 207.453 203.753
1398.509 192.343 174.133 152.203 129.823 108.913 89.863 72.983 58.553 47.143 38.563
1417.799 32.403 28.083 25.233 23.353 22.073 21.383 21.033 21.063 21.773 23.063
1437.089 24.983 27.183 29.443 31.853 34.073 35.863 37.383 37.953 36.453 33.693
1456.378 30.903 27.873 24.843 22.213 19.843 18.013 16.933 16.393 16.483 16.753
1475.668 16.973 17.143 17.153 16.783 16.073 15.213 14.033 12.603 11.283 10.223
1494.958 9.233 8.363 7.693 7.183 6.723 6.333 5.823 5.303 5.013 4.493
1514.248 4.023 3.833 3.623 3.313 2.923 2.653 2.613 2.543 2.363 2.263
1533.538 2.083 1.853 1.853 1.833 1.763 1.703 1.673 1.683 1.423 1.1888
1552.827 1.1411 1.253 1.433 1.583 1.423 1.333 1.523 1.643 1.603 1.613
1572.117 1.883 2.283 2.523 2.733 3.163 3.423 3.603 3.663 3.503 3.413
1591.407 3.273 2.953 2.613 2.403 2.183 2.043 1.963 1.793 1.643 1.563
1610.697 1.623 1.473 1.363 1.453 1.483 1.483 1.343 1.1506 1.1488 1.22
1629.986 1.1792 1.1845 1.1576 0.9881 0.9942 1.0908 0.9937 0.8544 0.9651 1.0442
1649.276 0.8919 0.8346 0.993 1.0769 1.0692 1.1135 1.1668 1.413 1.633 1.803
1668.566 1.883 1.983 2.153 2.143 2.243 2.443 2.253 1.923 1.863 1.693
1687.856 1.453 1.353 1.1567 0.9751 0.9327 0.934 0.9233 0.8592 0.9385 0.9489
1707.146 0.7698 0.8077 0.9503 0.8332 0.6045 0.5305 0.6801 0.7851 0.8328 0.9393
1726.435 1.0734 1.0932 1.0141 1.0592 1.1808 1.2132 1.1535 1.21 1.263 1.303
1745.725 1.383 1.393 1.493 1.593 1.713 1.843 1.943 2.043 2.113 2.073
1765.015 1.933 1.973 2.133 2.093 1.983 2.023 2.023 1.863 1.793 1.853
1784.305 1.883 1.983 2.113 2.303 2.593 2.993 3.323 3.633 3.973 4.193
1803.594 4.283 4.403 4.403 4.243 3.933 3.583 3.223 2.953 2.723 2.473
1822.884 2.253 1.963 1.753 1.753 1.823 1.723 1.613 1.543 1.463 1.303
1842.174 1.212 1.253 1.0809 1.0358 1.0547 1.081 1.1142 1.0271 1.0139 1.0723
1861.464 1.1334 1.1501 1.233 1.283 1.1878 1.1796 1.233 1.463 1.693 1.843
1880.754 2.093 2.233 2.323 2.543 2.793 2.993 3.073 3.193 3.343 3.393
1900.043 3.383 3.423 3.413 3.363 3.283 3.183 3.163 3.053 2.793 2.573
1919.333 2.503 2.413 2.153 1.983 1.883 1.693 1.603 1.543 1.563 1.733
1938.623 1.793 1.803 1.833 1.943 2.263 2.463 2.463 2.663 2.973 3.213
1957.913 3.313 3.443 3.583 3.633 3.743 3.833 3.903 3.803 3.703 3.793
1977.202 3.793 3.653 3.513 3.343 3.163 2.913 2.593 2.273 2.083 2.023
1996.492 1.863 1.853 1.803 1.693 1.653 1.533 1.583 1.683 1.603 1.543
2015.782 1.513 1.523 1.543 1.433 1.383 1.403 1.393 1.653 1.763 1.663
2035.072 1.883 2.123 2.043 1.983 2.123 2.353 2.443 2.483 2.693 2.833
2054.362 2.903 3.033 3.223 3.363 3.443 3.663 3.833 3.873 4.003 4.063
2073.651 4.013 4.053 4.103 4.143 4.263 4.273 4.233 4.353 4.373 4.273
2092.941 4.433 4.523 4.513 4.643 4.653 4.643 4.693 4.773 4.913 5.163
2112.231 5.303 5.363 5.493 5.473 5.383 5.553 5.773 5.953 6.073 6.223
2131.521 6.553 6.723 7.023 7.423 7.723 8.213 8.793 9.443 10.203 10.803
2150.810 11.433 12.253 13.243 14.373 15.523 16.823 18.273 19.973 21.763 23.813
2170.100 26.193 28.703 31.603 34.623 37.833 40.983 43.863 46.783 50.003 53.393
2189.390 56.823 60.643 65.093 70.343 76.523 83.603 91.963 101.643 113.083 126.343
2208.680 141.323 158.493 178.333 201.373 228.043 259.253 296.293 340.053 392.073 453.863
2227.970 526.433 610.773 705.153 806.953 911.833 1011.75 1095.1 1152.18 1177.56 1168.71
2247.259 1132.63 1073.32 990.203 880.563 750.523 614.323 488.723 385.003 305.723 248.043
2266.549 205.373 171.783 144.133 120.183 99.393 81.513 66.853 55.443 46.533 39.653
2285.839 34.263 30.123 26.763 24.223 22.203 20.403 19.083 18.083 17.223 16.653
2305.129 16.333 16.143 16.143 16.313 16.353 16.483 16.963 17.563 18.043 18.603
2324.418 19.263 19.833 20.503 21.123 21.573 21.993 22.333 22.493 22.483 22.373
2343.708 21.793 20.633 19.563 18.803 17.973 17.043 16.183 15.203 14.173 13.543
2362.998 12.913 12.163 11.623 11.093 10.403 9.723 9.093 8.543 8.033 7.383
2382.288 6.603 5.863 5.283 4.783 4.413 4.053 3.783 3.443 3.143 2.903
2401.578 2.643 2.483 2.323 2.093 1.953 1.973 1.913 1.763 1.773 1.743
2420.867 1.423 1.2008 1.323 1.483 1.433 1.343 1.2002 1.1164 1.1452 1.1911
2440.157 1.253 1.343 1.253 1.1977 1.293 1.273 1.323 1.373 1.263 1.263
2459.447 1.433 1.413 1.1732 1.1778 1.253 1.191 1.1035 1.1103 1.1198 1.2159
2478.737 1.403 1.563 1.563 1.403 1.393 1.573 1.703 1.663 1.493 1.373
2498.026 1.393 1.363 1.413 1.393 1.303 1.333 1.483 1.463 1.423 1.603
2517.316 1.563 1.483 1.623 1.583 1.383 1.303 1.403 1.383 1.333 1.313
2536.606 1.1862 1.273 1.273 1.162 1.283 1.453 1.573 1.663 1.783 1.853
2555.896 1.803 1.933 2.133 2.283 2.343 2.353 2.363 2.423 2.533 2.503
2575.186 2.613 2.793 2.633 2.403 2.223 2.183 2.173 2.153 2.163 2.263
2594.475 2.093 1.753 1.613 1.683 1.713 1.473 1.313 1.343 1.503 1.353
2613.765 1.333 1.593 1.483 1.333 1.293 1.243 1.243 1.2099 1.263 1.1996
2633.055 1.283 1.343 1.303 1.353 1.403 1.423 1.333 1.253 1.373 1.363
2652.345 1.393 1.683 1.673 1.473 1.573 1.803 1.913 2.083 2.253 2.223
2671.634 2.373 2.563 2.513 2.443 2.543 2.623 2.613 2.603 2.423 2.533
2690.924 2.673 2.543 2.563 2.543 2.393 2.463 2.513 2.473 2.433 2.353
2710.214 2.333 2.443 2.533 2.523 2.513 2.283 2.203 2.293 2.233 2.143
2729.504 1.823 1.763 1.883 1.853 1.843 1.993 2.133 2.093 2.013 1.883
2748.794 1.653 1.513 1.713 1.523 1.393 1.463 1.363 1.463 1.583 1.683
2768.083 1.673 1.333 1.0786 0.9756 0.9572 1.0945 1.273 1.323 1.453 1.503
2787.373 1.333 1.293 1.0366 0.7646 0.7695 0.9109 0.8956 0.9741 1.1319 1.0137
2806.663 0.8786 0.9283 1.0233 0.9216 0.8264 0.8522 0.9716 1.0589 1.0277 1.1104
2825.953 0.9717 0.6919 0.8289 1.0413 1.1596 1.0116 0.9507 1.0533 1.1545 1.0959
2845.242 0.8919 0.9379 1.0119 0.9214 0.7962 0.9579 1.0249 0.8819 0.8594 0.9155
2864.532 0.8401 0.8177 1.0415 1.1845 1.147 1.1245 1.233 1.383 1.463 1.413
2883.822 1.273 1.1377 1.1149 1.373 1.693 1.683 1.463 1.423 1.423 1.513
2903.112 1.513 1.543 1.463 1.243 1.453 1.453 1.523 1.873 1.863 1.813
2922.401 1.933 1.963 2.163 2.353 2.403 2.553 2.623 2.563 2.523 2.673
2941.691 2.933 3.133 3.313 3.433 3.603 3.593 3.653 3.893 3.813 3.703
2960.981 3.623 3.323 3.373 3.753 3.963 3.733 3.603 3.853 3.923 3.743
2980.271 3.533 3.803 4.053 3.783 3.283 3.203 3.133 2.843 2.663 2.683
2999.561 2.673 2.693 2.643 2.413 2.343 2.323 2.473 2.533 2.533 2.543
3018.850 2.503 2.623 2.663 2.693 2.563 2.523 2.623 2.813 3.053 2.903
3038.140 2.983 3.123 2.883 2.753 2.983 3.413 3.713 4.003 4.483 5.163
3057.430 6.113 7.313 8.913 10.423 11.643 13.713 16.393 19.033 21.273 22.713
3076.720 23.313 23.123 22.323 20.803 18.973 16.693 13.753 10.893 8.843 7.723
3096.009 6.683 5.823 5.343 4.903 4.443 3.693 3.133 2.783 2.693 2.453
3115.299 1.923 1.723 1.793 1.633 1.243 1.0068 1.1046 1.373 1.323 1.187
3134.589 1.1199 0.9206 0.9129 1.0122 0.8391 0.7577 0.6411 0.6258 1.0319 1.1407
3153.879 0.801 0.6823 0.8398 1.0971 1.293 1.0904 1.0384 1.0809 1.1061 1.343
3173.169 1.323 1.513 1.573 1.1207 0.951 1.0325 0.912 0.8783 0.9449 0.8826
3192.458 1.0106 1.0773 0.9114 0.8071 0.8541 0.4169 0.2348 0.5095 0.5556 0.4575
3211.748 0.467 0.6557 0.6399 0.6495 0.7115 0.5888 0.4983 0.4327 0.3535 0.4136
3231.038 0.5185 0.8003 0.7429 0.6248 0.6989 0.30593 0.28208 0.5406 0.6396 0.5834
3250.328 0.5852 0.7558 0.6483 0.485 0.4594 0.4146 0.7171 0.6374 0.3674 0.654
3269.617 0.5253 0.4231 0.3636 0.21796 0.30486 0.3377 0.4252 0.3759 0.1916 0.23852
3288.907 0.3768 0.31198 0.31434 0.3995 0.1469 0.224338 0.4598 0.4127 0.4623 0.5928
3308.197 0.7237 0.6534 0.3993 0.4331 0.4934 0.3322 0.5302 0.8999 0.9492 0.705
3327.487 0.5395 0.4568 0.5927 0.7311 0.6402 0.6303 0.7917 0.8197 0.8218 0.8688
3346.777 0.7317 0.4695 0.4756 0.6583 0.8999 1.0723 1.1204 1.1574 1.0779 0.7338
3366.066 0.28393 0.457 0.4422 0.31577 0.32281 0.1903 0.1514 0.3735 0.3933 0.3261
3385.356 0.5865 0.7051 0.8017 0.7968 0.8215 0.978 0.8361 0.8891 1.0866 0.9326
3404.646 0.9009 0.7798 0.8379 1.1458 1.0491 0.6949 0.6525 0.8114 0.9617 1.323
3423.936 1.283 1.263 1.1611 0.97 1.1144 0.9206 0.7751 1.0439 1.1472 1.2091
3443.225 1.353 1.423 1.383 1.1296 1.1164 1.243 1.243 1.2181 1.463 1.503
3462.515 1.2209 1.263 1.463 1.393 1.433 1.563 1.483 1.583 1.683 1.613
3481.805 1.603 1.893 1.943 1.693 1.513 1.633 1.823 1.813 1.803 1.573
3501.095 1.953 2.273 2.103 2.103 1.993 2.263 2.573 2.463 2.583 2.723
3520.385 2.923 3.193 3.303 3.443 3.433 3.473 3.733 3.893 3.993 4.273
3539.674 4.563 4.633 4.833 5.203 5.153 5.363 6.103 6.633 6.883 7.193
3558.964 7.613 7.673 8.053 9.033 9.893 10.353 10.573 11.283 11.973 12.213
3578.254 12.653 13.073 12.883 12.833 13.073 12.433 11.673 11.303 10.353 9.673
3597.544 9.083 7.963 7.313 7.033 6.313 5.443 4.983 4.413 3.983 3.883
3616.833 3.783 3.463 3.143 3.313 2.773 2.103 2.363 2.533 2.343 2.193
3636.123 2.023 1.933 1.963 1.803 2.023 2.073 1.843 1.823 1.573 1.443
3655.413 1.593 1.793 1.983 2.123 1.813 1.463 1.563 1.753 2.043 2.163
3674.703 1.983 2.133 2.263 2.253 2.513 2.513 2.523 2.423 2.363 2.393
3693.993 2.283 2.283 2.193 2.393 2.713 2.793 2.373 2.043 2.123 2.043
3713.282 2.033 2.213 2.093 1.703 1.553 1.803 2.173 2.203 1.913 1.873
3732.572 2.093 1.973 1.363 1.603 1.703 0.8897 0.6371 0.6604 0.7359 1.0068
3751.862 1.283 1.523 1.393 1.0341 0.7401 0.7621 1.0596 1.2075 0.9452 0.7584
3771.152 0.8413 1.0552 1.116 0.9318 0.9582 1.03 0.8968 0.7235 0.624 0.7288
3790.441 0.6202 0.4739 0.5734 0.9334 1.233 0.9244 0.6656 0.6364 0.752 0.7751
3809.731 0.4771 0.28445 0.1946 0.28393 0.7753 0.8027 0.5493 0.6842 0.6866 0.6208
3829.021 0.6885 0.4391 0.29808 0.6657 0.8334 0.9544 0.735 0.4415 0.5643 0.5002
3848.311 0.5293 0.4298 0.25581 0.27513 0.1612 0 0.1835 0.4707 0.4733 0.4654
3867.601 0.7414 0.6445 0.5856 0.6211 0.4809 0.6 0.7195 0.5564 0.5199 0.6963
3886.890 0.6606 0.4587 0.4973 0.4513 0.5092 0.6655 0.3463 0.3301 0.7024 0.6875
3906.180 0.6953 0.5882 0.3877 0.378 0.4648 0.6383 0.28126 0.26984 0.6772 0.7669
3925.470 0.4415 0.3357 0.4703 0.3709 0.5771 0.6362 0.659 0.7331 0.7401 0.8486
3944.760 0.7301 0.3808 0.3288 0.6272 0.9408 0.9858 0.7375 0.6747 0.5992 0.556
3964.049 0.4943 0.198 0.6873 1.1285 0.8864 0.7205 0.6846 0.907 0.738 0.5017
3983.339 0.4744 0.4939 0.7157 0.5686 0.3889 0.3333 0.4384 0.8847 0.6799 0.6619
##END=
