##TITLE=1-Chloro-3,3-dimethylbutane
##JCAMP-DX=4.24
##DATA TYPE=INFRARED SPECTRUM
##ORIGIN=NIST Mass Spectrometry Data Center
##OWNER=NIST Standard Reference Data Program
Collection (C) 2018 copyright by the U.S. Secretary of Commerce
on behalf of the United States of America. All rights reserved.
##CAS REGISTRY NO=2855-08-5
##MOLFORM=C 6 H 13 Cl
##$NIST SOURCE=MSDC-IR
##SPECTROMETER/DATA SYSTEM=HP-GC/MS/IRD
##STATE=gas
##XUNITS=1/CM
##YUNITS=ABSORBANCE
##XFACTOR=1.0
##YFACTOR=0.000003500
##DELTAX=4.0
##FIRSTX=550.0
##LASTX=3846.0
##FIRSTY=0.000063
##MAXX=3846
##MINX=550
##MAXY=0.035
##MINY=0
##NPOINTS=825
##XYDATA=(X++(Y..Y))
550.0 18 1 21 32 37 53 22 0 28 52
590.0 49 67 82 61 56 66 74 79 97 106
630.0 119 159 200 260 333 402 462 493 514 512
670.0 467 415 359 319 322 361 427 502 587 707
710.0 859 1007 1109 1150 1108 953 708 488 408 462
750.0 602 778 927 997 1010 953 754 490 307 214
790.0 178 166 152 131 129 133 127 112 115 121
830.0 124 140 142 146 166 179 193 217 248 267
870.0 269 265 258 234 198 176 163 160 166 157
910.0 148 141 135 129 116 113 114 112 111 105
950.0 103 106 102 88 85 94 91 90 92 94
990.0 97 102 114 130 145 155 156 142 128 121
1030.0 116 111 104 109 115 105 96 92 86 71
1070.0 55 47 40 33 37 42 40 38 38 38
1110.0 33 41 52 54 52 71 74 64 81 86
1150.0 87 102 110 123 137 145 163 183 209 239
1190.0 266 289 307 327 354 384 413 443 473 522
1230.0 590 667 734 793 832 838 834 825 807 779
1270.0 750 682 585 490 419 367 334 328 337 354
1310.0 378 403 419 443 483 554 654 755 832 901
1350.0 950 979 1034 1162 1320 1424 1420 1298 1100 903
1390.0 754 649 564 502 452 378 291 243 243 264
1430.0 296 354 432 520 626 744 870 1003 1126 1241
1470.0 1323 1353 1311 1192 1033 843 647 476 334 239
1510.0 181 147 123 105 93 82 76 80 72 62
1550.0 53 54 59 53 51 47 47 48 46 48
1590.0 49 45 41 41 39 39 43 41 32 30
1630.0 33 35 35 29 28 31 35 31 31 35
1670.0 38 40 37 39 37 33 39 45 41 40
1710.0 40 38 37 38 34 29 29 30 29 20
1750.0 18 21 22 25 24 25 28 26 20 20
1790.0 23 22 26 22 18 21 26 28 28 27
1830.0 25 22 13 12 15 13 16 18 16 18
1870.0 16 13 14 19 20 20 20 21 18 15
1910.0 17 16 17 20 21 16 17 18 17 17
1950.0 18 13 10 10 14 18 17 16 17 9
1990.0 12 15 15 17 14 16 21 20 16 15
2030.0 16 14 12 15 16 14 16 18 19 22
2070.0 21 26 27 23 21 21 24 20 20 21
2110.0 14 12 12 11 6 6 6 5 8 7
2150.0 4 8 7 2 2 5 3 0 4 7
2190.0 5 4 5 1 2 4 2 8 12 7
2230.0 5 1 4 8 4 5 5 4 8 7
2270.0 11 16 19 20 19 21 21 20 17 13
2310.0 14 15 11 13 13 13 15 17 17 20
2350.0 22 18 24 29 28 26 23 19 21 26
2390.0 26 27 30 30 27 23 22 28 30 26
2430.0 20 16 19 19 20 22 18 13 16 13
2470.0 13 14 14 19 19 17 15 14 15 22
2510.0 24 24 27 30 32 30 27 25 27 32
2550.0 33 33 35 30 31 34 36 33 30 36
2590.0 35 35 40 41 39 40 42 42 48 52
2630.0 51 52 53 52 55 55 58 58 53 65
2670.0 68 67 71 74 78 85 89 94 102 109
2710.0 116 129 139 144 151 145 139 138 141 141
2750.0 139 139 142 145 151 153 141 141 146 152
2790.0 159 170 188 206 228 247 270 301 327 352
2830.0 387 429 484 554 639 756 910 1130 1415 1746
2870.0 2083 2362 2571 2693 2731 2727 2703 2695 2711 2760
2910.0 2838 2929 3064 3250 3470 3746 4084 4493 5013 5716
2950.0 6679 7919 9205 9993 10000 9348 7988 6103 4354 3131
2990.0 2335 1804 1446 1205 1035 896 766 650 541 447
3030.0 368 305 267 249 232 211 195 181 177 183
3070.0 180 174 178 173 162 154 148 146 147 140
3110.0 135 128 111 114 124 121 118 122 125 126
3150.0 124 120 117 121 122 116 120 124 127 128
3190.0 127 126 130 144 142 131 137 130 113 108
3230.0 104 98 95 92 91 84 73 75 71 59
3270.0 56 55 59 66 66 70 68 62 65 56
3310.0 53 53 49 45 33 42 45 37 40 42
3350.0 44 53 55 50 47 47 53 55 60 61
3390.0 51 62 60 43 44 35 28 31 39 32
3430.0 30 41 33 27 37 34 29 27 25 22
3470.0 24 23 21 17 16 17 22 27 24 16
3510.0 10 12 18 14 19 11 10 16 9 6
3550.0 1 14 24 20 17 9 7 17 11 4
3590.0 6 6 13 23 23 7 3 12 16 20
3630.0 16 28 34 14 10 15 14 17 21 23
3670.0 21 24 30 32 30 26 26 30 36 36
3710.0 25 18 23 24 15 14 18 30 33 24
3750.0 30 25 15 18 23 17 18 36 37 25
3790.0 24 21 28 37 32 28 36 31 29 36
3830.0 43 45 39 33 28
##END=
