##TITLE=2,6-Dimethylphenylisocyanate
##JCAMP-DX=4.24
##DATA TYPE=INFRARED SPECTRUM
##ORIGIN=EPA-IR VAPOR PHASE LIBRARY
##OWNER=SRD/NIST
Collection (C) 2018 copyright by the U.S. Secretary of Commerce
on behalf of the United States of America. All rights reserved.
##CAS REGISTRY NO=28556-81-2
##MOLFORM=C 9 H 9 N O
##$NIST SOURCE=MSDC-IR
##STATE=gas
##XUNITS=1/CM
##YUNITS=ABSORBANCE
##XFACTOR=1.
##YFACTOR=0.001
##DELTAX=1.92898
##FIRSTX=549.8
##LASTX=4000.7
##FIRSTY=4.484
##MAXX=4000.7
##MINX=549.759
##MAXY=0.710364
##MINY=0
##NPOINTS=1790
##XYDATA=(X++(Y..Y))
549.759 4.484 4.734 5.054 5.044 5.204 6.274 7.234 8.014 9.354 10.974
569.049 12.154 13.304 14.324 15.044 15.544 15.744 15.914 16.144 16.654 16.814
588.339 16.314 15.524 14.934 14.454 13.754 13.194 12.574 11.714 10.914 9.934
607.628 9.024 8.424 7.964 7.504 7.074 6.714 6.214 6.014 5.914 5.624
626.918 5.704 5.834 5.784 5.644 5.474 5.414 5.384 5.624 5.844 5.834
646.208 5.704 5.714 5.754 5.614 5.424 5.354 5.144 4.894 4.724 4.374
665.498 4.184 4.014 3.554 3.284 3.044 2.924 3.044 3.054 2.874 2.944
684.787 3.024 2.874 2.934 2.924 2.824 2.854 2.704 2.544 2.554 2.644
704.077 2.944 3.264 3.514 4.094 4.894 5.414 5.984 6.664 7.454 8.984
723.367 10.564 10.824 9.434 7.984 7.544 7.454 7.124 6.924 6.924 7.104
742.657 7.754 9.094 11.354 14.234 17.784 21.734 25.574 29.184 33.054 38.494
761.947 46.004 54.814 57.194 47.904 38.314 34.534 32.544 30.214 27.024 23.374
781.236 19.594 16.004 13.024 10.874 9.024 7.604 6.564 5.514 4.754 4.084
800.526 3.454 3.054 2.654 2.524 2.394 2.204 1.924 1.684 1.654 1.564
819.816 1.384 1.0913 0.991 0.9226 0.7952 0.728 0.7711 0.7573 0.5941 0.5361
839.106 0.4888 0.4655 0.4191 0.3311 0.3506 0.3081 0.315 0.3121 0.1765 0.1334
858.395 0.061 0.1282 0.318 0.1468 0.26146 0.4081 0.365 0.4348 0.3437 0.102
877.685 0 0.26687 0.4528 0.24641 0.1402 0.2494 0.25447 0.382 0.4573 0.4577
896.975 0.6282 0.8155 1.2038 1.624 2.054 2.544 2.964 3.354 3.654 3.904
916.265 3.944 3.924 3.954 3.864 3.584 3.204 2.704 2.244 1.984 1.804
935.555 1.564 1.514 1.504 1.414 1.434 1.474 1.604 1.634 1.634 1.584
954.844 1.564 1.574 1.724 2.014 2.114 2.124 2.014 2.184 2.484 2.394
974.134 2.374 2.634 2.664 2.604 2.764 2.784 2.614 2.684 2.684 2.604
993.424 2.654 2.444 2.384 2.394 2.314 2.274 2.174 2.304 2.614 2.664
1012.714 2.434 2.294 2.554 2.544 2.634 2.954 3.044 3.304 3.484 3.694
1032.003 4.264 4.534 4.764 5.274 5.654 5.904 6.344 7.044 7.734 8.804
1051.293 10.024 10.824 11.614 12.764 14.214 15.944 17.814 19.684 21.654 24.064
1070.583 26.384 28.034 28.894 29.314 29.254 28.514 27.244 25.214 22.424 19.524
1089.873 16.194 13.184 10.594 8.744 7.834 6.554 5.934 5.524 5.064 4.844
1109.163 5.324 6.184 6.334 6.734 7.534 8.194 8.684 9.194 9.624 9.644
1128.452 9.564 9.554 9.284 8.974 8.964 8.654 8.474 8.604 8.524 8.394
1147.742 8.534 8.664 8.654 8.514 8.314 8.104 7.744 7.184 6.704 6.364
1167.032 5.844 5.314 4.694 4.164 3.964 3.694 3.064 2.764 2.714 2.594
1186.322 2.454 2.244 2.074 2.164 2.074 1.684 1.444 1.614 1.884 1.654
1205.611 1.514 1.1993 1.0656 1.1686 1.0749 1.254 1.484 1.644 1.414 1.1581
1224.901 1.364 1.624 1.454 1.274 1.404 1.444 1.344 1.364 1.544 1.704
1244.191 2.014 2.264 2.504 2.974 3.324 3.494 3.514 3.644 3.664 3.454
1263.481 3.114 3.074 2.874 2.554 2.484 2.244 2.044 1.894 1.904 1.934
1282.771 1.874 1.814 1.724 1.674 1.634 1.634 1.584 1.544 1.474 1.414
1302.060 1.394 1.334 1.314 1.324 1.404 1.414 1.414 1.434 1.324 1.244
1321.350 1.264 1.344 1.364 1.304 1.294 1.324 1.364 1.324 1.344 1.364
1340.640 1.344 1.384 1.384 1.364 1.354 1.394 1.434 1.474 1.574 1.634
1359.930 1.664 1.774 1.884 2.024 2.194 2.424 2.784 3.254 3.724 4.184
1379.219 4.654 4.954 5.104 5.324 5.704 5.884 5.754 5.524 5.404 5.424
1398.509 5.584 5.904 6.364 6.974 7.644 8.324 8.954 9.414 9.794 10.094
1417.799 10.234 10.174 10.024 9.824 9.604 9.544 9.584 9.814 10.184 10.644
1437.089 11.214 11.794 12.464 13.204 14.014 14.774 15.464 15.974 16.204 16.364
1456.378 16.624 17.024 17.494 18.114 18.794 19.634 20.744 21.834 22.814 23.614
1475.668 24.194 24.864 25.794 26.944 28.154 29.194 30.094 31.104 32.264 33.554
1494.958 34.924 36.304 37.524 38.434 38.884 38.674 37.794 36.254 34.214 31.744
1514.248 28.994 26.054 22.994 20.094 17.514 15.364 13.634 12.284 11.144 10.164
1533.538 9.414 8.734 8.134 7.594 7.034 6.604 6.174 5.774 5.484 5.194
1552.827 4.984 4.754 4.494 4.424 4.314 4.174 4.154 4.254 4.314 4.384
1572.117 4.604 4.964 5.504 6.104 6.754 7.474 8.394 9.444 10.304 11.124
1591.407 11.834 12.324 12.614 12.504 12.044 11.364 10.504 9.494 8.434 7.294
1610.697 6.284 5.434 4.654 4.074 3.614 3.234 3.014 2.814 2.704 2.694
1629.986 2.604 2.524 2.584 2.704 2.754 2.794 2.824 2.864 2.924 2.904
1649.276 2.794 2.754 2.744 2.654 2.464 2.244 2.024 1.844 1.564 1.324
1668.566 1.294 1.1881 1.0831 1.0491 0.9708 0.9896 1.0638 1.0855 1.0459 0.904
1687.856 0.8201 0.8036 0.7806 0.7769 0.7907 0.8287 0.8411 0.7884 0.6891 0.6853
1707.146 0.8038 0.8634 0.8952 0.9733 0.9787 0.988 1.1225 1.1618 1.0874 1.0766
1726.435 1.1259 1.1253 1.0403 0.9782 0.9413 0.9101 0.8337 0.7431 0.7764 0.8018
1745.725 0.7489 0.7227 0.7189 0.735 0.8483 0.9616 1.0204 1.1622 1.294 1.384
1765.015 1.554 1.684 1.734 1.824 1.834 1.794 1.714 1.524 1.354 1.224
1784.305 1.0753 0.9413 0.7821 0.6862 0.7328 0.7468 0.7098 0.7144 0.7228 0.7463
1803.594 0.7591 0.7495 0.7284 0.6725 0.6941 0.7205 0.716 0.7815 0.8486 0.9037
1822.884 0.9847 1.0592 1.1259 1.214 1.314 1.454 1.614 1.794 1.914 2.044
1842.174 2.164 2.194 2.174 2.054 1.984 1.944 1.884 1.734 1.484 1.294
1861.464 1.161 1.0249 0.8981 0.8252 0.7906 0.7 0.6079 0.5871 0.587 0.5311
1880.754 0.5555 0.5833 0.546 0.5952 0.6072 0.6173 0.6443 0.6637 0.7009 0.8279
1900.043 0.9991 1.1772 1.374 1.574 1.814 2.054 2.314 2.584 2.844 2.994
1919.333 3.084 3.024 2.884 2.814 2.694 2.444 2.154 1.874 1.564 1.274
1938.623 1.069 0.9105 0.8278 0.8107 0.8179 0.8235 0.8389 0.7923 0.6885 0.6788
1957.913 0.715 0.6723 0.6542 0.6372 0.6131 0.6414 0.6864 0.6855 0.697 0.7441
1977.202 0.7088 0.6862 0.7098 0.7949 0.8526 0.842 0.8596 0.9258 0.9429 0.9307
1996.492 0.9524 0.9575 1.0249 1.0743 1.0643 1.0372 1.0045 1.0391 1.0318 1.0111
2015.782 1.0406 1.0614 1.0753 1.1089 1.1118 1.1393 1.234 1.264 1.304 1.394
2035.072 1.404 1.454 1.534 1.604 1.704 1.834 1.914 1.974 2.084 2.214
2054.362 2.374 2.484 2.554 2.704 2.834 2.914 3.034 3.114 3.214 3.274
2073.651 3.314 3.354 3.424 3.514 3.494 3.504 3.544 3.634 3.724 3.744
2092.941 3.814 3.924 4.024 4.134 4.224 4.364 4.564 4.764 4.864 4.964
2112.231 5.114 5.274 5.494 5.724 6.004 6.274 6.554 6.854 7.224 7.734
2131.521 8.174 8.594 9.174 9.834 10.554 11.314 12.184 13.144 14.204 15.334
2150.810 16.514 17.814 19.094 20.324 21.484 22.624 23.714 24.674 25.444 26.044
2170.100 26.614 27.044 27.344 27.614 27.864 28.044 28.324 28.794 29.184 29.484
2189.390 29.994 30.604 31.274 31.964 32.644 33.484 34.534 35.764 37.114 38.674
2208.680 40.404 42.354 44.634 47.134 49.714 52.464 55.364 58.384 61.464 64.654
2227.970 68.024 71.534 75.304 79.604 84.444 89.934 96.304 103.774 112.664 123.184
2247.259 135.484 149.684 166.084 185.364 207.564 232.794 261.744 294.424 330.954 371.364
2266.549 415.284 461.714 509.324 556.334 600.484 639.154 669.944 692.054 705.764 710.364
2285.839 706.394 694.864 675.864 649.954 618.774 584.784 549.824 514.534 479.244 443.834
2305.129 407.644 371.054 334.674 299.054 265.154 233.814 205.504 180.254 157.974 138.554
2324.418 121.744 107.214 94.564 83.594 74.134 66.074 59.314 53.664 48.894 44.784
2343.708 41.424 38.904 37.024 35.624 34.814 34.644 35.054 35.824 37.074 38.784
2362.998 40.694 42.834 45.044 47.114 49.024 50.564 51.684 52.394 52.584 52.194
2382.288 51.234 49.764 47.744 45.374 42.774 39.924 36.934 33.954 31.024 28.094
2401.578 25.384 22.914 20.674 18.644 16.774 15.044 13.484 12.144 10.994 9.964
2420.867 9.054 8.324 7.694 7.204 6.714 6.274 5.954 5.674 5.504 5.314
2440.157 5.134 5.014 4.884 4.744 4.584 4.474 4.364 4.204 4.074 3.874
2459.447 3.654 3.504 3.354 3.214 3.094 2.974 2.864 2.744 2.634 2.514
2478.737 2.384 2.284 2.234 2.124 1.924 1.854 1.774 1.644 1.544 1.444
2498.026 1.444 1.444 1.424 1.504 1.524 1.454 1.474 1.454 1.374 1.384
2517.316 1.384 1.324 1.324 1.294 1.294 1.294 1.274 1.374 1.364 1.354
2536.606 1.414 1.384 1.444 1.454 1.474 1.604 1.644 1.664 1.714 1.644
2555.896 1.694 1.734 1.664 1.724 1.824 1.754 1.714 1.704 1.644 1.674
2575.186 1.624 1.554 1.584 1.534 1.424 1.414 1.454 1.444 1.404 1.314
2594.475 1.1661 1.117 1.1386 1.128 1.1065 1.0587 1.0068 0.9484 0.9136 0.8962
2613.765 0.9229 0.897 0.8631 0.8569 0.8562 0.945 0.898 0.8154 0.8663 0.8959
2633.055 0.927 0.9699 1.0624 1.0592 0.9545 0.9602 1.0129 0.9734 0.9299 0.9782
2652.345 1.0115 0.9963 0.9255 0.8362 0.8302 0.8221 0.7988 0.7751 0.7692 0.9114
2671.634 0.9143 0.8044 0.8796 0.9698 0.9334 0.8327 0.8294 0.8448 0.8698 0.9326
2690.924 1.0137 1.0442 1.0337 1.0576 1.0017 1.0037 1.1044 1.1917 1.274 1.334
2710.214 1.374 1.404 1.424 1.544 1.634 1.724 1.934 2.064 2.134 2.254
2729.504 2.324 2.424 2.534 2.614 2.694 2.824 2.924 2.944 2.874 2.794
2748.794 2.684 2.584 2.484 2.294 2.134 1.924 1.674 1.504 1.364 1.284
2768.083 1.264 1.1827 1.1412 1.1162 1.1376 1.1142 1.0131 0.9426 0.9855 0.9811
2787.373 0.9775 1.0903 1.1043 1.1672 1.224 1.264 1.284 1.274 1.324 1.534
2806.663 1.704 1.624 1.664 1.844 1.984 2.084 2.134 2.234 2.294 2.374
2825.953 2.524 2.694 2.864 2.984 3.034 3.174 3.274 3.364 3.584 3.734
2845.242 4.004 4.464 4.754 5.084 5.484 5.784 6.234 6.834 7.514 8.134
2864.532 8.664 9.204 9.764 10.264 10.614 10.894 11.174 11.264 11.094 11.034
2883.822 10.864 10.544 10.344 10.034 9.924 9.824 9.714 9.864 9.974 10.194
2903.112 10.524 10.884 11.344 11.924 12.604 13.414 14.414 15.654 17.144 18.644
2922.401 20.244 21.954 23.654 25.214 26.624 27.624 28.084 28.304 28.174 27.794
2941.691 27.154 26.164 24.994 23.774 22.724 21.984 21.344 20.834 20.574 20.314
2960.981 19.904 19.374 18.714 18.294 18.024 17.884 18.084 18.374 18.604 18.904
2980.271 19.424 19.704 19.594 19.384 19.014 18.304 17.464 16.504 15.324 14.084
2999.561 12.814 11.594 10.594 9.874 9.384 9.044 8.904 8.994 9.284 9.634
3018.850 10.184 10.854 11.584 12.404 13.224 13.944 14.504 15.124 15.714 16.204
3038.140 16.714 17.304 17.904 18.504 19.094 19.744 20.444 21.174 21.954 22.554
3057.430 22.954 23.234 23.294 23.144 22.804 22.134 21.274 20.354 19.284 18.194
3076.720 17.174 16.274 15.324 14.344 13.474 12.524 11.564 10.554 9.504 8.454
3096.009 7.504 6.654 5.824 5.074 4.624 4.224 3.714 3.504 3.214 2.854
3115.299 2.634 2.394 2.294 2.184 2.034 1.924 1.774 1.614 1.494 1.294
3134.589 1.224 1.264 1.244 1.073 0.9795 0.9965 1.065 1.137 1.0637 0.9972
3153.879 0.969 0.901 0.8017 0.824 0.8916 0.8958 0.9082 0.8797 0.87 0.8935
3173.169 0.7672 0.6523 0.6767 0.6709 0.5626 0.553 0.5705 0.5251 0.5114 0.4382
3192.458 0.405 0.4204 0.4678 0.4075 0.22214 0.1813 0.2165 0.1561 0.08 0.092
3211.748 0.1483 0.1272 0.096 0.1567 0.1573 0.2292 0.24824 0.19692 0.1202 0.1207
3231.038 0.1626 0.148 0.1531 0.1463 0.21736 0.27504 0.155 0.002 0.05 0.212361
3250.328 0.27152 0.2515 0.1689 0.102 0.21712 0.23551 0.1351 0.092 0.166 0.19832
3269.617 0.1096 0.1513 0.2589 0.3141 0.19438 0.1324 0.1645 0.19944 0.29682 0.27522
3288.907 0.23511 0.25555 0.29921 0.4195 0.4714 0.4173 0.4003 0.4178 0.4013 0.4159
3308.197 0.3892 0.3105 0.3554 0.3612 0.5373 0.7022 0.697 0.777 0.8989 0.865
3327.487 0.8904 1.1063 1.1857 1.106 1.0638 1.1056 1.284 1.404 1.374 1.514
3346.777 1.724 1.844 1.854 1.954 2.084 2.034 2.044 2.094 2.124 2.214
3366.066 2.194 2.144 2.144 2.074 1.994 2.074 2.214 2.134 2.004 1.924
3385.356 1.974 1.964 1.844 1.764 1.754 1.884 1.954 1.944 1.914 2.034
3404.646 2.204 2.364 2.494 2.564 2.654 2.794 2.954 3.064 2.954 2.844
3423.936 2.934 3.084 3.034 2.824 2.644 2.434 2.254 2.154 2.194 2.064
3443.225 1.694 1.474 1.344 1.344 1.374 1.101 1.0394 1.101 0.9915 0.9008
3462.515 0.7877 0.7272 0.7186 0.7167 0.7938 0.6803 0.4411 0.4951 0.5855 0.4886
3481.805 0.418 0.447 0.4037 0.3909 0.3253 0.3418 0.3388 0.29405 0.413 0.5307
3501.095 0.5601 0.4896 0.6054 0.6189 0.4156 0.3856 0.5979 0.8443 0.803 0.8165
3520.385 0.8642 0.8723 0.9196 0.9187 0.7813 0.6667 0.7855 0.8032 0.9481 1.042
3539.674 0.9122 0.8545 0.7946 0.7848 0.7852 0.7333 0.7152 0.586 0.5753 0.706
3558.964 0.7648 0.834 0.7957 0.8015 0.8598 0.8174 0.6454 0.5852 0.6631 0.5565
3578.254 0.5137 0.4696 0.5947 0.7546 0.652 0.6552 0.7707 0.8443 0.9235 0.9407
3597.544 0.7721 0.9171 1.1036 1.0352 0.9935 0.9708 0.9681 1.0556 1.1616 1.1117
3616.833 1.1921 1.1848 1.1666 1.264 1.224 1.234 1.374 1.434 1.464 1.594
3636.123 1.604 1.604 1.714 1.824 1.854 1.834 1.904 1.964 2.034 2.314
3655.413 2.504 2.364 2.244 2.474 2.604 2.744 2.944 3.024 3.124 3.114
3674.703 3.154 3.304 3.344 3.274 3.164 3.174 3.324 3.404 3.454 3.214
3693.993 3.154 3.304 3.124 3.114 3.184 2.904 2.674 2.604 2.554 2.524
3713.282 2.384 2.254 2.274 2.294 2.274 2.214 2.054 1.944 1.954 2.034
3732.572 2.074 2.114 2.084 2.034 2.084 2.114 2.024 2.074 2.144 2.214
3751.862 2.324 2.244 2.154 2.114 2.224 2.344 2.504 2.484 2.434 2.494
3771.152 2.474 2.584 2.514 2.724 2.904 2.784 2.744 2.664 2.654 2.674
3790.441 2.664 2.614 2.574 2.504 2.464 2.384 2.314 2.234 2.164 2.094
3809.731 2.104 2.024 1.894 1.904 1.784 1.554 1.394 1.414 1.454 1.424
3829.021 1.384 1.424 1.424 1.314 1.274 1.274 1.284 1.2026 1.1709 1.244
3848.311 1.1574 1.053 1.1032 1.0555 0.8515 0.8258 0.9568 1.017 1.0963 1.0656
3867.601 0.9162 0.9085 1.0521 1.049 0.9448 0.8674 0.797 0.7357 0.6499 0.625
3886.890 0.5498 0.5261 0.4727 0.4057 0.532 0.6091 0.7162 0.8305 0.7633 0.6197
3906.180 0.4553 0.4562 0.4873 0.4443 0.4679 0.3957 0.28805 0.3757 0.4601 0.3363
3925.470 0.30274 0.25753 0.3174 0.28943 0.22284 0.30233 0.19844 0.3572 0.5547 0.4286
3944.760 0.3399 0.4379 0.4168 0.3627 0.4814 0.5016 0.5493 0.5488 0.3825 0.3348
3964.049 0.27212 0.2242 0.29329 0.25184 0.1905 0.25132 0.4021 0.4385 0.3337 0.1853
3983.339 0.09 0.26839 0.3667 0.3595 0.28875 0.3062 0.3425 0.24473 0.1656 0.22737
##END=
