##TITLE=Bromotrimethylsilane
##JCAMP-DX=4.24
##DATA TYPE=INFRARED SPECTRUM
##ORIGIN=EPA-IR VAPOR PHASE LIBRARY
##OWNER=SRD/NIST
Collection (C) 2018 copyright by the U.S. Secretary of Commerce
on behalf of the United States of America. All rights reserved.
##CAS REGISTRY NO=2857-97-8
##MOLFORM=C 3 H 9 Br Si
##$NIST SOURCE=MSDC-IR
##STATE=gas
##XUNITS=1/CM
##YUNITS=ABSORBANCE
##XFACTOR=1.
##YFACTOR=0.001
##DELTAX=3.85796
##FIRSTX=501.5
##LASTX=4000.7
##FIRSTY=1.4339
##MAXX=4000.7
##MINX=501.534
##MAXY=0.600614
##MINY=0
##NPOINTS=908
##XYDATA=(X++(Y..Y))
501.534 1.4339 1.6539 2.1939 2.6239 2.9039 2.9539 2.8539 2.6939 2.5639 2.5239
540.114 2.4139 2.1839 2.0939 2.1639 2.1939 2.1239 2.1539 2.4939 2.8839 3.4239
578.693 3.9739 4.4339 5.1239 5.7839 6.6039 8.2239 11.4739 17.4939 27.9739 43.6939
617.273 61.6039 76.7239 86.9539 89.8239 85.1039 77.7239 63.5839 42.8539 27.2439 18.4939
655.852 13.7839 11.4039 10.6139 10.9339 12.2139 14.4639 17.6339 21.6739 26.5339 32.1039
694.432 38.0839 43.9539 48.8639 52.3539 54.2639 54.3639 52.5939 49.4739 45.7439 42.2739
733.011 39.9739 39.4939 41.7739 46.8839 54.3239 63.4039 73.6439 83.0839 87.3639 86.2339
771.591 82.1139 75.2439 66.1239 56.8839 49.7239 45.6039 44.3239 45.7239 49.9839 57.8339
810.170 70.2739 88.6239 114.794 149.994 195.024 251.554 320.524 399.194 481.294 554.424
848.750 599.244 600.614 556.664 481.654 397.164 319.084 254.204 203.974 166.704 139.154
887.330 118.774 103.464 91.4739 81.4339 72.2739 63.7039 55.6739 48.2639 41.8539 36.3939
925.909 31.8839 28.3039 25.4839 23.4839 22.2339 21.8439 22.1639 22.7639 23.0139 22.4039
964.489 20.6939 17.9939 15.1039 12.5939 10.7339 9.6439 9.1339 9.0439 9.2239 9.6639
1003.068 10.3139 11.1239 12.0539 13.1339 14.4239 15.7639 17.0539 17.9039 17.2439 14.6839
1041.648 11.5539 9.4639 8.2639 7.5039 6.9239 6.2139 5.4739 5.0039 4.4839 4.0339
1080.227 3.8739 3.7039 3.5539 3.4839 3.3639 3.2139 3.2239 3.3539 3.4939 3.7339
1118.807 4.1739 4.6539 5.1439 5.6939 6.2539 7.2339 8.7639 10.5739 12.6539 14.6339
1157.387 15.7639 15.5139 14.0639 12.3239 11.0139 10.3239 10.2039 10.6439 11.3339 12.1139
1195.966 13.0939 14.9339 18.3039 22.9639 27.6539 30.3339 30.4639 30.3139 32.7439 40.0239
1234.546 53.4039 73.5339 99.4739 127.624 153.514 175.844 194.064 196.744 176.254 150.254
1273.125 123.854 93.6639 67.3239 46.6239 31.6139 23.2439 19.2839 17.5539 16.9739 16.9339
1311.705 16.9639 16.9039 16.6939 16.2639 15.5439 14.5739 13.3839 11.9539 10.5339 9.3039
1350.284 8.3839 7.8839 7.6539 7.5439 7.7039 8.2639 9.2339 10.5639 12.1739 14.0939
1388.864 16.4139 19.1139 22.1739 25.3039 27.9739 29.5039 29.1539 26.8339 23.3139 19.5439
1427.443 16.1339 13.3239 11.1239 9.6139 8.6939 8.1539 7.9339 7.8239 7.6339 7.3639
1466.023 6.9839 6.4539 5.8339 5.2039 4.5339 3.9339 3.4839 3.1639 2.9539 2.8639
1504.603 2.8039 2.7639 2.7839 2.7539 2.7039 2.6939 2.7039 2.6739 2.6339 2.5639
1543.182 2.4939 2.4239 2.3239 2.1839 2.0439 1.9739 1.8939 1.7939 1.6939 1.6139
1581.762 1.5139 1.3739 1.2239 1.1139 1.0275 0.9315 0.88 0.8627 0.873 0.8861
1620.341 0.9003 0.9157 0.9329 0.9332 0.9265 0.9203 0.8873 0.8454 0.7473 0.6304
1658.921 0.5308 0.4175 0.3231 0.1961 0.13083 0.13076 0.10123 0.11222 0.14654 0.11957
1697.500 0.08304 0.0941 0.11781 0.133 0.13163 0.11055 0.10266 0.08883 0.0495 0
1736.080 0.007 0.0317 0.0279 0.0244 0.0296 0.0227 0.0176 0.0494 0.05995 0.0251
1774.659 0.0275 0.08226 0.12682 0.136 0.13393 0.15214 0.15518 0.15206 0.16307 0.16232
1813.239 0.1691 0.15675 0.14948 0.1691 0.2129 0.261 0.3166 0.4096 0.4984 0.6588
1851.819 0.8895 1.1539 1.4839 1.8839 2.3339 2.8239 3.2639 3.5739 3.8039 3.8539
1890.398 3.6239 3.1939 2.7139 2.2539 1.8139 1.4939 1.3239 1.2539 1.2639 1.3539
1928.978 1.5139 1.7039 1.9339 2.2239 2.5039 2.7139 2.8839 2.9939 3.0439 3.0239
1967.557 2.9139 2.7439 2.5739 2.4139 2.2539 2.1139 2.0039 1.9239 1.9139 1.9839
2006.137 2.0939 2.2339 2.3439 2.4239 2.4939 2.4639 2.3939 2.2839 2.1139 1.9339
2044.716 1.7139 1.5039 1.3339 1.2139 1.0739 0.9934 0.9609 0.9549 0.997 1.0516
2083.296 1.1539 1.2539 1.3639 1.5139 1.6339 1.8239 2.0539 2.1939 2.3239 2.4439
2121.875 2.4839 2.4339 2.2839 2.0539 1.8539 1.6639 1.4639 1.2939 1.1839 1.0839
2160.455 0.988 0.9202 0.8451 0.8145 0.7919 0.7776 0.7846 0.7859 0.7872 0.7631
2199.035 0.7425 0.734 0.725 0.7105 0.6765 0.6714 0.6869 0.6705 0.6682 0.6698
2237.614 0.676 0.6997 0.7215 0.7437 0.7326 0.7073 0.7093 0.6938 0.6782 0.6577
2276.194 0.6352 0.6117 0.5686 0.5348 0.501 0.4749 0.4595 0.4017 0.3583 0.3649
2314.773 0.3508 0.2922 0.2353 0.2337 0.2356 0.2187 0.2216 0.2262 0.2326 0.215
2353.353 0.1972 0.2161 0.2344 0.242 0.2525 0.2756 0.2733 0.2478 0.2499 0.2513
2391.932 0.238 0.2082 0.2046 0.2029 0.1749 0.171 0.2045 0.188 0.1843 0.2006
2430.512 0.196 0.2178 0.2495 0.2402 0.2012 0.2028 0.2183 0.2554 0.2828 0.2945
2469.092 0.3464 0.401 0.4202 0.4687 0.551 0.6441 0.7302 0.7972 0.8342 0.8384
2507.671 0.8123 0.7475 0.6732 0.59 0.5094 0.4042 0.3304 0.289 0.2485 0.202
2546.251 0.14985 0.1465 0.14844 0.12426 0.10967 0.12162 0.15625 0.15479 0.15203 0.1916
2584.830 0.2178 0.211 0.2096 0.2191 0.2277 0.2052 0.1677 0.1994 0.2629 0.2523
2623.410 0.2672 0.314 0.345 0.403 0.4769 0.5561 0.5699 0.5898 0.6548 0.7112
2661.989 0.7327 0.7175 0.7259 0.7121 0.6845 0.6519 0.6389 0.6587 0.6181 0.6297
2700.569 0.6622 0.6768 0.7001 0.7552 0.833 0.9201 1.0481 1.2139 1.3739 1.5039
2739.148 1.6139 1.7539 1.8939 2.0139 2.1339 2.2439 2.3939 2.5839 2.8839 3.2739
2777.728 3.7539 4.2639 4.7939 5.3339 5.7939 6.1339 6.3539 6.3939 6.3239 6.2339
2816.308 6.1539 6.1339 6.1439 6.2439 6.4239 6.6339 6.8939 7.2339 7.5939 7.8639
2854.887 8.1339 8.4039 8.7139 9.0639 9.4839 10.1639 11.2339 12.8239 15.2439 18.5739
2893.467 22.5739 26.6239 29.9539 32.0339 32.3839 30.8639 27.9839 24.0539 19.8839 16.6139
2932.046 14.7639 14.4839 15.8339 19.3639 25.8539 35.7339 48.4539 61.2939 72.7539 81.8239
2970.626 84.7939 83.7339 78.9739 67.5439 53.4139 41.4039 32.0339 24.0239 17.4439 12.6939
3009.205 9.6439 7.8539 6.8639 6.2939 6.0139 5.9939 6.1139 6.3339 6.6039 6.8939
3047.785 7.2039 7.5439 7.8639 8.2039 8.5339 8.7239 8.8839 9.0539 9.1439 9.1439
3086.364 9.0439 8.8539 8.5239 8.0739 7.6239 7.3739 7.3539 7.3839 7.4839 7.5939
3124.944 7.6439 7.6239 7.3839 6.8739 6.1939 5.4339 4.6639 3.9039 3.2839 2.8939
3163.524 2.6439 2.4439 2.3039 2.2339 2.1339 2.0139 1.9439 1.9739 2.1139 2.2039
3202.103 2.2539 2.3539 2.4239 2.4039 2.2939 2.1139 1.8639 1.5639 1.3039 1.0639
3240.683 0.9006 0.7521 0.608 0.5485 0.4944 0.4687 0.4856 0.4501 0.4814 0.5371
3279.262 0.5032 0.4737 0.474 0.4726 0.5024 0.4753 0.4716 0.5019 0.4982 0.5052
3317.842 0.5055 0.4551 0.3867 0.4197 0.5337 0.59 0.6256 0.6886 0.7318 0.7487
3356.421 0.6976 0.6111 0.5578 0.5029 0.4318 0.4196 0.426 0.4079 0.3446 0.2981
3395.001 0.31 0.2757 0.2692 0.2795 0.2434 0.2358 0.2412 0.2607 0.2783 0.3035
3433.580 0.2971 0.2962 0.3296 0.2936 0.3238 0.3181 0.3497 0.3896 0.3499 0.4121
3472.160 0.466 0.4221 0.3834 0.4581 0.4769 0.4622 0.5157 0.542 0.5745 0.6241
3510.740 0.6494 0.6216 0.6183 0.7622 0.8427 0.8342 0.8367 0.8332 0.8484 0.876
3549.319 0.9956 1.0564 1.0939 1.1739 1.1339 1.1139 1.2339 1.3039 1.3139 1.4039
3587.899 1.6039 1.7939 1.8539 1.8839 1.9039 1.8439 1.8239 1.8739 1.8939 1.8639
3626.478 1.8439 1.8739 2.0239 2.0939 2.1339 2.2639 2.5039 2.8239 3.0439 3.1839
3665.058 3.2939 3.2239 3.1239 2.9539 2.7539 2.5439 2.2939 2.1139 1.9639 1.8439
3703.637 1.8239 1.9439 2.1239 2.3339 2.5239 2.7339 2.9439 3.1239 3.2939 3.4139
3742.217 3.5139 3.6039 3.6439 3.6639 3.6239 3.4939 3.2739 3.0539 2.8339 2.6339
3780.797 2.4839 2.3239 2.2139 2.2239 2.2139 2.2539 2.3939 2.5639 2.6139 2.5239
3819.376 2.4839 2.5039 2.4939 2.2939 1.9939 1.8139 1.6839 1.4539 1.2139 1.0411
3857.956 0.9837 0.8533 0.8011 0.8214 0.7358 0.7287 0.7224 0.7063 0.696 0.6171
3896.535 0.5486 0.6081 0.6587 0.6694 0.6358 0.5681 0.6018 0.5692 0.5633 0.6239
3935.115 0.628 0.6473 0.6469 0.6435 0.6417 0.6573 0.6642 0.6899 0.6786 0.6372
3973.694 0.6463 0.6392 0.6629 0.6328 0.6027 0.564 0.534 0.6298
##END=
