##TITLE=1,2-Epoxycyclooctane
##JCAMP-DX=4.24
##DATA TYPE=INFRARED SPECTRUM
##ORIGIN=NIST Mass Spectrometry Data Center
##OWNER=NIST Standard Reference Data Program
Collection (C) 2018 copyright by the U.S. Secretary of Commerce
on behalf of the United States of America. All rights reserved.
##CAS REGISTRY NO=286-62-4
##MOLFORM=C 8 H 14 O
##$NIST SOURCE=MSDC-IR
##SPECTROMETER/DATA SYSTEM=HP-GC/MS/IRD
##STATE=gas
##XUNITS=1/CM
##YUNITS=ABSORBANCE
##XFACTOR=1.0
##YFACTOR=0.000005700
##DELTAX=4.0
##FIRSTX=550.0
##LASTX=3846.0
##FIRSTY=0.000279
##MAXX=3846
##MINX=550
##MAXY=0.057
##MINY=0
##NPOINTS=825
##XYDATA=(X++(Y..Y))
550.0 49 41 27 9 5 8 10 7 12 13
590.0 4 3 15 17 17 18 14 9 12 21
630.0 13 14 29 29 20 17 23 26 21 22
670.0 31 40 40 37 46 50 59 70 75 82
710.0 95 119 168 260 365 460 530 560 545 498
750.0 397 299 281 333 437 588 759 906 1015 1026
790.0 971 818 593 409 276 190 157 159 194 264
830.0 361 490 618 698 723 701 636 532 405 324
870.0 306 312 323 324 314 296 278 278 321 415
910.0 538 668 759 796 755 653 506 342 225 160
950.0 132 126 138 164 193 215 228 232 230 220
990.0 203 200 235 310 409 519 614 670 675 627
1030.0 535 405 282 196 148 126 112 98 102 103
1070.0 90 86 96 110 132 150 154 154 146 121
1110.0 94 67 49 39 35 32 26 28 41 54
1150.0 71 90 108 129 159 197 231 266 285 277
1190.0 249 219 185 141 104 83 65 56 54 48
1230.0 43 47 62 82 108 134 164 185 191 185
1270.0 166 144 125 105 87 82 85 83 81 80
1310.0 81 87 86 86 95 102 112 125 139 153
1350.0 168 182 190 201 208 213 213 198 185 174
1390.0 153 130 106 93 90 96 109 135 176 242
1430.0 342 483 671 873 1054 1227 1366 1448 1484 1415
1470.0 1333 1303 1058 767 629 482 342 240 173 130
1510.0 98 83 73 63 59 55 46 40 39 37
1550.0 36 33 30 29 32 40 43 39 42 42
1590.0 38 33 25 20 20 18 18 18 18 21
1630.0 22 20 19 18 15 10 11 12 9 7
1670.0 8 9 9 10 12 15 15 13 16 20
1710.0 20 16 17 20 18 18 17 13 15 15
1750.0 11 10 11 11 10 13 13 11 12 8
1790.0 6 7 3 5 9 8 10 9 9 9
1830.0 7 7 9 8 6 6 8 9 8 8
1870.0 7 2 2 3 2 0 0 1 2 2
1910.0 4 6 3 4 5 7 8 5 3 2
1950.0 3 5 5 5 6 4 4 4 2 4
1990.0 5 3 4 9 7 7 4 2 1 0
2030.0 2 3 1 2 3 4 3 5 8 10
2070.0 10 10 12 15 12 12 16 15 13 12
2110.0 12 11 13 11 9 12 11 11 11 11
2150.0 13 10 8 11 16 14 14 17 19 22
2190.0 21 20 19 18 18 19 18 21 21 18
2230.0 21 22 23 21 18 18 18 21 22 17
2270.0 17 18 20 20 17 16 17 17 15 13
2310.0 8 6 8 11 12 12 13 9 11 11
2350.0 8 6 6 9 9 8 7 7 7 6
2390.0 5 3 3 5 6 6 7 7 10 10
2430.0 8 8 9 8 11 13 14 11 11 11
2470.0 9 7 6 5 5 9 8 7 9 9
2510.0 10 13 11 12 14 15 14 17 17 19
2550.0 17 16 19 20 18 15 19 20 17 19
2590.0 22 24 25 26 27 31 33 34 35 39
2630.0 43 47 54 59 62 63 67 78 88 97
2670.0 112 128 142 157 167 168 163 153 141 126
2710.0 114 103 94 89 89 87 79 80 85 88
2750.0 90 92 94 100 103 104 115 128 135 147
2790.0 159 170 180 190 200 211 226 241 257 276
2830.0 305 361 460 636 925 1323 1761 2208 2548 2647
2870.0 2678 2598 2321 2075 1942 1911 2014 2271 2707 3299
2910.0 4012 4923 6078 7360 8564 9519 10000 9641 8581 7276
2950.0 5799 4464 3666 3395 3436 3567 3612 3800 3879 3120
2990.0 2304 1868 1418 985 649 445 326 250 195 169
3030.0 143 121 111 99 92 93 92 91 89 87
3070.0 89 85 77 75 77 71 67 67 66 62
3110.0 57 54 49 44 45 39 37 39 41 46
3150.0 47 43 41 36 30 33 34 31 32 35
3190.0 38 42 39 34 36 36 32 30 24 22
3230.0 22 24 27 27 26 26 27 29 25 23
3270.0 23 19 21 26 24 24 22 18 17 23
3310.0 27 24 18 17 20 15 11 14 18 21
3350.0 19 17 20 23 23 24 21 22 24 24
3390.0 29 28 22 26 28 26 26 18 17 20
3430.0 20 23 24 20 22 20 18 19 16 19
3470.0 16 8 8 8 11 18 18 16 16 15
3510.0 12 7 6 8 5 4 11 10 11 16
3550.0 12 6 4 8 15 16 13 14 10 9
3590.0 13 12 13 15 16 15 8 9 10 7
3630.0 9 13 14 16 20 26 21 16 20 19
3670.0 16 15 18 16 19 24 24 29 29 28
3710.0 29 27 26 27 34 34 21 21 35 34
3750.0 30 35 33 30 35 35 25 30 35 34
3790.0 34 29 24 23 25 30 32 29 29 28
3830.0 27 32 36 40 32
##END=
