##TITLE=1,2-Epoxycyclohexane
##JCAMP-DX=4.24
##DATA TYPE=INFRARED SPECTRUM
##ORIGIN=NIST Mass Spectrometry Data Center
##OWNER=NIST Standard Reference Data Program
Collection (C) 2018 copyright by the U.S. Secretary of Commerce
on behalf of the United States of America. All rights reserved.
##CAS REGISTRY NO=286-20-4
##MOLFORM=C 6 H 10 O
##$NIST SOURCE=MSDC-IR
##SPECTROMETER/DATA SYSTEM=HP-GC/MS/IRD
##STATE=gas
##XUNITS=1/CM
##YUNITS=ABSORBANCE
##XFACTOR=1.0
##YFACTOR=0.000004100
##DELTAX=4.0
##FIRSTX=550.0
##LASTX=3846.0
##FIRSTY=0.001017
##MAXX=3846
##MINX=550
##MAXY=0.041
##MINY=0
##NPOINTS=825
##XYDATA=(X++(Y..Y))
550.0 248 147 58 36 37 21 17 32 29 12
590.0 7 3 19 21 11 17 6 16 34 27
630.0 18 36 45 42 62 62 46 32 21 17
670.0 19 11 5 1 0 15 23 19 8 5
710.0 12 23 44 80 118 167 241 321 403 502
750.0 628 779 932 1056 1107 1038 1124 1417 1209 838
790.0 774 704 569 438 385 411 519 597 623 650
830.0 695 964 1119 765 566 627 626 593 570 570
870.0 611 768 916 935 975 977 895 800 709 602
910.0 451 303 198 125 91 83 85 111 164 235
950.0 320 414 497 577 758 989 962 752 696 714
990.0 635 478 336 249 199 167 144 135 134 131
1030.0 140 150 155 151 139 120 107 88 78 89
1070.0 108 113 116 147 198 163 102 95 86 74
1110.0 55 36 37 51 57 64 83 95 103 129
1150.0 144 145 159 177 218 280 291 272 281 287
1190.0 267 226 174 123 86 59 42 36 38 54
1230.0 73 105 148 190 234 263 265 360 399 277
1270.0 235 230 194 157 124 92 70 49 37 43
1310.0 47 51 72 94 119 150 171 193 216 237
1350.0 245 250 258 238 205 181 155 127 118 117
1390.0 119 141 171 216 279 358 461 591 742 903
1430.0 1033 1095 1189 1329 1327 1217 1143 1061 953 771
1470.0 613 533 442 329 239 182 149 131 117 106
1510.0 96 83 72 70 62 48 40 41 40 31
1550.0 24 23 31 30 17 14 14 14 14 12
1590.0 9 12 14 17 19 15 19 27 28 30
1630.0 35 38 37 36 38 36 35 32 26 22
1670.0 23 18 11 18 24 21 20 18 13 10
1710.0 13 16 16 13 17 25 25 21 21 21
1750.0 21 17 13 14 17 20 19 20 23 24
1790.0 26 33 32 28 24 19 14 12 15 12
1830.0 6 0 1 5 4 5 1 1 2 0
1870.0 2 4 5 4 3 3 2 3 6 6
1910.0 6 8 13 13 10 9 4 1 4 1
1950.0 0 2 3 6 5 5 8 11 9 5
1990.0 2 2 3 3 2 6 11 8 7 7
2030.0 7 5 6 8 11 10 14 17 18 20
2070.0 18 17 18 19 18 20 17 18 22 24
2110.0 21 20 20 23 25 24 21 18 19 23
2150.0 25 26 27 26 27 28 28 30 31 29
2190.0 30 30 25 24 30 35 36 35 35 37
2230.0 34 32 30 24 24 24 24 23 19 20
2270.0 14 10 14 14 18 27 27 20 19 26
2310.0 26 22 19 13 14 21 22 20 14 6
2350.0 9 14 10 4 7 11 13 13 11 12
2390.0 12 14 13 13 13 13 15 13 14 14
2430.0 11 9 9 6 6 8 3 4 3 2
2470.0 9 9 10 13 14 13 10 10 15 14
2510.0 13 15 13 11 7 9 6 0 1 2
2550.0 0 4 1 0 2 2 0 0 2 4
2590.0 12 16 13 12 18 19 21 23 27 32
2630.0 34 38 44 50 56 68 83 98 116 130
2670.0 144 153 154 159 158 144 125 108 93 76
2710.0 69 68 62 58 63 68 63 63 65 70
2750.0 75 80 84 93 104 114 124 134 151 164
2790.0 171 189 210 224 245 257 273 311 359 436
2830.0 551 709 898 1113 1359 1646 1913 2092 2230 2413
2870.0 2474 2372 2306 2248 2173 2109 2109 2206 2412 2783
2910.0 3359 4026 4703 5518 6528 7456 8346 9223 9274 9502
2950.0 10000 8349 6667 6084 5348 4593 4141 4114 4310 4504
2990.0 4634 5121 5217 4160 3312 2844 2212 1561 1010 646
3030.0 424 304 247 215 188 165 153 147 132 119
3070.0 113 99 82 77 72 65 63 57 53 46
3110.0 35 31 30 28 24 21 24 30 22 12
3150.0 13 13 18 24 19 21 18 10 6 17
3190.0 19 15 21 25 21 23 20 24 22 14
3230.0 24 25 29 30 30 32 26 25 30 26
3270.0 25 33 33 37 36 34 32 29 27 24
3310.0 19 19 15 6 8 8 14 20 15 21
3350.0 24 15 19 23 29 39 39 30 26 29
3390.0 35 27 12 0 3 10 3 5 14 18
3430.0 11 5 12 22 16 7 11 14 13 5
3470.0 9 13 12 14 7 7 17 24 12 5
3510.0 13 17 14 7 12 11 5 12 21 27
3550.0 25 14 10 20 25 28 24 19 24 31
3590.0 31 29 29 24 25 33 32 28 26 25
3630.0 29 26 25 28 31 42 39 31 24 22
3670.0 28 31 35 40 43 35 27 33 30 28
3710.0 45 53 50 55 64 71 75 86 92 78
3750.0 72 74 70 60 57 56 52 53 50 50
3790.0 44 34 32 33 34 28 38 49 41 34
3830.0 42 41 47 48 39
##END=
