##TITLE=3,4-Methylenedioxyphenylacetic acid
##JCAMP-DX=4.24
##DATA TYPE=INFRARED SPECTRUM
##ORIGIN=EPA-IR VAPOR PHASE LIBRARY
##OWNER=SRD/NIST
Collection (C) 2018 copyright by the U.S. Secretary of Commerce
on behalf of the United States of America. All rights reserved.
##CAS REGISTRY NO=2861-28-1
##MOLFORM=C 9 H 8 O 4
##$NIST SOURCE=MSDC-IR
##STATE=gas
##XUNITS=1/CM
##YUNITS=ABSORBANCE
##XFACTOR=1.
##YFACTOR=0.001
##DELTAX=1.92898
##FIRSTX=549.8
##LASTX=4000.7
##FIRSTY=19.359
##MAXX=4000.7
##MINX=549.759
##MAXY=0.109709
##MINY=0
##NPOINTS=1790
##XYDATA=(X++(Y..Y))
549.759 19.359 20.929 22.529 23.759 24.199 23.789 23.089 22.089 20.659 19.029
569.049 17.579 15.959 14.289 13.069 12.259 11.409 10.639 10.159 10.189 10.069
588.339 9.789 9.829 10.069 10.509 11.109 11.839 12.789 14.139 15.429 16.669
607.628 18.079 19.469 20.579 21.319 21.689 21.929 21.759 21.539 21.509 21.009
626.918 20.349 19.809 18.979 18.099 17.379 16.429 15.349 14.649 13.999 13.129
646.208 12.449 11.979 11.279 10.479 9.839 9.289 8.719 8.229 7.889 7.689
665.498 7.379 7.169 7.009 6.469 6.119 6.059 5.809 5.609 5.539 5.489
684.787 5.599 5.599 5.649 5.929 6.019 6.139 6.469 6.739 7.169 7.279
704.077 7.199 7.299 7.169 6.769 6.119 5.619 5.259 4.989 4.639 4.139
723.367 3.859 3.779 3.469 3.229 3.509 3.459 3.079 2.809 2.619 2.359
742.657 2.259 2.299 2.159 2.169 2.239 2.149 2.379 2.619 2.589 2.769
761.947 3.129 3.439 3.909 4.559 5.149 5.969 6.819 7.829 8.949 9.949
781.236 11.009 11.769 12.449 13.109 13.639 13.919 13.969 14.299 14.579 14.649
800.526 14.829 14.929 14.489 13.779 13.029 12.069 11.129 10.409 9.869 9.109
819.816 8.279 7.599 7.159 6.729 6.209 5.999 5.849 5.649 5.579 5.759
839.106 5.919 5.969 6.149 6.269 6.289 6.289 6.189 6.109 5.809 5.379
858.395 5.189 5.009 4.699 4.539 4.609 4.419 4.089 4.109 4.309 4.249
877.685 4.149 4.239 4.329 4.219 4.079 4.099 4.189 4.129 4.269 4.439
896.975 4.369 4.509 4.609 4.739 5.109 5.549 6.179 6.929 7.629 8.679
916.265 9.809 10.629 11.589 13.019 14.569 15.959 17.299 18.599 19.659 20.489
935.555 21.219 21.629 21.969 22.239 22.059 21.609 21.079 20.549 19.629 18.349
954.844 17.169 15.839 14.339 12.619 10.889 9.369 8.179 7.289 6.539 5.819
974.134 5.089 4.539 4.299 4.119 3.889 3.739 3.589 3.489 3.419 3.539
993.424 3.579 3.769 3.929 4.009 4.419 4.879 5.139 5.359 5.719 6.389
1012.714 7.099 7.669 8.429 9.209 10.179 11.529 13.279 15.139 16.939 19.139
1032.003 21.589 24.449 27.649 30.779 33.779 36.669 39.589 41.999 43.619 44.379
1051.293 44.459 43.779 42.019 39.749 37.159 34.269 31.559 28.899 26.439 24.709
1070.583 23.069 22.129 22.119 22.479 23.099 23.799 25.459 27.959 30.759 33.579
1089.873 37.079 40.769 44.799 50.019 54.649 59.459 65.559 71.319 76.409 80.989
1109.163 85.039 87.429 87.549 86.129 82.339 76.829 70.699 63.559 56.919 51.559
1128.452 46.799 42.649 38.989 35.779 32.949 30.559 28.519 26.249 24.019 22.219
1147.742 20.499 19.279 18.189 16.669 15.549 15.139 14.529 14.139 14.189 14.119
1167.032 14.149 14.499 15.149 15.909 17.079 18.289 19.889 22.339 24.939 27.749
1186.322 30.509 32.759 34.079 34.529 34.379 33.539 32.409 30.609 28.599 27.149
1205.611 25.889 25.179 24.669 23.899 23.629 23.669 23.819 24.549 25.689 27.359
1224.901 30.009 33.179 37.359 43.099 50.019 58.669 68.969 80.149 91.159 100.389
1244.191 107.049 109.709 107.899 102.379 93.279 81.469 68.639 56.739 46.919 38.929
1263.481 32.569 27.819 24.269 21.619 19.579 17.929 16.539 15.439 14.539 13.739
1282.771 13.099 12.509 11.959 11.539 11.269 11.119 10.919 10.779 10.589 10.339
1302.060 10.299 10.289 10.279 10.329 10.409 10.619 10.939 11.259 11.729 12.309
1321.350 12.869 13.499 14.289 15.129 15.889 16.669 17.509 18.349 19.159 20.099
1340.640 21.159 22.079 22.839 23.459 23.889 24.049 23.749 23.059 22.179 21.059
1359.930 19.699 18.259 16.849 15.579 14.449 13.409 12.499 11.739 11.029 10.339
1379.219 9.699 9.149 8.679 8.219 7.799 7.479 7.179 6.939 6.729 6.509
1398.509 6.339 6.179 6.079 6.039 5.989 6.009 6.189 6.539 7.089 7.759
1417.799 8.639 9.719 10.919 12.339 14.089 16.059 18.369 21.169 24.579 28.489
1437.089 32.999 37.509 41.139 43.299 43.779 42.769 40.329 36.489 31.169 25.439
1456.378 20.459 16.859 14.739 13.569 13.039 13.059 13.699 14.939 17.019 20.229
1475.668 24.809 31.379 40.319 51.849 65.439 79.369 91.089 98.249 100.319 98.319
1494.958 92.629 83.279 71.599 60.199 51.179 44.459 39.039 34.839 31.699 28.339
1514.248 23.849 18.959 14.899 12.219 10.429 9.159 8.259 7.579 7.019 6.509
1533.538 6.059 5.699 5.359 5.109 4.869 4.529 4.229 3.909 3.619 3.459
1552.827 3.289 3.129 3.059 2.999 2.739 2.509 2.379 2.219 2.149 2.179
1572.117 2.169 2.199 2.339 2.369 2.449 2.509 2.559 2.699 2.749 2.839
1591.407 2.999 3.049 3.049 3.199 3.349 3.419 3.509 3.629 3.769 3.939
1610.697 3.959 3.839 3.869 3.899 3.869 3.719 3.489 3.249 3.009 2.839
1629.986 2.649 2.399 2.329 2.249 2.059 1.959 1.779 1.639 1.589 1.489
1649.276 1.389 1.479 1.569 1.509 1.469 1.459 1.539 1.609 1.599 1.639
1668.566 1.739 1.779 1.779 1.829 1.929 2.069 2.139 2.199 2.379 2.589
1687.856 2.719 2.829 3.019 3.189 3.339 3.539 3.779 3.949 4.119 4.339
1707.146 4.469 4.659 4.939 5.269 5.639 6.049 6.469 6.919 7.439 8.089
1726.435 8.869 9.659 10.539 11.619 12.949 14.319 15.779 17.479 19.319 21.429
1745.725 23.689 26.119 28.809 31.659 34.599 37.669 40.979 44.329 47.839 51.499
1765.015 55.269 59.199 63.349 67.419 71.179 74.169 76.149 77.079 76.949 75.779
1784.305 73.409 70.199 66.559 62.589 58.619 54.769 50.909 47.049 43.149 39.159
1803.594 35.209 31.279 27.579 24.149 21.019 18.289 16.019 14.079 12.389 10.989
1822.884 9.839 8.889 8.069 7.349 6.759 6.239 5.809 5.419 5.039 4.719
1842.174 4.399 4.169 3.929 3.679 3.529 3.359 3.189 2.999 2.929 2.899
1861.464 2.799 2.749 2.709 2.639 2.659 2.649 2.599 2.599 2.579 2.499
1880.754 2.469 2.459 2.359 2.269 2.209 2.109 2.039 1.969 1.839 1.789
1900.043 1.709 1.619 1.589 1.559 1.529 1.479 1.419 1.399 1.389 1.322
1919.333 1.2529 1.2113 1.1713 1.1321 1.0899 1.0614 0.9825 0.9632 0.9986 0.9566
1938.623 0.9317 0.9126 0.8769 0.8955 0.9216 0.955 1.0206 1.0253 0.9796 0.9899
1957.913 1.0306 1.0016 0.9676 0.9968 0.9874 0.9784 0.9963 0.9787 0.9812 1.0222
1977.202 1.0447 1.0814 1.0623 0.9985 1.0412 1.145 1.1791 1.1284 1.0745 1.0808
1996.492 1.119 1.1447 1.112 1.1091 1.1349 1.1408 1.1864 1.2208 1.1948 1.1765
2015.782 1.1962 1.1806 1.1779 1.1799 1.1678 1.146 1.1781 1.1862 1.1848 1.2153
2035.072 1.2107 1.2256 1.2941 1.3425 1.354 1.389 1.439 1.429 1.409 1.3619
2054.362 1.3048 1.3065 1.2604 1.1912 1.1548 1.1734 1.1569 1.0725 1.0072 0.953
2073.651 0.9979 0.9318 0.8034 0.8285 0.8108 0.7871 0.814 0.805 0.7718 0.7699
2092.941 0.7924 0.7668 0.7298 0.7084 0.6838 0.6476 0.6282 0.6587 0.6697 0.6239
2112.231 0.6139 0.6555 0.6968 0.7107 0.726 0.7272 0.7118 0.6541 0.6283 0.6931
2131.521 0.7476 0.7071 0.5865 0.5832 0.6263 0.5973 0.5729 0.5782 0.6369 0.7132
2150.810 0.6822 0.6591 0.6689 0.6001 0.5489 0.5775 0.6186 0.6035 0.6339 0.5812
2170.100 0.5228 0.5589 0.5338 0.5655 0.6875 0.6972 0.6732 0.7413 0.7275 0.747
2189.390 0.8177 0.81 0.7904 0.8187 0.8651 0.9002 0.9625 1.0072 0.9971 0.9619
2208.680 0.9016 0.9092 0.9146 0.887 0.8791 0.9198 0.9693 0.9388 0.9108 0.8929
2227.970 0.903 0.8375 0.7549 0.7759 0.8181 0.7667 0.7012 0.7195 0.7886 0.828
2247.259 0.7789 0.7312 0.763 0.7665 0.7321 0.7313 0.6924 0.6745 0.6605 0.6189
2266.549 0.6311 0.6791 0.6519 0.6387 0.6768 0.7491 0.7687 0.7481 0.7738 0.7876
2285.839 0.8708 0.9273 0.9113 0.8989 0.9699 1.0159 1.0239 1.1056 1.1423 1.1064
2305.129 1.0575 1.1009 1.0997 1.0561 1.084 1.0801 0.9808 0.9603 1.0321 1.1178
2324.418 1.1652 1.1719 1.2142 1.1497 1.0761 1.0701 1.0788 1.0748 1.0561 1.0532
2343.708 0.9476 0.899 0.932 0.9352 0.9865 1.0557 1.0978 1.1375 1.2187 1.2546
2362.998 1.2746 1.2965 1.2695 1.2529 1.2514 1.1664 1.1051 1.0815 1.0057 0.8929
2382.288 0.7481 0.7455 0.742 0.6305 0.6113 0.6858 0.6455 0.5961 0.5594 0.5148
2401.578 0.5333 0.5326 0.47701 0.45822 0.5453 0.5462 0.47697 0.5078 0.5603 0.5608
2420.867 0.5641 0.6007 0.5661 0.5523 0.5926 0.5629 0.551 0.4815 0.46504 0.5207
2440.157 0.5537 0.5672 0.6613 0.6338 0.5216 0.4819 0.47622 0.5267 0.5749 0.5958
2459.447 0.5707 0.4992 0.44625 0.5249 0.6161 0.5955 0.5207 0.492 0.4804 0.5197
2478.737 0.5165 0.4952 0.5866 0.6112 0.5374 0.47721 0.4876 0.4798 0.46374 0.45612
2498.026 0.45375 0.47334 0.4992 0.47267 0.44263 0.44944 0.45917 0.5288 0.5439 0.47239
2517.316 0.4332 0.4961 0.5649 0.5418 0.593 0.6229 0.6337 0.6996 0.685 0.7846
2536.606 0.7772 0.8162 0.9229 0.8493 0.842 0.9044 0.9353 0.8723 0.8247 0.8575
2555.896 0.848 0.8246 0.8236 0.8463 0.7944 0.7645 0.8081 0.7431 0.7084 0.7721
2575.186 0.7902 0.7818 0.8321 0.9437 0.9549 0.8556 0.8339 0.8619 0.8595 0.855
2594.475 0.8435 0.8282 0.7942 0.8155 0.8343 0.8141 0.7958 0.8253 0.8339 0.7097
2613.765 0.6717 0.6797 0.6895 0.6579 0.6437 0.617 0.5765 0.6827 0.6938 0.609
2633.055 0.5999 0.5948 0.6193 0.5394 0.5664 0.6663 0.6309 0.5858 0.571 0.5372
2652.345 0.5853 0.6522 0.6158 0.6215 0.6244 0.6632 0.7034 0.7449 0.7524 0.8075
2671.634 0.8151 0.8036 0.8721 0.8795 0.9177 0.9419 1.0096 1.1052 1.0476 1.0149
2690.924 1.0144 0.9661 0.9399 0.947 0.9406 0.7899 0.7121 0.8161 0.8711 0.8617
2710.214 0.8688 0.8724 0.8597 0.8766 0.953 1.0393 0.997 0.8662 0.8862 1.0108
2729.504 1.0072 0.954 1.095 1.1605 1.0333 1.0058 1.085 1.1873 1.2169 1.2185
2748.794 1.3223 1.469 1.569 1.689 1.889 2.119 2.359 2.719 3.149 3.539
2768.083 3.979 4.439 4.909 5.179 5.139 4.849 4.569 4.199 3.619 3.139
2787.373 2.759 2.449 2.219 2.079 2.049 1.969 1.829 1.819 1.859 1.859
2806.663 1.949 1.979 2.019 2.139 2.229 2.329 2.389 2.379 2.489 2.609
2825.953 2.669 2.989 3.359 3.469 3.579 3.879 4.199 4.449 4.779 5.089
2845.242 5.319 5.559 5.769 6.069 6.379 6.759 7.279 7.679 8.239 9.109
2864.532 9.939 10.759 11.689 12.589 13.489 14.299 14.939 15.419 15.659 15.659
2883.822 15.369 14.919 14.499 14.089 13.729 13.359 13.029 12.809 12.749 12.869
2903.112 13.049 13.249 13.469 13.809 14.259 14.539 14.749 14.999 15.109 15.189
2922.401 15.079 14.749 14.519 14.419 14.209 13.949 13.639 13.309 13.159 13.039
2941.691 12.839 12.609 12.349 12.129 11.899 11.499 11.059 10.659 10.239 9.809
2960.981 9.319 8.689 7.969 7.509 7.219 6.819 6.469 6.159 5.899 5.739
2980.271 5.479 5.289 5.319 5.299 5.219 5.259 5.199 5.269 5.429 5.429
2999.561 5.519 5.569 5.709 5.669 5.619 6.019 6.429 6.749 6.889 7.039
3018.850 7.159 6.989 6.899 6.749 6.439 6.139 5.939 5.669 5.379 5.199
3038.140 5.099 5.279 5.219 5.129 5.049 4.719 4.409 4.229 4.089 3.909
3057.430 3.589 3.419 3.319 3.129 3.059 3.099 3.209 3.289 3.279 3.309
3076.720 3.359 3.369 3.249 2.999 2.819 2.629 2.459 2.159 1.939 1.859
3096.009 1.739 1.589 1.529 1.619 1.489 1.2907 1.2889 1.2023 1.0377 1.062
3115.299 1.0208 0.8797 0.8256 0.8072 0.8519 0.8306 0.6175 0.5575 0.5274 0.42005
3134.589 0.44339 0.5172 0.5116 0.44826 0.43659 0.369 0.222 0.159 0.3475 0.39175
3153.879 0.263 0.19 0.174 0.2955 0.3008 0.3594 0.3509 0.263 0.3169 0.3009
3173.169 0.225 0.156 0.153 0.163 0.19 0.12 0.073 0.21 0.262 0.128
3192.458 0.08 0.212 0.134 0.026 0.081 0.093 0.159 0.203 0.3333 0.46077
3211.748 0.41137 0.391 0.336 0.3435 0.3514 0.261 0.221 0.206 0.205 0.208
3231.038 0.298 0.2986 0.127 0.086 0.165 0.199 0.25 0.39486 0.3497 0.199
3250.328 0.241 0.24 0.211 0.225 0.177 0.141 0.129 0.175 0.201 0.094
3269.617 0.056 0.181 0.176 0.031 0 0.164 0.253 0.116 0.09 0.184
3288.907 0.184 0.114 0.06 0.08 0.096 0.038 0.221 0.252 0.156 0.086
3308.197 0.028 0.098 0 0.109 0.184 0.089 0.095 0.12 0.115 0.051
3327.487 0.156 0.275 0.3409 0.215 0.028 0.117 0.184 0.228 0.154 0.087
3346.777 0.051 0.024 0.094 0.076 0.173 0.2791 0.217 0.141 0.239 0.3474
3366.066 0.213 0.069 0.014 0.143 0.345 0.2838 0.178 0.202 0.2837 0.3218
3385.356 0.3092 0.137 0.083 0.268 0.225 0.162 0.221 0.128 0.076 0.114
3404.646 0.149 0.2873 0.185 0.155 0.227 0.158 0.277 0.245 0.137 0.123
3423.936 0.165 0.199 0.205 0.2864 0.277 0.255 0.31 0.225 0.101 0.061
3443.225 0.122 0.207 0.142 0.077 0.049 0.09 0.034 0.02 0.064 0.133
3462.515 0.179 0.223 0.387272 0.3487 0.197 0.158 0.21 0.3669 0.380941 0.3524
3481.805 0.40285 0.3057 0.256 0.381864 0.46913 0.5021 0.42894 0.3301 0.5379 0.6508
3501.095 0.5004 0.5668 0.7155 0.7539 0.7867 0.7871 0.7967 0.8531 0.9062 0.8832
3520.385 0.9637 1.1484 1.2608 1.429 1.599 1.529 1.599 1.939 2.109 2.309
3539.674 2.599 2.829 3.039 3.489 4.029 4.509 4.989 5.559 6.579 7.799
3558.964 9.209 11.079 13.879 18.009 23.109 28.589 32.929 35.259 36.109 35.569
3578.254 33.209 28.749 23.079 17.709 13.539 10.529 8.259 6.659 5.539 4.619
3597.544 3.909 3.419 3.019 2.699 2.379 2.039 1.779 1.579 1.509 1.3338
3616.833 1.1023 0.966 0.8686 0.8406 0.8001 0.7002 0.8163 0.8952 0.7014 0.6547
3636.123 0.753 0.7324 0.6188 0.45166 0.2936 0.5114 0.6132 0.39974 0.40149 0.40011
3655.413 0.3608 0.39175 0.43672 0.46337 0.37093 0.274 0.244 0.3388 0.3522 0.2912
3674.703 0.275 0.2924 0.242 0.234 0.272 0.13 0.259 0.3602 0.235 0.234
3693.993 0.228 0.2902 0.27 0.275 0.40995 0.257 0.103 0.099 0.221 0.37767
3713.282 0.3496 0.37389 0.277 0.2855 0.3128 0.146 0.105 0.187 0.228 0.192
3732.572 0.221 0.152 0.107 0.186 0.164 0.23 0.3338 0.134 0.159 0.3423
3751.862 0.3206 0.245 0.179 0.3061 0.47469 0.3599 0.3046 0.3136 0.251 0.203
3771.152 0.172 0.136 0.179 0.2985 0.261 0.217 0.168 0.224 0.3235 0.196
3790.441 0.158 0.3013 0.176 0.116 0.184 0.3529 0.3181 0.169 0.261 0.3396
3809.731 0.3461 0.221 0.3273 0.515 0.361 0.241 0.3097 0.3288 0.3148 0.198
3829.021 0.178 0.263 0.275 0.217 0.205 0.207 0.187 0.216 0.091 0.05
3848.311 0.122 0.137 0.268 0.3369 0.274 0.175 0.017 0.132 0.279 0.248
3867.601 0.38728 0.44999 0.3333 0.3137 0.3311 0.231 0.255 0.269 0.274 0.251
3886.890 0.172 0.159 0.3228 0.40112 0.2871 0.2896 0.2801 0.2818 0.269 0.188
3906.180 0.3254 0.501 0.41392 0.214 0.254 0.258 0.177 0.3352 0.37343 0.381902
3925.470 0.45829 0.39444 0.5342 0.5419 0.3264 0.3078 0.277 0.47103 0.4879 0.40704
3944.760 0.45498 0.45007 0.484 0.5426 0.4922 0.44539 0.37454 0.2956 0.3244 0.43929
3964.049 0.46229 0.2936 0.3368 0.379593 0.2807 0.2893 0.234 0.263 0.43349 0.463
3983.339 0.40558 0.46231 0.45168 0.387288 0.42839 0.3144 0.398 0.5287 0.5167 0.6026
##END=
