##TITLE=2,3,4-Trimethyl-5-hexen-3-ol
##JCAMP-DX=4.24
##DATA TYPE=INFRARED SPECTRUM
##ORIGIN=NIST Mass Spectrometry Data Center
##OWNER=NIST Standard Reference Data Program
Collection (C) 2018 copyright by the U.S. Secretary of Commerce
on behalf of the United States of America. All rights reserved.
##CAS REGISTRY NO=28638-29-1
##MOLFORM=C 9 H 18 O
##$NIST SOURCE=MSDC-IR
##SPECTROMETER/DATA SYSTEM=HP-GC/MS/IRD
##STATE=gas
##XUNITS=1/CM
##YUNITS=ABSORBANCE
##XFACTOR=1.0
##YFACTOR=0.000002000
##DELTAX=4.0
##FIRSTX=550.0
##LASTX=3846.0
##FIRSTY=0.000252
##MAXX=3846
##MINX=550
##MAXY=0.02
##MINY=0
##NPOINTS=825
##XYDATA=(X++(Y..Y))
550.0 126 95 67 60 72 109 107 101 72 54
590.0 72 64 31 1 53 103 103 73 67 90
630.0 111 136 146 146 192 239 308 385 347 265
670.0 239 223 186 153 94 76 96 117 139 165
710.0 183 178 181 172 158 173 157 135 159 150
750.0 140 134 117 70 46 55 48 17 24 50
790.0 43 30 35 51 64 77 84 100 85 73
830.0 106 142 156 150 165 193 213 241 295 376
870.0 444 515 603 686 817 1025 1322 1764 2388 3031
910.0 3549 3837 3706 3282 2655 1943 1384 1005 775 630
950.0 538 509 527 564 632 737 865 1010 1213 1462
990.0 1686 1879 1998 1994 1878 1725 1590 1483 1438 1479
1030.0 1555 1591 1600 1582 1501 1394 1336 1298 1283 1296
1070.0 1326 1375 1418 1470 1519 1557 1597 1647 1671 1645
1110.0 1615 1623 1597 1543 1537 1521 1481 1451 1441 1431
1150.0 1405 1382 1391 1397 1372 1329 1285 1243 1181 1107
1190.0 1021 934 858 764 678 643 610 577 572 571
1230.0 588 603 593 627 684 733 785 835 886 936
1270.0 991 1034 1061 1079 1083 1060 1033 1014 996 980
1310.0 955 921 893 880 854 828 827 847 866 903
1350.0 962 1064 1237 1490 1835 2239 2578 2787 2802 2586
1390.0 2268 1885 1491 1188 975 866 834 813 782 743
1430.0 711 700 737 810 921 1083 1232 1369 1473 1493
1470.0 1422 1290 1115 907 706 542 413 330 267 219
1510.0 196 181 157 136 129 126 114 109 117 115
1550.0 112 106 103 115 119 110 113 124 114 111
1590.0 118 118 127 154 182 216 271 347 447 555
1630.0 641 692 682 610 497 373 267 207 176 150
1670.0 119 99 104 100 80 77 79 64 53 65
1710.0 68 69 70 64 61 64 64 55 45 39
1750.0 29 32 38 32 29 28 25 35 29 27
1790.0 38 36 42 56 65 71 94 129 162 198
1830.0 239 257 244 215 177 129 96 85 63 43
1870.0 38 36 42 40 35 35 37 30 25 37
1910.0 38 28 23 19 18 17 15 6 1 11
1950.0 22 19 21 28 23 20 21 30 34 28
1990.0 26 34 30 22 24 22 16 18 20 22
2030.0 21 23 18 13 16 13 15 16 17 16
2070.0 18 20 17 10 11 14 13 12 11 12
2110.0 16 19 16 15 16 15 14 16 13 9
2150.0 11 13 10 4 8 10 9 15 18 14
2190.0 7 7 14 16 9 5 1 4 13 17
2230.0 17 9 7 10 10 20 23 13 19 30
2270.0 25 23 24 27 27 24 23 35 34 15
2310.0 18 27 26 29 31 31 27 15 19 26
2350.0 31 37 29 21 25 32 35 38 39 42
2390.0 40 43 45 45 40 38 37 32 30 32
2430.0 36 34 33 28 38 46 50 47 34 36
2470.0 37 32 30 29 36 39 37 30 32 41
2510.0 43 42 38 33 39 43 31 31 44 52
2550.0 55 51 49 40 38 52 59 58 66 73
2590.0 74 76 77 90 94 85 81 88 92 85
2630.0 84 93 94 91 80 82 84 81 75 79
2670.0 89 79 78 82 86 81 74 80 90 93
2710.0 101 104 108 124 145 164 163 155 163 173
2750.0 170 172 169 161 168 174 169 169 181 185
2790.0 192 205 204 212 228 234 261 304 331 357
2830.0 375 392 421 463 517 576 645 746 896 1124
2870.0 1445 1865 2348 2800 3168 3371 3413 3375 3311 3287
2910.0 3323 3411 3527 3672 3850 4066 4353 4665 4957 5184
2950.0 5371 5626 6086 6827 7820 8880 9692 10000 9742 8931
2990.0 7677 6297 4993 3868 2985 2329 1864 1511 1239 1047
3030.0 902 795 714 667 654 663 692 739 811 936
3070.0 1129 1339 1487 1577 1510 1287 1031 780 555 407
3110.0 346 315 284 263 252 234 231 219 214 229
3150.0 212 206 212 209 208 196 184 184 190 179
3190.0 159 153 160 154 139 130 127 119 102 90
3230.0 89 88 70 61 70 63 62 73 74 72
3270.0 74 65 48 33 31 63 69 48 44 36
3310.0 42 46 48 57 59 67 66 65 67 69
3350.0 59 48 52 64 76 69 57 53 47 53
3390.0 56 49 45 37 37 46 58 75 73 67
3430.0 64 70 64 49 59 63 63 54 52 53
3470.0 53 71 70 42 22 36 51 41 34 30
3510.0 37 31 32 38 33 58 62 57 52 14
3550.0 1 24 51 49 49 66 81 76 70 95
3590.0 134 182 208 223 227 212 218 220 218 250
3630.0 327 416 478 522 556 542 475 396 297 213
3670.0 171 130 100 76 48 56 68 42 27 34
3710.0 35 23 3 8 3 0 10 13 17 12
3750.0 8 18 11 24 28 12 6 16 33 25
3790.0 35 29 13 20 35 30 23 26 33 39
3830.0 38 41 39 38 47
##END=
