##TITLE=p-Diethylaminobenzonitrile
##JCAMP-DX=4.24
##DATA TYPE=INFRARED SPECTRUM
##ORIGIN=EPA-IR VAPOR PHASE LIBRARY
##OWNER=SRD/NIST
Collection (C) 2018 copyright by the U.S. Secretary of Commerce
on behalf of the United States of America. All rights reserved.
##CAS REGISTRY NO=2873-90-7
##MOLFORM=C 11 H 14 N 2
##$NIST SOURCE=MSDC-IR
##STATE=gas
##XUNITS=1/CM
##YUNITS=ABSORBANCE
##XFACTOR=1.
##YFACTOR=0.001
##DELTAX=3.85796
##FIRSTX=501.5
##LASTX=4000.7
##FIRSTY=2.506
##MAXX=4000.7
##MINX=501.534
##MAXY=0.124266
##MINY=0
##NPOINTS=908
##XYDATA=(X++(Y..Y))
501.534 2.506 2.726 3.196 3.716 4.226 4.766 5.306 5.986 6.746 7.586
540.114 8.436 8.686 8.266 7.446 6.396 5.326 4.456 3.806 3.256 2.876
578.693 2.696 2.606 2.456 2.326 2.256 2.056 1.886 1.856 1.816 1.776
617.273 1.796 1.926 2.356 3.146 4.066 4.646 4.516 3.796 2.986 2.416
655.852 2.016 1.726 1.486 1.276 1.1543 1.0738 1.0143 0.9818 0.9289 0.8872
694.432 0.8838 0.8617 0.8575 0.9158 0.9968 1.0226 1.0301 1.0254 1.0458 1.0738
733.011 1.1687 1.296 1.396 1.526 1.756 2.096 2.556 3.386 4.626 5.866
771.591 6.626 6.696 6.266 5.956 6.336 7.266 8.666 10.716 13.716 17.806
810.170 22.616 27.366 29.176 26.366 21.236 15.676 10.696 7.146 4.996 3.776
848.750 3.046 2.566 2.206 1.916 1.716 1.596 1.506 1.396 1.366 1.466
887.330 1.636 1.886 2.066 2.106 2.026 1.856 1.646 1.536 1.556 1.626
925.909 1.706 1.836 1.956 2.026 1.966 1.866 1.746 1.646 1.616 1.616
964.489 1.686 1.776 1.856 1.956 2.146 2.446 2.856 3.466 4.346 5.636
1003.068 7.486 9.316 10.426 10.446 9.376 7.906 6.776 6.036 5.526 5.266
1041.648 5.246 5.476 5.956 6.646 7.576 8.836 10.376 12.076 13.466 13.816
1080.227 13.156 12.006 10.996 10.606 10.566 10.426 10.016 9.396 8.876 8.496
1118.807 8.466 8.816 9.746 11.596 14.696 19.546 25.556 30.936 33.216 31.096
1157.387 25.876 20.576 17.876 18.866 23.686 31.106 37.966 41.276 39.626 34.136
1195.966 28.046 22.696 17.866 13.846 11.046 9.346 8.446 8.206 8.356 8.856
1234.546 9.796 11.256 13.596 17.336 22.956 30.736 39.986 48.596 53.266 51.736
1273.125 44.636 35.216 26.606 20.186 16.066 13.586 12.146 11.406 11.196 11.376
1311.705 11.806 12.476 13.356 14.606 16.416 18.956 22.456 26.986 32.426 38.536
1350.284 44.606 48.956 49.456 45.626 39.516 34.396 33.366 36.226 39.446 40.496
1388.864 38.406 34.386 30.426 26.596 22.526 18.446 14.906 12.196 10.256 8.906
1427.443 7.986 7.386 7.006 6.846 7.046 7.596 8.486 9.476 10.386 11.186
1466.023 11.926 12.676 13.306 13.656 13.866 14.306 15.546 18.426 24.276 35.306
1504.603 54.536 83.006 111.156 124.266 114.716 86.806 55.426 34.226 23.646 18.156
1543.182 14.946 13.206 12.406 12.196 12.296 12.526 12.746 12.996 13.636 15.196
1581.762 18.296 23.676 32.206 45.046 63.386 86.176 106.556 113.736 102.526 76.886
1620.341 48.726 29.746 20.506 16.046 13.296 11.296 9.706 8.376 7.206 6.146
1658.921 5.316 4.756 4.356 4.026 3.746 3.486 3.276 3.126 3.056 3.076
1697.500 3.236 3.576 3.956 4.096 3.926 3.396 2.706 2.206 1.976 1.926
1736.080 1.946 2.006 2.056 2.026 1.896 1.726 1.546 1.406 1.346 1.326
1774.659 1.336 1.366 1.396 1.406 1.356 1.286 1.1918 1.0868 1.0358 1.0084
1813.239 0.9958 1.0027 1.0046 0.9897 0.9557 0.9274 0.9033 0.8676 0.8594 0.8938
1851.819 0.9248 0.9863 1.1263 1.306 1.536 1.856 2.196 2.476 2.616 2.616
1890.398 2.516 2.316 2.096 1.926 1.776 1.616 1.456 1.306 1.1895 1.0873
1928.978 0.999 0.9242 0.8955 0.89 0.8819 0.8844 0.8678 0.8467 0.8358 0.7941
1967.557 0.7421 0.7373 0.7635 0.7769 0.7867 0.8093 0.8057 0.7832 0.7912 0.8096
2006.137 0.8392 0.9039 0.9735 1.0184 0.9984 0.9733 0.9682 0.9594 0.9314 0.8632
2044.716 0.7795 0.7059 0.6581 0.618 0.6118 0.6077 0.5743 0.5612 0.5842 0.5965
2083.296 0.5733 0.5606 0.5453 0.527 0.5097 0.4966 0.5068 0.5091 0.5054 0.5021
2121.875 0.5095 0.5103 0.4943 0.5097 0.543 0.6086 0.7095 0.7776 0.8205 0.853
2160.455 0.869 0.9255 1.0244 1.1062 1.1383 1.1164 1.0882 1.1717 1.366 1.646
2199.035 2.096 2.816 4.146 7.046 12.996 22.416 31.986 36.536 33.206 22.956
2237.614 12.076 5.596 2.866 1.786 1.286 1.0364 0.8931 0.8122 0.7779 0.7362
2276.194 0.6943 0.6966 0.7036 0.6899 0.6832 0.6763 0.6748 0.6976 0.6858 0.6537
2314.773 0.6718 0.6528 0.5847 0.5707 0.5687 0.5774 0.5912 0.6202 0.6571 0.6968
2353.353 0.7609 0.8377 0.9327 1.003 1.0385 1.074 1.0802 1.0553 1.0549 1.0668
2391.932 1.049 1.0195 1.0149 1.0275 1.0208 0.9858 0.9396 0.8918 0.8374 0.8013
2430.512 0.8003 0.815 0.8294 0.8729 0.9155 0.9434 0.95 0.936 0.9251 0.9016
2469.092 0.8732 0.8332 0.8048 0.8065 0.8298 0.86 0.9117 0.9808 1.0508 1.1662
2507.671 1.306 1.406 1.496 1.616 1.756 1.926 2.126 2.296 2.426 2.476
2546.251 2.436 2.336 2.186 2.056 1.966 1.926 1.886 1.826 1.746 1.646
2584.830 1.536 1.476 1.426 1.396 1.396 1.436 1.456 1.446 1.426 1.396
2623.410 1.336 1.296 1.246 1.1781 1.1585 1.1752 1.1712 1.1699 1.1854 1.226
2661.989 1.256 1.296 1.346 1.386 1.436 1.476 1.496 1.516 1.536 1.516
2700.569 1.506 1.496 1.526 1.576 1.636 1.696 1.706 1.746 1.766 1.756
2739.148 1.786 1.826 1.846 1.876 1.916 1.966 2.066 2.186 2.306 2.476
2777.728 2.686 2.926 3.196 3.406 3.596 3.796 4.066 4.366 4.636 4.986
2816.308 5.456 5.996 6.526 7.066 7.576 8.046 8.526 9.056 9.636 10.206
2854.887 10.836 11.526 12.296 13.266 14.486 15.976 17.656 19.096 20.036 20.296
2893.467 19.976 19.406 18.846 18.406 18.046 17.766 17.586 17.736 18.536 20.196
2932.046 22.796 25.936 28.576 29.726 28.946 26.696 24.336 23.296 24.426 27.956
2970.626 33.516 40.246 46.706 50.196 48.346 41.496 32.096 23.466 17.406 13.466
3009.205 10.856 9.036 7.736 6.776 6.036 5.516 5.236 5.196 5.356 5.836
3047.785 6.596 7.226 7.286 6.686 5.596 4.506 3.856 3.646 3.776 4.156
3086.364 4.666 5.256 5.886 6.366 6.586 6.416 5.846 4.986 4.086 3.366
3124.944 2.816 2.396 2.086 1.846 1.636 1.456 1.286 1.1164 1.0223 0.9878
3163.524 0.9143 0.8472 0.8049 0.7397 0.6781 0.6668 0.6584 0.5974 0.6139 0.6454
3202.103 0.6588 0.713 0.7059 0.6943 0.6741 0.6228 0.5744 0.4798 0.4087 0.3713
3240.683 0.30232 0.25608 0.26127 0.22783 0.1916 0.1723 0.1852 0.181 0.1496 0.1266
3279.262 0.106 0.095 0.079 0.104 0.1251 0.088 0.044 0.097 0.1307 0.107
3317.842 0.091 0.068 0.059 0.074 0.1086 0.087 0.072 0.104 0.1078 0.092
3356.421 0.098 0.1296 0.1733 0.22042 0.2098 0.22414 0.26085 0.28888 0.3523 0.4094
3395.001 0.4507 0.5561 0.6966 0.742 0.7068 0.5952 0.4459 0.3245 0.26393 0.26685
3433.580 0.331 0.3974 0.4344 0.421 0.3971 0.377 0.3261 0.2822 0.214883 0.1864
3472.160 0.1592 0.088 0.1133 0.1608 0.1282 0.1123 0.099 0.097 0.1086 0.08
3510.740 0.073 0.089 0.103 0.1103 0.087 0.094 0.1196 0.1172 0.131 0.1458
3549.319 0.099 0.069 0.03 0.007 0.04 0 0.016 0.094 0.076 0.011
3587.899 0.056 0.104 0.1187 0.1301 0.1135 0.1066 0.085 0.072 0.047 0.05
3626.478 0.043 0.027 0.1135 0.1613 0.1111 0.08 0.065 0.081 0.095 0.05
3665.058 0.012 0.052 0.1224 0.1583 0.1522 0.1544 0.1761 0.1467 0.1271 0.183
3703.637 0.19649 0.20211 0.20317 0.1563 0.1703 0.1926 0.1867 0.1451 0.1246 0.1712
3742.217 0.2182 0.1903 0.20483 0.206666 0.1449 0.1547 0.19723 0.1962 0.21465 0.23636
3780.797 0.2243 0.24403 0.19609 0.1532 0.1629 0.1767 0.1651 0.1844 0.2408 0.2731
3819.376 0.318 0.3883 0.4772 0.5164 0.5255 0.5058 0.421 0.3284 0.25036 0.23644
3857.956 0.20104 0.1883 0.205721 0.1847 0.1977 0.20483 0.1554 0.1243 0.1695 0.1686
3896.535 0.1261 0.1289 0.211547 0.206341 0.1659 0.1443 0.1206 0.1365 0.1601 0.1414
3935.115 0.1208 0.159 0.22874 0.24044 0.1881 0.22964 0.24951 0.25058 0.24351 0.22213
3973.694 0.25005 0.25597 0.2371 0.26812 0.3189 0.307 0.28626 0.3076
##END=
