##TITLE=n-Octadecenylsuccinic acid
##JCAMP-DX=4.24
##DATA TYPE=INFRARED SPECTRUM
##ORIGIN=EPA-IR VAPOR PHASE LIBRARY
##OWNER=SRD/NIST
Collection (C) 2018 copyright by the U.S. Secretary of Commerce
on behalf of the United States of America. All rights reserved.
##CAS REGISTRY NO=28777-98-2
##MOLFORM=C 18 H 33 Cl O
##$NIST SOURCE=MSDC-IR
##STATE=gas
##XUNITS=1/CM
##YUNITS=ABSORBANCE
##XFACTOR=1.
##YFACTOR=0.001
##DELTAX=1.92898
##FIRSTX=549.8
##LASTX=4000.7
##FIRSTY=1.7209
##MAXX=4000.7
##MINX=549.759
##MAXY=0.01239
##MINY=0
##NPOINTS=1790
##XYDATA=(X++(Y..Y))
549.759 1.7209 1.396 0.968 0.727 0 0.49 1.202 0.878 1.307 1.9665
569.049 1.7958 1.349 1.62013 1.8701 1.6863 1.63445 1.7459 1.8023 1.7722 1.59621
588.339 1.8409 1.9525 1.60986 1.6119 1.59932 1.641 1.54198 1.438 1.283 1.288
607.628 1.7297 1.57172 1.138 1.323 1.8852 1.7682 1.5846 1.5472 1.62625 1.7876
626.918 1.851 1.8674 1.6589 1.7027 1.59811 1.59916 1.4461 1.56733 1.9919 1.9162
646.208 1.9273 2.009 1.7981 1.7168 1.7627 1.7343 1.8947 1.7633 1.5261 1.57264
665.498 1.643 1.59219 1.4474 1.57326 1.59187 1.377 1.57181 1.8656 1.8224 1.7681
684.787 1.7922 1.62648 1.4829 1.62054 1.8218 1.9659 2.0244 1.893 1.9494 1.8343
704.077 1.7357 1.7245 1.8764 1.9046 1.7236 1.93 2.1648 2.0371 1.9977 2.0061
723.367 1.6716 1.7438 1.6438 1.424 1.818 2.0928 1.9524 2.0445 1.982 1.7519
742.657 1.7727 1.7906 1.6545 1.747 1.7915 1.63612 1.7416 1.9045 1.7139 1.6104
761.947 1.944 2.0204 1.7729 1.6712 1.6023 1.4991 1.54095 1.7068 1.9576 1.7093
781.236 1.4941 1.6776 1.4471 1.4578 1.9463 2.0485 1.8516 1.7978 2.1031 1.8998
800.526 1.411 1.53963 1.62662 1.6626 1.6531 1.4892 1.4855 1.388 1.35 1.57356
819.816 1.55253 1.7758 2.0875 1.9269 1.62868 1.59643 1.59078 1.6658 1.7013 1.60716
839.106 1.8174 1.8609 1.7567 2.0089 2.0219 1.8011 2.045 2.1713 2.0789 2.0025
858.395 1.8668 1.6723 1.8558 2.0968 2.1406 2.0228 1.7242 1.8222 2.368 2.63
877.685 2.4075 2.3675 2.5061 2.478 2.5243 2.68 2.84 3.08 3.06 3.27
896.975 3.29 3.15 3.18 3.3 3.52 3.7 3.64 3.48 3.85 4.04
916.265 3.78 4.04 4.31 4.1 3.87 3.71 3.57 3.6 3.5 3.34
935.555 3.48 3.27 3.2 3.48 3.61 3.29 2.94 2.93 2.8 2.6
954.844 2.61 2.4277 2.2039 2.3985 2.5116 2.3973 2.4351 2.4028 2.59 2.57
974.134 2.2806 2.2912 2.2925 2.3732 2.5252 2.64 2.55 2.5077 2.3895 2.3838
993.424 2.3662 2.2029 2.1143 2.2135 2.3528 2.2932 2.4053 2.57 2.61 2.75
1012.714 3.14 3.17 3.2 3.28 2.87 2.71 2.79 2.61 2.59 2.64
1032.003 2.83 3.08 3.21 3.04 2.74 2.74 2.89 3.11 3.09 2.96
1051.293 3.17 3.51 3.77 4.07 4.36 4.46 4.26 4.01 4.17 4.5
1070.583 4.67 4.3 3.8 3.57 3.57 3.53 2.85 2.4867 2.6 2.68
1089.873 3.22 3.35 2.57 2.2498 2.2808 2.1623 2.2487 2.89 2.64 2.1517
1109.163 2.2161 2.237 1.9874 1.9709 2.139 2.0147 1.7909 1.7147 1.8327 2.0612
1128.452 1.9083 1.8939 2.2151 2.2421 1.7209 1.57259 1.8183 1.6468 1.6915 1.59334
1147.742 1.62952 2.2983 1.9633 1.7289 2.0523 1.9747 2.2099 2.58 2.69 2.2462
1167.032 1.8568 1.7665 1.8752 2.188 2.3448 2.1963 2.4143 2.89 2.94 2.73
1186.322 2.64 2.513 2.167 2.163 2.57 2.71 2.76 2.89 2.3347 2.2063
1205.611 2.88 2.83 2.64 2.77 2.62 2.4589 2.92 3.06 2.6 2.61
1224.901 2.4266 2.3898 2.2797 1.9792 2.3944 2.3007 1.7793 1.6784 1.782 1.9206
1244.191 1.7952 1.7751 1.9416 1.8063 1.7518 1.6625 1.237 0.858 0.41 0.23
1263.481 0.542 0.622 0.849 0.771 0.761 0.759 0.786 0.895 0.566 0.39
1282.771 0.45 0.768 0.855 0.777 0.704 0.773 0.921 0.911 1.056 1.254
1302.060 1.125 1.028 1.129 1.214 1.386 1.435 1.386 1.433 1.441 1.4456
1321.350 1.4578 1.4755 1.427 1.395 1.4863 1.4418 1.437 1.56919 1.6709 1.6843
1340.640 1.669 1.7103 1.7503 1.7643 1.7172 1.7767 1.7953 1.6956 1.7103 1.7668
1359.930 1.8522 1.8438 1.8354 1.8449 1.8628 1.8958 1.8927 1.8689 1.8813 1.9555
1379.219 1.9677 1.9734 1.9185 1.8224 1.7278 1.8015 1.8618 1.8205 1.8004 1.7883
1398.509 1.7735 1.7802 1.8204 1.8303 1.8753 1.8661 1.8928 1.9615 1.9558 1.9125
1417.799 1.9821 2.048 2.0006 2.036 2.1307 2.1923 2.2025 2.1431 2.1444 2.1833
1437.089 2.2101 2.2969 2.2418 2.2279 2.419 2.4179 2.4378 2.66 2.71 2.67
1456.378 2.73 2.68 2.57 2.6 2.64 2.65 2.6 2.67 2.57 2.2416
1475.668 2.1082 2.0747 2.1598 2.2017 2.1622 2.0849 2.0331 2.0309 2.0461 2.0015
1494.958 1.9506 1.9713 1.9407 1.9035 1.9881 2.0331 2.0251 2.0141 1.9859 1.9398
1514.248 1.9041 1.9231 1.9385 1.9753 1.9856 2.0156 2.0034 1.9978 1.9931 2.0207
1533.538 2.0045 1.9781 2.0374 1.9735 1.8294 1.8498 1.9127 1.9143 1.9169 1.984
1552.827 2.0278 2.0142 1.9594 1.839 1.81 1.8621 1.8359 1.9 1.9781 1.9666
1572.117 1.9064 1.7977 1.8032 1.7431 1.6571 1.7088 1.7078 1.7122 1.7664 1.7962
1591.407 1.8087 1.7175 1.7182 1.6871 1.7192 1.8376 1.7113 1.61707 1.6593 1.6944
1610.697 1.6474 1.6666 1.6756 1.6544 1.6823 1.6552 1.6802 1.6943 1.6554 1.58951
1629.986 1.59522 1.63916 1.6669 1.59709 1.54706 1.54917 1.53129 1.54241 1.58978 1.62509
1649.276 1.63543 1.55174 1.53819 1.6759 1.7176 1.749 1.8431 1.7689 1.6524 1.63056
1668.566 1.55127 1.55463 1.55524 1.54284 1.6512 1.7554 1.7582 1.6706 1.62386 1.6434
1687.856 1.63598 1.56177 1.5133 1.58687 1.6427 1.7075 1.59461 1.57898 1.6922 1.6518
1707.146 1.6577 1.6669 1.6598 1.60309 1.55914 1.57216 1.59515 1.57926 1.56874 1.63196
1726.435 1.7276 1.7063 1.6587 1.6648 1.6448 1.6644 1.62513 1.6525 1.61946 1.61857
1745.725 1.7755 1.772 1.7719 1.8549 1.8468 1.8325 1.9392 2.0318 2.1099 2.205
1765.015 2.1837 2.237 2.4272 2.57 2.62 2.73 2.93 3.14 3.34 3.68
1784.305 4.1 4.45 4.8 5.3 6.01 6.88 7.94 9.03 10.14 11.18
1803.594 12.09 12.39 11.73 10.7 9.53 8.38 7.39 6.58 5.83 5.23
1822.884 4.76 4.35 4.06 3.74 3.51 3.45 3.38 3.22 3.06 2.98
1842.174 2.96 2.93 2.94 2.91 2.81 2.72 2.77 2.85 2.93 2.97
1861.464 3.09 3.2 3.29 3.57 3.78 3.95 4.16 4.34 4.33 4.13
1880.754 3.83 3.48 3.26 3 2.7 2.56 2.4787 2.3368 2.2506 2.1836
1900.043 2.0821 2.0476 1.9997 1.9699 1.9738 2.0281 2.1013 2.0339 1.89 1.8906
1919.333 1.9355 1.919 1.9923 1.999 1.9412 1.8998 1.9214 1.9186 1.8515 1.9544
1938.623 2.0176 1.9697 1.9196 1.8799 1.8523 1.8742 1.8827 1.822 1.7364 1.7252
1957.913 1.8127 1.8201 1.8014 1.8331 1.8338 1.8224 1.8876 1.923 1.8339 1.8131
1977.202 1.8356 1.8025 1.8506 1.9219 1.931 1.8638 1.7967 1.7965 1.8851 1.899
1996.492 1.8402 1.7468 1.7886 1.8713 1.8301 1.786 1.8362 1.9137 1.806 1.7558
2015.782 1.7481 1.7998 1.8634 1.8671 1.9036 1.8534 1.821 1.8867 1.9475 1.9052
2035.072 1.85 1.9045 1.9104 1.85 1.8288 1.8849 1.9898 1.9538 1.9508 1.8279
2054.362 1.62108 1.6652 1.7783 1.7993 1.813 1.907 1.8671 1.7661 1.7754 1.8245
2073.651 1.7854 1.7965 1.7865 1.7881 1.9391 1.9728 1.8581 1.8852 1.9157 1.8695
2092.941 1.8857 1.8649 1.8504 1.8485 1.8242 1.8889 1.9837 2.0055 1.9491 1.9029
2112.231 1.884 1.8282 1.8061 1.8583 1.9843 2.014 1.9301 1.9359 1.9392 1.8579
2131.521 1.8926 1.9227 1.8787 1.7716 1.8393 1.9243 1.9316 1.9678 1.918 1.8902
2150.810 1.8937 1.8224 1.7871 1.8495 1.8148 1.8352 1.823 1.8896 1.9313 1.8689
2170.100 2.0187 2.112 2.032 1.9719 2.0012 1.9187 1.8695 1.9843 1.9902 1.9426
2189.390 2.0299 2.0398 1.8932 1.9058 1.9772 2.0426 2.0354 1.9494 1.9665 1.9597
2208.680 1.9325 1.9117 1.8658 1.7765 1.8029 1.9323 1.866 1.6869 1.7515 1.9342
2227.970 1.9616 1.8943 1.8295 1.8087 1.8081 1.7699 1.696 1.7636 1.9384 1.9528
2247.259 1.8362 1.8097 1.8021 1.7722 1.8267 1.9584 1.9458 1.9169 1.9245 1.7769
2266.549 1.7508 1.8602 1.9845 1.9799 1.838 1.8657 1.9482 1.9191 1.8412 1.8492
2285.839 1.9065 1.909 2.0456 2.0317 1.9372 1.93 1.9081 1.9353 1.9272 1.9762
2305.129 1.9601 1.9159 1.8766 1.8936 1.8993 1.9124 2.0078 2.0666 2.0596 2.0163
2324.418 2.011 2.006 2.0238 2.015 1.8245 1.8732 2.1232 2.07 1.9141 1.7716
2343.708 1.7117 1.8858 1.9198 1.8126 1.8021 1.8045 1.8099 1.7022 1.679 1.7301
2362.998 1.7134 1.7012 1.7326 1.7286 1.7429 1.7867 1.8091 1.8422 1.9213 1.8477
2382.288 1.7875 1.8037 1.7841 1.8374 1.896 1.8802 1.7367 1.7406 1.754 1.62074
2401.578 1.53152 1.63204 1.7165 1.7125 1.6944 1.7178 1.8662 1.9873 2.0454 2.0192
2420.867 1.8988 1.8571 1.8133 1.7599 1.8531 1.8939 1.8961 1.9641 1.9349 1.9138
2440.157 2.0514 2.0973 1.8989 1.9085 2.0216 1.9753 1.9672 1.8531 1.8504 1.8911
2459.447 1.8067 1.7986 1.8714 1.9992 2.029 1.9196 1.845 1.988 2.1402 2.1055
2478.737 1.9908 1.9931 1.9855 2.0139 1.9977 1.9973 2.0481 1.864 1.7756 1.8946
2498.026 2.1409 2.2516 2.081 1.8541 1.8641 2.0229 2.1219 2.1797 2.0301 1.7301
2517.316 1.7737 1.9293 1.8518 1.8591 1.8656 1.852 1.8243 1.8252 1.9371 1.9613
2536.606 1.8412 1.8054 1.9505 2.0475 1.9425 1.8104 1.918 2.1095 2.1979 2.1793
2555.896 2.075 1.9639 1.8605 1.7909 1.8902 1.8956 1.8825 2.0558 2.0226 1.9267
2575.186 1.9127 2.0036 2.0695 1.9829 1.8827 1.8484 1.9899 2.1018 2.1325 2.0865
2594.475 2.0138 1.9862 1.9942 1.8824 1.874 1.9856 2.0223 1.9941 1.9471 1.9951
2613.765 1.8721 1.9351 2.082 2.0876 2.1119 2.0647 1.9881 1.9466 1.9983 2.021
2633.055 2.0983 1.9947 1.9038 1.8379 1.6437 1.7728 2.0296 2.0906 2.0987 1.9879
2652.345 1.7985 1.6286 1.6861 1.9054 1.8473 1.9248 2.1173 1.9939 1.9081 1.9504
2671.634 1.927 1.8787 1.8888 1.9673 1.9112 1.9805 2.1648 2.0949 1.9421 1.9852
2690.924 2.0182 2.0734 2.1737 2.0838 1.997 1.9129 1.8115 1.8457 1.8135 1.8505
2710.214 2.0676 2.1447 2.1215 2.0939 1.9925 1.9436 1.9148 1.9208 1.8036 1.7287
2729.504 1.9463 1.9531 2.0327 2.1102 1.9376 1.9565 1.9153 1.9414 1.9711 1.8519
2748.794 1.8606 1.7283 1.8217 2.1182 2.0221 1.9417 1.9705 1.9419 1.9936 2.0793
2768.083 2.042 1.9514 2.1044 2.2715 2.1501 2.0459 2.0556 2.0594 2.1094 2.1175
2787.373 2.0488 2.168 2.2468 2.0136 2.0133 2.2809 2.2856 2.1348 2.1452 2.2588
2806.663 2.3331 2.1574 2.0188 2.2168 2.3559 2.2861 2.2415 2.4762 2.69 2.59
2825.953 2.59 2.67 2.5085 2.3864 2.55 2.77 2.7 2.88 2.99 2.93
2845.242 3.1 3.33 3.52 3.74 4.08 4.5 4.78 4.98 5.26 5.43
2864.532 5.48 5.4 5.4 5.19 5.05 4.82 4.45 4.33 4.41 4.46
2883.822 4.34 4.34 4.27 4.04 4.09 4.2 4.1 4.14 4.33 4.4
2903.112 4.5 4.74 4.92 5.24 5.39 5.52 6.03 6.55 7.15 7.69
2922.401 8.11 8.85 9.83 10.6 11.05 11.3 11.21 11.13 11.01 10.39
2941.691 9.52 8.55 7.92 7.47 6.94 6.52 6.36 6.24 6.17 6.16
2960.981 5.89 5.91 6.05 5.98 5.99 5.88 5.52 5.25 4.82 4.27
2980.271 3.96 3.6 3.24 3.07 3.01 2.94 2.94 2.82 2.55 2.4432
2999.561 2.5295 2.55 2.4133 2.67 2.61 2.4168 2.3191 2.1137 2.0122 1.952
3018.850 2.0382 2.1581 2.3831 2.4594 2.1897 2.227 2.4329 2.2436 2.1353 2.0483
3038.140 2.2397 2.4187 2.3846 2.3675 2.1574 2.0744 2.124 2.2052 2.2763 2.2964
3057.430 2.2249 2.1668 2.1544 2.139 2.0682 1.9944 2.2286 2.4143 2.4495 2.1184
3076.720 1.9139 2.2648 2.3403 2.0879 2.1166 2.23 2.1945 2.0261 1.9264 2.025
3096.009 1.9119 1.8727 2.1561 2.2175 1.8368 1.7129 1.8024 1.6847 1.7639 2.0047
3115.299 2.0449 2.1553 2.32 2.3047 2.2091 2.1076 1.9438 1.8375 1.9137 1.9329
3134.589 1.9683 2.0408 1.9745 1.9972 1.9184 1.9071 2.0989 2.1602 2.0712 1.9289
3153.879 2.0738 2.122 1.9011 1.6975 1.54803 1.6077 1.9235 2.0456 2.1299 2.2385
3173.169 1.9747 1.9522 2.1173 2.1558 2.0563 1.9829 1.9066 1.7963 2.0607 2.2816
3192.458 2.0206 1.7259 1.9816 2.3254 2.2609 2.1654 2.1469 2.1529 2.084 2.1116
3211.748 2.2045 1.9828 2.0353 2.1227 2.0885 2.1597 2.1752 2.1962 2.2376 2.2357
3231.038 2.2932 2.5396 2.54 2.3565 2.2067 2.0775 1.9434 1.9973 2.1239 2.2993
3250.328 2.55 2.3099 2.0312 2.1742 2.1131 2.0986 2.0653 1.873 1.6462 1.58687
3269.617 1.8274 2.0012 2.063 2.0695 2.0259 1.9675 2.1935 1.9875 1.7668 1.8925
3288.907 1.8031 2.005 2.1379 1.9798 1.8982 1.8936 2.0373 2.3003 2.1298 1.8043
3308.197 1.8516 1.8662 1.6541 1.6985 1.878 1.9425 2.18 2.1028 1.9114 2.1129
3327.487 2.359 2.1974 1.9298 1.8852 1.9135 1.8417 1.8264 2.1043 2.1732 1.992
3346.777 1.764 1.6786 1.8704 2.2213 2.2867 2.1495 1.9103 1.8387 2.0631 2.1289
3366.066 2.1475 2.0827 2.0898 2.3007 2.54 2.4654 2.4362 2.4065 2.2255 1.9823
3385.356 1.944 1.9195 1.9104 2.0945 2.0603 2.0711 2.1739 2.169 2.0343 2.1097
3404.646 2.2716 1.91 1.9655 2.2364 2.3647 2.1617 1.6816 2.0364 2.438 2.525
3423.936 2.4072 2.1402 2.1086 2.0737 1.9364 2.0367 2.0154 1.9245 1.8832 2.0389
3443.225 2.1922 2.1964 2.2669 2.253 2.1778 2.1786 2.2952 2.3929 2.1839 1.8411
3462.515 1.9793 2.0713 2.0006 1.9833 2.1369 2.3001 2.2035 2.1181 1.9769 1.7528
3481.805 1.7558 1.8538 1.9185 2.0715 2.0164 1.9494 1.9027 1.56728 1.4569 1.4936
3501.095 1.7872 2.1626 2.0118 2.1383 2.1671 2.0463 2.2913 2.3115 2.2946 2.2665
3520.385 2.1994 2.3717 2.3321 2.5254 2.63 2.3575 2.1964 2.0127 1.881 1.9318
3539.674 2.0834 2.2584 2.371 2.4176 2.3999 2.1541 2.1792 2.3577 2.4437 2.1979
3558.964 1.9486 1.9652 2.1604 2.2996 1.9294 1.882 2.1812 2.109 2.0488 1.934
3578.254 1.6281 1.7278 1.8639 1.9816 2.1129 2.2207 2.084 2.0251 2.1048 1.9779
3597.544 2.1096 2.488 2.76 2.5199 2.1958 2.3398 2.54 2.3481 2.417 2.4282
3616.833 2.257 2.4337 2.6 2.4527 2.3011 2.2512 2.3225 2.2578 2.022 2.1982
3636.123 2.4402 2.4178 2.2484 2.3059 2.56 2.3831 2.2322 2.3747 2.3028 2.2033
3655.413 2.1417 2.2722 2.2514 2.4061 2.328 2.0798 2.2137 2.0911 1.9922 2.2291
3674.703 2.3337 2.1748 2.0116 2.0429 2.0129 1.6951 1.767 1.8879 2.0026 2.2228
3693.993 2.2426 2.4896 2.3622 2.1277 2.0733 2.1252 2.3 2.1675 2.2193 2.3186
3713.282 2.2792 2.2196 2.1331 2.195 2.2585 2.2955 2.2572 2.1752 2.2521 2.1122
3732.572 1.8401 2.0011 2.292 2.1142 2.2453 2.388 2.0428 1.935 2.1397 2.213
3751.862 1.9775 2.1086 2.4401 2.4434 2.5212 2.2413 1.9635 2.0372 2.1226 2.3694
3771.152 2.4911 2.3224 2.2774 2.68 2.55 2.2002 1.9415 1.9991 2.0115 1.8486
3790.441 2.089 2.1334 2.2573 2.2903 2.0714 2.1424 2.4528 2.56 2.3842 2.5149
3809.731 2.3534 2.0526 2.333 2.4996 2.2989 2.1643 2.1519 2.2756 2.1184 1.8304
3829.021 2.0475 2.2376 2.0712 2.0527 2.3026 2.1722 2.1405 2.2278 2.2447 2.3195
3848.311 2.2798 2.398 2.4421 2.4039 2.2499 2.1425 2.3159 2.3976 2.381 2.3726
3867.601 2.4931 2.4442 1.982 1.9247 2.2861 2.4156 2.322 2.0098 1.9476 2.1431
3886.890 1.8935 1.8711 2.144 2.0006 1.9615 2.158 2.3396 2.4727 2.4717 2.1423
3906.180 2.0568 2.1114 2.0344 1.8743 2.0138 2.3008 1.972 1.7993 1.8589 2.0105
3925.470 2.0998 2.0131 2.0453 2.163 2.3426 2.3786 2.4079 2.4556 2.2292 1.9148
3944.760 2.0824 2.1355 2.1083 2.258 2.4849 2.5269 2.57 2.57 2.4072 2.72
3964.049 2.67 2.1739 2.2089 2.2497 2.2334 2.323 2.1569 2.1285 2.1938 2.2204
3983.339 2.1697 2.2254 2.3983 2.61 2.5389 2.0978 1.9237 2.0215 2.2787 2.4072
##END=
