##TITLE=Ethyl .alpha.-bromophenylacetate
##JCAMP-DX=4.24
##DATA TYPE=INFRARED SPECTRUM
##ORIGIN=EPA-IR VAPOR PHASE LIBRARY
##OWNER=SRD/NIST
Collection (C) 2018 copyright by the U.S. Secretary of Commerce
on behalf of the United States of America. All rights reserved.
##CAS REGISTRY NO=2882-19-1
##MOLFORM=C 10 H 11 Br O 2
##$NIST SOURCE=MSDC-IR
##STATE=gas
##XUNITS=1/CM
##YUNITS=ABSORBANCE
##XFACTOR=1.
##YFACTOR=0.001
##DELTAX=1.92898
##FIRSTX=549.8
##LASTX=4000.7
##FIRSTY=5.517
##MAXX=4000.7
##MINX=549.759
##MAXY=0.082097
##MINY=0
##NPOINTS=1790
##XYDATA=(X++(Y..Y))
549.759 5.517 6.047 6.337 6.567 7.137 7.507 7.767 7.937 8.017 8.187
569.049 8.037 8.017 7.667 7.147 6.757 6.347 5.987 5.667 5.217 4.617
588.339 4.117 3.927 3.637 3.177 3.117 3.097 3.077 2.907 2.667 2.767
607.628 2.647 2.167 2.147 2.287 2.517 2.707 2.707 2.847 3.047 3.027
626.918 3.007 3.157 3.277 3.547 3.567 3.497 3.707 4.017 3.967 4.047
646.208 4.287 4.537 4.917 5.077 5.527 6.117 6.607 7.407 8.327 9.047
665.498 9.787 10.927 12.207 13.027 13.857 14.997 16.137 17.467 19.177 21.237
684.787 23.617 25.987 28.067 29.547 30.477 30.917 30.667 29.717 28.547 27.387
704.077 26.337 25.317 24.067 22.907 21.737 20.367 19.227 17.887 16.307 15.087
723.367 13.927 12.967 12.307 11.687 11.117 10.667 10.117 9.627 9.357 9.017
742.657 8.597 8.247 7.807 7.127 6.627 6.297 5.917 5.837 5.707 5.507
761.947 5.257 4.997 4.977 4.937 4.837 4.677 4.707 4.547 4.207 4.217
781.236 4.177 4.037 3.937 3.567 3.257 3.197 3.177 3.097 3.077 3.107
800.526 2.817 2.667 2.847 2.767 2.767 2.757 2.627 2.717 2.777 2.767
819.816 2.787 2.827 2.957 3.097 3.257 3.467 3.677 3.997 4.157 4.127
839.106 4.267 4.487 4.867 5.157 5.197 5.247 5.237 5.417 5.697 5.857
858.395 5.957 6.057 6.097 6.097 6.187 6.127 6.067 5.907 5.537 5.147
877.685 4.777 4.417 3.947 3.637 3.227 2.867 2.657 2.417 2.427 2.457
896.975 2.297 2.347 2.517 2.637 2.857 3.077 3.217 3.137 3.147 3.207
916.265 3.167 3.207 2.987 2.827 2.937 3.297 3.627 3.907 4.187 4.287
935.555 4.507 4.687 4.817 4.827 4.807 4.777 4.607 4.557 4.507 4.207
954.844 3.887 3.627 3.357 3.147 3.107 3.067 2.917 2.827 2.697 2.747
974.134 2.777 2.807 3.027 3.147 3.217 3.247 3.237 3.357 3.807 4.307
993.424 4.607 5.067 5.557 6.137 6.877 7.817 8.847 9.927 11.247 12.957
1012.714 15.017 17.177 19.677 22.537 25.857 29.017 31.567 33.857 35.307 35.747
1032.003 35.317 33.807 31.687 28.987 25.737 22.557 19.907 17.217 14.777 12.987
1051.293 11.577 10.377 9.297 8.697 8.167 7.777 7.717 7.757 7.807 7.907
1070.583 7.947 7.727 7.777 7.967 7.777 7.837 7.977 8.397 9.217 9.787
1089.873 10.657 11.907 13.077 14.327 15.057 15.287 15.807 16.467 17.077 17.567
1109.163 18.327 19.257 20.857 22.787 25.137 28.767 33.137 38.447 44.877 52.197
1128.452 59.847 67.227 73.667 78.837 82.057 82.097 79.417 74.897 68.527 61.067
1147.742 53.857 47.787 43.057 39.067 35.987 33.637 31.947 31.117 30.727 30.757
1167.032 31.177 32.057 32.987 33.717 34.357 35.027 35.287 35.077 34.967 34.747
1186.322 34.547 34.557 35.037 36.067 37.887 40.627 43.677 47.207 50.817 53.877
1205.611 56.337 57.507 57.087 55.737 53.107 49.467 45.707 41.817 38.947 37.377
1224.901 36.327 36.087 36.657 37.597 38.707 40.167 41.857 43.807 45.897 47.687
1244.191 49.137 50.157 50.667 50.617 50.287 49.507 48.577 47.627 46.497 45.387
1263.481 44.677 43.917 42.497 40.847 38.977 36.997 34.947 32.767 30.757 29.187
1282.771 27.987 26.997 26.267 25.977 26.077 26.477 26.927 27.247 27.407 27.277
1302.060 26.717 25.777 24.517 23.047 21.487 19.877 18.257 16.837 15.737 14.717
1321.350 13.787 13.067 12.507 12.177 12.007 11.847 11.697 11.627 11.727 11.877
1340.640 12.007 12.037 11.857 11.537 11.037 10.447 9.787 9.087 8.547 8.347
1359.930 8.617 9.257 10.197 11.397 12.427 13.047 13.337 13.227 12.627 11.657
1379.219 10.467 9.277 8.297 7.657 7.197 6.877 6.697 6.517 6.387 6.307
1398.509 6.167 5.967 5.837 5.667 5.477 5.307 5.177 5.027 4.867 4.777
1417.799 4.747 4.727 4.697 4.737 4.757 4.847 4.957 5.047 5.237 5.477
1437.089 5.747 6.067 6.537 7.107 7.837 8.757 9.667 10.477 11.207 11.727
1456.378 11.807 11.367 10.747 10.217 9.777 9.327 8.967 8.747 8.487 8.227
1475.668 7.957 7.587 7.237 6.977 6.847 6.937 7.287 7.947 8.717 9.327
1494.958 9.677 9.667 9.207 8.337 7.177 5.837 4.507 3.467 2.867 2.547
1514.248 2.407 2.357 2.257 2.147 2.127 2.187 2.187 2.127 2.067 2.057
1533.538 2.067 2.027 2.027 1.977 1.937 1.877 1.817 1.807 1.787 1.757
1552.827 1.727 1.697 1.687 1.777 1.767 1.707 1.717 1.777 1.847 1.867
1572.117 1.857 1.927 2.087 2.217 2.277 2.357 2.487 2.597 2.647 2.657
1591.407 2.617 2.607 2.637 2.717 2.757 2.677 2.647 2.637 2.527 2.347
1610.697 2.167 2.027 1.927 1.857 1.797 1.707 1.677 1.677 1.627 1.567
1629.986 1.497 1.507 1.497 1.537 1.507 1.477 1.547 1.507 1.537 1.597
1649.276 1.657 1.687 1.637 1.667 1.687 1.707 1.797 1.857 1.807 1.787
1668.566 1.867 1.977 2.087 2.137 2.197 2.277 2.347 2.397 2.537 2.677
1687.856 2.827 2.967 3.117 3.357 3.627 3.877 4.207 4.537 4.807 5.127
1707.146 5.447 5.767 6.047 6.457 6.937 7.487 8.157 8.937 9.917 11.087
1726.435 12.487 14.227 16.557 19.667 24.097 29.837 36.647 44.807 53.357 62.087
1745.725 70.337 76.887 79.127 76.147 71.867 68.887 66.167 63.727 62.537 63.097
1765.015 63.627 61.427 56.027 50.067 44.167 38.387 32.767 27.617 23.217 19.677
1784.305 16.977 14.797 13.007 11.507 10.367 9.337 8.357 7.537 6.787 6.057
1803.594 5.387 4.787 4.287 3.897 3.627 3.357 3.127 2.967 2.837 2.687
1822.884 2.537 2.397 2.287 2.187 2.097 2.047 2.007 1.927 1.877 1.897
1842.174 1.927 1.897 1.827 1.797 1.787 1.797 1.837 1.907 1.967 1.977
1861.464 2.057 2.127 2.167 2.257 2.347 2.347 2.387 2.427 2.407 2.407
1880.754 2.417 2.407 2.397 2.387 2.407 2.377 2.307 2.247 2.137 2.037
1900.043 1.867 1.737 1.687 1.627 1.547 1.497 1.467 1.407 1.347 1.357
1919.333 1.347 1.337 1.367 1.387 1.427 1.437 1.447 1.587 1.697 1.747
1938.623 1.897 2.027 2.047 2.037 2.037 1.957 1.887 1.857 1.857 1.887
1957.913 1.897 1.877 1.837 1.747 1.607 1.467 1.367 1.267 1.1234 1.0542
1977.202 0.9874 0.9625 1.0585 1.0797 0.9946 0.9784 1.0072 0.9916 0.9521 0.9657
1996.492 1.0318 1.0526 0.998 0.9781 1.0025 1.0386 1.03 0.9803 0.9561 0.9276
2015.782 0.9255 0.8995 0.8622 0.8969 0.9266 0.9008 0.8703 0.8626 0.8686 0.8374
2035.072 0.8358 0.864 0.8618 0.8385 0.8481 0.8331 0.8202 0.8211 0.8239 0.8206
2054.362 0.8526 0.8535 0.8186 0.8064 0.7904 0.8497 0.8355 0.7692 0.8173 0.864
2073.651 0.799 0.7934 0.8154 0.8281 0.8575 0.8911 0.9537 0.9688 0.9051 0.8276
2092.941 0.848 0.8916 0.8258 0.7781 0.7941 0.8316 0.8782 0.873 0.8102 0.8044
2112.231 0.8659 0.8283 0.7917 0.8002 0.7897 0.7461 0.7832 0.7783 0.6756 0.666
2131.521 0.6697 0.7205 0.75 0.681 0.6247 0.6266 0.691 0.6776 0.6562 0.6808
2150.810 0.5769 0.5375 0.6043 0.6454 0.6035 0.5867 0.5908 0.5852 0.6102 0.5782
2170.100 0.5796 0.6015 0.614 0.6375 0.6152 0.5926 0.5978 0.5993 0.6057 0.6026
2189.390 0.5967 0.5452 0.5202 0.5523 0.569 0.5097 0.4972 0.4884 0.5301 0.6123
2208.680 0.6091 0.5614 0.5181 0.5895 0.58 0.4776 0.5442 0.5907 0.5241 0.4852
2227.970 0.4897 0.5013 0.4702 0.5162 0.6076 0.6249 0.6394 0.6076 0.5436 0.623
2247.259 0.7077 0.663 0.6112 0.6554 0.6738 0.6491 0.6713 0.7157 0.685 0.6629
2266.549 0.6948 0.6875 0.6415 0.6437 0.7133 0.7186 0.6741 0.6569 0.6994 0.7065
2285.839 0.6744 0.6919 0.6809 0.652 0.653 0.6641 0.6366 0.6028 0.6471 0.7204
2305.129 0.727 0.7533 0.8214 0.8392 0.8858 0.885 0.8375 0.8339 0.8089 0.8211
2324.418 0.7929 0.8033 0.8052 0.7817 0.8615 0.9061 0.902 0.8555 0.7879 0.7929
2343.708 0.8926 0.9179 0.8192 0.8012 0.7887 0.7065 0.6522 0.7029 0.7933 0.7692
2362.998 0.6738 0.63 0.6298 0.6318 0.6762 0.6362 0.5828 0.5601 0.5851 0.6293
2382.288 0.597 0.6038 0.5828 0.6261 0.6852 0.5866 0.5933 0.6265 0.6046 0.6009
2401.578 0.5805 0.6015 0.6433 0.5949 0.5445 0.5957 0.629 0.6162 0.5981 0.5603
2420.867 0.5509 0.6012 0.6224 0.6037 0.5677 0.4699 0.4833 0.6153 0.6312 0.6063
2440.157 0.5705 0.5952 0.5911 0.5454 0.5282 0.5275 0.4824 0.4465 0.5079 0.6023
2459.447 0.6773 0.6285 0.5854 0.6109 0.5965 0.5585 0.5778 0.5567 0.5743 0.5941
2478.737 0.5621 0.5436 0.4921 0.5482 0.6401 0.6365 0.6162 0.6036 0.5165 0.484
2498.026 0.5328 0.4948 0.4903 0.536 0.5356 0.5398 0.5626 0.5588 0.4948 0.415
2517.316 0.4168 0.4507 0.4902 0.4898 0.4383 0.4341 0.4685 0.5108 0.5486 0.4737
2536.606 0.4061 0.4179 0.4886 0.5258 0.4555 0.4544 0.4926 0.5017 0.4968 0.5451
2555.896 0.5969 0.4946 0.4368 0.4396 0.4552 0.4794 0.453 0.3952 0.3928 0.4779
2575.186 0.4445 0.4145 0.4194 0.3947 0.4259 0.4306 0.4172 0.4549 0.4501 0.4303
2594.475 0.4452 0.4303 0.4124 0.4106 0.4799 0.5541 0.4955 0.4962 0.4809 0.462
2613.765 0.467 0.4233 0.5162 0.5522 0.4509 0.4618 0.4353 0.4114 0.4205 0.3811
2633.055 0.3744 0.3944 0.3977 0.34963 0.3058 0.34952 0.3683 0.31904 0.29181 0.30866
2652.345 0.29167 0.29976 0.32167 0.33027 0.35082 0.30423 0.24873 0.2224 0.34401 0.4018
2671.634 0.31236 0.27446 0.29528 0.3682 0.4754 0.4924 0.4191 0.36 0.357 0.4019
2690.924 0.3937 0.3495 0.34662 0.34457 0.3716 0.3812 0.4052 0.467 0.4074 0.30055
2710.214 0.34909 0.4204 0.3679 0.3621 0.33124 0.34847 0.4089 0.4061 0.4497 0.444
2729.504 0.374 0.4197 0.4692 0.4259 0.4243 0.5449 0.575 0.4751 0.5064 0.5948
2748.794 0.5967 0.6046 0.6422 0.62 0.5767 0.5706 0.6427 0.6713 0.695 0.67
2768.083 0.6053 0.6103 0.6843 0.7662 0.7655 0.7406 0.8277 0.8576 0.7044 0.6855
2787.373 0.7136 0.6882 0.6961 0.6327 0.5649 0.6434 0.7106 0.6559 0.7223 0.7448
2806.663 0.6717 0.6842 0.7393 0.8251 0.8054 0.7779 0.8517 0.9467 1.0212 1.0855
2825.953 1.0821 1.0402 1.0008 0.9882 1.085 1.1553 1.0647 1.0334 1.1534 1.1438
2845.242 1.1923 1.267 1.277 1.327 1.407 1.437 1.497 1.567 1.617 1.727
2864.532 1.787 1.917 2.047 2.137 2.337 2.567 2.787 3.067 3.317 3.457
2883.822 3.567 3.707 3.847 3.857 3.827 3.797 3.837 3.987 4.117 4.297
2903.112 4.517 4.687 4.847 4.997 5.177 5.217 5.327 5.407 5.387 5.377
2922.401 5.287 5.427 5.567 5.777 6.177 6.577 7.147 7.977 8.787 9.557
2941.691 10.127 10.487 10.677 10.597 10.427 10.067 9.377 8.727 8.447 8.407
2960.981 8.617 9.057 9.507 10.097 10.907 11.777 12.767 13.877 15.207 16.787
2980.271 18.527 20.227 21.487 22.287 22.537 22.037 20.777 19.137 17.497 15.947
2999.561 14.647 13.497 12.517 11.787 11.157 10.557 9.917 9.357 8.847 8.417
3018.850 8.157 8.007 8.037 8.317 8.787 9.467 10.177 10.717 11.027 11.237
3038.140 11.217 10.807 10.197 9.377 8.517 7.887 7.247 6.887 6.927 7.047
3057.430 7.467 8.087 9.007 10.237 11.577 13.017 14.307 15.137 15.337 15.037
3076.720 14.317 13.157 11.787 10.377 9.167 8.267 7.727 7.357 7.137 6.967
3096.009 6.547 6.117 5.747 5.277 4.827 4.437 4.007 3.737 3.597 3.327
3115.299 2.917 2.547 2.327 2.177 1.877 1.487 1.297 1.267 1.1625 1.0514
3134.589 1.0692 0.9393 0.856 0.8406 0.7161 0.779 0.8814 0.7971 0.7987 0.9532
3153.879 0.9437 0.9731 1.0194 0.8839 0.7451 0.6397 0.6994 0.8104 0.8666 0.7962
3173.169 0.638 0.5733 0.6369 0.6788 0.6537 0.6618 0.5469 0.4979 0.5314 0.4863
3192.458 0.4545 0.4541 0.4524 0.3843 0.31538 0.3782 0.377 0.4279 0.5964 0.535
3211.748 0.527 0.5318 0.4784 0.4853 0.461 0.4204 0.4453 0.4793 0.423 0.29781
3231.038 0.256267 0.30431 0.3941 0.4243 0.2551 0.258644 0.3746 0.3633 0.3571 0.35225
3250.328 0.34212 0.3214 0.264106 0.236 0.076 0.085 0.1648 0.115 0.156 0.171
3269.617 0.163 0.26816 0.33448 0.30407 0.3571 0.33637 0.136 0.1799 0.329 0.2234
3288.907 0.2096 0.1706 0.1 0.213 0.25042 0.2351 0.2374 0.2115 0.135 0.072
3308.197 0.067 0.1868 0.24719 0.266476 0.2414 0.1588 0.122 0.1756 0.3744 0.30717
3327.487 0.2104 0.2727 0.2421 0.2401 0.4007 0.4516 0.26755 0.12 0.109 0.259225
3346.777 0.4057 0.4043 0.30631 0.2314 0.26877 0.1782 0.1 0.104 0.073 0.1959
3366.066 0.32438 0.30653 0.32469 0.32151 0.31882 0.31578 0.3209 0.33953 0.2372 0.232
3385.356 0.4329 0.4734 0.3572 0.4157 0.4684 0.4714 0.4343 0.27005 0.1696 0.1761
3404.646 0.1621 0.34432 0.5634 0.4403 0.28922 0.29688 0.4252 0.4645 0.3817 0.4146
3423.936 0.35133 0.149 0.115 0.33941 0.5329 0.5441 0.4322 0.263555 0.32396 0.5381
3443.225 0.6109 0.4919 0.5155 0.5674 0.4885 0.5385 0.5267 0.4146 0.574 0.7831
3462.515 0.6625 0.5371 0.6736 0.7186 0.6084 0.7274 0.9235 0.8376 0.8926 1.0837
3481.805 0.9726 0.928 0.9338 0.8643 0.6922 0.6027 0.8245 0.9668 0.8301 0.7793
3501.095 0.8398 0.8787 0.8559 0.7397 0.7852 0.7162 0.7079 0.8469 0.7825 0.7396
3520.385 0.7286 0.6047 0.5072 0.5049 0.5861 0.6121 0.5691 0.4646 0.4417 0.5256
3539.674 0.4767 0.3847 0.3581 0.29193 0.29288 0.4298 0.4486 0.26384 0.149 0.263236
3558.964 0.3952 0.4116 0.3605 0.28109 0.2263 0.1857 0.28031 0.3694 0.1966 0.2381
3578.254 0.35142 0.1689 0.1951 0.337 0.34216 0.26502 0.2097 0.3218 0.3072 0.2413
3597.544 0.2073 0.27753 0.3812 0.34654 0.35222 0.2212 0.2266 0.33638 0.29582 0.30019
3616.833 0.264602 0.2152 0.260009 0.2345 0.29961 0.457 0.4853 0.4979 0.4238 0.3777
3636.123 0.4003 0.4172 0.4538 0.4136 0.29847 0.3614 0.4047 0.377 0.35443 0.34604
3655.413 0.25299 0.1945 0.3544 0.4396 0.4265 0.3848 0.3834 0.30087 0.265931 0.32019
3674.703 0.395 0.4856 0.4472 0.4109 0.3981 0.28527 0.28757 0.34881 0.29162 0.2412
3693.993 0.25209 0.4099 0.4631 0.3903 0.4253 0.32085 0.32534 0.5128 0.5118 0.3647
3713.282 0.3593 0.3901 0.35362 0.4017 0.30391 0.11 0.115 0.263355 0.26964 0.29098
3732.572 0.3746 0.3623 0.2206 0.2378 0.27124 0.30442 0.25172 0.2321 0.4485 0.49
3751.862 0.3922 0.32927 0.30804 0.154 0.1596 0.2208 0.2248 0.1978 0.1755 0.27837
3771.152 0.3937 0.3798 0.3674 0.3642 0.29455 0.2436 0.236 0.105 0 0.008
3790.441 0.098 0.2115 0.143 0.2185 0.30521 0.1941 0.1584 0.244 0.32571 0.3962
3809.731 0.4269 0.33214 0.29755 0.29765 0.2335 0.1644 0.1864 0.2043 0.1599 0.2075
3829.021 0.2204 0.3767 0.4253 0.33576 0.431 0.3718 0.2002 0.1851 0.137 0.151
3848.311 0.27892 0.27768 0.26774 0.24936 0.262278 0.29446 0.31942 0.34968 0.4372 0.5419
3867.601 0.4315 0.27191 0.1997 0.236 0.30565 0.2418 0.2131 0.4025 0.3681 0.1979
3886.890 0.129 0.2147 0.260008 0.067 0.136 0.3183 0.4197 0.4339 0.27285 0.31777
3906.180 0.35085 0.2233 0.24786 0.3886 0.3653 0.3529 0.3611 0.30404 0.32511 0.30012
3925.470 0.2858 0.261315 0.1997 0.13 0.1897 0.4011 0.429 0.4236 0.34215 0.1578
3944.760 0.27102 0.4932 0.4758 0.2946 0.31985 0.31053 0.2964 0.31688 0.3572 0.4204
3964.049 0.31769 0.3626 0.4641 0.3662 0.104 0.099 0.2364 0.2122 0.25538 0.3591
3983.339 0.3749 0.4242 0.34166 0.164 0.263451 0.3748 0.4676 0.5127 0.3928 0.28796
##END=
