##TITLE=Nonylcyclohexane
##JCAMP-DX=4.24
##DATA TYPE=INFRARED SPECTRUM
##ORIGIN=NIST Mass Spectrometry Data Center
##OWNER=NIST Standard Reference Data Program
Collection (C) 2018 copyright by the U.S. Secretary of Commerce
on behalf of the United States of America. All rights reserved.
##CAS REGISTRY NO=2883-02-5
##MOLFORM=C 15 H 30
##$NIST SOURCE=MSDC-IR
##SPECTROMETER/DATA SYSTEM=HP-GC/MS/IRD
##STATE=gas
##XUNITS=1/CM
##YUNITS=ABSORBANCE
##XFACTOR=1.0
##YFACTOR=0.000008900
##DELTAX=4.0
##FIRSTX=550.0
##LASTX=3846.0
##FIRSTY=0.000249
##MAXX=3846
##MINX=550
##MAXY=0.089
##MINY=0
##NPOINTS=825
##XYDATA=(X++(Y..Y))
550.0 28 24 10 2 9 10 6 8 15 20
590.0 24 29 23 19 25 33 27 21 21 24
630.0 22 20 23 28 22 17 25 26 23 24
670.0 30 32 23 20 31 39 40 45 54 61
710.0 71 85 87 87 89 86 80 72 67 67
750.0 63 57 55 53 49 50 46 42 42 39
790.0 39 37 39 39 34 36 37 38 39 45
830.0 50 55 65 69 60 50 46 46 48 53
870.0 57 62 67 73 79 80 78 73 65 56
910.0 51 47 47 49 44 41 38 37 39 42
950.0 43 51 59 59 55 49 44 40 38 33
990.0 30 31 36 37 37 36 36 37 38 39
1030.0 40 39 36 32 33 33 31 30 29 32
1070.0 36 36 34 34 36 37 37 38 37 32
1110.0 28 27 29 27 24 25 26 27 23 24
1150.0 26 29 28 24 26 28 25 30 37 36
1190.0 34 33 31 32 33 34 36 37 37 40
1230.0 45 47 50 56 62 69 83 97 110 114
1270.0 110 103 96 92 88 88 91 94 97 100
1310.0 100 99 98 99 104 114 128 146 170 189
1350.0 197 187 174 164 155 147 136 130 127 119
1390.0 102 91 83 78 77 79 84 91 102 122
1430.0 152 199 274 379 506 625 688 680 621 535
1470.0 433 328 236 174 132 104 84 72 61 52
1510.0 47 42 38 34 31 29 27 24 20 19
1550.0 22 24 20 19 18 17 16 14 13 12
1590.0 12 14 15 13 11 11 12 12 10 9
1630.0 8 9 8 9 10 9 8 8 9 9
1670.0 7 8 9 11 9 8 9 9 8 9
1710.0 8 6 7 6 4 4 3 3 5 7
1750.0 6 6 7 8 7 8 6 5 5 4
1790.0 5 4 2 4 5 5 4 4 5 5
1830.0 3 3 4 2 0 3 5 4 4 5
1870.0 5 4 4 2 2 4 3 2 3 4
1910.0 2 3 2 2 3 3 2 2 2 1
1950.0 1 3 1 1 2 2 1 1 2 0
1990.0 0 0 2 2 1 4 5 4 5 6
2030.0 6 7 9 7 6 5 5 6 6 5
2070.0 6 5 4 3 4 3 2 1 2 3
2110.0 2 1 3 2 4 4 4 5 6 5
2150.0 4 3 3 4 5 6 8 8 7 6
2190.0 5 7 6 6 6 6 7 6 6 7
2230.0 6 5 5 4 3 3 6 7 6 5
2270.0 4 4 5 6 6 7 7 6 7 8
2310.0 7 8 6 6 8 9 9 7 8 9
2350.0 10 10 10 10 11 12 11 11 12 12
2390.0 12 11 10 10 11 11 11 10 9 11
2430.0 10 8 7 9 7 9 8 7 6 7
2470.0 9 12 12 13 15 14 13 11 11 14
2510.0 14 16 18 19 21 22 23 23 22 23
2550.0 24 25 25 26 28 30 33 34 36 40
2590.0 44 47 51 53 53 51 53 57 61 62
2630.0 63 65 69 75 80 87 91 98 104 111
2670.0 110 106 100 97 94 92 89 87 85 83
2710.0 83 80 78 77 77 78 79 79 83 88
2750.0 92 92 95 98 104 113 122 132 146 164
2790.0 180 196 210 227 242 263 292 328 371 429
2830.0 508 624 801 1079 1494 2061 2746 3389 3670 3424
2870.0 2889 2400 2078 1912 1850 1877 2019 2297 2697 3208
2910.0 3844 4646 5708 7140 8788 9964 10000 8917 7199 5369
2950.0 3861 2880 2349 2090 1931 1715 1399 1071 815 641
2990.0 521 435 372 326 284 249 224 202 184 171
3030.0 162 150 140 129 121 117 112 104 98 91
3070.0 84 78 73 71 69 67 66 61 54 53
3110.0 52 51 50 47 44 44 45 45 46 47
3150.0 48 47 44 42 38 36 34 33 33 30
3190.0 27 27 25 23 23 22 20 22 22 20
3230.0 22 21 18 18 18 17 17 17 15 14
3270.0 13 15 12 9 10 10 13 13 10 10
3310.0 11 10 11 12 14 12 9 12 15 15
3350.0 19 17 16 17 14 11 12 13 12 11
3390.0 11 10 9 11 12 13 9 6 9 11
3430.0 9 9 8 9 8 9 10 13 13 11
3470.0 9 10 7 6 8 8 7 7 6 5
3510.0 6 8 9 8 6 6 5 6 5 3
3550.0 7 9 7 7 6 7 7 9 9 9
3590.0 9 9 9 7 7 8 10 12 13 13
3630.0 12 14 17 18 16 14 15 15 14 13
3670.0 12 11 14 17 16 14 14 13 12 15
3710.0 16 12 10 14 16 14 12 13 13 14
3750.0 13 13 16 19 18 19 18 17 17 18
3790.0 17 16 16 15 17 21 19 17 19 19
3830.0 19 17 15 17 20
##END=
