##TITLE=N,N'-Diallyl-D-tartaridiamide
##JCAMP-DX=4.24
##DATA TYPE=INFRARED SPECTRUM
##ORIGIN=EPA-IR VAPOR PHASE LIBRARY
##OWNER=SRD/NIST
Collection (C) 2018 copyright by the U.S. Secretary of Commerce
on behalf of the United States of America. All rights reserved.
##CAS REGISTRY NO=28843-34-7
##MOLFORM=C 10 H 16 N 2 O 4
##$NIST SOURCE=MSDC-IR
##STATE=gas
##XUNITS=1/CM
##YUNITS=ABSORBANCE
##XFACTOR=1.
##YFACTOR=0.001
##DELTAX=1.929
##FIRSTX=549.8
##LASTX=4000.8
##FIRSTY=12.895
##MAXX=4000.75
##MINX=549.766
##MAXY=0.097595
##MINY=0
##NPOINTS=1790
##XYDATA=(X++(Y..Y))
549.766 12.895 13.075 12.685 12.675 12.915 13.045 13.055 13.155 13.125 12.925
569.056 12.995 12.885 12.865 12.935 12.975 13.055 13.065 13.305 13.765 14.155
588.346 14.105 14.225 14.575 14.815 15.025 15.225 15.305 15.245 15.285 15.365
607.636 15.305 15.235 15.185 15.015 14.685 14.445 14.345 14.305 14.255 14.075
626.926 13.935 13.735 13.375 13.195 13.205 13.115 13.135 13.105 12.935 12.935
646.216 12.875 12.575 12.375 12.325 12.135 11.785 11.555 11.535 11.385 11.075
665.506 10.815 10.645 10.615 10.495 10.315 10.165 9.945 9.855 9.715 9.525
684.796 9.395 9.245 9.045 8.695 8.415 8.235 8.075 7.835 7.625 7.395
704.086 7.145 7.045 6.775 6.505 6.295 6.035 5.865 5.695 5.525 5.415
723.376 5.425 5.325 5.125 4.975 4.785 4.675 4.695 4.635 4.395 4.195
742.666 4.125 4.025 4.045 4.165 4.005 3.785 3.675 3.625 3.605 3.515
761.956 3.325 3.255 3.355 3.285 3.235 3.315 3.235 3.065 2.965 2.915
781.246 2.985 3.035 3.105 3.115 3.055 3.035 2.925 2.945 3.035 2.955
800.536 2.895 2.865 2.925 3.015 3.035 3.045 3.155 3.215 3.265 3.425
819.826 3.495 3.705 3.845 3.865 3.975 4.065 4.105 4.075 4.055 4.065
839.116 4.055 4.045 3.995 3.875 3.955 4.075 4.065 4.165 4.285 4.295
858.406 4.375 4.525 4.605 4.635 4.655 4.755 4.955 5.065 5.085 5.145
877.696 5.245 5.355 5.485 5.635 5.815 6.065 6.325 6.595 6.935 7.255
896.986 7.645 8.105 8.585 9.045 9.505 10.135 10.815 11.485 12.395 13.535
916.276 14.835 16.275 17.665 18.975 20.075 20.735 20.805 20.225 18.995 17.415
935.566 15.725 14.085 12.575 11.265 10.365 9.645 9.035 8.575 8.235 7.975
954.856 7.815 7.745 7.705 7.765 7.845 7.915 8.085 8.355 8.655 9.035
974.146 9.415 9.865 10.405 10.945 11.555 12.185 12.725 13.245 13.645 13.785
993.436 13.785 13.635 13.365 13.035 12.545 12.065 11.565 11.095 10.675 10.315
1012.726 9.985 9.755 9.645 9.515 9.375 9.295 9.345 9.365 9.405 9.525
1032.016 9.575 9.525 9.485 9.525 9.595 9.705 9.695 9.765 10.255 10.525
1051.306 10.785 11.325 11.975 12.505 13.065 13.725 14.635 15.735 16.905 18.225
1070.596 19.695 21.375 23.305 25.345 27.405 29.545 31.615 33.425 34.925 35.915
1089.886 36.325 36.115 35.245 34.105 33.015 31.945 30.775 29.555 28.485 27.205
1109.176 25.715 24.235 22.555 20.835 19.355 17.875 16.375 14.935 13.655 12.845
1128.467 12.075 11.415 11.085 10.615 10.085 9.935 9.915 9.615 9.275 9.285
1147.757 9.385 8.955 8.745 8.975 8.825 8.585 8.595 8.595 8.565 8.715
1167.047 8.725 8.925 9.115 9.215 9.725 10.215 10.605 10.475 10.005 9.455
1186.337 12.015 17.995 25.605 45.565 62.865 62.265 60.855 59.035 61.915 56.165
1205.627 51.225 51.365 44.415 41.425 38.495 35.905 33.885 32.935 32.765 29.555
1224.917 28.635 27.935 27.845 27.595 27.875 27.905 27.515 27.305 26.485 25.795
1244.207 25.705 25.765 25.035 23.965 23.565 23.865 24.145 24.705 25.535 26.145
1263.497 26.815 27.695 28.535 28.955 28.965 28.665 27.785 26.875 25.965 24.635
1282.787 23.185 21.845 20.605 19.455 18.435 17.525 16.805 16.225 15.845 15.485
1302.077 15.185 14.895 14.625 14.355 14.055 13.665 13.155 12.665 12.235 11.855
1321.367 11.535 11.305 11.175 11.095 11.105 11.265 11.405 11.525 11.555 11.555
1340.657 11.545 11.395 11.265 11.115 10.925 10.805 10.745 10.725 10.765 10.825
1359.947 10.965 11.145 11.325 11.545 11.825 12.125 12.465 12.945 13.465 13.995
1379.237 14.605 15.305 16.065 16.875 17.745 18.555 19.315 20.135 20.975 21.795
1398.527 22.695 23.605 24.495 25.525 26.565 27.655 28.795 29.935 31.085 32.235
1417.817 33.265 34.015 34.365 34.355 34.015 33.365 32.425 31.355 30.295 29.285
1437.107 28.215 27.125 26.075 24.995 23.905 22.835 21.675 20.525 19.495 18.585
1456.397 17.785 17.025 16.425 16.025 15.665 15.285 15.055 14.935 14.945 14.995
1475.687 15.105 15.345 15.685 16.175 16.845 17.645 18.635 19.845 21.245 22.815
1494.977 24.695 26.955 29.505 32.435 35.775 39.515 43.815 48.505 53.405 58.625
1514.267 63.895 69.065 73.955 78.095 81.425 83.485 84.235 83.615 81.765 78.825
1533.557 74.855 70.305 65.575 60.545 55.555 51.025 46.815 43.005 39.745 36.875
1552.847 34.495 32.345 30.535 29.005 27.435 25.965 24.515 23.005 21.505 19.965
1572.137 18.455 17.005 15.575 14.295 13.225 12.265 11.395 10.675 10.115 9.615
1591.427 9.195 8.875 8.645 8.445 8.305 8.195 8.125 8.115 8.155 8.205
1610.717 8.305 8.445 8.595 8.835 9.105 9.425 9.815 10.245 10.695 11.275
1630.007 11.955 12.725 13.625 14.675 15.925 17.305 18.695 19.995 21.185 22.095
1649.297 22.855 23.735 24.905 26.395 28.535 31.635 35.765 41.155 47.885 55.915
1668.587 65.195 75.155 84.405 91.805 96.475 97.595 95.075 90.035 83.825 78.035
1687.877 74.155 72.255 72.065 72.655 72.945 72.005 69.165 64.215 58.005 50.765
1707.167 43.475 36.855 31.295 26.795 23.285 20.525 18.215 16.395 14.955 13.705
1726.457 12.555 11.565 10.725 9.975 9.275 8.545 7.905 7.355 6.905 6.515
1745.747 6.185 5.865 5.585 5.315 5.015 4.745 4.485 4.235 4.035 3.815
1765.037 3.635 3.505 3.345 3.195 3.055 2.915 2.795 2.695 2.585 2.485
1784.327 2.435 2.385 2.305 2.215 2.165 2.105 2.045 2.005 1.955 1.895
1803.617 1.825 1.805 1.795 1.745 1.695 1.675 1.695 1.675 1.605 1.615
1822.907 1.635 1.665 1.685 1.715 1.755 1.785 1.775 1.815 1.885 1.925
1842.197 1.975 2.035 2.105 2.185 2.215 2.245 2.325 2.365 2.355 2.345
1861.487 2.285 2.175 2.075 1.965 1.845 1.755 1.665 1.565 1.505 1.445
1880.777 1.3709 1.2954 1.2517 1.2523 1.2127 1.1872 1.2065 1.1942 1.1625 1.152
1900.067 1.1334 1.0993 1.1231 1.1209 1.0757 1.0444 1.0355 1.0297 1.0235 1.005
1919.357 1.0061 1.0143 0.9912 0.9682 0.9553 0.9323 0.914 0.9032 0.8876 0.8645
1938.647 0.8683 0.9062 0.9288 0.9113 0.8728 0.8727 0.9061 0.9153 0.9283 0.9423
1957.937 0.9304 0.9062 0.8971 0.8983 0.9422 0.9703 0.9431 0.9354 0.9113 0.9021
1977.227 0.9124 0.8998 0.9061 0.9018 0.865 0.8472 0.8713 0.8605 0.8417 0.8439
1996.517 0.8248 0.8319 0.8231 0.7796 0.784 0.8086 0.7909 0.8035 0.8022 0.7848
2015.807 0.7849 0.7635 0.7704 0.7653 0.7545 0.7797 0.7643 0.7308 0.753 0.7409
2035.097 0.6988 0.7182 0.7249 0.6995 0.7455 0.7479 0.6865 0.6953 0.7347 0.7396
2054.387 0.7268 0.7195 0.7303 0.7463 0.759 0.7914 0.7711 0.7341 0.7435 0.739
2073.677 0.7342 0.7514 0.7505 0.712 0.6965 0.7404 0.7662 0.7375 0.7211 0.7197
2092.967 0.7066 0.6947 0.6894 0.7014 0.7369 0.7659 0.7538 0.7406 0.7289 0.7025
2112.257 0.6991 0.7132 0.7318 0.745 0.7499 0.7578 0.7337 0.7502 0.7959 0.79
2131.547 0.7669 0.7646 0.758 0.76 0.7901 0.7663 0.7662 0.8088 0.781 0.761
2150.837 0.7843 0.7748 0.7554 0.7931 0.8061 0.8173 0.8519 0.8396 0.8265 0.7626
2170.127 0.735 0.7604 0.7781 0.8011 0.7949 0.7739 0.7671 0.7791 0.763 0.7179
2189.417 0.7347 0.7939 0.799 0.7834 0.77 0.7529 0.7628 0.7905 0.7808 0.7541
2208.707 0.7518 0.7315 0.7359 0.7711 0.7549 0.7249 0.7033 0.7038 0.6822 0.6549
2227.997 0.6853 0.718 0.7036 0.6689 0.6472 0.6226 0.6337 0.6611 0.6589 0.6613
2247.287 0.6827 0.7002 0.6674 0.6536 0.647 0.6285 0.633 0.5773 0.5593 0.5995
2266.577 0.6044 0.5866 0.6108 0.6589 0.6637 0.6572 0.6513 0.6119 0.6128 0.6433
2285.868 0.6717 0.66 0.6378 0.6202 0.6189 0.6481 0.6202 0.6055 0.6118 0.6093
2305.158 0.6548 0.6981 0.6705 0.6282 0.6223 0.6705 0.6959 0.666 0.6674 0.6834
2324.448 0.702 0.7055 0.7139 0.7199 0.6837 0.6397 0.6154 0.6428 0.6656 0.6857
2343.738 0.68 0.6942 0.668 0.6434 0.6881 0.6841 0.7003 0.7074 0.683 0.6692
2363.028 0.6881 0.7183 0.7172 0.7015 0.6916 0.7023 0.6853 0.6872 0.6765 0.6404
2382.318 0.6525 0.6662 0.6374 0.6198 0.6081 0.5899 0.6042 0.6206 0.6386 0.646
2401.608 0.6423 0.6364 0.6568 0.645 0.6733 0.7202 0.7131 0.6735 0.6555 0.66
2420.898 0.6582 0.6583 0.6646 0.6917 0.6841 0.6841 0.7011 0.6743 0.6804 0.7034
2440.188 0.7053 0.7238 0.7278 0.7061 0.7039 0.698 0.6504 0.6423 0.682 0.6791
2459.478 0.6855 0.6862 0.6463 0.6529 0.6551 0.6952 0.7368 0.7278 0.701 0.7141
2478.768 0.7208 0.7049 0.7469 0.7605 0.7249 0.7258 0.7713 0.7969 0.7961 0.7471
2498.058 0.7614 0.8065 0.7941 0.7789 0.7863 0.8522 0.8828 0.8269 0.8209 0.833
2517.348 0.8003 0.8132 0.795 0.755 0.7757 0.7957 0.78 0.8023 0.8541 0.8059
2536.638 0.7084 0.7061 0.7561 0.749 0.7371 0.7551 0.7448 0.7406 0.7488 0.7449
2555.928 0.7387 0.7383 0.7244 0.7525 0.7851 0.7868 0.7789 0.7855 0.804 0.7775
2575.218 0.7496 0.6994 0.6903 0.7211 0.7308 0.7236 0.6649 0.6405 0.6706 0.6927
2594.508 0.7116 0.7412 0.751 0.6987 0.6571 0.6391 0.657 0.7114 0.7471 0.7448
2613.798 0.714 0.6837 0.6854 0.7005 0.6543 0.6614 0.6841 0.6562 0.6597 0.6636
2633.088 0.6783 0.6897 0.7177 0.7697 0.7577 0.7224 0.7378 0.76 0.7767 0.7913
2652.378 0.7987 0.8106 0.7583 0.7548 0.8242 0.8174 0.7677 0.7416 0.7695 0.8542
2671.668 0.8512 0.8046 0.839 0.8699 0.8774 0.8382 0.8177 0.8666 0.8862 0.8417
2690.958 0.8287 0.8254 0.816 0.8832 0.9333 0.9068 0.9159 0.9436 0.9879 1.0375
2710.248 0.9577 0.9148 0.9582 0.9918 1.0238 0.9941 0.9313 0.9336 0.9899 1.0234
2729.538 1.0233 0.9968 0.9566 0.9381 0.9914 1.0544 1.0677 1.0328 1.0759 1.1396
2748.828 1.131 1.106 1.0377 1.0556 1.1089 1.1321 1.1986 1.2207 1.2182 1.2278
2768.118 1.2028 1.235 1.2833 1.2397 1.2178 1.2664 1.3368 1.3616 1.3944 1.3974
2787.408 1.371 1.3666 1.3713 1.455 1.475 1.435 1.455 1.495 1.585 1.645
2806.698 1.625 1.655 1.655 1.625 1.645 1.645 1.695 1.745 1.835 1.905
2825.988 1.985 2.065 2.135 2.215 2.335 2.435 2.515 2.655 2.765 2.875
2845.278 3.015 3.215 3.385 3.485 3.635 3.835 4.055 4.205 4.385 4.615
2864.568 4.825 5.045 5.195 5.355 5.645 5.945 6.215 6.545 6.845 7.095
2883.858 7.495 7.875 8.175 8.485 8.825 9.055 9.185 9.215 9.235 9.245
2903.148 9.315 9.505 9.755 10.095 10.585 11.125 11.755 12.435 13.005 13.605
2922.438 14.195 14.605 14.655 14.435 13.985 13.405 12.835 12.185 11.455 10.655
2941.728 10.005 9.455 8.895 8.355 7.835 7.355 6.915 6.525 6.195 5.945
2961.018 5.705 5.595 5.495 5.385 5.355 5.295 5.215 5.175 5.205 5.245
2980.308 5.315 5.495 5.725 5.915 6.035 6.245 6.495 6.585 6.595 6.515
2999.598 6.235 5.975 5.775 5.675 5.595 5.535 5.545 5.695 5.895 6.005
3018.888 6.145 6.335 6.475 6.425 6.185 5.835 5.455 5.155 4.825 4.495
3038.178 4.435 4.375 4.265 4.295 4.315 4.365 4.425 4.555 4.695 4.815
3057.468 5.085 5.325 5.555 5.775 5.985 6.305 6.655 6.945 7.245 7.575
3076.758 7.845 8.215 8.655 9.075 9.515 9.945 10.465 10.975 11.195 11.255
3096.048 11.145 10.535 9.735 8.875 7.955 7.165 6.525 6.055 5.685 5.385
3115.338 5.065 4.815 4.625 4.445 4.355 4.285 4.235 4.155 4.095 4.085
3134.628 4.015 3.955 3.905 3.915 3.895 3.895 3.945 3.895 3.835 3.835
3153.918 3.865 3.835 3.925 3.975 3.895 3.895 3.995 4.105 4.125 4.065
3173.208 4.075 4.125 4.135 4.155 4.185 4.235 4.365 4.455 4.495 4.545
3192.498 4.505 4.545 4.635 4.775 4.855 4.865 4.965 5.085 5.195 5.205
3211.788 5.265 5.415 5.505 5.515 5.595 5.695 5.825 6.015 6.155 6.215
3231.078 6.315 6.445 6.585 6.665 6.775 6.905 6.975 7.135 7.325 7.475
3250.368 7.615 7.775 7.805 7.955 8.225 8.375 8.535 8.755 8.995 9.125
3269.658 9.275 9.575 9.855 10.045 10.245 10.475 10.705 10.985 11.335 11.595
3288.948 11.795 12.005 12.255 12.515 12.755 12.885 13.035 13.345 13.515 13.595
3308.238 13.855 14.075 14.105 14.265 14.545 14.645 14.775 15.065 15.335 15.545
3327.528 15.685 15.905 16.325 16.705 17.105 17.525 17.985 18.435 18.855 19.215
3346.818 19.525 19.925 20.305 20.465 20.585 20.765 20.835 20.835 20.785 20.645
3366.108 20.455 20.315 20.095 19.825 19.625 19.435 19.175 19.075 18.895 18.615
3385.398 18.505 18.505 18.435 18.415 18.695 19.115 19.545 19.965 20.315 20.715
3404.688 21.195 21.675 21.985 22.135 22.325 22.545 23.005 23.725 24.965 26.965
3423.978 29.475 32.165 34.915 37.225 38.495 38.175 36.125 33.205 29.845 26.225
3443.269 22.805 19.915 17.585 15.725 14.145 12.915 12.005 11.215 10.455 9.785
3462.559 9.205 8.755 8.305 7.845 7.475 7.115 6.795 6.485 6.345 6.165
3481.849 5.985 5.875 5.685 5.535 5.385 5.265 5.225 5.135 5.225 5.315
3501.139 5.365 5.505 5.655 5.785 5.915 6.165 6.475 6.665 6.635 6.645
3520.429 6.745 6.715 6.605 6.505 6.355 6.105 5.925 5.745 5.415 5.135
3539.719 4.945 4.805 4.685 4.445 4.235 4.175 4.005 3.735 3.555 3.385
3559.009 3.245 3.105 2.995 2.975 2.995 2.885 2.645 2.555 2.545 2.455
3578.299 2.335 2.225 2.215 2.165 2.055 1.985 1.895 1.795 1.745 1.765
3597.589 1.755 1.715 1.635 1.635 1.565 1.455 1.435 1.3646 1.2759 1.2352
3616.879 1.2927 1.2368 1.1319 1.0808 0.9776 0.9049 0.8227 0.801 0.7906 0.758
3636.169 0.734 0.6198 0.6344 0.6104 0.628 0.6821 0.6051 0.6073 0.5277 0.51439
3655.459 0.50038 0.3928 0.3977 0.45114 0.4095 0.341 0.308 0.32 0.296 0.313
3674.749 0.279 0.153 0.221 0.3566 0.327 0.225 0.234 0.223 0.229 0.3
3694.039 0.303 0.278 0.29 0.301 0.291 0.241 0.198 0.25 0.29 0.174
3713.329 0.064 0.176 0.213 0.193 0.191 0.236 0.307 0.258 0.174 0.163
3732.619 0.26 0.257 0.23 0.28 0.32 0.3475 0.259 0.129 0.093 0.124
3751.909 0.156 0.132 0.131 0.132 0.191 0.174 0.065 0 0.05 0.201
3771.199 0.29 0.169 0.172 0.294 0.222 0.194 0.117 0.076 0.164 0.222
3790.489 0.21 0.128 0.026 0.109 0.208 0.208 0.235 0.181 0.055 0.042
3809.779 0.091 0.083 0.069 0.114 0.126 0.048 0.165 0.282 0.22 0.117
3829.069 0.062 0.099 0.098 0.066 0.076 0.105 0.121 0.154 0.224 0.259
3848.359 0.195 0.091 0.078 0.056 0.034 0.028 0.089 0.243 0.217 0.127
3867.649 0.026 0.043 0.157 0.109 0.139 0.188 0.164 0.139 0.071 0.106
3886.939 0.158 0.164 0.07 0.005 0.149 0.17 0.162 0.24 0.217 0.139
3906.229 0.135 0.1 0.099 0.149 0.142 0.219 0.284 0.251 0.245 0.244
3925.519 0.177 0.16 0.138 0.088 0.072 0.069 0.164 0.255 0.209 0.163
3944.809 0.188 0.25 0.21 0.132 0.185 0.193 0.15 0.137 0.246 0.308
3964.099 0.2 0.218 0.203 0.134 0.188 0.267 0.261 0.221 0.203 0.198
3983.389 0.245 0.235 0.246 0.3573 0.3464 0.331 0.306 0.3372 0.395 0.245
##END=
