##TITLE=4-Iododiphenyl ether
##JCAMP-DX=4.24
##DATA TYPE=INFRARED SPECTRUM
##ORIGIN=EPA-IR VAPOR PHASE LIBRARY
##OWNER=SRD/NIST
Collection (C) 2018 copyright by the U.S. Secretary of Commerce
on behalf of the United States of America. All rights reserved.
##CAS REGISTRY NO=28896-49-3
##MOLFORM=C 12 H 9 I O
##$NIST SOURCE=MSDC-IR
##STATE=gas
##XUNITS=1/CM
##YUNITS=ABSORBANCE
##XFACTOR=1.
##YFACTOR=0.001
##DELTAX=1.92898
##FIRSTX=549.8
##LASTX=4000.7
##FIRSTY=1.908
##MAXX=4000.7
##MINX=549.759
##MAXY=0.451388
##MINY=0
##NPOINTS=1790
##XYDATA=(X++(Y..Y))
549.759 1.908 1.638 1.488 1.458 1.428 1.398 1.438 1.748 1.778 1.848
569.049 1.908 2.098 2.368 2.508 2.958 3.658 4.108 4.828 5.628 5.538
588.339 5.198 4.548 3.978 3.718 3.368 3.238 3.258 3.288 3.318 3.318
607.628 3.498 3.808 4.258 4.738 5.128 5.378 5.058 4.738 4.498 3.928
626.918 3.498 3.338 3.198 3.328 3.518 3.508 3.488 3.438 3.478 3.358
646.208 3.338 3.438 3.378 3.438 3.608 3.968 4.308 4.518 4.748 5.008
665.498 5.408 5.848 6.558 7.588 8.588 9.808 11.648 13.728 16.018 18.678
684.787 21.358 24.048 26.558 28.098 28.028 26.688 24.648 22.368 20.098 17.738
704.077 15.518 13.638 12.078 10.838 9.688 8.898 8.248 7.598 7.448 7.668
723.367 8.028 8.728 9.868 11.308 13.168 15.238 17.648 20.518 23.748 27.528
742.657 31.698 36.078 40.238 43.158 44.368 43.648 40.878 36.878 32.748 28.878
761.947 25.318 22.138 19.748 17.688 15.888 14.818 14.058 13.728 13.498 12.988
781.236 12.808 12.778 12.648 12.638 12.718 12.768 12.738 12.698 12.888 12.978
800.526 13.108 13.608 14.108 14.808 15.848 17.088 18.308 19.758 21.138 22.608
819.816 24.418 26.138 27.548 28.598 29.358 29.548 29.328 28.608 27.238 25.558
839.106 23.598 21.518 19.598 18.148 17.018 16.208 15.878 16.518 18.208 21.408
858.395 26.968 34.548 42.318 46.468 45.058 39.338 30.908 22.128 15.678 11.818
877.685 9.518 7.938 6.908 6.148 5.408 5.238 5.268 5.328 5.438 5.518
896.975 5.638 5.688 5.668 5.668 5.618 5.468 5.028 4.608 4.218 3.728
916.265 3.288 2.798 2.668 2.598 2.308 2.118 2.108 2.168 2.118 2.108
935.555 2.168 2.158 2.098 1.978 2.018 2.088 2.028 1.948 1.838 1.908
954.844 1.908 1.798 2.048 2.258 2.258 2.308 2.408 2.558 2.638 2.898
974.134 3.038 2.998 3.228 3.488 3.748 3.998 4.388 5.058 5.818 6.768
993.424 8.298 10.558 14.398 21.648 33.868 50.758 66.878 73.298 69.748 57.588
1012.714 38.118 22.388 15.938 15.008 15.118 14.588 13.548 11.538 8.438 5.958
1032.003 4.798 4.188 4.088 4.238 4.478 4.878 5.848 7.798 10.998 16.578
1051.293 24.068 31.558 37.188 38.608 35.568 28.758 21.188 16.358 13.968 12.388
1070.583 10.868 9.818 9.138 8.588 8.428 7.768 6.918 6.978 6.998 7.078
1089.873 7.658 7.808 7.858 7.738 7.558 7.538 7.428 7.458 6.968 6.608
1109.163 6.848 6.538 5.878 5.478 5.318 5.248 5.168 5.108 5.248 5.368
1128.452 4.938 4.768 4.698 4.608 5.178 5.388 5.598 6.108 6.338 6.808
1147.742 7.558 8.478 9.878 11.608 13.618 16.778 22.428 32.148 45.818 57.848
1167.032 62.338 60.338 51.058 36.828 25.978 20.638 18.348 17.508 17.268 17.508
1186.322 18.268 18.988 20.068 21.828 23.938 26.548 29.968 33.998 39.048 45.578
1205.611 53.128 62.048 72.748 84.288 96.348 108.428 119.928 131.378 142.608 153.488
1224.901 165.088 179.398 198.208 223.248 256.338 298.498 347.668 396.638 435.248 451.388
1244.191 437.398 395.998 337.338 275.328 221.888 182.618 156.298 138.558 125.978 116.028
1263.481 106.798 97.038 86.938 76.748 67.358 59.778 53.998 49.988 47.328 45.468
1282.771 43.898 42.668 41.208 39.108 36.678 33.978 31.308 28.788 26.278 23.828
1302.060 21.538 19.428 17.518 15.928 14.688 13.688 12.968 12.448 12.128 11.948
1321.350 11.698 11.438 11.198 10.988 10.838 10.658 10.498 10.358 10.128 9.968
1340.640 9.738 9.318 8.738 7.988 7.228 6.578 5.998 5.458 5.078 4.888
1359.930 4.838 4.758 4.698 4.718 4.708 4.798 4.948 5.128 5.398 5.678
1379.219 6.058 6.558 7.088 7.528 7.788 7.898 7.968 7.948 7.798 7.678
1398.509 7.508 7.278 7.138 7.128 7.218 7.608 8.378 9.458 10.758 12.128
1417.799 13.358 14.138 14.118 13.438 12.358 11.018 9.758 8.978 8.568 8.418
1437.089 8.528 8.768 9.218 9.868 10.828 12.208 13.998 16.188 18.968 22.308
1456.378 26.388 31.128 36.308 42.528 50.638 61.868 77.668 100.368 132.728 178.968
1475.668 238.488 307.118 363.578 385.378 368.168 321.598 259.948 209.028 175.708 150.608
1494.958 125.478 96.458 70.278 52.678 41.898 34.598 28.858 24.198 20.698 17.808
1514.248 15.568 13.888 12.498 11.458 10.618 9.918 9.348 8.888 8.528 8.228
1533.538 7.948 7.768 7.788 7.858 8.028 8.448 9.148 10.128 11.358 12.868
1552.827 14.888 17.558 20.878 25.178 30.518 36.428 42.888 49.368 55.438 61.348
1572.117 67.448 74.098 81.888 89.488 94.028 93.608 87.718 77.838 66.818 57.558
1591.407 51.478 48.428 47.338 46.848 45.748 43.038 38.658 33.238 27.738 22.828
1610.697 18.958 15.998 13.858 12.098 10.618 9.538 8.748 8.158 7.668 7.308
1629.986 6.998 6.708 6.518 6.398 6.298 6.208 6.108 5.928 5.738 5.528
1649.276 5.118 4.768 4.438 3.998 3.738 3.538 3.368 3.238 3.088 3.028
1668.566 2.898 2.768 2.728 2.698 2.678 2.628 2.608 2.608 2.608 2.618
1687.856 2.608 2.648 2.738 2.788 2.858 2.908 2.948 3.018 3.098 3.148
1707.146 3.188 3.268 3.298 3.298 3.348 3.458 3.518 3.398 3.318 3.378
1726.435 3.328 3.228 3.148 2.998 2.868 2.848 2.818 2.798 2.868 2.908
1745.725 3.008 3.158 3.338 3.618 3.878 4.008 4.048 3.928 3.668 3.458
1765.015 3.318 3.208 3.208 3.308 3.398 3.388 3.258 3.088 2.868 2.638
1784.305 2.448 2.228 1.978 1.868 1.768 1.668 1.628 1.528 1.498 1.418
1803.594 1.358 1.348 1.308 1.318 1.308 1.308 1.368 1.358 1.408 1.468
1822.884 1.488 1.548 1.638 1.768 1.868 1.968 2.168 2.348 2.468 2.648
1842.174 2.848 2.948 3.068 3.208 3.318 3.488 3.638 3.738 3.918 4.108
1861.464 4.298 4.568 4.838 5.108 5.338 5.558 5.758 5.798 5.758 5.688
1880.754 5.518 5.248 4.888 4.488 4.158 3.768 3.328 2.978 2.718 2.498
1900.043 2.378 2.288 2.228 2.218 2.278 2.438 2.578 2.758 2.868 3.018
1919.333 3.228 3.328 3.428 3.538 3.618 3.668 3.648 3.628 3.648 3.638
1938.623 3.598 3.598 3.638 3.608 3.588 3.468 3.178 2.898 2.618 2.368
1957.913 2.208 2.068 2.018 1.998 1.968 1.988 2.088 2.138 2.138 2.198
1977.202 2.258 2.298 2.358 2.548 2.758 2.908 3.048 3.198 3.288 3.378
1996.492 3.498 3.578 3.618 3.638 3.608 3.528 3.518 3.558 3.608 3.668
2015.782 3.818 3.998 4.148 4.398 4.608 4.678 4.728 4.688 4.518 4.218
2035.072 3.858 3.588 3.378 3.198 3.038 2.968 3.008 3.078 3.158 3.268
2054.362 3.408 3.628 3.758 3.778 3.798 3.698 3.468 3.128 2.858 2.568
2073.651 2.268 2.118 2.078 2.038 1.918 1.868 1.878 1.818 1.678 1.578
2092.941 1.528 1.448 1.418 1.378 1.328 1.308 1.318 1.318 1.238 1.1292
2112.231 1.1063 1.0604 1.0266 0.9739 0.9426 0.9067 0.7736 0.6762 0.6884 0.6958
2131.521 0.661 0.5923 0.5656 0.6191 0.6193 0.655 0.6718 0.6573 0.6462 0.5871
2150.810 0.5663 0.6285 0.6243 0.5735 0.5937 0.6738 0.748 0.764 0.7521 0.7626
2170.100 0.7686 0.7163 0.7132 0.7171 0.6682 0.6736 0.7164 0.6686 0.6503 0.7244
2189.390 0.7088 0.6154 0.582 0.6344 0.7102 0.7415 0.7344 0.7472 0.7391 0.7253
2208.680 0.7131 0.7327 0.8024 0.7747 0.7353 0.7676 0.7644 0.7834 0.8506 0.8836
2227.970 0.9039 0.9157 0.9537 1.0342 1.092 1.0957 1.1205 1.145 1.178 1.208
2247.259 1.188 1.178 1.198 1.188 1.238 1.298 1.328 1.388 1.408 1.408
2266.549 1.418 1.398 1.338 1.298 1.228 1.198 1.1366 1.1004 1.05 0.9406
2285.839 0.8952 0.8599 0.8415 0.8176 0.8699 0.8828 0.8513 0.9424 1.0344 1.0717
2305.129 1.1189 1.198 1.288 1.288 1.288 1.378 1.418 1.478 1.558 1.598
2324.418 1.678 1.758 1.818 1.888 1.908 1.958 1.938 1.918 1.938 1.968
2343.708 1.948 1.968 2.078 2.078 2.088 2.158 2.198 2.178 2.068 1.938
2362.998 1.808 1.728 1.718 1.738 1.738 1.728 1.728 1.788 1.858 1.968
2382.288 2.058 2.128 2.238 2.378 2.588 2.768 2.968 3.268 3.538 3.658
2401.578 3.818 4.038 4.228 4.248 4.088 3.968 3.828 3.738 3.738 3.698
2420.867 3.668 3.688 3.798 3.928 4.018 4.148 4.288 4.428 4.468 4.398
2440.157 4.218 4.008 3.798 3.528 3.328 3.118 2.918 2.798 2.728 2.678
2459.447 2.648 2.588 2.518 2.398 2.318 2.238 2.168 2.088 1.928 1.898
2478.737 1.798 1.748 1.808 1.778 1.768 1.788 1.758 1.618 1.488 1.418
2498.026 1.348 1.258 1.248 1.248 1.1457 1.1108 1.1415 1.1087 1.1108 1.0495
2517.316 0.9836 1.0589 1.1268 1.188 1.14 1.1077 1.178 1.218 1.158 1.1236
2536.606 1.218 1.288 1.318 1.348 1.408 1.458 1.438 1.378 1.338 1.268
2555.896 1.218 1.228 1.208 1.198 1.188 1.188 1.1492 1.0815 1.012 0.8894
2575.186 0.8819 0.8696 0.8259 0.8034 0.7495 0.7575 0.7594 0.6715 0.6572 0.6707
2594.475 0.6252 0.6547 0.6709 0.6454 0.6092 0.6104 0.6188 0.6367 0.6433 0.5847
2613.765 0.5551 0.5702 0.6366 0.719 0.7598 0.7588 0.7666 0.8216 0.87 0.8419
2633.055 0.8017 0.802 0.7546 0.7309 0.748 0.7965 0.8791 0.8066 0.725 0.7451
2652.345 0.6885 0.6346 0.584 0.5814 0.5496 0.4604 0.4831 0.4991 0.4186 0.4417
2671.634 0.5589 0.6637 0.6938 0.6652 0.6544 0.6287 0.5336 0.4658 0.5699 0.5787
2690.924 0.5985 0.6392 0.5202 0.4764 0.5906 0.6904 0.5877 0.5116 0.563 0.5243
2710.214 0.502 0.5408 0.5914 0.6023 0.5834 0.5281 0.4689 0.5139 0.5667 0.6266
2729.504 0.5938 0.5554 0.6111 0.6582 0.6795 0.5907 0.4936 0.4991 0.4905 0.4633
2748.794 0.4498 0.4367 0.4629 0.4938 0.5129 0.556 0.6024 0.5572 0.5089 0.6176
2768.083 0.6768 0.6172 0.6574 0.6624 0.7235 0.779 0.7578 0.8454 0.9491 0.8804
2787.373 0.778 0.8734 0.9588 0.9199 0.8653 0.912 0.9909 0.9916 1.0736 1.188
2806.663 1.258 1.258 1.248 1.268 1.258 1.258 1.328 1.458 1.508 1.438
2825.953 1.338 1.288 1.238 1.1542 1.168 1.168 1.1322 1.0467 0.8794 0.9085
2845.242 0.9019 0.7974 0.7492 0.726 0.7092 0.6584 0.6843 0.7749 0.8427 0.8837
2864.532 0.8882 0.8629 0.8449 0.8857 0.9407 0.8803 0.7849 0.7443 0.6945 0.6321
2883.822 0.5264 0.4749 0.6249 0.6239 0.5678 0.7404 0.7762 0.7322 0.7068 0.6539
2903.112 0.6412 0.5995 0.6376 0.6944 0.6651 0.5893 0.5048 0.4991 0.5201 0.4166
2922.401 0.335 0.4343 0.4537 0.348 0.3672 0.4752 0.477 0.5023 0.6373 0.563
2941.691 0.4928 0.5766 0.5277 0.4846 0.5401 0.5678 0.5695 0.5395 0.5021 0.5031
2960.981 0.5804 0.5881 0.5962 0.5766 0.5082 0.5286 0.4922 0.511 0.6181 0.5497
2980.271 0.5448 0.648 0.6711 0.6581 0.666 0.6861 0.7389 0.8277 0.9222 1.0618
2999.561 1.238 1.408 1.538 1.758 2.088 2.448 2.918 3.478 4.008 4.578
3018.850 5.208 5.838 6.408 7.108 7.898 8.638 9.588 10.608 11.668 12.828
3038.140 13.998 15.038 16.078 16.788 16.868 16.568 15.888 14.978 14.218 13.808
3057.430 13.658 13.728 14.098 14.788 15.618 16.828 18.388 20.198 22.098 23.908
3076.720 25.478 26.478 26.718 25.818 24.068 22.098 20.178 18.528 17.088 15.728
3096.009 14.428 13.228 12.118 10.798 9.458 8.338 7.128 5.918 4.908 4.148
3115.299 3.338 2.628 2.318 1.998 1.718 1.588 1.418 1.238 1.0768 0.9791
3134.589 1.005 1.0253 0.8155 0.6583 0.6552 0.6423 0.6859 0.7207 0.7065 0.6182
3153.879 0.6196 0.6391 0.6623 0.571 0.5193 0.5584 0.5865 0.6185 0.5541 0.5406
3173.169 0.4867 0.4501 0.4987 0.4683 0.4297 0.4205 0.3077 0.3558 0.4975 0.4983
3192.458 0.4287 0.3177 0.2726 0.2925 0.2965 0.2811 0.2594 0.24908 0.20181 0.22054
3211.748 0.3581 0.4131 0.3677 0.259 0.1359 0.0718 0.1445 0.28 0.3492 0.3158
3231.038 0.2716 0.23201 0.160859 0.18065 0.2953 0.3732 0.2963 0.3894 0.4086 0.2831
3250.328 0.2995 0.2894 0.165695 0.14961 0.2954 0.3528 0.3198 0.3522 0.3327 0.23283
3269.617 0.1121 0.1443 0.3013 0.3273 0.3128 0.23435 0.1453 0.166143 0.2696 0.3308
3288.907 0.3334 0.2961 0.3713 0.3876 0.18438 0.1085 0.24312 0.2638 0.21144 0.19909
3308.197 0.278 0.3807 0.3084 0.2642 0.317 0.19351 0.018 0.0715 0.0973 0.1213
3327.487 0.2776 0.2937 0.25015 0.2687 0.3154 0.24493 0.16888 0.17467 0.24258 0.19704
3346.777 0.20083 0.25641 0.21291 0.21923 0.1404 0.17111 0.2939 0.2931 0.286 0.303
3366.066 0.3189 0.18828 0.0839 0.3392 0.3151 0.1328 0.24938 0.2665 0.23723 0.22642
3385.356 0.23694 0.19431 0.023 0.0813 0.23358 0.2873 0.3184 0.25108 0.2929 0.3327
3404.646 0.316 0.4179 0.4697 0.4156 0.3203 0.20532 0.0986 0.1097 0.25792 0.433
3423.936 0.3556 0.2627 0.2636 0.20272 0.22319 0.23211 0.16822 0.18384 0.19133 0.1364
3443.225 0.1229 0.18755 0.21233 0.20414 0.2956 0.3247 0.3341 0.25193 0.16884 0.20049
3462.515 0.18993 0.18249 0.20266 0.17509 0.20305 0.18049 0.16328 0.3154 0.3245 0.3293
3481.805 0.2942 0.3125 0.3713 0.21357 0.16918 0.17967 0.19635 0.2667 0.158094 0
3501.095 0.0791 0.164904 0.157871 0.23481 0.24282 0.2645 0.3234 0.3178 0.3842 0.3241
3520.385 0.20457 0.3096 0.3827 0.3696 0.3043 0.21483 0.16956 0.24238 0.3601 0.20072
3539.674 0.21815 0.3516 0.3277 0.23671 0.18339 0.3256 0.3478 0.18694 0.1236 0.2546
3558.964 0.294 0.2917 0.3112 0.4329 0.5985 0.4258 0.20122 0.18205 0.2223 0.3291
3578.254 0.4369 0.4121 0.3696 0.3401 0.4485 0.5468 0.3039 0.21418 0.4509 0.5171
3597.544 0.3614 0.3268 0.4659 0.422 0.4418 0.4317 0.3082 0.3934 0.4585 0.4262
3616.833 0.4792 0.3596 0.3161 0.631 0.743 0.7878 0.6094 0.4616 0.4925 0.4035
3636.123 0.3937 0.4105 0.4421 0.5749 0.6145 0.4962 0.4971 0.6277 0.5302 0.3035
3655.413 0.3565 0.4538 0.5072 0.5904 0.6158 0.5765 0.539 0.5638 0.6323 0.7388
3674.703 0.7529 0.6363 0.4717 0.5703 0.7657 0.727 0.6913 0.6889 0.6205 0.5531
3693.993 0.5623 0.5875 0.6219 0.712 0.6587 0.5507 0.5759 0.5999 0.5815 0.6223
3713.282 0.7245 0.6773 0.6779 0.7324 0.6321 0.519 0.4918 0.5012 0.4662 0.3836
3732.572 0.2842 0.3519 0.3908 0.2974 0.3115 0.3878 0.2916 0.2864 0.4623 0.4979
3751.862 0.3932 0.3831 0.4979 0.4941 0.4009 0.3327 0.4242 0.3634 0.2719 0.5286
3771.152 0.5629 0.3632 0.3357 0.4364 0.2893 0.15514 0.2762 0.3851 0.4843 0.4187
3790.441 0.372 0.301 0.3305 0.5268 0.4791 0.3815 0.4115 0.4088 0.4339 0.446
3809.731 0.3922 0.4223 0.4012 0.3147 0.2959 0.2651 0.2509 0.3651 0.3252 0.3677
3829.021 0.565 0.5201 0.3344 0.23483 0.2602 0.3413 0.4115 0.3105 0.3206 0.5015
3848.311 0.4997 0.3793 0.3752 0.4794 0.5102 0.4623 0.3496 0.3399 0.5044 0.6335
3867.601 0.5922 0.3859 0.3932 0.5395 0.543 0.4625 0.3574 0.4832 0.6166 0.5478
3886.890 0.5561 0.4779 0.3139 0.2481 0.3492 0.3918 0.483 0.5091 0.4081 0.3964
3906.180 0.2927 0.23293 0.4341 0.569 0.4766 0.3536 0.2925 0.361 0.3913 0.3959
3925.470 0.5127 0.4941 0.3302 0.3212 0.4243 0.4246 0.453 0.4947 0.5757 0.5871
3944.760 0.4326 0.3923 0.3809 0.4172 0.474 0.5262 0.478 0.5119 0.4837 0.268
3964.049 0.3399 0.4315 0.39 0.3836 0.21256 0.19126 0.3208 0.3691 0.3148 0.2432
3983.339 0.3734 0.4137 0.3249 0.3099 0.4062 0.5148 0.641 0.5877 0.4311 0.3742
##END=
