##TITLE=2,4,6-Trimethylbenzonitrile N-oxide
##JCAMP-DX=4.24
##DATA TYPE=INFRARED SPECTRUM
##ORIGIN=EPA-IR VAPOR PHASE LIBRARY
##OWNER=SRD/NIST
Collection (C) 2018 copyright by the U.S. Secretary of Commerce
on behalf of the United States of America. All rights reserved.
##CAS REGISTRY NO=2904-57-6
##MOLFORM=C 10 H 11 N O
##$NIST SOURCE=MSDC-IR
##STATE=gas
##XUNITS=1/CM
##YUNITS=ABSORBANCE
##XFACTOR=1.
##YFACTOR=0.001
##DELTAX=1.92898
##FIRSTX=549.8
##LASTX=4000.7
##FIRSTY=1.1147
##MAXX=4000.7
##MINX=549.759
##MAXY=0.301028
##MINY=0
##NPOINTS=1790
##XYDATA=(X++(Y..Y))
549.759 1.1147 1.388 1.708 2.018 2.228 2.368 2.828 3.438 4.168 4.818
569.049 4.938 4.738 4.808 5.078 5.188 5.148 5.068 5.398 5.948 6.488
588.339 6.928 7.218 7.498 7.478 7.458 6.888 5.928 5.238 4.788 4.528
607.628 4.178 3.858 3.388 2.758 2.548 2.348 2.188 2.188 1.878 1.768
626.918 1.468 1.388 1.448 1.378 1.568 1.428 1.308 1.268 1.278 1.428
646.208 1.338 0.9915 0.9083 1.1314 1.047 0.8873 0.9259 0.9307 0.8831 0.9944
665.498 1.1319 1.2081 1.358 1.448 1.548 1.678 1.678 1.848 1.958 1.918
684.787 1.958 1.968 1.858 1.988 1.858 1.498 1.438 1.1572 1.0825 1.498
704.077 1.628 1.528 1.808 2.128 2.288 2.508 2.718 2.788 2.988 2.948
723.367 2.588 2.258 2.058 1.878 1.528 1.538 1.518 1.258 1.1235 1.0752
742.657 1.1986 1.268 1.2232 1.2155 1.1128 1.0329 1.164 1.288 1.233 1.095
761.947 0.9267 0.9974 1.0687 0.7643 0.6094 0.5839 0.5131 0.6778 0.6697 0.5464
781.236 0.5039 0.25431 0.29444 0.4577 0.4238 0.3717 0.26094 0.29038 0.467 0.4685
800.526 0.1818 0.093 0.2019 0.1648 0.1792 0.207 0.1566 0.07 0.27077 0.5352
819.816 0.6094 0.7265 0.7741 0.6883 0.6479 0.926 1.318 1.708 2.188 2.768
839.106 3.388 4.178 4.958 5.708 6.608 7.608 8.768 8.708 7.008 5.658
858.395 4.978 4.548 3.958 3.068 2.418 1.928 1.478 1.0926 0.882 0.7091
877.685 0.6081 0.604 0.5482 0.5545 0.6367 0.48 0.33259 0.558 0.6715 0.5901
896.975 0.514 0.561 0.5708 0.5543 0.5988 0.5777 0.5025 0.7691 0.9383 0.8287
916.265 0.7966 0.8243 0.8184 0.8899 0.9474 0.9854 1.278 1.468 1.458 1.398
935.555 1.378 1.488 1.618 1.578 1.448 1.448 1.498 1.338 1.258 1.1291
954.844 0.9588 0.8751 0.8326 0.8692 0.6686 0.3895 0.382 0.6021 0.5003 0.5843
974.134 0.7717 0.65 0.8368 1.1279 1.268 1.1335 1.0275 1.1381 1.0702 1.0906
993.424 1.298 1.478 1.528 1.498 1.758 2.028 2.358 2.548 2.418 2.398
1012.714 2.258 2.318 2.548 2.308 1.998 2.078 2.058 1.618 1.568 1.668
1032.003 1.378 1.0357 1.1658 1.468 1.458 1.558 1.598 1.728 1.998 2.038
1051.293 1.788 1.748 2.018 2.308 2.688 2.818 3.238 3.728 3.688 3.998
1070.583 4.668 5.378 6.368 7.978 9.228 10.668 12.248 12.888 13.788 14.298
1089.873 13.548 12.338 11.208 9.708 7.918 6.458 5.228 3.718 2.758 2.758
1109.163 2.998 2.978 2.928 2.878 2.538 2.358 2.068 1.918 2.088 2.338
1128.452 2.108 2.158 2.268 2.348 2.668 2.228 1.908 2.128 2.298 1.548
1147.742 1.268 1.638 1.418 1.1636 1.2206 1.1755 1.0832 1.2102 1.248 1.718
1167.032 1.878 1.938 2.458 2.938 3.498 3.838 4.188 4.438 4.648 4.538
1186.322 4.078 3.558 2.808 2.548 2.638 2.458 1.968 1.678 1.778 1.698
1205.611 1.488 1.268 1.1534 1.1001 0.785 0.6534 1.0469 1.248 0.9599 0.9887
1224.901 0.9695 1.0936 1.1469 0.8017 0.7688 0.7619 0.6368 0.88 1.0553 0.8251
1244.191 0.8342 0.8861 0.898 0.9108 0.8757 0.963 0.9485 0.7461 0.7725 0.6451
1263.481 0.7027 0.9959 0.7763 0.7492 0.8694 0.9655 0.9742 0.765 0.4275 0.4408
1282.771 0.6279 0.7572 0.8339 0.7492 0.8675 0.9663 0.7503 0.6635 0.7089 0.7275
1302.060 0.7981 0.8235 0.8072 0.775 0.754 0.7767 0.8892 0.9262 0.9302 0.9639
1321.350 0.9023 0.8324 0.8606 0.9485 0.9706 0.9666 0.994 0.9762 0.9206 0.9235
1340.640 0.9331 0.9313 0.9147 0.8989 0.9215 0.9192 0.8925 0.9108 0.9741 1.0463
1359.930 1.099 1.081 1.073 1.1228 1.233 1.318 1.458 1.688 1.898 2.098
1379.219 2.218 2.338 2.378 2.498 2.578 2.508 2.358 2.168 2.128 2.088
1398.509 2.048 2.128 2.228 2.338 2.518 2.648 2.788 2.938 3.038 3.098
1417.799 3.178 3.268 3.418 3.638 3.828 3.968 4.168 4.418 4.688 4.848
1437.089 5.018 5.258 5.458 5.638 5.788 5.928 6.078 6.198 6.308 6.388
1456.378 6.448 6.588 6.748 6.768 6.728 6.708 6.748 6.748 6.758 6.838
1475.668 6.878 7.058 7.358 7.688 8.158 8.688 9.298 9.928 10.638 11.388
1494.958 12.088 12.848 13.568 14.298 14.958 15.398 15.778 15.988 15.798 15.238
1514.248 14.518 13.698 12.558 11.188 9.878 8.648 7.438 6.558 5.958 5.378
1533.538 4.948 4.588 4.328 4.158 3.938 3.798 3.628 3.428 3.318 3.208
1552.827 3.178 3.168 3.038 2.868 2.848 2.958 2.898 2.818 2.888 2.808
1572.117 2.808 2.838 2.828 2.848 2.868 2.888 2.908 2.908 2.858 2.868
1591.407 2.728 2.528 2.398 2.318 2.278 2.158 2.048 1.948 1.828 1.728
1610.697 1.558 1.428 1.408 1.438 1.318 1.1694 1.0535 0.9645 0.9866 0.9151
1629.986 0.8427 0.8922 0.8233 0.7624 0.8333 0.8497 0.8916 0.9035 0.7999 0.7326
1649.276 0.7328 0.7394 0.714 0.6298 0.6383 0.577 0.5527 0.6217 0.518 0.4321
1668.566 0.4756 0.517 0.5078 0.4536 0.4273 0.422 0.4008 0.4051 0.4246 0.4885
1687.856 0.4889 0.4106 0.4427 0.4787 0.4281 0.4995 0.5469 0.458 0.4969 0.5609
1707.146 0.6032 0.6507 0.7552 0.8509 0.8943 0.9888 1.0397 1.1346 1.1416 1.0848
1726.435 1.0844 1.0452 1.0155 0.9738 0.9061 0.8304 0.7284 0.6443 0.6441 0.6806
1745.725 0.7316 0.7621 0.7589 0.7592 0.7433 0.7583 0.7485 0.6924 0.6775 0.5955
1765.015 0.5023 0.4568 0.431 0.4459 0.402 0.31217 0.31349 0.33577 0.33676 0.33438
1784.305 0.3536 0.3845 0.3852 0.4017 0.372 0.3805 0.3904 0.3577 0.3512 0.3348
1803.594 0.31861 0.3694 0.366 0.30069 0.29247 0.32321 0.3469 0.32025 0.32396 0.3632
1822.884 0.4109 0.3997 0.3927 0.4092 0.3936 0.3731 0.3534 0.3785 0.3505 0.31025
1842.174 0.3841 0.4401 0.4051 0.3756 0.4046 0.4003 0.382 0.3678 0.3592 0.4005
1861.464 0.3906 0.3595 0.4015 0.4258 0.4299 0.488 0.5408 0.5378 0.596 0.6068
1880.754 0.5671 0.5672 0.5436 0.5211 0.5054 0.5217 0.5642 0.6 0.5699 0.5724
1900.043 0.6336 0.601 0.5009 0.4748 0.5177 0.5037 0.5172 0.5369 0.5174 0.4813
1919.333 0.5155 0.5662 0.5174 0.5037 0.4975 0.4891 0.414 0.348 0.3575 0.3906
1938.623 0.4263 0.3976 0.3869 0.4016 0.428 0.4905 0.468 0.4117 0.4588 0.5197
1957.913 0.4655 0.4008 0.4137 0.3768 0.4188 0.4954 0.4682 0.43 0.3973 0.4057
1977.202 0.435 0.4232 0.4315 0.4406 0.4682 0.5104 0.5242 0.5308 0.5406 0.5597
1996.492 0.541 0.5451 0.5935 0.5817 0.5572 0.5881 0.5558 0.5002 0.5486 0.6148
2015.782 0.6346 0.6219 0.5599 0.56 0.5919 0.58 0.583 0.5726 0.5365 0.489
2035.072 0.4877 0.5391 0.6002 0.6243 0.6213 0.6203 0.6109 0.6564 0.6759 0.685
2054.362 0.6937 0.6875 0.7684 0.8706 0.9241 0.8484 0.8609 0.9887 1.0029 0.9773
2073.651 1.0149 1.1076 1.1454 1.1421 1.1748 1.1659 1.1706 1.268 1.358 1.388
2092.941 1.398 1.488 1.618 1.748 1.898 1.988 2.038 2.208 2.348 2.388
2112.231 2.398 2.518 2.708 2.778 2.918 3.078 3.158 3.278 3.418 3.428
2131.521 3.418 3.518 3.618 3.648 3.638 3.638 3.768 3.908 3.978 4.068
2150.810 4.198 4.378 4.608 4.848 5.128 5.448 5.648 5.888 6.288 6.678
2170.100 7.048 7.518 8.088 8.588 9.148 9.768 10.358 10.978 11.658 12.468
2189.390 13.328 14.208 15.018 15.898 16.848 17.718 18.698 19.718 20.698 21.628
2208.680 22.458 23.228 24.048 24.908 25.578 26.188 26.838 27.478 28.198 28.918
2227.970 29.628 30.358 31.108 31.968 32.868 33.878 34.958 36.118 37.468 39.088
2247.259 40.948 43.168 45.948 49.318 53.488 58.428 64.488 71.828 80.248 90.038
2266.549 101.468 114.458 129.198 145.868 164.388 184.638 206.348 229.238 252.138 272.838
2285.839 289.218 298.948 301.028 295.548 283.038 264.668 241.238 214.398 186.188 159.158
2305.129 135.338 115.158 98.468 84.878 73.828 64.748 57.138 50.618 44.908 39.828
2324.418 35.248 31.128 27.508 24.458 21.888 19.588 17.618 16.188 14.988 13.958
2343.708 13.198 12.678 12.368 12.268 12.448 12.768 13.288 13.968 14.688 15.538
2362.998 16.418 17.198 17.948 18.558 18.898 19.058 18.968 18.568 18.058 17.518
2382.288 16.778 15.858 14.938 13.958 12.858 11.758 10.668 9.618 8.688 7.878
2401.578 7.108 6.338 5.648 5.128 4.738 4.328 3.928 3.638 3.398 3.198
2420.867 3.008 2.968 2.938 2.828 2.918 2.988 2.958 2.888 2.888 2.918
2440.157 2.858 2.778 2.638 2.508 2.398 2.258 2.048 1.878 1.758 1.658
2459.447 1.578 1.388 1.268 1.2154 1.1226 1.1623 1.187 1.1024 1.0689 1.0131
2478.737 1.1025 1.0863 0.9307 0.8936 0.8967 1.0085 0.9649 0.8447 0.7519 0.6918
2498.026 0.7911 0.7678 0.758 0.7677 0.793 0.8378 0.8045 0.7144 0.6812 0.7678
2517.316 0.6903 0.6311 0.6896 0.6872 0.6359 0.6179 0.5887 0.5162 0.4789 0.5957
2536.606 0.6167 0.5566 0.7106 0.6707 0.5533 0.6158 0.555 0.4723 0.566 0.6796
2555.896 0.7285 0.6842 0.6182 0.5838 0.6389 0.7304 0.6959 0.6825 0.6317 0.5977
2575.186 0.6578 0.6017 0.6965 0.8056 0.685 0.6651 0.7201 0.6476 0.5437 0.5132
2594.475 0.5149 0.558 0.5015 0.4916 0.5547 0.5549 0.5627 0.4872 0.4059 0.4008
2613.765 0.4831 0.5112 0.4786 0.5675 0.5872 0.4695 0.4346 0.5114 0.5108 0.4863
2633.055 0.4847 0.4987 0.5602 0.5679 0.5564 0.5483 0.5244 0.5148 0.4794 0.5475
2652.345 0.6054 0.6573 0.7558 0.6501 0.5581 0.5931 0.6441 0.6082 0.4678 0.4659
2671.634 0.5897 0.5979 0.6215 0.7361 0.7708 0.7181 0.7272 0.917 0.9444 0.8725
2690.924 0.9535 0.9836 1.0235 1.135 1.1466 1.121 1.1557 1.1135 0.9929 0.9303
2710.214 0.9496 0.9716 0.9547 0.8833 0.8149 0.78 0.8214 0.8338 0.7605 0.7368
2729.504 0.759 0.7464 0.7512 0.8439 0.9938 1.0694 1.1039 1.178 1.1973 1.278
2748.794 1.298 1.1223 1.0424 1.0113 0.758 0.6389 0.7568 0.7327 0.5757 0.5683
2768.083 0.7049 0.6686 0.6 0.728 0.7141 0.6475 0.6997 0.7067 0.6543 0.6238
2787.373 0.6402 0.6764 0.7484 0.8435 0.8294 0.8343 0.8564 0.8624 0.8461 0.8552
2806.663 0.9011 0.9358 1.0101 1.081 1.1057 1.077 1.1356 1.2138 1.238 1.2142
2825.953 1.308 1.428 1.518 1.548 1.618 1.678 1.708 1.798 1.828 1.978
2845.242 2.288 2.448 2.658 3.018 3.298 3.658 4.008 4.368 4.898 5.408
2864.532 5.868 6.348 6.758 7.048 7.278 7.388 7.348 7.188 7.028 6.948
2883.822 6.708 6.408 6.158 5.988 5.818 5.738 5.888 6.058 6.088 6.168
2903.112 6.508 6.758 6.998 7.428 7.788 8.228 8.828 9.588 10.478 11.608
2922.401 12.708 13.728 14.828 15.718 16.358 16.698 16.588 16.218 15.728 15.008
2941.691 13.988 12.948 11.878 10.788 10.118 9.588 9.158 8.958 8.748 8.518
2960.981 8.428 8.238 8.018 7.878 7.788 7.838 7.848 7.978 8.348 8.698
2980.271 8.938 9.268 9.488 9.658 9.808 9.848 9.818 9.558 9.358 9.288
2999.561 9.148 8.998 8.968 8.948 8.988 9.178 9.198 9.148 9.108 9.138
3018.850 9.128 9.068 9.118 9.038 8.808 8.618 8.588 8.418 8.158 8.028
3038.140 7.758 7.488 7.208 6.888 6.618 6.238 5.688 5.208 4.888 4.458
3057.430 4.098 3.868 3.618 3.348 3.158 2.868 2.548 2.338 2.278 2.338
3076.720 2.168 1.978 1.918 1.758 1.608 1.578 1.508 1.398 1.338 1.268
3096.009 1.2206 1.2285 1.0678 0.9406 1.0052 1.1397 1.1852 1.0114 0.7629 0.6807
3115.299 0.6651 0.6721 0.7208 0.6965 0.7451 0.739 0.579 0.4742 0.5919 0.5828
3134.589 0.4885 0.5072 0.4938 0.4099 0.424 0.5502 0.5705 0.5278 0.3991 0.30006
3153.879 0.26498 0.29447 0.32054 0.27126 0.3905 0.4596 0.3798 0.4831 0.5367 0.4433
3173.169 0.2827 0.129 0.23268 0.30248 0.215 0.2186 0.32203 0.3414 0.3425 0.4149
3192.458 0.3854 0.4199 0.4511 0.32798 0.2829 0.3949 0.4845 0.4803 0.3946 0.1381
3211.748 0.051 0.1637 0.241076 0.29488 0.28836 0.066 0.095 0.33247 0.31993 0.3404
3231.038 0.3631 0.179 0.2077 0.3918 0.3504 0.3585 0.4599 0.4443 0.30182 0.21
3250.328 0.2249 0.30219 0.28846 0.2073 0.245051 0.25363 0.1813 0.26477 0.4722 0.4346
3269.617 0.25566 0.26498 0.32331 0.2356 0.113 0.1446 0.1996 0.27088 0.31546 0.2119
3288.907 0.114 0.24597 0.3904 0.33355 0.2767 0.33158 0.3552 0.1801 0.078 0.242043
3308.197 0.28492 0.247769 0.27528 0.3509 0.29689 0.3438 0.5737 0.5052 0.4659 0.4791
3327.487 0.4164 0.4971 0.5977 0.5811 0.6591 0.708 0.6014 0.5536 0.7054 0.8096
3346.777 0.7408 0.5494 0.4926 0.5437 0.6602 0.8249 0.8657 0.9921 1.0454 1.1168
3366.066 1.248 1.188 1.2357 1.358 1.308 1.1689 1.1491 1.1905 1.2284 1.1735
3385.356 0.8749 0.7194 0.7608 1.0041 1.06 0.8651 0.9972 1.0815 0.8936 1.0502
3404.646 1.0371 0.8196 0.8769 0.699 0.5883 0.6938 0.7174 0.7289 0.6276 0.6729
3423.936 0.9325 0.9926 0.773 0.5053 0.4418 0.3459 0.25882 0.33408 0.4786 0.4458
3443.225 0.4672 0.5049 0.4307 0.4367 0.4309 0.4632 0.6853 0.92 0.7916 0.6711
3462.515 0.6271 0.6976 0.7948 0.7523 0.7246 0.7088 0.651 0.7429 0.7512 0.6719
3481.805 0.6711 0.6338 0.5269 0.3478 0.4192 0.5341 0.5304 0.4347 0.29336 0.3528
3501.095 0.5026 0.4868 0.3848 0.4622 0.4722 0.4262 0.3898 0.3299 0.30303 0.243736
3520.385 0.2881 0.4131 0.3889 0.29273 0.1923 0.26181 0.32942 0.26321 0.3684 0.31156
3539.674 0.27133 0.32299 0.244661 0.27922 0.3556 0.26392 0.1716 0.1957 0.4562 0.5037
3558.964 0.5139 0.5997 0.3493 0.27388 0.4014 0.4815 0.551 0.5926 0.4787 0.4094
3578.254 0.368 0.32102 0.4355 0.525 0.5597 0.5709 0.5682 0.5757 0.5061 0.5007
3597.544 0.7597 0.7414 0.6868 0.6659 0.5671 0.5427 0.4006 0.3609 0.31422 0.3819
3616.833 0.6047 0.6616 0.5524 0.4698 0.5355 0.5946 0.6875 0.756 0.6876 0.5877
3636.123 0.5426 0.7402 0.7938 0.7833 0.8814 0.8464 0.9129 0.8879 0.8912 0.9564
3655.413 0.959 0.9423 0.9261 0.8912 0.8906 0.9594 1.0925 1.1104 0.9739 1.0379
3674.703 1.238 1.238 1.258 1.308 1.278 1.358 1.418 1.478 1.428 1.388
3693.993 1.428 1.458 1.538 1.618 1.538 1.328 1.2103 1.308 1.229 1.1125
3713.282 1.1984 1.1533 1.0486 1.0602 1.0153 0.9664 0.9913 0.8496 0.803 0.9614
3732.572 1.0685 0.793 0.7181 1.0125 1.0314 0.9519 0.7481 0.6416 0.739 0.8233
3751.862 0.7542 0.7902 0.7933 0.7871 0.9607 0.9366 0.7388 0.6664 0.7709 0.9238
3771.152 0.9043 0.9472 1.0156 0.9583 1.0891 1.1279 1.0481 1.0769 1.0516 1.0027
3790.441 1.0108 1.0149 1.1194 1.0616 0.9565 1.169 1.1955 0.9969 0.991 1.0216
3809.731 0.8697 0.8116 0.8228 0.7934 0.6295 0.555 0.8439 0.8569 0.699 0.6205
3829.021 0.5952 0.5074 0.453 0.6037 0.7729 0.7285 0.555 0.4869 0.425 0.4089
3848.311 0.415 0.4205 0.4897 0.4206 0.4569 0.5484 0.3894 0.3699 0.598 0.6432
3867.601 0.5437 0.5826 0.5067 0.32401 0.239799 0.125 0.26277 0.4912 0.3572 0.1652
3886.890 0.2091 0.3679 0.5394 0.5713 0.5028 0.4841 0.3425 0.26177 0.4124 0.241213
3906.180 0 0.318 0.4444 0.4185 0.4945 0.5033 0.4576 0.4985 0.25755 0.069
3925.470 0.29804 0.32548 0.4037 0.5647 0.5422 0.4139 0.29622 0.2006 0.2268 0.122
3944.760 0.33629 0.5171 0.3389 0.28859 0.2186 0.2139 0.31048 0.30542 0.26662 0.3841
3964.049 0.3668 0.4063 0.5335 0.4445 0.351 0.389 0.4452 0.4345 0.4249 0.28455
3983.339 0.096 0.171 0.3383 0.4519 0.4321 0.29737 0.2036 0.1558 0.25304 0.4007
##END=
