##TITLE=2-Chlorobenzenesulfonyl chloride
##JCAMP-DX=4.24
##DATA TYPE=INFRARED SPECTRUM
##ORIGIN=EPA-IR VAPOR PHASE LIBRARY
##OWNER=SRD/NIST
Collection (C) 2018 copyright by the U.S. Secretary of Commerce
on behalf of the United States of America. All rights reserved.
##CAS REGISTRY NO=2905-23-9
##MOLFORM=C 6 H 4 Cl 2 O 2 S
##$NIST SOURCE=MSDC-IR
##STATE=gas
##XUNITS=1/CM
##YUNITS=ABSORBANCE
##XFACTOR=1.
##YFACTOR=0.001
##DELTAX=1.92898
##FIRSTX=549.8
##LASTX=4000.7
##FIRSTY=44.802
##MAXX=4000.7
##MINX=549.759
##MAXY=0.218512
##MINY=0
##NPOINTS=1790
##XYDATA=(X++(Y..Y))
549.759 44.802 57.562 69.972 80.052 91.512 102.282 100.552 95.712 93.932 88.262
569.049 81.642 80.272 87.842 104.592 127.862 153.952 178.632 198.802 212.932 218.512
588.339 213.032 192.272 161.252 132.962 107.432 82.102 60.382 44.432 34.292 27.922
607.628 23.482 20.382 18.082 15.802 13.612 11.452 9.602 8.102 6.682 5.572
626.918 4.732 4.192 3.962 3.772 3.682 3.622 3.672 3.792 3.962 4.332
646.208 5.132 6.722 9.152 12.652 17.102 21.412 24.202 26.092 28.612 28.582
665.498 25.282 22.832 19.922 14.992 10.132 6.872 5.012 3.982 3.512 3.362
684.787 3.532 3.532 3.482 4.242 5.512 6.942 8.452 9.672 11.012 12.702
704.077 14.652 15.532 13.782 11.772 11.012 9.992 8.432 7.102 6.102 5.532
723.367 5.642 6.152 7.152 8.622 10.372 12.782 15.982 20.302 26.042 33.102
742.657 41.682 50.912 60.252 68.932 76.252 82.852 88.912 89.792 78.412 62.962
761.947 52.572 43.512 33.792 24.542 16.752 11.192 7.882 5.812 4.492 3.842
781.236 3.442 3.212 3.172 3.072 2.772 2.572 2.422 2.302 2.262 2.092
800.526 2.002 1.912 1.652 1.472 1.572 1.622 1.592 1.642 1.542 1.502
819.816 1.522 1.492 1.502 1.366 1.3151 1.3249 1.452 1.642 1.762 1.752
839.106 1.782 1.892 1.902 2.012 1.882 1.762 1.802 1.712 1.672 1.962
858.395 2.072 1.832 1.862 2.012 2.072 2.022 1.822 1.592 1.542 1.522
877.685 1.422 1.472 1.3912 1.1337 0.9638 0.9661 0.9495 0.888 0.8392 0.7797
896.975 0.7859 0.9052 0.8403 0.8525 0.9645 0.9836 0.9336 0.9264 0.9247 0.753
916.265 0.7412 0.7772 0.711 0.5928 0.6244 0.7393 0.8547 0.9691 0.8875 0.7315
935.555 0.8817 1.0014 0.976 1.0329 1.1417 1.1821 1.1858 1.3213 1.532 1.602
954.844 1.602 1.652 1.512 1.3961 1.3724 1.1935 1.1923 1.1624 0.8 0.6818
974.134 0.7678 0.8777 0.9334 0.9176 0.799 0.8026 1.0787 1.1446 1.214 1.3466
993.424 1.3841 1.492 1.692 1.792 1.582 1.502 1.662 1.872 2.232 2.442
1012.714 2.602 2.552 2.492 3.122 3.992 4.562 5.462 7.032 8.932 11.672
1032.003 14.962 18.732 22.922 26.412 28.862 30.002 29.802 28.892 26.982 23.362
1051.293 18.592 13.632 9.632 6.802 4.802 3.512 2.442 1.662 1.692 1.932
1070.583 1.892 2.092 2.072 2.032 2.162 2.292 2.242 2.202 2.792 3.232
1089.873 3.082 3.592 4.742 5.832 7.202 8.652 10.502 12.352 13.862 15.662
1109.163 17.012 17.342 17.372 17.002 16.282 14.892 13.472 12.932 12.532 12.602
1128.452 13.452 13.882 13.502 12.842 12.672 12.412 11.412 10.512 9.732 9.542
1147.742 9.702 10.322 11.842 13.812 16.412 19.512 22.802 26.492 30.342 33.832
1167.032 36.712 39.182 41.242 43.102 44.952 47.662 52.532 60.152 71.492 85.732
1186.322 100.782 114.992 127.512 138.702 146.072 141.682 125.272 106.682 89.372 70.642
1205.611 51.442 35.632 24.612 17.602 13.322 10.702 9.382 8.742 7.932 7.572
1224.901 7.532 6.982 6.232 5.922 5.742 5.452 5.582 6.012 6.822 7.992
1244.191 9.512 11.422 13.532 15.782 17.912 19.512 20.452 20.542 19.852 18.582
1263.481 16.722 14.332 11.962 9.772 7.892 6.582 5.662 4.952 4.242 3.682
1282.771 3.302 3.002 2.712 2.392 2.162 2.042 1.972 2.012 2.002 1.902
1302.060 1.902 1.922 1.892 1.962 2.002 1.992 1.962 1.822 1.782 1.852
1321.350 1.912 1.932 1.982 2.052 2.062 2.152 2.242 2.292 2.382 2.462
1340.640 2.632 2.732 2.792 2.952 3.152 3.422 3.722 3.962 4.272 4.622
1359.930 4.942 5.192 5.542 6.142 6.902 7.882 9.142 10.712 12.682 15.152
1379.219 18.342 22.392 27.722 34.712 44.052 56.022 70.222 85.742 100.922 113.722
1398.509 122.392 125.552 123.072 116.292 105.022 90.332 74.892 60.272 48.232 39.762
1417.799 34.622 32.092 31.422 31.942 33.362 35.392 37.852 40.272 42.152 43.372
1437.089 43.812 43.872 43.942 43.612 42.972 42.672 42.872 43.452 43.902 43.722
1456.378 42.482 40.172 37.052 32.902 27.742 22.062 16.722 12.262 9.002 6.812
1475.668 5.432 4.602 4.162 3.922 3.782 3.612 3.442 3.342 3.322 3.172
1494.958 2.912 2.762 2.722 2.662 2.582 2.502 2.502 2.572 2.462 2.332
1514.248 2.332 2.262 2.062 1.902 1.832 1.722 1.712 1.772 1.812 1.872
1533.538 1.902 1.992 2.162 2.352 2.512 2.762 3.062 3.482 3.962 4.422
1552.827 5.082 5.972 6.972 8.172 9.632 11.232 13.032 14.772 16.462 18.022
1572.117 19.072 19.502 19.292 18.432 16.922 15.082 13.262 11.502 9.752 8.092
1591.407 6.542 5.022 3.782 2.982 2.512 2.252 2.062 1.962 2.002 2.222
1610.697 2.402 2.552 2.732 2.932 3.032 2.952 2.812 2.632 2.372 2.032
1629.986 1.742 1.552 1.3595 1.0991 0.9181 0.7523 0.7322 0.7547 0.7157 0.7325
1649.276 0.7294 0.6897 0.5914 0.6183 0.6565 0.6356 0.6929 0.6964 0.7232 0.7604
1668.566 0.7635 0.7943 0.7623 0.7357 0.7266 0.7941 0.8776 0.8687 0.8541 0.9492
1687.856 1.0547 1.1037 1.1723 1.2105 1.3161 1.532 1.682 1.812 1.902 1.912
1707.146 1.932 1.912 1.822 1.652 1.462 1.2668 1.1489 1.0871 1.0265 0.9499
1726.435 0.9306 0.9677 0.9776 0.9502 0.9077 0.8631 0.8132 0.7939 0.817 0.7859
1745.725 0.7566 0.748 0.7597 0.7672 0.7202 0.6936 0.7216 0.6838 0.7015 0.7487
1765.015 0.6896 0.724 0.8483 0.898 0.876 0.8555 0.8917 0.942 0.9258 0.9077
1784.305 0.9215 0.9183 0.9071 0.9628 0.9401 0.9024 0.9754 1.0739 1.1502 1.2721
1803.594 1.462 1.672 1.862 2.062 2.292 2.452 2.562 2.562 2.472 2.392
1822.884 2.232 2.022 1.822 1.622 1.492 1.3396 1.2445 1.2766 1.3406 1.412
1842.174 1.452 1.512 1.592 1.662 1.672 1.582 1.522 1.432 1.2947 1.2408
1861.464 1.1783 1.1046 1.0488 0.9964 0.9763 0.9224 0.8513 0.7444 0.6833 0.6897
1880.754 0.6451 0.648 0.6738 0.6459 0.6258 0.6656 0.7118 0.7484 0.8346 0.9342
1900.043 0.9726 1.0598 1.1723 1.1871 1.2135 1.2248 1.2389 1.2489 1.2579 1.3001
1919.333 1.3515 1.432 1.582 1.782 1.962 2.102 2.252 2.402 2.492 2.502
1938.623 2.382 2.202 1.982 1.802 1.672 1.512 1.422 1.402 1.412 1.532
1957.913 1.662 1.742 1.832 1.862 1.812 1.742 1.652 1.582 1.462 1.2319
1977.202 0.9996 0.8686 0.8063 0.7208 0.6979 0.6975 0.6433 0.605 0.5958 0.6122
1996.492 0.6158 0.5988 0.563 0.5582 0.5301 0.48506 0.5383 0.5373 0.47433 0.46995
2015.782 0.50054 0.50186 0.5537 0.5951 0.5935 0.6195 0.5806 0.5712 0.5883 0.5501
2035.072 0.5439 0.519 0.5081 0.5566 0.5769 0.5615 0.5258 0.5384 0.5909 0.5827
2054.362 0.5497 0.5441 0.5584 0.5653 0.5577 0.5739 0.618 0.6861 0.6713 0.6466
2073.651 0.7033 0.7365 0.7373 0.6935 0.6801 0.6911 0.6856 0.6013 0.542 0.543
2092.941 0.5054 0.45796 0.44453 0.49511 0.47616 0.47577 0.5183 0.5238 0.5241 0.534
2112.231 0.5909 0.6024 0.5892 0.5704 0.5244 0.48412 0.5332 0.5721 0.5352 0.5538
2131.521 0.5676 0.5799 0.6742 0.7103 0.6825 0.6929 0.7507 0.7657 0.7615 0.8013
2150.810 0.7827 0.7534 0.7281 0.6848 0.6581 0.6637 0.6113 0.5647 0.5567 0.5396
2170.100 0.5346 0.5535 0.5973 0.5517 0.4912 0.48059 0.5089 0.5171 0.45127 0.46369
2189.390 0.4923 0.47171 0.5226 0.5085 0.5321 0.5335 0.5087 0.5344 0.5275 0.5761
2208.680 0.6128 0.5822 0.5893 0.6343 0.5858 0.5933 0.6794 0.6327 0.562 0.6379
2227.970 0.6734 0.6657 0.702 0.718 0.7048 0.7258 0.7406 0.7058 0.589 0.48674
2247.259 0.49034 0.5468 0.5713 0.5333 0.5191 0.49534 0.46562 0.44523 0.43488 0.47297
2266.549 0.49653 0.49832 0.5816 0.6384 0.5735 0.583 0.5983 0.5168 0.5579 0.6701
2285.839 0.7024 0.7116 0.694 0.7482 0.8608 0.9137 0.9559 1.0092 1.0136 1.0074
2305.129 0.9757 0.9295 0.8687 0.8106 0.7817 0.7941 0.7776 0.7156 0.7502 0.8146
2324.418 0.8586 0.8784 0.867 0.8554 0.9041 0.9036 0.8889 0.8071 0.664 0.6115
2343.708 0.5754 0.5775 0.5533 0.50161 0.5691 0.6646 0.7146 0.7193 0.6858 0.7027
2362.998 0.8132 0.8399 0.8358 0.8598 0.8335 0.8483 0.8273 0.8102 0.8399 0.7873
2382.288 0.7433 0.7191 0.7167 0.7538 0.7234 0.7086 0.6699 0.6507 0.6264 0.516
2401.578 0.402915 0.4197 0.49414 0.5099 0.49466 0.49527 0.5545 0.5804 0.5682 0.5542
2420.867 0.5916 0.6821 0.6771 0.6396 0.5973 0.5021 0.5297 0.5249 0.45687 0.47539
2440.157 0.46764 0.42216 0.40015 0.371 0.3742 0.44149 0.44579 0.411873 0.43516 0.47381
2459.447 0.513 0.5538 0.5182 0.47656 0.47797 0.45376 0.42038 0.4898 0.5411 0.44613
2478.737 0.41911 0.46114 0.43624 0.409072 0.3773 0.43092 0.49781 0.519 0.49343 0.42171
2498.026 0.49334 0.5546 0.5575 0.5545 0.5545 0.6058 0.5673 0.5336 0.6001 0.5872
2517.316 0.5875 0.6398 0.653 0.6787 0.6864 0.6401 0.6797 0.7429 0.7596 0.8174
2536.606 0.8317 0.7543 0.7695 0.8737 0.8922 0.9274 0.9998 1.0141 1.0147 0.9983
2555.896 1.0477 1.1859 1.2648 1.2834 1.2315 1.3013 1.3553 1.3032 1.3516 1.3405
2575.186 1.3667 1.3945 1.3209 1.3249 1.3776 1.3923 1.432 1.3916 1.3055 1.2494
2594.475 1.2164 1.2187 1.1735 1.1148 1.0197 0.9701 0.9844 1.0533 1.0808 1.0384
2613.765 1.0122 1.0929 1.1049 0.9715 0.9175 0.8591 0.7496 0.6291 0.6116 0.6288
2633.055 0.5994 0.5171 0.4389 0.45447 0.42786 0.42288 0.3097 0.23 0.404112 0.4554
2652.345 0.3375 0.3823 0.39502 0.374 0.3862 0.3295 0.39523 0.42553 0.411006 0.46265
2671.634 0.48318 0.46649 0.43411 0.492 0.5108 0.410439 0.42696 0.46766 0.46761 0.47362
2690.924 0.5354 0.6196 0.6805 0.6513 0.6206 0.6667 0.6751 0.6486 0.5938 0.608
2710.214 0.6092 0.5504 0.5178 0.5445 0.5382 0.43325 0.3729 0.3776 0.42862 0.4902
2729.504 0.48737 0.45725 0.5216 0.45144 0.3996 0.43605 0.3416 0.3395 0.411181 0.44135
2748.794 0.4167 0.3755 0.3367 0.401419 0.45243 0.408505 0.42613 0.45354 0.3623 0.3715
2768.083 0.47441 0.48308 0.4725 0.44964 0.405096 0.3903 0.39783 0.41909 0.47124 0.42919
2787.373 0.3726 0.42684 0.423 0.39544 0.3796 0.3422 0.41993 0.44924 0.404084 0.3677
2806.663 0.3468 0.46103 0.48028 0.3892 0.3528 0.3373 0.406363 0.47311 0.48982 0.50035
2825.953 0.5436 0.5485 0.47064 0.4555 0.48091 0.49913 0.4272 0.3633 0.3846 0.327
2845.242 0.3367 0.43551 0.3507 0.275 0.3648 0.3435 0.3489 0.406112 0.39877 0.41778
2864.532 0.3861 0.39359 0.3739 0.3028 0.264 0.217 0.282 0.286 0.3 0.294
2883.822 0.221 0.294 0.3294 0.282 0.201 0.196 0.286 0.3258 0.3589 0.3815
2903.112 0.3449 0.3729 0.3169 0.266 0.29 0.264 0.3142 0.3863 0.39734 0.3693
2922.401 0.43971 0.50125 0.5046 0.42757 0.39518 0.4386 0.39577 0.3858 0.46424 0.47266
2941.691 0.403171 0.40829 0.49055 0.408834 0.401815 0.5432 0.5095 0.43769 0.391 0.294
2960.981 0.353 0.49067 0.5357 0.567 0.6051 0.5871 0.5762 0.6374 0.6169 0.662
2980.271 0.7267 0.7775 0.7698 0.688 0.7363 0.8043 0.7893 0.8455 0.9058 0.8809
2999.561 0.9032 0.9843 1.0022 0.9193 0.868 0.8695 1.0051 1.0474 0.9352 0.9361
3018.850 0.9298 0.9171 1.0045 1.0924 1.013 0.9181 0.7962 0.6538 0.6693 0.7661
3038.140 0.7028 0.7068 0.8117 0.8635 0.8178 0.806 0.8551 0.9884 1.2684 1.612
3057.430 2.122 2.682 3.382 4.242 5.372 6.552 7.662 8.932 10.002 10.662
3076.720 11.052 10.882 10.272 9.562 8.452 7.172 5.912 4.752 3.792 2.982
3096.009 2.572 2.362 2.012 1.812 1.722 1.492 1.2034 1.1054 1.1433 0.9748
3115.299 0.9383 0.9645 1.0063 1.1454 1.1126 1.0291 1.0652 1.1352 1.0479 1.0276
3134.589 1.1964 1.2571 1.341 1.3689 1.2495 1.2178 1.2066 1.058 0.951 1.0199
3153.879 0.9946 0.8676 0.743 0.7099 0.7245 0.5606 0.45753 0.46836 0.3779 0.39552
3173.169 0.44735 0.41342 0.45901 0.5169 0.43583 0.3066 0.3347 0.3119 0.279 0.3415
3192.458 0.239 0.25 0.3812 0.266 0.233 0.3476 0.3317 0.279 0.183 0.115
3211.748 0.126 0.108 0.038 0.062 0.218 0.267 0.228 0.233 0.247 0.121
3231.038 0 0.196 0.297 0.262 0.385 0.5544 0.40023 0.25 0.42331 0.46542
3250.328 0.3249 0.25 0.302 0.237 0.221 0.3403 0.3799 0.43543 0.3742 0.259
3269.617 0.237 0.197 0.252 0.263 0.246 0.228 0.282 0.3274 0.278 0.272
3288.907 0.3222 0.408698 0.3743 0.282 0.268 0.27 0.21 0.23 0.167 0.179
3308.197 0.351 0.3462 0.3813 0.334 0.237 0.264 0.3736 0.43882 0.43504 0.3468
3327.487 0.3066 0.3758 0.292 0.279 0.3101 0.241 0.191 0.259 0.401453 0.48537
3346.777 0.47739 0.5162 0.5575 0.47227 0.3395 0.235 0.2 0.295 0.3866 0.410512
3366.066 0.44725 0.46441 0.5321 0.6339 0.3929 0.213 0.146 0.129 0.278 0.239
3385.356 0.3457 0.3803 0.3141 0.3593 0.277 0.191 0.163 0.208 0.236 0.282
3404.646 0.23 0.223 0.3253 0.3165 0.41366 0.356 0.227 0.3192 0.207 0.129
3423.936 0.266 0.255 0.282 0.3283 0.44742 0.46719 0.3551 0.3449 0.3067 0.222
3443.225 0.226 0.26 0.3235 0.297 0.277 0.3495 0.239 0.135 0.262 0.41524
3462.515 0.291 0.224 0.287 0.44071 0.47818 0.246 0.144 0.203 0.201 0.254
3481.805 0.248 0.198 0.155 0.097 0.186 0.194 0.122 0.07 0.168 0.3269
3501.095 0.3572 0.3138 0.41888 0.5792 0.46273 0.3112 0.39474 0.44399 0.3083 0.3041
3520.385 0.3836 0.39465 0.294 0.3555 0.371 0.293 0.4576 0.529 0.3837 0.36
3539.674 0.314 0.158 0.234 0.27 0.183 0.098 0.077 0.107 0.057 0.211
3558.964 0.3358 0.28 0.3312 0.3207 0.286 0.3299 0.3387 0.278 0.235 0.29
3578.254 0.3113 0.259 0.213 0.219 0.272 0.222 0.254 0.291 0.269 0.278
3597.544 0.182 0.205 0.276 0.259 0.299 0.408997 0.4397 0.299 0.262 0.281
3616.833 0.269 0.3406 0.3586 0.281 0.318 0.275 0.205 0.3631 0.3469 0.193
3636.123 0.249 0.246 0.28 0.3844 0.328 0.295 0.273 0.23 0.297 0.3061
3655.413 0.248 0.236 0.293 0.3712 0.262 0.053 0.119 0.3302 0.3332 0.42427
3674.703 0.39656 0.251 0.227 0.228 0.3285 0.48666 0.46893 0.3784 0.258 0.25
3693.993 0.149 0.074 0.27 0.262 0.156 0.167 0.23 0.229 0.298 0.296
3713.282 0.259 0.215 0.045 0.09 0.3213 0.3353 0.217 0.194 0.18 0.242
3732.572 0.3829 0.44408 0.3835 0.3794 0.3435 0.3234 0.39316 0.4449 0.5066 0.42808
3751.862 0.42545 0.5187 0.5243 0.43274 0.278 0.167 0.113 0.213 0.403634 0.391
3771.152 0.29 0.285 0.3467 0.3381 0.171 0.11 0.157 0.212 0.3298 0.28
3790.441 0.115 0.212 0.3152 0.241 0.3046 0.3722 0.313 0.3699 0.48337 0.43857
3809.731 0.383 0.5084 0.5938 0.48113 0.47156 0.5557 0.49654 0.6028 0.5814 0.47878
3829.021 0.588 0.43376 0.3883 0.3712 0.31 0.3462 0.205 0.3427 0.5229 0.41519
3848.311 0.3248 0.281 0.219 0.217 0.3058 0.192 0.136 0.117 0.086 0.262
3867.601 0.42404 0.47525 0.5528 0.46023 0.279 0.277 0.3398 0.41663 0.3335 0.3023
3886.890 0.3719 0.41702 0.41553 0.39675 0.3802 0.238 0.237 0.379 0.3582 0.271
3906.180 0.254 0.403745 0.3489 0.183 0.172 0.228 0.185 0.057 0.15 0.286
3925.470 0.263 0.166 0.086 0.158 0.157 0.049 0.12 0.286 0.263 0.25
3944.760 0.3358 0.3295 0.152 0.067 0.266 0.267 0.171 0.239 0.3066 0.3742
3964.049 0.3414 0.229 0.267 0.275 0.197 0.13 0.078 0.173 0.26 0.252
3983.339 0.3667 0.3294 0.186 0.298 0.355 0.204 0.227 0.44481 0.47916 0.3402
##END=
