##TITLE=2-Fluorobenzenesulphonyl chloride
##JCAMP-DX=4.24
##DATA TYPE=INFRARED SPECTRUM
##ORIGIN=EPA-IR VAPOR PHASE LIBRARY
##OWNER=SRD/NIST
Collection (C) 2018 copyright by the U.S. Secretary of Commerce
on behalf of the United States of America. All rights reserved.
##CAS REGISTRY NO=2905-21-7
##MOLFORM=C 6 H 4 Cl F O 2 S
##$NIST SOURCE=MSDC-IR
##STATE=gas
##XUNITS=1/CM
##YUNITS=ABSORBANCE
##XFACTOR=1.
##YFACTOR=0.001
##DELTAX=1.92898
##FIRSTX=549.8
##LASTX=4000.7
##FIRSTY=16.74
##MAXX=4000.7
##MINX=549.759
##MAXY=0.14597
##MINY=0
##NPOINTS=1790
##XYDATA=(X++(Y..Y))
549.759 16.74 20.22 24.73 29.8 35.97 42.87 48.16 54.16 60.45 64.13
569.049 66.47 67.76 68.56 70.79 76.1 86.24 99.34 113.97 128.57 139.31
588.339 145.07 145.97 140.95 127.79 112.13 97.28 80.12 63.23 48.44 36.42
607.628 27.55 21.21 17.19 14.07 10.59 9.19 8.97 7.72 6.89 6.48
626.918 5.84 5.32 4.92 4.72 4.63 4 3.51 3.62 3.66 3.15
646.208 3.11 3.53 3.1 2.45 2.8 3.66 3.91 3.62 3.75 4.49
665.498 5.08 5.98 7.8 9.71 12.67 17.32 22.28 27.58 32.86 36.44
684.787 38.11 39.18 38.49 35.8 32.24 27.28 21.2 15.48 11.57 10.13
704.077 10.12 9.97 10.36 11.52 12.2 11.59 10.37 9.59 8.65 7
723.367 6.39 6 4.93 4.32 4.3 4.3 5.03 6.07 7.16 8.93
742.657 12.06 16.38 21.26 26.43 31.37 36 41.4 47.77 54.07 53.1
761.947 43.84 36.92 32.14 27 21.96 16.69 12.21 9.07 6.42 4.49
781.236 3.5 3 2.69 2.44 2.78 3.19 2.88 2.68 2.61 2.81
800.526 3.03 2.9 3.22 3.59 3.81 4.28 5.05 5.35 5.7 7.45
819.816 10.14 12.38 14.92 18.35 21.67 23.3 23.45 23.53 22.96 21.39
839.106 19.53 16.8 13.34 9.97 7.66 6.49 5.63 5.1 5.13 5.26
858.395 5.06 5.04 4.56 4.43 4.41 3.76 3.54 3.02 2.1087 2.08
877.685 1.7804 0.736 0.597 1.2242 1.7282 1.3137 0.842 1.113 1.6307 1.3333
896.975 1.20131 1.6345 1.7898 1.8353 1.4811 1.21297 1.0475 1.5178 1.19067 0.694
916.265 1.2363 1.4617 1.4239 0.795 0.506 1.016 1.0948 0.915 1.018 1.023
935.555 1.2962 1.4235 1.1155 1.19492 1.7168 1.8789 1.8423 2.15 2.104 2.23
954.844 2.19 2.0659 1.8289 1.7334 1.6253 1.2977 1.4908 1.5511 1.4594 1.1052
974.134 0.66 1.0375 1.3451 0.666 0.983 1.0468 0.225 0.7 1.2786 1.0754
993.424 0.543 0.556 0.857 0.873 0.992 0.983 1.3796 1.5094 1.2166 1.6906
1012.714 1.7488 1.4504 1.7276 2.63 3.09 2.56 2.5 2.71 2.73 3.21
1032.003 3.87 3.03 2.17 2.86 2.68 1.9438 2.18 2.3 2.58 3.02
1051.293 3.28 4.39 4.79 5.29 7.37 9.02 11.28 13.75 14.13 13.48
1070.583 13.72 14.75 13.84 11.83 10.76 8.1 5.14 3.97 3.47 1.5036
1089.873 0.484 2.0721 3.34 3.35 3.7 3.02 2.0065 3.67 4.52 4.64
1109.163 4.94 6.16 8.75 8.41 7.6 8.33 9.89 10.73 11.12 11.45
1128.452 11.26 11.73 11.61 10.1 8.27 7.17 6.01 6.22 7.4 9.29
1147.742 12.06 12.72 13.16 15.87 17.9 19.61 21.5 23.13 24.73 26.44
1167.032 28.47 30.89 34.88 38.87 42.97 48.74 54.61 60.94 67.33 74.46
1186.322 83.14 91.08 97.34 102.23 104.9 103.43 96.18 85 74.55 63.5
1205.611 51.32 40.59 31.6 24.91 20.12 16.43 14.38 13.26 12.29 12.63
1224.901 13.12 13.9 15.34 15.27 16.77 18.45 18.4 19.77 20.59 20.09
1244.191 20.56 20.94 19.7 18.82 17.73 16.44 16.64 17.44 20.13 24.77
1263.481 29.23 32.8 35.54 38.29 39.7 39.02 37.29 34.19 29.58 23.43
1282.771 17.89 14.01 10.98 8.79 7.49 6.96 5.98 4.95 4.5 4.4
1302.060 4.01 3.73 3.6 3.09 3.08 3.18 2.89 2.7 2.47 2.28
1321.350 2.33 2.48 2.75 2.8 2.74 2.75 2.71 2.83 2.96 2.9
1340.640 2.84 3.14 3.46 3.4 3.4 3.57 3.74 3.87 4.04 4.4
1359.930 4.76 4.94 5.35 5.92 6.69 7.4 7.91 9 10.23 11.38
1379.219 13.09 15.42 18.48 22.19 26.89 33.06 40.76 49.89 60.16 70.49
1398.509 80.46 89.03 94.19 95.19 92.38 87.03 78.45 67.19 55.46 44.37
1417.799 34.48 26.06 20.35 16.82 14.57 13.23 12.88 12.95 13.21 13.61
1437.089 14.45 15.85 17.34 19.31 21.55 23.41 25.1 26.41 26.73 27.08
1456.378 27.59 27.5 27.06 26.99 27.99 30.51 34.72 40.28 46.9 53.91
1475.668 59.27 62.95 64.43 63.31 60.63 56.64 50.34 42.32 34.17 27.28
1494.958 21.46 16.65 13.41 11.17 9.61 8.72 8.05 7.51 7.06 6.4
1514.248 6.04 5.65 5.03 4.44 4.06 3.91 3.77 3.29 2.85 2.72
1533.538 2.67 2.74 2.61 2.45 2.49 2.65 2.78 3.12 3.49 3.91
1552.827 4.46 4.9 5.6 6.55 7.1 7.48 8.42 9.57 10.58 11.75
1572.117 13.04 14.58 16.63 18.64 21.04 23.87 26.72 29.78 32.86 35.74
1591.407 37.68 38.05 37.07 34.64 31.15 27.15 22.89 19.01 15.51 12.6
1610.697 10.68 9.67 8.73 7.54 7.03 6.5 5.85 5.23 4.63 4.2
1629.986 3.72 3.21 2.82 2.74 2.39 2.0285 2.071 2.0408 1.8778 1.9962
1649.276 2.26 2.38 2.25 2.0269 1.9213 1.886 1.949 2.17 2.22 2.16
1668.566 2.35 2.4 2.23 2.17 2.18 2.16 2.0475 1.8828 2.15 2.44
1687.856 2.27 2.31 2.43 2.46 2.74 2.81 2.86 2.98 3.01 3.18
1707.146 3.21 3.08 3.12 3.25 3.23 3.13 2.72 2.48 2.5 2.38
1726.435 2.31 2.0218 1.7378 1.9945 2.097 2.0411 2.17 2.15 2.0148 1.8085
1745.725 1.8128 2.0243 1.9518 1.7723 2.0035 2.1116 2.0915 2.22 2.0575 1.8953
1765.015 1.8339 1.7457 1.9152 1.9148 1.7689 1.7937 1.7416 1.6886 1.7353 1.924
1784.305 1.9506 1.918 1.9419 1.9885 2.29 2.42 2.26 2.61 3.04 3.09
1803.594 3.08 3.19 3.34 3.28 3.05 2.92 2.86 2.63 2.43 2.23
1822.884 2.14 1.929 1.7486 1.684 1.6111 1.8274 1.8213 1.7372 1.8234 1.812
1842.174 1.6985 1.5859 1.7126 1.8256 1.6961 1.6371 1.4082 1.3922 1.5237 1.3675
1861.464 1.3178 1.3436 1.3301 1.3777 1.3056 1.15199 1.2726 1.3676 1.328 1.3351
1880.754 1.3532 1.3268 1.18469 1.19168 1.2942 1.4172 1.7076 1.7239 1.578 1.5878
1900.043 1.5565 1.5801 1.5453 1.6175 1.7827 1.6325 1.6262 1.7014 1.7337 2.0085
1919.333 2.35 2.74 2.91 2.9 2.98 2.93 2.91 2.8 2.53 2.35
1938.623 2.3 2.21 2.0645 1.8393 1.7977 1.9882 1.848 1.7659 1.9091 1.9733
1957.913 1.9968 2.0399 1.9907 1.9515 1.9744 1.97 1.9239 1.6422 1.245 1.0941
1977.202 1.16984 1.0618 1.0857 1.2458 1.095 0.969 0.896 0.775 0.695 0.828
1996.492 0.95 0.844 0.78 0.871 1.0822 1.12164 1.1 1.15144 1.0528 0.936
2015.782 1.0967 1.0583 1.1087 1.313 1.119 0.855 0.771 0.883 1.16606 1.2503
2035.072 0.903 0.87 1.0415 1.0611 1.1889 1.19093 0.985 1.01 1.1124 1.0579
2054.362 0.997 0.944 0.827 0.908 1.15381 1.264 1.17077 1.12872 1.5634 1.4762
2073.651 1.16853 1.17324 1.13765 1.0676 1.028 1.13395 1.3607 1.5245 1.3728 1.42
2092.941 1.5346 1.356 1.0957 0.985 0.961 1.1167 1.2405 1.4198 1.2688 1.14776
2112.231 1.16342 1.14712 1.3197 1.3774 1.3641 1.2501 1.3084 1.2867 1.14692 1.0964
2131.521 1.2363 1.2971 1.2815 1.18848 1.1922 1.4194 1.4725 1.15464 1.022 1.078
2150.810 1.20088 1.3902 1.3109 1.22797 1.12527 1.21766 1.3994 1.2636 1.1136 1.20737
2170.100 1.14942 0.979 1.0609 1.21582 1.1107 0.941 1.021 1.0821 1.1188 1.017
2189.390 0.93 0.953 0.905 1.0859 1.22483 1.1063 1.15295 1.1051 0.967 0.766
2208.680 0.758 0.858 0.861 1.17032 1.1087 0.845 0.664 0.608 0.713 0.792
2227.970 0.96 0.997 1.025 1.0357 1.15137 1.14532 0.957 0.922 0.949 0.958
2247.259 0.892 1.028 1.0831 0.978 0.942 0.934 0.912 1.0434 1.22619 1.1276
2266.549 1.024 1.13321 1.20951 1.3474 1.4371 1.3795 1.4701 1.7664 1.8697 1.7426
2285.839 1.5384 1.3156 1.4683 1.4672 1.2383 1.3287 1.21358 1.16944 1.515 1.6006
2305.129 1.3872 1.18668 1.20027 1.3348 1.4903 1.55 1.6837 1.8244 1.8111 1.576
2324.418 1.3575 1.22159 1.3096 1.4511 1.277 1.3575 1.3361 1.15425 1.14237 1.20149
2343.708 1.2352 1.13118 1.0734 1.0979 1.3476 1.4947 1.17805 1.0357 1.0374 0.905
2362.998 1.21726 1.4194 1.0548 0.99 1.2412 1.21202 1.028 0.889 0.867 0.955
2382.288 1.18398 1.2371 1.0679 1.12118 1.1029 1.023 1.1577 1.17536 1.18205 1.3586
2401.578 1.3014 0.99 1.0745 1.1027 0.954 0.931 1.034 1.18521 1.2552 1.16188
2420.867 1.0804 1.1158 1.1027 1.0763 1.0819 1.057 0.946 0.91 1.148 1.3908
2440.157 1.3024 1.1 0.686 0.756 0.82 0.938 1.1166 0.926 1.12802 1.22593
2459.447 1.14849 1.19331 1.2743 1.19311 1.17811 1.3558 1.2403 1.013 1.16826 1.4481
2478.737 1.4895 1.4658 1.4326 1.3709 1.357 1.3063 1.2318 1.2556 1.14045 1.083
2498.026 0.943 0.887 0.989 1.0543 1.14686 1.22732 1.2849 1.025 0.776 0.907
2517.316 1.0552 0.943 0.705 0.777 0.949 1.0526 1.17916 1.15701 1.13664 1.2942
2536.606 1.4717 1.4911 1.4126 1.17279 1.1685 1.4125 1.479 1.4292 1.3809 1.4936
2555.896 1.5308 1.4779 1.5995 1.5834 1.6644 1.7532 1.5959 1.6718 2.1199 2.13
2575.186 1.9729 1.9113 2.0396 2.0818 1.6837 1.7638 1.6086 1.4077 1.7606 1.6299
2594.475 1.4031 1.5229 1.487 1.20501 1.3325 1.15716 0.784 0.824 0.922 1.21243
2613.765 1.014 0.848 0.858 0.864 1.1135 1.17085 1.18865 1.14736 1.1006 1.12994
2633.055 1.13414 1.13924 1.0644 1.17538 1.15469 1.15201 1.2577 1.12206 1.006 1.2138
2652.345 1.01 0.867 1.19989 0.918 0.647 0.638 0.823 0.943 0.905 1.15538
2671.634 1.13262 0.947 0.94 1.1253 1.15399 0.988 0.695 0.498 0.624 0.634
2690.924 0.642 0.806 0.578 0.404 1.13713 1.3122 1.0448 0.946 0.722 0.725
2710.214 1.047 1.22466 0.845 0.536 0.637 0.582 0.475 0.876 1.3113 1.2819
2729.504 0.994 0.965 1.0971 1.0368 0.976 0.946 0.706 0.903 1.16546 0.949
2748.794 0.887 1.0778 1.4757 1.3196 0.677 0.846 1.2755 1.2322 1.4359 1.4434
2768.083 0.874 0.952 1.14643 0.906 0.746 0.95 1.20464 1.1167 1.0904 0.956
2787.373 1.002 1.027 0.809 0.648 0.642 0.861 0.878 0.722 0.754 0.864
2806.663 0.927 0.8 0.669 0.766 0.695 0.479 0.733 1.19635 0.885 0.341
2825.953 0.462 0.5 0.515 0.913 0.881 0.568 0.618 0.639 0.816 1.0363
2845.242 0.886 0.994 0.929 0.761 0.895 0.861 0.766 0.69 0.773 0.942
2864.532 1.001 0.893 0.801 0.812 0.591 0.568 0.55 0.355 0.74 1.2746
2883.822 1.2628 1.19459 1.358 0.881 0.212 0.318 0.586 0.861 0.92 1.0373
2903.112 1.0899 1.003 1.012 0.677 0.612 0.74 0.644 0.569 0.367 0.538
2922.401 0.864 0.759 0.891 0.981 0.503 0.49 0.803 0.722 0.717 0.837
2941.691 0.859 1.20125 1.2752 0.306 0.188 0.851 1.002 0.974 0.896 1.12884
2960.981 1.017 0.778 0.818 0.875 0.931 1.0901 0.585 0.08 0.952 1.16783
2980.271 0.796 0.491 0.379 0.68 0.615 0.467 0.523 0.643 0.934 1.0782
2999.561 1.12981 1.239 0.981 0.873 1.029 1.028 1.0763 0.973 0.994 1.19861
3018.850 1.1147 1.0883 1.3877 1.4879 0.98 1.2942 1.9986 2.0562 1.981 2.123
3038.140 2.0751 1.9849 2.28 2.23 2.29 2.0179 1.8429 1.8293 1.4393 1.819
3057.430 2.15 2.22 2.36 2.24 2.0039 2.1102 2.45 2.73 3.46 4.21
3076.720 4.68 5.46 5.99 6.42 6.72 7.03 7.33 6.99 6.42 5.88
3096.009 5.38 4.79 4.1 3.32 2.54 1.8067 1.4742 1.5329 1.8379 1.4559
3115.299 1.361 1.3697 0.983 0.969 0.648 0.639 1.3277 1.6037 1.0835 0.614
3134.589 0.76 1.3209 1.19951 0.845 0.601 0.637 1.023 0.929 0.9 1.2379
3153.879 1.0777 0.908 0.736 0.693 1.1147 0.998 1.0831 1.3379 1.5603 1.8508
3173.169 1.5674 1.5482 1.399 1.4658 1.6546 1.0905 1.08 1.5409 1.32 1.0327
3192.458 1.16241 1.005 0.848 0.885 0.964 0.661 0.16 0.546 1.528 1.5109
3211.748 1.0817 0.674 0.293 0.225 0.688 1.0306 0.391 0.429 0.965 1.3867
3231.038 1.15904 0.526 0.46 0.512 0.553 0.488 0.705 0.88 1.0696 1.0959
3250.328 0.979 1.16199 0.754 0.38 0.814 1.029 0.671 0.796 1.004 0.711
3269.617 0.59 0.769 1.022 1.1132 1.15807 1.12341 0.657 0.347 0.428 0.5
3288.907 1.4368 1.8972 1.3999 0.996 0.531 0.639 0.697 0.285 0.163 0.529
3308.197 0.645 0.649 0.748 0.691 0.706 1.0781 1.026 0.706 1.16883 0.794
3327.487 0 0.07 0.791 1.028 0.7 1.0334 0.912 0.458 0.343 0.717
3346.777 1.312 1.17032 0.97 0.776 0.299 0.691 1.21542 1.4815 1.5137 1.15219
3366.066 0.631 0.425 0.238 0.329 1.004 0.538 0.16 0.646 0.967 0.979
3385.356 1.16501 1.14216 1.2702 1.2971 0.503 0.706 1.2346 1.15307 0.941 1.018
3404.646 0.964 0.602 0.497 0.692 0.536 0.636 0.638 0.554 0.479 0.229
3423.936 0.668 0.896 0.826 0.557 0.478 0.94 1.2305 1.0668 0.897 0.595
3443.225 0.575 0.841 0.829 0.923 1.12398 0.873 0.314 0.33 0.552 0.556
3462.515 0.589 0.725 0.956 0.713 0.278 0.161 0.312 0.676 0.587 0.261
3481.805 0.425 0.839 0.988 0.601 0.153 0.266 0.615 0.583 0.731 0.608
3501.095 0.284 0.427 0.38 0.399 0.983 0.926 0.795 0.799 0.825 0.877
3520.385 0.09 0.11 0.68 1.041 0.984 1.2352 1.7091 0.97 0.687 0.59
3539.674 0.424 1.0818 1.21428 1.17366 1.267 0.898 0.615 0.455 0.152 0.285
3558.964 0.761 0.998 0.823 0.984 1.341 1.2404 1.2563 1.15252 1.19018 0.963
3578.254 1.0392 1.0776 0.607 0.441 0.364 0.241 0.05 0.327 0.992 1.19459
3597.544 0.971 0.571 0.179 0.822 1.2535 1.1173 1.2562 1.0548 0.542 0.655
3616.833 0.548 0.773 1.2592 0.722 1 1.587 1.3753 0.56 0.296 0.548
3636.123 0.839 1.3426 1.4313 1.2774 1.13289 1.0772 1.12611 0.661 0.619 1.017
3655.413 0.835 0.46 0.789 1.0782 0.537 0.657 1.0713 0.978 0.885 0.839
3674.703 0.871 0.841 0.864 0.507 0.1 0.538 1.2184 1.0597 1.13465 1.17333
3693.993 0.67 0.996 1.015 1.19816 1.351 0.986 0.822 0.682 0.892 0.93
3713.282 0.914 0.998 0.976 1.15414 1.2303 1.026 0.407 0.265 0.855 1.2402
3732.572 1.2695 1.35 0.974 0.424 0.325 0.563 1.0609 0.912 0.943 1.21856
3751.862 1.3739 1.21503 0.587 0.347 0.09 0.04 0.392 0.477 0.448 0.662
3771.152 1.17181 1.4704 1.4426 0.893 0.537 1.12854 1.17347 1.0685 1.2813 0.802
3790.441 0.549 0.955 1.456 0.959 0.318 0.38 0.807 1.1035 1.047 0.438
3809.731 0.07 0.528 0.493 0.238 0.05 0.33 0.589 0.693 1.13532 1.0618
3829.021 0.712 0.749 0.869 1.546 1.5823 0.99 0.938 1.1068 1.026 0.472
3848.311 0.529 1.043 1.2314 1.5161 1.5211 1.2836 1.0591 0.8 0.881 0.836
3867.601 1.079 1.4383 0.729 0.309 0.717 0.393 0.331 0.827 0.875 0.457
3886.890 0.55 1.1076 1.158 1.2614 1.1126 0.693 0.754 1.018 0.693 0.169
3906.180 0.364 0.513 0.508 0.566 0.794 0.872 0.995 1.4903 1.7725 2.0141
3925.470 1.6943 0.797 0.423 0.853 0.634 1.0457 1.4579 0.919 0.874 0.542
3944.760 0.387 0.835 0.769 0.411 0.897 0.647 0.482 0.499 0.511 0.918
3964.049 0.751 0.521 0.799 1.0681 0.767 0.905 1.1876 0.898 1.03 1.3076
3983.339 0.949 0.732 0.965 1.0367 0.685 0.555 0.551 0.477 0.584 0.183
##END=
