##TITLE=3,5-Dichlorobenzoyl chloride
##JCAMP-DX=4.24
##DATA TYPE=INFRARED SPECTRUM
##ORIGIN=EPA-IR VAPOR PHASE LIBRARY
##OWNER=SRD/NIST
Collection (C) 2018 copyright by the U.S. Secretary of Commerce
on behalf of the United States of America. All rights reserved.
##CAS REGISTRY NO=2905-62-6
##MOLFORM=C 7 H 3 Cl 3 O
##$NIST SOURCE=MSDC-IR
##STATE=gas
##XUNITS=1/CM
##YUNITS=ABSORBANCE
##XFACTOR=1.
##YFACTOR=0.001
##DELTAX=1.92934
##FIRSTX=549.9
##LASTX=3999.5
##FIRSTY=3.49
##MAXX=3999.53
##MINX=549.863
##MAXY=0.19867
##MINY=0
##NPOINTS=1789
##XYDATA=(X++(Y..Y))
549.863 3.49 3.39 3.35 3.04 2.7504 2.6005 2.5225 2.4792 2.4382 2.4481
569.156 2.3917 2.1685 2.035 2.003 2.0727 1.97985 1.97024 1.98416 1.9314 2.0333
588.450 1.92927 1.763 1.692 1.663 1.716 1.749 1.741 1.76 1.7969 1.8234
607.743 1.786 1.812 1.8738 2.0154 2.149 2.2324 2.3726 2.4753 2.5047 2.5334
627.037 2.497 2.4383 2.5005 2.655 2.861 3.23 3.77 4.27 4.76 5.24
646.330 5.82 6.4 6.49 5.94 5.16 4.59 4.12 3.75 3.56 3.43
665.624 3.32 3.45 3.65 3.87 4.29 4.78 5.33 6 6.8 7.92
684.917 9.56 11.82 14.41 17.04 20.19 25.18 31.91 34.1 33.02 35.71
704.210 40.72 45.65 49.32 52.93 58.18 64.01 69.02 72.52 74.27 74.83
723.504 75.92 80.19 90.11 105.87 123.84 137.76 144.55 145.39 139.77 126.64
742.797 105.25 78.01 53.83 38.11 29.18 23.94 20.57 18.1 16.2 14.81
762.091 13.71 12.87 12.23 11.55 10.72 9.99 9.37 8.91 8.62 8.4
781.384 8.26 8.31 8.58 9.13 9.97 11.2 13.03 15.55 18.91 23.42
800.678 29.04 35.45 42.14 48.02 52.07 53.8 53.36 50.72 45.45 38.03
819.971 30 23.02 18.02 15.01 13.38 12.57 12.13 11.78 11.45 11.07
839.264 10.66 10.17 9.63 9.23 8.95 8.71 8.61 8.57 8.64 8.95
858.558 9.65 10.98 12.98 15.53 18.38 21.34 24.1 26.74 29.24 29.59
877.851 25.77 20.25 16.64 14.23 11.82 9.7 8.28 7.59 7.34 7.36
897.145 7.4 7.4 7.27 6.97 6.55 6.08 5.9 5.96 6.07 6.33
916.438 6.79 7.42 8.14 9 9.96 11.02 12.21 13.43 14.77 16.3
935.732 17.94 19.98 22.63 26.13 30.73 36.69 44.05 52.37 60.87 68.52
955.025 74.36 77.45 76.98 72.79 65.21 55.27 44.46 34.11 25.53 19.24
974.318 15.02 12.33 10.68 9.75 9.27 9.04 8.98 9.09 9.43 9.86
993.612 9.99 9.8 9.42 8.75 7.9 6.9 5.59 4.44 3.72 3.27
1012.905 2.99 2.8361 2.7233 2.6501 2.5941 2.4962 2.4481 2.4191 2.3848 2.3505
1032.199 2.3455 2.337 2.2908 2.3054 2.3066 2.3023 2.3418 2.3918 2.4732 2.5619
1051.492 2.622 2.6325 2.676 2.7458 2.8347 2.96 3.03 3.08 3.23 3.46
1070.786 3.63 3.72 3.89 4.11 4.33 4.52 4.74 4.92 5.19 5.74
1090.079 6.57 7.76 9.41 11.57 14.01 16.45 18.5 19.76 20.35 20.57
1109.372 19.89 18.32 16.61 15.09 13.85 12.78 11.73 10.78 9.76 8.5
1128.666 7.31 6.51 6.06 5.94 6.02 6.15 6.41 6.72 6.99 7.3
1147.959 7.62 7.95 8.25 8.48 8.74 8.99 9.24 9.59 9.97 10.42
1167.253 11.04 11.87 12.99 14.44 16.48 19.41 23.48 29.09 36.73 47.16
1186.546 61.07 78.83 100.4 124.8 149.93 172.78 189.95 198.67 197.01 184.74
1205.840 163.21 135.22 105.14 77.77 56.62 42.39 33.4 27.68 24.02 21.52
1225.133 19.84 18.82 18.23 18.06 18.08 18.21 18.22 17.97 17.35 16.22
1244.426 14.72 13.02 11.41 9.86 8.47 7.42 6.57 5.9 5.4 5.03
1263.720 4.71 4.46 4.38 4.36 4.29 4.26 4.38 4.63 5.01 5.49
1283.013 6 6.46 6.75 6.83 6.79 6.63 6.23 5.69 5.09 4.59
1302.307 4.21 3.97 3.77 3.57 3.46 3.35 3.24 3.09 2.97 2.8668
1321.600 2.7099 2.602 2.5514 2.4987 2.5053 2.5418 2.5753 2.6223 2.695 2.8173
1340.894 2.93 3.05 3.17 3.27 3.31 3.34 3.4 3.46 3.44 3.42
1360.187 3.49 3.6 3.77 4.03 4.38 4.87 5.6 6.66 8.1 10.02
1379.480 12.56 15.69 19.31 23.1 26.74 29.75 31.62 32.12 31.12 28.96
1398.774 26.19 23.32 20.72 18.8 18.23 19.22 21.66 25.36 29.71 34.1
1418.067 37.85 40.69 42.38 42.65 40.78 36.72 31.67 26.9 22.38 17.86
1437.361 13.47 10.17 8.08 6.78 6.01 5.6 5.31 5.11 5.06 5.07
1456.654 5.12 5.14 5.15 5.17 5.1 4.98 4.85 4.61 4.34 4.02
1475.948 3.7 3.44 3.22 3.01 2.8361 2.7 2.6219 2.603 2.5696 2.5315
1495.241 2.5487 2.5074 2.4806 2.5418 2.535 2.5459 2.5969 2.6704 2.708 2.6789
1514.534 2.748 2.8319 2.8777 2.95 3.04 3.15 3.33 3.62 3.91 4.31
1533.828 4.83 5.43 6.26 7.31 8.5 9.86 11.5 13.53 15.98 18.98
1553.121 22.66 27.39 32.95 39.86 47.64 55.02 61.85 67.32 70.63 71.44
1572.415 69.51 64.7 56.67 46.97 37.46 28.99 22.34 17.39 13.89 11.44
1591.708 9.8 8.54 7.57 6.8 6.1 5.5 5 4.51 4.08 3.66
1611.002 3.25 2.9 2.6867 2.5179 2.3749 2.2601 2.1695 2.1462 2.1231 2.0898
1630.295 2.1411 2.1753 2.1598 2.1621 2.1518 2.1588 2.186 2.2418 2.3368 2.4296
1649.588 2.5118 2.641 2.8231 2.94 3.04 3.13 3.24 3.35 3.44 3.6
1668.882 3.77 3.88 3.98 4.14 4.33 4.48 4.58 4.69 4.85 4.94
1688.175 4.96 4.93 4.85 4.74 4.61 4.37 4.19 4 3.76 3.67
1707.469 3.62 3.62 3.71 3.81 4.01 4.17 4.32 4.57 4.83 5.06
1726.762 5.35 5.71 6.21 6.89 7.75 8.66 9.83 11.35 13.02 14.82
1746.056 16.78 19.29 21.71 22.71 22.87 23.45 24.59 26.28 29.16 34.08
1765.349 42.36 55.86 76.21 102.48 132.39 157.31 172.3 181.04 185.77 179.73
1784.642 158.63 128.32 97.54 71.49 51.65 37.67 28.66 23.06 19.93 18.51
1803.936 18.35 19.09 20.28 21.4 22.14 22.23 21.39 19.43 16.66 13.78
1823.229 11.29 9.11 7.27 5.84 4.8 4.15 3.74 3.47 3.28 3.15
1842.523 3.02 2.8227 2.6758 2.6374 2.5919 2.5181 2.4717 2.4637 2.4445 2.4164
1861.816 2.4298 2.4755 2.4725 2.4399 2.4656 2.4663 2.4641 2.5063 2.4917 2.5141
1881.110 2.5688 2.5946 2.7181 2.8206 2.91 3.02 3.16 3.35 3.62 3.94
1900.403 4.22 4.38 4.5 4.63 4.64 4.49 4.27 4.02 3.81 3.63
1919.696 3.43 3.26 3.09 2.89 2.6992 2.5669 2.4366 2.3037 2.1929 2.0779
1938.990 1.98028 1.93008 1.8799 1.783 1.696 1.66 1.642 1.593 1.537 1.557
1958.283 1.564 1.528 1.49 1.455 1.454 1.422 1.396 1.385 1.358 1.318
1977.577 1.342 1.326 1.257 1.252 1.292 1.309 1.29 1.304 1.279 1.276
1996.870 1.277 1.217 1.199 1.255 1.264 1.225 1.22 1.261 1.287 1.227
2016.164 1.203 1.223 1.228 1.182 1.145 1.159 1.137 1.109 1.14 1.17
2035.457 1.162 1.186 1.233 1.269 1.314 1.325 1.277 1.285 1.309 1.278
2054.750 1.256 1.241 1.262 1.278 1.218 1.203 1.261 1.255 1.232 1.221
2074.044 1.216 1.27 1.272 1.242 1.224 1.237 1.24 1.205 1.212 1.207
2093.337 1.183 1.19 1.232 1.296 1.304 1.272 1.314 1.363 1.364 1.392
2112.631 1.456 1.48 1.547 1.67 1.735 1.8143 1.89601 1.92866 1.9342 1.95201
2131.924 1.94455 1.89288 1.8353 1.7939 1.741 1.71 1.725 1.72 1.713 1.727
2151.218 1.755 1.754 1.761 1.76 1.708 1.65 1.626 1.568 1.509 1.45
2170.511 1.363 1.333 1.301 1.266 1.28 1.255 1.259 1.288 1.299 1.322
2189.804 1.315 1.326 1.367 1.381 1.408 1.428 1.424 1.423 1.418 1.411
2209.098 1.378 1.342 1.328 1.317 1.304 1.29 1.29 1.294 1.323 1.35
2228.391 1.352 1.357 1.377 1.409 1.365 1.304 1.273 1.245 1.246 1.19
2247.685 1.15 1.152 1.167 1.18 1.145 1.136 1.177 1.172 1.146 1.156
2266.978 1.144 1.132 1.144 1.145 1.139 1.169 1.178 1.161 1.16 1.196
2286.272 1.178 1.15 1.178 1.163 1.179 1.209 1.219 1.209 1.213 1.239
2305.565 1.241 1.243 1.247 1.224 1.227 1.232 1.218 1.23 1.232 1.252
2324.858 1.258 1.26 1.291 1.287 1.265 1.256 1.262 1.265 1.25 1.287
2344.152 1.297 1.285 1.261 1.251 1.282 1.274 1.28 1.283 1.292 1.301
2363.445 1.287 1.26 1.28 1.335 1.354 1.359 1.363 1.391 1.443 1.497
2382.739 1.553 1.614 1.647 1.656 1.641 1.671 1.708 1.678 1.641 1.622
2402.032 1.604 1.546 1.521 1.443 1.352 1.311 1.285 1.255 1.221 1.195
2421.326 1.166 1.225 1.253 1.226 1.23 1.245 1.248 1.242 1.212 1.194
2440.619 1.19 1.177 1.158 1.143 1.129 1.203 1.206 1.137 1.16 1.187
2459.912 1.191 1.177 1.194 1.195 1.172 1.206 1.223 1.182 1.157 1.131
2479.206 1.148 1.228 1.2 1.117 1.087 1.094 1.102 1.12 1.157 1.145
2498.499 1.143 1.144 1.167 1.211 1.228 1.237 1.273 1.304 1.317 1.348
2517.793 1.386 1.434 1.369 1.367 1.387 1.34 1.371 1.339 1.289 1.254
2537.086 1.242 1.239 1.196 1.17 1.15 1.114 1.11 1.098 1.04 1.094
2556.380 1.16 1.107 1.107 1.17 1.174 1.167 1.231 1.319 1.351 1.314
2575.673 1.345 1.402 1.379 1.321 1.266 1.222 1.213 1.178 1.149 1.131
2594.966 1.08 1.074 1.087 1.056 1.034 1.061 1.122 1.119 1.03 1.041
2614.260 1.105 1.056 0.997 1.043 1.069 1.072 1.094 1.105 1.097 1.054
2633.553 1.029 1.008 0.955 0.999 1.053 1.047 1.061 1.024 0.965 0.987
2652.847 1.032 1.07 1.081 1.023 1.011 1.026 0.97 0.921 0.915 0.915
2672.140 0.968 0.989 0.926 0.88 0.897 0.86 0.82 0.84 0.84 0.88
2691.434 0.88 0.81 0.83 0.86 0.84 0.904 0.974 0.984 0.917 0.904
2710.727 0.918 0.938 0.97 0.987 0.954 0.87 0.86 0.891 1.054 1.158
2730.020 1.07 1.032 1.003 1.017 1.095 1.112 1.058 1.05 1.084 1.093
2749.314 1.174 1.199 1.131 1.053 1.029 1.071 1.131 1.145 1.233 1.314
2768.607 1.334 1.427 1.5 1.554 1.562 1.533 1.542 1.551 1.408 1.267
2787.901 1.28 1.296 1.239 1.193 1.173 1.168 1.181 1.133 1.075 0.957
2807.194 0.94 1.019 1.026 0.998 0.958 0.995 1.077 1.014 0.901 0.8
2826.488 0.77 0.83 0.83 0.83 0.88 1.006 1.024 0.978 1.096 1.104
2845.781 1.046 1.042 1.088 1.209 1.169 1.093 1.189 1.185 1.08 1.058
2865.074 1.05 1.043 1.032 0.979 0.87 0.8 0.82 0.84 0.72 0.68
2884.368 0.68 0.62 0.57 0.68 0.68 0.61 0.62 0.53 0.52 0.53
2903.661 0.56 0.55 0.53 0.48 0.42 0.39 0.39 0.38 0.4 0.48
2922.955 0.56 0.52 0.45 0.53 0.47 0.42 0.46 0.46 0.51 0.53
2942.248 0.57 0.68 0.64 0.49 0.41 0.42 0.54 0.55 0.57 0.68
2961.542 0.75 0.75 0.7 0.77 0.85 0.85 0.87 0.84 0.84 0.965
2980.835 1.022 1.033 0.992 0.967 0.933 1.018 1.11 1.1 1.112 0.988
3000.128 0.81 0.7 0.79 0.76 0.67 0.7 0.72 0.79 0.71 0.64
3019.422 0.66 0.58 0.55 0.5 0.55 0.54 0.4 0.41 0.4 0.38
3038.715 0.35 0.36 0.45 0.38 0.32 0.48 0.56 0.49 0.51 0.74
3058.009 0.73 0.56 0.63 0.67 0.73 0.86 1.054 1.173 1.288 1.692
3077.302 2.0407 2.6026 3.4 4.15 4.78 5.28 5.46 5.42 5.3 4.78
3096.596 4.03 3.32 2.6228 2.0355 1.745 1.473 1.089 0.78 0.64 0.46
3115.889 0.44 0.46 0.29 0.23 0.26 0.32 0.41 0.34 0.29 0.36
3135.182 0.38 0.39 0.43 0.35 0.28 0.33 0.5 0.53 0.54 0.51
3154.476 0.47 0.48 0.43 0.37 0.3 0.28 0.35 0.36 0.35 0.34
3173.769 0.41 0.42 0.29 0.27 0.27 0.22 0.28 0.25 0.14 0.28
3193.063 0.32 0.31 0.27 0.25 0.27 0.24 0.41 0.5 0.35 0.29
3212.356 0.34 0.4 0.31 0.25 0.22 0.11 0.08 0.18 0.21 0.12
3231.650 0.17 0.23 0.26 0.26 0.26 0.25 0.17 0.11 0.2 0.26
3250.943 0.08 0 0.09 0.13 0.18 0.35 0.4 0.32 0.31 0.32
3270.236 0.39 0.47 0.36 0.37 0.38 0.31 0.22 0.25 0.39 0.47
3289.530 0.5 0.39 0.38 0.3 0.28 0.4 0.33 0.2 0.19 0.37
3308.823 0.38 0.33 0.35 0.26 0.41 0.44 0.24 0.24 0.23 0.14
3328.117 0.24 0.49 0.61 0.56 0.46 0.33 0.38 0.43 0.5 0.44
3347.410 0.29 0.48 0.57 0.51 0.46 0.56 0.64 0.62 0.62 0.53
3366.704 0.61 0.59 0.52 0.54 0.59 0.53 0.43 0.44 0.47 0.31
3385.997 0.14 0.29 0.36 0.32 0.37 0.38 0.3 0.33 0.34 0.33
3405.290 0.46 0.52 0.5 0.54 0.57 0.49 0.36 0.36 0.33 0.32
3424.584 0.36 0.37 0.46 0.58 0.58 0.57 0.65 0.61 0.56 0.56
3443.877 0.64 0.72 0.67 0.63 0.74 0.85 0.8 0.74 0.68 0.73
3463.171 0.79 0.7 0.72 0.72 0.7 0.7 0.58 0.66 0.75 0.62
3482.464 0.67 0.73 0.84 0.922 0.929 1.069 1.096 1.007 1.053 1.165
3501.758 1.038 0.954 1.021 1.042 1.058 1.145 1.329 1.398 1.475 1.701
3521.051 1.75 1.8606 2.1657 2.4558 2.7438 2.95 3.18 3.28 3.38 3.4
3540.344 3.27 3.14 2.9 2.66 2.3317 2.0273 1.8788 1.77 1.701 1.598
3559.638 1.391 1.325 1.297 1.287 1.407 1.504 1.507 1.488 1.39 1.283
3578.931 1.342 1.41 1.356 1.221 1.141 1.105 1.086 1.051 0.943 0.81
3598.225 0.82 0.934 0.964 0.894 0.82 0.91 1.018 1.048 0.966 0.972
3617.518 1.072 0.963 0.87 0.974 0.963 0.906 1.056 1.06 0.983 1.006
3636.812 1.062 1.088 1.006 0.911 0.956 1.056 1.008 0.91 0.924 0.999
3656.105 1.043 0.906 0.86 1.027 1.086 1.034 0.984 0.955 0.981 1.009
3675.398 0.994 1.015 1.008 0.991 0.924 0.957 1.093 1.141 1.154 1.064
3694.692 0.974 1.027 1.061 1.013 1.017 1.026 1.021 0.98 0.965 1.015
3713.985 1.058 1.135 1.065 0.939 0.935 1.036 1.104 1.033 1.04 1.091
3733.279 0.979 1 1.059 0.981 0.923 0.952 1.014 0.931 0.87 0.922
3752.572 0.95 0.942 1.054 1.168 1.168 1.105 1.039 1.03 0.95 0.921
3771.866 1.034 1.083 1.067 1.089 1.134 1.129 1.153 1.138 1.091 1.111
3791.159 1.102 1.079 1.166 1.149 1.104 1.116 1.104 1.122 1.199 1.14
3810.452 1.075 1.153 1.202 1.256 1.283 1.314 1.239 1.158 1.185 1.128
3829.746 1.117 1.178 1.181 1.153 1.013 0.982 1.026 1.108 1.212 1.168
3849.039 1.138 1.121 1.089 1.11 1.065 1.02 1.083 1.144 1.115 1.161
3868.333 1.133 1.085 1.108 1.124 1.161 1.106 1.116 1.149 1.108 1.18
3887.626 1.237 1.25 1.291 1.275 1.24 1.231 1.231 1.212 1.251 1.323
3906.920 1.231 1.168 1.234 1.229 1.173 1.145 1.117 1.101 1.198 1.306
3926.213 1.256 1.16 1.218 1.207 1.195 1.233 1.186 1.203 1.226 1.168
3945.506 1.174 1.256 1.222 1.188 1.105 1.106 1.201 1.254 1.261 1.173
3964.800 1.099 1.095 1.128 1.205 1.278 1.293 1.268 1.245 1.287 1.266
3984.093 1.178 1.151 1.12 1.073 1.121 1.084 1.082 1.154 1.186
##END=
