##TITLE=Methyl-3,5-dichlorobenzoate
##JCAMP-DX=4.24
##DATA TYPE=INFRARED SPECTRUM
##ORIGIN=NIST Mass Spectrometry Data Center
##OWNER=NIST Standard Reference Data Program
Collection (C) 2018 copyright by the U.S. Secretary of Commerce
on behalf of the United States of America. All rights reserved.
##CAS REGISTRY NO=2905-67-1
##MOLFORM=C 8 H 6 Cl 2 O 2
##$NIST SOURCE=MSDC-IR
##SPECTROMETER/DATA SYSTEM=HP-GC/MS/IRD
##STATE=gas
##XUNITS=1/CM
##YUNITS=ABSORBANCE
##XFACTOR=1.0
##YFACTOR=0.000002500
##DELTAX=4.0
##FIRSTX=550.0
##LASTX=3846.0
##FIRSTY=0.000208
##MAXX=3846
##MINX=550
##MAXY=0.025
##MINY=0
##NPOINTS=825
##XYDATA=(X++(Y..Y))
550.0 83 9 28 48 60 63 36 34 1 43
590.0 85 53 53 48 49 38 34 35 25 42
630.0 54 36 32 52 71 107 184 263 340 338
670.0 224 139 82 35 34 57 79 86 92 89
710.0 99 111 147 248 461 699 801 746 538 397
750.0 380 435 568 710 770 741 649 541 512 637
790.0 935 1317 1667 1877 1853 1563 1155 770 492 367
830.0 326 318 305 292 292 282 280 327 476 605
870.0 681 685 513 338 236 188 175 181 177 148
910.0 139 115 94 71 59 55 56 50 53 88
950.0 103 106 153 207 287 400 566 815 1046 1164
990.0 1110 838 509 288 183 141 106 95 92 89
1030.0 93 77 68 76 93 119 128 126 143 183
1070.0 204 231 263 303 390 551 768 924 957 867
1110.0 679 499 433 480 575 700 857 1068 1251 1301
1150.0 1254 1082 852 694 591 553 528 544 622 693
1190.0 735 752 767 751 678 683 764 817 917 1090
1230.0 1260 1420 1650 1997 2568 3446 4688 6258 7910 9313
1270.0 10000 9560 7998 5831 3802 2373 1512 1025 758 603
1310.0 511 457 417 377 341 314 288 260 244 224
1350.0 213 228 244 259 291 335 403 500 648 824
1390.0 949 969 868 712 601 609 730 907 1078 1188
1430.0 1232 1295 1414 1470 1332 995 634 419 321 266
1470.0 238 209 186 169 148 130 125 117 106 106
1510.0 111 120 134 155 171 183 199 234 281 350
1550.0 487 739 1138 1665 2164 2405 2245 1713 1114 686
1590.0 446 330 272 233 204 181 163 138 120 127
1630.0 128 124 131 133 129 128 130 130 130 136
1670.0 133 131 127 126 144 148 176 239 307 398
1710.0 491 532 526 527 557 667 969 1660 2964 4467
1750.0 5272 4995 3563 1902 979 622 493 478 523 564
1790.0 582 510 391 288 217 174 140 120 103 93
1830.0 93 89 86 82 81 81 86 96 96 83
1870.0 65 53 50 51 59 59 56 55 51 34
1910.0 39 57 60 61 59 59 55 58 71 84
1950.0 86 85 94 94 86 80 77 73 70 67
1990.0 66 68 66 68 62 64 66 57 49 42
2030.0 42 38 38 39 41 43 43 42 42 39
2070.0 31 38 52 53 54 60 61 62 68 69
2110.0 67 71 77 83 78 75 76 72 67 50
2150.0 37 38 41 45 48 42 34 47 57 37
2190.0 28 41 44 37 43 48 39 28 30 35
2230.0 34 38 35 36 39 36 36 38 37 41
2270.0 46 47 44 40 40 36 31 27 32 38
2310.0 24 19 34 41 47 42 39 48 43 46
2350.0 52 52 51 45 41 43 43 39 32 39
2390.0 47 44 43 35 27 29 36 40 37 36
2430.0 40 40 35 31 40 46 48 47 36 20
2470.0 23 36 42 37 32 28 26 27 21 17
2510.0 31 36 29 32 43 39 22 31 33 23
2550.0 38 36 25 22 20 28 32 34 40 30
2590.0 23 24 33 29 18 25 31 21 8 1
2630.0 7 18 12 8 13 18 23 31 26 19
2670.0 23 25 10 7 22 25 36 35 26 27
2710.0 30 30 38 33 21 33 22 8 13 20
2750.0 29 25 19 28 27 24 37 36 37 29
2790.0 11 20 27 13 21 36 40 40 39 45
2830.0 60 68 93 119 140 157 148 144 144 129
2870.0 108 87 69 73 75 71 81 85 92 98
2910.0 96 98 124 143 127 117 132 158 182 222
2950.0 301 451 664 823 820 641 398 239 169 146
2990.0 159 166 179 199 212 197 185 174 159 151
3030.0 163 174 165 153 125 93 96 93 85 97
3070.0 78 72 94 120 155 166 156 122 88 76
3110.0 73 61 44 45 50 57 57 60 62 56
3150.0 58 53 46 48 42 39 36 20 14 25
3190.0 44 44 38 37 25 17 24 17 0 5
3230.0 33 34 16 30 27 14 23 28 33 41
3270.0 63 59 47 33 10 5 13 13 13 31
3310.0 32 23 20 26 48 64 43 21 32 51
3350.0 46 39 70 75 45 32 30 40 51 58
3390.0 67 72 78 67 59 75 59 47 52 70
3430.0 104 94 74 78 57 56 72 42 45 87
3470.0 99 88 95 118 126 115 105 91 87 73
3510.0 71 87 87 67 65 90 88 79 102 111
3550.0 90 81 70 59 39 52 83 88 105 91
3590.0 74 83 90 102 109 89 50 56 76 86
3630.0 93 76 50 82 82 78 88 80 75 65
3670.0 75 69 66 72 72 80 75 77 87 68
3710.0 84 87 69 92 89 65 61 76 91 90
3750.0 81 76 82 84 75 85 91 80 67 69
3790.0 70 34 43 83 96 104 101 89 90 117
3830.0 112 85 93 93 74
##END=
