##TITLE=Menthyl acetate
##JCAMP-DX=4.24
##DATA TYPE=INFRARED SPECTRUM
##ORIGIN=EPA-IR VAPOR PHASE LIBRARY
##OWNER=SRD/NIST
Collection (C) 2018 copyright by the U.S. Secretary of Commerce
on behalf of the United States of America. All rights reserved.
##CAS REGISTRY NO=29066-34-0
##MOLFORM=C 12 H 22 O 2
##$NIST SOURCE=MSDC-IR
##STATE=gas
##XUNITS=1/CM
##YUNITS=ABSORBANCE
##XFACTOR=1.
##YFACTOR=0.001
##DELTAX=1.92898
##FIRSTX=549.8
##LASTX=4000.7
##FIRSTY=1.0493
##MAXX=4000.7
##MINX=549.759
##MAXY=0.290293
##MINY=0
##NPOINTS=1790
##XYDATA=(X++(Y..Y))
549.759 1.0493 0.8725 0.6551 0.3183 0.1394 0.25052 0.6119 0.7638 0.6506 0.6593
569.049 0.7497 0.7894 0.9592 1.0175 0.9435 1.0887 1.173 1.193 1.433 1.593
588.339 1.683 1.803 1.843 2.313 2.893 3.243 3.733 4.313 5.283 6.293
607.628 6.843 7.123 7.073 6.793 6.333 5.583 4.533 3.463 2.673 2.223
626.918 1.813 1.553 1.503 1.673 1.993 2.293 2.643 3.143 3.803 4.243
646.208 4.573 4.953 4.993 4.843 4.433 3.563 2.893 2.553 2.073 1.413
665.498 1.0479 0.9691 0.9722 0.8823 0.7936 0.6959 0.572 0.5557 0.5158 0.4911
684.787 0.5605 0.7776 0.7342 0.6512 0.6195 0.5614 0.7529 0.8323 0.7296 0.7536
704.077 0.7779 0.7052 0.7177 0.7518 0.8266 0.8177 0.7365 0.6156 0.4815 0.4013
723.367 0.3456 0.3223 0.3166 0.3072 0.2883 0.2939 0.3996 0.5925 0.5503 0.3962
742.657 0.4351 0.3868 0.3998 0.3938 0.3461 0.163819 0.051 0.3299 0.3865 0.4055
761.947 0.4322 0.4119 0.4404 0.4169 0.4084 0.3191 0.2687 0.3653 0.516 0.6428
781.236 0.6274 0.5547 0.4854 0.5984 0.6885 0.6089 0.5889 0.5931 0.6866 0.7573
800.526 0.7968 0.9726 1.0296 0.9686 1.173 1.393 1.283 1.313 1.393 1.313
819.816 1.393 1.543 1.813 2.073 2.313 2.863 3.683 4.263 4.623 5.153
839.106 5.553 5.593 5.223 4.663 4.263 3.903 3.253 2.703 2.543 2.363
858.395 2.173 2.043 1.913 1.833 1.953 1.913 1.883 2.193 2.373 2.363
877.685 2.373 2.513 2.633 2.733 3.143 3.583 4.043 4.853 5.743 6.803
896.975 7.993 8.933 9.663 10.053 9.843 9.273 8.593 7.863 7.133 6.383
916.265 5.843 5.743 5.753 5.863 5.993 6.073 6.053 5.783 5.573 5.343
935.555 5.023 4.823 4.823 4.933 5.143 5.453 5.773 6.463 7.563 8.693
954.844 9.993 11.333 12.743 14.103 15.443 16.693 17.673 18.623 19.473 20.253
974.134 20.833 21.383 22.073 22.443 22.223 21.963 21.823 21.593 21.563 21.893
993.424 22.853 24.273 25.803 27.633 29.773 32.593 36.073 39.693 43.483 47.833
1012.714 52.153 55.783 59.163 61.683 62.733 62.853 61.863 60.013 57.343 53.883
1032.003 50.803 47.733 44.413 41.443 38.823 35.843 32.353 28.743 25.433 22.513
1051.293 19.903 17.953 16.733 15.953 15.353 15.093 15.073 15.293 15.693 16.363
1070.583 17.293 18.323 19.683 20.893 21.783 22.403 23.063 23.903 24.303 23.933
1089.873 23.593 23.383 22.583 21.303 19.963 18.893 17.753 16.203 14.493 13.243
1109.163 12.233 11.063 10.313 9.483 8.593 8.203 7.643 7.203 6.993 6.843
1128.452 6.743 6.593 6.613 6.673 6.713 6.933 7.323 7.873 8.353 9.003
1147.742 9.953 10.363 10.513 10.823 10.893 10.873 10.793 10.753 10.893 11.223
1167.032 12.003 13.113 14.583 16.263 17.793 19.383 20.673 21.333 21.663 21.573
1186.322 21.193 21.023 20.473 20.013 20.373 20.753 21.483 22.993 25.123 27.933
1205.611 31.493 35.703 40.803 46.743 53.793 62.493 72.703 84.773 99.593 117.173
1224.901 137.703 161.373 187.083 213.533 239.353 262.593 280.343 290.133 290.293 279.763
1244.191 259.403 231.083 197.483 161.903 127.803 98.513 75.943 59.733 48.293 40.493
1263.481 34.983 30.963 28.333 26.533 24.853 23.483 22.503 21.543 20.683 19.743
1282.771 18.663 17.793 17.023 16.203 15.453 14.693 14.003 13.333 12.633 11.993
1302.060 11.373 10.783 10.193 9.633 9.193 8.873 8.553 8.233 7.933 7.713
1321.350 7.573 7.523 7.533 7.533 7.593 7.723 7.903 8.233 8.693 9.253
1340.640 10.133 11.153 12.283 13.583 15.123 17.023 19.283 22.193 25.973 30.603
1359.930 36.033 42.023 48.203 53.923 58.603 61.943 63.783 63.813 61.363 57.083
1379.219 52.223 47.263 42.513 38.273 34.523 31.143 28.113 25.163 22.113 19.223
1398.509 16.613 14.233 12.283 10.783 9.703 8.923 8.403 8.073 7.833 7.673
1417.799 7.583 7.553 7.573 7.593 7.613 7.733 7.933 8.123 8.383 8.753
1437.089 9.263 9.993 11.053 12.413 14.013 15.783 17.693 19.773 21.863 23.613
1456.378 24.833 25.463 25.423 24.973 24.163 22.903 21.323 19.583 17.733 15.903
1475.668 14.183 12.473 10.923 9.473 8.273 7.323 6.513 5.893 5.433 5.063
1494.958 4.773 4.543 4.373 4.223 4.133 4.013 3.893 3.923 3.943 3.983
1514.248 4.013 3.943 3.953 3.983 3.963 3.953 3.903 3.823 3.753 3.673
1533.538 3.633 3.643 3.653 3.593 3.563 3.633 3.673 3.673 3.713 3.713
1552.827 3.653 3.603 3.523 3.413 3.403 3.463 3.373 3.363 3.343 3.233
1572.117 3.233 3.123 2.993 2.973 2.923 2.813 2.703 2.583 2.473 2.313
1591.407 2.203 2.183 2.143 2.183 2.163 2.173 2.253 2.253 2.293 2.313
1610.697 2.293 2.293 2.333 2.393 2.453 2.463 2.423 2.403 2.423 2.493
1629.986 2.593 2.603 2.503 2.483 2.583 2.683 2.733 2.763 2.763 2.823
1649.276 2.963 2.993 2.983 3.013 3.053 3.083 3.133 3.133 3.233 3.333
1668.566 3.363 3.463 3.663 3.883 4.093 4.263 4.493 4.693 4.853 5.203
1687.856 5.593 5.973 6.373 6.833 7.383 8.033 8.703 9.443 10.193 10.863
1707.146 11.523 12.153 12.533 12.873 13.213 13.533 14.043 14.663 15.523 16.923
1726.435 18.893 21.563 25.363 30.543 37.693 46.983 58.423 72.623 88.603 105.583
1745.725 121.963 136.523 147.853 153.833 151.253 139.423 122.313 105.113 88.523 72.783
1765.015 59.183 48.483 40.663 35.313 31.503 28.753 26.593 24.753 23.043 21.373
1784.305 19.923 18.573 17.233 15.943 14.743 13.623 12.613 11.633 10.583 9.633
1803.594 8.813 8.033 7.343 6.763 6.303 5.883 5.513 5.253 5.003 4.733
1822.884 4.493 4.283 4.063 3.763 3.473 3.303 3.133 2.963 2.813 2.723
1842.174 2.683 2.633 2.623 2.583 2.543 2.533 2.463 2.383 2.323 2.203
1861.464 2.083 2.083 2.013 1.893 1.803 1.713 1.623 1.553 1.473 1.453
1880.754 1.433 1.403 1.443 1.443 1.373 1.343 1.373 1.423 1.433 1.393
1900.043 1.353 1.373 1.403 1.373 1.413 1.453 1.433 1.403 1.423 1.443
1919.333 1.443 1.483 1.473 1.433 1.443 1.433 1.373 1.343 1.333 1.293
1938.623 1.283 1.263 1.173 1.1163 1.1416 1.183 1.1211 1.0562 1.0371 1.0477
1957.913 1.061 1.0158 0.9764 0.9215 0.8661 0.8556 0.8417 0.8106 0.8043 0.8225
1977.202 0.7954 0.7717 0.8149 0.7844 0.7372 0.8408 0.862 0.7755 0.7801 0.8016
1996.492 0.7863 0.7855 0.8042 0.7905 0.7765 0.7546 0.7748 0.8403 0.8756 0.8872
2015.782 0.8454 0.8453 0.8977 0.8938 0.8554 0.8536 0.8347 0.7897 0.7862 0.7885
2035.072 0.7739 0.7707 0.7369 0.6766 0.7257 0.7566 0.7168 0.6793 0.6416 0.6962
2054.362 0.7777 0.7807 0.7234 0.7525 0.81 0.7937 0.7933 0.8545 0.9874 1.0827
2073.651 1.11 1.0797 1.0939 1.1416 1.1154 1.1004 1.0674 1.0711 1.0483 0.9917
2092.941 1.0126 0.9519 0.9359 0.9474 0.885 0.9593 1.041 1.0234 1.0506 1.0637
2112.231 1.0819 1.1515 1.1461 1.1254 1.1248 1.104 1.1613 1.233 1.293 1.373
2131.521 1.373 1.453 1.533 1.543 1.553 1.533 1.503 1.473 1.423 1.343
2150.810 1.273 1.273 1.213 1.1259 1.086 1.0762 1.0131 0.9986 0.9701 0.8959
2170.100 0.9272 0.8799 0.8491 0.86 0.8526 0.8089 0.7493 0.7204 0.6912 0.6612
2189.390 0.6613 0.6993 0.7088 0.6807 0.6475 0.6698 0.6993 0.7405 0.7187 0.6736
2208.680 0.721 0.7711 0.7797 0.7649 0.6802 0.6071 0.6782 0.7274 0.7238 0.7396
2227.970 0.7135 0.7234 0.7365 0.7168 0.754 0.7522 0.7588 0.7974 0.794 0.802
2247.259 0.8468 0.88 0.8849 0.8815 0.9044 0.9466 0.8985 0.8554 0.8751 0.9091
2266.549 0.8757 0.8463 0.8461 0.8389 0.8073 0.8248 0.8645 0.811 0.7927 0.7901
2285.839 0.7491 0.7375 0.772 0.7606 0.7444 0.8039 0.8524 0.8506 0.8481 0.9095
2305.129 0.8703 0.7732 0.7006 0.6757 0.6957 0.6525 0.6999 0.7396 0.7162 0.7471
2324.418 0.7494 0.7726 0.7733 0.6956 0.6739 0.7374 0.7397 0.7129 0.7268 0.7247
2343.708 0.7778 0.8007 0.7593 0.7458 0.7289 0.7069 0.7346 0.6944 0.6011 0.616
2362.998 0.7033 0.6803 0.6527 0.7364 0.7111 0.6391 0.6621 0.6556 0.6707 0.77
2382.288 0.7787 0.8341 0.8864 0.8431 0.8443 0.8296 0.8432 0.8305 0.8621 0.8956
2401.578 0.8207 0.776 0.76 0.7906 0.8157 0.8525 0.8957 0.8871 0.8933 0.8714
2420.867 0.8933 0.9629 0.96 0.9924 1.027 1.0437 1.0691 1.0373 0.9865 0.9688
2440.157 0.9742 0.9777 1.0155 1.0886 1.1249 1.1013 1.1611 1.193 1.1621 1.203
2459.447 1.273 1.323 1.293 1.363 1.423 1.363 1.313 1.363 1.403 1.353
2478.737 1.253 1.173 1.163 1.1058 1.0097 0.9844 0.9181 0.7985 0.7446 0.7518
2498.026 0.7606 0.7265 0.7237 0.7963 0.7601 0.6891 0.8031 0.8335 0.776 0.8067
2517.316 0.7965 0.7846 0.7547 0.7349 0.7423 0.7714 0.7631 0.7496 0.7508 0.7279
2536.606 0.8012 0.8059 0.767 0.7314 0.708 0.8083 0.8128 0.7872 0.8235 0.7804
2555.896 0.7597 0.7843 0.7772 0.8198 0.8338 0.8586 0.8726 0.919 1.0028 1.0041
2575.186 1.0336 1.0619 1.0965 1.1233 1.173 1.193 1.243 1.323 1.343 1.393
2594.475 1.423 1.433 1.493 1.603 1.593 1.603 1.783 1.863 1.833 1.843
2613.765 1.853 1.873 1.803 1.743 1.813 1.803 1.733 1.703 1.743 1.793
2633.055 1.813 1.813 1.733 1.733 1.753 1.693 1.693 1.723 1.753 1.843
2652.345 1.893 1.863 1.823 1.903 2.033 1.983 1.903 1.833 1.853 1.963
2671.634 1.943 1.913 1.933 2.013 2.013 2.003 1.993 1.913 1.883 1.913
2690.924 2.013 2.023 1.923 1.963 2.063 2.103 2.143 2.153 2.153 2.273
2710.214 2.303 2.323 2.403 2.463 2.553 2.643 2.743 2.813 2.953 3.103
2729.504 3.203 3.233 3.353 3.353 3.213 3.183 3.203 3.203 3.103 3.033
2748.794 2.953 2.843 2.763 2.683 2.653 2.663 2.683 2.713 2.663 2.623
2768.083 2.693 2.643 2.583 2.593 2.673 2.803 2.893 2.803 2.763 2.923
2787.373 3.033 3.163 3.303 3.483 3.623 3.723 3.853 3.983 4.143 4.263
2806.663 4.393 4.633 4.823 4.863 5.003 5.233 5.413 5.573 5.713 5.823
2825.953 6.043 6.313 6.573 6.833 7.123 7.663 8.423 9.213 10.213 11.803
2845.242 14.163 17.303 21.023 24.963 28.893 32.693 35.973 38.353 40.233 42.023
2864.532 43.923 46.253 49.503 53.853 59.263 65.023 69.313 71.183 71.133 69.773
2883.822 67.233 63.443 58.913 54.423 50.483 47.603 45.793 44.723 44.423 45.003
2903.112 46.113 47.733 50.063 53.023 56.513 60.743 65.843 71.563 78.263 86.193
2922.401 94.643 102.723 109.893 115.673 120.113 122.743 123.143 122.613 121.623 119.723
2941.691 116.803 113.723 111.253 109.393 108.573 109.633 113.133 118.973 128.873 143.983
2960.981 155.413 157.113 154.303 147.453 134.903 118.613 100.033 80.883 64.233 51.623
2980.271 42.483 35.703 30.403 26.143 22.573 19.453 17.073 15.123 13.493 12.293
2999.561 11.333 10.523 9.783 9.183 8.793 8.423 7.933 7.663 7.453 7.213
3018.850 6.943 6.763 6.663 6.563 6.423 6.233 6.123 5.853 5.643 5.663
3038.140 5.543 5.283 5.153 4.993 4.733 4.573 4.503 4.383 4.293 4.363
3057.430 4.403 4.393 4.463 4.393 4.303 4.283 4.123 4.103 4.173 3.993
3076.720 3.813 3.733 3.633 3.543 3.503 3.383 3.203 3.113 3.103 3.093
3096.009 2.983 2.923 2.913 2.833 2.663 2.583 2.673 2.613 2.563 2.553
3115.299 2.463 2.363 2.293 2.233 2.243 2.323 2.323 2.253 2.153 2.213
3134.589 2.293 2.283 2.253 2.243 2.283 2.223 2.143 2.073 2.003 1.923
3153.879 2.063 2.163 2.023 1.963 1.943 1.983 1.903 1.873 1.883 1.923
3173.169 2.003 1.913 1.843 1.863 1.783 1.663 1.703 1.683 1.613 1.573
3192.458 1.493 1.473 1.413 1.393 1.483 1.473 1.383 1.313 1.253 1.243
3211.748 1.163 1.0241 1.0653 1.0767 1.0032 0.9984 0.9844 0.8959 0.8241 0.7598
3231.038 0.5987 0.4969 0.5676 0.6631 0.5975 0.5594 0.6223 0.7085 0.6958 0.5986
3250.328 0.572 0.5905 0.6148 0.5385 0.5186 0.5407 0.5748 0.5588 0.3434 0.3117
3269.617 0.3903 0.5108 0.5571 0.4441 0.2864 0.21773 0.3615 0.3727 0.3352 0.3779
3288.907 0.4141 0.4272 0.3711 0.325 0.4006 0.4488 0.4105 0.4307 0.4407 0.5029
3308.197 0.543 0.4202 0.3084 0.319 0.20434 0.20306 0.3996 0.3772 0.3353 0.3902
3327.487 0.4511 0.4379 0.2809 0.3927 0.5331 0.3915 0.3685 0.4693 0.4246 0.3875
3346.777 0.3971 0.4305 0.5547 0.5408 0.4797 0.4539 0.439 0.4742 0.5431 0.4792
3366.066 0.3591 0.3384 0.4029 0.5408 0.6357 0.6449 0.6138 0.4992 0.408 0.3968
3385.356 0.4217 0.4009 0.3472 0.4227 0.5835 0.5501 0.4685 0.4181 0.3516 0.4388
3404.646 0.4663 0.5139 0.5217 0.5112 0.3198 0.1323 0.3073 0.4739 0.4799 0.5153
3423.936 0.5363 0.5045 0.5837 0.501 0.3961 0.3228 0.3892 0.5205 0.4262 0.4217
3443.225 0.4438 0.4001 0.4893 0.5116 0.5627 0.5138 0.4326 0.6557 0.659 0.7333
3462.515 0.9121 0.9444 0.9943 0.993 1.0568 1.193 1.313 1.493 1.623 1.743
3481.805 1.793 1.813 1.853 1.613 1.553 1.563 1.443 1.443 1.343 1.0888
3501.095 0.9489 1.0196 0.9172 0.761 0.7252 0.6268 0.4822 0.503 0.5309 0.5168
3520.385 0.6078 0.5123 0.3914 0.4262 0.4611 0.4713 0.4906 0.3597 0.3249 0.4383
3539.674 0.4127 0.3852 0.3278 0.3843 0.4929 0.22381 0.037 0.166006 0.23192 0.20175
3558.964 0.164573 0.15655 0.0632 0.0648 0.3466 0.4573 0.3886 0.25102 0.153 0.18331
3578.254 0.163085 0.2659 0.2732 0.322 0.3915 0.3913 0.24059 0.098 0.018 0.0771
3597.544 0.20444 0.0718 0.003 0.0958 0.168412 0.1435 0.047 0.169998 0.3044 0.22134
3616.833 0.1418 0 0.049 0.18292 0.1215 0.0668 0.1329 0.048 0.1063 0.2727
3636.123 0.22156 0.25043 0.3658 0.4187 0.319 0.25056 0.3588 0.3325 0.3321 0.3375
3655.413 0.216 0.0934 0.1235 0.2823 0.3461 0.3586 0.20644 0.17447 0.2951 0.2891
3674.703 0.142 0.057 0.1754 0.0804 0.041 0.17772 0.17344 0.21505 0.1407 0.1002
3693.993 0.3236 0.3247 0.21285 0.2222 0.1006 0.043 0.2036 0.2865 0.16477 0.0705
3713.282 0.1447 0.21811 0.3312 0.26096 0.22402 0.3347 0.3404 0.3958 0.2462 0.18879
3732.572 0.23314 0.1814 0.21596 0.163266 0.21618 0.17358 0.20306 0.24207 0.0951 0.18466
3751.862 0.25045 0.3082 0.292 0.3109 0.3004 0.21221 0.2776 0.3609 0.3564 0.4123
3771.152 0.4756 0.3516 0.3612 0.4846 0.4416 0.2875 0.3324 0.4974 0.3743 0.3312
3790.441 0.4136 0.2926 0.3126 0.3966 0.3076 0.25811 0.23273 0.3303 0.3635 0.1933
3809.731 0.1151 0.1385 0.3054 0.399 0.3493 0.3987 0.381 0.2946 0.4636 0.5094
3829.021 0.3978 0.4435 0.4346 0.3404 0.4261 0.587 0.6371 0.6901 0.6546 0.5731
3848.311 0.6653 0.6336 0.4365 0.4311 0.3781 0.372 0.4429 0.3397 0.3703 0.5772
3867.601 0.3966 0.17538 0.25903 0.499 0.6695 0.5851 0.5726 0.6677 0.6156 0.477
3886.890 0.4566 0.3924 0.3824 0.5403 0.5784 0.378 0.4387 0.7237 0.6416 0.4923
3906.180 0.4209 0.4669 0.681 0.7069 0.5621 0.552 0.6789 0.5936 0.5634 0.5216
3925.470 0.5032 0.5217 0.3839 0.4923 0.6811 0.6859 0.6947 0.6351 0.5685 0.6562
3944.760 0.6965 0.4115 0.3778 0.6887 0.742 0.7855 0.6492 0.5883 0.745 0.724
3964.049 0.5585 0.455 0.4402 0.3976 0.5914 0.7679 0.6297 0.4512 0.3598 0.3719
3983.339 0.3325 0.266 0.3878 0.431 0.3635 0.3763 0.4324 0.5026 0.5481 0.5671
##END=
