##TITLE=2,5-Difluoropropiophenone
##JCAMP-DX=4.24
##DATA TYPE=INFRARED SPECTRUM
##ORIGIN=EPA-IR VAPOR PHASE LIBRARY
##OWNER=SRD/NIST
Collection (C) 2018 copyright by the U.S. Secretary of Commerce
on behalf of the United States of America. All rights reserved.
##CAS REGISTRY NO=29112-90-1
##MOLFORM=C 9 H 8 F 2 O
##$NIST SOURCE=MSDC-IR
##STATE=gas
##XUNITS=1/CM
##YUNITS=ABSORBANCE
##XFACTOR=1.
##YFACTOR=0.001
##DELTAX=1.92898
##FIRSTX=549.8
##LASTX=4000.7
##FIRSTY=3.968
##MAXX=4000.7
##MINX=549.759
##MAXY=0.060058
##MINY=0
##NPOINTS=1790
##XYDATA=(X++(Y..Y))
549.759 3.968 4.898 3.938 3.648 3.878 4.318 4.278 3.408 3.468 3.608
569.049 3.938 3.968 3.738 2.968 2.638 3.288 3.138 2.728 2.558 2.778
588.339 2.998 2.568 2.138 2.548 3.188 3.058 2.328 2.158 2.368 1.888
607.628 1.858 2.168 1.948 1.818 1.808 1.878 2.298 2.338 2.488 2.268
626.918 1.858 1.6745 1.4652 2.008 2.018 1.5914 1.778 1.908 1.868 2.158
646.208 2.898 2.908 2.668 3.088 3.068 1.818 1.5119 1.728 0.8659 1.0603
665.498 1.62 1.888 1.998 1.898 1.6742 1.4623 1.818 1.918 1.778 2.058
684.787 2.168 2.118 2.338 2.338 2.158 2.128 1.918 1.808 2.218 2.338
704.077 2.618 3.078 2.798 2.808 2.678 2.868 3.608 3.988 4.318 4.468
723.367 4.818 5.288 5.358 5.168 5.208 5.678 5.998 6.418 7.048 7.708
742.657 8.468 9.778 11.578 13.568 15.528 16.658 17.588 18.278 18.458 18.138
761.947 17.148 16.228 14.568 12.388 10.558 8.608 7.678 6.988 6.158 5.538
781.236 5.008 4.278 3.448 3.598 3.268 2.768 3.068 3.488 3.918 4.148
800.526 4.548 4.948 5.508 7.058 8.428 9.528 10.758 12.538 14.338 15.248
819.816 14.908 13.448 12.568 11.708 10.288 9.008 7.948 6.758 5.478 4.468
839.106 4.348 4.268 3.358 3.238 2.948 2.858 3.618 3.898 3.918 3.618
858.395 4.048 4.818 4.868 5.158 6.038 6.708 7.188 7.828 8.958 10.208
877.685 11.428 12.328 12.588 13.028 13.348 12.908 11.998 11.478 10.448 9.318
896.975 8.608 7.768 6.818 5.748 4.818 4.168 3.838 3.358 2.978 2.898
916.265 2.848 2.408 1.998 2.028 1.938 1.6783 1.7151 1.888 1.848 1.4037
935.555 1.049 1.1853 1.5528 1.978 2.158 2.388 2.288 1.818 1.878 2.158
954.844 2.468 2.508 2.528 2.848 3.068 2.848 2.408 2.998 3.308 2.798
974.134 2.458 1.968 2.218 2.808 2.848 1.988 1.798 2.038 2.318 2.868
993.424 1.918 1.4158 1.958 2.648 2.608 2.118 2.378 2.528 2.498 2.668
1012.714 2.678 3.018 3.538 3.468 3.298 3.588 3.608 4.078 4.828 4.028
1032.003 3.158 3.058 3.388 2.988 2.158 2.348 1.6059 1.3647 1.6814 1.1096
1051.293 1.346 1.5229 1.918 2.458 2.248 2.398 3.268 3.478 2.668 2.008
1070.583 2.458 2.228 1.4935 2.388 3.008 3.058 2.788 1.998 1.898 1.5954
1089.873 1.948 2.728 3.558 4.168 4.278 4.138 3.618 3.418 4.548 4.728
1109.163 4.528 6.338 6.928 7.478 7.588 5.788 5.528 5.438 4.568 5.788
1128.452 6.738 6.878 5.908 4.788 6.078 7.508 7.408 7.838 10.948 12.678
1147.742 13.318 15.618 17.348 18.048 17.688 17.288 17.578 16.888 16.078 15.238
1167.032 14.208 13.818 14.438 14.968 15.318 15.538 14.218 15.258 16.378 16.948
1186.322 19.088 20.628 22.128 23.338 24.438 24.088 24.468 25.268 23.858 22.398
1205.611 21.168 20.448 18.308 16.088 16.618 15.378 13.738 13.388 13.048 13.048
1224.901 12.468 12.048 12.208 12.488 10.808 11.038 12.538 13.128 14.558 16.808
1244.191 19.118 20.898 22.828 25.448 27.898 29.538 30.908 32.178 33.948 33.738
1263.481 32.208 30.198 26.168 22.068 18.918 16.768 15.198 13.948 12.728 11.518
1282.771 10.968 10.908 10.608 10.148 9.888 9.558 9.188 9.088 8.628 7.938
1302.060 7.768 7.418 6.918 6.608 6.478 6.528 6.448 6.188 5.858 5.658
1321.350 5.448 5.188 5.278 5.368 5.228 5.098 5.178 5.358 5.438 5.508
1340.640 5.658 5.908 6.368 6.638 6.578 6.468 6.238 5.858 5.608 5.378
1359.930 4.918 4.628 4.178 3.828 3.798 3.788 3.728 3.698 3.848 3.758
1379.219 3.948 4.438 4.448 4.478 4.918 5.158 5.468 5.828 6.418 7.468
1398.509 8.868 11.108 14.088 17.618 21.468 25.298 28.568 30.918 32.578 33.218
1417.799 32.218 29.878 26.378 21.828 17.458 14.308 11.928 10.508 9.968 9.648
1437.089 9.418 9.258 9.168 9.168 9.028 9.238 9.688 9.728 9.878 10.108
1456.378 10.438 11.218 12.048 13.038 14.328 15.898 17.848 20.468 23.568 27.348
1475.668 31.818 37.028 42.958 48.868 53.948 57.668 59.718 60.058 58.678 55.598
1494.958 50.808 44.468 37.528 30.718 24.308 19.148 14.968 11.658 9.278 7.608
1514.248 6.118 5.158 4.638 4.178 3.788 3.288 2.868 2.598 2.628 2.548
1533.538 2.538 2.568 2.448 2.498 2.508 2.378 1.998 1.728 1.888 2.308
1552.827 2.518 2.598 2.528 2.548 2.678 2.348 2.388 2.588 2.658 2.628
1572.117 2.688 3.008 3.308 3.338 3.218 3.558 3.978 4.198 4.648 4.818
1591.407 4.788 4.948 4.988 4.938 4.868 4.828 4.788 4.738 4.688 4.848
1610.697 4.728 4.408 4.448 4.498 4.698 4.848 4.848 4.778 4.648 4.678
1629.986 4.748 4.468 3.878 3.728 3.838 3.628 3.428 3.208 3.168 3.148
1649.276 3.048 3.228 3.038 3.038 3.328 3.188 3.118 3.268 3.208 3.428
1668.566 3.798 4.108 4.408 4.688 5.278 5.768 6.158 6.828 7.878 9.248
1687.856 10.628 11.988 13.938 16.048 18.588 21.458 23.888 26.638 28.638 29.958
1707.146 30.748 31.048 30.648 29.568 28.048 25.978 23.438 20.988 18.758 16.738
1726.435 14.768 13.388 12.048 10.698 9.788 8.778 8.078 7.438 6.838 6.438
1745.725 5.898 5.368 5.038 4.768 4.198 3.668 3.478 3.318 3.218 3.008
1765.015 2.828 2.648 2.448 2.378 2.368 2.218 1.948 1.788 1.968 2.198
1784.305 2.248 2.028 1.758 1.818 1.848 1.5816 1.5889 1.918 1.738 1.5818
1803.594 1.7112 1.6077 1.5147 1.5323 1.5785 1.5461 1.4445 1.4037 1.4903 1.3886
1822.884 1.3358 1.4437 1.4281 1.4051 1.3767 1.4601 1.4646 1.3728 1.4385 1.3508
1842.174 1.1779 1.2045 1.2379 1.3437 1.3945 1.2658 1.4321 1.788 1.928 1.898
1861.464 1.968 2.038 2.008 2.158 2.328 2.178 2.058 1.928 1.878 1.838
1880.754 1.4637 1.1869 1.0518 0.9798 0.936 0.9586 1.036 0.9821 0.80187 0.8709
1900.043 0.8842 0.9054 0.9822 0.991 1.0502 0.8484 0.9259 1.1726 0.9628 0.76403
1919.333 0.8524 0.9036 0.78279 0.6976 0.8587 1.084 0.9176 0.6615 0.7062 0.79158
1938.623 0.8335 0.78545 0.74961 0.839 0.9537 0.7735 0.591 0.6961 0.78914 0.9491
1957.913 0.9292 0.8811 0.9459 0.9147 0.9771 0.896 0.74316 0.887 1.0971 0.9478
1977.202 0.9 1.1041 1.0175 1.0337 1.1334 0.975 0.9286 1.088 1.2178 1.268
1996.492 1.1812 1.1694 1.0563 0.9916 1.2114 1.2443 1.0889 1.0981 1.1068 1.0416
2015.782 0.9173 0.9387 1.129 1.1939 1.134 1.0055 0.9421 0.9215 1.0725 0.9945
2035.072 0.8445 0.9861 0.918 0.76503 0.6954 0.8328 0.9802 0.9775 0.9192 0.9168
2054.362 0.9334 0.8219 0.8366 0.9968 0.9679 0.8202 0.8759 0.9004 0.9012 0.9152
2073.651 0.9242 0.9124 0.9016 0.9149 0.8319 0.726276 0.8571 0.9447 0.80662 0.73355
2092.941 0.8281 0.9204 0.9046 0.6675 0.588 0.6781 0.6578 0.8787 0.8354 0.6284
2112.231 0.6559 0.6887 0.6603 0.74615 0.9449 0.8799 0.73839 0.719738 0.604 0.74422
2131.521 0.8463 0.77864 0.70884 0.607 0.6223 0.78035 0.9713 0.7993 0.6325 0.522
2150.810 0.53 0.6392 0.6824 0.6979 0.6959 0.7001 0.6283 0.534 0.549 0.6491
2170.100 0.7142 0.77602 0.586 0.584 0.81593 0.6659 0.479 0.568 0.6603 0.525
2189.390 0.484 0.6229 0.72958 0.658 0.6247 0.529 0.431 0.6241 0.6866 0.78172
2208.680 0.8904 0.73177 0.77016 0.79871 0.6674 0.584 0.578 0.567 0.436 0.441
2227.970 0.601 0.80763 0.718103 0.626 0.6497 0.686 0.75649 0.6844 0.567 0.76607
2247.259 0.9392 0.6746 0.535 0.505 0.548 0.518 0.544 0.61 0.631 0.6363
2266.549 0.6801 0.451 0.358 0.8213 0.8578 0.585 0.7048 0.6943 0.6206 0.511
2285.839 0.207 0.539 0.7009 0.554 0.6218 0.6564 0.6309 0.80832 1.0392 0.9301
2305.129 0.6215 0.359 0.345 0.454 0.6736 0.75382 0.6514 0.599 0.70873 0.9268
2324.418 0.9305 0.720953 0.6201 0.407 0.231 0.366 0.6817 0.878 0.6413 0.568
2343.708 0.717163 0.6783 0.6208 0.71095 0.79545 0.7799 0.74204 0.6521 0.5 0.6584
2362.998 0.74345 0.6441 0.8183 0.9812 0.80092 0.73254 0.9216 0.9039 0.7876 0.75119
2382.288 0.80209 0.78519 0.6759 0.575 0.6603 0.76283 0.608 0.559 0.448 0.51
2401.578 0.9588 1.0746 0.9105 0.8401 0.6428 0.617 0.7319 0.7144 0.74933 0.6663
2420.867 0.551 0.72985 0.79776 0.80244 0.9127 0.9501 0.9886 0.9051 0.6861 0.6
2440.157 0.79685 0.81573 0.7621 0.6806 0.495 0.572 0.70898 0.566 0.396 0.533
2459.447 0.548 0.489 0.437 0.454 0.722785 0.548 0.301 0.507 0.51 0.498
2478.737 0.6291 0.533 0.422 0.574 0.75737 0.6908 0.7361 0.8982 0.8827 0.80033
2498.026 0.724144 0.8635 0.9923 0.78942 0.75394 0.81652 0.8577 0.8712 0.77954 0.6182
2517.316 0.559 0.542 0.601 0.596 0.375 0.448 0.615 0.6337 0.562 0.466
2536.606 0.51 0.79725 0.861 0.572 0.462 0.314 0.572 0.8847 0.73247 0.587
2555.896 0.473 0.334 0.425 0.602 0.577 0.71657 0.6941 0.723802 0.597 0.351
2575.186 0.369 0.506 0.528 0.298 0.199 0.314 0.351 0.282 0.438 0.377
2594.475 0.223 0.542 0.7485 0.53 0.357 0.463 0.6944 0.522 0.386 0.367
2613.765 0.292 0.528 0.564 0.612 0.382 0.238 0.229 0.214 0.26 0.175
2633.055 0.28 0.127 0.058 0.121 0.24 0.472 0.436 0.255 0.158 0.277
2652.345 0.312 0.252 0.335 0.502 0.521 0.6762 0.535 0.227 0.227 0.214
2671.634 0.344 0.6216 0.74927 0.324 0.345 0.8618 0.7005 0.486 0.6482 0.52
2690.924 0.577 0.547 0.259 0.235 0.354 0.415 0.308 0.395 0.6501 0.57
2710.214 0.23 0.294 0.76009 0.726671 0.504 0.6264 0.9402 0.78603 0.531 0.7477
2729.504 0.81267 0.6204 0.341 0.34 0.588 0.8401 0.603 0.343 0.464 0.456
2748.794 0.6636 0.77242 0.473 0.253 0.475 0.8604 0.8577 0.5 0.413 0.36
2768.083 0.214 0.508 0.6958 0.447 0.385 0.484 0.526 0.8676 0.9864 0.8896
2787.373 0.8232 0.6523 0.475 0.262 0.511 0.73658 0.9133 0.9294 0.6267 0.78406
2806.663 0.8928 0.8434 0.6551 0.402 0.541 1.0221 0.717345 0.506 0.8995 0.9157
2825.953 1.0369 0.8922 0.6536 0.78627 0.79945 0.8333 1.0416 0.8541 0.76916 0.401
2845.242 0.596 1.3304 1.3223 1.2513 1.3185 1.4354 1.4292 1.3679 1.3599 1.6614
2864.532 1.5686 1.5211 1.988 2.158 1.998 2.218 2.378 2.568 2.948 2.988
2883.822 3.048 3.188 3.228 3.418 3.828 3.528 3.448 3.558 3.478 3.838
2903.112 3.948 3.648 3.408 3.408 3.438 3.528 3.478 3.508 3.568 3.648
2922.401 3.938 3.938 3.968 3.978 4.138 4.508 4.818 4.858 4.748 4.878
2941.691 5.318 6.038 6.358 6.798 7.288 7.218 7.008 6.828 6.478 5.738
2960.981 5.368 5.038 4.768 4.738 4.698 4.708 4.758 5.378 5.698 5.978
2980.271 6.698 7.368 7.758 7.868 7.898 8.088 8.148 7.888 7.348 6.448
2999.561 5.548 4.798 4.358 4.068 3.498 3.228 3.238 2.928 2.368 2.248
3018.850 2.098 1.6525 1.778 1.808 1.778 1.818 2.048 2.118 1.5972 1.5407
3038.140 1.6686 1.5706 1.4917 1.3438 1.4571 1.3106 1.3204 1.6425 1.4359 1.3802
3057.430 1.1132 0.9491 1.1211 1.1557 1.4184 1.6187 1.5033 1.5337 1.738 1.998
3076.720 2.258 2.088 1.6511 1.758 2.188 2.118 1.988 2.248 2.018 1.738
3096.009 1.808 1.228 1.0782 1.4016 1.309 1.2471 1.1433 1.0416 0.8929 0.391
3115.299 0.492 0.491 0.333 0.9518 1.1675 0.9236 1.0377 1.243 1.2199 0.8637
3134.589 0.6394 0.6794 0.744 1.1075 1.1274 1.0052 0.8528 0.598 0.75536 0.77585
3153.879 0.433 0.386 0.6962 0.516 0.252 0.6329 1.1799 0.8764 0.292 0.239
3173.169 0.274 0.9997 1.4651 1.3453 1.0246 0.76987 0.8581 0.6845 0.274 0.79807
3192.458 1.024 0.42 0.828 0.8682 0.394 0.534 0.6393 0.71423 1.0426 1.2828
3211.748 1.1149 1.0783 0.8034 0.315 0.431 0.6273 0.73352 0.70926 0.8798 0.72995
3231.038 0.311 0.502 0.451 0.349 0.9705 0.9463 0.491 0.74102 1.0369 0.534
3250.328 0.445 0.612 0.546 0.322 0.139 0.411 0.518 0.432 0.554 0.7014
3269.617 0.398 0 0.228 0.7933 1.0302 0.9877 1.0153 1.2442 1.1008 0.77557
3288.907 0.9563 1.1006 0.6673 0.544 0.422 0.364 0.459 0.121 0.425 0.77365
3308.197 0.7316 0.945 0.6483 0.504 0.377 0.242 0.9948 1.424 1.163 1.0506
3327.487 0.8217 0.38 0.6365 1.0023 0.963 0.7311 1.1096 1.2586 0.8631 0.8508
3346.777 0.9111 0.8287 0.7447 0.721811 0.462 0.76725 1.0674 0.8501 1.0277 1.1092
3366.066 0.9276 1.0167 0.80547 0.6 0.71512 0.9089 1.1084 1.0878 0.8329 1.0883
3385.356 1.4816 1.4997 1.2404 1.0421 1.5766 1.3585 1.0976 1.4822 1.0457 1.1117
3404.646 1.6364 1.5565 1.1418 1.0258 0.9372 0.8665 0.9737 1.343 1.4851 1.4441
3423.936 1.5194 0.8228 0.74282 1.2111 1.0864 1.0413 0.9167 0.9148 1.1082 0.8419
3443.225 0.6968 0.8595 0.6584 0.519 0.79172 1.1225 1.0537 0.75288 0.6507 0.6192
3462.515 0.78183 1.0024 1.1226 0.8205 0.604 0.498 0.721242 0.70973 0.431 0.6917
3481.805 0.571 0.6817 1.0651 1.2526 1.2337 1.0204 1.305 1.6757 1.3456 0.9905
3501.095 1.4567 1.3972 1.1803 1.0961 0.79645 1.1444 1.4648 1.6506 1.2384 0.8316
3520.385 1.2868 1.3717 0.77676 0.70855 0.9044 0.836 0.8688 1.0681 1.2446 1.2312
3539.674 1.1728 1.1849 0.8469 0.9475 0.9805 0.8516 0.8799 0.419 0.77584 1.1459
3558.964 0.8922 0.8479 1.0153 1.0323 0.6584 0.8385 1.2705 0.8372 0.78098 0.6473
3578.254 0.6593 1.5843 1.1192 0.136 0.525 1.0478 0.9542 0.76777 0.548 0.9634
3597.544 1.1429 0.6881 0.472 0.579 0.601 0.582 1.1733 1.3003 0.8326 1.1158
3616.833 1.758 1.6829 1.0389 0.76731 1.1805 1.3166 1.53 1.828 1.6283 1.1349
3636.123 1.1182 0.78245 0.269 0.9522 1.3415 1.1375 0.48 0.39 1.0442 0.521
3655.413 0.6698 1.4359 1.4694 1.0889 0.727655 0.613 0.6906 0.8679 0.9271 1.0916
3674.703 1.0776 0.78637 0.9027 1.0409 1.2982 1.611 1.1434 1.2838 1.828 1.5226
3693.993 1.2737 1.0657 0.6357 0.596 0.722614 0.79265 0.521 0.457 0.104 0.195
3713.282 0.61 0.529 0.9021 1.0345 1.0721 0.8274 0.55 0.9168 1.2395 1.4399
3732.572 1.3571 1.1976 1.6773 1.4546 0.74025 0.6891 1.0867 1.1252 0.9334 1.3934
3751.862 1.3125 1.3903 1.898 1.34 1.0495 1.167 0.9715 0.262 0.382 1.0443
3771.152 1.0667 1.165 1.0005 0.6545 0.092 0.071 0.8736 1.2858 0.9966 0.454
3790.441 0.336 1.0477 1.2723 0.9782 0.6218 0.436 0.9272 1.2502 1.2233 1.1148
3809.731 0.8625 0.9058 0.9848 0.9123 0.8433 0.6839 0.9208 1.5016 1.3641 1.0271
3829.021 1.2297 0.9785 0.523 0.70899 0.9979 0.75089 1.0948 1.4039 1.0852 1.1051
3848.311 1.2988 1.4483 0.9342 0.394 0.6912 1.2042 0.9119 0.8624 0.9135 0.39
3867.601 0.6556 0.73899 0.6769 1.3708 1.3294 1.0214 0.9864 0.7073 1.1573 1.0201
3886.890 0.80138 0.8822 0.644 0.8777 0.9038 0.653 0.6924 0.6569 0.268 0.354
3906.180 0.71294 0.6767 0.509 0.466 0.722931 1.0625 1.2355 1.1679 0.549 0.631
3925.470 1.0165 0.8285 0.538 0.458 0.916 0.7809 0.55 0.464 0.197 0.033
3944.760 0.029 0.23 0.6631 1.3108 1.355 1.4655 1.1733 0.73043 0.48 0.169
3964.049 0.613 1.1522 0.8934 0.29 0.189 0.552 0.9148 0.77546 0.9449 1.1535
3983.339 1.1336 1.1855 1.1662 0.7856 0.9747 1.4368 1.0337 0.74735 0.6448 1.2809
##END=
