##TITLE=.alpha.-Chlorophenylacetyl chloride
##JCAMP-DX=4.24
##DATA TYPE=INFRARED SPECTRUM
##ORIGIN=EPA-IR VAPOR PHASE LIBRARY
##OWNER=SRD/NIST
Collection (C) 2018 copyright by the U.S. Secretary of Commerce
on behalf of the United States of America. All rights reserved.
##CAS REGISTRY NO=2912-62-1
##MOLFORM=C 8 H 6 Cl 2 O
##$NIST SOURCE=MSDC-IR
##STATE=gas
##XUNITS=1/CM
##YUNITS=ABSORBANCE
##XFACTOR=1.
##YFACTOR=0.001
##DELTAX=1.92898
##FIRSTX=549.8
##LASTX=4000.7
##FIRSTY=7.428
##MAXX=4000.7
##MINX=549.759
##MAXY=0.185878
##MINY=0
##NPOINTS=1790
##XYDATA=(X++(Y..Y))
549.759 7.428 7.168 7.158 7.398 7.938 8.278 9.018 10.138 11.158 12.518
569.049 14.468 16.598 18.598 20.978 23.478 25.978 28.428 30.528 32.728 34.848
588.339 36.128 36.968 37.798 37.458 36.228 34.838 33.118 30.708 27.838 25.178
607.628 22.488 20.248 18.788 17.448 16.548 15.888 15.288 14.878 14.238 13.928
626.918 13.668 13.318 13.078 13.008 13.118 13.318 13.688 14.028 14.988 16.298
646.208 17.208 18.008 19.068 19.798 19.888 19.828 19.768 19.608 19.028 18.158
665.498 17.668 18.258 18.638 18.918 20.178 21.928 24.058 26.618 29.778 33.388
684.787 37.518 42.038 46.648 51.528 56.518 62.188 68.948 77.238 87.788 100.728
704.077 116.498 134.478 152.808 169.048 180.458 185.878 185.678 179.838 167.008 147.178
723.367 123.128 98.578 76.828 59.408 47.078 39.238 34.638 32.388 31.348 30.838
742.657 30.978 31.778 32.828 33.598 34.288 34.878 35.098 35.278 35.368 35.368
761.947 35.058 34.468 33.678 32.768 31.958 30.948 29.878 29.098 28.848 29.128
781.236 29.648 30.768 32.618 34.788 36.718 38.538 40.068 40.628 40.428 39.368
800.526 37.518 35.228 32.698 30.068 27.288 24.588 22.358 20.408 18.558 16.978
819.816 15.758 14.988 14.318 13.678 13.408 13.558 13.888 14.548 15.518 16.818
839.106 18.428 19.498 20.138 20.758 20.628 19.788 18.718 17.128 15.298 13.528
858.395 11.808 10.208 9.098 8.158 7.198 6.608 6.168 5.938 5.578 5.298
877.685 5.208 5.038 5.138 5.358 5.318 5.408 5.608 5.638 5.558 5.728
896.975 6.178 6.528 7.098 7.548 7.728 8.098 8.608 8.858 8.788 8.628
916.265 8.528 8.238 7.788 7.428 7.018 6.778 6.978 7.108 7.268 7.608
935.555 8.288 9.188 9.828 10.418 11.098 11.908 12.868 14.058 15.508 16.918
954.844 18.418 20.848 24.088 27.578 31.888 37.118 42.828 49.008 55.588 61.928
974.134 67.418 71.428 73.618 74.068 72.108 67.888 62.028 54.868 47.368 40.268
993.424 34.168 29.528 26.288 24.178 22.728 21.608 20.918 20.538 20.138 19.678
1012.714 19.188 18.368 18.018 18.098 18.158 18.838 20.278 21.928 23.198 24.698
1032.003 26.328 27.598 28.738 30.228 31.268 32.238 33.228 33.908 34.098 34.008
1051.293 33.808 32.838 31.698 30.298 28.438 26.138 23.808 21.738 19.618 17.728
1070.583 16.378 14.978 13.338 12.058 10.948 9.908 9.348 8.338 7.788 8.028
1089.873 7.408 6.718 6.628 6.278 5.688 5.988 6.108 5.658 5.228 4.688
1109.163 4.308 3.948 3.508 2.938 2.508 2.078 1.698 1.518 1.938 2.248
1128.452 2.218 2.548 2.888 2.698 2.408 2.468 2.618 2.548 2.938 3.478
1147.742 3.688 3.778 3.928 4.308 4.228 4.318 4.868 5.288 5.378 5.308
1167.032 5.568 6.198 6.648 7.038 7.448 7.568 8.008 8.588 8.668 8.248
1186.322 7.878 7.518 7.018 6.668 6.628 6.558 6.598 6.988 7.538 8.558
1205.611 9.288 9.898 10.808 11.548 12.448 12.828 12.418 12.348 11.998 11.228
1224.901 10.608 10.008 9.518 9.018 8.428 7.878 7.168 6.638 6.308 6.078
1244.191 6.018 6.158 6.458 6.598 6.538 6.218 5.978 5.788 5.578 5.538
1263.481 5.308 4.828 4.348 4.048 4.018 4.088 4.088 3.958 3.848 3.698
1282.771 3.758 3.888 3.878 3.798 3.688 3.638 3.498 3.318 3.298 3.258
1302.060 3.118 2.998 2.948 2.998 3.008 2.958 3.008 3.118 3.138 3.168
1321.350 3.278 3.368 3.468 3.658 3.818 3.988 4.128 4.278 4.388 4.398
1340.640 4.278 4.088 3.758 3.368 3.058 2.748 2.448 2.118 1.838 1.708
1359.930 1.618 1.548 1.528 1.528 1.508 1.518 1.588 1.588 1.578 1.598
1379.219 1.608 1.548 1.438 1.378 1.318 1.288 1.228 1.148 1.1061 1.0159
1398.509 1.0537 1.138 1.1039 1.1108 1.148 1.188 1.308 1.408 1.508 1.728
1417.799 1.878 1.978 2.148 2.378 2.588 2.718 2.848 3.118 3.498 3.928
1437.089 4.478 5.168 6.088 7.258 8.468 9.668 10.838 11.918 12.848 13.468
1456.378 13.608 12.898 11.388 9.788 8.468 7.258 6.138 5.228 4.668 4.418
1475.668 4.438 4.688 5.268 6.088 7.148 8.578 10.328 12.208 13.898 14.998
1494.958 15.478 15.378 14.648 13.518 12.048 10.118 7.858 5.858 4.348 3.308
1514.248 2.728 2.288 2.048 1.978 1.828 1.698 1.618 1.528 1.498 1.478
1533.538 1.458 1.418 1.378 1.358 1.348 1.378 1.408 1.398 1.398 1.278
1552.827 1.188 1.218 1.218 1.178 1.198 1.218 1.278 1.318 1.428 1.708
1572.117 1.868 2.008 2.328 2.568 2.898 3.278 3.548 3.918 4.338 4.668
1591.407 4.828 4.868 4.998 4.938 4.578 4.238 4.028 3.748 3.338 2.928
1610.697 2.618 2.368 2.128 1.928 1.848 1.838 1.858 1.908 1.888 1.798
1629.986 1.758 1.778 1.738 1.618 1.528 1.548 1.548 1.508 1.488 1.508
1649.276 1.548 1.548 1.538 1.518 1.548 1.568 1.588 1.698 1.778 1.718
1668.566 1.698 1.798 1.838 1.848 1.908 1.918 1.978 2.128 2.268 2.318
1687.856 2.288 2.328 2.408 2.528 2.558 2.498 2.598 2.648 2.688 2.838
1707.146 2.958 3.108 3.318 3.508 3.648 3.918 4.138 4.368 4.778 5.198
1726.435 5.658 6.118 6.618 7.158 7.808 8.468 9.078 9.758 10.518 11.238
1745.725 11.808 12.418 13.058 13.728 14.508 15.518 16.808 18.558 20.888 23.818
1765.015 27.658 32.528 38.558 45.808 54.058 62.718 71.458 79.898 87.548 93.428
1784.305 96.088 95.188 92.258 88.658 84.688 80.638 77.378 75.688 76.018 78.638
1803.594 83.318 89.808 97.908 107.058 116.438 125.148 132.178 136.488 137.318 133.918
1822.884 126.028 114.648 101.038 86.448 71.848 58.158 46.388 37.158 30.268 25.308
1842.174 21.868 19.368 17.518 16.128 14.958 13.898 13.028 12.178 11.368 10.748
1861.464 10.148 9.568 9.158 8.848 8.548 8.308 8.028 7.758 7.538 7.298
1880.754 7.038 6.828 6.668 6.458 6.288 6.118 5.918 5.728 5.478 5.188
1900.043 4.908 4.588 4.228 3.938 3.738 3.588 3.478 3.388 3.368 3.418
1919.333 3.488 3.588 3.678 3.688 3.778 3.998 4.198 4.458 4.828 5.158
1938.623 5.428 5.788 6.088 6.298 6.488 6.548 6.508 6.398 6.238 6.118
1957.913 5.978 5.808 5.548 5.258 4.958 4.608 4.238 3.848 3.408 2.998
1977.202 2.678 2.388 2.178 2.068 1.928 1.808 1.798 1.758 1.718 1.658
1996.492 1.518 1.468 1.488 1.458 1.438 1.428 1.338 1.268 1.218 1.148
2015.782 1.168 1.188 1.123 1.1118 1.0863 1.1241 1.128 1.0243 1.0129 1.0319
2035.072 1.0102 0.9937 1.076 1.128 1.138 1.208 1.318 1.398 1.508 1.648
2054.362 1.788 1.908 2.048 2.278 2.448 2.588 2.798 3.048 3.248 3.418
2073.651 3.568 3.868 4.168 4.368 4.678 5.008 5.358 5.838 6.358 7.008
2092.941 7.838 8.748 9.758 11.108 12.678 14.378 16.388 18.858 21.818 25.158
2112.231 29.058 33.588 38.518 43.848 49.298 54.518 59.128 62.578 64.518 64.748
2131.521 63.228 60.268 55.998 50.378 43.418 35.458 27.398 20.348 15.058 11.328
2150.810 8.698 6.818 5.458 4.558 3.888 3.348 2.918 2.568 2.248 1.998
2170.100 1.838 1.648 1.568 1.498 1.408 1.328 1.258 1.188 1.1 1.0597
2189.390 1.0362 0.9799 0.9276 0.8758 0.807 0.7819 0.8217 0.7889 0.7007 0.8013
2208.680 0.8539 0.884 0.8699 0.848 0.8419 0.8364 0.9756 0.9735 0.9167 0.9324
2227.970 0.9346 0.9611 0.9927 1.0113 1.01 0.965 0.9196 0.9527 0.9967 1.0456
2247.259 1.0845 1.0156 0.9995 1.1155 1.082 0.9803 1.032 1.071 1.0721 1.0786
2266.549 1.1003 1.0823 0.9797 0.9355 1.0262 1.0676 1.0428 0.9963 0.9266 0.9621
2285.839 1.0645 1.1089 1.0833 1.0819 1.0858 1.218 1.288 1.258 1.398 1.488
2305.129 1.518 1.528 1.678 1.938 2.068 2.198 2.358 2.448 2.458 2.458
2324.418 2.518 2.608 2.618 2.518 2.408 2.268 2.248 2.308 2.318 2.328
2343.708 2.268 2.088 1.938 2.018 2.238 2.408 2.548 2.768 2.888 2.998
2362.998 3.158 3.108 2.948 2.778 2.618 2.368 2.118 1.948 1.708 1.448
2382.288 1.268 1.0618 0.8486 0.7645 0.7336 0.7556 0.772 0.7469 0.6674 0.6505
2401.578 0.6768 0.6913 0.6803 0.6482 0.6476 0.619 0.6307 0.7403 0.8039 0.7395
2420.867 0.7038 0.6294 0.5342 0.6628 0.7333 0.7005 0.6428 0.5811 0.6602 0.7343
2440.157 0.732 0.6855 0.7128 0.7629 0.6697 0.617 0.6119 0.6159 0.6707 0.613
2459.447 0.5502 0.5472 0.5488 0.5563 0.6071 0.6954 0.7262 0.6515 0.665 0.7612
2478.737 0.8304 0.9017 0.8497 0.7687 0.7587 0.7274 0.7439 0.7952 0.863 0.8497
2498.026 0.8406 0.9268 0.9258 0.902 0.793 0.7836 0.8175 0.7437 0.7573 0.8336
2517.316 0.8644 0.9084 0.9759 0.853 0.7991 0.7903 0.813 0.9261 0.8634 0.8305
2536.606 0.869 0.9132 0.8855 0.8169 0.83 0.9208 0.9874 0.9653 0.9 0.8432
2555.896 0.8649 0.9179 0.843 0.7457 0.6972 0.6349 0.6732 0.7851 0.8272 0.769
2575.186 0.7072 0.745 0.6964 0.6382 0.6611 0.6967 0.7149 0.7052 0.7917 0.828
2594.475 0.7607 0.7909 0.8643 0.7979 0.7474 0.7174 0.6397 0.6199 0.6407 0.609
2613.765 0.5584 0.5721 0.6279 0.6387 0.6108 0.6986 0.6934 0.5681 0.5954 0.6153
2633.055 0.6641 0.6793 0.5954 0.5436 0.5538 0.5928 0.5381 0.4949 0.6263 0.8434
2652.345 0.7711 0.4996 0.4028 0.4415 0.5275 0.5355 0.5578 0.5952 0.5511 0.5021
2671.634 0.5476 0.6818 0.8902 1.0479 0.8103 0.5572 0.5111 0.4656 0.4226 0.4171
2690.924 0.4754 0.4963 0.4364 0.4739 0.5754 0.9013 1.198 0.7831 0.4027 0.3873
2710.214 0.3583 0.33 0.3561 0.3393 0.4636 0.6243 0.5825 0.6791 1.178 1.418
2729.504 0.8841 0.5611 0.5252 0.5524 0.5339 0.527 0.5972 0.5982 0.5973 0.7263
2748.794 1.1246 1.778 1.688 0.9627 0.7081 0.7435 0.9037 0.8407 0.7128 0.788
2768.083 0.8458 1.0624 1.418 2.168 2.328 1.388 1.0303 1.0923 1.178 1.158
2787.373 0.983 0.9053 0.9785 1.138 1.368 2.048 2.198 1.288 0.8555 0.9006
2806.663 0.8878 0.938 0.9028 0.9727 1.0066 0.8488 1.1152 1.988 1.908 1.0503
2825.953 0.8272 0.807 0.8226 0.7615 0.7047 0.7184 0.7255 0.9303 1.518 1.808
2845.242 1.138 0.8098 0.9564 0.9308 0.7898 0.6954 0.7001 0.728 0.89 1.158
2864.532 1.208 1.0003 0.8439 0.8067 0.8287 0.8142 0.811 0.7321 0.7049 0.7868
2883.822 0.8757 0.8966 0.85 0.754 0.6791 0.7837 0.8251 0.7115 0.8229 1.1028
2903.112 1.368 1.698 1.588 1.218 1.1083 1.0674 1.1236 1.198 1.258 1.338
2922.401 1.428 1.978 2.018 1.368 1.208 1.218 1.188 1.218 1.308 1.508
2941.691 1.928 2.578 2.328 1.438 1.288 1.408 1.448 1.348 1.388 1.668
2960.981 2.488 3.228 2.468 1.858 1.948 2.118 2.358 2.478 2.848 3.608
2980.271 4.268 3.568 2.778 2.638 2.458 2.338 2.178 2.198 2.738 3.188
2999.561 2.388 1.918 2.268 2.388 2.468 2.708 3.448 4.388 4.658 4.528
3018.850 4.918 5.718 6.628 7.888 9.438 11.178 12.648 13.718 14.918 15.818
3038.140 16.408 16.648 16.408 15.968 14.958 13.668 12.718 12.038 11.658 11.628
3057.430 12.068 12.898 14.038 15.658 17.668 19.978 22.438 24.488 25.698 26.118
3076.720 26.088 25.438 24.158 22.568 20.608 18.388 16.358 14.878 13.848 13.108
3096.009 12.688 12.138 11.218 10.278 9.428 8.798 8.108 7.218 6.558 5.828
3115.299 5.028 4.468 4.018 3.518 3.068 2.658 2.178 1.918 1.678 1.408
3134.589 1.288 1.158 1.0684 0.9082 0.8862 0.9514 0.9351 0.9442 0.9455 0.9273
3153.879 0.9244 0.9393 0.9305 0.882 0.7595 0.6889 0.7561 0.9914 1.0822 0.9993
3173.169 1.0119 0.99 0.9617 0.7889 0.7629 0.863 0.8199 0.7027 0.5375 0.4991
3192.458 0.5036 0.5454 0.6478 0.7257 0.5883 0.4819 0.7382 0.8237 0.6508 0.5726
3211.748 0.5551 0.5647 0.5261 0.3649 0.3055 0.4348 0.5526 0.5636 0.5061 0.4575
3231.038 0.4434 0.4256 0.4693 0.4609 0.4615 0.4177 0.2657 0.419 0.4982 0.3606
3250.328 0.3365 0.3991 0.346 0.3166 0.3169 0.2647 0.4195 0.5318 0.4725 0.4191
3269.617 0.5195 0.5817 0.6018 0.5428 0.5179 0.6888 0.6146 0.4447 0.5692 0.6424
3288.907 0.5245 0.496 0.4593 0.4922 0.5253 0.4359 0.4815 0.5004 0.3872 0.3481
3308.197 0.5081 0.6232 0.5557 0.4595 0.3823 0.3092 0.3431 0.3956 0.5128 0.5482
3327.487 0.4723 0.3942 0.3815 0.4281 0.3027 0.2747 0.2947 0.4083 0.4383 0.3351
3346.777 0.3542 0.4064 0.3707 0.3977 0.3403 0.2909 0.462 0.501 0.4 0.295
3366.066 0.3879 0.4264 0.322 0.254 0.1027 0.1158 0.18881 0.20483 0.133298 0.0484
3385.356 0.17986 0.21431 0.17355 0.3034 0.3068 0.2691 0.239 0.19096 0.2404 0.3558
3404.646 0.4594 0.3182 0.3526 0.3783 0.2716 0.2938 0.2915 0.2353 0.2341 0.22106
3423.936 0.1032 0.2403 0.407 0.4197 0.4565 0.3138 0.2321 0.3201 0.2924 0.328
3443.225 0.38 0.4518 0.5011 0.4155 0.4809 0.353 0.2844 0.4686 0.5053 0.6247
3462.515 0.5824 0.4449 0.4321 0.4846 0.6027 0.5203 0.4129 0.3622 0.2876 0.3584
3481.805 0.3836 0.3716 0.356 0.2372 0.331 0.4855 0.4423 0.5433 0.5215 0.292
3501.095 0.2676 0.3771 0.4605 0.5584 0.5409 0.5359 0.6246 0.6722 0.8068 0.7428
3520.385 0.5921 0.7314 0.8247 0.9301 1.0598 0.9717 1.0852 1.318 1.328 1.478
3539.674 1.588 1.668 1.788 1.598 1.678 1.808 1.668 1.448 1.328 1.298
3558.964 1.418 1.408 1.1119 1.0974 1.238 1.248 1.148 1.0612 1.0891 1.1162
3578.254 1.0902 1.198 1.208 1.228 1.258 1.0523 1.0473 1.158 1.208 1.458
3597.544 1.578 1.448 1.648 1.758 1.728 1.818 1.838 1.928 1.998 2.158
3616.833 2.118 2.018 2.198 2.238 2.198 2.048 1.758 1.588 1.498 1.368
3636.123 1.378 1.428 1.188 0.9092 0.9128 0.9866 0.9219 0.9099 0.9616 0.8991
3655.413 0.7621 0.7168 0.7783 0.8163 0.8543 0.7819 0.5587 0.604 0.6623 0.5359
3674.703 0.4948 0.4592 0.4719 0.5855 0.4616 0.4733 0.5995 0.5321 0.4532 0.3486
3693.993 0.24 0.302 0.3952 0.3734 0.3655 0.3896 0.4014 0.5398 0.6819 0.6937
3713.282 0.5267 0.4086 0.3715 0.4092 0.4896 0.5734 0.7395 0.6096 0.4632 0.5042
3732.572 0.5709 0.553 0.6127 0.5116 0.3353 0.3673 0.3175 0.3777 0.433 0.365
3751.862 0.427 0.3681 0.3319 0.468 0.4021 0.3097 0.3373 0.2874 0.2724 0.3242
3771.152 0.3411 0.2391 0.0659 0.0722 0.136076 0.3087 0.5256 0.4304 0.3417 0.3226
3790.441 0.3446 0.4757 0.5441 0.3946 0.22246 0.20424 0.22062 0.3352 0.3669 0.2876
3809.731 0.20582 0.2463 0.2853 0.2446 0.3504 0.5147 0.4752 0.2895 0.3088 0.4551
3829.021 0.3389 0.0922 0.129709 0.2501 0.14091 0.0518 0.2577 0.3006 0.2466 0.2946
3848.311 0.3801 0.3644 0.2496 0.3338 0.21769 0.0737 0.16233 0.2323 0.19096 0.2564
3867.601 0.257 0.1162 0.1154 0.1665 0.2767 0.236 0.17603 0.22557 0.2436 0.19715
3886.890 0.2639 0.15235 0.0818 0.14516 0.1679 0.4568 0.6031 0.4623 0.3962 0.444
3906.180 0.3529 0.4223 0.4484 0.4185 0.4876 0.4385 0.3719 0.3387 0.3206 0.3472
3925.470 0.346 0.19552 0.0823 0.27 0.3827 0.21675 0.20693 0.0758 0 0.136974
3944.760 0.1023 0.1076 0.19737 0.2698 0.311 0.3314 0.3925 0.3251 0.2592 0.22653
3964.049 0.16125 0.19981 0.15751 0.2406 0.22449 0.0893 0.2818 0.3449 0.2309 0.14217
3983.339 0.1093 0.2339 0.2679 0.3009 0.2302 0.2476 0.3097 0.4007 0.3832 0.16557
##END=
