##TITLE=Pyrrolidinoacetonitrile
##JCAMP-DX=4.24
##DATA TYPE=INFRARED SPECTRUM
##ORIGIN=EPA-IR VAPOR PHASE LIBRARY
##OWNER=SRD/NIST
Collection (C) 2018 copyright by the U.S. Secretary of Commerce
on behalf of the United States of America. All rights reserved.
##CAS REGISTRY NO=29134-29-0
##MOLFORM=C 6 H 10 N 2
##$NIST SOURCE=MSDC-IR
##STATE=gas
##XUNITS=1/CM
##YUNITS=ABSORBANCE
##XFACTOR=1.
##YFACTOR=0.001
##DELTAX=1.92934
##FIRSTX=549.9
##LASTX=3999.5
##FIRSTY=0.278
##MAXX=3999.53
##MINX=549.863
##MAXY=0.051204
##MINY=0
##NPOINTS=1789
##XYDATA=(X++(Y..Y))
549.863 0.278 0.36 0.42 0.443 0.467 0.5157 0.5599 0.5747 0.515 0.478
569.156 0.51 0.65033 0.65598 0.5236 0.4844 0.58102 0.67028 0.525 0.402 0.371
588.450 0.411 0.4953 0.5667 0.5211 0.384 0.427 0.5119 0.391 0.346 0.47
607.743 0.465 0.517 0.59799 0.5452 0.59751 0.6851 0.64389 0.64436 0.67652 0.7514
627.037 0.8234 0.9061 0.9544 0.9103 0.939 0.9252 0.951 0.9482 0.9123 0.9229
646.330 1.0471 1.1085 1.1433 1.2056 1.202 1.2392 1.2608 1.2032 1.2116 1.3125
665.624 1.267 1.2743 1.3271 1.3199 1.3568 1.3457 1.3242 1.3082 1.2294 1.1419
684.917 1.0861 1.0699 1.064 1.0514 1.0283 1.0252 0.9829 1.0038 1.0372 1.0198
704.210 1.0541 1.0108 0.9522 1.0457 1.5012 1.734 1.4474 1.1281 0.91 0.7596
723.504 0.6999 0.6915 0.63988 0.6919 0.7572 0.66221 0.64551 0.64709 0.60045 0.62717
742.797 0.59579 0.5404 0.61467 0.66439 0.62196 0.63043 0.66511 0.6905 0.7002 0.7122
762.091 0.7611 0.8293 0.8012 0.7414 0.8022 0.853 0.887 0.9716 0.9937 1.0213
781.384 1.0749 1.1148 1.1758 1.2155 1.2024 1.2094 1.2237 1.2211 1.291 1.359
800.678 1.37 1.4238 1.4304 1.4784 1.5584 1.5751 1.5315 1.4926 1.644 1.864
819.971 1.994 2.084 2.204 2.384 2.544 2.674 2.894 3.204 3.564 3.894
839.264 4.284 4.774 5.244 5.734 6.224 6.764 7.344 7.954 8.614 9.194
858.558 9.634 10.084 10.434 10.704 10.954 11.014 10.894 10.634 10.254 9.754
877.851 9.134 8.524 7.894 7.214 6.594 6.124 5.704 5.284 4.944 4.624
897.145 4.364 4.164 3.984 3.834 3.644 3.474 3.364 3.194 3.004 2.794
916.438 2.554 2.354 2.224 2.164 2.104 2.074 2.074 2.044 1.984 1.964
935.732 1.994 2.064 2.124 2.194 2.234 2.224 2.274 2.294 2.224 2.234
955.025 2.234 2.214 2.224 2.184 2.154 2.104 2.124 2.214 2.254 2.304
974.318 2.344 2.354 2.414 2.414 2.394 2.364 2.364 2.344 2.274 2.204
993.612 2.064 2.014 1.934 1.874 1.854 1.784 1.734 1.754 1.804 1.854
1012.905 1.934 2.014 2.124 2.254 2.334 2.444 2.504 2.504 2.524 2.514
1032.199 2.464 2.474 2.414 2.254 2.174 2.114 2.044 1.914 1.834 1.814
1051.492 1.814 1.814 1.824 1.844 1.884 1.944 2.004 2.084 2.124 2.204
1070.786 2.284 2.264 2.304 2.404 2.494 2.594 2.714 2.864 3.044 3.204
1090.079 3.394 3.614 3.874 4.184 4.554 5.024 5.564 6.134 6.774 7.474
1109.372 8.284 9.274 10.314 11.434 12.694 14.004 15.314 16.624 17.854 18.964
1128.666 19.944 20.764 21.384 21.734 21.794 21.644 21.234 20.594 19.804 18.924
1147.959 18.024 17.124 16.274 15.494 14.764 14.084 13.404 12.754 12.174 11.674
1167.253 11.204 10.754 10.414 10.104 9.794 9.594 9.504 9.384 9.244 9.084
1186.546 8.964 8.854 8.684 8.544 8.414 8.264 8.184 8.104 7.974 7.894
1205.840 7.804 7.694 7.594 7.514 7.474 7.394 7.294 7.194 7.074 6.974
1225.133 6.874 6.804 6.714 6.654 6.694 6.674 6.654 6.704 6.724 6.754
1244.426 6.744 6.714 6.744 6.744 6.764 6.704 6.624 6.574 6.454 6.324
1263.720 6.294 6.224 6.104 6.084 6.034 5.954 5.914 5.904 5.854 5.804
1283.013 5.834 5.884 5.904 5.894 5.924 5.944 5.954 6.004 6.124 6.304
1302.307 6.524 6.904 7.454 8.094 8.874 9.834 10.834 11.684 12.274 12.624
1321.600 12.854 13.084 13.174 12.994 12.734 12.524 12.214 11.724 11.104 10.494
1340.894 10.014 9.704 9.524 9.404 9.264 9.114 9.034 8.884 8.594 8.274
1360.187 7.894 7.434 6.954 6.474 5.894 5.334 4.874 4.444 4.064 3.684
1379.480 3.344 3.114 2.894 2.654 2.424 2.214 2.054 1.934 1.864 1.824
1398.774 1.804 1.814 1.854 1.954 2.084 2.264 2.464 2.684 3.114 3.554
1418.067 4.014 4.534 4.984 5.384 5.634 5.894 6.274 6.474 6.314 6.184
1437.361 6.224 6.194 5.954 5.584 5.324 5.194 5.154 5.164 5.274 5.484
1456.654 5.694 5.814 5.834 5.804 5.764 5.734 5.564 5.384 5.224 4.994
1475.948 4.744 4.384 3.994 3.644 3.334 3.104 2.934 2.784 2.634 2.434
1495.241 2.264 2.154 2.014 1.874 1.744 1.644 1.5421 1.3742 1.2308 1.1719
1514.534 1.1036 1.0427 0.9921 0.878 0.7716 0.7444 0.7147 0.67798 0.67808 0.61202
1533.828 0.5685 0.5232 0.483 0.475 0.453 0.4846 0.483 0.437 0.417 0.405
1553.121 0.376 0.349 0.358 0.363 0.348 0.315 0.314 0.345 0.335 0.33
1572.415 0.35 0.373 0.334 0.32 0.336 0.328 0.36 0.404 0.406 0.393
1591.708 0.416 0.455 0.453 0.448 0.441 0.455 0.498 0.5114 0.526 0.5543
1611.002 0.5142 0.5032 0.5245 0.483 0.453 0.451 0.469 0.481 0.472 0.474
1630.295 0.46 0.419 0.416 0.439 0.412 0.355 0.324 0.357 0.41 0.414
1649.588 0.37 0.271 0.226 0.281 0.319 0.318 0.268 0.244 0.286 0.33
1668.882 0.278 0.217 0.258 0.279 0.292 0.328 0.333 0.286 0.27 0.309
1688.175 0.292 0.287 0.327 0.268 0.234 0.256 0.254 0.339 0.339 0.292
1707.469 0.311 0.332 0.325 0.309 0.315 0.303 0.259 0.278 0.287 0.28
1726.762 0.296 0.236 0.205 0.253 0.268 0.254 0.241 0.236 0.283 0.319
1746.056 0.28 0.227 0.198 0.174 0.207 0.217 0.207 0.216 0.232 0.27
1765.349 0.288 0.302 0.302 0.29 0.28 0.287 0.266 0.254 0.293 0.302
1784.642 0.289 0.315 0.341 0.293 0.283 0.273 0.239 0.261 0.277 0.286
1803.936 0.315 0.285 0.217 0.197 0.249 0.281 0.25 0.273 0.31 0.301
1823.229 0.269 0.281 0.271 0.245 0.261 0.256 0.227 0.232 0.227 0.255
1842.523 0.294 0.307 0.296 0.243 0.232 0.253 0.245 0.228 0.227 0.236
1861.816 0.268 0.273 0.248 0.205 0.2 0.228 0.255 0.305 0.35 0.335
1881.110 0.298 0.272 0.254 0.264 0.292 0.325 0.327 0.315 0.338 0.335
1900.403 0.312 0.317 0.286 0.253 0.304 0.315 0.27 0.316 0.337 0.329
1919.696 0.317 0.25 0.28 0.329 0.338 0.34 0.326 0.317 0.301 0.293
1938.990 0.312 0.299 0.287 0.359 0.375 0.328 0.293 0.314 0.355 0.349
1958.283 0.361 0.388 0.408 0.423 0.428 0.447 0.452 0.444 0.443 0.464
1977.577 0.473 0.441 0.465 0.5011 0.5201 0.5553 0.5466 0.5422 0.5439 0.5498
1996.870 0.5595 0.57451 0.57721 0.5554 0.584629 0.60796 0.5686 0.562 0.59967 0.61697
2016.164 0.588917 0.5687 0.53 0.4912 0.5217 0.518 0.5071 0.5172 0.5005 0.46
2035.457 0.469 0.482 0.454 0.429 0.427 0.467 0.462 0.448 0.458 0.418
2054.750 0.389 0.375 0.353 0.349 0.38 0.416 0.397 0.364 0.37 0.4
2074.044 0.434 0.412 0.35 0.391 0.404 0.345 0.358 0.374 0.392 0.4
2093.337 0.373 0.374 0.375 0.377 0.397 0.413 0.43 0.469 0.454 0.444
2112.631 0.443 0.432 0.458 0.473 0.468 0.454 0.459 0.416 0.382 0.396
2131.924 0.405 0.42 0.416 0.413 0.418 0.387 0.399 0.446 0.424 0.427
2151.218 0.453 0.445 0.439 0.434 0.445 0.424 0.427 0.447 0.438 0.468
2170.511 0.482 0.47 0.494 0.5107 0.5206 0.5294 0.5174 0.5274 0.5524 0.5622
2189.804 0.5762 0.57824 0.5395 0.5311 0.5512 0.5534 0.5753 0.5942 0.59494 0.59891
2209.098 0.5582 0.529 0.5635 0.554 0.5226 0.5408 0.5198 0.5257 0.554 0.533
2228.391 0.5424 0.5499 0.5085 0.5025 0.5043 0.5204 0.5468 0.5188 0.509 0.4931
2247.685 0.5203 0.5136 0.468 0.4881 0.478 0.478 0.5317 0.554 0.5469 0.58026
2266.978 0.62479 0.61009 0.590063 0.61268 0.61711 0.61813 0.63122 0.63326 0.593133 0.58218
2286.272 0.63218 0.63364 0.64406 0.6884 0.6985 0.66852 0.63099 0.65087 0.64515 0.60918
2305.565 0.61378 0.63406 0.66867 0.66594 0.65983 0.67106 0.66775 0.67262 0.66567 0.6895
2324.858 0.7203 0.7215 0.68058 0.65877 0.7002 0.6994 0.66247 0.64084 0.65818 0.67141
2344.152 0.65887 0.6929 0.6902 0.68393 0.7037 0.6982 0.66809 0.62346 0.60853 0.62239
2363.445 0.6226 0.62488 0.60341 0.60199 0.60389 0.588205 0.63036 0.62093 0.5943 0.5664
2382.739 0.5414 0.5563 0.5725 0.57815 0.5625 0.5488 0.5373 0.5178 0.513 0.4851
2402.032 0.4938 0.5391 0.5177 0.481 0.495 0.4927 0.483 0.482 0.479 0.416
2421.326 0.41 0.5073 0.459 0.402 0.457 0.4859 0.425 0.388 0.41 0.438
2440.619 0.443 0.387 0.368 0.411 0.398 0.395 0.406 0.391 0.4 0.41
2459.912 0.423 0.452 0.45 0.453 0.45 0.405 0.41 0.457 0.461 0.431
2479.206 0.416 0.432 0.484 0.518 0.502 0.434 0.425 0.434 0.407 0.446
2498.499 0.475 0.469 0.425 0.364 0.35 0.375 0.414 0.403 0.379 0.38
2517.793 0.396 0.455 0.429 0.418 0.439 0.364 0.338 0.376 0.422 0.436
2537.086 0.446 0.467 0.457 0.5022 0.5271 0.5269 0.5158 0.474 0.4933 0.5334
2556.380 0.5493 0.57877 0.63363 0.7031 0.7236 0.6933 0.6978 0.7028 0.7228 0.7514
2575.673 0.7888 0.7884 0.7623 0.7865 0.7988 0.8256 0.9248 0.9689 0.9155 0.8872
2594.966 0.8945 0.9335 0.9657 0.97 0.9803 0.9918 1.0317 1.0165 1.0617 1.1293
2614.260 1.1088 1.1396 1.2002 1.2072 1.2182 1.2614 1.2603 1.2471 1.3134 1.335
2633.553 1.3298 1.3856 1.4348 1.4925 1.5026 1.4435 1.4077 1.4572 1.5222 1.5435
2652.847 1.5427 1.5495 1.5692 1.584 1.5439 1.5394 1.5825 1.5717 1.594 1.634
2672.140 1.654 1.724 1.774 1.804 1.834 1.894 2.014 2.094 2.114 2.164
2691.434 2.284 2.394 2.434 2.464 2.624 2.704 2.704 2.784 2.854 2.924
2710.727 2.964 2.994 3.044 3.114 3.154 3.264 3.364 3.404 3.514 3.614
2730.020 3.674 3.694 3.764 3.864 3.874 3.934 4.074 4.164 4.224 4.324
2749.314 4.424 4.504 4.634 4.774 4.924 5.094 5.414 5.784 6.104 6.584
2768.607 7.144 7.794 8.494 9.274 10.324 11.444 12.574 13.844 15.254 16.714
2787.901 18.164 19.644 21.164 22.704 24.114 25.504 26.814 27.894 28.774 29.354
2807.194 29.654 29.864 29.914 29.774 29.664 29.604 29.514 29.334 29.044 28.704
2826.488 28.394 28.044 27.494 26.764 25.934 24.954 23.934 22.884 21.734 20.594
2845.781 19.394 18.234 17.144 16.004 14.974 14.004 13.214 12.734 12.444 12.224
2865.074 12.074 12.144 12.434 12.924 13.474 14.204 15.004 15.674 16.404 17.034
2884.368 17.634 18.254 18.814 19.274 19.684 20.244 20.764 21.084 21.414 21.944
2903.661 22.524 23.184 23.984 24.784 25.754 27.004 28.104 29.184 30.414 31.564
2922.955 32.714 33.874 34.894 35.774 36.464 37.024 37.704 38.264 38.484 38.524
2942.248 38.684 39.194 39.594 39.764 40.094 40.704 41.484 42.504 43.664 44.924
2961.542 46.164 47.424 48.714 49.814 50.604 51.024 51.204 51.024 50.594 49.864
2980.835 48.394 45.854 42.134 37.884 34.024 30.444 27.104 24.014 20.944 18.194
3000.128 15.764 13.554 11.654 10.084 8.864 7.854 6.984 6.264 5.734 5.294
3019.422 4.934 4.754 4.474 4.164 3.964 3.784 3.584 3.404 3.194 3.024
3038.715 2.924 2.754 2.624 2.494 2.394 2.284 2.024 1.924 2.024 1.924
3058.009 1.744 1.664 1.694 1.634 1.4423 1.3284 1.2247 1.135 1.1498 1.2143
3077.302 1.1164 1.0409 1.0232 0.995 0.9989 0.8977 0.9612 1.029 0.919 0.967
3096.596 0.9242 0.8539 0.7685 0.67492 0.7712 0.8167 0.68061 0.7241 0.7377 0.5685
3115.889 0.456 0.446 0.41 0.405 0.4879 0.5001 0.5397 0.475 0.355 0.431
3135.182 0.5329 0.5041 0.387 0.376 0.356 0.281 0.366 0.417 0.369 0.26
3154.476 0.276 0.412 0.5222 0.5447 0.589263 0.5118 0.411 0.5053 0.5117 0.417
3173.769 0.33 0.391 0.5393 0.5131 0.459 0.474 0.371 0.257 0.311 0.449
3193.063 0.447 0.362 0.326 0.255 0.245 0.256 0.302 0.296 0.17 0.198
3212.356 0.196 0.19 0.197 0.187 0.255 0.325 0.368 0.454 0.47 0.372
3231.650 0.239 0.282 0.32 0.346 0.406 0.266 0.291 0.279 0.253 0.362
3250.943 0.242 0.255 0.369 0.37 0.373 0.297 0.397 0.457 0.39 0.299
3270.236 0.185 0.205 0.232 0.283 0.232 0.18 0.339 0.4845 0.385 0.281
3289.530 0.354 0.402 0.5093 0.5005 0.213 0.18 0.263 0.344 0.356 0.217
3308.823 0.334 0.404 0.395 0.452 0.45 0.462 0.348 0.279 0.417 0.394
3328.117 0.273 0.299 0.332 0.337 0.374 0.334 0.357 0.349 0.262 0.359
3347.410 0.453 0.348 0.254 0.153 0.065 0.055 0 0.118 0.297 0.187
3366.704 0.137 0.262 0.301 0.294 0.298 0.251 0.239 0.207 0.147 0.192
3385.997 0.262 0.194 0.192 0.244 0.195 0.123 0.138 0.173 0.238 0.291
3405.290 0.219 0.249 0.27 0.298 0.29 0.194 0.169 0.194 0.264 0.338
3424.584 0.322 0.285 0.26 0.194 0.069 0.155 0.336 0.19 0.142 0.199
3443.877 0.2 0.183 0.138 0.153 0.136 0.129 0.221 0.257 0.178 0.174
3463.171 0.233 0.22 0.241 0.428 0.38 0.171 0.115 0.242 0.255 0.178
3482.464 0.298 0.401 0.306 0.201 0.215 0.196 0.189 0.227 0.311 0.382
3501.758 0.272 0.169 0.269 0.317 0.261 0.252 0.355 0.415 0.425 0.381
3521.051 0.294 0.23 0.161 0.204 0.195 0.15 0.196 0.337 0.414 0.325
3540.344 0.355 0.437 0.255 0.172 0.247 0.166 0.137 0.227 0.239 0.191
3559.638 0.179 0.138 0.161 0.131 0.011 0.13 0.224 0.215 0.245 0.227
3578.931 0.301 0.349 0.27 0.175 0.179 0.16 0.173 0.239 0.143 0.192
3598.225 0.287 0.28 0.255 0.271 0.329 0.312 0.259 0.247 0.169 0.175
3617.518 0.263 0.313 0.35 0.283 0.189 0.091 0.144 0.262 0.343 0.291
3636.812 0.246 0.201 0.202 0.319 0.281 0.214 0.241 0.291 0.33 0.383
3656.105 0.396 0.399 0.374 0.293 0.358 0.376 0.24 0.231 0.297 0.311
3675.398 0.188 0.214 0.286 0.264 0.377 0.39 0.246 0.179 0.232 0.258
3694.692 0.197 0.196 0.315 0.275 0.298 0.364 0.33 0.351 0.281 0.195
3713.985 0.305 0.436 0.426 0.395 0.338 0.297 0.282 0.213 0.21 0.307
3733.279 0.357 0.35 0.322 0.334 0.357 0.263 0.239 0.404 0.428 0.365
3752.572 0.393 0.396 0.414 0.474 0.439 0.351 0.37 0.43 0.393 0.38
3771.866 0.332 0.337 0.385 0.398 0.422 0.343 0.283 0.303 0.237 0.205
3791.159 0.258 0.298 0.386 0.411 0.418 0.459 0.462 0.446 0.447 0.446
3810.452 0.406 0.31 0.283 0.39 0.461 0.437 0.386 0.4922 0.5714 0.46
3829.746 0.381 0.406 0.484 0.5395 0.447 0.333 0.434 0.5315 0.428 0.36
3849.039 0.393 0.373 0.36 0.434 0.504 0.5164 0.471 0.373 0.365 0.309
3868.333 0.259 0.425 0.387 0.245 0.306 0.411 0.402 0.444 0.459 0.374
3887.626 0.383 0.395 0.357 0.357 0.384 0.4 0.384 0.342 0.355 0.315
3906.920 0.263 0.265 0.278 0.305 0.373 0.367 0.441 0.479 0.426 0.425
3926.213 0.46 0.5235 0.5148 0.5449 0.567 0.5648 0.53 0.4929 0.454 0.401
3945.506 0.38 0.362 0.382 0.396 0.387 0.377 0.423 0.439 0.382 0.397
3964.800 0.465 0.4937 0.4949 0.471 0.456 0.424 0.402 0.38 0.372 0.497
3984.093 0.5616 0.452 0.359 0.343 0.403 0.449 0.426 0.396 0.406
##END=
