##TITLE=Nonadecylbenzene
##JCAMP-DX=4.24
##DATA TYPE=INFRARED SPECTRUM
##ORIGIN=NIST Mass Spectrometry Data Center
##OWNER=NIST Standard Reference Data Program
Collection (C) 2018 copyright by the U.S. Secretary of Commerce
on behalf of the United States of America. All rights reserved.
##CAS REGISTRY NO=29136-19-4
##MOLFORM=C 25 H 44
##$NIST SOURCE=MSDC-IR
##SPECTROMETER/DATA SYSTEM=HP-GC/MS/IRD
##STATE=gas
##XUNITS=1/CM
##YUNITS=ABSORBANCE
##XFACTOR=1.0
##YFACTOR=0.000006200
##DELTAX=4.0
##FIRSTX=550.0
##LASTX=3846.0
##FIRSTY=0.000229
##MAXX=3846
##MINX=550
##MAXY=0.062
##MINY=0
##NPOINTS=825
##XYDATA=(X++(Y..Y))
550.0 37 44 30 37 61 70 59 42 35 33
590.0 33 27 18 14 16 18 14 6 11 14
630.0 0 6 25 24 22 25 30 51 64 72
670.0 101 135 164 212 298 431 586 642 577 503
710.0 459 436 428 428 438 463 497 507 476 401
750.0 316 253 203 162 131 108 94 84 71 62
790.0 57 56 55 54 47 45 44 39 32 31
830.0 38 37 36 35 36 34 35 35 32 31
870.0 30 32 33 33 37 37 40 46 52 53
910.0 47 39 37 35 30 31 31 28 31 30
950.0 26 27 26 27 28 26 22 24 27 27
990.0 26 26 29 33 37 44 49 61 81 101
1030.0 114 97 70 56 52 53 55 61 62 62
1070.0 65 69 65 58 54 49 47 49 51 47
1110.0 45 43 42 39 35 33 29 26 29 31
1150.0 34 33 30 31 34 38 41 43 43 44
1190.0 47 52 54 53 48 45 48 49 49 55
1230.0 59 59 64 67 67 65 69 68 71 75
1270.0 78 82 88 97 105 113 123 136 145 153
1310.0 154 148 140 137 139 148 169 197 229 262
1350.0 283 280 263 240 220 197 168 146 135 120
1390.0 103 90 82 79 78 80 86 98 110 127
1430.0 158 207 280 376 485 584 663 709 708 641
1470.0 527 402 306 253 244 277 322 318 237 147
1510.0 97 74 62 52 43 40 39 37 33 31
1550.0 30 30 31 33 35 38 42 52 63 78
1590.0 94 112 133 147 137 103 69 44 30 23
1630.0 20 18 17 16 16 14 14 14 11 9
1670.0 8 7 8 6 4 7 8 7 7 7
1710.0 7 6 7 8 9 11 12 12 11 10
1750.0 9 6 3 5 6 10 13 16 19 25
1790.0 31 37 32 25 20 14 11 9 9 8
1830.0 7 7 8 10 12 12 12 15 20 23
1870.0 22 21 21 17 13 9 7 8 6 6
1910.0 7 9 10 15 21 27 30 30 28 30
1950.0 29 22 15 8 4 3 4 1 1 1
1990.0 2 2 1 1 4 6 6 6 9 8
2030.0 7 10 12 9 7 8 8 7 7 7
2070.0 6 6 4 1 2 5 4 2 1 3
2110.0 4 3 2 4 4 3 3 4 2 1
2150.0 4 5 4 4 6 7 6 6 7 6
2190.0 7 5 2 4 4 3 5 6 4 3
2230.0 6 6 5 4 3 4 5 5 3 3
2270.0 6 6 6 7 7 5 4 7 8 9
2310.0 11 10 8 8 7 7 7 2 3 6
2350.0 4 1 3 5 4 3 4 5 4 5
2390.0 5 4 5 7 6 6 5 4 3 3
2430.0 4 2 1 2 4 3 4 5 7 6
2470.0 4 5 4 4 8 9 8 9 11 11
2510.0 13 15 17 19 19 18 20 20 19 18
2550.0 21 22 22 25 25 27 30 33 31 30
2590.0 32 34 36 37 40 43 45 45 47 48
2630.0 48 53 58 60 63 66 67 70 76 79
2670.0 79 82 86 89 88 85 83 80 76 75
2710.0 74 72 72 76 78 79 81 85 88 90
2750.0 94 98 102 106 111 117 126 136 146 162
2790.0 178 192 208 227 252 282 314 348 389 441
2830.0 505 587 711 904 1212 1710 2459 3284 3728 3543
2870.0 2991 2437 2047 1831 1726 1708 1802 2019 2371 2839
2910.0 3409 4123 5133 6591 8386 9814 10000 8876 7119 5366
2950.0 3966 3013 2447 2136 1922 1683 1376 1073 844 687
2990.0 579 503 458 429 412 404 408 437 495 569
3030.0 624 615 535 434 365 329 326 354 410 484
3070.0 520 474 393 337 302 267 230 195 174 154
3110.0 133 111 90 75 63 56 51 47 44 39
3150.0 37 37 35 33 33 31 30 29 26 22
3190.0 21 20 18 18 16 16 16 12 8 9
3230.0 10 9 7 8 9 8 8 10 13 9
3270.0 6 9 10 8 6 4 3 5 8 8
3310.0 6 4 6 9 8 5 3 2 2 1
3350.0 2 6 6 7 8 8 8 5 7 12
3390.0 8 4 3 6 6 6 4 3 6 4
3430.0 3 2 2 5 4 2 3 3 4 4
3470.0 2 2 3 2 2 3 6 6 1 1
3510.0 2 5 6 7 8 7 2 1 1 3
3550.0 2 3 5 6 4 6 6 5 7 9
3590.0 10 13 15 14 15 17 19 18 15 15
3630.0 18 18 18 20 18 20 21 19 17 17
3670.0 15 16 19 19 18 17 15 15 17 20
3710.0 18 14 12 14 20 21 19 14 16 22
3750.0 13 14 16 17 19 14 14 20 21 17
3790.0 12 12 16 16 20 23 20 21 25 27
3830.0 27 24 21 19 23
##END=
