##TITLE=1,1-Di(p-tolyl)ethylene
##JCAMP-DX=4.24
##DATA TYPE=INFRARED SPECTRUM
##ORIGIN=EPA-IR VAPOR PHASE LIBRARY
##OWNER=SRD/NIST
Collection (C) 2018 copyright by the U.S. Secretary of Commerce
on behalf of the United States of America. All rights reserved.
##CAS REGISTRY NO=2919-20-2
##MOLFORM=C16 H16
##$NIST SOURCE=MSDC-IR
##STATE=gas
##XUNITS=1/CM
##YUNITS=ABSORBANCE
##XFACTOR=1.
##YFACTOR=0.001
##DELTAX=3.85796
##FIRSTX=551.7
##LASTX=4000.7
##FIRSTY=11.7528
##MAXX=4000.7
##MINX=551.688
##MAXY=0.0681628
##MINY=0
##NPOINTS=895
##XYDATA=(X++(Y..Y))
551.688 11.7528 10.9028 9.7728 8.4428 6.9828 5.6628 4.4828 3.4928 2.9428 2.6728
590.268 2.4928 2.3328 2.2528 2.3428 2.7928 3.8328 4.8228 4.9528 4.0528 2.8328
628.847 2.1828 1.9728 2.0528 2.3128 2.5828 2.9728 3.2228 3.2328 2.9428 2.2928
667.427 1.8728 1.7028 1.6028 1.5128 1.4828 1.7228 1.8928 1.9728 2.2528 2.6428
706.006 3.1128 4.0528 5.6628 7.8928 9.9828 10.7928 9.9528 8.1728 6.8728 6.3528
744.586 6.0428 6.0528 6.6728 7.0528 6.5328 5.4228 4.4828 4.1028 3.9028 3.9428
783.165 4.1528 4.5728 5.4728 7.2128 9.8428 13.7328 19.7428 29.4628 43.0028 58.1728
821.745 68.1628 65.3428 53.7628 39.1028 25.7328 16.8928 11.8628 9.1528 7.5528 6.4828
860.324 5.7828 5.4728 5.3728 5.3228 5.5428 6.6928 9.6328 15.2528 23.1228 31.3228
898.904 34.7828 30.5128 22.3828 14.4228 8.5828 5.3928 3.8628 3.0428 2.6328 2.5628
937.484 2.5228 2.5028 2.3028 2.1828 2.3428 2.4228 2.5628 2.4528 2.0028 1.7428
976.063 1.7328 1.8628 1.9028 1.9428 1.8928 1.9428 2.0128 2.3528 3.7728 7.9028
1014.643 14.9728 19.2528 17.1628 10.4828 5.5228 4.4728 4.3428 4.5328 4.6128 4.7828
1053.222 4.7628 4.4428 4.4328 5.5628 8.2628 11.6728 13.1828 11.5028 7.9328 5.3828
1091.802 4.5228 4.3628 4.7128 5.7728 6.9128 7.8228 8.4428 8.2028 6.9628 5.3528
1130.381 4.2128 2.9428 2.2828 2.3728 2.1028 1.8628 1.9728 2.0428 2.2028 2.4828
1168.961 3.0828 4.5028 7.7728 11.9428 13.8228 11.6928 7.1028 4.4728 4.3128 4.4228
1207.540 4.4628 4.6228 4.4428 4.0028 3.7828 3.8428 4.1728 4.4028 4.1328 3.5228
1246.120 2.8128 2.4128 2.3328 2.3428 2.3428 2.3228 2.4928 2.7328 2.9828 3.4528
1284.699 4.2028 5.2828 6.8728 9.0728 11.6028 13.4528 14.1228 14.3928 15.8228 18.4228
1323.279 19.9428 18.4528 14.3128 9.9828 7.3928 6.3028 5.8828 5.7028 5.6028 5.6028
1361.859 5.6828 5.8428 6.0528 6.2928 6.6828 7.2428 7.8528 8.4528 9.0628 9.7628
1400.438 10.4228 10.9028 10.9628 10.5528 9.9628 9.3828 8.8128 8.2528 7.6928 7.0928
1439.018 6.6228 6.2828 6.0628 6.0328 6.0728 6.2428 6.5928 6.9728 7.2228 7.6028
1477.597 8.2528 9.2328 10.7328 13.0628 16.6028 21.8828 29.3128 39.2228 51.1928 57.2828
1516.177 51.1728 35.2728 19.6928 11.6428 8.5628 7.2228 6.7528 6.7128 6.9028 7.1528
1554.756 7.3828 7.6528 7.9128 8.0428 7.9228 7.5928 7.2628 7.0728 7.2028 7.8128
1593.336 8.9228 10.4928 12.5328 14.9328 17.4028 19.0728 19.1028 17.5128 14.7528 11.4828
1631.915 8.6628 6.6928 5.6428 5.3428 5.5428 5.8128 5.7428 5.1928 4.2928 3.3728
1670.495 2.6528 2.0828 1.7128 1.4828 1.3528 1.3228 1.2528 1.1828 1.1128 1.0128
1709.075 0.9773 0.9227 0.8758 0.854 0.8565 0.8542 0.8517 0.9026 0.9811 1.1528
1747.654 1.4028 1.6728 2.0028 2.3828 2.7128 2.9128 3.0528 3.3228 3.9228 5.0028
1786.234 6.2628 7.0728 7.1828 6.7028 5.9628 5.0728 4.0228 3.0428 2.2928 1.7828
1824.813 1.4128 1.2128 1.0928 1.0528 1.0428 1.0228 1.0228 1.0628 1.2028 1.3428
1863.393 1.4728 1.6928 1.9628 2.2328 2.6728 3.2028 3.8928 4.8328 5.7928 6.3528
1901.972 6.1328 5.2328 4.0628 2.9128 2.0928 1.6428 1.3728 1.1328 0.9433 0.8268
1940.552 0.7485 0.7189 0.6826 0.6686 0.7281 0.7491 0.7305 0.7023 0.6395 0.6024
1979.131 0.5591 0.547 0.5398 0.4818 0.4507 0.4344 0.4548 0.5226 0.5477 0.5884
2017.711 0.621 0.5685 0.5315 0.5317 0.4982 0.4497 0.3914 0.3311 0.321 0.3231
2056.291 0.3131 0.3367 0.3455 0.3377 0.3587 0.3767 0.3785 0.3267 0.279 0.2905
2094.870 0.2838 0.2712 0.2941 0.2982 0.2707 0.2619 0.2791 0.3138 0.3357 0.3608
2133.450 0.4192 0.4749 0.4927 0.4675 0.424 0.4125 0.3848 0.3363 0.343 0.3624
2172.029 0.3212 0.2999 0.3125 0.2849 0.2951 0.3192 0.3289 0.3315 0.338 0.3498
2210.609 0.3187 0.2722 0.2636 0.2688 0.2772 0.3194 0.3812 0.3897 0.379 0.4095
2249.188 0.4026 0.469 0.4941 0.417 0.446 0.4394 0.4091 0.4424 0.4997 0.5763
2287.768 0.5988 0.6314 0.7236 0.7995 0.8777 0.885 0.8309 0.7891 0.7374 0.7649
2326.347 0.7817 0.7112 0.5999 0.5216 0.5568 0.5499 0.5299 0.5247 0.4782 0.5031
2364.927 0.5415 0.5111 0.473 0.4516 0.4866 0.4942 0.4689 0.4587 0.4731 0.5273
2403.507 0.5863 0.6105 0.5872 0.6174 0.6724 0.663 0.6099 0.5631 0.5616 0.5839
2442.086 0.594 0.5722 0.5779 0.584 0.5531 0.5243 0.4949 0.5184 0.5671 0.5549
2480.666 0.543 0.5726 0.5588 0.5423 0.5721 0.5763 0.5647 0.5726 0.5064 0.4898
2519.245 0.5147 0.5095 0.5036 0.4594 0.3887 0.3459 0.3675 0.3814 0.4035 0.4433
2557.825 0.4516 0.4863 0.527 0.6081 0.7121 0.7838 0.9199 1.0628 1.1028 1.0528
2596.404 0.9292 0.8248 0.7417 0.6647 0.6295 0.6231 0.622 0.6151 0.6615 0.6618
2634.984 0.5816 0.554 0.5428 0.4834 0.4557 0.4637 0.415 0.375 0.3915 0.4306
2673.563 0.4667 0.4949 0.5361 0.5408 0.5582 0.6573 0.7525 0.8052 0.8964 0.9292
2712.143 0.9545 1.0041 1.0228 1.0928 1.2628 1.6128 2.1828 2.6828 2.8128 2.5828
2750.722 2.0928 1.5728 1.2728 1.1328 1.0528 1.0428 1.0928 1.1028 1.1528 1.2628
2789.302 1.3828 1.5228 1.6028 1.7028 1.9028 2.1028 2.3028 2.5128 2.6928 2.9628
2827.882 3.2728 3.6728 4.2028 4.7928 5.5228 6.4928 7.7628 9.4428 11.6928 14.5128
2866.461 17.7928 21.1228 23.8928 25.3028 25.1028 23.9228 22.3428 20.8728 19.9228 19.6828
2905.041 20.1528 21.5028 23.8628 27.4328 32.5628 39.3028 46.3628 50.4528 48.7528 41.6828
2943.620 32.7828 25.5328 20.8628 18.0528 16.5128 15.7428 15.3728 15.5328 16.2528 17.6228
2982.200 19.6028 21.9528 24.3928 26.7428 28.8428 30.6328 32.3528 34.3528 37.5528 43.1728
3020.779 52.0228 61.6628 65.6828 60.6228 49.8228 40.4528 35.8928 34.2928 33.4328 32.2428
3059.359 30.2828 28.0428 26.2628 25.3128 25.3228 25.6228 25.7028 27.6528 32.3828 33.8728
3097.938 28.3028 18.3828 10.7028 7.8328 6.7928 6.2328 5.8228 5.4028 4.7528 3.9428
3136.518 3.2328 2.5128 1.8828 1.5328 1.2328 1.1128 1.0428 0.8538 0.7054 0.6892
3175.098 0.6986 0.6003 0.5386 0.5869 0.546 0.4139 0.3835 0.4329 0.4194 0.3359
3213.677 0.3255 0.378 0.3482 0.3761 0.353 0.2848 0.3175 0.3249 0.3074 0.2786
3252.257 0.2389 0.2663 0.2837 0.2577 0.2305 0.2403 0.2792 0.2697 0.2794 0.271
3290.836 0.2403 0.2773 0.255 0.2052 0.237 0.1984 0.1866 0.2768 0.3513 0.4425
3329.416 0.4175 0.3458 0.4064 0.4424 0.4287 0.3552 0.2839 0.2515 0.2396 0.2932
3367.995 0.3003 0.1684 0.1267 0.1578 0.1982 0.2962 0.2728 0.2586 0.2562 0.2676
3406.575 0.2972 0.2476 0.1338 0.04998 0.09164 0.2315 0.2633 0.1944 0.2281 0.2954
3445.154 0.3317 0.3244 0.258 0.177 0.1746 0.1655 0.08356 0.05554 0.05453 0.09828
3483.734 0.1414 0.143 0.2202 0.2287 0.1583 0.1429 0.1173 0 0.05039 0.2252
3522.314 0.1135 0.0133101 0.1218 0.138 0.05117 0.0518 0.09803 0.1549 0.2364 0.2816
3560.893 0.1791 0.06083 0.1546 0.1866 0.1718 0.1578 0.11182 0.1223 0.1513 0.1939
3599.473 0.2498 0.2002 0.1381 0.2516 0.2709 0.2358 0.2328 0.2365 0.2758 0.3233
3638.052 0.421 0.4685 0.4367 0.4554 0.4658 0.397 0.4349 0.5046 0.4712 0.4566
3676.632 0.4707 0.5213 0.5571 0.4907 0.4533 0.4484 0.3737 0.3352 0.3162 0.2366
3715.211 0.2536 0.2493 0.2201 0.2412 0.1682 0.1459 0.2415 0.2593 0.1935 0.07021
3753.791 0.06156 0.1733 0.2947 0.3461 0.2521 0.2096 0.1643 0.1568 0.2325 0.2732
3792.370 0.3448 0.3231 0.3056 0.3129 0.2094 0.1894 0.2892 0.3161 0.3546 0.4017
3830.950 0.3725 0.3722 0.3193 0.3505 0.39 0.366 0.3677 0.4396 0.4861 0.4632
3869.530 0.5104 0.4696 0.5363 0.602 0.5272 0.5312 0.473 0.402 0.3499 0.4674
3908.109 0.5998 0.4686 0.3345 0.4267 0.4168 0.3834 0.4584 0.4115 0.4092 0.3851
3946.689 0.3848 0.4914 0.4107 0.3468 0.3661 0.421 0.5234 0.45 0.3576 0.3281
3985.268 0.3894 0.4324 0.3706 0.3539 0.3869
##END=
