##TITLE=Dursban
##JCAMP-DX=4.24
##DATA TYPE=INFRARED SPECTRUM
##ORIGIN=NIST Mass Spectrometry Data Center
##OWNER=NIST Standard Reference Data Program
Collection (C) 2018 copyright by the U.S. Secretary of Commerce
on behalf of the United States of America. All rights reserved.
##CAS REGISTRY NO=2921-88-2
##MOLFORM=C 9 H 11 Cl 3 N O 3 P S
##$NIST SOURCE=MSDC-IR
##SPECTROMETER/DATA SYSTEM=HP-GC/MS/IRD
##STATE=gas
##XUNITS=1/CM
##YUNITS=ABSORBANCE
##XFACTOR=1.0
##YFACTOR=0.000006200
##DELTAX=4.0
##FIRSTX=550.0
##LASTX=3846.0
##FIRSTY=0.001662
##MAXX=3846
##MINX=550
##MAXY=0.062
##MINY=0
##NPOINTS=825
##XYDATA=(X++(Y..Y))
550.0 268 127 38 47 61 72 45 13 9 20
590.0 15 3 13 27 33 62 80 101 157 211
630.0 232 230 233 248 286 403 532 564 542 601
670.0 796 1020 1017 777 557 464 460 514 596 699
710.0 814 871 826 692 550 487 507 601 740 834
750.0 805 688 573 504 484 514 588 696 837 986
790.0 1119 1232 1328 1445 1641 1917 2303 2829 3459 4155
830.0 4854 5521 6169 6824 7412 7658 7249 6151 4716 3387
870.0 2399 1755 1354 1104 964 927 995 1070 968 763
910.0 628 583 607 663 758 898 1085 1346 1718 2285
950.0 3134 4275 5561 6667 7169 6739 5545 4192 3145 2469
990.0 2055 1848 1824 1926 2157 2580 3202 4092 5312 6761
1030.0 8177 9153 9396 8992 8318 7762 7479 7416 7368 7134
1070.0 6636 6049 5651 5422 5035 4342 3526 2815 2284 1889
1110.0 1597 1384 1222 1107 1041 1009 1020 1055 1108 1202
1150.0 1397 1795 2358 2676 2319 1617 1135 928 809 721
1190.0 667 629 597 594 639 741 919 1150 1354 1380
1230.0 1166 877 684 606 603 666 808 1045 1414 1870
1270.0 2253 2353 2104 1662 1243 954 778 672 610 573
1310.0 563 580 650 810 1094 1497 1856 1900 1587 1194
1350.0 963 899 922 1019 1196 1419 1675 1993 2474 3222
1390.0 4263 5483 6811 8236 9522 10000 9256 7732 6183 4899
1430.0 3785 2843 2121 1620 1278 1036 862 740 658 605
1470.0 568 548 544 531 503 481 474 475 480 487
1510.0 504 552 655 824 1065 1358 1654 1850 1828 1565
1550.0 1193 870 662 564 542 515 436 335 262 217
1590.0 190 174 159 141 129 117 108 101 92 86
1630.0 81 80 80 78 74 67 63 61 59 61
1670.0 66 70 74 73 69 65 65 64 63 61
1710.0 62 61 59 55 52 47 43 42 43 43
1750.0 41 37 39 40 38 41 49 56 63 75
1790.0 88 93 83 71 64 63 66 68 73 81
1830.0 86 95 102 101 100 97 94 91 86 83
1870.0 79 71 67 59 51 48 42 36 34 30
1910.0 29 28 24 19 18 19 17 16 16 10
1950.0 6 4 5 4 2 5 7 8 7 7
1990.0 6 4 7 7 11 13 14 15 13 12
2030.0 9 5 2 1 0 0 0 0 3 6
2070.0 11 15 20 22 21 17 15 13 8 8
2110.0 9 7 6 7 5 5 4 5 5 5
2150.0 8 9 8 8 3 2 6 9 6 4
2190.0 3 4 6 7 8 7 8 7 11 16
2230.0 20 22 21 20 15 10 10 12 11 8
2270.0 6 5 4 4 5 7 10 7 8 9
2310.0 7 7 10 9 5 3 7 13 12 13
2350.0 15 18 18 21 24 26 27 25 21 17
2390.0 10 6 6 5 4 0 1 5 5 4
2430.0 5 5 6 7 11 15 15 12 12 13
2470.0 17 22 25 25 26 30 32 32 30 32
2510.0 34 32 25 24 28 27 28 28 27 27
2550.0 23 18 21 24 20 12 9 9 8 5
2590.0 6 12 10 8 11 12 11 12 9 3
2630.0 1 4 5 4 4 4 7 11 12 11
2670.0 11 10 12 9 3 5 6 6 6 3
2710.0 3 5 14 22 31 37 38 40 44 48
2750.0 55 57 56 60 62 61 60 51 50 46
2790.0 36 36 36 32 33 34 34 37 43 49
2830.0 55 58 65 67 67 75 87 99 114 136
2870.0 167 201 232 262 276 280 291 308 346 394
2910.0 443 474 488 490 503 560 698 878 989 960
2950.0 819 674 606 613 673 770 891 1036 1227 1397
2990.0 1411 1292 1163 1024 836 668 550 458 383 325
3030.0 272 224 188 157 133 117 102 86 75 69
3070.0 63 65 74 68 57 52 47 49 52 40
3110.0 33 37 35 35 32 28 27 25 26 26
3150.0 25 25 24 33 35 22 17 21 28 25
3190.0 18 20 26 20 11 21 27 24 23 21
3230.0 21 16 14 14 13 19 19 11 9 6
3270.0 3 10 13 15 14 6 8 12 9 1
3310.0 4 17 20 18 9 1 9 16 15 12
3350.0 9 13 17 9 12 18 14 6 9 16
3390.0 15 11 5 3 4 7 6 11 27 21
3430.0 7 1 14 26 19 13 12 11 10 8
3470.0 3 7 13 17 19 19 17 13 5 1
3510.0 9 19 26 25 23 18 11 13 23 25
3550.0 18 19 26 27 14 15 22 17 20 23
3590.0 24 23 18 20 24 27 27 30 30 29
3630.0 31 27 26 32 27 26 26 25 32 30
3670.0 32 34 33 36 40 38 34 38 35 28
3710.0 32 27 29 35 31 36 32 35 42 42
3750.0 35 27 33 32 27 24 32 34 35 37
3790.0 30 24 31 29 21 29 37 39 35 26
3830.0 26 35 30 25 28
##END=
