##TITLE=3-Chloro-4-fluoroacetophenone
##JCAMP-DX=4.24
##DATA TYPE=INFRARED SPECTRUM
##ORIGIN=EPA-IR VAPOR PHASE LIBRARY
##OWNER=SRD/NIST
Collection (C) 2018 copyright by the U.S. Secretary of Commerce
on behalf of the United States of America. All rights reserved.
##CAS REGISTRY NO=2923-66-2
##MOLFORM=C 8 H 6 Cl F O
##$NIST SOURCE=MSDC-IR
##STATE=gas
##XUNITS=1/CM
##YUNITS=ABSORBANCE
##XFACTOR=1.
##YFACTOR=0.001
##DELTAX=1.92898
##FIRSTX=549.8
##LASTX=4000.7
##FIRSTY=2.542
##MAXX=4000.7
##MINX=549.759
##MAXY=0.091082
##MINY=0
##NPOINTS=1790
##XYDATA=(X++(Y..Y))
549.759 2.542 3.092 3.552 4.042 4.172 4.342 5.042 5.772 5.972 6.082
569.049 5.772 5.462 5.342 6.512 6.892 6.782 7.862 8.212 7.382 6.842
588.339 6.492 5.702 5.502 5.092 4.202 3.332 2.802 2.992 2.912 2.542
607.628 2.312 2.622 2.822 2.572 2.862 3.402 3.472 3.122 2.722 2.172
626.918 1.812 1.912 1.972 1.482 1.362 1.372 1.222 1.222 1.312 1.0265
646.208 0.7679 0.6364 0.6035 1.312 2.022 1.922 2.182 3.262 3.752 3.642
665.498 3.352 3.162 2.712 2.772 2.892 2.232 1.952 1.422 1.082 0.9746
684.787 0.7101 0.9684 1.062 1.062 1.452 1.722 1.222 0.8938 1.102 1.242
704.077 1.822 2.702 3.292 4.172 4.732 5.122 6.122 6.882 7.262 7.462
723.367 8.042 8.162 7.852 7.582 6.592 5.522 4.842 4.282 3.202 2.322
742.657 2.202 2.032 2.042 2.042 1.822 1.292 0.3475 0.2432 0.8995 0.6805
761.947 0.7351 0.9071 0.7755 0.8504 0.7241 1.062 1.0419 0.7481 0.4929 0.719
781.236 0.9829 0.7021 1.082 1.622 1.922 1.682 1.162 0.9142 1.312 2.122
800.526 2.812 3.092 3.252 3.792 4.722 5.702 6.802 8.312 9.572 9.932
819.816 9.002 8.622 9.032 9.012 8.882 8.702 8.362 7.412 5.842 5.002
839.106 4.652 4.222 4.112 4.472 4.282 3.802 3.862 4.422 4.502 4.152
858.395 4.412 4.462 4.112 3.712 3.662 4.062 4.182 3.992 3.682 3.662
877.685 3.802 3.932 4.142 3.682 3.252 2.842 2.692 2.842 2.882 2.802
896.975 2.342 2.122 2.162 2.642 3.092 2.782 2.612 2.472 2.212 2.102
916.265 1.942 1.722 1.512 1.192 1.552 2.032 2.022 1.772 1.372 1.932
935.555 2.412 2.312 2.502 2.672 2.592 2.792 3.282 3.492 3.662 4.022
954.844 4.182 4.642 5.232 4.982 4.592 4.292 4.152 3.802 3.382 2.982
974.134 2.712 2.852 2.572 2.152 1.802 1.572 1.432 1.132 1.0158 1.062
993.424 1.422 1.772 1.952 1.642 1.692 1.952 1.162 1.332 1.712 1.692
1012.714 2.112 1.782 1.732 1.942 1.832 2.192 1.662 1.412 1.842 1.552
1032.003 2.092 2.542 1.922 1.982 2.452 3.212 3.942 4.012 4.392 5.062
1051.293 5.072 5.052 5.122 5.462 6.362 7.162 7.362 7.172 7.332 6.742
1070.583 6.752 5.842 5.622 6.552 6.562 7.182 7.442 7.322 6.572 7.222
1089.873 7.692 7.352 7.342 5.922 4.812 4.162 2.982 2.612 2.792 1.872
1109.163 0.8149 0.713 1.132 2.202 1.922 1.812 1.952 1.732 2.192 2.822
1128.452 3.082 2.882 3.002 3.032 3.352 2.742 2.722 3.292 2.542 2.372
1147.742 2.302 1.822 1.432 0.9 0.7752 0.9124 1.502 1.742 0.982 0.6187
1167.032 0.6681 1.392 1.692 1.312 1.232 1.182 1.202 0.9394 0.7694 1.232
1186.322 1.452 1.562 1.962 1.202 0.523 1.0358 1.572 2.382 3.942 3.762
1205.611 3.142 3.692 3.782 4.732 6.782 7.842 7.162 7.742 9.262 10.482
1224.901 12.232 13.612 14.612 15.422 16.552 17.662 17.302 16.262 16.662 17.622
1244.191 19.142 22.462 26.502 31.692 39.222 49.112 59.692 70.472 80.062 87.042
1263.481 90.952 91.082 87.392 79.682 67.892 54.002 40.402 28.222 19.122 13.792
1282.771 10.812 8.762 7.762 7.042 6.312 5.832 5.332 5.062 4.462 3.782
1302.060 3.422 3.232 3.022 2.812 2.962 2.962 2.702 2.622 2.792 2.712
1321.350 2.432 2.362 2.302 2.292 2.342 2.242 2.302 2.522 2.772 2.952
1340.640 3.192 3.682 4.352 5.112 6.152 7.582 9.002 10.282 11.412 12.182
1359.930 12.452 12.472 12.132 11.422 10.222 8.732 7.842 7.572 7.592 8.052
1379.219 8.912 10.012 11.192 12.662 14.072 15.022 15.992 16.652 16.672 16.112
1398.509 15.012 13.552 11.962 10.122 8.112 6.502 5.532 5.002 4.602 4.262
1417.799 4.212 4.272 4.122 4.042 4.052 4.072 4.052 3.892 3.972 4.012
1437.089 3.892 3.862 3.802 3.682 3.652 3.352 3.072 3.132 3.172 3.082
1456.378 2.802 2.552 2.522 2.582 2.772 3.042 3.142 3.252 3.672 4.252
1475.668 5.002 6.142 7.482 9.232 11.632 14.332 17.122 19.542 21.312 22.452
1494.958 22.982 22.732 21.332 18.972 16.082 13.302 10.982 9.222 7.882 6.762
1514.248 5.702 4.852 4.442 4.122 3.732 3.622 3.592 3.402 3.142 2.872
1533.538 2.922 3.012 2.942 2.742 2.622 2.922 2.882 2.612 2.682 2.772
1552.827 2.962 3.302 3.452 3.532 3.672 4.042 4.622 5.372 6.312 7.242
1572.117 8.402 9.512 10.692 12.122 13.832 15.072 15.972 17.222 18.222 18.632
1591.407 18.272 17.462 16.642 15.632 14.062 12.302 10.542 8.742 7.172 6.282
1610.697 5.442 4.472 3.902 3.282 2.932 2.672 2.392 2.422 2.342 2.382
1629.986 2.452 2.402 2.362 2.352 2.412 2.292 2.142 2.222 2.312 2.212
1649.276 2.302 2.502 2.502 2.782 3.142 3.272 3.422 3.552 3.762 4.022
1668.566 3.952 3.892 4.052 4.082 4.072 4.062 4.272 4.732 5.192 5.992
1687.856 7.202 8.922 11.262 14.262 18.622 24.042 29.902 35.772 40.002 42.732
1707.146 44.352 44.982 44.342 41.612 36.332 29.872 23.552 18.062 13.662 10.372
1726.435 7.902 6.232 5.072 4.322 3.932 3.692 3.642 3.702 3.692 3.952
1745.725 4.252 4.222 4.142 4.082 3.932 3.662 3.342 3.192 2.822 2.322
1765.015 2.172 2.042 1.832 1.582 1.472 1.472 1.442 1.432 1.332 1.362
1784.305 1.512 1.532 1.422 1.422 1.362 1.152 1.122 1.252 1.222 1.132
1803.594 1.152 1.0368 0.9358 0.9268 0.9189 1.072 1.162 1.152 1.242 1.102
1822.884 0.9997 0.8944 0.8187 0.8374 0.8737 1.0028 0.9635 0.9606 0.9576 0.9856
1842.174 1.172 1.202 1.0301 0.8902 0.9816 1.0451 0.9965 1.0445 1.0139 0.9145
1861.464 1.0328 1.0299 1.0227 1.0279 0.9136 0.884 0.8437 0.9759 0.9734 0.8991
1880.754 0.8566 0.685 0.7126 0.7996 0.7239 0.7572 0.8831 0.8523 0.8479 1.0076
1900.043 1.062 0.964 0.9654 1.062 1.112 1.222 1.262 1.222 1.212 1.082
1919.333 1.0228 1.152 1.212 1.112 1.062 0.9671 0.9223 1.0354 0.9049 0.7942
1938.623 0.8998 0.9343 0.7441 0.6552 0.8027 0.7841 0.699 0.7552 0.708 0.6075
1957.913 0.546 0.569 0.7991 0.7453 0.6847 0.6825 0.5659 0.7235 0.8724 0.961
1977.202 0.9589 0.7616 0.7846 0.8312 0.6696 0.706 0.8797 0.9567 0.9374 0.8928
1996.492 0.7125 0.6104 0.633 0.6132 0.7321 0.9407 1.0444 1.0123 0.9554 0.8316
2015.782 0.794 0.8597 0.7536 0.7416 0.982 1.049 0.9307 0.7546 0.7749 0.8355
2035.072 0.6641 0.6426 0.7097 0.5714 0.4972 0.6471 0.6719 0.5945 0.6799 0.7896
2054.362 0.7963 0.7907 0.7937 0.6912 0.586 0.6615 0.804 0.7819 0.726 0.6645
2073.651 0.6033 0.627 0.619 0.6169 0.7493 0.8274 0.7582 0.7575 0.8679 0.8392
2092.941 0.8315 0.9102 0.8167 0.7447 0.7181 0.7569 0.8421 0.8747 0.8688 0.8495
2112.231 0.868 0.8586 0.841 0.7819 0.9297 1.0077 0.9376 0.9581 0.7114 0.7341
2131.521 0.8742 0.8328 0.8176 0.8219 0.7559 0.7257 0.7736 0.6747 0.7111 0.8385
2150.810 0.9385 0.963 0.8056 0.7271 0.6721 0.6758 0.6858 0.6607 0.7791 0.7548
2170.100 0.6075 0.6761 0.7577 0.7414 0.749 0.8223 0.8132 0.7159 0.556 0.4491
2189.390 0.6721 0.8764 0.9994 1.0054 0.7471 0.7824 1.0328 1.072 1.0483 0.9364
2208.680 0.8975 0.8624 0.8367 0.8635 1.0172 1.0239 0.8961 0.8579 0.8565 0.9624
2227.970 1.0229 0.8905 0.7588 0.7976 0.6358 0.5898 0.6852 0.6376 0.6332 0.6427
2247.259 0.6783 0.8364 0.8019 0.7798 0.7728 0.6837 0.641 0.511 0.5693 0.6926
2266.549 0.5923 0.5442 0.8239 0.8599 0.7417 0.8363 0.7654 0.6739 0.8151 0.9747
2285.839 0.8306 0.7725 0.8426 0.9344 0.7873 0.635 0.8159 0.8602 0.7466 0.4992
2305.129 0.5613 0.6289 0.6492 0.7966 0.6292 0.658 0.8667 0.9121 0.9443 1.0156
2324.418 0.8336 0.8292 0.881 0.7024 0.7302 0.7474 0.8188 0.828 0.7271 0.5609
2343.708 0.4848 0.6159 0.8308 0.8082 0.6725 0.6398 0.4639 0.5562 0.7991 0.6712
2362.998 0.6794 0.8506 0.8 0.9246 0.9512 0.8679 0.8149 0.6721 0.7626 0.6614
2382.288 0.7143 0.9286 0.9065 0.9439 0.9372 0.7704 0.6385 0.8016 0.8807 0.7994
2401.578 0.7695 0.7647 0.7975 0.7289 0.5337 0.5267 0.5112 0.6605 0.7179 0.4671
2420.867 0.562 0.7774 0.7647 0.6703 0.9176 1.0326 1.072 1.142 0.9599 0.8269
2440.157 0.7876 0.816 0.8724 0.9106 1.0325 0.98 0.9087 1.062 1.062 0.9374
2459.447 0.9341 0.9477 0.9343 1.0029 0.821 0.9406 1.062 0.9977 0.9377 0.7805
2478.737 0.8292 0.9604 0.8897 0.7986 0.84 0.8445 0.7193 0.6314 0.7894 0.8371
2498.026 0.9076 0.9297 0.869 0.8562 0.7971 0.7407 0.7964 0.9678 1.072 0.973
2517.316 0.9576 1.072 1.212 1.322 1.092 0.8815 0.9281 0.974 1.062 1.062
2536.606 0.9701 1.072 0.9883 0.922 1.142 0.8578 0.6688 0.8481 0.8292 0.7756
2555.896 0.8765 1.0173 1.172 1.352 1.322 1.242 1.232 1.452 1.452 1.202
2575.186 1.102 1.132 1.282 1.322 1.352 1.362 1.162 0.8799 0.8246 0.7123
2594.475 0.6917 1.0133 1.023 0.6764 0.5606 0.7762 0.8513 0.6403 0.6695 0.5465
2613.765 0.4762 0.7946 0.8505 0.7977 0.8224 0.7697 0.806 0.8664 0.8533 0.8783
2633.055 0.8765 0.7802 0.9799 1.162 1.008 1.0405 0.9773 0.9034 0.9887 1.0297
2652.345 0.9412 0.9197 0.9963 0.9149 0.6762 0.6312 0.6673 0.7055 0.8286 0.6598
2671.634 0.587 0.7779 0.8797 0.9754 1.0032 1.0137 0.8022 0.4499 0.7275 0.8152
2690.924 0.5127 0.5658 0.8387 0.8903 1.022 1.172 1.072 1.102 0.854 0.4826
2710.214 0.8518 1.102 0.7357 0.8224 1.162 1.142 0.7733 0.7875 0.7629 0.7571
2729.504 0.9784 0.7281 0.6269 0.8796 0.9721 0.9095 1.0267 0.9302 0.7205 0.767
2748.794 0.7793 0.6258 0.9334 1.472 1.242 0.8322 0.7707 0.9112 0.9177 0.5654
2768.083 0.5649 0.9485 1.142 0.9276 0.8396 0.9702 1.102 1.112 0.5671 0.1974
2787.373 0.4213 0.646 0.561 0.707 0.8797 0.775 0.722 0.7103 0.8763 0.9816
2806.663 0.9274 0.896 0.9908 0.7941 0.6667 0.981 1.182 1.082 0.9213 0.8668
2825.953 0.8664 1.0325 1.242 1.052 0.6797 0.7839 0.8199 0.8478 0.957 1.0365
2845.242 0.7892 0.8724 1.252 1.0206 0.7927 1.024 1.462 1.282 0.7822 0.9134
2864.532 1.122 0.8876 0.8475 0.8681 1.212 1.252 1.052 1.0504 1.0033 1.062
2883.822 1.072 1.092 1.232 1.352 1.092 0.7245 0.6525 0.938 1.222 1.322
2903.112 0.9918 0.8485 0.9261 0.8399 0.8408 0.8213 1.052 1.272 1.282 1.422
2922.401 1.332 1.422 1.642 1.772 1.982 1.642 1.482 1.562 1.492 1.682
2941.691 1.542 1.212 1.472 1.332 1.252 1.582 1.492 1.442 1.322 1.282
2960.981 1.632 1.612 1.322 1.562 1.632 1.422 1.792 2.312 2.382 2.252
2980.271 2.012 1.692 1.612 1.472 1.112 0.9958 1.272 1.492 1.572 1.572
2999.561 1.592 1.812 1.972 1.932 1.932 1.982 1.802 1.962 2.382 2.372
3018.850 1.832 1.782 1.992 1.932 1.932 1.952 2.002 1.652 1.392 1.672
3038.140 1.752 1.502 1.182 1.202 1.242 1.542 1.682 1.472 1.502 1.432
3057.430 1.532 1.512 1.712 2.012 1.682 1.642 2.102 2.072 2.182 2.492
3076.720 2.622 2.852 2.722 2.752 2.352 2.022 2.422 2.302 2.182 1.952
3096.009 1.612 1.632 1.762 1.492 0.795 0.722 1.0258 1.122 1.302 1.452
3115.299 1.422 1.262 0.9283 0.9094 1.102 1.122 1.017 0.7208 0.5861 0.8129
3134.589 1.372 1.432 1.182 0.9231 0.7339 1.102 1.302 1.222 1.072 0.8447
3153.879 0.8165 0.7444 0.5523 0.5209 0.5783 0.5307 0.9154 1.282 1.242 1.302
3173.169 1.0043 0.7354 0.7556 0.4459 0.7244 1.242 0.8401 0.5387 0.8284 0.9228
3192.458 0.664 0.8242 0.5788 0.4393 0.795 0.8021 0.9128 1.0191 0.4983 0.2302
3211.748 0.9226 1.062 0.5193 0.2411 0.3932 0.8134 0.7341 0.5471 0.6554 0.8929
3231.038 0.9389 0.9111 0.6741 0.6741 0.5922 0.6484 1.0214 0.8911 0.9064 1.062
3250.328 0.9694 0.8138 0.7105 0.7564 0.848 0.8216 0.9581 1.182 1.272 0.8698
3269.617 0.3175 0.1967 0.5671 0.9064 1.041 1.062 1.122 0.8565 0.3431 0.3454
3288.907 0.5661 1.0328 0.7932 0.5133 1.052 1.192 1.372 1.092 0.7247 0.5666
3308.197 0.7906 1.0505 0.954 0.8794 0.7475 0.5905 0.9304 1.142 0.6231 0.5146
3327.487 0.8027 0.8721 0.6814 0.7767 0.993 0.6843 0.4914 1.142 1.512 1.192
3346.777 0.6483 0.3686 0.9329 1.452 1.062 0.8551 1.0064 0.8279 0.4565 0.2823
3366.066 0.2823 0.3615 0.5187 0.6298 0.8581 0.9614 0.6671 0.6968 1.292 1.552
3385.356 1.382 1.222 1.332 1.352 1.462 1.992 1.922 1.222 1.212 1.412
3404.646 1.352 1.272 1.162 1.212 1.332 1.432 1.072 0.6183 0.7335 0.8063
3423.936 0.9099 0.9674 0.6242 0.5692 0.8052 0.8418 0.9642 0.6876 0.3806 0.872
3443.225 0.7547 0.3869 0.2385 0.3909 0.6573 0.5193 0.4647 0.2784 0.1535 0.4075
3462.515 0.6756 0.8333 0.7147 0.3388 0.5301 1.0004 1.292 1.202 1.132 1.072
3481.805 0.8445 0.9004 1.062 1.222 0.8892 0.544 0.8446 0.9829 0.9473 1.092
3501.095 0.7837 0.636 1.072 1.202 0.9332 0.8088 0.89 0.9775 0.6011 0.5749
3520.385 1.0254 1.082 0.9564 0.3589 0 0.6812 0.7475 0.5449 0.9635 0.7458
3539.674 0.792 1.222 0.7354 0.5207 0.5374 0.7708 0.896 0.6596 0.4858 0.3226
3558.964 0.4444 0.6923 1.242 1.412 1.0442 0.7618 0.4513 0.619 0.9675 0.8678
3578.254 0.8669 0.793 0.5942 0.5693 0.4206 0.6384 0.9594 0.792 0.7056 0.609
3597.544 0.3659 0.3634 1.0427 1.372 0.7811 0.2094 0.5722 1.222 1.182 0.7349
3616.833 0.6606 0.9669 0.7405 0.6332 0.6644 0.4996 0.3616 0.6309 0.7386 0.6869
3636.123 1.132 1.322 1.262 1.0508 0.9565 0.7943 0.7625 0.7254 0.5142 0.5594
3655.413 0.6491 0.8151 0.8476 0.7973 0.6933 0.4709 0.7457 1.072 1.0376 0.9238
3674.703 0.9921 1.0518 0.6101 0.6792 0.6723 0.3327 0.12317 0.058589 0.3602 0.6262
3693.993 0.537 0.5862 0.3047 0.4004 0.8746 0.5797 0.7759 0.9707 0.7043 0.442
3713.282 0.5447 0.5737 0.4822 0.6719 0.5578 0.5269 0.684 0.5923 0.5585 0.6578
3732.572 0.7062 0.6504 1.302 1.452 1.232 1.132 0.5179 0.2405 0.5912 0.919
3751.862 0.8801 0.853 0.5532 0.7715 0.9356 0.5278 0.4074 0.5102 0.738 0.7299
3771.152 0.2632 0.1899 0.5472 0.5742 0.215 0.0819 0.09466 0.2701 0.3954 0.4432
3790.441 0.7553 0.9747 1.272 1.232 1.352 1.452 1.602 1.752 1.272 0.7416
3809.731 0.5251 0.5764 0.5428 0.7917 0.8989 0.6692 0.8109 0.8617 0.3279 0.5163
3829.021 0.8304 0.3262 0.5289 0.8868 1.132 1.392 1.192 0.8801 0.9346 0.9246
3848.311 0.6528 0.7544 0.866 0.8383 1.052 0.852 0.5921 0.8214 0.9825 0.6882
3867.601 0.812 1.052 1.102 0.6678 0.1718 0.724 1.092 1.122 0.9584 0.8427
3886.890 0.6729 0.6461 0.686 0.6115 1.031 0.8825 0.741 1.0302 1.272 1.412
3906.180 0.8334 0.5163 0.9459 1.442 1.442 0.8315 0.7208 0.7908 0.9365 1.272
3925.470 1.0283 0.9966 1.262 0.6599 0.6003 0.9068 0.6125 0.5521 0.8544 1.252
3944.760 0.7142 0.3681 0.6891 1.222 1.202 0.5313 0.396 0.783 1.0063 0.8246
3964.049 0.6017 0.9114 1.0228 0.7892 1.252 1.262 0.7363 0.6788 0.3935 0.2667
3983.339 0.4844 0.4703 0.3902 0.6584 0.9336 1.162 1.192 1.102 1.342 0.9626
##END=
