##TITLE=2-Methoxyresorcinol
##JCAMP-DX=4.24
##DATA TYPE=INFRARED SPECTRUM
##ORIGIN=NIST Mass Spectrometry Data Center
##OWNER=NIST Standard Reference Data Program
Collection (C) 2018 copyright by the U.S. Secretary of Commerce
on behalf of the United States of America. All rights reserved.
##CAS REGISTRY NO=29267-67-2
##MOLFORM=C 7 H 8 O 3
##$NIST SOURCE=MSDC-IR
##SPECTROMETER/DATA SYSTEM=HP-GC/MS/IRD
##STATE=gas
##XUNITS=1/CM
##YUNITS=ABSORBANCE
##XFACTOR=1.0
##YFACTOR=0.000002600
##DELTAX=4.0
##FIRSTX=550.0
##LASTX=3846.0
##FIRSTY=0.000439
##MAXX=3846
##MINX=550
##MAXY=0.026
##MINY=0
##NPOINTS=825
##XYDATA=(X++(Y..Y))
550.0 169 112 122 172 161 165 171 113 66 46
590.0 20 1 33 41 16 4 3 11 5 8
630.0 1 6 19 13 19 39 62 111 212 406
670.0 689 956 1107 1152 1122 961 706 494 444 547
710.0 765 1047 1405 1830 2089 2164 1807 1294 1021 757
750.0 567 519 614 829 1103 1466 1765 1882 1837 1474
790.0 1109 881 649 473 373 316 286 265 237 210
830.0 179 162 162 169 165 149 128 106 109 113
870.0 106 96 79 80 83 71 72 72 62 74
910.0 84 87 94 107 131 142 164 187 212 231
950.0 257 309 376 468 598 796 1057 1405 1881 2437
990.0 3000 3533 3918 4183 4575 5119 5626 5852 5761 5384
1030.0 4629 3565 2627 2175 2133 2261 2405 2448 2348 2060
1070.0 1669 1306 1000 783 640 548 500 486 488 499
1110.0 522 556 614 696 827 1025 1334 1786 2309 2799
1150.0 3255 3738 4156 4531 5120 6060 7227 8320 9139 9735
1190.0 10000 9584 8604 7495 6406 5332 4312 3400 2694 2252
1230.0 2023 1973 2081 2350 2776 3252 3587 3713 3640 3376
1270.0 2925 2417 2053 1908 1969 2234 2701 3254 3696 3923
1310.0 3911 3683 3279 2831 2599 2679 2960 3309 3596 3687
1350.0 3503 3128 2677 2179 1694 1278 944 686 497 379
1390.0 319 280 256 247 253 277 306 355 437 545
1430.0 692 883 1085 1256 1399 1506 1589 1718 2021 2597
1470.0 3435 4399 5303 6115 6799 7186 7106 6722 6263 5557
1510.0 4583 3672 2964 2374 1846 1425 1153 1019 986 1028
1550.0 1125 1258 1382 1489 1570 1615 1635 1679 1770 1937
1590.0 2261 2772 3388 3960 4361 4486 4179 3376 2387 1623
1630.0 1153 856 664 530 445 390 344 307 276 245
1670.0 220 206 197 186 173 165 151 134 128 123
1710.0 114 111 102 93 83 73 69 66 67 66
1750.0 61 52 43 45 45 46 49 55 65 73
1790.0 83 96 104 105 103 100 90 79 67 53
1830.0 47 47 46 47 43 40 41 45 51 60
1870.0 71 88 105 116 124 126 125 117 106 93
1910.0 73 54 38 37 33 29 31 36 41 47
1950.0 59 67 72 83 95 103 113 121 124 133
1990.0 136 127 117 111 105 100 97 95 88 79
2030.0 74 71 66 63 67 72 75 78 73 60
2070.0 52 44 30 22 21 21 20 14 13 11
2110.0 3 2 5 1 6 10 7 7 9 15
2150.0 19 29 40 46 50 48 48 51 51 47
2190.0 41 36 30 26 29 25 25 26 23 19
2230.0 14 18 21 24 28 30 28 29 42 55
2270.0 63 65 65 60 62 64 62 67 66 63
2310.0 57 54 61 60 59 61 54 49 50 49
2350.0 48 43 39 42 41 35 34 36 36 38
2390.0 39 40 46 47 49 57 64 73 77 75
2430.0 70 64 63 63 63 68 72 74 73 67
2470.0 65 72 76 77 79 84 97 108 113 120
2510.0 121 117 112 101 90 75 61 47 39 38
2550.0 32 25 18 22 21 19 19 22 25 23
2590.0 13 3 7 10 13 15 12 10 13 13
2630.0 9 8 10 15 12 9 8 8 18 23
2670.0 21 18 22 20 17 20 16 12 11 11
2710.0 6 2 3 8 15 17 13 15 17 16
2750.0 19 17 20 24 27 37 35 27 33 40
2790.0 42 55 64 76 93 107 133 170 220 290
2830.0 390 532 680 822 915 885 779 645 488 367
2870.0 298 274 276 280 298 335 373 414 455 501
2910.0 553 593 618 652 710 803 939 1101 1273 1429
2950.0 1523 1536 1483 1362 1208 1079 969 883 824 799
2990.0 799 832 867 880 874 846 783 691 609 561
3030.0 550 566 586 607 635 675 720 760 807 842
3070.0 837 800 729 642 544 444 368 318 273 231
3110.0 190 156 126 102 87 73 55 44 44 51
3150.0 45 31 29 30 22 16 22 18 15 15
3190.0 20 26 20 19 19 20 17 13 16 18
3230.0 24 25 22 22 30 35 28 23 20 20
3270.0 26 31 36 36 36 40 39 43 42 32
3310.0 29 29 20 22 20 20 26 10 0 12
3350.0 26 24 20 18 17 21 24 21 21 24
3390.0 18 16 19 22 22 25 29 11 1 7
3430.0 6 10 11 12 10 5 9 14 12 14
3470.0 13 8 15 25 32 33 37 50 58 69
3510.0 80 85 96 111 128 145 178 238 335 503
3550.0 777 1133 1480 1782 2034 2215 2322 2458 2756 3192
3590.0 3598 3835 3856 3615 3098 2412 1766 1265 921 726
3630.0 647 721 945 1231 1417 1415 1373 1238 909 535
3670.0 294 175 112 84 76 66 61 60 49 47
3710.0 44 31 33 37 30 22 14 9 10 16
3750.0 15 7 10 13 11 11 12 13 9 7
3790.0 6 18 28 12 8 19 26 31 34 41
3830.0 44 44 51 50 56
##END=
