##TITLE=Cyclodecane
##JCAMP-DX=4.24
##DATA TYPE=INFRARED SPECTRUM
##ORIGIN=NIST Mass Spectrometry Data Center
##OWNER=NIST Standard Reference Data Program
Collection (C) 2018 copyright by the U.S. Secretary of Commerce
on behalf of the United States of America. All rights reserved.
##CAS REGISTRY NO=293-96-9
##MOLFORM=C 10 H 20
##$NIST SOURCE=MSDC-IR
##SPECTROMETER/DATA SYSTEM=HP-GC/MS/IRD
##STATE=gas
##XUNITS=1/CM
##YUNITS=ABSORBANCE
##XFACTOR=1.0
##YFACTOR=0.000004700
##DELTAX=4.0
##FIRSTX=550.0
##LASTX=3846.0
##FIRSTY=0.000094
##MAXX=3846
##MINX=550
##MAXY=0.047
##MINY=0
##NPOINTS=825
##XYDATA=(X++(Y..Y))
550.0 20 17 6 2 16 32 21 6 14 6
590.0 22 24 15 28 32 37 30 24 30 29
630.0 27 38 35 38 47 45 51 43 42 52
670.0 60 79 93 111 124 123 133 151 167 179
710.0 197 222 240 256 254 227 191 157 128 121
750.0 121 114 111 114 123 129 128 122 121 109
790.0 91 77 65 57 50 54 60 60 52 47
830.0 59 59 58 56 51 57 56 46 49 58
870.0 63 66 57 46 49 51 45 45 45 44
910.0 45 46 53 62 62 62 61 52 43 49
950.0 58 53 50 52 54 51 48 51 58 62
990.0 61 63 70 76 79 78 75 72 58 53
1030.0 61 51 39 40 43 40 38 42 44 52
1070.0 66 67 67 68 72 73 68 67 63 54
1110.0 52 48 45 44 45 41 37 39 36 37
1150.0 45 45 44 46 42 41 39 36 40 42
1190.0 44 44 43 41 43 44 45 45 47 58
1230.0 62 66 69 68 68 71 73 76 72 72
1270.0 84 93 101 106 108 109 107 100 96 98
1310.0 101 113 127 138 150 165 180 197 219 239
1350.0 247 241 224 189 143 107 80 63 57 57
1390.0 54 53 61 65 66 75 87 99 115 149
1430.0 211 314 466 637 787 872 878 830 745 677
1470.0 664 689 739 773 689 538 409 297 195 128
1510.0 94 76 63 54 50 49 44 41 42 39
1550.0 37 38 35 32 31 34 35 35 31 27
1590.0 27 23 21 22 23 26 24 21 20 19
1630.0 21 26 26 24 22 20 18 23 22 20
1670.0 20 20 20 20 23 22 17 16 19 19
1710.0 18 14 13 16 18 17 16 17 13 12
1750.0 12 12 14 15 16 14 13 13 14 16
1790.0 14 16 15 14 14 13 13 11 13 14
1830.0 13 12 11 11 10 12 12 11 10 10
1870.0 10 13 13 9 8 8 9 5 5 11
1910.0 12 9 7 9 13 16 14 13 13 12
1950.0 12 14 10 11 15 13 12 13 15 13
1990.0 10 13 12 8 8 11 13 14 11 13
2030.0 15 15 14 12 11 9 11 10 6 8
2070.0 9 8 7 8 7 9 11 12 12 11
2110.0 13 13 12 13 12 14 13 12 15 14
2150.0 15 20 20 17 14 12 15 16 14 16
2190.0 16 14 14 16 19 20 18 14 12 11
2230.0 13 15 18 18 13 14 15 13 12 15
2270.0 10 8 13 14 14 17 17 14 12 12
2310.0 13 14 16 16 15 12 8 13 14 11
2350.0 10 12 13 12 10 11 12 5 1 1
2390.0 3 5 3 4 8 7 5 7 8 10
2430.0 12 10 15 18 17 15 14 13 13 11
2470.0 10 9 10 12 15 17 16 16 18 15
2510.0 17 25 27 28 31 33 35 33 32 35
2550.0 36 38 35 39 44 42 43 46 46 43
2590.0 45 46 45 43 43 45 47 48 56 60
2630.0 63 72 77 84 91 99 107 108 118 133
2670.0 144 157 171 184 190 189 185 175 165 152
2710.0 136 126 117 109 107 104 101 101 101 105
2750.0 109 110 110 115 121 123 136 155 169 185
2790.0 206 223 237 255 277 296 316 335 356 391
2830.0 458 577 805 1186 1669 2152 2551 2833 2979 3021
2870.0 3066 3143 3170 3133 3137 3279 3594 4076 4806 5681
2910.0 6318 6921 7806 8695 9476 10000 9957 9280 8129 6699
2950.0 5226 3999 3163 2638 2297 2069 1898 1762 1642 1500
2990.0 1325 1137 929 743 591 463 364 299 251 217
3030.0 191 174 157 141 136 131 121 108 100 100
3070.0 99 90 80 76 75 76 73 70 69 66
3110.0 63 59 56 55 59 54 50 45 43 46
3150.0 43 45 45 40 37 40 41 40 44 44
3190.0 42 43 40 42 46 43 39 42 39 38
3230.0 41 38 33 34 32 30 35 37 37 35
3270.0 31 26 27 26 25 24 21 22 25 20
3310.0 17 22 22 19 17 12 13 18 19 17
3350.0 19 18 16 19 18 17 18 19 22 25
3390.0 22 16 16 18 16 15 15 18 18 16
3430.0 19 17 16 13 11 11 14 9 6 10
3470.0 11 7 4 3 3 0 1 4 2 6
3510.0 6 0 0 0 9 11 6 5 5 8
3550.0 8 5 8 12 11 7 11 18 17 18
3590.0 24 23 17 15 17 20 17 17 16 9
3630.0 2 8 15 18 14 12 12 12 17 21
3670.0 22 16 11 12 17 19 16 14 16 21
3710.0 19 16 19 18 12 11 11 15 11 10
3750.0 9 8 12 9 14 20 14 17 28 25
3790.0 18 19 19 19 18 19 20 23 22 21
3830.0 21 20 19 16 14
##END=
