##TITLE=p-Propylacetophenone
##JCAMP-DX=4.24
##DATA TYPE=INFRARED SPECTRUM
##ORIGIN=EPA-IR VAPOR PHASE LIBRARY
##OWNER=SRD/NIST
Collection (C) 2018 copyright by the U.S. Secretary of Commerce
on behalf of the United States of America. All rights reserved.
##CAS REGISTRY NO=2932-65-2
##MOLFORM=C 11 H 14 O
##$NIST SOURCE=MSDC-IR
##STATE=gas
##XUNITS=1/CM
##YUNITS=ABSORBANCE
##XFACTOR=1.
##YFACTOR=0.001
##DELTAX=1.92898
##FIRSTX=549.8
##LASTX=4000.7
##FIRSTY=1.961
##MAXX=4000.7
##MINX=549.759
##MAXY=0.075151
##MINY=0
##NPOINTS=1790
##XYDATA=(X++(Y..Y))
549.759 1.961 1.761 1.401 1.731 2.151 2.621 3.511 4.281 4.771 5.881
569.049 6.961 7.581 8.531 9.101 9.441 9.911 10.171 10.391 10.301 10.441
588.339 10.641 10.111 9.481 9.421 9.211 8.221 7.241 6.541 5.631 4.961
607.628 4.511 3.821 3.211 2.731 2.211 2.001 1.811 1.511 1.451 1.271
626.918 1.1632 1.311 1.321 1.251 1.281 1.124 1.1396 1.481 1.601 1.831
646.208 2.081 2.171 2.221 2.441 2.711 2.641 2.481 2.461 2.351 2.271
665.498 2.131 1.931 2.001 1.981 1.971 1.951 1.911 1.991 1.971 2.101
684.787 2.151 2.291 2.411 2.021 1.761 1.511 1.261 1.361 1.261 1.0354
704.077 0.9666 0.702 0.6482 0.7417 0.5967 0.59 0.5951 0.6172 0.8445 0.8314
723.367 0.6351 0.7523 0.923 0.9115 0.8808 0.9906 1.0324 0.8792 0.9595 1.0165
742.657 0.9148 1.0141 1.0714 0.9681 0.9833 1.0243 0.9044 0.8364 1.2091 1.501
761.947 1.311 1.331 1.631 1.801 2.011 2.111 2.161 2.171 2.121 2.301
781.236 2.541 2.861 3.481 4.081 4.581 5.121 5.751 6.741 7.471 8.021
800.526 8.521 8.901 9.251 9.241 9.031 8.701 8.341 8.021 7.571 7.121
819.816 6.721 6.081 5.741 5.771 5.651 5.581 5.771 6.001 6.151 6.291
839.106 6.421 6.531 6.521 6.491 6.451 6.041 5.631 5.261 4.901 4.611
858.395 4.241 3.921 3.571 3.191 2.761 2.451 2.231 2.021 2.081 1.991
877.685 1.801 1.771 1.741 1.691 1.591 1.581 1.531 1.541 1.581 1.351
896.975 1.331 1.441 1.231 1.1963 1.391 1.361 1.251 1.241 1.251 1.1987
916.265 1.231 1.371 1.341 1.301 1.461 1.541 1.781 2.191 2.431 2.821
935.555 3.441 3.961 4.771 5.991 7.441 9.021 10.401 11.321 11.851 11.951
954.844 11.571 10.991 9.901 8.401 6.881 5.681 4.931 4.221 3.621 3.221
974.134 2.851 2.441 2.291 2.291 2.111 2.051 2.201 2.241 2.031 2.041
993.424 2.071 1.971 2.131 2.481 2.661 2.891 3.271 3.901 4.751 5.521
1012.714 5.801 5.711 5.491 5.361 5.371 4.901 3.841 2.851 2.251 2.011
1032.003 2.071 2.101 2.051 1.981 1.691 1.551 1.821 1.911 1.961 1.891
1051.293 1.541 1.641 2.011 2.121 2.291 2.721 3.091 3.001 3.141 3.631
1070.583 4.001 4.051 4.071 3.821 3.371 3.591 3.301 3.051 3.361 3.351
1089.873 3.251 3.011 2.841 2.331 1.911 2.201 2.441 2.231 2.051 2.231
1109.163 2.271 2.431 2.511 2.871 3.321 2.961 2.391 2.621 2.721 2.651
1128.452 3.061 2.501 2.091 2.181 2.161 2.081 1.831 1.731 1.871 1.611
1147.742 1.501 1.571 1.521 1.691 1.911 2.071 2.111 2.231 2.501 3.031
1167.032 3.361 3.551 4.071 5.381 7.341 9.621 11.931 13.461 14.011 14.381
1186.322 14.271 13.321 11.501 9.221 7.561 6.301 5.861 5.771 5.461 5.271
1205.611 4.701 4.461 4.511 4.661 5.171 5.791 6.181 6.761 7.791 9.111
1224.901 10.611 11.751 12.761 13.881 14.591 15.101 15.871 16.521 17.401 18.781
1244.191 20.751 23.731 28.231 34.461 42.211 50.971 59.431 66.181 70.351 71.681
1263.481 70.051 64.571 55.851 45.171 34.521 26.431 20.651 16.501 13.941 12.181
1282.771 10.951 10.191 9.631 9.141 8.631 8.201 7.771 7.291 6.921 6.591
1302.060 6.221 5.831 5.481 5.111 4.721 4.361 4.091 3.791 3.571 3.451
1321.350 3.411 3.391 3.481 3.741 4.011 4.401 4.821 5.381 6.051 6.681
1340.640 7.421 8.231 9.081 10.161 11.701 13.761 16.161 18.691 20.981 22.571
1359.930 23.301 23.201 22.261 20.381 17.731 14.871 12.371 10.451 9.001 8.061
1379.219 7.531 7.151 6.911 6.841 6.801 6.721 6.731 6.841 6.961 7.181
1398.509 7.581 8.101 8.641 9.241 9.881 10.391 10.671 10.761 10.611 10.291
1417.799 9.791 9.051 8.381 7.801 7.271 6.921 6.661 6.431 6.281 6.171
1437.089 6.021 5.991 5.931 5.811 5.771 5.741 5.781 5.771 5.761 5.771
1456.378 5.751 5.811 5.701 5.641 5.541 5.301 5.121 4.861 4.631 4.331
1475.668 3.971 3.741 3.511 3.341 3.201 2.951 2.801 2.731 2.611 2.451
1494.958 2.371 2.341 2.291 2.211 2.181 2.151 2.091 2.131 2.101 2.051
1514.248 2.061 2.041 2.061 2.101 2.091 2.101 2.081 2.051 2.161 2.251
1533.538 2.181 2.151 2.221 2.251 2.251 2.181 2.201 2.401 2.521 2.681
1552.827 2.751 2.931 3.191 3.531 3.941 4.291 4.651 4.931 5.051 5.091
1572.117 5.101 4.981 4.691 4.501 4.501 4.531 4.731 5.181 5.851 6.841
1591.407 8.101 9.551 11.271 13.301 15.591 17.901 19.851 21.191 21.741 21.371
1610.697 20.241 18.441 16.041 13.411 10.931 8.881 7.281 6.031 5.281 4.861
1629.986 4.461 4.151 3.921 3.751 3.691 3.701 3.791 3.781 3.821 3.931
1649.276 4.081 4.201 4.281 4.451 4.731 5.031 5.211 5.351 5.611 6.021
1668.566 6.431 6.771 7.251 8.031 9.111 10.281 11.971 14.221 17.171 21.031
1687.856 25.821 32.031 39.771 48.601 58.441 67.261 72.571 75.131 75.151 72.821
1707.146 66.991 57.601 46.611 36.681 28.791 22.801 18.061 14.561 11.901 9.901
1726.435 8.471 7.421 6.611 5.971 5.441 5.081 4.781 4.511 4.311 4.091
1745.725 3.881 3.791 3.741 3.641 3.441 3.181 3.001 2.861 2.641 2.411
1765.015 2.201 2.011 1.891 1.711 1.481 1.331 1.311 1.331 1.331 1.311
1784.305 1.301 1.291 1.291 1.281 1.331 1.361 1.391 1.421 1.461 1.471
1803.594 1.421 1.401 1.361 1.241 1.1541 1.0838 0.9875 0.8922 0.8555 0.8275
1822.884 0.8023 0.8134 0.7938 0.7733 0.7577 0.7893 0.8349 0.7695 0.6982 0.7078
1842.174 0.6751 0.6473 0.7199 0.7628 0.7512 0.7425 0.7977 0.7954 0.7354 0.6892
1861.464 0.7004 0.7681 0.7715 0.7223 0.7909 0.844 0.8287 0.8818 0.9066 0.9513
1880.754 1.0379 1.0674 1.0797 1.1201 1.1753 1.1975 1.1928 1.209 1.2137 1.311
1900.043 1.371 1.341 1.371 1.431 1.411 1.391 1.431 1.431 1.371 1.321
1919.333 1.341 1.341 1.321 1.301 1.291 1.301 1.251 1.1724 1.1694 1.123
1938.623 1.0363 1.0801 1.0672 1.0765 1.084 0.9716 0.8495 0.8327 0.8955 0.8709
1957.913 0.8142 0.6842 0.6508 0.6495 0.613 0.6438 0.6511 0.5793 0.5131 0.5151
1977.202 0.4737 0.485 0.4927 0.4956 0.5132 0.5315 0.5748 0.5888 0.5095 0.4977
1996.492 0.6016 0.584 0.5351 0.5125 0.5225 0.5574 0.5562 0.5741 0.5504 0.5601
2015.782 0.6345 0.6035 0.5893 0.6157 0.6087 0.629 0.6719 0.6819 0.7089 0.68
2035.072 0.6259 0.6371 0.5892 0.6132 0.6453 0.6038 0.5311 0.4965 0.5637 0.4961
2054.362 0.4259 0.4613 0.4594 0.4657 0.4644 0.4967 0.5099 0.5112 0.512 0.4867
2073.651 0.5498 0.5277 0.451 0.4463 0.4246 0.414 0.4219 0.4377 0.4659 0.4263
2092.941 0.4088 0.4925 0.515 0.4782 0.4754 0.4626 0.4394 0.4715 0.4864 0.4591
2112.231 0.5042 0.4991 0.4013 0.3581 0.3746 0.3917 0.3968 0.4101 0.3898 0.3741
2131.521 0.3592 0.3833 0.3744 0.3696 0.4133 0.4201 0.3981 0.3725 0.4199 0.439
2150.810 0.4304 0.4689 0.4569 0.4568 0.489 0.4559 0.4374 0.4278 0.4131 0.4362
2170.100 0.4689 0.4701 0.4707 0.5011 0.4318 0.4075 0.4866 0.4456 0.4161 0.4376
2189.390 0.4416 0.4904 0.5483 0.5754 0.543 0.4814 0.4416 0.4462 0.4577 0.4586
2208.680 0.4535 0.4627 0.4211 0.4032 0.5008 0.482 0.4328 0.4533 0.4377 0.344
2227.970 0.3398 0.4074 0.3962 0.4163 0.4258 0.3836 0.3473 0.397 0.4427 0.4829
2247.259 0.4822 0.4034 0.4046 0.4184 0.4219 0.4159 0.4 0.4357 0.4647 0.388
2266.549 0.30407 0.3851 0.5229 0.5001 0.5162 0.4687 0.4435 0.4523 0.4244 0.4917
2285.839 0.4787 0.474 0.5077 0.5678 0.5933 0.6149 0.6757 0.6922 0.6357 0.6594
2305.129 0.7151 0.7396 0.7197 0.6543 0.7146 0.7027 0.6839 0.7649 0.7295 0.6572
2324.418 0.6694 0.6849 0.6104 0.5558 0.5884 0.6587 0.6144 0.4841 0.4913 0.5372
2343.708 0.5135 0.4844 0.5058 0.5449 0.5575 0.4794 0.4717 0.5557 0.5163 0.4932
2362.998 0.5326 0.4936 0.3726 0.3954 0.5127 0.543 0.5365 0.5946 0.652 0.5955
2382.288 0.4312 0.3993 0.4959 0.5279 0.5771 0.5247 0.5046 0.5188 0.4799 0.5267
2401.578 0.5197 0.493 0.5585 0.6276 0.6602 0.6392 0.5692 0.5699 0.5789 0.5461
2420.867 0.5256 0.5296 0.5418 0.5741 0.5869 0.539 0.5459 0.5772 0.5734 0.5638
2440.157 0.5688 0.5378 0.4951 0.5024 0.4946 0.5117 0.4626 0.3806 0.4681 0.4891
2459.447 0.4193 0.4038 0.4497 0.5168 0.5837 0.5708 0.4655 0.4495 0.4226 0.4057
2478.737 0.4354 0.5501 0.5681 0.4752 0.5019 0.5037 0.5279 0.5768 0.5663 0.5734
2498.026 0.5826 0.5444 0.5866 0.629 0.6348 0.6903 0.6939 0.7062 0.6965 0.6706
2517.316 0.7072 0.7115 0.7096 0.7386 0.7758 0.727 0.6773 0.6474 0.5874 0.6391
2536.606 0.5828 0.5549 0.6535 0.5863 0.4923 0.4838 0.5482 0.6821 0.6873 0.5725
2555.896 0.5559 0.5414 0.5717 0.6166 0.6429 0.7207 0.7441 0.7072 0.6039 0.5492
2575.186 0.6141 0.5465 0.5163 0.5991 0.6644 0.7094 0.6728 0.6373 0.6411 0.6324
2594.475 0.5795 0.6171 0.6292 0.574 0.6168 0.6127 0.5173 0.6281 0.6763 0.6207
2613.765 0.5767 0.6607 0.8588 0.831 0.7819 0.7576 0.6368 0.6112 0.7354 0.724
2633.055 0.5712 0.6623 0.7153 0.7128 0.7995 0.8033 0.7773 0.7234 0.7666 0.7579
2652.345 0.7177 0.6552 0.6118 0.6974 0.7036 0.6369 0.6252 0.6308 0.6077 0.6311
2671.634 0.6779 0.6134 0.6581 0.7957 0.7755 0.6832 0.7076 0.7158 0.6634 0.5897
2690.924 0.5557 0.6449 0.5955 0.5045 0.6252 0.7915 0.7116 0.605 0.5636 0.5212
2710.214 0.6293 0.6122 0.5533 0.6393 0.7213 0.8295 0.8545 0.7116 0.6045 0.5684
2729.504 0.6553 0.7487 0.7103 0.7096 0.7486 0.8153 0.8993 0.8896 0.8201 0.8991
2748.794 1.0209 0.9551 0.8843 0.8863 0.8865 0.8576 0.8202 0.9176 1.0416 0.9925
2768.083 0.9616 1 0.9265 0.9444 0.9858 0.9201 1.0202 1.1041 1.0745 1.072
2787.373 1.0642 1.1062 1.0925 1.0623 1.1272 1.241 1.311 1.351 1.311 1.281
2806.663 1.361 1.471 1.511 1.571 1.661 1.711 1.741 1.751 1.871 1.941
2825.953 1.961 2.041 2.201 2.411 2.581 2.681 2.791 2.971 3.241 3.581
2845.242 3.851 4.061 4.401 4.831 5.261 5.861 6.551 7.071 7.601 8.121
2864.532 8.621 9.291 10.021 10.701 11.451 12.311 13.181 13.821 14.321 14.671
2883.822 14.561 14.201 13.671 12.821 11.791 10.821 10.191 9.801 9.461 9.301
2903.112 9.301 9.511 9.971 10.381 10.821 11.531 12.311 13.141 14.101 15.201
2922.401 16.631 18.221 19.901 21.741 23.491 25.231 26.871 28.331 29.481 29.961
2941.691 29.721 28.881 27.671 26.291 24.861 23.471 22.391 21.651 21.351 21.651
2960.981 22.281 23.201 24.341 25.741 27.211 28.111 28.111 27.371 26.111 24.341
2980.271 22.071 19.331 16.561 14.161 12.371 11.221 10.211 9.481 8.911 8.501
2999.561 8.491 8.371 8.251 8.321 8.251 8.281 8.381 8.271 8.341 8.311
3018.850 8.211 8.261 8.321 8.561 9.091 9.671 9.911 10.111 10.201 10.051
3038.140 9.741 9.221 8.491 7.781 7.201 6.751 6.471 6.281 6.011 5.741
3057.430 5.581 5.511 5.401 5.271 5.361 5.431 5.411 5.381 5.391 5.491
3076.720 5.451 5.401 5.381 5.511 5.551 5.371 5.201 5.171 5.121 4.791
3096.009 4.351 3.981 3.721 3.391 2.981 2.871 2.961 2.871 2.641 2.581
3115.299 2.491 2.341 2.231 2.021 1.911 1.831 1.811 1.681 1.431 1.411
3134.589 1.271 1.1067 1.1733 1.1814 1.0793 1.0654 1.0836 1.0913 1.0717 0.9412
3153.879 0.9219 0.8571 0.7704 0.8305 0.8506 0.8564 0.8705 0.8953 0.8606 0.7893
3173.169 0.753 0.7595 0.8394 0.7189 0.5399 0.5642 0.6651 0.6973 0.7561 0.8899
3192.458 0.9298 0.8716 0.7402 0.6916 0.7437 0.7396 0.757 0.8896 0.7829 0.5691
3211.748 0.6482 0.6385 0.6027 0.5135 0.4385 0.6264 0.6617 0.5582 0.5389 0.4917
3231.038 0.5183 0.5908 0.5223 0.5175 0.4924 0.439 0.353 0.29698 0.4137 0.416
3250.328 0.4856 0.5536 0.31978 0.1777 0.097 0.24986 0.4433 0.4164 0.4345 0.4663
3269.617 0.5011 0.4462 0.3927 0.222306 0.083 0.25448 0.3403 0.30706 0.3609 0.36
3288.907 0.4065 0.5604 0.5306 0.3429 0.229302 0.23997 0.3756 0.3339 0.3464 0.4699
3308.197 0.3934 0.3268 0.4664 0.6001 0.5423 0.4673 0.6569 0.6551 0.3653 0.30301
3327.487 0.3635 0.3912 0.3729 0.3475 0.3738 0.31808 0.26627 0.3341 0.431 0.5617
3346.777 0.5959 0.6002 0.5784 0.5901 0.5516 0.5125 0.5273 0.4682 0.5452 0.5996
3366.066 0.6884 0.8961 1.138 1.1882 1.2105 1.351 1.511 1.681 1.631 1.611
3385.356 1.671 1.661 1.611 1.631 1.631 1.291 1.0982 1.0813 1.0381 1.0727
3404.646 1.008 0.6768 0.4863 0.513 0.4748 0.5532 0.5657 0.5785 0.5061 0.5024
3423.936 0.5158 0.4368 0.3924 0.4234 0.5144 0.5017 0.4262 0.4863 0.5995 0.4688
3443.225 0.26427 0.26853 0.4647 0.6742 0.6277 0.6164 0.546 0.27419 0.3287 0.5209
3462.515 0.558 0.5715 0.5711 0.3658 0.2065 0.21943 0.21107 0.226115 0.26397 0.374
3481.805 0.28363 0.126 0.144 0.112 0.25268 0.4263 0.3319 0.2865 0.25987 0.1601
3501.095 0.1844 0.348 0.3649 0.358 0.21609 0.1225 0.31128 0.4348 0.4565 0.3378
3520.385 0.25921 0.1764 0.30756 0.5662 0.4125 0.29344 0.28756 0.067 0.103 0.3293
3539.674 0.3336 0.28781 0.3745 0.3416 0.29358 0.3923 0.4967 0.4034 0.25988 0.28963
3558.964 0.4096 0.5474 0.3281 0.1844 0.29896 0.3405 0.4236 0.4428 0.356 0.3457
3578.254 0.4419 0.408 0.3604 0.26422 0.1898 0.4648 0.5929 0.4803 0.4562 0.3405
3597.544 0.4048 0.5073 0.27297 0.31018 0.4992 0.5386 0.5522 0.426 0.27284 0.1937
3616.833 0.220016 0.3229 0.3362 0.2012 0.3747 0.4789 0.25687 0.1735 0.2032 0.21704
3636.123 0.049 0 0.1938 0.3652 0.3382 0.31477 0.3869 0.4053 0.324 0.3977
3655.413 0.486 0.4136 0.4132 0.4113 0.4056 0.4322 0.444 0.388 0.3832 0.3623
3674.703 0.3612 0.5027 0.6556 0.5635 0.3916 0.4545 0.573 0.5302 0.4349 0.4244
3693.993 0.4136 0.361 0.3701 0.5249 0.5377 0.3948 0.3372 0.3497 0.3471 0.3229
3713.282 0.28504 0.3587 0.4467 0.3754 0.3456 0.3548 0.3939 0.4118 0.4392 0.4796
3732.572 0.376 0.3856 0.3518 0.29419 0.3153 0.1913 0.118 0.2328 0.19 0.102
3751.862 0.4125 0.4849 0.3498 0.4187 0.2076 0.1724 0.3655 0.3337 0.3861 0.3687
3771.152 0.28637 0.3966 0.4139 0.223112 0.23605 0.3809 0.4096 0.30553 0.28141 0.5371
3790.441 0.5428 0.3336 0.386 0.4771 0.5236 0.438 0.3396 0.351 0.26002 0.1709
3809.731 0.1289 0.048 0.089 0.229228 0.26063 0.325 0.3696 0.4889 0.5418 0.30471
3829.021 0.2029 0.3371 0.4846 0.3519 0.23761 0.3951 0.4004 0.31168 0.227126 0.227806
3848.311 0.25524 0.3588 0.3998 0.28235 0.2078 0.26921 0.3407 0.28195 0.30073 0.3381
3867.601 0.3767 0.5241 0.5314 0.3666 0.25841 0.26539 0.3379 0.4802 0.5406 0.4079
3886.890 0.3776 0.21934 0.25193 0.4225 0.2893 0.1211 0.25343 0.3764 0.25057 0.30489
3906.180 0.3577 0.3284 0.4478 0.4812 0.3658 0.3838 0.3712 0.3435 0.4503 0.598
3925.470 0.5173 0.4157 0.3662 0.3618 0.4561 0.5171 0.5637 0.5317 0.4552 0.3601
3944.760 0.3506 0.3878 0.4711 0.4709 0.4733 0.5219 0.5003 0.5499 0.5206 0.5075
3964.049 0.4498 0.3997 0.3642 0.3786 0.4648 0.3741 0.344 0.3714 0.4855 0.5392
3983.339 0.4688 0.5737 0.7585 0.6339 0.3967 0.4055 0.3954 0.3879 0.4646 0.7164
##END=
