##TITLE=12-Crown-4
##JCAMP-DX=4.24
##DATA TYPE=INFRARED SPECTRUM
##ORIGIN=NIST Mass Spectrometry Data Center
##OWNER=NIST Standard Reference Data Program
Collection (C) 2018 copyright by the U.S. Secretary of Commerce
on behalf of the United States of America. All rights reserved.
##CAS REGISTRY NO=294-93-9
##MOLFORM=C 8 H 16 O 4
##$NIST SOURCE=MSDC-IR
##SPECTROMETER/DATA SYSTEM=HP-GC/MS/IRD
##STATE=gas
##XUNITS=1/CM
##YUNITS=ABSORBANCE
##XFACTOR=1.0
##YFACTOR=0.000004900
##DELTAX=4.0
##FIRSTX=550.0
##LASTX=3846.0
##FIRSTY=0.000916
##MAXX=3846
##MINX=550
##MAXY=0.049
##MINY=0
##NPOINTS=825
##XYDATA=(X++(Y..Y))
550.0 187 245 163 143 124 110 89 80 73 74
590.0 73 65 66 55 32 28 37 41 32 20
630.0 17 15 21 29 26 20 19 19 26 21
670.0 9 4 6 11 13 4 2 0 3 9
710.0 2 1 0 7 16 24 19 19 29 37
750.0 40 43 52 58 68 89 109 117 135 149
790.0 150 158 162 181 202 217 243 271 299 348
830.0 415 481 570 667 729 736 699 628 541 458
870.0 394 355 352 367 413 508 630 808 1072 1369
910.0 1650 1871 1991 1994 1886 1712 1499 1259 1036 852
950.0 733 681 669 691 729 740 710 645 566 495
990.0 463 465 480 520 590 697 810 937 1084 1216
1030.0 1322 1385 1403 1396 1388 1396 1446 1545 1673 1814
1070.0 1930 1984 1999 2043 2165 2397 2734 3112 3431 3687
1110.0 3976 4386 5030 5981 7164 8378 9382 9970 10000 9478
1150.0 8612 7588 6516 5490 4533 3651 2856 2176 1649 1271
1190.0 1011 831 710 622 559 509 472 462 462 493
1230.0 556 647 772 911 1031 1113 1148 1138 1106 1075
1270.0 1066 1103 1201 1345 1506 1632 1674 1623 1486 1300
1310.0 1090 891 740 629 565 548 582 675 839 1089
1350.0 1429 1774 1963 1929 1683 1271 851 579 446 388
1390.0 363 350 344 328 301 273 239 209 198 197
1430.0 213 260 343 464 609 748 864 917 908 854
1470.0 754 611 467 344 250 183 138 107 83 69
1510.0 61 54 46 43 42 38 34 29 27 25
1550.0 23 22 23 22 19 19 14 8 6 7
1590.0 8 9 9 7 6 7 6 3 5 7
1630.0 10 11 6 2 3 7 6 3 9 12
1670.0 15 11 8 10 9 9 11 17 19 17
1710.0 18 21 24 26 28 25 28 33 36 41
1750.0 46 45 37 27 22 16 15 10 7 7
1790.0 7 3 3 4 6 5 3 1 0 2
1830.0 7 5 6 11 9 10 13 16 19 19
1870.0 20 30 36 44 53 57 59 63 68 75
1910.0 89 101 110 124 138 148 157 162 165 170
1950.0 170 158 152 144 130 118 108 98 88 75
1990.0 68 64 56 47 45 39 34 31 23 24
2030.0 26 24 21 18 21 26 27 28 28 27
2070.0 26 26 27 27 25 28 33 29 25 27
2110.0 28 25 23 26 29 30 26 29 31 36
2150.0 40 36 41 46 49 47 47 46 44 43
2190.0 37 31 27 25 24 22 20 18 20 17
2230.0 16 18 18 19 19 19 17 15 16 21
2270.0 19 14 16 17 19 21 20 20 18 17
2310.0 17 16 14 13 12 13 11 3 3 6
2350.0 7 8 7 5 5 4 4 7 11 9
2390.0 11 11 6 10 12 12 10 9 10 7
2430.0 9 13 10 6 11 11 4 0 3 4
2470.0 6 11 15 15 11 9 12 14 15 19
2510.0 21 19 17 19 17 17 16 8 18 25
2550.0 23 21 24 28 29 31 35 40 42 41
2590.0 40 44 47 51 54 59 61 65 71 73
2630.0 70 70 77 78 80 89 96 103 114 122
2670.0 130 149 163 193 235 273 311 349 383 400
2710.0 410 411 414 429 461 490 514 528 524 517
2750.0 522 530 542 555 579 614 644 675 701 713
2790.0 731 752 769 793 842 900 970 1080 1233 1440
2830.0 1731 2142 2700 3433 4359 5410 6407 7119 7385 7159
2870.0 6532 5729 4997 4516 4339 4407 4615 4848 5025 5108
2910.0 5101 5043 4961 4892 4855 4837 4793 4676 4461 4174
2950.0 3861 3568 3294 2983 2568 2041 1519 1100 797 597
2990.0 472 391 320 264 229 192 164 146 127 120
3030.0 115 102 88 83 73 65 61 61 65 55
3070.0 53 53 46 39 34 36 42 50 41 32
3110.0 35 34 31 26 31 38 35 36 34 26
3150.0 25 20 24 31 28 28 28 29 36 35
3190.0 33 37 42 44 48 45 29 24 34 39
3230.0 44 35 25 25 24 21 20 26 25 21
3270.0 26 25 24 26 27 29 33 27 28 25
3310.0 14 26 26 16 16 18 6 5 14 18
3350.0 11 7 3 1 11 17 16 15 14 14
3390.0 14 16 16 12 12 11 7 10 26 25
3430.0 18 23 22 16 17 13 7 8 14 14
3470.0 9 12 11 19 17 9 12 9 15 19
3510.0 16 16 21 15 11 4 5 10 8 2
3550.0 8 9 0 1 13 20 16 11 16 17
3590.0 5 6 12 13 16 14 10 12 12 16
3630.0 16 13 24 30 20 21 30 31 27 23
3670.0 27 35 42 42 26 19 17 24 30 32
3710.0 40 46 45 33 29 31 42 42 42 42
3750.0 41 47 45 46 41 40 38 28 32 41
3790.0 48 49 43 39 38 39 38 41 44 48
3830.0 50 40 38 38 37
##END=
