##TITLE=2-Bromobenzhydrazide
##JCAMP-DX=4.24
##DATA TYPE=INFRARED SPECTRUM
##ORIGIN=EPA-IR VAPOR PHASE LIBRARY
##OWNER=SRD/NIST
Collection (C) 2018 copyright by the U.S. Secretary of Commerce
on behalf of the United States of America. All rights reserved.
##CAS REGISTRY NO=29418-67-5
##MOLFORM=C 7 H 7 Br N 2 O
##$NIST SOURCE=MSDC-IR
##STATE=gas
##XUNITS=1/CM
##YUNITS=ABSORBANCE
##XFACTOR=1.
##YFACTOR=0.001
##DELTAX=1.929
##FIRSTX=549.8
##LASTX=4000.8
##FIRSTY=6.464
##MAXX=4000.75
##MINX=549.766
##MAXY=0.077524
##MINY=0
##NPOINTS=1790
##XYDATA=(X++(Y..Y))
549.766 6.464 5.834 5.214 5.404 5.384 5.124 4.544 4.704 4.954 5.084
569.056 5.074 5.024 5.014 4.854 4.914 5.094 5.014 4.614 4.764 5.094
588.346 5.064 4.994 4.724 4.524 4.654 4.684 4.694 4.864 4.674 4.484
607.636 4.394 4.454 4.634 4.534 4.374 4.374 4.334 4.204 4.084 4.054
626.926 4.194 4.314 4.394 4.564 5.044 6.004 6.874 7.534 7.924 7.974
646.216 8.294 8.524 8.424 7.864 6.884 6.024 5.434 4.894 4.784 4.914
665.506 4.854 4.654 4.624 4.674 4.604 4.674 4.704 4.784 5.044 5.474
684.796 6.004 6.554 6.994 7.604 8.474 9.104 9.444 9.794 10.064 10.204
704.086 10.004 9.644 9.334 8.794 8.384 8.224 7.844 7.674 7.934 8.374
723.376 9.214 10.494 12.334 14.544 17.074 19.864 23.034 26.544 29.954 32.834
742.666 34.324 33.564 31.194 28.744 26.654 24.564 22.224 19.874 17.644 15.694
761.956 14.374 13.354 12.274 11.154 10.144 9.394 8.464 7.494 6.664 5.954
781.246 5.424 4.844 4.474 4.214 3.974 3.884 3.764 3.634 3.684 3.794
800.536 3.914 3.974 3.754 3.734 3.814 3.934 4.134 3.984 3.884 3.894
819.826 4.024 4.164 4.254 4.284 4.334 4.494 4.574 4.684 4.764 4.824
839.116 4.974 5.024 5.004 5.234 5.464 5.504 5.504 5.594 5.744 5.834
858.406 5.844 5.844 5.814 5.634 5.534 5.474 5.294 5.244 5.164 5.144
877.696 5.164 5.184 5.314 5.484 5.654 5.854 6.324 6.824 7.304 7.974
896.986 8.654 9.324 10.164 11.084 12.024 13.074 14.264 15.574 17.084 18.804
916.276 20.674 22.734 24.954 27.424 29.944 32.234 34.214 35.644 36.404 36.414
935.566 35.524 33.934 31.774 29.074 26.074 22.884 19.994 17.454 15.094 13.154
954.856 11.584 10.194 9.004 8.034 7.274 6.604 5.984 5.554 5.264 5.004
974.146 4.754 4.474 4.284 4.234 4.114 4.024 3.984 3.904 3.884 3.904
993.436 3.894 3.994 4.224 4.464 4.684 4.884 5.304 5.884 6.514 7.304
1012.726 8.274 9.654 11.424 13.454 15.584 17.644 19.354 20.384 20.914 21.064
1032.016 20.874 20.214 18.914 17.044 14.954 13.194 11.654 10.324 9.104 7.744
1051.306 6.454 5.664 5.004 4.314 3.934 3.724 3.554 3.494 3.464 3.344
1070.596 3.304 3.304 3.334 3.304 3.234 3.144 3.124 3.164 3.194 3.154
1089.886 3.084 3.024 3.024 3.044 3.004 2.914 2.934 3.044 2.904 2.904
1109.176 3.104 3.124 3.054 3.064 3.194 3.224 3.084 2.934 2.734 2.584
1128.467 2.454 2.214 2.274 2.224 1.894 1.5976 1.3688 1.273 1.291 1.5559
1147.757 1.614 1.814 2.244 2.154 2.004 2.244 2.434 2.974 3.724 4.204
1167.047 4.014 4.044 4.494 4.514 4.784 4.854 4.674 5.844 7.554 7.604
1186.337 11.664 17.214 19.884 25.314 44.014 65.574 68.214 72.204 61.314 46.274
1205.627 41.904 29.144 28.824 26.924 21.704 18.654 16.794 13.834 12.994 10.284
1224.917 11.354 11.454 8.294 8.684 9.954 8.254 7.404 8.774 9.504 9.984
1244.207 11.024 11.914 12.174 12.654 12.894 12.994 13.064 12.704 11.954 11.384
1263.497 10.814 11.004 11.844 12.574 14.224 16.394 18.884 21.704 24.454 27.474
1282.787 30.364 32.634 34.094 34.734 34.354 32.994 31.014 28.104 24.724 21.334
1302.077 18.114 15.314 12.994 11.274 10.004 8.954 8.124 7.564 7.114 6.794
1321.367 6.574 6.284 6.074 5.914 5.734 5.554 5.404 5.394 5.414 5.454
1340.657 5.454 5.494 5.574 5.594 5.624 5.634 5.634 5.654 5.624 5.464
1359.947 5.234 4.994 4.704 4.414 4.214 4.084 3.934 3.784 3.714 3.704
1379.237 3.704 3.804 3.944 4.044 4.134 4.254 4.404 4.614 4.914 5.254
1398.527 5.614 6.024 6.564 7.164 7.784 8.544 9.444 10.534 11.864 13.384
1417.817 15.234 17.384 19.754 22.384 25.204 28.114 30.964 33.754 36.494 39.024
1437.107 41.344 43.324 44.754 45.614 45.914 45.504 44.574 43.204 41.444 39.464
1456.397 37.254 35.224 33.514 31.904 30.534 29.424 28.564 27.864 27.324 27.004
1475.687 26.774 26.584 26.554 26.504 26.354 26.014 25.384 24.674 23.764 22.634
1494.977 21.484 20.254 19.044 17.934 16.844 15.804 14.924 14.184 13.484 12.774
1514.267 12.094 11.414 10.764 10.114 9.494 8.954 8.414 7.934 7.434 6.954
1533.557 6.604 6.314 6.024 5.744 5.554 5.464 5.474 5.414 5.374 5.474
1552.847 5.574 5.764 5.934 6.094 6.394 6.684 6.864 6.964 7.064 7.144
1572.137 7.244 7.364 7.624 8.264 9.164 10.274 11.434 12.464 13.294 13.794
1591.427 13.974 13.904 13.634 13.164 12.564 12.004 11.604 11.514 11.764 12.234
1610.717 12.844 13.544 14.254 15.074 16.084 17.104 18.154 19.254 20.304 21.264
1630.007 22.044 22.584 22.804 22.684 22.284 21.484 20.394 19.314 18.204 17.234
1649.297 16.504 15.834 15.384 15.324 15.444 15.734 16.254 16.954 17.924 19.054
1668.587 20.334 21.874 23.594 25.294 27.044 28.694 30.264 31.884 33.834 36.344
1687.877 39.384 43.194 47.884 53.144 58.924 64.824 70.194 74.994 77.524 77.334
1707.167 74.624 70.084 64.554 59.004 53.644 48.394 43.304 38.774 34.634 30.804
1726.457 27.264 24.024 21.034 18.314 15.864 13.784 12.054 10.504 9.324 8.344
1745.747 7.464 6.774 6.244 5.754 5.304 4.924 4.624 4.374 4.164 3.974
1765.037 3.794 3.614 3.404 3.254 3.144 3.074 2.994 2.904 2.874 2.864
1784.327 2.864 2.824 2.794 2.884 3.014 3.104 3.184 3.234 3.294 3.344
1803.617 3.344 3.294 3.234 3.114 2.974 2.834 2.594 2.414 2.314 2.224
1822.907 2.114 2.014 1.974 1.954 1.984 2.014 2.034 2.064 2.034 1.984
1842.197 1.934 1.914 1.874 1.784 1.704 1.624 1.614 1.634 1.582 1.5205
1861.487 1.4466 1.4045 1.4069 1.3383 1.3033 1.3034 1.2795 1.2735 1.32 1.3231
1880.777 1.3142 1.3474 1.378 1.4012 1.3921 1.409 1.4405 1.4616 1.4602 1.4754
1900.067 1.5199 1.52 1.5303 1.5995 1.664 1.744 1.844 1.874 1.934 2.014
1919.357 2.034 2.094 2.084 2.004 1.974 1.894 1.764 1.634 1.5833 1.5227
1938.647 1.4898 1.4904 1.5038 1.5892 1.664 1.694 1.734 1.774 1.764 1.724
1957.937 1.674 1.604 1.5053 1.3968 1.3071 1.1937 1.1017 1.0539 1.0168 1.0207
1977.227 1.0169 0.9919 0.9476 0.9156 0.9117 0.9308 0.9205 0.8651 0.8312 0.8731
1996.517 0.9263 0.893 0.8603 0.8421 0.8577 0.8584 0.8455 0.8461 0.8291 0.8597
2015.807 0.8607 0.8332 0.8575 0.8688 0.8807 0.8813 0.8714 0.9007 0.8633 0.8117
2035.097 0.8435 0.8714 0.8463 0.8468 0.8418 0.7808 0.7767 0.8198 0.8198 0.8029
2054.387 0.7877 0.8003 0.7884 0.7666 0.7881 0.8068 0.7992 0.8001 0.8127 0.799
2073.677 0.812 0.8409 0.7912 0.7881 0.8004 0.7808 0.7912 0.7953 0.8022 0.7609
2092.967 0.7406 0.7502 0.7801 0.8015 0.7793 0.775 0.7421 0.68361 0.69987 0.7593
2112.257 0.7587 0.7839 0.7889 0.74 0.7681 0.7838 0.7496 0.7577 0.8148 0.8031
2131.547 0.7538 0.7543 0.7698 0.7827 0.7853 0.7906 0.7908 0.7211 0.7213 0.7886
2150.837 0.7992 0.817 0.7945 0.7944 0.8076 0.7674 0.7328 0.7209 0.722 0.7295
2170.127 0.7547 0.7469 0.7291 0.7417 0.7319 0.7318 0.7713 0.7559 0.7301 0.7385
2189.417 0.7447 0.7175 0.69343 0.68988 0.7106 0.69834 0.67315 0.69064 0.69258 0.7043
2208.707 0.7079 0.7001 0.7221 0.7137 0.69499 0.69767 0.70326 0.7237 0.68138 0.69096
2227.997 0.7152 0.68791 0.7153 0.7457 0.7376 0.7279 0.7247 0.7262 0.7137 0.6483
2247.287 0.66716 0.7198 0.7302 0.7535 0.7875 0.8338 0.7942 0.796 0.8871 0.9138
2266.577 0.8963 0.8767 0.9026 0.9221 0.9104 0.9389 0.94 0.9522 0.9745 0.9908
2285.868 0.99 0.9369 0.9019 0.8467 0.7969 0.7853 0.7876 0.762 0.7497 0.8172
2305.158 0.839 0.8634 0.847 0.8091 0.8236 0.8154 0.8256 0.8398 0.8301 0.8056
2324.448 0.8044 0.8343 0.8525 0.8108 0.7538 0.7249 0.68868 0.68976 0.7096 0.69456
2343.738 0.67065 0.68717 0.7599 0.7872 0.7142 0.6217 0.5864 0.62079 0.5915 0.5237
2363.028 0.514 0.5859 0.63715 0.5755 0.62354 0.69417 0.64988 0.63075 0.64226 0.65449
2382.318 0.7139 0.7333 0.69177 0.6268 0.62317 0.67045 0.68599 0.69329 0.715 0.7293
2401.608 0.6776 0.7234 0.7512 0.7042 0.68779 0.66432 0.64007 0.63859 0.68581 0.6972
2420.898 0.7022 0.737 0.68463 0.62925 0.63892 0.66006 0.6441 0.64384 0.69032 0.6904
2440.188 0.68567 0.6745 0.65463 0.64882 0.63419 0.59714 0.608843 0.6452 0.62491 0.65359
2459.478 0.7154 0.68505 0.63703 0.603841 0.62191 0.64408 0.61744 0.63559 0.66013 0.65857
2478.768 0.68333 0.69509 0.64942 0.6609 0.69828 0.67766 0.66831 0.7027 0.7162 0.7043
2498.058 0.7293 0.7228 0.65012 0.61877 0.68807 0.7316 0.69406 0.69921 0.7342 0.7581
2517.348 0.7207 0.7268 0.8059 0.802 0.7653 0.7625 0.7655 0.7559 0.7929 0.7889
2536.638 0.7161 0.7281 0.7916 0.7831 0.8117 0.8386 0.7944 0.7747 0.8088 0.8551
2555.928 0.8963 0.8605 0.8589 0.8298 0.7579 0.7821 0.8441 0.8454 0.7852 0.8393
2575.218 0.8323 0.813 0.8574 0.8367 0.796 0.7283 0.7487 0.8042 0.7711 0.7506
2594.508 0.7899 0.8153 0.7537 0.65398 0.69667 0.7737 0.7557 0.7312 0.7345 0.7487
2613.798 0.7747 0.7395 0.70364 0.7173 0.68709 0.62609 0.613031 0.64917 0.67404 0.69508
2633.088 0.61593 0.5523 0.5495 0.5821 0.61735 0.61926 0.5929 0.5275 0.5329 0.5434
2652.378 0.5306 0.5744 0.5462 0.5364 0.5749 0.5229 0.5085 0.5493 0.5329 0.448
2671.668 0.429 0.489 0.5273 0.5081 0.5068 0.5645 0.5782 0.5892 0.5821 0.5269
2690.958 0.5179 0.574 0.62242 0.61648 0.606938 0.607168 0.5635 0.5436 0.61632 0.64835
2710.248 0.63297 0.63825 0.63559 0.63015 0.5751 0.5694 0.64582 0.68787 0.7303 0.7062
2729.538 0.63326 0.69451 0.69885 0.6604 0.70379 0.67832 0.66287 0.69565 0.66979 0.63667
2748.828 0.61801 0.64378 0.5811 0.5118 0.609506 0.62661 0.5583 0.5073 0.5102 0.5335
2768.118 0.5462 0.5252 0.502 0.55 0.5698 0.5379 0.459 0.394 0.458 0.445
2787.408 0.433 0.5135 0.474 0.423 0.518 0.62849 0.5547 0.49 0.5047 0.48
2806.698 0.424 0.417 0.46 0.458 0.429 0.461 0.428 0.444 0.471 0.433
2825.988 0.458 0.445 0.478 0.49 0.5106 0.463 0.436 0.473 0.5179 0.5358
2845.278 0.5148 0.5583 0.5781 0.5449 0.496 0.497 0.5147 0.5544 0.5504 0.5051
2864.568 0.5505 0.487 0.477 0.555 0.471 0.45 0.5079 0.5602 0.5357 0.458
2883.858 0.475 0.49 0.494 0.5064 0.471 0.447 0.5213 0.60124 0.5043 0.42
2903.148 0.411 0.444 0.5066 0.5091 0.5168 0.461 0.418 0.43 0.471 0.476
2922.438 0.394 0.42 0.5 0.5301 0.417 0.342 0.456 0.5205 0.5153 0.463
2941.728 0.5312 0.5567 0.501 0.5864 0.62161 0.5913 0.5565 0.5236 0.444 0.347
2961.018 0.478 0.603756 0.5779 0.7077 0.7411 0.67947 0.67046 0.7352 0.7696 0.67044
2980.308 0.68264 0.7936 0.8631 0.8439 0.7626 0.8116 0.8061 0.68173 0.67577 0.7621
2999.598 0.8029 0.7916 0.853 0.8897 0.8981 0.8685 0.8555 0.8459 0.812 0.9227
3018.888 0.9515 0.8921 0.8962 0.9534 0.8937 0.7888 0.809 0.8875 0.9542 0.9688
3038.178 0.9908 1.048 1.2184 1.413 1.5651 1.764 2.154 2.594 3.104 3.804
3057.468 4.554 5.224 5.764 6.394 7.104 7.794 8.354 8.744 8.934 8.784
3076.758 8.574 8.234 7.764 7.084 6.214 5.254 4.284 3.574 2.934 2.374
3096.048 2.064 1.864 1.55 1.2588 1.074 0.97 0.9328 0.9583 0.9949 0.9078
3115.338 0.9111 1.0087 1.0635 1.0617 1.0224 1.095 1.1531 1.1192 1.1433 1.136
3134.628 1.0759 0.9759 0.846 0.6786 0.610988 0.5765 0.474 0.404 0.368 0.401
3153.918 0.351 0.38 0.464 0.398 0.411 0.487 0.5383 0.5189 0.474 0.592
3173.208 0.64732 0.5512 0.5285 0.568 0.61889 0.65502 0.7407 0.768 0.66151 0.7229
3192.498 0.7931 0.7309 0.8259 0.9563 0.9541 1.0224 1.0039 1.0398 1.1773 1.1947
3211.788 1.0616 0.8498 0.8527 0.897 0.8875 0.8393 0.7472 0.66217 0.6324 0.66249
3231.078 0.611081 0.5812 0.64809 0.61839 0.5063 0.454 0.498 0.501 0.432 0.369
3250.368 0.423 0.5226 0.5157 0.476 0.403 0.375 0.349 0.347 0.402 0.376
3269.658 0.305 0.367 0.5121 0.5836 0.6568 0.7415 0.7085 0.7074 0.7249 0.66799
3288.948 0.5506 0.504 0.5135 0.5742 0.7067 0.69518 0.611529 0.5894 0.5812 0.62979
3308.238 0.7054 0.610661 0.5494 0.64081 0.66603 0.7392 0.7873 0.7426 0.7842 0.8689
3327.528 0.8679 0.9221 0.9837 0.8948 0.9449 1.1509 1.2382 1.2447 1.3808 1.4436
3346.818 1.4285 1.4066 1.3243 1.3999 1.3995 1.2729 1.2716 1.2579 1.1764 1.1606
3366.108 1.1443 1.1687 1.0604 0.9951 1.0494 1.0567 1.1942 1.18 1.1475 1.308
3385.398 1.4401 1.3775 1.3351 1.4577 1.624 1.774 1.784 1.644 1.684 1.864
3404.688 2.004 2.154 2.204 2.194 2.184 2.364 2.614 2.704 2.944 3.304
3423.978 3.634 4.064 4.604 5.144 5.584 6.034 6.614 7.154 7.674 8.304
3443.269 9.084 9.804 10.404 11.134 12.014 12.744 13.344 13.984 14.524 14.774
3462.559 14.784 14.614 14.284 13.654 12.694 11.704 10.764 9.774 8.944 8.214
3481.849 7.474 6.804 6.204 5.724 5.224 4.704 4.274 3.834 3.394 2.924
3501.139 2.574 2.334 2.034 1.774 1.624 1.5212 1.3358 1.177 1.0109 0.938
3520.429 0.902 0.841 0.8502 0.7696 0.7198 0.68222 0.61449 0.5169 0.483 0.5403
3539.719 0.529 0.503 0.5107 0.59423 0.63217 0.5772 0.5568 0.552 0.5482 0.5913
3559.009 0.5835 0.5687 0.59889 0.59404 0.5983 0.5575 0.5358 0.59511 0.466 0.376
3578.299 0.5507 0.63384 0.5481 0.5418 0.5773 0.5922 0.5783 0.5812 0.5498 0.482
3597.589 0.5578 0.64812 0.62875 0.6568 0.5906 0.496 0.5491 0.5321 0.5298 0.5417
3616.879 0.411 0.377 0.406 0.392 0.322 0.214 0.192 0.239 0.322 0.242
3636.169 0.171 0.214 0.22 0.3 0.339 0.386 0.359 0.219 0.184 0.301
3655.459 0.348 0.172 0.156 0.324 0.337 0.23 0.165 0.148 0.206 0.156
3674.749 0.187 0.188 0.043 0.207 0.316 0.262 0.226 0.126 0.176 0.285
3694.039 0.314 0.223 0.225 0.214 0.18 0.232 0.177 0.13 0.142 0.16
3713.329 0.245 0.252 0.177 0.283 0.411 0.479 0.488 0.327 0.265 0.37
3732.619 0.331 0.277 0.282 0.322 0.282 0.21 0.249 0.284 0.348 0.234
3751.909 0.239 0.365 0.357 0.445 0.436 0.285 0.25 0.364 0.464 0.482
3771.199 0.304 0.293 0.339 0.332 0.331 0.218 0.276 0.346 0.321 0.274
3790.489 0.195 0.17 0.189 0.254 0.235 0.139 0.2 0.401 0.359 0.202
3809.779 0.221 0.266 0.242 0.198 0.246 0.233 0.235 0.329 0.32 0.267
3829.069 0.314 0.268 0.16 0.202 0.291 0.247 0.182 0.298 0.416 0.426
3848.359 0.363 0.354 0.298 0.238 0.251 0.165 0.213 0.112 0.083 0.228
3867.649 0.156 0 0.065 0.228 0.287 0.299 0.253 0.318 0.242 0.164
3886.939 0.271 0.347 0.373 0.358 0.264 0.172 0.186 0.268 0.265 0.305
3906.229 0.302 0.265 0.308 0.282 0.267 0.297 0.397 0.337 0.157 0.154
3925.519 0.242 0.285 0.142 0.088 0.151 0.185 0.294 0.36 0.343 0.256
3944.809 0.306 0.378 0.213 0.207 0.237 0.223 0.29 0.226 0.245 0.188
3964.099 0.176 0.29 0.327 0.25 0.182 0.245 0.196 0.182 0.275 0.245
3983.389 0.085 0.141 0.389 0.331 0.245 0.301 0.24 0.239 0.294 0.285
##END=
