##TITLE=2-Amino-5-methylbenzoic acid
##JCAMP-DX=4.24
##DATA TYPE=INFRARED SPECTRUM
##ORIGIN=NIST Mass Spectrometry Data Center
##OWNER=NIST Standard Reference Data Program
Collection (C) 2018 copyright by the U.S. Secretary of Commerce
on behalf of the United States of America. All rights reserved.
##CAS REGISTRY NO=2941-78-8
##MOLFORM=C 8 H 9 N O 2
##$NIST SOURCE=MSDC-IR
##SPECTROMETER/DATA SYSTEM=HP-GC/MS/IRD
##STATE=gas
##XUNITS=1/CM
##YUNITS=ABSORBANCE
##XFACTOR=1.0
##YFACTOR=0.000001700
##DELTAX=4.0
##FIRSTX=550.0
##LASTX=3846.0
##FIRSTY=0.001839
##MAXX=3846
##MINX=550
##MAXY=0.017
##MINY=0
##NPOINTS=825
##XYDATA=(X++(Y..Y))
550.0 1082 1906 1739 2001 2189 2207 1987 1737 1488 1183
590.0 914 724 572 503 463 416 392 409 444 488
630.0 573 666 812 1026 1310 1668 1929 1963 1887 1650
670.0 1197 794 603 526 491 500 540 562 661 778
710.0 877 937 890 799 652 431 274 246 213 188
750.0 212 209 191 210 253 320 383 444 507 583
790.0 705 775 855 1007 1194 1510 1501 1177 940 695
830.0 473 302 219 187 159 143 143 133 118 98
870.0 77 66 64 71 85 117 137 115 100 88
910.0 67 48 24 10 8 12 21 39 48 41
950.0 37 27 31 39 53 72 91 119 153 184
990.0 203 218 229 211 179 155 140 136 150 211
1030.0 319 504 847 1308 1793 2184 2451 2593 2530 2326
1070.0 2157 2115 2167 2215 2198 2127 1948 1662 1385 1153
1110.0 984 897 855 861 939 1091 1379 1950 2934 4377
1150.0 6041 7137 7648 7976 7238 5640 4322 3165 2015 1238
1190.0 829 611 516 493 512 582 674 772 843 870
1230.0 866 832 822 859 944 1067 1178 1214 1152 1070
1270.0 963 804 684 618 616 678 807 1020 1274 1498
1310.0 1633 1671 1611 1470 1339 1288 1314 1392 1460 1469
1350.0 1413 1273 1082 927 880 936 1035 1076 1047 948
1390.0 776 579 427 350 331 348 392 432 452 437
1430.0 396 339 274 229 200 187 193 212 245 291
1470.0 346 424 549 760 1104 1559 1975 2218 2291 2133
1510.0 1730 1268 902 660 514 443 416 414 470 587
1550.0 778 1028 1305 1606 1872 2033 2116 2205 2317 2481
1590.0 2699 2902 3012 2994 2876 2767 2729 2767 2813 2754
1630.0 2546 2205 1787 1374 1021 771 594 500 465 451
1670.0 454 474 516 575 640 735 873 1103 1518 2244
1710.0 3455 5246 7394 9166 10000 9748 8351 6338 4594 3422
1750.0 2708 2233 1733 1225 834 609 511 483 484 499
1790.0 501 463 385 316 256 192 139 115 100 92
1830.0 85 80 81 82 77 68 56 46 46 45
1870.0 45 52 54 65 81 91 90 84 73 64
1910.0 59 47 45 53 55 56 58 54 54 53
1950.0 51 47 45 41 25 23 27 20 14 12
1990.0 13 13 15 11 14 23 14 10 9 8
2030.0 22 28 25 26 25 31 40 38 42 42
2070.0 37 37 39 44 54 56 55 64 61 52
2110.0 45 47 47 38 35 32 27 33 31 23
2150.0 28 24 19 22 22 29 32 21 16 20
2190.0 25 22 21 26 32 34 32 34 36 27
2230.0 22 18 6 11 19 24 21 17 21 18
2270.0 13 13 16 17 23 28 32 33 32 42
2310.0 40 32 39 39 43 47 43 42 28 24
2350.0 35 31 41 58 55 51 53 59 62 59
2390.0 48 43 50 50 43 46 43 43 43 35
2430.0 25 22 22 19 16 19 27 17 6 14
2470.0 20 17 9 9 18 23 24 23 24 23
2510.0 20 17 27 27 30 36 25 27 30 23
2550.0 19 23 15 8 18 20 14 15 17 25
2590.0 29 36 41 36 27 28 35 27 27 30
2630.0 33 38 37 37 34 42 47 36 27 28
2670.0 38 31 19 17 19 25 26 26 32 29
2710.0 25 33 38 41 43 45 54 64 63 52
2750.0 55 59 43 37 45 32 25 38 27 25
2790.0 32 30 24 23 30 41 51 47 45 58
2830.0 65 77 101 113 119 153 197 234 289 372
2870.0 445 491 514 500 480 444 413 396 395 416
2910.0 456 518 587 676 789 864 863 808 718 578
2950.0 457 393 339 294 286 277 268 282 282 272
2990.0 271 285 301 329 374 416 505 609 692 744
3030.0 746 729 674 615 578 563 556 524 477 406
3070.0 323 279 237 172 152 141 108 102 93 83
3110.0 74 67 64 51 58 62 52 37 17 22
3150.0 45 39 31 16 13 37 39 38 51 48
3190.0 48 47 41 37 28 24 27 21 7 17
3230.0 27 23 23 19 26 34 24 24 25 19
3270.0 25 24 22 24 26 26 23 33 45 46
3310.0 40 69 96 86 102 95 81 86 93 105
3350.0 117 138 162 186 231 319 508 818 1155 1433
3390.0 1592 1581 1387 1081 776 529 377 291 256 271
3430.0 289 289 280 238 184 163 149 138 136 147
3470.0 169 204 232 244 293 381 456 548 668 795
3510.0 913 982 984 948 853 704 569 462 354 271
3550.0 231 218 286 440 733 1234 1969 2755 3130 3033
3590.0 2660 1917 1019 437 210 121 65 43 26 16
3630.0 30 34 31 29 23 27 11 12 24 15
3670.0 18 13 7 12 12 2 5 34 35 11
3710.0 8 6 4 1 0 0 0 7 25 11
3750.0 3 20 24 12 13 23 1 0 7 17
3790.0 15 11 2 0 0 0 0 0 4 5
3830.0 0 0 0 4 4
##END=
