##TITLE=7-Nitroindazole
##JCAMP-DX=4.24
##DATA TYPE=INFRARED SPECTRUM
##ORIGIN=EPA-IR VAPOR PHASE LIBRARY
##OWNER=SRD/NIST
Collection (C) 2018 copyright by the U.S. Secretary of Commerce
on behalf of the United States of America. All rights reserved.
##CAS REGISTRY NO=2942-42-9
##MOLFORM=C 7 H 5 N 3 O 2
##$NIST SOURCE=MSDC-IR
##STATE=gas
##XUNITS=1/CM
##YUNITS=ABSORBANCE
##XFACTOR=1.
##YFACTOR=0.001
##DELTAX=1.92898
##FIRSTX=549.8
##LASTX=4000.7
##FIRSTY=4.14
##MAXX=4000.7
##MINX=549.759
##MAXY=0.09832
##MINY=0
##NPOINTS=1790
##XYDATA=(X++(Y..Y))
549.759 4.14 3.68 3.88 4.8 4.88 4.44 4.8 6.07 6.89 5.68
569.049 4.68 4.63 4.4 3.77 3.91 4.55 4.27 4.33 4.61 4.47
588.339 4.06 4.04 4.18 4.33 4.4 4.59 5.27 5.51 5.11 4.79
607.628 4.43 4.53 4.98 4.34 3.2156 3.58 3.58 2.8612 3.77 4.32
626.918 4.38 5.16 5.79 6.61 7.23 7.23 7.78 8.71 9.54 10.57
646.208 11.66 12.47 13.96 15.44 16.5 18.03 20.42 21.88 22.1 22.8
665.498 22.64 22.08 21.02 18.35 15.31 13.3 11.53 10.23 8.78 6.7
684.787 5.62 4.81 3.88 3.2043 2.7642 2.9404 3.0949 3.3594 3.4627 3.0811
704.077 2.7421 2.724 3.4441 3.89 3.4435 3.3241 4.34 5.21 6.13 7.24
723.367 8.46 10.4 12.18 13.53 14.72 16.31 18.75 23 26.16 23.15
742.657 17.86 15.72 14.94 13.37 11.66 10.1 7.95 6.05 5.53 5.42
761.947 4.72 4.06 3.97 3.85 3.94 4.55 4.88 5.1 6.06 7.95
781.236 9.89 11.67 13.92 15.1 15.61 16.32 16.28 16.44 16.13 14.86
800.526 13.18 11.28 9.12 7.32 6.49 5.67 4.83 3.88 3.59 3.93
819.816 4.27 5.19 5.61 4.47 4.15 5.04 5.95 7.09 8.21 9.58
839.106 10.38 11.53 13.83 17.73 23.14 22.56 17.03 15.29 15.49 15.76
858.395 15.93 14.72 13.06 11.35 10.5 10.13 9.04 7.57 6.52 6.05
877.685 5.2 4.15 3.57 3.2797 3.1345 3.1698 3.1118 3.0395 3.0588 3.0572
896.975 3.1393 2.7347 2.3964 2.9245 3.2184 3.485 3.79 4.04 4.43 4.95
916.265 5.77 6.28 7.02 8.66 10.79 12.46 13.38 14.25 14.33 13.67
935.555 13.83 14.23 13.56 12.16 10.19 8.01 6.32 5.47 5.35 5.03
954.844 4.82 4.72 4.89 5.11 5.16 5.55 5.94 6.36 6.49 6.57
974.134 6.6 6.57 6.97 7.29 7.89 8.89 9.59 10.53 12.3 14.44
993.424 15.49 15.89 16.66 17.47 17.72 17.53 17.24 15.91 14.06 12.52
1012.714 11.74 10.89 10.26 10.09 9.91 10.26 11.38 11.8 11.57 11.97
1032.003 11.95 11.3 11.02 10.65 10.27 10.66 9.6 9.03 9.02 8.63
1051.293 7.79 7.44 7.47 6.17 6.39 6.34 5.26 4.96 5.22 4.94
1070.583 4.81 4.33 3.4158 2.838 2.4727 2.291 1.561 1.808 1.4 0.64
1089.873 0.15 0 1.505 1.848 1.25 2.17 1.645 1.25 2.4151 2.4713
1109.163 1.708 1.673 1.755 1.47 1.977 2.153 2.7547 3.2507 2.4278 3.67
1128.452 3.61 2.066 2.061 2.154 2.9672 3.4702 3.75 4.38 4.54 4.84
1147.742 6.04 6.7 7.48 7.77 7.14 6.97 7.15 6.73 5.91 5.66
1167.032 4.81 5 5.28 3.84 2.9153 3.94 4.97 4.18 4.74 5.41
1186.322 5.4 7.04 7.56 6.67 7.13 7.55 7.12 7.18 7.33 7.14
1205.611 7.45 7.9 8.72 8.64 7.91 7.25 5.75 4.88 5.07 5.43
1224.901 5.95 5.56 5.36 5.84 5.95 5.75 5.73 5.8 5.67 5.75
1244.191 5.34 5.04 5.56 6.35 6.6 7.1 8.3 9.52 10.57 11.02
1263.481 11.84 12.85 13.14 13.41 14.38 15.1 15.12 14.95 14.83 14.78
1282.771 14.81 14.98 15.83 17.51 19.45 21.91 24.24 26.12 27.83 28.86
1302.060 29.27 29.3 29.32 29.61 30.06 30.82 32.3 35.29 40.21 47.01
1321.350 55.83 65.88 75.83 85.13 92.38 96.55 98.32 98.08 95.93 92.05
1340.640 86 77.55 67.31 56.99 47.81 40.53 35.54 32.07 29.5 27.74
1359.930 26.49 25.91 26.06 26.36 26.76 27.24 27.15 26.56 25.92 24.79
1379.219 23.11 20.72 17.69 14.92 12.48 10.37 8.88 7.84 7.01 6.55
1398.509 6.26 5.9 5.5 5.16 5.07 5.19 5.21 5.25 5.68 5.75
1417.799 5.77 6.01 6.09 6.07 6.01 5.95 5.86 5.75 5.6 5.26
1437.089 4.76 4.59 4.5 4.53 4.58 4.81 5.2 5.75 6.83 8.17
1456.378 9.63 11.19 12.62 13.59 14.19 14.6 14.76 14.58 13.94 13.1
1475.668 12 10.52 9.33 8.57 8.42 8.71 9.05 9.56 10.23 10.85
1494.958 11.15 11.04 10.96 11.18 11.23 11.05 10.86 10.61 10.43 10.43
1514.248 10.96 12.49 14.4 16.59 19.84 23.35 27.12 31.05 34.98 38.86
1533.538 42.72 46.25 48.73 50.82 52.23 52.39 51.33 49.51 46.97 43.84
1552.827 40.31 35.9 31.79 27.97 24.07 20.63 17.72 15.73 14.17 12.82
1572.117 12.2 11.53 11.16 11 10.36 9.86 9.69 9.69 9.54 9.29
1591.407 8.97 8.56 8.16 7.8 7.7 7.82 7.66 7.35 7.56 7.91
1610.697 8.05 8.46 8.77 8.98 9.83 10.98 12.4 14.17 15.95 17.65
1629.986 18.92 19.91 20.51 20.16 19.53 18.79 17.64 16.1 14.09 11.78
1649.276 9.78 8.32 7.09 6.19 5.44 4.94 4.9 4.83 4.53 4.19
1668.566 4.08 4.07 3.88 3.84 3.92 3.91 4.11 4.14 4.03 4.47
1687.856 4.7 4.54 4.44 4.43 4.42 4.51 4.67 4.37 4.11 4.17
1707.146 4.1 3.79 3.79 3.92 3.96 3.9 3.69 3.72 3.72 3.58
1726.435 3.71 3.7 3.3609 3.1317 3.0615 3.0283 2.9231 3.0311 3.2051 3.0967
1745.725 2.9571 3.0546 3.0761 3.1365 3.2071 3.1819 3.2982 3.52 3.3725 3.1376
1765.015 3.2534 3.1958 3.1794 3.2786 3.1249 3.0196 2.9873 2.7882 2.6077 2.6359
1784.305 2.824 2.8321 2.6801 2.7072 2.56679 2.51304 2.7738 2.8393 2.7338 2.8073
1803.594 2.9025 2.9152 2.9598 2.9244 2.9927 2.9894 2.9251 2.9708 3.0232 2.9898
1822.884 3.0821 3.2077 3.1291 3.2453 3.2275 3.1104 3.1107 3.1304 3.05 2.9782
1842.174 2.9317 2.881 2.9704 2.9569 2.9223 2.9266 2.9712 2.8998 2.7982 2.7619
1861.464 2.8833 3.0962 3.1652 3.1447 3.0944 3.2612 3.52 3.55 3.69 3.7
1880.754 3.59 3.6 3.4031 3.3509 3.452 3.303 3.1935 3.1234 3.033 2.9998
1900.043 2.8011 2.8395 2.961 3.0397 3.0179 2.9085 3.0068 3.1511 3.2195 3.3252
1919.333 3.4724 3.3881 3.3806 3.59 3.69 3.68 3.57 3.3722 3.408 3.448
1938.623 3.3676 3.2995 3.244 3.0592 2.8407 2.8211 2.936 2.9207 2.6983 2.605
1957.913 2.6516 2.6929 2.78 2.7557 2.7187 2.7992 2.9541 2.8893 2.7459 2.6682
1977.202 2.6143 2.681 2.634 2.6007 2.58288 2.6024 2.6418 2.6857 2.4677 2.4525
1996.492 2.6879 2.6139 2.58531 2.6463 2.7042 2.58686 2.57936 2.7271 2.5903 2.4547
2015.782 2.49828 2.50174 2.48793 2.48376 2.48199 2.706 2.8055 2.6512 2.4757 2.48001
2035.072 2.4796 2.56596 2.7235 2.56805 2.48051 2.58219 2.6919 2.6213 2.57057 2.5959
2054.362 2.425 2.4548 2.58745 2.6282 2.8009 2.7021 2.55368 2.52179 2.6293 2.6239
2073.651 2.48738 2.6642 2.7137 2.7188 2.7156 2.51404 2.4579 2.55255 2.54576 2.6405
2092.941 2.7333 2.6679 2.7362 2.8007 2.7769 2.6257 2.6094 2.56732 2.4136 2.343
2112.231 2.374 2.56813 2.55905 2.55797 2.7061 2.6541 2.6433 2.9221 2.9451 2.7112
2131.521 2.7256 2.7778 2.7661 2.6144 2.57623 2.755 2.8886 2.91 2.8872 2.8662
2150.810 2.8929 2.8038 2.6974 2.75 2.8094 2.8862 2.9395 2.899 2.9327 2.8205
2170.100 2.58901 2.7124 2.6827 2.51826 2.4638 2.51666 2.55567 2.4624 2.52869 2.6889
2189.390 2.637 2.6795 2.7689 2.7024 2.7341 2.7469 2.7885 3.0029 2.9836 2.7133
2208.680 2.6816 2.6951 2.7932 2.9412 2.9614 2.9557 2.8531 2.7715 2.7349 2.7848
2227.970 2.8808 2.7187 2.6728 2.7749 2.7426 2.6859 2.53775 2.5961 2.8651 2.9179
2247.259 2.7371 2.6811 2.827 2.7967 2.5931 2.6354 2.7938 2.868 2.9402 2.951
2266.549 3.1031 3.2853 3.2116 3.2077 3.0872 2.9655 2.9581 2.9092 2.9762 2.9791
2285.839 2.7835 2.7829 3.0203 2.8829 2.8202 2.8402 2.7841 3.0917 3.1558 2.9178
2305.129 2.9217 2.9974 2.9788 2.9419 2.9103 2.814 2.6331 2.6031 2.9003 2.9905
2324.418 2.9317 3.2417 3.3351 3.0143 2.9931 3.1447 3.0151 2.9759 2.9552 2.9529
2343.708 3.1019 3.1693 3.1449 2.9715 2.8325 2.8006 2.7061 2.7986 2.9311 2.9105
2362.998 2.7295 2.6577 2.9833 3.0573 2.8881 2.7933 2.8703 2.9106 2.782 2.7457
2382.288 2.6357 2.6688 2.966 2.9702 2.8143 2.814 2.7487 2.9561 3.0227 2.7834
2401.578 2.7653 2.7073 2.7748 3.0309 2.7924 2.602 2.7442 2.8606 2.9602 2.9435
2420.867 2.9332 2.8947 2.8812 2.9627 2.7993 2.51299 2.54424 2.8404 2.8027 2.54117
2440.157 2.6382 2.8528 2.876 2.8502 2.8957 2.797 2.6721 2.6536 2.57438 2.4557
2459.447 2.6704 2.55789 2.343 2.6028 2.7111 2.7239 2.9126 2.8775 2.6852 2.8376
2478.737 3.0318 3.0974 2.9077 2.9272 2.9683 2.9041 3.0416 3.2194 3.3335 3.1221
2498.026 3.0185 2.9399 2.9747 3.104 3.0869 3.0275 2.986 3.0187 2.7997 2.6861
2517.316 2.9014 2.9113 2.8643 2.8703 3.031 3.2603 3.1523 2.9812 2.9662 3.066
2536.606 3.179 3.4638 3.3083 3.0079 3.122 3.0146 2.9495 3.0155 2.8524 2.8178
2555.896 3.2335 3.39 2.9238 2.8622 3.1948 3.0968 3.01 3.1096 3.1238 2.9763
2575.186 3.0786 3.062 2.8923 2.7658 2.8373 2.9322 3.0723 2.9654 2.6071 2.7745
2594.475 2.6759 2.4562 2.179 2.215 2.4196 2.56473 2.9167 2.8497 2.7883 2.8434
2613.765 2.7249 2.8395 2.7141 2.6137 2.7757 2.8261 2.9066 2.8979 2.9623 3.2482
2633.055 3.2468 2.8588 2.7314 2.883 2.9072 2.9023 3.1824 3.2885 3.2077 3.2195
2652.345 3.2277 3.1512 2.936 2.914 2.9655 3.1976 3.0113 2.7706 2.7496 2.8394
2671.634 3.0976 3.0016 2.7487 2.7266 2.8067 2.777 2.9388 3.0743 2.9206 2.9196
2690.924 3.1212 3.0744 2.9272 2.7334 2.7851 2.8059 2.6474 2.7333 3.0374 3.0056
2710.214 3.0009 2.9708 2.8832 3.0292 2.8794 2.6624 2.8062 2.9273 2.8507 2.8426
2729.504 2.8031 2.7704 2.8762 2.9042 2.774 2.7021 2.6252 2.6728 3.0029 2.9158
2748.794 2.51773 2.5933 2.8343 2.8557 2.9482 3.0303 2.8776 2.7437 2.6221 2.6274
2768.083 3.0169 3.0494 2.7796 2.8589 3.1081 3.0099 2.7697 2.9473 2.932 2.7225
2787.373 2.8062 3.0666 3.2507 3.1453 3.2487 3.3918 3.2264 3.2181 3.3555 3.2021
2806.663 3.0451 3.1103 3.1178 3.1489 3.0134 2.7445 2.6955 2.8977 3.1562 3.091
2825.953 2.8909 3.0326 3.106 3.3727 3.81 3.63 3.4651 3.62 3.9 4.01
2845.242 3.92 3.9 3.57 3.62 3.82 3.4519 3.2381 3.3424 3.1049 3.0433
2864.532 3.1594 3.3174 3.63 3.55 3.4114 3.79 3.77 3.3359 3.3655 3.55
2883.822 3.4814 3.3299 3.4534 3.4422 3.4057 3.3168 3.078 2.9578 2.8474 3.0713
2903.112 3.393 3.4578 3.69 3.56 3.52 3.68 3.85 4.12 3.99 3.67
2922.401 3.4795 3.248 2.9823 3.1504 3.3393 3.1664 3.0684 3.1189 3.0546 3.1201
2941.691 3.1577 3.3285 3.59 3.3722 3.2371 3.1949 2.6987 2.6866 2.8982 2.997
2960.981 3.4255 3.3807 3.3089 3.3448 3.2352 3.3571 3.3054 3.2165 3.012 2.8265
2980.271 3.0638 2.9749 2.6925 3.055 3.2156 3.2367 3.3183 3.1861 3.49 3.3889
2999.561 3.091 3.2121 3.1366 3.0112 2.6175 2.336 2.6922 2.8495 2.9879 3.1763
3018.850 2.9739 3.0046 3.0619 2.8247 3.0192 3.3582 3.2975 3.172 3.4064 3.67
3038.140 3.4479 2.9846 3.1045 3.49 3.66 3.58 3.2944 3.55 3.89 3.7
3057.430 3.8 4.1 4.05 4.07 4.04 4.13 4.39 4.66 5.14 5.41
3076.720 5.66 6.25 6.54 6.35 6.08 6.16 6.31 6.08 5.63 5.43
3096.009 5.06 4.41 4.43 4.52 4.09 3.59 3.78 3.98 3.62 3.4227
3115.299 3.71 4.05 4.24 4.07 3.78 3.57 3.87 3.9 3.4191 3.1965
3134.589 2.9847 2.8036 2.54869 2.816 3.1951 3.2001 3.1615 2.756 2.272 2.349
3153.879 2.56737 2.7039 2.9478 3.1861 2.9806 3.1353 2.9827 2.6736 2.48626 2.131
3173.169 2.072 2.269 2.6344 2.6635 2.6594 2.6169 2.303 2.221 2.363 2.28
3192.458 2.377 3.0521 3.3785 3.0843 2.7888 2.297 2.22 2.039 2.167 2.4277
3211.748 2.269 2.4321 2.8115 2.9991 2.7719 2.9823 2.8783 2.58902 2.6762 2.253
3231.038 2.4453 2.819 2.6721 2.4189 2.378 2.54096 2.135 1.885 2.57553 3.0356
3250.328 2.6446 2.6359 2.6114 2.6481 2.7576 2.52893 2.7986 3.2447 3.0674 2.9379
3269.617 2.823 2.54138 2.6 2.9625 2.873 2.6353 2.6109 2.6072 2.8534 2.8217
3288.907 2.56759 2.176 1.933 2.4718 2.56979 2.019 2.21 2.6933 2.50767 2.229
3308.197 2.6074 3.2364 3.3107 2.6973 2.329 2.576 2.6699 2.54184 2.4725 2.6301
3327.487 2.8983 3.0832 3.2019 2.8049 2.8156 2.9706 2.6186 2.8768 3.1038 2.4538
3346.777 2.029 2.4154 2.723 2.57333 2.067 2.317 2.7416 2.173 2.192 2.7349
3366.066 2.6605 2.6604 2.4792 2.52106 2.8024 2.4077 2.7698 3.2242 2.8905 2.4623
3385.356 2.4436 2.8766 2.8324 2.57128 2.51382 2.6499 2.9913 2.9978 3.0097 3.1145
3404.646 2.8564 2.7956 3.1384 3.384 3.2217 3.0612 3.0791 3.2319 3.1106 2.57532
3423.936 2.7195 2.9102 2.4893 2.4386 2.4501 2.7788 3.55 3.56 3.3125 3.57
3443.225 3.61 3.2827 3.2572 3.4038 3.55 3.075 3.1783 3.4596 3.2773 3.58
3462.515 3.68 4.04 4.38 5.02 6 6.44 7.43 9.01 10.08 10.99
3481.805 12.4 14.4 16.84 19.53 22.83 26.18 29.92 34.54 39.35 43.47
3501.095 45.83 45.91 44.2 42 39.62 37.45 34.7 29.3 23.04 17.49
3520.385 12.79 9.49 7.1 5.89 5.2 4.66 4.43 4.17 3.92 3.86
3539.674 3.72 3.62 3.83 3.74 3.2918 2.9834 2.6434 2.6922 2.7428 2.7447
3558.964 2.8954 3.0285 3.2273 2.8756 2.4234 2.9131 3.3539 3.0357 3.0736 3.14
3578.254 3.4133 3.56 3.1956 2.52117 2.7773 3.4882 3.1417 2.6743 2.4543 2.7153
3597.544 3.2544 3.51 3.0225 2.6274 2.375 2.031 2.205 2.4815 2.4047 2.098
3616.833 2.13 2.229 2.49771 2.9331 2.9834 3.0659 3.0996 2.9582 3.2939 3.53
3636.123 3.2027 2.962 2.9837 2.8397 2.7686 2.7158 2.807 2.297 2.163 2.169
3655.413 2.126 2.7422 3.1693 3.1515 2.6483 2.6039 2.8824 2.9317 3.0747 2.6969
3674.703 2.4295 3.0944 3.2492 2.8888 2.4756 2.53066 2.9198 2.8861 3.006 2.8684
3693.993 2.283 2.6492 3.0535 2.8578 2.53395 2.3966 2.342 2.189 2.671 3.4182
3713.282 3.0406 2.7723 2.9439 2.8144 2.7386 2.48837 2.6775 2.9215 2.7161 2.9453
3732.572 3.2924 3.0343 2.9406 2.9518 2.6443 2.309 2.239 2.48526 2.8473 2.714
3751.862 2.4661 2.55324 2.7971 3.1075 3.1544 3.1645 2.9741 2.58424 2.23 2.4049
3771.152 2.7083 2.8385 3.084 3.22 2.8363 2.4458 2.9804 3.2736 2.7234 2.369
3790.441 2.069 2.4447 2.86 2.9301 3.0639 2.8947 2.6795 2.352 2.139 2.275
3809.731 2.4338 2.5961 2.7 3.0456 3.1303 2.7264 2.56503 2.66 2.7327 2.332
3829.021 2.147 2.6977 3.1404 2.9216 2.8797 2.49027 2.336 2.6247 2.6987 2.7921
3848.311 2.455 2.366 2.7606 2.8847 2.6212 2.8571 3.0364 3.0671 3.2349 3.0663
3867.601 2.7934 2.51679 2.55036 2.6553 2.6967 2.8021 2.8958 2.9192 2.49214 2.51546
3886.890 3.0762 2.9525 2.5909 2.6884 2.6768 2.6177 2.9711 2.647 2.075 2.348
3906.180 2.751 2.9505 3.1544 2.9129 2.6351 2.6381 2.7272 2.8214 2.6506 2.9015
3925.470 3.2249 3.1728 2.9574 2.493 3.0835 3.265 2.7382 2.9024 3.1801 3.0489
3944.760 2.817 2.9633 2.8458 2.6608 2.092 2.352 3.102 2.8812 2.7586 2.681
3964.049 2.8113 3.0363 2.8753 2.6901 2.7353 2.4012 2.33 2.7909 3.0237 2.8746
3983.339 2.6429 2.7714 2.6702 2.7016 2.6306 2.635 2.8532 2.6747 2.7076 2.8609
##END=
