##TITLE=2,3-Dimethylanisole
##JCAMP-DX=4.24
##DATA TYPE=INFRARED SPECTRUM
##ORIGIN=NIST Mass Spectrometry Data Center
##OWNER=NIST Standard Reference Data Program
Collection (C) 2018 copyright by the U.S. Secretary of Commerce
on behalf of the United States of America. All rights reserved.
##CAS REGISTRY NO=2944-49-2
##MOLFORM=C 9 H 12 O
##$NIST SOURCE=MSDC-IR
##SPECTROMETER/DATA SYSTEM=HP-GC/MS/IRD
##STATE=gas
##XUNITS=1/CM
##YUNITS=ABSORBANCE
##XFACTOR=1.0
##YFACTOR=0.000002500
##DELTAX=4.0
##FIRSTX=550.0
##LASTX=3846.0
##FIRSTY=0.000498
##MAXX=3846
##MINX=550
##MAXY=0.025
##MINY=0
##NPOINTS=825
##XYDATA=(X++(Y..Y))
550.0 199 218 145 139 130 129 117 91 70 40
590.0 16 28 52 21 11 8 10 47 36 27
630.0 44 55 44 20 26 74 105 153 239 339
670.0 457 531 563 583 584 572 620 768 926 1210
710.0 1488 1380 1107 889 710 568 461 423 472 611
750.0 873 1188 1548 2102 2536 2488 2328 2068 1626 1208
790.0 852 587 446 359 278 233 224 194 155 130
830.0 112 110 128 131 121 125 145 175 212 242
870.0 262 271 257 228 181 148 129 113 106 99
910.0 97 93 98 86 101 121 121 120 123 146
950.0 169 190 210 244 296 348 404 447 488 542
990.0 601 663 730 799 872 935 986 1008 992 949
1030.0 904 884 885 922 976 1036 1102 1190 1329 1525
1070.0 1771 2069 2407 2749 3114 3545 4095 4817 5684 6487
1110.0 6911 6816 6210 5148 3751 2415 1543 1091 885 786
1150.0 749 769 826 891 921 928 921 916 905 883
1190.0 862 820 764 697 641 635 699 816 997 1305
1230.0 1764 2476 3554 5106 7103 8981 10000 9949 8981 7181
1270.0 4889 3047 2092 1708 1641 1765 1956 2085 2078 1920
1310.0 1624 1240 892 682 575 511 479 471 458 450
1350.0 431 422 418 405 400 399 420 454 486 507
1390.0 511 500 476 456 469 542 665 833 1077 1412
1430.0 1824 2243 2566 2783 2971 3212 3637 4405 5332 6096
1470.0 6519 6465 5817 4761 3628 2634 1888 1399 1123 974
1510.0 856 786 760 747 736 738 767 823 880 938
1550.0 1033 1181 1396 1648 1944 2297 2671 3028 3290 3412
1590.0 3359 3092 2634 2091 1584 1184 911 716 569 465
1630.0 395 350 312 280 260 266 265 238 228 223
1670.0 215 207 197 200 189 167 159 162 164 170
1710.0 178 184 197 184 174 178 175 163 142 124
1750.0 116 107 102 94 86 100 103 101 107 111
1790.0 124 133 139 152 150 143 139 130 122 114
1830.0 105 94 86 72 63 61 61 61 56 58
1870.0 69 88 107 129 162 194 216 221 217 206
1910.0 186 160 147 138 125 129 132 120 113 103
1950.0 93 79 66 66 69 73 83 87 80 75
1990.0 76 74 62 55 49 46 53 56 53 55
2030.0 62 58 54 57 56 49 50 61 66 68
2070.0 70 66 64 72 79 84 87 93 109 128
2110.0 139 144 157 184 192 177 152 134 112 85
2150.0 77 70 60 50 47 50 47 38 32 29
2190.0 29 28 13 9 14 14 14 15 16 17
2230.0 16 22 30 27 22 28 37 38 40 43
2270.0 44 46 43 38 31 21 14 8 12 14
2310.0 16 18 24 25 28 39 49 58 61 54
2350.0 44 46 48 38 29 27 24 24 29 23
2390.0 11 8 8 10 16 11 8 14 11 8
2430.0 15 15 20 24 19 20 24 22 23 26
2470.0 34 38 31 36 54 62 59 62 74 87
2510.0 91 85 75 68 59 48 36 37 52 66
2550.0 68 55 57 60 63 60 38 28 28 26
2590.0 24 21 21 16 15 22 20 12 9 15
2630.0 25 27 24 23 18 7 8 20 18 10
2670.0 12 9 12 18 27 29 32 40 39 50
2710.0 53 52 70 85 97 114 127 137 140 145
2750.0 131 113 116 110 120 131 142 157 163 167
2790.0 185 211 242 289 333 394 471 546 663 846
2830.0 1106 1422 1692 1855 1921 1905 1793 1666 1632 1675
2870.0 1733 1777 1818 1854 1900 1953 2029 2143 2299 2493
2910.0 2710 2951 3193 3468 3804 4166 4536 4863 5042 5016
2950.0 4800 4461 3984 3417 2977 2699 2508 2380 2327 2340
2990.0 2416 2517 2555 2509 2406 2255 2043 1851 1768 1761
3030.0 1773 1780 1770 1766 1782 1804 1851 1906 1939 1943
3070.0 1931 1863 1729 1546 1319 1111 926 746 586 453
3110.0 366 313 265 216 193 180 155 147 148 131
3150.0 113 113 113 105 107 84 72 81 72 69
3190.0 77 79 77 74 64 53 41 45 40 33
3230.0 40 41 35 32 17 5 7 3 9 14
3270.0 0 11 21 19 21 23 26 6 7 16
3310.0 14 21 21 8 8 22 25 20 21 36
3350.0 39 25 16 17 25 20 23 35 33 31
3390.0 19 17 26 28 32 33 29 15 6 21
3430.0 29 24 22 15 22 36 40 32 21 32
3470.0 40 32 31 35 30 29 31 37 45 31
3510.0 33 51 47 37 46 41 42 49 49 38
3550.0 39 57 58 48 42 40 41 57 68 64
3590.0 61 59 46 42 48 59 60 56 61 49
3630.0 44 45 44 58 57 44 30 24 35 38
3670.0 51 60 53 61 68 68 59 49 41 47
3710.0 56 42 45 64 61 52 47 54 69 73
3750.0 70 58 41 44 52 60 61 40 32 28
3790.0 36 56 74 85 88 87 81 72 73 69
3830.0 68 88 92 79 79
##END=
