##TITLE=.alpha.,.alpha.,.alpha.',.alpha.'-Tetramethyl-1,4-benzenedimethanol
##JCAMP-DX=4.24
##DATA TYPE=INFRARED SPECTRUM
##ORIGIN=EPA-IR VAPOR PHASE LIBRARY
##OWNER=SRD/NIST
Collection (C) 2018 copyright by the U.S. Secretary of Commerce
on behalf of the United States of America. All rights reserved.
##CAS REGISTRY NO=2948-46-1
##MOLFORM=C 12 H 18 O 2
##$NIST SOURCE=MSDC-IR
##STATE=gas
##XUNITS=1/CM
##YUNITS=ABSORBANCE
##XFACTOR=1.
##YFACTOR=0.001
##DELTAX=1.92898
##FIRSTX=549.8
##LASTX=4000.7
##FIRSTY=2.86
##MAXX=4000.7
##MINX=549.759
##MAXY=0.08671
##MINY=0.000002463
##NPOINTS=1790
##XYDATA=(X++(Y..Y))
549.759 2.86 3.05 3.03 2.95 3.09 3.33 3.6 4.22 4.55 5.13
569.049 5.95 6.8 7.97 9.18 10.51 11.88 13.33 14.5 15.26 15.92
588.339 16.12 15.39 14.19 12.84 11.18 9.79 8.51 7.12 6.08 5.16
607.628 4.72 4.53 4.23 4.18 3.89 3.45 3.65 3.92 4.09 4.3
626.918 4.15 4.14 4.13 3.79 3.55 3.47 3.07 2.45 2.14 2.27
646.208 2.19 2.02 2.01 1.91 1.74 1.49 1.48 1.31 1.13 1.13
665.498 1.01 1.01 1.02 1.2 1.33 1.22 1.29 1.39 1.35 1.35
684.787 1.52 1.57 1.5 1.47 1.37 1.3 1.32 1.28 1.31 1.27
704.077 1.02 0.8863 0.9642 1.05 1 0.9002 0.9103 0.9321 0.9442 0.9427
723.367 0.8821 0.9458 1.04 1.03 1.07 1.16 1.3 1.34 1.31 1.38
742.657 1.51 1.54 1.62 1.67 1.71 1.65 1.49 1.52 1.42 1.15
761.947 1.22 1.36 1.27 1.36 1.36 1.2 1.23 1.32 1.36 1.52
781.236 1.49 1.46 1.57 1.49 1.57 1.77 1.85 2.12 2.42 2.5
800.526 2.85 3.3 3.34 3.57 4.1 4.48 4.88 5.35 5.9 6.89
819.816 7.95 9.21 11.18 12.46 13.23 14.34 15.56 16.77 17.47 17.96
839.106 18.4 18.6 18.6 18.55 18.39 18.08 17.84 17.39 16.71 15.84
858.395 14.89 13.97 13.07 12.3 11.42 10.53 9.69 8.7 7.6 6.82
877.685 6.43 5.74 4.83 4.47 4.12 3.81 3.62 3.47 3.54 3.39
896.975 3.25 3.27 3.21 2.97 3.23 3.74 3.8 3.88 4.21 4.52
916.265 4.81 5.16 5.61 6.31 7.21 8.2 9.35 10.52 11.83 13.38
935.555 15.05 16.84 18.81 20.77 22.61 23.92 24.68 24.84 24.47 23.5
954.844 21.74 19.5 17.15 15 13.13 11.22 9.51 8.25 7.17 6.31
974.134 5.56 4.92 4.41 4.1 3.74 3.55 3.43 3.26 3.25 3.14
993.424 3.32 3.63 3.62 3.69 4.17 4.97 5.9 7.28 9 10.99
1012.714 12.45 12.69 12.62 11.74 10.25 8.45 6.46 4.9 3.97 3.89
1032.003 4.08 3.82 3.6 3.6 3.5 3.76 3.94 3.9 3.93 3.8
1051.293 3.71 3.67 3.83 4.38 5.06 5.5 5.68 6.37 6.9 7.25
1070.583 7.94 8.93 10.14 10.9 12.09 13.33 13.77 14.96 16.59 17.53
1089.873 18.62 20.03 21.5 23.57 25.71 27.69 29.48 31.57 33.8 35.28
1109.163 36.46 36.89 36.87 36.72 35.52 33.72 31.82 29.5 27.01 24.89
1128.452 22.89 21.48 20.36 19.15 18.78 18.8 18.57 18.84 19.42 20.13
1147.742 21.08 22.22 24.16 26.02 27.73 29.61 31.43 33.19 34.52 35.56
1167.032 35.99 35.66 34.36 32.07 29.43 26.86 23.87 20.97 18.74 16.33
1186.322 14.36 13.25 12.21 11.19 10.26 9.9 9.64 8.89 8.61 8.46
1205.611 8.39 8.58 8.72 8.64 8.77 9.5 10.06 10.33 10.48 10.79
1224.901 11.32 11.85 12.04 12.32 12.63 13.02 13.75 14.36 15.03 16.03
1244.191 17.17 18.33 19.72 20.96 22.08 23.34 24.27 25.02 25.57 25.54
1263.481 25.2 24.58 23.94 23.48 22.83 22.28 21.81 21.43 21.13 20.88
1282.771 20.7 20.58 20.47 20.22 20.18 20.29 20.43 20.82 21.44 21.99
1302.060 22.75 23.59 24.33 25.12 25.85 26.48 26.92 27.12 26.95 26.5
1321.350 25.82 24.83 23.64 22.41 21.16 19.98 18.89 17.85 16.88 16.15
1340.640 15.53 15.05 14.83 14.71 14.76 15.09 15.64 16.34 17.25 18.34
1359.930 19.51 20.63 21.63 22.4 22.85 22.85 22.41 21.87 21.27 20.69
1379.219 20.32 20.04 19.71 19.47 19.25 18.95 18.58 18.14 17.82 17.6
1398.509 17.34 16.94 16.41 15.71 14.74 13.54 12.31 11.12 9.92 8.88
1417.799 8.07 7.38 6.79 6.33 5.97 5.7 5.52 5.45 5.38 5.43
1437.089 5.56 5.57 5.61 5.73 6 6.33 6.57 6.89 7.29 7.64
1456.378 8.02 8.26 8.29 8.24 8.23 8.1 7.75 7.42 7.05 6.56
1475.668 6.15 5.82 5.46 5.17 4.96 4.83 4.88 5.12 5.34 5.51
1494.958 5.9 6.42 7.01 7.72 8.36 8.97 9.46 9.57 9.25 8.62
1514.248 7.75 6.76 5.65 4.71 3.92 3.28 2.87 2.59 2.41 2.32
1533.538 2.24 2.12 2.02 1.83 1.69 1.59 1.42 1.26 1.15 1.11
1552.827 1.08 0.9967 0.9967 1.1 0.9611 0.8327 0.8738 0.826 0.7452 0.7234
1572.117 0.6863 0.7253 0.7893 0.6902 0.6516 0.6108 0.6297 0.669 0.6466 0.7848
1591.407 0.8306 0.7578 0.7716 0.7687 0.7266 0.7348 0.7635 0.72 0.6885 0.654
1610.697 0.6781 0.711 0.6821 0.7446 0.7391 0.7374 0.804 0.803 0.7858 0.7889
1629.986 0.7557 0.7075 0.8057 0.9624 0.9282 0.8888 0.8796 0.9565 1.04 1.04
1649.276 1.13 1.25 1.28 1.16 1.08 1.12 1.22 1.23 1.16 1.12
1668.566 1.21 1.19 1.08 1.06 1.01 0.9533 0.9218 0.8895 0.8501 0.7877
1687.856 0.7192 0.6536 0.6418 0.6822 0.6604 0.6185 0.679 0.6468 0.5378 0.5305
1707.146 0.445 0.4075 0.4342 0.4107 0.4386 0.4746 0.4448 0.373 0.3792 0.3959
1726.435 0.4298 0.3824 0.3402 0.4467 0.4854 0.3706 0.3433 0.3483 0.2948 0.3214
1745.725 0.3843 0.4477 0.4975 0.5318 0.5153 0.5824 0.7137 0.7549 0.7918 0.8157
1765.015 0.8185 0.8703 0.9193 0.9659 1.01 1.01 1.04 1.07 1.16 1.28
1784.305 1.39 1.37 1.33 1.39 1.44 1.41 1.36 1.25 1.19 1.18
1803.594 1.05 0.8982 0.79 0.7829 0.8368 0.7822 0.6732 0.6142 0.511 0.4323
1822.884 0.4035 0.3783 0.3899 0.4075 0.3795 0.2859 0.2628 0.2925 0.2419 0.1719
1842.174 0.2042 0.2633 0.3271 0.2955 0.1805 0.1754 0.1687 0.1897 0.2568 0.2554
1861.464 0.291 0.3013 0.2751 0.3009 0.3929 0.4664 0.4833 0.5158 0.5135 0.5851
1880.754 0.6628 0.6488 0.7142 0.7991 0.7785 0.8004 0.8547 0.8514 0.9244 0.9839
1900.043 1.03 1.06 1.05 1.07 1.11 1.15 1.08 0.968 0.9323 0.9012
1919.333 0.8348 0.8264 0.7701 0.688 0.6797 0.6492 0.6025 0.5608 0.4859 0.4694
1938.623 0.4666 0.4039 0.3481 0.3015 0.2741 0.2559 0.2545 0.2696 0.273 0.2008
1957.913 0.1559 0.1337 0.1628 0.1898 0.1648 0.1807 0.1937 0.1788 0.1771 0.1853
1977.202 0.1666 0.1139 0.1327 0.1835 0.1226 0.08182 0.1057 0.1397 0.1338 0.09238
1996.492 0.1068 0.1265 0.08966 0.09863 0.1352 0.1766 0.1875 0.1621 0.1221 0.1302
2015.782 0.1695 0.1691 0.1971 0.2041 0.1736 0.1549 0.1802 0.2239 0.2124 0.2201
2035.072 0.2385 0.2015 0.1339 0.1417 0.1923 0.1549 0.1744 0.2029 0.1471 0.1655
2054.362 0.1658 0.08929 0.08719 0.1591 0.1552 0.1211 0.1199 0.0644 0.06425 0.05708
2073.651 0.002463 0.04617 0.1014 0.0922 0.09533 0.1202 0.1094 0.07943 0.07108 0.102
2092.941 0.1057 0.1062 0.1097 0.1435 0.1874 0.1975 0.208 0.2207 0.2305 0.2041
2112.231 0.2458 0.2852 0.2224 0.1356 0.146 0.2047 0.1286 0.09755 0.1669 0.2134
2131.521 0.1629 0.1256 0.2241 0.1441 0.06994 0.1824 0.1362 0.04967 0.08031 0.0746
2150.810 0.07505 0.07065 0.02386 0.03751 0.04249 0.0607 0.1006 0.0641 0.07091 0.1012
2170.100 0.144 0.2287 0.255 0.192 0.136 0.1207 0.199 0.2139 0.1672 0.1692
2189.390 0.2053 0.2053 0.1636 0.1782 0.2275 0.2384 0.1881 0.1718 0.2125 0.2355
2208.680 0.2418 0.2532 0.2703 0.3083 0.2628 0.2267 0.1709 0.2098 0.2641 0.2608
2227.970 0.2845 0.2365 0.2113 0.2318 0.2261 0.2672 0.271 0.1604 0.198 0.2511
2247.259 0.1681 0.1345 0.1198 0.1041 0.1155 0.1645 0.1338 0.1414 0.2268 0.1953
2266.549 0.1925 0.1614 0.141 0.2019 0.1771 0.09391 0.1112 0.2943 0.3468 0.2811
2285.839 0.2829 0.3402 0.3784 0.3278 0.3295 0.309 0.2764 0.2946 0.3195 0.3672
2305.129 0.3862 0.4007 0.3714 0.3033 0.3258 0.3735 0.4253 0.4338 0.3956 0.3406
2324.418 0.3329 0.2914 0.2415 0.2692 0.2225 0.2109 0.2856 0.3112 0.29 0.2446
2343.708 0.1824 0.2115 0.2746 0.2299 0.1843 0.2549 0.2797 0.2558 0.2698 0.2716
2362.998 0.2993 0.3272 0.3334 0.3404 0.3094 0.2818 0.2117 0.2252 0.2755 0.2863
2382.288 0.3198 0.3251 0.264 0.2425 0.2723 0.2842 0.278 0.2149 0.2868 0.3353
2401.578 0.311 0.2696 0.2715 0.34 0.3216 0.3226 0.3515 0.2958 0.2773 0.2787
2420.867 0.3097 0.3041 0.1804 0.1554 0.1627 0.2003 0.1715 0.1629 0.2907 0.2964
2440.157 0.2412 0.2072 0.2159 0.2211 0.1743 0.1854 0.2628 0.2922 0.2398 0.1447
2459.447 0.1081 0.1789 0.3141 0.3131 0.2175 0.2441 0.281 0.3051 0.3014 0.2727
2478.737 0.2409 0.2961 0.3748 0.3263 0.307 0.2552 0.1904 0.1568 0.1938 0.2609
2498.026 0.2534 0.2919 0.3417 0.3132 0.2527 0.2203 0.2297 0.3302 0.3608 0.278
2517.316 0.2494 0.318 0.3251 0.2649 0.2135 0.1766 0.2002 0.2672 0.3446 0.3804
2536.606 0.2843 0.2814 0.3257 0.2067 0.2041 0.2666 0.2947 0.3025 0.3115 0.2755
2555.896 0.2238 0.3407 0.4201 0.3777 0.3717 0.4444 0.3996 0.2486 0.1944 0.2085
2575.186 0.1765 0.2388 0.3401 0.3524 0.2838 0.2397 0.3694 0.4713 0.4458 0.3422
2594.475 0.289 0.2643 0.3108 0.4238 0.388 0.37 0.425 0.3876 0.347 0.3395
2613.765 0.2707 0.2938 0.3102 0.3467 0.3842 0.3735 0.4296 0.4523 0.4618 0.4383
2633.055 0.4144 0.4205 0.4047 0.3462 0.276 0.3644 0.4173 0.2685 0.2219 0.2351
2652.345 0.3333 0.378 0.3594 0.3572 0.2957 0.327 0.3993 0.3634 0.299 0.3223
2671.634 0.3564 0.3312 0.3439 0.3554 0.4052 0.4564 0.4818 0.4734 0.3652 0.3459
2690.924 0.302 0.3479 0.5366 0.6296 0.546 0.4753 0.5173 0.473 0.4431 0.5286
2710.214 0.6104 0.649 0.6667 0.6406 0.64 0.7003 0.7824 0.8181 0.7756 0.785
2729.504 0.7863 0.7513 0.7786 0.7635 0.6966 0.6979 0.763 0.7391 0.7274 0.7704
2748.794 0.718 0.6396 0.6841 0.7147 0.6769 0.686 0.6691 0.6169 0.6703 0.7073
2768.083 0.6738 0.6698 0.6557 0.6636 0.7559 0.7488 0.7526 0.8519 0.8667 0.8682
2787.373 0.8389 0.8132 0.9494 1.05 1.05 1.07 1.17 1.29 1.26 1.29
2806.663 1.42 1.5 1.53 1.54 1.62 1.63 1.62 1.62 1.65 1.71
2825.953 1.77 1.73 1.66 1.77 1.87 2.01 2.23 2.36 2.51 2.63
2845.242 2.72 2.92 3.19 3.56 3.9 4.25 4.65 5.04 5.6 6.2
2864.532 6.73 7.45 8.26 8.9 9.3 9.69 10.06 10.27 10.42 10.52
2883.822 10.55 10.53 10.51 10.45 10.41 10.57 10.83 11 11.31 11.81
2903.112 12.27 12.67 13.11 13.51 13.83 14.31 14.72 15.11 15.75 16.57
2922.401 17.54 18.69 19.99 21.35 22.61 23.73 24.78 25.55 26.06 26.29
2941.691 25.8 24.62 23.16 21.64 20.34 19.31 18.71 18.7 19.27 20.67
2960.981 23.1 26.58 31.04 36.75 43.63 51.43 60.09 69.07 77.41 83.72
2980.271 86.71 85.95 81.84 74.69 65.33 55.19 45.54 37.18 30.43 25.15
2999.561 21.06 17.72 14.9 12.68 11 9.59 8.51 7.71 7.16 6.62
3018.850 6.18 6.07 6.07 6.16 6.33 6.74 7.2 7.57 8 8.32
3038.140 8.43 8.42 8.33 8.04 7.58 7.13 6.57 6.21 6.01 5.83
3057.430 5.89 5.83 5.63 5.6 5.6 5.5 5.4 5.32 5.3 5.4
3076.720 5.51 5.6 5.68 5.85 6.01 6.1 6.12 6.06 5.94 5.74
3096.009 5.46 5.1 4.71 4.28 3.95 3.66 3.39 3.09 2.82 2.63
3115.299 2.53 2.38 2.29 2.18 1.94 1.92 1.82 1.66 1.73 1.63
3134.589 1.36 1.36 1.37 1.28 1.17 1.07 1.09 1.13 1.15 1.05
3153.879 0.9596 0.8674 0.8745 0.877 0.8045 0.7249 0.6788 0.6726 0.7631 0.8031
3173.169 0.8911 0.9546 0.8935 0.9126 0.8442 0.8772 0.9861 1.06 1.13 1.04
3192.458 1.01 1.09 1.1 1.14 0.9915 0.9518 1.08 0.9798 0.914 0.8897
3211.748 1.01 1.11 1.09 1.05 0.9558 0.9686 0.9917 0.8777 0.7153 0.8381
3231.038 0.9607 0.9272 1 0.8953 0.7863 0.8352 0.7613 0.6721 0.6346 0.6712
3250.328 0.6922 0.7004 0.7374 0.7159 0.6113 0.516 0.5193 0.5102 0.4907 0.5109
3269.617 0.5141 0.6206 0.7586 0.7655 0.7067 0.5739 0.5002 0.5445 0.4651 0.4608
3288.907 0.4701 0.2695 0.2297 0.3829 0.4905 0.5326 0.5391 0.6134 0.6359 0.523
3308.197 0.4287 0.4321 0.3975 0.4569 0.4952 0.4244 0.4482 0.4439 0.5244 0.5415
3327.487 0.5479 0.5684 0.6107 0.6359 0.6166 0.6371 0.6534 0.7373 0.7627 0.7105
3346.777 0.6267 0.6338 0.6314 0.4861 0.5099 0.6134 0.578 0.5293 0.6006 0.5975
3366.066 0.5967 0.664 0.6591 0.6108 0.5607 0.6212 0.6405 0.6253 0.5614 0.5454
3385.356 0.732 0.6622 0.447 0.6114 0.6489 0.5811 0.6295 0.7656 0.8437 0.6804
3404.646 0.6247 0.661 0.5765 0.6397 0.7491 0.6386 0.5356 0.6272 0.6513 0.5808
3423.936 0.5806 0.5009 0.5382 0.6233 0.575 0.5572 0.5947 0.5184 0.43 0.5378
3443.225 0.6743 0.7216 0.7164 0.5891 0.5816 0.5655 0.4952 0.5846 0.6944 0.6743
3462.515 0.5999 0.4989 0.3633 0.4541 0.6628 0.6237 0.556 0.5502 0.4206 0.3669
3481.805 0.376 0.3746 0.3651 0.3719 0.3582 0.3769 0.2478 0.2074 0.4375 0.5609
3501.095 0.5045 0.4364 0.5229 0.5875 0.5097 0.416 0.4427 0.246 0.07019 0.1702
3520.385 0.2042 0.2889 0.4331 0.492 0.4131 0.4168 0.4849 0.3286 0.2701 0.3921
3539.674 0.2901 0.2157 0.2874 0.4276 0.4769 0.2652 0.2063 0.2197 0.3112 0.4679
3558.964 0.5401 0.5698 0.4822 0.4953 0.6043 0.5499 0.4646 0.5453 0.42 0.3427
3578.254 0.3977 0.5176 0.4521 0.4214 0.7522 0.8242 0.7827 0.7413 0.6913 0.7444
3597.544 0.8803 0.9293 0.8909 1.09 1.3 1.46 1.79 2.02 2.26 2.59
3616.833 3.03 3.67 4.2 4.74 5.52 6.39 7.2 7.91 8.73 9.56
3636.123 10.14 10.46 10.56 10.26 9.82 9.36 8.52 7.42 6.32 5.42
3655.413 4.73 4.05 3.44 2.95 2.35 1.93 1.8 1.73 1.62 1.46
3674.703 1.31 1.09 0.9747 0.9079 0.7714 0.7102 0.7703 0.9087 0.7956 0.6327
3693.993 0.6204 0.6416 0.6546 0.5338 0.4646 0.5097 0.4947 0.5834 0.5803 0.4919
3713.282 0.4823 0.4688 0.4358 0.3372 0.4498 0.5906 0.4792 0.455 0.4105 0.4376
3732.572 0.5304 0.5895 0.5184 0.3021 0.5087 0.5941 0.4569 0.5132 0.5676 0.5184
3751.862 0.4887 0.5763 0.5627 0.3588 0.2371 0.4439 0.5897 0.51 0.4082 0.3562
3771.152 0.3607 0.3601 0.3039 0.3846 0.3193 0.2522 0.4504 0.5526 0.5312 0.3858
3790.441 0.274 0.2676 0.296 0.311 0.4558 0.5583 0.4435 0.373 0.3463 0.2728
3809.731 0.1871 0.3018 0.4737 0.3375 0.4062 0.5268 0.3235 0.2996 0.3751 0.4896
3829.021 0.5863 0.5127 0.6291 0.7353 0.7601 0.8815 0.6409 0.3574 0.4151 0.4926
3848.311 0.625 0.8924 1.05 0.954 0.7342 0.5266 0.6106 0.776 0.8045 0.7682
3867.601 0.744 0.7471 0.6999 0.7562 0.6616 0.6001 0.7333 0.7481 0.7256 0.7059
3886.890 0.7057 0.6403 0.7579 0.7816 0.6373 0.6335 0.6645 0.692 0.6655 0.7711
3906.180 0.7002 0.4916 0.555 0.6614 0.6277 0.613 0.5903 0.6175 0.665 0.7229
3925.470 0.6979 0.4921 0.4347 0.5396 0.5501 0.5467 0.59 0.5335 0.4301 0.3692
3944.760 0.2908 0.3605 0.5099 0.4236 0.45 0.4095 0.2695 0.3991 0.4477 0.3587
3964.049 0.3083 0.4031 0.4316 0.2781 0.3165 0.4567 0.4782 0.4301 0.4045 0.5248
3983.339 0.5275 0.4325 0.4146 0.4649 0.4633 0.4856 0.3609 0.3154 0.4009 0.4197
##END=
