##TITLE=Cyclotetradecane
##JCAMP-DX=4.24
##DATA TYPE=INFRARED SPECTRUM
##ORIGIN=NIST Mass Spectrometry Data Center
##OWNER=NIST Standard Reference Data Program
Collection (C) 2018 copyright by the U.S. Secretary of Commerce
on behalf of the United States of America. All rights reserved.
##CAS REGISTRY NO=295-17-0
##MOLFORM=C 14 H 28
##$NIST SOURCE=MSDC-IR
##SPECTROMETER/DATA SYSTEM=HP-GC/MS/IRD
##STATE=gas
##XUNITS=1/CM
##YUNITS=ABSORBANCE
##XFACTOR=1.0
##YFACTOR=0.000007800
##DELTAX=4.0
##FIRSTX=550.0
##LASTX=3846.0
##FIRSTY=0.000125
##MAXX=3846
##MINX=550
##MAXY=0.078
##MINY=0
##NPOINTS=825
##XYDATA=(X++(Y..Y))
550.0 16 10 4 11 14 11 13 4 4 12
590.0 18 10 3 6 4 12 21 19 16 14
630.0 9 9 15 20 23 26 25 23 24 27
670.0 33 33 40 45 48 70 101 141 186 233
710.0 253 237 208 163 125 102 88 82 83 83
750.0 79 74 67 62 59 57 52 51 50 41
790.0 45 47 37 35 40 42 36 32 30 27
830.0 26 22 24 22 17 19 21 21 23 31
870.0 35 34 33 35 34 34 32 32 29 24
910.0 25 27 26 25 26 28 25 21 20 21
950.0 19 19 23 20 21 25 25 23 23 19
990.0 20 24 26 24 25 26 26 28 26 26
1030.0 28 31 35 36 42 46 46 46 41 35
1070.0 34 33 29 27 28 26 26 31 32 31
1110.0 31 30 26 28 31 30 26 25 25 23
1150.0 18 17 19 22 24 24 23 24 26 26
1190.0 27 26 26 29 32 35 38 45 49 46
1230.0 48 48 46 47 49 55 66 78 90 100
1270.0 103 101 102 105 116 127 132 129 120 111
1310.0 103 97 90 88 92 107 132 170 217 257
1350.0 272 253 214 173 141 113 91 73 62 54
1390.0 49 50 54 58 61 65 69 75 79 89
1430.0 112 155 238 364 511 638 719 754 760 690
1470.0 545 386 256 171 122 96 77 66 57 53
1510.0 51 44 39 38 35 33 31 27 25 24
1550.0 24 24 22 23 22 19 18 17 15 14
1590.0 11 13 13 14 13 13 13 11 12 13
1630.0 12 10 9 9 9 10 10 8 7 8
1670.0 8 7 9 10 9 7 5 7 7 6
1710.0 6 7 7 6 5 5 6 5 4 5
1750.0 6 5 5 6 7 6 5 5 6 7
1790.0 5 5 5 4 3 3 4 4 3 4
1830.0 5 6 3 3 6 6 3 2 2 3
1870.0 5 3 3 2 2 2 1 1 2 2
1910.0 1 0 0 0 0 1 3 4 5 4
1950.0 2 3 4 3 2 5 5 3 1 1
1990.0 4 5 3 4 6 6 4 5 7 6
2030.0 6 7 7 9 10 10 8 6 5 5
2070.0 6 7 8 7 8 5 4 5 6 5
2110.0 4 2 2 3 2 4 5 5 6 7
2150.0 6 7 6 7 6 6 8 9 9 8
2190.0 7 7 6 5 6 7 6 5 6 7
2230.0 5 5 5 7 6 6 7 6 7 8
2270.0 7 8 7 6 5 4 5 4 5 4
2310.0 5 7 8 8 7 6 8 8 6 7
2350.0 6 4 6 7 7 5 4 3 4 6
2390.0 6 4 3 4 4 2 5 5 4 5
2430.0 6 6 5 6 5 6 7 5 5 6
2470.0 5 5 6 7 9 10 13 14 13 13
2510.0 14 13 14 17 17 16 18 20 21 21
2550.0 24 20 21 23 24 24 26 30 30 31
2590.0 30 31 33 36 36 35 39 43 44 48
2630.0 52 54 59 64 70 73 78 83 86 92
2670.0 98 105 111 111 109 105 99 93 87 80
2710.0 76 75 73 72 74 75 76 75 77 79
2750.0 80 83 88 91 94 100 109 116 128 141
2790.0 151 163 178 192 208 230 259 288 313 340
2830.0 375 422 503 660 972 1536 2296 3040 3557 3702
2870.0 3464 2956 2376 1899 1609 1520 1628 1961 2517 3265
2910.0 4057 4783 5685 6924 8394 9622 10000 9291 7787 6070
2950.0 4606 3512 2689 2040 1534 1159 889 699 561 464
2990.0 387 328 286 253 226 205 186 165 147 132
3030.0 120 111 101 95 94 89 83 81 78 72
3070.0 65 62 58 57 52 49 47 44 47 47
3110.0 42 43 44 44 41 39 36 32 33 33
3150.0 31 32 33 34 32 29 27 25 26 24
3190.0 21 26 26 26 27 22 22 23 21 19
3230.0 19 19 17 18 16 14 14 14 15 14
3270.0 14 15 14 12 13 15 14 14 15 13
3310.0 12 14 15 12 13 15 13 12 12 14
3350.0 14 12 11 12 11 13 16 16 16 13
3390.0 8 10 14 13 11 13 14 14 15 14
3430.0 12 12 11 12 12 10 10 14 13 11
3470.0 8 6 8 5 1 6 9 8 8 9
3510.0 8 7 10 10 7 9 11 11 13 13
3550.0 10 8 8 12 15 13 12 15 16 15
3590.0 16 17 16 17 20 23 20 19 20 21
3630.0 22 21 22 22 24 26 26 24 22 21
3670.0 21 24 23 21 20 18 18 19 23 24
3710.0 22 24 24 23 22 21 24 22 20 22
3750.0 24 22 19 22 24 23 22 23 23 22
3790.0 23 23 19 20 23 25 28 28 25 21
3830.0 20 20 24 26 26
##END=
