##TITLE=Cyclopentadecane
##JCAMP-DX=4.24
##DATA TYPE=INFRARED SPECTRUM
##ORIGIN=NIST Mass Spectrometry Data Center
##OWNER=NIST Standard Reference Data Program
Collection (C) 2018 copyright by the U.S. Secretary of Commerce
on behalf of the United States of America. All rights reserved.
##CAS REGISTRY NO=295-48-7
##MOLFORM=C 15 H 30
##$NIST SOURCE=MSDC-IR
##SPECTROMETER/DATA SYSTEM=HP-GC/MS/IRD
##STATE=gas
##XUNITS=1/CM
##YUNITS=ABSORBANCE
##XFACTOR=1.0
##YFACTOR=0.000009700
##DELTAX=4.0
##FIRSTX=550.0
##LASTX=3846.0
##FIRSTY=0.000320
##MAXX=3846
##MINX=550
##MAXY=0.097
##MINY=0
##NPOINTS=825
##XYDATA=(X++(Y..Y))
550.0 33 29 24 21 13 12 14 4 0 8
590.0 15 17 18 14 15 13 15 19 14 12
630.0 15 14 14 13 17 20 17 14 15 21
670.0 26 35 42 45 49 60 74 97 128 160
710.0 178 177 167 150 132 127 128 121 116 107
750.0 96 86 73 64 60 55 50 48 45 45
790.0 48 47 46 43 38 36 39 39 38 34
830.0 37 43 41 42 42 36 36 38 36 32
870.0 31 31 33 33 33 34 32 31 29 32
910.0 30 25 24 25 25 26 27 29 28 27
950.0 28 28 27 26 27 29 30 30 28 30
990.0 30 27 30 32 35 37 35 36 37 38
1030.0 38 38 37 36 38 39 39 40 38 37
1070.0 39 40 42 44 40 38 39 36 33 32
1110.0 29 24 25 27 26 26 28 26 27 32
1150.0 30 28 28 29 29 27 29 33 33 31
1190.0 30 29 29 30 33 35 35 36 39 41
1230.0 43 44 43 45 45 47 48 51 56 65
1270.0 76 88 99 106 113 118 123 127 124 115
1310.0 105 95 90 89 91 105 130 163 202 239
1350.0 255 245 211 171 140 111 87 71 57 49
1390.0 47 48 50 52 57 63 67 71 79 91
1430.0 111 147 221 337 477 606 693 734 718 618
1470.0 465 316 209 144 109 85 70 60 52 47
1510.0 42 37 31 29 29 27 25 23 20 19
1550.0 20 21 18 17 18 17 16 16 15 16
1590.0 15 14 13 11 12 13 12 11 10 10
1630.0 9 8 9 7 6 7 7 6 5 5
1670.0 6 7 7 5 6 4 2 2 2 4
1710.0 5 4 4 5 4 2 2 4 3 2
1750.0 3 4 2 3 5 4 5 3 3 3
1790.0 1 1 3 4 4 3 2 3 2 1
1830.0 1 2 3 2 2 3 2 1 1 1
1870.0 3 3 1 2 2 1 1 2 2 1
1910.0 2 0 0 1 1 0 1 2 1 0
1950.0 1 0 1 2 3 4 2 1 1 2
1990.0 3 4 2 4 5 4 4 6 7 7
2030.0 8 7 6 3 4 5 7 4 4 5
2070.0 4 5 4 5 6 5 5 6 4 4
2110.0 5 3 4 4 4 5 6 6 7 9
2150.0 7 7 8 7 7 5 5 4 4 5
2190.0 4 4 5 4 5 5 4 4 6 6
2230.0 5 6 5 6 5 5 7 6 5 6
2270.0 5 6 6 5 6 5 7 7 6 6
2310.0 6 4 6 5 4 5 5 5 5 4
2350.0 3 2 2 3 3 2 1 2 2 1
2390.0 4 6 4 5 5 4 4 5 6 7
2430.0 6 4 1 2 3 4 4 2 3 3
2470.0 3 4 4 6 7 6 8 11 11 12
2510.0 15 16 16 17 18 19 21 21 22 22
2550.0 21 23 19 21 24 25 27 26 27 29
2590.0 29 31 34 35 37 40 44 47 47 47
2630.0 51 55 59 65 69 71 72 77 82 87
2670.0 93 97 101 104 105 102 95 89 84 80
2710.0 76 75 73 72 71 71 74 75 75 79
2750.0 83 85 90 93 98 104 108 114 126 139
2790.0 153 168 183 197 213 235 263 293 323 355
2830.0 392 442 526 678 964 1497 2271 3071 3603 3659
2870.0 3250 2630 2060 1668 1475 1451 1583 1893 2393 3057
2910.0 3767 4495 5396 6644 8200 9555 10000 9221 7553 5707
2950.0 4166 3021 2204 1630 1229 946 746 599 492 414
2990.0 353 304 262 230 205 183 167 154 141 128
3030.0 119 111 102 98 97 90 83 82 80 72
3070.0 67 66 60 59 57 54 54 50 47 43
3110.0 40 40 41 38 37 37 38 38 37 36
3150.0 37 37 34 32 32 31 32 29 26 29
3190.0 31 30 27 26 26 24 24 25 26 25
3230.0 22 21 20 17 15 16 18 18 14 11
3270.0 11 14 12 9 12 13 12 13 14 14
3310.0 12 13 12 11 11 10 8 11 13 13
3350.0 14 13 12 13 12 13 12 13 10 10
3390.0 9 6 10 11 12 15 12 12 14 13
3430.0 11 9 6 7 10 8 5 6 5 6
3470.0 4 1 2 1 1 3 1 2 5 5
3510.0 4 1 0 3 4 4 3 5 4 4
3550.0 3 4 6 6 7 9 8 8 6 5
3590.0 9 13 15 16 15 12 10 10 12 14
3630.0 13 13 13 12 14 13 12 14 14 14
3670.0 13 11 14 14 12 13 15 18 17 13
3710.0 16 19 17 16 14 12 10 12 14 13
3750.0 11 11 15 14 13 12 14 14 11 12
3790.0 16 19 18 16 17 19 19 14 14 16
3830.0 17 13 8 13 17
##END=
