##TITLE=o-Methoxybenzaldehyde oxime
##JCAMP-DX=4.24
##DATA TYPE=INFRARED SPECTRUM
##ORIGIN=EPA-IR VAPOR PHASE LIBRARY
##OWNER=SRD/NIST
Collection (C) 2018 copyright by the U.S. Secretary of Commerce
on behalf of the United States of America. All rights reserved.
##CAS REGISTRY NO=29577-53-5
##MOLFORM=C 8 H 9 N O 2
##$NIST SOURCE=MSDC-IR
##STATE=gas
##XUNITS=1/CM
##YUNITS=ABSORBANCE
##XFACTOR=1.
##YFACTOR=0.001
##DELTAX=1.92898
##FIRSTX=549.8
##LASTX=4000.7
##FIRSTY=4.061
##MAXX=4000.7
##MINX=549.759
##MAXY=0.136021
##MINY=0
##NPOINTS=1790
##XYDATA=(X++(Y..Y))
549.759 4.061 3.911 4.091 4.361 4.541 4.571 4.611 4.821 5.131 5.441
569.049 5.851 6.161 6.311 6.871 7.111 6.741 6.731 6.711 6.641 6.521
588.339 5.951 5.191 4.791 4.631 4.221 4.041 4.081 3.961 3.831 3.701
607.628 3.751 4.031 4.321 4.491 4.891 5.731 7.211 9.161 11.361 13.901
626.918 16.761 19.441 21.201 22.151 22.971 23.121 22.351 21.181 19.011 16.111
646.208 13.131 10.621 8.911 7.661 6.871 6.651 6.531 6.601 6.991 6.881
665.498 6.461 6.631 6.741 6.551 6.621 6.761 6.751 6.601 6.451 6.241
684.787 6.111 6.211 6.291 6.251 6.181 6.291 6.551 6.711 6.781 7.001
704.077 7.661 8.291 8.411 8.671 9.081 9.411 9.831 10.061 10.571 11.261
723.367 12.041 13.191 14.761 16.911 19.261 22.531 26.781 31.001 34.961 38.361
742.657 41.381 44.421 48.031 52.781 56.201 54.771 50.091 45.161 40.681 36.611
761.947 32.511 28.541 24.951 21.761 19.421 17.761 16.661 16.281 15.841 15.151
781.236 14.641 14.271 13.701 12.951 12.301 11.251 10.031 8.951 8.011 7.221
800.526 6.471 6.031 5.901 5.601 5.251 5.151 5.001 4.851 4.741 4.761
819.816 4.801 4.661 4.461 4.351 4.341 4.341 4.361 4.531 4.681 4.941
839.106 5.301 5.651 6.291 7.271 8.101 9.041 10.581 12.611 15.451 18.891
858.395 23.031 27.491 31.561 35.071 37.531 39.201 40.241 40.401 39.301 36.711
877.685 33.121 29.061 25.081 21.711 19.201 17.261 15.441 13.931 12.791 11.871
896.975 11.271 10.941 10.761 10.781 11.111 11.701 12.481 13.421 14.481 15.721
916.265 17.361 19.251 21.291 24.141 27.881 32.181 37.471 44.051 51.571 59.841
935.555 68.751 77.821 85.891 91.741 94.821 94.801 92.051 87.131 79.861 69.581
954.844 56.891 44.021 32.681 23.721 17.621 13.791 11.551 10.181 9.071 8.411
974.134 7.891 7.371 7.111 7.221 7.181 7.181 7.351 7.341 7.521 7.791
993.424 8.191 8.461 8.971 9.761 10.241 11.031 12.021 13.021 14.371 16.111
1012.714 17.941 19.961 21.881 23.521 25.511 27.401 28.981 30.211 31.211 32.231
1032.003 33.131 33.371 32.951 32.731 32.481 31.401 30.191 28.651 26.821 25.271
1051.293 23.481 21.551 19.391 16.981 14.901 12.981 11.151 9.511 8.621 8.361
1070.583 7.881 7.241 6.201 5.551 5.851 6.371 6.431 6.281 6.691 7.521
1089.873 8.041 9.351 11.481 13.391 15.241 16.951 19.151 20.701 21.361 21.861
1109.163 21.811 21.391 20.591 18.931 16.671 14.541 12.311 10.201 8.661 7.021
1128.452 6.191 5.991 5.401 5.031 4.751 4.591 4.661 5.131 5.651 6.261
1147.742 7.521 9.081 10.381 11.221 12.001 12.291 12.351 12.981 13.261 13.161
1167.032 13.171 13.331 13.041 12.331 12.301 12.621 12.931 13.031 13.191 13.801
1186.322 14.191 14.191 14.001 13.711 13.331 12.661 12.581 12.591 11.921 11.181
1205.611 11.031 11.281 11.441 12.091 12.961 14.251 15.791 17.491 19.611 22.901
1224.901 27.321 32.211 37.991 45.301 54.071 63.381 73.851 84.781 95.231 105.551
1244.191 114.951 122.921 129.371 134.051 136.021 134.211 128.631 121.081 112.831 103.991
1263.481 94.871 85.531 76.811 69.411 63.341 58.501 55.161 52.911 50.771 48.831
1282.771 47.041 44.931 42.951 41.191 39.231 36.901 34.311 31.631 29.031 26.791
1302.060 24.741 22.691 20.671 18.691 16.751 14.841 13.021 11.561 10.351 9.361
1321.350 8.631 7.901 7.291 6.861 6.541 6.211 5.911 5.691 5.511 5.421
1340.640 5.361 5.271 5.231 5.141 5.051 5.051 5.061 5.021 4.981 4.971
1359.930 4.951 4.931 4.941 5.071 5.351 5.711 6.121 6.671 7.351 8.211
1379.219 9.331 10.651 12.151 13.761 15.471 17.121 18.581 19.801 20.571 20.831
1398.509 20.661 19.931 18.871 17.581 16.061 14.471 12.931 11.641 10.831 10.471
1417.799 10.571 11.051 11.851 13.081 14.691 16.621 18.831 21.211 23.521 25.541
1437.089 27.031 27.741 28.081 28.471 28.811 28.881 28.811 28.761 29.141 30.271
1456.378 32.061 34.241 36.601 38.861 40.531 41.671 42.141 42.261 42.981 44.501
1475.668 46.261 48.031 49.941 52.001 53.761 54.991 55.471 55.041 53.541 50.961
1494.958 47.441 43.131 38.091 32.711 27.451 22.591 18.301 14.981 12.571 10.701
1514.248 9.351 8.291 7.401 6.791 6.251 5.661 5.121 4.721 4.421 4.041
1533.538 3.761 3.621 3.561 3.521 3.441 3.511 3.601 3.671 3.901 4.191
1552.827 4.541 5.021 5.651 6.431 7.181 8.031 9.101 10.101 11.131 12.131
1572.117 12.881 13.591 14.161 14.671 15.181 15.621 16.071 16.611 17.301 18.251
1591.407 19.461 20.851 22.131 23.101 23.591 23.541 23.081 22.411 21.601 20.321
1610.697 18.651 16.951 15.541 14.431 13.351 12.381 11.501 10.641 9.911 9.241
1629.986 8.421 7.341 6.191 5.181 4.301 3.531 3.081 2.801 2.621 2.481
1649.276 2.261 2.111 2.001 1.951 1.891 1.821 1.751 1.731 1.781 1.831
1668.566 1.871 1.951 2.031 2.111 2.141 2.181 2.241 2.261 2.301 2.341
1687.856 2.351 2.331 2.221 2.171 2.161 2.071 2.081 2.061 1.871 1.861
1707.146 1.861 1.711 1.651 1.631 1.681 1.661 1.571 1.491 1.351 1.331
1726.435 1.421 1.381 1.301 1.311 1.351 1.2414 1.1852 1.2291 1.2074 1.2019
1745.725 1.1949 1.1836 1.2405 1.301 1.311 1.341 1.401 1.441 1.501 1.621
1765.015 1.641 1.701 1.821 1.841 1.871 1.961 1.991 2.011 2.061 2.081
1784.305 2.081 2.151 2.171 2.121 2.121 2.101 2.101 2.141 2.211 2.271
1803.594 2.231 2.181 2.201 2.201 2.221 2.281 2.231 2.161 2.071 1.951
1822.884 1.951 1.951 1.861 1.841 1.821 1.781 1.751 1.711 1.681 1.631
1842.174 1.671 1.741 1.781 1.801 1.831 1.981 2.061 2.091 2.201 2.351
1861.464 2.521 2.611 2.671 2.751 2.851 2.961 3.011 3.061 3.121 3.191
1880.754 3.291 3.331 3.341 3.431 3.531 3.501 3.441 3.461 3.451 3.361
1900.043 3.241 3.101 2.971 2.801 2.621 2.521 2.411 2.281 2.121 2.001
1919.333 1.951 1.871 1.781 1.761 1.811 1.871 1.911 1.931 1.951 1.971
1938.623 1.931 1.841 1.781 1.711 1.591 1.431 1.341 1.1759 1.0396 0.9809
1957.913 0.8718 0.8278 0.8169 0.8789 0.9127 0.8297 0.797 0.8784 0.8884 0.8859
1977.202 0.9326 0.8862 0.8189 0.8404 0.8635 0.9019 0.9309 0.8815 0.9401 1.0428
1996.492 1.0233 1.0298 1.2092 1.311 1.401 1.531 1.581 1.641 1.761 2.011
2015.782 2.201 2.301 2.421 2.551 2.741 2.851 2.931 2.961 2.911 2.911
2035.072 2.911 2.811 2.681 2.561 2.511 2.501 2.371 2.261 2.161 2.101
2054.362 2.081 2.091 2.111 2.021 1.901 1.831 1.801 1.751 1.691 1.611
2073.651 1.571 1.551 1.491 1.361 1.1957 1.1182 1.1078 1.0465 1.0319 0.987
2092.941 0.883 0.8082 0.8296 0.9082 0.833 0.7547 0.7052 0.6607 0.6991 0.7405
2112.231 0.7638 0.725 0.7039 0.7321 0.7363 0.7549 0.7624 0.7422 0.7653 0.8286
2131.521 0.8309 0.8716 0.9342 0.8634 0.8426 0.8816 0.894 0.8579 0.7743 0.7678
2150.810 0.786 0.7803 0.8165 0.8266 0.7676 0.743 0.7043 0.6259 0.6227 0.6327
2170.100 0.5874 0.5625 0.6062 0.6029 0.5796 0.5895 0.5869 0.5839 0.6027 0.6408
2189.390 0.6352 0.6014 0.6364 0.6665 0.638 0.6867 0.7345 0.7489 0.7089 0.6685
2208.680 0.7084 0.6668 0.6022 0.6297 0.6638 0.694 0.7011 0.7268 0.741 0.7272
2227.970 0.7392 0.7955 0.8143 0.8059 0.8783 0.8889 0.8483 0.9272 1.0013 0.971
2247.259 1.0009 1.08 1.051 1.0013 1.0652 1.0567 1.0823 1.1259 1.0796 1.0717
2266.549 1.1305 1.1904 1.1282 1.0714 1.0919 1.1344 1.1105 1.0199 1.0331 1.0596
2285.839 1.025 0.9807 0.9618 0.9414 0.8861 0.8482 0.7892 0.7635 0.8313 0.8689
2305.129 0.8675 0.8466 0.9039 0.935 0.8767 0.8642 0.9167 1.0483 1.1409 1.1176
2324.418 1.0676 1.0235 1.0001 1.0403 0.9669 0.9467 1.021 1.0379 1.0062 0.9378
2343.708 0.9356 0.8478 0.7426 0.7404 0.806 0.8807 0.8695 0.8896 0.9352 0.8618
2362.998 0.8087 0.8974 0.91 0.8664 0.9175 0.9428 0.9533 0.9297 0.9118 0.9312
2382.288 0.9053 0.8536 0.8576 0.8849 0.8365 0.8071 0.8357 0.844 0.8207 0.781
2401.578 0.7298 0.7678 0.8365 0.7848 0.7381 0.7689 0.7186 0.6655 0.637 0.6111
2420.867 0.588 0.6141 0.6461 0.6627 0.6267 0.5393 0.4507 0.4814 0.5179 0.4861
2440.157 0.5382 0.4936 0.5375 0.5357 0.5486 0.5999 0.5943 0.6481 0.6583 0.7056
2459.447 0.6985 0.7058 0.7701 0.852 0.9077 0.9212 0.9328 0.9961 1.0573 1.11
2478.737 1.2137 1.301 1.451 1.571 1.611 1.601 1.581 1.601 1.651 1.631
2498.026 1.631 1.661 1.681 1.701 1.661 1.591 1.571 1.631 1.541 1.381
2517.316 1.2901 1.2814 1.321 1.331 1.2763 1.2534 1.2846 1.311 1.2835 1.257
2536.606 1.2669 1.2437 1.301 1.311 1.2758 1.2612 1.2444 1.301 1.2878 1.301
2555.896 1.381 1.341 1.2666 1.2062 1.1894 1.1427 1.1278 1.1639 1.0847 0.9746
2575.186 0.922 0.982 0.9519 0.9462 0.972 0.9706 1.0156 1.0183 1.024 0.9604
2594.475 0.9054 0.9595 0.9891 0.8914 0.8916 0.9599 0.9503 0.9522 0.9353 0.9209
2613.765 1.0037 1.0678 1.123 1.1295 1.0792 1.1382 1.2542 1.2859 1.2117 1.2235
2633.055 1.321 1.391 1.421 1.371 1.361 1.351 1.2692 1.2759 1.321 1.2498
2652.345 1.2061 1.1914 1.0885 0.855 0.7124 0.7958 0.801 0.756 0.7281 0.7114
2671.634 0.738 0.6811 0.6427 0.6077 0.6304 0.6832 0.6357 0.6417 0.6247 0.6938
2690.924 0.7408 0.6938 0.6734 0.6481 0.7212 0.8128 0.7894 0.8074 0.8626 0.8915
2710.214 0.8891 0.8342 0.7725 0.7256 0.7572 0.8557 0.85 0.7997 0.7527 0.6474
2729.504 0.5858 0.6284 0.7609 0.7668 0.736 0.7184 0.7452 0.7519 0.6572 0.6883
2748.794 0.7065 0.6287 0.6821 0.803 0.9575 1.0449 0.972 0.9632 1.0205 1.146
2768.083 1.2245 1.2433 1.2901 1.311 1.401 1.401 1.351 1.451 1.571 1.581
2787.373 1.541 1.571 1.651 1.781 1.911 1.901 1.881 1.841 2.001 2.201
2806.663 2.301 2.461 2.541 2.681 2.911 3.161 3.481 3.861 4.141 4.561
2825.953 5.151 5.711 6.431 7.471 8.571 9.761 11.241 12.481 13.301 13.821
2845.242 14.111 14.241 14.191 13.781 13.081 12.001 10.671 9.541 8.641 7.861
2864.532 7.221 6.731 6.381 6.251 6.101 5.981 5.991 6.011 6.091 6.211
2883.822 6.421 6.591 6.761 7.011 7.171 7.341 7.601 7.861 8.211 8.401
2903.112 8.611 8.991 9.411 9.851 10.271 10.761 11.211 11.611 11.911 12.211
2922.401 12.361 12.441 12.761 13.181 13.731 14.531 15.571 16.891 18.351 19.861
2941.691 21.451 22.691 23.611 24.291 24.671 24.921 24.771 24.251 23.321 22.301
2960.981 21.391 20.151 18.701 17.301 16.131 15.331 14.611 13.871 13.261 12.821
2980.271 12.471 12.141 12.101 12.241 12.391 12.581 12.891 13.261 13.791 14.521
2999.561 15.371 16.141 16.661 16.871 16.841 16.531 16.031 15.671 15.001 14.061
3018.850 13.031 11.851 10.921 10.361 9.971 9.861 9.761 9.701 9.841 9.821
3038.140 9.891 10.081 10.201 10.211 10.281 10.361 10.331 10.551 10.811 11.111
3057.430 11.591 12.081 12.601 13.171 13.861 14.701 15.431 16.141 16.811 17.291
3076.720 17.571 17.531 17.011 16.261 15.401 14.481 13.411 11.931 10.231 8.761
3096.009 7.561 6.571 5.851 5.461 5.091 4.681 4.421 4.201 4.011 3.651
3115.299 3.181 2.931 2.721 2.611 2.401 2.101 1.981 1.901 1.731 1.461
3134.589 1.441 1.501 1.501 1.511 1.521 1.531 1.451 1.351 1.371 1.491
3153.879 1.481 1.341 1.2231 1.1558 1.0877 0.9579 0.9608 0.9453 0.7727 0.8342
3173.169 0.8922 0.6667 0.6305 0.6752 0.7153 0.6598 0.5922 0.7215 0.6906 0.6434
3192.458 0.5938 0.579 0.5735 0.511 0.5039 0.33012 0.30347 0.4721 0.4078 0.35212
3211.748 0.4762 0.5628 0.5191 0.4463 0.30829 0.28474 0.5605 0.4936 0.2805 0.292139
3231.038 0.28753 0.3582 0.5174 0.4851 0.31378 0.37749 0.4863 0.5438 0.5647 0.5489
3250.328 0.4999 0.5312 0.7263 0.7968 0.7472 0.8305 0.9959 1.0176 0.9444 1.0609
3269.617 1.1675 1.0216 0.91 0.8522 0.8294 0.754 0.7345 0.6906 0.512 0.4879
3288.907 0.4768 0.37005 0.4519 0.5486 0.5423 0.37183 0.2036 0.31045 0.32943 0.34632
3308.197 0.4853 0.3057 0.073 0.2508 0.34231 0.34148 0.2258 0.2 0.358 0.30772
3327.487 0.2693 0.290366 0.30115 0.3236 0.38483 0.4381 0.4025 0.35143 0.2428 0.175
3346.777 0.290135 0.34278 0.2358 0.2342 0.1956 0.14 0.2013 0.1961 0.182 0.154
3366.066 0.144 0.165 0.14 0.2711 0.33912 0.257 0.2692 0.2306 0.2156 0.2329
3385.356 0.2045 0.2661 0.36203 0.4292 0.28557 0.168 0.30196 0.30888 0.28142 0.38598
3404.646 0.38099 0.2223 0.1966 0.2557 0.2013 0.112 0.1982 0.28391 0.34065 0.3989
3423.936 0.38331 0.32071 0.2513 0.2509 0.2467 0.2259 0.178 0.215 0.276 0.291969
3443.225 0.134 0.014 0.096 0.003 0 0.2127 0.2741 0.2801 0.32191 0.265
3462.515 0.2037 0.174 0.2236 0.2069 0.2074 0.2474 0.2797 0.31634 0.2174 0.101
3481.805 0.2119 0.36581 0.292753 0.31146 0.34716 0.2044 0.191 0.31037 0.4137 0.4427
3501.095 0.4151 0.37834 0.37997 0.2627 0.1969 0.28504 0.2175 0.28156 0.3915 0.5173
3520.385 0.4659 0.2007 0.2495 0.4035 0.435 0.4922 0.4879 0.454 0.5016 0.5104
3539.674 0.5521 0.6068 0.5382 0.5439 0.5923 0.4742 0.564 0.6899 0.7287 0.9397
3558.964 1.0018 1.1593 1.351 1.431 1.441 1.441 1.511 1.481 1.441 1.461
3578.254 1.511 1.491 1.441 1.651 1.771 1.801 1.931 2.041 1.951 2.081
3597.544 2.401 2.571 2.951 3.361 3.771 4.451 5.151 5.911 7.111 8.421
3616.833 10.101 12.091 14.451 17.341 20.761 25.051 30.141 35.891 42.321 50.551
3636.123 60.421 69.641 74.531 73.841 71.091 68.191 62.131 56.201 49.851 38.161
3655.413 24.961 14.821 8.811 5.491 3.771 3.031 2.711 2.471 2.251 1.991
3674.703 1.931 1.971 1.731 1.551 1.551 1.601 1.581 1.491 1.471 1.541
3693.993 1.631 1.671 1.511 1.301 1.381 1.461 1.361 1.361 1.311 1.361
3713.282 1.431 1.441 1.491 1.341 1.1449 0.9315 0.7672 0.7181 0.6013 0.621
3732.572 0.7829 0.6926 0.595 0.5984 0.5767 0.5162 0.5471 0.5753 0.4815 0.4945
3751.862 0.6 0.5539 0.5587 0.5357 0.35329 0.30961 0.37987 0.5044 0.546 0.523
3771.152 0.4528 0.3542 0.297589 0.31623 0.4352 0.30153 0.2105 0.201 0.088 0.096
3790.441 0.211 0.36134 0.31076 0.2143 0.156 0.2335 0.31622 0.177 0.186 0.35065
3809.731 0.38871 0.178 0.099 0.2682 0.35974 0.31224 0.204 0.118 0.179 0.189
3829.021 0.105 0.35273 0.4353 0.29972 0.32513 0.4286 0.468 0.406 0.297058 0.2177
3848.311 0.31862 0.30442 0.2578 0.4179 0.5086 0.4001 0.4161 0.5295 0.5007 0.4083
3867.601 0.33942 0.281 0.3634 0.4775 0.5005 0.5644 0.4907 0.4237 0.37634 0.2721
3886.890 0.300609 0.467 0.4631 0.35608 0.4556 0.4314 0.48 0.5326 0.4056 0.34912
3906.180 0.2705 0.2506 0.37469 0.4712 0.4351 0.4597 0.5467 0.5223 0.4061 0.38984
3925.470 0.48 0.5028 0.5403 0.5961 0.5354 0.5196 0.6573 0.6585 0.5265 0.5106
3944.760 0.5542 0.5528 0.6049 0.7036 0.7044 0.4107 0.3956 0.6412 0.7622 0.8058
3964.049 0.6999 0.6824 0.5938 0.6248 0.6586 0.5227 0.4028 0.4767 0.614 0.7026
3983.339 0.7108 0.5854 0.6346 0.8136 0.787 0.7278 0.6908 0.5825 0.6203 0.6107
##END=
