##TITLE=1-Chloro-2,3-indoledione
##JCAMP-DX=4.24
##DATA TYPE=INFRARED SPECTRUM
##ORIGIN=EPA-IR VAPOR PHASE LIBRARY
##OWNER=SRD/NIST
Collection (C) 2018 copyright by the U.S. Secretary of Commerce
on behalf of the United States of America. All rights reserved.
##CAS REGISTRY NO=2959-03-7
##MOLFORM=C 8 H 4 Cl N O 2
##$NIST SOURCE=MSDC-IR
##STATE=gas
##XUNITS=1/CM
##YUNITS=ABSORBANCE
##XFACTOR=1.
##YFACTOR=0.001
##DELTAX=1.92898
##FIRSTX=549.8
##LASTX=4000.7
##FIRSTY=1.1663
##MAXX=4000.7
##MINX=549.759
##MAXY=0.070794
##MINY=0
##NPOINTS=1790
##XYDATA=(X++(Y..Y))
549.759 1.1663 1.1882 1.354 1.474 1.454 1.0784 1.2322 1.514 1.564 1.484
569.049 1.494 1.784 1.894 2.054 2.374 2.584 2.714 2.714 2.674 2.294
588.339 1.534 1.1762 0.9456 0.734 0.6996 0.5619 0.4533 0.5544 0.5757 0.586
607.628 0.6358 0.5342 0.5139 0.5779 0.6842 0.5994 0.6964 0.8883 0.7238 0.7327
626.918 0.8402 0.7324 0.6099 0.6515 0.6468 0.7532 0.9587 1.1147 1.434 1.604
646.208 1.784 1.944 1.914 2.024 2.224 2.194 2.114 2.004 1.814 1.684
665.498 1.504 1.464 1.484 1.304 1.1138 1.263 1.524 1.754 1.784 2.074
684.787 2.844 3.994 5.174 6.134 7.174 7.774 8.154 8.464 8.164 7.324
704.077 6.124 4.834 3.784 2.994 2.414 1.934 1.624 1.594 1.554 1.624
723.367 1.824 1.934 2.034 2.304 2.734 3.014 3.114 3.124 3.074 3.084
742.657 3.104 2.864 2.384 1.994 1.604 1.2577 1.0543 0.8967 0.9935 1.0243
761.947 0.8583 0.7367 0.6897 0.8036 0.6783 0.5006 0.7493 0.9297 0.9073 0.9137
781.236 0.931 0.9666 1.0608 1.1641 1.2726 1.2261 1.1835 1.514 1.834 2.104
800.526 2.604 3.244 3.994 4.624 5.224 5.974 6.844 7.664 8.134 7.904
819.816 7.034 6.374 5.784 4.994 4.434 3.744 2.864 2.274 1.944 1.624
839.106 1.364 1.1728 1.0661 1.2497 1.0794 0.7869 0.8904 0.8689 0.9803 1.1696
858.395 1.0371 1.0655 1.2011 1.1616 1.2387 1.2275 1.1765 1.1821 1.0965 1.1638
877.685 1.314 1.374 1.314 1.564 1.814 1.874 2.034 2.294 2.494 2.734
896.975 3.204 3.374 3.284 3.194 2.964 2.704 2.644 2.564 2.334 2.054
916.265 1.834 1.554 1.334 1.314 1.2486 1.0387 1.0189 1.1316 1.1232 1.0659
935.555 0.9774 0.8229 0.7623 0.9006 0.8928 0.8031 0.799 0.7576 0.8063 0.8905
954.844 0.9006 0.8749 0.8831 0.9899 1.0751 0.9404 0.8801 1.0271 1.0604 1.0521
974.134 1.1265 1.215 1.1711 0.9604 0.9141 1.0878 1.0388 0.8889 0.9064 0.9246
993.424 0.8659 0.8701 0.7746 0.5064 0.497 0.6371 0.5841 0.5131 0.4956 0.4772
1012.714 0.455 0.4437 0.5035 0.4929 0.5157 0.5859 0.8397 0.9562 0.7971 0.8176
1032.003 0.6628 0.5407 0.5531 0.9181 1.1848 1.1 1.584 1.704 1.804 2.254
1051.293 2.514 2.984 3.394 3.484 3.474 3.684 4.064 3.874 3.474 3.254
1070.583 3.034 2.664 2.394 2.024 1.684 1.644 1.544 1.694 1.864 2.004
1089.873 2.054 1.784 1.984 2.944 3.864 4.434 5.294 6.694 8.244 9.924
1109.163 11.574 12.654 13.574 14.534 14.494 14.294 13.464 11.594 9.754 8.254
1128.452 6.794 5.494 4.604 3.534 3.024 2.954 2.944 3.344 3.714 4.094
1147.742 4.704 5.354 5.584 6.204 6.714 6.514 6.674 7.194 7.924 9.004
1167.032 11.064 14.044 17.554 20.874 23.554 25.444 26.264 26.574 25.464 22.324
1186.322 18.394 14.934 12.044 9.804 8.444 6.994 5.574 4.694 4.204 3.574
1205.611 2.744 2.314 2.324 2.484 2.404 2.764 3.324 3.704 4.014 4.404
1224.901 5.054 5.524 5.694 5.844 5.934 5.734 5.474 5.514 5.344 4.814
1244.191 4.904 5.034 5.214 5.884 6.454 7.204 8.404 9.724 11.214 12.524
1263.481 13.364 14.094 14.414 14.424 14.394 14.104 13.474 12.404 11.384 10.504
1282.771 9.284 7.874 6.574 5.494 4.724 4.214 3.894 3.704 3.534 3.284
1302.060 3.034 2.804 2.564 2.314 2.114 1.944 1.764 1.684 1.594 1.494
1321.350 1.434 1.334 1.249 1.1539 1.1007 1.0911 1.0489 0.9834 0.9414 0.9957
1340.640 1.1656 1.344 1.534 1.764 2.064 2.434 2.794 3.224 3.814 4.514
1359.930 5.234 5.844 6.324 6.524 6.334 6.004 5.544 4.744 3.744 2.714
1379.219 1.884 1.474 1.304 1.1555 1.0795 1.0968 1.1444 1.1762 1.2354 1.354
1398.509 1.574 1.804 2.024 2.324 2.604 2.864 3.054 3.254 3.444 3.594
1417.799 3.784 4.084 4.444 4.954 5.754 6.754 7.954 9.424 11.104 12.754
1437.089 14.574 16.294 17.754 18.944 19.554 19.444 18.764 17.964 17.174 16.644
1456.378 16.554 17.244 18.934 21.604 25.054 28.764 31.924 33.804 33.864 32.494
1475.668 30.074 26.644 22.254 17.244 12.644 9.044 6.514 4.854 3.814 3.134
1494.958 2.654 2.254 1.904 1.604 1.434 1.354 1.1338 1.0128 1.0176 1.0091
1514.248 1.0285 1.0661 1.0817 1.0107 0.984 0.9696 0.9583 1.0364 1.0921 1.1551
1533.538 1.1683 1.1644 1.2177 1.2146 1.1802 1.1143 1.1236 1.1028 0.934 0.8646
1552.827 0.8643 0.8765 0.9502 0.9859 0.9487 0.9891 1.105 1.1732 1.232 1.324
1572.117 1.454 1.654 1.974 2.254 2.574 3.024 3.524 4.124 4.784 5.614
1591.407 6.664 7.934 9.514 11.384 13.494 15.954 18.544 21.074 23.274 24.974
1610.697 26.104 26.554 26.284 25.464 24.394 23.034 21.544 20.154 18.894 17.534
1629.986 16.004 14.314 12.604 10.854 9.124 7.684 6.494 5.474 4.654 4.054
1649.276 3.684 3.284 2.834 2.614 2.454 2.214 1.954 1.714 1.564 1.514
1668.566 1.414 1.344 1.364 1.374 1.424 1.504 1.564 1.644 1.804 2.034
1687.856 2.254 2.464 2.694 2.894 3.074 3.244 3.354 3.534 3.684 3.784
1707.146 3.914 3.984 3.964 4.024 4.154 4.284 4.434 4.564 4.784 5.114
1726.435 5.444 5.854 6.324 6.814 7.624 8.644 9.724 11.074 12.714 14.754
1745.725 17.364 20.744 24.984 30.274 36.254 42.164 47.304 50.414 51.624 51.814
1765.015 51.204 49.014 44.684 39.444 34.724 32.454 33.354 37.484 44.874 54.134
1784.305 62.724 68.504 70.794 70.624 68.174 62.484 52.394 39.684 28.874 21.754
1803.594 17.524 14.764 12.764 11.074 9.634 8.354 7.214 6.214 5.434 4.784
1822.884 4.244 3.814 3.434 3.084 2.814 2.524 2.334 2.224 2.074 1.954
1842.174 1.854 1.764 1.704 1.664 1.654 1.624 1.574 1.574 1.644 1.694
1861.464 1.694 1.654 1.604 1.554 1.524 1.544 1.524 1.454 1.404 1.334
1880.754 1.314 1.294 1.2246 1.1959 1.1523 1.0211 0.9483 0.9126 0.8905 0.8665
1900.043 0.8507 0.8794 0.8578 0.8546 0.8661 0.8843 0.9202 0.9545 0.9451 0.9047
1919.333 0.8811 0.9101 0.9221 0.9133 0.9104 0.8731 0.8505 0.8335 0.8523 0.8536
1938.623 0.7543 0.7187 0.7102 0.6888 0.655 0.6097 0.6284 0.6291 0.6199 0.5433
1957.913 0.5096 0.5645 0.5906 0.5954 0.615 0.6138 0.6623 0.6597 0.5452 0.5852
1977.202 0.6147 0.5304 0.4873 0.5064 0.5344 0.5258 0.5618 0.5716 0.574 0.6439
1996.492 0.6563 0.6144 0.5924 0.5932 0.6222 0.6124 0.5793 0.569 0.5495 0.5458
2015.782 0.554 0.5246 0.5239 0.5164 0.4813 0.4607 0.4273 0.4586 0.4781 0.4565
2035.072 0.4531 0.4078 0.3871 0.4205 0.4688 0.4779 0.448 0.4554 0.441 0.4201
2054.362 0.4589 0.4468 0.4399 0.5033 0.5009 0.5385 0.5223 0.4952 0.5089 0.4788
2073.651 0.4735 0.4721 0.5076 0.4973 0.5392 0.5954 0.5332 0.5068 0.5411 0.568
2092.941 0.6499 0.6989 0.6584 0.6441 0.6479 0.6852 0.7609 0.7293 0.6869 0.7007
2112.231 0.6887 0.718 0.7433 0.7181 0.6645 0.6697 0.686 0.6576 0.6893 0.7182
2131.521 0.6779 0.6646 0.6266 0.5996 0.6819 0.7145 0.6793 0.6425 0.6218 0.6639
2150.810 0.669 0.5857 0.5359 0.5804 0.6354 0.6407 0.6184 0.6206 0.6078 0.5216
2170.100 0.4521 0.4858 0.5447 0.5761 0.585 0.548 0.4848 0.4994 0.4997 0.4743
2189.390 0.5318 0.5546 0.5129 0.5157 0.5663 0.585 0.5974 0.5035 0.4249 0.4823
2208.680 0.5513 0.62 0.6085 0.5638 0.5938 0.6054 0.5709 0.5516 0.531 0.547
2227.970 0.6128 0.5848 0.5196 0.5697 0.5692 0.509 0.4932 0.5032 0.5845 0.6026
2247.259 0.5524 0.5181 0.5158 0.5474 0.5255 0.5358 0.5207 0.5132 0.489 0.4504
2266.549 0.4596 0.3919 0.3949 0.4872 0.5354 0.5434 0.5892 0.6028 0.595 0.6126
2285.839 0.5897 0.586 0.635 0.6866 0.6582 0.7005 0.7632 0.7721 0.8182 0.7802
2305.129 0.7347 0.7724 0.7817 0.761 0.7649 0.7118 0.6673 0.6491 0.6578 0.7138
2324.418 0.7516 0.6901 0.6237 0.6727 0.7095 0.7394 0.7228 0.5765 0.5709 0.6144
2343.708 0.6047 0.6153 0.6348 0.6482 0.6319 0.6676 0.6453 0.5703 0.5911 0.6336
2362.998 0.588 0.5207 0.5351 0.5759 0.6394 0.6958 0.6909 0.62 0.5622 0.6061
2382.288 0.6478 0.6679 0.6932 0.7446 0.7389 0.6432 0.6013 0.5969 0.5773 0.6256
2401.578 0.6168 0.5986 0.5578 0.5406 0.622 0.6129 0.5468 0.582 0.6035 0.5506
2420.867 0.548 0.5287 0.5727 0.6001 0.5744 0.599 0.5849 0.5037 0.4497 0.4366
2440.157 0.4403 0.477 0.5439 0.5824 0.5219 0.5064 0.5442 0.5386 0.6025 0.6421
2459.447 0.5962 0.6165 0.6402 0.6136 0.63 0.6441 0.5892 0.5499 0.524 0.4957
2478.737 0.5148 0.5697 0.5473 0.4793 0.546 0.6014 0.6007 0.6199 0.6105 0.586
2498.026 0.566 0.5948 0.5881 0.5741 0.5881 0.5863 0.5855 0.5468 0.5633 0.6012
2517.316 0.5755 0.5369 0.5077 0.5171 0.5653 0.5548 0.4582 0.3811 0.4387 0.5337
2536.606 0.488 0.4921 0.5388 0.5305 0.4964 0.4776 0.4937 0.4634 0.3989 0.4496
2555.896 0.5214 0.4896 0.4283 0.4225 0.4787 0.5228 0.5251 0.5577 0.5537 0.5598
2575.186 0.622 0.5835 0.6057 0.6423 0.6034 0.5712 0.6329 0.6191 0.5599 0.6354
2594.475 0.6942 0.6269 0.5507 0.5656 0.5952 0.5583 0.5393 0.5949 0.6313 0.5818
2613.765 0.5258 0.4396 0.4316 0.5487 0.6113 0.5675 0.4902 0.4547 0.4446 0.4411
2633.055 0.4385 0.4848 0.5344 0.5082 0.4428 0.4754 0.5004 0.4371 0.4342 0.5007
2652.345 0.5051 0.432 0.34556 0.3793 0.4642 0.4738 0.4283 0.435 0.5211 0.5572
2671.634 0.5389 0.5242 0.4755 0.4014 0.4197 0.4341 0.4376 0.4597 0.4348 0.5093
2690.924 0.588 0.5381 0.4721 0.4429 0.4848 0.488 0.4078 0.4188 0.5214 0.5627
2710.214 0.5363 0.538 0.5475 0.5448 0.486 0.4813 0.5849 0.5834 0.5593 0.5599
2729.504 0.5262 0.4846 0.4747 0.4219 0.4327 0.527 0.4837 0.5089 0.5059 0.4559
2748.794 0.5011 0.5148 0.5848 0.5884 0.5731 0.66 0.5851 0.4681 0.4875 0.4794
2768.083 0.4919 0.5494 0.5965 0.5631 0.437 0.4156 0.3955 0.4043 0.5214 0.5474
2787.373 0.4883 0.4254 0.4167 0.3885 0.4212 0.516 0.5018 0.4221 0.4144 0.469
2806.663 0.4702 0.4853 0.4232 0.3929 0.4684 0.5077 0.5193 0.4717 0.4919 0.4322
2825.953 0.4447 0.5411 0.5794 0.5375 0.4522 0.5248 0.5792 0.6226 0.6607 0.6094
2845.242 0.5864 0.5642 0.5572 0.599 0.5366 0.4974 0.5323 0.5586 0.5459 0.5741
2864.532 0.5795 0.4795 0.4502 0.4766 0.5082 0.5298 0.5629 0.5754 0.5223 0.41
2883.822 0.34074 0.37265 0.4669 0.5163 0.4576 0.36547 0.31596 0.32153 0.33523 0.3618
2903.112 0.4194 0.4558 0.4026 0.35366 0.3965 0.4126 0.36548 0.4452 0.493 0.4424
2922.401 0.5206 0.6145 0.543 0.5126 0.402 0.30071 0.4751 0.5984 0.5335 0.4997
2941.691 0.5255 0.5246 0.5611 0.5615 0.5011 0.5029 0.5126 0.4468 0.4084 0.4817
2960.981 0.4915 0.36977 0.4471 0.5564 0.4753 0.4447 0.422 0.4184 0.4495 0.4776
2980.271 0.5292 0.45 0.4522 0.4716 0.4811 0.5546 0.5576 0.417 0.32256 0.4289
2999.561 0.5112 0.4874 0.4375 0.4866 0.4801 0.5252 0.5989 0.5942 0.5999 0.5578
3018.850 0.603 0.6059 0.5293 0.6214 0.7012 0.7837 0.8744 0.8788 0.8243 0.7619
3038.140 0.8279 0.9776 0.9921 0.9043 0.8727 0.8473 0.8795 0.9428 0.9635 0.9195
3057.430 0.9095 0.9712 0.9993 1.0069 0.9651 1.0478 1.1644 1.1905 1.1736 1.0627
3076.720 1.0611 1.1045 1.0251 0.9901 0.956 0.8554 0.8693 0.8973 0.7254 0.6105
3096.009 0.645 0.6719 0.6978 0.6427 0.5806 0.4995 0.4721 0.5104 0.35716 0.278337
3115.299 0.32398 0.3979 0.4083 0.3741 0.35154 0.3755 0.4769 0.4847 0.4737 0.31925
3134.589 0.28562 0.31223 0.2927 0.37003 0.4413 0.4722 0.4682 0.3818 0.31659 0.31977
3153.879 0.32978 0.3938 0.4434 0.4191 0.4362 0.4477 0.36502 0.37008 0.4135 0.4579
3173.169 0.4358 0.4081 0.381 0.32615 0.2607 0.36182 0.4269 0.34603 0.3886 0.4212
3192.458 0.4549 0.5024 0.3963 0.31644 0.421 0.4745 0.5123 0.5306 0.4194 0.3914
3211.748 0.5026 0.4372 0.4492 0.4168 0.31312 0.5223 0.6365 0.4772 0.29254 0.32487
3231.038 0.4758 0.5243 0.4904 0.4755 0.36332 0.2516 0.2576 0.36543 0.31952 0.1839
3250.328 0.2511 0.3999 0.4671 0.4253 0.29649 0.28142 0.3788 0.36587 0.3895 0.4756
3269.617 0.4539 0.34615 0.282648 0.2514 0.30461 0.3798 0.31354 0.2577 0.29111 0.35796
3288.907 0.4194 0.31529 0.32794 0.4145 0.4012 0.4502 0.4095 0.34842 0.3928 0.3746
3308.197 0.34435 0.3847 0.28824 0.2593 0.4013 0.4293 0.4096 0.4743 0.4774 0.4054
3327.487 0.4353 0.4087 0.30752 0.3851 0.4428 0.2509 0.1838 0.264 0.31795 0.37137
3346.777 0.34187 0.37027 0.4366 0.4368 0.452 0.4244 0.3875 0.4237 0.4668 0.4975
3366.066 0.4183 0.30462 0.2621 0.34945 0.5177 0.5189 0.486 0.35643 0.29488 0.3968
3385.356 0.35748 0.4052 0.5416 0.6091 0.5011 0.3859 0.4753 0.6081 0.6873 0.5839
3404.646 0.4347 0.36835 0.30201 0.30588 0.29508 0.33464 0.4523 0.4732 0.5588 0.5617
3423.936 0.5348 0.623 0.6319 0.6048 0.6348 0.6416 0.7114 0.9111 1.0886 1.284
3443.225 1.604 2.014 2.404 2.924 3.404 4.054 5.004 5.864 6.754 7.604
3462.515 8.214 8.804 9.194 9.244 9.164 8.764 8.144 7.434 6.594 5.674
3481.805 4.704 3.854 3.174 2.524 2.054 1.854 1.764 1.534 1.384 1.424
3501.095 1.474 1.464 1.474 1.364 1.2193 1.274 1.2639 1.1312 0.9935 0.891
3520.385 0.7916 0.7019 0.6629 0.7032 0.7185 0.7112 0.7195 0.8244 0.899 0.8016
3539.674 0.8333 0.8987 0.8662 1.027 1.1312 1.0945 1.1518 1.2 1.294 1.304
3558.964 1.294 1.444 1.444 1.27 1.2501 1.223 1.1344 0.9492 0.7192 0.7135
3578.254 0.7355 0.6075 0.4922 0.4147 0.4207 0.4797 0.4361 0.4221 0.428 0.448
3597.544 0.3905 0.35646 0.3914 0.29581 0.148 0.126 0.34535 0.4116 0.30891 0.2256
3616.833 0.12 0.121 0.033 0.061 0.147 0.074 0.101 0.1971 0.2329 0.1869
3636.123 0.133 0.1961 0.2273 0.2021 0.29738 0.27719 0.158 0.1779 0.2031 0.131
3655.413 0.087 0.248 0.3813 0.2339 0.172 0.125 0.066 0.152 0.26527 0.4084
3674.703 0.35916 0.138 0.11 0.2472 0.31751 0.35489 0.2239 0.09 0.2559 0.3497
3693.993 0.26878 0.2172 0.257 0.168 0.108 0.115 0.103 0.158 0.2087 0.2438
3713.282 0.2404 0.1767 0.2511 0.2174 0.048 0.07 0.02 0.121 0.278018 0.34506
3732.572 0.33442 0.1848 0.174 0.2394 0.30634 0.2528 0.2182 0.2335 0.1945 0.1816
3751.862 0.2202 0.2291 0.1839 0.2098 0.3829 0.37031 0.14 0.164 0.28692 0.2589
3771.152 0.2408 0.2472 0.2158 0.29654 0.418 0.33526 0.34166 0.33395 0.2135 0.2295
3790.441 0.277937 0.3766 0.34505 0.2407 0.2362 0.34882 0.467 0.4754 0.3141 0.2104
3809.731 0.34146 0.1769 0.14 0.31431 0.2287 0.2465 0.26665 0.3046 0.28866 0.34278
3829.021 0.2571 0.095 0.16 0.1741 0.156 0.157 0.2269 0.2289 0.2328 0.2061
3848.311 0.2219 0.33409 0.28542 0.26518 0.32725 0.2705 0.277435 0.30197 0.2674 0.34884
3867.601 0.3928 0.35698 0.2315 0.148 0.1919 0.2325 0.149 0.169 0.276881 0.2122
3886.890 0.29107 0.3882 0.2259 0.1813 0.2615 0.2265 0.1919 0.12 0.168 0.158
3906.180 0.056 0.06 0.068 0.055 0.093 0.168 0.095 0.099 0.156 0.053
3925.470 0.035 0.1971 0.2386 0.2157 0.2346 0.2436 0.1943 0.09 0.2213 0.34533
3944.760 0.2059 0.168 0.26489 0.2437 0.2489 0.2185 0.115 0.165 0.2401 0.2468
3964.049 0.2269 0.2407 0.2071 0.123 0.122 0.125 0.142 0.2427 0.171 0.15
3983.339 0.2098 0.1979 0.26998 0.2133 0.097 0.082 0.137 0.173 0.023 0
##END=
