##TITLE=Thionazin
##JCAMP-DX=4.24
##DATA TYPE=INFRARED SPECTRUM
##ORIGIN=NIST Mass Spectrometry Data Center
##OWNER=NIST Standard Reference Data Program
Collection (C) 2018 copyright by the U.S. Secretary of Commerce
on behalf of the United States of America. All rights reserved.
##CAS REGISTRY NO=297-97-2
##MOLFORM=C 8 H 13 N 2 O 3 P S
##$NIST SOURCE=MSDC-IR
##SPECTROMETER/DATA SYSTEM=HP-GC/MS/IRD
##STATE=gas
##XUNITS=1/CM
##YUNITS=ABSORBANCE
##XFACTOR=1.0
##YFACTOR=0.000007500
##DELTAX=4.0
##FIRSTX=550.0
##LASTX=3846.0
##FIRSTY=0.000668
##MAXX=3846
##MINX=550
##MAXY=0.075
##MINY=0
##NPOINTS=825
##XYDATA=(X++(Y..Y))
550.0 89 60 42 14 7 38 46 47 52 63
590.0 80 96 124 149 159 179 196 206 212 225
630.0 255 319 437 588 727 771 719 629 524 423
670.0 337 251 183 140 111 92 81 68 65 74
710.0 80 90 98 104 124 149 174 216 288 372
750.0 432 477 536 639 831 1167 1676 2238 2674 2804
790.0 2584 2225 1956 1852 1902 2075 2330 2650 2970 3179
830.0 3217 3121 3007 2989 2999 2751 2214 1643 1203 925
870.0 760 671 639 644 684 782 950 1221 1663 2324
910.0 3212 4229 5198 5928 6250 6106 5612 4990 4438 4082
950.0 3956 3987 4074 4103 3983 3697 3298 2856 2427 2072
990.0 1842 1753 1805 2025 2415 2926 3558 4390 5491 6839
1030.0 8225 9362 9980 10000 9603 9057 8476 7721 6754 5718
1070.0 4789 4032 3373 2844 2494 2307 2215 2091 1893 1667
1110.0 1472 1343 1266 1229 1242 1309 1434 1568 1659 1671
1150.0 1576 1458 1387 1382 1383 1317 1176 1003 853 732
1190.0 631 557 503 466 467 476 506 576 673 832
1230.0 1099 1485 2060 2860 3810 4669 5129 5038 4507 3821
1270.0 3181 2608 2085 1628 1261 986 788 653 552 469
1310.0 410 363 328 311 312 326 351 373 377 365
1350.0 344 338 359 412 503 634 802 1019 1339 1889
1390.0 2823 4125 5285 5498 4514 2925 1651 1000 706 561
1430.0 487 454 451 472 512 590 744 1057 1480 1731
1470.0 1618 1203 789 579 472 403 360 339 343 379
1510.0 458 606 849 1175 1478 1577 1391 1014 666 474
1550.0 396 376 394 450 536 618 630 549 413 277
1590.0 191 148 125 109 93 87 84 78 73 70
1630.0 65 60 57 56 57 54 54 55 53 55
1670.0 58 60 63 65 70 73 73 75 75 74
1710.0 75 75 72 65 61 61 61 59 56 58
1750.0 60 61 60 62 64 61 58 57 57 59
1790.0 60 68 76 82 84 85 86 92 97 105
1830.0 112 115 118 120 121 124 125 124 121 120
1870.0 121 115 109 101 92 83 76 71 69 73
1910.0 75 77 75 66 54 42 34 28 21 19
1950.0 16 13 11 8 6 5 4 5 6 7
1990.0 6 7 6 6 8 12 16 14 15 18
2030.0 20 23 26 26 25 25 24 20 16 13
2070.0 12 13 11 8 9 9 8 8 11 12
2110.0 11 13 14 10 9 8 7 5 5 7
2150.0 7 11 16 18 19 21 25 25 24 24
2190.0 22 21 19 14 10 11 6 0 1 3
2230.0 5 7 9 11 10 8 5 6 7 9
2270.0 11 10 9 10 11 10 11 14 17 19
2310.0 24 24 23 28 27 25 28 27 23 23
2350.0 22 17 13 16 17 15 14 12 10 10
2390.0 8 8 10 12 15 16 16 20 23 23
2430.0 22 22 24 30 32 28 30 29 27 26
2470.0 27 27 29 32 32 32 33 32 26 26
2510.0 29 27 24 24 22 20 20 19 22 20
2550.0 14 14 14 9 11 10 4 9 14 10
2590.0 11 17 18 15 11 9 13 13 11 14
2630.0 14 13 16 17 22 23 21 21 20 18
2670.0 20 23 23 22 21 22 28 28 27 26
2710.0 25 28 26 26 32 35 38 39 36 37
2750.0 38 38 41 45 46 46 51 52 48 45
2790.0 45 41 41 42 45 49 55 60 65 71
2830.0 73 78 85 86 87 94 109 124 143 165
2870.0 193 226 258 290 309 313 322 349 390 440
2910.0 488 522 536 539 561 637 768 913 1005 991
2950.0 887 767 696 705 768 865 995 1165 1352 1491
2990.0 1514 1424 1271 1090 907 747 629 536 456 388
3030.0 332 289 263 259 274 321 417 599 841 995
3070.0 968 770 527 364 257 189 146 113 96 85
3110.0 73 67 64 63 60 54 55 52 48 53
3150.0 55 48 40 37 32 29 27 29 33 37
3190.0 39 37 37 34 34 34 25 29 34 31
3230.0 30 30 31 32 32 26 25 32 31 23
3270.0 19 15 17 17 19 25 24 19 15 20
3310.0 21 17 20 20 14 17 23 27 22 18
3350.0 19 16 13 18 28 26 21 21 20 19
3390.0 17 17 21 24 26 23 20 21 22 19
3430.0 17 18 24 21 18 16 18 17 14 16
3470.0 15 13 16 25 27 30 29 19 22 22
3510.0 21 24 18 18 26 27 20 26 29 24
3550.0 19 22 25 24 23 20 18 16 19 17
3590.0 14 18 20 20 14 13 19 30 38 29
3630.0 20 23 26 24 22 16 16 22 22 6
3670.0 7 21 27 28 24 22 19 17 19 19
3710.0 19 21 22 28 29 28 32 26 23 24
3750.0 23 31 36 28 26 31 27 23 26 25
3790.0 24 24 26 28 23 17 18 28 34 32
3830.0 36 32 25 25 27
##END=
