##TITLE=2-(Chloromethyl)-4-nitrophenol
##JCAMP-DX=4.24
##DATA TYPE=INFRARED SPECTRUM
##ORIGIN=NIST Mass Spectrometry Data Center
##OWNER=NIST Standard Reference Data Program
Collection (C) 2018 copyright by the U.S. Secretary of Commerce
on behalf of the United States of America. All rights reserved.
##CAS REGISTRY NO=2973-19-5
##MOLFORM=C 7 H 6 Cl N O 3
##$NIST SOURCE=MSDC-IR
##SPECTROMETER/DATA SYSTEM=HP-GC/MS/IRD
##STATE=gas
##XUNITS=1/CM
##YUNITS=ABSORBANCE
##XFACTOR=1.0
##YFACTOR=0.000014700
##DELTAX=4.0
##FIRSTX=550.0
##LASTX=3846.0
##FIRSTY=0.002955
##MAXX=3846
##MINX=550
##MAXY=0.147
##MINY=0
##NPOINTS=825
##XYDATA=(X++(Y..Y))
550.0 201 255 143 170 170 188 217 237 261 280
590.0 297 317 334 359 384 406 433 464 518 615
630.0 752 888 1011 1131 1250 1330 1297 1103 805 545
670.0 381 280 218 180 156 144 141 145 165 196
710.0 241 295 332 329 297 269 298 400 546 720
750.0 787 712 624 533 454 384 308 219 132 73
790.0 48 45 49 75 129 225 388 581 731 828
830.0 857 821 683 480 310 173 83 43 29 32
870.0 54 96 161 250 352 454 549 633 675 676
910.0 666 659 693 790 897 912 804 616 441 357
950.0 339 348 359 355 331 300 266 237 222 224
990.0 244 271 296 310 310 288 270 262 263 277
1030.0 345 383 353 390 471 574 694 843 1040 1301
1070.0 1648 2068 2545 3078 3679 4290 4784 5056 4995 4573
1110.0 3896 3077 2321 1799 1481 1262 1094 976 909 906
1150.0 959 1049 1147 1241 1309 1345 1353 1338 1303 1258
1190.0 1204 1137 1067 1014 987 1006 1090 1259 1548 1987
1230.0 2535 3053 3396 3494 3394 3256 3138 3044 3002 3012
1270.0 3066 3106 3043 2829 2480 2045 1591 1194 934 808
1310.0 780 845 1011 1313 1820 2654 3951 5760 7804 9439
1350.0 10000 9183 7330 5256 3603 2496 1796 1370 1109 930
1390.0 791 684 604 550 519 507 516 549 610 698
1430.0 806 924 1030 1132 1251 1402 1586 1755 1850 1901
1470.0 2002 2275 2736 3291 3803 4038 3861 3317 2592 1953
1510.0 1581 1506 1663 2026 2572 3273 4062 4804 5289 5293
1550.0 4772 3884 2884 2091 1681 1584 1740 2107 2601 3083
1590.0 3344 3239 2770 2124 1586 1299 1254 1377 1546 1622
1630.0 1510 1225 870 566 361 252 196 169 160 159
1670.0 158 152 142 128 109 94 83 76 67 63
1710.0 60 60 54 48 42 37 34 30 27 24
1750.0 20 17 16 16 19 26 36 46 56 61
1790.0 61 53 43 35 27 23 19 18 15 13
1830.0 9 6 3 2 0 0 0 1 6 9
1870.0 14 19 25 30 36 43 54 67 79 90
1910.0 90 81 65 47 32 22 19 18 19 22
1950.0 24 27 30 31 32 31 30 31 32 33
1990.0 37 40 43 46 50 54 56 59 60 59
2030.0 60 61 64 67 72 75 76 75 75 73
2070.0 70 67 64 60 55 50 45 43 41 40
2110.0 36 34 33 30 27 28 27 27 29 28
2150.0 29 28 29 31 32 33 32 31 33 34
2190.0 35 35 34 33 34 34 32 31 29 29
2230.0 33 35 40 44 48 51 50 51 53 54
2270.0 54 53 49 45 43 42 40 38 36 35
2310.0 35 36 36 34 36 38 40 43 47 50
2350.0 53 56 59 57 55 53 49 46 44 42
2390.0 41 41 42 43 44 43 42 44 48 51
2430.0 52 55 56 57 57 58 57 58 59 61
2470.0 61 60 61 60 61 62 64 67 70 74
2510.0 80 84 88 92 94 96 98 100 101 100
2550.0 98 91 83 79 74 68 63 63 64 67
2590.0 68 71 75 79 83 85 84 80 75 72
2630.0 70 67 62 62 64 62 62 61 59 62
2670.0 64 66 70 70 70 72 75 77 78 80
2710.0 83 86 90 92 97 101 103 107 111 112
2750.0 112 114 119 121 124 130 138 148 156 170
2790.0 188 212 243 277 320 373 438 520 627 768
2830.0 931 1072 1136 1104 997 879 812 799 823 868
2870.0 914 947 964 966 969 983 1004 1021 1030 1033
2910.0 1036 1043 1074 1134 1216 1317 1432 1535 1577 1527
2950.0 1381 1177 968 795 671 584 530 503 496 504
2990.0 531 578 653 727 736 668 548 423 338 290
3030.0 266 251 239 229 218 209 204 204 214 231
3070.0 251 263 265 258 242 227 217 206 192 171
3110.0 153 142 138 134 129 123 122 120 116 114
3150.0 112 109 108 112 113 111 110 112 112 110
3190.0 111 113 115 116 120 122 124 126 126 124
3230.0 123 123 124 129 136 143 145 148 153 164
3270.0 172 178 185 195 212 232 247 260 272 287
3310.0 302 313 332 349 368 394 433 479 535 602
3350.0 680 764 853 943 1030 1108 1182 1250 1309 1367
3390.0 1438 1530 1644 1790 1967 2173 2381 2558 2673 2686
3430.0 2590 2414 2192 1967 1766 1593 1456 1352 1279 1228
3470.0 1183 1147 1116 1074 1021 961 895 826 760 697
3510.0 639 584 539 506 483 460 436 418 399 378
3550.0 354 331 307 283 261 239 220 207 194 181
3590.0 170 162 159 155 147 139 136 135 140 156
3630.0 187 250 349 448 479 441 355 232 142 99
3670.0 74 62 58 53 48 43 34 29 28 31
3710.0 33 29 27 26 22 17 16 15 16 15
3750.0 9 4 4 0 0 0 1 2 0 0
3790.0 0 0 0 0 0 0 0 0 0 0
3830.0 0 0 1 0 0
##END=
