##TITLE=p-Heptyloxybenzylidene p-butylaniline
##JCAMP-DX=4.24
##DATA TYPE=INFRARED SPECTRUM
##ORIGIN=EPA-IR VAPOR PHASE LIBRARY
##OWNER=SRD/NIST
Collection (C) 2018 copyright by the U.S. Secretary of Commerce
on behalf of the United States of America. All rights reserved.
##CAS REGISTRY NO=29743-12-2
##MOLFORM=C 24 H 33 N O
##$NIST SOURCE=MSDC-IR
##STATE=gas
##XUNITS=1/CM
##YUNITS=ABSORBANCE
##XFACTOR=1.
##YFACTOR=0.001
##DELTAX=1.92898
##FIRSTX=549.8
##LASTX=4000.7
##FIRSTY=4.101
##MAXX=4000.7
##MINX=549.759
##MAXY=0.064041
##MINY=0
##NPOINTS=1790
##XYDATA=(X++(Y..Y))
549.759 4.101 4.031 3.981 4.361 4.711 4.471 4.111 3.671 3.441 3.471
569.049 3.141 2.641 2.411 2.191 2.071 1.771 1.3574 1.3597 1.381 1.361
588.339 1.571 1.671 1.581 1.591 1.611 1.511 1.911 2.161 2.111 2.431
607.628 2.811 2.811 2.621 2.441 2.231 2.181 2.221 2.241 2.071 1.781
626.918 1.541 1.391 1.391 1.3222 1.431 1.461 1.401 1.371 0.9377 0.7277
646.208 0.73 0.6363 0.6756 0.8479 0.9254 0.7967 0.5703 0.6629 0.8236 0.6318
665.498 0.6286 0.7358 0.7273 0.645 0.5139 0.5502 0.6712 0.7624 0.5723 0.4874
684.787 0.578 0.7361 0.8058 0.7225 0.7978 0.7981 0.7976 0.9469 0.898 0.9189
704.077 1.239 1.421 1.451 1.611 1.911 1.941 1.881 2.141 2.131 1.951
723.367 2.031 2.141 2.181 1.971 1.831 1.731 1.441 1.551 1.801 1.681
742.657 1.511 1.501 1.581 1.541 1.611 1.681 1.571 1.671 1.651 1.441
761.947 1.651 1.711 1.701 1.861 1.851 1.751 1.681 1.851 2.011 2.061
781.236 2.171 2.301 2.301 2.311 2.571 2.831 3.031 3.261 3.511 3.701
800.526 3.971 4.271 4.371 4.671 4.951 5.041 5.251 5.721 6.291 6.701
819.816 7.221 7.941 8.771 9.781 10.971 11.911 12.421 12.831 13.031 12.571
839.106 11.841 10.821 9.501 8.281 7.251 6.331 5.481 4.941 4.651 4.381
858.395 4.221 4.011 3.801 3.901 4.081 4.101 4.261 4.651 5.021 5.631
877.685 6.411 7.251 8.221 8.991 9.451 9.131 8.431 7.711 6.821 5.831
896.975 4.871 4.301 3.821 3.461 3.191 3.021 2.891 2.651 2.591 2.691
916.265 2.631 2.571 2.471 2.351 2.371 2.371 2.401 2.461 2.651 2.591
935.555 2.471 2.601 2.611 2.591 2.741 2.931 3.021 3.121 3.171 3.211
954.844 3.361 3.541 3.801 3.981 4.211 4.591 4.781 4.941 5.031 5.051
974.134 4.981 4.711 4.471 4.231 3.911 3.711 3.821 3.981 4.191 4.251
993.424 4.381 4.501 4.551 4.941 5.201 5.451 5.901 6.561 7.371 8.331
1012.714 9.641 10.801 11.091 10.431 10.061 10.411 10.881 11.231 11.211 11.161
1032.003 11.031 10.631 10.101 9.671 9.261 8.841 8.561 7.911 7.211 6.961
1051.293 6.881 6.771 6.541 6.371 6.151 6.021 5.721 5.561 5.341 4.881
1070.583 4.701 4.681 4.281 3.901 3.871 3.671 3.861 3.501 3.101 3.571
1089.873 3.651 3.711 3.931 4.031 3.841 4.301 4.731 4.981 5.911 5.851
1109.163 4.671 4.251 4.441 4.351 4.211 3.851 3.631 3.551 3.641 3.521
1128.452 3.391 3.321 3.141 3.381 3.681 4.091 4.461 4.771 5.261 5.671
1147.742 6.541 7.891 9.811 13.321 18.891 27.381 40.201 55.081 64.041 60.991
1167.032 48.441 34.221 23.141 16.081 12.101 9.771 8.631 8.141 8.331 9.081
1186.322 10.271 12.131 14.101 15.531 15.561 14.841 14.671 14.351 13.851 13.941
1205.611 14.061 14.111 15.131 16.551 17.521 18.771 20.341 21.741 23.441 25.761
1224.901 28.151 30.861 33.841 36.961 40.471 43.991 46.831 49.161 50.911 52.031
1244.191 52.441 51.701 50.001 47.161 43.451 39.371 35.041 30.581 26.421 22.921
1263.481 20.031 17.771 15.901 14.361 13.211 12.421 12.051 11.971 11.921 12.071
1282.771 12.411 12.871 13.401 14.011 14.561 15.011 15.621 16.401 17.581 18.851
1302.060 19.371 18.671 17.221 15.461 13.661 12.021 10.591 9.381 8.401 7.641
1321.350 7.031 6.571 6.171 5.871 5.681 5.511 5.431 5.411 5.341 5.291
1340.640 5.261 5.251 5.211 5.091 4.951 4.831 4.841 4.861 4.881 4.911
1359.930 4.891 4.851 4.851 4.871 4.861 4.851 4.951 5.071 5.221 5.531
1379.219 5.961 6.461 6.891 7.161 7.141 6.831 6.361 5.811 5.261 4.751
1398.509 4.381 4.131 3.961 3.921 4.001 4.271 4.761 5.361 6.151 7.141
1417.799 7.981 8.231 7.741 6.661 5.571 4.821 4.391 4.221 4.201 4.281
1437.089 4.481 4.691 4.861 5.081 5.371 5.741 6.111 6.491 6.941 7.371
1456.378 7.801 8.131 8.431 8.881 9.441 10.101 11.111 12.271 13.221 13.651
1475.668 13.231 12.141 10.781 9.631 8.961 8.701 8.881 9.471 10.371 11.661
1494.958 13.571 16.181 19.671 24.571 31.301 39.911 50.021 58.481 61.091 55.891
1514.248 45.081 33.541 24.461 18.431 14.281 11.521 9.591 8.201 7.091 6.211
1533.538 5.551 5.091 4.771 4.571 4.391 4.191 4.101 4.141 4.221 4.341
1552.827 4.451 4.621 5.011 5.511 6.101 6.911 8.091 9.571 11.371 13.771
1572.117 16.551 18.811 19.661 18.671 16.701 15.251 15.091 16.241 18.741 22.431
1591.407 27.241 32.961 39.001 44.461 47.971 48.471 46.011 41.451 36.021 30.661
1610.697 25.681 21.491 18.291 16.091 15.031 14.941 15.841 17.751 20.561 24.191
1629.986 27.741 29.701 29.001 25.701 21.281 17.151 13.751 11.261 9.471 8.171
1649.276 7.201 6.431 5.701 5.141 4.751 4.481 4.201 3.901 3.651 3.401
1668.566 3.181 2.981 2.821 2.641 2.491 2.421 2.311 2.181 2.071 1.961
1687.856 1.841 1.781 1.771 1.721 1.681 1.601 1.541 1.551 1.551 1.501
1707.146 1.441 1.411 1.431 1.381 1.2917 1.3104 1.3603 1.3508 1.3527 1.3421
1726.435 1.2725 1.2345 1.2129 1.1818 1.1766 1.2193 1.2581 1.2358 1.2731 1.322
1745.725 1.308 1.2754 1.2746 1.328 1.421 1.501 1.491 1.511 1.591 1.631
1765.015 1.681 1.701 1.681 1.611 1.511 1.441 1.2806 1.1675 1.1021 1.0679
1784.305 1.0327 0.9646 0.9385 0.9242 0.9711 0.9667 0.8701 0.8021 0.836 0.8634
1803.594 0.8508 0.8327 0.8098 0.8322 0.8116 0.8246 0.8182 0.7071 0.7349 0.8046
1822.884 0.7835 0.7455 0.7138 0.7343 0.8134 0.8346 0.7783 0.7849 0.7821 0.7435
1842.174 0.7669 0.8046 0.8189 0.8489 0.8316 0.8453 0.9008 0.8964 0.8807 0.9037
1861.464 0.9401 0.9596 0.9952 1.0231 1.0466 1.1303 1.1674 1.1901 1.2354 1.2752
1880.754 1.3463 1.361 1.401 1.411 1.421 1.461 1.441 1.401 1.3521 1.2947
1900.043 1.2292 1.1646 1.137 1.1142 1.0675 1.0284 0.9963 0.9875 1.0031 1.0476
1919.333 1.0592 1.0554 1.0647 1.0638 1.0952 1.1188 1.1704 1.1869 1.2024 1.1831
1938.623 1.1233 1.0795 1.0459 1.0378 0.9843 0.9725 0.9707 0.9091 0.9109 0.9771
1957.913 0.934 0.8709 0.8879 0.9213 0.8755 0.8928 0.914 0.8954 0.9498 0.9254
1977.202 0.9171 0.9428 0.9019 0.8985 0.9616 1.0105 1.0046 1.0019 1.0351 0.9942
1996.492 1.0434 1.1638 1.1558 1.1304 1.1137 1.1237 1.1908 1.2402 1.241 1.1926
2015.782 1.1936 1.2366 1.2176 1.1768 1.1759 1.1642 1.1102 1.095 1.1209 1.1623
2035.072 1.1698 1.1462 1.2033 1.2164 1.1711 1.1909 1.1737 1.1529 1.2261 1.2623
2054.362 1.1858 1.1219 1.1024 1.0995 1.0848 1.0326 1.0248 1.0237 0.9863 0.993
2073.651 1.0259 1.0197 1.033 1.0382 0.9996 0.9811 0.9646 0.9637 0.9512 0.9195
2092.941 0.8862 0.845 0.8517 0.874 0.8334 0.7875 0.7526 0.7427 0.7376 0.7068
2112.231 0.6909 0.6988 0.6904 0.6686 0.6666 0.6466 0.6024 0.639 0.664 0.6244
2131.521 0.5971 0.5897 0.584 0.5562 0.5235 0.509 0.602 0.6228 0.5461 0.5103
2150.810 0.5014 0.478 0.43581 0.4624 0.5284 0.5662 0.5807 0.5328 0.4727 0.4953
2170.100 0.5273 0.5188 0.5366 0.5569 0.5027 0.481 0.511 0.44054 0.43848 0.5344
2189.390 0.5834 0.5686 0.5469 0.5454 0.5097 0.4872 0.4982 0.5622 0.6072 0.599
2208.680 0.5854 0.5793 0.5536 0.4636 0.42527 0.4827 0.5227 0.5187 0.4759 0.4953
2227.970 0.5767 0.54 0.4771 0.5089 0.5556 0.518 0.4745 0.5023 0.492 0.471
2247.259 0.4807 0.4654 0.46062 0.5383 0.61 0.634 0.5848 0.5091 0.5725 0.5795
2266.549 0.5193 0.5321 0.5383 0.5788 0.6043 0.5819 0.525 0.5089 0.5772 0.655
2285.839 0.6144 0.5387 0.6143 0.6611 0.6818 0.6571 0.6403 0.6214 0.6145 0.6926
2305.129 0.6805 0.6731 0.6962 0.637 0.5523 0.5428 0.6102 0.6646 0.6391 0.6277
2324.418 0.6751 0.7208 0.7282 0.7087 0.648 0.6365 0.6638 0.6671 0.6914 0.7028
2343.708 0.7309 0.7051 0.654 0.6606 0.6415 0.6003 0.6418 0.73 0.7261 0.7027
2362.998 0.6818 0.6493 0.6876 0.7537 0.774 0.7495 0.7821 0.7447 0.6728 0.6931
2382.288 0.7123 0.7536 0.8061 0.8669 0.8611 0.8251 0.7882 0.7558 0.7947 0.7973
2401.578 0.823 0.8058 0.7573 0.7769 0.8012 0.7823 0.7758 0.8408 0.8185 0.7777
2420.867 0.7599 0.7778 0.8013 0.7627 0.7611 0.802 0.854 0.8022 0.7891 0.8522
2440.157 0.8564 0.8637 0.8911 0.8924 0.906 0.9125 0.8337 0.8914 0.9271 0.8808
2459.447 0.9172 0.9743 1.0085 1.0137 0.9963 1.0571 1.0306 0.9332 1.0054 1.0196
2478.737 0.9452 0.9788 1.0444 1.0252 1.0145 1.0064 1.0391 1.0597 1.0004 1.0327
2498.026 0.9735 0.8461 0.9098 0.9297 0.9341 0.9856 1.0424 1.0692 0.991 0.9622
2517.316 0.943 0.9479 1.0386 1.0883 1.1327 1.1673 1.121 1.128 1.1719 1.2447
2536.606 1.2854 1.2888 1.3346 1.401 1.391 1.3204 1.2286 1.1873 1.2449 1.2799
2555.896 1.2295 1.173 1.2436 1.2202 1.0919 1.1162 1.1941 1.1746 1.0998 1.0943
2575.186 1.152 1.0918 1.0589 1.095 1.1464 1.1447 1.0535 1.0246 1.026 1.0837
2594.475 1.053 0.9536 0.9035 0.8827 0.9317 0.8921 0.8778 0.9107 0.9275 0.8839
2613.765 0.8902 0.898 0.8211 0.8071 0.832 0.8817 0.912 0.8799 0.9265 0.9537
2633.055 0.9246 0.9672 0.8899 0.801 0.889 1.0131 1.0081 0.9131 0.8854 0.9356
2652.345 0.9505 0.9072 0.9303 1.0547 1.0884 1.0005 0.9342 0.9373 1.0181 1.0603
2671.634 0.9996 1.0088 1.0996 1.1556 1.1095 1.0264 0.9828 0.9766 0.9531 0.9633
2690.924 1.0116 1.0066 1.0413 1.1649 1.205 1.1637 1.0976 1.0279 1.0626 1.0566
2710.214 1.0891 1.173 1.2123 1.2479 1.2525 1.2742 1.2831 1.3405 1.371 1.3463
2729.504 1.431 1.541 1.641 1.541 1.491 1.611 1.601 1.671 1.811 1.741
2748.794 1.671 1.721 1.751 1.691 1.671 1.671 1.631 1.681 1.731 1.751
2768.083 1.741 1.741 1.781 1.781 1.781 1.861 1.901 1.901 1.861 1.831
2787.373 1.921 2.031 2.121 2.201 2.221 2.191 2.311 2.461 2.471 2.491
2806.663 2.541 2.631 2.711 2.801 2.961 3.081 3.261 3.471 3.601 3.801
2825.953 4.001 4.311 4.621 4.821 5.211 5.661 6.101 6.621 7.251 7.991
2845.242 8.901 10.071 11.391 12.911 14.621 16.371 18.111 19.951 21.671 23.031
2864.532 24.041 24.651 24.941 24.941 24.671 24.361 23.891 23.421 23.081 22.761
2883.822 22.371 21.631 20.601 19.661 18.911 18.361 18.021 17.921 18.231 18.651
2903.112 19.371 20.331 21.481 22.921 24.481 26.181 28.101 30.281 32.641 35.241
2922.401 37.891 40.671 43.661 46.641 49.351 51.491 52.751 53.141 52.931 52.081
2941.691 50.591 48.421 45.781 42.991 40.321 38.061 36.281 35.091 34.631 34.831
2960.981 35.541 36.461 36.981 37.111 36.531 34.701 31.521 27.491 23.641 20.461
2980.271 17.771 15.511 13.741 12.411 11.261 10.221 9.491 8.971 8.501 8.061
2999.561 7.721 7.451 7.141 6.881 6.851 6.701 6.511 6.501 6.591 6.931
3018.850 7.481 8.291 9.121 10.031 10.811 10.951 10.551 9.711 8.871 8.191
3038.140 7.501 6.781 6.101 5.661 5.321 5.071 4.851 4.711 4.681 4.641
3057.430 4.581 4.491 4.491 4.601 4.691 4.961 5.371 5.631 5.911 6.071
3076.720 5.941 5.661 5.211 4.691 4.421 4.231 3.981 3.761 3.541 3.371
3096.009 3.271 3.111 2.991 2.891 2.621 2.461 2.471 2.361 2.221 2.141
3115.299 2.111 1.991 1.891 1.761 1.581 1.471 1.3489 1.2473 1.2684 1.2156
3134.589 1.229 1.2747 1.1736 1.1506 1.1416 1.0663 0.918 0.9223 0.9424 0.8776
3153.879 0.9972 0.9464 0.6869 0.6889 0.7152 0.7096 0.8039 0.8002 0.7446 0.8161
3173.169 0.8377 0.7782 0.7313 0.664 0.6718 0.7381 0.7215 0.7541 0.754 0.7325
3192.458 0.7962 0.7596 0.7866 0.9057 0.9398 0.9357 0.9068 0.8321 0.8271 0.7275
3211.748 0.5388 0.4799 0.5139 0.5358 0.5857 0.7151 0.7301 0.6464 0.5574 0.5671
3231.038 0.6572 0.6767 0.6308 0.6087 0.6238 0.639 0.6851 0.6973 0.6311 0.6338
3250.328 0.6653 0.7481 0.6822 0.531 0.6016 0.6808 0.6377 0.5714 0.6615 0.6243
3269.617 0.4928 0.4775 0.39076 0.3114 0.37162 0.3592 0.3242 0.39837 0.3166 0.3394
3288.907 0.40642 0.3164 0.26 0.253 0.3048 0.206 0.196 0.3052 0.3025 0.259
3308.197 0.3175 0.2817 0.159 0.188 0.3055 0.2882 0.2662 0.251 0.193 0.2611
3327.487 0.3034 0.3105 0.2768 0.2716 0.182 0.127 0.225 0.202 0.137 0.271
3346.777 0.3481 0.2911 0.3112 0.39935 0.42777 0.43205 0.2854 0.163 0.215 0.227
3366.066 0.2952 0.38355 0.42748 0.3438 0.2903 0.317 0.38584 0.3282 0.151 0.214
3385.356 0.3254 0.2627 0.177 0.209 0.370513 0.3334 0.258 0.206 0.09 0.144
3404.646 0.122 0.155 0.2804 0.2 0.125 0.089 0.166 0.3485 0.35603 0.2773
3423.936 0.186 0.3182 0.39012 0.2963 0.3238 0.37999 0.3345 0.3252 0.35516 0.2814
3443.225 0.2669 0.224 0.2919 0.38292 0.293 0.2614 0.128 0.064 0.232 0.251
3462.515 0.233 0.3289 0.2691 0.074 0.042 0.144 0.153 0.144 0.184 0.217
3481.805 0.2838 0.3398 0.37415 0.3505 0.2995 0.221 0.223 0.361649 0.349 0.2832
3501.095 0.3005 0.186 0.165 0.176 0.127 0.202 0.219 0.143 0.093 0.119
3520.385 0.195 0.226 0.223 0.201 0.163 0.166 0.142 0.213 0.2953 0.201
3539.674 0 0.037 0.162 0.184 0.166 0.189 0.3375 0.2646 0.211 0.231
3558.964 0.07 0.164 0.364916 0.3479 0.237 0.143 0.226 0.365253 0.4925 0.4653
3578.254 0.3134 0.2803 0.3328 0.37195 0.3425 0.237 0.219 0.2906 0.308 0.328
3597.544 0.3844 0.43703 0.3435 0.166 0.112 0.122 0.143 0.219 0.3419 0.2963
3616.833 0.3022 0.40828 0.3963 0.362547 0.364933 0.3288 0.205 0.241 0.35363 0.39989
3636.123 0.261 0.125 0.242 0.2997 0.217 0.236 0.44466 0.5175 0.42498 0.37723
3655.413 0.247 0.2667 0.2804 0.2747 0.3217 0.3243 0.39743 0.26 0.186 0.122
3674.703 0.146 0.32 0.3164 0.198 0.174 0.2903 0.3053 0.227 0.162 0.138
3693.993 0.209 0.3352 0.273 0.154 0.223 0.244 0.2723 0.2744 0.177 0.185
3713.282 0.169 0.251 0.40308 0.39163 0.39967 0.369224 0.215 0.201 0.2777 0.40582
3732.572 0.5016 0.4656 0.369456 0.28 0.222 0.2749 0.256 0.174 0.232 0.2676
3751.862 0.218 0.224 0.237 0.3199 0.339 0.3226 0.2709 0.188 0.188 0.203
3771.152 0.370501 0.41011 0.2848 0.254 0.2912 0.2834 0.3361 0.3021 0.2955 0.41866
3790.441 0.4555 0.45365 0.43577 0.3257 0.153 0.178 0.327 0.3489 0.3146 0.226
3809.731 0.15 0.163 0.239 0.251 0.192 0.209 0.256 0.38671 0.41527 0.257
3829.021 0.2784 0.39099 0.3578 0.2769 0.3083 0.3502 0.3029 0.219 0.3055 0.3025
3848.311 0.223 0.37475 0.43162 0.4827 0.39145 0.3283 0.35866 0.2979 0.35121 0.39335
3867.601 0.43939 0.37147 0.207 0.16 0.189 0.3119 0.38686 0.45173 0.5405 0.41213
3886.890 0.366259 0.35393 0.3313 0.42234 0.37809 0.3155 0.42581 0.360718 0.083 0.133
3906.180 0.244 0.164 0.119 0.186 0.257 0.4164 0.41415 0.248 0.2611 0.3154
3925.470 0.3173 0.228 0.2837 0.3188 0.182 0.34 0.43778 0.238 0.171 0.3107
3944.760 0.40487 0.45498 0.41826 0.364863 0.335 0.2846 0.3386 0.5048 0.5455 0.42372
3964.049 0.4895 0.43587 0.364969 0.259 0.178 0.3181 0.37514 0.3885 0.2727 0.2
3983.339 0.2695 0.40966 0.4364 0.44728 0.45251 0.39141 0.37764 0.321 0.3861 0.35141
##END=
