##TITLE=p-Butoxybenzylidene p-butylaniline
##JCAMP-DX=4.24
##DATA TYPE=INFRARED SPECTRUM
##ORIGIN=EPA-IR VAPOR PHASE LIBRARY
##OWNER=SRD/NIST
Collection (C) 2018 copyright by the U.S. Secretary of Commerce
on behalf of the United States of America. All rights reserved.
##CAS REGISTRY NO=29743-09-7
##MOLFORM=C 21 H 27 N O
##$NIST SOURCE=MSDC-IR
##STATE=gas
##XUNITS=1/CM
##YUNITS=ABSORBANCE
##XFACTOR=1.
##YFACTOR=0.001
##DELTAX=1.92898
##FIRSTX=549.8
##LASTX=4000.7
##FIRSTY=8.7004
##MAXX=4000.7
##MINX=549.759
##MAXY=0.12261
##MINY=0
##NPOINTS=1790
##XYDATA=(X++(Y..Y))
549.759 8.7004 8.6504 8.4804 8.3704 8.5004 8.3904 7.9204 7.2604 6.7504 6.1704
569.049 5.4304 4.8704 4.4004 4.0504 3.8104 3.3204 2.8804 2.8804 2.9704 2.9904
588.339 2.9104 2.8704 2.8604 2.9104 3.0204 3.3104 3.7204 3.7704 3.8504 4.2104
607.628 4.6404 4.8304 4.8304 4.9404 4.9304 4.6904 4.3604 4.0004 3.6404 3.3204
626.918 2.8904 2.4704 2.3404 2.3704 2.4204 2.5604 2.5504 2.1904 1.9004 1.6704
646.208 1.4004 1.3304 1.3504 1.1304 0.8671 0.8502 0.9906 1.0804 0.9543 0.9103
665.498 0.8814 0.797 0.7598 0.7215 0.7898 0.6682 0.6332 0.7814 0.8139 0.9103
684.787 0.8753 0.9524 1.0433 1.0545 1.1704 1.1904 1.1704 1.2704 1.3104 1.4704
704.077 1.6904 1.8304 2.1504 2.3804 2.6604 2.8304 2.9204 3.0904 2.9804 2.8504
723.367 2.8404 2.7304 2.6404 2.6404 2.5904 2.7004 2.7704 2.6804 2.6804 2.7204
742.657 2.6704 2.5504 2.5904 2.6404 2.7904 2.8704 2.9504 3.1304 3.0004 3.0604
761.947 3.1604 3.0404 3.1204 3.2904 3.4304 3.4704 3.4404 3.5904 3.8204 3.9404
781.236 4.0504 4.2604 4.3804 4.5004 4.8204 5.1204 5.4704 5.9304 6.4404 6.8804
800.526 7.4204 7.7804 8.0904 8.6504 9.3204 10.0504 10.7404 11.5204 12.4404 13.4904
819.816 14.5804 16.0704 17.7904 19.5704 21.3304 22.9204 24.1604 24.9104 25.1604 24.5804
839.106 23.2404 21.3604 19.2204 16.9004 14.6504 12.7404 11.2304 10.1404 9.2404 8.5004
858.395 8.0104 7.7204 7.6304 7.6904 7.9604 8.0804 8.5704 9.5504 10.4404 11.6304
877.685 13.2104 15.2004 17.1604 18.6004 19.3204 19.0204 17.7104 15.7404 13.5004 11.3004
896.975 9.4804 8.1104 7.1304 6.4704 5.8504 5.3604 4.9604 4.5104 4.0404 3.8004
916.265 3.6604 3.7004 3.6904 3.5804 3.6004 3.5804 3.5904 3.7004 3.7804 3.7904
935.555 3.7604 3.9404 4.1704 4.2304 4.4004 4.6204 4.9104 5.1704 5.5104 5.9104
954.844 6.4604 7.0704 7.6004 8.2004 8.7004 9.4004 10.2504 10.8104 11.3804 11.6604
974.134 11.6004 11.3304 10.8504 10.1804 9.3104 8.7404 8.2304 7.8404 7.9104 8.1604
993.424 8.1204 8.2104 8.8004 9.3804 10.1504 11.4904 13.0804 15.0004 16.8804 18.6904
1012.714 20.7004 22.1804 22.2304 20.8904 19.7004 19.4704 19.2104 18.7004 18.3504 17.5504
1032.003 16.5804 15.9604 15.0504 13.8404 12.5604 11.3404 10.4704 9.5504 8.6704 8.3404
1051.293 8.3804 8.5404 9.0004 9.4704 10.1404 11.1904 11.8604 12.3004 12.4704 12.5404
1070.583 12.6904 12.2204 11.5704 10.9104 10.0704 9.2104 8.0304 7.0304 6.9704 7.0604
1089.873 7.2104 7.6904 7.6504 7.9804 8.9504 9.3304 9.9404 10.9104 11.5504 11.6304
1109.163 11.2704 10.6304 9.9904 9.6804 9.2604 9.2404 9.3904 8.6404 7.8104 7.4704
1128.452 7.4304 7.5104 7.7604 7.9204 7.8704 8.4504 9.1204 10.0304 11.2304 11.9304
1147.742 13.4104 16.1004 20.0904 26.3704 36.4004 52.9304 77.3604 104.83 122.61 119.61
1167.032 97.9704 70.5904 47.9204 32.8804 23.9904 19.2104 16.7604 15.5604 15.8504 17.4404
1186.322 19.8804 23.1804 26.4804 28.4104 28.6004 27.8104 27.1704 26.6704 26.1104 26.4904
1205.611 27.9404 29.6704 32.1904 35.3904 39.2404 43.0004 45.6604 48.5004 51.5904 54.3804
1224.901 56.8504 59.3504 62.4804 66.5004 71.4304 77.0404 83.3704 89.7504 95.6704 100.62
1244.191 103.79 104.48 102.77 98.3704 91.2204 82.6604 73.6104 64.3804 55.7104 48.2604
1263.481 41.9704 36.7704 32.7204 29.7004 27.2404 25.4104 24.1604 23.3904 23.1304 23.3604
1282.771 23.9304 24.9104 25.8904 26.6704 27.5604 28.3704 29.3404 30.8004 32.8604 35.1504
1302.060 36.3104 35.6004 33.3704 30.2904 26.9704 23.7304 20.7104 18.1404 16.0204 14.3704
1321.350 13.2404 12.3704 11.6504 11.1004 10.6904 10.3904 10.0904 9.8904 9.8204 9.7104
1340.640 9.5904 9.5504 9.3604 9.0604 8.7704 8.5104 8.4004 8.3604 8.3404 8.4004
1359.930 8.4304 8.4704 8.5404 8.5604 8.5704 8.6004 8.7204 8.9704 9.3304 9.8804
1379.219 10.6704 11.6304 12.6204 13.2304 13.3204 13.0504 12.4704 11.6104 10.6404 9.6704
1398.509 8.8404 8.2204 7.8404 7.6704 7.7804 8.1604 8.8604 10.0604 11.7204 13.5504
1417.799 15.1204 15.7204 14.8504 12.8204 10.5804 8.9704 8.0504 7.6504 7.5504 7.6004
1437.089 7.7504 7.9504 8.1904 8.4604 8.8404 9.3204 9.8804 10.5604 11.2604 11.9604
1456.378 12.7304 13.3804 14.1104 15.1704 16.4904 18.1004 19.9804 21.9804 23.6304 24.4804
1475.668 24.2604 22.9704 21.0704 19.1304 17.7104 17.1504 17.4904 18.5104 20.2804 22.8104
1494.958 26.3904 31.5604 38.6504 48.4604 62.0004 78.9604 98.3304 114.23 118.81 109.16
1514.248 89.2904 67.2204 49.1604 37.1004 28.7804 23.3804 19.4304 16.5004 14.3004 12.5504
1533.538 11.2404 10.2604 9.5504 9.0104 8.5904 8.3404 8.2504 8.2004 8.2704 8.4404
1552.827 8.7604 9.2104 9.8004 10.6704 11.9104 13.4804 15.6204 18.5704 22.3804 27.1404
1572.117 32.3504 36.6204 38.3104 36.6804 33.0904 30.1004 29.5604 31.8504 36.7204 43.9104
1591.407 53.3804 64.6404 76.6904 87.5604 94.6604 96.1404 91.7704 83.1404 72.6604 61.9204
1610.697 51.9504 43.2504 36.5504 32.0304 29.7104 29.4204 31.2104 35.2104 41.0204 48.4904
1629.986 55.6604 59.7404 58.6204 52.0604 42.9104 34.2604 27.3604 22.4204 18.7504 15.9604
1649.276 13.9304 12.4404 11.1304 10.1104 9.2704 8.4904 7.8704 7.4304 6.9804 6.5404
1668.566 6.1604 5.8004 5.4704 5.1804 4.8604 4.6204 4.4304 4.2004 3.9704 3.7504
1687.856 3.6404 3.5204 3.3304 3.2104 3.1204 3.0004 2.9204 2.7804 2.6404 2.5704
1707.146 2.5504 2.5404 2.5104 2.4804 2.4604 2.4104 2.3804 2.3604 2.3104 2.2704
1726.435 2.2704 2.3004 2.2604 2.2004 2.2204 2.2204 2.1904 2.1704 2.1804 2.2104
1745.725 2.2504 2.3604 2.5404 2.5504 2.5704 2.6904 2.7504 2.8404 2.9604 3.0304
1765.015 3.0804 3.1104 3.0204 2.8404 2.6704 2.4704 2.2404 2.0604 1.9004 1.8304
1784.305 1.7804 1.7004 1.6704 1.6504 1.6404 1.6104 1.5704 1.5604 1.5404 1.4804
1803.594 1.4404 1.4204 1.3904 1.4104 1.3904 1.3304 1.2404 1.2104 1.1804 1.1304
1822.884 1.1304 1.1604 1.1004 1.1104 1.2004 1.2504 1.2404 1.2004 1.2304 1.2904
1842.174 1.3404 1.3704 1.3604 1.4004 1.4404 1.4204 1.4804 1.4904 1.4404 1.5104
1861.464 1.5504 1.5804 1.6204 1.7304 1.8604 1.9104 1.9804 2.0604 2.1904 2.2804
1880.754 2.4004 2.5704 2.6304 2.6704 2.6704 2.5904 2.5004 2.4204 2.3404 2.2204
1900.043 2.1104 1.9804 1.8804 1.8604 1.8304 1.7504 1.6804 1.6404 1.6304 1.6004
1919.333 1.6304 1.6704 1.7204 1.8304 1.9104 1.9904 2.0404 2.0504 2.1004 2.0504
1938.623 1.9204 1.8804 1.8504 1.6904 1.5904 1.5904 1.5604 1.5104 1.4604 1.4204
1957.913 1.4304 1.4204 1.3904 1.4204 1.4404 1.4304 1.4904 1.5404 1.5204 1.5004
1977.202 1.5204 1.5504 1.5904 1.6204 1.6104 1.5904 1.6104 1.6604 1.6904 1.6504
1996.492 1.6404 1.6704 1.7004 1.7604 1.8204 1.8404 1.8804 1.9304 1.9604 2.0704
2015.782 2.1404 2.1704 2.1604 2.1304 2.0404 1.9804 1.9804 1.9304 1.8704 1.8804
2035.072 2.0104 2.0304 2.0004 2.0704 2.1004 2.1104 2.0904 2.1204 2.1204 1.9904
2054.362 1.9504 1.8904 1.7804 1.7404 1.7504 1.7304 1.7204 1.6704 1.6204 1.6704
2073.651 1.7004 1.6504 1.6304 1.6104 1.5704 1.5804 1.5504 1.4804 1.4504 1.4004
2092.941 1.3504 1.3304 1.2804 1.2304 1.1804 1.1104 1.1504 1.1504 1.1004 1.0704
2112.231 1.04 0.9973 0.9666 0.951 0.9433 0.9736 1.0211 0.9849 0.9393 0.9038
2131.521 0.8483 0.8504 0.8424 0.8417 0.8441 0.8283 0.8084 0.7718 0.7456 0.7732
2150.810 0.7887 0.753 0.6868 0.6878 0.7175 0.6479 0.6505 0.6684 0.6508 0.6881
2170.100 0.7174 0.7295 0.705 0.6695 0.6649 0.6831 0.6804 0.6737 0.6952 0.7013
2189.390 0.6909 0.6605 0.6075 0.6013 0.6054 0.5596 0.6196 0.6713 0.6731 0.7025
2208.680 0.6762 0.6009 0.6037 0.6449 0.6324 0.6516 0.6721 0.7062 0.693 0.6545
2227.970 0.6404 0.6511 0.65 0.6403 0.6656 0.648 0.6588 0.7141 0.7087 0.7175
2247.259 0.698 0.6535 0.6703 0.7518 0.8604 0.8594 0.7708 0.752 0.7612 0.771
2266.549 0.8346 0.8687 0.8644 0.8185 0.8426 0.8992 0.8534 0.8474 0.8789 0.8365
2285.839 0.8082 0.8206 0.8703 0.9137 0.9056 0.9093 0.9 0.8672 0.8372 0.8333
2305.129 0.8662 0.9225 0.8808 0.8514 0.8684 0.8284 0.8864 0.9207 0.8639 0.855
2324.418 0.8762 0.8875 0.9202 0.9367 0.9089 0.9206 0.8967 0.9126 0.9545 0.9656
2343.708 0.95 1.01 1.0455 0.952 0.9812 0.9976 1.0132 0.9638 0.903 0.9567
2362.998 0.9824 1.0442 1.0904 1.1204 1.1604 1.1804 1.1504 1.1504 1.2104 1.1704
2382.288 1.1404 1.2304 1.2404 1.2004 1.1604 1.1704 1.2304 1.2204 1.2004 1.2604
2401.578 1.3504 1.3504 1.3404 1.3304 1.2404 1.2804 1.3404 1.3404 1.3304 1.2504
2420.867 1.1904 1.1804 1.1904 1.1604 1.2104 1.2304 1.2404 1.2504 1.2504 1.2804
2440.157 1.2704 1.2904 1.3704 1.4204 1.4204 1.4104 1.3804 1.3904 1.4604 1.5304
2459.447 1.5604 1.5804 1.5504 1.5304 1.5504 1.5404 1.5804 1.6204 1.6304 1.6404
2478.737 1.6604 1.7104 1.7104 1.6904 1.7004 1.6804 1.6104 1.6204 1.6204 1.5704
2498.026 1.5904 1.5904 1.5604 1.5504 1.4904 1.5204 1.5604 1.6004 1.7104 1.7304
2517.316 1.6604 1.6304 1.6704 1.7004 1.6904 1.7504 1.8204 1.8404 1.8904 1.9104
2536.606 1.9404 2.0404 2.0704 2.0704 2.1104 2.1004 2.1204 2.1404 2.1204 2.0204
2555.896 1.9504 1.9904 1.9804 1.9104 1.9104 1.8704 1.8004 1.7404 1.7904 1.8604
2575.186 1.8004 1.7804 1.7904 1.7304 1.6504 1.5704 1.5904 1.5204 1.4204 1.4004
2594.475 1.4104 1.4704 1.4204 1.4004 1.3804 1.2404 1.1804 1.2104 1.2304 1.2504
2613.765 1.2304 1.1604 1.1704 1.2204 1.2504 1.1704 1.0804 1.0904 1.0804 1.1504
2633.055 1.1904 1.1004 1.1604 1.2404 1.2804 1.2404 1.2204 1.3404 1.3204 1.2604
2652.345 1.3604 1.3004 1.2004 1.2704 1.3104 1.3304 1.2904 1.2804 1.3204 1.3804
2671.634 1.4104 1.3904 1.4104 1.4304 1.4104 1.4504 1.5004 1.5004 1.4304 1.4104
2690.924 1.4404 1.4404 1.4904 1.5504 1.4904 1.4704 1.5504 1.5804 1.6104 1.6704
2710.214 1.6704 1.6604 1.6804 1.6504 1.7304 1.8504 1.8904 1.9604 2.0504 2.0604
2729.504 2.1204 2.1904 2.2204 2.2904 2.3704 2.4704 2.5504 2.6004 2.6504 2.7304
2748.794 2.8004 2.8504 2.8804 2.8104 2.7804 2.8304 2.8004 2.7204 2.6604 2.6604
2768.083 2.7204 2.6904 2.6404 2.7104 2.7804 2.7904 2.7604 2.8204 2.9304 2.9604
2787.373 2.9804 3.0404 3.1904 3.3104 3.3604 3.4004 3.5404 3.7104 3.7504 3.7604
2806.663 3.8404 4.0204 4.2304 4.4304 4.5804 4.7204 4.9104 5.1404 5.3904 5.7004
2825.953 6.0104 6.3904 6.8704 7.2804 7.7404 8.3304 9.0504 9.8704 10.7904 11.8904
2845.242 13.1704 14.6004 16.2604 18.1804 20.1704 22.1904 24.3404 26.4304 28.3704 30.2404
2864.532 31.8904 33.2604 34.3804 35.1304 35.6304 36.0804 36.4704 36.9004 37.4204 37.9104
2883.822 38.0504 37.2404 35.5604 33.5804 31.8204 30.4604 29.4104 28.8104 28.5704 28.5804
2903.112 29.0404 29.8304 30.9504 32.5404 34.4704 36.5704 38.8804 41.3504 43.7204 46.2704
2922.401 49.2104 52.1704 55.0504 58.1104 61.0304 63.5704 65.5604 66.8104 67.6904 68.1304
2941.691 67.8804 66.6704 64.2704 61.0004 57.7804 55.2304 53.7404 53.6304 54.5704 56.5304
2960.981 59.2704 62.2104 64.9004 66.8004 67.4204 65.9304 61.6804 55.2504 48.1804 41.6404
2980.271 36.1104 31.6704 28.0304 24.9304 22.4004 20.3404 18.6804 17.3504 16.2804 15.5004
2999.561 14.8004 14.0504 13.5904 13.2204 12.7304 12.4004 12.2904 12.3304 12.6604 13.2804
3018.850 14.1804 15.7004 17.5904 19.5004 21.0304 21.4204 20.5404 18.9504 17.3004 15.8804
3038.140 14.6004 13.2304 11.9004 10.9304 10.2004 9.5604 9.1504 8.9604 8.8304 8.7604
3057.430 8.6304 8.5204 8.4804 8.6404 8.9604 9.4804 10.2404 10.9704 11.6404 11.9804
3076.720 11.8304 11.1804 10.3304 9.5304 8.8604 8.2804 7.7904 7.4204 6.9904 6.6904
3096.009 6.3704 5.8704 5.5004 5.2104 4.9704 4.7004 4.4304 4.2204 3.9504 3.7704
3115.299 3.6004 3.4404 3.2704 2.9904 2.7004 2.6104 2.4404 2.1204 2.0404 2.0904
3134.589 1.9704 1.8604 1.8404 1.7304 1.7004 1.6804 1.7004 1.7004 1.5804 1.4904
3153.879 1.3804 1.3004 1.2604 1.3504 1.4104 1.3204 1.1904 1.0904 1.0904 1.0595
3173.169 1.0308 1.1004 1.1404 1.1604 1.2404 1.1904 1.1704 1.3104 1.2804 1.2104
3192.458 1.1804 1.1904 1.2904 1.3304 1.2904 1.2604 1.2004 1.2004 1.1604 1.0704
3211.748 1.0546 1.062 1.0049 0.968 1.0653 1.0904 1.0498 1.048 1.0275 1.0538
3231.038 1.1704 1.1604 1.1804 1.1304 1.0704 1.0904 1.1004 1.1704 1.2004 1.1504
3250.328 1.1104 1.1804 1.1904 1.0342 0.9037 0.886 0.8536 0.9557 0.9717 0.7895
3269.617 0.7524 0.7458 0.6408 0.5614 0.5234 0.5395 0.4964 0.4835 0.517 0.4967
3288.907 0.4747 0.4794 0.3961 0.3274 0.3312 0.3968 0.4901 0.4305 0.396 0.348
3308.197 0.2946 0.3174 0.3557 0.3472 0.4128 0.435 0.313 0.2242 0.2101 0.3219
3327.487 0.3464 0.443 0.4595 0.4159 0.4445 0.2738 0.2225 0.2577 0.2694 0.2767
3346.777 0.2953 0.3167 0.2733 0.2501 0.2435 0.2421 0.2582 0.3464 0.3453 0.3156
3366.066 0.3489 0.3292 0.4139 0.3919 0.2816 0.2645 0.16915 0.2364 0.2759 0.2223
3385.356 0.257 0.3217 0.3655 0.3356 0.3184 0.2882 0.2694 0.3012 0.2981 0.2446
3404.646 0.2918 0.3365 0.2909 0.2633 0.211 0.1851 0.15559 0.16425 0.2213 0.2532
3423.936 0.3304 0.3469 0.3056 0.2174 0.2261 0.2256 0.1838 0.2012 0.1807 0.2451
3443.225 0.2877 0.231 0.3184 0.3876 0.2993 0.2162 0.2369 0.2283 0.1839 0.16306
3462.515 0.2441 0.3394 0.3098 0.3561 0.2831 0.2365 0.3427 0.2058 0.1938 0.3007
3481.805 0.206 0.14641 0.2008 0.2111 0.1993 0.2705 0.2924 0.2369 0.15097 0.11534
3501.095 0 0.0184 0.1955 0.2444 0.2508 0.1728 0.14646 0.307 0.3078 0.16529
3520.385 0.2861 0.4002 0.3051 0.2284 0.1819 0.16679 0.15771 0.12304 0.06873 0.06909
3539.674 0.12146 0.15474 0.2802 0.331 0.3078 0.2349 0.15884 0.2401 0.2497 0.1887
3558.964 0.16492 0.0461 0.0104 0.16529 0.2983 0.2547 0.1974 0.1796 0.1964 0.2575
3578.254 0.3097 0.2923 0.2276 0.208 0.12533 0.1845 0.2908 0.3492 0.285 0.1816
3597.544 0.2636 0.3719 0.3465 0.2255 0.2821 0.3229 0.2733 0.3156 0.2926 0.3033
3616.833 0.3646 0.3834 0.3573 0.3001 0.3214 0.3683 0.4082 0.4662 0.3564 0.3043
3636.123 0.3723 0.3301 0.3511 0.3456 0.2618 0.3433 0.4337 0.3887 0.312 0.313
3655.413 0.3915 0.3681 0.301 0.3805 0.4514 0.3844 0.4805 0.4995 0.3473 0.3949
3674.703 0.3719 0.3232 0.3145 0.4082 0.5504 0.4765 0.4234 0.3159 0.332 0.4625
3693.993 0.3231 0.2719 0.3109 0.2704 0.3645 0.375 0.3243 0.2965 0.3057 0.4027
3713.282 0.4618 0.4641 0.4954 0.466 0.339 0.4115 0.4468 0.4077 0.4326 0.4045
3732.572 0.369 0.473 0.6206 0.5431 0.3586 0.2705 0.3073 0.3618 0.4753 0.4811
3751.862 0.3925 0.3927 0.3815 0.4047 0.5303 0.5266 0.3013 0.1954 0.3219 0.3937
3771.152 0.3241 0.3424 0.4275 0.4167 0.3443 0.4292 0.4082 0.2532 0.2003 0.2953
3790.441 0.4536 0.3216 0.2198 0.3574 0.436 0.5381 0.5231 0.3804 0.4265 0.4117
3809.731 0.3045 0.3724 0.4789 0.4431 0.4368 0.4435 0.4603 0.4352 0.4365 0.4266
3829.021 0.37 0.3842 0.3536 0.3899 0.3363 0.3339 0.3831 0.346 0.3736 0.4431
3848.311 0.4862 0.5501 0.556 0.4904 0.5151 0.5241 0.4586 0.3758 0.4122 0.4749
3867.601 0.4119 0.3781 0.4117 0.4353 0.4136 0.4522 0.535 0.4653 0.4818 0.4444
3886.890 0.2778 0.3079 0.3445 0.4225 0.4918 0.365 0.3161 0.4042 0.4589 0.4419
3906.180 0.3942 0.4008 0.4063 0.4017 0.5475 0.5321 0.4038 0.3706 0.4305 0.4531
3925.470 0.4564 0.5075 0.4238 0.2984 0.2176 0.233 0.3317 0.3389 0.2173 0.2968
3944.760 0.3755 0.3904 0.4809 0.3837 0.3302 0.4316 0.5039 0.4446 0.488 0.5529
3964.049 0.4446 0.4498 0.5102 0.4915 0.452 0.3541 0.2983 0.3692 0.438 0.4309
3983.339 0.3901 0.3486 0.3322 0.3804 0.3857 0.3309 0.3885 0.4162 0.3932 0.52
##END=
