##TITLE=Demeton-O
##JCAMP-DX=4.24
##DATA TYPE=INFRARED SPECTRUM
##ORIGIN=NIST Mass Spectrometry Data Center
##OWNER=NIST Standard Reference Data Program
Collection (C) 2018 copyright by the U.S. Secretary of Commerce
on behalf of the United States of America. All rights reserved.
##CAS REGISTRY NO=298-03-3
##MOLFORM=C 8 H 19 O 3 P S 2
##$NIST SOURCE=MSDC-IR
##SPECTROMETER/DATA SYSTEM=HP-GC/MS/IRD
##STATE=gas
##XUNITS=1/CM
##YUNITS=ABSORBANCE
##XFACTOR=1.0
##YFACTOR=0.000006200
##DELTAX=4.0
##FIRSTX=550.0
##LASTX=3846.0
##FIRSTY=0.000372
##MAXX=3846
##MINX=550
##MAXY=0.062
##MINY=0
##NPOINTS=825
##XYDATA=(X++(Y..Y))
550.0 60 49 0 16 38 46 43 52 55 71
590.0 84 92 126 161 178 197 212 202 182 171
630.0 159 139 134 120 98 82 70 58 45 30
670.0 38 48 44 53 62 59 53 45 41 39
710.0 37 47 63 69 81 117 159 206 272 333
750.0 403 488 583 703 850 1007 1164 1307 1446 1561
790.0 1655 1745 1842 1971 2108 2258 2378 2427 2393 2239
830.0 2005 1751 1529 1368 1248 1160 1096 1029 955 891
870.0 836 787 751 731 735 749 768 805 832 844
910.0 844 837 843 884 980 1139 1373 1691 2119 2626
950.0 3128 3543 3779 3793 3603 3293 2950 2642 2447 2412
990.0 2562 2904 3465 4230 5135 6018 6668 7042 7336 7791
1030.0 8507 9317 9893 10000 9520 8550 7333 6136 5111 4284
1070.0 3644 3139 2737 2442 2212 2006 1818 1630 1441 1262
1110.0 1114 996 894 818 762 723 702 682 670 668
1150.0 658 636 617 600 569 534 509 481 450 416
1190.0 385 363 349 335 321 296 269 252 239 238
1230.0 245 248 258 274 300 342 392 451 506 540
1270.0 542 508 445 391 362 342 327 310 287 255
1310.0 217 180 151 130 111 98 94 90 92 95
1350.0 98 108 125 150 185 227 281 352 422 492
1390.0 551 571 536 456 382 340 314 299 297 302
1430.0 309 313 313 323 339 354 359 356 351 333
1470.0 304 276 257 231 193 160 136 113 94 77
1510.0 68 62 51 44 39 35 31 26 21 21
1550.0 20 17 10 15 23 20 15 14 18 16
1590.0 12 16 21 18 19 19 16 18 22 23
1630.0 19 16 19 23 21 18 18 23 21 19
1670.0 21 18 16 12 9 12 13 10 12 18
1710.0 15 15 16 21 22 16 14 17 22 22
1750.0 19 21 23 30 35 34 34 39 41 43
1790.0 41 43 47 50 54 60 69 75 75 78
1830.0 85 88 88 89 93 97 98 96 93 89
1870.0 84 83 77 69 67 62 50 46 48 41
1910.0 35 34 32 26 24 23 19 20 17 11
1950.0 7 6 8 11 9 7 10 12 10 9
1990.0 6 4 7 8 9 9 14 12 9 11
2030.0 9 9 9 4 5 9 9 8 9 10
2070.0 11 10 9 11 12 14 14 10 10 12
2110.0 11 12 16 17 16 13 8 8 12 11
2150.0 7 7 10 10 9 11 12 12 11 12
2190.0 14 14 14 13 13 15 15 13 11 11
2230.0 10 8 10 13 10 9 10 11 15 17
2270.0 16 12 11 12 12 13 10 9 11 12
2310.0 12 10 10 8 5 11 14 10 10 11
2350.0 12 10 5 8 11 9 11 10 14 17
2390.0 16 14 10 11 16 16 18 19 22 26
2430.0 25 23 22 22 22 27 23 18 24 25
2470.0 22 20 19 19 24 25 20 15 13 10
2510.0 11 13 14 13 10 11 14 14 10 8
2550.0 10 6 12 12 9 14 19 16 12 14
2590.0 13 13 11 10 15 18 15 13 17 17
2630.0 17 24 24 21 26 19 20 25 24 25
2670.0 28 29 27 26 25 27 31 29 33 40
2710.0 41 38 44 54 62 64 60 60 65 68
2750.0 62 59 58 58 57 59 68 73 76 72
2790.0 69 69 73 85 94 98 104 115 125 140
2830.0 149 158 176 193 213 233 253 274 311 346
2870.0 390 460 542 606 660 692 710 729 767 830
2910.0 902 967 1017 1073 1166 1314 1509 1692 1757 1666
2950.0 1510 1392 1362 1427 1539 1654 1762 1881 1985 1990
2990.0 1847 1607 1337 1086 879 728 617 527 447 373
3030.0 317 269 228 201 183 168 149 128 113 103
3070.0 94 82 76 70 68 70 67 73 71 68
3110.0 66 64 53 47 58 60 53 49 45 44
3150.0 44 44 45 48 50 54 49 50 56 50
3190.0 50 51 51 46 43 45 51 49 49 45
3230.0 38 36 32 33 36 31 31 29 27 34
3270.0 35 38 37 28 20 17 16 25 35 27
3310.0 23 27 30 27 23 18 21 20 18 23
3350.0 28 25 21 24 26 22 22 28 23 17
3390.0 14 16 32 27 22 26 27 28 32 27
3430.0 23 24 24 18 15 25 27 26 28 24
3470.0 26 24 26 26 12 11 21 25 26 12
3510.0 5 19 24 16 12 13 11 16 21 18
3550.0 14 17 25 24 22 32 40 32 30 35
3590.0 31 27 32 30 27 25 27 22 31 33
3630.0 27 26 28 36 29 30 39 48 48 37
3670.0 31 27 21 26 24 25 32 34 35 33
3710.0 36 31 27 28 35 44 39 37 35 37
3750.0 35 43 44 35 38 41 40 45 49 35
3790.0 29 28 25 36 41 35 32 32 35 37
3830.0 39 33 35 43 46
##END=
