##TITLE=Methyl parathion
##JCAMP-DX=4.24
##DATA TYPE=INFRARED SPECTRUM
##ORIGIN=NIST Mass Spectrometry Data Center
##OWNER=NIST Standard Reference Data Program
Collection (C) 2018 copyright by the U.S. Secretary of Commerce
on behalf of the United States of America. All rights reserved.
##CAS REGISTRY NO=298-00-0
##MOLFORM=C 8 H 10 N O 5 P S
##$NIST SOURCE=MSDC-IR
##SPECTROMETER/DATA SYSTEM=HP-GC/MS/IRD
##STATE=gas
##XUNITS=1/CM
##YUNITS=ABSORBANCE
##XFACTOR=1.0
##YFACTOR=0.000012300
##DELTAX=4.0
##FIRSTX=550.0
##LASTX=3846.0
##FIRSTY=0.000406
##MAXX=3846
##MINX=550
##MAXY=0.123
##MINY=0
##NPOINTS=825
##XYDATA=(X++(Y..Y))
550.0 33 24 0 11 19 32 49 70 100 128
590.0 137 137 133 123 112 108 112 120 140 175
630.0 230 319 448 580 655 644 580 503 427 365
670.0 327 330 357 383 382 352 308 263 227 205
710.0 190 189 197 215 253 311 409 559 784 1086
750.0 1458 1945 2617 3279 3388 2687 1674 1006 751 686
790.0 712 802 948 1156 1443 1809 2265 2819 3443 4033
830.0 4532 4914 5119 5138 5106 5216 5443 5490 5049 4146
870.0 3128 2315 1807 1543 1433 1436 1546 1785 2194 2839
910.0 3786 5084 6739 8592 10000 9945 8231 5912 4077 2988
950.0 2378 1981 1680 1450 1278 1141 1027 932 856 798
990.0 764 767 821 933 1158 1477 1735 1909 2178 2712
1030.0 3512 4574 5882 7322 8665 9610 9964 9768 9261 8677
1070.0 8081 7332 6298 5097 4026 3275 2805 2531 2389 2326
1110.0 2246 2043 1744 1469 1270 1137 1050 997 984 1020
1150.0 1159 1472 1939 2284 2224 1898 1670 1659 1725 1764
1190.0 1754 1755 1850 2113 2627 3444 4488 5501 6293 6908
1230.0 7165 6582 5147 3558 2420 1769 1409 1192 1040 928
1270.0 850 801 776 758 733 698 655 610 575 556
1310.0 553 575 635 756 969 1326 1901 2782 3950 5006
1350.0 5308 4641 3579 2740 2177 1737 1359 1038 784 605
1390.0 492 418 371 343 327 320 319 327 346 369
1430.0 396 428 472 539 620 699 757 800 839 888
1470.0 969 1145 1512 2241 3436 4651 4906 3941 2681 1939
1510.0 1673 1668 1824 2135 2586 3139 3696 4100 4217 3987
1550.0 3460 2808 2190 1718 1439 1311 1344 1565 1987 2567
1590.0 3066 3141 2713 2145 1793 1630 1486 1286 1038 781
1630.0 565 414 321 269 238 221 213 209 205 199
1670.0 190 179 170 159 150 144 138 127 113 101
1710.0 94 86 77 70 65 61 60 62 63 67
1750.0 73 81 91 102 113 116 109 96 84 76
1790.0 74 78 85 94 100 107 107 105 99 90
1830.0 84 81 79 81 86 94 104 112 122 132
1870.0 142 153 162 169 177 183 188 194 196 195
1910.0 187 170 150 128 106 89 75 62 54 49
1950.0 45 44 45 49 55 59 66 71 77 82
1990.0 87 88 85 74 63 53 44 40 38 37
2030.0 35 32 29 29 27 26 25 25 27 31
2070.0 33 39 44 46 48 46 42 40 37 35
2110.0 31 27 25 22 20 17 16 15 15 13
2150.0 12 11 8 8 7 6 4 6 6 4
2190.0 3 4 4 7 8 10 11 11 12 12
2230.0 11 10 11 13 13 18 22 24 26 26
2270.0 26 24 22 22 21 17 17 18 17 15
2310.0 14 12 11 11 9 7 6 7 9 11
2350.0 13 14 16 17 18 21 21 22 25 28
2390.0 32 33 32 31 27 27 32 33 37 43
2430.0 49 55 60 67 73 77 77 74 65 56
2470.0 48 42 35 28 25 23 23 25 26 28
2510.0 31 32 30 26 24 23 23 20 18 17
2550.0 18 22 27 28 29 32 35 36 36 34
2590.0 38 44 44 43 42 41 41 38 31 29
2630.0 31 28 27 28 29 30 29 25 22 25
2670.0 25 23 23 25 29 33 36 39 39 38
2710.0 41 39 34 30 28 25 22 18 17 17
2750.0 17 19 21 24 25 22 21 24 26 26
2790.0 28 30 34 38 43 53 62 72 83 97
2830.0 116 140 168 207 273 377 508 601 586 484
2870.0 376 303 264 246 237 232 236 246 258 272
2910.0 288 304 308 306 312 324 349 402 493 648
2950.0 905 1263 1604 1703 1477 1097 785 597 501 456
2990.0 442 441 443 444 439 429 421 417 414 403
3030.0 378 345 309 276 249 228 213 208 206 205
3070.0 208 212 220 233 254 269 255 216 176 147
3110.0 130 114 103 91 81 72 64 59 51 49
3150.0 46 40 39 38 34 27 22 25 29 28
3190.0 26 22 20 23 25 27 27 28 27 25
3230.0 21 16 12 12 15 11 8 8 9 11
3270.0 10 9 9 13 15 10 6 8 8 9
3310.0 12 10 6 8 7 8 12 10 9 10
3350.0 8 8 8 10 13 13 13 9 7 11
3390.0 11 8 9 8 4 10 12 7 4 10
3430.0 11 9 9 8 6 4 8 15 14 10
3470.0 10 12 13 11 10 9 7 8 10 10
3510.0 7 8 11 11 9 7 12 12 10 9
3550.0 6 10 15 16 15 15 13 12 13 17
3590.0 15 8 8 9 14 13 8 9 13 11
3630.0 11 14 14 14 14 14 13 15 18 16
3670.0 15 15 16 17 16 20 22 21 18 19
3710.0 19 18 16 16 21 21 24 25 24 25
3750.0 17 16 18 21 21 16 14 15 19 25
3790.0 21 18 19 19 20 21 18 13 17 20
3830.0 15 14 19 23 24
##END=
