##TITLE=Carbazepine
##JCAMP-DX=4.24
##DATA TYPE=INFRARED SPECTRUM
##ORIGIN=NIST Mass Spectrometry Data Center
##OWNER=NIST Standard Reference Data Program
Collection (C) 2018 copyright by the U.S. Secretary of Commerce
on behalf of the United States of America. All rights reserved.
##CAS REGISTRY NO=298-46-4
##MOLFORM=C 15 H 12 N 2 O
##$NIST SOURCE=MSDC-IR
##SPECTROMETER/DATA SYSTEM=HP-GC/MS/IRD
##STATE=gas
##XUNITS=1/CM
##YUNITS=ABSORBANCE
##XFACTOR=1.0
##YFACTOR=0.000001900
##DELTAX=4.0
##FIRSTX=550.0
##LASTX=3846.0
##FIRSTY=0.000099
##MAXX=3846
##MINX=550
##MAXY=0.019
##MINY=0
##NPOINTS=825
##XYDATA=(X++(Y..Y))
550.0 52 28 27 47 32 22 9 32 58 53
590.0 89 203 409 684 909 922 729 533 417 356
630.0 321 353 442 552 611 530 398 297 255 287
670.0 324 319 289 294 298 315 337 383 449 536
710.0 635 607 524 488 471 500 569 632 731 901
750.0 1209 1681 2144 2297 1927 1336 923 754 800 955
790.0 1152 1327 1347 1162 862 615 488 413 361 332
830.0 319 310 330 354 381 386 366 388 476 563
870.0 603 609 585 521 440 351 276 240 241 234
910.0 218 234 221 187 181 189 200 202 194 174
950.0 152 142 157 172 161 139 133 130 133 126
990.0 118 132 128 112 113 121 129 127 121 147
1030.0 197 263 285 242 190 145 135 151 187 247
1070.0 306 371 424 448 439 393 330 291 300 371
1110.0 452 478 443 339 219 155 142 130 128 157
1150.0 173 192 210 203 189 204 191 173 197 208
1190.0 209 211 220 234 253 270 277 280 293 320
1230.0 378 480 598 701 758 738 635 546 495 477
1270.0 470 429 392 385 421 508 626 750 850 919
1310.0 977 983 966 993 1109 1363 1749 2315 3165 4256
1350.0 5410 6335 6645 6148 4984 3566 2321 1475 995 735
1390.0 609 551 516 506 462 410 378 347 373 441
1430.0 497 546 608 649 638 644 714 838 945 948
1470.0 899 983 1321 1813 2183 2164 1781 1267 860 573
1510.0 398 321 263 230 228 222 220 232 252 297
1550.0 378 498 673 943 1337 1894 2557 3093 3182 2794
1590.0 2186 1653 1268 1002 821 682 563 463 387 351
1630.0 339 334 347 355 347 327 311 325 352 386
1670.0 420 445 475 507 555 602 640 708 850 1119
1710.0 1576 2423 4050 6624 9176 10000 8336 5275 2770 1531
1750.0 995 725 575 472 408 367 335 317 289 257
1790.0 240 240 237 244 269 282 265 248 226 187
1830.0 163 150 134 113 105 108 112 103 89 83
1870.0 85 94 97 100 101 101 105 103 118 138
1910.0 150 150 137 130 128 125 125 144 166 167
1950.0 139 109 88 76 66 56 49 53 51 40
1990.0 39 41 39 35 34 39 41 32 30 33
2030.0 40 42 38 35 42 49 38 32 33 34
2070.0 34 31 34 44 48 45 44 44 50 53
2110.0 46 42 45 35 30 40 44 47 55 55
2150.0 58 64 65 68 69 70 72 75 72 72
2190.0 81 95 92 91 99 100 113 131 144 161
2230.0 191 218 242 263 266 267 267 258 245 228
2270.0 233 265 291 302 301 283 234 172 123 93
2310.0 79 76 71 66 65 54 42 47 48 38
2350.0 40 43 41 41 40 37 33 33 37 40
2390.0 40 28 17 18 19 28 38 32 26 33
2430.0 35 18 9 17 26 26 24 28 32 31
2470.0 23 27 37 30 21 30 34 27 27 29
2510.0 36 41 42 40 34 37 43 38 29 36
2550.0 45 35 20 20 31 34 28 25 37 43
2590.0 33 24 26 36 39 38 38 36 36 35
2630.0 27 31 36 35 27 27 28 23 27 36
2670.0 40 34 22 21 22 16 29 42 35 32
2710.0 34 40 42 42 41 43 44 42 40 38
2750.0 38 37 35 40 37 29 29 37 37 28
2790.0 40 51 56 65 66 64 60 47 47 57
2830.0 62 57 47 50 60 64 54 47 50 46
2870.0 50 48 43 51 55 52 53 59 53 51
2910.0 65 76 67 63 68 70 64 54 61 68
2950.0 69 75 72 64 64 62 67 67 74 86
2990.0 93 106 119 137 159 183 280 431 644 907
3030.0 1092 1108 954 765 664 657 693 761 856 991
3070.0 1164 1267 1194 978 685 458 332 262 211 176
3110.0 151 134 124 113 105 105 109 100 97 102
3150.0 80 52 48 53 63 69 59 55 60 50
3190.0 55 57 47 42 46 50 40 45 41 32
3230.0 41 48 40 32 30 27 29 34 46 49
3270.0 40 38 41 28 10 20 34 46 48 50
3310.0 48 36 28 21 26 32 19 20 32 29
3350.0 29 37 43 32 26 30 35 34 43 61
3390.0 59 56 70 81 108 152 184 236 297 355
3430.0 389 387 349 294 238 175 128 106 84 76
3470.0 70 67 77 88 106 144 165 164 179 220
3510.0 261 310 379 465 533 614 677 696 694 661
3550.0 609 522 416 291 162 110 103 79 49 32
3590.0 45 58 50 40 36 36 30 20 27 14
3630.0 4 30 46 35 19 9 18 30 31 30
3670.0 11 0 7 19 16 7 15 21 34 42
3710.0 30 28 28 16 1 1 0 0 0 0
3750.0 0 0 6 27 24 17 24 25 32 20
3790.0 9 13 26 29 14 8 16 10 8 21
3830.0 20 27 28 24 34
##END=
