##TITLE=Phorate
##JCAMP-DX=4.24
##DATA TYPE=INFRARED SPECTRUM
##ORIGIN=NIST Mass Spectrometry Data Center
##OWNER=NIST Standard Reference Data Program
Collection (C) 2018 copyright by the U.S. Secretary of Commerce
on behalf of the United States of America. All rights reserved.
##CAS REGISTRY NO=298-02-2
##MOLFORM=C 7 H 17 O 2 P S 3
##$NIST SOURCE=MSDC-IR
##SPECTROMETER/DATA SYSTEM=HP-GC/MS/IRD
##STATE=gas
##XUNITS=1/CM
##YUNITS=ABSORBANCE
##XFACTOR=1.0
##YFACTOR=0.000019700
##DELTAX=4.0
##FIRSTX=550.0
##LASTX=3846.0
##FIRSTY=0.011308
##MAXX=3846
##MINX=550
##MAXY=0.197
##MINY=0
##NPOINTS=825
##XYDATA=(X++(Y..Y))
550.0 574 341 178 127 74 42 20 10 6 1
590.0 8 16 20 33 54 82 123 180 265 387
630.0 564 822 1191 1718 2448 3357 4200 4568 4211 3336
670.0 2403 1703 1255 975 788 645 526 434 370 344
710.0 347 393 479 610 768 899 930 844 710 621
750.0 605 657 766 927 1127 1347 1573 1798 2033 2266
790.0 2462 2594 2646 2600 2459 2258 2038 1821 1610 1389
830.0 1159 933 727 554 423 331 269 231 204 190
870.0 185 186 195 213 235 264 302 349 411 489
910.0 588 719 900 1150 1486 1946 2565 3342 4211 5012
950.0 5535 5632 5303 4665 3898 3154 2530 2068 1778 1655
990.0 1691 1890 2284 2918 3847 5108 6627 8175 9402 10000
1030.0 9893 9304 8558 7848 7164 6421 5586 4710 3888 3192
1070.0 2654 2261 1995 1833 1761 1735 1687 1566 1378 1183
1110.0 1031 925 850 800 770 758 760 772 777 773
1150.0 761 736 705 676 649 626 614 614 631 683
1190.0 805 1002 1183 1206 1010 693 429 284 215 178
1230.0 156 148 152 165 187 217 260 320 386 435
1270.0 434 384 312 255 219 195 181 172 165 155
1310.0 141 126 110 96 89 85 84 88 97 110
1350.0 128 152 184 227 277 341 433 557 714 887
1390.0 1030 1064 953 762 583 464 399 367 356 357
1430.0 363 368 386 414 443 453 440 415 388 358
1470.0 335 321 308 279 237 193 156 130 112 96
1510.0 79 67 58 49 42 37 31 27 23 20
1550.0 19 16 10 10 12 11 10 9 10 12
1590.0 14 15 17 17 19 18 16 16 15 13
1630.0 11 7 8 8 7 8 9 11 14 16
1670.0 19 24 27 30 34 38 40 42 44 47
1710.0 50 52 52 52 51 50 47 46 46 45
1750.0 45 46 45 45 46 47 51 54 59 65
1790.0 71 78 85 90 97 103 106 108 107 105
1830.0 101 95 88 81 73 66 59 52 46 41
1870.0 34 30 26 23 22 21 18 17 16 13
1910.0 14 12 11 12 11 10 9 7 8 7
1950.0 8 9 8 7 6 5 5 3 2 2
1990.0 2 1 0 1 0 1 0 0 1 0
2030.0 1 2 1 2 4 3 4 5 5 5
2070.0 6 6 6 7 7 8 10 12 13 13
2110.0 12 13 13 12 13 12 13 12 13 12
2150.0 12 13 13 12 13 14 14 13 13 12
2190.0 11 12 11 12 13 13 13 14 12 13
2230.0 12 11 12 11 10 10 11 10 8 10
2270.0 10 10 9 7 6 5 5 6 5 4
2310.0 5 6 8 9 11 12 14 12 13 12
2350.0 11 11 10 11 10 9 9 8 9 8
2390.0 9 11 12 13 14 14 16 17 18 18
2430.0 20 20 20 19 18 17 17 19 18 16
2470.0 15 14 13 13 14 14 11 10 9 8
2510.0 7 7 6 5 5 5 3 1 3 4
2550.0 5 6 8 9 10 10 11 12 13 16
2590.0 18 19 19 16 15 14 13 13 12 11
2630.0 12 11 10 11 10 9 11 13 12 13
2670.0 14 15 16 18 20 22 25 28 30 32
2710.0 34 37 41 44 47 50 52 55 56 56
2750.0 57 57 60 64 68 71 74 77 76 75
2790.0 75 74 76 81 88 97 106 117 130 144
2830.0 157 171 188 204 220 239 264 301 349 412
2870.0 484 575 677 766 815 821 817 841 906 992
2910.0 1071 1135 1203 1303 1463 1697 1981 2205 2237 2048
2950.0 1757 1534 1465 1546 1730 1953 2175 2398 2564 2567
2990.0 2372 2054 1712 1389 1116 917 773 656 555 468
3030.0 396 333 286 248 216 190 169 151 136 123
3070.0 114 109 102 95 91 87 84 80 76 76
3110.0 74 71 71 69 66 63 60 58 58 56
3150.0 54 52 51 51 49 47 45 44 45 44
3190.0 46 46 45 43 43 41 38 37 35 32
3230.0 28 27 27 26 24 23 20 18 17 14
3270.0 14 17 16 13 14 15 15 16 15 14
3310.0 14 15 15 12 12 14 14 12 12 12
3350.0 10 12 12 11 8 8 8 7 7 6
3390.0 7 10 10 9 9 6 4 5 7 7
3430.0 6 4 4 5 7 7 4 6 7 5
3470.0 5 6 6 4 3 4 5 2 1 2
3510.0 5 6 7 7 3 1 4 3 3 3
3550.0 6 6 3 5 8 6 5 6 7 7
3590.0 5 5 4 6 6 4 6 5 4 6
3630.0 4 5 8 6 7 7 5 5 6 5
3670.0 6 9 7 5 3 4 5 7 8 6
3710.0 5 5 8 9 9 10 9 9 9 8
3750.0 10 9 8 10 10 11 13 13 12 11
3790.0 10 9 6 4 5 8 8 6 4 4
3830.0 6 7 7 6 6
##END=
