##TITLE=2-Methyl-5-nonanol
##JCAMP-DX=4.24
##DATA TYPE=INFRARED SPECTRUM
##ORIGIN=NIST Mass Spectrometry Data Center
##OWNER=NIST Standard Reference Data Program
Collection (C) 2018 copyright by the U.S. Secretary of Commerce
on behalf of the United States of America. All rights reserved.
##CAS REGISTRY NO=29843-62-7
##MOLFORM=C 10 H 22 O
##$NIST SOURCE=MSDC-IR
##SPECTROMETER/DATA SYSTEM=HP-GC/MS/IRD
##STATE=gas
##XUNITS=1/CM
##YUNITS=ABSORBANCE
##XFACTOR=1.0
##YFACTOR=0.000005000
##DELTAX=4.0
##FIRSTX=550.0
##LASTX=3846.0
##FIRSTY=0.000690
##MAXX=3846
##MINX=550
##MAXY=0.05
##MINY=0
##NPOINTS=825
##XYDATA=(X++(Y..Y))
550.0 138 108 87 96 88 69 58 56 46 33
590.0 37 42 41 35 49 59 45 35 28 17
630.0 16 20 17 22 28 12 10 15 7 11
670.0 22 14 2 10 10 10 18 23 23 24
710.0 36 43 53 66 69 78 92 97 99 98
750.0 105 113 105 100 105 106 107 111 110 115
790.0 122 119 114 110 105 104 104 104 136 122
830.0 86 93 99 109 125 139 154 173 195 217
870.0 238 258 277 285 296 300 300 306 305 308
910.0 320 334 349 357 350 338 325 311 307 303
950.0 300 298 301 309 319 347 385 435 498 571
990.0 657 754 861 968 1077 1175 1258 1332 1396 1439
1030.0 1450 1413 1339 1242 1133 1034 945 868 807 762
1070.0 724 694 678 659 638 631 628 636 652 654
1110.0 651 659 669 670 683 696 705 690 654 607
1150.0 558 525 522 537 555 557 537 515 511 526
1190.0 550 574 588 594 597 595 592 591 597 612
1230.0 621 633 646 659 669 682 693 688 672 649
1270.0 622 590 559 534 515 502 496 491 489 486
1310.0 485 489 493 507 531 564 606 653 696 734
1350.0 776 829 904 1005 1119 1228 1316 1380 1419 1409
1390.0 1318 1144 933 756 626 534 475 441 431 445
1430.0 480 539 622 707 814 943 1076 1198 1276 1294
1470.0 1234 1080 878 676 512 398 317 261 222 198
1510.0 167 142 131 118 103 94 87 85 79 66
1550.0 56 58 65 54 50 49 48 47 39 35
1590.0 36 36 33 33 32 29 32 32 28 30
1630.0 29 32 30 25 26 33 32 23 20 22
1670.0 28 27 23 24 20 18 22 25 21 17
1710.0 16 16 18 15 12 13 15 11 8 6
1750.0 7 7 6 4 3 5 4 3 6 5
1790.0 4 8 8 4 0 1 4 6 5 4
1830.0 6 6 3 3 5 5 6 5 6 8
1870.0 9 9 9 11 9 8 6 6 8 9
1910.0 7 7 5 6 8 6 4 6 8 7
1950.0 4 2 3 2 2 3 2 5 5 3
1990.0 4 4 3 4 4 3 3 4 7 6
2030.0 8 10 10 10 10 11 8 9 10 7
2070.0 6 7 3 0 1 2 4 5 4 3
2110.0 3 5 6 6 5 3 5 4 3 1
2150.0 1 3 4 3 4 5 6 6 7 7
2190.0 6 7 8 8 7 7 7 4 5 8
2230.0 5 5 7 5 3 3 6 7 6 7
2270.0 9 11 10 10 9 7 9 9 7 6
2310.0 8 9 12 16 16 15 16 15 14 12
2350.0 13 21 26 22 19 19 19 18 19 18
2390.0 16 17 17 17 18 17 15 14 14 12
2430.0 12 13 12 14 14 13 10 13 15 13
2470.0 11 9 9 10 13 16 19 19 19 20
2510.0 21 22 23 23 24 25 26 26 26 31
2550.0 33 34 39 44 47 52 54 57 65 70
2590.0 72 72 72 76 82 85 85 86 91 93
2630.0 96 100 106 112 113 114 118 121 126 124
2670.0 124 130 132 134 136 137 140 144 147 152
2710.0 159 163 171 183 195 206 213 216 221 224
2750.0 223 221 222 232 240 246 256 266 278 300
2790.0 324 349 376 405 438 477 526 579 644 725
2830.0 827 964 1143 1384 1697 2075 2506 2969 3437 3885
2870.0 4298 4632 4831 4834 4653 4395 4213 4226 4455 4877
2910.0 5421 6020 6659 7373 8175 8999 9651 9902 9648 9074
2950.0 8563 8528 9130 9888 10000 8994 7093 5030 3420 2416
2990.0 1809 1417 1148 954 803 687 601 534 482 429
3030.0 389 358 324 302 281 260 245 232 222 218
3070.0 214 206 195 190 187 179 170 160 151 143
3110.0 135 128 124 121 118 116 111 109 109 107
3150.0 108 105 103 100 98 97 92 89 92 92
3190.0 87 83 78 71 65 58 49 38 35 33
3230.0 25 20 22 17 11 14 13 14 16 16
3270.0 14 9 10 12 15 14 9 12 16 15
3310.0 14 13 12 13 15 17 18 19 22 24
3350.0 21 18 21 23 23 21 19 24 23 22
3390.0 24 26 28 29 27 29 29 25 28 25
3430.0 23 26 28 28 25 24 20 19 23 23
3470.0 24 22 22 24 23 23 21 21 19 17
3510.0 16 16 16 9 3 7 14 9 5 4
3550.0 11 17 15 12 13 15 19 20 19 20
3590.0 23 26 30 32 40 55 70 90 109 135
3630.0 165 201 255 320 393 457 485 454 380 290
3670.0 213 156 110 85 73 60 50 44 41 38
3710.0 37 32 28 32 30 30 32 32 32 39
3750.0 41 33 32 29 25 23 24 35 37 34
3790.0 37 44 49 51 45 41 49 57 54 53
3830.0 59 59 57 52 48
##END=
