##TITLE=2,2-Dimethylbutanal
##JCAMP-DX=4.24
##DATA TYPE=INFRARED SPECTRUM
##ORIGIN=NIST Mass Spectrometry Data Center
##OWNER=NIST Standard Reference Data Program
Collection (C) 2018 copyright by the U.S. Secretary of Commerce
on behalf of the United States of America. All rights reserved.
##CAS REGISTRY NO=2987-16-8
##MOLFORM=C 6 H 12 O
##$NIST SOURCE=MSDC-IR
##SPECTROMETER/DATA SYSTEM=HP-GC/MS/IRD
##STATE=gas
##XUNITS=1/CM
##YUNITS=ABSORBANCE
##XFACTOR=1.0
##YFACTOR=0.000001400
##DELTAX=4.0
##FIRSTX=550.0
##LASTX=3846.0
##FIRSTY=0.000248
##MAXX=3846
##MINX=550
##MAXY=0.014
##MINY=0
##NPOINTS=825
##XYDATA=(X++(Y..Y))
550.0 177 70 122 167 59 121 211 114 78 100
590.0 134 158 173 181 197 203 210 206 128 94
630.0 96 108 107 96 90 39 39 139 145 37
670.0 0 52 68 69 23 34 49 22 71 107
710.0 109 144 234 291 315 323 352 383 392 441
750.0 435 403 439 484 484 537 638 700 683 655
790.0 633 552 479 382 260 181 132 128 176 211
830.0 206 230 323 411 488 625 770 866 940 1003
870.0 1051 1059 1080 1106 1123 1113 1082 1061 1021 967
910.0 871 757 667 586 489 393 342 321 316 314
950.0 285 246 250 252 254 291 309 300 312 347
990.0 352 351 389 437 471 504 527 502 429 336
1030.0 279 269 264 264 258 262 281 309 318 297
1070.0 255 212 166 137 132 120 128 115 108 98
1110.0 107 118 88 85 91 71 83 112 102 105
1150.0 139 181 199 204 230 262 247 243 254 230
1190.0 200 209 213 161 130 150 166 149 131 140
1230.0 155 184 227 211 184 182 174 147 120 102
1270.0 101 103 79 79 71 64 88 93 92 94
1310.0 106 119 122 137 153 155 168 203 243 309
1350.0 430 560 682 844 1095 1274 1304 1353 1408 1407
1390.0 1331 1244 1163 994 811 675 585 517 452 452
1430.0 503 585 716 894 1120 1381 1650 1863 2021 2142
1470.0 2170 2031 1792 1533 1265 968 693 476 333 258
1510.0 201 152 142 143 128 110 94 80 82 75
1550.0 75 80 90 96 85 102 112 92 92 96
1590.0 90 108 120 120 125 116 114 117 124 135
1630.0 137 150 180 204 229 255 289 332 364 405
1670.0 446 481 550 638 730 819 924 1092 1325 1662
1710.0 2130 2829 3833 5074 6413 7676 8780 9570 9802 9443
1750.0 8621 7409 5888 4433 3344 2642 2161 1792 1513 1267
1790.0 1072 910 775 673 592 521 457 394 319 259
1830.0 235 206 168 145 127 111 94 76 69 63
1870.0 49 39 43 44 40 36 28 13 11 33
1910.0 28 22 32 37 26 14 13 16 8 3
1950.0 18 30 33 32 23 18 27 28 17 28
1990.0 38 32 26 19 16 9 7 23 22 25
2030.0 28 34 39 34 24 21 35 44 47 44
2070.0 35 35 35 32 40 44 41 41 31 38
2110.0 54 38 32 35 34 28 18 20 22 27
2150.0 28 20 18 22 45 46 19 7 9 16
2190.0 34 35 30 29 20 6 25 38 11 15
2230.0 17 7 16 37 46 34 27 25 24 22
2270.0 31 43 27 17 30 32 17 11 24 37
2310.0 37 34 26 15 31 44 36 39 34 30
2350.0 32 54 58 48 56 47 49 46 35 23
2390.0 28 41 34 37 38 25 28 31 38 48
2430.0 37 29 25 29 39 35 30 22 20 25
2470.0 28 32 37 39 28 26 32 23 28 36
2510.0 37 38 39 50 60 63 61 50 50 45
2550.0 42 58 78 103 104 105 115 133 163 180
2590.0 195 217 245 271 300 340 381 421 462 501
2630.0 551 605 645 678 751 846 954 1126 1346 1635
2670.0 2005 2396 2814 3262 3584 3665 3582 3413 3180 2880
2710.0 2506 2136 1865 1699 1563 1457 1410 1378 1361 1343
2750.0 1364 1383 1391 1400 1398 1454 1558 1683 1804 1843
2790.0 1884 1963 2014 1970 1858 1712 1566 1435 1323 1232
2830.0 1175 1170 1227 1314 1443 1618 1818 2046 2308 2577
2870.0 2793 3027 3298 3497 3569 3654 3760 3785 3847 3949
2910.0 4098 4342 4652 4912 5130 5376 5597 5744 5783 5821
2950.0 6076 6577 7371 8420 9225 9680 10000 9778 8825 7478
2990.0 6041 4563 3255 2287 1622 1185 923 766 644 544
3030.0 474 449 421 384 346 321 345 366 345 341
3070.0 359 363 368 334 303 286 287 291 263 242
3110.0 240 240 247 241 232 239 224 207 202 176
3150.0 183 206 208 177 166 174 162 142 160 174
3190.0 167 147 141 149 148 151 132 89 74 102
3230.0 103 73 67 47 21 35 51 23 25 46
3270.0 55 65 63 64 79 55 30 58 85 85
3310.0 70 61 53 64 90 87 92 96 33 13
3350.0 57 64 64 63 42 55 79 89 90 71
3390.0 68 64 63 55 30 52 104 116 98 88
3430.0 104 146 171 179 204 246 275 294 300 261
3470.0 219 209 205 186 146 126 152 156 117 112
3510.0 108 82 100 99 59 77 84 81 98 82
3550.0 89 105 101 88 91 84 42 36 61 87
3590.0 109 128 111 72 75 114 128 96 76 87
3630.0 97 98 104 96 97 119 84 66 82 79
3670.0 95 116 108 91 100 106 87 81 106 140
3710.0 139 93 81 95 120 144 133 113 120 127
3750.0 120 104 115 131 134 122 92 80 95 95
3790.0 78 75 56 79 135 145 134 133 140 148
3830.0 131 127 147 130 110
##END=
