##TITLE=1,2-Diphenylcyclopropane
##JCAMP-DX=4.24
##DATA TYPE=INFRARED SPECTRUM
##ORIGIN=EPA-IR VAPOR PHASE LIBRARY
##OWNER=SRD/NIST
Collection (C) 2018 copyright by the U.S. Secretary of Commerce
on behalf of the United States of America. All rights reserved.
##CAS REGISTRY NO=29881-14-9
##MOLFORM=C 15 H 14
##$NIST SOURCE=MSDC-IR
##STATE=gas
##XUNITS=1/CM
##YUNITS=ABSORBANCE
##XFACTOR=1.
##YFACTOR=0.001
##DELTAX=1.92898
##FIRSTX=549.8
##LASTX=4000.7
##FIRSTY=1.9683
##MAXX=4000.7
##MINX=549.759
##MAXY=0.0602383
##MINY=0
##NPOINTS=1790
##XYDATA=(X++(Y..Y))
549.759 1.9683 2.0183 1.9783 2.2383 2.8683 3.4683 4.7083 6.1783 6.7183 6.8183
569.049 6.8583 6.3383 5.0183 3.7383 3.2483 2.8283 2.1983 1.8483 1.7583 1.6583
588.339 1.7583 1.9183 1.6483 1.2683 1.1983 1.3083 1.4683 1.3183 1.0442 1.0783
607.628 1.1383 1.1283 0.8764 0.6895 0.7883 0.7068 0.524 0.4625 0.6337 0.8122
626.918 0.854 0.9492 0.9643 0.9102 0.9848 1.1183 1.1683 1.2683 1.4083 1.4983
646.208 1.6583 1.8783 2.3783 2.8083 2.9983 3.4983 4.0483 4.6583 5.4783 6.5083
665.498 7.5983 8.7183 10.1983 11.8083 13.7683 16.1083 18.8183 21.8983 25.0983 28.6683
684.787 32.6283 36.8883 41.2783 45.2583 48.2883 49.9083 50.0383 48.6683 46.0383 42.4383
704.077 38.5583 34.7783 31.1983 28.0683 25.4183 23.0583 21.0383 19.5783 18.6183 18.4083
723.367 18.5083 18.8183 19.4783 20.2983 21.3983 22.6083 23.9283 25.4583 26.9783 28.6383
742.657 30.2683 31.6483 32.8283 33.5383 33.7483 33.0983 31.5283 29.7383 27.8183 25.7883
761.947 24.0983 22.5383 21.3183 20.5283 19.5083 18.3583 17.0583 15.4583 13.7383 11.8983
781.236 10.1483 8.5883 7.2383 6.0383 5.0583 4.3783 3.6583 3.0683 2.5983 2.4883
800.526 2.5183 2.2983 2.3483 2.2383 2.0083 1.9083 1.7483 1.8383 1.8683 1.7983
819.816 1.7683 1.7183 1.7483 1.7383 1.7583 1.7183 1.6383 1.6883 1.7783 1.9683
839.106 1.9983 1.8883 2.1983 2.3783 2.3983 2.5683 2.6583 2.7083 2.8083 3.0383
858.395 3.1883 3.3083 3.4183 3.4983 3.5683 3.7283 3.8683 4.1383 4.2783 4.0883
877.685 4.2283 4.4883 4.7583 4.9583 5.0883 5.4183 6.0783 6.5383 6.8783 7.1283
896.975 7.3883 7.7883 8.1883 8.5383 8.4383 8.2483 7.9383 7.4183 6.8483 6.1683
916.265 5.6783 5.2883 4.9483 4.8683 4.9383 5.0083 5.1883 5.4783 5.7683 6.0083
935.555 6.1683 6.2183 5.9483 5.4983 4.9283 4.1283 3.5283 3.1783 2.7083 2.3983
954.844 2.2683 1.9483 1.9683 1.9683 1.8983 2.0483 2.1283 2.1283 2.0583 2.1283
974.134 2.2183 2.4283 2.7883 3.1283 3.3883 3.6583 3.8883 3.9883 3.9783 3.9583
993.424 3.9083 4.0883 4.0983 3.6683 3.4883 3.7683 3.9783 3.7683 3.4183 3.3683
1012.714 3.8583 4.5183 5.3183 6.4883 8.4583 11.0683 13.9283 16.7383 18.3383 18.4283
1032.003 17.6683 16.1583 13.4083 10.6383 8.6583 7.3283 6.4983 5.9883 5.8183 5.6683
1051.293 5.5383 5.4683 5.5183 5.6783 5.9683 6.3783 6.7383 6.9583 7.0383 7.2183
1070.583 7.0083 6.3883 6.1583 5.8983 5.3483 5.0483 4.5883 4.1383 3.9283 3.7583
1089.873 4.0983 4.4883 4.8483 5.0683 5.1383 5.4083 5.7883 6.2583 6.9283 8.2483
1109.163 9.6283 10.1783 10.7283 10.8683 10.3783 9.7683 8.2883 6.9483 6.0583 4.9483
1128.452 4.2683 3.4783 2.7783 2.7283 2.5183 2.1283 1.8583 1.7983 1.5883 1.2483
1147.742 1.2583 1.3283 1.4183 1.5883 1.4783 1.2383 1.2783 1.3383 1.3383 1.1583
1167.032 0.8636 1.1583 1.4683 0.9342 0.6343 0.9465 1.014 1.1383 1.2483 1.2483
1186.322 1.2483 1.2083 1.3783 1.8183 2.0183 2.5183 3.4383 4.1183 5.3283 6.8083
1205.611 8.0883 9.4483 10.5583 10.7783 10.0383 9.0483 7.8883 6.6583 5.7183 5.0883
1224.901 4.8983 4.9983 4.7983 4.8183 4.9283 4.7083 4.4883 4.0983 3.6183 3.0683
1244.191 2.6183 2.2983 2.1583 2.0783 1.8683 1.6983 1.5883 1.3383 1.1883 1.2883
1263.481 1.3983 1.2483 1.2283 1.3883 1.3783 1.4083 1.5083 1.5483 1.4683 1.5683
1282.771 1.6683 1.6283 1.6883 1.7383 1.8183 1.8583 1.8683 1.9483 2.0283 2.1083
1302.060 2.1483 2.1183 2.1683 2.1983 2.1283 2.0683 2.0683 2.0883 2.0383 1.9683
1321.350 1.8783 1.7583 1.7183 1.6883 1.6183 1.5683 1.4983 1.4283 1.3983 1.3383
1340.640 1.2783 1.3483 1.4883 1.5183 1.5383 1.5083 1.4983 1.5383 1.5383 1.4883
1359.930 1.4583 1.4783 1.5283 1.5883 1.5483 1.5083 1.4883 1.5283 1.5983 1.5583
1379.219 1.5383 1.5583 1.5983 1.5983 1.5483 1.5883 1.6683 1.6383 1.5783 1.5883
1398.509 1.5983 1.6483 1.6683 1.6583 1.7083 1.7383 1.7883 1.8883 2.0083 2.0683
1417.799 2.2383 2.5683 2.8283 3.1183 3.4683 3.8583 4.3583 4.9083 5.4983 6.0483
1437.089 6.7783 7.6083 8.3983 9.2183 9.9383 10.5383 11.0483 11.4783 11.7083 11.8383
1456.378 11.9283 11.8883 11.7483 11.5183 11.2583 10.9683 10.5483 10.2183 10.0083 9.8483
1475.668 9.9483 10.3383 11.0783 12.2383 13.9083 16.1583 19.2283 23.4483 28.9983 35.4283
1494.958 41.6183 45.9783 46.9283 44.7483 40.0083 32.9883 24.1483 16.4183 11.3383 8.1983
1514.248 6.3683 5.2483 4.5483 4.0383 3.7283 3.5083 3.2983 3.0883 2.8383 2.7083
1533.538 2.6183 2.4783 2.4083 2.3983 2.3083 2.1683 2.0383 2.0883 2.1783 2.2583
1552.827 2.4383 2.6083 2.8383 3.1483 3.2483 3.4283 3.7283 4.0683 4.5383 4.9883
1572.117 5.4483 6.0283 6.7883 7.6883 8.6483 9.8483 11.3583 13.0583 14.9083 17.2683
1591.407 20.1683 23.6083 27.6683 32.1083 36.4383 39.7283 41.1383 40.1583 37.0783 32.3083
1610.697 26.3583 20.0983 14.7783 10.6483 7.7883 6.0983 4.9083 4.0283 3.3883 3.0383
1629.986 2.7783 2.4883 2.3183 2.2483 2.1183 1.9883 1.9283 1.8983 1.9183 1.9283
1649.276 1.9483 1.9883 1.9583 1.8983 1.8583 1.8183 1.7683 1.7283 1.7083 1.6683
1668.566 1.6483 1.6083 1.5883 1.5583 1.4883 1.4183 1.3883 1.3583 1.3283 1.3583
1687.856 1.2883 1.2283 1.2983 1.3983 1.4283 1.3583 1.3483 1.4283 1.4383 1.4883
1707.146 1.5283 1.5183 1.5783 1.5783 1.5783 1.6783 1.7183 1.6983 1.7283 1.8283
1726.435 1.9183 1.9583 1.9683 1.9883 1.9683 2.0483 2.0883 2.0183 1.9383 1.9283
1745.725 1.8783 1.8383 1.7683 1.6683 1.6783 1.6383 1.6283 1.6383 1.6283 1.6383
1765.015 1.7283 1.8583 2.0583 2.3583 2.6183 2.7983 3.0783 3.3683 3.6883 4.0483
1784.305 4.3383 4.7383 5.0383 5.1183 5.0883 4.8783 4.4783 4.0383 3.6283 3.2383
1803.594 2.9083 2.6483 2.4183 2.2683 2.1483 2.0483 1.9083 1.7683 1.6983 1.6383
1822.884 1.6083 1.5683 1.6283 1.6783 1.6883 1.7383 1.7383 1.8283 1.8983 1.9483
1842.174 2.0283 2.0583 2.1383 2.1983 2.2483 2.2883 2.3583 2.4583 2.5283 2.5983
1861.464 2.7083 2.8583 2.9383 2.9683 2.9883 3.0383 3.0683 2.9883 2.9583 2.9383
1880.754 2.8483 2.7183 2.4983 2.2483 2.0783 1.9483 1.8183 1.7283 1.6283 1.5283
1900.043 1.4983 1.5183 1.5883 1.6183 1.6983 1.8383 1.9283 2.0983 2.3083 2.4483
1919.333 2.5883 2.7783 2.9983 3.1883 3.3683 3.5683 3.7183 3.7383 3.8683 4.0283
1938.623 4.0983 4.2583 4.4783 4.6883 4.9183 4.9783 4.8983 4.6683 4.2283 3.7283
1957.913 3.2183 2.6983 2.2483 1.9083 1.6583 1.5483 1.4583 1.3083 1.1883 1.1483
1977.202 1.1483 1.0983 1.0352 1.0546 1.0004 0.9254 0.9153 0.8525 0.7682 0.7163
1996.492 0.6462 0.6253 0.6907 0.6962 0.6445 0.6437 0.6641 0.6834 0.657 0.5978
2015.782 0.5997 0.6248 0.6554 0.6724 0.7178 0.7337 0.6897 0.7026 0.7547 0.749
2035.072 0.7406 0.7724 0.7999 0.8837 0.9675 0.9716 0.9788 1.0124 1.0007 1.0221
2054.362 1.0883 1.1083 1.1383 1.1683 1.1783 1.1783 1.1983 1.2183 1.1383 1.0783
2073.651 1.0883 1.0683 1 0.8965 0.8276 0.8192 0.8024 0.7515 0.6748 0.669
2092.941 0.6663 0.6375 0.6405 0.63 0.5888 0.5492 0.5303 0.5423 0.5605 0.5493
2112.231 0.5873 0.5924 0.5669 0.5451 0.5483 0.5721 0.5772 0.6022 0.5938 0.563
2131.521 0.5945 0.6104 0.5733 0.6008 0.6049 0.6257 0.6961 0.6463 0.6421 0.7092
2150.810 0.6782 0.6445 0.6908 0.7352 0.7387 0.7647 0.8117 0.8089 0.8077 0.8435
2170.100 0.8658 0.8848 0.9462 0.9603 0.8912 0.8439 0.8701 0.9112 0.8503 0.8269
2189.390 0.7793 0.7132 0.7573 0.7086 0.6556 0.6691 0.6766 0.6486 0.5647 0.521
2208.680 0.4999 0.4709 0.4647 0.4947 0.4952 0.5228 0.5021 0.4815 0.5574 0.5821
2227.970 0.4705 0.4043 0.4349 0.5027 0.5734 0.5717 0.5616 0.5458 0.5517 0.5303
2247.259 0.5703 0.6481 0.6899 0.6514 0.5882 0.5922 0.6172 0.653 0.7029 0.6575
2266.549 0.5876 0.6177 0.5852 0.5586 0.5632 0.5462 0.5518 0.6051 0.6 0.5336
2285.839 0.5091 0.5694 0.602 0.5314 0.4892 0.5236 0.5595 0.5613 0.6132 0.7227
2305.129 0.789 0.8677 0.9667 0.9919 1.0357 1.0983 1.0883 1.005 0.9127 0.8165
2324.418 0.823 0.8214 0.8262 0.889 0.8914 0.9195 0.947 0.9632 0.9169 0.8704
2343.708 0.8479 0.87 0.8878 0.8922 0.9404 0.8925 0.8574 0.8355 0.8097 0.7277
2362.998 0.6974 0.7547 0.7529 0.7681 0.7561 0.6598 0.5793 0.5835 0.6171 0.6033
2382.288 0.582 0.5457 0.5637 0.6009 0.5621 0.572 0.6137 0.6377 0.617 0.6193
2401.578 0.6585 0.6016 0.5541 0.5711 0.5896 0.6557 0.6931 0.7105 0.7567 0.8343
2420.867 0.855 0.8385 0.8247 0.7954 0.8564 0.9216 0.9546 0.9451 0.8872 0.8778
2440.157 0.8875 0.8677 0.8297 0.765 0.7662 0.7631 0.7024 0.6573 0.5778 0.5665
2459.447 0.5942 0.6039 0.6289 0.6107 0.6339 0.7653 0.7813 0.7286 0.7539 0.7345
2478.737 0.707 0.702 0.7045 0.723 0.7521 0.7534 0.7292 0.7001 0.6682 0.6347
2498.026 0.6507 0.6892 0.6934 0.7567 0.7599 0.6839 0.7144 0.6916 0.6206 0.6731
2517.316 0.6306 0.5277 0.5732 0.5868 0.6158 0.6628 0.6794 0.6481 0.5822 0.5515
2536.606 0.5411 0.5825 0.5703 0.4944 0.4864 0.5974 0.6325 0.5415 0.5439 0.5819
2555.896 0.5318 0.5207 0.5058 0.5326 0.5494 0.537 0.5359 0.4295 0.4374 0.5272
2575.186 0.5932 0.702 0.698 0.6699 0.6203 0.5762 0.5942 0.5869 0.6194 0.6578
2594.475 0.7089 0.7626 0.8565 0.8541 0.7998 0.8219 0.7953 0.7941 0.8059 0.7734
2613.765 0.702 0.6299 0.5568 0.531 0.5479 0.5309 0.5865 0.5859 0.4809 0.541
2633.055 0.5837 0.5504 0.5426 0.5341 0.5361 0.5542 0.536 0.4858 0.5288 0.4805
2652.345 0.4497 0.448 0.4331 0.4579 0.4143 0.4086 0.4466 0.3888 0.3276 0.3924
2671.634 0.4496 0.4087 0.4288 0.4654 0.3692 0.388 0.4264 0.3583 0.3441 0.3215
2690.924 0.2556 0.2744 0.3193 0.3273 0.361 0.2525 0.208 0.3001 0.3041 0.3254
2710.214 0.3506 0.3458 0.351 0.3516 0.2909 0.237 0.305 0.3369 0.2693 0.2746
2729.504 0.2772 0.2571 0.3303 0.3403 0.362 0.4065 0.3333 0.3603 0.3035 0.2564
2748.794 0.3157 0.2339 0.2573 0.3583 0.2937 0.2946 0.3968 0.4547 0.3929 0.3948
2768.083 0.5341 0.4906 0.452 0.4742 0.5194 0.5213 0.42 0.4189 0.5066 0.5219
2787.373 0.5235 0.5685 0.4992 0.3993 0.3463 0.3715 0.4119 0.3418 0.3455 0.4418
2806.663 0.4724 0.4572 0.5228 0.5155 0.4327 0.4953 0.5791 0.5425 0.4539 0.4218
2825.953 0.5008 0.5387 0.5351 0.534 0.564 0.5915 0.6403 0.6393 0.7122 0.8243
2845.242 0.78 0.769 0.8053 0.8534 0.9132 0.8952 0.8676 0.8934 0.9372 1.0487
2864.532 1.0448 1.038 1.062 1.1583 1.2083 1.1783 1.2183 1.2783 1.2683 1.3083
2883.822 1.4683 1.5783 1.5783 1.5783 1.5883 1.5583 1.5183 1.5383 1.6483 1.6483
2903.112 1.6283 1.6383 1.6783 1.6383 1.5083 1.4383 1.4383 1.3983 1.3983 1.3983
2922.401 1.3383 1.3383 1.4683 1.4483 1.3583 1.4383 1.4683 1.4983 1.5283 1.4483
2941.691 1.4383 1.4883 1.4783 1.4183 1.3583 1.3983 1.4283 1.4683 1.4283 1.3383
2960.981 1.4383 1.4883 1.5583 1.6183 1.6783 1.8183 1.9083 1.9683 2.1283 2.3883
2980.271 2.6683 2.9583 3.3283 3.7883 4.3783 5.0983 6.0183 7.1183 8.2583 9.6083
2999.561 11.1583 12.8383 14.6783 16.8483 19.0183 20.9083 23.0483 25.2583 27.3683 29.6383
3018.850 32.0083 34.5183 37.2383 40.2283 43.4583 46.4983 48.9883 50.6883 51.1883 50.3383
3038.140 48.2183 45.1883 41.5483 37.8683 34.6383 32.1583 30.5983 29.6483 29.3583 30.2383
3057.430 32.3183 35.5383 40.1383 45.9483 52.0683 57.0383 59.7983 60.2383 58.9983 56.5083
3076.720 52.7383 47.9983 43.6983 40.4483 37.3283 33.5983 29.7683 26.7283 24.3283 22.3683
3096.009 20.6183 18.9383 17.2683 15.8083 14.6783 13.4883 12.3883 11.4183 10.4683 9.5183
3115.299 8.2783 7.0783 6.1083 5.0183 4.0983 3.3783 2.7483 2.2983 1.9483 1.6583
3134.589 1.4983 1.4483 1.4383 1.3983 1.2783 1.1683 1.0554 1.0477 1.1883 1.3283
3153.879 1.1883 1.0883 1.1583 1.1183 1.0237 0.9848 1.0427 1.0285 0.858 0.7535
3173.169 0.7828 0.6671 0.5347 0.5416 0.4072 0.3734 0.5025 0.3734 0.2301 0.3345
3192.458 0.4441 0.3956 0.3309 0.4182 0.4761 0.4997 0.5327 0.4907 0.4974 0.4254
3211.748 0.4231 0.4247 0.4268 0.42 0.34 0.4322 0.5005 0.4291 0.2434 0.14476
3231.038 0.1767 0.1021 0.0253 0.15439 0.2583 0.2261 0.3332 0.3754 0.2181 0.1499
3250.328 0.2102 0.2897 0.3045 0.2961 0.294 0.2627 0.2621 0.3003 0.2354 0.1985
3269.617 0.4083 0.3644 0.215 0.3015 0.3626 0.3688 0.3623 0.3193 0.1853 0.1845
3288.907 0.2051 0.14482 0.11077 0.12124 0.2166 0.16685 0.05927 0.09657 0.15087 0.15122
3308.197 0.1694 0.3501 0.3655 0.2131 0.2331 0.2211 0.09564 0.075581 0.2659 0.4018
3327.487 0.3809 0.3087 0.3467 0.3619 0.1855 0.13388 0.2407 0.2954 0.2691 0.10774
3346.777 0.07897 0.2823 0.313 0.3049 0.3202 0.3223 0.2942 0.2087 0.2422 0.2688
3366.066 0.14771 0.14684 0.2535 0.244 0.225 0.2218 0.2001 0.12581 0.073232 0.11634
3385.356 0.08122 0.09066 0.1985 0.2446 0.2204 0.09621 0.2095 0.3685 0.2431 0.1709
3404.646 0.2639 0.306 0.3155 0.2831 0.2948 0.3411 0.1954 0.14827 0.3015 0.31
3423.936 0.2074 0.14467 0.1901 0.2519 0.3129 0.3269 0.3295 0.4197 0.4139 0.4097
3443.225 0.395 0.3634 0.2379 0.15942 0.2695 0.3439 0.3576 0.2752 0.2214 0.12569
3462.515 0.0462 0.08278 0.038 0.08066 0.16388 0.1865 0.16728 0.13879 0.1843 0.0472
3481.805 0 0.11586 0.0545 0.10076 0.232 0.2119 0.2209 0.2258 0.2 0.264
3501.095 0.3133 0.211 0.070508 0.0523 0.0423 0.075832 0.11791 0.1984 0.2919 0.3784
3520.385 0.2963 0.2387 0.2625 0.1917 0.2174 0.3438 0.4078 0.3698 0.4423 0.4174
3539.674 0.3489 0.2413 0.16535 0.183 0.13653 0.1901 0.3925 0.4462 0.3315 0.238
3558.964 0.13589 0.0394 0.0191 0.0984 0.08705 0.10169 0.2391 0.4038 0.4741 0.3699
3578.254 0.2771 0.2192 0.15455 0.2258 0.3085 0.3116 0.3334 0.2495 0.3142 0.3981
3597.544 0.3275 0.3654 0.3204 0.2099 0.1832 0.199 0.2407 0.3372 0.4532 0.3933
3616.833 0.3232 0.4593 0.6518 0.5719 0.4098 0.3941 0.3847 0.4276 0.445 0.5708
3636.123 0.6182 0.5149 0.5757 0.5245 0.4444 0.5084 0.644 0.7389 0.7248 0.7247
3655.413 0.6062 0.4268 0.5046 0.6139 0.5022 0.4126 0.4699 0.5446 0.4395 0.3137
3674.703 0.385 0.5216 0.5845 0.5928 0.4466 0.3359 0.4972 0.5781 0.433 0.4652
3693.993 0.4394 0.3588 0.4203 0.4384 0.2887 0.2314 0.3657 0.4811 0.4557 0.3995
3713.282 0.4282 0.4492 0.4167 0.2759 0.2385 0.3032 0.3247 0.2719 0.1822 0.2663
3732.572 0.2097 0.0097 0.232 0.347 0.3162 0.3414 0.3377 0.3273 0.3597 0.3543
3751.862 0.277 0.4134 0.4735 0.4378 0.4527 0.4998 0.4286 0.3934 0.5118 0.4532
3771.152 0.3139 0.2255 0.3141 0.4105 0.3959 0.367 0.2321 0.2625 0.4163 0.3948
3790.441 0.4039 0.4384 0.402 0.4332 0.4395 0.5422 0.4534 0.2013 0.3226 0.4287
3809.731 0.3524 0.4691 0.5884 0.458 0.3169 0.4287 0.6731 0.6338 0.3399 0.3246
3829.021 0.4151 0.3683 0.4425 0.5068 0.4968 0.5038 0.3488 0.0567 0.0493 0.2857
3848.311 0.4124 0.3015 0.2571 0.3265 0.3367 0.3996 0.3344 0.3224 0.4281 0.3534
3867.601 0.1965 0.2309 0.3543 0.3962 0.4834 0.4665 0.4237 0.4372 0.4551 0.412
3886.890 0.3507 0.4606 0.5383 0.5099 0.6063 0.549 0.4016 0.4654 0.5072 0.4692
3906.180 0.4067 0.4198 0.3713 0.3754 0.4041 0.4799 0.5666 0.5249 0.4925 0.4904
3925.470 0.541 0.4738 0.3473 0.3718 0.5468 0.5502 0.3957 0.41 0.4465 0.4494
3944.760 0.4931 0.5509 0.5236 0.4486 0.5221 0.5142 0.3854 0.3878 0.4289 0.3835
3964.049 0.3209 0.4072 0.4859 0.4563 0.417 0.3605 0.3561 0.3194 0.3309 0.3598
3983.339 0.3484 0.3304 0.2831 0.3182 0.3979 0.4336 0.4601 0.5071 0.5974 0.5955
##END=
