##TITLE=Ephedrine
##JCAMP-DX=4.24
##DATA TYPE=INFRARED SPECTRUM
##ORIGIN=NIST Mass Spectrometry Data Center
##OWNER=NIST Standard Reference Data Program
Collection (C) 2018 copyright by the U.S. Secretary of Commerce
on behalf of the United States of America. All rights reserved.
##CAS REGISTRY NO=299-42-3
##MOLFORM=C 10 H 15 N O
##$NIST SOURCE=MSDC-IR
##SPECTROMETER/DATA SYSTEM=HP-GC/MS/IRD
##STATE=gas
##XUNITS=1/CM
##YUNITS=ABSORBANCE
##XFACTOR=1.0
##YFACTOR=0.000001500
##DELTAX=4.0
##FIRSTX=550.0
##LASTX=3846.0
##FIRSTY=0.002769
##MAXX=3846
##MINX=550
##MAXY=0.015
##MINY=0
##NPOINTS=825
##XYDATA=(X++(Y..Y))
550.0 1846 1231 719 738 752 802 873 825 714 709
590.0 648 669 748 879 1142 1481 1802 2042 2132 2071
630.0 1839 1540 1397 1296 1280 1372 1481 1695 1935 2154
670.0 2413 2680 3092 3822 5039 6785 8700 9996 10000 8816
710.0 7087 5488 4364 3811 3630 3631 3886 4232 4510 4688
750.0 4770 4654 4238 3653 3021 2341 1741 1294 984 810
790.0 684 644 633 540 461 476 526 520 500 530
830.0 547 507 462 432 474 509 492 489 484 405
870.0 284 226 193 100 44 102 197 311 452 556
910.0 640 661 592 492 411 365 308 239 179 199
950.0 247 309 444 648 927 1322 1761 2272 2804 3207
990.0 3454 3618 3774 3943 4190 4465 4696 4872 4880 4661
1030.0 4346 3920 3454 3141 3018 3045 3174 3399 3659 3859
1070.0 3928 3869 3733 3531 3350 3224 3158 3184 3256 3413
1110.0 3753 4247 4722 5087 5214 5075 4826 4555 4308 4056
1150.0 3871 3747 3613 3484 3343 3279 3307 3350 3444 3547
1190.0 3676 3783 3752 3616 3377 3060 2773 2559 2441 2405
1230.0 2388 2355 2281 2195 2045 1855 1694 1579 1521 1511
1270.0 1562 1604 1648 1736 1858 2001 2210 2466 2699 2879
1310.0 2986 2996 2943 2874 2782 2681 2558 2441 2285 2152
1350.0 2083 2096 2216 2486 2870 3306 3736 4007 4043 3846
1390.0 3509 3166 2838 2521 2205 1914 1698 1586 1547 1617
1430.0 1856 2275 2871 3573 4262 4723 4864 4620 4212 3834
1470.0 3637 3637 3659 3626 3505 3264 2888 2377 1802 1263
1510.0 796 523 396 331 300 264 236 256 250 193
1550.0 164 142 123 92 71 102 152 214 255 328
1590.0 469 646 798 824 734 544 344 189 92 62
1630.0 46 49 57 64 93 132 134 118 142 150
1670.0 148 162 149 138 146 135 126 133 163 196
1710.0 263 353 399 403 402 415 373 260 169 130
1750.0 130 107 82 62 42 35 28 43 69 93
1790.0 160 251 325 364 311 244 189 119 81 62
1830.0 34 10 0 14 34 50 68 117 158 184
1870.0 212 239 263 276 271 244 197 156 110 65
1910.0 68 75 82 105 150 219 283 346 385 386
1950.0 376 354 304 245 181 104 67 54 64 68
1990.0 49 42 28 35 55 52 59 78 72 72
2030.0 68 44 45 56 45 61 79 62 56 66
2070.0 75 67 51 66 82 82 83 81 72 77
2110.0 87 76 67 70 72 78 65 59 60 56
2150.0 60 59 59 66 66 72 78 86 83 73
2190.0 77 77 75 68 57 67 90 77 67 69
2230.0 72 92 92 82 77 64 60 54 74 72
2270.0 53 57 67 79 87 91 86 99 108 115
2310.0 130 134 151 147 138 146 159 165 150 131
2350.0 127 143 148 139 130 118 116 103 97 89
2390.0 75 59 52 60 76 91 87 81 80 89
2430.0 98 109 121 98 67 66 73 72 75 81
2470.0 90 112 112 104 111 109 113 114 110 113
2510.0 118 143 161 152 142 142 139 150 183 203
2550.0 199 209 224 240 269 279 290 307 318 317
2590.0 323 327 332 338 334 326 330 342 339 345
2630.0 344 344 348 336 339 344 335 335 343 347
2670.0 367 390 400 406 407 404 401 427 453 469
2710.0 502 548 589 625 629 635 680 731 782 834
2750.0 913 1014 1118 1244 1385 1575 1826 2152 2596 3150
2790.0 3790 4488 5124 5528 5604 5358 4872 4328 3890 3648
2830.0 3598 3739 4021 4368 4768 5234 5721 6142 6516 6809
2870.0 7022 7183 7284 7349 7361 7291 7159 6996 6808 6607
2910.0 6369 6154 5976 5874 5902 6067 6286 6504 6659 6736
2950.0 6841 7063 7451 7980 8591 9068 9242 9022 8353 7398
2990.0 6263 5035 3933 3081 2543 2345 2373 2694 3279 3895
3030.0 4381 4598 4410 3934 3473 3225 3290 3658 4280 4958
3070.0 5313 5186 4664 3959 3357 2943 2592 2206 1823 1495
3110.0 1213 970 795 646 512 453 431 376 342 338
3150.0 324 307 307 306 294 277 237 203 199 190
3190.0 163 170 182 145 141 141 133 129 88 85
3230.0 120 110 65 67 95 80 59 84 107 92
3270.0 63 55 53 55 70 75 79 94 97 100
3310.0 86 81 99 131 122 141 181 180 183 220
3350.0 234 275 333 371 400 423 411 384 381 386
3390.0 395 395 371 355 391 415 426 437 464 488
3430.0 530 609 651 653 674 700 692 690 680 674
3470.0 680 702 764 840 980 1136 1268 1378 1422 1398
3510.0 1292 1180 1086 994 925 928 928 938 975 1023
3550.0 1031 1016 994 920 832 726 622 565 548 489
3590.0 417 415 422 434 430 392 389 409 429 463
3630.0 523 678 909 1195 1449 1551 1470 1249 968 728
3670.0 558 420 328 249 185 171 168 157 145 144
3710.0 145 105 65 45 37 91 101 85 90 86
3750.0 99 76 41 20 25 53 67 72 71 58
3790.0 30 9 20 47 64 83 77 56 84 76
3830.0 53 81 56 66 91
##END=
