##TITLE=Tris(3-chlorophenyl)phosphine
##JCAMP-DX=4.24
##DATA TYPE=INFRARED SPECTRUM
##ORIGIN=EPA-IR VAPOR PHASE LIBRARY
##OWNER=SRD/NIST
Collection (C) 2018 copyright by the U.S. Secretary of Commerce
on behalf of the United States of America. All rights reserved.
##CAS REGISTRY NO=29949-85-7
##MOLFORM=C 18 H 12 Cl 3 P
##$NIST SOURCE=MSDC-IR
##STATE=gas
##XUNITS=1/CM
##YUNITS=ABSORBANCE
##XFACTOR=1.
##YFACTOR=0.001
##DELTAX=1.92898
##FIRSTX=549.8
##LASTX=4000.7
##FIRSTY=4.588
##MAXX=4000.7
##MINX=549.759
##MAXY=0.052128
##MINY=0
##NPOINTS=1790
##XYDATA=(X++(Y..Y))
549.759 4.588 4.168 4.108 4.028 3.218 2.858 2.338 2.258 1.8855 1.3999
569.049 1.4788 1.221 1.00905 0.8855 0.644 0.702 1.1494 1.8068 1.8619 1.0844
588.339 1.0471 1.76 1.7011 1.3076 1.7191 0.937986 0.229 0.515 0.731 0.71
607.628 0.48 0.527 0.545 0.507 0.607 0.749 0.655 0.653 0.94134 0.99145
626.918 1.2577 1.6304 1.312 1.1586 1.6247 1.6824 1.5866 1.8904 2.448 2.998
646.208 3.218 3.578 4.068 5.008 6.958 9.558 12.338 14.708 16.168 15.278
665.498 13.038 11.378 9.958 8.908 8.308 8.608 10.428 13.648 18.518 23.978
684.787 28.168 29.058 25.948 20.668 15.398 11.598 9.058 7.298 6.198 5.228
704.077 4.468 3.898 3.438 3.228 2.808 2.108 1.7779 1.6998 1.647 1.8483
723.367 1.958 2.008 1.948 1.6986 1.5559 1.6733 1.4959 1.741 2.228 2.168
742.657 1.8796 1.8082 2.358 3.008 3.278 3.578 4.018 4.368 5.348 6.358
761.947 7.558 9.868 12.358 14.898 17.778 22.138 28.508 36.588 45.748 52.128
781.236 51.978 44.798 33.808 23.448 15.768 11.238 8.698 7.278 5.838 4.628
800.526 3.958 3.308 2.868 2.308 2.218 2.218 1.86 1.626 1.5217 1.691
819.816 2.108 1.8864 1.7058 1.968 2.078 2.018 1.7184 1.3357 1.0651 0.74
839.106 0.8461 1.1216 1.1834 1.6961 2.008 1.5004 1.1723 1.3367 1.5233 1.4149
858.395 1.232 1.2949 1.5932 1.8618 1.8539 2.138 2.398 2.838 3.468 3.608
877.685 3.758 4.498 5.208 5.828 6.288 6.128 5.668 4.788 3.928 3.478
896.975 3.228 2.678 2.318 2.318 2.428 2.648 2.598 2.278 2.018 1.8844
916.265 1.6739 1.7195 1.622 1.4402 1.1963 0.8961 1.1426 1.3263 1.3522 1.2846
935.555 0.98253 0.9002 0.789 0.8526 1.3093 1.4094 1.2463 1.1143 1.0484 1.3166
954.844 1.2701 0.899 1.0791 1.141 1.0875 1.3263 1.5355 1.7599 1.7214 1.7304
974.134 1.9068 1.958 1.7981 1.6803 1.7707 1.7581 1.618 1.8422 1.968 2.548
993.424 3.328 3.598 3.658 3.318 2.948 2.628 2.308 1.5672 0.893 1.1333
1012.714 1.6206 1.6982 1.8613 1.5331 0.667 0.503 1.1914 1.6909 1.397 1.442
1032.003 1.7744 1.6628 1.2333 1.2901 1.5528 1.3591 1.5651 1.503 1.2717 2.308
1051.293 3.588 3.398 3.458 4.978 6.218 6.898 8.298 10.058 11.358 12.228
1070.583 12.428 12.658 12.808 12.268 12.188 12.928 14.138 16.298 18.358 19.198
1089.873 20.158 21.368 22.008 21.208 20.858 22.558 23.988 27.088 29.228 29.588
1109.163 31.788 33.188 34.008 34.588 35.348 36.258 35.168 32.888 29.178 24.358
1128.452 19.418 15.378 12.498 9.898 7.998 6.608 5.918 5.158 4.418 3.108
1147.742 1.9103 2.318 3.138 2.528 1.3695 1.137 1.8464 2.018 2.658 3.648
1167.032 3.198 3.178 4.648 5.008 4.378 3.298 2.188 2.348 2.088 2.588
1186.322 2.848 1.7699 1.5552 2.828 3.538 2.888 2.828 3.078 3.048 3.078
1205.611 2.658 2.528 2.098 1.2126 3.268 4.878 3.688 4.188 4.348 2.838
1224.901 3.108 3.368 2.728 3.008 2.898 2.308 1.948 2.438 2.978 2.548
1244.191 2.478 3.068 3.488 3.468 3.718 4.328 4.358 3.838 3.298 2.888
1263.481 2.298 2.138 1.8675 1.4397 1.4947 1.5073 1.7537 1.7283 1.4176 1.3703
1282.771 1.529 1.9126 2.238 2.828 3.388 3.158 3.038 3.158 2.948 2.568
1302.060 2.188 1.948 1.8631 1.7347 1.5217 1.5557 1.4808 1.4885 1.7499 1.5421
1321.350 1.437 1.509 1.6335 1.7557 1.7415 1.8127 1.978 2.098 2.028 1.8234
1340.640 1.7471 1.8691 1.8998 1.7336 1.6382 1.7601 1.7698 1.5889 1.5761 1.5946
1359.930 1.5685 1.7163 1.847 1.998 2.208 2.548 2.948 3.318 3.948 4.798
1379.219 5.838 7.338 9.228 11.378 13.648 15.828 17.728 18.868 19.148 18.578
1398.509 17.288 15.718 13.958 11.908 10.078 8.538 7.398 6.838 6.398 5.988
1417.799 5.858 5.888 5.868 6.048 6.378 6.608 6.678 6.708 6.518 6.218
1437.089 6.058 5.948 5.888 5.838 5.768 5.908 6.478 7.268 8.248 9.838
1456.378 12.478 16.168 20.818 25.858 29.838 31.218 28.938 23.678 17.408 12.028
1475.668 8.578 6.578 5.408 4.668 4.058 3.668 3.388 3.378 3.328 3.068
1494.958 2.918 2.718 2.778 2.748 2.788 2.968 2.888 2.848 2.828 2.908
1514.248 2.928 2.798 2.748 2.908 3.098 3.138 3.108 3.198 3.388 3.548
1533.538 3.778 4.148 4.838 5.728 6.738 7.928 9.258 10.988 13.208 15.668
1552.827 18.308 21.218 24.168 26.928 28.578 29.018 28.798 28.138 28.248 29.558
1572.117 31.128 32.028 31.058 27.798 22.718 16.878 11.658 8.238 6.448 5.388
1591.407 4.758 3.908 3.358 3.238 2.948 2.758 2.598 2.248 1.988 1.601
1610.697 1.5324 1.6989 1.6641 1.6776 1.6368 1.4965 1.3663 1.2173 1.0979 1.2313
1629.986 1.1276 0.8693 1.03734 1.2363 1.1633 1.0436 0.9272 1.108 1.3698 1.2258
1649.276 1.254 1.2657 1.0862 1.0958 1.057 1.02964 1.0971 1.3456 1.523 1.5275
1668.566 1.6248 1.8239 2.068 2.168 2.288 2.638 2.848 3.048 3.188 2.938
1687.856 2.628 2.258 1.936 1.7699 1.5166 1.2551 1.217 1.1734 1.0838 1.00937
1707.146 1.0493 1.03031 0.8658 0.8764 1.087 1.2069 1.0922 0.940548 0.96312 1.0474
1726.435 1.163 1.2388 1.1613 1.1653 1.1519 1.2102 1.3453 1.4274 1.4588 1.606
1745.725 1.6849 1.6609 1.7985 1.8001 1.742 1.8633 2.088 2.268 2.278 2.248
1765.015 2.288 2.438 2.498 2.468 2.388 2.138 1.8538 1.8749 1.9368 1.8584
1784.305 1.8973 1.7791 1.7546 1.8455 1.7777 1.8208 1.938 1.9041 1.9326 1.948
1803.594 1.9273 2.068 2.048 1.988 1.9219 1.7607 1.5528 1.4042 1.4207 1.3688
1822.884 1.1598 1.0548 1.142 1.1278 1.1399 1.1713 1.01409 0.9507 0.986 0.99531
1842.174 1.0973 1.2722 1.2819 1.3368 1.5156 1.61 1.6918 1.7975 1.9194 2.028
1861.464 2.138 2.278 2.428 2.698 2.918 2.908 2.998 2.998 2.688 2.258
1880.754 1.948 1.7116 1.4186 1.238 1.1648 1.2072 1.1393 0.98753 0.98329 1.00998
1900.043 0.97717 0.99818 0.93304 0.9247 0.94831 0.9031 0.97499 1.0357 1.00761 1.01613
1919.333 1.02039 1.0765 1.2338 1.3432 1.4871 1.6726 1.7949 1.9314 2.108 2.168
1938.623 2.218 2.158 2.108 2.038 1.8084 1.55 1.3417 1.278 1.2162 1.1811
1957.913 1.0643 0.95022 0.918 0.944044 0.94905 0.8602 0.771 0.828 0.8711 0.837
1977.202 0.798 0.771 0.8559 0.815 0.785 0.739 0.8551 1.0729 0.97174 0.706
1996.492 0.576 0.694 0.759 0.697 0.754 0.769 0.756 0.791 0.8546 0.8672
2015.782 0.77 0.821 0.801 0.81 0.95217 0.95539 0.845 0.696 0.64 0.71
2035.072 0.765 0.793 0.795 0.75 0.667 0.66 0.711 0.768 0.741 0.673
2054.362 0.613 0.667 0.731 0.679 0.754 0.793 0.835 0.8604 0.776 0.745
2073.651 0.696 0.789 0.8749 0.702 0.748 0.98608 0.8568 0.779 0.821 0.8421
2092.941 0.9195 0.808 0.698 0.548 0.608 0.658 0.616 0.771 0.818 0.772
2112.231 0.756 0.713 0.728 0.723 0.701 0.723 0.754 0.783 0.811 0.797
2131.521 0.742 0.721 0.63 0.653 0.74 0.699 0.773 0.772 0.57 0.626
2150.810 0.668 0.669 0.833 0.805 0.68 0.756 0.818 0.741 0.792 0.672
2170.100 0.458 0.507 0.748 0.8645 0.764 0.709 0.671 0.747 0.749 0.698
2189.390 0.832 0.8849 0.763 0.79 0.9018 0.9088 0.94807 0.8863 0.8785 0.9001
2208.680 0.8578 0.813 0.693 0.694 0.772 0.725 0.612 0.598 0.639 0.681
2227.970 0.628 0.807 0.9209 0.735 0.815 0.95568 0.8651 0.671 0.639 0.643
2247.259 0.555 0.497 0.618 0.681 0.705 0.831 0.676 0.613 0.711 0.774
2266.549 0.742 0.619 0.705 0.572 0.502 0.8492 0.944792 0.9184 0.97794 0.712
2285.839 0.593 0.757 0.8677 0.937298 0.9063 0.661 0.543 0.629 0.679 0.73
2305.129 0.735 0.707 0.629 0.719 0.732 0.62 0.681 0.8992 0.8806 0.608
2324.418 0.603 0.661 0.769 0.944106 1.0005 0.97642 1.1092 1.098 1.03369 1.103
2343.708 1.01736 1.0606 0.99936 0.9113 0.8471 0.756 0.832 0.8956 0.97135 1.0674
2362.998 1.1168 1.03614 0.94936 1.119 1.1569 0.97625 1.00533 1.1375 1.03684 0.8793
2382.288 1.1613 1.3745 1.2634 1.0613 0.99103 0.96888 1.02945 1.03029 0.769 0.809
2401.578 0.8807 0.99544 1.0692 0.9067 0.744 0.637 0.687 0.76 0.74 0.738
2420.867 0.95254 0.98646 0.824 0.758 0.711 0.514 0.489 0.8478 0.9128 0.753
2440.157 0.644 0.627 0.551 0.707 0.774 0.472 0.517 0.913 0.8693 0.759
2459.447 0.808 0.745 0.8556 0.95708 0.872 0.767 0.9285 0.95144 1.0929 1.1615
2478.737 0.9067 0.946799 0.947921 0.8446 0.946609 1.0569 1.02174 0.817 0.762 0.543
2498.026 0.591 0.724 0.635 0.95291 1.0508 1.0798 1.0612 0.718 0.594 0.645
2517.316 0.776 0.8856 0.8757 1.0518 1.1219 1.00211 0.86 0.64 0.362 0.564
2536.606 0.8843 0.796 0.622 0.566 0.807 0.769 0.66 0.72 0.662 0.725
2555.896 0.8 0.8826 1.045 0.79 0.51 0.68 1.00782 1.1385 0.95428 0.787
2575.186 0.9037 0.98359 0.8453 0.778 0.702 0.645 0.734 0.805 0.74 0.787
2594.475 0.731 0.539 0.567 0.588 0.559 0.554 0.604 0.681 0.767 0.694
2613.765 0.715 0.721 0.54 0.71 0.742 0.744 0.786 0.808 0.832 0.8557
2633.055 0.8986 0.8687 0.96551 0.9176 0.788 0.828 0.773 0.809 0.93245 0.95943
2652.345 1.1987 0.96122 0.612 0.708 0.736 0.828 0.698 0.496 0.758 0.92817
2671.634 0.9021 0.95651 0.8941 0.8396 0.94812 1.00207 0.97745 0.8655 0.683 0.725
2690.924 0.8625 0.97546 1.02289 0.805 0.663 0.54 0.447 0.722 0.763 0.577
2710.214 0.462 0.29 0.545 0.8773 0.95308 0.8414 0.705 0.808 0.8458 0.78
2729.504 0.658 0.342 0.348 0.642 0.623 0.836 0.96578 0.99405 0.764 0.576
2748.794 0.686 0.487 0.233 0.559 0.937516 0.689 0.483 0.531 0.577 0.724
2768.083 0.8921 0.795 0.678 0.733 0.738 0.746 0.742 0.554 0.423 0.409
2787.373 0.488 0.672 0.9054 0.8819 0.736 0.8455 0.64 0.517 0.739 0.772
2806.663 0.742 0.706 0.744 0.675 0.45 0.552 0.772 0.8488 1.0719 1.1499
2825.953 1.124 0.8434 0.66 0.756 0.785 0.645 0.428 0.507 0.661 0.8727
2845.242 0.98474 0.767 0.575 0.458 0.329 0.328 0.458 0.516 0.534 0.772
2864.532 0.8787 0.646 0.782 0.769 0.233 0.075 0.576 0.9175 1.03201 1.1352
2883.822 0.93368 0.759 0.733 0.749 0.654 0.727 0.665 0.698 0.662 0.391
2903.112 0.649 1.01748 1.1089 1.0292 1.02476 1.0625 1.0798 1.0959 1.2307 1.2949
2922.401 1.3048 1.3257 1.1461 0.9059 0.703 0.506 0.724 0.896 0.673 0.741
2941.691 0.724 0.254 0.371 0.591 0.381 0.57 0.99764 1.1219 0.99286 0.940433
2960.981 0.537 0.145 0.373 0.532 0.706 0.818 0.8728 1.01509 0.851 0.838
2980.271 0.785 0.763 0.8464 0.8514 1.1305 1.2305 1.294 1.2018 1.1785 1.4809
2999.561 1.3295 1.5043 1.7064 1.4968 1.1065 1.0929 1.3474 1.5808 1.5833 1.3646
3018.850 1.4515 1.0621 1.00006 1.6061 1.6604 1.337 1.2625 1.3145 1.523 1.6107
3038.140 1.6813 1.8736 2.278 2.478 3.228 4.418 4.688 4.888 5.838 6.468
3057.430 7.188 8.368 8.758 8.808 8.818 8.738 8.828 8.848 9.028 8.768
3076.720 8.218 7.888 7.188 6.388 5.508 4.538 3.498 2.778 2.478 2.368
3096.009 2.088 1.7402 1.341 1.2291 1.308 1.2496 1.4495 1.4526 1.684 1.958
3115.299 1.7537 1.4779 1.3356 1.2628 1.0836 0.95245 1.0274 0.98204 1.0841 1.6445
3134.589 1.4583 0.823 0.501 0.8714 1.4194 1.2334 0.98545 1.0468 1.0809 0.96293
3153.879 1.0483 1.2598 1.1249 0.8843 0.99911 0.8632 0.721 0.666 0.623 0.694
3173.169 0.832 0.95685 0.424 0.198 0.52 0.396 0.315 0.65 0.434 0.641
3192.458 1.0381 0.623 0.424 0.42 0.367 0.513 0.717 0.717 0.257 0.072
3211.748 0.181 0.358 0.604 0.509 0.474 0.497 0.737 0.575 0.421 0.466
3231.038 0.473 0.468 0.386 0.54 0.649 0.508 0.444 0.791 0.712 0.491
3250.328 0.39 0.233 0.193 0.335 0.518 0.355 0.499 0.649 0.645 0.565
3269.617 0.29 0.319 0.615 0.573 0.466 0.733 0.712 0.476 0.251 0.377
3288.907 0.562 0.597 0.861 1.0619 1.01179 0.8904 0.749 0.746 0.875 0.8578
3308.197 0.645 0.623 0.722 0.282 0.248 0.667 0.622 0.704 0.93307 1.01828
3327.487 0.82 0.45 0.623 0.8575 0.791 0.8907 0.8876 0.8535 0.8412 0.737
3346.777 0.279 0.243 0.369 0.068 0.417 0.699 0.819 0.814 0.756 0.73
3366.066 0.837 0.664 0.433 0.421 0.175 0.214 0.337 0.396 0.183 0.202
3385.356 0.739 1.3254 1.2091 0.648 0 0.086 0.763 0.664 0.389 0.53
3404.646 0.44 0.353 0.571 0.532 0.34 0.217 0.553 0.8692 0.8855 0.771
3423.936 0.803 1.0909 1.0794 1.0709 1.01839 0.9612 0.735 0.295 0.307 0.38
3443.225 0.241 0.49 0.66 0.493 0.754 1.0899 1.03596 0.819 0.706 0.535
3462.515 0.308 0.243 0.565 0.97063 1.03391 0.9014 0.729 0.687 0.705 0.711
3481.805 0.8434 0.609 0.747 1.0858 0.447 0.269 0.628 0.542 0.375 0.44
3501.095 0.637 0.695 0.703 0.659 0.696 0.8579 0.671 0.435 0.374 0.062
3520.385 0.035 0.143 0.376 0.716 0.555 0.584 0.39 0.574 0.812 0.803
3539.674 0.8735 0.564 0.213 0.189 0.214 0.183 0.752 0.887 0.502 0.558
3558.964 0.332 0.102 0.377 0.351 0.549 1.0779 0.8435 0.47 0.684 0.96086
3578.254 0.8656 0.343 0.16 0.338 0.182 0.277 0.768 0.816 0.755 0.8414
3597.544 0.711 0.243 0.157 0.637 0.615 0.532 0.473 0.485 0.621 0.451
3616.833 0.438 0.453 0.556 0.498 0.385 0.767 1.0486 0.793 0.538 0.473
3636.123 0.648 0.617 0.652 0.668 0.222 0.161 0.271 0.21 0.746 0.731
3655.413 0.231 0.815 0.9223 0.596 0.671 0.658 1.03313 1.4851 1.2637 0.8971
3674.703 0.8923 0.98984 1.2043 1.1543 0.496 0.406 0.532 0.449 0.7 0.696
3693.993 0.622 0.518 0.52 0.833 0.8549 0.506 0.485 0.502 0.741 0.94894
3713.282 0.581 0.371 0.329 0.594 0.676 0.664 0.457 0.27 0.349 0.579
3732.572 1.02727 1.2677 1.33 0.819 0.621 0.798 0.803 0.97238 0.939304 0.813
3751.862 0.35 0.382 0.699 0.543 0.242 0.413 0.754 0.746 0.78 0.554
3771.152 0.291 0.358 0.407 0.37 0.345 0.378 0.487 0.394 0.69 0.703
3790.441 0.449 0.345 0.553 0.616 0.687 0.764 0.623 0.433 0.261 0.465
3809.731 0.276 0.681 0.8862 0.407 0.33 0.641 0.667 0.719 0.79 0.597
3829.021 0.664 0.945531 1.0097 0.785 0.341 0.499 0.8628 0.352 0.432 0.608
3848.311 0.468 0.619 0.97657 0.596 0.625 1.0489 0.9124 0.688 0.681 1.2651
3867.601 1.4015 1.1581 0.862 0.555 0.665 0.679 0.826 0.762 0.406 0.614
3886.890 0.8753 0.8459 0.669 0.6 0.731 0.78 0.476 0.535 1.01067 0.8831
3906.180 0.756 0.785 0.763 1.03416 0.668 0.561 0.716 0.487 0.8608 1.3116
3925.470 0.95039 0.8434 1.00221 0.767 0.806 0.78 0.9109 0.98613 0.681 0.937895
3944.760 1.2594 0.815 0.769 0.817 0.704 0.99415 0.689 0.184 0.425 0.684
3964.049 0.731 0.8877 0.736 0.727 0.8936 0.77 0.9126 1.00967 0.52 0.146
3983.339 0.355 0.617 0.713 0.696 0.731 0.451 0.155 0.614 0.706 0.532
##END=
