##TITLE=2-Ethoxy-2-cyclohexenone
##JCAMP-DX=4.24
##DATA TYPE=INFRARED SPECTRUM
##ORIGIN=EPA-IR VAPOR PHASE LIBRARY
##OWNER=SRD/NIST
Collection (C) 2018 copyright by the U.S. Secretary of Commerce
on behalf of the United States of America. All rights reserved.
##CAS REGISTRY NO=29941-82-0
##MOLFORM=C 8 H 12 O 2
##$NIST SOURCE=MSDC-IR
##STATE=gas
##XUNITS=1/CM
##YUNITS=ABSORBANCE
##XFACTOR=1.
##YFACTOR=0.001
##DELTAX=1.92898
##FIRSTX=549.8
##LASTX=4000.7
##FIRSTY=11.996
##MAXX=4000.7
##MINX=549.759
##MAXY=0.266976
##MINY=0
##NPOINTS=1790
##XYDATA=(X++(Y..Y))
549.759 11.996 12.046 11.986 11.016 9.786 8.536 7.456 6.856 5.926 5.086
569.049 4.856 4.456 3.996 3.666 3.196 2.976 2.646 2.216 2.246 2.536
588.339 2.566 2.446 2.356 2.106 2.106 2.776 3.156 2.916 2.876 2.966
607.628 3.096 3.256 3.266 3.376 3.586 3.706 3.336 3.326 3.466 3.166
626.918 3.306 3.346 3.266 3.336 3.146 3.076 2.856 2.636 2.986 2.866
646.208 2.776 2.966 2.766 2.726 2.706 2.996 3.576 3.706 3.956 4.266
665.498 4.436 5.086 5.336 5.376 5.986 6.356 6.376 6.466 6.556 6.656
684.787 7.036 7.246 7.146 7.266 7.366 7.466 7.586 7.786 8.216 8.366
704.077 8.346 8.536 8.536 8.416 8.306 8.096 7.916 7.666 7.376 6.976
723.367 6.276 5.716 5.306 5.066 4.556 3.816 3.216 2.706 2.486 2.296
742.657 2.006 1.756 1.816 1.906 1.956 1.766 1.356 1.396 1.716 2.086
761.947 1.946 1.596 1.696 2.136 2.306 2.276 2.306 2.396 2.506 2.546
781.236 2.946 3.566 4.086 4.506 5.206 5.786 6.246 6.796 7.586 8.456
800.526 9.376 9.506 9.106 9.196 9.456 9.336 8.856 8.576 8.426 8.136
819.816 7.976 7.756 7.446 7.066 6.976 7.376 7.516 7.656 7.616 7.806
839.106 8.476 9.076 9.606 10.336 11.036 11.596 12.086 12.436 12.586 12.706
858.395 13.006 13.216 13.116 12.816 13.246 13.796 14.536 15.886 17.146 18.376
877.685 19.296 19.686 19.996 20.676 21.256 21.936 22.526 22.326 21.366 20.446
896.975 19.746 19.306 19.766 20.536 21.396 22.886 24.966 27.516 30.206 32.646
916.265 34.746 36.296 37.476 37.936 37.686 36.836 35.456 33.536 30.826 27.716
935.555 24.366 21.516 19.446 17.326 15.116 13.196 11.806 10.716 9.466 8.476
954.844 8.326 8.566 8.646 9.106 10.166 11.326 12.606 14.176 15.426 16.136
974.134 16.666 17.146 17.776 17.826 17.556 16.756 15.456 14.516 13.466 12.386
993.424 11.516 11.136 10.666 10.746 11.886 12.686 13.666 15.386 17.126 18.856
1012.714 21.696 24.596 27.966 32.236 35.936 39.876 43.626 46.786 49.336 51.096
1032.003 52.356 53.256 53.346 52.016 50.026 48.156 46.056 43.156 39.666 36.576
1051.293 33.796 30.756 27.856 25.486 23.186 21.816 21.236 20.826 21.416 21.746
1070.583 22.246 23.226 23.986 24.756 26.376 28.376 30.126 32.636 35.306 39.506
1089.873 45.776 52.466 60.386 69.636 79.336 89.296 99.316 107.846 114.266 120.046
1109.163 124.716 126.756 126.266 124.896 120.996 115.826 110.626 103.676 97.396 92.496
1128.452 89.706 89.526 90.306 92.626 95.806 100.876 108.286 115.516 122.366 128.116
1147.742 130.996 131.306 128.636 123.476 116.386 108.446 99.626 89.526 79.536 71.876
1167.032 67.966 67.986 72.716 80.826 92.316 107.566 126.256 146.356 164.636 179.516
1186.322 189.126 193.196 191.996 185.816 175.726 161.276 141.996 119.236 94.306 71.986
1205.611 55.536 44.086 36.626 31.146 26.416 23.726 22.926 22.616 22.426 22.806
1224.901 23.846 25.376 28.376 32.986 38.436 45.126 52.846 60.936 69.326 76.706
1244.191 83.446 89.616 93.836 95.676 94.946 92.756 89.456 83.616 75.946 67.616
1263.481 59.226 51.486 44.336 38.046 32.476 27.556 24.146 22.076 20.546 19.666
1282.771 19.086 18.676 18.626 18.596 18.466 18.236 18.006 17.936 17.756 17.596
1302.060 17.586 17.586 17.796 18.196 19.046 20.096 21.346 22.826 24.336 26.296
1321.350 28.426 30.676 33.376 36.156 38.936 41.786 44.496 46.976 48.906 50.156
1340.640 50.936 51.156 50.816 49.866 48.116 45.686 43.046 40.436 37.966 35.846
1359.930 34.206 32.936 31.976 31.166 30.426 29.866 29.406 29.176 29.156 29.276
1379.219 29.436 29.516 29.616 29.726 29.806 29.956 29.906 29.736 29.466 28.986
1398.509 28.236 27.096 25.746 24.396 23.066 21.976 21.426 21.206 21.426 21.926
1417.799 22.546 23.116 23.526 24.016 24.336 24.366 24.256 24.026 23.666 23.166
1437.089 22.726 22.666 22.916 23.346 23.796 23.736 23.366 23.346 23.336 23.036
1456.378 22.456 21.586 20.656 19.576 18.496 17.536 16.386 15.176 14.236 13.556
1475.668 13.076 12.466 11.816 11.496 11.186 10.636 10.016 9.406 8.646 7.826
1494.958 7.176 6.656 6.156 5.766 5.396 5.156 5.016 4.756 4.576 4.366
1514.248 4.176 4.076 4.006 3.946 3.896 3.766 3.666 3.616 3.596 3.716
1533.538 3.886 3.806 3.696 3.726 3.746 3.746 3.766 3.676 3.596 3.666
1552.827 3.746 3.836 3.866 3.926 3.896 3.926 4.096 4.176 4.206 4.296
1572.117 4.486 4.686 4.746 4.806 5.166 5.576 5.906 6.546 7.246 7.826
1591.407 8.616 9.536 10.566 11.836 13.316 15.036 17.096 19.886 23.556 28.396
1610.697 34.526 41.996 50.716 60.756 71.206 80.836 89.016 94.756 97.806 98.166
1629.986 95.966 91.356 84.386 75.016 63.896 52.086 41.166 32.626 26.406 22.146
1649.276 19.336 17.826 16.916 16.286 16.066 15.996 16.236 16.766 17.346 18.136
1668.566 19.486 20.946 22.666 25.026 28.096 32.096 37.556 44.246 53.246 64.726
1687.856 78.406 95.486 116.036 138.856 163.336 187.266 207.476 224.826 238.426 250.546
1707.146 260.986 266.976 264.756 253.076 234.116 212.276 190.606 171.506 153.356 134.936
1726.435 116.106 97.826 80.976 66.596 54.396 44.666 37.176 31.106 26.336 22.636
1745.725 19.846 17.606 15.866 14.466 13.196 12.186 11.486 10.816 10.286 9.896
1765.015 9.506 9.106 8.766 8.566 8.386 8.206 8.126 7.936 7.626 7.436
1784.305 7.166 6.876 6.576 6.296 6.026 5.646 5.426 5.166 4.816 4.556
1803.594 4.296 4.126 3.996 3.776 3.616 3.556 3.396 3.266 3.286 3.256
1822.884 3.156 2.996 2.886 2.896 2.946 2.886 2.806 2.846 2.846 2.866
1842.174 2.856 2.826 2.846 2.836 2.906 3.086 3.166 3.136 3.156 3.126
1861.464 3.106 3.126 3.196 3.266 3.266 3.236 3.266 3.336 3.366 3.336
1880.754 3.296 3.296 3.316 3.236 3.096 3.116 3.026 2.866 2.856 2.766
1900.043 2.686 2.596 2.456 2.446 2.496 2.446 2.416 2.376 2.286 2.376
1919.333 2.536 2.606 2.486 2.456 2.506 2.546 2.586 2.506 2.436 2.466
1938.623 2.526 2.496 2.526 2.576 2.496 2.396 2.376 2.396 2.446 2.476
1957.913 2.406 2.336 2.346 2.386 2.356 2.286 2.306 2.306 2.246 2.186
1977.202 2.166 2.156 2.086 2.056 2.026 2.056 1.986 1.956 2.076 1.966
1996.492 1.836 1.936 2.006 2.036 1.996 1.916 1.986 2.036 1.966 1.936
2015.782 2.056 2.096 2.006 1.936 1.926 2.066 2.166 2.206 2.376 2.326
2035.072 2.146 2.186 2.296 2.316 2.296 2.296 2.146 2.006 1.976 1.966
2054.362 1.876 1.766 1.696 1.656 1.636 1.636 1.536 1.496 1.586 1.566
2073.651 1.566 1.556 1.526 1.446 1.376 1.386 1.476 1.556 1.516 1.536
2092.941 1.546 1.496 1.556 1.736 1.786 1.736 1.686 1.656 1.686 1.756
2112.231 1.676 1.526 1.526 1.536 1.466 1.456 1.416 1.406 1.426 1.366
2131.521 1.266 1.176 1.1417 1.1165 1.1389 1.121 1.0574 1.0927 1.1246 1.1427
2150.810 1.0861 1.1006 1.186 1.176 1.1212 1.1315 1.176 1.236 1.276 1.156
2170.100 1.1158 1.1389 1.0985 1.1252 1.196 1.176 1.206 1.276 1.186 1.176
2189.390 1.196 1.216 1.236 1.286 1.306 1.286 1.346 1.406 1.516 1.546
2208.680 1.386 1.356 1.616 1.686 1.606 1.616 1.586 1.526 1.456 1.366
2227.970 1.386 1.406 1.356 1.376 1.246 1.0571 1.0943 1.206 1.206 1.1281
2247.259 1.0892 1.1052 1.166 1.166 1.1168 1.246 1.216 1.094 1.0771 1.1241
2266.549 1.156 1.143 1.196 1.276 1.336 1.386 1.446 1.486 1.456 1.466
2285.839 1.506 1.466 1.486 1.486 1.516 1.486 1.476 1.526 1.566 1.566
2305.129 1.536 1.606 1.616 1.566 1.536 1.586 1.736 1.696 1.606 1.616
2324.418 1.476 1.466 1.586 1.576 1.466 1.336 1.456 1.526 1.486 1.466
2343.708 1.356 1.406 1.506 1.426 1.296 1.426 1.576 1.556 1.526 1.576
2362.998 1.566 1.516 1.486 1.526 1.646 1.776 1.726 1.646 1.626 1.636
2382.288 1.686 1.606 1.606 1.616 1.466 1.376 1.406 1.346 1.366 1.566
2401.578 1.616 1.546 1.596 1.706 1.826 1.856 1.926 2.206 2.336 2.156
2420.867 2.146 2.166 2.276 2.406 2.306 2.346 2.376 2.436 2.496 2.386
2440.157 2.326 2.306 2.266 2.036 1.846 1.856 1.806 1.706 1.656 1.586
2459.447 1.556 1.586 1.506 1.506 1.516 1.486 1.446 1.406 1.516 1.706
2478.737 1.686 1.556 1.606 1.586 1.486 1.626 1.686 1.596 1.686 1.756
2498.026 1.746 1.776 1.786 1.716 1.616 1.556 1.486 1.416 1.466 1.476
2517.316 1.396 1.346 1.326 1.346 1.416 1.456 1.296 1.176 1.216 1.186
2536.606 1.0939 1.0437 0.9749 0.8835 0.8703 0.9914 1.002 0.8318 0.888 0.9781
2555.896 1.0452 1.085 1.0478 1.0779 1.0126 1.0596 1.0595 0.9348 1.0269 1.186
2575.186 1.143 0.9988 0.9538 0.9148 0.9502 0.9997 0.9496 1.0829 1.176 1.1245
2594.475 1.176 1.186 1.131 1.176 1.246 1.206 1.166 1.246 1.266 1.226
2613.765 1.276 1.216 1.216 1.256 1.1232 1.1134 1.166 1.1381 1.186 1.346
2633.055 1.416 1.326 1.356 1.496 1.486 1.466 1.576 1.736 1.826 1.976
2652.345 2.096 2.226 2.506 2.706 2.776 2.736 2.776 2.876 2.886 2.966
2671.634 3.096 2.846 2.666 2.766 2.776 2.766 2.666 2.566 2.496 2.356
2690.924 2.306 2.366 2.216 2.036 2.046 2.106 2.106 2.106 2.136 2.056
2710.214 2.006 2.016 2.026 2.116 2.266 2.256 2.236 2.386 2.436 2.496
2729.504 2.616 2.806 2.846 2.786 2.856 2.946 3.066 3.076 3.066 3.226
2748.794 3.316 3.356 3.506 3.476 3.446 3.636 3.846 3.916 4.046 4.266
2768.083 4.366 4.426 4.626 4.796 5.076 5.156 5.046 5.166 5.306 5.376
2787.373 5.536 5.626 5.486 5.486 5.716 5.906 6.026 6.206 6.576 6.856
2806.663 6.966 7.236 7.576 8.096 8.436 8.816 9.516 10.226 11.016 11.916
2825.953 13.176 14.746 16.456 18.576 21.116 23.976 27.356 31.086 34.706 37.776
2845.242 40.026 41.666 42.826 43.326 43.396 43.126 42.446 41.626 41.166 41.466
2864.532 42.636 44.686 47.266 50.086 53.046 55.996 58.736 60.796 61.886 62.466
2883.822 62.756 62.666 62.536 62.386 61.916 61.076 59.996 59.186 58.866 58.806
2903.112 59.146 59.606 60.176 60.746 61.106 61.816 63.066 65.136 68.596 73.436
2922.401 78.996 85.326 91.826 97.906 103.896 110.126 116.996 125.366 134.646 142.606
2941.691 149.406 154.856 156.076 152.396 148.846 145.986 138.386 130.726 125.396 116.176
2960.981 103.066 90.516 81.486 76.486 74.266 73.826 74.456 74.966 74.836 74.286
2980.271 73.436 72.546 71.516 69.716 67.116 64.136 61.016 57.696 53.406 48.206
2999.561 43.146 38.656 34.726 31.276 28.266 25.606 23.526 21.866 20.576 19.616
3018.850 18.906 18.606 18.886 19.396 19.836 20.546 21.266 21.646 21.706 21.566
3038.140 21.486 21.486 21.406 20.916 19.916 18.686 17.326 16.016 14.776 13.456
3057.430 12.046 11.046 10.276 9.226 8.236 7.306 6.306 5.646 5.266 4.796
3076.720 4.406 4.256 4.116 3.856 3.536 3.386 3.426 3.216 3.026 2.966
3096.009 2.866 2.716 2.486 2.466 2.536 2.516 2.456 2.466 2.396 2.456
3115.299 2.536 2.416 2.426 2.316 2.116 2.236 2.346 2.336 2.316 2.326
3134.589 2.156 2.026 2.156 2.176 2.206 2.146 1.956 1.886 1.946 1.916
3153.879 1.946 1.976 1.816 1.836 1.766 1.736 2.016 1.946 1.736 1.696
3173.169 1.666 1.696 1.696 1.626 1.456 1.436 1.466 1.566 1.656 1.376
3192.458 1.256 1.366 1.446 1.496 1.436 1.426 1.536 1.716 1.636 1.496
3211.748 1.466 1.436 1.396 1.516 1.666 1.616 1.616 1.556 1.486 1.636
3231.038 1.756 1.506 1.416 1.366 1.256 1.1427 1.083 1.206 1.0523 0.9375
3250.328 1.0475 0.9557 0.6731 0.4955 0.6749 0.7214 0.6467 0.874 0.8199 0.5845
3269.617 0.4287 0.4383 0.5062 0.7265 0.7644 0.6585 0.7185 0.6028 0.4636 0.5258
3288.907 0.513 0.3524 0.4643 0.6035 0.6359 0.8124 0.6675 0.4372 0.6678 0.7916
3308.197 0.8052 0.6351 0.5244 0.6887 0.8524 0.902 0.7591 0.6673 0.8532 0.9605
3327.487 0.9582 0.8908 0.9971 1.1442 0.9871 0.894 0.908 0.9543 1.0977 1.296
3346.777 1.286 1.1009 0.9838 1.0743 1.306 1.426 1.376 1.466 1.336 1.366
3366.066 1.696 1.716 1.886 2.376 2.656 2.716 2.906 2.996 3.116 3.346
3385.356 3.656 4.026 4.206 4.246 4.066 3.956 4.146 4.126 3.986 3.866
3404.646 3.646 3.476 3.496 3.336 3.116 3.086 3.086 2.706 2.436 2.406
3423.936 2.396 2.206 1.866 1.806 1.776 1.656 1.356 1.166 1.166 1.0147
3443.225 0.8923 0.7559 0.7212 0.8188 0.6932 0.739 0.9139 0.7915 0.6847 0.6497
3462.515 0.4581 0.3519 0.5236 0.6873 0.5133 0.3368 0.304 0.334 0.2718 0.24402
3481.805 0.3127 0.45 0.4556 0.3929 0.5519 0.3853 0.2539 0.4344 0.3939 0.18846
3501.095 0.3646 0.3165 0.0662 0.2777 0.4715 0.4063 0.386 0.24115 0.0921 0.2474
3520.385 0.2519 0.21045 0.2654 0.1281 0.031 0.20024 0.15714 0.1173 0.3535 0.3023
3539.674 0.21027 0.2757 0.3435 0.4196 0.4163 0.4329 0.5143 0.4507 0.4218 0.491
3558.964 0.5243 0.386 0.15872 0.24465 0.19227 0.21287 0.17127 0.1029 0.3358 0.2515
3578.254 0.19972 0.13849 0.0594 0.19542 0.22139 0.3039 0.4027 0.3038 0.3526 0.439
3597.544 0.4291 0.3325 0.3682 0.5226 0.436 0.3066 0.124 0.2753 0.3571 0.22845
3616.833 0.21425 0.20686 0.23664 0.1277 0.145034 0.1953 0.1043 0.3197 0.5014 0.20693
3636.123 0.1237 0.322 0.1141 0.0661 0.323 0.20831 0 0.0979 0.2589 0.3157
3655.413 0.251 0.16673 0.21944 0.3496 0.3958 0.4591 0.3806 0.16628 0.22742 0.2584
3674.703 0.3641 0.3361 0.3484 0.5002 0.3294 0.2469 0.2841 0.146222 0.1323 0.1273
3693.993 0.0825 0.3022 0.4047 0.3269 0.335 0.19293 0.1299 0.3109 0.3906 0.4093
3713.282 0.3851 0.5245 0.5921 0.5299 0.5509 0.3285 0.1084 0.271 0.5425 0.589
3732.572 0.4615 0.5869 0.3938 0.22836 0.4185 0.5267 0.7081 0.5487 0.4088 0.5496
3751.862 0.5065 0.5187 0.5577 0.4301 0.3348 0.2472 0.4972 0.5698 0.4075 0.6198
3771.152 0.6255 0.5514 0.4345 0.4188 0.6755 0.7382 0.5402 0.3238 0.4141 0.5559
3790.441 0.7676 0.7116 0.4702 0.5555 0.5446 0.4805 0.5339 0.627 0.6391 0.6017
3809.731 0.6751 0.6212 0.3769 0.2835 0.3498 0.4792 0.5536 0.6185 0.7827 0.4877
3829.021 0.148823 0.3457 0.6915 0.6644 0.5572 0.6726 0.5872 0.4011 0.3982 0.5842
3848.311 0.6369 0.6222 0.6917 0.5836 0.5425 0.5783 0.528 0.4169 0.407 0.4984
3867.601 0.3533 0.4601 0.8001 0.8032 0.4715 0.312 0.4374 0.3648 0.453 0.5835
3886.890 0.4919 0.4203 0.4594 0.5674 0.5191 0.4235 0.4386 0.5147 0.6841 0.5383
3906.180 0.4743 0.3112 0.1359 0.495 0.6 0.4676 0.5685 0.4723 0.3269 0.6302
3925.470 0.8251 0.7576 0.7249 0.7165 0.6947 0.6693 0.6985 0.6494 0.4972 0.4564
3944.760 0.3555 0.3575 0.7065 0.7856 0.426 0.5337 0.7089 0.7506 0.6946 0.5194
3964.049 0.571 0.5822 0.665 0.7637 0.7755 0.9532 1 0.9302 1.0311 1.0454
3983.339 0.8542 0.784 0.8185 0.8473 0.9366 0.8797 0.9412 0.9541 0.9649 1.0437
##END=
