##TITLE=Amphetamine
##JCAMP-DX=4.24
##DATA TYPE=INFRARED SPECTRUM
##ORIGIN=NIST Mass Spectrometry Data Center
##OWNER=NIST Standard Reference Data Program
Collection (C) 2018 copyright by the U.S. Secretary of Commerce
on behalf of the United States of America. All rights reserved.
##CAS REGISTRY NO=300-62-9
##MOLFORM=C 9 H 13 N
##$NIST SOURCE=MSDC-IR
##SPECTROMETER/DATA SYSTEM=HP-GC/MS/IRD
##STATE=gas
##XUNITS=1/CM
##YUNITS=ABSORBANCE
##XFACTOR=1.0
##YFACTOR=0.000000600
##DELTAX=4.0
##FIRSTX=550.0
##LASTX=3846.0
##FIRSTY=0.000692
##MAXX=3846
##MINX=550
##MAXY=0.006
##MINY=0
##NPOINTS=825
##XYDATA=(X++(Y..Y))
550.0 1153 774 545 609 412 304 531 730 752 863
590.0 942 1048 1192 1111 1014 831 688 735 771 851
630.0 926 849 856 873 847 991 1275 1471 1473 1655
670.0 2078 2384 3004 4178 5412 6586 7928 8919 8893 8264
710.0 7574 7124 7058 7524 8486 9471 10000 9732 8698 7233
750.0 5989 5313 4965 4922 5210 5649 6139 6474 6684 6956
790.0 7024 6754 6132 5513 4930 4249 3521 3023 2823 2720
830.0 2557 2367 2197 2019 1767 1464 1212 986 881 794
870.0 677 642 634 598 583 608 556 555 636 582
910.0 491 397 300 293 348 395 356 361 390 348
950.0 277 220 210 239 204 123 120 122 73 73
990.0 102 121 222 223 159 208 301 535 925 1192
1030.0 1227 1199 1044 764 722 791 877 971 1023 1144
1070.0 1271 1437 1663 1823 1878 1897 1953 2048 2054 2083
1110.0 2123 2103 2022 1863 1833 1763 1612 1492 1323 1168
1150.0 1035 899 769 698 678 678 715 626 568 540
1190.0 484 521 514 552 599 504 476 504 548 562
1230.0 528 513 457 458 429 301 254 234 218 250
1270.0 264 277 315 365 410 457 443 419 480 516
1310.0 530 616 657 717 874 1027 1194 1439 1676 1845
1350.0 1951 2076 2064 2136 2295 2511 2746 2806 2657 2307
1390.0 1919 1512 1157 887 737 657 601 594 659 799
1430.0 1035 1332 1715 2130 2427 2568 2660 2667 2358 2030
1470.0 1824 1639 1590 1835 2345 2833 3055 3022 2659 1934
1510.0 1192 791 595 543 525 489 476 454 444 430
1550.0 467 508 534 605 703 768 889 1096 1378 1727
1590.0 2111 2463 2736 2984 3105 3132 3135 3019 2851 2677
1630.0 2367 2014 1645 1307 1078 921 795 641 527 444
1670.0 344 292 252 233 238 235 236 202 187 151
1710.0 131 159 165 167 157 194 231 240 254 265
1750.0 252 207 185 153 125 128 182 215 221 316
1790.0 397 443 476 460 378 287 251 229 181 144
1830.0 129 104 81 93 121 149 226 277 306 322
1870.0 318 346 350 335 321 269 207 161 128 123
1910.0 159 180 218 282 351 384 418 452 480 483
1950.0 457 392 276 208 131 64 67 76 75 52
1990.0 52 47 31 27 36 40 42 43 0 6
2030.0 16 15 41 61 67 69 59 61 70 65
2070.0 64 68 79 45 31 29 44 111 96 74
2110.0 81 48 66 108 84 94 130 136 116 66
2150.0 74 137 113 84 121 172 181 146 127 138
2190.0 155 118 103 107 129 141 144 169 140 89
2230.0 94 147 137 125 140 135 161 168 153 155
2270.0 150 153 173 176 141 82 56 74 109 129
2310.0 110 147 178 140 125 148 179 187 151 141
2350.0 151 146 149 145 143 142 186 159 105 135
2390.0 117 110 154 134 101 128 107 89 111 101
2430.0 81 103 116 71 75 102 105 172 168 119
2470.0 136 131 138 171 183 186 153 150 150 138
2510.0 131 121 141 152 134 131 177 189 162 153
2550.0 167 209 201 184 193 181 167 186 169 171
2590.0 202 235 275 269 250 280 313 330 339 346
2630.0 317 315 344 347 343 321 333 350 291 277
2670.0 335 386 389 341 336 324 259 258 304 335
2710.0 338 341 389 425 423 408 402 418 401 428
2750.0 435 371 393 411 405 427 473 448 490 543
2790.0 583 676 727 756 801 888 972 1084 1247 1390
2830.0 1594 1893 2233 2651 3120 3553 3900 4062 4075 4067
2870.0 4144 4217 4252 4285 4302 4359 4534 4972 5599 6247
2910.0 7133 8069 8763 9214 9436 9404 8925 8181 7456 6785
2950.0 6569 7024 7917 8842 9376 9349 8696 7560 6249 4985
2990.0 3844 2955 2403 2121 2142 2423 2912 3658 4677 5700
3030.0 6421 6679 6432 5606 4571 3839 3705 4174 5016 5789
3070.0 6172 6179 5691 4828 4072 3508 3038 2588 2139 1713
3110.0 1400 1179 936 749 585 479 408 319 316 357
3150.0 360 360 378 419 439 371 312 242 180 227
3190.0 308 298 236 237 242 213 192 225 252 200
3230.0 163 139 183 228 164 150 210 236 226 243
3270.0 236 214 197 204 247 269 220 139 168 207
3310.0 227 239 230 256 342 397 416 392 295 288
3350.0 319 318 288 214 209 199 206 282 235 133
3390.0 201 287 323 326 254 213 211 216 304 331
3430.0 242 162 216 272 188 103 128 161 169 253
3470.0 251 161 171 193 155 148 173 230 286 226
3510.0 134 229 272 242 214 103 60 130 156 111
3550.0 161 173 138 197 174 182 215 228 215 216
3590.0 246 222 189 155 162 244 290 278 232 169
3630.0 195 252 301 333 401 269 126 182 204 240
3670.0 254 210 254 282 248 232 173 190 245 248
3710.0 323 291 240 234 243 213 100 179 276 346
3750.0 360 293 231 216 249 282 230 195 270 262
3790.0 259 342 358 307 251 237 257 190 150 145
3830.0 202 261 307 320 267
##END=
