##TITLE=5-Methyl-1,10-phenanthroline
##JCAMP-DX=4.24
##DATA TYPE=INFRARED SPECTRUM
##ORIGIN=EPA-IR VAPOR PHASE LIBRARY
##OWNER=SRD/NIST
Collection (C) 2018 copyright by the U.S. Secretary of Commerce
on behalf of the United States of America. All rights reserved.
##CAS REGISTRY NO=3002-78-6
##MOLFORM=C 13 H 10 N 2
##$NIST SOURCE=MSDC-IR
##STATE=gas
##XUNITS=1/CM
##YUNITS=ABSORBANCE
##XFACTOR=1.
##YFACTOR=0.001
##DELTAX=1.92898
##FIRSTX=549.8
##LASTX=4000.7
##FIRSTY=0.9966
##MAXX=4000.7
##MINX=549.759
##MAXY=0.032716
##MINY=0
##NPOINTS=1790
##XYDATA=(X++(Y..Y))
549.759 0.9966 1.686 1.0461 1.0077 1.836 1.586 1.0143 1.151 1.4233 2.026
569.049 1.2618 0.8779 1.0656 0.8743 1.1061 1.094 1.2786 1.1657 1.008 0.55714
588.339 0.8662 1.1612 1.0683 1.5526 1.4976 1.4118 1.676 1.846 2.116 2.066
607.628 2.046 2.916 4.486 5.976 6.566 6.366 7.146 8.106 7.166 5.636
626.918 4.146 3.066 2.256 1.766 1.996 2.216 2.696 3.006 3.366 3.866
646.208 3.866 3.966 4.166 3.756 2.936 2.636 2.166 1.676 1.596 1.2432
665.498 1.0986 1.165 1.0766 1.0258 1.2149 1.2664 1.2003 1.2501 1.3361 1.475
684.787 1.4427 1.2816 1.636 1.886 1.966 2.026 2.246 2.686 2.876 3.016
704.077 2.906 2.596 2.706 2.546 2.056 2.186 2.196 2.256 2.526 3.416
723.367 4.966 6.256 8.126 11.206 14.666 18.066 21.336 24.776 29.246 32.716
742.657 29.666 22.856 18.496 16.026 13.086 9.946 7.326 4.786 3.696 3.276
761.947 2.466 2.546 2.816 2.686 3.086 4.456 5.916 7.086 8.576 10.406
781.236 12.666 15.476 16.656 15.066 13.406 12.496 11.296 9.836 8.186 6.556
800.526 5.886 5.286 4.096 3.336 3.186 2.656 1.816 1.576 1.596 1.686
819.816 2.466 2.636 1.696 1.4635 1.686 1.946 2.116 1.826 1.5536 1.736
839.106 2.026 1.776 1.3842 1.916 2.306 2.026 2.386 3.176 4.216 5.296
858.395 6.536 7.956 9.836 11.816 13.936 16.956 19.476 18.846 15.556 13.016
877.685 11.746 10.096 8.206 6.736 4.976 3.676 3.266 2.696 2.186 1.756
896.975 1.5494 1.816 1.896 1.936 1.986 1.716 1.796 1.756 1.4277 1.576
916.265 1.5589 1.4293 1.676 1.926 1.886 1.586 1.3193 1.4841 1.5344 1.2919
935.555 1.2193 1.2741 1.0054 0.7128 0.9235 1.0281 0.9491 0.7711 0.7471 0.9631
954.844 1.2684 1.3344 1.3314 1.5384 1.3102 1.4851 1.686 1.5636 1.646 1.996
974.134 2.306 2.046 2.056 2.486 2.486 2.686 2.846 2.916 3.166 3.096
993.424 3.106 3.126 2.836 2.446 2.426 2.516 2.206 1.5431 0.921 0.91
1012.714 1.676 1.896 1.636 1.606 1.2903 1.5573 2.126 2.186 2.576 2.976
1032.003 3.316 3.586 3.106 2.696 3.086 3.216 3.236 2.836 2.846 3.646
1051.293 3.486 3.426 3.416 2.896 2.936 2.236 2.096 2.516 2.176 2.026
1070.583 2.016 2.146 2.826 3.526 3.016 3.686 4.676 4.706 5.556 5.716
1089.873 5.426 6.056 5.906 5.316 5.436 4.676 3.926 3.616 2.726 2.286
1109.163 2.446 2.636 2.116 2.296 2.086 1.5204 2.076 1.566 1.1202 1.626
1128.452 1.916 2.266 2.546 2.606 3.116 4.726 6.036 6.726 8.206 8.476
1147.742 7.906 7.586 6.566 4.646 3.226 3.116 2.916 2.986 2.876 2.446
1167.032 2.296 2.346 2.466 1.706 1.686 1.706 1.4156 1.766 1.566 1.3872
1186.322 1.3079 1.986 1.966 1.1489 1.4901 2.436 2.676 1.816 1.966 2.366
1205.611 1.5081 0.61775 1.1773 1.926 2.606 3.086 2.526 2.146 2.236 3.346
1224.901 3.556 2.586 2.416 2.316 2.286 2.206 1.816 1.726 1.766 1.786
1244.191 1.806 1.586 1.3607 1.626 1.906 1.796 1.4555 1.4473 1.836 1.876
1263.481 1.776 1.896 1.886 2.066 2.006 1.696 1.796 2.216 2.596 2.726
1282.771 2.876 3.196 3.256 3.036 3.186 3.246 2.946 2.686 2.286 2.156
1302.060 2.226 2.176 1.986 1.796 1.846 1.846 1.686 1.5063 1.3499 1.3661
1321.350 1.3995 1.3795 1.3703 1.3023 1.3756 1.5549 1.4687 1.4263 1.5086 1.5247
1340.640 1.576 1.4636 1.566 1.706 1.686 1.736 1.906 2.046 2.036 2.106
1359.930 2.186 2.356 2.706 3.236 3.856 4.416 5.126 6.056 7.016 7.936
1379.219 8.486 8.626 8.666 8.726 8.506 7.896 7.096 6.526 6.216 5.986
1398.509 6.036 6.376 6.976 8.056 9.506 11.366 13.986 17.396 21.116 24.046
1417.799 25.726 26.196 25.396 23.706 21.126 17.356 13.066 9.686 7.446 6.056
1437.089 5.366 5.256 5.336 5.516 5.736 6.066 6.326 6.126 6.056 6.116
1456.378 6.116 6.106 5.876 5.656 5.616 5.576 5.546 5.566 5.896 6.496
1475.668 7.126 8.046 8.906 9.546 10.096 10.486 10.666 10.616 10.556 10.706
1494.958 10.986 11.426 11.996 12.536 12.806 12.616 12.436 11.906 10.866 9.586
1514.248 8.186 7.056 5.996 5.056 4.426 3.976 3.716 3.656 3.636 3.536
1533.538 3.496 3.526 3.776 4.206 4.706 5.596 6.956 8.576 10.036 11.386
1552.827 12.326 12.746 12.696 12.056 10.886 9.326 7.686 6.336 5.406 5.096
1572.117 5.036 5.106 5.266 5.386 5.836 6.376 6.896 7.236 7.596 8.006
1591.407 8.336 8.386 8.116 8.076 7.886 7.466 7.136 6.796 6.666 6.556
1610.697 6.526 6.636 6.856 7.046 6.916 6.586 6.306 6.016 5.496 4.926
1629.986 4.486 4.076 3.636 3.156 3.026 3.076 3.016 2.966 2.676 2.476
1649.276 2.426 2.306 2.276 2.186 2.176 2.076 1.806 1.686 1.686 1.586
1668.566 1.4886 1.576 1.4901 1.4147 1.501 1.3612 1.4152 1.549 1.4001 1.2816
1687.856 1.2064 1.2514 1.3877 1.4556 1.4265 1.3637 1.3017 1.4422 1.5375 1.5539
1707.146 1.786 1.896 2.016 2.246 2.456 2.566 2.646 2.626 2.676 2.886
1726.435 3.016 3.316 3.546 3.556 3.486 3.456 3.336 3.116 2.916 2.736
1745.725 2.696 2.426 2.096 1.956 1.836 1.866 1.916 1.926 1.786 1.646
1765.015 1.596 1.5049 1.5342 1.5082 1.4673 1.3143 1.0825 1.0937 1.0744 1.1121
1784.305 1.2167 1.0908 1.0487 1.1548 1.216 1.209 1.1839 1.2225 1.196 1.3009
1803.594 1.321 1.2039 1.2587 1.3263 1.3027 1.2522 1.2815 1.2476 1.2159 1.2059
1822.884 1.1483 1.06 1.0281 1.0509 0.9984 1.0622 1.1356 1.1373 1.1234 1.0923
1842.174 1.0798 1.1129 1.2809 1.3731 1.345 1.2214 1.2499 1.4724 1.606 1.686
1861.464 1.826 2.046 2.216 2.326 2.566 2.836 2.886 2.836 2.756 2.606
1880.754 2.356 2.276 2.106 1.776 1.816 1.916 1.816 1.766 1.976 2.166
1900.043 2.296 2.516 2.736 2.806 2.776 2.666 2.546 2.406 2.226 2.126
1919.333 1.906 1.766 1.676 1.716 1.926 2.086 2.346 2.716 3.196 3.466
1938.623 3.576 3.636 3.566 3.466 3.146 2.766 2.446 2.006 1.596 1.3599
1957.913 1.1779 1.2373 1.3182 1.192 1.1701 1.2806 1.2477 1.1817 1.1719 1.146
1977.202 1.1556 1.162 1.1545 1.1437 1.0768 1.0167 1.0029 0.9915 1.0365 1.1985
1996.492 1.2094 1.125 1.2344 1.1895 1.1092 1.1643 1.1233 1.1196 1.1047 1.0882
2015.782 1.147 1.1559 1.1083 1.0685 1.0805 1.1654 1.1457 1.0945 1.147 0.9099
2035.072 0.7681 0.9275 1.099 1.1429 1.1668 1.2447 1.0632 0.9694 0.9157 0.9695
2054.362 1.0695 1.0811 1.0914 1.0736 1.014 0.9748 1.0475 0.9522 1.0171 1.1601
2073.651 1.147 1.1595 1.1521 1.1236 1.0749 1.1134 1.0826 1.0951 1.2535 1.0996
2092.941 0.9393 1.1012 1.0848 1.0485 1.0279 1.0351 1.1198 1.0832 1.088 1.1383
2112.231 1.086 0.9788 0.9915 1.0397 0.9626 0.9102 0.9652 0.9547 0.9916 1.0045
2131.521 0.9698 0.9543 1.0163 1.0239 1.0075 1.0163 1.023 0.9727 0.8716 0.9667
2150.810 1.0545 1.0252 0.9614 0.8421 0.9031 1.0412 1.0951 1.0255 0.9994 0.9776
2170.100 0.8796 0.8957 0.9516 0.9653 1.0149 0.9818 0.8311 0.8401 0.9356 0.9746
2189.390 0.9395 1.0067 1.0015 0.9998 1.1293 1.1172 1.0938 1.0917 1.1582 1.1261
2208.680 1.1641 1.2631 1.3175 1.2597 1.0268 0.9563 0.8874 1.0136 1.1055 0.9164
2227.970 0.865 0.9587 1.0738 0.9915 0.9433 1.1806 1.2036 1.038 0.9895 1.0438
2247.259 1.0688 1.1222 1.112 1.0182 1.0037 1.0681 1.0493 0.9698 1.116 1.2234
2266.549 1.117 1.0531 1.0397 1.0218 1.0651 1.1397 1.1286 0.9969 0.9888 1.0221
2285.839 0.9363 0.9817 1.0611 0.9217 0.8705 1.0205 1.1377 1.1468 1.1059 1.0287
2305.129 1.1678 1.268 1.0557 0.9399 0.844 0.8628 1.0319 1.0645 1.0726 0.991
2324.418 0.9875 1.0991 1.0042 1.0739 1.1898 1.1927 1.1153 1.0033 0.9707 0.8651
2343.708 0.7826 1.0067 1.1954 1.021 0.9339 1.0211 1.1323 1.1547 0.9351 0.9391
2362.998 1.0698 1.0149 1.0449 1.1988 1.1205 1.0119 1.1652 1.2148 1.0734 0.8923
2382.288 0.8309 0.8967 0.8574 0.9154 1.0387 1.0749 1.0497 0.8626 0.9741 1.0597
2401.578 1.0522 1.0937 1.0041 1.0825 0.9885 0.8702 0.8835 0.9688 1.0384 0.9178
2420.867 0.8975 1.0955 1.233 1.3327 1.3244 1.0878 1.1462 1.1934 1.0614 1.0495
2440.157 1.0508 1.0808 1.1637 1.0534 1.0068 1.1643 1.1778 1.0464 1.0097 1.0209
2459.447 0.9859 0.9879 0.9702 0.9084 0.9888 1.0569 1.0139 1.027 1.094 1.0768
2478.737 0.9402 1.0223 0.9902 0.907 1.0578 1.0905 0.9765 0.8728 0.9807 1.0622
2498.026 0.9715 0.9728 0.9243 0.8071 1.0351 1.0644 0.7542 0.7328 0.9185 0.9731
2517.316 0.9791 1.0515 1.0052 0.9761 0.9897 1.0065 1.0752 0.9298 0.8659 1.0829
2536.606 1.1694 1.055 1.0511 1.0834 0.8251 0.57883 0.65851 0.706 0.8652 1.0661
2555.896 0.995 1.008 1.0937 1.1214 0.9961 0.9584 1.0734 1.0639 0.9117 0.949
2575.186 1.0211 1.0966 0.9607 0.9877 1.1019 0.936 1.1452 1.1919 1.2287 1.2649
2594.475 1.0299 0.9598 0.9917 1.0703 0.9254 0.9772 1.0128 0.9076 0.9968 0.9777
2613.765 1.0334 1.0501 1.0626 1.1084 1.0269 1.0012 1.0041 0.949 0.9374 0.8854
2633.055 1.0375 1.1124 1.0486 0.9569 1.0172 1.1597 1.1074 1.0236 1.0264 1.1071
2652.345 0.9594 0.9309 1.0202 1.0195 1.1061 1.1386 0.9888 0.9211 0.8938 0.9749
2671.634 1.0269 0.85 0.871 1.0214 0.9894 0.9708 0.8011 0.59913 0.7571 0.9388
2690.924 0.9289 0.9172 1.0372 1.0379 1.0065 0.9971 0.9148 0.9256 0.8803 0.7984
2710.214 0.8693 0.9842 1.0208 0.9751 0.8907 0.9098 1.0399 1.1564 1.1576 1.1977
2729.504 1.1911 1.2596 1.4216 1.378 1.3775 1.3343 1.3624 1.4196 1.3381 1.0887
2748.794 1.0124 1.1549 1.128 1.0766 1.1069 1.1832 1.0673 0.9576 0.9551 0.8582
2768.083 0.8417 1.0303 1.1444 1.0961 0.9258 0.695 0.8179 0.9146 0.8314 1.0264
2787.373 1.0705 1.0473 1.1846 1.0726 1.0759 1.2572 1.1569 0.9938 0.9826 1.1396
2806.663 1.4454 1.4098 1.2907 1.436 1.5027 1.4795 1.4797 1.525 1.5077 1.4362
2825.953 1.656 1.836 1.676 1.716 1.726 1.5352 1.4873 1.5342 1.5004 1.4478
2845.242 1.5092 1.696 1.686 1.726 2.006 2.076 2.126 2.056 2.306 2.806
2864.532 3.056 3.346 3.666 4.176 4.576 4.876 5.096 5.116 5.216 5.096
2883.822 4.946 4.846 4.666 4.486 4.276 4.236 4.216 4.266 4.496 4.536
2903.112 4.436 4.466 4.546 4.566 4.536 4.516 4.806 5.076 5.156 5.796
2922.401 6.556 7.206 7.956 8.626 9.046 9.366 9.516 9.516 9.566 9.216
2941.691 8.796 8.576 8.346 8.186 7.936 7.946 8.186 8.246 8.086 7.746
2960.981 7.296 6.836 6.606 6.266 6.236 6.416 6.736 7.346 7.866 8.526
2980.271 9.136 9.396 9.406 9.256 9.246 9.306 8.906 8.476 8.316 8.256
2999.561 8.556 8.946 9.106 9.256 9.376 9.756 10.446 11.116 12.036 13.366
3018.850 14.796 16.446 18.106 19.336 20.616 21.696 22.176 22.446 22.476 21.746
3038.140 20.766 19.806 18.566 17.566 16.966 16.266 15.996 16.056 15.906 15.886
3057.430 16.096 16.126 15.986 15.916 16.216 16.656 17.436 18.576 19.206 19.226
3076.720 19.026 18.796 17.996 16.456 14.756 13.076 11.236 9.396 7.856 6.766
3096.009 5.806 4.896 4.316 4.036 3.586 3.276 3.146 2.946 2.486 2.216
3115.299 2.246 2.186 2.186 2.196 2.006 1.776 1.896 1.886 1.5351 1.2251
3134.589 1.2527 1.4859 1.4843 1.4305 1.716 1.866 1.816 1.626 1.3852 1.3875
3153.879 1.2707 1.1171 1.1456 1.1161 1.106 1.2204 1.1794 1.1492 1.0805 1.0726
3173.169 1.3591 1.3656 1.3635 1.2597 0.9518 0.8944 1.0706 1.1674 1.195 1.1361
3192.458 1.0437 0.913 0.8103 0.7789 0.7323 0.8648 0.8062 0.997 0.9554 0.8023
3211.748 0.984 0.9405 0.7718 0.5325 0.4858 0.57661 0.7966 0.7773 0.65907 0.64593
3231.038 0.6903 0.8591 0.7529 0.5449 0.5462 0.7348 0.8701 0.7398 0.64423 0.6686
3250.328 0.65191 0.537 0.344 0.373 0.5253 0.65827 0.6741 0.6756 0.7843 0.7058
3269.617 0.4699 0.4928 0.63314 0.63986 0.6655 0.4981 0.244 0.303 0.5386 0.7711
3288.907 1.0568 0.8346 0.62821 0.4844 0.454 0.7563 0.568877 0.134 0.233 0.383
3308.197 0.349 0.4734 0.5221 0.62333 0.7125 0.7464 0.7652 0.5309 0.6826 0.8304
3327.487 0.421 0.438 0.6946 0.63686 0.5115 0.9011 0.9071 0.4834 0.4848 0.6725
3346.777 0.59038 0.7285 0.9243 0.9576 0.7865 0.6727 1.0092 0.7413 0.5362 0.7403
3366.066 0.65907 0.56314 0.7567 0.9749 0.570701 0.4752 0.60545 0.283 0.089 0.324
3385.356 0.62506 0.6024 0.4801 0.6248 0.55619 0.379 0.6737 0.57858 0.441 0.402
3404.646 0.412 0.59098 0.7106 0.8045 0.63039 0.364 0.5463 0.8533 0.7278 0.6636
3423.936 0.5123 0.187 0.22 0.59327 0.7388 0.64894 0.7284 0.6951 0.5372 0.422
3443.225 0.374 0.463 0.5462 0.63923 0.7664 0.7195 0.7317 0.8918 0.7626 0.6873
3462.515 0.5401 0.59581 0.7697 0.6192 0.59741 0.5491 0.571418 0.61919 0.7676 0.60628
3481.805 0.5465 0.9419 0.9804 1.0384 1.0441 0.7882 0.5577 0.566834 0.7738 0.60577
3501.095 0.215 0.209 0.55729 0.884 0.5129 0.1 0.4726 0.5063 0.278 0.1
3520.385 0.275 0.63102 0.7475 0.6728 0.60551 0.58984 0.337 0.307 0.388 0.4778
3539.674 0.39 0.428 0.61795 0.6979 0.8567 0.8041 0.6985 0.7317 0.7815 0.7108
3558.964 0.60243 0.4761 0.359 0.329 0.372 0.5508 0.5178 0.327 0.346 0.5229
3578.254 0.5095 0.4 0.36 0.282 0.384 0.416 0.5344 0.58963 0.56375 0.6732
3597.544 0.58718 0.226 0.177 0.362 0.437 0.462 0.441 0.408 0.4842 0.8313
3616.833 0.61851 0.514 0.7601 0.4685 0.5341 0.7522 0.7038 0.65267 0.61262 0.60351
3636.123 0.5408 0.442 0.34 0.4839 0.6901 0.4873 0.277 0.258 0.228 0.357
3655.413 0.33 0.34 0.304 0.4773 0.7428 0.5125 0.55676 0.7266 0.61662 0.5394
3674.703 0.504 0.4766 0.456 0.689 0.6211 0.469 0.534 0.455 0.349 0.09
3693.993 0.194 0.5441 0.5462 0.354 0.57812 0.7131 0.504 0.6835 0.9134 0.8474
3713.282 0.7276 0.60569 0.5534 0.5127 0.414 0.41 0.5442 0.461 0.46 0.5249
3732.572 0.60936 0.62196 0.265 0.347 0.58203 0.64537 0.64626 0.5545 0.277 0.406
3751.862 0.8153 0.8524 0.5108 0.454 0.5945 0.5067 0.8378 0.7458 0.5396 0.457
3771.152 0 0.205 0.7015 0.7248 0.66116 0.6843 0.5312 0.4718 0.66318 0.60147
3790.441 0.454 0.7168 0.8357 0.56231 0.7013 0.567256 0.459 0.439 0.33 0.33
3809.731 0.237 0.312 0.359 0.5395 0.58853 0.55807 0.9007 0.66297 0.223 0.4766
3829.021 0.64987 0.55806 0.5416 0.325 0.151 0.341 0.57979 0.7263 0.60879 0.455
3848.311 0.344 0.6697 0.7287 0.405 0.59415 0.6695 0.5405 0.5082 0.8486 0.9333
3867.601 0.65417 0.7539 0.9956 0.8491 0.6939 0.65768 0.491 0.58212 0.6899 0.7301
3886.890 0.7767 0.5192 0.4976 0.7457 0.5179 0.7305 1.1595 0.8718 0.341 0.309
3906.180 0.465 0.64413 0.9529 0.427 0.028 0.6728 0.9771 0.8407 0.8304 0.8393
3925.470 0.831 0.55998 0.331 0.338 0.422 0.4727 0.416 0.274 0.209 0.419
3944.760 0.62932 0.8876 0.8065 0.6963 0.7578 0.6752 0.7475 0.7341 0.8673 0.8196
3964.049 0.418 0.311 0.461 0.429 0.416 0.376 0.262 0.364 0.339 0.5214
3983.339 0.6766 0.5481 0.61857 0.7631 0.64257 0.61702 1.0071 1.3366 0.9502 0.64698
##END=
