##TITLE=4,4',4''-Trichlorotrityl alcohol
##JCAMP-DX=4.24
##DATA TYPE=INFRARED SPECTRUM
##ORIGIN=EPA-IR VAPOR PHASE LIBRARY
##OWNER=SRD/NIST
Collection (C) 2018 copyright by the U.S. Secretary of Commerce
on behalf of the United States of America. All rights reserved.
##CAS REGISTRY NO=3010-80-8
##MOLFORM=C 19 H 13 Cl 3 O
##$NIST SOURCE=MSDC-IR
##STATE=gas
##XUNITS=1/CM
##YUNITS=ABSORBANCE
##XFACTOR=1.
##YFACTOR=0.001
##DELTAX=1.92934
##FIRSTX=549.9
##LASTX=3999.5
##FIRSTY=3.73
##MAXX=3999.53
##MINX=549.863
##MAXY=0.05763
##MINY=0
##NPOINTS=1789
##XYDATA=(X++(Y..Y))
549.863 3.73 3.41 3.14 2.97 2.83 2.71 2.6 2.61 2.53 2.4
569.156 2.44 2.56 2.5 2.63 2.81 2.79 2.86 3.03 3.16 3.11
588.450 2.93 2.82 2.66 2.43 2.37 2.3566 2.39 2.3359 2.2043 2.115
607.743 2.0301 1.9709 1.9534 1.994 2.0133 1.9588 1.9256 1.9738 1.9777 1.9833
627.037 2.0465 2.1213 2.2058 2.2924 2.2914 2.1414 2.0602 2.039 2.0015 1.9665
646.330 1.9381 1.9746 1.9467 1.9378 1.9768 1.9734 1.948 2.0038 2.063 2.0892
665.624 2.116 2.1579 2.2164 2.1932 2.1646 2.1451 2.1776 2.2182 2.2588 2.3074
684.917 2.3308 2.52 2.76 2.95 3.27 3.62 3.86 3.89 3.68 3.41
704.210 3.13 2.9 2.71 2.6 2.54 2.51 2.52 2.54 2.5 2.51
723.504 2.57 2.61 2.6 2.61 2.57 2.47 2.42 2.42 2.52 2.73
742.797 3.01 3.34 3.59 3.56 3.3 3 2.79 2.68 2.64 2.61
762.091 2.56 2.56 2.58 2.61 2.66 2.73 2.81 2.89 2.97 3.07
781.384 3.19 3.35 3.53 3.77 4 4.19 4.46 4.8 5.23 5.79
800.678 6.48 7.38 8.57 10.07 12.01 14.52 17.71 21.74 26.49 31.3
819.971 35.28 37.51 37.49 35.4 31.7 26.96 21.89 17.25 13.44 10.49
839.264 8.35 6.87 5.82 5.13 4.68 4.32 4.04 3.81 3.63 3.49
858.558 3.4 3.28 3.14 3.04 2.96 2.92 2.91 2.84 2.77 2.74
877.851 2.75 2.8 2.87 2.93 2.98 3.09 3.25 3.46 3.72 4.05
897.145 4.45 4.95 5.59 6.38 7.23 7.95 8.25 8.07 7.44 6.59
916.438 5.78 5.11 4.58 4.17 3.89 3.69 3.5 3.34 3.24 3.2
935.732 3.22 3.26 3.29 3.33 3.39 3.44 3.48 3.47 3.43 3.34
955.025 3.21 3.11 3.02 2.94 2.92 2.9 2.89 2.9 2.94 3
974.318 3.07 3.14 3.23 3.34 3.44 3.53 3.64 3.81 4.01 4.29
993.612 4.66 5.16 5.86 6.94 8.58 11.01 14.38 19.15 26.14 34.65
1012.905 40.19 39.52 33.51 24.35 16.62 12.9 11.25 9.88 8.52 7.25
1032.199 6.15 5.34 4.8 4.39 4.16 4.06 3.96 3.88 3.87 3.91
1051.492 3.94 3.99 4.06 4.07 4.09 4.18 4.31 4.46 4.6 4.72
1070.786 4.87 5.09 5.38 5.7 6.18 7.01 8.32 10.61 14.52 21
1090.079 30.76 42.77 53.29 57.63 53.21 41.73 28.6 18.64 12.74 9.52
1109.372 7.64 6.42 5.57 5.01 4.57 4.2 4 3.82 3.67 3.63
1128.666 3.6 3.54 3.5 3.48 3.5 3.59 3.75 3.99 4.3 4.63
1147.959 5.05 5.49 5.89 6.23 6.27 5.99 5.5 4.91 4.38 3.95
1167.253 3.68 3.56 3.56 3.6 3.68 3.92 4.37 4.84 5.14 5.25
1186.546 5.06 4.67 4.46 4.42 4.38 4.37 4.25 4.15 4.15 4.14
1205.840 4.07 4 3.93 3.9 4 4.07 4.23 4.21 4.17 4.33
1225.133 4.33 4.19 4.19 4.18 4.13 4.03 3.82 3.74 3.73 3.72
1244.426 3.67 3.62 3.72 3.75 3.72 3.77 3.86 3.97 4.09 4.15
1263.720 4.28 4.45 4.53 4.52 4.54 4.6 4.62 4.65 4.73 4.88
1283.013 5.04 5.13 5.33 5.48 5.54 5.56 5.57 5.7 5.76 5.81
1302.307 5.95 6.12 6.27 6.33 6.36 6.43 6.41 6.34 6.18 5.97
1321.600 5.79 5.58 5.41 5.24 5.09 4.95 4.8 4.79 4.95 5.05
1340.894 4.77 4.45 4.4 4.37 4.34 4.34 4.34 4.34 4.27 4.18
1360.187 4.22 4.23 3.96 3.67 3.62 3.61 3.64 3.69 3.64 3.78
1379.480 3.94 4.1 4.35 4.79 5.41 5.78 6.2 6.92 7.64 8.12
1398.774 8.36 8.28 7.99 7.54 6.83 6.06 5.44 4.85 4.37 4.17
1418.067 3.97 3.58 3.28 3.18 3.03 2.92 2.86 2.83 2.87 3.02
1437.361 3.05 2.91 2.94 3 3.11 3.29 3.41 3.6 3.85 4.09
1456.654 4.46 4.78 5.14 5.65 6.3 7.2 8.29 9.53 11.05 12.8
1475.948 14.62 16.47 18.53 21.1 24.36 28.49 33.1 36.97 38.33 36.29
1495.241 31.07 24.06 17.56 12.63 9.22 6.88 5.73 5.28 4.72 4.09
1514.534 3.68 3.38 3.09 2.9 2.66 2.58 2.65 2.58 2.5 2.43
1533.828 2.36 2.37 2.0508 1.7346 1.9335 2.38 2.57 2.46 2.63 2.63
1553.121 2.54 2.57 2.3118 2.2364 2.71 3.18 3.53 3.92 4.2 4.48
1572.415 4.75 4.61 4.41 4.69 5.01 5.36 5.88 6.48 7 7.3
1591.708 7.27 6.86 6.26 5.61 5 4.48 4.03 3.67 3.39 3.15
1611.002 2.94 2.72 2.36 2.0466 2.1847 2.266 2.0937 2.0672 2.1105 2.1254
1630.295 2.2052 2.226 2.042 2.0454 2.41 2.64 2.74 2.73 2.65 2.74
1649.588 2.8 2.3438 2.0644 2.38 2.37 2.1954 2.0118 1.8429 1.8735 1.8486
1668.882 1.6853 1.6627 1.6911 1.6322 1.675 1.7894 1.8635 1.6347 1.316 1.4865
1688.175 1.7278 1.648 1.5746 1.41394 1.2655 1.2941 1.19 1.35045 1.5494 1.5094
1707.469 1.5394 1.59 1.6147 1.6607 1.6132 1.4982 1.5418 1.6633 1.7404 1.7339
1726.762 1.7065 1.7768 1.7958 1.7103 1.639 1.6605 1.669 1.6498 1.7926 1.8694
1746.056 1.8175 1.8246 1.9674 2.0017 1.8523 1.8805 1.9728 1.9738 2.0253 2.0676
1765.349 2.1584 2.43 2.42 2.1483 2.1565 2.4 2.56 2.68 2.77 2.83
1784.642 2.9 2.67 2.44 2.3304 2.0701 1.9593 1.9669 1.8339 1.8811 1.9774
1803.936 1.7586 1.6232 1.6182 1.5713 1.6028 1.587 1.603 1.6888 1.6187 1.585
1823.229 1.6648 1.7172 1.6128 1.5048 1.5453 1.6372 1.6126 1.5543 1.5567 1.616
1842.523 1.6565 1.6002 1.6436 1.6826 1.5897 1.5341 1.5309 1.5243 1.5427 1.5927
1861.816 1.6321 1.6124 1.5957 1.6155 1.6367 1.6167 1.5879 1.5779 1.6166 1.6881
1881.110 1.6885 1.6701 1.7077 1.7807 1.8941 1.9941 2.0749 2.1934 2.3364 2.48
1900.403 2.62 2.74 2.79 2.81 2.8 2.71 2.57 2.42 2.2552 2.1089
1919.696 1.9865 1.9012 1.8327 1.7354 1.6647 1.6121 1.5757 1.5546 1.5202 1.509
1938.990 1.5039 1.5258 1.5342 1.475 1.41776 1.39733 1.40221 1.39937 1.40991 1.42202
1958.283 1.41691 1.4022 1.39153 1.39617 1.42607 1.43103 1.40235 1.39374 1.38526 1.37872
1977.577 1.36843 1.35938 1.36051 1.3363 1.329 1.35774 1.36172 1.39789 1.40202 1.3445
1996.870 1.3312 1.325 1.3283 1.3297 1.3176 1.327 1.3322 1.3395 1.3428 1.3337
2016.164 1.36324 1.3691 1.35053 1.37106 1.37229 1.35678 1.35476 1.3385 1.3287 1.3443
2035.457 1.36001 1.37071 1.36694 1.36937 1.37133 1.36653 1.36343 1.35481 1.36194 1.35
2054.750 1.3221 1.3298 1.336 1.3278 1.3421 1.36116 1.3487 1.3209 1.3119 1.3152
2074.044 1.3087 1.3005 1.3074 1.3091 1.3153 1.3183 1.3252 1.3364 1.341 1.3378
2093.337 1.3236 1.313 1.3012 1.323 1.3363 1.3245 1.3296 1.35042 1.35924 1.3425
2112.631 1.3356 1.3238 1.3003 1.286 1.2866 1.2964 1.2957 1.2984 1.303 1.2979
2131.924 1.307 1.3173 1.3008 1.2907 1.2879 1.2741 1.2724 1.2865 1.292 1.2935
2151.218 1.3106 1.3315 1.3362 1.3279 1.3057 1.2913 1.2997 1.308 1.3205 1.3277
2170.511 1.3341 1.334 1.3349 1.3429 1.338 1.3268 1.3126 1.3021 1.2976 1.3006
2189.804 1.2991 1.2901 1.2938 1.2881 1.28 1.2814 1.2866 1.3107 1.3176 1.3208
2209.098 1.3173 1.3134 1.3097 1.3008 1.3018 1.3123 1.3229 1.3101 1.2987 1.3158
2228.391 1.3402 1.3415 1.3425 1.3433 1.3293 1.3204 1.3374 1.3346 1.3104 1.3079
2247.685 1.3069 1.3349 1.37252 1.35877 1.3481 1.35922 1.3484 1.3455 1.3343 1.3284
2266.978 1.3442 1.3648 1.38324 1.38102 1.37867 1.38486 1.39525 1.41368 1.43264 1.45087
2286.272 1.4562 1.4703 1.5077 1.5339 1.5519 1.5799 1.6051 1.6159 1.6359 1.6386
2305.565 1.6352 1.6434 1.6305 1.6236 1.6147 1.6132 1.6091 1.5765 1.5641 1.5387
2324.858 1.525 1.5087 1.45791 1.42945 1.41286 1.39079 1.35711 1.35 1.36333 1.37274
2344.152 1.39637 1.43 1.44098 1.44127 1.45327 1.44965 1.42863 1.40074 1.38583 1.37902
2363.445 1.39312 1.43164 1.45545 1.4637 1.4761 1.4976 1.4874 1.4636 1.43065 1.419
2382.739 1.38884 1.3441 1.3337 1.3184 1.3242 1.3228 1.3121 1.3118 1.3205 1.3278
2402.032 1.3195 1.3128 1.3199 1.313 1.2912 1.2838 1.2813 1.3027 1.3175 1.2955
2421.326 1.2838 1.2781 1.2831 1.2842 1.2619 1.249 1.2615 1.28 1.2921 1.2847
2440.619 1.268 1.2629 1.2648 1.277 1.2895 1.2875 1.2947 1.2996 1.3017 1.3226
2459.912 1.3167 1.2909 1.2988 1.3043 1.2752 1.2792 1.2873 1.3039 1.2894 1.247
2479.206 1.2642 1.2951 1.3093 1.3004 1.3146 1.3052 1.2771 1.2755 1.2899 1.2987
2498.499 1.2711 1.2696 1.2869 1.2871 1.2925 1.3012 1.3123 1.318 1.326 1.343
2517.793 1.3491 1.3462 1.3454 1.37373 1.37865 1.37707 1.40137 1.38191 1.36108 1.36739
2537.086 1.36221 1.3495 1.35141 1.3367 1.3208 1.3397 1.36673 1.35354 1.341 1.36214
2556.380 1.36561 1.35586 1.36514 1.37445 1.35913 1.3421 1.3191 1.3152 1.3207 1.3075
2575.673 1.3336 1.36198 1.36472 1.36952 1.3812 1.38385 1.37182 1.37026 1.37127 1.37175
2594.966 1.37446 1.35736 1.3487 1.37939 1.36207 1.345 1.3433 1.3463 1.3228 1.2884
2614.260 1.2985 1.3243 1.3039 1.2785 1.2821 1.25 1.256 1.2702 1.251 1.237
2633.553 1.236 1.25 1.2642 1.2711 1.2736 1.258 1.2741 1.279 1.261 1.2627
2652.847 1.249 1.256 1.2681 1.2796 1.2885 1.2773 1.2683 1.2885 1.3114 1.2897
2672.140 1.2916 1.3128 1.3189 1.3043 1.31 1.3421 1.36205 1.37412 1.3554 1.3443
2691.434 1.3403 1.3299 1.3393 1.3414 1.3316 1.3107 1.2847 1.3141 1.3171 1.2697
2710.727 1.2664 1.283 1.2846 1.257 1.254 1.258 1.257 1.243 1.261 1.2802
2730.020 1.239 1.243 1.234 1.248 1.2985 1.2999 1.2614 1.24 1.252 1.27
2749.314 1.2945 1.2917 1.2887 1.287 1.263 1.247 1.248 1.2743 1.2751 1.246
2768.607 1.247 1.259 1.2666 1.256 1.252 1.218 1.194 1.24 1.2744 1.252
2787.901 1.251 1.254 1.237 1.2615 1.243 1.206 1.218 1.214 1.18 1.213
2807.194 1.2625 1.2625 1.253 1.241 1.217 1.228 1.2661 1.2713 1.2832 1.2873
2826.488 1.2664 1.2681 1.25 1.225 1.233 1.211 1.194 1.213 1.213 1.21
2845.781 1.229 1.218 1.171 1.183 1.211 1.211 1.227 1.2 1.154 1.16
2865.074 1.164 1.197 1.195 1.208 1.233 1.192 1.176 1.184 1.225 1.189
2884.368 1.147 1.156 1.152 1.159 1.132 1.114 1.132 1.144 1.148 1.146
2903.661 1.142 1.145 1.181 1.149 1.109 1.126 1.173 1.187 1.152 1.143
2922.955 1.169 1.183 1.152 1.144 1.171 1.216 1.164 1.121 1.179 1.184
2942.248 1.136 1.161 1.175 1.12 1.123 1.165 1.164 1.166 1.179 1.175
2961.542 1.2 1.234 1.242 1.24 1.2949 1.3156 1.255 1.246 1.244 1.229
2980.835 1.232 1.2647 1.226 1.188 1.247 1.238 1.194 1.182 1.217 1.237
3000.128 1.23 1.2619 1.297 1.3373 1.3319 1.329 1.42141 1.44044 1.4684 1.5701
3019.422 1.631 1.7057 1.8328 1.9521 2.0392 2.2098 2.3422 2.4 2.47 2.58
3038.715 2.63 2.56 2.47 2.3272 2.2075 2.1224 2.068 2.0425 1.9982 1.9933
3058.009 2.0077 1.9308 1.8914 1.941 1.9301 1.9194 2.023 2.1502 2.2234 2.38
3077.302 2.62 2.85 3.04 3.22 3.5 3.78 3.92 4.03 3.9 3.58
3096.596 3.3 2.98 2.66 2.43 2.1586 1.8994 1.7094 1.5389 1.39614 1.2706
3115.889 1.228 1.175 1.134 1.181 1.205 1.14 1.056 1.074 1.074 1.01
3135.182 0.965 0.913 0.893 0.891 0.883 0.904 0.919 0.902 0.901 0.92
3154.476 0.848 0.788 0.828 0.82 0.798 0.8 0.787 0.821 0.797 0.729
3173.769 0.743 0.785 0.818 0.825 0.812 0.768 0.753 0.754 0.749 0.794
3193.063 0.778 0.71 0.683 0.711 0.778 0.767 0.786 0.779 0.685 0.693
3212.356 0.673 0.602 0.669 0.769 0.727 0.682 0.717 0.696 0.71 0.736
3231.650 0.696 0.698 0.699 0.677 0.606 0.579 0.599 0.601 0.639 0.623
3250.943 0.622 0.64 0.64 0.66 0.681 0.731 0.743 0.697 0.654 0.622
3270.236 0.629 0.654 0.712 0.684 0.603 0.643 0.639 0.627 0.657 0.632
3289.530 0.603 0.575 0.575 0.601 0.539 0.554 0.617 0.628 0.627 0.586
3308.823 0.663 0.673 0.574 0.596 0.682 0.706 0.625 0.544 0.569 0.577
3328.117 0.598 0.589 0.476 0.492 0.493 0.454 0.53 0.595 0.566 0.527
3347.410 0.535 0.594 0.601 0.555 0.584 0.577 0.532 0.512 0.53 0.523
3366.704 0.548 0.608 0.566 0.543 0.595 0.605 0.568 0.483 0.44 0.5
3385.997 0.506 0.524 0.535 0.488 0.528 0.5 0.446 0.495 0.53 0.515
3405.290 0.491 0.468 0.501 0.517 0.533 0.609 0.573 0.504 0.539 0.509
3424.584 0.441 0.523 0.492 0.454 0.569 0.568 0.545 0.579 0.518 0.433
3443.877 0.431 0.491 0.497 0.471 0.442 0.462 0.545 0.594 0.613 0.646
3463.171 0.621 0.561 0.478 0.44 0.478 0.504 0.552 0.511 0.48 0.553
3482.464 0.57 0.541 0.543 0.499 0.467 0.544 0.536 0.53 0.598 0.603
3501.758 0.684 0.667 0.517 0.482 0.571 0.527 0.471 0.471 0.44 0.475
3521.051 0.514 0.618 0.715 0.636 0.537 0.5 0.489 0.527 0.544 0.508
3540.344 0.487 0.586 0.703 0.795 0.727 0.51 0.486 0.557 0.554 0.515
3559.638 0.579 0.639 0.668 0.773 0.817 0.681 0.526 0.493 0.458 0.459
3578.931 0.517 0.547 0.571 0.676 0.831 0.92 0.794 0.671 0.629 0.584
3598.225 0.635 0.62 0.567 0.64 0.758 0.824 0.899 0.918 0.965 1.052
3617.518 1.138 1.2826 1.42783 1.631 1.956 2.4 3.06 3.73 4.17 4.38
3636.812 4.14 3.49 2.74 2.1558 1.7916 1.45297 1.178 1.022 0.955 0.918
3656.105 0.802 0.741 0.731 0.666 0.632 0.653 0.596 0.409 0.376 0.423
3675.398 0.36 0.42 0.46 0.45 0.492 0.443 0.3 0.21 0.33 0.466
3694.692 0.466 0.496 0.535 0.52 0.524 0.492 0.478 0.458 0.441 0.506
3713.985 0.619 0.678 0.65 0.646 0.672 0.746 0.798 0.701 0.6 0.502
3733.279 0.488 0.607 0.522 0.399 0.402 0.33 0.22 0.17 0.05 0
3752.572 0.13 0.25 0.29 0.34 0.391 0.416 0.431 0.427 0.42 0.415
3771.866 0.458 0.514 0.467 0.398 0.361 0.405 0.445 0.44 0.461 0.477
3791.159 0.493 0.448 0.383 0.394 0.374 0.21 0.19 0.3 0.27 0.26
3810.452 0.35 0.36 0.29 0.23 0.29 0.29 0.24 0.35 0.391 0.384
3829.746 0.389 0.35 0.32 0.23 0.14 0.23 0.35 0.32 0.371 0.413
3849.039 0.34 0.2 0.08 0.1 0.26 0.367 0.366 0.397 0.362 0.37
3868.333 0.44 0.419 0.416 0.41 0.405 0.444 0.508 0.503 0.418 0.457
3887.626 0.482 0.435 0.432 0.439 0.496 0.51 0.563 0.679 0.721 0.679
3906.920 0.557 0.44 0.388 0.417 0.499 0.584 0.566 0.502 0.476 0.469
3926.213 0.472 0.441 0.502 0.611 0.569 0.426 0.396 0.463 0.48 0.503
3945.506 0.549 0.608 0.594 0.474 0.371 0.376 0.441 0.453 0.491 0.541
3964.800 0.506 0.446 0.432 0.444 0.446 0.482 0.507 0.491 0.483 0.435
3984.093 0.39 0.423 0.477 0.441 0.383 0.36 0.372 0.401 0.395
##END=
