##TITLE=N-Cyanomethylpiperidine
##JCAMP-DX=4.24
##DATA TYPE=INFRARED SPECTRUM
##ORIGIN=EPA-IR VAPOR PHASE LIBRARY
##OWNER=SRD/NIST
Collection (C) 2018 copyright by the U.S. Secretary of Commerce
on behalf of the United States of America. All rights reserved.
##CAS REGISTRY NO=3010-03-5
##MOLFORM=C 7 H 12 N 2
##$NIST SOURCE=MSDC-IR
##STATE=gas
##XUNITS=1/CM
##YUNITS=ABSORBANCE
##XFACTOR=1.
##YFACTOR=0.001
##DELTAX=1.92898
##FIRSTX=549.8
##LASTX=4000.7
##FIRSTY=0.725
##MAXX=4000.7
##MINX=549.759
##MAXY=0.21863
##MINY=0
##NPOINTS=1790
##XYDATA=(X++(Y..Y))
549.759 0.725 0.741 0.973 1.006 0.339 0.403 0.865 0.744 0 0.232
569.049 0.967 0.533 0.13 0.773 1.48 1.3558 1.5713 2.46 2.41 1.2851
588.339 0.347 0.769 1.3057 0.748 1.076 1.48 1.6481 1.5529 0.87 1.4758
607.628 1.7816 1.4897 1.6308 1.3241 1.17374 0.992 1.18757 1.7629 1.7543 2.0876
626.918 2.1033 1.8514 1.8099 1.6007 1.8308 2.25 2.53 2.91 3.38 2.27
646.208 1.5536 2.43 2.65 3.05 3.33 3.04 2.95 2.98 2.93 2.0697
665.498 2.0763 2.85 2.65 2.61 2.71 2.54 2.49 2.67 2.35 1.7872
684.787 1.7917 2.0511 2.51 2.66 2.25 2.0541 1.5877 1.19835 1.4601 1.8007
704.077 1.9405 1.6312 1.5841 1.6885 1.9668 2.39 2.42 2.0848 1.7743 1.5918
723.367 1.25739 1.7222 1.9893 1.8056 1.8735 2.52 3.11 2.7 2.51 3.05
742.657 3.28 3.32 3.93 4.53 4.57 4.58 5.01 5.46 5.54 5.96
761.947 6.43 6.45 6.51 6.39 6.65 6.6 6.22 6.33 6.2 6.25
781.236 6.3 5.57 5.03 5.05 4.62 4.15 4.13 4.32 3.79 3.27
800.526 2.95 3.25 3.53 2.78 2.57 3.08 3.53 3.36 3.04 3.15
819.816 3.85 4.5 4.5 4.08 3.77 4.16 4.78 4.8 4.82 5.16
839.106 5.51 5.97 7.08 7.95 8.2 8.68 8.88 9.52 10.73 11.39
858.395 12.24 13.27 14.34 14.94 15.19 15.76 16.01 16.48 16.99 17.36
877.685 17.38 16.25 14.98 13.83 12.48 10.56 8.96 7.58 6.57 5.94
896.975 4.6 4.18 3.91 3.18 3.17 2.89 2.57 2.65 2.67 2.5
916.265 2.63 2.86 2.41 2.36 2.9 2.87 2.74 2.94 3.36 3.47
935.555 3.05 3.35 3.75 3.85 4.05 4.02 4.38 5.13 5.49 5.59
954.844 6.3 6.04 5.7 6.48 6.97 7.5 7.8 7.36 7.32 7.75
974.134 7.83 7.88 7.96 8.24 8.76 10.13 11.77 13.74 15.52 17.22
993.424 18.6 18.94 19.57 19.75 19.14 18.64 17.87 16.19 13.8 11.01
1012.714 8.73 7.34 6.19 5.14 4.92 5 5.2 5.48 5.86 6.46
1032.003 7.17 8.12 8.16 7.67 7.79 8.26 8.81 8.09 7 7.51
1051.293 7.25 6.35 6.35 6.91 7.16 7.05 6.6 6.09 5.48 5.16
1070.583 5.27 6.06 6.14 6.04 6.61 6.81 7.89 7.73 7.74 8.77
1089.873 8.63 9.78 12.12 14.07 17.71 22.74 28.65 35.17 40.07 43.74
1109.163 47.7 50.4 52.05 52.13 50.9 47.95 44.54 40.39 33.03 27.41
1128.452 23.08 18.86 15.7 13.09 11.42 9.99 9.7 10.85 12.04 12.49
1147.742 12.55 14.65 17.65 19.95 22.48 25.17 27.45 28.55 28.82 27.35
1167.032 24.84 22.95 20.7 18.16 16.34 14.61 13.32 11.79 10.43 9.75
1186.322 8.48 7.77 7.76 8.67 8.38 7.15 6.85 6.69 7.42 6.78
1205.611 5.7 5.84 5.54 4.75 4.6 3.7 2.1507 0.948 0.193 0.243
1224.901 1.1613 2.44 1.9795 1.3985 2.71 3.56 2.76 3.14 4.28 4.59
1244.191 5.48 6.38 7.22 7.57 7.43 7.64 7.96 8.84 9.63 10
1263.481 10.05 10.53 11.61 11.3 10.7 10.75 10.61 10.72 10.83 10.6
1282.771 10.69 11.22 11.83 12.46 12.85 13.51 14.9 16.44 18.15 20.27
1302.060 22.47 24.6 26.53 28.34 30.06 31.9 33.35 34.19 34.38 33.32
1321.350 31.66 30.53 29.29 27.34 26.13 25.57 24.53 23.32 21.85 20.41
1340.640 19.24 18.3 17.5 16.56 15.76 14.83 13.62 12.37 11.26 10.38
1359.930 9.63 9.11 8.81 8.51 8.36 8.22 8.19 8.24 8.23 8.45
1379.219 8.56 8.42 8.19 7.94 7.8 7.66 7.37 7.24 7.21 7.1
1398.509 6.82 6.41 6.2 6.23 6.34 6.64 7.16 7.68 8.39 9.49
1417.799 10.67 12.15 13.55 14.6 15.91 17.43 18.29 18.63 19.33 19.76
1437.089 20.03 20.37 20.66 21.23 22.42 23.83 25.45 26.93 27.13 26.58
1456.378 25.98 26.09 25.71 24.57 23.89 22.81 20.99 18.67 16.38 14.06
1475.668 12.12 10.7 9.25 7.81 6.64 5.91 5.19 4.7 4.23 3.82
1494.958 3.51 3.18 3.14 3.18 3.09 2.83 2.58 2.58 2.72 2.64
1514.248 2.57 2.49 2.35 2.38 2.34 2.24 2.1063 1.9609 2.1333 1.9884
1533.538 1.963 1.9625 1.7533 1.8963 2.23 2.19 1.8791 1.8803 1.8087 1.7568
1552.827 1.4821 1.3978 1.6485 1.6643 1.7557 1.6974 1.5684 1.619 1.5984 1.6169
1572.117 1.607 1.4313 1.4783 1.4162 1.3538 1.9171 2.1444 1.9585 1.823 1.6497
1591.407 1.4637 1.4755 1.6579 1.7049 1.5879 1.6623 1.5713 1.4662 1.3803 1.3225
1610.697 1.5638 1.5796 1.5064 1.7508 2.0197 1.9512 1.9226 1.8077 1.7202 1.9371
1629.986 2.0394 1.902 1.8258 1.9092 1.9245 1.8703 1.8538 1.9022 1.8249 1.5926
1649.276 1.6035 1.6552 1.4839 1.5251 1.7689 1.8332 1.7397 1.6965 1.8491 1.7287
1668.566 1.6228 1.7281 1.656 1.6201 1.6301 1.5176 1.4645 1.5454 1.5371 1.5411
1687.856 1.6077 1.7231 1.7052 1.5457 1.5884 1.5909 1.4755 1.6257 1.7991 1.7506
1707.146 1.7137 1.7512 1.5835 1.4991 1.4989 1.4144 1.3936 1.5271 1.5749 1.5565
1726.435 1.6468 1.6642 1.5951 1.4162 1.4588 1.7159 1.7022 1.5153 1.627 1.7381
1745.725 1.6566 1.6923 1.5885 1.4565 1.5558 1.7153 1.6589 1.6869 1.8413 1.7409
1765.015 1.6609 1.6547 1.7373 1.855 1.831 1.7998 1.6311 1.5596 1.5454 1.521
1784.305 1.5683 1.5679 1.4823 1.4924 1.6565 1.6503 1.5507 1.5167 1.6364 1.6847
1803.594 1.5431 1.3912 1.6547 1.8965 1.8874 1.866 1.7309 1.5238 1.4845 1.6797
1822.884 1.6067 1.4846 1.6525 1.8425 1.8262 1.6744 1.785 1.8842 1.9247 1.8281
1842.174 1.6095 1.7168 1.8316 1.8926 1.9581 2.123 2.27 2.25 2.24 2.0448
1861.464 1.9935 2.3 2.34 2.4 2.38 2.24 2.19 2.0991 2.0511 1.8987
1880.754 1.8997 2.0852 2.0864 2.0251 2.1129 2.0946 2.1343 2.26 2.1334 2.0588
1900.043 2.072 1.9877 2.0125 2.0983 2.0539 1.9347 1.9572 2.0089 1.8151 1.8825
1919.333 2.174 2.0982 1.9537 2.0114 1.9899 2.0012 2.0543 1.9784 2.1243 2.0498
1938.623 1.8563 1.7986 1.6143 1.6256 1.769 2.0256 1.9372 1.6733 1.7803 1.8643
1957.913 1.8606 1.8354 1.7734 1.7339 1.8416 2.0161 1.8413 1.7637 1.8526 1.8851
1977.202 1.8899 2.0928 2.1583 2.0021 1.9933 1.8861 1.9865 2.0377 1.8727 1.7806
1996.492 1.8763 1.9659 1.8561 1.7506 1.748 1.8404 1.829 1.775 1.9358 1.9013
2015.782 1.7959 1.842 1.8129 1.6989 1.6906 1.8344 1.8581 1.8377 1.9337 1.9323
2035.072 1.8984 1.9159 1.8133 1.8091 2.076 2.078 2.0411 2.1311 2.1035 2.1492
2054.362 2.1784 2.1366 2.0928 2.21 2.24 2.1086 1.994 2.0919 2.1715 2.1614
2073.651 2.25 2.0994 1.9322 2.0279 2.1067 2.1412 2.0642 1.909 1.8655 1.9032
2092.941 1.9742 1.9757 2.0349 2.0137 1.8913 2.0527 2.1088 1.9063 1.8256 1.8582
2112.231 2.13 2.18 1.9845 1.9478 1.9865 1.9486 1.9186 2.0912 2.0508 1.7644
2131.521 1.6909 1.8471 1.9836 1.9511 1.7868 1.8126 2.0312 2.1128 2.0746 1.918
2150.810 1.9635 2.18 1.9961 1.9583 2.0629 2.0244 1.9971 1.9193 1.9909 2.0523
2170.100 2.1655 2.31 2.28 2.21 2.37 2.44 2.1719 2.1041 2.1341 2.1285
2189.390 2.3 2.31 2.36 2.64 2.71 2.64 2.61 2.61 2.47 2.45
2208.680 2.54 2.58 2.69 2.59 2.51 2.61 2.96 3 3.01 3.13
2227.970 3.35 3.27 2.91 2.71 2.45 2.35 2.3 2.29 2.36 2.46
2247.259 2.31 2.25 2.29 2.18 2.1111 2.27 2.29 2.28 2.37 2.42
2266.549 2.28 2.2 2.26 2.28 2.31 2.35 2.27 2.0686 1.993 2.24
2285.839 2.45 2.47 2.35 1.8444 1.743 2.1284 2.25 2.19 2.28 2.46
2305.129 2.37 2.22 2.3 2.46 2.26 2.0764 2.22 2.24 2.29 2.42
2324.418 2.37 2.22 2.0647 2.0092 2.037 1.9403 1.8656 1.9472 1.9868 1.9303
2343.708 1.9896 2.0395 1.9796 1.9038 1.8561 1.6824 1.7848 1.8702 1.9635 1.9569
2362.998 1.9093 2.22 2.27 2.27 2.0092 1.8113 1.9566 1.9632 2.22 2.42
2382.288 2.24 2.23 2.14 2.069 2.3 2.26 2.1091 2.0731 2.2 2.5
2401.578 2.58 2.49 2.52 2.56 2.7 2.88 3.08 3.07 2.74 2.48
2420.867 2.63 2.83 2.62 2.68 2.7 2.55 2.51 2.28 2.0992 2.21
2440.157 2.47 2.27 2.42 2.66 2.42 2.23 2.26 2.21 2.0242 2.1375
2459.447 2.0225 1.9677 2.1248 2.0615 2.001 2.3 2.45 2.32 2.0423 1.8717
2478.737 2.0638 2.1066 2.2 2.21 2.0084 2.0577 2.45 2.54 2.1598 2.22
2498.026 2.29 2.25 2.46 2.58 2.43 2.23 1.8701 2.21 2.66 2.29
2517.316 2.1083 2.24 2.32 2.29 2.51 2.55 2.33 2.21 2.31 2.4
2536.606 2.26 2.0131 1.8167 2.0723 2.29 2.0802 2.22 2.47 2.3 2.1697
2555.896 2.22 2.47 2.53 2.22 1.9925 2.1068 2.52 2.74 2.74 2.73
2575.186 2.62 2.73 3.01 3.11 2.81 2.61 2.92 3 3.01 3.08
2594.475 3.27 3.28 3.33 3.63 3.52 3.49 3.76 3.83 3.71 3.51
2613.765 3.35 3.73 3.99 3.78 3.81 4.19 4.38 4.31 4.37 4.54
2633.055 4.6 4.56 4.73 4.87 5.11 5.31 5.28 5.41 5.39 5.43
2652.345 5.88 6.07 6.03 6.16 6.4 6.65 6.73 6.59 6.69 7.19
2671.634 7.52 7.86 8.25 8.35 8.34 8.77 8.94 8.79 8.93 9.2
2690.924 9.36 9.5 9.66 9.57 9.57 9.89 10.13 10.5 10.88 11.1
2710.214 11.4 11.66 11.78 12.13 12.67 13.09 13.73 14.17 14.56 15.28
2729.504 15.92 16.13 16.29 16.7 17.15 17.42 17.67 18.14 18.41 18.69
2748.794 18.99 19.72 20.66 21.06 21.61 22.09 22.46 23.16 23.52 23.57
2768.083 23.51 23.69 23.79 23.57 24.06 24.78 25.34 26.22 27.39 28.95
2787.373 30.82 32.87 34.9 36.87 38.79 41 43.66 45.65 47.3 49.38
2806.663 51.34 52.45 52.75 53.23 53.38 52.81 52.07 50.69 48.83 46.83
2825.953 44.59 41.89 39.05 36.7 34.68 32.67 30.84 29.4 28.1 26.72
2845.242 26.28 26.63 27.02 27.72 29.27 31.71 34.36 36.88 39.18 41.11
2864.532 41.87 42.07 42.27 41.99 41.11 39.42 37.5 35.49 33.03 30.9
2883.822 29.38 28.47 27.42 26.59 26.73 27.12 27.58 28.84 29.93 30.7
2903.112 32.17 33.89 35.88 38.3 41.41 44.95 48.96 53.96 59.85 66.6
2922.401 74.07 82.93 93.56 105.26 118.09 133.09 150.62 168.87 185.93 200.44
2941.691 210.52 214.35 214.61 218.63 217.86 202.58 185.14 168.92 147.9 123.54
2960.981 99.71 79.01 62.82 49.78 39.26 31.33 24.32 19.01 15.42 12.6
2980.271 10.57 9.03 7.75 6.73 6.26 5.91 5.52 5.35 4.91 4.59
2999.561 4.42 4 4.29 4.52 4.29 4.31 4.02 3.59 3.8 3.9
3018.850 3.56 3.6 3.73 3.31 3.06 3.28 3.36 3.31 3.47 3.65
3038.140 3.43 3.16 3.01 2.92 2.93 2.4 1.9375 2.23 2.41 2.24
3057.430 2.0382 2.53 3.04 2.5 1.9653 2.0032 2.33 2.53 2.75 2.41
3076.720 2.0118 2.44 2.49 2.25 1.792 1.4874 1.9239 2.27 1.7917 1.6725
3096.009 2.1073 1.9761 2.0649 2.0788 2.26 2.1618 1.6868 1.9939 2.0809 2.36
3115.299 2.75 2.33 1.9955 2.26 1.985 1.6532 1.5752 1.6076 2.0576 2.086
3134.589 2.18 2.41 2.19 2.1046 2.27 2.1246 2.18 2.55 2.45 2.61
3153.879 2.44 2.0759 2.1084 1.7683 1.4991 1.6347 1.8821 1.764 1.7412 2.1262
3173.169 2.31 2.4 2.1755 1.9315 2.31 2.67 2.41 2.3 2.32 2.27
3192.458 2.23 2.0219 1.7091 1.8456 2.0703 2.23 2.63 2.67 2.1694 1.9264
3211.748 2.0081 2.0154 2.0911 1.9191 1.4423 1.24129 1.3616 1.5422 1.4476 1.19064
3231.038 0.989 1.051 1.2853 1.23306 1.4765 1.5422 1.2927 1.3759 1.632 2.1788
3250.328 2.27 1.7959 1.8566 1.8914 1.7673 1.8194 1.597 1.26491 1.9576 2.0444
3269.617 1.8319 1.5635 1.2984 1.5407 1.26733 1.3117 1.412 1.7044 1.9146 1.7152
3288.907 1.7273 1.8945 1.4219 1.5226 2.1654 1.8471 1.8324 1.8357 1.4986 1.4843
3308.197 1.7628 2.21 1.9404 1.643 1.555 1.593 1.7277 1.7821 1.4148 1.3784
3327.487 1.76 1.7748 2.0288 1.9324 2.1123 2.2 1.8411 1.799 1.9593 2.0057
3346.777 2.1776 2.3 2.0781 1.9573 1.7809 1.8349 1.8283 1.6754 1.9251 1.7369
3366.066 1.137 0.987 0.981 1.1115 1.5173 1.4497 1.012 1.17461 1.27653 0.57
3385.356 0.544 1.2855 1.4884 1.4039 1.3117 1.0833 1.22747 1.501 1.4921 1.3661
3404.646 1.079 1.015 1.4072 1.7302 1.9673 1.4793 1.25072 1.9038 1.4275 1.0924
3423.936 1.5604 1.6829 1.715 1.6865 1.5248 1.2647 1.1346 1.4194 1.5325 1.3241
3443.225 1.19058 1.5323 2.1131 2.1095 2.1636 2.43 1.9647 1.18285 1.21812 1.3812
3462.515 1.3461 1.354 1.17724 1.25811 1.21687 1.17779 0.921 0.872 1.4413 1.5093
3481.805 1.2992 1.3013 1.3957 1.034 1.2888 1.8361 1.5791 1.1295 1.1245 1.23139
3501.095 1.07 1.026 1.3798 1.8001 1.8289 1.6107 1.097 1.035 1.23188 1.5716
3520.385 1.6338 1.3486 1.571 1.4459 0.895 1.007 1.3497 1.3742 1.4356 1.32
3539.674 1.19443 1.7096 1.5712 1.3357 1.6303 1.4037 1.0949 1.5121 1.7488 1.1402
3558.964 1.025 1.4706 1.8436 1.3702 0.905 1.17977 1.1199 1.17601 1.6611 1.2322
3578.254 0.888 0.879 1.049 1.22932 0.842 0.853 0.996 0.981 1.1657 1.4094
3597.544 1.1362 1.19569 1.4033 1.8818 1.8489 1.1988 0.978 1.414 2.0009 1.8067
3616.833 1.5924 1.2248 0.968 0.964 1.25092 1.4189 1.1363 0.762 0.93 1.3927
3636.123 1.8087 1.7223 1.515 1.7285 1.7837 1.6181 1.1653 1.2508 1.018 0.728
3655.413 1.4525 1.7669 1.9567 1.4966 1.17585 1.23895 0.987 1.19498 1.1562 1.0893
3674.703 1.1266 1.1847 1.23164 1.0829 0.994 1.24847 1.5697 1.3951 0.897 1.015
3693.993 0.777 0.944 1.6157 1.4864 1.64 1.5903 1.26009 1.1153 0.977 1.1602
3713.282 1.009 0.716 1.23105 1.732 1.5764 1.24417 0.915 1.0969 1.2881 1.20338
3732.572 1.4003 1.7507 1.4826 1.28 1.2819 0.754 0.856 1.456 1.356 1.3617
3751.862 1.7785 1.9775 1.7497 1.18464 1.024 1.3018 1.1642 1.3055 1.8142 1.6584
3771.152 1.4144 1.018 1.013 1.4252 1.4608 1.3123 1.1635 1.1419 1.4549 1.6472
3790.441 1.5575 1.9322 2.1526 1.27567 0.656 1.049 1.5592 1.6356 1.6727 1.6305
3809.731 1.7069 1.8004 1.8265 1.3885 1.21661 1.4168 1.3341 1.24817 1.4033 1.4696
3829.021 1.21991 1.324 1.4587 1.4623 1.45 1.1551 0.906 1.1382 1.022 0.759
3848.311 0.548 0.758 0.985 0.887 1.2581 1.7145 1.9364 1.7893 1.4178 1.3952
3867.601 1.17361 0.925 1.3735 1.4158 1.3724 1.3505 0.959 1.1585 1.3932 1.6011
3886.890 1.866 1.5485 1.7161 1.7803 1.5882 1.1345 1.20988 1.4107 1.3369 1.8462
3906.180 2.2 2.0065 1.4041 1.5195 1.894 1.9827 1.7901 1.977 2.44 2.41
3925.470 2.38 2.29 2.2 2.32 2.4 2.19 2.049 1.8991 1.625 1.4931
3944.760 1.7876 2.1231 1.9189 1.4953 1.7115 2.29 1.9995 1.7758 1.5847 1.568
3964.049 2.0091 2.63 2.71 2.4 2.18 2.21 2.1337 1.6054 1.8228 2.0351
3983.339 1.8589 2.18 2.54 2.0488 1.8471 1.6678 1.3477 1.5935 1.6749 1.4103
##END=
