##TITLE=(n-Butylamino)acetonitrile
##JCAMP-DX=4.24
##DATA TYPE=INFRARED SPECTRUM
##ORIGIN=NIST Mass Spectrometry Data Center
##OWNER=NIST Standard Reference Data Program
Collection (C) 2018 copyright by the U.S. Secretary of Commerce
on behalf of the United States of America. All rights reserved.
##CAS REGISTRY NO=3010-04-6
##MOLFORM=C 6 H 12 N 2
##$NIST SOURCE=MSDC-IR
##SPECTROMETER/DATA SYSTEM=HP-GC/MS/IRD
##STATE=gas
##XUNITS=1/CM
##YUNITS=ABSORBANCE
##XFACTOR=1.0
##YFACTOR=0.000002500
##DELTAX=4.0
##FIRSTX=550.0
##LASTX=3846.0
##FIRSTY=0.000848
##MAXX=3846
##MINX=550
##MAXY=0.025
##MINY=0
##NPOINTS=825
##XYDATA=(X++(Y..Y))
550.0 339 196 12 64 47 61 74 117 122 178
590.0 238 221 217 247 251 240 240 253 270 317
630.0 368 419 461 518 602 697 764 819 905 1006
670.0 1080 1149 1249 1337 1446 1506 1597 1760 1848 1716
710.0 2619 3820 2721 1613 1408 1234 1159 1039 955 891
750.0 822 734 662 590 509 427 365 301 254 236
790.0 216 198 189 180 156 151 160 155 145 142
830.0 155 162 168 204 245 298 372 468 596 713
870.0 824 928 967 964 906 780 641 506 410 355
910.0 300 259 231 197 171 144 139 164 180 172
950.0 157 164 174 158 138 148 149 133 133 149
990.0 152 152 172 200 221 239 271 294 312 300
1030.0 280 285 261 229 218 210 228 245 242 236
1070.0 240 248 259 293 353 445 562 718 893 1134
1110.0 1441 1787 2216 2723 3204 3480 3505 3307 2839 2255
1150.0 1750 1347 1025 793 605 472 390 322 275 222
1190.0 198 206 208 207 208 227 250 247 229 221
1230.0 213 216 218 225 233 220 219 228 226 225
1270.0 231 234 230 239 262 289 324 370 424 490
1310.0 583 706 844 979 1077 1113 1107 1052 972 904
1350.0 846 801 770 751 753 772 791 794 769 714
1390.0 654 571 488 442 429 449 513 618 757 938
1430.0 1131 1317 1512 1699 1906 2160 2435 2675 2810 2832
1470.0 2703 2414 2038 1648 1280 960 722 545 418 330
1510.0 259 203 161 131 111 92 76 68 54 38
1550.0 26 23 24 12 7 8 9 6 0 7
1590.0 14 5 5 11 11 16 23 27 32 43
1630.0 62 84 112 138 160 174 179 178 162 134
1670.0 98 68 58 51 40 43 52 57 58 72
1710.0 91 117 153 181 203 219 219 203 171 128
1750.0 88 65 60 52 46 44 45 47 40 42
1790.0 43 33 35 42 41 40 40 41 45 48
1830.0 47 43 43 45 45 40 40 42 36 35
1870.0 38 31 26 24 27 32 34 33 43 44
1910.0 36 33 37 42 42 41 39 44 46 44
1950.0 43 50 49 46 49 47 48 49 50 54
1990.0 53 47 62 71 74 80 83 86 86 88
2030.0 101 113 118 127 129 118 114 113 104 91
2070.0 86 82 78 77 70 65 72 75 68 64
2110.0 59 58 61 65 70 68 66 70 79 73
2150.0 62 69 71 67 77 76 67 66 68 67
2190.0 63 64 71 73 68 74 79 74 71 78
2230.0 82 78 73 75 84 81 82 86 86 78
2270.0 75 83 89 82 79 84 76 72 79 73
2310.0 58 55 60 62 55 46 56 63 60 57
2350.0 56 63 59 65 66 63 71 68 70 73
2390.0 76 71 72 81 80 76 70 72 80 72
2430.0 71 71 65 71 80 79 77 67 65 66
2470.0 64 58 50 48 50 58 59 66 73 65
2510.0 59 65 67 65 67 71 77 68 72 81
2550.0 79 85 89 94 97 104 120 113 112 131
2590.0 137 136 134 128 123 132 146 144 136 140
2630.0 142 156 161 161 169 162 169 191 203 210
2670.0 216 238 255 268 276 284 301 302 314 323
2710.0 321 333 355 372 384 402 426 453 477 496
2750.0 506 519 535 539 556 578 607 648 702 774
2790.0 867 978 1100 1255 1438 1620 1846 2087 2336 2609
2830.0 2886 3147 3390 3616 3832 4043 4232 4407 4591 4758
2870.0 4898 5047 5172 5177 5102 5004 4893 4785 4794 5005
2910.0 5391 5896 6525 7261 8053 8856 9531 9935 10000 9786
2950.0 9419 9022 8738 8614 8521 8148 7445 6530 5368 4139
2990.0 3164 2504 2068 1774 1585 1452 1323 1198 1109 994
3030.0 858 740 631 546 495 448 414 404 373 328
3070.0 304 299 299 295 276 268 264 268 275 271
3110.0 264 253 239 225 224 223 213 211 212 205
3150.0 194 194 199 196 183 174 155 141 164 178
3190.0 167 173 186 174 180 206 208 219 232 232
3230.0 244 252 259 275 303 329 347 359 374 395
3270.0 421 425 399 396 401 381 338 308 278 237
3310.0 224 250 305 350 385 427 456 472 479 475
3350.0 473 473 449 417 401 366 344 330 296 276
3390.0 257 221 212 198 158 140 135 137 121 113
3430.0 106 85 73 75 78 90 82 58 77 88
3470.0 78 77 74 77 67 71 93 93 75 54
3510.0 63 61 66 81 68 71 75 68 54 47
3550.0 50 59 75 79 76 74 85 87 77 79
3590.0 84 81 73 69 72 80 94 100 85 72
3630.0 83 81 68 77 88 101 102 76 73 97
3670.0 99 79 73 69 90 97 88 85 97 123
3710.0 113 89 81 89 96 97 105 110 104 105
3750.0 118 124 114 81 86 101 93 96 98 119
3790.0 128 100 86 100 108 111 103 106 104 90
3830.0 106 117 108 111 113
##END=
