##TITLE=2,2,4,4-Tetramethyl-1,3-cyclobutanediol
##JCAMP-DX=4.24
##DATA TYPE=INFRARED SPECTRUM
##ORIGIN=NIST Mass Spectrometry Data Center
##OWNER=NIST Standard Reference Data Program
Collection (C) 2018 copyright by the U.S. Secretary of Commerce
on behalf of the United States of America. All rights reserved.
##CAS REGISTRY NO=3010-96-6
##MOLFORM=C 8 H 16 O 2
##$NIST SOURCE=MSDC-IR
##SPECTROMETER/DATA SYSTEM=HP-GC/MS/IRD
##STATE=gas
##XUNITS=1/CM
##YUNITS=ABSORBANCE
##XFACTOR=1.0
##YFACTOR=0.000000800
##DELTAX=4.0
##FIRSTX=550.0
##LASTX=3846.0
##FIRSTY=0.000102
##MAXX=3846
##MINX=550
##MAXY=0.008
##MINY=0
##NPOINTS=825
##XYDATA=(X++(Y..Y))
550.0 127 194 260 290 254 299 361 304 330 379
590.0 389 407 362 320 323 324 388 433 466 460
630.0 383 364 322 199 91 91 135 147 116 59
670.0 28 45 67 90 69 31 14 57 81 83
710.0 64 0 6 20 36 63 98 147 162 210
750.0 278 317 325 344 377 353 319 315 303 314
790.0 324 309 339 280 212 234 214 225 245 262
830.0 299 292 285 289 317 344 372 378 324 296
870.0 295 274 250 231 210 214 246 250 198 192
910.0 227 239 229 241 242 288 385 417 476 580
950.0 666 754 845 926 1025 1147 1290 1488 1760 2040
990.0 2278 2424 2424 2301 2144 2013 1959 2006 2145 2476
1030.0 2914 3472 4252 5216 6280 7297 8064 8437 8325 7703
1070.0 6709 5608 4658 3993 3561 3250 3029 2942 2893 2848
1110.0 2877 2938 2978 2909 2723 2421 2131 1892 1666 1513
1150.0 1459 1464 1515 1593 1700 1775 1834 1897 1999 2096
1190.0 2126 2145 2108 1978 1781 1600 1436 1271 1165 1125
1230.0 1122 1153 1194 1241 1277 1313 1349 1348 1350 1377
1270.0 1410 1419 1414 1388 1365 1313 1223 1131 1035 938
1310.0 862 800 728 691 695 672 649 663 676 709
1350.0 798 943 1156 1394 1660 2040 2437 2565 2559 2465
1390.0 2139 1785 1416 1090 919 801 712 670 636 603
1430.0 638 728 869 1084 1319 1588 1855 2076 2213 2274
1470.0 2204 1960 1625 1288 932 649 480 365 287 257
1510.0 216 184 167 156 143 122 111 117 124 123
1550.0 121 120 141 125 99 100 104 90 84 85
1590.0 88 97 77 74 94 95 86 82 89 99
1630.0 96 104 95 80 87 101 93 82 81 78
1670.0 84 73 75 77 75 69 72 67 63 70
1710.0 74 67 66 60 51 63 61 49 50 58
1750.0 62 43 43 52 47 62 54 28 43 38
1790.0 19 12 14 21 14 9 10 11 13 15
1830.0 15 15 14 22 31 19 7 6 20 20
1870.0 3 2 11 6 7 20 10 7 11 15
1910.0 10 0 13 9 5 15 7 18 10 11
1950.0 24 27 53 47 31 42 27 12 28 27
1990.0 16 21 28 36 40 37 29 22 23 26
2030.0 23 16 29 27 15 14 15 13 18 31
2070.0 26 15 8 8 2 13 35 33 26 21
2110.0 17 34 49 44 40 24 38 54 63 67
2150.0 62 60 53 56 56 55 69 77 49 32
2190.0 43 38 28 43 51 27 33 47 35 28
2230.0 21 15 20 26 24 24 29 40 37 29
2270.0 29 37 45 37 26 31 29 15 17 28
2310.0 35 20 3 23 39 34 32 58 57 48
2350.0 52 61 69 69 60 43 37 38 33 42
2390.0 52 46 32 36 45 50 64 58 50 65
2430.0 67 51 62 58 58 70 58 42 25 26
2470.0 24 2 7 29 34 34 34 36 21 17
2510.0 34 46 40 35 52 54 45 56 44 30
2550.0 36 45 44 46 68 88 102 77 58 77
2590.0 83 73 74 83 81 58 65 70 62 73
2630.0 83 83 95 102 87 84 88 86 85 90
2670.0 120 143 138 150 144 128 152 163 176 205
2710.0 217 226 252 293 324 353 359 324 299 304
2750.0 306 298 291 282 310 330 308 314 336 322
2790.0 323 357 355 356 414 468 480 520 565 593
2830.0 649 708 796 916 1036 1198 1517 2024 2634 3389
2870.0 4224 4961 5516 5911 6156 6228 6142 5950 5697 5489
2910.0 5400 5415 5536 5809 6189 6520 6766 7065 7576 8250
2950.0 8944 9712 10000 9567 8781 7692 6536 5487 4538 3745
2990.0 3078 2496 2025 1601 1255 991 776 644 577 509
3030.0 440 377 329 299 287 276 264 250 249 250
3070.0 239 218 212 235 250 253 258 253 229 206
3110.0 207 225 238 240 248 259 283 292 280 262
3150.0 258 305 299 242 221 210 186 159 151 181
3190.0 204 182 139 122 130 120 87 81 100 89
3230.0 73 88 96 99 95 58 56 65 69 67
3270.0 59 40 39 56 61 73 63 70 56 40
3310.0 67 58 64 97 84 50 3 7 30 21
3350.0 49 94 91 58 73 99 106 111 120 110
3390.0 93 79 57 83 114 143 145 126 123 103
3430.0 124 149 125 126 163 165 133 143 136 118
3470.0 114 102 128 141 152 164 168 181 157 122
3510.0 137 151 124 139 149 130 139 103 79 104
3550.0 128 121 106 99 83 99 143 136 114 125
3590.0 112 99 131 194 201 192 225 283 354 444
3630.0 610 811 1073 1467 1785 1981 2090 2039 1786 1439
3670.0 1083 802 560 399 332 295 239 198 194 173
3710.0 151 131 125 106 86 82 103 123 128 126
3750.0 106 98 137 109 83 123 118 125 152 169
3790.0 189 175 105 63 126 157 144 161 147 153
3830.0 136 156 205 183 188
##END=
