##TITLE=Diethylaminoacetonitrile
##JCAMP-DX=4.24
##DATA TYPE=INFRARED SPECTRUM
##ORIGIN=EPA-IR VAPOR PHASE LIBRARY
##OWNER=SRD/NIST
Collection (C) 2018 copyright by the U.S. Secretary of Commerce
on behalf of the United States of America. All rights reserved.
##CAS REGISTRY NO=3010-02-4
##MOLFORM=C 6 H 12 N 2
##$NIST SOURCE=MSDC-IR
##STATE=gas
##XUNITS=1/CM
##YUNITS=ABSORBANCE
##XFACTOR=1.
##YFACTOR=0.001
##DELTAX=1.92934
##FIRSTX=549.9
##LASTX=3999.5
##FIRSTY=2.235
##MAXX=3999.53
##MINX=549.863
##MAXY=0.24335
##MINY=0
##NPOINTS=1789
##XYDATA=(X++(Y..Y))
549.863 2.235 2.171 2.308 2.533 2.407 2.167 2.193 2.278 2.482 2.596
569.156 2.515 2.624 2.711 2.689 2.713 2.7554 2.89878 2.9647 2.97 3.2885
588.450 3.3005 3.1799 3.4612 3.5448 3.5206 3.621 3.7056 3.7624 3.7849 3.8119
607.743 3.7897 3.83 3.87 3.85 3.8074 3.82 3.89 3.97 3.98 3.88
627.037 3.88 3.84 3.6583 3.5241 3.473 3.3767 3.194 3.0385 2.9351 2.90779
646.330 2.82225 2.7416 2.7424 2.623 2.527 2.556 2.579 2.585 2.606 2.647
665.624 2.629 2.634 2.7608 2.7845 2.86063 3.0447 3.0801 3.0391 3.0296 3.0985
684.917 3.2653 3.3183 3.2789 3.2446 3.2783 3.4095 3.5057 3.7165 3.6717 3.4852
704.210 3.4597 3.3836 3.3978 3.7322 5.03 5.79 5.07 4.31 3.92 3.86
723.504 3.96 4.12 4.31 4.63 5 5.5 6.07 6.67 7.44 8.29
742.797 9.21 10.18 11.26 12.33 13.39 14.49 15.53 16.27 16.89 17.48
762.091 17.91 18.25 18.28 18.06 17.66 16.99 16.28 15.62 14.9 14.25
781.384 13.58 13.01 12.62 12.34 12.23 12.34 12.53 12.81 13.15 13.51
800.678 13.93 14.33 14.76 15.11 15.3 15.35 15.36 15.3 15.02 14.7
819.971 14.35 13.87 13.35 12.92 12.63 12.34 12.1 12.09 12.17 12.48
839.264 13.01 13.64 14.47 15.55 16.83 18.3 19.83 21.44 23.19 24.8
858.558 26.29 27.69 28.9 29.92 30.53 30.66 30.34 29.55 28.42 27.09
877.851 25.73 24.31 22.79 21.31 19.99 18.83 17.88 17.16 16.56 16.09
897.145 15.65 15.18 14.65 13.92 13.1 12.12 11.1 10.18 9.46 8.91
916.438 8.36 7.99 7.8 7.64 7.48 7.38 7.36 7.35 7.27 7.09
935.732 6.99 6.98 6.9 6.88 6.86 6.86 7.01 7.25 7.59 8.08
955.025 8.66 9.35 10.22 11.16 12.23 13.44 14.7 15.99 17.22 18.42
974.318 19.39 20.14 20.74 21.15 21.41 21.44 21.27 20.95 20.37 19.62
993.612 18.7 17.66 16.57 15.45 14.37 13.28 12.29 11.45 10.68 10.09
1012.905 9.67 9.38 9.19 9.12 9.24 9.5 9.87 10.46 11.18 12.09
1032.199 13.21 14.49 16.1 17.98 20.15 22.6 25.37 28.45 31.8 35.44
1051.492 39.17 42.91 46.54 49.95 53.18 56.19 58.96 61.45 63.6 65.32
1070.786 66.71 67.67 68.1 68.17 68.13 67.93 67.6 67.13 66.49 65.79
1090.079 65.03 64.19 63.16 61.9 60.41 58.68 56.73 54.65 52.55 50.55
1109.372 48.62 46.83 45.3 44.11 43.17 42.27 41.29 40.23 39.12 38
1128.666 36.83 35.69 34.5 33.44 32.68 32.13 31.89 32.02 32.54 33.43
1147.959 34.73 36.44 38.23 40.04 41.91 43.63 45.09 46.27 47.12 47.48
1167.253 47.37 46.94 46.12 44.91 43.48 41.97 40.53 39.15 37.95 37.3
1186.546 37.25 37.83 39.01 40.68 42.55 44.29 46 47.5 48.52 48.95
1205.840 48.69 47.68 46.05 44.02 41.49 38.59 35.46 32.29 29.19 26.17
1225.133 23.37 20.98 19.08 17.51 16.06 14.98 14.18 13.5 13.19 13.1
1244.426 13.12 13.29 13.59 14.06 14.57 15.01 15.52 16.04 16.43 16.76
1263.720 17.01 17.22 17.42 17.56 17.73 17.99 18.3 18.65 19.2 19.9
1283.013 20.7 21.67 22.83 24.14 25.56 27.09 28.8 30.69 32.76 35.04
1302.307 37.59 40.34 43.26 46.27 49.2 51.9 54.15 55.84 57.04 57.96
1321.600 58.43 57.82 56.23 54.67 53.45 52.1 50.35 48.44 46.86 45.79
1340.894 45.26 45.25 45.62 45.98 46.21 46.33 46.36 46.41 46.38 46.15
1360.187 45.84 45.7 45.84 46.29 47.09 48.28 49.9 51.97 54.33 56.9
1379.480 59.69 62.29 64.33 65.57 65.9 65.32 63.96 61.84 58.73 54.93
1398.774 50.72 46.17 41.59 37.05 32.95 29.67 27.35 25.97 25.44 25.56
1418.067 26.15 27.14 28.35 29.86 31.81 33.83 35.84 38.34 41.24 42.45
1437.361 41.3 40.3 40.41 41.15 42.08 42.9 43.48 43.88 44.27 44.73
1456.654 45.21 45.45 45.44 45.21 44.7 43.9 42.74 41.24 39.58 37.85
1475.948 36.15 34.23 31.8 28.86 25.74 23.03 20.82 18.77 16.91 15.24
1495.241 13.73 12.33 11.11 10.13 9.37 8.74 8.19 7.75 7.36 7.08
1514.534 6.86 6.6 6.43 6.28 6.12 5.98 5.8 5.65 5.54 5.39
1533.828 5.32 5.21 5.1 5.03 4.88 4.78 4.66 4.52 4.49 4.41
1553.121 4.35 4.3 4.3 4.35 4.25 4.17 4.07 4.02 3.99 3.93
1572.415 3.91 3.88 3.89 3.8128 3.7867 3.7803 3.7139 3.6721 3.6303 3.6042
1591.708 3.6269 3.6265 3.6039 3.6041 3.5469 3.5499 3.5776 3.524 3.484 3.445
1611.002 3.4548 3.5231 3.5697 3.5448 3.4794 3.4642 3.4828 3.4986 3.5202 3.603
1630.295 3.6351 3.6475 3.7278 3.7825 3.7611 3.7964 3.8169 3.7834 3.84 3.88
1649.588 3.85 3.89 3.94 3.8062 3.6686 3.6356 3.5954 3.5467 3.5241 3.4649
1668.882 3.367 3.3015 3.1793 3.0461 3.0203 2.9816 2.90678 2.90973 2.9121 2.81515
1688.175 2.7354 2.689 2.656 2.639 2.607 2.585 2.568 2.516 2.461 2.406
1707.469 2.402 2.382 2.331 2.337 2.357 2.326 2.278 2.296 2.306 2.319
1726.762 2.268 2.17 2.19 2.222 2.216 2.2 2.219 2.234 2.253 2.281
1746.056 2.275 2.268 2.236 2.205 2.212 2.222 2.179 2.188 2.223 2.2
1765.349 2.219 2.211 2.198 2.225 2.248 2.234 2.201 2.213 2.229 2.283
1784.642 2.346 2.336 2.334 2.394 2.427 2.429 2.445 2.519 2.567 2.589
1803.936 2.603 2.586 2.664 2.7326 2.7599 2.774 2.7861 2.85228 2.91072 2.90247
1823.229 2.89461 2.89719 2.88757 2.90399 2.89216 2.87129 2.88832 2.86001 2.8576 2.9291
1842.523 2.9238 2.896 2.90226 2.89726 2.87306 2.87257 2.90561 2.87361 2.82226 2.81724
1861.816 2.81117 2.7431 2.7385 2.7428 2.689 2.643 2.593 2.597 2.611 2.578
1881.110 2.544 2.522 2.439 2.398 2.394 2.367 2.342 2.32 2.34 2.357
1900.403 2.339 2.358 2.365 2.381 2.402 2.365 2.345 2.378 2.387 2.371
1919.696 2.407 2.457 2.45 2.459 2.481 2.492 2.507 2.512 2.495 2.515
1938.990 2.587 2.591 2.577 2.616 2.639 2.631 2.663 2.681 2.658 2.685
1958.283 2.694 2.671 2.693 2.675 2.651 2.616 2.553 2.501 2.481 2.47
1977.577 2.442 2.411 2.356 2.305 2.256 2.196 2.173 2.181 2.128 2.084
1996.870 2.106 2.058 2.029 2.031 1.989 1.956 1.92 1.91 1.923 1.954
2016.164 1.961 1.959 1.948 1.949 1.946 1.937 1.957 1.987 1.981 1.963
2035.457 1.973 1.979 1.989 2.038 2.107 2.148 2.131 2.154 2.24 2.291
2054.750 2.313 2.325 2.344 2.417 2.507 2.555 2.576 2.598 2.591 2.611
2074.044 2.657 2.662 2.642 2.63 2.661 2.687 2.625 2.586 2.583 2.521
2093.337 2.485 2.484 2.466 2.433 2.426 2.458 2.418 2.357 2.32 2.316
2112.631 2.324 2.287 2.269 2.272 2.269 2.273 2.293 2.263 2.28 2.283
2131.924 2.237 2.263 2.29 2.288 2.247 2.244 2.276 2.278 2.251 2.232
2151.218 2.224 2.257 2.307 2.342 2.373 2.385 2.415 2.458 2.511 2.526
2170.511 2.535 2.577 2.607 2.641 2.671 2.688 2.7251 2.7388 2.7762 2.7806
2189.804 2.7312 2.7377 2.7383 2.696 2.679 2.689 2.689 2.652 2.611 2.584
2209.098 2.545 2.537 2.519 2.512 2.506 2.484 2.48 2.469 2.478 2.497
2228.391 2.487 2.484 2.528 2.488 2.42 2.443 2.46 2.444 2.47 2.464
2247.685 2.474 2.533 2.538 2.518 2.5 2.502 2.545 2.566 2.564 2.589
2266.978 2.62 2.675 2.692 2.661 2.653 2.676 2.677 2.653 2.65 2.63
2286.272 2.557 2.533 2.564 2.553 2.572 2.6 2.574 2.537 2.546 2.535
2305.565 2.499 2.496 2.502 2.474 2.444 2.456 2.479 2.506 2.482 2.453
2324.858 2.483 2.479 2.431 2.448 2.51 2.531 2.544 2.564 2.6 2.619
2344.152 2.639 2.682 2.685 2.7353 2.7942 2.8025 2.85472 2.9412 3.0076 3.0227
2363.445 3.0141 3.0196 3.0357 3.0914 3.0991 3.0668 3.027 3.0097 3.0133 3.0025
2382.739 2.9888 3.0078 3.0313 3.0019 2.9719 2.9769 2.9942 2.9882 3.0245 3.0631
2402.032 3.0256 3.0103 2.983 3.0167 3.062 3.066 3.0921 3.0688 3.0633 3.1418
2421.326 3.1793 3.1533 3.1343 3.1416 3.1588 3.1552 3.1634 3.1597 3.1288 3.1078
2440.619 3.1143 3.0784 3.0319 2.9631 2.9235 2.9297 2.91371 2.85154 2.767 2.704
2459.912 2.678 2.629 2.549 2.519 2.488 2.477 2.465 2.475 2.475 2.402
2479.206 2.377 2.42 2.421 2.373 2.325 2.323 2.343 2.331 2.315 2.336
2498.499 2.351 2.332 2.352 2.39 2.417 2.418 2.425 2.467 2.494 2.499
2517.793 2.533 2.582 2.565 2.63 2.716 2.689 2.72 2.8001 2.7893 2.7643
2537.086 2.8062 2.86741 2.9602 2.9685 2.9444 2.9849 3.031 3.0807 3.1425 3.1589
2556.380 3.1829 3.2789 3.3357 3.3475 3.3726 3.4708 3.5498 3.5456 3.5752 3.7112
2575.673 3.7641 3.7563 3.85 3.92 3.98 4.01 4.07 4.17 4.19 4.22
2594.966 4.28 4.33 4.34 4.35 4.39 4.44 4.46 4.43 4.44 4.49
2614.260 4.5 4.55 4.64 4.7 4.7 4.72 4.73 4.76 4.82 4.96
2633.553 5.01 5.01 5.19 5.33 5.41 5.51 5.55 5.58 5.64 5.74
2652.847 5.87 6 6.1 6.23 6.41 6.56 6.73 6.82 6.91 7.1
2672.140 7.28 7.45 7.65 7.91 8.08 8.24 8.44 8.7 8.99 9.2
2691.434 9.45 9.74 10.1 10.34 10.5 10.83 11.15 11.39 11.7 11.92
2710.727 12.12 12.46 12.81 13.14 13.34 13.59 13.96 14.29 14.58 14.95
2730.020 15.32 15.61 15.93 16.28 16.68 17.04 17.37 17.6 17.84 18.19
2749.314 18.48 18.8 19.18 19.54 19.94 20.43 20.98 21.59 22.18 22.78
2768.607 23.41 24.09 24.81 25.45 26.18 27.12 28.17 29.35 30.7 32.38
2787.901 34.26 36.2 38.4 40.88 43.48 46.35 49.49 52.79 56.2 59.69
2807.194 63.08 66.4 69.64 72.87 76.26 79.62 83 86.31 89.35 92.19
2826.488 94.93 97.42 99.56 101.41 102.87 103.83 103.99 103.2 101.45 98.83
2845.781 95.62 92.08 88.3 84.27 80.24 76.27 72.38 68.76 65.54 62.92
2865.074 61.08 59.88 59.45 59.72 60.45 61.61 63.05 64.65 66.16 67.48
2884.368 68.61 69.52 70.11 70.45 70.61 70.5 70.28 69.92 69.3 68.92
2903.661 68.88 69 69.36 70.01 71.08 72.5 74.35 76.59 79.25 82.61
2922.955 86.57 91.22 96.53 102.38 108.98 116.05 122.9 129.25 134.88 139.3
2942.248 142.62 145.31 147.01 147.5 146.75 144.99 143.16 141.88 141.67 143.09
2961.542 146.6 152.68 161.41 172.26 184.74 197.95 210.83 222.9 233.45 241.07
2980.835 243.35 238.93 229.46 216.28 199.87 181.14 161.05 140.62 120.75 102.04
3000.128 85.4 71.37 59.5 49.99 42.77 37.07 32.46 28.91 26.1 23.78
3019.422 22.01 20.51 19.17 18.05 17.13 16.27 15.55 14.83 14.13 13.55
3038.715 13.06 12.73 12.36 11.91 11.52 11.15 10.83 10.62 10.4 10.09
3058.009 9.79 9.62 9.44 9.26 9.02 8.73 8.54 8.39 8.25 8.02
3077.302 7.94 7.95 7.76 7.56 7.39 7.39 7.35 7.15 7.17 7.2
3096.596 7.16 7.16 6.97 6.8 6.68 6.65 6.62 6.46 6.4 6.19
3115.889 5.93 5.9 5.83 5.51 5.25 5.16 5.04 4.89 4.76 4.58
3135.182 4.36 4.3 4.18 4.1 4.05 3.9 3.6745 3.6189 3.7097 3.6941
3154.476 3.708 3.5677 3.46 3.5029 3.4192 3.2748 3.2572 3.3071 3.3923 3.3961
3173.769 3.2916 3.2487 3.3499 3.5133 3.4929 3.3456 3.3543 3.2198 3.0635 3.1893
3193.063 3.281 3.0953 2.87633 2.88983 2.81656 2.7687 2.678 2.589 2.546 2.338
3212.356 2.236 2.333 2.348 2.357 2.288 2.132 2.075 1.903 1.78 1.67
3231.650 1.54 1.6 1.59 1.53 1.44 1.32 1.45 1.56 1.51 1.28
3250.943 1.14 1.24 1.26 1.19 1.09 1.15 1.21 1.15 0.99 0.97
3270.236 1.05 1 0.93 1 0.96 1.02 1.21 1.18 1.2 1.18
3289.530 0.98 0.92 1.07 0.89 0.68 0.72 0.75 0.78 0.82 0.81
3308.823 0.81 0.82 0.81 0.74 0.65 0.77 0.8 0.72 0.67 0.71
3328.117 0.93 0.93 0.75 0.74 0.84 0.9 0.88 0.86 0.98 0.98
3347.410 0.9 0.83 0.68 0.76 0.94 0.83 0.57 0.68 0.86 0.72
3366.704 0.56 0.57 0.66 0.58 0.52 0.56 0.6 0.62 0.62 0.58
3385.997 0.38 0.24 0.37 0.46 0.41 0.39 0.38 0.4 0.4 0.35
3405.290 0.33 0.19 0.16 0.3 0.23 0.12 0.18 0.25 0.3 0.23
3424.584 0.13 0.21 0.4 0.42 0.3 0.25 0.31 0.38 0.42 0.41
3443.877 0.35 0.28 0.33 0.47 0.41 0.28 0.3 0.37 0.36 0.31
3463.171 0.26 0.11 0.1 0.2 0.27 0.34 0.17 0.1 0.27 0.32
3482.464 0.18 0.2 0.26 0.13 0.08 0.1 0.09 0.11 0.1 0.04
3501.758 0.07 0.15 0.04 0.08 0.21 0.18 0.17 0.15 0.06 0
3521.051 0.11 0.21 0.21 0.13 0.13 0.12 0.1 0.21 0.29 0.21
3540.344 0.15 0.14 0.1 0.12 0.16 0.19 0.25 0.31 0.18 0.06
3559.638 0.1 0.17 0.32 0.36 0.29 0.28 0.34 0.39 0.43 0.44
3578.931 0.39 0.39 0.41 0.36 0.35 0.4 0.49 0.45 0.37 0.54
3598.225 0.57 0.38 0.36 0.57 0.58 0.49 0.52 0.49 0.46 0.53
3617.518 0.63 0.64 0.58 0.57 0.58 0.55 0.52 0.61 0.64 0.7
3636.812 0.77 0.71 0.73 0.7 0.61 0.58 0.65 0.62 0.54 0.48
3656.105 0.46 0.63 0.71 0.76 0.82 0.7 0.63 0.63 0.7 0.61
3675.398 0.5 0.74 0.85 0.76 0.7 0.72 0.82 0.82 0.74 0.69
3694.692 0.74 0.75 0.76 0.82 0.85 0.82 0.86 0.9 0.91 1.04
3713.985 1.17 1.08 1.01 1.12 1.1 1.08 1.08 0.98 1.1 1.2
3733.279 1.11 1.09 1.06 1.06 1.03 1.01 0.98 0.99 0.99 0.92
3752.572 0.97 0.98 0.99 0.95 0.84 0.86 0.82 0.88 0.96 0.94
3771.866 0.94 0.86 0.86 0.92 0.92 0.89 0.98 0.95 0.86 0.91
3791.159 0.9 0.92 1.02 1.01 0.94 0.98 1.07 1.07 0.89 0.85
3810.452 0.93 0.9 0.85 0.84 0.93 0.96 0.97 0.99 0.93 0.82
3829.746 0.77 0.89 1.02 1.09 0.98 0.84 0.95 1.03 1.04 0.97
3849.039 0.99 1.15 1.16 1.18 1.18 1.06 1.07 1.07 1.17 1.19
3868.333 1.07 1.1 1.13 1.22 1.3 1.27 1.2 1.23 1.35 1.3
3887.626 1.18 1.15 1.13 1.14 1.21 1.25 1.26 1.24 1.26 1.32
3906.920 1.37 1.4 1.34 1.35 1.47 1.47 1.48 1.53 1.48 1.43
3926.213 1.52 1.62 1.73 1.79 1.73 1.6 1.57 1.66 1.67 1.65
3945.506 1.7 1.77 1.73 1.68 1.73 1.838 1.84 1.81 1.862 1.81
3964.800 1.74 1.75 1.79 1.866 1.871 1.8 1.78 1.66 1.68 1.868
3984.093 1.951 1.885 1.8 1.81 1.839 1.911 1.96 1.843 1.8
##END=
