##TITLE=2-Chloro-4-nitrobenzamide
##JCAMP-DX=4.24
##DATA TYPE=INFRARED SPECTRUM
##ORIGIN=EPA-IR VAPOR PHASE LIBRARY
##OWNER=SRD/NIST
Collection (C) 2018 copyright by the U.S. Secretary of Commerce
on behalf of the United States of America. All rights reserved.
##CAS REGISTRY NO=3011-89-0
##MOLFORM=C 7 H 5 Cl N 2 O 3
##$NIST SOURCE=MSDC-IR
##STATE=gas
##XUNITS=1/CM
##YUNITS=ABSORBANCE
##XFACTOR=1.
##YFACTOR=0.001
##DELTAX=1.92898
##FIRSTX=549.8
##LASTX=4000.7
##FIRSTY=3.4021
##MAXX=4000.7
##MINX=549.759
##MAXY=0.125082
##MINY=0
##NPOINTS=1790
##XYDATA=(X++(Y..Y))
549.759 3.4021 3.1521 3.1521 3.0121 2.9021 2.8421 2.8321 2.6521 2.6121 2.7521
569.049 2.4121 2.1321 2.0621 1.9721 1.7521 1.4721 1.5121 1.3921 1.1421 1.1521
588.339 1.2821 1.1721 0.9715 0.9925 1.1221 1.0721 0.9299 1.0234 1.0483 0.9603
607.628 1.0031 1.0189 1.0821 1.1821 1.1821 1.2621 1.3321 1.2321 1.2621 1.5721
626.918 1.8021 1.8421 2.0221 2.4221 2.8021 3.0821 3.3421 3.4621 3.5421 3.5521
646.208 3.3321 3.1021 2.7821 2.5321 2.4721 2.4721 2.4821 2.6021 2.7521 2.9121
665.498 3.1621 3.5221 3.8521 4.2021 4.7621 5.1321 5.4821 5.9321 6.2221 6.5921
684.787 6.9521 7.1121 7.1321 7.0421 6.9121 6.8221 6.6121 6.4421 6.2821 5.8921
704.077 5.6921 5.6921 5.7721 6.0621 6.5521 7.1721 7.8421 8.7121 9.8621 11.1021
723.367 12.3421 13.4621 14.3321 15.1421 15.8421 16.2521 16.2821 16.0521 15.4821 14.3921
742.657 13.0821 11.8021 10.6121 9.5721 8.6021 7.7621 7.1621 6.9121 6.9521 7.2921
761.947 7.9521 9.0521 10.8421 13.7521 18.1421 24.0321 30.6821 36.3021 39.4521 40.3521
781.236 39.4121 36.5321 31.7221 25.1421 18.7421 14.2821 11.6121 10.0521 9.1321 8.5421
800.526 8.1421 7.8221 7.5521 7.3821 7.2121 7.1621 7.1321 7.0221 7.1021 7.1221
819.816 7.0121 7.1321 7.3121 7.3421 7.6921 8.1821 8.4821 8.8821 9.3621 9.9621
839.106 10.6521 11.0521 11.3121 11.6421 11.5621 11.0121 10.3221 9.6621 9.1321 8.5621
858.395 7.8721 7.3621 7.0621 7.0321 7.1921 7.2621 7.2621 7.5121 8.1421 8.9821
877.685 10.1621 11.7121 13.2721 14.6921 16.0421 16.9821 17.5821 18.0321 18.1121 17.6421
896.975 16.7021 15.5521 13.9421 12.0921 10.4821 9.1121 7.9721 6.9821 6.0921 5.5621
916.265 5.1621 4.6821 4.3221 4.1921 4.1921 4.0821 3.9021 3.9021 3.8021 3.5521
935.555 3.4821 3.4821 3.4721 3.5521 3.5821 3.5221 3.4521 3.3521 3.3221 3.3021
954.844 3.3021 3.2021 3.0321 3.0721 3.0321 3.0021 3.0321 2.9621 2.8621 2.8721
974.134 2.7821 2.6521 2.6621 2.5721 2.3721 2.3621 2.3721 2.2521 2.2121 2.2021
993.424 2.3021 2.3721 2.2721 2.0921 2.0921 2.2321 2.4121 2.3921 2.2421 2.1821
1012.714 2.2421 2.5621 2.6321 2.5521 2.6121 3.0621 3.6221 4.0421 4.7021 5.5821
1032.003 6.4021 7.4021 8.4521 9.1321 9.5621 9.4921 9.4121 9.2221 8.4621 7.3021
1051.293 6.1821 5.4721 4.8921 4.2821 3.9121 3.6921 3.6121 3.4321 3.0121 2.9621
1070.583 2.9421 2.8421 3.1021 3.2621 3.2821 3.5821 3.7921 3.7221 3.8521 4.1221
1089.873 4.2721 4.3721 4.5621 4.3921 4.2421 4.4221 4.6921 5.0721 5.4321 6.0221
1109.163 6.5121 7.1521 7.8721 8.3721 8.7121 8.9021 9.0221 8.9421 9.0921 9.2621
1128.452 9.5521 10.0821 10.1921 10.3121 10.3521 9.9521 9.4921 8.7221 7.5521 6.3021
1147.742 5.1721 4.5321 4.0921 3.4921 3.0421 2.9221 2.9121 2.9621 2.7921 2.6421
1167.032 2.7521 2.6421 2.5121 2.5621 2.7221 2.7121 2.5321 2.4821 2.4621 2.5121
1186.322 2.6621 2.8721 3.1621 3.0921 2.9321 2.6921 2.4721 2.6321 2.7121 2.5721
1205.611 2.5921 2.8521 2.7921 2.7521 2.8521 2.9421 3.1421 3.0821 3.1221 3.3221
1224.901 3.3721 3.4521 3.6621 3.7521 3.7521 3.7821 4.0321 4.5221 5.1121 5.7121
1244.191 6.1421 6.4921 6.6521 6.7321 6.6221 6.4321 6.5721 6.6321 6.6121 6.8321
1263.481 7.1221 7.4521 7.9021 8.5021 9.0221 9.5821 10.2021 10.7221 11.2821 11.7921
1282.771 12.1121 12.1921 12.2021 12.3521 12.2621 12.0621 12.0521 12.0521 11.9621 12.0021
1302.060 12.1321 12.3721 12.7521 13.1821 13.7821 14.6021 15.6621 17.0121 18.7921 21.0521
1321.350 23.8921 27.6221 32.6521 39.3421 48.1021 59.3021 72.7821 87.6821 102.302 114.502
1340.640 122.452 125.082 122.172 113.902 100.972 85.2321 69.5321 56.3021 46.2721 38.9321
1359.930 33.6521 29.9321 27.3521 25.5821 24.5621 24.1221 24.0821 24.4321 25.1921 26.2421
1379.219 27.5021 28.8721 30.2621 31.4821 32.2721 32.4421 31.7821 30.2421 27.9121 24.9421
1398.509 21.5721 18.1721 15.1521 12.6921 10.8021 9.3921 8.4421 7.7721 7.2921 6.9521
1417.799 6.7321 6.5121 6.2521 5.9821 5.6821 5.3121 4.9021 4.5721 4.3021 4.0221
1437.089 3.7921 3.6521 3.5421 3.5221 3.5521 3.5921 3.6521 3.7521 3.8621 4.0621
1456.378 4.3121 4.5721 4.8421 5.1121 5.4721 5.7821 5.9821 6.1221 6.1721 6.1321
1475.668 6.0521 5.9321 5.7921 5.7121 5.7221 5.8721 6.1821 6.6521 7.2921 8.0521
1494.958 8.8521 9.6921 10.4821 11.2621 11.9721 12.5221 12.9621 13.3921 13.8621 14.3321
1514.248 14.9221 15.7221 16.7321 18.1321 20.0321 22.4321 25.6221 29.6621 34.7221 40.9421
1533.538 48.2721 56.3021 64.3621 71.9321 77.6421 80.6821 81.0621 79.3121 75.6521 69.5321
1552.827 61.0521 51.4421 42.8721 36.0621 31.1021 27.9421 26.1921 25.5621 25.9321 27.0721
1572.117 28.9821 31.6121 35.0621 39.2521 43.9121 49.0821 54.2121 58.6221 61.7321 63.2421
1591.407 62.8321 60.4521 56.3521 50.8921 44.8221 38.8021 33.2521 28.2821 23.9521 20.3021
1610.697 17.3321 14.9521 13.0521 11.5821 10.4321 9.6121 8.9721 8.3821 7.9221 7.5021
1629.986 7.1021 6.7621 6.4521 6.2121 5.9521 5.6921 5.4321 5.2421 5.1021 5.0521
1649.276 4.9821 4.8821 4.9521 5.0621 5.1121 5.2321 5.3821 5.5821 5.8921 6.2621
1668.566 6.6621 7.1721 7.7721 8.4421 9.2221 10.1021 11.0821 12.1821 13.5321 14.9421
1687.856 16.3721 17.9021 19.5521 21.3821 23.3721 25.5221 28.0221 31.0521 34.6121 39.1021
1707.146 44.5321 51.0521 58.3921 66.0621 73.3421 79.2521 83.7221 87.0721 88.9321 88.0121
1726.435 84.0021 78.0921 71.6521 65.6421 60.2721 55.8221 52.4721 50.0621 48.0321 45.4221
1745.725 41.6921 37.4321 33.2721 29.2821 25.4121 21.7221 18.4121 15.6221 13.2421 11.3021
1765.015 9.7521 8.4421 7.4221 6.6221 5.9521 5.4321 4.9721 4.5721 4.2821 4.0821
1784.305 3.9621 3.8321 3.6621 3.5021 3.3821 3.2721 3.1621 2.9821 2.8221 2.7821
1803.594 2.6921 2.5521 2.4121 2.3021 2.2321 2.1521 2.0021 1.8621 1.7521 1.6521
1822.884 1.5721 1.4621 1.3821 1.2821 1.2221 1.2021 1.1921 1.1721 1.1621 1.1121
1842.174 1.0621 1.02 0.9444 0.8962 0.8976 0.8934 0.8819 0.8929 0.8587 0.7907
1861.464 0.7925 0.8305 0.8229 0.8169 0.7964 0.7854 0.7837 0.7427 0.7474 0.7567
1880.754 0.7303 0.7237 0.7034 0.6912 0.6787 0.6927 0.7021 0.7049 0.773 0.807
1900.043 0.8096 0.7972 0.7679 0.7882 0.8173 0.8451 0.9179 0.9397 0.9724 1.0084
1919.333 1.0223 1.0521 1.0821 1.1221 1.1521 1.1521 1.1421 1.1321 1.0721 1.0302
1938.623 1.0036 0.9514 0.894 0.8597 0.7982 0.7381 0.7027 0.6517 0.6063 0.6128
1957.913 0.627 0.6199 0.5841 0.5406 0.5575 0.577 0.5461 0.5368 0.5101 0.5238
1977.202 0.5256 0.4657 0.4675 0.4966 0.4592 0.458 0.4869 0.4614 0.4939 0.5155
1996.492 0.4937 0.4938 0.488 0.4813 0.482 0.4788 0.443 0.3962 0.4158 0.4149
2015.782 0.3998 0.401 0.3824 0.3819 0.4128 0.4017 0.3711 0.358 0.3802 0.3965
2035.072 0.3695 0.4077 0.4106 0.3937 0.3838 0.3661 0.3831 0.3797 0.3409 0.2976
2054.362 0.3105 0.3325 0.3363 0.3088 0.3071 0.3273 0.3016 0.3354 0.3368 0.3179
2073.651 0.3419 0.2596 0.2289 0.3232 0.3374 0.289 0.2844 0.2902 0.3202 0.3262
2092.941 0.2952 0.3104 0.3163 0.3088 0.3085 0.2874 0.2997 0.2882 0.2908 0.2882
2112.231 0.2559 0.254 0.3013 0.3085 0.2283 0.2149 0.239 0.2327 0.2437 0.2879
2131.521 0.2903 0.2535 0.2794 0.3028 0.3075 0.2979 0.2869 0.3159 0.313 0.3123
2150.810 0.2638 0.2333 0.2575 0.2707 0.258 0.288 0.3237 0.2992 0.2286 0.2327
2170.100 0.2591 0.2148 0.2733 0.2975 0.2852 0.3396 0.3722 0.3437 0.2623 0.2587
2189.390 0.2911 0.3187 0.3516 0.3105 0.2532 0.2523 0.3198 0.3457 0.3532 0.4129
2208.680 0.4273 0.3782 0.3662 0.393 0.4415 0.4625 0.46 0.45 0.438 0.4331
2227.970 0.4552 0.4776 0.4954 0.5252 0.4732 0.386 0.3372 0.3299 0.3803 0.4096
2247.259 0.4322 0.4054 0.3293 0.2929 0.2619 0.2699 0.2715 0.2509 0.2406 0.2457
2266.549 0.2415 0.249 0.2839 0.3187 0.369 0.3991 0.396 0.3664 0.354 0.3442
2285.839 0.2915 0.2438 0.2316 0.2237 0.2231 0.2648 0.2576 0.2831 0.2992 0.2347
2305.129 0.2398 0.2405 0.2273 0.267 0.2537 0.2612 0.2969 0.281 0.2815 0.2986
2324.418 0.2993 0.2689 0.2391 0.2543 0.2321 0.2318 0.2939 0.2975 0.2844 0.2778
2343.708 0.3066 0.343 0.3286 0.33 0.3517 0.3311 0.2485 0.2445 0.3514 0.3873
2362.998 0.3628 0.3731 0.4207 0.3583 0.302 0.3409 0.3253 0.2958 0.3419 0.3686
2382.288 0.3317 0.3046 0.3056 0.3466 0.3591 0.2809 0.2492 0.3585 0.3697 0.3635
2401.578 0.3734 0.2827 0.3278 0.3944 0.3621 0.4024 0.4771 0.5141 0.5371 0.5832
2420.867 0.6074 0.5719 0.5676 0.5797 0.5477 0.5383 0.5318 0.5008 0.4865 0.4773
2440.157 0.5061 0.5242 0.5333 0.5317 0.4806 0.4441 0.4256 0.4916 0.5435 0.5476
2459.447 0.5549 0.5075 0.4515 0.4362 0.5082 0.5354 0.4666 0.3807 0.4024 0.4702
2478.737 0.5178 0.4801 0.4037 0.3983 0.3951 0.3697 0.358 0.3212 0.3099 0.3532
2498.026 0.2777 0.1974 0.2219 0.2589 0.1874 0.1918 0.2077 0.2019 0.281 0.34
2517.316 0.3634 0.3532 0.322 0.3101 0.2761 0.2942 0.3298 0.3651 0.3258 0.2122
2536.606 0.2128 0.2434 0.2626 0.264 0.2238 0.2208 0.2865 0.2949 0.2897 0.293
2555.896 0.241 0.1652 0.1723 0.2262 0.2391 0.2946 0.2283 0.1582 0.1636 0.12533
2575.186 0.1926 0.257 0.1989 0.1782 0.1953 0.1717 0.1934 0.2081 0.2049 0.2213
2594.475 0.1992 0.2047 0.2319 0.2368 0.2708 0.2492 0.2631 0.3058 0.296 0.2734
2613.765 0.2255 0.268 0.3074 0.3149 0.308 0.299 0.3467 0.3602 0.3913 0.3746
2633.055 0.3342 0.3407 0.3141 0.2712 0.3223 0.3426 0.3122 0.3268 0.2116 0.2438
2652.345 0.3963 0.3904 0.4192 0.4554 0.4816 0.4847 0.4695 0.5089 0.4936 0.5194
2671.634 0.5927 0.5931 0.6505 0.7271 0.7166 0.7168 0.7413 0.6975 0.665 0.7549
2690.924 0.8365 0.8737 0.9078 0.8826 0.8459 0.7999 0.778 0.7546 0.758 0.774
2710.214 0.8003 0.8237 0.7341 0.6878 0.7445 0.7452 0.6949 0.6629 0.5975 0.5791
2729.504 0.5911 0.5506 0.5374 0.4817 0.3642 0.3388 0.391 0.3677 0.2995 0.2787
2748.794 0.2683 0.2649 0.2752 0.2745 0.2358 0.3043 0.326 0.2941 0.2929 0.2795
2768.083 0.2903 0.2774 0.2725 0.2101 0.2147 0.3736 0.4261 0.3687 0.3859 0.4304
2787.373 0.4575 0.4466 0.4025 0.4091 0.4761 0.5855 0.6586 0.5962 0.6055 0.7128
2806.663 0.759 0.7739 0.7333 0.6967 0.6585 0.6556 0.8072 0.8563 0.7936 0.731
2825.953 0.6762 0.7259 0.7591 0.7688 0.7859 0.7827 0.7996 0.8329 0.7873 0.8186
2845.242 0.864 0.8561 0.8532 0.8087 0.8337 0.8246 0.8268 0.9122 0.9939 0.9891
2864.532 1.0462 1.1621 1.1721 1.2421 1.3621 1.3721 1.3821 1.4421 1.4721 1.4521
2883.822 1.3821 1.4021 1.4221 1.3321 1.3121 1.2021 1.0338 1.0721 1.0621 1.0083
2903.112 0.9356 0.8424 0.8595 0.8856 0.8415 0.8881 0.9166 0.9171 0.9986 0.982
2922.401 0.9427 0.9828 0.9761 1.0284 1.1221 1.1521 1.0921 1.0303 1.0245 0.9733
2941.691 0.8617 0.8113 0.817 0.7032 0.6205 0.5634 0.511 0.435 0.4726 0.5993
2960.981 0.5015 0.388 0.4159 0.3907 0.3572 0.4612 0.4795 0.5069 0.5644 0.5088
2980.271 0.4191 0.4574 0.4776 0.4502 0.4802 0.4801 0.4455 0.3418 0.3477 0.3281
2999.561 0.3605 0.4246 0.4465 0.5285 0.5287 0.5124 0.5578 0.5996 0.6093 0.5579
3018.850 0.536 0.5405 0.5133 0.5788 0.6454 0.723 0.7851 0.8591 0.9526 0.991
3038.140 1.0134 1.0101 0.9649 0.9731 0.9561 0.9279 0.9715 0.9529 0.8861 0.8638
3057.430 0.8402 0.7759 0.7535 0.7013 0.6836 0.6842 0.788 0.9143 0.9475 1.0296
3076.720 1.1321 1.2121 1.3221 1.3521 1.3721 1.5321 1.6621 1.8221 1.9821 2.2821
3096.009 2.5721 2.7321 2.9721 3.1821 3.3421 3.4121 3.2021 2.9021 2.7021 2.4921
3115.299 2.1621 1.7121 1.3921 1.1321 0.8687 0.8021 0.7719 0.7096 0.6206 0.4953
3134.589 0.4987 0.5005 0.4749 0.56 0.6534 0.6059 0.4732 0.4906 0.5353 0.5567
3153.879 0.5759 0.5241 0.45 0.4335 0.5424 0.6428 0.5698 0.4224 0.4896 0.5998
3173.169 0.6628 0.5811 0.4787 0.5146 0.4981 0.4447 0.4969 0.4901 0.385 0.4431
3192.458 0.3918 0.3688 0.3895 0.3366 0.3756 0.4746 0.4982 0.3889 0.408 0.4144
3211.748 0.2798 0.2101 0.2022 0.2936 0.3259 0.2129 0.2018 0.2554 0.3329 0.3073
3231.038 0.2101 0.1943 0.241 0.2317 0.1639 0.12053 0.11019 0.10919 0.2743 0.3327
3250.328 0.2392 0.2384 0.1857 0.1944 0.1772 0.088 0.09324 0.1773 0.1681 0.12169
3269.617 0.1786 0.12589 0.1889 0.3221 0.2309 0.2327 0.2804 0.2646 0.2289 0.3238
3288.907 0.4013 0.4708 0.5034 0.4105 0.4732 0.4395 0.3361 0.5063 0.617 0.5795
3308.197 0.6334 0.5546 0.4567 0.6028 0.5551 0.438 0.4699 0.3921 0.4153 0.5423
3327.487 0.5017 0.4668 0.5369 0.4795 0.3662 0.3562 0.4111 0.3744 0.3687 0.429
3346.777 0.4299 0.4387 0.53 0.5561 0.4697 0.556 0.7317 0.7303 0.6069 0.6394
3366.066 0.7272 0.7291 0.9663 1.1221 1.0521 1.1021 1.2221 1.4321 1.5721 1.7421
3385.356 1.9821 2.1021 2.2421 2.5921 2.9621 3.2621 3.5521 3.9521 4.3921 4.9221
3404.646 5.4721 5.9021 6.5421 7.2521 7.7621 8.4921 9.2721 9.9321 10.6321 11.3721
3423.936 12.1921 13.1321 13.8721 14.1021 14.1121 13.6421 12.7321 11.5121 9.9821 8.6021
3443.225 7.1921 5.7921 4.7321 4.1221 3.6621 3.1921 2.8821 2.6221 2.3921 2.2421
3462.515 2.1621 2.0321 1.8721 1.7721 1.7621 1.7721 1.7021 1.6321 1.5721 1.5521
3481.805 1.6121 1.7321 1.8421 1.8621 1.9021 1.9621 2.1721 2.4621 2.6621 2.8321
3501.095 3.0721 3.3521 3.4521 3.6321 3.8521 4.0521 4.4221 4.7821 5.1521 5.5021
3520.385 5.8721 6.4521 6.9221 7.2621 7.6721 8.0421 8.3621 8.7321 9.2121 9.7921
3539.674 10.7521 12.0921 13.6321 15.2221 16.6421 17.3421 17.1121 16.4221 15.1821 13.3621
3558.964 11.1821 8.6821 6.4521 4.7821 3.7321 3.0621 2.5221 2.2521 1.9621 1.7421
3578.254 1.5721 1.4721 1.4521 1.2521 1.0721 1.0316 0.9978 0.9573 0.8457 0.7247
3597.544 0.7615 0.6603 0.5987 0.5595 0.5499 0.6138 0.5863 0.5183 0.3853 0.3015
3616.833 0.3332 0.3668 0.4065 0.4257 0.3497 0.4114 0.5148 0.4287 0.3088 0.3674
3636.123 0.379 0.3306 0.2553 0.3008 0.382 0.3512 0.3867 0.404 0.3549 0.3708
3655.413 0.3215 0.2237 0.2236 0.2942 0.3933 0.3486 0.2863 0.3115 0.2745 0.2534
3674.703 0.3556 0.2947 0.2182 0.2462 0.3198 0.3731 0.2842 0.2683 0.366 0.3203
3693.993 0.3741 0.5225 0.3974 0.3659 0.3553 0.3302 0.3404 0.3434 0.3952 0.3852
3713.282 0.3556 0.3115 0.3911 0.3513 0.2949 0.2899 0.2703 0.2676 0.2645 0.3628
3732.572 0.3278 0.2877 0.2206 0.2772 0.3888 0.3736 0.4108 0.3516 0.3172 0.3619
3751.862 0.3276 0.3085 0.3568 0.296 0.3245 0.4469 0.3363 0.2547 0.3577 0.3476
3771.152 0.306 0.2999 0.2748 0.3206 0.2675 0.2472 0.3156 0.2724 0.3466 0.4222
3790.441 0.3178 0.2684 0.2503 0.2369 0.2644 0.306 0.3417 0.3407 0.3268 0.3352
3809.731 0.3915 0.3636 0.4063 0.3062 0.1987 0.2558 0.10607 0.08386 0.0839 0.037
3829.021 0.2021 0.3064 0.3048 0.3593 0.279 0.2697 0.2362 0.07433 0.10042 0.2831
3848.311 0.3814 0.3068 0.2361 0.2253 0.2874 0.2235 0.14358 0.1611 0.2416 0.321
3867.601 0.2752 0.3844 0.353 0.3001 0.3371 0.2863 0.2858 0.2233 0.1629 0.09358
3886.890 0 0.08502 0.2441 0.1906 0.1878 0.2598 0.22 0.1808 0.2631 0.3109
3906.180 0.2755 0.2216 0.2321 0.1935 0.08312 0.15086 0.2641 0.2613 0.219 0.1549
3925.470 0.2176 0.3775 0.3269 0.2305 0.2583 0.2609 0.181 0.2729 0.2938 0.2274
3944.760 0.2208 0.12998 0.1815 0.1715 0.1728 0.214 0.1953 0.1721 0.06808 0.12878
3964.049 0.211 0.2528 0.2905 0.2838 0.1617 0.1245 0.1822 0.1984 0.2003 0.13045
3983.339 0.2409 0.3107 0.2718 0.2028 0.08059 0.0081 0.0129 0.12634 0.2008 0.11503
##END=
