##TITLE=p-Dibenzoylbenzene
##JCAMP-DX=4.24
##DATA TYPE=INFRARED SPECTRUM
##ORIGIN=EPA-IR VAPOR PHASE LIBRARY
##OWNER=SRD/NIST
Collection (C) 2018 copyright by the U.S. Secretary of Commerce
on behalf of the United States of America. All rights reserved.
##CAS REGISTRY NO=3016-97-5
##MOLFORM=C 20 H 14 O 2
##$NIST SOURCE=MSDC-IR
##STATE=gas
##XUNITS=1/CM
##YUNITS=ABSORBANCE
##XFACTOR=1.
##YFACTOR=0.001
##DELTAX=1.92898
##FIRSTX=549.8
##LASTX=4000.7
##FIRSTY=0.6753
##MAXX=4000.7
##MINX=549.759
##MAXY=0.057446
##MINY=0
##NPOINTS=1790
##XYDATA=(X++(Y..Y))
549.759 0.6753 0.8206 0.7387 0.7114 0.8917 1.0209 0.8688 0.7049 0.624 0.4273
569.049 0.5069 0.7559 0.7876 0.5821 0.6153 0.8877 0.9299 0.7426 0.7623 0.8093
588.339 0.6069 0.5921 0.8156 0.7731 0.4887 0.7666 0.949 0.7606 0.793 0.9031
607.628 0.8808 0.7725 0.8758 1.0264 1.0462 0.8125 0.6632 0.7597 0.8344 0.9003
626.918 1.1137 1.1067 1.1157 1.276 1.346 1.496 1.636 1.846 2.156 2.556
646.208 2.876 3.046 3.176 3.316 3.176 3.116 3.146 3.016 3.216 3.676
665.498 4.156 4.766 5.616 6.706 8.176 9.856 11.506 12.986 14.016 14.676
684.787 14.986 15.166 15.906 17.376 19.296 21.286 23.086 24.186 24.536 24.406
704.077 23.526 21.606 19.076 16.366 13.636 11.136 9.086 7.466 6.356 5.506
723.367 4.636 4.196 4.146 3.906 3.976 4.176 4.016 3.956 3.896 3.996
742.657 3.786 3.626 3.846 3.636 3.416 3.206 2.986 2.986 2.716 2.426
761.947 2.216 2.106 2.036 2.006 2.106 2.326 2.446 2.516 2.576 2.406
781.236 2.416 2.546 2.346 2.066 1.906 1.846 1.796 1.596 1.606 1.856
800.526 1.706 1.466 1.506 1.676 1.666 1.466 1.426 1.386 1.346 1.366
819.816 1.306 1.286 1.376 1.506 1.646 1.906 1.986 2.006 2.196 2.416
839.106 2.686 2.956 3.296 3.656 3.836 4.166 4.556 4.776 5.056 5.246
858.395 5.126 4.636 4.016 3.476 3.106 2.736 2.396 2.316 2.156 2.056
877.685 2.126 2.196 2.336 2.496 2.646 2.796 3.026 3.276 3.716 4.276
896.975 4.886 5.576 6.356 7.366 8.806 10.676 12.876 15.626 18.916 21.996
916.265 24.406 26.016 26.296 25.486 24.536 23.966 23.606 23.196 22.136 20.106
935.555 16.846 12.846 9.416 6.916 5.296 4.186 3.436 3.036 2.726 2.476
954.844 2.226 2.006 2.026 2.026 2.016 2.056 2.076 2.176 2.206 2.176
974.134 2.046 1.756 1.436 1.0242 0.9581 1.1636 1.0384 0.9976 1.071 0.9058
993.424 0.9063 1.286 1.976 2.406 2.316 1.926 1.376 1.1456 1.1223 1.1343
1012.714 1.276 1.486 1.546 1.826 2.146 1.886 2.096 2.466 2.006 1.636
1032.003 1.686 1.436 0.9372 0.6863 0.7719 0.7377 0.6061 0.6082 0.5173 0.6183
1051.293 0.6951 0.5611 0.6658 0.8201 0.8679 0.7843 0.8158 1.1823 1.286 1.0797
1070.583 0.9849 1.0688 1.0755 1.236 1.266 1.246 1.1133 0.823 0.9141 0.6932
1089.873 0.6618 0.8139 0.5068 0.7353 0.9652 0.8686 0.9744 1.0731 1.426 1.506
1109.163 1.716 1.676 1.426 1.706 1.746 1.386 1.1783 1.486 1.836 2.166
1128.452 1.856 1.766 2.016 2.146 2.306 1.886 1.576 1.916 2.406 2.366
1147.742 2.436 2.766 3.066 3.316 3.246 3.246 3.336 3.046 2.976 3.086
1167.032 3.036 3.396 4.026 4.716 5.826 7.316 8.516 9.236 9.286 7.896
1186.322 5.996 4.576 3.816 3.506 3.236 2.676 2.406 2.466 2.656 2.986
1205.611 3.066 2.986 3.166 3.646 3.676 3.836 4.626 5.546 6.216 6.886
1224.901 7.576 8.746 10.156 11.376 12.466 13.736 14.846 15.506 15.626 15.416
1244.191 15.536 15.796 16.476 18.036 20.146 22.856 26.496 30.946 36.426 42.836
1263.481 48.846 53.596 56.526 57.446 56.266 52.996 48.516 43.216 37.726 32.736
1282.771 28.386 24.786 21.986 19.916 18.436 17.356 16.486 15.736 15.146 14.756
1302.060 14.526 14.586 14.896 15.166 15.276 15.126 14.486 13.396 11.886 10.026
1321.350 8.276 6.796 5.586 4.686 4.056 3.566 3.146 2.836 2.566 2.386
1340.640 2.296 2.146 2.016 1.926 1.856 1.806 1.756 1.806 1.856 1.916
1359.930 1.966 1.946 1.966 2.036 2.056 1.996 1.986 1.996 1.986 1.956
1379.219 1.976 1.986 2.056 2.136 2.226 2.456 2.776 3.116 3.616 4.156
1398.509 4.516 4.666 4.486 3.986 3.416 2.826 2.336 2.046 1.846 1.686
1417.799 1.536 1.496 1.456 1.446 1.486 1.546 1.626 1.716 1.926 2.206
1437.089 2.516 2.966 3.606 4.386 5.196 5.776 5.796 5.306 4.446 3.456
1456.378 2.646 2.066 1.706 1.516 1.496 1.416 1.316 1.266 1.236 1.236
1475.668 1.226 1.2144 1.1792 1.15 1.236 1.336 1.356 1.416 1.726 2.156
1494.958 2.676 3.306 3.836 4.066 3.956 3.626 3.096 2.566 2.256 2.066
1514.248 1.876 1.776 1.706 1.636 1.606 1.566 1.596 1.616 1.596 1.576
1533.538 1.596 1.606 1.626 1.696 1.646 1.616 1.736 1.796 1.816 1.886
1552.827 2.036 2.156 2.236 2.326 2.336 2.316 2.316 2.336 2.416 2.626
1572.117 2.836 3.076 3.306 3.416 3.506 3.546 3.606 3.676 3.636 3.766
1591.407 3.966 4.146 4.416 4.686 4.776 4.546 4.146 3.706 3.246 2.876
1610.697 2.586 2.406 2.366 2.246 2.126 2.196 2.206 2.166 2.206 2.266
1629.986 2.336 2.446 2.556 2.706 2.866 3.026 3.286 3.526 3.736 3.966
1649.276 4.176 4.416 4.766 5.076 5.486 6.176 7.046 8.116 9.496 11.346
1668.566 14.056 17.796 22.706 28.936 36.206 43.206 48.756 51.396 50.346 45.876
1687.856 39.366 32.066 25.546 20.436 16.296 13.026 10.746 8.876 7.556 6.616
1707.146 5.876 5.286 4.896 4.576 4.306 4.046 3.786 3.546 3.346 3.106
1726.435 2.846 2.726 2.646 2.396 2.216 2.046 1.856 1.706 1.576 1.546
1745.725 1.416 1.326 1.296 1.256 1.2051 1.145 1.1531 1.1318 1.0904 1.0844
1765.015 1.047 1.0119 1.0468 1.1131 1.1597 1.1641 1.0879 1.0421 1.0034 0.9567
1784.305 0.9495 0.9215 0.941 0.9426 0.9671 0.9605 0.9955 1.138 1.236 1.346
1803.594 1.466 1.566 1.646 1.706 1.656 1.606 1.536 1.396 1.266 1.1644
1822.884 1.071 0.9661 0.8802 0.8204 0.7714 0.7159 0.7017 0.7205 0.6854 0.6264
1842.174 0.6343 0.6377 0.659 0.6214 0.5331 0.5882 0.601 0.5251 0.5381 0.5583
1861.464 0.5715 0.6095 0.6096 0.5757 0.5498 0.5977 0.5747 0.6053 0.6628 0.6408
1880.754 0.7044 0.7658 0.7552 0.7589 0.8317 0.9102 0.9325 0.9272 0.9538 0.9926
1900.043 0.9638 1.0037 1.0556 1.0019 0.9394 0.914 0.917 0.9431 0.9733 0.9496
1919.333 0.9168 0.9174 0.9216 0.8857 0.8765 0.901 0.8857 0.8606 0.8413 0.8299
1938.623 0.8694 0.9039 0.887 0.9293 0.9893 1.0504 1.1211 1.1335 1.1817 1.1742
1957.913 1.1251 1.0641 1.0454 1.0662 1.0196 0.9619 0.9291 0.9024 0.8356 0.7136
1977.202 0.6469 0.6389 0.5484 0.4859 0.4878 0.4999 0.4839 0.4596 0.4224 0.3937
1996.492 0.3916 0.4193 0.4555 0.4102 0.4219 0.4535 0.4388 0.4373 0.4635 0.4993
2015.782 0.4925 0.4376 0.4185 0.4262 0.4021 0.3775 0.3921 0.3712 0.3387 0.3547
2035.072 0.3895 0.3557 0.3454 0.3737 0.3801 0.3916 0.3765 0.4 0.4098 0.4281
2054.362 0.4068 0.4163 0.4509 0.4423 0.3988 0.3444 0.31802 0.3112 0.3265 0.3545
2073.651 0.4049 0.3766 0.3426 0.3972 0.4293 0.4196 0.3692 0.28547 0.27852 0.32067
2092.941 0.31452 0.29609 0.30022 0.26636 0.225156 0.21641 0.231171 0.25654 0.26116 0.3354
2112.231 0.3569 0.27432 0.25516 0.2651 0.26932 0.24709 0.27213 0.32134 0.28401 0.30309
2131.521 0.356 0.3146 0.3326 0.3512 0.3438 0.3659 0.32356 0.28506 0.26617 0.29657
2150.810 0.32542 0.3392 0.3522 0.28736 0.3003 0.32008 0.3126 0.32427 0.28855 0.29092
2170.100 0.3301 0.3549 0.3314 0.31281 0.3505 0.3833 0.4061 0.3697 0.3371 0.31876
2189.390 0.2975 0.3369 0.3363 0.3324 0.31152 0.32048 0.31979 0.31564 0.32539 0.32168
2208.680 0.31902 0.29371 0.32129 0.27003 0.2064 0.26546 0.26847 0.27458 0.30118 0.25619
2227.970 0.25555 0.28199 0.29781 0.3199 0.3413 0.3526 0.33 0.31237 0.29685 0.30615
2247.259 0.3766 0.3656 0.3471 0.3421 0.3336 0.3456 0.3406 0.3773 0.3388 0.31073
2266.549 0.32477 0.31164 0.3495 0.3651 0.2843 0.229056 0.28641 0.3147 0.344 0.3643
2285.839 0.3422 0.3416 0.31869 0.30615 0.3317 0.365 0.3638 0.3497 0.3588 0.3395
2305.129 0.3686 0.3465 0.2954 0.3952 0.4715 0.5329 0.5786 0.5318 0.5606 0.555
2324.418 0.46 0.486 0.4945 0.4041 0.3922 0.42 0.4796 0.5296 0.5079 0.4807
2343.708 0.4568 0.4932 0.466 0.3941 0.379 0.31323 0.3493 0.4332 0.3687 0.32529
2362.998 0.3447 0.3717 0.3947 0.3478 0.3567 0.3799 0.3582 0.31139 0.3637 0.46
2382.288 0.4407 0.4195 0.3996 0.3827 0.412 0.4522 0.4412 0.4826 0.5781 0.578
2401.578 0.5489 0.5664 0.5608 0.5431 0.5282 0.4852 0.4557 0.4438 0.4752 0.5667
2420.867 0.5668 0.4926 0.4735 0.4853 0.4314 0.3601 0.3724 0.4054 0.4144 0.4377
2440.157 0.3624 0.28013 0.3733 0.3789 0.30888 0.31453 0.3536 0.3411 0.3594 0.408
2459.447 0.3656 0.3352 0.3694 0.3788 0.3839 0.3941 0.3536 0.32088 0.3443 0.3405
2478.737 0.32342 0.3397 0.362 0.4017 0.3589 0.28739 0.22488 0.2119 0.25046 0.25414
2498.026 0.26932 0.27081 0.25121 0.28665 0.29262 0.27475 0.31812 0.4213 0.404 0.337
2517.316 0.3745 0.4092 0.4133 0.358 0.27541 0.1889 0.204 0.29853 0.31307 0.31587
2536.606 0.32129 0.3361 0.3824 0.3825 0.3349 0.30521 0.28212 0.27042 0.29955 0.29828
2555.896 0.2753 0.26398 0.25246 0.31823 0.3874 0.3871 0.3494 0.3319 0.3541 0.31032
2575.186 0.31115 0.3337 0.30981 0.3413 0.3275 0.24669 0.26637 0.31376 0.24208 0.29418
2594.475 0.4038 0.4119 0.4244 0.3895 0.343 0.367 0.4158 0.4086 0.3366 0.3305
2613.765 0.3366 0.29711 0.3434 0.3663 0.374 0.3435 0.32429 0.4238 0.439 0.4165
2633.055 0.4345 0.4295 0.406 0.3841 0.4181 0.3987 0.3331 0.3515 0.3346 0.3475
2652.345 0.31513 0.24665 0.1974 0.1568 0.2155 0.28384 0.29789 0.27015 0.24249 0.24485
2671.634 0.30707 0.31097 0.30434 0.29124 0.31206 0.31038 0.1774 0.1824 0.3167 0.3949
2690.924 0.3781 0.3565 0.3317 0.29447 0.2416 0.2028 0.22224 0.21692 0.29044 0.3299
2710.214 0.3322 0.328 0.29806 0.26404 0.28624 0.31718 0.31183 0.4015 0.4124 0.31151
2729.504 0.32491 0.3819 0.3531 0.3657 0.32514 0.3271 0.3838 0.3767 0.4579 0.5431
2748.794 0.5694 0.5623 0.4967 0.5168 0.5258 0.4593 0.4213 0.406 0.3902 0.3939
2768.083 0.4521 0.4192 0.3766 0.39 0.3534 0.30811 0.29092 0.29036 0.27399 0.2607
2787.373 0.28318 0.25837 0.23908 0.235073 0.231294 0.27567 0.30622 0.31018 0.29876 0.29862
2806.663 0.3303 0.4215 0.3635 0.28604 0.3363 0.28636 0.21929 0.28196 0.3725 0.4002
2825.953 0.30382 0.26381 0.23665 0.25424 0.3535 0.29472 0.3399 0.4506 0.5232 0.4849
2845.242 0.3969 0.3953 0.441 0.4828 0.4948 0.4879 0.4868 0.5719 0.6787 0.6928
2864.532 0.6639 0.5822 0.5614 0.6357 0.6523 0.5847 0.5148 0.5225 0.5805 0.6251
2883.822 0.5813 0.5493 0.5338 0.378 0.3783 0.483 0.4839 0.4405 0.4357 0.4983
2903.112 0.4481 0.3676 0.3265 0.3339 0.3977 0.406 0.3637 0.3287 0.29332 0.26031
2922.401 0.24215 0.3327 0.3503 0.24885 0.23607 0.3437 0.3336 0.28881 0.3401 0.3435
2941.691 0.3417 0.3324 0.30207 0.24055 0.26418 0.3397 0.31378 0.25758 0.30236 0.31835
2960.981 0.28976 0.3408 0.3439 0.3402 0.4461 0.5615 0.4993 0.4359 0.4997 0.4962
2980.271 0.421 0.405 0.4379 0.4221 0.4521 0.5503 0.5391 0.5408 0.5872 0.6493
2999.561 0.6369 0.6332 0.6809 0.7219 0.7981 0.8553 0.8339 0.8471 1.1018 1.256
3018.850 1.406 1.666 1.936 2.156 2.416 2.876 3.206 3.456 3.786 4.086
3038.140 4.166 4.046 3.846 3.476 3.206 3.056 3.016 3.106 3.236 3.566
3057.430 4.006 4.496 5.016 5.616 6.496 7.446 8.436 9.186 9.206 8.666
3076.720 7.796 6.946 6.546 6.486 6.516 6.456 6.236 5.866 5.356 4.676
3096.009 4.026 3.586 3.146 2.806 2.586 2.346 2.116 1.956 1.696 1.436
3115.299 1.286 1.0439 0.8882 0.8367 0.7181 0.6288 0.5229 0.5551 0.654 0.6244
3134.589 0.5781 0.4844 0.4441 0.4655 0.3892 0.4326 0.5737 0.6356 0.6416 0.5355
3153.879 0.461 0.4826 0.4834 0.5248 0.5945 0.5065 0.4229 0.4191 0.37 0.384
3173.169 0.3946 0.23988 0.2 0.28555 0.32052 0.3631 0.4175 0.4737 0.4268 0.31756
3192.458 0.29708 0.30079 0.28037 0.30245 0.28905 0.3271 0.3518 0.30926 0.30787 0.4202
3211.748 0.3384 0.1913 0.28625 0.28575 0.3934 0.446 0.28465 0.24037 0.266 0.2136
3231.038 0.21705 0.31897 0.3072 0.1907 0.21916 0.29555 0.1986 0.26534 0.31843 0.29065
3250.328 0.3564 0.29251 0.1921 0.29073 0.4275 0.3602 0.32017 0.3506 0.4295 0.4072
3269.617 0.30001 0.2901 0.24876 0.29209 0.30662 0.23651 0.27637 0.27634 0.26068 0.28343
3288.907 0.2806 0.24209 0.2151 0.2075 0.1393 0.123 0.2131 0.31981 0.3594 0.31863
3308.197 0.3794 0.3271 0.24586 0.31743 0.3559 0.3869 0.4468 0.5747 0.636 0.5422
3327.487 0.4719 0.4767 0.6079 0.6571 0.7412 0.9105 0.9105 0.9037 0.9022 0.9572
3346.777 0.9843 1.0508 1.1192 1.0075 0.8814 0.8346 0.7824 0.7147 0.6283 0.5191
3366.066 0.3825 0.3936 0.5353 0.5502 0.4694 0.3869 0.27054 0.235782 0.31183 0.30366
3385.356 0.31769 0.3591 0.28744 0.24683 0.31968 0.28148 0.2097 0.27598 0.32015 0.29871
3404.646 0.24822 0.1767 0.121 0.104 0.2041 0.21613 0.2005 0.28069 0.3738 0.3494
3423.936 0.23645 0.29532 0.26071 0.1287 0.104 0.1574 0.1757 0.1899 0.28503 0.3323
3443.225 0.23951 0.22235 0.22302 0.085 0.1373 0.3377 0.3631 0.28835 0.22029 0.227231
3462.515 0.29287 0.29343 0.25281 0.22257 0.1389 0.064 0.1396 0.097 0.1626 0.25031
3481.805 0.21918 0.3527 0.3446 0.30568 0.29251 0.2922 0.31919 0.32444 0.381 0.31515
3501.095 0.26297 0.1893 0.2036 0.2124 0.086 0.162 0.27319 0.30901 0.31691 0.32152
3520.385 0.27068 0.1908 0.1828 0.27245 0.21619 0.1786 0.22536 0.25098 0.3117 0.3187
3539.674 0.192 0.1451 0.1824 0.21968 0.1528 0.086 0.1898 0.23694 0.29934 0.23649
3558.964 0.1799 0.1447 0.089 0.1779 0.229732 0.1692 0.2571 0.25993 0.1895 0.3055
3578.254 0.3959 0.30704 0.1764 0.062 0.023 0.125 0.24658 0.25862 0.24815 0.24754
3597.544 0.2155 0.21682 0.29925 0.3705 0.3466 0.28571 0.27291 0.31683 0.25463 0.1842
3616.833 0.229742 0.26077 0.124 0.026 0.1687 0.25 0.1955 0.2049 0.1769 0.1785
3636.123 0.2197 0.32262 0.27286 0.114 0.2102 0.3531 0.32561 0.27095 0.358 0.3551
3655.413 0.3309 0.32489 0.29606 0.26173 0.1523 0.1353 0.1704 0.3124 0.3305 0.25643
3674.703 0.25608 0.2061 0.26271 0.3321 0.32143 0.29965 0.3526 0.31243 0.234273 0.1988
3693.993 0.1709 0.189 0.27206 0.375 0.30972 0.21659 0.2045 0.1746 0.24437 0.5011
3713.282 0.4958 0.28065 0.2151 0.26918 0.2843 0.28407 0.3667 0.381 0.3442 0.3639
3732.572 0.367 0.227104 0.1826 0.2122 0.2058 0.26814 0.361 0.3919 0.4307 0.41
3751.862 0.2957 0.3436 0.4204 0.3842 0.2878 0.1986 0.28085 0.328 0.26015 0.1321
3771.152 0.027 0.1547 0.32369 0.233298 0.077 0.23703 0.3261 0.122 0.1279 0.1974
3790.441 0.078 0.125 0.085 0.02 0.2009 0.3547 0.28983 0.28145 0.24513 0.1324
3809.731 0.112 0.179 0.26433 0.161 0.1329 0.1991 0.30293 0.25989 0.048 0.004
3829.021 0.024 0.089 0.1696 0.1747 0.1975 0.183 0.1422 0.1747 0.25763 0.1502
3848.311 0.1337 0.1858 0.22075 0.1886 0.1637 0.27153 0.26393 0.112 0.076 0.104
3867.601 0.07 0.1644 0.2485 0.227139 0.097 0.1367 0.2101 0.055 0.052 0.136
3886.890 0.1611 0.087 0.034 0.1866 0.192 0.22392 0.26004 0.1543 0.106 0.1312
3906.180 0.230313 0.4032 0.32312 0.2027 0.26315 0.1954 0.1882 0.25027 0.208 0.22263
3925.470 0.31288 0.25544 0.2891 0.336 0.22218 0 0.006 0.1565 0.116 0.1609
3944.760 0.1375 0.045 0.059 0.093 0.1718 0.26066 0.2048 0.1946 0.29897 0.29971
3964.049 0.232433 0.1608 0.28542 0.3551 0.2147 0.1585 0.2117 0.4024 0.3728 0.30971
3983.339 0.28438 0.1973 0.231865 0.1503 0.26543 0.4166 0.3275 0.27226 0.24996 0.3372
##END=
