##TITLE=Trichloroacetyl isocyanate
##JCAMP-DX=4.24
##DATA TYPE=INFRARED SPECTRUM
##ORIGIN=EPA-IR VAPOR PHASE LIBRARY
##OWNER=SRD/NIST
Collection (C) 2018 copyright by the U.S. Secretary of Commerce
on behalf of the United States of America. All rights reserved.
##CAS REGISTRY NO=3019-71-4
##MOLFORM=C 3 Cl 3 N O 2
##$NIST SOURCE=MSDC-IR
##STATE=gas
##XUNITS=1/CM
##YUNITS=ABSORBANCE
##XFACTOR=1.
##YFACTOR=0.001
##DELTAX=1.929
##FIRSTX=549.8
##LASTX=4000.8
##FIRSTY=1.0247
##MAXX=4000.75
##MINX=549.766
##MAXY=0.0185
##MINY=0
##NPOINTS=1790
##XYDATA=(X++(Y..Y))
549.766 1.0247 1.0611 0.9527 1.0711 1.2597 1.1804 0.9843 0.8534 0.66073 0.6783
569.056 0.9122 0.9206 0.9089 0.944 1.0785 1.0377 0.9115 0.8674 0.8985 0.9298
588.346 0.8601 0.9542 1.1127 1.1935 1.4144 1.86 2.21 2.44 2.6 2.94
607.636 3.33 3.77 4.22 4.43 4.47 4.15 3.95 3.9 3.58 3.34
626.926 3.08 2.61 2.34 2.17 1.89 1.66 1.62 1.76 1.85 1.87
646.216 1.9 2 2.33 2.71 3.03 3.21 3.44 3.78 4.14 4.57
665.506 4.99 5.33 5.7 6.16 6.53 6.65 6.56 6.68 6.66 6.39
684.796 6.16 5.93 5.78 5.58 5.39 5.3 5.07 4.95 5.05 4.88
704.086 4.57 4.4 4.3 4.05 3.75 3.48 3.27 3.04 2.79 2.68
723.376 2.5 2.38 2.24 2.1 2.03 1.87 1.82 1.8 1.62 1.61
742.666 1.63 1.471 1.434 1.4679 1.4941 1.61 1.66 1.57 1.6 1.67
761.956 1.6 1.62 1.79 1.85 1.91 2.02 2.15 2.29 2.4 2.52
781.246 2.79 3.02 3.23 3.45 3.61 4 4.42 4.84 5.31 5.78
800.536 6.28 6.79 7.37 8.01 8.69 9.4 10.28 11.19 12 12.76
819.826 13.41 13.99 14.45 14.66 14.72 14.63 14.4 14.13 13.62 12.98
839.116 12.34 11.66 10.91 10.18 9.61 9.09 8.43 7.76 7.23 6.61
858.406 5.99 5.5 5.04 4.55 4.14 3.8 3.53 3.3 3.13 3.07
877.696 3.04 2.95 2.85 2.85 2.8 2.76 2.71 2.61 2.7 2.72
896.986 2.65 2.67 2.68 2.67 2.69 2.67 2.57 2.52 2.48 2.34
916.276 2.25 2.17 1.99 1.89 1.82 1.67 1.5672 1.5228 1.4478 1.3836
935.566 1.3081 1.246 1.1913 1.1673 1.1207 1.0137 0.9856 1.0375 1.0464 0.9599
954.856 0.9367 0.959 0.9551 0.9355 0.9331 0.9513 0.9354 0.8928 0.9167 0.9391
974.146 0.8454 0.8003 0.856 0.8548 0.8371 0.8828 0.856 0.8107 0.822 0.8444
993.436 0.8145 0.7813 0.804 0.8698 0.9133 0.843 0.7789 0.7962 0.8218 0.7947
1012.726 0.738 0.7069 0.7404 0.7814 0.7517 0.7186 0.7281 0.673 0.65181 0.6835
1032.016 0.65611 0.6443 0.64342 0.66335 0.6327 0.62867 0.64904 0.6861 0.6941 0.63109
1051.306 0.63956 0.576042 0.5104 0.62661 0.66461 0.60535 0.65829 0.63106 0.5581 0.56833
1070.596 0.4993 0.5409 0.64661 0.6247 0.59835 0.60323 0.5928 0.5539 0.62803 0.6408
1089.886 0.59613 0.6707 0.6983 0.65099 0.59097 0.5544 0.64848 0.7175 0.6921 0.61021
1109.176 0.5436 0.58755 0.573635 0.578599 0.59944 0.60406 0.64322 0.60246 0.5453 0.5233
1128.467 0.546 0.5565 0.5425 0.5456 0.5425 0.514 0.577171 0.62688 0.570096 0.63187
1147.757 0.66762 0.59914 0.61502 0.7262 0.7632 0.7379 0.7824 0.7943 0.6878 0.65509
1167.047 0.7956 0.8499 0.8166 0.8507 0.8891 0.8943 0.9009 0.8736 0.8626 0.8447
1186.337 0.8008 0.8739 0.9352 0.9804 0.9906 0.9188 0.9415 0.9656 0.8627 0.7834
1205.627 0.7967 0.7431 0.6953 0.8034 0.8663 0.7532 0.64249 0.703 0.8394 0.8696
1224.917 0.8697 0.7608 0.60084 0.6822 0.7437 0.7049 0.7185 0.6716 0.63104 0.6736
1244.207 0.7367 0.8002 0.8656 0.9187 0.9665 0.9233 0.8744 0.9559 1.0198 1.0406
1263.497 1.1248 1.2038 1.28 1.3494 1.4543 1.64 1.8 1.98 2.18 2.39
1282.787 2.58 2.77 3.01 3.22 3.43 3.7 4.04 4.31 4.58 4.86
1302.077 5.1 5.29 5.44 5.65 5.81 5.92 6.01 6 6.03 6.06
1321.367 6.02 5.98 5.91 5.83 5.77 5.65 5.51 5.33 5.13 4.91
1340.657 4.68 4.45 4.2 3.95 3.69 3.39 3.07 2.78 2.53 2.28
1359.947 2.01 1.77 1.59 1.3766 1.2044 1.1264 1.0453 0.9505 0.8599 0.7905
1379.237 0.7426 0.6732 0.62514 0.62993 0.63138 0.62953 0.60415 0.5454 0.4908 0.4877
1398.527 0.5038 0.5182 0.5491 0.5258 0.4885 0.43 0.433 0.4874 0.465 0.4798
1417.817 0.5493 0.5518 0.4835 0.4926 0.5522 0.5019 0.413 0.42 0.438 0.438
1437.107 0.455 0.444 0.45 0.46 0.453 0.431 0.432 0.445 0.42 0.454
1456.397 0.5346 0.5309 0.4924 0.496 0.524 0.5172 0.4776 0.4748 0.477 0.463
1475.687 0.455 0.4763 0.4817 0.4842 0.5256 0.56732 0.58637 0.569676 0.578095 0.61172
1494.977 0.62745 0.63494 0.60359 0.59087 0.61147 0.58163 0.56613 0.60752 0.6141 0.61525
1514.267 0.6247 0.64797 0.61853 0.58497 0.61314 0.63446 0.6722 0.6784 0.66701 0.7024
1533.557 0.7261 0.7208 0.7686 0.8489 0.8409 0.8976 1.0081 1.0729 1.1594 1.2961
1552.847 1.4608 1.64 1.86 2.11 2.42 2.74 3.21 3.8 4.42 5.09
1572.137 5.68 6.19 6.75 7.53 8.36 8.7 8.59 8.5 8.49 8.4
1591.427 8.05 7.47 6.83 6.14 5.44 4.76 4.12 3.6 3.14 2.73
1610.717 2.36 2.05 1.81 1.59 1.3806 1.221 1.1199 1.025 0.9275 0.8634
1630.007 0.8169 0.8128 0.7856 0.7341 0.689 0.59987 0.61624 0.6557 0.6794 0.66124
1649.297 0.576324 0.60931 0.6775 0.6175 0.58662 0.61234 0.61812 0.59344 0.5336 0.5267
1668.587 0.576035 0.58033 0.5806 0.5957 0.573229 0.578568 0.63599 0.7101 0.7475 0.7679
1687.877 0.7881 0.8175 0.8343 0.9382 1.0306 1.01 1.0851 1.1676 1.2429 1.3348
1707.167 1.3856 1.4901 1.59 1.66 1.82 2.02 2.19 2.37 2.67 3.03
1726.457 3.38 3.74 4.22 4.74 5.35 5.96 6.54 7.22 7.94 8.71
1745.747 9.58 10.51 11.53 12.65 13.69 14.71 15.53 16.09 16.52 16.93
1765.037 17.52 18.23 18.5 17.96 17.16 16.73 16.29 15.51 14.3 12.77
1784.327 11.23 9.82 8.62 7.63 6.73 5.93 5.19 4.46 3.84 3.31
1803.617 2.8 2.39 2.06 1.76 1.5255 1.3495 1.2191 1.1096 1.0407 0.9762
1822.907 0.8836 0.8273 0.8077 0.7602 0.7137 0.6944 0.66007 0.61016 0.571408 0.5462
1842.197 0.5329 0.5239 0.5308 0.5382 0.5012 0.4903 0.5136 0.5061 0.4843 0.4804
1861.487 0.5007 0.5117 0.469 0.417 0.416 0.427 0.453 0.44 0.422 0.455
1880.777 0.459 0.454 0.47 0.4927 0.4925 0.4812 0.468 0.442 0.437 0.455
1900.067 0.447 0.468 0.5223 0.5127 0.506 0.4863 0.442 0.417 0.431 0.4936
1919.357 0.4942 0.43 0.412 0.432 0.451 0.4853 0.4759 0.451 0.452 0.4815
1938.647 0.47 0.4732 0.4897 0.4838 0.4828 0.4926 0.4761 0.431 0.459 0.4738
1957.937 0.456 0.41 0.402 0.443 0.451 0.462 0.436 0.447 0.4818 0.459
1977.227 0.458 0.5033 0.5383 0.5036 0.446 0.426 0.429 0.4726 0.4992 0.5184
1996.517 0.5394 0.5002 0.469 0.468 0.462 0.421 0.416 0.434 0.422 0.412
2015.807 0.426 0.429 0.412 0.388 0.38 0.377 0.386 0.387 0.359 0.363
2035.097 0.387 0.377 0.395 0.434 0.437 0.422 0.398 0.395 0.42 0.428
2054.387 0.438 0.418 0.364 0.338 0.337 0.349 0.351 0.361 0.357 0.339
2073.677 0.391 0.421 0.382 0.392 0.399 0.398 0.373 0.364 0.358 0.367
2092.967 0.378 0.344 0.378 0.397 0.338 0.356 0.382 0.406 0.41 0.377
2112.257 0.358 0.342 0.328 0.293 0.281 0.315 0.353 0.358 0.358 0.352
2131.547 0.326 0.353 0.425 0.428 0.365 0.363 0.429 0.447 0.399 0.376
2150.837 0.391 0.416 0.446 0.435 0.421 0.372 0.318 0.352 0.375 0.36
2170.127 0.403 0.416 0.376 0.339 0.336 0.419 0.437 0.401 0.39 0.438
2189.417 0.439 0.38 0.385 0.431 0.442 0.399 0.365 0.374 0.41 0.381
2208.707 0.333 0.344 0.392 0.379 0.351 0.319 0.322 0.345 0.358 0.415
2227.997 0.385 0.315 0.309 0.332 0.372 0.386 0.365 0.382 0.381 0.37
2247.287 0.389 0.373 0.332 0.34 0.343 0.359 0.384 0.358 0.341 0.325
2266.577 0.29 0.291 0.349 0.348 0.327 0.338 0.347 0.339 0.336 0.35
2285.868 0.33 0.339 0.355 0.361 0.363 0.332 0.304 0.293 0.318 0.329
2305.158 0.325 0.274 0.235 0.268 0.277 0.27 0.279 0.298 0.287 0.291
2324.448 0.256 0.237 0.28 0.3 0.341 0.346 0.309 0.31 0.319 0.302
2343.738 0.282 0.297 0.264 0.264 0.314 0.319 0.271 0.19 0.217 0.246
2363.028 0.218 0.219 0.233 0.262 0.298 0.301 0.279 0.31 0.288 0.289
2382.318 0.39 0.413 0.381 0.371 0.385 0.406 0.395 0.377 0.377 0.323
2401.608 0.318 0.406 0.389 0.334 0.324 0.31 0.322 0.371 0.359 0.3
2420.898 0.34 0.364 0.365 0.398 0.408 0.392 0.403 0.415 0.396 0.366
2440.188 0.41 0.442 0.38 0.407 0.413 0.368 0.351 0.39 0.391 0.347
2459.478 0.388 0.446 0.407 0.36 0.37 0.35 0.348 0.349 0.34 0.346
2478.768 0.342 0.322 0.324 0.316 0.235 0.29 0.369 0.353 0.34 0.316
2498.058 0.325 0.355 0.347 0.363 0.385 0.364 0.334 0.287 0.316 0.349
2517.348 0.314 0.33 0.342 0.315 0.334 0.301 0.29 0.3 0.293 0.331
2536.638 0.298 0.279 0.334 0.345 0.309 0.304 0.34 0.319 0.29 0.335
2555.928 0.338 0.341 0.378 0.373 0.338 0.375 0.392 0.342 0.359 0.382
2575.218 0.339 0.303 0.303 0.342 0.369 0.35 0.344 0.357 0.357 0.375
2594.508 0.399 0.36 0.302 0.313 0.352 0.333 0.35 0.409 0.386 0.334
2613.798 0.353 0.368 0.327 0.309 0.382 0.359 0.362 0.432 0.436 0.357
2633.088 0.319 0.392 0.363 0.33 0.33 0.324 0.337 0.361 0.365 0.375
2652.378 0.371 0.329 0.337 0.355 0.383 0.349 0.303 0.339 0.3 0.272
2671.668 0.312 0.337 0.404 0.39 0.342 0.342 0.317 0.323 0.334 0.349
2690.958 0.374 0.339 0.32 0.354 0.351 0.327 0.358 0.33 0.301 0.324
2710.248 0.355 0.387 0.354 0.296 0.332 0.382 0.379 0.358 0.269 0.255
2729.538 0.328 0.344 0.289 0.306 0.361 0.339 0.287 0.221 0.202 0.226
2748.828 0.262 0.313 0.307 0.236 0.266 0.324 0.301 0.292 0.28 0.3
2768.118 0.314 0.329 0.347 0.281 0.294 0.338 0.322 0.339 0.309 0.35
2787.408 0.402 0.367 0.357 0.334 0.359 0.389 0.341 0.295 0.316 0.361
2806.698 0.313 0.296 0.32 0.376 0.378 0.341 0.398 0.356 0.303 0.296
2825.988 0.252 0.3 0.382 0.408 0.37 0.365 0.403 0.383 0.395 0.451
2845.278 0.448 0.395 0.387 0.395 0.407 0.428 0.41 0.405 0.418 0.359
2864.568 0.388 0.4805 0.436 0.287 0.263 0.375 0.353 0.412 0.449 0.356
2883.858 0.378 0.454 0.4707 0.45 0.449 0.4 0.269 0.282 0.399 0.398
2903.148 0.37 0.348 0.331 0.301 0.383 0.396 0.315 0.33 0.334 0.323
2922.438 0.264 0.315 0.433 0.414 0.406 0.426 0.382 0.338 0.371 0.404
2941.728 0.405 0.406 0.341 0.324 0.273 0.288 0.415 0.325 0.193 0.199
2961.018 0.202 0.255 0.346 0.304 0.268 0.308 0.413 0.419 0.261 0.223
2980.308 0.192 0.203 0.272 0.269 0.304 0.301 0.322 0.38 0.315 0.255
2999.598 0.294 0.339 0.355 0.282 0.242 0.291 0.293 0.219 0.224 0.328
3018.888 0.393 0.429 0.384 0.318 0.263 0.307 0.378 0.353 0.396 0.359
3038.178 0.281 0.238 0.27 0.241 0.21 0.326 0.309 0.242 0.262 0.297
3057.468 0.28 0.279 0.33 0.292 0.298 0.359 0.314 0.299 0.317 0.312
3076.758 0.316 0.302 0.343 0.367 0.285 0.263 0.247 0.255 0.342 0.309
3096.048 0.259 0.282 0.315 0.316 0.296 0.3 0.243 0.216 0.171 0.193
3115.338 0.325 0.293 0.165 0.251 0.371 0.305 0.245 0.208 0.188 0.284
3134.628 0.343 0.363 0.396 0.337 0.318 0.426 0.451 0.365 0.332 0.326
3153.918 0.29 0.283 0.372 0.437 0.381 0.337 0.381 0.417 0.379 0.305
3173.208 0.242 0.283 0.299 0.282 0.251 0.279 0.345 0.3 0.25 0.228
3192.498 0.275 0.284 0.219 0.241 0.293 0.233 0.192 0.191 0.208 0.236
3211.788 0.2 0.171 0.125 0.091 0.135 0.124 0.157 0.177 0.208 0.231
3231.078 0.212 0.291 0.285 0.239 0.302 0.295 0.23 0.25 0.205 0.201
3250.368 0.299 0.357 0.212 0.154 0.302 0.257 0.2 0.205 0.233 0.178
3269.658 0.245 0.422 0.404 0.339 0.315 0.219 0.082 0.142 0.249 0.268
3288.948 0.247 0.233 0.188 0.128 0.222 0.262 0.198 0.208 0.218 0.18
3308.238 0.23 0.356 0.305 0.231 0.256 0.192 0.171 0.261 0.277 0.234
3327.528 0.254 0.33 0.27 0.25 0.333 0.325 0.216 0.209 0.304 0.287
3346.818 0.232 0.232 0.315 0.338 0.302 0.297 0.278 0.27 0.376 0.448
3366.108 0.383 0.311 0.306 0.355 0.372 0.314 0.314 0.41 0.56334 0.56018
3385.398 0.4958 0.551 0.59302 0.7454 0.767 0.7441 0.8021 0.8444 0.9928 1.1606
3404.688 1.1994 1.1708 1.2874 1.4932 1.64 1.74 1.85 1.98 2.03 2.17
3423.978 2.46 2.53 2.55 2.7 2.9 3.04 3.03 2.99 2.91 2.9
3443.269 3.05 3.08 2.88 2.59 2.51 2.45 2.23 2.03 1.77 1.5201
3462.559 1.3198 1.1863 1.1506 0.9942 0.8937 0.9231 0.8686 0.7838 0.742 0.7749
3481.849 0.7353 0.64038 0.6232 0.7031 0.8599 0.9426 0.9901 0.9932 1.0082 1.0415
3501.139 0.9676 1.0475 1.1905 1.2893 1.4214 1.5049 1.5434 1.62 1.76 1.89
3520.429 2.03 2.12 2.16 2.24 2.34 2.45 2.45 2.42 2.45 2.45
3539.719 2.53 2.78 3.13 3.48 3.76 4.02 4.26 4.45 4.54 4.55
3559.009 4.77 4.97 4.7 3.99 3.47 3.32 2.92 2.42 1.9 1.388
3578.299 1.1343 0.9715 0.7479 0.5506 0.499 0.4833 0.391 0.439 0.463 0.352
3597.589 0.381 0.309 0.174 0.166 0.211 0.202 0.167 0.143 0.104 0.192
3616.879 0.262 0.18 0.113 0.215 0.34 0.233 0.19 0.353 0.362 0.248
3636.169 0.186 0.223 0.199 0.129 0.139 0.108 0.108 0.316 0.421 0.309
3655.459 0.251 0.306 0.215 0.168 0.204 0.239 0.268 0.192 0.142 0.064
3674.749 0.054 0.072 0.039 0.094 0.24 0.247 0.255 0.335 0.268 0.224
3694.039 0.233 0.22 0.24 0.241 0.208 0.255 0.277 0.263 0.198 0.221
3713.329 0.231 0.215 0.267 0.298 0.309 0.268 0.321 0.326 0.304 0.26
3732.619 0.264 0.329 0.269 0.258 0.235 0.176 0.223 0.228 0.283 0.275
3751.909 0.292 0.249 0.12 0.14 0.172 0.219 0.225 0.107 0 0.008
3771.199 0.086 0.072 0.117 0.267 0.246 0.201 0.188 0.239 0.185 0.103
3790.489 0.194 0.246 0.313 0.379 0.366 0.252 0.109 0.154 0.161 0.121
3809.779 0.186 0.208 0.184 0.207 0.193 0.219 0.27 0.267 0.284 0.239
3829.069 0.292 0.308 0.263 0.295 0.338 0.335 0.201 0.244 0.29 0.142
3848.359 0.175 0.215 0.16 0.127 0.143 0.125 0.141 0.2 0.253 0.274
3867.649 0.157 0.16 0.186 0.165 0.234 0.179 0.115 0.186 0.133 0.088
3886.939 0.138 0.178 0.211 0.147 0.116 0.123 0.074 0.166 0.25 0.291
3906.229 0.209 0.09 0.128 0.232 0.347 0.302 0.297 0.301 0.231 0.139
3925.519 0.189 0.298 0.275 0.18 0.193 0.179 0.146 0.219 0.249 0.191
3944.809 0.091 0.145 0.181 0.14 0.09 0.122 0.19 0.234 0.262 0.246
3964.099 0.182 0.209 0.224 0.257 0.243 0.127 0.242 0.234 0.161 0.23
3983.389 0.222 0.114 0.125 0.334 0.41 0.421 0.308 0.245 0.343 0.259
##END=
