##TITLE=Chloral hydrate
##JCAMP-DX=4.24
##DATA TYPE=INFRARED SPECTRUM
##ORIGIN=NIST Mass Spectrometry Data Center
##OWNER=NIST Standard Reference Data Program
Collection (C) 2018 copyright by the U.S. Secretary of Commerce
on behalf of the United States of America. All rights reserved.
##CAS REGISTRY NO=302-17-0
##MOLFORM=C 2 H 3 Cl 3 O 2
##$NIST SOURCE=MSDC-IR
##SPECTROMETER/DATA SYSTEM=HP-GC/MS/IRD
##STATE=gas
##XUNITS=1/CM
##YUNITS=ABSORBANCE
##XFACTOR=1.0
##YFACTOR=0.000002800
##DELTAX=4.0
##FIRSTX=550.0
##LASTX=3846.0
##FIRSTY=0.000482
##MAXX=3846
##MINX=550
##MAXY=0.028
##MINY=0
##NPOINTS=825
##XYDATA=(X++(Y..Y))
550.0 172 230 166 198 188 169 196 239 266 315
590.0 424 633 915 1352 1894 2491 3106 3576 3756 3576
630.0 3085 2552 2013 1497 1209 1130 1132 1217 1303 1353
670.0 1421 1420 1401 1366 1331 1322 1307 1312 1360 1481
710.0 1712 2056 2484 2954 3434 3822 4029 3954 3628 3195
750.0 2720 2254 1937 1848 1851 1897 2007 2108 2185 2260
790.0 2277 2218 2124 2036 1914 1773 1675 1623 1606 1670
830.0 1886 2275 2709 3117 3427 3507 3323 2864 2293 1752
870.0 1252 890 704 608 552 507 496 518 528 540
910.0 565 589 602 591 569 542 504 455 430 400
950.0 413 447 511 690 980 1298 1549 1805 2122 2008
990.0 1734 1684 1543 1446 1552 1772 1981 2150 2207 2107
1030.0 1851 1522 1161 787 520 382 317 263 193 141
1070.0 126 127 94 71 78 66 31 27 16 8
1110.0 9 3 14 31 37 18 8 24 23 7
1150.0 0 5 27 63 61 33 38 44 35 36
1190.0 40 38 48 34 24 39 39 32 35 40
1230.0 55 59 56 57 63 61 62 64 51 48
1270.0 48 55 66 74 76 72 76 69 49 51
1310.0 61 62 71 72 83 124 163 236 356 409
1350.0 481 645 552 401 379 281 169 107 87 66
1390.0 61 64 67 64 62 62 60 60 58 56
1430.0 46 46 42 25 29 36 39 42 42 38
1470.0 40 51 51 49 42 47 54 47 46 53
1510.0 54 48 54 54 51 48 36 35 47 50
1550.0 49 49 58 56 51 55 50 60 54 57
1590.0 69 64 66 68 66 75 72 64 75 88
1630.0 92 97 97 99 111 109 104 105 108 112
1670.0 108 106 115 133 153 165 185 208 235 267
1710.0 292 320 351 376 403 439 497 575 694 945
1750.0 1455 2414 3922 5679 7012 8342 10000 9193 7296 6150
1790.0 3924 1810 820 489 379 324 303 301 294 275
1830.0 257 249 233 198 174 167 150 132 121 107
1870.0 97 92 88 85 85 76 68 66 57 47
1910.0 56 70 67 63 70 68 64 67 71 69
1950.0 63 71 79 87 94 102 115 113 100 89
1990.0 79 70 79 83 83 86 89 91 85 75
2030.0 69 69 72 73 67 57 49 46 46 64
2070.0 75 62 60 59 49 47 47 42 35 38
2110.0 38 37 42 49 45 35 37 36 37 37
2150.0 39 35 30 27 25 25 27 40 46 48
2190.0 51 39 31 39 41 41 36 38 45 42
2230.0 35 36 38 44 42 36 41 43 40 36
2270.0 34 31 37 41 36 36 43 45 44 39
2310.0 34 35 37 42 43 42 44 42 56 61
2350.0 51 43 40 56 58 55 65 62 53 40
2390.0 32 35 40 38 31 35 43 43 37 36
2430.0 33 38 45 50 54 37 37 39 26 35
2470.0 51 49 35 30 38 41 44 51 59 48
2510.0 37 41 39 42 48 44 37 34 38 53
2550.0 66 57 41 45 47 39 29 26 36 37
2590.0 32 34 43 51 54 47 50 59 46 41
2630.0 56 67 58 55 61 63 65 72 64 51
2670.0 76 104 127 137 140 137 126 105 84 71
2710.0 71 68 58 59 65 69 63 56 59 64
2750.0 70 74 77 77 91 116 128 160 199 213
2790.0 231 231 221 230 229 227 235 240 264 307
2830.0 387 529 783 1096 1211 1457 1805 1449 1125 1002
2870.0 696 436 311 255 228 236 234 239 234 225
2910.0 222 211 198 190 156 114 99 87 79 73
2950.0 46 36 61 69 42 39 58 44 38 46
2990.0 33 13 16 28 39 59 53 49 59 56
3030.0 57 60 72 73 74 65 51 74 98 85
3070.0 71 72 70 65 59 53 56 71 71 74
3110.0 69 46 36 44 49 61 55 50 76 75
3150.0 57 48 37 41 59 50 37 48 60 58
3190.0 47 44 55 45 48 44 45 61 69 67
3230.0 55 64 55 40 44 53 51 34 22 36
3270.0 58 69 63 49 32 44 61 49 46 63
3310.0 72 65 67 53 40 48 54 58 54 51
3350.0 51 42 48 69 77 60 50 61 72 49
3390.0 29 43 67 76 62 64 58 58 70 59
3430.0 72 67 51 60 71 79 85 90 96 112
3470.0 108 84 81 92 107 93 91 109 116 152
3510.0 214 269 300 344 381 390 371 318 261 209
3550.0 142 116 132 134 108 74 71 83 76 74
3590.0 78 67 75 92 97 98 85 84 84 54
3630.0 68 79 69 83 81 64 62 62 66 90
3670.0 99 97 107 111 100 90 86 75 59 80
3710.0 99 74 70 96 108 102 68 46 77 75
3750.0 73 76 56 85 106 77 73 75 60 61
3790.0 65 71 73 78 93 100 84 73 61 50
3830.0 51 71 91 73 53
##END=
