##TITLE=4-Acetamidobutyric acid
##JCAMP-DX=4.24
##DATA TYPE=INFRARED SPECTRUM
##ORIGIN=EPA-IR VAPOR PHASE LIBRARY
##OWNER=SRD/NIST
Collection (C) 2018 copyright by the U.S. Secretary of Commerce
on behalf of the United States of America. All rights reserved.
##CAS REGISTRY NO=3025-96-5
##MOLFORM=C 6 H 11 N O 3
##$NIST SOURCE=MSDC-IR
##STATE=gas
##XUNITS=1/CM
##YUNITS=ABSORBANCE
##XFACTOR=1.
##YFACTOR=0.001
##DELTAX=1.929
##FIRSTX=549.8
##LASTX=4000.8
##FIRSTY=3.978
##MAXX=4000.75
##MINX=549.766
##MAXY=0.024248
##MINY=0
##NPOINTS=1790
##XYDATA=(X++(Y..Y))
549.766 3.978 4.118 4.318 4.318 4.348 4.168 3.898 4.118 4.338 4.338
569.056 4.338 4.278 4.168 4.158 4.168 3.998 3.868 3.938 4.118 4.258
588.346 4.268 4.248 4.328 4.448 4.428 4.548 4.638 4.568 4.598 4.648
607.636 4.668 4.638 4.548 4.628 4.658 4.638 4.698 4.658 4.598 4.528
626.926 4.478 4.478 4.428 4.428 4.438 4.338 4.168 4.028 3.968 3.818
646.216 3.578 3.448 3.198 2.928 2.858 2.598 2.508 2.528 2.318 2.268
665.506 2.218 2.138 2.178 2.198 2.168 2.078 2.038 2.038 1.958 1.928
684.796 1.898 1.848 1.798 1.708 1.668 1.658 1.698 1.648 1.538 1.538
704.086 1.508 1.518 1.538 1.578 1.618 1.578 1.568 1.588 1.558 1.538
723.376 1.528 1.448 1.408 1.488 1.548 1.528 1.578 1.618 1.538 1.538
742.666 1.598 1.598 1.648 1.728 1.728 1.678 1.658 1.668 1.688 1.658
761.956 1.628 1.668 1.618 1.558 1.508 1.458 1.448 1.428 1.448 1.398
781.246 1.288 1.248 1.228 1.298 1.318 1.208 1.1297 1.1212 1.1358 1.1545
800.536 1.182 1.183 1.218 1.278 1.258 1.288 1.348 1.328 1.308 1.338
819.826 1.378 1.368 1.348 1.338 1.348 1.348 1.418 1.368 1.298 1.308
839.116 1.368 1.328 1.298 1.428 1.448 1.378 1.348 1.388 1.388 1.388
858.406 1.448 1.438 1.448 1.498 1.458 1.478 1.498 1.488 1.488 1.418
877.696 1.408 1.428 1.358 1.308 1.268 1.248 1.208 1.125 1.1017 1.1259
896.986 1.1704 1.1047 1.0744 1.0966 1.0298 1.0573 1.084 1.0169 1.0021 1.0057
916.276 0.9846 1.0361 1.0775 1.0729 1.1001 1.0957 1.11 1.1442 1.1974 1.1958
935.566 1.198 1.228 1.258 1.338 1.398 1.448 1.458 1.498 1.528 1.518
954.856 1.578 1.658 1.658 1.668 1.708 1.658 1.708 1.728 1.668 1.688
974.146 1.738 1.768 1.758 1.748 1.728 1.708 1.648 1.608 1.618 1.638
993.436 1.638 1.588 1.578 1.568 1.558 1.588 1.638 1.708 1.698 1.698
1012.726 1.778 1.848 1.898 1.958 2.098 2.248 2.298 2.278 2.378 2.508
1032.016 2.598 2.688 2.828 2.938 2.978 3.098 3.188 3.308 3.538 3.838
1051.306 4.018 4.118 4.268 4.418 4.498 4.598 4.778 4.908 5.008 5.128
1070.596 5.258 5.338 5.438 5.558 5.638 5.678 5.798 5.948 6.118 6.308
1089.886 6.508 6.798 7.138 7.428 7.678 7.968 8.228 8.428 8.608 8.768
1109.176 8.998 9.208 9.398 9.668 9.998 10.378 10.838 11.358 11.948 12.528
1128.467 13.048 13.478 13.738 13.868 13.888 13.668 13.268 12.718 12.028 11.298
1147.757 10.558 9.838 9.178 8.588 8.028 7.518 7.098 6.668 6.268 5.978
1167.047 5.648 5.248 4.948 4.738 4.558 4.458 4.248 3.978 3.848 3.848
1186.337 4.058 3.968 3.808 4.068 4.198 4.158 4.328 4.498 4.618 4.648
1205.627 4.728 4.738 4.828 5.088 5.338 5.498 5.658 5.848 6.008 6.298
1224.917 6.618 6.908 7.228 7.618 8.108 8.588 9.058 9.548 10.018 10.508
1244.207 10.898 11.168 11.318 11.338 11.208 10.868 10.498 10.108 9.568 8.988
1263.497 8.458 7.958 7.548 7.248 6.958 6.678 6.448 6.248 6.098 5.988
1282.787 5.858 5.718 5.548 5.408 5.248 4.958 4.768 4.658 4.448 4.228
1302.077 4.038 3.868 3.728 3.598 3.528 3.438 3.378 3.328 3.228 3.158
1321.367 3.088 3.028 2.928 2.838 2.808 2.788 2.808 2.878 2.978 3.108
1340.657 3.218 3.348 3.528 3.758 4.038 4.378 4.758 5.148 5.598 6.098
1359.947 6.588 6.948 7.308 7.628 7.788 7.868 7.818 7.618 7.398 7.188
1379.237 6.968 6.688 6.468 6.278 6.018 5.778 5.558 5.308 5.048 4.838
1398.527 4.588 4.318 4.128 3.958 3.768 3.668 3.628 3.538 3.488 3.528
1417.817 3.578 3.628 3.648 3.718 3.868 4.078 4.258 4.428 4.658 4.898
1437.107 5.158 5.398 5.648 5.868 6.028 6.168 6.278 6.348 6.378 6.368
1456.397 6.348 6.368 6.408 6.478 6.598 6.748 6.988 7.328 7.728 8.098
1475.687 8.538 9.138 9.708 10.318 11.018 11.748 12.488 13.228 13.958 14.578
1494.977 14.998 15.228 15.368 15.378 15.108 14.608 13.948 13.218 12.368 11.438
1514.267 10.548 9.648 8.798 7.988 7.178 6.528 5.898 5.348 4.908 4.438
1533.557 4.068 3.758 3.428 3.128 2.878 2.668 2.538 2.388 2.228 2.138
1552.847 2.088 1.948 1.828 1.808 1.788 1.718 1.678 1.658 1.588 1.538
1572.137 1.538 1.508 1.448 1.398 1.378 1.318 1.248 1.228 1.1759 1.1423
1591.427 1.0978 1.0368 1.0137 0.998 0.9633 0.9292 0.929 0.9068 0.8885 0.9107
1610.717 0.9363 0.9116 0.8902 0.9171 0.9373 0.9443 0.9733 1.0108 1.0119 1.0179
1630.007 1.0237 1.0463 1.101 1.111 1.1327 1.218 1.268 1.318 1.368 1.458
1649.297 1.528 1.608 1.698 1.768 1.848 1.938 2.008 2.138 2.258 2.398
1668.587 2.568 2.688 2.838 3.038 3.218 3.418 3.688 4.028 4.418 4.868
1687.877 5.358 5.948 6.688 7.548 8.608 9.848 11.258 13.028 14.868 16.918
1707.167 18.918 20.788 22.338 23.448 24.088 24.248 23.988 23.298 22.048 20.428
1726.457 18.698 16.988 15.398 14.078 12.898 11.958 11.328 10.868 10.648 10.618
1745.747 10.768 11.088 11.558 12.168 12.828 13.578 14.458 15.358 16.278 17.208
1765.037 18.138 18.978 19.668 20.128 20.448 20.578 20.418 20.048 19.468 18.628
1784.327 17.588 16.418 15.178 13.878 12.608 11.408 10.308 9.318 8.378 7.478
1803.617 6.708 5.988 5.348 4.768 4.218 3.718 3.268 2.918 2.628 2.338
1822.907 2.078 1.838 1.668 1.518 1.388 1.288 1.1627 1.0561 1.0117 0.9495
1842.197 0.8916 0.855 0.7935 0.7426 0.6959 0.6661 0.6694 0.6444 0.5935 0.5942
1861.487 0.6194 0.5949 0.5569 0.5234 0.5178 0.5127 0.5021 0.487 0.478 0.4802
1880.777 0.4894 0.492 0.491 0.4836 0.4302 0.4102 0.4137 0.4019 0.3966 0.4217
1900.067 0.4239 0.3832 0.3885 0.405 0.389 0.3877 0.4041 0.4076 0.391 0.3615
1919.357 0.342 0.3232 0.3344 0.3623 0.3761 0.3858 0.3715 0.3708 0.3665 0.3448
1938.647 0.3429 0.3551 0.3639 0.37 0.3648 0.3503 0.29466 0.28881 0.3186 0.3152
1957.937 0.3442 0.3462 0.3297 0.3345 0.3292 0.3451 0.367 0.3394 0.3111 0.3124
1977.227 0.3219 0.316 0.3434 0.3733 0.3509 0.3332 0.3314 0.3215 0.3069 0.3248
1996.517 0.3505 0.3473 0.301 0.27793 0.29513 0.29789 0.28799 0.28263 0.27924 0.26937
2015.807 0.27512 0.2753 0.25302 0.24595 0.25504 0.2207 0.22194 0.26069 0.25225 0.24979
2035.097 0.23606 0.200734 0.201917 0.21054 0.22088 0.2352 0.23993 0.25649 0.26456 0.22488
2054.387 0.22017 0.236 0.207011 0.19385 0.19644 0.207205 0.19451 0.1741 0.200676 0.19397
2073.677 0.19548 0.23604 0.22028 0.22629 0.22081 0.1806 0.200141 0.19278 0.1817 0.19392
2092.967 0.1695 0.1524 0.1781 0.200561 0.185 0.1624 0.1469 0.1709 0.1959 0.21133
2112.257 0.21401 0.203746 0.20469 0.1868 0.1639 0.1579 0.1588 0.1665 0.1694 0.19158
2131.547 0.21601 0.1828 0.1809 0.2037 0.1816 0.1547 0.1482 0.1591 0.1775 0.18876
2150.837 0.1764 0.1314 0.1405 0.1702 0.1608 0.1498 0.1764 0.21987 0.205854 0.19418
2170.127 0.18907 0.1405 0.1405 0.1757 0.2233 0.23986 0.207139 0.199751 0.198778 0.1794
2189.417 0.1624 0.1867 0.18 0.1831 0.22321 0.2282 0.22078 0.20849 0.197008 0.182
2208.707 0.19105 0.21214 0.18947 0.202556 0.20927 0.198982 0.21518 0.20823 0.20843 0.19329
2227.997 0.1641 0.1721 0.202899 0.205247 0.200426 0.1768 0.1548 0.1785 0.197712 0.1783
2247.287 0.1572 0.1765 0.206223 0.19031 0.19586 0.19062 0.1473 0.1549 0.1769 0.19233
2266.577 0.19646 0.1824 0.1623 0.1655 0.1434 0.1361 0.1592 0.1551 0.1521 0.1762
2285.868 0.1842 0.1753 0.1823 0.19601 0.185 0.1702 0.1663 0.1742 0.199134 0.21584
2305.158 0.1718 0.165 0.21337 0.200094 0.1841 0.168 0.1377 0.1205 0.1299 0.1131
2324.448 0.1192 0.1539 0.1334 0.1236 0.152 0.19384 0.202564 0.19323 0.1687 0.1412
2343.738 0.1647 0.1561 0.137 0.1277 0.1271 0.1528 0.1329 0.097 0.134 0.1404
2363.028 0.1124 0.086 0.1061 0.1601 0.1562 0.1676 0.201533 0.19231 0.1477 0.1207
2382.318 0.1024 0.1113 0.1344 0.1422 0.158 0.1111 0.1131 0.1522 0.1208 0.1501
2401.608 0.1496 0.095 0.1216 0.1425 0.136 0.1365 0.113 0.059 0.056 0.097
2420.898 0.119 0.1416 0.1331 0.1451 0.1772 0.1649 0.1167 0.095 0.087 0.087
2440.188 0.1084 0.112 0.098 0.1047 0.1303 0.1243 0.1271 0.1225 0.086 0.069
2459.478 0.079 0.068 0.053 0.1089 0.1156 0.1176 0.1263 0.095 0.041 0.028
2478.768 0.08 0.092 0.071 0.054 0.073 0.088 0.1372 0.1751 0.1303 0.083
2498.058 0.065 0.057 0.064 0.075 0.041 0.038 0.048 0.033 0.053 0.055
2517.348 0.03 0.038 0.089 0.1102 0.095 0.081 0.072 0.078 0.043 0.007
2536.638 0.023 0.025 0.014 0.021 0.045 0.063 0.065 0.057 0.031 0.046
2555.928 0.09 0.062 0.03 0.062 0.049 0.016 0.048 0.09 0.045 0.04
2575.218 0.062 0.008 0.023 0.035 0.025 0.031 0.027 0 0.031 0.066
2594.508 0.087 0.1122 0.073 0.062 0.056 0.055 0.1079 0.1102 0.062 0.091
2613.798 0.035 0.029 0.053 0.022 0.053 0.069 0.055 0.023 0.017 0.025
2633.088 0.04 0.027 0.026 0.095 0.1087 0.107 0.0995 0.07 0.066 0.057
2652.378 0.064 0.049 0.015 0.028 0.059 0.039 0.07 0.118 0.1353 0.1322
2671.668 0.1197 0.1404 0.1355 0.1455 0.1539 0.1291 0.1078 0.078 0.061 0.1108
2690.958 0.1656 0.1424 0.1201 0.1339 0.1537 0.1711 0.19568 0.186 0.138 0.1255
2710.248 0.1206 0.1011 0.052 0.067 0.1671 0.18979 0.199837 0.203125 0.15 0.1408
2729.538 0.1513 0.164 0.1693 0.1485 0.1257 0.1582 0.1632 0.1382 0.1314 0.1364
2748.828 0.1521 0.125 0.1228 0.101 0.091 0.1608 0.1714 0.1322 0.096 0.076
2768.118 0.083 0.1091 0.101 0.081 0.073 0.049 0.085 0.1203 0.1168 0.094
2787.408 0.1271 0.21973 0.22838 0.201276 0.1822 0.1544 0.1778 0.1876 0.1873 0.2154
2806.698 0.1868 0.19631 0.24721 0.207392 0.2118 0.24882 0.26713 0.28315 0.27483 0.24047
2825.988 0.28697 0.3569 0.3644 0.3398 0.3651 0.4292 0.4414 0.4563 0.4825 0.5533
2845.278 0.608 0.6115 0.6597 0.7591 0.8078 0.864 0.914 0.9437 1.007 1.0456
2864.568 1.1241 1.218 1.258 1.378 1.438 1.418 1.458 1.488 1.548 1.598
2883.858 1.608 1.648 1.698 1.728 1.698 1.738 1.768 1.788 1.828 1.868
2903.148 1.948 2.058 2.108 2.138 2.198 2.348 2.448 2.588 2.858 3.068
2922.438 3.218 3.338 3.558 3.838 4.058 4.228 4.318 4.448 4.558 4.638
2941.728 4.668 4.638 4.588 4.538 4.538 4.458 4.358 4.318 4.188 4.058
2961.018 3.938 3.788 3.638 3.518 3.488 3.458 3.298 3.098 2.938 2.798
2980.308 2.658 2.508 2.328 2.178 2.048 1.958 1.858 1.678 1.528 1.448
2999.598 1.298 1.1804 1.1735 1.1006 0.9782 0.9756 0.9816 0.9109 0.8669 0.8595
3018.888 0.8246 0.7671 0.7589 0.8165 0.7466 0.675 0.7194 0.7641 0.763 0.7403
3038.178 0.7461 0.6799 0.6493 0.6555 0.6361 0.5723 0.5669 0.5653 0.4882 0.4797
3057.468 0.4471 0.4363 0.4627 0.5014 0.5069 0.4747 0.5456 0.5417 0.4951 0.4853
3076.758 0.4164 0.4096 0.3997 0.3961 0.4274 0.3613 0.3358 0.3817 0.3868 0.3933
3096.048 0.4108 0.3812 0.3673 0.3265 0.27226 0.3211 0.3655 0.3141 0.27617 0.24437
3115.338 0.29344 0.3389 0.26726 0.1951 0.21102 0.28362 0.3535 0.3097 0.19682 0.18843
3134.628 0.1847 0.206022 0.24499 0.24384 0.26119 0.25552 0.29609 0.3565 0.28656 0.22202
3153.918 0.21898 0.26655 0.23463 0.2198 0.198455 0.1862 0.23868 0.2331 0.1793 0.1546
3173.208 0.24197 0.24404 0.18964 0.19525 0.1756 0.1595 0.1867 0.203976 0.262 0.25036
3192.498 0.1758 0.23777 0.25784 0.202486 0.1597 0.1377 0.19582 0.29147 0.29513 0.23839
3211.788 0.24123 0.24176 0.2357 0.22028 0.1851 0.21777 0.3261 0.2864 0.21917 0.26103
3231.078 0.26043 0.24417 0.29008 0.29754 0.26 0.19435 0.1855 0.22794 0.23372 0.29773
3250.368 0.3663 0.3152 0.28523 0.3098 0.3391 0.3479 0.3027 0.28166 0.28038 0.3063
3269.658 0.3317 0.2994 0.29322 0.27982 0.29053 0.3257 0.3367 0.3307 0.3997 0.4638
3288.948 0.4227 0.419 0.3688 0.3923 0.3911 0.3693 0.4292 0.4672 0.4695 0.4096
3308.238 0.3728 0.4009 0.3724 0.4062 0.4482 0.4414 0.4989 0.4749 0.4315 0.4482
3327.528 0.3798 0.329 0.4333 0.467 0.4636 0.4273 0.4147 0.3937 0.3511 0.4525
3346.818 0.5344 0.4959 0.5444 0.5743 0.5139 0.5372 0.5248 0.5597 0.5636 0.5383
3366.108 0.5537 0.5571 0.5678 0.5632 0.5832 0.5904 0.5432 0.5658 0.6275 0.6267
3385.398 0.6103 0.5521 0.5541 0.6223 0.6796 0.7089 0.7191 0.7466 0.7909 0.8062
3404.688 0.8629 0.8903 0.9257 0.9671 0.9632 1.0366 1.0324 1.0082 1.0968 1.1301
3423.978 1.0681 1.0985 1.1032 1.1351 1.278 1.348 1.318 1.248 1.328 1.398
3443.269 1.398 1.368 1.388 1.518 1.588 1.598 1.588 1.618 1.738 1.848
3462.559 1.948 2.028 2.078 2.028 1.848 1.848 1.848 1.788 1.758 1.608
3481.849 1.498 1.498 1.378 1.298 1.228 1.1162 1.0605 1.0786 1.0579 0.8937
3501.139 0.9246 0.9283 0.8953 0.9124 0.8098 0.7009 0.7489 0.8629 0.8181 0.8293
3520.429 0.9105 0.8238 0.7544 0.7006 0.6858 0.8389 0.9358 0.9195 0.8973 0.8727
3539.719 0.8805 0.9773 1.0803 1.1664 1.218 1.278 1.428 1.638 1.878 2.218
3559.009 2.638 3.138 3.928 4.888 5.868 6.918 7.728 8.058 8.028 7.918
3578.299 7.678 7.188 6.298 5.068 3.848 2.928 2.338 1.968 1.638 1.378
3597.589 1.268 1.1577 1.0172 0.9062 0.8163 0.7084 0.715 0.7561 0.7181 0.6844
3616.879 0.617 0.5348 0.5726 0.6434 0.635 0.5729 0.5188 0.5519 0.5402 0.4721
3636.169 0.5385 0.6448 0.6678 0.5754 0.5242 0.5908 0.593 0.4612 0.4118 0.4752
3655.459 0.4956 0.5091 0.4841 0.4725 0.4619 0.4602 0.4689 0.472 0.4454 0.4018
3674.749 0.4424 0.4869 0.4825 0.5481 0.6007 0.5016 0.4356 0.4392 0.4797 0.4544
3694.039 0.4435 0.4531 0.432 0.4576 0.4398 0.4099 0.3975 0.4239 0.3717 0.3485
3713.329 0.3177 0.25903 0.3163 0.4079 0.4487 0.4582 0.5124 0.492 0.3966 0.3287
3732.619 0.4111 0.4321 0.3317 0.323 0.4125 0.546 0.5056 0.3549 0.335 0.3003
3751.909 0.3194 0.4237 0.4028 0.3379 0.3644 0.3976 0.3155 0.3145 0.3676 0.3301
3771.199 0.3543 0.4313 0.4491 0.4374 0.37 0.3964 0.4724 0.4661 0.4189 0.3639
3790.489 0.3952 0.4063 0.4039 0.4155 0.3827 0.3578 0.4088 0.4499 0.3776 0.29469
3809.779 0.3814 0.4169 0.4125 0.4583 0.5099 0.5054 0.4372 0.403 0.3949 0.4668
3829.069 0.4766 0.4314 0.3744 0.3271 0.4096 0.4476 0.3211 0.26904 0.3534 0.3944
3848.359 0.4097 0.4035 0.4487 0.4824 0.3629 0.3236 0.3962 0.4652 0.4211 0.3394
3867.649 0.26842 0.20849 0.27283 0.4095 0.4315 0.4434 0.4293 0.4276 0.536 0.501
3886.939 0.3573 0.3206 0.3946 0.3212 0.23422 0.27325 0.3722 0.456 0.4329 0.3879
3906.229 0.36 0.4001 0.4018 0.28619 0.27488 0.3417 0.357 0.3767 0.3655 0.3482
3925.519 0.2997 0.26093 0.3148 0.4358 0.4806 0.3747 0.24516 0.2443 0.3343 0.3151
3944.809 0.3529 0.4425 0.512 0.5027 0.3812 0.27072 0.200922 0.27534 0.3603 0.3932
3964.099 0.3744 0.26329 0.26793 0.3846 0.4306 0.3604 0.2851 0.3575 0.4348 0.3639
3983.389 0.3357 0.379 0.4131 0.4315 0.3809 0.352 0.3691 0.384 0.3853 0.3276
##END=
