##TITLE=2,3-Dihydroxybenzoic acid
##JCAMP-DX=4.24
##DATA TYPE=INFRARED SPECTRUM
##ORIGIN=EPA-IR VAPOR PHASE LIBRARY
##OWNER=SRD/NIST
Collection (C) 2018 copyright by the U.S. Secretary of Commerce
on behalf of the United States of America. All rights reserved.
##CAS REGISTRY NO=303-38-8
##MOLFORM=C 7 H 6 O 4
##$NIST SOURCE=MSDC-IR
##STATE=gas
##XUNITS=1/CM
##YUNITS=ABSORBANCE
##XFACTOR=1.
##YFACTOR=0.001
##DELTAX=1.92898
##FIRSTX=549.8
##LASTX=4000.7
##FIRSTY=19.9217
##MAXX=4000.7
##MINX=549.759
##MAXY=0.157502
##MINY=0
##NPOINTS=1790
##XYDATA=(X++(Y..Y))
549.759 19.9217 19.6617 18.6017 17.1217 15.6217 14.8917 14.5817 14.2517 14.4117 15.0817
569.049 15.7817 16.7117 17.9717 19.5917 20.8717 22.3517 24.0617 25.3117 26.5817 27.2917
588.339 26.9817 25.9917 24.5317 22.8317 21.2617 19.8317 18.3217 16.8017 15.4117 14.0517
607.628 12.9917 12.3917 12.1617 12.5817 13.6117 15.2817 16.9317 17.8517 18.3217 18.8117
626.918 18.9717 18.4117 17.9017 17.0317 15.3417 13.0517 11.0317 9.6317 8.8017 8.3417
646.208 7.9217 7.8717 8.3217 8.4617 8.5217 8.9317 9.1817 9.4817 9.8817 10.3117
665.498 10.7917 11.6217 12.0817 12.1117 12.6617 13.2917 13.6917 14.1417 14.6917 15.2117
684.787 16.0517 17.3917 18.9117 21.0017 24.2017 28.2917 33.1517 38.5917 43.5417 47.3717
704.077 49.6617 50.6017 50.6917 49.6717 47.2917 43.5017 38.0317 31.2117 24.1317 18.0817
723.367 14.1217 12.0017 11.1817 11.5317 13.1417 16.0017 19.7617 24.0017 28.3417 32.6117
742.657 36.8417 41.5017 47.8417 57.5917 68.8417 69.2317 56.0717 45.1517 40.4017 36.8717
761.947 33.2017 28.9017 24.1217 19.2017 15.0517 11.9417 9.5317 7.7417 6.5717 5.7817
781.236 5.2117 4.9617 4.7417 4.3017 3.8617 3.5117 3.3817 3.3517 3.2217 3.1217
800.526 3.1817 3.3917 3.4017 3.2717 3.4317 3.5917 3.7117 4.0117 4.3517 4.5317
819.816 4.8417 5.3817 5.8117 6.3417 6.9617 7.4917 7.9317 8.6017 9.1017 9.4217
839.106 9.9417 10.0717 10.1217 10.0917 9.7117 9.3317 8.7117 7.9017 7.1717 6.5317
858.395 5.7317 4.9717 4.3617 3.7317 3.2617 2.9817 2.8317 2.5717 2.4117 2.5317
877.685 2.6017 2.7317 2.7317 2.8217 2.8617 2.7117 2.9717 3.2317 3.4517 3.6617
896.975 3.9117 4.2617 4.3217 4.1317 4.0517 4.0617 4.1217 4.1317 4.1317 4.3717
916.265 4.8517 5.5517 6.2817 7.1717 8.3717 9.6717 10.8617 11.8117 12.5217 13.0117
935.555 13.2617 13.0917 12.4117 11.4917 10.5517 9.3217 7.7617 6.3417 5.3317 4.7017
954.844 4.3217 4.1717 4.1017 3.9117 3.6717 3.4217 3.2117 3.0817 2.9317 2.9417
974.134 2.9117 2.7517 2.6617 2.7317 2.7917 2.8317 2.9117 2.9317 2.9517 2.9817
993.424 2.9917 2.9717 2.9317 2.9817 3.1117 3.2017 3.5217 3.9017 3.9917 4.0617
1012.714 4.2217 4.4917 4.6617 4.6717 4.8417 5.0417 5.3217 5.4517 5.5817 5.8817
1032.003 6.0317 6.4017 6.9917 7.5117 8.1317 8.7917 10.1217 12.1617 13.9417 16.1417
1051.293 19.3717 23.2917 27.6517 31.8417 35.0117 36.6417 37.0817 36.7717 36.7217 36.8617
1070.583 35.8717 33.3617 29.3917 25.0817 21.3317 18.1517 16.2617 15.4217 14.7717 14.4417
1089.873 14.5317 15.0217 16.0617 17.3717 18.8417 21.1517 23.6017 26.3917 29.9317 34.0817
1109.163 38.9517 45.0017 52.4017 60.9017 70.5117 80.8717 92.6017 105.352 117.802 129.812
1128.452 140.242 147.262 149.972 148.612 143.502 135.562 125.482 112.852 97.9017 81.3117
1147.742 65.0017 50.7817 39.9817 33.0617 29.4017 27.3917 26.1217 25.5617 25.4717 25.7217
1167.032 25.5117 24.7317 24.1917 23.9817 23.7017 23.3517 23.5017 24.5617 25.8417 27.5917
1186.322 29.7817 32.0217 34.1217 35.6117 36.6717 37.3817 37.7317 37.4417 36.8717 36.0817
1205.611 35.4717 35.6317 36.5817 38.0217 39.6917 42.1817 45.1817 47.6317 50.0317 52.2917
1224.901 53.3617 54.1217 55.4017 56.8117 58.5617 61.1317 64.0017 67.0217 69.5817 71.7617
1244.191 74.3217 77.2117 80.6317 84.3517 88.0417 92.1317 96.3917 100.192 104.032 107.992
1263.481 111.272 113.332 113.672 112.512 110.152 106.582 101.482 94.5817 86.2817 77.6317
1282.771 69.5417 62.5017 56.8317 51.7717 47.3717 43.7717 40.8817 38.5517 36.4817 34.5617
1302.060 32.9417 31.7617 30.8817 30.2017 29.8817 29.8317 29.8317 30.0817 30.6817 31.5117
1321.350 32.5217 33.6817 34.9717 36.3617 37.8417 39.4517 41.1417 42.8117 44.4617 46.2817
1340.640 48.2817 50.5417 53.3217 56.2617 59.2017 62.0817 64.5117 66.2917 67.4417 67.9417
1359.930 67.7317 66.6917 64.5517 61.3817 57.5017 53.1717 48.9517 45.3517 42.3717 39.9717
1379.219 38.0417 36.6517 35.8117 35.6017 36.0417 36.6917 37.4117 38.2317 38.9017 39.2417
1398.509 39.3817 39.2017 38.7017 37.8217 36.4517 34.7117 32.7417 30.5917 28.3917 26.2217
1417.799 24.1217 21.7617 19.3417 17.2817 15.5217 14.1817 13.2017 12.5017 12.0817 12.1117
1437.089 12.3117 12.4917 13.1517 14.2717 15.8117 17.9817 20.9517 24.7817 29.7217 35.9317
1456.378 43.7417 52.6717 62.2417 72.6517 83.1217 92.9317 101.052 107.312 111.602 113.692
1475.668 113.282 110.322 104.662 96.4117 86.1817 75.0817 64.1217 54.0917 45.3517 38.1417
1494.958 32.5017 27.9017 23.9617 20.6517 17.8817 15.7717 14.1317 12.4017 10.8317 9.5417
1514.248 8.4817 7.7217 7.0817 6.7117 6.2617 5.7217 5.4717 5.2117 4.8917 4.7617
1533.538 4.7017 4.5517 4.5817 4.6817 4.6017 4.5517 4.6117 4.6017 4.7217 4.8017
1552.827 4.9017 5.1017 5.1817 5.3317 5.1817 4.8417 4.7317 4.7017 4.7017 4.6617
1572.117 4.5017 4.4817 4.5717 4.5617 4.6117 4.7617 4.9617 5.2017 5.4817 5.7817
1591.407 6.0017 6.2317 6.4617 6.5517 6.7017 6.8617 7.0517 7.2117 7.3617 7.6117
1610.697 7.8617 8.1917 8.6417 9.0217 9.2417 9.4117 9.5617 9.5517 9.3417 9.0717
1629.986 8.8117 8.4717 8.2517 7.9717 7.3717 6.9717 6.7417 6.5617 6.4917 6.3717
1649.276 6.2117 6.3517 6.5917 6.5117 6.5317 6.7317 7.1317 7.6417 8.2817 9.1917
1668.566 10.3017 11.5017 12.9217 14.7517 16.7517 18.9017 21.5517 24.7217 28.7117 33.2917
1687.856 38.8817 46.0117 54.5317 64.5017 76.3117 89.4717 103.852 119.722 134.372 147.012
1707.146 154.922 157.502 156.322 153.772 149.642 141.902 128.802 111.722 92.6117 74.1317
1726.435 58.0317 45.0817 35.1217 27.8517 22.3317 18.0517 15.2117 13.1617 11.6617 10.5717
1745.725 9.6617 9.0917 8.8517 8.8017 8.9617 9.5617 10.4717 11.5917 12.9417 14.1717
1765.015 15.1817 15.9717 16.2217 16.1917 15.9817 15.3517 14.3917 13.1017 11.5217 9.8417
1784.305 8.4517 7.3717 6.6517 6.2717 5.8817 5.3517 4.8217 4.4017 4.1717 3.9317
1803.594 3.5517 3.2617 3.0917 2.9117 2.7517 2.6517 2.6217 2.5917 2.5317 2.6117
1822.884 2.7517 2.8617 2.8817 2.8717 2.9717 3.0517 3.0717 3.0517 3.1017 3.1017
1842.174 3.1917 3.3017 3.2817 3.2617 3.1717 3.0817 2.9517 2.7817 2.6717 2.5417
1861.464 2.3717 2.1517 1.9717 1.8917 1.8317 1.6717 1.4817 1.3817 1.3917 1.4317
1880.754 1.3917 1.3917 1.4817 1.5517 1.6117 1.6617 1.7117 1.8317 1.9517 2.0617
1900.043 2.1217 2.1617 2.2217 2.2817 2.3317 2.3217 2.2517 2.2017 2.1917 2.1717
1919.333 2.0517 1.9017 1.7417 1.5917 1.4617 1.3717 1.3217 1.2417 1.1517 1.0817
1938.623 1.0517 1.0051 0.9433 0.8958 0.8801 0.8701 0.8806 0.8526 0.8842 0.9511
1957.913 0.9457 0.891 0.8646 0.9037 0.9112 0.9196 0.9217 0.9115 0.9348 0.9831
1977.202 0.9501 0.9067 0.8621 0.8228 0.822 0.7908 0.7648 0.7467 0.7299 0.7064
1996.492 0.6645 0.6234 0.5915 0.5574 0.5495 0.5936 0.5669 0.5191 0.5505 0.5153
2015.782 0.5127 0.5397 0.5486 0.531 0.5453 0.5891 0.546 0.5388 0.6091 0.598
2035.072 0.5936 0.6585 0.6931 0.746 0.7673 0.766 0.811 0.8744 0.9895 1.0517
2054.362 1.0817 1.1317 1.1417 1.2817 1.4117 1.4217 1.4617 1.5117 1.5217 1.5017
2073.651 1.4717 1.4117 1.3617 1.3317 1.2417 1.2117 1.2217 1.1417 1.0093 0.939
2092.941 0.9785 0.9883 0.9646 0.929 0.8713 0.894 0.913 0.8708 0.8654 0.8428
2112.231 0.8356 0.9027 0.9128 0.874 0.9101 0.9316 0.8605 0.8404 0.874 0.8491
2131.521 0.824 0.7953 0.8035 0.8288 0.7808 0.7206 0.6345 0.5928 0.5758 0.5391
2150.810 0.5249 0.5584 0.5784 0.5583 0.5713 0.6351 0.676 0.6637 0.6955 0.734
2170.100 0.7147 0.7641 0.862 0.8391 0.8649 0.9382 0.9689 1.0817 1.0917 1.0817
2189.390 1.1617 1.1417 1.1317 1.1717 1.1717 1.1717 1.1817 1.1417 1.1217 1.0917
2208.680 1.0517 1.0417 0.9839 0.852 0.7486 0.7561 0.7357 0.6901 0.67 0.6767
2227.970 0.6251 0.5637 0.6093 0.5819 0.5385 0.5877 0.6103 0.585 0.5593 0.5338
2247.259 0.5525 0.5999 0.6117 0.6077 0.6463 0.673 0.6488 0.6318 0.6165 0.6178
2266.549 0.61 0.5744 0.5814 0.5832 0.5843 0.6378 0.6976 0.6921 0.719 0.7318
2285.839 0.724 0.7442 0.8023 0.8843 0.9366 1.0217 1.0817 1.1117 1.1517 1.1717
2305.129 1.2217 1.3317 1.4517 1.4817 1.4717 1.5617 1.6717 1.6717 1.6717 1.7617
2324.418 1.7317 1.6617 1.7117 1.6717 1.5817 1.5817 1.5617 1.5317 1.4917 1.4217
2343.708 1.3917 1.2917 1.1917 1.2017 1.2517 1.3417 1.4417 1.4817 1.5617 1.6517
2362.998 1.6517 1.6917 1.7417 1.6817 1.5817 1.5417 1.4917 1.4117 1.3117 1.2917
2382.288 1.2517 1.1717 1.1017 1.0317 1.0417 1.1017 1.1117 1.1017 1.0817 1.0517
2401.578 1.0717 1.1317 1.2617 1.3117 1.2517 1.2417 1.2817 1.3017 1.3017 1.2717
2420.867 1.2717 1.2517 1.2817 1.3617 1.3817 1.3517 1.3117 1.4117 1.4417 1.4217
2440.157 1.4617 1.4917 1.4717 1.4417 1.5217 1.5817 1.5917 1.5117 1.4817 1.5517
2459.447 1.6517 1.6317 1.5517 1.6017 1.6817 1.6517 1.6217 1.6317 1.6217 1.6717
2478.737 1.6317 1.5617 1.6017 1.5917 1.6217 1.6517 1.6517 1.6917 1.6917 1.6817
2498.026 1.6717 1.6617 1.6417 1.6417 1.6717 1.7017 1.7317 1.7317 1.6917 1.6417
2517.316 1.7517 1.7917 1.7217 1.7517 1.7817 1.7717 1.8217 1.7317 1.6717 1.7017
2536.606 1.6717 1.6217 1.5417 1.5817 1.5717 1.4617 1.4217 1.4017 1.3617 1.3217
2555.896 1.3417 1.3017 1.2417 1.2817 1.2617 1.2417 1.2117 1.1417 1.0717 1.1117
2575.186 1.1217 1.1017 1.0917 1.0717 1.0717 1.1317 1.1517 1.1317 1.1717 1.1817
2594.475 1.1617 1.1717 1.2217 1.2317 1.2017 1.2317 1.3017 1.3517 1.4317 1.4817
2613.765 1.4617 1.4517 1.4217 1.4817 1.5217 1.5017 1.5117 1.5717 1.6717 1.6517
2633.055 1.6217 1.7717 1.8017 1.7417 1.7617 1.7917 1.7717 1.7017 1.7017 1.6717
2652.345 1.6617 1.6717 1.6417 1.6717 1.5617 1.4717 1.4717 1.4417 1.4317 1.3617
2671.634 1.2917 1.2817 1.2317 1.1517 1.1417 1.1417 1.1517 1.1717 1.1417 1.1417
2690.924 1.2117 1.2117 1.1717 1.2517 1.2517 1.2517 1.3217 1.2817 1.2517 1.3017
2710.214 1.2917 1.2817 1.3417 1.4417 1.4717 1.5017 1.5517 1.6017 1.6217 1.5917
2729.504 1.6517 1.7117 1.7917 1.8817 1.8217 1.8317 1.8717 1.9317 2.0417 2.0517
2748.794 2.0717 2.1017 2.0117 1.9617 2.0017 1.9617 1.8817 1.8617 1.8617 1.8217
2768.083 1.8517 1.9117 1.8917 1.8717 1.8617 1.8017 1.7417 1.7617 1.8517 1.8617
2787.373 1.8417 1.8517 1.8417 1.8017 1.8217 1.8917 1.8917 1.8517 1.9417 1.9917
2806.663 2.0417 2.0717 1.9817 1.9917 2.0917 2.1117 2.0617 2.0617 2.2017 2.2517
2825.953 2.1717 2.1617 2.2417 2.2717 2.2217 2.2717 2.3017 2.3017 2.2717 2.3117
2845.242 2.3717 2.3717 2.3517 2.3017 2.2717 2.1517 2.1617 2.2017 2.1917 2.2217
2864.532 2.1117 2.1617 2.2017 2.1217 2.1017 2.1117 2.0317 1.9517 2.0117 2.0517
2883.822 2.0217 2.0017 1.9117 1.8917 1.9617 1.9817 2.0217 1.9917 1.9017 1.8417
2903.112 1.8717 1.8717 1.8417 1.8817 1.9317 1.9817 2.0317 2.0017 1.9717 2.0317
2922.401 2.0517 1.9617 2.0217 2.0817 2.0717 2.1217 2.2817 2.3817 2.4017 2.5317
2941.691 2.6417 2.6617 2.8017 2.9617 3.0217 3.0017 3.1017 3.2617 3.3217 3.3917
2960.981 3.3417 3.2817 3.4017 3.5017 3.5517 3.5517 3.5017 3.4917 3.4717 3.4517
2980.271 3.4417 3.4817 3.6017 3.5717 3.4817 3.5417 3.5417 3.5017 3.5117 3.5717
2999.561 3.5717 3.5517 3.4917 3.4317 3.3717 3.3417 3.3217 3.3217 3.3217 3.3017
3018.850 3.3317 3.4017 3.3817 3.3117 3.3917 3.5017 3.5717 3.7017 3.7717 3.8317
3038.140 4.0817 4.3017 4.3717 4.5517 4.7817 5.0317 5.3817 5.6717 5.9317 6.1517
3057.430 6.2817 6.4517 6.6117 6.6317 6.5817 6.6717 6.8517 6.9617 7.0217 6.9917
3076.720 7.0617 7.2417 7.2617 7.3317 7.4317 7.4417 7.4017 7.2517 7.1417 7.0117
3096.009 6.7417 6.5417 6.2917 6.0417 5.8417 5.6317 5.3017 5.0817 4.9417 4.6317
3115.299 4.4017 4.3017 4.3017 4.3217 4.2817 4.1517 4.1617 4.2517 4.3317 4.4417
3134.589 4.5517 4.6217 4.7217 4.9017 5.0717 5.2117 5.5517 5.8017 5.8917 6.2317
3153.879 6.6817 6.9917 7.3417 7.8217 8.2017 8.5717 9.1717 9.8017 10.2517 10.8017
3173.169 11.4617 12.1517 12.7817 13.2917 13.9317 14.6817 15.2917 15.7717 16.2317 16.7017
3192.458 17.1517 17.4817 17.7617 18.0517 18.3917 18.7417 18.9317 19.0817 19.1817 19.3317
3211.748 19.5817 19.8417 20.0717 20.0717 19.9917 20.0517 20.0117 19.9817 19.9617 19.9217
3231.038 19.8317 19.6517 19.5317 19.3817 19.2117 18.9817 18.7617 18.6017 18.2317 17.7817
3250.328 17.5117 17.2317 16.9517 16.7917 16.4017 15.9717 15.6817 15.4117 15.2517 15.1017
3269.617 14.8317 14.4517 14.1417 13.9617 13.7917 13.5717 13.4117 13.2517 13.1017 12.9117
3288.907 12.6917 12.5617 12.4817 12.4817 12.4517 12.2217 11.9617 11.9317 11.8417 11.6817
3308.197 11.6517 11.6017 11.5217 11.3917 11.1417 10.9117 10.7417 10.6817 10.7017 10.6317
3327.487 10.5017 10.4617 10.3917 10.1217 9.8717 9.7617 9.5917 9.4117 9.2617 9.1117
3346.777 8.8817 8.6617 8.5017 8.3717 8.3417 8.1517 8.0317 8.0217 7.8817 7.8217
3366.066 7.7417 7.6217 7.6517 7.6417 7.5017 7.3817 7.3817 7.3817 7.2717 7.2617
3385.356 7.2417 7.0917 7.1517 7.2917 7.2417 7.2517 7.2917 7.3417 7.3017 7.2217
3404.646 7.2117 7.0417 6.9117 6.8617 6.8417 6.7417 6.5917 6.4817 6.3917 6.2717
3423.936 6.0617 5.9717 5.9217 5.9217 5.7617 5.4917 5.3817 5.3217 5.2617 5.0717
3443.225 4.9617 4.9517 4.8317 4.8517 4.7517 4.5317 4.5217 4.5517 4.5017 4.3617
3462.515 4.3117 4.2717 4.1617 4.2017 4.2317 4.2117 4.1917 4.2917 4.3617 4.3317
3481.805 4.3517 4.4417 4.5317 4.5317 4.5917 4.6617 4.8417 5.1017 5.3117 5.5617
3501.095 5.9717 6.3617 6.6217 6.9117 7.1317 7.4017 7.5917 7.5617 7.5517 7.5117
3520.385 7.3617 7.2117 7.1017 6.8117 6.3617 6.0317 5.8017 5.6017 5.5517 5.4817
3539.674 5.3417 5.3017 5.2217 5.2717 5.4117 5.4317 5.6017 6.0417 6.7617 7.6317
3558.964 8.8417 10.9717 14.6317 20.4117 28.9717 40.6517 54.6617 68.9417 81.0817 90.3817
3578.254 98.3617 106.142 110.332 108.672 102.852 92.5117 80.1617 69.8317 60.5117 50.8317
3597.544 41.1117 32.2617 24.8717 18.8517 14.2117 10.8717 8.3717 6.4717 5.1917 4.3317
3616.833 3.7317 3.3817 3.0417 2.7417 2.6117 2.4917 2.4517 2.3017 1.9617 1.7517
3636.123 1.6417 1.5617 1.6017 1.6317 1.7017 1.8317 1.7817 1.7017 1.6617 1.7317
3655.413 1.7517 1.5617 1.4017 1.2617 1.1017 1.0013 0.8947 0.8551 0.7619 0.7255
3674.703 0.7841 0.6097 0.5872 0.6247 0.5394 0.5149 0.6328 0.7508 0.6826 0.5547
3693.993 0.4751 0.5851 0.5098 0.5758 0.6974 0.5192 0.4226 0.4545 0.4693 0.5772
3713.282 0.5696 0.4527 0.3853 0.2005 0.2176 0.3663 0.4192 0.3568 0.2455 0.2457
3732.572 0.2794 0.4615 0.5477 0.3549 0.2924 0.3935 0.437 0.3379 0.3632 0.3943
3751.862 0.2941 0.2232 0.2151 0.2272 0.2092 0.1857 0.215 0.256 0.2164 0.1398
3771.152 0.09416 0.04668 0.04192 0.11695 0.2189 0.2233 0.231 0.2328 0.2599 0.3554
3790.441 0.3142 0.2132 0.1943 0.3376 0.447 0.4794 0.4 0.3011 0.3794 0.3446
3809.731 0.2519 0.313 0.362 0.3025 0.1809 0.1204 0.2135 0.2135 0.06731 0
3829.021 0.0035 0.030861 0.03845 0.058 0.1093 0.04403 0.04227 0.06646 0.11038 0.1287
3848.311 0.0071 0.03946 0.2756 0.3039 0.1289 0.1575 0.1261 0.1016 0.2241 0.2312
3867.601 0.2321 0.2102 0.07847 0.2475 0.3319 0.1712 0.2407 0.2945 0.387 0.5352
3886.890 0.4531 0.3101 0.3005 0.2736 0.2332 0.2641 0.4724 0.5506 0.4735 0.5094
3906.180 0.3916 0.2612 0.323 0.3112 0.3064 0.4382 0.5221 0.5521 0.4809 0.5668
3925.470 0.6552 0.6301 0.714 0.7667 0.6678 0.568 0.5713 0.5044 0.4961 0.4959
3944.760 0.4557 0.4493 0.4034 0.3241 0.1848 0.2103 0.3226 0.255 0.08337 0.08008
3964.049 0.1603 0.1459 0.1297 0.07667 0.1247 0.2233 0.2064 0.1879 0.2385 0.1898
3983.339 0.10256 0.2182 0.2972 0.3108 0.2223 0.2645 0.47 0.4225 0.3309 0.3539
##END=
