##TITLE=2,5,8-Trimethyl-1,2,3,4-tetrahydronaphthalene
##JCAMP-DX=4.24
##DATA TYPE=INFRARED SPECTRUM
##ORIGIN=EPA-IR VAPOR PHASE LIBRARY
##OWNER=SRD/NIST
Collection (C) 2018 copyright by the U.S. Secretary of Commerce
on behalf of the United States of America. All rights reserved.
##CAS REGISTRY NO=30316-17-7
##MOLFORM=C 13 H 18
##$NIST SOURCE=MSDC-IR
##STATE=gas
##XUNITS=1/CM
##YUNITS=ABSORBANCE
##XFACTOR=1.
##YFACTOR=0.001
##DELTAX=1.92898
##FIRSTX=549.8
##LASTX=4000.7
##FIRSTY=2.74
##MAXX=4000.7
##MINX=549.759
##MAXY=0.21529
##MINY=0
##NPOINTS=1790
##XYDATA=(X++(Y..Y))
549.759 2.74 2.61 2.47 1.96 1.38 0.9569 0.5952 0.4461 0.4225 0.4598
569.049 0.5289 0.6249 0.7328 0.5287 0.5308 0.827 0.8342 0.6319 0.4384 0.9486
588.339 1.24 1.023 1.0065 1.0773 1.0594 0.7962 0.3863 0.3028 0.4489 0.4127
607.628 0.6397 0.6047 0.3045 0.27 0.23204 0.24524 0.307 0.4819 0.6946 0.4305
626.918 0.20089 0.4421 0.4558 0.3857 0.3981 0.4351 0.626 0.3718 0.08 0.4136
646.208 0.4369 0.2569 0.4229 0.6244 0.7127 0.5611 0.7054 0.9624 0.7063 0.5186
665.498 0.691 0.6793 0.4993 0.5071 0.6815 0.7294 0.6325 0.7161 0.7175 0.4665
684.787 0.3108 0.3854 0.4062 0.0906 0.035 0.23629 0.038 0 0.157014 0.3255
704.077 0.3619 0.2676 0.3618 0.3809 0.22949 0.16446 0.3564 0.509 0.515 0.5876
723.367 0.7782 0.7483 0.6255 0.7078 0.739 0.6477 0.6324 0.777 0.7708 0.6681
742.657 0.4756 0.4764 0.4401 0.4325 0.5968 0.5825 0.5115 0.4987 0.6402 0.576
761.947 0.6045 0.6327 0.5928 0.8204 0.9898 1.1187 1.33 1.68 2.12 2.63
781.236 3.52 5 7.3 10.22 14 18.32 22.69 26.69 30.34 35.36
800.526 43.74 48.27 39.77 29.62 25.42 22.29 18.66 14.31 9.99 6.73
819.816 4.69 3.39 2.62 2.29 2.31 2.31 2.37 2.39 2.44 2.55
839.106 2.79 3.06 3.05 3.24 3.32 3.24 3.36 3.28 3.07 2.75
858.395 2.4 2.26 2.15 1.97 1.77 1.59 1.66 1.79 1.81 1.95
877.685 1.76 1.6 1.75 1.63 1.54 1.49 1.31 1.19 1.1281 1.0184
896.975 0.9379 0.957 0.8933 0.8928 1.0714 1.16 0.9384 0.7131 0.906 1.29
916.265 1.29 1.19 1.27 1.49 1.59 1.58 1.79 2.08 2.17 2.4
935.555 2.54 2.69 2.84 2.66 2.53 2.5 2.54 2.61 2.62 2.45
954.844 2.4 2.4 2.32 2.34 2.47 2.66 2.96 2.99 2.89 2.96
974.134 3.02 2.88 2.71 2.54 2.4 2.37 2.31 2.28 2.48 2.56
993.424 2.59 2.73 2.8 3.16 3.35 3.09 3.28 3.66 3.82 3.87
1012.714 4.04 4.18 4.31 4.74 4.84 4.63 4.47 4.42 4.26 4.11
1032.003 4.13 4.07 3.98 3.59 3.32 3.48 3.42 2.99 2.36 2.12
1051.293 2.4 2.09 1.73 1.7 1.47 1.32 1.29 1.39 1.7 1.72
1070.583 1.51 1.4 1.1205 0.6195 0.5549 1.29 2 1.99 1.97 2.25
1089.873 2.25 1.97 2.02 2.01 2.07 1.88 1.67 2.11 1.48 1.17
1109.163 1.29 1.1072 1.49 1.71 1.63 1.65 1.52 1.4 1.84 2.16
1128.452 2.08 2.13 2.37 2.52 2.46 2.37 2.41 2.8 2.99 2.68
1147.742 2.69 2.87 2.91 3.47 4.2 4.79 5.14 5.25 4.92 4.52
1167.032 4.43 4.27 4.01 3.53 3.02 2.64 2.39 2.12 1.99 2.19
1186.322 2.44 2.24 2.12 2.2 1.99 1.97 1.87 1.9 2.19 2.4
1205.611 2.54 2.55 2.83 3.03 3.05 2.96 2.54 2.67 3.03 3.03
1224.901 3.45 3.68 3.74 4.58 5.02 5.25 5.74 6.03 6.66 6.86
1244.191 6.71 7.05 7.52 7.46 7.25 7.25 7.18 7.17 6.92 6.65
1263.481 6.3 5.88 5.6 5.2 5 4.79 4.79 4.76 4.46 4.24
1282.771 4.1 4.06 4.21 4.5 4.77 5.04 5.3 5.54 5.62 5.61
1302.060 5.73 5.86 5.84 5.75 5.71 5.66 5.65 5.72 5.83 6.01
1321.350 6.19 6.4 6.67 6.91 7.13 7.49 7.81 7.96 8.16 8.37
1340.640 8.46 8.5 8.3 8.03 7.79 7.45 7.14 6.79 6.41 6.05
1359.930 5.8 5.71 5.72 6.03 6.63 7.59 8.93 10.45 12.02 13.56
1379.219 14.94 15.74 15.89 15.54 14.49 12.94 11.27 9.62 8.19 7.11
1398.509 6.39 5.91 5.7 5.66 5.72 5.94 6.24 6.54 6.87 7.29
1417.799 7.9 8.67 9.54 10.67 12.19 14.04 16.16 18.42 20.73 22.93
1437.089 25.15 27.32 29.31 31 32.51 33.97 35.42 36.79 38.22 39.85
1456.378 41.78 43.94 45.65 46.55 46.94 46.99 46.61 45.84 44.38 42.35
1475.668 40.16 37.86 35.26 32.2 28.91 25.61 22.42 19.39 16.46 13.77
1494.958 11.58 9.76 8.3 7.21 6.43 5.81 5.29 4.85 4.53 4.25
1514.248 3.97 3.84 3.73 3.61 3.55 3.39 3.26 3.31 3.32 3.19
1533.538 3.12 3.12 3.18 3.22 3.12 3.05 3.08 2.99 2.97 3.08
1552.827 3.14 3.17 3.21 3.4 3.46 3.42 3.51 3.57 3.74 3.98
1572.117 4.11 4.24 4.43 4.65 4.91 5.24 5.75 6.28 6.78 7.38
1591.407 8.03 8.51 8.69 8.68 8.45 7.83 7.02 6.25 5.39 4.63
1610.697 3.94 3.26 2.78 2.52 2.3 2.2 2.1 2 1.94 1.8
1629.986 1.74 1.69 1.64 1.64 1.62 1.52 1.47 1.53 1.51 1.47
1649.276 1.48 1.48 1.47 1.39 1.38 1.4 1.4 1.41 1.32 1.24
1668.566 1.32 1.37 1.36 1.34 1.22 1.16 1.16 1.1198 1.16 1.25
1687.856 1.1339 1.0817 1.15 1.1234 1.19 1.123 1.0356 1.0996 1.0982 1.0558
1707.146 1.0592 1.1142 1.21 1.32 1.39 1.44 1.53 1.65 1.69 1.79
1726.435 1.85 1.87 1.94 1.94 1.98 1.85 1.75 1.64 1.49 1.38
1745.725 1.25 1.29 1.37 1.29 1.15 1.0854 0.9618 0.8934 0.8943 0.8751
1765.015 0.8532 0.8927 0.9142 0.8115 0.7114 0.6854 0.7512 0.753 0.7197 0.6719
1784.305 0.6447 0.7039 0.7331 0.7005 0.6269 0.6249 0.7091 0.7623 0.7224 0.7241
1803.594 0.8089 0.8477 0.8388 0.8873 0.9759 0.9918 0.9797 1.0157 1.118 1.1271
1822.884 1.17 1.33 1.4 1.42 1.43 1.43 1.47 1.49 1.53 1.52
1842.174 1.51 1.63 1.73 1.88 2.05 2.23 2.49 2.85 3.2 3.41
1861.464 3.59 3.7 3.67 3.57 3.4 3.08 2.8 2.48 2.14 1.88
1880.754 1.6 1.41 1.26 1.15 1.0184 0.9179 0.9379 0.8924 0.8024 0.739
1900.043 0.6926 0.7142 0.7118 0.6245 0.6041 0.6339 0.5965 0.5916 0.5724 0.5375
1919.333 0.5036 0.538 0.6059 0.604 0.5192 0.4577 0.5066 0.4981 0.5024 0.5484
1938.623 0.5853 0.6464 0.6213 0.5808 0.6643 0.7204 0.7693 0.7464 0.6928 0.7
1957.913 0.7137 0.7846 0.8182 0.8133 0.8553 0.8271 0.785 0.7728 0.7513 0.701
1977.202 0.6047 0.5855 0.591 0.5728 0.5634 0.5752 0.5161 0.369 0.3331 0.4076
1996.492 0.4205 0.4141 0.4283 0.3764 0.3106 0.3251 0.3711 0.4024 0.3506 0.3461
2015.782 0.3967 0.4073 0.4578 0.4675 0.4285 0.4845 0.5099 0.5155 0.5391 0.4877
2035.072 0.4659 0.5058 0.5539 0.5569 0.5386 0.479 0.5495 0.6049 0.5497 0.5263
2054.362 0.5772 0.601 0.5579 0.564 0.5961 0.5602 0.4869 0.502 0.5395 0.5023
2073.651 0.4935 0.5233 0.5445 0.5289 0.4941 0.5237 0.5579 0.5671 0.5833 0.5899
2092.941 0.5704 0.5404 0.5055 0.4863 0.4658 0.5422 0.6463 0.6445 0.6154 0.6254
2112.231 0.6188 0.5276 0.5867 0.6147 0.5731 0.5841 0.5135 0.4841 0.4536 0.444
2131.521 0.4178 0.4237 0.4664 0.3497 0.3045 0.4183 0.4335 0.4249 0.417 0.4495
2150.810 0.4286 0.3371 0.3761 0.3689 0.4039 0.3965 0.3511 0.3942 0.4189 0.4383
2170.100 0.3846 0.4271 0.4423 0.431 0.45 0.373 0.3434 0.3761 0.3839 0.449
2189.390 0.4524 0.4537 0.4513 0.3531 0.4052 0.4264 0.4087 0.3931 0.389 0.399
2208.680 0.4617 0.5103 0.4007 0.443 0.5461 0.5455 0.5224 0.561 0.641 0.6545
2227.970 0.649 0.6442 0.5864 0.5495 0.5586 0.4761 0.5061 0.6128 0.5676 0.4811
2247.259 0.4636 0.5015 0.5251 0.5386 0.5227 0.4829 0.5189 0.5598 0.5393 0.5034
2266.549 0.446 0.4271 0.5276 0.6668 0.6858 0.6089 0.5496 0.5532 0.6235 0.6309
2285.839 0.5783 0.5918 0.5666 0.509 0.5079 0.6147 0.6637 0.6119 0.6245 0.6305
2305.129 0.6761 0.7178 0.75 0.7915 0.7863 0.8031 0.7611 0.7854 0.8393 0.9201
2324.418 0.8797 0.8298 0.9227 0.916 0.9083 0.8746 0.8816 0.8523 0.7927 0.7862
2343.708 0.8134 0.7761 0.7003 0.6923 0.7021 0.7112 0.7706 0.836 0.7173 0.6887
2362.998 0.765 0.6823 0.5962 0.6278 0.7061 0.7908 0.7705 0.7854 0.9155 0.8042
2382.288 0.764 0.8314 0.8339 0.8945 0.9364 0.9636 0.9915 0.9764 0.972 1.0711
2401.578 1.0683 0.9847 0.9785 0.975 1.0273 1.1083 1.0763 1.0592 1.0113 0.9069
2420.867 0.8537 0.8515 0.8703 1.0204 1.0785 0.9331 0.8668 0.8808 0.8486 0.8972
2440.157 0.9936 0.9311 0.912 0.9531 1.0032 1.0789 1.0434 1.105 1.19 1.18
2459.447 1.16 1.1472 1.16 1.19 1.26 1.33 1.4 1.36 1.37 1.41
2478.737 1.43 1.43 1.34 1.29 1.27 1.23 1.17 1.0998 1.1192 1.18
2498.026 1.18 1.16 1.16 1.0638 1.0093 1.0275 1.079 1.0667 1.0699 1.15
2517.316 1.0767 0.9968 0.9746 0.9209 0.9638 1.16 1.25 1.1245 1.0259 1.0355
2536.606 1.0801 1.23 1.27 1.17 1.0939 1.0468 1.1099 1.2 1.1355 1.1101
2555.896 1.29 1.25 1.19 1.29 1.33 1.36 1.31 1.25 1.32 1.34
2575.186 1.22 1.2 1.24 1.23 1.38 1.37 1.25 1.33 1.47 1.52
2594.475 1.53 1.41 1.39 1.41 1.37 1.45 1.5 1.51 1.57 1.66
2613.765 1.66 1.64 1.62 1.59 1.69 1.8 1.83 1.89 1.94 1.97
2633.055 1.93 1.88 2.02 2.08 1.99 2.05 2.21 2.29 2.38 2.48
2652.345 2.42 2.36 2.41 2.54 2.65 2.61 2.56 2.63 2.65 2.64
2671.634 2.61 2.58 2.6 2.61 2.5 2.43 2.43 2.3 2.25 2.35
2690.924 2.37 2.38 2.42 2.41 2.41 2.35 2.35 2.45 2.47 2.59
2710.214 2.73 2.78 2.84 2.93 3.12 3.25 3.38 3.69 4.01 4.24
2729.504 4.49 4.74 5.02 5.31 5.54 5.65 5.62 5.69 5.75 5.7
2748.794 5.59 5.41 5.3 5.2 5.03 4.78 4.58 4.51 4.41 4.38
2768.083 4.48 4.5 4.42 4.36 4.54 4.85 4.82 4.81 5.1 5.29
2787.373 5.43 5.61 5.88 6.34 6.77 7.03 7.31 7.9 8.41 8.77
2806.663 9.21 9.81 10.67 11.58 12.54 13.59 14.69 16.06 17.69 19.38
2825.953 21.11 22.99 24.87 26.68 28.4 29.98 31.62 33.22 34.78 36.44
2845.242 38.38 40.76 43.63 47.09 50.82 54.65 58.55 62.37 65.88 68.84
2864.532 71.97 75.12 78.52 82.47 86.62 90.66 94.3 97.49 99.91 101.29
2883.822 101.54 99.97 96.28 91.87 87.95 85.06 83.52 83.29 83.91 85.6
2903.112 88.73 92.99 97.63 102.53 108.69 116.18 124.8 134.99 146.45 158.73
2922.401 171.63 185.2 198.58 209.44 215.29 214.61 208.68 199.73 188 174
2941.691 158.46 143 130.34 121.75 117.21 116.33 119.4 127.25 137.65 140.66
2960.981 134.6 127.69 122.39 116.8 108.07 96.63 85.2 75.49 67.52 61.13
2980.271 56.05 51.3 46.79 42.52 38.55 34.96 31.8 29.37 27.7 26.73
2999.561 26.22 25.98 26.39 27.25 28.08 29.2 30.24 30.85 31.52 32.14
3018.850 32.64 33.09 33.28 33.36 33.33 32.98 32.46 31.95 31.37 30.5
3038.140 29.41 28.43 27.39 26.51 25.96 25.44 25.35 25.65 25.83 25.93
3057.430 26.08 26.18 26.08 25.63 24.71 23.49 22.01 20.21 18.51 16.82
3076.720 15.07 13.66 12.14 10.88 10.12 9.35 8.71 8.18 7.65 7.23
3096.009 6.82 6.51 6.35 6 5.8 5.62 5.33 5.09 4.87 4.63
3115.299 4.46 4.38 4.26 3.84 3.7 3.81 3.64 3.53 3.42 3.2
3134.589 3.24 3.41 3.29 3.05 2.95 2.91 2.91 2.95 2.91 2.86
3153.879 2.84 2.91 2.92 2.87 2.81 2.63 2.6 2.65 2.48 2.33
3173.169 2.43 2.35 2.15 2.19 2.31 2.29 1.93 1.85 1.87 1.75
3192.458 1.89 1.93 1.77 1.72 1.7 1.51 1.21 1.16 1.0877 1.0779
3211.748 1.0993 0.984 1.092 1.1422 0.9089 0.483 0.5433 0.8884 0.777 0.7949
3231.038 0.8159 0.5536 0.5562 0.554 0.5854 0.8751 1.0323 1.094 0.9805 0.8277
3250.328 0.9025 0.8289 0.7286 0.7561 0.7429 0.7073 0.8215 1.0187 0.9993 0.9398
3269.617 0.8734 0.8249 0.7741 0.6048 0.51 0.653 0.792 0.8504 0.8786 0.8171
3288.907 0.9274 0.8245 0.7469 0.8482 0.974 1.1415 0.9673 0.791 0.8042 0.8635
3308.197 0.8684 0.7596 0.8267 0.8975 0.5726 0.5469 0.7217 0.6617 0.6691 0.5883
3327.487 0.6196 0.6017 0.6531 0.6299 0.3908 0.5332 0.7253 0.758 0.7069 0.6651
3346.777 0.7397 0.8407 0.607 0.4297 0.4865 0.6498 0.8537 0.7284 0.7152 0.6475
3366.066 0.4392 0.4365 0.4961 0.6546 0.5424 0.5372 0.8254 0.7606 0.7208 0.6733
3385.356 0.7571 0.7896 0.4549 0.4117 0.3917 0.3942 0.5096 0.4978 0.546 0.6029
3404.646 0.4786 0.4085 0.4908 0.4955 0.5314 0.5749 0.6314 0.6681 0.5305 0.4369
3423.936 0.4968 0.5156 0.6127 0.6288 0.57 0.5732 0.4923 0.431 0.3949 0.535
3443.225 0.5669 0.456 0.3981 0.4221 0.4448 0.3397 0.2808 0.5344 0.6102 0.24774
3462.515 0.138 0.2696 0.465 0.6374 0.6359 0.6172 0.7818 0.7077 0.3854 0.3644
3481.805 0.4665 0.3891 0.4593 0.3351 0.14788 0.3158 0.486 0.5338 0.364 0.2514
3501.095 0.4154 0.4493 0.3033 0.23022 0.3327 0.3761 0.3517 0.3305 0.3286 0.3552
3520.385 0.3972 0.4394 0.3502 0.359 0.6133 0.6043 0.4165 0.6258 0.8095 0.3885
3539.674 0.1089 0.2891 0.4312 0.3207 0.0661 0.16954 0.2194 0.1138 0.0881 0.1258
3558.964 0.2604 0.4275 0.488 0.4567 0.3589 0.16659 0.1371 0.3414 0.3367 0.2747
3578.254 0.4103 0.4628 0.3905 0.3827 0.2711 0.1366 0.18812 0.2652 0.3362 0.3736
3597.544 0.3802 0.318 0.3296 0.3141 0.4143 0.5046 0.6286 0.8103 0.6103 0.3294
3616.833 0.3859 0.7099 0.7163 0.4216 0.3505 0.4812 0.3102 0.2839 0.5489 0.4976
3636.123 0.3495 0.4194 0.6154 0.6438 0.4981 0.5019 0.429 0.272 0.4225 0.4025
3655.413 0.2833 0.2531 0.23125 0.20785 0.3447 0.536 0.5086 0.3845 0.2053 0.093
3674.703 0.23767 0.4304 0.3777 0.4135 0.3105 0.14263 0.458 0.589 0.3473 0.3277
3693.993 0.3663 0.3277 0.1422 0.3868 0.6385 0.5846 0.5051 0.4166 0.5801 0.5297
3713.282 0.5795 0.386 0.20465 0.3604 0.3913 0.4152 0.4348 0.4303 0.4043 0.6611
3732.572 0.9011 0.9676 0.9478 0.8265 0.7589 0.7816 0.9586 0.9963 0.826 0.5328
3751.862 0.4948 0.6422 0.6779 0.671 0.6329 0.8232 1.0847 0.765 0.4581 0.628
3771.152 0.5923 0.6994 0.7715 0.7432 0.8681 0.7937 0.6398 0.7111 0.6812 0.7507
3790.441 0.8033 0.7095 0.7768 0.6234 0.7061 0.8249 0.638 0.7029 0.8664 0.7507
3809.731 0.594 0.4583 0.3743 0.5616 0.6907 0.6468 0.7052 0.6882 0.7058 0.7924
3829.021 0.9114 0.9194 0.6195 0.4731 0.7093 0.8407 0.7885 0.868 0.7998 0.6293
3848.311 0.5655 0.5604 0.7294 0.8161 0.4493 0.3118 0.3366 0.4991 0.7292 0.7516
3867.601 0.6977 0.6799 0.8257 1.0331 0.8098 0.6883 0.8917 0.7334 0.452 0.6059
3886.890 0.8785 0.8764 1.1109 1.22 1.0006 0.6743 0.6634 0.8512 0.927 0.946
3906.180 0.7681 0.7889 0.8547 0.8856 1.0419 0.9042 0.713 0.6482 0.7844 0.8916
3925.470 0.6844 0.5037 0.6105 0.6822 0.7201 0.7749 0.8219 0.8565 0.8465 0.8934
3944.760 0.7572 0.7067 0.7342 0.6993 0.7735 0.9813 1.0416 0.952 0.8722 0.8532
3964.049 0.6769 0.8122 0.8338 0.7728 1.011 0.8237 0.8517 1.0629 0.9545 0.8558
3983.339 0.9511 0.9671 0.8829 0.8827 0.9288 0.8571 0.7896 0.8098 0.8741 0.802
##END=
