##TITLE=2,4-Hexadiyne-1,6-diol
##JCAMP-DX=4.24
##DATA TYPE=INFRARED SPECTRUM
##ORIGIN=EPA-IR VAPOR PHASE LIBRARY
##OWNER=SRD/NIST
Collection (C) 2018 copyright by the U.S. Secretary of Commerce
on behalf of the United States of America. All rights reserved.
##CAS REGISTRY NO=3031-68-3
##MOLFORM=C 6 H 6 O 2
##$NIST SOURCE=MSDC-IR
##STATE=gas
##XUNITS=1/CM
##YUNITS=ABSORBANCE
##XFACTOR=1.
##YFACTOR=0.001
##DELTAX=3.85796
##FIRSTX=551.7
##LASTX=4000.7
##FIRSTY=2.173
##MAXX=4000.7
##MINX=551.688
##MAXY=0.028853
##MINY=0
##NPOINTS=895
##XYDATA=(X++(Y..Y))
551.688 2.173 2.073 1.993 1.923 1.823 1.673 1.563 1.533 1.573 1.513
590.268 1.503 1.4461 1.4153 1.493 1.483 1.573 1.573 1.553 1.733 1.683
628.847 1.493 1.4422 1.3605 1.2596 1.295 1.2819 1.189 1.1658 1.2198 1.2261
667.427 1.1983 1.1683 1.0984 1.0576 1.0559 1.0136 0.9964 0.9737 0.9251 0.9441
706.006 0.9531 0.9445 0.9829 0.9629 0.9818 0.9454 0.8785 0.8587 0.7885 0.8484
744.586 0.8951 0.8182 0.7596 0.7301 0.7505 0.7674 0.7557 0.7516 0.7517 0.7718
783.165 0.7701 0.726 0.7274 0.7421 0.7262 0.694 0.7356 0.771 0.8119 0.8022
821.745 0.7026 0.7887 0.8518 0.8508 0.8919 0.8668 0.8444 0.9152 0.9829 1.0449
860.324 1.1226 1.122 1.1952 1.3301 1.3846 1.4351 1.533 1.663 1.813 1.913
898.904 2.033 2.143 2.213 2.323 2.433 2.583 2.683 2.743 2.833 2.893
937.484 2.843 2.873 3.003 3.093 3.333 3.643 3.953 4.373 4.803 5.223
976.063 5.693 6.233 6.833 7.463 8.173 8.923 9.683 10.543 11.693 13.173
1014.643 15.083 17.823 21.633 25.923 28.853 28.713 25.753 20.933 15.443 11.113
1053.222 8.493 6.773 5.593 4.733 4.013 3.363 3.013 2.703 2.353 2.103
1091.802 1.853 1.823 1.783 1.813 1.783 1.633 1.683 1.723 1.713 1.653
1130.381 1.613 1.623 1.693 1.703 1.653 1.673 1.693 1.763 1.753 1.823
1168.961 1.943 1.963 1.943 1.993 2.013 2.033 2.113 2.213 2.233 2.113
1207.540 2.213 2.333 2.303 2.333 2.413 2.373 2.293 2.363 2.363 2.263
1246.120 2.293 2.333 2.283 2.183 2.133 2.273 2.383 2.393 2.403 2.443
1284.699 2.523 2.593 2.653 2.663 2.643 2.633 2.643 2.723 2.843 2.973
1323.279 3.143 3.343 3.613 4.013 4.543 5.133 5.843 6.773 7.863 9.083
1361.859 10.403 11.643 12.713 13.503 13.813 13.573 12.803 11.593 10.153 8.653
1400.438 7.223 6.023 5.003 4.153 3.533 3.023 2.533 2.173 1.913 1.763
1439.018 1.603 1.4379 1.3685 1.279 1.2341 1.1759 1.0706 1.0211 0.9786 0.9115
1477.597 0.8344 0.7908 0.7774 0.749 0.6881 0.7023 0.7056 0.738 0.783 0.736
1516.177 0.7257 0.7375 0.7131 0.6871 0.6723 0.6579 0.6749 0.64 0.5787 0.52641
1554.756 0.52374 0.52041 0.4048 0.333 0.297 0.257 0.228 0.161 0.127 0.128
1593.336 0.133 0.14 0.12 0.105 0.103 0.108 0.11 0.086 0.069 0.063
1631.915 0.092 0.141 0.131 0.124 0.129 0.157 0.163 0.115 0.096 0.105
1670.495 0.156 0.247 0.3765 0.52144 0.54891 0.49555 0.4337 0.343 0.262 0.249
1709.075 0.295 0.357 0.3885 0.333 0.304 0.333 0.399 0.368 0.352 0.52454
1747.654 0.52136 0.4161 0.4279 0.4532 0.48949 0.53355 0.55413 0.55154 0.54815 0.56095
1786.234 0.5817 0.5752 0.54039 0.52617 0.5223 0.4626 0.4312 0.4376 0.4224 0.3968
1824.813 0.4034 0.4159 0.4138 0.4 0.412 0.4243 0.4182 0.3916 0.352 0.367
1863.393 0.3848 0.4047 0.4195 0.4175 0.4161 0.3988 0.3903 0.4258 0.4291 0.3946
1901.972 0.3992 0.4449 0.472571 0.48325 0.475856 0.477533 0.482662 0.46324 0.478163 0.49092
1940.552 0.47067 0.478144 0.46962 0.4544 0.4643 0.455 0.4501 0.4493 0.4526 0.476691
1979.131 0.480903 0.46606 0.47052 0.476765 0.48436 0.49221 0.50718 0.52062 0.5277 0.53822
2017.711 0.55981 0.56532 0.5555 0.5831 0.6377 0.6716 0.6559 0.6357 0.6124 0.5843
2056.291 0.5734 0.55207 0.54581 0.53675 0.51432 0.48648 0.476987 0.49403 0.51289 0.54045
2094.870 0.57045 0.6127 0.7148 0.824 0.9239 1.0413 1.1511 1.2271 1.2057 1.0898
2133.450 0.9239 0.8124 0.8019 0.7958 0.8117 0.8872 0.975 1.095 1.2586 1.4092
2172.029 1.523 1.523 1.3775 1.1473 0.8899 0.6594 0.53882 0.52704 0.48538 0.4249
2210.609 0.4056 0.4401 0.49811 0.53089 0.51689 0.49622 0.50294 0.51441 0.479803 0.4258
2249.188 0.4297 0.4056 0.362 0.358 0.37 0.341 0.296 0.322 0.334 0.344
2287.768 0.353 0.359 0.3884 0.4119 0.4186 0.4164 0.4257 0.4248 0.4071 0.4181
2326.347 0.4538 0.4536 0.4319 0.4182 0.4354 0.4187 0.3981 0.4256 0.4588 0.49586
2364.927 0.55637 0.5771 0.5354 0.4529 0.3868 0.368 0.308 0.27 0.299 0.315
2403.507 0.298 0.293 0.303 0.313 0.316 0.296 0.28 0.288 0.272 0.257
2442.086 0.261 0.259 0.257 0.249 0.251 0.255 0.242 0.23 0.251 0.264
2480.666 0.258 0.246 0.245 0.229 0.2 0.214 0.251 0.248 0.196 0.167
2519.245 0.167 0.176 0.214 0.229 0.215 0.212 0.21 0.231 0.238 0.199
2557.825 0.187 0.197 0.191 0.213 0.231 0.202 0.199 0.215 0.241 0.262
2596.404 0.234 0.203 0.215 0.222 0.21 0.227 0.227 0.243 0.269 0.259
2634.984 0.242 0.242 0.262 0.249 0.26 0.266 0.234 0.244 0.27 0.292
2673.563 0.299 0.273 0.269 0.274 0.294 0.344 0.3828 0.3874 0.354 0.359
2712.143 0.364 0.335 0.356 0.369 0.4027 0.48325 0.481222 0.4376 0.4539 0.49217
2750.722 0.50298 0.48648 0.49783 0.56846 0.56569 0.55248 0.5742 0.6261 0.588 0.48788
2789.302 0.54309 0.6455 0.7135 0.7775 0.8441 0.8622 0.8973 0.9257 0.9155 0.9217
2827.882 0.9507 1.0461 1.1313 1.2306 1.4223 1.613 1.803 2.023 2.203 2.433
2866.461 2.653 2.863 3.163 3.423 3.553 3.523 3.443 3.373 3.253 3.153
2905.041 3.163 3.253 3.353 3.333 3.283 3.363 3.393 3.353 3.353 3.273
2943.620 3.133 2.993 2.813 2.583 2.353 2.123 1.833 1.573 1.36 1.1434
2982.200 0.9685 0.8091 0.7132 0.6418 0.5795 0.53832 0.4563 0.359 0.308 0.318
3020.779 0.327 0.298 0.286 0.27 0.216 0.216 0.225 0.206 0.182 0.159
3059.359 0.212 0.166 0.089 0.123 0.184 0.189 0.123 0.104 0.098 0.069
3097.938 0.08 0.159 0.152 0.095 0.129 0.146 0.123 0.081 0.098 0.155
3136.518 0.172 0.167 0.159 0.189 0.201 0.196 0.211 0.215 0.172 0.161
3175.098 0.164 0.152 0.144 0.125 0.113 0.193 0.168 0.09 0.162 0.166
3213.677 0.137 0.176 0.157 0.149 0.126 0.122 0.217 0.224 0.145 0.117
3252.257 0.154 0.138 0.125 0.225 0.293 0.247 0.214 0.251 0.205 0.179
3290.836 0.241 0.263 0.271 0.287 0.364 0.3837 0.4361 0.50426 0.52287 0.50344
3329.416 0.4149 0.4618 0.51783 0.4142 0.33 0.326 0.276 0.237 0.256 0.289
3367.995 0.266 0.255 0.222 0.225 0.303 0.336 0.315 0.301 0.343 0.328
3406.575 0.3959 0.4563 0.4141 0.3851 0.4103 0.4465 0.4187 0.4084 0.4006 0.36
3445.154 0.312 0.319 0.305 0.366 0.4494 0.4498 0.4627 0.4188 0.396 0.4539
3483.734 0.4315 0.3846 0.4303 0.4269 0.4344 0.47008 0.477996 0.4474 0.4203 0.4599
3522.314 0.5073 0.52935 0.4857 0.4071 0.4017 0.4182 0.479633 0.473405 0.4192 0.4498
3560.893 0.4226 0.371 0.4555 0.55414 0.53204 0.53006 0.6356 0.7101 0.6415 0.6127
3599.473 0.652 0.6699 0.8192 0.9948 1.1514 1.3802 1.503 1.743 2.013 2.173
3638.052 2.363 2.543 2.803 3.163 3.473 3.583 3.613 3.483 3.213 2.953
3676.632 2.703 2.383 2.073 1.863 1.663 1.3481 1.0748 0.8787 0.6721 0.5791
3715.211 0.51826 0.4857 0.481004 0.4483 0.4025 0.4069 0.4619 0.50292 0.49416 0.4532
3753.791 0.3874 0.321 0.328 0.331 0.246 0.195 0.2 0.227 0.328 0.278
3792.370 0.22 0.265 0.247 0.276 0.332 0.343 0.293 0.253 0.227 0.217
3830.950 0.225 0.273 0.325 0.221 0.168 0.299 0.4158 0.34 0.301 0.284
3869.530 0.238 0.247 0.24 0.307 0.355 0.348 0.359 0.335 0.297 0.298
3908.109 0.225 0.156 0.232 0.191 0.103 0.123 0.048 0.037 0.132 0.075
3946.689 0.084 0.189 0.053 0.016 0.104 0.065 0.029 0 0.068 0.114
3985.268 0.044 0.023 0.052 0.132 0.091
##END=
