##TITLE=8-Chloroquinaldine
##JCAMP-DX=4.24
##DATA TYPE=INFRARED SPECTRUM
##ORIGIN=EPA-IR VAPOR PHASE LIBRARY
##OWNER=SRD/NIST
Collection (C) 2018 copyright by the U.S. Secretary of Commerce
on behalf of the United States of America. All rights reserved.
##CAS REGISTRY NO=3033-82-7
##MOLFORM=C 10 H 8 Cl N
##$NIST SOURCE=MSDC-IR
##STATE=gas
##XUNITS=1/CM
##YUNITS=ABSORBANCE
##XFACTOR=1.
##YFACTOR=0.001
##DELTAX=1.92898
##FIRSTX=549.8
##LASTX=4000.7
##FIRSTY=1.1967
##MAXX=4000.7
##MINX=549.759
##MAXY=0.086426
##MINY=0
##NPOINTS=1790
##XYDATA=(X++(Y..Y))
549.759 1.1967 1.1829 0.6044 0.5762 1.2399 1.856 1.766 1.1394 0.9774 0.8526
569.049 1.436 1.446 1.2499 1.546 1.0523 1.2534 1.676 1.466 0.8081 0.6471
588.339 0.9823 1.2501 1.436 1.576 1.296 1.2323 1.436 1.1843 1.1215 0.652
607.628 0.7426 0.6897 0.5708 0.5916 0.5167 0.8532 0.7452 0.4363 0.7381 1.2394
626.918 1.456 1.736 1.966 2.256 2.656 3.086 3.566 3.756 3.856 4.326
646.208 5.126 6.236 7.086 7.256 8.356 11.286 15.286 21.096 27.796 32.626
665.498 33.746 33.226 33.836 34.536 33.366 28.286 20.686 14.006 9.346 6.456
684.787 4.726 3.976 3.996 4.516 5.336 6.266 7.086 7.696 8.396 8.726
704.077 8.776 8.676 8.026 7.516 6.856 5.916 4.826 3.666 3.236 3.366
723.367 3.486 3.486 3.246 3.326 4.656 6.766 9.946 14.136 19.596 25.706
742.657 31.236 35.846 40.906 51.356 68.416 74.396 56.886 40.846 36.406 33.296
761.947 28.456 21.976 16.196 12.356 9.986 9.016 9.546 10.916 13.356 15.896
781.236 18.576 21.536 24.546 28.686 32.376 31.256 25.716 21.016 18.546 16.696
800.526 14.286 11.726 9.746 9.346 10.126 11.476 14.016 18.076 24.136 30.796
819.816 37.286 43.416 50.536 63.236 81.726 86.426 71.166 58.736 53.156 47.626
839.106 41.016 33.036 25.046 18.606 13.736 10.496 8.616 7.396 6.406 5.576
858.395 4.856 3.786 3.316 3.416 3.436 3.726 4.326 5.116 6.086 6.466
877.685 7.116 7.936 8.196 8.056 7.496 7.256 7.036 6.476 6.076 5.126
896.975 4.066 3.676 3.166 2.786 2.746 2.736 2.936 2.666 2.396 2.506
916.265 2.316 2.286 2.116 1.846 1.726 1.866 1.666 1.486 2.086 3.006
935.555 3.266 3.236 3.596 3.916 4.106 4.136 4.666 5.376 5.816 5.916
954.844 6.566 8.016 9.296 10.796 12.936 15.436 18.556 21.536 23.976 26.166
974.134 28.246 30.036 30.516 29.936 29.016 27.356 25.326 23.436 21.986 20.886
993.424 20.326 20.996 22.046 22.866 23.936 25.166 25.736 26.186 26.996 26.736
1012.714 25.786 24.856 23.226 21.206 20.116 18.356 15.756 14.316 12.476 10.626
1032.003 9.506 9.046 9.296 9.176 8.576 8.496 9.066 9.156 9.246 9.336
1051.293 9.066 9.066 8.856 8.436 7.906 7.036 6.796 6.746 7.006 7.006
1070.583 5.776 5.316 4.476 3.556 3.356 3.396 3.596 3.076 2.846 2.556
1089.873 2.626 3.856 3.696 2.426 1.826 2.326 1.996 1.806 2.636 2.486
1109.163 3.186 3.346 3.356 4.256 4.676 4.866 6.216 7.936 9.046 10.756
1128.452 12.106 12.936 12.856 12.936 14.386 13.756 12.056 10.796 10.056 10.156
1147.742 10.516 9.876 8.686 8.436 8.146 8.236 7.616 7.066 7.226 6.326
1167.032 5.066 4.206 4.266 4.576 5.366 7.266 8.126 9.216 11.756 14.196
1186.322 16.996 19.796 22.686 26.846 32.306 37.126 39.646 40.546 39.086 36.746
1205.611 35.146 32.586 27.936 21.406 15.186 11.166 8.926 7.006 5.256 5.606
1224.901 6.736 7.136 7.286 8.986 11.296 12.596 13.756 14.456 14.936 15.276
1244.191 14.846 13.386 11.916 10.516 8.506 6.546 4.916 3.506 2.646 2.186
1263.481 2.066 2.216 2.026 2.006 2.256 2.256 2.396 2.906 3.416 3.876
1282.771 4.416 5.036 5.666 6.726 7.906 9.296 10.866 12.436 14.196 16.416
1302.060 19.106 22.346 26.236 30.146 33.286 35.026 35.316 34.386 32.336 29.916
1321.350 26.846 22.366 17.466 13.286 10.076 7.796 6.516 6.026 5.566 5.146
1340.640 4.946 4.816 4.886 5.026 5.226 5.616 6.016 6.346 6.786 7.406
1359.930 8.246 9.186 10.266 11.486 12.826 14.296 15.556 16.316 16.676 16.806
1379.219 16.606 15.926 14.996 13.756 12.186 10.826 9.916 9.176 8.866 8.946
1398.509 9.136 9.836 11.166 12.776 14.676 17.086 20.026 23.906 28.976 35.066
1417.799 41.596 47.666 51.886 53.746 54.586 55.946 56.616 54.466 49.796 44.096
1437.089 38.876 35.096 32.496 30.846 29.966 29.436 28.966 28.156 26.896 25.486
1456.378 23.656 21.596 19.406 17.186 15.266 13.546 12.266 11.366 11.066 11.226
1475.668 11.786 13.306 15.496 18.256 21.946 26.736 32.706 39.546 46.636 52.976
1494.958 57.466 59.746 60.756 60.916 59.346 55.396 48.906 41.136 33.716 27.496
1514.248 22.666 19.106 16.286 13.956 12.406 11.636 11.296 11.076 11.106 11.436
1533.538 12.056 12.986 13.926 15.276 16.846 18.226 19.566 20.576 21.106 21.186
1552.827 20.466 19.136 17.726 16.126 14.436 12.436 10.296 8.846 8.156 8.106
1572.117 8.516 9.026 9.736 11.016 12.706 14.746 17.486 21.286 26.226 32.026
1591.407 38.986 47.006 54.586 61.176 66.946 71.736 75.456 77.336 76.316 72.486
1610.697 66.466 59.486 52.906 46.576 40.396 34.486 29.236 25.036 21.926 19.366
1629.986 17.156 15.516 14.336 13.466 12.566 11.626 10.756 9.756 8.606 7.706
1649.276 6.896 6.036 5.396 5.006 4.536 4.036 3.726 3.516 3.356 3.256
1668.566 3.256 3.216 3.186 3.286 3.156 3.146 3.216 3.026 2.916 2.966
1687.856 3.126 3.036 2.996 3.086 3.156 3.126 3.096 3.196 3.266 3.366
1707.146 3.516 3.766 3.816 3.856 4.116 4.266 4.306 4.186 4.066 3.826
1726.435 3.496 3.316 2.926 2.686 2.566 2.256 1.966 1.966 2.196 2.206
1745.725 2.216 2.306 2.296 2.376 2.326 2.086 1.976 2.026 1.986 1.886
1765.015 1.736 1.746 1.916 2.056 2.356 2.836 3.296 3.646 4.056 4.446
1784.305 4.866 5.006 4.876 4.746 4.446 4.116 3.826 3.436 2.866 2.336
1803.594 2.026 1.716 1.436 1.2627 1.1525 1.2103 1.1646 1.0807 0.9971 0.9791
1822.884 1.0853 1.2468 1.416 1.486 1.526 1.646 1.856 2.146 2.526 2.906
1842.174 3.336 3.606 3.866 4.176 4.386 4.406 4.326 4.096 3.706 3.406
1861.464 3.016 2.686 2.426 2.106 1.926 1.706 1.446 1.366 1.2651 1.0747
1880.754 1.0888 1.1886 1.1395 1.0663 1.1526 1.286 1.386 1.566 1.746 1.986
1900.043 2.246 2.596 3.076 3.566 3.916 4.346 4.906 5.326 5.556 5.686
1919.333 5.826 5.786 5.796 5.766 5.426 4.986 4.576 4.116 3.766 3.406
1938.623 2.886 2.496 2.146 1.786 1.466 1.286 1.276 1.2251 1.0669 1.0089
1957.913 1.0159 1.0188 1.1962 1.2198 1.0761 1.0014 0.9598 0.9404 0.946 0.9283
1977.202 0.9405 1.0556 1.0237 0.9161 0.9982 1.0615 0.9784 0.9112 0.8648 0.8846
1996.492 0.8595 0.8616 0.9572 0.9049 0.9712 1.0051 1.062 1.1258 0.9573 1.003
2015.782 1.022 0.9433 0.888 0.8218 0.8228 0.9524 0.9691 0.8364 0.77 0.6584
2035.072 0.6864 0.6905 0.6466 0.6502 0.6786 0.7326 0.6321 0.5217 0.6857 0.8064
2054.362 0.7655 0.823 0.8087 0.7286 0.8546 1.0087 1.0729 1.0963 1.0472 1.1868
2073.651 1.306 1.252 1.306 1.336 1.316 1.416 1.436 1.2754 1.151 1.164
2092.941 1.1296 1.1754 1.2484 1.0977 0.8963 0.9268 0.9897 0.9429 0.9864 1.0156
2112.231 1.0034 0.9926 1.0914 1.1733 1.0628 1.0104 1.0797 1.0943 1.072 1.0661
2131.521 0.9422 0.8825 0.9899 1.0178 0.9377 0.8401 0.8345 0.8689 0.94 1.0567
2150.810 1.0644 1.0122 0.8806 0.8689 1.0305 1.0073 0.7754 0.6292 0.747 0.8009
2170.100 0.8242 0.8083 0.8225 0.8571 0.7314 0.7961 0.9239 0.8377 0.7664 0.875
2189.390 0.9992 0.9381 0.8504 0.8718 0.7954 0.8032 0.9038 0.9823 1.0315 0.9713
2208.680 0.9458 0.92 0.7666 0.7218 0.7438 0.7717 0.6902 0.6818 0.869 0.8158
2227.970 0.6561 0.5811 0.6089 0.7265 0.6527 0.6615 0.899 0.9767 1.0123 0.8716
2247.259 0.7142 0.8953 1.1798 1.276 1.306 1.306 1.296 1.396 1.506 1.476
2266.549 1.336 1.1948 1.286 1.376 1.406 1.386 1.24 1.1816 1.021 0.9398
2285.839 1.1064 1.1795 1.0281 1.0164 1.0468 0.9402 0.9968 0.9786 0.997 1.062
2305.129 0.964 0.9657 0.9524 1.0017 1.0316 1.0423 0.9706 0.9311 1.1332 1.0997
2324.418 1.0923 1.146 1.0867 1.0808 1.0517 1.0357 0.9526 1.0192 1.0997 1.2183
2343.708 1.326 1.316 1.276 1.306 1.2705 1.0381 0.8838 0.8147 0.8942 1.0287
2362.998 0.848 0.7244 0.8824 0.8825 0.8072 0.9224 1.009 0.97 0.9356 1.0521
2382.288 1.2703 1.2729 1.2053 1.1123 1.0171 1.1377 1.2086 1.1724 1.2016 1.1918
2401.578 1.336 1.416 1.386 1.336 1.087 0.9546 1.0731 1.0847 1.0026 0.9945
2420.867 1.0738 1.1593 1.0768 1.213 1.326 1.316 1.426 1.476 1.436 1.366
2440.157 1.326 1.276 1.416 1.446 1.376 1.296 1.2518 1.326 1.2656 1.133
2459.447 1.0787 1.1443 1.1602 1.1234 1.1731 1.1577 1.0958 1.0106 1.1096 1.069
2478.737 1.0327 1.286 1.1776 1.1334 1.516 1.556 1.2342 1.1334 1.1242 1.1162
2498.026 1.1255 1.2014 1.1666 1.0946 1.1151 1.1232 1.0349 1.0366 1.2342 1.197
2517.316 1.0836 1.0961 1.0716 1.1632 1.0204 0.7633 0.8624 0.8848 0.7811 0.8734
2536.606 0.9186 0.8909 0.851 0.7427 0.9297 0.9344 0.9655 1.0747 0.9703 0.9626
2555.896 1.0942 1.1627 1.1935 1.1285 0.9159 1.0441 1.1447 1.1755 1.1707 1.0689
2575.186 1.1163 1.1682 1.2048 1.2285 1.2059 1.1118 1.0251 0.8794 0.9526 1.1906
2594.475 1.1777 1.0853 1.0628 1.0352 0.9591 0.9877 1.1571 1.316 1.446 1.336
2613.765 1.376 1.466 1.466 1.566 1.556 1.2724 1.0642 1.1529 1.1452 1.2719
2633.055 1.0864 0.7671 0.6885 0.7777 0.7845 0.6361 0.7541 0.9544 1.0728 1.1475
2652.345 1.1794 1.0403 0.9371 1.0187 1.1645 1.2138 1.2348 1.346 1.2359 1.083
2671.634 0.9935 0.8636 0.8869 0.7373 0.6018 0.7945 0.976 1.0108 0.9536 0.9904
2690.924 1.1077 1.1233 1.0024 0.8322 0.8945 0.9792 1.0292 1.0752 0.7996 0.6382
2710.214 0.6432 0.6127 0.6772 0.7733 0.8279 1.0268 1.316 1.476 1.466 1.2346
2729.504 1.426 1.536 1.446 1.536 1.296 1.1537 1.2217 1.1568 1.0496 1.0877
2748.794 1.2107 1.2421 1.2632 1.286 1.336 1.306 1.1825 1.1978 1.2095 1.1401
2768.083 1.0347 1.0875 1.1992 0.9687 0.8357 0.982 1.1697 1.306 1.1707 1.0654
2787.373 1.0181 0.918 1.1029 1.356 1.2657 1.1799 1.296 1.356 1.296 1.326
2806.663 1.356 1.306 1.456 1.636 1.846 1.896 1.736 1.706 1.746 1.846
2825.953 1.956 2.056 2.226 2.266 2.236 2.276 2.486 2.706 2.906 3.256
2845.242 3.376 3.626 4.096 4.306 4.516 4.746 4.956 5.276 5.416 5.326
2864.532 5.266 5.246 5.106 5.116 5.086 4.996 5.266 5.336 5.306 5.356
2883.822 5.486 5.626 5.606 5.636 5.686 5.676 5.756 5.836 5.996 6.326
2903.112 6.496 6.716 7.036 7.326 7.696 8.116 8.966 10.356 11.806 13.326
2922.401 15.466 17.896 19.506 20.926 22.356 22.996 23.026 22.176 20.876 19.446
2941.691 17.516 15.646 13.926 12.446 11.526 10.616 9.916 9.576 9.336 9.286
2960.981 9.006 8.506 7.716 6.976 6.606 6.116 5.576 5.426 5.256 4.896
2980.271 4.556 4.276 4.016 4.176 4.446 4.536 4.716 5.056 5.736 6.336
2999.561 7.096 7.746 8.216 9.016 9.636 10.036 10.486 10.846 11.046 11.006
3018.850 10.996 10.856 10.956 11.646 12.146 12.786 13.576 14.486 15.816 17.206
3038.140 18.456 20.106 22.256 24.586 27.436 30.616 34.086 38.166 42.476 46.646
3057.430 50.116 52.246 52.936 52.306 50.286 47.256 43.506 38.816 33.686 28.156
3076.720 22.926 19.236 16.186 13.936 12.616 11.176 9.996 9.036 8.396 8.216
3096.009 7.956 7.876 7.816 7.606 7.326 7.056 6.876 6.286 5.716 5.166
3115.299 4.386 3.916 3.466 2.956 2.596 2.356 2.156 1.936 1.666 1.536
3134.589 1.806 1.786 1.486 1.506 1.696 1.506 1.1666 1.1849 1.406 1.2514
3153.879 1.1387 1.0094 0.9107 1.0835 0.9971 0.7069 0.631 0.9457 1.1376 0.9358
3173.169 0.8267 0.6959 0.6499 0.9406 1.0194 0.9709 1.013 0.9268 1.0777 1.1392
3192.458 1.286 1.446 1.1796 1.1115 1.0617 1.197 1.406 1.1938 0.8586 1.0785
3211.748 1.306 1.346 1.1039 0.6279 0.6028 0.7722 0.7666 0.8455 0.9538 0.7662
3231.038 1.0131 0.902 0.36874 0.5504 0.6255 0.6298 0.8135 0.6956 0.6634 0.5236
3250.328 0.37124 0.6347 0.8867 1.0636 0.9026 0.778 0.95 0.7914 0.7061 0.7695
3269.617 0.6143 0.6809 0.7803 0.7142 0.8344 0.7451 0.555 0.7743 0.8397 0.7872
3288.907 0.6515 0.489 0.4347 0.5133 0.6294 0.6346 0.5367 0.36285 0.32501 0.5591
3308.197 0.6439 0.24 0.1767 0.5046 0.6891 0.6998 0.9093 0.9602 0.7305 0.5212
3327.487 0.5451 0.7705 0.639 0.5565 0.7684 0.9389 0.654 0.4321 0.5048 0.35279
3346.777 0.4063 0.79 0.9054 0.7132 0.5 0.503 0.662 0.7668 0.8598 0.7639
3366.066 0.4852 0.4021 0.5472 0.6936 0.7296 0.6727 0.6959 0.8264 0.7644 0.576
3385.356 0.7137 0.7592 0.5055 0.5734 0.6306 0.36411 0.30287 0.43 0.5222 0.6857
3404.646 0.5602 0.36005 0.6746 0.6981 0.4265 0.3404 0.2288 0.2328 0.506 0.669
3423.936 0.8109 0.89 1.0209 0.9368 0.546 0.5617 0.5693 0.6172 0.8336 0.8593
3443.225 0.7322 0.5263 0.6131 0.8075 0.7231 0.4792 0.545 0.4653 0.27496 0.4756
3462.515 0.4526 0.4414 0.5837 0.33666 0.4646 0.5152 0.4114 0.4728 0.5438 0.7235
3481.805 0.6489 0.6366 0.6547 0.598 0.9485 1.2016 0.8576 0.5594 0.5861 0.8175
3501.095 0.8082 0.6116 0.2979 0 0.4241 0.7306 0.4119 0.3792 0.5666 0.8854
3520.385 1.1618 0.9563 0.5594 0.32482 0.5792 1.0543 0.9719 0.9588 1.0555 0.8339
3539.674 0.6626 0.658 0.8135 1.0449 0.8993 0.5924 0.5611 0.8311 0.8344 0.6642
3558.964 0.6296 0.5516 0.7781 0.7507 0.6852 0.8527 0.8337 0.7902 0.8841 0.7887
3578.254 0.8267 1.0094 0.6804 0.5613 0.8345 0.9484 0.8044 0.8403 0.9576 0.8541
3597.544 0.6326 0.7932 0.8667 0.6086 0.6284 0.6309 0.4692 0.5631 0.8134 0.8087
3616.833 0.7033 0.7246 0.8107 0.5394 0.5835 0.8032 0.6196 0.7463 0.9664 0.7595
3636.123 0.4883 0.6016 0.9089 1.0741 0.7244 0.2433 0.26906 0.5727 0.6528 0.6189
3655.413 0.5795 0.6182 0.5832 0.4825 0.7077 0.8898 0.9491 0.9332 0.7419 0.6415
3674.703 0.7743 0.5768 0.5804 0.9428 0.8958 0.9632 0.9366 0.7394 0.7809 0.728
3693.993 0.6532 0.746 0.7897 0.6253 0.8386 1.0376 0.829 1.019 1.1484 1.0576
3713.282 1.024 1.0591 1.1412 1.0045 0.9805 1.065 1.082 1.1186 1.1596 1.0148
3732.572 0.9966 1.1939 1.0577 1.0552 0.993 0.9544 1.0322 0.8851 0.8993 0.8126
3751.862 0.8032 0.979 1.1031 1.1607 0.8258 0.5332 0.794 0.9205 0.8717 1.0382
3771.152 0.8134 0.7471 1.0746 1.0925 0.8649 0.8229 0.7753 0.6578 0.697 0.937
3790.441 1.0987 0.8784 0.9538 1.0031 0.7335 0.6943 0.7411 0.8436 0.8611 0.911
3809.731 0.8803 0.7495 0.7597 0.6244 0.7583 0.9091 0.8406 0.8135 0.7241 0.5499
3829.021 0.768 1.0904 1.0077 0.8937 1.0369 1.306 1.267 1.1773 1.0555 1.0048
3848.311 1.0941 0.979 0.9467 0.9276 0.8666 0.9002 1.0171 1.1638 0.8761 0.6972
3867.601 0.7374 0.4871 0.6332 0.9813 1.0049 0.9516 0.9904 1.0984 1.1583 0.825
3886.890 0.7935 0.8048 0.8364 0.8525 0.9002 1.2035 1.1945 1.356 1.2521 1.396
3906.180 1.706 1.376 1.316 1.426 1.376 1.1917 1.1273 1.456 1.476 1.296
3925.470 1.1878 1.1696 1.346 1.336 1.1461 1.1192 1.2713 1.366 1.376 1.366
3944.760 1.2227 1.1796 1.2208 1.2565 1.346 1.336 1.0113 0.88 0.9411 0.8924
3964.049 1.0548 1.1204 1.0792 1.286 1.1295 0.8321 1.0856 1.098 0.8875 1.0666
3983.339 0.9963 0.9854 1.0356 1.0252 1.2208 1.2556 0.9191 0.7349 0.9538 0.9752
##END=
