##TITLE=N-Phenylbenzohydroxamic acid
##JCAMP-DX=4.24
##DATA TYPE=INFRARED SPECTRUM
##ORIGIN=EPA-IR VAPOR PHASE LIBRARY
##OWNER=SRD/NIST
Collection (C) 2018 copyright by the U.S. Secretary of Commerce
on behalf of the United States of America. All rights reserved.
##CAS REGISTRY NO=304-88-1
##MOLFORM=C 13 H 11 N O 2
##$NIST SOURCE=MSDC-IR
##STATE=gas
##XUNITS=1/CM
##YUNITS=ABSORBANCE
##XFACTOR=1.
##YFACTOR=0.001
##DELTAX=1.92898
##FIRSTX=549.8
##LASTX=4000.7
##FIRSTY=2.739
##MAXX=4000.7
##MINX=549.759
##MAXY=0.086969
##MINY=0
##NPOINTS=1790
##XYDATA=(X++(Y..Y))
549.759 2.739 2.589 2.479 2.579 2.629 2.569 2.599 3.219 3.929 4.589
569.049 5.659 6.869 7.769 8.519 8.999 8.879 8.189 7.239 6.099 4.989
588.339 4.209 3.489 2.919 2.699 2.699 2.749 2.819 2.749 2.929 3.289
607.628 3.609 3.889 4.009 3.889 3.759 3.529 3.369 3.439 3.299 3.129
626.918 2.939 3.039 3.379 3.509 3.669 3.709 3.679 3.859 3.879 3.919
646.208 4.289 4.829 5.389 6.079 7.199 9.089 11.759 14.509 16.529 17.799
665.498 18.639 18.679 18.219 17.099 15.329 14.389 14.729 16.519 19.739 24.189
684.787 29.869 35.669 40.809 45.579 49.139 51.399 52.369 51.689 50.279 48.099
704.077 44.219 39.519 34.939 30.619 27.009 24.339 22.919 22.469 22.259 21.769
723.367 20.999 19.909 18.619 17.409 16.169 15.039 14.139 13.489 12.989 12.639
742.657 12.619 12.979 13.529 14.479 16.229 18.479 21.169 23.929 26.039 27.139
761.947 27.029 25.789 23.769 21.309 18.869 16.929 15.769 15.269 14.859 14.289
781.236 13.449 12.289 11.019 9.649 8.169 6.939 5.899 5.069 4.639 4.369
800.526 3.959 3.689 3.699 3.609 3.479 3.379 3.229 3.059 2.889 2.719
819.816 2.549 2.589 2.599 2.529 2.469 2.529 2.669 2.759 2.789 2.899
839.106 3.109 3.179 3.049 2.799 2.699 2.509 2.249 2.169 2.239 2.259
858.395 2.269 2.389 2.489 2.499 2.619 2.659 2.799 3.209 3.529 3.649
877.685 3.649 3.949 4.369 4.609 4.849 5.139 5.519 6.019 6.679 7.639
896.975 9.019 10.889 13.389 16.209 18.949 21.469 23.669 25.109 25.579 25.119
916.265 23.899 22.229 20.199 17.789 15.209 12.689 10.489 8.719 7.289 6.229
935.555 5.469 4.909 4.399 4.129 4.049 3.999 3.869 3.719 3.719 3.759
954.844 3.979 4.139 4.139 4.289 4.599 4.929 5.409 5.849 6.239 6.949
974.134 7.909 8.979 10.219 11.629 13.269 15.209 17.069 18.449 19.429 19.809
993.424 19.499 18.759 17.529 16.159 14.779 13.359 12.119 11.129 10.309 9.439
1012.714 8.479 7.659 7.419 7.589 7.989 8.539 9.199 9.589 9.309 9.139
1032.003 8.859 7.969 6.949 5.899 4.979 4.519 4.339 4.109 3.919 3.989
1051.293 3.859 3.939 4.409 4.769 5.159 5.359 5.689 6.169 6.659 7.069
1070.583 7.089 6.989 6.789 6.539 6.099 5.479 4.899 4.449 4.209 4.039
1089.873 3.889 3.959 3.959 3.889 4.019 4.149 4.089 3.789 3.639 3.499
1109.163 3.229 3.129 3.149 3.109 2.999 2.839 2.909 3.039 2.949 2.829
1128.452 2.979 3.359 3.489 3.469 3.449 3.419 3.499 3.639 3.709 3.679
1147.742 3.619 3.549 3.609 3.529 3.459 3.519 3.579 3.599 3.819 4.129
1167.032 4.289 4.649 5.409 6.419 7.419 8.319 9.109 9.549 9.129 8.459
1186.322 7.769 6.809 6.099 5.359 4.769 4.599 4.619 4.919 5.079 4.949
1205.611 4.849 4.969 5.149 5.469 5.869 6.159 6.479 6.909 7.259 7.499
1224.901 7.909 8.339 8.849 9.379 9.699 10.169 10.629 11.039 11.539 12.239
1244.191 13.019 13.849 14.969 16.139 17.219 18.259 19.139 19.759 19.939 19.809
1263.481 19.449 18.809 18.159 17.659 17.379 17.369 17.659 18.219 19.029 20.149
1282.771 21.369 22.619 23.919 25.169 26.579 28.239 30.029 31.949 34.009 36.099
1302.060 38.049 39.809 41.409 42.849 44.209 45.619 47.189 49.059 51.259 53.709
1321.350 56.289 59.119 62.199 65.379 68.559 71.759 75.099 78.349 81.339 83.969
1340.640 85.929 86.969 86.839 85.439 82.829 78.929 73.919 68.149 61.869 55.479
1359.930 49.349 43.779 38.929 34.909 31.749 29.229 27.209 25.519 24.009 22.669
1379.219 21.439 20.349 19.349 18.399 17.479 16.599 15.809 15.119 14.459 13.869
1398.509 13.419 13.019 12.749 12.539 12.389 12.329 12.299 12.339 12.409 12.449
1417.799 12.569 12.719 12.819 13.029 13.329 13.689 14.319 15.099 16.049 17.259
1437.089 18.779 20.439 22.209 23.949 25.519 26.899 27.939 28.589 28.889 28.969
1456.378 28.939 28.879 28.869 28.799 28.589 28.139 27.399 26.499 25.609 24.859
1475.668 24.539 24.809 25.859 27.889 30.929 34.829 39.469 44.709 50.379 55.829
1494.958 60.339 63.409 64.379 63.159 59.859 54.939 48.349 41.009 34.089 27.939
1514.248 23.159 19.549 16.829 15.009 13.539 12.389 11.609 11.019 10.499 10.019
1533.538 9.699 9.409 9.129 8.929 8.739 8.499 8.329 8.209 8.179 8.299
1552.827 8.469 8.629 8.939 9.439 9.969 10.469 11.129 11.989 12.999 14.089
1572.117 15.289 16.589 18.059 19.589 21.129 22.879 24.759 26.759 28.739 30.529
1591.407 31.959 32.759 32.739 31.839 30.149 27.989 25.579 23.169 20.989 19.199
1610.697 17.909 17.129 16.829 16.859 17.259 17.959 18.989 20.269 21.839 23.969
1629.986 26.659 29.949 33.859 38.739 44.389 50.469 57.029 63.509 69.649 75.039
1649.276 79.079 81.229 81.509 80.089 76.979 72.409 67.109 61.399 55.839 50.709
1668.566 45.989 41.709 38.139 35.169 32.469 30.299 28.479 26.879 25.459 24.109
1687.856 22.979 21.939 20.929 20.009 19.079 18.039 17.079 15.959 14.999 14.019
1707.146 13.069 12.139 11.289 10.619 10.009 9.479 8.909 8.349 7.959 7.609
1726.435 7.299 7.009 6.729 6.589 6.409 6.129 5.959 5.809 5.689 5.599
1745.725 5.569 5.549 5.579 5.569 5.549 5.609 5.559 5.389 5.219 5.049
1765.015 4.879 4.779 4.639 4.389 4.109 3.839 3.689 3.619 3.559 3.489
1784.305 3.499 3.479 3.399 3.409 3.419 3.349 3.309 3.339 3.419 3.439
1803.594 3.399 3.329 3.189 3.009 2.799 2.629 2.489 2.299 2.159 2.049
1822.884 1.929 1.859 1.839 1.789 1.699 1.659 1.669 1.649 1.579 1.539
1842.174 1.549 1.579 1.579 1.569 1.529 1.539 1.609 1.669 1.739 1.839
1861.464 1.959 2.079 2.169 2.239 2.299 2.329 2.379 2.379 2.419 2.529
1880.754 2.569 2.589 2.599 2.559 2.559 2.539 2.459 2.399 2.339 2.279
1900.043 2.229 2.189 2.109 2.009 1.909 1.779 1.679 1.599 1.599 1.609
1919.333 1.569 1.559 1.589 1.629 1.739 1.919 2.059 2.219 2.409 2.559
1938.623 2.709 2.819 2.859 2.859 2.859 2.879 2.889 2.889 2.909 2.849
1957.913 2.749 2.689 2.569 2.429 2.259 2.039 1.789 1.609 1.479 1.3125
1977.202 1.1495 1.0526 0.981 0.9602 0.9843 0.9628 0.9478 0.915 0.8493 0.7828
1996.492 0.776 0.821 0.8014 0.7962 0.8048 0.8079 0.7858 0.754 0.7503 0.7356
2015.782 0.7729 0.7795 0.7377 0.7779 0.7965 0.7697 0.7614 0.7724 0.8095 0.8249
2035.072 0.8368 0.8205 0.7868 0.7568 0.7528 0.7555 0.7575 0.7517 0.7061 0.7015
2054.362 0.6979 0.6749 0.7133 0.7151 0.6668 0.6618 0.6668 0.6503 0.6266 0.6149
2073.651 0.5757 0.5683 0.5896 0.5666 0.5432 0.5438 0.5562 0.5349 0.5226 0.5144
2092.941 0.4828 0.4951 0.4992 0.4663 0.43363 0.43936 0.44706 0.43225 0.41758 0.3983
2112.231 0.4649 0.4815 0.3936 0.36235 0.37888 0.39817 0.39905 0.39596 0.39276 0.40696
2131.521 0.43613 0.4322 0.43893 0.44232 0.40443 0.4277 0.4694 0.43755 0.44308 0.4652
2150.810 0.4713 0.4869 0.5079 0.4907 0.42705 0.43892 0.4603 0.44332 0.4556 0.4725
2170.100 0.4749 0.4712 0.4728 0.5035 0.5564 0.5608 0.5281 0.4767 0.4628 0.4935
2189.390 0.5101 0.5223 0.5548 0.5308 0.5322 0.5829 0.536 0.4776 0.508 0.5106
2208.680 0.5122 0.539 0.5537 0.5995 0.5876 0.5603 0.5273 0.5148 0.531 0.5299
2227.970 0.5489 0.559 0.5411 0.5374 0.532 0.5191 0.5056 0.5074 0.5375 0.5595
2247.259 0.5336 0.5395 0.5819 0.5673 0.5604 0.57 0.6085 0.5932 0.5375 0.5377
2266.549 0.5235 0.5504 0.5525 0.5401 0.5776 0.558 0.5374 0.5551 0.5274 0.5093
2285.839 0.5336 0.5542 0.5705 0.5558 0.6034 0.634 0.5938 0.5861 0.5934 0.6142
2305.129 0.6644 0.751 0.8537 0.957 1.0436 1.0455 1.0521 1.1075 1.0956 1.0635
2324.418 1.0594 1.0223 1.0028 0.9943 1.0333 1.1033 1.0249 0.978 1.0294 1.0259
2343.708 0.9689 0.8477 0.784 0.7994 0.7944 0.7782 0.8066 0.8654 0.9001 0.8817
2362.998 0.8777 0.8852 0.8338 0.7994 0.7917 0.7585 0.7267 0.6803 0.6585 0.6685
2382.288 0.6589 0.597 0.552 0.5762 0.5464 0.5472 0.5232 0.4668 0.5 0.5116
2401.578 0.4737 0.5163 0.5544 0.5583 0.5919 0.5624 0.5286 0.5709 0.6023 0.585
2420.867 0.6112 0.635 0.6066 0.5989 0.5797 0.5691 0.5787 0.5818 0.6447 0.6649
2440.157 0.6226 0.6201 0.6437 0.6416 0.614 0.5551 0.5429 0.5985 0.5755 0.5407
2459.447 0.5672 0.6226 0.6524 0.6332 0.5962 0.6363 0.6393 0.5976 0.594 0.621
2478.737 0.6277 0.6306 0.6432 0.6097 0.6508 0.6636 0.5761 0.5411 0.5979 0.62
2498.026 0.6166 0.6382 0.5905 0.5777 0.5837 0.5363 0.5576 0.6111 0.5862 0.5377
2517.316 0.5601 0.5341 0.4701 0.4941 0.4763 0.41873 0.44603 0.4609 0.4504 0.43024
2536.606 0.4561 0.4601 0.42012 0.425 0.469 0.4844 0.527 0.5741 0.5485 0.4886
2555.896 0.4849 0.5546 0.5519 0.5394 0.5252 0.5004 0.5209 0.4892 0.4649 0.4808
2575.186 0.5371 0.5769 0.5576 0.5743 0.5715 0.5716 0.5826 0.549 0.5838 0.6343
2594.475 0.6316 0.6643 0.6636 0.6871 0.695 0.6281 0.5702 0.5558 0.5486 0.5627
2613.765 0.6023 0.5616 0.524 0.5405 0.5539 0.603 0.6201 0.5982 0.5761 0.5753
2633.055 0.6034 0.6266 0.5987 0.6027 0.6228 0.6038 0.5942 0.5488 0.4998 0.5144
2652.345 0.5471 0.5544 0.5377 0.496 0.4847 0.4809 0.5114 0.5004 0.43463 0.4775
2671.634 0.4663 0.42749 0.5268 0.5696 0.5557 0.5532 0.5359 0.4593 0.44322 0.4961
2690.924 0.5266 0.5242 0.43475 0.4491 0.4723 0.41482 0.4904 0.4924 0.43618 0.488
2710.214 0.5477 0.6302 0.6612 0.6524 0.5927 0.5436 0.5405 0.4858 0.529 0.5893
2729.504 0.594 0.6175 0.6053 0.6027 0.6585 0.6574 0.6577 0.6495 0.6848 0.7516
2748.794 0.6618 0.6054 0.667 0.6479 0.6025 0.6536 0.6641 0.6293 0.5446 0.4812
2768.083 0.5171 0.5206 0.5142 0.5366 0.5476 0.6167 0.5873 0.5527 0.6231 0.6052
2787.373 0.5875 0.596 0.5864 0.6845 0.7208 0.6112 0.5942 0.6256 0.602 0.6121
2806.663 0.5707 0.5738 0.621 0.6203 0.6022 0.5672 0.5709 0.6246 0.6432 0.6559
2825.953 0.6723 0.6566 0.6959 0.7386 0.7731 0.7087 0.7783 0.8699 0.7996 0.7457
2845.242 0.7336 0.762 0.8357 0.8502 0.8327 0.8946 0.9223 0.8684 0.8303 0.8369
2864.532 0.8498 0.8563 0.8541 0.865 0.9231 0.9476 0.9559 0.966 0.9232 0.8874
2883.822 0.912 0.9673 0.9534 0.9222 0.9425 0.9937 0.9785 0.9517 1.0054 1.0141
2903.112 0.8824 0.9254 0.9612 0.8883 0.9642 1.0132 0.9849 1.0005 0.9463 0.8492
2922.401 0.9012 0.9483 0.9148 0.874 1.0142 1.0846 0.9732 0.9154 0.981 1.1611
2941.691 1.1174 1.0463 1.0087 0.8576 0.8379 0.886 0.8312 0.8799 0.9436 0.8025
2960.981 0.7674 0.8703 0.8748 0.8274 0.8257 0.7994 0.8014 0.8794 0.9458 0.9721
2980.271 1.0319 1.0628 1.0476 1.066 1.0655 1.0663 1.1868 1.2682 1.2975 1.389
2999.561 1.469 1.559 1.569 1.629 1.739 1.859 2.099 2.339 2.599 2.989
3018.850 3.379 3.799 4.359 4.929 5.549 6.249 7.029 7.699 8.299 8.969
3038.140 9.509 9.869 10.159 10.379 10.469 10.519 10.639 10.889 11.229 11.779
3057.430 12.619 13.549 14.679 16.119 17.689 19.249 20.769 21.819 22.359 22.519
3076.720 22.129 21.189 19.949 18.599 17.209 15.959 14.899 13.969 13.169 12.309
3096.009 11.449 10.679 9.919 9.009 8.139 7.369 6.699 6.089 5.489 4.939
3115.299 4.329 3.839 3.449 3.009 2.719 2.559 2.329 2.169 2.109 1.949
3134.589 1.799 1.809 1.819 1.849 1.809 1.789 1.869 1.919 1.869 1.809
3153.879 1.899 1.979 1.999 2.039 2.009 1.919 1.979 2.029 1.999 1.989
3173.169 1.899 1.849 1.879 1.899 2.049 2.139 2.189 2.239 2.279 2.379
3192.458 2.479 2.499 2.589 2.739 2.819 2.839 2.869 2.979 3.079 3.219
3211.748 3.309 3.379 3.599 3.659 3.629 3.749 3.989 4.159 4.179 4.289
3231.038 4.459 4.629 4.749 4.879 4.979 5.099 5.209 5.329 5.509 5.649
3250.328 5.769 5.799 5.999 6.279 6.439 6.559 6.509 6.549 6.679 6.739
3269.617 6.819 6.799 6.769 6.729 6.709 6.879 7.019 7.009 6.929 6.779
3288.907 6.729 6.769 6.749 6.679 6.479 6.279 6.229 6.209 6.029 5.809
3308.197 5.709 5.579 5.439 5.289 5.199 5.069 4.899 4.819 4.779 4.689
3327.487 4.569 4.469 4.309 4.219 4.229 4.189 4.119 4.009 3.889 3.859
3346.777 3.779 3.739 3.659 3.459 3.409 3.349 3.179 3.149 3.109 2.929
3366.066 2.809 2.699 2.599 2.709 2.679 2.539 2.509 2.409 2.359 2.369
3385.356 2.369 2.289 2.169 2.109 1.909 1.849 2.009 1.959 1.799 1.709
3404.646 1.739 1.709 1.589 1.659 1.639 1.509 1.479 1.429 1.419 1.399
3423.936 1.3093 1.3155 1.2877 1.1924 1.1661 1.1403 1.1136 1.0842 1.0794 1.0688
3443.225 1.059 0.9931 1.0032 1.0799 1.1033 1.102 1.0962 1.0549 0.9378 0.9583
3462.515 1.0273 0.905 0.8408 0.9241 0.955 0.9488 0.9527 0.8548 0.7862 0.8216
3481.805 0.774 0.7053 0.773 0.7658 0.7114 0.7908 0.789 0.7626 0.8 0.7902
3501.095 0.8135 0.847 0.8392 0.7942 0.6035 0.526 0.5764 0.5329 0.5408 0.5965
3520.385 0.6547 0.7711 0.7059 0.5948 0.6425 0.7018 0.7552 0.6874 0.7232 0.7934
3539.674 0.6429 0.6007 0.5888 0.5102 0.5665 0.7301 0.8063 0.7856 0.8258 0.8157
3558.964 0.7385 0.7308 0.7558 0.8402 0.8937 0.89 0.8837 0.8645 0.8622 0.9249
3578.254 0.9985 0.9464 0.9288 1.0383 1.0467 1.0232 0.964 0.8091 0.7134 0.6983
3597.544 0.7294 0.6529 0.6223 0.5156 0.43924 0.5877 0.6213 0.5197 0.4528 0.42072
3616.833 0.40566 0.5337 0.642 0.5107 0.4725 0.6151 0.6492 0.6088 0.6015 0.5634
3636.123 0.4771 0.43561 0.4588 0.5338 0.5408 0.4509 0.44126 0.5532 0.4953 0.5442
3655.413 0.6482 0.5431 0.548 0.6035 0.5499 0.468 0.458 0.5275 0.5402 0.44357
3674.703 0.39989 0.41517 0.5273 0.589 0.5123 0.4637 0.41857 0.4751 0.4598 0.42608
3693.993 0.4544 0.468 0.5017 0.5753 0.6285 0.5091 0.43369 0.5024 0.542 0.5037
3713.282 0.487 0.5051 0.5473 0.473 0.4599 0.4697 0.4517 0.5482 0.5738 0.5887
3732.572 0.6004 0.41309 0.39029 0.4777 0.3838 0.42611 0.5533 0.5202 0.41884 0.40666
3751.862 0.4596 0.4967 0.5083 0.493 0.477 0.37034 0.35909 0.5173 0.5712 0.5548
3771.152 0.5976 0.4949 0.4678 0.502 0.44489 0.5335 0.4992 0.40737 0.39746 0.34215
3790.441 0.283 0.2637 0.2783 0.354986 0.41158 0.4564 0.39417 0.3116 0.40413 0.39797
3809.731 0.238 0.2557 0.4295 0.44512 0.351009 0.3989 0.2551 0.118 0.245 0.3195
3829.021 0.37168 0.34472 0.176 0.073 0.3271 0.3144 0.048 0.149 0.173 0.004
3848.311 0 0.084 0.097 0.124 0.138 0.094 0.105 0.217 0.248 0.169
3867.601 0.084 0.1 0.199 0.242 0.2766 0.193 0.201 0.221 0.208 0.38494
3886.890 0.416 0.39732 0.36228 0.2903 0.262 0.133 0.159 0.3202 0.3415 0.2932
3906.180 0.2608 0.353229 0.34391 0.241 0.2813 0.42085 0.43461 0.348668 0.3189 0.219
3925.470 0.198 0.128 0.118 0.3183 0.35993 0.2563 0.074 0.075 0.258 0.18
3944.760 0.017 0.154 0.135 0.002 0.085 0.22 0.237 0.168 0.106 0.145
3964.049 0.136 0.033 0.154 0.187 0.209 0.214 0.246 0.36596 0.2747 0.155
3983.339 0.191 0.209 0.2662 0.39082 0.42301 0.4514 0.44523 0.40957 0.3219 0.36438
##END=
