##TITLE=(2-Benzimidazolythio)acetic acid
##JCAMP-DX=4.24
##DATA TYPE=INFRARED SPECTRUM
##ORIGIN=EPA-IR VAPOR PHASE LIBRARY
##OWNER=SRD/NIST
Collection (C) 2018 copyright by the U.S. Secretary of Commerce
on behalf of the United States of America. All rights reserved.
##CAS REGISTRY NO=3042-00-0
##MOLFORM=C 9 H 8 N 2 O 2 S
##$NIST SOURCE=MSDC-IR
##STATE=gas
##XUNITS=1/CM
##YUNITS=ABSORBANCE
##XFACTOR=1.
##YFACTOR=0.001
##DELTAX=1.92898
##FIRSTX=549.8
##LASTX=4000.7
##FIRSTY=3.04
##MAXX=4000.7
##MINX=549.759
##MAXY=0.0205
##MINY=0
##NPOINTS=1790
##XYDATA=(X++(Y..Y))
549.759 3.04 3.71 3.7 2.79 3.62 3.65 2.1988 1.7051 1.6657 2.074
569.049 1.331 0.53 1.001 1.8394 1.8752 1.421 1.6692 2.497 2.4281 1.5002
588.339 1.069 1.425 1.7614 1.46 1.325 1.4992 1.6865 2.0276 2.4221 1.6817
607.628 1.4754 2.1698 1.9047 1.732 1.9529 2.65 2.87 2.2514 2.0525 1.60115
626.918 1.395 1.56631 1.321 1.173 1.7253 2.291 1.7949 1.208 1.65269 1.8122
646.208 1.319 1.56325 1.62701 1.4649 1.5414 1.354 1.221 1.6932 2.2755 1.8313
665.498 1.225 1.44 1.9955 2.1285 1.9564 1.8684 1.9466 1.9033 1.7635 1.8027
684.787 2.2387 2.1379 1.8005 1.8304 2.3519 2.67 2.4547 2.5034 2.2629 2.2279
704.077 2.5342 2.1185 2.0722 1.9593 1.8477 2.0902 1.64978 1.397 1.63932 2.2064
723.367 2.3487 2.0176 2.1676 2.5408 3.38 3.66 3.18 3.91 4.79 5.35
742.657 6.23 6.56 6.23 5.71 5.03 4.69 5.27 5.66 4.51 3.73
761.947 3.63 3.2 2.84 2.59 1.9847 1.56736 1.9565 2.3008 2.522 2.9
781.236 2.4977 1.6883 1.60892 2.1267 1.9 1.4997 1.8527 2.0307 2.3478 2.0494
800.526 1.44 1.4745 1.9817 1.9851 1.105 1.349 1.5338 1.392 2.2345 2.3234
819.816 1.60327 2.3091 2.83 2.5033 2.4171 2.1458 2.0118 1.8616 1.7323 1.9667
839.106 2.2308 2.2387 1.8326 1.381 1.64774 1.7135 1.014 1.64737 2.5095 1.816
858.395 1.5222 1.9494 1.838 1.55535 1.8148 2.1455 2.2565 1.9781 2.4945 2.87
877.685 2.57 2.3015 2.1016 2.1153 1.7411 1.63194 1.9496 2.0179 2.1316 2.3007
896.975 1.8687 1.445 1.62718 1.7762 1.6334 1.59721 2.1025 2.1551 1.898 2.0864
916.265 2.8 2.9 2.2623 2.4605 2.79 3.04 2.72 2.2707 2.1964 2.0657
935.555 2.5263 2.7 2.3536 2.1509 2.0088 1.954 1.8243 1.991 2.0957 1.7294
954.844 1.184 1.331 1.925 2.5057 2.4981 1.9298 1.8517 1.8705 1.5014 1.5098
974.134 1.9441 2.3537 2.64 2.5475 2.3612 2.2487 2.1901 2.2537 2.3228 1.9987
993.424 1.57555 2.0079 2.5531 2.2097 1.60109 1.363 1.8128 2.5005 2.4192 2.1277
1012.714 2.7 2.78 2.72 3.06 3.01 2.4413 2.2896 1.55634 1.7078 2.95
1032.003 2.77 2.4865 2.0618 1.4963 1.38 1.367 1.024 1.055 1.204 1.099
1051.293 1.4947 2.1257 2.4453 2.64 2.81 2.67 2.4436 1.65973 1.62304 1.62429
1070.583 0.769 0.857 2.2237 2.5216 2.0005 2.0015 0.926 2.62 3.16 1.346
1089.873 2.0937 2.0255 2.82 2.56 2.2509 2.62 1.8026 2.3813 1.448 0.49
1109.163 1.6799 2.64 2.68 3.35 1.5827 1.217 1.7178 1.2 1.41 1.174
1128.452 2.1556 2.4154 2.0521 2.1953 2.71 3.67 3.51 3.16 4.11 5.25
1147.742 4.9 5.51 6.99 6.8 5.5 4.44 4.84 4.63 3.53 2.4632
1167.032 2.3016 3.05 3.22 2.61 1.62943 0.82 0.918 0.53 0.03 0.709
1186.322 1.5382 2.3613 1.7292 1.733 1.468 0 0.5 2.0034 2.99 1.63249
1205.611 0.01 0.2 0.737 1.075 1.7597 3 3.96 2.5126 1.65025 1.9242
1224.901 0.762 0.08 0.799 1.56686 0.845 1.037 1.9471 1.327 1.383 2.1688
1244.191 1.8311 2.004 2.59 2.2777 2.3865 3.41 4.21 5 5.11 5.08
1263.481 5.09 4.92 4.93 4.03 3.2 3.11 3 2.73 2.198 2.1519
1282.771 2.4295 2.62 3.06 3.49 3.84 4.06 4.48 4.92 5.26 5.34
1302.060 5.32 5.12 5.06 5.16 4.62 4.02 3.64 3.24 3.17 3.11
1321.350 2.78 2.62 2.4841 2.4391 2.58 2.5458 2.3759 2.358 2.64 2.8
1340.640 2.65 2.4914 2.79 3.21 3.51 4.03 4.63 5.39 6.18 7.28
1359.930 8.63 9.98 11.42 12.92 14.21 15.16 15.86 15.91 15.22 14.17
1379.219 12.7 10.8 8.85 7.1 5.56 4.32 3.72 3.41 3.12 2.99
1398.509 2.91 2.78 2.78 2.82 2.88 2.93 2.74 2.62 2.4559 2.4238
1417.799 2.76 2.87 3.08 3.38 3.54 3.96 4.26 4.46 4.73 4.79
1437.089 5.45 6.76 7.67 8.41 9.15 9.44 9.65 9.68 9.19 8.24
1456.378 6.93 5.72 4.99 4.48 3.76 3.36 3.44 3.57 3.67 3.87
1475.668 4.01 3.77 3.79 4 3.91 3.79 3.61 3.45 3.25 3.14
1494.958 2.98 2.86 3.13 3.4 3.7 4.18 4.72 5.5 6.87 8.69
1514.248 10.87 13.47 15.95 18.02 19.68 20.41 20.39 19.96 18.63 16.19
1533.538 13 10.08 7.93 6 4.65 3.79 3.56 3.53 3.16 2.88
1552.827 2.91 2.84 2.68 2.4849 2.5242 2.59 2.83 2.82 2.71 2.79
1572.117 2.88 2.7 2.42 2.71 2.7 2.63 2.5012 2.3686 2.5272 2.3462
1591.407 2.5213 2.79 2.67 3.06 3.48 3.46 3.3 3.08 3.23 3.45
1610.697 3.48 3.34 3.22 3.21 3.07 2.74 2.3994 2.3735 2.2526 2.0104
1629.986 1.61038 1.6939 1.8428 1.7776 1.7298 1.7548 1.9676 1.9862 1.7262 1.7028
1649.276 1.8523 1.61729 1.7789 2.132 2.0894 1.8004 1.7254 1.9144 2.3381 2.4202
1668.566 2.0831 2.1004 2.2129 1.9954 1.7062 2.0383 2.3098 2.0745 1.8995 1.9445
1687.856 1.9851 2.1095 1.9926 2.0041 2.4027 2.2805 2.0859 2.3347 2.353 2.1497
1707.146 2.1326 2.2652 2.3952 2.2644 2.3564 2.2852 2.3222 2.77 3.09 3.31
1726.435 3.24 2.99 3.14 3.52 3.72 3.81 3.96 4.34 5.01 5.74
1745.725 6.8 8.35 10.22 12.46 14.47 16.5 18.43 19.33 19.64 20.07
1765.015 20.5 20.13 18.29 15.92 13.53 11.16 9.26 7.8 6.54 5.57
1784.305 4.82 4.28 3.86 3.45 3.1 2.7 2.57 2.61 2.5574 2.3786
1803.594 2.2455 2.0419 1.9305 1.9076 2.0042 1.9471 1.8501 1.9303 1.7845 1.8624
1822.884 1.9844 1.9432 1.9936 2.072 2.0818 1.9246 1.8931 2.0757 2.1673 2.1108
1842.174 2.1001 2.0639 2.023 2.1499 2.1388 2.2223 2.1809 2.1084 2.197 2.0976
1861.464 2.0346 1.996 1.922 1.9944 2.0016 2.0287 2.0856 2.1064 2.2291 2.1808
1880.754 2.0394 2.057 2.0919 2.1494 2.0234 1.8935 1.8748 2.0708 2.1762 2.055
1900.043 2.1404 2.1386 2.303 2.3918 2.2772 2.0333 1.8847 1.9401 2.1208 2.2179
1919.333 2.1099 2.0772 2.0413 2.1781 2.2226 2.277 2.2547 2.1067 2.1302 2.0393
1938.623 1.9755 2.0283 2.1372 2.1575 1.85 1.8629 1.9519 1.7129 1.7635 1.9254
1957.913 2.0938 2.0627 1.9115 1.8683 1.7732 1.7921 1.9198 2.0117 1.9882 1.9244
1977.202 2.0149 2.0189 1.9542 1.9097 1.929 2.0907 1.9385 1.8765 2.1143 2.216
1996.492 2.2739 2.1996 2.1447 2.1802 1.996 1.8571 1.9046 1.9513 1.9353 1.9721
2015.782 1.9996 1.9086 1.961 2.0653 2.0399 2.056 1.9746 1.9193 1.9594 1.9076
2035.072 1.8692 1.9353 2.0307 1.9291 1.875 1.8923 1.9536 1.891 1.8144 1.8046
2054.362 1.7994 1.9301 1.9109 2.1209 2.1722 2.0542 2.0703 2.0081 1.9826 1.9781
2073.651 1.9198 1.9023 2.0496 2.1317 1.9699 1.8912 2.1506 2.1002 1.9886 2.0032
2092.941 1.8724 1.7513 1.7543 1.8542 1.8337 1.8605 1.8587 1.8 1.7037 1.8849
2112.231 2.0795 1.7878 1.8208 2.1479 2.1498 1.9196 1.8381 2.0448 2.1644 2.1381
2131.521 1.9633 1.9265 2.1165 2.0249 1.9842 2.0636 2.1658 2.1384 1.9134 1.9737
2150.810 2.019 1.8386 1.8109 1.9823 2.1336 1.9955 1.9535 1.9108 1.8959 2.0262
2170.100 1.7403 1.8 2.0855 1.9326 1.8118 1.8603 2.0485 2.1195 1.942 1.8713
2189.390 2.03 1.9534 2.1046 2.2346 1.9512 1.9787 2.1096 1.9692 1.60415 1.65436
2208.680 1.7539 1.7905 2.1252 1.9737 1.7442 1.8683 1.976 1.9501 1.8072 1.902
2227.970 2.2697 2.4653 2.218 2.0192 2.0735 2.0607 2.0793 2.0314 1.9046 1.9207
2247.259 1.9795 2.1488 2.2613 2.1048 2.26 2.2685 1.9225 1.9073 1.8834 1.8551
2266.549 1.9644 1.9785 1.9811 1.9556 1.9818 2.1571 2.236 2.3775 2.5012 2.3361
2285.839 2.2401 2.2196 2.3026 2.2102 2.1971 2.1871 1.9904 2.1652 2.3609 2.3674
2305.129 2.2153 2.1103 2.1042 1.9831 1.9644 1.9687 1.9749 1.7177 1.7032 1.9411
2324.418 2.049 2.0776 1.918 2.1515 2.2148 1.9951 1.7997 2.0476 2.2258 2.1993
2343.708 2.3687 2.1289 2.0334 2.0302 1.7971 1.7721 1.57964 1.6982 2.0826 2.0547
2362.998 1.9383 1.9019 1.948 2.0328 2.2318 2.0659 1.9678 2.0235 1.8307 2.1556
2382.288 2.2278 2.2579 2.2484 1.9604 2 2.2315 2.3264 2.3733 2.3926 2.2345
2401.578 2.1118 2.0667 2.0704 1.8911 1.7452 1.7667 1.655 1.62392 1.8126 1.9443
2420.867 2.2198 2.0689 1.965 1.8588 2.0662 2.4169 2.0154 2.0133 2.1854 2.2227
2440.157 2.2407 2.1152 2.0654 2.0948 2.051 2.2299 2.1531 2.0853 2.4309 2.4459
2459.447 2.5314 2.5253 2.4327 2.1951 1.8799 1.9528 1.9738 1.9127 2.0281 2.1388
2478.737 2.1664 2.0947 2.1493 2.2418 2.1289 2.1307 2.2438 2.4241 2.62 2.5463
2498.026 2.3021 2.1378 1.7831 1.9021 2.0933 2.0399 2.1852 2.3527 2.4711 2.4365
2517.316 2.2875 1.8844 2.0393 2.1203 1.9405 2.0971 1.8626 2.0128 2.2209 1.9181
2536.606 1.8417 2.0332 2.1964 2.2433 2.1586 2.249 2.3475 2.2531 2.3497 2.3609
2555.896 2.2908 2.2415 2.1818 1.8527 1.6655 1.7672 1.673 1.6699 1.9366 2.271
2575.186 2.2532 2.2036 2.3815 2.3365 2.0575 1.8809 2.1495 2.2004 1.868 1.8369
2594.475 1.9285 2.2233 2.1555 1.8507 2.2315 2.2819 2.021 2.0524 1.9545 2.0794
2613.765 2.3024 2.1523 1.9187 1.9986 2.0579 1.9684 2.2447 2.2387 2.243 2.5083
2633.055 2.1154 1.382 1.338 1.7244 1.9004 2.1171 2.1362 1.9636 1.8647 1.7368
2652.345 1.957 2.1162 1.9847 1.9065 1.7642 1.8511 1.61136 1.6882 2.0659 2.0051
2671.634 2.1958 2.4984 2.3609 1.8729 1.7764 1.7247 1.6875 1.7157 1.8902 1.9366
2690.924 1.9712 2.2113 1.9966 1.8931 2.134 2.0673 1.62768 1.6863 2.0741 2.68
2710.214 2.73 2.4087 2.3573 2.5011 2.4502 2.0906 2.1634 2.1952 2.1873 2.2601
2729.504 2.3378 2.119 2.0328 2.4882 2.58 2.347 2.1359 1.9446 1.7735 1.8494
2748.794 2.3306 2.2423 2.2105 2.3887 2.0721 2.2038 2.4643 2.1964 1.9151 1.9151
2768.083 2.1575 2.4215 2.364 2.0795 1.9772 1.855 1.9678 2.1223 2.0936 2.0471
2787.373 2.1826 2.0594 2.2565 2.5471 1.974 1.8612 2.0461 1.9172 2.1562 2.2381
2806.663 1.7921 1.8803 2.0738 1.8922 1.8265 1.8196 1.8437 2.1726 2.19 1.9967
2825.953 1.9994 1.9653 2.205 2.0733 1.903 1.9923 1.9142 2.0146 2.08 2.1869
2845.242 2.278 2.0921 1.9457 2.1189 2.2578 2.2931 2.26 2.5463 2.4794 2.0468
2864.532 2.184 2.2893 2.3119 2.1201 1.8963 2.1933 2.5356 2.55 1.9933 1.8717
2883.822 2.1511 2.1112 2.3646 2.331 2.0844 2.2949 2.157 1.8343 1.7972 1.7661
2903.112 1.9603 2.432 2.61 2.2542 1.7698 1.8186 2.221 2.2362 2.101 2.27
2922.401 2.3486 1.748 1.8243 2.0498 1.7722 1.6419 1.8915 2.58 2.59 2.3714
2941.691 2.4958 2.65 2.2885 1.861 1.8444 1.9647 2.0822 2.1075 2.2113 2.1445
2960.981 2.2831 2.68 2.86 2.4892 2.1889 2.1414 2.1135 2.0906 2.2389 2.4549
2980.271 2.2867 2.3963 2.2521 1.7974 1.59582 1.8884 2.58 2.3552 1.8257 2.1123
2999.561 2.63 2.1443 1.7084 2.1416 2.4353 2.3675 1.8899 1.65288 1.9636 1.8807
3018.850 1.7578 1.7638 1.752 1.927 2.2425 2.251 2.0344 2.0378 2.5253 2.63
3038.140 2.4522 2.2519 2.1722 2.2638 2.1024 2.4576 2.57 2.5463 2.3848 2.2346
3057.430 2.1401 2.2878 2.9 3.51 3.77 3.61 3.3 2.89 2.4954 2.67
3076.720 2.6 2.2251 2.4554 2.83 2.75 2.4391 2.56 2.59 2.1682 2.119
3096.009 2.224 2.2803 2.3573 2.3568 2.2901 2.1302 2.0028 1.9065 2.1437 1.792
3115.299 1.6018 1.7794 1.8131 2.1443 1.7949 1.7853 2.4689 2.1629 2.0952 2.522
3134.589 2.2775 1.6959 1.56352 1.4935 1.236 1.8355 2.061 1.8003 1.8337 1.7623
3153.879 1.9137 2.3003 2.037 1.7367 2.3114 2.75 2.5266 2.3102 2.428 2.6
3173.169 2.3597 2.2042 2.3233 2.4916 2.2064 1.8805 2.2227 2.4146 2.0615 2.022
3192.458 1.7466 1.61733 2.2363 2.3728 2.4863 2.1483 1.4656 1.132 1.31 1.337
3211.748 1.268 1.222 1.59582 1.8299 1.65475 2.3339 2.74 2.4829 2.3124 1.9868
3231.038 1.5282 1.87 2.3534 1.829 1.6741 2.142 2.3295 2.0968 2.0597 2.4439
3250.328 2.58 2.272 2.0469 2.2497 2.4946 2.5082 2.69 2.76 2.0315 2.1175
3269.617 2.301 2.4156 2.4466 2.56 2.5089 2.1631 2.59 2.121 2.1759 2.5412
3288.907 1.9152 1.9843 2.3683 2.177 1.9793 2.1794 2.0868 2.1011 2.1596 1.625
3308.197 1.9054 2.4466 2.4283 2.71 2.4562 2.104 2.2173 2.2864 2.67 2.1437
3327.487 1.6604 2.1029 2.0295 1.9972 2.1981 2.1827 2.1794 2.5183 2.3122 1.9376
3346.777 1.9309 1.452 1.434 1.6715 1.8252 2.0439 1.7918 1.61914 1.9055 2.1687
3366.066 2.2816 2.56 2.2786 1.60596 1.6981 2.0782 2.1111 2.4046 2.4245 2.0807
3385.356 2.1506 2.5145 2.3567 1.9219 1.7785 2.0028 2.4123 2.395 2.1505 2.2806
3404.646 2.478 2.2064 1.9648 2.1139 2.5009 2.3008 2.3777 1.8538 1.425 1.8329
3423.936 1.437 1.501 1.8518 1.9087 1.7366 1.7943 2.4667 2.502 2.1329 2.0454
3443.225 2.282 2.3316 2.2128 2.0583 1.7424 2.1459 2.1554 2.2955 2.1899 1.8241
3462.515 2.2441 2.95 3.05 2.61 2.4658 2.1258 2.1951 2.4001 2.2409 2.2285
3481.805 2.4435 2.74 2.6 2.2513 2.1339 2.1689 2.1228 1.63193 1.762 2.2097
3501.095 2.2819 2.0769 1.441 1.6589 2.3542 2.57 2.2572 2.0331 2.3469 2.1439
3520.385 1.4901 1.758 2.1922 2.0163 1.8255 1.7335 1.9442 2.2031 2.3108 2.2579
3539.674 2.4429 2.2029 2.0075 2.2413 1.7108 1.287 1.60326 1.8642 2.3607 2.67
3558.964 2.57 2.233 1.6651 1.8573 2.3324 2.1952 2.0271 1.9557 2.3222 2.3223
3578.254 2.279 2.4966 2.0627 2.112 2.0973 1.6065 1.65278 2.1966 2.59 2.2634
3597.544 1.8299 2.137 2.5009 2.4019 2.298 2.2722 2.243 2.0122 2.0536 2.2307
3616.833 1.6816 1.63239 2.473 2.64 2.5446 2.79 2.2871 1.8573 1.6947 1.7831
3636.123 1.8709 1.9603 2.1209 1.7583 1.7604 1.9181 1.8382 1.4951 1.441 1.6739
3655.413 2.0417 1.8763 1.548 1.9334 2.0585 2.0627 2.1755 2.4903 2.4634 2.2145
3674.703 2.2384 1.9932 2.1065 1.9203 1.61834 1.8179 1.63231 2.0656 2.78 2.2193
3693.993 1.7496 2.1895 2.3509 2.5119 2.3687 1.8789 1.8507 1.972 2.2172 2.77
3713.282 2.93 2.461 2.1295 2.1555 2.1229 2.153 2.4385 2.58 2.65 2.5194
3732.572 2.2969 2.0121 2.266 2.5362 2.031 1.7251 2.0645 2.342 2.0249 2.3954
3751.862 2.92 2.8 2.61 2.3474 2.2413 1.8826 1.7091 1.8174 2.0974 2.1845
3771.152 2.2594 2.0117 1.7967 2.0441 1.60358 1.65817 2.2904 2.5052 2.5317 2.2804
3790.441 2.439 2.4148 2.4037 3.12 2.5555 1.7633 1.8581 1.9749 1.9573 1.9138
3809.731 2.0587 2.3904 2.4893 2.57 2.61 1.88 1.212 1.6694 2.2402 2.2795
3829.021 2.5238 2.2524 1.8044 1.8291 1.6752 1.9118 2.1298 2.2397 2.3451 2.4998
3848.311 2.4845 2.0915 2.1547 2.1226 2.1371 2.3473 1.429 1.045 1.6702 1.322
3867.601 1.222 2.0001 2.72 2.73 2.84 2.63 2.1542 2.3311 2.85 2.91
3886.890 2.2707 2.4945 3.03 2.74 2.5378 2.87 3.19 3.08 2.5372 1.9996
3906.180 2.57 3 2.7 1.998 1.9797 2.56 2.4509 2.0265 1.4951 1.7363
3925.470 1.9101 2.0094 2.336 2.1417 1.63372 1.57069 1.9668 2.3544 2.0066 1.413
3944.760 1.9511 2.1895 2.0223 2.62 2.5436 1.8206 1.8954 2.0748 1.9105 2.1268
3964.049 2.3353 1.9886 1.9788 2.0615 1.6627 1.9099 2.4843 2.2757 1.7384 2.1303
3983.339 2.3212 1.9215 2.0452 2.3005 2.5332 2.73 2.65 2.1621 1.426 1.447
##END=
