##TITLE=4-Chlorocyclohexanol
##JCAMP-DX=4.24
##DATA TYPE=INFRARED SPECTRUM
##ORIGIN=EPA-IR VAPOR PHASE LIBRARY
##OWNER=SRD/NIST
Collection (C) 2018 copyright by the U.S. Secretary of Commerce
on behalf of the United States of America. All rights reserved.
##CAS REGISTRY NO=30485-71-3
##MOLFORM=C 6 H 11 Cl O
##$NIST SOURCE=MSDC-IR
##STATE=gas
##XUNITS=1/CM
##YUNITS=ABSORBANCE
##XFACTOR=1.
##YFACTOR=0.001
##DELTAX=1.92898
##FIRSTX=549.8
##LASTX=4000.7
##FIRSTY=0.407
##MAXX=4000.7
##MINX=549.759
##MAXY=0.032034
##MINY=0
##NPOINTS=1790
##XYDATA=(X++(Y..Y))
549.759 0.407 0.8144 0.9301 0.4737 0.185 0.401 0.6122 0.5187 0.8124 1.4202
569.049 1.634 1.654 1.754 2.074 2.224 2.304 2.514 2.384 2.334 2.244
588.339 1.754 1.734 1.4556 1.0719 0.9909 0.8676 0.60034 0.483 0.56149 0.56022
607.628 0.6533 0.6799 0.6424 0.4877 0.376 0.60024 0.6059 0.4626 0.50396 0.56562
626.918 0.4114 0.238 0.4782 0.58494 0.4043 0.105 0.289 0.8117 0.9636 1.0279
646.208 1.0828 1.2399 1.4103 1.1067 0.8715 1.0078 1.0764 1.1838 1.3574 1.574
665.498 1.4934 1.4554 1.564 1.4983 1.2906 1.1039 0.6475 0.404 0.7272 0.8234
684.787 0.7416 0.6193 0.5743 0.7036 0.59822 0.624 0.914 1.2399 1.3658 1.3734
704.077 1.744 2.034 2.364 2.764 3.044 3.124 3.144 3.474 3.764 3.574
723.367 3.254 3.064 3.034 2.684 2.014 1.864 1.864 1.574 1.2315 1.534
742.657 1.794 1.844 2.194 2.254 2.384 2.834 3.144 3.484 3.554 3.284
761.947 3.524 3.744 3.644 3.414 3.134 2.994 2.704 2.114 1.584 1.2679
781.236 1.1375 1.2161 1.0974 0.8078 0.59293 0.57328 0.7595 0.9788 1.0206 0.747
800.526 0.7613 1.0166 0.9889 0.8654 0.7913 0.8105 0.8319 0.9795 1.1783 1.0144
819.816 0.8649 0.8608 0.8226 0.7502 0.804 1.0605 1.0958 1.1602 1.3581 1.4505
839.106 1.784 2.304 2.794 3.254 3.754 4.264 4.974 5.474 5.884 6.494
858.395 6.754 6.714 6.604 6.294 5.904 5.214 4.484 4.004 3.314 2.864
877.685 2.644 2.514 2.434 2.384 2.444 2.424 2.204 2.074 2.404 2.864
896.975 2.884 2.704 2.354 2.334 2.254 1.924 1.934 1.914 1.774 1.544
916.265 1.504 1.564 1.483 1.584 1.704 1.534 1.624 1.884 1.994 2.024
935.555 2.054 2.394 2.824 3.194 3.544 3.894 4.454 5.244 5.944 6.444
954.844 6.884 7.654 8.584 9.104 9.444 9.724 9.694 9.374 9.084 8.654
974.134 8.054 7.444 6.914 6.454 5.984 5.574 5.184 5.144 4.974 4.694
993.424 4.744 4.694 4.674 4.324 4.104 4.044 3.714 3.604 3.494 3.374
1012.714 3.414 3.554 3.754 4.264 4.734 4.624 4.824 5.174 5.114 5.094
1032.003 4.834 4.644 4.794 5.224 5.714 5.994 6.324 7.104 7.944 8.524
1051.293 9.234 10.464 11.814 12.534 13.154 13.914 15.294 16.174 16.014 15.524
1070.583 15.234 14.814 13.744 12.714 11.324 9.814 8.884 8.234 6.734 5.794
1089.873 5.784 5.594 5.224 4.924 4.724 4.504 4.554 4.564 4.654 4.134
1109.163 3.644 4.014 3.884 3.484 3.764 4.064 4.244 4.044 3.764 3.824
1128.452 3.464 2.874 2.754 3.184 2.884 2.424 2.714 2.794 2.954 3.264
1147.742 2.974 2.784 2.884 3.134 2.994 2.854 2.664 2.354 2.584 2.664
1167.032 2.684 2.714 2.714 2.804 2.624 2.414 2.524 2.774 2.824 2.694
1186.322 2.674 2.764 2.954 3.114 3.444 3.834 3.904 4.124 4.244 4.394
1205.611 4.814 5.044 5.394 5.334 5.094 4.874 4.854 5.004 4.864 5.224
1224.901 5.234 4.864 4.704 4.614 4.824 4.794 4.924 5.234 5.424 5.794
1244.191 5.984 6.134 6.424 6.714 6.934 7.124 7.254 7.644 8.024 7.844
1263.481 7.534 7.434 7.444 7.214 6.794 6.264 5.954 5.724 5.344 4.944
1282.771 4.534 4.264 4.184 3.994 3.614 3.484 3.394 3.244 3.134 2.984
1302.060 2.984 2.994 2.884 2.814 2.794 2.754 2.784 2.824 2.854 2.884
1321.350 2.874 2.894 2.934 2.944 2.964 2.984 2.994 3.004 3.034 3.074
1340.640 3.174 3.394 3.684 3.924 4.174 4.424 4.644 4.874 5.124 5.334
1359.930 5.454 5.514 5.574 5.594 5.534 5.464 5.344 5.174 5.054 4.854
1379.219 4.594 4.354 4.124 3.964 3.744 3.524 3.374 3.184 2.924 2.714
1398.509 2.594 2.474 2.324 2.174 2.114 2.094 2.004 1.974 2.054 2.084
1417.799 2.184 2.374 2.584 2.854 3.204 3.584 3.904 4.324 4.824 5.284
1437.089 5.694 6.124 6.514 6.764 6.984 7.174 7.314 7.104 6.604 6.084
1456.378 5.684 5.294 4.834 4.364 3.964 3.554 3.094 2.754 2.474 2.164
1475.668 1.854 1.604 1.4407 1.3663 1.3153 1.2232 1.0891 0.986 0.996 0.9392
1494.958 0.8155 0.8056 0.8717 0.8144 0.7547 0.8418 0.8327 0.7367 0.7614 0.7073
1514.248 0.6424 0.6717 0.6759 0.7271 0.7032 0.6604 0.6546 0.6181 0.58404 0.6056
1533.538 0.6661 0.6452 0.6514 0.7301 0.8192 0.7841 0.7013 0.6463 0.6627 0.6868
1552.827 0.6644 0.58375 0.608 0.7916 0.7347 0.6443 0.57712 0.53898 0.6048 0.51916
1572.117 0.512107 0.59029 0.6435 0.6454 0.51455 0.36 0.382 0.6052 0.6679 0.55032
1591.407 0.54258 0.56063 0.5533 0.56258 0.5785 0.6177 0.51313 0.4104 0.355 0.367
1610.697 0.4358 0.4333 0.4806 0.5148 0.56688 0.55422 0.4269 0.4498 0.4844 0.4791
1629.986 0.53423 0.4789 0.52164 0.53711 0.4178 0.4646 0.52528 0.4913 0.49532 0.4939
1649.276 0.4856 0.53649 0.56278 0.4302 0.37 0.4681 0.4648 0.4206 0.377 0.4165
1668.566 0.506158 0.4761 0.4527 0.4696 0.4239 0.402 0.381 0.35 0.4189 0.4844
1687.856 0.5219 0.49498 0.4201 0.4773 0.50178 0.4791 0.49431 0.4895 0.49658 0.4594
1707.146 0.405 0.373 0.403 0.4459 0.49808 0.58289 0.56004 0.4437 0.394 0.4458
1726.435 0.4561 0.4322 0.393 0.4 0.4888 0.4843 0.4631 0.4798 0.4779 0.506005
1745.725 0.504285 0.457 0.464 0.4062 0.315 0.317 0.387 0.4534 0.4761 0.4543
1765.015 0.4171 0.4182 0.4292 0.4922 0.4461 0.389 0.4382 0.4344 0.4572 0.4903
1784.305 0.4787 0.4313 0.4213 0.4793 0.4798 0.4721 0.478 0.4749 0.4762 0.4432
1803.594 0.4183 0.4628 0.4776 0.448 0.4753 0.4094 0.39 0.4243 0.4513 0.4461
1822.884 0.395 0.358 0.389 0.5149 0.54186 0.54303 0.4773 0.4319 0.506406 0.4791
1842.174 0.43 0.4517 0.4796 0.50807 0.52031 0.4524 0.4067 0.4509 0.4513 0.4448
1861.464 0.4138 0.391 0.402 0.417 0.482 0.513059 0.4802 0.4497 0.4513 0.4716
1880.754 0.4681 0.4507 0.4544 0.4158 0.402 0.4164 0.4913 0.54837 0.54116 0.53344
1900.043 0.52804 0.547 0.54549 0.59843 0.6283 0.56956 0.58156 0.6226 0.57232 0.57449
1919.333 0.58509 0.58848 0.6232 0.6384 0.6186 0.56335 0.54054 0.4728 0.4195 0.505937
1938.623 0.53468 0.51621 0.52686 0.51554 0.513064 0.54382 0.52329 0.4278 0.4302 0.4776
1957.913 0.4263 0.4047 0.4513 0.4866 0.54176 0.5791 0.49664 0.4253 0.4576 0.45
1977.202 0.4575 0.488 0.50586 0.4584 0.396 0.4118 0.4799 0.508353 0.4689 0.4153
1996.492 0.399 0.4449 0.4876 0.4139 0.341 0.4113 0.4605 0.4455 0.4452 0.492
2015.782 0.486 0.50167 0.51251 0.4677 0.4552 0.4785 0.52068 0.52586 0.55519 0.49525
2035.072 0.4257 0.4851 0.504383 0.449 0.4524 0.4397 0.4586 0.554 0.55307 0.51213
2054.362 0.4784 0.431 0.364 0.385 0.4633 0.4669 0.4525 0.504456 0.49812 0.413
2073.651 0.38 0.4154 0.481 0.51869 0.54301 0.55509 0.4698 0.4094 0.4727 0.506602
2092.941 0.54756 0.56689 0.52347 0.4695 0.52107 0.55399 0.56313 0.60019 0.508001 0.4813
2112.231 0.4837 0.4889 0.50276 0.593 0.59823 0.504204 0.507781 0.56448 0.57337 0.5247
2131.521 0.50203 0.4815 0.5708 0.6171 0.6106 0.6552 0.60156 0.506704 0.56945 0.6089
2150.810 0.51832 0.51441 0.57292 0.59853 0.59198 0.55979 0.56069 0.6291 0.58019 0.4767
2170.100 0.4826 0.4884 0.4883 0.5027 0.51874 0.56399 0.6012 0.60219 0.5856 0.56625
2189.390 0.5435 0.53195 0.56169 0.54082 0.58721 0.60088 0.55018 0.59848 0.6474 0.6384
2208.680 0.658 0.6521 0.55979 0.56497 0.58092 0.6075 0.57844 0.53499 0.52102 0.52732
2227.970 0.60352 0.6193 0.6125 0.632 0.6408 0.58471 0.53531 0.51941 0.510969 0.57482
2247.259 0.5453 0.49839 0.5278 0.509797 0.51426 0.53685 0.58338 0.60189 0.55717 0.513683
2266.549 0.55545 0.6069 0.58153 0.53379 0.50081 0.4793 0.49532 0.465 0.4506 0.56543
2285.839 0.57481 0.55045 0.53145 0.54595 0.6307 0.58579 0.5266 0.4808 0.4793 0.54871
2305.129 0.57158 0.57694 0.6081 0.510585 0.50005 0.613 0.54467 0.511724 0.58816 0.5399
2324.418 0.54656 0.6175 0.57632 0.52908 0.53948 0.56272 0.54455 0.57941 0.53666 0.4921
2343.708 0.52423 0.6237 0.73 0.7197 0.60295 0.4615 0.4605 0.511357 0.49407 0.4854
2362.998 0.59336 0.6442 0.558 0.54963 0.6472 0.6624 0.59631 0.58456 0.6284 0.6241
2382.288 0.58838 0.60064 0.53665 0.57283 0.6651 0.60002 0.53724 0.49833 0.51905 0.55351
2401.578 0.56094 0.57342 0.6231 0.6221 0.53629 0.50196 0.54099 0.6359 0.689 0.6329
2420.867 0.6427 0.7094 0.6344 0.57367 0.5169 0.4417 0.4558 0.54814 0.6245 0.6474
2440.157 0.6417 0.52641 0.510994 0.508254 0.4909 0.56595 0.55538 0.53993 0.54616 0.56583
2459.447 0.626 0.6244 0.52027 0.466 0.5494 0.58826 0.6088 0.6555 0.6207 0.6476
2478.737 0.6783 0.55585 0.5721 0.58925 0.4899 0.51946 0.605 0.655 0.6753 0.6927
2498.026 0.6787 0.56734 0.6202 0.7223 0.59773 0.4737 0.4358 0.4843 0.55756 0.5886
2517.316 0.57796 0.51922 0.4639 0.4691 0.507317 0.54956 0.6224 0.6724 0.6271 0.55505
2536.606 0.56247 0.6077 0.653 0.7073 0.6769 0.6708 0.6657 0.55196 0.53966 0.51039
2555.896 0.51431 0.5694 0.5512 0.54967 0.4822 0.52012 0.6187 0.6892 0.6831 0.6102
2575.186 0.58826 0.60165 0.53598 0.4755 0.57866 0.6128 0.6409 0.6532 0.6081 0.6404
2594.475 0.6011 0.6174 0.6647 0.6404 0.6842 0.7156 0.6693 0.6895 0.8184 0.7648
2613.765 0.6694 0.7807 0.8321 0.7584 0.8324 0.8552 0.8146 0.8221 0.7758 0.789
2633.055 0.7683 0.7944 0.8606 0.8927 0.7796 0.7982 0.8827 0.8599 0.9159 0.8722
2652.345 0.9276 0.932 0.8416 0.9357 1.0458 1.004 0.9054 0.926 0.9594 1.0076
2671.634 1.0871 1.0676 0.9691 1.0206 1.1087 1.0758 1.0992 1.1354 1.1048 1.1656
2690.924 1.156 1.0829 1.1098 1.017 1.0077 1.0653 1.0195 0.8904 0.8707 0.9542
2710.214 0.9501 0.9437 0.9162 0.773 0.7512 0.8291 0.7771 0.7512 0.8408 0.8773
2729.504 0.8396 0.8116 0.8382 0.8303 0.8635 0.9436 0.9367 0.866 0.8313 0.8343
2748.794 0.8513 0.8832 0.8386 0.9089 0.9314 0.8955 0.8657 0.9225 1.0927 1.0912
2768.083 1.0042 1.0926 1.1726 1.087 1.036 0.9829 0.9825 0.9794 1.012 1.0732
2787.373 1.0522 1.0444 1.0282 1.1502 1.1808 1.0519 1.0341 1.0387 1.0548 1.1814
2806.663 1.2244 1.131 1.1369 1.2404 1.3361 1.3962 1.3299 1.381 1.614 1.624
2825.953 1.4956 1.634 1.824 2.114 2.554 2.714 2.934 3.284 3.754 4.334
2845.242 4.814 5.344 5.934 6.474 7.074 7.664 8.004 8.294 8.624 8.944
2864.532 9.034 8.984 9.244 9.384 9.384 9.524 9.674 9.854 9.994 10.164
2883.822 10.404 10.664 10.854 11.054 11.404 11.664 11.784 11.914 12.054 12.254
2903.112 12.434 12.604 12.894 13.254 13.564 13.914 14.444 15.064 15.564 16.104
2922.401 16.694 17.204 17.554 17.754 18.144 18.904 19.734 20.674 21.894 23.074
2941.691 24.274 25.654 27.174 28.624 29.804 30.964 31.814 32.034 31.634 30.824
2960.981 29.694 28.274 26.674 24.804 22.484 19.404 16.364 14.074 11.914 9.954
2980.271 7.974 6.144 4.854 3.864 2.984 2.404 2.164 1.684 1.3042 1.2241
2999.561 1.084 0.9372 0.9084 0.8458 0.6691 0.6597 0.7462 0.7065 0.6284 0.57868
3018.850 0.57788 0.60112 0.6109 0.7032 0.63 0.513844 0.54833 0.4654 0.53163 0.55977
3038.140 0.4789 0.507995 0.4428 0.366 0.4224 0.49773 0.4502 0.509592 0.6569 0.59603
3057.430 0.398 0.328 0.4362 0.4862 0.498 0.4335 0.423 0.4917 0.399 0.389
3076.720 0.369 0.4047 0.4889 0.4058 0.398 0.4899 0.4079 0.4729 0.6415 0.4776
3096.009 0.348 0.4463 0.51558 0.55532 0.6056 0.516 0.4206 0.375 0.263 0.36
3115.299 0.4927 0.337 0.291 0.397 0.4485 0.313 0.296 0.382 0.399 0.327
3134.589 0.265 0.237 0.232 0.248 0.258 0.4208 0.52824 0.4123 0.329 0.4444
3153.879 0.383 0.231 0.265 0.34 0.344 0.311 0.346 0.353 0.337 0.268
3173.169 0.149 0.172 0.212 0.17 0.12 0.064 0.173 0.346 0.28 0.313
3192.458 0.4062 0.392 0.329 0.365 0.4391 0.386 0.365 0.38 0.31 0.199
3211.748 0.225 0.312 0.366 0.242 0.245 0.394 0.282 0.217 0.4118 0.365
3231.038 0.32 0.401 0.322 0.358 0.387 0.353 0.304 0.312 0.327 0.226
3250.328 0.188 0.244 0.299 0.26 0.295 0.356 0.287 0.29 0.4222 0.324
3269.617 0.172 0.244 0.266 0.342 0.4084 0.174 0.254 0.56411 0.4898 0.4102
3288.907 0.301 0.246 0.285 0.4125 0.4448 0.294 0.327 0.379 0.323 0.304
3308.197 0.4411 0.4085 0.222 0.214 0.343 0.505917 0.4568 0.288 0.169 0.234
3327.487 0.403 0.332 0.415 0.35 0.172 0.149 0.114 0.229 0.157 0.169
3346.777 0.203 0.228 0.327 0.299 0.221 0.338 0.4688 0.323 0.246 0.261
3366.066 0.388 0.408 0.274 0.298 0.369 0.318 0.281 0.373 0.391 0.4055
3385.356 0.506624 0.4058 0.318 0.4075 0.383 0.322 0.253 0.315 0.55727 0.6513
3404.646 0.4874 0.50003 0.4432 0.258 0.357 0.327 0.289 0.235 0.118 0.274
3423.936 0.34 0.261 0.32 0.44 0.4915 0.55296 0.52087 0.423 0.486 0.6262
3443.225 0.6555 0.4059 0.226 0.365 0.385 0.4332 0.57993 0.49764 0.295 0.289
3462.515 0.4409 0.454 0.4774 0.4832 0.4824 0.4375 0.299 0.205 0 0.003
3481.805 0.298 0.334 0.389 0.505779 0.4495 0.398 0.4494 0.4685 0.299 0.272
3501.095 0.328 0.4679 0.57625 0.4121 0.279 0.265 0.4283 0.358 0.363 0.4497
3520.385 0.383 0.4254 0.389 0.226 0.139 0.175 0.182 0.387 0.372 0.313
3539.674 0.384 0.324 0.347 0.369 0.341 0.38 0.361 0.303 0.228 0.175
3558.964 0.264 0.282 0.298 0.151 0.045 0.093 0.156 0.252 0.276 0.337
3578.254 0.4241 0.4575 0.344 0.317 0.261 0.179 0.229 0.294 0.385 0.372
3597.544 0.242 0.383 0.403 0.361 0.4483 0.336 0.4739 0.6477 0.54612 0.4895
3616.833 0.60383 0.6966 0.8133 0.7293 0.9197 1.3313 1.2426 1.316 1.754 2.034
3636.123 2.204 2.494 2.764 3.194 3.474 3.454 3.774 4.234 4.294 4.314
3655.413 4.394 4.254 3.874 3.354 3.094 2.954 2.484 2.054 1.734 1.3844
3674.703 1.2123 1.1509 1.0758 0.8794 0.6041 0.6613 0.7851 0.6733 0.54548 0.4222
3693.993 0.4803 0.56095 0.53392 0.4801 0.36 0.338 0.312 0.216 0.291 0.379
3713.282 0.382 0.4921 0.503486 0.503793 0.4546 0.4223 0.49806 0.4391 0.385 0.4147
3732.572 0.299 0.323 0.60387 0.58005 0.4298 0.36 0.38 0.4871 0.6119 0.5906
3751.862 0.50122 0.4228 0.26 0.393 0.53547 0.357 0.323 0.4463 0.54801 0.4696
3771.152 0.336 0.327 0.4201 0.51649 0.5556 0.4885 0.4464 0.4522 0.317 0.326
3790.441 0.392 0.433 0.4548 0.382 0.323 0.52263 0.58484 0.4197 0.4376 0.4114
3809.731 0.369 0.322 0.28 0.351 0.387 0.4716 0.56079 0.54342 0.52156 0.60189
3829.021 0.49615 0.56365 0.807 0.6779 0.58536 0.6861 0.671 0.4734 0.51794 0.6519
3848.311 0.6289 0.54007 0.4345 0.4912 0.52298 0.54004 0.4936 0.399 0.4255 0.315
3867.601 0.265 0.293 0.307 0.36 0.295 0.26 0.341 0.349 0.336 0.281
3886.890 0.228 0.4676 0.6818 0.7592 0.60302 0.4389 0.4068 0.257 0.15 0.361
3906.180 0.401 0.224 0.236 0.183 0.303 0.401 0.4342 0.367 0.395 0.361
3925.470 0.16 0.267 0.348 0.344 0.4492 0.335 0.195 0.248 0.341 0.4174
3944.760 0.424 0.4345 0.38 0.343 0.315 0.403 0.4824 0.376 0.246 0.325
3964.049 0.50206 0.4043 0.275 0.278 0.379 0.49967 0.4573 0.36 0.4459 0.50078
3983.339 0.216 0.089 0.341 0.4767 0.4054 0.329 0.326 0.211 0.245 0.266
##END=
