##TITLE=Acephate
##JCAMP-DX=4.24
##DATA TYPE=INFRARED SPECTRUM
##ORIGIN=NIST Mass Spectrometry Data Center
##OWNER=NIST Standard Reference Data Program
Collection (C) 2018 copyright by the U.S. Secretary of Commerce
on behalf of the United States of America. All rights reserved.
##CAS REGISTRY NO=30560-19-1
##MOLFORM=C 4 H 10 N O 3 P S
##$NIST SOURCE=MSDC-IR
##SPECTROMETER/DATA SYSTEM=HP-GC/MS/IRD
##STATE=gas
##XUNITS=1/CM
##YUNITS=ABSORBANCE
##XFACTOR=1.0
##YFACTOR=0.000002500
##DELTAX=4.0
##FIRSTX=550.0
##LASTX=3846.0
##FIRSTY=0.004325
##MAXX=3846
##MINX=550
##MAXY=0.025
##MINY=0
##NPOINTS=825
##XYDATA=(X++(Y..Y))
550.0 1730 1638 1614 1765 1861 1982 2129 2300 2450 2576
590.0 2675 2709 2759 2825 2897 3004 3072 3069 2956 2773
630.0 2548 2287 2009 1749 1507 1270 1059 883 726 580
670.0 483 418 379 366 378 405 397 365 318 219
710.0 117 70 53 36 49 72 99 149 234 346
750.0 496 693 915 1148 1409 1711 2044 2388 2709 2948
790.0 3060 3000 2740 2329 1868 1434 1081 867 792 807
830.0 872 947 1005 1019 975 861 706 547 397 296
870.0 244 209 189 194 211 237 296 360 429 512
910.0 636 824 1083 1457 1957 2546 3168 3705 4016 3993
950.0 3649 3111 2552 2133 1902 1801 1800 1896 2042 2206
990.0 2392 2599 2828 3059 3275 3479 3731 4112 4738 5690
1030.0 6907 8254 9392 10000 9892 9058 7702 6179 4842 3816
1070.0 3032 2458 2044 1707 1446 1281 1171 1077 990 939
1110.0 897 860 807 764 710 649 603 579 563 556
1150.0 572 620 689 789 942 1138 1389 1661 1902 2071
1190.0 2155 2140 2084 2030 2001 2055 2215 2512 2962 3533
1230.0 4193 4893 5504 5903 6040 5924 5661 5426 5363 5536
1270.0 5866 6193 6288 5918 5159 4215 3246 2425 1812 1406
1310.0 1193 1113 1118 1161 1224 1275 1362 1558 1899 2326
1350.0 2715 2969 3057 3000 2916 2919 3060 3319 3656 4020
1390.0 4380 4715 4972 5055 4859 4378 3709 2993 2380 1927
1430.0 1610 1400 1272 1191 1120 1053 962 867 787 697
1470.0 619 553 499 450 401 352 331 311 292 274
1510.0 268 270 269 270 275 279 274 271 272 272
1550.0 268 256 242 239 235 221 202 188 182 173
1590.0 164 153 145 139 135 133 127 127 135 139
1630.0 152 178 208 236 261 269 257 254 248 236
1670.0 244 267 306 366 436 528 616 727 879 1095
1710.0 1436 1943 2743 3955 5574 7402 9026 9988 9930 8888
1750.0 7288 5641 4268 3234 2460 1875 1446 1135 910 747
1790.0 638 561 501 448 406 360 323 291 263 242
1830.0 218 193 180 161 136 120 102 82 68 62
1870.0 51 47 36 26 25 24 19 15 17 10
1910.0 9 11 5 0 3 12 15 13 12 15
1950.0 18 22 25 23 21 24 27 26 28 37
1990.0 39 37 37 42 46 48 53 54 55 56
2030.0 53 53 53 49 57 57 50 45 39 39
2070.0 41 42 42 40 42 47 41 36 42 49
2110.0 56 58 57 58 56 54 41 41 49 55
2150.0 51 48 47 49 53 46 43 46 43 44
2190.0 46 45 49 55 59 56 56 57 53 57
2230.0 63 63 71 74 75 73 70 68 62 61
2270.0 63 60 60 62 63 60 57 56 57 48
2310.0 45 50 44 39 37 37 36 35 38 35
2350.0 28 23 17 14 23 23 21 32 41 48
2390.0 50 49 46 47 53 48 41 43 42 39
2430.0 41 41 45 41 41 44 38 37 42 46
2470.0 53 54 53 54 54 51 55 51 47 47
2510.0 50 55 57 61 60 49 49 51 51 50
2550.0 49 47 48 45 49 55 51 50 51 47
2590.0 45 51 56 59 60 61 61 55 56 66
2630.0 64 61 58 55 53 48 50 50 44 45
2670.0 50 49 44 43 47 51 53 49 47 50
2710.0 53 50 50 49 59 59 51 54 48 47
2750.0 51 57 56 53 54 50 51 54 50 56
2790.0 71 73 75 76 83 91 105 117 126 149
2830.0 183 212 248 300 383 473 551 603 597 545
2870.0 445 351 291 265 254 260 267 276 302 340
2910.0 375 403 441 489 558 666 861 1105 1329 1520
2950.0 1649 1726 1725 1644 1494 1271 1011 795 658 578
2990.0 543 548 543 548 556 562 571 572 558 542
3030.0 513 467 417 377 344 320 296 284 283 269
3070.0 260 262 264 259 250 241 225 218 214 200
3110.0 191 184 165 138 122 118 133 132 115 115
3150.0 113 96 85 82 84 87 85 78 71 71
3190.0 66 65 65 61 69 59 49 64 58 57
3230.0 72 64 57 51 44 51 51 47 53 53
3270.0 58 60 45 46 71 70 59 63 45 43
3310.0 57 57 59 65 68 81 97 102 103 118
3350.0 130 147 182 229 302 407 513 621 733 838
3390.0 898 910 877 819 743 663 603 556 542 568
3430.0 598 615 592 537 467 405 353 299 261 223
3470.0 207 192 173 152 128 112 116 118 104 92
3510.0 80 72 76 66 57 61 63 59 49 58
3550.0 64 55 40 37 37 42 46 55 55 41
3590.0 46 66 60 44 54 53 48 50 53 58
3630.0 69 90 95 99 102 108 105 101 109 102
3670.0 87 79 69 61 51 55 66 71 64 49
3710.0 50 46 36 38 32 36 37 28 31 47
3750.0 73 63 50 53 60 58 51 68 75 82
3790.0 82 68 63 64 65 56 58 60 58 61
3830.0 62 67 61 56 57
##END=
