##TITLE=Perfluorodecalin
##JCAMP-DX=4.24
##DATA TYPE=INFRARED SPECTRUM
##ORIGIN=NIST Mass Spectrometry Data Center
##OWNER=NIST Standard Reference Data Program
Collection (C) 2018 copyright by the U.S. Secretary of Commerce
on behalf of the United States of America. All rights reserved.
##CAS REGISTRY NO=306-94-5
##MOLFORM=C 10 F 18
##$NIST SOURCE=MSDC-IR
##SPECTROMETER/DATA SYSTEM=HP-GC/MS/IRD
##STATE=gas
##XUNITS=1/CM
##YUNITS=ABSORBANCE
##XFACTOR=1.0
##YFACTOR=0.000003500
##DELTAX=4.0
##FIRSTX=550.0
##LASTX=3846.0
##FIRSTY=0.000249
##MAXX=3846
##MINX=550
##MAXY=0.035
##MINY=0
##NPOINTS=825
##XYDATA=(X++(Y..Y))
550.0 71 64 13 74 169 245 266 257 244 240
590.0 301 485 664 652 497 426 430 343 239 182
630.0 168 208 254 261 243 280 446 646 615 401
670.0 252 178 129 99 54 21 28 45 38 27
710.0 27 20 5 5 0 2 16 27 35 27
750.0 34 53 94 148 221 296 324 285 222 180
790.0 169 210 269 402 728 1341 2075 2326 1760 951
830.0 462 262 184 142 133 179 323 527 582 427
870.0 268 185 130 99 99 106 110 109 122 153
910.0 174 201 274 379 552 863 1430 2406 3655 4349
950.0 3702 2296 1260 804 631 615 772 1089 1356 1297
990.0 976 705 611 641 704 751 801 929 1259 1885
1030.0 2851 3868 4211 3578 2628 2108 2097 2279 2202 1706
1070.0 1121 727 486 342 267 211 187 190 201 203
1110.0 210 236 260 267 281 318 353 412 512 689
1150.0 855 907 977 1251 1816 2545 3206 3721 3993 3837
1190.0 3410 3001 2611 2208 1915 1873 2099 2566 3242 4009
1230.0 4908 6348 8373 10000 9994 8101 5337 3117 1962 1529
1270.0 1431 1457 1439 1378 1426 1691 2185 2771 3135 3094
1310.0 2869 2758 2700 2426 1900 1367 993 745 573 463
1350.0 381 318 279 247 219 202 197 190 174 161
1390.0 151 142 133 122 114 110 106 94 80 75
1430.0 67 63 60 57 60 55 49 58 61 55
1470.0 57 62 59 53 49 47 47 48 50 44
1510.0 42 46 43 41 34 26 30 35 35 32
1550.0 26 27 28 30 35 31 29 34 30 31
1590.0 32 31 30 32 33 32 31 21 18 27
1630.0 31 31 24 25 34 31 31 32 28 27
1670.0 26 27 26 28 26 25 32 31 29 26
1710.0 22 20 20 29 29 25 20 18 19 18
1750.0 19 21 16 20 33 36 34 27 26 29
1790.0 30 27 30 29 21 18 20 21 24 36
1830.0 38 34 31 34 34 32 29 26 19 17
1870.0 24 24 22 20 22 25 24 21 22 30
1910.0 35 31 30 32 32 21 12 17 20 13
1950.0 9 8 13 15 10 11 14 20 22 17
1990.0 21 20 15 19 18 11 9 12 18 21
2030.0 21 17 17 23 21 13 9 4 2 3
2070.0 7 15 17 9 6 7 7 11 11 13
2110.0 15 9 13 11 0 3 11 15 23 17
2150.0 13 17 11 8 15 12 11 14 13 11
2190.0 14 28 29 23 23 19 14 21 29 29
2230.0 24 16 14 25 21 8 7 12 20 18
2270.0 17 23 25 22 17 17 24 31 24 18
2310.0 29 38 34 33 34 35 37 35 39 38
2350.0 29 28 31 33 29 32 39 37 43 45
2390.0 42 44 45 44 43 43 46 45 43 47
2430.0 52 48 44 47 38 37 42 38 31 35
2470.0 41 34 30 33 38 43 50 49 53 56
2510.0 49 39 35 38 41 32 24 36 47 47
2550.0 42 41 36 37 38 24 19 20 20 29
2590.0 30 26 25 23 23 21 16 12 18 20
2630.0 18 24 17 12 14 11 10 8 10 13
2670.0 7 2 12 15 6 0 6 9 5 3
2710.0 8 9 10 16 9 9 13 18 31 31
2750.0 20 14 14 22 11 0 15 17 17 13
2790.0 2 7 21 30 31 19 16 20 19 23
2830.0 19 22 38 48 41 40 46 49 59 57
2870.0 66 70 64 52 48 57 63 60 56 53
2910.0 47 54 59 52 40 36 47 52 55 57
2950.0 52 50 66 62 61 81 69 51 45 39
2990.0 48 57 51 58 47 42 51 39 34 46
3030.0 52 40 44 52 46 33 37 47 52 51
3070.0 44 50 53 39 33 41 43 42 39 34
3110.0 36 28 19 18 19 22 24 25 34 41
3150.0 41 34 27 25 24 29 40 42 40 41
3190.0 30 19 28 41 49 34 33 48 50 34
3230.0 13 17 21 23 23 13 17 29 25 25
3270.0 22 8 17 27 35 32 30 36 34 41
3310.0 37 26 25 32 23 33 47 47 32 21
3350.0 29 33 20 14 27 33 41 50 44 38
3390.0 46 54 58 50 32 44 45 34 45 46
3430.0 42 39 49 48 25 20 27 43 54 48
3470.0 49 56 63 53 49 59 44 37 56 62
3510.0 51 46 55 48 37 53 60 48 29 20
3550.0 16 22 39 45 43 51 56 48 37 24
3590.0 29 40 40 39 31 23 22 8 0 16
3630.0 43 47 27 29 33 32 22 28 50 39
3670.0 26 49 64 26 17 34 30 34 37 34
3710.0 29 30 31 35 34 40 49 48 53 49
3750.0 38 41 41 42 42 31 31 40 44 32
3790.0 19 15 5 20 37 39 38 39 40 42
3830.0 39 40 59 45 37
##END=
