##TITLE=1,6-Heptadiene
##JCAMP-DX=4.24
##DATA TYPE=INFRARED SPECTRUM
##ORIGIN=NIST Mass Spectrometry Data Center
##OWNER=NIST Standard Reference Data Program
Collection (C) 2018 copyright by the U.S. Secretary of Commerce
on behalf of the United States of America. All rights reserved.
##CAS REGISTRY NO=3070-53-9
##MOLFORM=C 7 H 12
##$NIST SOURCE=MSDC-IR
##SPECTROMETER/DATA SYSTEM=HP-GC/MS/IRD
##STATE=gas
##XUNITS=1/CM
##YUNITS=ABSORBANCE
##XFACTOR=1.0
##YFACTOR=0.000002800
##DELTAX=4.0
##FIRSTX=550.0
##LASTX=3846.0
##FIRSTY=0.001226
##MAXX=3846
##MINX=550
##MAXY=0.028
##MINY=0
##NPOINTS=825
##XYDATA=(X++(Y..Y))
550.0 438 305 241 247 212 190 176 160 198 251
590.0 274 306 384 481 531 608 712 787 848 896
630.0 919 918 902 857 750 656 592 523 450 391
670.0 336 277 252 224 188 147 95 95 101 72
710.0 63 57 45 29 0 7 29 46 66 85
750.0 105 132 140 138 160 148 112 115 126 101
790.0 86 84 84 94 100 124 152 178 217 252
830.0 299 366 435 495 558 628 687 753 822 902
870.0 1008 1129 1303 1557 1915 2399 3039 3883 4942 6009
910.0 6781 7171 7091 6522 5536 4440 3533 2854 2359 1980
950.0 1753 1652 1628 1667 1776 1958 2213 2537 2870 3132
990.0 3287 3282 3095 2779 2372 1979 1658 1390 1175 1025
1030.0 902 794 697 610 566 533 481 432 389 351
1070.0 324 301 271 242 222 219 236 243 251 260
1110.0 254 255 243 248 252 242 222 201 202 180
1150.0 149 128 99 93 102 94 94 105 117 132
1190.0 147 155 157 160 171 169 145 132 137 149
1230.0 152 145 133 122 113 108 109 119 123 139
1270.0 176 213 248 277 310 338 338 329 326 315
1310.0 302 293 293 302 318 346 386 425 450 456
1350.0 444 420 369 320 284 260 243 247 258 272
1390.0 308 354 411 499 601 702 795 870 973 1098
1430.0 1232 1370 1507 1604 1649 1621 1504 1317 1117 914
1470.0 743 591 466 365 282 218 170 136 120 109
1510.0 106 113 110 113 128 132 137 136 130 127
1550.0 127 126 114 109 117 130 140 155 183 202
1590.0 224 261 316 394 485 598 748 982 1319 1764
1630.0 2293 2767 3023 3018 2844 2448 1754 1127 747 532
1670.0 387 289 221 176 139 119 99 82 74 63
1710.0 47 36 39 38 32 28 27 36 40 37
1750.0 36 39 37 35 40 43 48 56 67 72
1790.0 83 100 124 161 207 288 399 529 660 744
1830.0 769 758 691 572 430 315 240 186 143 110
1870.0 95 96 80 61 55 57 53 46 48 42
1910.0 38 38 31 26 29 25 19 26 33 37
1950.0 52 61 61 73 83 93 103 99 87 79
1990.0 66 59 52 49 44 40 35 29 37 33
2030.0 32 36 32 37 35 29 26 28 33 29
2070.0 23 17 20 28 36 31 23 32 35 37
2110.0 39 40 32 26 33 31 29 29 27 29
2150.0 28 17 9 6 1 5 10 14 18 23
2190.0 24 23 29 27 23 24 27 24 24 31
2230.0 23 20 22 23 28 28 32 33 31 33
2270.0 34 33 43 55 49 40 40 45 41 36
2310.0 40 33 27 27 30 33 30 35 34 22
2350.0 13 20 27 30 25 24 21 14 17 20
2390.0 21 20 16 11 6 8 16 15 12 11
2430.0 12 10 6 2 9 20 19 12 18 24
2470.0 20 21 24 24 24 24 32 37 34 37
2510.0 36 29 37 43 40 38 38 40 38 37
2550.0 46 50 43 43 35 34 41 41 39 39
2590.0 43 49 47 46 50 42 44 58 66 67
2630.0 60 64 72 78 81 93 97 95 93 105
2670.0 111 99 96 94 91 83 83 88 83 78
2710.0 82 99 110 102 106 115 104 110 127 127
2750.0 124 136 150 155 171 188 185 191 212 232
2790.0 248 261 284 321 370 425 490 589 720 882
2830.0 1090 1345 1651 1977 2302 2615 2905 3128 3252 3284
2870.0 3256 3194 3114 3056 3070 3182 3398 3753 4261 4911
2910.0 5674 6522 7436 8353 9181 9777 10000 9821 9278 8436
2950.0 7380 6274 5301 4560 4076 3813 3727 3749 3807 3877
2990.0 3920 3942 3919 3790 3580 3306 2961 2543 2130 1817
3030.0 1602 1481 1428 1425 1483 1590 1749 1966 2238 2587
3070.0 3044 3668 4319 4667 4623 4395 3987 3161 2242 1599
3110.0 1178 906 715 586 502 432 376 335 293 264
3150.0 252 230 210 198 177 158 145 135 118 96
3190.0 92 95 87 78 85 89 83 79 78 65
3230.0 57 63 62 58 36 39 53 67 73 59
3270.0 61 65 65 58 45 40 55 51 32 37
3310.0 38 32 23 14 30 46 42 43 48 34
3350.0 18 19 22 16 27 40 42 42 32 27
3390.0 29 30 21 22 32 24 24 27 35 37
3430.0 20 25 31 35 49 49 35 30 46 47
3470.0 36 30 34 38 35 30 31 36 35 23
3510.0 27 37 35 44 41 32 33 17 9 31
3550.0 46 41 30 27 33 31 10 20 33 9
3590.0 5 17 24 37 36 38 41 25 21 32
3630.0 31 16 24 45 37 35 45 50 49 45
3670.0 41 58 70 54 48 45 38 53 62 37
3710.0 27 33 42 55 43 28 29 41 34 29
3750.0 30 21 38 38 20 33 39 35 40 31
3790.0 31 46 44 37 33 26 23 31 50 42
3830.0 27 33 39 48 51
##END=
