##TITLE=2-(n-Heptanoyl)thiophene
##JCAMP-DX=4.24
##DATA TYPE=INFRARED SPECTRUM
##ORIGIN=EPA-IR VAPOR PHASE LIBRARY
##OWNER=SRD/NIST
Collection (C) 2018 copyright by the U.S. Secretary of Commerce
on behalf of the United States of America. All rights reserved.
##CAS REGISTRY NO=30711-40-1
##MOLFORM=C 11 H 16 O S
##$NIST SOURCE=MSDC-IR
##STATE=gas
##XUNITS=1/CM
##YUNITS=ABSORBANCE
##XFACTOR=1.
##YFACTOR=0.001
##DELTAX=1.929
##FIRSTX=549.8
##LASTX=4000.8
##FIRSTY=1.506
##MAXX=4000.75
##MINX=549.766
##MAXY=0.067666
##MINY=0
##NPOINTS=1790
##XYDATA=(X++(Y..Y))
549.766 1.506 1.536 1.666 2.096 2.386 2.566 2.466 2.556 3.096 3.466
569.056 3.606 3.636 3.816 3.936 3.906 3.946 3.976 3.966 4.026 4.046
588.346 4.056 4.116 4.066 3.856 3.556 3.666 3.786 3.406 3.316 3.416
607.636 3.336 3.226 3.186 2.996 2.696 2.586 2.326 2.006 1.876 1.826
626.926 1.716 1.686 1.676 1.496 1.3088 1.2568 1.2456 1.2836 1.3886 1.486
646.216 1.576 1.536 1.686 1.886 1.906 1.846 1.866 1.856 1.826 1.876
665.506 1.946 2.166 2.186 2.056 2.256 2.486 2.476 2.556 2.776 3.116
684.796 3.536 3.916 4.426 5.226 6.216 7.676 9.806 12.606 16.176 20.506
704.086 25.546 31.146 36.856 41.366 43.746 44.146 41.816 37.076 31.566 25.936
723.376 20.986 17.056 13.846 11.396 9.746 8.696 7.886 7.256 6.856 6.586
742.666 6.386 6.316 6.366 6.406 6.426 6.556 6.656 6.466 6.156 5.716
761.956 5.286 4.976 4.736 4.636 4.466 4.296 4.116 3.906 3.626 3.386
781.246 3.146 2.916 2.756 2.666 2.686 2.526 2.336 2.396 2.466 2.426
800.536 2.426 2.566 2.666 2.746 2.876 3.116 3.286 3.336 3.586 3.866
819.826 4.266 4.756 5.216 5.536 5.956 6.466 6.796 6.986 7.346 7.706
839.116 7.936 8.306 8.766 9.356 10.006 10.646 11.496 12.366 12.846 12.646
858.406 11.876 10.876 9.626 7.956 6.256 4.896 3.886 3.256 2.926 2.696
877.696 2.456 2.436 2.476 2.426 2.436 2.486 2.486 2.546 2.616 2.646
896.986 2.636 2.756 2.926 3.056 3.206 3.416 3.706 3.996 4.186 4.296
916.276 4.496 4.556 4.546 4.626 4.766 4.856 4.896 4.966 5.026 4.976
935.566 4.916 4.976 5.056 5.106 5.166 5.166 5.046 4.936 4.766 4.656
954.856 4.546 4.466 4.366 4.266 4.286 4.256 4.086 4.056 4.116 4.086
974.146 4.146 4.216 4.146 4.066 4.086 4.036 3.966 3.956 3.926 3.986
993.436 3.986 3.866 3.746 3.666 3.556 3.406 3.286 3.186 3.086 3.066
1012.726 3.076 3.106 3.276 3.386 3.476 3.746 4.206 4.836 5.656 6.686
1032.016 7.866 8.996 10.006 10.806 11.276 11.466 11.496 11.356 11.206 11.306
1051.306 11.596 11.926 11.996 11.656 11.026 9.976 8.656 7.336 6.046 5.146
1070.596 4.636 4.536 4.846 5.376 5.876 5.946 5.846 5.576 4.906 4.046
1089.886 3.226 2.726 2.556 2.546 2.566 2.686 2.866 2.916 2.936 2.936
1109.176 2.876 2.826 2.796 2.706 2.636 2.556 2.446 2.396 2.346 2.256
1128.467 2.206 2.286 2.366 2.466 2.656 2.816 2.986 3.246 3.606 3.966
1147.757 4.416 4.966 5.626 6.376 7.046 7.766 8.446 9.046 9.626 9.996
1167.047 10.166 10.366 10.526 10.546 10.486 10.516 10.626 10.666 10.716 10.706
1186.337 10.826 11.086 11.266 11.506 11.816 12.166 12.536 12.856 13.156 13.296
1205.627 13.586 13.946 14.196 14.566 14.996 15.566 16.306 17.256 18.496 20.116
1224.917 22.416 25.576 29.486 33.236 36.066 37.856 38.516 37.896 35.576 32.196
1244.207 28.916 26.306 24.286 22.676 21.406 20.406 19.656 19.006 18.436 17.936
1263.497 17.496 17.056 16.636 16.206 15.716 15.206 14.646 14.126 13.606 13.006
1282.787 12.376 11.746 11.196 10.726 10.226 9.796 9.476 9.256 9.036 8.756
1302.077 8.606 8.466 8.316 8.166 7.986 7.836 7.696 7.556 7.406 7.266
1321.367 7.086 6.916 6.866 6.826 6.776 6.816 6.996 7.286 7.656 8.156
1340.657 8.756 9.526 10.616 12.036 13.696 15.536 17.386 18.866 19.796 20.106
1359.947 19.626 18.486 16.996 15.456 13.926 12.486 11.176 10.046 9.196 8.566
1379.237 8.066 7.726 7.486 7.356 7.316 7.356 7.536 7.886 8.466 9.356
1398.527 10.566 12.266 14.476 17.296 20.936 25.316 30.146 34.856 38.626 40.546
1417.817 40.196 38.006 34.346 29.486 24.226 19.876 16.666 14.246 12.326 10.936
1437.107 9.996 9.456 9.186 9.026 8.996 9.106 9.266 9.366 9.556 9.836
1456.397 10.026 10.066 9.996 9.766 9.376 8.946 8.496 7.976 7.356 6.676
1475.687 6.046 5.456 5.036 4.676 4.366 4.206 4.106 4.066 4.166 4.406
1494.977 4.876 5.506 6.306 7.316 8.586 10.256 12.486 14.996 17.396 19.386
1514.267 20.516 20.596 19.486 17.286 14.276 11.376 8.886 6.976 5.736 4.996
1533.557 4.536 4.276 4.176 4.156 4.196 4.196 4.106 4.006 3.846 3.606
1552.847 3.366 3.076 2.866 2.706 2.466 2.286 2.136 1.986 1.886 1.786
1572.137 1.696 1.636 1.566 1.526 1.526 1.476 1.466 1.476 1.496 1.516
1591.427 1.466 1.466 1.586 1.696 1.716 1.766 1.856 1.966 2.066 2.106
1610.717 2.146 2.236 2.306 2.366 2.346 2.296 2.246 2.276 2.426 2.516
1630.007 2.596 2.706 2.876 3.076 3.316 3.566 3.866 4.196 4.606 5.096
1649.297 5.606 6.236 6.986 7.716 8.576 9.706 11.136 12.976 15.306 18.126
1668.587 21.666 25.906 30.746 36.246 42.276 48.226 54.096 59.326 63.616 66.576
1687.877 67.666 66.916 64.326 60.176 54.386 47.916 41.296 34.236 28.206 22.756
1707.167 18.236 14.576 11.806 9.686 8.096 6.956 6.046 5.306 4.806 4.416
1726.457 4.106 3.876 3.646 3.446 3.216 2.976 2.816 2.676 2.506 2.386
1745.747 2.286 2.226 2.196 2.086 1.976 1.916 1.806 1.666 1.616 1.566
1765.037 1.496 1.416 1.3485 1.3447 1.328 1.2705 1.2128 1.1924 1.1841 1.1584
1784.327 1.196 1.2292 1.2711 1.3382 1.372 1.3829 1.3701 1.416 1.476 1.446
1803.617 1.3982 1.3112 1.2491 1.1959 1.1471 1.1378 1.157 1.1815 1.1677 1.1837
1822.907 1.1985 1.163 1.0756 0.9804 0.9048 0.8522 0.8426 0.8215 0.7756 0.7248
1842.197 0.6948 0.6809 0.6685 0.6917 0.6819 0.6269 0.6218 0.6193 0.5945 0.5994
1861.487 0.611 0.5685 0.531 0.5631 0.5937 0.5383 0.47761 0.49497 0.5203 0.5239
1880.777 0.49457 0.48596 0.51563 0.5309 0.46101 0.4336 0.47518 0.4452 0.46526 0.51397
1900.067 0.5269 0.49762 0.4491 0.44779 0.47751 0.47453 0.45372 0.42847 0.42979 0.48041
1919.357 0.4794 0.45968 0.4353 0.418584 0.424163 0.3934 0.3665 0.3761 0.4032 0.4461
1938.647 0.419614 0.3876 0.4048 0.3668 0.3588 0.3642 0.3385 0.299 0.304 0.305
1957.937 0.303 0.315 0.306 0.315 0.306 0.3185 0.305 0.287 0.301 0.283
1977.227 0.26 0.268 0.292 0.303 0.275 0.274 0.296 0.313 0.3282 0.304
1996.517 0.307 0.3319 0.291 0.288 0.3414 0.3285 0.3 0.288 0.296 0.279
2015.807 0.272 0.3171 0.3232 0.316 0.3243 0.3389 0.3242 0.295 0.287 0.289
2035.097 0.274 0.267 0.303 0.3171 0.291 0.292 0.268 0.251 0.261 0.291
2054.387 0.3709 0.3571 0.307 0.3608 0.3495 0.3256 0.3446 0.3351 0.38 0.43488
2073.677 0.46608 0.47376 0.44112 0.417069 0.42789 0.46618 0.48257 0.47697 0.49685 0.48856
2092.967 0.47005 0.44267 0.43546 0.419077 0.3893 0.4011 0.3839 0.3556 0.3629 0.3781
2112.257 0.3997 0.421241 0.42846 0.41437 0.3997 0.40702 0.3392 0.3193 0.3666 0.3911
2131.547 0.42 0.4027 0.35 0.3226 0.3304 0.3351 0.3642 0.3897 0.3934 0.4042
2150.837 0.41159 0.4007 0.44032 0.49723 0.5356 0.5595 0.5354 0.49704 0.48003 0.45958
2170.127 0.43537 0.44862 0.420678 0.3841 0.4005 0.41091 0.4003 0.3792 0.3981 0.421659
2189.417 0.4029 0.3166 0.288 0.3331 0.3508 0.3529 0.3909 0.41217 0.3639 0.316
2208.707 0.308 0.311 0.3187 0.3417 0.296 0.266 0.285 0.311 0.329 0.3513
2227.997 0.311 0.289 0.305 0.3456 0.3501 0.313 0.3389 0.3403 0.3518 0.3938
2247.287 0.3873 0.3215 0.3353 0.3725 0.41414 0.49047 0.44369 0.42419 0.44886 0.44398
2266.577 0.46934 0.48186 0.46624 0.45207 0.44498 0.4282 0.422883 0.417417 0.42902 0.436
2285.868 0.3888 0.3637 0.3871 0.3631 0.40671 0.419598 0.3437 0.3277 0.3461 0.3457
2305.158 0.3691 0.3906 0.3836 0.3619 0.369 0.3807 0.3843 0.3677 0.313 0.3308
2324.448 0.3528 0.301 0.291 0.3515 0.3731 0.404 0.42128 0.3949 0.40952 0.375
2343.738 0.3502 0.3868 0.3611 0.3251 0.389 0.44061 0.43501 0.44141 0.425554 0.425064
2363.028 0.43554 0.44794 0.49753 0.45571 0.3669 0.389 0.40871 0.3736 0.3438 0.3289
2382.318 0.311 0.3258 0.3925 0.420449 0.3763 0.398 0.41358 0.3808 0.4059 0.4037
2401.608 0.395 0.44603 0.47313 0.48691 0.49685 0.49869 0.51412 0.5419 0.51172 0.45555
2420.898 0.47288 0.51024 0.50252 0.45771 0.44985 0.50675 0.5736 0.5697 0.5066 0.48125
2440.188 0.50324 0.49443 0.48578 0.46233 0.49688 0.5521 0.5218 0.4915 0.48311 0.48996
2459.478 0.50821 0.5069 0.48504 0.47432 0.48295 0.48281 0.43657 0.421264 0.43796 0.40886
2478.768 0.46175 0.47509 0.3981 0.3486 0.286 0.256 0.272 0.3391 0.3789 0.357
2498.058 0.345 0.3195 0.293 0.303 0.3221 0.275 0.299 0.3793 0.3694 0.364
2517.348 0.3591 0.3673 0.3656 0.3494 0.3431 0.3202 0.273 0.3466 0.45765 0.46715
2536.638 0.40709 0.3705 0.3979 0.4038 0.3984 0.42683 0.46793 0.45373 0.45357 0.4476
2555.928 0.4409 0.44397 0.45556 0.45096 0.48765 0.51111 0.5268 0.6028 0.5978 0.5229
2575.218 0.5347 0.5511 0.5509 0.5841 0.6054 0.6126 0.5606 0.587 0.6357 0.6348
2594.508 0.6002 0.6143 0.6716 0.6505 0.6181 0.6558 0.6939 0.6083 0.5276 0.5862
2613.798 0.6617 0.6623 0.6081 0.6132 0.6866 0.7357 0.7265 0.7752 0.8272 0.774
2633.088 0.7509 0.7818 0.7353 0.6909 0.7537 0.7914 0.8292 0.7885 0.7883 0.8315
2652.378 0.7696 0.7265 0.7082 0.8099 0.8893 0.7777 0.7765 0.881 0.9166 0.9102
2671.668 0.9617 1.0248 0.9917 0.9768 0.9529 0.9292 0.9138 0.9184 0.9946 1.0361
2690.958 0.9986 0.9482 0.9592 0.9349 0.9046 0.8175 0.7879 0.8664 0.8187 0.8317
2710.248 0.8518 0.8377 0.8547 0.8703 0.8989 0.9062 0.9556 0.9555 0.9468 0.948
2729.538 0.9143 0.946 1.0655 1.1009 1.0918 1.1431 1.1583 1.1882 1.2471 1.3368
2748.828 1.2826 1.1835 1.1834 1.1948 1.2243 1.2461 1.2708 1.2748 1.2877 1.3066
2768.118 1.3085 1.2962 1.3127 1.4065 1.426 1.3773 1.476 1.586 1.586 1.626
2787.408 1.656 1.776 1.956 2.026 2.086 2.146 2.226 2.296 2.386 2.506
2806.698 2.676 2.876 2.996 3.136 3.326 3.436 3.556 3.706 3.886 4.036
2825.988 4.196 4.406 4.616 4.856 5.096 5.436 5.846 6.406 6.976 7.666
2845.278 8.576 9.576 10.786 12.266 13.886 15.706 17.676 19.556 21.266 22.636
2864.568 23.776 24.636 25.106 25.166 25.006 24.856 24.676 24.476 24.156 23.756
2883.858 23.336 22.846 22.306 21.796 21.476 21.326 21.396 21.806 22.486 23.406
2903.148 24.486 25.626 26.896 28.406 30.086 31.936 34.116 36.616 39.486 42.606
2922.438 45.736 49.056 52.436 55.456 57.996 59.916 61.156 61.606 61.316 60.346
2941.728 58.666 56.416 53.846 51.286 48.936 46.836 45.336 44.646 44.546 44.956
2961.018 45.696 46.476 46.966 46.736 45.326 42.716 39.236 35.126 30.556 25.976
2980.308 22.016 18.696 16.026 13.876 12.156 10.826 9.686 8.696 7.876 7.306
2999.598 6.746 6.136 5.686 5.316 4.956 4.676 4.406 4.076 3.826 3.606
3018.888 3.466 3.366 3.106 2.906 2.766 2.646 2.616 2.536 2.436 2.366
3038.178 2.266 2.126 2.036 1.946 1.766 1.696 1.766 1.806 1.706 1.566
3057.468 1.586 1.586 1.636 1.716 1.766 1.896 2.036 2.236 2.456 2.666
3076.758 2.956 3.506 4.086 4.406 4.486 4.486 4.336 3.986 3.566 3.236
3096.048 3.186 3.056 2.776 2.576 2.386 2.206 2.136 2.146 2.026 1.876
3115.338 1.746 1.626 1.606 1.526 1.2816 1.0474 0.9399 0.7785 0.8291 0.8856
3134.628 0.8309 0.8568 0.7565 0.7172 0.7025 0.6296 0.5532 0.5396 0.5196 0.48645
3153.918 0.5793 0.5222 0.5212 0.6198 0.556 0.5192 0.51509 0.45864 0.3251 0.336
3173.208 0.45765 0.3722 0.46001 0.6475 0.6041 0.6031 0.6108 0.5421 0.47325 0.4566
3192.498 0.48547 0.45639 0.3457 0.3253 0.3606 0.3189 0.3276 0.44425 0.43489 0.334
3211.788 0.3475 0.394 0.3854 0.3549 0.3701 0.46098 0.44813 0.289 0.237 0.288
3231.078 0.3482 0.3235 0.3199 0.3331 0.3379 0.271 0.208 0.281 0.145 0.051
3250.368 0.169 0.168 0.204 0.22 0.129 0.23 0.288 0.308 0.263 0.183
3269.658 0.226 0.257 0.29 0.244 0.178 0.166 0.151 0.242 0.3303 0.245
3288.948 0.153 0.109 0.216 0.3999 0.3619 0.144 0.182 0.315 0.31 0.239
3308.238 0.174 0.237 0.3443 0.3373 0.314 0.3916 0.3593 0.3828 0.41121 0.3259
3327.528 0.415828 0.5683 0.5994 0.6537 0.7243 0.8156 0.8952 0.9581 0.9951 0.9824
3346.818 0.9773 0.9761 1.1076 1.1319 0.9819 1.0216 1.0014 1.0848 1.1831 1.1186
3366.108 1.0987 1.0446 0.9898 0.9242 0.781 0.8229 0.7784 0.47962 0.43094 0.45627
3385.398 0.50106 0.47692 0.3342 0.252 0.234 0.255 0.199 0.155 0.257 0.41814
3404.688 0.3493 0.112 0.123 0.291 0.3421 0.3202 0.223 0.101 0.217 0.267
3423.978 0.3375 0.418953 0.233 0.053 0.093 0.3411 0.3528 0.222 0.11 0.081
3443.269 0.181 0.242 0.251 0.201 0.236 0.266 0.215 0.217 0.271 0.279
3462.559 0.237 0.3169 0.361 0.3779 0.417983 0.27 0.262 0.243 0.169 0.216
3481.849 0.294 0.3342 0.309 0.3448 0.4415 0.44361 0.4067 0.3938 0.3248 0.263
3501.139 0.28 0.305 0.252 0.239 0.256 0.145 0.152 0.241 0.184 0.106
3520.429 0.151 0.278 0.205 0.06 0.159 0.132 0 0.241 0.361 0.3169
3539.719 0.3891 0.3709 0.292 0.3163 0.3353 0.186 0.191 0.185 0.187 0.242
3559.009 0.214 0.269 0.139 0.106 0.3385 0.4662 0.252 0.118 0.251 0.262
3578.299 0.171 0.26 0.288 0.291 0.314 0.228 0.252 0.265 0.277 0.277
3597.589 0.274 0.227 0.226 0.212 0.182 0.312 0.353 0.265 0.283 0.3481
3616.879 0.3908 0.3217 0.224 0.118 0.178 0.3673 0.47613 0.40746 0.3164 0.41197
3636.169 0.4039 0.41338 0.41182 0.249 0.17 0.274 0.43894 0.3829 0.243 0.192
3655.459 0.166 0.184 0.22 0.263 0.308 0.232 0.169 0.303 0.338 0.305
3674.749 0.41397 0.4472 0.3332 0.25 0.255 0.313 0.223 0.231 0.261 0.199
3694.039 0.186 0.3177 0.425556 0.381 0.333 0.3897 0.50188 0.42083 0.3861 0.296
3713.329 0.186 0.211 0.3254 0.4015 0.3659 0.296 0.216 0.242 0.3562 0.45899
3732.619 0.3876 0.43911 0.50804 0.3616 0.3168 0.4024 0.5266 0.41369 0.41483 0.5973
3751.909 0.522 0.416748 0.3819 0.3382 0.386 0.3809 0.3702 0.3863 0.41446 0.3734
3771.199 0.4022 0.51194 0.48172 0.45145 0.3605 0.3749 0.333 0.3621 0.422714 0.264
3790.489 0.244 0.3398 0.375 0.3906 0.50871 0.6121 0.5626 0.45129 0.418584 0.43878
3809.779 0.3528 0.3425 0.415882 0.4455 0.5477 0.583 0.43495 0.43077 0.6 0.6566
3829.069 0.48631 0.43092 0.5353 0.5465 0.5311 0.6005 0.5872 0.5278 0.4546 0.4
3848.359 0.50627 0.5436 0.5549 0.49652 0.44153 0.41016 0.40985 0.47795 0.47799 0.3812
3867.649 0.3484 0.4027 0.3871 0.41707 0.4329 0.3747 0.45906 0.42619 0.313 0.3682
3886.939 0.3549 0.283 0.3764 0.51485 0.5509 0.3843 0.228 0.3365 0.42634 0.375
3906.229 0.3295 0.3867 0.43545 0.4028 0.3717 0.42686 0.424215 0.3924 0.282 0.173
3925.519 0.271 0.344 0.3329 0.4008 0.424609 0.3761 0.46073 0.6005 0.5651 0.48854
3944.809 0.44574 0.4015 0.5503 0.6882 0.6525 0.6171 0.568 0.545 0.6065 0.5597
3964.099 0.43811 0.48582 0.5769 0.6357 0.5615 0.4344 0.42817 0.47667 0.5238 0.5917
3983.389 0.5652 0.5852 0.5806 0.53 0.5857 0.49049 0.47517 0.43466 0.357 0.42869
##END=
