##TITLE=2-n-Octanoylthiophene
##JCAMP-DX=4.24
##DATA TYPE=INFRARED SPECTRUM
##ORIGIN=EPA-IR VAPOR PHASE LIBRARY
##OWNER=SRD/NIST
Collection (C) 2018 copyright by the U.S. Secretary of Commerce
on behalf of the United States of America. All rights reserved.
##CAS REGISTRY NO=30711-41-2
##MOLFORM=C 12 H 18 O S
##$NIST SOURCE=MSDC-IR
##STATE=gas
##XUNITS=1/CM
##YUNITS=ABSORBANCE
##XFACTOR=1.
##YFACTOR=0.001
##DELTAX=1.92898
##FIRSTX=549.8
##LASTX=4000.7
##FIRSTY=3
##MAXX=4000.7
##MINX=549.759
##MAXY=0.06434
##MINY=0
##NPOINTS=1790
##XYDATA=(X++(Y..Y))
549.759 3 2.5883 2.1388 2.1676 2.5879 2.95 3.83 4.56 4.54 4.36
569.049 4.14 4.16 3.99 4.13 4.02 3.65 4.25 4.81 4.44 3.89
588.339 3.94 4.67 5.44 5.33 4.48 3.77 4.06 4.25 3.9 4.1
607.628 3.96 3.63 3.99 3.53 2.424 2.3488 3.19 3.32 2.92 2.68
626.918 2.4213 2.66 2.81 2.3757 2.0647 2.2831 2.5862 3.05 3.18 2.94
646.208 2.89 2.74 2.3552 2.4999 2.69 2.4235 3.1 3.17 2.86 3.18
665.498 3.47 3.21 2.88 3.08 2.92 2.2703 2.88 3.64 3.89 4.27
684.787 4.17 4.42 4.83 5.25 6.26 7.22 8.48 10.98 13.87 17.08
704.077 21.36 26.13 30.44 33.92 36.36 36.85 34.83 31.16 26.27 21.63
723.367 17.49 14.3 12.22 10.38 9.29 8.3 7.62 7.15 6.73 6.42
742.657 6.09 6.34 6.66 6.41 6.26 6.74 6.77 6.58 6.41 5.88
761.947 5.48 5.3 5.15 5.02 4.58 4.41 4.74 5.05 5.19 5.1
781.236 4.82 4.21 3.77 3.78 4.43 4.92 4.56 4.33 4.06 4.03
800.526 4.27 4.17 4.26 4.21 4.38 4.77 4.65 4.53 5.22 6.21
819.816 6.4 6.7 6.06 5.64 5.92 6.06 6.46 6.59 6.94 6.89
839.106 6.94 7.16 7.43 8.03 8.57 9.45 10.54 11.42 12.13 12.09
858.395 11.27 10.13 8.79 7.58 6.24 4.95 4.14 3.54 3.18 3.3
877.685 3.31 3.32 3.38 3.33 3.12 3.23 3.94 3.78 3.29 3.32
896.975 3.65 4.04 4.34 4.44 4.37 4.59 4.55 4.21 4.45 4.77
916.265 4.59 4.64 4.86 4.97 4.95 4.36 4.34 4.49 4.54 4.97
935.555 5.09 5.15 5.21 5.22 5.34 5.24 4.92 5.52 6.14 6.18
954.844 6.08 6.17 6.22 5.88 5.86 5.61 5.42 5.41 5.52 5.24
974.134 4.84 5.11 5.21 5.08 4.62 4.22 4.78 5.19 4.71 4.52
993.424 4.54 4.29 4.48 4.86 4.76 4.46 4.29 4.27 4.39 5.11
1012.714 5.44 5.07 4.9 4.96 5.49 6.16 6.4 5.93 6.2 7.64
1032.003 7.84 7.81 8.62 9.2 9.44 9.37 9.96 9.63 9.28 10.52
1051.293 11.39 10.71 9.8 9.86 9.5 8.9 8.12 7.23 6.45 5.01
1070.583 4.42 4.98 4.93 6.16 7.83 7.64 6.54 6.88 7.14 5.59
1089.873 4.21 3.26 4.59 5.56 4.94 4.54 3.21 1.154 0 1.7377
1109.163 3.71 3.66 4.36 5.78 5.34 4.25 4.4 4.34 4.61 4.91
1128.452 3.82 4.01 4.93 4.06 4.15 4.57 4.72 5.34 5.58 7.3
1147.742 7.9 6.87 7.33 8.34 8.08 8.22 9.13 10.33 10.62 10.98
1167.032 10.05 9.46 10.46 10.08 9.84 10.11 11.28 11.27 9.83 9.7
1186.322 11.07 11.53 11.37 11.44 11.76 12.36 14.28 15.18 13.14 13
1205.611 14.65 14.4 13.71 15.05 16.03 15.74 16.63 16.8 17.44 20.35
1224.901 21.04 21.53 24.71 26.92 29.8 32.16 31.47 30.17 27.87 25.2
1244.191 22.63 21.63 20.69 19.66 19.51 18.87 18.96 18.32 17.61 17.43
1263.481 16.95 16.94 15.99 14.77 14.29 13.65 12.79 12.16 11.4 11.19
1282.771 11.03 10.42 10.07 9.96 10.14 9.9 9.35 9.35 9.22 9.2
1302.060 9.4 9.21 8.8 8.47 8.43 8.13 7.72 7.48 7.35 7.3
1321.350 7.17 7.01 6.93 6.88 6.91 7.07 7.24 7.53 7.82 8.24
1340.640 8.89 9.56 10.44 11.65 12.98 14.39 15.87 17.13 17.62 17.65
1359.930 17.43 16.44 15.15 14.03 13.05 11.95 10.81 9.9 9.13 8.42
1379.219 7.96 7.68 7.48 7.39 7.37 7.37 7.53 8.01 8.45 9.05
1398.509 9.99 11.19 12.94 15.19 18.08 21.65 25.51 29.48 32.7 34.36
1417.799 34.18 32.4 29.13 25.04 20.95 17.44 14.85 13.09 11.64 10.6
1437.089 9.8 9.32 8.99 8.96 9.27 9.29 9.47 9.78 10.15 10.57
1456.378 10.77 10.83 10.72 10.4 10.23 9.97 9.23 8.73 8.28 7.61
1475.668 6.95 6.38 6.04 5.64 5.31 5.07 5.06 5.26 5.27 5.27
1494.958 5.51 6.02 6.6 7.31 8.42 9.71 11.51 13.57 15.35 16.94
1514.248 17.88 17.97 16.9 15.12 12.68 10.37 8.53 7.21 6.26 5.58
1533.538 5.32 4.98 4.8 4.79 4.64 4.86 4.83 4.53 4.6 4.41
1552.827 4.05 3.97 3.93 3.81 3.59 3.44 3.3 3.22 3.29 3.19
1572.117 3.07 3.1 2.98 2.71 2.67 2.96 2.96 2.71 2.92 2.77
1591.407 2.5 3.02 3.23 3.08 2.97 2.68 2.69 3.03 3.2 3.34
1610.697 3.59 3.71 3.6 3.33 3.09 3.2 3.37 3.32 3.55 3.72
1629.986 3.63 3.62 3.85 4.14 4.33 4.53 4.71 4.81 5.23 5.57
1649.276 5.82 6.6 7.33 7.87 8.6 9.46 10.48 11.89 13.79 16.01
1668.566 18.75 22.1 25.98 30.3 34.94 39.52 44.28 48.27 51.66 54.33
1687.856 55.31 54.5 52.15 48.64 43.88 38.94 33.99 28.27 23.4 19.14
1707.146 15.81 13.08 10.92 9.23 8.06 7 6.28 5.82 5.4 5.13
1726.435 4.97 4.81 4.44 4.07 3.97 3.88 3.76 3.73 3.57 3.39
1745.725 3.39 3.54 3.53 3.32 3.18 3.02 2.96 3.02 2.9 2.72
1765.015 2.76 2.77 2.5628 2.5123 2.5788 2.5838 2.5897 2.5396 2.5358 2.4107
1784.305 2.4066 2.66 2.76 2.63 2.6048 2.63 2.66 2.9 3.08 2.92
1803.594 2.77 2.75 2.72 2.64 2.62 2.62 2.6011 2.6089 2.67 2.6088
1822.884 2.5674 2.5871 2.4738 2.349 2.1697 2.2712 2.2665 2.0905 2.1421 2.1932
1842.174 2.1888 2.1324 2.0154 2.128 2.2915 2.1689 2.0427 2.1434 2.1956 2.1259
1861.464 2.1292 2.0824 2.0978 2.1237 2.1714 2.0732 1.8724 1.9938 2.1059 2.0465
1880.754 2.0514 2.0315 1.8783 1.9105 1.9933 1.9488 1.8964 1.9047 1.8785 1.7408
1900.043 1.8362 1.9913 1.9469 1.9665 1.9389 1.8458 1.9122 1.891 1.8827 1.8899
1919.333 1.8598 1.7885 1.8444 1.9699 2.0382 2.1097 1.9448 1.7666 1.7795 1.8048
1938.623 1.7268 1.62438 1.5343 1.63063 1.7212 1.70946 1.8386 1.8749 1.7649 1.8213
1957.913 1.8212 1.8034 1.9429 1.8601 1.68855 1.62736 1.66264 1.67905 1.6208 1.5857
1977.202 1.68175 1.8996 1.8598 1.7561 1.8004 1.8465 1.70995 1.563 1.65308 1.7564
1996.492 1.7107 1.7855 1.8574 1.8404 1.7736 1.67179 1.5957 1.5679 1.6922 1.7312
2015.782 1.7766 1.7956 1.68059 1.7127 1.65631 1.495 1.60419 1.5894 1.61219 1.7449
2035.072 1.7225 1.7576 1.69016 1.60731 1.454 1.5115 1.852 1.813 1.67316 1.61053
2054.362 1.7225 1.8969 1.8422 1.7286 1.8453 1.9369 1.9018 2.0381 2.0514 1.9673
2073.651 1.8594 1.5995 1.63154 1.67807 1.6267 1.7309 1.7254 1.63503 1.7573 1.9484
2092.941 1.8456 1.7979 1.8083 1.898 1.8342 1.63183 1.6612 1.6303 1.7636 1.9107
2112.231 1.7227 1.7595 1.8383 1.63983 1.7312 1.993 1.7387 1.498 1.60454 1.7705
2131.521 1.7719 1.60002 1.62524 1.65566 1.69774 1.7291 1.5296 1.5737 1.8215 1.7711
2150.810 1.7634 1.8938 1.8924 1.7573 1.64181 1.61169 1.8048 1.8837 1.7477 1.70248
2170.100 1.60166 1.5531 1.5121 1.5951 1.60935 1.5126 1.66565 1.6679 1.62453 1.6453
2189.390 1.8174 1.9394 1.7998 1.69587 1.711 1.7586 1.8246 1.5656 1.412 1.69623
2208.680 1.62723 1.506 1.472 1.5369 1.69374 1.70994 1.67915 1.7475 1.6214 1.5915
2227.970 1.8924 1.78 1.5631 1.63761 1.67877 1.61695 1.69889 1.8516 1.7476 1.67075
2247.259 1.5786 1.5275 1.63099 1.8062 1.8255 1.66551 1.61387 1.63823 1.70469 1.70162
2266.549 1.5559 1.487 1.7442 1.7386 1.8011 2.0051 1.70593 1.482 1.61788 1.8444
2285.839 1.7527 1.461 1.537 1.5684 1.7101 1.9254 1.9243 1.7694 1.63052 1.62804
2305.129 1.494 1.453 1.5201 1.5563 1.5931 1.63075 1.69214 1.7869 1.8252 1.7197
2324.418 1.7716 1.9977 1.9259 1.8742 1.9329 1.8394 1.779 1.521 1.385 1.7252
2343.708 1.587 1.339 1.61329 1.8586 1.9167 1.897 1.5986 1.66488 1.8904 1.8559
2362.998 1.7234 1.69147 1.7737 1.7216 1.6645 1.62382 1.5898 1.62018 1.754 1.70387
2382.288 1.62653 1.6321 1.64107 1.5735 1.5156 1.63993 1.64127 1.7619 1.8623 1.7537
2401.578 1.68384 1.692 1.67438 1.5618 1.67771 1.5958 1.5939 1.5993 1.5107 1.60586
2420.867 1.70659 1.8554 2.0333 2.0797 1.9989 2.1056 2.0068 1.8264 1.9451 1.8774
2440.157 1.8465 1.936 1.8176 1.8771 1.796 1.68683 1.8116 1.8959 1.8391 1.7273
2459.447 1.61471 1.62424 1.64222 1.48 1.7302 1.8106 1.7219 1.8286 1.8848 1.7458
2478.737 1.5734 1.61603 1.68042 1.7293 1.5386 1.458 1.39 1.425 1.7214 1.68878
2498.026 1.62223 1.5791 1.492 1.62359 1.70075 1.5703 1.516 1.70682 1.70792 1.5502
2517.316 1.66054 1.7577 1.60138 1.506 1.5387 1.406 1.389 1.5565 1.5307 1.488
2536.606 1.65781 1.7717 1.8082 1.7925 1.7432 1.8819 2.022 1.8871 1.7992 1.7614
2555.896 1.8642 2.2034 1.8844 1.579 1.63822 1.502 1.5794 1.5973 1.61635 2.0375
2575.186 2.1086 1.716 1.506 1.49 1.62339 1.61164 1.69464 1.8376 1.68003 1.6504
2594.475 1.8129 1.833 1.9699 2.1768 2.2086 2.1257 2.1577 2.2073 2.0166 1.8808
2613.765 1.8792 1.9181 1.8009 1.5879 1.7333 1.9601 2.157 2.0864 2.1031 2.443
2633.055 2.144 1.8008 1.7542 1.7189 1.8299 2.0091 1.9473 1.62198 1.8782 2.1599
2652.345 1.9956 2.0623 2.1726 2.2244 2.0887 1.9175 1.68679 1.7178 2.203 2.2509
2671.634 2.0888 2.4164 2.578 2.172 2.0382 2.0934 2.0325 2.2163 2.3335 2.1426
2690.924 2.0568 2.0911 2.0691 2.1249 2.2845 2.366 2.2159 2.0201 2.1242 2.3218
2710.214 2.1308 2.0038 2.1104 1.9519 1.7232 1.6501 1.69254 2.0848 2.1736 1.8838
2729.504 2.1267 2.2787 1.9953 1.8728 2.0018 2.0761 2.2636 2.4962 2.5348 2.4762
2748.794 2.3516 2.3967 2.441 2.3689 2.2232 2.0423 2.069 2.1758 2.1025 2.0186
2768.083 2.1144 2.3851 2.4902 2.2849 2.3358 2.5519 2.67 2.68 2.65 2.61
2787.373 2.65 3.05 3.27 2.98 2.99 3.42 3.69 3.6 3.41 3.55
2806.663 3.87 4.03 4.19 4.38 4.3 4.35 4.35 4.4 4.65 5.09
2825.953 5.31 5.27 5.66 5.98 6.24 6.66 7.13 7.39 7.77 8.68
2845.242 9.69 10.54 11.68 13.27 15.19 17.08 19.1 21.33 23.36 24.67
2864.532 25.49 26.19 26 25.48 25.09 24.42 23.91 23.13 22.45 22.38
2883.822 21.97 21.16 20.55 20.33 19.99 19.98 20.54 21.33 21.88 22.63
2903.112 23.84 25.13 26.68 28.24 29.86 31.78 34.3 37.13 40.31 43.75
2922.401 47.37 51.04 54.49 58.23 61.39 63.43 64.34 63.73 62.31 60.73
2941.691 58.51 55.66 52.35 48.6 45.9 43.69 41.58 40.46 39.64 39.31
2960.981 39.72 40.01 39.95 39.76 38.7 36.45 33.21 29.5 26.07 22.49
2980.271 18.83 16.08 14.3 12.98 11.51 10.03 8.86 8.13 7.74 7.35
2999.561 7.09 6.69 6.16 5.74 5.6 5.75 5.43 5.02 4.78 4.55
3018.850 4.41 3.95 3.82 3.9 3.9 3.72 3.56 3.57 3.49 3.46
3038.140 3.25 3.25 3.32 2.99 2.95 3.12 3.05 3 2.85 2.8
3057.430 2.99 2.86 2.5917 2.6092 2.77 2.84 3.05 3.38 3.47 3.71
3076.720 3.89 4.02 4.29 4.49 4.72 4.6 4.58 4.48 4.12 3.94
3096.009 3.67 3.62 3.58 3.28 3.12 2.86 2.9 2.82 2.76 3.17
3115.299 2.84 2.5776 2.77 2.4701 2.3357 2.4979 2.4473 2.485 2.3169 1.9928
3134.589 1.9251 1.7323 1.63161 2.0242 2.1185 2.0028 1.9662 1.8524 1.8963 2.0042
3153.879 2.0423 1.7807 1.7226 1.68678 1.64368 1.7352 1.9921 2.4583 2.2386 1.7193
3173.169 1.5172 1.8236 1.9801 2.0354 1.9177 1.7596 1.7269 1.205 1.112 1.5714
3192.458 1.6905 1.456 1.455 1.6269 1.156 1.214 1.8287 1.8475 1.7293 1.60572
3211.748 1.6905 1.9924 1.7596 1.66345 1.469 1.116 1.226 1.69779 1.498 1.146
3231.038 1.5921 1.7282 2.061 1.67985 1.234 1.334 1.183 1.226 1.142 1.059
3250.328 1.167 1.398 1.5614 1.5112 1.7436 1.66362 1.445 1.61646 1.5479 1.61591
3269.617 2.1932 2.437 2.1104 1.502 1.64207 1.7286 1.272 1.048 1.071 1.498
3288.907 1.8126 2.1022 1.7822 1.5918 2.0622 2.1483 2.0196 1.65531 1.68837 2.1378
3308.197 2.0011 1.8367 1.9173 1.67458 1.7591 1.9794 1.7568 1.388 1.5699 2.0409
3327.487 1.66716 1.432 1.7121 2.0372 2.307 2.2414 2.116 2.4064 2.4171 1.9826
3346.777 2.01 2.0764 1.9298 1.8882 1.9861 2.67 2.63 2.133 2.416 2.4723
3366.066 2.1162 1.8744 1.8957 1.9827 2.2279 2.449 2.3669 2.1719 2.145 2.1521
3385.356 2.1888 1.86 1.558 1.492 1.315 1.037 1.136 1.497 1.718 1.66533
3404.646 1.8535 1.67523 1.67747 1.8814 1.392 1.389 1.65809 1.9374 1.9335 1.5897
3423.936 1.447 1.389 1.235 1.182 1.244 1.355 1.5393 1.442 0.911 1.267
3443.225 1.7613 1.5787 1.5538 1.427 1.357 1.412 1.7193 2.2215 2.0648 1.946
3462.515 1.9924 1.8953 1.9915 1.8085 1.65062 1.8288 1.8162 1.5986 1.64008 1.214
3481.805 0.858 1.396 1.64781 1.9455 1.894 1.549 1.5196 1.5612 1.7635 1.65303
3501.095 1.447 1.28 1.229 1.65815 1.8764 1.736 1.7424 1.8351 1.7134 1.29
3520.385 1.335 1.845 1.938 1.7826 1.41 1.408 1.481 1.184 1.5502 1.8989
3539.674 1.8002 1.7519 1.67607 1.37 0.941 1.128 1.315 1.397 1.5365 1.70305
3558.964 2.0906 1.9294 1.66879 1.7542 2.1115 2.137 2.0905 2.0835 1.67939 0.927
3578.254 0.716 1.219 1.505 1.7031 2.0529 2.1455 1.63974 1.41 1.64607 1.7064
3597.544 1.43 1.336 1.7238 1.9117 2.0343 1.8544 1.61015 1.5191 1.62918 1.7882
3616.833 1.7418 1.9088 1.7235 1.8772 1.8954 1.207 1.336 1.9457 2.0532 1.8648
3636.123 1.65149 1.5 1.375 1.371 1.7228 1.9596 1.8955 2.0958 2.007 1.67228
3655.413 1.421 1.61061 1.5582 1.66171 1.8715 1.67343 1.5787 1.7403 1.62859 1.327
3674.703 1.5328 1.386 1.289 1.407 1.7692 1.7757 1.333 1.366 1.272 1.288
3693.993 1.62412 1.9968 1.7636 1.8758 2.2255 1.9541 1.9068 1.68758 1.7687 2.0065
3713.282 1.7637 1.409 1.314 1.331 1.64833 1.8686 1.485 1.466 1.7343 1.434
3732.572 1.371 1.48 1.166 1.152 1.242 1.104 1.5137 1.7982 1.7519 1.61111
3751.862 1.5472 1.8368 1.9751 1.7375 1.428 1.493 1.67936 1.69497 1.61137 1.534
3771.152 1.5569 1.66918 1.8752 2.1187 1.9211 1.5804 1.5725 1.67758 1.495 1.155
3790.441 1.422 2.1187 2.332 1.452 0.627 1.151 1.379 1.498 1.7116 1.826
3809.731 1.60146 1.8398 2.0442 1.486 1.67257 1.8132 1.8839 1.9587 2.366 2.5726
3829.021 2.121 1.5493 1.389 1.6855 1.867 2.1607 2.1877 2.0787 2.1447 1.7689
3848.311 1.5124 1.9307 1.8501 1.7407 1.8861 1.7239 1.5135 1.383 1.67262 2.0278
3867.601 1.7285 1.267 1.468 1.44 1.494 1.8584 1.335 0.935 1.5478 1.8302
3886.890 1.397 0.975 1.356 1.64028 1.286 1.248 1.7873 1.8471 1.6475 1.263
3906.180 1.24 1.7784 1.8771 1.948 1.9108 2.1856 2.0393 1.29 1.397 1.5673
3925.470 1.5486 1.64673 1.428 1.61684 1.9381 1.8636 1.558 1.528 2.0996 2.2166
3944.760 1.8084 1.65081 1.67869 1.66665 1.7003 1.414 1.215 1.7769 2.1486 2.3086
3964.049 2.2563 1.8239 1.394 1.61895 1.997 1.7713 1.595 1.7296 1.503 1.414
3983.339 1.7178 1.70606 1.9839 1.9759 1.5479 1.7102 1.7541 2.0832 2.3259 1.9854
##END=
