##TITLE=N,N'-Hexamethylenebis(acetamide)
##JCAMP-DX=4.24
##DATA TYPE=INFRARED SPECTRUM
##ORIGIN=EPA-IR VAPOR PHASE LIBRARY
##OWNER=SRD/NIST
Collection (C) 2018 copyright by the U.S. Secretary of Commerce
on behalf of the United States of America. All rights reserved.
##CAS REGISTRY NO=3073-59-4
##MOLFORM=C 10 H 20 N 2 O 2
##$NIST SOURCE=MSDC-IR
##STATE=gas
##XUNITS=1/CM
##YUNITS=ABSORBANCE
##XFACTOR=1.
##YFACTOR=0.001
##DELTAX=1.92934
##FIRSTX=549.9
##LASTX=3999.5
##FIRSTY=2.683
##MAXX=3999.53
##MINX=549.863
##MAXY=0.065203
##MINY=0
##NPOINTS=1789
##XYDATA=(X++(Y..Y))
549.863 2.683 2.483 2.333 2.343 2.333 2.263 2.193 2.143 2.083 2.043
569.156 2.023 2.013 1.953 1.963 1.913 1.8576 1.8625 1.8495 1.8448 1.801
588.450 1.7503 1.7687 1.7978 1.7718 1.8145 1.923 2.043 2.043 2.073 2.163
607.743 2.253 2.343 2.413 2.513 2.553 2.563 2.563 2.543 2.513 2.513
627.037 2.433 2.333 2.303 2.283 2.263 2.193 2.123 2.063 1.953 1.8271
646.330 1.7886 1.7958 1.7259 1.6701 1.6114 1.5331 1.5038 1.462 1.4315 1.4191
665.624 1.4211 1.5364 1.5323 1.3855 1.3112 1.2778 1.2521 1.238 1.2209 1.1952
684.917 1.1759 1.1935 1.2488 1.2272 1.2248 1.2119 1.1968 1.231 1.213 1.2551
704.210 1.3159 1.3191 1.3468 1.3972 1.4272 1.4823 1.5557 1.5953 1.6213 1.6334
723.504 1.6275 1.6177 1.6345 1.6509 1.6416 1.6285 1.5985 1.5749 1.5622 1.5357
742.797 1.5352 1.5486 1.5278 1.5265 1.5218 1.4977 1.4903 1.5164 1.5312 1.5492
762.091 1.5838 1.588 1.604 1.6189 1.6152 1.6562 1.7274 1.7663 1.7913 1.8185
781.384 1.8598 1.933 2.013 2.073 2.133 2.173 2.223 2.293 2.333 2.403
800.678 2.473 2.543 2.613 2.633 2.683 2.773 2.833 2.833 2.833 2.843
819.971 2.843 2.843 2.863 2.853 2.823 2.783 2.763 2.773 2.773 2.723
839.264 2.673 2.643 2.593 2.593 2.603 2.533 2.453 2.443 2.433 2.423
858.558 2.423 2.383 2.303 2.233 2.183 2.143 2.143 2.123 2.063 2.013
877.851 1.973 1.933 1.923 1.943 1.8811 1.8282 1.8232 1.8149 1.8246 1.8158
897.145 1.7713 1.7354 1.751 1.7607 1.7662 1.767 1.7717 1.7802 1.7757 1.7716
916.438 1.774 1.7822 1.8039 1.8308 1.8482 1.8628 1.8623 1.885 1.913 1.923
935.732 1.973 2.033 2.063 2.073 2.113 2.183 2.243 2.303 2.363 2.423
955.025 2.493 2.573 2.643 2.713 2.803 2.883 2.923 2.943 2.913 2.883
974.318 2.833 2.783 2.723 2.653 2.603 2.573 2.513 2.433 2.363 2.333
993.612 2.303 2.243 2.203 2.193 2.183 2.173 2.183 2.193 2.213 2.243
1012.905 2.273 2.303 2.353 2.403 2.443 2.483 2.513 2.523 2.583 2.653
1032.199 2.753 2.773 2.733 2.743 2.743 2.763 2.793 2.773 2.783 2.803
1051.492 2.783 2.783 2.773 2.773 2.793 2.783 2.783 2.793 2.823 2.853
1070.786 2.873 2.933 3.003 3.073 3.183 3.353 3.543 3.723 3.943 4.133
1090.079 4.293 4.403 4.443 4.413 4.333 4.213 4.073 3.943 3.803 3.683
1109.372 3.573 3.463 3.373 3.283 3.153 3.063 3.003 2.923 2.853 2.763
1128.666 2.693 2.623 2.523 2.413 2.293 2.123 2.073 2.073 1.993 1.963
1147.959 1.903 1.8587 1.8426 1.7686 1.7581 1.7819 1.7537 1.7724 1.7826 1.7824
1167.253 1.8275 1.8835 1.923 1.913 1.963 2.053 2.143 2.183 2.153 2.213
1186.546 2.363 2.433 2.573 2.833 3.023 3.113 3.303 3.673 3.993 4.343
1205.840 4.803 5.233 5.843 6.663 7.423 8.173 9.113 10.003 10.793 11.693
1225.133 12.693 13.773 14.913 16.203 17.693 19.403 21.243 23.093 24.723 26.033
1244.426 26.803 26.983 26.653 25.833 24.693 23.413 22.123 20.833 19.563 18.273
1263.720 17.083 15.973 14.843 13.773 12.753 11.773 10.863 10.073 9.433 8.893
1283.013 8.463 8.133 7.923 7.703 7.483 7.293 7.153 7.103 6.983 6.853
1302.307 6.773 6.703 6.643 6.563 6.493 6.503 6.443 6.323 6.173 5.943
1321.600 5.693 5.473 5.263 5.063 4.883 4.743 4.653 4.713 4.983 5.253
1340.894 5.223 5.203 5.543 5.983 6.523 7.193 8.023 8.993 10.083 11.283
1360.187 12.583 13.743 14.253 14.333 14.273 13.883 13.243 12.513 11.583 10.783
1379.480 10.023 9.273 8.643 8.243 8.003 7.463 6.983 6.863 6.783 6.553
1398.774 6.343 6.053 5.913 5.933 5.873 5.843 5.963 6.043 6.173 6.533
1418.067 6.943 7.103 7.183 7.583 7.973 8.443 9.083 9.813 10.623 11.743
1437.361 12.663 13.133 13.783 14.413 14.913 15.423 15.743 16.043 16.423 16.953
1456.654 17.653 17.943 18.173 18.683 19.323 20.013 20.793 21.823 23.163 24.523
1475.948 25.913 27.453 29.183 31.173 33.223 35.383 37.563 39.613 41.143 42.233
1495.241 43.123 43.403 43.033 42.193 40.783 39.073 37.353 35.243 32.743 30.113
1514.534 27.663 25.393 23.143 21.283 19.273 17.443 16.043 14.553 13.193 12.103
1533.828 11.093 10.133 9.233 8.473 7.893 7.533 7.073 6.383 6.083 5.683
1553.121 5.293 5.023 4.633 4.463 4.233 3.933 3.743 3.583 3.443 3.293
1572.415 3.163 3.023 2.923 2.893 2.853 2.773 2.713 2.653 2.593 2.573
1591.708 2.513 2.463 2.443 2.403 2.373 2.383 2.373 2.333 2.313 2.293
1611.002 2.293 2.293 2.243 2.213 2.283 2.353 2.373 2.403 2.443 2.493
1630.295 2.573 2.643 2.743 2.873 2.983 3.093 3.213 3.373 3.583 3.773
1649.588 3.913 4.093 4.443 4.753 4.973 5.273 5.603 5.953 6.343 6.813
1668.882 7.323 7.843 8.453 9.203 9.983 10.923 12.133 13.413 15.023 16.983
1688.175 19.383 22.153 25.273 28.783 32.703 36.703 40.863 45.323 49.463 53.683
1707.469 57.653 61.243 63.923 65.203 64.673 62.263 58.213 53.203 47.603 42.043
1726.762 36.943 32.453 28.453 25.003 21.783 18.813 16.473 14.453 12.803 11.403
1746.056 10.123 9.093 8.373 7.593 6.603 6.003 5.493 4.943 4.573 4.133
1765.349 3.803 3.773 3.483 3.023 2.783 2.623 2.483 2.373 2.273 2.153
1784.642 2.173 1.983 1.8019 1.864 1.7752 1.6304 1.5744 1.5004 1.6023 1.6985
1803.936 1.4586 1.3 1.291 1.2609 1.259 1.2082 1.2104 1.2469 1.1574 1.1016
1823.229 1.1596 1.2114 1.1127 1.0712 1.0942 1.092 1.0539 1.00194 0.99566 1.0341
1842.523 1.1256 1.1214 1.0875 1.0649 0.96655 0.8922 0.8876 0.8855 0.92677 0.97751
1861.816 0.96612 0.9382 0.91942 0.97033 1.0166 0.93256 0.8687 0.8584 0.8693 0.89967
1881.110 0.8629 0.8396 0.8699 0.8622 0.90154 0.8886 0.841 0.8746 0.8683 0.8339
1900.403 0.8203 0.8041 0.793 0.8055 0.832 0.8246 0.802 0.8047 0.8463 0.89996
1919.696 0.8509 0.8522 0.8622 0.798 0.784 0.766 0.769 0.795 0.786 0.771
1938.990 0.774 0.8346 0.8742 0.8235 0.779 0.769 0.786 0.778 0.773 0.772
1958.283 0.776 0.788 0.782 0.789 0.8308 0.8512 0.817 0.8113 0.8052 0.8054
1977.577 0.8128 0.8242 0.8441 0.8428 0.8409 0.8551 0.8604 0.8915 0.89507 0.8392
1996.870 0.8231 0.8195 0.8237 0.8111 0.794 0.8071 0.803 0.785 0.786 0.803
2016.164 0.8323 0.84 0.8051 0.788 0.783 0.782 0.784 0.769 0.771 0.778
2035.457 0.786 0.802 0.8237 0.8378 0.8128 0.792 0.798 0.792 0.791 0.782
2054.750 0.787 0.782 0.776 0.778 0.769 0.795 0.79 0.77 0.77 0.769
2074.044 0.768 0.756 0.76 0.753 0.739 0.739 0.738 0.74 0.758 0.751
2093.337 0.722 0.726 0.739 0.74 0.733 0.725 0.711 0.721 0.743 0.753
2112.631 0.758 0.765 0.752 0.741 0.756 0.752 0.738 0.741 0.749 0.748
2131.924 0.738 0.737 0.748 0.741 0.738 0.732 0.733 0.74 0.732 0.741
2151.218 0.748 0.732 0.743 0.771 0.771 0.769 0.772 0.769 0.762 0.755
2170.511 0.76 0.761 0.734 0.713 0.728 0.738 0.728 0.72 0.724 0.73
2189.804 0.719 0.71 0.717 0.711 0.699 0.709 0.7 0.692 0.7 0.713
2209.098 0.727 0.716 0.722 0.731 0.708 0.704 0.709 0.709 0.705 0.698
2228.391 0.696 0.693 0.693 0.708 0.722 0.719 0.699 0.689 0.698 0.71
2247.685 0.711 0.703 0.698 0.695 0.696 0.702 0.711 0.718 0.724 0.728
2266.978 0.722 0.731 0.74 0.746 0.76 0.775 0.774 0.776 0.793 0.796
2286.272 0.8039 0.8085 0.8191 0.834 0.838 0.8533 0.8749 0.90162 0.910916 0.92541
2305.565 0.95569 0.96135 0.98097 0.99854 1.0123 1.0323 1.034 1.0329 1.0572 1.072
2324.858 1.0603 1.0566 1.0556 1.0409 1.0221 1.0235 1.0143 0.99991 0.99968 0.99474
2344.152 0.96683 0.94616 0.93426 0.91828 0.94387 0.99328 1.0201 1.0483 1.0753 1.0962
2363.445 1.102 1.101 1.0986 1.0841 1.0642 1.0437 1.011 0.95023 0.906527 0.8561
2382.739 0.8053 0.768 0.735 0.713 0.714 0.716 0.72 0.718 0.691 0.7
2402.032 0.715 0.697 0.674 0.674 0.673 0.673 0.681 0.678 0.665 0.652
2421.326 0.638 0.631 0.653 0.673 0.662 0.649 0.651 0.658 0.667 0.665
2440.619 0.659 0.662 0.682 0.68 0.679 0.671 0.657 0.655 0.649 0.659
2459.912 0.658 0.647 0.637 0.638 0.658 0.66 0.655 0.646 0.628 0.624
2479.206 0.641 0.654 0.631 0.618 0.621 0.602 0.602 0.618 0.612 0.602
2498.499 0.607 0.613 0.609 0.605 0.614 0.61 0.603 0.609 0.625 0.617
2517.793 0.592 0.595 0.609 0.616 0.623 0.634 0.632 0.606 0.597 0.608
2537.086 0.625 0.623 0.613 0.619 0.641 0.649 0.619 0.631 0.647 0.632
2556.380 0.622 0.63 0.627 0.631 0.64 0.641 0.655 0.648 0.647 0.642
2575.673 0.632 0.64 0.646 0.661 0.682 0.68 0.678 0.68 0.688 0.699
2594.966 0.694 0.677 0.675 0.68 0.676 0.667 0.667 0.683 0.696 0.698
2614.260 0.69 0.694 0.693 0.694 0.715 0.706 0.707 0.72 0.738 0.742
2633.553 0.73 0.728 0.736 0.743 0.742 0.759 0.766 0.768 0.757 0.744
2652.847 0.759 0.754 0.748 0.778 0.795 0.772 0.781 0.8151 0.8262 0.8203
2672.140 0.8343 0.8615 0.8681 0.8811 0.90091 0.909631 0.92199 0.94959 0.96057 0.96915
2691.434 0.98022 0.98427 0.99342 1.00286 1.00256 1.0091 1.0231 1.0329 1.0541 1.0727
2710.727 1.0668 1.0434 1.0459 1.0664 1.0702 1.0686 1.0515 1.0206 0.99726 1.0098
2730.020 1.0269 1.018 1.0046 1.0127 1.0256 1.0131 0.98239 0.9657 0.98187 0.99828
2749.314 0.98914 0.97753 0.97389 0.95294 0.95543 0.98258 0.98417 0.95675 0.93799 0.93322
2768.607 0.95042 0.97326 0.98726 0.99837 0.98769 0.97009 0.98051 1.0257 1.0468 1.0506
2787.901 1.068 1.0997 1.1143 1.1228 1.1453 1.177 1.2377 1.2768 1.2846 1.3139
2807.194 1.3382 1.3549 1.4256 1.4951 1.5383 1.5946 1.6303 1.7217 1.8287 1.8823
2826.488 1.953 2.043 2.163 2.273 2.413 2.583 2.803 3.033 3.283 3.643
2845.781 4.053 4.553 5.153 5.853 6.663 7.423 8.203 9.013 9.693 10.203
2865.074 10.533 10.653 10.613 10.403 10.073 9.663 9.273 8.913 8.583 8.313
2884.368 8.113 7.983 7.903 7.943 8.073 8.143 8.313 8.593 8.993 9.503
2903.661 10.063 10.713 11.523 12.443 13.433 14.463 15.573 16.723 17.953 19.283
2922.955 20.683 22.183 23.683 25.143 26.423 27.393 28.053 28.283 28.013 27.283
2942.248 26.183 24.833 23.213 21.493 19.803 18.203 16.673 15.243 13.953 12.803
2961.542 11.783 10.833 10.013 9.283 8.603 8.003 7.383 6.823 6.323 5.863
2980.835 5.433 5.023 4.713 4.413 4.093 3.783 3.583 3.443 3.233 3.023
3000.128 2.873 2.763 2.653 2.553 2.463 2.413 2.363 2.333 2.303 2.263
3019.422 2.183 2.133 2.133 2.093 2.033 2.003 1.983 1.973 1.933 1.913
3038.715 1.8594 1.7897 1.7648 1.748 1.7318 1.6651 1.5865 1.6034 1.5815 1.5364
3058.009 1.504 1.45 1.4322 1.3822 1.3688 1.333 1.2619 1.2579 1.2306 1.1347
3077.302 1.1018 1.1187 1.0802 1.0823 1.0664 0.9729 0.95203 0.9601 0.8682 0.792
3096.596 0.8041 0.767 0.715 0.695 0.667 0.664 0.644 0.658 0.648 0.555
3115.889 0.528 0.533 0.536 0.524 0.483 0.438 0.39 0.364 0.344 0.33
3135.182 0.317 0.339 0.353 0.306 0.272 0.33 0.365 0.35 0.347 0.334
3154.476 0.287 0.245 0.247 0.308 0.294 0.213 0.245 0.254 0.253 0.21
3173.769 0.162 0.139 0.122 0.164 0.192 0.149 0.119 0.159 0.146 0.173
3193.063 0.171 0.162 0.213 0.184 0.143 0.125 0.166 0.187 0.178 0.168
3212.356 0.194 0.218 0.16 0.163 0.229 0.227 0.196 0.192 0.168 0.179
3231.650 0.198 0.204 0.169 0.164 0.193 0.205 0.183 0.179 0.19 0.172
3250.943 0.154 0.134 0.176 0.188 0.16 0.13 0.136 0.147 0.12 0.116
3270.236 0.109 0.094 0.142 0.176 0.15 0.17 0.171 0.2 0.239 0.171
3289.530 0.175 0.208 0.203 0.191 0.179 0.23 0.243 0.223 0.239 0.202
3308.823 0.159 0.16 0.137 0.126 0.133 0.125 0.144 0.211 0.271 0.352
3328.117 0.344 0.266 0.268 0.333 0.382 0.346 0.299 0.297 0.313 0.356
3347.410 0.337 0.291 0.344 0.344 0.307 0.361 0.416 0.436 0.423 0.436
3366.704 0.482 0.5 0.548 0.563 0.623 0.694 0.687 0.714 0.736 0.8664
3385.997 0.98287 0.97839 1.00205 1.0634 1.2098 1.334 1.4124 1.5427 1.6627 1.7161
3405.290 1.8169 1.973 2.103 2.263 2.393 2.503 2.573 2.583 2.553 2.493
3424.584 2.443 2.383 2.303 2.263 2.233 2.163 2.163 2.163 2.113 2.163
3443.877 2.213 2.193 2.243 2.323 2.353 2.443 2.613 2.823 2.983 3.103
3463.171 3.223 3.303 3.363 3.403 3.463 3.453 3.393 3.323 3.183 3.113
3482.464 3.003 2.753 2.503 2.273 2.033 1.7955 1.6119 1.4444 1.2816 1.1747
3501.758 1.0945 1.0106 0.8634 0.739 0.675 0.64 0.568 0.482 0.422 0.417
3521.051 0.445 0.582 0.624 0.434 0.313 0.273 0.249 0.238 0.298 0.297
3540.344 0.251 0.308 0.46 0.574 0.453 0.311 0.269 0.256 0.269 0.238
3559.638 0.227 0.276 0.354 0.572 0.726 0.476 0.195 0.171 0.183 0.187
3578.931 0.175 0.177 0.206 0.309 0.548 0.553 0.317 0.226 0.246 0.255
3598.225 0.207 0.158 0.161 0.172 0.222 0.356 0.4 0.313 0.24 0.235
3617.518 0.302 0.301 0.207 0.155 0.21 0.379 0.459 0.311 0.199 0.146
3636.812 0.121 0.177 0.165 0.182 0.245 0.291 0.385 0.404 0.282 0.202
3656.105 0.212 0.211 0.183 0.105 0.087 0.139 0.146 0.159 0.174 0.13
3675.398 0.132 0.162 0.164 0.152 0.09 0.062 0.105 0.131 0.11 0.117
3694.692 0.138 0.17 0.235 0.259 0.202 0.124 0.143 0.173 0.171 0.274
3713.985 0.373 0.323 0.245 0.243 0.318 0.349 0.399 0.399 0.242 0.216
3733.279 0.4 0.581 0.489 0.279 0.253 0.335 0.373 0.244 0.101 0.077
3752.572 0.107 0.104 0.081 0.125 0.143 0.145 0.182 0.206 0.171 0.128
3771.866 0.105 0.112 0.147 0.159 0.139 0.101 0.084 0.098 0.114 0.103
3791.159 0.082 0.051 0.064 0.094 0.05 0 0.014 0.031 0.051 0.076
3810.452 0.057 0.072 0.063 0.052 0.09 0.124 0.106 0.08 0.098 0.128
3829.746 0.128 0.126 0.15 0.156 0.131 0.146 0.176 0.143 0.102 0.113
3849.039 0.183 0.229 0.27 0.297 0.257 0.174 0.202 0.266 0.276 0.267
3868.333 0.289 0.327 0.265 0.224 0.195 0.168 0.25 0.342 0.346 0.374
3887.626 0.302 0.27 0.342 0.351 0.366 0.397 0.517 0.592 0.556 0.471
3906.920 0.312 0.184 0.18 0.227 0.271 0.369 0.434 0.368 0.315 0.299
3926.213 0.228 0.231 0.328 0.42 0.381 0.23 0.182 0.234 0.322 0.373
3945.506 0.333 0.361 0.349 0.258 0.239 0.213 0.222 0.253 0.28 0.322
3964.800 0.276 0.195 0.207 0.236 0.262 0.33 0.341 0.286 0.268 0.224
3984.093 0.188 0.195 0.231 0.273 0.245 0.223 0.237 0.238 0.224
##END=
