##TITLE=2-Amino-5-nitropyrimidine
##JCAMP-DX=4.24
##DATA TYPE=INFRARED SPECTRUM
##ORIGIN=NIST Mass Spectrometry Data Center
##OWNER=NIST Standard Reference Data Program
Collection (C) 2018 copyright by the U.S. Secretary of Commerce
on behalf of the United States of America. All rights reserved.
##CAS REGISTRY NO=3073-77-6
##MOLFORM=C 4 H 4 N 4 O 2
##$NIST SOURCE=MSDC-IR
##SPECTROMETER/DATA SYSTEM=HP-GC/MS/IRD
##STATE=gas
##XUNITS=1/CM
##YUNITS=ABSORBANCE
##XFACTOR=1.0
##YFACTOR=0.000003100
##DELTAX=4.0
##FIRSTX=550.0
##LASTX=3846.0
##FIRSTY=0.000518
##MAXX=3846
##MINX=550
##MAXY=0.031
##MINY=0
##NPOINTS=825
##XYDATA=(X++(Y..Y))
550.0 167 248 200 221 225 264 298 337 350 348
590.0 373 382 381 407 418 418 478 554 659 830
630.0 1036 1201 1236 1120 885 622 433 344 347 370
670.0 367 347 320 301 269 232 206 196 197 207
710.0 231 247 287 305 292 302 315 331 354 424
750.0 528 644 753 835 860 782 672 595 524 461
790.0 428 407 388 403 445 528 652 829 1096 1289
830.0 1329 1341 1275 1122 975 876 849 868 865 789
870.0 687 550 393 282 240 231 219 220 213 184
910.0 158 149 149 152 151 151 149 167 186 198
950.0 209 191 162 150 131 100 76 69 72 73
990.0 83 94 113 128 147 156 161 151 124 122
1030.0 125 112 110 131 135 126 117 109 91 72
1070.0 64 53 37 38 44 38 47 98 203 414
1110.0 737 1034 1188 1232 1089 736 421 244 164 126
1150.0 116 103 79 62 44 21 5 0 10 17
1190.0 17 17 26 35 30 43 74 96 109 127
1230.0 127 109 91 80 86 98 124 179 296 480
1270.0 719 937 1069 1115 1097 1023 1020 1139 1251 1340
1310.0 1411 1362 1253 1266 1476 2000 3088 4961 7245 8936
1350.0 9530 9235 7511 4679 2642 1736 1293 1017 802 660
1390.0 604 674 905 1253 1619 1835 1825 1634 1239 751
1430.0 433 305 264 257 266 305 389 535 750 1050
1470.0 1418 1873 2391 2699 2620 2357 2011 1521 1182 1188
1510.0 1422 1807 2302 2818 3156 3197 3123 2972 2518 1917
1550.0 1435 1147 1027 1055 1243 1659 2289 3050 3773 4443
1590.0 4920 4990 5112 6133 7985 9577 10000 9526 8279 6022
1630.0 3733 2332 1582 1137 819 592 442 350 301 268
1670.0 268 275 266 251 230 205 171 143 133 130
1710.0 124 118 109 99 94 85 73 65 60 50
1750.0 45 40 39 42 43 44 53 59 64 63
1790.0 62 70 67 61 56 50 43 39 38 34
1830.0 29 28 25 20 24 30 30 32 35 45
1870.0 52 57 64 64 68 71 76 76 69 65
1910.0 62 61 62 64 74 79 77 71 67 66
1950.0 65 56 45 44 46 48 52 55 53 51
1990.0 49 46 45 43 43 40 35 37 42 40
2030.0 37 38 37 32 35 42 38 31 32 35
2070.0 36 41 42 47 52 53 52 52 51 49
2110.0 51 51 53 57 56 50 51 53 54 54
2150.0 53 51 51 50 42 40 47 47 45 43
2190.0 36 37 41 42 43 46 50 53 56 56
2230.0 54 58 60 59 61 63 61 67 72 66
2270.0 65 63 58 60 65 68 66 64 68 72
2310.0 71 76 79 75 74 74 80 82 77 78
2350.0 76 69 64 59 57 57 53 46 52 61
2390.0 63 57 56 58 58 53 50 56 63 62
2430.0 64 75 80 79 82 84 89 90 92 103
2470.0 102 97 100 97 97 96 97 93 80 75
2510.0 70 63 59 59 62 58 55 60 70 75
2550.0 78 81 88 81 75 74 67 74 82 77
2590.0 70 61 63 64 60 59 63 73 74 75
2630.0 83 88 89 86 83 73 66 68 73 69
2670.0 68 65 56 58 60 62 62 60 49 35
2710.0 33 37 41 40 37 37 46 51 49 42
2750.0 43 49 38 38 55 55 45 47 42 43
2790.0 47 40 34 36 41 49 51 50 54 55
2830.0 58 64 60 65 74 77 86 101 113 113
2870.0 97 95 100 94 76 70 78 72 68 71
2910.0 82 84 82 83 91 92 87 93 87 78
2950.0 82 81 70 63 66 74 73 65 63 60
2990.0 47 44 41 40 48 44 37 47 58 66
3030.0 73 80 94 109 113 119 127 136 150 165
3070.0 172 168 162 147 140 145 142 134 117 94
3110.0 73 66 64 57 48 42 40 44 49 58
3150.0 65 58 57 58 63 71 78 93 114 119
3190.0 124 131 105 83 79 72 70 63 55 49
3230.0 58 65 54 47 44 43 44 46 53 44
3270.0 35 41 43 40 49 48 35 40 43 40
3310.0 38 34 45 54 61 63 56 55 53 52
3350.0 55 55 52 50 44 49 67 88 103 117
3390.0 146 183 244 331 450 622 804 936 985 976
3430.0 922 859 895 1059 1180 1147 1041 846 540 299
3470.0 182 141 133 135 143 154 180 207 238 278
3510.0 320 347 370 393 388 374 354 335 336 349
3550.0 360 392 425 416 396 382 325 248 190 145
3590.0 111 100 96 83 82 78 58 66 66 60
3630.0 64 69 72 52 39 43 50 55 57 58
3670.0 52 47 57 70 73 67 63 49 42 56
3710.0 64 57 52 49 45 41 41 54 56 59
3750.0 53 54 57 44 47 57 53 47 52 57
3790.0 55 50 59 69 63 63 58 48 56 54
3830.0 44 47 53 57 60
##END=
