##TITLE=1,1,3-Trimethylcyclohexane
##JCAMP-DX=4.24
##DATA TYPE=INFRARED SPECTRUM
##ORIGIN=NIST Mass Spectrometry Data Center
##OWNER=NIST Standard Reference Data Program
Collection (C) 2018 copyright by the U.S. Secretary of Commerce
on behalf of the United States of America. All rights reserved.
##CAS REGISTRY NO=3073-66-3
##MOLFORM=C 9 H 18
##$NIST SOURCE=MSDC-IR
##SPECTROMETER/DATA SYSTEM=HP-GC/MS/IRD
##STATE=gas
##XUNITS=1/CM
##YUNITS=ABSORBANCE
##XFACTOR=1.0
##YFACTOR=0.000000900
##DELTAX=4.0
##FIRSTX=550.0
##LASTX=3846.0
##FIRSTY=0.000075
##MAXX=3846
##MINX=550
##MAXY=0.009
##MINY=0
##NPOINTS=825
##XYDATA=(X++(Y..Y))
550.0 83 75 131 162 152 179 220 171 153 106
590.0 7 35 72 162 114 53 116 86 102 82
630.0 65 65 93 137 175 158 98 105 170 149
670.0 85 96 115 113 145 159 211 205 107 81
710.0 123 146 138 186 164 101 115 118 60 102
750.0 156 104 88 74 82 128 120 79 79 115
790.0 120 141 148 147 130 139 133 105 224 175
830.0 102 179 229 242 211 198 202 203 210 153
870.0 97 113 138 146 152 124 116 123 135 137
910.0 126 123 105 136 168 166 160 181 188 212
950.0 248 265 273 285 277 241 201 195 200 171
990.0 190 207 173 140 136 139 133 135 167 183
1030.0 191 176 146 150 142 152 169 192 192 140
1070.0 96 123 166 189 172 163 172 136 125 148
1110.0 179 189 182 166 131 110 164 184 153 127
1150.0 104 120 150 163 183 215 232 231 211 174
1190.0 151 148 135 145 154 161 183 205 199 169
1230.0 169 191 200 202 215 185 194 187 160 184
1270.0 191 178 196 205 230 253 266 266 243 223
1310.0 192 162 151 158 175 198 219 250 308 392
1350.0 504 603 679 726 814 881 848 847 834 780
1390.0 696 555 450 333 245 214 204 229 272 313
1430.0 356 450 613 807 1005 1188 1360 1506 1507 1371
1470.0 1211 1033 820 626 481 373 304 223 179 180
1510.0 149 131 139 125 115 122 114 126 115 82
1550.0 84 110 147 146 119 113 112 104 90 80
1590.0 82 96 110 102 93 113 136 125 112 120
1630.0 127 122 120 115 113 118 111 99 91 91
1670.0 106 104 94 107 109 111 111 86 74 65
1710.0 71 89 104 106 97 100 95 83 66 69
1750.0 81 82 77 62 54 58 84 93 90 93
1790.0 93 102 105 93 74 74 77 84 83 76
1830.0 71 68 56 48 57 64 78 80 77 81
1870.0 78 81 65 64 57 47 69 47 16 37
1910.0 67 75 69 60 49 34 36 54 63 64
1950.0 68 72 70 70 73 63 51 59 65 47
1990.0 36 28 52 53 50 67 86 100 77 53
2030.0 49 42 45 64 64 47 59 57 40 45
2070.0 44 58 67 59 61 64 52 49 52 42
2110.0 25 13 28 50 47 50 51 38 32 40
2150.0 55 60 58 41 44 53 58 71 76 76
2190.0 73 70 71 68 55 50 62 60 46 64
2230.0 53 29 42 47 40 26 5 9 29 26
2270.0 24 33 29 32 47 47 38 38 40 58
2310.0 58 50 52 47 55 60 66 63 48 42
2350.0 31 40 37 18 21 23 19 35 48 35
2390.0 35 61 61 40 35 45 44 36 48 51
2430.0 45 61 55 50 53 38 34 40 30 17
2470.0 37 40 31 40 45 37 34 40 52 63
2510.0 54 33 31 29 30 35 35 31 21 10
2550.0 21 51 55 52 29 44 59 42 46 44
2590.0 40 50 62 77 84 86 106 104 104 125
2630.0 123 116 102 107 143 147 133 122 140 139
2670.0 104 99 120 129 120 110 100 101 126 131
2710.0 110 124 151 154 150 175 192 174 183 190
2750.0 159 143 173 193 173 161 181 191 185 219
2790.0 265 293 317 343 375 427 478 544 669 851
2830.0 1092 1409 1799 2218 2586 2874 3047 3098 3213 3421
2870.0 3651 3855 4061 4243 4462 4779 5264 5893 6549 7156
2910.0 7766 8411 8945 9224 9660 10000 9399 8657 8425 8354
2950.0 8395 8782 8734 7692 6518 5228 3871 2796 2031 1500
2990.0 1078 745 518 387 318 277 254 219 178 174
3030.0 168 159 147 117 119 140 154 140 128 169
3070.0 212 189 193 223 204 159 149 173 149 126
3110.0 117 133 127 91 114 118 99 87 116 150
3150.0 140 137 138 136 129 128 127 134 122 108
3190.0 129 101 72 97 89 57 40 56 58 57
3230.0 69 64 73 70 83 111 92 47 33 60
3270.0 74 31 0 32 67 59 62 69 74 62
3310.0 67 67 76 98 69 43 18 37 45 49
3350.0 93 84 54 67 66 81 91 49 37 44
3390.0 54 49 33 45 33 34 19 0 5 44
3430.0 73 73 70 63 64 64 57 35 23 31
3470.0 67 80 72 70 84 112 92 52 37 50
3510.0 88 78 71 52 55 76 56 61 33 25
3550.0 65 59 60 94 65 11 2 8 31 42
3590.0 27 60 83 63 61 55 54 70 71 69
3630.0 49 32 37 66 102 83 104 151 100 60
3670.0 104 114 85 81 116 121 104 104 87 95
3710.0 122 80 63 76 40 55 93 98 98 130
3750.0 135 100 94 65 82 116 94 57 26 50
3790.0 72 94 99 46 51 101 133 107 65 73
3830.0 80 102 119 60 43
##END=
