##TITLE=2,6-Dimethyl-1-heptene
##JCAMP-DX=4.24
##DATA TYPE=INFRARED SPECTRUM
##ORIGIN=NIST Mass Spectrometry Data Center
##OWNER=NIST Standard Reference Data Program
Collection (C) 2018 copyright by the U.S. Secretary of Commerce
on behalf of the United States of America. All rights reserved.
##CAS REGISTRY NO=3074-78-0
##MOLFORM=C 9 H 18
##$NIST SOURCE=MSDC-IR
##SPECTROMETER/DATA SYSTEM=HP-GC/MS/IRD
##STATE=gas
##XUNITS=1/CM
##YUNITS=ABSORBANCE
##XFACTOR=1.0
##YFACTOR=0.000003200
##DELTAX=4.0
##FIRSTX=550.0
##LASTX=3846.0
##FIRSTY=0.000797
##MAXX=3846
##MINX=550
##MAXY=0.032
##MINY=0
##NPOINTS=825
##XYDATA=(X++(Y..Y))
550.0 249 248 200 174 159 153 145 128 109 90
590.0 88 53 42 40 49 54 36 40 38 42
630.0 39 36 56 56 47 45 51 59 48 43
670.0 39 10 13 34 36 40 42 57 65 74
710.0 76 74 85 108 116 114 119 102 93 90
750.0 77 71 62 52 52 51 49 54 54 57
790.0 69 73 80 83 78 77 92 110 105 109
830.0 128 156 184 208 222 240 286 356 441 553
870.0 743 1016 1394 1855 2238 2369 2226 1861 1379 972
910.0 696 533 432 349 307 268 234 220 209 190
950.0 172 165 151 137 142 147 151 148 146 142
990.0 132 127 122 117 120 121 114 112 105 105
1030.0 111 103 94 94 93 84 79 93 93 84
1070.0 78 74 69 64 73 78 78 87 106 124
1110.0 129 131 131 124 117 117 111 99 108 126
1150.0 144 181 238 283 304 309 291 249 205 182
1190.0 174 171 169 170 170 177 193 209 214 217
1230.0 212 211 217 210 210 217 234 257 271 286
1270.0 293 289 282 273 267 261 252 254 262 261
1310.0 261 265 270 288 311 335 363 387 401 424
1350.0 473 555 669 813 975 1136 1263 1344 1364 1276
1390.0 1101 911 723 571 489 464 472 497 535 603
1430.0 692 797 927 1076 1234 1386 1510 1604 1632 1580
1470.0 1463 1276 1056 840 658 511 398 326 272 227
1510.0 194 173 156 141 131 124 112 101 103 110
1550.0 111 109 111 118 121 126 136 141 138 143
1590.0 155 161 169 185 208 228 264 313 373 447
1630.0 543 666 797 905 965 956 856 704 540 398
1670.0 295 220 169 136 115 100 87 76 68 59
1710.0 52 47 42 38 39 38 38 36 32 33
1750.0 39 48 51 56 74 94 120 144 151 157
1790.0 152 132 113 90 71 57 43 35 30 26
1830.0 24 22 20 20 20 16 13 13 12 14
1870.0 17 15 12 15 13 8 8 12 14 12
1910.0 12 10 10 7 9 10 9 5 2 4
1950.0 5 3 0 3 6 5 4 4 2 3
1990.0 6 9 10 8 8 7 6 9 10 7
2030.0 7 9 8 8 11 14 14 9 4 6
2070.0 6 7 11 10 11 14 16 12 10 13
2110.0 10 6 7 7 4 3 3 8 10 5
2150.0 4 6 8 11 13 7 7 10 9 8
2190.0 9 9 11 10 6 8 9 6 10 12
2230.0 12 8 4 7 9 16 15 7 8 12
2270.0 14 18 16 14 13 14 17 14 9 8
2310.0 9 10 15 15 15 12 10 16 15 14
2350.0 11 6 8 12 11 11 11 13 16 18
2390.0 17 18 17 16 17 13 14 14 13 15
2430.0 13 19 22 13 12 13 12 14 20 18
2470.0 15 24 29 31 33 36 28 25 31 28
2510.0 32 34 32 26 24 23 22 21 24 26
2550.0 26 34 37 36 39 51 61 63 60 55
2590.0 63 72 72 69 68 67 71 76 83 82
2630.0 84 91 88 92 91 88 91 93 93 90
2670.0 93 101 103 106 114 115 116 124 131 141
2710.0 146 149 163 182 197 212 220 222 221 212
2750.0 208 209 210 215 223 233 245 255 266 289
2790.0 313 336 368 400 435 483 537 607 686 783
2830.0 922 1098 1313 1578 1878 2184 2478 2744 3009 3317
2870.0 3676 4031 4299 4493 4600 4646 4756 4979 5296 5633
2910.0 5943 6223 6500 6869 7375 7980 8546 8899 8995 8919
2950.0 8859 9096 9643 10000 9806 9004 7553 5823 4337 3236
2990.0 2465 1966 1621 1347 1141 965 824 728 652 592
3030.0 545 517 499 487 494 520 570 650 760 920
3070.0 1156 1393 1519 1521 1388 1115 830 629 476 373
3110.0 318 282 249 223 204 189 180 168 151 147
3150.0 145 139 133 129 124 125 128 125 119 114
3190.0 116 112 103 97 89 78 73 68 58 53
3230.0 49 47 43 33 30 26 21 25 31 35
3270.0 34 29 26 22 20 22 30 41 37 40
3310.0 44 47 58 58 53 47 49 62 58 42
3350.0 44 52 45 32 30 33 32 32 37 36
3390.0 35 33 33 33 28 35 36 25 14 20
3430.0 31 34 29 20 18 18 18 20 29 31
3470.0 32 37 36 31 31 26 26 33 23 17
3510.0 23 23 20 18 14 17 14 8 5 17
3550.0 28 21 14 20 25 25 30 31 26 19
3590.0 18 26 33 30 36 40 26 23 32 26
3630.0 30 36 37 43 38 41 49 51 46 41
3670.0 47 45 40 40 37 37 37 34 29 29
3710.0 31 34 41 42 47 45 44 49 48 42
3750.0 41 46 45 55 65 58 55 54 52 52
3790.0 53 60 68 59 51 63 65 63 64 59
3830.0 58 59 70 71 63
##END=
