##TITLE=Diethyl(4-biphenylylmethyl)phosphonate
##JCAMP-DX=4.24
##DATA TYPE=INFRARED SPECTRUM
##ORIGIN=EPA-IR VAPOR PHASE LIBRARY
##OWNER=SRD/NIST
Collection (C) 2018 copyright by the U.S. Secretary of Commerce
on behalf of the United States of America. All rights reserved.
##CAS REGISTRY NO=30818-70-3
##MOLFORM=C 17 H 21 O 3 P
##$NIST SOURCE=MSDC-IR
##STATE=gas
##XUNITS=1/CM
##YUNITS=ABSORBANCE
##XFACTOR=1.
##YFACTOR=0.001
##DELTAX=1.92898
##FIRSTX=549.8
##LASTX=4000.7
##FIRSTY=37.199
##MAXX=4000.7
##MINX=549.759
##MAXY=0.221269
##MINY=0
##NPOINTS=1790
##XYDATA=(X++(Y..Y))
549.759 37.199 41.219 41.559 38.359 32.579 26.009 20.649 16.109 12.749 10.749
569.049 9.299 8.469 7.429 6.569 6.369 6.099 6.189 6.629 7.309 8.809
588.339 11.349 16.019 23.399 29.909 31.529 28.699 22.989 16.149 11.499 9.039
607.628 7.379 6.649 6.029 5.409 5.029 4.699 4.719 4.669 4.869 4.479
626.918 4.159 4.059 3.709 3.909 4.099 4.219 4.319 4.759 5.059 4.969
646.208 4.819 4.489 4.529 4.809 4.559 4.799 5.359 5.649 6.349 7.019
665.498 7.499 7.839 8.529 9.469 10.109 11.069 12.189 13.649 15.579 17.479
684.787 19.519 22.219 25.079 28.009 31.179 33.679 34.799 34.339 32.509 29.909
704.077 27.019 24.009 21.639 20.409 19.699 19.389 19.649 19.959 20.069 19.919
723.367 20.119 21.049 22.289 23.589 24.559 24.839 24.489 23.639 22.419 21.489
742.657 20.649 20.489 21.479 22.649 24.539 27.019 29.639 32.489 34.919 36.879
761.947 39.119 42.059 45.109 48.399 51.609 53.319 53.539 51.599 47.489 42.719
781.236 38.069 34.309 31.029 28.599 27.119 25.859 25.139 24.559 24.189 23.839
800.526 23.349 22.759 21.789 20.659 19.809 18.929 18.229 18.049 18.249 19.329
819.816 21.199 23.689 27.109 31.049 34.209 36.689 38.719 39.739 39.389 38.669
839.106 38.609 39.079 40.259 42.619 44.829 46.449 48.029 48.229 46.489 43.319
858.395 38.889 33.989 29.439 24.949 21.129 18.249 16.189 14.479 13.209 12.859
877.685 12.439 11.729 11.419 11.309 11.039 11.129 11.409 11.479 11.529 12.139
896.975 12.789 13.349 14.049 14.879 15.909 16.919 18.039 19.289 20.919 22.479
916.265 24.419 26.789 29.379 32.809 36.809 41.339 46.489 52.549 59.759 68.539
935.555 78.229 88.079 98.159 107.369 115.139 120.779 124.249 126.079 126.459 125.549
954.844 123.099 119.089 113.519 106.379 98.579 90.709 82.589 74.109 66.479 59.799
974.134 53.339 48.069 43.599 39.909 36.949 34.409 32.489 31.519 31.369 31.399
993.424 32.229 33.309 34.389 36.139 39.359 45.019 53.089 61.729 68.489 73.009
1012.714 75.419 79.079 87.309 98.719 112.459 127.619 143.109 159.649 176.389 191.939
1032.003 205.879 216.229 221.269 221.249 216.539 209.219 200.409 191.519 185.069 180.509
1051.293 178.219 177.769 177.799 177.399 175.479 172.389 166.629 157.749 146.689 134.199
1070.583 121.149 108.659 97.739 87.999 79.879 73.989 68.629 64.859 62.909 61.139
1089.873 61.239 63.199 64.999 66.419 67.169 64.949 60.839 55.899 50.469 46.059
1109.163 41.829 37.589 34.789 32.929 31.359 29.689 27.929 26.689 25.989 24.849
1128.452 23.429 23.309 23.109 22.479 22.649 22.859 21.819 20.679 20.409 20.629
1147.742 20.709 20.029 20.279 20.929 20.819 20.449 19.909 19.769 19.379 19.149
1167.032 19.349 19.249 18.769 18.229 18.079 18.609 18.899 18.799 18.499 17.639
1186.322 17.239 16.939 16.539 15.629 14.429 12.899 11.529 11.169 10.579 9.899
1205.611 9.739 9.779 9.329 9.739 10.959 11.499 11.689 11.819 12.779 13.709
1224.901 14.509 15.599 16.909 18.749 20.829 23.079 25.099 26.969 28.499 29.209
1244.191 30.219 31.099 31.259 31.959 33.329 35.749 39.549 44.819 51.189 58.569
1263.481 66.499 73.869 80.049 84.229 85.569 84.629 81.939 78.569 75.789 73.609
1282.771 71.699 69.579 66.059 61.069 55.119 48.439 42.209 36.759 31.729 27.529
1302.060 24.349 21.659 19.359 17.429 15.679 14.149 12.849 11.709 10.789 10.079
1321.350 9.399 8.669 8.129 7.689 7.329 7.019 6.719 6.409 6.109 5.969
1340.640 5.839 5.699 5.649 5.619 5.619 5.659 5.749 5.909 6.259 6.589
1359.930 6.909 7.509 8.259 9.269 10.259 11.049 11.639 11.909 12.029 12.099
1379.219 12.329 12.989 13.979 15.239 17.029 19.139 21.259 22.959 23.849 23.929
1398.509 23.139 21.949 20.829 20.069 19.759 19.429 18.929 18.009 16.619 15.109
1417.799 13.489 12.049 10.849 9.809 9.129 8.749 8.479 8.289 8.229 8.319
1437.089 8.539 8.819 9.119 9.359 9.509 9.719 9.799 9.529 9.179 8.829
1456.378 8.609 8.509 8.459 8.539 8.759 9.099 9.539 10.359 11.569 13.219
1475.668 15.629 19.339 24.459 31.269 39.399 46.629 49.909 47.509 40.299 31.109
1494.958 22.819 17.059 13.769 11.829 10.769 10.329 10.269 10.729 11.419 12.469
1514.248 14.069 15.739 16.849 16.669 15.009 12.419 9.769 7.729 6.449 5.599
1533.538 4.879 4.439 4.279 4.119 3.909 3.739 3.589 3.439 3.219 3.119
1552.827 3.079 3.159 3.209 3.019 3.129 3.309 3.239 3.139 3.119 3.189
1572.117 3.229 3.369 3.539 3.649 3.999 4.299 4.759 5.399 5.879 6.409
1591.407 6.849 7.259 7.849 8.389 8.789 9.139 8.989 8.159 7.169 6.219
1610.697 5.439 4.869 4.409 4.109 3.929 3.649 3.359 3.139 2.979 2.779
1629.986 2.599 2.599 2.569 2.519 2.499 2.589 2.629 2.659 2.699 2.719
1649.276 2.789 2.719 2.779 3.059 3.249 3.319 3.299 3.379 3.509 3.589
1668.566 3.549 3.439 3.389 3.379 3.259 3.029 2.839 2.819 2.829 2.739
1687.856 2.709 2.679 2.639 2.559 2.419 2.509 2.549 2.439 2.529 2.609
1707.146 2.549 2.609 2.699 2.639 2.649 2.669 2.639 2.739 2.779 2.819
1726.435 2.939 2.979 2.999 3.139 3.289 3.419 3.539 3.479 3.509 3.609
1745.725 3.489 3.449 3.519 3.479 3.379 3.369 3.399 3.379 3.289 3.259
1765.015 3.309 3.359 3.489 3.539 3.649 3.859 3.989 4.079 4.139 4.209
1784.305 4.419 4.669 4.839 5.039 5.279 5.309 5.149 4.799 4.369 4.089
1803.594 3.849 3.619 3.459 3.449 3.509 3.549 3.579 3.549 3.459 3.319
1822.884 3.199 3.169 3.079 3.039 3.059 2.969 2.889 2.799 2.729 2.669
1842.174 2.629 2.659 2.669 2.589 2.589 2.719 2.809 2.849 2.849 2.879
1861.464 2.989 3.079 3.119 3.199 3.229 3.329 3.509 3.599 3.669 3.709
1880.754 3.819 4.009 4.219 4.319 4.219 4.049 4.009 3.899 3.639 3.609
1900.043 3.619 3.559 3.559 3.379 3.139 2.959 2.799 2.619 2.469 2.389
1919.333 2.349 2.299 2.269 2.249 2.309 2.349 2.329 2.459 2.639 2.759
1938.623 2.829 2.829 2.759 2.749 2.729 2.749 2.849 2.889 2.889 2.929
1957.913 2.689 2.259 1.959 1.689 1.549 1.439 1.279 1.249 1.269 1.239
1977.202 1.349 1.379 1.2077 1.1768 1.259 1.219 1.074 1.0267 1.0332 1.0598
1996.492 0.9966 0.9374 0.9244 0.8782 0.9012 0.9074 0.9397 0.9853 0.9151 0.88
2015.782 0.9015 0.9063 0.8912 0.8857 0.8873 0.8452 0.8574 0.8772 0.8381 0.7907
2035.072 0.8036 0.7988 0.7989 0.8457 0.8265 0.7396 0.7284 0.8023 0.7392 0.7664
2054.362 0.8715 0.8941 0.8505 0.7722 0.7469 0.7796 0.8051 0.86 0.9229 0.8627
2073.651 0.8117 0.8547 0.8968 0.8669 0.848 0.9317 0.9128 0.7951 0.7812 0.7957
2092.941 0.8687 0.8706 0.8231 0.7822 0.8393 0.909 0.8792 0.7676 0.6978 0.7782
2112.231 0.8036 0.783 0.8275 0.8781 0.7711 0.7531 0.7796 0.7977 0.8198 0.6706
2131.521 0.6916 0.7774 0.7791 0.8345 0.7887 0.7864 0.7444 0.6918 0.7369 0.7453
2150.810 0.7093 0.6873 0.7662 0.7421 0.7452 0.7144 0.601 0.6805 0.7333 0.6695
2170.100 0.6866 0.7074 0.7261 0.7669 0.7544 0.702 0.6118 0.5963 0.5502 0.5223
2189.390 0.6889 0.764 0.7713 0.7661 0.7277 0.8124 0.7787 0.7276 0.7259 0.6998
2208.680 0.6601 0.7267 0.7599 0.6929 0.7293 0.7524 0.8035 0.7288 0.6011 0.6523
2227.970 0.7145 0.7223 0.6988 0.703 0.7306 0.7127 0.7437 0.781 0.7728 0.6839
2247.259 0.6881 0.7626 0.8225 0.8203 0.752 0.7769 0.8198 0.7836 0.7181 0.7198
2266.549 0.7458 0.7535 0.7801 0.7533 0.7432 0.8227 0.7632 0.6991 0.7427 0.7395
2285.839 0.7189 0.7449 0.8056 0.8972 0.8258 0.7898 0.8367 0.7846 0.7485 0.7422
2305.129 0.9214 1.0376 0.9422 1.0003 1.1135 1.0875 1.1228 1.1368 1.0902 1.0494
2324.418 1.0033 1.0001 1.0194 1.0105 0.9469 0.9707 0.9741 0.9052 0.9569 0.9985
2343.708 0.9607 0.9183 0.9167 0.9384 0.9516 0.8947 0.7768 0.7242 0.7749 0.8216
2362.998 0.762 0.7879 0.7993 0.7671 0.7875 0.7242 0.6174 0.5642 0.631 0.6984
2382.288 0.7436 0.7454 0.7179 0.6716 0.6431 0.6587 0.6421 0.5204 0.5281 0.5892
2401.578 0.5398 0.5747 0.6797 0.7182 0.6641 0.6766 0.7119 0.6784 0.6869 0.8102
2420.867 0.8156 0.8203 0.8486 0.7369 0.7463 0.7999 0.8132 0.8198 0.84 0.799
2440.157 0.7866 0.8573 0.8487 0.8069 0.7492 0.8457 0.9162 0.8445 0.8472 0.9848
2459.447 0.9557 0.9089 0.9979 0.9087 0.7795 0.63 0.5461 0.6614 0.6479 0.6324
2478.737 0.6699 0.6148 0.5885 0.5225 0.5575 0.5971 0.4758 0.5195 0.6163 0.6602
2498.026 0.6694 0.6178 0.6302 0.68 0.6177 0.6089 0.758 0.8474 0.7614 0.6735
2517.316 0.6978 0.6769 0.5591 0.6013 0.7504 0.7994 0.6973 0.625 0.7117 0.7251
2536.606 0.7487 0.7398 0.7091 0.7043 0.6857 0.5544 0.503 0.6323 0.6787 0.6684
2555.896 0.7557 0.7623 0.7287 0.7298 0.8072 0.8747 0.6646 0.5421 0.6434 0.6768
2575.186 0.7004 0.7559 0.769 0.7244 0.7247 0.9198 1.0121 0.9875 1.074 1.0758
2594.475 1.0803 1.0507 0.9576 0.9325 0.8431 0.8828 1.0394 1.0773 1.0321 0.955
2613.765 0.9404 0.9674 0.892 0.8892 0.8985 0.9788 1.0924 0.9726 0.8864 0.8641
2633.055 0.7963 0.7707 0.9003 0.9531 0.8927 0.8178 0.8022 0.833 0.8228 0.6793
2652.345 0.5508 0.702 0.7315 0.7544 0.7664 0.7121 0.7061 0.6698 0.6416 0.5821
2671.634 0.6022 0.7015 0.6547 0.5635 0.5728 0.5417 0.4483 0.5844 0.6312 0.538
2690.924 0.5119 0.5824 0.662 0.6275 0.6716 0.6756 0.6486 0.6737 0.7544 0.8083
2710.214 0.9352 0.9327 0.8535 1.0235 1.1335 1.091 1.1053 1.1829 1.319 1.359
2729.504 1.399 1.419 1.359 1.439 1.489 1.499 1.349 1.269 1.289 1.239
2748.794 1.289 1.389 1.449 1.389 1.389 1.559 1.519 1.539 1.729 1.739
2768.083 1.819 1.909 1.929 1.999 2.059 2.059 2.099 2.149 1.989 1.819
2787.373 1.899 1.839 1.839 2.009 2.109 2.169 2.079 2.049 2.229 2.259
2806.663 2.199 2.139 2.129 2.179 2.109 2.139 2.339 2.389 2.329 2.399
2825.953 2.559 2.659 2.629 2.689 2.809 2.809 2.889 2.989 3.099 3.359
2845.242 3.609 3.659 3.739 4.029 4.289 4.559 4.749 4.879 5.339 5.839
2864.532 6.239 6.659 7.089 7.689 8.439 9.269 9.969 10.619 11.369 11.879
2883.822 12.199 12.329 12.479 12.619 12.849 13.369 13.909 14.779 15.639 16.419
2903.112 17.699 19.239 20.679 22.079 23.639 25.349 26.669 27.609 28.319 28.819
2922.401 28.779 28.339 27.969 27.979 28.449 29.349 31.149 33.229 34.669 35.539
2941.691 35.499 34.449 32.639 30.659 28.989 27.619 26.709 26.369 26.539 26.849
2960.981 27.459 28.409 29.399 30.429 31.439 32.719 34.569 36.909 39.919 43.529
2980.271 47.409 50.769 52.879 52.849 50.749 47.819 44.719 41.909 39.229 36.569
2999.561 34.019 31.649 29.739 27.809 26.099 24.699 23.679 22.959 22.299 21.909
3018.850 22.069 23.079 24.669 26.779 29.549 32.929 35.969 37.819 37.709 35.309
3038.140 31.339 26.859 22.959 20.309 18.789 18.249 18.329 18.569 18.979 19.759
3057.430 20.989 22.499 24.409 27.019 30.309 33.229 34.459 33.459 30.429 26.549
3076.720 23.499 21.489 20.249 19.639 18.989 18.059 16.859 15.429 14.149 13.199
3096.009 12.339 11.319 10.319 9.479 8.609 7.829 7.319 6.629 5.899 5.469
3115.299 4.979 4.759 4.679 4.379 4.129 3.909 3.889 3.749 3.469 3.279
3134.589 3.019 2.749 2.649 2.659 2.519 2.439 2.499 2.169 1.869 1.889
3153.879 1.799 1.649 1.639 1.729 1.679 1.419 1.229 1.299 1.1818 1.259
3173.169 1.289 1.239 1.399 1.379 1.269 1.1165 1.2113 1.229 1.0145 1.289
3192.458 1.499 1.279 1.229 1.0967 1.1661 1.319 1.0978 0.8802 0.9609 1.0998
3211.748 1.1011 1.1137 1.1464 1.219 1.085 1.0945 1.1811 0.8572 0.6862 0.9112
3231.038 0.9474 0.9046 0.94 0.8615 0.8065 0.6963 0.6488 0.8181 0.8383 0.7497
3250.328 0.6888 0.6569 0.7489 0.6788 0.5376 0.688 0.815 0.5843 0.5303 0.5716
3269.617 0.4612 0.4352 0.4432 0.5308 0.6383 0.7345 0.7254 0.5363 0.5032 0.4239
3288.907 0.4494 0.5496 0.5337 0.7164 0.6966 0.5355 0.5975 0.5319 0.5071 0.6461
3308.197 0.6438 0.6056 0.6321 0.6568 0.7552 0.5955 0.4125 0.3569 0.3957 0.4246
3327.487 0.4485 0.5217 0.5304 0.6693 0.5946 0.552 0.6606 0.6745 0.7583 0.577
3346.777 0.4869 0.4533 0.3433 0.559 0.5056 0.4486 0.4557 0.4018 0.3309 0.28809
3366.066 0.3221 0.24408 0.3206 0.441 0.4238 0.375 0.4058 0.3881 0.3484 0.4421
3385.356 0.5674 0.5842 0.5072 0.3771 0.29543 0.3432 0.456 0.4321 0.413 0.3425
3404.646 0.2087 0.4716 0.6221 0.527 0.351 0.25392 0.5009 0.4491 0.3938 0.4699
3423.936 0.3416 0.404 0.3964 0.3453 0.3179 0.5075 0.5355 0.31615 0.3529 0.3272
3443.225 0.2822 0.4989 0.5961 0.4335 0.397 0.4908 0.3651 0.29829 0.4272 0.4328
3462.515 0.27527 0.23413 0.4597 0.457 0.5443 0.5814 0.4541 0.3967 0.3354 0.3366
3481.805 0.1935 0.1924 0.1863 0.066 0.30355 0.28274 0.2017 0.3996 0.4046 0.1928
3501.095 0.116 0.27729 0.31206 0.1632 0.107 0.21441 0.3209 0.104 0.038 0.26408
3520.385 0.30008 0.4974 0.6911 0.4897 0.3384 0.4121 0.5241 0.5393 0.3929 0.4077
3539.674 0.4206 0.1947 0.082 0.1715 0.1786 0.26056 0.5685 0.6181 0.5824 0.4756
3558.964 0.26331 0.1865 0.1441 0.25076 0.228025 0 0.113 0.3711 0.3671 0.3878
3578.254 0.445 0.3431 0.218078 0.3768 0.3334 0.3715 0.5467 0.413 0.3723 0.5581
3597.544 0.5935 0.3452 0.23368 0.29939 0.338 0.29018 0.3882 0.5347 0.5083 0.4383
3616.833 0.4581 0.519 0.4954 0.5024 0.432 0.27179 0.25642 0.391 0.3246 0.3361
3636.123 0.2501 0.1593 0.4456 0.6488 0.6505 0.5683 0.5334 0.6999 0.715 0.6434
3655.413 0.6915 0.5979 0.4514 0.5867 0.7838 0.7433 0.6286 0.4708 0.576 0.7847
3674.703 0.8045 0.4602 0.3771 0.4924 0.528 0.6456 0.5326 0.333 0.5181 0.7388
3693.993 0.5924 0.4982 0.3915 0.3961 0.3278 0.36 0.5517 0.46 0.4957 0.6341
3713.282 0.5005 0.3298 0.4242 0.5217 0.3711 0.3252 0.5047 0.7346 0.9534 0.7568
3732.572 0.5122 0.468 0.3946 0.5559 0.857 0.8734 0.659 0.8123 0.9568 0.7711
3751.862 0.5484 0.4162 0.583 0.5679 0.6257 0.6711 0.4853 0.44 0.6139 0.7359
3771.152 0.536 0.4935 0.5966 0.6626 0.6094 0.482 0.6559 0.9042 0.741 0.5823
3790.441 0.531 0.5137 0.6177 0.5602 0.5542 0.6152 0.5546 0.4625 0.3605 0.2504
3809.731 0.2083 0.25021 0.3507 0.597 0.4944 0.30308 0.4129 0.4819 0.5652 0.3987
3829.021 0.1418 0.24051 0.4423 0.3701 0.28636 0.3484 0.4031 0.5266 0.52 0.4998
3848.311 0.3867 0.29209 0.522 0.5998 0.30518 0.27139 0.4592 0.529 0.3489 0.3775
3867.601 0.4762 0.4117 0.4627 0.3394 0.3447 0.5033 0.3665 0.25456 0.31856 0.6051
3886.890 0.8297 0.7476 0.7228 0.7292 0.589 0.6128 0.7025 0.4829 0.4263 0.532
3906.180 0.6393 0.7235 0.6815 0.6102 0.6344 0.661 0.6822 0.6919 0.7415 0.8193
3925.470 0.768 0.5728 0.3531 0.2971 0.4837 0.6037 0.6238 0.7247 0.6427 0.4357
3944.760 0.3939 0.494 0.5115 0.6729 0.9512 0.9222 0.7951 0.6711 0.4855 0.6249
3964.049 0.7967 0.6795 0.6781 0.6302 0.5349 0.517 0.5771 0.6113 0.8225 0.8445
3983.339 0.5908 0.7842 0.9917 1.0116 1.0386 0.9618 0.7646 0.7241 0.7393 0.8774
##END=
