##TITLE=4-Methylformanilide
##JCAMP-DX=4.24
##DATA TYPE=INFRARED SPECTRUM
##ORIGIN=EPA-IR VAPOR PHASE LIBRARY
##OWNER=SRD/NIST
Collection (C) 2018 copyright by the U.S. Secretary of Commerce
on behalf of the United States of America. All rights reserved.
##CAS REGISTRY NO=3085-54-9
##MOLFORM=C 8 H 9 N O
##$NIST SOURCE=MSDC-IR
##STATE=gas
##XUNITS=1/CM
##YUNITS=ABSORBANCE
##XFACTOR=1.
##YFACTOR=0.001
##DELTAX=1.92934
##FIRSTX=549.9
##LASTX=3999.5
##FIRSTY=5.53
##MAXX=3999.53
##MINX=549.863
##MAXY=0.11906
##MINY=0
##NPOINTS=1789
##XYDATA=(X++(Y..Y))
549.863 5.53 5.54 5.76 5.81 5.71 5.48 5.36 5.33 5.3 5.35
569.156 5.23 5.24 5.25 5.32 5.36 5.36 5.42 5.39 5.34 5.27
588.450 5.26 5.18 5.09 4.95 4.68 4.44 4.32 4.12 3.79 3.65
607.743 3.5 3.22 2.98 2.82 2.75 2.61 2.45 2.38 2.28 2.19
627.037 2.18 2.08 1.92 1.823 1.7449 1.7333 1.7343 1.6798 1.6111 1.5604
646.330 1.5744 1.6096 1.5727 1.5142 1.4602 1.4948 1.576 1.5581 1.4711 1.425
665.624 1.4839 1.4615 1.3837 1.448 1.5049 1.505 1.4811 1.5294 1.5722 1.5635
684.917 1.6669 1.7683 1.9534 2.1 2.17 2.32 2.41 2.48 2.57 2.63
704.210 2.62 2.63 2.52 2.34 2.23 2.1 2.03 1.9235 1.8156 1.743
723.504 1.7158 1.721 1.6078 1.4895 1.4731 1.4762 1.4668 1.3669 1.2845 1.2931
742.797 1.2515 1.2368 1.2943 1.3344 1.3398 1.3622 1.4073 1.3982 1.3438 1.3859
762.091 1.5192 1.6273 1.7489 1.8041 1.8694 2.06 2.21 2.35 2.63 2.91
781.384 3.21 3.63 4.07 4.51 4.99 5.57 6.12 6.61 7.18 7.83
800.678 8.57 9.15 9.34 9.32 9.31 9.32 9.05 8.61 8.15 7.62
819.971 7.12 6.69 6.24 5.69 5.23 4.9 4.51 4.07 3.68 3.37
839.264 3.09 2.81 2.59 2.45 2.31 2.17 2.04 1.9338 1.8515 1.8006
858.558 1.7452 1.6465 1.5753 1.5239 1.4614 1.443 1.3863 1.3487 1.3417 1.3153
877.851 1.3089 1.3047 1.2555 1.2058 1.2151 1.2257 1.1654 1.1373 1.142 1.08824
897.145 1.0624 1.07425 1.06915 1.03499 1.02159 1.03842 1.05909 1.07267 1.0754 1.1201
916.438 1.1861 1.2064 1.187 1.1566 1.12 1.10421 1.1325 1.1147 1.09123 1.08431
935.732 1.06204 1.07982 1.07301 1.09156 1.1258 1.09082 1.10711 1.1441 1.10603 1.1253
955.025 1.1446 1.1352 1.1826 1.2088 1.2097 1.1903 1.2535 1.296 1.2672 1.279
974.318 1.2888 1.3174 1.2988 1.2908 1.3356 1.3409 1.3756 1.4387 1.4605 1.4611
993.612 1.4736 1.5137 1.5314 1.5469 1.6169 1.6609 1.7107 1.8331 1.9927 2.16
1012.905 2.29 2.36 2.36 2.35 2.36 2.37 2.37 2.34 2.25 2.22
1032.199 2.18 2.18 2.31 2.35 2.35 2.42 2.48 2.5 2.55 2.6
1051.492 2.61 2.65 2.75 2.82 2.83 2.86 2.91 2.99 3.08 3.14
1070.786 3.23 3.35 3.5 3.65 3.76 3.86 4.01 4.16 4.39 4.71
1090.079 4.99 5.36 5.76 6.22 6.72 7.22 7.77 8.32 8.76 9.05
1109.372 9.22 9.29 9.26 9.12 8.83 8.38 7.84 7.27 6.7 6.21
1128.666 5.88 5.63 5.43 5.28 5.04 4.76 4.55 4.48 4.49 4.38
1147.959 4.29 4.41 4.38 4.37 4.52 4.54 4.67 4.69 4.67 4.74
1167.253 4.81 4.95 5.13 5.4 5.63 5.84 6.04 6.22 6.57 6.84
1186.546 7.08 7.21 7.37 7.39 7.15 7.07 6.79 6.43 6.43 6.25
1205.840 5.9 5.8 5.86 5.96 6.46 7.07 7.75 8.75 9.99 11.43
1225.133 13.15 15.37 17.44 19.25 21.13 23.09 25.04 26.71 27.96 28.71
1244.426 29 28.99 28.66 27.99 27.1 25.97 24.55 23.02 21.5 19.98
1263.720 18.63 17.4 16.21 15.31 14.63 14.08 13.67 13.4 13.21 12.97
1283.013 12.59 12.05 11.38 10.58 9.74 8.9 8.09 7.39 6.86 6.73
1302.307 6.85 7.02 7.15 7.04 6.9 6.84 6.74 6.62 6.23 5.49
1321.600 4.75 4.17 3.77 3.51 3.35 3.31 3.33 3.36 3.35 3.39
1340.894 3.47 3.57 3.75 3.99 4.28 4.63 5.02 5.29 5.47 5.53
1360.187 5.43 5.32 5.18 4.82 4.36 3.95 3.58 3.34 3.23 3.22
1379.480 3.32 3.53 3.77 4.02 4.24 4.43 4.67 4.96 5.23 5.53
1398.774 5.95 6.31 6.61 6.85 6.94 6.96 6.99 6.97 6.88 6.68
1418.067 6.32 5.79 5.3 4.96 4.71 4.55 4.48 4.47 4.51 4.59
1437.361 4.67 4.72 4.82 4.88 4.99 5.13 5.24 5.4 5.53 5.67
1456.654 5.88 6.08 6.26 6.5 6.78 7.08 7.44 7.83 8.25 8.7
1475.948 9.13 9.61 10.08 10.62 11.15 11.66 12.15 12.61 13.13 13.69
1495.241 14.42 15.41 16.75 18.54 20.95 24.23 28.59 33.37 38.01 42.28
1514.534 45.23 46.61 46.56 45.31 42.92 39.66 35.03 29.27 23.24 17.8
1533.828 13.53 10.61 8.8 7.53 6.5 5.68 5.05 4.54 4.2 3.95
1553.121 3.77 3.58 3.44 3.4 3.24 3.11 3.12 3.11 3.12 3.17
1572.415 3.21 3.32 3.53 3.72 3.9 4.2 4.49 4.77 5.09 5.35
1591.708 5.57 5.73 5.85 5.99 6.11 6.22 6.29 6.4 6.62 6.93
1611.002 7.23 7.51 7.74 7.88 7.8 7.57 7.26 6.83 6.33 5.72
1630.295 5.1 4.59 4.15 3.75 3.46 3.24 3.05 2.93 2.86 2.79
1649.588 2.72 2.76 2.79 2.68 2.66 2.69 2.72 2.78 2.8 2.86
1668.882 2.98 3.1 3.24 3.44 3.66 3.94 4.25 4.62 5.18 5.68
1688.175 6.19 6.79 7.37 8.01 8.77 9.53 10.37 11.27 12.2 13.38
1707.469 14.75 16.46 18.67 21.6 25.41 30.44 37.14 45.58 56.58 70.05
1726.762 85.18 100 111.74 117.93 119.06 117.69 115.07 110.23 100.37 83.89
1746.056 64.85 48.03 35.68 27.24 21.65 17.88 15.05 12.9 11.24 9.98
1765.349 8.98 8.13 7.4 6.76 6.1 5.51 5.02 4.61 4.23 3.89
1784.642 3.64 3.41 3.21 3.05 2.89 2.75 2.63 2.58 2.55 2.49
1803.936 2.48 2.44 2.39 2.38 2.4 2.36 2.35 2.33 2.27 2.22
1823.229 2.17 2.14 2.1 2.08 2.08 2.09 2.09 2.09 2.07 2.05
1842.523 2.05 2.05 2.04 2.0085 2.01 2.0071 1.9455 1.9365 1.9483 1.9052
1861.816 1.8589 1.8739 1.8729 1.8753 1.8895 1.8884 1.9146 1.9426 1.9206 1.9019
1881.110 1.8972 1.8689 1.8219 1.7531 1.7253 1.7049 1.667 1.6242 1.5427 1.4906
1900.403 1.4967 1.4935 1.4805 1.4465 1.4398 1.4447 1.4454 1.4245 1.3692 1.3644
1919.696 1.3638 1.343 1.3189 1.2994 1.2648 1.2461 1.2368 1.2499 1.241 1.1979
1938.990 1.2248 1.1664 1.09371 1.10157 1.07391 1.04796 1.05259 1.04685 1.02428 1.01374
1958.283 1.00989 1.02138 1.05937 1.08058 1.05528 1.04616 1.02545 1.00388 1.04117 1.06141
1977.577 1.06214 1.07941 1.07577 1.04902 1.05262 1.03513 1.03257 1.06024 1.04411 1.02661
1996.870 1.0294 0.9973 0.9799 0.9786 0.9573 0.9451 0.948 0.9642 0.9477 0.9345
2016.164 0.9458 0.9348 0.889 0.877 0.88 0.9 0.905 0.878 0.887 0.882
2035.457 0.901 0.9412 0.9452 0.9178 0.9152 0.9493 0.9468 0.9226 0.9288 0.9335
2054.750 0.9157 0.9164 0.9135 0.905 0.9237 0.9533 0.9686 0.9441 0.9268 0.9305
2074.044 0.9438 0.9569 0.9472 0.9377 0.927 0.9349 0.9405 0.9443 0.9639 0.9697
2093.337 0.9827 0.9961 0.9769 0.9365 0.9113 0.929 0.9598 0.9532 0.9322 0.9195
2112.631 0.921 0.9 0.858 0.87 0.878 0.865 0.843 0.843 0.869 0.864
2131.924 0.862 0.872 0.876 0.896 0.9136 0.887 0.87 0.864 0.888 0.895
2151.218 0.872 0.888 0.895 0.881 0.86 0.878 0.874 0.854 0.874 0.908
2170.511 0.9236 0.906 0.894 0.9167 0.9702 0.9631 0.9547 0.9679 0.9722 0.9531
2189.804 0.975 1.01124 0.9905 1.01212 1.03147 1.0221 1.03411 1.0213 1.0093 1.03754
2209.098 1.05731 1.07018 1.08566 1.09116 1.07942 1.04911 1.05452 1.06397 1.04626 1.04119
2228.391 1.03105 0.9864 0.9526 0.9612 0.9549 0.9315 0.9158 0.9363 0.9319 0.9153
2247.685 0.9285 0.906 0.899 0.912 0.896 0.856 0.866 0.903 0.9365 0.9516
2266.978 0.9517 0.9506 0.9378 0.9605 0.9787 0.9859 1.00445 0.9916 1.01841 1.04863
2286.272 0.9882 0.962 0.9787 0.9652 0.9436 0.9705 1.00368 0.9873 0.9992 1.04287
2305.565 1.05733 1.03261 1.03463 1.05687 1.03853 1.02912 1.02634 1.01826 1.01008 1.03597
2324.858 1.08287 1.08843 1.08543 1.07539 1.05877 1.07359 1.07075 1.06198 1.0494 1.01084
2344.152 1.0235 1.02981 1.01004 1.04962 1.06059 1.03204 1.04414 1.04802 1.04978 1.0371
2363.445 1.01151 1.00321 1.03997 1.04328 1.03004 1.01725 0.9767 0.9817 0.9904 1.00968
2382.739 1.03034 1.0188 1.01258 1.04554 1.04518 1.05555 1.0618 1.01228 0.9908 0.9948
2402.032 1.00144 0.9942 1.01343 1.02086 1.00341 0.9865 1.00799 1.03107 0.9961 0.9859
2421.326 1.01185 1.01294 0.968 0.9438 0.9459 0.965 0.9834 0.9781 0.96 0.9424
2440.619 0.9427 0.935 0.9451 0.9528 0.9456 0.9237 0.9169 0.9408 0.9137 0.896
2459.912 0.9175 0.9226 0.908 0.871 0.85 0.877 0.9232 0.9448 0.9283 0.902
2479.206 0.869 0.82 0.842 0.881 0.87 0.895 0.9258 0.9201 0.865 0.84
2498.499 0.854 0.873 0.9233 0.9422 0.905 0.9171 0.9365 0.885 0.889 0.886
2517.793 0.85 0.895 0.896 0.841 0.837 0.853 0.861 0.877 0.898 0.886
2537.086 0.858 0.834 0.808 0.827 0.908 0.893 0.834 0.847 0.85 0.874
2556.380 0.862 0.855 0.877 0.857 0.865 0.876 0.89 0.9216 0.9129 0.862
2575.673 0.849 0.881 0.902 0.9163 0.9352 0.9827 0.9874 0.9598 0.9792 0.9893
2594.966 0.9752 0.985 0.9691 0.9491 0.9976 1.01051 0.9873 0.9405 0.9442 0.9731
2614.260 0.9435 0.9489 0.945 0.9522 0.9405 0.88 0.857 0.867 0.904 0.898
2633.553 0.883 0.904 0.904 0.9224 0.9163 0.89 0.891 0.864 0.854 0.893
2652.847 0.864 0.842 0.865 0.871 0.869 0.832 0.841 0.85 0.863 0.879
2672.140 0.867 0.888 0.9178 0.898 0.882 0.9184 0.9585 0.949 0.9503 0.9958
2691.434 0.9898 1.00961 1.03564 1.06836 1.1128 1.1515 1.2228 1.2085 1.189 1.2067
2710.727 1.2031 1.2203 1.2313 1.247 1.2709 1.3022 1.3194 1.3293 1.3347 1.324
2730.020 1.3799 1.4975 1.608 1.7101 1.7805 1.9048 2.09 2.29 2.52 2.83
2749.314 3.19 3.49 3.81 4.08 4.23 4.34 4.42 4.4 4.31 4.2
2768.607 4.04 3.75 3.41 3.12 2.82 2.58 2.37 2.22 2.18 2.11
2787.901 1.9988 1.9801 1.9723 1.9054 1.8732 1.8676 1.903 1.9274 1.9514 2.02
2807.194 2.0068 2.04 2.11 2.13 2.25 2.35 2.35 2.47 2.66 2.77
2826.488 2.89 3.15 3.42 3.7 4.12 4.63 5.38 6.29 7.39 8.82
2845.781 10.29 11.49 12.23 12.55 12.55 12.5 12.47 12.18 11.51 10.38
2865.074 9.17 8.24 7.64 7.28 7.04 6.92 6.83 6.6 6.37 6.23
2884.368 6.04 5.76 5.43 5.11 4.87 4.56 4.34 4.22 4.09 3.95
2903.661 3.81 3.76 3.78 3.89 3.9 3.92 4.09 4.28 4.53 4.89
2922.955 5.3 5.8 6.15 6.43 6.67 6.82 6.9 6.82 6.66 6.3
2942.248 5.9 5.44 4.89 4.35 3.91 3.55 3.24 3.07 2.83 2.7
2961.542 2.68 2.6 2.52 2.54 2.53 2.46 2.47 2.48 2.48 2.58
2980.835 2.62 2.71 2.83 2.88 2.98 3.12 3.23 3.3 3.4 3.5
3000.128 3.61 3.68 3.78 3.92 3.94 4.03 4.35 4.63 4.88 5.19
3019.422 5.61 6.1 6.5 6.81 7.1 7.35 7.49 7.48 7.39 7.3
3038.715 7.02 6.62 6.35 6.05 5.72 5.58 5.43 5.24 5.12 4.9
3058.009 4.56 4.29 4.14 3.98 3.77 3.5 3.22 2.96 2.77 2.63
3077.302 2.47 2.29 2.1 2.0086 1.8528 1.6014 1.5378 1.6208 1.5451 1.4113
3096.596 1.4871 1.5524 1.5251 1.4779 1.3319 1.2274 1.2606 1.2013 1.10144 1.1238
3115.889 1.1133 1.1111 1.1121 1.09006 1.10169 0.9874 0.909 0.9543 0.9271 0.884
3135.182 0.897 0.9145 0.841 0.695 0.717 0.694 0.606 0.624 0.655 0.584
3154.476 0.467 0.409 0.392 0.351 0.314 0.353 0.403 0.488 0.374 0.246
3173.769 0.312 0.359 0.418 0.399 0.307 0.282 0.386 0.413 0.346 0.29
3193.063 0.3 0.243 0.192 0.232 0.235 0.241 0.194 0.148 0.078 0
3212.356 0.029 0.077 0.078 0.082 0.157 0.234 0.199 0.148 0.114 0.15
3231.650 0.273 0.36 0.29 0.187 0.2 0.196 0.056 0.029 0 0.038
3250.943 0.219 0.204 0.189 0.2 0.215 0.226 0.207 0.294 0.187 0.103
3270.236 0.283 0.348 0.342 0.301 0.354 0.378 0.215 0.073 0.058 0.161
3289.530 0.225 0.264 0.279 0.322 0.317 0.195 0.273 0.28 0.228 0.297
3308.823 0.292 0.251 0.223 0.317 0.41 0.341 0.286 0.373 0.406 0.339
3328.117 0.33 0.317 0.289 0.201 0.108 0.122 0.173 0.203 0.251 0.286
3347.410 0.214 0.235 0.224 0.247 0.32 0.366 0.415 0.341 0.338 0.434
3366.704 0.418 0.28 0.336 0.444 0.523 0.55 0.559 0.638 0.655 0.743
3385.997 0.772 0.686 0.704 0.878 1.07427 1.00997 0.9907 1.1181 1.1859 1.3008
3405.290 1.4111 1.5437 1.6587 1.7184 1.8563 2.08 2.13 2.24 2.42 2.61
3424.584 2.83 2.93 2.92 2.92 2.99 3.15 3.34 3.34 3.47 3.59
3443.877 3.54 3.62 3.7 3.79 3.78 3.63 3.66 3.52 3.27 3.19
3463.171 3.02 2.69 2.41 2.16 1.8657 1.6947 1.5136 1.2892 1.1449 1.04102
3482.464 0.904 0.774 0.698 0.642 0.649 0.611 0.491 0.545 0.539 0.431
3501.758 0.416 0.401 0.442 0.444 0.531 0.531 0.403 0.485 0.542 0.567
3521.051 0.516 0.345 0.282 0.269 0.361 0.362 0.334 0.295 0.326 0.461
3540.344 0.407 0.304 0.305 0.402 0.406 0.382 0.352 0.343 0.419 0.368
3559.638 0.303 0.351 0.375 0.327 0.369 0.416 0.352 0.299 0.323 0.35
3578.931 0.359 0.436 0.385 0.359 0.352 0.332 0.388 0.316 0.278 0.289
3598.225 0.316 0.317 0.284 0.364 0.361 0.352 0.4 0.288 0.295 0.395
3617.518 0.409 0.436 0.435 0.344 0.362 0.513 0.604 0.557 0.43 0.428
3636.812 0.473 0.432 0.422 0.527 0.408 0.303 0.466 0.532 0.431 0.383
3656.105 0.373 0.391 0.518 0.536 0.43 0.388 0.374 0.403 0.466 0.508
3675.398 0.525 0.528 0.491 0.386 0.35 0.394 0.375 0.389 0.382 0.402
3694.692 0.482 0.462 0.488 0.474 0.453 0.467 0.427 0.431 0.428 0.425
3713.985 0.546 0.643 0.588 0.496 0.448 0.525 0.517 0.476 0.533 0.529
3733.279 0.572 0.592 0.573 0.588 0.556 0.483 0.521 0.593 0.547 0.443
3752.572 0.454 0.544 0.473 0.469 0.523 0.52 0.512 0.536 0.573 0.588
3771.866 0.556 0.544 0.52 0.411 0.496 0.525 0.511 0.537 0.425 0.349
3791.159 0.464 0.522 0.46 0.479 0.433 0.462 0.573 0.536 0.48 0.478
3810.452 0.465 0.401 0.398 0.485 0.508 0.483 0.533 0.561 0.502 0.47
3829.746 0.552 0.6 0.582 0.607 0.646 0.621 0.536 0.441 0.443 0.5
3849.039 0.47 0.427 0.446 0.545 0.539 0.511 0.522 0.579 0.603 0.638
3868.333 0.604 0.535 0.587 0.683 0.72 0.634 0.607 0.604 0.537 0.5
3887.626 0.507 0.518 0.606 0.656 0.58 0.544 0.594 0.581 0.552 0.618
3906.920 0.689 0.609 0.602 0.591 0.552 0.592 0.55 0.568 0.569 0.542
3926.213 0.607 0.639 0.577 0.526 0.549 0.51 0.45 0.456 0.545 0.548
3945.506 0.597 0.708 0.633 0.571 0.552 0.585 0.623 0.583 0.594 0.618
3964.800 0.555 0.55 0.595 0.631 0.643 0.597 0.617 0.653 0.635 0.628
3984.093 0.676 0.666 0.578 0.673 0.669 0.551 0.571 0.618 0.649
##END=
