##TITLE=3,4,5-Trimethoxybenzamide
##JCAMP-DX=4.24
##DATA TYPE=INFRARED SPECTRUM
##ORIGIN=EPA-IR VAPOR PHASE LIBRARY
##OWNER=SRD/NIST
Collection (C) 2018 copyright by the U.S. Secretary of Commerce
on behalf of the United States of America. All rights reserved.
##CAS REGISTRY NO=3086-62-2
##MOLFORM=C 10 H 13 N O 4
##$NIST SOURCE=MSDC-IR
##STATE=gas
##XUNITS=1/CM
##YUNITS=ABSORBANCE
##XFACTOR=1.
##YFACTOR=0.001
##DELTAX=1.92898
##FIRSTX=549.8
##LASTX=4000.7
##FIRSTY=0.8484
##MAXX=4000.7
##MINX=549.759
##MAXY=0.029927
##MINY=0
##NPOINTS=1790
##XYDATA=(X++(Y..Y))
549.759 0.8484 0.6991 0.57206 0.493934 0.53036 0.53411 0.8815 1.1961 0.9228 0.48013
569.049 0.4649 0.6732 0.6502 0.71 0.6364 0.9117 0.968 0.6343 0.8802 1.1885
588.339 1.2199 1.0168 1.0224 1.0431 0.9594 1.0904 1.0528 1.0675 1.151 1.3391
607.628 1.537 1.607 1.717 1.727 2.017 2.217 2.097 2.167 2.357 2.477
626.918 2.667 2.817 2.787 2.567 2.237 2.227 2.057 1.737 1.677 1.787
646.208 1.747 1.4783 1.467 1.4686 1.607 1.557 1.3705 1.464 1.3523 1.1529
665.498 1.2894 1.517 1.3575 1.1725 1.1007 1.1281 1.2335 1.3195 1.4361 1.44
684.787 1.2962 1.1875 1.0634 0.8867 1.0042 1.2643 1.2808 1.0883 1.0454 1.0611
704.077 1.1151 1.2688 1.2423 1.3494 1.527 1.507 1.2599 1.1348 1.1521 1.2349
723.367 1.4216 1.627 1.727 1.587 1.637 1.657 1.707 1.897 1.907 1.917
742.657 2.217 2.627 2.707 2.757 2.887 2.957 3.207 3.427 3.497 3.527
761.947 3.197 2.787 2.627 2.397 2.287 2.277 2.297 2.207 1.997 1.957
781.236 2.067 2.047 1.857 1.827 1.627 1.2857 1.2667 1.3025 1.3438 1.3817
800.526 1.29 1.2417 1.3921 1.557 1.4269 1.2866 1.3086 1.3591 1.1601 1.1543
819.816 1.4233 1.3287 1.1808 1.1586 1.3069 1.4216 1.3015 1.3054 1.2608 1.2215
839.106 1.2847 1.3141 1.4306 1.527 1.557 1.4246 1.3079 1.3187 1.3721 1.557
858.395 1.587 1.537 1.847 1.907 1.927 2.107 1.997 2.067 2.017 1.647
877.685 1.567 1.587 1.537 1.427 1.3722 1.517 1.4624 1.2224 1.233 1.3965
896.975 1.2968 1.3148 1.4128 1.4245 1.667 1.787 1.727 1.697 1.727 1.627
916.265 1.577 1.657 1.597 1.617 1.697 1.697 1.657 1.627 1.707 1.797
935.555 1.667 1.537 1.487 1.3291 1.2899 1.3601 1.3726 1.1144 0.907 1.1166
954.844 1.1842 0.9883 1.1335 1.1398 1.0357 1.1886 1.149 1.215 1.2802 1.2885
974.134 1.266 1.1803 1.3871 1.537 1.4316 1.527 1.867 1.887 2.047 2.307
993.424 2.247 2.487 2.757 3.077 3.777 4.307 4.627 5.097 5.617 5.977
1012.714 6.217 6.287 6.097 5.727 5.257 4.977 4.447 4.187 3.847 3.547
1032.003 3.827 3.887 3.597 3.307 3.417 3.507 3.027 2.677 2.757 2.077
1051.293 1.867 2.157 2.147 2.217 2.577 2.987 2.817 2.937 3.217 3.237
1070.583 3.287 3.507 3.807 4.187 4.417 4.567 4.757 4.887 5.337 5.797
1089.873 6.257 6.697 6.977 7.707 8.597 9.337 10.647 11.347 11.477 11.757
1109.163 12.637 13.647 14.017 14.217 14.567 14.677 14.777 14.837 14.177 13.327
1128.452 13.197 12.877 12.017 11.337 10.357 9.357 8.267 7.437 7.087 6.617
1147.742 5.717 4.897 4.207 3.747 3.867 3.457 3.037 3.177 3.117 3.097
1167.032 3.047 3.037 3.237 3.607 3.637 3.807 4.077 3.877 4.007 4.237
1186.322 4.287 4.307 4.107 3.747 3.507 3.337 3.177 3.327 3.947 4.007
1205.611 4.067 4.797 5.257 5.547 5.957 6.537 7.127 8.067 9.157 10.097
1224.901 10.737 10.747 10.817 10.977 10.647 9.977 9.497 9.237 8.837 8.057
1244.191 7.337 6.647 5.897 5.377 4.917 4.467 4.207 3.947 3.577 3.537
1263.481 3.447 3.287 3.237 3.187 3.057 2.907 2.937 2.867 2.947 3.047
1282.771 2.977 3.027 3.197 3.267 3.217 3.157 3.167 3.127 2.967 2.937
1302.060 2.927 2.907 2.877 2.837 2.817 2.827 2.867 2.897 2.957 3.147
1321.350 3.377 3.717 4.037 4.337 4.797 5.387 6.197 7.277 8.507 10.097
1340.640 12.197 14.727 17.647 20.787 23.917 26.747 28.857 29.927 29.757 28.307
1359.930 25.707 22.287 18.577 14.987 11.877 9.417 7.677 6.427 5.547 5.007
1379.219 4.537 4.227 4.137 4.137 4.167 4.347 4.707 5.147 5.727 6.487
1398.509 7.347 8.387 9.487 10.447 11.277 11.787 11.857 11.557 10.847 9.847
1417.799 8.817 7.707 6.647 5.847 5.167 4.637 4.307 4.127 3.957 3.747
1437.089 3.567 3.447 3.407 3.417 3.517 3.697 3.927 4.197 4.537 4.857
1456.378 5.117 5.457 5.587 5.607 5.667 5.647 5.587 5.487 5.347 5.207
1475.668 5.087 5.027 5.027 5.227 5.617 6.037 6.587 7.227 7.817 8.227
1494.958 8.457 8.527 8.387 8.017 7.437 6.787 5.967 5.097 4.357 3.827
1514.248 3.317 2.867 2.627 2.457 2.357 2.267 2.177 2.127 2.117 2.147
1533.538 2.207 2.277 2.327 2.377 2.437 2.487 2.647 2.827 3.057 3.307
1552.827 3.597 3.927 4.297 4.757 5.097 5.617 6.407 7.097 7.967 9.047
1572.117 10.187 11.537 12.967 14.347 15.497 16.247 16.447 16.137 15.397 14.177
1591.407 12.697 11.137 9.607 8.317 7.307 6.467 5.587 4.797 4.287 3.887
1610.697 3.507 3.217 2.937 2.767 2.577 2.397 2.247 2.087 1.957 1.897
1629.986 1.787 1.637 1.567 1.517 1.557 1.557 1.527 1.547 1.547 1.537
1649.276 1.577 1.547 1.4855 1.4528 1.4454 1.4781 1.507 1.567 1.617 1.667
1668.566 1.797 1.997 2.157 2.257 2.437 2.727 2.997 3.197 3.407 3.577
1687.856 3.587 3.507 3.627 3.837 4.057 4.467 5.137 6.047 7.297 9.187
1707.146 11.557 14.177 16.637 18.557 19.647 19.827 19.107 17.387 14.737 11.787
1726.435 9.257 7.207 5.657 4.787 4.207 3.837 3.677 3.537 3.477 3.517
1745.725 3.587 3.557 3.467 3.397 3.267 2.947 2.627 2.347 1.987 1.697
1765.015 1.527 1.3562 1.1811 1.066 0.9938 0.9311 0.9071 0.8854 0.7693 0.7689
1784.305 0.7646 0.658 0.6178 0.6503 0.6628 0.6662 0.6577 0.5878 0.5938 0.6027
1803.594 0.56093 0.53021 0.492107 0.466 0.50072 0.57795 0.6065 0.58518 0.51972 0.50072
1822.884 0.53326 0.53413 0.51502 0.4601 0.4377 0.48546 0.50948 0.52241 0.4748 0.383
1842.174 0.4169 0.4676 0.4671 0.486228 0.495834 0.4635 0.487398 0.55411 0.51047 0.47952
1861.464 0.49846 0.47966 0.4294 0.376 0.376 0.4168 0.4601 0.4152 0.363 0.4103
1880.754 0.4182 0.369 0.322 0.374 0.4103 0.362 0.364 0.369 0.332 0.321
1900.043 0.4054 0.4688 0.4303 0.398 0.366 0.379 0.4639 0.4378 0.4276 0.418
1919.333 0.3927 0.3933 0.4294 0.4612 0.4515 0.4187 0.4412 0.4472 0.445 0.50277
1938.623 0.4728 0.49762 0.53062 0.54747 0.5904 0.5729 0.57838 0.56919 0.53171 0.55212
1957.913 0.55692 0.51836 0.53137 0.5378 0.57075 0.58465 0.50317 0.52923 0.5961 0.55475
1977.202 0.53913 0.5296 0.48451 0.49815 0.5106 0.58218 0.6192 0.57301 0.5881 0.6105
1996.492 0.5564 0.55292 0.5996 0.609 0.57614 0.58313 0.6282 0.6444 0.654 0.6483
2015.782 0.6517 0.57579 0.5876 0.6726 0.6201 0.5924 0.5924 0.51455 0.4555 0.4561
2035.072 0.4399 0.4191 0.4325 0.4526 0.4681 0.4603 0.449 0.4375 0.4165 0.3882
2054.362 0.3884 0.4454 0.464 0.3964 0.343 0.344 0.3927 0.3961 0.32 0.349
2073.651 0.3889 0.384 0.3974 0.4013 0.375 0.322 0.335 0.313 0.263 0.242
2092.941 0.243 0.262 0.309 0.346 0.329 0.343 0.305 0.337 0.3942 0.323
2112.231 0.346 0.372 0.342 0.336 0.358 0.387 0.4026 0.339 0.308 0.4158
2131.521 0.439 0.4058 0.367 0.341 0.3929 0.4626 0.4763 0.4615 0.49121 0.47949
2150.810 0.47795 0.4484 0.355 0.354 0.368 0.3899 0.4165 0.4479 0.50375 0.51161
2170.100 0.47971 0.4722 0.4486 0.4038 0.3924 0.4013 0.3992 0.438 0.4443 0.4137
2189.390 0.3901 0.386 0.3878 0.34 0.334 0.325 0.351 0.4209 0.4543 0.4412
2208.680 0.4751 0.496461 0.382 0.381 0.4633 0.4587 0.4255 0.363 0.367 0.4429
2227.970 0.4572 0.48872 0.51085 0.48341 0.4622 0.4099 0.4266 0.4374 0.367 0.355
2247.259 0.314 0.299 0.335 0.311 0.346 0.3921 0.3963 0.3873 0.31 0.271
2266.549 0.241 0.274 0.354 0.305 0.25 0.268 0.345 0.3971 0.34 0.294
2285.839 0.273 0.282 0.224 0.189 0.208 0.222 0.269 0.237 0.269 0.327
2305.129 0.313 0.33 0.331 0.252 0.232 0.27 0.276 0.29 0.256 0.25
2324.418 0.303 0.252 0.273 0.35 0.325 0.349 0.36 0.344 0.318 0.29
2343.708 0.339 0.327 0.309 0.327 0.272 0.271 0.317 0.4195 0.4324 0.343
2362.998 0.334 0.316 0.314 0.328 0.329 0.369 0.351 0.354 0.4207 0.349
2382.288 0.235 0.207 0.273 0.274 0.281 0.293 0.275 0.226 0.304 0.3953
2401.578 0.274 0.213 0.285 0.307 0.265 0.281 0.308 0.327 0.327 0.355
2420.867 0.352 0.37 0.4215 0.365 0.309 0.335 0.313 0.349 0.386 0.3911
2440.157 0.4438 0.4155 0.366 0.296 0.296 0.353 0.347 0.352 0.35 0.325
2459.447 0.348 0.4617 0.49947 0.4177 0.378 0.358 0.282 0.269 0.34 0.37
2478.737 0.4067 0.412 0.354 0.383 0.4506 0.4171 0.365 0.335 0.341 0.32
2498.026 0.294 0.3901 0.4378 0.3973 0.369 0.368 0.318 0.345 0.364 0.255
2517.316 0.315 0.318 0.285 0.362 0.385 0.296 0.264 0.339 0.3983 0.3955
2536.606 0.33 0.3889 0.363 0.334 0.3968 0.384 0.4069 0.3911 0.359 0.322
2555.896 0.264 0.337 0.413 0.356 0.316 0.338 0.377 0.423 0.4089 0.343
2575.186 0.3915 0.4416 0.3903 0.359 0.3914 0.4626 0.4616 0.4287 0.4319 0.4371
2594.475 0.442 0.4485 0.4009 0.353 0.322 0.339 0.355 0.313 0.356 0.4184
2613.765 0.389 0.356 0.373 0.4396 0.4068 0.4114 0.4246 0.31 0.256 0.267
2633.055 0.222 0.315 0.486885 0.4622 0.4136 0.398 0.375 0.367 0.4266 0.38
2652.345 0.248 0.239 0.324 0.286 0.225 0.37 0.3992 0.333 0.355 0.319
2671.634 0.274 0.313 0.353 0.323 0.309 0.354 0.34 0.323 0.31 0.271
2690.924 0.289 0.386 0.367 0.372 0.47724 0.4453 0.376 0.315 0.344 0.3975
2710.214 0.3996 0.352 0.312 0.324 0.297 0.28 0.311 0.293 0.385 0.4232
2729.504 0.383 0.384 0.308 0.308 0.376 0.4275 0.36 0.29 0.329 0.36
2748.794 0.337 0.4363 0.48298 0.313 0.303 0.362 0.372 0.4516 0.376 0.342
2768.083 0.377 0.3931 0.4456 0.4058 0.4365 0.54334 0.53577 0.51605 0.51742 0.4254
2787.373 0.417 0.598 0.7043 0.58134 0.48165 0.51769 0.489994 0.58142 0.7072 0.7478
2806.663 0.8109 0.7367 0.7349 0.8853 0.977 1.0521 1.1717 1.1854 1.1706 1.2084
2825.953 1.3941 1.677 1.837 2.107 2.507 2.877 3.147 3.207 3.247 3.277
2845.242 3.277 3.167 2.867 2.617 2.437 2.337 2.277 2.197 2.137 2.087
2864.532 2.177 2.237 2.227 2.127 2.137 2.207 2.277 2.307 2.237 2.227
2883.822 2.187 2.237 2.237 2.227 2.287 2.267 2.227 2.267 2.327 2.297
2903.112 2.297 2.347 2.387 2.487 2.507 2.517 2.577 2.617 2.677 2.767
2922.401 2.927 3.077 3.227 3.587 3.847 4.037 4.417 4.857 5.327 5.817
2941.691 6.327 6.757 7.017 7.047 7.017 6.847 6.407 5.897 5.367 4.877
2960.981 4.577 4.347 4.177 4.017 3.897 3.797 3.657 3.547 3.337 3.147
2980.271 3.097 3.097 3.107 3.047 3.057 3.237 3.337 3.447 3.577 3.627
2999.561 3.887 4.127 4.347 4.517 4.407 4.217 3.977 3.687 3.257 2.927
3018.850 2.607 2.237 1.937 1.737 1.677 1.567 1.3852 1.2162 1.1058 1.1363
3038.140 1.1463 1.1866 1.1281 1.0356 1.1876 1.2273 1.092 1.1488 1.1413 1.1244
3057.430 1.1173 0.988 0.9663 1.0088 0.985 0.8512 0.9798 1.1251 1.0311 0.9351
3076.720 1.0241 1.0907 0.9604 0.8818 0.908 0.8635 0.804 0.9102 0.9072 0.8099
3096.009 0.6749 0.6637 0.6825 0.58465 0.52803 0.55162 0.6759 0.7213 0.55342 0.376
3115.299 0.492915 0.57225 0.336 0.345 0.4451 0.491132 0.492328 0.373 0.348 0.3905
3134.589 0.54462 0.47735 0.362 0.4168 0.359 0.322 0.3994 0.4227 0.368 0.303
3153.879 0.328 0.326 0.264 0.173 0.118 0.217 0.293 0.284 0.35 0.353
3173.169 0.345 0.4386 0.3923 0.4323 0.4488 0.245 0.233 0.309 0.327 0.264
3192.458 0.241 0.371 0.342 0.215 0.128 0.16 0.221 0.317 0.4049 0.324
3211.748 0.27 0.306 0.379 0.341 0.23 0.221 0.266 0.315 0.201 0.197
3231.038 0.406 0.4117 0.247 0.192 0.273 0.244 0.231 0.302 0.263 0.14
3250.328 0.185 0.29 0.371 0.247 0.118 0.24 0.198 0.151 0.088 0.025
3269.617 0.047 0.259 0.285 0.041 0.035 0.155 0.238 0.308 0.375 0.337
3288.907 0.273 0.187 0.103 0.145 0.251 0.244 0.29 0.371 0.334 0.232
3308.197 0.109 0.099 0.222 0.18 0.146 0.252 0.247 0.276 0.234 0.173
3327.487 0.114 0.281 0.4081 0.353 0.4284 0.4125 0.334 0.312 0.186 0.12
3346.777 0.196 0.253 0.275 0.24 0.259 0.203 0.241 0.26 0.274 0.332
3366.066 0.305 0.297 0.247 0.294 0.267 0.188 0.277 0.301 0.36 0.53169
3385.356 0.366 0.244 0.326 0.368 0.4695 0.461 0.4571 0.603 0.75 0.7392
3404.646 0.7178 0.7081 0.8366 0.929 1.0117 0.9895 0.9757 1.1605 1.3593 1.4728
3423.936 1.637 1.857 2.007 2.207 2.147 2.177 2.247 2.137 1.917 1.471
3443.225 1.2111 1.1926 0.9837 0.7365 0.7143 0.7534 0.7054 0.5973 0.4528 0.4744
3462.515 0.4525 0.4467 0.50192 0.4637 0.4081 0.4312 0.4047 0.3892 0.48514 0.487871
3481.805 0.53971 0.5594 0.56463 0.53527 0.58177 0.5891 0.4657 0.4568 0.4213 0.368
3501.095 0.317 0.4744 0.7086 0.5876 0.52296 0.490333 0.51713 0.6485 0.6753 0.6668
3520.385 0.6986 0.7647 0.7508 0.8783 1.048 1.0095 1.0553 1.1937 1.283 1.3357
3539.674 1.4298 1.537 1.527 1.567 1.587 1.637 1.767 1.737 1.4801 1.1961
3558.964 1.1509 1.0627 0.9189 0.8691 0.7664 0.6159 0.6413 0.58543 0.353 0.305
3578.254 0.4021 0.4053 0.248 0.179 0.217 0.351 0.4262 0.3936 0.294 0.177
3597.544 0.315 0.417 0.361 0.343 0.339 0.327 0.377 0.35 0.363 0.4107
3616.833 0.372 0.492678 0.490705 0.226 0.239 0.3982 0.262 0.305 0.298 0.248
3636.123 0.251 0.135 0.117 0.144 0.207 0.293 0.4161 0.285 0.244 0.341
3655.413 0.33 0.297 0.218 0.341 0.4042 0.335 0.27 0.22 0.264 0.383
3674.703 0.4228 0.249 0 0.082 0.256 0.213 0.119 0.278 0.53055 0.4019
3693.993 0.143 0.131 0.241 0.323 0.379 0.346 0.4264 0.47736 0.383 0.229
3713.282 0.239 0.246 0.211 0.288 0.384 0.285 0.166 0.302 0.289 0.197
3732.572 0.137 0.208 0.245 0.191 0.24 0.311 0.295 0.229 0.227 0.141
3751.862 0.142 0.148 0.099 0.146 0.194 0.407 0.47925 0.255 0.144 0.116
3771.152 0.283 0.354 0.171 0.273 0.287 0.147 0.212 0.309 0.169 0.126
3790.441 0.18 0.141 0.246 0.259 0.217 0.3 0.3972 0.274 0.233 0.276
3809.731 0.319 0.343 0.284 0.394 0.3944 0.267 0.268 0.312 0.385 0.321
3829.021 0.15 0.065 0.225 0.261 0.227 0.34 0.276 0.328 0.217 0.148
3848.311 0.274 0.251 0.285 0.4191 0.4224 0.275 0.246 0.231 0.258 0.289
3867.601 0.228 0.265 0.328 0.371 0.375 0.299 0.309 0.4126 0.284 0.256
3886.890 0.317 0.171 0.208 0.189 0.161 0.133 0.275 0.3951 0.249 0.358
3906.180 0.276 0.191 0.268 0.241 0.209 0.143 0.046 0.096 0.148 0.197
3925.470 0.183 0.162 0.237 0.232 0.259 0.298 0.347 0.4495 0.52863 0.286
3944.760 0.204 0.378 0.379 0.4312 0.4469 0.321 0.164 0.26 0.367 0.335
3964.049 0.4032 0.33 0.218 0.104 0.117 0.318 0.3986 0.377 0.359 0.366
3983.339 0.4389 0.31 0.25 0.312 0.439 0.488124 0.317 0.304 0.3935 0.252
##END=
