##TITLE=1-Phenyl-1-cyclohexene
##JCAMP-DX=4.24
##DATA TYPE=INFRARED SPECTRUM
##ORIGIN=EPA-IR VAPOR PHASE LIBRARY
##OWNER=SRD/NIST
Collection (C) 2018 copyright by the U.S. Secretary of Commerce
on behalf of the United States of America. All rights reserved.
##CAS REGISTRY NO=31017-40-0
##MOLFORM=C 12 H 14
##$NIST SOURCE=MSDC-IR
##STATE=gas
##XUNITS=1/CM
##YUNITS=ABSORBANCE
##XFACTOR=1.
##YFACTOR=0.001
##DELTAX=1.92898
##FIRSTX=549.8
##LASTX=4000.7
##FIRSTY=4.855
##MAXX=4000.7
##MINX=549.759
##MAXY=0.236725
##MINY=0
##NPOINTS=1790
##XYDATA=(X++(Y..Y))
549.759 4.855 4.475 3.855 3.205 2.775 2.455 2.225 1.805 1.515 1.3364
569.049 1.0345 1.0004 1.0146 0.7947 0.6584 0.7355 0.8984 0.8091 0.6004 0.52543
588.339 0.53212 0.6666 0.6487 0.52454 0.56688 0.5925 0.6528 0.6856 0.685 0.7696
607.628 0.9168 1.0314 0.9796 0.9006 0.8488 0.7875 0.7742 0.8801 0.8883 0.8569
626.918 0.9663 1.0514 0.9738 0.9985 1.2972 1.595 1.785 2.105 2.725 3.505
646.208 4.825 6.725 8.755 10.105 10.985 11.775 12.185 12.565 12.605 12.165
665.498 11.665 11.735 12.415 13.495 15.215 17.495 20.095 23.085 26.485 30.195
684.787 33.975 37.805 41.615 45.405 48.845 50.015 48.645 46.425 44.035 41.215
704.077 37.825 34.225 30.505 27.035 23.985 21.465 19.735 18.695 18.085 18.105
723.367 18.975 20.615 22.605 24.955 27.955 31.225 34.615 38.225 42.265 45.855
742.657 48.225 49.275 49.395 49.625 49.785 49.655 49.165 48.405 46.135 41.495
761.947 36.825 32.855 28.995 25.095 21.385 17.955 14.745 12.135 9.995 8.365
781.236 7.145 6.135 5.515 5.235 5.055 5.055 5.265 5.425 5.605 5.875
800.526 6.015 5.915 5.735 5.435 5.165 4.805 4.325 4.025 3.695 3.555
819.816 3.625 3.825 4.125 4.335 4.605 5.005 5.455 5.835 6.645 7.395
839.106 7.725 8.145 8.475 8.725 8.615 8.035 7.495 6.795 5.995 5.225
858.395 4.565 3.945 3.455 3.275 2.965 2.745 2.595 2.505 2.455 2.355
877.685 2.275 2.375 2.655 2.855 3.115 3.495 3.985 4.475 4.985 5.435
896.975 5.845 6.365 6.715 7.085 7.645 8.085 8.525 9.055 9.575 9.865
916.265 9.955 10.175 10.375 10.435 10.165 9.635 8.985 8.265 7.435 6.555
935.555 5.675 4.745 3.965 3.395 2.955 2.635 2.305 1.925 1.835 1.835
954.844 1.745 1.655 1.685 1.735 1.815 1.815 1.665 1.585 1.555 1.4466
974.134 1.505 1.805 1.955 1.975 1.995 2.125 2.425 2.845 3.225 3.645
993.424 4.345 5.065 5.845 6.795 7.735 8.615 9.015 8.995 8.935 8.595
1012.714 7.975 7.065 6.005 5.355 4.945 4.935 5.445 5.925 6.295 6.505
1032.003 6.635 6.705 6.635 6.465 6.095 5.635 5.285 5.375 5.815 6.215
1051.293 6.375 6.665 7.125 7.115 6.955 7.185 7.425 7.505 7.625 7.765
1070.583 7.845 7.935 7.855 7.565 7.285 6.915 6.175 5.545 4.855 4.115
1089.873 3.485 2.895 2.615 2.435 2.285 1.995 1.625 1.595 1.945 1.995
1109.163 1.795 1.925 2.025 1.785 2.085 2.535 2.705 3.035 3.395 4.035
1128.452 4.835 5.425 6.095 6.605 6.925 7.095 7.015 6.785 6.325 5.665
1147.742 4.915 4.135 3.615 3.245 2.885 2.685 2.385 2.205 2.365 2.425
1167.032 2.245 2.485 2.745 2.475 2.215 2.275 2.265 1.975 1.655 1.3142
1186.322 1.0854 1.1221 1.0473 0.653 0.48776 0.6708 0.7409 0.7596 0.6143 0.365
1205.611 0.3914 0.5954 0.6676 0.51606 0.5814 0.8552 1.02 1.1957 1.475 1.595
1224.901 1.755 1.975 2.225 2.535 2.875 3.575 4.485 5.105 5.315 5.355
1244.191 5.315 5.155 5.045 4.715 4.045 3.535 3.335 3.315 3.225 3.355
1263.481 3.685 4.105 4.515 4.725 5.035 5.285 5.355 5.545 5.625 5.465
1282.771 5.195 4.895 4.575 4.285 4.125 3.855 3.625 3.495 3.375 3.375
1302.060 3.435 3.455 3.485 3.625 3.775 3.895 4.045 4.215 4.375 4.625
1321.350 4.955 5.325 5.725 6.165 6.715 7.415 8.235 9.175 10.375 11.665
1340.640 12.845 13.895 14.585 14.695 14.245 13.415 12.365 11.215 9.935 8.555
1359.930 7.335 6.495 5.965 5.555 5.175 4.805 4.385 3.935 3.565 3.295
1379.219 3.115 2.945 2.845 2.775 2.675 2.615 2.545 2.485 2.465 2.475
1398.509 2.505 2.555 2.575 2.645 2.765 2.885 3.095 3.335 3.635 3.995
1417.799 4.425 5.015 5.765 6.695 7.855 9.385 11.215 13.265 15.475 17.695
1437.089 19.715 21.175 22.165 22.705 22.865 22.815 22.545 21.875 20.755 19.645
1456.378 18.645 17.525 16.315 15.055 13.885 12.755 11.575 10.445 9.565 9.105
1475.668 9.245 10.095 11.715 14.105 17.175 20.475 23.415 25.475 26.415 26.365
1494.958 25.415 23.475 20.525 16.835 13.135 10.215 8.035 6.435 5.415 4.775
1514.248 4.315 4.015 3.855 3.695 3.505 3.295 3.155 3.035 2.895 2.765
1533.538 2.665 2.585 2.515 2.465 2.365 2.235 2.165 2.105 2.095 2.145
1552.827 2.215 2.305 2.415 2.585 2.785 3.005 3.235 3.525 3.965 4.385
1572.117 4.865 5.425 5.995 6.695 7.535 8.505 9.635 10.995 12.565 14.265
1591.407 15.855 17.235 18.215 18.555 18.125 17.015 15.455 13.525 11.355 9.165
1610.697 7.165 5.555 4.535 3.925 3.455 3.155 3.005 2.875 2.825 2.885
1629.986 3.055 3.215 3.475 3.865 4.225 4.585 4.975 5.285 5.475 5.575
1649.276 5.565 5.435 5.175 4.795 4.345 3.905 3.505 3.175 2.905 2.695
1668.566 2.515 2.435 2.375 2.285 2.235 2.225 2.155 2.075 2.015 1.985
1687.856 1.965 1.945 1.975 1.945 1.915 1.905 1.915 1.845 1.845 1.915
1707.146 1.945 2.045 2.135 2.235 2.335 2.445 2.595 2.685 2.755 2.835
1726.435 2.875 2.855 2.805 2.765 2.695 2.635 2.575 2.455 2.385 2.365
1745.725 2.305 2.225 2.215 2.205 2.235 2.245 2.225 2.225 2.235 2.265
1765.015 2.265 2.335 2.425 2.515 2.645 2.745 2.925 3.215 3.545 3.855
1784.305 4.155 4.435 4.625 4.735 4.755 4.695 4.475 4.115 3.735 3.305
1803.594 2.955 2.735 2.585 2.435 2.235 2.125 2.035 1.935 1.845 1.745
1822.884 1.715 1.645 1.515 1.475 1.4735 1.475 1.495 1.4684 1.4678 1.495
1842.174 1.595 1.715 1.845 1.985 2.125 2.265 2.385 2.515 2.615 2.715
1861.464 2.815 2.945 3.065 3.195 3.335 3.405 3.455 3.445 3.335 3.195
1880.754 3.045 2.845 2.625 2.405 2.205 2.035 1.935 1.885 1.805 1.755
1900.043 1.755 1.785 1.805 1.805 1.845 1.875 1.925 2.035 2.175 2.345
1919.333 2.515 2.685 2.975 3.255 3.495 3.745 3.905 4.055 4.185 4.275
1938.623 4.385 4.515 4.615 4.675 4.725 4.715 4.525 4.205 3.845 3.445
1957.913 3.005 2.585 2.135 1.665 1.3353 1.1791 1.1163 1.0455 1.0276 1.066
1977.202 1.1409 1.1319 1.0738 1.0065 0.9655 0.9859 0.9557 0.9041 0.8668 0.8241
1996.492 0.7639 0.7289 0.7106 0.6944 0.6953 0.6802 0.6641 0.6126 0.586 0.56183
2015.782 0.53817 0.55286 0.51787 0.49809 0.49239 0.49359 0.49244 0.476569 0.476369 0.4519
2035.072 0.4515 0.4503 0.4372 0.4392 0.4599 0.476405 0.4616 0.47197 0.52407 0.54087
2054.362 0.57341 0.54369 0.482988 0.50956 0.481981 0.483406 0.49435 0.50263 0.52206 0.50388
2073.651 0.49425 0.53019 0.55266 0.52164 0.480586 0.4556 0.49131 0.52796 0.52646 0.53044
2092.941 0.54077 0.55136 0.55362 0.55315 0.55499 0.55634 0.53239 0.52068 0.52203 0.53321
2112.231 0.52336 0.49722 0.5433 0.55679 0.5463 0.54148 0.52218 0.56411 0.57312 0.54499
2131.521 0.5296 0.52253 0.52299 0.52666 0.56327 0.55815 0.5356 0.53007 0.51195 0.54513
2150.810 0.6019 0.56461 0.55599 0.6181 0.6479 0.6476 0.6483 0.6623 0.6223 0.6225
2170.100 0.6767 0.6886 0.6814 0.6769 0.6814 0.6961 0.7374 0.759 0.7585 0.7754
2189.390 0.8109 0.8389 0.8162 0.7842 0.7682 0.7503 0.7867 0.8411 0.8043 0.7492
2208.680 0.8094 0.8264 0.8208 0.8107 0.762 0.7554 0.7694 0.8126 0.8265 0.7998
2227.970 0.8132 0.8423 0.8822 0.8762 0.8737 0.8688 0.8734 0.9282 0.9519 0.9202
2247.259 0.8847 0.9068 0.9215 0.9616 0.9587 0.9935 0.9891 0.9974 1.0009 0.947
2266.549 1.0275 1.0651 1.0324 1.0014 0.9694 1.013 1.0668 1.0452 0.9671 0.8876
2285.839 0.8955 0.8919 0.9207 0.8878 0.8083 0.8503 0.8429 0.8191 0.8567 0.9266
2305.129 0.9884 1.0452 1.1113 1.1508 1.1601 1.1605 1.1964 1.2173 1.1376 0.9922
2324.418 0.9264 0.8894 0.8435 0.8725 0.9368 0.9643 0.9905 1.0077 1.0159 1.0441
2343.708 1.0294 1.0333 1.0324 1.0179 1.0435 1.0338 1.0301 0.995 0.9976 1.0309
2362.998 0.9796 0.9817 1.0307 0.9909 0.9364 0.9508 0.9606 0.9375 0.9014 0.8791
2382.288 0.8823 0.8341 0.8237 0.8196 0.7592 0.7731 0.796 0.7933 0.7924 0.8497
2401.578 0.8358 0.8411 0.8655 0.8286 0.8663 0.89 0.8855 0.8845 0.9012 0.9899
2420.867 0.9955 0.9329 0.9525 0.9438 0.8755 0.8043 0.7441 0.6985 0.6646 0.6561
2440.157 0.641 0.6391 0.6346 0.598 0.6442 0.633 0.56545 0.5977 0.56142 0.51536
2459.447 0.5867 0.5924 0.5949 0.624 0.6034 0.6382 0.7007 0.79 0.8241 0.8072
2478.737 0.8448 0.8103 0.811 0.8722 0.8488 0.7897 0.8241 0.9031 0.8971 0.9014
2498.026 0.9447 0.9892 1.0137 1.0239 1.0561 1.1025 1.1181 1.1588 1.2216 1.2379
2517.316 1.2375 1.2325 1.2268 1.1968 1.1513 1.1128 1.0438 0.9931 0.9816 0.9587
2536.606 0.9401 0.8778 0.8339 0.8204 0.7846 0.7631 0.7748 0.7476 0.7261 0.7311
2555.896 0.775 0.7692 0.7558 0.862 0.8916 0.8745 0.9006 0.9261 0.9486 1.0544
2575.186 1.1408 1.1854 1.241 1.2438 1.3172 1.4072 1.4114 1.4642 1.605 1.625
2594.475 1.625 1.635 1.655 1.675 1.605 1.625 1.685 1.755 1.725 1.665
2613.765 1.615 1.585 1.655 1.585 1.505 1.605 1.665 1.685 1.745 1.805
2633.055 1.905 2.055 2.155 2.215 2.345 2.455 2.645 2.815 2.855 2.935
2652.345 3.065 3.185 3.275 3.325 3.345 3.415 3.515 3.535 3.535 3.575
2671.634 3.565 3.535 3.445 3.295 3.185 3.055 2.985 2.895 2.765 2.655
2690.924 2.585 2.415 2.265 2.235 2.165 2.095 1.965 1.885 1.875 1.795
2710.214 1.755 1.735 1.695 1.665 1.655 1.645 1.575 1.565 1.545 1.525
2729.504 1.525 1.535 1.595 1.605 1.605 1.555 1.525 1.555 1.585 1.565
2748.794 1.665 1.795 1.865 1.915 1.965 2.025 2.145 2.245 2.315 2.515
2768.083 2.665 2.785 2.965 3.165 3.295 3.485 3.735 3.875 4.035 4.195
2787.373 4.315 4.465 4.595 4.735 4.935 5.105 5.285 5.555 5.835 6.045
2806.663 6.295 6.655 7.015 7.365 7.785 8.285 8.925 9.785 10.765 12.085
2825.953 13.785 15.805 18.515 21.845 25.785 30.725 36.675 43.325 49.925 55.375
2845.242 59.125 61.555 63.235 64.315 64.535 63.835 63.245 64.035 66.515 69.625
2864.532 72.045 73.205 73.495 73.125 71.605 68.685 64.695 60.745 57.595 55.415
2883.822 54.285 53.885 53.775 53.605 53.455 53.435 53.835 54.595 55.565 57.055
2903.112 59.205 61.995 65.765 70.905 77.445 85.465 94.505 103.995 113.755 124.115
2922.401 135.115 146.075 156.415 165.815 175.145 185.615 197.275 209.125 220.475 230.975
2941.691 236.725 233.375 222.785 207.795 188.775 165.345 135.965 104.105 76.675 56.475
2960.981 42.545 33.155 26.765 22.285 19.015 16.525 14.825 13.625 12.725 12.075
2980.271 11.755 11.555 11.425 11.505 11.645 11.785 11.975 12.295 12.665 13.075
2999.561 13.595 14.315 15.185 16.145 17.165 18.425 19.965 21.585 23.465 25.865
3018.850 28.785 32.115 35.815 39.855 43.895 47.585 50.365 51.885 52.165 51.125
3038.140 48.925 45.815 42.175 38.205 34.625 32.245 31.315 31.925 33.665 36.485
3057.430 40.445 45.255 50.405 54.515 56.675 57.255 56.815 55.595 53.435 49.545
3076.720 44.425 39.895 36.795 34.765 33.145 31.825 30.595 29.145 27.435 25.555
3096.009 23.525 21.505 19.645 17.875 16.105 14.375 12.705 11.175 9.735 8.285
3115.299 7.155 6.305 5.355 4.595 4.075 3.585 3.185 3.005 2.915 2.785
3134.589 2.655 2.635 2.615 2.495 2.415 2.445 2.465 2.455 2.355 2.185
3153.879 2.175 2.215 2.035 1.825 1.705 1.655 1.605 1.505 1.545 1.475
3173.169 1.3951 1.34 1.2602 1.3439 1.3799 1.3454 1.3959 1.368 1.4156 1.3568
3192.458 1.2038 1.1792 1.1373 1.1759 1.2092 1.1298 1.106 1.1152 1.0748 1.0869
3211.748 1.0006 0.8732 0.9126 0.8978 0.8083 0.8674 0.9711 0.9169 0.777 0.9081
3231.038 0.9509 0.7765 0.8104 0.8275 0.8249 0.8466 0.8457 0.7659 0.6688 0.7037
3250.328 0.7351 0.7224 0.7447 0.6456 0.5811 0.6394 0.6321 0.6826 0.7928 0.7065
3269.617 0.54726 0.5892 0.6638 0.696 0.6638 0.6731 0.638 0.5955 0.6006 0.53299
3288.907 0.483887 0.47005 0.4424 0.48511 0.4357 0.334 0.3853 0.4148 0.4156 0.4583
3308.197 0.4209 0.338 0.28 0.339 0.3781 0.33 0.362 0.4189 0.4335 0.359
3327.487 0.315 0.254 0.247 0.3996 0.4186 0.367 0.4277 0.412 0.4008 0.4483
3346.777 0.426 0.4243 0.332 0.307 0.362 0.4541 0.4617 0.4101 0.4145 0.3941
3366.066 0.53695 0.6338 0.5893 0.49214 0.4638 0.4601 0.4514 0.5835 0.5975 0.50789
3385.356 0.56749 0.4528 0.4452 0.51318 0.46544 0.50499 0.55171 0.6014 0.6086 0.57002
3404.646 0.50477 0.5479 0.5968 0.49779 0.4112 0.4497 0.5247 0.47023 0.4485 0.3901
3423.936 0.294 0.3933 0.484197 0.472 0.46961 0.55477 0.5879 0.5062 0.4248 0.5755
3443.225 0.6644 0.5485 0.5843 0.55256 0.55204 0.5659 0.4255 0.37 0.31 0.26
3462.515 0.3921 0.481809 0.371 0.344 0.356 0.258 0.273 0.298 0.23 0.331
3481.805 0.331 0.234 0.291 0.304 0.288 0.217 0.248 0.214 0.205 0.356
3501.095 0.35 0.241 0.212 0.236 0.156 0.173 0.246 0.29 0.209 0.189
3520.385 0.304 0.291 0.159 0.073 0.053 0 0.029 0.165 0.185 0.185
3539.674 0.131 0.066 0.106 0.102 0.195 0.231 0.236 0.332 0.338 0.288
3558.964 0.312 0.327 0.373 0.46564 0.3832 0.276 0.306 0.312 0.203 0.137
3578.254 0.233 0.349 0.358 0.315 0.306 0.34 0.4145 0.3841 0.3946 0.4329
3597.544 0.4577 0.4232 0.4438 0.46924 0.336 0.168 0.161 0.336 0.344 0.233
3616.833 0.241 0.3 0.268 0.295 0.4296 0.53809 0.48992 0.4465 0.537 0.474591
3636.123 0.4053 0.304 0.243 0.48906 0.6126 0.50815 0.55666 0.6039 0.6918 0.8223
3655.413 0.7319 0.6704 0.53721 0.3864 0.4383 0.55408 0.6957 0.8279 0.7646 0.7332
3674.703 0.6955 0.6409 0.6394 0.7016 0.8205 0.7637 0.7533 0.8111 0.8168 0.8165
3693.993 0.6889 0.6671 0.6111 0.50781 0.7176 0.8138 0.7666 0.8587 0.8928 0.8279
3713.282 0.8165 0.7807 0.6799 0.663 0.6765 0.6362 0.6254 0.5877 0.6504 0.7204
3732.572 0.6564 0.5844 0.50304 0.55915 0.665 0.6212 0.55819 0.52391 0.53761 0.4581
3751.862 0.303 0.4339 0.6334 0.6486 0.593 0.651 0.6564 0.633 0.52808 0.4556
3771.152 0.4023 0.3944 0.5392 0.54691 0.6273 0.6631 0.6154 0.6544 0.6598 0.6337
3790.441 0.6725 0.6882 0.5777 0.5947 0.6471 0.6242 0.5986 0.5779 0.6482 0.6041
3809.731 0.52055 0.477453 0.53056 0.6503 0.6304 0.6294 0.55907 0.55158 0.5967 0.56181
3829.021 0.5793 0.48797 0.56783 0.6835 0.6172 0.52289 0.49603 0.536 0.53984 0.6242
3848.311 0.53389 0.484678 0.52589 0.46988 0.53507 0.7322 0.8291 0.7304 0.53741 0.4106
3867.601 0.56784 0.6831 0.5233 0.48739 0.5944 0.55527 0.5387 0.4921 0.4521 0.54499
3886.890 0.4491 0.484524 0.52937 0.4041 0.51799 0.51313 0.50236 0.6348 0.6348 0.52223
3906.180 0.50213 0.7132 0.8482 0.7971 0.7416 0.6384 0.6184 0.7176 0.715 0.7614
3925.470 0.9416 0.8496 0.7906 0.8603 0.9077 0.9608 0.8845 0.8671 0.9736 0.998
3944.760 1.0051 1.023 0.9269 0.8203 0.8926 0.9242 0.8608 0.8393 0.8277 0.892
3964.049 0.7248 0.713 0.7726 0.7134 0.8966 0.9067 0.8524 0.7732 0.7219 0.86
3983.339 0.9523 0.8994 0.7385 0.785 1.0724 1.0665 0.8238 0.7946 0.8838 0.972
##END=
