##TITLE=Ethyl n-propyl sulphone
##JCAMP-DX=4.24
##DATA TYPE=INFRARED SPECTRUM
##ORIGIN=EPA-IR VAPOR PHASE LIBRARY
##OWNER=SRD/NIST
Collection (C) 2018 copyright by the U.S. Secretary of Commerce
on behalf of the United States of America. All rights reserved.
##CAS REGISTRY NO=31110-65-3
##MOLFORM=C 5 H 12 O 2 S
##$NIST SOURCE=MSDC-IR
##STATE=gas
##XUNITS=1/CM
##YUNITS=ABSORBANCE
##XFACTOR=1.
##YFACTOR=0.001
##DELTAX=1.92898
##FIRSTX=549.8
##LASTX=4000.7
##FIRSTY=13.439
##MAXX=4000.7
##MINX=549.759
##MAXY=0.189149
##MINY=0
##NPOINTS=1790
##XYDATA=(X++(Y..Y))
549.759 13.439 13.779 14.009 13.449 13.399 13.009 11.879 11.029 10.789 10.009
569.049 8.949 8.519 8.529 8.189 6.859 5.919 5.699 5.259 4.949 4.179
588.339 3.699 3.629 3.349 3.069 2.879 2.979 2.879 2.949 3.199 2.979
607.628 2.839 3.079 3.039 3.139 3.469 3.469 3.349 3.559 3.979 4.069
626.918 4.349 5.009 5.209 5.219 5.289 5.459 5.909 6.259 6.839 7.519
646.208 7.739 7.969 8.349 8.699 9.279 9.669 9.539 9.589 9.709 9.859
665.498 9.519 9.269 9.429 9.449 9.669 10.129 10.989 11.829 12.349 13.349
684.787 14.769 16.189 17.969 19.849 21.829 24.309 27.029 29.859 32.529 35.089
704.077 37.639 39.649 41.229 42.259 43.149 43.629 43.349 42.349 40.379 37.779
723.367 35.089 32.839 30.599 28.089 25.329 22.959 21.139 19.509 18.289 17.609
742.657 17.239 16.799 16.649 16.709 16.839 16.969 17.479 18.169 18.459 18.939
761.947 19.939 21.359 22.939 24.769 26.519 28.099 29.769 31.559 33.529 35.249
781.236 36.239 36.929 37.359 37.349 36.779 36.049 35.679 34.679 33.379 32.309
800.526 30.359 28.189 26.309 24.119 22.099 20.109 17.899 15.799 14.169 13.109
819.816 12.009 11.409 11.409 10.939 10.709 10.709 10.649 11.019 11.489 11.739
839.106 11.839 12.219 12.679 12.839 12.819 12.859 12.569 12.259 12.049 11.569
858.395 11.079 10.369 9.649 8.939 8.289 7.669 6.999 5.949 5.279 4.729
877.685 3.989 3.709 3.669 3.649 3.419 3.749 3.909 3.709 3.789 3.619
896.975 3.539 3.619 3.549 3.319 3.349 3.349 3.199 3.209 2.939 2.489
916.265 2.109 2.029 2.289 2.379 2.249 2.139 1.999 1.809 1.979 2.159
935.555 1.879 1.679 1.629 1.809 1.779 1.769 1.989 1.999 1.829 1.709
954.844 1.999 2.159 2.139 2.219 2.259 2.299 2.249 2.409 2.669 2.689
974.134 2.599 2.849 2.979 3.039 3.209 2.909 3.239 3.379 3.319 3.449
993.424 2.759 2.869 3.289 3.509 3.669 3.609 3.519 3.789 4.489 4.609
1012.714 4.959 5.649 6.759 8.039 9.689 11.149 12.339 14.049 15.359 17.319
1032.003 19.109 19.849 20.899 22.169 22.669 21.939 20.979 20.549 19.859 18.649
1051.293 17.479 16.059 14.699 13.969 12.849 11.859 10.769 9.709 9.119 8.709
1070.583 8.699 8.799 9.249 9.329 9.009 8.909 9.639 9.609 9.609 10.479
1089.873 10.619 10.869 10.809 10.389 10.359 9.829 9.059 9.689 10.149 10.029
1109.163 10.239 11.949 14.579 16.789 20.339 25.949 32.309 39.749 49.869 60.009
1128.452 71.219 85.239 98.559 110.829 122.769 132.939 140.459 145.629 147.479 145.689
1147.742 141.569 134.349 124.429 112.169 98.229 84.349 70.829 57.899 47.019 38.049
1167.032 30.529 25.089 20.459 16.819 14.509 12.769 11.179 9.759 9.559 9.279
1186.322 8.759 9.289 9.099 7.789 6.889 7.019 7.299 7.919 8.549 7.859
1205.611 7.499 7.709 7.019 7.029 7.829 7.949 8.089 8.689 10.029 10.689
1224.901 10.579 11.719 12.959 13.179 14.069 15.109 15.989 16.339 16.499 16.919
1244.191 16.899 16.829 16.659 16.499 16.389 16.489 16.159 15.819 15.879 15.449
1263.481 15.479 16.159 16.689 17.379 18.679 20.249 21.349 22.379 23.479 24.619
1282.771 25.449 26.179 26.909 27.469 28.139 29.049 30.099 31.249 32.619 34.239
1302.060 36.489 39.299 42.669 46.879 52.009 58.159 65.719 74.269 83.789 94.799
1321.350 106.699 118.969 131.599 144.379 156.669 167.849 177.389 184.559 188.589 189.149
1340.640 186.719 181.719 174.239 164.359 152.299 138.939 125.139 111.089 96.869 83.209
1359.930 70.709 59.359 49.359 40.889 33.709 27.859 23.239 19.749 17.139 15.229
1379.219 13.929 13.009 12.409 11.959 11.659 11.419 11.379 11.449 11.469 11.699
1398.509 12.009 12.359 12.739 13.299 13.829 14.389 15.019 15.619 16.039 16.009
1417.799 15.789 15.349 14.749 14.089 13.339 12.779 12.349 11.889 11.519 11.209
1437.089 11.169 11.429 11.729 12.309 13.109 14.059 15.129 16.099 17.149 18.089
1456.378 18.809 19.509 20.009 20.239 20.139 19.649 19.089 18.369 17.389 16.319
1475.668 15.229 14.109 12.899 11.669 10.529 9.449 8.509 7.759 7.009 6.349
1494.958 5.869 5.409 4.929 4.609 4.299 4.049 3.919 3.689 3.619 3.629
1514.248 3.529 3.379 3.179 3.239 3.249 3.009 2.999 3.109 2.999 2.989
1533.538 2.989 2.809 2.719 2.769 2.779 2.579 2.599 2.619 2.409 2.449
1552.827 2.449 2.249 2.169 2.099 2.119 2.089 2.099 2.179 2.089 2.189
1572.117 2.069 1.809 1.879 1.999 2.019 2.059 2.009 1.839 1.709 1.749
1591.407 1.749 1.689 1.779 1.909 1.739 1.4727 1.699 1.899 1.909 1.929
1610.697 1.749 1.719 1.839 1.749 1.689 1.599 1.5456 1.689 1.629 1.649
1629.986 1.799 1.739 1.859 1.909 1.769 1.759 1.739 1.699 1.669 1.649
1649.276 1.729 1.739 1.669 1.609 1.547 1.709 1.5733 1.3511 1.3807 1.4242
1668.566 1.5058 1.455 1.2421 1.0957 1.2365 1.4001 1.3894 1.297 1.2282 1.2131
1687.856 1.244 1.242 1.2215 1.1979 1.1653 1.1598 1.1801 1.1189 1.0889 1.1559
1707.146 1.1429 1.2287 1.2411 1.2697 1.2349 1.0914 1.1385 1.264 1.2686 1.1738
1726.435 1.1354 1.093 1.1161 1.2071 1.2348 1.1386 1.17 1.1577 1.1313 1.1612
1745.725 1.0562 0.9904 0.9426 0.9402 0.9486 0.8984 0.9753 1.0216 0.9668 0.8742
1765.015 0.9134 0.9641 0.8823 0.8645 0.8776 0.9371 0.8956 0.8286 0.8645 0.9317
1784.305 0.941 1.0207 1.0581 0.9086 0.7916 0.9262 1.0004 0.9035 0.8285 0.8389
1803.594 0.8981 0.8888 0.8946 0.8875 0.8402 0.8053 0.8015 0.7447 0.7292 0.7117
1822.884 0.6996 0.7561 0.7168 0.7238 0.788 0.7959 0.8324 0.8668 0.9281 0.8537
1842.174 0.7612 0.7334 0.7588 0.9213 1.0108 0.9793 0.8501 0.9095 0.9265 0.77
1861.464 0.7727 0.826 0.8444 0.8435 0.9251 0.9756 0.8966 0.8636 0.9173 0.8747
1880.754 0.9318 1.0777 0.9765 0.8837 1.0786 0.9275 0.8541 1.0873 1.0212 0.9907
1900.043 0.985 0.8517 0.7759 0.9595 1.0807 1.0424 1.1083 1.1112 1.0763 1.0467
1919.333 1.0347 1.1448 1.1629 1.1253 1.1148 1.1648 1.1727 1.057 0.9869 0.9895
1938.623 1.1048 1.0671 1.0163 1.0817 1.0231 1.0627 1.1328 1.0612 1.0606 1.186
1957.913 1.1038 1 1.1242 1.2158 1.2044 1.2124 1.1828 1.1158 1.1759 1.2067
1977.202 1.066 1.005 1.0304 1.0132 1.0846 1.0945 1.102 1.134 1.0294 1.0592
1996.492 1.1664 1.2028 1.165 1.0424 0.9849 1.0543 1.1251 1.0634 1.0341 1.0982
2015.782 1.1141 0.9766 0.8435 0.9701 1.0208 0.9984 1.0062 0.999 0.9657 1.0569
2035.072 1.1952 1.1249 1.0959 1.0305 0.9817 1.1014 1.1233 1.0931 1.0926 1.0103
2054.362 0.9878 1.0488 1.0524 1.1376 1.1122 0.966 1.0982 1.1433 1.0334 0.9435
2073.651 0.8893 0.9818 0.9992 0.9876 1.0127 0.917 0.9125 0.8473 0.8346 0.9592
2092.941 0.9919 0.9694 0.9668 1 0.9518 1.0122 1.0212 0.9083 0.8621 0.8264
2112.231 0.8935 1.0359 0.9818 0.8414 0.9383 1.0335 1.0508 1.0147 1.0196 1.1297
2131.521 1.172 1.0737 0.9728 1.1212 1.1351 1.0008 1.0737 1.0935 1.0545 1.0885
2150.810 1.0998 1.1561 1.1495 1.0829 1.0294 1.0091 1.0025 1.0924 1.1499 1.026
2170.100 0.9635 1.0237 1.0693 1.2094 1.2462 1.0831 1.1339 1.2582 1.2492 1.1997
2189.390 1.1639 1.2379 1.3119 1.2673 1.3245 1.3919 1.4292 1.4352 1.3564 1.2985
2208.680 1.1408 1.1324 1.2711 1.2175 1.188 1.32 1.4158 1.3248 1.2345 1.3346
2227.970 1.4085 1.282 1.2514 1.3211 1.3214 1.4135 1.4764 1.5714 1.5721 1.4275
2247.259 1.4154 1.4038 1.3245 1.3888 1.4603 1.5016 1.5808 1.5598 1.5321 1.5648
2266.549 1.619 1.629 1.659 1.719 1.659 1.639 1.639 1.639 1.669 1.609
2285.839 1.589 1.699 1.759 1.619 1.5793 1.5472 1.4225 1.335 1.2698 1.3361
2305.129 1.3888 1.2671 1.2101 1.1359 1.0763 1.1252 1.093 1.1084 1.0913 1.0171
2324.418 1.1248 1.2112 1.0944 1.0417 1.0895 1.0365 0.9329 1.1029 1.0674 0.9379
2343.708 0.99 0.9299 0.9511 1.0963 1.217 1.2375 1.1411 1.1946 1.3209 1.297
2362.998 1.1918 1.2135 1.3847 1.4411 1.4034 1.3455 1.4583 1.4682 1.349 1.3356
2382.288 1.3554 1.4365 1.5115 1.4385 1.3436 1.4264 1.3816 1.3247 1.4152 1.3503
2401.578 1.3158 1.4639 1.4661 1.4793 1.5876 1.541 1.4656 1.5667 1.809 1.799
2420.867 1.5234 1.4862 1.679 1.729 1.729 1.719 1.769 1.699 1.669 1.639
2440.157 1.649 1.699 1.679 1.799 1.859 1.829 1.779 1.849 1.899 1.929
2459.447 1.989 1.839 1.869 2.009 2.069 2.169 2.109 2.019 2.129 2.209
2478.737 2.229 2.109 1.919 1.899 1.859 1.779 1.769 1.599 1.5016 1.4991
2498.026 1.4887 1.5393 1.4291 1.406 1.3626 1.1684 1.0376 0.9443 0.9676 0.8741
2517.316 0.8001 1.0195 1.0644 1.0108 1.0064 0.9852 1.1732 1.2726 1.058 0.9132
2536.606 0.9226 0.9413 0.8801 0.8992 1.0174 0.9515 0.8623 0.7765 0.66571 0.7078
2555.896 0.8281 0.9275 0.992 0.9112 0.7842 0.9624 1.0992 1.0445 1.0164 0.967
2575.186 1.002 0.9433 0.8369 0.7368 0.7407 0.9346 1.0572 0.8852 0.8055 0.7509
2594.475 0.7449 0.9607 0.9048 0.889 1.0019 0.9249 0.8457 0.9971 1.0457 0.8911
2613.765 0.9237 0.896 0.8623 1.013 1.1371 1.1342 1.0779 1.1338 1.0174 1.0539
2633.055 1.1394 1.1094 1.1089 1.136 1.13 1.1776 1.3561 1.3808 1.2857 1.0686
2652.345 1.1171 1.3948 1.3826 1.3472 1.4011 1.4355 1.3308 1.3229 1.4695 1.4265
2671.634 1.4174 1.4298 1.4434 1.4558 1.3904 1.3436 1.3737 1.373 1.3381 1.2666
2690.924 1.1732 1.3975 1.629 1.5815 1.589 1.5447 1.5144 1.5072 1.4243 1.3915
2710.214 1.2585 1.1597 1.322 1.3868 1.2945 1.2649 1.2913 1.4178 1.4746 1.5213
2729.504 1.5663 1.5607 1.659 1.5659 1.4173 1.4747 1.699 1.929 2.049 2.059
2748.794 1.939 2.119 2.389 2.329 2.239 2.459 2.559 2.399 2.269 2.289
2768.083 2.449 2.479 2.309 2.189 2.299 2.339 2.349 2.209 2.119 2.309
2787.373 2.479 2.439 2.449 2.409 2.499 2.819 2.999 3.059 3.159 3.269
2806.663 3.309 3.429 3.509 3.429 3.549 3.849 3.919 3.819 3.849 3.909
2825.953 3.889 3.799 3.929 4.109 4.039 4.159 4.409 4.519 4.599 4.679
2845.242 4.919 5.179 5.199 5.459 5.729 5.849 6.179 6.839 7.479 8.109
2864.532 8.849 9.539 10.519 11.769 13.359 15.079 16.939 19.049 21.159 23.129
2883.822 24.689 25.999 27.449 28.289 28.449 28.829 28.829 28.199 27.319 26.489
2903.112 25.539 24.669 24.229 23.859 23.919 24.299 25.089 26.119 27.139 28.479
2922.401 29.929 31.619 33.399 35.439 37.909 40.449 43.099 45.809 48.329 50.559
2941.691 52.289 53.279 53.749 54.169 54.029 53.119 52.359 51.679 50.899 50.429
2960.981 50.319 50.619 51.849 54.139 56.529 59.079 62.099 64.639 66.459 67.729
2980.271 67.919 66.769 64.869 62.299 59.089 55.079 50.709 46.299 41.919 38.039
2999.561 34.259 31.159 28.299 25.479 23.159 20.819 18.859 17.129 15.159 13.439
3018.850 12.029 11.009 10.109 8.989 8.289 7.749 7.219 6.979 6.779 6.589
3038.140 6.219 5.719 5.549 5.569 5.389 5.029 4.869 4.919 4.829 4.589
3057.430 4.559 4.549 4.229 4.099 4.039 3.999 3.869 3.509 3.409 3.509
3076.720 3.469 3.189 3.109 3.249 3.239 3.229 3.139 2.769 2.749 2.819
3096.009 2.859 3.039 3.119 3.139 2.779 2.669 2.749 2.609 2.549 2.679
3115.299 2.659 2.429 2.499 2.499 2.379 2.289 2.489 2.669 2.379 2.299
3134.589 2.349 2.329 2.309 2.189 1.839 1.729 1.959 2.109 2.079 1.889
3153.879 2.049 2.019 1.949 2.139 1.999 1.939 1.939 1.899 2.059 2.219
3173.169 2.109 2.049 2.109 2.019 1.929 1.969 1.909 1.949 1.999 1.909
3192.458 1.809 1.649 1.629 1.5344 1.609 1.679 1.729 1.659 1.3293 1.2044
3211.748 1.2433 1.3519 1.2766 1.2507 1.232 1.1412 1.0217 1.0419 1.0633 1.178
3231.038 1.2081 0.8825 1.0111 0.9628 0.8085 0.8792 0.9752 0.9287 0.847 0.992
3250.328 1.0942 1.0091 0.7431 0.8854 1.0629 0.9204 0.8792 1.0787 0.9453 0.7667
3269.617 1.0565 1.1447 1.1688 1.1044 0.8991 0.9107 0.9074 0.814 0.8085 0.8096
3288.907 1.0488 0.9874 0.7644 1.0387 1.0599 0.8995 0.8006 0.63319 0.459 0.333
3308.197 0.401 0.5607 0.63519 0.7075 0.67919 0.6057 0.63357 0.62749 0.6375 0.63984
3327.487 0.663 0.9232 0.8015 0.453 0.65489 0.8035 0.7818 0.9351 0.8675 0.8042
3346.777 0.7454 0.8735 1.0098 0.58533 0.66767 0.9925 0.948 0.8593 0.62671 0.5232
3366.066 0.65703 0.7113 0.445 0.391 0.5752 0.7005 0.64619 0.7326 0.7388 0.65194
3385.356 0.7986 0.7511 0.68332 0.62845 0.5266 0.5099 0.63251 0.7777 0.919 0.7656
3404.646 0.65001 0.594292 0.5356 0.63019 0.7255 0.8384 0.8622 0.9103 0.839 0.63315
3423.936 0.68318 0.7938 0.6938 0.67261 0.7636 0.66719 0.7187 0.8649 0.7076 0.4945
3443.225 0.5003 0.351 0 0.168 0.5633 0.7287 0.6968 0.65394 0.6817 0.5702
3462.515 0.5116 0.4994 0.549 0.7084 0.5321 0.354 0.387 0.45 0.5086 0.373
3481.805 0.361 0.4974 0.62708 0.7373 0.6393 0.66706 0.7657 0.65086 0.60364 0.62895
3501.095 0.5654 0.62329 0.7703 0.5376 0.365 0.7319 0.8008 0.64549 0.5659 0.5803
3520.385 0.61801 0.5641 0.397 0.277 0.338 0.419 0.6925 0.63401 0.378 0.58611
3539.674 0.5069 0.333 0.429 0.5506 0.63977 0.61671 0.58333 0.5521 0.588819 0.7402
3558.964 0.8292 0.502 0.469 0.66151 0.417 0.422 0.60533 0.5448 0.385 0.483
3578.254 0.531 0.482 0.60919 0.5182 0.354 0.5423 0.7329 0.348 0.131 0.208
3597.544 0.35 0.341 0.426 0.60396 0.63309 0.7538 0.7055 0.63719 0.369 0.23
3616.833 0.5325 0.588809 0.389 0.368 0.422 0.5577 0.7442 0.8192 0.7155 0.433
3636.123 0.5054 0.9068 1.1496 0.6392 0.304 0.8083 0.8483 0.6915 0.6898 0.61873
3655.413 0.66419 0.5306 0.288 0.38 0.60236 0.9474 1.0267 0.8314 0.7973 0.5414
3674.703 0.434 0.5674 0.7266 0.62184 0.63818 0.8564 0.8247 0.487 0.427 0.9276
3693.993 0.9647 0.81 0.68717 0.391 0.7433 0.9211 0.5104 0.547 0.65951 0.5543
3713.282 0.594657 0.8 0.9999 1.0812 0.8921 0.8328 0.8451 0.6992 0.7063 0.9074
3732.572 0.9462 0.8942 0.699 0.5362 0.5051 0.589566 0.8799 0.8474 0.5272 0.8332
3751.862 1.2278 0.9522 0.8597 0.7989 0.485 0.60369 0.7261 0.5776 0.67362 0.7736
3771.152 0.8487 0.61985 0.487 0.67948 0.7971 0.8341 0.7684 0.8127 0.8999 0.8977
3790.441 0.9037 0.9813 0.8491 0.7695 1.0524 0.9303 0.66238 0.7207 0.7504 0.65932
3809.731 0.5778 0.4979 0.5682 0.64107 0.776 1.016 0.9702 0.7026 0.5485 0.689
3829.021 0.8324 0.8591 0.7172 0.5393 0.5641 0.67564 0.46 0.5576 0.9511 0.9795
3848.311 0.8892 0.7809 0.5613 0.42 0.431 0.4 0.359 0.307 0.5214 0.5493
3867.601 0.325 0.598708 0.8334 0.485 0.5459 0.8696 0.6252 0.7117 0.8895 0.8372
3886.890 1.1073 0.9562 0.7678 0.8177 0.66743 0.5642 0.589281 0.9204 0.8046 0.65283
3906.180 0.9189 0.9639 0.979 0.7278 0.60773 0.89 0.8917 1.1431 0.9681 0.6289
3925.470 0.8271 0.9638 0.9035 0.7777 0.7995 0.7435 0.59855 0.453 0.5057 0.8159
3944.760 0.9494 0.8682 0.9516 0.9844 1.0268 1.0503 0.8928 0.7964 0.8462 1.0178
3964.049 0.9193 0.7324 0.9514 1.2609 1.3108 1.1163 0.9183 1.0124 1.2369 1.1871
3983.339 1.0723 1.1647 1.0725 1.1538 1.2083 0.9314 1.0428 1.2121 1.2889 1.4596
##END=
