##TITLE=D-Campholic acid
##JCAMP-DX=4.24
##DATA TYPE=INFRARED SPECTRUM
##ORIGIN=EPA-IR VAPOR PHASE LIBRARY
##OWNER=SRD/NIST
Collection (C) 2018 copyright by the U.S. Secretary of Commerce
on behalf of the United States of America. All rights reserved.
##CAS REGISTRY NO=31147-56-5
##MOLFORM=C 10 H 18 O 2
##$NIST SOURCE=MSDC-IR
##STATE=gas
##XUNITS=1/CM
##YUNITS=ABSORBANCE
##XFACTOR=1.
##YFACTOR=0.001
##DELTAX=1.92898
##FIRSTX=549.8
##LASTX=4000.7
##FIRSTY=16.5342
##MAXX=4000.7
##MINX=549.759
##MAXY=0.201964
##MINY=0
##NPOINTS=1790
##XYDATA=(X++(Y..Y))
549.759 16.5342 18.0042 19.5342 20.9142 21.9342 22.9342 23.9742 25.1242 26.5542 28.0842
569.049 30.1642 32.4942 35.1042 37.1442 38.3642 40.0142 40.8642 40.6142 39.9942 38.4342
588.339 36.4642 34.7442 32.4542 29.8442 27.1542 25.0942 23.3342 21.2342 19.4042 17.9142
607.628 16.4842 14.8142 13.7642 13.1842 12.1542 11.2742 11.0342 10.5242 10.2542 10.3542
626.918 10.2242 10.1842 10.1542 10.3142 10.3042 10.0742 10.2042 10.0542 10.0842 10.5242
646.208 10.6542 10.9342 11.4742 12.5242 14.1542 16.1942 18.8542 21.8242 24.4742 26.5042
665.498 27.5442 28.3042 28.3442 26.8642 24.8742 22.6342 19.7342 16.2142 12.9242 9.98423
684.787 7.79423 6.09423 4.94423 4.42423 3.69423 3.36423 3.53423 3.29423 2.94423 3.09423
704.077 3.16423 2.82423 2.66423 2.75423 2.67423 2.53423 2.56423 2.95423 2.98423 3.06423
723.367 3.21423 3.09423 3.13423 3.16423 3.00423 3.00423 3.02423 2.99423 2.99423 3.19423
742.657 3.83423 3.84423 4.04423 4.49423 4.70423 5.49423 6.06423 6.37423 7.18423 8.30423
761.947 9.23423 10.1842 11.4042 12.5042 13.2242 13.7242 13.8142 13.3342 12.5042 11.5642
781.236 10.3942 9.25423 8.14423 6.90423 6.21423 5.66423 5.07423 4.76423 4.40423 4.06423
800.526 3.93423 3.73423 3.49423 3.20423 3.28423 3.54423 3.53423 3.53423 3.35423 2.91423
819.816 2.65423 2.74423 2.61423 2.55423 2.69423 2.41423 1.97423 2.00423 2.22423 2.18423
839.106 2.02423 2.14423 2.29423 2.27423 2.37423 2.40423 2.48423 2.35423 2.27423 2.63423
858.395 2.79423 2.54423 2.47423 2.48423 2.18423 2.13423 2.01423 1.88423 1.81423 1.75423
877.685 1.66423 1.65423 1.65423 1.62423 1.69423 1.92423 2.31423 2.38423 2.41423 2.59423
896.975 2.48423 2.27423 2.42423 2.36423 2.03423 2.24423 2.35423 2.13423 2.28423 2.41423
916.265 2.56423 2.44423 2.07423 2.20423 2.31423 2.41423 2.57423 2.63423 2.89423 3.12423
935.555 3.24423 3.30423 3.22423 2.97423 2.89423 2.91423 3.18423 3.47423 3.46423 3.46423
954.844 3.27423 3.08423 3.01423 2.77423 2.65423 2.80423 3.09423 3.26423 3.02423 2.96423
974.134 3.41423 3.50423 3.73423 4.34423 4.68423 5.08423 5.49423 6.07423 6.79423 7.46423
993.424 7.62423 7.38423 7.51423 7.90423 8.32423 8.49423 8.35423 8.66423 8.99423 9.01423
1012.714 9.40423 9.50423 9.62423 9.97423 10.3242 10.4942 10.5342 10.7842 10.9742 11.3742
1032.003 11.8042 12.4042 12.8942 13.3542 14.6242 16.3342 17.9142 19.2542 20.8742 22.5042
1051.293 25.0342 29.1242 32.9042 36.2542 40.8542 46.4242 52.0442 57.2042 62.0142 67.0442
1070.583 71.7342 75.4142 77.0542 77.7342 77.9042 77.6842 75.8242 74.2142 73.8942 72.3042
1089.873 71.4942 71.5042 72.4042 74.6642 77.8742 81.4842 83.8742 85.9642 88.6742 89.6642
1109.163 88.0442 84.8642 81.9242 77.8242 71.7342 65.7142 59.8742 54.2942 49.6642 45.5242
1128.452 41.3942 38.2742 35.8242 34.2542 33.0942 31.6142 31.2142 30.6942 30.5642 30.3642
1147.742 30.0942 30.4542 30.5642 30.6242 30.6442 30.7342 30.2742 30.3942 30.6042 29.8642
1167.032 29.6642 30.1842 30.4142 30.6242 30.8042 31.6942 32.2442 31.9642 32.3742 32.0542
1186.322 31.4242 31.3542 30.7742 29.3542 27.4942 25.9742 24.3242 22.7942 21.1842 18.3642
1205.611 15.9042 15.0242 14.7742 14.4242 13.6742 13.0242 12.9742 13.2242 12.7842 11.6042
1224.901 11.7842 12.3942 12.4142 11.9542 11.2342 11.2242 10.8542 9.80423 9.32423 9.00423
1244.191 8.64423 8.78423 8.89423 8.42423 7.77423 7.51423 7.46423 7.42423 7.45423 7.39423
1263.481 7.38423 7.33423 7.49423 7.93423 8.18423 8.59423 9.16423 9.45423 9.89423 10.4342
1282.771 11.1942 12.0942 12.8242 13.6142 14.6142 15.1042 15.0742 15.2442 15.3742 15.3742
1302.060 15.2642 15.1742 15.0742 14.9942 14.8742 15.0242 15.4442 15.5042 15.3342 15.2242
1321.350 14.9742 14.6842 14.1642 13.5542 12.9942 12.2442 11.2842 10.4042 9.83423 9.31423
1340.640 8.87423 8.55423 8.38423 8.44423 8.55423 8.73423 9.08423 9.44423 10.0042 10.8942
1359.930 11.9542 13.2142 14.8742 16.6742 18.7342 21.2742 23.9042 26.0942 27.8442 29.3442
1379.219 30.4742 31.2942 31.7042 30.8642 28.9242 26.8742 24.8342 22.7542 20.6842 18.3242
1398.509 15.8542 13.6642 11.7642 10.0642 8.58423 7.39423 6.35423 5.50423 4.88423 4.56423
1417.799 4.43423 4.35423 4.39423 4.41423 4.66423 5.03423 5.37423 5.78423 6.22423 6.90423
1437.089 7.74423 8.59423 9.80423 11.3242 12.9542 14.7142 16.5842 18.5542 20.4042 22.2342
1456.378 23.9542 25.3742 26.5142 27.2942 27.8642 28.1042 27.7942 27.2442 26.5342 25.3742
1475.668 23.8642 22.0642 20.0342 17.9742 15.9242 13.9142 12.0142 10.2342 8.70423 7.43423
1494.958 6.37423 5.45423 4.77423 4.23423 3.76423 3.43423 3.19423 3.05423 2.95423 2.79423
1514.248 2.64423 2.57423 2.55423 2.50423 2.45423 2.41423 2.38423 2.42423 2.28423 2.13423
1533.538 2.20423 2.25423 2.25423 2.27423 2.36423 2.35423 2.29423 2.35423 2.35423 2.20423
1552.827 1.98423 1.99423 2.11423 2.05423 1.93423 1.83423 1.69423 1.48423 1.41423 1.49423
1572.117 1.46423 1.41423 1.57423 1.66423 1.39423 1.30423 1.31423 1.27423 1.40423 1.40423
1591.407 1.44423 1.50423 1.42423 1.43423 1.46423 1.35423 1.37423 1.43423 1.33423 1.30423
1610.697 1.43423 1.49423 1.45423 1.39423 1.19423 1.10423 1.16423 1.11423 1.14423 1.29423
1629.986 1.33423 1.30423 1.31423 1.34423 1.38423 1.52423 1.57423 1.56423 1.51423 1.44423
1649.276 1.42423 1.58423 1.80423 1.82423 1.88423 1.90423 2.00423 2.08423 2.00423 2.09423
1668.566 2.22423 2.26423 2.30423 2.56423 2.83423 2.91423 3.02423 3.29423 3.64423 3.88423
1687.856 4.08423 4.45423 4.95423 5.53423 6.27423 6.91423 7.71423 8.70423 9.55423 10.3742
1707.146 11.3142 12.3642 13.3242 14.1242 15.0042 15.9142 16.5542 16.9842 17.3742 17.9642
1726.435 18.8042 19.9042 21.5442 24.0142 27.5842 32.5842 39.5142 48.9842 61.1942 76.5242
1745.725 94.6242 114.694 135.434 155.634 174.064 188.954 198.734 201.964 197.674 185.864
1765.015 168.114 147.014 124.694 102.894 82.7442 65.7442 52.5242 42.8842 36.0942 31.3142
1784.305 27.9242 25.4442 23.4642 21.9442 20.6342 19.2342 17.9442 16.6742 15.3642 14.1342
1803.594 12.9242 11.7842 10.7242 9.75423 8.89423 8.12423 7.43423 6.83423 6.28423 5.68423
1822.884 5.06423 4.56423 4.16423 3.72423 3.40423 3.16423 2.84423 2.63423 2.48423 2.22423
1842.174 2.02423 1.92423 1.88423 1.79423 1.69423 1.62423 1.58423 1.47423 1.43423 1.50423
1861.464 1.55423 1.49423 1.32423 1.31423 1.22423 1.15423 1.20423 1.13423 1.09423 1.06423
1880.754 1.03423 1.04423 0.93733 0.89193 0.84333 0.78263 0.86463 0.84923 0.88543 0.91243
1900.043 0.84223 0.79303 0.74583 0.86413 0.85693 0.76813 0.82433 0.81413 0.82823 0.84283
1919.333 0.83343 0.79773 0.73133 0.74613 0.80723 0.82483 0.82353 0.90343 0.92413 0.90173
1938.623 0.84673 0.77953 0.73153 0.76503 0.73923 0.66743 0.68423 0.69243 0.70293 0.71823
1957.913 0.71693 0.60913 0.63043 0.71283 0.66233 0.68733 0.75533 0.69013 0.61713 0.67763
1977.202 0.73343 0.68733 0.62243 0.63213 0.75793 0.77793 0.74383 0.73203 0.71623 0.68753
1996.492 0.63653 0.65823 0.65963 0.67703 0.70883 0.68113 0.65463 0.66853 0.55823 0.55583
2015.782 0.66273 0.64273 0.64793 0.70163 0.71253 0.70833 0.69073 0.63373 0.60993 0.61643
2035.072 0.67543 0.67733 0.56503 0.56443 0.68343 0.71813 0.72173 0.64153 0.61083 0.61473
2054.362 0.54183 0.52773 0.49373 0.48553 0.44273 0.48263 0.57823 0.57533 0.62503 0.73093
2073.651 0.75843 0.69903 0.63293 0.59513 0.65933 0.65673 0.57173 0.52353 0.47253 0.55043
2092.941 0.52473 0.52883 0.63643 0.63433 0.63113 0.58183 0.57463 0.56363 0.56333 0.59223
2112.231 0.59883 0.65793 0.67633 0.60633 0.54073 0.51053 0.51783 0.46053 0.46623 0.59943
2131.521 0.63403 0.68083 0.77323 0.78963 0.71553 0.63143 0.76223 0.85743 0.77283 0.68653
2150.810 0.66813 0.70333 0.76293 0.81433 0.78503 0.77343 0.83093 0.79753 0.80003 0.80383
2170.100 0.75913 0.80193 0.78023 0.76273 0.86813 0.89883 0.88013 0.88063 0.80283 0.85793
2189.390 0.76093 0.66453 0.77913 0.78033 0.80993 0.78883 0.73493 0.84853 0.88423 0.85173
2208.680 0.77833 0.76023 0.89523 0.88093 0.84783 0.87203 0.79643 0.64043 0.64683 0.62633
2227.970 0.54073 0.61643 0.72633 0.71063 0.67143 0.66613 0.61493 0.47593 0.46963 0.59013
2247.259 0.55983 0.53403 0.55163 0.50253 0.53583 0.60523 0.61553 0.58373 0.63323 0.66523
2266.549 0.56583 0.57533 0.66703 0.65193 0.73323 0.76453 0.66033 0.58593 0.59533 0.66643
2285.839 0.64103 0.55533 0.53623 0.61723 0.62993 0.58313 0.58833 0.65183 0.64003 0.52713
2305.129 0.52793 0.63763 0.67893 0.68333 0.62573 0.63033 0.64773 0.60893 0.66643 0.74363
2324.418 0.75793 0.68873 0.67273 0.67473 0.64723 0.80193 0.86763 0.76723 0.80453 0.77173
2343.708 0.60763 0.62043 0.74613 0.77083 0.83933 0.89593 0.83373 0.84153 0.95253 0.96933
2362.998 0.90083 0.93303 0.96603 0.97123 0.90233 0.77563 0.73543 0.81533 0.83733 0.80993
2382.288 0.83423 0.90843 1.03423 0.99183 0.92813 1.03423 1.00013 0.90343 0.86603 0.85663
2401.578 0.80853 0.71923 0.84753 0.91363 0.81653 0.70983 0.82033 0.88383 0.78913 0.80933
2420.867 0.81753 0.77293 0.74563 0.83223 0.72843 0.67473 0.80783 0.81383 0.75293 0.79193
2440.157 0.81393 0.75943 0.75483 0.77813 0.80193 0.74543 0.65303 0.65293 0.73113 0.70103
2459.447 0.64433 0.72013 0.74883 0.72913 0.81213 0.86013 0.60693 0.57403 0.63963 0.57093
2478.737 0.61813 0.62713 0.63513 0.65903 0.63773 0.58793 0.48043 0.50343 0.72293 0.69993
2498.026 0.61513 0.63183 0.66283 0.69383 0.59163 0.44523 0.49703 0.54683 0.54333 0.53223
2517.316 0.49733 0.42583 0.41333 0.50533 0.47033 0.51283 0.49723 0.37533 0.44943 0.54893
2536.606 0.52073 0.51843 0.65233 0.71833 0.68113 0.64953 0.61123 0.56523 0.58093 0.57783
2555.896 0.48633 0.42433 0.45753 0.52983 0.54433 0.51943 0.61383 0.55753 0.61823 0.81053
2575.186 0.85263 0.86843 0.83683 0.92253 0.93133 0.97423 0.95723 0.79823 0.88073 1.01423
2594.475 1.10423 1.18423 1.04423 1.01423 1.20423 1.25423 1.11423 1.18423 1.34423 1.33423
2613.765 1.30423 1.38423 1.38423 1.27423 1.28423 1.26423 1.16423 1.19423 1.13423 1.01423
2633.055 1.06423 1.11423 1.11423 1.06423 1.16423 1.20423 1.05423 0.97583 0.93373 0.99653
2652.345 1.08423 1.13423 1.10423 1.11423 1.23423 1.24423 1.19423 1.19423 1.01423 0.99483
2671.634 1.09423 1.07423 1.08423 1.21423 1.31423 1.32423 1.40423 1.51423 1.49423 1.43423
2690.924 1.45423 1.49423 1.42423 1.32423 1.27423 1.14423 1.10423 1.15423 1.19423 1.22423
2710.214 1.36423 1.40423 1.33423 1.46423 1.49423 1.49423 1.43423 1.45423 1.67423 1.78423
2729.504 1.87423 1.88423 2.00423 2.23423 2.28423 2.29423 2.34423 2.31423 2.27423 2.21423
2748.794 2.01423 2.01423 2.14423 2.05423 1.95423 1.87423 1.91423 2.15423 2.10423 1.99423
2768.083 2.06423 2.02423 1.97423 2.08423 2.24423 2.29423 2.30423 2.32423 2.42423 2.39423
2787.373 2.45423 2.51423 2.54423 2.54423 2.61423 2.65423 2.55423 2.61423 2.81423 3.01423
2806.663 3.12423 3.12423 3.17423 3.32423 3.32423 3.55423 3.67423 3.74423 4.00423 4.19423
2825.953 4.42423 4.50423 4.49423 4.72423 5.05423 5.17423 5.34423 5.69423 5.91423 6.25423
2845.242 6.70423 6.95423 7.29423 7.86423 8.36423 8.89423 9.75423 10.7842 11.9442 13.4942
2864.532 15.5342 17.9642 21.1042 25.0042 29.8942 35.3342 40.5542 45.8242 50.9242 55.3642
2883.822 58.7142 60.5142 61.2042 61.2242 60.4542 58.6542 56.2842 53.9342 51.5142 49.5942
2903.112 48.1842 47.0142 45.9742 45.1942 44.9642 45.2042 45.5342 46.1442 47.3242 48.8442
2922.401 50.6142 52.8442 55.5642 58.6442 62.3042 66.3142 70.5342 75.0142 79.7142 84.4242
2941.691 88.5842 91.6042 94.2242 96.5842 99.0342 102.244 105.644 109.154 113.224 117.924
2960.981 123.004 128.364 133.284 137.254 140.184 141.324 140.104 137.154 133.164 127.634
2980.271 120.704 112.864 103.834 93.2442 82.3542 72.4842 63.4142 55.1942 47.9942 41.6842
2999.561 36.5042 32.4742 28.7642 25.4942 22.7342 20.0842 17.5142 15.3142 13.3042 11.4342
3018.850 10.0942 8.78423 7.74423 6.94423 6.31423 5.89423 5.53423 5.28423 4.94423 4.58423
3038.140 4.37423 4.25423 4.28423 4.16423 3.85423 3.83423 3.80423 3.55423 3.46423 3.46423
3057.430 3.25423 2.95423 2.86423 2.78423 2.66423 2.90423 3.00423 2.75423 2.55423 2.42423
3076.720 2.43423 2.57423 2.40423 2.13423 2.25423 2.30423 2.19423 2.26423 2.25423 2.19423
3096.009 2.06423 2.01423 2.08423 2.16423 2.09423 2.05423 2.01423 1.86423 1.83423 1.73423
3115.299 1.71423 1.69423 1.87423 2.14423 1.94423 1.81423 1.83423 1.79423 1.77423 1.68423
3134.589 1.63423 1.68423 1.80423 1.69423 1.60423 1.67423 1.62423 1.71423 1.76423 1.69423
3153.879 1.70423 1.58423 1.52423 1.52423 1.66423 1.91423 1.68423 1.44423 1.63423 1.83423
3173.169 1.63423 1.38423 1.57423 1.68423 1.68423 1.65423 1.65423 1.78423 1.75423 1.77423
3192.458 1.90423 1.85423 1.54423 1.22423 1.22423 1.23423 1.28423 1.50423 1.51423 1.40423
3211.748 1.37423 1.49423 1.53423 1.30423 1.28423 1.47423 1.25423 0.99583 1.09423 1.27423
3231.038 1.14423 1.24423 1.37423 1.11423 0.90883 0.95233 1.16423 1.14423 1.12423 1.07423
3250.328 1.06423 1.10423 0.90243 0.80123 0.64213 0.63283 0.88843 0.95603 0.98593 0.76493
3269.617 0.39293 0.47953 0.64773 0.52433 0.58533 0.65553 0.55233 0.58413 0.75823 0.82183
3288.907 0.70113 0.77973 0.81173 0.50213 0.38773 0.51123 0.52443 0.37733 0.58563 0.77723
3308.197 0.74483 0.64353 0.54103 0.49483 0.61793 0.77463 0.72273 0.76993 0.75263 0.45693
3327.487 0.19023 0.32573 0.46193 0.47443 0.60233 0.66873 0.69433 0.66533 0.45893 0.56143
3346.777 0.83543 0.86003 0.74263 0.53353 0.33223 0.49883 0.56833 0.54293 0.61453 0.48043
3366.066 0.53243 0.57513 0.41403 0.19133 0.13513 0.29103 0.37933 0.29483 0.17613 0.22113
3385.356 0.37353 0.64943 0.56773 0.30543 0.38853 0.45003 0.68103 0.65583 0.52803 0.68833
3404.646 0.67333 0.32333 0.19803 0.51093 0.51543 0.22483 0.20943 0.35143 0.56493 0.54673
3423.936 0.32053 0.43623 0.54783 0.60503 0.41173 0.42083 0.49713 0.22993 0.28283 0.57123
3443.225 0.46783 0.10503 0.21693 0.51873 0.65313 0.69303 0.51563 0.53483 0.72673 0.89943
3462.515 0.89743 0.67973 0.79193 0.81873 0.55733 0.59313 0.92443 0.98003 0.83563 0.91643
3481.805 1.10423 1.17423 1.34423 1.66423 1.86423 1.99423 1.88423 1.90423 1.89423 1.94423
3501.095 2.23423 2.11423 1.71423 1.35423 1.40423 1.60423 1.45423 1.31423 1.52423 1.60423
3520.385 1.55423 1.52423 1.43423 1.38423 1.37423 1.55423 1.79423 1.88423 1.76423 1.74423
3539.674 2.24423 2.88423 3.51423 4.32423 5.54423 7.57423 10.8742 15.7942 22.9642 31.9042
3558.964 41.4642 50.9242 59.1942 65.6742 69.1642 69.6842 67.5842 61.5742 53.8042 45.6542
3578.254 35.8542 25.5742 16.7442 10.8442 7.29423 4.80423 3.44423 2.81423 2.28423 1.85423
3597.544 1.52423 1.48423 1.34423 1.17423 1.30423 1.32423 1.10423 1.11423 1.02423 1.07423
3616.833 1.23423 1.30423 1.60423 1.45423 1.16423 1.08423 1.14423 1.07423 0.88013 0.97583
3636.123 0.92843 0.78833 0.56213 0.37863 0.51963 0.48073 0.25113 0.10993 0.25833 0.46623
3655.413 0.29503 0.25143 0.29893 0.16063 0.34353 0.56613 0.48633 0.32703 0.27833 0.35323
3674.703 0.33013 0.31883 0.40263 0.45353 0.45933 0.27683 0.42873 0.55493 0.29643 0.48663
3693.993 0.56053 0.31683 0.18223 0.31793 0.46813 0.29463 0.28803 0.40463 0.35483 0.23263
3713.282 0.10463 0.10483 0.25963 0.37063 0.43503 0.48003 0.35473 0.22993 0.34483 0.40553
3732.572 0.49703 0.72483 0.74203 0.54553 0.49763 0.57403 0.59323 0.49253 0.09945 0
3751.862 0.45723 0.30383 0.11873 0.52803 0.74923 0.60913 0.45713 0.54873 0.53123 0.37923
3771.152 0.19393 0.04335 0.010832 0.24703 0.40223 0.34423 0.38553 0.47073 0.42163 0.35213
3790.441 0.28643 0.19403 0.22693 0.29433 0.35403 0.26543 0.30703 0.43373 0.45943 0.43623
3809.731 0.26093 0.40923 0.59603 0.54403 0.61133 0.65823 0.61793 0.34633 0.36303 0.56423
3829.021 0.53993 0.39063 0.22873 0.37123 0.40563 0.40303 0.40723 0.27433 0.31213 0.44423
3848.311 0.33423 0.25673 0.41963 0.58493 0.55443 0.49263 0.40923 0.22853 0.32333 0.44353
3867.601 0.40213 0.16793 0.13553 0.44953 0.64203 0.64553 0.30043 0.32983 0.53673 0.59863
3886.890 0.52113 0.25113 0.27653 0.24493 0.19643 0.12713 0.20253 0.21533 0.16743 0.26373
3906.180 0.18403 0.30063 0.51163 0.59513 0.52603 0.34923 0.38263 0.53253 0.28083 0.12463
3925.470 0.49933 0.58223 0.59723 0.79803 0.65203 0.57233 0.69403 0.64713 0.56363 0.45183
3944.760 0.20013 0.27693 0.56343 0.55253 0.39933 0.33883 0.49673 0.56623 0.51993 0.51623
3964.049 0.50343 0.40333 0.36293 0.39603 0.26883 0.36963 0.49173 0.46513 0.45343 0.59533
3983.339 0.73243 0.74033 0.56113 0.26853 0.38373 0.58443 0.58963 0.64803 0.58073 0.42453
##END=
