##TITLE=2'-Benzyloxyacetophenone
##JCAMP-DX=4.24
##DATA TYPE=INFRARED SPECTRUM
##ORIGIN=EPA-IR VAPOR PHASE LIBRARY
##OWNER=SRD/NIST
Collection (C) 2018 copyright by the U.S. Secretary of Commerce
on behalf of the United States of America. All rights reserved.
##CAS REGISTRY NO=31165-67-0
##MOLFORM=C 15 H 14 O 2
##$NIST SOURCE=MSDC-IR
##STATE=gas
##XUNITS=1/CM
##YUNITS=ABSORBANCE
##XFACTOR=1.
##YFACTOR=0.001
##DELTAX=3.85796
##FIRSTX=551.7
##LASTX=4000.7
##FIRSTY=3.09
##MAXX=4000.7
##MINX=551.688
##MAXY=0.12998
##MINY=0
##NPOINTS=895
##XYDATA=(X++(Y..Y))
551.688 3.09 2.71 2.59 2.62 2.87 3.57 4.7 6.54 9.57 13.96
590.268 18.19 20.1 19.02 15.9 12.8621 10.87 9.88 9.72 10.01 9.87
628.847 8.73 6.99 5.47 4.48 3.81 3.52 3.58 3.83 4.34 5.23
667.427 6.52 8.22 10.42 13.13 16.55 21 25.68 28.62 28.32 25.6
706.006 22.58 20.39 19.41 19.78 21.82 25.77 30.97 36.74 43.23 50.98
744.586 59.8 67.43 68.77 60.55 46.8 33.64 23.55 16.61 12.2424 9.68
783.165 8.23 7.5 7.36 7.75 8.42 9.02 9.31 9.16 8.67 8.01
821.745 7.3 6.68 6.44 6.79 7.46 8.49 9.91 11.185 11.527 10.7
860.324 9.23 7.95 7.16 6.66 6.36 6.24 6.28 6.48 6.78 7.35
898.904 8.29 9.41 10.41 10.77 10.32 9.53 9.01 8.97 9.44 10.26
937.484 11.323 12.5632 14.04 15.99 18.5 21.37 23.94 25.79 26.89 27.53
976.063 28.24 29.28 30.57 32.27 34.64 37.74 41.43 45.35 48.97 51.35
1014.643 51.59 49.14 44.25 38.15 32.7 29.29 27.7 26.26 23.6 20.02
1053.222 17.12 15.96 16.65 18.41 19.6 19.02 16.74 13.95 11.877 10.57
1091.802 9.85 9.8 10.41 11.618 13.63 17.1 22.04 27.32 29.98 27.94
1130.381 22.35 16.36 12.4286 10.67 10.44 11.917 15.67 19.6 20.71 18.65
1168.961 15.57 14.49 15.83 18.18 20.9 24.38 29.73 37.81 48.77 62.82
1207.540 80.17 99.2 115.66 125.93 129.93 129.98 127.33 120.74 109.02 93.84
1246.120 79.06 67.45 59.53 54.54 51.58 50.78 52.94 58.95 68.87 80.68
1284.699 89.56 89.26 78.26 61.43 45.65 34.49 27.47 22.99 19.81 17.48
1323.279 16 15.34 15.33 15.85 17.07 19.29 22.92 28.47 35.16 40.52
1361.859 42.75 41.74 39.3 37.35 34.8 30.03 23.77 18.18 14.8 13.23
1400.438 12.7038 12.8213 13.39 14.41 15.77 17.51 19.69 22.68 27.29 34.86
1439.018 47.03 61.5 71.18 69.21 57.55 45.1 40.64 43.06 49.82 60.73
1477.597 72.14 76.29 68.83 53.87 41.01 33.15 27.06 20.98 15.37 12.075
1516.177 10.29 9.26 8.6 8.19 7.97 7.92 8 8.21 8.59 9.3
1554.756 10.4 12.0936 14.65 18.2 22.71 27.08 30.62 33.52 37.79 44.89
1593.336 52.24 54.3 48.26 36.93 25.75 18.23 13.94 11.533 10.22 9.42
1631.915 8.96 8.75 8.8 9.14 9.81 10.83 12.2264 13.73 15.49 17.57
1670.495 20.26 23.88 28.89 35.89 46.46 60.96 78.79 95.24 102.85 98.3
1709.075 84.66 69.56 56.22 45.02 36.1 29 23.63 19.44 16.29 13.75
1747.654 11.739 10.06 8.77 7.76 6.99 6.47 6.18 6 5.87 5.79
1786.234 5.82 5.97 6.17 6.21 5.94 5.49 5.07 4.73 4.5 4.28
1824.813 4.02 3.78 3.57 3.41 3.31 3.26 3.27 3.36 3.48 3.62
1863.393 3.76 3.86 3.94 4.01 4.06 4.06 4.01 3.92 3.87 3.91
1901.972 4.01 4.12 4.17 4.15 4.12 4.11 4.19 4.43 4.77 5.09
1940.552 5.26 5.21 5 4.75 4.51 4.21 3.79 3.32 2.96 2.75
1979.131 2.65 2.61 2.59 2.57 2.58 2.63 2.69 2.75 2.82 2.89
2017.711 2.92 2.88 2.82 2.74 2.67 2.62 2.57 2.51 2.46 2.41
2056.291 2.34 2.26 2.19 2.12 2.08 2.05 2.02 2.02 2.01 1.95
2094.870 1.85 1.76 1.67 1.58 1.47 1.38 1.33 1.29 1.24 1.23
2133.450 1.23 1.22 1.21 1.19 1.17 1.15 1.17 1.18 1.19 1.22
2172.029 1.25 1.28 1.27 1.24 1.25 1.23 1.18 1.15 1.14 1.15
2210.609 1.15 1.14 1.11 1.09 1.13 1.17 1.15 1.17 1.2 1.22
2249.188 1.23 1.26 1.26 1.27 1.3 1.31 1.33 1.38 1.45 1.5
2287.768 1.53 1.56 1.58 1.56 1.54 1.59 1.66 1.72 1.74 1.7
2326.347 1.62 1.51 1.47 1.45 1.39 1.32 1.3 1.27 1.23 1.23
2364.927 1.21 1.18 1.18 1.2 1.21 1.24 1.29 1.35 1.36 1.38
2403.507 1.4 1.39 1.41 1.44 1.47 1.48 1.48 1.49 1.53 1.57
2442.086 1.58 1.6 1.66 1.67 1.64 1.6 1.56 1.48 1.4 1.35
2480.666 1.29 1.26 1.28 1.28 1.24 1.22 1.21 1.23 1.24 1.24
2519.245 1.26 1.27 1.25 1.25 1.2 1.17 1.17 1.16 1.16 1.15
2557.825 1.14 1.12 1.15 1.18 1.2 1.23 1.19 1.15 1.13 1.09
2596.404 1.03 1.01 0.97 0.91 0.87 0.84 0.79 0.73 0.76 0.83
2634.984 0.87 0.88 0.88 0.85 0.86 0.86 0.88 0.92 0.93 0.95
2673.563 0.96 0.95 0.93 0.91 0.92 0.94 0.98 1.01 1.02 1.04
2712.143 1.07 1.12 1.18 1.21 1.22 1.2 1.15 1.18 1.17 1.09
2750.722 1.02 0.99 0.98 0.95 0.96 0.99 1.04 1.08 1.09 1.12
2789.302 1.16 1.2 1.28 1.4 1.53 1.7 1.88 2.04 2.2 2.35
2827.882 2.53 2.75 2.99 3.27 3.52 3.7 3.97 4.41 4.96 5.7
2866.461 6.73 7.99 9.32 10.49 11.259 11.434 11.03 10.39 9.83 9.46
2905.041 9.36 9.46 9.73 10.09 10.53 11.06 11.649 12.2603 12.7788 13.1
2943.620 13.17 12.9937 12.6244 11.958 11.078 10.21 9.42 8.72 8.1 7.57
2982.200 7.2 7.01 7.03 7.24 7.71 8.43 9.24 10.11 11.113 12.3935
3020.779 14.25 16.95 20.29 23.45 25.33 25.14 23.18 20.76 19.29 19.49
3059.359 21.48 25.28 30.83 36.58 39.84 38.46 32.82 25.77 19.94 16.31
3097.938 14.08 12.2236 10.42 8.78 7.28 5.81 4.54 3.64 3.01 2.51
3136.518 2.18 2.04 1.94 1.86 1.73 1.59 1.48 1.36 1.24 1.11
3175.098 1.03 0.92 0.78 0.69 0.65 0.6 0.55 0.51 0.49 0.44
3213.677 0.38 0.35 0.35 0.36 0.32 0.28 0.28 0.35 0.36 0.31
3252.257 0.29 0.26 0.23 0.27 0.34 0.34 0.31 0.34 0.35 0.33
3290.836 0.35 0.27 0.23 0.24 0.29 0.32 0.3 0.3 0.35 0.37
3329.416 0.34 0.38 0.46 0.51 0.57 0.61 0.69 0.75 0.78 0.88
3367.995 1.08 1.3 1.43 1.53 1.59 1.54 1.47 1.38 1.27 1.21
3406.575 1.11 0.94 0.79 0.73 0.7 0.61 0.56 0.51 0.45 0.42
3445.154 0.39 0.35 0.33 0.3 0.26 0.25 0.24 0.21 0.21 0.27
3483.734 0.28 0.25 0.23 0.21 0.2 0.16 0.16 0.19 0.22 0.17
3522.314 0.15 0.15 0.1 0.15 0.13 0.12 0.12 0.11 0.12 0.12
3560.893 0.15 0.17 0.15 0.13 0.13 0.18 0.21 0.15 0.14 0.21
3599.473 0.2 0.15 0.13 0.16 0.18 0.17 0.17 0.25 0.29 0.29
3638.052 0.29 0.24 0.26 0.33 0.3 0.27 0.31 0.32 0.29 0.27
3676.632 0.26 0.3 0.34 0.33 0.27 0.23 0.22 0.28 0.32 0.27
3715.211 0.24 0.22 0.21 0.19 0.16 0.14 0.14 0.17 0.09 0.01
3753.791 0.04 0.05 0.02 0 0.08 0.15 0.13 0.15 0.14 0.15
3792.370 0.16 0.12 0.09 0.19 0.25 0.21 0.2 0.2 0.22 0.25
3830.950 0.2 0.11 0.14 0.24 0.26 0.27 0.33 0.38 0.4 0.42
3869.530 0.44 0.47 0.52 0.51 0.49 0.47 0.46 0.45 0.38 0.33
3908.109 0.35 0.35 0.3 0.28 0.26 0.32 0.36 0.31 0.33 0.35
3946.689 0.36 0.31 0.3 0.33 0.31 0.25 0.26 0.32 0.29 0.27
3985.268 0.29 0.33 0.35 0.32 0.29
##END=
