##TITLE=1-Naphthyl butyrate
##JCAMP-DX=4.24
##DATA TYPE=INFRARED SPECTRUM
##ORIGIN=EPA-IR VAPOR PHASE LIBRARY
##OWNER=SRD/NIST
Collection (C) 2018 copyright by the U.S. Secretary of Commerce
on behalf of the United States of America. All rights reserved.
##CAS REGISTRY NO=3121-70-8
##MOLFORM=C 14 H 14 O 2
##$NIST SOURCE=MSDC-IR
##STATE=gas
##XUNITS=1/CM
##YUNITS=ABSORBANCE
##XFACTOR=1.
##YFACTOR=0.001
##DELTAX=1.92934
##FIRSTX=549.9
##LASTX=3999.5
##FIRSTY=10.12
##MAXX=3999.53
##MINX=549.863
##MAXY=0.18398
##MINY=0
##NPOINTS=1789
##XYDATA=(X++(Y..Y))
549.863 10.12 10.49 10.65 10.48 10.03 9.72 9.31 8.71 8.29 8.03
569.156 7.59 7.06 6.85 6.59 6.14 5.9 5.79 5.59 5.3 5.15
588.450 5.12 4.89 4.6 4.5 4.47 4.4 4.4 4.46 4.39 4.35
607.743 4.4 4.45 4.42 4.39 4.33 4.24 4.21 4.06 3.88 3.82
627.037 3.73 3.5982 3.516 3.3715 3.3245 3.3524 3.2828 3.2761 3.3172 3.3245
646.330 3.2923 3.2577 3.2447 3.2447 3.1508 3.149 3.1262 3.0172 2.8684 2.76376
665.624 2.74579 2.75117 2.7967 2.7929 2.8906 2.9567 2.8485 2.68859 2.6683 2.75641
684.917 2.8585 2.9153 2.9981 3.091 3.0771 3.0047 3.0281 3.1263 3.2519 3.3093
704.210 3.389 3.5649 3.77 4.01 4.28 4.58 4.88 5.3 5.7 6.01
723.504 6.34 6.54 6.58 6.64 6.71 6.79 6.84 6.99 7.35 7.89
742.797 8.81 10.07 11.84 14.45 18.06 23.06 29.64 37.62 46.49 55.95
762.091 65.87 75.52 80.83 78.77 73.15 66.84 59.6 52.44 46.3 41.54
781.384 38.34 36.12 34.24 32.69 31.52 30.45 29.3 27.8 25.88 23.88
800.678 21.93 20.02 18.44 17.05 15.6 14.36 13.25 12.14 11.12 10.33
819.971 9.65 9.07 8.75 8.53 8.4 8.54 8.7 8.86 9.15 9.42
839.264 9.64 9.78 9.8 9.83 9.77 9.71 9.86 10.03 10.26 10.73
858.558 11.23 11.69 12.12 12.22 11.95 11.51 10.97 10.39 9.93 9.67
877.851 9.63 9.78 10.06 10.42 10.66 10.74 10.78 10.77 10.75 10.78
897.145 10.99 11.4 11.86 12.53 13.41 14.54 16.02 17.72 19.5 21.26
916.438 22.73 23.54 23.59 22.94 21.65 19.79 17.69 15.58 13.6 11.85
935.732 10.32 9.05 7.95 7.02 6.4 5.93 5.56 5.35 5.29 5.32
955.025 5.34 5.37 5.49 5.61 5.42 5.08 4.86 4.71 4.62 4.54
974.318 4.45 4.38 4.44 4.6 4.71 4.86 5.12 5.36 5.7 6.23
993.612 6.91 7.78 9.01 10.7 12.87 15.52 18.45 21.27 23.74 25.69
1012.905 26.88 27.23 26.67 25.34 23.76 22.18 20.69 19.66 19.28 19.59
1032.199 20.6 22.36 24.72 27.37 29.79 31.59 32.74 33.18 32.95 32.3
1051.492 31.64 31.16 31.04 31.42 32.11 33.11 34.47 35.98 37.71 39.9
1070.786 42.79 46.68 51.91 58.68 66.91 76.25 85.93 95.14 103.08 109.2
1090.079 113.19 115.09 115.16 113.66 110.95 107.38 103.24 98.9 94.61 90.72
1109.372 87.53 85.44 84.74 85.3 87.21 90.37 94.71 100.31 107.16 115.2
1128.666 124.22 134.15 144.53 154.78 164.37 172.65 178.94 182.75 183.98 182.95
1147.959 179.95 174.49 165.62 154.25 142.48 131.36 121.58 114 110.12 109.83
1167.253 111.64 114.38 116.89 117.75 116.77 114.75 111.95 108.26 103.3 97.32
1186.546 90.74 83.92 77.38 71.38 65.98 61.43 57.68 54.74 52.87 52
1205.840 52.19 53.43 55.54 58.72 63.78 71.51 81.37 91.5 99.66 104.22
1225.133 104.3 99.62 90.31 77.81 65.44 56.12 50.45 47.37 45.72 44.89
1244.426 44.5 44.43 44.93 45.97 46.9 46.82 45.5 43.31 40.39 36.52
1263.720 32.03 28.25 25.79 24.23 23.03 22.1 21.37 20.9 20.8 20.88
1283.013 21.15 21.51 21.91 22.24 22.46 22.62 22.68 22.55 22.23 21.83
1302.307 21.23 20.47 19.58 18.6 17.64 16.7 15.85 15.14 14.54 14.09
1321.600 13.85 13.73 13.72 13.98 14.53 15.31 16.31 17.55 18.99 20.57
1340.894 22.21 23.84 25.49 26.99 28.25 29.46 30.53 31.3 31.87 32.11
1360.187 31.92 31.39 30.62 29.8 29.05 28.5 28.42 28.94 30.14 31.89
1379.480 34.01 36.33 38.98 42.25 45.98 49.36 51.16 50.7 48.21 44.28
1398.774 38.81 32.22 26.07 21.42 18.55 16.85 15.87 15.33 15.1 14.96
1418.067 14.88 14.97 15.08 15.09 15.16 15.2 15.18 15.3 15.59 16.06
1437.361 16.67 17.32 17.83 18.1 18.07 17.79 17.51 17.32 17.47 18.13
1456.654 19.41 21.11 22.51 23.26 23.24 22.4 20.91 18.99 16.79 14.68
1475.948 13.03 11.71 10.77 10.15 9.65 9.32 9.28 9.35 9.58 10.1
1495.241 10.85 11.89 13.27 14.92 16.5 17.64 18.28 18.25 17.51 16.16
1514.534 14.21 11.92 9.87 8.28 7.08 6.38 5.89 5.51 5.23 5.06
1533.828 4.91 4.83 4.74 4.59 4.56 4.56 4.67 4.73 4.78 4.97
1553.121 5.25 5.62 6.04 6.72 7.82 9.11 10.63 12.36 14.11 15.82
1572.415 17.35 18.34 18.77 18.77 18.22 17.28 16.43 16.03 16.28 17.13
1591.708 18.43 19.84 20.83 21.04 20.31 18.74 16.45 13.67 10.95 8.91
1611.002 7.53 6.66 6.25 6.01 6 6.19 6.42 6.68 6.87 7.08
1630.295 7.3 7.26 7.08 6.86 6.68 6.44 6.07 5.72 5.47 5.29
1649.588 5.17 5.07 5.01 5.09 5.1 5.01 5 5.1 5.18 5.14
1668.882 5.17 5.29 5.34 5.34 5.46 5.63 5.73 5.65 5.6 5.65
1688.175 5.59 5.47 5.39 5.33 5.26 5.28 5.29 5.43 5.77 6.11
1707.469 6.41 6.72 7 7.31 7.55 7.79 8.18 8.58 8.99 9.5
1726.762 10.19 10.92 11.7 12.52 13.53 14.67 15.81 17.09 18.46 19.99
1746.056 21.63 23.4 25.38 27.58 30.06 32.95 36.47 40.75 46.33 53.52
1765.349 62.29 72.92 85.32 98.3 111.31 122.61 130.9 134.87 133.06 125.49
1784.642 113.69 100.11 86.42 73.3 61.43 51.42 43.43 36.98 31.98 28.09
1803.936 25.02 22.57 20.46 18.52 16.85 15.34 14.04 12.92 11.95 11.11
1823.229 10.33 9.71 9.21 8.71 8.26 7.92 7.65 7.32 7.03 6.91
1842.523 6.74 6.52 6.27 5.93 5.68 5.46 5.18 4.85 4.59 4.42
1861.816 4.24 4.03 3.86 3.82 3.79 3.6627 3.5799 3.5292 3.5102 3.5178
1881.110 3.4905 3.4736 3.4991 3.5597 3.6648 3.77 3.92 4.11 4.39 4.66
1900.403 4.93 5.24 5.53 5.87 6.13 6.36 6.63 6.75 6.73 6.6
1919.696 6.38 6.09 5.8 5.51 5.26 5.1 5.02 5.02 5.01 4.94
1938.990 4.97 5.03 4.94 4.82 4.64 4.37 4.17 4 3.78 3.5983
1958.283 3.4068 3.3015 3.267 3.2055 3.1314 2.9834 2.9107 2.9508 2.9154 2.8957
1977.577 2.9452 2.9521 2.9302 2.9089 2.9182 2.9101 2.9706 3.03 2.9675 2.9994
1996.870 3.0285 2.9682 2.9579 3.008 2.9953 2.9486 2.9545 2.9427 2.9218 2.8813
2016.164 2.852 2.8266 2.76034 2.71766 2.68681 2.6374 2.5905 2.544 2.535 2.574
2035.457 2.552 2.516 2.53 2.563 2.571 2.527 2.523 2.542 2.522 2.495
2054.750 2.467 2.5 2.566 2.568 2.556 2.515 2.448 2.437 2.422 2.406
2074.044 2.426 2.391 2.377 2.377 2.358 2.347 2.321 2.275 2.22 2.235
2093.337 2.237 2.129 2.086 2.131 2.132 2.098 2.068 2.097 2.103 2.075
2112.631 2.068 2.024 1.996 1.952 1.88 1.86 1.86 1.883 1.884 1.856
2131.924 1.865 1.863 1.819 1.741 1.715 1.719 1.744 1.774 1.741 1.738
2151.218 1.691 1.69 1.756 1.777 1.772 1.727 1.731 1.764 1.776 1.797
2170.511 1.814 1.811 1.754 1.762 1.786 1.76 1.796 1.814 1.794 1.76
2189.804 1.777 1.86 1.844 1.813 1.84 1.849 1.88 1.86 1.825 1.824
2209.098 1.835 1.833 1.811 1.793 1.764 1.759 1.771 1.787 1.83 1.86
2228.391 1.921 1.879 1.798 1.825 1.872 1.912 1.861 1.824 1.857 1.88
2247.685 1.871 1.909 1.951 1.946 1.963 2.02 2.052 2.019 1.983 1.93
2266.978 1.893 1.889 1.912 1.919 1.924 1.966 1.992 2.015 2 1.969
2286.272 2.013 2.05 2.052 2.058 2.044 2.033 2.043 2.077 2.127 2.176
2305.565 2.229 2.252 2.233 2.229 2.192 2.126 2.074 2.033 2.032 2.006
2324.858 1.965 1.944 1.883 1.874 1.884 1.854 1.858 1.88 1.786 1.706
2344.152 1.734 1.704 1.66 1.65 1.58 1.53 1.59 1.6 1.57 1.59
2363.445 1.56 1.5 1.52 1.55 1.58 1.68 1.705 1.67 1.64 1.66
2382.739 1.64 1.59 1.6 1.64 1.63 1.62 1.65 1.68 1.66 1.63
2402.032 1.63 1.64 1.65 1.67 1.703 1.729 1.773 1.828 1.862 1.876
2421.326 1.856 1.819 1.791 1.805 1.796 1.736 1.713 1.714 1.68 1.64
2440.619 1.58 1.6 1.62 1.58 1.56 1.56 1.54 1.54 1.58 1.57
2459.912 1.49 1.46 1.47 1.45 1.41 1.41 1.42 1.43 1.45 1.43
2479.206 1.43 1.44 1.47 1.47 1.45 1.49 1.46 1.45 1.47 1.44
2498.499 1.42 1.41 1.42 1.42 1.43 1.47 1.52 1.49 1.4 1.38
2517.793 1.43 1.4 1.36 1.35 1.34 1.35 1.34 1.34 1.32 1.31
2537.086 1.33 1.33 1.3 1.36 1.4 1.36 1.31 1.28 1.26 1.25
2556.380 1.28 1.3 1.31 1.31 1.23 1.23 1.24 1.19 1.19 1.19
2575.673 1.2 1.18 1.15 1.17 1.18 1.18 1.19 1.21 1.23 1.26
2594.966 1.29 1.27 1.22 1.29 1.41 1.4 1.34 1.33 1.27 1.22
2614.260 1.21 1.22 1.26 1.25 1.19 1.13 1.18 1.23 1.19 1.21
2633.553 1.2 1.17 1.17 1.14 1.09 1.09 1.11 1.11 1.14 1.2
2652.847 1.21 1.2 1.26 1.29 1.27 1.3 1.27 1.26 1.25 1.21
2672.140 1.27 1.32 1.32 1.29 1.32 1.43 1.42 1.33 1.36 1.39
2691.434 1.38 1.34 1.29 1.35 1.39 1.41 1.4 1.32 1.3 1.34
2710.727 1.34 1.29 1.29 1.38 1.43 1.36 1.33 1.32 1.25 1.26
2730.020 1.29 1.33 1.36 1.35 1.35 1.36 1.35 1.39 1.45 1.5
2749.314 1.5 1.49 1.48 1.52 1.46 1.47 1.5 1.41 1.49 1.52
2768.607 1.42 1.42 1.53 1.53 1.47 1.44 1.42 1.5 1.6 1.65
2787.901 1.63 1.62 1.63 1.68 1.793 1.801 1.698 1.759 1.849 1.878
2807.194 2.006 2.174 2.217 2.171 2.254 2.295 2.39 2.476 2.454 2.5915
2826.488 2.75385 2.78316 2.8422 2.9204 2.9674 2.9669 3.0263 3.234 3.4057 3.5006
2845.781 3.7 3.87 3.94 4.13 4.47 4.73 4.82 5.05 5.39 5.77
2865.074 6.33 6.98 7.83 8.79 9.84 11.02 12.45 14.06 15.56 16.98
2884.368 18.21 18.89 18.89 18.44 17.64 16.56 15.59 14.78 14.08 13.61
2903.661 13.39 13.46 13.46 13.69 14.13 14.54 14.97 15.47 16.04 16.49
2922.955 17.15 17.93 18.9 20.02 21.23 22.85 24.74 26.86 29.1 31.3
2942.248 33.36 34.77 35.46 35.63 35.34 34.77 34.11 33.57 33.48 33.98
2961.542 34.77 35.87 37.57 39.59 41.8 44.1 46.07 47.27 47.45 46.73
2980.835 44.86 41.97 38.56 34.87 31.18 27.84 24.63 21.78 19.49 17.48
3000.128 15.72 14.34 13.36 12.54 11.87 11.3 10.99 10.71 10.34 9.99
3019.422 9.7 9.46 9.22 9.14 9.06 9 9.09 9.4 10.04 10.73
3038.715 11.49 12.35 13.43 14.88 16.77 19.28 22.67 27.02 32.06 37.19
3058.009 41.78 45.42 47.73 48.42 47.24 44.49 41 37.51 33.94 30.32
3077.302 27.13 24.63 22.81 21.5 20.44 19.25 18.2 17.09 15.92 14.99
3096.596 13.72 12.34 10.89 9.44 8.05 6.68 5.62 4.74 3.97 3.3206
3115.889 2.8399 2.445 2.172 2.048 1.842 1.789 1.705 1.54 1.44 1.34
3135.182 1.2 1.05 1.06 1.03 0.96 0.92 1.06 1.17 1 0.93
3154.476 1 0.97 0.95 1.12 1.25 1.19 1.1 1.07 0.95 0.77
3173.769 0.88 0.9 0.86 0.87 0.75 0.63 0.52 0.47 0.47 0.59
3193.063 0.6 0.56 0.53 0.55 0.64 0.51 0.27 0.27 0.38 0.4
3212.356 0.41 0.41 0.39 0.31 0.36 0.58 0.55 0.26 0.26 0.4
3231.650 0.39 0.46 0.42 0.36 0.35 0.24 0.19 0.22 0.18 0.05
3250.943 0.09 0.25 0.26 0.22 0.3 0.34 0.31 0.25 0.03 0
3270.236 0.19 0.24 0.25 0.35 0.38 0.3 0.28 0.16 0.12 0.2
3289.530 0.14 0.1 0.19 0.27 0.23 0.21 0.15 0.17 0.2 0.21
3308.823 0.26 0.25 0.29 0.28 0.2 0.23 0.32 0.35 0.2 0.04
3328.117 0.2 0.37 0.25 0.22 0.34 0.39 0.43 0.47 0.3 0.15
3347.410 0.27 0.47 0.57 0.49 0.3 0.33 0.42 0.45 0.49 0.45
3366.704 0.6 0.62 0.51 0.59 0.47 0.31 0.26 0.28 0.45 0.62
3385.997 0.69 0.74 0.77 0.68 0.68 0.68 0.57 0.48 0.41 0.5
3405.290 0.58 0.59 0.58 0.41 0.55 0.66 0.53 0.69 0.83 0.63
3424.584 0.45 0.62 0.67 0.62 0.65 0.59 0.68 0.82 0.78 0.7
3443.877 0.62 0.61 0.62 0.76 0.92 0.84 0.79 0.61 0.63 0.81
3463.171 0.77 0.66 0.66 0.81 0.84 0.94 0.94 0.85 0.84 0.73
3482.464 0.74 0.98 1.13 1.11 1.13 1.21 1.17 1.22 1.2 1.15
3501.758 1.33 1.41 1.39 1.4 1.51 1.55 1.65 1.759 1.702 1.65
3521.051 1.746 1.976 2.09 2.144 2.233 2.371 2.371 2.403 2.442 2.331
3540.344 2.36 2.344 2.318 2.24 2.054 1.896 1.842 1.771 1.71 1.61
3559.638 1.45 1.61 1.831 1.59 1.4 1.46 1.5 1.42 1.31 1.34
3578.931 1.44 1.45 1.33 1.38 1.35 1.31 1.31 1.22 1.35 1.45
3598.225 1.37 1.33 1.28 1.25 1.28 1.33 1.36 1.42 1.37 1.27
3617.518 1.34 1.48 1.57 1.42 1.22 1.17 1.22 1.33 1.34 1.1
3636.812 1.05 1.13 1.16 1.35 1.51 1.49 1.33 1.18 1.22 1.35
3656.105 1.3 1.29 1.35 1.39 1.34 1.27 1.24 1.27 1.36 1.35
3675.398 1.39 1.32 1.25 1.3 1.34 1.42 1.48 1.4 1.34 1.32
3694.692 1.27 1.25 1.23 1.13 1.19 1.33 1.29 1.27 1.25 1.24
3713.985 1.21 1.23 1.39 1.41 1.35 1.27 1.24 1.23 1.21 1.25
3733.279 1.39 1.55 1.46 1.36 1.31 1.15 1.12 1.28 1.32 1.33
3752.572 1.3 1.23 1.37 1.39 1.36 1.35 1.47 1.61 1.51 1.41
3771.866 1.37 1.38 1.38 1.34 1.29 1.43 1.5 1.44 1.5 1.53
3791.159 1.62 1.723 1.717 1.67 1.65 1.6 1.51 1.55 1.58 1.67
3810.452 1.747 1.745 1.834 1.827 1.823 1.73 1.69 1.66 1.59 1.64
3829.746 1.717 1.774 1.708 1.66 1.67 1.829 1.904 1.824 1.87 1.97
3849.039 1.867 1.75 1.761 1.845 1.909 2.002 1.981 1.889 1.908 1.801
3868.333 1.65 1.57 1.56 1.55 1.63 1.712 1.67 1.698 1.69 1.64
3887.626 1.64 1.63 1.693 1.709 1.697 1.69 1.7 1.717 1.778 1.72
3906.920 1.758 1.786 1.725 1.702 1.724 1.782 1.738 1.775 1.748 1.721
3926.213 1.707 1.693 1.745 1.695 1.68 1.773 1.754 1.76 1.786 1.711
3945.506 1.65 1.67 1.728 1.718 1.67 1.65 1.59 1.62 1.738 1.736
3964.800 1.88 2.024 1.905 1.823 1.747 1.67 1.723 1.759 1.804 1.706
3984.093 1.64 1.763 1.775 1.698 1.67 1.62 1.725 1.814 1.728
##END=
