##TITLE=(Chloromethyl)dimethylsilane
##JCAMP-DX=4.24
##DATA TYPE=INFRARED SPECTRUM
##ORIGIN=EPA-IR VAPOR PHASE LIBRARY
##OWNER=SRD/NIST
Collection (C) 2018 copyright by the U.S. Secretary of Commerce
on behalf of the United States of America. All rights reserved.
##CAS REGISTRY NO=3121-77-5
##MOLFORM=C3 H9 Cl Si
##$NIST SOURCE=MSDC-IR
##STATE=gas
##XUNITS=1/CM
##YUNITS=ABSORBANCE
##XFACTOR=1.
##YFACTOR=0.001
##DELTAX=1.92898
##FIRSTX=549.8
##LASTX=4000.7
##FIRSTY=1.5268
##MAXX=4000.7
##MINX=549.759
##MAXY=0.115692
##MINY=0
##NPOINTS=1790
##XYDATA=(X++(Y..Y))
549.759 1.5268 0.6148 0.685771 1.1181 1.2744 1.772 1.538 1.5175 1.922 1.4191
569.049 0.86 1.2105 1.752 1.2558 1.281 1.702 1.802 1.6277 1.5382 2.112
588.339 2.482 2.002 1.822 1.802 1.3615 1.4773 2.372 3.022 3.692 4.632
607.628 5.092 6.252 8.052 9.732 11.392 12.682 14.372 16.622 18.452 20.742
626.918 21.952 22.222 22.572 22.692 22.312 20.772 18.992 16.332 13.872 12.702
646.208 11.472 10.262 9.702 9.992 10.382 10.542 10.332 10.852 11.422 11.652
665.498 11.972 12.012 12.202 12.322 12.372 12.762 13.092 13.072 13.862 15.312
684.787 15.922 16.192 17.652 19.042 19.902 20.932 21.632 22.582 23.522 24.372
704.077 24.882 25.132 25.692 25.332 24.632 24.072 23.102 22.342 21.582 20.762
723.367 20.252 19.282 18.562 18.032 17.282 17.282 17.552 17.572 17.882 18.132
742.657 18.592 19.412 19.662 20.262 20.562 20.512 20.942 20.982 20.772 21.052
761.947 21.802 22.522 23.312 24.422 25.542 27.172 29.362 31.712 34.242 37.262
781.236 40.642 43.522 46.652 50.142 53.682 56.832 58.862 60.402 61.582 62.822
800.526 64.042 65.122 66.222 67.222 68.182 69.632 72.062 74.702 76.772 78.492
819.816 80.912 85.642 90.632 94.012 98.142 102.222 106.162 110.212 113.072 114.692
839.106 115.692 114.942 111.982 107.922 102.332 95.062 87.782 80.392 72.802 65.662
858.395 58.582 52.492 46.952 41.722 37.232 34.052 31.572 29.022 26.732 24.282
877.685 22.562 21.212 19.772 18.972 17.762 16.262 15.042 14.172 13.442 12.452
896.975 11.852 10.792 9.652 9.032 9.132 9.102 8.162 7.572 7.182 7.392
916.265 7.182 6.172 5.702 5.682 5.622 5.522 5.572 5.002 4.542 4.892
935.555 4.782 4.842 5.182 5.222 6.082 6.752 6.842 7.722 8.522 9.452
954.844 10.322 10.902 12.242 13.552 14.332 14.712 14.482 14.032 13.792 13.312
974.134 12.472 11.552 10.232 9.642 9.662 9.482 9.292 9.062 9.182 9.892
993.424 10.902 12.102 12.992 13.622 14.932 16.262 16.972 17.182 17.572 17.472
1012.714 17.322 17.152 16.182 14.872 13.032 11.582 10.202 8.502 7.062 5.382
1032.003 4.122 3.572 3.152 3.012 2.582 2.432 2.472 2.372 2.232 2.132
1051.293 2.172 2.142 2.162 2.582 2.202 1.3113 1.4543 1.982 1.882 1.3134
1070.583 1.1007 0.9763 0.092 0 1.0492 1.1646 1.3091 1.802 0.9373 0.791
1089.873 2.032 2.512 2.552 2.182 2.482 2.442 2.472 4.332 3.772 2.422
1109.163 2.292 2.132 3.702 3.702 2.582 2.972 1.536 0.917 1.4924 0.6197
1128.452 0.6716 1.2836 1.722 2.442 2.472 1.4944 1.3355 1.2201 0.74455 0.369
1147.742 0.555 1.4422 1.682 1.822 1.762 2.172 3.352 3.412 3.532 4.392
1167.032 4.492 4.422 4.942 5.152 5.172 5.542 5.822 5.182 5.022 5.152
1186.322 4.772 5.102 4.332 3.942 3.422 3.182 3.602 3.162 2.452 1.792
1205.611 2.362 2.772 4.322 6.052 6.552 6.152 5.962 7.072 7.622 9.282
1224.901 9.752 10.092 11.342 11.962 13.802 14.952 16.862 19.492 21.572 24.482
1244.191 28.102 31.792 35.122 38.472 42.142 44.852 47.142 49.642 50.642 50.642
1263.481 50.652 48.552 45.232 41.792 37.662 33.692 29.342 24.642 20.972 18.192
1282.771 14.912 11.852 9.982 8.672 7.812 7.452 6.932 6.142 5.592 5.222
1302.060 4.982 4.782 4.282 4.132 4.172 3.892 3.722 3.722 3.652 3.532
1321.350 3.262 3.092 3.282 3.052 2.802 2.932 2.952 2.992 3.172 3.282
1340.640 3.182 2.982 2.872 2.832 2.832 2.962 3.272 3.422 3.342 3.412
1359.930 3.572 3.612 3.662 3.642 3.872 4.252 4.462 4.772 5.222 5.842
1379.219 6.382 6.882 7.682 8.552 9.582 10.652 11.782 12.982 14.032 14.872
1398.509 15.482 16.232 16.612 16.782 16.772 16.442 16.292 15.992 15.272 14.552
1417.799 13.882 13.202 12.782 12.252 11.562 10.872 10.022 9.402 8.972 8.432
1437.089 7.862 7.252 6.952 6.722 6.302 6.112 6.172 6.432 6.522 6.502
1456.378 6.562 6.642 6.832 7.092 7.112 7.022 6.912 6.612 6.302 6.112
1475.668 5.922 5.422 5.052 4.952 4.672 4.192 3.922 3.532 3.212 3.332
1494.958 3.082 2.732 2.652 2.592 2.602 2.322 2.182 2.392 2.462 2.332
1514.248 1.962 1.872 2.092 1.942 1.802 2.022 2.092 1.922 1.942 2.012
1533.538 1.822 1.702 1.752 1.5616 1.692 1.822 1.6571 1.722 1.762 1.6413
1552.827 1.4428 1.4214 1.4763 1.3797 1.3672 1.4742 1.6312 1.762 1.4327 1.1958
1572.117 1.5646 1.6245 1.5147 1.3756 1.249 1.4579 1.516 1.4415 1.4001 1.3275
1591.407 1.2429 1.4578 1.702 1.5969 1.2447 1.41 1.6456 1.6219 1.6124 1.3406
1610.697 1.3982 1.5243 1.3247 1.2281 1.3471 1.5419 1.5349 1.2512 1.0793 1.2858
1629.986 1.5297 1.4894 1.1672 1.0963 1.2854 1.2964 1.2815 1.4048 1.5931 1.4244
1649.276 1.1963 0.9893 0.6975 0.8639 1.4339 1.5453 1.1663 0.9677 0.9177 1.0116
1668.566 1.2189 1.3439 1.1639 1.0267 1.0224 1.0441 1.1361 1.1924 1.1131 1.1379
1687.856 1.1237 1.007 1.0755 1.0126 1.1276 1.1876 0.978 0.815 0.69171 0.76734
1707.146 0.9256 0.8667 0.74961 0.690452 0.76412 0.8537 0.9047 1.0332 1.03 0.973
1726.435 0.9061 0.7805 0.77553 1.0948 1.3981 1.0995 0.9556 1.0324 1.0192 0.8646
1745.725 0.7889 0.8652 1.0617 1.1861 0.9487 0.8725 1.006 1.1671 1.1153 1.0658
1765.015 1.1449 0.9711 0.8966 0.8974 0.75455 0.72713 0.9293 0.9669 0.894 1.0138
1784.305 1.0673 1.0688 1.0249 1.0732 1.0253 1.0806 1.1654 1.1933 1.1346 0.9768
1803.594 1.1063 1.2857 1.4225 1.3887 1.2664 1.4078 1.4577 1.3432 1.3586 1.2372
1822.884 1.1883 1.1991 1.116 1.1578 1.3271 1.3685 1.3392 1.2036 0.931 0.9812
1842.174 1.1022 1.0223 1.1405 1.1081 0.9792 1.1568 1.0671 0.8001 0.8744 1.1374
1861.464 1.2234 1.1704 1.3354 1.2474 1.1088 1.2167 1.222 1.2298 1.1 1.1699
1880.754 1.2732 1.1911 1.1464 1.0177 1.0939 1.2204 1.159 1.292 1.3482 1.3288
1900.043 1.4125 1.3787 1.3528 1.2566 1.2119 1.2627 1.1735 1.1875 1.3387 1.4398
1919.333 1.4692 1.4019 1.2695 1.3175 1.6288 1.6355 1.4014 1.3152 1.5265 1.6599
1938.623 1.4993 1.604 1.5703 1.5473 1.5271 1.4366 1.5698 1.4334 1.3992 1.5419
1957.913 1.4464 1.4577 1.5665 1.5006 1.3886 1.4377 1.5514 1.4803 1.4678 1.3219
1977.202 1.3854 1.5438 1.2595 1.1795 1.2273 1.1819 1.0829 0.9167 0.832 0.9123
1996.492 1.0082 0.9968 1.1838 1.3008 1.1355 1.0321 1.0269 0.9918 0.9056 1.0497
2015.782 1.1613 1.1923 1.1856 1.0973 0.9459 0.9455 1.1496 1.1973 1.0285 1.0842
2035.072 1.1413 0.9591 0.9857 1.2613 1.2171 1.0578 1.1734 1.1531 1.1693 1.2277
2054.362 1.212 1.1758 1.205 1.2573 1.3224 1.2915 1.2397 1.2055 1.0645 0.9928
2073.651 0.9521 0.9589 1.0548 1.0256 0.9343 0.9583 1.0531 1.126 0.9757 0.9449
2092.941 1.2412 1.2545 0.9702 0.9759 1.0302 1.081 1.0104 0.7984 0.8747 1.1201
2112.231 1.103 0.8281 0.8432 0.9856 0.8951 0.9444 1.0948 0.9918 0.9638 0.8775
2131.521 0.7565 0.8832 1.0363 0.8977 0.73795 0.7668 0.8087 0.8907 0.9831 1.0248
2150.810 1.0167 1.0343 0.9776 0.8413 0.69345 0.5823 0.7939 0.9427 0.859 0.9578
2170.100 0.9909 0.8013 0.73071 0.8003 0.8628 1.0344 0.9886 0.7439 0.9327 1.1289
2189.390 1.1381 1.2862 1.2567 1.2188 1.1913 0.8439 0.71901 0.9593 1.0095 1.0546
2208.680 1.0336 0.9232 0.8685 0.7873 1.0117 0.9136 0.8556 0.8461 0.9175 0.9704
2227.970 0.8527 1.0774 0.9444 0.9332 0.9838 1.0453 1.1017 0.77852 0.515 0.618
2247.259 0.8939 0.8553 0.8833 1.0031 0.8595 0.77215 0.8446 0.74748 0.8434 1.0486
2266.549 0.9955 0.8351 0.5926 0.72946 0.8403 0.7004 0.8272 0.8857 0.6705 0.73851
2285.839 0.9934 0.9392 0.8932 0.8305 0.7811 0.9824 0.929 0.71534 0.71048 0.8118
2305.129 0.69487 0.75858 0.8895 0.71219 0.75334 0.9063 0.7975 0.67432 0.72599 0.74971
2324.418 0.6708 0.527 0.542 0.577 0.658 0.6185 0.6806 0.8719 0.8148 0.8929
2343.708 0.917 1.0054 0.9064 0.70147 0.8796 0.8953 0.9058 0.77582 0.76085 0.8926
2362.998 0.74661 0.73263 0.8773 0.8938 0.8382 0.9168 0.8961 0.8483 0.8897 1.0002
2382.288 0.862 0.655 0.7301 0.7975 0.77127 0.635 0.6657 0.69395 0.9908 1.1726
2401.578 0.76865 0.6442 0.67298 0.76686 0.72682 0.73462 0.73306 0.461 0.35 0.436
2420.867 0.348 0.339 0.484 0.529 0.6424 0.72486 0.7555 0.8744 0.8333 0.9174
2440.157 1.0815 0.9691 0.70155 0.77375 0.8272 0.718 0.7942 0.8899 0.9074 0.8336
2459.447 0.73286 0.6157 0.6518 0.553 0.571 0.73591 0.9837 0.78117 0.72271 0.9577
2478.737 1.0393 1.036 0.76458 0.8103 0.9812 1.0508 0.9105 0.70834 0.6292 0.71071
2498.026 0.8861 1.1124 1.2552 0.9333 0.6306 0.75013 0.8971 0.933 0.6045 0.425
2517.316 0.6429 0.8276 0.9723 0.9703 0.8928 0.74445 0.855 0.8175 0.6408 0.6158
2536.606 0.6085 0.7183 0.72286 0.75434 0.8155 0.9098 0.9823 0.978 0.9012 0.8536
2555.896 1.0891 1.165 0.9703 1.0303 1.1665 1.1522 0.9677 0.8745 1.3202 1.3557
2575.186 1.2653 1.1518 0.897 0.9909 0.9483 0.9077 0.9642 1.0335 0.8495 0.817
2594.475 0.8771 0.8496 1.0477 1.0729 0.74804 0.7362 0.9695 1.1697 1.2506 0.994
2613.765 0.9696 1.0047 0.7086 0.6003 0.8552 0.9056 0.9907 1.0435 0.9278 1.2155
2633.055 1.3443 1.1191 1.2047 1.3386 1.3183 1.3412 1.2985 1.0593 0.8923 0.9551
2652.345 1.1357 1.0417 1.0615 1.1388 1.0099 1.3411 1.3861 1.3713 1.5022 1.1451
2671.634 1.0649 1.3272 1.2196 1.0318 1.0166 0.96 1.0127 1.0212 1.1135 1.32
2690.924 1.3082 1.321 1.329 1.2785 1.2613 1.3583 1.5778 1.5902 1.4004 1.3563
2710.214 1.3984 1.512 1.346 1.1481 1.3288 1.5363 1.832 1.932 1.5597 1.3316
2729.504 1.334 1.5208 1.792 1.842 1.742 1.6788 1.782 2.202 2.622 2.712
2748.794 2.802 2.802 2.362 2.372 2.562 2.542 2.392 2.092 2.142 2.382
2768.083 2.562 2.742 2.672 2.792 2.972 2.892 3.082 3.072 3.132 3.722
2787.373 4.172 4.262 4.522 4.532 4.802 5.342 5.502 5.602 6.052 6.242
2806.663 5.902 5.852 6.262 6.472 6.582 6.642 6.622 6.812 6.822 6.532
2825.953 6.372 6.382 6.672 7.182 7.402 7.012 6.952 7.132 7.142 7.262
2845.242 7.242 7.252 7.532 7.722 7.882 8.422 8.922 9.452 9.872 10.182
2864.532 10.922 12.372 13.922 15.622 18.172 21.122 23.862 26.922 29.882 32.412
2883.822 34.822 36.722 38.402 39.912 40.792 41.422 41.502 40.562 39.352 38.652
2903.112 38.192 37.392 37.102 37.232 37.492 37.672 37.922 39.262 40.852 41.802
2922.401 42.552 43.152 43.742 44.012 43.912 43.942 44.022 43.192 42.192 42.712
2941.691 43.092 43.772 45.522 47.722 50.702 54.332 58.702 63.502 67.722 71.632
2960.981 75.202 77.062 77.362 75.662 72.812 69.022 63.472 57.492 51.352 45.052
2980.271 38.752 33.252 28.412 24.392 21.542 18.312 15.632 14.312 13.212 12.182
2999.561 11.012 10.152 9.472 9.272 9.102 8.162 7.762 7.612 7.302 7.262
3018.850 7.152 6.772 6.562 6.662 6.292 5.862 5.742 5.852 6.342 6.352
3038.140 6.352 6.212 5.942 5.572 5.322 5.742 6.142 5.912 5.672 5.722
3057.430 5.492 5.362 5.592 5.602 5.622 5.792 5.532 5.352 5.382 5.452
3076.720 5.662 5.542 4.992 4.582 4.362 4.562 4.842 4.992 4.782 4.192
3096.009 4.142 4.432 4.282 4.182 4.262 4.172 4.092 4.012 3.672 3.432
3115.299 3.542 3.692 3.572 3.112 3.092 3.452 3.302 3.162 3.032 2.722
3134.589 2.592 2.272 2.452 2.562 2.232 2.172 2.172 2.372 2.632 2.342
3153.879 1.982 2.032 1.942 1.722 1.3896 1.2135 1.732 2.112 1.982 1.792
3173.169 1.822 2.242 2.092 1.822 1.5423 1.1173 0.9781 1.1234 1.6224 1.762
3192.458 1.664 1.669 1.5003 1.505 1.932 1.722 1.2031 1.4497 1.5093 1.0212
3211.748 1.0611 1.4525 1.4553 1.3586 1.2121 1.3713 1.692 1.0714 0.8815 1.2996
3231.038 1.3676 1.1866 0.9926 1.2865 1.2175 1.1447 0.8977 1.0181 1.3335 0.8862
3250.328 0.883 0.8679 1.0661 1.3069 1.2694 1.218 1.0461 1.0079 1.1045 1.049
3269.617 0.6382 0.6161 0.529 0.6063 0.9743 0.556 0.69909 1.2095 0.9689 0.6409
3288.907 0.9082 1.3764 1.3229 1.1104 0.9326 0.8513 0.9181 1.068 1.1977 0.8986
3308.197 0.476 0.526 0.5978 0.5915 0.8731 1.0064 1.0423 1.2282 1.4254 1.3808
3327.487 0.9676 0.9125 0.91 0.9475 0.951 0.77088 0.9609 0.9666 0.7924 0.9392
3346.777 0.9953 0.6633 0.6287 1.2182 1.1316 0.9781 1.3691 0.9335 0.424 0.503
3366.066 0.69633 0.6384 0.572 0.8347 0.8155 0.581 0.688904 0.76846 0.75399 0.5
3385.356 0.283 0.31 0.396 0.252 0.6694 1.0713 0.8256 1.0035 0.71915 0.571
3404.646 0.7205 0.434 0.221 0.449 0.8245 0.9279 0.7849 0.9417 1.0784 0.893
3423.936 1.1768 1.1418 0.7949 0.9317 0.8601 0.497 0.45 0.75826 0.6024 0.455
3443.225 0.69359 0.71106 0.313 0.078 0.307 0.8743 1.0434 1.3327 1.3792 1.0671
3462.515 0.785 0.6519 0.8259 0.849 0.8184 0.69781 0.9441 0.8011 1.0095 1.2962
3481.805 0.8933 0.174 0.241 1.108 1.1745 0.73607 0.8422 1.2961 1.2468 1.0544
3501.095 0.8951 0.277 0.346 0.6105 0.529 0.572 0.359 0.417 0.6104 0.7888
3520.385 0.8913 1.0276 1.2047 1.0737 0.8645 0.69543 0.7931 0.983 1.2713 1.3544
3539.674 1.3606 1.4692 1.4564 1.3865 0.9739 0.9461 1.1402 1.1508 1.0961 0.74579
3558.964 0.396 0.263 0.035 0.557 1.3525 1.2965 1.4043 1.4828 1.3645 1.0831
3578.254 0.9663 1.293 1.442 1.4882 1.722 1.682 1.832 1.832 1.251 1.3057
3597.544 1.482 1.4015 1.4462 1.142 1.1933 1.4478 1.0872 1.0214 1.3218 1.0891
3616.833 1.2533 1.682 1.2789 1.3052 1.4498 0.9733 0.9534 1.5173 1.3943 0.9913
3636.123 0.7952 0.8488 1.0533 1.0225 1.4199 1.6336 1.0497 0.71056 1.2563 1.742
3655.413 1.3518 0.9888 1.4746 1.762 1.0881 0.8269 1.348 1.802 1.762 1.3042
3674.703 0.8257 0.9203 1.4423 1.4533 1.5227 1.902 2.012 1.892 1.762 1.732
3693.993 1.6347 1.0229 0.69538 1.0707 1.4201 1.782 1.5563 1.2702 1.4865 1.5415
3713.282 1.882 2.052 1.6642 1.6442 2.132 2.072 1.4461 1.3134 1.5597 1.5578
3732.572 1.5601 1.802 1.6634 1.3078 1.2655 1.3417 1.4785 1.4919 1.5282 1.5988
3751.862 1.1182 1.033 1.322 1.3392 1.2788 1.3803 1.2819 1.1443 1.4045 1.549
3771.152 1.712 1.6403 1.1697 0.9551 0.6564 1.1421 1.613 1.1113 0.6067 0.69725
3790.441 0.8756 1.0751 1.1589 0.491 0.75445 1.4556 1.3876 0.9089 0.5 0.71265
3809.731 0.5998 0.252 0.452 1.0373 1.1316 0.7837 0.6528 0.8411 0.9549 1.2349
3829.021 1.3357 1.0702 1.3311 1.3762 0.558 0.239 0.9543 1.1207 0.8761 0.178
3848.311 0.004 1.0192 1.355 1.0566 1.1101 1.0751 1.3043 1.692 1.4448 0.8493
3867.601 1.0204 1.5672 1.1122 0.5889 0.5889 0.9721 1.2664 1.0866 0.8256 0.6659
3886.890 1.0472 1.1161 0.72125 0.682318 0.9332 1.135 0.8758 1.0263 1.732 1.742
3906.180 1.5482 1.2026 1.0607 1.0587 0.6076 0.6223 0.9468 0.8658 0.7958 1.1372
3925.470 1.2703 0.8758 0.8824 0.75768 0.145 0.513 0.8669 0.8085 0.8094 1.1326
3944.760 1.2473 0.6514 0.571 0.8287 0.70343 0.489 0.531 0.344 0.225 0.312
3964.049 0.386 0.496 0.9252 1.4916 1.3995 1.1965 0.8068 0.501 0.302 0.289
3983.339 0.74701 1.1924 1.1539 0.77719 0.346 0.302 0.8891 1.2194 1.4458 1.4385
##END=
