##TITLE=trans-2,2,Dimethyl-3-hexene
##JCAMP-DX=4.24
##DATA TYPE=INFRARED SPECTRUM
##ORIGIN=EPA-IR VAPOR PHASE LIBRARY
##OWNER=SRD/NIST
Collection (C) 2018 copyright by the U.S. Secretary of Commerce
on behalf of the United States of America. All rights reserved.
##CAS REGISTRY NO=3123-93-1
##MOLFORM=C 8 H 16
##$NIST SOURCE=MSDC-IR
##STATE=gas
##XUNITS=1/CM
##YUNITS=ABSORBANCE
##XFACTOR=1.
##YFACTOR=0.001
##DELTAX=3.85796
##FIRSTX=501.5
##LASTX=4000.7
##FIRSTY=0.362
##MAXX=4000.7
##MINX=501.534
##MAXY=0.344236
##MINY=0
##NPOINTS=908
##XYDATA=(X++(Y..Y))
501.534 0.362 0.308 0.303 0.301 0.189 0.26 0.25 0.213 0.242 0.273
540.114 0.243 0.179 0.285 0.267 0.166 0.171 0.072 0 0.031 0.09
578.693 0.091 0.108 0.159 0.242 0.199 0.114 0.079 0.058 0.11 0.199
617.273 0.205 0.136 0.11 0.157 0.247 0.182 0.082 0.097 0.123 0.151
655.852 0.221 0.274 0.257 0.229 0.22 0.254 0.283 0.282 0.334 0.311
694.432 0.29 0.31 0.303 0.4167 0.50342 0.53506 0.56079 0.55737 0.5969 0.6372
733.011 0.6861 0.7177 0.8252 0.9428 0.9176 0.9069 0.9007 0.9541 1.0337 1.0999
771.591 1.213 1.3951 1.536 1.586 1.686 1.706 1.566 1.3069 1.1677 1.097
810.170 1.0336 1.0433 0.9467 0.967 1.091 1.1284 1.1373 1.1778 1.1557 1.1694
848.750 1.3 1.3517 1.3819 1.516 1.796 2.076 2.376 2.796 3.326 3.996
887.330 4.966 6.306 7.816 9.506 11.296 12.916 14.006 14.466 14.596 14.326
925.909 13.716 13.216 13.006 13.276 14.126 15.776 18.416 21.946 26.106 30.306
964.489 33.756 35.796 35.946 33.826 29.736 24.656 19.746 15.586 12.316 10.026
1003.068 8.626 7.966 7.926 8.356 8.926 9.256 9.176 8.706 7.866 6.726
1041.648 5.596 4.726 4.186 3.886 3.656 3.576 3.666 3.736 3.726 3.636
1080.227 3.516 3.426 3.326 3.016 2.726 2.546 2.496 2.566 2.536 2.506
1118.807 2.516 2.436 2.286 2.186 2.126 2.166 2.196 2.226 2.236 2.296
1157.387 2.546 2.776 3.116 3.656 4.316 5.126 6.086 7.266 8.576 9.726
1195.966 10.486 10.606 10.086 9.096 7.856 6.876 6.266 6.026 6.236 6.726
1234.546 7.516 8.536 9.526 10.376 11.136 11.786 12.146 12.086 11.656 10.896
1273.125 9.796 8.486 7.236 6.356 5.986 6.006 6.336 6.836 7.466 8.216
1311.705 9.016 9.946 10.926 11.676 12.036 12.186 12.356 12.726 13.616 15.426
1350.284 18.456 22.566 27.106 31.246 33.906 34.066 31.566 27.426 23.066 19.466
1388.864 16.716 14.546 12.866 11.616 10.226 8.776 7.936 7.686 7.866 8.356
1427.443 9.176 10.316 11.856 13.906 16.366 19.236 22.476 25.736 28.996 31.706
1466.023 33.756 35.006 34.686 32.496 28.956 24.756 19.866 14.846 10.816 8.076
1504.603 6.336 5.106 4.266 3.606 3.066 2.626 2.306 2.066 1.846 1.666
1543.182 1.516 1.4285 1.3744 1.3025 1.2813 1.2918 1.2779 1.2668 1.2238 1.2002
1581.762 1.2236 1.2276 1.2246 1.246 1.2794 1.2993 1.3057 1.2896 1.2723 1.2588
1620.341 1.261 1.2387 1.1886 1.1682 1.1517 1.1365 1.1372 1.1317 1.1047 1.1007
1658.921 1.1367 1.1584 1.1459 1.1388 1.1679 1.1464 1.0771 1.0821 1.1271 1.1358
1697.500 1.147 1.1715 1.2303 1.2981 1.3341 1.343 1.3846 1.4475 1.4644 1.486
1736.080 1.556 1.646 1.736 1.786 1.816 1.886 1.926 1.946 2.016 2.116
1774.659 2.266 2.456 2.666 2.856 2.936 2.896 2.786 2.616 2.376 2.116
1813.239 1.856 1.626 1.4651 1.3423 1.2558 1.1733 1.095 1.033 0.9838 0.9718
1851.819 0.9586 0.9267 0.8718 0.8417 0.8121 0.7702 0.7539 0.7574 0.7637 0.7387
1890.398 0.7303 0.7277 0.7403 0.7602 0.731 0.7141 0.6953 0.6922 0.7069 0.6987
1928.978 0.7006 0.7155 0.7333 0.733 0.7276 0.705 0.6831 0.6688 0.6589 0.6599
1967.557 0.6598 0.6605 0.6801 0.6956 0.7091 0.7397 0.7357 0.7373 0.747 0.7368
2006.137 0.739 0.7451 0.7368 0.7356 0.738 0.7547 0.7641 0.7695 0.7703 0.75
2044.716 0.7287 0.6891 0.6767 0.687 0.6713 0.6548 0.6422 0.6517 0.6529 0.6458
2083.296 0.655 0.6545 0.6468 0.6634 0.7024 0.7223 0.7288 0.7298 0.7417 0.7792
2121.875 0.8031 0.7723 0.7557 0.7394 0.7231 0.7267 0.6939 0.6839 0.6923 0.6863
2160.455 0.6903 0.7012 0.7027 0.6974 0.6859 0.6925 0.7025 0.6729 0.6749 0.7029
2199.035 0.6903 0.6944 0.7219 0.731 0.7199 0.7365 0.7551 0.7616 0.7633 0.7529
2237.614 0.7511 0.7405 0.7289 0.7482 0.7654 0.7676 0.781 0.7854 0.8196 0.872
2276.194 0.9348 0.957 0.9583 0.953 0.924 0.9184 0.8856 0.8112 0.7832 0.7722
2314.773 0.74 0.7018 0.6978 0.7367 0.7482 0.7455 0.7472 0.7715 0.8034 0.826
2353.353 0.85 0.8796 0.9221 0.9534 0.9896 1.0467 1.0894 1.11 1.1335 1.1582
2391.932 1.1782 1.1834 1.1729 1.1549 1.1246 1.0838 1.031 0.9716 0.9072 0.8739
2430.512 0.8587 0.8388 0.8263 0.8334 0.8252 0.7973 0.8012 0.8066 0.7949 0.8142
2469.092 0.8499 0.8558 0.863 0.8923 0.907 0.9142 0.9213 0.926 0.9296 0.9383
2507.671 0.9535 0.9531 0.9792 1.028 1.0534 1.0869 1.1442 1.1735 1.1886 1.2341
2546.251 1.2875 1.3503 1.4359 1.506 1.556 1.576 1.556 1.556 1.546 1.526
2584.830 1.506 1.516 1.546 1.546 1.576 1.596 1.586 1.566 1.566 1.566
2623.410 1.576 1.626 1.666 1.656 1.686 1.746 1.796 1.826 1.886 1.926
2661.989 1.946 2.006 2.106 2.176 2.206 2.296 2.426 2.566 2.686 2.816
2700.569 3.016 3.236 3.486 3.766 4.026 4.246 4.396 4.516 4.616 4.676
2739.148 4.736 4.786 4.776 4.746 4.666 4.636 4.656 4.696 4.826 5.026
2777.728 5.286 5.546 5.836 6.156 6.476 6.956 7.566 8.216 8.956 9.716
2816.308 10.566 11.616 12.876 14.346 16.116 18.346 21.266 25.196 30.486 37.346
2854.887 45.846 55.666 66.126 76.206 85.046 92.136 96.786 98.656 98.796 98.736
2893.467 99.196 100.676 103.556 107.126 110.316 112.716 114.386 115.846 118.426 123.566
2932.046 132.146 144.096 159.196 179.446 207.046 240.706 278.086 315.356 341.566 344.236
2970.626 320.946 276.386 218.816 161.166 114.826 83.556 64.096 51.966 44.386 39.786
3009.205 37.066 35.326 34.056 32.816 31.146 28.886 26.126 23.116 20.096 17.326
3047.785 14.996 13.096 11.676 10.566 9.696 9.106 8.626 8.196 7.826 7.466
3086.364 7.186 6.956 6.716 6.526 6.376 6.246 6.146 6.046 5.966 5.896
3124.944 5.766 5.556 5.326 5.086 4.846 4.576 4.316 4.136 4.026 3.996
3163.524 4.036 4.096 4.156 4.206 4.276 4.336 4.366 4.356 4.266 4.106
3202.103 4.016 3.956 3.826 3.746 3.686 3.616 3.646 3.626 3.516 3.396
3240.683 3.286 3.156 2.966 2.756 2.576 2.406 2.186 2.026 1.936 1.886
3279.262 1.806 1.746 1.766 1.776 1.816 1.866 1.836 1.796 1.776 1.736
3317.842 1.646 1.556 1.506 1.3997 1.3438 1.3824 1.4024 1.3591 1.3075 1.2305
3356.421 1.232 1.2647 1.238 1.2087 1.1956 1.1529 1.1434 1.1938 1.2072 1.2013
3395.001 1.1398 1.0654 1.0589 1.121 1.1446 1.1045 1.0823 1.1043 1.1845 1.1958
3433.580 1.12 1.0229 0.9912 0.9788 0.9274 0.9193 0.9491 0.9569 0.9457 0.9016
3472.160 0.8275 0.841 0.8721 0.8726 0.8415 0.8043 0.799 0.7646 0.7516 0.754
3510.740 0.7153 0.6245 0.57485 0.6094 0.6318 0.585 0.53231 0.53765 0.56507 0.605
3549.319 0.54275 0.48801 0.51433 0.48895 0.4591 0.4694 0.485152 0.49873 0.54322 0.54467
3587.899 0.50348 0.47203 0.477822 0.51273 0.51798 0.485589 0.51975 0.55072 0.53113 0.57218
3626.478 0.5781 0.5851 0.6097 0.57135 0.53458 0.50498 0.55063 0.5875 0.56432 0.6311
3665.058 0.6445 0.6173 0.6816 0.7228 0.709 0.6782 0.6542 0.6369 0.6743 0.8099
3703.637 0.8299 0.7438 0.6811 0.7179 0.8109 0.8197 0.7983 0.8097 0.7853 0.7813
3742.217 0.7856 0.7457 0.7847 0.8473 0.8773 0.8951 0.8955 0.8805 0.92 0.9627
3780.797 0.973 1.0572 1.1414 1.0863 1.0431 1.1259 1.1711 1.1363 1.1431 1.1501
3819.376 1.1528 1.183 1.1563 1.1085 1.0902 1.1196 1.1857 1.1414 1.0649 1.0659
3857.956 1.0865 1.1036 1.1007 1.1154 1.2148 1.3478 1.3872 1.3719 1.4322 1.4694
3896.535 1.4541 1.4531 1.486 1.4581 1.3408 1.3007 1.2801 1.2471 1.2336 1.2477
3935.115 1.2635 1.2903 1.2882 1.2931 1.3458 1.3223 1.2974 1.3373 1.3436 1.3588
3973.694 1.3813 1.3697 1.3652 1.3484 1.4025 1.3903 1.34 1.3375
##END=
