##TITLE=3-Acetylphenylisothiocyanate
##JCAMP-DX=4.24
##DATA TYPE=INFRARED SPECTRUM
##ORIGIN=EPA-IR VAPOR PHASE LIBRARY
##OWNER=SRD/NIST
Collection (C) 2018 copyright by the U.S. Secretary of Commerce
on behalf of the United States of America. All rights reserved.
##CAS REGISTRY NO=3125-71-1
##MOLFORM=C 9 H 7 N O S
##$NIST SOURCE=MSDC-IR
##STATE=gas
##XUNITS=1/CM
##YUNITS=ABSORBANCE
##XFACTOR=1.
##YFACTOR=0.001
##DELTAX=3.85796
##FIRSTX=551.7
##LASTX=4000.7
##FIRSTY=20.68
##MAXX=4000.7
##MINX=551.688
##MAXY=0.4931
##MINY=0.0004941
##NPOINTS=895
##XYDATA=(X++(Y..Y))
551.688 20.68 19.72 18.92 18.55 18.6 19.42 21.36 24.32 27.49 29.65
590.268 30.48 29.47 26.49 22.73 18.3 13.82 10.69 8.84 7.78 6.93
628.847 6.3 5.81 5.46 5.44 5.89 6.59 7.51 8.89 11.09 14.7
667.427 19.41 23.88 27.05 29.25 29.99 26.73 20.99 15.44 10.68 7.24
706.006 5.02 3.83 3.34 3.1 3.02 3.12 3.51 3.99 4.41 5.07
744.586 6.06 7.41 9.45 12.34 15.79 19.49 23.46 28.19 33.42 38.43
783.165 42.79 42.74 39.07 34.05 25.94 18 12.15 7.93 5.42 4.12
821.745 3.45 3.18 3.1 3.03 3.09 3.15 3.18 3.11 3.08 3.16
860.324 3.46 4.33 5.82 7.59 9.43 10.55 10.16 9.31 8.9 8.96
898.904 9.45 9.95 10.01 9.21 8.06 7.18 6.64 6.58 7.11 7.95
937.484 9.16 10.76 12.46 13.82 14.55 14.78 14.81 14.96 15.33 15.75
976.063 15.99 15.58 14.62 13.5 12.27 11.08 9.87 8.67 7.45 6.27
1014.643 5.6 5.4 5.3 5.01 4.5 4.16 3.86 3.56 3.42 3.35
1053.222 3.52 3.74 4.18 4.98 5.85 6.71 6.97 6.54 5.74 4.99
1091.802 4.62 4.47 4.31 4.1 3.83 3.69 3.52 3.2 3.16 3.22
1130.381 3.22 3.23 3.4 3.8 4.37 5.17 6.37 8.44 10.53 11.4
1168.961 11.15 10.02 9.15 9.69 11.86 15.58 21.49 30.27 41.64 54.03
1207.540 63.59 65.54 57.45 42.02 26.69 17.58 14 13.11 13.86 15.67
1246.120 18.55 22.85 29.24 38.84 52.57 70.9 92.2 111.36 121.14 116.76
1284.699 98.4 73.43 51.11 35.18 25.11 19.02 15.04 12.21 10.28 9.02
1323.279 8.32 8 8.03 8.59 9.86 12.13 16.1 22.62 31.36 38.94
1361.859 41.69 38.71 31.32 23.16 17.19 13.68 11.92 11.11 10.78 10.68
1400.438 10.8 11.36 12.54 14.7 18.4 24.27 32.37 41.01 46.28 44.85
1439.018 37.01 26.75 18.57 14.11 12.04 11.11 11.17 12.47 15.25 19.29
1477.597 22.54 22.88 20.09 15.11 10.44 7.6 6.13 5.49 5.15 4.97
1516.177 4.99 5.22 5.55 6.01 6.54 7.08 7.68 8.39 9.34 10.92
1554.756 13.32 16.97 22.21 29.03 37.88 47.19 54.66 57.7 56.4 52.57
1593.336 48.49 44.2 38.27 30.76 23.08 16.93 12.79 10.27 8.86 7.99
1631.915 7.5 7.32 7.28 7.44 7.78 8.22 8.94 9.95 11.46 13.43
1670.495 15.85 18.34 20.36 22.16 25.01 30.1 40.01 58.67 90.12 125.19
1709.075 143.09 134.29 99.4 59.15 35.09 23.84 19.19 17.64 17.34 16.81
1747.654 15.35 13.33 11.53 10.12 8.96 7.97 7.13 6.41 5.86 5.52
1786.234 5.38 5.37 5.49 5.67 5.79 5.84 5.82 5.72 5.61 5.52
1824.813 5.49 5.5 5.52 5.5 5.52 5.55 5.65 5.89 6.28 6.79
1863.393 7.35 7.92 8.45 9 9.61 10.3 11.11 12.02 12.98 14.03
1901.972 15.27 16.82 18.8 21.24 24.22 27.74 31.71 36.15 40.95 45.91
1940.552 51.03 56.33 61.88 67.84 74.26 81.43 89.54 98.73 109.07 120.6
1979.131 133.5 148.08 164.69 183.47 203.94 224.97 245.42 264.4 282.05 299.55
2017.711 319.08 343.58 375.84 416.87 461.5 493.1 490.11 447.64 381.58 313.47
2056.291 258.46 222.48 205.71 206.05 220.2 243.64 270.28 292.43 303.07 298.64
2094.870 279.63 250.06 216.16 184.11 157.82 138.39 124.81 115.33 108.22 102.16
2133.450 96.43 90.77 85.06 79.06 72.59 65.72 58.82 52.39 46.85 42.46
2172.029 39.11 36.35 33.88 31.4 28.82 26.2 23.69 21.39 19.34 17.46
2210.609 15.77 14.3 12.98 11.89 10.97 10.23 9.69 9.31 9.1 8.96
2249.188 8.76 8.4 7.88 7.26 6.53 5.84 5.29 4.76 4.24 3.84
2287.768 3.52 3.24 3.02 2.84 2.69 2.58 2.51 2.47 2.49 2.51
2326.347 2.51 2.52 2.55 2.59 2.61 2.61 2.62 2.7 2.81 2.92
2364.927 3.02 3.07 3.15 3.25 3.32 3.39 3.5 3.71 4 4.32
2403.507 4.67 4.91 5.05 5.06 4.91 4.71 4.48 4.23 3.96 3.76
2442.086 3.69 3.69 3.66 3.61 3.63 3.66 3.71 3.83 3.94 4.12
2480.666 4.3 4.35 4.32 4.26 4.14 3.96 3.86 3.82 3.8 3.86
2519.245 3.98 4.12 4.34 4.57 4.76 4.98 5.28 5.62 5.97 6.32
2557.825 6.67 7.09 7.58 8.03 8.39 8.52 8.25 7.59 6.6 5.51
2596.404 4.51 3.76 3.17 2.72 2.53 2.39 2.24 2.17 2.18 2.17
2634.984 2.13 2.07 1.98 1.96 1.97 1.9 1.86 1.83 1.83 1.89
2673.563 1.91 1.97 2.06 2.09 2.19 2.35 2.43 2.58 2.77 2.87
2712.143 2.89 2.87 2.79 2.76 2.81 2.78 2.68 2.6 2.57 2.59
2750.722 2.72 2.86 2.9 2.93 3.02 3.14 3.21 3.18 3.17 3.3
2789.302 3.43 3.51 3.61 3.68 3.77 3.8 3.73 3.71 3.65 3.5
2827.882 3.31 3.25 3.12 2.97 2.87 2.75 2.69 2.67 2.67 2.65
2866.461 2.63 2.58 2.48 2.4 2.32 2.23 2.18 2.16 2.2 2.25
2905.041 2.31 2.38 2.49 2.65 2.87 3.16 3.52 3.93 4.11 4.02
2943.620 3.81 3.62 3.57 3.67 3.85 4.14 4.52 4.91 5.16 5.18
2982.200 5.03 4.91 4.75 4.64 4.81 5.29 5.98 6.91 7.76 8.02
3020.779 7.76 7.17 6.56 6.22 6.03 5.83 5.62 5.32 5.14 5.4
3059.359 6.07 7.29 8.93 10.61 11.82 12.08 11.42 10.09 8.58 7.35
3097.938 6.34 5.4 4.51 3.56 2.83 2.42 2.14 1.88 1.64 1.52
3136.518 1.48 1.39 1.3 1.18 1.11 1.09 1.06 1.07 1.02 0.9954
3175.098 0.971 0.8975 0.8542 0.8273 0.7916 0.7932 0.7331 0.6557 0.6993 0.6962
3213.677 0.6812 0.6887 0.665 0.6621 0.6207 0.6101 0.6208 0.5959 0.6236 0.6258
3252.257 0.5872 0.5712 0.5309 0.5364 0.6373 0.6517 0.5875 0.5699 0.5043 0.4941
3290.836 0.5933 0.6625 0.6455 0.5553 0.5728 0.5851 0.6171 0.7376 0.7318 0.6979
3329.416 0.6994 0.663 0.7186 0.8813 0.8908 0.8661 0.9044 0.9412 1.02 1.14
3367.995 1.28 1.32 1.4 1.54 1.76 2.14 2.61 3.03 3.22 3.23
3406.575 3.01 2.53 2.06 1.72 1.51 1.4 1.28 1.15 1.01 0.9731
3445.154 1.05 1.08 1.07 1.03 1.01 1.01 1.01 1.05 1.09 1.06
3483.734 1.05 1.02 0.973 0.9453 0.9715 1.01 0.9658 0.9655 0.9708 0.8744
3522.314 0.8289 0.896 0.8902 0.8401 0.8746 0.8543 0.8767 0.9592 0.8725 0.8584
3560.893 0.9264 0.9196 0.9047 0.8629 0.8752 0.9346 0.9646 0.986 0.9506 1.01
3599.473 1.03 0.868 0.818 0.8669 0.9148 0.926 0.8925 0.9142 0.9025 0.8279
3638.052 0.8669 0.9314 0.9808 1.01 1.02 1.02 0.9711 1.01 1.03 1.04
3676.632 1.04 1 1.05 1 0.9708 0.9852 0.932 0.9848 1.02 0.9874
3715.211 0.9716 1.08 1.11 1.03 1.13 1.2 1.1 1.12 1.18 1.13
3753.791 1.16 1.16 1.2 1.19 1.16 1.14 1.14 1.09 1.05 1.14
3792.370 1.19 1.24 1.26 1.27 1.33 1.23 1.17 1.13 1.16 1.22
3830.950 1.24 1.37 1.41 1.37 1.42 1.5 1.56 1.46 1.44 1.57
3869.530 1.54 1.54 1.62 1.57 1.49 1.56 1.57 1.58 1.73 1.75
3908.109 1.63 1.68 1.78 1.79 1.87 1.91 1.98 2.06 2.05 2.18
3946.689 2.3 2.25 2.25 2.36 2.41 2.41 2.47 2.5 2.56 2.56
3985.268 2.65 2.69 2.63 2.66 2.56
##END=
