##TITLE=3-Methoxycarbonylphenyl isothiocyanate
##JCAMP-DX=4.24
##DATA TYPE=INFRARED SPECTRUM
##ORIGIN=EPA-IR VAPOR PHASE LIBRARY
##OWNER=SRD/NIST
Collection (C) 2018 copyright by the U.S. Secretary of Commerce
on behalf of the United States of America. All rights reserved.
##CAS REGISTRY NO=3125-66-4
##MOLFORM=C 9 H 7 N O 2 S
##$NIST SOURCE=MSDC-IR
##STATE=gas
##XUNITS=1/CM
##YUNITS=ABSORBANCE
##XFACTOR=1.
##YFACTOR=0.001
##DELTAX=1.92898
##FIRSTX=549.8
##LASTX=4000.7
##FIRSTY=13.454
##MAXX=4000.7
##MINX=549.759
##MAXY=0.338924
##MINY=0
##NPOINTS=1790
##XYDATA=(X++(Y..Y))
549.759 13.454 13.084 13.144 12.804 12.144 11.634 11.604 11.364 10.984 10.854
569.049 10.484 10.454 9.944 9.254 8.914 8.644 8.214 7.604 7.414 7.084
588.339 6.424 5.914 5.614 5.194 4.594 4.284 4.064 3.684 3.634 3.684
607.628 3.494 3.284 3.224 3.194 3.044 2.614 2.314 2.384 2.414 2.294
626.918 2.194 2.134 2.024 1.954 2.104 2.274 2.404 2.484 2.424 2.734
646.208 3.084 3.304 3.834 4.324 4.364 4.444 4.744 5.144 5.424 5.514
665.498 5.924 6.604 7.364 8.304 9.424 10.354 10.694 10.354 9.604 9.114
684.787 8.884 8.704 8.504 8.184 8.054 8.004 7.884 7.904 8.174 8.544
704.077 8.884 9.324 9.954 10.724 11.804 13.104 14.634 16.274 18.124 20.644
723.367 23.484 26.264 29.224 31.954 34.054 35.574 36.274 36.254 35.944 35.714
742.657 35.834 36.874 38.914 42.044 47.374 51.534 48.684 42.354 37.574 32.994
761.947 27.724 22.354 17.664 13.764 10.744 8.654 7.114 6.004 5.184 4.584
781.236 4.274 4.144 4.074 4.104 4.294 4.624 4.864 5.094 5.634 6.244
800.526 6.904 7.554 8.224 8.794 8.744 8.544 8.494 8.624 9.004 9.714
819.816 10.654 11.354 11.654 11.484 11.224 10.324 8.874 7.414 5.914 4.884
839.106 3.974 3.364 3.084 2.724 2.494 2.494 2.534 2.404 2.534 2.744
858.395 2.514 2.434 2.464 2.304 2.144 2.244 2.234 2.014 2.094 2.094
877.685 2.124 2.314 2.644 3.184 3.664 4.124 4.814 5.644 6.504 7.544
896.975 8.754 9.594 9.874 9.904 9.874 9.664 9.104 8.334 7.384 6.294
916.265 5.364 4.734 4.234 3.884 3.784 3.964 4.244 4.704 5.504 6.404
935.555 7.424 8.604 9.884 11.404 12.814 14.044 15.284 16.324 16.944 17.004
954.844 16.814 16.434 15.794 14.914 13.484 12.094 10.784 9.434 8.374 7.454
974.134 6.684 6.384 6.334 6.244 6.754 7.454 8.024 8.804 9.854 10.884
993.424 12.054 13.244 14.314 15.354 15.704 15.794 15.534 14.374 12.644 10.854
1012.714 9.014 7.284 5.794 4.654 3.924 3.564 3.434 3.094 3.014 3.234
1032.003 3.274 3.124 3.084 3.244 3.194 3.174 3.484 3.754 3.894 3.794
1051.293 4.124 4.894 5.564 6.704 8.364 10.014 12.004 14.804 18.164 21.764
1070.583 24.894 27.184 28.654 29.374 29.474 29.314 28.544 27.874 28.014 28.604
1089.873 30.184 32.904 36.424 40.104 44.074 47.984 50.664 51.534 50.664 48.124
1109.163 43.944 38.794 33.444 27.974 22.954 18.884 16.074 14.044 12.404 11.254
1128.452 10.064 8.974 8.314 8.034 7.474 7.024 6.894 6.784 6.834 6.924
1147.742 6.704 6.924 7.414 8.024 9.584 11.624 14.174 16.314 16.904 17.054
1167.032 17.134 15.874 13.634 11.614 10.174 9.244 9.094 9.464 9.884 10.534
1186.322 11.384 12.304 13.494 15.394 17.444 19.644 22.754 27.124 32.434 39.534
1205.611 48.884 59.794 73.134 88.664 105.494 122.604 137.804 149.534 156.284 157.034
1224.901 151.454 139.364 122.104 102.504 83.844 67.414 53.824 43.604 36.324 31.334
1244.191 27.814 25.664 24.314 23.554 23.374 23.544 24.444 25.824 27.454 30.034
1263.481 33.654 38.414 44.684 52.384 62.024 74.024 88.674 106.414 127.274 150.054
1282.771 173.254 194.644 211.204 220.844 222.044 214.304 198.694 178.084 155.794 134.044
1302.060 113.374 93.904 76.204 61.004 48.774 39.474 32.604 27.554 23.834 20.984
1321.350 18.764 17.044 15.754 14.724 13.804 13.054 12.434 11.814 11.164 10.554
1340.640 9.994 9.464 8.954 8.504 8.154 7.764 7.404 7.144 6.864 6.534
1359.930 6.284 6.074 5.834 5.694 5.534 5.384 5.194 4.994 4.864 4.704
1379.219 4.554 4.474 4.454 4.464 4.554 4.704 4.864 5.014 5.204 5.444
1398.509 5.614 5.844 6.104 6.384 6.714 7.044 7.444 7.934 8.514 9.294
1417.799 10.284 11.614 13.324 15.384 17.934 20.954 24.514 28.844 34.504 41.444
1437.089 48.864 55.374 60.104 62.184 60.474 54.884 46.894 38.144 29.844 23.314
1456.378 18.774 15.784 13.964 12.894 12.304 12.044 12.124 12.554 13.324 14.504
1475.668 16.034 17.644 18.984 19.824 19.984 19.354 18.104 16.304 14.114 12.024
1494.958 10.324 9.034 8.034 7.264 6.734 6.284 5.854 5.484 5.104 4.684
1514.248 4.414 4.244 4.144 4.044 3.974 3.884 3.804 3.834 3.844 3.854
1533.538 3.904 4.104 4.274 4.454 4.714 4.954 5.364 5.864 6.394 7.064
1552.827 7.844 8.654 9.574 10.584 11.634 12.834 14.264 15.994 18.044 20.534
1572.117 23.634 27.224 31.164 34.994 38.154 40.504 41.684 41.484 40.074 37.994
1591.407 35.724 33.744 32.764 32.724 33.084 33.274 32.894 31.754 29.664 26.824
1610.697 23.544 20.234 17.124 14.414 12.384 10.774 9.394 8.274 7.444 6.794
1629.986 6.194 5.754 5.494 5.284 5.084 4.904 4.744 4.694 4.704 4.594
1649.276 4.564 4.524 4.484 4.524 4.504 4.604 4.744 4.724 4.784 4.934
1668.566 4.944 4.924 4.874 4.804 4.774 4.744 4.764 4.774 4.824 5.034
1687.856 5.264 5.494 5.774 6.134 6.704 7.324 8.034 9.014 10.114 11.324
1707.146 12.534 13.934 15.344 16.574 17.434 17.884 18.104 18.194 18.394 18.914
1726.435 20.004 22.084 25.524 30.734 38.534 49.864 65.914 88.924 118.444 150.034
1745.725 174.324 185.944 188.734 184.634 166.284 130.984 90.864 60.874 42.174 30.354
1765.015 22.944 18.584 16.294 15.364 15.304 15.734 16.344 16.884 17.024 16.764
1784.305 16.044 14.764 13.314 11.934 10.714 9.774 9.064 8.454 7.984 7.684
1803.594 7.374 7.064 6.804 6.514 6.264 6.134 5.984 5.804 5.664 5.624
1822.884 5.604 5.534 5.424 5.274 5.204 5.104 4.914 4.704 4.574 4.484
1842.174 4.304 4.184 4.084 3.974 3.894 3.904 3.954 3.884 3.864 3.904
1861.464 4.024 4.164 4.304 4.504 4.754 5.074 5.394 5.824 6.274 6.674
1880.754 7.124 7.564 7.974 8.344 8.644 8.834 8.984 9.134 9.314 9.514
1900.043 9.744 10.014 10.314 10.704 11.224 11.824 12.484 13.284 14.224 15.174
1919.333 16.204 17.384 18.694 20.174 21.784 23.464 25.284 27.284 29.354 31.494
1938.623 33.774 36.004 38.204 40.464 42.704 44.844 46.924 48.924 50.904 52.934
1957.913 55.064 57.394 59.934 62.764 65.934 69.494 73.324 77.464 81.964 86.604
1977.202 91.494 96.624 101.954 107.414 113.054 119.004 125.204 131.744 138.524 145.574
1996.492 153.034 160.694 168.374 176.084 183.864 191.594 199.094 206.324 213.354 220.214
2015.782 226.984 233.844 240.994 248.704 257.094 266.354 276.754 288.244 300.554 313.074
2035.072 324.754 334.084 338.924 337.674 330.014 316.324 297.944 276.794 254.844 233.584
2054.362 214.174 197.604 184.104 173.964 167.394 164.174 164.014 166.654 171.774 178.924
2073.651 187.374 196.544 205.724 214.164 221.094 225.714 227.624 226.664 222.874 216.454
2092.941 207.954 197.864 186.894 175.534 164.084 153.104 142.974 133.904 125.954 119.044
2112.231 113.224 108.294 104.074 100.444 97.134 94.114 91.204 88.464 85.814 83.074
2131.521 80.274 77.444 74.544 71.524 68.424 65.204 61.914 58.634 55.394 52.284
2150.810 49.294 46.544 44.114 41.974 40.144 38.464 36.924 35.544 34.294 33.134
2170.100 31.944 30.704 29.444 28.054 26.604 25.154 23.654 22.164 20.674 19.234
2189.390 17.984 16.874 15.804 14.884 14.174 13.644 13.214 12.854 12.594 12.444
2208.680 12.354 12.114 11.934 11.794 11.504 11.224 10.914 10.534 10.184 9.794
2227.970 9.304 8.874 8.484 8.044 7.624 7.244 6.854 6.484 6.134 5.804
2247.259 5.454 5.084 4.824 4.644 4.524 4.394 4.244 4.104 4.014 3.904
2266.549 3.764 3.754 3.724 3.654 3.544 3.484 3.364 3.254 3.204 3.154
2285.839 3.104 2.994 2.904 2.844 2.744 2.654 2.604 2.544 2.494 2.364
2305.129 2.234 2.254 2.224 2.164 2.224 2.214 2.174 2.244 2.364 2.414
2324.418 2.424 2.504 2.524 2.444 2.374 2.284 2.224 2.174 2.044 1.934
2343.708 1.964 1.894 1.774 1.744 1.784 1.804 1.794 1.834 1.884 1.974
2362.998 2.034 2.094 2.104 2.094 2.124 2.154 2.174 2.254 2.324 2.434
2382.288 2.474 2.474 2.584 2.594 2.564 2.594 2.624 2.684 2.764 2.824
2401.578 2.904 2.994 3.074 3.064 3.054 3.134 3.184 3.174 3.164 3.224
2420.867 3.254 3.244 3.224 3.154 3.144 3.174 3.124 3.044 3.004 3.044
2440.157 3.024 2.884 2.844 2.864 2.804 2.724 2.664 2.584 2.444 2.414
2459.447 2.374 2.344 2.334 2.374 2.484 2.514 2.444 2.414 2.464 2.504
2478.737 2.574 2.594 2.614 2.734 2.844 2.984 3.114 3.134 3.214 3.284
2498.026 3.314 3.364 3.354 3.364 3.364 3.384 3.354 3.294 3.314 3.274
2517.316 3.194 3.114 3.104 3.134 3.144 3.144 3.144 3.214 3.334 3.364
2536.606 3.404 3.444 3.504 3.624 3.694 3.794 3.884 4.004 4.164 4.334
2555.896 4.474 4.604 4.724 4.804 5.024 5.294 5.544 5.724 5.914 6.154
2575.186 6.284 6.274 6.204 6.264 6.254 6.034 5.724 5.274 4.814 4.464
2594.475 4.124 3.844 3.494 3.074 2.784 2.534 2.364 2.234 2.124 1.984
2613.765 1.904 1.824 1.674 1.694 1.664 1.534 1.464 1.474 1.434 1.3354
2633.055 1.364 1.404 1.2827 1.2932 1.424 1.3265 1.2562 1.3153 1.2785 1.2921
2652.345 1.3043 1.2364 1.1902 1.1638 1.2123 1.2373 1.2132 1.1974 1.2151 1.2482
2671.634 1.2093 1.1679 1.1844 1.2031 1.2219 1.2107 1.1972 1.2473 1.2932 1.2554
2690.924 1.2305 1.2796 1.434 1.554 1.594 1.574 1.534 1.564 1.554 1.604
2710.214 1.694 1.664 1.634 1.694 1.734 1.764 1.794 1.864 1.924 1.944
2729.504 2.064 2.124 2.144 2.164 2.174 2.324 2.454 2.524 2.554 2.574
2748.794 2.594 2.694 2.794 2.854 2.914 3.074 3.164 3.214 3.224 3.184
2768.083 3.234 3.284 3.344 3.274 3.234 3.194 3.064 3.004 2.874 2.714
2787.373 2.604 2.534 2.484 2.414 2.304 2.194 2.114 2.074 2.034 2.074
2806.663 2.064 2.074 2.094 2.134 2.234 2.264 2.234 2.274 2.454 2.544
2825.953 2.474 2.494 2.614 2.794 2.944 3.044 3.234 3.614 3.954 4.424
2845.242 4.974 5.504 5.934 6.204 6.154 5.814 5.254 4.644 4.194 3.714
2864.532 3.434 3.294 3.134 3.134 3.104 2.994 2.994 3.074 3.074 3.124
2883.822 3.274 3.364 3.334 3.434 3.684 3.834 3.964 4.104 4.334 4.464
2903.112 4.514 4.624 4.824 5.044 5.034 5.124 5.314 5.274 5.174 5.164
2922.401 5.114 4.964 4.874 4.784 4.774 4.894 5.094 5.394 5.664 5.934
2941.691 6.394 7.074 7.984 9.174 10.784 12.934 15.924 19.674 23.784 27.624
2960.981 29.644 29.714 28.774 26.394 22.544 17.934 13.844 10.944 9.044 7.754
2980.271 6.924 6.454 5.974 5.904 6.044 6.084 6.274 6.534 6.834 7.084
2999.561 7.314 7.564 7.754 7.724 7.564 7.294 7.094 6.954 6.624 6.404
3018.850 6.284 6.184 6.214 6.334 6.474 6.724 6.924 6.994 7.094 7.054
3038.140 6.844 6.694 6.454 6.084 5.744 5.524 5.294 5.004 4.754 4.484
3057.430 4.314 4.384 4.574 4.714 5.054 5.494 5.914 6.544 7.114 7.654
3076.720 7.994 8.054 8.044 7.884 7.494 6.934 6.404 5.844 5.294 4.904
3096.009 4.604 4.214 3.964 3.834 3.384 3.104 2.944 2.794 2.594 2.244
3115.299 2.024 1.784 1.584 1.444 1.3327 1.1984 1.2123 1.145 0.8694 0.8378
3134.589 0.9449 0.8484 0.9039 0.9198 0.8482 0.8675 0.8801 0.9459 0.7943 0.6971
3153.879 0.8555 0.8409 0.7896 0.7909 0.6933 0.639 0.8038 0.9305 0.7948 0.7598
3173.169 0.6847 0.6946 0.7473 0.653 0.6306 0.6209 0.6264 0.6122 0.5253 0.5033
3192.458 0.6079 0.6581 0.531 0.5455 0.6201 0.5585 0.512 0.38503 0.38083 0.4487
3211.748 0.34412 0.3433 0.38518 0.38305 0.2958 0.26 0.3392 0.37806 0.2542 0.189
3231.038 0.25 0.2885 0.40114 0.34403 0.2871 0.43513 0.44416 0.38159 0.306 0.225
3250.328 0.223 0.159 0.248 0.362924 0.356445 0.3086 0.056 0.035 0.221 0.224
3269.617 0.142 0.072 0.088 0 0.041 0.2594 0.277 0.168 0.177 0.3136
3288.907 0.2738 0.139 0.146 0.2758 0.35767 0.2725 0.286 0.244 0.236 0.40388
3308.197 0.326 0.215 0.193 0.41129 0.584 0.43992 0.39579 0.3003 0.237 0.2717
3327.487 0.3302 0.356179 0.4769 0.41823 0.2668 0.42042 0.5056 0.41613 0.40332 0.41647
3346.777 0.37481 0.3074 0.231 0.3077 0.36691 0.3266 0.2661 0.25 0.233 0.249
3366.066 0.35008 0.3295 0.36605 0.3406 0.2631 0.2946 0.40236 0.39938 0.3369 0.42289
3385.356 0.45399 0.42939 0.36852 0.37282 0.34503 0.39165 0.42122 0.2808 0.37197 0.4174
3404.646 0.3142 0.2569 0.239 0.2678 0.3018 0.3329 0.212 0.197 0.24 0.359109
3423.936 0.4807 0.5437 0.6747 0.6521 0.6323 0.6399 0.4845 0.43984 0.5024 0.5833
3443.225 0.6853 0.6868 0.671 0.7618 0.8035 0.8703 0.8456 0.7268 0.8138 0.8814
3462.515 1.0138 1.1503 1.2105 1.1837 1.384 1.654 1.744 2.004 2.154 2.224
3481.805 2.164 2.004 1.754 1.454 1.364 1.2737 1.0443 0.8037 0.7687 0.8423
3501.095 0.8264 0.8016 0.7992 0.7077 0.6783 0.6286 0.5338 0.5207 0.4802 0.4402
3520.385 0.4598 0.4548 0.4007 0.3748 0.36594 0.44242 0.573 0.6012 0.43156 0.45307
3539.674 0.5666 0.5093 0.461 0.45224 0.3214 0.3207 0.5425 0.38768 0.187 0.3439
3558.964 0.4936 0.5227 0.43836 0.37112 0.43888 0.4557 0.39397 0.37154 0.43194 0.546
3578.254 0.36922 0.206 0.39081 0.37716 0.215 0.217 0.35258 0.44031 0.5405 0.5965
3597.544 0.5061 0.43413 0.44275 0.4052 0.34413 0.39603 0.359164 0.2827 0.343 0.42395
3616.833 0.40767 0.3331 0.246 0.2892 0.3886 0.40186 0.356357 0.39244 0.448 0.39734
3636.123 0.3266 0.3084 0.3356 0.36832 0.4881 0.4681 0.3401 0.3234 0.41227 0.4798
3655.413 0.34 0.3282 0.41978 0.4998 0.591 0.599 0.5025 0.264 0.212 0.268
3674.703 0.38082 0.5303 0.5278 0.4745 0.44312 0.43337 0.43294 0.42754 0.4579 0.5401
3693.993 0.6116 0.5264 0.43019 0.43785 0.4976 0.6527 0.6052 0.5299 0.5452 0.56
3713.282 0.6123 0.5442 0.44058 0.40752 0.41489 0.43202 0.39318 0.4114 0.41522 0.41977
3732.572 0.356998 0.3357 0.5536 0.611 0.5742 0.5115 0.38557 0.4775 0.5377 0.4986
3751.862 0.5077 0.4635 0.559 0.6826 0.6645 0.7401 0.7621 0.6021 0.5642 0.8088
3771.152 0.7731 0.6544 0.6684 0.5068 0.5149 0.5293 0.5169 0.5758 0.6056 0.6189
3790.441 0.5141 0.6323 0.797 0.646 0.5773 0.6015 0.5799 0.5921 0.6076 0.6062
3809.731 0.5521 0.6511 0.7482 0.6382 0.5764 0.5906 0.6707 0.5786 0.5316 0.5615
3829.021 0.4837 0.4941 0.4732 0.4598 0.5552 0.7093 0.6906 0.6284 0.6211 0.703
3848.311 0.7922 0.7447 0.6826 0.7546 0.8381 0.7734 0.7056 0.6644 0.809 0.9348
3867.601 0.8835 0.7628 0.7057 0.7091 0.7724 0.7907 0.79 0.7326 0.7949 0.8957
3886.890 0.7427 0.7406 0.8909 0.8507 0.8141 0.9798 1.1052 1.0521 0.9449 0.9659
3906.180 1.077 1.1126 1.113 1.125 0.9878 0.9222 0.9939 0.9832 1.2243 1.424
3925.470 1.3434 1.208 1.2011 1.2926 1.2033 1.167 1.1941 1.219 1.1767 1.1162
3944.760 1.2337 1.3169 1.3202 1.404 1.484 1.504 1.584 1.644 1.704 1.734
3964.049 1.574 1.554 1.584 1.494 1.394 1.444 1.614 1.624 1.544 1.584
3983.339 1.544 1.554 1.544 1.534 1.664 1.674 1.594 1.514 1.534 1.724
##END=
