##TITLE=3-Cyanophenyl isothiocyanate
##JCAMP-DX=4.24
##DATA TYPE=INFRARED SPECTRUM
##ORIGIN=EPA-IR VAPOR PHASE LIBRARY
##OWNER=SRD/NIST
Collection (C) 2018 copyright by the U.S. Secretary of Commerce
on behalf of the United States of America. All rights reserved.
##CAS REGISTRY NO=3125-78-8
##MOLFORM=C 8 H 4 N 2 S
##$NIST SOURCE=MSDC-IR
##STATE=gas
##XUNITS=1/CM
##YUNITS=ABSORBANCE
##XFACTOR=1.
##YFACTOR=0.001
##DELTAX=1.92898
##FIRSTX=549.8
##LASTX=4000.7
##FIRSTY=17.167
##MAXX=4000.7
##MINX=549.759
##MAXY=0.705517
##MINY=0
##NPOINTS=1790
##XYDATA=(X++(Y..Y))
549.759 17.167 19.007 21.197 22.357 23.667 25.147 25.837 26.007 25.407 24.447
569.049 22.937 20.647 19.147 17.947 16.937 15.347 13.977 13.807 12.787 12.367
588.339 12.917 12.567 11.837 11.637 11.317 11.047 10.777 9.987 9.677 9.517
607.628 9.167 8.817 8.297 7.917 7.297 6.707 6.767 7.107 6.877 6.567
626.918 6.757 6.817 6.877 7.397 7.807 8.097 8.637 8.617 8.577 8.467
646.208 8.017 7.727 7.367 7.077 7.097 7.237 7.887 9.017 10.317 12.207
665.498 15.047 18.667 21.547 23.737 26.887 30.397 34.537 35.287 30.497 25.777
684.787 23.117 20.977 18.137 15.467 12.917 10.417 8.557 7.237 6.387 5.647
704.077 5.087 4.827 4.577 4.077 3.867 3.757 3.667 3.277 2.797 2.867
723.367 3.137 3.297 3.577 3.927 3.977 4.157 4.627 4.957 5.527 6.437
742.657 6.987 7.467 8.137 8.907 9.297 9.007 8.467 7.967 7.457 7.277
761.947 7.267 7.387 7.817 9.007 11.177 13.647 17.007 21.807 27.627 33.767
781.236 39.677 46.057 53.587 61.957 69.327 72.537 70.367 66.487 64.447 62.917
800.526 59.797 55.467 50.637 46.527 43.387 39.987 36.797 33.697 30.857 28.057
819.816 25.167 21.947 17.587 14.657 12.787 11.197 9.977 8.807 7.857 6.827
839.106 6.257 5.687 5.267 4.917 4.277 3.927 3.837 3.767 3.687 3.807
858.395 3.637 3.367 3.997 4.607 4.877 5.687 7.187 9.067 11.027 13.227
877.685 15.367 17.417 19.587 21.477 23.527 24.457 23.347 21.257 19.117 17.177
896.975 15.097 13.657 12.237 10.347 8.947 7.737 6.987 6.387 5.887 5.317
916.265 4.557 4.367 4.227 4.097 4.287 4.397 4.257 4.067 3.967 3.587
935.555 3.357 3.357 2.907 2.567 2.247 2.117 2.297 2.257 2.477 2.727
954.844 2.937 3.327 3.387 3.267 3.577 4.217 4.687 5.397 6.487 7.607
974.134 8.707 10.387 12.207 14.157 15.947 16.917 17.127 16.797 16.057 14.537
993.424 13.197 11.857 10.657 9.477 8.657 8.357 7.977 7.737 7.107 6.007
1012.714 4.857 4.667 4.347 3.777 3.727 3.647 3.507 3.917 3.877 2.777
1032.003 2.497 3.007 2.857 2.277 2.407 2.627 2.727 3.017 3.027 2.907
1051.293 2.877 3.027 3.077 3.017 2.657 2.347 1.927 1.612 1.807 1.907
1070.583 2.357 3.267 4.607 4.997 4.487 4.747 5.167 5.367 5.577 5.497
1089.873 6.157 5.877 5.877 5.237 4.007 4.407 3.107 2.367 2.947 3.497
1109.163 3.087 2.057 1.977 1.2993 1.3837 2.377 2.317 1.907 1.6112 1.5911
1128.452 2.517 2.837 1.857 2.167 2.437 1.947 2.817 3.617 3.147 2.947
1147.742 3.017 2.757 3.857 3.957 3.047 3.427 3.987 3.847 3.517 3.677
1167.032 3.647 3.147 2.747 2.927 2.937 1.997 2.327 3.337 3.327 2.997
1186.322 2.567 1.887 1.3987 2.277 2.887 3.067 3.507 3.267 2.977 3.417
1205.611 3.227 2.987 2.837 2.187 2.357 3.367 2.767 2.467 3.527 3.847
1224.901 3.857 3.017 3.187 3.347 3.837 4.387 4.407 4.377 4.207 4.407
1244.191 4.877 5.247 5.407 5.827 6.367 7.177 7.667 8.367 9.587 10.797
1263.481 12.097 13.797 15.637 17.317 18.717 20.327 21.497 21.857 21.557 20.447
1282.771 18.407 15.617 12.977 10.397 8.127 6.497 5.437 4.617 4.257 4.367
1302.060 4.967 5.677 6.087 6.567 6.787 6.377 5.997 5.597 4.767 3.727
1321.350 2.717 2.097 1.807 1.553 1.4805 1.6261 1.747 1.847 1.847 1.887
1340.640 2.037 2.097 2.157 2.197 2.237 2.227 2.157 2.137 2.267 2.307
1359.930 2.137 2.197 2.367 2.357 2.177 2.037 1.957 1.907 1.857 1.777
1379.219 1.717 1.727 1.727 1.697 1.687 1.747 2.017 2.117 2.017 2.287
1398.509 2.437 2.617 3.057 3.647 4.437 5.587 7.167 9.157 11.407 13.627
1417.799 15.417 16.857 17.757 17.997 17.817 16.957 15.377 13.657 12.387 11.337
1437.089 10.287 9.667 9.167 8.567 8.107 7.847 7.667 7.377 7.187 7.277
1456.378 7.707 8.597 10.257 12.817 16.167 20.837 26.957 33.817 40.427 45.897
1475.668 48.677 49.177 48.357 45.627 40.577 34.337 27.777 22.327 18.277 15.407
1494.958 13.057 10.827 8.887 7.227 6.207 5.727 5.407 5.037 4.827 4.697
1514.248 4.587 4.527 4.397 4.267 4.327 4.467 4.397 4.547 4.907 5.087
1533.538 5.397 5.807 6.137 6.497 6.937 7.457 8.137 8.917 9.937 11.077
1552.827 12.617 14.777 17.157 20.487 24.717 29.227 34.907 41.417 48.407 56.157
1572.117 63.767 70.387 76.097 80.367 82.967 83.927 83.867 83.417 82.367 81.447
1591.407 81.007 80.567 79.157 76.447 72.387 67.127 60.877 54.147 47.777 42.157
1610.697 37.407 33.167 29.577 26.097 22.617 19.797 17.587 15.697 14.097 12.797
1629.986 11.637 10.747 9.997 9.197 8.537 8.117 7.827 7.477 7.127 6.887
1649.276 6.727 6.447 6.067 6.017 5.897 5.797 5.797 5.567 5.297 5.087
1668.566 4.857 4.687 4.517 4.327 4.527 4.727 4.587 4.647 5.027 5.317
1687.856 5.517 5.737 5.917 5.997 5.857 5.587 5.277 4.927 4.547 4.067
1707.146 3.697 3.547 3.397 3.227 3.107 3.037 3.147 3.217 3.117 3.017
1726.435 3.007 2.937 2.907 2.797 2.737 2.897 2.937 2.827 2.817 2.927
1745.725 3.077 3.087 3.127 3.397 3.717 4.027 4.207 4.287 4.427 4.627
1765.015 4.807 4.967 4.997 4.887 4.957 5.097 5.087 5.037 5.167 5.347
1784.305 5.457 5.587 5.807 6.007 6.117 6.287 6.517 6.827 7.177 7.447
1803.594 7.667 7.907 8.067 8.107 8.077 8.047 7.917 7.577 7.167 6.787
1822.884 6.477 6.197 5.997 5.967 6.047 6.047 6.057 6.087 6.117 6.157
1842.174 6.237 6.317 6.277 6.297 6.417 6.457 6.347 6.397 6.667 6.937
1861.464 7.227 7.577 8.057 8.597 9.277 9.977 10.557 11.197 11.667 12.057
1880.754 12.457 12.667 12.737 12.787 12.957 13.267 13.737 14.387 15.207 16.117
1900.043 17.067 18.117 19.367 20.677 22.207 24.017 25.817 27.607 29.637 31.987
1919.333 34.517 37.247 40.177 43.387 47.027 51.087 55.597 60.267 65.317 70.917
1938.623 76.927 83.267 89.787 96.507 103.417 110.417 117.307 123.987 130.557 137.187
1957.913 143.607 149.727 155.787 161.837 168.067 174.667 181.817 189.737 198.307 207.647
1977.202 217.797 228.507 239.417 250.157 260.777 271.077 281.247 291.087 300.547 309.877
1996.492 319.217 328.717 338.487 348.887 359.977 372.127 385.817 401.567 420.237 443.227
2015.782 471.177 504.427 542.247 583.417 625.407 663.567 692.167 705.517 702.807 685.187
2035.072 653.667 611.467 562.367 510.077 458.247 409.977 367.317 330.877 300.457 276.367
2054.362 258.277 246.037 239.577 238.047 240.807 247.607 257.567 269.707 283.187 297.207
2073.651 311.227 324.057 334.727 342.867 347.737 348.917 346.077 339.297 329.417 316.487
2092.941 300.837 283.417 265.017 246.447 228.397 211.447 195.687 181.427 168.747 157.357
2112.231 147.527 138.957 131.667 125.687 120.527 116.417 113.147 110.337 108.007 106.247
2131.521 104.717 103.557 102.847 102.007 101.037 99.757 97.867 95.167 91.407 86.517
2150.810 80.967 74.847 68.607 62.827 57.377 52.497 48.277 44.627 41.337 38.437
2170.100 35.957 33.707 31.667 29.857 28.117 26.607 25.347 23.917 22.557 21.237
2189.390 19.917 18.827 17.787 16.797 15.957 15.207 14.437 13.797 13.347 12.927
2208.680 12.707 12.637 12.617 12.707 12.967 13.287 13.497 14.137 14.917 15.527
2227.970 16.237 16.817 17.247 17.427 17.367 17.037 16.427 15.857 15.117 14.257
2247.259 13.677 13.207 13.027 13.117 13.057 13.177 13.307 13.007 12.737 12.367
2266.549 11.597 10.797 10.097 9.267 8.387 7.867 7.277 6.697 6.277 5.827
2285.839 5.587 5.347 5.207 5.187 5.107 5.047 4.967 5.057 5.237 5.207
2305.129 5.107 4.967 4.977 5.147 4.997 4.637 4.607 4.537 4.227 4.087
2324.418 4.047 3.827 3.657 3.597 3.637 3.667 3.577 3.677 3.787 3.477
2343.708 3.237 3.287 3.217 3.337 3.527 3.557 3.817 3.877 3.657 3.617
2362.998 3.797 3.787 3.717 3.837 3.837 3.797 3.827 3.817 3.827 3.807
2382.288 3.687 3.717 3.797 3.797 3.767 3.857 4.087 4.127 4.017 4.117
2401.578 4.507 4.737 4.757 4.797 4.897 5.037 5.187 5.467 5.867 6.137
2420.867 6.377 6.597 6.877 6.977 6.767 6.687 6.507 6.287 6.117 5.777
2440.157 5.557 5.447 5.317 4.947 4.637 4.507 4.237 4.217 4.287 4.277
2459.447 4.237 4.247 4.287 4.307 4.277 4.267 4.307 4.217 4.127 4.187
2478.737 4.377 4.297 4.277 4.397 4.347 4.407 4.517 4.577 4.607 4.687
2498.026 4.767 4.867 5.117 5.297 5.507 5.627 5.687 5.697 5.867 6.157
2517.316 6.167 6.427 6.727 6.907 7.067 7.167 7.477 7.757 8.087 8.307
2536.606 8.437 8.747 9.197 9.397 9.387 9.597 9.837 10.097 10.437 11.037
2555.896 11.477 11.657 11.967 12.137 12.097 12.017 11.847 11.277 10.517 10.067
2575.186 9.667 9.287 8.957 8.277 7.627 7.237 6.947 6.777 6.357 6.167
2594.475 5.937 5.457 5.237 4.917 4.577 4.427 4.117 3.647 3.377 3.177
2613.765 3.027 2.847 2.757 2.797 2.827 2.877 2.747 2.527 2.637 2.777
2633.055 2.727 2.557 2.387 2.507 2.627 2.537 2.397 2.347 2.387 2.457
2652.345 2.547 2.487 2.387 2.487 2.347 2.297 2.457 2.637 2.667 2.707
2671.634 2.767 2.707 2.767 2.767 3.017 3.037 2.997 3.207 3.337 3.487
2690.924 3.557 3.727 3.767 3.687 3.747 3.947 4.227 4.217 4.087 4.137
2710.214 4.317 4.297 4.217 4.177 4.267 4.137 4.057 4.157 4.107 4.147
2729.504 3.917 3.607 3.567 3.727 3.897 3.887 3.787 3.687 3.597 3.567
2748.794 3.567 3.557 3.427 3.307 3.167 3.027 3.147 3.317 3.437 3.457
2768.083 3.517 3.647 3.617 3.337 3.217 3.357 3.467 3.537 3.547 3.467
2787.373 3.497 3.527 3.617 3.587 3.327 3.297 3.547 3.717 3.587 3.557
2806.663 3.667 3.507 3.517 3.667 3.647 3.937 4.367 4.457 4.327 4.437
2825.953 4.517 4.467 4.577 4.677 4.717 4.537 4.387 4.387 4.407 4.467
2845.242 4.297 4.407 4.477 4.107 3.817 3.777 3.797 3.507 3.367 3.447
2864.532 3.187 2.827 2.747 2.847 2.807 2.497 2.437 2.497 2.337 2.107
2883.822 2.027 2.157 2.187 2.317 2.347 2.367 2.387 2.097 2.317 2.407
2903.112 2.277 2.437 2.417 2.407 2.587 2.517 2.237 2.327 2.437 2.817
2922.401 3.097 2.847 2.707 2.647 2.727 2.837 2.747 2.807 2.827 2.817
2941.691 2.897 2.687 2.457 2.347 2.497 2.577 2.457 2.307 2.277 2.297
2960.981 2.497 2.637 2.567 2.707 2.567 2.337 2.137 1.867 1.867 1.977
2980.271 2.037 2.117 2.207 2.177 2.087 2.247 2.207 2.227 2.417 2.207
2999.561 2.197 2.027 1.857 2.207 2.257 2.397 2.577 2.397 2.437 2.567
3018.850 2.667 2.607 2.457 2.487 2.717 3.057 3.097 2.897 3.077 3.287
3038.140 3.207 3.477 3.547 3.437 3.317 2.977 2.817 2.777 2.437 2.377
3057.430 2.927 3.037 2.957 3.127 3.577 3.937 4.167 4.817 5.737 6.167
3076.720 6.497 6.877 7.017 6.957 6.587 6.417 6.347 5.587 4.897 4.587
3096.009 4.117 3.677 3.507 3.327 2.987 2.787 2.377 1.907 2.047 2.067
3115.299 1.6722 1.4969 1.5012 1.153 1.0215 1.1703 1.0894 0.9882 0.74856 0.8163
3134.589 0.8975 0.8256 0.8087 0.7753 0.8573 0.8698 0.71917 0.55 0.6434 0.68395
3153.879 0.74872 0.8067 0.6594 0.6704 0.572 0.578 0.5891 0.6231 0.6502 0.472
3173.169 0.051 0.172 0.512 0.487 0.6439 0.71877 0.7937 0.7921 0.545 0.308
3192.458 0.471 0.494 0.8051 1.0835 0.8561 0.579 0.425 0.6381 0.514 0.469
3211.748 0.7416 0.6101 0.414 0.336 0.421 0.6197 0.533 0.53 0.6672 0.587
3231.038 0.478 0.528 0.544 0.6309 0.8192 0.6055 0.456 0.557 0.691191 0.6318
3250.328 0.428 0.269 0.089 0.318 0.339 0.449 0.8823 0.9264 0.71504 0.506
3269.617 0.576 0.561 0.491 0.566 0.544 0.419 0.573 0.6195 0.333 0.385
3288.907 0.582 0.432 0.389 0.6709 0.8995 0.8136 0.6658 0.346 0.426 0.542
3308.197 0.6563 0.9248 0.6508 0.559 0.6534 0.69784 0.74118 0.72992 0.407 0.47
3327.487 0.6358 0.6272 0.367 0.264 0.273 0.311 0.305 0.161 0.473 0.7706
3346.777 0.9498 0.8242 1.1247 1.19 0.6719 0.321 0.364 0.545 0.569 0.573
3366.066 0.577 0.7112 0.577 0.476 0.586 0.70709 0.70323 0.8781 0.8902 0.6757
3385.356 0.8223 1.2238 1.4002 1.0866 1.1287 1.2954 0.954 0.7198 0.7121 0.7549
3404.646 0.68284 0.76744 0.8483 0.68585 0.73291 0.497 0.43 0.805 0.8886 0.9109
3423.936 0.9491 0.517 0.16 0.423 0.537 0.32 0.271 0.5895 0.6645 0.5883
3443.225 0.9067 0.9718 0.8813 0.9922 0.8902 0.532 0.361 0.553 0.6229 0.479
3462.515 0.70452 0.7527 0.465 0.456 0.6168 0.566 0.6632 1.164 1.2451 0.87
3481.805 0.74925 0.7975 0.8096 0.9281 0.8523 0.8633 0.583 0.322 0.6716 0.8068
3501.095 0.8563 0.9466 1.0151 0.9995 0.9036 0.7388 0.68189 1.0185 0.8898 0.493
3520.385 0.5889 0.7981 0.8591 0.9515 0.819 0.689022 0.6599 0.8237 0.8463 0.521
3539.674 0.5944 0.9358 1.1129 1.0546 0.8878 0.8656 0.8225 0.8883 0.9518 0.71182
3558.964 0.72771 0.9335 0.8088 0.377 0.266 0.5962 0.5928 0.8178 1.1162 0.8579
3578.254 0.6354 0.8078 0.8573 0.6627 0.6674 0.371 0.535 0.8234 0.6317 0.7913
3597.544 1.0967 1.0462 0.68361 0.575 0.8114 1.0101 0.76169 0.575 0.7333 0.9102
3616.833 1.0826 0.8072 0.332 0.409 0.5891 0.73909 0.77366 0.57 0.529 0.535
3636.123 0.6093 0.8509 0.9618 0.878 0.72094 0.26 0 0.339 0.6485 0.427
3655.413 0.6451 0.8531 0.7898 1.0575 1.0224 0.9515 0.8637 0.9437 0.9202 0.562
3674.703 1.0243 1.4114 0.8793 0.6026 0.70671 0.75561 0.602 0.6133 0.72731 1.0575
3693.993 1.2123 0.9867 0.8526 0.982 1.2624 1.2203 1.0413 1.0486 1.1478 1.0071
3713.282 1.0143 1.0613 0.67938 0.6185 0.7263 0.76034 0.9365 1.1215 1.3983 1.3928
3732.572 1.1333 0.9392 0.8436 0.8521 0.8912 0.997 1.0689 1.0903 1.2706 1.1984
3751.862 0.9308 0.9514 1.024 1.2338 1.4834 1.2249 0.9971 1.0967 1.1488 1.0524
3771.152 0.9811 0.9746 0.9242 1.0586 1.1658 0.9379 1.0656 1.0339 1.0026 1.1607
3790.441 1.0354 1.1685 1.2381 1.2648 1.3932 1.5099 1.0216 0.70511 0.9727 1.0307
3809.731 0.8616 0.9176 1.1493 1.0602 1.142 1.3469 1.3735 1.3668 1.138 1.1341
3829.021 1.3784 1.0966 0.9963 1.065 0.8866 0.8096 0.76429 1.1512 1.3722 1.0751
3848.311 1.076 1.2366 1.2011 1.0156 0.9647 1.0842 0.9525 0.8757 1.1321 1.5143
3867.601 1.717 1.747 1.5999 1.1991 1.2194 1.351 1.5255 1.5032 1.6288 1.6009
3886.890 1.2038 1.5876 1.797 1.877 1.807 1.5255 1.877 1.927 2.117 2.337
3906.180 1.817 1.5633 1.777 1.807 1.767 1.807 1.6439 1.4871 1.6275 1.907
3925.470 2.137 2.307 2.077 1.947 2.127 2.267 2.257 2.367 2.657 2.747
3944.760 2.737 2.617 2.467 2.497 2.217 2.127 2.267 2.177 2.407 2.767
3964.049 3.117 2.837 2.277 2.217 2.277 2.477 2.677 2.837 2.867 2.597
3983.339 2.647 2.767 2.617 2.747 2.637 2.487 2.737 3.007 2.787 2.527
##END=
