##TITLE=1-Methyl-3-n-propyl-2-pyrazolin-5-one
##JCAMP-DX=4.24
##DATA TYPE=INFRARED SPECTRUM
##ORIGIN=EPA-IR VAPOR PHASE LIBRARY
##OWNER=SRD/NIST
Collection (C) 2018 copyright by the U.S. Secretary of Commerce
on behalf of the United States of America. All rights reserved.
##CAS REGISTRY NO=31272-04-5
##MOLFORM=C 7 H 12 N 2 O
##$NIST SOURCE=MSDC-IR
##STATE=gas
##XUNITS=1/CM
##YUNITS=ABSORBANCE
##XFACTOR=1.
##YFACTOR=0.001
##DELTAX=1.92898
##FIRSTX=549.8
##LASTX=4000.7
##FIRSTY=1.909
##MAXX=4000.7
##MINX=549.759
##MAXY=0.147909
##MINY=0
##NPOINTS=1790
##XYDATA=(X++(Y..Y))
549.759 1.909 1.509 1.2315 1.579 1.599 1.639 1.899 1.729 1.959 2.009
569.049 1.649 1.469 1.2444 1.4095 1.959 1.849 1.3603 1.569 1.789 1.449
588.339 1.0518 1.1823 1.2143 1.499 1.989 1.949 1.549 1.4144 1.669 1.689
607.628 1.619 1.639 1.759 1.829 1.819 1.839 1.759 1.3986 1.539 1.959
626.918 1.809 1.749 1.689 1.669 1.839 2.199 2.649 2.869 3.429 3.619
646.208 3.939 4.879 5.509 6.149 6.639 6.789 6.879 6.569 6.229 5.699
665.498 4.659 3.949 3.379 3.029 2.819 2.249 1.679 1.2262 1.0769 1.3456
684.787 1.2857 1.3033 1.479 1.489 1.3266 1.286 1.3547 1.1212 1.2943 1.4304
704.077 0.9764 0.562 0.7344 0.8598 0.8611 1.056 1.2147 1.2305 1.271 1.439
723.367 1.449 1.2716 1.1188 1.2485 1.4366 1.3224 1.3422 1.3787 1.0288 1.1832
742.657 1.719 1.609 1.3304 1.4289 1.2673 1.0439 1.2257 1.3945 1.499 1.539
761.947 1.4347 1.689 1.789 1.539 1.519 1.479 1.699 1.719 1.3267 1.2069
781.236 1.459 1.489 1.0416 1.1183 1.689 1.879 1.769 1.433 1.2406 1.599
800.526 1.619 1.629 1.539 1.709 2.399 2.279 1.819 1.364 1.193 1.4245
819.816 1.649 1.459 1.2968 1.3535 1.1599 1.1362 1.549 1.4373 1.0757 0.9969
839.106 1.0657 1.449 1.519 1.1796 0.9868 1.08 1.3674 1.3194 1.3858 1.789
858.395 1.869 1.899 1.889 2.069 2.319 2.369 2.619 2.599 2.269 2.619
877.685 2.999 2.549 2.159 2.329 2.449 2.429 2.469 2.659 3.169 3.169
896.975 2.829 2.859 2.999 3.339 3.249 3.099 3.349 3.279 2.959 2.709
916.265 2.929 2.919 2.659 2.509 2.219 2.109 2.309 2.339 2.189 2.159
935.555 2.249 2.099 1.669 1.589 1.799 2.119 2.359 2.429 2.549 3.019
954.844 3.679 4.109 4.819 6.099 7.019 8.089 9.689 11.129 12.399 13.359
974.134 13.819 13.999 13.479 12.879 12.289 11.119 9.559 7.629 6.049 4.859
993.424 4.169 3.549 2.679 2.299 2.389 1.779 1.184 1.549 1.449 1.539
1012.714 1.669 1.579 1.829 1.689 1.4331 1.579 1.779 1.789 2.099 2.219
1032.003 2.019 1.3636 1.3451 1.599 1.1641 0.9185 1.1669 1.479 1.27 0.6632
1051.293 1.011 2.069 1.689 1.629 2.059 1.959 2.389 2.739 3.379 3.699
1070.583 3.549 3.959 3.789 3.939 4.239 4.339 5.109 6.159 6.219 4.839
1089.873 4.389 5.249 4.849 3.959 4.239 4.189 3.759 3.769 3.609 2.819
1109.163 2.519 2.859 3.139 3.329 3.709 3.839 3.769 4.159 4.149 3.639
1128.452 3.449 3.819 3.559 3.029 3.299 3.879 3.229 3.479 3.799 3.309
1147.742 3.319 3.669 4.709 4.249 3.969 3.989 3.849 3.739 3.719 3.569
1167.032 3.869 4.189 3.609 3.399 3.069 2.919 2.699 2.139 1.679 2.029
1186.322 2.439 2.099 2.419 2.789 2.609 2.459 2.539 2.699 3.289 4.129
1205.611 4.479 4.539 4.559 5.209 5.669 5.899 6.379 6.839 6.759 6.529
1224.901 7.909 8.499 7.709 8.299 8.849 9.429 9.859 9.459 9.929 10.529
1244.191 10.219 9.829 9.449 9.059 8.569 8.039 7.369 6.819 6.799 6.169
1263.481 5.939 5.799 5.559 5.529 5.359 5.599 5.719 5.629 5.809 5.759
1282.771 5.909 6.389 6.599 6.849 7.059 7.249 7.599 8.089 8.429 8.689
1302.060 8.899 9.089 9.309 9.479 9.759 9.859 9.989 10.279 10.319 10.339
1321.350 10.549 10.849 11.109 11.199 11.359 11.719 12.019 12.189 12.399 12.719
1340.640 13.049 13.259 13.369 13.649 13.899 14.249 14.889 15.369 15.589 15.949
1359.930 16.519 16.909 17.339 17.819 18.219 18.659 18.939 19.089 19.309 19.209
1379.219 18.739 18.339 17.879 17.109 16.159 15.229 14.259 13.259 12.189 10.989
1398.509 9.819 8.979 8.289 7.609 7.099 6.759 6.609 6.489 6.309 6.229
1417.799 6.289 6.289 6.159 5.999 5.879 5.619 5.309 5.189 5.259 5.219
1437.089 5.149 5.139 5.069 5.079 5.189 5.369 5.609 5.689 5.779 5.939
1456.378 6.009 6.119 6.039 5.999 6.059 6.009 5.879 5.739 5.529 5.339
1475.668 5.219 4.989 4.709 4.369 4.029 3.729 3.479 3.369 3.229 2.939
1494.958 2.699 2.669 2.669 2.649 2.579 2.499 2.439 2.539 2.609 2.459
1514.248 2.439 2.439 2.419 2.389 2.369 2.489 2.619 2.709 2.819 2.659
1533.538 2.579 2.829 3.009 3.139 3.329 3.459 3.669 3.859 4.119 4.439
1552.827 4.739 4.919 4.849 4.999 4.999 4.799 4.539 4.339 4.129 3.739
1572.117 3.569 3.459 3.249 3.099 3.159 3.109 3.059 3.119 3.099 3.219
1591.407 3.299 3.099 2.999 3.029 3.019 2.859 2.629 2.399 2.269 2.199
1610.697 2.049 1.939 1.699 1.669 1.599 1.549 1.449 1.2674 1.479 1.689
1629.986 1.639 1.609 1.609 1.599 1.639 1.699 1.659 1.4263 1.489 1.789
1649.276 1.869 1.869 1.769 1.769 1.919 1.909 2.019 2.079 2.029 2.229
1668.566 2.419 2.529 2.679 2.779 2.929 3.099 3.319 3.579 3.929 4.289
1687.856 4.759 5.399 5.869 6.319 6.719 7.099 7.619 8.119 8.739 9.579
1707.146 10.529 11.749 13.429 15.679 18.469 21.989 26.609 32.269 39.709 49.329
1726.435 61.379 75.999 92.839 109.829 125.679 137.889 144.889 147.909 147.619 143.749
1745.725 135.279 120.759 100.749 78.689 59.209 44.389 33.579 25.979 20.449 16.379
1765.015 13.489 11.299 9.529 8.219 7.149 6.399 5.799 5.239 4.739 4.449
1784.305 4.139 3.799 3.549 3.239 2.939 2.669 2.619 2.569 2.449 2.319
1803.594 2.219 2.189 2.129 2.069 1.989 1.939 1.899 1.789 1.779 1.659
1822.884 1.559 1.659 1.669 1.659 1.669 1.459 1.3477 1.3939 1.3841 1.3232
1842.174 1.2497 1.2038 1.2017 1.1872 1.1972 1.2536 1.2103 1.1423 1.055 0.9342
1861.464 0.8525 0.9071 0.9474 0.9144 0.8353 0.7849 0.8208 0.8869 0.888 0.8474
1880.754 0.7822 0.7641 0.79 0.7941 0.8405 0.8951 0.8947 0.8936 0.9002 0.8227
1900.043 0.8036 0.7956 0.7398 0.7504 0.8057 0.8977 0.9516 0.8239 0.7584 0.8005
1919.333 0.7932 0.7652 0.7834 0.8901 0.8945 0.8079 0.8242 0.8306 0.7567 0.7601
1938.623 0.749 0.6926 0.7252 0.7186 0.8071 0.8422 0.6984 0.6813 0.7211 0.7699
1957.913 0.7943 0.764 0.8365 0.7927 0.7033 0.7275 0.8103 0.8287 0.7433 0.7648
1977.202 0.7397 0.7892 0.875 0.8272 0.6449 0.50829 0.7315 0.9221 0.8615 0.7493
1996.492 0.705 0.7462 0.658 0.578 0.7001 0.739 0.5948 0.5948 0.7727 0.7797
2015.782 0.6818 0.7127 0.7893 0.8735 0.8408 0.7002 0.6399 0.608 0.7117 0.8027
2035.072 0.768 0.8081 0.8165 0.8375 0.8264 0.6911 0.6757 0.7745 0.7802 0.7245
2054.362 0.6513 0.7039 0.7175 0.5957 0.6293 0.643 0.6268 0.6478 0.614 0.6499
2073.651 0.6911 0.6588 0.6044 0.5983 0.5602 0.5937 0.6891 0.6333 0.6278 0.5057
2092.941 0.4028 0.53299 0.49371 0.489 0.6508 0.654 0.5458 0.6044 0.7023 0.6605
2112.231 0.6266 0.6651 0.6138 0.5908 0.6172 0.5702 0.701 0.7461 0.51956 0.5713
2131.521 0.7677 0.8331 0.8299 0.7789 0.7794 0.8107 0.6904 0.742 0.8089 0.6758
2150.810 0.6735 0.7828 0.9291 0.8348 0.7467 0.8185 0.8375 0.7803 0.8468 0.8961
2170.100 0.8816 0.8861 0.8401 0.8387 0.8291 0.9313 1.004 0.9994 0.9367 0.8125
2189.390 0.7852 0.8105 0.8212 0.8047 0.8595 0.7848 0.7086 0.8175 0.8788 0.8661
2208.680 0.8018 0.7188 0.7951 0.8395 0.8495 0.8564 0.8078 0.7724 0.6941 0.7337
2227.970 0.6567 0.6867 0.8776 0.8444 0.6789 0.6359 0.618 0.6225 0.6335 0.6283
2247.259 0.6874 0.7612 0.7734 0.6988 0.5781 0.6151 0.7658 0.7652 0.7403 0.7864
2266.549 0.78 0.577 0.5606 0.625 0.6055 0.543 0.49241 0.53142 0.5792 0.5546
2285.839 0.5778 0.6414 0.579 0.5816 0.7576 0.8129 0.6426 0.5411 0.5585 0.691
2305.129 0.8208 0.8392 0.6826 0.5383 0.5843 0.6553 0.6208 0.6799 0.7405 0.6999
2324.418 0.6813 0.6972 0.7522 0.698 0.6035 0.6073 0.6232 0.6505 0.7077 0.5904
2343.708 0.5465 0.6129 0.7361 0.6486 0.46077 0.53261 0.5837 0.6523 0.755 0.6434
2362.998 0.48593 0.6503 0.6439 0.62 0.7273 0.656 0.5787 0.51453 0.5908 0.6328
2382.288 0.655 0.7571 0.75 0.7184 0.7563 0.7881 0.6693 0.612 0.7082 0.7224
2401.578 0.6321 0.5866 0.6837 0.7088 0.8412 0.8702 0.6349 0.73 0.7818 0.7321
2420.867 0.8095 0.6696 0.52441 0.51539 0.6443 0.7251 0.7503 0.8386 0.6378 0.5655
2440.157 0.6703 0.6546 0.6086 0.5881 0.52448 0.51471 0.7023 0.7268 0.6305 0.7392
2459.447 0.8292 0.7231 0.5489 0.5637 0.7146 0.6866 0.7306 0.6916 0.7067 0.8541
2478.737 0.7031 0.6808 0.6882 0.6322 0.7376 0.7476 0.7198 0.7216 0.5455 0.51425
2498.026 0.8097 0.956 0.802 0.6057 0.7261 0.8075 0.8217 0.7258 0.5886 0.6298
2517.316 0.7381 0.7266 0.50891 0.5396 0.7219 0.7358 0.6031 0.5983 0.6657 0.6339
2536.606 0.6759 0.7949 0.7898 0.6617 0.6643 0.732 0.6102 0.5619 0.7482 0.846
2555.896 0.8683 0.8491 0.6658 0.53789 0.5878 0.6919 0.741 0.6273 0.5486 0.6021
2575.186 0.6085 0.8242 0.8235 0.6756 0.6036 0.6408 0.8085 0.6754 0.5559 0.6877
2594.475 0.709 0.6888 0.776 0.8986 0.866 0.6337 0.6585 0.6373 0.5533 0.6814
2613.765 0.6699 0.5698 0.573 0.5818 0.48851 0.46802 0.6787 0.7612 0.6743 0.52971
2633.055 0.49405 0.50858 0.46704 0.5664 0.5891 0.4094 0.47939 0.7263 0.7034 0.6127
2652.345 0.56 0.6341 0.6651 0.6382 0.8216 0.7933 0.6128 0.5592 0.6234 0.731
2671.634 0.7949 0.7652 0.6671 0.7608 0.9152 1.0388 0.918 0.7227 0.7571 0.6818
2690.924 0.6416 0.7101 0.7994 0.8904 0.8185 0.8081 0.8556 0.8951 0.8876 0.8174
2710.214 0.8339 0.7594 0.53887 0.51621 0.6948 0.6192 0.7637 0.8419 0.7577 0.8455
2729.504 0.7906 0.8257 0.8396 0.8603 0.8398 0.8419 1.0748 1.1631 1.1656 1.1504
2748.794 1.0942 1.1103 1.0727 0.9828 0.9111 1.0229 1.1929 1.1192 1.0873 1.1105
2768.083 1.1167 1.0866 1.0123 0.9864 1.0672 1.3741 1.4166 1.1857 1.1921 1.3979
2787.373 1.4244 1.2985 1.3883 1.589 1.609 1.599 1.619 1.659 1.949 2.069
2806.663 1.979 2.049 2.039 2.009 2.009 2.169 2.269 2.329 2.399 2.549
2825.953 2.919 2.949 2.839 2.999 3.199 3.159 3.149 3.319 3.419 3.539
2845.242 3.719 3.889 3.909 4.069 4.379 4.659 4.879 4.889 5.139 5.369
2864.532 5.789 6.309 6.599 7.199 7.989 8.869 9.549 10.229 10.989 11.549
2883.822 11.999 12.279 12.659 12.939 12.899 12.589 12.319 12.229 12.019 11.899
2903.112 12.079 12.499 12.799 12.959 12.929 13.199 13.669 13.689 13.809 14.009
2922.401 14.259 14.759 15.339 15.989 16.919 17.869 18.899 20.139 21.369 22.519
2941.691 23.269 23.679 24.099 24.329 24.339 24.119 23.659 23.259 23.129 23.099
2960.981 23.009 23.189 23.409 23.609 23.689 23.589 23.239 22.529 21.629 20.379
2980.271 18.839 17.159 15.449 13.539 11.689 10.259 9.029 7.979 7.039 6.309
2999.561 5.669 5.169 4.809 4.399 4.099 3.919 3.679 3.349 3.229 3.119
3018.850 2.869 2.539 2.469 2.359 2.339 2.259 1.939 1.989 2.009 1.969
3038.140 1.839 1.669 1.739 1.949 2.159 1.949 1.639 1.589 1.659 1.779
3057.430 1.829 1.639 1.719 1.879 1.709 1.659 1.719 1.719 1.539 1.469
3076.720 1.629 1.619 1.529 1.4142 1.459 1.3652 1.1214 1.2176 1.371 1.3783
3096.009 1.519 1.549 1.3331 1.1344 0.9938 1.0629 1.0998 1.121 1.1158 1.0126
3115.299 1.027 0.9228 1.0267 1.2135 1.0949 0.997 1.2069 1.1476 0.9792 0.9239
3134.589 0.7786 0.8533 0.9725 1.0182 0.9673 0.8487 0.911 0.9224 0.9013 0.9677
3153.879 0.9678 0.9412 0.8902 0.9472 0.918 0.7529 0.7805 0.8649 0.7397 0.5631
3173.169 0.47541 0.6965 0.9797 0.7827 0.6797 0.6364 0.5958 0.7225 0.8086 0.9532
3192.458 0.6709 0.47126 0.5781 0.46263 0.3738 0.5993 0.705 0.6824 0.53722 0.318
3211.748 0.317 0.43434 0.52234 0.325 0.3579 0.5859 0.6099 0.418 0.235 0.264
3231.038 0.079 0.205 0.5526 0.6268 0.50461 0.43669 0.52955 0.52278 0.3558 0.325
3250.328 0.51982 0.46224 0.288 0.332 0.3685 0.4042 0.5865 0.6347 0.49902 0.45074
3269.617 0.51088 0.5469 0.3592 0.267 0.4016 0.3928 0.434 0.50129 0.51807 0.4105
3288.907 0.304 0.297 0.3555 0.5698 0.50963 0.4083 0.52008 0.5919 0.5927 0.6525
3308.197 0.7047 0.5989 0.6169 0.50959 0.47773 0.3758 0.321 0.4703 0.47153 0.4011
3327.487 0.3867 0.52205 0.53888 0.7 0.7909 0.5637 0.329 0.4018 0.6721 0.51324
3346.777 0.3723 0.282 0.53855 0.6408 0.3613 0.45484 0.3687 0.284 0.3631 0.43084
3366.066 0.3809 0.4598 0.53042 0.47748 0.45088 0.3532 0.4012 0.47834 0.6167 0.5771
3385.356 0.440625 0.51426 0.7285 0.8262 0.5632 0.5659 0.6895 0.6701 0.5471 0.48133
3404.646 0.49119 0.5679 0.7808 0.6181 0.6367 0.6451 0.5452 0.4886 0.5909 0.6608
3423.936 0.5824 0.6669 0.6704 0.7518 0.6042 0.5421 0.49598 0.6555 0.9302 0.942
3443.225 1.0929 1.0324 1.0587 1.3174 1.2269 1.2899 1.609 1.819 1.889 1.869
3462.515 1.969 1.809 1.899 2.169 1.909 1.719 1.469 1.1199 1.0205 1.1098
3481.805 1.165 0.8884 0.6696 0.9019 1.0523 0.773 0.4802 0.6903 0.8988 0.7288
3501.095 0.5779 0.786 1.0181 0.8934 0.6225 0.51489 0.45123 0.46416 0.5989 0.45438
3520.385 0.3915 0.3651 0.321 0.4118 0.6831 0.6806 0.5763 0.6628 0.7673 0.6834
3539.674 0.6297 0.5282 0.4289 0.445571 0.331 0.45926 0.48715 0.48858 0.51951 0.46203
3558.964 0.50009 0.45399 0.5747 0.6998 0.5424 0.5722 0.6408 0.440318 0.51491 0.5045
3578.254 0.4093 0.6151 0.7063 0.6282 0.6102 0.6931 0.5619 0.52298 0.53143 0.5884
3597.544 0.6524 0.581 0.6034 0.6751 0.7405 0.6265 0.31 0.3702 0.5703 0.6491
3616.833 0.7494 0.8169 0.7418 0.53081 0.7481 0.8334 0.44273 0.294 0.6823 0.8347
3636.123 0.7528 0.754 0.7929 0.7876 0.565 0.5524 0.7398 0.924 0.8098 0.7992
3655.413 0.9199 0.8781 1.0111 1.2108 1.077 1.0207 1.1766 1.1343 1.0775 1.0973
3674.703 1.1726 1.339 1.0659 0.5525 0.544 0.5983 0.5717 0.441077 0.4126 0.7236
3693.993 0.655 0.46591 0.3784 0.7784 0.9815 0.6135 0.50046 0.6969 0.7689 0.6862
3713.282 0.7087 0.4276 0.43474 0.50134 0.4207 0.319 0.4301 0.7204 0.46453 0.3649
3732.572 0.4991 0.394 0.184 0.148 0.3878 0.3722 0.3588 0.5823 0.6633 0.7674
3751.862 0.6534 0.4116 0.3949 0.4206 0.5844 0.6825 0.7571 0.6318 0.4233 0.4908
3771.152 0.51122 0.5505 0.6044 0.6274 0.53885 0.441482 0.51725 0.6926 0.6622 0.49178
3790.441 0.3631 0.3637 0.47043 0.6722 0.6402 0.46279 0.46632 0.5399 0.51191 0.3785
3809.731 0.48479 0.636 0.4833 0.43186 0.4073 0.3443 0.4197 0.43378 0.4021 0.5552
3829.021 0.8248 0.7088 0.7119 0.7605 0.597 0.50894 0.443398 0.45966 0.3842 0.47758
3848.311 0.3628 0.238 0.51044 0.412 0.45759 0.6654 0.5913 0.7465 0.7125 0.3741
3867.601 0.5484 0.8517 0.7392 0.47259 0.3999 0.49438 0.5809 0.4265 0.439195 0.7386
3886.890 0.7568 0.4168 0.268 0.53657 0.6286 0.3662 0 0.116 0.6096 0.843
3906.180 0.7865 0.3613 0.284 0.45198 0.323 0.285 0.262 0.276 0.5534 0.9225
3925.470 0.6921 0.5242 0.7621 0.792 0.5809 0.3616 0.3646 0.263 0.135 0.4194
3944.760 0.7339 0.6127 0.493 0.50475 0.5887 0.6268 0.6398 0.7303 0.6666 0.5517
3964.049 0.5958 0.586 0.6329 0.7483 0.5881 0.4801 0.47458 0.46486 0.444981 0.3954
3983.339 0.3452 0.5359 0.6711 0.48279 0.6783 0.7708 0.8704 0.8476 0.5725 0.3496
##END=
