##TITLE=5-Acetylvaleric acid
##JCAMP-DX=4.24
##DATA TYPE=INFRARED SPECTRUM
##ORIGIN=EPA-IR VAPOR PHASE LIBRARY
##OWNER=SRD/NIST
Collection (C) 2018 copyright by the U.S. Secretary of Commerce
on behalf of the United States of America. All rights reserved.
##CAS REGISTRY NO=3128-07-2
##MOLFORM=C 7 H 12 O 3
##$NIST SOURCE=MSDC-IR
##STATE=gas
##XUNITS=1/CM
##YUNITS=ABSORBANCE
##XFACTOR=1.
##YFACTOR=0.001
##DELTAX=1.92934
##FIRSTX=549.9
##LASTX=3999.5
##FIRSTY=7.74
##MAXX=3999.53
##MINX=549.863
##MAXY=0.05509
##MINY=0
##NPOINTS=1789
##XYDATA=(X++(Y..Y))
549.863 7.74 7.84 7.99 8.18 8.26 8.21 8.2 8.14 8.19 8.23
569.156 8.1 8.05 8.03 8.06 8.15 8.24 8.48 8.68 8.85 9.05
588.450 9.23 9.49 9.73 9.78 9.81 9.98 10.12 10.19 10.21 10.17
607.743 10.13 10.13 10.09 10.05 10.04 9.99 9.95 9.89 9.87 9.96
627.037 10.07 10.06 9.94 9.68 9.27 8.84 8.31 7.67 7.07 6.51
646.330 6.08 5.74 5.54 5.52 5.54 5.62 5.67 5.63 5.5 5.27
665.624 5.05 4.79 4.38 3.97 3.72 3.6 3.53 3.47 3.46 3.49
684.917 3.47 3.5 3.56 3.62 3.72 3.77 3.78 3.78 3.79 3.76
704.210 3.79 3.84 3.88 3.89 3.92 4.05 4.11 4.14 4.18 4.16
723.504 4.15 4.06 3.89 3.76 3.6 3.45 3.36 3.21 3.1 3.05
742.797 2.99 2.94 2.92 2.91 2.95 3 3.04 3.12 3.23 3.22
762.091 3.11 3 2.87 2.75 2.65 2.48 2.33 2.26 2.17 2.0353
781.384 1.9007 1.7923 1.6997 1.6594 1.6184 1.5417 1.4756 1.4312 1.3952 1.3895
800.678 1.3675 1.3366 1.336 1.342 1.3503 1.33 1.3177 1.325 1.3056 1.2381
819.971 1.17284 1.15943 1.16632 1.16876 1.16111 1.15674 1.1896 1.3012 1.387 1.3825
839.264 1.4417 1.525 1.51 1.4716 1.4826 1.4686 1.4727 1.5066 1.5216 1.5257
858.558 1.5262 1.5515 1.5681 1.5818 1.5959 1.5822 1.5741 1.5818 1.5921 1.6198
877.851 1.6392 1.6407 1.6277 1.5901 1.5789 1.6244 1.6187 1.6104 1.6296 1.6095
897.145 1.6185 1.6235 1.6205 1.6179 1.6311 1.637 1.6472 1.7128 1.8061 1.886
916.438 1.88 1.9356 2.0456 2.0816 2.1118 2.14 2.14 2.17 2.22 2.24
935.732 2.26 2.3 2.36 2.43 2.45 2.49 2.55 2.59 2.65 2.68
955.025 2.71 2.73 2.74 2.75 2.76 2.76 2.76 2.77 2.79 2.76
974.318 2.74 2.72 2.69 2.7 2.73 2.72 2.7 2.73 2.72 2.72
993.612 2.78 2.8 2.8 2.83 2.89 2.96 2.99 3.03 3.1 3.18
1012.905 3.25 3.31 3.41 3.55 3.67 3.81 3.96 4.1 4.29 4.53
1032.199 4.69 4.92 5.23 5.52 5.85 6.19 6.55 6.96 7.41 7.86
1051.492 8.35 8.87 9.39 9.95 10.56 11.19 11.8 12.41 12.98 13.45
1070.786 13.86 14.24 14.6 14.82 14.85 14.77 14.65 14.6 14.67 14.89
1090.079 15.25 15.76 16.38 17.07 17.87 18.77 19.85 21.09 22.49 24.1
1109.372 25.99 28.03 30.12 32.25 34.19 35.75 36.84 37.42 37.52 37.11
1128.666 36.21 34.96 33.53 32.09 30.83 29.83 29.19 28.89 28.89 29.07
1147.959 29.3 29.53 29.69 29.66 29.38 28.94 28.4 27.85 27.25 26.58
1167.253 25.87 25.26 24.83 24.64 24.47 24.16 23.72 23.05 22.18 21.25
1186.546 20.27 19.24 18.07 16.84 15.82 15.02 14.32 13.74 13.27 12.95
1205.840 12.67 12.34 12.05 11.72 11.38 11.1 10.8 10.49 10.19 9.81
1225.133 9.5 9.26 9.05 8.86 8.72 8.54 8.23 8.06 7.99 7.81
1244.426 7.66 7.57 7.48 7.36 7.27 7.2 7.14 7.15 7.18 7.19
1263.720 7.21 7.31 7.39 7.56 7.78 7.98 8.2 8.41 8.58 8.65
1283.013 8.66 8.61 8.48 8.36 8.26 8.16 8.22 8.36 8.5 8.66
1302.307 8.81 8.89 8.94 9 9.05 9.1 9.19 9.33 9.52 9.77
1321.600 9.99 10.11 10.15 10.08 9.99 9.88 9.77 9.72 9.71 9.83
1340.894 10.16 10.66 11.26 12.01 12.85 13.81 14.88 15.93 16.93 17.84
1360.187 18.51 18.92 19.08 18.91 18.51 17.9 17.09 16.19 15.27 14.39
1379.480 13.61 12.89 12.2 11.59 10.99 10.41 9.88 9.35 8.8 8.32
1398.774 7.89 7.51 7.24 7.01 6.83 6.77 6.74 6.71 6.72 6.75
1418.067 6.79 6.87 6.93 6.92 6.92 6.92 6.88 6.8 6.75 6.67
1437.361 6.57 6.43 6.3 6.21 6.12 6.04 5.96 5.88 5.82 5.76
1456.654 5.65 5.48 5.3 5.08 4.84 4.54 4.23 3.94 3.66 3.38
1475.948 3.11 2.9 2.72 2.53 2.37 2.27 2.18 2.0797 2.0055 1.9332
1495.241 1.8682 1.8016 1.7531 1.7133 1.6403 1.6345 1.6167 1.5519 1.5544 1.5504
1514.534 1.5321 1.5223 1.4751 1.4552 1.4684 1.4682 1.4569 1.427 1.4236 1.4267
1533.828 1.4147 1.4192 1.4351 1.4308 1.377 1.3459 1.3552 1.3467 1.336 1.2967
1553.121 1.3013 1.3107 1.2853 1.2974 1.2902 1.2543 1.269 1.2681 1.2505 1.2606
1572.415 1.2639 1.254 1.2325 1.21828 1.246 1.2536 1.2585 1.2517 1.2545 1.2588
1591.708 1.2303 1.2542 1.2723 1.277 1.2783 1.272 1.2822 1.3013 1.2894 1.3153
1611.002 1.3747 1.4114 1.4217 1.418 1.4154 1.418 1.4269 1.4228 1.3984 1.3554
1630.295 1.349 1.3734 1.3991 1.3955 1.3993 1.3868 1.3792 1.4364 1.4745 1.4906
1649.588 1.486 1.537 1.6227 1.6418 1.6797 1.7451 1.8362 1.9426 2.0615 2.17
1668.882 2.27 2.39 2.55 2.75 2.93 3.13 3.4 3.67 3.98 4.32
1688.175 4.67 5.08 5.53 6.01 6.56 7.17 7.86 8.62 9.43 10.44
1707.469 11.6 12.88 14.32 15.9 17.66 19.6 21.62 23.65 25.66 27.56
1726.762 29.24 30.67 31.77 32.48 32.82 32.83 32.56 32.09 31.55 31.05
1746.056 30.71 30.64 30.92 31.59 32.78 34.56 36.94 39.73 42.66 45.52
1765.349 48.19 50.69 52.95 54.53 55.09 54.75 53.91 52.69 50.96 48.65
1784.642 45.76 42.45 38.99 35.56 32.28 29.2 26.39 23.81 21.44 19.24
1803.936 17.23 15.43 13.8 12.3 10.93 9.69 8.58 7.59 6.72 5.94
1823.229 5.3 4.76 4.29 3.85 3.48 3.18 2.93 2.71 2.51 2.37
1842.523 2.25 2.1241 2.016 1.95 1.8507 1.7606 1.7022 1.6355 1.5711 1.4992
1861.816 1.4523 1.4286 1.4033 1.3834 1.3466 1.3235 1.2969 1.2655 1.22859 1.21104
1881.110 1.20961 1.1995 1.20103 1.21505 1.19559 1.15549 1.15802 1.16045 1.14726 1.13297
1900.403 1.1046 1.1023 1.1118 1.0932 1.0908 1.0937 1.0852 1.067 1.0624 1.0595
1919.696 1.0648 1.0791 1.0448 1.007 1.009 1.009 0.98 0.978 0.982 0.96
1938.990 0.94 0.925 0.933 0.936 0.936 0.944 0.928 0.91 0.907 0.899
1958.283 0.888 0.872 0.862 0.871 0.895 0.891 0.877 0.885 0.868 0.841
1977.577 0.837 0.859 0.848 0.824 0.832 0.838 0.849 0.848 0.843 0.84
1996.870 0.83 0.829 0.843 0.861 0.851 0.839 0.836 0.822 0.798 0.788
2016.164 0.812 0.842 0.837 0.814 0.812 0.805 0.805 0.821 0.821 0.806
2035.457 0.818 0.825 0.817 0.813 0.812 0.812 0.806 0.81 0.798 0.8
2054.750 0.816 0.82 0.834 0.816 0.814 0.837 0.822 0.83 0.847 0.838
2074.044 0.816 0.811 0.839 0.838 0.835 0.856 0.853 0.828 0.811 0.817
2093.337 0.818 0.825 0.834 0.837 0.848 0.844 0.835 0.833 0.85 0.868
2112.631 0.876 0.868 0.842 0.833 0.833 0.846 0.891 0.915 0.901 0.891
2131.924 0.887 0.897 0.905 0.887 0.887 0.911 0.916 0.907 0.913 0.894
2151.218 0.871 0.887 0.904 0.897 0.892 0.9 0.93 0.936 0.92 0.907
2170.511 0.905 0.923 0.903 0.889 0.906 0.905 0.912 0.914 0.907 0.924
2189.804 0.915 0.894 0.899 0.886 0.902 0.923 0.908 0.908 0.922 0.917
2209.098 0.893 0.904 0.929 0.932 0.915 0.908 0.911 0.924 0.949 0.935
2228.391 0.916 0.928 0.951 0.948 0.941 0.946 0.945 0.93 0.903 0.916
2247.685 0.94 0.915 0.922 0.937 0.91 0.882 0.871 0.877 0.863 0.852
2266.978 0.873 0.871 0.856 0.878 0.883 0.879 0.878 0.878 0.888 0.886
2286.272 0.863 0.861 0.887 0.889 0.874 0.857 0.872 0.884 0.874 0.861
2305.565 0.874 0.896 0.901 0.892 0.868 0.87 0.895 0.897 0.897 0.89
2324.858 0.913 0.946 0.933 0.929 0.916 0.899 0.906 0.92 0.918 0.915
2344.152 0.915 0.906 0.867 0.86 0.898 0.896 0.89 0.882 0.884 0.885
2363.445 0.869 0.864 0.864 0.866 0.858 0.834 0.831 0.837 0.833 0.842
2382.739 0.841 0.846 0.839 0.821 0.818 0.828 0.829 0.844 0.846 0.826
2402.032 0.809 0.807 0.814 0.821 0.819 0.8 0.806 0.796 0.795 0.813
2421.326 0.809 0.791 0.77 0.785 0.807 0.793 0.795 0.8 0.792 0.799
2440.619 0.806 0.808 0.825 0.822 0.804 0.804 0.799 0.818 0.808 0.79
2459.912 0.798 0.81 0.812 0.797 0.804 0.784 0.78 0.816 0.815 0.821
2479.206 0.823 0.777 0.778 0.801 0.777 0.779 0.809 0.823 0.845 0.835
2498.499 0.814 0.807 0.793 0.808 0.82 0.819 0.814 0.833 0.833 0.802
2517.793 0.807 0.832 0.831 0.818 0.798 0.786 0.779 0.777 0.793 0.819
2537.086 0.78 0.744 0.776 0.773 0.76 0.757 0.77 0.775 0.745 0.738
2556.380 0.728 0.729 0.761 0.744 0.734 0.733 0.745 0.766 0.743 0.728
2575.673 0.735 0.741 0.736 0.743 0.797 0.785 0.743 0.745 0.753 0.758
2594.966 0.743 0.749 0.732 0.699 0.721 0.735 0.712 0.735 0.756 0.756
2614.260 0.758 0.747 0.732 0.709 0.704 0.722 0.769 0.779 0.77 0.798
2633.553 0.799 0.756 0.757 0.78 0.749 0.739 0.759 0.756 0.767 0.769
2652.847 0.755 0.782 0.798 0.765 0.75 0.779 0.804 0.807 0.789 0.776
2672.140 0.771 0.777 0.786 0.791 0.81 0.829 0.815 0.823 0.84 0.788
2691.434 0.797 0.838 0.826 0.842 0.846 0.819 0.846 0.866 0.827 0.805
2710.727 0.799 0.791 0.779 0.754 0.788 0.842 0.817 0.761 0.779 0.809
2730.020 0.797 0.808 0.792 0.747 0.744 0.786 0.8 0.801 0.863 0.876
2749.314 0.803 0.775 0.809 0.787 0.796 0.861 0.864 0.857 0.833 0.815
2768.607 0.811 0.811 0.812 0.816 0.872 0.925 0.925 0.916 0.923 0.915
2787.901 0.925 0.953 0.992 0.979 0.973 1.031 1.0321 1.0425 1.1071 1.18515
2807.194 1.255 1.22342 1.2318 1.2919 1.3058 1.3454 1.3683 1.4063 1.4943 1.479
2826.488 1.4863 1.5943 1.6704 1.7092 1.7696 1.8218 1.8359 1.9263 2.037 2.1149
2845.781 2.23 2.38 2.53 2.68 2.83 2.97 3.13 3.35 3.57 3.78
2865.074 4.04 4.25 4.53 4.81 5.02 5.18 5.33 5.47 5.51 5.58
2884.368 5.68 5.74 5.81 5.94 6.12 6.27 6.48 6.64 6.79 7
2903.661 7.17 7.32 7.49 7.66 7.83 8.05 8.33 8.65 8.95 9.28
2922.955 9.72 10.24 10.7 11.13 11.53 11.99 12.43 12.74 13.13 13.5
2942.248 13.84 14.19 14.5 14.74 14.9 14.99 14.96 14.86 14.64 14.31
2961.542 13.87 13.32 12.68 11.93 11.17 10.4 9.62 8.85 8.1 7.51
2980.835 6.94 6.38 5.87 5.38 4.99 4.63 4.29 4.01 3.79 3.64
3000.128 3.56 3.52 3.41 3.29 3.3 3.24 3.16 3.08 2.9 2.77
3019.422 2.6 2.47 2.37 2.19 2.0655 1.8898 1.7762 1.7106 1.611 1.592
3038.715 1.6681 1.5828 1.4699 1.5132 1.4665 1.4269 1.3554 1.2757 1.372 1.3903
3058.009 1.2784 1.2612 1.2477 1.22732 1.20284 1.17931 1.17143 1.18295 1.18054 1.12347
3077.302 1.0956 1.0995 1.0801 1.1076 1.1035 1.0762 1.076 0.973 0.928 0.949
3096.596 0.914 0.911 0.88 0.831 0.745 0.668 0.617 0.604 0.634 0.616
3115.889 0.621 0.533 0.428 0.454 0.446 0.382 0.325 0.32 0.339 0.38
3135.182 0.344 0.27 0.362 0.369 0.282 0.267 0.35 0.452 0.4 0.296
3154.476 0.31 0.315 0.282 0.283 0.188 0.164 0.249 0.315 0.284 0.254
3173.769 0.325 0.227 0.133 0.223 0.221 0.165 0.197 0.199 0.159 0.12
3193.063 0.1 0.12 0.12 0.12 0.15 0.195 0.16 0.132 0.152 0.183
3212.356 0.231 0.173 0.07 0.04 0.05 0.04 0.05 0.146 0.13 0.1
3231.650 0.142 0.12 0.09 0.08 0.01 0.03 0.156 0.146 0.11 0.131
3250.943 0.05 0.03 0.08 0.137 0.18 0.149 0.196 0.178 0.138 0.166
3270.236 0.134 0.12 0.11 0 0 0.03 0.04 0.08 0.07 0.1
3289.530 0.11 0.155 0.153 0.12 0.12 0.11 0.06 0.06 0.06 0.11
3308.823 0.11 0.11 0.12 0.03 0.08 0.163 0.181 0.139 0.146 0.172
3328.117 0.167 0.146 0.09 0.03 0.02 0.06 0.07 0.07 0.09 0.156
3347.410 0.171 0.1 0.137 0.277 0.21 0.08 0.13 0.161 0.179 0.212
3366.704 0.2 0.156 0.12 0.147 0.18 0.15 0.13 0.2 0.267 0.218
3385.997 0.2 0.18 0.17 0.154 0.166 0.239 0.236 0.175 0.165 0.194
3405.290 0.284 0.388 0.413 0.345 0.268 0.351 0.423 0.429 0.46 0.485
3424.584 0.497 0.462 0.498 0.564 0.574 0.586 0.602 0.625 0.636 0.599
3443.877 0.585 0.563 0.541 0.56 0.581 0.619 0.614 0.602 0.566 0.52
3463.171 0.529 0.528 0.476 0.469 0.502 0.456 0.475 0.527 0.493 0.438
3482.464 0.379 0.389 0.436 0.486 0.512 0.432 0.394 0.457 0.496 0.518
3501.758 0.597 0.583 0.535 0.626 0.63 0.622 0.681 0.74 0.801 0.832
3521.051 0.828 0.86 0.852 0.896 1.022 1.0436 1.14926 1.22761 1.2541 1.3167
3540.344 1.3903 1.5424 1.6886 1.8188 2.0454 2.43 2.85 3.22 3.65 4.34
3559.638 5.34 6.71 8.63 11.16 14.18 17.1 19.34 20.55 20.99 21.03
3578.931 20.46 18.89 16.17 12.97 10.11 7.93 6.24 4.88 3.84 3.07
3598.225 2.51 2.0971 1.8129 1.5617 1.3547 1.2349 1.1157 1.0375 1.003 0.972
3617.518 0.928 0.801 0.719 0.723 0.71 0.688 0.658 0.666 0.735 0.725
3636.812 0.616 0.599 0.531 0.503 0.537 0.524 0.556 0.527 0.478 0.486
3656.105 0.479 0.498 0.537 0.489 0.452 0.437 0.479 0.485 0.428 0.482
3675.398 0.535 0.493 0.419 0.44 0.479 0.442 0.45 0.43 0.424 0.475
3694.692 0.478 0.392 0.361 0.465 0.515 0.449 0.413 0.434 0.449 0.453
3713.985 0.449 0.42 0.431 0.516 0.498 0.469 0.518 0.495 0.447 0.411
3733.279 0.418 0.464 0.412 0.408 0.441 0.443 0.472 0.49 0.482 0.501
3752.572 0.504 0.499 0.534 0.54 0.489 0.466 0.482 0.515 0.484 0.418
3771.866 0.498 0.495 0.496 0.555 0.538 0.509 0.517 0.599 0.596 0.545
3791.159 0.55 0.481 0.473 0.522 0.496 0.496 0.532 0.525 0.581 0.659
3810.452 0.575 0.534 0.552 0.502 0.498 0.544 0.504 0.491 0.508 0.478
3829.746 0.514 0.558 0.567 0.572 0.555 0.609 0.616 0.53 0.5 0.534
3849.039 0.574 0.542 0.46 0.44 0.48 0.494 0.525 0.563 0.552 0.489
3868.333 0.494 0.507 0.46 0.451 0.512 0.573 0.56 0.558 0.521 0.55
3887.626 0.613 0.593 0.607 0.593 0.575 0.59 0.598 0.582 0.559 0.589
3906.920 0.593 0.617 0.637 0.586 0.529 0.564 0.638 0.632 0.652 0.701
3926.213 0.644 0.548 0.588 0.648 0.611 0.64 0.631 0.589 0.591 0.605
3945.506 0.627 0.635 0.649 0.646 0.63 0.591 0.64 0.656 0.634 0.613
3964.800 0.571 0.575 0.595 0.611 0.657 0.701 0.684 0.645 0.63 0.625
3984.093 0.606 0.602 0.623 0.691 0.692 0.696 0.723 0.683 0.7
##END=
