##TITLE=2,6,11-Trimethyldodecane
##JCAMP-DX=4.24
##DATA TYPE=INFRARED SPECTRUM
##ORIGIN=NIST Mass Spectrometry Data Center
##OWNER=NIST Standard Reference Data Program
Collection (C) 2018 copyright by the U.S. Secretary of Commerce
on behalf of the United States of America. All rights reserved.
##CAS REGISTRY NO=31295-56-4
##MOLFORM=C 15 H 32
##$NIST SOURCE=MSDC-IR
##SPECTROMETER/DATA SYSTEM=HP-GC/MS/IRD
##STATE=gas
##XUNITS=1/CM
##YUNITS=ABSORBANCE
##XFACTOR=1.0
##YFACTOR=0.000003900
##DELTAX=4.0
##FIRSTX=550.0
##LASTX=3846.0
##FIRSTY=0.000433
##MAXX=3846
##MINX=550
##MAXY=0.039
##MINY=0
##NPOINTS=825
##XYDATA=(X++(Y..Y))
550.0 111 84 58 55 65 88 109 97 86 55
590.0 25 32 51 44 25 34 28 34 51 48
630.0 51 47 40 26 17 26 10 0 9 26
670.0 27 9 16 29 20 14 42 56 50 68
710.0 88 85 72 109 139 120 121 123 94 82
750.0 84 63 51 54 45 54 67 50 47 55
790.0 45 47 52 51 60 61 60 65 35 37
830.0 60 61 68 63 63 66 67 64 55 40
870.0 34 46 55 58 55 51 58 61 65 74
910.0 84 100 108 110 113 108 109 109 105 99
950.0 92 89 84 75 81 90 93 91 88 89
990.0 84 78 82 83 84 88 93 96 98 83
1030.0 75 79 78 75 74 68 62 66 59 48
1070.0 39 27 24 29 27 28 34 37 44 48
1110.0 47 41 39 49 59 80 101 119 143 160
1150.0 182 211 244 281 310 300 253 201 166 146
1190.0 129 121 127 130 118 117 129 126 124 118
1230.0 101 99 99 99 105 100 93 101 111 127
1270.0 142 138 135 138 153 168 164 160 170 192
1310.0 223 255 264 262 280 308 362 448 432 403
1350.0 439 494 606 735 803 899 988 1002 1018 1040
1390.0 922 714 521 365 294 243 257 328 298 261
1430.0 297 409 490 522 662 820 1079 1291 1332 1352
1470.0 1317 1170 861 607 507 440 350 300 267 366
1510.0 371 259 259 256 192 148 149 198 230 174
1550.0 131 160 227 137 55 62 70 66 27 22
1590.0 23 31 31 34 36 36 60 73 69 62
1630.0 58 103 96 82 115 175 195 106 79 99
1670.0 125 135 125 180 177 98 136 211 183 111
1710.0 86 148 175 92 64 129 177 121 90 114
1750.0 145 111 88 87 106 128 94 67 81 80
1790.0 92 87 75 89 51 41 50 45 50 70
1830.0 65 41 34 75 82 35 17 26 30 47
1870.0 52 25 17 14 19 27 26 19 11 16
1910.0 19 24 39 31 14 11 8 12 26 15
1950.0 4 8 4 5 15 10 3 3 2 8
1990.0 23 16 1 2 5 2 13 19 9 7
2030.0 9 10 11 13 8 2 3 4 8 12
2070.0 8 6 5 4 3 6 3 0 5 7
2110.0 5 8 10 7 7 9 10 9 5 6
2150.0 8 8 9 5 2 7 8 3 3 6
2190.0 2 0 1 2 3 2 4 4 5 5
2230.0 5 4 3 1 1 0 1 7 8 6
2270.0 6 8 10 14 19 19 20 19 16 17
2310.0 19 21 19 17 19 15 13 17 20 21
2350.0 17 19 19 15 19 25 24 22 19 16
2390.0 12 11 10 10 15 17 12 11 8 8
2430.0 10 8 10 15 9 8 12 9 4 5
2470.0 10 10 8 9 12 12 10 17 22 18
2510.0 22 25 24 26 27 28 24 24 25 28
2550.0 32 29 29 34 40 44 50 52 59 63
2590.0 66 70 71 73 76 74 77 83 81 84
2630.0 87 88 91 90 89 90 87 85 83 87
2670.0 91 97 97 98 99 94 96 105 113 120
2710.0 126 136 144 152 167 175 178 178 171 169
2750.0 170 170 173 177 189 198 197 204 220 237
2790.0 259 282 311 337 365 403 447 500 563 638
2830.0 729 851 1038 1330 1745 2255 2747 3111 3342 3540
2870.0 3795 4123 4378 4384 4222 4122 4231 4581 5133 5755
2910.0 6280 6696 7172 7872 8724 9429 9638 9213 8384 7610
2950.0 7344 7863 9016 10000 9785 8142 5880 3922 2634 1876
2990.0 1396 1076 851 698 591 501 426 374 339 309
3030.0 281 256 242 235 220 205 196 193 190 182
3070.0 179 183 179 169 160 155 152 149 144 131
3110.0 122 120 122 124 122 117 116 119 121 117
3150.0 115 111 112 116 115 112 111 109 104 103
3190.0 104 100 89 78 71 68 65 59 50 42
3230.0 41 36 27 28 29 27 31 31 25 24
3270.0 21 24 27 28 26 22 25 27 27 24
3310.0 18 14 21 32 32 35 42 36 23 23
3350.0 35 34 28 26 25 22 19 21 19 16
3390.0 17 22 26 23 17 16 17 19 16 6
3430.0 7 20 28 24 16 8 12 19 17 6
3470.0 0 8 21 22 8 4 3 17 36 26
3510.0 18 8 8 46 69 35 24 23 48 83
3550.0 46 30 36 68 133 97 27 21 37 101
3590.0 95 52 42 28 70 113 105 105 59 89
3630.0 125 46 30 33 99 140 75 41 11 36
3670.0 100 110 67 31 67 86 40 34 42 39
3710.0 94 95 54 88 105 101 164 133 136 169
3750.0 137 94 46 33 36 36 15 13 16 21
3790.0 17 26 56 79 67 30 45 83 79 53
3830.0 55 95 113 82 44
##END=
