##TITLE=.alpha.,.alpha.,alpha.-Trifluoro-2,4,6-trimethylacetophenone
##JCAMP-DX=4.24
##DATA TYPE=INFRARED SPECTRUM
##ORIGIN=EPA-IR VAPOR PHASE LIBRARY
##OWNER=SRD/NIST
Collection (C) 2018 copyright by the U.S. Secretary of Commerce
on behalf of the United States of America. All rights reserved.
##CAS REGISTRY NO=313-56-4
##MOLFORM=C 11 H 11 F 3 O
##$NIST SOURCE=MSDC-IR
##STATE=gas
##XUNITS=1/CM
##YUNITS=ABSORBANCE
##XFACTOR=1.
##YFACTOR=0.001
##DELTAX=1.92898
##FIRSTX=549.8
##LASTX=4000.7
##FIRSTY=6.113
##MAXX=4000.7
##MINX=549.759
##MAXY=0.346743
##MINY=0
##NPOINTS=1790
##XYDATA=(X++(Y..Y))
549.759 6.113 5.513 4.313 4.423 4.433 3.523 3.673 3.153 2.703 3.403
569.049 3.533 3.503 3.183 2.723 2.733 2.333 1.3933 1.8066 3.363 3.333
588.339 3.273 3.383 3.203 3.543 3.743 4.403 5.403 6.023 7.263 10.163
607.628 13.823 18.023 22.933 27.343 32.003 36.253 38.113 37.793 35.683 32.033
626.918 26.653 21.073 16.623 12.483 9.753 8.243 6.983 6.083 5.503 4.693
646.208 3.653 3.263 2.933 2.763 2.903 2.813 2.403 2.153 2.143 2.533
665.498 2.693 2.473 2.773 2.793 2.963 3.013 2.623 2.733 2.673 2.543
684.787 3.253 3.643 3.843 3.913 3.793 3.803 3.503 3.203 3.143 3.553
704.077 3.913 4.213 4.833 5.703 6.723 7.143 7.093 7.953 8.763 9.453
723.367 11.193 13.773 17.003 21.743 27.403 32.703 37.123 40.583 42.223 41.583
742.657 39.313 35.363 29.993 24.123 19.313 15.393 12.733 11.643 11.043 11.023
761.947 10.783 10.513 10.373 9.873 9.823 9.713 9.233 9.233 9.153 8.503
781.236 8.313 7.823 6.863 6.853 6.583 6.063 6.253 5.823 5.273 5.293
800.526 4.933 4.653 4.733 4.343 3.823 3.503 3.453 3.483 3.563 4.803
819.816 6.643 5.223 3.293 4.053 4.723 5.653 7.153 9.013 12.153 16.313
839.106 21.193 27.183 33.353 38.463 43.303 45.683 41.583 35.013 29.413 23.693
858.395 18.073 13.523 10.393 8.363 7.813 7.413 7.003 7.283 7.733 8.163
877.685 8.963 10.693 12.343 14.063 16.573 19.523 23.903 29.753 36.433 44.603
896.975 55.703 69.473 84.803 101.903 117.663 129.813 137.333 138.443 133.383 123.423
916.265 109.113 91.713 75.333 62.123 52.073 44.233 37.693 32.553 28.633 25.613
935.555 23.163 21.743 21.843 22.563 24.193 27.913 33.303 40.393 48.823 56.853
954.844 62.933 66.063 65.983 62.823 56.363 47.253 37.693 29.143 22.303 17.983
974.134 14.983 12.693 11.353 10.253 9.593 9.033 8.243 7.983 8.103 8.283
993.424 8.193 7.853 7.463 7.363 7.443 7.393 8.363 8.823 8.663 9.303
1012.714 9.033 8.723 9.043 9.603 9.843 9.343 9.013 8.763 9.483 9.573
1032.003 9.533 10.713 11.433 10.683 10.133 10.443 10.123 10.323 9.723 8.953
1051.293 8.553 7.823 7.643 8.163 8.243 7.653 7.813 7.833 7.443 7.433
1070.583 7.523 7.863 7.583 7.473 7.513 7.173 7.913 7.473 7.323 8.643
1089.873 9.783 10.463 10.253 9.793 9.523 9.763 10.463 10.333 11.343 13.773
1109.163 13.473 14.443 17.783 20.143 22.083 25.943 30.643 34.053 40.343 49.493
1128.452 58.943 70.423 86.993 106.953 128.283 150.143 169.593 187.613 202.673 213.613
1147.742 222.173 227.403 233.463 245.743 259.883 273.253 285.073 292.883 295.543 290.433
1167.032 278.563 262.063 241.323 217.253 194.613 177.193 164.533 157.023 155.253 161.913
1186.322 177.143 198.123 226.333 259.823 293.353 319.693 337.933 346.743 343.683 333.323
1205.611 318.703 301.343 279.233 258.513 237.553 211.283 181.403 151.223 123.293 99.583
1224.901 79.113 60.823 47.943 40.733 34.803 29.513 26.633 24.073 21.653 20.183
1244.191 19.133 17.903 17.403 17.153 16.753 16.613 16.263 16.403 17.293 18.023
1263.481 18.083 19.103 20.833 22.263 23.673 25.763 28.243 31.163 34.663 37.463
1282.771 40.713 43.773 45.623 47.093 47.473 46.473 44.763 42.683 40.923 39.783
1302.060 38.753 37.783 36.703 35.313 33.243 30.303 26.873 23.213 19.803 16.943
1321.350 14.463 12.703 11.483 10.563 10.013 9.593 9.383 9.083 8.833 8.653
1340.640 8.293 7.973 7.853 7.943 7.903 7.693 7.603 7.723 7.823 7.903
1359.930 8.093 8.283 8.433 8.463 8.433 8.583 8.893 9.463 10.223 11.083
1379.219 11.943 12.873 13.863 14.673 15.093 14.953 14.333 13.603 12.843 12.183
1398.509 11.753 11.293 10.923 10.853 11.193 11.443 12.033 12.843 13.473 14.263
1417.799 15.123 16.003 16.803 17.493 18.083 18.623 19.033 19.193 19.213 19.173
1437.089 19.163 19.163 19.043 18.773 18.743 18.713 18.473 18.473 18.593 18.723
1456.378 18.743 18.773 18.773 18.693 18.643 18.593 18.653 18.403 17.993 17.803
1475.668 17.743 17.513 17.503 17.533 17.213 17.113 16.873 16.703 16.493 16.283
1494.958 16.393 16.193 15.923 15.743 15.713 15.843 15.703 15.663 15.633 15.523
1514.248 15.673 15.633 15.493 15.663 15.933 15.843 15.403 15.333 15.443 15.163
1533.538 15.013 15.143 15.283 15.633 15.693 15.393 15.363 15.753 16.183 16.693
1552.827 17.093 17.513 18.093 18.533 18.643 18.673 19.023 19.253 18.973 18.923
1572.117 18.903 18.493 18.133 17.623 17.273 16.903 16.573 16.623 17.043 17.963
1591.407 19.243 21.173 24.163 28.413 33.853 40.353 47.513 54.153 59.503 62.513
1610.697 62.103 58.563 52.433 43.983 34.353 25.313 18.053 12.863 9.433 7.573
1629.986 6.363 5.723 5.523 5.033 4.593 4.543 4.143 3.963 4.513 4.673
1649.276 4.353 4.283 4.343 4.393 4.353 4.193 4.323 4.413 4.513 4.533
1668.566 4.493 4.563 4.783 4.943 4.923 5.073 5.163 5.563 6.153 6.513
1687.856 6.713 7.093 7.703 8.383 8.983 9.343 10.053 10.533 10.823 11.573
1707.146 12.193 12.863 13.803 15.133 17.063 19.393 21.823 24.993 29.263 34.593
1726.435 41.473 49.653 60.093 72.953 88.713 106.353 124.323 142.253 156.933 166.233
1745.725 167.643 160.343 144.883 123.993 101.793 80.613 61.583 46.873 35.833 27.803
1765.015 22.163 18.113 15.203 13.323 11.873 10.883 10.303 9.973 9.793 9.833
1784.305 9.893 9.893 9.873 9.733 9.653 9.593 9.193 8.653 8.183 7.823
1803.594 7.523 6.813 6.193 5.803 5.373 5.243 4.973 4.713 4.503 4.383
1822.884 4.303 4.023 3.853 3.603 3.263 3.063 2.903 2.853 2.723 2.453
1842.174 2.173 2.163 2.273 2.323 2.363 2.263 2.243 2.223 2.163 2.133
1861.464 2.183 2.363 2.453 2.543 2.723 2.623 2.513 2.523 2.523 2.513
1880.754 2.703 2.823 2.893 3.033 2.953 2.803 2.773 2.773 2.773 2.863
1900.043 2.903 2.653 2.603 2.713 2.573 2.533 2.473 2.483 2.453 2.363
1919.333 2.403 2.543 2.483 2.353 2.503 2.493 2.393 2.493 2.543 2.403
1938.623 2.523 2.693 2.473 2.283 2.413 2.493 2.303 2.023 1.973 2.163
1957.913 2.033 1.8042 1.6915 1.5869 1.5545 1.5522 1.6135 1.5034 1.3742 1.4554
1977.202 1.4654 1.5554 1.6047 1.4139 1.2884 1.2395 1.2411 1.1805 1.1754 1.249
1996.492 1.3636 1.2963 1.1026 1.1135 1.0982 1.2693 1.4248 1.3366 1.387 1.3569
2015.782 1.3225 1.43 1.2953 1.1521 1.2628 1.2809 1.2205 1.3581 1.468 1.4882
2035.072 1.4715 1.4155 1.3442 1.3368 1.3314 1.2765 1.306 1.2479 1.3582 1.5342
2054.362 1.4277 1.4786 1.5318 1.4053 1.2952 1.1458 1.1081 1.1511 1.1913 1.2966
2073.651 1.3364 1.3099 1.3383 1.4101 1.513 1.355 1.1866 1.2348 1.1374 1.01777
2092.941 1.0612 1.3075 1.2768 1.2591 1.3811 1.4645 1.4341 1.247 1.2501 1.3274
2112.231 1.332 1.4047 1.5464 1.5846 1.6012 1.67 1.5517 1.4805 1.5073 1.4079
2131.521 1.5586 1.5168 1.4862 1.6018 1.5681 1.5369 1.4798 1.3933 1.2547 1.2052
2150.810 1.2235 1.2771 1.2962 1.4545 1.507 1.3271 1.3803 1.6018 1.6878 1.5891
2170.100 1.5676 1.6119 1.5296 1.5421 1.7186 1.7875 1.7346 1.4894 1.362 1.4945
2189.390 1.5826 1.4741 1.6134 1.7884 1.5839 1.3774 1.3418 1.395 1.3807 1.3391
2208.680 1.3488 1.4087 1.4104 1.5486 1.6732 1.455 1.3758 1.4794 1.5379 1.4806
2227.970 1.4079 1.5193 1.418 1.2193 1.3585 1.5328 1.3762 1.2181 1.3183 1.4121
2247.259 1.3508 1.3437 1.5468 1.7368 1.4785 1.218 1.3358 1.4803 1.5115 1.6179
2266.549 1.4731 1.2515 1.3717 1.3819 1.4122 1.2544 1.2281 1.571 1.7809 1.8238
2285.839 1.8755 2.023 1.943 1.7561 1.8183 2.023 1.963 1.802 1.9312 2.003
2305.129 1.8612 1.8131 1.8885 1.8849 1.943 1.953 1.983 1.993 2.043 2.183
2324.418 2.033 2.123 2.223 2.083 2.063 2.113 2.273 2.353 2.473 2.583
2343.708 2.533 2.593 2.433 2.393 2.383 2.073 2.183 2.443 2.333 2.373
2362.998 2.433 2.383 2.263 1.854 1.7421 2.123 2.223 2.343 2.343 2.113
2382.288 2.223 2.473 2.473 2.333 2.313 2.283 2.143 2.163 2.263 2.353
2401.578 2.473 2.523 2.433 2.463 2.733 2.533 2.293 2.353 2.363 2.543
2420.867 2.643 2.473 2.513 2.533 2.493 2.403 2.163 2.173 2.193 2.153
2440.157 2.213 2.123 2.133 2.273 2.493 2.493 2.413 2.373 2.213 2.123
2459.447 2.183 2.293 2.353 2.073 2.083 2.373 2.223 2.023 2.183 2.323
2478.737 2.073 1.9206 2.093 2.453 2.403 2.083 2.203 2.323 2.123 2.063
2498.026 2.053 2.103 2.093 1.8365 1.8226 1.9327 1.8793 1.8407 1.8631 1.8684
2517.316 1.7791 1.6319 1.6407 1.8624 1.8269 1.5225 1.6287 1.5653 1.3911 1.4127
2536.606 1.2387 1.1193 1.3591 1.4076 1.1394 0.99475 1.02315 1.00167 1.1373 1.2769
2555.896 1.0637 0.94178 0.8601 0.9153 1.0069 1.2035 1.2064 1.1319 1.049 0.92755
2575.186 1.2557 1.2667 1.0739 1.2413 1.2041 1.0799 1.2185 1.3835 1.359 1.0743
2594.475 0.97711 1.2074 1.4341 1.4405 1.2437 1.0681 0.92735 1.0706 1.0725 1.01074
2613.765 1.4519 1.4461 1.0858 1.01783 1.1404 1.4945 1.5092 1.3629 1.2996 1.0663
2633.055 1.1148 1.2832 1.1916 1.198 1.3554 1.4662 1.5826 1.741 1.5899 1.1092
2652.345 1.2179 1.5953 1.6698 1.5208 1.4101 1.2823 1.4542 1.6063 1.321 1.4075
2671.634 1.59 1.6119 1.5349 1.6032 1.688 1.6004 1.5384 1.496 1.5246 1.5154
2690.924 1.3575 1.3509 1.5042 1.6109 1.6621 1.68 1.7269 1.7792 1.7072 1.7951
2710.214 1.6229 1.5639 1.9124 1.8491 1.7557 1.7596 1.8667 1.993 1.9125 1.8833
2729.504 2.103 2.493 2.623 2.703 3.003 3.383 3.573 3.473 3.593 3.613
2748.794 3.503 3.693 3.863 3.673 3.423 3.433 3.303 3.063 2.843 2.643
2768.083 2.553 2.043 1.776 1.993 2.073 2.153 2.163 2.093 2.063 2.263
2787.373 2.263 2.313 2.343 2.463 2.743 2.763 2.693 2.863 2.903 2.813
2806.663 2.883 2.863 3.153 3.163 2.883 3.003 3.393 3.543 3.673 3.743
2825.953 3.713 3.943 3.963 4.003 4.393 5.013 5.533 5.843 6.083 6.423
2845.242 6.903 7.333 8.173 9.143 9.853 10.613 11.833 13.303 14.463 15.863
2864.532 17.453 18.823 20.013 21.193 22.153 22.663 22.873 22.793 22.543 22.373
2883.822 21.983 21.393 21.083 20.883 20.543 20.173 20.273 20.673 20.763 20.583
2903.112 20.823 21.263 21.743 22.403 23.343 24.723 26.463 28.363 30.633 33.343
2922.401 36.233 39.353 42.453 45.593 48.453 50.513 51.463 51.843 51.723 50.713
2941.691 48.923 46.893 44.493 41.023 38.233 35.553 32.843 30.873 28.743 27.383
2960.981 26.503 25.393 24.373 23.883 24.313 23.953 23.643 24.053 23.813 24.043
2980.271 24.493 25.123 25.973 26.273 26.363 26.763 27.193 27.453 28.323 28.633
2999.561 28.133 28.563 29.083 29.163 29.523 29.763 29.903 30.823 31.643 32.163
3018.850 32.863 33.073 33.263 33.523 33.423 33.073 32.453 31.583 30.553 29.713
3038.140 29.073 28.663 28.223 27.043 25.763 24.813 23.723 21.953 20.213 18.753
3057.430 17.033 16.013 15.153 13.693 12.343 11.763 11.273 10.013 9.293 9.173
3076.720 8.693 8.193 7.683 7.323 7.213 6.923 6.563 6.283 6.123 5.883
3096.009 5.803 5.433 4.713 4.633 4.423 4.223 4.163 4.233 4.173 3.723
3115.299 3.303 3.013 3.093 3.063 2.973 3.113 2.873 2.713 2.793 2.603
3134.589 2.763 2.583 2.103 1.7957 1.8297 2.253 2.033 1.7134 1.6446 1.1231
3153.879 1.3457 1.6306 1.6543 1.983 1.805 1.8586 2.013 2.093 2.423 2.093
3173.169 1.4383 1.4424 1.4355 1.3144 1.3733 1.6799 1.6344 1.4799 1.3276 1.3606
3192.458 1.4019 1.3573 1.2743 0.8806 1.1472 1.4513 1.2056 1.078 1.371 1.6042
3211.748 1.6426 1.6911 1.4351 0.8747 0.668 0.738 0.716 0.726 1.00549 1.2448
3231.038 0.9132 0.6 0.667 0.701 0.9178 1.3494 1.4846 1.1088 1.0581 1.1177
3250.328 0.99215 1.0864 1.1189 1.0822 1.1147 1.2773 1.1386 0.565 0.473 0.693
3269.617 0.8899 0.8557 0.732 1.2192 1.5507 1.2943 1.0365 0.8504 0.786 0.742
3288.907 0.8541 0.9198 0.942828 1.1789 1.144 0.8772 0.79 0.941132 0.8568 0.8374
3308.197 0.631 0.566 1.1304 1.1279 0.653 0.461 0.335 0.771 1.4093 1.1013
3327.487 0.683 0.571 0.98126 1.1794 0.8601 1.0884 1.4966 1.1775 0.713 1.0552
3346.777 1.3196 0.97621 0.584 0.98726 1.2396 0.95529 1.332 1.1148 0.97526 1.4417
3366.066 1.2728 1.3527 1.5559 1.1768 0.94327 0.97877 1.1678 0.98832 0.566 0.9254
3385.356 1.2594 0.768 0.528 0.665 0.56 0.802 0.934866 0.95693 0.940966 0.8908
3404.646 1.1687 1.1458 0.8947 0.94712 1.264 1.2858 0.8351 0.853 1.1219 0.8847
3423.936 0.697 0.8542 1.3152 1.5623 1.4264 1.0871 1.1134 1.6093 1.9005 1.5822
3443.225 1.1168 1.3255 1.4856 1.943 2.483 2.263 2.373 3.073 3.313 3.003
3462.515 3.043 3.533 3.513 3.173 2.953 3.063 3.213 3.063 3.183 2.803
3481.805 2.143 1.983 1.9226 1.6745 1.554 1.6724 1.8089 1.4276 1.4296 1.4285
3501.095 1.01963 1.3638 1.4645 1.2562 0.94548 0.811 0.76 0.526 0.592 0.753
3520.385 0.377 0.073 0.8676 1.0996 0.692 0.713 0.748 0.644 0.777 0.96514
3539.674 0.515 0.8537 1.447 1.3403 1.2367 1.02744 0.96319 0.9126 0.95391 1.00466
3558.964 1.3674 1.5021 0.96199 1.03093 1.2468 1.03176 1.0396 0.774 0.786 1.243
3578.254 1.447 1.3959 0.8854 0.368 0.349 0.729 0.8416 0.8367 0.8756 1.0035
3597.544 0.672 0.745 1.1402 0.99963 1.107 1.2151 1.03096 0.93886 1.5173 1.7926
3616.833 1.3436 1.0885 0.416 0 0.667 0.738 0.359 0.426 0.636 0.692
3636.123 0.411 0.419 1.0369 0.941196 0.641 0.433 0.581 0.614 0.174 0.421
3655.413 0.713 0.736 0.484 0.297 0.195 0.685 0.8995 0.462 0.275 0.335
3674.703 0.537 0.743 0.734 0.584 0.509 0.321 0.338 0.55 0.9161 1.2541
3693.993 1.00358 0.669 0.431 0.049 0.299 0.573 0.799 1.01545 0.651 0.712
3713.282 0.9499 0.714 0.472 0.225 0.23 0.138 0.288 0.604 0.774 0.696
3732.572 0.517 0.9093 0.92852 0.739 1.01647 1.0298 0.764 0.502 0.608 1.2456
3751.862 1.01172 0.8458 1.0645 0.8916 0.57 0.591 0.8331 0.566 0.213 0.339
3771.152 0.717 0.643 0.474 0.275 0.627 0.98491 0.8762 1.01328 0.807 0.8724
3790.441 1.2528 1.00777 0.574 0.595 0.044 0.108 1.02601 1.073 1.01336 0.8864
3809.731 0.514 0.451 0.735 0.482 0.388 0.598 0.688 0.97123 1.2095 0.735
3829.021 0.352 0.32 0.355 0.642 0.791 0.941102 0.433 0.33 0.651 0.715
3848.311 0.798 0.689 0.97024 1.2972 1.2575 0.8988 0.361 0.327 0.686 0.787
3867.601 0.755 0.8828 0.708 0.92 1.4681 1.3103 1.0445 1.1401 0.634 0.45
3886.890 0.695 0.531 0.547 0.703 0.607 0.572 0.624 0.337 0.484 0.715
3906.180 0.731 1.2975 1.5628 1.1023 1.2626 1.5266 0.8811 0.65 1.0969 1.1211
3925.470 0.99363 0.786 0.737 1.352 1.7852 1.5749 1.5961 1.1116 1.0798 1.8153
3944.760 1.3932 1.0431 1.1169 1.00931 1.0891 1.2399 1.5342 1.4412 1.02817 1.2126
3964.049 1.00731 0.801 1.4178 1.1477 0.725 1.2049 1.6465 1.8052 1.8349 1.8165
3983.339 1.7204 2.153 1.953 1.1481 0.791 1.1201 1.8008 1.8503 1.5957 1.317
##END=
