##TITLE=3-Ethoxycarbonylphenyl isothiocyanate
##JCAMP-DX=4.24
##DATA TYPE=INFRARED SPECTRUM
##ORIGIN=EPA-IR VAPOR PHASE LIBRARY
##OWNER=SRD/NIST
Collection (C) 2018 copyright by the U.S. Secretary of Commerce
on behalf of the United States of America. All rights reserved.
##CAS REGISTRY NO=3137-84-6
##MOLFORM=C10 H9 N O2 S
##$NIST SOURCE=MSDC-IR
##STATE=gas
##XUNITS=1/CM
##YUNITS=ABSORBANCE
##XFACTOR=1.
##YFACTOR=0.001
##DELTAX=1.92898
##FIRSTX=549.8
##LASTX=4000.7
##FIRSTY=12.656
##MAXX=4000.7
##MINX=549.759
##MAXY=0.286836
##MINY=0
##NPOINTS=1790
##XYDATA=(X++(Y..Y))
549.759 12.656 12.336 12.116 12.076 11.496 11.116 10.966 10.586 10.746 10.476
569.049 9.836 9.446 8.916 8.616 8.306 7.716 7.396 7.286 6.706 6.156
588.339 5.746 5.286 5.046 4.756 4.626 4.366 4.046 3.976 3.786 3.336
607.628 3.106 3.076 2.996 2.896 2.536 2.236 2.246 2.236 2.076 2.266
626.918 2.466 2.226 2.176 2.136 1.986 2.076 2.326 2.506 2.486 2.596
646.208 2.796 3.156 3.606 3.786 3.906 4.116 4.316 4.516 4.786 5.096
665.498 5.596 6.256 6.906 7.786 8.676 9.506 9.936 9.386 8.736 8.486
684.787 8.046 7.576 7.386 7.136 6.846 6.926 6.946 6.996 7.186 7.466
704.077 7.966 8.706 9.476 10.346 11.466 13.006 15.196 17.546 19.936 22.366
723.367 24.406 26.006 27.056 27.156 26.686 25.766 24.626 23.886 23.916 25.126
742.657 27.426 30.516 34.056 37.966 42.016 44.356 42.666 38.346 33.816 29.196
761.947 24.416 19.706 15.656 12.576 10.336 8.906 7.846 7.066 6.696 6.346
781.236 6.216 6.276 6.326 6.236 6.046 6.146 6.586 7.016 7.216 7.416
800.526 7.646 7.936 8.026 7.756 7.366 6.566 5.736 5.086 4.436 3.746
819.816 3.256 2.986 2.696 2.776 2.756 2.696 2.736 2.976 3.336 3.706
839.106 3.896 4.036 4.476 4.906 5.296 5.516 5.816 6.216 6.606 6.956
858.395 7.276 7.996 8.886 9.976 11.416 12.506 13.276 13.596 13.316 12.446
877.685 10.906 9.246 7.906 7.086 6.486 6.496 6.886 7.246 7.846 8.616
896.975 9.656 10.606 10.976 10.876 10.596 10.136 9.556 8.826 7.826 7.026
916.265 6.406 5.676 4.916 4.346 4.166 3.906 3.566 3.426 3.236 3.096
935.555 3.056 3.036 3.046 3.096 3.216 3.316 3.466 3.666 3.866 4.116
954.844 4.266 4.476 4.846 5.156 5.686 6.496 7.156 7.756 8.576 9.396
974.134 9.986 10.576 10.906 10.956 10.856 10.566 10.086 9.396 9.146 9.126
993.424 9.246 9.676 10.126 10.476 10.776 11.416 12.116 12.846 13.796 14.826
1012.714 16.166 17.506 18.966 20.216 20.986 21.546 21.326 20.586 19.486 17.866
1032.003 15.906 13.946 12.166 10.806 9.936 8.926 8.006 7.496 7.146 7.236
1051.293 7.486 7.666 8.336 9.366 10.586 12.336 14.966 18.476 22.646 27.526
1070.583 31.946 34.976 36.776 37.146 36.356 35.116 33.256 31.546 31.496 33.456
1089.873 37.086 42.226 49.326 57.736 66.296 74.276 80.346 82.626 80.496 73.946
1109.163 63.706 52.136 40.896 31.526 24.996 20.376 17.016 14.676 12.796 11.556
1128.452 10.816 10.026 9.146 8.756 8.396 7.936 7.956 7.906 7.866 7.676
1147.742 7.746 8.206 8.716 9.446 10.836 13.296 16.746 19.716 21.256 21.536
1167.032 21.076 19.316 16.176 13.846 12.696 12.186 12.256 12.326 12.216 12.786
1186.322 13.906 15.246 16.996 18.996 21.586 25.256 29.766 35.746 43.966 54.216
1205.611 66.986 82.556 100.256 120.136 140.456 157.636 168.806 172.646 167.886 153.786
1224.901 132.906 108.896 85.856 66.446 51.656 41.346 34.246 29.396 26.056 23.836
1244.191 22.526 21.716 21.436 21.746 22.356 23.196 24.636 26.796 29.526 33.146
1263.481 37.706 43.726 51.876 62.046 74.766 90.446 109.096 130.246 152.626 174.396
1282.771 192.236 203.406 206.336 199.616 184.156 163.226 140.986 120.366 101.976 85.586
1302.060 71.536 60.046 50.706 42.966 36.566 31.176 26.626 22.896 19.806 17.366
1321.350 15.386 13.756 12.496 11.456 10.546 9.806 9.176 8.626 8.216 7.866
1340.640 7.586 7.396 7.196 6.986 6.926 6.986 7.156 7.486 8.006 8.886
1359.930 10.206 12.066 14.696 17.696 19.946 20.816 20.606 19.476 17.156 14.186
1379.219 11.596 9.896 8.956 8.426 8.236 8.296 8.426 8.536 8.616 8.726
1398.509 8.756 8.696 8.586 8.406 8.256 8.206 8.306 8.486 8.826 9.386
1417.799 10.126 11.096 12.456 14.156 16.316 18.996 22.106 25.636 29.156 32.006
1437.089 33.616 33.596 31.956 29.006 25.216 21.366 18.156 15.826 14.276 13.326
1456.378 12.736 12.506 12.606 12.946 13.556 14.456 15.636 16.956 18.276 19.566
1475.668 20.756 21.616 21.816 21.366 20.326 18.706 16.636 14.346 12.126 10.276
1494.958 8.896 7.936 7.176 6.576 6.136 5.786 5.526 5.266 5.016 4.766
1514.248 4.466 4.256 4.176 4.126 3.996 3.916 3.866 3.886 3.936 3.996
1533.538 4.086 4.146 4.176 4.256 4.376 4.506 4.686 4.856 5.066 5.456
1552.827 5.896 6.336 6.956 7.776 8.806 9.996 11.476 13.226 15.296 17.816
1572.117 20.756 24.026 27.536 30.896 33.636 35.476 36.176 35.846 34.746 33.186
1591.407 31.706 30.856 30.676 31.066 31.496 31.396 30.456 28.456 25.586 22.226
1610.697 18.646 15.256 12.486 10.406 8.906 7.696 6.726 6.016 5.516 5.116
1629.986 4.796 4.566 4.356 4.216 4.086 3.966 3.886 3.876 3.936 3.996
1649.276 4.026 4.036 4.046 4.156 4.256 4.336 4.426 4.526 4.586 4.576
1668.566 4.646 4.716 4.766 4.756 4.756 4.776 4.806 4.886 5.016 5.286
1687.856 5.676 6.046 6.476 7.086 7.776 8.466 9.166 9.956 10.796 11.666
1707.146 12.526 13.426 14.456 15.576 16.706 17.936 19.336 21.046 23.326 26.476
1726.435 30.806 36.866 45.426 56.976 72.406 91.516 112.406 131.976 145.556 151.466
1745.725 149.606 138.576 117.876 91.986 68.156 50.086 37.366 28.916 23.476 20.036
1765.015 17.916 16.576 15.586 14.776 13.996 13.196 12.316 11.396 10.486 9.656
1784.305 8.906 8.216 7.616 7.166 6.836 6.586 6.366 6.196 5.996 5.846
1803.594 5.676 5.456 5.316 5.236 5.196 5.166 5.136 5.146 5.196 5.176
1822.884 5.126 5.136 5.206 5.216 5.146 5.166 5.116 5.006 4.916 4.816
1842.174 4.716 4.606 4.476 4.356 4.246 4.146 4.146 4.166 4.126 4.066
1861.464 4.146 4.256 4.316 4.456 4.576 4.716 4.976 5.216 5.466 5.756
1880.754 6.096 6.426 6.736 7.046 7.276 7.396 7.456 7.536 7.656 7.766
1900.043 7.906 8.156 8.466 8.806 9.256 9.756 10.316 10.926 11.646 12.476
1919.333 13.406 14.466 15.616 16.836 18.126 19.596 21.236 23.016 24.826 26.696
1938.623 28.716 30.776 32.876 35.046 37.156 39.226 41.286 43.276 45.216 47.226
1957.913 49.276 51.436 53.726 56.176 58.866 61.686 64.676 67.926 71.396 74.976
1977.202 78.746 82.736 86.836 91.166 95.766 100.666 105.806 111.216 116.966 123.006
1996.492 129.266 135.836 142.736 149.766 156.906 164.086 171.356 178.626 185.636 192.426
2015.782 199.106 205.696 212.246 218.826 225.676 232.956 240.736 249.016 257.726 266.596
2035.072 274.986 281.946 286.286 286.836 282.556 273.416 259.876 243.296 225.406 207.646
2054.362 191.556 177.996 167.276 159.566 154.706 152.436 152.536 154.526 158.166 163.066
2073.651 168.636 174.396 180.006 185.016 188.856 191.266 191.906 190.696 187.686 182.946
2092.941 176.756 169.526 161.576 153.276 144.986 136.866 129.286 122.376 116.096 110.486
2112.231 105.546 101.196 97.226 93.596 90.206 87.026 83.906 80.826 77.886 74.916
2131.521 71.846 68.846 65.776 62.596 59.426 56.186 53.006 49.946 47.006 44.206
2150.810 41.556 39.086 36.736 34.576 32.656 30.916 29.316 27.856 26.506 25.206
2170.100 24.016 23.046 22.206 21.506 20.986 20.576 20.246 19.926 19.746 19.716
2189.390 19.546 19.266 18.896 18.376 17.736 16.946 15.986 14.966 13.936 12.936
2208.680 11.946 10.986 10.156 9.456 8.816 8.246 7.776 7.316 6.926 6.646
2227.970 6.346 6.086 5.936 5.786 5.716 5.646 5.506 5.466 5.476 5.416
2247.259 5.366 5.356 5.336 5.376 5.336 5.206 5.026 4.836 4.686 4.456
2266.549 4.216 3.976 3.776 3.596 3.326 3.056 2.916 2.826 2.676 2.586
2285.839 2.486 2.346 2.276 2.266 2.226 2.176 2.136 2.136 2.136 2.096
2305.129 2.126 2.176 2.176 2.196 2.156 2.216 2.276 2.296 2.296 2.276
2324.418 2.296 2.246 2.186 2.076 2.006 1.966 1.896 1.876 1.846 1.736
2343.708 1.676 1.636 1.596 1.596 1.586 1.596 1.576 1.556 1.616 1.686
2362.998 1.686 1.706 1.706 1.746 1.806 1.876 1.886 1.916 1.946 1.986
2382.288 2.066 2.136 2.246 2.296 2.266 2.316 2.446 2.466 2.446 2.526
2401.578 2.556 2.516 2.576 2.676 2.706 2.626 2.716 2.836 2.866 2.906
2420.867 2.846 2.846 2.876 2.826 2.786 2.826 2.786 2.686 2.606 2.546
2440.157 2.486 2.446 2.466 2.396 2.406 2.436 2.376 2.306 2.286 2.316
2459.447 2.306 2.336 2.316 2.266 2.276 2.246 2.306 2.406 2.386 2.376
2478.737 2.476 2.526 2.576 2.636 2.696 2.746 2.816 2.856 2.876 2.916
2498.026 2.876 2.916 2.936 2.826 2.826 2.876 2.756 2.646 2.596 2.586
2517.316 2.616 2.576 2.586 2.636 2.606 2.636 2.736 2.796 2.816 2.856
2536.606 2.986 3.066 3.046 3.156 3.256 3.346 3.456 3.516 3.656 3.836
2555.896 3.886 3.986 4.146 4.296 4.506 4.706 4.866 4.976 5.046 5.236
2575.186 5.386 5.356 5.336 5.286 5.086 4.826 4.606 4.336 4.006 3.606
2594.475 3.226 2.946 2.666 2.446 2.246 2.056 1.906 1.806 1.766 1.696
2613.765 1.536 1.496 1.506 1.386 1.316 1.276 1.2599 1.2002 1.1501 1.1453
2633.055 1.1193 1.1145 1.1168 1.1003 1.039 0.9973 0.9508 0.9547 0.9962 0.9896
2652.345 0.9695 0.9598 0.9383 0.9504 0.9887 0.9442 0.8464 0.8878 0.9445 0.9214
2671.634 0.98 0.9768 0.9496 0.9465 0.9183 0.9193 0.9461 0.9702 1.0321 1.1201
2690.924 1.1842 1.2553 1.2466 1.2124 1.203 1.1851 1.2006 1.2116 1.2113 1.19
2710.214 1.2148 1.286 1.336 1.336 1.366 1.526 1.646 1.706 1.776 1.826
2729.504 1.936 2.006 1.996 1.966 2.026 2.166 2.246 2.286 2.296 2.326
2748.794 2.476 2.586 2.606 2.706 2.776 2.786 2.746 2.716 2.836 2.946
2768.083 3.016 3.066 3.086 3.086 3.046 2.916 2.726 2.646 2.616 2.496
2787.373 2.406 2.336 2.256 2.136 2.066 2.076 2.006 2.096 2.146 2.026
2806.663 2.046 2.136 2.156 2.236 2.236 2.286 2.316 2.296 2.366 2.316
2825.953 2.326 2.286 2.186 2.156 2.136 2.056 1.966 2.066 2.246 2.216
2845.242 2.156 2.196 2.236 2.306 2.366 2.416 2.426 2.406 2.536 2.776
2864.532 2.846 2.926 3.086 3.196 3.386 3.586 3.786 4.096 4.496 4.756
2883.822 4.936 5.176 5.326 5.336 5.316 5.256 5.226 5.216 5.336 5.536
2903.112 5.616 5.796 6.026 6.286 6.576 6.686 6.816 6.966 6.936 6.746
2922.401 6.766 6.836 6.776 6.916 7.296 7.816 8.456 9.216 10.076 11.106
2941.691 11.996 12.506 12.806 12.736 12.326 11.686 10.916 10.456 10.246 10.266
2960.981 10.516 10.986 11.596 12.296 13.086 13.996 15.006 16.046 17.446 19.226
2980.271 21.396 23.476 24.956 25.876 25.976 25.096 23.386 21.296 19.206 17.396
2999.561 16.036 14.766 13.596 12.546 11.486 10.596 9.696 8.886 8.296 7.626
3018.850 6.896 6.356 5.926 5.556 5.286 4.986 4.696 4.566 4.476 4.386
3038.140 4.426 4.406 4.286 4.146 4.016 3.926 3.716 3.356 3.116 3.006
3057.430 3.056 3.176 3.296 3.476 3.826 4.296 4.876 5.536 6.176 6.786
3076.720 7.166 7.346 7.216 6.826 6.436 5.806 5.186 4.676 4.096 3.826
3096.009 3.586 3.246 3.046 2.866 2.676 2.446 2.216 2.006 1.876 1.706
3115.299 1.306 1.1029 1.176 1.1833 1.0549 0.8653 0.8482 0.8718 0.7518 0.7183
3134.589 0.7227 0.7538 0.8046 0.8369 0.8906 0.7845 0.6636 0.7165 0.7775 0.7142
3153.879 0.6016 0.6628 0.6825 0.6496 0.7154 0.8541 0.9054 0.7994 0.797 0.7035
3173.169 0.6807 0.6082 0.4966 0.5801 0.5819 0.4477 0.4908 0.5423 0.4409 0.3735
3192.458 0.4195 0.5534 0.5273 0.4335 0.4529 0.4576 0.3622 0.3407 0.34992 0.338
3211.748 0.31988 0.2498 0.2201 0.237 0.232 0.1685 0.273647 0.4724 0.4523 0.36176
3231.038 0.2312 0.2104 0.30212 0.30708 0.2212 0.2055 0.266983 0.26378 0.2087 0.30327
3250.328 0.3858 0.2442 0.1886 0.2181 0.30793 0.34762 0.2227 0.191 0.26062 0.272631
3269.617 0.27886 0.2514 0.1924 0.066 0.081 0.2492 0.121 0 0.121 0.30797
3288.907 0.32436 0.161 0.186 0.30688 0.35018 0.34058 0.30558 0.275834 0.30203 0.164
3308.197 0.089 0.2198 0.1662 0.2393 0.2406 0.254 0.4532 0.34789 0.35885 0.432
3327.487 0.35723 0.34233 0.30014 0.32247 0.3687 0.3966 0.454 0.30105 0.2477 0.36526
3346.777 0.30607 0.273235 0.3928 0.3779 0.154 0.1902 0.32278 0.32462 0.29531 0.2123
3366.066 0.268361 0.3912 0.27986 0.33405 0.4149 0.3929 0.4445 0.3942 0.3897 0.3989
3385.356 0.3729 0.4195 0.4531 0.35757 0.4507 0.5187 0.456 0.4501 0.32339 0.33005
3404.646 0.433 0.4343 0.3893 0.32372 0.32815 0.33555 0.34659 0.33738 0.35812 0.3972
3423.936 0.31712 0.34867 0.4579 0.5742 0.5822 0.5896 0.6216 0.5114 0.6139 0.8047
3443.225 0.6831 0.619 0.7339 0.8471 1.0118 1.1052 1.0807 1.1839 1.426 1.566
3462.515 1.566 1.586 1.786 1.836 1.756 1.696 1.456 1.253 1.097 0.9953
3481.805 0.934 0.8204 0.9026 0.9282 0.8418 0.8243 0.7575 0.8138 0.8859 0.8086
3501.095 0.7817 0.7982 0.7038 0.62 0.5095 0.4441 0.4884 0.5014 0.5349 0.5099
3520.385 0.4918 0.4793 0.4965 0.5266 0.4432 0.28685 0.30757 0.5012 0.6139 0.6703
3539.674 0.5647 0.4722 0.4286 0.3668 0.32876 0.32038 0.34876 0.28012 0.2086 0.31213
3558.964 0.4097 0.275877 0.33471 0.4745 0.438 0.4002 0.3699 0.33308 0.2509 0.30007
3578.254 0.4994 0.5746 0.5056 0.4732 0.3676 0.466 0.5331 0.30069 0.3687 0.516
3597.544 0.4558 0.368 0.4111 0.3883 0.32141 0.2504 0.1775 0.3205 0.4075 0.36481
3616.833 0.4189 0.4722 0.4412 0.5072 0.5352 0.5759 0.6448 0.5039 0.33644 0.3746
3636.123 0.509 0.4554 0.29317 0.31641 0.33262 0.2199 0.2739 0.36326 0.32674 0.3664
3655.413 0.36461 0.34122 0.3946 0.36597 0.35382 0.36158 0.2252 0.273877 0.4482 0.3952
3674.703 0.31324 0.4099 0.36224 0.28305 0.3948 0.3746 0.3882 0.32225 0.28055 0.4327
3693.993 0.3789 0.3766 0.4685 0.4538 0.4795 0.4727 0.5425 0.5174 0.4968 0.4268
3713.282 0.4247 0.5276 0.4355 0.4117 0.5135 0.6099 0.4822 0.4172 0.4975 0.5643
3732.572 0.4266 0.3764 0.4914 0.4616 0.454 0.35699 0.32035 0.5945 0.6752 0.4901
3751.862 0.34531 0.43 0.6046 0.6096 0.6079 0.5158 0.4582 0.5601 0.662 0.6338
3771.152 0.583 0.6679 0.637 0.5655 0.6351 0.5327 0.5966 0.7565 0.7671 0.7456
3790.441 0.5628 0.6058 0.6962 0.6957 0.7059 0.7573 0.7787 0.5902 0.5325 0.5421
3809.731 0.6463 0.6978 0.5499 0.529 0.6092 0.683 0.7561 0.6977 0.5732 0.6232
3829.021 0.6593 0.6015 0.7027 0.6945 0.681 0.6194 0.4537 0.4965 0.521 0.5831
3848.311 0.5789 0.6345 0.6999 0.6445 0.7312 0.7631 0.6161 0.653 0.7466 0.732
3867.601 0.7386 0.7667 0.8039 0.6625 0.5386 0.6388 0.6787 0.634 0.6066 0.5356
3886.890 0.5333 0.6087 0.7599 0.8203 0.9085 0.9139 0.8171 0.9617 1.0007 0.8719
3906.180 0.7219 0.8242 0.9755 0.9692 0.9196 0.7647 0.7994 0.9778 1.0534 1.0741
3925.470 1.0515 0.9943 0.9564 0.971 1.009 1.0246 1.1373 1.2061 1.1253 1.1879
3944.760 1.175 1.1035 1.0762 1.0704 0.9811 0.8615 1.0392 1.1447 1.0933 1.1248
3964.049 1.2565 1.386 1.416 1.386 1.386 1.346 1.356 1.456 1.506 1.486
3983.339 1.476 1.506 1.506 1.436 1.436 1.616 1.656 1.496 1.506 1.546
##END=
