##TITLE=2,3,4-Tribromothiophene
##JCAMP-DX=4.24
##DATA TYPE=INFRARED SPECTRUM
##ORIGIN=EPA-IR VAPOR PHASE LIBRARY
##OWNER=SRD/NIST
Collection (C) 2018 copyright by the U.S. Secretary of Commerce
on behalf of the United States of America. All rights reserved.
##CAS REGISTRY NO=3141-25-1
##MOLFORM=C 4 H Br 3 S
##$NIST SOURCE=MSDC-IR
##STATE=gas
##XUNITS=1/CM
##YUNITS=ABSORBANCE
##XFACTOR=1.
##YFACTOR=0.001
##DELTAX=1.92898
##FIRSTX=549.8
##LASTX=4000.7
##FIRSTY=2.168
##MAXX=4000.7
##MINX=549.759
##MAXY=0.151738
##MINY=0
##NPOINTS=1790
##XYDATA=(X++(Y..Y))
549.759 2.168 1.838 1.738 1.738 1.848 1.938 1.5198 1.6015 1.798 1.6781
569.049 1.748 1.6187 1.601 1.848 1.5123 0.7936 0.6432 0.366 0.71147 1.6069
588.339 1.788 1.5561 0.9245 0.503 0.71098 1.1138 1.5651 1.868 2.358 2.898
607.628 3.778 4.778 5.668 6.638 7.468 9.278 9.308 7.138 5.828 5.288
626.918 4.618 3.628 2.798 1.718 1.224 1.2222 1.5295 1.968 1.5748 1.5703
646.208 2.068 2.498 2.658 2.518 2.808 3.008 2.948 2.888 2.548 2.598
665.498 3.168 3.768 4.768 5.818 6.828 8.088 8.968 9.568 10.578 11.318
684.787 11.018 10.818 11.098 11.368 11.068 11.798 14.128 17.078 21.868 29.108
704.077 38.488 49.918 61.968 74.458 86.378 97.338 107.048 114.048 118.528 120.108
723.367 124.008 142.748 144.308 109.128 82.128 67.548 51.728 35.998 22.538 13.588
742.657 7.978 5.098 3.838 3.408 3.128 2.548 2.588 2.988 2.988 2.678
761.947 2.458 2.708 2.688 2.248 1.788 1.728 1.958 2.248 2.068 1.808
781.236 1.848 2.088 2.168 1.918 1.978 2.068 1.988 1.708 1.5278 1.475
800.526 1.6402 1.858 2.168 2.408 2.288 2.858 3.798 4.278 5.028 5.808
819.816 6.858 8.518 10.458 11.768 12.638 13.988 15.268 16.498 17.848 19.248
839.106 20.798 22.388 22.398 20.588 18.608 16.398 13.378 10.318 8.268 8.168
858.395 9.498 11.878 15.958 22.638 33.318 48.208 67.278 90.118 114.168 134.578
877.685 147.768 151.738 145.968 132.168 111.268 84.318 57.918 38.248 26.068 19.608
896.975 15.828 13.088 10.968 9.248 7.868 7.108 5.938 4.758 4.228 3.678
916.265 3.468 3.168 3.158 3.548 3.518 3.608 3.668 4.368 5.348 5.398
935.555 5.518 5.838 6.178 6.388 6.148 5.718 5.068 4.328 3.758 3.078
954.844 2.698 2.568 2.278 1.938 1.6846 1.768 1.6697 1.4387 1.4116 1.3788
974.134 1.3973 1.5047 1.708 1.5274 1.5121 2.018 2.068 2.698 4.108 4.948
993.424 5.358 6.638 8.518 9.848 10.218 10.278 9.908 8.668 7.098 5.478
1012.714 4.168 2.868 2.248 2.178 2.028 1.5256 0.7378 0.8203 1.3959 1.2669
1032.003 1.0754 1.581 2.108 1.5603 1.1418 1.6103 1.6399 1.5402 1.6735 1.848
1051.293 1.788 1.918 2.488 2.738 3.478 3.908 3.208 3.128 3.838 4.148
1070.583 4.418 5.568 6.248 6.638 7.668 8.468 8.338 7.618 6.958 5.548
1089.873 3.608 2.478 1.6612 1.788 3.048 3.208 2.628 2.868 3.418 3.418
1109.163 4.588 5.818 6.138 7.498 10.228 14.238 19.818 25.648 31.448 35.918
1128.452 36.808 35.478 32.338 25.698 19.898 15.668 10.608 7.748 6.188 5.358
1147.742 4.618 3.468 2.898 2.188 1.728 1.998 2.548 2.228 1.5338 1.4306
1167.032 1.1596 1.4347 1.808 2.138 2.528 2.198 2.198 2.188 2.408 2.798
1186.322 2.528 2.708 3.638 3.748 3.358 3.418 2.478 1.3503 2.128 2.748
1205.611 1.978 2.638 3.458 2.588 1.788 1.898 2.018 1.768 2.708 3.438
1224.901 4.328 6.218 7.908 10.118 10.878 10.708 10.508 9.698 8.968 7.838
1244.191 6.778 6.048 5.288 4.778 4.208 3.898 3.748 3.678 4.008 4.698
1263.481 5.278 5.948 7.158 8.778 10.728 13.038 15.898 19.408 23.998 28.928
1282.771 34.268 40.658 48.108 56.888 66.558 77.288 89.478 102.388 114.848 126.588
1302.060 135.518 139.768 138.448 130.678 116.968 97.628 74.588 51.128 31.038 17.948
1321.350 11.298 8.088 6.498 5.678 5.368 5.418 5.578 5.788 6.148 6.608
1340.640 6.898 6.778 6.308 5.758 5.148 4.448 3.848 3.408 3.308 3.378
1359.930 3.448 3.638 3.748 3.718 3.788 3.828 3.828 3.948 4.128 4.408
1379.219 4.898 5.738 6.978 8.568 10.508 13.098 16.248 19.708 23.608 27.578
1398.509 30.708 32.248 31.938 30.038 26.698 22.048 16.508 11.708 9.058 7.728
1417.799 6.978 6.568 6.358 6.258 6.078 5.798 5.548 5.608 5.828 6.198
1437.089 7.418 9.478 12.048 15.458 19.238 22.588 24.738 25.098 24.568 23.658
1456.378 21.628 18.448 15.298 13.228 12.718 13.278 15.148 18.448 23.438 30.418
1475.668 38.828 48.978 59.658 69.468 76.348 78.618 75.488 67.228 54.888 40.438
1494.958 26.218 14.928 8.498 5.918 5.138 4.848 4.878 5.148 5.508 5.988
1514.248 6.448 6.668 6.708 6.438 6.138 5.698 4.828 3.838 3.138 2.618
1533.538 2.228 2.188 2.088 2.048 1.888 1.788 1.878 1.948 2.008 1.868
1552.827 1.808 1.768 1.581 1.424 1.4375 1.4874 1.3429 1.1898 1.2381 1.3855
1572.117 1.3337 1.1266 1.0183 1.2796 1.3767 1.2389 1.3874 1.4988 1.4702 1.3648
1591.407 1.4681 1.6414 1.5851 1.6485 1.6439 1.4505 1.5607 1.6071 1.5332 1.4626
1610.697 1.2575 1.2248 1.3388 1.3218 1.2326 1.2382 1.2512 1.277 1.3197 1.3133
1629.986 1.2938 1.3499 1.3621 1.3981 1.4798 1.4352 1.4454 1.515 1.4769 1.5414
1649.276 1.5867 1.4591 1.5701 1.888 1.998 1.988 2.098 2.168 2.128 2.018
1668.566 1.908 1.958 1.888 1.838 1.918 1.868 1.778 1.738 1.738 1.828
1687.856 1.938 2.058 2.108 2.018 1.958 1.998 1.978 2.048 2.048 1.878
1707.146 1.718 1.708 1.728 1.6296 1.5539 1.5114 1.4967 1.4553 1.4993 1.4894
1726.435 1.3294 1.216 1.1511 1.0852 0.9604 1.1723 1.1237 0.8249 0.9427 0.9933
1745.725 1.0537 1.0541 0.9742 1.0521 1.0189 1.0293 1.1996 1.2836 1.1495 0.967
1765.015 0.9685 1.0482 1.0077 0.9491 0.8345 0.8366 1.0457 1.0441 0.8666 0.8343
1784.305 0.8961 0.8963 0.8704 0.8907 0.892 0.9516 0.978 0.9262 0.9629 1.035
1803.594 1.0102 0.9604 0.9638 0.9866 1.0914 1.0742 1.0099 0.9953 1.0167 1.066
1822.884 1.1869 1.2496 1.2459 1.294 1.364 1.4649 1.4858 1.4697 1.5431 1.6437
1842.174 1.6176 1.5445 1.534 1.5169 1.482 1.372 1.2288 1.1582 1.1461 1.1981
1861.464 1.1922 1.0973 1.0058 1.0919 1.1031 0.98 0.9659 1.0354 1.061 1.0303
1880.754 1.0169 0.8701 0.82 0.8857 0.9019 0.9038 0.8373 0.8918 0.9589 0.8895
1900.043 0.8131 0.8117 0.8584 0.9192 0.8898 0.9413 0.9632 0.8803 0.8902 0.8369
1919.333 0.8458 0.8647 0.8515 0.8524 0.851 0.8525 0.9652 1.0112 0.9235 1.0292
1938.623 1.0962 1.0359 1.0429 1.1778 1.325 1.1605 1.0008 1.1739 1.1866 1.1189
1957.913 1.3028 1.4307 1.5062 1.5813 1.5864 1.5994 1.6314 1.738 1.808 1.718
1977.202 1.6074 1.5442 1.5302 1.4945 1.4735 1.4405 1.4298 1.5196 1.5571 1.5112
1996.492 1.4653 1.4594 1.5359 1.6195 1.6298 1.598 1.5158 1.5499 1.579 1.4235
2015.782 1.2996 1.2362 1.0654 1.022 1.0635 1.0625 1.0174 0.8922 1.0069 1.1243
2035.072 0.9765 0.9697 0.9792 0.9045 0.8854 0.8545 0.7895 0.8386 0.9468 0.9602
2054.362 0.9164 0.9732 1.0348 0.8719 0.77217 0.8391 0.89 0.9523 0.9693 0.8689
2073.651 0.8374 0.9372 1.0651 0.9886 0.9463 0.9831 0.9456 0.8288 0.78035 0.76539
2092.941 0.75326 0.8625 0.8709 0.872 0.8659 0.8414 1.0152 1.0313 1.0288 1.1636
2112.231 1.2155 1.2294 1.2335 1.0933 1.0819 1.22 1.1329 1.1167 1.1988 1.2522
2131.521 1.2308 1.18 1.1949 1.2002 1.1318 1.0308 0.9769 1.013 1.037 1.1042
2150.810 1.1132 0.9537 0.8826 0.8634 0.9594 1.0545 1.1238 1.1115 1.0174 0.9426
2170.100 0.9824 1.0673 1.0251 1.0196 0.9831 1.0213 0.9688 0.869 0.882 1.0133
2189.390 1.1222 1.0777 0.9561 0.9351 0.998 0.9934 0.8712 0.8611 1.0022 1.0017
2208.680 1.0021 1.0342 1.0658 0.9785 0.9525 0.9692 1.0595 1.1015 1.0147 0.9672
2227.970 0.9408 1.1036 1.2599 1.4502 1.4849 1.2245 1.298 1.4978 1.5446 1.6041
2247.259 1.6863 1.798 1.728 1.6403 1.6471 1.6234 1.5737 1.4219 1.3114 1.3241
2266.549 1.361 1.3803 1.3593 1.3411 1.2787 1.2922 1.3535 1.3745 1.4472 1.4066
2285.839 1.3731 1.2957 1.1868 1.1545 1.1181 1.1432 1.1452 1.1474 1.1031 0.993
2305.129 1.1148 1.2205 1.0791 1.0908 1.0754 1.0528 1.0355 0.9054 0.8539 0.9717
2324.418 1.2035 1.0829 0.8929 0.9037 0.8957 0.9555 1.0202 1.0336 0.9343 0.9579
2343.708 0.9093 0.8625 0.9768 0.9114 0.8877 1.0066 1.0272 0.896 0.9009 0.9926
2362.998 0.941 1.0416 1.1873 1.2238 1.2243 1.2191 1.2358 1.2042 1.2486 1.3079
2382.288 1.1913 1.0415 1.0132 1.0909 1.215 1.2265 1.3503 1.5015 1.578 1.5648
2401.578 1.4015 1.2684 1.2619 1.3697 1.4253 1.2961 1.1379 1.1958 1.3625 1.4629
2420.867 1.5287 1.5377 1.5383 1.4699 1.3026 1.339 1.3773 1.2732 1.2117 1.2343
2440.157 1.0804 0.9758 1.1266 1.1024 0.9921 0.9433 0.8857 0.9149 0.9719 0.9896
2459.447 0.9467 0.7953 0.8648 1.0054 0.9859 1.0065 1.0399 1.1126 1.2532 1.1889
2478.737 1.0493 1.1218 1.1424 1.1751 1.1119 1.0152 1.0765 0.997 0.8481 0.788
2498.026 0.8664 0.9232 0.9702 1.124 1.2082 1.1786 0.9448 0.8234 0.8622 0.9224
2517.316 0.77338 0.6441 0.6759 0.6694 0.6733 0.690742 0.73872 0.75147 0.70443 0.75666
2536.606 0.78095 0.7174 0.8154 0.9427 1.0204 1.0196 0.9641 0.7888 0.8393 0.8507
2555.896 0.6623 0.68095 0.78459 0.8201 0.8203 0.8999 0.9325 0.9095 0.965 0.8746
2575.186 0.8165 0.75564 0.75415 0.8797 0.8467 0.9282 0.8574 0.8308 0.9865 0.8627
2594.475 0.9233 1.106 1.1774 1.2295 1.2329 1.1634 1.0276 0.978 0.8754 0.8512
2613.765 0.8377 0.77939 0.9614 0.9 0.77445 0.8267 0.8047 0.8268 0.7891 0.8967
2633.055 0.9761 1.0444 1.0657 0.8853 0.8776 0.8981 0.9881 0.9618 0.9325 1.0747
2652.345 0.9922 0.9354 0.9843 1.0224 1.0548 1.1365 0.9631 0.76029 0.918 1.0432
2671.634 0.962 0.8262 0.8161 0.9523 0.9883 0.73859 0.6244 0.7964 0.8881 0.9408
2690.924 0.9311 0.9271 0.9084 0.73945 0.689036 0.8007 1.0428 1.0762 0.829 0.84
2710.214 0.8605 0.7582 0.8293 0.953 0.9261 0.8702 0.7812 0.71958 0.7929 0.690815
2729.504 0.75672 0.9264 0.8178 0.6359 0.6322 0.8314 1.0861 1.1062 0.9094 0.8267
2748.794 0.75643 0.73984 0.9434 0.9598 0.9738 1.0019 1.0701 1.0498 0.9301 1.0392
2768.083 1.0281 0.9316 0.9659 1.0134 0.8485 0.9098 0.9626 1.0046 1.2128 1.2493
2787.373 1.2638 1.2221 1.1571 1.0928 1.1284 1.0201 0.8435 0.8705 0.993 1.1247
2806.663 0.9664 0.72521 0.713 0.70092 0.76589 0.8678 0.8411 0.8395 0.78658 0.75835
2825.953 0.8246 0.9783 0.9616 0.8358 0.73054 0.76981 0.6499 0.539 0.801 1.0099
2845.242 0.9701 0.8538 0.8747 0.9275 0.8652 0.828 0.8626 0.9368 1.0688 0.9809
2864.532 1.016 1.152 1.0768 0.8801 0.7942 0.8661 0.9005 0.8065 0.8193 1.0083
2883.822 0.9082 0.73756 0.8234 0.6783 0.6068 0.71121 0.75171 0.8293 0.8435 0.9781
2903.112 0.9395 0.6365 0.74646 0.8 0.535 0.6561 0.8453 0.9913 1.0542 0.9931
2922.401 0.98 0.70146 0.74857 0.9537 0.6695 0.539 0.577 0.75158 0.9048 0.71459
2941.691 0.7855 0.8692 0.76606 0.9075 0.8999 0.8303 0.8869 0.65 0.585 0.74646
2960.981 0.6757 0.6866 0.6543 0.6752 0.8518 0.7953 0.5912 0.553 0.68191 0.70443
2980.271 0.72359 0.78399 0.7686 0.73643 0.689734 0.6478 0.73427 0.8654 1.0229 1.0505
2999.561 0.9204 0.9059 0.8138 0.582 0.483 0.6764 0.75112 0.7917 0.8816 0.76312
3018.850 0.6228 0.544 0.72641 1.0583 0.8865 0.5946 0.6001 0.71133 0.74194 0.74748
3038.140 0.75962 0.6457 0.6321 0.531 0.467 0.578 0.7958 0.9097 0.78134 0.73651
3057.430 0.8056 0.8473 0.8996 0.8813 0.9689 0.8509 0.5973 0.70652 0.6741 0.6356
3076.720 0.8865 0.8245 0.70851 1.0223 1.0927 1.0116 1.0805 1.1841 1.2323 1.2411
3096.009 1.4246 1.948 2.248 2.658 3.538 4.138 4.608 5.178 6.018 7.248
3115.299 8.878 11.448 15.318 19.038 20.808 20.118 19.438 19.108 15.918 10.758
3134.589 6.618 4.078 2.648 1.968 1.6016 1.4214 1.2491 1.0708 0.9775 0.73486
3153.879 0.73469 1.015 1.0234 1.015 0.8476 0.76615 0.83 0.844 0.9043 0.7894
3173.169 0.533 0.376 0.513 0.75668 0.71979 0.6153 0.71416 0.9216 0.9549 0.6429
3192.458 0.6681 0.67965 0.5975 0.71673 0.6524 0.68038 0.6592 0.6687 0.8145 0.73261
3211.748 0.5895 0.6458 0.72333 0.70661 0.515 0.378 0.561 0.539 0.404 0.6102
3231.038 0.76137 0.6639 0.5928 0.693067 0.7351 0.689537 0.72991 0.619 0.557 0.375
3250.328 0.323 0.424 0.466 0.5947 0.437 0.52 0.6503 0.555 0.74315 0.71342
3269.617 0.67807 0.8678 0.78239 0.6653 0.691361 0.68596 0.6617 0.6754 0.72397 0.6607
3288.907 0.6518 0.6139 0.372 0.516 0.58 0.6505 0.8882 0.9263 0.8805 0.6717
3308.197 0.424 0.49 0.627 0.567 0.521 0.54 0.8137 0.8481 0.6488 0.611
3327.487 0.527 0.78248 0.8538 0.374 0.397 0.575 0.495 0.546 0.69881 0.70002
3346.777 0.6587 0.5931 0.72191 0.8674 0.6768 0.543 0.6458 0.5938 0.435 0.386
3366.066 0.568 0.75287 0.63 0.76333 0.6145 0.45 0.68395 0.78456 0.8877 0.75588
3385.356 0.541 0.552 0.8171 1.0052 0.8323 0.8007 0.9311 0.8647 0.6381 0.477
3404.646 0.542 0.8081 0.6154 0.404 0.584 0.8693 0.9124 0.7166 0.7973 0.8983
3423.936 0.695619 0.554 0.574 0.539 0.501 0.76034 1.0082 0.559 0.437 0.558
3443.225 0.5 0.399 0.689734 0.8038 0.499 0.533 0.46 0.518 0.6612 0.690409
3462.515 0.516 0.551 0.74674 0.72396 0.8638 0.8563 0.78644 0.75778 0.72858 0.7009
3481.805 0.73746 0.833 0.8471 0.70329 0.73405 0.963 0.75778 0.69813 0.9183 0.71979
3501.095 0.6675 0.7513 0.5939 0.6592 0.912 0.8462 0.6271 0.407 0.488 0.7965
3520.385 0.6842 0.585 0.612 0.74531 0.6105 0.513 0.76332 0.8961 0.78007 0.565
3539.674 0.693556 0.73803 0.6544 0.6507 0.565 0.521 0.542 0.5919 0.76161 0.77419
3558.964 0.6265 0.431 0.396 0.6253 0.73825 0.74533 0.574 0.557 0.577 0.638
3578.254 0.8666 0.8638 0.74666 0.566 0.586 0.7937 0.8332 0.8177 0.8472 0.74835
3597.544 0.6558 0.584 0.68606 0.7339 0.575 0.8628 0.77349 0.6663 0.524 0.203
3616.833 0.292 0.208 0.167 0.462 0.6251 0.6482 0.71602 0.491 0.485 0.8195
3636.123 0.8238 0.5966 0.361 0.605 0.803 0.6253 0.6581 0.584 0.508 0.5892
3655.413 0.434 0.364 0.68671 0.71346 0.484 0.5906 0.6052 0.457 0.555 0.515
3674.703 0.445 0.431 0.283 0.425 0.67944 0.75127 0.6644 0.628 0.6524 0.534
3693.993 0.442 0.71488 0.77135 0.528 0.523 0.48 0.573 0.6236 0.586 0.6551
3713.282 0.9729 0.9883 0.73549 0.74623 0.536 0.318 0.31 0.26 0.364 0.386
3732.572 0.45 0.558 0.458 0.54 0.75057 0.70744 0.512 0.507 0.45 0.394
3751.862 0.314 0.24 0.57 0.6312 0.475 0.6658 0.8432 0.655 0.316 0.099
3771.152 0.276 0.401 0.435 0.493 0.288 0.171 0.248 0.331 0.462 0.528
3790.441 0.5932 0.789 0.6337 0.6546 0.8377 0.479 0.431 0.9311 0.8532 0.771
3809.731 0.775 0.413 0.294 0.6473 0.8933 0.5924 0.55 0.6418 0.9282 1.2677
3829.021 1.0285 0.8229 0.8904 0.8627 0.8671 1.053 1.0949 1.0049 0.9676 1.1369
3848.311 0.9667 0.6151 0.291 0 0.232 0.354 0.27 0.499 0.8389 0.463
3867.601 0.221 0.6278 0.6283 0.579 0.457 0.367 0.561 0.6405 0.6033 0.6587
3886.890 0.6613 0.606 0.690935 0.70869 0.72902 0.71749 0.332 0.376 0.6141 0.374
3906.180 0.41 0.54 0.572 0.553 0.71676 0.9309 0.542 0.247 0.265 0.491
3925.470 0.6453 0.548 0.8164 0.9717 0.8853 0.6689 0.296 0.309 0.638 0.6406
3944.760 0.381 0.379 0.52 0.7081 0.6619 0.574 0.585 0.6596 0.757 0.71705
3964.049 0.71718 0.5937 0.575 0.6597 0.7636 0.8786 0.7928 0.72619 0.6563 0.6668
3983.339 0.76823 0.9672 1.0455 0.8948 1.0046 1.1057 1.2323 1.2864 1.3766 1.414
##END=
