##TITLE=Methyl-2,4,6-Trihydroxybenzoate
##JCAMP-DX=4.24
##DATA TYPE=INFRARED SPECTRUM
##ORIGIN=EPA-IR VAPOR PHASE LIBRARY
##OWNER=SRD/NIST
Collection (C) 2018 copyright by the U.S. Secretary of Commerce
on behalf of the United States of America. All rights reserved.
##CAS REGISTRY NO=3147-39-5
##MOLFORM=C8 H8 O5
##$NIST SOURCE=MSDC-IR
##STATE=gas
##XUNITS=1/CM
##YUNITS=ABSORBANCE
##XFACTOR=1.
##YFACTOR=0.001
##DELTAX=1.92898
##FIRSTX=549.8
##LASTX=4000.7
##FIRSTY=16.27
##MAXX=4000.7
##MINX=549.759
##MAXY=0.28459
##MINY=0
##NPOINTS=1790
##XYDATA=(X++(Y..Y))
549.759 16.27 16.9 17.37 21.94 27.75 23.86 16.88 16.25 20.58 23.74
569.049 28.38 26.29 14.21 14.13 16.31 12.8 10.93 9.39 10.77 12.09
588.339 4.39 0.76 1.51 0.04 0 1.53 4.63 9.06 11.58 15.11
607.628 20.02 23.95 28.24 31.08 34.08 36.66 37.45 38.05 38.32 37.39
626.918 35.19 35.24 37.13 38.26 38.95 39.86 40.47 39.24 36.69 34.19
646.208 32.4 30.59 29.18 27.92 26.25 24.91 25.41 27.63 29.22 29.09
665.498 28.8 31.53 32.85 32.96 33.16 32.9 34.34 35.69 36.44 37.65
684.787 39.4 41.79 44.21 45.7 46.728 49.35 52.02 54.33 56.9 57.36
704.077 57.32 57.56 56.96 55.65 54.34 53.93 53.06 51.08 49.51 47.7495
723.367 45.97 43.6 40.83 39.42 38.34 36.11 34.05 33.56 32.94 32.14
742.657 31.86 31.26 31.29 31.32 31.24 31.24 31.56 31.75 31.16 31.96
761.947 32.52 31.9 31.82 31.69 32.01 32.44 32.69 32.82 32.48 32.66
781.236 32.85 33.1 32.71 33.4 35.27 35.96 36.48 37.95 39.7 40.88
800.526 41.64 43.38 46.402 49.3 51.61 52.39 51.39 50.43 49.85 48.56
819.816 47.9404 47.9782 48.81 49.73 50.93 52.93 54.88 58.74 62.88 61.82
839.106 57.56 54.32 50.9 47.9263 46.04 43.81 41.39 38.98 37.65 36.92
858.395 35.84 34.68 34.07 34.5 34.55 34.24 34.07 33.99 33.52 33.5
877.685 33.99 33.56 33.31 33.29 32.86 32.65 32.32 31.62 31.81 32.57
896.975 32.79 32.36 32.13 32.69 33.39 33.97 32.94 31.76 32.22 33.33
916.265 34 33.85 33.97 34.41 35.08 35.68 35.54 35.14 35.22 35.67
935.555 36.92 38.2 39.38 41.45 43.21 44.01 45.73 46.771 46.12 45.82
954.844 45.69 45.02 43.47 42.01 40.47 38.96 37.42 35.91 35.33 35.72
974.134 35.05 34.68 35.01 34.15 34.38 35.32 35.94 36.26 35.99 36.46
993.424 37.13 38.48 40.64 43.91 47.9289 52.27 56.34 56.73 56.3 55.06
1012.714 53.05 52.52 48.76 42.14 38.69 37.05 35.48 35.9 35.67 35.16
1032.003 37.52 38.25 37.72 38.12 38.61 39.26 39.05 39.17 39.6 40.66
1051.293 42.79 43.93 45.4 49.14 53.07 56.39 61.29 65.82 70.27 76.32
1070.583 82.05 88.7 94.36 99.16 107.7 116.72 121.83 128.65 135.19 137.88
1089.873 141.96 144.35 143.5 141.55 137.98 131.59 123.26 114.1 103.62 93.57
1109.163 83.94 75.59 70.47 65.54 62.83 63.27 64.06 66.38 69.4 73.94
1128.452 82.18 91.25 104.28 124.5 147.29 168.8 187.92 201.78 209.09 209.72
1147.742 205.88 197.61 180.83 161.27 143.04 128.59 119.57 115.24 114.76 116.7
1167.032 117.91 118.61 118.24 115.32 112.53 110.94 107.97 102.44 96.57 92.13
1186.322 90.16 88.44 86.67 85.85 84.89 86.05 87.82 87.99 87.93 89.46
1205.611 92.18 94.39 98.24 106.93 119.24 133.46 152.6 177.31 204.87 231.52
1224.901 252.59 271.05 282.91 284.59 279.27 268.22 250.05 225.23 201.28 179.65
1244.191 163.4 153.81 147.81 145.07 143.31 141.99 139.8 135.44 130.73 125.56
1263.481 120.18 114.65 109.19 106.14 104.74 103.15 102.93 104.14 104.97 106.05
1282.771 107.46 109.44 111.87 114.45 117.48 120.6 123.54 126.78 129.56 130.76
1302.060 131.04 129.89 126.71 122.14 116.6 110.1 103.13 96.79 91.1 85.97
1321.350 82.02 79.08 76.91 75.05 73.09 71.82 71.11 70.3 69.39 68.49
1340.640 68.06 67.35 66.75 66.63 66.14 65.59 65.22 65.32 65.49 65.45
1359.930 65.3 65.07 64.85 64.48 64 63.42 62.74 61.78 61.05 60.67
1379.219 60.38 60.13 60.48 61.62 63.21 65.66 68.64 71.41 74.97 78.68
1398.509 82.18 85.96 89.13 92.1 94.59 96.39 97.32 97.6 97.31 95.93
1417.799 93.6 90.61 87.68 84.8 82 80.17 79.76 81.02 83.62 86.66
1437.089 89.24 90.6 91.32 91.73 90.75 87.03 80.73 75.03 71.04 68.49
1456.378 67.22 66.82 66.96 67.79 69.72 72.61 75.99 79.65 83.12 86.69
1475.668 89.83 92.47 94.35 94.87 94.26 92.76 90.39 87.63 84.46 81.42
1494.958 79.37 78.36 78.33 79.09 80.61 82.01 83.26 84.54 84.7 83.47
1514.248 81.31 78.47 74.99 71.28 67.58 64.76 62.27 59.9 57.61 55.72
1533.538 54.07 52.32 50.92 49.24 47.605 46.371 45.62 45.3 45 44.95
1552.827 45.03 45.35 45.87 46.523 47.8341 48.73 49.48 51.28 53.05 55.03
1572.117 58.29 62.04 66.17 71.27 78.25 87.17 97.46 109.14 122.06 135.68
1591.407 148.78 160.15 168.77 174.22 176.96 175.93 170.82 163.3 153.37 142.33
1610.697 132.26 124.23 119.15 116.79 116.13 116.56 117.36 117.94 118.7 120.22
1629.986 122.71 126.23 131.35 139.57 150.86 164.51 180.97 198.3 215.07 230.04
1649.276 240.72 244.31 241.65 234.61 222.79 206.53 188.84 171.39 157.06 147.35
1668.566 142.59 141.91 145.45 152.57 163.34 175.02 187.85 200.41 211.41 221.41
1687.856 227.87 230.99 229.8 224.35 213.95 200.79 187.1 170.39 155.45 140.19
1707.146 125.65 112.54 100.58 89.75 80.64 73.18 66.52 61.43 57.12 53.46
1726.435 50.69 48.24 46.199 44.23 42.78 41.74 41 40.17 39.08 38.2
1745.725 37.72 37.46 37.2 36.82 36.78 36.8 36.49 36.31 36.08 35.92
1765.015 35.84 35.72 35.41 34.98 34.65 34.41 34.34 34.23 34.13 33.92
1784.305 33.74 33.44 33.26 33.42 33.55 33.19 32.82 32.7 32.47 32.36
1803.594 32.39 32.19 32.19 32.31 32.2 32.02 31.92 32.07 32.21 32.08
1822.884 31.9 31.56 31.38 31.38 31.33 31.19 31.12 31.43 31.19 30.9
1842.174 31.04 31.12 31.09 31.08 31.25 31.3 31.12 30.88 30.8 30.95
1861.464 31.14 31.29 31.46 31.32 31.14 31.12 31.27 31.52 31.51 31.42
1880.754 31.41 31.46 31.56 31.96 32.14 31.86 31.82 32.01 32.13 31.97
1900.043 32.04 32.06 31.67 31.72 31.79 31.57 31.35 31.4 31.51 31.27
1919.333 31.22 31.27 31.25 31.02 30.69 30.47 30.4 30.57 30.43 30.2
1938.623 30.47 30.76 30.53 30.06 29.83 29.87 29.95 30.13 30.33 30.2
1957.913 30.25 30.35 30.21 29.74 29.7 29.95 29.65 29.83 29.89 29.78
1977.202 29.96 29.82 29.75 29.78 29.82 29.95 29.84 29.76 29.84 29.79
1996.492 30.05 30.2 29.95 29.97 30.21 30.42 30.58 30.82 31.02 30.83
2015.782 30.64 30.78 30.77 30.72 30.86 30.83 30.61 30.39 30.52 30.76
2035.072 30.65 30.61 30.71 30.7 30.71 30.42 30.31 30.47 30.49 30.49
2054.362 30.14 30.21 30.32 29.9 29.82 29.98 29.85 29.94 30.3 30.26
2073.651 30.11 29.84 29.72 29.76 29.67 29.68 29.81 29.89 29.81 29.89
2092.941 29.96 29.7 29.61 29.7 29.65 29.66 29.73 29.57 29.48 29.48
2112.231 29.39 29.55 29.89 30.11 29.69 29.57 29.57 29.53 29.45 29.18
2131.521 29.37 29.57 29.5 29.34 29.54 29.64 29.4 29.36 29.61 29.64
2150.810 29.57 29.9 29.94 29.72 29.72 29.9 29.7 29.28 29.45 29.53
2170.100 29.5 29.62 29.63 29.83 30.04 30.23 30.15 30.3 30.49 30.56
2189.390 30.32 29.8 30.05 30.38 30.24 29.82 29.88 30.31 30.26 30.22
2208.680 30.31 30.1 30.25 30.57 30.39 30.32 30.54 30.46 30.55 30.9
2227.970 30.88 30.87 30.93 30.75 30.73 30.67 30.64 30.6 30.44 30.62
2247.259 30.6 30.4 30.09 29.89 29.84 29.96 29.87 29.56 29.69 29.53
2266.549 29.21 29.62 29.56 29.21 29.62 29.55 29.48 29.63 29.61 29.65
2285.839 29.74 29.97 30.18 30.14 29.97 30.32 31.04 30.89 30.52 30.87
2305.129 31 31.29 31.65 31.86 31.97 31.7 31.84 32.21 32.18 32.23
2324.418 32.3 32.09 31.66 31.68 31.89 31.86 31.84 31.33 31.16 31.77
2343.708 31.82 31.31 31.11 31.14 31.3 31.72 32.22 32.19 32.61 33.46
2362.998 33.45 32.98 32.84 32.62 32.31 31.96 31.51 31.55 31.46 31.2
2382.288 30.89 30.61 30.41 29.98 30.39 30.65 30.49 30.65 30.32 30.03
2401.578 29.78 29.99 30.29 30.17 29.98 29.88 30.07 30.16 30.25 30.14
2420.867 30.26 30.21 30.13 30.09 29.68 29.59 29.65 29.84 30.03 29.94
2440.157 29.49 29.42 29.85 29.63 29.42 29.89 30.11 30.17 30.05 29.71
2459.447 29.78 29.6 29.32 29.38 29.33 29.41 29.61 29.61 29.64 29.95
2478.737 30.18 30.15 30.41 30.47 30.74 30.71 30.29 30.29 30.6 30.47
2498.026 30.13 30.89 31.11 30.44 30.64 31.59 31.41 30.92 31.51 31.75
2517.316 31.74 31.59 31.39 31.57 31 30.74 30.91 30.74 30.97 30.93
2536.606 30.76 31.03 31.28 31.28 30.97 30.78 30.75 30.49 30.1 30.05
2555.896 30.41 30.25 30.19 30.23 30.05 30.37 30.58 30.27 29.93 30.36
2575.186 30.66 30.43 30.52 30.71 30.41 30.3 30.4 30.28 30.65 31.01
2594.475 30.99 31.22 31.51 31.13 30.6 30.52 31 31.1 31.11 31.26
2613.765 31.02 31.17 31.29 31.12 30.77 30.6 31.11 31.12 30.55 30.23
2633.055 30.33 30.76 30.64 30.61 30.85 30.94 31.13 31.02 31.2 31.5
2652.345 30.92 30.71 30.56 30.25 30.32 30.4 30.63 30.72 30.6 30.62
2671.634 30.28 29.93 30.17 30.1 30.14 30.54 30 29.58 30.08 30.08
2690.924 29.22 29.24 30.13 30.57 30.3 29.56 29.5 29.56 29.58 29.88
2710.214 29.81 30.41 31.21 30.77 30.5 30.39 30.19 30.08 29.79 29.89
2729.504 29.95 30.18 30.31 29.95 30.02 30.21 30.28 30.32 29.92 29.47
2748.794 29.59 30 30.49 30.93 30.71 30.29 30.53 30.42 29.55 29.32
2768.083 29.54 30.24 30.54 30.35 30.47 30.45 30.35 30.8 30.57 30.32
2787.373 30.45 30.26 30.5 30.63 30.55 30.1 29.84 30.38 30.87 30.83
2806.663 30.63 30.45 30.48 30.54 30.08 30.22 30.61 30.1 29.51 30.22
2825.953 30.69 30.42 30.74 30.6 30.9 31.67 32.14 32.51 32.06 32
2845.242 32.14 32.19 32.6 32.99 33.49 33.52 33.1 33.11 33.4 33.25
2864.532 32.5 32.48 32.78 32.09 31.68 31.65 31.69 31.57 32.16 31.96
2883.822 31.73 32.13 32.43 32.97 33.09 33.1 32.9 32.8 32.79 32.87
2903.112 32.72 33 33.72 34.39 34.46 34.24 34.15 34.11 34.57 35.11
2922.401 35.01 34.68 34.95 34.83 35.02 35.59 35.07 34.23 33.55 33.79
2941.691 34.07 34.5 34.99 35.05 35.77 36.56 38.01 40.2 42.82 45.75
2960.981 49.3 52.71 54.9 55.54 55.13 54.26 52.84 50.05 46.476 43.58
2980.271 40.43 37.56 35.77 35.44 35.36 34.8 34.47 34 34.57 35.84
2999.561 35.66 35.31 35.81 36.53 36.54 36.94 36.98 36.15 36.65 37.09
3018.850 37.09 37.68 37.29 35.93 35.68 35.67 35.5 35.64 35.93 36.1
3038.140 35.95 35.48 35.31 35.08 34.41 33.95 33.94 34.42 34.91 34.97
3057.430 34.88 35.04 35.04 35.01 35.09 34.68 34.26 34.05 33.69 33.13
3076.720 33.08 33.74 33.75 33.5 33.22 33.44 34.15 33.9 33.39 33.49
3096.009 33.89 34.15 33.67 33.77 34.41 34.25 33.91 33.48 33.53 33.82
3115.299 34.14 34.1 33.17 33.72 34.7 34.67 34.98 35.55 35.64 35.69
3134.589 34.93 33.86 35.09 35.57 34.34 35.31 36.15 36.45 37.2 36.32
3153.879 36.51 37.14 37.65 37.76 36.75 37.3 38.58 38.78 38.86 39.08
3173.169 39.99 40.94 41.05 41.92 43.47 43.97 44.21 45.21 45.98 46.318
3192.458 47.4558 48.43 48.34 48.21 48.47 49.12 48.64 49.48 51.28 52.27
3211.748 52.72 52.72 52.23 51.61 51.83 52.18 52.25 51.77 51.7 52.23
3231.038 52.48 52.06 51.44 51.38 52.04 51.96 50.6 49.92 50.49 50.69
3250.328 49.8 49.33 50.06 49.43 48.92 49.02 48.72 48.61 48.26 48.21
3269.617 48.25 47.3305 46.16 45.65 45.58 45.48 45.45 45.04 44.45 44.46
3288.907 43.62 43.47 43.69 43.31 43.94 43.54 43.01 43.22 43.16 43.29
3308.197 42.22 41.39 42.32 42.35 42.22 43.65 44.18 42.37 40.77 40.75
3327.487 40.18 39.64 39.97 40.09 40.18 40.09 39.36 39.47 39.32 39.03
3346.777 39.15 38.88 38.01 38.6 39.36 37.62 36.45 35.66 35.72 36.22
3366.066 36.25 35.59 34.78 35.16 35.6 36.19 35.98 35.76 35.93 35.27
3385.356 35.79 36.56 35.6 34.52 34.62 34.72 34.73 35.75 35.44 33.77
3404.646 34.06 34.36 33.89 34.03 34.01 34.33 34.12 33.42 33.49 33.34
3423.936 33.62 34.44 35.03 35.43 35.45 35.36 34.85 34.84 35.82 36.2
3443.225 35.69 35.9 36.42 36.61 38.15 39.46 40.17 41.16 43.14 44.35
3462.515 45.71 49.2 51.98 55.6 60.89 66.08 72.56 80.19 88.08 96.92
3481.805 105.87 114.58 123.2 130.15 134.79 137.52 138.67 137.13 132.48 126.04
3501.095 119.73 113.84 106.53 99.53 93.17 87.57 83.01 79.42 76.3 72.83
3520.385 69.54 66.35 64.6 62.45 59.55 57.58 55.68 52.62 49.76 48.67
3539.674 47.6232 44.86 42.35 40.82 39.35 39.28 38.32 36.89 36.32 35.54
3558.964 35.07 34.89 34.72 34.87 34.01 33.05 32.97 31.7 31.46 32.49
3578.254 32.68 33.04 31.89 30.96 31.07 29.44 29.63 31.24 31.39 31.2
3597.544 31.39 30.48 29.69 29.11 28.94 29.29 29.55 30.5 30.25 30.34
3616.833 30.55 31.73 33.25 33.63 34.98 37.65 41.01 45.7 51.26 58.06
3636.123 67.26 78.14 89.11 94.75 93.8 91.43 87.28 81.27 74.98 65.3
3655.413 52.85 43.39 37.22 33.02 31.95 30.84 30.41 30.34 29.26 29.45
3674.703 28.96 27.47 27.47 28.55 28.94 28.05 27.45 28.35 28.52 27.48
3693.993 27.77 28.15 27.72 27.13 26.75 26.87 27.66 28.93 29.19 28.41
3713.282 27.53 27.61 27.62 27.57 28.27 27.48 25.95 26.69 28.14 27.55
3732.572 27.02 28 27.72 26.37 27.6 28.29 27.1 26.97 26.99 26.38
3751.862 26.41 27.09 26.47 26.17 26.88 26.88 27.33 28.04 27 27.02
3771.152 27.92 27.44 27.51 28.07 27.84 27.17 27.39 27.68 27.38 26.37
3790.441 25.93 27.35 28.09 27.57 26.84 26.19 27.01 27.88 27.52 27.61
3809.731 27.65 26.62 26.32 26.92 26.88 26.26 26.54 27.33 27.27 27.69
3829.021 27.25 26.6 26.56 27.79 29.09 28.11 27.41 27.81 28.31 28.55
3848.311 28.22 27.42 27.6 27.67 27.15 27.83 28.14 27.02 26.39 27.17
3867.601 28.27 28.35 28.35 29.08 28.31 28.15 27.73 26.88 28.03 28.1
3886.890 26.91 26.81 27.68 27.39 26.36 27.49 27.8 26.96 27.48 28.33
3906.180 29.04 29.75 28.79 27.66 28.03 27.54 28.09 28.67 28.41 28.42
3925.470 28.3 28.68 27.68 26.9 28.03 27.45 27.37 27.91 27.57 26.64
3944.760 25.21 25.8 27.07 27.19 27.63 28.22 28.08 27.41 27.22 26.29
3964.049 26 27.3 27.15 25.17 25.55 26.81 26.78 27.16 27.61 29.18
3983.339 28.56 27.31 27.98 27.42 27.94 28.16 26.67 26.15 27.09 27.69
##END=
