##TITLE=1,2-Diacetylhydrazine
##JCAMP-DX=4.24
##DATA TYPE=INFRARED SPECTRUM
##ORIGIN=EPA-IR VAPOR PHASE LIBRARY
##OWNER=SRD/NIST
Collection (C) 2018 copyright by the U.S. Secretary of Commerce
on behalf of the United States of America. All rights reserved.
##CAS REGISTRY NO=3148-73-0
##MOLFORM=C 4 H 8 N 2 O 2
##$NIST SOURCE=MSDC-IR
##STATE=gas
##XUNITS=1/CM
##YUNITS=ABSORBANCE
##XFACTOR=1.
##YFACTOR=0.001
##DELTAX=1.92934
##FIRSTX=549.9
##LASTX=3999.5
##FIRSTY=1.693
##MAXX=3999.53
##MINX=549.863
##MAXY=0.014513
##MINY=0
##NPOINTS=1789
##XYDATA=(X++(Y..Y))
549.863 1.693 1.673 1.723 1.753 1.683 1.683 1.603 1.593 1.643 1.633
569.156 1.613 1.643 1.663 1.663 1.673 1.663 1.653 1.643 1.663 1.643
588.450 1.663 1.723 1.673 1.643 1.693 1.733 1.703 1.723 1.693 1.693
607.743 1.753 1.753 1.743 1.693 1.683 1.683 1.693 1.673 1.643 1.623
627.037 1.633 1.623 1.593 1.573 1.553 1.5308 1.4715 1.4459 1.4217 1.4095
646.330 1.4134 1.3745 1.3482 1.3244 1.3236 1.2894 1.2481 1.255 1.2214 1.171
665.624 1.1704 1.1858 1.1422 1.0903 1.0486 1.0009 0.9695 0.9666 0.9507 0.9325
684.917 0.9064 0.8523 0.8132 0.791 0.7825 0.823 0.8888 0.8928 0.8995 0.9316
704.210 0.9478 0.9776 0.9941 0.9941 0.9734 0.9821 0.9844 0.9697 0.9628 0.9391
723.504 0.9174 0.8927 0.9045 0.8967 0.8843 0.9046 0.9082 0.8993 0.9144 0.964
742.797 0.9822 0.9859 0.9913 0.9929 1.0072 1.0277 1.039 1.0251 1.048 1.0755
762.091 1.0803 1.0767 1.0709 1.0639 1.0704 1.0858 1.0746 1.0583 1.0629 1.0717
781.384 1.0662 1.0707 1.071 1.083 1.0957 1.0793 1.0695 1.0839 1.0914 1.0891
800.678 1.0907 1.0802 1.0955 1.1123 1.1139 1.1233 1.1092 1.0895 1.0867 1.094
819.971 1.0848 1.0712 1.0938 1.0799 1.0291 1.01 0.9928 0.9675 0.9625 0.9471
839.264 0.9305 0.9199 0.8766 0.8645 0.8734 0.8625 0.8242 0.8147 0.8315 0.8126
858.558 0.8048 0.7958 0.7905 0.7686 0.7414 0.7616 0.7725 0.7529 0.7539 0.762
877.851 0.7182 0.7008 0.6942 0.6756 0.6687 0.6472 0.6348 0.62767 0.62881 0.62326
897.145 0.61814 0.61503 0.58538 0.57454 0.60153 0.60567 0.59507 0.61387 0.6564 0.6834
916.438 0.695 0.6836 0.6921 0.7109 0.6928 0.6907 0.6967 0.684 0.6814 0.6797
935.732 0.683 0.7315 0.7697 0.7869 0.8227 0.8529 0.8701 0.8886 0.9329 1.012
955.025 1.0913 1.1336 1.1663 1.2146 1.2643 1.3243 1.3855 1.4614 1.5128 1.553
974.318 1.613 1.673 1.723 1.743 1.773 1.803 1.823 1.813 1.793 1.743
993.612 1.673 1.613 1.543 1.4675 1.4076 1.3274 1.2497 1.1791 1.0882 1.061
1012.905 1.0444 1.0055 1.0165 0.9893 0.9432 0.9582 0.9413 0.935 0.9906 0.9948
1032.199 1.0392 1.0716 1.024 1.0654 1.0956 1.0713 1.1821 1.2455 1.2262 1.2747
1051.492 1.2919 1.2955 1.3338 1.3432 1.3585 1.3903 1.3802 1.3806 1.3617 1.3231
1070.786 1.304 1.2713 1.2012 1.1734 1.1698 1.122 1.0551 0.9859 0.929 0.9156
1090.079 0.9062 0.8385 0.7881 0.7813 0.746 0.7091 0.7086 0.7027 0.6796 0.63047
1109.372 0.61551 0.62202 0.59175 0.56796 0.56097 0.53505 0.5228 0.54268 0.540125 0.55753
1128.666 0.55239 0.54658 0.56178 0.554 0.57247 0.59924 0.59889 0.61896 0.6823 0.7034
1147.959 0.7272 0.7696 0.804 0.8201 0.8366 0.8661 0.9064 0.9658 1.007 1.0319
1167.253 1.0705 1.1227 1.1777 1.232 1.3061 1.3788 1.453 1.5257 1.593 1.673
1186.546 1.723 1.833 1.983 2.153 2.353 2.583 2.883 3.223 3.673 4.233
1205.840 4.803 5.403 6.033 6.633 7.123 7.533 7.843 8.043 8.103 8.013
1225.133 7.833 7.563 7.213 6.763 6.193 5.603 5.093 4.693 4.323 3.993
1244.426 3.773 3.583 3.393 3.213 3.063 2.903 2.803 2.693 2.583 2.533
1263.720 2.493 2.423 2.333 2.253 2.163 2.133 2.123 2.073 2.033 1.953
1283.013 1.903 1.913 1.913 1.933 1.933 1.883 1.793 1.773 1.833 1.843
1302.307 1.833 1.833 1.803 1.693 1.603 1.583 1.583 1.563 1.5256 1.4804
1321.600 1.3929 1.3161 1.3345 1.3627 1.3531 1.3414 1.3414 1.2014 1.0412 1.1663
1340.894 1.4059 1.573 1.643 1.713 1.743 1.793 2.003 2.233 2.443 2.643
1360.187 2.783 2.893 3.133 3.443 3.603 3.753 3.913 4.033 4.093 4.163
1379.480 4.383 4.543 4.573 4.563 4.563 4.673 4.823 4.953 5.163 5.523
1398.774 5.953 6.503 7.133 7.783 8.413 9.103 9.903 10.773 11.593 12.273
1418.067 12.873 13.243 13.463 13.863 14.293 14.513 14.473 14.203 13.623 12.793
1437.361 12.113 11.593 10.943 10.143 9.353 8.533 7.663 7.063 6.593 6.073
1456.654 5.483 5.123 4.783 3.933 3.543 3.803 3.753 3.553 3.323 3.083
1475.948 2.863 2.693 2.513 2.273 2.253 2.393 2.383 2.303 2.253 2.203
1495.241 2.093 1.983 1.963 2.043 2.123 2.063 1.893 1.783 1.803 1.573
1514.534 1.3225 1.4443 1.4366 1.2833 1.2019 1.1641 0.9875 0.7244 0.8757 1.0075
1533.828 0.9558 0.9375 0.8294 0.6796 0.60963 0.7033 0.7785 0.7935 0.733 0.7237
1553.121 0.6861 0.62085 0.6396 0.59613 0.6852 0.7331 0.6853 0.62602 0.6817 0.8331
1572.415 0.8546 0.7907 0.7583 0.7664 0.781 0.8664 0.9111 0.9103 0.9241 0.9226
1591.708 0.9181 0.9609 1.0206 1.0053 0.9758 0.9379 0.8876 0.9562 1.0608 1.0867
1611.002 1.1008 1.1144 1.1 1.1297 1.2323 1.2935 1.335 1.4004 1.4486 1.5012
1630.295 1.603 1.693 1.713 1.783 1.973 2.133 2.293 2.423 2.543 2.743
1649.588 2.973 3.143 3.413 3.833 4.223 4.613 5.053 5.553 6.113 6.673
1668.882 7.293 8.023 8.773 9.523 10.283 10.933 11.493 11.923 12.313 12.733
1688.175 13.033 13.273 13.473 13.493 13.463 13.433 13.303 13.213 13.133 13.043
1707.469 12.973 12.893 12.783 12.643 12.493 12.373 12.383 12.463 12.503 12.553
1726.762 12.593 12.563 12.493 12.363 12.243 12.173 11.983 11.733 11.503 11.233
1746.056 10.893 10.423 9.843 9.283 8.733 8.093 7.493 6.923 6.303 5.743
1765.349 5.193 4.623 4.163 3.763 3.383 3.053 2.753 2.493 2.243 2.003
1784.642 1.793 1.663 1.543 1.374 1.2681 1.22 1.17 1.1174 1.0239 0.9593
1803.936 0.9748 0.9473 0.9105 0.9014 0.8818 0.8956 0.8943 0.8766 0.878 0.8801
1823.229 0.8622 0.8383 0.8648 0.8785 0.8701 0.8744 0.904 0.9207 0.8787 0.823
1842.523 0.7624 0.709 0.686 0.6665 0.6535 0.62564 0.60113 0.5831 0.54398 0.5177
1861.816 0.4983 0.4628 0.4459 0.421 0.39 0.383 0.382 0.393 0.378 0.365
1881.110 0.358 0.353 0.367 0.359 0.338 0.333 0.331 0.314 0.308 0.316
1900.403 0.3 0.296 0.318 0.331 0.32 0.303 0.31 0.312 0.287 0.285
1919.696 0.306 0.295 0.298 0.313 0.311 0.317 0.32 0.322 0.324 0.311
1938.990 0.311 0.302 0.275 0.282 0.307 0.321 0.311 0.311 0.33 0.313
1958.283 0.303 0.315 0.318 0.335 0.335 0.313 0.311 0.326 0.338 0.334
1977.577 0.335 0.34 0.346 0.35 0.347 0.341 0.333 0.319 0.319 0.331
1996.870 0.335 0.338 0.335 0.342 0.347 0.355 0.358 0.339 0.327 0.335
2016.164 0.333 0.309 0.319 0.338 0.355 0.358 0.334 0.338 0.338 0.331
2035.457 0.325 0.329 0.314 0.318 0.343 0.341 0.34 0.338 0.334 0.332
2054.750 0.344 0.354 0.356 0.335 0.327 0.324 0.318 0.343 0.343 0.326
2074.044 0.331 0.335 0.323 0.337 0.36 0.331 0.321 0.325 0.331 0.334
2093.337 0.323 0.336 0.344 0.341 0.323 0.34 0.361 0.362 0.352 0.349
2112.631 0.34 0.346 0.355 0.336 0.339 0.348 0.348 0.359 0.38 0.38
2131.924 0.367 0.355 0.348 0.338 0.345 0.353 0.349 0.346 0.355 0.359
2151.218 0.362 0.36 0.373 0.396 0.393 0.397 0.408 0.41 0.401 0.389
2170.511 0.386 0.381 0.391 0.393 0.386 0.379 0.366 0.381 0.374 0.357
2189.804 0.364 0.384 0.374 0.345 0.351 0.345 0.332 0.331 0.339 0.332
2209.098 0.307 0.298 0.292 0.287 0.273 0.26 0.254 0.249 0.251 0.241
2228.391 0.211 0.192 0.196 0.164 0.145 0.163 0.148 0.132 0.136 0.135
2247.685 0.12 0.109 0.122 0.134 0.147 0.157 0.155 0.129 0.112 0.102
2266.978 0.096 0.106 0.094 0.071 0.051 0.056 0.06 0.055 0.052 0.049
2286.272 0.063 0.096 0.117 0.121 0.148 0.168 0.158 0.158 0.182 0.203
2305.565 0.187 0.161 0.157 0.163 0.167 0.161 0.154 0.146 0.165 0.207
2324.858 0.222 0.231 0.264 0.278 0.277 0.276 0.278 0.306 0.315 0.298
2344.152 0.295 0.309 0.311 0.306 0.311 0.315 0.322 0.33 0.347 0.357
2363.445 0.349 0.353 0.349 0.348 0.346 0.337 0.336 0.299 0.275 0.277
2382.739 0.264 0.266 0.275 0.267 0.249 0.232 0.224 0.229 0.234 0.234
2402.032 0.24 0.227 0.236 0.242 0.228 0.224 0.226 0.225 0.222 0.237
2421.326 0.235 0.223 0.238 0.248 0.234 0.216 0.199 0.213 0.236 0.236
2440.619 0.248 0.261 0.233 0.211 0.219 0.242 0.231 0.205 0.209 0.212
2459.912 0.224 0.247 0.251 0.233 0.235 0.239 0.236 0.236 0.211 0.214
2479.206 0.238 0.232 0.242 0.258 0.249 0.246 0.242 0.221 0.217 0.238
2498.499 0.243 0.241 0.248 0.247 0.241 0.255 0.276 0.274 0.269 0.263
2517.793 0.244 0.239 0.26 0.252 0.22 0.215 0.247 0.232 0.204 0.246
2537.086 0.264 0.254 0.259 0.251 0.258 0.271 0.284 0.277 0.248 0.239
2556.380 0.254 0.267 0.27 0.262 0.258 0.269 0.266 0.262 0.246 0.231
2575.673 0.245 0.249 0.232 0.221 0.208 0.206 0.216 0.213 0.213 0.212
2594.966 0.19 0.193 0.21 0.194 0.183 0.189 0.171 0.141 0.116 0.105
2614.260 0.123 0.129 0.146 0.173 0.161 0.161 0.198 0.219 0.216 0.214
2633.553 0.216 0.216 0.197 0.2 0.227 0.243 0.255 0.254 0.248 0.257
2652.847 0.273 0.263 0.267 0.275 0.267 0.279 0.293 0.29 0.285 0.279
2672.140 0.277 0.288 0.288 0.276 0.272 0.272 0.28 0.282 0.271 0.27
2691.434 0.267 0.245 0.259 0.292 0.296 0.308 0.311 0.305 0.322 0.307
2710.727 0.305 0.31 0.314 0.32 0.294 0.29 0.293 0.286 0.277 0.278
2730.020 0.293 0.323 0.32 0.292 0.273 0.26 0.287 0.278 0.252 0.24
2749.314 0.221 0.221 0.218 0.256 0.277 0.248 0.256 0.257 0.255 0.268
2768.607 0.254 0.234 0.221 0.231 0.235 0.262 0.277 0.252 0.242 0.259
2787.901 0.276 0.244 0.228 0.25 0.222 0.243 0.279 0.274 0.291 0.258
2807.194 0.262 0.29 0.272 0.256 0.237 0.251 0.293 0.279 0.24 0.24
2826.488 0.25 0.251 0.262 0.261 0.259 0.268 0.283 0.249 0.215 0.266
2845.781 0.238 0.185 0.211 0.228 0.236 0.239 0.262 0.26 0.244 0.231
2865.074 0.24 0.238 0.192 0.197 0.209 0.229 0.234 0.203 0.195 0.209
2884.368 0.212 0.216 0.208 0.245 0.273 0.274 0.318 0.312 0.279 0.232
2903.661 0.234 0.282 0.282 0.301 0.323 0.313 0.293 0.295 0.37 0.433
2922.955 0.423 0.403 0.37 0.322 0.345 0.395 0.4433 0.4767 0.4428 0.4495
2942.248 0.4668 0.4809 0.4966 0.505 0.55009 0.542078 0.5057 0.4983 0.474 0.4523
2961.542 0.415 0.3 0.199 0.187 0.171 0.159 0.148 0.124 0.121 0.133
2980.835 0.185 0.208 0.182 0.221 0.317 0.351 0.344 0.373 0.42 0.4396
3000.128 0.394 0.343 0.372 0.404 0.4334 0.4622 0.399 0.316 0.363 0.4618
3019.422 0.4682 0.393 0.34 0.378 0.405 0.4 0.376 0.357 0.371 0.358
3038.715 0.308 0.254 0.301 0.353 0.358 0.318 0.258 0.327 0.4516 0.4684
3058.009 0.419 0.358 0.338 0.351 0.267 0.248 0.322 0.348 0.393 0.384
3077.302 0.382 0.388 0.368 0.356 0.304 0.322 0.37 0.312 0.253 0.274
3096.596 0.325 0.345 0.281 0.256 0.273 0.307 0.304 0.263 0.276 0.275
3115.889 0.236 0.248 0.227 0.193 0.238 0.261 0.242 0.226 0.235 0.246
3135.182 0.232 0.214 0.186 0.154 0.156 0.169 0.168 0.126 0.101 0.101
3154.476 0.066 0.127 0.2 0.117 0.086 0.1 0.1 0.119 0.1 0.075
3173.769 0.09 0.111 0.105 0.059 0.098 0.073 0 0.059 0.069 0.03
3193.063 0.073 0.08 0.01 0.006 0.051 0.109 0.162 0.151 0.151 0.169
3212.356 0.138 0.161 0.224 0.222 0.167 0.155 0.168 0.123 0.109 0.162
3231.650 0.164 0.172 0.175 0.138 0.114 0.093 0.127 0.201 0.219 0.206
3250.943 0.187 0.142 0.117 0.181 0.223 0.236 0.248 0.248 0.234 0.199
3270.236 0.177 0.233 0.31 0.294 0.224 0.228 0.294 0.263 0.21 0.262
3289.530 0.343 0.387 0.339 0.274 0.301 0.31 0.288 0.276 0.239 0.279
3308.823 0.318 0.296 0.32 0.309 0.315 0.314 0.269 0.237 0.271 0.33
3328.117 0.351 0.356 0.329 0.31 0.335 0.378 0.348 0.346 0.416 0.4572
3347.410 0.4696 0.428 0.409 0.5115 0.4897 0.4722 0.56903 0.62563 0.6813 0.6963
3366.704 0.7018 0.701 0.7609 0.8165 0.8369 0.9227 1.0084 1.0708 1.1904 1.3315
3385.997 1.4326 1.5153 1.663 1.793 1.873 2.023 2.253 2.523 2.753 2.933
3405.290 3.193 3.543 3.883 4.143 4.403 4.653 4.863 5.053 5.153 5.233
3424.584 5.253 5.193 5.053 4.893 4.623 4.343 4.103 3.783 3.393 3.053
3443.877 2.813 2.523 2.253 2.053 1.853 1.683 1.563 1.3647 1.2007 1.0969
3463.171 0.9966 0.9167 0.8785 0.7983 0.7017 0.7203 0.6981 0.6735 0.60831 0.4968
3482.464 0.4398 0.4568 0.5226 0.5162 0.4682 0.4574 0.4972 0.4872 0.4548 0.418
3501.758 0.4 0.414 0.377 0.369 0.425 0.398 0.369 0.4374 0.4731 0.424
3521.051 0.347 0.347 0.359 0.399 0.394 0.359 0.358 0.314 0.259 0.26
3540.344 0.315 0.274 0.291 0.247 0.185 0.229 0.192 0.216 0.255 0.246
3559.638 0.266 0.285 0.24 0.14 0.15 0.214 0.181 0.196 0.22 0.194
3578.931 0.173 0.181 0.202 0.194 0.113 0.122 0.163 0.154 0.185 0.183
3598.225 0.226 0.278 0.279 0.232 0.241 0.231 0.168 0.146 0.124 0.107
3617.518 0.124 0.118 0.128 0.189 0.152 0.05 0.043 0.161 0.193 0.169
3636.812 0.182 0.173 0.182 0.206 0.158 0.088 0.071 0.116 0.161 0.151
3656.105 0.158 0.219 0.232 0.223 0.25 0.184 0.102 0.097 0.108 0.122
3675.398 0.174 0.157 0.177 0.254 0.258 0.202 0.169 0.179 0.195 0.238
3694.692 0.244 0.219 0.231 0.225 0.191 0.219 0.218 0.194 0.18 0.145
3713.985 0.181 0.21 0.169 0.154 0.157 0.141 0.107 0.137 0.183 0.15
3733.279 0.088 0.066 0.124 0.188 0.187 0.118 0.093 0.162 0.163 0.091
3752.572 0.106 0.159 0.16 0.147 0.174 0.186 0.172 0.157 0.167 0.217
3771.866 0.236 0.221 0.186 0.211 0.235 0.197 0.2 0.232 0.235 0.226
3791.159 0.237 0.259 0.224 0.158 0.138 0.117 0.15 0.179 0.162 0.207
3810.452 0.204 0.167 0.155 0.158 0.2 0.188 0.179 0.219 0.234 0.223
3829.746 0.206 0.235 0.206 0.139 0.164 0.182 0.167 0.205 0.264 0.273
3849.039 0.195 0.048 0.029 0.146 0.226 0.208 0.162 0.155 0.159 0.143
3868.333 0.127 0.159 0.188 0.189 0.181 0.185 0.211 0.197 0.149 0.146
3887.626 0.171 0.159 0.147 0.198 0.219 0.147 0.063 0.079 0.105 0.134
3906.920 0.17 0.177 0.223 0.24 0.222 0.188 0.169 0.159 0.139 0.161
3926.213 0.155 0.158 0.207 0.179 0.195 0.23 0.192 0.178 0.167 0.172
3945.506 0.183 0.181 0.205 0.219 0.196 0.165 0.193 0.193 0.158 0.155
3964.800 0.162 0.186 0.203 0.201 0.185 0.168 0.165 0.135 0.126 0.199
3984.093 0.213 0.194 0.204 0.156 0.128 0.18 0.18 0.153 0.197
##END=
