##TITLE=trans-2-Nonen-1-ol
##JCAMP-DX=4.24
##DATA TYPE=INFRARED SPECTRUM
##ORIGIN=NIST Mass Spectrometry Data Center
##OWNER=NIST Standard Reference Data Program
Collection (C) 2018 copyright by the U.S. Secretary of Commerce
on behalf of the United States of America. All rights reserved.
##CAS REGISTRY NO=31502-14-4
##MOLFORM=C 9 H 18 O
##$NIST SOURCE=MSDC-IR
##SPECTROMETER/DATA SYSTEM=HP-GC/MS/IRD
##STATE=gas
##XUNITS=1/CM
##YUNITS=ABSORBANCE
##XFACTOR=1.0
##YFACTOR=0.000018500
##DELTAX=4.0
##FIRSTX=550.0
##LASTX=3846.0
##FIRSTY=0.000444
##MAXX=3846
##MINX=550
##MAXY=0.185
##MINY=0
##NPOINTS=825
##XYDATA=(X++(Y..Y))
550.0 24 31 14 13 8 1 1 2 8 12
590.0 5 8 17 20 24 30 27 27 32 33
630.0 33 33 35 31 27 25 23 28 31 28
670.0 25 27 31 31 33 36 47 58 64 79
710.0 95 115 137 151 158 156 142 127 117 105
750.0 97 95 95 92 91 91 90 87 85 85
790.0 82 78 74 73 79 84 84 87 91 94
830.0 94 95 97 103 109 116 125 130 137 146
870.0 158 172 184 198 215 234 253 271 294 324
910.0 355 392 432 476 528 595 675 768 886 1042
950.0 1239 1483 1771 2061 2280 2383 2364 2283 2222 2216
990.0 2281 2404 2535 2606 2556 2379 2117 1844 1607 1421
1030.0 1276 1163 1073 1000 942 903 882 874 893 931
1070.0 979 1032 1076 1096 1079 1016 922 817 715 625
1110.0 553 496 452 419 392 368 350 336 322 308
1150.0 300 301 303 313 325 342 358 366 377 389
1190.0 394 399 406 412 415 418 418 414 408 398
1230.0 386 376 370 365 361 362 365 369 377 384
1270.0 387 391 397 406 418 438 457 479 499 513
1310.0 520 522 524 529 540 561 593 631 676 726
1350.0 777 829 890 960 1043 1140 1246 1341 1379 1341
1390.0 1225 1068 913 782 673 590 527 483 458 455
1430.0 480 533 609 691 765 824 872 905 913 874
1470.0 790 668 538 422 329 260 211 176 149 129
1510.0 114 102 91 81 74 66 60 55 49 44
1550.0 41 38 35 33 31 30 28 25 26 26
1590.0 25 25 25 26 25 26 26 26 29 33
1630.0 37 43 54 66 83 105 141 185 223 239
1670.0 222 175 119 81 57 44 38 35 36 40
1710.0 44 42 41 40 37 36 35 33 32 33
1750.0 32 30 29 28 26 23 21 20 18 16
1790.0 15 11 9 9 8 7 6 4 5 4
1830.0 4 5 4 2 2 1 2 2 1 0
1870.0 0 0 0 2 3 4 3 3 3 5
1910.0 4 3 4 5 6 7 7 6 6 7
1950.0 8 10 10 10 13 14 14 15 17 20
1990.0 21 20 21 20 19 20 20 20 19 20
2030.0 19 18 16 15 15 16 15 13 13 11
2070.0 11 11 9 7 6 5 5 4 4 3
2110.0 1 0 0 1 0 1 0 0 0 1
2150.0 3 2 2 3 3 3 4 2 1 2
2190.0 1 0 1 1 0 1 2 2 1 2
2230.0 2 1 0 2 3 4 6 6 6 5
2270.0 4 5 6 6 7 7 6 8 9 9
2310.0 10 11 9 11 12 10 12 12 14 16
2350.0 15 15 16 17 18 17 19 21 18 18
2390.0 20 20 18 17 16 15 16 15 14 14
2430.0 14 12 12 13 12 11 11 12 11 11
2470.0 12 13 12 11 12 12 12 14 15 14
2510.0 14 17 20 21 21 23 26 27 29 30
2550.0 31 34 37 37 38 37 36 38 41 41
2590.0 41 43 45 47 51 54 56 58 60 65
2630.0 70 75 76 78 83 89 92 94 100 105
2670.0 110 113 116 118 118 117 117 118 122 126
2710.0 129 132 139 147 154 163 172 179 189 199
2750.0 205 207 210 221 229 237 252 269 288 310
2790.0 333 360 389 422 458 503 558 622 697 791
2830.0 914 1074 1290 1581 1968 2455 3018 3588 4070 4383
2870.0 4487 4430 4284 4076 3848 3651 3539 3582 3811 4197
2910.0 4739 5466 6408 7540 8706 9620 10000 9714 8848 7698
2950.0 6588 5762 5319 5192 5125 4827 4233 3446 2701 2165
2990.0 1815 1581 1420 1308 1225 1161 1104 1052 998 931
3030.0 853 770 679 590 513 449 388 338 295 263
3070.0 241 222 202 184 171 159 149 138 130 123
3110.0 117 110 103 102 99 91 85 81 76 73
3150.0 69 64 61 61 59 55 53 52 52 50
3190.0 49 46 40 37 33 30 27 22 21 21
3230.0 17 16 16 11 10 12 9 4 5 8
3270.0 7 4 4 3 3 1 0 2 3 3
3310.0 0 2 5 2 3 4 6 9 7 10
3350.0 10 6 7 9 11 15 15 15 17 17
3390.0 15 13 12 12 14 17 17 15 15 17
3430.0 16 13 15 16 16 16 13 10 10 9
3470.0 11 14 14 13 14 12 9 9 8 8
3510.0 14 14 12 9 8 13 11 13 11 8
3550.0 10 11 15 18 19 22 22 21 23 24
3590.0 32 40 44 52 64 74 86 100 119 143
3630.0 174 211 258 309 357 404 445 469 471 451
3670.0 409 351 285 232 190 155 130 109 91 78
3710.0 64 57 53 47 42 36 34 35 34 29
3750.0 27 29 30 27 28 28 25 22 23 24
3790.0 20 18 20 23 25 25 26 28 31 29
3830.0 30 31 29 32 35
##END=
