##TITLE=1-Phenyl-1-penten-3-one
##JCAMP-DX=4.24
##DATA TYPE=INFRARED SPECTRUM
##ORIGIN=EPA-IR VAPOR PHASE LIBRARY
##OWNER=SRD/NIST
Collection (C) 2018 copyright by the U.S. Secretary of Commerce
on behalf of the United States of America. All rights reserved.
##CAS REGISTRY NO=3152-68-9
##MOLFORM=C 11 H 12 O
##$NIST SOURCE=MSDC-IR
##STATE=gas
##XUNITS=1/CM
##YUNITS=ABSORBANCE
##XFACTOR=1.
##YFACTOR=0.001
##DELTAX=1.92898
##FIRSTX=549.8
##LASTX=4000.7
##FIRSTY=2.173
##MAXX=4000.7
##MINX=549.759
##MAXY=0.018873
##MINY=0
##NPOINTS=1790
##XYDATA=(X++(Y..Y))
549.759 2.173 2.213 2.363 2.353 2.123 1.913 2.163 2.173 2.113 1.973
569.049 1.903 1.723 1.603 1.1913 0.8186 0.8371 0.6821 0.7245 0.6956 0.7746
588.339 1.0376 1.0974 1.0776 1.0874 0.9165 0.6576 0.6926 0.635 0.6112 0.5947
607.628 0.4192 0.4878 0.5087 0.41084 0.37066 0.198 0.244 0.4998 0.4811 0.493
626.918 0.4145 0.157 0.21 0.33376 0.4202 0.4821 0.6425 0.768 0.5671 0.4287
646.208 0.4909 0.4837 0.4663 0.5318 0.4948 0.6588 0.9311 0.89 1.0771 1.463
665.498 1.613 1.813 2.093 2.203 2.293 2.663 3.093 3.533 3.983 4.273
684.787 4.703 5.223 5.493 5.483 5.453 5.263 4.783 4.423 4.333 3.963
704.077 3.473 3.233 3.023 2.903 2.853 2.723 2.633 2.613 2.753 2.883
723.367 2.903 3.093 3.463 3.673 3.673 3.903 4.223 4.523 4.663 4.883
742.657 5.103 4.983 4.873 4.833 4.593 4.373 4.133 3.833 3.413 3.163
761.947 3.203 3.103 2.653 2.153 2.013 2.013 1.843 1.553 1.453 1.573
781.236 1.593 1.663 1.633 1.503 1.563 1.463 1.513 1.663 1.533 1.503
800.526 1.543 1.483 1.353 1.353 1.503 1.493 1.413 1.3074 1.1233 1.1639
819.816 0.9894 0.6059 0.6708 0.8322 0.8171 0.7299 0.8433 1.0866 0.983 0.8277
839.106 0.8169 0.8001 0.9138 0.9718 0.8597 0.887 0.8476 0.7476 0.8463 0.985
858.395 0.9297 0.8634 1.115 1.0988 0.9009 1.0388 1.1939 1.2142 1.2028 1.2104
877.685 1.1529 0.9787 1.0184 0.8591 0.6505 0.7574 0.831 0.9903 1.1633 1.0472
896.975 0.9228 1.0004 1.133 1.1964 1.0768 0.9082 0.7027 0.734 0.8983 0.9442
916.265 0.7731 0.7523 0.8399 0.8123 0.9829 1.2022 1.373 1.343 1.2517 1.363
935.555 1.713 1.873 1.763 1.893 2.053 2.363 2.723 2.813 3.023 3.403
954.844 3.853 4.393 4.843 5.283 5.653 5.973 6.363 6.633 6.943 7.323
974.134 7.453 7.343 7.023 6.523 6.233 6.153 5.863 5.433 4.963 4.593
993.424 4.173 3.943 3.923 3.503 3.223 2.963 2.773 2.613 2.373 2.373
1012.714 2.473 2.763 3.053 3.383 3.813 4.303 4.503 4.543 4.813 5.573
1032.003 6.263 6.393 6.423 5.953 5.543 5.353 4.573 3.953 3.583 3.243
1051.293 3.183 3.163 2.883 2.813 2.963 3.013 2.783 2.483 2.553 2.683
1070.583 2.623 2.653 2.983 3.043 2.833 2.423 2.463 2.473 2.203 2.493
1089.873 2.423 2.453 2.743 3.043 2.953 2.553 2.763 3.463 4.363 4.983
1109.163 5.463 5.953 6.063 6.173 6.363 6.393 5.993 5.353 4.743 3.993
1128.452 3.673 3.583 3.503 3.373 3.553 3.553 3.433 3.513 3.243 3.263
1147.742 3.773 4.203 4.203 3.993 4.023 4.213 4.523 4.883 5.273 5.503
1167.032 5.603 5.983 6.773 7.523 7.963 8.273 8.793 9.013 9.263 9.423
1186.322 9.073 8.663 7.943 7.673 7.363 6.903 6.393 5.673 5.133 4.463
1205.611 3.613 3.133 2.863 2.463 2.033 1.563 1.583 1.2388 0.7907 0.6865
1224.901 0.7698 0.8432 0.6673 0.911 0.9738 0.6088 0.6866 1.1028 1.2429 1.2624
1244.191 1.323 1.313 1.2431 1.2888 1.2829 1.383 1.713 1.783 1.913 2.033
1263.481 2.143 2.333 2.533 2.563 2.543 2.793 3.123 3.153 3.093 3.193
1282.771 3.263 3.273 3.293 3.333 3.413 3.413 3.393 3.383 3.273 3.243
1302.060 3.353 3.483 3.583 3.783 4.133 4.543 4.853 5.123 5.473 5.803
1321.350 6.103 6.273 6.413 6.543 6.533 6.533 6.543 6.523 6.453 6.303
1340.640 6.163 6.033 5.853 5.643 5.523 5.483 5.303 5.033 4.763 4.463
1359.930 4.163 3.923 3.703 3.463 3.203 2.903 2.723 2.693 2.663 2.643
1379.219 2.553 2.423 2.293 2.163 2.053 1.923 1.753 1.653 1.533 1.423
1398.509 1.423 1.413 1.393 1.413 1.493 1.543 1.563 1.613 1.673 1.753
1417.799 1.773 1.773 1.853 1.913 1.923 1.963 2.083 2.243 2.353 2.493
1437.089 2.693 2.843 3.093 3.483 3.863 4.093 4.163 4.163 4.113 3.903
1456.378 3.643 3.423 3.243 3.153 3.073 2.933 2.803 2.753 2.573 2.313
1475.668 2.173 2.123 2.073 2.103 2.263 2.533 2.933 3.283 3.643 3.953
1494.958 3.993 3.853 3.673 3.293 2.703 2.133 1.703 1.403 1.2583 1.152
1514.248 1.062 1.076 1.0775 1.0356 0.9891 0.951 0.9652 0.9445 0.8947 0.9733
1533.538 0.9634 0.8573 0.8703 0.8788 0.8838 0.9095 0.9623 1.0424 1.0894 1.1153
1552.827 1.1411 1.1531 1.0954 1.1374 1.403 1.683 1.893 2.113 2.393 2.723
1572.117 3.113 3.473 3.683 3.683 3.643 3.573 3.333 3.183 3.203 3.233
1591.407 3.423 3.803 4.233 4.683 5.273 6.013 6.713 7.603 8.753 10.123
1610.697 11.483 13.013 14.543 15.993 17.323 18.113 18.353 18.013 17.053 15.403
1629.986 13.463 11.393 9.343 7.433 5.933 4.843 4.053 3.613 3.313 3.093
1649.276 3.053 3.023 2.823 2.923 3.153 3.233 3.383 3.653 3.993 4.423
1668.566 4.893 5.593 6.473 7.383 8.583 9.993 11.753 13.553 15.283 16.923
1687.856 18.083 18.753 18.873 18.523 17.683 16.643 15.513 14.503 13.913 13.403
1707.146 12.923 12.353 11.723 10.993 10.113 9.143 8.033 6.993 6.113 5.303
1726.435 4.523 3.873 3.403 2.963 2.683 2.503 2.233 2.043 1.843 1.603
1745.725 1.493 1.393 1.323 1.273 1.1841 1.0871 0.9954 1.0124 1.0048 0.8584
1765.015 0.8229 0.881 0.8835 0.8809 0.8451 0.8653 0.9302 0.9024 0.8704 0.9159
1784.305 0.9486 0.9418 0.9426 0.962 1.058 1.072 1.0119 0.9918 0.9562 0.9461
1803.594 0.9271 0.875 0.7801 0.763 0.7775 0.7859 0.8117 0.773 0.7906 0.7794
1822.884 0.7358 0.7591 0.811 0.8163 0.7748 0.7065 0.7131 0.7345 0.6947 0.6536
1842.174 0.6707 0.7124 0.6636 0.6202 0.576 0.5633 0.6751 0.7573 0.7417 0.7176
1861.464 0.6897 0.7128 0.691 0.6802 0.711 0.6998 0.6588 0.7157 0.7882 0.8259
1880.754 0.8768 0.8161 0.7935 0.862 0.8816 0.8068 0.7432 0.7297 0.7087 0.6832
1900.043 0.6095 0.5939 0.5808 0.5596 0.5956 0.5391 0.5025 0.4976 0.5427 0.589
1919.333 0.5722 0.6097 0.6408 0.6536 0.748 0.7561 0.7152 0.7722 0.8145 0.8161
1938.623 0.8575 0.9292 0.9755 1.0417 1.0442 1.009 1.0171 0.9862 0.991 0.9902
1957.913 0.9027 0.8296 0.729 0.6987 0.7068 0.6236 0.586 0.5701 0.4968 0.4679
1977.202 0.4805 0.4468 0.4696 0.5383 0.5527 0.5006 0.4297 0.4262 0.4279 0.4244
1996.492 0.4826 0.4775 0.4202 0.4532 0.453 0.4184 0.4517 0.4682 0.4625 0.4517
2015.782 0.4691 0.4747 0.4222 0.4294 0.4843 0.4624 0.4202 0.4441 0.4568 0.4621
2035.072 0.4445 0.4137 0.40539 0.40911 0.4485 0.4383 0.5005 0.5588 0.5041 0.4666
2054.362 0.4579 0.5111 0.4987 0.40967 0.4151 0.40829 0.37581 0.34439 0.38224 0.4784
2073.651 0.4438 0.415 0.4742 0.4996 0.4639 0.4587 0.4536 0.4616 0.4791 0.4416
2092.941 0.4186 0.4528 0.4827 0.4843 0.5139 0.4665 0.4275 0.4866 0.471 0.436
2112.231 0.4376 0.4559 0.5177 0.4942 0.4398 0.4443 0.455 0.4505 0.4155 0.4551
2131.521 0.4752 0.4247 0.435 0.5017 0.5408 0.4759 0.4159 0.40346 0.30982 0.321157
2150.810 0.41188 0.4342 0.39514 0.36362 0.4325 0.40044 0.3088 0.31143 0.37771 0.40707
2170.100 0.39761 0.39386 0.38279 0.38415 0.4404 0.4591 0.40001 0.39429 0.4457 0.4571
2189.390 0.4617 0.4712 0.464 0.432 0.4304 0.4663 0.4314 0.4363 0.40247 0.3761
2208.680 0.4171 0.39922 0.34447 0.35769 0.446 0.4319 0.38062 0.41149 0.4237 0.36837
2227.970 0.35763 0.39367 0.4303 0.4595 0.38291 0.38928 0.4331 0.4184 0.4797 0.456
2247.259 0.37699 0.38913 0.4131 0.4389 0.36901 0.3923 0.4902 0.40331 0.37325 0.41172
2266.549 0.38647 0.3946 0.4422 0.4579 0.5091 0.4787 0.39156 0.38791 0.4313 0.4606
2285.839 0.4136 0.33074 0.2949 0.37787 0.41241 0.38309 0.38743 0.42 0.4316 0.4486
2305.129 0.4943 0.4957 0.5121 0.5045 0.5207 0.5915 0.6369 0.5498 0.4138 0.3859
2324.418 0.4295 0.4149 0.40771 0.4516 0.4438 0.4401 0.4454 0.4548 0.4644 0.497
2343.708 0.5529 0.584 0.5166 0.4395 0.4337 0.4215 0.36507 0.2558 0.315446 0.4548
2362.998 0.4273 0.351 0.37651 0.4214 0.4497 0.4827 0.4593 0.433 0.5339 0.5481
2382.288 0.4994 0.5547 0.4989 0.39979 0.37736 0.39633 0.40031 0.35535 0.4555 0.5319
2401.578 0.479 0.5022 0.4916 0.4341 0.4293 0.4534 0.40208 0.4187 0.4219 0.38103
2420.867 0.4433 0.4575 0.4176 0.4451 0.4365 0.36084 0.36405 0.40528 0.4445 0.5018
2440.157 0.5411 0.5251 0.5145 0.4445 0.39008 0.4196 0.4452 0.4344 0.421 0.4809
2459.447 0.525 0.4454 0.36873 0.39641 0.4322 0.40548 0.393 0.320236 0.2425 0.30793
2478.737 0.321421 0.39043 0.4174 0.4297 0.4875 0.37101 0.32988 0.4232 0.4344 0.4306
2498.026 0.4324 0.4195 0.4471 0.4135 0.4254 0.5337 0.5267 0.4253 0.4368 0.4773
2517.316 0.4518 0.4405 0.40691 0.39989 0.4585 0.40734 0.32758 0.40693 0.4232 0.36132
2536.606 0.4479 0.4854 0.322815 0.188 0.2194 0.30318 0.39379 0.4277 0.314578 0.321236
2555.896 0.398 0.35017 0.33263 0.39336 0.4718 0.5072 0.529 0.5065 0.40203 0.321631
2575.186 0.37223 0.4673 0.4957 0.4371 0.40212 0.41015 0.40104 0.4222 0.5001 0.5056
2594.475 0.3986 0.4942 0.6243 0.5402 0.4666 0.4465 0.4504 0.4505 0.38676 0.36448
2613.765 0.2843 0.32328 0.4797 0.5584 0.5442 0.4608 0.4701 0.4948 0.4399 0.37175
2633.055 0.41195 0.4464 0.4942 0.5082 0.469 0.4752 0.4142 0.38417 0.4478 0.5178
2652.345 0.522 0.4853 0.4264 0.33941 0.34716 0.4307 0.515 0.4626 0.4514 0.5541
2671.634 0.5523 0.4933 0.4387 0.4332 0.4556 0.4177 0.36493 0.39997 0.4314 0.4327
2690.924 0.4536 0.4852 0.4496 0.4513 0.4579 0.441 0.4854 0.505 0.5215 0.4838
2710.214 0.36945 0.38631 0.437 0.37691 0.40276 0.39897 0.4351 0.5173 0.4647 0.40462
2729.504 0.4899 0.5388 0.4274 0.4557 0.4774 0.4235 0.456 0.5504 0.633 0.6143
2748.794 0.4862 0.5125 0.498 0.4968 0.577 0.4692 0.4875 0.5099 0.39838 0.428
2768.083 0.4807 0.4936 0.6881 0.7775 0.5967 0.40597 0.4885 0.6037 0.6049 0.6181
2787.373 0.6654 0.6874 0.5834 0.5044 0.5259 0.5919 0.6491 0.7378 0.7477 0.7239
2806.663 0.8185 0.8331 0.8194 0.859 0.9016 0.9636 0.9865 0.9533 0.9238 0.837
2825.953 0.8672 0.882 0.7995 0.8432 0.8349 0.8618 0.8602 0.8264 0.9113 0.8543
2845.242 0.8322 0.9333 0.9775 0.9814 1.0072 1.0972 1.1356 1.2006 1.2473 1.1994
2864.532 1.2376 1.373 1.493 1.613 1.603 1.583 1.683 1.893 2.043 2.143
2883.822 2.333 2.513 2.693 2.923 3.003 3.113 3.223 3.233 3.233 3.173
2903.112 3.333 3.543 3.553 3.503 3.613 3.653 3.643 3.703 3.693 3.633
2922.401 3.553 3.593 3.573 3.483 3.333 3.133 3.173 3.413 3.523 3.723
2941.691 4.253 4.663 4.903 5.153 5.263 5.133 5.003 4.833 4.463 4.123
2960.981 3.953 3.883 3.923 3.983 4.023 4.223 4.633 5.213 5.613 5.953
2980.271 6.283 6.523 6.543 6.263 6.093 5.853 5.243 4.773 4.493 4.013
2999.561 3.523 3.253 3.173 3.093 2.983 2.913 2.743 2.633 2.733 2.893
3018.850 3.103 3.313 3.553 3.693 4.033 4.393 4.653 4.973 5.223 5.433
3038.140 5.363 5.163 5.013 4.753 4.423 4.223 4.033 3.763 3.553 3.483
3057.430 3.633 3.863 4.123 4.563 5.183 5.753 6.083 6.113 5.973 5.673
3076.720 5.253 4.853 4.463 4.053 3.783 3.613 3.523 3.403 3.173 3.003
3096.009 2.873 2.733 2.563 2.293 2.133 1.923 1.753 1.743 1.653 1.413
3115.299 1.0731 0.8656 0.8984 0.8838 0.8417 0.8802 0.8519 0.8381 0.8456 0.8072
3134.589 0.655 0.6465 0.704 0.6733 0.6085 0.5487 0.5725 0.6779 0.7151 0.6261
3153.879 0.5458 0.544 0.6169 0.7553 0.663 0.4863 0.4848 0.5487 0.5385 0.4939
3173.169 0.4642 0.5206 0.4545 0.40925 0.5441 0.4631 0.4107 0.39183 0.36833 0.35692
3192.458 0.30678 0.32306 0.4655 0.4915 0.34761 0.34491 0.3532 0.176 0.179 0.40233
3211.748 0.5746 0.62 0.5442 0.4316 0.39614 0.5266 0.5101 0.4196 0.38461 0.3989
3231.038 0.4605 0.4168 0.37893 0.320007 0.258 0.34529 0.38913 0.34403 0.4525 0.5538
3250.328 0.40703 0.35783 0.4167 0.35327 0.178 0.177 0.2672 0.211 0.19 0.2199
3269.617 0.28 0.35265 0.30516 0.319937 0.4288 0.34605 0.2564 0.147 0.189 0.36224
3288.907 0.2997 0.32634 0.448 0.426 0.36014 0.36358 0.40678 0.34427 0.2546 0.2972
3308.197 0.34685 0.4162 0.4319 0.34421 0.313907 0.41274 0.4591 0.39486 0.34493 0.4381
3327.487 0.5252 0.4506 0.37012 0.39279 0.39304 0.40543 0.5244 0.5692 0.5002 0.37968
3346.777 0.4522 0.5325 0.5343 0.616 0.6172 0.39721 0.35643 0.5061 0.5624 0.6413
3366.066 0.5621 0.474 0.5086 0.619 0.6386 0.5066 0.39973 0.4164 0.5429 0.4974
3385.356 0.585 0.7648 0.6531 0.4491 0.4627 0.5592 0.4352 0.3561 0.5082 0.5396
3404.646 0.4617 0.5715 0.594 0.458 0.318054 0.37125 0.5533 0.5028 0.4404 0.5207
3423.936 0.5089 0.37132 0.2816 0.40936 0.5695 0.2913 0.197 0.3668 0.38264 0.275
3443.225 0.194 0.2658 0.317966 0.38719 0.33261 0.2509 0.2918 0.2 0.2391 0.34444
3462.515 0.315057 0.208 0.13 0.191 0.188 0.21 0.2587 0.2761 0.316098 0.41293
3481.805 0.34021 0.2254 0.2569 0.2617 0.2169 0.199 0.207 0.2591 0.35933 0.40356
3501.095 0.2622 0.17 0.2162 0.2493 0.282 0.39698 0.4599 0.39276 0.36881 0.2965
3520.385 0.118 0.2759 0.424 0.4217 0.4435 0.4541 0.4575 0.39641 0.32697 0.4135
3539.674 0.4908 0.313934 0.33857 0.4301 0.37759 0.209 0.2393 0.40354 0.4353 0.30779
3558.964 0.30306 0.38512 0.40423 0.37029 0.2825 0.30665 0.2906 0.199 0.166 0.128
3578.254 0.193 0.4818 0.5203 0.3527 0.2883 0.33918 0.3005 0.203 0.2632 0.33578
3597.544 0.2937 0.318368 0.3563 0.201 0 0.11 0.173 0.112 0.2834 0.4365
3616.833 0.38067 0.243 0.2144 0.2507 0.2379 0.2297 0.2864 0.33596 0.3713 0.315585
3636.123 0.2698 0.30819 0.4269 0.37504 0.2182 0.2162 0.198 0.2 0.207 0.2273
3655.413 0.3467 0.2717 0.3061 0.4501 0.37375 0.2878 0.30993 0.37008 0.39571 0.2779
3674.703 0.2444 0.2305 0.078 0.095 0.317875 0.33202 0.2714 0.2792 0.196 0.313221
3693.993 0.2724 0.206 0.171 0.066 0.111 0.202 0.2617 0.152 0.168 0.2666
3713.282 0.2867 0.4459 0.4224 0.3027 0.2502 0.178 0.189 0.2517 0.2673 0.30702
3732.572 0.32398 0.166 0.109 0.2283 0.2189 0.2796 0.194 0.126 0.36496 0.4173
3751.862 0.4432 0.4503 0.4142 0.2467 0.183 0.32435 0.2873 0.322166 0.313712 0.2924
3771.152 0.2289 0.2662 0.38943 0.4621 0.5265 0.36477 0.103 0.053 0.133 0.2944
3790.441 0.321647 0.2835 0.37117 0.175 0.078 0.162 0.2976 0.34426 0.146 0.123
3809.731 0.2322 0.112 0.008 0.026 0.08 0.212 0.2371 0.2444 0.2466 0.35949
3829.021 0.499 0.4338 0.2876 0.148 0.2662 0.4985 0.4373 0.211 0.2379 0.36394
3848.311 0.34325 0.2613 0.2678 0.169 0.085 0.191 0.2766 0.2496 0.154 0.134
3867.601 0.178 0.2707 0.33185 0.3496 0.32317 0.30913 0.2846 0.2681 0.2814 0.2529
3886.890 0.2623 0.211 0.2745 0.40239 0.34939 0.2989 0.4387 0.4478 0.32637 0.39879
3906.180 0.4469 0.40565 0.2876 0.36115 0.36866 0.2974 0.2752 0.2494 0.2829 0.499
3925.470 0.5343 0.2831 0.32447 0.4622 0.5252 0.38117 0.34739 0.36862 0.34842 0.4976
3944.760 0.5702 0.41113 0.2474 0.3804 0.5396 0.5191 0.5627 0.4515 0.30648 0.2668
3964.049 0.2387 0.15 0.2266 0.2909 0.258 0.38954 0.41063 0.416 0.2894 0.208
3983.339 0.4249 0.4838 0.4685 0.4807 0.4429 0.38296 0.36078 0.4921 0.6141 0.5
##END=
