##TITLE=2-Nitro-.omega.-nitrostyrene
##JCAMP-DX=4.24
##DATA TYPE=INFRARED SPECTRUM
##ORIGIN=EPA-IR VAPOR PHASE LIBRARY
##OWNER=SRD/NIST
Collection (C) 2018 copyright by the U.S. Secretary of Commerce
on behalf of the United States of America. All rights reserved.
##CAS REGISTRY NO=3156-39-6
##MOLFORM=C 8 H 6 N 2 O 4
##$NIST SOURCE=MSDC-IR
##STATE=gas
##XUNITS=1/CM
##YUNITS=ABSORBANCE
##XFACTOR=1.
##YFACTOR=0.001
##DELTAX=1.92898
##FIRSTX=549.8
##LASTX=4000.7
##FIRSTY=3.65
##MAXX=4000.7
##MINX=549.759
##MAXY=0.09779
##MINY=0
##NPOINTS=1790
##XYDATA=(X++(Y..Y))
549.759 3.65 3.5 3.49 3.21 3.35 3.2 2.78 2.71 2.1563 2.99
569.049 2.92 2.1031 2.48 2.44 2.321 1.551 1.42326 2.73 3.73 4.99
588.339 5.53 5.9 7.18 7.34 6.71 6.66 6.47 5.44 4.77 4.63
607.628 4.05 3.2 3.09 3.16 2.73 2.62 2.7 2.2064 2.2486 2.51
626.918 2.2366 1.7819 1.3484 1.046 0.976 1.3846 1.8684 2.3354 2.56 2.2313
646.208 1.7543 1.6427 1.8318 2.46 3.19 3.65 3.92 4.2 4.68 5.28
665.498 5.34 6.01 6.75 6.86 7.08 6.52 5.58 5.32 5.16 4.79
684.787 4.65 4.5 4.5 4.47 4.55 4.8 5.35 5.41 5.11 5.32
704.077 5.44 5.93 6.05 6.44 7.09 6.67 6.49 6.93 7.03 7.01
723.367 7.69 8.82 9.85 10.67 10.84 11.23 11.94 12.67 13.41 13.87
742.657 14.24 14.6 15.14 15.16 14.95 15.35 15.58 14.75 13.32 12.26
761.947 11.79 11.32 11.13 10.29 9.87 10.59 10.34 10.42 10.41 9.63
781.236 8.98 7.82 6.74 6.26 5.48 4.99 4.72 3.89 2.92 2.85
800.526 3.2 3.13 3.53 3.66 2.95 2.7 2.75 2.93 3.18 2.75
819.816 2.61 3.03 3.78 4.79 5.24 5.68 6.5 7.17 7.81 8.5
839.106 8.81 8.92 9 9.19 8.45 7.94 7.41 6.48 6.69 7.17
858.395 7.27 7.29 7.85 8.56 8.85 8.37 8.57 8.85 8.11 7.36
877.685 6.83 5.62 4.48 3.87 3.38 3.25 3.07 3.24 3.29 2.66
896.975 2.48 2.6 2.91 3.04 3.12 3.15 3.29 3.71 3.22 3.05
916.265 4.06 4.89 4.74 4.49 4.52 4.83 5.37 6.02 6.61 6.48
935.555 6.96 7.7 8.12 8.59 9.51 10.9 11.74 12.27 13.72 14.27
954.844 14.41 14.96 14.72 14.41 13.6 12.79 12.06 10.98 9.4 8.23
974.134 7.64 6.35 6.05 5.2 3.37 3.63 3.56 3.22 3.03 2.5
993.424 2.86 3.22 3.13 2.82 2.71 3.32 3.43 2.67 1.6242 1.6625
1012.714 1.9665 2.48 2.99 2.3306 2.45 2.73 2.7 2.79 2.58 2.97
1032.003 2.55 2.0588 2.47 2.78 3.24 2.68 2.59 3.28 2.77 1.9553
1051.293 2.57 3.1 3.09 2.73 2.41 2.58 2.2583 2.3626 2.99 2.58
1070.583 2.56 2.94 3.02 3.15 3.07 2.0026 1.7245 2.3368 1.7658 1.5414
1089.873 1.7893 1.8233 1.3669 1.7941 2.65 3.42 2.86 1.9296 1.6459 3.27
1109.163 2.66 0.853 2.3531 3.31 3.7 3.61 3.25 3.37 1.8321 1.287
1128.452 3.03 3.7 2.3356 1.6188 2.6 2.89 1.9921 1.181 2.1409 2.53
1147.742 1.053 0 1.282 1.7877 1.4984 2.11 3.21 3.37 1.7946 1.8208
1167.032 2.87 2.0893 2.2973 2.79 2.3129 2.48 2.3391 2.65 4.07 4.97
1186.322 4.87 4.83 4.49 4.83 5.25 3.87 3.71 4.36 4.05 3.93
1205.611 3 3.01 3.03 2.8 4.32 4.23 4.01 3.44 1.8956 1.573
1224.901 2.89 3.65 2.92 2.2931 2.62 3.6 3.99 3.84 4.6 4.68
1244.191 3.39 3 2.89 2.6 3.04 3.54 3.25 3.16 3.29 3.76
1263.481 4.18 3.93 4.16 4.69 5.19 5.78 5.7 5.4 5.59 5.89
1282.771 6.47 7.71 8.16 8.46 9.31 9.6 9.57 9.64 9.91 9.92
1302.060 9.77 9.75 9.5 9.59 9.67 9.63 9.97 10.37 11.02 11.81
1321.350 13 14.33 15.78 18.03 21.21 25.04 28.99 33.94 39.97 46.55
1340.640 53.67 60.88 67.59 72.9 76.34 77.73 76.7 73.16 67.8 61.02
1359.930 53.4 45.59 38.33 32.2 26.92 22.61 19.07 16.3 14.14 12.21
1379.219 10.64 9.63 8.89 8.17 7.74 7.28 6.76 6.51 6.1 5.74
1398.509 5.53 5.31 5.17 5.07 4.93 4.66 4.56 4.68 4.63 4.62
1417.799 4.66 4.6 4.59 4.73 4.7 4.55 4.62 5.02 5.19 5.26
1437.089 5.38 5.46 5.79 5.86 5.85 5.9 5.93 5.79 5.4 5.35
1456.378 5.49 5.39 5.5 5.73 5.87 6.23 6.52 6.75 7.38 7.84
1475.668 7.93 8.18 8.26 8.34 8.73 8.99 9.06 9.38 9.79 10.02
1494.958 10.32 10.88 11.64 12.31 13.23 14.26 15.55 16.92 18.3 20.16
1514.248 21.97 23.94 26.57 29.41 32.67 36.31 40.21 44.93 50.44 56.19
1533.538 62.71 70.26 77.81 85.06 91.36 95.74 97.79 97.46 94.33 89.42
1552.827 83.81 77.3 71.49 66.03 61.07 57 53.55 50.79 48.33 45.9
1572.117 43.02 39.9 36.82 33.98 30.81 27.29 24.19 21.53 19.32 17.36
1591.407 15.71 14.28 13.21 12.71 12.73 12.84 12.66 12.53 12.22 11.83
1610.697 11.3 10.51 9.91 8.93 7.84 7.27 6.77 6.56 6.51 6.37
1629.986 6.3 6.2 6.37 6.56 6.7 6.8 6.88 7.15 7.28 7.31
1649.276 6.78 6.16 5.62 5.36 5.29 4.72 4.24 4.08 3.64 3.41
1668.566 3.73 3.75 3.39 3.16 2.77 2.74 2.94 2.84 2.67 2.66
1687.856 2.68 2.59 2.67 2.76 2.87 2.7 2.54 2.3895 2.2657 2.45
1707.146 2.62 2.59 2.51 2.44 2.3776 2.45 2.46 2.41 2.52 2.3932
1726.435 2.45 2.59 2.54 2.3749 2.44 2.2417 1.9127 2.1675 2.1105 1.863
1745.725 1.7887 1.9541 2.0896 2.0375 1.9427 1.9516 1.9745 2.0046 2.0244 1.9644
1765.015 2.1582 2.2578 2.1251 1.9999 2.0813 2.099 1.9739 1.9986 2.0553 2.0828
1784.305 2.0294 2.0857 2.1711 2.2351 2.45 2.53 2.3066 2.0861 2.2183 2.48
1803.594 2.42 2.3913 2.42 2.2247 2.2312 2.3675 2.264 2.3525 2.3331 2.1496
1822.884 2.236 2.2568 2.1866 2.3065 2.3587 2.3569 2.3157 2.1439 2.1522 2.1612
1842.174 2.2337 2.3482 2.2326 2.0683 2.0087 2.0747 2.1183 2.1061 2.0759 1.9648
1861.464 1.9281 1.8983 2.0276 2.0244 1.8837 1.9352 1.7347 1.7004 1.8706 1.9015
1880.754 1.9202 1.9023 1.9308 2.0816 2.1435 2.1819 2.188 2.3005 2.1179 2.0195
1900.043 2.0988 2.0197 2.0772 2.0334 2.1558 2.2157 2.1935 2.2014 2.1429 2.0276
1919.333 2.1695 2.44 2.44 2.3967 2.381 2.42 2.59 2.6 2.41 2.49
1938.623 2.44 2.2314 2.1253 2.1819 2.44 2.43 2.296 2.2417 2.0928 2.092
1957.913 2.1254 2.0771 2.249 2.2293 2.1172 2.47 2.64 2.3443 2.1338 2.0476
1977.202 2.0214 2.0137 1.92 1.8387 1.9263 1.8188 1.5769 1.6999 1.8361 1.9281
1996.492 1.9353 1.8385 1.8094 1.816 1.8647 1.8343 1.7896 1.6761 1.538 1.755
2015.782 1.776 1.6175 1.7644 1.7226 1.558 1.5966 1.8658 1.788 1.41039 1.47523
2035.072 1.8691 2.056 2.0162 1.8475 1.5706 1.47209 1.645 1.7475 1.844 1.9993
2054.362 2.0619 2.0547 1.82 1.831 1.8508 1.7901 1.7508 1.792 1.8904 1.7288
2073.651 1.6336 1.8066 1.8881 1.8117 1.744 1.6613 1.5284 1.49335 1.687 1.5968
2092.941 1.671 1.6336 1.3357 1.303 1.3121 1.5665 1.6898 1.5131 1.5906 1.8534
2112.231 1.824 1.7479 1.9953 1.8616 1.8689 1.9983 1.8382 1.8364 1.7957 1.8156
2131.521 1.5957 1.5838 1.8586 1.8517 1.7995 1.7165 1.9443 1.9182 1.5871 1.8048
2150.810 1.9314 1.6162 1.6101 1.9886 1.9191 1.7942 1.8669 1.6638 1.6973 1.7015
2170.100 1.5165 1.48961 1.5159 1.518 1.6535 1.8521 1.9197 1.9438 1.8195 1.7785
2189.390 1.828 1.8037 1.7743 1.7069 1.6372 1.657 1.5688 1.42637 1.49752 1.8579
2208.680 1.7209 1.43324 1.6987 1.8285 1.6713 1.50082 1.5567 1.7269 1.5186 1.46632
2227.970 1.5416 1.8451 2.2254 1.9978 1.8761 1.7964 1.7817 2.0031 1.9674 1.8469
2247.259 1.9403 1.7422 1.6685 1.7928 1.5334 1.242 1.50657 1.9136 1.9062 1.4144
2266.549 1.256 1.6129 1.788 1.7401 1.41807 1.276 1.5356 1.7566 1.7467 1.7114
2285.839 1.5521 1.50905 1.7171 1.8204 2.067 2.2023 2.2232 2.1512 1.8403 1.993
2305.129 2.0819 2.0914 2.0572 1.9087 1.6612 1.5606 2.124 2.3116 1.9797 1.9123
2324.418 2.0356 2.2884 2.3105 2.1768 2.2171 1.9795 1.7355 1.7742 1.713 1.6862
2343.708 1.7136 1.6009 1.8087 2.1584 2.2688 2.1915 2.1538 2.1818 2.1816 1.9556
2362.998 1.5605 1.3273 1.6302 1.8114 1.7046 1.8737 1.9366 1.8306 1.7343 1.8846
2382.288 1.9044 1.8893 2.0628 1.851 1.6733 1.8214 1.7097 1.7316 1.7723 1.5599
2401.578 1.4907 1.6308 1.79 1.8195 1.91 1.9438 2.0092 1.8345 1.6696 1.6923
2420.867 1.7325 1.7735 1.6973 1.8034 1.8242 1.8283 1.8308 1.8141 1.7521 1.4988
2440.157 1.3976 1.46521 1.8525 1.9954 1.7504 1.8799 1.8453 1.9449 1.9896 1.6834
2459.447 1.7555 1.8568 1.7926 1.5787 1.49377 1.43816 1.45493 1.8557 2.0166 2.0425
2478.737 2.2033 2.0828 1.8884 1.6807 1.7223 1.9398 2.1476 1.968 1.8514 2.0173
2498.026 1.7242 1.9527 2.1656 2.0549 1.942 1.9705 1.9491 1.7043 1.9355 2.1217
2517.316 2.1327 1.9064 1.8745 2.0234 1.8102 1.5434 1.44716 1.6373 1.8544 1.9377
2536.606 1.9575 1.9363 2.0125 1.8013 1.7329 1.9882 1.9804 1.9026 1.8403 1.8694
2555.896 1.9185 2.0035 2.0374 1.8545 1.5835 1.8456 2.1478 2.0406 1.8917 1.7582
2575.186 1.7491 1.8184 1.7217 1.8802 2.3683 2.2795 2.0101 2.1857 2.2298 1.9721
2594.475 1.6589 1.607 1.6154 1.79 1.9978 1.7898 1.9333 2.1456 2.0961 1.9878
2613.765 1.9018 1.9608 1.7684 1.686 1.9188 1.7797 1.7965 1.9763 1.7952 1.7547
2633.055 2.0166 1.6387 1.40542 1.6268 1.6782 1.7643 1.8103 1.9103 2.0828 2.0654
2652.345 1.8784 2.0934 2.4078 2.3761 2.2346 2.0033 1.8601 2.0031 1.9924 1.8607
2671.634 1.9098 2.0728 2.3311 2.196 2.1787 2.3847 2.46 2.2843 2.3157 2.77
2690.924 2.68 2.3908 2.261 2.52 2.49 2.3619 2.2879 2.0681 2.3271 2.63
2710.214 2.1378 1.8258 2.1077 2.2225 1.907 1.3235 1.6029 1.9344 1.8135 1.7005
2729.504 1.6481 1.9419 2.1744 2.0411 2.014 1.9542 1.7248 1.6824 1.5877 1.5452
2748.794 1.8572 1.7384 1.6693 1.9355 1.41284 1.3973 1.8682 1.9472 1.7576 1.5271
2768.083 1.7521 1.8931 1.955 2.0297 1.7816 1.5149 1.3253 1.47574 1.6362 1.7486
2787.373 1.9326 1.8605 1.656 1.5185 1.6906 1.8301 1.6004 1.3846 1.6852 1.9482
2806.663 2.0328 2.034 1.8438 2.0308 2.3955 2.2494 1.8567 1.8209 1.9442 1.9428
2825.953 2.0354 2.2269 2.3877 2.3257 2.071 1.903 2.0697 2.0973 2.1705 2.2095
2845.242 2.1861 2.6 2.54 2.1456 2.3308 2.52 2.43 2.94 3.34 3.01
2864.532 3.17 3.3 3.1 3.2 3.25 3.44 3.73 3.64 3.48 3.92
2883.822 4.01 3.7 3.98 4.35 4.4 4.18 3.85 3.89 3.73 3.27
2903.112 2.83 2.5 2.5 2.72 2.6 2.94 2.97 2.6 2.87 2.74
2922.401 2.71 2.57 2.4035 2.3554 2.3133 2.3163 2.2508 2.2604 2.0971 1.9163
2941.691 1.9742 2.4065 2.66 2.49 2.0849 1.591 1.3241 1.40474 2.0516 1.9661
2960.981 1.8079 1.7527 1.19 1.5436 2.0796 1.6668 1.272 1.6891 2.3519 2.1139
2980.271 1.8502 1.9654 1.9573 2.1254 1.8562 1.8734 1.8904 1.6573 1.6135 1.7203
2999.561 1.8747 1.9464 1.9638 1.9381 1.6767 1.40552 1.6266 1.8605 1.7699 1.9318
3018.850 2.2956 1.963 2.0154 2.1314 1.716 1.6478 1.7176 1.911 2.3438 2.361
3038.140 2.0043 1.8554 1.8343 2.1127 2.3491 1.9983 1.853 2.43 2.48 2.59
3057.430 3.14 2.99 3.06 3.31 3.47 4.47 5.55 5.95 6.44 6.73
3076.720 6.96 6.72 6.04 6.27 5.94 5.02 4.66 4.51 4.32 4.52
3096.009 3.88 3.08 3.17 3.11 3.22 3.58 4.14 4.6 4.43 3.86
3115.299 3.46 3.32 2.88 3.21 3.23 2.57 2.87 2.71 2.2407 2.3166
3134.589 1.9489 1.674 2.4011 2.78 2.73 2.79 2.47 2.2967 2.46 2.2035
3153.879 2.1781 1.9017 1.8252 2.2757 2.0445 2.1081 1.7746 1.45001 1.45128 1.168
3173.169 1.3931 1.6865 1.6503 1.9273 1.9451 1.5808 1.50116 1.5677 1.8083 1.878
3192.458 1.6669 1.5772 1.6497 1.6661 1.5626 1.9318 2.53 2.0442 1.8597 1.7065
3211.748 1.5344 1.44756 1.09 1.687 1.583 1.3364 1.885 1.7217 1.44816 1.8448
3231.038 1.8907 1.7186 2.0106 2.0832 1.8338 1.3211 1.3 1.8506 1.8696 1.203
3250.328 1.50739 1.8168 1.885 2.0899 1.556 1.5145 1.9489 2.1648 1.7904 1.6715
3269.617 1.8953 2.034 1.5931 1.155 1.45477 1.6555 1.50224 1.7829 1.9649 1.8952
3288.907 1.8996 1.8242 1.7543 1.8306 2.1096 1.5575 1.305 1.4297 1.146 1.50282
3308.197 1.9002 1.9662 2.3873 1.8859 1.265 1.6511 1.9771 1.8096 1.54 1.6126
3327.487 1.8058 1.6759 1.6385 1.302 1.6132 2.1427 1.8579 1.3268 1.196 1.7769
3346.777 1.7687 1.3323 0.93 1.104 1.7381 1.8317 2.0136 1.8733 1.50871 1.6716
3366.066 1.227 1.145 1.6662 1.5474 1.163 1.5712 2.1502 2.1159 2.0037 2.0138
3385.356 1.9485 1.9246 1.5486 1.3433 1.5231 1.6307 1.046 0.928 1.5471 2.0374
3404.646 2.1868 2.314 2.42 1.7296 1.9153 2.1557 1.8844 2.1353 2.2351 1.8096
3423.936 1.5928 1.5101 2.0845 2.42 1.9422 1.7224 1.8223 2.3695 2.48 1.826
3443.225 1.383 1.9598 1.9258 1.47901 1.5796 1.46409 1.3485 1.3582 1.44757 1.743
3462.515 1.6356 1.5355 1.47843 1.243 1.517 1.47386 1.5236 1.8508 1.02 0.609
3481.805 1.107 1.181 1.105 1.5807 1.7213 1.3865 1.3702 1.5702 2.1793 1.9574
3501.095 1.6488 1.8389 1.5723 1.5614 1.7103 2.0271 1.9959 1.6278 1.8238 1.7644
3520.385 1.028 1.3597 2.049 1.276 0.707 1.118 1.165 1.063 1.3778 1.43887
3539.674 1.8929 1.816 1.301 1.183 1.5471 1.9048 1.6668 1.9915 1.734 1.5919
3558.964 2.0254 2.0728 1.667 1.042 1.172 1.7852 2.1317 1.8513 1.904 2.2812
3578.254 1.7406 1.4493 1.49921 1.46769 1.6661 1.48856 1.7642 1.5523 1.5325 2.0786
3597.544 1.7543 1.6106 1.225 1.086 1.42907 1.872 1.8878 1.533 1.6313 2.1446
3616.833 2.44 1.8735 1.44714 1.3547 1.5727 2.1333 2.1743 2.022 1.6278 1.3701
3636.123 1.7748 1.50498 0.951 0.937 1.3707 1.7267 2.43 2.57 1.9326 1.7768
3655.413 1.552 1.50001 1.8323 1.8946 1.758 1.7367 1.721 1.7193 1.6276 1.6004
3674.703 1.7069 1.6281 1.5562 1.9548 2.0824 2.0615 1.45441 0.712 1.225 1.45885
3693.993 1.262 1.41223 1.6149 1.03 0.518 0.915 1.43926 1.9239 2.2997 1.9984
3713.282 1.7101 1.6928 1.7876 1.5287 0.44 0.591 1.7202 2.2776 2.1099 1.3302
3732.572 1.5498 2.3566 2.1211 2.2044 2.3733 1.8359 2.1567 1.7006 0.789 1.226
3751.862 1.42799 1.9249 2.2236 1.9716 1.5705 1.169 0.775 0.908 1.6716 1.7677
3771.152 1.6449 2.1099 2.0516 1.6584 2.0647 1.7259 1.192 1.3187 1.3593 0.977
3790.441 0.876 1.154 1.3741 1.45343 1.6485 1.5727 1.5398 2.0693 1.9353 1.239
3809.731 1.6047 2.47 2.7 2.43 1.6513 1.3922 1.5979 0.987 0.822 1.3316
3829.021 1.21 1.298 1.252 0.767 0.26 0.478 1.248 1.092 1.033 1.3468
3848.311 0.654 0.35 0.673 1.283 1.7325 1.6235 1.9222 2.2985 2.2717 2.1174
3867.601 1.981 1.7838 1.7786 1.47702 1.144 1.3556 2.1674 2.3385 1.9492 2.0692
3886.890 2.2843 1.8834 1.3148 1.8508 1.976 1.48936 1.5507 1.3532 1.154 1.193
3906.180 1.3361 1.065 0.974 1.115 1.218 1.8173 1.9978 1.7409 1.3806 1.3828
3925.470 2.2563 2.3945 1.9815 2.1023 2.1355 2.1185 1.9027 1.5391 1.3957 1.45997
3944.760 2.062 2.86 2.51 1.6446 1.127 1.40562 1.9025 2.1454 2.44 2.3913
3964.049 2.0336 1.5798 1.5638 1.6165 1.3411 1.051 1.47979 1.48882 1.084 1.5437
3983.339 1.6889 1.6279 1.8036 1.40626 1.68 2.2548 2.3927 2.253 1.9867 1.9005
##END=
