##TITLE=4-Nitro-.omega.-nitrostyrene
##JCAMP-DX=4.24
##DATA TYPE=INFRARED SPECTRUM
##ORIGIN=EPA-IR VAPOR PHASE LIBRARY
##OWNER=SRD/NIST
Collection (C) 2018 copyright by the U.S. Secretary of Commerce
on behalf of the United States of America. All rights reserved.
##CAS REGISTRY NO=3156-41-0
##MOLFORM=C 8 H 6 N 2 O 4
##$NIST SOURCE=MSDC-IR
##STATE=gas
##XUNITS=1/CM
##YUNITS=ABSORBANCE
##XFACTOR=1.
##YFACTOR=0.001
##DELTAX=1.929
##FIRSTX=549.8
##LASTX=4000.8
##FIRSTY=0.3068
##MAXX=4000.75
##MINX=549.766
##MAXY=0.007957
##MINY=0
##NPOINTS=1790
##XYDATA=(X++(Y..Y))
549.766 0.3068 0.4263 0.5583 0.21366 0.1448 0.21792 0.1278 0.3298 0.4253 0.4213
569.056 0.3816 0.26593 0.4879 0.5429 0.5532 0.4361 0.23584 0.1091 0 0.23138
588.346 0.22207 0.22152 0.26489 0.26181 0.2857 0.2247 0.1417 0.031 0.1184 0.3113
607.636 0.3284 0.2739 0.26041 0.327 0.3268 0.19005 0.25023 0.3118 0.26309 0.17076
626.926 0.18422 0.1829 0.1122 0.17756 0.1275 0.22096 0.4078 0.4241 0.4376 0.3782
646.216 0.2809 0.2982 0.3532 0.25074 0.138 0.18627 0.313 0.20851 0.039 0.2221
665.506 0.4066 0.3114 0.3175 0.4174 0.3466 0.3613 0.4775 0.4388 0.392 0.4011
684.796 0.3393 0.3749 0.4411 0.3957 0.4646 0.4626 0.4029 0.5052 0.4954 0.5233
704.086 0.5534 0.4932 0.5335 0.5096 0.5153 0.6762 0.5938 0.5112 0.6387 0.6238
723.376 0.5685 0.4979 0.539 0.6694 0.7356 0.8005 0.9414 1.207 1.367 1.507
742.666 1.587 1.357 1.0703 0.9105 0.833 0.8012 0.7791 0.6797 0.6685 0.6843
761.956 0.604 0.4767 0.389 0.3917 0.3183 0.2802 0.3806 0.4874 0.4609 0.3252
781.246 0.2908 0.25715 0.2677 0.21715 0.24373 0.3754 0.3259 0.3832 0.363 0.307
800.536 0.3054 0.3368 0.3999 0.4214 0.3694 0.4014 0.388 0.23957 0.3357 0.5959
819.826 0.6631 0.6621 0.7752 0.8879 1.0248 1.1568 1.317 1.537 1.557 1.477
839.116 1.437 1.367 1.237 1.0527 0.9071 0.8239 0.8632 0.9003 0.9397 0.8678
858.406 0.8855 1.0748 1.1339 1.0832 1.0658 0.98 0.8471 0.7448 0.605 0.5614
877.696 0.5191 0.4407 0.3972 0.3806 0.3603 0.3565 0.4248 0.3799 0.2811 0.24979
896.986 0.25198 0.24247 0.22685 0.3088 0.281 0.26323 0.3054 0.26023 0.3062 0.3684
916.276 0.4053 0.4129 0.3919 0.38 0.3872 0.4208 0.5084 0.5078 0.472 0.5897
935.566 0.6593 0.713 0.7843 0.8165 0.926 1.0476 1.0817 1.0836 1.1219 1.1512
954.856 1.197 1.247 1.237 1.217 1.227 1.177 0.9993 0.9558 0.9055 0.7591
974.146 0.6494 0.5893 0.5404 0.4952 0.3822 0.3202 0.368 0.311 0.3036 0.3406
993.436 0.3176 0.3187 0.3661 0.3299 0.3143 0.3356 0.2951 0.317 0.3793 0.4255
1012.726 0.461 0.5319 0.5039 0.4495 0.3672 0.3028 0.3044 0.22498 0.19532 0.171053
1032.016 0.172805 0.18585 0.21321 0.2759 0.25907 0.21499 0.20573 0.23003 0.1959 0.1816
1051.306 0.18254 0.0985 0.066 0.18016 0.22286 0.1117 0.0968 0.19196 0.21171 0.19155
1070.596 0.24469 0.2109 0.20246 0.24761 0.25831 0.21615 0.19786 0.23283 0.19841 0.21617
1089.886 0.25977 0.25236 0.26434 0.3082 0.3596 0.3746 0.3574 0.3049 0.3384 0.3889
1109.176 0.4231 0.4676 0.4248 0.3429 0.2692 0.26172 0.2818 0.25266 0.26045 0.2932
1128.467 0.2716 0.21867 0.24659 0.23003 0.1558 0.20928 0.23805 0.18427 0.1485 0.17797
1147.757 0.21877 0.25444 0.24161 0.18891 0.1477 0.1471 0.18217 0.24042 0.24594 0.21679
1167.047 0.2707 0.2809 0.214 0.22004 0.2714 0.277 0.2979 0.3061 0.3592 0.4273
1186.337 0.45 0.5242 0.5236 0.5309 0.5911 0.5974 0.4896 0.4613 0.3717 0.3061
1205.627 0.3143 0.3299 0.3515 0.2792 0.21811 0.16589 0.21609 0.18773 0.25798 0.3534
1224.917 0.3062 0.3343 0.3646 0.4038 0.4029 0.3227 0.3506 0.3945 0.3091 0.3588
1244.207 0.4411 0.4741 0.4838 0.4377 0.444 0.4731 0.5131 0.4904 0.4135 0.3615
1263.497 0.3785 0.3559 0.3859 0.4652 0.4301 0.4209 0.4698 0.4295 0.3748 0.4188
1282.787 0.4751 0.523 0.5385 0.5213 0.5456 0.5232 0.5172 0.5304 0.5227 0.5892
1302.077 0.6462 0.7063 0.7245 0.7422 0.7979 0.7642 0.8358 0.9916 1.0564 1.1643
1321.367 1.347 1.597 1.877 2.257 2.767 3.327 3.967 4.757 5.617 6.467
1340.657 7.207 7.727 7.957 7.817 7.287 6.457 5.507 4.597 3.837 3.247
1359.947 2.777 2.387 2.087 1.887 1.737 1.617 1.557 1.527 1.437 1.347
1379.237 1.217 1.0743 0.9975 0.9143 0.8721 0.8687 0.8169 0.7323 0.6426 0.5975
1398.527 0.5778 0.5746 0.582 0.5465 0.5401 0.5283 0.5052 0.5003 0.5112 0.4651
1417.817 0.4409 0.4523 0.4005 0.3761 0.3729 0.3965 0.3797 0.3208 0.2689 0.2944
1437.107 0.353 0.3694 0.3946 0.3394 0.2868 0.3259 0.3881 0.3743 0.3194 0.3511
1456.397 0.4103 0.4028 0.3841 0.4217 0.4612 0.4563 0.4811 0.4908 0.4766 0.5384
1475.687 0.5968 0.5815 0.5804 0.5984 0.6307 0.6772 0.7835 0.8726 0.9271 0.9777
1494.977 0.9999 0.9978 0.995 0.9968 1.0129 1.0267 1.0605 1.1593 1.257 1.337
1514.267 1.447 1.637 1.857 2.097 2.357 2.677 2.997 3.357 3.797 4.247
1533.557 4.717 5.097 5.377 5.647 5.877 6.017 6.007 5.877 5.657 5.317
1552.847 4.947 4.507 4.127 3.767 3.327 2.947 2.637 2.377 2.107 1.907
1572.137 1.737 1.587 1.507 1.507 1.497 1.447 1.447 1.487 1.537 1.607
1591.427 1.637 1.667 1.727 1.747 1.777 1.737 1.667 1.657 1.537 1.397
1610.717 1.307 1.1561 0.9664 0.8317 0.7447 0.663 0.6141 0.5326 0.4871 0.4686
1630.007 0.4746 0.5259 0.5046 0.5186 0.6015 0.6615 0.7086 0.7172 0.7223 0.7443
1649.297 0.698 0.6298 0.5504 0.4582 0.4264 0.4112 0.3679 0.3493 0.3509 0.3554
1668.587 0.3794 0.396 0.3836 0.3601 0.3708 0.3722 0.3134 0.3281 0.3471 0.3204
1687.877 0.3359 0.2857 0.3044 0.3356 0.3047 0.3011 0.2879 0.2812 0.24497 0.23186
1707.167 0.24964 0.2596 0.23742 0.22202 0.2324 0.22437 0.20245 0.23438 0.3077 0.25243
1726.457 0.22985 0.2789 0.2441 0.18962 0.19859 0.24402 0.25796 0.25021 0.23279 0.21716
1745.747 0.21218 0.19133 0.19914 0.2171 0.19332 0.22619 0.22409 0.22083 0.25681 0.22938
1765.037 0.21639 0.24791 0.2673 0.2774 0.2725 0.2532 0.23538 0.23493 0.2723 0.3114
1784.327 0.2683 0.20421 0.23199 0.2778 0.294 0.2797 0.2823 0.2787 0.25042 0.26609
1803.617 0.267 0.21825 0.20508 0.2095 0.174986 0.1475 0.20128 0.22868 0.21022 0.18646
1822.907 0.16077 0.19763 0.20523 0.16338 0.17431 0.176138 0.1544 0.18706 0.17913 0.21603
1842.197 0.22607 0.18744 0.18084 0.173928 0.20229 0.24062 0.23696 0.20462 0.22223 0.23416
1861.487 0.168458 0.1457 0.18919 0.20705 0.18839 0.20069 0.21016 0.1629 0.16505 0.17882
1880.777 0.23397 0.2654 0.23271 0.225 0.2283 0.24786 0.22559 0.19952 0.19584 0.18332
1900.067 0.18048 0.23022 0.22709 0.2056 0.22951 0.23987 0.2563 0.26336 0.2897 0.279
1919.357 0.24847 0.2673 0.292 0.26504 0.25307 0.23461 0.19948 0.2387 0.3003 0.24848
1938.647 0.20159 0.22678 0.20369 0.16951 0.19143 0.21927 0.20828 0.1822 0.21872 0.21061
1957.937 0.1566 0.20296 0.23245 0.2227 0.22364 0.2266 0.1781 0.1356 0.17212 0.20508
1977.227 0.22845 0.24147 0.23732 0.22143 0.21604 0.20045 0.174593 0.18159 0.167988 0.166072
1996.517 0.19586 0.18012 0.171248 0.2036 0.21307 0.19477 0.17894 0.19989 0.1998 0.19625
2015.807 0.20101 0.18726 0.1496 0.1516 0.152 0.1488 0.18929 0.21802 0.21979 0.17756
2035.097 0.17817 0.19116 0.17982 0.15 0.1563 0.176127 0.1599 0.16235 0.20635 0.22219
2054.387 0.18012 0.19228 0.21696 0.18106 0.1499 0.19529 0.21599 0.171906 0.1537 0.169423
2073.677 0.17867 0.20516 0.20065 0.1929 0.19976 0.1459 0.1179 0.1506 0.1488 0.169144
2092.967 0.19185 0.175781 0.19729 0.18349 0.19501 0.22033 0.171254 0.1495 0.18332 0.171287
2112.257 0.21772 0.24404 0.22386 0.2801 0.2801 0.24715 0.19499 0.17961 0.21368 0.18384
2131.547 0.1453 0.168533 0.18071 0.17942 0.19248 0.19862 0.19955 0.21949 0.2585 0.22302
2150.837 0.18344 0.18008 0.18042 0.18596 0.19169 0.19688 0.20224 0.18993 0.1391 0.166961
2170.127 0.175124 0.1405 0.1554 0.18055 0.16516 0.1416 0.175487 0.1974 0.23589 0.25911
2189.417 0.21185 0.173698 0.18648 0.20589 0.22131 0.20579 0.167641 0.21254 0.24891 0.21099
2208.707 0.176278 0.167319 0.167821 0.169899 0.169885 0.19591 0.20779 0.172403 0.1558 0.16016
2227.997 0.16516 0.171759 0.175785 0.175227 0.17881 0.20805 0.24455 0.21115 0.1458 0.113
2247.287 0.12 0.15788 0.19491 0.20863 0.22611 0.22478 0.167269 0.1281 0.139 0.18777
2266.577 0.175886 0.1488 0.19395 0.20212 0.172584 0.176276 0.21988 0.24438 0.25989 0.2438
2285.868 0.24206 0.25 0.22355 0.20341 0.21346 0.2132 0.21601 0.22657 0.23474 0.2981
2305.158 0.3016 0.21052 0.16262 0.18878 0.20574 0.20914 0.1989 0.20421 0.25108 0.2724
2324.448 0.23396 0.16454 0.1542 0.19265 0.19102 0.25196 0.2708 0.19234 0.167285 0.171511
2343.738 0.174053 0.2103 0.2395 0.20309 0.172128 0.16033 0.18179 0.2486 0.2815 0.17578
2363.028 0.1458 0.25905 0.24137 0.19092 0.22222 0.2685 0.24602 0.21112 0.23657 0.25862
2382.318 0.23231 0.20469 0.24575 0.2229 0.20369 0.23755 0.19946 0.18812 0.19366 0.168214
2401.608 0.18746 0.2414 0.1969 0.1792 0.22888 0.22415 0.19183 0.21904 0.2906 0.272
2420.898 0.21373 0.23934 0.22347 0.19363 0.2502 0.2684 0.2687 0.23344 0.22293 0.24198
2440.188 0.175833 0.1498 0.20475 0.23481 0.20836 0.176022 0.21645 0.24934 0.21057 0.20528
2459.478 0.23016 0.23487 0.24569 0.2657 0.26618 0.26104 0.2764 0.2836 0.3006 0.25876
2478.768 0.19473 0.21789 0.21112 0.166653 0.167231 0.21015 0.23262 0.20586 0.16275 0.1205
2498.058 0.161 0.20138 0.19616 0.23599 0.22603 0.19807 0.22237 0.21915 0.2708 0.3232
2517.348 0.3143 0.2919 0.2271 0.21683 0.25774 0.26675 0.25545 0.2784 0.25542 0.26195
2536.638 0.24258 0.21951 0.2857 0.2729 0.20862 0.22603 0.295 0.3058 0.23891 0.18474
2555.928 0.17931 0.20765 0.20321 0.20173 0.2599 0.2716 0.25024 0.2684 0.3116 0.2893
2575.218 0.24008 0.20284 0.18794 0.15868 0.1244 0.16095 0.21632 0.19392 0.16367 0.18986
2594.508 0.23602 0.2801 0.2921 0.2949 0.3068 0.2698 0.24331 0.19679 0.1583 0.16517
2613.798 0.19824 0.25118 0.2917 0.3008 0.26578 0.2404 0.19657 0.20961 0.20479 0.20981
2633.088 0.23815 0.22808 0.2802 0.25763 0.22963 0.2187 0.21142 0.2323 0.23607 0.2694
2652.378 0.25185 0.24498 0.2435 0.21368 0.25798 0.3268 0.3235 0.2915 0.24772 0.16197
2671.668 0.1298 0.21001 0.23618 0.2834 0.26637 0.168858 0.176863 0.21086 0.24536 0.26288
2690.958 0.22447 0.20482 0.2719 0.2801 0.2783 0.3025 0.3049 0.3177 0.3297 0.2915
2710.248 0.2715 0.2808 0.2836 0.3002 0.2889 0.2732 0.272 0.25807 0.22985 0.22481
2729.538 0.20776 0.21295 0.24313 0.21044 0.23852 0.26241 0.22616 0.2916 0.2956 0.26491
2748.828 0.26011 0.22833 0.19763 0.1479 0.1486 0.23103 0.2688 0.21285 0.1496 0.16105
2768.118 0.19726 0.18362 0.21477 0.26243 0.3237 0.2728 0.20397 0.19385 0.20576 0.2908
2787.408 0.24154 0.22155 0.3204 0.3108 0.26655 0.2749 0.2847 0.253 0.24404 0.2682
2806.698 0.2693 0.21873 0.18672 0.25751 0.3237 0.24661 0.2798 0.3526 0.2879 0.24913
2825.988 0.24864 0.2691 0.24458 0.2708 0.23275 0.154 0.23597 0.26194 0.2737 0.3367
2845.278 0.3128 0.3275 0.303 0.24984 0.26445 0.3151 0.3649 0.3648 0.3845 0.3373
2864.568 0.3175 0.3187 0.2886 0.3416 0.3664 0.3245 0.3816 0.4134 0.3708 0.3898
2883.858 0.332 0.3149 0.3863 0.437 0.3825 0.2759 0.378 0.4099 0.3329 0.3422
2903.148 0.3491 0.3298 0.22045 0.18788 0.2771 0.3253 0.3299 0.3188 0.3111 0.3225
2922.438 0.3361 0.3177 0.2397 0.25044 0.21362 0.1447 0.2856 0.3824 0.336 0.26242
2941.728 0.2809 0.3397 0.3466 0.3813 0.382 0.3952 0.3794 0.3022 0.25303 0.26462
2961.018 0.2827 0.3008 0.26589 0.2806 0.3303 0.2721 0.2905 0.2781 0.23637 0.20133
2980.308 0.172461 0.20853 0.26184 0.2948 0.3353 0.25517 0.22758 0.25041 0.176738 0.20954
2999.598 0.2288 0.36 0.4156 0.3458 0.3211 0.24706 0.24349 0.2372 0.2827 0.348
3018.888 0.3269 0.3672 0.3527 0.24296 0.20302 0.23241 0.25622 0.2817 0.26253 0.21163
3038.178 0.25922 0.3408 0.3222 0.2993 0.3337 0.3319 0.2884 0.3419 0.3666 0.3555
3057.468 0.321 0.3444 0.3947 0.3505 0.3429 0.25714 0.18669 0.2714 0.3747 0.3672
3076.758 0.2998 0.3049 0.3633 0.4091 0.4751 0.4539 0.3497 0.3196 0.3321 0.3047
3096.048 0.2886 0.23093 0.22576 0.3546 0.3706 0.3238 0.4117 0.4135 0.3745 0.4187
3115.338 0.3913 0.4095 0.3921 0.2782 0.23484 0.24202 0.19604 0.20939 0.24133 0.19238
3134.628 0.25508 0.3706 0.2963 0.26524 0.2855 0.24682 0.3304 0.3483 0.24316 0.25146
3153.918 0.23889 0.18031 0.2836 0.2779 0.18453 0.19562 0.2403 0.2998 0.26355 0.25376
3173.208 0.21233 0.175715 0.3164 0.357 0.2789 0.21625 0.19358 0.25 0.3029 0.2719
3192.498 0.22682 0.2044 0.23402 0.22049 0.3021 0.4238 0.3325 0.2817 0.2985 0.2738
3211.788 0.3244 0.317 0.2252 0.24948 0.2915 0.22598 0.22726 0.23283 0.23256 0.3444
3231.078 0.352 0.3884 0.3223 0.1499 0.2425 0.3155 0.271 0.21353 0.23381 0.19145
3250.368 0.19557 0.25678 0.22313 0.23925 0.26224 0.3298 0.2817 0.20881 0.2799 0.20293
3269.658 0.025 0.17733 0.3309 0.23022 0.20283 0.21759 0.1969 0.22686 0.2759 0.24218
3288.948 0.19958 0.24731 0.283 0.2583 0.25525 0.26169 0.22638 0.23782 0.23355 0.2825
3308.238 0.3243 0.3063 0.23223 0.19337 0.3385 0.3063 0.21112 0.2861 0.3612 0.3732
3327.528 0.3721 0.2434 0.15792 0.26224 0.26502 0.2757 0.3778 0.3898 0.3299 0.24774
3346.818 0.2363 0.3588 0.3136 0.1319 0.1161 0.17873 0.2688 0.3072 0.21778 0.21351
3366.108 0.25077 0.21214 0.21817 0.2833 0.20552 0.176692 0.20942 0.1132 0.131 0.161
3385.398 0.0823 0.1078 0.176933 0.16182 0.167962 0.1423 0.1884 0.3121 0.2885 0.25386
3404.688 0.2732 0.3337 0.3761 0.31 0.22804 0.1542 0.1296 0.23215 0.2706 0.1447
3423.978 0.1522 0.175933 0.1074 0.168872 0.22178 0.2416 0.306 0.3636 0.3526 0.2831
3443.269 0.23473 0.174524 0.24475 0.303 0.22452 0.2023 0.22519 0.24096 0.2976 0.25878
3462.559 0.2056 0.167099 0.0932 0.19231 0.23765 0.21373 0.1951 0.153 0.22676 0.26405
3481.849 0.2789 0.23673 0.22984 0.23026 0.1037 0.1448 0.23895 0.21806 0.22776 0.2616
3501.139 0.24962 0.23601 0.21648 0.167239 0.20588 0.3423 0.3448 0.2887 0.23025 0.0832
3520.429 0.041 0.1136 0.035 0.032 0.1437 0.1239 0.21261 0.3298 0.25134 0.16087
3539.719 0.1339 0.1354 0.1447 0.1316 0.24181 0.2953 0.17146 0.0839 0.1075 0.22022
3559.009 0.1945 0.1362 0.24222 0.21286 0.1425 0.2064 0.1648 0.23974 0.3734 0.2612
3578.299 0.23069 0.25321 0.167739 0.170416 0.20088 0.22457 0.26691 0.3493 0.3542 0.2816
3597.589 0.171647 0.1449 0.2458 0.24276 0.20202 0.1493 0.0784 0.0882 0.172664 0.20651
3616.879 0.17871 0.16567 0.18868 0.217 0.2898 0.21897 0.1489 0.20765 0.166651 0.1486
3636.169 0.25512 0.2724 0.1357 0.1467 0.3143 0.3206 0.2938 0.3221 0.18757 0.176418
3655.459 0.283 0.24747 0.167176 0.20589 0.2894 0.21982 0.18925 0.2699 0.26141 0.20197
3674.749 0.20669 0.176699 0.0972 0.0959 0.1381 0.18004 0.22906 0.26287 0.18219 0.167478
3694.039 0.174063 0.19163 0.22834 0.21411 0.2552 0.3104 0.3111 0.3057 0.3115 0.25284
3713.329 0.21548 0.23422 0.278 0.2858 0.31 0.3104 0.25378 0.21617 0.168952 0.22026
3732.619 0.29 0.2895 0.3093 0.3655 0.3209 0.20196 0.19056 0.26552 0.3652 0.369
3751.909 0.2675 0.1518 0.0944 0.1019 0.1442 0.21452 0.3099 0.325 0.18404 0.1229
3771.199 0.15913 0.083 0.1012 0.21334 0.2555 0.3091 0.3601 0.3105 0.20038 0.21724
3790.489 0.2228 0.166895 0.19657 0.1917 0.17113 0.18744 0.167933 0.20456 0.21929 0.2064
3809.779 0.22853 0.22397 0.2789 0.3751 0.3444 0.1456 0.05 0.007 0.134 0.22755
3829.069 0.24299 0.2929 0.19864 0.24878 0.2706 0.21416 0.3088 0.3032 0.21255 0.22413
3848.359 0.15714 0.1387 0.20638 0.2766 0.24199 0.2823 0.25241 0.21454 0.3689 0.3071
3867.649 0.18701 0.20788 0.18482 0.1342 0.0683 0.0963 0.20055 0.24152 0.323 0.3175
3886.939 0.2944 0.24898 0.17865 0.20745 0.2524 0.2471 0.21571 0.25802 0.3853 0.3625
3906.229 0.3245 0.3818 0.25861 0.19135 0.25977 0.23952 0.24315 0.21383 0.171374 0.17713
3925.519 0.16519 0.17533 0.2004 0.23785 0.2164 0.1395 0.063 0.16382 0.2894 0.2313
3944.809 0.26239 0.24868 0.149 0.21497 0.23789 0.18751 0.24496 0.25444 0.25156 0.23906
3964.099 0.2873 0.3615 0.3551 0.3683 0.3599 0.3558 0.2732 0.23439 0.262 0.16042
3983.389 0.1212 0.21105 0.19272 0.2784 0.2982 0.25504 0.26039 0.2622 0.21356 0.0787
##END=
