##TITLE=3-Iodo-o-xylene
##JCAMP-DX=4.24
##DATA TYPE=INFRARED SPECTRUM
##ORIGIN=EPA-IR VAPOR PHASE LIBRARY
##OWNER=SRD/NIST
Collection (C) 2018 copyright by the U.S. Secretary of Commerce
on behalf of the United States of America. All rights reserved.
##CAS REGISTRY NO=31599-60-7
##MOLFORM=C 8 H 9 I
##$NIST SOURCE=MSDC-IR
##STATE=gas
##XUNITS=1/CM
##YUNITS=ABSORBANCE
##XFACTOR=1.
##YFACTOR=0.001
##DELTAX=1.92898
##FIRSTX=549.8
##LASTX=4000.7
##FIRSTY=0.39897
##MAXX=4000.7
##MINX=549.759
##MAXY=0.056792
##MINY=0
##NPOINTS=1790
##XYDATA=(X++(Y..Y))
549.759 0.39897 0.4836 0.537 0.47607 0.44138 0.4848 0.6217 0.7667 0.9263 0.8972
569.049 0.7464 0.559 0.8508 1.1477 1.2946 1.682 1.852 2.352 3.502 5.292
588.339 7.442 9.452 11.072 11.792 12.162 12.242 11.892 11.102 8.852 5.912
607.628 3.792 2.662 1.942 1.562 1.2117 1.0093 0.8846 0.5999 0.7302 1.0469
626.918 0.8526 0.6622 0.6501 0.5371 0.45548 0.5271 0.634 0.44966 0.48162 0.5787
646.208 0.5239 0.39543 0.39617 0.46309 0.4854 0.6444 0.9858 1.0967 0.8955 0.8666
665.498 0.6646 0.7173 0.9448 1.1627 1.432 1.482 1.622 2.052 2.812 3.522
684.787 4.422 5.292 5.892 6.582 7.222 8.182 9.902 10.682 8.812 7.022
704.077 6.432 5.682 4.992 4.252 3.462 2.822 2.132 1.652 1.602 1.532
723.367 1.472 1.562 1.552 1.652 2.012 2.312 2.572 3.222 4.182 5.352
742.657 6.962 8.992 11.452 14.592 18.472 22.972 27.412 31.652 36.112 41.492
761.947 48.812 56.442 56.792 50.312 45.482 42.072 37.862 32.592 26.292 19.952
781.236 14.462 10.412 7.672 5.722 4.612 3.912 3.212 2.812 2.522 2.172
800.526 2.022 1.952 1.942 1.982 2.152 2.682 3.302 4.142 5.742 8.012
819.816 10.072 11.142 11.352 11.242 11.072 10.652 9.052 6.322 3.992 2.712
839.106 1.942 1.582 1.2511 1.03 1.0656 1.0881 1.1412 1.3181 1.422 1.2655
858.395 1.2231 1.0606 0.8888 0.9978 1.0912 1.0509 1.0046 1.0442 1.0925 1.0206
877.685 1.1695 1.582 1.532 1.442 1.632 1.682 1.642 1.492 1.462 1.542
896.975 1.512 1.3244 1.1166 1.0468 1.1486 1.2445 1.1284 1.0752 1.2551 1.2928
916.265 1.1 1.1912 1.452 1.552 1.622 1.522 1.622 1.772 1.832 2.032
935.555 2.212 2.402 2.792 3.042 3.172 3.422 3.692 4.112 4.632 5.202
954.844 5.632 6.202 6.922 7.722 8.732 9.612 10.762 12.272 13.612 14.942
974.134 16.182 17.282 18.562 19.872 20.932 21.812 22.322 22.772 22.912 22.512
993.424 21.962 20.762 19.182 17.492 15.792 14.062 12.412 11.112 10.132 9.472
1012.714 9.082 8.732 8.672 8.812 8.692 8.582 8.372 7.962 7.472 7.252
1032.003 6.882 6.402 6.132 5.772 5.602 5.302 5.152 5.182 4.782 4.392
1051.293 4.192 4.182 4.252 4.142 4.072 3.772 3.642 3.652 3.822 4.212
1070.583 4.462 4.832 5.202 5.732 6.392 6.712 6.622 6.082 5.832 5.642
1089.873 5.402 5.212 4.742 4.152 3.312 3.192 2.852 2.632 3.182 3.092
1109.163 2.722 2.482 2.332 2.422 2.522 2.872 3.692 4.832 6.092 7.052
1128.452 7.862 8.192 8.192 7.962 7.442 7.072 6.082 4.822 3.752 3.072
1147.742 2.772 2.542 2.692 2.502 1.972 1.972 2.192 2.612 3.452 4.462
1167.032 5.302 5.902 5.972 5.602 5.532 5.522 4.712 3.242 2.162 1.692
1186.322 1.582 1.492 1.1694 1.1603 1.1625 0.833 0.4984 0.4979 1.0154 1.2899
1205.611 1.0946 1.0372 0.8366 0.4914 0.6816 0.9889 1.1036 1.2069 1.1602 1.1691
1224.901 1.0521 0.7899 0.8208 0.8373 0.9361 1.2051 1.3485 1.3643 1.642 2.022
1244.191 2.272 2.502 2.632 2.742 2.802 2.982 3.002 2.812 2.792 2.892
1263.481 2.822 2.502 2.362 2.342 2.242 2.242 2.272 2.052 1.942 2.002
1282.771 1.802 1.582 1.532 1.472 1.442 1.312 1.315 1.412 1.392 1.3533
1302.060 1.2814 1.2661 1.2553 1.2769 1.3548 1.442 1.472 1.452 1.492 1.582
1321.350 1.582 1.552 1.592 1.602 1.592 1.642 1.662 1.672 1.742 1.762
1340.640 1.772 1.772 1.822 1.882 1.892 1.942 2.012 2.032 2.092 2.202
1359.930 2.332 2.482 2.542 2.672 2.922 3.162 3.452 3.882 4.342 4.802
1379.219 5.282 5.802 6.352 6.812 7.122 7.302 7.362 7.372 7.372 7.172
1398.509 6.882 6.602 6.202 5.902 5.882 6.012 6.352 6.912 7.702 8.772
1417.799 10.102 11.692 13.362 15.092 16.812 18.572 20.542 22.562 24.572 26.552
1437.089 28.522 30.202 31.492 32.392 32.872 33.002 32.722 32.122 31.182 30.022
1456.378 28.952 28.142 27.612 27.102 26.262 25.232 24.062 22.742 21.192 19.132
1475.668 16.972 14.862 13.032 11.502 10.202 9.242 8.502 7.912 7.452 6.972
1494.958 6.592 6.342 6.112 5.942 5.772 5.622 5.572 5.602 5.642 5.752
1514.248 5.882 5.992 6.192 6.422 6.752 7.082 7.402 7.762 8.092 8.472
1533.538 8.892 9.302 9.712 10.192 10.792 11.542 12.512 13.672 14.942 16.492
1552.827 18.152 19.762 21.182 22.252 22.742 22.602 21.792 20.412 18.722 16.672
1572.117 14.572 12.802 11.482 10.572 9.902 9.322 8.772 8.272 7.732 7.152
1591.407 6.532 5.912 5.382 4.822 4.202 3.702 3.322 3.002 2.702 2.542
1610.697 2.462 2.312 2.182 2.122 2.022 1.912 1.922 1.872 1.802 1.792
1629.986 1.812 1.822 1.862 2.002 2.112 2.242 2.452 2.642 2.922 3.252
1649.276 3.432 3.512 3.572 3.452 3.252 3.052 2.732 2.302 1.932 1.692
1668.566 1.552 1.432 1.3176 1.2544 1.2127 1.1411 1.1386 1.1565 1.1356 1.0922
1687.856 0.9711 0.8787 0.8787 0.9119 0.9048 0.8344 0.8517 0.8345 0.8354 0.9506
1707.146 1.0235 1.0132 1.0176 1.071 1.1422 1.1878 1.1867 1.1652 1.078 1.0473
1726.435 1.0709 1.0084 0.9406 0.9416 0.9196 0.889 0.913 0.8539 0.8313 0.8656
1745.725 0.8337 0.8761 0.9289 0.9339 0.9315 0.9369 0.9599 1.0253 1.1362 1.2337
1765.015 1.3459 1.462 1.532 1.682 1.852 2.002 2.072 2.082 2.082 2.042
1784.305 1.952 1.832 1.662 1.532 1.402 1.2515 1.0983 0.9731 0.9112 0.8949
1803.594 0.8808 0.8163 0.7351 0.6987 0.7209 0.7446 0.7095 0.7238 0.7529 0.7767
1822.884 0.8428 0.8481 0.8634 0.941 1.0463 1.1665 1.2935 1.432 1.672 1.942
1842.174 2.162 2.342 2.462 2.522 2.422 2.242 2.092 1.962 1.762 1.462
1861.464 1.1934 1.05 0.9542 0.8744 0.9013 0.8525 0.7498 0.7723 0.8271 0.8482
1880.754 0.8503 0.897 0.9137 0.9055 0.9938 1.0272 1.0458 1.1268 1.301 1.472
1900.043 1.562 1.732 1.942 2.122 2.302 2.462 2.572 2.642 2.672 2.642
1919.333 2.542 2.402 2.372 2.192 1.872 1.632 1.422 1.2726 1.1665 1.1081
1938.623 1.0046 0.8475 0.777 0.7438 0.7225 0.6881 0.6588 0.6793 0.6665 0.6746
1957.913 0.6739 0.6856 0.6951 0.6437 0.6783 0.7044 0.7221 0.7233 0.6265 0.6806
1977.202 0.774 0.7277 0.6406 0.6353 0.6572 0.6504 0.6914 0.6662 0.6576 0.6473
1996.492 0.6277 0.562 0.525 0.5674 0.5663 0.6003 0.5941 0.5555 0.5604 0.5511
2015.782 0.5665 0.6005 0.6051 0.6509 0.6528 0.6251 0.6576 0.6344 0.6272 0.6253
2035.072 0.6181 0.6432 0.5986 0.5387 0.5333 0.5776 0.5688 0.5167 0.496 0.5039
2054.362 0.5441 0.529 0.47895 0.5075 0.5581 0.5656 0.5631 0.5368 0.5487 0.5655
2073.651 0.5467 0.5457 0.5238 0.5246 0.5371 0.5773 0.598 0.5249 0.4923 0.4984
2092.941 0.5 0.46209 0.41791 0.47568 0.5276 0.5337 0.5008 0.4843 0.5318 0.5512
2112.231 0.5319 0.5711 0.5892 0.556 0.5982 0.6491 0.6426 0.5825 0.5737 0.6023
2131.521 0.5817 0.5769 0.5539 0.5918 0.6566 0.6205 0.6122 0.6163 0.5567 0.5291
2150.810 0.5691 0.6298 0.6364 0.59 0.5333 0.513 0.512 0.5646 0.582 0.5414
2170.100 0.5858 0.6065 0.5594 0.4892 0.5201 0.595 0.548 0.5181 0.5289 0.5561
2189.390 0.6472 0.6664 0.6078 0.603 0.6706 0.6949 0.6929 0.7357 0.7105 0.675
2208.680 0.6612 0.6121 0.5723 0.5865 0.5894 0.5484 0.5515 0.601 0.5961 0.6269
2227.970 0.6882 0.6476 0.5934 0.659 0.7012 0.6214 0.5982 0.6049 0.7002 0.7189
2247.259 0.6232 0.6299 0.6535 0.6426 0.5837 0.524 0.527 0.5466 0.5836 0.6123
2266.549 0.6267 0.6386 0.5754 0.6053 0.5658 0.5111 0.5763 0.5359 0.5777 0.6992
2285.839 0.7268 0.6607 0.6018 0.5968 0.666 0.687 0.6652 0.6487 0.6742 0.7594
2305.129 0.8335 0.8535 0.7497 0.6663 0.5904 0.5185 0.5883 0.6631 0.6571 0.6298
2324.418 0.6606 0.7124 0.7495 0.7817 0.7721 0.7087 0.7158 0.8288 0.8666 0.8652
2343.708 0.8547 0.7527 0.7164 0.7305 0.6704 0.6782 0.6932 0.6244 0.5584 0.6014
2362.998 0.6579 0.6196 0.596 0.6162 0.5942 0.6402 0.7107 0.6884 0.7269 0.7929
2382.288 0.7208 0.7118 0.7542 0.709 0.7756 0.8393 0.8353 0.8181 0.8275 0.8592
2401.578 0.8473 0.8541 0.908 0.9328 0.9416 0.888 0.8508 0.8852 0.8852 0.8976
2420.867 0.8415 0.8132 0.806 0.759 0.8099 0.8225 0.7856 0.7667 0.7836 0.8067
2440.157 0.7458 0.7854 0.8174 0.7694 0.7814 0.804 0.8114 0.8238 0.8578 0.88
2459.447 0.7601 0.6833 0.7651 0.8324 0.8318 0.7958 0.7545 0.7341 0.7442 0.7544
2478.737 0.7542 0.7208 0.7401 0.6971 0.6772 0.8217 0.9162 0.8854 0.8872 0.9207
2498.026 0.9344 0.898 0.8634 0.8701 0.8646 0.8783 0.9113 0.8913 0.8996 0.9798
2517.316 0.9754 0.9226 1.0088 1.0889 0.9915 0.9344 0.9017 0.8547 0.8064 0.8228
2536.606 0.8554 0.8071 0.761 0.8091 0.8811 0.884 0.8658 0.8611 0.9117 0.8895
2555.896 0.844 0.8643 0.8828 0.8808 0.8156 0.7883 0.7791 0.6873 0.6943 0.7872
2575.186 0.7521 0.7019 0.7385 0.7006 0.602 0.6558 0.7595 0.765 0.7591 0.6978
2594.475 0.6117 0.6032 0.5505 0.5481 0.598 0.5954 0.6616 0.7184 0.6845 0.5893
2613.765 0.5659 0.578 0.5699 0.5411 0.6 0.7437 0.692 0.6249 0.7008 0.7547
2633.055 0.8351 0.8725 0.7965 0.7511 0.6986 0.6419 0.6282 0.6576 0.595 0.6011
2652.345 0.6861 0.7056 0.7208 0.7093 0.6719 0.6444 0.6773 0.6494 0.5998 0.617
2671.634 0.6367 0.6617 0.6423 0.6702 0.7723 0.8084 0.7865 0.742 0.7389 0.847
2690.924 0.9137 0.8586 0.8376 0.8325 0.8166 0.8467 0.8372 0.757 0.8633 0.9919
2710.214 0.9414 0.8897 0.8742 0.8473 0.8602 0.9599 0.9986 0.991 1.009 1.1056
2729.504 1.2603 1.402 1.532 1.602 1.642 1.722 1.782 1.862 1.902 1.792
2748.794 1.662 1.562 1.482 1.392 1.2838 1.1562 1.1313 1.2513 1.2718 1.233
2768.083 1.2022 1.2096 1.1924 1.1882 1.2299 1.2074 1.3031 1.2433 1.1009 1.1501
2787.373 1.1889 1.2132 1.2087 1.2286 1.2289 1.2227 1.2603 1.3756 1.532 1.552
2806.663 1.592 1.602 1.502 1.632 1.822 1.882 1.922 1.982 2.092 2.172
2825.953 2.312 2.492 2.632 2.722 2.802 2.912 3.042 3.382 3.642 3.722
2845.242 3.972 4.332 4.632 4.962 5.362 5.762 6.292 6.862 7.452 8.172
2864.532 8.932 9.652 10.322 10.982 11.702 12.212 12.402 12.462 12.362 12.172
2883.822 11.902 11.602 11.352 11.052 10.892 10.922 11.032 11.212 11.442 11.842
2903.112 12.382 12.992 13.782 14.642 15.342 16.182 17.222 18.242 19.302 20.342
2922.401 21.292 22.372 23.572 24.622 25.722 26.872 27.642 28.062 28.312 28.302
2941.691 27.932 27.252 26.442 25.352 24.002 22.922 21.992 21.112 20.412 19.672
2960.981 18.862 17.982 17.302 16.962 16.742 16.662 16.812 17.022 17.322 17.532
2980.271 17.622 17.652 17.382 16.772 16.092 15.312 14.242 13.242 12.512 12.062
2999.561 11.902 11.932 12.082 12.212 12.332 12.442 12.512 12.582 12.472 12.222
3018.850 12.072 11.772 11.412 11.282 11.222 11.122 11.102 11.192 11.392 11.802
3038.140 12.392 12.962 13.622 14.522 15.682 17.142 18.652 20.212 21.932 23.672
3057.430 25.112 25.802 25.922 25.572 24.662 23.452 21.752 19.492 17.002 14.712
3076.720 12.732 11.202 10.162 9.182 8.252 7.642 7.112 6.452 5.922 5.542
3096.009 5.232 5.012 4.712 4.392 4.212 4.062 3.822 3.632 3.602 3.452
3115.299 3.302 3.292 3.082 2.752 2.582 2.522 2.372 2.192 2.072 1.992
3134.589 1.802 1.662 1.662 1.642 1.632 1.542 1.412 1.392 1.343 1.2731
3153.879 1.2749 1.2337 1.1184 1.1357 1.1991 1.1632 1.0504 0.9176 0.9113 1.0628
3173.169 1.0771 0.9777 0.981 0.9093 0.8652 0.767 0.7376 0.898 0.879 0.7263
3192.458 0.7335 0.8322 0.8094 0.6792 0.629 0.6094 0.4964 0.5657 0.6839 0.5458
3211.748 0.5145 0.5811 0.5192 0.5268 0.6549 0.6711 0.6023 0.5256 0.5566 0.5776
3231.038 0.42341 0.40794 0.5391 0.6187 0.5832 0.5347 0.5219 0.5419 0.5631 0.5286
3250.328 0.5448 0.5928 0.4917 0.41014 0.4976 0.4991 0.4956 0.567 0.41031 0.273
3269.617 0.266 0.273 0.3189 0.43677 0.5432 0.47311 0.3971 0.38378 0.39941 0.46097
3288.907 0.4577 0.40544 0.3647 0.229 0.3185 0.45005 0.43157 0.3696 0.278 0.40313
3308.197 0.42769 0.328 0.3421 0.3761 0.39815 0.43326 0.41015 0.3287 0.3381 0.44571
3327.487 0.39345 0.3469 0.42856 0.4636 0.39827 0.42935 0.42279 0.383501 0.39488 0.39729
3346.777 0.43912 0.41031 0.46073 0.45746 0.37537 0.281 0.3708 0.44972 0.272 0.26
3366.066 0.42059 0.4978 0.45319 0.3398 0.2906 0.2893 0.27 0.3507 0.44754 0.42113
3385.356 0.3437 0.2932 0.2835 0.246 0.26 0.238 0.23 0.3692 0.44022 0.3488
3404.646 0.206 0.172 0.293 0.3601 0.3093 0.40197 0.40929 0.179 0.2 0.3427
3423.936 0.3679 0.3623 0.3473 0.3789 0.37922 0.389722 0.3404 0.225 0.347 0.388588
3443.225 0.28 0.37456 0.48098 0.46872 0.41476 0.3434 0.3064 0.40034 0.382287 0.386976
3462.515 0.42365 0.3116 0.384837 0.42482 0.42843 0.44177 0.3134 0.247 0.3404 0.5026
3481.805 0.5795 0.5235 0.45523 0.45419 0.46578 0.45639 0.5684 0.6416 0.5301 0.47093
3501.095 0.37273 0.3035 0.2882 0.268 0.3596 0.39201 0.43524 0.46953 0.39861 0.3041
3520.385 0.249 0.3521 0.3141 0.3176 0.45619 0.43139 0.3073 0.3067 0.282 0.148
3539.674 0.2887 0.4831 0.40416 0.3146 0.3518 0.3264 0.39356 0.39264 0.14 0.165
3558.964 0.3684 0.4133 0.3155 0.3437 0.43676 0.43235 0.3548 0.2901 0.388885 0.46969
3578.254 0.5171 0.42134 0.43137 0.4883 0.3255 0.3171 0.44385 0.41163 0.41688 0.2903
3597.544 0.195 0.246 0.172 0.139 0 0.134 0.3255 0.3412 0.45961 0.385551
3616.833 0.2932 0.256 0.191 0.243 0.242 0.181 0.261 0.383815 0.3373 0.3684
3636.123 0.39297 0.415 0.5034 0.39354 0.3084 0.36 0.44534 0.45184 0.41275 0.5676
3655.413 0.5956 0.386506 0.2988 0.3353 0.3356 0.3233 0.3277 0.40079 0.41762 0.3707
3674.703 0.40444 0.3361 0.387978 0.47139 0.41504 0.3389 0.3036 0.246 0.3051 0.41576
3693.993 0.3364 0.3269 0.43775 0.3636 0.282 0.383469 0.46843 0.3418 0.3312 0.390116
3713.282 0.3206 0.3539 0.43758 0.43776 0.345 0.3509 0.2847 0.3421 0.3394 0.253
3732.572 0.157 0.149 0.2982 0.3034 0.2879 0.165 0.218 0.48007 0.40369 0.3483
3751.862 0.47587 0.41801 0.247 0.078 0.263 0.506 0.427 0.37945 0.42537 0.3233
3771.152 0.265 0.279 0.3142 0.41627 0.44425 0.41785 0.43482 0.5491 0.5578 0.5538
3790.441 0.5299 0.41408 0.41414 0.381723 0.40385 0.47134 0.4692 0.6374 0.7978 0.5818
3809.731 0.5177 0.4785 0.40762 0.4956 0.5604 0.6528 0.6869 0.665 0.5788 0.5355
3829.021 0.46816 0.5354 0.675 0.6885 0.5588 0.47408 0.45089 0.599 0.7024 0.592
3848.311 0.5666 0.6099 0.6699 0.7107 0.6535 0.5994 0.6772 0.5162 0.43429 0.5523
3867.601 0.7374 0.7789 0.7233 0.7966 0.8676 0.8265 0.7847 0.8041 0.8811 0.9275
3886.890 0.9039 0.9786 1.0572 1.078 0.9694 0.8002 0.7626 0.9075 0.9519 0.7913
3906.180 0.6635 0.7244 0.6554 0.6147 0.7652 0.7416 0.5741 0.43323 0.4948 0.6111
3925.470 0.7193 0.6967 0.6173 0.5807 0.44906 0.46726 0.5819 0.7269 0.6597 0.5881
3944.760 0.692 0.6152 0.5518 0.5776 0.5778 0.5136 0.46928 0.5064 0.546 0.5033
3964.049 0.5246 0.635 0.6809 0.6438 0.5862 0.6571 0.5743 0.5535 0.599 0.5462
3983.339 0.5073 0.5361 0.6451 0.6074 0.385257 0.39663 0.5977 0.4924 0.3518 0.46566
##END=
