##TITLE=4-(p-Hydroxyphenyl)-3-buten-2-one
##JCAMP-DX=4.24
##DATA TYPE=INFRARED SPECTRUM
##ORIGIN=EPA-IR VAPOR PHASE LIBRARY
##OWNER=SRD/NIST
Collection (C) 2018 copyright by the U.S. Secretary of Commerce
on behalf of the United States of America. All rights reserved.
##CAS REGISTRY NO=3160-35-8
##MOLFORM=C 10 H 10 O 2
##$NIST SOURCE=MSDC-IR
##STATE=gas
##XUNITS=1/CM
##YUNITS=ABSORBANCE
##XFACTOR=1.
##YFACTOR=0.001
##DELTAX=1.92898
##FIRSTX=549.8
##LASTX=4000.7
##FIRSTY=1.658
##MAXX=4000.7
##MINX=549.759
##MAXY=0.044438
##MINY=0
##NPOINTS=1790
##XYDATA=(X++(Y..Y))
549.759 1.658 1.528 1.378 1.218 1.118 1.0481 1.118 1.418 1.468 1.478
569.049 1.378 1.298 1.408 1.408 1.368 1.0407 0.8984 0.9472 0.8637 0.926
588.339 0.9973 1.178 1.408 1.428 1.598 1.808 1.798 1.868 2.148 2.148
607.628 2.008 1.728 1.398 1.228 1.0545 0.8011 0.7642 0.9022 0.8808 0.6707
626.918 0.5335 0.5367 0.5129 0.5059 0.6278 0.6716 0.7856 1.168 0.9887 0.8207
646.208 0.9827 0.7686 0.5884 0.5023 0.5586 0.7325 0.7493 0.6025 0.489 0.6061
665.498 0.6072 0.5217 0.4639 0.4789 0.5649 0.4397 0.2855 0.34 0.4734 0.4727
684.787 0.571 0.6332 0.458 0.3379 0.3462 0.3931 0.3731 0.4018 0.4609 0.4165
704.077 0.3891 0.446 0.4558 0.5052 0.4321 0.3849 0.4216 0.3671 0.517 0.6398
723.367 0.634 0.5891 0.5775 0.5821 0.6756 0.7592 0.4991 0.5202 0.6722 0.6362
742.657 0.6601 0.6816 0.6145 0.5389 0.6104 0.5381 0.5682 0.6296 0.618 0.7243
761.947 0.7538 0.8086 0.8374 1.0224 1.218 1.338 1.658 1.928 2.248 2.588
781.236 2.768 2.948 3.028 2.928 2.988 3.148 3.368 3.488 3.668 3.948
800.526 4.058 4.408 4.858 4.948 4.998 5.028 5.118 5.288 5.048 4.708
819.816 4.318 4.018 3.638 3.308 3.068 2.718 2.668 2.628 2.568 2.608
839.106 2.858 3.228 3.268 3.218 3.198 3.228 3.208 3.038 2.828 2.548
858.395 2.328 2.088 1.938 1.918 1.728 1.598 1.548 1.288 1.218 1.328
877.685 1.188 1.0909 1.0988 1.0699 1.128 1.298 1.418 1.678 1.808 1.778
896.975 1.898 1.898 1.968 2.228 2.418 2.388 2.278 2.028 1.728 1.808
916.265 1.728 1.388 1.368 1.438 1.398 1.408 1.518 1.618 1.688 1.638
935.555 1.688 1.808 1.938 2.088 1.908 1.928 2.258 2.518 2.818 3.228
954.844 3.608 3.998 4.608 5.208 5.738 6.248 6.488 6.668 6.858 6.858
974.134 6.668 6.208 5.718 5.448 5.108 4.598 4.128 3.898 3.658 3.408
993.424 3.178 2.978 3.058 3.208 3.248 3.148 3.068 2.838 2.408 2.238
1012.714 2.118 1.918 1.878 1.798 1.688 1.518 1.278 1.388 1.648 1.578
1032.003 1.658 1.628 1.468 1.498 1.608 1.768 1.608 1.418 1.438 1.588
1051.293 1.728 1.768 1.778 1.698 1.738 1.628 1.228 0.9765 1.0535 1.538
1070.583 1.698 1.458 1.168 1.318 1.808 1.848 1.858 2.138 2.418 2.678
1089.873 3.288 3.488 3.398 3.368 3.288 3.458 3.848 3.888 3.818 3.858
1109.163 3.568 3.358 3.218 3.008 3.138 3.308 3.358 3.568 3.668 4.028
1128.452 4.458 4.378 4.288 4.908 5.248 5.318 5.878 6.328 6.678 7.148
1147.742 7.928 9.128 10.708 12.758 15.818 19.728 24.428 30.218 36.748 42.048
1167.032 44.298 44.438 43.378 40.708 35.598 28.868 22.908 19.198 17.218 15.718
1186.322 14.148 12.688 11.728 11.518 11.398 11.348 11.488 11.098 10.558 10.138
1205.611 9.648 9.088 8.428 7.788 7.188 6.608 6.408 6.278 6.138 6.078
1224.901 6.238 6.558 7.168 8.148 9.068 10.678 12.808 15.028 17.798 20.568
1244.191 22.588 23.578 23.648 23.208 22.168 20.408 18.588 17.518 17.088 17.048
1263.481 16.718 15.748 14.508 12.948 10.898 8.708 7.028 6.008 5.438 5.168
1282.771 5.038 4.678 4.318 4.188 4.128 4.148 4.178 4.288 4.418 4.598
1302.060 4.738 4.858 5.078 5.208 5.278 5.408 5.598 5.838 6.138 6.588
1321.350 7.068 7.418 7.618 7.688 7.558 7.288 6.998 6.708 6.368 5.938
1340.640 5.598 5.398 5.308 5.208 5.178 5.408 5.838 6.358 6.878 7.308
1359.930 7.608 7.688 7.518 7.098 6.518 5.898 5.248 4.618 4.098 3.638
1379.219 3.328 3.078 2.818 2.588 2.418 2.328 2.228 2.068 1.928 1.908
1398.509 1.908 1.938 1.948 1.958 2.018 2.178 2.368 2.598 2.868 3.198
1417.799 3.568 3.948 4.428 4.938 5.408 5.858 6.188 6.258 6.058 5.658
1437.089 5.098 4.448 3.708 2.938 2.398 2.028 1.798 1.628 1.478 1.368
1456.378 1.218 1.198 1.208 1.138 1.118 1.128 1.0748 1.029 1.0259 1.0545
1475.668 1.0979 1.128 1.208 1.348 1.508 1.678 1.878 2.138 2.508 3.078
1494.958 3.888 4.938 6.468 8.568 11.158 14.028 17.168 19.988 21.788 22.418
1514.248 21.688 19.838 17.058 13.778 10.288 7.498 5.508 4.298 3.538 3.038
1533.538 2.638 2.318 2.218 2.078 1.888 1.828 1.818 1.888 1.888 1.928
1552.827 1.978 1.938 1.868 1.858 2.028 2.198 2.318 2.518 2.738 3.058
1572.117 3.588 4.158 4.878 5.888 7.158 8.538 9.888 11.218 12.458 13.568
1591.407 14.628 15.778 16.968 18.348 20.048 22.008 24.058 25.728 26.638 26.798
1610.697 26.138 24.668 22.718 20.528 18.468 16.748 15.188 13.808 12.648 11.528
1629.986 10.338 9.058 7.738 6.408 5.328 4.558 4.048 3.668 3.358 3.128
1649.276 2.998 2.898 2.808 2.898 2.988 3.028 3.148 3.318 3.568 3.838
1668.566 4.308 4.918 5.578 6.448 7.668 9.138 11.038 13.168 15.358 17.358
1687.856 18.578 19.208 19.478 19.088 17.728 16.128 14.858 14.038 13.618 13.148
1707.146 12.528 11.848 11.198 10.468 9.528 8.328 7.138 6.158 5.328 4.588
1726.435 3.978 3.518 3.108 2.698 2.378 2.188 2.018 1.868 1.798 1.698
1745.725 1.548 1.418 1.318 1.248 1.198 1.118 1.0584 0.9593 0.8706 0.8841
1765.015 0.9005 0.8543 0.8655 0.8868 0.8375 0.8488 0.8483 0.8361 0.8484 0.8035
1784.305 0.792 0.8515 0.8323 0.802 0.8393 0.8471 0.7906 0.785 0.7893 0.7308
1803.594 0.7162 0.7477 0.7555 0.7393 0.7443 0.7587 0.7576 0.7427 0.7186 0.6782
1822.884 0.6318 0.5926 0.5529 0.5406 0.5586 0.5256 0.5203 0.5253 0.4409 0.4599
1842.174 0.4849 0.4441 0.4429 0.4209 0.4737 0.5037 0.5134 0.5522 0.5441 0.5295
1861.464 0.5583 0.6289 0.6331 0.6222 0.6327 0.6231 0.655 0.7094 0.7142 0.6761
1880.754 0.6885 0.7159 0.6828 0.6464 0.6154 0.5907 0.5779 0.5376 0.5087 0.508
1900.043 0.5083 0.5222 0.511 0.4585 0.4586 0.4445 0.431 0.4866 0.4685 0.3907
1919.333 0.3848 0.388 0.3719 0.3948 0.3986 0.3932 0.449 0.4375 0.4013 0.386
1938.623 0.3772 0.3891 0.3445 0.3308 0.3527 0.4279 0.443 0.4063 0.4054 0.3865
1957.913 0.3388 0.3629 0.3645 0.3138 0.3301 0.3694 0.3991 0.3854 0.3746 0.368
1977.202 0.2991 0.3011 0.3514 0.2958 0.2617 0.3134 0.3053 0.3118 0.336 0.3478
1996.492 0.3693 0.3309 0.307 0.2831 0.2744 0.3255 0.3898 0.4224 0.4353 0.4291
2015.782 0.4214 0.4553 0.4768 0.4916 0.4949 0.4873 0.4682 0.4271 0.4575 0.4594
2035.072 0.394 0.4024 0.4414 0.4097 0.4055 0.4275 0.4419 0.4464 0.4241 0.3915
2054.362 0.3826 0.4252 0.4108 0.3743 0.376 0.3417 0.3107 0.3254 0.3452 0.346
2073.651 0.2917 0.3163 0.376 0.3695 0.3758 0.3474 0.3071 0.3002 0.3227 0.3213
2092.941 0.3494 0.3721 0.3196 0.329 0.37 0.3643 0.3501 0.3814 0.4236 0.3896
2112.231 0.3538 0.3516 0.3142 0.249 0.24 0.2926 0.3268 0.3237 0.2807 0.2251
2131.521 0.2642 0.3145 0.2787 0.2465 0.2252 0.15645 0.14298 0.20274 0.2488 0.2464
2150.810 0.2766 0.2653 0.20008 0.2147 0.2108 0.20604 0.2312 0.2546 0.2254 0.19522
2170.100 0.2099 0.231 0.2278 0.18889 0.18825 0.19379 0.1894 0.2483 0.2204 0.16809
2189.390 0.20438 0.20036 0.17607 0.15257 0.1675 0.1965 0.17541 0.18166 0.19041 0.2304
2208.680 0.2525 0.2284 0.2184 0.2148 0.20778 0.18053 0.2146 0.2641 0.2576 0.227
2227.970 0.21 0.2345 0.2439 0.16972 0.14367 0.19597 0.2054 0.2213 0.2228 0.17701
2247.259 0.16723 0.15738 0.18789 0.234 0.2323 0.2255 0.18809 0.17991 0.20686 0.2225
2266.549 0.2637 0.297 0.3139 0.3065 0.2951 0.2992 0.3034 0.2158 0.20081 0.2435
2285.839 0.2094 0.20303 0.2173 0.2723 0.2759 0.2501 0.2313 0.2455 0.293 0.2074
2305.129 0.13952 0.2236 0.259 0.2303 0.2609 0.2659 0.2478 0.2792 0.2663 0.2379
2324.418 0.2306 0.2273 0.2746 0.253 0.17262 0.2127 0.2422 0.2629 0.2828 0.2786
2343.708 0.2815 0.2739 0.2874 0.2126 0.15243 0.2274 0.2437 0.19342 0.2181 0.2579
2362.998 0.2231 0.20674 0.2707 0.2797 0.2431 0.2372 0.16569 0.12656 0.17563 0.2128
2382.288 0.2622 0.274 0.2641 0.2697 0.276 0.2502 0.2504 0.3096 0.3077 0.21
2401.578 0.19122 0.2429 0.2721 0.2895 0.2736 0.2865 0.3265 0.352 0.4084 0.4397
2420.867 0.4344 0.4872 0.5216 0.5139 0.567 0.5847 0.5488 0.5054 0.4827 0.4648
2440.157 0.4287 0.48 0.4726 0.4265 0.4087 0.3791 0.3612 0.3758 0.3503 0.3314
2459.447 0.3619 0.3435 0.3186 0.2918 0.2639 0.29 0.3151 0.2906 0.2987 0.2916
2478.737 0.2841 0.2888 0.2526 0.2608 0.3162 0.3299 0.3823 0.4251 0.3915 0.3474
2498.026 0.2975 0.3039 0.3485 0.3288 0.3048 0.3738 0.4097 0.3523 0.2986 0.3335
2517.316 0.4013 0.4113 0.3955 0.4338 0.4331 0.399 0.4028 0.3846 0.3657 0.3556
2536.606 0.3452 0.3098 0.3143 0.2798 0.19008 0.2088 0.19114 0.18898 0.19738 0.13062
2555.896 0.1606 0.2244 0.254 0.19987 0.15714 0.2335 0.3091 0.2363 0.18164 0.2605
2575.186 0.2583 0.20685 0.19343 0.2168 0.16861 0.11978 0.13695 0.2087 0.3403 0.3055
2594.475 0.18666 0.20644 0.2887 0.2887 0.2472 0.20319 0.2411 0.2813 0.2379 0.18908
2613.765 0.19062 0.2584 0.2153 0.2547 0.2927 0.2578 0.2342 0.20237 0.18799 0.17346
2633.055 0.16393 0.15135 0.2345 0.2576 0.2227 0.19592 0.208 0.2153 0.116383 0.13324
2652.345 0.19897 0.12081 0.0947 0.16446 0.16525 0.2087 0.2337 0.17284 0.20377 0.19868
2671.634 0.1596 0.2173 0.2443 0.20412 0.17996 0.17756 0.19644 0.15654 0.14967 0.1533
2690.924 0.13056 0.0818 0.0738 0.108238 0.0823 0.0807 0.1041 0.10007 0.0945 0.109083
2710.214 0.12093 0.17782 0.2104 0.19493 0.1299 0.13066 0.15904 0.14759 0.16271 0.108098
2729.504 0.0384 0 0.0314 0.10099 0.12024 0.15093 0.0669 0.0201 0.09981 0.13786
2748.794 0.16269 0.14574 0.0951 0.0656 0.0822 0.17511 0.19579 0.16348 0.2541 0.307
2768.083 0.2574 0.2121 0.17544 0.19083 0.2189 0.2371 0.283 0.2245 0.16413 0.18165
2787.373 0.17519 0.16064 0.18318 0.2091 0.15141 0.09861 0.12581 0.13004 0.13527 0.15674
2806.663 0.17347 0.16874 0.15315 0.13362 0.13036 0.168 0.18516 0.2105 0.2308 0.2378
2825.953 0.2108 0.2304 0.2556 0.17405 0.14947 0.1524 0.16691 0.2653 0.2401 0.14019
2845.242 0.2138 0.2341 0.20349 0.19769 0.18122 0.2383 0.2903 0.2903 0.2581 0.2749
2864.532 0.2805 0.274 0.2592 0.2431 0.267 0.2917 0.3479 0.3374 0.2842 0.2483
2883.822 0.2541 0.3704 0.4284 0.425 0.4644 0.4485 0.4639 0.4996 0.5275 0.5583
2903.112 0.4843 0.4926 0.5495 0.5198 0.5413 0.5902 0.6304 0.6497 0.6189 0.7484
2922.401 0.8099 0.7477 0.7503 0.6712 0.7305 0.7528 0.6652 0.6637 0.6767 0.7304
2941.691 0.6855 0.7158 0.7831 0.7376 0.6994 0.6517 0.7006 0.6817 0.6175 0.6389
2960.981 0.6154 0.6281 0.6591 0.6837 0.7158 0.7521 0.7834 0.7661 0.7229 0.693
2980.271 0.7122 0.7208 0.732 0.7592 0.7388 0.8063 0.9285 1.0212 1.138 1.288
2999.561 1.358 1.528 1.838 2.068 2.258 2.448 2.658 2.748 2.878 2.968
3018.850 2.978 2.978 2.928 2.948 3.078 3.238 3.488 3.788 4.068 4.278
3038.140 4.288 4.228 4.148 3.918 3.688 3.378 3.108 2.878 2.648 2.418
3057.430 2.258 2.198 2.158 2.088 1.938 1.888 1.908 1.908 1.738 1.598
3076.720 1.538 1.528 1.418 1.218 1.168 1.128 1.0888 1.0102 0.9775 0.9493
3096.009 0.9251 0.9393 0.8139 0.674 0.6905 0.7622 0.7475 0.6857 0.718 0.658
3115.299 0.5102 0.4736 0.4654 0.5608 0.6279 0.5686 0.4427 0.4211 0.438 0.3891
3134.589 0.3627 0.3575 0.2982 0.2641 0.3444 0.3086 0.2403 0.2792 0.2873 0.17942
3153.879 0.11814 0.19854 0.2573 0.22 0.2244 0.2818 0.3324 0.3255 0.2253 0.2447
3173.169 0.2115 0.16241 0.13929 0.0127 0.0388 0.1381 0.17573 0.2387 0.2369 0.2726
3192.458 0.3144 0.3137 0.321 0.2336 0.16432 0.2363 0.3135 0.3014 0.2707 0.3076
3211.748 0.3567 0.3216 0.3354 0.3459 0.2781 0.2133 0.15868 0.14769 0.2137 0.2586
3231.038 0.2806 0.3287 0.3234 0.264 0.2736 0.2481 0.19907 0.2356 0.2523 0.2575
3250.328 0.2205 0.20281 0.2504 0.2244 0.17716 0.17814 0.2507 0.2492 0.17576 0.14793
3269.617 0.19618 0.2184 0.115947 0.095 0.16549 0.2376 0.20597 0.2215 0.3587 0.3573
3288.907 0.2495 0.2439 0.2836 0.3575 0.388 0.3009 0.3009 0.3069 0.3008 0.3011
3308.197 0.3547 0.3604 0.3289 0.2943 0.18383 0.2572 0.3054 0.267 0.18916 0.2866
3327.487 0.3829 0.2805 0.3662 0.4231 0.3679 0.4198 0.5168 0.4783 0.4587 0.5488
3346.777 0.535 0.4371 0.4028 0.4439 0.5432 0.6193 0.6088 0.5928 0.6186 0.6906
3366.066 0.6226 0.4425 0.5938 0.6213 0.4272 0.4158 0.4063 0.4216 0.457 0.5119
3385.356 0.5196 0.4534 0.4554 0.4273 0.4067 0.4311 0.4284 0.463 0.4858 0.5402
3404.646 0.5365 0.5287 0.6031 0.5176 0.4519 0.3397 0.2471 0.4372 0.504 0.4362
3423.936 0.3157 0.2297 0.14163 0.17789 0.3565 0.368 0.4326 0.3886 0.3034 0.2847
3443.225 0.3129 0.3581 0.2685 0.2446 0.2838 0.3127 0.3121 0.3098 0.2246 0.2586
3462.515 0.3183 0.2361 0.2134 0.278 0.3716 0.4056 0.3507 0.17689 0.232 0.3356
3481.805 0.2248 0.282 0.3842 0.3201 0.2984 0.3922 0.3984 0.4141 0.4455 0.2787
3501.095 0.2783 0.3803 0.3085 0.2987 0.3394 0.3205 0.2458 0.2476 0.2917 0.213
3520.385 0.18804 0.2663 0.3721 0.4193 0.3995 0.3529 0.2811 0.2513 0.2305 0.2225
3539.674 0.2697 0.325 0.2837 0.3207 0.2968 0.20634 0.2385 0.29 0.3317 0.3134
3558.964 0.3704 0.3715 0.332 0.3691 0.3934 0.3284 0.2985 0.3364 0.4714 0.5072
3578.254 0.3099 0.2171 0.36 0.476 0.4356 0.3799 0.3039 0.2779 0.389 0.3872
3597.544 0.3213 0.3554 0.3534 0.4586 0.4918 0.3688 0.4238 0.4454 0.4775 0.6386
3616.833 0.7294 0.8477 0.9405 0.9453 1.0057 1.258 1.678 2.148 2.748 3.648
3636.123 4.688 6.268 8.198 10.398 13.038 15.058 15.788 15.278 14.228 12.898
3655.413 10.758 7.828 5.078 3.328 2.328 1.718 1.418 1.168 0.915 0.7723
3674.703 0.6305 0.5604 0.5186 0.4663 0.4843 0.4373 0.3348 0.1764 0.15742 0.2409
3693.993 0.3265 0.3094 0.2471 0.3252 0.2351 0.20783 0.3361 0.4021 0.3727 0.2519
3713.282 0.254 0.2932 0.2881 0.389 0.3916 0.2279 0.111704 0.10406 0.13969 0.17648
3732.572 0.2839 0.18791 0.15663 0.2741 0.3442 0.3892 0.2562 0.2991 0.2419 0.0694
3751.862 0.0783 0.12116 0.2331 0.20611 0.19573 0.19424 0.16901 0.17754 0.228 0.2889
3771.152 0.2104 0.15316 0.20464 0.3289 0.3337 0.3012 0.3266 0.248 0.17788 0.2252
3790.441 0.2231 0.2608 0.2827 0.20144 0.17331 0.2155 0.2935 0.3759 0.3625 0.3198
3809.731 0.37 0.3646 0.4157 0.2904 0.3068 0.4227 0.3993 0.3562 0.3409 0.4101
3829.021 0.3356 0.2706 0.2478 0.19473 0.0625 0.0744 0.1891 0.19486 0.17603 0.216
3848.311 0.13374 0.097 0.13788 0.16163 0.4004 0.4856 0.3513 0.3143 0.2204 0.16994
3867.601 0.2487 0.2308 0.3689 0.4437 0.4433 0.5065 0.4231 0.301 0.2955 0.3663
3886.890 0.4183 0.4771 0.4243 0.3645 0.4163 0.4046 0.3143 0.2941 0.267 0.3335
3906.180 0.3734 0.3565 0.4442 0.3872 0.2843 0.3583 0.3582 0.3011 0.3065 0.3085
3925.470 0.3115 0.2202 0.2782 0.3487 0.34 0.2867 0.18258 0.2821 0.3037 0.2544
3944.760 0.3511 0.4185 0.3237 0.2798 0.3041 0.3036 0.2858 0.19383 0.2269 0.2904
3964.049 0.2918 0.2974 0.3642 0.3943 0.3957 0.3095 0.116008 0.2895 0.3795 0.3402
3983.339 0.3209 0.3017 0.2787 0.114857 0.2423 0.4704 0.4279 0.2418 0.19692 0.2217
##END=
