##TITLE=3',4'-Methylenedioxyacetophenone
##JCAMP-DX=4.24
##DATA TYPE=INFRARED SPECTRUM
##ORIGIN=EPA-IR VAPOR PHASE LIBRARY
##OWNER=SRD/NIST
Collection (C) 2018 copyright by the U.S. Secretary of Commerce
on behalf of the United States of America. All rights reserved.
##CAS REGISTRY NO=3162-29-6
##MOLFORM=C 9 H 8 O 3
##$NIST SOURCE=MSDC-IR
##STATE=gas
##XUNITS=1/CM
##YUNITS=ABSORBANCE
##XFACTOR=1.
##YFACTOR=0.001
##DELTAX=1.92898
##FIRSTX=549.8
##LASTX=4000.7
##FIRSTY=16.9
##MAXX=4000.7
##MINX=549.759
##MAXY=0.45736
##MINY=0
##NPOINTS=1790
##XYDATA=(X++(Y..Y))
549.759 16.9 21 24.65 28.03 31.1 33.42 34.73 34.28 32.26 29.3
569.049 26.04 22.74 19.14 15.78 12.79 10.25 8.47 7.07 5.92 5.42
588.339 5.27 5.66 6.6 8.12 9.46 9.7 10.18 10.99 11.96 12.78
607.628 12.57 11.72 10.82 10.46 10.49 10.45 10.34 10.34 10.51 10.56
626.918 10.94 11.71 12.58 13.73 14.62 14.93 14.6 13.59 12.53 11.44
646.208 10.15 8.96 7.99 6.94 6.04 5.16 4.22 3.54 2.86 2.44
665.498 2.22 1.81 1.5 1.62 1.51 1.4 1.58 1.55 1.48 1.41
684.787 1.36 1.39 1.42 1.48 1.62 1.8 2.19 2.84 3.53 3.85
704.077 4.09 4.38 4.42 4.55 4.55 3.85 3.32 3.2 3.12 3.31
723.367 3.55 3.48 3.52 3.25 2.84 2.73 2.53 2.29 1.94 1.68
742.657 1.7 1.6 1.46 1.47 1.37 1.47 1.46 1.4 1.43 1.55
761.947 1.65 1.65 1.63 1.73 1.92 2.15 2.4 2.88 3.45 3.99
781.236 4.89 6.35 8.1 10.35 13.39 16.91 21.05 25.71 30.33 35.01
800.526 40.03 45.57 50.2 50.07 47.22 45.53 44.1 42.32 40.54 39.4
819.816 38.68 36.89 33.55 30.14 27.64 25.54 23.33 21.04 18.99 16.88
839.106 14.93 13.51 12.67 12.02 11.62 11.75 12.19 12.56 12.88 13.83
858.395 15 15.19 14.38 13.8 13.8 14.37 15.25 16.32 17.95 20.15
877.685 22.88 26.19 29.5 31.89 32.96 32.88 33.02 33.57 32.84 30.36
896.975 27.01 23.65 20.85 18.63 16.73 14.88 13.43 12.7 12.65 13.05
916.265 13.83 15.07 16.54 18.63 21.14 23.76 26.86 30.31 34.21 38.34
935.555 42.44 46.36 49.79 52.89 55.24 56.69 57.65 58.24 57.72 55.69
954.844 52.6 48.91 45.44 41.58 37.37 33.44 29.66 26.35 23.51 21.08
974.134 18.86 16.6 14.68 13.13 11.93 11.15 10.45 9.96 9.62 9.55
993.424 9.66 9.85 10.16 10.3 10.79 11.62 12.59 13.71 14.83 16.25
1012.714 17.89 19.72 22.11 25.27 28.8 32.83 37.61 43 49.9 57.92
1032.003 67.29 77.55 87.62 98.04 107.92 116.12 122.05 126.01 128.03 127.6
1051.293 124.31 118.76 111.71 103.96 96.11 87.67 78.87 70.08 61.5 53.65
1070.583 46.21 39.59 34.26 29.98 26.9 24.88 23.91 23.51 23.82 25.18
1089.873 26.55 29.52 34.09 38.45 43.54 48.33 51.74 54.59 57.47 59.31
1109.163 59.31 57.87 55.68 52.41 48.49 44.76 40.65 37.2 33.83 30.58
1128.452 27.99 25.59 23.71 22.16 20.69 20.43 21.27 21.84 22.84 23.56
1147.742 23.7 24.1 24.58 24.36 23.03 20.93 18.69 16.39 13.87 11.48
1167.032 9.92 8.81 8.19 7.85 7.54 7.28 6.82 6.68 6.69 6.88
1186.322 7.22 7.58 7.95 8.54 9.26 10.08 11.33 12.74 14.1 16.21
1205.611 18.94 21.91 25.25 29.03 33.17 37.43 41.56 45.33 49.22 53.62
1224.901 58.18 63.57 71.28 81.51 95.38 115.37 142.39 177.61 221.3 271.36
1244.191 324.54 375.43 417.93 446.12 457.36 453.19 434.65 402.91 360.68 314.1
1263.481 272.33 242.71 226.7 220.31 216.93 211.06 201 186.32 167.32 145.35
1282.771 120.34 94.05 71.66 55.39 44.22 36.49 30.88 26.62 23.28 20.87
1302.060 19 17.45 16.37 15.75 15.55 15.59 16.05 16.95 18.18 19.9
1321.350 22.25 25.28 29.15 33.94 39.69 46.09 52.41 57.98 62.59 66.25
1340.640 69.31 72.14 74.34 75.66 76.54 77.97 80.85 85.49 91.07 95.99
1359.930 98.65 98.12 94.84 89.67 83.02 74.91 65 53.83 43.21 34.71
1379.219 28.64 24.68 22.02 20.36 19.39 18.94 18.9 19.22 19.84 20.73
1398.509 21.94 23.6 25.77 28.44 31.74 35.86 41.02 47.49 55.43 64.86
1417.799 75.58 87.91 100.9 114.2 127.79 140.33 151.36 160.05 165.77 168.33
1437.089 168.21 165.89 160.82 152.92 142.68 131.04 118.8 106.71 94.45 82.73
1456.378 71.7 61.92 54.31 48.57 45.23 44.45 46.71 52.28 62.13 77.04
1475.668 96.63 120.53 144.91 165.45 178.16 183.15 182.71 177.75 166.67 147.78
1494.958 122.62 97.9 80.97 71.95 67.45 63.37 58.21 53.76 50.43 47.3
1514.248 43.05 36.57 29.44 23.59 19.29 16.72 14.95 13.75 12.88 12.19
1533.538 11.67 11.16 10.77 10.29 9.84 9.48 9.17 8.93 8.58 8.25
1552.827 8.03 7.82 7.62 7.34 7.3 7.52 7.68 7.8 8.04 8.42
1572.117 8.93 9.48 10.16 11.13 12.36 13.84 15.69 17.85 20.35 23.21
1591.407 26.11 28.94 31.65 34.13 36.28 38.08 39.7 41.4 42.89 43.94
1610.697 44.37 44.15 43.44 42.31 40.73 38.55 35.79 32.58 29.16 25.89
1629.986 23.06 20.75 19.02 17.61 16.62 15.97 15.5 15.2 15.07 15.1
1649.276 15.38 15.63 15.77 16.01 16.39 16.8 17.17 17.46 17.96 18.58
1668.566 19.55 21.01 23.14 25.93 29.91 35.12 42.2 51.18 63.13 78.53
1687.856 96.57 117.87 140.78 162.36 180.78 194.21 200.61 202.44 198.61 187.55
1707.146 169.44 144.8 116.22 89.2 67.2 50.89 38.98 30.71 24.67 20.28
1726.435 17.27 15.16 13.86 13.1 12.7 12.61 12.69 12.94 13.27 13.57
1745.725 13.86 14.02 13.97 13.58 13.05 12.44 11.74 11.12 10.49 9.86
1765.015 9.31 8.73 8.31 7.97 7.59 7.26 6.87 6.52 6.25 5.92
1784.305 5.44 5.06 4.86 4.6 4.33 4.25 4.2 4.1 3.95 3.81
1803.594 3.79 3.82 3.84 3.74 3.76 3.9 3.97 4.05 4.23 4.47
1822.884 4.75 5.01 5.3 5.53 5.71 5.79 5.86 5.92 5.85 5.78
1842.174 5.67 5.53 5.35 5.11 4.92 4.78 4.65 4.58 4.6 4.63
1861.464 4.66 4.66 4.81 4.91 4.95 5.09 5.15 5.21 5.29 5.29
1880.754 5.32 5.34 5.18 4.98 4.71 4.37 4.05 3.74 3.42 3.18
1900.043 2.91 2.65 2.47 2.29 2.17 2.1 2.04 1.99 2.02 2.1
1919.333 2.16 2.15 2.13 2.19 2.25 2.34 2.41 2.29 2.23 2.25
1938.623 2.17 2.18 2.24 2.28 2.28 2.23 2.25 2.29 2.3 2.28
1957.913 2.25 2.22 2.24 2.23 2.23 2.29 2.36 2.44 2.5 2.5
1977.202 2.59 2.74 2.75 2.76 2.84 2.92 2.99 3.02 3.11 3.13
1996.492 3.11 3.14 3.13 3.14 3.12 2.98 2.86 2.76 2.62 2.56
2015.782 2.55 2.62 2.72 2.75 2.75 2.81 2.95 3.08 3.24 3.41
2035.072 3.51 3.7 3.79 3.84 3.98 4.04 3.99 3.91 3.86 3.68
2054.362 3.51 3.39 3.23 3.06 2.96 2.85 2.73 2.68 2.65 2.65
2073.651 2.61 2.54 2.5 2.47 2.45 2.4 2.34 2.34 2.35 2.23
2092.941 2.16 2.1 1.94 1.81 1.73 1.66 1.55 1.48 1.45 1.34
2112.231 1.29 1.31 1.24 1.18 1.22 1.23 1.13 1.11 1.14 1.15
2131.521 1.15 1.0827 1.0205 1.0784 1.0903 1.082 1.0483 1.0142 1.12 1.17
2150.810 1.2 1.18 1.15 1.2 1.2 1.19 1.2 1.2 1.16 1.14
2170.100 1.11 1.0972 1.13 1.12 1.0566 0.976 1.0395 1.0344 1.0375 1.1081
2189.390 1.0929 1.0847 1.0959 1.16 1.21 1.22 1.22 1.19 1.2 1.23
2208.680 1.26 1.3 1.35 1.36 1.34 1.3 1.27 1.35 1.45 1.47
2227.970 1.53 1.56 1.53 1.57 1.65 1.66 1.67 1.77 1.77 1.76
2247.259 1.82 1.81 1.81 1.82 1.81 1.82 1.85 1.81 1.8 1.8
2266.549 1.81 1.77 1.78 1.81 1.82 1.86 1.92 1.98 2.06 2.12
2285.839 2.15 2.18 2.22 2.27 2.37 2.4 2.39 2.38 2.39 2.26
2305.129 2.13 2.2 2.25 2.18 2.12 2.11 1.97 1.93 1.91 1.81
2324.418 1.78 1.68 1.59 1.54 1.45 1.38 1.35 1.24 1.16 1.2
2343.708 1.21 1.19 1.17 1.12 1.0689 0.9844 0.9912 1.0082 1.028 1.0767
2362.998 1.0889 1.15 1.19 1.15 1.0956 1.1098 1.0892 1.0826 1.16 1.19
2382.288 1.18 1.12 1.0802 1.0495 1.011 0.9572 0.9248 0.9649 0.9495 0.9609
2401.578 0.9862 0.9614 0.9792 0.9243 0.9198 0.9347 0.9437 0.9916 0.9917 1.0523
2420.867 1.0173 0.9364 0.9919 1.0314 1.0358 1.04 1.0644 1.15 1.21 1.24
2440.157 1.23 1.2 1.27 1.28 1.21 1.2 1.19 1.13 1.16 1.21
2459.447 1.18 1.21 1.18 1.17 1.21 1.31 1.42 1.38 1.38 1.46
2478.737 1.6 1.83 1.95 2.05 2.12 2.15 2.32 2.33 2.29 2.3
2498.026 2.24 2.2 2.16 2.14 2.16 2.15 2.08 2.02 1.98 1.93
2517.316 1.85 1.79 1.75 1.7 1.63 1.64 1.67 1.66 1.64 1.64
2536.606 1.69 1.73 1.73 1.83 1.81 1.74 1.81 1.83 1.83 1.82
2555.896 1.93 2.01 2.07 2.21 2.34 2.39 2.5 2.66 2.73 2.85
2575.186 2.97 3.06 3.17 3.28 3.46 3.57 3.62 3.77 3.89 3.93
2594.475 4.01 4.04 3.95 4 4.1 3.96 3.83 3.85 3.79 3.71
2613.765 3.54 3.36 3.28 3.04 2.77 2.64 2.54 2.33 2.18 2.09
2633.055 2.02 1.95 1.9 1.91 1.99 1.98 1.98 2 1.95 1.97
2652.345 1.95 1.96 1.96 1.99 2 2.09 2.2 2.29 2.32 2.32
2671.634 2.44 2.5 2.54 2.57 2.66 2.83 2.9 2.93 3 3.09
2690.924 3.27 3.4 3.45 3.54 3.66 3.69 3.66 3.7 3.69 3.52
2710.214 3.46 3.39 3.2 3.06 2.93 2.82 2.78 2.64 2.51 2.62
2729.504 2.67 2.63 2.63 2.69 2.71 2.76 2.96 3.18 3.27 3.3
2748.794 3.5 3.76 3.9 4.14 4.47 4.82 5.27 5.75 6.43 7.3
2768.083 8.23 9.35 10.57 11.67 12.4 12.72 12.69 12.29 11.57 10.48
2787.373 9.23 7.99 6.8 5.76 5.11 4.67 4.4 4.41 4.43 4.5
2806.663 4.59 4.69 4.73 4.81 5.09 5.42 5.81 6.09 6.34 6.65
2825.953 6.97 7.4 7.83 8.07 8.4 8.87 9.34 9.75 10.15 10.74
2845.242 11.33 12.03 12.73 13.51 14.45 15.42 16.63 17.98 19.47 21.12
2864.532 22.75 24.31 25.77 27.29 28.73 29.85 30.78 31.47 32.02 32.43
2883.822 32.75 33.09 33.39 33.64 33.73 33.85 34.09 34.3 34.61 35.17
2903.112 35.87 36.68 37.51 38.19 38.71 38.9 39.02 38.86 38.35 37.8
2922.401 37.11 36.35 35.82 35.17 34.62 34.29 33.92 33.43 32.95 32.52
2941.691 31.94 31.35 30.72 30.14 29.55 28.75 27.87 27.15 26.29 25.41
2960.981 24.46 23.46 22.69 21.88 21.08 20.31 19.46 18.81 18.2 17.5
2980.271 16.71 16.04 15.59 15.17 14.84 14.6 14.49 14.42 14.55 14.76
2999.561 15.08 15.63 16.34 17.3 18.46 19.65 20.87 21.94 22.69 23.03
3018.850 22.89 22.25 21.32 20.09 18.56 17.07 15.66 14.34 13.16 12.27
3038.140 11.51 10.65 9.97 9.65 9.28 8.82 8.55 8.22 7.9 7.69
3057.430 7.51 7.39 7.34 7.26 7.32 7.62 7.88 8.2 8.9 9.94
3076.720 11.06 12.05 12.96 13.59 13.72 13.57 13.13 12.49 11.47 10.11
3096.009 8.71 7.58 6.88 6.34 5.88 5.53 5.29 5.02 4.6 4.09
3115.299 3.71 3.46 3.18 2.92 2.59 2.32 2.18 2.05 1.87 1.66
3134.589 1.51 1.42 1.24 1.11 1.12 1.0555 0.9737 0.9904 1.0133 0.933
3153.879 1.0129 1.0665 0.9634 0.9555 0.9184 0.7841 0.7669 0.6483 0.605 0.6606
3173.169 0.6794 0.7711 0.7005 0.6521 0.6056 0.4613 0.4548 0.5644 0.6371 0.6356
3192.458 0.5891 0.5285 0.6187 0.8157 0.8058 0.7805 0.7592 0.6878 0.6345 0.6527
3211.748 0.7369 0.8177 0.8463 0.8838 1 0.955 0.9713 0.9311 0.7567 0.6784
3231.038 0.6755 0.6606 0.6632 0.7622 0.7404 0.6794 0.5632 0.5301 0.73 0.7125
3250.328 0.6602 0.5034 0.3821 0.515 0.4631 0.4205 0.5176 0.5498 0.5022 0.4491
3269.617 0.4071 0.4089 0.4756 0.5189 0.3416 0.15235 0.114602 0.16586 0.322 0.3139
3288.907 0.2612 0.3582 0.4347 0.3612 0.3517 0.3598 0.2912 0.3468 0.4118 0.4185
3308.197 0.4088 0.4309 0.5599 0.6977 0.5822 0.4602 0.4285 0.4842 0.6549 0.6355
3327.487 0.6015 0.5576 0.468 0.5647 0.6772 0.6107 0.5289 0.6007 0.678 0.6937
3346.777 0.717 0.7679 0.7667 0.8465 1.083 1.21 1.25 1.42 1.62 1.74
3366.066 1.87 2.03 2.28 2.43 2.59 2.89 3.26 3.53 3.59 3.51
3385.356 3.5 3.55 3.29 3.01 2.88 2.54 2.14 1.86 1.62 1.49
3404.646 1.36 1.12 0.9507 0.8552 0.7674 0.7265 0.5698 0.6884 0.8069 0.5871
3423.936 0.5301 0.5454 0.5066 0.5462 0.5117 0.4835 0.4473 0.2848 0.2804 0.3944
3443.225 0.5463 0.5275 0.403 0.3481 0.2847 0.19145 0.15366 0.065 0.12153 0.2433
3462.515 0.2284 0.3482 0.4647 0.3871 0.3016 0.3677 0.4138 0.4189 0.3666 0.2757
3481.805 0.3077 0.2289 0.16855 0.3109 0.4015 0.568 0.6112 0.3759 0.35 0.5087
3501.095 0.3968 0.2695 0.3057 0.3017 0.3597 0.4457 0.5099 0.3259 0.17833 0.12176
3520.385 0.10713 0.14288 0.18233 0.2873 0.19113 0.17822 0.18002 0.14004 0.19995 0.20628
3539.674 0.2259 0.2287 0.0802 0.19894 0.3474 0.2518 0.10444 0.18918 0.3521 0.2637
3558.964 0.308 0.2244 0.0477 0.0971 0.117858 0.12044 0.15807 0.18699 0.17646 0.19879
3578.254 0.2432 0.20384 0.19747 0.14156 0.0198 0.014 0.20339 0.2663 0.17575 0.218
3597.544 0.15963 0.2138 0.18643 0.14649 0.3132 0.2391 0.12584 0.0872 0.12328 0.15774
3616.833 0.2321 0.2513 0.20769 0.18264 0.3035 0.347 0.3294 0.4043 0.38 0.2632
3636.123 0.19658 0.2569 0.2764 0.3278 0.2953 0.1846 0.0947 0.0379 0.076 0.199
3655.413 0.301 0.2175 0.1595 0.2285 0.3032 0.2654 0.2186 0.13108 0.0219 0.0657
3674.703 0.17429 0.2232 0.15804 0.13124 0 0.0597 0.20345 0.13654 0.2164 0.2929
3693.993 0.2742 0.4147 0.4494 0.2607 0.315 0.3283 0.16083 0.2989 0.3844 0.12234
3713.282 0.12044 0.2683 0.3466 0.3681 0.3815 0.3827 0.3017 0.3225 0.3172 0.18506
3732.572 0.16038 0.2214 0.3085 0.4096 0.2327 0.0282 0.003 0.16377 0.2788 0.2337
3751.862 0.20352 0.19466 0.2333 0.3031 0.3073 0.2721 0.2895 0.2752 0.2261 0.17573
3771.152 0.2477 0.3366 0.2314 0.2608 0.371 0.3159 0.288 0.3694 0.4429 0.5475
3790.441 0.6132 0.4927 0.4179 0.5734 0.5279 0.2898 0.2599 0.3953 0.4284 0.5208
3809.731 0.654 0.5019 0.3648 0.3644 0.5065 0.5179 0.5179 0.627 0.4461 0.282
3829.021 0.4421 0.4658 0.3277 0.2252 0.2148 0.3099 0.368 0.3544 0.3445 0.2481
3848.311 0.0988 0.13064 0.16348 0.0789 0.16838 0.3622 0.4412 0.3372 0.231 0.2492
3867.601 0.383 0.3814 0.3995 0.4029 0.20479 0.2628 0.2796 0.3287 0.6994 0.6864
3886.890 0.516 0.5004 0.4089 0.5817 0.581 0.4953 0.5961 0.4606 0.4123 0.5543
3906.180 0.6179 0.7199 0.6733 0.5366 0.5789 0.5949 0.7329 0.8303 0.7241 0.7589
3925.470 0.7897 0.583 0.4186 0.5955 0.7566 0.8757 0.9954 0.9295 0.931 0.8561
3944.760 0.8273 0.8722 0.9323 0.9307 0.9223 1.0582 1.0601 1.0515 1.13 1.2
3964.049 1.0888 1.19 1.23 0.9804 1.0284 1.2 1.15 1.0535 1.1076 1.0785
3983.339 1.0635 1.0839 0.9298 0.9751 0.8253 0.6365 0.7992 0.8009 0.8396 0.7839
##END=
