##TITLE=3,4-Dichloroacetanilide
##JCAMP-DX=4.24
##DATA TYPE=INFRARED SPECTRUM
##ORIGIN=EPA-IR VAPOR PHASE LIBRARY
##OWNER=SRD/NIST
Collection (C) 2018 copyright by the U.S. Secretary of Commerce
on behalf of the United States of America. All rights reserved.
##CAS REGISTRY NO=31620-87-8
##MOLFORM=C 8 H 7 Cl 2 N O
##$NIST SOURCE=MSDC-IR
##STATE=gas
##XUNITS=1/CM
##YUNITS=ABSORBANCE
##XFACTOR=1.
##YFACTOR=0.001
##DELTAX=3.85796
##FIRSTX=501.5
##LASTX=4000.7
##FIRSTY=9.81
##MAXX=4000.7
##MINX=501.534
##MAXY=0.11615
##MINY=0.00007075
##NPOINTS=908
##XYDATA=(X++(Y..Y))
501.534 9.81 10.13 10.5 10.53 10.11 9.44 8.62 7.68 6.64 5.63
540.114 4.82 4.12 3.52 2.99 2.54 2.36 2.32 2.41 2.57 2.66
578.693 2.68 2.75 2.85 2.97 2.98 2.85 2.7 2.51 2.37 2.34
617.273 2.26 2.2 2.22 2.11 1.92 1.75 1.56 1.47 1.46 1.48
655.852 1.63 1.93 2.54 3.88 5.63 7.59 9.1 9.05 7.83 5.44
694.432 3.23 2.35 1.99 1.93 2.11 2.29 2.42 2.48 2.51 2.6
733.011 2.82 3.05 3.12 3.04 2.75 2.32 1.91 1.67 1.58 1.62
771.591 1.61 1.57 1.69 2.11 2.89 4.11 5.72 7.58 8.89 9.06
810.170 8.82 8.54 7.98 7.04 5.83 4.68 3.9 3.71 4.17 5.14
848.750 6.33 7.04 7 6.7 6.45 6.44 6.75 7.12 7.34 7.38
887.330 7.25 7.11 6.94 6.58 6.03 5.3 4.44 3.77 3.31 2.98
925.909 2.84 2.94 3.14 3.36 3.67 4.07 4.43 4.7 4.83 4.9
964.489 5.03 5.26 5.72 6.58 7.94 9.57 11.03 11.87 11.59 10.33
1003.068 8.86 7.8 7.4 7.6 8.53 10.43 12.88 14.59 14.68 13.15
1041.648 10.27 7.68 6.23 5.45 5.12 5 4.83 4.71 4.61 4.31
1080.227 3.95 3.72 3.58 3.28 3.08 3.2 3.46 4.12 5.59 8.19
1118.807 12.28 17.73 22.98 25.68 24.8 21.33 17.26 13.97 11.41 9.25
1157.387 7.49 5.91 4.85 4.51 4.66 5.27 6.13 7.17 8.58 10.48
1195.966 13.28 17.43 22.86 29.23 35.94 41.59 44.35 42.89 37.29 29.79
1234.546 22.46 16.45 13.08 12.13 12.33 13 13.85 14.82 16.38 19.19
1273.125 24.07 31.26 38.97 43.57 42.16 35.49 27.14 20.62 16.46 13.29
1311.705 10.59 8.57 7.31 6.71 6.56 6.69 7.01 7.48 8.14 9.19
1350.284 11.03 14.43 20.3 29.24 40.25 49.82 54.66 53.82 48.62 41.78
1388.864 33.89 25.03 17.79 13.34 10.82 9.62 9.19 9.18 9.46 9.88
1427.443 10.4 11.11 12.12 13.62 15.72 18.44 21.87 26.26 32.69 42.91
1466.023 59.62 82.36 104.34 116.15 114.57 104.93 96.66 93.01 90.52 85.37
1504.603 75.33 60.84 46.02 34.18 26.24 21.27 18.16 16.09 14.76 13.81
1543.182 12.9 11.94 11.2 11.21 12.36 14.86 18.78 23.94 28.9 32.24
1581.762 33.67 34.54 36.31 37.1 33.79 26.45 18.09 12.18 9.25 7.78
1620.341 6.93 6.32 5.74 5.11 4.55 4.12 3.82 3.67 3.63 3.69
1658.921 3.83 4.06 4.39 4.8 5.23 5.73 6.35 7.24 8.47 10.11
1697.500 12.21 14.67 17.36 20.47 25.28 33.9 46.22 59.34 70.72 75.27
1736.080 71.85 64.07 50.24 34.78 24.3 18.72 15.98 14.22 12.27 9.84
1774.659 7.52 5.72 4.51 3.81 3.42 3.21 3.06 2.88 2.68 2.5
1813.239 2.35 2.22 2.1 1.97 1.82 1.67 1.57 1.52 1.47 1.49
1851.819 1.55 1.6 1.59 1.53 1.47 1.43 1.42 1.44 1.48 1.51
1890.398 1.51 1.46 1.37 1.24 1.1 0.9485 0.8326 0.7351 0.6598 0.6264
1928.978 0.6082 0.6096 0.6096 0.6078 0.6102 0.5987 0.6059 0.6316 0.6551 0.6743
1967.557 0.6768 0.6615 0.629 0.5931 0.5562 0.5173 0.484 0.4567 0.4281 0.4152
2006.137 0.3895 0.3539 0.3377 0.3424 0.3299 0.3039 0.2936 0.307 0.3204 0.3197
2044.716 0.3082 0.289 0.3018 0.3008 0.3025 0.3299 0.3524 0.3979 0.4292 0.4444
2083.296 0.476 0.4956 0.5152 0.5347 0.5372 0.5361 0.5464 0.5207 0.4874 0.4699
2121.875 0.455 0.4511 0.4587 0.4849 0.5067 0.5555 0.611 0.6459 0.6811 0.7076
2160.455 0.7073 0.6922 0.6814 0.6475 0.6122 0.5919 0.575 0.5293 0.4801 0.4697
2199.035 0.463 0.4354 0.4008 0.3665 0.3435 0.3319 0.3047 0.2969 0.2865 0.2599
2237.614 0.2659 0.2731 0.2615 0.2406 0.2342 0.2544 0.2523 0.236 0.2595 0.2852
2276.194 0.2691 0.2794 0.3 0.2855 0.3121 0.3432 0.3341 0.3367 0.3413 0.3454
2314.773 0.3715 0.396 0.4079 0.411 0.4238 0.4486 0.443 0.4455 0.4676 0.4878
2353.353 0.4976 0.5061 0.5289 0.5468 0.5558 0.5622 0.5613 0.5273 0.4976 0.499
2391.932 0.4915 0.4616 0.4474 0.4506 0.4358 0.4098 0.407 0.4122 0.4175 0.4173
2430.512 0.4177 0.4314 0.4309 0.4047 0.4047 0.417 0.4105 0.4187 0.4107 0.3624
2469.092 0.3402 0.3433 0.3382 0.3549 0.3712 0.3815 0.3954 0.4097 0.454 0.4932
2507.671 0.4959 0.4688 0.4066 0.3562 0.3358 0.3106 0.2996 0.3049 0.295 0.28
2546.251 0.284 0.2939 0.277 0.2734 0.3125 0.3302 0.3135 0.3067 0.3159 0.333
2584.830 0.3508 0.354 0.3417 0.3337 0.3305 0.3208 0.3268 0.2995 0.2326 0.2008
2623.410 0.2015 0.206 0.194 0.1592 0.1536 0.1676 0.1702 0.206 0.2108 0.2111
2661.989 0.2302 0.2539 0.2796 0.3103 0.358 0.3668 0.374 0.4229 0.4679 0.4843
2700.569 0.5032 0.5279 0.555 0.5488 0.5372 0.5576 0.5426 0.5024 0.4748 0.4379
2739.148 0.3893 0.3462 0.319 0.301 0.2928 0.285 0.2841 0.2583 0.2426 0.2602
2777.728 0.28 0.2928 0.3166 0.3449 0.3573 0.3969 0.3918 0.3607 0.3744 0.3715
2816.308 0.3588 0.3703 0.4125 0.4581 0.4937 0.5222 0.5442 0.5842 0.6105 0.6175
2854.887 0.6078 0.5863 0.5937 0.5784 0.5413 0.5158 0.5133 0.5437 0.5394 0.5371
2893.467 0.5692 0.6126 0.6677 0.749 0.8466 0.9078 1.01 1.19 1.41 1.68
2932.046 1.97 2.24 2.37 2.3 2.11 1.88 1.67 1.55 1.45 1.36
2970.626 1.34 1.33 1.29 1.26 1.24 1.26 1.28 1.25 1.25 1.34
3009.205 1.44 1.59 1.8 2.05 2.29 2.53 2.7 2.69 2.55 2.4
3047.785 2.3 2.24 2.24 2.3 2.33 2.24 2.12 2.03 2 1.97
3086.364 1.98 2 1.92 1.75 1.57 1.5 1.6 1.83 2.01 2.05
3124.944 1.87 1.5 1.1 0.829 0.6573 0.5434 0.4774 0.4402 0.4156 0.4191
3163.524 0.4119 0.3393 0.3489 0.3509 0.3349 0.3511 0.3312 0.2862 0.2261 0.2018
3202.103 0.173 0.1538 0.1707 0.1781 0.1845 0.1969 0.1839 0.1495 0.1146 0.1076
3240.683 0.1359 0.1504 0.1749 0.172 0.1162 0.09736 0.09841 0.1233 0.119 0.07528
3279.262 0.1167 0.1571 0.1224 0.0927 0.104 0.1226 0.1423 0.1297 0.1173 0.1492
3317.842 0.1746 0.1681 0.1563 0.1488 0.1571 0.1835 0.171 0.1689 0.1778 0.1546
3356.421 0.1552 0.1905 0.2085 0.2333 0.2031 0.2174 0.3283 0.415 0.498 0.6103
3395.001 0.7634 0.9359 1.11 1.25 1.45 1.71 1.88 2.03 2.23 2.42
3433.580 2.64 2.91 3.23 3.67 4.22 4.88 5.69 6.54 7.11 6.89
3472.160 6.07 4.78 3.3 2.22 1.6 1.28 1.07 0.918 0.7627 0.6015
3510.740 0.4916 0.4264 0.3884 0.3366 0.2984 0.2707 0.1966 0.2384 0.2782 0.2534
3549.319 0.2625 0.2344 0.1776 0.1416 0.1276 0.1103 0.1434 0.1949 0.2357 0.229
3587.899 0.1756 0.1344 0.1501 0.1645 0.1211 0.07652 0.07075 0.1146 0.115 0.1259
3626.478 0.1377 0.1005 0.1014 0.08062 0.0733 0.1061 0.1078 0.1149 0.1119 0.1104
3665.058 0.148 0.1221 0.1141 0.1684 0.1201 0.1153 0.1381 0.1079 0.1052 0.1421
3703.637 0.1841 0.155 0.1486 0.1487 0.1195 0.1235 0.132 0.09387 0.1286 0.17
3742.217 0.1359 0.1473 0.1358 0.1514 0.1926 0.2201 0.2266 0.2133 0.1869 0.157
3780.797 0.1852 0.1968 0.1511 0.1317 0.1666 0.1807 0.2025 0.2046 0.1799 0.1644
3819.376 0.1444 0.1584 0.1885 0.189 0.1981 0.1822 0.1773 0.2083 0.1997 0.1802
3857.956 0.203 0.1981 0.1737 0.1722 0.1536 0.1536 0.1379 0.1542 0.2251 0.1968
3896.535 0.1517 0.1539 0.213 0.2723 0.2587 0.2389 0.2015 0.1934 0.1847 0.2011
3935.115 0.2152 0.1786 0.1798 0.1854 0.2301 0.2382 0.1939 0.2271 0.2044 0.2194
3973.694 0.2274 0.1981 0.1912 0.1966 0.2313 0.2107 0.1594 0.111
##END=
