##TITLE=4-Methyl-3-nitrobenzaldehyde
##JCAMP-DX=4.24
##DATA TYPE=INFRARED SPECTRUM
##ORIGIN=EPA-IR VAPOR PHASE LIBRARY
##OWNER=SRD/NIST
Collection (C) 2018 copyright by the U.S. Secretary of Commerce
on behalf of the United States of America. All rights reserved.
##CAS REGISTRY NO=31680-07-6
##MOLFORM=C 8 H 7 N O 3
##$NIST SOURCE=MSDC-IR
##STATE=gas
##XUNITS=1/CM
##YUNITS=ABSORBANCE
##XFACTOR=1.
##YFACTOR=0.001
##DELTAX=1.92918
##FIRSTX=549.8
##LASTX=3999.2
##FIRSTY=2.802
##MAXX=3999.2
##MINX=549.817
##MAXY=0.213672
##MINY=0
##NPOINTS=1789
##XYDATA=(X++(Y..Y))
549.817 2.802 2.772 2.942 2.982 3.372 3.622 3.342 3.382 3.562 3.572
569.109 3.292 3.242 3.292 3.342 3.342 3.262 3.332 3.232 3.242 3.402
588.401 3.502 3.782 4.132 4.122 4.242 4.632 5.152 5.642 6.052 6.732
607.693 7.172 7.412 7.562 7.532 7.592 7.542 7.312 7.132 6.922 6.602
626.984 6.242 5.722 5.192 4.802 4.512 4.112 3.582 3.132 2.882 2.742
646.276 2.422 2.292 2.272 2.152 2.182 2.392 2.782 3.422 4.352 5.762
665.568 7.602 9.392 10.822 11.822 12.752 13.182 13.422 13.592 13.002 11.832
684.860 10.642 9.862 9.482 9.142 8.942 8.932 8.782 8.732 8.832 9.072
704.152 9.372 9.392 9.362 9.422 9.582 9.572 9.322 9.222 8.952 8.502
723.444 8.432 8.482 8.622 8.942 9.552 10.342 11.042 11.902 12.842 13.872
742.735 14.952 16.012 16.952 17.652 18.372 19.082 19.612 20.042 20.252 20.212
762.027 19.982 19.542 18.942 18.232 17.402 16.472 15.542 14.572 13.772 13.062
781.319 12.262 11.462 10.782 10.172 9.512 8.882 8.572 8.422 8.432 9.022
800.611 10.212 12.072 14.722 18.282 22.712 27.602 32.692 37.572 41.712 45.132
819.903 46.752 45.892 44.312 42.512 39.212 34.162 28.202 22.452 17.752 14.082
839.195 11.062 8.702 6.902 5.462 4.402 3.662 3.162 2.792 2.422 2.202
858.487 2.112 2.062 2.102 2.102 2.112 2.202 2.342 2.542 2.772 3.102
877.778 3.532 3.952 4.402 4.922 5.582 6.292 6.982 7.752 8.412 8.842
897.070 9.232 9.632 10.202 11.022 12.022 13.092 14.172 15.022 15.262 15.112
916.362 14.692 14.112 13.292 12.062 10.682 9.642 9.092 9.082 9.582 10.332
935.654 11.172 11.882 12.322 12.412 12.122 11.482 10.502 9.222 7.852 6.572
954.946 5.472 4.612 4.022 3.642 3.332 3.002 2.782 2.682 2.542 2.412
974.238 2.332 2.312 2.302 2.342 2.472 2.582 2.772 3.002 3.172 3.362
993.529 3.592 3.812 3.972 3.982 3.802 3.542 3.292 3.062 2.852 2.702
1012.821 2.592 2.472 2.392 2.312 2.312 2.312 2.382 2.632 2.882 3.072
1032.113 3.232 3.452 3.672 3.762 3.862 4.032 4.092 4.242 4.492 4.792
1051.405 5.172 5.692 6.302 7.082 8.012 9.032 10.172 11.492 12.872 14.002
1070.697 14.732 15.112 15.142 14.792 14.142 13.162 11.902 10.332 8.752 7.502
1089.989 6.482 5.602 4.912 4.432 4.042 3.742 3.522 3.352 3.192 3.062
1109.281 2.932 2.902 2.782 2.652 2.712 2.762 2.732 2.662 2.672 2.802
1128.572 2.872 3.022 3.362 3.822 4.382 5.192 6.142 6.982 7.682 8.132
1147.864 8.352 8.522 8.792 9.042 8.902 8.392 7.942 7.802 7.872 8.282
1167.156 8.982 9.992 11.472 13.412 15.922 19.082 22.762 26.912 31.442 36.072
1186.448 40.702 45.332 49.632 53.192 55.892 57.662 58.612 58.832 58.212 56.592
1205.740 53.722 50.072 46.292 42.322 37.912 32.922 27.492 22.222 17.802 14.432
1225.032 11.902 10.052 8.612 7.472 6.652 6.092 5.712 5.452 5.222 5.042
1244.323 4.932 4.792 4.622 4.482 4.422 4.392 4.372 4.472 4.632 4.872
1263.615 5.252 5.772 6.392 7.112 8.032 9.112 10.272 11.532 12.792 14.052
1282.907 15.362 16.552 17.452 18.102 18.572 18.752 18.682 18.462 18.072 17.562
1302.199 17.002 16.362 15.842 15.592 15.562 15.552 15.652 15.902 16.212 16.642
1321.491 17.182 17.862 18.722 19.892 21.462 23.472 25.932 28.962 32.672 37.142
1340.783 42.452 48.462 55.202 62.582 70.132 77.242 83.362 87.782 90.102 90.262
1360.075 88.282 84.182 78.022 70.372 61.952 53.682 46.332 40.312 35.662 32.142
1379.366 29.482 27.332 25.462 23.922 22.542 21.202 19.832 18.472 17.172 16.022
1398.658 15.092 14.292 13.692 13.262 12.902 12.582 12.322 12.032 11.762 11.452
1417.950 11.132 10.722 10.302 10.012 9.842 9.772 9.772 9.852 10.022 10.312
1437.242 10.592 10.902 11.292 11.692 12.062 12.462 12.822 13.102 13.292 13.392
1456.534 13.412 13.302 13.172 12.962 12.682 12.352 12.022 11.852 11.882 11.982
1475.826 12.182 12.522 13.032 13.682 14.402 15.282 16.252 17.142 17.992 18.822
1495.117 19.682 20.552 21.462 22.432 23.392 24.572 26.112 27.742 29.602 31.872
1514.409 34.332 37.182 40.362 43.782 47.782 51.912 56.722 62.162 68.222 75.112
1533.701 82.992 91.362 99.502 108.162 115.992 122.162 126.502 128.582 128.122 125.082
1552.993 119.882 112.662 104.962 96.622 88.502 82.042 76.242 71.252 66.972 62.922
1572.285 59.052 55.312 51.242 47.152 43.362 39.602 36.052 32.932 30.532 28.792
1591.577 27.702 27.322 27.672 28.662 30.312 32.622 35.462 38.772 42.402 46.092
1610.869 49.422 52.102 53.882 54.522 53.862 52.052 49.162 45.272 40.802 35.972
1630.160 31.162 26.822 23.192 20.002 17.342 15.252 13.532 12.202 11.112 10.112
1649.452 9.242 8.622 8.092 7.462 7.032 6.762 6.572 6.442 6.302 6.322
1668.744 6.512 6.702 6.972 7.402 7.852 8.322 8.942 9.522 10.092 10.502
1688.036 11.002 11.612 12.232 13.072 14.292 15.802 18.132 21.622 25.952 32.742
1707.328 42.452 56.152 75.322 100.352 130.072 160.172 185.702 201.712 210.552 213.672
1726.620 209.922 198.782 176.162 144.902 110.612 83.512 64.522 49.622 38.902 30.502
1745.911 23.912 18.752 14.792 11.852 9.952 8.712 7.832 7.132 6.612 6.172
1765.203 5.762 5.452 5.192 4.942 4.672 4.382 4.172 4.062 4.022 3.982
1784.495 4.022 4.072 4.132 4.212 4.322 4.352 4.342 4.382 4.452 4.482
1803.787 4.462 4.382 4.282 4.092 3.822 3.582 3.342 3.092 2.862 2.642
1823.079 2.482 2.352 2.192 2.052 1.902 1.772 1.6997 1.6475 1.568 1.5444
1842.371 1.563 1.5336 1.5547 1.5909 1.6672 1.772 1.812 1.882 1.972 2.102
1861.663 2.242 2.312 2.372 2.492 2.592 2.612 2.582 2.552 2.492 2.402
1880.954 2.362 2.302 2.242 2.152 2.092 2.012 1.912 1.862 1.832 1.842
1900.246 1.832 1.822 1.852 1.852 1.802 1.822 1.872 1.832 1.7151 1.6445
1919.538 1.6305 1.5665 1.5317 1.5452 1.4995 1.4795 1.5332 1.563 1.5723 1.5745
1938.830 1.5966 1.624 1.6117 1.5614 1.5126 1.4881 1.4127 1.3464 1.3075 1.3085
1958.122 1.35 1.3593 1.3785 1.3568 1.3925 1.3822 1.3352 1.375 1.3432 1.2551
1977.414 1.2136 1.1659 1.1031 1.0584 1.0166 1.0202 1.0401 1.0304 1.0104 1.0239
1996.705 1.0418 1.0463 1.055 1.0243 0.9932 1.0293 1.0628 1.0802 1.0868 1.1012
2015.997 1.1232 1.1367 1.1564 1.1412 1.1197 1.0801 1.0511 1.0527 1.0227 0.9992
2035.289 0.9889 0.9413 0.9007 0.84039 0.78834 0.75874 0.7293 0.78678 0.78953 0.7224
2054.581 0.7101 0.7361 0.7383 0.7133 0.6788 0.6986 0.6949 0.691 0.7163 0.7003
2073.873 0.6996 0.6803 0.6883 0.6903 0.7097 0.7365 0.6879 0.6793 0.7229 0.7518
2093.165 0.75378 0.766598 0.82832 0.86086 0.8761 0.9092 0.9659 1.0247 1.0517 1.0776
2112.456 1.1009 1.1524 1.1681 1.1863 1.2388 1.2348 1.1929 1.1836 1.2195 1.2561
2131.748 1.2337 1.2727 1.317 1.2393 1.1908 1.1576 1.1084 1.0431 1.0484 1.0469
2151.040 0.9616 0.9423 0.9479 0.8852 0.8155 0.8506 0.84276 0.76143 0.7336 0.7502
2170.332 0.769729 0.75513 0.7277 0.7161 0.6659 0.627 0.6676 0.6991 0.6659 0.622
2189.624 0.604 0.593 0.604 0.623 0.641 0.651 0.647 0.648 0.648 0.6695
2208.916 0.7057 0.7182 0.717 0.679 0.65 0.662 0.671 0.6961 0.7454 0.768621
2228.208 0.737 0.7019 0.6875 0.686 0.6953 0.6799 0.678 0.6629 0.653 0.6843
2247.499 0.718 0.7232 0.7175 0.763776 0.7417 0.6967 0.7178 0.75833 0.768553 0.79076
2266.791 0.8376 0.8642 0.85779 0.84517 0.86185 0.8484 0.82539 0.82828 0.83645 0.85325
2286.083 0.8743 0.8938 0.9279 0.9158 0.9426 0.9505 0.9471 0.9794 1.0014 0.9878
2305.375 0.9499 0.8911 0.79021 0.80594 0.83091 0.762013 0.7392 0.75289 0.75988 0.80292
2324.667 0.80428 0.78795 0.78613 0.8215 0.86058 0.83606 0.899 0.9716 0.9603 0.9436
2343.959 0.9922 1.0156 0.9809 0.9776 0.9718 1.0785 1.1427 1.0909 1.0931 1.0906
2363.250 1.0719 1.109 1.1491 1.1152 1.0613 1.0748 1.123 1.1187 1.0871 1.0706
2382.542 1.031 1.0298 1.0553 1.0707 1.0857 1.0859 1.1175 1.0857 1.042 1.1154
2401.834 1.1205 1.0946 1.1223 1.1389 1.1568 1.1696 1.1784 1.1513 1.1483 1.2166
2421.126 1.2587 1.2248 1.2181 1.2212 1.1716 1.124 1.075 1.0436 1.0435 0.9933
2440.418 0.9072 0.9317 0.9589 0.8957 0.9026 0.9296 0.9662 0.9318 0.9105 0.9684
2459.710 0.9568 0.9041 0.8722 0.84513 0.84499 0.84103 0.8398 0.914 0.9377 0.9073
2479.002 0.9018 0.9391 0.9337 0.9218 0.9236 0.9119 0.8987 0.8804 0.84887 0.80746
2498.293 0.83238 0.83246 0.768548 0.7037 0.761716 0.781 0.763764 0.81345 0.78542 0.7359
2517.585 0.6902 0.7228 0.746 0.7222 0.7452 0.80843 0.84666 0.84047 0.8485 0.83757
2536.877 0.82826 0.8729 0.9314 0.925 0.9287 0.9536 0.9613 0.9614 1.0031 1.1146
2556.169 1.1832 1.1877 1.1668 1.2358 1.3449 1.3914 1.3716 1.4046 1.4941 1.4394
2575.461 1.3472 1.3585 1.3919 1.3684 1.3899 1.4282 1.482 1.4963 1.4166 1.3946
2594.753 1.4323 1.4185 1.3953 1.4243 1.4582 1.452 1.3812 1.3319 1.2927 1.2522
2614.044 1.2953 1.3301 1.2973 1.2984 1.346 1.4435 1.5083 1.4983 1.4922 1.5998
2633.336 1.6887 1.6499 1.7418 1.852 1.882 1.972 2.092 2.202 2.332 2.392
2652.628 2.402 2.472 2.572 2.652 2.722 2.772 2.782 2.742 2.792 2.912
2671.920 2.992 3.102 3.162 3.242 3.352 3.422 3.492 3.572 3.732 3.932
2691.212 4.152 4.442 4.742 5.152 5.702 6.292 7.082 8.202 9.582 11.192
2710.504 13.112 15.312 17.672 19.962 21.972 23.692 25.022 25.802 25.962 25.382
2729.796 24.142 22.492 20.492 18.332 16.372 14.582 13.032 11.882 10.962 10.172
2749.087 9.602 9.162 8.882 8.792 8.752 8.642 8.572 8.592 8.712 8.762
2768.379 8.722 8.842 9.052 9.232 9.412 9.622 9.942 10.412 10.822 11.322
2787.671 12.022 12.792 13.622 14.472 15.572 16.912 18.372 20.012 21.822 23.882
2806.963 26.222 28.642 31.142 33.642 35.652 37.102 37.922 37.812 36.822 35.142
2826.255 32.872 30.172 27.092 23.812 20.572 17.422 14.692 12.412 10.642 9.192
2845.547 8.002 7.202 6.562 6.082 5.782 5.642 5.492 5.452 5.562 5.622
2864.838 5.732 5.842 5.922 6.042 6.162 6.302 6.352 6.402 6.482 6.472
2884.130 6.462 6.492 6.492 6.432 6.362 6.272 6.142 6.022 5.932 5.782
2903.422 5.672 5.502 5.282 5.182 5.122 4.962 4.812 4.732 4.692 4.732
2922.714 4.802 4.952 5.172 5.492 5.822 6.212 6.792 7.322 7.892 8.482
2942.006 8.852 9.102 9.232 9.192 8.992 8.642 8.122 7.562 7.062 6.522
2961.298 6.052 5.732 5.482 5.392 5.402 5.572 5.732 5.932 6.252 6.472
2980.590 6.802 7.252 7.582 7.892 8.092 8.092 8.002 7.882 7.722 7.392
2999.881 6.912 6.452 6.072 5.632 5.142 4.692 4.402 4.152 3.922 3.802
3019.173 3.762 3.682 3.592 3.602 3.712 3.832 3.852 4.042 4.322 4.442
3038.465 4.592 4.742 4.822 4.912 5.022 5.152 5.372 5.592 5.752 5.972
3057.757 6.342 6.792 7.122 7.432 7.862 8.112 8.162 8.072 7.982 7.892
3077.049 7.572 7.162 6.492 5.752 5.262 4.682 4.132 3.632 3.132 2.772
3096.341 2.522 2.352 2.192 2.012 1.852 1.712 1.5011 1.3917 1.3726 1.3506
3115.632 1.3946 1.3737 1.1835 1.1687 1.2226 1.1474 1.0731 0.9258 0.8297 0.8746
3134.924 0.9191 0.865 0.7332 0.6953 0.80065 0.80403 0.764006 0.6946 0.574 0.469
3154.216 0.528 0.526 0.445 0.409 0.361 0.367 0.255 0.314 0.499 0.484
3173.508 0.458 0.424 0.244 0.076 0.15 0.291 0.293 0.332 0.44 0.362
3192.800 0.308 0.35 0.384 0.333 0.258 0.229 0.25 0.275 0.249 0.273
3212.092 0.271 0.192 0.179 0.208 0.142 0.226 0.356 0.384 0.398 0.326
3231.384 0.283 0.352 0.325 0.293 0.322 0.2 0.134 0.252 0.154 0.128
3250.675 0.37 0.319 0.253 0.253 0.215 0.175 0.111 0.174 0.194 0.207
3269.967 0.215 0.213 0.242 0.165 0.171 0.206 0.193 0.149 0.077 0.12
3289.259 0.235 0.165 0.148 0.349 0.305 0.194 0.158 0.129 0.209 0.254
3308.551 0.124 0.075 0.121 0.19 0.334 0.304 0.185 0.154 0.062 0
3327.843 0.104 0.195 0.222 0.307 0.306 0.257 0.273 0.254 0.231 0.306
3347.135 0.341 0.287 0.184 0.13 0.152 0.233 0.421 0.419 0.251 0.256
3366.426 0.35 0.362 0.365 0.392 0.213 0.128 0.324 0.451 0.412 0.339
3385.718 0.438 0.492 0.448 0.538 0.6765 0.6935 0.7008 0.80527 0.8758 0.85458
3405.010 0.9149 1.0636 1.1759 1.3226 1.6281 1.982 2.302 2.652 2.972 3.312
3424.302 3.502 3.682 3.922 3.902 3.732 3.532 3.242 2.752 2.282 1.952
3443.594 1.6348 1.2575 1.0439 0.9582 0.7426 0.625 0.572 0.561 0.7073 0.661
3462.886 0.443 0.376 0.489 0.469 0.382 0.384 0.283 0.241 0.176 0.124
3482.178 0.249 0.213 0.181 0.204 0.072 0.035 0.143 0.216 0.132 0.054
3501.469 0.113 0.12 0.157 0.269 0.266 0.239 0.265 0.272 0.264 0.321
3520.761 0.278 0.255 0.282 0.2 0.321 0.368 0.284 0.324 0.393 0.34
3540.053 0.258 0.278 0.269 0.231 0.204 0.223 0.255 0.213 0.272 0.365
3559.345 0.335 0.224 0.283 0.364 0.235 0.207 0.248 0.18 0.126 0.119
3578.637 0.168 0.229 0.251 0.258 0.278 0.318 0.319 0.295 0.183 0.121
3597.929 0.266 0.313 0.195 0.143 0.27 0.25 0.111 0.177 0.23 0.175
3617.220 0.224 0.32 0.229 0.179 0.299 0.319 0.177 0.297 0.364 0.295
3636.512 0.283 0.225 0.305 0.308 0.279 0.288 0.38 0.423 0.277 0.368
3655.804 0.469 0.423 0.388 0.228 0.137 0.32 0.413 0.426 0.444 0.441
3675.096 0.563 0.523 0.42 0.458 0.487 0.391 0.417 0.501 0.416 0.444
3694.388 0.463 0.346 0.258 0.287 0.392 0.437 0.377 0.334 0.393 0.422
3713.680 0.481 0.462 0.382 0.361 0.3 0.402 0.545 0.517 0.418 0.429
3732.972 0.432 0.42 0.325 0.229 0.273 0.319 0.312 0.254 0.4 0.47
3752.263 0.401 0.338 0.333 0.362 0.351 0.401 0.343 0.292 0.288 0.275
3771.555 0.292 0.339 0.415 0.39 0.452 0.452 0.346 0.333 0.27 0.217
3790.847 0.256 0.355 0.4 0.312 0.29 0.362 0.45 0.377 0.264 0.335
3810.139 0.349 0.389 0.385 0.302 0.388 0.496 0.533 0.509 0.492 0.505
3829.431 0.457 0.45 0.42 0.424 0.519 0.473 0.425 0.545 0.538 0.467
3848.723 0.522 0.478 0.407 0.276 0.315 0.458 0.468 0.525 0.554 0.527
3868.014 0.475 0.304 0.272 0.509 0.545 0.451 0.459 0.406 0.478 0.417
3887.306 0.35 0.438 0.404 0.417 0.468 0.429 0.397 0.471 0.353 0.391
3906.598 0.443 0.383 0.475 0.483 0.421 0.39 0.526 0.513 0.389 0.325
3925.890 0.442 0.488 0.389 0.409 0.366 0.403 0.376 0.414 0.427 0.353
3945.182 0.413 0.454 0.399 0.292 0.464 0.504 0.357 0.388 0.525 0.585
3964.474 0.453 0.457 0.634 0.608 0.403 0.425 0.552 0.539 0.479 0.426
3983.766 0.437 0.491 0.613 0.614 0.47 0.478 0.569 0.538 0.393
##END=
