##TITLE=4,5-Dimethyl-o-phenylenediamine
##JCAMP-DX=4.24
##DATA TYPE=INFRARED SPECTRUM
##ORIGIN=EPA-IR VAPOR PHASE LIBRARY
##OWNER=SRD/NIST
Collection (C) 2018 copyright by the U.S. Secretary of Commerce
on behalf of the United States of America. All rights reserved.
##CAS REGISTRY NO=3171-45-7
##MOLFORM=C 8 H 12 N 2
##$NIST SOURCE=MSDC-IR
##STATE=gas
##XUNITS=1/CM
##YUNITS=ABSORBANCE
##XFACTOR=1.
##YFACTOR=0.001
##DELTAX=3.85796
##FIRSTX=501.5
##LASTX=4000.7
##FIRSTY=4.2762
##MAXX=4000.7
##MINX=501.534
##MAXY=0.0260762
##MINY=0
##NPOINTS=908
##XYDATA=(X++(Y..Y))
501.534 4.2762 4.2062 4.2662 4.1762 3.9962 4.0162 3.9862 3.9462 4.0662 4.2862
540.114 4.5362 4.7162 4.8962 5.0962 5.0662 5.0862 5.2062 5.3162 5.5262 5.7262
578.693 5.9262 6.3662 6.9462 7.5262 8.2062 8.9262 9.5662 10.0762 10.3562 10.3462
617.273 10.1762 9.9362 9.7262 9.7062 9.8862 10.0362 10.2262 10.6462 11.0362 11.3162
655.852 11.6962 12.1062 12.4462 12.6962 12.8062 12.6962 12.4662 12.0962 11.5862 10.9662
694.432 10.3162 9.7762 9.3562 9.0562 8.8162 8.7462 8.8162 8.8962 8.9262 8.8762
733.011 8.7162 8.3262 7.8762 7.5162 7.1362 6.7662 6.5162 6.2562 5.9762 5.7662
771.591 5.6262 5.4562 5.2762 5.1462 5.0262 4.9262 4.8362 4.7362 4.5762 4.4962
810.170 4.4762 4.4462 4.4162 4.4262 4.4162 4.4462 4.6762 5.1662 5.9662 6.9262
848.750 7.9162 9.3962 10.7362 10.2062 8.7562 7.6162 6.4662 5.3762 4.4862 3.8562
887.330 3.4462 3.1762 2.9762 2.8662 2.7662 2.6362 2.5562 2.5362 2.5262 2.4262
925.909 2.3962 2.3962 2.3362 2.2962 2.2862 2.3262 2.3462 2.3662 2.4362 2.4862
964.489 2.5062 2.5562 2.6162 2.7562 2.9662 3.2762 3.6462 3.9962 4.2662 4.4062
1003.068 4.3562 4.0562 3.5862 3.1262 2.8362 2.6362 2.4462 2.3862 2.2562 2.1262
1041.648 2.0762 2.0362 2.0162 1.9662 2.0562 2.1562 2.2562 2.3462 2.5362 2.8062
1080.227 2.9162 2.9862 3.0362 3.0962 3.0662 2.7862 2.5362 2.3962 2.3262 2.2362
1118.807 2.1362 2.0362 1.9662 1.9762 2.0062 1.9662 1.8462 1.7862 1.8562 1.8962
1157.387 1.8162 1.7562 1.7262 1.7762 1.9362 2.1462 2.4962 3.0162 3.5062 3.8462
1195.966 4.0162 4.0162 3.7362 3.3862 3.4162 3.7262 4.2862 5.0662 5.8762 6.3062
1234.546 6.1962 5.9562 5.5962 4.8062 4.0162 3.6062 3.5262 3.7962 4.3862 5.4162
1273.125 6.8462 8.2862 9.5862 10.4462 10.7462 10.4362 9.5762 8.5362 7.7062 7.2762
1311.705 7.0562 6.8462 6.4262 5.7662 4.9462 4.0962 3.3162 2.6962 2.2262 1.9262
1350.284 1.7462 1.6262 1.5462 1.5162 1.5262 1.5262 1.5262 1.5262 1.5462 1.5262
1388.864 1.4862 1.4462 1.4562 1.4762 1.5262 1.6562 1.8362 2.0562 2.2562 2.4362
1427.443 2.6362 2.8762 3.1562 3.4862 3.8662 4.3762 4.9762 5.5362 5.8662 5.9262
1466.023 5.8462 5.6962 5.3862 4.9762 4.7262 4.7662 5.1962 6.2662 8.3462 11.7962
1504.603 16.5862 21.7562 25.1562 26.0762 24.6062 20.9362 15.5762 10.5562 7.5762 6.2262
1543.182 5.6562 5.4262 5.3962 5.5062 5.6962 6.0162 6.4462 7.0162 7.7262 8.5262
1581.762 9.2862 9.8862 10.1862 10.1362 9.7962 9.4162 9.2462 9.3462 9.6562 10.0162
1620.341 10.2462 10.2762 10.0262 9.5162 8.8062 8.0162 7.1762 6.1362 5.0662 4.0362
1658.921 3.2262 2.6262 2.2262 1.9962 1.8362 1.7662 1.7462 1.7162 1.7162 1.7362
1697.500 1.7262 1.6862 1.6162 1.5262 1.4462 1.3762 1.2862 1.2262 1.2262 1.2162
1736.080 1.1862 1.1662 1.1662 1.1662 1.1462 1.1262 1.1262 1.1062 1.075 1.0468
1774.659 1.0253 1.0025 0.9758 0.9478 0.9185 0.8878 0.8362 0.8192 0.8144 0.783
1813.239 0.7571 0.7291 0.687 0.661 0.6432 0.6271 0.6218 0.6137 0.5901 0.5689
1851.819 0.5524 0.5551 0.563 0.5572 0.5588 0.5495 0.5438 0.543 0.5234 0.5315
1890.398 0.5456 0.5518 0.5667 0.5536 0.5205 0.5091 0.5123 0.4972 0.4808 0.4924
1928.978 0.4839 0.4573 0.452 0.4391 0.4359 0.4147 0.3962 0.4041 0.4116 0.4126
1967.557 0.4088 0.404 0.4089 0.4111 0.4031 0.3961 0.3888 0.3698 0.3634 0.3659
2006.137 0.3624 0.3895 0.403 0.3837 0.3897 0.3757 0.3424 0.3326 0.3191 0.3165
2044.716 0.3047 0.2986 0.3252 0.3348 0.3221 0.3157 0.3061 0.2827 0.2838 0.2931
2083.296 0.2899 0.3002 0.316 0.3182 0.308 0.3102 0.3212 0.3263 0.3546 0.3798
2121.875 0.3578 0.3303 0.315 0.289 0.2629 0.2849 0.2928 0.2717 0.2952 0.2972
2160.455 0.2693 0.2583 0.2508 0.2449 0.2345 0.2494 0.2707 0.2633 0.2697 0.2945
2199.035 0.3149 0.3121 0.2885 0.2695 0.265 0.2691 0.2755 0.2998 0.3247 0.3387
2237.614 0.3489 0.3321 0.3299 0.3462 0.3241 0.3371 0.374 0.3579 0.3326 0.3241
2276.194 0.3161 0.3051 0.2939 0.3016 0.3035 0.2985 0.3003 0.305 0.3192 0.3143
2314.773 0.2986 0.2831 0.2778 0.2919 0.2858 0.2622 0.2473 0.2324 0.2291 0.2256
2353.353 0.2161 0.214 0.2365 0.2555 0.2546 0.2441 0.2397 0.2547 0.2502 0.2259
2391.932 0.2226 0.2486 0.2745 0.261 0.2471 0.2605 0.2646 0.2441 0.245 0.2476
2430.512 0.225 0.2133 0.2205 0.2236 0.2119 0.2152 0.2264 0.2464 0.2679 0.2609
2469.092 0.258 0.2561 0.2573 0.2649 0.2455 0.2292 0.2197 0.2191 0.1992 0.14264
2507.671 0.13313 0.189 0.16899 0.13422 0.14023 0.13095 0.14283 0.15915 0.16899 0.17298
2546.251 0.1563 0.15335 0.15985 0.13785 0.14708 0.16534 0.1765 0.1832 0.17183 0.192
2584.830 0.214 0.259 0.2945 0.2796 0.2848 0.3049 0.3152 0.3041 0.2578 0.2471
2623.410 0.2694 0.2795 0.2918 0.2605 0.2554 0.256 0.2123 0.2161 0.2321 0.2217
2661.989 0.2308 0.2231 0.2167 0.2403 0.2514 0.2721 0.2719 0.2839 0.3005 0.3015
2700.569 0.3346 0.3692 0.3672 0.3751 0.402 0.4578 0.5359 0.6031 0.6977 0.752
2739.148 0.7264 0.6716 0.6367 0.6298 0.6158 0.5572 0.5254 0.538 0.5233 0.5342
2777.728 0.5582 0.5549 0.5473 0.5399 0.5878 0.6622 0.6962 0.7275 0.7636 0.7956
2816.308 0.879 0.9812 1.0711 1.1762 1.3362 1.4962 1.6562 1.9062 2.2462 2.7062
2854.887 3.2362 3.9362 4.8662 5.8762 6.7362 7.2562 7.4162 7.2562 6.8762 6.4262
2893.467 6.1262 6.0762 6.2262 6.5162 6.8662 7.3762 8.1962 9.3462 10.7062 11.9162
2932.046 12.4962 12.4762 12.0162 11.0662 9.7462 8.3562 7.3962 6.9562 6.7862 6.6862
2970.626 6.4762 6.1662 5.9162 5.6162 5.3762 5.4662 6.1062 7.3062 8.8162 10.0062
3009.205 10.2962 10.1762 9.6762 8.1762 6.1862 4.5662 3.5562 2.9662 2.6562 2.4662
3047.785 2.3162 2.2062 2.0462 1.8762 1.7162 1.6062 1.5162 1.3562 1.2062 1.1162
3086.364 1.0232 0.9416 0.9009 0.8265 0.7574 0.7187 0.6731 0.6518 0.6645 0.6573
3124.944 0.5944 0.5484 0.5229 0.4906 0.473 0.4272 0.3905 0.3898 0.3819 0.3514
3163.524 0.3313 0.317 0.3239 0.3038 0.2528 0.2542 0.2909 0.3282 0.2869 0.2287
3202.103 0.2632 0.2992 0.2801 0.2794 0.2711 0.2277 0.224 0.2447 0.2582 0.2591
3240.683 0.2406 0.2087 0.1829 0.15536 0.12525 0.14866 0.15899 0.14115 0.1896 0.2197
3279.262 0.183 0.2072 0.2144 0.145 0.10929 0.1418 0.1791 0.14779 0.13947 0.15411
3317.842 0.16448 0.16885 0.15549 0.1882 0.2152 0.2494 0.3668 0.4967 0.6841 0.9828
3356.421 1.2462 1.4162 1.5962 1.6462 1.5062 1.3162 1.0962 0.8634 0.6879 0.6037
3395.001 0.5399 0.4072 0.3925 0.4834 0.5143 0.5592 0.6124 0.671 0.8228 1.0587
3433.580 1.3562 1.7162 2.1262 2.4562 2.5962 2.6062 2.5062 2.2162 1.8962 1.6362
3472.160 1.3762 1.1962 1.0621 0.9043 0.788 0.7021 0.6372 0.5958 0.5424 0.5387
3510.740 0.5045 0.4585 0.4379 0.4162 0.3653 0.3647 0.3534 0.2738 0.296 0.3189
3549.319 0.2677 0.2184 0.2258 0.2316 0.2257 0.2286 0.1961 0.16668 0.17118 0.1849
3587.899 0.1932 0.185 0.14794 0.15806 0.2001 0.1886 0.14862 0.177 0.21 0.15004
3626.478 0.12005 0.12522 0.10184 0.07339 0.09407 0.11549 0.12341 0.12941 0.10203 0.11208
3665.058 0.14372 0.10948 0.0605 0.0329 0.0566 0.08979 0.10368 0.1128 0.0641 0.062
3703.637 0.08725 0.086165 0.09593 0.10159 0.0547 0.06877 0.0763297 0.11128 0.17054 0.11459
3742.217 0.12645 0.10696 0.0518 0.0428 0.07008 0.10438 0.09928 0.07181 0.0479 0.08736
3780.797 0.11257 0.0542 0.0021 0 0.0487 0.14456 0.15464 0.08814 0.0302 0.06703
3819.376 0.10306 0.082609 0.09262 0.11384 0.09708 0.085107 0.1009 0.11362 0.11994 0.084178
3857.956 0.0766631 0.12699 0.15602 0.17212 0.15428 0.08922 0.08803 0.09293 0.1071 0.143
3896.535 0.1854 0.16997 0.14092 0.14413 0.11084 0.0586 0.077411 0.14964 0.1421 0.12456
3935.115 0.10971 0.12719 0.14407 0.13706 0.1909 0.14545 0.10528 0.15552 0.1791 0.2295
3973.694 0.1945 0.08821 0.06863 0.12831 0.14452 0.1706 0.2886 0.2452
##END=
