##TITLE=4-Propylheptane
##JCAMP-DX=4.24
##DATA TYPE=INFRARED SPECTRUM
##ORIGIN=NIST Mass Spectrometry Data Center
##OWNER=NIST Standard Reference Data Program
Collection (C) 2018 copyright by the U.S. Secretary of Commerce
on behalf of the United States of America. All rights reserved.
##CAS REGISTRY NO=3178-29-8
##MOLFORM=C 10 H 22
##$NIST SOURCE=MSDC-IR
##SPECTROMETER/DATA SYSTEM=HP-GC/MS/IRD
##STATE=gas
##XUNITS=1/CM
##YUNITS=ABSORBANCE
##XFACTOR=1.0
##YFACTOR=0.000005100
##DELTAX=4.0
##FIRSTX=550.0
##LASTX=3846.0
##FIRSTY=0.000077
##MAXX=3846
##MINX=550
##MAXY=0.051
##MINY=0
##NPOINTS=825
##XYDATA=(X++(Y..Y))
550.0 15 19 13 19 12 6 33 32 14 19
590.0 30 35 33 28 27 24 20 21 24 21
630.0 28 23 13 32 41 36 33 19 13 27
670.0 36 36 31 36 40 33 39 53 54 49
710.0 55 64 83 98 116 140 162 187 206 207
750.0 201 196 186 169 149 138 122 109 97 85
790.0 73 52 51 55 54 51 59 59 38 38
830.0 52 56 50 48 50 49 52 61 67 70
870.0 73 78 87 96 113 136 141 143 143 135
910.0 121 97 79 73 62 54 52 49 50 53
950.0 54 50 45 43 48 47 48 57 64 65
990.0 70 79 81 75 67 60 52 43 40 43
1030.0 53 62 68 72 74 78 80 82 85 86
1070.0 85 81 75 71 63 49 44 44 42 40
1110.0 45 47 50 61 77 94 108 126 141 140
1150.0 130 111 95 78 60 48 40 38 38 37
1190.0 38 41 43 49 57 63 70 75 81 84
1230.0 84 85 90 100 104 107 110 111 115 121
1270.0 120 121 123 121 124 128 131 139 144 148
1310.0 151 155 160 167 182 201 215 224 238 250
1350.0 257 270 288 308 339 390 454 520 570 559
1390.0 479 385 306 257 238 228 219 219 228 249
1430.0 283 342 433 557 712 891 1076 1232 1308 1292
1470.0 1188 983 755 561 403 301 240 201 177 161
1510.0 143 134 128 119 109 102 98 97 93 80
1550.0 75 79 79 72 65 62 61 58 55 52
1590.0 52 51 48 47 44 44 46 47 46 43
1630.0 41 44 43 38 38 42 44 38 36 34
1670.0 37 38 33 31 29 26 28 33 29 26
1710.0 26 24 22 19 18 18 19 19 17 16
1750.0 14 12 12 11 10 13 13 12 13 11
1790.0 10 13 12 12 12 8 9 7 7 7
1830.0 6 9 11 7 7 5 6 10 9 8
1870.0 6 5 6 6 7 8 8 7 8 5
1910.0 6 5 3 4 4 3 3 2 0 1
1950.0 2 1 3 4 2 0 0 0 0 1
1990.0 1 2 2 4 7 4 4 8 10 12
2030.0 13 13 14 17 16 13 12 10 10 7
2070.0 5 7 9 12 10 9 8 6 5 4
2110.0 5 6 6 10 9 6 9 12 11 12
2150.0 11 8 8 9 8 10 12 13 14 12
2190.0 8 9 12 15 14 12 12 15 16 11
2230.0 11 10 9 9 8 12 15 12 11 13
2270.0 15 18 20 16 16 17 13 13 13 12
2310.0 15 18 18 19 21 21 23 27 27 28
2350.0 27 27 34 35 33 33 32 31 32 30
2390.0 27 30 32 31 33 34 33 34 34 33
2430.0 29 25 22 21 22 20 20 23 22 20
2470.0 20 23 19 18 21 24 27 29 29 31
2510.0 32 35 35 35 39 41 40 41 45 46
2550.0 44 48 57 62 63 68 72 75 78 76
2590.0 79 82 83 85 85 85 85 88 91 90
2630.0 90 93 97 97 102 107 109 114 115 115
2670.0 119 121 118 121 123 126 127 127 131 138
2710.0 147 155 163 173 184 197 213 228 233 232
2750.0 224 214 209 214 222 232 242 253 266 285
2790.0 308 333 363 394 422 453 489 529 577 639
2830.0 722 824 974 1209 1532 1937 2395 2853 3282 3719
2870.0 4227 4739 5058 5099 4891 4543 4264 4274 4614 5163
2910.0 5800 6426 7021 7619 8203 8676 8881 8690 8146 7492
2950.0 7119 7420 8433 9568 10000 9166 7309 5247 3560 2480
2990.0 1868 1504 1268 1106 985 891 817 757 708 665
3030.0 615 567 518 467 422 383 353 330 310 291
3070.0 271 259 249 241 235 224 213 205 196 188
3110.0 181 172 164 164 162 154 148 147 139 130
3150.0 132 132 128 119 113 113 114 113 109 107
3190.0 100 88 86 82 75 70 65 58 53 51
3230.0 52 52 48 43 37 34 37 37 35 37
3270.0 32 31 40 40 39 36 34 31 30 30
3310.0 28 30 29 31 28 27 31 27 24 25
3350.0 28 23 20 24 22 16 19 24 31 33
3390.0 26 22 24 24 22 22 18 16 17 17
3430.0 14 15 21 23 22 22 19 16 13 17
3470.0 22 20 13 15 17 19 21 18 17 12
3510.0 8 10 14 16 16 17 13 10 8 13
3550.0 19 17 14 16 15 15 16 15 15 18
3590.0 17 22 26 24 27 27 27 24 26 30
3630.0 30 31 34 39 39 42 41 38 37 34
3670.0 38 41 38 36 43 40 33 33 37 44
3710.0 41 39 45 45 39 41 39 36 38 45
3750.0 48 45 48 46 41 43 45 47 46 41
3790.0 41 45 48 46 46 48 51 44 36 34
3830.0 38 42 39 40 40
##END=
