##TITLE=3-Methoxy-.beta.-nitrostyrene
##JCAMP-DX=4.24
##DATA TYPE=INFRARED SPECTRUM
##ORIGIN=EPA-IR VAPOR PHASE LIBRARY
##OWNER=SRD/NIST
Collection (C) 2018 copyright by the U.S. Secretary of Commerce
on behalf of the United States of America. All rights reserved.
##CAS REGISTRY NO=3179-09-7
##MOLFORM=C 9 H 9 N O 2
##$NIST SOURCE=MSDC-IR
##STATE=gas
##XUNITS=1/CM
##YUNITS=ABSORBANCE
##XFACTOR=1.
##YFACTOR=0.001
##DELTAX=1.92898
##FIRSTX=549.8
##LASTX=4000.7
##FIRSTY=2.027
##MAXX=4000.7
##MINX=549.759
##MAXY=0.181367
##MINY=0
##NPOINTS=1790
##XYDATA=(X++(Y..Y))
549.759 2.027 2.557 2.947 3.137 3.207 3.247 3.567 3.557 3.417 3.517
569.049 3.927 4.267 4.287 4.267 4.677 5.477 6.617 8.077 9.617 11.337
588.339 13.067 14.717 16.107 17.097 17.177 16.427 15.217 13.747 11.987 9.817
607.628 7.467 5.647 4.487 3.667 3.127 2.637 2.277 1.957 1.987 2.097
626.918 1.917 1.777 1.797 1.897 1.847 1.827 1.897 1.887 1.917 2.167
646.208 2.467 2.347 2.137 2.467 2.727 2.917 3.317 3.647 4.327 5.317
665.498 6.457 7.757 9.067 10.367 11.737 13.177 14.387 15.087 15.497 15.437
684.787 15.067 14.477 13.817 13.227 12.397 11.587 11.237 11.207 11.217 11.417
704.077 12.327 13.977 16.277 19.547 24.077 29.237 33.817 36.507 36.697 35.247
723.367 32.257 27.217 20.957 15.307 11.367 8.917 7.327 6.187 5.317 4.777
742.657 4.457 4.277 4.167 4.327 4.587 4.657 5.147 5.747 6.397 7.357
761.947 8.537 10.227 12.307 14.547 16.927 19.777 22.977 25.577 27.457 28.697
781.236 29.587 30.237 29.427 26.617 23.477 20.737 17.807 14.917 12.527 10.467
800.526 8.747 7.627 6.747 5.937 5.437 5.137 4.807 4.987 5.407 5.557
819.816 5.867 6.697 7.897 9.297 10.707 12.047 13.387 14.917 16.177 16.857
839.106 16.597 15.857 15.147 14.057 12.817 11.797 10.567 9.437 8.747 8.327
858.395 8.187 7.927 7.757 7.807 7.857 8.027 8.417 8.727 8.627 8.347
877.685 8.267 8.017 7.857 7.847 7.607 7.327 6.897 6.577 6.217 5.677
896.975 5.417 5.297 5.277 5.177 5.097 5.217 5.357 5.597 5.907 6.297
916.265 6.677 7.177 7.967 8.667 9.387 10.327 11.417 12.667 14.027 15.487
935.555 17.067 18.907 21.167 23.437 25.747 28.497 31.337 34.057 36.837 39.507
954.844 41.877 43.797 45.087 45.397 44.747 43.327 41.217 38.237 34.317 30.117
974.134 26.017 22.337 19.047 16.137 13.817 12.157 10.937 10.027 9.657 9.427
993.424 9.247 8.867 8.367 8.027 7.827 7.597 7.267 7.167 7.347 7.717
1012.714 8.087 8.557 8.967 9.837 11.187 12.767 14.627 16.617 19.007 21.807
1032.003 24.597 27.577 30.587 33.687 36.557 38.667 40.817 42.427 43.237 43.757
1051.293 43.467 41.487 38.987 35.777 31.437 26.827 22.227 17.887 14.467 12.147
1070.583 10.397 9.537 9.127 9.077 9.087 8.797 8.837 8.667 8.427 8.107
1089.873 7.567 7.327 7.257 6.297 5.557 5.367 4.587 4.057 3.987 4.097
1109.163 4.137 4.407 4.267 3.877 4.077 4.287 4.237 4.127 4.087 4.617
1128.452 5.267 5.657 6.047 6.527 7.227 8.077 9.527 11.547 13.947 17.147
1147.742 20.407 23.787 27.487 30.807 33.057 34.477 35.307 34.687 32.997 30.837
1167.032 28.247 25.767 23.527 21.237 19.097 17.327 16.027 14.887 14.157 13.697
1186.322 13.317 13.227 13.097 13.107 13.127 12.927 13.477 14.297 15.637 17.717
1205.611 20.047 23.277 27.097 31.377 35.897 39.937 43.467 46.487 48.867 50.887
1224.901 52.367 52.967 52.837 51.877 49.897 46.817 42.617 37.827 33.087 28.917
1244.191 25.947 24.317 23.947 24.807 27.327 31.397 37.097 45.207 55.557 67.667
1263.481 80.657 92.407 101.617 107.927 110.537 109.027 103.627 96.377 89.417 83.907
1282.771 80.627 79.417 79.357 79.787 80.237 80.227 79.197 77.137 74.287 70.857
1302.060 67.417 64.227 61.497 59.227 57.137 54.997 52.747 50.407 48.027 46.017
1321.350 44.707 44.227 44.667 46.147 48.777 52.597 57.707 64.427 73.207 84.517
1340.640 98.797 116.207 135.817 155.377 171.427 180.587 181.367 173.447 156.887 132.747
1359.930 104.877 78.877 58.307 43.657 33.567 26.737 22.117 18.907 16.607 14.967
1379.219 13.797 12.977 12.367 11.827 11.347 10.897 10.507 10.287 10.147 10.157
1398.509 10.377 10.687 11.177 11.797 12.457 13.197 14.097 15.267 16.647 18.367
1417.799 20.547 23.247 26.397 29.907 33.667 37.307 40.497 42.827 43.887 43.657
1437.089 42.247 39.657 36.397 33.077 30.097 27.877 26.697 26.457 26.977 27.947
1456.378 29.237 30.707 32.257 33.847 35.307 36.677 37.807 38.837 40.077 41.727
1475.668 43.597 45.737 48.447 51.787 55.227 57.967 59.637 59.937 58.517 55.417
1494.958 51.057 46.287 41.877 38.197 35.847 34.877 35.007 35.927 37.297 38.967
1514.248 40.717 42.547 44.707 47.427 51.107 55.967 62.237 69.947 79.137 89.497
1533.538 100.637 111.537 120.587 127.047 130.177 130.167 127.817 123.117 115.387 105.277
1552.827 95.287 86.647 80.177 75.787 73.307 72.757 73.777 76.087 79.187 82.647
1572.117 86.247 89.517 92.067 93.737 94.517 94.337 93.317 91.627 89.377 86.967
1591.407 84.697 82.417 80.167 77.717 74.747 71.047 66.437 61.267 55.657 49.697
1610.697 43.757 38.097 33.007 28.557 24.837 22.027 20.087 18.877 18.627 19.187
1629.986 20.327 22.167 24.657 27.527 30.357 32.737 34.207 34.417 33.297 30.897
1649.276 27.427 23.377 19.187 15.817 13.437 11.757 10.667 10.027 9.537 9.067
1668.566 8.717 8.377 7.957 7.527 7.137 6.787 6.447 6.057 5.667 5.367
1687.856 5.007 4.657 4.477 4.297 4.027 3.867 3.737 3.547 3.427 3.377
1707.146 3.337 3.337 3.427 3.447 3.437 3.427 3.357 3.307 3.267 3.187
1726.435 3.137 3.127 3.057 2.967 3.007 3.067 3.057 3.067 3.057 3.077
1745.725 3.077 3.007 2.937 2.867 2.837 2.797 2.687 2.597 2.507 2.447
1765.015 2.427 2.437 2.517 2.537 2.497 2.507 2.517 2.447 2.407 2.467
1784.305 2.477 2.427 2.387 2.377 2.387 2.367 2.317 2.247 2.227 2.177
1803.594 2.087 2.017 1.887 1.797 1.837 1.827 1.777 1.777 1.807 1.877
1822.884 1.947 1.987 1.997 2.017 2.047 2.167 2.307 2.327 2.327 2.327
1842.174 2.367 2.397 2.447 2.527 2.577 2.537 2.487 2.467 2.327 2.277
1861.464 2.237 2.157 2.117 2.027 1.967 1.977 1.977 1.997 2.037 2.037
1880.754 1.977 1.937 1.957 1.987 2.017 2.027 2.017 2.057 2.047 2.037
1900.043 2.157 2.267 2.347 2.437 2.537 2.707 2.877 2.967 3.087 3.217
1919.333 3.307 3.407 3.467 3.457 3.417 3.417 3.357 3.227 3.107 3.017
1938.623 2.877 2.707 2.537 2.377 2.257 2.187 2.077 1.927 1.827 1.767
1957.913 1.707 1.667 1.687 1.687 1.677 1.707 1.687 1.677 1.727 1.777
1977.202 1.877 1.897 1.917 2.007 2.037 2.057 2.097 2.107 2.097 2.067
1996.492 1.987 1.947 1.947 1.947 1.897 1.847 1.817 1.787 1.767 1.747
2015.782 1.707 1.707 1.727 1.697 1.677 1.657 1.697 1.727 1.707 1.727
2035.072 1.707 1.647 1.647 1.677 1.687 1.617 1.647 1.757 1.807 1.827
2054.362 1.877 1.957 2.007 2.027 2.057 2.067 2.097 2.197 2.277 2.287
2073.651 2.277 2.327 2.317 2.267 2.227 2.187 2.207 2.187 2.217 2.187
2092.941 2.087 2.047 1.977 1.907 1.887 1.787 1.677 1.647 1.597 1.567
2112.231 1.527 1.389 1.3562 1.3538 1.3098 1.2722 1.2121 1.1813 1.1932 1.183
2131.521 1.1469 1.1448 1.1705 1.2022 1.1301 1.0707 1.111 1.1838 1.1884 1.1875
2150.810 1.1619 1.1138 1.1385 1.1359 1.1421 1.1751 1.1324 1.151 1.169 1.1895
2170.100 1.2106 1.1355 1.1041 1.0797 1.087 1.0723 1.0589 1.086 1.1235 1.102
2189.390 1.1391 1.2609 1.257 1.2022 1.2297 1.2685 1.2994 1.3739 1.3972 1.3837
2208.680 1.3485 1.2778 1.2401 1.2882 1.3159 1.2799 1.195 1.1493 1.2037 1.2041
2227.970 1.1118 1.0469 1.1604 1.2359 1.1725 1.1236 1.0632 1.066 1.1312 1.0588
2247.259 1.0229 1.0315 1.0409 1.141 1.1387 1.0392 1.0287 1.127 1.1522 1.1284
2266.549 1.1562 1.1439 1.138 1.1154 1.1257 1.204 1.2654 1.2956 1.3327 1.4158
2285.839 1.4345 1.4319 1.4747 1.4851 1.497 1.537 1.587 1.627 1.587 1.577
2305.129 1.697 1.787 1.787 1.757 1.757 1.787 1.747 1.707 1.677 1.667
2324.418 1.667 1.617 1.507 1.3826 1.4052 1.4273 1.4185 1.3599 1.244 1.2213
2343.708 1.2317 1.2435 1.2246 1.188 1.1544 1.0903 1.1124 1.0832 1.0626 1.1796
2362.998 1.1841 1.1563 1.1736 1.153 1.101 1.0866 1.1278 1.1269 1.1655 1.1398
2382.288 1.0621 1.1469 1.1365 1.0709 1.0837 1.1151 1.1182 1.0783 1.0657 1.0524
2401.578 0.9908 0.9353 1.0113 0.9853 0.898 0.934 0.9371 0.913 0.9073 0.8762
2420.867 0.9644 1.1109 1.0781 1.0359 1.0671 1.1182 1.1349 1.1491 1.1844 1.2346
2440.157 1.2285 1.2121 1.2231 1.2122 1.2382 1.3142 1.3268 1.2845 1.2556 1.2486
2459.447 1.3738 1.3936 1.3363 1.2914 1.2783 1.3156 1.3188 1.3149 1.3143 1.3708
2478.737 1.4677 1.4705 1.527 1.557 1.485 1.547 1.647 1.737 1.727 1.707
2498.026 1.737 1.737 1.687 1.717 1.787 1.807 1.827 1.817 1.817 1.827
2517.316 1.807 1.727 1.667 1.627 1.567 1.607 1.617 1.547 1.587 1.637
2536.606 1.617 1.597 1.587 1.607 1.617 1.687 1.807 1.797 1.677 1.707
2555.896 1.747 1.817 1.857 1.777 1.837 1.867 1.887 2.007 2.007 1.967
2575.186 1.987 1.987 2.007 2.067 2.087 2.147 2.167 2.097 2.087 2.117
2594.475 2.037 1.997 1.997 2.007 2.017 1.937 1.877 1.907 1.927 1.927
2613.765 1.817 1.647 1.647 1.637 1.627 1.577 1.4746 1.3973 1.3233 1.3334
2633.055 1.3265 1.3645 1.3524 1.2653 1.2153 1.1805 1.2207 1.2079 1.1436 1.0891
2652.345 1.1269 1.2154 1.162 1.0849 1.0876 1.0727 0.992 0.9966 1.0523 0.9915
2671.634 0.9617 1.0655 1.1383 1.1435 1.1909 1.2418 1.2705 1.2432 1.3107 1.4478
2690.924 1.409 1.3982 1.3647 1.3226 1.3301 1.2964 1.2647 1.2879 1.2269 1.0821
2710.214 1.1002 1.1771 1.209 1.2324 1.2385 1.1713 1.0714 1.1129 1.1868 1.1667
2729.504 1.0999 1.0446 1.1188 1.1603 1.1624 1.1878 1.1929 1.2278 1.2722 1.2867
2748.794 1.2712 1.3426 1.3184 1.3186 1.3621 1.3171 1.3456 1.4589 1.4869 1.4138
2768.083 1.4562 1.4593 1.4067 1.4415 1.517 1.537 1.607 1.667 1.697 1.737
2787.373 1.777 1.827 1.837 1.937 2.127 2.257 2.277 2.357 2.487 2.607
2806.663 2.737 2.927 3.067 3.057 3.157 3.427 3.687 4.027 4.357 4.717
2825.953 5.097 5.567 6.327 7.097 8.087 9.277 10.567 12.067 13.537 14.687
2845.242 15.407 15.817 15.687 15.017 14.047 12.907 11.797 10.877 10.177 9.637
2864.532 9.237 8.907 8.767 8.767 8.837 9.007 9.167 9.217 9.227 9.307
2883.822 9.367 9.397 9.367 9.327 9.377 9.387 9.427 9.537 9.687 9.797
2903.112 9.977 10.357 10.617 10.857 11.417 11.977 12.347 12.627 12.917 13.327
2922.401 13.537 13.587 13.567 13.497 13.617 13.947 14.477 15.307 16.437 17.907
2941.691 19.547 21.287 22.747 23.507 23.937 24.117 23.857 23.117 21.937 20.777
2960.981 19.917 19.217 18.267 16.997 15.887 14.827 13.697 12.717 11.827 11.047
2980.271 10.397 9.877 9.567 9.297 9.197 9.327 9.567 9.937 10.417 11.187
2999.561 12.027 13.047 14.487 16.077 17.607 18.957 19.747 19.627 18.847 17.817
3018.850 16.177 14.047 12.077 10.507 9.517 8.877 8.447 8.177 7.937 7.837
3038.140 7.707 7.677 7.837 7.877 7.907 7.917 7.977 8.087 8.377 8.727
3057.430 9.047 9.587 10.017 10.427 10.877 11.307 11.707 11.977 12.357 12.577
3076.720 12.477 12.357 12.057 11.457 10.647 9.777 8.977 8.187 7.457 6.947
3096.009 6.667 6.507 6.507 6.657 6.907 7.347 7.907 8.307 8.547 8.727
3115.299 8.517 8.117 7.557 6.487 5.267 4.287 3.417 2.747 2.377 2.087
3134.589 1.937 1.677 1.537 1.587 1.4785 1.487 1.4192 1.3152 1.2377 1.1612
3153.879 1.2033 1.2228 1.1967 1.1535 1.2034 1.1454 1.0265 1.0833 1.0427 1.0289
3173.169 1.1423 1.1116 1.028 1.0155 1.0253 1.0463 1.0794 1.1024 1.05 0.8702
3192.458 0.9051 0.9224 0.8843 0.7766 0.6462 0.6663 0.6036 0.50366 0.56422 0.6237
3211.748 0.6905 0.7857 0.7411 0.707 0.7707 0.6775 0.52292 0.4433 0.4176 0.52809
3231.038 0.55753 0.6919 0.8713 0.8364 0.7395 0.7548 0.7867 0.7516 0.6016 0.47968
3250.328 0.4268 0.488259 0.54639 0.490588 0.6094 0.56296 0.4595 0.386 0.384 0.486956
3269.617 0.357 0.339 0.489469 0.4534 0.4586 0.5952 0.487517 0.47742 0.4596 0.299
3288.907 0.31 0.349 0.365 0.361 0.324 0.381 0.367 0.4677 0.51189 0.378
3308.197 0.4661 0.56871 0.383 0.334 0.4449 0.381 0.4606 0.6126 0.53922 0.388
3327.487 0.385 0.4322 0.4319 0.4664 0.3983 0.4105 0.53976 0.4741 0.296 0.3
3346.777 0.367 0.3871 0.56947 0.51794 0.4001 0.48511 0.50462 0.52342 0.49769 0.4502
3366.066 0.3966 0.294 0.23 0.186 0.286 0.486605 0.4642 0.328 0.266 0.205
3385.356 0.227 0.198 0.262 0.4279 0.4529 0.315 0.209 0.363 0.318 0.184
3404.646 0.228 0.272 0.268 0.301 0.311 0.257 0.328 0.356 0.298 0.269
3423.936 0.312 0.352 0.4197 0.490175 0.56517 0.53533 0.322 0.125 0.097 0.208
3443.225 0.177 0.246 0.265 0.192 0.169 0.222 0.308 0.17 0.135 0.082
3462.515 0.139 0.336 0.265 0.306 0.48382 0.4226 0.238 0.196 0.2 0.13
3481.805 0.329 0.4569 0.323 0.332 0.274 0.271 0.377 0.349 0.092 0.089
3501.095 0.246 0.291 0.304 0.242 0.241 0.167 0.197 0.234 0.258 0.204
3520.385 0.281 0.372 0.311 0.289 0.117 0 0.064 0.258 0.252 0.154
3539.674 0.144 0.192 0.4589 0.4584 0.111 0.062 0.279 0.185 0.2 0.217
3558.964 0.307 0.4436 0.374 0.492402 0.3927 0.4107 0.48309 0.56457 0.56705 0.3944
3578.254 0.283 0.243 0.311 0.275 0.165 0.116 0.202 0.159 0.064 0.152
3597.544 0.218 0.269 0.274 0.339 0.292 0.206 0.214 0.241 0.292 0.286
3616.833 0.325 0.4469 0.4045 0.277 0.332 0.323 0.4016 0.4261 0.36 0.385
3636.123 0.369 0.353 0.441 0.53665 0.56935 0.4691 0.354 0.256 0.284 0.46
3655.413 0.48389 0.41 0.3977 0.4486 0.379 0.344 0.192 0.208 0.47987 0.3891
3674.703 0.209 0.21 0.257 0.248 0.348 0.49709 0.4373 0.4492 0.496341 0.313
3693.993 0.243 0.348 0.334 0.346 0.4358 0.51234 0.4078 0.296 0.24 0.29
3713.282 0.343 0.291 0.348 0.287 0.268 0.3984 0.4704 0.495997 0.50955 0.4384
3732.572 0.28 0.2 0.16 0.095 0.107 0.232 0.261 0.257 0.33 0.254
3751.862 0.277 0.3973 0.57772 0.5878 0.355 0.296 0.4624 0.4413 0.381 0.55693
3771.152 0.495966 0.318 0.262 0.355 0.4275 0.4468 0.47882 0.4643 0.4536 0.428
3790.441 0.386 0.289 0.201 0.323 0.356 0.377 0.4483 0.4209 0.4404 0.354
3809.731 0.295 0.345 0.364 0.4197 0.4756 0.4699 0.50689 0.57756 0.6716 0.5532
3829.021 0.4231 0.343 0.383 0.3954 0.219 0.352 0.3986 0.377 0.487335 0.48359
3848.311 0.4599 0.51098 0.6346 0.6189 0.50333 0.4604 0.50723 0.54419 0.4338 0.296
3867.601 0.36 0.377 0.22 0.303 0.4251 0.3964 0.31 0.287 0.4176 0.4423
3886.890 0.4512 0.53262 0.5075 0.4269 0.53108 0.6872 0.677 0.5938 0.48119 0.4446
3906.180 0.48475 0.491533 0.4649 0.4631 0.56882 0.4584 0.273 0.376 0.4696 0.48343
3925.470 0.55614 0.52901 0.495792 0.50736 0.372 0.416 0.4433 0.387 0.4198 0.4088
3944.760 0.4241 0.342 0.274 0.3997 0.57062 0.486976 0.4128 0.456 0.4006 0.4531
3964.049 0.4482 0.53349 0.56456 0.54695 0.4631 0.322 0.4996 0.55717 0.374 0.4398
3983.339 0.55105 0.6122 0.7335 0.7421 0.6176 0.53514 0.51258 0.4688 0.53701 0.7107
##END=
