##TITLE=1,3-Bis(methylthio)-2-methoxypropane
##JCAMP-DX=4.24
##DATA TYPE=INFRARED SPECTRUM
##ORIGIN=EPA-IR VAPOR PHASE LIBRARY
##OWNER=SRD/NIST
Collection (C) 2018 copyright by the U.S. Secretary of Commerce
on behalf of the United States of America. All rights reserved.
##CAS REGISTRY NO=31805-84-2
##MOLFORM=C 6 H 14 O S 2
##$NIST SOURCE=MSDC-IR
##STATE=gas
##XUNITS=1/CM
##YUNITS=ABSORBANCE
##XFACTOR=1.
##YFACTOR=0.001
##DELTAX=1.92898
##FIRSTX=549.8
##LASTX=4000.7
##FIRSTY=0.7364
##MAXX=4000.7
##MINX=549.759
##MAXY=0.129694
##MINY=0
##NPOINTS=1790
##XYDATA=(X++(Y..Y))
549.759 0.7364 0.7948 1.0501 1.1574 0.5914 0.1998 0.6497 0.8485 1.1551 1.584
569.049 1.444 1.1435 1.344 2.054 2.064 1.344 0.4565 0.4262 0.909 1.1589
588.339 0.9136 0.6576 1.1721 1.0817 0.9843 0.8686 0.4908 0.5646 0.6755 0.5293
607.628 0.3721 0.4711 0.4066 0.24469 0.029 0 0.31243 0.24656 0.3153 0.4209
626.918 0.4945 0.5223 0.3247 0.3426 0.6361 0.915 0.7883 0.6288 0.6548 0.718
646.208 0.8321 0.8313 0.7466 0.6478 0.9076 0.9641 0.7908 0.8646 1.0695 1.254
665.498 1.304 1.564 1.744 1.864 1.734 1.464 1.694 1.824 1.944 2.354
684.787 2.554 2.654 2.774 2.874 2.984 3.064 3.084 3.154 3.094 3.224
704.077 3.094 2.954 2.994 2.754 2.704 2.634 2.514 2.234 2.154 2.374
723.367 2.474 2.564 2.374 2.234 2.114 2.064 2.364 2.704 2.734 2.134
742.657 2.294 2.734 2.784 3.084 3.424 3.764 4.264 4.894 5.334 5.904
761.947 6.394 6.854 7.284 7.444 7.394 7.234 6.964 6.464 6.054 5.814
781.236 5.534 5.064 4.794 4.754 4.844 4.874 4.744 4.594 4.294 4.174
800.526 4.294 4.214 4.054 3.814 3.544 3.314 2.974 3.154 3.584 3.654
819.816 3.544 3.624 3.834 4.124 4.214 4.344 4.284 4.194 4.304 4.234
839.106 3.954 3.544 3.514 3.664 3.674 3.334 3.114 3.074 2.894 2.704
858.395 2.434 2.374 2.414 2.314 2.304 2.164 1.894 1.814 1.794 1.884
877.685 1.914 1.944 1.924 1.974 2.154 2.224 2.184 2.284 2.254 2.104
896.975 2.224 2.344 2.614 3.014 3.044 3.064 3.144 3.304 3.724 3.904
916.265 4.224 4.454 4.754 5.124 5.454 5.864 6.334 6.654 6.834 7.234
935.555 7.614 8.244 8.854 9.074 9.714 10.334 10.784 11.684 12.264 12.504
954.844 12.584 12.764 13.394 13.594 13.284 13.114 12.684 12.224 12.004 11.814
974.134 11.774 11.714 11.674 11.724 11.914 12.134 12.384 12.854 12.974 13.144
993.424 13.674 13.934 14.394 15.024 15.214 15.314 15.614 15.534 14.994 14.614
1012.714 14.494 14.444 13.854 13.334 13.024 12.464 12.134 11.894 11.854 11.884
1032.003 11.804 11.914 11.714 11.734 12.294 12.894 12.964 13.124 13.894 14.544
1051.293 15.234 16.134 17.514 18.854 20.474 22.134 23.704 25.824 27.554 29.404
1070.583 32.034 34.574 38.084 42.184 46.694 51.894 57.514 63.194 70.054 78.444
1089.873 86.964 96.094 105.574 114.164 120.804 126.214 129.494 129.694 127.984 123.724
1109.163 117.714 110.174 100.334 89.524 78.644 69.184 61.504 54.564 49.464 45.244
1128.452 40.264 36.694 35.214 33.544 31.574 29.714 27.614 26.054 25.724 24.814
1147.742 22.994 22.304 21.904 21.504 21.064 20.214 19.304 18.724 18.674 18.634
1167.032 19.194 20.244 20.794 21.354 22.234 22.944 23.784 24.514 24.574 24.114
1186.322 24.014 24.574 24.934 24.754 24.334 23.834 23.264 23.344 23.254 22.764
1205.611 22.284 21.604 20.984 20.754 20.714 20.004 19.714 19.024 18.114 17.954
1224.901 17.274 16.314 15.824 15.644 15.284 15.634 15.184 14.264 14.034 13.354
1244.191 13.244 13.614 13.464 13.174 13.334 13.734 13.724 13.024 12.914 12.914
1263.481 12.134 11.614 11.144 10.714 10.034 9.284 8.924 8.724 8.434 7.914
1282.771 7.344 6.944 6.864 6.824 6.674 6.554 6.624 6.634 6.754 7.134
1302.060 7.564 8.104 8.694 9.474 10.394 11.454 12.654 13.824 14.754 15.574
1321.350 16.234 16.654 17.064 17.374 17.594 17.854 18.154 18.574 19.254 19.974
1340.640 20.644 21.224 21.464 21.324 20.754 19.994 19.084 17.944 16.644 15.444
1359.930 14.324 13.024 11.844 10.814 9.764 8.794 8.034 7.464 7.044 6.664
1379.219 6.424 6.344 6.324 6.434 6.674 7.084 7.594 8.184 8.874 9.714
1398.509 10.684 11.854 13.274 14.664 16.004 17.364 18.754 20.154 21.404 22.714
1417.799 24.094 25.464 26.674 27.744 28.594 29.384 30.044 30.474 30.854 31.064
1437.089 31.074 30.834 30.294 29.574 28.724 27.624 26.084 24.254 22.484 20.724
1456.378 19.034 17.474 16.044 14.904 13.914 12.964 12.134 11.354 10.624 9.984
1475.668 9.384 8.704 8.134 7.674 7.114 6.714 6.304 5.904 5.624 5.324
1494.958 5.184 4.974 4.754 4.564 4.324 4.164 4.084 3.994 3.904 3.814
1514.248 3.694 3.624 3.594 3.584 3.574 3.514 3.414 3.304 3.274 3.294
1533.538 3.314 3.254 3.114 3.094 3.214 3.294 3.254 3.164 3.024 3.054
1552.827 3.054 2.994 3.064 2.984 2.954 3.004 2.884 2.824 2.884 2.974
1572.117 2.944 2.844 2.864 2.744 2.664 2.744 2.704 2.694 2.694 2.644
1591.407 2.474 2.344 2.374 2.394 2.364 2.274 2.104 2.014 1.984 1.874
1610.697 1.924 1.934 1.824 1.834 1.754 1.644 1.624 1.524 1.434 1.444
1629.986 1.444 1.484 1.404 1.344 1.384 1.284 1.244 1.224 1.2014 1.254
1649.276 1.294 1.254 1.1777 1.1773 1.0491 0.9181 0.9629 1.0033 0.9356 0.9573
1668.566 0.9304 0.8106 0.7582 0.7561 0.8112 0.8104 0.7231 0.7176 0.7596 0.7451
1687.856 0.7525 0.7534 0.7609 0.7403 0.6578 0.651 0.787 0.804 0.7217 0.6532
1707.146 0.6647 0.7555 0.7148 0.7265 0.8191 0.7924 0.7141 0.7876 0.664 0.574
1726.435 0.6365 0.4727 0.5043 0.6436 0.6672 0.6024 0.6024 0.6933 0.593 0.5786
1745.725 0.6401 0.5943 0.6185 0.6263 0.5585 0.4888 0.4605 0.5099 0.5982 0.6296
1765.015 0.579 0.5574 0.5136 0.5646 0.6688 0.5355 0.4973 0.6224 0.6097 0.5828
1784.305 0.516 0.4577 0.4313 0.4002 0.4643 0.4461 0.4453 0.503 0.5096 0.633
1803.594 0.6282 0.5363 0.5835 0.574 0.542 0.4764 0.469 0.5371 0.5984 0.5411
1822.884 0.5351 0.5626 0.5322 0.5989 0.6899 0.6614 0.6223 0.6457 0.7443 0.776
1842.174 0.7309 0.7222 0.7282 0.8162 0.727 0.6309 0.6696 0.7428 0.8275 0.948
1861.464 0.8772 0.8338 1.0082 1.0668 1.0458 1.0282 1.1051 1.1524 1.208 1.214
1880.754 1.264 1.384 1.394 1.384 1.324 1.284 1.334 1.394 1.404 1.364
1900.043 1.334 1.384 1.334 1.224 1.1926 1.214 1.234 1.1509 1.1382 1.1996
1919.333 1.1405 1.0953 1.1357 1.0925 1.0753 1.0738 0.9733 0.9305 1.0086 1.0634
1938.623 1.0436 0.981 0.924 0.9117 0.9732 1.0756 1.0081 0.907 0.896 0.9174
1957.913 0.901 0.9265 0.9582 0.9062 0.8644 0.8316 0.7793 0.8109 0.9377 0.9989
1977.202 1.0433 1.0404 0.9716 0.954 0.9517 1.0056 1.1015 1.1674 1.1883 1.1367
1996.492 1.1164 1.191 1.224 1.1687 1.1534 1.274 1.314 1.334 1.474 1.464
2015.782 1.404 1.394 1.444 1.484 1.444 1.484 1.614 1.694 1.574 1.564
2035.072 1.704 1.674 1.644 1.554 1.494 1.574 1.624 1.614 1.494 1.404
2054.362 1.394 1.424 1.484 1.404 1.354 1.294 1.264 1.314 1.314 1.354
2073.651 1.404 1.374 1.354 1.314 1.334 1.434 1.314 1.244 1.284 1.374
2092.941 1.454 1.474 1.484 1.464 1.434 1.414 1.464 1.514 1.544 1.394
2112.231 1.354 1.364 1.324 1.314 1.284 1.244 1.1151 1.1074 1.264 1.374
2131.521 1.414 1.364 1.304 1.274 1.2086 1.2112 1.1959 1.1867 1.1658 1.1365
2150.810 1.1649 1.1542 1.244 1.344 1.264 1.214 1.1701 1.1996 1.254 1.234
2170.100 1.1807 1.274 1.394 1.294 1.1838 1.18 1.234 1.294 1.344 1.304
2189.390 1.1409 1.0854 1.1431 1.1328 1.144 1.1965 1.1677 1.127 1.1696 1.1689
2208.680 1.0877 1.0252 0.9887 1.001 1.0559 1.0475 1.0094 0.9782 0.9758 0.932
2227.970 0.8114 0.8334 0.817 0.7815 0.8617 0.7598 0.8635 0.9405 0.8263 0.8936
2247.259 0.9631 0.9182 0.8931 0.9323 0.9257 0.9898 0.9184 0.8984 0.9921 1.0836
2266.549 1.1313 1.0131 0.8791 0.9624 1.0077 0.9305 0.9663 0.9644 0.9137 0.8969
2285.839 0.833 0.8425 0.8342 0.775 0.7581 0.6807 0.7265 0.7492 0.6405 0.5771
2305.129 0.6649 0.7228 0.7815 0.8348 0.7606 0.7147 0.741 0.6651 0.5928 0.7008
2324.418 0.754 0.7358 0.7771 0.7575 0.7707 0.8725 0.7777 0.6811 0.7341 0.7682
2343.708 0.7404 0.6645 0.6898 0.7015 0.7674 0.8891 0.8842 0.8963 0.7913 0.795
2362.998 0.9062 1.0008 0.9048 0.7589 0.8197 0.8234 0.8746 0.865 0.8275 1.03
2382.288 1.1163 0.9736 1.0798 1.0342 0.8223 0.8939 0.9655 0.9955 0.9446 0.8153
2401.578 0.9247 0.9489 0.8795 0.9725 0.9917 0.9552 0.9332 0.8926 0.8334 0.746
2420.867 0.7062 0.8035 0.8594 0.7857 0.7833 0.8151 0.7561 0.6904 0.6772 0.7054
2440.157 0.7716 0.7868 0.6812 0.6855 0.7148 0.6984 0.807 0.9015 0.8182 0.6988
2459.447 0.65 0.6621 0.6869 0.708 0.7983 0.8083 0.7888 0.8209 0.7708 0.6929
2478.737 0.7539 0.6968 0.6263 0.738 0.727 0.7164 0.7093 0.6468 0.6392 0.5998
2498.026 0.4887 0.5331 0.6978 0.7452 0.6744 0.755 0.8502 0.7505 0.7016 0.7028
2517.316 0.6572 0.5577 0.5065 0.6139 0.6972 0.6993 0.7462 0.7208 0.6552 0.6748
2536.606 0.6588 0.5528 0.6488 0.789 0.7542 0.7499 0.7734 0.7921 0.7602 0.7783
2555.896 1.0034 0.8908 0.6808 0.8556 0.9374 0.8688 0.8632 0.8598 0.769 0.8674
2575.186 0.9875 0.9653 1.0068 1.0367 1.0355 0.9929 0.9569 0.9747 1.0427 1.1898
2594.475 1.254 1.284 1.364 1.314 1.244 1.264 1.304 1.434 1.534 1.504
2613.765 1.514 1.554 1.584 1.754 1.864 1.824 1.914 2.024 1.984 1.904
2633.055 1.894 1.974 2.094 2.094 1.994 1.974 2.074 2.124 2.124 2.164
2652.345 2.284 2.354 2.314 2.264 2.184 2.104 2.084 2.124 2.194 2.224
2671.634 2.364 2.354 2.204 2.104 1.944 1.894 2.024 2.044 2.004 2.064
2690.924 2.084 2.024 1.804 1.814 1.964 1.974 1.924 1.904 1.834 1.864
2710.214 1.954 1.784 1.724 1.734 1.734 1.764 1.804 1.844 1.724 1.734
2729.504 1.794 1.814 2.114 2.244 2.254 2.184 2.184 2.304 2.434 2.604
2748.794 2.534 2.644 2.784 2.754 2.934 3.024 3.104 3.304 3.414 3.674
2768.083 3.824 4.064 4.284 4.344 4.434 4.644 4.924 5.244 5.664 6.004
2787.373 6.314 6.674 7.134 7.654 8.274 8.954 9.564 10.244 10.994 11.884
2806.663 12.954 14.144 15.534 17.384 19.704 22.394 25.604 29.064 32.424 35.514
2825.953 38.274 40.464 41.974 42.884 42.994 42.304 41.444 40.434 39.114 37.904
2845.242 36.934 36.084 35.344 35.014 34.884 34.514 33.984 33.354 32.654 31.914
2864.532 31.344 30.864 30.344 29.934 29.674 29.724 30.074 30.624 31.214 31.604
2883.822 32.224 32.954 33.554 34.234 34.734 35.554 36.804 38.114 39.904 42.244
2903.112 45.214 48.864 53.074 58.344 64.424 71.524 79.894 88.874 98.354 107.634
2922.401 115.914 121.714 124.494 125.104 123.154 118.644 112.214 103.864 94.384 85.274
2941.691 77.154 70.414 65.334 61.394 58.324 56.264 54.694 53.334 51.984 50.514
2960.981 49.184 47.794 46.504 45.204 43.794 42.774 42.434 42.624 42.904 43.664
2980.271 45.224 46.754 47.914 49.014 49.644 49.534 48.524 46.724 44.284 41.284
2999.561 37.934 34.264 30.554 27.114 24.034 21.114 18.804 17.144 15.594 14.374
3018.850 13.304 12.084 11.294 10.824 10.464 10.134 9.684 9.124 8.634 8.354
3038.140 8.204 7.894 7.584 7.394 7.274 7.254 7.004 6.764 6.494 6.344
3057.430 6.274 6.174 6.044 5.904 5.854 5.624 5.464 5.534 5.514 5.424
3076.720 5.304 5.244 5.184 4.964 4.944 4.964 4.814 4.564 4.484 4.364
3096.009 4.264 4.304 4.264 4.204 4.014 3.894 3.864 3.774 3.584 3.654
3115.299 3.744 3.754 3.654 3.174 3.154 3.154 3.144 3.334 3.234 3.014
3134.589 2.794 2.564 2.344 2.504 2.454 2.264 2.034 1.954 2.094 2.034
3153.879 1.934 1.884 1.854 1.864 1.794 1.574 1.444 1.424 1.564 1.534
3173.169 1.444 1.264 1.0404 1.0792 1.1806 1.394 1.394 1.284 1.0947 1.0102
3192.458 0.9512 0.8455 0.8909 0.7926 0.7066 0.7328 0.8201 0.9814 1.01 1.1173
3211.748 1.1563 1.0944 1.2019 1.1383 0.9263 0.936 0.9037 0.7488 0.8979 0.9139
3231.038 1.0094 0.976 0.7152 0.8191 0.7323 0.6995 0.8206 0.6496 0.5142 0.651
3250.328 0.8426 0.9576 0.874 0.8555 0.9289 0.9265 0.9036 1.0071 0.9614 0.7669
3269.617 0.938 0.9225 0.7592 0.6031 0.542 0.7753 0.7796 0.8048 0.7417 0.4877
3288.907 0.5463 0.5327 0.4141 0.4594 0.4632 0.4581 0.4578 0.4567 0.4222 0.28434
3308.197 0.4429 0.5548 0.4941 0.5455 0.518 0.5947 0.6531 0.4932 0.3433 0.5006
3327.487 0.4104 0.25695 0.3284 0.1963 0.1315 0.25872 0.3194 0.4054 0.3847 0.3899
3346.777 0.4153 0.1812 0.197 0.3779 0.587 0.6014 0.4291 0.4741 0.6612 0.5767
3366.066 0.4607 0.3917 0.29922 0.5557 0.6466 0.4228 0.4032 0.569 0.3718 0.095
3385.356 0.1768 0.1798 0.24709 0.3392 0.4169 0.4353 0.3879 0.4551 0.4844 0.4434
3404.646 0.28991 0.20739 0.1 0.071 0.1721 0.23608 0.1323 0.1748 0.3642 0.24304
3423.936 0.1678 0.29534 0.395 0.4171 0.3058 0.4922 0.7897 0.6398 0.5601 0.4765
3443.225 0.5157 0.6705 0.568 0.5198 0.4199 0.3939 0.4162 0.486 0.5013 0.4642
3462.515 0.5741 0.4449 0.1874 0.024 0.1411 0.3196 0.27167 0.042 0.019 0.28917
3481.805 0.6479 0.6837 0.4487 0.4434 0.3555 0.3839 0.3998 0.3358 0.3234 0.1625
3501.095 0.1789 0.2837 0.3472 0.3452 0.5231 0.672 0.3528 0.1394 0.20956 0.20843
3520.385 0.27712 0.2347 0.1517 0.30449 0.3152 0.26985 0.1406 0.20915 0.3467 0.1619
3539.674 0.1916 0.30281 0.1 0.022 0.08 0.28156 0.3339 0.1356 0.1662 0.30369
3558.964 0.3351 0.29652 0.23465 0.1701 0.29748 0.3431 0.4779 0.5403 0.2036 0.059
3578.254 0.064 0.1212 0.3177 0.1868 0.084 0.1343 0.4735 0.5817 0.4587 0.557
3597.544 0.5676 0.7779 0.8018 0.4565 0.4235 0.3712 0.008 0.046 0.27577 0.3737
3616.833 0.3193 0.4103 0.5329 0.4465 0.3814 0.3415 0.29796 0.1599 0.3203 0.5905
3636.123 0.6444 0.7428 0.6716 0.1368 0.2038 0.5749 0.4953 0.4129 0.234 0.2032
3655.413 0.33 0.452 0.387 0.3603 0.4065 0.3812 0.4888 0.4239 0.12 0.112
3674.703 0.4505 0.6915 0.6617 0.6248 0.6016 0.6978 0.567 0.374 0.4797 0.5346
3693.993 0.6646 0.6361 0.4242 0.4784 0.30613 0.26964 0.4674 0.4134 0.4377 0.4889
3713.282 0.4725 0.4778 0.5404 0.5419 0.7243 0.7691 0.5181 0.4018 0.3542 0.4566
3732.572 0.573 0.5466 0.4997 0.4768 0.4491 0.3482 0.1271 0.25663 0.5475 0.4943
3751.862 0.4368 0.3604 0.30952 0.4988 0.6273 0.5766 0.5488 0.5779 0.4691 0.4003
3771.152 0.31018 0.1717 0.20419 0.3553 0.5015 0.6483 0.6565 0.5278 0.4839 0.4537
3790.441 0.4291 0.4648 0.4197 0.4284 0.3407 0.2033 0.31214 0.4438 0.6339 0.5153
3809.731 0.30425 0.27686 0.362 0.5244 0.5414 0.4268 0.4219 0.3687 0.31311 0.5356
3829.021 0.4223 0.3551 0.4183 0.3145 0.4309 0.6345 0.5781 0.4046 0.3497 0.1881
3848.311 0.26621 0.6336 0.6678 0.5995 0.5614 0.6621 0.7114 0.5337 0.51 0.584
3867.601 0.4662 0.3933 0.5095 0.3849 0.4332 0.8638 0.9963 0.8452 0.824 0.7499
3886.890 0.9054 1.009 0.799 0.744 0.7615 0.6374 0.5658 0.6977 0.8868 0.7402
3906.180 0.5749 0.4558 0.5353 0.9403 1.0757 1.1695 1.1558 1.1577 1.1261 1.049
3925.470 1.1147 1.0763 1.1127 1.1659 1.224 1.244 1.0012 0.9291 1.0902 1.1351
3944.760 1.148 1.1999 1.254 1.0301 0.9491 1.0914 1.0184 0.8918 1.0573 1.1936
3964.049 1.1022 1.1516 1.0128 0.8033 0.8851 0.9128 0.826 0.6576 0.7039 0.7646
3983.339 0.6597 0.8171 0.9766 0.9596 0.8473 0.9661 0.9678 0.8234 0.7581 0.8995
##END=
