##TITLE=1,3-Bis(methylthio)-2-propanol
##JCAMP-DX=4.24
##DATA TYPE=INFRARED SPECTRUM
##ORIGIN=EPA-IR VAPOR PHASE LIBRARY
##OWNER=SRD/NIST
Collection (C) 2018 copyright by the U.S. Secretary of Commerce
on behalf of the United States of America. All rights reserved.
##CAS REGISTRY NO=31805-83-1
##MOLFORM=C 5 H 12 O S 2
##$NIST SOURCE=MSDC-IR
##STATE=gas
##XUNITS=1/CM
##YUNITS=ABSORBANCE
##XFACTOR=1.
##YFACTOR=0.001
##DELTAX=1.92898
##FIRSTX=549.8
##LASTX=4000.7
##FIRSTY=5.18
##MAXX=4000.7
##MINX=549.759
##MAXY=0.10369
##MINY=0.00004689
##NPOINTS=1790
##XYDATA=(X++(Y..Y))
549.759 5.18 4.39 4.59 4.72 4 3.88 4.09 4.37 4.15 4.05
569.049 4.2 3.94 3.38 3.13 3.33 3.55 3.19 2.67 2.76 2.72
588.339 2.5 2.14 2.08 2.24 2.21 2.13 2.12 2.23 2.28 2.47
607.628 2.49 2.44 2.75 2.87 1.97 1.4 1.96 1.75 1.76 2
626.918 1.87 1.68 1.65 2 1.92 1.81 1.83 1.62 1.74 2.22
646.208 2.08 2.2 2.39 2.37 2.68 2.48 2.09 2.43 2.88 3.01
665.498 3.32 3.44 3.24 3.5 4.12 4.62 4.47 4.17 4.43 4.65
684.787 4.9 4.69 4.44 4.68 4.88 5.01 4.99 5 5.06 5.11
704.077 5.1 5.01 5.07 5 4.84 4.82 4.82 4.62 4.52 4.43
723.367 3.99 3.88 3.87 3.62 3.84 4.24 4.29 4.48 4.44 4.29
742.657 4.6 4.88 5.25 5.21 5.18 6.04 6.73 7.21 7.81 8.46
761.947 8.92 9.34 9.84 10.17 10.19 10.06 9.78 9.43 8.9 8.12
781.236 7.42 7.13 6.78 6.01 5.29 5.2 5.17 5.08 4.99 4.91
800.526 5.45 5.77 6.23 6.6 6.65 7.27 7.61 7.63 7.71 8.06
819.816 8.36 8.37 8.78 8.91 8.57 8.21 8.14 8.26 8.2 7.79
839.106 7.48 7.21 7.02 6.82 6.17 5.69 5.4 5.33 5.09 4.53
858.395 4.12 3.88 3.83 3.61 3.44 3.56 3.59 3.25 2.71 2.59
877.685 2.91 3.09 3.04 2.94 2.89 2.91 3.15 3.34 3.44 3.46
896.975 3.47 3.84 4.18 4.38 4.51 4.66 4.85 5.11 5.27 5.19
916.265 5.18 5.58 5.72 5.4 5.6 5.89 5.83 6.03 6.44 6.61
935.555 6.93 7.12 7.44 7.96 7.97 8.38 9.2 9.77 10.32 10.73
954.844 10.87 11.54 12.05 12.3 12.62 12.7 12.84 12.86 12.6 12.37
974.134 12.15 11.93 11.93 12.28 12.66 12.43 12.28 12.49 12.54 12.81
993.424 13.7 14.72 15.63 16.45 17.67 19.39 21.04 22.63 24.63 27.43
1012.714 30.17 33.21 36.4 39.5 42.89 45.66 48.11 50.97 53.18 54.34
1032.003 55.47 56.92 57.47 57.2 56.73 55.9 55.16 54.12 53.14 52.31
1051.293 51.4 50.28 49.51 48.47 46.9 45.48 43.98 42.5 41.45 39.91
1070.583 37.58 35.35 32.97 30.14 28.17 27.04 24.48 21.68 20.29 18.93
1089.873 17.12 16.16 14.78 13.31 13.3 11.95 10.46 9.98 8.82 8.4
1109.163 8.36 8.64 9.77 9.56 9.61 9.79 9.79 9.89 9.59 10.9
1128.452 12.45 13.04 13.21 12.92 12.89 13.4 13.47 13.94 14.37 13.52
1147.742 12.82 12.82 12.24 12.01 12.31 12.73 12.63 12.42 12.39 12.47
1167.032 12.71 12.46 12.51 12.72 12.92 12.91 12.55 12.72 13.34 13.7
1186.322 13.99 13.89 14.36 15.43 15.07 15.07 16.28 16.81 16.98 16.59
1205.611 16.66 17.83 19.3 19.75 20.99 21.75 21.16 21.28 22.54 23.16
1224.901 23.35 24.76 25.02 25.34 25.9 25.69 26.28 26.97 27.13 27.43
1244.191 27.22 27.33 27.86 27.89 27.52 27.49 27.57 28.01 28.6 28.74
1263.481 29.4 30.03 30.64 31.21 31.67 31.81 31.59 31.34 30.76 29.89
1282.771 28.91 27.87 26.5 25.05 23.8 22.69 21.58 20.45 19.35 18.28
1302.060 17.46 17.03 16.61 16.32 16.22 16.36 16.79 17.33 17.88 18.36
1321.350 18.68 18.77 18.74 18.59 18.37 18.01 17.41 16.81 16.51 16.5
1340.640 16.68 17.07 17.46 18 18.61 19.08 19.71 20.15 20.48 20.94
1359.930 21.35 21.8 22.47 23.2 23.81 24.46 25.16 25.54 25.76 26.05
1379.219 26.09 25.67 25.21 24.6 23.89 23.26 22.48 21.94 21.59 21.46
1398.509 21.69 22.25 23.1 24.24 25.67 27.25 28.75 30.19 31.67 33.05
1417.799 34.25 35.44 36.24 36.69 37.04 37.03 37.05 37.19 36.86 36.52
1437.089 36.03 34.93 33.57 32.03 30.2 28.15 26.01 23.73 21.25 18.64
1456.378 16.2 13.99 12.25 10.94 9.77 8.7 7.99 7.49 6.86 6.35
1475.668 6.03 5.72 5.47 5.31 5.1 4.78 4.54 4.38 4.3 4.22
1494.958 4.1 3.98 3.84 3.76 3.63 3.55 3.49 3.4 3.23 3.12
1514.248 3.15 3.08 3.04 3.1 3.09 2.95 2.82 2.87 2.89 2.89
1533.538 2.95 2.89 2.92 3 2.99 2.81 2.81 2.97 2.92 2.81
1552.827 2.78 2.81 2.73 2.76 2.79 2.67 2.52 2.51 2.53 2.45
1572.117 2.52 2.64 2.44 2.29 2.32 2.3 2.34 2.29 2.2 2.07
1591.407 2.1 2.11 1.83 1.8 1.96 1.88 1.88 1.85 1.64 1.48
1610.697 1.52 1.59 1.49 1.3 1.33 1.26 1.21 1.34 1.24 1.23
1629.986 1.23 1.21 1.06 0.925 1.07 1.1 1.07 1.14 1.04 0.968
1649.276 0.9987 0.9248 0.8588 0.8541 0.9031 0.8491 0.7953 0.7361 0.6567 0.7411
1668.566 0.7831 0.7202 0.5698 0.5925 0.6845 0.5996 0.6399 0.6301 0.5893 0.5611
1687.856 0.48 0.5306 0.4883 0.4615 0.5152 0.4856 0.5475 0.5229 0.3143 0.2746
1707.146 0.3939 0.4773 0.4712 0.5121 0.5878 0.5174 0.4058 0.3403 0.3565 0.397
1726.435 0.3763 0.2923 0.3959 0.499 0.4196 0.3499 0.2213 0.1701 0.2235 0.29
1745.725 0.3465 0.3462 0.3294 0.2886 0.2623 0.2369 0.1663 0.1727 0.1628 0.1742
1765.015 0.199 0.2331 0.312 0.2386 0.1792 0.2019 0.208 0.1834 0.2707 0.4737
1784.305 0.4866 0.2978 0.2234 0.2658 0.1883 0.08051 0.07465 0.1224 0.21 0.1823
1803.594 0.08594 0.09251 0.138 0.1966 0.2232 0.2377 0.2703 0.1953 0.08075 0.05673
1822.884 0.1293 0.2168 0.2594 0.1822 0.1213 0.07275 0.1185 0.1564 0.04689 0.1222
1842.174 0.1816 0.1397 0.1863 0.2746 0.2324 0.1858 0.1796 0.2197 0.3581 0.3375
1861.464 0.3123 0.3517 0.32 0.3206 0.2836 0.3241 0.4198 0.4735 0.3748 0.2591
1880.754 0.3286 0.3936 0.3152 0.2665 0.2654 0.3219 0.3574 0.2653 0.2286 0.2166
1900.043 0.278 0.3177 0.3141 0.3334 0.2772 0.2526 0.2837 0.3542 0.4385 0.3967
1919.333 0.3923 0.3542 0.2708 0.297 0.356 0.4022 0.4403 0.3682 0.2642 0.2972
1938.623 0.3207 0.2745 0.3007 0.3482 0.409 0.4198 0.3355 0.3037 0.232 0.2682
1957.913 0.3062 0.2568 0.2759 0.337 0.4163 0.4801 0.3777 0.2164 0.2577 0.3399
1977.202 0.3622 0.2873 0.2412 0.4062 0.5731 0.4895 0.4193 0.4354 0.4789 0.4511
1996.492 0.412 0.5025 0.5295 0.5012 0.519 0.5742 0.635 0.6055 0.6042 0.7235
2015.782 0.6889 0.6558 0.7709 0.7438 0.6005 0.6408 0.7492 0.7622 0.7949 0.8317
2035.072 0.8122 0.8227 0.8478 0.7433 0.6864 0.8146 0.7227 0.6486 0.7417 0.6527
2054.362 0.5629 0.6344 0.7556 0.7498 0.7341 0.7007 0.5747 0.4849 0.5492 0.6669
2073.651 0.6137 0.5264 0.5556 0.6016 0.5735 0.5518 0.6265 0.6965 0.6373 0.5757
2092.941 0.5687 0.5219 0.5134 0.5069 0.4806 0.427 0.3249 0.2662 0.3042 0.3142
2112.231 0.3686 0.4684 0.4482 0.4105 0.5017 0.4551 0.3835 0.4565 0.5118 0.4682
2131.521 0.3812 0.4421 0.4656 0.4692 0.5244 0.4966 0.5994 0.6458 0.5102 0.5235
2150.810 0.6817 0.6664 0.5968 0.6284 0.5733 0.4487 0.4844 0.6678 0.6658 0.6356
2170.100 0.5858 0.5692 0.6017 0.5614 0.5893 0.6274 0.5218 0.5107 0.5222 0.4845
2189.390 0.5358 0.5256 0.4648 0.4822 0.5683 0.7233 0.7851 0.6806 0.5752 0.5804
2208.680 0.6842 0.6431 0.6482 0.8344 0.8616 0.8277 0.7826 0.7 0.6336 0.6872
2227.970 0.8001 0.8313 0.7254 0.58 0.6888 0.7416 0.6988 0.7263 0.7237 0.6475
2247.259 0.7386 0.8046 0.827 0.8971 0.8244 0.829 0.8204 0.7845 0.7378 0.781
2266.549 0.835 0.9108 1.01 1.03 1.07 1.05 0.9192 0.8321 0.9095 0.8981
2285.839 0.8473 0.8494 0.7828 0.7711 0.7223 0.664 0.6226 0.6122 0.5807 0.5517
2305.129 0.664 0.7418 0.6303 0.5553 0.6544 0.6537 0.6223 0.6807 0.568 0.6263
2324.418 0.6796 0.4987 0.5171 0.5434 0.6366 0.7275 0.6813 0.6774 0.661 0.6474
2343.708 0.6989 0.6295 0.548 0.5914 0.6322 0.7071 0.7597 0.8117 0.7747 0.7219
2362.998 0.717 0.6739 0.6938 0.8062 0.8177 0.8251 0.9214 0.8955 0.9433 0.9735
2382.288 0.9765 0.9803 0.9956 1.02 1.05 1 0.9138 0.9228 0.9078 0.8969
2401.578 0.9347 0.9215 0.8837 0.8659 0.9693 1.03 0.9583 0.8691 0.7223 0.814
2420.867 0.8791 0.8628 0.8264 0.7092 0.7067 0.7897 0.7898 0.7568 0.8773 0.8853
2440.157 0.8175 0.8966 0.8882 0.8245 0.8045 0.6787 0.7025 0.746 0.5723 0.5596
2459.447 0.6178 0.6383 0.7359 0.7016 0.6451 0.5252 0.4453 0.5287 0.6475 0.6816
2478.737 0.7194 0.6945 0.6236 0.7737 0.7769 0.6066 0.5811 0.6047 0.6115 0.6527
2498.026 0.6231 0.5476 0.6249 0.6512 0.5234 0.5006 0.6036 0.7012 0.6062 0.537
2517.316 0.5018 0.4838 0.5183 0.5705 0.5878 0.6498 0.7335 0.6822 0.6548 0.6422
2536.606 0.5409 0.5371 0.532 0.4809 0.4846 0.5632 0.6683 0.6422 0.7211 0.8328
2555.896 0.7833 0.6334 0.5245 0.6041 0.6649 0.5629 0.6089 0.8485 0.8578 0.6641
2575.186 0.6122 0.6184 0.6553 0.6391 0.6371 0.7505 0.6554 0.5991 0.7798 0.8805
2594.475 0.8508 0.7715 0.8177 0.7447 0.7911 0.9749 0.9379 1.03 1.08 0.9164
2613.765 0.8895 1.08 1.13 1.07 1.04 1.11 1.14 1.28 1.39 1.47
2633.055 1.42 1.38 1.54 1.54 1.68 1.78 1.71 1.66 1.74 1.78
2652.345 1.61 1.67 1.89 1.94 1.89 1.91 1.83 1.81 1.84 1.74
2671.634 1.81 1.96 1.94 1.82 1.67 1.65 1.67 1.58 1.54 1.53
2690.924 1.57 1.57 1.45 1.42 1.43 1.39 1.3 1.31 1.41 1.43
2710.214 1.45 1.28 1.09 1.17 1.28 1.4 1.49 1.51 1.6 1.68
2729.504 1.59 1.47 1.6 1.67 1.56 1.59 1.81 1.9 1.89 1.9
2748.794 1.95 1.94 1.99 2.05 2.06 2.17 2.21 2.19 2.28 2.3
2768.083 2.2 2.19 2.11 2.24 2.54 2.55 2.4 2.39 2.56 2.83
2787.373 3.01 3.1 3.28 3.61 3.93 3.97 4.03 4.42 4.66 4.76
2806.663 5.01 5.32 5.59 5.94 6.29 6.72 7.25 7.68 8.02 8.52
2825.953 9.33 10.05 10.79 11.75 12.65 13.52 14.7 15.97 17.38 18.77
2845.242 19.73 20.7 21.55 22.06 22.41 22.74 22.82 22.56 22.39 22.31
2864.532 22.13 22.13 22.48 22.73 22.91 23.39 23.94 24.37 24.71 25.11
2883.822 25.33 25.41 25.65 25.92 26.08 26.39 27.38 28.58 29.99 32.26
2903.112 35.2 38.52 42.55 47.33 52.75 58.91 65.63 72.72 80.51 88.5
2922.401 95.73 101.22 103.69 103.49 101.61 97.86 93.05 86.83 78.47 69.35
2941.691 60.79 54.02 49.2 45.65 43.51 42.32 41.6 41 40.42 39.78
2960.981 38.82 37.83 36.68 35.02 33.18 31.54 29.87 28.76 28.12 27.34
2980.271 27.1 27.22 27.3 27.57 27.84 27.97 27.61 26.95 26.02 24.72
2999.561 23.34 21.48 19.51 17.67 15.79 14.09 12.49 11.08 9.99 9.1
3018.850 8.22 7.45 6.77 6.26 5.89 5.73 5.6 5.22 4.85 4.49
3038.140 4.27 4.08 3.84 3.8 3.77 3.65 3.63 3.63 3.66 3.67
3057.430 3.42 3.27 3.27 3.25 3.06 3 3.05 3.11 3.03 2.94
3076.720 3.1 3.33 3.4 3.35 3.43 3.3 3.29 3.28 3.2 3.3
3096.009 3.39 3.32 3.28 3.34 3.42 3.3 3.12 3.1 3.07 3.06
3115.299 2.97 2.83 2.82 3 2.98 2.85 2.89 3.1 3.2 2.96
3134.589 2.63 2.58 2.43 2.26 2.36 2.33 2.27 2.45 2.29 2
3153.879 2.14 2.19 1.95 1.6 1.65 1.79 1.76 1.37 1.2 1.56
3173.169 1.49 1.17 1.12 1.17 1.07 0.9698 1.09 1.04 1.23 1.44
3192.458 1.31 1.18 0.9825 0.9575 1.04 1.07 1.19 1.15 0.9556 0.9289
3211.748 0.8429 0.8232 1.09 1.11 0.9289 1.16 1.27 1.21 1.08 1
3231.038 0.9268 0.8674 1.12 1.22 1.23 1.11 1.07 1.18 0.9749 1.01
3250.328 1.24 1.25 1.25 1.24 1.24 1.25 1.13 1.01 0.9237 0.9549
3269.617 1.05 1.04 1.04 1.04 0.8606 0.7764 1 1.17 1.26 1.05
3288.907 1.05 1.4 1.44 1.28 1.09 0.9221 0.807 1.05 1.18 0.7452
3308.197 0.8309 1.14 0.9308 1.02 1.12 1.06 1.13 1.1 0.9384 0.8733
3327.487 0.9804 1.21 1.2 1.19 1.31 1.33 1.34 1.38 1.35 1.18
3346.777 1.36 1.27 1.05 1.18 1.15 1.18 1.12 1.21 1.21 0.866
3366.066 0.9975 1.21 1.1 1.29 1.21 0.7877 0.8379 1.02 1.19 1.3
3385.356 1.07 1.01 1.2 1.29 1.27 1.15 1.12 1.23 1.24 1.26
3404.646 1.31 1.45 1.56 1.46 1.65 1.58 1.23 1.31 1.46 1.42
3423.936 1.47 1.52 1.66 1.67 1.52 1.66 1.91 1.83 1.72 1.81
3443.225 2.06 2.08 2.01 2.24 2.38 2.52 2.57 2.66 2.84 2.72
3462.515 2.8 3.3 3.47 3.65 3.76 3.73 3.91 4.17 4.26 4.34
3481.805 4.75 5.18 5.4 5.65 6 6.3 6.71 6.97 6.94 7.17
3501.095 7.61 7.63 7.38 7.56 7.59 7.31 7.29 7.27 7.31 7.37
3520.385 7.7 8.12 8.29 8.66 9.22 9.7 10.37 11.29 12.33 13.27
3539.674 13.98 14.7 15.23 15.78 16.06 16.25 16.39 16.22 15.89 15.63
3558.964 15.56 15.33 14.8 14.32 13.9 13.56 13.45 13.34 13.21 13.09
3578.254 12.66 12.02 11.64 11.54 11.42 10.9 10.51 10.06 9.6 9.6
3597.544 9.45 9 8.61 8.24 8.01 7.58 7.45 7.77 7.64 7.21
3616.833 6.92 6.74 6.62 6.8 6.66 6.48 6.77 6.76 6.37 6.3
3636.123 6.41 6.21 5.93 5.88 5.81 5.65 5.54 5.34 4.97 4.65
3655.413 4.55 4.31 4.08 3.84 3.59 3.44 3.14 2.83 2.6 2.32
3674.703 2.18 2.1 1.88 1.59 1.52 1.53 1.39 1.49 1.59 1.47
3693.993 1.35 1.19 1.06 1.09 1.04 0.8984 1.04 1.12 0.9786 0.9383
3713.282 0.9346 1 1.03 0.9881 1.09 1.22 1.19 1.2 1.13 0.8827
3732.572 0.7743 0.776 0.9428 0.8945 0.8106 0.8497 0.779 0.8521 0.8285 0.8329
3751.862 0.9232 0.8522 0.7312 0.6583 0.6574 0.7598 1.08 0.8738 0.6973 0.9353
3771.152 0.9183 0.9632 0.8338 0.7175 0.6899 0.7097 0.6933 0.6674 0.705 0.6686
3790.441 0.7256 0.7501 0.8964 0.7431 0.6186 0.8143 0.9788 0.96 0.6051 0.474
3809.731 0.8439 1.01 0.8891 0.7562 0.604 0.6781 0.7398 0.725 0.6901 0.8228
3829.021 0.7866 0.4856 0.5382 0.4594 0.5141 0.7086 0.5213 0.7314 0.7797 0.564
3848.311 0.6275 0.8984 1.06 0.8712 0.7659 0.7743 0.8726 0.8843 0.7296 0.9082
3867.601 0.9398 0.7161 0.7441 0.7179 0.8954 1.09 0.9398 0.984 1.05 0.9391
3886.890 0.8732 0.9338 0.9508 0.9681 1.09 1.08 1.06 1.01 0.7706 0.6526
3906.180 0.9139 1.1 1.14 1.08 0.76 0.9202 1.1 0.8881 1.15 1.3
3925.470 1.28 1.03 0.8644 0.9699 0.7305 0.6213 0.9323 1.23 1.43 1.31
3944.760 1.09 1.06 1.1 1.21 1.24 1.08 1.07 1.22 1.21 1.14
3964.049 0.8782 0.9539 1.16 0.9413 0.7576 0.8752 0.967 0.9275 0.8317 1.02
3983.339 1.18 0.7785 0.6761 0.7764 0.6836 0.5302 0.2414 0.2908 0.6005 0.7391
##END=
