##TITLE=5-Tetradecanone
##JCAMP-DX=4.24
##DATA TYPE=INFRARED SPECTRUM
##ORIGIN=NIST Mass Spectrometry Data Center
##OWNER=NIST Standard Reference Data Program
Collection (C) 2018 copyright by the U.S. Secretary of Commerce
on behalf of the United States of America. All rights reserved.
##CAS REGISTRY NO=31857-89-3
##MOLFORM=C 14 H 28 O
##$NIST SOURCE=MSDC-IR
##SPECTROMETER/DATA SYSTEM=HP-GC/MS/IRD
##STATE=gas
##XUNITS=1/CM
##YUNITS=ABSORBANCE
##XFACTOR=1.0
##YFACTOR=0.000004700
##DELTAX=4.0
##FIRSTX=550.0
##LASTX=3846.0
##FIRSTY=0.000301
##MAXX=3846
##MINX=550
##MAXY=0.047
##MINY=0
##NPOINTS=825
##XYDATA=(X++(Y..Y))
550.0 64 46 40 31 18 15 17 3 2 13
590.0 3 15 18 8 5 20 36 41 39 41
630.0 43 41 35 24 15 14 24 25 15 5
670.0 13 18 20 24 21 28 42 57 78 104
710.0 133 165 183 188 189 190 189 191 191 181
750.0 163 152 152 149 144 138 124 116 108 100
790.0 92 76 71 58 44 47 52 54 57 55
830.0 50 52 60 63 57 55 55 57 68 78
870.0 77 77 88 91 93 98 100 94 97 102
910.0 98 93 93 98 97 101 102 104 112 120
950.0 127 135 139 147 152 152 153 158 168 171
990.0 172 183 195 209 233 270 316 366 422 461
1030.0 487 505 493 471 451 439 440 447 455 456
1070.0 455 442 415 387 359 335 318 314 323 344
1110.0 380 431 493 543 586 617 616 592 560 538
1150.0 509 472 447 425 405 395 389 379 374 368
1190.0 361 354 350 345 342 349 363 368 361 364
1230.0 375 386 393 394 393 398 403 402 402 400
1270.0 398 397 402 406 413 425 439 456 471 485
1310.0 494 502 515 540 573 615 676 754 831 907
1350.0 968 1008 1016 979 904 807 710 643 610 566
1390.0 509 457 431 433 458 494 532 555 560 564
1430.0 584 611 656 729 822 925 1019 1085 1088 1025
1470.0 903 737 575 444 347 280 229 192 164 136
1510.0 121 109 92 81 76 75 69 58 55 57
1550.0 54 47 43 46 44 41 42 42 43 45
1590.0 45 45 47 49 47 46 44 45 50 55
1630.0 58 56 58 63 70 74 83 102 120 136
1670.0 159 193 231 273 333 414 523 678 904 1225
1710.0 1651 2155 2682 3077 3138 2801 2199 1584 1098 760
1750.0 543 403 307 236 187 149 122 105 93 79
1790.0 64 57 54 46 41 38 35 32 30 25
1830.0 25 25 21 19 15 13 15 15 14 11
1870.0 9 10 11 10 9 9 7 8 10 6
1910.0 5 6 4 5 6 4 2 3 6 6
1950.0 3 2 0 1 2 6 9 7 5 3
1990.0 2 2 3 4 3 8 11 12 14 12
2030.0 11 13 16 16 17 14 12 13 13 10
2070.0 10 9 8 8 6 8 9 8 6 7
2110.0 7 7 7 9 8 6 8 8 8 8
2150.0 12 14 12 11 9 9 7 7 9 11
2190.0 13 14 12 11 12 12 11 9 7 9
2230.0 7 7 11 7 7 8 8 8 7 3
2270.0 1 5 5 5 6 5 8 11 8 7
2310.0 6 8 9 6 5 5 8 2 0 8
2350.0 10 7 3 0 3 7 10 11 12 12
2390.0 11 12 12 14 17 17 16 15 17 17
2430.0 14 14 13 9 12 16 15 16 17 15
2470.0 12 13 14 10 10 14 18 19 16 16
2510.0 19 23 24 24 23 24 27 28 29 31
2550.0 30 30 30 33 39 40 38 38 39 40
2590.0 44 43 44 49 51 53 57 58 62 64
2630.0 63 66 70 78 84 86 92 99 104 108
2670.0 106 109 115 115 114 116 116 109 108 109
2710.0 110 111 111 116 124 130 138 152 161 162
2750.0 162 166 170 174 181 185 195 208 226 246
2790.0 272 298 325 357 395 430 473 521 574 641
2830.0 724 831 977 1183 1479 1912 2499 3140 3656 3899
2870.0 3877 3732 3601 3531 3463 3390 3386 3504 3750 4126
2910.0 4648 5334 6231 7360 8592 9590 10000 9750 9019 8070
2950.0 7169 6522 6201 6109 6004 5566 4691 3635 2726 2080
2990.0 1632 1309 1075 901 766 662 580 517 467 428
3030.0 388 352 323 295 272 257 245 228 209 197
3070.0 186 174 166 160 154 149 142 135 132 127
3110.0 121 114 106 99 93 93 93 88 84 80
3150.0 79 77 76 76 73 72 75 71 66 63
3190.0 56 58 61 58 54 48 45 35 31 30
3230.0 30 31 34 37 30 26 24 25 25 23
3270.0 17 15 19 18 20 21 19 19 18 15
3310.0 13 16 16 15 18 16 12 13 17 17
3350.0 20 26 21 16 20 25 31 37 32 27
3390.0 30 32 34 36 35 42 48 51 57 62
3430.0 66 62 62 57 49 38 31 29 25 20
3470.0 16 15 9 6 12 14 10 10 8 7
3510.0 3 10 14 7 8 7 8 12 5 2
3550.0 4 6 5 3 0 2 3 3 6 7
3590.0 7 8 8 6 9 11 10 11 14 13
3630.0 12 24 28 21 22 22 16 16 19 17
3670.0 9 9 16 24 26 22 20 16 15 16
3710.0 16 20 15 14 19 19 17 20 23 18
3750.0 13 21 26 13 11 16 18 22 21 15
3790.0 15 20 19 13 19 21 19 17 14 16
3830.0 21 24 24 22 23
##END=
