##TITLE=2-Hydroxy-4,6-dimethoxybenzoic acid
##JCAMP-DX=4.24
##DATA TYPE=INFRARED SPECTRUM
##ORIGIN=EPA-IR VAPOR PHASE LIBRARY
##OWNER=SRD/NIST
Collection (C) 2018 copyright by the U.S. Secretary of Commerce
on behalf of the United States of America. All rights reserved.
##CAS REGISTRY NO=3187-19-7
##MOLFORM=C 9 H 10 O 5
##$NIST SOURCE=MSDC-IR
##STATE=gas
##XUNITS=1/CM
##YUNITS=ABSORBANCE
##XFACTOR=1.
##YFACTOR=0.001
##DELTAX=1.92898
##FIRSTX=549.8
##LASTX=4000.7
##FIRSTY=3.752
##MAXX=4000.7
##MINX=549.759
##MAXY=0.221042
##MINY=0
##NPOINTS=1790
##XYDATA=(X++(Y..Y))
549.759 3.752 3.582 3.532 3.352 3.492 3.612 3.182 2.792 2.362 2.282
569.049 2.522 2.762 2.032 1.582 1.942 1.962 2.112 1.942 1.862 1.972
588.339 2.082 2.442 2.882 2.642 2.692 2.922 2.572 2.562 2.802 3.472
607.628 3.802 4.072 3.952 3.242 3.282 3.582 3.812 3.902 3.682 3.642
626.918 3.552 3.212 3.062 3.082 3.092 3.122 2.702 2.442 2.722 2.702
646.208 2.562 2.982 3.202 3.092 3.762 4.372 4.842 5.912 6.912 7.612
665.498 8.762 10.332 11.872 13.272 14.152 13.982 13.322 12.612 11.552 10.292
684.787 9.362 8.242 6.762 5.592 4.942 4.362 3.712 3.222 2.572 2.402
704.077 2.182 1.572 1.202 1.1086 1.152 1.222 1.0105 0.9166 1.152 1.0285
723.367 0.7087 0.6497 0.6593 0.5219 0.5485 0.6042 0.8708 1.0751 0.6523 0.4832
742.657 0.9323 1.025 0.6961 0.4983 0.4942 0.628 0.603 0.392 0.6197 0.9056
761.947 0.9079 1.0053 1.192 1.462 1.792 2.102 2.282 2.332 2.612 2.932
781.236 2.972 3.072 3.352 3.852 4.032 3.842 4.182 4.782 5.332 6.502
800.526 7.382 8.172 9.652 10.932 12.222 13.482 14.522 15.862 17.442 18.552
819.816 19.522 19.882 19.742 20.162 20.532 20.722 20.932 21.492 21.632 20.662
839.106 19.252 17.542 15.602 13.892 12.172 10.742 9.602 8.302 7.052 6.042
858.395 5.322 4.552 3.882 3.832 3.842 3.522 3.022 2.592 2.752 2.902
877.685 3.072 3.132 2.842 2.882 3.042 2.932 2.812 3.022 2.992 2.912
896.975 3.162 3.452 3.602 3.802 3.942 3.892 4.392 4.872 5.032 5.572
916.265 6.412 6.892 7.602 8.372 8.862 9.432 9.712 9.712 9.572 9.422
935.555 9.202 8.772 8.062 7.512 6.662 5.992 6.222 6.132 5.682 5.922
954.844 6.202 6.232 7.042 7.762 8.522 9.832 10.862 11.672 12.822 13.652
974.134 13.882 14.192 14.722 15.322 16.072 15.942 15.282 14.992 14.382 13.802
993.424 13.312 12.502 11.682 10.952 9.932 9.282 8.572 7.862 7.352 6.582
1012.714 5.782 5.522 5.982 6.232 6.612 6.852 6.752 7.292 7.882 8.912
1032.003 10.362 11.992 13.892 16.182 19.412 22.422 25.632 29.192 32.702 36.532
1051.293 39.902 42.642 44.932 46.782 47.892 47.692 46.042 43.702 40.542 37.252
1070.583 33.292 28.692 24.332 20.952 18.692 16.502 14.452 12.852 12.252 11.762
1089.873 11.522 11.372 10.952 11.042 11.822 12.182 11.902 12.412 13.572 15.042
1109.163 16.512 18.092 20.192 22.632 26.312 30.212 33.452 37.892 44.182 52.722
1128.452 63.252 74.812 89.212 105.712 123.612 142.042 159.602 176.502 192.192 204.902
1147.742 215.072 221.042 220.502 214.592 202.802 186.852 170.052 151.812 131.132 111.722
1167.032 93.572 76.672 64.632 56.872 51.842 49.062 48.292 49.642 52.122 54.642
1186.322 57.552 61.472 64.372 67.042 71.572 75.222 79.382 83.682 86.422 87.682
1205.611 86.372 83.752 80.032 76.082 69.202 61.032 53.292 45.022 37.262 29.502
1224.901 23.822 19.412 16.902 15.082 12.972 12.252 11.582 10.642 10.362 10.972
1244.191 10.652 10.702 12.332 13.922 16.092 18.922 21.302 23.882 27.182 30.092
1263.481 32.092 33.102 32.972 32.342 31.232 29.132 25.852 21.872 17.852 14.452
1282.771 11.512 9.422 8.002 6.972 6.352 6.022 5.922 5.922 6.242 6.472
1302.060 6.522 6.652 6.922 7.172 7.342 7.382 7.442 7.672 7.862 7.942
1321.350 8.172 8.552 8.802 9.282 10.042 10.522 11.102 11.792 12.202 12.512
1340.640 12.532 12.332 12.072 11.832 11.452 10.732 9.922 9.242 8.592 7.952
1359.930 7.402 6.902 6.362 5.992 5.842 5.622 5.492 5.572 5.712 5.882
1379.219 6.142 6.422 6.842 7.222 7.522 7.832 8.192 8.762 9.362 9.992
1398.509 10.652 11.392 12.142 12.922 13.892 14.852 15.702 16.652 17.812 19.152
1417.799 20.622 22.162 23.912 25.822 27.952 30.352 32.592 34.502 35.942 36.832
1437.089 37.452 37.742 37.562 36.902 36.212 35.522 35.012 34.952 35.612 37.182
1456.378 39.432 42.132 44.952 47.552 49.322 50.732 51.902 52.282 51.802 50.822
1475.668 50.062 49.672 49.982 51.022 52.612 54.942 57.482 59.762 61.502 61.992
1494.958 61.052 58.912 55.522 50.832 45.082 38.832 32.312 26.292 21.572 18.092
1514.248 15.502 13.652 12.362 11.632 11.192 10.752 10.452 10.382 10.452 10.492
1533.538 10.502 10.522 10.902 11.532 11.942 12.222 12.642 13.122 13.622 14.182
1552.827 14.672 15.302 16.162 17.172 18.262 19.242 20.492 22.032 24.002 26.512
1572.117 29.322 32.992 37.532 42.842 49.062 56.262 64.382 73.672 83.942 94.732
1591.407 105.912 117.412 128.602 139.022 148.392 156.032 161.582 164.752 165.232 163.272
1610.697 158.922 153.052 146.342 138.882 131.142 123.412 115.682 107.682 99.242 90.502
1629.986 81.602 72.722 64.142 55.632 47.702 40.862 34.842 30.022 26.082 22.962
1649.276 20.452 18.552 16.902 15.242 14.082 13.142 12.262 11.522 10.912 10.432
1668.566 9.952 9.402 8.902 8.592 8.252 8.072 7.832 7.482 7.362 7.222
1687.856 6.902 6.722 6.492 6.282 6.362 6.212 6.092 5.762 5.452 5.332
1707.146 4.952 4.622 4.622 4.602 4.362 4.152 3.982 3.782 3.542 3.462
1726.435 3.492 3.392 3.302 3.282 3.202 3.092 3.072 3.032 2.892 2.872
1745.725 3.012 3.152 3.052 2.822 2.792 2.712 2.592 2.642 2.632 2.482
1765.015 2.402 2.362 2.312 2.182 2.112 2.192 2.202 2.152 2.062 1.972
1784.305 1.992 1.972 1.922 1.872 1.832 1.862 1.842 1.782 1.672 1.602
1803.594 1.632 1.542 1.412 1.492 1.522 1.422 1.382 1.252 1.272 1.352
1822.884 1.202 1.212 1.222 1.222 1.282 1.192 1.252 1.302 1.242 1.152
1842.174 1.0477 1.162 1.152 1.0019 0.9994 0.9832 1.0272 1.0743 1.075 0.9754
1861.464 0.8704 0.9413 0.7931 0.6434 0.7896 0.8211 0.8239 0.9286 0.9073 0.816
1880.754 0.7453 0.7116 0.691 0.7309 0.7712 0.8344 0.9239 0.9321 0.8425 0.8117
1900.043 0.8181 0.8232 0.7796 0.7201 0.7932 0.8692 0.7882 0.7408 0.8129 0.8621
1919.333 0.8181 0.9197 1.0221 0.8506 0.8258 0.9348 0.8626 0.8041 0.8933 0.7882
1938.623 0.7612 0.8649 0.8466 0.8067 0.6998 0.7553 0.7963 0.8952 1.0942 1.0324
1957.913 1.1121 1.242 1.192 1.212 1.252 1.292 1.352 1.312 1.252 1.252
1977.202 1.172 1.252 1.342 1.262 1.182 1.0531 1.1084 1.232 1.182 1.1087
1996.492 1.07 0.9282 0.8643 0.8702 0.906 1.0404 1.0692 1.0964 1.232 1.232
2015.782 1.192 1.242 1.162 1.0778 1.1309 1.142 1.1197 1.172 1.162 1.132
2035.072 1.182 1.232 1.332 1.322 1.362 1.462 1.412 1.362 1.352 1.382
2054.362 1.432 1.432 1.492 1.682 1.872 1.902 1.812 1.762 1.872 2.042
2073.651 2.032 2.002 2.012 2.012 1.982 1.972 1.932 1.922 1.892 1.852
2092.941 1.922 2.012 2.022 1.922 1.982 2.042 2.092 2.112 2.202 2.362
2112.231 2.272 2.302 2.312 2.342 2.292 2.162 2.192 2.152 2.192 2.122
2131.521 1.872 1.812 1.832 1.772 1.682 1.622 1.622 1.592 1.532 1.442
2150.810 1.372 1.362 1.272 1.202 1.342 1.362 1.172 1.13 1.142 1.142
2170.100 1.202 1.272 1.302 1.332 1.282 1.402 1.542 1.492 1.502 1.422
2189.390 1.402 1.422 1.352 1.342 1.302 1.312 1.292 1.362 1.282 1.292
2208.680 1.352 1.262 1.272 1.212 1.282 1.392 1.332 1.222 1.262 1.202
2227.970 1.132 1.242 1.402 1.552 1.482 1.412 1.432 1.372 1.392 1.472
2247.259 1.542 1.562 1.612 1.592 1.522 1.632 1.762 1.792 1.732 1.622
2266.549 1.542 1.442 1.542 1.602 1.522 1.402 1.382 1.532 1.672 1.662
2285.839 1.572 1.652 1.612 1.512 1.672 1.622 1.432 1.382 1.422 1.472
2305.129 1.462 1.522 1.452 1.252 1.162 1.172 1.0737 1.0683 1.232 1.282
2324.418 1.332 1.242 1.322 1.402 1.422 1.532 1.432 1.312 1.302 1.232
2343.708 1.152 1.222 1.242 1.262 1.352 1.372 1.382 1.362 1.182 1.0547
2362.998 1.142 1.152 1.162 1.182 1.182 1.152 1.312 1.362 1.232 1.152
2382.288 1.132 1.322 1.422 1.452 1.372 1.302 1.402 1.552 1.442 1.292
2401.578 1.292 1.322 1.362 1.402 1.442 1.452 1.462 1.452 1.372 1.172
2420.867 1.212 1.452 1.422 1.382 1.502 1.452 1.452 1.372 1.262 1.322
2440.157 1.252 1.222 1.312 1.342 1.332 1.392 1.532 1.512 1.542 1.472
2459.447 1.442 1.472 1.512 1.602 1.572 1.762 1.852 1.632 1.572 1.542
2478.737 1.522 1.662 1.712 1.592 1.642 1.792 1.712 1.762 1.712 1.602
2498.026 1.632 1.672 1.642 1.512 1.392 1.462 1.652 1.432 1.282 1.292
2517.316 1.1102 1.0481 1.079 1.1073 1.242 1.282 1.312 1.312 1.252 1.162
2536.606 1.0817 1.152 1.282 1.252 1.172 1.262 1.162 1.132 1.382 1.262
2555.896 0.9638 1.132 1.222 1.0883 1.0753 1.0822 1.0438 0.9272 0.9106 0.9809
2575.186 0.9767 0.9765 0.976 1.0073 0.9928 0.9502 1.0475 1.0735 1.0666 1.222
2594.475 1.312 1.232 1.292 1.212 1.182 1.162 1.202 1.252 1.272 1.362
2613.765 1.392 1.232 1.0697 1.0796 1.1277 1.162 1.0795 1.0981 1.1234 1.1184
2633.055 1.212 1.0174 0.7711 0.8656 0.9738 1.0225 1.192 1.202 1.0067 0.9644
2652.345 1.0389 1.1272 1.142 1.0674 1.0541 1.1224 1.0424 1.0512 1.0383 0.9677
2671.634 0.9142 0.8814 0.892 0.8283 0.6698 0.6776 0.8347 0.8725 0.9059 0.7457
2690.924 0.721 0.7442 0.683 0.8714 0.985 0.9246 0.9575 0.9339 0.9371 0.9028
2710.214 0.8415 0.9802 1.073 1.0811 1.172 1.262 1.222 1.1066 1.0553 0.9984
2729.504 0.9259 0.9696 1.061 1.272 1.412 1.292 1.212 1.252 1.282 1.462
2748.794 1.462 1.482 1.592 1.532 1.622 1.682 1.612 1.752 1.942 1.902
2768.083 2.032 2.312 2.252 2.332 2.472 2.432 2.342 2.362 2.502 2.472
2787.373 2.502 2.672 2.792 2.782 2.932 2.952 3.012 3.192 3.172 3.292
2806.663 3.402 3.512 3.722 3.952 3.992 4.012 4.142 4.562 5.122 5.592
2825.953 6.092 6.912 7.682 8.552 9.962 11.632 13.522 15.532 17.382 18.702
2845.242 19.812 20.562 20.762 20.482 19.732 18.362 16.832 15.092 13.182 11.622
2864.532 10.112 9.042 8.722 8.482 8.202 8.012 7.942 8.132 8.352 8.372
2883.822 8.502 8.842 9.182 9.772 10.382 10.702 11.052 11.662 12.202 12.632
2903.112 13.322 13.832 14.372 15.132 15.702 16.312 17.022 17.292 17.452 17.732
2922.401 17.882 18.122 18.292 18.502 18.942 19.812 21.012 22.472 24.082 25.792
2941.691 27.472 28.852 30.292 31.362 32.212 32.662 32.602 32.502 31.892 31.102
2960.981 29.842 27.642 25.212 22.862 20.652 18.832 17.212 15.612 14.442 13.622
2980.271 12.952 12.532 12.422 12.512 12.452 12.972 14.252 15.812 17.762 19.982
2999.561 22.142 23.942 25.192 25.672 25.232 24.512 23.692 21.972 19.482 16.992
3018.850 14.212 11.672 9.652 7.952 7.132 6.542 5.942 5.512 5.252 4.902
3038.140 4.542 4.462 4.282 4.302 4.402 4.392 4.312 4.282 4.272 4.012
3057.430 3.962 4.022 4.122 4.032 3.772 3.652 3.472 3.332 3.272 3.312
3076.720 3.262 3.292 3.452 3.462 3.452 3.352 3.352 3.382 3.222 3.292
3096.009 3.252 3.052 3.182 2.862 2.582 2.792 2.602 2.492 2.402 2.222
3115.299 2.202 2.042 1.902 1.902 2.012 1.892 1.462 1.312 1.372 1.382
3134.589 1.702 1.682 1.472 1.582 1.592 1.572 1.252 1.1231 1.1256 0.9332
3153.879 0.9161 0.8878 0.8211 0.7776 0.9417 0.9983 0.7741 0.7431 0.8974 0.7249
3173.169 0.5911 0.8009 0.9278 0.729 0.5572 0.6973 0.8208 0.9391 0.9289 0.6414
3192.458 0.5534 0.7011 0.7073 0.5694 0.448 0.4364 0.5159 0.6164 0.4142 0.3997
3211.748 0.5832 0.6516 0.6743 0.5882 0.3872 0.4143 0.7923 1.0275 0.7866 0.6092
3231.038 0.82 0.7463 0.6444 0.6485 0.5732 0.5749 0.7358 0.6637 0.6969 0.8396
3250.328 0.6289 0.718 0.8304 0.5285 0.18227 0.3953 0.5714 0.18343 0.3018 0.8132
3269.617 0.7159 0.483 0.4383 0.4285 0.3835 0.21316 0.4268 0.4425 0.0599 0
3288.907 0.136384 0.19011 0.2852 0.3342 0.139834 0.0874 0.22779 0.3757 0.4808 0.3507
3308.197 0.4825 0.6385 0.5579 0.6571 0.346 0.33 0.5917 0.5603 0.5038 0.6592
3327.487 0.9671 0.9531 0.7455 0.6059 0.8007 0.9072 0.9341 0.8113 0.5987 0.6504
3346.777 0.891 1.1299 1.1236 0.9289 0.6831 0.5809 0.7025 0.6708 0.778 1.0168
3366.066 0.7289 0.5121 0.7359 0.7972 0.5933 0.5513 0.3603 0.3583 0.5391 0.4802
3385.356 0.5668 0.6983 0.4686 0.4128 0.5742 0.5692 0.5563 0.5302 0.5562 0.6379
3404.646 0.7808 0.876 0.5642 0.3165 0.4861 0.3261 0.21195 0.3832 0.5518 0.7341
3423.936 0.6708 0.6612 0.7714 0.5888 0.7614 0.8123 0.4812 0.4341 0.4271 0.4873
3443.225 0.5605 0.4392 0.267 0.3759 0.5149 0.6037 0.5753 0.6106 0.7326 0.7326
3462.515 0.4675 0.288 0.3169 0.2798 0.5231 0.4481 0.3947 0.4313 0.3356 0.4145
3481.805 0.4917 0.4782 0.5207 0.6955 0.611 0.4633 0.3071 0.1424 0.0899 0.1215
3501.095 0.4604 0.5809 0.5508 0.5268 0.5594 0.6312 0.5586 0.3186 0.3115 0.5827
3520.385 0.6711 0.5283 0.138709 0.1032 0.434 0.6143 0.6293 0.7453 0.4892 0.2898
3539.674 0.4397 0.4835 0.446 0.2721 0.4959 0.7829 0.6486 0.6195 0.583 0.543
3558.964 0.5395 0.4004 0.256 0.3133 0.3345 0.2761 0.3756 0.5404 0.5869 0.5458
3578.254 0.533 0.4034 0.5731 0.8306 0.8388 0.5546 0.2819 0.2637 0.3067 0.4158
3597.544 0.4203 0.5782 0.6814 0.7943 1.0804 1.0506 0.9692 1.0014 0.9754 0.9915
3616.833 1.352 1.562 1.602 1.812 2.142 2.612 3.212 3.822 4.842 6.872
3636.123 8.992 11.712 15.442 20.002 24.632 28.762 31.922 33.142 32.972 31.962
3655.413 30.622 28.712 25.542 21.052 15.932 11.152 7.682 5.342 3.552 2.512
3674.703 2.002 1.632 1.332 1.172 0.95 1.0961 1.232 0.9934 0.8418 0.799
3693.993 0.6674 0.7028 0.9129 0.8401 0.7422 0.6125 0.3041 0.013 0.2992 0.4585
3713.282 0.4484 0.4698 0.2833 0.16535 0.3248 0.4177 0.4024 0.5001 0.18217 0.1701
3732.572 0.4732 0.5568 0.5974 0.4283 0.22182 0.141008 0.2519 0.22289 0.2704 0.5552
3751.862 0.4842 0.3263 0.5077 0.5444 0.5072 0.6568 0.498 0.2294 0.3868 0.3947
3771.152 0.138311 0.2331 0.3257 0.3187 0.4287 0.4711 0.701 0.755 0.4599 0.6381
3790.441 0.8183 0.5366 0.3694 0.428 0.5333 0.4826 0.4454 0.4324 0.4049 0.21301
3809.731 0.2533 0.5709 0.6189 0.5592 0.3506 0.3864 0.3179 0.284 0.4372 0.4134
3829.021 0.7563 0.9303 0.6227 0.5399 0.3928 0.41 0.5796 0.6855 0.8908 0.7625
3848.311 0.7958 0.9691 0.9233 1.212 1.192 0.6712 0.5103 0.5218 0.5763 0.7212
3867.601 0.6432 0.7717 0.9327 0.9358 0.7399 0.5568 0.6019 0.6291 0.4456 0.4841
3886.890 1.0963 0.9367 0.6565 0.7957 0.9806 0.8566 0.6209 0.9755 0.9081 0.5992
3906.180 0.715 1.077 1.142 0.7274 0.7217 0.7005 0.3551 0.4986 0.7439 0.7963
3925.470 0.4529 0.5145 0.7712 0.7517 0.831 0.8376 0.7749 0.5965 0.6346 0.6079
3944.760 0.6968 0.9684 0.8252 0.7293 0.9295 0.995 1.011 0.6929 0.6357 0.8429
3964.049 0.9517 0.9442 0.9306 0.7398 0.4862 0.7195 0.7916 0.891 0.8288 0.4618
3983.339 0.3606 0.6225 0.7548 0.796 0.8769 0.4717 0.16691 0.5042 0.7322 0.8681
##END=
