##TITLE=.delta.-BHC
##JCAMP-DX=4.24
##DATA TYPE=INFRARED SPECTRUM
##ORIGIN=NIST Mass Spectrometry Data Center
##OWNER=NIST Standard Reference Data Program
Collection (C) 2018 copyright by the U.S. Secretary of Commerce
on behalf of the United States of America. All rights reserved.
##CAS REGISTRY NO=319-86-8
##MOLFORM=C 6 H 6 Cl 6
##$NIST SOURCE=MSDC-IR
##SPECTROMETER/DATA SYSTEM=HP-GC/MS/IRD
##STATE=gas
##XUNITS=1/CM
##YUNITS=ABSORBANCE
##XFACTOR=1.0
##YFACTOR=0.000003200
##DELTAX=4.0
##FIRSTX=550.0
##LASTX=3846.0
##FIRSTY=0.001443
##MAXX=3846
##MINX=550
##MAXY=0.032
##MINY=0
##NPOINTS=825
##XYDATA=(X++(Y..Y))
550.0 451 1115 2261 5212 8863 10000 7010 3072 1151 593
590.0 395 267 160 114 110 91 81 89 100 116
630.0 119 88 51 29 7 2 5 4 19 48
670.0 94 141 259 546 1000 1391 1432 1085 649 446
710.0 400 398 409 395 401 480 630 931 1425 2176
750.0 3239 4478 5493 5942 6280 7274 8239 7653 5159 2382
790.0 1019 673 564 476 401 354 324 314 302 259
830.0 234 223 204 223 332 598 1096 1748 2215 2130
870.0 1538 863 460 303 236 205 195 207 237 291
910.0 395 636 1129 1894 2598 2747 2273 1647 1450 1732
950.0 2055 1981 1509 1000 717 644 680 801 912 844
990.0 615 405 290 259 291 390 562 745 884 905
1030.0 769 559 414 339 285 233 205 209 232 269
1070.0 306 356 390 397 446 580 747 858 787 559
1110.0 358 251 202 192 191 187 196 199 187 160
1150.0 125 113 127 121 108 99 111 155 200 233
1190.0 292 401 553 794 1199 1743 2063 1902 1736 2049
1230.0 2797 3519 3543 2780 1880 1276 974 786 675 675
1270.0 743 808 856 912 952 1035 1294 1797 2360 2574
1310.0 2287 1901 1901 2362 2951 3207 3018 2599 2143 1665
1350.0 1142 715 473 362 305 257 222 188 159 137
1390.0 110 85 70 65 61 55 51 55 58 63
1430.0 72 71 65 61 50 52 53 53 58 60
1470.0 51 41 38 36 31 29 31 35 37 30
1510.0 26 24 20 22 29 33 29 16 16 24
1550.0 22 12 0 9 17 18 17 21 26 22
1590.0 24 27 26 22 20 30 28 16 12 16
1630.0 28 28 32 30 16 12 14 16 11 13
1670.0 19 17 15 12 11 14 11 4 11 21
1710.0 21 15 11 14 18 12 11 12 11 7
1750.0 3 12 21 23 16 15 19 25 26 22
1790.0 18 18 23 23 24 21 25 27 24 21
1830.0 16 25 30 20 12 14 15 14 13 8
1870.0 3 9 20 20 23 30 27 16 11 20
1910.0 23 18 8 5 10 11 14 19 19 17
1950.0 15 12 9 9 12 16 14 15 22 20
1990.0 18 17 20 22 22 22 25 31 41 39
2030.0 39 43 40 41 36 26 28 31 26 20
2070.0 19 21 27 27 24 23 20 25 30 28
2110.0 29 23 18 28 25 19 21 26 29 24
2150.0 30 45 39 37 40 37 33 32 32 37
2190.0 38 38 38 37 40 34 29 35 39 35
2230.0 29 30 26 25 32 26 21 32 32 28
2270.0 29 38 43 39 42 37 35 35 30 29
2310.0 38 40 29 23 25 27 27 34 38 40
2350.0 37 35 41 42 43 51 51 43 40 46
2390.0 46 40 45 52 52 57 64 75 81 77
2430.0 76 76 81 79 79 85 84 84 92 108
2470.0 121 131 134 134 133 124 131 143 138 126
2510.0 113 112 111 113 120 119 111 108 114 103
2550.0 93 85 77 84 76 75 83 82 76 63
2590.0 67 73 77 83 83 78 70 66 73 71
2630.0 55 51 52 48 54 57 61 61 49 45
2670.0 40 31 21 23 24 18 26 31 24 12
2710.0 18 25 18 20 26 25 18 16 17 27
2750.0 20 13 25 26 7 0 12 25 29 22
2790.0 15 17 19 14 17 18 20 20 14 14
2830.0 9 9 25 23 18 28 25 17 25 35
2870.0 37 42 56 67 77 84 86 73 73 91
2910.0 104 134 232 533 1182 1890 2161 1882 1392 1135
2950.0 998 751 471 271 170 152 247 465 792 996
2990.0 824 491 235 110 61 40 36 23 18 23
3030.0 30 29 30 36 43 41 31 22 24 29
3070.0 24 17 19 20 17 17 33 46 35 28
3110.0 35 37 29 20 17 18 26 27 25 23
3150.0 19 14 15 22 15 13 32 29 15 22
3190.0 17 10 15 32 38 30 9 6 26 25
3230.0 12 20 28 22 24 28 17 8 17 18
3270.0 8 3 18 17 13 18 16 18 39 35
3310.0 18 15 10 22 37 29 12 0 16 21
3350.0 21 38 50 41 30 38 32 12 13 11
3390.0 14 29 37 37 25 33 43 36 43 52
3430.0 40 39 37 39 26 14 17 17 21 23
3470.0 30 39 35 30 26 33 41 47 52 58
3510.0 58 43 37 33 35 45 39 37 27 21
3550.0 31 35 32 30 22 22 27 42 51 34
3590.0 29 22 11 27 50 43 39 22 18 31
3630.0 23 26 42 35 16 11 11 18 37 65
3670.0 64 51 61 60 45 54 53 38 55 56
3710.0 57 55 45 32 23 36 27 35 55 37
3750.0 21 43 69 74 71 61 49 47 37 37
3790.0 47 55 47 37 39 49 42 42 41 36
3830.0 35 20 20 40 52
##END=
