##TITLE=BHC-.alpha. isomer
##JCAMP-DX=4.24
##DATA TYPE=INFRARED SPECTRUM
##ORIGIN=NIST Mass Spectrometry Data Center
##OWNER=NIST Standard Reference Data Program
Collection (C) 2018 copyright by the U.S. Secretary of Commerce
on behalf of the United States of America. All rights reserved.
##CAS REGISTRY NO=319-84-6
##MOLFORM=C 6 H 6 Cl 6
##$NIST SOURCE=MSDC-IR
##SPECTROMETER/DATA SYSTEM=HP-GC/MS/IRD
##STATE=gas
##XUNITS=1/CM
##YUNITS=ABSORBANCE
##XFACTOR=1.0
##YFACTOR=0.000001000
##DELTAX=4.0
##FIRSTX=550.0
##LASTX=3846.0
##FIRSTY=0.000169
##MAXX=3846
##MINX=550
##MAXY=0.01
##MINY=0
##NPOINTS=825
##XYDATA=(X++(Y..Y))
550.0 169 112 42 26 78 169 165 263 273 197
590.0 185 204 183 219 337 542 1109 2303 4013 5484
630.0 5371 3687 2006 995 596 551 587 565 585 638
670.0 651 740 1047 1784 3284 5422 7448 8307 7628 6101
710.0 4522 3049 1830 1166 946 911 881 773 656 645
750.0 838 1389 2281 3244 3787 3801 3782 4356 5699 7348
790.0 8937 10000 9377 6820 3843 1874 1015 733 563 447
830.0 526 596 703 1029 1679 2734 4003 4822 4445 3066
870.0 1674 909 635 546 538 585 639 675 721 831
910.0 1120 1747 2926 4366 5246 4934 3840 3220 3683 4798
950.0 5491 4941 3410 1900 1055 741 632 549 462 419
990.0 431 469 493 463 379 239 162 173 187 231
1030.0 296 370 441 451 479 524 509 450 353 288
1070.0 274 256 320 551 895 1416 2076 2657 2797 2292
1110.0 1491 857 539 394 307 251 246 239 239 248
1150.0 238 237 265 327 330 279 252 235 277 376
1190.0 506 676 802 949 1161 1525 2245 3331 4256 4099
1230.0 3070 1958 1221 926 903 1118 1571 2238 2908 3140
1270.0 2787 2096 1356 852 630 561 600 773 1130 1720
1310.0 2358 2672 2475 2041 1705 1604 1832 2524 3605 4471
1350.0 4242 2938 1522 778 555 447 381 313 277 240
1390.0 184 154 131 104 114 136 135 110 89 88
1430.0 72 64 70 90 97 82 68 57 50 52
1470.0 55 57 69 74 84 74 55 62 59 45
1510.0 30 29 37 44 56 58 36 5 3 18
1550.0 23 18 7 10 19 27 28 19 9 0
1590.0 12 43 52 41 43 63 61 49 62 53
1630.0 27 23 24 24 32 41 41 43 59 72
1670.0 60 49 68 69 56 46 36 25 28 37
1710.0 35 33 49 49 32 35 60 72 73 62
1750.0 54 49 35 29 40 48 33 37 36 53
1790.0 61 49 62 57 46 61 62 52 48 40
1830.0 29 36 45 62 66 47 35 23 36 67
1870.0 62 60 61 60 83 82 83 85 85 71
1910.0 71 69 57 55 33 43 79 70 53 51
1950.0 49 48 32 28 45 54 60 67 78 73
1990.0 56 60 69 66 69 78 64 79 107 100
2030.0 93 96 106 113 112 89 69 73 71 66
2070.0 61 56 56 65 76 77 73 68 49 71
2110.0 91 68 53 38 31 51 77 80 78 94
2150.0 95 80 64 59 71 80 77 76 84 79
2190.0 78 95 93 95 92 76 82 92 96 82
2230.0 71 85 98 92 92 99 88 89 94 90
2270.0 90 76 62 65 82 102 107 107 106 106
2310.0 121 110 86 81 94 94 76 82 92 76
2350.0 83 89 72 75 91 117 130 117 100 94
2390.0 114 111 89 98 107 128 148 156 152 138
2430.0 141 158 154 158 177 177 161 149 123 129
2470.0 161 169 164 156 148 154 182 195 191 184
2510.0 214 219 203 202 212 230 235 228 199 189
2550.0 180 170 178 194 197 174 170 179 191 186
2590.0 151 147 158 162 154 124 110 110 103 119
2630.0 129 119 138 151 131 128 133 146 150 119
2670.0 99 96 80 68 67 69 75 79 74 63
2710.0 61 52 49 58 45 36 44 60 58 49
2750.0 57 55 62 49 28 22 38 58 70 75
2790.0 58 48 55 71 76 60 74 100 93 78
2830.0 81 97 102 105 108 120 114 90 94 97
2870.0 99 79 79 106 97 107 88 68 85 110
2910.0 115 132 138 107 139 167 155 148 149 194
2950.0 343 684 1305 1984 2178 1734 1107 744 653 722
2990.0 806 664 408 226 142 120 116 119 103 100
3030.0 104 106 117 129 124 78 37 50 102 100
3070.0 94 104 92 95 86 88 116 133 139 126
3110.0 97 59 90 124 120 116 115 117 93 104
3150.0 102 84 73 70 102 131 113 97 91 91
3190.0 77 33 51 85 68 69 102 118 96 87
3230.0 101 120 128 141 140 136 129 138 125 93
3270.0 60 45 87 90 55 22 61 85 63 94
3310.0 102 90 73 59 73 80 81 93 98 147
3350.0 150 101 94 121 132 130 105 113 137 113
3390.0 110 96 123 143 88 65 81 64 97 119
3430.0 127 151 155 139 93 104 103 83 100 94
3470.0 93 90 92 127 139 111 72 103 110 67
3510.0 99 129 111 87 87 80 94 123 97 82
3550.0 81 84 129 141 114 99 113 110 86 101
3590.0 101 99 117 148 114 84 128 122 105 111
3630.0 108 118 129 116 145 131 90 108 102 125
3670.0 135 125 155 164 173 202 206 178 209 206
3710.0 191 183 159 168 201 192 143 129 150 189
3750.0 200 177 163 166 173 137 132 154 164 157
3790.0 148 155 163 166 188 223 198 172 161 113
3830.0 93 148 165 207 256
##END=
