##TITLE=4-Hexamethyleneiminobutyronitrile
##JCAMP-DX=4.24
##DATA TYPE=INFRARED SPECTRUM
##ORIGIN=EPA-IR VAPOR PHASE LIBRARY
##OWNER=SRD/NIST
Collection (C) 2018 copyright by the U.S. Secretary of Commerce
on behalf of the United States of America. All rights reserved.
##CAS REGISTRY NO=3194-43-2
##MOLFORM=C 10 H 18 N 2
##$NIST SOURCE=MSDC-IR
##STATE=gas
##XUNITS=1/CM
##YUNITS=ABSORBANCE
##XFACTOR=1.
##YFACTOR=0.001
##DELTAX=1.929
##FIRSTX=549.8
##LASTX=4000.8
##FIRSTY=0.5649
##MAXX=4000.75
##MINX=549.766
##MAXY=0.116292
##MINY=0
##NPOINTS=1790
##XYDATA=(X++(Y..Y))
549.766 0.5649 0.5147 0.6358 0.772 0.8025 0.673 0.5947 0.5357 0.5472 0.6419
569.056 0.7243 0.5753 0.3212 0.2539 0.2304 0.32163 0.4823 0.4404 0.5447 0.753
588.346 0.6386 0.4472 0.4137 0.4132 0.5134 0.4981 0.30775 0.2426 0.29936 0.34838
607.636 0.4133 0.4729 0.36251 0.35488 0.5144 0.3786 0.083 0.027 0.076 0.144
626.926 0.181 0.163 0.146 0.075 0.102 0.054 0 0.2223 0.2379 0.082
646.216 0.161 0.133 0.059 0.167 0.175 0.14 0.053 0.051 0.063 0.003
665.506 0.109 0.2381 0.18 0.167 0.27427 0.2417 0.27851 0.3475 0.37308 0.4431
684.796 0.4393 0.4587 0.5488 0.644 0.6244 0.6221 0.7987 0.9707 1.0001 1.0782
704.086 1.1646 1.1638 1.292 1.382 1.372 1.502 1.562 1.472 1.522 1.622
723.376 1.562 1.482 1.462 1.502 1.482 1.302 1.1442 1.166 1.1697 1.1861
742.666 1.302 1.2646 1.2598 1.322 1.302 1.2565 1.258 1.322 1.372 1.2678
761.956 1.1814 1.2233 1.2369 1.1071 0.9938 0.9517 0.8611 0.8223 0.8361 0.7913
781.246 0.7839 0.8638 0.9026 0.9109 0.9693 1.0401 1.0617 1.071 1.099 1.1254
800.536 1.1818 1.2711 1.267 1.2443 1.249 1.2678 1.1655 1.1008 1.1638 1.1939
819.826 1.2407 1.2754 1.1832 1.0663 1.0778 1.0781 1.0136 0.9245 0.9654 1.0454
839.116 1.0893 1.1621 1.045 0.9281 1.0094 1.0449 1.0759 1.116 1.1805 1.2363
858.406 1.2679 1.352 1.402 1.492 1.512 1.482 1.562 1.712 1.842 1.922
877.696 2.072 2.212 2.322 2.582 2.792 2.882 2.942 2.932 3.042 3.162
896.986 3.142 3.192 3.212 3.212 3.282 3.312 3.292 3.332 3.372 3.422
916.276 3.362 3.282 3.282 3.212 3.142 2.992 2.922 2.992 2.922 2.832
935.566 2.842 2.812 2.802 2.822 2.852 2.902 3.032 3.192 3.292 3.342
954.856 3.442 3.592 3.752 3.822 3.792 3.832 3.862 3.752 3.592 3.522
974.146 3.432 3.282 3.152 3.042 2.982 2.992 3.032 3.042 3.002 3.072
993.436 3.252 3.362 3.502 3.702 3.982 4.282 4.572 4.772 4.942 5.082
1012.726 5.042 4.962 4.842 4.732 4.492 4.182 3.962 3.662 3.362 3.132
1032.016 2.892 2.742 2.562 2.332 2.182 2.132 2.082 2.062 2.012 2.022
1051.306 2.062 2.132 2.322 2.452 2.622 2.872 3.182 3.512 3.872 4.292
1070.596 4.812 5.402 5.992 6.682 7.352 8.042 8.792 9.412 9.892 10.162
1089.886 10.222 10.182 9.892 9.272 8.532 7.902 7.252 6.712 6.402 6.162
1109.176 6.102 6.222 6.522 7.022 7.802 8.802 9.932 11.252 12.572 13.912
1128.467 15.242 16.422 17.352 17.942 18.222 18.202 17.712 16.912 15.892 14.642
1147.757 13.412 12.352 11.332 10.332 9.432 8.612 7.812 6.992 6.292 5.722
1167.047 5.252 4.932 4.702 4.492 4.242 4.202 4.322 4.382 4.412 4.362
1186.337 4.472 4.592 4.622 4.812 4.862 4.822 4.782 4.742 4.682 4.492
1205.627 4.332 4.182 4.172 4.192 4.202 4.342 4.522 4.782 5.062 5.242
1224.917 5.362 5.602 5.832 5.922 5.952 5.842 5.682 5.532 5.312 5.042
1244.207 4.812 4.522 4.202 3.932 3.662 3.542 3.472 3.352 3.262 3.232
1263.497 3.322 3.382 3.432 3.612 3.752 3.812 3.952 4.052 4.102 4.122
1282.787 4.192 4.322 4.452 4.632 4.782 4.972 5.142 5.352 5.592 5.702
1302.077 5.742 5.832 5.882 5.942 6.042 6.012 6.052 6.152 6.162 6.152
1321.367 6.172 6.202 6.252 6.342 6.412 6.612 6.962 7.332 7.822 8.472
1340.657 9.272 10.142 11.042 11.972 12.842 13.592 14.132 14.572 14.852 14.842
1359.947 14.622 14.262 13.872 13.402 12.752 12.062 11.392 10.692 9.972 9.262
1379.237 8.552 7.872 7.292 6.712 6.062 5.522 5.112 4.722 4.412 4.092
1398.527 3.852 3.682 3.512 3.352 3.262 3.232 3.252 3.332 3.442 3.592
1417.817 3.842 4.242 4.732 5.332 6.012 6.692 7.422 8.172 8.872 9.472
1437.107 10.152 10.862 11.482 12.142 12.812 13.502 14.212 14.812 15.242 15.432
1456.397 15.372 15.112 14.562 13.822 12.942 11.952 11.052 10.212 9.412 8.622
1475.687 7.872 7.122 6.392 5.622 4.902 4.282 3.752 3.252 2.872 2.512
1494.977 2.172 1.962 1.782 1.612 1.522 1.462 1.332 1.1444 1.0151 0.9569
1514.267 0.8985 0.8479 0.8009 0.7629 0.7478 0.7495 0.7085 0.6119 0.5898 0.6169
1533.557 0.58 0.561 0.5516 0.5163 0.5079 0.4166 0.36764 0.3918 0.32986 0.29872
1552.847 0.34772 0.4175 0.4881 0.4629 0.3917 0.37933 0.35072 0.30805 0.36315 0.3845
1572.137 0.34846 0.35288 0.409 0.35571 0.286772 0.29316 0.30548 0.3083 0.30526 0.33252
1591.427 0.33276 0.3437 0.3347 0.31925 0.33913 0.35259 0.37949 0.3837 0.32291 0.27274
1610.717 0.31065 0.35554 0.32695 0.32519 0.31927 0.30322 0.34807 0.34831 0.287269 0.33903
1630.007 0.433 0.4102 0.4131 0.4762 0.4576 0.4514 0.479 0.4943 0.5224 0.5386
1649.297 0.5408 0.5779 0.5888 0.4842 0.4284 0.427 0.414 0.4149 0.4168 0.4086
1668.587 0.3762 0.37263 0.33608 0.34312 0.33637 0.2656 0.2456 0.2615 0.34953 0.31279
1687.877 0.27439 0.3069 0.28026 0.255 0.281633 0.30651 0.31883 0.2988 0.252 0.2637
1707.167 0.2371 0.2187 0.224 0.2179 0.2445 0.2097 0.207 0.1946 0.1951 0.2426
1726.457 0.2383 0.2516 0.27795 0.30003 0.27214 0.214 0.2196 0.2602 0.2206 0.149
1745.747 0.142 0.1824 0.1851 0.16 0.1899 0.2197 0.2122 0.206 0.2051 0.2349
1765.037 0.2128 0.178 0.2192 0.2694 0.235 0.142 0.133 0.152 0.152 0.167
1784.327 0.178 0.2049 0.2535 0.2691 0.2593 0.2295 0.2221 0.2409 0.2501 0.2446
1803.617 0.2256 0.2633 0.30373 0.2532 0.2408 0.2526 0.2182 0.1987 0.231 0.2507
1822.907 0.2446 0.2591 0.27383 0.2505 0.27491 0.291491 0.2646 0.27555 0.29219 0.27738
1842.197 0.2718 0.2644 0.2669 0.29774 0.31928 0.29518 0.27706 0.31393 0.286529 0.29251
1861.487 0.30271 0.27546 0.2596 0.257 0.272 0.2615 0.2338 0.2207 0.2454 0.2321
1880.777 0.2144 0.233 0.2387 0.2356 0.2552 0.29957 0.288379 0.2532 0.2323 0.2307
1900.067 0.2501 0.2493 0.2198 0.167 0.162 0.1855 0.2091 0.2519 0.2594 0.2483
1919.357 0.259 0.2274 0.247 0.31447 0.31652 0.29385 0.2707 0.2549 0.2525 0.2157
1938.647 0.2146 0.2507 0.2467 0.2627 0.29706 0.30884 0.27693 0.30722 0.31578 0.2504
1957.937 0.2474 0.27858 0.30491 0.32017 0.28466 0.2532 0.2415 0.2209 0.2352 0.2297
1977.227 0.2161 0.2326 0.2662 0.27571 0.27441 0.27907 0.2645 0.2665 0.2274 0.2095
1996.517 0.2321 0.2448 0.2407 0.2582 0.2783 0.2551 0.2441 0.2381 0.2725 0.290104
2015.807 0.286744 0.28805 0.2703 0.30187 0.33437 0.30877 0.30851 0.32879 0.33318 0.32318
2035.097 0.2607 0.285161 0.34649 0.33836 0.33292 0.30282 0.27808 0.284457 0.2547 0.27934
2054.387 0.29326 0.2543 0.2698 0.288822 0.30667 0.32035 0.33894 0.33181 0.29534 0.29317
2073.677 0.29518 0.2648 0.29388 0.29931 0.2367 0.27797 0.32606 0.34436 0.33916 0.31708
2092.967 0.30217 0.289966 0.31565 0.31532 0.32161 0.31608 0.288884 0.27724 0.28579 0.31567
2112.257 0.34108 0.290371 0.2569 0.2948 0.31245 0.29578 0.291292 0.290803 0.2691 0.281795
2131.547 0.30555 0.29962 0.32496 0.32267 0.29273 0.29819 0.35608 0.38008 0.33466 0.31562
2150.837 0.32159 0.36205 0.35455 0.31976 0.33269 0.32632 0.32558 0.35595 0.37002 0.3826
2170.127 0.37222 0.34752 0.37773 0.4018 0.4208 0.4296 0.3779 0.3717 0.4168 0.4102
2189.417 0.3931 0.4368 0.4419 0.4328 0.434 0.4241 0.44 0.4614 0.4677 0.4628
2208.707 0.4651 0.4602 0.4941 0.4989 0.4976 0.5239 0.4997 0.4824 0.5138 0.5801
2227.997 0.655 0.6794 0.746 0.8504 0.9478 1.0853 1.1982 1.372 1.552 1.652
2247.287 1.782 1.892 1.902 1.832 1.712 1.592 1.452 1.2462 1.0817 0.9513
2266.577 0.8152 0.7411 0.6621 0.6564 0.6309 0.5375 0.521 0.4998 0.5085 0.4932
2285.868 0.4669 0.5006 0.4429 0.3951 0.4097 0.4304 0.4329 0.4738 0.5229 0.5297
2305.158 0.5198 0.477 0.4214 0.4048 0.49 0.4948 0.4303 0.4223 0.4188 0.4045
2324.448 0.4769 0.5319 0.4596 0.3968 0.4598 0.4888 0.4085 0.4343 0.4712 0.4627
2343.738 0.469 0.474 0.4674 0.4768 0.4684 0.4804 0.5282 0.4938 0.4733 0.5039
2363.028 0.484 0.4278 0.4505 0.4854 0.4829 0.4886 0.4785 0.4501 0.4605 0.4755
2382.318 0.457 0.4381 0.4432 0.463 0.4202 0.3942 0.3999 0.4047 0.36294 0.31164
2401.608 0.3602 0.4047 0.3917 0.3828 0.3686 0.37654 0.4303 0.4414 0.424 0.425
2420.898 0.4195 0.3851 0.3935 0.4425 0.4771 0.4705 0.448 0.4415 0.4382 0.4555
2440.188 0.4401 0.4229 0.4482 0.4769 0.4454 0.4271 0.4542 0.4854 0.5052 0.516
2459.478 0.5008 0.5051 0.5198 0.5614 0.6358 0.6263 0.536 0.4938 0.4966 0.5225
2478.768 0.5874 0.5717 0.5623 0.5572 0.5141 0.4921 0.5483 0.62 0.6315 0.6048
2498.058 0.5737 0.5494 0.5326 0.5252 0.5224 0.5738 0.5944 0.5773 0.6041 0.6143
2517.348 0.6167 0.6403 0.6473 0.6832 0.6996 0.638 0.6157 0.6617 0.6849 0.7133
2536.638 0.7561 0.7644 0.8134 0.7988 0.7945 0.8766 0.8694 0.88 0.9517 0.9044
2555.928 0.8786 0.8515 0.8187 0.8661 0.9083 0.9354 0.9749 1.0266 1.0238 1.0351
2575.218 1.0709 1.0797 1.1052 1.1324 1.1738 1.2111 1.201 1.233 1.2434 1.2011
2594.508 1.2134 1.282 1.322 1.312 1.352 1.392 1.392 1.442 1.462 1.472
2613.798 1.492 1.472 1.522 1.612 1.612 1.632 1.752 1.782 1.792 1.862
2633.088 1.922 1.972 2.012 2.062 2.152 2.202 2.192 2.232 2.422 2.552
2652.378 2.632 2.742 2.892 3.032 3.102 3.282 3.492 3.592 3.692 3.882
2671.668 4.082 4.242 4.352 4.482 4.572 4.702 4.902 5.042 5.182 5.332
2690.958 5.402 5.402 5.452 5.602 5.702 5.752 5.852 5.942 5.972 6.042
2710.248 6.132 6.212 6.262 6.322 6.402 6.382 6.452 6.552 6.602 6.682
2729.538 6.792 6.902 7.002 7.132 7.432 7.662 7.812 8.092 8.332 8.672
2748.828 9.082 9.392 9.672 10.042 10.372 10.782 11.302 11.742 12.262 12.852
2768.118 13.422 14.002 14.542 15.062 15.632 16.182 16.622 17.012 17.452 17.942
2787.408 18.312 18.702 19.242 19.872 20.602 21.442 22.312 23.252 24.202 25.102
2806.698 25.972 26.832 27.572 28.192 28.742 29.122 29.332 29.322 29.112 28.782
2825.988 28.352 27.692 26.812 25.892 24.972 24.032 23.232 22.612 22.142 21.852
2845.278 21.902 22.242 22.782 23.682 24.822 26.152 27.602 29.082 30.232 31.022
2864.568 31.552 31.552 31.102 30.342 29.282 28.142 27.092 26.112 25.212 24.472
2883.858 24.062 23.782 23.682 23.952 24.372 24.992 25.792 26.882 28.232 29.812
2903.148 31.822 34.282 37.102 40.302 44.072 48.462 53.362 58.772 64.812 71.462
2922.438 78.932 86.902 94.922 102.672 109.222 113.892 116.292 116.032 112.992 107.512
2941.728 100.232 91.792 83.052 74.852 67.562 61.132 55.632 51.072 47.062 43.492
2961.018 40.352 37.232 34.002 30.702 27.432 24.342 21.252 18.292 15.642 13.322
2980.308 11.422 9.742 8.342 7.302 6.432 5.802 5.222 4.562 4.202 4.002
2999.598 3.612 3.312 3.072 2.792 2.602 2.472 2.302 2.122 2.032 2.062
3018.888 1.922 1.832 1.842 1.742 1.692 1.602 1.582 1.562 1.442 1.322
3038.178 1.352 1.332 1.2186 1.2146 1.2106 1.1825 1.1581 1.0793 0.9227 0.8512
3057.468 0.8703 0.9333 0.909 0.8753 0.7962 0.656 0.7196 0.7203 0.73 0.789
3076.758 0.8146 0.7661 0.7257 0.7218 0.6177 0.5151 0.5156 0.6173 0.6427 0.662
3096.048 0.7376 0.7454 0.6675 0.6346 0.6463 0.6051 0.551 0.551 0.5918 0.5849
3115.338 0.5985 0.6633 0.5933 0.5434 0.5962 0.5478 0.4643 0.5561 0.5994 0.5252
3134.628 0.5332 0.6132 0.6527 0.5698 0.5443 0.5213 0.4611 0.4569 0.485 0.5368
3153.918 0.5507 0.4784 0.3956 0.4277 0.4806 0.4748 0.4641 0.5 0.5211 0.534
3173.208 0.5659 0.5317 0.514 0.4868 0.5184 0.563 0.6006 0.5942 0.4682 0.5068
3192.498 0.532 0.4647 0.4623 0.4919 0.4863 0.5122 0.5511 0.5531 0.5343 0.4483
3211.788 0.4752 0.4876 0.4659 0.4855 0.4356 0.435 0.4043 0.4581 0.5557 0.4521
3231.078 0.4195 0.3989 0.4117 0.34778 0.31325 0.4497 0.3906 0.35726 0.4765 0.3839
3250.368 0.35226 0.3869 0.36624 0.5324 0.5495 0.35016 0.31181 0.3605 0.38112 0.3998
3269.658 0.31415 0.31692 0.35071 0.3821 0.3943 0.36525 0.2572 0.2342 0.2629 0.31971
3288.948 0.3996 0.33909 0.4118 0.3842 0.31546 0.31401 0.291771 0.397 0.4665 0.4269
3308.238 0.4061 0.2948 0.214 0.3358 0.3946 0.283826 0.2492 0.4184 0.4286 0.31328
3327.528 0.2936 0.2579 0.2607 0.32828 0.37756 0.35234 0.281494 0.2261 0.168 0.2011
3346.818 0.27961 0.2149 0.1911 0.239 0.284035 0.286599 0.2338 0.2932 0.29913 0.30401
3366.108 0.35542 0.282177 0.2284 0.2086 0.2375 0.32495 0.36739 0.2588 0.266 0.3957
3385.398 0.32127 0.2466 0.2411 0.2478 0.2532 0.1901 0.168 0.2674 0.31461 0.27569
3404.688 0.2515 0.289438 0.1987 0.142 0.31282 0.36268 0.3887 0.4343 0.37596 0.3041
3423.978 0.33945 0.36996 0.2679 0.137 0.17 0.282943 0.32215 0.37905 0.34027 0.29815
3443.269 0.2868 0.2719 0.30809 0.34567 0.3829 0.30651 0.181 0.174 0.1963 0.2696
3462.559 0.38102 0.31204 0.127 0.222 0.29347 0.1919 0.2587 0.27279 0.1887 0.2282
3481.849 0.29491 0.32767 0.2687 0.173 0.2052 0.152 0.066 0.028 0.108 0.2101
3501.139 0.197 0.159 0.14 0.2172 0.131 0.162 0.3712 0.290428 0.2085 0.3637
3520.429 0.36191 0.3361 0.36741 0.2479 0.164 0.2299 0.3555 0.31417 0.2558 0.29675
3539.719 0.2709 0.135 0.177 0.2367 0.171 0.164 0.209 0.33952 0.4342 0.289186
3559.009 0.174 0.2126 0.154 0.073 0.049 0.097 0.182 0.175 0.169 0.108
3578.299 0.127 0.2306 0.27439 0.30808 0.33015 0.2395 0.174 0.2396 0.286022 0.35939
3597.589 0.3896 0.3947 0.33193 0.2356 0.055 0.029 0.269 0.34836 0.31335 0.3586
3616.879 0.35652 0.30342 0.2555 0.30736 0.34977 0.27275 0.2372 0.178 0.124 0.144
3636.169 0.1971 0.2674 0.2696 0.2447 0.105 0.007 0.097 0.138 0.094 0.2205
3655.459 0.35579 0.30708 0.33078 0.3862 0.32047 0.2171 0.37961 0.4803 0.36392 0.31019
3674.749 0.2622 0.286008 0.33968 0.35796 0.29965 0.3303 0.35054 0.36547 0.3985 0.34909
3694.039 0.4605 0.4946 0.33088 0.259 0.37011 0.35284 0.33013 0.35618 0.285877 0.2893
3713.329 0.1941 0.1976 0.2215 0.2554 0.417 0.4074 0.3971 0.4099 0.4445 0.5054
3732.619 0.4572 0.2643 0.27858 0.3885 0.36071 0.2581 0.2551 0.5228 0.5375 0.35597
3751.909 0.2617 0.2456 0.32462 0.288172 0.2162 0.2201 0.2351 0.30322 0.33785 0.37825
3771.199 0.33795 0.28016 0.32916 0.3712 0.4238 0.4851 0.37108 0.2303 0.31476 0.4085
3790.489 0.32637 0.35963 0.4779 0.4812 0.36385 0.38188 0.4531 0.5347 0.4432 0.2502
3809.779 0.36626 0.31927 0.30556 0.287207 0.28344 0.4015 0.4044 0.3928 0.3543 0.3846
3829.069 0.5639 0.604 0.5041 0.5142 0.5379 0.5743 0.4843 0.3603 0.4126 0.4476
3848.359 0.4373 0.4134 0.3996 0.4679 0.4785 0.4942 0.494 0.472 0.4163 0.35154
3867.649 0.3624 0.36739 0.3839 0.4467 0.4169 0.35801 0.4776 0.5339 0.5112 0.5063
3886.939 0.3873 0.4694 0.5514 0.37637 0.386 0.4475 0.5057 0.4688 0.4012 0.38174
3906.229 0.4537 0.4776 0.4256 0.484 0.4742 0.3965 0.36768 0.4691 0.4258 0.37876
3925.519 0.4347 0.4779 0.4345 0.32567 0.286618 0.30443 0.30031 0.2558 0.2666 0.35572
3944.809 0.4632 0.5135 0.429 0.4256 0.4695 0.4473 0.4958 0.5301 0.578 0.5965
3964.099 0.4522 0.4779 0.5785 0.4912 0.4551 0.4004 0.4898 0.5569 0.37611 0.35807
3983.389 0.4075 0.4447 0.4945 0.5547 0.4706 0.37363 0.5056 0.4366 0.32468 0.3852
##END=
