##TITLE=5-Amino-2-chlorobenzotrifluoride
##JCAMP-DX=4.24
##DATA TYPE=INFRARED SPECTRUM
##ORIGIN=EPA-IR VAPOR PHASE LIBRARY
##OWNER=SRD/NIST
Collection (C) 2018 copyright by the U.S. Secretary of Commerce
on behalf of the United States of America. All rights reserved.
##CAS REGISTRY NO=320-51-4
##MOLFORM=C 7 H 5 Cl F 3 N
##$NIST SOURCE=MSDC-IR
##STATE=gas
##XUNITS=1/CM
##YUNITS=ABSORBANCE
##XFACTOR=1.
##YFACTOR=0.001
##DELTAX=1.92898
##FIRSTX=549.8
##LASTX=4000.7
##FIRSTY=5.608
##MAXX=4000.7
##MINX=549.759
##MAXY=0.166328
##MINY=0
##NPOINTS=1790
##XYDATA=(X++(Y..Y))
549.759 5.608 5.118 4.888 4.998 5.348 5.748 5.848 5.868 6.008 6.118
569.049 6.358 6.638 6.468 6.078 6.058 6.158 6.038 5.978 5.888 5.658
588.339 5.498 5.328 5.198 5.018 4.898 4.858 4.758 4.828 4.958 5.278
607.628 5.378 5.348 5.688 5.988 6.308 6.678 7.108 7.618 8.018 8.408
626.918 9.078 9.958 10.708 11.498 12.408 13.648 15.238 16.968 18.888 20.788
646.208 22.528 23.998 25.328 26.708 27.778 28.448 29.368 30.958 33.238 35.118
665.498 35.848 35.438 33.888 31.288 27.888 24.448 21.328 18.408 15.958 14.438
684.787 13.828 13.658 13.438 13.158 12.978 12.628 12.058 11.608 11.268 10.838
704.077 10.418 10.168 10.008 9.728 9.458 9.088 8.608 8.348 8.208 7.948
723.367 7.678 7.588 7.378 7.088 6.878 6.828 6.908 7.138 7.788 8.758
742.657 9.678 10.058 10.128 10.298 10.008 9.278 8.958 8.148 6.738 5.598
761.947 4.758 4.318 4.028 3.948 4.078 4.118 4.088 4.108 4.168 4.448
781.236 4.598 4.678 4.858 4.888 5.248 5.578 5.758 6.338 7.238 8.238
800.526 9.258 10.618 12.028 13.518 15.138 16.558 18.258 20.088 21.178 20.528
819.816 18.398 16.208 14.478 12.758 11.028 9.408 7.978 6.888 6.068 5.388
839.106 4.998 4.798 4.558 4.378 4.428 4.628 4.958 5.398 6.018 6.958
858.395 7.988 9.108 10.508 12.048 13.648 15.508 16.988 16.618 15.038 13.678
877.685 12.528 11.508 10.208 9.208 8.828 8.758 9.018 9.738 10.528 11.098
896.975 11.598 11.778 11.738 11.518 11.048 10.358 9.328 8.318 7.608 6.948
916.265 6.418 5.908 5.348 4.908 4.608 4.198 3.708 3.558 3.518 3.318
935.555 3.178 3.278 3.328 3.188 3.108 3.038 2.988 3.008 2.948 2.878
954.844 2.858 2.758 2.538 2.538 2.628 2.488 2.508 2.558 2.548 2.558
974.134 2.518 2.698 2.628 2.448 2.458 2.338 2.188 2.118 2.328 2.578
993.424 2.468 2.568 2.608 2.368 2.498 2.768 3.168 3.528 3.848 4.178
1012.714 4.748 5.938 7.518 9.698 12.328 15.418 18.968 22.138 24.198 24.698
1032.003 24.688 24.898 24.538 22.498 18.738 14.668 11.178 8.688 7.248 6.428
1051.293 6.028 5.928 5.838 6.178 6.898 7.148 7.788 8.538 8.998 9.348
1070.583 9.368 9.738 9.958 9.928 9.978 9.728 9.858 10.268 10.368 10.738
1089.873 11.548 12.508 13.278 14.008 14.928 16.168 16.948 18.148 20.218 22.598
1109.163 25.278 27.788 30.608 33.208 35.318 37.088 38.118 38.198 37.468 36.768
1128.452 36.988 38.458 41.008 44.538 48.928 53.888 59.098 64.248 69.568 75.038
1147.742 80.778 87.478 95.618 105.128 116.378 129.528 144.038 157.278 165.618 166.328
1167.032 162.518 161.148 161.828 159.868 153.528 142.888 130.408 118.148 106.008 94.268
1186.322 82.198 69.968 58.838 50.178 43.618 38.448 34.678 31.298 28.348 25.538
1205.611 23.128 21.478 20.108 18.778 17.458 16.518 15.908 15.608 15.678 15.918
1224.901 16.918 18.528 20.538 23.658 27.378 31.918 38.318 46.178 55.468 65.488
1244.191 74.928 82.538 86.978 88.218 86.868 83.238 77.098 68.158 57.378 46.308
1263.481 36.608 28.968 23.168 19.278 16.668 14.818 13.548 12.458 11.608 11.098
1282.771 10.698 10.488 10.608 10.818 11.158 11.738 12.228 12.718 13.338 14.128
1302.060 15.038 16.078 17.508 19.768 23.248 28.228 35.108 44.108 55.528 69.348
1321.350 85.078 101.438 116.398 128.058 134.988 136.548 132.698 123.698 110.058 92.888
1340.640 73.878 55.318 39.618 28.098 20.308 15.148 11.798 9.678 8.188 7.088
1359.930 6.358 5.768 5.238 4.788 4.428 4.118 3.878 3.738 3.678 3.708
1379.219 3.758 3.838 4.058 4.378 4.628 4.838 5.048 5.258 5.418 5.428
1398.509 5.438 5.478 5.508 5.548 5.718 5.988 6.308 6.768 7.478 8.448
1417.799 9.718 11.438 13.708 16.668 20.438 24.968 30.348 36.198 41.998 46.908
1437.089 50.548 52.348 52.098 49.958 45.898 40.158 33.278 26.198 19.828 15.138
1456.378 12.358 11.158 11.138 11.858 13.428 15.908 19.268 23.628 29.068 35.478
1475.668 42.078 48.408 53.398 56.418 57.158 55.858 52.738 47.958 41.818 34.848
1494.958 27.848 21.658 16.988 13.828 11.768 10.378 9.448 8.788 8.208 7.748
1514.248 7.398 7.038 6.708 6.528 6.428 6.288 6.128 5.888 5.578 5.298
1533.538 4.978 4.598 4.298 4.078 3.908 3.738 3.518 3.408 3.438 3.478
1552.827 3.508 3.568 3.668 3.798 4.058 4.328 4.648 4.938 5.288 5.828
1572.117 6.338 6.838 7.458 8.148 8.668 9.098 9.488 9.738 9.768 9.608
1591.407 9.298 8.998 8.748 8.558 8.538 8.838 9.398 10.308 11.508 13.168
1610.697 15.458 18.418 22.058 26.548 31.518 36.158 40.038 43.028 45.118 45.858
1629.986 45.118 42.828 38.948 33.998 29.068 24.588 20.458 16.798 13.708 11.288
1649.276 9.608 8.388 7.398 6.758 6.228 5.748 5.318 5.008 4.758 4.448
1668.566 4.158 3.958 3.788 3.658 3.568 3.438 3.308 3.208 3.028 2.868
1687.856 2.758 2.648 2.568 2.468 2.338 2.258 2.138 2.038 1.978 1.918
1707.146 1.878 1.868 1.868 1.848 1.828 1.798 1.918 2.078 2.198 2.378
1726.435 2.568 2.648 2.678 2.728 2.838 2.898 2.828 2.778 2.748 2.588
1745.725 2.488 2.408 2.228 2.108 2.008 1.938 1.818 1.728 1.698 1.608
1765.015 1.538 1.468 1.408 1.378 1.378 1.378 1.428 1.378 1.268 1.318
1784.305 1.348 1.298 1.258 1.258 1.248 1.228 1.208 1.168 1.218 1.208
1803.594 1.1119 1.1249 1.1217 1.1131 1.0631 1.0245 1.0062 0.9796 0.9793 0.9514
1822.884 0.9281 0.9713 0.9563 0.9142 0.961 0.983 0.9856 0.9752 0.9655 0.9571
1842.174 0.9502 0.984 0.9908 0.9645 0.9586 0.9772 1.0268 1.0739 1.0952 1.208
1861.464 1.328 1.368 1.468 1.618 1.738 1.858 1.988 2.058 2.048 2.058
1880.754 2.038 1.948 1.838 1.758 1.648 1.508 1.478 1.428 1.418 1.428
1900.043 1.448 1.478 1.458 1.458 1.428 1.418 1.398 1.388 1.418 1.338
1919.333 1.248 1.278 1.258 1.188 1.1569 1.0874 1.0476 1.0287 0.9841 0.924
1938.623 0.8544 0.7917 0.7738 0.7535 0.73 0.7219 0.7348 0.716 0.6548 0.661
1957.913 0.7403 0.7708 0.7391 0.7593 0.7581 0.7064 0.6627 0.6302 0.6437 0.6663
1977.202 0.6967 0.7275 0.7103 0.7363 0.8273 0.8465 0.8448 0.8712 0.9023 0.8415
1996.492 0.8222 0.8195 0.7994 0.855 0.8819 0.879 0.8327 0.813 0.7805 0.7509
2015.782 0.7611 0.7461 0.7639 0.7995 0.7814 0.7603 0.7118 0.697 0.7433 0.7468
2035.072 0.7579 0.7301 0.7134 0.7395 0.7801 0.8634 0.8819 0.8906 0.9024 0.8616
2054.362 0.819 0.8063 0.8352 0.8269 0.8836 0.9621 0.9408 0.9201 0.9336 0.9864
2073.651 0.9499 0.8911 0.93 0.9439 0.8779 0.8374 0.8385 0.7771 0.7077 0.6743
2092.941 0.639 0.6086 0.5506 0.4868 0.4428 0.4437 0.463 0.467 0.4738 0.4991
2112.231 0.5054 0.4956 0.5076 0.5025 0.509 0.5113 0.559 0.6237 0.596 0.5861
2131.521 0.6191 0.6361 0.6909 0.746 0.7778 0.8612 0.9369 0.9672 0.9529 0.9402
2150.810 0.9978 0.9812 0.9228 0.9318 0.9169 0.8622 0.8019 0.7681 0.7388 0.7138
2170.100 0.7125 0.6742 0.6421 0.6449 0.6105 0.5638 0.584 0.6292 0.6357 0.6573
2189.390 0.6722 0.6586 0.6915 0.7316 0.7128 0.6744 0.6727 0.678 0.6711 0.63
2208.680 0.5949 0.6321 0.6429 0.6229 0.6036 0.5876 0.5797 0.5932 0.5742 0.5477
2227.970 0.5956 0.6169 0.6064 0.525 0.4763 0.5618 0.6426 0.6337 0.607 0.5451
2247.259 0.5207 0.5247 0.5467 0.6028 0.6042 0.588 0.5329 0.5121 0.5294 0.5503
2266.549 0.5754 0.6 0.6331 0.6568 0.7399 0.8215 0.885 0.9399 0.9393 0.9698
2285.839 0.9669 1.0038 1.0295 0.9475 0.8957 0.8938 0.885 0.8685 0.885 0.8588
2305.129 0.8119 0.8182 0.8608 0.8878 0.8922 0.8716 0.7961 0.762 0.7759 0.7464
2324.418 0.7913 0.8125 0.7452 0.7434 0.7149 0.6215 0.6162 0.7148 0.7292 0.7346
2343.708 0.74 0.6725 0.7046 0.7707 0.7724 0.7318 0.7113 0.6641 0.5465 0.528
2362.998 0.5759 0.6108 0.5944 0.5237 0.4865 0.532 0.5555 0.5275 0.5026 0.5576
2382.288 0.6004 0.481 0.4336 0.4755 0.4237 0.3658 0.4114 0.4873 0.4494 0.3845
2401.578 0.428 0.4321 0.415 0.5097 0.4865 0.4263 0.4837 0.5133 0.4649 0.4695
2420.867 0.4937 0.4559 0.4531 0.4453 0.3905 0.3536 0.3662 0.4134 0.4726 0.4609
2440.157 0.41 0.3286 0.3503 0.4052 0.337 0.3448 0.3521 0.2727 0.25744 0.2756
2459.447 0.2827 0.2933 0.3034 0.3127 0.24627 0.22925 0.269 0.25151 0.2956 0.3082
2478.737 0.23351 0.24834 0.2943 0.3305 0.397 0.4602 0.4431 0.4153 0.4713 0.488
2498.026 0.4582 0.438 0.3756 0.3945 0.4747 0.5096 0.5543 0.5567 0.4959 0.395
2517.316 0.3891 0.4196 0.3884 0.4304 0.4453 0.4212 0.4358 0.4444 0.4657 0.4924
2536.606 0.5921 0.5345 0.4374 0.4726 0.513 0.4668 0.4279 0.4848 0.4589 0.4001
2555.896 0.4315 0.4767 0.48 0.4079 0.3865 0.5184 0.594 0.5783 0.5428 0.5175
2575.186 0.5018 0.5647 0.6268 0.5836 0.5885 0.6403 0.6493 0.5975 0.5453 0.5689
2594.475 0.5585 0.5495 0.5174 0.4508 0.442 0.4197 0.389 0.3568 0.2827 0.21947
2613.765 0.2844 0.3405 0.3013 0.2755 0.20156 0.19217 0.21929 0.27 0.297 0.2511
2633.055 0.26408 0.2825 0.2819 0.2898 0.3135 0.3624 0.3813 0.3558 0.24589 0.2746
2652.345 0.3989 0.3802 0.3293 0.26294 0.2736 0.385 0.452 0.3993 0.3972 0.4196
2671.634 0.4033 0.3576 0.3083 0.3033 0.2774 0.2565 0.3018 0.3277 0.3072 0.287
2690.924 0.2501 0.25806 0.311 0.3383 0.4385 0.4312 0.2913 0.291 0.3194 0.3234
2710.214 0.3183 0.348 0.3528 0.325 0.279 0.23719 0.2676 0.3699 0.3738 0.25502
2729.504 0.2881 0.3213 0.3114 0.402 0.3296 0.215 0.24971 0.2934 0.2742 0.22658
2748.794 0.22228 0.3052 0.3372 0.26397 0.23485 0.24503 0.2721 0.284 0.25444 0.25482
2768.083 0.3147 0.3107 0.24726 0.20643 0.24133 0.21994 0.15965 0.1014 0.0702 0.1462
2787.373 0.1366 0.114 0.0807 0.068 0.1032 0.1329 0.19128 0.175718 0.19739 0.19289
2806.663 0.18943 0.23931 0.26643 0.324 0.3258 0.22758 0.167655 0.2409 0.23893 0.167494
2825.953 0.133 0.168136 0.24163 0.25482 0.2977 0.2921 0.3056 0.3205 0.2859 0.2931
2845.242 0.3441 0.3638 0.3033 0.3099 0.3189 0.334 0.3823 0.3878 0.4291 0.4672
2864.532 0.4847 0.5473 0.5894 0.5301 0.4977 0.5664 0.6316 0.6295 0.6477 0.5886
2883.822 0.6257 0.728 0.6137 0.4876 0.495 0.4683 0.4197 0.4313 0.4233 0.5417
2903.112 0.5798 0.4384 0.3758 0.3532 0.3131 0.3259 0.3928 0.3771 0.2928 0.24227
2922.401 0.288 0.3138 0.2711 0.24159 0.20462 0.25107 0.3482 0.3212 0.313 0.3931
2941.691 0.3883 0.4445 0.4661 0.3704 0.2978 0.2834 0.18556 0.1263 0.19526 0.2248
2960.981 0.19999 0.1108 0.1176 0.1572 0.1379 0.1336 0.0932 0.1243 0.3053 0.3213
2980.271 0.24444 0.2718 0.4081 0.4988 0.48 0.4924 0.5746 0.6688 0.647 0.6876
2999.561 0.881 0.9721 0.9918 1.1117 1.208 1.288 1.368 1.508 1.648 1.658
3018.850 1.598 1.598 1.598 1.528 1.518 1.548 1.668 1.788 1.938 2.278
3038.140 2.648 3.078 3.518 3.908 4.298 4.648 4.778 4.748 4.698 4.558
3057.430 4.258 3.908 3.568 3.228 2.968 2.818 2.688 2.628 2.668 2.608
3076.720 2.588 2.478 2.118 1.898 1.618 1.358 1.278 1.11 0.9759 0.8525
3096.009 0.7407 0.7768 0.9179 0.9823 0.9108 0.9435 0.9393 0.7956 0.7578 0.7723
3115.299 0.6484 0.56 0.5753 0.5436 0.4782 0.3514 0.434 0.4797 0.3817 0.4103
3134.589 0.3065 0.2308 0.4031 0.3989 0.2725 0.3708 0.4925 0.4189 0.4024 0.37
3153.879 0.3065 0.3157 0.19823 0.22426 0.24141 0.25785 0.3553 0.3377 0.4098 0.5264
3173.169 0.5466 0.3801 0.2493 0.24251 0.2689 0.3088 0.2947 0.26358 0.2901 0.3226
3192.458 0.3821 0.3991 0.3332 0.3584 0.5171 0.6989 0.777 0.7523 0.7153 0.7333
3211.748 0.8481 0.8871 0.9754 1.178 1.168 1.1117 1.0526 1.1173 1.308 1.338
3231.038 1.258 1.258 1.218 1.0554 1.0709 1.1219 1.0354 0.8078 0.7012 0.7195
3250.328 0.6271 0.6231 0.6747 0.6219 0.5144 0.5 0.471 0.4904 0.4533 0.4027
3269.617 0.4099 0.4177 0.4129 0.2702 0.17818 0.206 0.172554 0.1317 0.19386 0.272
3288.907 0.2251 0.175694 0.18253 0.192 0.3844 0.4272 0.2761 0.301 0.2732 0.1426
3308.197 0.1095 0.0813 0 0.009 0.1023 0.19781 0.3197 0.3601 0.3197 0.24799
3327.487 0.1334 0.213 0.3458 0.2754 0.22984 0.24488 0.22987 0.20255 0.18856 0.3041
3346.777 0.3762 0.25013 0.22781 0.2942 0.4293 0.4957 0.335 0.3166 0.4427 0.5139
3366.066 0.5303 0.6071 0.6621 0.6897 0.6782 0.733 1.0252 1.198 1.268 1.408
3385.356 1.428 1.488 1.828 2.168 2.588 3.048 3.398 3.898 4.518 5.198
3404.646 5.948 6.718 7.508 7.988 8.248 8.508 8.628 8.678 8.538 8.418
3423.936 8.438 8.478 8.308 7.878 7.448 6.818 6.108 5.358 4.408 3.318
3443.225 2.478 1.878 1.488 1.278 1.0304 0.9546 0.9689 1.0613 1.0833 0.9877
3462.515 0.9879 1.1042 1.208 1.1525 1.358 1.598 1.838 1.948 2.108 2.438
3481.805 2.658 3.048 3.408 3.698 4.018 4.388 4.678 4.848 4.738 4.738
3501.095 4.778 4.478 4.288 4.298 4.228 4.208 4.208 4.218 4.248 4.248
3520.385 4.158 3.988 3.808 3.368 2.888 2.328 1.678 1.298 1.0576 0.9285
3539.674 0.6549 0.4799 0.5965 0.6257 0.5452 0.4102 0.3256 0.3084 0.2793 0.2805
3558.964 0.2745 0.2788 0.2217 0.17884 0.4389 0.4974 0.21354 0.057 0.19093 0.3276
3578.254 0.2826 0.2855 0.20951 0.21662 0.3598 0.2686 0.1405 0.1 0.20875 0.2809
3597.544 0.3252 0.3618 0.2859 0.20639 0.2375 0.3494 0.26338 0.16194 0.18807 0.2053
3616.833 0.23347 0.26376 0.23349 0.23267 0.1297 0.18765 0.4388 0.3928 0.26287 0.23048
3636.123 0.2619 0.20339 0.19169 0.20944 0.172001 0.0938 0.1553 0.3799 0.4268 0.3278
3655.413 0.1475 0.032 0.0798 0.25372 0.3018 0.18301 0.0764 0.056 0.1501 0.1444
3674.703 0.0864 0.18211 0.22191 0.21903 0.23575 0.24687 0.378 0.2712 0.223 0.366
3693.993 0.4184 0.3745 0.23919 0.198 0.20351 0.2992 0.28 0.21531 0.3615 0.5078
3713.282 0.4992 0.3445 0.23434 0.3331 0.3559 0.26751 0.26422 0.3515 0.3187 0.22922
3732.572 0.3402 0.3987 0.3539 0.3196 0.3393 0.3509 0.3538 0.399 0.18498 0.0967
3751.862 0.3032 0.3141 0.2808 0.3193 0.4368 0.4493 0.387 0.4913 0.4101 0.24844
3771.152 0.19018 0.23362 0.18458 0.05 0.173484 0.3067 0.274 0.19528 0.21692 0.3546
3790.441 0.2928 0.1309 0.21386 0.3043 0.348 0.3704 0.2685 0.1395 0.21657 0.2719
3809.731 0.19039 0.3029 0.24094 0.19902 0.3253 0.3073 0.4642 0.5493 0.4623 0.4734
3829.021 0.4 0.3266 0.289 0.4295 0.413 0.2847 0.5086 0.6266 0.638 0.7225
3848.311 0.8159 0.9134 0.9278 0.9949 1.1332 1.0833 1.0514 1.0605 1.0639 0.9355
3867.601 0.6779 0.6115 0.6238 0.7082 0.6736 0.4853 0.5295 0.5119 0.3489 0.4487
3886.890 0.4627 0.3459 0.3465 0.3039 0.2694 0.2907 0.22639 0.25173 0.3861 0.3069
3906.180 0.24271 0.2818 0.2069 0.25042 0.3164 0.2723 0.26289 0.3571 0.4174 0.3062
3925.470 0.3348 0.3873 0.3545 0.4387 0.5208 0.4353 0.4402 0.6013 0.5864 0.5456
3944.760 0.5618 0.4762 0.5028 0.5987 0.5578 0.6189 0.5558 0.372 0.5083 0.4614
3964.049 0.25919 0.2801 0.2712 0.19869 0.20318 0.16443 0.20244 0.21291 0.16196 0.3572
3983.339 0.5483 0.3608 0.1459 0.2474 0.2771 0.2712 0.24828 0.25817 0.348 0.3461
##END=
