##TITLE=DL-6,8-Thioctamide
##JCAMP-DX=4.24
##DATA TYPE=INFRARED SPECTRUM
##ORIGIN=EPA-IR VAPOR PHASE LIBRARY
##OWNER=SRD/NIST
Collection (C) 2018 copyright by the U.S. Secretary of Commerce
on behalf of the United States of America. All rights reserved.
##CAS REGISTRY NO=3206-73-3
##MOLFORM=C 8 H 15 N O S 2
##$NIST SOURCE=MSDC-IR
##STATE=gas
##XUNITS=1/CM
##YUNITS=ABSORBANCE
##XFACTOR=1.
##YFACTOR=0.001
##DELTAX=1.92898
##FIRSTX=549.8
##LASTX=4000.7
##FIRSTY=1.681
##MAXX=4000.7
##MINX=549.759
##MAXY=0.032351
##MINY=0
##NPOINTS=1790
##XYDATA=(X++(Y..Y))
549.759 1.681 1.1219 1.0481 1.721 1.781 2.301 2.741 2.161 1.811 1.491
569.049 1.571 1.931 2.341 2.671 2.431 2.431 3.001 2.271 1.871 2.211
588.339 2.441 2.341 1.851 2.021 1.871 1.801 2.601 2.901 2.621 2.791
607.628 2.971 2.701 2.641 2.541 2.561 2.971 2.901 2.681 2.231 1.811
626.918 2.171 2.661 2.281 1.881 2.101 2.561 2.601 2.171 2.161 2.081
646.208 1.691 1.631 1.641 1.401 1.481 1.941 1.981 1.541 1.521 1.721
665.498 1.491 1.641 1.701 1.501 1.341 1.361 1.2671 1.1013 1.0662 1.3081
684.787 1.571 1.441 1.481 1.651 1.631 1.441 1.591 1.951 1.861 1.751
704.077 2.111 2.291 2.051 1.941 2.191 2.271 2.411 2.361 2.281 2.571
723.367 2.721 3.241 3.471 2.961 2.911 3.061 3.391 3.871 3.721 3.491
742.657 3.591 3.351 3.541 3.841 3.621 3.581 3.771 3.951 3.711 3.551
761.947 3.851 3.791 3.441 3.461 3.341 3.161 2.881 2.851 3.201 3.141
781.236 2.911 2.861 2.711 2.621 2.501 2.361 2.561 2.801 2.831 2.921
800.526 2.931 2.631 2.431 2.451 2.671 2.831 2.761 2.591 2.321 2.321
819.816 2.451 2.061 2.001 2.041 2.081 2.491 2.671 2.501 2.341 2.571
839.106 2.411 2.071 2.261 2.271 2.271 2.491 2.371 2.141 2.101 2.521
858.395 2.631 2.491 2.271 1.951 2.021 2.381 2.371 2.131 2.131 2.041
877.685 2.031 1.821 1.971 2.431 2.101 1.881 2.231 2.261 1.991 2.211
896.975 2.461 2.121 1.731 1.561 1.771 2.161 1.831 1.381 1.531 1.531
916.265 1.751 2.091 2.291 2.461 2.091 2.051 2.221 1.961 1.771 1.911
935.555 1.971 1.601 1.781 2.201 1.751 1.621 1.851 1.731 1.721 1.881
954.844 1.891 1.851 1.731 1.561 1.811 1.821 1.481 0.9812 0.7216 0.9919
974.134 0.9669 0.9425 1.331 1.0928 0.897 1.511 1.661 1.341 1.3042 1.521
993.424 1.421 1.3087 1.611 1.541 1.217 1.1682 1.231 1.511 1.851 1.701
1012.714 1.371 1.1942 1.2702 1.361 1.2808 1.1457 1.381 1.851 1.621 1.591
1032.003 1.921 1.481 1.421 1.821 1.841 1.881 1.501 1.2184 1.2444 1.2945
1051.293 1.461 1.3022 1.3175 1.361 1.381 2.381 2.811 2.221 1.781 1.451
1070.583 1.931 3.061 3.351 2.581 2.131 2.651 3.341 2.761 2.421 2.711
1089.873 2.271 2.431 1.971 2.301 3.221 2.471 1.991 1.801 1.841 1.811
1109.163 1.371 1.811 1.3022 0.6438 1.1508 1.3295 1.1544 0.495 0.6648 1.411
1128.452 1.1332 1.2085 1.451 1.931 1.571 0.9609 2.051 1.861 1.2215 1.811
1147.742 2.951 3.351 2.281 1.591 1.701 2.091 2.181 1.651 0.804 1.0076
1167.032 1.881 1.481 1.431 2.331 2.901 3.031 2.211 2.021 2.391 1.831
1186.322 1.721 1.0017 0.9416 2.051 2.561 3.171 3.311 3.081 3.001 2.721
1205.611 2.831 2.711 2.811 2.561 3.221 4.131 4.431 4.611 4.261 4.531
1224.901 4.951 4.821 5.181 5.671 5.261 4.361 4.591 5.171 4.891 5.081
1244.191 5.891 6.111 5.891 5.961 6.621 7.011 6.731 7.321 7.771 7.691
1263.481 7.291 6.911 7.331 8.041 8.031 7.751 7.631 7.311 7.221 6.881
1282.771 6.771 7.211 7.341 7.371 7.171 6.811 6.671 6.691 6.611 6.451
1302.060 6.431 6.151 6.151 6.291 6.011 5.911 5.841 5.841 6.011 5.881
1321.350 5.621 5.631 5.821 5.991 6.071 6.171 6.231 6.301 6.501 6.621
1340.640 6.821 7.101 7.141 7.141 7.191 7.311 7.381 7.451 7.601 7.681
1359.930 7.741 7.931 8.201 8.391 8.531 8.481 8.431 8.481 8.451 8.291
1379.219 8.011 7.641 7.201 6.661 6.041 5.641 5.161 4.541 4.161 3.891
1398.509 3.581 3.361 3.251 2.991 2.711 2.701 2.751 2.711 2.691 2.751
1417.799 2.751 2.711 2.901 3.161 3.301 3.281 3.311 3.271 3.351 3.531
1437.089 3.541 3.761 4.001 4.061 3.971 3.821 3.921 4.001 4.041 4.041
1456.378 3.791 3.591 3.541 3.401 3.071 2.671 2.341 2.101 1.911 1.731
1475.668 1.591 1.521 1.431 1.2968 1.161 1.0755 1.092 1.0747 1.0458 1.0523
1494.958 0.969 0.8411 1.0302 1.0506 0.9835 0.995 0.8015 0.7526 0.7259 0.8198
1514.248 0.7797 0.8041 1.0656 0.9879 0.7843 0.7561 0.7444 0.8551 1.1833 1.361
1533.538 1.341 1.1991 1.2147 1.1983 1.1258 1.2269 1.521 1.871 1.921 1.841
1552.827 1.781 2.041 2.461 2.551 2.781 3.181 3.551 3.781 4.141 4.871
1572.117 5.551 6.051 6.811 7.921 9.101 10.281 11.311 12.061 12.191 11.911
1591.407 11.611 11.161 10.241 9.221 8.381 7.681 7.091 6.311 5.751 5.291
1610.697 4.641 4.171 3.761 3.631 3.411 3.171 2.891 2.691 2.531 2.291
1629.986 2.301 2.091 1.891 2.031 1.991 1.831 1.911 1.871 1.751 1.751
1649.276 1.691 1.681 1.771 1.781 1.871 2.111 2.171 2.201 2.481 2.611
1668.566 2.591 2.831 3.181 3.311 3.461 3.871 4.131 4.421 4.881 5.291
1687.856 5.861 6.351 6.951 7.821 8.621 9.301 10.071 11.041 12.081 13.171
1707.146 14.241 15.231 16.471 18.041 19.561 21.131 23.101 25.141 27.101 28.881
1726.435 30.351 31.581 32.291 32.351 31.741 30.461 28.851 27.141 25.051 23.001
1745.725 21.181 19.271 17.571 16.111 14.701 13.501 12.351 11.031 9.851 8.791
1765.015 7.681 6.791 6.051 5.321 4.771 4.221 3.691 3.241 2.841 2.601
1784.305 2.351 2.121 2.001 1.811 1.651 1.541 1.521 1.511 1.381 1.371
1803.594 1.2515 1.002 0.8938 0.899 0.9327 0.9274 0.8587 0.7974 0.87 0.9431
1822.884 0.8503 0.8496 0.9174 0.7855 0.798 0.8897 0.8768 0.789 0.8227 1.0294
1842.174 0.9543 0.7474 0.7804 0.7588 0.7242 0.753 0.7125 0.7252 0.6867 0.6059
1861.464 0.5869 0.6223 0.7228 0.7676 0.6403 0.6097 0.7238 0.7172 0.6751 0.6924
1880.754 0.6842 0.6176 0.5853 0.6872 0.615 0.5114 0.5477 0.5796 0.5896 0.6466
1900.043 0.645 0.5511 0.5197 0.5405 0.596 0.5948 0.6307 0.5638 0.5246 0.533
1919.333 0.4497 0.5017 0.5892 0.6009 0.6297 0.6194 0.5564 0.56 0.6542 0.7161
1938.623 0.5652 0.41556 0.6086 0.7111 0.5821 0.5587 0.5248 0.4668 0.5309 0.5481
1957.913 0.5065 0.5413 0.6168 0.6897 0.655 0.6231 0.7086 0.7586 0.766 0.7244
1977.202 0.5828 0.4742 0.5224 0.5816 0.5442 0.5365 0.5408 0.5425 0.5572 0.5611
1996.492 0.5531 0.5524 0.6027 0.5601 0.5744 0.6211 0.4947 0.340573 0.3113 0.4848
2015.782 0.5246 0.40552 0.4589 0.5517 0.41072 0.35935 0.5829 0.6333 0.5543 0.6598
2035.072 0.689 0.5572 0.4341 0.4485 0.6491 0.6334 0.4639 0.5328 0.6009 0.5406
2054.362 0.42459 0.4437 0.4802 0.42867 0.4447 0.35639 0.37936 0.5763 0.6106 0.5303
2073.651 0.551 0.45 0.36894 0.444 0.40741 0.42227 0.5303 0.5476 0.5155 0.5257
2092.941 0.5549 0.5527 0.5341 0.4711 0.503 0.5046 0.5573 0.6142 0.636 0.6334
2112.231 0.4735 0.40902 0.5332 0.6497 0.6434 0.5837 0.5092 0.4759 0.37482 0.40699
2131.521 0.5025 0.4898 0.5475 0.6183 0.4636 0.4489 0.6886 0.6238 0.40021 0.4358
2150.810 0.4505 0.4402 0.4135 0.3142 0.4428 0.468 0.40911 0.53 0.5978 0.5379
2170.100 0.5472 0.5573 0.4627 0.534 0.6428 0.5726 0.6335 0.694 0.6068 0.5639
2189.390 0.6408 0.6162 0.5064 0.489 0.5076 0.4947 0.5229 0.5822 0.58 0.6087
2208.680 0.5455 0.5752 0.547 0.41661 0.4794 0.5858 0.5516 0.5222 0.5968 0.5681
2227.970 0.4942 0.5527 0.6291 0.7136 0.6352 0.41712 0.4485 0.6867 0.8367 0.6902
2247.259 0.5494 0.4842 0.6123 0.7778 0.6639 0.6062 0.6669 0.6765 0.522 0.4982
2266.549 0.5458 0.5245 0.4904 0.491 0.5654 0.466 0.35051 0.37358 0.5433 0.5869
2285.839 0.5489 0.4517 0.2864 0.3165 0.41251 0.4867 0.4881 0.4632 0.4785 0.34209
2305.129 0.2637 0.39176 0.5098 0.6861 0.6713 0.6415 0.6183 0.4764 0.4495 0.5069
2324.418 0.5625 0.4705 0.39486 0.6269 0.5966 0.42191 0.5094 0.5523 0.6612 0.6202
2343.708 0.5682 0.5946 0.5596 0.5086 0.4565 0.43019 0.5377 0.7037 0.6203 0.6582
2362.998 0.6685 0.6138 0.6602 0.6293 0.5456 0.5972 0.737 0.5956 0.289 0.209
2382.288 0.4619 0.579 0.38691 0.2764 0.35481 0.4405 0.4519 0.4933 0.5333 0.5047
2401.578 0.40963 0.46 0.5675 0.4956 0.41782 0.5046 0.5146 0.38188 0.38665 0.4571
2420.867 0.4665 0.42213 0.35557 0.38097 0.4321 0.4323 0.4506 0.4643 0.5265 0.5406
2440.157 0.5132 0.466 0.5194 0.4512 0.37861 0.5829 0.5524 0.4701 0.4811 0.4936
2459.447 0.4837 0.4854 0.5209 0.4363 0.41409 0.4935 0.5529 0.5258 0.583 0.4949
2478.737 0.41848 0.5161 0.42782 0.5338 0.6108 0.6181 0.7555 0.5909 0.5577 0.6504
2498.026 0.5042 0.42204 0.4312 0.5009 0.6652 0.7108 0.6458 0.472 0.4811 0.606
2517.316 0.40906 0.36898 0.4346 0.35679 0.37937 0.339917 0.34773 0.39441 0.2965 0.334548
2536.606 0.4576 0.4806 0.5787 0.5014 0.34537 0.5172 0.6609 0.6562 0.534 0.4756
2555.896 0.5775 0.6911 0.7126 0.6171 0.39194 0.39317 0.6056 0.5066 0.34322 0.38255
2575.186 0.4843 0.4792 0.4536 0.40118 0.3151 0.28 0.40184 0.5471 0.6373 0.6382
2594.475 0.3881 0.2316 0.36582 0.3822 0.34598 0.5204 0.5965 0.5171 0.4692 0.4636
2613.765 0.4316 0.4908 0.618 0.6285 0.5806 0.5752 0.4531 0.317 0.38474 0.40238
2633.055 0.32397 0.2864 0.346 0.38512 0.5912 0.7451 0.6451 0.6486 0.6198 0.5756
2652.345 0.5752 0.4965 0.4391 0.6659 0.8091 0.8029 0.7154 0.6577 0.6678 0.6845
2671.634 0.6577 0.6767 0.8533 0.8434 0.5536 0.4581 0.6282 0.5858 0.4249 0.39984
2690.924 0.5898 0.6861 0.6743 0.6013 0.5612 0.6346 0.5799 0.5249 0.6578 0.7563
2710.214 0.6601 0.746 0.8703 0.6111 0.4675 0.7752 0.8956 0.7309 0.7207 0.6392
2729.504 0.4957 0.5484 0.7125 0.882 0.8486 0.6314 0.5916 0.5125 0.4606 0.6187
2748.794 0.5106 0.5172 0.7157 0.8425 0.6471 0.35824 0.4937 0.6904 0.7667 0.6097
2768.083 0.6037 0.6513 0.6802 0.8923 0.9031 0.7861 0.7331 0.8383 0.9526 0.9456
2787.373 1.0158 1.0591 0.7744 0.7128 0.9535 1.0128 1.1258 1.2505 1.2732 1.0874
2806.663 1.0612 1.1783 1.1298 1.1082 1.2291 1.501 1.601 1.521 1.431 1.401
2825.953 1.481 1.581 1.771 1.981 2.141 2.231 2.331 2.611 2.751 2.991
2845.242 3.181 3.351 3.701 4.231 4.701 4.761 4.991 5.271 5.371 5.421
2864.532 5.581 5.711 5.651 5.641 5.541 5.311 5.071 4.911 4.971 4.791
2883.822 4.451 4.361 4.411 4.511 4.661 5.081 5.301 5.641 6.001 6.361
2903.112 7.131 7.511 7.891 8.631 9.301 10.181 10.901 11.741 12.891 13.901
2922.401 15.191 16.321 17.131 17.991 18.651 19.441 20.351 20.551 20.451 20.341
2941.691 19.951 19.201 18.531 17.791 16.961 16.031 14.821 13.461 12.501 11.651
2960.981 10.671 9.761 8.851 8.331 7.811 7.461 6.981 6.541 6.081 5.551
2980.271 5.061 4.471 3.951 3.371 2.801 2.461 2.361 2.181 2.061 1.911
2999.561 1.621 1.581 1.731 1.611 1.421 1.2408 1.2159 1.1507 1.1191 1.1035
3018.850 0.9929 1.0487 0.9131 0.7916 0.9088 0.9418 0.8442 0.8543 0.9137 0.9119
3038.140 0.9307 0.7923 0.8652 1.1779 1.0534 0.9339 1.1147 0.8865 0.336213 0.181
3057.430 0.3098 0.32115 0.35165 0.40666 0.2768 0.2736 0.5095 0.4898 0.5576 0.6623
3076.720 0.4416 0.2556 0.35518 0.5447 0.8992 0.9115 0.6649 0.8865 0.6943 0.534
3096.009 0.7389 0.6209 0.5961 0.8077 0.8024 0.5369 0.6286 0.6507 0.5853 0.7228
3115.299 0.5222 0.4996 0.5176 0.32408 0.5857 0.8648 0.6638 0.5743 0.4745 0.34853
3134.589 0.6919 0.8325 0.7031 0.8225 0.6567 0.4724 0.4353 0.4612 0.6287 0.766
3153.879 0.7186 0.5958 0.5848 0.6203 0.6971 0.6604 0.5556 0.609 0.8105 0.761
3173.169 0.5816 0.4928 0.5019 0.6033 0.6103 0.6891 0.7118 0.3253 0.178 0.37339
3192.458 0.498 0.5789 0.6342 0.717 0.8848 0.7947 0.5829 0.6552 0.6772 0.482
3211.748 0.5161 0.4451 0.37915 0.7119 0.5055 0.4019 0.6141 0.6241 0.5605 0.5373
3231.038 0.6142 0.6449 0.42393 0.3178 0.37806 0.5449 0.6859 0.7001 0.6979 0.39706
3250.328 0.4327 0.6164 0.5944 0.5174 0.40886 0.2358 0.2854 0.526 0.5544 0.5475
3269.617 0.5675 0.5757 0.5054 0.32611 0.40235 0.4391 0.35455 0.2981 0.4557 0.6521
3288.907 0.6656 0.5692 0.4913 0.5845 0.4859 0.5427 0.6175 0.588 0.5775 0.5515
3308.197 0.7929 0.6946 0.4765 0.6096 0.7627 0.872 0.6411 0.38378 0.5334 0.7234
3327.487 0.7608 0.7068 0.4597 0.32665 0.5027 0.6866 0.8888 0.9095 0.5781 0.5873
3346.777 0.9013 0.8298 0.5039 0.37501 0.5867 0.6417 0.5651 0.6977 0.9866 0.9959
3366.066 0.732 1.0331 1.0263 0.7525 0.6064 0.4983 0.5078 0.6496 0.715 0.7253
3385.356 0.8324 0.7929 1.0942 1.401 1.441 1.1726 1.2055 1.481 1.591 1.591
3404.646 1.791 2.251 2.461 2.581 2.691 2.711 2.631 2.831 2.891 2.611
3423.936 2.531 2.891 3.331 3.361 3.201 3.211 3.511 3.801 3.961 3.981
3443.225 3.851 3.631 3.251 3.141 2.771 2.241 2.041 1.581 1.571 1.661
3462.515 1.451 1.641 1.431 1.0783 1.2517 1.1709 0.9593 0.9934 1.1418 1.1745
3481.805 1.0655 0.7715 0.8087 0.9705 0.9099 1.104 1.1994 1.2195 1.361 1.391
3501.095 1.2683 1.1785 1.501 1.521 1.1434 1.2746 1.421 1.3199 1.551 1.851
3520.385 1.951 1.921 1.871 2.151 2.251 2.271 2.081 1.931 1.931 1.851
3539.674 1.941 2.061 2.001 2.161 2.671 2.851 2.791 2.791 3.161 3.511
3558.964 3.411 3.451 3.471 3.021 2.581 2.121 1.891 1.651 1.581 1.571
3578.254 1.491 1.421 1.1925 1.2445 1.1858 0.8023 0.5932 0.6636 0.4689 0.182
3597.544 0.32134 0.5624 0.6781 0.6291 0.477 0.36738 0.203 0.2881 0.518 0.6008
3616.833 0.37621 0.36942 0.6665 0.5906 0.4341 0.5252 0.4824 0.40921 0.6284 0.6782
3636.123 0.6167 0.40691 0.093 0.39826 0.5873 0.39028 0.5121 0.5833 0.6632 0.7348
3655.413 0.6719 0.5949 0.6099 0.7398 0.523 0.42089 0.4933 0.333287 0.2684 0.4916
3674.703 0.34424 0.3431 0.6002 0.34889 0.209 0.36106 0.5378 0.6562 0.6323 0.4465
3693.993 0.3637 0.37821 0.5992 0.6631 0.43005 0.3062 0.217 0.5196 0.6529 0.4592
3713.282 0.519 0.4806 0.4693 0.42345 0.3276 0.5196 0.8974 0.8274 0.5971 0.41511
3732.572 0.2577 0.208 0.3123 0.4974 0.5141 0.39098 0.32946 0.451 0.6751 0.5004
3751.862 0.5152 0.7366 0.2415 0.159 0.42912 0.6614 0.7145 0.689 0.6763 0.463
3771.152 0.2825 0.164 0.32198 0.2887 0.2803 0.7501 0.709 0.576 0.7035 0.6559
3790.441 0.42707 0.3072 0.34153 0.5601 0.7243 0.7614 0.7995 0.7682 0.685 0.5877
3809.731 0.7947 0.7741 0.4777 0.2938 0.2798 0.2669 0.2774 0.5896 0.6102 0.334207
3829.021 0.4353 0.6422 0.6027 0.5505 0.34274 0.2326 0.4633 0.6198 0.5864 0.4923
3848.311 0.6736 0.5814 0.154 0.2583 0.552 0.489 0.4499 0.668 0.6512 0.3844
3867.601 0.335793 0.428 0.6997 0.7278 0.40117 0.4388 0.5579 0.6344 0.6104 0.248
3886.890 0.192 0.065 0.028 0.197 0.224 0.3918 0.6592 0.8175 0.5956 0.484
3906.180 0.40098 0.096 0.119 0.42123 0.6661 0.5183 0.6376 0.9677 0.6231 0.115
3925.470 0 0.3 0.7595 0.6773 0.34488 0.5356 0.4532 0.5618 1.0358 0.8701
3944.760 0.6119 0.4929 0.41006 0.5595 0.37807 0.5894 0.9588 0.4331 0.193 0.618
3964.049 0.7428 0.8307 0.7809 0.5692 0.7435 0.5656 0.37752 0.6088 0.547 0.02
3983.339 0.2557 0.6126 0.4038 0.5177 0.6093 0.6594 0.4753 0.063 0.057 0.4389
##END=
