##TITLE=Hexadecenyl succinic anhydride
##JCAMP-DX=4.24
##DATA TYPE=INFRARED SPECTRUM
##ORIGIN=EPA-IR VAPOR PHASE LIBRARY
##OWNER=SRD/NIST
Collection (C) 2018 copyright by the U.S. Secretary of Commerce
on behalf of the United States of America. All rights reserved.
##CAS REGISTRY NO=32072-96-1
##MOLFORM=C 20 H 34 O 3
##$NIST SOURCE=MSDC-IR
##STATE=gas
##XUNITS=1/CM
##YUNITS=ABSORBANCE
##XFACTOR=1.
##YFACTOR=0.001
##DELTAX=3.85796
##FIRSTX=501.5
##LASTX=4000.7
##FIRSTY=0
##MAXX=4000.7
##MINX=501.534
##MAXY=0.05815
##MINY=0
##NPOINTS=908
##XYDATA=(X++(Y..Y))
501.534 0 0.057 0.27127 0.4218 0.4602 0.5284 0.7077 0.6069 0.6741 0.8935
540.114 0.7943 0.8465 0.9409 0.9276 1.0325 1.1881 1.38 1.51 1.78 1.88
578.693 1.69 1.6 1.55 1.54 1.54 1.49 1.48 1.46 1.45 1.42
617.273 1.41 1.47 1.52 1.53 1.55 1.56 1.53 1.55 1.55 1.47
655.852 1.44 1.42 1.35 1.34 1.36 1.33 1.36 1.39 1.43 1.49
694.432 1.57 1.75 1.96 2.2 2.48 2.71 2.95 3.05 2.96 2.81
733.011 2.59 2.32 2.01 1.76 1.59 1.45 1.37 1.28 1.2458 1.178
771.591 1.1092 1.1851 1.2166 1.1761 1.1369 1.1047 1.0251 0.9345 0.8574 0.8359
810.170 0.9048 0.8989 0.9061 0.9136 0.9235 0.9732 0.9929 1.0147 1.0239 1.111
848.750 1.2417 1.32 1.46 1.7 1.99 2.43 3.12 3.96 5.05 6.35
887.330 7.66 8.9 9.94 10.94 12.02 13.1 14.16 14.99 15.25 14.96
925.909 14.07 12.73 11.24 9.86 8.72 7.87 7.28 6.83 6.61 6.74
964.489 7.21 7.71 7.88 7.68 7.19 6.55 6 5.54 5.2 5.06
1003.068 5.04 5.1 5.21 5.38 5.59 5.81 6.06 6.44 7.04 7.64
1041.648 8.36 9.21 10.13 11.26 12.37 13.21 13.49 12.85 11.42 9.6
1080.227 7.77 6.34 5.29 4.46 3.75 3.16 2.7 2.48 2.25 1.99
1118.807 1.95 1.84 1.7 1.79 1.89 1.88 1.94 2.02 2.09 2.29
1157.387 2.55 2.77 2.98 3.29 3.66 3.87 4.07 4.38 4.74 5.17
1195.966 5.74 6.39 6.99 7.65 8.25 8.67 8.93 8.99 8.87 8.48
1234.546 7.79 6.85 6.01 5.41 4.93 4.51 4.09 3.75 3.43 3.1
1273.125 2.91 2.84 2.79 2.71 2.64 2.71 2.83 2.94 2.99 2.98
1311.705 2.96 2.88 2.79 2.71 2.67 2.65 2.66 2.72 2.8 2.88
1350.284 2.87 2.76 2.56 2.32 2.13 1.93 1.75 1.64 1.59 1.51
1388.864 1.4 1.32 1.27 1.32 1.41 1.51 1.67 1.89 2.25 2.73
1427.443 3.06 3.18 3.32 3.65 4.1 4.43 4.56 4.64 4.76 4.7
1466.023 4.34 3.72 2.97 2.35 1.9 1.59 1.36 1.2068 1.099 1.0024
1504.603 0.9171 0.8629 0.8506 0.805 0.737 0.7246 0.7259 0.6935 0.6683 0.6131
1543.182 0.5895 0.6288 0.6326 0.5984 0.56 0.5879 0.6154 0.5805 0.5617 0.5591
1581.762 0.5688 0.5721 0.5531 0.5538 0.5599 0.563 0.5625 0.5674 0.5662 0.5486
1620.341 0.5588 0.5546 0.5752 0.61 0.6548 0.6984 0.7047 0.7236 0.7217 0.7775
1658.921 0.8656 0.8853 0.8854 0.8554 0.8008 0.7802 0.745 0.7451 0.7985 0.7993
1697.500 0.7838 0.8058 0.8553 0.9005 0.9415 0.9624 1.0252 1.135 1.241 1.34
1736.080 1.5 1.69 1.9 2.14 2.47 2.98 3.62 4.44 5.54 6.96
1774.659 8.8 11.18 14.36 18.68 24.52 32.26 41.3 49.9 54.75 53.03
1813.239 45.52 35.99 27.54 21.12 16.49 13.22 10.87 9.18 7.99 7.24
1851.819 6.88 6.9 7.3 8.14 9.49 11.31 12.92 12.94 10.78 7.77
1890.398 5.37 3.86 2.96 2.37 1.99 1.72 1.52 1.36 1.27 1.1914
1928.978 1.1112 1.0598 1.0301 0.966 0.8906 0.8318 0.7929 0.7683 0.7509 0.7273
1967.557 0.6851 0.6795 0.6929 0.6829 0.6693 0.6583 0.6431 0.6602 0.6744 0.6833
2006.137 0.7064 0.7191 0.7133 0.6988 0.6762 0.6494 0.6291 0.6079 0.597 0.5907
2044.716 0.5937 0.5791 0.5559 0.577 0.574 0.5548 0.571 0.5795 0.5719 0.5604
2083.296 0.5697 0.597 0.5962 0.5898 0.6086 0.6149 0.6164 0.6092 0.602 0.6254
2121.875 0.6656 0.6737 0.6757 0.6985 0.6886 0.6937 0.7106 0.6905 0.6943 0.6909
2160.455 0.65 0.6245 0.6047 0.5828 0.5846 0.5745 0.5267 0.5145 0.5289 0.5307
2199.035 0.5446 0.5556 0.5483 0.539 0.5298 0.5259 0.5424 0.5513 0.5379 0.5315
2237.614 0.5282 0.5189 0.4862 0.4941 0.5172 0.5193 0.5238 0.493 0.475 0.4911
2276.194 0.4991 0.5069 0.5232 0.5161 0.4969 0.4946 0.4932 0.4731 0.4684 0.4847
2314.773 0.4736 0.4506 0.4288 0.3971 0.4034 0.4141 0.3942 0.3915 0.3968 0.4106
2353.353 0.3912 0.34856 0.33968 0.3447 0.35744 0.3885 0.4299 0.4648 0.4636 0.4449
2391.932 0.4194 0.4088 0.4561 0.4844 0.4627 0.4244 0.4064 0.4272 0.445 0.4518
2430.512 0.4285 0.4351 0.4519 0.4371 0.426 0.4033 0.4063 0.399 0.3766 0.376
2469.092 0.3789 0.3814 0.3877 0.3832 0.3834 0.3764 0.4016 0.4127 0.3896 0.416
2507.671 0.4665 0.4789 0.4413 0.4358 0.4455 0.4468 0.4804 0.5006 0.4761 0.4694
2546.251 0.4978 0.4985 0.5061 0.4982 0.4845 0.5219 0.5364 0.5293 0.5061 0.5145
2584.830 0.5675 0.5691 0.5231 0.5137 0.5448 0.5811 0.5912 0.5898 0.5768 0.5831
2623.410 0.6104 0.6272 0.6514 0.6615 0.6744 0.694 0.6951 0.7055 0.7286 0.7478
2661.989 0.7694 0.7859 0.7975 0.7965 0.8337 0.8419 0.8304 0.8356 0.8039 0.7901
2700.569 0.7847 0.7451 0.7442 0.7832 0.8046 0.8119 0.8072 0.7977 0.779 0.8049
2739.148 0.8633 0.8431 0.8457 0.9017 0.9148 0.9274 0.9668 1.0342 1.0829 1.1006
2777.728 1.1583 1.2402 1.29 1.36 1.5 1.62 1.71 1.83 1.97 2.14
2816.308 2.32 2.54 2.84 3.22 3.66 4.24 5.09 6.34 8.26 11.07
2854.887 14.93 18.99 21.16 20.35 17.7 14.99 13.05 11.93 11.35 11.14
2893.467 11.46 12.45 14.13 16.47 19.42 23.11 27.85 34.37 43.12 52.46
2932.046 58.15 56.74 49.29 39.58 30.68 23.94 19.59 17.17 15.9 14.89
2970.626 13.39 11.26 9.12 7.49 6.32 5.47 4.84 4.33 3.9 3.56
3009.205 3.36 3.22 3.13 2.98 2.76 2.56 2.35 2.12 1.88 1.66
3047.785 1.48 1.37 1.26 1.1666 1.0651 0.9459 0.8699 0.8191 0.7904 0.7523
3086.364 0.7142 0.709 0.7113 0.7002 0.6784 0.6709 0.6413 0.613 0.6143 0.5875
3124.944 0.5774 0.5954 0.5526 0.525 0.5109 0.4786 0.4858 0.5203 0.532 0.4887
3163.524 0.4389 0.4139 0.3962 0.4117 0.4582 0.4419 0.3903 0.368 0.3848 0.4173
3202.103 0.4496 0.4198 0.3732 0.34562 0.3429 0.3657 0.3634 0.31488 0.27566 0.30727
3240.683 0.29246 0.29108 0.35258 0.338 0.27537 0.27535 0.30137 0.33077 0.371 0.3622
3279.262 0.3312 0.31917 0.27864 0.269203 0.28677 0.29821 0.3033 0.267068 0.25365 0.27156
3317.842 0.29567 0.263987 0.2355 0.2133 0.2381 0.27849 0.265036 0.2426 0.2269 0.2289
3356.421 0.229 0.2042 0.1986 0.2369 0.228 0.25669 0.267046 0.2236 0.2301 0.2339
3395.001 0.2194 0.2364 0.2125 0.1734 0.2335 0.25657 0.2354 0.27267 0.2584 0.2423
3433.580 0.25852 0.2461 0.2519 0.27518 0.267357 0.25044 0.2502 0.1934 0.144 0.1982
3472.160 0.236 0.2346 0.32065 0.35589 0.2512 0.2066 0.2127 0.1711 0.1821 0.2135
3510.740 0.2471 0.27527 0.27813 0.245 0.2222 0.2428 0.2491 0.25058 0.27807 0.27877
3549.319 0.27213 0.31453 0.30021 0.259204 0.28004 0.29712 0.32517 0.3721 0.371 0.32793
3587.899 0.34075 0.3897 0.4195 0.503 0.5661 0.5565 0.5451 0.5368 0.5524 0.5818
3626.478 0.5156 0.531 0.6246 0.6891 0.7644 0.751 0.7469 0.8121 0.8686 0.8878
3665.058 0.8543 0.7849 0.6823 0.5882 0.5434 0.4989 0.4004 0.35544 0.3645 0.32804
3703.637 0.35995 0.4077 0.4034 0.4001 0.39 0.3774 0.35592 0.28069 0.27035 0.33446
3742.217 0.33715 0.30616 0.2463 0.2847 0.35361 0.33711 0.32219 0.33301 0.32468 0.2322
3780.797 0.25528 0.33418 0.32877 0.30105 0.27977 0.3097 0.29524 0.2313 0.2301 0.2099
3819.376 0.22 0.27693 0.2711 0.31722 0.2448 0.147 0.1981 0.2206 0.1769 0.1978
3857.956 0.25833 0.1807 0.1612 0.1946 0.223 0.2437 0.1684 0.128 0.1643 0.1961
3896.535 0.2137 0.27217 0.32103 0.29562 0.2461 0.1947 0.1997 0.2857 0.358 0.3761
3935.115 0.29202 0.28775 0.31117 0.269106 0.31688 0.35323 0.28558 0.29178 0.3759 0.33985
3973.694 0.263162 0.267267 0.27746 0.28498 0.32232 0.2874 0.259577 0.34382
##END=
