##TITLE=1-Fluoronaphthalene
##JCAMP-DX=4.24
##DATA TYPE=INFRARED SPECTRUM
##ORIGIN=NIST Mass Spectrometry Data Center
##OWNER=NIST Standard Reference Data Program
Collection (C) 2018 copyright by the U.S. Secretary of Commerce
on behalf of the United States of America. All rights reserved.
##CAS REGISTRY NO=321-38-0
##MOLFORM=C 10 H 7 F
##$NIST SOURCE=MSDC-IR
##SPECTROMETER/DATA SYSTEM=HP-GC/MS/IRD
##STATE=gas
##XUNITS=1/CM
##YUNITS=ABSORBANCE
##XFACTOR=1.0
##YFACTOR=0.000002900
##DELTAX=4.0
##FIRSTX=550.0
##LASTX=3846.0
##FIRSTY=0.000902
##MAXX=3846
##MINX=550
##MAXY=0.029
##MINY=0
##NPOINTS=825
##XYDATA=(X++(Y..Y))
550.0 311 744 1148 1765 1626 1157 999 668 334 146
590.0 71 84 66 59 54 64 74 64 104 107
630.0 77 42 28 18 0 5 17 26 23 48
670.0 44 29 49 91 133 195 360 650 950 1066
710.0 1108 1157 900 549 419 460 541 691 1111 2008
750.0 3401 4586 5713 9124 10000 6871 5962 5965 5299 5593
790.0 7483 6614 4467 3725 2634 1579 920 562 363 259
830.0 201 181 170 197 245 330 478 629 778 1014
870.0 1193 1142 1072 980 688 411 271 231 191 158
910.0 160 130 102 112 135 141 154 165 181 213
950.0 228 273 334 303 234 202 183 175 196 241
990.0 337 503 777 1117 1339 1412 1392 1306 1162 1090
1030.0 1131 1165 1171 1144 1001 795 718 823 1190 1935
1070.0 2718 2782 2697 2814 2101 1090 549 295 187 162
1110.0 153 156 160 141 137 158 180 189 211 335
1150.0 482 549 577 587 507 368 274 219 178 175
1190.0 188 206 228 272 364 532 860 1462 2354 3213
1230.0 3510 3598 3674 3136 2513 2481 2850 3054 3287 3397
1270.0 2841 2138 1485 909 556 366 271 229 193 173
1310.0 174 167 163 164 154 156 187 229 278 355
1350.0 406 432 465 513 614 839 1235 1791 2607 3909
1390.0 5313 5763 5515 5330 4448 2927 1849 1324 1082 1028
1430.0 1032 1082 1222 1360 1513 1698 1866 1901 1808 1746
1470.0 1609 1310 1023 834 806 923 1146 1497 1876 2130
1510.0 2201 2129 1903 1469 988 642 444 347 302 296
1550.0 347 476 708 1002 1326 1647 1928 2176 2310 2463
1590.0 2715 2897 2851 2733 2542 2061 1510 1072 814 751
1630.0 790 881 944 935 865 730 541 379 284 250
1670.0 255 283 314 319 295 277 262 233 222 247
1710.0 271 269 261 259 272 300 332 349 355 352
1750.0 350 345 343 334 306 260 195 137 111 118
1790.0 152 179 207 225 226 244 254 274 317 360
1830.0 398 405 360 283 216 166 117 84 64 52
1870.0 50 48 48 60 87 138 221 322 414 466
1910.0 495 498 439 372 341 315 297 301 306 293
1950.0 254 207 155 110 83 64 52 41 27 15
1990.0 9 9 14 16 17 16 13 12 19 23
2030.0 22 22 21 23 23 25 25 25 23 19
2070.0 18 16 23 30 32 26 28 45 54 50
2110.0 43 44 35 12 4 9 14 19 16 18
2150.0 22 13 13 16 16 18 18 20 20 13
2190.0 14 8 9 23 35 35 24 23 28 31
2230.0 25 25 32 31 30 37 40 39 39 45
2270.0 48 51 59 62 56 61 67 73 79 89
2310.0 104 106 94 88 74 62 56 54 47 39
2350.0 31 28 32 35 38 39 35 35 28 28
2390.0 35 39 32 23 28 40 43 59 83 83
2430.0 75 72 67 58 48 42 35 42 47 41
2470.0 35 35 36 32 37 46 47 39 30 32
2510.0 43 43 31 26 28 23 23 29 26 20
2550.0 21 26 18 16 15 10 17 22 10 2
2590.0 10 19 12 10 22 33 27 22 22 26
2630.0 29 25 19 12 19 22 20 29 33 29
2670.0 28 21 21 29 26 23 26 29 26 22
2710.0 37 54 60 62 58 53 41 21 19 27
2750.0 30 31 30 28 22 28 28 26 24 21
2790.0 30 38 40 35 31 25 21 22 22 27
2830.0 23 20 30 38 36 32 32 40 46 40
2870.0 36 36 45 45 58 65 55 56 55 64
2910.0 71 71 59 53 79 116 127 120 122 136
2950.0 151 161 165 164 159 142 142 155 154 152
2990.0 149 174 209 248 318 393 446 492 528 565
3030.0 616 723 910 1205 1648 2269 3033 3705 4107 4316
3070.0 4241 3845 3346 2813 2366 2058 1774 1478 1193 905
3110.0 631 417 261 158 108 96 90 75 65 62
3150.0 73 69 58 82 78 56 64 59 49 54
3190.0 49 49 54 50 47 29 30 33 35 45
3230.0 67 61 43 48 42 35 31 20 24 30
3270.0 21 32 36 21 24 30 27 35 28 28
3310.0 38 29 30 48 56 53 49 45 43 44
3350.0 39 27 38 50 38 24 25 18 20 44
3390.0 26 0 30 42 19 29 30 36 37 17
3430.0 29 35 39 33 16 12 25 32 22 8
3470.0 21 43 42 31 27 35 42 32 22 33
3510.0 36 38 42 18 12 40 42 44 42 40
3550.0 43 50 55 48 45 49 39 32 45 52
3590.0 59 60 48 38 48 42 23 37 62 62
3630.0 52 45 44 38 51 59 50 60 47 37
3670.0 45 56 59 56 56 60 54 54 49 32
3710.0 39 56 60 42 42 66 60 44 48 65
3750.0 74 59 62 68 54 68 74 73 77 62
3790.0 55 63 67 85 98 101 95 105 94 59
3830.0 64 81 81 82 83
##END=
