##TITLE=2-Fluoroanisole
##JCAMP-DX=4.24
##DATA TYPE=INFRARED SPECTRUM
##ORIGIN=NIST Mass Spectrometry Data Center
##OWNER=NIST Standard Reference Data Program
Collection (C) 2018 copyright by the U.S. Secretary of Commerce
on behalf of the United States of America. All rights reserved.
##CAS REGISTRY NO=321-28-8
##MOLFORM=C 7 H 7 F O
##$NIST SOURCE=MSDC-IR
##SPECTROMETER/DATA SYSTEM=HP-GC/MS/IRD
##STATE=gas
##XUNITS=1/CM
##YUNITS=ABSORBANCE
##XFACTOR=1.0
##YFACTOR=0.000004900
##DELTAX=4.0
##FIRSTX=550.0
##LASTX=3846.0
##FIRSTY=0.000568
##MAXX=3846
##MINX=550
##MAXY=0.049
##MINY=0
##NPOINTS=825
##XYDATA=(X++(Y..Y))
550.0 116 227 220 223 219 232 248 250 242 230
590.0 214 185 159 132 89 60 52 41 26 26
630.0 32 38 30 27 19 3 14 19 7 8
670.0 21 32 47 44 46 76 104 134 164 218
710.0 306 447 682 1067 1620 2297 3088 4134 5295 5770
750.0 5529 4798 3760 2843 2059 1379 885 565 379 294
790.0 246 209 191 180 190 226 291 398 547 704
830.0 821 871 866 828 743 593 431 304 227 178
870.0 147 119 105 117 115 110 118 130 150 177
910.0 208 242 260 264 277 255 211 179 159 144
950.0 150 164 170 178 199 231 264 311 366 440
990.0 540 673 853 1074 1326 1573 1827 2131 2491 2819
1030.0 2994 3037 2945 2704 2273 1730 1266 908 634 471
1070.0 404 379 390 450 581 812 1123 1452 1682 1793
1110.0 1810 1708 1467 1117 774 531 401 360 382 430
1150.0 485 544 602 674 757 856 953 1042 1139 1243
1190.0 1357 1518 1774 2160 2640 3048 3260 3324 3291 3092
1230.0 2717 2417 2424 2825 3645 4807 6093 7326 8481 9335
1270.0 9588 9089 8129 7023 5759 4487 3492 2856 2485 2241
1310.0 2036 1828 1598 1331 1034 764 579 461 378 324
1350.0 293 276 266 257 251 245 253 268 288 314
1390.0 343 376 398 410 423 433 454 510 602 733
1430.0 907 1092 1259 1410 1571 1756 1908 2017 2102 2109
1470.0 2053 2040 2164 2618 3567 5116 6986 8652 9697 10000
1510.0 9631 8506 6675 4696 3201 2259 1636 1209 917 745
1550.0 665 647 678 729 798 904 1013 1138 1249 1333
1590.0 1400 1492 1610 1700 1734 1714 1628 1463 1206 882
1630.0 593 404 290 232 205 203 206 191 188 192
1670.0 190 186 179 183 168 149 142 139 134 118
1710.0 108 109 110 103 101 111 126 136 144 152
1750.0 161 168 176 180 180 181 174 161 152 138
1790.0 130 124 120 115 105 107 102 97 98 101
1830.0 100 99 104 114 118 119 127 138 150 161
1870.0 170 177 182 181 173 155 146 138 130 130
1910.0 129 130 135 131 122 111 100 85 72 64
1950.0 62 57 55 55 51 51 55 64 71 80
1990.0 95 113 131 150 170 189 206 216 219 218
2030.0 215 205 196 185 177 168 158 149 137 119
2070.0 104 97 89 78 70 67 67 70 72 74
2110.0 73 69 65 58 52 46 42 38 33 32
2150.0 27 23 21 19 19 17 14 13 14 17
2190.0 18 19 17 20 23 25 31 34 34 39
2230.0 48 55 62 69 73 75 76 74 73 71
2270.0 62 53 47 46 47 45 48 53 55 58
2310.0 59 57 53 44 41 49 50 43 39 38
2350.0 34 31 33 30 25 24 23 19 19 17
2390.0 11 10 15 21 25 28 36 46 49 53
2430.0 65 69 69 68 57 54 52 49 45 39
2470.0 39 45 47 46 41 39 42 43 42 44
2510.0 45 45 49 57 64 70 83 91 90 99
2550.0 105 106 111 114 117 119 116 108 96 83
2590.0 74 67 59 53 45 39 35 32 30 27
2630.0 27 22 14 13 10 6 12 17 17 13
2670.0 8 10 14 10 7 9 7 5 10 15
2710.0 14 14 12 8 15 19 23 30 37 40
2750.0 39 39 45 51 53 54 59 62 60 64
2790.0 79 93 109 125 142 166 201 235 279 348
2830.0 460 609 764 883 936 928 873 765 624 507
2870.0 447 436 441 459 488 527 565 610 659 696
2910.0 734 788 841 889 953 1055 1197 1357 1495 1592
2950.0 1647 1643 1590 1487 1331 1188 1091 1016 960 930
2990.0 919 946 1017 1098 1158 1163 1111 1030 927 807
3030.0 706 656 665 701 742 797 859 915 982 1046
3070.0 1085 1092 1070 1017 927 798 673 559 440 347
3110.0 277 220 182 151 123 107 89 78 76 74
3150.0 69 64 58 51 42 30 24 24 28 35
3190.0 33 33 32 24 24 26 30 36 28 16
3230.0 19 22 24 20 11 11 20 25 29 26
3270.0 13 15 14 13 15 13 14 20 16 8
3310.0 0 2 18 16 12 18 25 27 26 23
3350.0 14 15 23 18 15 14 12 17 20 18
3390.0 21 15 10 20 26 25 22 18 26 30
3430.0 24 22 8 4 6 8 10 15 23 27
3470.0 23 17 21 23 18 21 26 28 25 19
3510.0 16 27 32 26 25 27 26 29 31 16
3550.0 8 9 5 6 16 18 16 16 17 25
3590.0 30 31 31 31 29 28 31 27 18 15
3630.0 23 19 18 22 27 32 23 27 31 33
3670.0 36 33 37 31 25 30 35 31 25 36
3710.0 51 52 43 31 18 23 31 28 38 45
3750.0 35 28 18 13 24 36 31 23 33 39
3790.0 42 33 31 35 34 34 30 43 48 37
3830.0 38 49 49 40 39
##END=
