##TITLE=2-(Trimethylsilyl)benzothiazole
##JCAMP-DX=4.24
##DATA TYPE=INFRARED SPECTRUM
##ORIGIN=EPA-IR VAPOR PHASE LIBRARY
##OWNER=SRD/NIST
Collection (C) 2018 copyright by the U.S. Secretary of Commerce
on behalf of the United States of America. All rights reserved.
##CAS REGISTRY NO=32137-73-8
##MOLFORM=C 10 H 13 N S Si
##$NIST SOURCE=MSDC-IR
##STATE=gas
##XUNITS=1/CM
##YUNITS=ABSORBANCE
##XFACTOR=1.
##YFACTOR=0.001
##DELTAX=1.92898
##FIRSTX=549.8
##LASTX=4000.7
##FIRSTY=2.986
##MAXX=4000.7
##MINX=549.759
##MAXY=0.253706
##MINY=0
##NPOINTS=1790
##XYDATA=(X++(Y..Y))
549.759 2.986 4.636 6.696 9.016 11.756 13.006 12.796 12.476 11.756 10.776
569.049 8.456 4.906 3.046 3.046 2.876 1.846 1.736 2.206 1.896 1.826
588.339 2.516 3.306 3.786 3.946 4.346 4.986 4.906 4.376 4.376 5.166
607.628 6.476 8.576 12.066 17.346 24.276 31.186 38.126 44.706 47.496 46.346
626.918 43.076 37.646 30.566 23.276 16.956 13.216 11.256 10.096 10.236 10.216
646.208 9.846 9.486 8.866 8.436 7.756 6.676 5.876 5.226 5.046 4.976
665.498 4.676 4.656 4.636 5.096 5.376 5.526 6.166 6.796 7.566 8.536
684.787 9.426 10.916 12.906 14.396 16.316 18.736 20.776 23.556 26.996 29.736
704.077 32.266 34.336 36.346 38.706 40.836 42.146 43.596 45.816 47.946 49.936
723.367 52.246 55.986 59.916 59.026 52.606 47.316 44.946 43.586 43.386 43.376
742.657 44.776 48.846 54.666 61.016 67.616 74.826 83.696 93.856 98.056 93.636
761.947 87.706 82.636 77.286 71.296 64.236 56.456 49.116 42.636 37.346 32.956
781.236 29.356 27.056 25.536 24.136 22.756 22.296 22.416 22.416 23.086 24.676
800.526 26.226 28.216 31.556 35.356 39.666 44.906 50.146 56.756 64.696 73.076
819.816 82.096 92.166 103.046 113.096 122.726 132.606 140.976 147.956 155.376 162.666
839.106 171.466 184.036 199.346 216.226 233.306 246.856 253.706 252.706 246.076 237.756
858.395 227.846 216.596 203.526 189.576 174.546 157.836 139.566 120.226 103.086 89.426
877.685 78.376 70.006 64.056 59.086 54.906 50.846 47.316 44.846 42.056 39.016
896.975 36.716 34.556 32.466 30.966 29.466 27.346 25.336 23.726 21.726 19.936
916.265 18.446 17.076 15.686 14.456 13.636 12.906 12.376 11.846 11.526 11.386
935.555 11.076 10.846 10.586 10.226 10.496 11.086 11.836 12.946 14.346 16.296
954.844 18.796 21.876 25.656 30.556 35.986 42.186 49.556 56.016 60.356 62.186
974.134 61.956 59.946 55.046 47.816 40.266 33.066 27.276 22.826 19.596 17.996
993.424 16.656 15.336 14.746 14.526 14.736 15.976 19.426 24.596 28.906 31.026
1012.714 30.836 29.236 26.796 22.596 16.456 10.816 7.186 5.916 4.996 3.966
1032.003 3.496 3.076 3.096 2.746 2.266 2.526 3.336 4.056 4.256 4.396
1051.293 4.786 5.516 7.306 8.836 10.016 12.296 13.896 15.216 16.626 17.546
1070.583 18.636 19.126 18.806 18.426 17.236 16.516 15.596 13.716 12.216 10.746
1089.873 9.466 8.376 6.946 4.616 3.076 2.406 1.796 1.736 2.096 2.306
1109.163 3.066 3.046 2.106 3.656 5.276 6.546 8.146 7.956 7.366 6.466
1128.452 4.386 3.056 2.916 2.226 2.116 2.146 1.546 1.676 1.556 1.636
1147.742 2.336 3.086 3.946 4.126 4.756 5.836 5.826 4.856 4.456 4.876
1167.032 4.116 3.216 2.916 2.336 1.696 0.9553 0.7614 0.7905 1.376 1.496
1186.322 0.6227 0.19867 0.19749 0.3325 0.21122 0.0935 0.4122 0.8106 0.7769 0.5468
1205.611 1.0977 2.366 2.446 1.636 2.156 2.386 3.336 6.826 9.856 12.976
1224.901 18.976 25.206 30.076 33.126 35.936 39.146 40.226 39.516 39.496 41.826
1244.191 46.316 52.916 60.366 67.786 74.446 79.176 82.496 84.906 85.956 85.456
1263.481 84.176 81.926 77.446 72.096 66.276 59.066 49.936 40.006 30.976 24.186
1282.771 19.276 15.306 13.456 12.626 12.156 12.646 14.026 16.146 18.216 20.376
1302.060 22.276 23.396 23.686 23.296 22.516 21.306 19.226 16.486 14.206 12.576
1321.350 11.356 10.316 9.386 8.456 7.766 7.406 6.966 6.426 5.866 5.366
1340.640 4.916 4.626 4.396 4.166 3.936 3.716 3.736 3.916 3.976 4.036
1359.930 4.256 4.426 4.716 4.896 4.816 4.816 4.736 4.626 4.606 4.606
1379.219 4.616 4.696 4.846 5.146 5.676 6.266 6.796 7.436 8.266 9.006
1398.509 9.766 10.736 11.736 12.766 13.956 15.176 16.296 17.496 18.606 19.266
1417.799 19.726 19.906 19.796 19.566 18.966 18.166 17.356 16.546 15.996 15.996
1437.089 16.616 18.016 20.366 24.066 29.086 35.216 42.246 49.076 53.946 55.996
1456.378 55.746 53.476 48.606 41.036 32.496 24.636 18.706 14.586 11.716 9.676
1475.668 8.036 6.876 6.196 5.506 4.976 4.486 4.076 3.856 3.586 3.116
1494.958 2.746 2.666 2.596 2.456 2.396 2.486 2.476 2.616 2.816 2.726
1514.248 2.606 2.296 2.286 2.396 2.286 2.376 2.396 2.126 1.996 2.216
1533.538 2.406 2.366 2.366 2.526 2.596 2.726 3.256 3.566 3.646 3.846
1552.827 3.786 3.926 4.216 4.266 4.076 3.676 3.336 3.416 3.516 3.576
1572.117 3.676 3.546 3.206 3.106 3.226 2.886 2.686 2.566 2.496 2.486
1591.407 2.306 2.276 2.366 2.486 2.486 2.606 2.726 2.746 2.716 2.576
1610.697 2.446 2.276 1.926 1.986 2.006 1.616 1.486 1.106 0.9477 1.0634
1629.986 0.9909 0.8989 0.9639 1.0941 1.0973 1.146 0.9768 0.7631 0.866 1.0049
1649.276 1.0719 1.1132 1.136 1.386 1.716 1.916 2.116 2.166 2.166 2.056
1668.566 1.606 1.186 0.9832 0.8397 0.7947 0.9231 1.256 1.726 2.146 2.746
1687.856 3.156 3.366 3.676 3.686 3.516 3.206 2.426 1.946 1.746 1.266
1707.146 1.0296 0.8338 0.6733 0.6935 0.6929 0.7788 0.9627 1.0809 0.9558 0.7333
1726.435 0.7103 0.5226 0.4242 0.6225 0.6813 0.4146 0.3991 0.5008 0.4069 0.366
1745.725 0.3482 0.4695 0.5536 0.5806 0.5438 0.5792 0.7472 0.9261 1.1067 1.296
1765.015 1.536 1.756 2.096 2.416 2.686 2.956 3.126 3.196 3.296 3.196
1784.305 3.066 3.076 2.926 2.656 2.256 1.996 1.886 1.866 1.846 1.936
1803.594 2.106 2.226 2.546 2.836 3.046 3.256 3.276 3.106 2.796 2.426
1822.884 2.096 1.756 1.466 1.266 0.9439 0.8079 0.756 0.6318 0.5495 0.4556
1842.174 0.5046 0.5401 0.4947 0.6272 0.8698 1.0415 1.326 1.566 1.786 2.126
1861.464 2.376 2.596 2.996 3.366 3.466 3.486 3.396 3.066 2.756 2.676
1880.754 2.676 2.586 2.666 2.776 2.956 3.176 3.406 3.736 3.836 3.706
1900.043 3.566 3.506 3.546 3.466 3.076 2.796 2.536 2.296 2.186 2.006
1919.333 2.126 2.366 2.626 3.036 3.356 3.786 4.236 4.556 4.866 4.836
1938.623 4.506 4.166 3.806 3.386 2.896 2.566 2.416 2.396 2.316 2.236
1957.913 2.196 2.036 1.916 1.716 1.536 1.546 1.646 1.716 1.666 1.566
1977.202 1.516 1.526 1.556 1.496 1.276 1.146 1.166 1.286 1.446 1.276
1996.492 1.0288 1.1042 1.1139 1.0651 1.0335 1.0411 1.0687 1.166 1.186 1.156
2015.782 1.256 1.286 1.116 1.1073 1.296 1.206 1.1062 1.0952 1.0413 1.0249
2035.072 1.0724 1.0725 0.9684 0.8998 0.8954 0.8497 0.8789 0.8242 0.7168 0.6556
2054.362 0.6646 0.768 0.8011 0.7771 0.7951 0.8815 0.8849 0.8454 0.8224 0.9352
2073.651 1.0469 1.0431 1.0372 0.8753 0.8944 1.077 1.0818 1.09 1.0869 1.146
2092.941 1.286 1.426 1.466 1.406 1.376 1.596 1.716 1.676 1.686 1.626
2112.231 1.716 1.736 1.566 1.496 1.496 1.376 1.406 1.376 1.336 1.336
2131.521 1.326 1.446 1.236 1.1088 1.166 1.116 1.156 1.146 0.9934 0.8941
2150.810 0.9016 1.0287 1.0327 0.8517 0.9058 1.0327 0.9951 0.9379 0.7733 0.7801
2170.100 1.0159 1.0273 0.9957 0.9793 0.8811 0.9018 0.8786 0.6056 0.5655 0.7893
2189.390 0.809 0.8808 0.9845 0.8374 0.8439 0.8637 0.7321 0.7522 0.8498 0.9059
2208.680 0.8937 0.8153 0.7366 0.8598 0.79 0.6873 0.6813 0.6301 0.7397 0.8848
2227.970 1.052 1.0355 0.9224 0.852 1.0117 1.346 1.346 1.216 1.236 1.296
2247.259 1.296 1.276 1.396 1.366 1.306 1.386 1.396 1.396 1.486 1.386
2266.549 1.456 1.696 1.526 1.416 1.436 1.436 1.406 1.296 1.296 1.426
2285.839 1.456 1.566 1.716 1.636 1.346 1.073 0.9474 0.9352 0.9195 0.873
2305.129 1.0185 1.186 1.0032 0.9609 1.1146 1.0595 0.9027 0.9837 1.136 1.206
2324.418 1.256 1.126 1.093 0.967 0.6638 0.4315 0.4947 0.6943 0.7201 0.5472
2343.708 0.6665 0.9056 0.7601 0.6976 0.6845 0.5062 0.3935 0.4986 0.6964 0.7181
2362.998 0.55 0.4635 0.5985 0.6737 0.7132 0.8612 0.8711 0.8062 0.927 1.116
2382.288 1.346 1.426 1.436 1.436 1.296 1.386 1.596 1.646 1.656 1.516
2401.578 1.506 1.676 1.606 1.516 1.436 1.346 1.436 1.626 1.626 1.516
2420.867 1.776 1.906 1.826 1.816 1.916 1.866 1.796 1.816 1.636 1.536
2440.157 1.516 1.286 0.9912 0.8259 0.8485 1.0394 1.1145 1.0519 1.0593 1.079
2459.447 1.011 0.8801 0.719 0.7821 1.026 1.0646 1.0717 1.0636 0.9365 0.7939
2478.737 0.8662 0.9215 0.8599 0.8076 0.8251 0.915 0.9032 1.0515 0.9294 0.7953
2498.026 0.9784 0.9938 0.8774 0.6789 0.7104 0.8824 0.9486 0.9632 0.8836 1.0694
2517.316 1.0738 0.86 0.9856 0.8756 0.4397 0.3301 0.6161 0.8249 0.8023 0.8598
2536.606 1.166 1.426 1.226 0.8916 0.8515 0.9659 0.8618 0.8199 0.8053 0.5843
2555.896 0.7488 0.819 0.7157 0.9008 0.909 0.7604 0.6303 0.6464 0.6588 0.8249
2575.186 1.0354 0.6253 0.5896 1.0604 1.206 1.166 0.9807 1.0321 0.9592 0.7117
2594.475 0.8554 0.8854 0.9737 1.0931 0.935 0.8771 1.206 1.356 1.186 1.146
2613.765 1.226 1.216 0.9202 1.0295 1.486 1.386 0.962 0.9222 1.0602 0.921
2633.055 0.8195 1.002 0.974 0.7322 0.8422 1.136 1.246 1.186 1.0757 0.996
2652.345 0.9222 0.9732 1.126 1.096 1.0422 0.9333 0.8975 0.9807 0.8612 0.8689
2671.634 1.0374 0.9356 0.7483 0.8704 0.6619 0.4969 0.7196 0.8159 0.9693 0.8776
2690.924 0.738 0.6144 0.8043 0.7941 0.4717 0.5074 0.5853 0.6219 0.8494 0.8257
2710.214 0.9656 1.216 1.0593 1.0066 1.156 1.376 1.416 1.646 1.366 0.9877
2729.504 1.0267 1.206 1.396 1.216 0.9801 0.9739 1.346 1.556 1.546 1.496
2748.794 1.376 1.466 1.506 1.376 1.526 1.786 1.836 1.836 1.806 1.896
2768.083 1.836 1.776 1.906 2.246 2.426 2.346 2.606 2.626 2.416 2.586
2787.373 2.696 2.876 3.236 3.436 3.406 3.406 3.536 3.766 3.996 3.886
2806.663 3.956 3.976 4.026 4.216 4.066 4.046 4.076 3.996 4.106 4.166
2825.953 4.016 4.196 4.496 4.516 4.596 4.726 4.776 4.656 4.596 4.646
2845.242 4.756 5.096 5.156 5.206 5.406 5.646 5.976 6.046 5.976 6.206
2864.532 6.196 5.956 6.166 6.376 6.426 6.576 6.736 6.836 7.156 7.766
2883.822 8.506 9.166 9.676 10.406 11.896 13.396 14.876 16.416 17.726 19.316
2903.112 20.286 21.036 21.646 21.306 19.986 18.356 16.886 15.396 13.796 12.236
2922.401 10.966 9.906 8.916 8.306 7.896 7.766 8.016 8.536 9.276 9.876
2941.691 10.866 12.296 14.426 17.186 20.566 24.536 29.796 36.556 43.336 49.936
2960.981 55.556 59.266 60.786 59.286 55.666 50.536 43.866 37.066 31.566 27.416
2980.271 23.736 20.696 18.066 15.346 13.756 12.256 10.546 9.546 8.906 8.486
2999.561 7.706 6.916 6.696 6.576 6.316 6.176 6.156 6.506 6.656 6.446
3018.850 6.806 7.386 7.916 8.706 9.286 9.556 9.866 9.816 9.716 9.986
3038.140 9.756 9.516 9.456 9.286 9.406 10.166 11.536 13.196 14.996 17.116
3057.430 19.576 23.186 27.576 32.116 37.146 41.526 43.756 43.936 43.026 40.626
3076.720 36.516 31.696 26.996 23.416 21.446 19.776 18.146 16.616 15.126 13.676
3096.009 12.356 11.396 10.866 10.636 10.016 9.716 9.336 8.656 8.126 7.766
3115.299 7.486 6.896 6.556 5.836 4.916 4.666 4.636 4.266 3.936 3.846
3134.589 3.546 3.386 3.116 2.776 2.656 2.736 2.866 2.866 2.856 2.626
3153.879 2.326 2.326 2.416 2.246 1.846 1.746 1.746 1.716 1.686 1.676
3173.169 1.466 1.1103 1.476 1.686 1.626 1.846 1.746 1.446 1.256 1.296
3192.458 1.546 1.566 1.386 1.226 1.072 0.9792 0.9574 1.306 1.206 0.7743
3211.748 0.8733 1.216 1.486 1.306 0.9376 0.7005 1.0034 1.146 1.0646 1.0478
3231.038 0.9882 1.176 0.929 0.5494 0.9107 0.925 0.9627 1.1115 1.0684 1.376
3250.328 1.336 1.346 0.8103 0.2765 0.6906 0.9395 0.8953 0.6462 0.4689 0.7899
3269.617 1.126 0.9379 0.92 1.396 1.166 0.6813 1.216 1.446 1.366 0.9515
3288.907 0.4337 0.7307 0.7699 0.7631 0.9823 0.8176 0.7238 0.7068 0.3104 0.5654
3308.197 1.166 0.937 0.8117 0.6327 0.13366 0.3209 0.3647 0.096 0.5765 0.6933
3327.487 0.5532 1.0382 0.9447 0.9378 1.0351 1.176 1.0204 0.5439 0.7251 0.7082
3346.777 0.19881 0.4152 0.5861 0.5834 0.7217 0.3172 0.5298 0.9452 1.136 0.7952
3366.066 0.7879 0.8913 0.5921 0.9511 0.9401 0.5816 0.7304 0.8911 0.515 0.6517
3385.356 0.7301 0.7278 0.7925 0.7387 0.7882 0.6825 0.3423 0.2357 0.3759 0.3742
3404.646 0.4605 0.4278 0.5998 0.3273 0 0.003 0.3107 0.3611 0.3934 1.176
3423.936 1.0293 0.4603 0.4202 0.6908 0.9815 0.5638 0.2283 0.5808 0.7866 0.63
3443.225 0.3781 0.20533 0.2739 0.3875 0.5612 0.3751 0.4885 0.6474 0.6495 0.6481
3462.515 0.7668 0.7864 0.716 0.7535 0.5938 0.7048 0.5055 0.4386 0.5982 0.28
3481.805 0.5018 1.136 1.047 0.904 0.7964 0.6809 0.985 0.7782 0.4001 0.7128
3501.095 0.8167 0.659 0.8149 0.847 0.5238 0.20807 0.3937 0.5355 0.46 0.5171
3520.385 0.4877 0.5429 0.4962 0.4886 0.3112 0.11001 0.3551 0.5479 0.436 0.4308
3539.674 0.6974 0.6135 0.6167 1.0577 0.9514 0.8167 0.5267 0.4451 0.7281 0.819
3558.964 1.0759 1.0537 0.9077 0.9255 1.0873 0.9002 0.8503 0.9157 0.9463 1.466
3578.254 1.0499 0.5425 1.0352 0.9358 0.7011 0.9165 0.6671 0.596 0.9615 0.8962
3597.544 1.196 1.756 1.786 1.836 1.586 0.9215 1.0117 1.526 1.656 1.216
3616.833 1.0581 1.586 1.886 1.736 1.576 1.696 1.846 1.586 1.616 1.816
3636.123 1.696 1.616 1.516 1.0262 1.336 1.786 1.696 1.686 1.546 1.726
3655.413 1.786 1.686 1.486 1.316 1.796 2.146 1.836 1.786 1.626 1.456
3674.703 1.216 1.476 1.776 1.486 1.556 1.596 1.576 1.866 1.636 1.366
3693.993 1.616 1.646 1.576 1.486 1.856 1.806 1.0855 0.8014 0.7633 0.817
3713.282 1.296 1.586 1.516 1.406 1.626 1.506 1.346 1.776 2.176 1.916
3732.572 1.576 2.056 2.096 1.986 2.276 2.116 1.996 2.076 1.836 1.786
3751.862 1.676 1.656 1.606 1.736 1.886 2.006 2.206 1.876 1.536 1.456
3771.152 1.466 1.266 1.0556 1.0392 1.136 0.9819 1.0851 1.646 1.646 1.476
3790.441 1.426 1.286 1.156 1.526 1.726 1.456 1.346 1.356 1.556 1.546
3809.731 1.626 1.716 1.586 1.266 1.0909 1.326 0.9694 0.5183 1.0614 1.376
3829.021 0.9586 0.6332 0.6767 0.7259 0.8301 0.9547 0.6555 0.123428 0.3389 0.6072
3848.311 0.5606 0.7833 0.8654 0.4655 0.3851 0.7118 0.9809 1.236 1.176 0.7183
3867.601 0.2877 0.5204 0.654 0.7998 0.951 0.7998 0.6152 0.7167 0.752 0.9989
3886.890 1.356 0.9908 0.6414 0.8655 1.466 1.246 0.7318 1.0069 1.06 0.9856
3906.180 1.0019 0.6912 0.8535 1.306 1.1012 0.6754 0.6208 0.8538 1.0112 1.206
3925.470 1.1096 0.7644 0.6706 0.8673 1.097 0.8521 0.7017 0.8842 0.874 0.596
3944.760 0.595 1.166 1.0326 0.6752 0.7965 0.6091 0.7195 0.9243 0.9277 1.094
3964.049 1.216 0.9073 0.6547 0.6595 0.9159 1.156 0.6774 0.497 0.7772 1.0795
3983.339 1.0362 0.7949 0.6715 0.3243 0.4865 0.654 0.8925 0.822 0.3765 0.3699
##END=
