##TITLE=2,3-Dimethoxyphenethylamine
##JCAMP-DX=4.24
##DATA TYPE=INFRARED SPECTRUM
##ORIGIN=EPA-IR VAPOR PHASE LIBRARY
##OWNER=SRD/NIST
Collection (C) 2018 copyright by the U.S. Secretary of Commerce
on behalf of the United States of America. All rights reserved.
##CAS REGISTRY NO=3213-29-4
##MOLFORM=C 10 H 15 N O 2
##$NIST SOURCE=MSDC-IR
##STATE=gas
##XUNITS=1/CM
##YUNITS=ABSORBANCE
##XFACTOR=1.
##YFACTOR=0.001
##DELTAX=1.92898
##FIRSTX=549.8
##LASTX=4000.7
##FIRSTY=4.301
##MAXX=4000.7
##MINX=549.759
##MAXY=0.118671
##MINY=0
##NPOINTS=1790
##XYDATA=(X++(Y..Y))
549.759 4.301 4.281 4.301 4.511 4.651 4.781 4.441 4.271 4.431 4.381
569.049 4.421 4.761 4.771 4.511 4.491 4.501 4.451 4.301 4.131 4.411
588.339 4.581 4.311 4.141 4.081 4.201 4.321 4.421 4.521 4.581 4.581
607.628 4.591 4.671 4.801 4.911 4.851 4.941 5.101 5.101 5.101 5.121
626.918 5.161 5.281 5.281 5.331 5.451 5.521 5.541 5.491 5.511 5.521
646.208 5.731 6.121 6.071 6.071 6.261 6.511 6.871 7.141 7.411 7.581
665.498 7.931 8.411 8.751 9.011 9.311 9.741 10.111 10.281 10.451 10.621
684.787 10.961 11.141 11.101 11.021 11.061 11.141 11.281 11.531 11.671 11.761
704.077 11.781 11.921 12.071 12.031 12.121 12.191 12.511 13.071 13.631 14.281
723.367 15.181 16.571 18.321 20.561 23.441 27.081 31.101 35.401 40.101 45.101
742.657 49.831 53.241 54.501 53.531 51.421 48.951 46.621 44.391 42.201 40.601
761.947 39.611 39.071 39.191 39.861 40.451 41.161 41.731 41.811 41.631 40.981
781.236 39.971 38.701 37.441 36.101 34.891 33.671 32.431 31.621 31.011 30.421
800.526 29.841 29.081 28.171 27.191 25.821 24.441 22.771 20.851 19.071 17.341
819.816 15.681 14.071 12.821 11.891 11.101 10.371 9.851 9.691 9.451 9.181
839.106 8.981 8.801 8.661 8.631 8.651 8.661 8.531 8.411 8.431 8.551
858.395 8.511 8.331 8.191 8.101 7.991 7.901 7.801 7.581 7.471 7.451
877.685 7.261 6.961 6.891 6.681 6.591 6.651 6.381 5.991 5.831 5.791
896.975 5.621 5.551 5.461 5.171 5.071 5.121 5.031 5.131 5.161 5.131
916.265 5.171 5.161 5.191 5.171 5.221 5.281 5.211 5.261 5.431 5.451
935.555 5.391 5.281 5.321 5.451 5.531 5.501 5.561 5.661 5.671 5.881
954.844 6.071 6.251 6.221 6.211 6.381 6.541 6.651 6.881 7.171 7.381
974.134 7.801 8.281 8.781 9.291 9.701 10.261 11.001 11.941 13.061 14.501
993.424 16.181 18.141 20.641 23.611 26.891 30.951 35.671 40.511 45.611 50.461
1012.714 54.251 56.821 58.231 57.881 56.091 53.211 49.161 44.731 40.811 37.831
1032.003 35.721 34.761 34.691 35.061 35.901 37.271 38.621 39.831 41.241 42.361
1051.293 43.651 45.111 46.091 46.931 48.311 50.141 52.121 54.331 56.771 58.861
1070.583 60.811 63.211 65.971 68.511 70.581 72.111 73.221 73.451 71.911 69.141
1089.873 65.331 60.671 55.521 49.751 43.881 38.571 33.311 28.861 25.471 22.641
1109.163 20.421 18.991 17.731 16.411 15.201 14.261 13.871 13.401 12.861 12.661
1128.452 12.041 11.231 11.071 10.921 10.391 10.061 10.031 9.831 9.871 9.981
1147.742 10.121 10.431 10.891 11.541 12.351 13.651 15.031 16.101 17.251 18.431
1167.032 19.541 20.741 21.511 21.931 22.221 22.171 22.151 21.831 21.451 21.171
1186.322 20.731 20.531 20.591 20.781 21.261 22.151 23.171 24.381 26.201 28.341
1205.611 30.391 33.031 36.441 39.921 43.271 46.351 49.041 51.231 52.771 53.201
1224.901 52.661 51.601 49.821 47.511 45.281 43.221 41.471 40.441 40.211 40.761
1244.191 42.041 43.871 46.191 49.101 52.281 55.861 60.311 65.591 71.781 78.801
1263.481 86.241 93.781 100.481 105.581 108.911 110.201 109.231 105.981 100.671 93.801
1282.771 86.001 78.171 70.851 64.351 58.451 53.201 48.781 44.751 41.091 37.781
1302.060 34.681 31.821 29.201 26.791 24.621 22.611 20.731 19.171 17.861 16.671
1321.350 15.751 15.051 14.431 13.941 13.571 13.321 13.061 12.831 12.711 12.591
1340.640 12.511 12.421 12.331 12.331 12.361 12.321 12.251 12.121 11.961 11.851
1359.930 11.721 11.521 11.251 11.111 11.021 10.921 10.881 10.891 10.921 10.951
1379.219 10.931 10.841 10.691 10.471 10.181 9.881 9.591 9.281 9.061 8.891
1398.509 8.851 8.941 9.081 9.331 9.811 10.551 11.491 12.751 14.531 16.811
1417.799 19.691 23.221 27.091 31.161 35.071 38.271 40.461 41.631 42.131 41.961
1437.089 41.001 39.171 36.731 34.431 32.821 32.101 32.231 33.111 34.841 37.831
1456.378 42.541 48.881 56.961 66.771 77.581 88.611 98.821 107.581 114.311 118.391
1475.668 118.671 115.101 108.371 99.031 87.751 75.541 63.411 52.311 42.741 34.981
1494.958 28.921 24.191 20.651 17.981 15.921 14.321 13.031 12.041 11.271 10.591
1514.248 10.011 9.491 9.071 8.731 8.461 8.241 8.001 7.801 7.591 7.481
1533.538 7.461 7.341 7.241 7.291 7.281 7.281 7.331 7.431 7.631 7.901
1552.827 8.181 8.561 9.051 9.601 10.361 11.221 12.351 13.811 15.441 17.311
1572.117 19.471 21.821 24.251 26.631 28.531 29.891 30.651 30.821 30.421 29.301
1591.407 27.781 26.001 24.141 22.311 20.671 19.351 18.171 16.991 15.941 15.061
1610.697 14.391 13.951 13.561 13.331 13.191 12.941 12.621 12.281 11.861 11.301
1629.986 10.641 9.931 9.191 8.511 7.811 7.161 6.661 6.191 5.751 5.351
1649.276 4.911 4.521 4.271 4.091 3.871 3.681 3.511 3.331 3.261 3.181
1668.566 3.051 2.961 2.881 2.831 2.771 2.691 2.611 2.571 2.651 2.631
1687.856 2.601 2.591 2.561 2.591 2.561 2.511 2.481 2.451 2.461 2.451
1707.146 2.441 2.371 2.301 2.311 2.281 2.231 2.231 2.181 2.161 2.201
1726.435 2.211 2.251 2.261 2.151 2.101 2.091 2.041 2.001 1.971 1.961
1745.725 1.961 1.951 1.921 1.881 1.871 1.871 1.831 1.791 1.781 1.801
1765.015 1.841 1.811 1.791 1.781 1.761 1.801 1.801 1.771 1.761 1.741
1784.305 1.721 1.741 1.801 1.781 1.781 1.891 1.981 2.061 2.141 2.221
1803.594 2.261 2.321 2.431 2.461 2.471 2.461 2.491 2.561 2.581 2.641
1822.884 2.651 2.591 2.551 2.531 2.501 2.491 2.431 2.311 2.241 2.201
1842.174 2.121 2.051 1.951 1.891 1.861 1.791 1.701 1.611 1.601 1.571
1861.464 1.501 1.501 1.491 1.501 1.511 1.481 1.471 1.491 1.591 1.661
1880.754 1.731 1.891 2.061 2.211 2.351 2.531 2.721 2.791 2.841 2.871
1900.043 2.831 2.761 2.691 2.631 2.461 2.301 2.201 2.031 1.861 1.741
1919.333 1.681 1.591 1.551 1.541 1.521 1.531 1.521 1.461 1.451 1.511
1938.623 1.521 1.481 1.511 1.551 1.581 1.611 1.641 1.691 1.711 1.711
1957.913 1.711 1.701 1.741 1.791 1.751 1.721 1.711 1.771 1.851 1.831
1977.202 1.861 1.921 1.951 1.981 1.971 2.021 2.081 2.061 2.061 2.151
1996.492 2.211 2.251 2.341 2.461 2.581 2.661 2.751 2.851 2.971 3.101
2015.782 3.181 3.231 3.331 3.421 3.441 3.391 3.341 3.241 3.061 2.891
2035.072 2.741 2.561 2.391 2.221 2.031 1.931 1.821 1.701 1.641 1.581
2054.362 1.581 1.571 1.551 1.481 1.441 1.461 1.491 1.491 1.491 1.461
2073.651 1.421 1.491 1.501 1.431 1.441 1.501 1.531 1.511 1.461 1.421
2092.941 1.401 1.361 1.281 1.261 1.301 1.341 1.331 1.321 1.291 1.261
2112.231 1.291 1.291 1.271 1.271 1.251 1.201 1.211 1.211 1.251 1.291
2131.521 1.301 1.251 1.261 1.351 1.331 1.351 1.351 1.331 1.311 1.351
2150.810 1.381 1.361 1.371 1.421 1.431 1.391 1.361 1.321 1.311 1.301
2170.100 1.291 1.341 1.301 1.211 1.171 1.171 1.1414 1.133 1.151 1.1496
2189.390 1.1418 1.0627 0.9938 1.0596 1.0869 1.0302 0.9887 0.9392 0.9233 0.9091
2208.680 0.8545 0.8468 0.8857 0.8796 0.8731 0.8976 0.8672 0.8903 0.9313 0.8508
2227.970 0.8282 0.841 0.8235 0.829 0.8164 0.8155 0.8323 0.7923 0.7392 0.724
2247.259 0.7243 0.7153 0.7293 0.731 0.709 0.7763 0.8683 0.8916 0.9103 0.892
2266.549 0.9061 0.9544 0.9235 0.9468 0.9547 0.9206 0.9669 0.9587 0.9287 0.9179
2285.839 0.8884 0.8608 0.8048 0.7547 0.7077 0.6708 0.6241 0.6166 0.6264 0.5667
2305.129 0.5071 0.5103 0.5065 0.5066 0.552 0.5819 0.6308 0.6126 0.5535 0.6236
2324.418 0.6576 0.634 0.5929 0.5226 0.5577 0.5825 0.5829 0.5553 0.5788 0.5891
2343.708 0.506 0.4755 0.5306 0.5659 0.5483 0.5863 0.5761 0.5293 0.5577 0.6136
2362.998 0.6366 0.6351 0.5757 0.5369 0.6217 0.614 0.6207 0.6897 0.6828 0.7272
2382.288 0.7332 0.7476 0.7701 0.7709 0.78 0.7446 0.8026 0.7681 0.6871 0.7869
2401.578 0.8002 0.7411 0.719 0.747 0.7768 0.7579 0.7687 0.7591 0.7402 0.7687
2420.867 0.7854 0.8145 0.8664 0.9549 0.9606 0.8559 0.8854 0.9526 0.9328 0.8772
2440.157 0.9122 0.9433 0.9315 0.9387 0.9049 0.9221 0.9228 0.8831 0.8987 0.8836
2459.447 0.8071 0.8059 0.7466 0.7584 0.8661 0.8667 0.8317 0.8133 0.8109 0.8232
2478.737 0.8813 0.9386 0.9397 0.9225 0.9299 1.0416 1.0981 1.0821 1.1299 1.0426
2498.026 1.0295 1.1037 1.0867 1.0909 1.0555 1.0714 1.201 1.171 1.161 1.231
2517.316 1.211 1.261 1.331 1.271 1.291 1.351 1.311 1.351 1.421 1.491
2536.606 1.461 1.451 1.501 1.511 1.511 1.511 1.541 1.591 1.571 1.491
2555.896 1.501 1.561 1.551 1.491 1.501 1.541 1.431 1.371 1.441 1.411
2575.186 1.381 1.381 1.311 1.331 1.311 1.271 1.331 1.341 1.331 1.331
2594.475 1.331 1.381 1.311 1.251 1.281 1.221 1.191 1.211 1.201 1.251
2613.765 1.311 1.301 1.271 1.171 1.201 1.331 1.331 1.291 1.281 1.251
2633.055 1.271 1.321 1.301 1.271 1.321 1.361 1.301 1.321 1.381 1.401
2652.345 1.381 1.331 1.351 1.361 1.341 1.331 1.321 1.351 1.361 1.371
2671.634 1.431 1.481 1.491 1.491 1.481 1.511 1.561 1.581 1.691 1.771
2690.924 1.771 1.741 1.761 1.831 1.811 1.731 1.741 1.861 1.821 1.771
2710.214 1.811 1.781 1.851 1.951 1.981 1.961 2.011 2.081 2.021 2.071
2729.504 2.211 2.271 2.321 2.331 2.401 2.541 2.541 2.541 2.621 2.611
2748.794 2.611 2.641 2.591 2.611 2.681 2.741 2.771 2.671 2.711 2.821
2768.083 2.811 2.901 3.111 3.161 3.161 3.221 3.291 3.431 3.561 3.601
2787.373 3.731 4.051 4.301 4.451 4.571 4.801 5.191 5.571 5.961 6.391
2806.663 6.901 7.481 8.101 8.771 9.551 10.581 11.721 12.911 14.471 16.301
2825.953 18.381 20.861 23.641 26.571 29.521 32.321 34.671 36.181 36.741 36.671
2845.242 36.081 34.981 33.581 32.101 30.681 29.571 28.951 28.701 28.771 28.901
2864.532 29.011 29.331 29.631 30.051 30.501 30.801 31.051 31.281 31.401 31.401
2883.822 31.401 31.321 31.161 30.901 30.631 30.611 30.681 31.001 31.631 32.461
2903.112 33.561 34.821 36.321 38.101 40.091 42.021 43.871 45.711 47.451 49.341
2922.401 51.241 53.151 55.361 57.911 60.561 63.481 66.611 69.611 72.641 74.991
2941.691 76.411 77.141 76.831 75.551 73.651 71.351 68.541 65.341 62.081 59.091
2960.981 56.171 53.161 50.231 47.291 44.351 41.611 39.081 36.651 34.501 32.691
2980.271 31.331 30.211 29.411 29.091 29.171 29.461 29.941 30.681 31.451 31.991
2999.561 32.231 32.161 31.601 30.611 29.261 27.721 26.001 24.161 22.551 21.121
3018.850 19.841 18.851 18.071 17.421 16.881 16.391 15.941 15.661 15.471 15.221
3038.140 15.081 15.131 15.151 15.211 15.171 15.121 15.201 15.311 15.361 15.561
3057.430 16.001 16.321 16.641 17.101 17.741 18.191 18.361 18.401 18.241 17.951
3076.720 17.611 17.041 16.131 15.191 14.121 12.881 11.551 10.371 9.171 8.001
3096.009 6.861 5.891 5.311 4.711 4.141 3.701 3.421 3.241 2.951 2.711
3115.299 2.631 2.621 2.471 2.241 2.201 2.181 1.971 1.841 1.801 1.771
3134.589 1.731 1.701 1.641 1.531 1.501 1.431 1.461 1.491 1.521 1.481
3153.879 1.371 1.351 1.281 1.181 1.1226 1.1264 1.201 1.221 1.201 1.1481
3173.169 1.0622 0.9535 0.8666 0.8921 0.958 1 0.9463 0.8389 0.7591 0.6653
3192.458 0.6546 0.699 0.7482 0.739 0.6559 0.632 0.5816 0.5177 0.5576 0.6894
3211.748 0.6798 0.5729 0.5917 0.6542 0.7212 0.6935 0.4793 0.4135 0.3966 0.4029
3231.038 0.3294 0.2848 0.4289 0.429 0.4914 0.4447 0.2742 0.28 0.4363 0.4604
3250.328 0.4006 0.4235 0.4709 0.5358 0.4694 0.4871 0.5444 0.5342 0.4163 0.3255
3269.617 0.4007 0.3583 0.3039 0.3081 0.2697 0.2617 0.2411 0.154528 0.151947 0.259
3288.907 0.2625 0.2805 0.3515 0.3016 0.2955 0.3454 0.24017 0.150827 0.18748 0.23095
3308.197 0.2905 0.24275 0.3568 0.5254 0.4156 0.3449 0.3882 0.3456 0.3573 0.3835
3327.487 0.4711 0.6391 0.7758 0.7979 0.7237 0.9028 1.1463 1.1497 1.0187 0.9695
3346.777 1.0075 1.044 0.9981 1.0179 0.8638 0.67 0.6207 0.5436 0.5881 0.5324
3366.066 0.451 0.4303 0.3789 0.3477 0.4209 0.3836 0.3371 0.4459 0.4363 0.3139
3385.356 0.3929 0.5909 0.4222 0.3221 0.441 0.5355 0.5339 0.5011 0.6846 0.8045
3404.646 0.5958 0.4527 0.5603 0.6282 0.67 0.7171 0.7502 0.7486 0.6958 0.5823
3423.936 0.5349 0.4357 0.4037 0.4049 0.3412 0.3626 0.23528 0.23277 0.23119 0.17938
3443.225 0.2862 0.3108 0.2711 0.302 0.3111 0.2722 0.3986 0.3905 0.22427 0.2529
3462.515 0.4288 0.6064 0.4101 0.1341 0.17752 0.22376 0.24804 0.14163 0.1028 0.19869
3481.805 0.2569 0.3167 0.22497 0.22635 0.4286 0.454 0.2639 0.23351 0.18766 0.0747
3501.095 0 0.1233 0.3203 0.0627 0.0698 0.17293 0.14588 0.14702 0.14476 0.2413
3520.385 0.17469 0.21361 0.3389 0.25089 0.17072 0.2879 0.3098 0.20373 0.18 0.23828
3539.674 0.2637 0.3577 0.23612 0.037 0.20486 0.15198 0.0693 0.19624 0.153217 0.22291
3558.964 0.3589 0.311 0.150139 0.1297 0.23177 0.23248 0.24759 0.18224 0.14376 0.14533
3578.254 0.047 0.16933 0.2657 0.22055 0.1985 0.2811 0.4105 0.23906 0.0912 0.20948
3597.544 0.2893 0.2819 0.285 0.2688 0.3877 0.3896 0.22691 0.22295 0.23129 0.21688
3616.833 0.0922 0.18016 0.2918 0.2857 0.2811 0.14743 0.1054 0.1263 0.14398 0.17203
3636.123 0.16612 0.15049 0.1327 0.156011 0.21978 0.16454 0.154475 0.19797 0.19148 0.2953
3655.413 0.2654 0.1264 0.0877 0.0662 0.159818 0.157598 0.20558 0.3225 0.1247 0.0586
3674.703 0.21141 0.1251 0.043 0.0832 0.17863 0.2685 0.2816 0.24187 0.19044 0.17672
3693.993 0.18741 0.2644 0.2769 0.24415 0.20078 0.18418 0.2596 0.24235 0.087 0.0979
3713.282 0.3904 0.408 0.22665 0.2737 0.228 0.14521 0.3424 0.3633 0.262 0.2826
3732.572 0.2875 0.219 0.150017 0.17974 0.0892 0.0645 0.1056 0.16984 0.16197 0.1322
3751.862 0.19893 0.2707 0.2678 0.24831 0.21837 0.1265 0.24783 0.2651 0.1313 0.2512
3771.152 0.22918 0.045 0.046 0.17733 0.2823 0.17448 0.0783 0.1216 0.14595 0.0853
3790.441 0.011 0.22968 0.3319 0.14297 0.2659 0.2378 0.16948 0.3208 0.3884 0.2577
3809.731 0.154782 0.23264 0.3249 0.291 0.2238 0.21884 0.1912 0.3208 0.4154 0.5227
3829.021 0.4571 0.2643 0.2738 0.3711 0.4923 0.5436 0.4886 0.4896 0.5129 0.4105
3848.311 0.4316 0.4848 0.479 0.3759 0.18007 0.3932 0.5972 0.5051 0.5026 0.5615
3867.601 0.4748 0.3393 0.4429 0.4825 0.24791 0.23775 0.407 0.4703 0.5421 0.6003
3886.890 0.6386 0.5306 0.4634 0.6151 0.5466 0.5389 0.5763 0.429 0.3171 0.318
3906.180 0.3906 0.3148 0.4097 0.5445 0.7045 0.6347 0.431 0.3748 0.3519 0.4451
3925.470 0.5297 0.4066 0.2962 0.4041 0.4759 0.4169 0.3919 0.3944 0.2798 0.3248
3944.760 0.3602 0.4158 0.4464 0.475 0.4728 0.3993 0.3237 0.2733 0.3812 0.4642
3964.049 0.6149 0.582 0.4939 0.4309 0.4475 0.4939 0.3297 0.3151 0.4252 0.4855
3983.339 0.412 0.3336 0.2895 0.3598 0.4428 0.4426 0.4843 0.6038 0.7773 0.6307
##END=
