##TITLE=3,5-Dimethoxyphenethylamine
##JCAMP-DX=4.24
##DATA TYPE=INFRARED SPECTRUM
##ORIGIN=EPA-IR VAPOR PHASE LIBRARY
##OWNER=SRD/NIST
Collection (C) 2018 copyright by the U.S. Secretary of Commerce
on behalf of the United States of America. All rights reserved.
##CAS REGISTRY NO=3213-28-3
##MOLFORM=C 10 H 15 N O 2
##$NIST SOURCE=MSDC-IR
##STATE=gas
##XUNITS=1/CM
##YUNITS=ABSORBANCE
##XFACTOR=1.
##YFACTOR=0.001
##DELTAX=1.92898
##FIRSTX=549.8
##LASTX=4000.7
##FIRSTY=5.203
##MAXX=4000.7
##MINX=549.759
##MAXY=0.249093
##MINY=0
##NPOINTS=1790
##XYDATA=(X++(Y..Y))
549.759 5.203 5.113 5.323 5.193 4.883 4.933 5.163 5.433 5.643 5.593
569.049 5.773 6.013 6.293 6.403 6.423 6.463 6.613 6.703 6.763 6.913
588.339 6.843 6.823 6.663 6.543 6.793 6.863 6.593 6.393 6.483 6.433
607.628 6.313 6.353 6.363 6.373 6.443 6.593 6.563 6.433 6.583 6.803
626.918 6.803 6.823 6.863 6.883 7.263 7.703 8.053 8.193 8.203 8.473
646.208 8.703 8.993 9.403 9.573 9.553 9.773 10.023 9.953 9.823 9.843
665.498 10.013 10.263 10.573 11.093 11.593 12.463 13.833 15.463 17.313 19.493
684.787 22.013 24.383 26.633 28.753 29.673 29.003 27.373 25.303 23.223 20.973
704.077 18.913 17.193 15.773 14.753 14.063 13.583 13.333 13.383 13.523 13.773
723.367 14.073 14.443 14.953 15.433 15.893 16.583 17.313 17.883 18.603 19.363
742.657 20.243 21.293 22.233 23.243 24.363 25.543 26.953 28.323 29.853 31.483
761.947 33.083 34.773 36.383 37.803 38.693 39.273 39.453 39.273 38.723 37.873
781.236 36.783 35.653 34.403 32.923 31.483 29.953 28.503 27.113 25.693 24.333
800.526 23.173 22.313 21.563 20.923 20.523 20.393 20.513 20.623 20.703 21.093
819.816 21.743 22.753 24.073 25.433 26.953 28.563 30.083 30.733 30.703 30.723
839.106 30.713 30.853 30.823 30.333 29.823 29.703 29.323 28.103 26.593 25.043
858.395 23.243 21.543 19.833 17.983 16.483 15.273 14.163 12.943 11.873 11.143
877.685 10.443 9.753 9.213 8.863 8.653 8.353 8.103 8.023 8.003 7.923
896.975 7.893 8.043 8.273 8.553 8.753 9.053 9.533 10.233 11.123 12.113
916.265 13.203 14.153 15.173 15.943 16.403 16.703 16.853 16.923 16.463 15.593
935.555 14.673 13.703 12.813 11.793 11.043 10.483 9.603 8.883 8.363 8.133
954.844 8.023 7.903 7.973 8.013 8.003 8.123 8.063 8.013 8.113 8.313
974.134 8.643 8.873 9.033 9.283 9.603 10.043 10.363 10.793 11.433 11.693
993.424 12.133 12.573 12.733 12.853 12.943 13.153 13.283 13.333 13.463 13.323
1012.714 13.283 13.183 13.233 13.543 13.803 14.263 14.883 15.593 16.333 17.193
1032.003 18.583 20.303 22.113 24.403 27.033 30.453 34.603 39.633 45.413 51.733
1051.293 58.623 65.833 73.083 80.013 86.203 91.033 94.073 95.383 94.783 92.053
1070.583 87.243 80.863 73.643 66.113 58.503 50.983 44.383 38.703 33.653 29.233
1089.873 26.153 24.183 22.293 20.703 19.363 18.493 18.283 18.083 17.383 17.083
1109.163 17.733 18.163 18.503 19.313 20.243 21.543 23.393 25.893 29.183 33.063
1128.452 38.023 44.263 51.983 61.933 74.423 88.853 105.293 123.953 143.653 163.153
1147.742 180.553 195.613 206.603 211.323 209.983 202.203 188.703 171.453 152.013 131.633
1167.032 111.283 92.783 77.753 66.333 58.463 53.373 50.913 50.793 52.513 55.823
1186.322 60.463 66.873 75.243 84.033 92.813 101.573 109.193 115.473 119.003 119.083
1205.611 115.643 108.823 99.693 88.763 76.873 64.553 52.823 42.743 34.683 28.693
1224.901 24.403 21.603 19.573 17.883 16.713 16.013 15.643 15.343 15.053 14.973
1244.191 14.923 15.083 15.403 15.623 15.733 15.823 15.693 15.433 15.423 15.333
1263.481 15.273 15.423 15.473 15.873 16.583 17.513 19.103 21.173 23.723 26.633
1282.771 30.073 33.703 37.073 40.243 42.813 44.793 46.113 46.793 47.123 47.103
1302.060 46.893 46.763 46.793 46.933 47.083 47.183 47.433 47.743 48.053 48.513
1321.350 49.153 49.943 50.793 51.743 52.643 53.353 53.803 54.053 54.073 53.573
1340.640 52.693 51.463 49.893 48.033 45.813 43.423 40.853 38.093 35.353 32.643
1359.930 29.973 27.443 25.083 23.063 21.463 20.253 19.333 18.703 18.313 18.013
1379.219 17.833 17.603 17.363 17.163 16.923 16.613 16.373 16.283 16.283 16.493
1398.509 16.863 17.343 18.033 19.013 20.213 21.663 23.483 25.883 28.953 32.743
1417.799 37.293 42.873 49.273 56.213 63.193 69.243 73.953 76.913 78.063 77.483
1437.089 75.083 71.303 66.863 62.493 59.143 57.423 57.653 60.003 64.613 71.063
1456.378 78.963 87.513 95.143 100.933 104.053 104.663 102.623 97.923 90.903 82.353
1475.668 73.263 64.063 55.453 47.733 41.103 35.553 31.053 27.383 24.363 22.003
1494.958 20.163 18.663 17.513 16.613 15.953 15.423 14.993 14.563 14.303 14.153
1514.248 13.963 13.903 13.903 13.943 14.003 14.113 14.183 14.343 14.623 14.843
1533.538 15.133 15.403 15.713 16.113 16.503 16.963 17.493 17.993 18.553 19.243
1552.827 20.133 21.193 22.373 24.003 25.913 28.093 30.993 34.633 39.253 45.113
1572.117 52.323 61.143 72.193 85.343 100.323 117.753 136.843 157.133 177.793 198.043
1591.407 216.393 231.863 243.213 249.093 248.923 242.393 230.143 213.403 194.223 174.313
1610.697 155.023 136.703 119.933 104.593 90.943 79.323 69.203 60.573 53.363 47.173
1629.986 41.933 37.503 33.653 30.363 27.513 25.003 22.873 21.113 19.423 17.933
1649.276 16.683 15.623 14.613 13.643 12.813 12.093 11.503 10.963 10.403 9.913
1668.566 9.503 9.203 8.983 8.703 8.403 8.223 8.023 7.913 7.793 7.543
1687.856 7.433 7.273 7.073 6.983 6.873 6.713 6.613 6.393 6.213 6.013
1707.146 5.783 5.643 5.493 5.333 5.193 5.033 4.883 4.783 4.613 4.433
1726.435 4.373 4.313 4.243 4.203 4.123 4.043 3.973 3.853 3.773 3.733
1745.725 3.653 3.573 3.543 3.473 3.343 3.283 3.263 3.163 3.083 3.063
1765.015 3.023 2.973 2.963 2.913 2.833 2.793 2.773 2.793 2.763 2.723
1784.305 2.743 2.763 2.733 2.713 2.713 2.723 2.693 2.723 2.773 2.703
1803.594 2.663 2.673 2.653 2.613 2.603 2.533 2.473 2.503 2.513 2.443
1822.884 2.403 2.373 2.353 2.363 2.273 2.193 2.223 2.223 2.153 2.183
1842.174 2.223 2.163 2.093 2.083 2.073 1.993 1.993 1.973 1.913 1.853
1861.464 1.823 1.843 1.843 1.823 1.763 1.703 1.643 1.613 1.653 1.693
1880.754 1.643 1.593 1.533 1.563 1.613 1.573 1.603 1.633 1.593 1.513
1900.043 1.443 1.473 1.523 1.513 1.543 1.553 1.533 1.553 1.543 1.543
1919.333 1.523 1.483 1.453 1.423 1.443 1.543 1.523 1.473 1.513 1.513
1938.623 1.533 1.573 1.603 1.603 1.573 1.633 1.683 1.683 1.703 1.793
1957.913 1.893 1.843 1.873 1.973 1.963 1.943 1.973 2.043 2.043 1.983
1977.202 1.993 1.963 2.003 2.043 1.983 2.003 2.013 1.983 1.963 1.913
1996.492 1.843 1.813 1.863 1.833 1.803 1.803 1.793 1.863 1.883 1.823
2015.782 1.793 1.793 1.803 1.853 1.873 1.823 1.773 1.793 1.863 1.913
2035.072 1.943 1.913 1.923 2.053 2.063 2.033 2.123 2.273 2.393 2.443
2054.362 2.473 2.533 2.643 2.733 2.823 2.943 3.053 3.203 3.293 3.313
2073.651 3.373 3.423 3.443 3.423 3.333 3.343 3.363 3.293 3.233 3.193
2092.941 3.153 3.123 3.163 3.133 3.083 3.073 3.103 3.123 3.143 3.193
2112.231 3.203 3.213 3.243 3.273 3.213 3.123 3.013 2.953 2.943 2.843
2131.521 2.783 2.693 2.563 2.493 2.423 2.343 2.253 2.153 2.023 1.923
2150.810 1.843 1.803 1.723 1.683 1.733 1.693 1.643 1.613 1.643 1.663
2170.100 1.613 1.563 1.623 1.693 1.663 1.593 1.623 1.763 1.823 1.753
2189.390 1.743 1.823 1.943 2.033 2.083 2.183 2.253 2.333 2.463 2.513
2208.680 2.493 2.463 2.533 2.553 2.523 2.523 2.463 2.473 2.433 2.333
2227.970 2.283 2.253 2.243 2.183 2.093 2.043 1.973 1.903 1.973 2.023
2247.259 1.903 1.863 1.863 1.843 1.853 1.823 1.783 1.813 1.773 1.743
2266.549 1.713 1.613 1.533 1.483 1.463 1.453 1.393 1.393 1.363 1.303
2285.839 1.273 1.233 1.173 1.0992 1.106 1.09 1.0992 1.143 1.143 1.0854
2305.129 1.0326 1.0266 1.014 1.0286 1.045 1.0506 1.0039 1.0406 1.1214 1.0754
2324.418 1.0636 1.13 1.1103 1.0356 1.0218 1.0185 1.0281 1.047 1.0883 1.163
2343.708 1.143 1.1244 1.1154 1.0835 1.143 1.193 1.183 1.153 1.193 1.213
2362.998 1.173 1.263 1.373 1.353 1.313 1.313 1.373 1.453 1.413 1.433
2382.288 1.483 1.493 1.473 1.503 1.553 1.563 1.573 1.543 1.533 1.503
2401.578 1.453 1.443 1.483 1.453 1.443 1.433 1.353 1.313 1.283 1.313
2420.867 1.403 1.473 1.433 1.353 1.443 1.563 1.563 1.533 1.543 1.503
2440.157 1.563 1.663 1.673 1.703 1.723 1.753 1.783 1.743 1.683 1.633
2459.447 1.623 1.683 1.673 1.573 1.583 1.673 1.733 1.673 1.613 1.643
2478.737 1.663 1.643 1.613 1.653 1.713 1.733 1.693 1.713 1.753 1.773
2498.026 1.723 1.763 1.783 1.663 1.593 1.563 1.493 1.493 1.533 1.453
2517.316 1.453 1.483 1.473 1.443 1.373 1.333 1.393 1.473 1.503 1.463
2536.606 1.413 1.433 1.383 1.393 1.433 1.463 1.493 1.583 1.573 1.463
2555.896 1.393 1.353 1.383 1.383 1.403 1.403 1.413 1.403 1.323 1.293
2575.186 1.353 1.433 1.433 1.483 1.543 1.543 1.633 1.663 1.633 1.703
2594.475 1.753 1.823 1.873 1.983 2.083 2.083 2.153 2.233 2.293 2.293
2613.765 2.263 2.263 2.253 2.203 2.173 2.253 2.293 2.213 2.173 2.173
2633.055 2.203 2.233 2.223 2.263 2.273 2.183 2.123 2.193 2.243 2.193
2652.345 2.283 2.313 2.183 2.143 2.173 2.153 2.113 2.093 2.173 2.203
2671.634 2.183 2.233 2.163 2.103 2.073 2.133 2.203 2.153 2.043 2.003
2690.924 2.043 2.043 2.063 2.123 2.193 2.203 2.223 2.273 2.303 2.353
2710.214 2.473 2.493 2.603 2.693 2.673 2.743 2.823 2.973 3.123 3.103
2729.504 3.203 3.363 3.423 3.443 3.453 3.543 3.693 3.893 3.963 4.003
2748.794 4.043 4.013 4.093 4.183 4.243 4.223 4.273 4.373 4.353 4.423
2768.083 4.523 4.603 4.663 4.673 4.853 5.013 5.093 5.223 5.323 5.453
2787.373 5.703 6.013 6.163 6.293 6.563 6.803 6.993 7.223 7.553 7.923
2806.663 8.383 8.723 9.013 9.463 10.033 10.793 11.583 12.463 13.513 14.753
2825.953 16.483 18.593 21.053 24.143 27.763 32.013 36.803 41.393 45.323 48.463
2845.242 50.673 51.863 51.913 50.923 49.043 46.673 44.323 42.153 40.203 38.573
2864.532 37.193 35.943 35.033 34.333 33.933 33.663 33.393 33.323 33.203 33.053
2883.822 32.993 33.003 33.063 33.233 33.423 33.973 34.883 35.863 37.083 38.623
2903.112 40.603 42.883 45.363 48.083 50.943 53.803 56.383 58.663 60.593 61.963
2922.401 63.103 64.153 65.263 66.743 68.863 71.853 75.753 80.243 85.243 90.323
2941.691 94.383 97.083 98.373 98.013 95.803 91.903 86.833 81.063 74.853 68.553
2960.981 62.093 55.643 49.753 44.583 39.943 35.923 32.673 29.933 27.643 26.113
2980.271 25.143 24.473 24.363 24.763 25.663 27.283 29.613 32.593 36.253 40.403
2999.561 44.663 48.063 49.693 49.663 48.263 45.383 41.303 36.133 30.293 24.913
3018.850 20.613 17.423 15.053 13.413 12.223 11.193 10.453 9.873 9.363 8.993
3038.140 8.823 8.643 8.403 8.303 8.353 8.463 8.553 8.673 9.003 9.323
3057.430 9.583 10.013 10.353 10.593 10.783 10.813 10.783 10.823 10.733 10.513
3076.720 10.343 10.023 9.633 9.233 8.863 8.483 8.073 7.743 7.213 6.573
3096.009 6.083 5.643 5.143 4.723 4.383 3.963 3.673 3.503 3.303 3.193
3115.299 3.043 2.753 2.533 2.513 2.453 2.403 2.363 2.363 2.253 2.133
3134.589 2.173 2.143 2.083 2.073 2.003 1.853 1.813 1.673 1.573 1.693
3153.879 1.663 1.593 1.553 1.483 1.543 1.493 1.363 1.383 1.423 1.353
3173.169 1.263 1.203 1.1251 1.223 1.213 1.0759 1.153 1.253 1.183 1.243
3192.458 1.333 1.163 1.143 1.223 1.253 1.243 1.173 1.0897 0.9398 0.9081
3211.748 0.8714 0.9114 0.984 0.9164 0.9054 0.8655 0.8553 0.749 0.5877 0.7255
3231.038 0.829 0.7889 0.8147 0.7187 0.6291 0.6494 0.5892 0.5716 0.5318 0.5833
3250.328 0.6042 0.5448 0.5376 0.5129 0.5433 0.5353 0.4571 0.5042 0.5654 0.596
3269.617 0.5906 0.6256 0.5899 0.5219 0.4904 0.4864 0.5595 0.4934 0.4156 0.4156
3288.907 0.4492 0.3998 0.3717 0.4377 0.4069 0.4271 0.5513 0.5099 0.3695 0.301
3308.197 0.2461 0.3267 0.5771 0.5403 0.4453 0.5284 0.4912 0.5251 0.6144 0.5057
3327.487 0.4119 0.4313 0.5063 0.6807 0.8326 0.9493 1.0073 1.1245 1.193 1.203
3346.777 1.203 1.193 1.223 1.046 0.9285 0.8538 0.8228 0.9166 0.7816 0.6109
3366.066 0.6738 0.6291 0.4735 0.4243 0.5207 0.4782 0.4669 0.487 0.423 0.4732
3385.356 0.468 0.4649 0.4795 0.5099 0.6112 0.6859 0.7973 0.8256 0.7654 0.8668
3404.646 1.0069 1.0676 1.173 1.173 1.0387 1.0202 0.9849 0.902 0.8729 0.9518
3423.936 0.7925 0.6642 0.7483 0.5565 0.5964 0.6578 0.6182 0.4587 0.2034 0.2891
3443.225 0.3463 0.3501 0.3988 0.5964 0.5694 0.4104 0.3881 0.2742 0.2433 0.2624
3462.515 0.3417 0.4013 0.3415 0.4724 0.5433 0.4453 0.4646 0.5252 0.5319 0.4035
3481.805 0.2841 0.269 0.2605 0.2518 0.2759 0.3083 0.3744 0.3758 0.2464 0.16183
3501.095 0.1025 0.1173 0.264 0.2546 0.2447 0.18962 0.1213 0.22782 0.3027 0.2668
3520.385 0.1202 0.119 0.3058 0.4195 0.3923 0.285 0.3078 0.3479 0.3842 0.4141
3539.674 0.385 0.2962 0.21535 0.24 0.2796 0.2714 0.2856 0.3412 0.3081 0.2488
3558.964 0.15806 0.141536 0.327 0.3995 0.3351 0.3196 0.3335 0.2658 0.20615 0.2354
3578.254 0.3315 0.354 0.2634 0.21841 0.2776 0.265 0.12739 0.17319 0.2912 0.3509
3597.544 0.4498 0.4556 0.4149 0.2651 0.140382 0.2551 0.3805 0.4989 0.3764 0.2553
3616.833 0.3064 0.3291 0.21771 0 0.0557 0.15091 0.14368 0.22887 0.2535 0.3366
3636.123 0.3276 0.22276 0.21989 0.3484 0.3868 0.3473 0.332 0.18581 0.12467 0.16607
3655.413 0.2776 0.3474 0.279 0.17083 0.20469 0.3059 0.3953 0.4328 0.4556 0.388
3674.703 0.2418 0.0985 0.0687 0.141548 0.2397 0.311 0.266 0.3081 0.2688 0.19753
3693.993 0.15886 0.21371 0.2666 0.2454 0.19648 0.2344 0.3334 0.2441 0.1139 0.13129
3713.282 0.2335 0.352 0.4038 0.3174 0.3111 0.18547 0.0907 0.104 0.1154 0.15783
3732.572 0.12915 0.2877 0.2716 0.0708 0.15459 0.19845 0.133759 0.3015 0.3153 0.308
3751.862 0.4526 0.3367 0.17957 0.21515 0.2652 0.2704 0.2869 0.22512 0.17504 0.2903
3771.152 0.3595 0.347 0.3362 0.3972 0.3413 0.2908 0.3194 0.15178 0.2439 0.3141
3790.441 0.18212 0.18875 0.2787 0.2698 0.2778 0.454 0.3893 0.2518 0.4658 0.5995
3809.731 0.6167 0.4579 0.2887 0.2893 0.14491 0.15398 0.3221 0.20626 0.1113 0.2427
3829.021 0.4258 0.4473 0.2748 0.2675 0.3445 0.2984 0.2948 0.2763 0.22013 0.3795
3848.311 0.4774 0.4611 0.3711 0.2898 0.3587 0.3561 0.2959 0.2455 0.315 0.531
3867.601 0.6327 0.4741 0.271 0.2451 0.3548 0.4685 0.5246 0.6029 0.5722 0.5368
3886.890 0.4844 0.4733 0.4137 0.3687 0.582 0.6085 0.5722 0.5909 0.5926 0.5461
3906.180 0.488 0.575 0.6195 0.6937 0.6515 0.546 0.5656 0.5257 0.5351 0.661
3925.470 0.7278 0.6808 0.522 0.4996 0.5941 0.6223 0.6456 0.6192 0.6281 0.7467
3944.760 0.7195 0.6357 0.6555 0.5875 0.5427 0.5318 0.703 0.7453 0.5402 0.5438
3964.049 0.6063 0.6006 0.7759 0.8215 0.7479 0.7647 0.8855 1.0002 1.0309 0.9154
3983.339 0.8191 0.8846 0.7339 0.7124 0.7708 0.7599 0.7816 0.7948 0.7941 0.8348
##END=
