##TITLE=N-Acetyl-4-piperidone
##JCAMP-DX=4.24
##DATA TYPE=INFRARED SPECTRUM
##ORIGIN=NIST Mass Spectrometry Data Center
##OWNER=NIST Standard Reference Data Program
Collection (C) 2018 copyright by the U.S. Secretary of Commerce
on behalf of the United States of America. All rights reserved.
##CAS REGISTRY NO=32161-06-1
##MOLFORM=C 7 H 11 N O 2
##$NIST SOURCE=MSDC-IR
##SPECTROMETER/DATA SYSTEM=HP-GC/MS/IRD
##STATE=gas
##XUNITS=1/CM
##YUNITS=ABSORBANCE
##XFACTOR=1.0
##YFACTOR=0.000004000
##DELTAX=4.0
##FIRSTX=550.0
##LASTX=3846.0
##FIRSTY=0.000280
##MAXX=3846
##MINX=550
##MAXY=0.04
##MINY=0
##NPOINTS=825
##XYDATA=(X++(Y..Y))
550.0 70 109 98 124 154 202 255 336 423 473
590.0 474 433 373 283 182 121 86 71 55 49
630.0 40 31 25 22 18 9 6 5 17 34
670.0 29 20 34 36 24 40 49 52 64 73
710.0 70 70 72 59 45 49 73 106 172 267
750.0 329 340 337 300 230 176 142 110 67 39
790.0 35 26 7 11 21 28 29 30 34 26
830.0 33 32 22 14 14 18 14 15 10 2
870.0 0 1 7 11 9 7 17 35 61 84
910.0 107 127 135 127 116 111 111 131 164 212
950.0 270 311 349 406 491 595 691 764 783 737
990.0 641 519 410 345 322 328 371 459 606 758
1030.0 846 854 805 705 568 439 363 302 245 216
1070.0 202 179 166 160 150 139 129 127 138 148
1110.0 157 179 217 263 306 338 357 362 357 337
1150.0 312 301 301 309 321 345 379 417 468 540
1190.0 642 794 1020 1328 1677 2060 2548 3133 3624 3818
1230.0 3710 3358 2781 2106 1623 1451 1504 1651 1778 1820
1270.0 1743 1556 1305 1065 903 855 946 1212 1570 1839
1310.0 1913 1828 1610 1283 1010 895 908 997 1116 1238
1350.0 1378 1521 1628 1678 1671 1640 1634 1673 1825 2138
1390.0 2587 3127 3732 4340 4876 5235 5327 5093 4557 3844
1430.0 3075 2376 1847 1507 1288 1137 1017 921 851 799
1470.0 745 687 622 553 485 429 382 344 316 290
1510.0 268 248 222 207 196 184 181 179 175 172
1550.0 166 167 166 166 171 173 175 176 177 182
1590.0 195 207 220 236 250 264 276 291 316 344
1630.0 382 436 500 571 660 768 910 1111 1426 1934
1670.0 2773 4094 5976 8018 9507 10000 9714 8462 6307 4349
1710.0 3155 2560 2355 2452 2866 3604 4473 5061 5132 4763
1750.0 3936 2777 1775 1171 860 693 584 502 423 352
1790.0 290 238 199 170 146 131 124 115 110 101
1830.0 94 89 82 76 70 67 64 62 61 61
1870.0 57 55 56 56 60 66 74 76 69 66
1910.0 66 61 57 51 46 45 42 41 43 38
1950.0 30 29 26 24 24 23 26 27 28 28
1990.0 27 29 29 26 25 29 31 31 30 29
2030.0 27 24 22 24 27 28 29 29 32 32
2070.0 30 31 36 35 35 33 34 39 42 43
2110.0 39 35 34 39 39 34 30 27 23 22
2150.0 19 14 17 20 16 11 12 11 12 14
2190.0 13 8 10 14 13 9 8 7 7 7
2230.0 7 9 7 7 8 8 9 9 8 10
2270.0 14 16 17 16 11 7 8 10 12 11
2310.0 5 4 5 5 9 9 8 10 10 10
2350.0 6 9 14 15 19 18 13 12 15 18
2390.0 19 19 21 22 22 19 17 13 10 11
2430.0 12 9 6 8 6 7 13 12 10 10
2470.0 11 7 7 15 15 9 7 7 5 2
2510.0 0 4 6 8 7 6 5 1 3 7
2550.0 3 0 3 4 5 4 2 0 0 2
2590.0 6 9 9 6 11 9 3 8 10 5
2630.0 7 16 18 14 13 17 24 31 32 28
2670.0 25 22 26 32 35 40 37 33 31 30
2710.0 33 34 36 34 30 27 29 31 30 28
2750.0 27 25 22 20 28 37 42 42 46 49
2790.0 49 52 60 67 75 90 101 123 149 170
2830.0 193 218 242 264 293 358 439 545 696 862
2870.0 1005 1102 1121 1074 987 895 801 727 696 700
2910.0 731 782 832 861 862 836 792 738 691 658
2950.0 636 622 633 689 798 915 990 1000 942 822
2990.0 672 564 536 552 585 600 584 540 459 366
3030.0 286 216 173 153 134 125 116 109 100 85
3070.0 73 68 71 70 66 64 63 60 55 48
3110.0 42 39 36 36 27 25 27 27 30 24
3150.0 21 20 17 15 14 16 13 7 11 18
3190.0 19 17 11 5 11 15 11 6 7 5
3230.0 5 9 12 10 6 8 6 1 0 6
3270.0 9 6 13 20 13 8 12 13 9 10
3310.0 14 12 23 27 24 30 37 43 61 75
3350.0 83 99 114 126 125 119 114 99 78 67
3390.0 54 42 42 48 48 47 50 46 54 61
3430.0 63 68 74 83 93 98 101 110 115 113
3470.0 106 91 79 71 66 63 52 47 53 45
3510.0 35 39 38 38 37 33 34 39 36 28
3550.0 29 28 37 38 33 36 38 42 41 33
3590.0 33 35 31 33 36 28 26 28 23 19
3630.0 25 22 16 25 36 30 20 20 25 36
3670.0 44 27 20 27 22 28 27 19 21 18
3710.0 21 21 22 23 11 6 19 34 30 29
3750.0 35 34 29 21 20 18 21 28 23 26
3790.0 28 25 36 34 26 30 39 40 32 25
3830.0 22 21 26 26 31
##END=
