##TITLE=4-t-Butylcyclohexyl acetate
##JCAMP-DX=4.24
##DATA TYPE=INFRARED SPECTRUM
##ORIGIN=NIST Mass Spectrometry Data Center
##OWNER=NIST Standard Reference Data Program
Collection (C) 2018 copyright by the U.S. Secretary of Commerce
on behalf of the United States of America. All rights reserved.
##CAS REGISTRY NO=32210-23-4
##MOLFORM=C 12 H 22 O 2
##$NIST SOURCE=MSDC-IR
##SPECTROMETER/DATA SYSTEM=HP-GC/MS/IRD
##STATE=gas
##XUNITS=1/CM
##YUNITS=ABSORBANCE
##XFACTOR=1.0
##YFACTOR=0.000037500
##DELTAX=4.0
##FIRSTX=550.0
##LASTX=3846.0
##FIRSTY=0.000113
##MAXX=3846
##MINX=550
##MAXY=0.375
##MINY=0
##NPOINTS=825
##XYDATA=(X++(Y..Y))
550.0 3 0 8 27 43 43 29 15 11 9
590.0 18 33 54 81 101 104 93 73 53 40
630.0 35 36 44 64 105 153 173 149 98 55
670.0 34 22 13 8 6 4 3 2 4 6
710.0 3 3 2 1 1 3 6 9 15 24
750.0 36 41 34 20 10 7 7 7 10 15
790.0 18 20 21 22 20 19 16 17 16 16
830.0 18 20 22 24 27 33 42 55 74 97
870.0 118 136 162 202 251 295 316 314 296 265
910.0 233 200 174 151 130 114 106 110 125 149
950.0 181 223 280 339 381 387 357 316 296 306
990.0 344 403 486 597 751 962 1254 1648 2107 2484
1030.0 2619 2555 2572 2847 3117 2965 2320 1588 1139 934
1070.0 832 774 729 680 627 574 516 456 404 370
1110.0 358 352 328 279 226 190 173 166 163 161
1150.0 163 171 184 204 230 267 318 385 477 587
1190.0 701 814 950 1147 1439 1837 2349 3015 3938 5250
1230.0 6976 8802 10000 9826 8264 6090 4185 2855 1997 1472
1270.0 1152 944 790 664 560 477 415 375 356 352
1310.0 353 355 358 353 333 303 283 289 326 408
1350.0 570 860 1299 1846 2325 2495 2268 1807 1369 1042
1390.0 831 730 665 564 432 326 271 248 239 241
1430.0 253 277 316 375 453 538 605 639 632 614
1470.0 602 602 597 554 464 348 253 196 164 145
1510.0 133 128 124 123 121 116 113 111 108 102
1550.0 95 85 78 72 68 66 65 62 62 63
1590.0 64 65 70 75 80 86 88 89 86 80
1630.0 73 68 65 64 65 67 71 75 82 88
1670.0 97 106 115 127 142 161 191 234 289 350
1710.0 409 464 521 595 718 932 1297 1850 2589 3420
1750.0 4116 4402 4150 3480 2673 1945 1393 1022 788 639
1790.0 539 466 409 359 313 269 228 193 165 141
1830.0 123 107 93 79 68 59 51 45 41 37
1870.0 35 34 34 36 37 40 42 43 43 41
1910.0 43 44 43 44 43 43 42 39 36 32
1950.0 28 23 20 19 18 17 16 15 15 14
1990.0 14 13 12 11 12 11 11 12 11 10
2030.0 9 8 7 6 4 5 4 5 4 5
2070.0 6 7 8 10 13 16 20 24 30 35
2110.0 41 46 51 55 55 53 47 39 32 26
2150.0 21 18 15 13 12 11 11 10 9 7
2190.0 6 5 4 5 4 5 6 7 8 9
2230.0 8 9 11 13 14 15 16 15 13 12
2270.0 11 10 8 7 5 4 5 3 2 1
2310.0 2 1 3 5 6 6 7 7 6 5
2350.0 5 4 4 4 5 4 5 6 5 6
2390.0 7 8 10 11 11 12 12 11 10 9
2430.0 8 9 8 9 11 13 15 17 19 21
2470.0 22 21 20 19 16 14 11 9 8 7
2510.0 8 7 6 5 6 5 6 5 6 7
2550.0 7 6 8 10 10 11 13 15 17 20
2590.0 21 22 23 25 25 26 28 30 32 33
2630.0 32 32 33 32 31 32 31 33 35 37
2670.0 38 39 41 42 43 44 46 47 49 53
2710.0 57 61 65 67 68 69 67 64 61 60
2750.0 60 59 61 62 62 63 61 62 65 70
2790.0 75 81 87 96 106 119 133 146 160 176
2830.0 200 236 291 369 479 622 804 1033 1324 1657
2870.0 1931 2027 1916 1687 1457 1281 1180 1159 1212 1323
2910.0 1472 1616 1729 1829 1971 2190 2502 2947 3554 4296
2950.0 5093 5767 6150 6077 5513 4639 3648 2750 1975 1335
2990.0 884 604 445 357 303 266 242 220 200 186
3030.0 173 159 147 136 127 118 111 105 100 97
3070.0 95 93 90 86 81 79 77 72 69 66
3110.0 64 61 57 55 53 51 49 50 49 48
3150.0 49 48 48 46 43 43 44 44 43 43
3190.0 41 39 38 38 39 35 34 32 30 29
3230.0 27 24 21 19 18 18 17 16 15 14
3270.0 13 12 12 11 11 9 8 8 6 5
3310.0 6 7 7 6 7 8 9 8 7 7
3350.0 8 7 6 7 7 6 7 8 7 8
3390.0 9 8 9 12 13 14 13 14 13 15
3430.0 13 12 11 11 12 13 14 15 18 20
3470.0 24 30 37 46 51 51 47 42 36 30
3510.0 24 21 19 17 15 14 12 10 9 7
3550.0 5 3 3 5 4 3 2 3 4 3
3590.0 2 2 3 3 2 1 1 1 1 2
3630.0 4 3 3 3 4 3 4 4 3 2
3670.0 3 4 3 4 3 3 4 3 4 3
3710.0 4 3 4 5 4 4 3 5 5 6
3750.0 8 7 8 7 6 7 6 7 7 6
3790.0 7 8 7 8 11 11 9 11 10 8
3830.0 10 11 12 11 9
##END=
