##TITLE=5-Cyano-2-picoline
##JCAMP-DX=4.24
##DATA TYPE=INFRARED SPECTRUM
##ORIGIN=EPA-IR VAPOR PHASE LIBRARY
##OWNER=SRD/NIST
Collection (C) 2018 copyright by the U.S. Secretary of Commerce
on behalf of the United States of America. All rights reserved.
##CAS REGISTRY NO=3222-48-8
##MOLFORM=C 7 H 6 N 2
##$NIST SOURCE=MSDC-IR
##STATE=gas
##XUNITS=1/CM
##YUNITS=ABSORBANCE
##XFACTOR=1.
##YFACTOR=0.001
##DELTAX=1.92898
##FIRSTX=549.8
##LASTX=4000.7
##FIRSTY=7.154
##MAXX=4000.7
##MINX=549.759
##MAXY=0.059864
##MINY=0
##NPOINTS=1790
##XYDATA=(X++(Y..Y))
549.759 7.154 5.244 4.504 4.684 4.744 4.474 3.684 3.844 3.774 3.394
569.049 3.204 2.724 2.374 2.474 2.594 1.974 1.734 1.6592 1.0525 1.1454
588.339 0.9929 0.158 0.484 1.3747 1.2284 1.0797 0.8868 0.8246 1.1012 0.9993
607.628 0.7954 0.602 0.7322 1.0779 1.587 1.774 1.714 1.0984 0.71954 1.1329
626.918 1.5515 1.4235 1.4274 2.214 2.804 3.114 3.464 3.444 3.504 3.764
646.208 3.644 3.194 3.084 3.174 3.414 3.454 2.914 2.244 1.724 1.3855
665.498 1.0988 0.9491 1.1156 1.4263 1.3358 1.0859 1.4272 1.5934 1.3233 0.9689
684.787 0.9663 1.4502 1.3479 1.3864 1.984 1.914 1.844 1.994 2.174 2.604
704.077 3.374 4.124 4.504 4.984 4.874 4.864 5.534 5.634 5.874 7.004
723.367 8.414 9.124 7.534 5.894 5.694 5.454 5.004 4.704 4.124 3.484
742.657 3.604 3.124 2.284 2.144 2.224 2.344 2.384 2.414 1.924 1.3569
761.947 1.764 2.474 2.604 2.614 2.394 2.024 2.214 2.324 2.294 2.504
781.236 2.624 2.824 3.364 3.864 4.124 4.084 3.954 4.104 4.484 4.514
800.526 4.694 5.874 6.894 7.904 9.104 10.104 10.774 12.014 13.684 14.084
819.816 14.854 15.944 17.204 19.374 21.004 20.974 18.674 16.294 14.744 13.674
839.106 12.854 11.594 10.714 9.474 8.114 7.134 6.364 5.504 4.784 4.554
858.395 3.874 3.234 2.554 2.254 2.384 2.154 1.754 1.724 1.914 1.804
877.685 1.864 1.974 1.5747 1.0931 1.2127 1.3377 0.9927 0.8447 0.8862 1.1503
896.975 1.2702 0.9558 0.9699 1.4688 1.934 1.714 1.4802 1.5326 1.5698 1.6868
916.265 1.944 2.034 2.464 2.984 3.224 3.404 3.364 3.404 3.494 3.394
935.555 2.904 2.904 2.974 2.604 2.514 3.034 3.404 3.244 3.374 3.264
954.844 3.044 3.404 3.434 3.044 3.214 3.704 3.404 3.264 3.044 2.404
974.134 2.494 2.764 3.214 3.264 3.324 3.354 2.764 2.314 2.234 2.124
993.424 2.274 2.564 2.464 2.614 2.704 3.044 3.824 4.424 5.044 5.694
1012.714 7.124 8.604 9.844 10.664 10.254 9.584 9.144 9.694 10.584 11.574
1032.003 11.664 10.114 9.334 8.484 6.934 6.544 6.364 4.784 4.064 4.314
1051.293 4.304 4.594 4.434 3.744 4.304 5.194 3.694 3.044 4.194 3.474
1070.583 2.764 3.254 2.914 2.124 2.064 1.774 2.234 3.054 3.024 2.674
1089.873 1.2615 0 0.138 1.1305 0.6153 0.71753 1.3353 0.703893 1.3105 2.044
1109.163 2.754 3.184 1.5347 0.4 1.0429 1.0071 1.964 3.184 4.314 5.524
1128.452 5.014 4.984 5.574 5.774 5.074 4.374 4.854 5.514 6.274 5.914
1147.742 3.224 1.854 1.914 1.934 1.5802 1.4004 1.934 2.004 1.545 1.864
1167.032 2.394 2.024 1.5093 1.754 1.5734 1.4239 1.5862 1.2849 1.1943 1.1468
1186.322 1.1069 2.614 3.224 2.744 2.904 3.284 3.544 2.524 2.014 2.044
1205.611 2.714 4.614 4.804 3.154 3.724 4.374 3.284 2.204 2.994 4.874
1224.901 5.504 4.174 3.954 5.024 5.214 6.704 7.694 7.314 7.704 7.734
1244.191 7.954 7.984 6.984 6.584 6.474 5.494 4.194 3.074 2.524 2.534
1263.481 2.834 3.304 3.574 3.184 2.644 2.674 2.984 3.764 4.304 4.154
1282.771 5.464 7.554 8.854 10.414 11.334 11.194 10.654 10.664 10.654 10.424
1302.060 10.484 9.744 8.064 6.414 5.164 3.964 3.264 3.054 2.684 2.474
1321.350 2.614 2.614 2.484 2.594 2.894 3.104 3.194 3.214 3.334 3.264
1340.640 3.354 3.734 4.114 4.544 5.134 5.764 6.474 7.194 8.134 9.364
1359.930 10.584 12.394 14.314 16.304 18.304 20.144 21.894 23.364 24.664 25.264
1379.219 25.194 24.904 24.144 22.784 21.034 19.254 17.104 14.434 12.104 10.374
1398.509 9.034 8.224 7.594 7.024 6.674 6.354 6.144 5.834 5.514 5.454
1417.799 5.544 5.654 5.724 5.704 5.664 5.794 6.064 6.294 6.354 6.384
1437.089 6.584 6.944 7.204 7.524 7.884 8.254 8.614 9.184 9.984 10.644
1456.378 11.614 13.144 15.234 17.644 20.164 23.064 26.334 29.974 33.664 37.284
1475.668 40.984 44.654 47.924 50.224 50.754 48.934 45.474 42.334 39.844 37.024
1494.958 33.084 27.944 22.584 17.534 13.594 11.194 9.674 8.694 8.134 7.884
1514.248 8.004 7.864 7.844 8.234 8.334 8.334 8.554 8.774 9.074 9.464
1533.538 9.704 10.294 10.894 11.294 11.854 12.394 12.844 13.044 12.974 12.884
1552.827 12.814 12.974 13.094 12.784 12.494 12.334 12.364 12.474 12.684 13.284
1572.117 14.214 15.254 16.694 18.684 21.364 25.144 29.904 35.374 41.584 47.844
1591.407 53.364 57.754 59.844 59.864 58.504 56.264 53.324 49.424 44.304 37.244
1610.697 28.774 20.394 14.324 10.074 7.124 5.864 5.114 4.494 4.084 3.734
1629.986 3.374 3.304 3.354 3.364 3.104 2.904 3.134 3.434 3.594 3.504
1649.276 3.414 3.494 3.474 3.304 3.224 3.244 3.194 3.004 2.864 2.654
1668.566 2.434 2.424 2.284 2.144 2.164 2.084 2.004 1.884 1.714 1.814
1687.856 1.784 1.784 1.894 1.844 1.764 1.764 1.6386 1.5464 1.4361 1.2998
1707.146 1.4275 1.6642 1.6923 1.4958 1.312 1.2986 1.6222 1.675 1.6883 1.814
1726.435 1.5774 1.5737 1.5995 1.3962 1.4868 1.2946 1.1841 1.4941 1.4006 1.2763
1745.725 1.3552 1.3257 1.3885 1.4268 1.3103 1.2668 1.4693 1.5049 1.3667 1.5955
1765.015 1.639 1.6013 1.6682 1.6539 1.6764 1.6221 1.724 1.974 2.114 1.984
1784.305 1.954 2.134 2.034 1.924 1.924 1.774 1.874 2.034 1.894 1.834
1803.594 1.6736 1.5885 1.5815 1.2982 1.2763 1.54 1.5185 1.4061 1.3785 1.19
1822.884 1.2794 1.4383 1.3141 1.3713 1.5769 1.4562 1.3433 1.5555 1.764 1.794
1842.174 1.824 2.084 2.144 2.344 2.544 2.254 2.234 2.444 2.584 2.724
1861.464 2.794 2.914 2.854 2.664 2.514 2.544 2.644 2.374 2.114 2.044
1880.754 2.004 1.994 1.894 1.6776 1.6285 1.784 1.6842 1.4578 1.536 1.6085
1900.043 1.6075 1.6911 1.7007 1.6455 1.6754 1.784 1.874 1.914 1.894 2.094
1919.333 2.274 2.414 2.544 2.494 2.424 2.414 2.474 2.374 2.404 2.494
1938.623 2.354 2.424 2.624 2.574 2.354 2.124 1.914 1.954 1.864 1.6225
1957.913 1.6281 1.5261 1.4621 1.4495 1.3613 1.3019 1.2666 1.2796 1.293 1.184
1977.202 1.2354 1.2481 1.2041 1.2419 1.1889 1.065 1.1468 0.9675 0.74551 1.0511
1996.492 1.1877 1.2246 1.1585 1.0685 1.1736 1.0693 0.8563 0.9227 1.2219 1.3213
2015.782 1.3367 1.4574 1.4243 1.3205 1.3467 1.4427 1.5087 1.4897 1.3502 1.1499
2035.072 1.1942 1.4097 1.43 1.2973 1.217 1.2375 1.2373 1.2721 1.2605 1.2707
2054.362 1.2826 1.2143 1.1513 1.2999 1.3974 1.2965 1.1902 1.2324 1.2342 1.2708
2073.651 1.4685 1.5606 1.4648 1.3906 1.4517 1.4676 1.4554 1.4411 1.478 1.2655
2092.941 1.1953 1.3063 1.2569 1.1548 1.3344 1.3085 1.1405 1.1695 1.0339 1.1415
2112.231 1.2054 1.1421 1.2448 1.2997 1.3065 1.2036 0.9932 1.0696 1.3147 1.3384
2131.521 1.2918 1.2636 1.2144 1.1703 1.0737 0.928 0.9932 1.1618 1.1234 1.0184
2150.810 1.1742 1.2703 1.0758 0.9659 0.9295 0.8787 1.0098 1.2126 1.2863 1.2873
2170.100 1.3918 1.4515 1.2041 1.145 1.2826 1.3282 1.5586 1.6013 1.47 1.5409
2189.390 1.724 1.6386 1.5992 1.704 1.734 1.774 1.804 1.864 1.884 2.244
2208.680 2.654 2.934 3.254 3.464 4.074 4.924 5.454 6.154 7.264 8.354
2227.970 9.364 10.574 11.334 11.604 11.634 11.344 11.054 10.634 9.984 9.054
2247.259 7.624 5.994 4.434 3.364 2.664 2.254 2.144 1.854 1.6731 1.714
2266.549 1.6523 1.6937 1.894 1.924 1.5828 1.3817 1.6118 1.6094 1.4379 1.436
2285.839 1.2672 1.2324 1.3779 1.4259 1.3364 1.3385 1.4086 1.2269 1.148 1.2217
2305.129 1.3507 1.3484 1.2325 1.3441 1.3883 1.2289 1.3825 1.4927 1.4652 1.4694
2324.418 1.2324 1.1429 1.2945 1.4024 1.5493 1.5579 1.2851 1.3293 1.406 1.5257
2343.708 1.6704 1.5139 1.4338 1.307 1.4263 1.4142 1.2236 1.2683 1.3172 1.5077
2362.998 1.2978 1.1697 1.3929 1.4939 1.4283 1.3837 1.6473 1.734 1.6424 1.5638
2382.288 1.5334 1.6299 1.804 1.894 1.974 1.884 1.924 1.904 1.764 1.884
2401.578 1.844 1.754 1.854 2.044 2.094 2.044 1.914 2.004 2.174 2.044
2420.867 2.134 2.234 2.234 2.294 2.374 2.344 2.034 1.994 2.044 1.924
2440.157 2.004 1.934 1.954 2.254 2.274 2.084 1.844 1.754 1.754 1.575
2459.447 1.6917 1.864 1.754 1.4138 1.3192 1.6118 1.724 1.864 1.681 1.4797
2478.737 1.6534 1.6928 1.824 1.774 1.5729 1.5533 1.4737 1.4881 1.5667 1.6007
2498.026 1.794 1.874 1.774 1.6001 1.734 2.044 1.854 1.5497 1.4076 1.4804
2517.316 1.4385 1.2582 1.2158 1.374 1.2677 1.1415 1.0764 1.0142 1.1686 1.0439
2536.606 1.0117 1.2807 1.2897 1.238 1.3109 1.3606 1.2822 1.3325 1.4526 1.3279
2555.896 1.2156 1.0204 1.1999 1.5686 1.3056 1.1926 1.4069 1.4536 1.4324 1.5521
2575.186 1.5184 1.5598 1.724 1.844 1.6583 1.42 1.4904 1.4633 1.5758 1.6804
2594.475 1.5966 1.3303 1.5316 1.914 1.924 1.6254 1.5758 1.764 1.617 1.744
2613.765 1.974 2.004 1.884 1.744 1.6602 1.5072 1.6604 1.814 1.5042 1.6401
2633.055 1.934 1.764 1.5304 1.3852 1.347 1.3472 1.3472 1.398 1.4828 1.4617
2652.345 1.4777 1.4248 1.3641 1.537 1.4985 1.4174 1.6778 1.934 2.114 1.914
2671.634 1.5982 1.5371 1.3759 1.2816 1.2149 1.1768 1.1559 1.2483 1.5218 1.6765
2690.924 1.4597 1.4078 1.4803 1.4313 1.3716 1.0333 1.1238 1.2928 1.17 1.4449
2710.214 1.4836 1.0449 0.9438 0.9284 1.0986 1.3684 1.2834 1.1737 1.0391 1.1491
2729.504 1.3044 1.2985 1.3558 1.4699 1.6209 1.6995 1.7011 1.6256 1.5608 1.5236
2748.794 1.3932 1.4716 1.804 1.774 1.774 1.844 1.704 1.439 1.4953 1.6947
2768.083 1.6112 1.6547 1.638 1.4687 1.6293 1.5285 1.4224 1.573 1.4265 1.591
2787.373 1.924 1.704 1.2976 1.1995 1.2959 1.744 1.844 1.3704 1.1409 1.3026
2806.663 1.4447 1.6444 1.724 1.3439 1.3027 1.5399 1.6891 1.754 1.814 2.084
2825.953 2.234 2.124 2.024 2.004 2.244 2.544 2.914 2.984 2.664 2.754
2845.242 2.904 2.584 2.254 2.404 2.834 3.094 3.224 3.364 3.874 4.244
2864.532 4.084 3.974 4.214 4.344 3.734 3.594 3.874 3.754 3.594 3.894
2883.822 4.304 4.064 3.504 3.314 3.394 3.614 3.904 3.954 3.974 4.294
2903.112 4.404 4.294 4.264 4.464 4.664 4.834 5.254 5.474 5.344 5.784
2922.401 6.884 7.554 8.174 9.054 9.604 10.044 10.964 11.374 11.104 10.964
2941.691 10.874 10.634 10.534 10.214 9.554 9.024 7.944 7.114 6.924 6.224
2960.981 5.634 5.514 5.174 5.354 5.564 5.154 5.064 5.294 5.124 5.034
2980.271 5.274 5.264 5.404 5.384 5.214 5.044 4.994 5.194 5.274 5.644
2999.561 6.014 5.894 6.364 6.774 6.594 6.884 7.254 7.644 8.094 8.334
3018.850 8.304 8.524 9.034 8.924 9.154 9.604 9.414 9.764 10.044 9.434
3038.140 9.064 8.834 8.344 8.334 8.514 8.064 7.914 8.364 8.034 7.054
3057.430 6.344 6.314 6.644 6.824 6.494 6.454 6.724 7.124 7.624 7.474
3076.720 7.194 7.204 7.404 8.024 8.144 7.824 7.324 7.024 7.244 6.984
3096.009 6.814 6.814 6.554 6.054 5.704 5.564 4.954 4.414 4.394 3.994
3115.299 3.694 3.324 2.874 2.874 2.854 2.524 2.164 2.074 2.084 1.6856
3134.589 1.5051 2.084 2.104 1.984 2.044 1.6538 1.449 1.774 1.6598 1.4912
3153.879 1.5906 1.784 1.784 1.0196 1.2175 1.864 1.734 1.744 1.924 1.6071
3173.169 1.5729 1.744 1.5446 1.6976 1.894 1.994 1.914 1.714 1.5899 1.5276
3192.458 1.672 2.224 2.124 1.2591 1.2265 1.4249 1.2848 1.2607 1.0373 1.1371
3211.748 0.9537 0.8257 1.4532 1.844 1.874 1.6237 1.4347 1.3451 1.0345 1.1964
3231.038 1.4532 1.0561 0.9227 1.2932 1.2745 1.3973 1.4572 1.2631 1.1402 1.1
3250.328 1.1326 1.0266 1.3738 1.5005 1.4424 1.764 1.994 1.6399 1.2982 1.4741
3269.617 1.4906 1.4879 1.4033 1.518 1.944 1.864 1.6605 1.964 2.204 1.944
3288.907 1.5219 0.9526 0.9785 1.4304 1.734 2.114 1.964 1.6214 1.764 1.764
3308.197 1.6586 2.094 1.974 1.4648 1.2306 1.1232 1.3774 1.5889 1.814 1.714
3327.487 1.1931 1.1601 1.3548 0.9275 0.9724 1.3412 1.463 1.3587 1.0053 1.1941
3346.777 1.2836 1.0257 1.3727 1.441 1.6367 1.874 1.4013 1.6023 2.134 2.164
3366.066 1.6061 1.4456 1.764 1.4785 1.6682 1.864 1.4831 1.5873 1.5502 1.4727
3385.356 1.6749 1.974 1.894 1.864 1.734 1.389 1.381 1.4102 1.5089 1.431
3404.646 1.924 2.484 2.224 1.814 1.864 1.834 1.6991 1.804 1.744 1.824
3423.936 2.144 2.284 2.314 2.304 2.594 2.614 2.404 2.534 2.014 1.674
3443.225 1.7004 1.668 1.4631 1.4694 1.874 1.5374 1.1728 1.3326 1.4266 1.159
3462.515 1.2264 1.3199 0.8507 0.9936 1.3166 1.774 1.904 1.4784 1.4824 1.6096
3481.805 1.714 1.734 1.6568 1.6015 1.3271 1.1559 1.734 1.784 1.1923 1.459
3501.095 1.6166 1.2138 1.0396 1.1617 1.5289 1.4486 0.9662 0.9128 0.9394 0.8719
3520.385 1.2393 1.5579 1.6852 1.3111 0.73308 0.906 1.3218 1.754 1.914 1.4164
3539.674 1.3926 1.714 1.411 1.2316 1.2244 1.153 1.413 1.0119 0.636 1.0062
3558.964 0.9853 0.9565 1.4514 1.5636 1.3797 1.784 1.6885 1.1602 0.536 0.8084
3578.254 1.3329 1.0701 1.1559 1.2573 1.4004 1.3027 1.0009 0.9128 0.9361 1.2285
3597.544 1.4337 1.3183 1.1647 0.9535 1.0554 0.79605 0.6921 1.1614 1.4344 1.6098
3616.833 1.6536 1.984 1.924 1.3344 1.2393 1.1557 0.9306 1.6328 1.6706 0.9297
3636.123 1.0674 1.2256 1.307 1.4847 1.5226 1.5664 1.1462 0.602 0.9036 1.151
3655.413 1.0345 1.283 1.5873 1.764 1.4575 1.1141 1.5627 1.784 1.3058 1.0262
3674.703 1.0337 0.9197 0.9278 1.2254 1.0937 1.405 1.904 1.3821 1.3659 1.874
3693.993 1.5844 1.279 1.3694 1.5128 1.1737 0.9973 1.3521 1.3498 1.3236 1.5733
3713.282 1.6689 1.774 1.6315 1.1673 1.5244 1.794 1.3381 1.0419 1.1557 1.2391
3732.572 1.3457 1.4331 1.814 1.5669 0.9363 0.80108 1.0011 1.3838 1.6414 1.4906
3751.862 1.0359 1.2969 1.3637 1.4926 1.7002 1.3046 0.594 0.55 1.0332 1.2289
3771.152 1.0634 1.4558 2.024 1.6852 1.4561 1.0515 1.0628 1.4753 1.507 1.0333
3790.441 0.9728 1.6048 1.3635 0.8487 0.9106 1.5113 1.6538 1.2168 0.9437 1.4817
3809.731 1.874 1.3307 1.291 2.144 2.194 1.4735 1.3815 1.1309 1.0346 1.2834
3829.021 1.0896 0.9203 1.0521 1.5884 1.894 2.214 2.104 1.854 1.5147 0.9704
3848.311 1.3416 1.784 1.824 1.5843 1.704 1.844 1.5987 1.6303 1.5815 1.5679
3867.601 1.5469 1.5151 1.714 1.804 1.764 1.6869 1.4701 0.9016 1.3992 2.154
3886.890 2.214 1.5626 1.3689 1.4192 1.447 1.5036 1.196 1.638 2.194 2.154
3906.180 2.104 1.944 1.764 1.5874 1.4933 1.6354 1.5599 1.4758 1.0984 1.068
3925.470 1.4743 1.3072 0.8755 1.3751 1.984 1.994 1.834 1.5681 1.1665 0.76828
3944.760 0.9087 1.4879 1.6017 1.3761 1.2351 1.2404 1.4217 1.3779 1.6015 1.744
3964.049 1.6565 1.6197 0.9732 1.232 2.024 1.804 1.5839 1.734 1.1951 0.9833
3983.339 1.724 1.824 1.784 2.084 1.6294 0.9418 1.1244 1.1726 1.1763 1.378
##END=
