##TITLE=6-Methylnicotinic acid
##JCAMP-DX=4.24
##DATA TYPE=INFRARED SPECTRUM
##ORIGIN=EPA-IR VAPOR PHASE LIBRARY
##OWNER=SRD/NIST
Collection (C) 2018 copyright by the U.S. Secretary of Commerce
on behalf of the United States of America. All rights reserved.
##CAS REGISTRY NO=3222-47-7
##MOLFORM=C 7 H 7 N O 2
##$NIST SOURCE=MSDC-IR
##STATE=gas
##XUNITS=1/CM
##YUNITS=ABSORBANCE
##XFACTOR=1.
##YFACTOR=0.001
##DELTAX=1.92898
##FIRSTX=549.8
##LASTX=4000.7
##FIRSTY=3.879
##MAXX=4000.7
##MINX=549.759
##MAXY=0.042759
##MINY=0
##NPOINTS=1790
##XYDATA=(X++(Y..Y))
549.759 3.879 2.919 3.179 4.819 5.189 5.359 5.889 5.949 6.009 6.259
569.049 7.209 7.399 6.949 7.549 7.629 6.009 5.139 4.949 4.779 5.159
588.339 5.339 5.559 6.289 7.059 6.809 5.789 5.619 5.929 6.389 5.899
607.628 4.369 3.259 2.509 2.449 2.699 2.039 1.4177 1.5991 2.109 2.049
626.918 1.5772 1.8341 1.857 1.5623 1.6548 1.8937 2.359 2.019 1.6793 1.7256
646.208 1.7659 1.6864 1.3239 1.4074 1.4208 1.3677 1.6185 1.7083 1.4469 1.2528
665.498 1.5387 1.3911 1.1498 1.3814 1.9064 2.259 1.9354 1.999 2.119 1.4647
684.787 0.9275 1.1315 1.3932 1.7619 1.7703 1.3554 1.5137 2.439 3.249 3.159
704.077 3.389 3.969 4.309 4.359 4.649 5.129 5.269 5.479 5.219 4.899
723.367 5.189 5.339 4.689 4.559 4.709 4.649 4.969 4.979 4.559 4.469
742.657 4.729 4.899 5.349 5.979 6.119 6.069 6.409 7.159 8.009 7.819
761.947 6.969 6.189 5.489 5.099 4.939 5.099 4.809 4.559 3.829 2.869
781.236 2.459 2.139 2.459 2.549 1.969 1.8022 1.9248 1.8619 1.8676 1.969
800.526 2.039 2.079 1.8895 1.4965 1.224 1.3961 1.4795 1.5349 1.1164 0.713
819.816 0.693 0.881 2.059 1.897 1.2477 1.5793 2.039 1.8572 1.2848 1.3647
839.106 1.7988 1.8873 1.959 1.8076 1.5022 2.019 2.099 1.6616 1.6946 1.1285
858.395 0.48 0.8897 1.5802 1.3564 0.795 0.9009 1.0532 0.773 0.829 1.3165
877.685 1.4128 1.1599 1.0539 0.744 0.391 0.632 0.53 0.654 0.8677 1.0953
896.975 1.2189 1.02377 1.2312 1.4824 1.5136 0.8838 0.61 0.9739 1.0901 1.127
916.265 1.03889 1.00736 1.129 0.9337 0.9034 1.1616 1.3096 1.3879 1.3029 1.1145
935.555 1.4732 1.5094 1.1145 1.3275 1.4197 1.3674 1.4236 1.7044 2.039 1.989
954.844 1.2521 0.98818 1.3595 1.3883 1.2407 1.2578 1.5008 1.7408 2.239 2.249
974.134 2.109 2.239 2.079 2.219 2.189 2.359 2.199 2.029 1.8043 1.5405
993.424 2.089 1.8868 1.6956 2.029 2.129 2.329 2.539 2.569 3.049 3.949
1012.714 4.829 5.829 6.789 6.289 5.659 5.659 5.549 5.549 5.229 4.539
1032.003 4.349 3.659 2.589 2.689 2.499 1.8283 2.609 3.179 2.289 2.139
1051.293 1.874 2.709 3.879 2.639 1.999 2.789 3.969 4.969 5.219 6.319
1070.583 7.859 9.649 11.179 12.269 14.889 17.659 20.529 23.009 23.579 24.099
1089.873 25.369 24.439 23.319 22.169 20.629 18.559 14.899 11.929 10.709 8.759
1109.163 6.079 5.599 5.269 4.799 3.979 4.499 5.429 5.019 4.989 5.559
1128.452 6.159 6.769 6.749 7.209 7.289 6.059 5.929 6.649 6.859 6.359
1147.742 5.989 5.119 4.319 4.709 3.869 3.869 4.799 4.649 4.629 5.589
1167.032 7.739 9.579 10.519 11.389 13.569 15.159 16.619 18.539 19.069 18.529
1186.322 18.749 19.719 19.289 18.759 16.869 13.929 10.619 8.439 7.619 5.549
1205.611 3.739 3.179 4.399 4.839 3.909 3.609 4.089 3.629 2.499 1.8509
1224.901 3.059 4.119 4.719 4.309 3.319 3.619 3.249 3.789 4.159 3.949
1244.191 4.079 3.899 3.579 3.619 3.629 3.219 3.329 3.669 3.339 3.279
1263.481 3.619 3.729 3.679 3.949 4.779 4.999 4.689 5.179 5.759 6.749
1282.771 7.519 7.289 7.539 7.609 7.399 7.499 7.459 7.329 6.899 6.459
1302.060 6.109 5.659 5.579 5.599 5.389 5.659 6.169 6.489 6.709 6.749
1321.350 6.839 6.809 6.499 5.939 5.689 5.379 4.789 4.189 3.679 3.569
1340.640 3.629 3.629 3.749 4.129 4.459 4.949 5.639 6.319 7.019 7.799
1359.930 8.449 9.049 10.019 10.629 10.699 10.669 10.619 10.699 10.709 10.639
1379.219 10.379 9.829 9.309 8.659 7.899 7.299 6.849 6.209 5.169 4.519
1398.509 4.239 3.759 3.239 2.989 2.909 2.799 2.719 2.549 2.229 2.219
1417.799 2.139 2.209 2.389 2.139 2.059 2.159 2.189 2.259 2.269 2.069
1437.089 2.009 2.259 2.289 2.379 2.299 2.179 2.409 2.469 2.349 2.219
1456.378 2.179 2.219 2.419 2.609 2.659 2.549 2.609 2.709 2.869 3.309
1475.668 3.739 3.979 4.359 4.499 4.489 4.699 4.599 4.399 4.359 4.109
1494.958 3.779 3.419 2.969 2.659 2.399 2.179 2.039 1.999 2.029 1.9392
1514.248 1.8309 1.8315 2.089 2.339 2.299 2.189 1.999 2.069 2.019 1.959
1533.538 2.039 1.989 2.059 1.8824 1.6552 1.8842 2.369 2.819 2.989 2.859
1552.827 2.829 2.799 2.949 3.139 3.379 3.709 3.779 3.949 4.359 4.559
1572.117 4.499 4.539 4.869 5.209 5.479 6.109 7.019 8.049 8.929 10.119
1591.407 11.179 11.639 12.039 12.299 12.809 13.069 13.029 12.669 11.609 10.289
1610.697 9.299 8.559 7.459 6.549 5.699 4.629 3.719 2.929 2.369 2.009
1629.986 1.969 1.9424 1.6603 1.606 1.4523 1.3438 1.4854 1.6578 1.6109 1.4379
1649.276 1.4193 1.3748 1.3593 1.3342 1.394 1.477 1.5247 1.4043 1.4448 1.6411
1668.566 1.6817 1.7469 1.5391 1.3086 1.5211 1.6266 1.3666 1.3559 1.6108 1.808
1687.856 1.6345 1.6866 1.7875 1.7434 2.129 2.409 2.359 2.299 2.239 2.149
1707.146 2.379 2.659 2.809 2.799 2.809 3.089 3.149 3.189 3.259 3.419
1726.435 3.659 3.829 4.169 4.519 5.189 6.409 7.659 8.929 10.669 13.179
1745.725 15.929 19.559 24.319 29.359 34.259 38.729 41.779 42.759 42.559 41.959
1765.015 41.749 41.509 39.699 35.399 28.759 22.429 17.759 14.209 11.459 9.429
1784.305 7.869 6.599 5.539 4.769 4.239 3.849 3.469 3.189 2.909 2.539
1803.594 2.499 2.529 2.439 2.399 2.519 2.499 2.429 2.449 2.489 2.489
1822.884 2.329 2.189 2.119 2.009 1.8606 1.8219 1.6682 1.5208 1.5803 1.5451
1842.174 1.45 1.4667 1.3474 1.2343 1.4361 1.4217 1.1494 1.1679 1.3088 1.3575
1861.464 1.3038 1.182 1.13 1.1262 1.0939 1.2461 1.4289 1.3647 1.3795 1.2284
1880.754 1.2148 1.3891 1.3091 1.2488 1.2588 1.2752 1.2704 1.4069 1.3804 1.3552
1900.043 1.5017 1.4434 1.2018 1.057 1.1045 1.334 1.4081 1.3044 1.3636 1.4212
1919.333 1.4916 1.3849 1.1306 1.1187 1.3746 1.2871 1.1985 1.272 1.3506 1.5532
1938.623 1.4283 1.2908 1.2604 1.2859 1.4667 1.4801 1.3522 1.2683 1.2775 1.3488
1957.913 1.3691 1.2739 1.169 1.00451 0.9143 0.9689 1.03651 1.0891 0.9301 0.8925
1977.202 0.98269 1.03954 0.817 0.657 0.9227 1.1305 1.0825 0.98031 0.96374 0.9265
1996.492 1.0161 0.98182 0.824 0.8829 0.8787 0.65 0.81 1.04116 0.8606 0.766
2015.782 0.826 0.802 0.721 0.811 0.8931 0.9128 1.01153 1.0626 1.04027 1.0803
2035.072 1.0474 0.99587 1.1083 1.1302 1.0581 0.94221 0.97547 1.0863 0.9235 0.76
2054.362 0.81 0.8984 0.9354 0.96748 0.8724 0.784 0.833 0.96431 1.1569 0.96578
2073.651 0.8919 1.1251 1.1302 0.98925 1.119 1.1963 1.00952 0.8949 0.9455 1.0529
2092.941 1.1381 1.098 0.9343 0.948201 0.874 0.96758 1.0682 1.1612 1.2484 1.2409
2112.231 1.2148 1.0732 1.02961 1.0621 1.1209 1.03461 1.04337 1.04167 1.00676 0.9107
2131.521 0.786 0.9258 0.8532 0.762 0.771 0.663 0.695 0.776 0.78 0.743
2150.810 0.777 0.837 0.94184 1.00193 1.1048 1.1072 1.0709 1.1779 0.97354 0.8554
2170.100 0.98283 0.91 0.98994 0.98247 0.957899 1.0551 0.816 0.99221 1.2819 1.1304
2189.390 1.01909 1.0604 1.0104 0.9322 1.03581 1.1588 1.202 1.2111 1.1042 1.1027
2208.680 1.1457 1.01451 0.938 0.9267 0.8716 0.837 0.99458 1.00577 0.99921 1.0959
2227.970 1.04602 1.1571 1.01817 0.98495 1.3201 1.04532 0.758 0.762 0.762 1.01948
2247.259 1.1212 0.9386 0.786 0.83 0.8595 1.00013 1.2293 1.185 0.956797 0.8746
2266.549 0.9047 1.00099 1.0745 1.1001 1.0817 0.8855 0.84 0.776 0.8626 0.845
2285.839 0.703 0.683 0.843 1.04309 0.98318 0.8675 0.693 0.73 1.02295 0.9304
2305.129 0.676 0.646 0.787 1.04787 1.0738 1.1211 1.1399 0.8527 0.848 0.94747
2324.418 0.937 0.957789 0.96847 0.838 0.664 0.82 0.9275 0.98202 1.0615 1.01735
2343.708 0.9217 0.9174 0.8495 0.9175 1.1397 1.1708 1.03771 0.97641 0.95949 0.97371
2362.998 0.94258 1.095 1.1494 0.9992 1.0986 1.107 1.1522 1.1626 1.0912 0.9031
2382.288 1.01093 1.00685 0.782 1.03965 1.2191 1.0818 0.826 0.79 0.9386 1.0779
2401.578 1.0517 0.8914 0.8981 0.8985 0.845 0.665 0.823 1.1117 0.9253 0.8867
2420.867 1.0614 0.98621 1.00328 1.01288 0.8613 0.833 1.00995 1.3218 0.8613 0.314
2440.157 0.468 0.58 0.748 0.826 0.794 0.938 0.773 0.8988 1.1678 0.8584
2459.447 0.718 0.9046 0.8639 0.8934 1.1743 1.1508 0.844 0.706 0.728 1.03336
2478.737 1.2429 1.1204 0.952739 0.83 0.9328 1.02061 0.9386 1.00407 0.834 0.688
2498.026 0.801 0.8734 0.846 0.701 0.816 0.82 0.636 0.712 0.94353 0.96508
2517.316 0.8541 0.9384 1.0606 0.836 0.687 0.662 0.606 0.688 0.8878 1.00067
2536.606 1.1586 1.391 1.0243 0.732 1.0675 1.0692 0.818 0.71 0.57 0.705
2555.896 0.842 0.714 0.73 0.805 0.664 0.677 0.8926 0.661 0.344 0.421
2575.186 0.423 0.507 0.554 0.457 0.574 0.8546 1.1079 1.228 0.98912 0.666
2594.475 0.9675 1.1428 0.737 0.47 0.487 0.66 0.715 0.743 0.697 0.596
2613.765 0.658 0.633 0.756 0.812 0.94161 1.134 1.00932 0.8683 1.0855 1.1023
2633.055 0.642 0.491 0.407 0.68 1.1665 1.272 1.03423 0.66 0.8965 1.1208
2652.345 0.8623 0.63 0.771 0.955452 0.923 0.94435 0.84 0.8787 1.0558 1.02848
2671.634 0.8634 0.623 0.714 0.786 0.656 0.826 0.9642 1.00582 0.635 0.698
2690.924 0.914 0.626 0.566 0.808 0.95586 0.519 0.335 0.792 1.1568 1.04717
2710.214 0.809 0.8638 0.828 0.8747 0.8734 0.532 0.44 0.445 0.708 0.8529
2729.504 0.835 0.9387 0.746 0.616 0.8926 0.686 0.565 0.99311 0.929 1.0918
2748.794 1.1073 0.96966 1.1302 1.176 1.3337 1.0596 0.61 0.46 0.493 0.747
2768.083 1.0784 0.8615 0.96506 1.2361 0.764 0.524 0.605 0.841 1.1264 0.8989
2787.373 0.545 0.581 0.688 0.76 0.835 0.9374 0.9043 1.1061 1.1466 0.814
2806.663 0.94711 1.04677 0.8748 0.8834 0.824 0.693 0.639 0.761 1.1565 0.99179
2825.953 0.676 0.778 0.98856 0.95454 0.61 0.729 1.0559 1.0603 1.3343 1.4854
2845.242 1.214 1.113 1.2951 1.2247 1.2783 1.48 1.00869 1.1398 1.3999 1.1913
2864.532 1.1022 0.9089 1.0331 1.1205 1.0509 1.1128 0.8891 0.776 1.269 1.5317
2883.822 1.01449 0.9757 1.4489 1.2939 0.8492 0.599 0.657 1.1646 1.3594 1.02926
2903.112 0.809 0.752 0.804 0.737 1.128 1.5242 1.3909 1.4594 1.5727 2.069
2922.401 2.199 1.8056 1.8469 1.7404 2.089 2.709 2.659 2.519 2.289 1.8133
2941.691 1.8161 1.9463 1.7545 1.7172 1.8352 1.5761 1.442 1.7959 1.989 2.129
2960.981 2.159 1.9463 1.6366 1.7675 1.6446 1.4221 1.8144 2.109 2.209 1.9269
2980.271 1.5615 1.4898 1.3598 1.2099 1.1772 1.1567 1.3183 1.3625 1.1105 1.1534
2999.561 1.5111 1.441 1.5248 1.5073 1.02881 1.205 1.4626 1.3076 1.3676 1.6479
3018.850 1.7677 2.039 2.219 2.059 1.9062 1.7647 1.8477 1.8651 1.808 1.9372
3038.140 1.969 1.6589 1.5088 1.6172 1.5918 1.6719 1.8199 1.7943 1.6708 1.7536
3057.430 1.9229 1.7271 1.4218 1.3221 1.4972 1.6732 1.3288 1.3745 1.4487 1.4752
3076.720 1.7858 1.6627 1.4244 1.7992 1.9051 1.4642 1.5007 1.2898 1.2417 1.5094
3096.009 1.7183 1.6559 1.6906 1.5204 1.3024 1.9315 2.059 1.6735 1.7811 1.7843
3115.299 1.1184 0.659 0.829 0.9306 1.3329 1.959 1.7051 1.02987 0.668 0.846
3134.589 0.951746 0.557 0.654 0.951217 0.639 0.663 0.94316 1.1628 1.3249 1.1934
3153.879 0.777 0.294 0.758 1.2919 1.0549 0.766 0.572 0.477 0.53 0.712
3173.169 0.651 0.413 0.203 0.111 0.549 0.643 0.4 0.743 0.748 0.487
3192.458 0.266 0.14 0.431 0.761 0.527 0.651 0.535 0.067 0.411 0.74
3211.748 0.817 1.1598 1.1502 1.1613 1.2843 0.9157 0.754 0.9307 1.2937 1.5801
3231.038 1.4965 1.1384 0.95883 1.0031 0.811 0.8742 0.722 0.563 1.01324 1.1856
3250.328 1.4169 1.3145 0.8946 0.743 0.536 0.396 0.779 0.98171 0.8861 1.02161
3269.617 1.1125 1.1571 1.1039 0.721 0.64 0.665 0.603 0.551 0.727 0.802
3288.907 1.1627 1.2994 0.618 1.03941 0.9385 0.302 0.505 0.596 0.821 1.0946
3308.197 1.03018 1.0592 1.1558 1.1269 1.1975 1.2324 0.94045 0.918 0.714 0.013
3327.487 0.391 0.9036 0.741 0.9164 0.838 1.02124 1.1976 0.8974 1.03538 1.3202
3346.777 1.04697 0.711 0.83 1.0985 0.8744 0.831 1.2952 1.4914 1.5016 1.2967
3366.066 0.98283 0.9247 0.957387 0.9245 1.1118 0.96874 0.707 0.426 0.48 0.864
3385.356 0.9384 0.8885 1.1915 1.275 0.99185 0.786 0.656 0.815 0.99614 0.98859
3404.646 1.02322 0.8771 0.664 0.784 0.9243 0.849 1.0527 0.99476 0.8603 1.3034
3423.936 1.182 0.587 0.52 0.93998 1.3364 1.1426 0.9234 1.2688 1.01994 0.648
3443.225 0.797 1.1854 1.1493 0.81 1.1876 1.2953 1.0738 0.68 0.693 0.9007
3462.515 1.02491 1.311 0.98986 0.8839 0.786 0.469 0.336 0.236 0.353 0.751
3481.805 0.654 0.44 0.797 0.83 0.336 0.692 0.8676 0.419 1.1234 1.5454
3501.095 1.0863 1.3788 1.474 0.96667 0.916 1.054 0.8789 0.904 0.8644 0.665
3520.385 1.04815 0.96433 0.715 0.857 1.0486 1.1466 1.4229 1.3938 0.822 0.603
3539.674 0.843 0.98386 0.66 0.605 0.755 0.838 1.3643 1.5467 1.2198 1.4871
3558.964 2.159 2.339 2.339 3.029 4.189 5.449 6.859 8.669 10.959 13.039
3578.254 14.189 14.619 14.689 14.209 13.739 13.439 12.299 10.019 7.399 4.859
3597.544 2.989 2.289 2.069 1.737 1.3433 1.424 1.1525 0.97266 1.3841 1.4824
3616.833 1.155 0.802 0.503 0.612 1.0513 1.1837 1.0563 1.4615 1.6671 1.5394
3636.123 1.4101 0.97941 0.950472 0.708 0.661 0.9003 1.1736 1.04643 0.742 1.2021
3655.413 1.6057 1.274 1.1469 1.3277 1.2709 1.394 1.2318 0.795 1.0715 1.619
3674.703 1.5748 1.528 1.2341 0.99737 1.1821 1.0691 0.604 0.47 0.98248 1.0396
3693.993 0.98308 1.4715 1.6319 1.7287 1.145 0.59 1.0576 1.2743 1.3049 1.6632
3713.282 1.7384 0.877 0.707 0.805 0.502 0.326 0.474 0.8878 0.4 0.225
3732.572 0.616 0.98055 1.2877 1.1528 0.837 0.559 0.583 0.9293 1.0863 0.786
3751.862 0.97132 1.1215 0.738 0.607 0.8915 1.265 1.089 0.805 1.132 1.1951
3771.152 1.2597 1.3468 1.00546 0.9188 1.056 0.96378 0.841 0.812 0.762 0.768
3790.441 0.98044 1.0654 0.9086 1.01523 1.0139 0.8726 1.04024 0.804 0.812 0.715
3809.731 0.393 0.8667 0.97972 0.673 0.97381 1.2008 0.9043 1.0531 1.0929 0.686
3829.021 0.8812 1.204 1.1315 1.1166 0.838 0.781 1.1867 1.03675 0.8658 0.8703
3848.311 1.0544 1.231 0.926 0.833 1.2537 1.2994 1.0719 1.2193 1.5052 1.169
3867.601 0.9662 1.1166 0.44 0.253 0.306 0.465 0.535 0.744 0.952721 0.248
3886.890 0.02 0.575 0.809 0.552 1.0638 1.4156 0.96388 0.584 0.738 0.699
3906.180 0.646 0.799 0.697 0.97121 1.1367 1.2562 1.02356 0.652 0.8557 1.1158
3925.470 1.2635 1.1231 1.04252 1.2513 1.241 1.118 0.97442 0.99539 1.00215 1.0854
3944.760 1.144 0.674 0.472 0.702 0.98837 1.2438 0.8944 0.71 0.582 0.076
3964.049 0 0.111 0.9061 1.5378 1.3666 1.2095 1.1121 1.00731 0.9332 1.1041
3983.339 1.2463 0.96892 0.817 0.661 0.547 0.602 0.797 1.1822 1.2347 1.3234
##END=
