##TITLE=Tetradecyl isothiocyanate
##JCAMP-DX=4.24
##DATA TYPE=INFRARED SPECTRUM
##ORIGIN=EPA-IR VAPOR PHASE LIBRARY
##OWNER=SRD/NIST
Collection (C) 2018 copyright by the U.S. Secretary of Commerce
on behalf of the United States of America. All rights reserved.
##CAS REGISTRY NO=3224-48-4
##MOLFORM=C 15 H 29 N S
##$NIST SOURCE=MSDC-IR
##STATE=gas
##XUNITS=1/CM
##YUNITS=ABSORBANCE
##XFACTOR=1.
##YFACTOR=0.001
##DELTAX=1.92898
##FIRSTX=549.8
##LASTX=4000.7
##FIRSTY=7.0851
##MAXX=4000.7
##MINX=549.759
##MAXY=0.309115
##MINY=0
##NPOINTS=1790
##XYDATA=(X++(Y..Y))
549.759 7.0851 7.0151 6.6751 6.4251 6.5251 6.6051 6.4851 6.2551 6.3751 6.1851
569.049 5.6951 5.5451 5.2951 5.2451 5.1951 4.7951 4.2151 3.8951 4.0951 4.1851
588.339 3.7351 3.5751 3.6851 3.2951 3.0951 3.2651 3.0051 2.7051 2.6851 2.5451
607.628 2.4851 2.5251 2.4251 2.2851 2.2051 2.0051 1.9051 2.0251 1.9351 1.9151
626.918 1.8251 1.7551 1.8851 1.9751 1.8551 1.8451 1.8651 1.7351 1.8151 2.0551
646.208 2.2351 2.2851 2.2951 2.3051 2.4551 2.5951 2.7551 2.8351 2.7651 2.6751
665.498 2.6951 2.7551 2.6151 2.4051 2.3751 2.5051 2.5451 2.4151 2.6051 2.6951
684.787 2.7851 3.1751 3.5051 3.6151 3.8451 4.2451 4.5551 4.9751 5.3451 5.7351
704.077 6.0651 6.2651 6.5251 6.8951 7.1651 7.2751 7.3351 7.3951 7.2451 7.1451
723.367 7.1551 7.1551 6.8251 6.3451 6.2051 6.0451 5.7151 5.4251 5.2851 5.1151
742.657 4.8751 4.6451 4.6051 4.4251 4.2051 4.2251 4.2551 4.1651 4.0251 3.9951
761.947 3.9751 3.6351 3.4351 3.4251 3.1551 2.9851 2.8451 2.7251 2.7751 2.6751
781.236 2.5051 2.4651 2.4051 2.3051 2.2551 2.2551 2.2651 2.2951 2.1951 2.0751
800.526 1.9251 1.9251 2.0551 2.0151 1.9451 2.0451 2.0151 1.9051 1.8651 1.8551
819.816 2.0651 2.1651 1.9451 1.7751 1.6951 1.8551 1.8351 1.6451 1.5651 1.6151
839.106 1.6051 1.5751 1.7951 1.9051 1.8351 1.7051 1.7451 1.7551 1.7951 1.8551
858.395 1.7751 1.7451 1.8051 1.7551 1.6951 1.5651 1.5351 1.7451 1.6751 1.5251
877.685 1.6651 1.7751 1.6151 1.6251 1.8751 1.9051 1.8551 2.0051 2.0151 2.0351
896.975 2.0551 2.1951 2.2051 2.0251 2.0951 2.1451 2.1151 2.1951 2.2651 2.2551
916.265 2.3751 2.5851 2.5951 2.5251 2.6351 2.6551 2.5251 2.4151 2.5251 2.5951
935.555 2.4451 2.4951 2.4451 2.3951 2.4051 2.3051 2.3151 2.3751 2.3151 2.2951
954.844 2.4051 2.3351 2.1351 2.0551 2.0151 2.1951 2.2851 2.1451 2.2951 2.3751
974.134 2.3051 2.2951 2.3751 2.2651 2.0751 2.1551 2.2151 2.2451 2.1551 2.0851
993.424 2.1651 2.0951 1.9951 2.0551 2.0751 1.9251 2.1551 2.3451 2.1351 2.2151
1012.714 2.2951 2.1851 2.3151 2.5451 2.6351 2.6351 2.7951 2.6151 2.4751 2.7751
1032.003 2.7751 2.6751 2.6451 2.6251 2.5251 2.4451 2.5451 2.6351 2.7451 2.8351
1051.293 2.7851 2.6851 2.7851 2.9851 2.8251 2.7051 2.8651 2.9051 3.0551 3.1751
1070.583 3.1551 3.2651 3.2751 3.1651 3.2251 2.9751 2.9551 3.1251 2.9851 3.0651
1089.873 2.8551 2.6751 2.8151 2.9551 3.0451 3.0851 2.7751 2.4251 3.0051 3.2251
1109.163 2.7951 2.6051 2.5551 2.7751 2.6251 2.6151 2.8751 2.7451 2.8351 2.8851
1128.452 2.7751 2.7851 2.6551 2.6551 2.8851 2.8651 2.7651 2.6351 2.4751 2.4251
1147.742 2.4151 2.2151 2.0651 2.3351 2.5051 2.4851 2.3851 2.3351 2.3951 2.4451
1167.032 2.3451 2.3351 2.3651 2.3051 2.4051 2.5351 2.4751 2.4451 2.7151 2.8851
1186.322 2.6751 2.6151 2.7251 2.6551 2.7051 2.9351 2.9451 2.6551 2.4651 2.5451
1205.611 2.6951 2.7151 2.8851 3.0951 3.1451 2.9751 2.8751 3.1051 3.2151 2.7951
1224.901 2.9051 3.3151 3.4751 3.5651 3.7251 3.8451 3.6851 3.8551 4.1651 4.3351
1244.191 4.2651 4.0751 4.2251 4.3451 4.4251 4.6151 4.7351 5.0651 5.1551 4.9951
1263.481 4.9051 5.0351 5.4251 5.4351 5.5151 5.8751 6.1451 6.3251 6.4851 6.8951
1282.771 7.2151 7.4751 7.7951 8.2051 8.6951 9.1451 9.5551 10.0351 10.6251 11.0851
1302.060 11.5651 12.0851 12.5351 12.9751 13.3951 13.7251 13.9751 14.2651 14.6051 14.9851
1321.350 15.4351 16.1151 17.0051 18.1251 19.6251 21.4951 23.6951 26.2551 29.1351 32.2351
1340.640 35.4251 38.4351 41.0651 43.0551 44.1151 44.0851 42.8851 40.7851 38.1851 35.4851
1359.930 32.8651 30.4351 28.3051 26.3251 24.3151 22.2551 20.1551 18.0651 16.1651 14.5451
1379.219 13.1551 11.9651 10.8651 9.8451 8.8851 8.0351 7.3051 6.7251 6.2551 5.7851
1398.509 5.3751 5.0851 4.9451 4.8051 4.7051 4.6451 4.5551 4.5651 4.6851 4.7851
1417.799 4.8951 5.1051 5.3151 5.6251 5.9751 6.3951 7.0351 7.8151 8.7151 9.7851
1437.089 11.2051 12.8651 14.6951 16.8151 19.1551 21.5151 24.0151 26.6851 29.5151 32.5551
1456.378 35.5851 38.2151 39.8351 39.8451 38.2251 35.3351 31.6651 27.6551 23.5851 19.7951
1475.668 16.5151 13.6651 11.3751 9.6551 8.2751 7.1751 6.3051 5.5851 5.0151 4.5251
1494.958 4.1251 3.8051 3.5551 3.3251 3.0951 2.8751 2.6951 2.5651 2.4351 2.3051
1514.248 2.2051 2.1051 2.0251 1.9251 1.8851 1.8651 1.7551 1.6151 1.5351 1.4751
1533.538 1.4651 1.5051 1.4351 1.3751 1.3351 1.2951 1.3351 1.2351 1.1751 1.2151
1552.827 1.1751 1.0375 0.9887 1.0433 1.0216 0.9878 1.0551 1.0338 0.9368 0.9449
1572.117 0.9584 0.9564 0.8767 0.8156 0.865 0.8886 0.8561 0.8806 0.8759 0.846
1591.407 0.8534 0.9028 0.9024 0.7762 0.7383 0.7294 0.7041 0.7129 0.6794 0.6853
1610.697 0.735 0.7088 0.6482 0.6323 0.6398 0.7028 0.7474 0.667 0.6593 0.7111
1629.986 0.7202 0.6558 0.6467 0.6695 0.6856 0.7138 0.7348 0.7378 0.6944 0.6687
1649.276 0.6622 0.6335 0.5844 0.5949 0.6418 0.6224 0.5213 0.5519 0.6417 0.6633
1668.566 0.6367 0.6385 0.6708 0.6479 0.5948 0.5734 0.6023 0.5847 0.5568 0.6006
1687.856 0.6563 0.6042 0.5556 0.5404 0.5114 0.5078 0.4907 0.4944 0.4946 0.4682
1707.146 0.5556 0.5856 0.5343 0.573 0.5691 0.5305 0.5176 0.5243 0.4984 0.4876
1726.435 0.5183 0.5525 0.5781 0.5748 0.5614 0.5026 0.4834 0.5186 0.5091 0.4819
1745.725 0.5348 0.5771 0.5909 0.5977 0.5292 0.5141 0.5278 0.5092 0.5242 0.5725
1765.015 0.5978 0.5588 0.512 0.5634 0.6315 0.6572 0.6617 0.6166 0.6088 0.6217
1784.305 0.6165 0.6197 0.674 0.6658 0.6166 0.5992 0.6266 0.6923 0.7025 0.7061
1803.594 0.7374 0.7546 0.7118 0.6919 0.7282 0.7707 0.8037 0.8283 0.8212 0.8309
1822.884 0.8636 0.8887 0.8835 0.9006 0.9261 0.9064 0.9395 0.9984 1.051 1.1351
1842.174 1.1851 1.2351 1.2451 1.2651 1.3551 1.4351 1.4551 1.5051 1.5951 1.6551
1861.464 1.7451 1.7951 1.8451 1.9451 1.9651 2.0151 2.1551 2.2551 2.3551 2.4451
1880.754 2.5351 2.6551 2.7451 2.8451 3.0051 3.2351 3.4051 3.5751 3.7451 3.8751
1900.043 4.0251 4.2151 4.4151 4.6251 4.8751 5.1451 5.4151 5.6151 5.8251 6.1051
1919.333 6.3451 6.6651 7.0351 7.2951 7.5951 8.0551 8.5251 8.9051 9.2851 9.7151
1938.623 10.1851 10.6751 11.2251 11.7651 12.2451 12.8451 13.5351 14.2351 14.9451 15.6451
1957.913 16.4051 17.2751 18.2051 19.1451 20.1951 21.2951 22.4151 23.6651 25.0351 26.4751
1977.202 27.9851 29.5951 31.3151 33.1551 35.2151 37.4051 39.6751 42.1051 44.6851 47.4451
1996.492 50.4051 53.5751 56.9851 60.5551 64.3851 68.4751 72.7951 77.4051 82.2251 87.4151
2015.782 92.9251 98.7651 104.975 111.435 118.305 125.645 133.275 141.285 149.665 158.285
2035.072 167.245 176.405 185.685 194.875 203.925 212.825 221.165 228.905 235.995 242.185
2054.362 247.235 251.065 253.565 254.745 254.445 252.635 249.545 245.105 239.345 232.405
2073.651 224.535 215.825 206.605 197.075 187.325 177.595 167.965 158.715 149.895 141.505
2092.941 133.705 126.435 119.625 113.335 107.525 102.215 97.3551 92.8651 88.6851 84.8351
2112.231 81.3051 77.9851 74.9451 72.0751 69.4051 66.9851 64.6751 62.4851 60.4451 58.5951
2131.521 56.8951 55.2251 53.6151 52.1651 50.8851 49.6451 48.5151 47.5451 46.6051 45.7051
2150.810 44.8151 43.9651 43.2451 42.5851 41.9751 41.3951 40.8251 40.2651 39.7151 39.3051
2170.100 38.9451 38.5151 38.1451 37.8751 37.5651 37.2351 36.9451 36.6351 36.2851 35.8651
2189.390 35.4751 35.1251 34.6551 34.0851 33.4351 32.6951 31.8451 30.9751 30.0351 28.8951
2208.680 27.7451 26.6051 25.4651 24.2651 23.0951 22.0351 20.9551 19.8451 18.8351 17.8651
2227.970 16.8651 15.9851 15.0951 14.2451 13.5051 12.7751 12.1051 11.4151 10.7351 10.1651
2247.259 9.6451 9.1851 8.6951 8.1951 7.8951 7.5851 7.2351 6.8951 6.5951 6.3351
2266.549 6.0951 5.8551 5.5451 5.3251 5.0951 4.9051 4.7351 4.5851 4.4651 4.3051
2285.839 4.1251 3.9851 3.8351 3.7051 3.5751 3.4551 3.3551 3.2351 3.0951 3.0251
2305.129 3.0051 2.9051 2.8051 2.6951 2.6151 2.5151 2.4051 2.3151 2.2151 2.1551
2324.418 2.0951 2.0751 2.0851 2.0251 1.9451 1.9551 1.9251 1.8451 1.7351 1.7351
2343.708 1.7151 1.5951 1.5151 1.4751 1.4551 1.4551 1.4251 1.3451 1.3451 1.3251
2362.998 1.3351 1.3351 1.2651 1.1751 1.1651 1.2251 1.2551 1.2651 1.2051 1.1651
2382.288 1.1851 1.1251 1.1451 1.1751 1.1251 1.1251 1.1451 1.0851 0.9882 1.0526
2401.578 1.1251 1.0951 1.1251 1.1351 1.1051 1.0551 1.0358 1.0751 1.0494 1.0751
2420.867 1.0651 0.9754 0.9834 1.0412 1.0851 1.1051 1.0851 1.0282 1.0023 1.0337
2440.157 1.0512 1.0376 0.9825 0.9249 0.9676 0.9957 0.9505 0.9474 0.9916 1.0171
2459.447 1.0126 1.0651 1.052 1.0012 1.0116 0.9755 0.9743 1.0146 1.0034 1.0108
2478.737 0.9903 0.9734 0.9543 0.9306 1.041 1.1251 1.1551 1.2251 1.2351 1.1951
2498.026 1.2151 1.1651 1.1051 1.1151 1.2051 1.2751 1.3151 1.3651 1.3551 1.4051
2517.316 1.4451 1.4251 1.4451 1.4551 1.4451 1.5251 1.6351 1.6451 1.6651 1.6551
2536.606 1.6351 1.6951 1.7951 1.8651 1.7651 1.6851 1.7751 1.8151 1.8251 1.7251
2555.896 1.6951 1.7851 1.8551 1.9251 1.9251 1.9251 2.0151 2.0551 2.0251 1.9751
2575.186 1.9951 2.1251 2.1451 2.0951 2.1451 2.2551 2.2751 2.2051 2.1251 2.1551
2594.475 2.2351 2.2951 2.1951 2.1651 2.2151 2.1551 2.1551 2.2051 2.2451 2.2551
2613.765 2.2351 2.2651 2.2551 2.2551 2.3251 2.3451 2.2551 2.2451 2.3951 2.4851
2633.055 2.4551 2.4351 2.4851 2.5251 2.5851 2.6851 2.7751 2.8451 2.8151 2.8351
2652.345 2.9651 3.0551 3.1351 3.1751 3.1951 3.2551 3.4051 3.5951 3.6851 3.7651
2671.634 3.8651 3.9151 4.0651 4.1451 4.2551 4.4051 4.5051 4.6151 4.6651 4.6051
2690.924 4.6251 4.7051 4.6951 4.7151 4.7151 4.6951 4.7451 4.8251 4.9151 5.0251
2710.214 5.1051 5.1651 5.2451 5.3351 5.4151 5.5551 5.7351 5.8551 6.0451 6.1551
2729.504 6.1551 6.2251 6.2551 6.3651 6.4951 6.4751 6.4651 6.4551 6.3451 6.3051
2748.794 6.2951 6.3251 6.2651 6.1751 6.1551 6.0351 5.9651 6.0051 6.0951 6.0751
2768.083 6.0151 6.0351 6.0851 6.2151 6.2351 6.2251 6.2851 6.3351 6.5251 6.6751
2787.373 6.8551 7.0651 7.2751 7.5751 7.8451 8.0051 8.1951 8.4651 8.8151 9.1451
2806.663 9.2751 9.5051 9.9251 10.3051 10.6951 11.2651 11.8351 12.3351 13.0051 13.7751
2825.953 14.4551 15.1651 16.1351 17.1951 18.4051 19.7751 21.4251 23.5651 26.2351 29.5251
2845.242 33.7051 38.9351 45.5051 53.8651 64.0451 75.7151 88.2451 100.155 109.475 114.895
2864.532 115.815 112.815 107.145 99.9651 92.4851 85.6351 80.0051 75.7151 72.5651 70.4351
2883.822 68.9251 67.3851 65.8151 64.5651 63.7751 63.7251 64.5451 66.2451 68.9351 72.7151
2903.112 77.5651 83.4651 90.2851 98.1751 107.215 117.335 128.995 142.825 159.275 178.805
2922.401 201.585 226.945 253.415 277.775 296.755 307.675 309.115 302.265 288.995 271.485
2941.691 251.625 231.075 211.185 192.775 176.015 161.015 148.115 136.905 126.955 118.185
2960.981 110.445 103.555 97.3851 91.3951 84.9251 77.6651 69.6951 61.3051 53.0651 45.9151
2980.271 40.1251 35.2851 31.2951 27.9351 25.1151 22.8251 20.7851 19.0851 17.5951 16.3151
2999.561 15.1951 14.1651 13.1751 12.2651 11.7251 11.2051 10.5051 9.9451 9.4351 8.9551
3018.850 8.5751 8.1651 7.6951 7.4551 7.2251 6.8151 6.4551 6.1451 5.8751 5.6551
3038.140 5.3951 5.1051 4.9751 4.7951 4.6551 4.6951 4.5451 4.2651 4.0651 3.8851
3057.430 3.8151 3.6551 3.4051 3.2851 3.2351 3.0651 3.0451 3.1351 3.0151 2.8351
3076.720 2.7651 2.7551 2.6851 2.6851 2.5851 2.5451 2.5351 2.4151 2.2751 2.1151
3096.009 2.1151 2.1351 2.1451 2.1451 2.1751 2.0451 1.9051 1.9651 1.9551 1.8951
3115.299 1.8751 1.8751 1.8651 1.7251 1.6551 1.6951 1.6151 1.6451 1.7651 1.6951
3134.589 1.5851 1.4451 1.3351 1.3251 1.4551 1.6051 1.4551 1.2951 1.2751 1.2251
3153.879 1.3051 1.3951 1.3651 1.2351 1.0951 1.1751 1.2051 1.2251 1.3451 1.2351
3173.169 1.0497 1.0751 1.1251 1.0455 0.9942 0.995 0.9328 0.9259 0.9818 0.9475
3192.458 0.9511 0.9628 1.0054 0.9244 0.7398 0.6812 0.6797 0.7214 0.7271 0.6574
3211.748 0.6399 0.6479 0.6041 0.5228 0.518 0.4589 0.423 0.4901 0.5168 0.5738
3231.038 0.5767 0.4993 0.4613 0.4504 0.4142 0.4103 0.4055 0.4696 0.4889 0.4437
3250.328 0.3957 0.3462 0.3149 0.3765 0.3117 0.2744 0.3783 0.318 0.2429 0.2817
3269.617 0.2968 0.2242 0.2103 0.3609 0.4508 0.3431 0.2019 0.1978 0.2178 0.1693
3288.907 0.1188 0.10356 0.1653 0.2158 0.232 0.2906 0.2933 0.2221 0.2588 0.233
3308.197 0.2234 0.3639 0.3822 0.4028 0.3117 0.1713 0.2389 0.1576 0.08005 0.206
3327.487 0.383 0.4262 0.1776 0.1071 0.2101 0.2271 0.1659 0.12558 0.3094 0.4334
3346.777 0.4068 0.4091 0.343 0.3246 0.4318 0.4747 0.3206 0.1901 0.2555 0.408
3366.066 0.4477 0.4421 0.4285 0.2122 0.11159 0.2913 0.4092 0.3429 0.3769 0.3766
3385.356 0.3233 0.3038 0.3525 0.3791 0.2983 0.38 0.3747 0.2872 0.3893 0.3342
3404.646 0.2454 0.3982 0.4754 0.4837 0.424 0.4251 0.4357 0.3207 0.3262 0.4188
3423.936 0.4216 0.3508 0.3733 0.4544 0.4822 0.3726 0.3211 0.3611 0.4169 0.3852
3443.225 0.4255 0.5384 0.3099 0.0211 0.15236 0.3693 0.3964 0.4654 0.3447 0.1874
3462.515 0.2196 0.2948 0.3623 0.2971 0.2032 0.1824 0.2104 0.2662 0.2884 0.1886
3481.805 0.1914 0.2474 0.2315 0.2455 0.2348 0.3048 0.3318 0.25 0.3293 0.3442
3501.095 0.3233 0.3585 0.3332 0.3063 0.311 0.2781 0.1659 0.2026 0.2302 0.14427
3520.385 0.14717 0.1913 0.2227 0.1799 0.14134 0.13694 0 0.10954 0.2067 0.1902
3539.674 0.2281 0.176 0.2337 0.2753 0.2679 0.2189 0.1641 0.2076 0.3037 0.2691
3558.964 0.2032 0.3002 0.3442 0.2867 0.276 0.3932 0.346 0.1859 0.12868 0.3417
3578.254 0.552 0.4245 0.2816 0.2607 0.3571 0.4372 0.4997 0.4709 0.3798 0.5673
3597.544 0.5843 0.4625 0.3573 0.3902 0.4874 0.5004 0.576 0.5594 0.5127 0.5984
3616.833 0.8294 0.7577 0.5807 0.519 0.4815 0.4548 0.5141 0.6015 0.6292 0.5895
3636.123 0.6161 0.6368 0.5004 0.5017 0.7863 0.8682 0.7086 0.7336 0.7466 0.673
3655.413 0.583 0.5411 0.5573 0.5089 0.4942 0.6189 0.6825 0.5982 0.468 0.5581
3674.703 0.6474 0.613 0.6713 0.5984 0.4811 0.4989 0.4562 0.5581 0.6589 0.5116
3693.993 0.5707 0.7004 0.6214 0.6003 0.5925 0.597 0.6181 0.564 0.4693 0.5434
3713.282 0.6763 0.5306 0.4683 0.5464 0.5555 0.5691 0.538 0.515 0.5197 0.5038
3732.572 0.6152 0.6346 0.4345 0.4201 0.5164 0.5911 0.6187 0.6121 0.6569 0.5148
3751.862 0.4906 0.7079 0.7574 0.6417 0.6652 0.721 0.6637 0.6467 0.6573 0.6694
3771.152 0.7177 0.6852 0.5917 0.5533 0.6548 0.7188 0.6671 0.6711 0.8006 0.8874
3790.441 0.7541 0.671 0.7034 0.7047 0.6453 0.6505 0.6784 0.6387 0.6177 0.6471
3809.731 0.7499 0.8731 0.8908 0.8396 0.8031 0.6516 0.6079 0.6352 0.6554 0.7292
3829.021 0.649 0.5834 0.6687 0.6513 0.4971 0.5508 0.6671 0.5943 0.5103 0.7102
3848.311 0.9615 0.7793 0.6445 0.7333 0.7469 0.7269 0.8245 0.8002 0.5849 0.6533
3867.601 0.7303 0.7179 0.6568 0.5441 0.5831 0.6386 0.5887 0.655 0.8673 0.9195
3886.890 0.7932 0.8539 1.0094 0.958 0.8466 0.8689 0.898 0.9188 0.8993 0.9358
3906.180 0.9594 0.8175 0.7848 0.8122 0.8676 0.8937 0.8895 0.9316 0.9458 0.9365
3925.470 0.9107 0.834 0.7909 0.9779 1.0851 0.9463 1.0152 1.0544 0.8922 0.9835
3944.760 1.1051 1.1051 1.1751 1.3151 1.3151 1.1251 1.0651 1.2451 1.3651 1.4051
3964.049 1.4451 1.4351 1.4251 1.4051 1.3651 1.3251 1.4051 1.5151 1.4351 1.3351
3983.339 1.3051 1.3051 1.4051 1.5951 1.7251 1.5951 1.5551 1.5251 1.4751 1.5551
##END=
