##TITLE=1-Ethyl-2-methylcyclohexanol
##JCAMP-DX=4.24
##DATA TYPE=INFRARED SPECTRUM
##ORIGIN=NIST Mass Spectrometry Data Center
##OWNER=NIST Standard Reference Data Program
Collection (C) 2018 copyright by the U.S. Secretary of Commerce
on behalf of the United States of America. All rights reserved.
##CAS REGISTRY NO=32296-45-0
##MOLFORM=C 9 H 18 O
##$NIST SOURCE=MSDC-IR
##SPECTROMETER/DATA SYSTEM=HP-GC/MS/IRD
##STATE=gas
##XUNITS=1/CM
##YUNITS=ABSORBANCE
##XFACTOR=1.0
##YFACTOR=0.000005300
##DELTAX=4.0
##FIRSTX=550.0
##LASTX=3846.0
##FIRSTY=0.000313
##MAXX=3846
##MINX=550
##MAXY=0.053
##MINY=0
##NPOINTS=825
##XYDATA=(X++(Y..Y))
550.0 59 49 53 64 64 65 70 71 58 42
590.0 36 61 69 44 42 41 33 33 31 24
630.0 24 24 33 40 35 32 39 36 27 34
670.0 49 53 55 57 57 60 56 42 43 42
710.0 32 20 11 19 22 26 34 33 30 34
750.0 38 36 31 35 40 51 58 58 60 62
790.0 74 96 120 137 147 142 123 121 116 106
830.0 96 83 83 88 100 123 158 200 232 246
870.0 253 260 275 298 333 361 344 327 331 331
910.0 325 317 325 332 365 447 573 752 980 1240
950.0 1460 1599 1700 1749 1670 1472 1257 1060 890 747
990.0 635 538 444 371 309 264 238 215 199 193
1030.0 194 205 218 233 237 234 235 250 271 295
1070.0 326 363 411 441 464 494 502 499 501 502
1110.0 509 512 510 511 514 527 553 588 639 691
1150.0 724 746 753 739 714 679 627 570 538 519
1190.0 513 508 500 493 481 472 470 473 478 482
1230.0 495 514 537 550 571 588 586 581 573 565
1270.0 557 548 540 528 510 482 454 427 399 371
1310.0 344 321 309 303 307 325 350 379 406 434
1350.0 463 489 508 533 560 598 643 682 699 684
1390.0 623 522 418 328 267 233 222 223 245 296
1430.0 377 493 641 786 925 1082 1171 1175 1161 1095
1470.0 965 805 630 469 340 245 181 139 116 102
1510.0 91 80 69 63 59 54 55 56 54 53
1550.0 52 53 49 48 51 52 52 47 43 39
1590.0 39 38 35 35 35 33 36 38 35 35
1630.0 37 37 33 31 34 34 30 27 21 20
1670.0 21 23 22 21 17 15 14 12 11 13
1710.0 13 9 10 11 10 10 9 9 9 11
1750.0 13 11 10 12 9 5 8 10 8 8
1790.0 11 10 8 7 5 2 4 5 5 6
1830.0 7 9 9 10 11 12 10 5 5 6
1870.0 5 3 1 0 2 4 4 5 6 4
1910.0 6 6 5 5 6 6 5 4 3 4
1950.0 6 3 6 6 3 5 5 4 4 3
1990.0 3 3 4 4 3 4 5 4 3 5
2030.0 8 8 6 8 10 7 5 8 8 5
2070.0 3 7 7 0 0 4 5 5 4 9
2110.0 11 10 12 9 8 9 12 12 8 10
2150.0 13 12 10 10 10 8 9 12 10 9
2190.0 9 11 15 17 18 18 17 15 17 18
2230.0 16 16 16 18 19 19 20 22 18 15
2270.0 14 14 14 16 13 11 16 15 15 16
2310.0 19 21 16 14 19 21 22 20 17 19
2350.0 20 20 19 18 18 21 22 21 20 21
2390.0 23 22 24 24 24 26 25 23 26 28
2430.0 27 25 28 27 20 21 23 21 19 16
2470.0 16 17 15 15 17 19 21 21 20 20
2510.0 21 23 26 27 27 26 29 31 28 27
2550.0 28 26 33 34 28 30 38 43 44 44
2590.0 48 53 55 54 54 59 63 69 68 65
2630.0 68 76 81 85 89 94 102 108 115 123
2670.0 128 127 119 113 110 103 96 88 86 88
2710.0 89 91 95 95 93 100 111 118 123 124
2750.0 123 127 129 132 136 144 154 161 173 185
2790.0 195 206 221 233 241 252 271 301 336 372
2830.0 424 504 631 839 1147 1563 2022 2480 2841 2994
2870.0 3032 3004 2946 2871 2816 2810 2825 2835 2912 3141
2910.0 3581 4272 5200 6371 7696 8864 9679 10000 9563 8506
2950.0 7201 5900 4888 4342 4176 4172 4082 3788 3276 2590
2990.0 1917 1367 968 711 545 435 363 313 278 255
3030.0 243 233 223 217 207 197 193 189 185 182
3070.0 181 177 167 158 148 141 135 129 124 116
3110.0 118 112 105 102 93 86 85 86 83 78
3150.0 78 83 77 70 66 60 57 56 54 51
3190.0 46 39 40 39 32 29 32 34 27 23
3230.0 27 34 35 29 26 26 29 25 21 23
3270.0 20 14 16 19 19 12 11 13 14 12
3310.0 13 16 17 22 19 16 18 16 13 17
3350.0 16 15 15 18 22 16 16 19 16 16
3390.0 21 28 29 23 22 26 28 28 30 25
3430.0 23 21 22 24 22 23 23 29 28 20
3470.0 22 29 26 21 24 28 29 23 13 16
3510.0 21 20 21 25 25 26 22 20 17 10
3550.0 9 11 11 15 15 14 16 16 16 19
3590.0 20 19 20 26 35 40 46 65 101 155
3630.0 212 263 324 367 360 310 243 171 121 86
3670.0 51 39 36 32 26 22 25 25 21 17
3710.0 19 18 17 18 23 24 19 14 10 20
3750.0 27 27 26 21 20 23 21 26 30 29
3790.0 27 22 20 24 22 21 26 29 27 25
3830.0 32 37 36 33 34
##END=
