##TITLE=Pentaerythrityltetrabromide
##JCAMP-DX=4.24
##DATA TYPE=INFRARED SPECTRUM
##ORIGIN=NIST Mass Spectrometry Data Center
##OWNER=NIST Standard Reference Data Program
Collection (C) 2018 copyright by the U.S. Secretary of Commerce
on behalf of the United States of America. All rights reserved.
##CAS REGISTRY NO=3229-00-3
##MOLFORM=C 5 H 8 Br 4
##$NIST SOURCE=MSDC-IR
##SPECTROMETER/DATA SYSTEM=HP-GC/MS/IRD
##STATE=gas
##XUNITS=1/CM
##YUNITS=ABSORBANCE
##XFACTOR=1.0
##YFACTOR=0.000000900
##DELTAX=4.0
##FIRSTX=550.0
##LASTX=3846.0
##FIRSTY=0.000254
##MAXX=3846
##MINX=550
##MAXY=0.009
##MINY=0
##NPOINTS=825
##XYDATA=(X++(Y..Y))
550.0 282 250 185 180 170 282 276 369 384 338
590.0 512 810 1392 2367 3544 4245 3746 2382 1346 978
630.0 800 736 752 694 705 793 910 1142 1672 2640
670.0 3735 4369 4189 3450 2777 2585 2742 2849 2752 2480
710.0 2081 1616 1156 744 473 352 339 344 322 294
750.0 223 236 317 314 276 239 203 213 237 260
790.0 305 348 425 535 643 807 1194 1924 3350 5617
830.0 7973 9149 8609 6856 4718 2830 1616 1024 760 643
870.0 542 505 476 399 344 323 248 187 149 122
910.0 146 143 102 92 112 113 102 118 102 87
950.0 124 122 118 122 113 114 117 111 112 118
990.0 92 103 156 130 116 182 192 160 142 108
1030.0 99 95 20 2 42 52 92 144 152 150
1070.0 115 67 78 45 8 52 79 81 92 68
1110.0 93 133 105 144 170 157 180 206 258 302
1150.0 313 349 387 410 484 570 637 721 908 1138
1190.0 1296 1646 2534 3541 3821 3204 2676 3034 3730 3961
1230.0 3587 2933 2367 2025 1916 1914 1993 2240 2948 4506
1270.0 6852 8486 7913 6469 5539 4220 2332 1062 655 539
1310.0 472 417 393 370 327 307 304 308 317 302
1350.0 282 283 267 237 206 206 221 218 216 244
1390.0 296 343 410 527 783 1307 2320 3943 5915 8041
1430.0 10000 9839 6905 3765 1971 1198 773 522 411 338
1470.0 288 253 212 199 206 170 138 147 161 160
1510.0 147 155 147 135 140 131 113 94 129 140
1550.0 115 121 105 83 82 82 94 116 98 96
1590.0 124 131 123 126 112 104 109 109 100 79
1630.0 97 108 102 105 97 90 75 84 102 106
1670.0 105 102 92 77 80 73 84 106 103 93
1710.0 95 96 97 115 99 86 101 103 101 94
1750.0 75 72 84 73 78 95 90 88 104 112
1790.0 107 79 87 91 73 80 72 73 83 77
1830.0 56 57 64 67 86 80 67 78 77 57
1870.0 62 80 87 76 62 61 64 71 74 61
1910.0 69 67 37 33 54 66 63 61 74 81
1950.0 84 90 92 84 59 56 80 93 92 78
1990.0 82 92 84 106 127 121 112 116 111 103
2030.0 108 125 121 108 107 123 106 80 78 87
2070.0 94 87 75 76 89 97 80 67 81 96
2110.0 90 71 78 84 77 73 59 57 86 86
2150.0 77 86 83 76 72 74 74 60 62 87
2190.0 94 82 82 84 81 95 87 69 69 90
2230.0 78 66 77 64 70 98 123 110 95 112
2270.0 106 91 82 96 100 93 99 105 116 101
2310.0 89 91 74 64 66 90 84 63 59 56
2350.0 57 79 98 93 80 84 108 92 70 40
2390.0 11 33 46 47 59 63 72 76 56 42
2430.0 50 56 67 83 81 82 98 80 53 74
2470.0 84 73 77 81 74 76 100 98 76 57
2510.0 73 67 48 58 45 42 57 52 56 57
2550.0 54 50 52 67 44 11 26 29 46 48
2590.0 30 41 54 49 31 26 31 30 62 87
2630.0 77 78 81 80 72 42 42 67 60 45
2670.0 53 73 116 133 136 137 134 137 120 107
2710.0 109 92 91 95 76 61 56 72 52 38
2750.0 43 11 48 74 15 0 30 24 21 37
2790.0 63 68 41 41 64 80 73 83 87 96
2830.0 173 205 219 265 271 232 152 111 111 96
2870.0 102 115 96 80 63 60 87 106 109 96
2910.0 114 117 86 107 130 142 175 171 169 193
2950.0 217 251 375 586 962 1581 2293 2630 2127 1257
2990.0 625 315 187 122 129 134 133 113 150 192
3030.0 140 81 82 78 73 77 69 88 103 88
3070.0 70 75 72 47 42 75 105 108 80 53
3110.0 77 88 56 46 33 70 99 47 39 54
3150.0 60 100 103 89 68 68 109 125 117 75
3190.0 37 52 78 73 59 44 48 84 96 74
3230.0 73 92 54 41 41 53 101 102 111 78
3270.0 40 71 118 121 84 63 90 91 59 49
3310.0 32 49 75 87 108 110 56 39 73 71
3350.0 100 115 88 55 41 65 86 73 63 64
3390.0 56 68 110 91 49 88 78 1 30 71
3430.0 91 63 46 75 120 147 150 131 106 97
3470.0 94 94 92 121 112 76 72 65 70 81
3510.0 83 77 86 106 68 58 54 69 86 42
3550.0 62 103 120 113 59 73 128 96 104 155
3590.0 160 146 105 46 38 62 38 18 46 54
3630.0 81 97 50 69 98 93 120 143 120 96
3670.0 99 76 67 90 122 117 103 76 48 61
3710.0 68 80 107 105 126 132 109 92 134 133
3750.0 74 65 61 78 58 66 89 63 3 11
3790.0 12 31 89 70 59 74 75 74 71 116
3830.0 156 160 150 138 105
##END=
