##TITLE=p-Methoxybenzylidene p-aminophenol
##JCAMP-DX=4.24
##DATA TYPE=INFRARED SPECTRUM
##ORIGIN=EPA-IR VAPOR PHASE LIBRARY
##OWNER=SRD/NIST
Collection (C) 2018 copyright by the U.S. Secretary of Commerce
on behalf of the United States of America. All rights reserved.
##CAS REGISTRY NO=3230-39-5
##MOLFORM=C 14 H 13 N O 2
##$NIST SOURCE=MSDC-IR
##STATE=gas
##XUNITS=1/CM
##YUNITS=ABSORBANCE
##XFACTOR=1.
##YFACTOR=0.001
##DELTAX=1.92898
##FIRSTX=549.8
##LASTX=4000.7
##FIRSTY=4.199
##MAXX=4000.7
##MINX=549.759
##MAXY=0.073529
##MINY=0
##NPOINTS=1790
##XYDATA=(X++(Y..Y))
549.759 4.199 3.909 3.589 2.979 2.749 2.379 2.349 2.149 1.529 1.349
569.049 1.339 1.299 1.379 1.709 1.569 1.399 1.419 1.539 1.709 1.519
588.339 1.529 1.509 1.369 1.529 1.599 1.439 1.0413 0.9397 1.0316 0.9801
607.628 0.9809 1.0964 0.9342 0.5191 0.6219 0.5997 0.6177 0.7 0.4565 0.6489
626.918 0.7711 0.6349 0.7458 0.8357 0.817 0.7292 0.6524 0.6768 0.6709 0.6661
646.208 0.9194 1.0417 0.8391 0.6625 0.8723 0.8911 0.6502 0.6898 0.6791 0.536
665.498 0.5449 0.6065 0.4587 0.4614 0.5413 0.5703 0.6674 0.6302 0.4946 0.5806
684.787 0.4853 0.4332 0.5406 0.512 0.5698 0.4823 0.4505 0.5737 0.6181 0.5556
704.077 0.7393 0.8906 0.6482 0.619 0.7873 0.8222 0.7475 0.8736 0.7762 0.5401
723.367 0.5837 0.9131 1.1452 1.0611 1.1903 1.249 1.349 1.539 1.769 2.299
742.657 3.009 3.939 5.099 6.099 6.499 6.029 4.999 4.029 3.129 2.459
761.947 2.279 2.089 1.779 1.479 1.599 1.819 1.739 1.799 2.229 2.449
781.236 2.739 3.229 3.789 4.619 5.169 5.749 5.859 5.379 4.799 4.299
800.526 4.139 4.269 4.389 4.659 5.149 5.569 6.049 6.609 7.219 8.179
819.816 9.259 10.029 10.879 11.979 12.879 13.679 14.239 14.219 14.279 14.079
839.106 13.459 12.729 12.009 11.449 10.559 9.289 8.019 6.799 5.569 4.689
858.395 3.929 3.399 3.219 3.009 2.879 2.829 2.839 2.929 3.289 3.649
877.685 4.179 4.669 5.099 5.569 5.469 5.079 4.679 3.899 3.329 3.059
896.975 2.649 2.229 1.969 1.889 1.859 1.669 1.449 1.479 1.399 1.1056
916.265 1.0662 1.1383 1.152 1.289 1.349 1.289 1.209 1.1881 1.239 1.239
935.555 1.229 1.229 1.156 1.1175 1.1913 1.2002 1.1764 1.1583 1.1621 1.249
954.844 1.299 1.499 1.739 1.989 1.999 1.829 2.019 2.109 1.969 1.839
974.134 1.889 2.009 1.839 1.669 1.579 1.569 1.629 1.499 1.489 1.669
993.424 1.779 1.949 2.069 2.149 2.199 2.469 2.869 3.129 3.379 3.559
1012.714 3.739 3.799 3.669 4.009 4.789 5.529 6.119 6.509 7.329 8.309
1032.003 9.279 9.939 10.249 10.709 10.709 10.199 9.319 8.329 7.409 6.439
1051.293 5.499 4.639 4.029 3.489 3.319 3.269 3.149 2.679 2.389 2.329
1070.583 2.439 2.929 2.579 2.289 2.539 2.439 2.459 2.879 3.479 4.089
1089.873 4.679 4.839 5.079 5.299 4.589 4.489 4.619 4.449 4.599 4.569
1109.163 4.519 4.999 4.509 3.989 4.219 4.219 4.179 3.869 3.809 4.019
1128.452 3.899 3.579 3.069 3.249 3.959 4.229 4.199 4.269 4.479 4.909
1147.742 6.029 7.739 9.749 12.559 17.069 23.659 33.609 46.669 58.949 67.149
1167.032 70.469 67.679 59.559 50.799 43.829 38.299 34.459 32.649 31.949 30.979
1186.322 29.439 27.449 24.389 21.189 18.099 14.599 12.079 10.799 9.829 8.919
1205.611 8.599 8.709 8.989 9.409 9.629 9.739 10.239 10.949 11.499 12.299
1224.901 12.989 13.949 15.439 17.119 19.269 22.189 25.729 30.049 35.819 42.539
1244.191 49.949 58.129 65.779 71.189 73.529 71.299 64.329 54.659 43.759 33.509
1263.481 25.499 19.819 15.939 13.729 12.369 11.389 10.959 10.769 10.919 11.179
1282.771 11.269 11.649 12.029 12.349 12.889 13.429 13.949 14.429 15.039 15.559
1302.060 15.769 15.599 14.799 13.579 12.339 11.299 10.659 10.279 9.829 9.289
1321.350 8.579 7.809 7.089 6.519 6.199 6.059 5.919 5.659 5.339 4.929
1340.640 4.509 4.169 3.789 3.459 3.229 3.059 2.929 2.839 2.789 2.689
1359.930 2.609 2.599 2.629 2.609 2.549 2.479 2.379 2.289 2.169 2.059
1379.219 2.049 2.009 1.849 1.759 1.719 1.699 1.679 1.589 1.599 1.689
1398.509 1.769 1.859 1.989 2.169 2.389 2.699 3.209 3.809 4.569 5.479
1417.799 6.279 6.839 7.149 7.189 7.149 7.239 7.449 7.659 7.469 6.969
1437.089 6.279 5.679 5.439 5.509 5.699 5.699 5.609 5.479 5.269 5.199
1456.378 5.309 5.559 5.919 6.349 6.819 7.159 7.299 7.239 7.009 6.589
1475.668 6.159 5.879 5.789 5.869 6.159 6.789 7.649 8.929 10.889 13.499
1494.958 17.129 22.189 28.819 36.779 45.239 53.289 60.639 65.919 67.439 64.519
1514.248 57.309 46.909 35.389 25.419 17.969 13.329 10.409 8.479 7.129 6.159
1533.538 5.509 5.099 4.779 4.569 4.369 4.219 4.159 4.019 3.899 3.909
1552.827 3.879 3.839 3.989 4.179 4.379 4.779 5.419 6.169 7.129 8.439
1572.117 9.969 11.489 12.739 13.379 13.229 12.479 11.719 11.409 11.699 12.719
1591.407 14.469 16.689 19.229 22.239 25.519 28.459 30.759 31.979 31.889 30.499
1610.697 28.049 25.019 21.929 19.179 17.269 16.599 17.099 18.819 21.429 24.339
1629.986 26.649 27.449 26.129 22.749 18.549 14.559 11.269 9.029 7.509 6.389
1649.276 5.469 4.759 4.289 3.829 3.459 3.349 3.209 3.069 2.969 2.829
1668.566 2.749 2.739 2.629 2.499 2.479 2.409 2.219 2.069 1.949 1.809
1687.856 1.729 1.679 1.549 1.479 1.399 1.279 1.229 1.239 1.269 1.219
1707.146 1.1369 1.0789 1.1649 1.1858 1.0498 0.932 0.8877 0.8709 0.911 0.9829
1726.435 0.9537 0.9355 0.9431 0.9958 1.0738 1.0657 1.0512 1.0669 1.0405 1.0112
1745.725 1.0333 1.0004 0.9371 0.949 0.9858 0.9918 1.0527 1.0993 1.0311 0.9924
1765.015 0.9918 0.9612 0.9796 0.9407 0.9059 0.8922 0.8496 0.8132 0.7712 0.7567
1784.305 0.7441 0.7131 0.7261 0.7717 0.7619 0.7508 0.7609 0.7802 0.8112 0.8095
1803.594 0.8303 0.8758 0.7702 0.6946 0.7227 0.6999 0.6827 0.7202 0.7463 0.76
1822.884 0.7513 0.7022 0.7298 0.721 0.7412 0.8045 0.805 0.7979 0.8373 0.8754
1842.174 0.8513 0.7816 0.7663 0.8546 0.9327 0.926 0.9935 1.0831 1.0523 1.0722
1861.464 1.0721 1.0416 1.0826 1.0662 1.0314 1.0857 1.1223 1.0774 1.0142 0.993
1880.754 0.9813 1.014 1.0585 1.0398 1.015 1.0419 1.0442 0.9675 0.9074 0.9527
1900.043 0.9399 0.9263 0.9053 0.8639 0.8871 0.8533 0.8434 0.8559 0.8281 0.8428
1919.333 0.8791 0.8534 0.855 0.8816 0.8944 0.8635 0.8547 0.9082 0.8834 0.8356
1938.623 0.8178 0.7671 0.7441 0.763 0.7525 0.7204 0.7604 0.7454 0.7065 0.7164
1957.913 0.7386 0.7656 0.7001 0.6898 0.6838 0.6421 0.7094 0.7658 0.7185 0.6993
1977.202 0.7742 0.774 0.7567 0.7821 0.7983 0.8647 0.9203 0.9655 0.982 0.9532
1996.492 0.997 1.0341 0.9625 0.9586 1.0513 1.1156 1.1137 0.9803 0.9528 1.054
2015.782 1.0181 0.9869 0.9981 1.0423 0.9689 0.8212 0.8601 0.9336 1.0003 1.0539
2035.072 1.1284 1.1942 1.2033 1.259 1.279 1.309 1.289 1.219 1.2072 1.219
2054.362 1.1826 1.1678 1.1786 1.0769 1.0205 1.0648 1.0933 1.1115 1.0914 1.0451
2073.651 1.0195 0.9731 1.0082 1.0357 0.9249 0.8449 0.8701 0.9211 0.876 0.7413
2092.941 0.7367 0.7844 0.7209 0.6478 0.61 0.5879 0.5017 0.4799 0.4958 0.453
2112.231 0.4586 0.4246 0.378 0.4265 0.4399 0.3674 0.2936 0.28307 0.3362 0.4155
2131.521 0.3911 0.3751 0.3872 0.381 0.3931 0.3837 0.4225 0.3587 0.2744 0.27936
2150.810 0.26953 0.3328 0.3823 0.33 0.3507 0.3728 0.30656 0.27438 0.3227 0.3437
2170.100 0.3117 0.339 0.3647 0.3553 0.3772 0.3724 0.3461 0.3122 0.3098 0.3842
2189.390 0.3448 0.28599 0.4165 0.4147 0.3105 0.311 0.29393 0.30336 0.29542 0.25584
2208.680 0.3114 0.3445 0.3745 0.45 0.3912 0.3411 0.28207 0.3211 0.4365 0.3913
2227.970 0.3621 0.3565 0.331 0.3247 0.29201 0.3382 0.403 0.4324 0.4404 0.3737
2247.259 0.393 0.4567 0.5292 0.5358 0.5559 0.5712 0.5451 0.6036 0.6062 0.6377
2266.549 0.6972 0.6657 0.6119 0.6066 0.6376 0.6256 0.619 0.5627 0.4919 0.5275
2285.839 0.5716 0.5231 0.4984 0.5283 0.5553 0.5423 0.5748 0.6252 0.5998 0.5369
2305.129 0.4068 0.424 0.5164 0.4794 0.4273 0.3882 0.3778 0.3949 0.4236 0.4553
2324.418 0.4926 0.5604 0.5641 0.5232 0.5444 0.6247 0.6579 0.6959 0.6871 0.6215
2343.708 0.6255 0.6513 0.6534 0.6452 0.6344 0.5927 0.5521 0.5555 0.5508 0.4837
2362.998 0.3911 0.3517 0.4177 0.5109 0.5308 0.5322 0.4963 0.4287 0.5087 0.5821
2382.288 0.5174 0.5311 0.5852 0.6071 0.5985 0.6401 0.6389 0.6043 0.6546 0.6662
2401.578 0.6928 0.6451 0.6808 0.7931 0.8297 0.8301 0.8166 0.895 0.9334 0.9018
2420.867 0.9566 0.9959 0.9708 0.9271 0.8636 0.8027 0.6959 0.6608 0.6123 0.5504
2440.157 0.6286 0.6522 0.6086 0.5888 0.5787 0.5418 0.5252 0.557 0.5608 0.5767
2459.447 0.5935 0.6526 0.6459 0.5333 0.5905 0.6683 0.6445 0.6422 0.6503 0.6684
2478.737 0.7523 0.814 0.8467 0.8544 0.8025 0.8431 0.8454 0.8013 0.8048 0.7557
2498.026 0.7576 0.773 0.8092 0.8565 0.8431 0.8297 0.8008 0.7963 0.7733 0.8154
2517.316 0.8648 0.8218 0.79 0.7659 0.7797 0.7279 0.6603 0.7644 0.8624 0.8178
2536.606 0.7605 0.7765 0.8097 0.9083 0.9337 0.9446 0.9981 0.9733 0.9429 0.9516
2555.896 0.963 0.8433 0.8175 0.865 0.7806 0.6859 0.6278 0.6379 0.602 0.6014
2575.186 0.6693 0.644 0.5747 0.5385 0.517 0.5606 0.6327 0.6207 0.5018 0.5078
2594.475 0.607 0.5414 0.549 0.678 0.7446 0.742 0.7324 0.5703 0.4919 0.5095
2613.765 0.472 0.4992 0.4824 0.4573 0.4525 0.4054 0.3715 0.3897 0.4281 0.4348
2633.055 0.5063 0.5304 0.4283 0.404 0.4099 0.4875 0.5748 0.5442 0.5477 0.5166
2652.345 0.4166 0.4438 0.5168 0.4437 0.4104 0.3519 0.309 0.412 0.5036 0.467
2671.634 0.4015 0.4574 0.4426 0.3756 0.4029 0.4679 0.4717 0.4505 0.4404 0.4538
2690.924 0.4869 0.5168 0.4846 0.5073 0.5511 0.5522 0.549 0.524 0.5457 0.5188
2710.214 0.386 0.3676 0.4953 0.5495 0.4554 0.424 0.4984 0.5449 0.4945 0.4053
2729.504 0.4147 0.561 0.6522 0.5985 0.5824 0.563 0.6069 0.6097 0.5604 0.6545
2748.794 0.6415 0.5383 0.6105 0.655 0.7052 0.7024 0.6358 0.7128 0.8084 0.8265
2768.083 0.8067 0.7506 0.6669 0.7021 0.768 0.7976 0.6508 0.5943 0.6932 0.72
2787.373 0.7544 0.8159 0.782 0.7234 0.7482 0.7942 0.8254 0.8796 0.9294 1.0188
2806.663 1.1457 1.2 1.239 1.329 1.439 1.449 1.489 1.599 1.709 1.809
2825.953 1.889 2.059 2.319 2.549 2.819 3.249 3.809 4.509 5.369 6.199
2845.242 6.829 7.189 7.209 6.959 6.489 6.069 5.769 5.399 5.159 5.059
2864.532 4.949 4.809 4.629 4.649 4.589 4.409 4.269 4.059 3.919 3.789
2883.822 3.619 3.359 3.139 3.049 2.929 2.839 2.759 2.729 2.749 2.849
2903.112 3.009 3.169 3.259 3.369 3.579 3.659 3.709 3.769 3.739 3.799
2922.401 3.809 3.729 3.679 3.689 3.729 3.849 4.229 4.589 4.889 5.349
2941.691 5.669 5.859 5.979 5.959 5.909 5.769 5.599 5.429 5.299 5.119
2960.981 4.959 4.829 4.569 4.319 4.169 3.859 3.499 3.359 3.269 3.129
2980.271 3.019 2.949 2.999 3.069 3.179 3.389 3.599 3.829 4.119 4.529
2999.561 4.939 5.589 6.259 6.879 7.639 8.179 8.259 7.929 7.229 6.399
3018.850 5.709 5.209 4.919 4.919 5.239 5.619 6.099 6.499 6.729 6.789
3038.140 6.419 5.899 5.219 4.349 3.629 3.259 3.099 3.049 2.939 2.889
3057.430 2.999 3.089 3.219 3.329 3.479 3.639 3.779 4.089 4.399 4.579
3076.720 4.639 4.439 4.029 3.569 3.189 2.999 2.769 2.609 2.619 2.559
3096.009 2.459 2.399 2.299 2.219 2.129 1.919 1.879 1.829 1.729 1.759
3115.299 1.699 1.529 1.409 1.299 1.159 1.0139 0.9669 0.8021 0.6419 0.7341
3134.589 0.6676 0.6196 0.5808 0.497 0.5983 0.7948 0.8001 0.7874 0.7237 0.6031
3153.879 0.5929 0.4626 0.4226 0.523 0.5149 0.4082 0.4261 0.5862 0.6025 0.5224
3173.169 0.4737 0.4212 0.4631 0.6097 0.6883 0.597 0.5066 0.5432 0.4378 0.30438
3192.458 0.3506 0.4005 0.3959 0.3311 0.5387 0.7459 0.568 0.4964 0.5356 0.5951
3211.748 0.5866 0.5298 0.6501 0.6452 0.5218 0.4812 0.4739 0.5501 0.5546 0.5319
3231.038 0.7044 0.7187 0.5911 0.4822 0.5835 0.6708 0.6204 0.6109 0.5627 0.6012
3250.328 0.6169 0.5792 0.4368 0.3728 0.5168 0.4971 0.28222 0.30413 0.3602 0.3353
3269.617 0.29683 0.29222 0.26131 0.2385 0.28034 0.29252 0.3485 0.3267 0.24246 0.215029
3288.907 0.3644 0.3987 0.3192 0.3434 0.313 0.1506 0.099 0.24112 0.209028 0.26515
3308.197 0.3918 0.3384 0.3653 0.3577 0.27323 0.1905 0.3232 0.3692 0.3307 0.3401
3327.487 0.146 0.1845 0.27836 0.3727 0.4046 0.30292 0.25028 0.1516 0.25768 0.3102
3346.777 0.25348 0.4447 0.6186 0.4194 0.309 0.3884 0.2869 0.27529 0.4584 0.4688
3366.066 0.3954 0.30542 0.30189 0.3956 0.3726 0.27502 0.215071 0.3865 0.3818 0.3627
3385.356 0.4939 0.5241 0.5396 0.593 0.5939 0.392 0.3615 0.5221 0.5412 0.4084
3404.646 0.3491 0.3257 0.181 0.1969 0.278 0.30747 0.4702 0.483 0.352 0.3765
3423.936 0.4122 0.3552 0.3643 0.20302 0.1287 0.27225 0.21931 0.1922 0.216242 0.25087
3443.225 0.25602 0.1601 0.25585 0.4046 0.3401 0.3392 0.3938 0.3424 0.24696 0.1577
3462.515 0.1996 0.3593 0.3225 0.3407 0.3706 0.23637 0.1191 0.1444 0.27302 0.23294
3481.805 0.1384 0.1789 0.24053 0.19926 0.22024 0.3315 0.29065 0.20217 0.27206 0.4335
3501.095 0.3336 0.1849 0.2404 0.24748 0.23639 0.20689 0.213992 0.3743 0.4202 0.3517
3520.385 0.1858 0.105 0.1977 0.1706 0.22141 0.1594 0.1095 0.30151 0.26355 0.13
3539.674 0.22018 0.409 0.3939 0.30189 0.29921 0.28089 0.27306 0.4021 0.4911 0.30161
3558.964 0.1941 0.1629 0.1281 0.1135 0.24551 0.3253 0.4069 0.3752 0.23551 0.24515
3578.254 0.25425 0.3489 0.25247 0.20275 0.3801 0.3608 0.3879 0.3846 0.316 0.3752
3597.544 0.3498 0.4219 0.4881 0.4254 0.5079 0.4811 0.4153 0.5659 0.5624 0.5361
3616.833 0.6622 0.6648 0.7558 0.9765 1.0521 1.0837 1.1991 1.439 1.899 2.479
3636.123 2.989 3.719 4.709 6.059 7.809 9.899 12.399 15.029 17.549 18.629
3655.413 17.309 14.619 10.979 6.999 4.249 2.819 2.099 1.709 1.319 1.125
3674.703 1.0709 0.9962 0.8522 0.7441 0.6892 0.5643 0.691 0.6724 0.4833 0.462
3693.993 0.4607 0.4736 0.3663 0.3961 0.4291 0.26316 0.3116 0.4471 0.4082 0.4549
3713.282 0.43 0.3528 0.25241 0.24288 0.3309 0.3108 0.26127 0.1875 0.25403 0.29407
3732.572 0.25936 0.334 0.3779 0.1457 0.1545 0.4218 0.4558 0.3559 0.26067 0.24976
3751.862 0.20023 0.25573 0.3618 0.28679 0.16 0.1733 0.4085 0.4239 0.26889 0.23214
3771.152 0.1645 0.24811 0.3411 0.26326 0.24972 0.3176 0.24232 0.23485 0.27872 0.210513
3790.441 0.27419 0.3721 0.3644 0.24608 0.109 0.1739 0.3419 0.4369 0.24065 0.094
3809.731 0.3336 0.4349 0.3591 0.3632 0.4809 0.5039 0.4247 0.4114 0.3941 0.367
3829.021 0.4753 0.413 0.3372 0.4587 0.4607 0.3622 0.3194 0.358 0.3207 0.4775
3848.311 0.5356 0.4194 0.3103 0.30733 0.3727 0.25951 0.3617 0.4867 0.5399 0.4136
3867.601 0.29984 0.4462 0.6116 0.5449 0.439 0.3895 0.4208 0.4714 0.3333 0.24973
3886.890 0.25948 0.22014 0.29043 0.4859 0.436 0.29841 0.24592 0.21997 0.1967 0.075
3906.180 0 0.23134 0.3832 0.4 0.3963 0.3793 0.4151 0.27995 0.25537 0.3165
3925.470 0.429 0.5498 0.4802 0.23039 0.026 0.053 0.056 0.129 0.1929 0.344
3944.760 0.4017 0.25037 0.1754 0.3181 0.5027 0.4262 0.30773 0.3274 0.4468 0.5356
3964.049 0.3569 0.25473 0.25437 0.25801 0.23367 0.1823 0.3384 0.3315 0.25866 0.27381
3983.339 0.3172 0.3523 0.3438 0.29503 0.3438 0.4913 0.4503 0.30512 0.406 0.479
##END=
