##TITLE=1,1-Diethylproparagyl amine
##JCAMP-DX=4.24
##DATA TYPE=INFRARED SPECTRUM
##ORIGIN=NIST Mass Spectrometry Data Center
##OWNER=NIST Standard Reference Data Program
Collection (C) 2018 copyright by the U.S. Secretary of Commerce
on behalf of the United States of America. All rights reserved.
##CAS REGISTRY NO=3234-64-8
##MOLFORM=C 7 H 13 N
##$NIST SOURCE=MSDC-IR
##SPECTROMETER/DATA SYSTEM=HP-GC/MS/IRD
##STATE=gas
##XUNITS=1/CM
##YUNITS=ABSORBANCE
##XFACTOR=1.0
##YFACTOR=0.000001400
##DELTAX=4.0
##FIRSTX=550.0
##LASTX=3846.0
##FIRSTY=0.001484
##MAXX=3846
##MINX=550
##MAXY=0.014
##MINY=0
##NPOINTS=825
##XYDATA=(X++(Y..Y))
550.0 1060 873 695 633 582 531 515 520 437 416
590.0 447 440 526 650 803 1164 1768 2578 3712 5669
630.0 8168 10000 9660 7510 5396 3755 2592 1829 1260 888
670.0 701 576 465 432 442 420 451 450 419 462
710.0 512 543 605 677 730 740 764 837 927 1057
750.0 1208 1344 1475 1635 1783 1898 1981 2010 1997 1988
790.0 1976 1960 2023 2094 2125 2194 2318 2458 2628 2832
830.0 2965 3053 3027 2813 2501 2114 1742 1381 1056 818
870.0 615 475 405 366 348 371 455 563 687 868
910.0 1077 1227 1416 1587 1682 1762 1757 1727 1636 1446
950.0 1275 1126 1012 920 859 835 824 840 842 811
990.0 772 704 618 517 385 305 267 249 279 302
1030.0 325 349 347 334 359 372 334 324 309 255
1070.0 229 236 212 142 110 114 121 113 98 120
1110.0 159 188 191 207 282 331 377 503 629 741
1150.0 853 974 1078 1126 1159 1139 1050 904 765 647
1190.0 535 465 388 298 245 228 239 274 310 387
1230.0 553 842 1274 1798 2218 2523 2594 2369 2147 1778
1270.0 1295 923 710 608 568 555 536 525 508 494
1310.0 490 482 485 494 481 483 496 499 500 503
1350.0 475 445 418 390 421 501 586 663 742 755
1390.0 670 571 440 307 213 150 127 152 196 269
1430.0 375 497 659 864 1055 1228 1357 1416 1441 1396
1470.0 1228 1032 883 735 568 440 357 300 271 249
1510.0 240 234 219 235 278 287 304 346 394 432
1550.0 470 506 522 546 556 576 609 639 664 688
1590.0 735 782 845 900 948 1000 1026 1019 1004 976
1630.0 921 849 766 676 599 518 456 408 338 280
1670.0 245 198 154 114 86 81 69 49 42 39
1710.0 32 8 0 18 18 13 20 22 28 26
1750.0 19 20 20 22 24 29 19 17 14 13
1790.0 18 29 22 26 31 23 23 20 25 29
1830.0 26 33 39 41 38 45 53 34 17 29
1870.0 41 51 40 41 41 25 44 55 57 57
1910.0 61 69 49 37 50 55 44 45 46 56
1950.0 69 58 56 61 67 70 72 75 71 73
1990.0 94 88 80 72 70 83 64 57 69 64
2030.0 64 73 86 94 90 89 105 110 97 101
2070.0 116 129 149 171 177 189 216 221 217 224
2110.0 223 207 189 181 167 138 133 137 121 117
2150.0 114 115 120 120 116 104 117 133 127 127
2190.0 117 109 125 136 134 132 119 127 140 129
2230.0 130 127 124 131 133 133 128 125 130 130
2270.0 128 129 132 134 138 139 143 138 136 122
2310.0 115 138 146 136 123 127 133 132 128 120
2350.0 131 126 124 126 133 140 147 153 138 139
2390.0 145 133 124 126 130 125 125 134 139 143
2430.0 147 147 139 134 135 139 122 115 126 117
2470.0 109 109 119 137 136 132 126 112 106 107
2510.0 108 112 118 123 134 125 112 127 137 123
2550.0 115 112 116 125 133 144 139 136 122 111
2590.0 118 134 129 123 144 151 155 161 164 145
2630.0 159 180 175 183 177 177 183 178 179 199
2670.0 205 207 210 200 198 191 188 197 195 180
2710.0 179 198 198 188 204 224 217 232 273 271
2750.0 267 288 310 316 323 317 307 306 302 327
2790.0 322 319 345 362 364 383 414 435 464 484
2830.0 527 585 668 789 927 1106 1296 1464 1649 1872
2870.0 2134 2417 2726 3013 3254 3398 3366 3256 3179 3132
2910.0 3180 3397 3844 4439 5143 5873 6488 6938 7156 7125
2950.0 6926 6739 6705 6924 7365 8001 8604 8515 7785 6767
2990.0 5468 4090 2932 2111 1569 1212 968 819 718 636
3030.0 582 554 525 504 493 473 475 515 540 526
3070.0 527 530 508 503 501 467 410 384 358 327
3110.0 316 324 329 331 332 326 319 312 309 305
3150.0 293 262 250 256 263 262 258 280 270 258
3190.0 285 285 250 245 245 227 208 198 205 197
3230.0 167 174 206 219 249 304 316 315 359 405
3270.0 454 513 610 741 916 1149 1357 1607 1953 2385
3310.0 2905 3356 3645 3983 3886 3397 2946 2266 1511 1003
3350.0 701 526 408 300 235 228 215 215 221 228
3390.0 245 254 258 244 234 223 214 241 221 189
3430.0 221 223 196 192 184 154 148 177 180 159
3470.0 146 132 128 150 142 135 136 150 168 165
3510.0 182 168 148 141 126 152 170 146 165 191
3550.0 187 156 167 190 171 155 157 141 114 131
3590.0 159 172 179 173 167 165 162 155 165 192
3630.0 167 129 125 143 159 130 104 111 141 144
3670.0 125 116 124 128 138 142 125 133 144 148
3710.0 158 179 192 176 188 203 199 192 203 193
3750.0 127 131 165 160 143 134 132 141 131 130
3790.0 164 167 138 106 111 149 159 123 110 145
3830.0 143 107 125 192 189
##END=
