##TITLE=DL-.alpha.-Methylbenzyl isothiocyanate
##JCAMP-DX=4.24
##DATA TYPE=INFRARED SPECTRUM
##ORIGIN=EPA-IR VAPOR PHASE LIBRARY
##OWNER=SRD/NIST
Collection (C) 2018 copyright by the U.S. Secretary of Commerce
on behalf of the United States of America. All rights reserved.
##CAS REGISTRY NO=32393-32-1
##MOLFORM=C 9 H 9 N S
##$NIST SOURCE=MSDC-IR
##STATE=gas
##XUNITS=1/CM
##YUNITS=ABSORBANCE
##XFACTOR=1.
##YFACTOR=0.001
##DELTAX=1.92898
##FIRSTX=549.8
##LASTX=4000.7
##FIRSTY=27.708
##MAXX=4000.7
##MINX=549.759
##MAXY=0.466948
##MINY=0
##NPOINTS=1790
##XYDATA=(X++(Y..Y))
549.759 27.708 27.038 26.428 26.228 26.098 25.828 25.538 25.478 25.438 25.618
569.049 25.228 24.638 24.338 23.828 23.068 22.388 21.578 21.078 21.148 20.728
588.339 20.098 19.618 19.078 18.428 17.948 17.148 16.288 15.298 14.328 13.648
607.628 13.158 12.708 12.238 11.968 11.618 11.288 11.148 10.788 10.348 10.158
626.918 9.948 9.828 9.668 9.388 9.228 8.888 8.568 8.548 8.468 8.338
646.208 8.368 8.288 8.438 8.918 9.448 9.958 10.318 11.048 12.108 13.298
665.498 14.788 16.478 18.198 20.218 22.808 25.688 28.688 32.318 36.418 40.808
684.787 45.798 51.018 56.248 61.488 66.038 69.348 70.618 69.338 66.478 62.538
704.077 57.398 52.148 46.978 41.868 37.348 33.198 29.588 26.528 23.918 21.818
723.367 20.118 18.808 17.998 17.138 16.488 16.268 15.938 15.918 16.368 16.978
742.657 17.598 18.368 19.498 20.838 22.078 23.108 23.878 24.268 24.048 23.308
761.947 22.268 21.278 20.448 19.468 18.328 17.428 16.618 15.778 15.048 14.168
781.236 12.858 11.418 10.028 8.618 7.428 6.408 5.328 4.478 4.128 3.868
800.526 3.568 3.388 3.268 2.958 2.598 2.078 1.728 1.688 1.668 1.848
819.816 2.018 1.858 1.538 1.518 1.528 1.468 1.428 1.1445 1.185 1.3244
839.106 1.438 1.478 1.2361 1.196 1.2414 1.0547 0.806 0.8547 1.0965 1.4064
858.395 1.2039 1.156 1.528 1.668 1.588 1.448 1.568 1.688 1.738 1.748
877.685 1.768 2.048 2.448 2.568 2.778 3.038 2.998 3.108 3.478 3.678
896.975 3.738 4.018 4.088 4.108 4.318 4.418 4.548 4.628 4.628 4.508
916.265 4.188 4.128 4.238 4.288 4.428 4.488 4.698 5.068 5.408 6.048
935.555 6.888 7.758 8.828 9.958 11.048 12.198 13.258 14.248 14.928 15.088
954.844 14.968 14.618 14.118 13.388 12.328 11.208 10.148 9.098 8.078 7.388
974.134 6.908 6.428 6.198 5.678 5.248 5.218 5.208 5.108 4.938 5.048
993.424 5.268 5.588 5.908 6.218 6.778 7.648 8.508 9.608 11.888 15.118
1012.714 18.878 23.578 28.648 33.018 35.618 36.358 36.268 35.548 33.728 30.028
1032.003 24.838 19.998 16.768 14.928 13.798 12.758 11.818 10.838 10.648 10.648
1051.293 10.278 10.638 10.718 10.548 10.638 11.048 11.488 11.668 11.908 11.598
1070.583 11.028 10.858 10.818 10.908 10.828 10.428 10.438 10.158 9.498 9.578
1089.873 9.908 10.298 10.678 10.688 10.838 11.508 12.558 13.058 12.828 13.078
1109.163 13.438 13.358 13.518 13.568 13.128 12.968 12.738 12.208 11.458 10.658
1128.452 9.868 9.038 8.078 7.298 6.588 5.938 5.518 5.168 4.838 4.488
1147.742 4.268 4.068 3.998 3.918 3.748 3.648 3.738 3.708 3.708 3.708
1167.032 3.738 3.848 4.068 4.668 5.388 6.258 7.048 7.338 7.668 8.168
1186.322 8.308 8.438 8.818 8.998 9.358 9.788 10.268 10.958 11.098 10.648
1205.611 10.018 9.518 8.878 7.718 6.428 5.688 5.188 4.798 4.418 3.848
1224.901 3.968 4.118 4.198 4.558 4.758 4.888 4.908 5.198 5.338 5.318
1244.191 5.558 5.678 5.548 6.118 6.888 7.488 8.348 9.158 10.178 11.358
1263.481 13.008 15.018 16.968 19.068 21.428 23.538 25.008 26.368 27.628 28.718
1282.771 29.578 30.598 32.018 33.628 35.908 38.868 42.308 46.158 50.228 54.108
1302.060 57.638 60.688 63.498 66.458 69.318 71.668 73.258 73.938 73.808 72.788
1321.350 70.668 67.688 64.058 59.958 55.488 50.878 46.848 44.268 43.518 43.968
1340.640 44.668 44.728 43.878 42.558 40.688 37.758 33.538 28.258 23.038 18.898
1359.930 16.088 14.418 13.518 13.198 13.378 13.958 14.798 15.708 16.578 17.298
1379.219 17.728 17.518 16.848 16.018 14.868 13.368 11.748 10.308 8.948 7.658
1398.509 6.678 5.918 5.418 5.048 4.798 4.668 4.618 4.618 4.738 4.918
1417.799 5.118 5.438 5.818 6.208 6.708 7.338 8.078 8.938 9.918 11.088
1437.089 12.498 14.148 16.018 18.088 20.398 22.778 24.838 26.378 27.088 26.998
1456.378 26.398 25.228 23.358 20.618 17.568 14.838 12.588 10.878 9.708 8.898
1475.668 8.418 8.248 8.448 9.098 10.268 11.918 13.728 15.448 16.758 17.338
1494.958 17.288 16.768 15.778 14.198 12.048 9.758 7.748 6.248 5.278 4.558
1514.248 4.108 3.788 3.538 3.418 3.348 3.268 3.168 3.158 3.118 3.068
1533.538 3.038 2.908 2.798 2.688 2.538 2.518 2.508 2.468 2.448 2.428
1552.827 2.408 2.398 2.398 2.408 2.558 2.598 2.638 2.798 2.858 2.998
1572.117 3.228 3.488 3.808 4.178 4.568 4.968 5.518 6.118 6.718 7.248
1591.407 7.708 8.108 8.438 8.698 8.838 8.798 8.558 8.218 7.728 7.088
1610.697 6.368 5.618 5.068 4.508 3.858 3.408 3.128 2.858 2.628 2.518
1629.986 2.418 2.358 2.248 2.198 2.198 2.148 2.128 2.108 2.168 2.288
1649.276 2.318 2.298 2.308 2.388 2.478 2.488 2.558 2.708 2.738 2.628
1668.566 2.628 2.718 2.728 2.758 2.658 2.498 2.418 2.388 2.368 2.278
1687.856 2.198 2.068 1.938 1.958 1.988 2.008 2.078 2.128 2.098 2.078
1707.146 2.148 2.258 2.268 2.338 2.378 2.378 2.458 2.558 2.718 2.818
1726.435 2.878 3.008 3.158 3.218 3.318 3.408 3.368 3.378 3.408 3.348
1745.725 3.278 3.168 3.118 3.038 2.878 2.758 2.598 2.508 2.488 2.448
1765.015 2.448 2.448 2.468 2.548 2.618 2.738 2.898 3.078 3.278 3.608
1784.305 4.008 4.378 4.768 5.148 5.408 5.498 5.468 5.368 5.188 4.818
1803.594 4.428 4.068 3.728 3.498 3.298 3.168 3.108 3.028 2.948 2.918
1822.884 2.848 2.738 2.668 2.678 2.728 2.748 2.748 2.768 2.858 2.968
1842.174 3.118 3.258 3.408 3.588 3.798 4.048 4.338 4.588 4.858 5.198
1861.464 5.548 5.908 6.358 6.678 6.908 7.248 7.548 7.888 8.318 8.808
1880.754 9.248 9.698 10.198 10.598 10.908 11.278 11.668 11.988 12.348 12.718
1900.043 13.088 13.598 14.238 14.938 15.698 16.508 17.378 18.308 19.318 20.428
1919.333 21.598 22.818 24.178 25.608 27.148 28.808 30.578 32.488 34.558 36.788
1938.623 39.108 41.488 44.058 46.788 49.668 52.718 55.928 59.368 63.068 66.858
1957.913 70.788 74.898 79.148 83.488 87.868 92.388 97.068 101.748 106.498 111.628
1977.202 117.038 122.568 128.398 134.518 140.998 147.988 155.498 163.548 172.068 181.268
1996.492 191.108 201.508 212.688 224.638 237.118 250.058 263.678 277.788 292.198 306.758
2015.782 321.488 336.318 350.928 365.278 379.258 392.828 405.688 417.528 428.448 438.368
2035.072 447.128 454.368 459.958 464.138 466.488 466.948 465.768 462.898 458.678 453.528
2054.362 447.428 440.538 433.128 425.238 416.748 408.548 400.568 392.008 382.738 372.888
2073.651 362.528 351.528 339.628 326.328 311.588 295.788 279.198 262.288 245.528 229.328
2092.941 214.178 200.268 187.758 176.588 166.818 158.468 151.318 145.388 140.538 136.498
2112.231 133.368 131.038 129.398 128.358 127.768 127.468 127.248 127.088 126.958 126.658
2131.521 126.128 125.378 124.388 123.128 121.638 120.048 118.068 115.918 113.648 110.968
2150.810 108.198 105.178 101.798 98.158 94.198 90.088 85.848 81.348 76.818 72.248
2170.100 67.608 63.238 59.088 55.168 51.598 48.198 45.178 42.548 40.208 38.198
2189.390 36.378 34.718 33.308 32.178 31.228 30.388 29.578 28.898 28.288 27.658
2208.680 27.048 26.368 25.708 24.998 24.328 23.778 23.238 22.698 22.188 21.698
2227.970 21.208 20.728 20.248 19.668 19.078 18.578 17.978 17.338 16.738 16.148
2247.259 15.528 14.798 14.118 13.468 12.848 12.218 11.508 10.868 10.258 9.688
2266.549 9.098 8.588 8.088 7.598 7.198 6.838 6.528 6.158 5.798 5.508
2285.839 5.238 4.968 4.788 4.658 4.538 4.418 4.198 3.998 3.938 3.938
2305.129 3.928 3.978 4.058 4.068 4.048 4.048 4.058 4.108 4.098 4.038
2324.418 3.978 3.888 3.768 3.648 3.548 3.468 3.408 3.328 3.248 3.188
2343.708 3.088 3.058 3.028 2.948 2.888 2.738 2.688 2.658 2.548 2.518
2362.998 2.448 2.378 2.408 2.448 2.448 2.388 2.358 2.338 2.248 2.228
2382.288 2.268 2.328 2.328 2.218 2.158 2.178 2.148 2.048 2.038 2.108
2401.578 2.108 2.058 2.068 2.098 2.048 1.988 1.958 1.988 1.988 1.928
2420.867 1.928 1.938 1.948 1.978 1.998 2.038 1.948 1.838 1.828 1.898
2440.157 1.998 2.078 2.128 2.138 2.138 2.108 2.078 2.088 2.178 2.268
2459.447 2.278 2.208 2.128 2.218 2.328 2.268 2.208 2.208 2.228 2.308
2478.737 2.288 2.308 2.398 2.368 2.338 2.418 2.438 2.378 2.378 2.328
2498.026 2.238 2.298 2.368 2.388 2.418 2.418 2.358 2.438 2.528 2.488
2517.316 2.478 2.518 2.608 2.698 2.758 2.808 2.808 2.848 3.028 2.998
2536.606 2.958 3.038 3.098 3.228 3.358 3.358 3.358 3.548 3.648 3.648
2555.896 3.698 3.688 3.678 3.778 3.938 3.918 3.878 3.978 3.988 3.958
2575.186 4.038 4.058 3.958 3.918 3.828 3.778 3.718 3.598 3.548 3.488
2594.475 3.428 3.398 3.268 3.108 3.028 2.948 2.948 2.928 2.828 2.738
2613.765 2.608 2.608 2.618 2.538 2.448 2.448 2.468 2.458 2.528 2.598
2633.055 2.638 2.678 2.658 2.678 2.698 2.628 2.658 2.628 2.468 2.398
2652.345 2.378 2.448 2.468 2.458 2.468 2.418 2.398 2.438 2.538 2.538
2671.634 2.468 2.478 2.458 2.498 2.528 2.538 2.658 2.708 2.698 2.648
2690.924 2.688 2.788 2.838 2.878 2.868 2.898 2.968 3.158 3.198 3.198
2710.214 3.388 3.498 3.578 3.718 3.728 3.718 3.968 4.158 4.198 4.258
2729.504 4.298 4.418 4.498 4.518 4.688 4.798 4.818 4.858 4.988 4.958
2748.794 4.878 4.938 4.968 4.898 4.898 5.008 5.008 4.988 4.908 4.808
2768.083 4.728 4.648 4.508 4.438 4.368 4.228 4.148 4.068 3.968 3.918
2787.373 3.948 3.858 3.728 3.568 3.458 3.488 3.538 3.568 3.468 3.388
2806.663 3.368 3.248 3.178 3.148 3.148 3.128 3.078 3.038 3.028 3.018
2825.953 3.008 3.008 2.968 2.938 2.928 2.888 2.778 2.708 2.758 2.778
2845.242 2.748 2.728 2.808 2.898 2.938 3.098 3.238 3.308 3.368 3.628
2864.532 4.018 4.318 4.658 5.098 5.538 5.928 6.388 6.798 7.068 7.398
2883.822 7.618 7.828 8.108 8.288 8.438 8.608 9.008 9.598 10.188 10.908
2903.112 11.678 12.648 13.758 14.668 15.498 16.288 17.058 17.598 17.958 18.228
2922.401 18.088 17.908 17.908 17.868 17.848 18.088 18.538 18.858 19.188 19.218
2941.691 18.868 18.338 17.498 16.498 15.398 14.308 12.958 11.668 10.508 9.368
2960.981 8.468 7.888 7.818 7.968 8.258 9.068 10.538 12.498 15.238 19.128
2980.271 24.278 31.598 40.778 49.308 54.758 57.118 58.318 57.698 54.258 47.728
2999.561 38.258 28.858 21.888 17.488 14.658 12.768 11.828 11.448 11.488 12.088
3018.850 13.008 14.208 15.668 17.328 19.168 21.118 22.918 24.648 26.098 26.958
3038.140 27.298 27.138 26.698 25.758 24.438 22.908 21.288 19.968 19.198 18.978
3057.430 19.218 19.828 21.008 22.868 25.228 27.918 30.308 31.918 32.968 33.238
3076.720 32.708 31.518 29.638 27.218 24.698 22.428 20.478 19.148 18.088 16.958
3096.009 15.888 14.898 14.058 13.168 12.228 11.268 10.428 9.718 8.938 8.268
3115.299 7.488 6.668 5.898 4.998 4.278 3.708 3.208 2.908 2.558 2.218
3134.589 1.998 1.758 1.428 1.3286 1.418 1.438 1.3004 1.2252 1.2443 1.166
3153.879 1.1516 1.2229 1.1235 1.0652 1.1235 1.048 1.1144 1.1643 1.0041 0.9522
3173.169 1.0261 1.1087 1.0769 0.9517 0.785 0.7416 0.946 1.0091 0.8873 0.8865
3192.458 0.9239 0.9193 0.8127 0.7426 0.7105 0.7319 0.8252 0.9004 0.8188 0.684
3211.748 0.5543 0.5317 0.6641 0.7 0.7451 0.6586 0.5447 0.5261 0.5856 0.5379
3231.038 0.49626 0.5872 0.6468 0.6307 0.6052 0.6062 0.5861 0.6625 0.6683 0.6136
3250.328 0.49197 0.46607 0.51328 0.43638 0.426192 0.274 0.09 0.206 0.311 0.258
3269.617 0.26 0.179 0.142 0.235 0.3232 0.3194 0.3882 0.43482 0.3951 0.48477
3288.907 0.3518 0.192 0.181 0.212 0.254 0.288 0.31 0.272 0.214 0.219
3308.197 0.201 0.086 0.041 0.213 0.3606 0.274 0.174 0.158 0.213 0.065
3327.487 0.054 0.171 0.173 0.3181 0.318 0.224 0.296 0.3581 0.3872 0.105
3346.777 0 0.227 0.301 0.3771 0.316 0.223 0.187 0.083 0.124 0.27
3366.066 0.18 0.096 0.154 0.249 0.236 0.264 0.298 0.287 0.3682 0.3308
3385.356 0.285 0.3333 0.296 0.255 0.199 0.125 0.19 0.269 0.3302 0.3953
3404.646 0.289 0.3704 0.4159 0.135 0.148 0.3521 0.5456 0.6675 0.5446 0.223
3423.936 0.191 0.231 0.3623 0.5456 0.46911 0.40851 0.3345 0.3738 0.3501 0.295
3443.225 0.291 0.293 0.3943 0.44878 0.3716 0.426215 0.5491 0.4353 0.3422 0.273
3462.515 0.271 0.284 0.3252 0.3464 0.266 0.237 0.345 0.45849 0.47607 0.48588
3481.805 0.5785 0.5576 0.3771 0.3505 0.3829 0.44457 0.3896 0.277 0.204 0.174
3501.095 0.3419 0.45143 0.5896 0.6875 0.5748 0.5664 0.46343 0.5215 0.6499 0.5532
3520.385 0.5276 0.6094 0.6148 0.45533 0.50231 0.5797 0.5971 0.49433 0.420953 0.4294
3539.674 0.264 0.304 0.4013 0.425772 0.5337 0.6209 0.5381 0.48788 0.46406 0.3464
3558.964 0.3909 0.51159 0.566 0.5254 0.4072 0.401 0.3724 0.3629 0.418521 0.275
3578.254 0.219 0.29 0.45348 0.46677 0.3417 0.40862 0.43475 0.5856 0.7729 0.6755
3597.544 0.5455 0.427702 0.3322 0.288 0.267 0.3322 0.48868 0.5344 0.51737 0.50327
3616.833 0.49255 0.5815 0.5826 0.535 0.44459 0.49345 0.5826 0.3886 0.3811 0.6897
3636.123 0.7393 0.6532 0.6591 0.46783 0.48137 0.717 0.6427 0.5998 0.6043 0.5529
3655.413 0.6074 0.6204 0.5419 0.6628 0.7656 0.6217 0.5396 0.6058 0.7031 0.6622
3674.703 0.5511 0.5588 0.5782 0.6439 0.6348 0.6236 0.6164 0.5535 0.7003 0.7412
3693.993 0.7065 0.7333 0.6182 0.5911 0.6333 0.6569 0.6859 0.6058 0.47182 0.418159
3713.282 0.5184 0.5689 0.5424 0.5515 0.3797 0.3731 0.4906 0.46153 0.625 0.5888
3732.572 0.3352 0.31 0.44756 0.5484 0.46676 0.48671 0.6192 0.5765 0.5961 0.565
3751.862 0.5274 0.5704 0.7113 0.7657 0.6187 0.6459 0.5951 0.6336 0.7498 0.6445
3771.152 0.5587 0.5964 0.6066 0.7125 0.8623 0.5493 0.48175 0.8073 0.7521 0.5403
3790.441 0.44185 0.3384 0.40926 0.5551 0.6017 0.6819 0.6477 0.6031 0.5946 0.6281
3809.731 0.7634 0.8776 1.0383 1.0002 0.8178 0.7622 0.7868 0.8049 0.7783 0.8479
3829.021 0.7279 0.6715 0.7353 0.7933 0.9708 0.8891 0.8967 0.9224 0.8437 0.8885
3848.311 0.8473 0.813 0.9157 1.0635 1.0069 0.8854 0.8479 0.8962 1.0285 1.0322
3867.601 0.9121 0.8537 0.8543 0.7594 0.7603 0.8392 0.8331 0.8803 1.0043 1.169
3886.890 1.1036 1.0837 1.1608 1.2756 1.1968 1.0972 1.3302 1.3299 1.1393 1.1961
3906.180 1.1893 0.9871 1.0245 1.2613 1.3458 1.2416 1.347 1.4049 1.3208 1.498
3925.470 1.668 1.578 1.668 1.708 1.528 1.538 1.438 1.3155 1.468 1.578
3944.760 1.728 1.858 1.808 1.948 2.058 2.008 2.058 2.008 1.998 2.098
3964.049 2.188 2.198 2.098 1.998 1.888 1.948 2.078 2.208 2.198 2.078
3983.339 2.058 2.128 2.368 2.498 2.368 2.278 2.478 2.508 2.428 2.328
##END=
