##TITLE=4-Heptyn-3-ol
##JCAMP-DX=4.24
##DATA TYPE=INFRARED SPECTRUM
##ORIGIN=NIST Mass Spectrometry Data Center
##OWNER=NIST Standard Reference Data Program
Collection (C) 2018 copyright by the U.S. Secretary of Commerce
on behalf of the United States of America. All rights reserved.
##CAS REGISTRY NO=32398-69-9
##MOLFORM=C 7 H 12 O
##$NIST SOURCE=MSDC-IR
##SPECTROMETER/DATA SYSTEM=HP-GC/MS/IRD
##STATE=gas
##XUNITS=1/CM
##YUNITS=ABSORBANCE
##XFACTOR=1.0
##YFACTOR=0.000001500
##DELTAX=4.0
##FIRSTX=550.0
##LASTX=3846.0
##FIRSTY=0.000536
##MAXX=3846
##MINX=550
##MAXY=0.015
##MINY=0
##NPOINTS=825
##XYDATA=(X++(Y..Y))
550.0 357 309 228 186 207 199 199 215 227 169
590.0 121 155 189 216 182 110 143 152 129 166
630.0 137 99 101 48 35 75 51 56 61 55
670.0 56 89 118 99 79 97 126 114 81 45
710.0 65 96 64 61 91 104 139 182 184 188
750.0 222 247 236 186 166 176 184 215 288 345
790.0 341 331 327 325 350 383 408 440 442 419
830.0 368 335 343 365 396 428 450 478 532 574
870.0 633 682 682 642 554 469 416 367 343 326
910.0 327 392 464 578 726 929 1221 1557 1891 2299
950.0 2721 3129 3515 3814 3957 3937 3794 3561 3342 3237
990.0 3276 3427 3603 3753 3795 3734 3614 3377 3105 2946
1030.0 2880 2873 2859 2802 2674 2534 2421 2303 2183 2090
1070.0 2018 1964 1961 2004 2078 2094 2056 1986 1844 1633
1110.0 1405 1236 1124 1065 1070 1124 1273 1466 1578 1591
1150.0 1575 1478 1308 1130 1015 934 863 837 824 824
1190.0 840 893 919 931 1000 1070 1118 1192 1244 1273
1230.0 1296 1306 1307 1296 1268 1255 1277 1311 1315 1303
1270.0 1324 1358 1388 1432 1497 1582 1678 1814 2045 2456
1310.0 3060 3668 4016 4090 4017 3698 3287 3150 3278 3530
1350.0 3828 4113 4281 4321 4241 4035 3775 3524 3270 3002
1390.0 2737 2455 2141 1835 1580 1407 1290 1203 1170 1192
1430.0 1237 1293 1372 1454 1547 1630 1668 1703 1707 1629
1470.0 1494 1329 1136 918 744 623 516 431 374 314
1510.0 271 248 217 190 183 185 176 172 169 158
1550.0 153 156 160 155 149 156 151 145 118 107
1590.0 106 96 99 91 82 69 53 55 54 52
1630.0 57 56 65 68 54 57 68 74 64 46
1670.0 39 28 28 38 55 55 37 17 18 27
1710.0 17 7 12 15 11 16 13 0 0 5
1750.0 9 15 11 5 7 5 9 18 18 11
1790.0 8 9 12 9 6 15 28 20 8 19
1830.0 32 20 16 25 21 22 26 28 24 21
1870.0 27 38 49 40 41 40 31 42 43 34
1910.0 37 47 53 51 44 37 42 44 33 22
1950.0 28 19 8 21 24 10 18 37 37 38
1990.0 36 32 45 47 51 54 49 52 53 48
2030.0 48 45 54 63 60 69 65 56 56 48
2070.0 44 34 21 24 27 34 35 23 29 45
2110.0 49 50 49 45 48 51 51 48 56 61
2150.0 52 52 64 74 88 104 108 117 144 161
2190.0 178 201 226 260 286 335 403 446 482 531
2230.0 571 576 548 512 474 422 347 296 259 230
2270.0 214 195 166 152 153 155 158 155 134 105
2310.0 96 90 80 69 62 60 62 65 62 52
2350.0 41 41 27 26 44 49 46 45 55 50
2390.0 35 41 47 49 57 62 69 62 65 74
2430.0 69 63 61 56 62 65 63 60 45 40
2470.0 35 35 45 32 20 33 40 40 45 36
2510.0 30 44 37 31 48 63 55 35 34 54
2550.0 54 35 47 71 64 61 57 57 75 85
2590.0 79 64 73 97 102 104 104 95 101 120
2630.0 121 116 98 84 83 64 58 68 53 60
2670.0 68 62 66 64 57 66 74 73 88 101
2710.0 103 115 136 145 152 172 190 214 239 251
2750.0 256 268 268 275 267 266 268 264 288 285
2790.0 286 292 290 319 351 373 404 442 494 547
2830.0 626 724 832 983 1161 1370 1660 2027 2411 2791
2870.0 3197 3669 4195 4706 5074 5226 5255 5126 4847 4590
2910.0 4453 4471 4657 5021 5572 6257 7053 7920 8573 8763
2950.0 8622 8316 7816 7445 7673 8504 9463 10000 9858 9039
2990.0 7638 5900 4287 3222 2575 2108 1753 1445 1205 1020
3030.0 854 721 639 586 543 494 468 468 465 458
3070.0 438 426 433 391 362 362 341 323 313 315
3110.0 313 279 236 219 214 222 220 194 179 194
3150.0 203 200 194 178 173 172 174 172 158 155
3190.0 159 146 118 97 96 97 92 71 41 49
3230.0 37 33 49 43 46 47 43 40 25 34
3270.0 47 27 21 36 42 39 38 42 57 50
3310.0 46 41 52 46 42 57 55 90 93 75
3350.0 67 44 43 65 84 88 80 80 100 109
3390.0 82 62 83 72 69 77 70 78 94 89
3430.0 43 42 89 98 94 94 74 92 119 101
3470.0 92 102 116 112 96 95 110 133 124 108
3510.0 106 141 155 144 130 111 104 92 74 84
3550.0 96 99 105 95 103 95 98 116 86 75
3590.0 102 107 102 136 158 168 203 258 342 472
3630.0 667 903 1209 1496 1657 1736 1739 1602 1335 1042
3670.0 779 565 390 277 210 157 130 145 152 128
3710.0 110 109 117 132 129 118 121 107 90 87
3750.0 101 116 104 124 170 193 165 148 166 175
3790.0 168 159 134 114 140 151 126 94 89 102
3830.0 104 117 102 70 78
##END=
