##TITLE=10-Aminononadecane
##JCAMP-DX=4.24
##DATA TYPE=INFRARED SPECTRUM
##ORIGIN=NIST Mass Spectrometry Data Center
##OWNER=NIST Standard Reference Data Program
Collection (C) 2018 copyright by the U.S. Secretary of Commerce
on behalf of the United States of America. All rights reserved.
##CAS REGISTRY NO=3241-23-4
##MOLFORM=C 19 H 41 N
##$NIST SOURCE=MSDC-IR
##SPECTROMETER/DATA SYSTEM=HP-GC/MS/IRD
##STATE=gas
##XUNITS=1/CM
##YUNITS=ABSORBANCE
##XFACTOR=1.0
##YFACTOR=0.000006000
##DELTAX=4.0
##FIRSTX=550.0
##LASTX=3846.0
##FIRSTY=0.001092
##MAXX=3846
##MINX=550
##MAXY=0.06
##MINY=0
##NPOINTS=825
##XYDATA=(X++(Y..Y))
550.0 182 107 13 39 38 27 21 11 26 42
590.0 26 22 32 36 21 12 20 31 34 12
630.0 8 17 32 45 40 32 44 61 59 48
670.0 46 55 71 78 85 112 117 131 157 177
710.0 214 246 262 271 285 300 306 316 338 357
750.0 379 396 418 452 485 512 531 549 552 543
790.0 521 476 426 382 333 296 264 233 208 184
830.0 162 143 130 123 109 103 102 92 88 83
870.0 76 70 69 70 70 67 62 63 61 56
910.0 51 49 48 43 32 21 22 30 28 25
950.0 22 23 27 30 24 16 19 24 28 36
990.0 44 46 40 40 51 52 57 60 57 63
1030.0 67 60 57 57 55 57 56 51 56 63
1070.0 61 62 73 74 70 74 67 61 62 60
1110.0 63 70 77 79 93 103 95 91 82 79
1150.0 76 73 75 75 76 79 82 82 83 85
1190.0 87 88 85 88 86 84 83 78 80 84
1230.0 87 91 94 95 92 88 94 99 102 107
1270.0 109 111 118 126 133 141 153 165 174 181
1310.0 183 181 179 181 187 203 229 257 288 317
1350.0 345 358 361 353 348 339 326 317 309 278
1390.0 228 184 155 137 125 123 124 126 136 156
1430.0 185 232 299 383 473 556 634 703 717 670
1470.0 571 445 329 243 190 151 123 107 94 81
1510.0 72 63 54 53 51 48 48 45 45 48
1550.0 46 45 47 48 51 57 59 62 72 80
1590.0 87 102 120 141 168 196 223 236 230 210
1630.0 180 141 112 94 76 57 44 42 41 32
1670.0 24 26 26 24 20 18 16 15 18 16
1710.0 16 13 12 17 17 12 8 13 15 12
1750.0 12 15 12 10 10 11 13 11 9 6
1790.0 9 11 8 7 7 9 7 5 8 7
1830.0 4 5 9 8 9 11 10 11 10 9
1870.0 9 8 2 5 9 10 8 6 8 6
1910.0 2 3 4 3 3 4 4 1 1 1
1950.0 4 4 4 3 0 2 5 3 3 3
1990.0 1 2 3 4 4 6 10 10 7 8
2030.0 12 14 13 12 13 14 14 13 13 13
2070.0 10 9 8 7 7 8 10 8 10 9
2110.0 7 8 9 9 8 8 10 13 9 8
2150.0 9 9 11 10 12 13 11 14 12 7
2190.0 12 15 11 12 11 9 8 8 9 9
2230.0 7 11 12 12 15 16 15 14 16 19
2270.0 18 17 17 12 14 18 16 16 15 14
2310.0 16 14 13 14 13 13 14 12 13 14
2350.0 14 16 14 9 12 15 15 13 13 15
2390.0 15 12 11 13 13 12 13 15 12 10
2430.0 9 8 10 11 12 17 13 9 8 11
2470.0 11 10 11 15 16 13 12 13 16 17
2510.0 17 19 22 26 26 27 27 26 32 33
2550.0 29 29 33 34 36 36 38 44 45 47
2590.0 47 52 60 63 63 58 56 61 65 66
2630.0 71 74 78 81 83 88 93 97 100 101
2670.0 103 105 110 114 112 112 109 104 103 102
2710.0 103 103 105 108 110 112 115 122 130 137
2750.0 137 136 142 149 151 151 162 176 185 201
2790.0 221 243 267 291 319 357 401 454 515 590
2830.0 683 799 960 1182 1507 1981 2621 3294 3694 3646
2870.0 3300 2913 2626 2465 2372 2328 2395 2620 2999 3503
2910.0 4105 4839 5819 7145 8700 9882 10000 9046 7547 5998
2950.0 4714 3848 3401 3240 3152 2885 2367 1796 1357 1057
2990.0 851 706 600 518 449 396 352 309 281 258
3030.0 234 215 193 181 168 153 144 136 128 123
3070.0 117 108 107 106 96 86 82 79 71 68
3110.0 68 69 71 67 60 62 64 55 48 53
3150.0 54 49 44 39 36 37 37 38 39 39
3190.0 35 33 29 27 21 17 24 23 19 22
3230.0 21 17 17 20 17 14 14 16 16 16
3270.0 11 14 14 6 8 17 19 19 19 19
3310.0 22 20 20 23 30 33 36 33 20 14
3350.0 18 18 16 14 18 20 16 14 14 17
3390.0 18 18 20 18 15 14 9 9 17 13
3430.0 11 15 12 10 13 19 19 13 8 3
3470.0 5 7 6 6 9 11 14 5 1 12
3510.0 14 6 2 2 6 11 10 6 6 7
3550.0 3 3 6 5 8 12 12 9 12 14
3590.0 11 11 13 15 8 6 17 18 16 15
3630.0 12 15 19 23 21 16 16 15 17 22
3670.0 27 25 21 16 12 13 11 7 11 16
3710.0 19 17 15 14 15 18 15 11 14 13
3750.0 12 12 16 23 16 13 11 7 15 21
3790.0 27 20 10 15 13 8 9 15 15 18
3830.0 19 16 17 19 21
##END=
