##TITLE=N-Heptafluorobutyrylimidazole
##JCAMP-DX=4.24
##DATA TYPE=INFRARED SPECTRUM
##ORIGIN=EPA-IR VAPOR PHASE LIBRARY
##OWNER=SRD/NIST
Collection (C) 2018 copyright by the U.S. Secretary of Commerce
on behalf of the United States of America. All rights reserved.
##CAS REGISTRY NO=32477-35-3
##MOLFORM=C 7 H 3 F 7 N 2 O
##$NIST SOURCE=MSDC-IR
##STATE=gas
##XUNITS=1/CM
##YUNITS=ABSORBANCE
##XFACTOR=1.
##YFACTOR=0.001
##DELTAX=1.929
##FIRSTX=549.8
##LASTX=4000.8
##FIRSTY=0.114
##MAXX=4000.75
##MINX=549.766
##MAXY=0.068667
##MINY=0
##NPOINTS=1790
##XYDATA=(X++(Y..Y))
549.766 0.114 0.13 0.28 0.299 0.356 0.382 0.261 0.226 0.411 0.602885
569.056 0.65496 0.64448 0.64787 0.7529 0.9049 1.0684 1.312 1.4323 1.2735 1.3001
588.346 1.5762 1.5846 1.5365 1.777 2.087 2.097 2.187 2.347 2.287 2.387
607.636 2.527 2.487 2.437 2.347 2.227 2.267 2.377 2.417 2.587 2.717
626.926 3.037 3.677 4.087 4.747 5.277 5.477 5.517 5.217 4.677 4.087
646.216 3.567 2.977 2.767 2.557 2.267 1.987 1.637 1.5519 1.607 1.528
665.506 1.4642 1.3728 1.2421 1.339 1.3849 1.3422 1.4185 1.4481 1.4452 1.4864
684.796 1.5661 1.697 1.647 1.657 1.717 1.647 1.707 1.787 1.777 1.747
704.086 1.817 1.877 2.117 2.737 3.617 4.737 6.097 7.587 8.977 10.137
723.376 10.857 10.917 10.537 10.067 9.467 8.727 8.157 7.957 8.197 8.477
742.666 8.817 9.337 9.697 9.837 9.737 9.257 8.357 7.077 5.747 4.647
761.956 3.587 2.737 2.177 1.767 1.5375 1.5085 1.4826 1.4776 1.4893 1.5496
781.246 1.5495 1.667 1.827 1.887 2.167 2.457 2.647 2.907 3.347 3.597
800.536 3.737 3.807 3.767 3.887 4.117 4.357 5.047 6.017 6.657 7.377
819.826 8.087 8.577 8.947 9.157 9.177 9.087 8.887 8.677 8.577 8.857
839.116 9.547 10.487 11.587 12.337 12.697 12.677 12.217 11.297 10.107 9.017
858.406 8.177 7.837 7.667 7.517 7.197 6.597 5.807 4.787 3.777 3.007
877.696 2.667 2.627 2.717 2.877 2.917 2.767 2.507 2.147 1.687 1.358
896.986 1.1799 1.0263 1.0078 0.9559 0.7617 0.7177 0.7767 0.7445 0.7468 0.7218
916.276 0.7331 0.8236 0.8302 0.7796 0.8584 0.9895 1.0244 1.0384 1.0513 1.1624
935.566 1.2698 1.4406 1.647 1.867 2.167 2.447 2.837 3.177 3.447 3.787
954.856 4.047 4.377 4.857 5.207 5.567 6.047 6.477 6.817 7.067 7.097
974.146 6.897 6.527 5.917 5.177 4.497 3.857 3.417 3.127 2.887 2.787
993.436 2.877 3.027 3.317 3.917 4.837 6.187 7.967 10.237 12.807 15.167
1012.726 16.787 17.697 17.797 16.847 15.017 12.597 10.077 7.897 6.117 4.707
1032.016 3.777 3.117 2.607 2.327 2.227 2.057 1.967 1.937 1.997 2.247
1051.306 2.477 2.787 3.227 3.707 4.287 4.817 5.257 5.597 5.787 5.837
1070.596 5.677 5.347 4.887 4.457 4.197 4.047 4.217 4.767 5.577 6.607
1089.886 7.777 8.987 9.877 10.307 10.407 10.117 9.497 8.827 8.397 8.357
1109.176 8.637 9.177 9.967 11.007 12.287 13.747 15.417 17.017 18.317 19.117
1128.467 19.337 19.017 18.087 16.697 15.237 13.957 12.767 11.607 10.567 9.807
1147.757 9.277 8.897 8.737 8.777 8.797 8.967 9.277 9.637 10.017 10.477
1167.047 10.937 11.497 12.327 13.207 14.047 14.967 15.947 16.867 17.687 18.377
1186.337 18.747 18.887 18.987 19.017 19.017 19.067 19.417 20.017 20.607 21.427
1205.627 22.787 24.617 27.097 30.087 33.647 37.787 42.287 47.067 51.747 55.997
1224.917 59.697 62.837 65.307 67.067 68.237 68.667 68.107 66.437 63.387 58.987
1244.207 53.597 47.917 42.507 37.657 33.647 30.447 28.057 26.257 24.627 23.147
1263.497 21.757 20.267 18.787 17.457 16.317 15.457 14.817 14.457 14.297 14.287
1282.787 14.547 15.107 15.947 17.077 18.547 20.387 22.447 24.677 26.807 28.387
1302.077 29.327 29.437 28.617 27.047 24.887 22.277 19.487 16.897 14.467 12.217
1321.367 10.387 9.037 8.077 7.467 7.127 6.997 7.107 7.327 7.647 8.047
1340.657 8.417 8.607 8.597 8.297 7.747 7.087 6.347 5.557 4.877 4.447
1359.947 4.177 4.127 4.237 4.577 5.077 5.717 6.657 7.877 9.387 11.147
1379.237 13.107 15.147 17.107 18.697 19.777 20.257 19.917 18.747 17.027 14.937
1398.527 12.587 10.357 8.457 6.847 5.647 4.767 4.067 3.537 3.117 2.787
1417.817 2.617 2.517 2.427 2.367 2.307 2.257 2.257 2.237 2.237 2.377
1437.107 2.507 2.617 2.727 2.857 3.077 3.277 3.457 3.587 3.707 3.877
1456.397 4.077 4.257 4.507 5.007 5.677 6.487 7.357 8.177 8.887 9.427
1475.687 9.847 10.297 10.647 10.937 11.097 11.037 10.777 10.277 9.477 8.417
1494.977 7.367 6.427 5.637 4.947 4.347 3.827 3.357 2.957 2.597 2.317
1514.267 2.147 2.087 1.997 1.947 1.927 1.917 2.007 2.037 2.077 2.177
1533.557 2.417 2.687 2.867 3.007 2.987 2.907 2.727 2.447 2.127 1.847
1552.847 1.737 1.707 1.757 1.787 1.747 1.787 1.807 1.727 1.637 1.5515
1572.137 1.4609 1.4025 1.361 1.3254 1.3551 1.3726 1.3625 1.4288 1.4831 1.5686
1591.427 1.647 1.707 1.777 1.787 1.757 1.677 1.5777 1.5717 1.545 1.5002
1610.717 1.4992 1.5352 1.607 1.667 1.677 1.697 1.757 1.787 1.797 1.867
1630.007 1.857 1.797 1.807 1.767 1.637 1.5405 1.4422 1.3402 1.2412 1.2022
1649.297 1.188 1.213 1.2558 1.242 1.263 1.3075 1.3698 1.4294 1.423 1.3986
1668.587 1.3959 1.4196 1.4033 1.3604 1.2992 1.2607 1.3302 1.4031 1.4707 1.4653
1687.877 1.4694 1.5693 1.677 1.707 1.757 1.817 1.837 1.837 1.827 1.797
1707.167 1.777 1.847 1.897 1.987 2.097 2.207 2.307 2.407 2.507 2.617
1726.457 2.787 2.997 3.187 3.467 3.787 4.117 4.647 5.397 6.347 7.627
1745.747 9.227 11.327 14.017 17.467 21.567 26.067 30.607 34.237 36.517 37.077
1765.037 35.587 32.187 27.307 21.907 16.657 12.487 9.417 7.217 5.687 4.647
1784.327 3.947 3.407 3.007 2.697 2.447 2.267 2.137 2.027 1.917 1.807
1803.617 1.737 1.667 1.617 1.5377 1.4796 1.4072 1.304 1.2387 1.2082 1.181
1822.907 1.1498 1.1695 1.1819 1.1219 1.0811 1.0782 1.0706 1.0543 1.0712 1.075
1842.197 1.0573 1.0948 1.0643 0.9489 0.9157 0.9465 0.9305 0.9175 0.8917 0.8393
1861.487 0.8671 0.8987 0.882 0.8385 0.8103 0.8389 0.8259 0.805 0.7947 0.817
1880.777 0.8337 0.8118 0.8171 0.8535 0.8857 0.8748 0.8106 0.7911 0.8089 0.8238
1900.067 0.7816 0.7393 0.7899 0.8183 0.8278 0.817 0.7698 0.7391 0.7331 0.7729
1919.357 0.8128 0.8046 0.788 0.7785 0.8252 0.8453 0.819 0.797 0.7849 0.7791
1938.647 0.755 0.75 0.7507 0.7267 0.7229 0.749 0.7774 0.7909 0.8359 0.8155
1957.937 0.7278 0.7214 0.7836 0.8452 0.8391 0.7851 0.7612 0.7812 0.7596 0.7601
1977.227 0.8328 0.8078 0.7357 0.7466 0.7873 0.7767 0.7428 0.7429 0.7493 0.7286
1996.517 0.7236 0.702 0.67407 0.67476 0.63418 0.628 0.66904 0.65806 0.64441 0.65448
2015.807 0.65338 0.67852 0.67312 0.6536 0.65878 0.63881 0.63395 0.64455 0.67144 0.65497
2035.097 0.65079 0.65324 0.61446 0.6301 0.65021 0.603253 0.58736 0.61535 0.6295 0.5756
2054.387 0.507 0.5523 0.61778 0.62708 0.62459 0.5726 0.506 0.5337 0.5777 0.61382
2073.677 0.64955 0.5758 0.5202 0.5782 0.60087 0.61168 0.62925 0.61486 0.576 0.5669
2092.967 0.62104 0.6656 0.64815 0.61409 0.61688 0.62391 0.60853 0.600204 0.5792 0.5812
2112.257 0.5853 0.59492 0.59413 0.59258 0.6315 0.65757 0.64915 0.602482 0.61231 0.66723
2131.547 0.6706 0.65228 0.65393 0.6326 0.63963 0.67741 0.66599 0.61891 0.5843 0.600768
2150.837 0.63413 0.64756 0.62481 0.63613 0.66228 0.68776 0.7136 0.67762 0.63968 0.63588
2170.127 0.600632 0.5667 0.5799 0.58868 0.5779 0.5395 0.5493 0.5743 0.5772 0.58854
2189.417 0.5781 0.596988 0.5618 0.5557 0.60819 0.600699 0.5788 0.597416 0.59441 0.5657
2208.707 0.603533 0.5722 0.5342 0.5842 0.61349 0.58992 0.59217 0.5707 0.5599 0.598202
2227.997 0.601595 0.65425 0.6576 0.59068 0.5776 0.6115 0.60299 0.5834 0.5776 0.5473
2247.287 0.5624 0.5833 0.5731 0.59014 0.63713 0.65791 0.64139 0.61754 0.5837 0.5702
2266.577 0.59526 0.61381 0.5814 0.565 0.5514 0.5584 0.62679 0.63267 0.58907 0.602656
2285.868 0.62291 0.60882 0.62862 0.63241 0.596541 0.5846 0.62168 0.62853 0.61077 0.65707
2305.158 0.68937 0.68433 0.62133 0.61009 0.64017 0.65424 0.67445 0.65545 0.66605 0.65347
2324.448 0.62305 0.64822 0.67568 0.65877 0.6992 0.7119 0.64263 0.65683 0.6988 0.7257
2343.738 0.7283 0.63693 0.5786 0.655 0.67761 0.69239 0.7489 0.7458 0.7258 0.7187
2363.028 0.7363 0.7252 0.7119 0.7045 0.7236 0.7765 0.7636 0.758 0.7204 0.7124
2382.318 0.7419 0.69002 0.68039 0.67086 0.65708 0.68746 0.68178 0.69419 0.68801 0.66357
2401.608 0.7128 0.731 0.678 0.67127 0.7193 0.7199 0.7347 0.7478 0.67449 0.66377
2420.898 0.7018 0.64575 0.67055 0.7077 0.67091 0.62236 0.63478 0.68602 0.64821 0.6344
2440.188 0.62311 0.603375 0.600885 0.61155 0.64377 0.66241 0.62945 0.61608 0.66739 0.63947
2459.478 0.64038 0.67681 0.69271 0.67046 0.63322 0.65061 0.67343 0.66603 0.63598 0.63252
2478.768 0.64453 0.68253 0.7152 0.68984 0.63994 0.66853 0.66923 0.62038 0.58899 0.602505
2498.058 0.6304 0.5813 0.5626 0.605323 0.63637 0.65321 0.61106 0.5602 0.597114 0.62026
2517.348 0.59233 0.5713 0.601006 0.5642 0.5415 0.5606 0.5239 0.5154 0.5431 0.59365
2536.638 0.6105 0.5641 0.5403 0.5431 0.5206 0.5414 0.5545 0.5359 0.5178 0.5262
2555.928 0.5427 0.5508 0.5681 0.514 0.5071 0.5817 0.5791 0.5321 0.5242 0.5239
2575.218 0.5083 0.5348 0.528 0.454 0.396 0.404 0.473 0.5134 0.444 0.416
2594.508 0.483 0.478 0.409 0.365 0.39 0.394 0.366 0.412 0.394 0.353
2613.798 0.352 0.322 0.397 0.445 0.379 0.341 0.367 0.397 0.419 0.45
2633.088 0.389 0.395 0.427 0.376 0.352 0.318 0.334 0.346 0.327 0.363
2652.378 0.345 0.304 0.366 0.296 0.212 0.311 0.371 0.365 0.324 0.35
2671.668 0.382 0.374 0.33 0.27 0.317 0.313 0.334 0.379 0.369 0.374
2690.958 0.33 0.306 0.374 0.414 0.421 0.355 0.227 0.266 0.331 0.302
2710.248 0.304 0.273 0.306 0.361 0.349 0.402 0.401 0.285 0.319 0.366
2729.538 0.29 0.262 0.257 0.263 0.297 0.322 0.366 0.44 0.424 0.356
2748.828 0.327 0.357 0.373 0.296 0.247 0.267 0.258 0.306 0.325 0.299
2768.118 0.278 0.268 0.282 0.326 0.323 0.217 0.225 0.287 0.291 0.244
2787.408 0.294 0.238 0.161 0.264 0.321 0.286 0.198 0.187 0.187 0.22
2806.698 0.324 0.32 0.283 0.286 0.271 0.195 0.162 0.193 0.219 0.264
2825.988 0.206 0.143 0.132 0.202 0.341 0.355 0.322 0.244 0.169 0.142
2845.278 0.201 0.238 0.151 0.218 0.284 0.303 0.355 0.293 0.193 0.161
2864.568 0.136 0.117 0.176 0.17 0.138 0.168 0.255 0.266 0.119 0.072
2883.858 0.12 0.158 0.234 0.279 0.269 0.219 0.194 0.163 0.081 0.109
2903.148 0.115 0.159 0.247 0.195 0.202 0.211 0.225 0.307 0.293 0.298
2922.438 0.326 0.267 0.199 0.236 0.267 0.169 0.18 0.342 0.27 0.214
2941.728 0.281 0.279 0.275 0.274 0.304 0.314 0.315 0.277 0.321 0.298
2961.018 0.24 0.201 0.163 0.083 0.009 0.105 0.144 0.136 0.18 0.168
2980.308 0.164 0.234 0.201 0.206 0.219 0.2 0.156 0.184 0.234 0.076
2999.598 0.077 0.255 0.286 0.229 0.188 0.136 0.147 0.226 0.243 0.19
3018.888 0.124 0.113 0.075 0.041 0.131 0.22 0.23 0.161 0.104 0.12
3038.178 0.23 0.239 0.156 0.161 0.191 0.196 0.207 0.224 0.234 0.255
3057.468 0.251 0.28 0.298 0.34 0.331 0.205 0.139 0.159 0.193 0.215
3076.758 0.235 0.176 0.13 0.168 0.212 0.2 0.119 0.116 0.196 0.18
3096.048 0.117 0.092 0.054 0.02 0 0.082 0.149 0.106 0.129 0.176
3115.338 0.169 0.166 0.337 0.449 0.327 0.454 0.604402 0.5535 0.6223 0.7829
3134.628 0.7585 0.8099 0.9165 0.857 0.8584 0.954 0.924 0.7895 0.8029 0.67875
3153.918 0.63051 0.65706 0.6679 0.67426 0.67705 0.7317 0.7184 0.8418 1.0668 1.1197
3173.208 1.0998 1.0476 0.8889 0.819 0.8068 0.7054 0.6794 0.83 0.8117 0.69534
3192.498 0.7125 0.7141 0.61307 0.59393 0.5747 0.5654 0.465 0.371 0.285 0.255
3211.788 0.309 0.276 0.293 0.261 0.228 0.269 0.244 0.233 0.218 0.197
3231.078 0.278 0.292 0.316 0.32 0.236 0.264 0.374 0.356 0.262 0.245
3250.368 0.166 0.111 0.169 0.325 0.362 0.234 0.228 0.332 0.322 0.237
3269.658 0.208 0.18 0.187 0.196 0.237 0.201 0.174 0.174 0.173 0.336
3288.948 0.462 0.415 0.358 0.389 0.399 0.318 0.209 0.164 0.273 0.31
3308.238 0.263 0.167 0.135 0.233 0.223 0.208 0.23 0.367 0.343 0.251
3327.528 0.329 0.411 0.474 0.42 0.334 0.345 0.258 0.225 0.276 0.224
3346.818 0.267 0.263 0.186 0.061 0.124 0.217 0.311 0.409 0.373 0.272
3366.108 0.21 0.198 0.244 0.4 0.459 0.491 0.5221 0.473 0.431 0.5119
3385.398 0.479 0.396 0.418 0.409 0.395 0.388 0.398 0.4 0.23 0.237
3404.688 0.329 0.311 0.419 0.452 0.398 0.447 0.466 0.422 0.477 0.409
3423.978 0.319 0.323 0.322 0.258 0.3 0.457 0.494 0.459 0.485 0.455
3443.269 0.273 0.189 0.195 0.24 0.286 0.392 0.468 0.426 0.465 0.338
3462.559 0.289 0.5004 0.54 0.41 0.344 0.394 0.5023 0.5782 0.5697 0.5857
3481.849 0.5726 0.5064 0.5525 0.5558 0.65469 0.61598 0.44 0.5411 0.606732 0.67832
3501.139 0.7649 0.8134 0.8189 0.7359 0.66826 0.66145 0.63731 0.67414 0.7435 0.67329
3520.429 0.601071 0.5628 0.5329 0.5452 0.429 0.458 0.5449 0.429 0.371 0.339
3539.719 0.358 0.403 0.4983 0.5753 0.461 0.391 0.435 0.5376 0.5461 0.5555
3559.009 0.5036 0.324 0.279 0.392 0.387 0.286 0.457 0.59069 0.429 0.344
3578.299 0.276 0.284 0.416 0.442 0.397 0.359 0.434 0.432 0.469 0.48
3597.589 0.386 0.392 0.5118 0.461 0.378 0.456 0.478 0.5167 0.493 0.39
3616.879 0.345 0.409 0.368 0.36 0.5239 0.5087 0.43 0.332 0.371 0.432
3636.169 0.405 0.534 0.602098 0.458 0.321 0.43 0.495 0.387 0.376 0.542
3655.459 0.59737 0.486 0.478 0.455 0.398 0.395 0.446 0.62735 0.5501 0.491
3674.749 0.58867 0.5378 0.486 0.418 0.309 0.279 0.336 0.301 0.345 0.381
3694.039 0.414 0.465 0.401 0.436 0.482 0.4972 0.5214 0.495 0.47 0.444
3713.329 0.385 0.396 0.468 0.459 0.486 0.5447 0.465 0.399 0.435 0.439
3732.619 0.487 0.5129 0.352 0.276 0.409 0.5166 0.498 0.452 0.443 0.427
3751.909 0.342 0.239 0.315 0.457 0.4 0.372 0.445 0.472 0.461 0.422
3771.199 0.386 0.351 0.324 0.287 0.323 0.319 0.388 0.597842 0.5549 0.397
3790.489 0.307 0.312 0.421 0.406 0.406 0.46 0.482 0.428 0.368 0.375
3809.779 0.416 0.428 0.419 0.5078 0.494 0.455 0.482 0.60368 0.5806 0.456
3829.069 0.374 0.33 0.39 0.371 0.398 0.354 0.303 0.406 0.423 0.318
3848.359 0.246 0.366 0.486 0.455 0.403 0.364 0.376 0.414 0.5171 0.539
3867.649 0.4971 0.481 0.355 0.35 0.466 0.478 0.47 0.489 0.469 0.5675
3886.939 0.5677 0.4981 0.418 0.357 0.433 0.42 0.438 0.373 0.265 0.247
3906.229 0.203 0.302 0.302 0.314 0.342 0.213 0.195 0.285 0.38 0.411
3925.519 0.321 0.219 0.375 0.34 0.358 0.421 0.303 0.377 0.313 0.379
3944.809 0.5065 0.399 0.372 0.304 0.319 0.368 0.303 0.212 0.141 0.314
3964.099 0.466 0.428 0.307 0.279 0.305 0.294 0.357 0.333 0.342 0.378
3983.389 0.304 0.308 0.434 0.546 0.492 0.306 0.249 0.243 0.204 0.303
##END=
