##TITLE=4,4,4-Trifluoro-1-(2-furyl)-1,3-butanedione
##JCAMP-DX=4.24
##DATA TYPE=INFRARED SPECTRUM
##ORIGIN=EPA-IR VAPOR PHASE LIBRARY
##OWNER=SRD/NIST
Collection (C) 2018 copyright by the U.S. Secretary of Commerce
on behalf of the United States of America. All rights reserved.
##CAS REGISTRY NO=326-90-9
##MOLFORM=C 8 H 5 F 3 O 3
##$NIST SOURCE=MSDC-IR
##STATE=gas
##XUNITS=1/CM
##YUNITS=ABSORBANCE
##XFACTOR=1.
##YFACTOR=0.001
##DELTAX=1.92934
##FIRSTX=549.9
##LASTX=3999.5
##FIRSTY=1.2821
##MAXX=3999.53
##MINX=549.863
##MAXY=0.046155
##MINY=0
##NPOINTS=1789
##XYDATA=(X++(Y..Y))
549.863 1.2821 1.2403 1.2579 1.319 1.455 1.605 1.695 1.755 1.825 2.035
569.156 2.365 2.765 3.345 4.015 4.735 5.195 5.305 5.285 5.155 4.835
588.450 4.415 4.035 3.645 3.255 2.985 2.675 2.285 2.035 1.785 1.635
607.743 1.545 1.455 1.3598 1.3017 1.3034 1.2524 1.2607 1.3125 1.315 1.3662
627.037 1.445 1.505 1.635 1.805 1.945 2.055 2.165 2.215 2.225 2.355
646.330 2.595 2.845 3.205 3.725 4.275 4.795 5.205 5.565 5.975 6.365
665.624 6.915 7.805 8.885 10.035 11.035 11.635 11.725 11.245 10.175 8.615
684.917 6.995 5.595 4.525 3.765 3.255 2.975 2.785 2.635 2.505 2.365
704.210 2.275 2.155 2.045 1.965 1.825 1.715 1.665 1.665 1.685 1.705
723.504 1.725 1.815 1.935 2.085 2.285 2.585 3.085 3.855 4.825 5.945
742.797 7.255 8.715 10.225 11.825 13.385 14.525 14.515 13.255 11.645 10.155
762.091 8.675 7.195 5.805 4.665 3.895 3.415 3.165 3.015 3.015 3.065
781.384 3.065 3.125 3.245 3.435 3.715 4.145 4.695 5.335 6.045 6.805
800.678 7.535 8.135 8.645 8.985 9.045 8.815 8.295 7.625 6.965 6.295
819.971 5.665 5.065 4.455 4.005 3.695 3.425 3.255 3.125 3.065 3.025
839.264 2.935 2.885 2.905 2.905 2.895 2.905 2.885 2.905 2.915 2.875
858.558 2.835 2.825 2.795 2.785 2.765 2.805 2.865 2.935 3.045 3.335
877.851 3.975 4.965 6.195 6.845 6.835 6.935 6.915 6.145 4.765 3.745
897.145 3.335 3.195 3.165 3.135 3.045 2.825 2.635 2.515 2.405 2.365
916.438 2.415 2.515 2.685 2.935 3.215 3.455 3.565 3.565 3.435 3.215
935.732 2.935 2.585 2.245 1.955 1.765 1.615 1.545 1.495 1.412 1.3371
955.025 1.2948 1.3422 1.3871 1.415 1.425 1.415 1.425 1.445 1.495 1.495
974.318 1.505 1.565 1.605 1.645 1.705 1.775 1.845 1.935 2.055 2.215
993.612 2.485 2.825 3.275 3.965 4.965 6.525 9.075 12.605 15.965 17.765
1012.905 18.375 18.515 17.715 15.345 12.245 9.825 8.365 7.415 6.745 6.335
1032.199 6.085 6.005 6.025 6.105 6.295 6.545 6.785 7.015 7.275 7.535
1051.492 7.825 8.075 8.225 8.345 8.455 8.545 8.595 8.605 8.595 8.625
1070.786 8.775 8.975 9.265 9.725 10.245 10.935 11.785 12.655 13.605 14.625
1090.079 15.715 17.055 18.775 20.795 22.865 24.645 25.765 25.895 25.045 23.195
1109.372 20.235 16.535 13.075 10.605 9.165 8.245 7.655 7.385 7.245 7.235
1128.666 7.455 7.745 8.115 8.625 9.305 10.155 11.235 12.475 13.795 15.395
1147.959 17.225 19.265 21.505 23.915 26.535 29.295 32.155 35.115 37.985 40.635
1167.253 42.795 44.205 44.825 44.595 43.425 41.705 39.535 37.145 34.895 32.665
1186.546 30.965 29.945 29.525 29.865 31.015 32.825 35.055 37.645 40.445 43.055
1205.840 45.065 46.115 46.155 44.925 42.725 40.135 37.095 33.755 30.465 27.465
1225.133 24.865 22.825 21.005 19.415 18.005 16.735 15.895 15.155 14.605 14.525
1244.426 14.965 15.825 17.005 18.465 20.015 21.555 23.035 24.365 25.445 26.235
1263.720 26.805 27.395 28.045 28.805 29.855 31.225 32.895 34.825 36.885 38.935
1283.013 40.655 41.755 42.315 42.315 41.645 40.275 38.375 36.205 33.885 31.575
1302.307 29.345 27.265 25.425 23.765 22.225 20.835 19.555 18.365 17.265 16.245
1321.600 15.225 14.235 13.355 12.555 11.835 11.195 10.625 10.135 9.705 9.295
1340.894 8.915 8.595 8.275 7.905 7.555 7.265 7.055 6.925 6.775 6.615
1360.187 6.505 6.395 6.275 6.235 6.215 6.205 6.295 6.405 6.545 6.725
1379.480 6.905 7.075 7.165 7.165 7.165 7.135 7.035 6.885 6.775 6.765
1398.774 6.775 6.805 6.835 6.905 6.985 7.055 7.185 7.355 7.485 7.575
1418.067 7.675 7.815 7.955 8.105 8.265 8.375 8.445 8.515 8.605 8.695
1437.361 8.795 8.885 8.925 8.995 9.045 9.115 9.205 9.275 9.425 9.675
1456.654 9.955 10.285 10.625 11.045 11.505 11.945 12.365 12.665 12.815 12.815
1475.948 12.615 12.205 11.585 10.835 10.105 9.425 8.805 8.265 7.885 7.735
1495.241 7.695 7.725 7.795 7.935 8.045 8.075 8.085 8.045 7.995 7.955
1514.534 7.925 7.955 8.055 8.175 8.345 8.545 8.765 8.985 9.205 9.505
1533.828 9.825 10.195 10.555 10.895 11.225 11.485 11.755 11.965 12.045 12.065
1553.121 12.005 11.885 11.815 11.825 11.875 12.025 12.355 12.845 13.485 14.225
1572.415 14.985 15.785 16.655 17.445 18.145 18.765 19.375 20.025 20.725 21.415
1591.708 22.155 22.965 23.785 24.645 25.555 26.475 27.405 28.335 29.255 30.135
1611.002 30.945 31.765 32.555 33.235 33.825 34.305 34.605 34.735 34.745 34.575
1630.295 34.195 33.725 33.155 32.435 31.625 30.775 29.915 29.035 28.135 27.245
1649.588 26.335 25.375 24.315 23.165 21.935 20.665 19.335 17.965 16.675 15.455
1668.882 14.325 13.315 12.435 11.725 11.115 10.615 10.225 9.945 9.755 9.605
1688.175 9.535 9.585 9.685 9.835 10.035 10.245 10.355 10.335 10.185 9.865
1707.469 9.425 8.865 8.135 7.355 6.605 5.855 5.155 4.595 4.135 3.755
1726.762 3.465 3.215 3.025 2.865 2.715 2.655 2.595 2.545 2.515 2.485
1746.056 2.455 2.495 2.515 2.565 2.655 2.745 2.875 3.065 3.285 3.495
1765.349 3.715 3.955 4.195 4.395 4.525 4.575 4.465 4.205 3.845 3.415
1784.642 2.995 2.615 2.235 1.905 1.665 1.475 1.3508 1.2453 1.1698 1.1102
1803.936 1.0681 1.0279 0.9989 0.9807 0.9404 0.918 0.9253 0.9119 0.8935 0.8851
1823.229 0.8525 0.8515 0.8662 0.8648 0.8459 0.8379 0.8901 0.9 0.8572 0.8685
1842.523 0.898 0.9034 0.8807 0.8945 0.9161 0.9078 0.9192 0.9409 0.9322 0.9094
1861.816 0.9291 0.9328 0.9102 0.9075 0.9111 0.9141 0.902 0.8775 0.822 0.7759
1881.110 0.7838 0.7816 0.7588 0.7047 0.6675 0.6645 0.6611 0.6496 0.6281 0.6424
1900.403 0.6608 0.642 0.6031 0.5743 0.5471 0.5294 0.5755 0.6008 0.5778 0.5687
1919.696 0.5668 0.5443 0.5548 0.5847 0.6099 0.608 0.5797 0.588 0.5791 0.5794
1938.990 0.5878 0.5689 0.5712 0.5725 0.5358 0.5435 0.5521 0.5223 0.5142 0.516
1958.283 0.5264 0.5276 0.49647 0.46879 0.48945 0.4986 0.45691 0.44203 0.45769 0.44215
1977.577 0.43207 0.43676 0.44592 0.44744 0.44224 0.46916 0.475 0.44615 0.46558 0.46094
1996.870 0.43137 0.423766 0.41352 0.41184 0.41338 0.414093 0.418332 0.43707 0.423024 0.420539
2016.164 0.44676 0.43975 0.43594 0.44636 0.44945 0.45887 0.48469 0.50133 0.48441 0.46194
2035.457 0.4334 0.43569 0.44355 0.420018 0.3897 0.3724 0.3862 0.3877 0.3837 0.4023
2054.750 0.41035 0.40672 0.402 0.3813 0.364 0.3867 0.388 0.3742 0.401 0.42592
2074.044 0.41524 0.43978 0.46491 0.4761 0.50413 0.47527 0.46481 0.46811 0.46986 0.49258
2093.337 0.5205 0.5221 0.51362 0.5481 0.5446 0.5201 0.51312 0.51113 0.5293 0.50557
2112.631 0.4576 0.43829 0.43204 0.44283 0.44247 0.417742 0.424986 0.44586 0.43352 0.416981
2131.924 0.40965 0.3922 0.386 0.3906 0.4014 0.398 0.3861 0.3931 0.403 0.41317
2151.218 0.414577 0.40557 0.3904 0.41115 0.44261 0.420768 0.4021 0.420467 0.41318 0.417987
2170.511 0.415962 0.4004 0.40538 0.416201 0.414052 0.3997 0.3897 0.3964 0.44094 0.44348
2189.804 0.43789 0.41287 0.3964 0.424215 0.421223 0.415861 0.40858 0.415803 0.419561 0.417532
2209.098 0.42529 0.43568 0.41137 0.3902 0.40604 0.419489 0.42591 0.43594 0.42661 0.417188
2228.391 0.43245 0.42615 0.43033 0.4456 0.45927 0.47963 0.51405 0.5184 0.50017 0.48486
2247.685 0.46334 0.45855 0.47487 0.49623 0.49262 0.46831 0.46387 0.47707 0.47734 0.48392
2266.978 0.48759 0.49897 0.4877 0.47797 0.47462 0.46078 0.46969 0.47382 0.45544 0.43604
2286.272 0.42875 0.421623 0.44473 0.46417 0.47444 0.49203 0.45159 0.42713 0.45128 0.46325
2305.565 0.46719 0.47741 0.50741 0.5257 0.5365 0.545 0.5184 0.47924 0.49886 0.51357
2324.858 0.51197 0.5321 0.5583 0.5745 0.5393 0.5249 0.5371 0.5355 0.5617 0.5674
2344.152 0.5769 0.6082 0.591 0.5545 0.5585 0.5615 0.5632 0.6019 0.6115 0.59
2363.445 0.6023 0.5946 0.582 0.5821 0.5964 0.6272 0.6534 0.6468 0.6376 0.6711
2382.739 0.6665 0.6774 0.6937 0.6888 0.686 0.6675 0.6696 0.6842 0.6699 0.6456
2402.032 0.6393 0.6235 0.6386 0.6482 0.6093 0.6156 0.6252 0.5878 0.5776 0.586
2421.326 0.5554 0.5609 0.5791 0.5769 0.578 0.5551 0.5295 0.523 0.517 0.5294
2440.619 0.5531 0.5521 0.5578 0.5956 0.6182 0.606 0.6369 0.6865 0.6763 0.6165
2459.912 0.6057 0.659 0.6517 0.6394 0.6224 0.6059 0.6418 0.6586 0.6621 0.6356
2479.206 0.5885 0.5784 0.6088 0.637 0.6321 0.6135 0.615 0.6206 0.6173 0.6134
2498.499 0.6289 0.6385 0.6331 0.6334 0.6348 0.6459 0.6389 0.6221 0.612 0.6074
2517.793 0.642 0.6379 0.5965 0.6266 0.6734 0.6952 0.7099 0.6934 0.6746 0.6881
2537.086 0.7019 0.6598 0.643 0.71 0.734 0.7522 0.7523 0.7412 0.7578 0.7478
2556.380 0.7097 0.6723 0.7009 0.7358 0.7279 0.6876 0.6906 0.6984 0.6899 0.6676
2575.673 0.6344 0.6395 0.5988 0.5425 0.5465 0.5763 0.5725 0.5624 0.5518 0.5347
2594.966 0.5418 0.5347 0.5248 0.5428 0.5396 0.562 0.5515 0.517 0.5075 0.506
2614.260 0.5526 0.5897 0.5545 0.51353 0.564 0.6061 0.62 0.6208 0.5902 0.572
2633.553 0.5808 0.612 0.6248 0.6485 0.6378 0.631 0.6558 0.6356 0.6298 0.6611
2652.847 0.6823 0.6753 0.6451 0.6074 0.573 0.6057 0.6635 0.6459 0.6578 0.6897
2672.140 0.6938 0.6988 0.6904 0.6932 0.6778 0.6304 0.6574 0.723 0.7151 0.7034
2691.434 0.7237 0.756 0.7544 0.7285 0.7371 0.7442 0.7592 0.7479 0.7573 0.8074
2710.727 0.7991 0.7875 0.7469 0.738 0.7652 0.7588 0.799 0.818 0.8167 0.7848
2730.020 0.7331 0.7533 0.7831 0.7684 0.7827 0.8123 0.7975 0.7903 0.8203 0.8012
2749.314 0.7144 0.6962 0.7757 0.8017 0.7843 0.7681 0.7306 0.7359 0.7617 0.7346
2768.607 0.7216 0.7196 0.7383 0.7332 0.7225 0.7546 0.7252 0.7078 0.724 0.6809
2787.901 0.7225 0.7943 0.7599 0.749 0.7803 0.7812 0.7573 0.7823 0.7823 0.7472
2807.194 0.7883 0.8105 0.7482 0.7417 0.7688 0.7649 0.7516 0.7706 0.787 0.7301
2826.488 0.7165 0.8016 0.8385 0.8338 0.8398 0.7978 0.8143 0.8166 0.81 0.8424
2845.781 0.8463 0.8492 0.8309 0.8486 0.9 0.922 0.8863 0.8683 0.889 0.8407
2865.074 0.8101 0.8548 0.8027 0.7728 0.8371 0.785 0.6901 0.6783 0.6955 0.6681
2884.368 0.597 0.6507 0.7288 0.6997 0.7031 0.6995 0.6362 0.6382 0.6805 0.6317
2903.661 0.6024 0.6548 0.6267 0.6396 0.6545 0.643 0.6268 0.5999 0.6159 0.5955
2922.955 0.5826 0.583 0.6204 0.6119 0.5854 0.5525 0.5529 0.6305 0.5963 0.5705
2942.248 0.6264 0.6811 0.713 0.6657 0.5688 0.5157 0.5497 0.594 0.5954 0.5494
2961.542 0.5646 0.5838 0.5243 0.5499 0.5949 0.6004 0.6334 0.5686 0.50206 0.49413
2980.835 0.50977 0.5157 0.45113 0.48276 0.5606 0.5314 0.5732 0.6211 0.50255 0.3821
3000.128 0.4026 0.48963 0.48574 0.4463 0.45915 0.43523 0.45904 0.531 0.532 0.5357
3019.422 0.47241 0.3706 0.3847 0.46823 0.5631 0.642 0.5725 0.49469 0.47873 0.50592
3038.715 0.6075 0.6581 0.6922 0.6351 0.5576 0.5768 0.5992 0.563 0.48961 0.522
3058.009 0.5577 0.5304 0.50846 0.4927 0.46557 0.49365 0.5844 0.6356 0.653 0.6554
3077.302 0.612 0.5583 0.5756 0.5807 0.5755 0.5967 0.534 0.5314 0.6246 0.6365
3096.596 0.658 0.7204 0.6903 0.6574 0.6832 0.6554 0.7058 0.7816 0.7737 0.7952
3115.889 0.8151 0.8013 0.8655 0.8301 0.821 0.9631 0.9799 0.997 1.0211 0.9291
3135.182 0.904 0.9606 0.8527 0.6879 0.6499 0.6816 0.6984 0.7195 0.6403 0.5636
3154.476 0.6284 0.6377 0.6273 0.6296 0.5955 0.5689 0.5391 0.49236 0.43184 0.417266
3173.769 0.49694 0.5593 0.5735 0.6375 0.6792 0.6878 0.6587 0.6143 0.5467 0.5709
3193.063 0.554 0.47758 0.531 0.46322 0.3754 0.420745 0.5435 0.5404 0.40516 0.3587
3212.356 0.43046 0.46331 0.3839 0.41801 0.50576 0.47725 0.51358 0.5232 0.418176 0.3989
3231.650 0.46743 0.50829 0.4383 0.3818 0.3815 0.3435 0.419136 0.46136 0.3829 0.418629
3250.943 0.48343 0.5229 0.5333 0.46716 0.3952 0.3254 0.3245 0.3577 0.3436 0.3454
3270.236 0.40795 0.3754 0.3413 0.43288 0.48974 0.47681 0.44794 0.423495 0.457 0.44514
3289.530 0.3715 0.3792 0.41217 0.3632 0.3371 0.3389 0.282 0.3236 0.3811 0.3646
3308.823 0.3579 0.312 0.332 0.3716 0.3379 0.314 0.3513 0.4002 0.287 0.277
3328.117 0.314 0.3164 0.3747 0.384 0.422358 0.40881 0.3427 0.305 0.3219 0.272
3347.410 0.211 0.262 0.228 0.209 0.262 0.254 0.282 0.3331 0.3181 0.308
3366.704 0.3524 0.3928 0.42109 0.3793 0.223 0.181 0.201 0.286 0.267 0.268
3385.997 0.305 0.235 0.312 0.3686 0.24 0.134 0.227 0.294 0.218 0.171
3405.290 0.224 0.197 0.083 0.137 0.215 0.151 0.167 0.166 0.14 0.18
3424.584 0.179 0.222 0.211 0.181 0.162 0.09 0.137 0.208 0.169 0.209
3443.877 0.206 0.127 0.101 0.065 0.072 0.14 0.174 0.149 0.144 0.069
3463.171 0.075 0.081 0.042 0.035 0.056 0.118 0.121 0.083 0.118 0.11
3482.464 0.089 0.064 0.009 0.055 0.121 0.13 0.099 0.146 0.109 0.107
3501.758 0.138 0.107 0.057 0.074 0.212 0.197 0.215 0.277 0.206 0.179
3521.051 0.199 0.192 0.207 0.219 0.275 0.278 0.248 0.254 0.219 0.158
3540.344 0.169 0.136 0.07 0.186 0.19 0.126 0.111 0.134 0.216 0.246
3559.638 0.151 0.145 0.18 0.198 0.241 0.128 0.14 0.169 0.132 0.143
3578.931 0.147 0.141 0.075 0.126 0.109 0.053 0.118 0.131 0.204 0.187
3598.225 0.138 0.157 0.192 0.175 0.156 0.138 0.055 0.066 0.081 0.093
3617.518 0.155 0.148 0.143 0.219 0.245 0.184 0.207 0.195 0.149 0.156
3636.812 0.094 0.044 0.062 0.102 0.144 0.176 0.085 0.024 0.076 0.119
3656.105 0.121 0.122 0.17 0.211 0.173 0.181 0.182 0.116 0.119 0.115
3675.398 0.138 0.176 0.177 0.109 0.083 0.115 0.095 0.078 0.093 0.091
3694.692 0.085 0.113 0.136 0.149 0.135 0.104 0.134 0.202 0.144 0.087
3713.985 0.095 0.093 0.142 0.145 0.119 0.152 0.218 0.212 0.222 0.178
3733.279 0.033 0.119 0.185 0.107 0.082 0.092 0.119 0.094 0.023 0.082
3752.572 0.095 0.04 0.128 0.134 0.055 0.084 0.211 0.266 0.214 0.152
3771.866 0.131 0.174 0.209 0.179 0.154 0.104 0.158 0.225 0.166 0.099
3791.159 0.095 0.046 0 0.121 0.188 0.173 0.154 0.1 0.104 0.178
3810.452 0.157 0.158 0.201 0.149 0.121 0.15 0.155 0.097 0.084 0.133
3829.746 0.13 0.131 0.162 0.103 0.086 0.1 0.055 0.114 0.143 0.102
3849.039 0.072 0.084 0.115 0.151 0.208 0.181 0.116 0.141 0.164 0.139
3868.333 0.09 0.119 0.216 0.205 0.138 0.105 0.09 0.07 0.085 0.095
3887.626 0.142 0.195 0.152 0.128 0.182 0.191 0.166 0.244 0.249 0.185
3906.920 0.201 0.224 0.207 0.19 0.129 0.149 0.217 0.207 0.171 0.157
3926.213 0.125 0.094 0.173 0.184 0.201 0.198 0.17 0.126 0.03 0.074
3945.506 0.131 0.123 0.147 0.193 0.147 0.112 0.117 0.114 0.098 0.032
3964.800 0.139 0.236 0.221 0.2 0.161 0.18 0.158 0.111 0.184 0.217
3984.093 0.151 0.156 0.175 0.198 0.234 0.219 0.182 0.087 0.112
##END=
