##TITLE=Thiodiglycolic anhydride
##JCAMP-DX=4.24
##DATA TYPE=INFRARED SPECTRUM
##ORIGIN=EPA-IR VAPOR PHASE LIBRARY
##OWNER=SRD/NIST
Collection (C) 2018 copyright by the U.S. Secretary of Commerce
on behalf of the United States of America. All rights reserved.
##CAS REGISTRY NO=3261-87-8
##MOLFORM=C 4 H 4 O 3 S
##$NIST SOURCE=MSDC-IR
##STATE=gas
##XUNITS=1/CM
##YUNITS=ABSORBANCE
##XFACTOR=1.
##YFACTOR=0.001
##DELTAX=1.92934
##FIRSTX=549.9
##LASTX=3999.5
##FIRSTY=1.896
##MAXX=3999.53
##MINX=549.863
##MAXY=0.034636
##MINY=0
##NPOINTS=1789
##XYDATA=(X++(Y..Y))
549.863 1.896 1.836 1.836 1.846 1.736 1.706 1.726 1.706 1.696 1.686
569.156 1.656 1.636 1.576 1.606 1.686 1.496 1.4295 1.556 1.516 1.626
588.450 1.716 1.596 1.606 1.676 1.766 1.776 1.756 1.796 1.866 1.806
607.743 1.716 1.656 1.576 1.566 1.546 1.4538 1.3913 1.4055 1.3217 1.1972
627.037 1.121 1.087 1.0349 0.9765 0.9457 0.9052 0.8597 0.7934 0.7571 0.7283
646.330 0.6931 0.6271 0.6078 0.6255 0.55545 0.51631 0.54436 0.57911 0.5972 0.54448
665.624 0.6477 1.0336 0.9424 0.6033 0.5387 0.50841 0.432 0.4218 0.4399 0.4584
684.917 0.498271 0.5208 0.57311 0.51934 0.4712 0.49287 0.4837 0.4588 0.4549 0.4785
704.210 0.48648 0.4192 0.4308 0.4773 0.4609 0.4826 0.4831 0.502981 0.4561 0.381
723.504 0.41 0.446 0.4708 0.442 0.39 0.4113 0.4456 0.4062 0.4165 0.49175
742.797 0.49448 0.4859 0.4737 0.482 0.5464 0.5968 0.6579 0.6762 0.6705 0.7161
762.091 0.7765 0.8612 0.9326 0.9957 1.0701 1.1109 1.1513 1.1713 1.1629 1.2461
781.384 1.296 1.253 1.2159 1.2137 1.2595 1.2361 1.1412 1.0741 1.0209 0.9293
800.678 0.9215 0.9101 0.8343 0.8297 0.8335 0.8053 0.7957 0.7656 0.7322 0.7369
819.971 0.7022 0.67 0.6488 0.633 0.6326 0.5972 0.59024 0.613 0.56102 0.52343
839.264 0.55076 0.55473 0.56002 0.55464 0.57654 0.55837 0.52439 0.498954 0.4261 0.438
858.558 0.458 0.4111 0.4485 0.502417 0.502804 0.496754 0.50623 0.56105 0.58654 0.55311
877.851 0.53678 0.54433 0.5995 0.6444 0.6053 0.6218 0.6713 0.7003 0.7296 0.8171
897.145 0.8494 0.8534 0.9349 1.0191 1.1137 1.2045 1.3469 1.576 1.776 2.026
916.438 2.326 2.676 3.116 3.616 4.136 4.656 5.196 5.726 6.146 6.506
935.732 6.726 6.736 6.676 6.556 6.346 6.026 5.636 5.156 4.606 4.016
955.025 3.366 2.726 2.156 1.746 1.4288 1.1718 1.0303 0.9172 0.865 0.9002
974.318 0.8887 0.8423 0.7871 0.7699 0.8313 0.8049 0.7366 0.7253 0.7739 0.8216
993.612 0.8221 0.8281 0.8367 0.8684 0.9132 1.0107 1.1032 1.1631 1.2667 1.3824
1012.905 1.526 1.696 1.926 2.186 2.456 2.876 3.396 3.946 4.606 5.406
1032.199 6.346 7.426 8.676 10.116 11.676 13.376 15.146 16.926 18.656 20.346
1051.492 21.856 23.076 24.106 24.786 24.986 24.776 24.186 23.236 21.946 20.376
1070.786 18.576 16.566 14.426 12.316 10.416 8.606 6.966 5.656 4.636 3.956
1090.079 3.496 3.256 3.136 3.056 3.046 3.026 2.976 2.986 3.016 3.006
1109.372 3.076 3.086 3.086 3.236 3.356 3.386 3.376 3.446 3.626 3.806
1128.666 3.946 4.256 4.516 4.616 4.746 4.986 5.286 5.516 5.766 5.946
1147.959 6.106 6.176 6.266 6.336 6.316 6.336 6.296 6.146 5.996 5.796
1167.253 5.396 5.026 4.776 4.506 4.276 4.056 3.756 3.346 3.006 2.726
1186.546 2.626 2.566 2.376 2.406 2.426 2.506 2.766 2.946 3.016 3.206
1205.840 3.566 3.846 4.216 4.586 4.886 5.096 5.386 5.716 5.976 6.136
1225.133 6.176 6.236 6.306 6.326 6.366 6.526 6.596 6.646 6.746 6.716
1244.426 6.726 6.716 6.476 6.186 5.906 5.586 5.226 4.896 4.516 4.126
1263.720 3.786 3.356 2.856 2.336 1.986 1.756 1.516 1.3139 1.1889 1.0647
1283.013 0.9952 0.9493 0.8906 0.8424 0.785 0.7155 0.6406 0.6435 0.6956 0.6811
1302.307 0.6318 0.6554 0.7057 0.6658 0.611 0.6002 0.6512 0.7004 0.6891 0.6747
1321.600 0.6448 0.6397 0.6532 0.6652 0.7031 0.7385 0.7502 0.7782 0.786 0.7877
1340.894 0.8184 0.8488 0.8802 0.8957 0.8862 0.8521 0.8116 0.7857 0.7934 0.7932
1360.187 0.7634 0.7392 0.7225 0.6929 0.6639 0.6369 0.6258 0.6405 0.6188 0.6151
1379.480 0.6658 0.692 0.6933 0.7197 0.7342 0.8087 0.8593 0.8858 1.0075 1.0877
1398.774 1.1358 1.2119 1.2774 1.3985 1.526 1.606 1.646 1.646 1.616 1.546
1418.067 1.506 1.4629 1.4151 1.3678 1.2824 1.1965 1.1376 1.0705 1.0151 0.9229
1437.361 0.8592 0.8406 0.8161 0.79 0.7524 0.7318 0.7098 0.6837 0.6626 0.6546
1456.654 0.6475 0.6406 0.6473 0.6214 0.5903 0.6204 0.6251 0.57298 0.51196 0.4723
1475.948 0.4564 0.4499 0.4731 0.4572 0.4283 0.4456 0.431 0.398 0.378 0.352
1495.241 0.337 0.358 0.344 0.32 0.362 0.359 0.323 0.335 0.353 0.347
1514.534 0.356 0.367 0.371 0.343 0.296 0.325 0.332 0.339 0.354 0.319
1533.828 0.31 0.34 0.32 0.311 0.333 0.296 0.288 0.376 0.4228 0.4011
1553.121 0.391 0.33 0.315 0.38 0.3996 0.4099 0.4147 0.3988 0.4005 0.4004
1572.415 0.4068 0.4248 0.4234 0.374 0.368 0.417 0.4311 0.4127 0.4493 0.4742
1591.708 0.4453 0.4415 0.4569 0.4635 0.4123 0.3972 0.44 0.4223 0.3999 0.4211
1611.002 0.427 0.4246 0.4179 0.356 0.339 0.368 0.391 0.4393 0.4222 0.365
1630.295 0.3963 0.4116 0.4119 0.442 0.4165 0.376 0.365 0.381 0.4287 0.4373
1649.588 0.4179 0.4558 0.4547 0.4458 0.4461 0.4564 0.4833 0.4769 0.4784 0.4848
1668.882 0.4839 0.48802 0.51845 0.53148 0.499415 0.499755 0.5248 0.54863 0.5785 0.56978
1688.175 0.52217 0.53365 0.6107 0.6826 0.6792 0.6392 0.6791 0.7212 0.7311 0.7562
1707.469 0.779 0.8302 0.8967 0.9344 0.9648 1.0326 1.1027 1.1962 1.3056 1.342
1726.762 1.4102 1.546 1.656 1.776 1.946 2.116 2.276 2.436 2.666 2.956
1746.056 3.226 3.526 3.866 4.276 4.746 5.266 5.936 6.666 7.586 8.716
1765.349 10.116 11.856 13.956 16.406 19.176 22.046 24.926 27.576 29.816 31.656
1784.642 33.086 34.116 34.636 34.556 34.026 33.116 31.646 29.546 26.966 24.206
1803.936 21.576 19.366 17.676 16.536 15.866 15.546 15.396 15.286 15.226 15.086
1823.229 14.786 14.376 13.876 13.316 12.556 11.586 10.496 9.276 7.966 6.686
1842.523 5.536 4.576 3.846 3.306 2.886 2.566 2.346 2.156 1.976 1.836
1861.816 1.736 1.666 1.576 1.4851 1.4049 1.3238 1.2535 1.1901 1.1465 1.0812
1881.110 1.0115 0.9666 0.9252 0.8798 0.8052 0.766 0.7724 0.7221 0.6587 0.6617
1900.403 0.6764 0.6512 0.615 0.58742 0.5993 0.6047 0.57432 0.54627 0.548 0.56169
1919.696 0.57153 0.57935 0.57293 0.56424 0.52567 0.48694 0.4845 0.4748 0.4629 0.4688
1938.990 0.48612 0.447 0.4078 0.4051 0.4081 0.4187 0.408 0.394 0.38 0.376
1958.283 0.385 0.3963 0.4002 0.394 0.386 0.388 0.384 0.327 0.29 0.297
1977.577 0.331 0.381 0.37 0.342 0.346 0.363 0.348 0.347 0.378 0.378
1996.870 0.387 0.394 0.358 0.331 0.33 0.32 0.323 0.33 0.329 0.345
2016.164 0.33 0.325 0.368 0.357 0.321 0.315 0.313 0.308 0.315 0.327
2035.457 0.323 0.349 0.378 0.389 0.38 0.354 0.363 0.374 0.353 0.341
2054.750 0.353 0.351 0.345 0.317 0.33 0.368 0.377 0.374 0.355 0.332
2074.044 0.344 0.362 0.337 0.329 0.35 0.338 0.291 0.276 0.298 0.325
2093.337 0.316 0.309 0.296 0.29 0.308 0.317 0.323 0.307 0.338 0.38
2112.631 0.364 0.354 0.332 0.31 0.353 0.385 0.354 0.342 0.358 0.387
2131.924 0.381 0.366 0.37 0.352 0.339 0.368 0.388 0.381 0.374 0.367
2151.218 0.373 0.382 0.366 0.355 0.371 0.376 0.387 0.391 0.377 0.373
2170.511 0.353 0.354 0.386 0.4081 0.394 0.367 0.354 0.364 0.368 0.375
2189.804 0.366 0.357 0.38 0.382 0.352 0.34 0.371 0.38 0.35 0.317
2209.098 0.331 0.352 0.337 0.332 0.357 0.369 0.351 0.34 0.36 0.371
2228.391 0.374 0.383 0.383 0.379 0.391 0.4033 0.382 0.353 0.379 0.4188
2247.685 0.4084 0.385 0.4033 0.4377 0.4408 0.4246 0.4217 0.4526 0.4846 0.499393
2266.978 0.4793 0.4825 0.5084 0.5359 0.56965 0.59234 0.5908 0.59548 0.6178 0.6376
2286.272 0.6707 0.6805 0.702 0.7337 0.771 0.8191 0.8726 0.8902 0.9099 0.9493
2305.565 0.9822 1.0546 1.0948 1.1007 1.136 1.1685 1.1977 1.2367 1.2762 1.2732
2324.858 1.2594 1.2902 1.2676 1.2674 1.27 1.2242 1.204 1.217 1.2303 1.1662
2344.152 1.0589 0.9795 0.9294 0.9643 1.0995 1.1845 1.2818 1.4188 1.496 1.556
2363.445 1.606 1.576 1.556 1.4902 1.3731 1.2837 1.1309 1.0065 0.8941 0.7609
2382.739 0.6306 0.54732 0.4841 0.4036 0.349 0.329 0.321 0.347 0.382 0.38
2402.032 0.353 0.32 0.311 0.328 0.32 0.271 0.265 0.267 0.272 0.306
2421.326 0.308 0.274 0.263 0.293 0.286 0.269 0.254 0.239 0.281 0.268
2440.619 0.256 0.299 0.269 0.252 0.247 0.231 0.224 0.271 0.299 0.257
2459.912 0.241 0.229 0.256 0.256 0.286 0.31 0.279 0.263 0.26 0.284
2479.206 0.284 0.254 0.246 0.268 0.278 0.289 0.261 0.259 0.279 0.249
2498.499 0.22 0.246 0.233 0.217 0.252 0.249 0.241 0.244 0.255 0.243
2517.793 0.201 0.208 0.229 0.216 0.218 0.194 0.177 0.18 0.166 0.2
2537.086 0.241 0.229 0.239 0.239 0.208 0.181 0.191 0.212 0.208 0.216
2556.380 0.205 0.218 0.26 0.253 0.238 0.238 0.244 0.234 0.221 0.21
2575.673 0.234 0.259 0.215 0.184 0.243 0.267 0.237 0.214 0.227 0.246
2594.966 0.246 0.255 0.218 0.216 0.25 0.274 0.293 0.279 0.213 0.199
2614.260 0.265 0.255 0.222 0.25 0.272 0.247 0.217 0.184 0.194 0.263
2633.553 0.268 0.228 0.228 0.26 0.261 0.231 0.226 0.215 0.23 0.272
2652.847 0.277 0.268 0.248 0.224 0.212 0.225 0.215 0.189 0.215 0.226
2672.140 0.275 0.268 0.219 0.213 0.198 0.214 0.22 0.233 0.226 0.209
2691.434 0.209 0.256 0.311 0.308 0.237 0.221 0.233 0.217 0.24 0.218
2710.727 0.2 0.226 0.245 0.266 0.253 0.265 0.263 0.2 0.185 0.219
2730.020 0.222 0.267 0.303 0.267 0.25 0.275 0.294 0.296 0.266 0.279
2749.314 0.302 0.204 0.183 0.256 0.275 0.284 0.295 0.314 0.313 0.267
2768.607 0.228 0.217 0.256 0.264 0.256 0.241 0.257 0.283 0.253 0.267
2787.901 0.269 0.257 0.278 0.271 0.262 0.281 0.315 0.313 0.298 0.264
2807.194 0.279 0.274 0.221 0.21 0.199 0.209 0.244 0.288 0.295 0.261
2826.488 0.219 0.213 0.229 0.218 0.279 0.324 0.297 0.198 0.2 0.276
2845.781 0.267 0.221 0.247 0.283 0.238 0.288 0.268 0.239 0.267 0.27
2865.074 0.311 0.309 0.257 0.217 0.153 0.15 0.273 0.382 0.335 0.247
2884.368 0.209 0.251 0.394 0.4591 0.4129 0.4302 0.49079 0.51141 0.51367 0.6347
2903.661 0.675 0.6275 0.688 0.725 0.7784 0.7964 0.7516 0.8844 1.0777 0.9762
2922.955 0.8668 0.8734 0.866 0.8393 0.8116 0.792 0.7069 0.6712 0.6364 0.59431
2942.248 0.6102 0.58675 0.4666 0.4187 0.4697 0.4525 0.392 0.375 0.355 0.367
2961.542 0.395 0.369 0.292 0.245 0.311 0.312 0.264 0.221 0.276 0.376
2980.835 0.271 0.225 0.394 0.4042 0.394 0.361 0.267 0.382 0.4024 0.251
3000.128 0.246 0.269 0.211 0.2 0.215 0.321 0.279 0.113 0.197 0.291
3019.422 0.223 0.193 0.276 0.206 0.192 0.329 0.341 0.218 0.143 0.189
3038.715 0.208 0.242 0.24 0.209 0.212 0.253 0.214 0.214 0.253 0.164
3058.009 0.191 0.243 0.151 0.173 0.233 0.297 0.4063 0.4223 0.38 0.368
3077.302 0.351 0.352 0.304 0.223 0.137 0.164 0.165 0.087 0.115 0.113
3096.596 0.113 0.165 0.176 0.167 0.206 0.204 0.184 0.224 0.216 0.232
3115.889 0.248 0.151 0.134 0.19 0.215 0.201 0.199 0.206 0.173 0.156
3135.182 0.138 0.13 0.162 0.115 0.132 0.228 0.268 0.166 0.022 0.112
3154.476 0.266 0.283 0.214 0.164 0.194 0.218 0.202 0.085 0.137 0.211
3173.769 0.111 0.161 0.073 0 0.071 0.077 0.1 0.233 0.341 0.292
3193.063 0.228 0.175 0.124 0.156 0.207 0.213 0.279 0.318 0.208 0.175
3212.356 0.284 0.192 0.08 0.134 0.12 0.127 0.18 0.245 0.167 0.14
3231.650 0.2 0.188 0.237 0.214 0.242 0.335 0.272 0.124 0.13 0.269
3250.943 0.322 0.256 0.222 0.285 0.276 0.214 0.171 0.155 0.239 0.307
3270.236 0.235 0.125 0.194 0.281 0.226 0.134 0.137 0.162 0.165 0.129
3289.530 0.062 0.158 0.127 0.052 0.234 0.246 0.149 0.164 0.168 0.162
3308.823 0.119 0.149 0.168 0.245 0.306 0.197 0.233 0.308 0.281 0.261
3328.117 0.288 0.316 0.251 0.246 0.331 0.339 0.326 0.281 0.258 0.338
3347.410 0.373 0.368 0.336 0.237 0.167 0.218 0.237 0.189 0.184 0.303
3366.704 0.318 0.168 0.142 0.192 0.272 0.331 0.23 0.169 0.2 0.283
3385.997 0.329 0.286 0.304 0.337 0.348 0.165 0.133 0.249 0.29 0.348
3405.290 0.306 0.261 0.271 0.335 0.306 0.193 0.181 0.215 0.24 0.205
3424.584 0.191 0.222 0.298 0.22 0.117 0.239 0.295 0.324 0.308 0.305
3443.877 0.288 0.207 0.226 0.211 0.23 0.301 0.35 0.299 0.255 0.276
3463.171 0.311 0.271 0.136 0.297 0.375 0.383 0.4691 0.392 0.219 0.153
3482.464 0.224 0.25 0.308 0.264 0.217 0.307 0.365 0.304 0.278 0.307
3501.758 0.238 0.173 0.235 0.375 0.388 0.321 0.352 0.345 0.313 0.279
3521.051 0.361 0.383 0.343 0.309 0.327 0.4182 0.4281 0.4224 0.365 0.374
3540.344 0.3987 0.4657 0.501876 0.4487 0.4624 0.49329 0.54204 0.59011 0.6473 0.6033
3559.638 0.50755 0.53499 0.648 0.6559 0.57362 0.5979 0.6644 0.715 0.8087 0.842
3578.931 0.7584 0.7975 0.7916 0.7443 0.8339 0.8384 0.7662 0.8299 0.9458 0.886
3598.225 0.7805 0.8081 0.8034 0.7816 0.8022 0.8219 0.7974 0.7565 0.6214 0.4451
3617.518 0.501799 0.55244 0.53678 0.53099 0.56868 0.58483 0.53971 0.51662 0.504592 0.51715
3636.812 0.4548 0.4068 0.432 0.52635 0.52536 0.4495 0.4411 0.50604 0.59184 0.6318
3656.105 0.55783 0.4009 0.4002 0.497506 0.51938 0.4641 0.4218 0.4363 0.48984 0.4726
3675.398 0.4462 0.4794 0.495206 0.4614 0.39 0.4488 0.4739 0.4149 0.353 0.338
3694.692 0.4052 0.377 0.333 0.271 0.332 0.4472 0.4404 0.4738 0.48874 0.4069
3713.985 0.4531 0.4053 0.302 0.325 0.33 0.364 0.341 0.4105 0.4441 0.4341
3733.279 0.4244 0.4093 0.4119 0.419 0.4465 0.4781 0.505193 0.501636 0.4368 0.4212
3752.572 0.4476 0.387 0.4227 0.4283 0.4098 0.423 0.4466 0.4587 0.4081 0.371
3771.866 0.4244 0.369 0.31 0.4296 0.4195 0.4451 0.48627 0.4115 0.386 0.374
3791.159 0.384 0.4211 0.497059 0.58698 0.56026 0.53823 0.57489 0.496019 0.3982 0.314
3810.452 0.31 0.365 0.4202 0.422 0.38 0.3999 0.4243 0.497587 0.446 0.367
3829.746 0.373 0.372 0.369 0.323 0.324 0.357 0.4097 0.386 0.341 0.4358
3849.039 0.4811 0.4157 0.389 0.4082 0.375 0.391 0.4521 0.4222 0.4081 0.403
3868.333 0.381 0.3964 0.4445 0.50659 0.4629 0.381 0.366 0.386 0.394 0.4568
3887.626 0.468 0.368 0.4002 0.4181 0.4574 0.54999 0.50958 0.4363 0.4631 0.362
3906.920 0.274 0.4139 0.4741 0.52333 0.55369 0.4639 0.4139 0.389 0.391 0.4102
3926.213 0.4167 0.4057 0.371 0.391 0.4244 0.4375 0.4054 0.4303 0.4768 0.53613
3945.506 0.4748 0.4341 0.4458 0.4031 0.394 0.357 0.361 0.3994 0.4495 0.412
3964.800 0.37 0.372 0.354 0.327 0.295 0.317 0.353 0.329 0.341 0.396
3984.093 0.363 0.4013 0.4518 0.388 0.4674 0.502068 0.4098 0.3962 0.4355
##END=
