##TITLE=1,2,4,5-Tetrafluorobenzene
##JCAMP-DX=4.24
##DATA TYPE=INFRARED SPECTRUM
##ORIGIN=NIST Mass Spectrometry Data Center
##OWNER=NIST Standard Reference Data Program
Collection (C) 2018 copyright by the U.S. Secretary of Commerce
on behalf of the United States of America. All rights reserved.
##CAS REGISTRY NO=327-54-8
##MOLFORM=C 6 H 2 F 4
##$NIST SOURCE=MSDC-IR
##SPECTROMETER/DATA SYSTEM=HP-GC/MS/IRD
##STATE=gas
##XUNITS=1/CM
##YUNITS=ABSORBANCE
##XFACTOR=1.0
##YFACTOR=0.000001800
##DELTAX=4.0
##FIRSTX=550.0
##LASTX=3846.0
##FIRSTY=0.000144
##MAXX=3846
##MINX=550
##MAXY=0.018
##MINY=0
##NPOINTS=825
##XYDATA=(X++(Y..Y))
550.0 80 100 67 119 111 74 42 56 62 39
590.0 88 105 48 36 42 10 47 38 0 25
630.0 54 52 67 69 60 74 64 62 51 94
670.0 133 140 172 229 379 608 710 667 751 761
710.0 550 332 187 128 96 86 93 114 129 122
750.0 108 84 85 114 111 91 86 87 89 77
790.0 113 162 139 128 145 99 77 95 95 181
830.0 393 726 1199 1659 2026 2316 2440 2344 2487 2722
870.0 2408 2040 1719 1261 852 562 372 236 140 121
910.0 117 87 49 33 28 36 50 52 36 53
950.0 87 70 62 56 39 47 52 27 18 16
990.0 28 58 59 38 27 30 58 68 41 63
1030.0 71 10 19 44 47 55 15 20 65 74
1070.0 46 47 56 51 57 83 108 130 129 137
1110.0 168 187 230 286 318 334 370 422 577 892
1150.0 1412 2253 3064 3410 3331 2986 2114 1053 536 398
1190.0 368 381 428 596 912 1393 2069 2684 2763 2713
1230.0 2741 2118 1292 862 695 682 763 859 900 853
1270.0 751 617 449 329 280 265 248 248 252 235
1310.0 210 185 173 169 182 204 221 223 204 184
1350.0 158 135 133 127 114 108 109 109 110 110
1390.0 109 108 114 137 160 204 308 471 681 900
1430.0 1000 989 1010 906 642 458 344 244 186 159
1470.0 162 174 189 230 339 561 936 1403 1747 1924
1510.0 2150 2605 3563 5408 7755 9499 10000 9254 7323 4630
1550.0 2271 1050 571 379 302 260 226 200 195 216
1590.0 220 218 205 182 175 162 159 164 151 147
1630.0 162 167 178 194 213 223 208 205 195 180
1670.0 180 167 159 159 174 197 216 216 223 218
1710.0 190 162 128 106 89 69 68 83 90 83
1750.0 64 69 90 83 91 94 76 81 93 91
1790.0 89 104 108 97 93 104 109 126 142 146
1830.0 149 148 130 104 81 79 79 79 81 75
1870.0 72 62 63 70 72 57 56 59 69 73
1910.0 68 70 75 80 72 66 56 61 67 70
1950.0 76 79 82 74 57 57 65 66 68 72
1990.0 69 59 64 65 65 68 60 53 50 50
2030.0 51 49 53 54 48 52 51 49 52 51
2070.0 61 53 53 67 55 51 71 76 69 65
2110.0 55 57 55 40 41 56 57 57 59 44
2150.0 28 39 53 44 38 45 50 45 49 60
2190.0 53 47 47 45 39 45 63 76 81 84
2230.0 88 81 72 66 69 59 54 72 80 79
2270.0 76 90 101 95 90 64 41 51 56 56
2310.0 61 61 46 34 50 72 105 106 86 88
2350.0 93 100 108 85 64 62 48 34 39 49
2390.0 37 31 42 36 33 37 36 37 36 43
2430.0 39 37 44 43 44 42 38 34 34 31
2470.0 21 22 32 33 29 26 42 57 55 55
2510.0 48 36 44 47 49 75 104 97 75 80
2550.0 87 82 69 76 88 90 93 70 38 39
2590.0 41 34 30 54 63 39 38 51 42 37
2630.0 35 36 73 78 65 57 49 66 65 34
2670.0 7 13 24 30 24 17 21 28 31 36
2710.0 35 22 27 18 9 37 25 3 19 38
2750.0 26 3 10 11 16 46 46 27 12 27
2790.0 51 36 32 44 32 18 20 15 21 15
2830.0 6 16 31 17 26 56 52 34 33 47
2870.0 50 51 39 36 40 39 59 66 63 74
2910.0 95 84 56 37 22 37 39 11 19 26
2950.0 39 41 19 20 36 20 37 69 40 21
2990.0 27 29 42 43 61 59 52 75 77 67
3030.0 46 39 52 62 56 66 50 26 50 67
3070.0 69 86 106 119 129 118 111 113 97 71
3110.0 58 74 76 71 97 79 40 58 54 12
3150.0 18 51 76 72 69 84 71 19 28 44
3190.0 14 58 92 54 59 51 87 73 47 60
3230.0 20 5 38 68 65 58 57 46 35 40
3270.0 36 35 67 65 67 78 60 44 53 71
3310.0 70 67 79 64 36 55 58 27 42 94
3350.0 104 69 63 91 96 67 61 61 60 57
3390.0 59 72 56 47 62 70 61 45 47 88
3430.0 102 111 98 87 122 112 80 90 105 96
3470.0 79 104 113 123 127 122 127 89 75 87
3510.0 70 67 82 134 121 79 104 100 88 77
3550.0 46 56 102 106 108 110 113 110 114 128
3590.0 117 114 118 103 119 125 98 68 67 84
3630.0 113 123 86 71 69 59 70 103 127 130
3670.0 122 119 108 107 99 79 87 98 83 43
3710.0 59 97 89 85 109 144 141 99 106 104
3750.0 125 155 119 105 117 102 74 97 117 119
3790.0 122 108 88 103 124 145 140 66 43 59
3830.0 73 120 122 71 77
##END=
