##TITLE=3,5-Bis(trifluoromethyl)benzyl alcohol
##JCAMP-DX=4.24
##DATA TYPE=INFRARED SPECTRUM
##ORIGIN=EPA-IR VAPOR PHASE LIBRARY
##OWNER=SRD/NIST
Collection (C) 2018 copyright by the U.S. Secretary of Commerce
on behalf of the United States of America. All rights reserved.
##CAS REGISTRY NO=32707-89-4
##MOLFORM=C 9 H 6 F 6 O
##$NIST SOURCE=MSDC-IR
##STATE=gas
##XUNITS=1/CM
##YUNITS=ABSORBANCE
##XFACTOR=1.
##YFACTOR=0.001
##DELTAX=1.92898
##FIRSTX=549.8
##LASTX=4000.7
##FIRSTY=3.29
##MAXX=4000.7
##MINX=549.759
##MAXY=0.6013
##MINY=0
##NPOINTS=1790
##XYDATA=(X++(Y..Y))
549.759 3.29 4.13 3.9 4.58 4.67 3.91 3.11 3.33 4.18 4.27
569.049 4.43 3.98 3.59 4.01 3.71 3.68 4.39 4.25 4.2 4.72
588.339 5.09 4.92 5.43 5.13 4.01 4.11 3.82 3.95 4.2 3.98
607.628 3.57 3.72 3.64 2.89 3.25 3.75 3.73 3.86 4.02 3.88
626.918 3.77 3.93 4.11 4.14 3.74 3.69 3.9 4.02 4.81 5.28
646.208 5.63 6.54 7.22 7.28 7.9 8.16 7.8 7.84 7.53 7.21
665.498 7.05 7.15 8.21 9.6 12.22 20.03 34.59 51.17 60.54 65.46
684.787 66.08 60.77 50.71 33.91 20.5 15.07 13.9 14.98 17.65 20.83
704.077 25.03 28.2 26.26 21.64 18.11 14.66 11.5 9.02 7.69 7.15
723.367 6.43 6.97 7.88 8.01 7.96 7.68 7.02 5.32 3.59 3.34
742.657 3.35 2.77 2.32 2.69 2.79 2.86 2.96 2.65 1.8495 2.05
761.947 2.0034 1.3887 1.5462 1.4848 1.5307 2.14 2.57 2.67 2.56 2.09
781.236 2.05 2.17 2.35 2.42 2.34 1.8898 1.8013 2.08 1.9807 2.21
800.526 2.17 2.28 2.89 2.89 2.88 3.21 3.4 3.69 4.15 3.62
819.816 2.9 4.6 4.37 3.72 4.93 6 8.28 11.66 15.58 19.43
839.106 23.37 25.91 27.29 26.82 24.67 21.58 17.31 13.77 11.29 9.9
858.395 8.65 7.92 8.42 8.98 9.52 10.66 12.15 14.43 17.06 20.44
877.685 24.6 27.68 30.87 33.08 33.58 34.02 33.84 33.16 32.53 31.59
896.975 30.84 30.67 30.79 30.45 30.28 30.36 28.45 24.29 19.79 16.27
916.265 13.21 10.68 9.13 7.68 6.34 5.8 5.48 5.65 5.62 5.33
935.555 5.6 5.53 5.45 5.29 5.44 5.86 5.71 5.99 6.05 5.92
954.844 5.93 5.74 6.41 7.08 7.44 7.62 7.15 7.07 7.54 7.89
974.134 7.77 7.55 8.17 8.24 7.84 8.01 8.8 9.3 8.56 8.36
993.424 8.39 8.71 9.45 10.35 11.65 12.35 12.35 12.47 14.11 14.74
1012.714 15.13 15.94 16.31 16.92 16.99 17.17 17.25 18.23 18.94 18.64
1032.003 18.09 17.62 18.12 19.76 20.45 19.82 19.91 19.67 18.8 18.67
1051.293 18.36 17.7 17.13 16.64 16.07 15.42 15.04 14.62 14.8 14.35
1070.583 13.85 13.61 11.6 10.28 10.92 10.97 10.08 9.54 10.34 12.89
1089.873 14.13 13.35 13.47 15.07 16.44 17.69 21.77 26.2 30.56 35.01
1109.163 39.2 44.09 46.7 45.26 42.08 38.71 35.28 34.44 34.66 36.15
1128.452 42.39 50.39 60.7 76.23 95.28 122.37 158.4 201.26 252.85 311.69
1147.742 374.58 436.37 483.8 505.28 488.31 432.8 367.8 307.95 255.05 215.2
1167.032 197.23 204.34 232.02 273.26 323.04 373.89 417.3 444.63 447.81 430.39
1186.322 391.92 340.09 283.24 226.22 177.55 137.06 103.35 81.24 67.47 56.73
1205.611 50.09 46.34 42.24 39.77 38.69 35.82 34.51 35.27 33.95 33.16
1224.901 33.34 31.57 30.59 31.17 29.92 29.15 29.8 29.11 27.73 27.79
1244.191 28.1 28.3 29.62 31.01 32.5 35.93 41.11 46.59 54.53 65.52
1263.481 79.71 99.69 129.55 173.55 236.82 320.98 419.14 511.34 575.17 601.3
1282.771 583.19 519.77 417.55 298.25 195.24 126.4 87.08 64.66 50.9 41.94
1302.060 35.69 31.02 27.57 24.98 22.94 21.49 20.08 18.89 18.37 17.82
1321.350 17.44 17.24 16.88 16.73 16.88 17.14 17.35 18.16 19.54 21.22
1340.640 23.46 26.2 29.64 34.52 40.94 48.8 58.28 68.95 80.42 92.1
1359.930 102.42 110.78 116.17 117.73 115.63 109.74 100.92 90.42 79.25 68.7
1379.219 58.82 49.98 42.4 36.02 30.75 26.13 22.23 19.15 16.63 14.31
1398.509 12.49 11.13 10.03 9.39 8.87 8.6 8.45 8.22 8.25 7.98
1417.799 7.33 6.89 6.67 6.51 6.41 6.17 6.07 6.14 6.23 6.25
1437.089 6.36 6.24 6.17 6.44 6.73 7.29 8 8.8 9.67 10.22
1456.378 10.74 11.45 11.56 11.06 10.28 9.26 8.34 7.44 6.46 5.61
1475.668 4.98 4.35 3.82 3.43 3.48 3.64 3.67 3.52 3.19 3.04
1494.958 2.93 3.01 3.06 2.84 2.74 3.16 3.44 3.06 2.96 2.87
1514.248 2.52 2.46 2.55 2.61 2.52 2.62 2.71 2.6 2.37 2.24
1533.538 2.4 2.32 2.47 2.58 2.51 2.54 2.38 2.6 2.9 2.98
1552.827 2.88 2.82 2.81 2.76 2.54 2.52 2.54 2.36 2.55 2.77
1572.117 2.66 2.57 2.65 2.59 2.45 2.36 2.42 2.59 2.52 2.48
1591.407 2.33 2.57 2.81 2.87 3.11 3.33 3.74 3.93 4.46 4.96
1610.697 5.43 6.39 7.3 8.04 8.64 9.03 9.33 9.04 8.23 7.17
1629.986 6.2 5.25 4.41 4.23 3.9 3.37 3.21 3.32 3.37 2.99
1649.276 2.87 3.08 3.04 2.99 2.89 2.75 2.65 2.57 2.4 2.15
1668.566 2.21 2.12 1.9104 2.13 2.12 1.8306 1.8589 2.05 2.23 2.21
1687.856 2.0112 1.9562 2.07 2.11 1.9244 1.875 1.9586 1.976 1.9418 1.9466
1707.146 2.0108 1.9467 1.7638 1.8335 1.9473 2.11 2.18 1.9973 2.06 2.06
1726.435 2.1 2.16 1.9954 2.11 2.17 2.14 2.34 2.25 2.08 2.08
1745.725 2.0014 1.8277 2.0168 2.31 2.29 2.31 2.28 2.14 2.19 2.3
1765.015 2.37 2.17 1.9619 2.04 2.05 2.12 2.15 2.23 2.38 2.44
1784.305 2.65 2.81 3 3.08 3.24 3.69 3.99 4.25 4.67 4.97
1803.594 5.16 5.66 5.88 5.83 5.86 5.66 5.37 4.94 4.48 3.97
1822.884 3.54 3.2 2.98 2.84 2.74 2.84 2.77 2.56 2.47 2.32
1842.174 2.34 2.36 2.36 2.4 2.27 2.11 2.0044 1.99 2.0138 1.8983
1861.464 1.5765 1.64 1.8452 1.6836 1.6983 1.7258 1.6835 1.9948 2.0161 1.7811
1880.754 1.819 1.8533 1.9441 1.9716 1.7151 1.557 1.582 1.7306 1.7446 1.6681
1900.043 1.7894 1.667 1.5786 1.6462 1.6157 1.6725 1.7136 1.7566 1.7337 1.6777
1919.333 1.6685 1.5172 1.5163 1.541 1.4176 1.2685 1.3986 1.4325 1.4398 1.4501
1938.623 1.31 1.377 1.3741 1.433 1.3818 1.3121 1.4752 1.3923 1.1474 1.1622
1957.913 1.11235 1.1656 1.3668 1.1439 0.907 0.9954 1.384 1.4496 1.3761 1.4853
1977.202 1.4493 1.3227 1.3264 1.45 1.2303 1.3461 1.5492 1.409 1.3269 1.2747
1996.492 1.4048 1.5669 1.481 1.3936 1.4777 1.7134 1.8377 1.7811 1.7177 1.7916
2015.782 1.6161 1.492 1.6347 1.6028 1.4123 1.3749 1.5621 1.6343 1.5551 1.5795
2035.072 1.6653 1.6266 1.5152 1.3938 1.3369 1.1773 1.2041 1.3283 1.3131 1.1711
2054.362 1.177 1.309 1.276 1.3662 1.4613 1.4429 1.3158 1.1885 1.4059 1.5709
2073.651 1.5752 1.577 1.3366 1.2845 1.42 1.6076 1.5934 1.4006 1.3716 1.421
2092.941 1.4903 1.5321 1.628 1.4308 1.256 1.4484 1.5191 1.6076 1.6213 1.4654
2112.231 1.4793 1.3372 1.2535 1.4782 1.5113 1.3437 1.1866 1.1927 1.2791 1.3414
2131.521 1.1539 1.016 0.9749 0.826 0.9619 1.2015 1.1518 1.10208 1.3156 1.2216
2150.810 1.03662 0.9413 0.9336 0.892 0.828 1.0324 1.09619 1.10922 1.2528 1.3441
2170.100 1.2659 1.2588 1.1644 1.06697 1.2693 1.2907 1.12103 1.04364 1.03091 1.03389
2189.390 1.11874 1.1539 1.0078 1.06564 1.3338 1.4142 1.4107 1.4401 1.4367 1.6482
2208.680 1.8819 2.0065 1.87 1.6512 1.4764 1.3389 1.4186 1.3562 1.3238 1.3365
2227.970 1.3464 1.5274 1.7834 1.6931 1.5971 1.6635 1.7222 1.8052 1.9139 1.8704
2247.259 1.8436 1.9438 2.04 2.19 2.23 2.14 2.1 2.16 2.16 2.1
2266.549 1.83 1.9474 2.26 2.3 2.35 2.37 2.37 2.57 2.55 2.46
2285.839 2.56 2.48 2.49 2.46 2.41 2.59 2.28 2.06 2.28 2.22
2305.129 2.16 2.07 1.9866 1.9872 2.07 2.27 2.16 1.8345 1.7193 1.863
2324.418 1.8745 1.7482 1.7256 1.7653 1.8297 1.8919 1.9514 2.1 2.14 1.8166
2343.708 1.6222 1.6895 1.9982 2.1 1.7342 1.693 1.9088 1.803 1.6517 1.7997
2362.998 1.9265 1.9238 1.9395 1.975 1.9619 1.7678 1.5869 1.5697 1.6151 1.6312
2382.288 1.6254 1.633 1.6491 1.3517 1.1612 1.1884 1.1459 1.0179 0.817 1.1654
2401.578 1.4 1.3288 1.2686 1.1823 1.2112 1.05809 1.1371 1.4422 1.3654 1.2573
2420.867 1.2769 1.3819 1.4467 1.2056 1.2016 1.3473 1.2942 1.0158 1.03715 1.2538
2440.157 1.3531 1.4218 1.3826 1.3721 1.414 1.4255 1.2822 1.2181 1.1986 1.08274
2459.447 1.1337 1.2466 1.1524 1.0974 1.1507 1.3585 1.2089 1.02901 1.1386 1.0159
2478.737 0.9613 0.842 0.738 0.9447 1.1334 0.939 0.9532 1.1986 1.3153 1.1151
2498.026 0.765 0.737 0.78 0.773 0.763 0.9655 1.0152 1.0073 1.1836 1.3751
2517.316 1.5334 1.2174 0.826 0.913 1.1445 1.3048 1.3903 1.3284 1.3986 1.4411
2536.606 1.4494 1.2772 1.1328 1.266 1.1988 1.246 1.3897 1.4664 1.2575 1.10652
2555.896 1.11334 1.06368 0.9329 0.907 1.0066 1.2103 1.3738 1.1464 0.9729 0.84
2575.186 0.845 0.928 1.04646 1.1335 1.0816 0.889 0.811 0.9341 0.882 0.9587
2594.475 0.9633 0.807 0.766 0.734 0.871 0.9343 0.785 0.993 1.2155 0.9587
2613.765 0.886 0.87 0.888 0.968 0.827 0.9982 1.262 1.1935 1.3284 1.2817
2633.055 1.1501 1.2136 1.2543 1.3677 1.1967 1.2023 1.2727 1.2774 1.4586 1.6006
2652.345 1.2855 0.9 1.02749 1.1508 1.2603 1.5483 1.4499 0.9442 0.754 0.9538
2671.634 1.2375 1.3873 1.3451 1.2788 1.133 1.2443 1.3143 1.2519 0.9927 0.733
2690.924 1.0045 1.04242 0.737 0.708 1.1428 1.256 0.9416 1.2092 1.4003 0.989
2710.214 0.622 0.753 1.05618 1.2975 1.2585 1.06867 1.2429 1.2656 1.1916 1.149
2729.504 0.9808 1.04932 1.3719 1.5324 1.2837 0.919 0.802 1.2615 1.4067 1.285
2748.794 1.3408 1.3654 1.316 0.928 1.03905 1.3465 1.319 1.2284 1.1538 1.514
2768.083 1.7586 1.3059 1.1566 1.3257 1.1815 1.1932 1.2996 1.324 1.5782 1.492
2787.373 1.2493 1.5642 1.6294 1.6225 1.7851 1.6423 1.6697 1.88 1.8729 1.8309
2806.663 1.833 2.1 2.38 2.29 2.33 2.56 2.66 2.45 2.31 2.25
2825.953 2.09 2.21 2.73 3.07 3.02 3.05 3.09 3.11 3.34 3.32
2845.242 3.33 3.55 3.91 4.55 5.15 5.27 4.9 4.96 5.01 5.15
2864.532 5.66 6.03 6.29 6.63 7.14 7.31 7.93 8.72 9.2 9.92
2883.822 10.81 10.98 10.63 10.37 10.21 10.37 10.47 10.12 9.73 9.89
2903.112 9.8 9.56 9.61 9.5 9.38 9.23 8.8 8.51 8.38 8.75
2922.401 8.64 8.14 8.74 8.64 8.29 8.32 8.43 8.86 9.08 9.16
2941.691 8.78 8.4 8.09 8.17 8 7.7 7.66 7.05 6.82 6.83
2960.981 6.42 5.79 5.34 5.4 5.15 4.81 4.91 4.91 4.57 3.98
2980.271 3.68 3.76 4.03 3.96 3.09 2.5 2.59 2.59 2.48 2.22
2999.561 2.1 1.9127 1.8687 1.8053 1.6616 1.7179 1.651 1.6604 1.6816 1.4893
3018.850 1.08464 0.74 0.9377 1.4037 1.4912 1.3647 1.2345 0.9935 1.3779 1.7681
3038.140 1.2669 1.2366 1.4768 1.3633 1.624 1.8275 1.9231 1.9285 1.9574 1.8772
3057.430 1.5058 1.5607 1.289 0.907 0.731 0.483 0.916 1.481 1.6121 1.7953
3076.720 1.6706 1.3529 1.3992 1.6425 1.5465 1.4106 1.5816 1.6095 1.3617 1.4921
3096.009 1.6588 1.1644 0.732 0.899 1.1808 1.474 1.3132 0.86 0.9882 1.09963
3115.299 0.861 0.9451 1.2977 1.03965 0.76 0.9366 1.10071 1.0086 0.692 0.629
3134.589 0.9509 0.883 0.749 0.9611 0.541 0.566 0.895 0.836 1.1878 1.04671
3153.879 0.698 0.679 0.533 0.304 0.457 0.717 0.789 0.836 1.1841 1.3388
3173.169 0.9604 0.887 0.664 0.451 0.566 0.28 0.248 0.532 0.791 1.10278
3192.458 0.911 0.799 0.563 0.494 0.925 1.2889 1.5178 1.1855 0.9323 0.868
3211.748 0.514 0.383 0.347 0.545 0.9651 1.23 1.5265 1.2823 0.777 0.777
3231.038 1.09275 0.9832 0.546 0.337 0.319 0.898 1.3428 1.0095 0.289 0.242
3250.328 0.586 0.495 0.575 0.678 0.88 1.2805 1.06631 0.236 0.034 0.431
3269.617 1.03256 0.9995 0.9441 1.05321 0.87 0.714 0.653 1.0023 1.352 1.3824
3288.907 0.9784 0.731 0.847 1.09534 1.1435 0.883 0.339 0.232 0.93 1.2124
3308.197 0.851 0.599 0.569 0.852 0.779 0.687 0.741 0.885 1.0182 0.901
3327.487 0.688 0.414 0.714 0.9866 1.11311 1.5824 1.367 1.5972 1.9539 1.375
3346.777 0.552 0 0.427 0.873 0.991 0.854 0.508 0.487 0.797 1.10612
3366.066 1.4242 1.12539 0.9834 1.3888 1.152 0.854 0.557 0.307 0.694 1.11945
3385.356 0.914 0.908 1.2982 1.09324 0.839 0.83 0.791 0.743 0.373 0.52
3404.646 1.09956 1.2168 1.5848 1.5148 1.3052 1.1826 0.914 0.856 1.3035 1.2533
3423.936 1.09189 1.7139 1.7785 1.499 1.4053 1.4267 1.4532 1.3719 0.764 0.913
3443.225 1.252 1.2887 1.2195 0.9883 0.9713 1.1481 1.7418 1.7176 1.6199 1.6328
3462.515 1.5182 1.5204 1.179 0.711 1.07607 1.5318 1.1627 1.6365 1.73 0.907
3481.805 0.912 1.3258 1.7258 1.7991 1.5709 1.4298 1.4149 1.6268 1.6528 1.1511
3501.095 0.877 1.4328 1.6106 1.3296 1.1775 1.11385 1.3707 1.5131 1.4268 1.1633
3520.385 0.942 1.0499 1.421 1.7495 1.3995 1.0122 1.3078 1.2218 1.28 1.6142
3539.674 1.5706 1.139 0.707 0.889 1.4036 1.6967 1.4387 1.5631 1.4678 1.4889
3558.964 2.2 2.47 1.8541 1.1744 1.3286 1.5197 1.1585 0.902 1.2715 1.4126
3578.254 0.887 0.884 1.4297 1.544 1.7341 1.5532 1.6377 1.7242 1.4467 1.8407
3597.544 2.06 1.71 1.6966 1.9285 1.8754 2.08 2.38 2.45 2.45 2.83
3616.833 3.23 2.89 2.76 2.91 2.8 3.17 3.89 4.34 4.57 4.94
3636.123 5.24 5.64 6.3 6.66 6.69 7.13 7.87 8.41 9.17 9.83
3655.413 10.6 11.65 12.51 12.61 12.12 12.58 12.49 11.67 11.44 10.81
3674.703 10.64 10.21 9.6 9.42 8.84 7.31 6.77 6.56 5.21 4.5
3693.993 3.9 3.46 3.38 3.31 3.07 2.95 2.63 2.43 2.48 2.13
3713.282 1.745 2.0039 1.8957 1.4791 1.3155 1.3689 1.1543 0.9838 1.5128 1.8321
3732.572 2.0265 1.976 1.9588 2.17 2.33 2.13 1.7532 1.4645 1.4285 1.7633
3751.862 1.6399 1.3012 1.4476 1.1373 1.4685 1.9349 1.6119 1.33 0.948 1.0326
3771.152 1.3408 1.7235 2.37 2.52 1.673 1.7315 2.05 1.6596 1.02687 0.707
3790.441 1.1744 1.2011 1.10755 1.3973 1.5257 1.4167 1.4119 1.3078 1.6898 1.81
3809.731 1.3241 1.10462 1.2692 1.07138 1.04388 1.8671 1.9381 1.5856 1.2876 1.6197
3829.021 1.8882 1.3161 1.3439 1.2316 0.929 0.9681 1.07201 1.2873 1.3837 1.4104
3848.311 1.5515 2.06 2.36 1.7822 1.09192 1.4957 2.1 1.8611 2.18 1.7671
3867.601 1.04798 1.4367 1.07401 0.665 0.9844 1.4608 1.1806 1.08806 1.4744 1.1574
3886.890 1.2534 1.8817 1.7565 1.1882 1.011 1.07466 1.06239 1.3708 1.5316 1.3484
3906.180 1.2756 1.4018 1.3588 1.04954 0.9662 0.876 0.467 0.91 1.7155 1.7167
3925.470 1.8161 1.5325 1.173 1.2818 1.6103 1.7999 1.7872 1.5091 1.1759 1.6187
3944.760 1.934 1.6757 1.1428 0.553 0.704 0.9344 1.1813 0.9472 0.567 0.884
3964.049 1.0136 0.747 0.673 1.04073 1.4482 1.5638 0.9683 0.891 1.4734 1.08197
3983.339 1.05017 1.05544 1.1506 1.2882 0.812 1.3749 1.6104 1.1529 0.9488 1.3614
##END=
