##TITLE=Cycloheptanecarbonitrile
##JCAMP-DX=4.24
##DATA TYPE=INFRARED SPECTRUM
##ORIGIN=NIST Mass Spectrometry Data Center
##OWNER=NIST Standard Reference Data Program
Collection (C) 2018 copyright by the U.S. Secretary of Commerce
on behalf of the United States of America. All rights reserved.
##CAS REGISTRY NO=32730-85-1
##MOLFORM=C 8 H 13 N
##$NIST SOURCE=MSDC-IR
##SPECTROMETER/DATA SYSTEM=HP-GC/MS/IRD
##STATE=gas
##XUNITS=1/CM
##YUNITS=ABSORBANCE
##XFACTOR=1.0
##YFACTOR=0.000006900
##DELTAX=4.0
##FIRSTX=550.0
##LASTX=3846.0
##FIRSTY=0.000442
##MAXX=3846
##MINX=550
##MAXY=0.069
##MINY=0
##NPOINTS=825
##XYDATA=(X++(Y..Y))
550.0 64 30 8 18 21 14 13 17 29 41
590.0 14 12 20 16 13 14 22 11 4 7
630.0 1 6 13 11 10 12 18 22 19 7
670.0 14 22 18 24 27 26 23 24 33 33
710.0 29 39 39 36 42 36 26 37 50 49
750.0 45 40 39 42 44 51 62 58 56 60
790.0 60 65 66 62 74 107 134 140 122 117
830.0 139 148 131 106 98 89 76 75 79 83
870.0 79 69 63 62 65 62 50 48 49 50
910.0 55 51 48 54 63 72 83 89 97 108
950.0 108 104 103 95 93 99 102 87 83 81
990.0 64 64 60 62 82 92 97 104 108 88
1030.0 70 73 56 47 43 41 43 45 48 53
1070.0 51 43 34 30 45 46 42 51 49 37
1110.0 21 25 41 42 43 55 41 31 39 37
1150.0 32 39 50 48 45 44 46 57 57 61
1190.0 69 73 72 76 86 89 94 89 83 79
1230.0 67 69 68 64 60 62 70 80 90 95
1270.0 98 92 91 93 88 89 92 93 94 95
1310.0 97 99 97 99 103 106 110 115 127 146
1350.0 168 185 187 175 157 136 107 79 60 49
1390.0 46 45 50 53 61 73 88 108 137 178
1430.0 250 365 532 738 940 1099 1205 1256 1229 1108
1470.0 912 719 568 434 317 231 170 129 97 73
1510.0 58 50 41 33 29 27 21 21 16 11
1550.0 14 14 14 17 16 10 7 11 11 7
1590.0 9 10 5 1 0 3 5 3 5 7
1630.0 4 3 0 3 10 12 8 7 8 8
1670.0 9 9 10 8 9 11 11 10 12 11
1710.0 7 8 10 11 13 13 6 5 10 11
1750.0 9 11 10 8 9 9 6 8 6 4
1790.0 5 5 3 5 9 6 7 10 9 8
1830.0 6 7 8 8 7 7 8 9 8 5
1870.0 4 5 8 7 8 9 8 7 10 10
1910.0 9 7 9 12 8 5 9 10 10 11
1950.0 12 13 12 10 11 12 9 5 6 11
1990.0 8 3 7 12 11 9 9 8 5 6
2030.0 5 5 8 11 8 5 8 9 13 15
2070.0 14 14 15 14 9 5 8 12 11 10
2110.0 11 10 9 10 8 9 15 15 9 10
2150.0 16 19 17 17 18 16 15 14 13 12
2190.0 14 19 21 23 28 32 34 43 60 87
2230.0 120 151 166 167 154 126 93 64 42 26
2270.0 19 17 13 13 15 15 12 14 15 13
2310.0 12 15 16 17 15 13 11 15 19 17
2350.0 15 15 18 16 15 12 12 14 16 12
2390.0 11 15 13 7 8 9 7 7 8 8
2430.0 8 12 14 10 9 9 12 18 17 14
2470.0 16 13 7 9 13 13 15 15 15 13
2510.0 10 13 10 7 12 11 7 3 5 11
2550.0 14 15 14 14 19 19 17 15 20 24
2590.0 20 18 20 21 19 23 29 29 31 31
2630.0 33 37 38 45 51 48 53 69 73 83
2670.0 87 90 104 113 118 123 128 123 117 109
2710.0 99 93 89 82 77 77 73 62 53 54
2750.0 55 58 55 51 54 59 71 86 96 104
2790.0 118 131 147 165 179 188 199 210 222 242
2830.0 269 313 369 453 606 849 1167 1545 1953 2262
2870.0 2392 2370 2229 2007 1768 1588 1524 1588 1769 2072
2910.0 2521 3121 3893 4918 6221 7654 8905 9770 10000 9536
2950.0 8362 6612 4852 3359 2210 1428 947 664 498 394
2990.0 309 261 230 193 167 151 139 123 110 96
3030.0 83 86 83 70 67 64 60 54 51 54
3070.0 45 38 41 41 40 37 33 37 34 29
3110.0 30 30 35 40 38 33 29 26 27 26
3150.0 23 17 13 18 13 11 17 17 18 16
3190.0 22 27 25 26 18 25 34 34 34 35
3230.0 38 32 32 34 25 22 30 35 34 31
3270.0 28 20 12 13 16 13 9 15 17 15
3310.0 15 6 1 4 7 7 5 5 7 7
3350.0 5 7 9 10 13 20 22 11 2 14
3390.0 21 20 23 17 23 28 29 33 23 23
3430.0 25 16 10 18 15 16 30 24 11 17
3470.0 26 18 7 5 18 24 21 15 9 12
3510.0 17 21 25 14 4 5 3 15 21 14
3550.0 17 14 12 10 15 20 18 18 16 20
3590.0 22 19 17 16 21 14 9 26 25 17
3630.0 23 24 31 30 24 30 36 29 23 21
3670.0 17 18 16 20 27 21 16 24 28 27
3710.0 28 29 30 34 27 18 20 31 40 40
3750.0 34 22 27 32 25 28 33 34 32 30
3790.0 30 35 42 41 36 43 47 40 29 34
3830.0 49 43 37 36 39
##END=
