##TITLE=2-Ethoxy-3-methylpyrazine
##JCAMP-DX=4.24
##DATA TYPE=INFRARED SPECTRUM
##ORIGIN=EPA-IR VAPOR PHASE LIBRARY
##OWNER=SRD/NIST
Collection (C) 2018 copyright by the U.S. Secretary of Commerce
on behalf of the United States of America. All rights reserved.
##CAS REGISTRY NO=32737-14-7
##MOLFORM=C 7 H 10 N 2 O
##$NIST SOURCE=MSDC-IR
##STATE=gas
##XUNITS=1/CM
##YUNITS=ABSORBANCE
##XFACTOR=1.
##YFACTOR=0.001
##DELTAX=1.92898
##FIRSTX=549.8
##LASTX=4000.7
##FIRSTY=4.79
##MAXX=4000.7
##MINX=549.759
##MAXY=0.2129
##MINY=0
##NPOINTS=1790
##XYDATA=(X++(Y..Y))
549.759 4.79 5.45 5.78 6.28 6.64 6.32 6.3 6.55 6.97 7.23
569.049 6.97 6.66 5.69 4.77 4.63 3.8 3.3 3.71 3.87 4.32
588.339 5.13 5.91 6.85 8.3 9.84 10.93 12.17 13.38 14.16 14.77
607.628 14.76 14.15 13.5 12.66 11.64 10.41 8.41 6.54 5.21 4.17
626.918 3.38 2.76 2.27 1.97 1.76 1.58 1.4274 1.2051 0.9598 0.9852
646.208 1.0712 0.9643 1.0562 0.7278 0.6548 0.9541 0.8405 0.49476 0.243 0.17
665.498 0.46038 0.6924 0.6389 0.51728 0.321 0.3625 0.3478 0.3554 0.4023 0.50093
684.787 0.53173 0.336 0.44912 0.5603 0.3992 0.52453 0.5754 0.3487 0.296 0.4238
704.077 0.33 0.277 0.4253 0.50772 0.307 0.195 0.414 0.5963 0.8881 0.7765
723.367 0.6094 0.5977 0.53911 0.5743 0.8727 1.0544 1.1089 1.4394 1.3816 1.51
742.657 1.6 1.54 1.69 1.83 1.67 1.4377 1.49 1.48 1.63 1.91
761.947 2.04 2.14 2.16 2.05 2.29 2.5 2.23 2.03 1.96 2.02
781.236 2.25 2.09 1.84 1.87 1.77 1.69 1.7 1.63 1.3462 1.2247
800.526 1.49 1.86 1.99 1.91 2.32 3.01 3.61 4.53 5.46 6.66
819.816 8.63 10.51 12.44 14.73 17.38 19.79 21.91 24.79 28.54 33.18
839.106 37.25 36.35 31.63 28.21 26.44 25.08 23.7 22.01 19.89 17.9
858.395 16.31 14.94 13.44 12.34 11.49 10.12 8.82 7.55 6.6 6.02
877.685 5.42 4.92 4.59 4.08 3.58 3.32 3.09 3.22 3.58 3.74
896.975 3.87 4.24 4.83 5.67 6.58 7.74 8.67 9.44 10.39 11.37
916.265 12.02 12.53 13.07 13.17 12.99 12.66 12.19 11.65 11.01 10.18
935.555 9.41 8.77 8.04 7.35 6.91 6.65 6.53 6.49 6.7 7.31
954.844 7.68 8.09 9.27 10.53 11.7 13.2 14.69 15.71 16.75 17.64
974.134 18.03 18.16 17.97 17.76 17.52 17.22 16.49 15.28 14.45 13.88
993.424 13.19 12.72 12.5 12.75 13.21 13.97 15.32 16.37 18.06 21.01
1012.714 24.44 28.02 32.66 37.85 43.17 48.91 54.46 59.67 64.03 67.72
1032.003 70.23 70.66 70.17 68.67 64.94 59.82 54.31 48.04 41.58 35.74
1051.293 30.4 26.01 22.82 21.17 19.68 18.12 17.64 17.78 18.36 18.28
1070.583 18.47 19.12 19.29 19.77 20.03 20.86 21.62 21.78 21.76 21.19
1089.873 20.97 20.52 19.57 19.29 18.36 16.92 16.3 15.59 14.71 13.99
1109.163 13.66 13.89 13.81 13.43 13.39 13.95 14.62 15.17 16.1 16.8
1128.452 18.62 20.67 22.33 25.11 28.14 31.62 35.77 40.41 46.9 55.63
1147.742 66.12 78.63 92.95 108.6 124.95 140.85 154.83 165.54 171.84 174.03
1167.032 172.32 167.76 160.84 151.34 139.79 126.76 113.95 102.96 94.75 88.29
1186.322 82.35 76.68 72.71 71.72 71.16 67.23 59.3 49.52 39.87 31.54
1205.611 25.49 20.65 16.77 14.05 12.26 11.94 12.07 12.57 12.65 12.66
1224.901 12.76 13.27 14.42 14.29 13.64 13.59 13.76 13.78 13.53 13.47
1244.191 13.99 14.88 16.19 18.26 20.43 22.53 24.71 26.85 29.48 32.46
1263.481 35.54 38.96 42.78 46.42 49.61 52.53 55.35 58.19 61.02 63.85
1282.771 66.16 67.54 68.02 67.89 67.12 66.15 65.67 65.86 66.54 67.71
1302.060 69.37 71.34 73.57 75.84 77.85 79.22 79.74 79.5 78.32 76.22
1321.350 74.13 72.75 72.24 72.55 73.51 75.19 77.47 80.15 83.29 87.13
1340.640 91.56 95.83 99.2 100.99 100.82 99.16 96.73 93.72 90.34 86.8
1359.930 82.81 78.38 74.44 72.16 72.44 75.67 81.32 88.86 97.59 106.56
1379.219 114.41 120.34 125.8 129.35 129.57 127.86 124 117.61 109.86 103.02
1398.509 98.88 98.37 101.93 109.64 121.18 135.64 151.72 167.84 182.52 194.95
1417.799 204.43 210.66 212.9 211.41 205.66 195.41 180.93 163.51 144.47 125.73
1437.089 108.12 93.38 81.34 71.53 63.46 56.63 50.79 46.06 42.28 39.43
1456.378 37.54 36.28 35.6 35.28 35.01 34.54 33.55 32.37 31.28 29.84
1475.668 28.05 26.32 24.52 22.46 20.36 18.54 16.96 15.52 14.28 13.3
1494.958 12.55 11.87 11.39 10.92 10.5 10.33 10.48 10.61 10.79 11.22
1514.248 11.84 12.91 14.21 16.01 18.78 21.96 25.92 30.85 36.43 42.59
1533.538 49.19 55.56 60.99 65.49 68.48 69.76 69.24 66.95 63.25 58.07
1552.827 51.73 44.49 37.46 31.03 25.87 22.52 20.62 19.71 19.25 18.92
1572.117 18.63 18.39 17.89 17.1 16.31 15.26 14.07 12.98 11.7 10.32
1591.407 9.12 8.12 7.23 6.6 6.2 5.75 5.37 4.97 4.64 4.56
1610.697 4.41 4.19 4.02 3.86 3.75 3.64 3.6 3.55 3.55 3.56
1629.986 3.48 3.39 3.43 3.44 3.35 3.4 3.5 3.6 3.64 3.72
1649.276 3.79 3.91 4.04 4.03 4.08 4.15 4.2 4.31 4.5 4.62
1668.566 4.73 4.72 4.65 4.62 4.64 4.6 4.39 4.26 4.15 3.85
1687.856 3.55 3.46 3.25 2.99 2.87 2.74 2.65 2.57 2.46 2.38
1707.146 2.45 2.51 2.41 2.38 2.39 2.29 2.26 2.23 2.12 2.09
1726.435 2.18 2.25 2.27 2.26 2.32 2.38 2.28 2.3 2.38 2.36
1745.725 2.37 2.46 2.57 2.6 2.58 2.65 2.77 2.83 3.02 3.28
1765.015 3.52 3.81 4.13 4.44 4.6 4.64 4.74 4.84 4.8 4.67
1784.305 4.5 4.26 4.03 3.75 3.41 3.15 2.88 2.61 2.33 2.18
1803.594 2.12 2 1.92 1.86 1.84 1.78 1.67 1.69 1.72 1.61
1822.884 1.63 1.66 1.56 1.49 1.46 1.45 1.5 1.48 1.4347 1.4275
1842.174 1.3689 1.4288 1.45 1.4104 1.51 1.59 1.55 1.64 1.79 1.89
1861.464 2.06 2.25 2.47 2.71 2.97 3.24 3.53 3.88 4.2 4.43
1880.754 4.73 5.05 5.18 5.18 5.18 5.15 5.02 4.84 4.64 4.34
1900.043 3.98 3.7 3.49 3.14 2.9 2.81 2.59 2.45 2.37 2.34
1919.333 2.3 2.22 2.29 2.32 2.31 2.27 2.28 2.3 2.28 2.23
1938.623 2.19 2.15 2.12 2.08 2.05 2.09 2.06 1.95 1.88 1.85
1957.913 1.82 1.73 1.69 1.69 1.61 1.57 1.51 1.4393 1.3941 1.3368
1977.202 1.3475 1.3154 1.2824 1.3128 1.3354 1.2513 1.2349 1.2134 1.1558 1.2058
1996.492 1.2233 1.2151 1.202 1.2051 1.2615 1.2485 1.2175 1.2117 1.2983 1.3413
2015.782 1.3385 1.426 1.46 1.4272 1.46 1.54 1.61 1.67 1.64 1.57
2035.072 1.61 1.71 1.69 1.65 1.69 1.71 1.73 1.72 1.68 1.72
2054.362 1.8 1.76 1.69 1.64 1.66 1.75 1.74 1.68 1.67 1.66
2073.651 1.6 1.56 1.55 1.53 1.55 1.54 1.4175 1.44 1.5 1.46
2092.941 1.45 1.3918 1.3823 1.4396 1.5 1.51 1.56 1.69 1.69 1.73
2112.231 1.89 1.87 1.88 1.98 2 1.96 1.89 1.93 2.05 2.14
2131.521 2.2 2.24 2.25 2.32 2.33 2.4 2.46 2.49 2.63 2.7
2150.810 2.73 2.81 2.91 3.01 2.97 2.91 2.85 2.74 2.72 2.68
2170.100 2.55 2.45 2.38 2.37 2.32 2.26 2.3 2.21 2.08 2.05
2189.390 2.18 2.23 2.13 2.14 2.19 2.1 2.08 2.1 2 2.02
2208.680 1.97 1.93 1.85 1.71 1.71 1.67 1.61 1.65 1.69 1.74
2227.970 1.67 1.6 1.66 1.77 1.88 1.84 1.81 1.76 1.71 1.81
2247.259 1.81 1.78 1.8 1.7 1.62 1.64 1.64 1.69 1.74 1.77
2266.549 1.8 1.74 1.77 1.83 1.68 1.63 1.74 1.81 1.81 1.79
2285.839 1.79 1.75 1.77 1.75 1.73 1.74 1.67 1.66 1.64 1.64
2305.129 1.67 1.62 1.61 1.74 1.8 1.91 2 2.01 2.13 2.15
2324.418 2.17 2.18 2.17 2.14 2.14 2.17 2.17 2.14 2.2 2.29
2343.708 2.28 2.33 2.35 2.35 2.4 2.44 2.48 2.4 2.29 2.32
2362.998 2.26 2.07 2.03 1.97 1.84 1.9 1.86 1.76 1.75 1.66
2382.288 1.63 1.65 1.67 1.73 1.67 1.62 1.7 1.71 1.65 1.65
2401.578 1.66 1.77 1.92 2.07 2.08 1.96 2.04 2.16 2.19 2.19
2420.867 2.31 2.43 2.34 2.25 2.29 2.33 2.41 2.53 2.54 2.44
2440.157 2.39 2.38 2.4 2.58 2.69 2.68 2.68 2.71 2.74 2.75
2459.447 2.74 2.82 2.87 2.89 2.87 2.88 2.92 2.88 2.84 2.8
2478.737 2.76 2.65 2.63 2.64 2.6 2.63 2.65 2.54 2.44 2.27
2498.026 2.1 2.01 1.97 1.94 1.86 1.81 1.64 1.49 1.45 1.4067
2517.316 1.3684 1.3922 1.3404 1.2621 1.4051 1.4003 1.4073 1.4326 1.3714 1.4034
2536.606 1.3154 1.3211 1.4375 1.4003 1.3593 1.3167 1.4066 1.6 1.66 1.64
2555.896 1.6 1.7 1.81 1.82 1.8 1.77 1.77 1.82 1.81 1.75
2575.186 1.84 1.87 1.82 1.71 1.69 1.74 1.6 1.52 1.4344 1.2992
2594.475 1.2811 1.3101 1.3576 1.3991 1.46 1.47 1.4385 1.346 1.265 1.2765
2613.765 1.2443 1.2582 1.2945 1.2087 1.1057 1.1539 1.2614 1.4026 1.4041 1.2776
2633.055 1.3123 1.3612 1.4194 1.3953 1.3571 1.2697 1.0932 1.1337 1.1917 1.1442
2652.345 1.1942 1.167 1.1689 1.3092 1.377 1.2858 1.2234 1.2883 1.2075 1.1937
2671.634 1.328 1.2932 1.3594 1.4035 1.3901 1.51 1.59 1.61 1.65 1.66
2690.924 1.75 1.83 1.85 1.87 1.79 1.88 1.9 1.93 2.13 2.15
2710.214 2.09 2.08 2.11 2.12 2.15 2.24 2.37 2.43 2.4 2.42
2729.504 2.45 2.56 2.6 2.61 2.71 2.72 2.65 2.66 2.62 2.5
2748.794 2.53 2.67 2.73 2.61 2.57 2.58 2.59 2.62 2.69 2.64
2768.083 2.58 2.51 2.36 2.46 2.38 2.27 2.3 2.35 2.42 2.46
2787.373 2.53 2.51 2.54 2.59 2.73 2.88 2.97 3.09 3.11 3.24
2806.663 3.36 3.45 3.61 3.67 3.79 3.91 4.1 4.39 4.48 4.58
2825.953 4.71 4.77 4.79 4.93 5.19 5.41 5.61 5.62 5.61 5.72
2845.242 5.95 6.22 6.35 6.54 6.72 6.85 7.12 7.54 7.92 8.2
2864.532 8.67 9.11 9.51 10.15 10.91 11.71 12.33 12.88 13.34 13.77
2883.822 14.13 14.47 14.81 15.07 15.36 15.58 15.82 16.26 16.86 17.41
2903.112 18.08 18.9 19.63 20.24 20.96 21.77 22.5 23.32 24.39 25.42
2922.401 26.63 28.14 29.88 32.16 34.58 36.88 39.02 40.77 42.21 43.43
2941.691 44.32 44.63 44.21 43.25 42.04 40.72 39.47 38.36 37.51 36.93
2960.981 36.86 37.31 38.1 39.45 40.96 42.61 44.81 47.31 49.84 52.29
2980.271 53.79 54.5 54.97 55.12 55.38 55.91 55.71 52.8 48.32 44.19
2999.561 40.51 37.36 34.42 31.63 28.95 26.32 23.9 21.48 19.19 17.46
3018.850 15.9 14.45 13.35 12.62 12.07 11.62 11.46 11.67 12.07 12.55
3038.140 13.53 14.99 16.74 19.33 22.42 25.71 29.69 34.06 38.57 42.57
3057.430 45.68 47.96 49.12 49.23 48.53 46.98 44.58 40.9 35.99 30.82
3076.720 26.04 21.54 17.59 14.35 11.77 9.94 8.64 7.74 6.98 6.41
3096.009 6.09 5.76 5.43 5.1 4.83 4.72 4.5 4.35 4.25 4.27
3115.299 4.27 4.09 3.95 3.82 3.78 3.86 3.79 3.73 3.74 3.71
3134.589 3.67 3.64 3.65 3.58 3.5 3.35 3.34 3.38 3.22 3.2
3153.879 3.11 2.86 2.56 2.34 2.4 2.27 2.04 1.94 1.87 1.75
3173.169 1.61 1.5 1.45 1.53 1.45 1.363 1.3629 1.45 1.3744 1.1897
3192.458 1.179 1.1386 1.1703 1.2017 1.0594 0.9183 0.9624 1.0038 1.0298 1.1108
3211.748 1.1026 1.063 1.2761 1.3487 1.1683 0.9967 0.9037 1.0317 0.9752 0.7833
3231.038 0.7208 0.6933 0.9147 0.9414 0.6539 0.6172 0.6948 0.7068 0.7377 0.8225
3250.328 0.7909 0.6877 0.8195 0.8768 0.6302 0.5518 0.5602 0.5602 0.52353 0.5582
3269.617 0.6916 0.6637 0.5793 0.47415 0.5786 0.6428 0.6427 0.6229 0.45534 0.5695
3288.907 0.7115 0.51824 0.3912 0.39 0.49785 0.5412 0.449395 0.53971 0.614 0.6327
3308.197 0.6663 0.6781 0.6551 0.6687 0.665 0.6396 0.7297 0.8187 0.8908 0.813
3327.487 0.51139 0.46309 0.6039 0.8013 0.9433 0.8113 0.5718 0.5638 0.6906 0.7062
3346.777 0.6746 0.6815 0.7404 0.6597 0.7034 0.8469 0.8677 0.7154 0.5994 0.6373
3366.066 0.6685 0.6143 0.4851 0.5504 0.6274 0.6901 0.7435 0.6733 0.6433 0.5922
3385.356 0.7211 0.7751 0.46983 0.45062 0.7112 0.7162 0.49328 0.4047 0.48709 0.6818
3404.646 0.7064 0.6001 0.574 0.5526 0.6305 0.6402 0.6144 0.5504 0.664 0.7549
3423.936 0.6264 0.6546 0.51805 0.4143 0.50676 0.5579 0.5685 0.5405 0.608 0.6848
3443.225 0.7424 0.6611 0.52154 0.54 0.582 0.53895 0.47105 0.49589 0.46681 0.49925
3462.515 0.6379 0.673 0.5499 0.45981 0.6001 0.5996 0.43511 0.51052 0.5684 0.5988
3481.805 0.578 0.48794 0.46577 0.4194 0.52603 0.441233 0.293 0.258 0.207 0.327
3501.095 0.448713 0.45634 0.406 0.446782 0.5517 0.50213 0.43482 0.51082 0.7002 0.6587
3520.385 0.51475 0.546 0.7339 0.8613 0.7284 0.7457 0.875 0.6337 0.3443 0.43471
3539.674 0.48159 0.3821 0.238 0.292 0.3727 0.294 0.4226 0.447666 0.51031 0.6689
3558.964 0.51642 0.553 0.5563 0.3503 0.3538 0.439424 0.48615 0.5805 0.5866 0.50197
3578.254 0.49383 0.3699 0.3952 0.49158 0.4148 0.447352 0.47893 0.48507 0.52547 0.6509
3597.544 0.7786 0.7134 0.48888 0.43409 0.53088 0.6972 0.6608 0.5683 0.5526 0.245
3616.833 0.4167 0.7278 0.6039 0.50887 0.47404 0.4145 0.441831 0.306 0 0.243
3636.123 0.44638 0.3431 0.4205 0.444065 0.439493 0.4092 0.51391 0.6829 0.7392 0.7027
3655.413 0.50838 0.5692 0.6145 0.3902 0.3532 0.3763 0.3834 0.3522 0.306 0.303
3674.703 0.335 0.4256 0.3626 0.316 0.338 0.5968 0.8153 0.6581 0.43859 0.3775
3693.993 0.46483 0.43782 0.3492 0.3697 0.444336 0.4008 0.342 0.3578 0.43116 0.51543
3713.282 0.47192 0.5484 0.7312 0.731 0.5906 0.6035 0.5702 0.43403 0.3401 0.186
3732.572 0.3767 0.6023 0.50112 0.3541 0.277 0.228 0.339 0.312 0.3575 0.4115
3751.862 0.257 0.478 0.6848 0.52483 0.48668 0.49281 0.307 0.333 0.5418 0.5686
3771.152 0.5983 0.6203 0.45268 0.402 0.3901 0.445999 0.6591 0.7308 0.5857 0.5425
3790.441 0.6419 0.6528 0.6364 0.5427 0.448853 0.5619 0.6465 0.6357 0.5577 0.47771
3809.731 0.45544 0.3712 0.333 0.47916 0.6687 0.7296 0.5978 0.443909 0.48234 0.5511
3829.021 0.52787 0.43294 0.45013 0.5891 0.6286 0.6093 0.599 0.6022 0.7375 0.8189
3848.311 0.8202 0.7367 0.8092 0.9482 0.8789 0.8218 0.744 0.7024 0.6638 0.6527
3867.601 0.6428 0.6786 0.6833 0.5818 0.613 0.8535 0.7745 0.47893 0.440297 0.5458
3886.890 0.6225 0.8493 1.057 1.0047 0.9656 0.825 0.7836 0.8484 0.8824 0.8391
3906.180 0.7853 0.7678 0.6854 0.7801 0.8244 0.8089 0.9456 1.0827 1.1617 1.0881
3925.470 1.0381 1.0734 1.0694 1.0607 0.9849 0.8723 1.003 0.9873 0.8025 0.8236
3944.760 0.7341 0.5773 0.6983 0.9497 0.7391 0.6037 0.8955 1.018 1.0537 0.8369
3964.049 0.6833 0.7687 0.8139 0.8832 0.9773 1.0009 1.0071 1.0336 0.8702 0.9403
3983.339 1.049 0.8678 0.8183 0.9498 0.7689 0.6629 0.7656 0.8388 0.8611 0.7414
##END=
