##TITLE=2,3-Dimethylpentanal
##JCAMP-DX=4.24
##DATA TYPE=INFRARED SPECTRUM
##ORIGIN=NIST Mass Spectrometry Data Center
##OWNER=NIST Standard Reference Data Program
Collection (C) 2018 copyright by the U.S. Secretary of Commerce
on behalf of the United States of America. All rights reserved.
##CAS REGISTRY NO=32749-94-3
##MOLFORM=C 7 H 14 O
##$NIST SOURCE=MSDC-IR
##SPECTROMETER/DATA SYSTEM=HP-GC/MS/IRD
##STATE=gas
##XUNITS=1/CM
##YUNITS=ABSORBANCE
##XFACTOR=1.0
##YFACTOR=0.000002400
##DELTAX=4.0
##FIRSTX=550.0
##LASTX=3846.0
##FIRSTY=0.000629
##MAXX=3846
##MINX=550
##MAXY=0.024
##MINY=0
##NPOINTS=825
##XYDATA=(X++(Y..Y))
550.0 262 220 118 142 109 75 88 80 103 109
590.0 34 2 57 69 50 71 71 56 60 76
630.0 92 107 130 153 145 129 142 155 154 123
670.0 110 121 118 110 106 92 70 76 96 96
710.0 83 81 77 85 121 147 154 149 170 173
750.0 142 151 154 145 142 145 156 188 205 202
790.0 208 197 185 185 178 170 166 194 219 240
830.0 296 339 367 402 411 411 406 386 354 335
870.0 336 352 376 415 489 602 742 890 1015 1093
910.0 1123 1064 948 806 667 553 449 380 362 357
950.0 346 356 373 381 416 424 407 413 422 430
990.0 442 480 514 534 560 573 538 488 457 414
1030.0 374 357 338 336 334 305 287 277 262 253
1070.0 248 262 304 335 354 368 365 370 368 357
1110.0 349 339 340 344 347 351 352 351 357 357
1150.0 353 363 353 317 290 259 228 209 172 142
1190.0 135 129 121 112 104 80 69 83 101 126
1230.0 133 150 183 195 202 215 230 241 253 252
1270.0 244 246 275 288 286 287 283 286 286 285
1310.0 288 282 278 275 278 290 300 313 332 364
1350.0 396 441 507 589 737 930 1137 1332 1483 1567
1390.0 1523 1390 1202 987 784 625 510 443 425 437
1430.0 489 573 703 886 1112 1356 1564 1741 1842 1816
1470.0 1684 1468 1209 954 726 542 404 311 256 207
1510.0 184 175 148 134 134 125 121 116 112 110
1550.0 107 101 87 103 111 99 103 107 102 104
1590.0 96 87 99 103 111 128 133 132 133 138
1630.0 152 164 182 200 217 233 265 321 366 410
1670.0 462 512 559 618 691 783 877 986 1164 1442
1710.0 1859 2494 3486 4838 6370 7788 8830 9342 9154 8230
1750.0 6681 4970 3529 2493 1824 1407 1158 1002 884 785
1790.0 698 628 569 518 471 417 367 323 275 233
1830.0 196 171 152 130 117 107 97 90 76 67
1870.0 69 66 60 61 60 63 56 45 38 45
1910.0 47 36 33 34 37 46 47 45 43 43
1950.0 46 51 40 29 26 22 30 36 37 34
1990.0 33 37 39 32 28 30 32 35 33 25
2030.0 22 23 25 20 17 19 16 24 28 23
2070.0 18 13 15 18 19 20 19 19 14 11
2110.0 15 20 20 17 8 7 18 16 14 19
2150.0 21 21 15 18 18 13 9 4 3 11
2190.0 14 10 5 7 9 7 12 18 16 17
2230.0 21 20 19 9 2 6 12 19 21 21
2270.0 23 25 27 22 22 17 11 17 17 14
2310.0 11 12 18 21 32 29 24 28 14 20
2350.0 24 19 19 17 15 22 22 16 21 22
2390.0 31 40 37 35 38 40 42 39 46 51
2430.0 37 32 40 45 42 29 18 24 33 32
2470.0 30 29 27 29 27 27 25 29 34 34
2510.0 36 38 40 40 43 51 53 53 53 56
2550.0 61 70 95 97 102 115 118 119 129 145
2590.0 159 172 194 212 222 247 277 312 345 371
2630.0 401 426 462 486 521 590 646 710 802 922
2670.0 1093 1314 1601 1925 2256 2598 2826 2883 2839 2687
2710.0 2462 2218 1981 1787 1631 1502 1418 1356 1308 1269
2750.0 1233 1207 1176 1166 1178 1190 1216 1271 1318 1377
2790.0 1476 1583 1677 1769 1815 1799 1737 1644 1537 1434
2830.0 1367 1346 1341 1395 1510 1698 1968 2312 2734 3226
2870.0 3785 4339 4798 5062 5134 5027 4770 4443 4138 3964
2910.0 3958 4116 4409 4786 5170 5518 5799 5987 6061 6056
2950.0 6114 6391 7014 7958 9028 9837 10000 9527 8488 7015
2990.0 5464 4085 3009 2207 1631 1243 999 845 724 640
3030.0 583 535 496 464 442 416 391 373 349 330
3070.0 319 301 276 257 270 281 257 250 253 241
3110.0 251 246 227 235 246 232 213 197 189 195
3150.0 205 205 184 173 174 169 170 158 140 142
3190.0 124 96 78 58 71 65 44 51 53 48
3230.0 34 39 45 45 43 36 33 22 23 22
3270.0 17 13 14 26 28 33 37 25 14 12
3310.0 38 50 34 23 20 14 26 26 10 20
3350.0 24 9 12 17 19 27 26 22 29 42
3390.0 44 43 49 52 32 49 70 68 61 56
3430.0 67 87 143 180 179 190 202 208 195 171
3470.0 157 140 123 101 81 80 64 44 45 57
3510.0 48 30 21 12 16 13 4 13 9 2
3550.0 10 11 5 13 1 0 20 19 13 17
3590.0 19 23 15 13 11 2 16 3 3 24
3630.0 24 33 27 23 26 5 10 40 39 24
3670.0 8 1 6 14 16 17 23 43 29 20
3710.0 38 35 34 18 22 32 20 20 12 8
3750.0 9 17 25 30 37 33 34 53 47 41
3790.0 32 24 43 35 27 25 20 29 39 50
3830.0 50 40 25 29 49
##END=
