##TITLE=2,3,5,6-Tetrachloroiodobenzene
##JCAMP-DX=4.24
##DATA TYPE=INFRARED SPECTRUM
##ORIGIN=EPA-IR VAPOR PHASE LIBRARY
##OWNER=SRD/NIST
Collection (C) 2018 copyright by the U.S. Secretary of Commerce
on behalf of the United States of America. All rights reserved.
##CAS REGISTRY NO=32770-82-4
##MOLFORM=C 6 H Cl 4 I
##$NIST SOURCE=MSDC-IR
##STATE=gas
##XUNITS=1/CM
##YUNITS=ABSORBANCE
##XFACTOR=1.
##YFACTOR=0.001
##DELTAX=1.92898
##FIRSTX=549.8
##LASTX=4000.7
##FIRSTY=3.608
##MAXX=4000.7
##MINX=549.759
##MAXY=0.155378
##MINY=0
##NPOINTS=1790
##XYDATA=(X++(Y..Y))
549.759 3.608 2.438 2.098 2.668 2.668 1.728 2.208 2.828 2.718 2.838
569.049 1.718 1.0473 1.2217 0.8788 0.37009 0.194 0.29034 0.32519 0.4371 0.4835
588.339 0.8903 1.0296 0.8173 0.4029 0.2532 0.775 1.1095 0.7829 0.7612 1.688
607.628 1.978 1.648 1.628 1.478 1.588 1.768 1.338 1.0875 1.0806 1.0093
626.918 0.8129 0.9237 1.0881 1.328 1.818 2.078 2.068 2.008 2.128 2.578
646.208 2.908 3.658 5.858 8.888 13.048 18.838 27.138 39.848 56.548 75.468
665.498 92.368 101.618 102.488 96.438 81.588 59.138 36.408 20.158 11.088 6.738
684.787 4.818 4.278 4.268 4.708 5.448 5.858 6.038 5.478 4.228 3.258
704.077 2.318 2.048 2.238 1.948 1.538 1.157 0.9982 1.1977 1.438 1.16
723.367 0.9491 1.318 1.578 1.808 2.198 2.708 3.748 5.008 6.548 9.588
742.657 14.198 19.308 25.748 32.238 37.098 39.988 39.698 36.188 30.298 23.298
761.947 16.618 12.008 8.968 6.358 4.188 2.658 2.398 2.088 1.748 1.948
781.236 1.368 1.2719 1.548 1.528 1.548 1.2183 1.358 1.658 1.438 1.478
800.526 1.438 1.778 2.398 1.938 1.638 1.788 1.448 1.328 1.448 1.418
819.816 1.508 1.418 1.518 1.558 1.368 1.173 1.368 1.368 1.1765 1.678
839.106 2.588 3.398 4.048 4.738 5.478 6.538 7.548 8.278 9.578 11.848
858.395 14.838 18.468 22.408 26.218 30.128 32.418 26.828 19.198 15.868 12.368
877.685 8.698 5.868 3.898 2.828 2.138 1.618 1.648 1.608 1.398 1.1516
896.975 0.88 0.9093 0.8411 0.7211 0.7296 0.8667 0.9436 0.787 0.5938 0.7121
916.265 1.0868 1.1628 1.21 1.428 1.448 1.688 2.008 2.208 2.508 2.998
935.555 3.628 4.048 4.078 3.918 4.048 4.028 3.478 2.738 2.158 1.908
954.844 1.518 1.064 0.9897 0.8312 0.6149 0.7884 0.8203 0.8036 0.8734 1.1829
974.134 1.272 0.8858 0.9981 1.067 0.7845 0.857 0.8908 0.7875 0.7343 0.6819
993.424 0.6793 1.0404 1.2706 1.2423 1.558 1.858 2.188 2.248 2.198 1.838
1012.714 0.9947 0.4615 0.7298 1.368 1.2461 1.1342 1.176 1.2644 1.368 1.348
1032.003 1.1397 1.1025 1.1779 1.1216 0.9489 0.5711 0.9776 1.468 1.708 2.478
1051.293 3.908 5.268 7.168 11.098 16.438 21.648 26.128 28.708 29.038 26.738
1070.583 22.088 15.938 9.978 6.058 3.388 1.698 1.438 1.868 1.828 2.208
1089.873 2.398 1.678 1.598 1.378 1.598 2.558 3.228 3.498 3.828 3.398
1109.163 2.268 2.298 3.178 3.338 2.708 2.668 2.968 2.968 2.938 2.818
1128.452 3.028 2.968 1.628 1.788 2.688 2.358 2.148 3.048 3.838 5.228
1147.742 7.538 11.128 16.708 25.518 39.998 58.208 75.028 84.848 86.138 82.598
1167.032 71.068 50.668 30.238 16.188 9.628 7.008 5.038 4.308 3.988 3.838
1186.322 4.518 4.908 6.158 7.888 10.098 12.568 16.028 19.268 20.558 21.158
1205.611 19.588 17.238 14.578 11.308 8.528 6.208 4.498 3.038 2.318 2.188
1224.901 1.998 1.828 1.0466 0.6956 1.478 2.258 1.988 1.0851 1.1538 1.408
1244.191 1.828 1.948 1.828 2.188 2.128 1.628 1.628 1.618 1.628 1.868
1263.481 2.088 2.228 2.278 2.468 2.098 2.108 2.598 2.798 3.398 4.318
1282.771 5.368 6.848 9.088 12.338 16.448 21.508 28.428 37.108 46.868 58.088
1302.060 70.178 81.538 90.348 94.388 92.238 83.978 71.028 55.748 40.748 28.658
1321.350 21.048 17.698 16.848 17.048 17.438 17.358 16.708 15.708 14.228 12.348
1340.640 10.728 9.598 9.058 9.078 9.698 11.118 13.278 16.118 20.008 25.518
1359.930 33.108 43.728 58.018 75.858 96.528 118.018 136.998 149.968 155.378 153.628
1379.219 145.568 133.188 119.998 109.518 102.188 95.728 88.018 78.818 68.238 57.068
1398.509 46.788 38.688 33.728 30.838 28.848 27.028 24.898 22.098 18.778 15.468
1417.799 12.408 9.808 7.748 6.178 5.028 4.188 3.538 3.088 2.828 2.548
1437.089 2.388 2.278 2.048 1.748 1.628 1.548 1.558 1.608 1.648 1.788
1456.378 1.928 2.038 2.258 2.528 2.748 3.188 3.588 3.858 4.288 4.798
1475.668 4.998 5.098 5.278 5.358 5.528 5.738 5.788 6.008 6.688 7.528
1494.958 8.338 9.178 10.138 11.088 11.758 12.438 13.208 14.118 15.498 17.528
1514.248 20.098 23.208 26.308 28.838 30.328 30.008 27.928 24.428 20.058 15.858
1533.538 12.878 11.648 11.968 13.478 15.448 17.038 18.208 18.388 17.268 15.378
1552.827 13.078 10.298 7.838 5.958 4.488 3.698 3.198 2.608 2.198 1.938
1572.117 1.708 1.618 1.468 1.209 1.1849 1.2441 1.1688 1.0531 1.0912 1.0576
1591.407 1.0309 0.9969 0.9343 0.9367 0.9218 0.9534 1.0581 1.287 1.498 1.558
1610.697 1.548 1.458 1.2853 1.2066 1.2275 1.1941 1.1356 1.1722 1.1842 1.1098
1629.986 1.02 0.9059 0.8184 0.7689 0.7002 0.7652 0.7726 0.7419 0.9059 0.9101
1649.276 0.8597 0.8484 0.876 1.1028 1.2768 1.2176 0.9269 0.7806 0.8304 0.7795
1668.566 0.7215 0.6496 0.6324 0.6337 0.7403 0.8004 0.6677 0.57 0.5628 0.5989
1687.856 0.6388 0.726 0.8367 0.902 0.9212 0.8542 0.7162 0.8685 0.9821 0.9388
1707.146 1.0697 1.1997 1.358 1.638 1.878 2.168 2.608 2.998 3.458 4.058
1726.435 4.708 5.418 5.648 5.328 4.808 4.198 3.368 2.498 2.008 1.608
1745.725 1.2826 1.0745 0.9049 0.8901 0.833 0.6163 0.5216 0.5064 0.5393 0.6
1765.015 0.6641 0.6289 0.6244 0.6 0.4995 0.4295 0.4564 0.5142 0.5456 0.5227
1784.305 0.5218 0.5714 0.5365 0.6577 0.6593 0.5873 0.6234 0.5382 0.5586 0.4977
1803.594 0.4895 0.694 0.8054 0.8562 0.7662 0.7678 0.9474 1.0824 1.1074 1.1344
1822.884 1.108 1.1413 1.1822 1.1648 1.2258 1.1182 1.0452 1.1451 1.0506 0.8835
1842.174 0.8146 0.6805 0.6351 0.6944 0.708 0.6616 0.5758 0.5506 0.6747 0.7598
1861.464 0.692 0.6393 0.6355 0.6611 0.6815 0.7055 0.6768 0.5659 0.644 0.7452
1880.754 0.6507 0.6039 0.6173 0.7132 0.713 0.6553 0.6522 0.6337 0.7355 0.7465
1900.043 0.7322 0.7892 0.8319 0.8625 0.9458 1.0271 1.0587 1.0924 1.0539 0.9687
1919.333 0.8664 0.9279 0.9669 0.8169 0.7162 0.6565 0.6012 0.5868 0.557 0.5548
1938.623 0.5702 0.5734 0.4895 0.5707 0.7309 0.6681 0.6659 0.5283 0.4768 0.592
1957.913 0.6815 0.5966 0.4441 0.5208 0.527 0.5027 0.5069 0.4813 0.4725 0.4668
1977.202 0.4583 0.5324 0.4748 0.476 0.5702 0.5632 0.464 0.35454 0.4154 0.4476
1996.492 0.4311 0.4379 0.4893 0.494 0.4672 0.4885 0.5276 0.5872 0.5212 0.5233
2015.782 0.489 0.36127 0.5003 0.5493 0.4084 0.35014 0.38401 0.6123 0.6615 0.5656
2035.072 0.5391 0.4592 0.5061 0.5465 0.5805 0.5777 0.6003 0.5436 0.4135 0.404
2054.362 0.4629 0.489 0.5401 0.5705 0.5746 0.6905 0.6227 0.4501 0.485 0.5432
2073.651 0.5449 0.5034 0.5382 0.698 0.6359 0.5073 0.5069 0.5131 0.4862 0.449
2092.941 0.5414 0.5397 0.4869 0.4506 0.32269 0.4728 0.6665 0.6781 0.6249 0.6114
2112.231 0.6577 0.6165 0.6266 0.5959 0.5649 0.6343 0.6611 0.6256 0.6786 0.5823
2131.521 0.5356 0.6181 0.5446 0.614 0.6872 0.6167 0.633 0.6944 0.6559 0.5801
2150.810 0.5282 0.5803 0.655 0.665 0.6679 0.6072 0.5452 0.6511 0.7604 0.7747
2170.100 0.7559 0.793 0.7659 0.802 0.8739 0.9406 0.9498 0.9569 0.8562 0.7129
2189.390 0.8068 0.659 0.5389 0.581 0.5296 0.6185 0.7416 0.6441 0.5865 0.6361
2208.680 0.5989 0.496 0.4733 0.5195 0.4764 0.5035 0.5415 0.5775 0.607 0.5068
2227.970 0.5477 0.6254 0.7272 0.722 0.5318 0.4948 0.5121 0.5888 0.6617 0.7088
2247.259 0.8119 0.7866 0.774 0.6701 0.5755 0.6711 0.6902 0.6674 0.6539 0.5965
2266.549 0.6047 0.5305 0.5694 0.7191 0.6381 0.5979 0.5454 0.5569 0.6172 0.5423
2285.839 0.4213 0.37957 0.4437 0.4366 0.3991 0.5422 0.5982 0.5667 0.648 0.6432
2305.129 0.5178 0.5153 0.7086 0.7309 0.7658 0.8446 0.7814 0.7631 0.8327 0.8813
2324.418 0.7959 0.807 0.7892 0.6901 0.6857 0.5942 0.5841 0.5598 0.4782 0.4363
2343.708 0.35139 0.33097 0.4227 0.5326 0.5678 0.6813 0.6663 0.461 0.36869 0.4907
2362.998 0.6519 0.6132 0.5644 0.5817 0.5871 0.5906 0.5151 0.5213 0.6127 0.5328
2382.288 0.4955 0.562 0.5486 0.6017 0.5965 0.5245 0.5119 0.5163 0.5561 0.5803
2401.578 0.563 0.5176 0.4848 0.4595 0.4284 0.5293 0.6906 0.624 0.4842 0.4097
2420.867 0.35606 0.4712 0.5932 0.5447 0.5139 0.4341 0.4358 0.5442 0.4295 0.299123
2440.157 0.32341 0.4492 0.5415 0.5338 0.4429 0.5225 0.5905 0.5418 0.6026 0.5439
2459.447 0.419 0.5086 0.5238 0.4629 0.5368 0.4538 0.33856 0.383 0.5055 0.4998
2478.737 0.3995 0.4545 0.5057 0.5945 0.6442 0.5667 0.4695 0.4299 0.5266 0.4588
2498.026 0.33337 0.39378 0.4524 0.36599 0.33564 0.37966 0.36937 0.3255 0.33389 0.4093
2517.316 0.5093 0.539 0.6088 0.731 0.6939 0.557 0.523 0.6291 0.6764 0.7153
2536.606 0.7493 0.7225 0.8241 0.7086 0.5039 0.5336 0.6126 0.607 0.491 0.421
2555.896 0.4379 0.3911 0.4145 0.5775 0.6108 0.5092 0.4587 0.551 0.5268 0.5796
2575.186 0.789 0.9021 0.8079 0.6733 0.7974 0.8458 0.9088 0.9233 0.7818 0.6153
2594.475 0.5457 0.5055 0.597 0.6594 0.4496 0.4001 0.4569 0.425 0.4818 0.5306
2613.765 0.5341 0.5858 0.553 0.4709 0.4231 0.4855 0.5474 0.5385 0.38802 0.301126
2633.055 0.4528 0.5325 0.6601 0.7033 0.5132 0.5016 0.6107 0.705 0.6304 0.3651
2652.345 0.38127 0.5319 0.5311 0.5681 0.5747 0.5156 0.5111 0.7206 0.7413 0.8138
2671.634 0.8949 0.6506 0.5569 0.5467 0.5304 0.5686 0.6754 0.6972 0.7361 0.7729
2690.924 0.6762 0.6723 0.8403 0.9732 0.8934 0.8576 0.9966 1.0344 1.1035 1.1708
2710.214 1.09 1.0666 1.1601 1.1435 1.1776 1.2091 1.1243 1.125 1.1735 1.1658
2729.504 1.2095 1.328 1.2428 1.161 1.1528 1.1106 1.0915 1.1401 1.2343 1.0469
2748.794 0.8925 0.9217 0.8251 0.622 0.4576 0.5973 0.6872 0.5159 0.39153 0.437
2768.083 0.5299 0.5804 0.5272 0.6286 0.6558 0.4762 0.5721 0.5834 0.4778 0.4908
2787.373 0.5337 0.6422 0.6801 0.6976 0.859 0.7486 0.5904 0.6012 0.5501 0.6119
2806.663 0.6378 0.5555 0.4945 0.4731 0.29333 0.32919 0.6084 0.5231 0.2873 0.4119
2825.953 0.5468 0.32925 0.4772 0.5875 0.4938 0.5922 0.4981 0.4579 0.5092 0.5587
2845.242 0.6799 0.6034 0.5483 0.6549 0.6721 0.5352 0.3441 0.4333 0.6069 0.4379
2864.532 0.34524 0.4939 0.5237 0.4016 0.4054 0.4001 0.271 0.39116 0.35722 0.2547
2883.822 0.5039 0.6174 0.4893 0.4943 0.4526 0.4685 0.6468 0.7781 0.7977 0.5281
2903.112 0.2832 0.38987 0.608 0.6933 0.7687 0.7995 0.7326 0.6997 0.6233 0.5125
2922.401 0.4505 0.461 0.5755 0.4788 0.563 0.6736 0.5459 0.5174 0.5389 0.599
2941.691 0.6252 0.7225 0.6965 0.653 0.5872 0.5902 0.6827 0.4634 0.34134 0.4455
2960.981 0.29623 0.33633 0.37377 0.2409 0.2771 0.4695 0.34816 0.148 0.32422 0.4251
2980.271 0.39793 0.36906 0.33853 0.37416 0.4057 0.172 0.142 0.4029 0.4585 0.4894
2999.561 0.5173 0.4516 0.4573 0.4843 0.37963 0.259 0.2559 0.2582 0.2635 0.2722
3018.850 0.4226 0.39217 0.171 0.2789 0.536 0.6453 0.6102 0.6633 0.6471 0.4931
3038.140 0.4797 0.5746 0.4893 0.5314 0.5158 0.4412 0.5247 0.558 0.7076 1.1172
3057.430 1.2138 1.0009 1.1514 1.2862 1.2527 1.358 1.2321 1.1671 1.2305 1.308
3076.720 1.398 1.0858 0.8771 0.7559 0.9203 0.9687 1.0247 1.1059 1.0336 1.1351
3096.009 1.0748 1.1096 1.2121 1.0515 1.1078 1.2802 1.498 1.768 1.668 1.618
3115.299 1.698 1.488 1.2254 1.0178 0.6938 0.7281 0.8495 0.5184 0.5047 0.6587
3134.589 0.6787 0.7917 0.7952 0.7879 0.7445 0.6432 0.5243 0.4329 0.4767 0.4933
3153.879 0.4734 0.39427 0.34228 0.4811 0.5118 0.29039 0.2009 0.29019 0.36564 0.6159
3173.169 0.6045 0.63 0.7435 0.605 0.5616 0.5869 0.7052 0.7748 0.6011 0.5311
3192.458 0.5287 0.5813 0.6638 0.555 0.5918 0.5486 0.4537 0.629 0.7259 0.6727
3211.748 0.6483 0.5862 0.4619 0.39281 0.29059 0.162 0.33599 0.5155 0.5051 0.3998
3231.038 0.29521 0.4319 0.6281 0.6203 0.35583 0.2683 0.35243 0.31937 0.195 0.33268
3250.328 0.544 0.4303 0.4677 0.5374 0.4661 0.35227 0.2392 0.2829 0.37879 0.4066
3269.617 0.38696 0.4015 0.472 0.5569 0.5616 0.197 0.126 0.34916 0.42 0.5584
3288.907 0.6141 0.6707 0.7654 0.7241 0.5957 0.598 0.5325 0.297925 0.4275 0.5263
3308.197 0.5158 0.4875 0.4145 0.39546 0.4152 0.6874 0.822 0.7661 0.5059 0.4312
3327.487 0.5084 0.6402 0.8339 0.6649 0.5065 0.5479 0.5557 0.5322 0.4615 0.35582
3346.777 0.30904 0.4758 0.6632 0.7322 0.49 0.5225 0.584 0.32315 0.35974 0.5526
3366.066 0.7538 0.6375 0.39318 0.36122 0.4753 0.5922 0.6903 0.4246 0.169 0.4296
3385.356 0.6948 0.5975 0.6076 0.5153 0.16 0.1 0.297486 0.5145 0.696 0.7397
3404.646 0.5411 0.2448 0.4593 0.7297 0.4858 0.301255 0.32415 0.4362 0.5304 0.37214
3423.936 0.31556 0.33715 0.161 0.298165 0.4364 0.4052 0.30938 0.2351 0.305888 0.4192
3443.225 0.6342 0.6195 0.516 0.4742 0.5378 0.6632 0.6076 0.4236 0.149 0.2481
3462.515 0.4656 0.4052 0.185 0.151 0.37586 0.5277 0.51 0.5312 0.36317 0.38437
3481.805 0.7353 0.7967 0.6334 0.4614 0.572 0.7056 0.6448 0.2725 0.086 0.2076
3501.095 0.36635 0.5293 0.52 0.4764 0.3043 0.2673 0.5281 0.6935 0.6744 0.7279
3520.385 0.593 0.6037 0.7535 0.4998 0.2678 0.143 0.35245 0.551 0.5318 0.5261
3539.674 0.4598 0.4497 0.5827 0.5863 0.33632 0.38339 0.58 0.553 0.7172 0.6484
3558.964 0.39002 0.4233 0.4047 0.4528 0.4934 0.5885 0.7926 0.7449 0.4383 0.4691
3578.254 0.6324 0.5138 0.5483 0.4425 0.2721 0.438 0.5074 0.6123 0.8225 0.6055
3597.544 0.66 0.6791 0.3141 0.4135 0.4353 0.36418 0.30814 0.4678 0.8275 0.9963
3616.833 0.8305 0.5174 0.34185 0.4467 0.6079 0.7694 0.7086 0.4043 0.5422 0.7091
3636.123 0.9736 0.9558 0.751 0.791 0.6979 0.743 0.5856 0.2473 0.2174 0.38823
3655.413 0.568 0.6302 0.6121 0.5479 0.4903 0.5201 0.5109 0.4958 0.168 0.076
3674.703 0.249 0.2878 0.5284 0.6989 0.5897 0.5221 0.4664 0.2137 0.35973 0.5812
3693.993 0.5744 0.35428 0.4654 0.6034 0.5634 0.7335 0.5222 0.35513 0.4269 0.456
3713.282 0.4523 0.33102 0.39104 0.6786 0.8724 0.8598 0.6266 0.4795 0.5027 0.4102
3732.572 0.114 0.127 0.37974 0.4713 0.567 0.7959 0.6896 0.7359 0.6966 0.36437
3751.862 0.5151 0.528 0.529 0.4055 0.253 0.142 0.105 0.2426 0.2351 0.2008
3771.152 0.36179 0.5188 0.5051 0.36116 0.14 0.152 0.2075 0.32515 0.4203 0.4769
3790.441 0.5332 0.2485 0.235 0.4668 0.623 0.5775 0.2839 0.2506 0.5934 0.7085
3809.731 0.5624 0.3962 0.462 0.7051 0.5505 0.516 0.38787 0.32924 0.4438 0.4932
3829.021 0.4692 0.2467 0.2705 0.4563 0.38869 0.2863 0.2875 0.103 0 0.2455
3848.311 0.4238 0.4638 0.38857 0.4044 0.4844 0.5597 0.4459 0.5111 0.678 0.5163
3867.601 0.2103 0.092 0.30702 0.31453 0.38334 0.39549 0.6237 0.7832 0.6092 0.5333
3886.890 0.5678 0.6295 0.5553 0.37549 0.414 0.7782 0.7384 0.5487 0.4243 0.5505
3906.180 0.5978 0.3619 0.4645 0.4646 0.3319 0.272 0.4394 0.5851 0.5294 0.4212
3925.470 0.36565 0.5474 0.666 0.5816 0.35341 0.33285 0.2813 0.2236 0.35531 0.4075
3944.760 0.4146 0.5319 0.5063 0.2127 0.08 0.2272 0.6153 0.7341 0.6538 0.5589
3964.049 0.5893 0.6727 0.6085 0.718 0.8054 0.7142 0.4387 0.517 0.6382 0.7206
3983.339 0.8613 0.6834 0.7709 1.0261 1.1792 1.1069 0.814 0.4669 0.3268 0.4639
##END=
