##TITLE=(S)-(+)-2',3'-Dideoxyribonolactone
##JCAMP-DX=4.24
##DATA TYPE=INFRARED SPECTRUM
##ORIGIN=EPA-IR VAPOR PHASE LIBRARY
##OWNER=SRD/NIST
Collection (C) 2018 copyright by the U.S. Secretary of Commerce
on behalf of the United States of America. All rights reserved.
##CAS REGISTRY NO=32780-06-6
##MOLFORM=C 5 H 8 O 3
##$NIST SOURCE=MSDC-IR
##STATE=gas
##XUNITS=1/CM
##YUNITS=ABSORBANCE
##XFACTOR=1.
##YFACTOR=0.001
##DELTAX=1.92898
##FIRSTX=549.8
##LASTX=4000.7
##FIRSTY=0.414
##MAXX=4000.7
##MINX=549.759
##MAXY=0.075577
##MINY=0
##NPOINTS=1790
##XYDATA=(X++(Y..Y))
549.759 0.414 1.4138 1.41 1.2054 1.1159 0.71 0.285 0.259 0.26 0.534
569.049 1.0667 1.2183 1.3775 0.9138 0.90739 1.6641 1.2576 1.3995 2.097 2.427
588.339 2.137 1.1935 1.1369 1.2172 0.890545 1.2788 1.4029 1.5385 1.6885 1.5957
607.628 1.3691 0.96269 1.4671 1.3244 1.2026 1.5494 1.2183 1.2141 1.4926 2.057
626.918 2.347 2.157 1.8268 1.555 1.2497 1.0524 1.5597 1.917 1.5697 1.0867
646.208 1.4113 2.087 2.137 1.7118 1.5542 1.74 1.8373 1.8051 1.6738 1.8101
665.498 1.6899 1.7307 1.7434 1.5931 1.591 1.8354 1.8501 1.5107 1.5679 1.2832
684.787 1.4495 1.8226 1.6504 1.3476 1.1193 1.0786 1.2682 1.7187 1.6748 1.2904
704.077 1.2632 1.0949 1.024 1.2406 1.0658 1.0661 1.1308 1.013 1.0742 0.91696
723.367 1.0772 1.2457 1.0305 1.1974 1.1786 0.72 0.766 0.890699 0.63 0.8642
742.657 1.0623 1.0795 0.91753 0.567 0.7885 1.1204 1.1155 0.892968 0.579 0.624
761.947 0.8558 0.748 0.744 0.756 0.714 0.93266 1.1967 1.2965 1.3915 1.6173
781.236 1.6056 1.3418 1.2266 1.7599 2.477 2.077 1.763 2.057 2.367 2.527
800.526 2.127 1.997 2.197 2.707 3.057 2.887 2.797 2.487 2.097 1.977
819.816 1.947 2.297 2.967 3.097 2.687 2.527 2.367 2.387 2.747 2.407
839.106 2.407 3.097 3.257 3.027 2.717 2.657 2.857 2.957 2.737 3.087
858.395 3.547 3.337 3.417 3.787 3.977 4.127 4.497 4.807 4.577 4.797
877.685 5.307 5.477 5.747 5.577 5.807 6.157 6.477 6.607 6.257 6.427
896.975 6.707 6.637 6.657 7.057 7.457 7.567 7.597 7.647 7.887 7.907
916.265 7.547 7.417 7.467 7.447 7.547 7.587 7.367 6.967 6.397 6.407
935.555 6.457 5.997 5.707 5.957 5.427 4.407 4.567 4.647 4.027 4.097
954.844 4.437 4.077 4.007 4.057 4.057 4.657 4.997 5.137 5.547 5.577
974.134 5.147 5.257 5.457 5.547 5.607 5.817 6.067 5.417 4.957 5.277
993.424 5.257 4.947 4.877 5.647 6.167 6.277 6.817 7.007 6.837 6.927
1012.714 7.687 8.367 8.087 8.647 9.537 10.037 10.877 11.907 12.987 13.267
1032.003 13.967 15.507 16.807 17.717 18.187 18.217 18.867 19.167 19.727 20.097
1051.293 19.657 19.857 19.577 19.757 19.537 17.897 16.907 15.997 16.347 16.247
1070.583 14.917 14.687 15.557 16.517 15.497 15.657 16.467 16.477 16.437 15.697
1089.873 14.637 13.757 13.427 13.257 12.627 11.837 11.327 11.937 11.117 10.417
1109.163 10.907 10.207 10.287 10.917 11.037 12.177 13.077 12.937 13.797 15.217
1128.452 17.667 19.537 20.397 21.517 22.967 25.457 26.347 26.537 27.887 29.007
1147.742 28.847 27.377 26.817 27.077 26.587 25.287 24.357 23.967 23.077 22.337
1167.032 21.407 19.767 18.887 17.367 15.647 14.837 14.217 12.987 11.547 11.027
1186.322 9.837 8.317 7.397 5.647 4.927 5.597 4.697 4.227 4.837 5.097
1205.611 4.597 3.247 1.373 0.586 1.7363 1.8509 1.5053 1.2544 1.6331 1.8039
1224.901 2.327 2.967 2.227 1.8814 1.987 2.417 2.607 1.8144 1.3871 1.285
1244.191 1.3406 2.047 2.077 2.177 3.117 3.127 3.037 3.357 3.217 3.067
1263.481 3.217 3.377 3.247 3.167 3.917 4.257 3.957 4.017 4.157 4.127
1282.771 4.027 3.887 3.837 3.997 3.697 3.457 3.707 3.827 3.897 3.997
1302.060 3.837 3.757 3.857 3.827 3.707 3.677 3.697 3.927 4.257 4.447
1321.350 4.577 4.707 4.977 5.157 5.257 5.607 6.107 6.287 6.167 6.247
1340.640 6.397 6.497 6.517 6.397 6.277 6.007 5.837 5.607 5.217 4.977
1359.930 4.727 4.487 4.267 4.097 3.937 3.827 3.727 3.577 3.427 3.207
1379.219 3.167 3.167 3.137 3.107 3.027 3.067 3.027 2.857 2.707 2.767
1398.509 2.857 2.847 2.817 2.757 2.747 2.757 2.757 2.697 2.537 2.247
1417.799 2.247 2.477 2.717 2.817 2.707 2.757 2.717 2.707 2.747 2.527
1437.089 2.477 2.557 2.387 2.347 2.467 2.507 2.577 2.597 2.717 2.947
1456.378 2.947 2.987 2.997 2.917 2.967 3.007 3.037 3.067 3.017 2.817
1475.668 2.567 2.317 2.117 1.917 1.8361 1.8429 1.6666 1.5425 1.5996 1.4728
1494.958 1.3246 1.279 1.3344 1.2243 1.1218 1.0509 0.785 0.887434 1.0476 1.0561
1514.248 0.9163 0.911 1.0204 1.0533 0.9969 1.006 1.183 1.1148 0.94936 1.0847
1533.538 1.134 1.0311 1.0614 1.1563 1.0872 0.777 0.495 0.718 1.0013 0.95159
1552.827 0.90606 0.8721 1.175 1.1845 0.92196 0.7969 0.696 0.8074 0.8601 1.1523
1572.117 1.1823 0.8764 0.95092 1.1147 0.93191 0.8539 0.95924 0.91445 0.888532 0.890282
1591.407 1.085 1.3801 1.0778 0.8116 1.1367 1.257 1.0532 1.056 1.1399 0.993
1610.697 0.92781 1.1929 1.13 1.056 1.0904 1.0846 1.2432 1.1485 0.9699 0.9296
1629.986 1.0396 1.1098 1.1519 1.2296 1.2657 1.0626 0.852 0.89962 1.0023 1.0428
1649.276 1.0459 0.94635 0.92447 1.2151 1.1767 1.045 1.159 1.2364 1.1662 1.0623
1668.566 1.0221 0.96112 1.0637 1.0978 1.1367 1.1711 1.1215 1.1849 1.1465 1.0336
1687.856 1.1111 1.1816 1.1947 1.2944 1.2637 1.118 1.049 1.2311 1.2127 1.1085
1707.146 1.3358 1.4412 1.4104 1.3637 1.3863 1.4308 1.4104 1.5982 1.6393 1.5374
1726.435 1.5308 1.53 1.5482 1.5941 1.6513 1.7757 1.7776 1.6644 1.8741 1.967
1745.725 1.8776 1.997 2.197 2.297 2.517 2.657 2.787 2.987 3.207 3.467
1765.015 3.727 4.157 4.587 4.937 5.297 5.777 6.317 7.157 8.097 8.947
1784.305 10.157 11.707 13.627 16.187 19.477 23.437 27.997 33.367 39.637 46.457
1803.594 53.247 59.897 65.487 69.737 73.067 74.997 75.577 75.027 73.427 71.077
1822.884 67.777 62.797 55.867 47.577 38.777 30.987 24.597 19.657 15.847 12.967
1842.174 10.897 9.167 7.827 6.927 6.207 5.497 4.967 4.557 4.167 4.007
1861.464 3.737 3.337 3.177 3.047 2.797 2.687 2.637 2.537 2.477 2.387
1880.754 2.247 2.157 2.117 2.137 2.217 2.167 1.947 1.907 1.7595 1.7053
1900.043 1.7962 1.7479 1.6552 1.5503 1.5837 1.6649 1.7222 1.735 1.6888 1.5209
1919.333 1.5167 1.462 1.3734 1.3459 1.282 1.3586 1.5102 1.5114 1.3614 1.2819
1938.623 1.2317 1.1857 1.1687 1.1843 1.2669 1.3156 1.166 1.0944 1.1914 1.2342
1957.913 1.1963 1.2006 1.1562 1.1128 1.0654 0.98629 1.1968 1.3478 1.319 1.2482
1977.202 1.0965 1.1446 1.3098 1.3307 1.2665 1.0797 1.0111 1.1558 1.171 1.0598
1996.492 1.1338 1.1755 1.0552 1.042 1.1467 1.2834 1.3234 1.1215 0.9153 1.0209
2015.782 1.0607 1.0555 1.0693 1.1954 1.2974 1.1237 1.0623 1.1043 1.1881 1.1835
2035.072 1.027 1.1277 1.2497 1.1324 1.2107 1.1327 0.95217 1.049 1.0714 1.1325
2054.362 1.1939 1.093 1.0652 1.1683 1.2472 1.2414 1.1632 1.1795 1.1965 1.1326
2073.651 1.1221 1.0809 1.1183 1.1524 1.0754 1.0599 1.1983 1.2229 1.0909 1.0537
2092.941 1.0293 1.024 1.1028 1.0986 1.1047 1.1991 1.129 0.96346 0.91548 1.0113
2112.231 1.0845 1.0849 1.1347 1.1849 1.1281 1.1101 1.1291 0.9925 0.8093 0.893993
2131.521 1.0416 0.9901 0.9398 0.88001 0.81 0.94956 0.95474 0.94009 1.1318 1.1845
2150.810 1.0109 0.8755 0.91889 0.8752 0.8302 0.91479 1.1221 1.1626 1.2149 1.1917
2170.100 1.0575 1.0622 1.0071 0.92322 0.91873 1.0149 0.92416 0.98219 1.1689 1.1788
2189.390 1.1399 1.1072 1.2033 1.2593 0.97024 0.722 0.94814 1.0399 0.874 0.93002
2208.680 1.0063 1.2156 1.4268 1.2255 0.87859 0.8502 1.0234 1.0876 1.0739 0.98673
2227.970 1.0868 1.128 0.98561 1.0966 1.0752 0.8439 0.8416 1.0232 1.1858 1.2632
2247.259 1.2661 1.1312 1.0395 0.95232 0.94635 0.94784 0.98669 1.189 1.1304 0.9999
2266.549 1.0212 1.0689 1.0866 1.0828 1.0616 1.0796 1.1021 1.1386 1.2452 1.1232
2285.839 1.1778 1.3482 1.1859 1.1766 1.2779 1.2505 1.3783 1.4473 1.2525 0.96523
2305.129 0.91685 1.0467 1.0621 1.0902 0.95682 0.88393 1.1782 1.2979 1.1252 0.95889
2324.418 0.87 1.0402 1.0837 0.9568 1.0675 1.1076 1.1758 1.1234 0.8603 0.758
2343.708 1.0433 1.1097 0.9923 1.1704 1.1473 1.1593 0.95887 0.729 0.9225 0.9965
2362.998 1.0609 1.2588 1.3123 1.2346 1.214 1.0857 0.97617 1.0784 0.9997 1.0169
2382.288 1.0571 1.0272 1.0218 0.9989 1.2381 1.274 1.1345 1.128 0.92024 0.7891
2401.578 0.93921 1.0826 1.1375 1.0877 1.0015 0.895155 1.0506 1.262 1.2247 1.1601
2420.867 1.0436 1.0017 1.1369 1.1895 0.9745 0.8145 0.92129 0.94347 1.0557 0.93772
2440.157 0.8412 1.2123 1.1949 1.049 1.2047 1.2384 1.0867 1.1741 1.0739 1.005
2459.447 1.2857 1.2244 1.1579 1.2361 1.1753 1.0506 0.92656 0.88293 1.0498 1.0173
2478.737 0.98197 1.0996 0.9973 0.9913 0.94899 0.96696 1.1209 0.93417 0.8384 1.0651
2498.026 0.98605 0.92772 0.98227 1.2004 1.1089 1.0204 1.2237 1.0669 1.0785 1.0635
2517.316 0.97031 1.0294 0.95543 0.895205 1.1018 1.1257 1.0382 1.0177 1.0241 1.0735
2536.606 1.1429 1.1545 1.0773 1.118 0.94536 0.7947 0.705 0.8181 1.1142 0.921
2555.896 0.755 0.8624 0.8397 0.763 0.743 0.88501 0.92544 0.93218 1.0418 0.8445
2575.186 0.8757 0.94642 1.0894 1.091 0.8168 0.95609 1.1462 1.0352 0.94089 1.001
2594.475 0.97546 1.1011 1.0183 0.8657 1.0646 1.1019 0.94293 1.1533 1.3072 1.3145
2613.765 1.1218 0.8194 0.96758 1.0168 0.93896 1.0601 1.2151 1.3036 1.2848 1.1311
2633.055 0.98181 0.94024 0.93541 1.0189 1.1771 1.2458 1.1752 1.2528 1.4351 1.343
2652.345 1.1047 0.9732 1.1777 1.1252 0.765 0.716 0.9462 1.0017 1.0054 1.109
2671.634 1.3883 1.4516 1.2279 1.2192 1.2395 1.0207 1.1753 1.5431 1.468 1.4003
2690.924 1.4693 1.3179 1.101 1.0789 1.1336 1.3069 1.1824 1.1788 1.3513 1.2664
2710.214 1.158 1.3986 1.4326 1.1052 1.0872 1.3914 1.3698 1.1677 1.0293 0.96654
2729.504 1.117 0.97491 0.8648 0.97375 0.818 0.8722 1.0513 1.2835 1.3471 1.0848
2748.794 1.2209 1.2541 1.4116 1.6286 1.4905 1.3849 1.3997 1.3177 1.1068 1.4126
2768.083 1.6712 1.5177 1.5847 1.6413 1.4904 1.3865 1.5124 1.5742 1.5815 1.2509
2787.373 1.1734 1.6704 1.8098 1.6894 1.5829 1.4623 1.4649 1.7801 1.8111 1.6193
2806.663 1.4544 1.5373 1.6692 1.3046 1.1707 1.5091 1.5393 1.4438 1.8339 1.957
2825.953 1.887 1.8276 1.917 2.077 1.7114 1.5067 1.977 2.117 2.047 2.167
2845.242 2.117 2.167 2.247 2.127 2.067 2.367 2.527 2.697 2.807 2.627
2864.532 2.777 3.227 3.477 3.587 3.957 4.287 4.287 4.407 4.427 4.627
2883.822 5.037 5.287 5.387 5.357 5.427 5.357 5.287 5.397 5.457 5.377
2903.112 5.297 5.577 5.967 6.067 6.127 6.397 6.597 6.767 7.107 7.397
2922.401 7.647 7.867 7.977 8.137 8.527 9.317 9.827 9.867 10.237 10.497
2941.691 10.677 11.007 11.017 10.907 10.767 11.107 10.787 10.117 10.147 10.147
2960.981 9.497 9.007 8.907 8.787 8.537 8.347 8.077 7.557 7.747 7.357
2980.271 6.757 6.577 6.227 6.097 6.167 5.817 5.487 5.587 5.507 4.997
2999.561 4.527 4.607 4.587 3.877 3.397 3.427 3.237 2.837 2.337 2.097
3018.850 1.8842 1.5403 1.4595 1.423 1.32 1.2222 1.1189 1.4185 1.7006 1.5524
3038.140 1.2206 1.0895 1.0705 1.0579 1.3215 1.0656 0.93188 1.11 1.2813 1.622
3057.430 1.4604 0.96451 0.877 1.2467 1.2396 1.033 1.1002 0.95635 1.0198 1.3944
3076.720 1.1854 0.88269 0.72 0.697 0.92859 1.1107 1.2027 0.94472 0.8645 0.9933
3096.009 0.765 0.694 1.008 0.895993 0.76 0.7976 0.618 0.49 0.696 0.7931
3115.299 0.749 0.97251 0.9628 0.601 0.462 0.568 0.8038 1.1038 0.89918 0.89766
3134.589 1.0551 1.083 1.2817 1.1691 0.93572 0.8627 1.0426 1.137 0.94369 0.908
3153.879 0.91314 0.765 0.7 0.92871 1.0052 1.0344 1.2235 1.0191 0.8133 0.8513
3173.169 0.93571 0.94631 1.0718 0.96443 0.742 0.9126 0.91229 1.1266 1.1045 0.778
3192.458 0.94373 1.1957 1.1593 1.0358 0.8043 0.8659 0.94389 0.96227 0.96939 0.761
3211.748 0.666 0.776 0.97518 1.0026 0.698 0.396 0.741 1.0185 1.1394 1.1278
3231.038 1.3892 1.5818 1.1157 1.0159 0.97479 0.553 0.443 0.8031 0.783 0.479
3250.328 0.517 0.890013 1.2902 1.1703 1.1158 1.2069 0.868 0.683 0.91877 0.96509
3269.617 1.1251 1.266 1.3111 0.8034 0.325 0.786 1.0227 0.697 0.768 0.97249
3288.907 0.98571 0.8309 1.0341 1.2653 1.1198 1.1134 0.8523 0.8119 0.748 0.8119
3308.197 0.8727 0.706 0.8197 1.0208 0.95401 0.723 0.25 0.228 0.401 0.27
3327.487 0.611 0.9435 0.9893 0.728 0.739 0.875 0.96254 1.1517 0.95696 0.8509
3346.777 0.93779 0.8086 0.52 0.8204 1.2182 0.679 0.227 0.751 0.91639 0.469
3366.066 0.467 0.88223 0.747 0.373 0.626 1.2408 1.3666 0.98002 0.608 0.564
3385.356 0.8211 0.8746 1.0055 1.0632 0.551 0.218 0.249 0.219 0.243 0.784
3404.646 1.0187 0.685 0.705 0.405 0.541 0.90328 0.95098 1.0191 1.1346 1.2715
3423.936 0.9937 0.9949 1.0099 0.603 0.647 0.8141 0.8594 0.766 0.8143 1.0687
3443.225 0.8259 0.8446 0.96704 0.8324 0.773 0.95962 0.93547 0.8363 1.193 0.93467
3462.515 0.77 0.758 0.41 0.39 0.425 0.669 0.575 0.636 1.0434 0.8698
3481.805 0.8363 1.0689 1.1285 0.764 0.505 0.667 0.7871 1.0793 0.96616 0.756
3501.095 1.1342 1.1876 0.8502 0.8707 1.271 1.1742 0.604 0.758 1.0188 1.096
3520.385 1.3295 1.1557 0.8382 0.90617 0.7958 0.628 0.463 0.304 0.018 0
3539.674 0.66 1.1511 1.3327 1.1975 0.97455 1.0739 1.1055 1.0605 1.0523 0.8259
3558.964 0.736 0.7886 1.192 1.2658 1.3107 1.5333 1.4264 1.3357 1.2941 1.434
3578.254 1.3226 1.3349 1.5333 1.7265 1.8305 1.5548 1.4687 1.5763 1.6528 1.5201
3597.544 1.5524 1.6927 1.7035 1.6614 1.6008 1.8072 2.127 2.147 1.8015 1.7402
3616.833 2.457 2.537 1.897 2.557 3.347 3.447 3.517 3.217 3.257 3.747
3636.123 3.807 4.107 4.567 4.827 5.087 4.947 4.417 3.727 3.647 3.897
3655.413 3.957 4.117 4.337 3.857 3.527 3.567 3.387 3.367 3.347 3.297
3674.703 2.697 2.887 3.157 2.597 2.657 2.647 2.387 2.027 1.7846 1.927
3693.993 1.7673 1.6139 1.3864 1.2766 1.1284 1.3257 1.7889 1.3917 0.9459 0.686
3713.282 0.8592 1.0362 0.88507 0.8583 0.768 0.527 0.783 1.4653 1.617 1.3091
3732.572 0.9629 0.7958 0.713 0.611 0.97631 1.0694 1.0223 1.1223 0.88567 0.774
3751.862 1.1641 1.3616 0.92314 0.8642 0.8352 0.8651 0.8732 0.723 0.93704 1.1233
3771.152 0.683 0.206 0.545 1.2126 1.4241 1.0022 0.609 0.295 0.745 1.2588
3790.441 0.766 0.526 0.89138 1.2643 1.0817 0.8646 0.95439 0.92683 0.8233 0.568
3809.731 0.64 1.0688 0.93181 0.635 0.585 0.671 0.484 0.234 0.51 0.705
3829.021 0.542 0.8075 0.9903 1.1312 0.90552 0.524 0.612 0.45 0.565 0.615
3848.311 0.56 0.91085 1.3616 0.97177 0.504 0.419 0.603 1.0271 0.59 0.464
3867.601 1.0942 1.1108 1.1553 0.87956 0.717 0.8704 0.657 0.603 0.8051 0.91281
3886.890 0.895361 1.1626 1.0989 0.88127 1.0119 1.0711 0.747 0.52 1.1183 1.1966
3906.180 0.694 0.616 0.92806 0.8253 0.8328 1.3838 1.4981 1.4306 1.2605 1.2379
3925.470 1.3311 0.87724 0.701 0.96995 0.94781 0.8666 0.9992 1.0714 0.93004 1.2411
3944.760 1.4754 1.0401 0.89865 0.8005 0.646 0.7883 0.778 0.7957 0.608 0.669
3964.049 1.0432 0.7989 0.8561 1.3224 1.3438 1.3 1.1212 0.8767 0.653 0.8434
3983.339 1.2933 1.1517 1.0371 0.709 0.542 0.672 0.612 1.0202 1.1681 0.92302
##END=
