##TITLE=2,4,5-Tribromotoluene
##JCAMP-DX=4.24
##DATA TYPE=INFRARED SPECTRUM
##ORIGIN=EPA-IR VAPOR PHASE LIBRARY
##OWNER=SRD/NIST
Collection (C) 2018 copyright by the U.S. Secretary of Commerce
on behalf of the United States of America. All rights reserved.
##CAS REGISTRY NO=3278-88-4
##MOLFORM=C 7 H 5 Br 3
##$NIST SOURCE=MSDC-IR
##STATE=gas
##XUNITS=1/CM
##YUNITS=ABSORBANCE
##XFACTOR=1.
##YFACTOR=0.001
##DELTAX=1.92898
##FIRSTX=549.8
##LASTX=4000.7
##FIRSTY=1.6261
##MAXX=4000.7
##MINX=549.759
##MAXY=0.09949
##MINY=0
##NPOINTS=1790
##XYDATA=(X++(Y..Y))
549.759 1.6261 1.70825 2.1869 3.29 3.15 3.35 3.03 1.77182 1.229 2.2729
569.049 2.97 2.5478 1.086 0.37 1.23 2.626 2.92 2.38 2.1838 2.3363
588.339 2.5822 2.2863 2.0073 2.6864 2.96 3.15 3.36 3.37 3.03 2.94
607.628 3.89 3.11 2.6823 4.26 5.24 6.42 9.42 13.27 15.89 17.41
626.918 18.21 16.94 13.78 9.65 6.82 5.47 4.82 3.99 3.4 3.23
646.208 3.08 3.17 2.82 3.1 2.91 2.5137 2.87 2.5559 2.2686 2.3758
665.498 2.557 2.4504 2.2997 2.99 3.5 2.9 2.3612 2.5 2.5192 2.5024
684.787 3.07 3.8 4.04 3.88 3.76 4.16 4.4 4.34 3.59 2.4692
704.077 2.0914 1.79922 1.6851 1.204 1.011 2.0182 2.4324 2.5484 3.19 3.4
723.367 3.2 3.17 3.62 4.03 3.7 3.98 4.51 3.99 3.01 2.6639
742.657 2.6082 2.545 2.72 2.5565 2.6129 2.76 2.6266 2.89 2.83 2.2505
761.947 2.5558 2.6607 2.345 2.5148 2.4639 2.5473 2.95 3.4 3.72 3.58
781.236 3.64 3.71 3.71 3.71 3.78 3.77 3.08 2.4761 2.4826 2.86
800.526 2.4675 2.2228 2.3713 2.2137 2.5497 2.5076 2.119 2.4375 1.9387 1.027
819.816 0.997 1.258 1.417 1.502 1.6676 2.0998 2.4558 2.72 3 2.97
839.106 3.08 2.84 3.1 4.19 4.63 4.95 6.19 7.02 7.47 8.58
858.395 9.96 10.62 11.69 13.18 14.6 17.14 19.81 22.64 25.8 27.36
877.685 25.45 21.6 18.38 15.02 11.41 9.02 6.89 5.29 4.41 3.71
896.975 3.82 4.11 3.86 3.53 3.13 2.6851 2.81 3.11 3.06 3.15
916.265 2.95 2.3991 2.3461 2.78 3.11 2.85 2.464 2.5706 2.6053 1.8673
935.555 1.609 2.2666 2.2646 1.77985 1.79464 1.8705 1.77732 2.1646 2.5569 2.5542
954.844 2.1132 1.73666 2.2197 2.0539 2.1165 2.6063 2.4621 2.6706 2.75 2.71
974.134 2.98 3.3 3.85 3.73 3.65 4.31 4.22 3.93 3.85 4.17
993.424 5.07 5.86 6.04 6.62 7.42 7.35 6.46 6.03 6.04 5.41
1012.714 4.93 4.33 4.71 4.91 5.47 6.8 7.38 9.7 13.48 17.98
1032.003 27.44 41.83 59.26 77.78 91.97 99.49 98.95 89.28 70.19 47.38
1051.293 28.91 17.18 12.34 8.96 6.33 6.37 5.99 5.11 4.62 5.21
1070.583 5.37 4.18 3.79 4.56 2.84 1.414 2.3614 3.85 6.43 7.08
1089.873 5.86 3.97 4.57 7.45 7.78 7.44 8.45 9.28 11.14 13.54
1109.163 14.34 14.51 16.21 19 20.56 21.14 20.23 19.09 18.07 14.57
1128.452 11.8 9.84 7.41 6.39 5.61 5.69 5.52 3.52 2.557 3.34
1147.742 3.69 4.8 4.74 3.67 3.58 3.56 3.56 3.47 3.11 2.6672
1167.032 2.97 3.75 3.56 2.94 2.71 2.5503 2.6992 2.5771 2.5113 3.44
1186.322 4.5 5.72 6.82 6.35 6.04 4.37 2.5128 3.09 2.97 2.0647
1205.611 0 1.077 2.97 2.88 3.19 3.17 2.85 2.1811 2.89 3.12
1224.901 2.4356 2.92 2.3034 1.257 1.537 1.568 0.952 1.555 2.6455 2.89
1244.191 3.26 3.66 4.48 3.67 2.3446 2.6422 3.53 3.68 2.87 2.9
1263.481 2.3007 1.9089 2.4598 1.9429 1.018 1.054 1.266 1.407 1.73733 2.2738
1282.771 2.3978 2.0889 2.2979 2.3141 2.5443 2.3975 2.0197 2.5126 2.525 2.5785
1302.060 3.24 3.94 4.62 5.43 6.79 8.23 9.78 11.96 14.46 16.93
1321.350 19.14 20.61 21.02 20.36 18.88 16.58 13.76 11.41 9.4 7.91
1340.640 6.99 6.23 5.68 5.34 4.94 4.6 4.55 4.18 3.92 4.02
1359.930 3.75 3.37 3.38 3.39 3.52 3.51 3.36 3.53 3.77 4.06
1379.219 4.65 5.16 5.5 5.71 6.08 6.46 6.48 6.01 5.64 5.5
1398.509 5.23 5.27 5.54 6.09 6.51 6.95 7.87 9.25 11.33 13.75
1417.799 16.58 20.33 24.35 28.42 32.49 35.88 37.72 38 36.49 33.62
1437.089 30.25 27.25 25.71 25.56 27.2 30.6 35.41 41.28 48.14 54.96
1456.378 60.54 62.88 60.58 54.52 45.25 34.07 24.1 17.09 12.69 10.04
1475.668 8.73 7.66 7.01 6.82 6.57 6.23 5.79 5.44 5.2 4.77
1494.958 4.6 4.55 4.46 4.15 3.93 4.06 4.09 3.87 3.81 3.8
1514.248 3.77 3.45 3.42 3.62 3.75 3.88 3.9 3.89 3.75 3.74
1533.538 3.75 3.51 3.5 3.84 3.79 3.65 3.72 3.58 3.61 4.01
1552.827 3.91 3.8 3.95 4.04 3.71 3.52 3.7 3.83 3.86 3.81
1572.117 3.83 3.67 3.53 3.44 3.36 3.27 3.09 2.89 2.87 2.6886
1591.407 2.4225 2.5351 2.7043 2.7094 2.6971 2.433 2.2379 2.5561 2.6311 2.5013
1610.697 2.3921 2.0696 2.157 2.5139 2.2889 2.1951 2.6621 2.5506 2.2109 2.2283
1629.986 2.1567 2.1515 2.2292 2.5003 2.5631 2.2054 2.107 2.1865 2.1535 2.1214
1649.276 2.1606 2.1387 2.2929 2.1558 1.8499 2.1016 1.9932 1.72155 2.0953 2.2397
1668.566 1.8723 1.8324 1.9542 1.8637 1.9944 1.9323 1.523 1.354 1.8246 2.2855
1687.856 1.9486 1.6116 1.70111 1.70189 1.8146 1.9975 1.9449 1.9055 2.0647 2.006
1707.146 1.9256 2.0134 2.2028 2.3595 2.3048 2.4461 2.6833 3.01 3.39 3.62
1726.435 3.79 4.14 4.25 4.24 4.31 4.07 3.93 3.91 3.78 3.37
1745.725 2.94 2.88 2.6044 2.4284 2.4586 2.2908 2.0578 1.73485 1.80679 2.1521
1765.015 2.2215 1.8333 1.672 2.0755 2.0071 1.75424 1.74996 1.8107 1.8479 1.74771
1784.305 1.8152 2.0883 1.995 1.8186 1.8868 1.9523 1.8507 1.8551 1.9221 1.8891
1803.594 1.814 1.8298 2.053 2.1449 2.1954 1.9276 1.80058 1.80754 1.861 2.1541
1822.884 2.148 2.0465 2.0078 1.8238 1.8873 2.0431 2.0634 1.9325 1.70677 1.7332
1842.174 1.71304 1.6789 1.8796 1.9057 1.8651 1.8238 1.9627 2.1177 2.0605 2.0377
1861.464 1.9119 1.8804 1.73695 1.634 1.70437 1.8501 1.9439 2.0652 2.0832 2.0547
1880.754 2.1541 2.1423 2.1174 2.2223 2.3165 2.2571 2.3059 2.2714 2.1431 2.1077
1900.043 2.2956 2.3496 2.2224 2.245 2.3473 2.2099 1.95 2.0165 1.9622 1.8457
1919.333 1.9723 2.1197 2.0839 1.8426 1.9221 2.2492 2.1488 2.0218 1.9295 2.04
1938.623 2.3221 2.2216 2.0084 1.8798 1.9252 1.8413 1.759 1.9821 1.9894 1.77334
1957.913 1.73541 1.8499 1.75395 1.6947 1.8724 1.8563 1.8607 1.9394 1.8374 1.6948
1977.202 1.8186 2.0148 2.1415 1.9713 1.72145 1.8743 1.9978 1.8995 2.0517 2.0141
1996.492 1.603 1.6856 1.8986 1.75718 1.8492 2.0552 1.9489 1.8175 1.558 1.521
2015.782 1.78687 2.0906 2.1777 1.9924 1.8383 1.577 1.565 1.78939 1.78627 1.6945
2035.072 1.72798 1.71985 1.71719 1.80305 1.73427 1.75744 1.8851 1.80073 1.8443 1.8878
2054.362 1.8547 2.1003 2.0651 1.9713 1.8704 1.8429 1.9774 1.8113 1.8996 2.1055
2073.651 2.1078 2.0529 1.9878 2.0117 1.9839 1.76919 1.549 1.6352 1.838 1.9113
2092.941 1.8992 1.9419 1.8987 1.8548 1.8787 1.70016 1.74976 1.8935 1.9181 1.8177
2112.231 1.6249 1.8396 1.897 1.77246 1.78139 1.75 1.80916 1.946 1.9281 1.8142
2131.521 1.608 1.556 1.9884 2.1196 2.0839 2.022 1.9649 2.2198 2.1188 1.9748
2150.810 2.1479 1.8407 1.603 1.6597 1.6692 1.79032 1.8432 1.79794 1.9024 1.9304
2170.100 1.76506 1.9306 1.8569 1.75722 1.8413 1.9659 1.931 1.9031 1.8466 1.74542
2189.390 1.913 1.9184 1.8955 1.9634 1.984 1.71498 1.6644 1.831 1.9589 2.0051
2208.680 1.928 1.8953 1.8164 1.812 1.77048 1.9163 2.1276 1.76403 1.579 1.6418
2227.970 1.80295 1.9749 1.923 1.9048 1.8859 1.9079 1.931 1.8525 1.80008 1.6578
2247.259 1.515 1.6152 1.6368 1.61 1.673 1.71025 1.76828 1.9626 1.8707 1.8692
2266.549 1.978 1.80923 1.8867 2.0184 1.8694 1.75261 1.8312 1.79051 1.7597 1.8459
2285.839 1.9112 2.0991 2.0359 1.8368 1.8378 1.855 1.70634 1.528 1.817 2.0296
2305.129 2.0213 1.9737 1.9165 1.9478 1.6787 1.9448 2.3099 1.8166 1.72263 1.78287
2324.418 1.49 1.39 1.6697 1.9304 1.78625 1.70677 2.0076 2.0539 1.608 1.7202
2343.708 2.0692 1.993 1.9625 2.2001 2.2332 2.0127 2.0671 2.0647 2.0504 2.1974
2362.998 2.2357 2.0299 1.8347 1.77569 1.9175 2.1722 2.1671 1.9202 1.77985 2.0852
2382.288 2.2635 2.0891 1.998 2.0565 1.9692 1.8138 2.1099 2.1233 1.80225 1.74553
2401.578 1.75471 1.8568 1.9172 2.0039 2.0235 2.0814 1.8603 1.518 1.597 1.6168
2420.867 1.9219 2.038 1.73071 1.9857 2.1393 1.8903 1.9188 1.9152 1.6832 1.9724
2440.157 2.146 1.9216 2.0656 2.1736 2.0541 1.9917 2.1817 2.3172 2.0089 1.9079
2459.447 1.9243 1.7654 1.9561 2.106 1.73038 1.6641 1.9406 2.2077 2.0208 1.9222
2478.737 2.199 1.8642 1.6449 1.68 1.77811 1.9379 2.1579 2.0401 1.595 1.74811
2498.026 1.8991 1.8151 1.9088 1.9825 1.9728 1.913 1.9272 1.9345 2.025 2.0095
2517.316 1.79569 1.73516 1.8195 1.79501 1.501 1.38 1.6833 1.9185 1.8593 1.8705
2536.606 1.9623 2.098 2.0254 1.75707 1.80619 1.8146 2.0477 2.0871 1.8616 1.8722
2555.896 2.0245 2.0582 1.9217 2.0373 1.9953 1.73637 1.80651 2.3306 2.6696 2.5126
2575.186 2.0641 1.6803 1.80391 2.0474 1.9655 2.1873 2.3801 2.1342 1.978 2.272
2594.475 2.3229 2.0109 1.904 1.8731 1.9573 2.1428 2.0649 2.1494 2.1322 1.8572
2613.765 2.0042 2.0816 2.0481 2.2023 2.1677 2.0195 2.2964 2.4437 2.3625 2.1134
2633.055 2.0171 2.0694 1.8363 2.0081 2.3677 2.569 2.3259 2.1677 2.1071 1.9438
2652.345 2.0294 1.696 1.563 1.8178 2.0261 2.1753 2.1902 2.0778 2.0036 2.0695
2671.634 2.0941 1.9084 1.8865 1.9954 2.0411 2.2181 2.2905 2.0393 1.80531 1.8266
2690.924 2.0723 1.83 1.71938 2.155 2.2845 2.242 2.0491 2.1505 1.9263 1.77855
2710.214 1.826 1.9623 2.2091 2.0694 1.8114 1.9574 1.9737 1.6494 1.8368 2.2013
2729.504 2.2834 1.8752 1.607 1.564 1.6442 1.77689 2.1165 2.4209 2.4757 2.5539
2748.794 2.5584 2.5489 2.6011 2.74 2.6421 2.294 1.8352 2.023 2.3507 2.3193
2768.083 2.3985 2.2631 1.9597 2.2612 2.5292 2.1111 2.1256 2.1765 2.2783 2.4721
2787.373 2.2833 2.179 2.332 2.2682 2.1476 2.0376 1.8982 2.1601 2.2881 2.1448
2806.663 1.9504 1.9907 2.0211 1.887 2.202 2.461 2.2703 1.9205 1.9331 2.5247
2825.953 2.4776 2.3613 2.3669 2.3123 2.4838 2.3974 2.84 2.75 2.1198 2.1332
2845.242 2.1946 2.3153 2.5432 2.82 3.18 3.02 2.91 3.2 3.48 3.75
2864.532 4.1 4.46 4.16 3.75 3.83 4.11 4.1 3.79 3.47 3.58
2883.822 3.8 3.47 3.39 3.73 3.68 3.12 2.78 2.88 3.01 2.6766
2903.112 2.89 3.14 3.06 3.34 3.7 4.02 4.27 4.56 4.86 5.08
2922.401 5.69 6.1 6.21 7.46 8.7 9.44 9.85 10.12 10.08 9.61
2941.691 9.04 8.52 7.92 7.11 6.49 6.15 5.68 5.62 6.12 6.09
2960.981 5.44 4.88 5.66 6.45 5.96 6.1 6.07 5.48 5.55 5.62
2980.271 5.65 6.02 6.22 6.36 6.65 6.4 6.37 6.47 6.04 5.45
2999.561 4.76 4.44 4.21 3.87 3.96 4.19 4.06 3.67 3.4 3.8
3018.850 3.84 3.25 3.04 2.91 2.75 2.6558 2.86 3.17 3.17 3.15
3038.140 2.79 2.5517 3.02 3.4 2.96 2.97 3.18 3 2.8 2.4689
3057.430 3.08 3.54 3.7 3.08 2.84 3.68 3.71 3.06 2.83 3.23
3076.720 2.8 2.5527 2.5675 2.5289 3.14 3.05 2.73 2.5024 2.2661 2.0831
3096.009 2.4971 2.4338 2.2491 2.85 2.95 2.93 2.3579 1.9199 1.9875 2.0303
3115.299 2.72 3.04 2.7028 2.3504 2.2146 1.8665 1.451 1.6388 1.8238 1.652
3134.589 1.8254 1.9516 1.9321 2.2847 2.0411 1.9949 2.4086 2.71 2.84 2.3999
3153.879 1.9998 2.1052 2.6284 2.8 2.3671 2.5296 2.5616 2.4421 2.5107 2.1654
3173.169 1.9886 1.9156 1.593 1.9093 1.9355 1.8639 2.3769 2.2202 2.1166 2.3258
3192.458 2.3012 2.2637 2.2208 1.74858 1.8529 1.73043 1.505 1.964 2.1481 2.3588
3211.748 2.4993 2.0076 1.264 1.259 1.466 2.0502 2.1407 2.1958 2.91 2.76
3231.038 1.9475 1.287 1.328 1.442 1.462 1.316 1.412 1.9523 2.0207 1.9868
3250.328 1.9102 1.77509 1.534 1.457 1.565 1.598 1.601 1.77232 1.80414 1.80039
3269.617 1.9044 1.6941 1.278 1.302 1.71053 1.9028 2.0184 1.86 1.8449 1.7932
3288.907 2.09 2.0265 1.71383 1.849 1.318 1.6625 1.8673 1.584 2.3472 2.98
3308.197 2.2819 1.172 1.533 2.0378 2.0343 1.9912 2.2397 2.2844 1.80824 1.8723
3327.487 2.0196 1.6803 1.168 1.182 1.427 1.383 1.443 1.575 1.9035 1.9451
3346.777 2.0243 2.1721 1.9695 2.2667 2.7016 2.6111 2.3163 1.9776 1.647 1.7479
3366.066 1.6512 1.27 1.448 1.70914 1.76601 2.1241 2.0719 1.322 0.913 0.762
3385.356 0.59 0.799 1.443 1.8312 1.79689 2.2509 2.3971 2.0011 2.0156 1.6994
3404.646 1.415 1.9084 2.1552 1.8356 1.359 1.072 1.075 1.473 1.9583 1.9809
3423.936 1.9935 2.0512 1.9187 2.1183 1.9431 2.1561 1.77261 0.953 1.8378 1.566
3443.225 1.506 2.0659 1.6692 1.592 2.0283 1.75574 0.957 1.528 2.1712 2.2542
3462.515 2.2791 1.75579 1.7242 1.975 1.6623 1.6542 2.1209 1.9472 1.353 1.156
3481.805 1.39 1.7102 1.70267 2.1105 1.355 0.982 1.007 1.014 1.468 1.6842
3501.095 2.1515 1.72246 1.671 2.1129 2.1899 1.6257 1.377 1.343 1.146 1.019
3520.385 1.374 1.9368 1.79897 1.022 1.21 1.6798 1.42 2.0137 2.2158 1.79076
3539.674 1.6441 1.76645 2.0984 2.1265 2.3119 2.2024 2.0794 1.9683 1.9684 2.2588
3558.964 1.9211 1.6735 1.8308 2.0295 1.6833 1.9127 2.2784 2.073 1.6896 1.8831
3578.254 2.5793 2.061 1.564 1.9477 2.3422 2.1896 2.1092 2.6089 2.6309 2.1217
3597.544 1.8435 1.75574 1.9225 2.1286 2.3263 2.2567 1.9901 2.1104 1.8629 1.439
3616.833 1.061 1.077 1.129 0.853 0.725 1.398 1.8144 1.552 1.9131 1.9118
3636.123 1.8833 1.9349 1.388 1.378 1.6452 1.593 1.58 1.593 1.6173 1.561
3655.413 1.44 1.71444 2.2542 2.2631 1.9014 1.556 1.70642 1.9558 1.8634 1.8617
3674.703 2.1655 2.02 2.0505 2.4098 1.8902 1.73008 1.6237 1.6765 1.8737 1.383
3693.993 1.521 1.8944 1.552 1.6495 1.582 1.74746 2.09 2.2365 2.3587 1.9511
3713.282 1.8817 1.8585 1.77378 1.237 1.26 1.382 1.8265 2.0256 1.231 1.6814
3732.572 2.2053 2.0259 1.8452 1.9846 2.0538 1.70204 1.364 1.335 1.71608 1.329
3751.862 1.131 1.561 1.8501 1.456 1.233 1.6814 1.74727 1.448 1.337 1.372
3771.152 1.426 1.9184 2.1934 2.3151 2.89 3.01 2.4115 1.8799 1.8485 2.3837
3790.441 2.5205 2.345 2.2528 2.329 2.4839 2.302 2.0206 1.6272 1.121 1.316
3809.731 1.298 0.66 1.079 1.575 1.8993 1.9884 1.324 1.362 1.6294 1.204
3829.021 1.198 1.6472 1.76017 1.599 1.78485 2.4023 2.0293 1.511 1.77196 2.0101
3848.311 1.829 1.588 1.38 1.439 1.9311 2.1022 2.2187 2.472 2.2635 1.821
3867.601 1.77169 1.9534 1.9903 1.72029 1.384 1.536 1.6829 1.9097 2.1552 2.4337
3886.890 2.5637 2.1461 1.8126 1.74427 2.0021 1.9796 1.527 1.462 1.425 1.8778
3906.180 1.68 1.198 1.636 2.1045 2.4222 2.6203 2.3037 2.4771 2.75 2.0627
3925.470 1.359 1.083 1.202 1.297 1.9191 2.1187 1.8876 1.9343 1.8999 1.77978
3944.760 1.6366 1.8477 2.0124 1.457 1.342 1.447 1.6459 1.8317 1.9395 2.83
3964.049 2.599 1.8462 2.2658 2.3724 1.679 1.509 2.1591 2.1473 2.6305 2.6585
3983.339 2.0118 2.0124 1.77052 1.607 1.6497 1.596 1.542 1.6537 1.8278 1.8329
##END=
