##TITLE=3-Methoxy-5-nitrobenzotrifluoride
##JCAMP-DX=4.24
##DATA TYPE=INFRARED SPECTRUM
##ORIGIN=EPA-IR VAPOR PHASE LIBRARY
##OWNER=SRD/NIST
Collection (C) 2018 copyright by the U.S. Secretary of Commerce
on behalf of the United States of America. All rights reserved.
##CAS REGISTRY NO=328-79-0
##MOLFORM=C 8 H 6 F 3 N O 3
##$NIST SOURCE=MSDC-IR
##STATE=gas
##XUNITS=1/CM
##YUNITS=ABSORBANCE
##XFACTOR=1.
##YFACTOR=0.001
##DELTAX=1.92898
##FIRSTX=549.8
##LASTX=4000.7
##FIRSTY=2.942
##MAXX=4000.7
##MINX=549.759
##MAXY=0.289612
##MINY=0
##NPOINTS=1790
##XYDATA=(X++(Y..Y))
549.759 2.942 2.862 3.252 3.192 3.552 3.522 2.692 2.162 1.7344 2.142
569.049 2.672 2.662 3.022 2.502 1.992 2.712 2.312 1.2565 0.8848 1.0764
588.339 1.2907 1.3092 1.05261 1.154 1.4762 0.98931 1.02577 1.5514 1.7349 1.7306
607.628 1.4131 1.01161 0.9291 1.1347 1.4925 1.2858 1.2439 1.7873 1.3039 1.1483
626.918 1.9488 2.222 2.512 2.852 2.562 2.442 2.532 2.362 2.182 2.032
646.208 2.312 2.052 1.8255 2.212 2.082 1.4954 1.5291 1.9505 2.282 2.642
665.498 2.302 1.6946 1.7892 2.752 3.852 4.762 6.982 10.442 14.202 18.212
684.787 23.102 31.232 44.022 55.032 57.912 58.422 59.072 56.732 51.752 42.872
704.077 30.112 18.902 12.082 8.022 5.642 4.352 3.632 3.222 2.722 2.572
723.367 2.722 2.852 3.042 3.332 4.332 5.432 6.522 7.932 9.862 12.002
742.657 14.432 17.702 18.042 15.262 13.252 11.782 10.412 10.522 12.152 14.352
761.947 18.362 25.362 33.482 39.912 43.242 44.072 43.452 40.532 34.372 26.202
781.236 18.682 13.262 9.732 7.572 6.112 5.282 4.942 4.312 3.482 3.042
800.526 2.832 2.992 3.142 2.812 2.342 2.482 2.422 1.9178 2.572 2.772
819.816 1.717 2.092 3.012 1.97 1.4836 2.152 2.412 2.592 3.042 3.112
839.106 2.962 3.032 2.942 2.932 3.312 3.712 4.062 5.092 5.932 7.132
858.395 9.062 10.692 13.332 17.362 22.062 27.582 32.392 36.562 40.562 43.402
877.685 45.112 45.242 43.982 42.912 42.122 40.422 38.612 35.862 31.352 27.522
896.975 24.972 22.702 20.202 17.682 15.602 14.472 14.442 14.402 14.312 14.292
916.265 13.792 12.962 12.072 10.962 9.592 8.472 7.362 6.202 5.872 5.562
935.555 4.822 4.362 4.212 4.092 3.782 3.432 3.542 3.342 2.902 2.782
954.844 2.702 2.632 2.452 2.652 3.072 3.052 2.792 2.922 2.992 3.012
974.134 3.282 3.502 3.612 3.872 4.152 4.552 4.702 4.512 5.522 6.182
993.424 6.282 6.352 6.262 6.422 6.542 6.432 6.012 5.662 5.842 6.512
1012.714 7.352 8.412 9.352 10.752 12.112 13.592 15.792 19.022 22.292 25.822
1032.003 31.372 37.502 44.282 53.182 63.292 73.272 84.102 95.452 104.182 109.702
1051.293 110.612 107.442 100.672 89.462 76.282 61.682 47.932 37.442 29.922 24.792
1070.583 21.672 20.452 19.612 19.632 20.762 23.132 26.132 30.002 35.422 40.632
1089.873 45.092 49.122 52.102 53.832 54.752 54.012 51.202 48.402 46.112 41.982
1109.163 36.832 32.012 28.432 25.412 22.792 21.112 20.732 20.852 21.342 23.032
1128.452 24.322 26.992 31.822 37.992 46.612 57.902 73.552 93.192 116.282 143.802
1147.742 174.062 204.832 234.152 258.402 267.552 253.132 221.232 185.972 153.902 124.392
1167.032 100.642 87.202 85.432 93.732 110.312 131.962 156.192 179.342 195.742 199.752
1186.322 191.182 174.732 152.012 126.632 100.982 77.162 58.192 44.942 35.992 31.452
1205.611 28.232 25.822 25.392 25.472 26.342 28.292 30.922 34.502 39.852 44.192
1224.901 49.972 58.932 68.012 76.252 83.622 88.532 91.582 92.222 89.782 83.342
1244.191 75.072 67.122 59.442 53.872 50.492 48.852 47.182 44.982 42.782 39.922
1263.481 36.042 31.672 27.422 23.612 20.942 19.672 18.922 18.702 19.412 20.112
1282.771 20.582 21.782 23.842 26.492 29.742 34.232 40.092 47.292 56.482 67.642
1302.060 80.252 93.922 107.792 120.492 131.902 142.752 153.302 164.662 178.262 195.132
1321.350 215.722 238.772 261.372 279.642 289.612 289.512 279.262 258.862 231.132 200.662
1340.640 171.272 147.492 131.462 123.412 122.652 127.032 134.312 141.922 147.282 149.112
1359.930 146.792 140.242 129.232 114.412 98.282 82.902 69.342 58.222 49.502 42.722
1379.219 37.422 33.602 30.792 28.642 27.082 25.802 24.912 24.282 23.752 23.292
1398.509 22.772 22.052 21.392 20.922 20.502 20.082 19.902 20.192 20.932 22.152
1417.799 23.962 26.332 29.192 32.692 36.722 40.862 44.942 48.622 51.612 53.942
1437.089 55.432 55.632 55.012 54.252 53.812 54.112 55.402 57.482 60.062 62.282
1456.378 63.662 64.542 64.842 64.242 62.982 61.762 61.112 61.042 60.932 60.042
1475.668 57.482 53.222 48.122 42.702 37.432 32.692 28.762 25.742 23.702 22.362
1494.958 21.522 21.412 21.682 22.102 22.992 24.222 25.422 26.732 28.072 29.032
1514.248 29.602 29.782 29.632 28.942 28.052 27.502 26.982 26.982 27.852 29.402
1533.538 31.962 35.952 41.442 49.242 59.322 72.162 88.952 109.912 134.362 161.832
1552.827 188.142 210.512 223.472 225.012 215.602 197.172 170.452 138.442 106.122 78.642
1572.117 59.632 47.822 41.212 38.082 37.012 37.692 39.022 40.552 42.392 44.042
1591.407 45.332 46.192 45.882 44.492 42.592 40.052 36.862 32.882 28.652 25.152
1610.697 22.532 20.532 19.132 18.362 18.142 18.252 18.212 18.102 18.002 17.742
1629.986 17.312 16.762 16.232 15.542 14.592 13.682 12.872 12.212 11.442 10.592
1649.276 10.052 9.432 8.822 8.212 7.582 7.042 6.602 6.272 5.972 5.672
1668.566 5.382 5.092 4.782 4.562 4.542 4.352 4.182 4.062 3.742 3.522
1687.856 3.302 3.272 3.242 3.132 2.902 2.552 2.562 2.672 2.712 2.752
1707.146 2.622 2.572 2.532 2.442 2.542 2.622 2.712 2.772 2.952 3.112
1726.435 3.192 3.452 3.492 3.342 3.582 3.832 3.832 3.782 3.642 3.702
1745.725 3.782 3.742 3.562 3.542 3.692 3.672 3.772 3.952 4.102 4.122
1765.015 4.202 4.472 4.602 4.642 4.682 4.772 4.882 5.052 5.172 5.052
1784.305 5.022 5.022 4.892 4.782 4.632 4.412 4.172 4.032 3.802 3.542
1803.594 3.372 3.202 3.052 2.782 2.572 2.422 2.302 2.192 2.242 2.152
1822.884 1.9099 1.8547 1.8767 1.9212 1.8935 1.755 1.5863 1.5894 1.7078 1.7606
1842.174 1.8002 1.74 1.5771 1.5702 1.6128 1.6258 1.7198 1.7902 1.8378 1.9205
1861.464 1.8593 1.7032 1.7652 1.8775 1.824 1.8451 1.9231 1.8105 1.7234 1.6503
1880.754 1.4972 1.6526 1.7894 1.6977 1.6748 1.6032 1.3994 1.3599 1.4814 1.6162
1900.043 1.6623 1.5199 1.5948 1.6548 1.4704 1.4596 1.5693 1.6215 1.7009 1.5805
1919.333 1.478 1.5599 1.5435 1.6785 1.7809 1.7754 1.6407 1.543 1.5135 1.4309
1938.623 1.473 1.6208 1.7149 1.5707 1.6569 1.7196 1.6969 1.9125 2.192 2.162
1957.913 1.9312 1.9633 2.102 2.072 2.002 2.012 1.9603 1.8968 1.9564 1.9316
1977.202 1.7872 1.7058 1.6814 1.6659 1.69 1.6926 1.6089 1.6222 1.6766 1.7333
1996.492 1.7138 1.6999 1.8361 1.8952 1.8316 1.7957 1.82 1.8439 1.7536 1.6587
2015.782 1.7654 1.9361 1.9411 1.9449 1.9452 1.992 2.052 2.132 2.222 2.152
2035.072 2.032 1.8711 1.7782 1.776 1.9509 1.8811 1.7537 1.821 1.9317 1.982
2054.362 1.8089 1.9179 1.982 1.8826 1.7396 1.6187 1.7621 1.7055 1.6692 1.8246
2073.651 1.8711 1.8416 1.8583 1.9578 2.082 2.142 2.252 2.322 2.282 2.402
2092.941 2.462 2.532 2.652 2.882 3.122 3.182 3.112 3.082 3.122 2.982
2112.231 2.782 2.632 2.652 2.592 2.292 2.172 2.192 2.172 2.112 1.9139
2131.521 1.7301 1.7204 1.7544 1.7985 1.9418 1.8747 1.7653 1.9048 1.9577 1.982
2150.810 2.052 1.9242 1.8616 2.022 2.022 1.9205 1.8412 1.7908 1.8958 2.012
2170.100 2.062 2.002 1.9405 1.8662 1.7705 1.7377 1.6559 1.5796 1.2687 1.2886
2189.390 1.6806 1.7609 1.7341 1.7132 1.7696 1.9126 1.7966 1.5948 1.3175 1.4042
2208.680 1.5995 1.5491 1.5475 1.4096 1.3587 1.4096 1.4977 1.3859 1.3523 1.3864
2227.970 1.3115 1.4618 1.5633 1.6094 1.6502 1.6437 1.8124 1.8619 1.7726 1.6857
2247.259 1.8031 1.8603 1.6962 1.6112 1.5025 1.4971 1.6646 1.6803 1.5349 1.6589
2266.549 1.8011 1.6501 1.6677 1.7374 1.6586 1.8166 1.8846 1.7438 1.7425 1.7853
2285.839 1.7159 1.6996 1.7057 1.7917 2.002 1.9584 1.9279 1.9353 1.8005 1.8103
2305.129 1.7503 1.7107 2.022 2.032 1.796 1.8248 2.072 2.242 2.232 2.062
2324.418 2.032 2.262 2.312 2.112 1.9171 1.9663 1.982 1.8303 1.8183 1.8896
2343.708 1.9078 2.142 2.082 1.7275 1.5465 1.5816 1.8007 1.768 1.6063 1.7632
2362.998 1.9043 1.8899 1.8242 1.6025 1.6719 1.8419 1.6845 1.6843 1.7048 1.7184
2382.288 1.7643 1.6982 1.8225 1.608 1.4975 1.5812 1.6575 1.8393 1.7312 1.716
2401.578 1.7527 1.8703 1.992 1.7503 1.5782 1.6858 1.77 1.6438 1.7007 1.8458
2420.867 1.7765 1.7776 1.9685 2.042 1.992 1.9312 1.9003 1.972 1.771 1.5378
2440.157 1.4965 1.4237 1.4554 1.609 1.5172 1.3713 1.4281 1.4054 1.4388 1.5622
2459.447 1.6008 1.7157 1.701 1.7425 1.5839 1.5534 1.8492 2.022 2.092 2.052
2478.737 2.072 2.142 2.192 2.212 2.182 2.252 2.322 1.992 1.6911 1.7967
2498.026 1.966 1.9303 1.8288 1.8529 1.9296 1.7871 1.679 1.6293 1.432 1.5565
2517.316 1.739 1.6036 1.4846 1.3182 1.3048 1.3419 1.394 1.6262 1.5884 1.5368
2536.606 1.6982 1.55 1.5339 1.7407 1.8764 1.9413 1.8564 1.9 2.072 2.172
2555.896 2.042 1.9601 2.062 2.202 2.332 2.352 2.492 2.352 2.112 2.092
2575.186 1.992 1.7858 1.5875 1.7334 1.9494 2.032 2.082 2.102 1.9248 1.7835
2594.475 1.5735 1.711 1.8341 1.7942 1.8868 1.8295 1.7772 1.6388 1.5977 1.7856
2613.765 1.7042 1.6 1.606 1.6156 1.7165 1.8558 1.8521 1.5952 1.6517 1.9375
2633.055 1.8419 1.8906 2.102 2.022 2.092 2.302 2.212 1.9118 1.9283 2.182
2652.345 2.392 2.032 2.042 2.302 2.162 2.032 2.262 2.502 2.422 2.302
2671.634 2.192 2.242 2.112 2.252 2.352 2.102 2.062 2.042 2.032 1.982
2690.924 1.8884 2.012 2.182 2.222 2.092 1.7199 1.7123 1.7103 1.6467 1.7837
2710.214 1.8054 1.5994 1.4333 1.4099 1.4743 1.7494 1.6376 1.504 1.5671 1.482
2729.504 1.3665 1.1578 1.1105 1.1691 1.05738 1.04801 1.143 1.262 1.4152 1.4344
2748.794 1.2418 0.9675 0.817 0.819 1.0859 1.266 1.3313 1.2729 1.2969 1.4771
2768.083 1.3012 1.3218 1.4318 1.4378 1.4859 1.4064 1.3864 1.365 1.4815 1.755
2787.373 1.7024 1.7547 2.072 2.102 1.972 1.9692 2.072 2.192 2.232 2.182
2806.663 2.252 2.662 2.742 2.472 2.432 2.602 2.832 2.792 2.922 3.112
2825.953 3.222 3.722 3.882 3.922 4.662 4.952 5.202 5.952 6.862 7.882
2845.242 8.922 9.792 10.452 10.972 11.132 11.142 10.942 10.502 9.622 8.632
2864.532 8.092 7.752 7.402 7.122 6.912 6.912 7.222 7.502 7.462 7.882
2883.822 7.902 7.692 7.812 7.662 7.532 7.812 8.192 8.172 8.112 8.042
2903.112 8.372 8.582 8.272 8.152 8.522 8.722 8.822 9.012 8.862 8.672
2922.401 8.932 8.882 8.712 8.642 8.512 8.952 9.562 10.002 10.402 11.132
2941.691 12.302 14.072 15.572 17.092 18.392 18.802 18.822 18.542 17.742 16.772
2960.981 16.132 15.532 15.202 15.102 14.932 15.032 14.682 13.762 12.752 11.782
2980.271 10.752 9.452 8.592 7.852 6.992 6.172 5.902 5.922 6.072 6.182
2999.561 5.982 6.212 6.512 6.952 7.652 8.542 9.582 10.902 12.182 13.212
3018.850 13.842 13.892 13.792 13.182 11.792 10.282 8.902 7.312 6.142 5.332
3038.140 4.622 3.992 3.632 3.982 4.032 3.542 3.122 2.842 2.662 2.842
3057.430 3.012 2.812 2.882 2.842 2.622 2.732 3.172 3.212 3.092 3.332
3076.720 3.382 3.442 3.292 3.402 3.592 3.632 4.132 4.462 5.092 6.212
3096.009 7.042 7.972 8.762 9.712 10.552 11.082 11.172 10.832 10.362 9.322
3115.299 8.352 7.062 5.782 4.852 3.912 3.122 2.542 2.452 2.372 2.122
3134.589 1.8611 1.452 1.6401 1.8852 1.4101 1.05244 1.3378 1.8452 2.062 1.992
3153.879 1.8716 1.6707 1.4748 1.3904 1.4123 1.1583 1.2016 1.5457 1.2437 1.3303
3173.169 1.4948 1.5849 1.5497 1.515 1.4319 1.1035 1.3141 1.3822 1.2982 1.3054
3192.458 1.37 1.3578 1.2733 1.294 1.1202 1.0865 1.2638 1.2854 1.1817 1.1217
3211.748 1.1142 1.3267 1.2093 1.2219 1.5675 1.841 1.4416 1.1616 1.5076 1.3684
3231.038 1.284 1.3057 1.186 0.79 0.9433 1.0056 0.633 0.75 0.775 1.01368
3250.328 1.04679 0.794 0.61 0.621 1.1744 1.05943 0.522 0.695 1.05928 0.99101
3269.617 0.691 0.391 0.04 0.544 1.1454 0.9598 0.803 1.05657 1.243 0.825
3288.907 0.8987 1.1415 1.1443 0.96971 0.832 0.8866 0.427 0.026 0.335 0.467
3308.197 0.714 1.2219 1.177 0.9454 0.815 0.584 0.342 0.547 0.475 0.509
3327.487 0.75 0.694 0.552 0.643 0.94 0.9109 0.733 0.663 0.96238 1.03444
3346.777 0.9298 0.9179 0.48 0.366 0.623 0.721 1.00338 0.9171 0.41 0.716
3366.066 0.561 0.126 0.293 0.534 1.1455 1.05932 0.629 0.61 0.695 0.731
3385.356 0.749 1.1675 1.4725 1.06292 0.831 1.1305 1.1178 0.8 0.9421 0.859
3404.646 0.731 0.776 0.719 0.7 0.691 0.75 0.734 0.979441 0.99877 0.689
3423.936 0.675 0.834 1.2782 1.5712 1.4915 1.3472 0.9359 0.9065 0.98779 0.8815
3443.225 1.1623 1.1467 0.468 0.769 1.1185 0.704 0.716 1.06895 1.1904 0.9455
3462.515 0.863 0.772 0.455 0.819 1.3289 0.958 0.9343 1.006 0.674 0.611
3481.805 0.736 0.919 1.2526 1.1971 0.811 0.602 0.78 0.769 0.772 1.04328
3501.095 0.726 0.859 0.96776 0.668 0.481 0.379 0.789 0.8751 1.00165 1.1509
3520.385 0.615 0.671 1.02784 1.1453 1.2731 1.3901 1.4599 0.832 0.5 0.839
3539.674 0.608 0.391 0.734 1.00152 1.1215 0.812 0.695 1.01285 0.96783 1.01462
3558.964 0.713 0.276 0.295 0.752 0.954 1.01641 1.1671 0.9218 0.9435 0.868
3578.254 0.9179 0.794 0.9336 1.05028 0.64 0.52 0.706 0.617 0.392 0.455
3597.544 0.9279 1.1859 0.9303 0.927 0.6 0.288 0.621 0.9581 0.735 0.538
3616.833 0.736 0.775 0.552 0.564 0.681 1.07195 1.469 0.9298 0.429 0.239
3636.123 0.249 0.317 0.212 0.566 0.676 0.488 0.593 0.9057 0.9972 0.555
3655.413 0.677 0.839 0.726 0.592 0.533 0.766 0.769 1.02764 1.04803 0.785
3674.703 1.2222 1.1287 0.258 0 0.532 0.636 0.329 0.726 0.689 0.387
3693.993 0.9266 1.2991 1.1609 0.861 0.796 1.0629 0.852 0.418 0.782 1.288
3713.282 1.4195 1.4486 0.785 0.432 0.904 1.0854 0.8903 0.9336 0.9187 0.82
3732.572 1.00879 0.812 0.4 0.7 0.9113 0.505 0.652 0.839 0.971786 1.1756
3751.862 0.9606 0.8924 0.9317 0.9501 1.088 0.98242 0.867 1.06009 0.99047 1.1684
3771.152 1.0788 0.856 0.686 0.571 0.627 0.733 0.9368 1.01572 1.3122 1.0827
3790.441 0.554 0.445 0.687 1.0865 1.1978 1.1965 1.01194 0.9057 0.788 0.553
3809.731 0.479 0.575 0.9175 0.548 0.02 0.243 0.7 0.9037 0.645 0.708
3829.021 0.592 0.349 0.556 0.189 0.071 0.732 1.2134 1.2594 1.13 0.9351
3848.311 0.9019 0.89 0.974312 1.0977 0.9348 1.00149 1.06332 0.79 0.9132 1.4347
3867.601 1.5038 0.8925 0.625 0.841 0.542 0.287 0.485 0.193 0.218 0.643
3886.890 0.764 0.682 0.614 0.482 0.541 0.828 0.744 0.9171 0.98241 0.737
3906.180 0.9362 0.97391 0.759 0.687 0.798 0.807 0.676 1.2572 1.02514 0.57
3925.470 0.456 0.253 0.548 0.633 0.359 0.505 1.1939 1.2247 0.9391 0.725
3944.760 0.397 0.425 0.658 0.353 0.476 1.2884 1.2125 0.785 1.06985 1.5055
3964.049 1.5121 1.2046 0.865 0.9291 0.812 0.9344 1.1877 0.858 1.1742 1.2998
3983.339 1.02582 1.267 1.4935 1.6791 1.7663 1.8957 1.7828 1.2608 1.1368 1.00979
##END=
