##TITLE=4-Chloro-3-cyanobenzotrifluoride
##JCAMP-DX=4.24
##DATA TYPE=INFRARED SPECTRUM
##ORIGIN=EPA-IR VAPOR PHASE LIBRARY
##OWNER=SRD/NIST
Collection (C) 2018 copyright by the U.S. Secretary of Commerce
on behalf of the United States of America. All rights reserved.
##CAS REGISTRY NO=328-87-0
##MOLFORM=C 8 H 3 Cl F 3 N
##$NIST SOURCE=MSDC-IR
##STATE=gas
##XUNITS=1/CM
##YUNITS=ABSORBANCE
##XFACTOR=1.
##YFACTOR=0.001
##DELTAX=1.929
##FIRSTX=549.8
##LASTX=4000.8
##FIRSTY=5.5
##MAXX=4000.75
##MINX=549.766
##MAXY=0.44425
##MINY=0
##NPOINTS=1790
##XYDATA=(X++(Y..Y))
549.766 5.5 5.41 5.42 5.98 6.75 8.07 10.01 11.49 12.21 12.94
569.056 13.41 13.11 12 10.37 8.53 6.88 5.67 4.82 4.01 3.58
588.346 3.5 3.14 2.8 2.81 2.95 3.09 3.26 3.73 4.7 6.25
607.636 8.36 10.47 12.2 13.38 13.8 13.47 12.4 10.27 7.75 5.54
626.926 4.04 3.41 3.21 3.39 3.7 4.22 5.05 5.88 6.72 7.62
646.216 8.76 9.61 9.33 8.76 7.84 6.76 5.98 5.2 4.5 3.89
665.506 3.39 3.11 2.88 2.82 2.94 2.88 3.12 3.67 4.28 5.21
684.796 6.08 6.71 6.87 6.71 6.54 6.05 5.16 4.17 3.51 3.29
704.086 3.37 3.62 4.01 4.53 5.32 6.13 6.94 7.84 8.95 10.74
723.376 12.96 14.89 16.88 19.74 22.66 24.06 24.34 23.76 22.1 19.19
742.666 15.14 11.22 8.41 6.73 5.66 5.01 4.46 4.05 3.9 3.74
761.956 3.48 3.3 3.31 3.39 3.49 3.45 3.36 3.43 3.37 3.14
781.246 2.89 2.77 2.81 2.84 2.85 2.98 3.27 3.49 3.62 3.83
800.536 3.77 3.71 3.77 3.75 4.05 4.52 5.29 6.9 9.04 12.02
819.826 15.81 20.18 24.98 29.8 34.66 40.27 47.44 52.47 48.4 39.79
839.116 34.92 31.6 27.26 22.31 17.59 13.79 11.01 9.05 7.78 7.12
858.406 6.93 7.16 7.81 9.01 10.56 11.89 12.78 13.2 13.22 12.9
877.696 11.96 10.35 8.61 7.32 6.63 6.53 6.94 7.95 9.75 12.13
896.986 14.88 17.91 20.98 23.89 26.84 30.41 33.47 31.51 25.8 21.84
916.276 19.14 16.13 12.92 9.88 7.38 5.55 4.32 3.53 2.98 2.65
935.566 2.49 2.45 2.44 2.37 2.35 2.35 2.36 2.38 2.4 2.46
954.856 2.46 2.49 2.57 2.63 2.6 2.59 2.6 2.61 2.66 2.66
974.146 2.58 2.54 2.48 2.41 2.32 2.1617 2.169 2.2265 2.2467 2.25
993.436 2.28 2.27 2.245 2.33 2.41 2.57 2.71 2.74 2.8 2.9
1012.726 3.04 3.1 3.19 3.33 3.48 3.77 4.12 4.43 4.74 5.17
1032.016 5.61 6.05 6.61 7.18 7.89 8.89 10.33 12.29 14.65 17.12
1051.306 19.14 20.36 20.99 21.42 21.77 22.16 22.99 25.12 29.66 37.47
1070.596 49.52 67.04 91.31 123.29 161.31 199.41 229.6 247.72 253.94 248.38
1089.886 229.46 195.46 152.97 114.7 86.93 67.99 54.08 42.77 33.91 27.71
1109.176 23.87 21.96 21.42 21.93 23.26 25.05 27.07 29.44 32.22 35.37
1128.467 39.33 44.85 52.52 63.23 78.05 97.78 123.59 156.52 196.64 242.41
1147.757 290.28 335.73 375.86 406.8 419.93 409.02 379.15 342.6 307.39 274.17
1167.047 244.8 224.36 215.77 219.45 233.8 255.37 277.98 292.44 291.86 277.7
1186.337 256.33 230.91 201.54 171.18 144.08 121.72 103.37 88.04 75.28 64.74
1205.627 55.61 46.72 37.63 29.55 23.93 20.55 18.4 17.03 16.19 15.51
1224.917 15.01 14.64 14.35 14.07 13.62 13.31 13.29 13.51 14.19 15.39
1244.207 17.26 20 24.12 30.59 40.48 53.93 68.52 79.99 87.11 91.85
1263.497 94.35 93.05 86.4 77.19 70.18 65.68 61.5 56.73 51.28 45.07
1282.787 38.42 32.15 27.11 23.63 21.58 20.89 21.64 23.82 27.34 32.25
1302.077 38.38 45.2 52.5 61.12 72.87 89.95 114.8 149.7 196.07 252.47
1321.367 313.45 370.9 416.18 442.3 444.25 420.79 374.44 312.82 246.51 185.51
1340.657 137.09 103.15 80.38 64.95 53.87 45.21 37.9 31.54 26.12 21.76
1359.947 18.46 16 14.14 12.85 11.99 11.26 10.62 10.13 9.84 9.71
1379.237 9.7 10.05 10.71 11.81 13.47 15.52 18.02 20.91 24.02 27.06
1398.527 29.9 32.63 34.95 36.39 36.29 34.66 32.02 28.94 25.56 21.63
1417.817 17.66 14.3 11.97 10.4 9.2 8.39 7.75 7.27 6.97 6.74
1437.107 6.67 6.69 6.76 6.77 6.61 6.35 5.99 5.75 5.6 5.41
1456.397 5.5 5.98 6.81 8.09 9.93 12.46 15.54 19.14 23.05 26.68
1475.687 29.06 29.94 29.27 27.2 23.84 19.49 14.85 11.05 8.57 7.1
1494.977 6.17 5.51 4.95 4.37 3.84 3.32 2.86 2.56 2.33 2.1765
1514.267 2.0992 2.0769 2.0713 2.0338 2.0652 2.1222 2.0681 2.0445 2.0643 2.0694
1533.557 2.1657 2.1842 2.1895 2.32 2.52 2.81 3.11 3.48 3.94 4.42
1552.847 4.96 5.54 5.98 6.45 7 7.38 7.61 7.9 8.16 8.34
1572.137 8.47 8.44 8.34 8.21 8 7.81 7.65 7.62 7.89 8.47
1591.427 9.38 10.71 12.54 15.03 18.3 22.37 27.27 32.59 37.73 41.95
1610.717 44.53 44.95 42.93 38.61 32.81 26.39 19.99 14.56 10.52 7.78
1630.007 6.06 5.05 4.33 3.72 3.36 3.14 2.93 2.83 2.73 2.73
1649.297 2.83 2.92 3.09 3.4 3.75 4.11 4.4 4.54 4.57 4.46
1668.587 4.37 4.22 3.89 3.51 3.09 2.84 2.63 2.34 2.1455 2.0286
1687.877 1.9923 1.9388 1.8586 1.8512 1.811 1.7525 1.6517 1.5929 1.6505 1.6197
1707.167 1.596 1.6545 1.6644 1.643 1.6406 1.6256 1.621 1.5962 1.545 1.4608
1726.457 1.3991 1.4033 1.4524 1.4743 1.4944 1.6047 1.6805 1.7259 1.7728 1.8592
1745.747 1.92 1.9667 1.9685 1.8949 1.8896 1.8799 1.7825 1.6887 1.6775 1.6885
1765.037 1.7179 1.7579 1.7968 1.8179 1.869 2.0233 2.1743 2.37 2.65 2.96
1784.327 3.33 3.7 4 4.19 4.28 4.28 4.18 4.08 4 3.94
1803.617 4.03 4.21 4.4 4.54 4.58 4.44 4.22 3.96 3.6 3.17
1822.907 2.76 2.41 2.0705 1.8087 1.6377 1.5318 1.4499 1.4087 1.3639 1.3797
1842.197 1.4086 1.3586 1.33877 1.34111 1.3613 1.3564 1.33304 1.32031 1.34043 1.4258
1861.487 1.4549 1.5558 1.7041 1.716 1.7534 1.8127 1.8643 1.9062 1.9079 1.9472
1880.777 2.0391 2.0408 1.9661 1.9468 1.9215 1.8601 1.855 1.8357 1.7771 1.8012
1900.067 1.8758 1.96 2.1298 2.34 2.57 2.86 3.22 3.58 3.89 4.15
1919.357 4.34 4.4 4.28 4.07 3.83 3.51 3.06 2.59 2.1865 1.8405
1938.647 1.5864 1.4263 1.27302 1.1622 1.089 1.007 0.955 0.942 0.974 0.956
1957.937 0.915 0.879 0.845 0.848 0.855 0.832 0.82 0.811 0.82 0.838
1977.227 0.833 0.84 0.86 0.86 0.875 0.862 0.814 0.826 0.862 0.897
1996.517 0.937 0.956 0.947 0.995 1.053 1.033 1.056 1.139 1.1575 1.141
2015.807 1.1518 1.1537 1.1846 1.2094 1.2194 1.27692 1.28365 1.2498 1.2345 1.1882
2035.097 1.1653 1.1772 1.144 1.147 1.2022 1.26774 1.28713 1.30667 1.3959 1.456
2054.387 1.4915 1.5489 1.6083 1.6297 1.6145 1.5661 1.5049 1.4513 1.34605 1.2238
2073.677 1.108 1.053 0.996 0.92 0.886 0.838 0.833 0.787 0.74 0.766
2092.967 0.752 0.719 0.729 0.733 0.727 0.744 0.726 0.754 0.785 0.803
2112.257 0.834 0.827 0.826 0.812 0.76 0.733 0.764 0.8 0.795 0.799
2131.547 0.855 0.84 0.783 0.77 0.833 0.845 0.748 0.688 0.665 0.696
2150.837 0.729 0.734 0.73 0.725 0.692 0.684 0.781 0.796 0.74 0.811
2170.127 0.885 0.905 0.925 0.892 0.917 0.962 0.943 0.948 1.064 1.1812
2189.417 1.2136 1.29547 1.3967 1.4252 1.4197 1.4768 1.5679 1.5877 1.5339 1.4949
2208.707 1.4775 1.3914 1.33399 1.31549 1.30987 1.34506 1.418 1.5048 1.545 1.6273
2227.997 1.7742 1.8876 1.9408 2.0536 2.1889 2.2116 2.1759 2.1222 2.0376 1.9132
2247.287 1.8227 1.7293 1.5621 1.4843 1.466 1.4598 1.4475 1.4822 1.5521 1.5161
2266.577 1.4671 1.4598 1.4659 1.4623 1.4533 1.4549 1.4697 1.4571 1.4528 1.4947
2285.868 1.5845 1.6561 1.6561 1.6884 1.7939 1.8978 1.9156 1.945 1.9849 2.0118
2305.158 2.0272 2.0349 2.0158 1.9554 1.8802 1.8319 1.8466 1.8521 1.891 1.9425
2324.448 1.9376 1.8899 1.8998 1.9722 1.9597 1.9474 1.9837 1.9685 1.9101 1.8916
2343.738 1.8951 1.9322 1.9881 1.9289 1.9045 1.9151 1.8206 1.7017 1.6301 1.5643
2363.028 1.4962 1.432 1.4023 1.378 1.33137 1.28441 1.28511 1.24243 1.1948 1.196
2382.318 1.092 1.058 1.055 0.971 1.005 0.999 0.86 0.808 0.811 0.78
2401.608 0.715 0.695 0.696 0.681 0.695 0.712 0.762 0.818 0.789 0.775
2420.898 0.82 0.829 0.786 0.709 0.679 0.704 0.749 0.773 0.79 0.819
2440.188 0.824 0.791 0.818 0.854 0.923 0.961 0.931 0.951 0.989 0.984
2459.478 0.971 0.987 0.971 1.023 1.104 1.15 1.1976 1.185 1.2369 1.27519
2478.768 1.227 1.1933 1.24227 1.25706 1.188 1.1611 1.1503 1.097 0.993 0.965
2498.058 0.955 0.909 0.843 0.824 0.732 0.702 0.782 0.823 0.768 0.69
2517.348 0.76 0.795 0.709 0.641 0.679 0.722 0.755 0.775 0.769 0.793
2536.638 0.805 0.775 0.77 0.804 0.803 0.819 0.813 0.835 0.862 0.825
2555.928 0.797 0.847 0.912 0.866 0.795 0.815 0.845 0.816 0.743 0.736
2575.218 0.72 0.681 0.727 0.798 0.849 0.863 0.81 0.78 0.821 0.764
2594.508 0.777 0.83 0.754 0.734 0.709 0.674 0.697 0.698 0.703 0.688
2613.798 0.7 0.725 0.716 0.696 0.687 0.637 0.634 0.698 0.699 0.711
2633.088 0.696 0.706 0.749 0.754 0.803 0.867 0.913 0.926 1.004 1.117
2652.378 1.094 1.038 1.035 1.023 1.012 0.985 0.891 0.813 0.727 0.628
2671.668 0.558 0.574 0.556 0.532 0.536 0.521 0.45 0.386 0.537 0.55
2690.958 0.409 0.428 0.437 0.401 0.441 0.446 0.421 0.399 0.396 0.411
2710.248 0.381 0.432 0.463 0.449 0.455 0.444 0.431 0.515 0.527 0.479
2729.538 0.472 0.456 0.517 0.547 0.564 0.575 0.659 0.71 0.634 0.623
2748.828 0.578 0.553 0.541 0.484 0.528 0.516 0.419 0.448 0.468 0.404
2768.118 0.348 0.312 0.34 0.389 0.386 0.363 0.263 0.277 0.31 0.267
2787.408 0.255 0.266 0.24 0.23 0.361 0.344 0.252 0.297 0.368 0.328
2806.698 0.307 0.308 0.275 0.25 0.253 0.23 0.23 0.281 0.21 0.16
2825.988 0.22 0.21 0.24 0.23 0.18 0.17 0.19 0.254 0.22 0.21
2845.278 0.25 0.324 0.339 0.24 0.23 0.254 0.25 0.24 0.19 0.17
2864.568 0.25 0.294 0.289 0.26 0.23 0.22 0.2 0.21 0.3 0.329
2883.858 0.258 0.255 0.32 0.358 0.301 0.287 0.255 0.24 0.303 0.276
2903.148 0.25 0.18 0.21 0.334 0.351 0.351 0.376 0.386 0.389 0.454
2922.438 0.543 0.619 0.672 0.691 0.748 0.883 0.934 0.888 0.847 0.763
2941.728 0.772 0.76 0.667 0.567 0.469 0.377 0.365 0.323 0.23 0.15
2961.018 0.11 0.14 0.08 0.09 0.14 0.17 0.21 0.21 0.23 0.24
2980.308 0.16 0.12 0.25 0.284 0.2 0.25 0.24 0.17 0.263 0.298
2999.598 0.21 0.25 0.296 0.21 0.15 0.21 0.21 0.12 0.12 0.18
3018.888 0.2 0.14 0.01 0.03 0.16 0.15 0.15 0.19 0.08 0.05
3038.178 0.16 0.22 0.2 0.2 0.273 0.305 0.346 0.394 0.411 0.443
3057.468 0.497 0.44 0.365 0.469 0.559 0.586 0.573 0.57 0.739 0.84
3076.758 0.791 0.964 1.1506 1.2269 1.34582 1.32808 1.1803 1.053 0.915 0.753
3096.048 0.628 0.552 0.376 0.264 0.3 0.23 0.11 0.17 0.19 0.07
3115.338 0.11 0.09 0.02 0.14 0.19 0.2 0.18 0.12 0.12 0.1
3134.628 0.08 0.08 0.14 0.1 0.13 0.267 0.273 0.13 0.04 0.13
3153.918 0.16 0.18 0.295 0.385 0.4 0.413 0.352 0.273 0.22 0.18
3173.208 0.2 0.271 0.327 0.378 0.332 0.284 0.402 0.417 0.418 0.448
3192.498 0.39 0.394 0.445 0.402 0.255 0.2 0.26 0.292 0.24 0.369
3211.788 0.406 0.19 0.16 0.17 0.15 0.2 0.22 0.14 0.08 0.03
3231.078 0.06 0.09 0.16 0.17 0.21 0.314 0.18 0.04 0.1 0.17
3250.368 0.251 0.266 0.12 0.18 0.317 0.24 0.13 0.05 0 0.09
3269.658 0.21 0.2 0.17 0.22 0.276 0.282 0.283 0.18 0.2 0.2
3288.948 0.1 0.19 0.323 0.272 0.19 0.253 0.271 0.18 0.18 0.306
3308.238 0.17 0.02 0.11 0.13 0.16 0.253 0.17 0.05 0.19 0.19
3327.528 0.25 0.302 0.19 0.257 0.329 0.298 0.17 0.12 0.29 0.298
3346.818 0.267 0.24 0.19 0.21 0.14 0.18 0.11 0.04 0.2 0.25
3366.108 0.303 0.381 0.339 0.314 0.38 0.413 0.32 0.354 0.351 0.258
3385.398 0.278 0.358 0.401 0.397 0.396 0.354 0.404 0.426 0.366 0.36
3404.688 0.359 0.405 0.499 0.601 0.489 0.355 0.389 0.395 0.416 0.454
3423.978 0.389 0.417 0.497 0.446 0.493 0.566 0.585 0.587 0.54 0.525
3443.269 0.43 0.325 0.371 0.352 0.287 0.375 0.354 0.336 0.429 0.463
3462.559 0.36 0.307 0.39 0.23 0.2 0.433 0.414 0.301 0.36 0.319
3481.849 0.268 0.332 0.299 0.286 0.301 0.39 0.434 0.299 0.36 0.48
3501.139 0.475 0.416 0.385 0.399 0.337 0.25 0.258 0.34 0.329 0.402
3520.429 0.421 0.281 0.352 0.462 0.394 0.415 0.388 0.25 0.267 0.409
3539.719 0.513 0.462 0.367 0.281 0.271 0.361 0.325 0.347 0.374 0.386
3559.009 0.415 0.329 0.392 0.383 0.334 0.459 0.467 0.292 0.312 0.392
3578.299 0.378 0.38 0.36 0.441 0.495 0.429 0.328 0.22 0.2 0.17
3597.589 0.25 0.366 0.376 0.356 0.405 0.408 0.378 0.399 0.39 0.433
3616.879 0.479 0.476 0.423 0.36 0.401 0.371 0.23 0.274 0.381 0.354
3636.169 0.32 0.372 0.316 0.347 0.433 0.385 0.362 0.451 0.434 0.348
3655.459 0.413 0.533 0.487 0.469 0.407 0.369 0.422 0.347 0.351 0.317
3674.749 0.23 0.252 0.286 0.3 0.31 0.346 0.255 0.19 0.316 0.333
3694.039 0.293 0.342 0.43 0.426 0.474 0.507 0.434 0.415 0.316 0.25
3713.329 0.376 0.302 0.318 0.38 0.305 0.355 0.321 0.311 0.467 0.533
3732.619 0.448 0.347 0.23 0.396 0.438 0.339 0.385 0.303 0.25 0.293
3751.909 0.372 0.434 0.396 0.264 0.287 0.436 0.444 0.532 0.597 0.513
3771.199 0.444 0.426 0.494 0.48 0.491 0.524 0.476 0.453 0.407 0.45
3790.489 0.485 0.431 0.386 0.462 0.538 0.581 0.716 0.589 0.451 0.55
3809.779 0.599 0.543 0.303 0.252 0.417 0.421 0.386 0.444 0.385 0.267
3829.069 0.338 0.38 0.359 0.278 0.302 0.386 0.25 0.2 0.309 0.344
3848.359 0.453 0.418 0.384 0.483 0.402 0.37 0.415 0.518 0.564 0.445
3867.649 0.268 0.313 0.449 0.328 0.273 0.265 0.287 0.333 0.24 0.15
3886.939 0.14 0.21 0.23 0.256 0.252 0.2 0.295 0.367 0.374 0.393
3906.229 0.389 0.423 0.408 0.382 0.36 0.331 0.36 0.263 0.421 0.479
3925.519 0.349 0.487 0.483 0.398 0.388 0.494 0.426 0.26 0.286 0.391
3944.809 0.448 0.424 0.457 0.533 0.444 0.498 0.614 0.594 0.525 0.557
3964.099 0.624 0.557 0.457 0.383 0.404 0.456 0.452 0.357 0.389 0.513
3983.389 0.332 0.276 0.433 0.467 0.429 0.25 0.19 0.297 0.339 0.272
##END=
