##TITLE=3-Morpholinopropyl isothiocyanate
##JCAMP-DX=4.24
##DATA TYPE=INFRARED SPECTRUM
##ORIGIN=EPA-IR VAPOR PHASE LIBRARY
##OWNER=SRD/NIST
Collection (C) 2018 copyright by the U.S. Secretary of Commerce
on behalf of the United States of America. All rights reserved.
##CAS REGISTRY NO=32813-50-6
##MOLFORM=C 8 H 14 N 2 O S
##$NIST SOURCE=MSDC-IR
##STATE=gas
##XUNITS=1/CM
##YUNITS=ABSORBANCE
##XFACTOR=1.
##YFACTOR=0.001
##DELTAX=1.92898
##FIRSTX=549.8
##LASTX=4000.7
##FIRSTY=8.336
##MAXX=4000.7
##MINX=549.759
##MAXY=0.343476
##MINY=0
##NPOINTS=1790
##XYDATA=(X++(Y..Y))
549.759 8.336 8.026 7.916 8.116 7.866 7.726 7.956 7.856 7.596 7.506
569.049 7.666 7.796 7.326 7.216 7.076 6.506 6.376 6.306 6.026 6.206
588.339 6.006 5.766 5.966 6.086 5.936 5.806 6.036 6.496 7.126 7.916
607.628 8.676 9.116 9.356 9.506 9.496 9.376 9.136 8.546 8.296 8.086
626.918 7.706 7.326 6.796 6.356 5.866 5.426 5.086 4.786 4.656 4.586
646.208 4.706 4.766 4.596 4.586 4.596 4.776 4.856 4.706 4.636 4.526
665.498 4.316 4.316 4.246 3.936 3.816 3.676 3.616 3.556 3.316 3.186
684.787 3.266 3.306 3.466 3.666 3.826 4.016 4.346 4.556 4.576 4.726
704.077 4.876 4.876 4.656 4.606 4.616 4.276 4.076 4.006 3.796 3.616
723.367 3.646 3.486 3.376 3.556 3.536 3.696 4.006 4.346 4.786 5.316
742.657 5.896 6.606 7.526 8.346 9.216 9.746 10.166 10.626 10.716 10.506
761.947 9.896 9.306 8.746 8.186 7.636 6.926 6.676 6.546 6.166 5.956
781.236 5.786 5.466 5.336 5.216 5.006 4.946 4.936 4.996 5.096 5.046
800.526 4.986 4.916 4.716 4.576 4.386 4.196 4.136 4.096 4.196 4.196
819.816 3.946 3.936 4.066 4.036 4.006 3.816 3.666 3.926 4.086 4.336
839.106 4.796 4.996 5.436 5.886 6.256 6.856 7.756 8.916 10.216 11.826
858.395 13.796 16.086 18.536 20.836 23.126 25.356 26.826 27.546 27.536 26.556
877.685 25.076 23.066 20.476 17.696 14.946 12.606 10.796 9.296 8.326 7.836
896.975 7.366 7.196 7.286 7.356 7.516 8.006 8.646 8.986 9.196 9.406
916.265 9.386 9.096 8.526 7.746 6.936 6.426 6.126 5.626 5.366 5.256
935.555 5.236 5.346 5.376 5.566 5.716 5.976 6.416 6.846 7.416 8.116
954.844 8.766 9.396 9.876 10.136 10.576 10.806 10.716 10.796 10.956 11.006
974.134 10.996 11.086 11.286 11.466 11.316 11.166 11.386 11.886 12.386 13.046
993.424 13.956 15.466 17.176 18.766 20.376 21.726 22.796 23.546 24.066 24.296
1012.714 23.816 22.876 21.966 20.896 19.836 18.666 17.836 17.796 17.786 17.526
1032.003 17.296 16.856 15.746 14.526 13.516 12.296 11.036 10.246 9.706 9.346
1051.293 9.516 9.746 9.956 10.356 11.086 11.766 12.456 13.306 14.076 14.996
1070.583 15.526 15.776 15.726 15.316 15.296 14.876 14.126 13.946 14.306 14.876
1089.873 15.656 16.726 17.936 19.836 22.336 25.086 28.526 32.576 36.936 42.516
1109.163 49.396 56.896 65.466 75.276 84.396 92.456 99.736 104.756 107.626 108.046
1128.452 105.926 102.516 98.296 93.856 89.656 86.506 83.696 79.476 74.386 68.786
1147.742 61.786 54.086 46.426 39.346 33.346 28.526 24.316 20.756 18.176 16.066
1167.032 14.266 12.636 11.426 10.596 9.846 9.086 8.526 7.956 7.336 7.096
1186.322 6.916 6.766 6.836 6.766 6.696 6.946 7.466 7.586 7.456 7.816
1205.611 7.836 8.126 8.826 8.866 8.616 8.536 8.596 8.706 8.686 8.696
1224.901 9.216 9.536 9.986 10.616 10.806 11.176 11.516 11.896 12.506 12.826
1244.191 13.026 13.556 13.906 14.276 14.876 15.336 16.096 17.086 18.316 19.966
1263.481 21.856 23.966 25.806 27.406 28.846 29.796 30.296 30.506 30.306 29.526
1282.771 28.406 27.396 26.576 26.016 25.726 25.866 26.616 27.736 28.916 30.056
1302.060 31.056 31.666 32.136 32.456 32.436 32.106 31.676 31.326 30.986 30.656
1321.350 30.536 31.016 32.256 34.266 36.816 39.716 42.816 45.776 48.556 50.866
1340.640 52.516 53.686 54.576 55.016 54.606 53.706 52.836 51.966 51.026 49.836
1359.930 48.166 46.196 44.186 42.026 39.716 37.326 34.756 32.106 29.416 26.676
1379.219 23.896 21.256 19.076 17.426 16.176 15.296 14.766 14.376 13.946 13.526
1398.509 13.086 12.476 11.696 10.896 10.026 9.116 8.346 7.746 7.316 7.076
1417.799 7.046 7.116 7.336 7.756 8.346 9.136 10.156 11.436 12.916 14.706
1437.089 16.836 19.226 22.026 25.426 29.386 33.646 37.976 41.816 44.756 46.736
1456.378 47.586 47.166 45.646 42.976 39.306 34.956 30.106 25.286 21.076 17.466
1475.668 14.526 12.086 10.126 8.606 7.406 6.436 5.706 5.096 4.586 4.176
1494.958 3.816 3.516 3.266 3.046 2.866 2.646 2.456 2.396 2.356 2.276
1514.248 2.186 2.046 1.936 1.936 1.856 1.746 1.746 1.716 1.696 1.686
1533.538 1.626 1.506 1.396 1.376 1.386 1.386 1.436 1.406 1.346 1.356
1552.827 1.296 1.276 1.316 1.236 1.206 1.176 1.1584 1.136 1.0704 1.0441
1572.117 1.1242 1.1562 1.1001 1.113 1.0237 0.9825 1.0558 1.0496 1.0567 1.0352
1591.407 1.0023 0.9781 0.9915 1.0214 0.9614 0.9298 1.0307 1.0028 0.885 0.8826
1610.697 0.8491 0.8785 0.8715 0.8874 0.9231 0.8716 0.8478 0.9432 1.0215 0.9048
1629.986 0.8748 0.9508 0.9474 0.891 0.8466 0.8737 0.9274 0.9148 0.844 0.8315
1649.276 0.892 0.8873 0.7959 0.7662 0.7774 0.8124 0.8363 0.8397 0.8405 0.7871
1668.566 0.7674 0.7566 0.7738 0.7925 0.7737 0.7591 0.7148 0.7174 0.7563 0.8029
1687.856 0.8088 0.8638 0.9512 0.8894 0.8127 0.8095 0.8344 0.8931 0.9525 0.9499
1707.146 0.977 1.0483 1.0348 1.0476 1.1125 1.0669 1.0187 1.0888 1.176 1.176
1726.435 1.1432 1.166 1.226 1.216 1.1516 1.1152 1.1585 1.1448 1.0942 1.1236
1745.725 1.206 1.226 1.196 1.186 1.186 1.206 1.226 1.246 1.246 1.246
1765.015 1.256 1.306 1.326 1.336 1.336 1.336 1.326 1.246 1.216 1.246
1784.305 1.246 1.266 1.236 1.226 1.256 1.236 1.216 1.206 1.256 1.276
1803.594 1.256 1.286 1.316 1.336 1.336 1.356 1.376 1.446 1.436 1.406
1822.884 1.496 1.576 1.596 1.606 1.636 1.696 1.716 1.726 1.786 1.836
1842.174 1.876 1.976 2.066 2.106 2.206 2.336 2.396 2.446 2.536 2.646
1861.464 2.756 2.856 2.956 3.076 3.246 3.386 3.486 3.596 3.736 3.976
1880.754 4.196 4.406 4.636 4.816 5.046 5.276 5.436 5.676 6.046 6.326
1900.043 6.566 6.886 7.106 7.396 7.756 8.076 8.396 8.766 9.196 9.646
1919.333 10.036 10.416 10.906 11.446 11.936 12.446 13.016 13.596 14.186 14.786
1938.623 15.426 16.106 16.846 17.616 18.356 19.156 20.016 20.906 21.856 22.846
1957.913 23.916 25.106 26.306 27.596 29.096 30.596 32.206 34.036 35.996 37.996
1977.202 40.066 42.256 44.646 47.136 49.816 52.756 55.866 59.226 62.846 66.606
1996.492 70.656 75.066 79.716 84.696 90.026 95.726 101.736 108.106 114.946 122.266
2015.782 130.136 138.506 147.316 156.816 166.926 177.496 188.596 200.116 212.126 224.636
2035.072 237.416 250.236 263.016 275.636 287.736 299.266 309.786 319.076 327.336 334.016
2054.362 338.916 342.056 343.476 343.116 340.886 337.086 331.776 325.036 316.886 307.456
2073.651 297.216 286.176 274.246 261.766 249.166 236.576 224.086 212.056 200.736 190.166
2092.941 180.406 171.636 163.796 156.716 150.396 144.646 139.276 134.106 128.966 124.006
2112.231 119.016 113.936 109.036 104.336 99.706 95.366 91.476 87.796 84.396 81.326
2131.521 78.476 75.986 73.786 71.686 69.746 67.946 66.196 64.586 63.046 61.546
2150.810 60.206 58.746 57.216 55.906 54.666 53.516 52.466 51.586 50.846 50.236
2170.100 49.656 49.126 48.726 48.496 48.336 48.156 48.026 47.916 47.786 47.596
2189.390 47.416 47.116 46.746 46.296 45.736 45.066 44.166 43.146 42.006 40.666
2208.680 39.226 37.676 35.976 34.286 32.656 30.966 29.256 27.576 26.056 24.716
2227.970 23.366 22.176 21.116 19.976 18.876 17.906 17.036 16.246 15.536 14.886
2247.259 14.206 13.556 12.996 12.436 11.886 11.336 10.826 10.406 9.956 9.526
2266.549 9.206 8.836 8.466 8.156 7.836 7.526 7.196 6.966 6.816 6.506
2285.839 6.146 5.996 5.846 5.586 5.366 5.216 5.116 5.016 4.776 4.516
2305.129 4.376 4.286 4.156 4.066 3.966 3.786 3.636 3.576 3.466 3.306
2324.418 3.246 3.156 3.036 2.976 2.886 2.796 2.646 2.506 2.506 2.516
2343.708 2.476 2.466 2.416 2.376 2.296 2.176 2.116 2.086 2.096 2.126
2362.998 2.046 1.926 1.926 1.916 1.896 1.906 1.876 1.856 1.846 1.826
2382.288 1.746 1.706 1.706 1.726 1.706 1.656 1.666 1.626 1.636 1.596
2401.578 1.576 1.646 1.636 1.606 1.586 1.566 1.546 1.486 1.546 1.536
2420.867 1.496 1.606 1.566 1.496 1.536 1.516 1.446 1.506 1.516 1.446
2440.157 1.436 1.436 1.446 1.426 1.436 1.446 1.426 1.416 1.446 1.496
2459.447 1.526 1.486 1.456 1.516 1.616 1.656 1.576 1.586 1.686 1.706
2478.737 1.726 1.736 1.736 1.766 1.726 1.636 1.656 1.766 1.836 1.956
2498.026 1.976 1.986 1.996 1.896 1.836 1.936 2.036 2.016 1.976 2.026
2517.316 2.036 1.936 1.956 1.976 1.906 1.916 2.046 2.046 1.996 2.036
2536.606 2.066 2.056 2.106 2.156 2.166 2.206 2.136 2.116 2.226 2.346
2555.896 2.426 2.446 2.446 2.416 2.466 2.556 2.576 2.646 2.696 2.716
2575.186 2.706 2.696 2.796 2.866 2.726 2.656 2.706 2.806 2.946 2.916
2594.475 2.906 2.886 2.876 2.996 3.026 3.046 3.136 3.206 3.216 3.226
2613.765 3.156 3.136 3.196 3.196 3.246 3.336 3.346 3.326 3.476 3.546
2633.055 3.606 3.786 3.926 4.146 4.316 4.406 4.696 4.976 5.156 5.336
2652.345 5.526 5.906 6.256 6.456 6.716 6.936 7.066 7.276 7.616 7.986
2671.634 8.366 8.706 9.066 9.526 9.946 10.446 10.936 11.286 11.606 11.826
2690.924 11.966 12.066 12.116 12.106 12.206 12.256 12.186 12.206 12.396 12.586
2710.214 12.786 13.026 13.306 13.706 14.046 14.346 14.706 15.176 15.776 16.196
2729.504 16.566 17.096 17.416 17.766 18.246 18.656 19.026 19.416 19.866 20.206
2748.794 20.726 21.406 22.026 22.786 23.506 24.296 25.136 25.806 26.596 27.366
2768.083 28.056 28.736 29.336 29.956 30.646 31.316 32.056 32.896 33.976 35.466
2787.373 37.096 38.946 41.196 43.806 46.996 50.706 55.036 59.916 64.956 70.186
2806.663 75.046 78.926 81.726 83.506 84.086 83.166 81.046 78.056 74.536 70.676
2825.953 66.436 62.066 57.956 54.006 50.426 47.326 44.636 42.746 41.606 41.266
2845.242 41.996 43.796 46.786 51.106 56.386 62.276 68.396 73.756 77.386 78.806
2864.532 77.706 74.406 70.006 65.196 60.526 56.426 53.016 50.516 48.796 47.556
2883.822 46.546 45.836 45.486 45.406 45.536 45.736 45.966 46.176 46.346 46.416
2903.112 46.176 45.716 45.316 45.116 45.136 45.416 46.086 47.186 48.686 50.516
2922.401 52.726 55.096 57.556 60.236 62.976 65.686 68.556 71.706 74.516 77.056
2941.691 79.696 82.466 85.326 87.926 90.016 91.716 93.316 94.996 96.976 99.356
2960.981 102.236 105.906 110.806 115.886 118.146 115.746 109.086 99.976 88.576 73.896
2980.271 58.146 44.526 34.446 27.226 21.796 17.696 14.696 12.596 10.996 9.556
2999.561 8.426 7.656 6.886 6.126 5.516 5.046 4.586 4.146 3.806 3.566
3018.850 3.396 3.086 2.876 2.846 2.736 2.606 2.496 2.206 2.166 2.216
3038.140 2.096 1.856 1.646 1.666 1.686 1.676 1.716 1.616 1.476 1.496
3057.430 1.516 1.476 1.336 1.286 1.336 1.296 1.326 1.256 1.246 1.236
3076.720 1.1208 1.1073 0.9714 0.8575 0.8471 0.8709 1.0541 1.1487 0.9891 0.9108
3096.009 0.9388 0.9341 0.9929 0.8648 0.7521 0.8829 0.8355 0.7399 0.8064 0.81
3115.299 0.7373 0.7103 0.7682 0.9351 0.9967 0.9488 0.9976 0.9909 0.862 0.8654
3134.589 0.7499 0.6722 0.7681 0.757 0.7435 0.7197 0.7305 0.7724 0.6627 0.5662
3153.879 0.5877 0.5372 0.6951 0.8364 0.6408 0.6124 0.7609 0.7484 0.761 0.7404
3173.169 0.6668 0.7065 0.8324 0.852 0.7101 0.5984 0.5231 0.5009 0.5547 0.5922
3192.458 0.605 0.5624 0.5245 0.5458 0.6038 0.6284 0.6169 0.5952 0.6109 0.6706
3211.748 0.592 0.5846 0.6472 0.605 0.5613 0.5533 0.5429 0.5935 0.6456 0.5789
3231.038 0.5312 0.5314 0.4647 0.3988 0.3981 0.4468 0.4502 0.3648 0.3824 0.4551
3250.328 0.3987 0.2699 0.3243 0.3839 0.3559 0.3715 0.174798 0.1403 0.21549 0.1321
3269.617 0.18301 0.3667 0.445 0.3904 0.3844 0.3006 0.21346 0.2689 0.26448 0.19417
3288.907 0.20727 0.22879 0.15899 0.1555 0.3662 0.4286 0.3473 0.2774 0.18244 0.21139
3308.197 0.2684 0.2699 0.23341 0.3368 0.20545 0.1546 0.20111 0.16412 0.3161 0.3187
3327.487 0.2992 0.316 0.3416 0.2681 0.24353 0.3193 0.405 0.3227 0.2249 0.3292
3346.777 0.3831 0.24285 0.18516 0.20583 0.25333 0.3541 0.21917 0.19447 0.3022 0.22352
3366.066 0.22557 0.3685 0.3557 0.3208 0.3294 0.3001 0.3043 0.3518 0.3893 0.2978
3385.356 0.3388 0.4474 0.4345 0.335 0.394 0.4311 0.3102 0.2932 0.24808 0.2688
3404.646 0.3137 0.3046 0.2752 0.25572 0.24124 0.3089 0.3142 0.1208 0.047 0.172973
3423.936 0.3331 0.2858 0.3178 0.4213 0.3259 0.2819 0.3868 0.4491 0.4677 0.3324
3443.225 0.1064 0.1208 0.3506 0.5062 0.4171 0.395 0.4567 0.4895 0.3876 0.3258
3462.515 0.2551 0.2738 0.3201 0.3121 0.3698 0.3727 0.3617 0.2926 0.1121 0.1112
3481.805 0.2755 0.4368 0.3777 0.2809 0.3017 0.25329 0.3601 0.3486 0.22043 0.05
3501.095 0 0.1258 0.21568 0.3216 0.2991 0.21175 0.21415 0.18328 0.064 0.031
3520.385 0.11 0.15649 0.3395 0.3523 0.25757 0.359 0.2679 0.20482 0.23527 0.106
3539.674 0.1422 0.19969 0.21707 0.4437 0.3781 0.19694 0.3097 0.3283 0.19759 0.22263
3558.964 0.293 0.3516 0.3363 0.2951 0.2761 0.21925 0.2896 0.25046 0.22338 0.2981
3578.254 0.3612 0.381 0.2959 0.3685 0.5125 0.4702 0.24423 0.17535 0.168525 0.1117
3597.544 0.17126 0.22139 0.3323 0.5086 0.4439 0.20672 0.24914 0.2818 0.1513 0.1026
3616.833 0.009 0.056 0.23027 0.3387 0.2931 0.2228 0.1552 0.1285 0.1323 0.0954
3636.123 0.19741 0.18784 0.19602 0.298 0.3237 0.18261 0.1109 0.3923 0.5286 0.4025
3655.413 0.4386 0.5057 0.459 0.4842 0.497 0.3268 0.23155 0.3406 0.3637 0.2947
3674.703 0.3301 0.3282 0.26106 0.3814 0.458 0.4244 0.3835 0.3911 0.4798 0.4739
3693.993 0.3919 0.3936 0.5068 0.408 0.19914 0.1221 0.19056 0.1277 0.1479 0.4063
3713.282 0.3175 0.19021 0.4136 0.5844 0.5719 0.4613 0.4513 0.4468 0.21642 0.20991
3732.572 0.23046 0.2796 0.3937 0.4356 0.481 0.3978 0.3312 0.3773 0.4297 0.333
3751.862 0.3296 0.3451 0.3168 0.3596 0.393 0.5355 0.6002 0.4544 0.3458 0.3531
3771.152 0.3764 0.3915 0.3448 0.3501 0.4627 0.4471 0.4844 0.5033 0.4777 0.5342
3790.441 0.5161 0.5472 0.4838 0.2975 0.3584 0.5146 0.4884 0.3973 0.5292 0.6513
3809.731 0.554 0.589 0.7114 0.6033 0.5063 0.5884 0.5475 0.5878 0.625 0.6858
3829.021 0.8029 0.7071 0.5295 0.4303 0.4414 0.5955 0.6942 0.635 0.568 0.5642
3848.311 0.7049 0.6974 0.6343 0.7906 0.7787 0.6909 0.6561 0.6958 0.7567 0.5799
3867.601 0.6415 0.8615 0.934 0.8485 0.7067 0.7604 0.7356 0.7428 0.8696 0.9169
3886.890 0.8369 0.7533 0.705 0.6857 0.8028 0.8482 0.966 0.8652 0.6315 0.7581
3906.180 0.8113 0.8293 0.9549 1.0812 0.9793 0.9532 1.072 1.1464 1.386 1.216
3925.470 0.9605 1.176 1.196 1.206 1.426 1.426 1.226 1.166 1.356 1.376
3944.760 1.346 1.426 1.446 1.456 1.576 1.466 1.426 1.546 1.486 1.606
3964.049 1.606 1.626 1.706 1.546 1.616 1.736 1.816 1.826 1.866 2.056
3983.339 2.086 1.976 1.866 1.996 2.136 2.036 1.906 1.826 1.866 1.846
##END=
