##TITLE=2-Methyl-5-hexen-3-ol
##JCAMP-DX=4.24
##DATA TYPE=INFRARED SPECTRUM
##ORIGIN=NIST Mass Spectrometry Data Center
##OWNER=NIST Standard Reference Data Program
Collection (C) 2018 copyright by the U.S. Secretary of Commerce
on behalf of the United States of America. All rights reserved.
##CAS REGISTRY NO=32815-70-6
##MOLFORM=C 7 H 14 O
##$NIST SOURCE=MSDC-IR
##SPECTROMETER/DATA SYSTEM=HP-GC/MS/IRD
##STATE=gas
##XUNITS=1/CM
##YUNITS=ABSORBANCE
##XFACTOR=1.0
##YFACTOR=0.000002200
##DELTAX=4.0
##FIRSTX=550.0
##LASTX=3846.0
##FIRSTY=0.000541
##MAXX=3846
##MINX=550
##MAXY=0.022
##MINY=0
##NPOINTS=825
##XYDATA=(X++(Y..Y))
550.0 246 126 140 198 195 203 189 155 156 184
590.0 216 223 254 299 318 347 368 369 389 434
630.0 460 451 416 401 398 332 246 212 184 138
670.0 116 81 70 69 46 59 71 86 96 97
710.0 108 88 53 35 30 13 10 32 45 42
750.0 38 30 22 45 43 36 53 51 61 82
790.0 77 100 110 108 125 154 187 183 128 148
830.0 244 313 380 472 591 714 827 921 983 981
870.0 952 915 852 818 844 913 1053 1319 1671 2087
910.0 2516 2851 2958 2870 2636 2286 1917 1616 1430 1323
950.0 1261 1232 1262 1373 1551 1811 2179 2621 3126 3619
990.0 4021 4303 4408 4324 4120 3875 3670 3523 3400 3317
1030.0 3270 3181 3029 2844 2625 2379 2149 1948 1768 1607
1070.0 1493 1429 1375 1327 1287 1227 1176 1162 1168 1177
1110.0 1205 1234 1247 1252 1269 1273 1253 1215 1181 1145
1150.0 1098 1079 1080 1085 1081 1056 1042 1030 992 963
1190.0 970 985 1017 1079 1152 1220 1279 1323 1366 1403
1230.0 1429 1439 1454 1468 1466 1452 1429 1391 1349 1311
1270.0 1259 1220 1177 1111 1063 1019 986 972 967 953
1310.0 935 904 873 849 826 815 825 854 907 986
1350.0 1106 1256 1425 1599 1772 1921 2025 2119 2199 2233
1390.0 2194 2074 1893 1671 1432 1237 1106 1033 1037 1084
1430.0 1126 1166 1218 1273 1291 1317 1341 1385 1468 1532
1470.0 1526 1446 1318 1135 913 706 538 421 335 254
1510.0 212 191 168 156 156 155 143 114 99 103
1550.0 112 113 90 106 119 104 105 108 115 114
1590.0 113 135 158 173 198 233 289 387 532 724
1630.0 943 1110 1199 1199 1099 877 585 373 239 173
1670.0 133 95 86 62 52 72 58 37 42 54
1710.0 56 36 11 19 26 16 5 14 24 22
1750.0 18 26 26 20 21 10 8 24 26 29
1790.0 30 32 46 51 67 81 109 144 184 234
1830.0 274 299 307 288 253 217 181 145 111 80
1870.0 61 57 58 54 39 39 45 41 38 38
1910.0 30 23 24 22 32 32 27 27 27 30
1950.0 27 25 29 37 39 33 33 37 44 53
1990.0 51 45 41 39 35 24 21 18 12 17
2030.0 23 18 11 16 21 11 1 13 19 20
2070.0 23 26 22 20 20 10 8 12 9 10
2110.0 12 16 17 6 10 16 18 21 18 13
2150.0 5 6 10 7 7 17 28 23 17 15
2190.0 7 0 4 16 20 22 19 17 17 15
2230.0 13 14 17 18 19 17 18 22 16 16
2270.0 17 15 18 16 17 25 31 33 27 27
2310.0 36 39 39 46 53 55 57 62 51 42
2350.0 55 76 94 95 79 70 58 45 45 46
2390.0 42 37 38 43 40 35 38 37 32 28
2430.0 29 26 23 26 32 34 24 21 24 27
2470.0 27 30 39 45 36 22 21 30 32 27
2510.0 26 23 24 24 19 23 30 35 46 56
2550.0 51 45 48 57 62 65 77 81 78 82
2590.0 90 97 98 106 116 119 124 129 129 123
2630.0 116 110 107 112 127 130 127 138 141 137
2670.0 144 146 152 160 165 174 178 183 187 200
2710.0 211 206 217 236 245 253 264 277 285 277
2750.0 272 275 273 275 278 286 290 302 320 333
2790.0 351 364 383 412 449 488 541 601 674 776
2830.0 894 1030 1186 1369 1582 1828 2104 2437 2831 3280
2870.0 3766 4244 4652 4944 5138 5220 5235 5222 5212 5243
2910.0 5284 5319 5371 5465 5599 5778 5978 6170 6345 6551
2950.0 6890 7482 8370 9308 9921 10000 9532 8529 7128 5696
2990.0 4489 3549 2861 2365 2002 1712 1492 1292 1109 952
3030.0 829 745 699 680 677 695 732 798 903 1041
3070.0 1232 1502 1771 1925 1943 1810 1584 1233 840 570
3110.0 417 342 299 271 258 244 225 212 206 199
3150.0 205 217 203 185 181 173 161 152 144 131
3190.0 118 108 107 102 84 65 57 56 57 59
3230.0 44 33 32 31 40 37 34 30 12 8
3270.0 16 28 36 31 18 15 19 16 13 25
3310.0 31 20 17 25 20 14 29 38 29 44
3350.0 48 30 33 35 24 25 36 44 40 33
3390.0 43 52 49 50 63 56 37 41 39 41
3430.0 46 37 27 41 54 49 50 50 55 51
3470.0 47 53 69 69 50 56 54 58 62 39
3510.0 45 55 52 45 38 37 43 59 68 50
3550.0 55 59 51 53 59 75 96 104 105 120
3590.0 143 166 205 280 379 491 596 671 737 787
3630.0 822 832 837 841 841 850 852 814 750 660
3670.0 532 418 336 266 193 134 126 126 115 98
3710.0 73 73 83 50 25 41 38 24 8 0
3750.0 12 14 35 52 42 41 62 56 37 40
3790.0 47 46 50 57 62 62 46 41 61 69
3830.0 64 66 58 50 57
##END=
