##TITLE=3-Phenoxyphenylacetic acid
##JCAMP-DX=4.24
##DATA TYPE=INFRARED SPECTRUM
##ORIGIN=EPA-IR VAPOR PHASE LIBRARY
##OWNER=SRD/NIST
Collection (C) 2018 copyright by the U.S. Secretary of Commerce
on behalf of the United States of America. All rights reserved.
##CAS REGISTRY NO=32852-81-6
##MOLFORM=C 14 H 12 O 3
##$NIST SOURCE=MSDC-IR
##STATE=gas
##XUNITS=1/CM
##YUNITS=ABSORBANCE
##XFACTOR=1.
##YFACTOR=0.001
##DELTAX=1.92898
##FIRSTX=549.8
##LASTX=4000.7
##FIRSTY=5.316
##MAXX=4000.7
##MINX=549.759
##MAXY=0.136256
##MINY=0
##NPOINTS=1790
##XYDATA=(X++(Y..Y))
549.759 5.316 5.476 5.846 6.236 6.856 7.816 9.106 10.326 11.046 11.716
569.049 12.556 13.416 14.236 15.486 17.356 19.866 23.476 27.316 30.266 32.176
588.339 33.226 32.866 31.066 28.546 25.606 23.116 21.056 19.106 17.796 16.836
607.628 16.086 15.556 15.016 14.856 14.846 14.456 14.096 13.816 13.556 13.496
626.918 13.266 12.866 12.726 12.276 11.906 11.806 11.536 11.216 10.686 10.526
646.208 10.446 10.176 9.896 9.636 9.516 9.356 9.236 8.906 8.506 8.296
665.498 8.406 8.456 8.466 9.076 9.776 10.786 12.446 14.526 17.306 20.806
684.787 24.406 27.946 31.036 32.736 33.036 31.966 29.596 26.536 23.386 20.546
704.077 17.856 15.576 14.056 12.686 11.506 10.646 9.736 9.056 8.576 8.076
723.367 7.756 7.636 7.836 8.096 8.316 8.916 9.806 10.816 11.956 13.426
742.657 15.046 16.556 18.106 19.346 20.346 21.116 21.196 20.926 20.636 20.166
761.947 19.676 19.096 18.306 17.646 17.126 16.546 16.016 15.626 15.236 14.916
781.236 14.796 14.476 13.876 13.486 13.066 12.126 11.146 10.506 9.706 8.826
800.526 8.156 7.586 7.176 7.036 6.936 6.916 6.996 6.946 6.916 6.936
819.816 7.226 7.796 8.426 8.856 9.296 9.656 9.646 9.306 8.896 8.336
839.106 7.666 7.006 6.476 6.276 5.936 5.796 5.736 5.836 6.126 6.126
858.395 6.066 5.896 5.736 5.766 5.776 5.706 5.646 5.696 5.726 5.986
877.685 6.446 6.806 7.066 7.326 7.646 7.906 8.146 8.356 8.546 8.606
896.975 8.506 8.366 8.166 7.736 7.396 7.246 7.056 6.826 6.596 6.446
916.265 6.496 6.686 6.916 6.986 7.086 7.206 7.206 6.996 6.656 6.296
935.555 6.006 5.936 5.856 5.726 5.726 5.836 6.116 6.616 7.126 7.916
954.844 9.116 10.396 11.936 13.496 14.936 15.996 16.026 15.226 13.896 12.076
974.134 10.036 8.496 7.236 6.146 5.436 4.916 4.466 4.186 4.076 3.956
993.424 3.746 3.626 3.466 3.276 3.336 3.456 3.536 3.506 3.476 3.816
1012.714 4.186 4.626 5.486 6.286 6.616 6.666 6.536 5.936 5.016 4.186
1032.003 3.616 3.096 2.536 2.686 3.006 2.896 3.246 3.566 3.936 4.256
1051.293 4.266 4.736 5.276 5.986 6.666 7.186 7.966 9.126 10.246 11.216
1070.583 12.276 13.026 14.036 15.016 15.956 17.296 18.456 20.116 22.366 25.036
1089.873 28.066 31.036 34.286 37.906 41.896 46.236 51.746 57.406 62.296 67.286
1109.163 72.096 75.636 77.106 75.886 72.456 67.886 62.336 56.346 50.826 46.346
1128.452 43.226 40.876 39.216 38.376 37.826 37.686 37.386 36.716 35.406 33.356
1147.742 31.066 28.856 26.906 25.986 26.316 27.406 28.876 29.176 28.886 28.236
1167.032 26.286 23.996 21.946 20.336 19.476 18.606 18.036 18.116 18.326 18.796
1186.322 19.506 20.746 22.136 23.826 26.426 29.256 32.416 36.226 41.066 46.646
1205.611 52.376 58.246 62.406 64.506 64.916 63.296 60.176 56.476 53.116 50.666
1224.901 49.466 49.586 51.406 54.826 58.836 64.476 72.266 81.496 92.476 104.306
1244.191 115.896 125.726 133.036 136.256 134.096 127.296 116.916 104.236 90.586 77.766
1263.481 66.936 58.626 52.306 47.556 43.816 41.056 38.916 36.976 35.386 34.066
1282.771 32.956 31.786 30.596 29.486 28.616 27.846 26.976 26.166 25.346 24.486
1302.060 23.686 22.876 22.076 21.286 20.426 19.616 18.936 18.286 17.736 17.316
1321.350 16.946 16.626 16.286 16.076 15.946 15.746 15.636 15.706 15.786 15.736
1340.640 15.836 15.976 16.036 16.146 16.146 16.136 16.176 16.226 16.206 16.036
1359.930 15.736 15.386 15.016 14.516 13.946 13.326 12.656 11.996 11.326 10.646
1379.219 9.986 9.346 8.706 8.176 7.706 7.326 7.086 6.876 6.756 6.756
1398.509 6.836 6.976 7.126 7.196 7.246 7.336 7.376 7.466 7.586 7.686
1417.799 7.986 8.516 9.146 9.916 10.856 11.966 13.256 14.786 16.776 19.136
1437.089 22.106 25.506 28.966 32.056 34.306 35.236 34.716 33.056 30.336 27.296
1456.378 24.406 21.946 20.156 18.946 18.416 18.646 19.766 21.896 25.446 30.926
1475.668 38.496 48.696 61.246 75.616 89.766 101.286 107.966 107.586 99.736 87.096
1494.958 72.006 55.966 41.946 31.576 24.796 20.306 16.836 14.156 12.236 10.796
1514.248 9.646 8.716 7.996 7.386 6.946 6.646 6.436 6.286 6.186 6.126
1533.538 6.116 6.146 6.206 6.286 6.346 6.556 6.856 7.196 7.696 8.276
1552.827 9.006 10.026 11.356 13.126 15.426 18.156 21.456 25.086 29.006 33.476
1572.117 38.536 44.216 50.956 58.376 65.586 71.796 75.886 77.426 76.006 72.106
1591.407 66.346 59.886 53.786 48.106 43.056 38.846 35.406 32.706 30.536 28.336
1610.697 26.006 23.346 20.296 17.076 13.986 11.396 9.326 7.746 6.576 5.706
1629.986 5.076 4.626 4.296 4.036 3.686 3.476 3.306 3.086 2.966 2.886
1649.276 2.826 2.836 2.786 2.626 2.516 2.436 2.456 2.496 2.456 2.506
1668.566 2.556 2.646 2.726 2.736 2.776 2.776 2.876 3.046 3.166 3.236
1687.856 3.276 3.426 3.636 3.686 3.806 4.116 4.346 4.466 4.616 4.846
1707.146 5.096 5.356 5.646 5.956 6.226 6.516 6.976 7.386 7.856 8.466
1726.435 9.106 9.916 10.846 11.756 12.906 14.276 15.756 17.436 19.266 21.316
1745.725 23.546 26.026 28.616 31.316 34.206 37.096 40.066 43.026 46.126 49.476
1765.015 53.066 56.906 61.066 65.316 69.646 73.516 76.376 78.016 78.046 76.736
1784.305 74.246 70.856 67.086 63.146 59.246 55.406 51.616 47.796 43.866 39.866
1803.594 35.956 32.096 28.306 24.746 21.656 18.916 16.516 14.386 12.566 11.076
1822.884 9.776 8.676 7.746 6.926 6.266 5.786 5.416 5.056 4.776 4.506
1842.174 4.296 4.186 4.076 4.016 3.916 3.826 3.786 3.656 3.546 3.416
1861.464 3.286 3.126 2.936 2.806 2.726 2.626 2.516 2.416 2.286 2.196
1880.754 2.176 2.066 1.956 1.956 1.926 1.896 1.866 1.816 1.836 1.886
1900.043 1.936 1.996 2.006 2.106 2.246 2.266 2.396 2.616 2.826 2.996
1919.333 3.216 3.376 3.526 3.686 3.786 3.746 3.566 3.376 3.226 3.076
1938.623 2.896 2.726 2.656 2.636 2.546 2.476 2.396 2.326 2.246 2.196
1957.913 2.166 2.046 1.996 1.996 1.946 1.936 1.966 1.946 1.886 1.886
1977.202 1.936 1.946 1.916 1.876 1.866 1.886 2.006 2.106 2.106 2.096
1996.492 2.066 2.086 2.056 2.046 2.056 1.976 1.896 1.906 1.916 1.886
2015.782 1.926 1.936 1.906 1.956 1.996 1.946 1.966 2.016 2.046 2.086
2035.072 2.146 2.166 2.166 2.126 2.056 2.056 2.006 1.956 1.916 1.856
2054.362 1.806 1.756 1.646 1.616 1.646 1.626 1.566 1.5166 1.4973 1.4395
2073.651 1.4381 1.4451 1.4001 1.3212 1.3474 1.4191 1.345 1.2862 1.2785 1.261
2092.941 1.2687 1.2453 1.2311 1.2237 1.1452 1.1762 1.1897 1.1422 1.1889 1.2451
2112.231 1.256 1.253 1.2526 1.2812 1.3285 1.2805 1.2515 1.2501 1.2112 1.2385
2131.521 1.2604 1.1094 0.9688 0.9414 0.9426 0.9065 0.8825 0.926 1.0113 1.056
2150.810 0.9984 0.9219 0.9809 1.0574 1.0159 1.0533 1.0078 0.9789 1.0156 1.0226
2170.100 1.0283 1.0005 1.0659 1.1213 1.0756 1.076 1.1551 1.1224 1.1094 1.1262
2189.390 1.0646 1.0905 1.1248 1.1358 1.2288 1.3175 1.306 1.3043 1.2991 1.2825
2208.680 1.337 1.4178 1.3909 1.3016 1.3045 1.3386 1.3335 1.3395 1.3742 1.3647
2227.970 1.2984 1.2671 1.2582 1.2274 1.2143 1.225 1.2093 1.1604 1.1129 1.1266
2247.259 1.1307 1.1359 1.0602 0.9415 1.021 1.0753 0.9821 1.0268 1.1377 1.0833
2266.549 1.037 1.0691 1.0811 1.0459 1.0751 1.1349 1.1419 1.1249 1.1943 1.2479
2285.839 1.2301 1.2193 1.1899 1.1391 1.1028 1.1069 1.2136 1.2808 1.2152 1.302
2305.129 1.3537 1.3309 1.3273 1.3856 1.4796 1.4679 1.4591 1.3653 1.4086 1.5369
2324.418 1.524 1.5443 1.566 1.5118 1.4261 1.3961 1.3788 1.3597 1.3125 1.2804
2343.708 1.2898 1.2705 1.2637 1.2306 1.2207 1.275 1.2956 1.3283 1.3748 1.4006
2362.998 1.4182 1.5025 1.566 1.606 1.626 1.576 1.666 1.786 1.836 1.836
2382.288 1.856 1.916 1.946 1.986 2.086 2.096 2.026 2.066 2.086 2.006
2401.578 1.906 1.956 1.956 1.946 1.966 1.926 1.926 1.956 1.926 1.956
2420.867 1.996 2.006 1.956 1.846 1.856 1.806 1.776 1.826 1.786 1.746
2440.157 1.736 1.676 1.716 1.716 1.606 1.616 1.606 1.5416 1.566 1.576
2459.447 1.5351 1.4843 1.4224 1.4215 1.4052 1.3873 1.359 1.3042 1.4025 1.4157
2478.737 1.2893 1.2941 1.2632 1.2255 1.2222 1.1994 1.2232 1.1926 1.1341 1.1663
2498.026 1.2084 1.2141 1.1508 1.1327 1.1206 1.1455 1.1922 1.0643 0.9979 1.0272
2517.316 1.0589 1.1186 1.07 0.976 0.94 0.9449 1.0042 1.0324 1.0439 1.1016
2536.606 1.1113 1.1343 1.1303 1.1413 1.1532 1.0726 1.0188 1.0612 1.1298 1.1108
2555.896 1.1145 1.0529 1.064 1.1366 1.1004 1.0708 1.118 1.1957 1.199 1.0972
2575.186 1.043 1.01 0.9598 1.0088 0.9937 0.9471 0.9553 0.9405 0.9507 1.0334
2594.475 1.0687 1.01 0.9701 0.9372 0.9189 0.9348 0.9905 1.0301 0.9228 0.855
2613.765 0.9077 0.9202 0.8123 0.7245 0.7522 0.8177 0.8033 0.7997 0.8789 0.9126
2633.055 0.8475 0.8386 0.8598 0.8434 0.7819 0.7559 0.776 0.7161 0.66 0.6957
2652.345 0.7875 0.6952 0.58093 0.6739 0.7161 0.62778 0.6546 0.7331 0.61132 0.5234
2671.634 0.60813 0.6534 0.7379 0.7297 0.7397 0.7513 0.6901 0.675 0.6834 0.7672
2690.924 0.7766 0.7946 0.8212 0.8176 0.8402 0.8775 0.8263 0.7439 0.8134 0.8621
2710.214 0.8215 0.7826 0.7421 0.6964 0.7363 0.8757 0.8642 0.7653 0.7755 0.8381
2729.504 0.8749 0.7906 0.7756 0.8349 0.8596 0.8641 0.7983 0.7924 0.7749 0.7832
2748.794 0.8158 0.816 0.7518 0.7062 0.7666 0.8059 0.7206 0.58433 0.57759 0.56263
2768.083 0.5638 0.7168 0.804 0.7643 0.6767 0.7016 0.7513 0.7377 0.7622 0.7156
2787.373 0.717 0.7401 0.7846 0.8333 0.7238 0.6324 0.61408 0.63571 0.6577 0.61383
2806.663 0.6637 0.7332 0.7387 0.8308 0.8096 0.6727 0.7311 0.7464 0.62908 0.62202
2825.953 0.7588 0.822 0.7341 0.8307 0.9239 0.8887 1.0344 1.023 0.9758 1.0165
2845.242 0.8364 0.8772 0.9604 0.9413 0.9844 0.9897 1.0731 1.0239 0.9652 0.9397
2864.532 0.992 1.0681 0.9432 1.0324 1.0829 0.9152 0.9564 0.9959 1.0427 1.2297
2883.822 1.2106 1.106 1.149 1.1351 1.074 1.0781 1.1691 1.1381 1.1451 1.3183
2903.112 1.3105 1.2896 1.4923 1.626 1.686 1.766 1.816 2.046 2.326 2.466
2922.401 2.516 2.556 2.736 2.936 3.106 3.136 3.186 3.336 3.446 3.406
2941.691 3.376 3.446 3.376 3.326 3.306 3.136 2.886 2.726 2.606 2.486
2960.981 2.396 2.386 2.346 2.226 2.156 2.196 2.266 2.216 2.176 2.146
2980.271 2.126 2.126 2.106 2.156 2.176 2.106 2.086 2.166 2.106 2.066
2999.561 2.096 2.216 2.356 2.436 2.556 2.696 2.846 3.116 3.446 3.716
3018.850 4.116 4.686 5.096 5.516 6.106 6.936 7.786 8.556 9.336 10.166
3038.140 11.176 11.876 12.336 12.856 13.036 12.846 12.466 12.146 11.846 11.486
3057.430 11.396 11.576 11.816 12.236 12.726 13.156 13.746 14.656 15.656 16.406
3076.720 16.916 17.116 16.806 16.006 14.736 13.216 11.786 10.576 9.596 8.796
3096.009 8.136 7.536 6.886 6.266 5.696 5.056 4.446 3.976 3.486 2.876
3115.299 2.456 2.216 2.006 1.746 1.576 1.4519 1.3412 1.1631 0.8887 0.8691
3134.589 0.9591 0.8729 0.8262 0.7809 0.7498 0.62685 0.4683 0.58104 0.62708 0.64387
3153.879 0.6814 0.60731 0.5759 0.57922 0.7016 0.7254 0.62184 0.57098 0.5103 0.5347
3173.169 0.56301 0.41 0.35 0.442 0.5334 0.6802 0.6859 0.56207 0.56238 0.61518
3192.458 0.5086 0.4685 0.4741 0.377 0.375 0.311 0.396 0.4605 0.376 0.399
3211.748 0.54397 0.551618 0.419 0.4747 0.373 0.284 0.263 0.313 0.4664 0.4672
3231.038 0.4798 0.5167 0.392 0.224 0.315 0.4701 0.5315 0.4956 0.372 0.324
3250.328 0.38 0.4941 0.548418 0.4775 0.4529 0.385 0.302 0.298 0.4849 0.443
3269.617 0.22 0.321 0.394 0.388 0.322 0.206 0.293 0.341 0.398 0.373
3288.907 0.376 0.4846 0.391 0.322 0.396 0.383 0.314 0.435 0.404 0.4612
3308.197 0.57627 0.4477 0.308 0.215 0.234 0.396 0.5073 0.414 0.353 0.397
3327.487 0.355 0.383 0.404 0.357 0.442 0.437 0.247 0.314 0.345 0.262
3346.777 0.222 0.184 0.209 0.326 0.4586 0.406 0.393 0.376 0.195 0.11
3366.066 0.247 0.378 0.411 0.428 0.44 0.377 0.319 0.277 0.33 0.245
3385.356 0.184 0.26 0.382 0.439 0.43 0.479 0.386 0.364 0.336 0.27
3404.646 0.296 0.222 0.204 0.287 0.238 0.255 0.298 0.126 0.085 0.175
3423.936 0.38 0.60494 0.436 0.308 0.352 0.306 0.351 0.53823 0.59319 0.4616
3443.225 0.34 0.277 0.219 0.27 0.342 0.295 0.281 0.36 0.411 0.396
3462.515 0.439 0.476 0.4497 0.318 0.373 0.427 0.4828 0.60507 0.529 0.54135
3481.805 0.436 0.4 0.6534 0.6645 0.58732 0.7225 0.768 0.6657 0.549518 0.6094
3501.095 0.6789 0.7318 0.8307 0.8316 0.9215 1.0723 0.9512 0.9085 1.0523 1.0462
3520.385 1.0749 1.2014 1.3712 1.5001 1.5108 1.646 1.746 1.926 2.206 2.376
3539.674 2.636 2.996 3.416 3.716 4.246 4.806 5.376 6.156 7.046 8.166
3558.964 9.486 11.636 14.486 18.046 23.036 28.736 33.476 36.426 37.116 35.716
3578.254 32.366 27.166 21.506 16.646 12.796 9.936 8.026 6.696 5.576 4.666
3597.544 4.086 3.526 3.146 2.836 2.366 1.976 1.5456 1.3382 1.4144 1.3172
3616.833 1.0261 0.8318 0.8775 1.0685 1.0709 0.9559 0.9 0.8714 0.849 0.8283
3636.123 0.7707 0.58698 0.56721 0.62574 0.6757 0.741 0.6722 0.7019 0.6602 0.5082
3655.413 0.58762 0.64307 0.63623 0.56999 0.5137 0.426 0.354 0.437 0.4977 0.4906
3674.703 0.5254 0.6514 0.62933 0.6655 0.61403 0.4483 0.336 0.367 0.58638 0.56687
3693.993 0.356 0.279 0.322 0.33 0.299 0.4603 0.59953 0.4727 0.5003 0.4668
3713.282 0.307 0.4465 0.61393 0.56051 0.347 0.209 0.296 0.4475 0.4763 0.351
3732.572 0.352 0.164 0.141 0.186 0.145 0.212 0.16 0.072 0.111 0.267
3751.862 0.261 0.31 0.435 0.37 0.258 0.193 0.158 0.13 0.095 0.226
3771.152 0.413 0.391 0.069 0.044 0.296 0.31 0.381 0.364 0.215 0.196
3790.441 0.192 0.238 0.28 0.305 0.432 0.61384 0.53977 0.391 0.4693 0.406
3809.731 0.39 0.362 0.242 0.214 0.279 0.384 0.309 0.434 0.4597 0.392
3829.021 0.5104 0.434 0.243 0.081 0.144 0.332 0.361 0.333 0.374 0.335
3848.311 0.276 0.281 0.222 0.315 0.277 0.234 0.34 0.254 0.099 0.048
3867.601 0.165 0.231 0.189 0.269 0.365 0.247 0.096 0 0.085 0.225
3886.890 0.197 0.316 0.317 0.134 0.149 0.223 0.226 0.266 0.248 0.187
3906.180 0.139 0.083 0.056 0.092 0.214 0.151 0.112 0.208 0.177 0.246
3925.470 0.345 0.235 0.148 0.168 0.176 0.196 0.236 0.202 0.152 0.148
3944.760 0.246 0.485 0.5054 0.291 0.208 0.258 0.187 0.055 0.079 0.179
3964.049 0.169 0.234 0.254 0.113 0.142 0.262 0.325 0.24 0.22 0.304
3983.339 0.24 0.219 0.354 0.265 0.246 0.226 0.081 0.201 0.253 0.259
##END=
