##TITLE=t-Butyl ethyl malonate
##JCAMP-DX=4.24
##DATA TYPE=INFRARED SPECTRUM
##ORIGIN=EPA-IR VAPOR PHASE LIBRARY
##OWNER=SRD/NIST
Collection (C) 2018 copyright by the U.S. Secretary of Commerce
on behalf of the United States of America. All rights reserved.
##CAS REGISTRY NO=32864-38-3
##MOLFORM=C 9 H 16 O 4
##$NIST SOURCE=MSDC-IR
##STATE=gas
##XUNITS=1/CM
##YUNITS=ABSORBANCE
##XFACTOR=1.
##YFACTOR=0.001
##DELTAX=3.85796
##FIRSTX=501.5
##LASTX=4000.7
##FIRSTY=0.2212
##MAXX=4000.7
##MINX=501.534
##MAXY=0.043701
##MINY=0
##NPOINTS=908
##XYDATA=(X++(Y..Y))
501.534 0.2212 0.0821 0 0.0372 0.13404 0.0892 0.015 0.0546 0.12734 0.12097
540.114 0.17803 0.2058 0.2164 0.2385 0.3 0.4771 0.6869 0.81 0.8089 0.9164
578.693 1.042 1.201 1.331 1.291 1.261 1.261 1.231 1.111 1.0851 1.131
617.273 1.0404 0.9184 0.9549 1.0126 1.0542 0.9666 0.801 0.7473 0.8095 0.8465
655.852 0.8412 0.7049 1.0434 1.961 1.531 0.8188 0.7699 0.6857 0.6565 0.5736
694.432 0.4759 0.4453 0.4177 0.3334 0.3613 0.4514 0.5399 0.6127 0.6962 0.833
733.011 1.0275 1.221 1.401 1.501 1.471 1.461 1.451 1.311 1.231 1.191
771.591 1.161 1.1003 1.121 1.151 1.1009 1.111 1.151 1.161 1.151 1.191
810.170 1.281 1.461 1.721 1.991 2.261 2.651 3.081 3.361 3.491 3.431
848.750 3.221 2.921 2.621 2.321 2.031 1.761 1.571 1.491 1.451 1.591
887.330 1.701 1.401 1.121 1.0717 1.121 1.271 1.401 1.471 1.621 1.831
925.909 1.971 2.111 2.271 2.491 2.841 3.261 3.681 4.051 4.311 4.361
964.489 4.141 3.751 3.161 2.611 2.191 1.921 1.771 1.671 1.701 1.781
1003.068 1.951 2.261 2.711 3.361 4.391 5.601 7.001 8.661 9.901 10.351
1041.648 9.941 8.791 7.261 5.971 5.061 4.401 3.961 3.761 3.781 3.941
1080.227 4.331 4.921 5.701 6.751 7.921 9.121 10.211 11.351 12.841 14.781
1118.807 17.331 20.421 24.111 28.091 31.811 34.571 35.721 35.351 34.041 32.441
1157.387 31.041 29.961 28.951 27.801 26.331 24.321 21.971 19.501 17.281 15.501
1195.966 14.301 13.771 13.691 13.961 14.501 15.241 16.231 17.331 18.241 18.801
1234.546 19.221 19.581 19.861 19.941 19.631 19.111 18.501 17.841 17.281 16.951
1273.125 16.631 16.331 16.061 15.771 15.621 15.511 15.521 15.711 16.001 16.371
1311.705 16.771 17.211 17.651 17.881 17.591 16.431 14.411 11.941 9.641 7.921
1350.284 6.881 6.561 6.971 8.161 9.881 11.351 11.791 10.831 8.991 7.331
1388.864 6.471 6.281 6.161 5.841 5.281 4.671 4.291 4.051 3.821 3.551
1427.443 3.261 3.011 2.841 2.791 2.861 2.991 3.161 3.331 3.501 3.651
1466.023 3.721 3.731 3.671 3.531 3.281 2.901 2.491 2.101 1.761 1.501
1504.603 1.261 1.0639 0.994 0.931 0.8603 0.8065 0.8002 0.7987 0.7663 0.7318
1543.182 0.7287 0.7307 0.7188 0.7112 0.6981 0.7185 0.7262 0.7064 0.7001 0.7144
1581.762 0.727 0.7322 0.7371 0.7442 0.738 0.7217 0.7176 0.7215 0.7441 0.7368
1620.341 0.7223 0.7385 0.7736 0.7881 0.8116 0.8365 0.8511 0.8901 0.9056 0.9477
1658.921 1.0395 1.111 1.151 1.181 1.261 1.371 1.481 1.631 1.831 2.081
1697.500 2.411 2.861 3.411 4.091 4.911 5.951 7.371 9.361 12.251 16.331
1736.080 21.861 28.371 35.051 40.391 43.371 43.701 41.941 38.871 34.941 29.981
1774.659 24.181 18.461 13.751 10.371 8.051 6.441 5.291 4.431 3.751 3.181
1813.239 2.701 2.311 1.981 1.711 1.511 1.351 1.251 1.161 1.0675 1.0108
1851.819 0.9543 0.9134 0.8834 0.8455 0.8142 0.7891 0.7744 0.7683 0.7546 0.7507
1890.398 0.736 0.7096 0.6763 0.6455 0.63 0.6036 0.5566 0.5277 0.509 0.5039
1928.978 0.4972 0.467 0.4656 0.4634 0.4522 0.4609 0.4514 0.446 0.462 0.459
1967.557 0.4542 0.4533 0.4388 0.4219 0.4296 0.4305 0.3889 0.3767 0.3859 0.3884
2006.137 0.3856 0.3567 0.3517 0.3516 0.341 0.3368 0.3278 0.3274 0.3348 0.3158
2044.716 0.2993 0.2993 0.2976 0.3086 0.3155 0.313 0.3304 0.3513 0.3515 0.3432
2083.296 0.3295 0.3233 0.3327 0.3442 0.3414 0.3377 0.3444 0.3307 0.3168 0.316
2121.875 0.3197 0.3281 0.3348 0.3593 0.3644 0.3868 0.4302 0.4163 0.4149 0.4135
2160.455 0.3846 0.3405 0.2987 0.2638 0.2338 0.2245 0.2341 0.2398 0.2236 0.201
2199.035 0.19232 0.2173 0.2245 0.2294 0.2469 0.239 0.243 0.2483 0.2461 0.2632
2237.614 0.2775 0.2781 0.2862 0.2985 0.3012 0.3224 0.3334 0.3704 0.4365 0.4857
2276.194 0.5455 0.6344 0.7682 0.9549 1.171 1.401 1.681 1.991 2.321 2.671
2314.773 3.001 3.291 3.531 3.651 3.671 3.511 3.311 3.171 2.831 2.701
2353.353 3.341 4.161 4.621 4.691 4.381 3.731 2.861 1.941 1.161 0.6563
2391.932 0.3788 0.2747 0.2383 0.2181 0.2331 0.2243 0.18873 0.17537 0.18085 0.16114
2430.512 0.1667 0.17398 0.16232 0.15769 0.15659 0.1518 0.154 0.15697 0.158 0.16713
2469.092 0.14502 0.14281 0.14971 0.14197 0.14141 0.12821 0.12381 0.12592 0.13106 0.1574
2507.671 0.1531 0.13445 0.12754 0.12846 0.14132 0.12874 0.11585 0.13478 0.15147 0.11575
2546.251 0.0828 0.110851 0.110943 0.0747 0.0733 0.0865 0.09359 0.0701 0.0667 0.09669
2584.830 0.11472 0.0825 0.0584 0.09802 0.100457 0.1136 0.11356 0.108332 0.11603 0.1111
2623.410 0.110687 0.09695 0.09295 0.105871 0.104 0.09496 0.0826 0.0633 0.0904 0.121
2661.989 0.12277 0.11156 0.09309 0.108534 0.12685 0.12101 0.12329 0.110118 0.12077 0.15844
2700.569 0.17602 0.18177 0.17148 0.18532 0.2152 0.2408 0.2301 0.2452 0.2714 0.2429
2739.148 0.239 0.2558 0.263 0.2736 0.2799 0.2833 0.2726 0.2422 0.2663 0.2835
2777.728 0.2723 0.267 0.2874 0.3362 0.3679 0.3788 0.378 0.3856 0.3966 0.4169
2816.308 0.4598 0.5155 0.5583 0.5963 0.6406 0.6697 0.7198 0.7956 0.8688 0.9811
2854.887 1.111 1.251 1.421 1.621 1.821 2.061 2.371 2.651 2.901 3.101
2893.467 3.251 3.391 3.571 3.831 4.081 4.301 4.531 4.761 5.061 5.551
2932.046 6.271 7.061 7.781 8.181 8.021 7.571 7.241 7.201 7.601 8.491
2970.626 9.831 11.631 13.831 15.911 16.711 15.661 13.151 10.231 8.111 6.831
3009.205 5.911 5.081 4.241 3.431 2.691 2.111 1.731 1.441 1.211 1.0753
3047.785 0.9619 0.8889 0.8677 0.8305 0.8089 0.7976 0.7699 0.726 0.7508 0.7486
3086.364 0.7151 0.7008 0.6929 0.6957 0.642 0.6051 0.6169 0.5859 0.504 0.4438
3124.944 0.4266 0.4185 0.4121 0.3829 0.3653 0.3668 0.3182 0.2935 0.3284 0.3365
3163.524 0.3309 0.3321 0.2994 0.2761 0.3046 0.2899 0.266 0.3287 0.3496 0.327
3202.103 0.3361 0.3423 0.2913 0.2481 0.2709 0.2594 0.2493 0.2629 0.2458 0.2304
3240.683 0.2396 0.253 0.2228 0.19862 0.2266 0.2154 0.18287 0.15269 0.12897 0.13705
3279.262 0.14649 0.13944 0.15961 0.15808 0.11336 0.13964 0.17273 0.18802 0.17645 0.12425
3317.842 0.13756 0.14626 0.102538 0.12769 0.1942 0.2044 0.16694 0.2039 0.2496 0.19996
3356.421 0.15922 0.18623 0.2457 0.288 0.224 0.1336 0.14893 0.17722 0.17434 0.15507
3395.001 0.13183 0.13769 0.14158 0.17708 0.2122 0.2076 0.2505 0.266 0.2274 0.2649
3433.580 0.2708 0.2294 0.2462 0.245 0.2649 0.3182 0.3336 0.3573 0.3904 0.4252
3472.160 0.4798 0.485 0.5309 0.6457 0.6875 0.6801 0.684 0.6208 0.5422 0.59
3510.740 0.5768 0.4884 0.4558 0.4392 0.3749 0.3035 0.2967 0.3194 0.3069 0.2965
3549.319 0.3221 0.3164 0.3491 0.3537 0.3791 0.451 0.4149 0.375 0.4503 0.4003
3587.899 0.3583 0.3675 0.3181 0.3106 0.2867 0.2158 0.12094 0.1825 0.268 0.2368
3626.478 0.18185 0.18985 0.2502 0.257 0.2252 0.2019 0.223 0.2561 0.2531 0.2479
3665.058 0.2248 0.19668 0.19882 0.2405 0.2081 0.18528 0.1932 0.2293 0.2622 0.2873
3703.637 0.3265 0.266 0.2173 0.2285 0.2545 0.2226 0.2296 0.2495 0.2464 0.2456
3742.217 0.2278 0.2521 0.2665 0.2548 0.2333 0.2062 0.18198 0.2178 0.2218 0.18537
3780.797 0.2263 0.2035 0.1706 0.18232 0.18894 0.19891 0.2263 0.2333 0.19762 0.14855
3819.376 0.15847 0.2529 0.3178 0.2967 0.16762 0.1713 0.2738 0.2754 0.2541 0.19214
3857.956 0.18009 0.2278 0.2676 0.2644 0.2467 0.2622 0.2584 0.2916 0.2851 0.2595
3896.535 0.2676 0.2779 0.2411 0.2344 0.2778 0.2631 0.2525 0.2778 0.2953 0.293
3935.115 0.2788 0.2588 0.2201 0.2079 0.2566 0.268 0.2994 0.307 0.2303 0.17349
3973.694 0.2124 0.264 0.2999 0.3156 0.2664 0.2214 0.2338 0.281
##END=
