##TITLE=2,4-Bis(trifluoromethyl)benzoic acid
##JCAMP-DX=4.24
##DATA TYPE=INFRARED SPECTRUM
##ORIGIN=EPA-IR VAPOR PHASE LIBRARY
##OWNER=SRD/NIST
Collection (C) 2018 copyright by the U.S. Secretary of Commerce
on behalf of the United States of America. All rights reserved.
##CAS REGISTRY NO=32890-87-2
##MOLFORM=C 9 H 4 F 6 O 2
##$NIST SOURCE=MSDC-IR
##STATE=gas
##XUNITS=1/CM
##YUNITS=ABSORBANCE
##XFACTOR=1.
##YFACTOR=0.001
##DELTAX=1.92898
##FIRSTX=549.8
##LASTX=4000.7
##FIRSTY=6.685
##MAXX=4000.7
##MINX=549.759
##MAXY=0.111705
##MINY=0
##NPOINTS=1790
##XYDATA=(X++(Y..Y))
549.759 6.685 7.025 6.535 7.015 6.805 6.615 6.575 6.115 5.885 5.735
569.049 6.085 5.615 5.285 5.565 5.835 5.765 5.105 4.915 5.095 5.325
588.339 4.725 3.965 3.705 4.035 4.545 4.435 4.535 4.855 5.075 5.365
607.628 5.815 5.945 5.825 5.405 4.975 5.385 4.855 3.595 3.445 2.885
626.918 2.465 2.345 2.245 2.265 1.985 1.875 1.935 1.955 2.185 2.785
646.208 3.425 4.395 4.685 4.235 3.855 3.365 2.765 2.565 3.045 3.925
665.498 4.595 5.605 6.545 6.825 6.995 6.975 6.725 5.875 4.485 3.085
684.787 2.385 2.515 2.345 1.905 1.935 2.225 2.325 2.345 2.535 2.705
704.077 2.675 2.295 2.455 2.835 2.735 2.765 2.925 3.565 3.925 3.865
723.367 4.255 5.085 5.845 6.195 7.155 8.725 10.305 11.805 12.925 13.145
742.657 12.455 11.455 10.185 8.265 6.595 5.725 4.665 3.905 3.785 3.565
761.947 3.225 2.995 2.625 2.665 2.695 2.315 2.515 2.685 2.775 3.045
781.236 3.285 3.655 3.775 3.795 3.895 3.875 3.765 4.165 4.145 3.555
800.526 3.075 3.095 3.195 2.715 2.625 2.615 2.535 2.245 1.6267 2.055
819.816 2.605 2.085 1.8068 2.225 2.385 2.205 2.445 2.775 3.295 3.735
839.106 3.975 4.665 6.025 7.205 8.275 10.085 11.905 12.495 11.975 11.115
858.395 9.415 7.365 5.715 4.115 3.185 2.665 1.905 1.205 1.3028 1.4585
877.685 0.9753 1.0692 1.3763 1.3967 1.4583 1.4699 1.1515 0.9371 0.9963 1.6273
896.975 1.8055 1.4066 1.935 2.705 3.415 4.185 5.385 6.445 7.215 7.755
916.265 7.485 6.355 5.145 4.445 3.565 2.785 2.435 1.985 1.6421 1.4432
935.555 1.5026 1.5161 1.0461 1.1099 1.3541 1.2914 1.1463 1.1654 1.3169 1.3212
954.844 1.0921 1.2886 1.655 1.6161 1.6447 1.2743 1.0372 1.089 1.2213 1.6116
974.134 1.905 1.935 1.603 1.3496 1.2412 1.4878 1.5894 1.4218 1.5178 1.4936
993.424 1.2649 1.2564 2.105 2.305 1.835 2.145 2.215 2.345 1.995 1.7872
1012.714 2.845 3.005 2.845 2.855 2.965 3.535 4.005 4.445 4.725 5.595
1032.003 6.725 8.295 11.125 13.975 16.595 20.175 22.635 23.475 23.725 22.435
1051.293 20.635 17.995 14.515 12.745 10.955 8.975 8.355 8.215 8.785 10.155
1070.583 11.275 12.315 13.575 15.485 17.765 20.345 21.685 22.325 23.395 23.285
1089.873 23.155 23.965 26.615 28.655 30.135 30.845 30.505 29.855 27.855 24.635
1109.163 20.925 18.235 15.875 15.125 15.585 14.285 13.165 12.695 13.035 14.845
1128.452 16.295 18.095 20.315 22.035 23.795 27.075 30.925 34.605 38.865 43.445
1147.742 49.985 58.035 65.945 75.665 85.275 92.275 97.375 99.835 100.125 99.955
1167.032 100.075 100.605 101.865 103.095 105.825 109.045 110.175 111.705 110.065 104.275
1186.322 96.595 84.995 73.345 63.555 53.385 44.905 36.615 28.665 24.655 20.385
1205.611 17.295 16.935 14.655 12.185 12.135 11.955 11.245 11.035 10.085 8.995
1224.901 8.935 8.515 8.215 8.865 8.745 7.865 8.105 8.795 9.115 9.305
1244.191 9.865 10.325 11.785 13.675 15.295 18.165 21.965 26.955 32.855 39.505
1263.481 47.315 55.885 64.635 73.855 81.855 88.095 93.145 94.605 92.125 87.095
1282.771 80.515 71.865 63.065 56.665 53.275 51.965 51.205 50.225 48.115 44.565
1302.060 40.245 35.765 31.345 27.575 24.865 22.895 21.625 20.935 20.525 20.795
1321.350 21.595 22.745 24.325 26.055 27.825 29.825 31.755 33.545 35.025 36.135
1340.640 36.645 35.815 34.225 31.855 28.405 24.675 20.865 17.325 14.695 12.665
1359.930 11.165 10.065 9.205 8.495 7.905 7.505 7.115 6.795 6.415 6.145
1379.219 5.955 5.615 5.135 4.785 4.605 4.255 3.765 3.505 3.295 3.095
1398.509 2.935 2.885 2.935 2.635 2.455 2.475 2.405 2.435 2.275 2.065
1417.799 2.105 2.195 2.185 2.225 2.275 2.275 2.225 1.905 1.6319 1.6621
1437.089 1.6747 1.5962 1.5322 1.5419 1.6696 1.6698 1.5282 1.5769 1.6649 1.5096
1456.378 1.4278 1.5029 1.6124 1.6174 1.4805 1.5259 1.6578 1.7003 1.5746 1.4142
1475.668 1.3994 1.48 1.6126 1.5658 1.5151 1.5173 1.5608 1.8006 2.015 2.125
1494.958 2.305 2.405 2.405 2.525 2.665 2.785 2.985 2.895 2.605 2.335
1514.248 2.075 2.025 2.135 1.995 1.935 1.875 1.6997 1.6466 1.577 1.5809
1533.538 1.6951 1.6593 1.4944 1.3353 1.4965 1.865 1.885 1.7039 1.5546 1.5071
1552.827 1.7077 1.8128 1.6017 1.569 1.6314 1.8104 1.865 1.8163 1.905 2.145
1572.117 2.675 2.905 3.185 3.545 3.495 3.425 3.455 3.555 3.545 3.395
1591.407 3.035 2.565 2.135 1.975 2.105 1.995 1.875 1.6762 1.5246 1.532
1610.697 1.5881 1.717 1.905 2.135 2.295 2.455 2.425 2.475 2.385 2.245
1629.986 2.295 2.065 1.8298 1.7576 1.7302 1.6662 1.4629 1.2899 1.081 1.0423
1649.276 1.1292 1.0333 1.1043 1.2798 1.2503 1.2181 1.2378 1.0993 0.9965 1.0722
1668.566 1.2634 1.358 1.2126 1.156 1.1299 1.1253 1.2139 1.2627 1.2318 1.3598
1687.856 1.4575 1.4276 1.5006 1.4174 1.3661 1.599 1.7241 1.8273 1.8201 1.875
1707.146 2.075 2.155 2.245 2.155 2.195 2.235 2.375 2.515 2.575 2.935
1726.435 3.205 3.425 3.815 4.155 4.555 4.855 5.185 5.515 5.805 6.165
1745.725 6.625 7.275 8.035 8.865 9.785 11.135 12.805 14.665 17.345 20.695
1765.015 24.675 29.055 33.355 37.455 41.285 44.055 45.335 45.205 43.695 40.895
1784.305 37.185 32.735 28.005 23.605 19.655 16.495 14.095 12.185 10.745 9.575
1803.594 8.545 7.535 6.895 6.335 5.675 5.255 4.905 4.515 4.325 4.075
1822.884 3.745 3.465 3.215 3.095 2.955 2.755 2.565 2.505 2.415 2.195
1842.174 2.035 2.015 1.865 1.7575 1.8051 1.6879 1.5256 1.3343 1.195 1.2406
1861.464 1.4508 1.4149 1.2082 1.1687 1.2001 1.1775 1.1889 1.2517 1.2672 1.2047
1880.754 1.1135 1.0975 1.1564 1.2721 1.2344 1.1159 1.0905 1.3226 1.3251 1.021
1900.043 1.0103 1.1346 1.2389 1.2459 1.1393 1.2337 1.2425 1.0565 1.1301 1.3021
1919.333 1.3343 1.3315 1.4444 1.4244 1.2501 1.2522 1.4183 1.437 1.2736 1.4263
1938.623 1.4854 1.3237 1.2778 1.3934 1.4805 1.3787 1.2968 1.1527 1.0407 1.0198
1957.913 1.0165 0.9993 0.92431 0.976 1.1409 1.0987 0.89467 0.86778 0.84411 0.734
1977.202 0.723 0.842607 0.9502 0.86932 0.88213 0.7655 0.679 0.733 0.647 0.7523
1996.492 0.88333 0.745 0.7602 0.85421 0.87221 0.89729 0.7946 0.7815 0.84614 0.85843
2015.782 0.7816 0.8089 0.86937 0.84835 0.9643 0.9879 0.9574 0.9356 0.87903 0.90822
2035.072 0.89106 0.7818 0.652 0.717 0.8115 0.87569 0.90734 0.9403 0.91337 0.87399
2054.362 0.9623 0.9978 0.90032 0.83117 0.9819 0.88558 0.733 0.87521 0.85036 0.88053
2073.651 0.92201 0.840567 0.8289 0.8071 0.8247 0.85516 0.89081 0.92734 0.91833 0.88506
2092.941 0.90502 0.88438 0.9584 1.0224 0.89574 0.84867 0.89598 0.9452 0.91125 0.82603
2112.231 0.87622 0.9583 0.91112 0.83246 0.7822 0.693 0.8144 0.9552 0.92042 0.843622
2131.521 0.91157 0.9263 0.7774 0.8149 0.89778 0.82861 0.7419 0.7544 0.734 0.7728
2150.810 0.7713 0.678 0.663 0.613 0.7873 0.9621 0.8115 0.86741 0.85049 0.685
2170.100 0.627 0.703 0.7603 0.635 0.7555 0.9552 1.0154 0.843036 0.7978 0.7793
2189.390 0.727 1.0674 1.1399 1.0609 1.0987 0.92399 0.8221 0.85303 0.9617 0.8989
2208.680 0.85859 0.92789 0.89136 0.87603 0.8245 0.836564 0.7661 0.7757 0.9794 1.155
2227.970 1.2445 1.1575 1.0331 1.05 0.9925 0.87735 0.7362 0.631 0.763 0.91052
2247.259 1.0966 1.2494 1.1088 0.82696 0.844534 0.9928 1.0757 1.0464 0.9665 0.93264
2266.549 1.0036 1.0432 1.0019 1.1216 1.1064 1.0913 1.0836 0.9497 1.0639 1.3164
2285.839 1.1973 1.0949 1.0879 1.0342 1.1187 1.1684 1.1892 1.1958 1.07 1.0064
2305.129 1.2015 1.2608 1.1307 1.1347 1.1693 1.0269 0.9883 0.9977 0.88614 0.91645
2324.418 1.0663 1.1119 1.0867 1.1763 1.1943 1.1635 1.1179 1.0951 1.0934 1.0171
2343.708 1.0763 1.1959 1.3087 1.2922 1.233 1.1445 1.1295 1.1792 1.1168 1.1095
2362.998 1.1263 1.007 1.0446 1.2589 1.3055 1.3343 1.3028 1.1897 1.2531 1.0583
2382.288 0.7452 0.92741 1.0325 0.89027 0.7778 0.90201 1.0802 1.0576 1.0461 0.993
2401.578 1.001 0.89404 0.707 0.7526 0.83431 0.91309 0.85911 0.7487 0.624 0.695
2420.867 0.7694 0.85318 0.91288 0.716 0.843068 1.0592 0.9466 0.7734 0.82632 0.8042
2440.157 0.7728 0.83167 0.936 1.0988 1.0486 1.0027 1.0769 0.90925 0.86543 0.7822
2459.447 0.597 0.725 0.8005 0.804 0.801 0.7999 0.676 0.592 0.7432 0.92574
2478.737 0.9663 0.86421 0.9546 1.0679 1.0478 0.89612 0.651 0.513 0.596 0.82585
2498.026 1.0277 0.89858 0.8709 1.1224 1.0939 0.9466 0.719 0.688 0.87444 1.0037
2517.316 0.9494 1.0769 1.1983 0.85858 0.7504 0.86761 0.937 0.9994 0.7596 0.645
2536.606 0.87691 1.0017 1.0638 0.9513 1.0821 1.121 0.86582 0.9387 0.9385 0.707
2555.896 0.592 0.9358 1.0674 0.86674 0.91557 0.93425 1.0282 1.0653 0.707 0.54
2575.186 0.539 0.498 0.473 0.662 1.0481 1.0449 0.90141 0.92982 0.9489 0.7991
2594.475 0.631 0.67 0.731 0.734 0.715 0.711 0.595 0.604 0.673 0.7755
2613.765 0.9738 0.8118 0.728 0.8086 0.86371 0.8162 0.89669 1.1288 0.8916 0.62
2633.055 0.90057 0.86022 0.7652 0.9957 0.91873 0.7803 0.528 0.495 0.59 0.419
2652.345 0.291 0.597 0.7956 0.724 0.668 0.669 0.8062 0.87037 0.9968 0.87661
2671.634 0.468 0.372 0.495 0.621 0.77 0.8127 0.86076 0.623 0.493 0.7911
2690.924 0.9625 0.92847 0.713 0.711 0.9571 1.1478 1.0992 0.701 0.564 0.7537
2710.214 0.834894 0.837338 0.7851 0.596 0.7586 0.90535 0.586 0.433 0.517 0.83124
2729.504 0.89487 0.613 0.699 0.7423 0.579 0.609 0.449 0.441 0.88883 1.0748
2748.794 0.972 0.732 0.692 0.636 0.629 0.9714 0.9511 0.7561 0.747 0.688
2768.083 0.677 0.8275 0.7656 0.593 0.652 0.85761 0.83073 0.7449 0.9735 1.093
2787.373 0.92492 0.58 0.521 0.86441 0.715 0.573 0.818 0.729 0.666 0.844704
2806.663 0.8021 0.686 0.7727 0.7828 0.7355 0.636 0.429 0.486 0.594 0.441
2825.953 0.432 0.583 0.91848 1.2693 1.0975 0.86184 0.7432 0.548 0.608 0.7497
2845.242 0.622 0.553 0.674 0.746 0.9903 1.0161 0.90912 0.835079 0.7846 1.0805
2864.532 1.0356 0.624 0.707 0.8117 0.84692 1.0159 0.85082 0.87512 0.7906 0.586
2883.822 0.92707 1.1963 0.9749 0.9766 0.991 0.82606 0.8039 0.674 0.62 0.7575
2903.112 0.601 0.443 0.499 0.552 1.0585 1.2333 0.82698 0.89886 1.0088 1.0099
2922.401 1.0556 0.7603 0.649 0.8075 1.0331 0.9986 0.88189 1.1393 0.9933 0.83192
2941.691 0.8064 0.7423 0.8497 0.724 0.8147 0.840697 0.707 0.8083 0.85951 0.9508
2960.981 0.8947 0.85403 0.89627 0.537 0.611 1.0727 0.92403 0.697 0.427 0.487
2980.271 0.67 0.642 0.84684 0.732 0.8863 1.2408 1.2535 1.3117 0.85942 0.487
2999.561 0.683 0.8009 0.90904 0.89823 0.8139 0.604 0.63 0.7597 0.635 0.7399
3018.850 0.8053 0.90466 1.2459 0.84751 0.633 1.0765 0.9438 0.474 0.555 0.696
3038.140 0.9622 1.0516 0.812 0.90298 1.0825 1.1974 0.7947 0.8164 0.598 0.148
3057.430 0.558 0.9849 0.679 0.344 0.583 0.657 0.461 0.469 0.654 0.86224
3076.720 0.7551 0.728 1.0301 1.1092 1.183 1.118 1.1429 1.2674 1.229 1.1784
3096.009 1.0168 0.91727 0.85698 0.656 0.619 0.645 0.651 0.928 0.84925 0.674
3115.299 0.482 0.475 0.466 0.231 0.35 0.69 0.8263 0.7395 0.644 0.313
3134.589 0.597 0.9423 0.593 0.532 0.841568 0.9563 0.734 0.62 0.611 0.7822
3153.879 1.0896 0.92086 0.91159 1.1534 1.2457 0.7641 0.255 0.259 0.483 0.89784
3173.169 0.84947 0.42 0.43 0.7541 0.92766 0.7953 0.58 0.521 0.298 0
3192.458 0.245 0.358 0.522 0.7768 0.584 0.7621 0.954 0.7885 0.57 0.468
3211.748 0.88013 1.0649 0.636 0.502 0.549 0.374 0.485 0.90362 0.9629 0.8509
3231.038 1.1723 1.0874 0.631 1.0752 1.0044 0.347 0.408 0.39 0.145 0.4
3250.328 0.88675 0.86369 0.614 0.523 0.313 0.477 0.92074 0.9587 0.728 0.7458
3269.617 0.9635 0.87186 0.92068 1.1787 1.0076 0.724 0.504 0.579 0.72 0.77
3288.907 0.733 0.512 0.678 0.9943 0.84966 0.715 0.8247 0.88038 0.666 0.276
3308.197 0.362 0.662 0.7619 0.7753 0.547 0.58 0.9457 0.7506 0.661 1.2094
3327.487 1.3792 0.83342 0.7845 1.1475 0.89874 0.518 0.341 0.533 1.0937 0.92712
3346.777 0.581 0.489 0.491 0.9503 1.0188 0.83125 1.0834 0.9688 0.347 0.304
3366.066 0.405 0.735 0.9723 0.566 0.688 0.92973 0.9392 0.9681 0.786 0.747
3385.356 0.547 0.599 0.687 0.505 0.7378 0.475 0.158 0.433 0.72 0.675
3404.646 0.673 0.664 0.472 0.263 0.243 0.47 0.708 0.86936 0.7928 0.842012
3423.936 0.7559 0.8123 0.87564 0.87969 0.9909 0.8085 0.86703 0.733 0.699 0.666
3443.225 0.508 0.584 1.0652 1.363 1.4402 1.2225 0.711 0.71 0.676 0.91561
3462.515 1.3804 1.5763 1.1515 0.639 0.688 0.638 0.499 0.835975 1.0643 1.0344
3481.805 1.2174 1.0736 0.7759 1.0458 0.92667 0.8494 0.82628 0.674 1.1778 1.0667
3501.095 0.61 0.639 1.0691 0.90694 0.7376 1.1791 1.1754 1.3044 1.2155 1.1939
3520.385 1.4443 1.1347 0.844175 1.2558 1.4992 1.0216 0.69 0.83049 1.1899 1.6883
3539.674 1.855 1.3944 1.127 1.6018 2.035 2.375 2.835 3.225 4.525 5.875
3558.964 7.645 11.265 16.215 21.635 25.695 27.475 27.065 24.695 20.525 14.885
3578.254 9.795 6.285 4.265 3.335 2.895 2.585 2.355 2.395 2.095 1.6179
3597.544 1.3928 1.5864 1.5114 1.4 1.4263 1.2818 1.3798 1.5397 1.5679 1.5995
3616.833 1.5161 1.3183 0.942 0.624 1.2141 1.855 1.6206 1.4042 1.4334 1.058
3636.123 1.1068 1.3134 0.9369 0.711 0.823 0.9924 0.9378 0.401 0.505 0.7515
3655.413 0.84594 1.3542 1.3048 1.1571 1.3164 1.0733 1.0524 1.4225 1.0447 0.505
3674.703 0.8089 1.2056 0.91076 0.7584 0.586 0.692 0.9913 0.92705 0.87167 0.52
3693.993 0.228 0.263 0.45 0.7461 1.2017 1.301 0.7488 0.459 0.333 0.315
3713.282 0.85506 1.0259 0.88303 0.658 0.634 0.66 0.86738 1.1473 0.840122 0.7686
3732.572 1.0229 1.3569 1.1253 1.0428 1.0864 0.7572 0.7987 0.983 1.0698 1.2034
3751.862 1.1641 0.9573 0.9917 0.9624 1.0516 0.9757 0.578 0.85589 0.528 0.23
3771.152 0.527 0.7861 1.197 1.0032 0.84732 0.9599 1.0676 0.9558 0.9255 1.1221
3790.441 0.9783 0.9657 1.2044 1.1088 0.7431 0.608 0.93097 0.7422 0.459 0.459
3809.731 0.87198 1.2122 0.716 0.568 0.689 0.9438 1.1162 0.777 0.7817 1.0815
3829.021 1.038 0.8172 0.444 0.337 0.386 0.198 0.7689 1.1369 0.7743 0.673
3848.311 0.718 0.367 0.216 0.69 0.637 0.359 0.518 0.7753 0.90055 1.0807
3867.601 1.1711 0.787 0.9884 1.1463 0.708 0.665 1.1033 1.0351 0.7435 0.632
3886.890 0.608 1.015 0.87891 0.7 0.305 0.405 0.721 0.838258 1.0964 1.1072
3906.180 0.9752 0.653 0.722 0.956 1.0295 0.89258 0.8189 0.90331 0.65 0.552
3925.470 0.572 0.618 0.715 0.9365 0.7434 0.301 0.7702 1.294 1.3259 1.0795
3944.760 0.86454 0.645 0.9915 1.4109 1.2628 1.0657 0.9442 1.0861 0.90362 0.464
3964.049 0.493 0.84989 1.0311 0.708 0.645 0.725 1.0564 1.3209 1.1592 1.2568
3983.339 0.91349 0.9803 1.1014 0.85134 1.0689 1.407 1.1625 0.707 0.67 0.7993
##END=
