##TITLE=2-Fluoro-6-(trifluoromethylbenzoic acid
##JCAMP-DX=4.24
##DATA TYPE=INFRARED SPECTRUM
##ORIGIN=EPA-IR VAPOR PHASE LIBRARY
##OWNER=SRD/NIST
Collection (C) 2018 copyright by the U.S. Secretary of Commerce
on behalf of the United States of America. All rights reserved.
##CAS REGISTRY NO=32890-94-1
##MOLFORM=C 8 H 4 F 4 O 2
##$NIST SOURCE=MSDC-IR
##STATE=gas
##XUNITS=1/CM
##YUNITS=ABSORBANCE
##XFACTOR=1.
##YFACTOR=0.001
##DELTAX=1.929
##FIRSTX=549.8
##LASTX=4000.8
##FIRSTY=3.878
##MAXX=4000.75
##MINX=549.766
##MAXY=0.028188
##MINY=0
##NPOINTS=1790
##XYDATA=(X++(Y..Y))
549.766 3.878 3.638 3.348 3.268 3.428 3.438 3.328 3.218 3.018 2.788
569.056 2.638 2.628 2.298 1.878 1.958 1.988 1.768 1.658 1.628 1.718
588.346 1.848 1.838 1.928 2.008 2.128 2.278 2.288 2.228 2.048 1.868
607.636 1.758 1.458 1.368 1.228 0.9873 1.0023 0.9522 0.9489 0.8958 0.9266
626.926 1.0137 1.0057 1.1365 1.318 1.498 1.758 2.208 2.728 3.038 3.418
646.216 3.748 3.928 3.868 3.458 3.018 2.648 2.258 1.768 1.378 1.1581
665.506 1.0293 0.9763 0.9515 0.8582 0.7653 0.743 0.7391 0.7735 0.7953 0.7477
684.796 0.7541 0.7353 0.7232 0.7123 0.714 0.8597 0.955 0.976 1.0293 0.9747
704.086 0.9023 0.937 1.0254 1.1538 1.308 1.528 1.868 2.198 2.648 3.198
723.376 3.528 3.768 4.048 4.168 4.198 4.348 4.278 3.918 3.548 3.338
742.666 3.328 3.308 3.288 3.258 3.158 2.998 2.838 2.728 2.608 2.428
761.956 2.288 2.118 1.948 1.848 1.688 1.608 1.588 1.588 1.638 1.738
781.246 1.758 1.748 1.728 1.808 1.838 1.928 2.108 2.198 2.328 2.378
800.536 2.458 2.648 2.838 2.948 2.958 2.658 2.318 2.158 1.958 1.708
819.826 1.368 1.1486 1.0096 0.8774 0.8103 0.7897 0.7504 0.7441 0.7773 0.7397
839.116 0.6222 0.5976 0.6342 0.6615 0.6706 0.6523 0.7115 0.7304 0.6458 0.6163
858.406 0.6008 0.6198 0.6664 0.6302 0.6095 0.6166 0.6112 0.619 0.6501 0.6368
877.696 0.5899 0.607 0.6386 0.6588 0.6823 0.7063 0.7597 0.7904 0.8007 0.9027
896.986 1.0382 1.2042 1.498 1.888 2.458 3.338 4.388 5.338 6.018 6.448
916.276 6.738 6.668 6.158 5.528 4.588 3.378 2.368 1.698 1.358 1.1588
935.566 1.0202 0.9324 0.8628 0.8427 0.8594 0.8405 0.7747 0.7279 0.6801 0.6504
954.856 0.6503 0.6435 0.6348 0.661 0.6982 0.6811 0.6583 0.7011 0.7358 0.7291
974.146 0.7497 0.7327 0.7021 0.727 0.7468 0.7195 0.7 0.7175 0.6822 0.6506
993.436 0.6971 0.676 0.6253 0.6132 0.6331 0.6925 0.7484 0.7355 0.7019 0.7197
1012.726 0.7212 0.795 0.8188 0.7846 0.8053 0.8417 0.8749 0.8735 0.8545 0.8378
1032.016 0.879 1.0162 1.1587 1.348 1.548 1.778 2.108 2.498 3.038 3.548
1051.306 3.968 4.378 4.628 4.698 4.578 4.308 3.948 3.488 3.008 2.568
1070.596 2.258 2.068 1.958 1.988 2.118 2.318 2.678 3.078 3.488 3.938
1089.886 4.358 4.698 4.938 4.938 4.608 4.168 3.758 3.378 3.078 2.828
1109.176 2.678 2.548 2.548 2.698 2.908 3.358 4.008 4.778 5.718 6.828
1128.467 8.008 9.048 9.958 10.728 11.258 11.538 11.488 11.238 11.118 11.258
1147.757 11.908 13.118 14.648 16.598 18.898 21.288 23.618 25.648 27.078 27.898
1167.047 28.188 27.838 26.778 25.108 23.268 21.598 20.158 18.858 17.708 16.628
1186.337 15.538 14.558 13.598 12.548 11.458 10.308 9.238 8.178 7.218 6.448
1205.627 5.688 5.038 4.508 4.038 3.648 3.268 2.898 2.608 2.478 2.388
1224.917 2.218 2.098 2.108 2.038 2.018 2.068 2.038 2.048 2.188 2.348
1244.207 2.548 2.978 3.568 4.218 4.878 5.488 5.988 6.268 6.358 6.318
1263.497 6.108 5.658 4.988 4.298 3.768 3.508 3.448 3.428 3.508 3.688
1282.787 3.858 4.118 4.428 4.748 5.098 5.438 5.838 6.278 6.798 7.518
1302.077 8.488 9.768 11.438 13.528 15.938 18.468 20.798 22.648 23.918 24.558
1321.367 24.438 23.488 21.788 19.558 17.078 14.688 12.718 11.098 9.648 8.398
1340.657 7.208 6.158 5.328 4.748 4.368 4.158 4.038 3.898 3.818 3.798
1359.947 3.688 3.558 3.418 3.288 3.188 2.978 2.768 2.598 2.378 2.138
1379.237 1.948 1.728 1.528 1.388 1.278 1.1745 1.0804 1.0121 0.9743 0.9239
1398.527 0.8816 0.8135 0.7604 0.7947 0.789 0.7718 0.7582 0.7196 0.7301 0.7506
1417.817 0.7479 0.7538 0.7545 0.7758 0.8103 0.8407 0.8644 0.9198 0.9901 1.0592
1437.107 1.1574 1.278 1.418 1.588 1.808 2.108 2.408 2.728 3.128 3.538
1456.397 4.058 4.578 5.078 5.618 5.998 6.188 6.208 6.098 5.838 5.358
1475.687 4.768 4.098 3.468 3.008 2.698 2.438 2.148 1.888 1.658 1.438
1494.977 1.268 1.158 1.0504 0.9225 0.8531 0.8425 0.8784 0.859 0.7936 0.7686
1514.267 0.717 0.6862 0.6718 0.6676 0.656 0.6522 0.6633 0.6239 0.6123 0.6309
1533.557 0.641 0.6322 0.6486 0.7178 0.7523 0.7183 0.6749 0.6317 0.6145 0.6195
1552.847 0.6346 0.6474 0.6937 0.7972 0.7902 0.7796 0.8199 0.8281 0.8911 1.0048
1572.137 1.103 1.2067 1.318 1.418 1.488 1.558 1.628 1.628 1.588 1.548
1591.427 1.498 1.448 1.338 1.278 1.228 1.258 1.348 1.378 1.398 1.478
1610.717 1.638 1.738 1.748 1.718 1.698 1.658 1.558 1.418 1.258 1.12
1630.007 1.0133 0.8927 0.8039 0.817 0.7838 0.712 0.7039 0.6829 0.6856 0.6897
1649.297 0.6528 0.642 0.6327 0.6133 0.6112 0.5792 0.5555 0.5542 0.551 0.5304
1668.587 0.492 0.5405 0.5416 0.5178 0.5462 0.5286 0.5324 0.5935 0.6307 0.5688
1687.877 0.5335 0.5643 0.5633 0.6174 0.6679 0.6549 0.7054 0.7718 0.7657 0.7982
1707.167 0.8415 0.8541 0.8904 0.9272 0.952 0.9599 0.9895 1.0426 1.092 1.1439
1726.457 1.218 1.288 1.348 1.378 1.428 1.428 1.468 1.518 1.518 1.518
1745.747 1.518 1.518 1.568 1.638 1.718 1.848 2.038 2.298 2.718 3.358
1765.037 4.218 5.458 7.118 9.128 11.648 14.238 16.798 19.398 21.878 23.538
1784.327 23.168 20.748 17.768 15.128 12.538 9.898 7.508 5.588 4.248 3.448
1803.617 2.948 2.608 2.388 2.198 2.008 1.858 1.738 1.608 1.508 1.398
1822.907 1.328 1.308 1.238 1.1853 1.1482 1.1094 1.086 1.0432 0.9699 0.8905
1842.197 0.8576 0.8468 0.8182 0.7964 0.7789 0.778 0.7598 0.7438 0.7214 0.7197
1861.487 0.7218 0.6624 0.6442 0.6856 0.6948 0.6625 0.6537 0.6644 0.6409 0.6012
1880.777 0.5827 0.5355 0.5151 0.4804 0.4596 0.464 0.4602 0.4707 0.4812 0.4939
1900.067 0.4873 0.4431 0.4239 0.4323 0.4359 0.4278 0.4047 0.3894 0.3935 0.4185
1919.357 0.4186 0.4304 0.4385 0.4523 0.4945 0.4973 0.4602 0.4483 0.4935 0.5264
1938.647 0.5129 0.4881 0.4673 0.4877 0.5115 0.4828 0.4459 0.4374 0.3827 0.3306
1957.937 0.3464 0.342 0.3221 0.3261 0.3392 0.3397 0.3156 0.30692 0.3127 0.29331
1977.227 0.30188 0.3098 0.3045 0.3089 0.30785 0.3119 0.29162 0.27266 0.27138 0.28263
1996.517 0.2913 0.313 0.30765 0.3229 0.3117 0.28801 0.3102 0.29485 0.2869 0.28604
2015.807 0.29519 0.29247 0.28867 0.29162 0.28434 0.26707 0.25072 0.28191 0.3203 0.28758
2035.097 0.26466 0.28504 0.27705 0.29188 0.3087 0.30781 0.3212 0.28411 0.25623 0.23345
2054.387 0.24993 0.25305 0.2841 0.3214 0.29558 0.3106 0.30547 0.28659 0.28066 0.3089
2073.677 0.2974 0.25896 0.27606 0.28967 0.2833 0.26821 0.23578 0.26639 0.28348 0.27109
2092.967 0.29029 0.29277 0.29749 0.29061 0.2936 0.30738 0.30132 0.28249 0.29164 0.3058
2112.257 0.28728 0.25509 0.23439 0.22186 0.23034 0.24252 0.208704 0.20511 0.21238 0.1943
2131.547 0.1935 0.21622 0.2366 0.22683 0.216538 0.19898 0.22302 0.21979 0.212772 0.23368
2150.837 0.22422 0.26967 0.27887 0.25025 0.24192 0.24996 0.27248 0.28576 0.29722 0.2851
2170.127 0.30556 0.317 0.2888 0.29335 0.27118 0.30035 0.3 0.24113 0.28437 0.30179
2189.417 0.27982 0.27008 0.25927 0.27804 0.26188 0.25066 0.2298 0.1964 0.1912 0.213247
2208.707 0.24109 0.22489 0.214388 0.24446 0.24919 0.25148 0.23964 0.1886 0.1634 0.1925
2227.997 0.25443 0.26905 0.23903 0.2325 0.22072 0.20609 0.1896 0.214788 0.24604 0.26343
2247.287 0.26668 0.23406 0.2375 0.23713 0.27066 0.26676 0.22735 0.209179 0.22139 0.20357
2266.577 0.1965 0.2309 0.25242 0.25394 0.22416 0.212306 0.23303 0.26398 0.28285 0.27198
2285.868 0.25322 0.2487 0.25666 0.28931 0.29363 0.26355 0.28128 0.27447 0.23539 0.24466
2305.158 0.24054 0.2285 0.26999 0.28839 0.24477 0.23304 0.26078 0.27081 0.30151 0.30384
2324.448 0.27327 0.29874 0.30428 0.26769 0.26993 0.27617 0.22598 0.24014 0.28464 0.27323
2343.738 0.28052 0.3086 0.25197 0.24294 0.3122 0.3444 0.3543 0.3352 0.3281 0.3253
2363.028 0.3123 0.3208 0.3321 0.3182 0.29916 0.3195 0.3346 0.3143 0.29758 0.25795
2382.318 0.2455 0.23757 0.26308 0.28381 0.24819 0.23496 0.23684 0.20089 0.1528 0.1216
2401.608 0.125 0.1552 0.1807 0.1828 0.1556 0.1229 0.1268 0.20638 0.2098 0.1867
2420.898 0.20038 0.1759 0.1346 0.1388 0.210519 0.23593 0.19892 0.210148 0.1867 0.1621
2440.188 0.1715 0.1433 0.1418 0.1672 0.1912 0.1933 0.1878 0.20075 0.1911 0.1836
2459.478 0.1913 0.1851 0.1849 0.1903 0.1761 0.1809 0.1657 0.134 0.1408 0.1418
2478.768 0.115 0.1234 0.1366 0.1405 0.1432 0.1208 0.1302 0.1768 0.22019 0.214101
2498.058 0.217469 0.22765 0.25365 0.23607 0.1907 0.20497 0.24837 0.24448 0.21996 0.213061
2517.348 0.22477 0.24681 0.22964 0.1826 0.1591 0.1622 0.1969 0.21905 0.20128 0.22288
2536.638 0.2363 0.211363 0.188 0.1684 0.1618 0.1652 0.1412 0.1658 0.1771 0.1819
2555.928 0.22611 0.1832 0.1321 0.1203 0.1094 0.1177 0.1278 0.1496 0.146 0.103
2575.218 0.108 0.1622 0.1798 0.163 0.1732 0.1317 0.093 0.109 0.1285 0.1329
2594.508 0.09 0.062 0.081 0.1081 0.101 0.093 0.116 0.1687 0.1591 0.1465
2613.798 0.1583 0.118 0.1537 0.1756 0.1405 0.1506 0.1539 0.1105 0.061 0.076
2633.088 0.072 0.091 0.133 0.119 0.1281 0.1204 0.07 0.098 0.1379 0.093
2652.378 0.045 0.019 0.044 0.037 0.064 0.1165 0.098 0.06 0.043 0.065
2671.668 0.1137 0.1156 0.1361 0.1547 0.083 0.089 0.097 0.049 0.077 0.073
2690.958 0.075 0.082 0.047 0.05 0.069 0.1398 0.1717 0.1431 0.1317 0.073
2710.248 0.023 0.1 0.1197 0.053 0.078 0.1241 0.093 0.092 0.074 0.048
2729.538 0.08 0.062 0.077 0.093 0.052 0.071 0.1189 0.106 0.089 0.1243
2748.828 0.085 0.036 0.056 0.051 0.054 0.086 0.089 0.062 0.035 0
2768.118 0.031 0.048 0.065 0.073 0.075 0.088 0.105 0.1254 0.093 0.087
2787.408 0.033 0.025 0.068 0.037 0.012 0.013 0.077 0.098 0.072 0.103
2806.698 0.084 0.05 0.068 0.074 0.1221 0.1354 0.106 0.1319 0.1475 0.1135
2825.988 0.105 0.1385 0.1131 0.1 0.052 0.044 0.1299 0.1349 0.1269 0.1636
2845.278 0.1637 0.1484 0.1366 0.1089 0.1247 0.1148 0.1 0.1211 0.096 0.04
2864.568 0.067 0.1087 0.086 0.065 0.07 0.1178 0.087 0.053 0.1134 0.1801
2883.858 0.1821 0.1745 0.1543 0.1624 0.177 0.1903 0.1339 0.046 0.084 0.1581
2903.148 0.1716 0.1545 0.1305 0.1087 0.1792 0.1661 0.1741 0.1728 0.1228 0.1805
2922.438 0.2305 0.213953 0.1102 0.071 0.062 0.072 0.1363 0.1264 0.1346 0.1578
2941.728 0.117 0.1298 0.207498 0.1847 0.108 0.1706 0.20344 0.1747 0.1532 0.1528
2961.018 0.1758 0.1452 0.1573 0.1477 0.1188 0.097 0.091 0.1494 0.1934 0.1974
2980.308 0.1413 0.1212 0.20557 0.20559 0.12 0.097 0.1102 0.1295 0.091 0.103
2999.598 0.26729 0.30279 0.25005 0.25094 0.28409 0.26622 0.23502 0.28525 0.2758 0.1923
3018.888 0.1673 0.1571 0.1787 0.25243 0.24396 0.22305 0.25934 0.25811 0.1917 0.2038
3038.178 0.28979 0.3113 0.27803 0.3224 0.3307 0.3394 0.3521 0.3152 0.26607 0.20158
3057.468 0.27132 0.355 0.3591 0.3173 0.27661 0.22243 0.26058 0.3406 0.3291 0.3109
3076.758 0.30703 0.3169 0.3401 0.396 0.4331 0.4257 0.4012 0.4175 0.4624 0.4531
3096.048 0.4673 0.5006 0.4369 0.3821 0.3666 0.3159 0.3284 0.3595 0.3625 0.30262
3115.338 0.2556 0.27467 0.24981 0.2626 0.27481 0.26189 0.22897 0.28389 0.3009 0.25301
3134.628 0.3013 0.316 0.3594 0.4146 0.3658 0.29747 0.3423 0.4095 0.4051 0.3682
3153.918 0.4144 0.4651 0.4371 0.3268 0.27082 0.26363 0.28301 0.4184 0.4551 0.3723
3173.208 0.3581 0.3942 0.399 0.3776 0.3159 0.25317 0.25907 0.367 0.3579 0.3181
3192.498 0.3956 0.3533 0.27387 0.3579 0.369 0.3369 0.4003 0.4204 0.3724 0.3397
3211.788 0.3204 0.1778 0.1832 0.29887 0.3434 0.3926 0.4194 0.5089 0.4984 0.4168
3231.078 0.3613 0.3569 0.4125 0.4859 0.4246 0.29582 0.3095 0.3926 0.3988 0.3332
3250.368 0.3184 0.27163 0.30393 0.3957 0.4006 0.4398 0.4431 0.3372 0.3445 0.4065
3269.658 0.4165 0.4278 0.4343 0.4641 0.4764 0.469 0.3675 0.3569 0.3945 0.3478
3288.948 0.4308 0.4557 0.3741 0.3911 0.4598 0.4674 0.5064 0.4448 0.4166 0.4663
3308.238 0.4546 0.4796 0.4665 0.4477 0.4623 0.446 0.3958 0.4637 0.5775 0.5078
3327.528 0.4418 0.4313 0.4511 0.4542 0.4365 0.4349 0.4406 0.4175 0.3837 0.4628
3346.818 0.4975 0.4352 0.4656 0.5136 0.4971 0.5019 0.4578 0.4546 0.4471 0.4635
3366.108 0.4931 0.4096 0.3133 0.3555 0.4196 0.3755 0.3668 0.4341 0.4624 0.4351
3385.398 0.4364 0.45 0.4225 0.3968 0.4511 0.4895 0.4637 0.5306 0.627 0.5997
3404.688 0.4978 0.4706 0.5021 0.5152 0.4933 0.4627 0.4558 0.4707 0.5435 0.5521
3423.978 0.4673 0.5273 0.6007 0.61 0.6319 0.612 0.658 0.6559 0.5463 0.4227
3443.269 0.3715 0.4213 0.5315 0.5325 0.4222 0.4316 0.5126 0.5343 0.5515 0.6389
3462.559 0.5835 0.5109 0.5109 0.4488 0.5137 0.5673 0.5883 0.5399 0.4901 0.5396
3481.849 0.603 0.616 0.5124 0.5083 0.5738 0.5903 0.5675 0.5127 0.4855 0.5578
3501.139 0.553 0.5714 0.6112 0.571 0.5383 0.5245 0.5626 0.5268 0.595 0.6286
3520.429 0.608 0.6777 0.6652 0.641 0.6405 0.6303 0.6171 0.6407 0.6899 0.7729
3539.719 0.8493 0.8605 0.931 1.0456 1.228 1.588 2.058 2.638 3.448 4.548
3559.009 5.738 6.738 7.448 7.728 7.638 7.438 6.928 5.998 4.888 3.688
3578.299 2.568 1.838 1.448 1.1745 1.004 0.9117 0.8211 0.7805 0.7514 0.7152
3597.589 0.6767 0.694 0.7393 0.7799 0.7923 0.6113 0.5611 0.7445 0.724 0.6943
3616.879 0.7422 0.7208 0.7139 0.7148 0.7533 0.7404 0.6692 0.6622 0.6454 0.6431
3636.169 0.7114 0.6745 0.6366 0.6619 0.6124 0.6013 0.5355 0.5536 0.594 0.5476
3655.459 0.5797 0.6075 0.5349 0.4915 0.5714 0.6065 0.5881 0.599 0.5985 0.5815
3674.749 0.5058 0.4855 0.555 0.6073 0.5826 0.5482 0.5409 0.4805 0.4588 0.5119
3694.039 0.5662 0.5743 0.5328 0.509 0.5168 0.5236 0.565 0.616 0.5624 0.5515
3713.329 0.5624 0.5255 0.5144 0.3916 0.4042 0.4742 0.5913 0.6401 0.4944 0.4774
3732.619 0.3902 0.3807 0.5212 0.5383 0.5581 0.6263 0.6484 0.6138 0.589 0.6104
3751.909 0.6083 0.5394 0.4431 0.5145 0.6084 0.5393 0.4851 0.5318 0.5521 0.5543
3771.199 0.5333 0.5083 0.4936 0.436 0.445 0.485 0.575 0.6078 0.5684 0.5146
3790.489 0.532 0.5732 0.6094 0.6311 0.5525 0.5421 0.5499 0.6097 0.6345 0.5383
3809.779 0.5116 0.5269 0.5091 0.4848 0.477 0.5149 0.5101 0.5522 0.5787 0.5302
3829.069 0.5718 0.5395 0.4374 0.4026 0.4126 0.4645 0.4829 0.4836 0.5526 0.5823
3848.359 0.5614 0.5076 0.4049 0.3918 0.4407 0.481 0.5578 0.5255 0.4724 0.4908
3867.649 0.5475 0.5843 0.5192 0.497 0.4526 0.5073 0.6402 0.6064 0.5272 0.4528
3886.939 0.44 0.5112 0.6358 0.6959 0.5997 0.6147 0.6456 0.4725 0.3903 0.4248
3906.229 0.3927 0.4055 0.4928 0.4916 0.4023 0.3968 0.4095 0.3715 0.4262 0.4966
3925.519 0.4041 0.4114 0.4315 0.28868 0.3192 0.4599 0.4843 0.3904 0.3518 0.4505
3944.809 0.4929 0.4908 0.4764 0.4687 0.499 0.565 0.572 0.4702 0.5072 0.6192
3964.099 0.5259 0.4519 0.5424 0.4629 0.4335 0.4838 0.4437 0.4154 0.3922 0.4557
3983.389 0.4704 0.4102 0.4628 0.4746 0.4832 0.4391 0.4269 0.3952 0.29152 0.442
##END=
