##TITLE=4-Trifluoromethylbenzoyl chloride
##JCAMP-DX=4.24
##DATA TYPE=INFRARED SPECTRUM
##ORIGIN=EPA-IR VAPOR PHASE LIBRARY
##OWNER=SRD/NIST
Collection (C) 2018 copyright by the U.S. Secretary of Commerce
on behalf of the United States of America. All rights reserved.
##CAS REGISTRY NO=329-15-7
##MOLFORM=C 8 H 4 Cl F 3 O
##$NIST SOURCE=MSDC-IR
##STATE=gas
##XUNITS=1/CM
##YUNITS=ABSORBANCE
##XFACTOR=1.
##YFACTOR=0.001
##DELTAX=1.92934
##FIRSTX=549.9
##LASTX=3999.5
##FIRSTY=3.65
##MAXX=3999.53
##MINX=549.863
##MAXY=0.11761
##MINY=0
##NPOINTS=1789
##XYDATA=(X++(Y..Y))
549.863 3.65 3.31 3 2.7417 2.5109 2.3763 2.3285 2.1718 2.0735 2.1278
569.156 2.06 2.0534 2.1048 2.034 1.8878 1.877 2.052 2.157 2.2384 2.2125
588.450 2.2311 2.2445 2.2281 2.1505 2.02 2.035 2.0878 2.1131 2.0679 2.0129
607.743 1.982 1.9737 1.9997 1.9739 1.9846 2.0084 1.9496 1.9273 2.0391 2.2375
627.037 2.4642 2.81 3.2 3.58 4.05 4.73 5.34 5.88 6.57 7.28
646.330 7.97 8.6 9.53 10.58 10.63 9.68 8.96 8.62 8.08 7.31
665.624 6.64 6.16 5.79 5.58 5.66 5.91 6.24 6.87 7.83 8.94
684.917 10.03 10.64 10.52 10.09 9.55 8.85 7.77 6.43 5.29 4.43
704.210 3.85 3.31 2.87 2.5623 2.2968 2.1293 1.9663 1.8915 1.8993 1.8987
723.504 1.8845 1.8813 1.9522 2.0017 1.995 2.0164 2.1022 2.2494 2.3658 2.4591
742.797 2.6117 2.85 3.11 3.37 3.68 4.18 4.94 6.05 7.79 10.36
762.091 13.68 17.25 20.13 21.38 21.06 19.72 17.35 13.8 9.84 6.86
781.384 5.24 4.6 4.42 4.45 4.62 4.88 5.11 5.1 4.93 4.8
800.678 4.61 4.33 4.02 3.76 3.7 3.64 3.62 3.66 3.71 3.75
819.971 3.96 4.23 4.56 5 5.47 6.18 7.07 8 9.09 10.28
839.264 11.63 13.15 14.63 16.11 17.56 19.06 20.68 22.15 23.08 23.39
858.558 23.81 24.82 26.16 27.73 29.72 32.17 34.99 38.12 41.39 44.48
877.851 46.9 48.29 48.62 48.3 47.55 46.46 45.09 43.28 41.07 38.46
897.145 35.42 31.84 27.81 23.69 19.95 16.81 14.12 11.77 9.95 8.61
916.438 7.46 6.58 5.94 5.44 5.05 4.73 4.44 4.21 4.11 4.01
935.732 3.82 3.65 3.46 3.28 3.18 3.04 2.94 2.89 2.8 2.7232
955.025 2.6871 2.6581 2.6647 2.6786 2.6731 2.7069 2.7588 2.7526 2.6945 2.639
974.318 2.6203 2.5161 2.3795 2.2781 2.1923 2.1427 2.1015 2.0689 2.08 2.0605
993.612 2.0387 2.121 2.2044 2.2882 2.4675 2.728 3.08 3.68 4.69 6.34
1012.905 8.58 10.45 11.11 10.99 10.67 9.56 7.27 4.91 3.45 2.77
1032.199 2.518 2.3983 2.3733 2.4716 2.635 2.83 3.12 3.51 4.08 4.98
1051.492 6.19 8 10.69 14.56 20.15 27.57 35.89 43.16 47.54 48.66
1070.786 46.97 41.87 33.26 23.95 17.01 12.85 10.48 9.09 8.07 7.25
1090.079 6.67 6.19 5.87 5.76 5.84 6.05 6.44 7.12 8.04 9.02
1109.372 9.91 10.66 11.31 12.14 13.08 13.64 13.87 14.04 14.3 14.77
1128.666 15.49 16.58 18.13 20.2 22.82 26.03 29.93 34.57 39.92 45.94
1147.959 52.45 59.17 65.53 71.05 75.07 76.82 76.21 74.15 71.5 68.82
1167.253 66.82 66.35 68.17 72.47 78.64 84.79 88.49 88.12 84.05 77.74
1186.546 70.05 61.31 53.19 48.06 46.55 47.4 48.45 48.24 46.63 43.33
1205.840 37.25 28.72 20.57 15.05 11.75 9.62 8.15 7.1 6.29 5.65
1225.133 5.22 4.84 4.47 4.28 4.18 3.99 3.92 3.93 3.92 3.93
1244.426 3.92 3.85 3.82 3.81 3.82 3.82 3.76 3.71 3.74 3.73
1263.720 3.72 3.82 3.91 3.94 4.09 4.29 4.47 4.72 4.98 5.28
1283.013 5.72 6.21 6.75 7.46 8.34 9.46 10.86 12.64 14.95 17.79
1302.307 21.23 25.34 30.03 35.37 41.61 49.12 58.51 69.99 83.11 96.97
1321.600 109.31 116.93 117.61 110.99 98.07 80.2 59.69 40.95 27.58 19.55
1340.894 14.79 11.7 9.52 7.93 6.84 6.15 5.69 5.37 5.12 4.94
1360.187 4.84 4.76 4.6 4.42 4.21 3.95 3.7 3.48 3.32 3.17
1379.480 3.06 3.01 3.05 3.2 3.46 3.78 4.23 4.87 5.63 6.47
1398.774 7.38 8.33 9.28 10.06 10.44 10.55 10.49 10.21 9.71 8.93
1418.067 7.87 6.81 5.94 5.14 4.51 3.99 3.44 3.07 2.83 2.6167
1437.361 2.4153 2.3145 2.265 2.1812 2.1574 2.1465 2.1258 2.0927 2.0797 2.0255
1456.654 1.9174 1.8767 1.84087 1.7277 1.608 1.549 1.516 1.442 1.364 1.347
1475.948 1.37 1.378 1.367 1.417 1.477 1.482 1.455 1.551 1.626 1.6709
1495.241 1.81665 2.0395 2.3379 2.7118 3.04 3.21 3.39 3.5 3.39 3.14
1514.534 2.85 2.5018 2.2249 1.9795 1.76727 1.7228 1.71 1.668 1.633 1.597
1533.828 1.533 1.559 1.526 1.432 1.454 1.555 1.638 1.683 1.7314 1.6894
1553.121 1.625 1.608 1.557 1.517 1.613 1.7567 1.82983 1.85384 1.8802 1.9743
1572.415 2.0984 2.1346 2.2206 2.4199 2.5554 2.6694 2.6614 2.5577 2.4899 2.306
1591.708 2.109 1.9533 1.78148 1.648 1.565 1.498 1.47 1.503 1.503 1.476
1611.002 1.471 1.428 1.374 1.323 1.388 1.46 1.418 1.412 1.422 1.464
1630.295 1.508 1.484 1.408 1.35 1.492 1.589 1.572 1.583 1.53 1.549
1649.588 1.594 1.482 1.451 1.641 1.7584 1.80053 1.81738 1.80725 1.84044 1.85397
1668.882 1.85087 1.85914 1.86978 1.9546 2.0656 2.134 2.2369 2.2381 2.1631 2.2514
1688.175 2.4249 2.4828 2.4681 2.3849 2.3211 2.3665 2.3492 2.415 2.4977 2.5822
1707.469 2.7323 2.86 3.02 3.21 3.41 3.56 3.79 4.07 4.37 4.75
1726.762 5.11 5.47 5.93 6.47 7.15 7.96 8.75 9.67 10.76 11.9
1746.056 13.02 14.23 15.44 16.56 17.5 18.3 19.01 19.56 19.9 20.12
1765.349 20.31 20.55 20.93 21.43 22.29 23.44 24.9 26.6 28.59 30.75
1784.642 32.88 34.88 36.5 37.55 37.87 37.45 36.27 34.37 31.85 28.83
1803.936 25.54 22.24 19.13 16.33 13.86 11.74 9.93 8.4 7.26 6.42
1823.229 5.73 5.21 4.79 4.49 4.25 3.99 3.78 3.61 3.46 3.24
1842.523 2.99 2.78 2.5765 2.4093 2.3004 2.1801 2.0759 2.0242 1.9573 1.9075
1861.816 1.86744 1.81372 1.76157 1.76019 1.779 1.7489 1.7048 1.667 1.637 1.656
1881.110 1.666 1.64 1.629 1.668 1.666 1.65 1.664 1.629 1.655 1.658
1900.403 1.632 1.648 1.639 1.641 1.644 1.66 1.7281 1.77189 1.82454 1.9221
1919.696 2.0069 2.079 2.1406 2.1781 2.221 2.2445 2.2251 2.2287 2.2116 2.1676
1938.990 2.1589 2.0915 1.9803 1.926 1.86347 1.80534 1.7189 1.616 1.575 1.544
1958.283 1.486 1.451 1.463 1.427 1.393 1.384 1.365 1.391 1.399 1.355
1977.577 1.316 1.298 1.316 1.325 1.32 1.337 1.314 1.295 1.297 1.291
1996.870 1.278 1.287 1.304 1.301 1.284 1.263 1.255 1.228 1.225 1.26
2016.164 1.261 1.228 1.228 1.267 1.258 1.24 1.245 1.203 1.202 1.235
2035.457 1.244 1.288 1.332 1.291 1.307 1.355 1.343 1.346 1.342 1.364
2054.750 1.373 1.368 1.396 1.385 1.354 1.396 1.446 1.466 1.458 1.455
2074.044 1.497 1.518 1.489 1.482 1.527 1.528 1.513 1.525 1.533 1.525
2093.337 1.521 1.523 1.488 1.468 1.444 1.402 1.386 1.316 1.257 1.231
2112.631 1.205 1.24 1.248 1.217 1.204 1.198 1.215 1.225 1.19 1.203
2131.924 1.227 1.197 1.189 1.189 1.198 1.215 1.211 1.166 1.139 1.176
2151.218 1.18 1.162 1.168 1.168 1.159 1.157 1.163 1.182 1.18 1.152
2170.511 1.168 1.191 1.19 1.195 1.232 1.258 1.259 1.244 1.225 1.245
2189.804 1.263 1.266 1.242 1.227 1.276 1.265 1.217 1.247 1.301 1.29
2209.098 1.322 1.345 1.324 1.354 1.373 1.38 1.386 1.4 1.418 1.404
2228.391 1.361 1.342 1.355 1.365 1.354 1.321 1.331 1.341 1.309 1.296
2247.685 1.314 1.33 1.292 1.267 1.283 1.258 1.225 1.238 1.285 1.3
2266.978 1.324 1.351 1.328 1.347 1.355 1.373 1.432 1.434 1.416 1.449
2286.272 1.489 1.497 1.509 1.563 1.591 1.575 1.573 1.545 1.537 1.566
2305.565 1.529 1.478 1.487 1.484 1.484 1.474 1.452 1.468 1.466 1.397
2324.858 1.324 1.345 1.356 1.33 1.323 1.351 1.333 1.305 1.342 1.38
2344.152 1.403 1.382 1.386 1.386 1.365 1.352 1.324 1.302 1.35 1.401
2363.445 1.411 1.409 1.396 1.411 1.463 1.52 1.535 1.551 1.6 1.601
2382.739 1.575 1.549 1.502 1.478 1.423 1.373 1.379 1.388 1.365 1.347
2402.032 1.327 1.312 1.299 1.278 1.217 1.21 1.247 1.209 1.181 1.237
2421.326 1.257 1.218 1.213 1.211 1.199 1.201 1.203 1.205 1.227 1.209
2440.619 1.202 1.2 1.198 1.175 1.145 1.152 1.148 1.15 1.165 1.176
2459.912 1.177 1.197 1.198 1.182 1.168 1.17 1.231 1.242 1.212 1.174
2479.206 1.189 1.253 1.214 1.193 1.247 1.26 1.221 1.227 1.251 1.207
2498.499 1.185 1.184 1.198 1.208 1.18 1.174 1.163 1.154 1.169 1.162
2517.793 1.177 1.191 1.135 1.073 1.087 1.116 1.097 1.089 1.07 1.068
2537.086 1.034 1.033 1.066 1.048 1.091 1.147 1.157 1.103 1.081 1.1
2556.380 1.076 1.049 1.087 1.105 1.109 1.145 1.135 1.085 1.056 1.036
2575.673 1.017 1.06 1.093 1.086 1.098 1.084 1.074 1.088 1.085 1.083
2594.966 1.083 1.08 1.087 1.072 1.071 1.112 1.104 1.064 1.083 1.12
2614.260 1.128 1.121 1.117 1.089 1.105 1.126 1.107 1.137 1.155 1.157
2633.553 1.16 1.144 1.128 1.153 1.142 1.095 1.073 1.08 1.088 1.029
2652.847 0.994 0.994 1.009 0.997 0.974 0.971 0.983 1.003 1 1.011
2672.140 0.999 1.001 1.028 1.056 1.101 1.083 0.985 1.016 1.114 1.097
2691.434 1.124 1.084 1.008 1.025 0.976 0.949 1.007 1.057 1.097 1.121
2710.727 1.094 1.042 1.011 1.012 0.985 0.958 0.927 0.903 0.937 1.009
2730.020 0.979 0.903 0.862 0.832 0.864 0.895 0.92 0.953 0.911 0.876
2749.314 0.897 0.913 0.945 0.954 0.929 0.901 0.905 0.955 0.961 0.921
2768.607 0.927 0.927 0.906 0.866 0.899 0.952 0.875 0.777 0.852 0.931
2787.901 0.946 0.948 1.019 1.025 0.94 0.951 0.954 0.983 0.989 0.99
2807.194 0.981 1.014 1.062 1.06 1.048 0.985 0.95 0.948 0.926 0.946
2826.488 0.976 0.978 1.045 0.957 0.784 0.818 0.873 0.878 0.844 0.75
2845.781 0.73 0.81 0.845 0.75 0.68 0.7 0.72 0.73 0.71 0.69
2865.074 0.67 0.69 0.71 0.71 0.67 0.61 0.67 0.72 0.67 0.71
2884.368 0.77 0.807 0.73 0.7 0.75 0.72 0.7 0.69 0.63 0.67
2903.661 0.76 0.68 0.65 0.65 0.65 0.65 0.67 0.74 0.75 0.812
2922.955 0.859 0.77 0.771 0.775 0.828 0.876 0.833 0.902 0.853 0.836
2942.248 0.933 0.856 0.779 0.797 0.839 0.814 0.72 0.7 0.74 0.67
2961.542 0.62 0.71 0.64 0.64 0.74 0.61 0.57 0.66 0.64 0.54
2980.835 0.51 0.58 0.63 0.67 0.73 0.71 0.63 0.5 0.53 0.58
3000.128 0.56 0.62 0.58 0.63 0.64 0.54 0.47 0.44 0.47 0.44
3019.422 0.51 0.49 0.38 0.47 0.47 0.41 0.4 0.31 0.4 0.52
3038.715 0.5 0.51 0.45 0.46 0.53 0.46 0.32 0.38 0.46 0.41
3058.009 0.4 0.43 0.55 0.65 0.58 0.63 0.777 0.69 0.63 0.68
3077.302 0.65 0.72 0.76 0.71 0.65 0.6 0.6 0.62 0.66 0.62
3096.596 0.6 0.55 0.5 0.36 0.2 0.22 0.29 0.35 0.32 0.32
3115.889 0.35 0.38 0.48 0.39 0.33 0.37 0.39 0.37 0.43 0.41
3135.182 0.33 0.31 0.25 0.51 0.56 0.38 0.34 0.28 0.21 0.23
3154.476 0.22 0.19 0.29 0.28 0.34 0.42 0.39 0.37 0.27 0.26
3173.769 0.2 0.2 0.26 0.11 0.06 0.1 0.21 0.12 0 0.2
3193.063 0.27 0.24 0.33 0.37 0.33 0.33 0.27 0.27 0.31 0.24
3212.356 0.15 0.15 0.19 0.26 0.34 0.25 0.09 0.07 0.07 0.1
3231.650 0.22 0.25 0.26 0.17 0.14 0.27 0.38 0.36 0.25 0.19
3250.943 0.21 0.23 0.22 0.13 0.15 0.3 0.32 0.21 0.15 0.17
3270.236 0.25 0.21 0.09 0.18 0.23 0.15 0.25 0.34 0.35 0.31
3289.530 0.28 0.35 0.31 0.22 0.1 0.06 0.18 0.23 0.25 0.19
3308.823 0.12 0.22 0.3 0.2 0.1 0.27 0.34 0.29 0.32 0.3
3328.117 0.22 0.15 0.12 0.15 0.23 0.38 0.41 0.32 0.19 0.12
3347.410 0.18 0.22 0.23 0.18 0.32 0.45 0.38 0.29 0.34 0.41
3366.704 0.38 0.4 0.33 0.4 0.47 0.31 0.22 0.28 0.42 0.35
3385.997 0.29 0.43 0.47 0.47 0.46 0.36 0.27 0.32 0.45 0.32
3405.290 0.24 0.31 0.47 0.49 0.47 0.49 0.42 0.44 0.43 0.56
3424.584 0.59 0.44 0.43 0.42 0.39 0.38 0.46 0.49 0.38 0.43
3443.877 0.54 0.52 0.5 0.47 0.47 0.4 0.36 0.38 0.42 0.57
3463.171 0.62 0.62 0.6 0.58 0.59 0.63 0.62 0.67 0.67 0.69
3482.464 0.778 0.74 0.781 0.71 0.62 0.61 0.64 0.76 0.71 0.61
3501.758 0.7 0.75 0.828 0.975 1.073 1.045 0.989 0.965 0.976 0.961
3521.051 0.988 1.079 1.118 1.212 1.263 1.275 1.347 1.292 1.163 1.226
3540.344 1.233 1.15 1.14 1.223 1.177 0.99 0.987 0.995 0.961 0.976
3559.638 0.908 0.902 0.893 0.854 0.943 1.01 0.958 0.842 0.923 1.076
3578.931 1.046 0.987 0.976 1.091 1.18 1.174 1.029 0.886 0.889 0.878
3598.225 0.918 0.886 0.863 0.865 0.884 0.923 0.876 0.79 0.7 0.787
3617.518 0.82 0.76 0.864 0.829 0.7 0.7 0.76 0.903 0.955 0.87
3636.812 0.771 0.779 0.808 0.809 0.816 0.842 0.946 0.935 0.822 0.776
3656.105 0.798 0.867 0.894 0.855 0.897 0.853 0.77 0.776 0.74 0.75
3675.398 0.68 0.59 0.67 0.804 0.858 0.833 0.828 0.804 0.849 0.942
3694.692 0.915 0.858 0.876 0.947 0.863 0.817 0.837 0.859 0.863 0.85
3713.985 0.877 0.889 0.968 0.93 0.884 0.978 1.034 0.983 0.894 0.84
3733.279 0.849 0.76 0.76 0.856 0.832 0.8 0.798 0.798 0.829 0.834
3752.572 0.812 0.877 0.941 0.997 1.01 0.975 0.958 0.946 0.935 0.887
3771.866 0.929 0.994 0.99 0.943 0.826 0.946 1.058 1.026 1.06 1.037
3791.159 1.003 1.004 0.903 0.833 0.907 0.976 0.997 1.011 0.985 0.951
3810.452 0.988 0.919 0.823 0.856 0.921 0.966 1.003 0.968 0.981 0.986
3829.746 0.911 0.858 0.907 0.949 0.82 0.842 0.964 1.066 1.068 0.96
3849.039 0.894 0.82 0.75 0.843 1.019 1.059 1.125 1.047 0.924 0.959
3868.333 0.891 0.924 1.026 0.909 0.781 0.889 1.021 1.021 1.045 0.964
3887.626 0.922 1.015 1.028 0.981 0.964 1.052 1.099 1.019 1.045 1.033
3906.920 0.974 0.934 0.928 0.995 0.956 0.979 1.011 1.063 1.099 1.042
3926.213 0.996 1.043 1.138 0.998 0.992 1.041 0.949 1.011 1.075 1.02
3945.506 1 1.114 1.115 0.994 1.01 1.102 1.087 1.025 1.06 1.093
3964.800 1.142 1.141 1.071 1.106 1.174 1.151 1.013 0.972 1.006 0.963
3984.093 1.009 1.049 1.036 1.023 1.073 1.139 1.012 1.014 1.126
##END=
