##TITLE=3,5-Dichlorobenzyl chloride
##JCAMP-DX=4.24
##DATA TYPE=INFRARED SPECTRUM
##ORIGIN=EPA-IR VAPOR PHASE LIBRARY
##OWNER=SRD/NIST
Collection (C) 2018 copyright by the U.S. Secretary of Commerce
on behalf of the United States of America. All rights reserved.
##CAS REGISTRY NO=3290-06-0
##MOLFORM=C 7 H 5 Cl 3
##$NIST SOURCE=MSDC-IR
##STATE=gas
##XUNITS=1/CM
##YUNITS=ABSORBANCE
##XFACTOR=1.
##YFACTOR=0.001
##DELTAX=1.92898
##FIRSTX=549.8
##LASTX=4000.7
##FIRSTY=1.712
##MAXX=4000.7
##MINX=549.759
##MAXY=0.243072
##MINY=0
##NPOINTS=1790
##XYDATA=(X++(Y..Y))
549.759 1.712 1.722 1.522 1.472 1.872 2.022 1.872 2.002 2.362 3.012
569.049 3.632 4.242 5.492 7.432 10.492 15.132 21.632 28.692 34.832 39.802
588.339 43.012 44.202 42.252 37.932 32.672 26.142 19.582 14.462 10.482 7.482
607.628 5.812 4.832 4.312 4.252 4.202 3.962 3.792 3.662 3.632 3.572
626.918 3.622 3.822 3.602 3.482 3.652 3.592 3.632 3.662 3.622 3.792
646.208 4.082 4.302 4.532 5.302 6.512 8.702 11.832 15.582 19.732 23.952
665.498 28.822 35.692 41.972 39.962 32.542 27.562 24.722 21.252 17.382 14.462
684.787 12.722 12.152 12.162 12.482 12.872 13.482 14.312 15.202 16.222 17.412
704.077 18.822 20.682 22.672 25.082 28.442 32.432 37.522 43.902 51.522 60.322
723.367 69.932 79.282 87.502 94.032 98.072 98.892 96.662 92.392 86.492 79.702
742.657 72.832 66.222 60.542 55.902 52.182 49.552 48.112 47.422 47.032 46.092
761.947 44.182 41.532 38.422 35.522 32.662 30.322 28.972 28.532 28.862 29.942
781.236 32.282 35.532 40.092 46.492 54.602 64.622 76.482 90.182 104.102 115.882
800.526 123.862 127.232 126.172 121.052 111.532 97.762 82.202 68.382 58.372 52.372
819.816 49.512 48.242 47.732 46.602 44.982 43.252 40.912 38.852 37.332 36.472
839.106 36.582 37.682 39.652 42.472 45.992 49.622 52.532 54.332 55.392 55.882
858.395 56.272 56.372 54.922 50.162 43.702 38.682 32.822 25.572 19.502 15.552
877.685 12.972 10.732 8.932 7.612 6.862 6.842 7.012 7.152 7.662 8.422
896.975 9.082 9.742 10.412 11.382 12.712 14.252 16.252 18.792 21.332 23.342
916.265 24.452 24.082 22.462 20.322 17.632 14.692 12.122 10.212 8.812 7.702
935.555 6.902 6.522 6.152 5.882 5.692 5.182 4.802 4.362 3.912 3.722
954.844 3.532 3.202 2.702 2.372 2.142 1.822 1.822 1.692 1.432 1.362
974.134 1.2441 1.0535 1.0693 1.2832 1.29 1.2096 1.372 1.642 1.772 1.782
993.424 1.852 1.852 1.972 2.172 1.902 1.662 1.652 1.792 1.732 1.582
1012.714 1.612 1.542 1.602 1.642 1.612 1.612 1.702 1.902 1.962 2.042
1032.003 2.372 2.532 2.372 2.302 2.372 2.492 2.752 2.972 2.822 2.892
1051.293 3.242 3.732 4.082 4.242 4.492 4.352 4.342 4.302 3.982 3.672
1070.583 3.752 3.902 3.642 3.942 4.932 5.882 7.042 8.632 10.902 14.362
1089.873 18.872 24.222 29.372 33.342 35.522 36.582 37.132 36.532 34.152 30.512
1109.163 27.192 25.202 24.082 23.232 23.102 22.552 21.292 19.702 16.592 12.702
1128.452 9.512 7.712 6.722 6.112 5.892 5.642 5.442 5.532 5.702 5.352
1147.742 4.942 4.762 4.662 4.692 4.632 4.462 4.662 5.382 5.832 6.232
1167.032 7.212 8.212 8.832 9.312 10.042 10.682 11.042 11.512 11.912 12.062
1186.322 12.282 12.362 12.832 14.352 16.032 18.172 20.962 24.142 28.292 32.992
1205.611 37.882 42.762 48.022 52.442 55.272 56.702 56.122 53.882 50.612 46.812
1224.901 42.352 37.932 34.652 32.052 29.482 27.562 25.882 24.372 23.742 23.802
1244.191 24.262 25.272 27.242 29.812 32.712 35.892 39.302 42.962 46.722 50.962
1263.481 56.032 62.072 69.362 76.802 83.242 87.732 88.712 86.032 80.122 71.322
1282.771 60.442 48.562 36.732 26.172 18.562 14.032 11.412 9.872 8.972 8.512
1302.060 8.072 7.662 7.242 6.782 6.322 5.882 5.472 5.092 4.762 4.412
1321.350 4.152 4.082 3.952 3.762 3.632 3.542 3.562 3.562 3.542 3.562
1340.640 3.602 3.682 3.832 4.042 4.312 4.532 4.802 5.242 5.772 6.422
1359.930 7.242 8.342 9.822 11.662 13.972 16.732 19.982 23.532 26.982 30.172
1379.219 33.052 35.472 37.392 38.752 39.472 39.562 39.232 38.522 37.402 36.122
1398.509 34.812 33.652 32.742 32.262 32.612 34.212 37.382 42.292 49.062 57.612
1417.799 67.562 79.082 91.252 103.532 114.892 123.322 128.042 128.872 125.602 118.652
1437.089 108.912 97.862 85.462 72.042 58.922 47.502 38.692 32.442 27.942 24.562
1456.378 21.722 19.212 17.422 16.002 14.882 13.812 12.702 11.722 10.792 9.902
1475.668 9.082 8.252 7.482 6.792 6.122 5.612 5.232 4.842 4.562 4.392
1494.958 4.262 4.142 4.092 4.042 4.022 4.092 4.092 4.022 4.122 4.252
1514.248 4.372 4.472 4.502 4.572 4.692 4.892 5.142 5.492 6.022 6.732
1533.538 7.782 9.092 10.692 12.952 15.682 18.852 22.812 27.632 33.522 40.942
1552.827 49.912 61.452 75.622 93.852 116.662 141.462 168.302 194.682 217.112 233.802
1572.117 242.692 243.072 234.512 216.742 190.832 161.842 138.492 123.412 114.922 108.842
1591.407 102.282 93.962 83.792 72.032 59.672 47.642 37.202 29.022 23.382 19.872
1610.697 17.722 16.302 15.342 14.492 13.552 12.732 11.942 10.792 9.512 8.342
1629.986 7.222 6.282 5.612 5.042 4.492 4.122 3.902 3.722 3.572 3.372
1649.276 3.162 3.112 3.102 2.962 2.912 2.832 2.712 2.622 2.482 2.302
1668.566 2.182 2.132 2.122 2.112 2.002 2.022 2.122 2.122 2.152 2.152
1687.856 2.132 2.202 2.272 2.352 2.482 2.472 2.622 2.922 3.122 3.342
1707.146 3.622 4.022 4.512 5.052 5.702 6.432 7.212 8.022 8.912 9.762
1726.435 10.432 10.922 11.172 11.132 10.812 10.242 9.602 8.952 8.292 7.832
1745.725 7.632 7.652 7.702 7.742 7.762 7.572 7.202 6.762 6.212 5.552
1765.015 4.852 4.312 3.842 3.402 3.142 2.932 2.782 2.732 2.702 2.612
1784.305 2.532 2.552 2.512 2.452 2.412 2.352 2.252 2.142 2.022 1.972
1803.594 1.972 1.892 1.802 1.722 1.652 1.642 1.622 1.622 1.652 1.622
1822.884 1.582 1.522 1.462 1.422 1.412 1.372 1.342 1.362 1.3022 1.2617
1842.174 1.2003 1.1372 1.0478 1.0028 1.0187 0.9856 0.958 0.955 0.9726 0.9994
1861.464 1.0134 0.9371 0.9257 0.9465 0.897 0.8846 0.9014 0.8642 0.8471 0.8631
1880.754 0.8709 0.8484 0.7998 0.8211 0.8281 0.8099 0.8613 0.9541 0.9803 1.0084
1900.043 1.0988 1.1077 1.0959 1.1214 1.182 1.289 1.2973 1.322 1.412 1.412
1919.333 1.362 1.281 1.2054 1.1829 1.0926 0.9683 0.927 0.8722 0.8481 0.8791
1938.623 0.8537 0.9036 0.9056 0.8581 0.8951 0.9433 0.9566 0.9029 0.9562 1.0241
1957.913 0.9619 0.9453 0.9525 0.9715 0.9666 0.9373 0.9173 0.8418 0.8364 0.8325
1977.202 0.8607 0.8477 0.7791 0.7965 0.793 0.7463 0.7334 0.7471 0.755 0.7416
1996.492 0.7234 0.6841 0.67 0.6795 0.7305 0.7738 0.7899 0.8636 0.8868 0.8422
2015.782 0.7904 0.8267 0.8806 0.8059 0.6738 0.6498 0.6463 0.6249 0.6008 0.5717
2035.072 0.5464 0.4827 0.4897 0.565 0.536 0.518 0.5027 0.5046 0.5242 0.4669
2054.362 0.4884 0.4981 0.5553 0.674 0.6617 0.636 0.6868 0.7556 0.7572 0.74
2073.651 0.7905 0.7706 0.7404 0.7294 0.7265 0.7816 0.7413 0.6831 0.714 0.7042
2092.941 0.6356 0.6182 0.5641 0.5196 0.5106 0.4663 0.4627 0.437 0.41448 0.4439
2112.231 0.41046 0.34468 0.35045 0.36564 0.35625 0.38438 0.39342 0.34751 0.33711 0.2771
2131.521 0.2402 0.2298 0.2465 0.34773 0.36814 0.36653 0.4466 0.41244 0.322767 0.3946
2150.810 0.4343 0.3271 0.2838 0.325356 0.3621 0.39725 0.418 0.4271 0.4656 0.4633
2170.100 0.42059 0.37959 0.36417 0.4702 0.5346 0.5411 0.5679 0.5194 0.5206 0.6254
2189.390 0.7078 0.6959 0.6812 0.7147 0.7341 0.7566 0.7465 0.7739 0.8099 0.7734
2208.680 0.7435 0.7628 0.7965 0.7825 0.7555 0.745 0.6865 0.6241 0.6077 0.5941
2227.970 0.6073 0.5886 0.5538 0.5643 0.5638 0.5395 0.4504 0.36567 0.38601 0.36577
2247.259 0.34772 0.35864 0.301 0.34491 0.3709 0.34337 0.37288 0.4411 0.4673 0.42039
2266.549 0.39022 0.36701 0.33748 0.36878 0.4514 0.36434 0.319 0.39067 0.41646 0.4419
2285.839 0.4899 0.4859 0.4536 0.5287 0.4869 0.40385 0.4878 0.5186 0.4248 0.40675
2305.129 0.443 0.4293 0.4501 0.4659 0.4713 0.495 0.4712 0.4884 0.5905 0.6201
2324.418 0.5854 0.5521 0.6062 0.7056 0.7236 0.7027 0.7378 0.7365 0.6851 0.7151
2343.708 0.8209 0.9005 0.905 0.9076 0.9901 1.1337 1.1502 1.1067 1.1246 1.1088
2362.998 1.0962 1.1446 1.1777 1.1526 1.173 1.2456 1.3134 1.412 1.542 1.702
2382.288 1.782 1.742 1.742 1.772 1.772 1.762 1.682 1.612 1.542 1.502
2401.578 1.452 1.372 1.352 1.2737 1.1084 1.0153 0.9212 0.8101 0.7519 0.6539
2420.867 0.5709 0.5678 0.5604 0.4765 0.40185 0.34936 0.4282 0.5001 0.4503 0.4538
2440.157 0.4678 0.4861 0.4625 0.4432 0.41805 0.34079 0.4325 0.4463 0.35728 0.37979
2459.447 0.42179 0.4466 0.4066 0.4357 0.4369 0.37349 0.35574 0.2679 0.3071 0.4382
2478.737 0.41788 0.41745 0.4762 0.515 0.4469 0.4315 0.4467 0.4251 0.4587 0.4704
2498.026 0.4682 0.4908 0.437 0.35588 0.3876 0.40161 0.37513 0.3024 0.34068 0.35759
2517.316 0.37906 0.4715 0.4779 0.4721 0.4711 0.479 0.469 0.4303 0.381 0.35665
2536.606 0.330147 0.35902 0.4004 0.41559 0.38388 0.4007 0.4441 0.41384 0.36396 0.31983
2555.896 0.2957 0.3077 0.3434 0.330367 0.36784 0.4333 0.41891 0.4399 0.5349 0.5654
2575.186 0.4952 0.4293 0.4599 0.5036 0.4723 0.39296 0.36321 0.40097 0.35898 0.34567
2594.475 0.37788 0.34599 0.35387 0.35707 0.3032 0.2807 0.39445 0.41039 0.31863 0.323875
2613.765 0.2573 0.2793 0.4319 0.4611 0.4671 0.5251 0.5589 0.5694 0.6219 0.5553
2633.055 0.4683 0.4495 0.4883 0.6391 0.7566 0.7871 0.7525 0.7473 0.8179 0.8763
2652.345 0.9102 0.9358 0.9986 1.0941 1.176 1.2125 1.2148 1.1812 1.1447 1.1185
2671.634 1.0838 1.0605 1.0323 0.9936 0.9484 0.852 0.803 0.8024 0.684 0.664
2690.924 0.7184 0.7762 0.8213 0.8791 0.9619 0.8708 0.8783 0.9897 1.0265 1.1242
2710.214 1.2121 1.2766 1.352 1.422 1.532 1.642 1.482 1.362 1.332 1.2618
2729.504 1.2346 1.0646 0.8514 0.6614 0.573 0.6187 0.5555 0.4925 0.5445 0.5184
2748.794 0.41818 0.31683 0.35039 0.39629 0.2946 0.2292 0.323451 0.41421 0.5102 0.5653
2768.083 0.5297 0.5903 0.6528 0.685 0.7019 0.7076 0.7455 0.7184 0.7917 0.9111
2787.373 0.9052 0.8453 0.7977 0.7457 0.7506 0.898 0.9398 0.8831 0.9227 0.9328
2806.663 0.9007 0.9202 0.9336 0.8644 0.7749 0.8211 0.8921 0.8466 0.823 0.8347
2825.953 0.8545 0.8993 0.9438 0.9796 1.0562 1.2228 1.412 1.522 1.542 1.582
2845.242 1.632 1.712 1.872 2.002 2.082 2.142 2.102 2.222 2.362 2.282
2864.532 2.302 2.482 2.432 2.352 2.482 2.602 2.642 2.822 2.972 3.022
2883.822 3.072 3.012 2.932 2.742 2.482 2.302 2.082 1.902 1.732 1.472
2903.112 1.402 1.332 1.1562 1.041 1.0081 0.991 1.0104 1.0102 0.9677 1.0654
2922.401 1.2237 1.472 1.622 1.852 2.372 2.832 3.282 3.782 4.272 4.892
2941.691 5.642 6.192 6.472 6.742 7.052 7.422 7.632 7.832 8.422 9.232
2960.981 10.412 11.732 13.062 14.422 15.522 16.142 16.122 15.702 14.642 12.812
2980.271 11.162 9.962 8.692 7.822 7.282 6.922 6.812 6.692 6.632 6.652
2999.561 6.652 6.742 6.832 6.652 6.522 6.352 5.932 5.572 5.062 4.342
3018.850 3.742 3.282 2.912 2.592 2.292 2.102 1.992 1.842 1.642 1.592
3038.140 1.662 1.632 1.592 1.632 1.562 1.632 1.732 1.772 1.922 1.922
3057.430 1.892 2.072 2.342 2.472 2.482 2.572 2.592 2.502 2.372 2.232
3076.720 2.152 2.002 1.902 1.872 1.992 1.962 1.812 1.802 1.702 1.572
3096.009 1.332 1.0782 0.9229 0.8394 0.798 0.7695 0.729 0.6545 0.6313 0.6081
3115.299 0.559 0.4795 0.4445 0.475 0.5355 0.5407 0.5506 0.5584 0.5042 0.4584
3134.589 0.4864 0.4716 0.4588 0.4797 0.34002 0.31345 0.36431 0.4361 0.4614 0.39432
3153.879 0.4355 0.5149 0.5798 0.39399 0.37635 0.5251 0.38867 0.2542 0.330188 0.35201
3173.169 0.429 0.5798 0.5118 0.4687 0.4565 0.289 0.2239 0.3035 0.265 0.193
3192.458 0.157 0.198 0.216 0.2472 0.41174 0.325892 0.198 0.182 0.205 0.39118
3211.748 0.4247 0.39891 0.33269 0.2432 0.2749 0.3088 0.33827 0.2726 0.219 0.211
3231.038 0.203 0.152 0.121 0.184 0.2638 0.3107 0.2758 0.2482 0.2412 0.2454
3250.328 0.2414 0.184 0.018 0.067 0.2424 0.15 0.1 0.106 0.088 0.171
3269.617 0.216 0.2673 0.322024 0.324049 0.2919 0.308 0.2748 0.162 0.164 0.157
3288.907 0.159 0.197 0.141 0.089 0.151 0.2303 0.2505 0.2302 0.171 0.2701
3308.197 0.2717 0.17 0.34437 0.328651 0.2985 0.36275 0.3009 0.2531 0.2419 0.2448
3327.487 0.184 0.191 0.151 0.196 0.169 0.026 0 0.112 0.2284 0.2337
3346.777 0.219 0.081 0.131 0.31307 0.3096 0.2245 0.213 0.214 0.113 0.025
3366.066 0.027 0.098 0.2685 0.3093 0.092 0.071 0.232 0.169 0.092 0.088
3385.356 0.136 0.101 0.101 0.211 0.33675 0.35583 0.2294 0.2434 0.322803 0.3345
3404.646 0.146 0.185 0.2886 0.127 0.12 0.15 0.111 0.085 0.148 0.171
3423.936 0.061 0.143 0.26 0.236 0.2968 0.328723 0.3008 0.3021 0.205 0.191
3443.225 0.2764 0.2551 0.251 0.321462 0.2522 0.149 0.2849 0.287 0.119 0.005
3462.515 0.036 0.208 0.33785 0.40175 0.2952 0.2953 0.33592 0.32235 0.31469 0.2937
3481.805 0.35807 0.33696 0.2494 0.221 0.31914 0.38046 0.36989 0.38343 0.44 0.5534
3501.095 0.5856 0.6335 0.5271 0.35886 0.4436 0.4547 0.4838 0.5028 0.2272 0.126
3520.385 0.2657 0.3926 0.41813 0.292 0.35756 0.39905 0.38675 0.4521 0.2411 0.148
3539.674 0.3101 0.31633 0.2947 0.2873 0.2668 0.2831 0.3027 0.2684 0.2757 0.32024
3558.964 0.33442 0.2737 0.2882 0.2592 0.2426 0.3023 0.32047 0.2368 0.198 0.33992
3578.254 0.33282 0.2569 0.196 0.191 0.202 0.211 0.3047 0.39376 0.36971 0.38121
3597.544 0.4322 0.38836 0.36515 0.2991 0.2515 0.33318 0.4757 0.4624 0.35764 0.2332
3616.833 0.094 0.2507 0.325536 0.31759 0.2745 0.3043 0.4281 0.2648 0.2714 0.4312
3636.123 0.2867 0.202 0.216 0.209 0.307 0.3125 0.34228 0.4416 0.35458 0.2918
3655.413 0.37847 0.329484 0.2394 0.2781 0.2929 0.215 0.191 0.2532 0.38551 0.41163
3674.703 0.34735 0.33892 0.36369 0.38118 0.2785 0.182 0.2566 0.40214 0.4993 0.438
3693.993 0.34389 0.2778 0.209 0.2541 0.37534 0.40355 0.3119 0.185 0.199 0.4369
3713.282 0.327487 0.123 0.2275 0.35257 0.39142 0.2529 0.139 0.2951 0.331249 0.3379
3732.572 0.521 0.5037 0.4656 0.4446 0.4591 0.4533 0.37093 0.42177 0.4603 0.4463
3751.862 0.5301 0.41848 0.2931 0.3008 0.33903 0.34785 0.2629 0.2907 0.3538 0.37641
3771.152 0.321138 0.2612 0.2455 0.3089 0.331182 0.201 0.258 0.3035 0.2989 0.37312
3790.441 0.3816 0.2971 0.076 0.2231 0.37846 0.35763 0.34963 0.35972 0.40144 0.2666
3809.731 0.2997 0.323535 0.22 0.2947 0.4059 0.40859 0.35601 0.40839 0.4989 0.4415
3829.021 0.2818 0.2585 0.209 0.159 0.34845 0.2527 0.2412 0.37221 0.327326 0.4318
3848.311 0.5172 0.5786 0.6541 0.5564 0.433 0.4861 0.4796 0.41497 0.4992 0.6331
3867.601 0.7861 0.719 0.6948 0.7651 0.7496 0.8144 0.7612 0.7863 0.74 0.662
3886.890 0.6496 0.601 0.6606 0.568 0.5394 0.6585 0.6065 0.4737 0.561 0.6297
3906.180 0.34794 0.215 0.329976 0.35204 0.31759 0.2449 0.2616 0.4227 0.5882 0.5281
3925.470 0.36106 0.4863 0.5377 0.41947 0.2841 0.2552 0.4495 0.5133 0.3028 0.2569
3944.760 0.2599 0.2511 0.2673 0.2315 0.32792 0.34477 0.35677 0.37831 0.4246 0.37638
3964.049 0.3012 0.322024 0.2522 0.35844 0.4343 0.32071 0.37529 0.39066 0.31436 0.311
3983.339 0.39447 0.4692 0.6157 0.6405 0.4956 0.5486 0.629 0.6365 0.7009 0.7492
##END=
