##TITLE=trans-Bicyclo[4.3.0]nonane
##JCAMP-DX=4.24
##DATA TYPE=INFRARED SPECTRUM
##ORIGIN=NIST Mass Spectrometry Data Center
##OWNER=NIST Standard Reference Data Program
Collection (C) 2018 copyright by the U.S. Secretary of Commerce
on behalf of the United States of America. All rights reserved.
##CAS REGISTRY NO=3296-50-2
##MOLFORM=C 9 H 16
##$NIST SOURCE=MSDC-IR
##SPECTROMETER/DATA SYSTEM=HP-GC/MS/IRD
##STATE=gas
##XUNITS=1/CM
##YUNITS=ABSORBANCE
##XFACTOR=1.0
##YFACTOR=0.000002300
##DELTAX=4.0
##FIRSTX=550.0
##LASTX=3846.0
##FIRSTY=0.000690
##MAXX=3846
##MINX=550
##MAXY=0.023
##MINY=0
##NPOINTS=825
##XYDATA=(X++(Y..Y))
550.0 300 131 3 28 8 11 16 26 31 15
590.0 34 49 72 100 114 131 124 97 90 88
630.0 85 100 111 129 107 98 123 133 123 87
670.0 96 106 98 97 105 112 111 111 122 114
710.0 104 132 159 149 132 154 156 130 123 119
750.0 117 130 133 146 150 154 153 163 168 150
790.0 173 168 148 143 134 149 168 145 107 142
830.0 200 226 247 256 238 208 197 197 200 206
870.0 207 201 198 204 216 222 220 220 200 194
910.0 217 210 205 211 190 194 194 177 180 192
950.0 192 187 190 208 226 226 225 230 242 243
990.0 233 218 206 203 197 197 198 203 200 194
1030.0 199 220 240 246 240 240 241 244 243 243
1070.0 253 262 270 286 283 277 270 270 282 280
1110.0 272 276 273 259 272 277 273 274 272 271
1150.0 267 279 279 273 282 305 305 296 294 283
1190.0 275 272 281 289 287 267 258 266 271 290
1230.0 307 311 316 325 340 352 363 363 351 333
1270.0 326 334 341 361 363 371 393 401 409 413
1310.0 411 382 350 362 362 362 341 266 291 346
1350.0 339 327 287 238 284 296 263 288 303 252
1390.0 244 228 232 304 322 334 294 210 273 376
1430.0 435 437 526 728 858 969 836 728 795 746
1470.0 594 432 432 429 328 261 268 252 230 61
1510.0 38 156 118 93 174 221 200 108 65 160
1550.0 216 149 32 165 281 261 241 242 304 308
1590.0 308 305 314 310 291 282 242 215 231 240
1630.0 250 185 189 207 153 65 39 168 208 182
1670.0 144 131 150 67 57 169 110 6 48 137
1710.0 176 94 49 164 204 107 28 103 151 128
1750.0 89 129 160 156 130 91 135 171 149 152
1790.0 128 138 158 133 177 186 179 177 163 145
1830.0 154 176 182 135 120 167 186 177 176 151
1870.0 140 178 179 174 170 160 162 165 179 172
1910.0 161 151 138 144 160 168 171 159 143 153
1950.0 164 155 153 158 147 144 155 152 145 137
1990.0 122 126 141 144 143 143 132 126 133 133
2030.0 130 127 126 125 127 127 127 121 115 119
2070.0 117 110 112 111 109 105 104 106 109 113
2110.0 107 104 109 108 103 99 103 107 100 93
2150.0 96 98 97 92 95 91 83 80 83 85
2190.0 86 78 75 76 72 69 75 77 73 68
2230.0 65 61 61 68 60 57 59 54 56 60
2270.0 65 66 61 51 39 31 27 26 20 17
2310.0 10 5 4 4 4 4 4 4 8 5
2350.0 4 4 4 4 4 4 5 17 30 39
2390.0 46 44 45 46 40 43 43 45 46 44
2430.0 44 36 38 39 43 43 42 43 46 47
2470.0 45 47 44 39 43 50 50 58 63 64
2510.0 60 58 62 62 58 62 70 69 71 72
2550.0 64 62 73 81 74 76 89 88 83 86
2590.0 93 102 108 109 102 99 108 122 131 133
2630.0 142 150 149 154 157 160 164 167 169 164
2670.0 155 147 148 139 129 129 132 135 139 143
2710.0 148 147 144 143 146 153 148 140 141 146
2750.0 150 159 165 167 178 191 199 201 218 235
2790.0 241 251 257 269 285 301 321 346 389 473
2830.0 596 770 1055 1484 2041 2689 3390 4117 4577 4591
2870.0 4410 4118 3649 3110 2645 2320 2187 2309 2745 3439
2910.0 4285 5298 6442 7742 9166 10000 9728 9221 8753 7980
2950.0 7042 6196 5825 4981 3725 2912 2207 1534 1006 667
2990.0 488 410 363 336 309 296 289 278 275 272
3030.0 260 244 248 251 242 237 231 227 225 213
3070.0 198 188 169 161 162 150 158 162 146 147
3110.0 158 152 146 147 149 142 131 138 141 135
3150.0 123 122 133 124 116 126 123 113 113 112
3190.0 121 123 124 125 115 116 123 119 124 130
3230.0 130 136 145 149 158 158 143 144 143 136
3270.0 131 125 120 122 128 122 126 126 117 124
3310.0 125 128 129 120 117 122 124 139 136 127
3350.0 132 135 124 123 131 137 145 147 144 143
3390.0 143 144 145 155 159 157 162 159 153 147
3430.0 139 130 129 135 133 139 141 132 136 147
3470.0 160 171 154 144 158 161 166 147 111 130
3510.0 151 166 162 124 108 148 148 142 115 81
3550.0 122 150 155 120 28 60 147 149 135 60
3590.0 57 110 135 151 95 53 61 41 99 57
3630.0 0 123 172 170 68 7 92 142 179 147
3670.0 65 32 88 154 115 90 153 174 171 156
3710.0 87 94 134 98 98 95 9 37 15 4
3750.0 11 88 164 187 190 194 220 211 199 212
3790.0 224 203 158 122 138 174 143 103 131 172
3830.0 178 120 93 142 200
##END=
