##TITLE=4-Fluorodiphenyl ether
##JCAMP-DX=4.24
##DATA TYPE=INFRARED SPECTRUM
##ORIGIN=EPA-IR VAPOR PHASE LIBRARY
##OWNER=SRD/NIST
Collection (C) 2018 copyright by the U.S. Secretary of Commerce
on behalf of the United States of America. All rights reserved.
##CAS REGISTRY NO=330-84-7
##MOLFORM=C 12 H 9 F O
##$NIST SOURCE=MSDC-IR
##STATE=gas
##XUNITS=1/CM
##YUNITS=ABSORBANCE
##XFACTOR=1.
##YFACTOR=0.001
##DELTAX=1.92898
##FIRSTX=549.8
##LASTX=4000.7
##FIRSTY=2.005
##MAXX=4000.7
##MINX=549.759
##MAXY=0.326585
##MINY=0
##NPOINTS=1790
##XYDATA=(X++(Y..Y))
549.759 2.005 1.945 1.715 1.615 1.5046 1.1641 1.1219 1.3276 1.5111 1.2681
569.049 1.1742 1.4226 1.575 1.735 1.955 2.125 2.345 2.345 2.505 2.725
588.339 2.805 3.145 3.145 2.925 2.955 2.995 2.755 2.665 2.505 2.285
607.628 2.315 2.255 2.195 2.185 1.965 1.825 1.705 1.655 1.945 2.045
626.918 1.965 1.885 1.795 1.815 1.865 1.965 1.795 1.5254 1.935 2.165
646.208 2.215 2.585 2.725 2.755 3.025 3.455 3.885 4.145 4.265 4.565
665.498 5.065 5.695 6.555 7.585 8.865 10.375 12.245 14.295 16.445 18.825
684.787 20.955 22.565 23.775 24.475 24.665 24.265 23.075 21.645 20.055 18.265
704.077 16.535 14.855 13.445 12.265 11.125 10.245 9.745 9.735 10.255 10.655
723.367 11.025 11.755 12.715 13.875 15.195 16.155 16.915 17.745 18.525 19.235
742.657 19.955 20.705 21.345 22.055 23.115 24.185 25.075 26.015 27.005 28.345
761.947 29.885 30.925 31.665 32.165 32.345 32.115 31.405 30.335 29.175 27.745
781.236 25.945 24.145 22.295 20.635 19.465 18.655 18.285 18.515 19.315 20.825
800.526 23.105 25.955 28.755 31.065 32.705 33.335 33.365 32.955 31.785 30.505
819.816 29.565 29.325 29.845 30.775 32.185 34.255 36.835 39.705 42.715 45.435
839.106 47.365 48.435 49.055 48.575 46.665 43.895 40.615 37.195 33.675 30.425
858.395 27.885 26.275 25.855 27.035 29.785 32.885 34.765 34.965 33.965 31.675
877.685 27.905 23.115 18.145 14.105 11.355 9.635 8.565 7.835 7.335 6.925
896.975 6.375 6.015 5.995 5.725 5.335 5.145 4.905 4.645 4.305 3.885
916.265 3.565 3.135 2.695 2.665 2.515 2.275 2.355 2.225 2.025 1.855
935.555 1.905 2.045 1.945 1.755 1.625 1.555 1.5348 1.555 1.595 1.665
954.844 1.595 1.585 1.705 1.835 1.865 1.825 1.705 1.695 1.805 1.965
974.134 2.195 2.165 1.975 1.975 2.045 2.105 2.015 1.865 2.015 2.245
993.424 2.245 2.205 2.465 2.865 3.505 4.545 5.855 6.935 7.415 7.645
1012.714 7.945 8.515 9.065 9.255 9.345 8.945 8.195 7.625 6.555 4.855
1032.003 3.475 2.575 1.905 1.695 1.765 1.815 1.825 1.975 2.085 2.225
1051.293 2.565 2.895 3.525 4.115 4.625 5.255 5.955 6.535 6.925 7.585
1070.583 8.265 8.645 8.875 9.285 9.775 10.425 10.985 11.015 11.305 11.755
1089.873 11.465 10.895 10.145 9.255 8.315 7.585 6.945 6.095 5.255 4.815
1109.163 4.635 4.085 3.365 3.195 3.205 3.215 3.345 3.055 3.015 3.125
1128.452 3.305 3.525 3.675 4.025 4.775 6.055 7.805 10.015 12.245 13.985
1147.742 15.295 17.165 18.555 18.895 19.485 20.775 21.805 22.195 22.665 22.835
1167.032 22.185 21.505 21.145 21.535 23.325 25.925 29.345 33.485 38.315 43.695
1186.322 49.115 54.535 59.865 64.965 70.105 76.035 84.055 95.405 111.015 132.125
1205.611 159.315 189.845 219.845 246.965 270.465 290.595 308.235 321.385 326.585 321.205
1224.901 306.165 284.445 255.295 218.305 176.965 138.985 110.525 92.925 84.955 84.475
1244.191 89.185 96.795 104.575 110.405 112.485 110.445 104.925 96.075 84.785 72.865
1263.481 62.655 55.015 49.545 45.515 42.185 39.185 36.565 34.125 31.735 29.865
1282.771 28.045 26.285 24.765 23.295 21.865 20.395 19.085 17.865 16.635 15.455
1302.060 14.465 13.705 12.955 12.355 11.995 11.585 11.195 10.795 10.415 10.075
1321.350 9.655 9.295 9.035 8.815 8.495 8.155 7.805 7.325 6.855 6.305
1340.640 5.685 5.145 4.665 4.225 3.885 3.655 3.495 3.305 3.165 3.145
1359.930 3.125 3.095 3.095 3.145 3.185 3.195 3.165 3.155 3.165 3.135
1379.219 3.065 3.035 3.035 3.055 3.105 3.085 3.135 3.235 3.315 3.405
1398.509 3.495 3.615 3.715 3.925 4.185 4.505 5.015 5.585 6.305 7.345
1417.799 8.525 9.695 10.725 11.495 11.965 12.045 11.725 11.195 10.515 9.765
1437.089 9.245 9.015 9.075 9.425 9.925 10.495 11.105 11.805 12.545 13.315
1456.378 14.205 15.245 16.525 18.175 20.405 23.365 27.245 32.575 40.005 50.495
1475.668 65.445 87.025 116.715 154.655 197.475 237.375 265.845 280.855 286.955 287.235
1494.958 282.445 277.245 279.165 287.025 290.825 284.255 267.555 240.965 202.355 155.735
1514.248 113.525 83.215 63.635 51.115 42.535 36.525 32.145 28.815 26.225 24.155
1533.538 22.445 20.895 19.545 18.275 16.915 15.635 14.465 13.305 12.305 11.575
1552.827 10.995 10.585 10.425 10.455 10.735 11.215 11.925 13.005 14.435 16.255
1572.117 18.405 21.005 24.225 27.895 32.055 36.535 41.135 45.665 49.535 52.285
1591.407 53.405 52.695 50.275 46.455 41.755 36.635 31.625 27.265 23.655 20.545
1610.697 17.955 15.825 14.085 12.595 11.315 10.295 9.445 8.785 8.175 7.595
1629.986 7.195 6.875 6.525 6.215 5.935 5.725 5.495 5.295 5.055 4.785
1649.276 4.545 4.375 4.195 3.855 3.585 3.485 3.405 3.235 3.055 2.925
1668.566 2.795 2.715 2.695 2.605 2.465 2.395 2.365 2.385 2.345 2.355
1687.856 2.425 2.405 2.375 2.405 2.415 2.415 2.465 2.525 2.555 2.555
1707.146 2.645 2.715 2.735 2.765 2.725 2.805 2.925 2.955 2.975 3.085
1726.435 3.235 3.325 3.425 3.525 3.605 3.565 3.425 3.355 3.185 2.985
1745.725 2.745 2.515 2.455 2.335 2.195 2.205 2.275 2.365 2.545 2.705
1765.015 2.845 3.075 3.325 3.505 3.555 3.555 3.445 3.265 3.015 2.705
1784.305 2.455 2.265 2.125 2.045 1.985 1.865 1.765 1.715 1.705 1.705
1803.594 1.655 1.625 1.625 1.635 1.685 1.675 1.695 1.745 1.735 1.795
1822.884 1.845 1.835 1.885 1.925 2.015 2.195 2.355 2.545 2.705 2.905
1842.174 3.145 3.435 3.805 4.145 4.465 4.795 5.115 5.415 5.715 5.975
1861.464 6.115 6.225 6.225 6.105 5.955 5.675 5.345 4.935 4.525 4.185
1880.754 3.825 3.405 3.015 2.685 2.435 2.255 2.055 1.895 1.885 1.895
1900.043 1.895 1.925 1.955 2.045 2.185 2.295 2.415 2.545 2.755 2.935
1919.333 3.035 3.205 3.355 3.465 3.585 3.605 3.575 3.575 3.595 3.575
1938.623 3.595 3.625 3.585 3.605 3.645 3.645 3.565 3.465 3.385 3.285
1957.913 3.255 3.235 3.155 3.155 3.155 3.135 3.145 3.155 3.205 3.285
1977.202 3.305 3.285 3.315 3.325 3.325 3.285 3.275 3.255 3.215 3.215
1996.492 3.135 3.055 3.035 3.055 3.045 3.015 2.985 2.955 2.995 3.085
2015.782 3.175 3.285 3.375 3.435 3.545 3.605 3.675 3.755 3.755 3.725
2035.072 3.655 3.595 3.515 3.435 3.275 3.215 3.185 3.075 3.035 3.065
2054.362 3.085 3.115 3.145 3.145 3.125 3.025 2.945 2.895 2.745 2.525
2073.651 2.265 2.105 1.995 1.855 1.705 1.605 1.545 1.478 1.3995 1.3482
2092.941 1.3637 1.3488 1.3535 1.3723 1.3245 1.2847 1.2392 1.2038 1.1869 1.1301
2112.231 1.0511 0.9701 0.9101 0.9009 0.8598 0.8762 0.8891 0.8699 0.8915 0.8944
2131.521 0.8092 0.7512 0.7993 0.7962 0.7768 0.7738 0.7176 0.7027 0.7595 0.7299
2150.810 0.7095 0.7367 0.762 0.7945 0.7893 0.7314 0.7084 0.7448 0.7715 0.7536
2170.100 0.7452 0.7892 0.8017 0.7905 0.7894 0.8 0.7731 0.751 0.7916 0.7661
2189.390 0.739 0.7582 0.7491 0.7761 0.7808 0.743 0.7219 0.7173 0.7606 0.7709
2208.680 0.7354 0.7467 0.7727 0.7844 0.8056 0.8432 0.8938 0.9378 1.0264 1.0872
2227.970 1.0777 1.1041 1.0981 1.0991 1.1705 1.138 1.0758 1.1006 1.0922 1.0452
2247.259 0.9798 0.9233 0.856 0.8321 0.8725 0.8006 0.803 0.8183 0.7061 0.6781
2266.549 0.7187 0.73 0.7177 0.7223 0.7459 0.7545 0.6856 0.6432 0.7917 0.8892
2285.839 0.908 0.9506 0.9768 1.0883 1.1904 1.2867 1.4086 1.5128 1.625 1.695
2305.129 1.705 1.705 1.795 1.855 1.815 1.765 1.805 1.815 1.855 1.945
2324.418 1.905 1.815 1.805 1.835 1.855 1.775 1.675 1.695 1.675 1.625
2343.708 1.605 1.595 1.575 1.635 1.695 1.725 1.715 1.735 1.915 2.045
2362.998 2.075 2.155 2.245 2.345 2.405 2.485 2.555 2.535 2.475 2.415
2382.288 2.355 2.225 2.155 2.145 2.125 2.095 2.075 2.135 2.205 2.295
2401.578 2.455 2.625 2.705 2.885 2.995 2.985 3.165 3.295 3.315 3.405
2420.867 3.525 3.665 3.715 3.795 3.945 4.065 4.155 4.245 4.355 4.335
2440.157 4.285 4.155 3.985 3.795 3.535 3.275 3.035 2.855 2.735 2.645
2459.447 2.495 2.345 2.205 2.125 2.085 2.055 2.015 1.925 1.875 1.835
2478.737 1.715 1.695 1.635 1.545 1.4161 1.29 1.3123 1.2846 1.2578 1.2458
2498.026 1.1324 1.0852 1.0226 0.9771 1.0178 1.0727 1.0673 1.0316 1.0516 1.0291
2517.316 0.9989 0.9358 0.8793 0.8597 0.8868 0.9179 0.8963 0.8345 0.7998 0.8937
2536.606 0.9735 0.9597 0.9915 1.0281 1.1023 1.16 1.1646 1.192 1.2082 1.1998
2555.896 1.2128 1.3062 1.3085 1.2508 1.2524 1.2342 1.1998 1.1575 1.0951 1.001
2575.186 0.9504 0.9388 0.8538 0.7594 0.6586 0.6306 0.6616 0.6737 0.7112 0.7231
2594.475 0.6632 0.59127 0.59391 0.6395 0.61242 0.61879 0.6556 0.56963 0.55332 0.6792
2613.765 0.6498 0.55229 0.60358 0.6509 0.60431 0.56889 0.56467 0.55534 0.58501 0.59074
2633.055 0.52837 0.541924 0.6769 0.6729 0.6685 0.6388 0.62533 0.62716 0.5094 0.56241
2652.345 0.60976 0.5177 0.4661 0.5147 0.5206 0.55235 0.55031 0.5037 0.5144 0.5119
2671.634 0.57881 0.58984 0.517 0.539807 0.56541 0.4673 0.4499 0.541246 0.6396 0.668
2690.924 0.61932 0.6456 0.6595 0.60218 0.506 0.5222 0.7007 0.7729 0.6736 0.60496
2710.214 0.60259 0.6388 0.62798 0.59113 0.5537 0.5135 0.5296 0.59589 0.61799 0.52765
2729.504 0.4962 0.53217 0.59306 0.59068 0.58601 0.62596 0.7205 0.7703 0.7893 0.813
2748.794 0.7137 0.7333 0.891 0.9472 0.8656 0.8392 0.7728 0.726 0.7667 0.7345
2768.083 0.6913 0.719 0.7116 0.7112 0.6569 0.535029 0.6641 0.7276 0.7372 0.7263
2787.373 0.6358 0.6545 0.6634 0.59494 0.54688 0.56827 0.61935 0.6916 0.664 0.6438
2806.663 0.61597 0.61572 0.59878 0.5566 0.61058 0.7023 0.725 0.7001 0.6778 0.6654
2825.953 0.697 0.7266 0.6549 0.61348 0.7479 0.8873 0.8899 0.8543 0.9079 0.9463
2845.242 0.9757 0.9564 0.9124 0.997 1.1526 1.1315 1.102 1.1369 1.2331 1.279
2864.532 1.2529 1.2902 1.2019 1.1216 1.1434 1.1673 1.0794 0.9971 1.0494 1.0353
2883.822 0.927 0.874 0.8288 0.8216 0.8018 0.8362 0.9314 0.9229 0.8271 0.6908
2903.112 0.62983 0.7154 0.727 0.7461 0.7719 0.6472 0.544141 0.53218 0.56335 0.57378
2922.401 0.54846 0.537693 0.4833 0.429 0.4585 0.4851 0.5076 0.4942 0.54802 0.52845
2941.691 0.4498 0.4573 0.492 0.501 0.384 0.411 0.55571 0.502 0.355 0.42
2960.981 0.4656 0.403 0.4918 0.59187 0.59874 0.56904 0.540931 0.428 0.344 0.4647
2980.271 0.4659 0.4444 0.43 0.425 0.6752 0.8781 1.0151 1.0599 1.076 1.1866
2999.561 1.3215 1.555 1.785 2.065 2.535 2.925 3.315 3.705 4.025 4.385
3018.850 4.815 5.215 5.645 6.115 6.555 7.135 7.915 8.845 9.965 11.135
3038.140 12.335 13.665 14.905 15.895 16.795 17.555 18.085 18.345 18.335 18.135
3057.430 17.855 17.485 17.015 16.695 16.385 16.235 16.635 17.465 18.585 19.845
3076.720 21.015 21.555 21.405 20.895 19.845 18.325 16.555 14.825 13.405 12.615
3096.009 11.945 11.215 10.625 9.845 9.045 8.315 7.495 6.545 5.785 5.145
3115.299 4.495 3.895 3.395 2.955 2.615 2.165 1.775 1.785 1.735 1.5135
3134.589 1.3401 1.1288 1.0094 1.0205 0.9264 0.7642 0.7462 0.7793 0.7242 0.6367
3153.879 0.60157 0.63202 0.6581 0.535877 0.405 0.393 0.299 0.41 0.6534 0.7365
3173.169 0.6871 0.6821 0.7151 0.6397 0.5171 0.41 0.55936 0.62128 0.5112 0.52897
3192.458 0.5008 0.413 0.376 0.304 0.325 0.417 0.4881 0.4872 0.286 0.276
3211.748 0.331 0.223 0.277 0.262 0.21 0.337 0.309 0.216 0.314 0.344
3231.038 0.264 0.162 0.106 0.208 0.172 0.24 0.24 0.162 0.264 0.231
3250.328 0.2 0.253 0.279 0.256 0.284 0.396 0.335 0.211 0.231 0.19
3269.617 0.176 0.17 0.23 0.352 0.319 0.15 0.141 0.283 0.352 0.37
3288.907 0.285 0.174 0.14 0.128 0.031 0.066 0.154 0.195 0.212 0.087
3308.197 0.107 0.168 0.244 0.264 0.254 0.147 0.042 0.226 0.267 0.281
3327.487 0.344 0.38 0.347 0.311 0.4683 0.356 0.148 0.223 0.279 0.338
3346.777 0.322 0.235 0.265 0.175 0.205 0.354 0.296 0.19 0.161 0.139
3366.066 0.172 0.281 0.163 0.065 0.17 0.25 0.168 0.163 0.26 0.243
3385.356 0.269 0.219 0.373 0.326 0.276 0.5155 0.4431 0.392 0.293 0.255
3404.646 0.377 0.318 0.213 0.099 0.195 0.241 0.252 0.41 0.326 0.228
3423.936 0.171 0.095 0.093 0.134 0.138 0.118 0.026 0 0.208 0.314
3443.225 0.179 0.091 0.04 0.016 0.033 0.114 0.155 0.217 0.311 0.192
3462.515 0.07 0.001 0.107 0.134 0.123 0.292 0.252 0.201 0.281 0.37
3481.805 0.281 0.143 0.252 0.327 0.267 0.232 0.201 0.137 0.171 0.342
3501.095 0.444 0.371 0.281 0.28 0.211 0.211 0.152 0.149 0.402 0.4467
3520.385 0.367 0.387 0.359 0.281 0.26 0.234 0.221 0.315 0.248 0.129
3539.674 0.155 0.304 0.346 0.213 0.107 0.154 0.344 0.275 0.085 0.129
3558.964 0.27 0.362 0.52808 0.52974 0.256 0.309 0.434 0.368 0.367 0.4625
3578.254 0.426 0.31 0.371 0.352 0.272 0.403 0.4765 0.365 0.397 0.4394
3597.544 0.302 0.246 0.315 0.385 0.316 0.4497 0.52799 0.386 0.389 0.4712
3616.833 0.56247 0.4692 0.4698 0.5181 0.4597 0.426 0.425 0.366 0.4889 0.409
3636.123 0.306 0.4585 0.355 0.248 0.231 0.23 0.368 0.4824 0.4686 0.4454
3655.413 0.381 0.5034 0.5168 0.351 0.4836 0.4894 0.338 0.33 0.378 0.4695
3674.703 0.4461 0.409 0.4987 0.5211 0.4739 0.4911 0.60217 0.7445 0.6626 0.55013
3693.993 0.54589 0.413 0.4398 0.5216 0.5715 0.5242 0.434 0.5056 0.52705 0.55068
3713.282 0.506 0.4595 0.49 0.59987 0.6362 0.4533 0.369 0.5042 0.5081 0.418
3732.572 0.332 0.312 0.352 0.292 0.353 0.289 0.276 0.417 0.426 0.33
3751.862 0.202 0.272 0.335 0.346 0.427 0.355 0.38 0.4858 0.389 0.293
3771.152 0.192 0.219 0.289 0.274 0.211 0.165 0.198 0.212 0.202 0.254
3790.441 0.324 0.28 0.275 0.319 0.39 0.432 0.397 0.404 0.293 0.205
3809.731 0.351 0.5136 0.429 0.225 0.294 0.4379 0.44 0.347 0.234 0.286
3829.021 0.425 0.4555 0.416 0.4681 0.42 0.287 0.229 0.27 0.289 0.216
3848.311 0.206 0.268 0.354 0.223 0.264 0.333 0.343 0.388 0.181 0.089
3867.601 0.308 0.427 0.425 0.406 0.278 0.252 0.386 0.346 0.328 0.402
3886.890 0.352 0.5002 0.52624 0.4777 0.4874 0.431 0.361 0.376 0.42 0.4705
3906.180 0.4576 0.5108 0.521 0.244 0.172 0.234 0.285 0.371 0.333 0.322
3925.470 0.4972 0.6364 0.60515 0.4892 0.36 0.401 0.4835 0.4374 0.406 0.5113
3944.760 0.58697 0.507 0.308 0.222 0.5102 0.6399 0.4642 0.4476 0.4673 0.354
3964.049 0.249 0.2 0.356 0.348 0.17 0.192 0.291 0.395 0.429 0.367
3983.339 0.337 0.339 0.4803 0.5114 0.355 0.332 0.398 0.4526 0.392 0.458
##END=
