##TITLE=4,4'-Bis(fluorophenyl)ether
##JCAMP-DX=4.24
##DATA TYPE=INFRARED SPECTRUM
##ORIGIN=EPA-IR VAPOR PHASE LIBRARY
##OWNER=SRD/NIST
Collection (C) 2018 copyright by the U.S. Secretary of Commerce
on behalf of the United States of America. All rights reserved.
##CAS REGISTRY NO=330-93-8
##MOLFORM=C 12 H 8 F 2 O
##$NIST SOURCE=MSDC-IR
##STATE=gas
##XUNITS=1/CM
##YUNITS=ABSORBANCE
##XFACTOR=1.
##YFACTOR=0.001
##DELTAX=1.92898
##FIRSTX=549.8
##LASTX=4000.7
##FIRSTY=4.875
##MAXX=4000.7
##MINX=549.759
##MAXY=0.943975
##MINY=0
##NPOINTS=1790
##XYDATA=(X++(Y..Y))
549.759 4.875 5.585 5.805 6.705 8.135 10.175 12.015 13.275 14.645 15.815
569.049 16.775 16.745 16.075 15.675 14.955 14.035 12.775 11.505 10.235 8.295
588.339 7.135 6.365 5.365 4.555 3.585 3.115 2.545 2.285 2.085 2.005
607.628 2.305 2.105 2.325 2.645 2.635 2.505 2.445 2.975 3.365 3.755
626.918 3.785 3.825 4.075 4.065 4.365 4.475 4.105 3.745 3.565 3.395
646.208 3.135 3.195 3.275 2.785 2.845 2.975 2.895 3.205 3.385 3.275
665.498 3.255 3.495 4.105 4.645 4.885 5.215 5.565 5.905 6.245 6.755
684.787 7.195 7.715 8.425 8.925 9.035 9.155 9.095 8.495 8.095 7.475
704.077 6.705 6.035 5.365 4.935 4.655 4.275 4.135 4.025 3.825 3.685
723.367 3.415 3.205 3.095 3.525 3.465 3.135 3.415 3.655 3.805 4.055
742.657 4.255 4.385 4.805 5.125 4.995 4.795 5.045 5.425 5.665 6.285
761.947 7.215 8.185 9.305 11.345 14.705 20.565 31.095 49.545 79.265 117.095
781.236 150.045 164.835 163.595 153.475 129.475 92.955 60.255 40.515 30.705 26.145
800.526 24.325 23.775 24.245 26.095 29.055 33.295 39.105 46.695 56.085 66.545
819.816 77.675 89.255 100.745 111.725 121.435 128.615 131.705 131.475 129.395 124.905
839.106 118.385 110.795 102.915 95.155 88.315 82.465 76.525 70.295 63.775 57.495
858.395 51.895 46.635 41.945 38.365 36.295 35.975 37.605 41.565 45.735 47.405
877.685 46.225 42.825 37.425 30.215 22.725 16.985 13.505 11.375 9.685 8.325
896.975 7.355 6.785 6.385 5.805 5.535 5.215 4.755 4.535 4.175 3.905
916.265 3.915 3.615 3.315 3.225 3.015 3.095 2.945 2.555 2.425 2.345
935.555 2.255 2.225 2.205 2.035 1.755 1.645 1.755 1.825 1.895 1.765
954.844 1.565 1.435 1.4367 1.4724 1.2952 1.3004 1.4247 1.4731 1.4167 1.0116
974.134 0.8565 1.083 1.575 1.735 1.565 1.695 2.105 2.205 2.195 2.315
993.424 2.495 3.085 3.505 4.385 6.135 8.695 12.755 16.435 17.075 16.135
1012.714 15.075 12.445 7.965 4.635 3.425 2.915 2.685 2.405 2.095 1.695
1032.003 1.525 1.975 2.115 2.035 2.095 2.225 2.515 2.735 2.715 2.365
1051.293 2.345 2.605 2.715 2.775 3.435 3.925 3.455 4.095 5.225 6.225
1070.583 7.965 9.855 12.035 14.935 17.905 21.295 24.395 26.385 28.425 29.825
1089.873 29.685 27.925 26.455 24.585 21.685 18.955 16.235 13.605 11.565 9.685
1109.163 8.035 7.375 6.865 6.345 6.315 6.015 5.485 5.765 6.795 7.195
1128.452 7.445 8.145 8.705 9.885 10.895 12.975 17.785 24.445 29.335 31.715
1147.742 32.855 32.715 29.265 22.945 18.035 15.825 15.735 17.145 19.715 22.565
1167.032 25.605 29.465 34.445 39.555 44.215 49.225 54.825 61.355 70.085 80.795
1186.322 95.045 114.945 141.225 176.245 221.485 278.055 345.475 420.535 494.215 554.895
1205.611 590.415 598.905 590.165 556.765 514.245 480.715 458.075 447.065 439.205 425.675
1224.901 402.245 367.095 320.295 269.755 221.925 180.425 146.725 120.565 100.715 85.535
1244.191 74.945 67.755 63.895 63.505 65.725 69.225 73.215 76.875 79.125 79.845
1263.481 78.455 75.395 71.215 66.255 61.455 56.865 51.945 47.375 43.445 39.755
1282.771 36.655 34.165 32.045 30.275 28.685 27.285 25.965 24.475 22.935 21.575
1302.060 20.095 18.575 17.125 15.795 14.675 13.535 12.485 11.415 10.375 9.495
1321.350 8.685 7.875 7.125 6.505 5.965 5.485 5.165 4.935 4.675 4.485
1340.640 4.285 4.055 3.885 3.845 3.805 3.815 3.855 3.905 3.885 3.865
1359.930 3.855 3.745 3.705 3.585 3.435 3.425 3.385 3.285 3.265 3.265
1379.219 3.205 3.175 3.175 3.225 3.425 3.615 3.845 4.165 4.515 5.165
1398.509 5.875 6.485 7.365 8.565 9.895 11.315 12.805 14.365 15.895 17.425
1417.799 18.945 20.175 21.125 21.735 21.905 21.585 20.895 19.975 18.875 17.495
1437.089 16.165 15.115 14.295 13.925 13.885 14.065 14.335 14.725 15.295 16.025
1456.378 16.875 18.015 19.605 21.545 23.945 27.005 30.835 35.685 41.615 49.425
1475.668 60.035 75.045 96.975 129.425 177.265 246.565 343.685 470.925 622.325 773.875
1494.958 888.915 943.975 932.645 862.395 739.245 581.655 427.525 317.525 251.815 211.555
1514.248 184.835 164.235 146.575 130.655 115.045 100.485 86.545 73.565 62.195 52.435
1533.538 44.205 37.475 32.275 27.805 24.145 21.295 19.045 17.265 15.805 14.695
1552.827 13.785 12.875 12.085 11.515 11.045 10.535 10.065 9.775 9.655 9.595
1572.117 9.475 9.375 9.395 9.385 9.265 9.105 9.005 8.895 8.685 8.555
1591.407 8.595 8.665 8.885 9.115 9.355 9.485 9.665 9.905 10.155 10.475
1610.697 10.725 11.125 11.475 11.775 12.075 12.235 12.185 12.025 11.935 11.775
1629.986 11.475 11.125 10.725 10.335 10.005 9.625 9.195 8.735 8.265 7.745
1649.276 7.295 6.845 6.425 6.165 5.825 5.435 5.205 4.955 4.745 4.505
1668.566 4.255 4.045 3.825 3.665 3.525 3.345 3.125 3.075 3.035 2.885
1687.856 2.735 2.655 2.685 2.715 2.665 2.625 2.675 2.655 2.645 2.825
1707.146 3.015 3.205 3.355 3.535 3.795 4.025 4.285 4.615 5.005 5.315
1726.435 5.495 5.685 5.995 6.385 6.655 6.895 6.865 6.495 6.105 5.655
1745.725 5.095 4.505 4.005 3.635 3.415 3.255 3.125 3.065 2.955 2.865
1765.015 2.795 2.675 2.565 2.475 2.385 2.285 2.285 2.285 2.285 2.285
1784.305 2.275 2.185 2.045 2.085 2.085 2.005 1.975 1.935 1.865 1.855
1803.594 1.915 1.885 1.825 1.815 1.745 1.765 1.905 2.035 2.185 2.295
1822.884 2.435 2.545 2.715 3.005 3.255 3.505 3.835 4.085 4.365 4.705
1842.174 5.195 5.815 6.455 7.295 8.215 9.065 9.985 10.905 11.725 12.375
1861.464 12.795 13.045 13.115 12.965 12.555 11.875 11.185 10.375 9.475 8.665
1880.754 7.895 7.185 6.605 6.105 5.605 5.125 4.665 4.335 3.985 3.645
1900.043 3.435 3.235 3.145 3.085 2.935 2.745 2.745 2.795 2.725 2.845
1919.333 2.965 3.035 3.155 3.355 3.645 3.815 4.005 4.175 4.305 4.365
1938.623 4.465 4.475 4.445 4.475 4.605 4.745 4.745 4.725 4.635 4.525
1957.913 4.475 4.275 4.025 3.875 3.805 3.745 3.645 3.525 3.445 3.445
1977.202 3.435 3.475 3.575 3.735 3.985 4.305 4.565 4.845 5.175 5.455
1996.492 5.705 5.905 6.065 6.195 6.375 6.375 6.325 6.415 6.355 6.385
2015.782 6.385 6.255 6.015 5.625 5.245 4.845 4.525 4.375 4.255 4.215
2035.072 4.285 4.345 4.505 4.755 4.975 5.235 5.435 5.655 5.855 5.935
2054.362 6.015 6.125 6.215 6.155 5.925 5.645 5.345 4.995 4.615 4.195
2073.651 3.875 3.615 3.385 3.135 2.915 2.725 2.625 2.545 2.315 2.235
2092.941 2.095 2.065 2.125 2.035 2.015 1.855 1.675 1.725 1.775 1.745
2112.231 1.815 1.855 1.775 1.665 1.675 1.615 1.4453 1.3717 1.409 1.4715
2131.521 1.486 1.4162 1.3471 1.3271 1.2648 1.1677 1.1489 1.2035 1.2312 1.2102
2150.810 1.1721 1.2709 1.3511 1.2756 1.182 1.1277 1.1695 1.117 1.1133 1.1874
2170.100 1.2203 1.2011 1.1262 1.1917 1.2885 1.2411 1.2258 1.2409 1.1142 1.1701
2189.390 1.3119 1.321 1.2078 1.1303 1.1283 1.1275 1.1941 1.2465 1.2386 1.1429
2208.680 1.1162 1.177 1.2165 1.2861 1.2764 1.3037 1.476 1.565 1.615 1.735
2227.970 1.825 1.935 2.135 2.235 2.235 2.225 2.205 2.145 1.995 1.955
2247.259 1.855 1.615 1.477 1.4505 1.4906 1.447 1.3459 1.3658 1.4538 1.4247
2266.549 1.3388 1.3396 1.2769 1.271 1.3358 1.3627 1.4152 1.406 1.4957 1.705
2285.839 1.785 1.825 1.965 2.095 2.135 2.145 2.085 2.075 2.145 2.225
2305.129 2.125 2.035 2.105 2.115 2.075 2.145 2.335 2.415 2.365 2.395
2324.418 2.455 2.495 2.595 2.685 2.755 2.725 2.855 2.995 3.075 3.305
2343.708 3.385 3.405 3.465 3.545 3.635 3.645 3.545 3.525 3.495 3.405
2362.998 3.265 3.195 3.375 3.485 3.525 3.725 4.005 4.315 4.735 5.065
2382.288 5.245 5.205 5.045 5.015 4.825 4.605 4.465 4.285 4.065 3.875
2401.578 3.815 3.785 3.775 3.745 3.715 3.655 3.605 3.765 3.955 4.245
2420.867 4.515 4.735 4.975 5.335 5.805 6.195 6.625 7.035 7.405 7.485
2440.157 7.455 7.485 7.205 6.735 6.395 5.985 5.675 5.455 5.085 4.705
2459.447 4.415 4.255 4.015 3.725 3.625 3.605 3.375 3.235 3.275 3.085
2478.737 2.885 2.945 2.925 2.695 2.575 2.475 2.295 2.185 2.145 2.245
2498.026 2.095 1.835 1.805 1.725 1.725 1.655 1.525 1.525 1.585 1.4624
2517.316 1.3815 1.4804 1.3568 1.2903 1.3247 1.2804 1.2385 1.3096 1.5041 1.515
2536.606 1.5131 1.585 1.565 1.615 1.735 1.795 1.805 1.915 2.015 1.985
2555.896 1.975 2.035 2.035 2.085 2.025 1.835 1.705 1.635 1.565 1.545
2575.186 1.4999 1.3075 1.2172 1.2403 1.0929 0.9445 0.9324 0.8916 0.9437 0.9841
2594.475 0.8876 0.8809 0.9804 0.9683 0.9605 0.9296 0.7803 0.7845 0.8924 0.9534
2613.765 0.935 0.8828 0.7988 0.8355 0.8426 0.741 0.8138 0.8639 0.774 0.7902
2633.055 0.8761 1.0042 0.9983 0.9834 1.0138 1.0359 1.1066 1.1054 1.112 1.1372
2652.345 1.0863 0.9577 0.9499 0.9238 0.8663 0.8888 0.9069 0.8589 0.8806 0.9684
2671.634 1.0121 1.1407 1.0859 0.9183 1.0406 1.1828 1.1935 1.1235 1.0874 1.167
2690.924 1.2659 1.2358 1.167 1.2967 1.3536 1.2735 1.3022 1.1852 1.0852 1.1862
2710.214 1.1414 1.1925 1.2871 1.2367 1.2456 1.2118 1.1379 1.1902 1.2387 1.2803
2729.504 1.2746 1.2999 1.2536 1.0233 1.0786 1.1306 1.0486 0.9374 0.9877 1.1537
2748.794 1.1951 1.2514 1.2132 1.1681 1.159 1.187 1.2958 1.4048 1.4301 1.4365
2768.083 1.4949 1.525 1.4891 1.4368 1.3486 1.4347 1.4031 1.2777 1.2529 1.1616
2787.373 1.2176 1.1843 1.1927 1.2936 1.2034 1.1844 1.2539 1.2377 1.2655 1.4022
2806.663 1.3945 1.1938 0.9745 0.9921 1.1447 1.2477 1.3015 1.4043 1.4207 1.2278
2825.953 1.1973 1.3371 1.4218 1.3623 1.2886 1.3646 1.525 1.496 1.615 1.825
2845.242 1.805 1.855 1.995 2.225 2.375 2.325 2.515 2.655 2.585 2.645
2864.532 2.775 2.685 2.555 2.525 2.335 2.215 2.265 2.125 1.835 1.775
2883.822 1.715 1.625 1.695 1.585 1.3854 1.3611 1.3512 1.3574 1.4843 1.3894
2903.112 1.2836 1.2095 1.0738 1.2162 1.249 0.9585 1.0036 1.0462 0.8216 0.7184
2922.401 0.707 0.8098 0.785 0.7838 0.6898 0.522073 0.59833 0.59245 0.56001 0.6363
2941.691 0.58255 0.5032 0.5039 0.52756 0.55683 0.4211 0.302 0.521768 0.7386 0.6218
2960.981 0.54159 0.56292 0.54482 0.6366 0.7513 0.7266 0.6815 0.6775 0.7588 0.7484
2980.271 0.6432 0.8444 0.925 0.9079 1.05 1.1121 1.1093 1.2243 1.535 1.835
2999.561 1.935 2.135 2.435 2.655 2.845 3.115 3.325 3.335 3.385 3.285
3018.850 3.045 2.825 2.665 2.625 2.655 2.675 2.765 3.005 3.305 3.685
3038.140 4.375 5.155 6.145 7.595 9.145 10.955 13.235 15.775 18.225 19.865
3057.430 20.275 19.395 17.845 15.745 13.245 10.855 9.135 8.225 7.805 7.705
3076.720 7.725 7.765 7.775 7.595 7.195 6.795 6.385 5.765 5.065 4.815
3096.009 4.795 4.625 4.655 4.615 4.425 4.495 4.735 4.655 4.455 4.475
3115.299 4.385 4.355 4.385 4.355 4.005 3.465 3.185 2.945 2.495 2.095
3134.589 1.815 1.665 1.665 1.555 1.2952 1.2171 1.2901 1.0144 0.6993 0.8695
3153.879 0.9856 0.7856 0.6601 0.6345 0.6542 0.7451 0.7531 0.8165 0.7733 0.53122
3173.169 0.52624 0.503 0.4696 0.51734 0.50973 0.4365 0.41 0.4816 0.58519 0.53966
3192.458 0.485 0.59491 0.58765 0.55861 0.6911 0.7859 0.816 0.8826 0.8664 0.7403
3211.748 0.59437 0.50542 0.4456 0.5039 0.59047 0.7259 0.6441 0.381 0.51124 0.54409
3231.038 0.53164 0.59779 0.54264 0.4849 0.54825 0.411 0.338 0.4581 0.4426 0.4438
3250.328 0.332 0.402 0.51113 0.402 0.4263 0.4156 0.352 0.515771 0.59179 0.56035
3269.617 0.4941 0.56908 0.7141 0.723 0.698 0.52625 0.262 0.368 0.5929 0.59559
3288.907 0.6156 0.382 0.286 0.378 0.186 0.203 0.4807 0.5348 0.55005 0.53047
3308.197 0.312 0.281 0.265 0.256 0.381 0.329 0.404 0.59541 0.4753 0.405
3327.487 0.4908 0.4593 0.4306 0.58423 0.6184 0.514766 0.51116 0.5758 0.57054 0.4679
3346.777 0.307 0.279 0.4763 0.6987 0.520224 0.378 0.4382 0.303 0.269 0.331
3366.066 0.299 0.308 0.4897 0.522086 0.59633 0.6973 0.520694 0.35 0.318 0.4329
3385.356 0.58219 0.60456 0.392 0.264 0.226 0.257 0.367 0.52958 0.6233 0.4231
3404.646 0.4852 0.4813 0.277 0.252 0.375 0.395 0.224 0.274 0.55103 0.4
3423.936 0.23 0.4164 0.342 0.254 0.284 0.263 0.289 0.524234 0.6207 0.444
3443.225 0.4431 0.32 0.33 0.4841 0.4464 0.412 0.518053 0.4478 0.4364 0.4
3462.515 0.228 0.376 0.4367 0.323 0.308 0.4983 0.4726 0.167 0.265 0.281
3481.805 0.203 0.4854 0.59841 0.57906 0.4785 0.424 0.413 0.305 0.289 0.313
3501.095 0.272 0.267 0.234 0.366 0.401 0.306 0.313 0.323 0.391 0.52723
3520.385 0.57455 0.5038 0.376 0.287 0.4914 0.4472 0.249 0.4454 0.53921 0.322
3539.674 0.19 0.188 0.297 0.4298 0.432 0.357 0.412 0.5015 0.53103 0.50973
3558.964 0.55041 0.6721 0.6724 0.7325 0.7804 0.7329 0.4195 0.405 0.7397 0.6715
3578.254 0.4509 0.35 0.33 0.319 0.316 0.345 0.50661 0.4443 0.268 0.291
3597.544 0.242 0.327 0.59199 0.514155 0.282 0.344 0.4281 0.51147 0.4583 0.402
3616.833 0.55756 0.655 0.7577 0.6933 0.371 0.335 0.4443 0.44 0.4337 0.393
3636.123 0.4419 0.4499 0.403 0.343 0.263 0.261 0.4412 0.351 0.088 0.142
3655.413 0.2 0.303 0.4968 0.522783 0.394 0.4543 0.53261 0.4721 0.354 0.245
3674.703 0.51357 0.6437 0.4825 0.6933 0.6387 0.6311 0.6773 0.51229 0.6752 0.6909
3693.993 0.6683 0.6703 0.53486 0.6731 0.7871 0.7331 0.6438 0.516851 0.56401 0.57149
3713.282 0.58326 0.6413 0.4516 0.374 0.6178 0.6652 0.54881 0.7027 0.7473 0.6811
3732.572 0.7868 0.7327 0.6424 0.6844 0.8768 0.7167 0.4411 0.397 0.317 0.4547
3751.862 0.6244 0.701 0.8393 0.8008 0.6987 0.7424 0.61328 0.6586 0.74 0.4465
3771.152 0.204 0.234 0.312 0.32 0.283 0.162 0.293 0.36 0.208 0.4559
3790.441 0.7116 0.55828 0.335 0.158 0 0.024 0.127 0.266 0.219 0.181
3809.731 0.323 0.296 0.292 0.317 0.349 0.4928 0.4629 0.39 0.55603 0.594
3829.021 0.55683 0.54101 0.4167 0.4387 0.405 0.4536 0.6415 0.5122 0.56176 0.8944
3848.311 0.9402 0.8585 0.7721 0.7098 0.69 0.7173 0.8212 0.677 0.55612 0.517914
3867.601 0.4981 0.6946 0.7218 0.4983 0.51274 0.6486 0.6971 0.5765 0.4303 0.459
3886.890 0.4847 0.7095 0.905 0.8695 0.7871 0.7073 0.7676 0.8631 0.7763 0.501
3906.180 0.53376 0.6473 0.6382 0.7707 0.7667 0.57747 0.61384 0.6298 0.6867 0.7625
3925.470 0.816 0.6503 0.5075 0.6201 0.4916 0.376 0.4411 0.59548 0.56183 0.4985
3944.760 0.8728 1.0324 0.8957 0.9471 0.6829 0.4796 0.6544 0.7202 0.634 0.6735
3964.049 0.54486 0.4497 0.7044 0.6882 0.388 0.54625 0.8811 0.6202 0.4406 0.58361
3983.339 0.397 0.209 0.519616 0.7122 0.6189 0.50592 0.316 0.227 0.399 0.6893
##END=
