##TITLE=Dimethyl-4,5-imidazoledicarboxylate
##JCAMP-DX=4.24
##DATA TYPE=INFRARED SPECTRUM
##ORIGIN=EPA-IR VAPOR PHASE LIBRARY
##OWNER=SRD/NIST
Collection (C) 2018 copyright by the U.S. Secretary of Commerce
on behalf of the United States of America. All rights reserved.
##CAS REGISTRY NO=3304-70-9
##MOLFORM=C 7 H 8 N 2 O 4
##$NIST SOURCE=MSDC-IR
##STATE=gas
##XUNITS=1/CM
##YUNITS=ABSORBANCE
##XFACTOR=1.
##YFACTOR=0.001
##DELTAX=3.85796
##FIRSTX=501.5
##LASTX=4000.7
##FIRSTY=0.4761
##MAXX=4000.7
##MINX=501.534
##MAXY=0.029551
##MINY=0
##NPOINTS=908
##XYDATA=(X++(Y..Y))
501.534 0.4761 0.27833 0.22236 0.3151 0.3644 0.3691 0.425 0.6232 0.7803 0.7507
540.114 0.8038 1.0995 1.391 1.671 2.171 2.871 3.391 3.891 4.561 5.031
578.693 5.441 5.741 5.801 5.561 4.941 4.221 3.521 2.891 2.351 1.931
617.273 1.631 1.361 1.1479 1.0275 0.9927 1.0469 1.1807 1.241 1.201 1.0899
655.852 0.9968 0.8874 0.8042 0.7436 0.5819 0.517 0.5603 0.5538 0.5021 0.4439
694.432 0.4349 0.4375 0.4197 0.377 0.3526 0.3484 0.3758 0.4106 0.3835 0.38
733.011 0.3941 0.3913 0.5139 0.7392 0.907 1.1677 1.601 2.111 2.591 3.031
771.591 3.291 3.401 3.701 4.351 5.021 5.231 4.951 4.301 3.451 2.881
810.170 2.761 2.691 2.561 2.381 2.261 2.311 2.591 2.761 2.281 1.691
848.750 1.291 0.8889 0.6727 0.5742 0.5087 0.5441 0.5589 0.4964 0.4374 0.4658
887.330 0.4737 0.4857 0.5197 0.5214 0.5334 0.5279 0.5963 0.74 0.8831 1.0092
925.909 1.1424 1.341 1.571 1.741 1.801 1.801 1.771 1.621 1.531 1.601
964.489 1.721 2.021 2.461 2.781 2.841 2.601 2.131 1.551 1.1094 0.8867
1003.068 0.7742 0.8184 0.9153 1.0137 1.1883 1.371 1.561 1.811 2.201 2.951
1041.648 4.221 6.071 8.701 11.861 14.091 14.451 12.861 9.971 7.061 5.091
1080.227 4.341 4.661 5.981 8.471 11.641 14.151 15.011 14.011 11.621 8.911
1118.807 6.941 5.931 5.641 5.861 6.481 7.401 8.921 11.001 13.581 16.581
1157.387 19.591 22.051 23.511 23.801 22.821 21.171 19.551 18.471 18.041 18.171
1195.966 18.471 18.151 16.981 15.141 12.771 10.231 8.031 6.361 5.161 4.461
1234.546 3.971 3.651 3.751 4.051 4.561 5.431 6.581 7.821 8.951 9.941
1273.125 10.871 11.911 12.981 13.971 14.901 16.011 17.601 19.541 21.161 21.631
1311.705 20.431 17.581 14.041 11.181 9.661 9.451 10.321 12.081 14.571 17.751
1350.284 21.361 24.451 26.031 25.421 22.311 17.511 12.661 8.991 6.521 4.871
1388.864 3.821 3.191 2.831 2.661 2.691 2.851 3.071 3.341 3.661 4.171
1427.443 5.161 6.861 8.921 10.331 10.501 9.421 7.441 5.901 5.441 5.901
1466.023 7.071 8.511 9.681 10.011 9.311 7.771 5.861 4.201 3.031 2.281
1504.603 1.911 1.691 1.521 1.471 1.491 1.521 1.601 1.711 1.851 2.101
1543.182 2.441 2.891 3.551 4.301 4.901 5.081 4.831 4.141 3.261 2.461
1581.762 1.901 1.601 1.411 1.271 1.191 1.1473 1.1078 1.0635 1.0224 1.0086
1620.341 1.0084 1.0265 1.0368 1.0704 1.107 1.1454 1.251 1.391 1.561 1.831
1658.921 2.131 2.501 2.851 3.111 3.281 3.381 3.491 3.701 3.991 4.571
1697.500 5.561 7.001 8.941 11.561 14.971 19.401 24.231 27.971 29.551 28.301
1736.080 24.681 20.961 19.091 19.221 20.241 21.301 22.061 22.211 21.681 20.281
1774.659 17.801 14.681 11.501 8.701 6.541 4.941 3.811 3.011 2.401 1.981
1813.239 1.681 1.421 1.211 1.0394 0.9 0.7979 0.7211 0.6772 0.6343 0.5826
1851.819 0.5172 0.4856 0.497 0.4993 0.4996 0.498 0.4808 0.455 0.4517 0.4605
1890.398 0.4555 0.456 0.4638 0.463 0.462 0.4555 0.4378 0.435 0.4473 0.4285
1928.978 0.3918 0.3755 0.3849 0.3897 0.3753 0.3579 0.3561 0.358 0.3444 0.35
1967.557 0.3584 0.3491 0.3368 0.3371 0.3564 0.3724 0.3835 0.3869 0.372 0.3592
2006.137 0.3792 0.3984 0.3896 0.359 0.3302 0.3147 0.3023 0.2951 0.27052 0.25902
2044.716 0.25023 0.23353 0.24358 0.23302 0.197911 0.18865 0.198806 0.20754 0.2222 0.23543
2083.296 0.25748 0.27123 0.25022 0.23767 0.23321 0.23121 0.22827 0.24565 0.25623 0.26933
2121.875 0.27487 0.26502 0.26266 0.25621 0.25557 0.22896 0.22407 0.25244 0.24179 0.21459
2160.455 0.21172 0.20526 0.18661 0.1807 0.1655 0.1509 0.1478 0.1332 0.1114 0.1112
2199.035 0.1012 0.1132 0.1323 0.1128 0.1152 0.1192 0.1259 0.1347 0.1283 0.1368
2237.614 0.1431 0.1535 0.1504 0.1403 0.1621 0.1605 0.1455 0.13 0.1278 0.143
2276.194 0.1394 0.1369 0.1385 0.1447 0.157 0.1739 0.20579 0.22536 0.21805 0.198373
2314.773 0.20307 0.24589 0.28606 0.2989 0.3019 0.3064 0.3072 0.3229 0.3104 0.3074
2353.353 0.3605 0.4189 0.4693 0.4703 0.4788 0.4432 0.3855 0.3372 0.27735 0.26266
2391.932 0.25184 0.22792 0.22705 0.23472 0.21517 0.21702 0.21548 0.1624 0.1348 0.1298
2430.512 0.1257 0.155 0.1529 0.1517 0.1749 0.1485 0.1241 0.1524 0.18173 0.1726
2469.092 0.1685 0.1746 0.1687 0.1702 0.1803 0.18871 0.18993 0.22403 0.23625 0.23308
2507.671 0.25312 0.262 0.25316 0.22974 0.22594 0.21253 0.197513 0.20736 0.20776 0.195036
2546.251 0.1798 0.1706 0.1558 0.1545 0.178 0.1763 0.164 0.1653 0.1643 0.1457
2584.830 0.1707 0.20322 0.18617 0.18366 0.1682 0.15 0.1323 0.1099 0.1242 0.1182
2623.410 0.1017 0.0946 0.1134 0.1196 0.1015 0.1212 0.1015 0.059 0.09 0.1408
2661.989 0.1291 0.1025 0.0912 0.065 0.057 0.1042 0.1295 0.1003 0.083 0.108
2700.569 0.1336 0.1332 0.1445 0.1762 0.18618 0.1663 0.1573 0.1772 0.20183 0.199184
2739.148 0.190696 0.20759 0.20293 0.199149 0.21873 0.23889 0.25307 0.24181 0.21182 0.199375
2777.728 0.21567 0.25564 0.2678 0.2637 0.29029 0.27476 0.24107 0.2438 0.25666 0.25661
2816.308 0.28139 0.3383 0.3672 0.4484 0.5889 0.7083 0.8663 1.0485 1.1864 1.261
2854.887 1.221 1.1236 0.9926 0.8646 0.762 0.6848 0.6725 0.6903 0.7809 0.9131
2893.467 1.0083 1.136 1.261 1.311 1.311 1.341 1.371 1.361 1.321 1.361
2932.046 1.451 1.581 1.861 2.371 3.301 4.821 6.551 7.621 7.681 6.761
2970.626 5.061 3.421 2.461 2.011 1.851 1.891 1.991 2.051 2.111 2.131
3009.205 2.091 1.971 1.851 1.801 1.731 1.671 1.621 1.531 1.371 1.251
3047.785 1.1236 0.962 0.8671 0.8081 0.7213 0.6583 0.6493 0.617 0.6122 0.6207
3086.364 0.6038 0.6507 0.6237 0.5509 0.5456 0.5341 0.5242 0.5333 0.5174 0.4877
3124.944 0.5297 0.5873 0.5908 0.5429 0.4653 0.3597 0.325 0.3423 0.27576 0.22491
3163.524 0.23107 0.2604 0.2286 0.1686 0.1382 0.1636 0.18727 0.173 0.20683 0.20487
3202.103 0.198864 0.1672 0.1249 0.1385 0.1325 0.1321 0.1628 0.1536 0.133 0.1096
3240.683 0.1138 0.1326 0.1101 0.1015 0.1336 0.1403 0.1654 0.21863 0.18787 0.1386
3279.262 0.1068 0.1089 0.1214 0.1439 0.1597 0.1187 0.1304 0.21179 0.22574 0.1747
3317.842 0.19979 0.2202 0.21283 0.20625 0.190525 0.18893 0.196198 0.194228 0.1561 0.1308
3356.421 0.076 0.087 0.1464 0.1039 0.1223 0.1426 0.1253 0.1728 0.25749 0.2968
3395.001 0.25389 0.2172 0.22329 0.26991 0.3436 0.3478 0.3668 0.4723 0.5185 0.5898
3433.580 0.6719 0.7664 1.0279 1.331 1.701 2.381 3.471 5.001 7.121 9.351
3472.160 10.641 10.591 9.291 7.121 5.211 4.171 3.551 2.831 1.901 1.1075
3510.740 0.7761 0.6414 0.4999 0.4321 0.3874 0.3455 0.3227 0.3141 0.3136 0.3087
3549.319 0.26326 0.217 0.1393 0.067 0.1387 0.163 0.1206 0.0983 0.083 0.1254
3587.899 0.20436 0.181 0.065 0.055 0.1247 0.1522 0.1535 0.0986 0.1141 0.1617
3626.478 0.21211 0.21749 0.078 0.016 0.064 0.0971 0.1264 0.1492 0.0959 0.025
3665.058 0.026 0.091 0.1295 0.125 0.072 0.045 0.1144 0.1324 0.08 0.1017
3703.637 0.1759 0.199069 0.1433 0.078 0.066 0.058 0.0995 0.1656 0.18817 0.18105
3742.217 0.1571 0.1456 0.1404 0.1353 0.1602 0.1378 0.0929 0.08 0.075 0.1183
3780.797 0.1184 0.0955 0.1256 0.1452 0.1146 0.0916 0.085 0.031 0 0.086
3819.376 0.1312 0.1012 0.079 0.13 0.21913 0.20244 0.196427 0.1733 0.1587 0.22415
3857.956 0.18991 0.1313 0.0994 0.1012 0.1084 0.1323 0.1806 0.1523 0.134 0.1401
3896.535 0.1289 0.149 0.1638 0.125 0.1033 0.122 0.15 0.1344 0.1196 0.1695
3935.115 0.20994 0.19166 0.1308 0.1245 0.128 0.1287 0.1498 0.1157 0.137 0.183
3973.694 0.1483 0.1684 0.18575 0.1749 0.1417 0.1542 0.18493 0.1643
##END=
