##TITLE=2,3,4-Trimethoxycinnamic acid
##JCAMP-DX=4.24
##DATA TYPE=INFRARED SPECTRUM
##ORIGIN=EPA-IR VAPOR PHASE LIBRARY
##OWNER=SRD/NIST
Collection (C) 2018 copyright by the U.S. Secretary of Commerce
on behalf of the United States of America. All rights reserved.
##CAS REGISTRY NO=33130-03-9
##MOLFORM=C 12 H 14 O 5
##$NIST SOURCE=MSDC-IR
##STATE=gas
##XUNITS=1/CM
##YUNITS=ABSORBANCE
##XFACTOR=1.
##YFACTOR=0.001
##DELTAX=1.92898
##FIRSTX=549.8
##LASTX=4000.7
##FIRSTY=5.083
##MAXX=4000.7
##MINX=549.759
##MAXY=0.041613
##MINY=0
##NPOINTS=1790
##XYDATA=(X++(Y..Y))
549.759 5.083 4.813 4.523 4.283 3.663 3.593 3.713 3.573 3.353 3.213
569.049 3.103 2.903 2.893 3.043 3.203 3.453 3.743 3.753 3.863 4.113
588.339 4.113 4.233 4.263 3.993 3.723 3.403 3.223 3.063 2.813 2.653
607.628 2.563 2.533 2.523 2.453 2.383 2.373 2.363 2.293 2.213 2.123
626.918 2.243 2.383 2.313 2.183 2.223 2.303 2.213 2.213 2.183 2.213
646.208 2.223 2.163 2.163 2.213 2.333 2.143 1.953 2.003 2.013 1.893
665.498 1.753 1.633 1.453 1.383 1.353 1.243 1.143 1.01 1.0131 1.0781
684.787 1.0844 1.0402 0.9861 0.9451 0.9278 0.9667 0.8928 0.8167 0.7881 0.83
704.077 0.8637 0.7983 0.7328 0.8364 0.8676 0.8103 0.8321 0.7682 0.8488 1.0504
723.367 1.0616 0.9953 0.9908 1.016 0.997 0.9076 0.8044 0.7256 0.7548 0.8703
742.657 0.948 1.0257 1.0635 1.0015 1.0176 0.9475 0.9634 1.0863 0.9853 0.9374
761.947 1.0872 1.193 1.1308 1.0563 1.0301 1.0883 1.153 1.0925 1.0534 1.193
781.236 1.473 1.713 1.903 2.143 2.493 2.903 3.163 3.343 3.423 3.413
800.526 3.333 3.203 2.963 2.763 2.653 2.523 2.293 2.033 2.043 2.113
819.816 1.933 1.743 1.593 1.313 1.1141 1.0503 1.0408 0.9925 0.97 0.9435
839.106 0.9133 0.8476 0.8359 1.0085 1.0079 0.9402 1.0327 1.0554 1.0331 1.1151
858.395 1.173 1.213 1.383 1.513 1.543 1.623 1.503 1.373 1.493 1.433
877.685 1.263 1.383 1.363 1.263 1.413 1.623 1.783 1.793 1.953 2.083
896.975 2.123 2.183 2.173 2.263 2.323 2.203 2.093 1.933 1.793 1.803
916.265 1.713 1.703 1.723 1.703 1.673 1.543 1.553 1.683 1.653 1.673
935.555 1.943 2.293 2.493 2.593 2.793 2.983 2.943 2.913 2.903 2.693
954.844 2.503 2.343 2.273 2.373 2.453 2.383 2.353 2.543 2.723 2.983
974.134 3.153 3.323 3.763 4.033 4.203 4.373 4.393 4.343 4.303 4.093
993.424 3.863 3.793 3.803 3.773 3.853 4.173 4.533 4.993 5.713 6.333
1012.714 6.793 7.283 7.633 7.823 7.753 7.523 7.293 7.023 6.763 6.623
1032.003 6.773 7.133 7.553 7.883 8.043 8.273 8.423 8.463 8.353 8.093
1051.293 7.893 7.553 7.283 7.113 6.963 7.013 6.913 7.143 7.483 7.863
1070.583 8.603 9.193 9.873 10.773 11.573 12.203 13.043 14.013 14.623 15.423
1089.873 16.653 17.873 19.273 20.733 22.413 24.363 26.723 29.213 32.003 34.873
1109.163 37.803 40.373 41.613 41.093 38.403 34.103 28.903 23.403 18.883 15.773
1128.452 13.313 11.643 10.613 9.863 9.393 9.443 9.703 10.123 10.733 11.433
1147.742 12.313 13.143 13.983 14.603 14.793 14.613 13.943 12.903 11.703 10.483
1167.032 9.323 8.293 7.653 7.073 6.673 6.483 6.163 5.943 5.813 5.613
1186.322 5.453 5.613 5.713 5.533 5.673 6.083 6.083 6.023 5.903 5.773
1205.611 5.883 5.773 5.753 5.913 6.093 6.313 6.453 6.783 7.193 7.403
1224.901 7.623 7.973 8.313 8.743 9.003 9.023 9.023 9.183 9.433 9.453
1244.191 9.403 9.393 9.433 9.483 9.553 9.743 10.033 10.303 10.663 11.083
1263.481 11.583 12.103 12.513 13.093 13.803 14.623 15.653 16.693 17.683 18.843
1282.771 20.053 21.303 22.483 23.563 24.423 24.793 24.563 23.633 21.993 19.883
1302.060 17.523 15.173 13.083 11.313 9.873 8.743 7.853 7.073 6.463 5.943
1321.350 5.543 5.233 4.953 4.773 4.633 4.533 4.503 4.473 4.493 4.593
1340.640 4.783 5.043 5.343 5.663 5.983 6.293 6.533 6.683 6.693 6.493
1359.930 6.173 5.753 5.273 4.843 4.373 3.943 3.583 3.293 3.073 2.903
1379.219 2.803 2.753 2.693 2.643 2.663 2.723 2.803 2.923 3.123 3.423
1398.509 3.863 4.463 5.193 6.113 7.253 8.463 9.593 10.533 11.083 11.143
1417.799 10.733 9.993 9.043 8.003 7.153 6.603 6.363 6.433 6.673 6.813
1437.089 6.783 6.713 6.493 6.163 5.873 5.763 5.883 6.193 6.703 7.383
1456.378 8.173 9.173 10.313 11.223 11.773 12.003 11.853 11.323 10.523 9.733
1475.668 9.203 9.133 9.573 10.523 11.953 13.683 15.423 16.763 17.413 17.113
1494.958 15.743 13.633 11.243 8.913 6.943 5.513 4.503 3.833 3.363 3.013
1514.248 2.753 2.503 2.333 2.173 2.103 2.063 2.013 2.003 1.973 1.893
1533.538 1.843 1.873 1.853 1.783 1.833 1.913 1.973 2.063 2.073 2.173
1552.827 2.323 2.423 2.543 2.683 2.933 3.243 3.493 3.753 4.003 4.243
1572.117 4.553 4.873 5.233 5.763 6.353 6.933 7.563 8.273 8.873 9.263
1591.407 9.493 9.503 9.343 8.973 8.323 7.523 6.763 6.083 5.423 4.853
1610.697 4.493 4.303 4.203 4.213 4.453 4.893 5.533 6.443 7.613 8.973
1629.986 10.453 11.863 12.863 13.093 12.553 11.333 9.393 7.153 5.123 3.713
1649.276 2.923 2.423 2.073 1.863 1.713 1.583 1.483 1.403 1.353 1.343
1668.566 1.283 1.223 1.203 1.233 1.273 1.273 1.253 1.243 1.283 1.373
1687.856 1.413 1.453 1.533 1.573 1.653 1.783 1.863 2.023 2.283 2.473
1707.146 2.613 2.803 3.003 3.123 3.283 3.493 3.803 4.183 4.603 5.133
1726.435 5.693 6.343 7.203 8.243 9.613 11.513 13.993 17.123 20.813 24.733
1745.725 28.333 31.063 32.663 33.003 31.843 29.253 26.023 22.753 19.243 15.493
1765.015 12.153 9.703 8.093 7.103 6.543 6.213 6.023 5.883 5.723 5.523
1784.305 5.213 4.853 4.453 4.033 3.623 3.253 2.943 2.703 2.483 2.213
1803.594 2.013 1.913 1.723 1.583 1.523 1.463 1.343 1.223 1.153 1.143
1822.884 1.1134 1.0607 1.0271 0.9949 0.9771 0.9598 0.9524 0.9446 0.9236 0.9336
1842.174 0.8922 0.8616 0.8582 0.8168 0.86 0.8905 0.826 0.7717 0.7812 0.7968
1861.464 0.7886 0.8083 0.7992 0.7922 0.7909 0.7952 0.8065 0.782 0.7702 0.7594
1880.754 0.7323 0.7015 0.6866 0.6903 0.6722 0.6339 0.6307 0.6382 0.6489 0.6571
1900.043 0.6429 0.6451 0.6403 0.6559 0.6877 0.7113 0.7291 0.7194 0.6748 0.6863
1919.333 0.7237 0.6879 0.6723 0.694 0.6991 0.7008 0.6807 0.648 0.6557 0.671
1938.623 0.7091 0.685 0.6686 0.7018 0.708 0.7228 0.6664 0.6538 0.6818 0.6697
1957.913 0.6557 0.6707 0.6838 0.6586 0.6244 0.6174 0.6688 0.6961 0.6869 0.6893
1977.202 0.7011 0.7112 0.7164 0.6866 0.6273 0.5842 0.5866 0.6267 0.6503 0.6389
1996.492 0.6255 0.6158 0.6033 0.6251 0.632 0.6168 0.6179 0.6499 0.6537 0.6243
2015.782 0.5989 0.5908 0.6431 0.6472 0.6106 0.62 0.6263 0.6439 0.6906 0.7069
2035.072 0.7026 0.6919 0.6908 0.6718 0.6582 0.6767 0.6864 0.7119 0.7334 0.6977
2054.362 0.6556 0.6522 0.6458 0.6292 0.5976 0.5733 0.5939 0.5965 0.5412 0.4924
2073.651 0.4821 0.4923 0.5051 0.5072 0.5168 0.5095 0.4708 0.4523 0.4989 0.5009
2092.941 0.4379 0.4231 0.4377 0.4286 0.4458 0.4571 0.4568 0.468 0.4628 0.458
2112.231 0.4885 0.4928 0.4488 0.433 0.4758 0.514 0.4867 0.457 0.4626 0.4715
2131.521 0.4486 0.4464 0.4616 0.466 0.4508 0.4595 0.4816 0.4596 0.4648 0.5029
2150.810 0.4843 0.4251 0.4476 0.4957 0.4808 0.4485 0.446 0.4757 0.486 0.486
2170.100 0.4894 0.4947 0.5157 0.4993 0.4519 0.4661 0.4695 0.4435 0.446 0.4383
2189.390 0.4155 0.4093 0.4598 0.4906 0.457 0.4325 0.4063 0.4275 0.4345 0.3717
2208.680 0.3592 0.4102 0.451 0.4406 0.429 0.3994 0.3959 0.4195 0.4074 0.4454
2227.970 0.5126 0.5002 0.4699 0.4642 0.4163 0.4151 0.415 0.3857 0.3999 0.4183
2247.259 0.4019 0.397 0.4393 0.4621 0.4241 0.3967 0.4013 0.3896 0.3887 0.408
2266.549 0.3892 0.3725 0.3463 0.2986 0.3018 0.3189 0.3349 0.2919 0.2937 0.3154
2285.839 0.2932 0.287 0.3195 0.4072 0.4069 0.3571 0.3515 0.3924 0.3601 0.3097
2305.129 0.3479 0.3657 0.3695 0.3386 0.3051 0.2886 0.2929 0.2569 0.2963 0.3503
2324.418 0.3003 0.2715 0.2433 0.3115 0.3799 0.3545 0.3277 0.321 0.3083 0.3015
2343.708 0.3143 0.3016 0.3475 0.3744 0.3219 0.3129 0.3543 0.3588 0.3198 0.3526
2362.998 0.3849 0.398 0.3827 0.344 0.3482 0.3374 0.3533 0.4088 0.4121 0.374
2382.288 0.3588 0.3775 0.4022 0.3993 0.3523 0.32 0.3599 0.3753 0.3562 0.3371
2401.578 0.3317 0.3711 0.3765 0.4178 0.45 0.3767 0.3278 0.3384 0.3292 0.3653
2420.867 0.3913 0.3717 0.3773 0.3652 0.3489 0.3422 0.3532 0.3764 0.3267 0.328
2440.157 0.3707 0.3161 0.3443 0.4054 0.4314 0.4272 0.3652 0.3898 0.4342 0.3991
2459.447 0.403 0.4361 0.4372 0.4473 0.4167 0.4029 0.5012 0.5352 0.4838 0.4569
2478.737 0.4905 0.5296 0.4153 0.3139 0.3408 0.4092 0.4061 0.4238 0.4413 0.3638
2498.026 0.3683 0.4206 0.4429 0.4424 0.4124 0.3991 0.384 0.4052 0.4924 0.4432
2517.316 0.4161 0.4651 0.4661 0.4199 0.3959 0.4347 0.4614 0.4787 0.5149 0.4688
2536.606 0.4303 0.484 0.501 0.4691 0.436 0.4651 0.4526 0.396 0.3812 0.4217
2555.896 0.4901 0.4684 0.4521 0.4522 0.4653 0.491 0.4926 0.5268 0.5556 0.5648
2575.186 0.5331 0.5265 0.5131 0.5045 0.486 0.4778 0.4372 0.4682 0.4509 0.3847
2594.475 0.4433 0.4178 0.3936 0.4159 0.4343 0.4009 0.3568 0.3496 0.3205 0.3353
2613.765 0.3685 0.3987 0.3579 0.3252 0.3842 0.4272 0.3848 0.3161 0.3346 0.3416
2633.055 0.3418 0.2968 0.2672 0.2888 0.3739 0.4343 0.3506 0.3095 0.298 0.2752
2652.345 0.3038 0.3716 0.3455 0.2907 0.3041 0.2842 0.3232 0.3553 0.3613 0.3899
2671.634 0.3496 0.3418 0.3215 0.2635 0.2992 0.3547 0.4105 0.4137 0.3456 0.3397
2690.924 0.399 0.3483 0.3268 0.3514 0.3681 0.417 0.3699 0.3424 0.3725 0.3488
2710.214 0.3066 0.3008 0.3496 0.4041 0.3797 0.3254 0.3755 0.4101 0.3246 0.2734
2729.504 0.3395 0.3903 0.3451 0.3218 0.3549 0.3635 0.383 0.3696 0.3284 0.3586
2748.794 0.4518 0.5133 0.4284 0.3944 0.4468 0.4513 0.4001 0.4403 0.4311 0.3844
2768.083 0.4334 0.4547 0.4924 0.5537 0.5372 0.53 0.5793 0.5691 0.5248 0.4209
2787.373 0.4073 0.6076 0.6746 0.5923 0.5999 0.6432 0.6841 0.767 0.7786 0.7572
2806.663 0.8127 0.8959 0.99 1.03 1.1289 1.363 1.503 1.563 1.673 1.843
2825.953 2.163 2.423 2.593 2.833 3.093 3.353 3.653 3.903 4.093 4.193
2845.242 4.193 4.093 3.873 3.743 3.523 3.203 2.903 2.693 2.503 2.413
2864.532 2.393 2.373 2.373 2.393 2.563 2.613 2.553 2.583 2.673 2.663
2883.822 2.683 2.683 2.603 2.683 2.803 2.773 2.783 2.863 2.933 2.993
2903.112 3.093 3.163 3.233 3.343 3.383 3.383 3.453 3.573 3.633 3.683
2922.401 3.833 3.953 4.033 4.273 4.533 4.883 5.333 5.943 6.673 7.353
2941.691 8.073 8.813 9.363 9.493 9.333 8.993 8.373 7.693 7.053 6.453
2960.981 5.943 5.593 5.413 5.223 5.043 4.893 4.793 4.613 4.443 4.323
2980.271 4.123 4.033 4.093 4.023 3.963 3.973 3.973 4.103 4.323 4.473
2999.561 4.663 4.883 4.993 5.053 4.963 4.873 4.723 4.313 3.823 3.363
3018.850 3.033 2.843 2.623 2.293 2.193 2.173 2.053 1.973 1.933 1.893
3038.140 1.863 1.823 1.783 1.703 1.653 1.683 1.743 1.783 1.803 1.703
3057.430 1.543 1.513 1.513 1.453 1.543 1.613 1.603 1.633 1.543 1.513
3076.720 1.533 1.543 1.613 1.593 1.473 1.403 1.333 1.233 1.213 1.273
3096.009 1.203 1.0212 0.9807 0.933 0.8645 0.8684 0.8257 0.6948 0.6347 0.5618
3115.299 0.437 0.4232 0.515 0.5306 0.5045 0.5448 0.5134 0.48 0.5099 0.5381
3134.589 0.5219 0.5462 0.4741 0.3242 0.3138 0.3366 0.3789 0.4758 0.3831 0.3053
3153.879 0.3689 0.2725 0.2435 0.22432 0.20024 0.2756 0.3407 0.4276 0.3361 0.3179
3173.169 0.3991 0.3684 0.3593 0.3343 0.288 0.3178 0.293 0.23131 0.23122 0.2346
3192.458 0.22394 0.22745 0.19078 0.2577 0.3166 0.22643 0.21552 0.19383 0.16439 0.20135
3211.748 0.22025 0.2744 0.3076 0.23064 0.16607 0.19125 0.14318 0.0976 0.261 0.3516
3231.038 0.3845 0.3974 0.2657 0.2551 0.248 0.099 0.1061 0.20956 0.23242 0.21631
3250.328 0.2622 0.2739 0.2371 0.2475 0.1935 0.15863 0.22727 0.3117 0.271 0.1143
3269.617 0.16317 0.2587 0.22096 0.20779 0.15336 0.17767 0.2973 0.2678 0.2799 0.3388
3288.907 0.2464 0.134116 0.14748 0.2544 0.20597 0.16928 0.2978 0.3894 0.3795 0.2961
3308.197 0.22703 0.16247 0.0712 0.142092 0.15696 0.0745 0.068 0.15449 0.3063 0.3048
3327.487 0.1203 0.0501 0.19579 0.2727 0.15661 0.16339 0.4281 0.3922 0.17434 0.2447
3346.777 0.2453 0.2452 0.3225 0.3371 0.277 0.251 0.3689 0.3979 0.2724 0.22552
3366.066 0.20946 0.23066 0.241 0.19797 0.2747 0.31 0.314 0.2742 0.16444 0.138904
3385.356 0.249 0.2647 0.1211 0.22341 0.3726 0.2768 0.2695 0.2587 0.3394 0.4069
3404.646 0.3763 0.3307 0.22035 0.247 0.2898 0.3236 0.2693 0.16516 0.18294 0.22471
3423.936 0.2754 0.39 0.4112 0.28 0.269 0.2565 0.22743 0.2354 0.2699 0.3048
3443.225 0.2464 0.17869 0.21985 0.2589 0.2603 0.3478 0.3466 0.2434 0.2547 0.2981
3462.515 0.2952 0.271 0.20859 0.21633 0.3173 0.4375 0.4956 0.3349 0.3377 0.4875
3481.805 0.3847 0.2871 0.2854 0.3465 0.4145 0.4536 0.4652 0.4015 0.3389 0.336
3501.095 0.2747 0.2466 0.2874 0.16846 0.0668 0.14371 0.288 0.3451 0.2981 0.299
3520.385 0.2753 0.2754 0.2568 0.3041 0.4291 0.3787 0.4044 0.4201 0.3213 0.3797
3539.674 0.4677 0.4371 0.3125 0.2375 0.2979 0.2931 0.2401 0.3263 0.4202 0.5144
3558.964 0.6627 0.7518 0.8578 0.9026 0.963 1.193 1.573 2.303 3.743 5.963
3578.254 8.633 11.053 12.593 13.353 12.803 10.593 7.963 5.733 3.823 2.273
3597.544 1.373 1.0049 0.876 0.7111 0.5761 0.5074 0.4321 0.4121 0.3403 0.342
3616.833 0.3647 0.3433 0.3276 0.3378 0.3595 0.4085 0.2946 0.2478 0.2581 0.2808
3636.123 0.4514 0.4214 0.3036 0.2564 0.3145 0.2571 0.20841 0.297 0.4032 0.4257
3655.413 0.3889 0.3714 0.3615 0.3768 0.4363 0.4652 0.488 0.509 0.4234 0.3836
3674.703 0.2711 0.3068 0.3029 0.2518 0.3209 0.22036 0.17077 0.2351 0.21928 0.2333
3693.993 0.3439 0.244 0.17729 0.20887 0.1079 0.141097 0.2367 0.21971 0.20869 0.2741
3713.282 0.2699 0.3217 0.4039 0.2943 0.0552 0.021 0.16046 0.2841 0.3442 0.22161
3732.572 0.21727 0.21696 0.13849 0.22131 0.2721 0.2338 0.16562 0.0972 0.1204 0.0589
3751.862 0 0.20436 0.3565 0.2347 0.2408 0.2648 0.20338 0.2791 0.3974 0.4687
3771.152 0.4554 0.3497 0.2284 0.18186 0.236 0.219 0.17132 0.19381 0.22609 0.2444
3790.441 0.2494 0.273 0.3144 0.3324 0.3111 0.3774 0.4253 0.3961 0.345 0.3885
3809.731 0.3611 0.21057 0.22255 0.16062 0.20835 0.2668 0.21059 0.299 0.3153 0.3154
3829.021 0.3116 0.22447 0.0975 0.0613 0.15804 0.21697 0.2414 0.284 0.2687 0.14738
3848.311 0.1122 0.1966 0.21319 0.1188 0.14639 0.23159 0.142485 0.12307 0.2482 0.2991
3867.601 0.3185 0.2906 0.20051 0.2523 0.3655 0.3359 0.2833 0.3583 0.3823 0.3611
3886.890 0.3056 0.3297 0.3524 0.3177 0.2974 0.2871 0.18953 0.12359 0.18515 0.2113
3906.180 0.2611 0.3068 0.3558 0.4248 0.4611 0.319 0.22605 0.3323 0.4289 0.4098
3925.470 0.369 0.4064 0.3698 0.19908 0.15055 0.2856 0.3014 0.1477 0.15221 0.19834
3944.760 0.20733 0.21705 0.22515 0.292 0.3341 0.3415 0.23157 0.1216 0.3304 0.4606
3964.049 0.3465 0.2752 0.2281 0.2537 0.311 0.2835 0.3193 0.3602 0.3103 0.3677
3983.339 0.2585 0.15474 0.2493 0.2734 0.3068 0.3296 0.2061 0.2514 0.4697 0.3888
##END=
