##TITLE=2-Methoxy-.beta.-nitrostyrene
##JCAMP-DX=4.24
##DATA TYPE=INFRARED SPECTRUM
##ORIGIN=EPA-IR VAPOR PHASE LIBRARY
##OWNER=SRD/NIST
Collection (C) 2018 copyright by the U.S. Secretary of Commerce
on behalf of the United States of America. All rights reserved.
##CAS REGISTRY NO=3316-24-3
##MOLFORM=C 9 H 9 N O 3
##$NIST SOURCE=MSDC-IR
##STATE=gas
##XUNITS=1/CM
##YUNITS=ABSORBANCE
##XFACTOR=1.
##YFACTOR=0.001
##DELTAX=1.92898
##FIRSTX=549.8
##LASTX=4000.7
##FIRSTY=10.477
##MAXX=4000.7
##MINX=549.759
##MAXY=0.281097
##MINY=0
##NPOINTS=1790
##XYDATA=(X++(Y..Y))
549.759 10.477 11.077 11.247 10.617 10.477 10.477 10.257 10.087 9.757 9.277
569.049 8.697 8.307 7.817 7.097 6.487 5.987 5.877 6.137 6.557 6.897
588.339 7.747 9.377 11.497 13.807 16.087 18.027 19.767 20.797 20.657 19.387
607.628 17.447 15.527 13.247 10.897 8.877 7.087 5.457 4.237 3.687 3.217
626.918 2.577 2.297 2.087 1.787 1.907 1.857 1.617 1.607 1.687 1.707
646.208 1.587 1.467 1.2535 1.287 1.457 1.437 1.427 1.377 1.457 1.717
665.498 1.857 1.847 2.087 2.307 2.337 2.307 2.207 2.257 2.247 2.217
684.787 2.047 1.897 2.187 2.497 2.627 2.847 3.217 3.497 3.687 4.207
704.077 4.817 5.447 6.337 7.547 8.807 10.197 12.007 14.407 17.357 20.697
723.367 24.377 27.427 29.837 31.917 33.877 36.927 40.567 44.607 50.097 56.967
742.657 64.917 73.357 81.937 90.737 94.647 88.907 79.617 71.217 62.957 54.467
761.947 45.967 38.077 31.307 25.947 21.937 19.337 17.687 16.727 16.477 16.577
781.236 16.857 17.407 18.087 18.557 18.367 17.987 17.357 16.497 15.497 13.967
800.526 12.357 11.087 10.117 9.357 8.847 8.577 8.097 7.737 7.727 7.657
819.816 7.747 8.167 8.567 8.977 9.747 10.507 11.147 11.937 12.717 13.327
839.106 13.397 13.137 13.197 13.357 13.467 13.847 13.977 13.877 13.637 12.917
858.395 12.147 11.317 10.627 10.127 9.387 8.677 8.157 7.627 7.067 6.587
877.685 6.437 6.407 6.067 5.887 5.887 5.737 5.387 5.287 5.317 5.277
896.975 5.297 5.257 5.257 5.307 5.577 5.907 6.287 6.787 7.127 7.517
916.265 8.097 8.697 9.497 10.397 11.317 12.257 13.217 14.157 15.147 16.377
935.555 17.587 18.897 20.947 23.497 26.457 30.197 34.797 39.797 44.697 49.747
954.844 54.517 58.507 61.677 63.607 63.747 61.837 58.257 54.067 50.227 45.867
974.134 40.297 34.607 29.707 25.637 22.057 19.257 17.337 16.167 15.287 14.587
993.424 14.607 14.677 14.827 15.407 16.247 17.747 19.737 22.147 24.687 27.517
1012.714 30.757 34.327 38.007 41.487 44.717 47.497 49.447 50.677 51.077 50.447
1032.003 49.207 47.417 45.127 42.907 41.147 39.667 38.227 36.877 35.327 33.227
1051.293 31.057 28.717 25.897 22.927 19.587 16.137 13.217 11.107 9.397 8.337
1070.583 7.627 6.877 6.687 6.297 5.887 5.957 6.097 6.267 6.827 7.727
1089.873 9.107 10.117 11.277 13.707 16.347 19.057 21.487 23.837 26.247 27.317
1109.163 27.717 28.387 28.767 28.557 27.897 27.117 26.277 24.837 23.297 22.107
1128.452 20.407 18.387 16.207 13.737 11.627 10.437 9.607 8.897 8.817 8.907
1147.742 9.507 11.167 13.397 16.367 20.557 24.197 25.927 26.477 26.907 27.047
1167.032 26.417 24.897 23.427 22.607 22.367 23.017 24.167 26.027 28.257 30.037
1186.322 31.137 31.697 31.607 30.487 28.627 26.427 23.907 21.657 19.947 18.557
1205.611 17.637 17.327 17.617 18.337 19.517 20.667 22.357 25.147 28.437 32.437
1224.901 37.087 42.717 49.627 57.637 66.687 76.367 86.097 95.737 105.317 115.147
1244.191 125.137 134.517 142.067 147.097 149.807 150.097 147.937 142.717 134.187 123.247
1263.481 111.297 99.747 89.397 80.827 74.507 70.247 67.207 64.957 63.837 63.647
1282.771 63.567 63.267 62.687 62.027 61.487 60.957 60.297 59.437 58.257 56.977
1302.060 55.607 54.097 52.487 50.727 48.977 47.257 45.777 44.807 44.427 45.157
1321.350 47.407 51.367 57.337 65.567 76.477 90.507 108.217 130.207 156.627 186.927
1340.640 219.047 248.417 270.087 281.097 280.687 268.877 245.877 212.227 172.137 134.017
1359.930 103.887 82.507 67.837 57.687 50.547 45.427 41.517 38.367 35.627 33.067
1379.219 30.627 28.147 25.547 23.047 20.697 18.497 16.597 15.107 13.907 12.967
1398.509 12.297 11.887 11.657 11.627 11.687 11.897 12.437 13.047 13.757 14.797
1417.799 16.117 17.827 19.857 22.207 25.107 28.487 32.347 36.607 41.047 45.187
1437.089 48.437 50.117 50.467 50.527 50.507 49.577 47.687 45.947 45.557 46.707
1456.378 49.237 52.967 57.207 61.197 64.487 67.327 69.767 72.107 75.097 79.127
1475.668 83.967 89.617 95.987 102.697 108.697 113.097 115.497 116.067 114.647 110.917
1494.958 104.947 97.287 89.287 81.957 75.937 71.567 68.727 67.407 67.397 68.507
1514.248 70.437 73.097 76.577 80.757 86.287 93.557 103.107 115.187 129.507 145.627
1533.538 162.377 177.577 188.747 194.737 195.677 192.327 184.637 172.147 154.847 134.977
1552.827 116.647 101.297 89.757 81.607 76.107 72.887 71.037 69.867 68.987 67.717
1572.117 65.777 63.497 61.007 58.467 56.237 54.367 52.967 52.117 52.067 52.957
1591.407 54.547 56.267 57.397 57.597 56.667 54.617 51.497 47.607 43.327 38.847
1610.697 34.767 31.477 29.257 28.147 28.017 28.977 31.137 34.427 38.767 44.157
1629.986 50.287 56.767 62.787 67.687 70.557 70.907 68.617 63.727 56.587 47.677
1649.276 38.277 30.107 23.637 19.097 16.157 14.027 12.577 11.707 11.017 10.487
1668.566 10.197 10.057 9.867 9.777 9.667 9.437 9.257 8.977 8.707 8.417
1687.856 7.977 7.467 6.987 6.537 6.057 5.607 5.297 5.017 4.737 4.557
1707.146 4.467 4.367 4.187 4.057 3.937 3.857 3.737 3.537 3.397 3.277
1726.435 3.067 2.857 2.727 2.657 2.547 2.407 2.267 2.167 2.157 2.167
1745.725 2.177 2.127 2.067 2.057 2.097 2.237 2.317 2.387 2.457 2.527
1765.015 2.717 2.797 2.857 2.977 3.147 3.257 3.327 3.407 3.437 3.457
1784.305 3.417 3.417 3.517 3.547 3.547 3.527 3.547 3.637 3.747 3.837
1803.594 3.877 3.837 3.817 3.777 3.657 3.557 3.437 3.287 3.117 2.927
1822.884 2.827 2.777 2.577 2.397 2.297 2.237 2.207 2.157 2.097 2.067
1842.174 2.087 2.127 2.127 2.117 2.117 2.177 2.267 2.377 2.487 2.527
1861.464 2.537 2.597 2.667 2.597 2.567 2.587 2.487 2.457 2.527 2.567
1880.754 2.727 2.947 3.177 3.507 3.897 4.317 4.757 5.107 5.317 5.407
1900.043 5.397 5.317 5.227 5.037 4.697 4.357 4.167 4.027 3.847 3.747
1919.333 3.737 3.867 4.037 4.137 4.287 4.507 4.677 4.697 4.617 4.487
1938.623 4.277 4.037 3.697 3.257 2.927 2.677 2.347 2.127 2.097 1.967
1957.913 1.847 1.877 1.877 1.807 1.737 1.737 1.777 1.777 1.817 1.857
1977.202 1.837 1.817 1.787 1.737 1.747 1.747 1.787 1.807 1.867 1.937
1996.492 1.917 1.947 2.047 2.187 2.297 2.357 2.427 2.537 2.607 2.717
2015.782 2.857 2.877 2.967 3.087 3.207 3.347 3.387 3.427 3.487 3.547
2035.072 3.557 3.597 3.657 3.627 3.627 3.607 3.537 3.477 3.407 3.347
2054.362 3.337 3.267 3.117 3.007 2.887 2.767 2.607 2.447 2.377 2.267
2073.651 2.117 2.117 2.007 1.817 1.727 1.657 1.597 1.597 1.477 1.377
2092.941 1.337 1.2559 1.2122 1.1896 1.2389 1.297 1.287 1.2082 1.1509 1.1064
2112.231 1.0952 1.1573 1.2261 1.2088 1.1958 1.2396 1.2332 1.1898 1.1696 1.2021
2131.521 1.231 1.1821 1.1644 1.2265 1.1823 1.1222 1.1497 1.1628 1.1618 1.1507
2150.810 1.1598 1.1367 1.0785 1.1213 1.1145 1.0165 0.9944 0.9956 0.9714 0.912
2170.100 0.8495 0.828 0.8411 0.8837 0.9059 0.8833 0.8796 1.0169 1.0371 0.9435
2189.390 0.9626 1 1.1186 1.1708 1.1632 1.2003 1.1537 1.1387 1.2363 1.2391
2208.680 1.2309 1.347 1.347 1.2548 1.2224 1.2403 1.277 1.2769 1.2515 1.2441
2227.970 1.2057 1.1831 1.213 1.1945 1.1802 1.1901 1.2071 1.317 1.337 1.2504
2247.259 1.2683 1.327 1.357 1.417 1.537 1.647 1.667 1.627 1.647 1.717
2266.549 1.777 1.857 1.887 1.887 1.997 2.127 2.117 2.067 2.087 2.087
2285.839 2.117 2.137 2.097 2.157 2.207 2.157 2.187 2.197 2.157 2.137
2305.129 2.047 1.947 1.887 1.797 1.747 1.697 1.657 1.597 1.637 1.667
2324.418 1.587 1.597 1.607 1.537 1.467 1.427 1.367 1.2726 1.1805 1.1873
2343.708 1.1854 1.1402 1.1179 1.165 1.1995 1.1886 1.1928 1.1789 1.113 1.0649
2362.998 1.1388 1.185 1.1496 1.0751 1.0096 0.9784 0.9631 0.9675 1.049 1.0963
2382.288 1.1522 1.17 1.1098 1.0948 1.0361 1.0516 1.0853 1.0853 1.1249 1.1109
2401.578 1.059 1.0767 1.119 1.1309 1.121 1.08 1.0772 1.1455 1.123 1.1574
2420.867 1.0825 0.9232 0.9468 1.0048 1.0084 0.9596 0.9335 0.9762 1.0259 0.9877
2440.157 0.9936 1.0867 1.0611 1.0526 1.1071 1.1148 1.1735 1.2444 1.2666 1.2649
2459.447 1.337 1.447 1.507 1.587 1.587 1.587 1.727 1.797 1.847 1.887
2478.737 1.907 1.987 2.057 2.087 2.207 2.317 2.307 2.307 2.337 2.357
2498.026 2.317 2.327 2.477 2.507 2.427 2.407 2.437 2.427 2.377 2.337
2517.316 2.287 2.227 2.157 2.097 2.057 2.067 2.047 1.997 1.977 1.957
2536.606 1.957 1.967 1.907 1.887 1.847 1.847 1.867 1.777 1.797 1.827
2555.896 1.887 1.927 1.827 1.737 1.787 1.897 1.887 1.867 1.937 1.977
2575.186 2.007 2.007 2.077 2.077 2.017 2.187 2.287 2.287 2.297 2.227
2594.475 2.217 2.197 2.097 2.037 2.027 1.997 1.967 1.917 1.917 1.957
2613.765 1.957 1.857 1.687 1.647 1.677 1.687 1.697 1.577 1.487 1.517
2633.055 1.567 1.577 1.507 1.447 1.387 1.377 1.447 1.417 1.277 1.2425
2652.345 1.317 1.2721 1.1358 1.1057 1.1091 0.9974 0.9808 1.1193 1.1789 1.1024
2671.634 1.0951 1.1095 1.1671 1.2596 1.214 1.1385 1.1798 1.2766 1.437 1.537
2690.924 1.537 1.507 1.457 1.457 1.477 1.457 1.387 1.457 1.567 1.547
2710.214 1.597 1.687 1.617 1.607 1.617 1.567 1.597 1.567 1.517 1.437
2729.504 1.427 1.427 1.487 1.497 1.507 1.607 1.477 1.377 1.487 1.517
2748.794 1.537 1.557 1.487 1.477 1.487 1.517 1.627 1.707 1.767 1.787
2768.083 1.787 1.877 1.887 1.967 1.977 2.027 2.207 2.237 2.267 2.367
2787.373 2.457 2.497 2.567 2.647 2.617 2.627 2.737 2.927 3.097 3.107
2806.663 3.247 3.557 3.767 3.907 4.137 4.447 4.837 5.237 5.537 5.967
2825.953 6.607 7.347 8.057 8.897 10.207 11.637 13.187 15.217 17.517 19.667
2845.242 21.347 22.507 23.077 23.177 22.707 21.607 19.987 18.037 16.347 14.937
2864.532 13.827 13.207 12.727 12.407 12.317 12.257 12.317 12.397 12.417 12.437
2883.822 12.447 12.597 12.747 12.717 12.597 12.617 12.867 13.037 13.237 13.547
2903.112 13.777 14.047 14.337 14.677 15.157 15.607 15.937 16.217 16.337 16.477
2922.401 16.797 16.937 17.137 17.637 18.217 18.927 19.937 21.387 23.057 24.837
2941.691 26.947 29.167 31.257 33.047 34.297 34.787 34.667 34.037 33.167 32.057
2960.981 30.557 29.167 28.037 26.987 25.837 24.647 23.267 21.637 20.007 18.447
2980.271 17.037 15.807 14.807 13.927 13.217 12.767 12.597 12.687 12.937 13.437
2999.561 14.217 15.237 16.437 17.777 19.217 20.497 21.277 21.497 21.267 20.777
3018.850 20.097 19.127 17.937 17.067 16.537 16.117 15.927 15.887 15.687 15.437
3038.140 15.177 14.687 14.077 13.487 13.067 12.817 12.507 12.267 12.487 13.257
3057.430 14.067 14.857 15.787 16.697 17.727 18.747 19.777 20.837 21.887 22.857
3076.720 23.537 24.057 24.157 23.637 22.687 21.377 19.827 18.007 16.047 14.297
3096.009 12.947 11.947 11.237 11.017 11.217 11.327 11.337 11.357 11.197 10.647
3115.299 9.857 8.977 7.977 6.787 5.757 4.997 4.407 4.087 3.917 3.807
3134.589 3.697 3.517 3.557 3.637 3.617 3.747 3.837 3.987 3.977 3.937
3153.879 4.047 4.037 3.907 3.597 3.347 3.077 2.667 2.387 2.177 2.087
3173.169 1.917 1.797 1.607 1.517 1.597 1.577 1.537 1.457 1.407 1.2559
3192.458 1.1894 1.2005 1.0359 1.0073 0.9329 0.8067 0.8221 0.838 0.8269 0.8247
3211.748 0.7798 0.8296 0.9347 0.8563 0.8465 0.9153 0.816 0.7556 0.8511 0.7853
3231.038 0.7636 0.7781 0.7231 0.6859 0.6729 0.681 0.6096 0.6471 0.8021 0.7486
3250.328 0.5986 0.566 0.469 0.4269 0.5378 0.6617 0.6939 0.5946 0.5061 0.5532
3269.617 0.5399 0.5151 0.4813 0.436 0.6238 0.6379 0.5086 0.36179 0.32038 0.517
3288.907 0.4815 0.5021 0.5452 0.5502 0.5753 0.4823 0.4982 0.36141 0.2325 0.2372
3308.197 0.27087 0.33095 0.3858 0.4219 0.34745 0.36369 0.4685 0.448 0.4448 0.4159
3327.487 0.2446 0.30739 0.4238 0.4693 0.4598 0.29129 0.4296 0.51 0.26795 0.277796
3346.777 0.36718 0.2179 0.2178 0.2702 0.27401 0.36577 0.3892 0.4076 0.4008 0.4046
3366.066 0.4284 0.3906 0.4136 0.4146 0.31653 0.4144 0.4424 0.3887 0.31332 0.280996
3385.356 0.3843 0.33037 0.28234 0.2448 0.1998 0.30853 0.3917 0.4695 0.4191 0.2021
3404.646 0.32415 0.4334 0.3781 0.4255 0.30949 0.2058 0.261 0.216 0.27805 0.4401
3423.936 0.383 0.1858 0.063 0.172 0.32442 0.2362 0.1782 0.2446 0.2231 0.139
3443.225 0.2283 0.27383 0.27306 0.281045 0.281421 0.32301 0.2214 0.281925 0.36348 0.30957
3462.515 0.33587 0.37396 0.30326 0.30922 0.2375 0.096 0.106 0.091 0.161 0.2548
3481.805 0.33944 0.32596 0.2945 0.31855 0.2382 0.26902 0.30173 0.31347 0.34546 0.4246
3501.095 0.5148 0.2662 0 0.056 0.2336 0.31016 0.34091 0.27437 0.2458 0.34756
3520.385 0.32914 0.33131 0.35059 0.3791 0.4484 0.3857 0.17 0.102 0.31305 0.4581
3539.674 0.4372 0.385 0.413 0.4003 0.34247 0.31151 0.282984 0.3881 0.5491 0.5405
3558.964 0.5102 0.4375 0.276125 0.36579 0.4277 0.30878 0.3332 0.33472 0.33539 0.471
3578.254 0.4412 0.3796 0.3937 0.2495 0.30921 0.4414 0.36075 0.31174 0.28837 0.29996
3597.544 0.2548 0.2377 0.2591 0.285433 0.37331 0.4198 0.36394 0.3033 0.2395 0.3923
3616.833 0.6058 0.5453 0.4657 0.4089 0.467 0.558 0.5816 0.5249 0.5692 0.6669
3636.123 0.5317 0.4686 0.5609 0.6192 0.5243 0.5168 0.5803 0.5534 0.521 0.5366
3655.413 0.4241 0.34567 0.3999 0.3776 0.4605 0.4928 0.5154 0.4307 0.3791 0.4869
3674.703 0.43 0.4417 0.3999 0.3104 0.4157 0.283598 0.3043 0.5469 0.5085 0.5167
3693.993 0.4538 0.284665 0.37048 0.3844 0.2548 0.2339 0.34058 0.623 0.5721 0.398
3713.282 0.276337 0.27109 0.4318 0.29472 0.30972 0.4389 0.3224 0.34594 0.3899 0.4247
3732.572 0.4735 0.4134 0.37496 0.2018 0.29204 0.4113 0.1933 0.121 0.29378 0.4415
3751.862 0.35851 0.234 0.149 0.31918 0.31311 0.1952 0.4068 0.4461 0.4399 0.4374
3771.152 0.3241 0.4648 0.4832 0.33146 0.3794 0.2531 0.2353 0.4803 0.5375 0.4709
3790.441 0.395 0.4021 0.514 0.6252 0.7444 0.7753 0.7809 0.6587 0.5028 0.37661
3809.731 0.34118 0.4582 0.4884 0.5094 0.5513 0.4825 0.4569 0.379 0.4902 0.6711
3829.021 0.7222 0.634 0.6061 0.6514 0.5353 0.6048 0.6869 0.6317 0.5024 0.5091
3848.311 0.6715 0.6879 0.6834 0.7374 0.6937 0.6592 0.6746 0.7412 0.7747 0.9111
3867.601 1.0454 0.9675 0.8714 0.9162 0.9543 0.9063 0.8676 0.7919 0.7689 0.93
3886.890 0.997 0.8729 0.7141 0.6266 0.658 0.6145 0.6268 0.5601 0.532 0.7014
3906.180 0.6726 0.5736 0.6702 0.7674 0.7048 0.8433 0.8939 0.8162 0.8747 0.9479
3925.470 1.0191 1.0252 1.1106 1.1304 0.948 0.9631 1.0298 0.8474 0.7745 0.941
3944.760 1.0407 0.9903 0.94 0.8815 0.9126 0.9747 0.9505 0.9281 0.8179 0.6676
3964.049 0.6362 0.6636 0.7479 0.8226 0.7896 0.8795 0.8569 0.7542 0.7279 0.6979
3983.339 0.7788 0.8777 0.903 0.7371 0.6932 0.8473 0.8213 0.6965 0.731 0.8016
##END=
