##TITLE=1-(4-Methoxyphenyl)ethanol
##JCAMP-DX=4.24
##DATA TYPE=INFRARED SPECTRUM
##ORIGIN=EPA-IR VAPOR PHASE LIBRARY
##OWNER=SRD/NIST
Collection (C) 2018 copyright by the U.S. Secretary of Commerce
on behalf of the United States of America. All rights reserved.
##CAS REGISTRY NO=3319-15-1
##MOLFORM=C 9 H 12 O 2
##$NIST SOURCE=MSDC-IR
##STATE=gas
##XUNITS=1/CM
##YUNITS=ABSORBANCE
##XFACTOR=1.
##YFACTOR=0.001
##DELTAX=1.92898
##FIRSTX=549.8
##LASTX=4000.7
##FIRSTY=9.66
##MAXX=4000.7
##MINX=549.759
##MAXY=0.12728
##MINY=0.0001638
##NPOINTS=1790
##XYDATA=(X++(Y..Y))
549.759 9.66 9.96 10.01 10.3 10.44 10.62 10.71 10.99 11.06 10.79
569.049 10.73 10.73 10.48 10.22 9.9 9.43 8.9 8.68 8.55 7.84
588.339 7.11 6.58 6.12 5.57 4.84 4.25 3.97 3.77 3.52 3.15
607.628 3.02 2.78 2.46 2.62 2.56 2.23 2.17 2.29 2.38 2.27
626.918 2.17 2.27 2.23 2.21 2.2 2.2 2.4 2.47 2.32 2.08
646.208 1.87 1.89 1.91 1.61 1.43 1.48 1.5 1.49 1.38 1.44
665.498 1.64 1.58 1.6 1.65 1.57 1.72 1.87 1.85 1.89 1.88
684.787 1.93 2.14 2.25 2.37 2.45 2.62 2.74 2.71 2.77 2.85
704.077 2.77 2.61 2.74 2.75 2.61 2.57 2.48 2.47 2.44 2.12
723.367 2.08 2.25 2.16 2.02 1.93 2.08 2.17 1.98 1.91 1.87
742.657 1.86 1.88 1.88 1.97 1.96 1.83 1.73 1.61 1.4 1.41
761.947 1.58 1.67 1.88 1.93 1.87 1.96 1.84 1.69 1.87 2.22
781.236 2.41 2.62 2.9 3.18 3.49 4.03 4.69 5.41 6.17 7.03
800.526 7.81 8.51 9.34 9.95 10.67 11.27 11.92 13.21 14.56 15.89
819.816 17.4 19.01 20.89 22.65 24.25 25.83 26.66 26.66 25.84 24.4
839.106 22.83 20.98 18.97 16.94 14.91 12.96 11.2 9.66 8.38 7.22
858.395 6.21 5.68 5.33 4.95 4.71 4.72 4.62 4.74 5.2 5.25
877.685 5.44 6.19 6.97 7.74 8.6 9.6 10.66 11.4 12.09 12.65
896.975 12.83 12.77 12.33 11.64 10.93 10.13 9.02 7.89 7.02 6.27
916.265 5.47 5 4.66 4.07 3.77 3.63 3.48 3.33 3.12 2.94
935.555 3.04 3.08 3.06 3.03 2.79 2.78 2.99 3.08 3.13 3.22
954.844 3.26 3.34 3.59 3.75 4.09 4.4 4.43 4.71 5.14 5.58
974.134 6.04 6.59 7.06 7.65 8.39 9.19 9.95 10.73 11.59 12.58
993.424 13.52 14.13 14.84 15.67 16.16 16.53 17.01 17.26 17.52 17.89
1012.714 18.04 18.47 19.15 19.76 20.47 21.61 23.21 25.34 27.72 29.96
1032.003 32.34 34.56 36.58 37.98 38.49 38.27 37.25 35.95 34.42 32.67
1051.293 30.7 28.54 26.67 25.47 24.76 24.16 23.7 23.83 24.22 24.49
1070.583 24.99 25.81 26.77 27.58 28.68 29.64 29.61 29.55 29.39 28.84
1089.873 27.81 26.37 24.77 23.29 21.2 18.55 16.66 15.06 13.56 12.1
1109.163 11.05 10.38 9.77 9.34 8.94 8.31 7.74 7.38 7.13 6.91
1128.452 6.69 6.41 6.34 6.33 6.46 6.76 6.91 7.14 7.31 7.56
1147.742 7.87 8.6 9.46 10.29 11.52 13.32 15.91 19.15 23.41 28.72
1167.032 34.23 39.06 42.16 43.58 43.81 43.24 41.53 37.82 32.75 27.49
1186.322 22.99 19.78 17.64 16.12 15.11 14.54 14.14 14.11 14.3 14.53
1205.611 14.68 14.78 15.35 16.16 17.05 17.98 19.57 21.44 23.67 27.01
1224.901 30.98 35.46 40.91 47.85 56.38 66.67 78 89.95 101.87 112.32
1244.191 120.52 125.76 127.28 125.15 119.52 110.47 98.92 85.92 73.22 62.22
1263.481 53.27 46.59 41.84 38.65 36.35 34.79 34.05 33.82 34.12 34.64
1282.771 35.04 35.57 36.21 36.65 36.71 36.52 35.97 34.94 33.51 31.58
1302.060 29.24 26.86 24.58 22.28 20 17.93 16.23 14.97 14.01 13.37
1321.350 12.97 12.67 12.48 12.42 12.44 12.57 12.77 12.96 13.3 13.72
1340.640 14.12 14.45 14.89 15.39 15.9 16.37 16.71 17 17.21 17.22
1359.930 17.16 17.14 17.04 16.85 16.7 16.69 16.8 16.8 16.7 16.59
1379.219 16.31 15.89 15.34 14.65 13.83 12.92 12.03 11.32 10.67 10.03
1398.509 9.48 8.94 8.61 8.33 8.03 7.88 7.77 7.71 7.72 7.72
1417.799 7.83 7.84 7.76 7.88 7.97 8.06 8.3 8.64 9.15 9.92
1437.089 10.75 11.55 12.4 13.05 13.46 13.86 14.4 14.86 15.02 15.07
1456.378 15.37 15.71 16.14 16.73 17.29 17.56 17.42 17.18 16.89 16.41
1475.668 15.83 15.17 14.41 13.95 13.74 13.84 14.51 15.66 17.33 19.68
1494.958 23.08 27.68 33.61 40.99 49.63 58.99 68.07 75.07 78.92 79.54
1514.248 77.28 72.66 65.49 56.01 44.67 33.63 24.6 18.06 13.65 10.76
1533.538 8.83 7.51 6.68 6.08 5.51 5.15 4.88 4.59 4.53 4.48
1552.827 4.42 4.35 4.41 4.73 4.77 4.75 5.01 5.34 5.8 6.33
1572.117 6.92 7.68 8.62 9.5 10.4 11.39 12.3 13.15 14 15
1591.407 16.01 16.95 17.98 19.27 20.81 22.45 24.09 25.76 27.27 28.33
1610.697 28.97 28.96 28.17 26.76 24.75 22.2 19.54 16.83 14.11 11.67
1629.986 9.53 7.93 6.78 5.88 5.15 4.62 4.18 3.77 3.53 3.23
1649.276 2.95 2.86 2.83 2.61 2.4 2.23 2.12 2.09 1.97 1.85
1668.566 1.81 1.8 1.73 1.66 1.55 1.44 1.45 1.42 1.38 1.26
1687.856 1.21 1.22 1.12 1.18 1.26 1.18 1.24 1.17 1.09 1.18
1707.146 1.14 1.06 0.9949 1.01 1.1 1.2 1.16 0.9836 0.9578 1.03
1726.435 1.09 1.14 1.1 1.16 1.21 1.15 1.21 1.22 1.23 1.32
1745.725 1.41 1.53 1.67 1.75 1.66 1.73 1.74 1.56 1.42 1.31
1765.015 1.22 1.21 1.16 1.04 1.04 1 0.9468 0.9103 0.8385 0.8307
1784.305 0.8733 0.7871 0.7321 0.807 0.8469 0.8206 0.8509 0.8836 0.8541 0.8961
1803.594 0.9345 0.8867 0.8984 0.9427 0.9618 0.9429 0.9403 0.9717 0.9688 0.9743
1822.884 1.02 1.06 1 0.9207 0.9417 0.9345 0.9417 0.9894 0.9957 0.9982
1842.174 1.12 1.22 1.19 1.17 1.18 1.18 1.21 1.26 1.28 1.39
1861.464 1.51 1.62 1.75 1.85 1.92 1.95 1.99 2.07 2.16 2.19
1880.754 2.15 2.14 2.12 2.07 2.01 1.92 1.82 1.73 1.66 1.6
1900.043 1.47 1.37 1.34 1.29 1.23 1.16 1.13 1.09 1.06 1.02
1919.333 0.9534 0.9314 0.9178 0.8686 0.906 0.9469 0.9485 0.9389 0.9777 1.08
1938.623 1.1 1.17 1.24 1.2 1.18 1.22 1.18 1.14 1.22 1.27
1957.913 1.27 1.27 1.21 1.21 1.27 1.27 1.23 1.27 1.31 1.27
1977.202 1.3 1.33 1.29 1.26 1.27 1.2 1.15 1.18 1.14 1.11
1996.492 1.13 1.09 1.05 1.04 1.04 1.05 1.05 1.01 0.9396 0.9351
2015.782 1.01 1.09 1.09 1.09 1.07 1.07 1.19 1.28 1.29 1.34
2035.072 1.41 1.47 1.55 1.69 1.8 1.89 1.94 1.99 2.09 2.13
2054.362 2.16 2.24 2.29 2.19 2.12 2.18 2.25 2.21 2.18 2.18
2073.651 2.16 2.11 2.01 1.95 1.92 1.87 1.72 1.55 1.5 1.41
2092.941 1.3 1.22 1.09 1.08 1.02 0.8507 0.7243 0.6819 0.7095 0.7033
2112.231 0.648 0.6712 0.6013 0.537 0.565 0.5539 0.5337 0.5396 0.5036 0.3639
2131.521 0.3859 0.4136 0.3245 0.3502 0.3739 0.371 0.3996 0.3952 0.3874 0.3456
2150.810 0.2786 0.2911 0.3702 0.3823 0.3745 0.3659 0.3305 0.3001 0.3353 0.3807
2170.100 0.3619 0.3292 0.302 0.3119 0.3514 0.3872 0.4215 0.3693 0.4084 0.4783
2189.390 0.4155 0.3789 0.4388 0.4983 0.5137 0.4854 0.4194 0.4568 0.5356 0.5437
2208.680 0.5558 0.5907 0.5467 0.5628 0.5723 0.5275 0.5894 0.6644 0.632 0.5138
2227.970 0.4567 0.4829 0.4901 0.4757 0.5168 0.5275 0.5113 0.4861 0.4991 0.5671
2247.259 0.5486 0.4741 0.4953 0.5648 0.5559 0.5347 0.6083 0.6903 0.6765 0.6309
2266.549 0.6007 0.6583 0.7276 0.8094 0.807 0.7393 0.8044 0.8462 0.8177 0.8873
2285.839 0.9643 0.9854 0.9455 0.8663 0.88 0.8732 0.8116 0.8081 0.8382 0.8732
2305.129 0.8519 0.8135 0.7926 0.7908 0.8168 0.8285 0.8469 0.8561 0.8432 0.7867
2324.418 0.7178 0.7198 0.7382 0.7134 0.7228 0.7455 0.723 0.6538 0.668 0.7129
2343.708 0.5917 0.548 0.5271 0.436 0.4777 0.4594 0.4668 0.5543 0.5931 0.5542
2362.998 0.4811 0.486 0.4974 0.513 0.5314 0.5749 0.5557 0.5028 0.4605 0.4325
2382.288 0.4994 0.5832 0.6275 0.6229 0.6332 0.6899 0.6587 0.6347 0.7175 0.7633
2401.578 0.7447 0.7162 0.6906 0.7269 0.8491 0.8556 0.8712 0.9262 0.9485 0.9718
2420.867 0.8633 0.8105 0.8844 0.9569 0.9494 0.915 0.9306 0.8256 0.7539 0.7537
2440.157 0.7763 0.9016 0.8539 0.7298 0.6914 0.6901 0.7184 0.733 0.7535 0.7943
2459.447 0.8204 0.822 0.8434 0.8232 0.7956 0.9161 0.9745 0.9216 0.8995 0.9268
2478.737 0.9785 0.9888 1.09 1.14 1.1 1.08 1.05 1.02 0.9943 0.9802
2498.026 1.01 1.01 0.9736 1.03 1.07 1.11 1.15 1.14 1.2 1.28
2517.316 1.18 1.07 1.11 1.22 1.27 1.22 1.24 1.3 1.33 1.37
2536.606 1.34 1.35 1.49 1.5 1.33 1.27 1.4 1.33 1.23 1.21
2555.896 1.17 1.12 1.02 0.9897 0.9788 0.9545 0.9565 0.9887 0.9647 0.9131
2575.186 0.9251 0.9755 0.9556 0.8958 1.03 1.08 1.04 1.06 1.04 1.05
2594.475 1.08 1.11 1.11 1.04 1.01 1.13 1.15 1.19 1.16 1.04
2613.765 1.04 1.03 1.04 1.04 1.02 1.04 1.05 0.965 0.8969 0.9084
2633.055 0.9596 0.9672 0.9808 1.03 0.9739 0.8627 0.8487 0.8593 0.9474 0.9779
2652.345 0.8976 0.7992 0.7701 0.7839 0.7146 0.7762 0.7824 0.6864 0.7444 0.7675
2671.634 0.7583 0.6903 0.616 0.6754 0.7355 0.8009 0.8513 0.8632 0.8958 0.8828
2690.924 0.791 0.8017 0.8313 0.8134 0.9154 0.9781 0.8922 0.8277 0.8286 0.8165
2710.214 0.8886 0.8604 0.7686 0.8565 0.9734 0.9489 0.9518 1.05 0.9859 1.01
2729.504 1.15 1.15 1.16 1.13 1.09 1.21 1.2 1.17 1.26 1.29
2748.794 1.26 1.28 1.38 1.44 1.41 1.45 1.44 1.36 1.46 1.55
2768.083 1.5 1.58 1.72 1.69 1.66 1.72 1.77 1.89 1.99 2.02
2787.373 1.94 1.95 2.18 2.32 2.4 2.58 2.69 2.87 3.06 3.11
2806.663 3.18 3.31 3.51 3.75 4.05 4.26 4.52 4.82 5.11 5.51
2825.953 6.05 6.73 7.55 8.59 9.84 11.37 12.87 14.07 14.87 15.27
2845.242 15.51 15.55 15.22 14.59 13.55 12.38 11.78 11.36 11.03 11.15
2864.532 11.41 11.78 12.22 12.77 13.27 13.8 14.48 14.97 15.4 15.83
2883.822 16.12 16.28 16.47 16.69 16.78 16.9 17.14 17.21 17.28 17.46
2903.112 17.63 17.89 18.23 18.44 18.65 18.94 19.07 19.12 19.25 19.45
2922.401 19.66 19.96 20.38 20.81 21.35 22.08 22.9 23.78 24.46 25.01
2941.691 25.33 25.26 25.1 24.92 24.64 24.15 23.69 23.51 23.41 23.45
2960.981 23.68 23.92 24.43 25.28 26.29 27.44 28.82 30.5 32.2 33.69
2980.271 34.6 34.63 33.94 32.81 31.31 29.37 27.2 25.04 23.28 22.63
2999.561 22.72 23.05 23.24 22.95 22.42 21.54 20.41 18.98 17.18 15.32
3018.850 13.66 12.48 11.75 11.44 11.19 11.09 11.17 11.2 11.2 11.03
3038.140 10.69 10.39 10.11 9.55 8.82 8.3 7.74 7.4 7.31 7.05
3057.430 6.96 6.93 6.89 6.95 7.05 7.15 7.28 7.48 7.48 7.43
3076.720 7.32 7.15 7.04 6.78 6.5 6.31 6.08 5.86 5.66 5.45
3096.009 5.34 5.19 5.03 4.92 4.69 4.54 4.28 3.9 3.73 3.59
3115.299 3.41 3.26 3.12 2.94 2.59 2.39 2.36 2.14 2.01 2.05
3134.589 1.97 1.79 1.71 1.68 1.56 1.42 1.4 1.3 1.03 1.04
3153.879 1.2 1.09 0.9821 1.05 1.16 1.07 0.9783 1.04 1.02 0.8917
3173.169 0.8568 0.8744 0.839 0.925 0.9131 0.7343 0.7575 0.8654 0.8079 0.7738
3192.458 0.7506 0.6251 0.6069 0.7164 0.7292 0.7757 0.8291 0.7844 0.8958 0.942
3211.748 0.9625 0.8513 0.5987 0.6059 0.7552 0.8261 0.7134 0.7026 0.7929 0.7736
3231.038 0.7543 0.6604 0.6059 0.6248 0.6428 0.7441 0.6677 0.6511 0.6939 0.6363
3250.328 0.5359 0.4274 0.4784 0.5717 0.5788 0.4349 0.4396 0.526 0.4734 0.407
3269.617 0.3765 0.3796 0.3869 0.4124 0.4134 0.3995 0.4411 0.4585 0.4465 0.3778
3288.907 0.4101 0.4429 0.4127 0.3168 0.1638 0.2892 0.3951 0.2794 0.2737 0.2011
3308.197 0.3046 0.4988 0.4557 0.44 0.3853 0.4349 0.5282 0.4231 0.3597 0.372
3327.487 0.3651 0.4177 0.5328 0.6535 0.5589 0.4612 0.4093 0.3197 0.429 0.5405
3346.777 0.5893 0.5895 0.4058 0.3374 0.3766 0.3593 0.3199 0.3317 0.4657 0.6238
3366.066 0.6854 0.635 0.5723 0.4209 0.3497 0.357 0.4365 0.5258 0.6011 0.784
3385.356 0.7265 0.537 0.531 0.6275 0.6965 0.5909 0.3625 0.4308 0.5376 0.535
3404.646 0.6223 0.7323 0.853 0.7719 0.7411 0.6849 0.5846 0.6933 0.821 0.8146
3423.936 0.563 0.5349 0.6957 0.648 0.5427 0.5704 0.6513 0.6565 0.6312 0.594
3443.225 0.5278 0.4519 0.4154 0.4511 0.504 0.5461 0.5575 0.5706 0.6542 0.6337
3462.515 0.4154 0.4241 0.5636 0.4961 0.5198 0.5755 0.4477 0.3857 0.324 0.4642
3481.805 0.6803 0.57 0.367 0.3347 0.4435 0.5089 0.4608 0.3834 0.3808 0.4259
3501.095 0.5411 0.6027 0.5601 0.5246 0.6131 0.6625 0.5205 0.5266 0.6342 0.5915
3520.385 0.4653 0.3402 0.3692 0.4619 0.4911 0.5202 0.5334 0.5356 0.5645 0.5919
3539.674 0.571 0.5918 0.5014 0.4559 0.5985 0.4315 0.4124 0.6702 0.736 0.579
3558.964 0.4579 0.6155 0.7338 0.685 0.6533 0.5971 0.5297 0.5026 0.4535 0.3684
3578.254 0.3424 0.625 0.6411 0.3415 0.5185 0.6251 0.5319 0.4688 0.4738 0.602
3597.544 0.6003 0.5894 0.7102 0.6353 0.7326 1.21 1.12 1.09 1.34 1.38
3616.833 1.4 1.66 1.99 2.19 2.38 2.62 3 3.39 3.84 4.28
3636.123 4.8 5.3 5.81 6.55 7.08 7.42 7.58 7.54 7.33 6.87
3655.413 6.58 6.11 5.4 4.76 4.12 3.5 3.07 2.75 2.43 2.12
3674.703 1.81 1.56 1.46 1.37 1.13 1.13 1.12 1.04 1.04 0.9499
3693.993 0.8 0.7331 0.743 0.764 0.7709 0.7378 0.671 0.6768 0.7234 0.6326
3713.282 0.6322 0.7336 0.7508 0.6915 0.7305 0.7502 0.7075 0.7135 0.5941 0.5854
3732.572 0.7392 0.7484 0.6961 0.5921 0.5826 0.7267 0.8135 0.7476 0.6278 0.6362
3751.862 0.6029 0.5437 0.5792 0.7223 0.8214 0.7753 0.719 0.5445 0.3492 0.3667
3771.152 0.5277 0.5155 0.3766 0.554 0.785 0.624 0.5084 0.5435 0.5291 0.5416
3790.441 0.5362 0.5223 0.5589 0.6039 0.5533 0.4255 0.4564 0.5305 0.5585 0.6864
3809.731 0.6599 0.4963 0.452 0.497 0.3865 0.4672 0.5711 0.449 0.4761 0.5258
3829.021 0.4043 0.4579 0.677 0.6643 0.7016 0.7798 0.6748 0.6232 0.6899 0.6951
3848.311 0.5533 0.5304 0.7079 0.8238 0.8238 0.8465 0.9346 0.9308 0.959 0.8926
3867.601 0.6688 0.7581 0.8005 0.7408 0.7687 0.8154 1.01 1.11 1.04 1.01
3886.890 1.09 0.8995 0.7602 0.8184 0.7664 0.7966 0.7506 0.7257 0.7242 0.8853
3906.180 0.9098 0.5623 0.541 0.7363 0.5548 0.4884 0.7745 0.7947 0.7793 0.8272
3925.470 0.8604 0.9518 0.9138 0.6877 0.5476 0.5659 0.6151 0.7476 0.7104 0.6575
3944.760 0.7537 0.7522 0.6924 0.7735 0.6471 0.389 0.5241 0.7701 0.8561 0.7314
3964.049 0.6344 0.7762 0.7623 0.7289 0.7344 0.7045 0.6399 0.4644 0.5447 0.6626
3983.339 0.6164 0.689 0.7466 0.7902 0.7621 0.7204 0.8557 0.8458 0.7248 0.632
##END=
