##TITLE=o-Nitrophenyl isocyanate
##JCAMP-DX=4.24
##DATA TYPE=INFRARED SPECTRUM
##ORIGIN=EPA-IR VAPOR PHASE LIBRARY
##OWNER=SRD/NIST
Collection (C) 2018 copyright by the U.S. Secretary of Commerce
on behalf of the United States of America. All rights reserved.
##CAS REGISTRY NO=3320-86-3
##MOLFORM=C 7 H 4 N 2 O 3
##$NIST SOURCE=MSDC-IR
##STATE=gas
##XUNITS=1/CM
##YUNITS=ABSORBANCE
##XFACTOR=1.
##YFACTOR=0.001
##DELTAX=1.92898
##FIRSTX=549.8
##LASTX=4000.7
##FIRSTY=1.599
##MAXX=4000.7
##MINX=549.759
##MAXY=0.017399
##MINY=0
##NPOINTS=1790
##XYDATA=(X++(Y..Y))
549.759 1.599 1.519 1.409 1.379 1.459 1.559 1.779 1.669 1.1957 1.2539
569.049 1.389 1.2153 1.022 1.0254 1.2289 1.369 1.3427 1.2138 1.0693 0.7285
588.339 0.7201 0.7638 0.7588 1.1086 1.0409 0.8128 0.9094 0.9457 1.0128 1.0042
607.628 0.9753 1.0195 0.8494 0.8058 0.8938 1.0228 1.2609 1.1951 0.8747 0.9297
626.918 1.0964 1.0044 1.1133 1.1544 1.0809 1.0909 1.0962 1.1865 1.1866 1.2596
646.208 1.479 1.3581 1.3059 1.459 1.639 1.779 1.899 1.859 1.759 1.979
665.498 2.049 1.979 2.109 2.369 2.389 2.289 2.329 2.459 2.499 2.349
684.787 2.269 2.369 2.489 2.489 2.279 2.149 2.029 1.789 1.809 1.809
704.077 1.679 1.749 1.689 1.689 1.809 1.709 1.779 1.979 2.119 2.379
723.367 2.619 2.989 3.339 3.629 4.079 4.489 4.879 5.509 6.469 7.549
742.657 7.499 5.849 4.719 4.479 4.269 4.089 3.699 3.329 3.079 2.719
761.947 2.489 2.179 1.989 1.919 1.779 1.809 1.879 1.879 1.779 1.639
781.236 1.539 1.389 1.2697 1.2767 1.2553 1.2491 1.2428 1.2343 1.2848 1.2815
800.526 1.2476 1.2985 1.539 1.599 1.569 1.599 1.449 1.419 1.599 1.659
819.816 1.769 1.759 1.469 1.429 1.409 1.509 1.559 1.449 1.549 1.429
839.106 1.2304 1.399 1.619 1.539 1.369 1.419 1.689 1.869 1.839 1.959
858.395 2.349 2.659 2.769 2.929 3.179 3.189 3.119 3.029 2.889 2.869
877.685 2.739 2.329 1.909 1.699 1.469 1.2512 1.1575 1.0333 0.8415 0.7726
896.975 0.9414 1.0944 1.0006 0.9394 0.8438 0.6097 0.5929 0.6596 0.7031 0.792
916.265 0.714 0.6982 0.818 0.8257 0.7781 0.7705 0.7464 0.749 0.7382 0.7711
935.555 0.8019 0.7421 0.7123 0.6006 0.6944 0.9013 0.7972 0.6288 0.6519 0.6817
954.844 0.6032 0.6562 0.7082 0.8043 0.8841 0.7503 0.7824 0.9143 0.9425 0.8407
974.134 0.8474 0.8793 0.6889 0.6526 0.8147 0.8676 0.7946 0.6747 0.5465 0.6293
993.424 0.7135 0.6336 0.6246 0.6929 0.7552 0.7932 0.9612 1.1197 0.9001 0.7841
1012.714 0.7849 0.9163 1.1793 1.0337 1.0152 1.2753 1.3488 1.2302 1.0677 0.8913
1032.003 0.8129 1.0675 1.0206 0.735 0.64 0.5341 0.6994 0.9145 0.8651 0.7486
1051.293 0.6196 0.5617 0.7471 0.8114 0.9333 1.0238 0.8771 0.7893 0.8942 1.1681
1070.583 0.9977 0.5312 0.5105 0.6662 0.5955 0.8049 1.038 0.9153 0.7262 0.686
1089.873 0.538 0.182 0.184 0.39436 0.42152 0.6144 0.8849 0.9292 0.9658 0.8872
1109.163 1.1358 1.1674 0.86 0.8305 0.8213 0.7887 0.6108 0.3212 0.3045 0.578
1128.452 0.5921 0.211 0.3051 0.8167 0.806 0.7105 0.9001 0.9868 1.0389 1.1351
1147.742 1.429 1.449 1.599 2.279 2.919 3.189 3.029 3.249 3.449 3.029
1167.032 2.739 2.749 2.569 2.259 2.019 1.829 1.3454 0.9348 0.6577 0.5432
1186.322 0.43872 0.2773 0.3166 0.3365 0.229 0.082 0.161 0.172 0.165 0.3189
1205.611 0.5804 0.5616 0.2612 0.22 0.363947 0.4696 0.34938 0.3224 0.6927 0.6934
1224.901 0.34938 0.243 0.3242 0.5909 0.8752 1.0748 1.1978 1.579 2.199 2.499
1244.191 2.809 3.239 3.559 4.099 4.709 5.299 5.889 6.399 6.839 6.869
1263.481 6.659 6.409 6.139 5.899 5.569 4.979 4.309 3.809 3.349 3.099
1282.771 3.229 3.319 3.339 3.539 3.749 3.869 3.969 3.969 3.979 3.959
1302.060 3.769 3.559 3.259 2.899 2.569 2.329 2.199 2.159 2.249 2.399
1321.350 2.669 3.059 3.539 4.279 5.199 6.209 7.329 8.619 9.949 11.129
1340.640 12.069 12.809 13.199 13.309 13.209 12.739 11.929 10.949 9.749 8.269
1359.930 6.569 4.899 3.569 2.729 2.189 1.809 1.629 1.479 1.419 1.389
1379.219 1.339 1.304 1.2423 1.1739 1.1459 1.1219 1.0703 0.9869 0.9637 0.9279
1398.509 0.9137 0.9684 0.9229 0.9007 0.9124 0.8747 0.8811 0.8718 0.8461 0.8623
1417.799 0.8213 0.7866 0.8518 0.9162 0.9279 0.9894 1.0748 1.1611 1.2583 1.399
1437.089 1.679 1.939 2.069 2.239 2.399 2.479 2.519 2.569 2.619 2.639
1456.378 2.639 2.569 2.419 2.259 2.139 2.089 2.169 2.279 2.409 2.529
1475.668 2.569 2.679 2.829 2.889 2.899 2.929 3.009 3.099 3.189 3.329
1494.958 3.559 3.919 4.439 5.089 5.919 6.969 8.259 9.789 11.409 13.089
1514.248 14.739 16.109 17.019 17.399 17.259 17.009 16.899 16.799 16.309 15.069
1533.538 13.309 11.429 9.599 7.939 6.599 5.519 4.759 4.219 3.819 3.569
1552.827 3.429 3.349 3.309 3.369 3.529 3.739 3.979 4.179 4.429 4.719
1572.117 4.979 5.119 5.209 5.319 5.369 5.319 5.229 5.199 4.939 4.569
1591.407 4.289 4.119 4.039 3.999 4.149 4.529 5.089 5.729 6.509 7.499
1610.697 8.579 9.719 10.909 12.099 13.139 13.849 14.159 14.199 13.939 13.519
1629.986 13.129 12.569 11.689 10.449 8.999 7.539 6.199 5.119 4.229 3.559
1649.276 2.969 2.529 2.179 1.919 1.729 1.559 1.419 1.2912 1.2069 1.1337
1668.566 1.0393 0.9253 0.8861 0.8507 0.8813 0.9071 0.8704 0.8716 0.8213 0.7401
1687.856 0.7565 0.7804 0.7827 0.7756 0.7641 0.727 0.6649 0.6554 0.6218 0.5991
1707.146 0.6406 0.6551 0.6162 0.572 0.5419 0.5436 0.5287 0.5103 0.4999 0.5404
1726.435 0.6011 0.6129 0.5627 0.4889 0.4609 0.4874 0.4971 0.492 0.4697 0.44429
1745.725 0.4922 0.4637 0.36962 0.39 0.464 0.40866 0.37357 0.40124 0.41021 0.40703
1765.015 0.43191 0.44773 0.42296 0.43941 0.4677 0.4872 0.5273 0.567 0.5428 0.5021
1784.305 0.4805 0.4988 0.5652 0.5863 0.5275 0.5044 0.5211 0.5193 0.4633 0.4502
1803.594 0.4709 0.4864 0.5237 0.497 0.42333 0.465 0.5137 0.4823 0.4797 0.4692
1822.884 0.43501 0.43935 0.43997 0.38853 0.368224 0.3481 0.343 0.363816 0.38336 0.42867
1842.174 0.4634 0.45108 0.401 0.3982 0.40989 0.40435 0.39518 0.36977 0.39783 0.43422
1861.464 0.41168 0.34915 0.3257 0.321 0.3255 0.37141 0.40832 0.35782 0.3154 0.38317
1880.754 0.42955 0.45703 0.43438 0.4072 0.43836 0.4993 0.4624 0.40003 0.39968 0.39818
1900.043 0.44839 0.4972 0.5226 0.5875 0.616 0.5824 0.5883 0.5853 0.5562 0.5662
1919.333 0.5394 0.5156 0.5389 0.5375 0.5418 0.5442 0.5452 0.5521 0.5538 0.5632
1938.623 0.558 0.4857 0.4693 0.4881 0.43844 0.43504 0.38956 0.3412 0.40011 0.37161
1957.913 0.3473 0.38756 0.37751 0.39169 0.42201 0.41444 0.363803 0.3412 0.3343 0.2957
1977.202 0.238 0.2647 0.37047 0.41543 0.41554 0.42166 0.45014 0.41113 0.40114 0.42108
1996.492 0.38436 0.3251 0.3045 0.3132 0.3246 0.37325 0.40351 0.3921 0.40866 0.44518
2015.782 0.42485 0.37852 0.36788 0.35731 0.3436 0.35551 0.35257 0.3398 0.36971 0.38959
2035.072 0.368146 0.37629 0.40063 0.41241 0.37549 0.363566 0.39963 0.3784 0.3219 0.367848
2054.362 0.37645 0.37154 0.364926 0.3052 0.3301 0.3442 0.3411 0.3338 0.3329 0.37308
2073.651 0.37269 0.3429 0.38927 0.4168 0.41069 0.37934 0.36922 0.38694 0.361269 0.3364
2092.941 0.3415 0.3348 0.3377 0.3352 0.3238 0.358464 0.359638 0.35869 0.3304 0.3206
2112.231 0.40014 0.3441 0.2826 0.3407 0.37587 0.42048 0.41694 0.42078 0.44598 0.41423
2131.521 0.42608 0.41512 0.37468 0.41677 0.44642 0.45245 0.40491 0.3139 0.3345 0.3303
2150.810 0.3559 0.38294 0.3401 0.38919 0.42763 0.43035 0.4811 0.4871 0.4796 0.4752
2170.100 0.4337 0.38889 0.3831 0.37829 0.37871 0.472 0.4891 0.45203 0.4265 0.45656
2189.390 0.4722 0.44313 0.42715 0.41075 0.43619 0.4599 0.43003 0.39066 0.38109 0.359968
2208.680 0.3387 0.35784 0.41574 0.4585 0.4765 0.42644 0.38534 0.4087 0.42921 0.41802
2227.970 0.3315 0.38183 0.4741 0.4759 0.43363 0.365924 0.3365 0.3346 0.2659 0.273
2247.259 0.40194 0.45467 0.39324 0.3405 0.41058 0.43939 0.41348 0.367119 0.367073 0.32
2266.549 0.252 0.3239 0.38573 0.40839 0.45714 0.43878 0.38169 0.3707 0.3353 0.3315
2285.839 0.35096 0.37737 0.39746 0.42646 0.43735 0.42406 0.45261 0.43073 0.43003 0.4675
2305.129 0.4843 0.4872 0.4683 0.42846 0.41848 0.39205 0.42219 0.44492 0.37818 0.40422
2324.418 0.40966 0.40919 0.40757 0.44932 0.527 0.41469 0.37412 0.44956 0.4607 0.39118
2343.708 0.37765 0.44567 0.40855 0.40326 0.43212 0.43825 0.4986 0.43978 0.339 0.41565
2362.998 0.4644 0.4733 0.503 0.4994 0.5093 0.5074 0.41312 0.41658 0.4781 0.43658
2382.288 0.41465 0.4238 0.42222 0.367745 0.38303 0.38853 0.38774 0.4633 0.40442 0.362781
2401.578 0.40908 0.3198 0.368914 0.5275 0.5319 0.501 0.45282 0.45033 0.4669 0.41629
2420.867 0.37423 0.41467 0.4749 0.475 0.45548 0.45556 0.4998 0.53 0.4981 0.4649
2440.157 0.4698 0.5246 0.592 0.5695 0.5246 0.5661 0.5167 0.4844 0.5197 0.4643
2459.447 0.44991 0.4534 0.41274 0.4026 0.43692 0.43365 0.44146 0.43159 0.362117 0.3304
2478.737 0.40344 0.45092 0.42221 0.358253 0.3176 0.397 0.44242 0.38006 0.39318 0.44324
2498.026 0.42969 0.4368 0.4267 0.4692 0.43371 0.3071 0.367114 0.45752 0.367837 0.3455
2517.316 0.39325 0.3302 0.39226 0.44316 0.3355 0.3326 0.40094 0.41503 0.3391 0.247
2536.606 0.2978 0.41922 0.45681 0.4194 0.361004 0.41293 0.4701 0.3951 0.38837 0.4611
2555.896 0.4731 0.43751 0.42019 0.4717 0.4705 0.358807 0.2884 0.37144 0.42017 0.3381
2575.186 0.3377 0.41629 0.5438 0.5712 0.45037 0.40668 0.463 0.5366 0.5557 0.4985
2594.475 0.44639 0.45312 0.4738 0.5242 0.551 0.5103 0.43327 0.3364 0.35406 0.45112
2613.765 0.514 0.5711 0.5558 0.4857 0.5263 0.4599 0.332 0.40935 0.45692 0.4712
2633.055 0.477 0.44427 0.40587 0.43251 0.4781 0.41845 0.39858 0.38342 0.42532 0.467
2652.345 0.45895 0.42876 0.3431 0.34973 0.41073 0.43194 0.4652 0.521 0.5246 0.4321
2671.634 0.361506 0.41499 0.44299 0.39433 0.44175 0.5403 0.5264 0.5485 0.5614 0.4865
2690.924 0.43634 0.42968 0.4436 0.4625 0.462 0.4812 0.5537 0.5284 0.4726 0.5109
2710.214 0.4803 0.39116 0.35165 0.368238 0.42309 0.44993 0.4599 0.44924 0.41505 0.365547
2729.504 0.3481 0.35628 0.35155 0.38181 0.38972 0.38836 0.38207 0.41421 0.42999 0.42023
2748.794 0.40521 0.45666 0.5253 0.4879 0.5057 0.502 0.4768 0.52 0.4924 0.41305
2768.083 0.367983 0.4628 0.5074 0.4757 0.5395 0.5599 0.5301 0.5038 0.5872 0.5794
2787.373 0.41427 0.3361 0.44276 0.5468 0.4972 0.42129 0.4825 0.5196 0.43176 0.43496
2806.663 0.5423 0.5898 0.42714 0.34974 0.38704 0.41192 0.42443 0.37558 0.38608 0.45466
2825.953 0.5232 0.5281 0.549 0.5432 0.5247 0.5289 0.4828 0.45529 0.43381 0.5081
2845.242 0.5825 0.5523 0.6023 0.663 0.6167 0.5267 0.5265 0.6318 0.7018 0.6313
2864.532 0.6238 0.6081 0.5997 0.626 0.58 0.6227 0.6348 0.5824 0.6305 0.6029
2883.822 0.5618 0.4975 0.4737 0.5409 0.5373 0.5083 0.4622 0.5073 0.45775 0.4692
2903.112 0.5581 0.5881 0.6006 0.4981 0.4523 0.45769 0.44988 0.5341 0.6715 0.736
2922.401 0.616 0.43303 0.39379 0.43783 0.42459 0.4627 0.42138 0.368785 0.4987 0.5719
2941.691 0.5159 0.5334 0.5225 0.5497 0.5892 0.4636 0.4895 0.5037 0.43882 0.40607
2960.981 0.44008 0.4703 0.5448 0.5167 0.362813 0.40678 0.5621 0.6069 0.5638 0.5609
2980.271 0.4944 0.44542 0.552 0.5909 0.5534 0.5049 0.4687 0.4691 0.44101 0.37809
2999.561 0.3279 0.41659 0.4675 0.45278 0.4904 0.4644 0.4671 0.536 0.5971 0.5968
3018.850 0.5104 0.526 0.5304 0.584 0.6987 0.76 0.7594 0.764 0.7306 0.7201
3038.140 0.8907 0.9863 1.0471 1.1159 1.1514 1.218 1.2683 1.2737 1.3286 1.389
3057.430 1.3343 1.369 1.399 1.369 1.439 1.489 1.469 1.539 1.619 1.549
3076.720 1.519 1.409 1.3447 1.419 1.3367 1.3011 1.369 1.3104 1.1647 1.0803
3096.009 1.026 0.95 0.7694 0.8161 0.8772 0.7471 0.603 0.4719 0.3989 0.38271
3115.299 0.233 0.217 0.38814 0.42358 0.4785 0.5158 0.5549 0.4438 0.40843 0.4484
3134.589 0.40865 0.466 0.5779 0.41471 0.21 0.2901 0.41697 0.5657 0.5078 0.363427
3153.879 0.41622 0.35042 0.3091 0.3479 0.243 0.3022 0.42772 0.45762 0.42693 0.471
3173.169 0.5865 0.527 0.4996 0.45291 0.2671 0.2901 0.40092 0.2605 0.2608 0.39422
3192.458 0.42749 0.5306 0.5365 0.44103 0.368112 0.35863 0.3725 0.39281 0.39305 0.4598
3211.748 0.4795 0.45041 0.42537 0.41421 0.45329 0.45219 0.44388 0.4774 0.4855 0.39646
3231.038 0.37096 0.3281 0.3014 0.2974 0.36829 0.38506 0.37352 0.4405 0.361719 0.225
3250.328 0.2887 0.39859 0.3405 0.37358 0.37881 0.279 0.3045 0.35539 0.2888 0.3081
3269.617 0.3077 0.2728 0.2962 0.2805 0.37918 0.333 0.134 0.182 0.3307 0.3404
3288.907 0.2794 0.3088 0.248 0.135 0.2751 0.3446 0.3065 0.360544 0.3217 0.2943
3308.197 0.3462 0.35379 0.3129 0.2819 0.3714 0.3328 0.278 0.3105 0.2651 0.2723
3327.487 0.3114 0.3787 0.38811 0.35348 0.3074 0.41437 0.39969 0.234 0.2715 0.2906
3346.777 0.41888 0.5113 0.4049 0.3042 0.2904 0.209 0.2746 0.3442 0.36998 0.39119
3366.066 0.3163 0.3354 0.2905 0.35184 0.5133 0.7288 0.7991 0.7891 0.805 0.7704
3385.356 0.9359 1.1826 1.409 1.679 1.899 2.089 2.439 2.889 3.139 3.329
3404.646 3.689 3.829 3.769 3.819 3.879 3.709 3.379 3.049 2.759 2.559
3423.936 2.169 1.689 1.509 1.2419 0.8832 0.8306 0.7895 0.5258 0.3966 0.4658
3443.225 0.37222 0.3286 0.37021 0.43358 0.4676 0.42559 0.3455 0.44599 0.5891 0.6071
3462.515 0.5189 0.5516 0.5382 0.360652 0.4627 0.5529 0.6073 0.7246 0.6745 0.5626
3481.805 0.6896 0.9189 0.915 0.8416 0.8534 1.0129 1.2789 1.2768 1.2279 1.399
3501.095 1.419 1.379 1.629 1.809 1.859 1.819 1.859 2.029 2.169 2.439
3520.385 2.689 2.739 2.719 2.809 2.819 2.769 2.589 2.379 2.369 2.329
3539.674 2.119 1.879 1.729 1.529 1.2512 1.1494 1.1769 0.9572 0.7384 0.6074
3558.964 0.5554 0.7013 0.6355 0.4704 0.42512 0.366101 0.236 0.222 0.183 0.122
3578.254 0.112 0.097 0.127 0.111 0.143 0.3015 0.40369 0.3116 0.3368 0.39253
3597.544 0.38452 0.38282 0.3512 0.176 0.224 0.4777 0.45729 0.2717 0.239 0.235
3616.833 0.119 0.174 0.233 0.283 0.3396 0.205 0.162 0.225 0.221 0.3217
3636.123 0.304 0.2794 0.3159 0.246 0.41396 0.5371 0.42352 0.38584 0.37935 0.45667
3655.413 0.5036 0.2673 0.202 0.3812 0.37278 0.39454 0.42376 0.361172 0.2826 0.2618
3674.703 0.259 0.239 0.2699 0.3514 0.2691 0.154 0.199 0.194 0.3475 0.39032
3693.993 0.247 0.234 0.247 0.3201 0.38207 0.2817 0.2775 0.4164 0.4662 0.4691
3713.282 0.44277 0.3437 0.2999 0.3045 0.265 0.192 0.35088 0.42145 0.3406 0.362161
3732.572 0.257 0.202 0.236 0.214 0.228 0.178 0.15 0.3258 0.329 0.202
3751.862 0.208 0.132 0.04 0.358724 0.38126 0.14 0.176 0.186 0.203 0.222
3771.152 0.2686 0.207 0.108 0.238 0.2745 0.40344 0.5825 0.41949 0.2737 0.118
3790.441 0.163 0.3137 0.2653 0.206 0.3146 0.3073 0.3179 0.3193 0.246 0.2891
3809.731 0.221 0.111 0.024 0.023 0.2611 0.2831 0.175 0.242 0.2777 0.3354
3829.021 0.3173 0.36643 0.39638 0.218 0.155 0.2833 0.324 0.216 0.056 0.051
3848.311 0.167 0.2821 0.182 0.15 0.22 0.079 0.158 0.168 0.163 0.367959
3867.601 0.39939 0.41811 0.39828 0.44683 0.44435 0.362383 0.3338 0.35217 0.35257 0.231
3886.890 0.166 0.086 0.3239 0.5045 0.243 0.243 0.5334 0.7418 0.5256 0.198
3906.180 0.233 0.38254 0.3073 0.223 0.203 0.2594 0.4262 0.4869 0.3488 0.3232
3925.470 0.37481 0.139 0 0.227 0.241 0.239 0.4697 0.4927 0.42447 0.41475
3944.760 0.41617 0.238 0.141 0.226 0.3424 0.40071 0.359252 0.332 0.2836 0.35164
3964.049 0.40016 0.39502 0.5367 0.41188 0.2773 0.224 0.121 0.3254 0.4974 0.4903
3983.339 0.2947 0.034 0.063 0.06 0.161 0.3307 0.2855 0.221 0.13 0.238
##END=
