##TITLE=3,5-Dichloro-2-hydroxyacetophenone
##JCAMP-DX=4.24
##DATA TYPE=INFRARED SPECTRUM
##ORIGIN=EPA-IR VAPOR PHASE LIBRARY
##OWNER=SRD/NIST
Collection (C) 2018 copyright by the U.S. Secretary of Commerce
on behalf of the United States of America. All rights reserved.
##CAS REGISTRY NO=3321-92-4
##MOLFORM=C 8 H 6 Cl 2 O 2
##$NIST SOURCE=MSDC-IR
##STATE=gas
##XUNITS=1/CM
##YUNITS=ABSORBANCE
##XFACTOR=1.
##YFACTOR=0.001
##DELTAX=1.92898
##FIRSTX=549.8
##LASTX=4000.7
##FIRSTY=29.26
##MAXX=4000.7
##MINX=549.759
##MAXY=0.34008
##MINY=0.0003305
##NPOINTS=1790
##XYDATA=(X++(Y..Y))
549.759 29.26 33.22 35.75 37.96 39.79 38.98 33.81 27.03 22.6 18.93
569.049 14.81 12.11 10.9 10 8.3 7.17 7.3 7.08 6.43 6.64
588.339 6.39 6.09 6.63 6.76 6.5 6.22 6.21 6.43 6.95 7.06
607.628 6.67 6.25 6.54 6.59 6.15 6.46 7.36 8.29 9.73 12.24
626.918 15.44 20.83 28.73 38.08 48.09 57.67 63.95 66.37 66.46 64
646.208 58.47 49.43 39.73 31.26 24.09 19.56 16.63 14.72 13.85 13.12
665.498 13.14 13.24 13 12.7 12.42 12.15 12.22 12.47 12.3 12.87
684.787 13.47 13.75 14.26 14.25 14.29 14.3 14.36 14.63 14.28 14.29
704.077 15.06 15.86 16.89 17.76 19.61 22.58 25.68 29.93 35.63 42.22
723.367 49.02 56.77 65.7 74.15 82.15 89.28 95.07 100.34 103.67 104.22
742.657 102.62 99.04 94.24 89.23 83.42 76.51 69.88 64.31 59.89 56.36
761.947 53.92 52.19 50.61 49.81 49.45 48.89 48.44 47.6 47.03 47.14
781.236 47.14 46.72 46.41 45.53 44.25 42.88 40.97 39.08 36.93 34.66
800.526 32.54 31.17 30.55 30.38 31.08 32.31 33.99 35.45 36.23 36.73
819.816 35.87 33.13 29.66 26.29 22.24 17.74 14.11 11.87 10.17 9.18
839.106 9.1 9.03 8.98 9.51 10.65 12.55 15.74 20.77 27.81 36.82
858.395 47.8 59.27 70.89 82.49 86.15 77.39 67.48 59.59 48.62 36.1
877.685 26.46 21.1 18.14 16.49 15.67 15.6 16.23 16.01 13.83 11.75
896.975 10.57 9.41 8.35 7.35 6.45 6.11 5.74 5.39 5.44 5.66
916.265 5.93 5.96 5.65 5.22 5.37 5.54 5.14 4.93 5.33 5.68
935.555 5.79 6.35 6.94 7.17 7.52 8.02 8.57 8.87 9.6 11.01
954.844 12.02 13.38 15.18 17.13 19.32 21.27 22.94 24.09 24.47 23.66
974.134 22.17 20.24 17.62 14.8 12.21 10.3 8.77 7.49 6.66 5.97
993.424 5.82 5.52 5.01 4.77 4.68 4.65 4.45 4.8 5.14 5.28
1012.714 5.97 6.29 6.16 6.63 7.71 8.65 9.25 8.94 8.15 8.23
1032.003 8 7.19 6.58 6.58 6.6 6.26 6.12 5.28 4.92 4.91
1051.293 5.23 5.85 5.65 5.74 5.5 5.31 5.43 5.06 5.94 6.49
1070.583 5.82 6.84 8.13 9.23 10.55 10.76 11.42 12.74 13.61 14.64
1089.873 15.27 15.87 16.37 15.39 14.71 15.21 15.35 15.72 17.38 19.87
1109.163 20.72 20.67 21.49 21.33 21.03 21.13 21.12 22.11 23.38 25.48
1128.452 27.52 29.52 31.63 31.98 31.71 31.78 30.01 27.35 25.81 24.01
1147.742 24.49 26.39 28.16 32.02 37.51 44.28 53.42 65.53 78.87 93.6
1167.032 110.06 124.25 134.85 141.31 143.17 139.78 130.77 116.49 100.66 84.56
1186.322 69.81 58.81 51.85 48.61 48.71 52.61 58.69 67.41 80.12 96.04
1205.611 113.29 131.85 151.49 173.27 197.19 219.39 239.15 253.2 258.27 256.49
1224.901 247.66 231.81 210.42 184.75 158.1 135.35 117.83 104.37 93.99 86.78
1244.191 80.62 73.97 67.44 62.21 58.67 55.76 53.01 50.91 49.44 48.37
1263.481 47.73 47.9 48.84 51.24 55.31 59.69 65.07 71.72 78.85 86.88
1282.771 96.09 106.57 119.09 134.29 152.12 172.43 194.8 217.31 237.75 253.21
1302.060 261.35 260.49 249.91 230.95 204.91 175.01 144.73 117.47 96 81.43
1321.350 73.1 68.98 67.46 67.33 67.96 69.01 70.22 71.39 72.58 73.71
1340.640 74.74 75.45 75.53 75.41 75.14 74.83 75.17 76.34 78.58 82.37
1359.930 87.54 93.72 100.11 105.48 109.12 110.85 110.11 106.5 100.7 93.76
1379.219 86.21 79.02 72.55 67 62.62 59.59 57.95 57.4 57.81 59.09
1398.509 61.27 64.24 67.83 72.31 77.73 84.63 93.56 105.1 119.27 136.24
1417.799 155 175.9 197.81 221.32 247.67 275.1 301.65 323.35 336.87 340.08
1437.089 332.81 316.73 292.5 262.15 227.88 193.59 162.95 138.95 120.31 105.61
1456.378 92.47 79.82 69.04 60.08 53.42 48.36 44.62 41.68 39.15 37.25
1475.668 36.03 34.73 33.68 32.82 32.12 31.63 31.27 31.09 30.76 30.15
1494.958 29.53 28.9 28.12 27.2 26.42 25.63 24.95 24.5 24.17 23.63
1514.248 23.31 23.08 22.84 22.82 22.74 22.7 22.68 22.58 22.47 22.41
1533.538 22.35 21.87 21.49 21.25 20.88 20.55 20.12 19.68 19.5 19.19
1552.827 18.64 18.24 17.84 17.4 17.17 17.01 16.86 16.8 16.96 17.2
1572.117 17.33 17.51 17.75 18.12 18.66 19.3 20.17 21.23 22.69 24.57
1591.407 26.82 29.44 32.58 36.14 39.55 42.4 44.64 46.08 46.28 45.61
1610.697 44.22 41.95 39.58 37.08 34.97 33.55 32.56 32.22 32.89 33.83
1629.986 34.95 36.38 38.21 41.08 44.63 48.81 54.61 62.23 72.67 87.07
1649.276 105.33 126.91 155.49 186.07 213.74 238.16 254.54 261.99 259.25 246.79
1668.566 224.38 195.54 165.17 136.15 110.68 91.31 76.11 64.95 56.19 49.47
1687.856 44.32 39.78 35.85 32.36 29.35 27.03 25.29 23.94 23.31 22.74
1707.146 22.42 22.33 22.18 21.94 21.59 21.19 20.89 20.82 20.61 20.33
1726.435 19.81 18.8 17.59 16.28 14.96 13.76 12.74 11.87 11.25 10.85
1745.725 10.78 10.84 10.92 10.84 10.61 10.54 10.48 10.27 10.07 10
1765.015 10.1 10.02 9.74 9.6 9.46 9.26 8.92 8.53 7.97 7.33
1784.305 6.72 5.95 5.39 5 4.53 4.12 3.87 3.54 3.28 3.23
1803.594 2.95 2.7 2.74 2.7 2.6 2.7 2.71 2.72 2.78 2.74
1822.884 2.75 2.67 2.67 2.64 2.58 2.58 2.47 2.53 2.47 2.33
1842.174 2.25 2.17 2.2 2.22 2.33 2.5 2.55 2.53 2.44 2.43
1861.464 2.45 2.45 2.46 2.39 2.36 2.3 2.2 2.16 2.15 2.17
1880.754 2.17 2.07 1.97 2.01 2.1 1.9 1.87 2.01 2 2.01
1900.043 1.92 2.05 2.17 2.19 2.19 2.18 2.16 2.22 2.26 2.31
1919.333 2.38 2.27 2.18 2.14 2.18 2.24 2.36 2.35 2.29 2.33
1938.623 2.31 2.32 2.28 2.26 2.36 2.43 2.42 2.29 2.24 2.27
1957.913 2.28 2.27 2.19 2.29 2.35 2.21 2.13 1.99 1.98 2.07
1977.202 2.02 1.97 1.99 2.14 2.19 2.08 1.94 1.87 2 2.03
1996.492 1.97 2 2.15 2.31 2.39 2.44 2.55 2.62 2.56 2.59
2015.782 2.66 2.67 2.55 2.59 2.61 2.45 2.42 2.41 2.34 2.43
2035.072 2.49 2.44 2.42 2.31 2.2 2.17 2.01 1.94 2.05 2.13
2054.362 1.98 1.8 1.86 1.83 1.71 1.73 1.77 1.62 1.43 1.45
2073.651 1.52 1.44 1.38 1.39 1.46 1.55 1.58 1.52 1.51 1.59
2092.941 1.61 1.55 1.48 1.45 1.5 1.46 1.55 1.67 1.56 1.64
2112.231 1.92 1.98 1.87 1.77 1.75 1.76 1.77 1.79 1.77 1.78
2131.521 1.81 1.86 1.76 1.68 1.74 1.66 1.61 1.76 1.8 1.88
2150.810 1.99 1.92 1.92 1.93 1.85 1.87 1.94 2.08 2.23 2.32
2170.100 2.39 2.43 2.47 2.43 2.39 2.3 2.25 2.24 2.29 2.38
2189.390 2.31 2.22 2.28 2.18 2.02 2.12 2.13 1.92 1.89 1.99
2208.680 1.92 1.76 1.74 1.83 1.99 2.08 1.98 1.99 2 2.11
2227.970 2.16 2.05 2.16 2.26 2.19 2.09 2.1 2.26 2.27 2.13
2247.259 2.06 2.01 1.98 2 1.96 1.92 1.9 1.97 2.01 2.04
2266.549 1.98 1.89 1.94 1.86 1.93 2.14 2.34 2.46 2.28 2.3
2285.839 2.42 2.38 2.37 2.56 2.65 2.7 2.85 2.99 2.93 2.91
2305.129 2.97 3.02 3.08 2.93 2.91 2.87 2.74 2.73 2.67 2.56
2324.418 2.66 2.57 2.52 2.61 2.4 2.25 2.32 2.5 2.65 2.62
2343.708 2.45 2.57 2.63 2.49 2.3 2.09 2.36 2.47 2.3 2.36
2362.998 2.35 2.32 2.4 2.35 2.34 2.41 2.5 2.65 2.76 2.7
2382.288 2.68 2.89 3.05 3.1 3.14 3.21 3.16 3.09 3.12 2.97
2401.578 2.94 3.04 3.07 3.09 3.07 3 2.88 2.77 2.81 2.88
2420.867 2.91 3.11 3.14 3.04 2.94 3 3.14 3.06 3.09 3.1
2440.157 2.92 3.14 3.41 3.23 3.1 3.07 3.1 3.32 3.3 3.24
2459.447 3.44 3.31 3.27 3.32 3.34 3.5 3.66 3.87 4.04 4.05
2478.737 4.08 4.2 4.27 4.29 4.19 3.95 3.88 4.17 4.4 4.44
2498.026 4.48 4.69 4.85 5.04 5.25 5.33 5.26 5.11 5.29 5.63
2517.316 5.74 5.88 6.17 6.36 6.49 6.44 6.44 6.65 6.6 6.57
2536.606 6.69 6.59 6.68 6.81 6.82 6.89 6.89 6.9 6.84 6.86
2555.896 6.89 6.78 6.75 6.76 6.54 6.24 6.36 6.43 6.19 6.08
2575.186 6.03 5.99 6.17 6.34 6.39 6.46 6.44 6.51 6.72 6.87
2594.475 6.76 6.9 7 6.93 6.94 6.83 6.87 6.92 6.77 6.58
2613.765 6.38 6.19 5.97 5.96 6.15 6.08 6.09 6.17 6.2 6.43
2633.055 6.71 6.75 6.71 6.61 6.46 6.62 6.93 7.33 7.62 7.73
2652.345 7.74 7.68 7.85 7.95 7.97 7.89 7.86 8 8.01 8.08
2671.634 7.96 7.68 7.77 8.08 8.04 8.11 8.39 8.14 7.8 8.1
2690.924 8.46 8.57 8.59 8.65 8.82 8.85 8.93 9 9.05 9.03
2710.214 8.9 9 9.16 9.09 8.9 8.95 9.19 9.12 9.02 8.87
2729.504 8.63 8.65 8.96 9.01 8.64 8.58 8.64 8.48 8.47 8.38
2748.794 8.07 8.03 8.01 8.04 8.24 8.6 8.9 8.65 8.45 8.85
2768.083 9.2 9.12 8.99 9.22 9.42 9.35 9.56 9.46 9.32 9.51
2787.373 9.76 9.84 9.83 9.95 9.91 10.11 10.21 10.13 10.28 10.45
2806.663 10.5 10.57 10.73 10.73 10.87 11.01 10.93 11.01 11.02 11.21
2825.953 11.37 11.37 11.55 11.79 11.93 11.99 11.95 11.98 12.23 12.38
2845.242 12.51 12.53 12.78 12.85 12.75 12.77 12.68 12.73 12.94 13.2
2864.532 12.91 12.53 12.76 13.11 12.97 12.84 12.88 12.95 13.2 13.34
2883.822 13.24 13.22 13.52 13.66 13.71 13.88 14.04 13.94 13.95 14.15
2903.112 14.11 14.22 14.2 14.26 14.53 14.5 14.69 14.92 14.69 14.8
2922.401 15.21 15.48 15.89 16.21 16.5 16.97 17.49 17.86 17.74 18.04
2941.691 18.67 18.87 18.92 19.13 19.39 19.26 19.24 19.39 19.58 19.92
2960.981 20.49 20.89 21.09 21.6 22.11 22.52 23 23.24 23.79 24.38
2980.271 24.62 24.93 25.25 25.32 25.3 25.26 24.92 24.79 24.84 25.1
2999.561 25.36 25.5 25.86 26.2 26.56 26.97 27.67 28.8 29.63 30
3018.850 30.54 31.05 31.12 31.07 30.99 30.9 30.46 29.91 29.66 29.41
3038.140 29.08 28.92 28.93 28.82 28.45 28.27 28.42 28.56 28.72 28.82
3057.430 28.9 28.72 28.47 28.83 29.25 29.3 29.25 29.01 28.94 29.34
3076.720 29.99 30.28 30.2 30.53 30.86 31.16 31.51 31.52 31.34 31.1
3096.009 31.12 30.69 30.05 29.96 29.82 30.02 30.18 30.04 30.09 30.22
3115.299 30.33 30.21 30.4 30.52 29.92 29.77 30.19 29.89 29.36 29.24
3134.589 29.11 29.07 28.88 28.76 29.12 29.2 28.83 28.56 28.45 28.08
3153.879 27.48 27.21 27.28 27.31 27.52 27.45 26.93 27.11 26.88 26.41
3173.169 26.92 26.85 26.57 26.37 26.05 26 25.94 25.82 25.36 25.15
3192.458 24.95 24.58 24.67 24.58 24.49 24.45 24.24 24.27 24.49 24.34
3211.748 23.9 23.67 23.39 23.08 23.03 23.09 22.78 22.72 22.7 22.45
3231.038 22.52 22.14 22 22.43 22.08 21.63 21.83 21.77 21.62 21.76
3250.328 21.47 21.37 21.65 21.46 21.11 21 20.73 20.27 20.12 20.08
3269.617 19.64 19.27 19.37 19.25 18.8 18.65 18.74 18.79 18.59 18.68
3288.907 18.64 18.29 18.41 18.31 18.21 18.47 18.52 18.73 18.89 18.75
3308.197 18.81 19.06 19.34 19.25 18.96 18.81 18.57 18.21 18.15 18.1
3327.487 17.68 17.24 16.8 16.4 16.45 16.42 16.09 15.7 15.36 15.34
3346.777 15.38 15.09 14.8 14.6 14.35 14.1 14.15 14.09 13.58 13.39
3366.066 13.02 12.7 12.89 12.93 12.8 12.22 12.02 12.04 11.95 11.82
3385.356 11.36 11 10.84 10.75 11.07 11.62 11.26 10.54 10.15 10.24
3404.646 10.07 9.5 9.18 9.24 9.56 9.8 9.59 9.14 8.81 8.56
3423.936 8.63 8.64 8.6 8.43 7.8 7.7 7.85 7.52 7.1 7.21
3443.225 7.5 7.54 7.42 7.18 7.12 6.71 6.56 6.68 6.36 6.14
3462.515 6.3 6.26 6.12 6.12 5.93 5.73 5.68 5.73 5.94 5.97
3481.805 5.66 5.58 5.68 5.5 5.48 5.37 5.3 5.25 4.92 4.76
3501.095 4.79 4.68 4.43 4.53 4.46 4.44 4.53 4.43 4.18 3.99
3520.385 4.17 4.01 3.71 3.81 4.01 4.06 3.79 3.75 3.92 3.97
3539.674 4.38 4.75 5.33 6.22 6.83 7.86 8.84 9.31 9.82 10.36
3558.964 10.5 9.99 9.32 8.63 7.7 7.04 6.15 5.03 4.68 4.19
3578.254 3.8 3.59 2.99 2.6 2.69 2.88 3.08 2.84 2.23 1.65
3597.544 1.45 1.98 2.1 1.94 2.14 2.01 1.71 1.73 1.74 1.47
3616.833 1.77 2.13 1.67 1.27 1.53 1.51 1.51 1.77 1.54 1.52
3636.123 1.85 1.82 1.53 1.45 1.36 1.09 0.9515 1.19 1.1 1.37
3655.413 1.16 1.26 2.07 1.78 1.37 1.36 1.37 1.37 1.03 1.01
3674.703 1.26 0.7743 0.7112 0.6446 0.7186 1.04 0.9303 1.06 1.24 1.32
3693.993 1.38 1.13 1.01 0.9693 0.8157 1.01 1.12 1.42 1.28 1.06
3713.282 1.22 1.11 1.07 0.827 1.15 1.13 0.8823 0.9708 0.9352 1.18
3732.572 1.01 0.7784 0.6786 0.8112 0.6714 0.5455 0.7207 0.8729 0.8292 0.6431
3751.862 0.7185 0.8775 0.8891 0.8816 1.28 1.38 1.35 1.16 0.8482 0.8585
3771.152 1.11 1.44 1.27 0.7946 0.5666 0.756 0.7343 0.5081 0.3489 0.343
3790.441 0.7338 1.02 1.08 1.16 0.88 0.5525 0.6714 0.7984 0.6754 0.6526
3809.731 0.7032 0.796 0.9882 1.13 1.26 0.9017 0.7687 0.7957 0.4616 0.5778
3829.021 1.1 1.16 0.9887 0.984 0.4719 0.487 1.05 1.51 1.52 1.25
3848.311 1.25 1.22 0.9786 0.7442 0.8049 0.7841 0.8191 0.9227 0.9341 1.21
3867.601 1.26 1.15 0.9682 0.3305 0.3774 0.8612 1.17 1.17 0.9017 1.12
3886.890 1.31 0.8853 0.7618 0.9649 1.04 1.08 1.27 1.32 1.39 1.61
3906.180 1.36 1.12 1.24 1.46 1.25 1.19 1.1 0.8386 0.7761 1.08
3925.470 1.44 1.06 1.06 1.31 1.02 1.09 1.12 0.9847 1.21 1.48
3944.760 1.65 1.52 1.36 1.43 1.56 1.85 1.86 1.59 1.46 1.54
3964.049 1.51 1.36 1.51 1.62 1.83 1.52 1.36 1.5 1.49 1.59
3983.339 1.61 1.51 1.6 1.65 1.51 1.26 1.29 1.41 1.16 1.42
##END=
