##TITLE=p-Pentylaniline
##JCAMP-DX=4.24
##DATA TYPE=INFRARED SPECTRUM
##ORIGIN=EPA-IR VAPOR PHASE LIBRARY
##OWNER=SRD/NIST
Collection (C) 2018 copyright by the U.S. Secretary of Commerce
on behalf of the United States of America. All rights reserved.
##CAS REGISTRY NO=33228-44-3
##MOLFORM=C 11 H 17 N
##$NIST SOURCE=MSDC-IR
##STATE=gas
##XUNITS=1/CM
##YUNITS=ABSORBANCE
##XFACTOR=1.
##YFACTOR=0.001
##DELTAX=1.92898
##FIRSTX=549.8
##LASTX=4000.7
##FIRSTY=8.15
##MAXX=4000.7
##MINX=549.759
##MAXY=0.06527
##MINY=0.00003276
##NPOINTS=1790
##XYDATA=(X++(Y..Y))
549.759 8.15 8.11 7.66 7.25 6.72 6.29 5.85 5.5 5.26 4.9
569.049 4.59 4.23 4 4.19 4.3 4.44 4.53 4.45 4.38 4.16
588.339 4.16 4.01 4.2 4.24 4.09 4.25 4.38 4.27 4.29 4.57
607.628 4.37 4.39 4.67 4.85 4.92 4.95 5.31 5.9 6.17 6.29
626.918 6.85 7.61 8.16 8.77 10 11.21 12.23 13.41 14.76 16.13
646.208 17.4 18.58 19.34 19.5 19.35 19.08 18.37 17.27 16.17 15.37
665.498 14.62 13.82 13 12.38 12.08 11.7 11.32 10.97 10.84 10.72
684.787 10.46 10.11 9.69 9.45 9.11 8.85 8.62 8.26 7.96 7.65
704.077 7.31 6.91 6.82 6.89 6.7 6.53 6.28 6.03 6 5.82
723.367 5.6 5.43 5.57 5.74 5.71 5.68 5.33 5.2 5.34 5.38
742.657 5.55 5.67 5.69 5.74 5.75 5.77 5.82 5.88 5.82 5.84
761.947 5.97 6.15 6.38 6.6 6.82 6.75 6.95 7.2 7.36 7.62
781.236 7.81 8.1 8.38 8.81 9.18 9.53 10.07 10.37 10.63 11.1
800.526 11.38 11.81 12.37 13.1 13.78 14.1 14.56 15.06 15.31 15.28
819.816 14.83 14.32 13.83 13.12 12.46 11.72 10.91 10.28 9.62 8.98
839.106 8.4 7.79 7.22 6.61 6.17 5.78 5.48 5.11 4.8 4.65
858.395 4.32 4.05 3.82 3.51 3.28 3.29 3.3 3.2 3.17 3.18
877.685 3.1 2.92 2.78 2.64 2.5 2.49 2.58 2.63 2.55 2.47
896.975 2.33 2.17 2.24 2.36 2.54 2.41 2.07 2.06 1.99 1.89
916.265 1.85 1.75 1.77 1.84 1.93 2.02 2.2 2.23 2.02 2.05
935.555 2.15 2.24 2.1 1.95 2.08 1.95 1.8 2.01 2.16 2.15
954.844 2.25 2.24 2.35 2.43 2.38 2.31 2.45 2.67 2.54 2.35
974.134 2.35 2.42 2.43 2.57 2.69 2.52 2.29 2.23 2.1 2.02
993.424 2.04 1.98 1.86 1.86 1.68 1.56 1.82 1.8 1.61 1.79
1012.714 2.09 2.33 2.38 2.13 1.97 1.91 1.78 1.64 1.78 2.05
1032.003 2.06 1.78 1.93 2.12 1.94 1.92 2.07 2.01 2.03 2.15
1051.293 2.19 2.39 2.65 2.93 3.37 3.54 3.26 3.43 3.85 4.01
1070.583 3.78 3.67 3.84 3.98 4.43 4.7 4.58 4.52 4.15 4.01
1089.873 4.02 3.39 3.02 3.4 3.72 3.21 2.8 3.16 3.5 3.17
1109.163 3.03 3.61 4.22 4.31 4.51 4.87 4.75 4.66 4.15 3.74
1128.452 3.79 3.48 3.34 3.26 2.91 2.75 2.43 2.15 1.99 1.71
1147.742 1.98 2.17 1.66 1.25 1.27 1.55 1.77 1.76 1.87 2.16
1167.032 2.33 2.84 3.85 5.18 6.53 7.38 7.49 7.37 7.55 7.14
1186.322 5.92 4.36 3.01 2.24 2.01 1.99 2.01 2.01 1.96 1.94
1205.611 1.98 2.02 1.88 1.75 1.81 2.01 2.16 2.18 2.21 2.22
1224.901 2.52 2.79 2.73 2.95 3.18 3.55 4.17 4.67 5.08 5.73
1244.191 6.61 7.67 8.92 10.23 12.01 14.54 17.17 20.31 24.01 27.55
1263.481 30.76 32.99 34.21 33.95 32.31 29.74 26.22 22.22 18.57 15.42
1282.771 12.74 10.52 8.81 7.51 6.55 5.88 5.32 4.97 4.73 4.49
1302.060 4.31 4.19 3.99 3.83 3.72 3.6 3.56 3.47 3.38 3.37
1321.350 3.33 3.37 3.41 3.39 3.45 3.56 3.64 3.68 3.8 3.93
1340.640 4.02 4.05 4.05 4.02 3.96 3.82 3.63 3.52 3.39 3.27
1359.930 3.22 3.12 2.99 2.88 2.81 2.82 2.8 2.8 2.85 2.92
1379.219 3 3.07 3.11 3.08 2.99 2.85 2.66 2.49 2.41 2.28
1398.509 2.19 2.19 2.18 2.17 2.22 2.28 2.37 2.48 2.56 2.61
1417.799 2.7 2.86 2.97 3.01 3.1 3.25 3.45 3.65 3.88 4.13
1437.089 4.38 4.69 5.09 5.5 5.83 6.24 6.7 7.02 7.29 7.56
1456.378 7.75 7.97 8.12 8.15 8.07 7.91 7.74 7.5 7.13 6.74
1475.668 6.42 6.16 5.98 5.77 5.6 5.6 5.74 6 6.44 7.1
1494.958 8.21 9.74 11.66 14.35 18.09 23.01 29.63 37.43 45.1 51.38
1514.248 54.7 54.94 52.53 47.77 40.29 31.68 23.31 16.97 12.82 10.11
1533.538 8.24 6.92 5.97 5.18 4.65 4.25 3.76 3.42 3.31 3.13
1552.827 3.01 2.92 2.86 2.84 2.9 2.81 2.79 2.93 3.03 3.2
1572.117 3.36 3.52 3.79 4.13 4.32 4.6 4.99 5.24 5.58 6.05
1591.407 6.47 6.94 7.39 7.98 8.72 9.61 10.59 11.84 13.33 15.12
1610.697 17.27 19.55 22.09 25.15 28.22 31.07 33.55 35.18 35.79 35.34
1629.986 33.77 31.08 27.63 23.67 19.83 16.33 13.23 10.89 8.98 7.49
1649.276 6.42 5.58 4.91 4.41 4 3.66 3.4 3.15 2.96 2.81
1668.566 2.63 2.52 2.4 2.24 2.1 2.03 2.05 2 1.87 1.77
1687.856 1.76 1.69 1.73 1.85 1.8 1.69 1.71 1.8 1.85 1.8
1707.146 1.73 1.72 1.76 1.75 1.67 1.61 1.61 1.5 1.35 1.35
1726.435 1.33 1.31 1.34 1.29 1.19 1.26 1.34 1.39 1.44 1.51
1745.725 1.55 1.48 1.36 1.33 1.3 1.18 1.1 1.05 0.9582 0.8699
1765.015 0.8217 0.7979 0.7954 0.7682 0.7157 0.7305 0.6844 0.6241 0.6487 0.6655
1784.305 0.6689 0.6652 0.6206 0.6346 0.6836 0.6811 0.6217 0.6058 0.6508 0.608
1803.594 0.5791 0.6362 0.6964 0.7093 0.6966 0.6311 0.656 0.7715 0.8034 0.8066
1822.884 0.7515 0.7081 0.7528 0.7979 0.7938 0.8063 0.8796 0.9844 1.05 1.03
1842.174 1 1.07 1.22 1.34 1.42 1.52 1.63 1.69 1.8 1.89
1861.464 1.92 1.89 1.91 1.97 1.92 1.85 1.79 1.67 1.49 1.38
1880.754 1.32 1.17 1.1 1.04 0.9731 0.9279 0.8795 0.8416 0.8091 0.7927
1900.043 0.8121 0.8672 0.8391 0.787 0.7593 0.828 0.9068 0.8466 0.9166 0.9641
1919.333 0.928 0.9371 0.9333 0.8969 0.8823 0.8758 0.8112 0.7967 0.8031 0.7509
1938.623 0.629 0.5785 0.6346 0.6998 0.717 0.6712 0.6389 0.6187 0.5568 0.5254
1957.913 0.5431 0.5944 0.6119 0.5846 0.5738 0.5589 0.5592 0.5535 0.5252 0.5249
1977.202 0.5785 0.5712 0.5296 0.5331 0.5375 0.5374 0.5298 0.5314 0.5282 0.5259
1996.492 0.5232 0.5266 0.5137 0.5674 0.592 0.503 0.487 0.5217 0.5517 0.6058
2015.782 0.7014 0.6831 0.6486 0.6734 0.6582 0.65 0.6357 0.6719 0.731 0.7596
2035.072 0.805 0.7907 0.7563 0.7289 0.6848 0.6698 0.6553 0.6638 0.6904 0.6772
2054.362 0.6361 0.6877 0.7616 0.7322 0.7524 0.7775 0.7365 0.793 0.7835 0.7502
2073.651 0.7487 0.6937 0.6802 0.6069 0.5689 0.5958 0.5509 0.5905 0.601 0.5294
2092.941 0.6026 0.627 0.5783 0.5533 0.579 0.5868 0.5427 0.5358 0.4965 0.4786
2112.231 0.4785 0.4993 0.4737 0.4063 0.4079 0.4123 0.4218 0.3937 0.3824 0.4114
2131.521 0.3972 0.3121 0.2611 0.391 0.4081 0.3319 0.37 0.3856 0.3738 0.3697
2150.810 0.3965 0.4155 0.4302 0.3893 0.3109 0.3152 0.3745 0.3945 0.4092 0.4508
2170.100 0.4508 0.4372 0.4206 0.4125 0.4105 0.3717 0.3691 0.3823 0.3752 0.3933
2189.390 0.3906 0.4261 0.428 0.3799 0.3313 0.3654 0.3486 0.2818 0.2813 0.2799
2208.680 0.3414 0.3826 0.3871 0.3659 0.3354 0.342 0.3348 0.3127 0.3342 0.3479
2227.970 0.3871 0.3383 0.2904 0.3305 0.3215 0.3078 0.3499 0.4051 0.3815 0.3799
2247.259 0.3944 0.4189 0.3833 0.3484 0.4211 0.467 0.511 0.5121 0.458 0.4393
2266.549 0.4273 0.3929 0.3547 0.3773 0.4533 0.4735 0.5081 0.519 0.4971 0.5323
2285.839 0.5176 0.4336 0.4124 0.431 0.5065 0.5446 0.5306 0.5299 0.4695 0.5238
2305.129 0.5219 0.4904 0.5221 0.4779 0.5012 0.5246 0.536 0.5565 0.5498 0.4938
2324.418 0.4295 0.4165 0.3994 0.4702 0.5139 0.5388 0.5123 0.453 0.4751 0.5078
2343.708 0.427 0.3755 0.4254 0.4454 0.4216 0.4289 0.4831 0.4783 0.4902 0.5281
2362.998 0.5371 0.481 0.4236 0.4259 0.4124 0.3948 0.454 0.5225 0.5193 0.4343
2382.288 0.3843 0.3435 0.2866 0.2873 0.333 0.3838 0.3543 0.3195 0.2788 0.2559
2401.578 0.3332 0.3877 0.3396 0.3379 0.4058 0.3867 0.3255 0.317 0.4291 0.4423
2420.867 0.3776 0.3594 0.3282 0.3069 0.4191 0.5258 0.4067 0.3747 0.3844 0.3665
2440.157 0.4221 0.4299 0.4639 0.4855 0.4894 0.5329 0.4816 0.4285 0.4121 0.4513
2459.447 0.4833 0.389 0.3893 0.4205 0.3762 0.4115 0.3546 0.2741 0.3322 0.2565
2478.737 0.2098 0.289 0.3415 0.3309 0.3214 0.3179 0.3012 0.3055 0.3091 0.2998
2498.026 0.3147 0.3741 0.3439 0.3034 0.3239 0.3888 0.3969 0.3799 0.4095 0.4746
2517.316 0.4704 0.4499 0.5224 0.6598 0.6758 0.6014 0.6519 0.6478 0.5629 0.5744
2536.606 0.6504 0.7404 0.7524 0.7027 0.6931 0.6983 0.6419 0.5091 0.5523 0.5621
2555.896 0.5549 0.5472 0.4641 0.5264 0.5848 0.5787 0.5843 0.5603 0.5636 0.6246
2575.186 0.5678 0.5427 0.6365 0.6047 0.5939 0.6386 0.5357 0.5431 0.6622 0.6557
2594.475 0.634 0.6751 0.6361 0.6275 0.6554 0.6405 0.6727 0.7683 0.8567 0.8046
2613.765 0.7135 0.6688 0.6544 0.6494 0.6187 0.6667 0.749 0.7713 0.8116 0.8181
2633.055 0.8104 0.8451 0.866 0.9056 0.9485 0.9409 0.8873 0.8551 0.9034 0.9072
2652.345 0.9285 0.9692 0.9509 0.9248 0.961 0.9422 0.9284 0.9877 0.9718 0.9422
2671.634 0.9291 0.9848 0.9423 0.8072 0.8442 0.8269 0.7489 0.787 0.8442 0.9193
2690.924 0.9151 0.8626 0.8828 0.9481 0.9679 0.8622 0.7722 0.8152 0.8222 0.7512
2710.214 0.832 0.8978 0.7894 0.7761 0.8629 0.9164 0.9466 1.01 0.9352 0.8939
2729.504 0.9466 0.904 0.9443 1.04 1.07 1.12 1.2 1.26 1.24 1.25
2748.794 1.33 1.32 1.25 1.23 1.18 1.17 1.28 1.25 1.14 1.16
2768.083 1.23 1.21 1.23 1.31 1.4 1.39 1.45 1.64 1.72 1.65
2787.373 1.63 1.7 1.74 1.74 1.83 1.93 2.07 2.09 2.02 2.12
2806.663 2.26 2.42 2.57 2.68 2.74 2.83 2.98 3.07 3.3 3.56
2825.953 3.79 4.1 4.26 4.63 5.09 5.46 6.11 6.77 7.36 8.31
2845.242 9.64 11 12.4 14.12 16.13 18.06 19.98 21.82 23.36 24.54
2864.532 25.26 25.6 25.57 25.15 24.67 24.25 23.79 23.3 22.71 22.24
2883.822 21.77 21.09 20.41 19.72 19 18.51 18.49 18.85 19.34 20.1
2903.112 21.2 22.56 24.19 26.07 28.4 31 33.85 37.24 40.91 44.72
2922.401 48.73 52.81 56.65 59.98 62.72 64.54 65.27 64.78 63.11 60.6
2941.691 57.28 53.29 49 44.87 41.16 37.94 35.73 34.58 34.22 34.53
2960.981 35.16 36.05 36.88 36.98 36.07 34.32 31.92 28.86 25.54 22.17
2980.271 19.06 16.61 14.83 13.67 12.84 12.25 12.01 12.09 12.36 12.77
2999.561 13.26 13.8 14.37 14.88 15.08 15.06 15.06 15.05 15.07 15.24
3018.850 15.68 16.41 17.19 17.89 18.42 18.84 18.85 18.42 17.54 16.33
3038.140 14.93 13.36 11.99 10.77 9.82 9.28 8.98 8.72 8.36 8.12
3057.430 7.9 7.45 7.06 6.81 6.45 5.95 5.55 5.18 4.86 4.62
3076.720 4.33 4.17 3.98 3.85 3.74 3.48 3.35 3.28 3.24 3.29
3096.009 3.14 3.08 2.94 2.73 2.67 2.55 2.52 2.45 2.32 2.11
3115.299 1.87 1.88 1.94 1.78 1.61 1.67 1.7 1.67 1.63 1.5
3134.589 1.53 1.5 1.36 1.35 1.21 1.05 1.07 1.02 1.02 0.96
3153.879 0.7854 0.8633 0.9823 0.9476 0.9157 0.8121 0.7774 0.7459 0.7467 0.823
3173.169 0.7899 0.7251 0.5912 0.5834 0.5883 0.6279 0.6952 0.7629 0.7221 0.6108
3192.458 0.6143 0.5474 0.5722 0.634 0.645 0.656 0.6245 0.7474 0.7699 0.6769
3211.748 0.7165 0.8118 0.8182 0.6275 0.5921 0.6215 0.6273 0.6418 0.6376 0.6294
3231.038 0.7558 0.8758 0.868 0.972 1.03 0.8102 0.5908 0.5742 0.5458 0.5416
3250.328 0.5827 0.5262 0.4083 0.3356 0.3835 0.3596 0.3988 0.4854 0.4079 0.5042
3269.617 0.4854 0.3836 0.2503 0.08279 0.2352 0.303 0.2762 0.2759 0.2815 0.2334
3288.907 0.1602 0.1713 0.2446 0.325 0.2352 0.2019 0.2466 0.1749 0.05682 0.1376
3308.197 0.1554 0.08482 0.3052 0.4195 0.3125 0.27 0.2946 0.2284 0.1133 0.315
3327.487 0.4308 0.2722 0.319 0.2361 0.1108 0.1496 0.1758 0.2024 0.1653 0.1476
3346.777 0.2295 0.4071 0.4768 0.3541 0.3089 0.387 0.4564 0.3494 0.2757 0.3754
3366.066 0.4238 0.4619 0.5115 0.6737 0.8129 0.8756 0.8395 0.9282 1.13 1.13
3385.356 1.19 1.26 1.49 1.87 2.31 2.71 3.04 3.2 3.4 3.86
3404.646 4.04 3.98 3.88 3.65 3.26 2.9 2.76 2.4 1.9 1.64
3423.936 1.54 1.2 0.9293 0.8945 0.9191 1.08 0.9762 0.7971 0.8095 0.6791
3443.225 0.5222 0.6963 0.7711 0.6319 0.8994 1.06 0.9011 1.07 1.13 1.07
3462.515 1.2 1.37 1.42 1.55 1.85 2.04 2.1 2.19 2.31 2.4
3481.805 2.45 2.47 2.69 2.73 2.56 2.5 2.41 2.31 2.39 2.31
3501.095 2.07 1.94 1.65 1.47 1.33 1.14 0.9835 0.8231 0.7418 0.7411
3520.385 0.6133 0.5698 0.6392 0.6111 0.5242 0.4704 0.5156 0.4796 0.4712 0.4329
3539.674 0.3708 0.3499 0.3281 0.3204 0.2712 0.2098 0.2672 0.2558 0.2967 0.2927
3558.964 0.2879 0.4552 0.4267 0.3238 0.1703 0.1225 0.07391 0.09095 0.237 0.1747
3578.254 0.172 0.2355 0.1712 0.2121 0.2519 0.1505 0.1468 0.1238 0.1481 0.2036
3597.544 0.2182 0.1871 0.2126 0.3927 0.3575 0.1252 0.06085 0.2147 0.2931 0.2459
3616.833 0.213 0.2413 0.2707 0.2353 0.1311 0.04738 0.1948 0.2489 0.2194 0.3554
3636.123 0.3687 0.2085 0.1733 0.2892 0.2074 0.1158 0.1912 0.2824 0.2741 0.2911
3655.413 0.3002 0.3007 0.3251 0.2985 0.3248 0.2935 0.2002 0.194 0.3246 0.3644
3674.703 0.3595 0.4385 0.4494 0.382 0.2846 0.2901 0.3172 0.2545 0.286 0.3262
3693.993 0.3099 0.2641 0.2374 0.2661 0.3148 0.3921 0.3716 0.2018 0.09959 0.1466
3713.282 0.1241 0.1401 0.3936 0.4432 0.3066 0.2485 0.2751 0.2377 0.1483 0.1721
3732.572 0.2821 0.4191 0.3645 0.2944 0.2647 0.1953 0.1577 0.2788 0.2994 0.2596
3751.862 0.3332 0.2784 0.1811 0.1767 0.2718 0.4343 0.3655 0.2167 0.2015 0.03276
3771.152 0.04301 0.1557 0.1762 0.2125 0.1653 0.1106 0.2613 0.3516 0.2127 0.2698
3790.441 0.278 0.3097 0.3887 0.2372 0.189 0.2218 0.1911 0.2426 0.1944 0.2988
3809.731 0.2826 0.09545 0.08444 0.08439 0.2935 0.3764 0.1485 0.08319 0.1808 0.255
3829.021 0.3537 0.4344 0.3133 0.1975 0.2957 0.3394 0.3614 0.4317 0.3391 0.2122
3848.311 0.2006 0.3152 0.5801 0.5883 0.4267 0.4458 0.5067 0.5331 0.6295 0.5307
3867.601 0.6527 0.8346 0.7536 0.6295 0.3841 0.3499 0.4504 0.3481 0.2953 0.3937
3886.890 0.3008 0.3431 0.3571 0.3666 0.5214 0.5983 0.6047 0.6115 0.4692 0.3271
3906.180 0.3878 0.3845 0.3262 0.1924 0.1689 0.2611 0.3445 0.3924 0.3369 0.3654
3925.470 0.3495 0.3289 0.3816 0.3936 0.4081 0.3815 0.4343 0.3984 0.3955 0.524
3944.760 0.5073 0.4794 0.5144 0.5616 0.4959 0.4495 0.5195 0.579 0.5441 0.3992
3964.049 0.3249 0.4418 0.4788 0.4094 0.4146 0.4802 0.6343 0.6589 0.6644 0.6304
3983.339 0.4871 0.4142 0.3066 0.2881 0.3869 0.3419 0.3808 0.4686 0.5437 0.5482
##END=
