##TITLE=1-Chloro-5-methylhexane
##JCAMP-DX=4.24
##DATA TYPE=INFRARED SPECTRUM
##ORIGIN=NIST Mass Spectrometry Data Center
##OWNER=NIST Standard Reference Data Program
Collection (C) 2018 copyright by the U.S. Secretary of Commerce
on behalf of the United States of America. All rights reserved.
##CAS REGISTRY NO=33240-56-1
##MOLFORM=C 7 H 15 Cl
##$NIST SOURCE=MSDC-IR
##SPECTROMETER/DATA SYSTEM=HP-GC/MS/IRD
##STATE=gas
##XUNITS=1/CM
##YUNITS=ABSORBANCE
##XFACTOR=1.0
##YFACTOR=0.000003700
##DELTAX=4.0
##FIRSTX=550.0
##LASTX=3846.0
##FIRSTY=0.000403
##MAXX=3846
##MINX=550
##MAXY=0.037
##MINY=0
##NPOINTS=825
##XYDATA=(X++(Y..Y))
550.0 109 78 7 32 54 24 31 38 36 45
590.0 40 36 45 47 45 49 72 82 102 131
630.0 146 196 260 316 404 535 662 731 730 678
670.0 574 451 362 297 255 258 261 257 277 315
710.0 367 430 508 599 704 827 935 1029 1080 1064
750.0 953 786 646 541 453 367 314 279 242 213
790.0 218 233 220 235 260 259 279 299 284 260
830.0 236 208 182 163 153 147 141 148 159 158
870.0 165 180 188 188 185 186 182 170 170 170
910.0 168 174 177 173 166 159 153 142 140 148
950.0 153 160 172 180 186 191 193 202 203 195
990.0 187 178 178 178 172 170 172 172 174 169
1030.0 171 173 164 150 141 138 129 120 118 114
1070.0 107 104 98 85 78 78 71 73 80 87
1110.0 95 93 91 87 85 88 92 100 104 119
1150.0 152 190 230 278 313 320 293 251 209 184
1190.0 171 161 151 137 136 149 153 154 173 185
1230.0 185 184 206 243 281 339 421 503 572 622
1270.0 657 690 727 766 812 865 901 924 933 923
1310.0 906 878 834 773 699 628 581 560 531 518
1350.0 524 552 598 664 733 779 806 833 866 869
1390.0 813 709 557 409 322 281 266 278 313 364
1430.0 439 540 663 833 1011 1160 1283 1357 1359 1328
1470.0 1259 1120 936 745 577 442 346 268 209 172
1510.0 146 129 112 99 88 76 70 68 65 58
1550.0 52 50 52 50 46 48 46 39 38 42
1590.0 41 39 39 37 37 40 38 33 31 31
1630.0 36 36 34 33 35 37 33 29 30 33
1670.0 35 33 33 36 36 38 38 33 30 32
1710.0 31 33 30 26 27 24 21 21 19 19
1750.0 22 21 17 19 15 12 18 15 14 14
1790.0 12 16 18 16 11 11 15 13 12 9
1830.0 10 13 15 12 12 14 15 15 14 16
1870.0 13 6 9 10 13 18 10 1 0 3
1910.0 6 5 4 7 10 6 0 0 4 7
1950.0 9 6 4 4 7 9 9 10 7 6
1990.0 6 5 8 9 11 12 12 10 11 10
2030.0 10 12 14 15 13 10 7 12 12 10
2070.0 12 11 10 9 9 8 12 13 8 8
2110.0 12 10 6 11 17 12 8 9 9 7
2150.0 7 9 10 9 9 8 9 15 20 23
2190.0 22 15 16 14 4 5 6 8 7 13
2230.0 14 7 7 10 12 15 16 12 15 21
2270.0 20 17 19 20 24 25 23 22 20 22
2310.0 24 25 23 16 14 14 15 17 18 13
2350.0 17 24 25 26 25 25 23 23 22 22
2390.0 19 20 23 22 21 25 23 20 25 26
2430.0 24 16 14 16 15 18 24 21 19 21
2470.0 27 27 21 24 27 27 30 31 27 30
2510.0 33 29 27 28 27 31 33 32 33 32
2550.0 31 32 37 43 47 51 51 52 54 53
2590.0 58 65 65 66 62 66 82 83 80 85
2630.0 91 93 94 92 91 95 95 91 92 96
2670.0 97 92 93 99 103 107 112 116 124 131
2710.0 134 138 150 168 180 186 190 181 170 170
2750.0 177 174 171 172 178 192 204 208 213 232
2790.0 245 261 289 316 341 374 412 442 489 563
2830.0 656 779 942 1150 1406 1681 1956 2214 2474 2761
2870.0 3096 3420 3651 3798 3854 3865 3926 4084 4339 4664
2910.0 5001 5287 5515 5712 5951 6264 6615 6948 7245 7516
2950.0 7844 8405 9255 9980 10000 9160 7553 5605 3957 2891
2990.0 2314 1990 1741 1507 1248 983 765 608 505 429
3030.0 372 336 306 289 276 251 233 225 224 214
3070.0 205 200 189 181 166 160 168 156 145 146
3110.0 146 142 136 125 118 123 126 130 132 126
3150.0 122 125 127 125 122 120 121 117 119 122
3190.0 107 94 93 97 93 76 66 65 53 45
3230.0 45 42 37 36 41 35 38 48 45 41
3270.0 47 45 36 34 25 27 44 36 31 32
3310.0 26 32 42 34 28 36 37 40 45 44
3350.0 45 45 38 31 34 38 37 38 38 29
3390.0 26 20 20 27 26 26 25 25 31 27
3430.0 23 16 12 13 19 26 16 13 18 10
3470.0 9 13 8 6 19 19 10 15 21 29
3510.0 22 12 11 9 11 11 8 9 11 11
3550.0 8 13 17 18 20 10 5 9 13 19
3590.0 23 30 34 22 9 13 25 28 16 16
3630.0 22 22 27 22 12 17 17 22 35 26
3670.0 9 12 23 18 5 6 17 16 5 13
3710.0 23 24 24 25 15 14 28 29 24 28
3750.0 31 34 20 10 18 25 27 23 20 18
3790.0 27 27 25 38 41 31 28 34 41 37
3830.0 34 28 34 43 40
##END=
