##TITLE=Fluchloralin
##JCAMP-DX=4.24
##DATA TYPE=INFRARED SPECTRUM
##ORIGIN=NIST Mass Spectrometry Data Center
##OWNER=NIST Standard Reference Data Program
Collection (C) 2018 copyright by the U.S. Secretary of Commerce
on behalf of the United States of America. All rights reserved.
##CAS REGISTRY NO=33245-39-5
##MOLFORM=C 12 H 13 Cl F 3 N 3 O 4
##$NIST SOURCE=MSDC-IR
##SPECTROMETER/DATA SYSTEM=HP-GC/MS/IRD
##STATE=gas
##XUNITS=1/CM
##YUNITS=ABSORBANCE
##XFACTOR=1.0
##YFACTOR=0.000017000
##DELTAX=4.0
##FIRSTX=550.0
##LASTX=3846.0
##FIRSTY=0.000748
##MAXX=3846
##MINX=550
##MAXY=0.17
##MINY=0
##NPOINTS=825
##XYDATA=(X++(Y..Y))
550.0 44 17 0 10 12 19 27 28 30 37
590.0 43 48 59 69 77 79 75 78 83 85
630.0 88 94 107 121 139 165 190 219 267 318
670.0 339 319 278 236 210 203 223 285 412 688
710.0 1149 1577 1617 1264 877 627 492 441 418 388
750.0 351 314 291 289 294 299 301 295 280 262
790.0 266 268 225 158 105 74 59 50 51 50
830.0 47 50 54 62 75 88 94 96 98 108
870.0 128 163 216 277 337 417 566 780 907 808
910.0 599 451 366 300 243 206 189 181 177 179
950.0 184 191 197 194 179 154 127 106 91 77
990.0 68 67 69 73 83 99 113 128 141 143
1030.0 145 149 152 154 153 145 140 138 138 141
1070.0 153 174 200 234 274 320 372 429 500 596
1110.0 722 878 1066 1315 1698 2292 3018 3523 3533 3421
1150.0 3875 5052 6212 6115 4663 3320 3031 3441 3698 3336
1190.0 2603 1924 1414 1048 812 684 623 599 595 600
1230.0 612 630 657 692 744 823 934 1056 1158 1212
1270.0 1224 1214 1207 1244 1364 1611 2050 2838 4278 6640
1310.0 9242 10000 8040 5358 3721 3039 2821 2848 3039 3315
1350.0 3505 3386 2913 2312 1822 1497 1276 1117 1011 942
1390.0 888 821 743 655 565 484 419 375 350 349
1430.0 371 413 455 482 498 514 537 552 544 523
1470.0 503 484 466 470 502 558 623 682 734 779
1510.0 827 883 955 1054 1190 1400 1744 2317 3244 4502
1550.0 5808 6573 6329 5210 3863 2729 1971 1486 1187 983
1590.0 841 744 685 662 682 762 924 1180 1454 1579
1630.0 1440 1112 773 521 358 260 198 160 134 114
1670.0 97 85 77 70 64 60 54 50 47 43
1710.0 39 36 32 27 24 21 18 16 16 14
1750.0 14 14 16 18 19 18 21 21 24 30
1790.0 36 45 57 69 78 82 78 70 62 51
1830.0 41 33 26 22 19 16 15 14 14 13
1870.0 13 12 12 13 13 12 11 10 8 10
1910.0 9 8 8 9 9 8 7 6 5 6
1950.0 7 6 5 4 5 5 4 5 4 4
1990.0 4 3 4 3 3 4 4 5 6 7
2030.0 6 7 10 11 12 12 13 14 14 13
2070.0 13 12 11 11 12 11 10 11 12 12
2110.0 11 10 9 9 8 7 5 7 6 5
2150.0 6 6 5 4 5 6 6 7 7 9
2190.0 10 11 12 14 15 15 17 14 13 13
2230.0 12 12 12 12 11 12 14 16 15 16
2270.0 17 17 18 20 21 22 23 24 24 26
2310.0 25 24 23 20 18 17 17 17 18 16
2350.0 16 17 15 15 14 13 11 9 7 5
2390.0 6 5 4 6 8 9 10 11 12 11
2430.0 10 9 9 10 13 14 13 14 13 14
2470.0 16 18 18 16 14 13 11 11 10 9
2510.0 10 9 10 9 10 11 12 13 13 15
2550.0 16 14 12 11 11 12 11 11 12 11
2590.0 11 13 13 14 14 15 16 18 19 18
2630.0 16 15 15 16 16 15 16 18 20 22
2670.0 24 28 29 29 33 40 43 45 48 50
2710.0 51 50 51 52 52 54 54 53 55 56
2750.0 56 55 54 53 53 54 54 55 56 57
2790.0 58 59 62 66 69 70 75 86 94 103
2830.0 117 130 145 165 188 214 246 283 324 364
2870.0 408 452 510 589 647 644 585 525 493 485
2910.0 488 496 510 532 559 592 633 685 742 769
2950.0 745 700 697 760 872 990 1058 1041 917 728
2990.0 546 415 327 272 236 210 190 173 154 131
3030.0 112 98 87 79 70 64 60 59 61 63
3070.0 68 78 91 106 125 141 137 114 89 70
3110.0 60 50 45 40 34 32 30 26 24 25
3150.0 24 23 23 20 18 18 17 17 15 14
3190.0 13 10 9 6 8 12 11 10 8 9
3230.0 9 10 13 12 11 12 12 11 10 7
3270.0 6 7 5 4 4 5 4 3 5 5
3310.0 7 6 2 4 5 7 7 6 6 5
3350.0 4 7 6 5 6 6 7 8 7 7
3390.0 7 6 4 2 5 7 8 7 9 11
3430.0 9 6 4 6 9 7 9 13 10 8
3470.0 8 8 7 9 9 9 7 7 10 13
3510.0 12 9 8 11 11 11 10 7 8 5
3550.0 5 7 10 12 9 10 12 7 9 13
3590.0 12 9 8 8 8 12 12 12 13 11
3630.0 11 12 14 13 10 10 13 13 13 15
3670.0 14 15 15 12 10 14 15 12 12 15
3710.0 16 16 17 19 20 18 17 18 20 17
3750.0 17 17 16 18 21 18 15 17 19 19
3790.0 19 19 18 22 23 22 24 24 20 16
3830.0 16 18 20 21 18
##END=
