##TITLE=Diazinon
##JCAMP-DX=4.24
##DATA TYPE=INFRARED SPECTRUM
##ORIGIN=NIST Mass Spectrometry Data Center
##OWNER=NIST Standard Reference Data Program
Collection (C) 2018 copyright by the U.S. Secretary of Commerce
on behalf of the United States of America. All rights reserved.
##CAS REGISTRY NO=333-41-5
##MOLFORM=C 12 H 21 N 2 O 3 P S
##$NIST SOURCE=MSDC-IR
##SPECTROMETER/DATA SYSTEM=HP-GC/MS/IRD
##STATE=gas
##XUNITS=1/CM
##YUNITS=ABSORBANCE
##XFACTOR=1.0
##YFACTOR=0.000018500
##DELTAX=4.0
##FIRSTX=550.0
##LASTX=3846.0
##FIRSTY=0.002405
##MAXX=3846
##MINX=550
##MAXY=0.185
##MINY=0
##NPOINTS=825
##XYDATA=(X++(Y..Y))
550.0 130 132 31 31 16 9 1 2 7 7
590.0 7 15 21 30 45 62 88 124 175 233
630.0 295 363 439 510 554 554 519 467 411 346
670.0 277 210 152 109 79 64 59 58 58 56
710.0 52 46 41 34 33 39 46 58 79 104
750.0 134 172 223 288 378 507 683 909 1176 1465
790.0 1751 2027 2306 2599 2918 3265 3613 3934 4162 4233
830.0 4099 3769 3360 3090 3072 3144 3045 2802 2602 2449
870.0 2225 1886 1487 1111 817 628 522 472 460 473
910.0 506 558 640 753 908 1127 1445 1893 2470 3065
950.0 3561 3955 4306 4597 4776 4855 4859 4765 4577 4416
990.0 4451 4682 4984 5395 6064 7009 8081 9020 9577 9784
1030.0 9896 10000 9894 9385 8522 7553 6715 6074 5559 5032
1070.0 4423 3784 3224 2833 2633 2565 2514 2373 2134 1872
1110.0 1647 1468 1331 1238 1182 1164 1195 1297 1497 1855
1150.0 2409 3021 3340 3116 2512 1884 1413 1092 874 728
1190.0 627 551 488 428 370 315 271 242 213 190
1230.0 176 164 155 151 150 153 162 171 184 201
1270.0 225 257 304 377 481 616 732 770 727 658
1310.0 626 651 744 923 1220 1704 2441 3431 4436 4973
1350.0 4709 3840 2928 2369 2193 2218 2328 2558 2815 2844
1390.0 2630 2365 2085 1769 1506 1373 1342 1326 1264 1157
1430.0 1066 1035 1077 1181 1306 1369 1319 1192 1083 1036
1470.0 1039 1044 1000 919 844 810 813 846 896 958
1510.0 1028 1102 1188 1294 1426 1596 1829 2152 2611 3190
1550.0 3882 4634 5369 5922 6139 6212 6516 7162 7634 7249
1590.0 5871 4105 2652 1729 1196 879 680 550 458 393
1630.0 345 307 275 250 227 206 189 176 165 153
1670.0 144 136 131 127 121 118 114 107 102 98
1710.0 93 88 82 77 70 66 62 59 55 52
1750.0 50 48 48 46 44 42 44 45 47 49
1790.0 52 57 60 66 71 75 80 84 87 92
1830.0 96 101 105 108 109 109 107 104 99 93
1870.0 86 78 72 66 61 57 54 50 47 43
1910.0 39 37 37 36 36 35 33 31 29 27
1950.0 25 22 19 17 16 15 15 14 13 12
1990.0 11 10 11 10 11 12 10 10 9 8
2030.0 7 5 6 5 4 3 2 2 2 2
2070.0 1 2 4 4 6 7 9 11 11 13
2110.0 13 14 15 17 18 21 22 23 25 27
2150.0 27 27 28 27 26 26 25 24 22 20
2190.0 19 19 17 14 14 12 11 10 10 11
2230.0 9 11 12 11 11 12 11 10 9 9
2270.0 10 10 10 11 12 11 13 15 18 22
2310.0 26 29 31 32 34 36 39 42 44 45
2350.0 49 49 50 49 47 45 44 43 41 41
2390.0 41 40 39 36 34 29 24 23 21 20
2430.0 19 20 19 20 20 21 23 22 22 23
2470.0 24 24 23 23 26 28 28 29 28 26
2510.0 25 23 21 21 22 23 24 26 27 28
2550.0 29 29 28 30 29 29 28 25 25 24
2590.0 22 21 21 22 23 23 22 19 16 14
2630.0 11 8 6 5 5 4 3 2 2 1
2670.0 3 5 6 8 9 10 11 12 14 18
2710.0 23 28 31 37 43 48 50 52 54 55
2750.0 57 58 58 60 64 67 71 74 76 75
2790.0 74 74 75 78 83 86 92 101 108 114
2830.0 121 132 149 168 189 215 250 293 347 415
2870.0 509 628 750 830 842 806 775 781 826 902
2910.0 989 1065 1123 1188 1302 1488 1733 1954 2043 1967
2950.0 1800 1661 1639 1786 2133 2619 3010 3091 2902 2603
2990.0 2273 1958 1675 1390 1110 884 724 602 504 427
3030.0 368 323 288 260 236 213 188 167 150 141
3070.0 137 137 140 137 129 122 112 102 96 91
3110.0 86 83 80 79 78 73 71 71 70 67
3150.0 64 64 62 60 60 59 57 54 51 49
3190.0 48 47 46 45 44 40 38 35 32 30
3230.0 26 22 20 17 15 15 12 10 10 10
3270.0 11 11 12 11 9 8 7 4 4 5
3310.0 3 2 3 6 4 1 1 2 3 2
3350.0 3 5 7 7 4 4 5 3 3 4
3390.0 4 3 3 4 6 4 5 7 5 3
3430.0 2 3 4 5 5 3 2 4 3 0
3470.0 0 0 1 1 0 0 0 3 3 1
3510.0 2 3 2 1 1 2 2 0 2 4
3550.0 3 2 3 2 1 0 4 4 2 1
3590.0 2 4 5 4 3 4 4 6 7 7
3630.0 5 3 3 1 0 1 3 3 4 5
3670.0 5 6 6 5 4 4 5 4 6 7
3710.0 4 4 6 7 8 7 7 7 8 9
3750.0 11 11 9 8 11 11 9 6 6 9
3790.0 8 8 9 11 12 12 13 14 13 13
3830.0 12 15 16 13 12
##END=
