##TITLE=1-Allyl-4-methylbenzene
##JCAMP-DX=4.24
##DATA TYPE=INFRARED SPECTRUM
##ORIGIN=NIST Mass Spectrometry Data Center
##OWNER=NIST Standard Reference Data Program
Collection (C) 2018 copyright by the U.S. Secretary of Commerce
on behalf of the United States of America. All rights reserved.
##CAS REGISTRY NO=3333-13-9
##MOLFORM=C 10 H 12
##$NIST SOURCE=MSDC-IR
##SPECTROMETER/DATA SYSTEM=HP-GC/MS/IRD
##STATE=gas
##XUNITS=1/CM
##YUNITS=ABSORBANCE
##XFACTOR=1.0
##YFACTOR=0.000001100
##DELTAX=4.0
##FIRSTX=550.0
##LASTX=3846.0
##FIRSTY=0.000927
##MAXX=3846
##MINX=550
##MAXY=0.011
##MINY=0
##NPOINTS=825
##XYDATA=(X++(Y..Y))
550.0 843 638 520 447 316 336 336 332 412 509
590.0 502 532 573 642 773 849 885 863 837 777
630.0 633 476 352 265 247 188 119 104 70 42
670.0 102 92 9 18 45 21 30 68 64 99
710.0 178 163 156 228 332 460 594 808 1093 1426
750.0 1722 1980 2163 2208 2218 2227 2293 2499 2838 3309
790.0 3971 4668 5202 5372 5175 4718 3995 3232 2624 2164
830.0 1910 1749 1578 1394 1219 1030 891 843 798 810
870.0 873 980 1128 1311 1600 2093 2720 3394 4218 5233
910.0 6057 6330 6242 5624 4493 3422 2679 2173 1837 1570
950.0 1384 1287 1266 1278 1350 1521 1774 2128 2611 3091
990.0 3343 3352 3114 2607 2126 1998 2128 2115 1980 1797
1030.0 1419 1015 846 815 799 788 737 679 679 667
1070.0 655 657 677 735 810 921 1064 1154 1201 1237
1110.0 1245 1224 1132 1033 917 777 628 481 362 271
1150.0 226 212 203 223 244 240 277 357 413 470
1190.0 536 603 672 737 799 838 841 771 699 697
1230.0 728 761 739 650 519 402 362 359 376 430
1270.0 502 594 703 774 794 809 798 742 668 626
1310.0 584 514 452 426 432 442 438 427 450 468
1350.0 470 468 455 444 449 488 552 613 681 749
1390.0 805 885 1006 1170 1369 1581 1768 1920 2049 2169
1430.0 2269 2333 2312 2180 1950 1690 1496 1351 1259 1241
1470.0 1205 1155 1151 1201 1334 1608 2090 2952 4309 6017
1510.0 7334 7550 6873 5384 3406 1986 1344 1050 871 754
1550.0 653 567 510 462 452 453 458 477 490 500
1590.0 519 553 608 659 736 874 1018 1212 1511 1915
1630.0 2410 2898 3121 2987 2587 1941 1277 871 643 496
1670.0 395 311 241 187 157 139 120 116 115 118
1710.0 118 113 104 94 98 99 98 117 144 151
1750.0 152 158 173 194 223 272 348 437 505 507
1790.0 462 380 292 261 272 287 331 421 550 674
1830.0 749 775 739 645 529 436 392 380 376 381
1870.0 405 450 494 553 609 646 651 608 540 460
1910.0 360 273 217 162 124 108 92 88 79 77
1950.0 85 86 88 89 102 110 112 115 113 99
1990.0 81 74 73 63 56 50 39 42 41 43
2030.0 43 45 35 17 9 0 1 8 18 27
2070.0 29 34 36 37 35 39 42 32 25 24
2110.0 27 31 27 34 40 30 37 37 32 39
2150.0 34 20 13 16 26 34 28 27 28 16
2190.0 20 40 41 35 35 46 40 28 28 27
2230.0 24 15 4 12 21 15 21 24 5 1
2270.0 12 17 21 27 41 52 55 76 91 92
2310.0 85 78 81 75 60 69 87 73 58 70
2350.0 69 52 27 24 31 36 49 47 44 54
2390.0 48 52 58 43 36 37 46 37 33 44
2430.0 33 18 14 16 25 32 22 14 24 28
2470.0 34 30 28 25 22 21 23 28 28 33
2510.0 37 31 26 24 30 30 28 32 13 14
2550.0 49 51 17 8 38 61 62 75 78 79
2590.0 83 85 84 76 64 69 70 49 36 42
2630.0 43 40 51 46 31 26 22 21 25 26
2670.0 21 18 23 33 47 67 73 70 74 88
2710.0 129 147 158 175 195 239 289 327 346 331
2750.0 294 236 185 169 157 151 159 168 182 214
2790.0 243 261 302 347 395 478 575 683 813 964
2830.0 1143 1375 1614 1842 2053 2251 2421 2618 2882 3184
2870.0 3532 3863 4095 4252 4348 4486 4737 5116 5595 6117
2910.0 6633 7128 7624 8142 8574 8729 8468 7746 6680 5500
2950.0 4497 3821 3429 3242 3235 3426 3820 4371 4946 5426
2990.0 5797 6094 6372 6816 7467 8170 8943 9696 10000 9698
3030.0 9063 8059 6967 6346 6172 6120 6033 5866 5612 5327
3070.0 5083 4962 5048 5253 5315 5034 4484 3713 2914 2246
3110.0 1753 1407 1155 977 863 771 679 588 474 390
3150.0 320 248 203 172 168 177 153 123 136 145
3190.0 136 132 123 90 79 90 85 62 46 38
3230.0 42 50 47 42 59 71 80 72 56 69
3270.0 93 98 89 87 74 63 45 31 52 53
3310.0 57 60 49 49 39 55 50 8 3 36
3350.0 72 83 65 53 55 41 21 26 45 49
3390.0 61 43 33 61 67 62 75 66 59 63
3430.0 56 59 81 79 63 67 71 73 78 79
3470.0 74 60 42 33 44 61 61 41 24 22
3510.0 59 68 39 48 71 50 44 48 29 51
3550.0 69 80 78 46 35 48 53 46 52 56
3590.0 49 25 4 47 76 47 44 22 21 48
3630.0 54 52 62 71 82 100 124 136 117 110
3670.0 116 119 123 115 103 114 118 114 87 56
3710.0 60 68 54 69 110 93 92 98 102 111
3750.0 74 73 74 50 54 89 82 69 98 115
3790.0 111 95 101 119 132 129 125 123 128 129
3830.0 125 124 103 114 137
##END=
