##TITLE=3,5-Dichloro-4-hydroxybenzoic acid
##JCAMP-DX=4.24
##DATA TYPE=INFRARED SPECTRUM
##ORIGIN=EPA-IR VAPOR PHASE LIBRARY
##OWNER=SRD/NIST
Collection (C) 2018 copyright by the U.S. Secretary of Commerce
on behalf of the United States of America. All rights reserved.
##CAS REGISTRY NO=3336-41-2
##MOLFORM=C 7 H 4 Cl 2 O 3
##$NIST SOURCE=MSDC-IR
##STATE=gas
##XUNITS=1/CM
##YUNITS=ABSORBANCE
##XFACTOR=1.
##YFACTOR=0.001
##DELTAX=1.92934
##FIRSTX=549.9
##LASTX=3999.5
##FIRSTY=8.43
##MAXX=3999.53
##MINX=549.863
##MAXY=0.1301
##MINY=0
##NPOINTS=1789
##XYDATA=(X++(Y..Y))
549.863 8.43 7.11 6.3 5.62 4.93 4.54 4.32 4.09 3.94 3.92
569.156 3.95 3.92 4 4.05 3.94 4 4.36 4.74 5.19 5.84
588.450 6.71 7.8 9.3 11 12.16 12.46 12.09 12.02 12.62 12.94
607.743 12.65 11.9 10.74 9.35 8.08 6.95 6.02 5.41 4.92 4.56
627.037 4.29 4.05 3.77 3.5904 3.5345 3.4346 3.3445 3.2845 3.307 3.2744
646.330 3.2398 3.1738 3.0669 3.0204 3.0259 3.0657 3.0711 3.1458 3.2429 3.2327
665.624 3.2655 3.3338 3.4106 3.4967 3.5618 3.6511 3.79 4.01 4.28 4.6
684.917 5.01 5.51 6.2 7.23 8.56 10.2 12.23 14.61 17.04 19.41
704.210 21.72 24.22 27.16 30.51 34.03 36.98 35.79 28.75 23.25 21.48
723.504 19.88 17.85 15.5 13.24 11.19 9.57 8.65 8.43 8.97 10.37
742.797 12.72 16.18 20.91 26.8 33.48 40.48 47.52 54.8 64.39 80.1
762.091 99.06 99.43 83.59 75.69 73.43 70.95 67.69 63.49 59.67 57.42
781.384 57.96 61.49 67.26 73.76 79.43 83.33 85.14 84.91 83.07 79.23
800.678 72.7 63.55 52.17 40.04 29.48 21.87 17.15 14.47 13.13 12.66
819.971 12.74 13.3 14.46 16.16 18.2 20.04 20.87 19.87 17.47 16.44
839.264 17.64 18.15 16.4 13.48 10.68 8.48 6.78 5.5 4.6 3.91
858.558 3.4525 3.1824 2.9185 2.78543 2.7672 2.72296 2.71734 2.74769 2.6829 2.6892
877.851 2.70456 2.6805 2.6997 2.6917 2.73691 2.7997 2.80435 2.8289 2.9219 2.9735
897.145 3.0134 3.0518 3.0531 3.0841 3.0333 2.9979 3.0877 3.1629 3.2013 3.2703
916.438 3.3467 3.3306 3.2647 3.2248 3.2772 3.3161 3.2919 3.3304 3.3722 3.4196
935.732 3.5003 3.6275 3.83 4.05 4.21 4.31 4.42 4.53 4.67 4.82
955.025 4.86 4.88 5.02 5.11 5.21 5.28 5.21 5.13 5.01 4.92
974.318 4.82 4.6 4.38 4.18 4.02 3.93 3.9 3.89 3.91 3.87
993.612 3.86 3.9 3.9 3.88 3.9 3.92 3.91 3.94 3.93 3.91
1012.905 3.92 3.92 3.9 3.88 3.91 3.93 3.95 4.05 4.19 4.39
1032.199 4.61 4.9 5.29 5.75 6.35 7.06 7.9 8.89 10.01 11.33
1051.492 12.69 13.96 15.08 15.93 16.45 16.63 16.47 16.27 16.41 16.39
1070.786 15.7 14.65 13.66 12.96 12.76 13.11 13.87 14.96 16.29 17.9
1090.079 19.83 22.03 24.54 27.13 29.3 30.48 30.49 30.03 30.13 30.88
1109.372 31.21 30.01 27.49 24.76 22.54 20.96 19.9 19.3 19.22 19.64
1128.666 20.49 21.6 22.82 24.27 26.24 28.92 31.74 34.15 36.09 37.86
1147.959 40.04 42.72 45.95 49.25 51.47 52.66 53.94 56.22 59.96 65.22
1167.253 71.74 78.85 85.41 89.96 91.5 90.27 88.02 86.1 83.89 79.49
1186.546 71.13 59.46 47.07 36.29 28.09 22.25 18.22 15.56 13.9 12.99
1205.840 12.73 13.05 13.91 15.29 17.03 19.08 21.48 24.33 28.07 33.25
1225.133 39.9 47.77 56.27 64.17 69.9 72.06 70.84 69.01 69.49 71.61
1244.426 71.05 64.97 55.85 47.88 43.12 41.53 42.26 44.37 46.92 49.01
1263.720 50.15 50.74 51.29 51.43 50.13 47.05 42.77 37.73 32.03 26.04
1283.013 20.61 16.42 13.51 11.75 10.92 10.69 10.88 11.36 12.01 12.78
1302.307 13.78 15.19 17.23 20.13 24.03 28.96 35.14 42.81 51.97 61.86
1321.600 70.83 76.72 77.65 74.13 70.63 71.7 74.04 70.01 58.87 45.64
1340.894 33.97 25.07 18.55 13.82 10.4 8.01 6.43 5.41 4.73 4.3
1360.187 4.14 4.03 3.96 3.95 3.94 3.99 4.06 4.11 4.16 4.25
1379.480 4.36 4.42 4.48 4.59 4.67 4.72 4.78 4.84 4.83 4.79
1398.774 4.84 4.94 5.09 5.26 5.55 6.02 6.63 7.46 8.61 10.1
1418.067 12.03 14.46 17.34 20.89 25.28 30.56 37.04 44.69 53.46 62.88
1437.361 72.83 81.9 89.74 96.01 100.79 105 109.52 114.27 117.73 118.15
1456.654 115.47 111.62 108.71 107.11 106.42 105.71 103.71 99.68 93.6 86.53
1475.948 80.3 75.26 70.63 64.87 57.62 49.74 42.23 35.71 30.29 25.92
1495.241 22.49 19.72 17.46 15.53 13.76 12.1 10.57 9.22 8.2 7.44
1514.534 6.97 6.63 6.37 6.18 5.98 5.81 5.67 5.52 5.4 5.26
1533.828 5.13 4.93 4.79 4.71 4.76 4.84 4.92 5.2 5.6 6.12
1553.121 6.84 7.79 9 10.59 12.39 14.42 17 19.91 23.04 26.24
1572.415 29.18 31.65 33.57 34.72 35.08 34.76 33.57 31.33 28.26 24.89
1591.708 21.66 18.65 15.89 13.31 10.97 9.07 7.59 6.51 5.74 5.14
1611.002 4.73 4.44 4.19 3.99 3.82 3.6708 3.6109 3.5832 3.5603 3.573
1630.295 3.6091 3.6115 3.73 3.91 4.07 4.31 4.6 4.88 5.12 5.19
1649.588 5.16 5.17 5.07 4.81 4.54 4.26 3.97 3.6099 3.2801 3.0688
1668.882 2.9094 2.841 2.79627 2.71991 2.663 2.585 2.553 2.603 2.6192 2.535
1688.175 2.457 2.438 2.435 2.458 2.485 2.451 2.469 2.439 2.39 2.431
1707.469 2.447 2.383 2.311 2.319 2.35 2.34 2.283 2.257 2.235 2.181
1726.762 2.152 2.144 2.111 2.144 2.182 2.19 2.204 2.22 2.264 2.318
1746.056 2.303 2.303 2.397 2.422 2.472 2.589 2.6699 2.8109 3.0137 3.1455
1765.349 3.3158 3.4854 3.5993 3.74 3.86 3.9 3.84 3.76 3.73 3.6234
1784.642 3.4459 3.2392 3.0064 2.823 2.6361 2.449 2.334 2.289 2.217 2.158
1803.936 2.146 2.144 2.164 2.219 2.294 2.373 2.489 2.627 2.7969 3.0003
1823.229 3.2839 3.5978 3.88 4.22 4.55 4.82 5.04 5.16 5.13 5
1842.523 4.8 4.53 4.25 3.96 3.6068 3.294 3.078 2.9448 2.8953 2.8721
1861.816 2.8736 2.9039 2.9144 2.8698 2.875 2.8789 2.8913 2.9474 2.9941 3.0495
1881.110 3.0911 3.1508 3.2704 3.4063 3.6087 3.8 3.93 4.1 4.2 4.24
1900.403 4.23 4.17 4.06 3.96 3.84 3.6606 3.4709 3.2485 3.0073 2.7964
1919.696 2.6202 2.495 2.352 2.231 2.204 2.183 2.143 2.168 2.145 2.092
1938.990 2.084 2.111 2.108 2.059 2.026 2.014 2.031 2.036 1.996 1.984
1958.283 1.996 2.007 1.978 1.923 1.908 1.904 1.879 1.888 1.904 1.893
1977.577 1.88 1.895 1.908 1.87 1.852 1.86 1.875 1.861 1.871 1.901
1996.870 1.881 1.865 1.864 1.877 1.886 1.893 1.934 1.903 1.885 1.933
2016.164 1.957 1.92 1.879 1.873 1.854 1.875 1.891 1.898 1.884 1.858
2035.457 1.874 1.872 1.888 1.898 1.886 1.901 1.899 1.907 1.964 1.976
2054.750 1.967 1.989 2.013 2.023 2.04 2.07 2.081 2.081 2.097 2.137
2074.044 2.123 2.099 2.108 2.095 2.065 2.037 2.056 2.047 2.017 2.018
2093.337 2.032 2.063 2.062 2.074 2.104 2.106 2.074 2.023 1.994 2
2112.631 1.972 1.884 1.819 1.797 1.779 1.74 1.7 1.67 1.63 1.6
2131.924 1.58 1.61 1.63 1.62 1.61 1.55 1.55 1.61 1.6 1.55
2151.218 1.53 1.55 1.54 1.55 1.56 1.54 1.52 1.51 1.51 1.53
2170.511 1.5 1.49 1.53 1.53 1.52 1.53 1.54 1.53 1.52 1.54
2189.804 1.54 1.53 1.51 1.53 1.51 1.49 1.54 1.55 1.57 1.54
2209.098 1.51 1.53 1.56 1.59 1.61 1.62 1.64 1.68 1.7 1.734
2228.391 1.796 1.838 1.876 1.924 1.975 2.038 2.061 2.051 2.047 2.044
2247.685 2.03 2.003 1.987 1.963 1.943 1.941 1.939 1.94 1.941 1.958
2266.978 1.979 2.024 2.055 2.086 2.109 2.102 2.157 2.23 2.257 2.275
2286.272 2.315 2.358 2.387 2.394 2.401 2.43 2.411 2.364 2.381 2.383
2305.565 2.368 2.326 2.238 2.235 2.232 2.183 2.152 2.1 2.044 2.009
2324.858 1.985 1.955 1.939 1.927 1.905 1.846 1.81 1.777 1.737 1.724
2344.152 1.67 1.65 1.66 1.6 1.54 1.59 1.59 1.54 1.55 1.58
2363.445 1.6 1.6 1.64 1.66 1.65 1.67 1.713 1.756 1.782 1.821
2382.739 1.848 1.871 1.897 1.957 2.025 2.048 2.074 2.121 2.165 2.178
2402.032 2.186 2.251 2.329 2.413 2.448 2.417 2.424 2.446 2.428 2.39
2421.326 2.358 2.274 2.147 2.057 1.97 1.888 1.849 1.824 1.775 1.733
2440.619 1.731 1.752 1.743 1.7 1.7 1.738 1.731 1.67 1.69 1.753
2459.912 1.798 1.79 1.777 1.813 1.856 1.913 1.992 2.04 2.078 2.127
2479.206 2.191 2.266 2.316 2.403 2.524 2.6486 2.75041 2.8112 2.9204 3.0633
2498.499 3.1802 3.2718 3.2932 3.2722 3.2488 3.188 3.0846 2.9482 2.79065 2.645
2517.793 2.485 2.366 2.241 2.125 2.092 2.033 1.999 1.99 1.968 1.957
2537.086 1.908 1.858 1.862 1.868 1.848 1.791 1.786 1.833 1.85 1.847
2556.380 1.866 1.898 1.899 1.893 1.887 1.849 1.757 1.67 1.65 1.61
2575.673 1.56 1.51 1.38 1.26 1.25 1.24 1.18 1.15 1.19 1.19
2594.966 1.14 1.15 1.16 1.18 1.16 1.09 1.08 1.11 1.12 1.13
2614.260 1.15 1.11 1.1 1.1 1.09 1.16 1.2 1.19 1.19 1.23
2633.553 1.32 1.37 1.39 1.42 1.51 1.59 1.63 1.64 1.67 1.65
2652.847 1.6 1.59 1.54 1.47 1.44 1.41 1.32 1.21 1.17 1.16
2672.140 1.13 1.14 1.07 1.03 1.08 1.12 1.13 1.14 1.14 1.1
2691.434 1.13 1.18 1.15 1.11 1.11 1.18 1.2 1.15 1.14 1.24
2710.727 1.26 1.19 1.15 1.13 1.11 1.11 1.1 1.17 1.18 1.15
2730.020 1.09 1.04 1.03 0.98 0.98 0.99 1.01 1.02 0.98 0.98
2749.314 0.95 0.88 0.91 0.95 0.88 0.82 0.83 0.79 0.79 0.83
2768.607 0.8 0.79 0.86 0.83 0.8 0.79 0.77 0.81 0.89 0.87
2787.901 0.84 0.81 0.83 0.94 0.86 0.84 0.87 0.87 0.85 0.78
2807.194 0.78 0.81 0.78 0.72 0.69 0.66 0.6 0.62 0.68 0.68
2826.488 0.62 0.56 0.58 0.62 0.6 0.66 0.73 0.67 0.63 0.63
2845.781 0.65 0.61 0.57 0.59 0.61 0.56 0.49 0.5 0.4 0.34
2865.074 0.39 0.41 0.42 0.44 0.39 0.33 0.36 0.39 0.36 0.37
2884.368 0.37 0.3 0.37 0.4 0.34 0.41 0.5 0.52 0.5 0.56
2903.661 0.58 0.6 0.61 0.53 0.46 0.42 0.41 0.42 0.37 0.38
2922.955 0.44 0.36 0.33 0.31 0.23 0.29 0.31 0.19 0.13 0.15
2942.248 0.2 0.26 0.23 0.11 0.07 0.12 0.16 0.1 0.06 0
2961.542 0 0.03 0.08 0.22 0.18 0.11 0.12 0.09 0.03 0.11
2980.835 0.15 0.13 0.2 0.24 0.23 0.36 0.4 0.41 0.51 0.5
3000.128 0.58 0.65 0.74 0.81 0.85 0.93 0.96 0.99 1.01 1
3019.422 1.02 1.11 1.23 1.27 1.32 1.36 1.26 1.24 1.22 1.2
3038.715 1.27 1.21 1.14 1.13 1.13 1.19 1.21 1.22 1.34 1.43
3058.009 1.57 1.746 2.007 2.399 2.8197 3.4327 4.14 4.89 5.82 6.8
3077.302 7.77 8.57 9.04 9.37 9.38 9.1 8.66 8.11 7.33 6.41
3096.596 5.45 4.33 3.3973 2.589 1.928 1.48 1.11 0.87 0.66 0.54
3115.889 0.5 0.36 0.31 0.34 0.38 0.33 0.31 0.41 0.41 0.48
3135.182 0.5 0.45 0.49 0.48 0.56 0.69 0.68 0.73 0.82 0.96
3154.476 1.02 0.99 1 0.95 0.82 0.88 0.88 0.74 0.65 0.68
3173.769 0.75 0.64 0.6 0.58 0.45 0.33 0.38 0.49 0.45 0.46
3193.063 0.47 0.46 0.58 0.65 0.61 0.63 0.66 0.61 0.6 0.7
3212.356 0.72 0.71 0.85 0.84 0.73 0.63 0.63 0.64 0.55 0.54
3231.650 0.62 0.66 0.63 0.62 0.64 0.61 0.59 0.65 0.69 0.71
3250.943 0.76 0.73 0.68 0.66 0.73 0.75 0.77 0.82 0.82 0.84
3270.236 0.84 0.93 1.13 1.37 1.57 1.719 1.809 1.935 2 2.093
3289.530 2.217 2.187 2.149 1.938 1.62 1.46 1.35 1.18 1.09 1.13
3308.823 1.06 0.85 0.81 0.85 0.87 0.87 0.82 0.8 0.79 0.85
3328.117 0.84 0.72 0.66 0.78 0.88 0.86 0.94 1.03 1.03 0.88
3347.410 0.72 0.73 0.94 0.93 0.86 0.97 0.96 0.96 0.92 0.9
3366.704 0.96 1.02 1.09 1.1 1.04 1.02 0.98 0.93 1.03 1.04
3385.997 1.06 1 0.77 0.84 0.99 0.89 0.9 0.94 0.86 0.96
3405.290 1.02 1 1 0.95 0.9 0.95 0.97 0.95 0.98 1.04
3424.584 1.03 1.03 1.12 1.14 1.1 1.07 1.01 1.06 1.19 1.23
3443.877 1.1 1.08 1.16 1.03 1.02 1.1 1.05 0.98 1.05 1.19
3463.171 1.16 1.14 1.27 1.3 1.3 1.35 1.34 1.4 1.38 1.34
3482.464 1.5 1.48 1.3 1.38 1.43 1.37 1.4 1.38 1.42 1.66
3501.758 1.69 1.66 1.726 1.803 1.903 1.861 1.859 1.906 1.837 1.87
3521.051 1.97 2.166 2.365 2.445 2.591 2.8426 3.0439 3.3332 3.77 4.27
3540.344 4.93 5.87 7.15 8.95 11.63 15.37 20.69 28.65 40.21 56.31
3559.638 76.14 96.08 111.65 121.33 127.28 130.1 130.01 128.23 121.15 106.46
3578.931 88.03 69.54 52.9 39.23 28.94 21.54 16.43 12.86 10.24 8.39
3598.225 6.99 5.96 5.19 4.6 4.18 3.72 3.2716 3.1134 3.0744 2.9209
3617.518 2.80548 2.73692 2.534 2.379 2.331 2.307 2.264 2.21 2.239 2.169
3636.812 2.063 1.994 1.908 1.901 1.933 1.973 2.007 1.96 1.833 1.805
3656.105 1.837 1.772 1.763 1.766 1.7 1.761 1.769 1.786 1.879 1.851
3675.398 1.76 1.771 1.817 1.758 1.69 1.795 1.819 1.743 1.763 1.7
3694.692 1.63 1.64 1.65 1.65 1.65 1.63 1.69 1.66 1.63 1.58
3713.985 1.5 1.51 1.49 1.4 1.32 1.41 1.55 1.6 1.53 1.42
3733.279 1.43 1.47 1.43 1.41 1.38 1.35 1.41 1.49 1.52 1.48
3752.572 1.49 1.48 1.46 1.49 1.51 1.58 1.55 1.5 1.55 1.45
3771.866 1.42 1.47 1.51 1.59 1.53 1.61 1.65 1.53 1.54 1.6
3791.159 1.63 1.6 1.54 1.56 1.63 1.59 1.52 1.53 1.57 1.58
3810.452 1.58 1.56 1.57 1.59 1.61 1.69 1.754 1.799 1.879 1.888
3829.746 1.849 1.847 1.947 2.101 2.373 2.6135 2.71959 2.8409 2.9774 3.0181
3849.039 2.9808 2.9715 3.0289 3.0192 2.8635 2.6886 2.44 2.217 2.137 2.096
3868.333 1.961 1.906 1.962 1.987 2.021 2.034 1.974 1.913 1.873 1.864
3887.626 1.959 1.927 1.862 1.889 1.952 1.994 1.982 2.012 1.981 1.982
3906.920 2.088 2.115 2.188 2.245 2.186 2.157 2.139 2.175 2.175 2.043
3926.213 1.958 1.933 1.821 1.824 1.877 1.826 1.778 1.785 1.73 1.711
3945.506 1.76 1.786 1.835 1.787 1.753 1.776 1.814 1.859 1.85 1.834
3964.800 1.782 1.744 1.789 1.868 1.958 1.937 1.989 1.992 1.902 1.954
3984.093 1.963 1.941 1.918 1.886 1.778 1.69 1.721 1.65 1.53
##END=
