##TITLE=3,5-Dibromo-4-hydroxybenzoic acid
##JCAMP-DX=4.24
##DATA TYPE=INFRARED SPECTRUM
##ORIGIN=EPA-IR VAPOR PHASE LIBRARY
##OWNER=SRD/NIST
Collection (C) 2018 copyright by the U.S. Secretary of Commerce
on behalf of the United States of America. All rights reserved.
##CAS REGISTRY NO=3337-62-0
##MOLFORM=C 7 H 4 Br 2 O 3
##$NIST SOURCE=MSDC-IR
##STATE=gas
##XUNITS=1/CM
##YUNITS=ABSORBANCE
##XFACTOR=1.
##YFACTOR=0.001
##DELTAX=1.92898
##FIRSTX=549.8
##LASTX=4000.7
##FIRSTY=8.738
##MAXX=4000.7
##MINX=549.759
##MAXY=0.224628
##MINY=0
##NPOINTS=1790
##XYDATA=(X++(Y..Y))
549.759 8.738 8.258 7.808 7.518 7.768 8.168 8.498 8.998 10.058 11.198
569.049 11.858 12.818 14.538 16.628 18.558 20.068 21.368 22.538 23.588 23.998
588.339 24.808 26.108 25.358 23.618 22.138 20.288 18.248 16.328 15.158 14.568
607.628 14.598 15.428 16.918 19.308 22.568 26.548 31.488 37.338 44.238 51.788
626.918 57.058 58.318 56.318 51.158 43.028 33.308 23.808 15.998 10.458 7.158
646.208 5.428 4.298 3.538 3.148 2.778 2.598 2.528 2.158 1.918 1.818
665.498 1.818 2.148 2.068 1.588 1.468 1.628 1.718 1.698 1.658 1.658
684.787 1.608 1.658 1.668 1.568 1.518 1.598 1.738 1.958 2.228 2.538
704.077 3.178 3.928 4.808 5.828 6.888 7.688 8.278 9.098 10.398 12.148
723.367 14.768 18.558 23.288 27.868 31.238 33.038 33.128 31.138 27.238 23.228
742.657 20.488 19.248 19.028 19.698 21.418 23.818 26.388 28.898 31.318 33.738
761.947 36.798 37.168 31.468 25.908 22.448 18.568 15.038 12.398 10.628 9.328
781.236 8.368 7.588 6.908 6.378 5.928 5.458 5.078 4.688 4.278 3.978
800.526 3.868 3.678 3.448 3.298 3.278 3.258 3.308 3.338 3.468 3.578
819.816 3.818 4.238 4.528 4.898 5.258 5.488 5.578 5.618 5.528 5.388
839.106 5.058 4.638 4.248 3.668 3.228 2.838 2.388 2.098 1.758 1.658
858.395 1.738 1.708 1.638 1.628 1.738 1.858 1.888 1.968 2.118 2.298
877.685 2.578 2.728 2.748 2.918 3.278 3.608 4.118 4.938 5.728 6.338
896.975 6.928 7.298 7.588 7.998 8.238 7.898 7.168 6.558 5.908 5.108
916.265 4.228 3.368 2.788 2.328 1.978 1.718 1.478 1.458 1.398 1.2208
935.555 1.3076 1.3946 1.335 1.468 1.458 1.2905 1.3182 1.3398 1.448 1.438
954.844 1.2639 1.3104 1.418 1.418 1.2486 1.2798 1.357 1.3326 1.458 1.498
974.134 1.548 1.718 1.838 1.748 1.708 1.778 1.698 1.678 1.868 1.778
993.424 1.558 1.528 1.508 1.548 1.568 1.578 1.728 1.778 1.798 1.958
1012.714 2.068 2.038 2.068 2.168 1.928 1.568 1.638 1.768 1.628 1.668
1032.003 1.798 1.958 2.188 2.428 2.868 3.328 3.758 4.468 5.088 5.388
1051.293 5.608 5.778 5.808 5.578 5.498 5.558 5.588 5.788 6.178 6.268
1070.583 6.598 7.428 8.098 8.698 9.628 11.058 13.108 15.918 19.378 24.628
1089.873 31.708 40.138 49.888 59.918 69.028 75.878 79.288 78.448 72.888 63.468
1109.163 52.168 40.578 30.648 23.278 18.168 15.218 13.638 12.978 13.208 14.138
1128.452 15.728 17.738 20.078 22.748 25.718 28.818 32.198 35.358 37.658 39.558
1147.742 41.228 42.648 44.368 47.028 50.348 54.958 61.378 68.428 75.238 80.498
1167.032 83.318 84.258 83.588 81.618 79.468 79.378 81.988 86.598 93.028 99.058
1186.322 102.088 101.518 97.378 89.368 78.288 66.578 55.918 47.458 41.108 36.168
1205.611 32.458 29.488 26.918 24.698 22.708 21.068 19.818 18.888 18.008 17.528
1224.901 17.748 18.348 20.228 23.628 28.488 34.808 40.778 44.528 45.888 44.778
1244.191 41.028 35.238 28.378 22.658 19.118 17.058 15.838 15.468 15.678 16.208
1263.481 17.178 18.708 20.818 23.058 25.508 28.448 31.368 33.828 35.828 37.158
1282.771 37.228 36.518 35.768 34.918 34.088 33.678 33.798 34.428 35.428 36.678
1302.060 38.078 39.458 40.688 41.588 42.328 43.318 45.148 48.338 53.368 60.428
1321.350 68.678 76.708 82.808 85.428 84.188 79.698 72.668 64.138 55.628 48.538
1340.640 43.248 39.108 35.338 31.508 27.808 24.838 22.778 21.408 20.828 21.058
1359.930 22.048 23.808 26.058 28.568 31.108 33.238 34.598 34.968 34.438 33.148
1379.219 31.308 29.418 27.858 26.618 25.628 24.848 24.308 24.058 23.908 23.978
1398.509 24.508 25.298 25.988 26.178 25.468 23.798 21.368 18.268 14.778 11.448
1417.799 8.748 6.878 5.758 5.128 4.798 4.638 4.568 4.598 4.698 4.798
1437.089 4.898 5.088 5.358 5.618 5.908 6.378 7.068 7.858 8.828 10.098
1456.378 11.698 13.678 16.058 18.848 22.128 25.988 30.148 34.128 37.058 38.228
1475.668 37.218 34.178 29.498 23.668 17.738 12.768 9.298 7.138 5.848 5.008
1494.958 4.458 4.118 3.878 3.738 3.608 3.448 3.328 3.288 3.278 3.218
1514.248 3.148 3.098 3.038 2.988 2.998 3.038 2.988 3.008 3.028 3.058
1533.538 3.128 3.198 3.308 3.398 3.678 4.198 4.858 5.718 6.898 8.368
1552.827 9.998 11.918 13.798 15.398 16.548 17.008 16.658 15.668 14.308 12.808
1572.117 11.618 11.088 11.428 12.578 14.258 16.258 18.148 19.578 20.368 20.348
1591.407 19.368 17.518 15.128 12.588 10.258 8.318 6.828 5.718 4.888 4.158
1610.697 3.578 3.258 2.938 2.668 2.578 2.538 2.448 2.418 2.438 2.498
1629.986 2.518 2.478 2.488 2.548 2.588 2.508 2.458 2.358 2.188 2.078
1649.276 1.978 1.878 1.868 1.908 1.988 2.088 2.158 2.238 2.338 2.408
1668.566 2.408 2.388 2.378 2.328 2.298 2.268 2.198 2.158 2.178 2.278
1687.856 2.338 2.388 2.468 2.628 2.858 3.258 3.868 4.698 5.678 6.908
1707.146 8.328 9.688 10.808 11.498 11.688 11.408 10.878 10.128 9.328 8.648
1726.435 8.008 7.628 7.698 8.068 8.788 9.848 11.248 13.188 16.018 20.088
1745.725 26.038 35.148 48.998 69.698 98.268 133.658 171.808 204.128 222.958 224.628
1765.015 208.558 176.188 132.998 90.088 55.818 33.828 21.598 15.068 11.528 9.498
1784.305 8.448 7.828 7.408 7.078 6.858 6.808 6.838 7.088 7.668 8.378
1803.594 9.298 10.338 11.308 12.188 12.798 12.928 12.388 11.168 9.508 7.738
1822.884 6.168 4.878 3.828 3.068 2.538 2.148 1.928 1.818 1.718 1.698
1842.174 1.658 1.638 1.648 1.578 1.598 1.618 1.608 1.588 1.558 1.518
1861.464 1.438 1.438 1.428 1.3397 1.3068 1.3411 1.438 1.608 1.778 1.918
1880.754 2.058 2.098 2.028 1.868 1.648 1.418 1.2212 1.0814 0.9798 0.927
1900.043 0.8912 0.9134 0.9512 0.9783 0.9611 0.8962 0.8914 0.9142 0.9084 0.9007
1919.333 0.9307 0.9636 0.9856 1.0019 0.9765 0.9445 1.0162 1.0629 1.013 1.0331
1938.623 1.0869 1.0559 0.9998 1.0059 1.0209 1.0469 1.0303 0.914 0.8585 0.8251
1957.913 0.7556 0.7336 0.7424 0.7311 0.7219 0.7808 0.8096 0.8099 0.8559 0.8496
1977.202 0.8213 0.8008 0.7426 0.7318 0.7581 0.7459 0.7032 0.7061 0.7743 0.768
1996.492 0.7544 0.7452 0.6748 0.6347 0.6633 0.7193 0.7571 0.7076 0.66 0.7243
2015.782 0.7918 0.8194 0.8444 0.8455 0.8538 0.9015 0.9112 0.8251 0.8078 0.849
2035.072 0.8274 0.7909 0.7483 0.6873 0.702 0.7486 0.7662 0.7567 0.7368 0.7219
2054.362 0.7071 0.771 0.8115 0.7875 0.7633 0.7984 0.7819 0.7064 0.6929 0.638
2073.651 0.6009 0.6349 0.6275 0.6071 0.6389 0.6294 0.5958 0.592 0.5868 0.5912
2092.941 0.5834 0.5736 0.6261 0.6692 0.6281 0.6489 0.6828 0.6629 0.6747 0.6956
2112.231 0.6641 0.6039 0.5951 0.5983 0.5498 0.4957 0.44294 0.47667 0.5281 0.5225
2131.521 0.518 0.5525 0.5254 0.48353 0.5459 0.5867 0.5712 0.5625 0.606 0.6465
2150.810 0.7102 0.7256 0.7085 0.6935 0.7303 0.7703 0.726 0.693 0.7171 0.7446
2170.100 0.7052 0.6758 0.6793 0.6879 0.7335 0.8155 0.835 0.8297 0.8861 0.9401
2189.390 0.9686 0.9724 0.9904 1.0833 1.1601 1.1175 1.0717 1.0771 1.1115 1.1262
2208.680 1.0691 1.0666 1.0738 1.0326 1.012 1.0408 1.0873 1.1334 1.1553 1.155
2227.970 1.1844 1.1699 1.0846 1.0156 1.0096 0.9335 0.8257 0.7446 0.6373 0.6285
2247.259 0.6419 0.5696 0.5388 0.5496 0.5437 0.567 0.5574 0.5254 0.5332 0.5604
2266.549 0.6091 0.6255 0.6678 0.6627 0.5966 0.6195 0.6089 0.5918 0.6719 0.6773
2285.839 0.6989 0.7207 0.6928 0.7295 0.7757 0.8651 0.8714 0.8536 0.9263 1.0039
2305.129 1.0147 1.0501 1.147 1.2082 1.273 1.3277 1.418 1.428 1.408 1.458
2324.418 1.518 1.568 1.588 1.598 1.638 1.648 1.608 1.568 1.568 1.578
2343.708 1.568 1.498 1.398 1.398 1.448 1.558 1.718 1.848 1.908 1.968
2362.998 1.948 1.918 1.898 1.848 1.768 1.628 1.508 1.3911 1.3487 1.2547
2382.288 1.1035 1.0051 0.9044 0.8264 0.7998 0.8588 0.8692 0.779 0.7269 0.7783
2401.578 0.8178 0.8272 0.8171 0.7876 0.7814 0.8127 0.8078 0.7958 0.7731 0.7763
2420.867 0.8554 0.878 0.87 0.8859 0.8986 0.8914 0.9133 0.9318 0.9722 0.919
2440.157 0.8745 0.8856 0.887 0.8772 0.9129 0.9389 0.9032 0.9119 0.909 0.9321
2459.447 0.9735 0.9888 1.0545 1.1312 1.0911 1.0804 1.0981 1.1451 1.1667 1.0927
2478.737 1.0985 1.1329 1.1185 1.0642 0.9906 0.9917 1.0072 0.9218 0.8287 0.8442
2498.026 0.9305 0.9929 1.0091 1.0446 1.0946 1.0882 1.1582 1.2709 1.3058 1.2789
2517.316 1.2686 1.274 1.2456 1.2143 1.1235 1.0526 1.0742 1.0358 0.9437 0.8413
2536.606 0.7798 0.8488 0.8848 0.8413 0.8383 0.8716 0.8714 0.8165 0.8012 0.8246
2555.896 0.8112 0.7897 0.8332 0.8445 0.7959 0.8449 0.8956 0.8836 0.8185 0.8073
2575.186 0.7644 0.6887 0.6455 0.5594 0.5283 0.5504 0.49232 0.405706 0.3784 0.41678
2594.475 0.4548 0.5016 0.5335 0.48969 0.45626 0.46726 0.48973 0.4897 0.5486 0.5519
2613.765 0.5466 0.5698 0.5959 0.5952 0.5525 0.5332 0.499 0.48428 0.5745 0.5928
2633.055 0.5207 0.5837 0.7056 0.7808 0.8184 0.8359 0.7908 0.7603 0.8314 0.8611
2652.345 0.8805 0.8571 0.8017 0.8463 0.7782 0.7117 0.7236 0.664 0.6688 0.6695
2671.634 0.5768 0.5298 0.5439 0.5212 0.43512 0.3853 0.3524 0.3457 0.3801 0.404525
2690.924 0.43635 0.46575 0.47935 0.5063 0.47551 0.44505 0.4805 0.5241 0.5376 0.5054
2710.214 0.48673 0.48301 0.527 0.557 0.5309 0.5216 0.5383 0.5578 0.5466 0.5715
2729.504 0.6069 0.6368 0.6634 0.6659 0.6846 0.6808 0.6807 0.7474 0.774 0.7183
2748.794 0.7529 0.8281 0.8355 0.783 0.7362 0.6859 0.591 0.6136 0.6159 0.6074
2768.083 0.6687 0.6149 0.5378 0.5338 0.5398 0.5396 0.47009 0.45824 0.5244 0.5529
2787.373 0.4884 0.45311 0.45244 0.40819 0.402094 0.39391 0.41812 0.41226 0.47195 0.5278
2806.663 0.48479 0.41164 0.3258 0.3386 0.3271 0.287 0.3223 0.3435 0.3306 0.323
2825.953 0.3287 0.401158 0.46225 0.40743 0.3878 0.47625 0.46588 0.3876 0.42907 0.43458
2845.242 0.399043 0.46134 0.48481 0.5429 0.6485 0.6337 0.6948 0.8081 0.8056 0.7638
2864.532 0.7645 0.7505 0.7327 0.7363 0.7155 0.6322 0.5123 0.45871 0.4506 0.41632
2883.822 0.43569 0.5336 0.49349 0.3046 0.3026 0.5036 0.5998 0.5435 0.5254 0.49046
2903.112 0.40811 0.43842 0.44997 0.5642 0.6173 0.45774 0.3626 0.3563 0.45678 0.5288
2922.401 0.5289 0.5189 0.43867 0.43976 0.48569 0.38922 0.3298 0.355 0.3722 0.3871
2941.691 0.40806 0.46102 0.48608 0.5551 0.5976 0.6139 0.5778 0.5285 0.6161 0.6015
2960.981 0.5003 0.405447 0.38906 0.3037 0.3215 0.3655 0.3153 0.3853 0.304 0.291
2980.271 0.41611 0.329 0.266 0.3547 0.3432 0.259 0.279 0.3243 0.3627 0.4097
2999.561 0.41739 0.3858 0.257 0.262 0.3476 0.3501 0.3132 0.249 0.272 0.3575
3018.850 0.3772 0.3606 0.3192 0.238 0.291 0.39428 0.3825 0.3355 0.3238 0.45814
3038.140 0.5729 0.5191 0.5071 0.47499 0.44318 0.48982 0.5243 0.507 0.46387 0.43428
3057.430 0.46769 0.572 0.5915 0.5981 0.6426 0.6931 0.8183 0.9684 1.0543 1.2128
3076.720 1.408 1.718 2.088 2.318 2.538 2.718 2.728 2.608 2.398 2.188
3096.009 2.028 1.768 1.578 1.408 1.2718 1.121 1.0235 1.0365 0.9814 0.9593
3115.299 0.8497 0.7296 0.6477 0.6732 0.7912 0.7574 0.8028 0.9083 0.843 0.7593
3134.589 0.7184 0.7536 0.7324 0.7313 0.6699 0.5881 0.5759 0.6151 0.6341 0.6015
3153.879 0.7095 0.6759 0.5404 0.47139 0.3684 0.39084 0.47711 0.44467 0.41732 0.39251
3173.169 0.39507 0.5133 0.5234 0.41538 0.48166 0.5475 0.47895 0.3638 0.3216 0.398427
3192.458 0.3451 0.3215 0.44357 0.47892 0.43501 0.45533 0.4416 0.40997 0.46776 0.49467
3211.748 0.44569 0.3507 0.3123 0.3113 0.259 0.309 0.3634 0.3331 0.41738 0.41299
3231.038 0.3208 0.3674 0.42817 0.48469 0.42006 0.3409 0.3723 0.39448 0.4916 0.4901
3250.328 0.3296 0.3819 0.5806 0.699 0.7712 0.9366 1.0921 1.0912 1.1032 1.0429
3269.617 0.9983 1.0036 0.9288 0.9247 0.9879 0.9061 0.7424 0.6479 0.6093 0.48319
3288.907 0.3792 0.3588 0.43339 0.47504 0.41427 0.41155 0.291 0.198 0.264 0.258
3308.197 0.202 0.293 0.3188 0.271 0.3016 0.3294 0.3486 0.3562 0.3727 0.3654
3327.487 0.3674 0.3451 0.3818 0.5335 0.6094 0.5501 0.5619 0.5566 0.5009 0.5568
3346.777 0.6073 0.5313 0.5017 0.5689 0.6291 0.6023 0.46371 0.47411 0.5411 0.5085
3366.066 0.45324 0.5044 0.5157 0.4339 0.399564 0.39392 0.3187 0.288 0.3237 0.40976
3385.356 0.5966 0.6074 0.5064 0.47782 0.5115 0.5724 0.679 0.7161 0.6769 0.7711
3404.646 0.8309 0.6991 0.5892 0.6841 0.7305 0.6072 0.5415 0.5552 0.6112 0.5249
3423.936 0.407706 0.4153 0.3653 0.272 0.44893 0.5508 0.41347 0.47785 0.5025 0.5108
3443.225 0.6205 0.5666 0.40964 0.4465 0.45062 0.44745 0.6159 0.7068 0.7312 0.6837
3462.515 0.6779 0.7577 0.7472 0.8044 1.0066 1.0686 0.9916 1.1242 1.2593 1.1886
3481.805 1.1045 1.1059 1.1036 1.1389 1.3012 1.3927 1.628 1.978 2.248 2.498
3501.095 2.638 2.968 3.318 3.638 4.108 4.478 5.018 5.868 7.268 9.908
3520.385 14.398 22.008 33.768 48.208 62.078 72.258 77.828 78.428 73.588 64.148
3539.674 52.858 42.828 34.818 28.318 22.708 17.858 13.938 10.878 8.648 6.988
3558.964 5.788 5.118 4.918 5.408 6.818 9.118 12.888 19.248 28.488 40.648
3578.254 54.678 67.838 76.448 77.938 73.018 63.608 49.918 33.928 20.128 11.378
3597.544 6.788 4.378 3.188 2.488 1.938 1.698 1.448 1.1782 1.2135 1.2142
3616.833 1.1718 1.0513 1.0198 1.0536 0.9472 0.871 0.9268 0.8926 0.7719 0.6503
3636.123 0.6985 0.7401 0.5871 0.5798 0.5454 0.5156 0.5441 0.5088 0.5638 0.5971
3655.413 0.5334 0.5362 0.5774 0.6601 0.6656 0.5855 0.5872 0.5429 0.39467 0.402328
3674.703 0.5026 0.5152 0.5598 0.5777 0.44638 0.5107 0.5642 0.5435 0.6334 0.6975
3693.993 0.7027 0.6392 0.5344 0.4588 0.46037 0.5124 0.5563 0.47775 0.3388 0.263
3713.282 0.278 0.275 0.238 0.199 0.171 0.169 0.293 0.3316 0.214 0.145
3732.572 0.21 0.3369 0.39468 0.283 0.303 0.3687 0.27 0.237 0.146 0.131
3751.862 0.22 0.146 0.019 0.065 0.044 0 0.092 0.106 0.077 0.166
3771.152 0.3462 0.3727 0.258 0.192 0.205 0.134 0.089 0.184 0.3574 0.47107
3790.441 0.5097 0.6087 0.7123 0.7533 0.6635 0.63 0.7814 0.7814 0.5706 0.41033
3809.731 0.4164 0.3483 0.19 0.284 0.3744 0.271 0.251 0.226 0.164 0.162
3829.021 0.158 0.117 0.214 0.239 0.081 0.093 0.25 0.3249 0.227 0.182
3848.311 0.155 0.22 0.3265 0.400143 0.3728 0.204 0.24 0.3672 0.3024 0.3063
3867.601 0.257 0.192 0.271 0.23 0.221 0.316 0.283 0.201 0.267 0.298
3886.890 0.274 0.242 0.184 0.248 0.3057 0.3197 0.3622 0.233 0.079 0.107
3906.180 0.157 0.117 0.033 0.075 0.162 0.24 0.186 0.224 0.341 0.24
3925.470 0.257 0.284 0.236 0.345 0.402489 0.3158 0.3384 0.3348 0.400646 0.5031
3944.760 0.3018 0.245 0.26 0.273 0.23 0.242 0.342 0.217 0.174 0.248
3964.049 0.3965 0.46277 0.39356 0.3113 0.3641 0.40887 0.3858 0.397372 0.42941 0.42058
3983.339 0.41969 0.407815 0.234 0.198 0.381 0.279 0.053 0.186 0.259 0.192
##END=
