##TITLE=1,12-Dibromododecane
##JCAMP-DX=4.24
##DATA TYPE=INFRARED SPECTRUM
##ORIGIN=NIST Mass Spectrometry Data Center
##OWNER=NIST Standard Reference Data Program
Collection (C) 2018 copyright by the U.S. Secretary of Commerce
on behalf of the United States of America. All rights reserved.
##CAS REGISTRY NO=3344-70-5
##MOLFORM=C 12 H 24 Br 2
##$NIST SOURCE=MSDC-IR
##SPECTROMETER/DATA SYSTEM=HP-GC/MS/IRD
##STATE=gas
##XUNITS=1/CM
##YUNITS=ABSORBANCE
##XFACTOR=1.0
##YFACTOR=0.000004500
##DELTAX=4.0
##FIRSTX=550.0
##LASTX=3846.0
##FIRSTY=0.001566
##MAXX=3846
##MINX=550
##MAXY=0.045
##MINY=0
##NPOINTS=825
##XYDATA=(X++(Y..Y))
550.0 348 209 160 279 362 389 331 235 158 97
590.0 60 33 17 12 11 18 25 43 68 109
630.0 163 238 309 396 498 537 503 401 278 173
670.0 108 75 50 53 59 53 65 82 106 143
710.0 181 224 267 292 285 275 264 248 242 223
750.0 202 192 171 156 151 140 128 129 127 122
790.0 122 112 104 106 97 92 87 94 95 89
830.0 84 84 85 79 77 82 80 81 84 82
870.0 86 99 95 83 86 88 88 91 92 88
910.0 87 85 78 77 81 79 76 71 73 74
950.0 71 71 73 70 68 73 81 79 82 84
990.0 81 82 80 80 85 91 88 89 95 97
1030.0 88 79 82 77 71 70 61 56 50 46
1070.0 44 31 27 33 33 20 16 22 21 20
1110.0 18 21 20 14 20 25 25 26 29 32
1150.0 30 32 40 55 64 67 74 91 116 144
1190.0 169 206 271 351 436 527 613 687 742 767
1230.0 779 791 821 875 944 1011 1068 1105 1103 1043
1270.0 950 856 790 732 684 647 609 572 521 468
1310.0 419 373 330 290 263 255 272 309 339 368
1350.0 400 412 389 350 304 258 217 170 131 112
1390.0 103 102 99 92 102 116 139 183 226 279
1430.0 375 523 675 799 865 875 919 962 922 801
1470.0 637 470 322 224 170 136 111 96 87 89
1510.0 83 67 62 57 44 39 41 46 47 41
1550.0 33 32 41 32 23 23 21 21 12 7
1590.0 10 14 12 9 11 10 9 11 11 14
1630.0 13 14 16 18 18 22 25 21 19 20
1670.0 19 19 20 26 24 14 20 27 29 24
1710.0 18 27 26 14 13 20 26 18 12 14
1750.0 17 15 10 11 15 21 21 16 18 20
1790.0 18 17 17 22 18 18 17 14 14 19
1830.0 21 18 17 20 20 14 13 18 23 22
1870.0 16 11 11 10 11 15 16 11 8 10
1910.0 9 11 16 20 20 17 16 17 17 17
1950.0 13 12 17 16 13 11 12 13 14 14
1990.0 18 19 19 23 24 22 23 25 23 24
2030.0 29 28 30 32 29 27 27 25 22 18
2070.0 20 20 17 18 20 21 22 22 22 21
2110.0 20 23 23 21 20 21 20 18 16 18
2150.0 22 21 22 25 24 24 30 32 27 21
2190.0 20 22 23 22 22 24 23 23 24 22
2230.0 21 20 18 20 25 25 21 24 27 26
2270.0 23 23 24 23 24 21 17 17 20 24
2310.0 21 19 24 26 25 26 25 24 29 24
2350.0 25 28 30 31 34 32 20 19 22 21
2390.0 20 18 16 20 21 16 16 19 18 15
2430.0 13 18 23 17 13 11 12 13 11 11
2470.0 16 19 21 20 20 20 23 22 20 22
2510.0 24 25 24 28 30 31 33 36 32 30
2550.0 31 33 28 30 31 27 28 33 42 45
2590.0 46 50 52 47 48 50 49 55 62 68
2630.0 71 75 77 79 85 92 93 101 109 110
2670.0 111 115 119 123 124 122 123 125 114 108
2710.0 110 105 103 104 104 102 94 96 104 108
2750.0 110 119 125 129 134 138 147 153 164 182
2790.0 200 213 232 254 278 307 342 384 433 495
2830.0 573 677 821 1023 1321 1755 2380 3164 3772 3839
2870.0 3403 2803 2300 1985 1844 1845 1958 2156 2422 2777
2910.0 3247 3876 4766 6040 7664 9202 10000 9735 8577 6964
2950.0 5350 4019 3085 2549 2307 2140 1864 1520 1211 971
2990.0 802 695 651 648 696 780 802 691 519 389
3030.0 320 272 229 202 183 167 159 143 129 126
3070.0 116 107 101 93 87 79 77 75 71 67
3110.0 63 65 69 66 63 62 65 63 55 50
3150.0 52 57 55 54 55 54 46 42 43 42
3190.0 46 45 48 41 28 23 32 33 33 35
3230.0 27 23 26 27 27 22 18 24 31 29
3270.0 23 25 25 26 33 27 22 16 11 20
3310.0 23 21 21 19 28 26 19 19 20 14
3350.0 13 18 17 12 8 8 15 15 12 16
3390.0 14 15 18 15 11 11 14 14 16 9
3430.0 2 3 11 3 2 10 17 20 19 15
3470.0 12 12 10 5 4 0 3 9 8 4
3510.0 7 6 0 0 5 4 0 0 9 18
3550.0 15 7 11 16 18 9 1 6 10 21
3590.0 21 10 13 17 23 21 22 31 24 28
3630.0 38 27 19 19 30 40 29 12 17 16
3670.0 14 23 22 22 23 17 13 11 12 18
3710.0 23 17 14 20 24 24 30 30 29 29
3750.0 24 24 21 14 15 21 12 7 11 5
3790.0 5 10 7 7 10 11 19 20 13 8
3830.0 6 15 20 17 10
##END=
