##TITLE=2,6-Dichlorobenzyl methyl ether
##JCAMP-DX=4.24
##DATA TYPE=INFRARED SPECTRUM
##ORIGIN=EPA-IR VAPOR PHASE LIBRARY
##OWNER=SRD/NIST
Collection (C) 2018 copyright by the U.S. Secretary of Commerce
on behalf of the United States of America. All rights reserved.
##CAS REGISTRY NO=33486-90-7
##MOLFORM=C 8 H 8 Cl 2 O
##$NIST SOURCE=MSDC-IR
##STATE=gas
##XUNITS=1/CM
##YUNITS=ABSORBANCE
##XFACTOR=1.
##YFACTOR=0.001
##DELTAX=1.92934
##FIRSTX=549.9
##LASTX=3999.5
##FIRSTY=0.319
##MAXX=3999.53
##MINX=549.863
##MAXY=0.06185
##MINY=0
##NPOINTS=1789
##XYDATA=(X++(Y..Y))
549.863 0.319 0.399 0.419 0.291 0.364 0.4843 0.4985 0.406 0.375 0.4854
569.156 0.4931 0.4899 0.449 0.393 0.4863 0.57801 0.5195 0.5184 0.4928 0.435
588.450 0.413 0.54823 0.6884 0.6687 0.61807 0.57434 0.6807 0.64208 0.58492 0.62682
607.743 0.59336 0.6801 0.7711 0.7734 0.8366 0.9263 1.1207 1.286 1.3475 1.57
627.037 1.73 1.65 1.63 1.66 1.56 1.4826 1.4225 1.2654 1.1207 0.9722
646.330 0.8364 0.7607 0.7778 0.7564 0.6909 0.6937 0.7037 0.7633 0.6911 0.62108
665.624 0.6907 0.64766 0.63719 0.7006 0.7437 0.7436 0.6914 0.658 0.7292 0.7837
684.917 0.8556 0.9976 0.9748 1.0249 1.1575 1.2992 1.4074 1.5194 1.66 1.84
704.210 2.2 2.6 3.1 3.82 4.59 5.39 6.25 7.15 7.91 8.58
723.504 9.16 9.12 8.41 7.5 6.74 6.04 5.27 4.63 4.18 3.91
742.797 3.9 4.23 4.92 5.92 7.19 8.8 10.9 13.63 17.15 21.54
762.091 26.7 32.29 37.67 42 44.77 46.79 49.35 48.68 39.7 29.08
781.384 22.66 17.99 13.86 10.41 7.76 5.94 4.85 4.17 3.71 3.39
800.678 3.13 2.98 2.94 2.87 2.84 2.84 2.84 2.93 3.02 3.18
819.971 3.46 3.64 3.83 4 3.98 3.95 3.87 3.69 3.51 3.28
839.264 2.95 2.66 2.49 2.33 2.16 2.02 1.87 1.75 1.65 1.58
858.558 1.4961 1.448 1.4384 1.4383 1.4558 1.4132 1.3874 1.4098 1.4081 1.4399
877.851 1.5194 1.56 1.55 1.59 1.68 1.77 1.91 2.1 2.32 2.52
897.145 2.77 3.15 3.56 4.06 4.53 4.95 5.25 5.34 5.42 5.36
916.438 5.08 4.7 4.31 3.87 3.44 3.14 2.99 2.96 3.01 3.11
935.732 3.32 3.61 3.95 4.37 4.76 5.14 5.57 5.93 6.2 6.44
955.025 6.56 6.58 6.55 6.43 6.26 5.99 5.78 5.72 5.78 5.93
974.318 6.15 6.49 6.98 7.66 8.34 8.93 9.45 9.76 9.79 9.59
993.612 9.18 8.62 7.88 6.96 6.09 5.31 4.6 4 3.54 3.25
1012.905 3.08 2.9 2.82 2.87 2.89 2.91 2.99 3.05 3.05 3.12
1032.199 3.18 3.21 3.32 3.43 3.5 3.58 3.62 3.72 3.81 3.87
1051.492 4 4.14 4.28 4.51 4.78 5.09 5.46 5.83 6.29 6.87
1070.786 7.42 7.9 8.54 9.36 10.36 11.48 12.68 14.07 15.58 17.43
1090.079 19.73 22.21 24.85 28.09 32.32 37.41 42.88 48.35 53.44 57.65
1109.372 60.57 61.85 61.32 59 55.07 49.84 43.74 37.33 31.12 25.43
1128.666 20.53 16.73 13.94 11.95 10.5 9.47 8.81 8.41 8.26 8.25
1147.959 8.26 8.35 8.54 8.73 8.93 9.11 9.22 9.27 9.23 9.18
1167.253 9.21 9.34 9.54 9.88 10.43 11.22 12.32 13.68 15.23 16.93
1186.546 18.63 20.39 22.07 23.36 24.17 24.37 23.89 22.77 21.03 18.84
1205.840 16.43 13.91 11.53 9.45 7.77 6.51 5.57 4.97 4.64 4.42
1225.133 4.35 4.36 4.33 4.34 4.42 4.46 4.41 4.4 4.35 4.27
1244.426 4.12 3.93 3.82 3.64 3.42 3.2 2.95 2.74 2.53 2.33
1263.720 2.15 1.98 1.83 1.74 1.68 1.58 1.5051 1.488 1.4951 1.525
1283.013 1.59 1.68 1.77 1.83 1.88 1.98 2.08 2.12 2.15 2.18
1302.307 2.13 2.03 1.96 1.89 1.84 1.75 1.66 1.68 1.63 1.57
1321.600 1.58 1.58 1.548 1.5314 1.59 1.62 1.63 1.63 1.62 1.65
1340.894 1.78 1.91 1.98 2.16 2.37 2.56 2.8 3.06 3.4 3.85
1360.187 4.35 4.82 5.36 5.99 6.55 7.04 7.54 8.07 8.61 8.99
1379.480 9.15 9.13 8.89 8.51 7.99 7.34 6.63 5.87 5.12 4.56
1398.774 4.18 3.97 3.95 4.06 4.27 4.55 4.91 5.37 5.96 6.73
1418.067 7.68 8.99 10.74 13.05 15.99 19.48 23.25 26.69 29.29 30.79
1437.361 31.17 30.32 28.35 25.55 21.86 17.68 13.85 11.08 9.31 8.27
1456.654 7.65 7.3 7.17 7.12 7.07 7.02 6.97 6.83 6.55 6.24
1475.948 6.01 5.77 5.44 5.16 4.96 4.78 4.68 4.51 4.25 4.09
1495.241 3.92 3.66 3.39 3.13 2.93 2.71 2.41 2.15 2.03 1.98
1514.534 1.86 1.76 1.76 1.74 1.79 1.79 1.74 1.79 1.89 1.97
1533.828 2.06 2.23 2.53 2.84 3.19 3.63 4.27 5.21 6.39 7.95
1553.121 9.87 12.16 14.58 17.14 19.46 21.19 22.32 22.89 22.72 21.65
1572.415 19.7 17.25 14.83 12.93 11.5 10.25 9.07 7.94 6.85 5.78
1591.708 4.78 3.98 3.41 2.99 2.74 2.52 2.39 2.27 2.14 2.07
1611.002 1.93 1.9 1.89 1.76 1.69 1.59 1.5065 1.5066 1.5114 1.4711
1630.295 1.4122 1.3843 1.362 1.3629 1.3702 1.3221 1.3259 1.3408 1.3471 1.3193
1649.588 1.3034 1.376 1.4502 1.5077 1.56 1.63 1.66 1.66 1.63 1.56
1668.882 1.5375 1.4183 1.3003 1.176 1.0677 1.0304 0.9323 0.8862 0.8925 0.8498
1688.175 0.8188 0.8368 0.8287 0.7777 0.6837 0.703 0.728 0.7079 0.704 0.6695
1707.469 0.729 0.7613 0.691 0.6681 0.6792 0.6666 0.7165 0.7557 0.7624 0.7572
1726.762 0.7554 0.7969 0.7824 0.7362 0.7257 0.7852 0.7676 0.6866 0.7041 0.7301
1746.056 0.7041 0.665 0.60455 0.64182 0.7282 0.7201 0.6964 0.6947 0.7495 0.822
1765.349 0.8533 0.8684 0.9643 1.0927 1.1986 1.2531 1.2898 1.3165 1.273 1.1839
1784.642 1.0857 1.0428 0.9786 0.8791 0.8316 0.7934 0.7056 0.64971 0.62843 0.6351
1803.936 0.64633 0.60945 0.60788 0.64657 0.6567 0.63299 0.61175 0.62683 0.64308 0.6621
1823.229 0.6669 0.6512 0.6786 0.755 0.8032 0.7983 0.8538 0.9664 1.0414 1.0982
1842.523 1.2006 1.2795 1.3728 1.468 1.4301 1.4078 1.4166 1.3598 1.2622 1.1668
1861.816 1.1239 1.016 0.9027 0.8542 0.7745 0.7088 0.7043 0.6687 0.63366 0.64315
1881.110 0.62959 0.6274 0.61724 0.63666 0.6552 0.63258 0.61983 0.64239 0.6982 0.6965
1900.403 0.6846 0.7363 0.8144 0.8608 0.9226 0.9951 1.0846 1.1961 1.2778 1.3461
1919.696 1.4471 1.5043 1.5392 1.57 1.504 1.4437 1.3903 1.2894 1.1779 1.0721
1938.990 0.9561 0.9086 0.8692 0.7793 0.7033 0.6665 0.6606 0.6583 0.64555 0.62304
1958.283 0.63833 0.662 0.6985 0.72 0.7199 0.7263 0.7512 0.7564 0.7272 0.7693
1977.577 0.8061 0.7611 0.7381 0.7557 0.7971 0.8305 0.8515 0.9042 0.919 0.8993
1996.870 0.8899 0.9056 0.9213 0.913 0.9253 0.9882 1.0165 1.0269 1.003 0.9757
2016.164 0.9969 1.0113 0.9825 0.958 0.9725 0.961 0.9703 0.9792 0.9918 0.9831
2035.457 0.9798 1.0259 1.0712 1.0632 1.0526 1.0867 1.1164 1.1386 1.1665 1.1983
2054.750 1.2227 1.19 1.1666 1.1744 1.162 1.1579 1.1358 1.1243 1.1174 1.0617
2074.044 1.0009 0.9874 0.9457 0.9134 0.9094 0.8826 0.8538 0.8515 0.8222 0.7916
2093.337 0.798 0.755 0.7255 0.7271 0.7308 0.7112 0.6806 0.6908 0.667 0.6553
2112.631 0.6708 0.6568 0.63633 0.63091 0.62612 0.60187 0.61475 0.60946 0.59224 0.60723
2131.924 0.60151 0.62113 0.6262 0.62811 0.6526 0.64322 0.64769 0.61297 0.56287 0.55735
2151.218 0.59322 0.61424 0.60036 0.60735 0.59995 0.57645 0.58139 0.59564 0.60084 0.58578
2170.511 0.56639 0.54319 0.5395 0.553234 0.556448 0.556552 0.54762 0.56288 0.5858 0.58975
2189.804 0.57924 0.551855 0.5734 0.63151 0.61566 0.57527 0.57705 0.60158 0.61015 0.62577
2209.098 0.61986 0.61435 0.63603 0.64371 0.59253 0.549849 0.58462 0.57147 0.57089 0.5605
2228.391 0.5308 0.5309 0.515 0.5015 0.5114 0.5357 0.4945 0.4706 0.4993 0.4967
2247.685 0.5058 0.4965 0.5087 0.521 0.5049 0.54852 0.58056 0.54574 0.5037 0.4893
2266.978 0.5296 0.555285 0.5227 0.549267 0.5826 0.609 0.62979 0.62388 0.61127 0.61014
2286.272 0.63687 0.63693 0.59449 0.57892 0.58907 0.59368 0.6204 0.6504 0.6635 0.6604
2305.565 0.694 0.7307 0.6935 0.6711 0.63842 0.64887 0.6832 0.6515 0.61736 0.56883
2324.858 0.56896 0.556856 0.54053 0.56075 0.557558 0.5376 0.553227 0.557093 0.557001 0.59
2344.152 0.59709 0.57817 0.57415 0.57806 0.62664 0.6686 0.63478 0.5998 0.559056 0.57143
2363.445 0.57554 0.54764 0.54759 0.5137 0.5307 0.5311 0.4901 0.5177 0.60015 0.63162
2382.739 0.5893 0.61754 0.64334 0.61851 0.59993 0.60131 0.59806 0.57024 0.54883 0.54552
2402.032 0.5304 0.54417 0.57892 0.56897 0.58908 0.57236 0.54195 0.552389 0.5219 0.4867
2421.326 0.488 0.4851 0.4864 0.4828 0.4763 0.4878 0.4805 0.4999 0.54593 0.5375
2440.619 0.5024 0.5076 0.5091 0.5116 0.5266 0.54627 0.557735 0.54229 0.54616 0.5358
2459.912 0.54124 0.534 0.4992 0.54796 0.549881 0.5275 0.552555 0.56236 0.5238 0.5021
2479.206 0.5113 0.4941 0.5123 0.5384 0.5113 0.4911 0.517 0.5169 0.5287 0.551923
2498.499 0.5276 0.4692 0.481 0.517 0.499 0.5096 0.5188 0.5721 0.57652 0.5143
2517.793 0.4664 0.4582 0.4523 0.4855 0.54857 0.5352 0.5144 0.5277 0.57157 0.549431
2537.086 0.4881 0.4582 0.4589 0.4925 0.4959 0.5172 0.61392 0.61409 0.549255 0.5377
2556.380 0.4751 0.457 0.4889 0.4751 0.4981 0.4944 0.5035 0.59606 0.62501 0.60906
2575.673 0.6413 0.60226 0.56995 0.6175 0.63981 0.6525 0.64352 0.63846 0.7161 0.7545
2594.966 0.74 0.7552 0.7532 0.7233 0.6975 0.6795 0.6655 0.6728 0.62352 0.58705
2614.260 0.62585 0.62786 0.60353 0.63695 0.6285 0.60999 0.64629 0.64842 0.6551 0.7186
2633.553 0.765 0.7518 0.7602 0.8264 0.8053 0.7967 0.8406 0.8727 0.8528 0.763
2652.847 0.7828 0.8843 0.9125 0.8319 0.8416 0.8188 0.7209 0.6999 0.7395 0.727
2672.140 0.7299 0.7472 0.7145 0.6826 0.6689 0.7237 0.7326 0.7125 0.6926 0.6956
2691.434 0.7047 0.6926 0.63377 0.62327 0.6728 0.6524 0.63473 0.60597 0.6796 0.7235
2710.727 0.6554 0.6797 0.6868 0.674 0.7242 0.7749 0.8357 0.8632 0.8268 0.802
2730.020 0.8423 0.8852 0.9434 1.025 1.0705 1.1243 1.149 1.1253 1.1107 1.0848
2749.314 1.0994 1.1117 1.0708 1.1163 1.1224 1.0791 1.0688 1.0698 1.1306 1.1511
2768.607 1.2154 1.3443 1.42 1.4009 1.4006 1.4505 1.5119 1.57 1.59 1.72
2787.901 1.89 2.13 2.32 2.47 2.66 2.96 3.42 3.81 4.23 4.73
2807.194 5.33 6.12 6.88 7.48 8.09 8.8 9.56 10.23 10.79 11.13
2826.488 11.39 11.54 11.48 11.3 10.93 10.38 9.64 8.83 7.98 7.23
2845.781 6.67 6.17 5.81 5.61 5.43 5.36 5.44 5.55 5.68 5.89
2865.074 6.16 6.53 6.95 7.4 7.95 8.51 9.03 9.57 10.16 10.67
2884.368 11.06 11.35 11.57 11.71 11.93 12.22 12.44 12.7 12.97 13.13
2903.661 13.38 13.52 13.4 13.31 13.23 13.25 13.48 13.78 14.09 14.57
2922.955 15.26 16.01 16.73 17.33 17.68 17.75 17.52 17.04 16.5 15.77
2942.248 14.9 14.03 13.02 12.07 11.21 10.48 9.86 9.35 8.92 8.57
2961.542 8.29 7.94 7.7 7.52 7.32 7.13 7.11 7.1 7.15 7.43
2980.835 7.75 8.23 8.85 9.45 10.13 10.7 11.12 11.32 11.28 10.91
3000.128 9.99 8.87 7.89 6.76 5.64 4.84 4.03 3.43 3.09 2.8
3019.422 2.48 2.21 2.05 1.97 1.89 1.9 1.89 1.69 1.65 1.67
3038.715 1.64 1.56 1.5363 1.62 1.64 1.71 1.86 1.94 2.13 2.47
3058.009 2.72 2.91 3.16 3.34 3.44 3.49 3.55 3.67 3.65 3.66
3077.302 3.52 3.34 3.35 3.17 2.95 2.86 2.66 2.35 2.06 1.7
3096.596 1.4263 1.3002 1.17 1.1294 1.1803 1.0937 0.8773 0.7149 0.744 0.8988
3115.889 0.9448 0.9766 1.1316 1.1717 1.141 1.0365 1.0047 1.0996 1.1104 1.0627
3135.182 1.0144 0.7685 0.5178 0.59369 0.53 0.4518 0.4724 0.451 0.38 0.259
3154.476 0.263 0.239 0.186 0.177 0.208 0.366 0.273 0.096 0.133 0.154
3173.769 0.182 0.234 0.174 0.064 0.117 0.193 0.112 0.127 0.251 0.205
3193.063 0.114 0.214 0.177 0.091 0.193 0.184 0.151 0.27 0.246 0.089
3212.356 0.059 0.036 0.076 0.204 0.168 0.106 0.14 0.156 0.156 0.103
3231.650 0.051 0.023 0.033 0.177 0.209 0.011 0.126 0.185 0.074 0.184
3250.943 0.158 0.161 0.112 0.11 0.217 0.222 0.179 0.118 0.152 0.135
3270.236 0.03 0.097 0.258 0.254 0.17 0.117 0.076 0.125 0.149 0.178
3289.530 0.227 0.127 0.227 0.299 0.207 0.124 0.162 0.328 0.345 0.277
3308.823 0.1 0 0.08 0.1 0.129 0.098 0.161 0.261 0.217 0.216
3328.117 0.267 0.18 0.051 0.142 0.083 0.009 0.158 0.092 0.062 0.173
3347.410 0.277 0.377 0.319 0.172 0.285 0.365 0.294 0.272 0.182 0.21
3366.704 0.282 0.333 0.314 0.174 0.134 0.258 0.211 0.223 0.302 0.205
3385.997 0.192 0.225 0.088 0.041 0.151 0.125 0.112 0.307 0.405 0.345
3405.290 0.243 0.066 0.072 0.197 0.324 0.301 0.253 0.293 0.324 0.281
3424.584 0.284 0.305 0.297 0.338 0.236 0.186 0.283 0.262 0.32 0.391
3443.877 0.385 0.4575 0.361 0.349 0.379 0.377 0.387 0.36 0.353 0.214
3463.171 0.078 0.112 0.173 0.185 0.184 0.281 0.348 0.282 0.359 0.392
3482.464 0.381 0.326 0.258 0.256 0.186 0.328 0.329 0.262 0.378 0.238
3501.758 0.261 0.383 0.255 0.251 0.174 0.201 0.285 0.222 0.315 0.306
3521.051 0.274 0.345 0.414 0.352 0.31 0.446 0.5396 0.335 0.204 0.313
3540.344 0.43 0.5232 0.4763 0.411 0.329 0.315 0.323 0.284 0.284 0.284
3559.638 0.299 0.336 0.395 0.392 0.357 0.293 0.298 0.39 0.416 0.412
3578.931 0.37 0.382 0.398 0.369 0.266 0.176 0.208 0.267 0.377 0.361
3598.225 0.316 0.355 0.311 0.309 0.323 0.306 0.366 0.335 0.372 0.425
3617.518 0.348 0.281 0.287 0.379 0.393 0.306 0.266 0.389 0.432 0.367
3636.812 0.256 0.149 0.253 0.338 0.249 0.193 0.206 0.209 0.252 0.346
3656.105 0.39 0.365 0.302 0.265 0.342 0.387 0.364 0.348 0.396 0.43
3675.398 0.4812 0.4867 0.4 0.382 0.366 0.393 0.379 0.403 0.426 0.4767
3694.692 0.492 0.4585 0.4545 0.398 0.398 0.441 0.4705 0.439 0.381 0.388
3713.985 0.437 0.41 0.449 0.4575 0.435 0.416 0.4533 0.4718 0.357 0.319
3733.279 0.329 0.28 0.358 0.383 0.318 0.312 0.261 0.278 0.365 0.4672
3752.572 0.4652 0.336 0.271 0.314 0.355 0.4539 0.4878 0.4661 0.4661 0.414
3771.866 0.395 0.406 0.394 0.33 0.238 0.276 0.344 0.319 0.343 0.448
3791.159 0.4796 0.448 0.4594 0.411 0.361 0.388 0.428 0.4894 0.4919 0.4586
3810.452 0.4514 0.4535 0.5113 0.4812 0.426 0.432 0.54244 0.58021 0.419 0.4785
3829.746 0.502 0.407 0.4573 0.4689 0.4684 0.4537 0.422 0.5255 0.5146 0.428
3849.039 0.4546 0.54175 0.57386 0.56712 0.63825 0.64247 0.62747 0.63699 0.62772 0.57906
3868.333 0.5131 0.54134 0.58398 0.5326 0.4778 0.4678 0.4631 0.4925 0.56114 0.549313
3887.626 0.558052 0.5344 0.4819 0.4832 0.558223 0.553374 0.4542 0.5449 0.557795 0.5072
3906.920 0.54428 0.5244 0.56992 0.56358 0.4926 0.54524 0.58149 0.54363 0.57777 0.58821
3926.213 0.60455 0.60164 0.5472 0.556606 0.4882 0.433 0.56167 0.56169 0.49 0.56875
3945.506 0.4667 0.391 0.479 0.57402 0.62374 0.5233 0.445 0.386 0.387 0.4808
3964.800 0.4952 0.5017 0.55112 0.60081 0.56027 0.4978 0.5196 0.59089 0.521 0.4673
3984.093 0.4719 0.448 0.555963 0.63405 0.55698 0.4869 0.5134 0.5136 0.54226
##END=
