##TITLE=4-Methylchrysene
##JCAMP-DX=4.24
##DATA TYPE=INFRARED SPECTRUM
##ORIGIN=NIST Mass Spectrometry Data Center
##OWNER=NIST Standard Reference Data Program
Collection (C) 2018 copyright by the U.S. Secretary of Commerce
on behalf of the United States of America. All rights reserved.
##CAS REGISTRY NO=3351-30-2
##MOLFORM=C 19 H 14
##$NIST SOURCE=MSDC-IR
##SPECTROMETER/DATA SYSTEM=HP-GC/MS/IRD
##STATE=gas
##XUNITS=1/CM
##YUNITS=ABSORBANCE
##XFACTOR=1.0
##YFACTOR=0.000000700
##DELTAX=4.0
##FIRSTX=550.0
##LASTX=3846.0
##FIRSTY=0.000472
##MAXX=3846
##MINX=550
##MAXY=0.007
##MINY=0
##NPOINTS=825
##XYDATA=(X++(Y..Y))
550.0 674 462 327 466 529 505 299 297 344 469
590.0 596 599 592 393 262 239 156 140 182 166
630.0 136 267 321 278 299 297 352 315 234 293
670.0 347 522 859 1001 871 572 409 392 299 281
710.0 321 365 442 541 649 955 1599 2777 4803 7394
750.0 9309 10000 8655 5823 3440 1929 1177 970 999 1116
790.0 1359 1540 1559 1558 1790 2544 3798 5029 5162 4133
830.0 2694 1574 947 629 557 649 802 936 954 870
870.0 859 855 721 497 361 296 246 210 127 63
910.0 57 47 62 116 109 96 120 143 183 259
950.0 314 355 320 292 276 196 98 71 100 66
990.0 55 60 46 75 83 110 194 323 386 420
1030.0 531 634 655 522 283 129 34 10 37 38
1070.0 16 5 37 86 192 315 333 254 175 85
1110.0 19 48 137 127 31 36 108 150 199 218
1150.0 207 167 189 183 103 128 191 217 264 255
1190.0 245 233 229 275 297 388 543 636 605 462
1230.0 398 424 475 647 901 1115 1154 989 731 526
1270.0 384 302 301 311 285 239 165 117 107 110
1310.0 122 145 153 135 112 104 116 104 107 127
1350.0 132 139 139 110 90 109 169 238 268 288
1390.0 273 242 219 207 211 239 337 493 725 974
1430.0 1082 1015 895 842 847 874 1015 1253 1431 1564
1470.0 1606 1609 1683 1682 1496 1155 790 567 521 570
1510.0 699 794 776 656 454 289 190 160 185 182
1550.0 176 166 159 225 264 290 348 345 329 344
1590.0 393 486 504 461 438 445 425 384 316 258
1630.0 252 223 217 253 238 178 140 120 113 133
1670.0 175 266 382 482 560 564 465 352 311 345
1710.0 376 351 291 242 236 260 249 228 235 230
1750.0 268 349 452 570 655 647 598 537 436 329
1790.0 231 184 192 187 197 215 201 195 223 258
1830.0 280 269 228 223 237 212 164 132 119 98
1870.0 97 129 169 212 258 287 346 410 474 562
1910.0 587 566 553 541 481 397 381 401 364 255
1950.0 143 98 76 50 51 48 57 75 74 49
1990.0 24 6 6 5 20 25 17 38 39 41
2030.0 61 69 69 72 63 38 32 40 39 57
2070.0 70 44 27 21 13 13 13 37 62 36
2110.0 26 32 17 25 31 40 36 21 27 22
2150.0 24 42 23 2 35 39 32 46 45 49
2190.0 56 63 67 76 58 26 15 29 33 17
2230.0 13 17 27 24 25 24 37 50 61 51
2270.0 34 43 59 61 56 65 78 78 82 95
2310.0 114 110 91 78 52 38 46 57 47 57
2350.0 66 22 8 38 42 51 62 65 64 63
2390.0 63 55 46 34 31 49 60 43 46 51
2430.0 37 40 25 26 17 0 28 48 57 47
2470.0 48 84 96 75 54 66 42 54 76 52
2510.0 52 70 76 52 38 50 51 27 18 40
2550.0 51 35 16 17 31 63 52 47 55 51
2590.0 46 24 9 26 46 55 67 54 30 43
2630.0 37 8 42 69 36 18 15 0 21 36
2670.0 30 34 27 22 24 29 29 15 7 6
2710.0 38 45 30 26 33 42 30 31 70 91
2750.0 62 27 22 32 53 57 81 83 33 33
2790.0 31 30 43 39 59 64 46 65 49 23
2830.0 62 90 93 101 146 169 170 243 267 282
2870.0 337 435 562 713 825 890 871 815 756 703
2910.0 697 733 772 821 887 923 980 1062 1162 1234
2950.0 1262 1313 1398 1535 1768 2108 2359 2324 2035 1689
2990.0 1421 1294 1247 1245 1246 1325 1452 1562 1737 2022
3030.0 2349 2632 2864 3286 3985 4902 5740 6113 5979 5489
3070.0 4819 4032 3360 3010 2861 2656 2331 1915 1486 1131
3110.0 889 735 616 565 480 400 399 377 371 386
3150.0 322 235 212 211 208 211 185 152 153 179
3190.0 186 174 174 172 145 149 134 139 126 104
3230.0 105 113 95 79 61 31 50 63 56 66
3270.0 85 82 58 47 27 71 106 68 66 57
3310.0 48 74 62 49 72 69 29 18 25 29
3350.0 78 87 55 36 50 51 68 83 78 77
3390.0 85 118 91 48 32 55 50 27 49 32
3430.0 60 77 47 49 75 82 58 87 87 65
3470.0 78 68 58 40 55 67 58 93 98 88
3510.0 105 72 60 88 53 39 31 43 93 83
3550.0 65 73 105 105 103 124 87 77 110 87
3590.0 60 51 92 133 107 86 82 109 115 97
3630.0 95 71 40 1 32 87 93 90 85 82
3670.0 90 70 34 47 63 53 73 63 63 77
3710.0 85 110 67 45 79 24 32 103 66 15
3750.0 31 86 84 63 88 80 92 126 103 109
3790.0 88 74 146 171 105 76 120 144 95 44
3830.0 25 30 67 99 113
##END=
