##TITLE=Cyclopentyl isothiocyanate
##JCAMP-DX=4.24
##DATA TYPE=INFRARED SPECTRUM
##ORIGIN=EPA-IR VAPOR PHASE LIBRARY
##OWNER=SRD/NIST
Collection (C) 2018 copyright by the U.S. Secretary of Commerce
on behalf of the United States of America. All rights reserved.
##CAS REGISTRY NO=33522-03-1
##MOLFORM=C 6 H 9 N S
##$NIST SOURCE=MSDC-IR
##STATE=gas
##XUNITS=1/CM
##YUNITS=ABSORBANCE
##XFACTOR=1.
##YFACTOR=0.001
##DELTAX=1.92898
##FIRSTX=549.8
##LASTX=4000.7
##FIRSTY=15.91
##MAXX=4000.7
##MINX=549.759
##MAXY=0.52438
##MINY=0
##NPOINTS=1790
##XYDATA=(X++(Y..Y))
549.759 15.91 15.38 15.17 14.69 14.07 13.81 13.55 12.97 12.32 11.56
569.049 11.07 10.52 9.97 9.53 9.1 8.65 8.03 7.52 7.13 6.7
588.339 6.38 6.03 5.76 5.56 5.29 4.96 4.96 5.14 4.97 4.69
607.628 4.43 4.44 4.52 4.18 3.95 4.16 4.27 4.11 3.94 3.98
626.918 4.07 3.95 3.92 4.02 4.11 4.21 4.17 4.21 4.43 4.46
646.208 4.45 4.41 4.36 4.43 4.44 4.36 4.29 4.47 4.74 4.84
665.498 4.83 4.81 4.66 4.58 4.67 4.73 4.86 4.85 4.77 4.69
684.787 4.74 4.96 5.06 5.11 4.99 4.78 4.93 5.1 5.06 5.06
704.077 5.1 5.04 5.1 5.36 5.31 5.11 5.14 5.27 5.43 5.58
723.367 5.53 5.54 5.72 5.88 5.86 5.81 5.93 5.99 5.99 6.14
742.657 6.22 6.17 6.14 6.2 6.29 6.25 6.29 6.34 6.22 6.24
761.947 6.32 6.44 6.63 6.56 6.41 6.33 6.34 6.32 6.35 6.31
781.236 6.15 6.13 6.12 6.13 6.2 6.23 6.11 6.08 6.08 5.97
800.526 5.99 5.99 5.85 5.8 5.99 5.81 5.65 5.6 5.56 5.64
819.816 5.67 5.78 5.69 5.58 5.47 5.36 5.46 5.47 5.29 5.24
839.106 5.29 5.23 5.26 5.37 5.37 5.57 5.71 5.54 5.75 6.21
858.395 6.49 6.88 7.27 7.99 8.73 9.22 9.73 10.47 11 11.16
877.685 11.29 11.36 11.35 11.17 10.88 10.29 9.66 9.24 8.78 8.43
896.975 8.21 8.23 8.26 8.16 8.01 7.87 7.81 7.85 7.91 7.84
916.265 7.92 7.93 7.87 8.01 8.1 8.23 8.6 8.94 9.12 9.17
935.555 9.42 9.61 9.49 9.29 9.11 8.67 8.21 7.86 7.35 6.79
954.844 6.24 5.71 5.14 4.76 4.43 4.03 3.83 3.56 3.38 3.3
974.134 3.07 2.9 2.76 2.73 2.71 2.57 2.42 2.27 2.17 2.34
993.424 2.4 2.27 2.33 2.42 2.35 2.32 2.53 2.68 2.97 3.47
1012.714 3.77 4.09 4.38 4.51 4.59 4.85 5.12 5.36 5.38 5.06
1032.003 4.81 4.55 4.53 4.73 4.65 4.43 4.31 4.5 4.9 5.02
1051.293 5.14 5.29 5.27 5.2 5.24 5.45 5.66 5.61 5.54 5.73
1070.583 5.72 5.63 5.4 5.36 5.35 4.93 4.74 4.77 4.58 4.07
1089.873 4.09 4.29 3.97 3.53 3.28 3.5 3.42 3.13 3.08 2.7
1109.163 2.42 2.72 3.32 3.39 3.1 2.99 3.25 3.34 3.32 3.54
1128.452 3.65 4.12 3.98 3.7 3.87 3.61 3.75 4.2 4.24 4.35
1147.742 4.44 4.32 4.13 4.3 4.66 4.75 4.83 5.06 5.57 5.87
1167.032 6.01 6.39 6.97 7.6 7.89 8.25 8.7 8.8 8.75 8.81
1186.322 8.83 8.75 8.66 8.6 8.38 7.9 7.61 7.63 7.5 7.28
1205.611 6.97 6.78 6.94 6.64 6.46 6.4 6.21 5.78 5.42 5.48
1224.901 5.29 5.05 5.01 4.78 4.78 4.95 4.76 4.78 5 5.05
1244.191 5.11 5.06 4.9 5.09 5.27 5.26 5.26 5.3 5.41 5.54
1263.481 5.8 6 6.22 6.32 6.43 6.67 7.02 7.6 7.98 8.25
1282.771 8.78 9.51 10.43 11.38 12.4 13.68 15.19 16.92 18.77 20.79
1302.060 22.91 24.92 26.81 28.52 29.85 30.81 31.62 32.45 33.38 34.55
1321.350 36.26 38.8 42.42 47.41 53.64 60.61 67.65 74 79.27 83.11
1340.640 85.46 86.4 85.82 83.69 79.91 74.41 67.54 59.98 52.3 44.93
1359.930 38.16 32.03 26.64 22.09 18.26 15.23 12.95 11.25 9.92 8.83
1379.219 7.96 7.22 6.63 6.12 5.68 5.28 4.9 4.6 4.36 4.21
1398.509 4.11 3.99 3.87 3.8 3.81 3.82 3.84 3.93 3.98 4.04
1417.799 4.2 4.38 4.73 5.12 5.43 5.81 6.28 6.83 7.46 8.06
1437.089 8.74 9.44 10.07 10.65 11.25 11.78 12.1 12.29 12.43 12.45
1456.378 12.31 12.06 11.76 11.47 11.15 10.74 10.43 10.2 9.98 9.81
1475.668 9.5 9.14 8.78 8.39 8 7.59 7.1 6.5 5.89 5.34
1494.958 4.84 4.35 3.91 3.57 3.32 3.1 2.89 2.7 2.51 2.37
1514.248 2.22 2.04 1.96 1.89 1.77 1.73 1.7 1.6 1.48 1.3672
1533.538 1.4058 1.2708 1.2255 1.3379 1.3296 1.2973 1.2285 1.199 1.1905 1.2409
1552.827 1.2346 1.1772 1.232 1.2897 1.2311 1.1707 1.217 1.2244 1.1708 1.1911
1572.117 1.175 1.1326 1.067 1.0126 1.104 1.0849 0.9982 0.9812 0.963 0.9365
1591.407 0.9341 1.0532 1.027 0.9678 1.023 1.0591 1.0265 0.9802 1.0583 1.1124
1610.697 1.0915 1.0382 1.0415 1.1123 1.1513 1.1954 1.2391 1.255 1.2742 1.3103
1629.986 1.279 1.236 1.2658 1.3052 1.3013 1.2726 1.2804 1.3171 1.3169 1.3127
1649.276 1.4119 1.49 1.51 1.5 1.56 1.57 1.57 1.62 1.58 1.59
1668.566 1.68 1.65 1.63 1.67 1.67 1.68 1.69 1.72 1.69 1.68
1687.856 1.72 1.69 1.66 1.67 1.74 1.76 1.73 1.71 1.67 1.7
1707.146 1.72 1.64 1.66 1.72 1.63 1.58 1.59 1.6 1.63 1.61
1726.435 1.6 1.59 1.56 1.55 1.57 1.53 1.5 1.52 1.49 1.43
1745.725 1.46 1.51 1.49 1.44 1.3745 1.3341 1.3613 1.3404 1.3275 1.3493
1765.015 1.3274 1.3302 1.3298 1.3567 1.3645 1.3049 1.2796 1.2912 1.2599 1.2499
1784.305 1.2994 1.3104 1.3297 1.3235 1.3279 1.3468 1.3835 1.43 1.47 1.48
1803.594 1.47 1.48 1.53 1.55 1.55 1.61 1.65 1.68 1.71 1.77
1822.884 1.85 1.85 1.88 1.97 2.03 2.05 2.09 2.14 2.18 2.24
1842.174 2.36 2.46 2.48 2.52 2.6 2.68 2.76 2.84 3 3.16
1861.464 3.26 3.41 3.59 3.78 3.98 4.24 4.53 4.82 5.09 5.36
1880.754 5.68 6.03 6.4 6.78 7.22 7.76 8.24 8.68 9.23 9.87
1900.043 10.49 11.12 11.78 12.49 13.22 14.03 14.89 15.75 16.71 17.74
1919.333 18.78 19.79 20.86 21.96 23.04 24.2 25.35 26.48 27.64 28.85
1938.623 30.17 31.53 32.95 34.44 35.99 37.6 39.32 41.18 43.19 45.25
1957.913 47.37 49.67 52.07 54.62 57.31 60.15 63.14 66.25 69.54 73.01
1977.202 76.77 80.76 84.91 89.34 94.12 99.21 104.66 110.53 116.78 123.46
1996.492 130.81 138.81 147.42 156.74 166.84 177.74 189.51 202.24 215.73 230.05
2015.782 245.4 261.6 278.4 295.89 314.09 332.75 351.69 370.72 389.83 408.81
2035.072 427.15 444.71 461.44 476.89 490.75 502.74 512.56 519.77 523.78 524.38
2054.362 521.23 514.17 503.78 490.81 475.9 459.72 442.67 424.76 406.47 388.2
2073.651 369.9 351.65 333.43 315.37 297.83 280.94 264.86 249.83 235.93 223.14
2092.941 211.71 201.64 193.01 185.85 179.9 174.8 170.39 166.47 162.82 159.5
2112.231 156.59 154.17 152.03 150.12 148.62 147.58 146.76 146.2 146.01 145.86
2131.521 145.68 145.27 144.4 142.98 140.85 138.02 134.48 130.36 125.77 120.64
2150.810 115.23 109.71 104.11 98.46 92.87 87.47 82.26 77.28 72.58 68.16
2170.100 63.99 60.07 56.55 53.26 50.13 47.36 44.81 42.47 40.34 38.44
2189.390 36.77 35.25 33.92 32.75 31.78 30.97 30.27 29.65 29.03 28.5
2208.680 28.17 27.83 27.52 27.16 26.81 26.56 26.2 25.89 25.67 25.36
2227.970 24.87 24.29 23.74 23.13 22.42 21.64 20.77 19.87 18.88 17.84
2247.259 16.77 15.7 14.7 13.82 12.95 12.16 11.42 10.67 10.05 9.55
2266.549 9.07 8.65 8.21 7.86 7.54 7.11 6.72 6.46 6.28 6.05
2285.839 5.78 5.61 5.39 5.15 4.99 4.8 4.64 4.47 4.3 4.22
2305.129 4.06 3.87 3.78 3.64 3.48 3.44 3.37 3.29 3.26 3.13
2324.418 3.01 3.02 2.96 2.8 2.76 2.79 2.74 2.67 2.63 2.54
2343.708 2.42 2.52 2.51 2.4 2.36 2.41 2.44 2.28 2.28 2.35
2362.998 2.31 2.22 2.16 2.19 2.23 2.23 2.23 2.24 2.24 2.22
2382.288 2.23 2.2 2.19 2.25 2.26 2.24 2.27 2.26 2.17 2.12
2401.578 2.15 2.14 2.13 2.13 2.16 2.17 2.14 2.12 2.14 2.13
2420.867 2.05 2.02 2.01 2 2.03 2.05 2.07 2.11 2.04 2.02
2440.157 2.03 2.06 2.02 1.92 1.93 1.92 1.92 1.97 2.03 2.02
2459.447 1.95 1.91 1.88 1.94 2.04 2.08 2.07 2.04 2.05 2.04
2478.737 2.03 2.1 2.15 2.15 2.1 2.06 2.03 2.04 2.11 2.09
2498.026 2.09 2.07 2.06 2.11 2.12 2.1 2.08 2.11 2.12 2.1
2517.316 2.11 2.17 2.2 2.23 2.28 2.25 2.23 2.29 2.36 2.46
2536.606 2.5 2.53 2.61 2.64 2.63 2.69 2.75 2.78 2.9 2.95
2555.896 3 3.06 3.07 3.06 3.02 3.06 3.1 3.05 3.04 3.11
2575.186 3.17 3.22 3.31 3.39 3.43 3.46 3.59 3.74 3.74 3.76
2594.475 3.81 3.85 3.93 3.85 3.72 3.69 3.62 3.51 3.36 3.22
2613.765 3.08 2.97 2.8 2.64 2.62 2.54 2.52 2.47 2.4 2.42
2633.055 2.36 2.27 2.3 2.39 2.42 2.41 2.37 2.34 2.43 2.59
2652.345 2.62 2.65 2.73 2.82 2.89 2.96 2.98 2.99 3.1 3.14
2671.634 3.16 3.26 3.3 3.34 3.47 3.61 3.73 3.88 4.06 4.13
2690.924 4.16 4.24 4.34 4.38 4.37 4.38 4.41 4.48 4.5 4.49
2710.214 4.52 4.57 4.56 4.6 4.59 4.67 4.68 4.63 4.66 4.64
2729.504 4.58 4.53 4.5 4.37 4.36 4.38 4.28 4.2 4.1 4.08
2748.794 4.03 3.94 3.97 3.93 3.83 3.72 3.68 3.7 3.62 3.52
2768.083 3.44 3.46 3.49 3.44 3.38 3.35 3.31 3.34 3.34 3.29
2787.373 3.31 3.32 3.35 3.37 3.36 3.42 3.56 3.58 3.57 3.63
2806.663 3.64 3.63 3.66 3.71 3.8 3.95 4.09 4.19 4.31 4.46
2825.953 4.58 4.73 5.02 5.37 5.57 5.82 6.17 6.49 6.86 7.36
2845.242 7.92 8.43 8.9 9.66 10.59 11.35 12.35 13.54 14.76 16.16
2864.532 17.61 19.3 21.13 22.98 24.93 26.9 28.89 30.65 32.11 33.28
2883.822 34.05 34.64 35.02 35.06 34.79 34.34 33.58 32.73 32.02 31.32
2903.112 31.11 31.28 31.51 32.09 32.97 33.89 34.8 36.02 37.62 39.19
2922.401 40.91 42.95 45.07 47.3 49.78 52.34 55.01 57.8 60.89 64.05
2941.691 67.19 70.6 74.14 77.83 81.67 85.58 89.82 94.34 98.8 103.53
2960.981 108.74 114.23 120.15 126.24 131.83 136.38 138.94 138.88 136.57 132.4
2980.271 125.69 116.44 106 94.99 83.23 71.59 61.26 52.71 45.73 40.16
2999.561 35.7 31.82 28.52 25.75 23.27 21.11 19.29 17.61 16.15 14.81
3018.850 13.45 12.26 11.11 10.1 9.24 8.42 7.72 7.08 6.47 5.96
3038.140 5.57 5.19 4.8 4.49 4.19 3.81 3.54 3.41 3.31 3.14
3057.430 3 2.87 2.66 2.55 2.52 2.53 2.33 2.02 1.94 1.93
3076.720 1.86 1.75 1.71 1.74 1.69 1.53 1.53 1.66 1.58 1.49
3096.009 1.43 1.3026 1.2297 1.2511 1.1982 1.1555 1.0889 1.0624 1.2665 1.2913
3115.299 1.2124 1.1066 0.9027 0.9358 0.9155 0.85 0.82 0.7124 0.7852 0.8736
3134.589 0.8297 0.8591 0.8301 0.8326 0.9543 0.8576 0.7632 0.7939 0.7417 0.7053
3153.879 0.7091 0.6787 0.6789 0.6316 0.6638 0.741 0.7726 0.6448 0.5614 0.6155
3173.169 0.5214 0.47657 0.57 0.5921 0.45172 0.297 0.3307 0.45457 0.45507 0.5228
3192.458 0.6116 0.49811 0.41321 0.43087 0.314 0.47488 0.5751 0.51249 0.44539 0.3604
3211.748 0.3486 0.256 0.227 0.17 0.077 0.132 0.219 0.174 0.223 0.3804
3231.038 0.3823 0.286 0.261 0.3298 0.256 0.08 0.081 0.084 0 0.078
3250.328 0.13 0.185 0.3741 0.295 0.3229 0.4353 0.252 0.199 0.224 0.212
3269.617 0.3326 0.3315 0.244 0.301 0.3576 0.257 0.299 0.421086 0.44677 0.3863
3288.907 0.298 0.253 0.201 0.164 0.066 0.064 0.157 0.262 0.3736 0.305
3308.197 0.219 0.245 0.266 0.281 0.226 0.142 0.273 0.44886 0.46825 0.3769
3327.487 0.318 0.3611 0.289 0.316 0.345 0.295 0.41395 0.43574 0.4019 0.3936
3346.777 0.3367 0.157 0.194 0.311 0.3409 0.4098 0.3783 0.3593 0.245 0.192
3366.066 0.293 0.264 0.139 0.119 0.14 0.157 0.224 0.235 0.078 0.024
3385.356 0.197 0.178 0.052 0.077 0.187 0.198 0.203 0.283 0.205 0.177
3404.646 0.258 0.274 0.336 0.4095 0.41652 0.3896 0.21 0.115 0.239 0.3395
3423.936 0.228 0.173 0.282 0.285 0.191 0.188 0.253 0.23 0.228 0.253
3443.225 0.183 0.142 0.209 0.225 0.303 0.428253 0.41261 0.4047 0.4212 0.309
3462.515 0.25 0.269 0.3727 0.3906 0.268 0.319 0.3843 0.387 0.281 0.264
3481.805 0.294 0.3245 0.48955 0.4933 0.46027 0.3396 0.185 0.163 0.271 0.307
3501.095 0.248 0.283 0.3516 0.45201 0.51688 0.46461 0.5238 0.569 0.317 0.313
3520.385 0.47151 0.44856 0.3587 0.3381 0.3659 0.3782 0.43245 0.46032 0.51782 0.50583
3539.674 0.427415 0.419988 0.47462 0.420623 0.302 0.311 0.3326 0.48679 0.51622 0.3281
3558.964 0.3845 0.3955 0.3577 0.5087 0.47477 0.47833 0.4926 0.43011 0.3921 0.301
3578.254 0.3643 0.45604 0.424755 0.51466 0.5095 0.4056 0.48373 0.51244 0.3933 0.49972
3597.544 0.5471 0.6048 0.6633 0.552 0.3736 0.3221 0.4 0.266 0.3614 0.44865
3616.833 0.43298 0.3375 0.3571 0.4063 0.383 0.27 0.41568 0.6316 0.3847 0.317
3636.123 0.51716 0.5402 0.3258 0.288 0.314 0.45866 0.5404 0.4069 0.4619 0.3994
3655.413 0.298 0.419365 0.47479 0.51627 0.47399 0.3703 0.3227 0.4123 0.44541 0.47195
3674.703 0.49754 0.45211 0.43167 0.50162 0.6262 0.5712 0.3953 0.4064 0.51389 0.5232
3693.993 0.51909 0.3622 0.3517 0.424901 0.3786 0.3729 0.45515 0.49222 0.5462 0.47792
3713.282 0.41231 0.46922 0.50252 0.6393 0.5454 0.47801 0.5846 0.5919 0.7164 0.7696
3732.572 0.7252 0.6165 0.45156 0.4044 0.5205 0.695 0.8593 0.7911 0.5266 0.524
3751.862 0.656 0.6431 0.5806 0.48614 0.5343 0.548 0.49317 0.5287 0.6274 0.6252
3771.152 0.45896 0.5557 0.686 0.671 0.7483 0.7529 0.6588 0.6373 0.5963 0.6069
3790.441 0.7012 0.7594 0.6841 0.6714 0.624 0.5508 0.6885 0.768 0.8487 0.9537
3809.731 0.7494 0.602 0.5988 0.7171 0.6812 0.5975 0.702 0.6605 0.7986 0.7484
3829.021 0.5305 0.6895 0.8064 0.7403 0.8797 0.7584 0.6955 0.8164 0.7038 0.7301
3848.311 0.7656 0.7271 0.874 0.9377 0.7934 0.8999 0.8621 0.7099 0.7969 0.9466
3867.601 1.0602 0.9942 0.9771 0.9283 0.8021 0.9002 1.081 1.1028 1.0717 1.1021
3886.890 1.0985 1.0279 1.028 1.0503 1.0413 0.9711 0.8705 0.9406 1.0603 0.9578
3906.180 0.7778 0.8024 0.9201 0.8834 0.9918 1.0295 1.0924 1.2379 1.1849 1.0712
3925.470 0.9463 0.9918 1.0092 0.9808 1.1269 1.2451 1.2431 1.3918 1.43 1.3487
3944.760 1.43 1.44 1.4064 1.45 1.5 1.49 1.4138 1.44 1.4189 1.3496
3964.049 1.3743 1.55 1.54 1.48 1.72 1.75 1.65 1.59 1.51 1.53
3983.339 1.67 1.83 1.84 1.7 1.73 1.87 1.83 1.83 1.86 1.99
##END=
