##TITLE=Cycloocctyl isothiocyanate
##JCAMP-DX=4.24
##DATA TYPE=INFRARED SPECTRUM
##ORIGIN=EPA-IR VAPOR PHASE LIBRARY
##OWNER=SRD/NIST
Collection (C) 2018 copyright by the U.S. Secretary of Commerce
on behalf of the United States of America. All rights reserved.
##CAS REGISTRY NO=33522-04-2
##MOLFORM=C 9 H 17 N S
##$NIST SOURCE=MSDC-IR
##STATE=gas
##XUNITS=1/CM
##YUNITS=ABSORBANCE
##XFACTOR=1.
##YFACTOR=0.001
##DELTAX=1.92898
##FIRSTX=549.8
##LASTX=4000.7
##FIRSTY=7.705
##MAXX=4000.7
##MINX=549.759
##MAXY=0.269665
##MINY=0
##NPOINTS=1790
##XYDATA=(X++(Y..Y))
549.759 7.705 7.355 7.345 7.435 7.285 6.915 6.385 6.175 6.025 5.895
569.049 5.775 5.265 4.945 4.935 4.715 4.535 4.585 4.285 3.795 3.665
588.339 3.545 3.275 3.075 3.015 3.025 2.965 2.795 2.655 2.615 2.525
607.628 2.425 2.435 2.495 2.345 2.185 2.105 1.945 1.855 1.915 1.865
626.918 1.745 1.755 1.875 1.845 1.755 2.025 2.095 1.965 1.965 1.935
646.208 2.075 2.055 2.175 2.335 2.345 2.435 2.505 2.645 2.855 2.925
665.498 2.795 2.915 3.105 3.015 3.055 3.335 3.635 3.895 3.955 4.135
684.787 4.485 4.815 5.015 5.065 5.245 5.435 5.585 5.645 5.545 5.595
704.077 5.585 5.495 5.655 5.675 5.865 5.875 5.825 6.065 6.105 6.205
723.367 6.255 6.525 6.875 6.705 6.495 6.465 6.415 6.065 5.755 5.545
742.657 5.445 5.355 5.095 4.905 4.815 4.705 4.655 4.785 4.975 5.175
761.947 5.275 5.385 5.425 5.465 5.495 5.455 5.535 5.685 5.745 5.795
781.236 5.995 6.215 6.235 6.175 6.175 6.205 6.225 6.165 6.135 5.955
800.526 5.925 6.025 5.725 5.675 5.495 5.215 4.855 4.375 4.245 4.105
819.816 3.915 3.745 3.755 3.905 3.885 3.905 4.025 3.965 4.005 4.185
839.106 4.215 4.235 4.305 4.385 4.615 4.625 4.595 4.685 4.675 4.615
858.395 4.395 4.185 3.935 3.645 3.285 2.925 2.675 2.495 2.445 2.375
877.685 2.175 2.125 2.095 2.045 2.075 1.995 1.905 1.935 2.005 1.975
896.975 2.005 2.275 2.495 2.825 3.135 3.425 3.805 4.035 4.365 4.615
916.265 4.875 5.265 5.415 5.535 5.685 5.715 5.775 5.795 5.635 5.505
935.555 5.505 5.315 5.105 4.915 4.775 4.605 4.425 4.445 4.335 4.285
954.844 4.385 4.295 4.145 4.055 4.025 3.965 3.825 3.805 3.825 3.715
974.134 3.625 3.625 3.615 3.595 3.595 3.615 3.385 3.145 3.305 3.575
993.424 3.645 3.515 3.515 3.815 4.095 4.125 4.195 4.265 4.195 4.475
1012.714 4.665 4.915 5.135 5.065 5.465 5.645 5.655 5.565 5.445 5.355
1032.003 5.385 5.245 4.695 4.525 4.295 4.125 3.865 3.765 3.855 3.755
1051.293 3.565 3.455 3.725 3.825 3.635 3.835 4.215 4.115 4.075 4.215
1070.583 4.215 4.445 4.825 4.825 4.955 4.935 4.795 5.255 5.545 5.425
1089.873 5.325 5.325 5.005 4.715 4.685 4.405 4.455 4.605 4.515 4.785
1109.163 4.585 4.775 5.065 4.705 4.495 4.605 4.685 4.495 4.575 4.355
1128.452 4.045 4.025 4.055 4.005 3.525 3.095 3.185 3.065 2.845 2.915
1147.742 2.855 2.925 3.045 3.035 3.015 2.835 2.765 2.765 2.585 2.575
1167.032 2.615 2.515 2.335 2.335 2.415 2.245 2.265 2.245 2.205 2.065
1186.322 1.975 2.145 2.265 2.345 2.345 2.575 2.635 2.515 2.525 2.535
1205.611 2.635 2.715 2.765 2.865 2.825 2.975 3.295 3.795 4.165 4.055
1224.901 4.285 4.555 4.735 4.885 4.865 5.105 5.215 5.205 5.295 5.115
1244.191 5.065 5.165 5.245 5.365 5.475 5.415 5.415 5.825 6.055 6.145
1263.481 6.475 6.695 6.835 6.905 7.095 7.575 8.025 8.415 8.925 9.615
1282.771 10.495 11.395 12.225 13.145 14.175 15.395 16.905 18.715 20.465 22.255
1302.060 23.925 25.225 26.195 26.745 26.965 26.835 26.495 26.075 25.555 25.215
1321.350 25.165 25.135 25.115 25.065 24.735 24.015 22.955 21.655 20.325 19.125
1340.640 18.165 17.475 17.065 17.025 17.395 18.165 19.155 20.275 21.455 22.595
1359.930 23.475 24.055 24.495 24.685 24.465 23.735 22.515 20.895 18.935 16.835
1379.219 14.625 12.415 10.355 8.485 6.935 5.765 4.935 4.355 3.945 3.675
1398.509 3.485 3.315 3.205 3.095 3.005 2.985 2.965 2.965 2.985 3.075
1417.799 3.225 3.355 3.525 3.745 4.125 4.645 5.295 6.105 7.165 8.495
1437.089 10.125 12.015 14.065 16.205 18.255 20.015 21.375 22.155 22.485 22.525
1456.378 22.205 21.555 20.755 20.045 19.475 19.085 18.895 18.715 18.515 18.185
1475.668 17.545 16.535 15.245 13.785 12.195 10.655 9.185 7.765 6.495 5.435
1494.958 4.595 3.935 3.445 3.035 2.665 2.385 2.145 1.975 1.855 1.765
1514.248 1.655 1.565 1.495 1.4083 1.3565 1.2486 1.199 1.2406 1.2506 1.2074
1533.538 1.1671 1.1113 1.0725 1.133 1.1326 1.0598 1.0253 1.0356 1.0216 0.9725
1552.827 0.9389 0.9639 0.9636 0.9548 0.999 0.9485 0.8951 0.8867 0.9385 1.0267
1572.117 1.0153 0.9704 0.8861 0.904 0.9205 0.9092 0.9577 0.8916 0.8598 0.8759
1591.407 0.8888 0.8855 0.8532 0.8853 0.8554 0.8564 0.903 0.9057 0.9431 0.9445
1610.697 0.9068 0.833 0.8656 0.9409 0.8944 0.8478 0.8821 0.9752 1.0024 0.9885
1629.986 0.9649 0.9143 0.9161 0.9773 0.9651 0.9465 0.9235 0.8889 0.8934 0.9143
1649.276 0.9459 0.9138 0.9196 0.9273 0.8742 0.8893 0.9378 0.9213 0.9272 0.8985
1668.566 0.9088 0.9765 0.9808 0.9763 0.9521 0.8629 0.8398 0.9317 0.9282 0.8493
1687.856 0.8531 0.8789 0.8963 0.9569 0.9485 0.9179 0.8998 0.8904 0.9357 0.9252
1707.146 0.8567 0.7946 0.7764 0.8329 0.9095 0.9239 0.9317 0.9187 0.8606 0.8754
1726.435 0.905 0.9202 0.931 0.8975 0.8958 0.9289 0.9614 0.9729 0.9461 0.9491
1745.725 0.97 0.9239 0.9006 0.9271 0.9248 0.9117 0.9409 0.9712 0.9702 0.9657
1765.015 0.9681 0.9907 1.0386 1.0556 1.0617 1.0743 1.0287 0.9998 1.0557 1.1079
1784.305 1.0652 1.0365 1.074 1.0761 1.0859 1.1414 1.1287 1.1031 1.1033 1.1124
1803.594 1.1734 1.2293 1.3037 1.3525 1.3181 1.3248 1.3224 1.2925 1.344 1.384
1822.884 1.3581 1.3792 1.415 1.4238 1.4283 1.485 1.525 1.485 1.505 1.575
1842.174 1.655 1.695 1.755 1.795 1.725 1.705 1.805 1.865 1.915 1.985
1861.464 2.055 2.165 2.225 2.275 2.365 2.425 2.545 2.675 2.775 2.895
1880.754 3.025 3.205 3.385 3.455 3.545 3.795 4.045 4.275 4.565 4.785
1900.043 4.985 5.225 5.565 5.915 6.265 6.695 7.145 7.595 8.085 8.645
1919.333 9.165 9.705 10.305 10.925 11.655 12.405 13.175 14.035 14.905 15.755
1938.623 16.675 17.725 18.825 20.005 21.285 22.565 23.915 25.355 26.895 28.575
1957.913 30.295 32.075 33.975 35.975 38.115 40.315 42.645 45.085 47.675 50.435
1977.202 53.295 56.325 59.575 62.995 66.595 70.525 74.735 79.225 83.945 89.045
1996.492 94.555 100.465 106.635 113.065 119.945 127.165 134.755 142.605 150.655 158.985
2015.782 167.495 176.045 184.715 193.435 202.025 210.505 218.695 226.565 233.935 240.685
2035.072 246.885 252.485 257.455 261.685 265.095 267.625 269.205 269.665 269.095 267.265
2054.362 264.135 259.695 253.675 246.305 237.735 228.235 218.165 207.725 197.395 187.445
2073.651 177.835 168.995 161.295 154.635 149.065 144.495 141.015 138.615 136.965 135.925
2092.941 135.385 135.165 135.105 135.085 134.985 134.665 134.005 132.985 131.465 129.325
2112.231 126.625 123.405 119.725 115.645 111.225 106.605 101.995 97.285 92.585 88.215
2131.521 84.105 80.255 76.785 73.605 70.695 68.085 65.755 63.605 61.685 59.935
2150.810 58.375 56.925 55.555 54.265 52.915 51.675 50.465 49.285 48.105 46.785
2170.100 45.485 44.235 42.815 41.375 39.905 38.335 36.795 35.205 33.525 31.955
2189.390 30.445 28.815 27.235 25.735 24.265 22.925 21.725 20.485 19.325 18.275
2208.680 17.225 16.235 15.395 14.575 13.725 12.965 12.305 11.695 11.135 10.675
2227.970 10.145 9.595 9.225 8.875 8.455 8.125 7.745 7.385 7.085 6.795
2247.259 6.525 6.285 6.045 5.715 5.395 5.145 4.895 4.705 4.535 4.345
2266.549 4.115 3.925 3.805 3.655 3.515 3.345 3.145 3.045 2.985 2.865
2285.839 2.805 2.755 2.665 2.595 2.515 2.495 2.465 2.365 2.295 2.245
2305.129 2.215 2.165 2.125 2.135 2.105 2.115 2.045 1.935 1.875 1.905
2324.418 1.925 1.865 1.845 1.795 1.755 1.755 1.785 1.765 1.685 1.655
2343.708 1.595 1.505 1.515 1.535 1.445 1.465 1.525 1.445 1.3806 1.3403
2362.998 1.3365 1.3784 1.3785 1.3246 1.2894 1.2808 1.27 1.2056 1.1885 1.2595
2382.288 1.2338 1.2126 1.227 1.1953 1.1719 1.2442 1.3087 1.2608 1.2313 1.259
2401.578 1.317 1.3499 1.2634 1.1993 1.2929 1.3149 1.2221 1.1913 1.2129 1.2145
2420.867 1.2644 1.3404 1.2546 1.1504 1.1611 1.2582 1.2636 1.2173 1.1978 1.2133
2440.157 1.2423 1.24 1.2421 1.2658 1.3423 1.3016 1.2558 1.2342 1.2082 1.2015
2459.447 1.185 1.216 1.2327 1.2721 1.3006 1.2659 1.3073 1.3026 1.2277 1.1761
2478.737 1.134 1.2083 1.3004 1.235 1.1711 1.2031 1.2367 1.2288 1.2482 1.2915
2498.026 1.2996 1.314 1.2495 1.2223 1.2251 1.191 1.2586 1.269 1.2503 1.3316
2517.316 1.4209 1.525 1.535 1.495 1.525 1.575 1.625 1.685 1.685 1.655
2536.606 1.675 1.775 1.885 1.895 1.925 1.955 2.005 2.055 2.115 2.195
2555.896 2.235 2.245 2.255 2.295 2.355 2.455 2.485 2.525 2.595 2.585
2575.186 2.595 2.625 2.635 2.635 2.705 2.705 2.575 2.555 2.625 2.605
2594.475 2.555 2.565 2.605 2.495 2.375 2.425 2.385 2.365 2.425 2.355
2613.765 2.325 2.295 2.275 2.275 2.245 2.295 2.365 2.425 2.465 2.555
2633.055 2.525 2.515 2.605 2.585 2.575 2.635 2.595 2.615 2.705 2.755
2652.345 2.705 2.705 2.765 2.825 2.855 2.865 2.925 3.055 3.195 3.245
2671.634 3.295 3.355 3.515 3.655 3.715 3.865 4.015 4.035 4.045 4.125
2690.924 4.235 4.345 4.425 4.445 4.495 4.555 4.535 4.475 4.445 4.385
2710.214 4.325 4.295 4.195 4.055 4.005 3.895 3.725 3.735 3.785 3.725
2729.504 3.565 3.545 3.545 3.435 3.425 3.365 3.235 3.185 3.205 3.185
2748.794 3.205 3.125 2.965 3.025 3.085 3.135 3.195 3.125 2.995 3.025
2768.083 3.145 3.145 3.155 3.205 3.325 3.435 3.465 3.435 3.445 3.545
2787.373 3.575 3.645 3.785 3.895 3.995 4.045 4.085 4.235 4.395 4.505
2806.663 4.665 4.805 4.835 4.915 5.075 5.135 5.215 5.395 5.545 5.705
2825.953 5.855 6.065 6.355 6.645 6.915 7.255 7.695 8.325 9.255 10.395
2845.242 11.885 13.855 16.345 19.385 22.985 26.985 31.035 34.695 37.715 40.035
2864.532 41.565 42.205 41.825 40.795 39.175 37.305 35.565 33.895 32.315 30.955
2883.822 30.035 29.495 29.285 29.605 30.405 31.725 33.645 36.095 39.095 42.535
2903.112 46.445 50.575 54.965 59.975 65.515 71.735 79.035 87.375 96.845 107.805
2922.401 120.005 133.205 146.925 160.165 171.675 180.785 186.845 189.315 187.705 181.815
2941.691 172.295 160.205 147.125 134.145 121.665 110.205 99.755 90.045 81.205 73.055
2960.981 65.365 57.975 51.125 44.855 39.045 33.895 29.375 25.305 21.785 18.815
2980.271 16.245 13.995 12.095 10.605 9.365 8.395 7.685 6.905 6.235 5.725
2999.561 5.255 4.795 4.415 4.165 3.865 3.675 3.445 3.265 3.085 2.955
3018.850 2.865 2.625 2.555 2.515 2.395 2.275 2.185 2.175 2.095 1.955
3038.140 1.835 1.765 1.705 1.715 1.645 1.535 1.615 1.605 1.4424 1.465
3057.430 1.555 1.515 1.555 1.3505 1.2271 1.3084 1.263 1.1591 1.081 0.9749
3076.720 0.9486 1.0035 0.9999 0.9702 0.9049 0.9362 1.0574 1.0138 0.8954 0.9876
3096.009 1.1597 1.1001 0.9128 0.8585 0.8504 0.8697 0.8192 0.8247 0.9253 0.9598
3115.299 0.8695 0.7008 0.6835 0.6862 0.7161 0.8272 0.8591 0.842 0.8116 0.7065
3134.589 0.7475 0.887 0.8334 0.7096 0.6294 0.5543 0.51437 0.6291 0.6272 0.7655
3153.879 0.8436 0.606 0.5605 0.6174 0.6061 0.6064 0.5628 0.5544 0.52144 0.53839
3173.169 0.54133 0.4165 0.50651 0.52271 0.46068 0.48853 0.559 0.5745 0.43909 0.4024
3192.458 0.47172 0.50006 0.3578 0.238 0.295 0.3645 0.336 0.3653 0.47273 0.51182
3211.748 0.51727 0.50093 0.317 0.214 0.186 0.078 0.193 0.243 0.211 0.25
3231.038 0.261 0.168 0.115 0.29 0.339 0.342 0.3756 0.242 0.273 0.4007
3250.328 0.258 0.213 0.213 0.105 0.246 0.3494 0.3531 0.3637 0.266 0.161
3269.617 0.187 0.081 0.046 0.191 0.168 0.094 0.118 0.175 0.063 0.105
3288.907 0.273 0.286 0.181 0.148 0.274 0.219 0.192 0.192 0.112 0.177
3308.197 0.185 0.206 0.237 0.15 0.169 0.204 0.196 0.198 0.15 0.047
3327.487 0.046 0.121 0.23 0.224 0.062 0.073 0.192 0.296 0.288 0.249
3346.777 0.179 0.175 0.237 0.229 0.3742 0.3775 0.254 0.239 0.231 0.195
3366.066 0.225 0.266 0.251 0.254 0.158 0.14 0.25 0.25 0.218 0.343
3385.356 0.3532 0.228 0.389 0.43953 0.311 0.155 0.035 0.165 0.312 0.263
3404.646 0.152 0.144 0.27 0.315 0.269 0.319 0.243 0.224 0.307 0.309
3423.936 0.311 0.324 0.32 0.279 0.289 0.299 0.235 0.256 0.285 0.3821
3443.225 0.336 0.129 0.162 0.223 0.187 0.236 0.228 0.132 0.061 0.073
3462.515 0.257 0.251 0.214 0.3695 0.343 0.23 0.181 0.149 0.11 0.165
3481.805 0.227 0.246 0.17 0.138 0.162 0.026 0.084 0.113 0.067 0.071
3501.095 0.096 0.215 0.341 0.4235 0.286 0.048 0.065 0.194 0.093 0.221
3520.385 0.175 0.095 0.384 0.253 0 0.045 0.122 0.3 0.374 0.159
3539.674 0.084 0.112 0.111 0.173 0.216 0.233 0.165 0.162 0.255 0.173
3558.964 0.094 0.096 0.158 0.189 0.083 0.028 0.058 0.194 0.174 0.045
3578.254 0.06 0.077 0.019 0.009 0.093 0.089 0.013 0.031 0.111 0.135
3597.544 0.136 0.101 0.102 0.162 0.21 0.135 0.165 0.133 0.134 0.3619
3616.833 0.319 0.169 0.169 0.226 0.226 0.195 0.26 0.242 0.209 0.229
3636.123 0.254 0.26 0.283 0.224 0.203 0.328 0.282 0.156 0.086 0.203
3655.413 0.317 0.23 0.257 0.28 0.345 0.3505 0.182 0.218 0.29 0.339
3674.703 0.4088 0.3765 0.288 0.298 0.294 0.261 0.3574 0.49995 0.4312 0.244
3693.993 0.257 0.265 0.256 0.3726 0.31 0.232 0.304 0.26 0.273 0.3614
3713.282 0.375 0.305 0.336 0.5146 0.46581 0.3875 0.4329 0.444224 0.46728 0.3476
3732.572 0.22 0.259 0.3744 0.51735 0.51608 0.452205 0.45807 0.308 0.171 0.313
3751.862 0.4231 0.53877 0.54435 0.4333 0.4037 0.258 0.229 0.3909 0.3864 0.4066
3771.152 0.51464 0.51191 0.323 0.233 0.272 0.3881 0.3997 0.288 0.3836 0.49823
3790.441 0.49577 0.419 0.4214 0.48494 0.5472 0.4308 0.313 0.3609 0.50143 0.5467
3809.731 0.302 0.204 0.3948 0.54479 0.3979 0.151 0.22 0.318 0.325 0.3562
3829.021 0.4293 0.45957 0.46464 0.47866 0.51717 0.6508 0.6402 0.48766 0.276 0.296
3848.311 0.4277 0.5679 0.6811 0.6425 0.5979 0.6268 0.7075 0.6714 0.6221 0.5739
3867.601 0.5684 0.6067 0.5502 0.583 0.6251 0.6049 0.6144 0.6146 0.6455 0.5839
3886.890 0.5476 0.5662 0.5961 0.7334 0.5848 0.4139 0.47585 0.5771 0.7042 0.5602
3906.180 0.416 0.45727 0.4299 0.5897 0.7803 0.6994 0.6992 0.6952 0.7578 0.8378
3925.470 0.7707 0.7551 0.8009 0.7847 0.8511 0.8544 0.8652 0.8626 0.8532 0.96
3944.760 0.9481 0.923 0.9077 0.9667 1.0616 1.0626 1.0835 1.1731 1.0598 0.9257
3964.049 0.979 1.1166 1.1 1.0365 1.0649 1.0329 0.9858 0.9763 1.1516 1.2702
3983.339 1.0495 1.0206 1.2486 1.354 1.3939 1.3956 1.4377 1.485 1.585 1.595
##END=
