##TITLE=Methyl 3-morpholinopropionate
##JCAMP-DX=4.24
##DATA TYPE=INFRARED SPECTRUM
##ORIGIN=EPA-IR VAPOR PHASE LIBRARY
##OWNER=SRD/NIST
Collection (C) 2018 copyright by the U.S. Secretary of Commerce
on behalf of the United States of America. All rights reserved.
##CAS REGISTRY NO=33611-43-7
##MOLFORM=C 8 H 15 N O 3
##$NIST SOURCE=MSDC-IR
##STATE=gas
##XUNITS=1/CM
##YUNITS=ABSORBANCE
##XFACTOR=1.
##YFACTOR=0.001
##DELTAX=1.92898
##FIRSTX=549.8
##LASTX=4000.7
##FIRSTY=0.9377
##MAXX=4000.7
##MINX=549.759
##MAXY=0.138913
##MINY=0
##NPOINTS=1790
##XYDATA=(X++(Y..Y))
549.759 0.9377 1.114 0.8526 0.431 0.473 0.9584 1.0966 1.0861 1.0903 1.1241
569.049 1.0834 1.0702 1.393 1.243 1.0983 1.1301 1.1546 1.233 1.343 1.663
588.339 1.863 1.783 1.693 1.863 2.203 2.583 2.633 2.723 3.293 3.623
607.628 3.993 4.503 5.053 5.833 6.193 6.473 6.743 6.703 6.443 6.103
626.918 5.563 4.823 4.243 3.813 3.373 3.183 3.093 2.863 2.703 2.543
646.208 2.503 2.543 2.553 2.473 2.383 2.313 2.093 2.013 2.023 1.913
665.498 1.843 1.793 1.703 1.773 1.773 1.693 1.803 1.913 1.723 1.613
684.787 1.673 1.723 1.793 1.743 1.843 2.043 2.003 1.963 2.043 2.163
704.077 2.193 1.973 2.003 2.143 2.273 2.283 2.263 2.463 2.303 2.173
723.367 2.253 2.133 2.073 2.203 2.363 2.363 2.483 2.623 2.793 2.903
742.657 3.013 3.183 3.323 3.433 3.483 3.713 4.023 4.303 4.703 5.123
761.947 5.773 6.583 7.123 7.303 7.263 7.423 7.403 7.003 6.553 5.963
781.236 5.413 5.053 4.693 4.613 4.473 4.243 4.413 4.563 4.413 4.243
800.526 4.203 4.363 4.503 4.533 4.653 4.843 4.983 5.173 5.363 5.663
819.816 6.173 6.583 7.093 7.543 8.043 8.663 9.023 9.303 9.463 9.523
839.106 9.493 9.423 9.643 9.843 10.013 10.673 11.733 13.313 15.483 17.513
858.395 19.103 20.163 20.553 20.693 20.303 19.233 17.943 16.573 15.143 13.863
877.685 12.863 12.193 11.693 11.073 10.553 10.483 10.633 10.553 10.393 10.523
896.975 10.813 11.123 11.293 11.473 11.793 11.933 12.063 12.083 12.183 12.093
916.265 11.923 11.793 11.573 11.503 11.303 10.923 10.523 10.223 9.933 9.543
935.555 9.083 8.433 7.683 7.123 6.683 6.093 5.723 5.753 5.673 5.663
954.844 5.883 6.003 5.713 5.493 5.803 6.093 6.103 6.183 6.673 7.243
974.134 7.793 8.343 8.843 9.443 10.183 10.763 11.463 12.483 13.573 14.903
993.424 16.883 19.303 22.203 26.043 30.303 34.673 38.843 42.083 44.253 45.213
1012.714 44.803 42.833 40.033 36.633 33.033 30.323 28.223 27.063 26.703 26.383
1032.003 26.233 26.073 25.383 24.783 24.153 23.553 23.253 22.973 22.953 23.163
1051.293 23.143 23.203 23.183 22.843 22.493 21.963 21.123 20.213 19.243 18.463
1070.583 18.013 16.973 16.103 16.043 16.133 16.043 15.703 15.713 16.263 16.913
1089.873 17.583 18.863 20.693 22.533 25.473 28.783 32.513 37.613 43.153 49.793
1109.163 56.873 64.543 73.543 82.773 91.843 100.863 109.073 116.433 122.653 127.093
1128.452 130.453 131.933 131.343 129.203 125.453 120.933 115.893 109.253 102.073 95.613
1147.742 89.073 83.373 78.833 74.943 72.013 69.253 66.883 65.463 65.183 65.903
1167.032 67.253 69.033 71.163 73.343 75.343 77.433 78.843 79.823 80.693 81.253
1186.322 81.543 81.963 82.143 82.173 82.293 81.913 81.473 80.463 78.653 76.413
1205.611 73.593 70.643 67.323 64.013 61.353 58.603 56.233 54.083 52.543 51.923
1224.901 51.973 52.783 53.663 54.603 56.133 58.203 60.033 61.913 64.023 66.133
1244.191 67.873 69.183 70.303 70.923 70.703 69.853 68.393 66.083 63.623 60.863
1263.481 57.353 53.893 50.803 48.063 45.743 43.953 42.903 42.023 41.493 41.583
1282.771 41.823 42.243 42.933 43.843 44.853 45.733 46.273 46.503 46.343 45.713
1302.060 44.823 43.793 42.623 41.413 40.223 39.113 38.263 37.453 36.613 35.683
1321.350 34.743 33.863 32.983 32.293 31.743 31.323 30.993 30.683 30.493 30.363
1340.640 30.303 30.393 30.793 31.693 32.983 34.613 36.423 37.893 38.893 39.323
1359.930 39.153 38.553 37.593 36.313 34.623 32.733 30.743 28.563 26.323 24.073
1379.219 21.783 19.583 17.713 16.343 15.513 15.173 15.133 15.203 15.253 15.243
1398.509 15.183 14.963 14.573 14.033 13.383 12.693 12.163 11.863 11.723 11.753
1417.799 12.053 12.613 13.363 14.393 15.913 17.993 20.693 24.053 27.803 31.283
1437.089 34.063 35.973 37.203 37.583 36.443 34.283 32.163 30.693 29.823 29.143
1456.378 28.303 27.383 26.413 25.223 23.803 22.143 20.333 18.363 16.353 14.523
1475.668 12.883 11.303 9.963 8.843 7.913 7.143 6.523 6.033 5.593 5.193
1494.958 4.833 4.553 4.343 4.163 4.023 3.933 3.753 3.653 3.573 3.363
1514.248 3.223 3.253 3.263 3.103 2.953 2.973 2.973 2.883 2.843 2.853
1533.538 2.853 2.773 2.753 2.693 2.613 2.633 2.653 2.683 2.623 2.543
1552.827 2.483 2.473 2.553 2.483 2.423 2.433 2.413 2.423 2.343 2.313
1572.117 2.333 2.363 2.393 2.343 2.263 2.243 2.293 2.213 2.173 2.213
1591.407 2.203 2.223 2.213 2.123 2.063 2.083 2.063 2.043 2.093 2.083
1610.697 2.013 1.983 2.003 2.043 2.033 2.013 1.963 1.953 2.033 2.003
1629.986 1.913 1.913 1.893 1.893 1.973 2.033 2.003 1.983 1.953 1.883
1649.276 1.963 2.003 1.973 2.053 2.103 2.123 2.203 2.293 2.333 2.423
1668.566 2.543 2.613 2.683 2.763 2.823 2.903 3.123 3.313 3.443 3.633
1687.856 3.903 4.173 4.493 4.863 5.253 5.773 6.343 6.993 7.743 8.603
1707.146 9.513 10.353 11.303 12.453 13.553 14.723 16.083 17.533 19.183 21.023
1726.435 23.133 25.633 28.533 31.803 35.633 40.083 45.193 51.263 58.243 66.423
1745.725 75.723 86.173 97.383 108.763 119.553 128.703 135.463 138.913 138.303 133.403
1765.015 124.683 113.333 100.483 87.543 75.193 64.023 54.273 46.113 39.553 34.143
1784.305 29.713 26.023 22.813 20.013 17.643 15.563 13.743 12.203 10.883 9.743
1803.594 8.763 7.953 7.203 6.523 5.943 5.413 4.953 4.483 4.133 3.823
1822.884 3.473 3.153 2.963 2.743 2.543 2.383 2.243 2.203 2.113 2.033
1842.174 1.993 1.913 1.873 1.903 1.883 1.833 1.793 1.723 1.673 1.723
1861.464 1.733 1.713 1.733 1.693 1.673 1.733 1.753 1.753 1.823 1.783
1880.754 1.733 1.723 1.713 1.833 1.873 1.863 1.863 1.873 1.883 1.873
1900.043 1.913 1.953 1.923 1.883 1.853 1.853 1.903 1.953 1.993 2.003
1919.333 1.993 1.963 1.953 2.003 2.013 1.963 1.973 1.973 1.963 1.993
1938.623 2.023 1.993 2.003 2.013 2.003 1.993 1.963 2.033 2.093 2.123
1957.913 2.163 2.263 2.373 2.433 2.553 2.613 2.673 2.733 2.783 2.823
1977.202 2.823 2.813 2.853 2.873 2.773 2.723 2.703 2.613 2.573 2.533
1996.492 2.473 2.403 2.363 2.303 2.233 2.223 2.203 2.193 2.223 2.173
2015.782 2.093 2.123 2.133 2.093 2.103 2.123 2.163 2.223 2.213 2.163
2035.072 2.173 2.153 2.163 2.253 2.263 2.153 2.053 2.063 2.103 2.133
2054.362 2.153 2.193 2.163 2.213 2.273 2.223 2.193 2.173 2.143 2.123
2073.651 2.173 2.103 2.013 2.003 1.913 1.823 1.743 1.663 1.693 1.693
2092.941 1.623 1.553 1.543 1.553 1.473 1.393 1.363 1.363 1.253 1.2013
2112.231 1.213 1.1943 1.233 1.2198 1.1537 1.1527 1.1372 1.141 1.2153 1.2177
2131.521 1.1303 1.1146 1.1157 1.1163 1.0878 1.0324 1.0461 1.0478 1.0647 1.0678
2150.810 1.0185 1.0215 1.011 0.9722 0.9886 1.0332 1.0319 0.9998 0.9377 0.9268
2170.100 0.9402 0.887 0.8627 0.8771 0.9037 0.9215 0.9181 0.8567 0.8278 0.8216
2189.390 0.8146 0.854 0.8172 0.797 0.8561 0.8533 0.8421 0.7953 0.7453 0.8285
2208.680 0.8913 0.9112 0.8487 0.8361 0.8876 0.8335 0.7892 0.7847 0.8113 0.8537
2227.970 0.8947 0.8668 0.8461 0.8781 0.8748 0.8522 0.8906 0.9053 0.8674 0.9097
2247.259 0.9577 0.9443 0.9343 0.9498 0.9337 0.9347 0.9961 1.0019 0.9518 0.966
2266.549 0.9792 0.9717 1.013 1.0531 1.023 1.0122 1.0609 1.043 1.0185 1.0364
2285.839 1.051 1.0698 1.0331 1.0105 1.0334 0.9938 1.0511 1.1733 1.1104 0.9905
2305.129 0.9701 0.9881 1.0096 0.9365 0.8416 0.8984 0.8862 0.831 0.8536 0.8784
2324.418 0.8479 0.7569 0.7579 0.8019 0.8547 0.8675 0.8173 0.7494 0.7612 0.8591
2343.708 0.8617 0.7965 0.7866 0.8543 0.913 0.9257 0.9245 0.8879 0.9134 0.9506
2362.998 0.8875 0.8603 0.8775 0.8709 0.9277 0.9257 0.8526 0.8316 0.8078 0.8263
2382.288 0.9568 0.9833 0.937 0.9913 0.9926 0.9486 0.9261 0.9597 0.9526 0.8908
2401.578 0.8498 0.7819 0.7633 0.7774 0.7843 0.8357 0.8286 0.8765 0.9254 0.8741
2420.867 0.9175 0.887 0.7826 0.7439 0.661 0.6866 0.7506 0.7165 0.7201 0.7291
2440.157 0.8172 0.8703 0.8091 0.7812 0.7739 0.7751 0.7751 0.7849 0.7891 0.7382
2459.447 0.7176 0.8532 0.8978 0.893 0.9045 0.9436 0.9967 0.9798 1.0044 1.0265
2478.737 0.9598 0.8628 0.9138 0.9084 0.8753 1.0137 1.0608 1.0475 1.0291 0.947
2498.026 0.9302 0.9432 1.0075 0.9787 0.8636 0.8675 0.8837 0.9041 0.8909 0.8438
2517.316 0.8604 0.8071 0.7417 0.7674 0.7318 0.6501 0.6394 0.6995 0.7909 0.7778
2536.606 0.7593 0.785 0.7876 0.8578 0.8698 0.9135 0.9254 0.8499 0.9092 0.9333
2555.896 0.9534 1.0234 1.0824 1.1075 1.1638 1.253 1.263 1.283 1.323 1.313
2575.186 1.263 1.263 1.293 1.383 1.393 1.353 1.403 1.393 1.303 1.303
2594.475 1.323 1.423 1.443 1.423 1.453 1.453 1.573 1.633 1.593 1.663
2613.765 1.733 1.743 1.673 1.683 1.733 1.803 1.963 2.053 2.103 2.213
2633.055 2.273 2.413 2.633 2.773 2.993 3.213 3.373 3.563 3.683 3.803
2652.345 4.003 4.073 4.243 4.373 4.463 4.553 4.753 4.993 5.123 5.343
2671.634 5.583 5.863 6.223 6.503 6.783 7.113 7.433 7.673 7.903 8.143
2690.924 8.223 8.283 8.333 8.253 8.083 7.973 8.043 8.133 8.043 7.893
2710.214 7.883 7.933 7.973 8.103 8.343 8.543 8.663 8.933 9.293 9.673
2729.504 10.023 10.333 10.693 10.953 11.193 11.503 11.953 12.383 12.823 13.333
2748.794 13.823 14.333 14.933 15.673 16.423 16.983 17.453 18.013 18.613 19.153
2768.083 19.623 20.123 20.483 20.853 21.513 22.263 23.003 23.883 24.943 26.343
2787.373 28.063 30.023 32.323 35.073 38.193 41.593 45.343 49.343 53.303 56.873
2806.663 59.973 62.393 63.883 64.403 64.033 62.993 61.273 59.143 56.903 54.513
2825.953 52.023 49.563 47.323 45.363 43.523 41.923 40.923 40.353 40.303 40.893
2845.242 42.033 43.923 46.623 49.963 53.733 57.863 62.023 65.463 67.503 67.973
2864.532 66.673 63.703 59.633 54.733 49.753 45.323 41.393 37.983 35.183 33.103
2883.822 31.643 30.763 30.373 30.503 31.113 32.023 33.083 33.933 34.813 35.643
2903.112 36.123 36.493 36.733 36.973 37.473 38.213 38.923 39.763 40.883 42.143
2922.401 43.413 44.783 46.113 47.463 48.743 50.163 51.673 53.073 54.473 55.753
2941.691 57.183 58.773 60.483 62.293 64.493 67.623 71.503 75.933 80.473 84.653
2960.981 88.853 93.523 97.983 100.403 99.003 94.373 88.643 82.333 74.583 64.603
2980.271 53.593 44.063 36.923 31.773 27.843 24.833 22.623 20.723 19.273 18.153
2999.561 16.973 16.033 15.023 13.903 12.953 12.173 11.503 10.793 10.293 9.883
3018.850 9.423 9.113 8.823 8.573 8.193 7.923 7.763 7.373 6.993 6.653
3038.140 6.253 5.903 5.483 5.053 4.783 4.573 4.343 4.073 3.883 3.763
3057.430 3.643 3.513 3.293 3.093 3.043 3.003 2.983 2.863 2.653 2.633
3076.720 2.683 2.533 2.413 2.453 2.533 2.533 2.473 2.443 2.373 2.333
3096.009 2.293 2.193 2.213 2.223 2.163 2.273 2.203 1.983 1.843 1.713
3115.299 1.673 1.613 1.663 1.603 1.463 1.403 1.353 1.383 1.413 1.343
3134.589 1.343 1.303 1.0507 0.9857 1.038 1.0308 1.0233 0.9099 0.8956 0.9965
3153.879 0.9753 0.9738 1.0374 0.9455 0.8562 0.8814 0.891 0.9005 0.8918 0.8384
3173.169 0.7412 0.6037 0.5764 0.6609 0.6368 0.5809 0.5179 0.5681 0.6663 0.5391
3192.458 0.5897 0.6594 0.6784 0.7103 0.548 0.5162 0.6182 0.5631 0.527 0.4588
3211.748 0.3909 0.6458 0.7628 0.6169 0.4784 0.4566 0.6075 0.7385 0.6664 0.5416
3231.038 0.6299 0.7352 0.6615 0.6579 0.66 0.549 0.4439 0.4839 0.4636 0.3549
3250.328 0.3679 0.3872 0.454 0.4576 0.3638 0.1926 0.2013 0.26372 0.25249 0.27269
3269.617 0.2108 0.27681 0.2035 0.1684 0.24925 0.2548 0.3382 0.3588 0.25805 0.1566
3288.907 0.099 0.1461 0.25616 0.4069 0.4173 0.2892 0.346 0.3377 0.2072 0.1631
3308.197 0.1976 0.3456 0.3862 0.26476 0.179 0.2025 0.2034 0.1889 0.3581 0.28926
3327.487 0.1881 0.24027 0.21348 0.1989 0.23768 0.26331 0.205 0.175 0.25361 0.26717
3346.777 0.2077 0.2073 0.22741 0.24754 0.230123 0.1795 0.1804 0.23926 0.2172 0.25587
3366.066 0.2211 0.1425 0.3613 0.4916 0.30929 0.24196 0.2951 0.3177 0.1894 0.048
3385.356 0.1254 0.118 0.1636 0.24941 0.1434 0.118 0.1568 0.228461 0.31641 0.4069
3404.646 0.4883 0.4542 0.3713 0.3573 0.3575 0.29287 0.24926 0.230001 0.224272 0.28746
3423.936 0.3442 0.31197 0.27811 0.28876 0.4042 0.417 0.4837 0.4771 0.277 0.33
3443.225 0.4096 0.4152 0.3954 0.25615 0.1585 0.2957 0.4905 0.5779 0.6945 0.7708
3462.515 0.6112 0.5017 0.4933 0.7059 0.8651 0.8242 0.7497 0.7505 0.945 0.9894
3481.805 1.0574 1.1069 1.1787 1.1603 1.243 1.393 1.433 1.523 1.473 1.463
3501.095 1.483 1.513 1.633 1.613 1.493 1.443 1.303 1.1391 0.9356 0.8861
3520.385 0.9036 0.7976 0.7735 0.7054 0.7284 0.6611 0.4947 0.5389 0.5813 0.6513
3539.674 0.6567 0.5016 0.386 0.4511 0.5178 0.4311 0.26317 0.2024 0.4565 0.5016
3558.964 0.31335 0.4248 0.4836 0.28165 0.30355 0.3953 0.31968 0.3228 0.3935 0.3596
3578.254 0.1459 0.1251 0.1351 0.077 0.1761 0.25073 0.123 0.09 0.2567 0.27977
3597.544 0.3685 0.5167 0.4814 0.3323 0.25289 0.1961 0.1644 0.1897 0.23559 0.1347
3616.833 0.101 0.29052 0.3916 0.4017 0.3289 0.187 0 0.036 0.21334 0.25777
3636.123 0.3151 0.4296 0.31778 0.1841 0.28031 0.1425 0.086 0.1369 0.059 0.1345
3655.413 0.1384 0.122 0.119 0.1243 0.2521 0.28891 0.1669 0.046 0.1864 0.28034
3674.703 0.27511 0.1937 0.045 0.075 0.02 0.121 0.205 0.06 0 0.107
3693.993 0.29332 0.25959 0.2555 0.29561 0.173 0.1788 0.3403 0.3661 0.1627 0.1559
3713.282 0.189 0.1966 0.368 0.4298 0.3471 0.3578 0.4532 0.5076 0.4868 0.3428
3732.572 0.26094 0.30086 0.3659 0.3875 0.345 0.2865 0.4742 0.4517 0.1928 0.223998
3751.862 0.26669 0.2107 0.225404 0.24235 0.24715 0.29481 0.26997 0.21609 0.24408 0.24142
3771.152 0.2047 0.23721 0.28968 0.3237 0.30183 0.21734 0.1597 0.2081 0.3459 0.2051
3790.441 0.011 0.1956 0.4529 0.4061 0.1761 0.2167 0.25976 0.2766 0.4399 0.5729
3809.731 0.4829 0.30562 0.2936 0.24035 0.26947 0.4746 0.5162 0.4671 0.5672 0.5939
3829.021 0.3939 0.4073 0.5041 0.5075 0.4747 0.4342 0.482 0.361 0.21426 0.29486
3848.311 0.3481 0.26328 0.30134 0.3427 0.3349 0.4167 0.4389 0.4776 0.581 0.5031
3867.601 0.4481 0.3791 0.5536 0.7107 0.5771 0.4764 0.4583 0.4895 0.4759 0.5084
3886.890 0.5799 0.5051 0.3863 0.419 0.4454 0.4509 0.3651 0.2025 0.1595 0.1753
3906.180 0.3254 0.445 0.4595 0.3807 0.28961 0.3761 0.5718 0.6451 0.6127 0.5742
3925.470 0.5356 0.5915 0.613 0.7181 0.7824 0.7396 0.6543 0.6859 0.7092 0.6809
3944.760 0.6641 0.5018 0.5234 0.6852 0.7088 0.6868 0.6906 0.7904 0.9531 0.9714
3964.049 0.7998 0.727 0.7458 0.8644 1.0546 1.1094 0.9721 0.9669 1.1149 1.0735
3983.339 0.8991 1.0192 1.2099 1.0805 0.9657 0.9359 0.9159 0.7404 0.7182 0.6976
##END=
