##TITLE=6-Aminoundecane
##JCAMP-DX=4.24
##DATA TYPE=INFRARED SPECTRUM
##ORIGIN=NIST Mass Spectrometry Data Center
##OWNER=NIST Standard Reference Data Program
Collection (C) 2018 copyright by the U.S. Secretary of Commerce
on behalf of the United States of America. All rights reserved.
##CAS REGISTRY NO=33788-00-0
##MOLFORM=C 11 H 25 N
##$NIST SOURCE=MSDC-IR
##SPECTROMETER/DATA SYSTEM=HP-GC/MS/IRD
##STATE=gas
##XUNITS=1/CM
##YUNITS=ABSORBANCE
##XFACTOR=1.0
##YFACTOR=0.000002700
##DELTAX=4.0
##FIRSTX=550.0
##LASTX=3846.0
##FIRSTY=0.001053
##MAXX=3846
##MINX=550
##MAXY=0.027
##MINY=0
##NPOINTS=825
##XYDATA=(X++(Y..Y))
550.0 390 585 450 492 465 478 512 525 545 566
590.0 566 579 624 666 683 696 735 767 804 865
630.0 930 986 1039 1048 1018 993 977 967 924 911
670.0 939 953 996 1053 1111 1185 1291 1395 1523 1671
710.0 1547 1343 1202 1050 959 909 899 973 1162 1480
750.0 1900 2357 2912 3319 3081 2527 2067 1603 1194 929
790.0 777 691 627 572 530 489 480 506 527 547
830.0 576 568 521 484 461 448 439 436 432 417
870.0 402 388 366 361 383 388 362 329 275 221
910.0 177 153 141 124 124 127 133 145 153 177
950.0 221 272 304 322 315 291 261 199 146 121
990.0 112 104 93 93 101 111 139 153 156 139
1030.0 107 99 86 81 101 128 155 192 247 313
1070.0 389 436 447 413 347 274 218 190 207 242
1110.0 270 290 270 225 183 153 134 116 112 130
1150.0 161 201 222 226 218 189 144 91 50 29
1190.0 24 12 5 15 12 0 2 19 33 54
1230.0 69 95 170 270 363 435 500 580 694 878
1270.0 1179 1581 1986 2242 2332 2308 2077 1675 1298 1017
1310.0 797 619 502 475 526 583 624 639 614 536
1350.0 445 351 268 199 151 116 94 87 80 76
1390.0 75 78 97 121 139 150 174 215 273 358
1430.0 491 690 936 1214 1598 2154 2831 3445 3778 3832
1470.0 3691 3187 2434 1837 1439 1120 826 608 473 391
1510.0 334 298 281 278 286 308 335 362 394 437
1550.0 494 565 659 781 949 1166 1442 1779 2144 2480
1590.0 2750 2924 2959 2937 3067 3486 4080 4565 4747 4619
1630.0 4137 3310 2417 1718 1233 909 692 542 439 369
1670.0 308 264 235 216 203 191 179 180 182 184
1710.0 196 201 208 210 200 185 169 156 148 142
1750.0 138 133 125 119 115 111 104 104 107 109
1790.0 112 124 142 156 167 173 168 150 132 117
1830.0 102 93 85 81 86 86 88 91 93 100
1870.0 105 110 128 153 177 215 251 262 259 231
1910.0 190 160 136 120 109 109 107 99 97 92
1950.0 88 90 91 89 85 86 87 83 87 88
1990.0 84 86 91 91 89 87 80 85 93 94
2030.0 97 90 87 84 86 93 93 95 98 98
2070.0 97 98 97 98 98 96 98 104 104 102
2110.0 98 103 107 98 96 100 103 98 92 94
2150.0 96 97 94 93 93 94 103 102 93 96
2190.0 97 93 92 88 88 90 91 96 94 90
2230.0 95 95 97 99 98 96 95 94 87 79
2270.0 89 98 92 91 95 98 96 98 97 93
2310.0 98 105 110 108 108 114 114 117 113 106
2350.0 105 109 108 113 116 109 108 102 94 100
2390.0 109 107 105 99 99 110 111 102 98 95
2430.0 92 97 97 93 92 95 100 98 101 101
2470.0 111 112 106 109 109 103 101 103 104 104
2510.0 101 100 101 99 101 105 102 101 104 109
2550.0 108 108 112 114 120 136 146 144 153 152
2590.0 149 154 153 148 153 156 151 155 155 153
2630.0 157 162 170 181 190 199 205 223 243 245
2670.0 239 236 233 227 223 211 197 190 181 178
2710.0 180 178 177 180 181 176 173 183 195 195
2750.0 192 204 219 227 239 249 264 279 285 305
2790.0 329 344 369 409 449 487 543 609 697 855
2830.0 1098 1414 1781 2108 2329 2455 2549 2677 2854 3065
2870.0 3179 3129 3017 2891 2798 2770 2785 2809 2820 2855
2910.0 2964 3273 3894 4804 5868 7147 8837 10000 9970 9302
2950.0 8062 6261 4241 2549 1570 1091 838 678 580 533
2990.0 515 503 518 560 643 795 1015 1307 1626 1874
3030.0 2034 2102 2047 1908 1775 1675 1592 1525 1491 1487
3070.0 1457 1373 1233 1042 819 599 430 330 258 213
3110.0 197 183 175 168 162 162 163 175 175 162
3150.0 160 177 170 155 162 170 172 173 168 171
3190.0 179 177 181 183 181 177 178 185 189 187
3230.0 188 184 177 174 160 150 145 126 113 114
3270.0 115 114 121 117 105 113 120 122 114 98
3310.0 95 96 105 112 112 115 119 117 105 104
3350.0 110 128 127 120 133 145 157 165 175 201
3390.0 244 304 380 444 476 477 446 358 276 235
3430.0 198 170 165 166 168 182 196 203 215 244
3470.0 291 366 482 596 666 696 667 591 477 359
3510.0 275 226 207 184 178 168 153 151 132 122
3550.0 122 111 102 102 110 114 115 107 102 105
3590.0 99 113 112 95 99 111 95 85 95 98
3630.0 97 83 80 92 109 115 115 122 119 113
3670.0 122 122 123 131 139 125 114 114 113 126
3710.0 137 129 123 129 136 148 152 141 137 141
3750.0 139 127 130 138 119 123 136 125 116 116
3790.0 130 151 157 149 147 159 162 148 144 149
3830.0 149 168 173 152 154
##END=
