##TITLE=5-Chloro-1,3-phenylenediamine
##JCAMP-DX=4.24
##DATA TYPE=INFRARED SPECTRUM
##ORIGIN=EPA-IR VAPOR PHASE LIBRARY
##OWNER=SRD/NIST
Collection (C) 2018 copyright by the U.S. Secretary of Commerce
on behalf of the United States of America. All rights reserved.
##CAS REGISTRY NO=33786-89-9
##MOLFORM=C 6 H 7 Cl N 2
##$NIST SOURCE=MSDC-IR
##STATE=gas
##XUNITS=1/CM
##YUNITS=ABSORBANCE
##XFACTOR=1.
##YFACTOR=0.001
##DELTAX=1.92898
##FIRSTX=549.8
##LASTX=4000.7
##FIRSTY=11.7341
##MAXX=4000.7
##MINX=549.759
##MAXY=0.155874
##MINY=0
##NPOINTS=1790
##XYDATA=(X++(Y..Y))
549.759 11.7341 11.5641 11.4641 11.3841 11.1441 11.2641 11.5341 11.6341 11.8641 11.7341
569.049 11.3241 11.2941 11.5741 11.6441 11.2641 10.9341 10.6941 10.7341 10.5641 10.2441
588.339 10.2141 10.1741 10.2441 10.3441 10.2641 10.1341 10.0241 9.9041 9.8241 9.7641
607.628 9.8141 9.9141 9.9441 10.0241 10.1841 10.3841 10.2741 10.3541 10.5141 10.7741
626.918 11.2041 11.5741 12.1641 12.6741 13.3841 14.5141 15.8141 17.4541 19.4141 21.7441
646.208 24.5241 28.1641 32.3341 36.8041 41.7741 47.1541 52.1641 56.7041 61.0541 65.5641
665.498 71.4541 78.8541 80.5441 74.6141 69.9541 67.5541 65.0541 62.0741 58.0241 53.5341
684.787 49.0441 44.5041 40.2941 36.4841 33.1241 30.0141 27.3741 25.1641 23.0241 21.2341
704.077 19.6241 18.3241 17.2841 16.3041 15.4241 14.6941 13.9841 13.4141 13.0141 12.4941
723.367 11.8841 11.2941 10.8741 10.5241 10.0541 9.6441 9.3241 8.9941 8.7941 8.8641
742.657 8.8241 8.6741 8.7241 8.9141 9.2841 9.6741 9.9141 10.2841 10.8341 11.3441
761.947 11.9441 12.4541 13.0841 13.7141 14.2741 14.9141 15.4241 16.1741 16.7541 16.9041
781.236 17.3241 17.8041 17.8841 18.0141 18.4741 18.8941 19.2641 20.0641 21.0841 22.2041
800.526 23.5641 25.2741 27.1841 29.2841 31.7141 34.2941 36.6141 38.2841 39.1641 39.9841
819.816 40.6541 39.8941 38.1141 36.3541 34.4041 32.0641 29.6241 27.3841 25.0241 22.7541
839.106 20.8441 18.8941 17.2941 16.0541 15.0141 14.3141 14.0741 14.1041 14.6441 15.6041
858.395 17.0741 19.7441 23.5041 28.0841 33.1941 38.3741 42.6441 45.4541 47.3141 48.4541
877.685 48.6441 47.2441 44.6041 40.7141 34.4741 26.7541 19.6941 14.5841 11.2641 9.1841
896.975 7.9941 7.0441 6.2841 5.9341 5.7341 5.5941 5.6641 5.8941 5.9141 5.6441
916.265 5.5441 5.5041 5.5341 5.6641 5.5841 5.5041 5.5441 5.6041 5.7041 5.7341
935.555 5.6041 5.6341 5.8141 5.9541 6.0441 6.1041 6.0341 6.0341 6.2741 6.2241
954.844 6.2541 6.4741 6.3741 6.3841 6.5941 6.6741 6.6841 6.8241 7.0641 7.4341
974.134 7.7141 8.1941 9.1241 10.0941 10.9541 11.9941 12.9441 13.4841 14.0741 14.1641
993.424 13.5841 13.1241 12.6341 11.7541 10.8041 9.5841 8.3341 7.2041 6.0641 5.1841
1012.714 4.4841 4.4041 4.3341 4.0141 4.0341 4.0741 3.8241 3.6241 3.6741 3.7641
1032.003 4.0241 4.1441 4.1741 4.5441 4.4441 4.0841 4.2141 4.1741 4.1941 4.5741
1051.293 4.7541 4.8541 5.2741 5.4241 5.6941 6.3641 6.6541 6.9141 7.2941 7.6541
1070.583 8.2041 9.0441 9.7741 10.2141 10.5041 11.4641 12.3641 13.0541 13.9641 14.7541
1089.873 15.5041 15.9541 16.8141 17.4141 17.1541 16.8141 16.2341 15.6041 15.0841 14.3441
1109.163 13.1641 11.9841 11.2041 10.1441 9.1641 8.3641 7.4441 6.8441 6.4941 6.0541
1128.452 5.5641 4.9941 4.6741 4.7241 4.3841 3.9241 3.5441 3.1441 3.1441 2.8141
1147.742 2.6841 3.1441 3.4341 3.4841 3.5941 4.1441 4.8741 5.6441 6.6041 8.3141
1167.032 10.8441 13.6441 17.1441 21.3941 26.2841 31.5341 36.3241 39.9541 41.8841 42.3641
1186.322 42.0941 42.0141 42.1541 40.3541 36.3141 30.9541 24.8441 19.3541 14.7041 11.0241
1205.611 8.1641 6.1941 5.0041 4.2141 3.6741 2.9141 2.5641 2.1541 1.7341 1.8741
1224.901 1.9441 1.7741 1.6741 1.6241 1.5041 1.5341 1.4341 1.2741 1.3541 1.3141
1244.191 1.2341 1.3641 1.2741 1.1941 1.3441 1.1141 1.0688 1.2341 1.2241 1.3241
1263.481 1.5941 1.6441 1.5941 1.8341 2.1841 2.4141 2.6141 2.8841 3.0341 3.2141
1282.771 3.4141 3.6741 3.9841 4.2141 4.4241 4.8041 5.1641 5.4441 5.8941 6.3041
1302.060 6.6341 6.9141 7.0741 7.2141 7.3441 7.3641 7.2841 7.0841 6.7241 6.2741
1321.350 5.7741 5.3041 4.9041 4.4841 4.0741 3.8241 3.6541 3.4541 3.2741 3.1241
1340.640 3.0241 2.9341 2.8441 2.8641 2.9441 3.0941 3.3241 3.6241 3.9841 4.3641
1359.930 4.7641 5.0841 5.3141 5.4941 5.6041 5.5641 5.4841 5.3441 5.1041 4.9041
1379.219 4.7441 4.5641 4.4341 4.4741 4.6141 4.9141 5.3241 5.7741 6.3441 6.8741
1398.509 7.3941 7.9341 8.4241 8.8041 9.0441 9.2341 9.2641 9.0641 8.8241 8.4741
1417.799 8.0641 7.7041 7.3241 6.9741 6.7041 6.4941 6.3641 6.3841 6.5141 6.7041
1437.089 7.1741 7.8341 8.7041 9.8341 11.2941 13.1541 15.4341 18.1341 21.2641 24.5941
1456.378 28.1941 31.8141 34.9441 37.7241 40.2041 42.6641 45.1141 47.4641 48.9241 48.8541
1475.668 47.4441 45.5741 43.7641 41.7941 39.3641 36.3441 32.5841 28.3441 24.1141 20.4941
1494.958 17.5941 15.3641 13.8241 12.8041 12.1141 11.5341 11.0441 10.6341 10.3741 10.2041
1514.248 10.0441 9.9441 9.7741 9.5541 9.3841 9.2541 9.1141 9.1041 9.2641 9.4141
1533.538 9.5841 9.9041 10.2541 10.6441 11.1441 11.7441 12.3941 13.0241 13.7541 14.7041
1552.827 15.8541 17.1641 18.7041 20.5541 22.6741 25.0341 28.0641 31.9841 36.9441 43.3941
1572.117 51.2541 60.3841 71.6541 84.5241 97.8441 111.864 125.324 137.554 147.444 153.944
1591.407 155.874 152.884 145.454 134.834 122.324 110.204 100.434 93.8941 90.6141 90.3141
1610.697 92.5441 97.1741 103.404 110.964 118.864 126.114 132.424 137.214 139.774 139.784
1629.986 137.304 132.114 124.534 114.984 104.474 93.5741 82.2241 71.2441 60.7341 51.2441
1649.276 43.2241 36.7041 30.7341 25.9241 22.3741 19.4341 17.1241 15.3241 13.7741 12.4441
1668.566 11.3941 10.5241 9.7241 9.0541 8.4641 8.0041 7.5941 7.1841 6.8141 6.5141
1687.856 6.2041 5.9441 5.8341 5.6341 5.4441 5.2941 5.0941 4.8841 4.7541 4.6241
1707.146 4.4141 4.2241 4.0841 3.9141 3.7141 3.5041 3.4141 3.3441 3.2941 3.2941
1726.435 3.3041 3.3441 3.4041 3.5241 3.6741 3.8041 3.8441 3.8541 3.9441 3.9741
1745.725 3.9141 3.8141 3.6941 3.5841 3.4541 3.2941 3.1441 2.9241 2.7341 2.5641
1765.015 2.4041 2.2841 2.1141 1.9941 1.9141 1.8441 1.7441 1.6641 1.5941 1.5241
1784.305 1.5041 1.5141 1.4841 1.4541 1.4041 1.3541 1.3541 1.3641 1.3341 1.2541
1803.594 1.1941 1.1941 1.2041 1.2041 1.2041 1.1641 1.2141 1.2541 1.2441 1.2041
1822.884 1.1841 1.1541 1.1841 1.2341 1.2341 1.3341 1.3941 1.3641 1.4141 1.4741
1842.174 1.5141 1.5841 1.5841 1.6341 1.7341 1.7241 1.7541 1.8141 1.8341 1.8041
1861.464 1.7441 1.7541 1.7441 1.7241 1.6541 1.6641 1.6841 1.6141 1.5541 1.4941
1880.754 1.4641 1.4241 1.3741 1.3441 1.2741 1.2141 1.2041 1.2041 1.1941 1.1341
1900.043 1.1041 1.0797 1.0661 1.06 1.0259 0.9901 1.0445 1.0758 1.0708 1.0273
1919.333 1.0221 1.0408 1.0253 1.0192 0.9423 0.9266 0.9149 0.8993 0.9012 0.9017
1938.623 0.9371 0.964 1.0074 1.0561 1.0742 0.9946 1.0146 1.1141 1.0602 1.0436
1957.913 1.0745 1.1141 1.1741 1.2041 1.2741 1.3441 1.3841 1.4041 1.4341 1.5341
1977.202 1.6241 1.7341 1.7641 1.8141 1.8841 1.9241 2.0141 2.0541 2.0341 1.9241
1996.492 1.8541 1.8841 1.8741 1.7841 1.7441 1.7141 1.6041 1.5141 1.4541 1.3941
2015.782 1.3141 1.3141 1.3141 1.3341 1.3341 1.2741 1.2641 1.2741 1.2841 1.2541
2035.072 1.2541 1.3041 1.3341 1.3241 1.2941 1.3041 1.3541 1.4641 1.5141 1.5241
2054.362 1.5441 1.5241 1.4741 1.4041 1.3541 1.3241 1.3041 1.2641 1.3041 1.2641
2073.651 1.1141 1.0775 1.1341 1.1241 1.0941 1.0693 1.0127 1.0403 1.066 1.0576
2092.941 1.0646 1.0603 1.0941 1.1341 1.0941 1.0597 1.0256 1.0006 1.003 1.0526
2112.231 1.1341 1.0941 1.0664 1.1041 1.1541 1.1641 1.1741 1.1541 1.0786 1.1241
2131.521 1.1741 1.1841 1.1941 1.2541 1.3241 1.3341 1.3241 1.3441 1.3841 1.4141
2150.810 1.4541 1.3841 1.2941 1.3641 1.3941 1.3041 1.2441 1.2141 1.2141 1.2341
2170.100 1.2541 1.1941 1.1641 1.1941 1.1741 1.2341 1.2441 1.2041 1.2441 1.3041
2189.390 1.2441 1.0941 1.0342 1.0389 1.024 0.9773 0.9551 0.8982 0.8471 0.8216
2208.680 0.8086 0.766 0.6757 0.659 0.6719 0.6534 0.6587 0.6086 0.594 0.5657
2227.970 0.4782 0.5059 0.5004 0.5291 0.5866 0.5496 0.5626 0.6228 0.6379 0.6256
2247.259 0.634 0.6938 0.7052 0.7307 0.7713 0.747 0.8276 0.8884 0.8375 0.8442
2266.549 0.8109 0.7812 0.8139 0.8258 0.8426 0.8981 0.9352 0.9382 0.9213 0.8715
2285.839 0.8289 0.8072 0.7764 0.7122 0.7282 0.7838 0.7749 0.8162 0.8318 0.7862
2305.129 0.7697 0.7691 0.7725 0.7292 0.7665 0.841 0.8711 0.8615 0.7507 0.6957
2324.418 0.7159 0.6982 0.6594 0.5947 0.5477 0.5229 0.4986 0.5046 0.5233 0.5673
2343.708 0.5638 0.556 0.5931 0.5923 0.599 0.6472 0.6464 0.6773 0.6786 0.6323
2362.998 0.6715 0.7116 0.7607 0.752 0.7992 0.8325 0.7573 0.7651 0.7809 0.8043
2382.288 0.8435 0.7975 0.7041 0.699 0.7185 0.7221 0.7502 0.7139 0.6602 0.6654
2401.578 0.6793 0.6333 0.6161 0.6831 0.7179 0.6773 0.5887 0.5728 0.6497 0.6821
2420.867 0.6718 0.6572 0.6751 0.6746 0.6101 0.6062 0.5857 0.6187 0.6616 0.7068
2440.157 0.6932 0.6034 0.6043 0.6417 0.6985 0.699 0.7055 0.6883 0.6705 0.7445
2459.447 0.8001 0.7844 0.8231 0.8794 0.8319 0.7704 0.7473 0.7433 0.6979 0.7033
2478.737 0.7467 0.7422 0.6973 0.6951 0.771 0.8128 0.7783 0.7767 0.7739 0.8342
2498.026 0.9515 0.9835 0.9674 0.8989 0.9766 1.045 1.0194 0.9331 0.8271 0.8187
2517.316 0.7747 0.6534 0.5084 0.4949 0.5243 0.4719 0.4462 0.3989 0.4003 0.4053
2536.606 0.3685 0.3851 0.3427 0.3478 0.4544 0.3999 0.3644 0.3902 0.3316 0.3305
2555.896 0.3692 0.365 0.3673 0.4286 0.4566 0.3885 0.4221 0.4799 0.4286 0.4559
2575.186 0.4411 0.4778 0.4725 0.4232 0.485 0.4699 0.4464 0.4625 0.516 0.5863
2594.475 0.563 0.5049 0.5214 0.619 0.6558 0.6009 0.625 0.6664 0.6463 0.5837
2613.765 0.6099 0.667 0.6525 0.5781 0.539 0.5664 0.5761 0.6051 0.6342 0.6274
2633.055 0.5571 0.6346 0.6963 0.5782 0.5467 0.6126 0.6614 0.6923 0.6684 0.6083
2652.345 0.6611 0.7243 0.7307 0.6797 0.6884 0.7432 0.7391 0.7332 0.7034 0.6968
2671.634 0.7829 0.7773 0.7069 0.6874 0.6892 0.705 0.7055 0.7635 0.771 0.7958
2690.924 0.7938 0.7895 0.8313 0.7963 0.7389 0.7066 0.7634 0.7345 0.7142 0.7572
2710.214 0.6988 0.7152 0.7474 0.7611 0.7678 0.706 0.6548 0.7463 0.9352 1.0258
2729.504 0.934 0.8841 0.9369 0.9255 1.0186 1.1241 1.1341 1.1841 1.2341 1.1641
2748.794 1.1441 1.1941 1.2341 1.2241 1.1841 1.1841 1.1641 1.1541 1.1241 1.1041
2768.083 1.0841 1.1341 1.1841 1.1541 1.1641 1.1441 1.0941 1.0816 1.1041 1.1441
2787.373 1.1241 1.0558 0.9581 0.8991 0.8649 0.8153 0.8246 0.817 0.7296 0.7014
2806.663 0.7435 0.6999 0.6357 0.6244 0.6029 0.6407 0.5738 0.4855 0.5262 0.4753
2825.953 0.4137 0.4364 0.402 0.3777 0.3737 0.3495 0.3771 0.3762 0.3183 0.2382
2845.242 0.1895 0.218 0.247 0.16001 0.09815 0.13745 0.16174 0.203 0.2562 0.2874
2864.532 0.3009 0.3704 0.4445 0.3403 0.32 0.3994 0.359 0.4308 0.4388 0.3985
2883.822 0.467 0.5838 0.5647 0.4748 0.4816 0.4431 0.5019 0.5603 0.4591 0.4011
2903.112 0.4769 0.4893 0.4406 0.5195 0.5713 0.4908 0.4682 0.4616 0.3867 0.3815
2922.401 0.5447 0.6242 0.5071 0.4506 0.5071 0.528 0.5606 0.5753 0.417 0.4486
2941.691 0.5627 0.6431 0.6191 0.5275 0.5176 0.5291 0.6016 0.5679 0.4679 0.3452
2960.981 0.3474 0.3954 0.2908 0.2685 0.3622 0.3702 0.35 0.3914 0.4369 0.4211
2980.271 0.4716 0.472 0.4533 0.5433 0.662 0.6348 0.6936 0.8356 0.9031 0.9613
2999.561 1.0491 1.1641 1.3241 1.5541 1.8441 2.2441 2.7341 3.2941 4.0441 4.9841
3018.850 5.7341 6.2341 6.8741 7.3541 7.5141 7.6741 7.5741 7.2841 6.8541 6.0841
3038.140 5.3241 4.5441 3.7541 3.2941 2.9841 2.8541 3.0341 3.2341 3.3541 3.5841
3057.430 3.7841 4.0041 4.1341 4.2141 4.3941 4.5241 4.5041 4.4341 4.3141 4.0341
3076.720 3.7741 3.5641 3.3341 2.9841 2.6241 2.2741 1.9341 1.6241 1.3541 1.2541
3096.009 1.1641 0.8883 0.7392 0.6931 0.6509 0.5778 0.5291 0.4498 0.3925 0.4902
3115.299 0.4489 0.3507 0.2752 0.3661 0.4179 0.3497 0.2669 0.2719 0.2918 0.2397
3134.589 0.279 0.2801 0.2739 0.2284 0.0727 0.09582 0.17194 0.15523 0.2065 0.2651
3153.879 0.2665 0.3016 0.4599 0.552 0.4884 0.4588 0.4915 0.5048 0.557 0.6085
3173.169 0.5027 0.5146 0.5583 0.5164 0.6392 0.725 0.7404 0.7745 0.8602 0.902
3192.458 0.8448 0.9644 1.1041 1.1141 1.2241 1.4141 1.5441 1.6041 1.7441 1.9141
3211.748 1.9541 2.0241 2.2041 2.3341 2.3541 2.2341 2.2441 2.3541 2.3641 2.2141
3231.038 2.0641 1.9141 1.7941 1.6641 1.6741 1.6741 1.4341 1.2641 1.0941 0.9577
3250.328 0.979 0.955 0.9007 0.827 0.7589 0.6966 0.6545 0.6758 0.6402 0.6179
3269.617 0.5675 0.5213 0.408 0.4284 0.5652 0.6224 0.477 0.3683 0.4526 0.4065
3288.907 0.3518 0.3818 0.2517 0.2123 0.2482 0.09477 0.16131 0.2799 0.2364 0.3208
3308.197 0.389 0.2537 0.11952 0.16415 0.2999 0.242 0.11605 0.14706 0.18117 0.2537
3327.487 0.3832 0.2788 0.1955 0.4011 0.4883 0.4068 0.379 0.3683 0.3785 0.3197
3346.777 0.3585 0.433 0.4288 0.4215 0.4563 0.5865 0.5737 0.5983 0.7142 0.7634
3366.066 0.8495 1.013 1.1441 1.1641 1.2241 1.4441 1.8341 2.1941 2.3941 2.5641
3385.356 2.9241 3.4141 3.8841 4.5241 5.2841 6.0941 6.9741 8.0341 9.1041 10.0441
3404.646 11.0141 11.8641 12.6341 13.1741 13.5941 13.9641 13.9041 13.8341 13.7041 13.0441
3423.936 12.2441 11.3341 10.3641 9.4641 8.4941 7.5441 6.6541 5.7741 4.8341 3.9841
3443.225 3.5241 3.1941 2.7641 2.4541 2.2941 2.0941 1.8941 1.9341 1.9841 2.0541
3462.515 2.2341 2.3641 2.4741 2.6741 3.0741 3.4641 3.8241 4.1341 4.6941 5.3541
3481.805 5.9541 6.6841 7.2641 7.8041 8.3541 8.9041 9.3041 9.3641 9.2141 9.3141
3501.095 9.4241 9.1441 8.7441 8.5441 8.3241 7.8741 7.3641 6.9341 6.5041 5.9441
3520.385 5.4441 5.0241 4.5441 4.0741 3.4341 2.8341 2.3541 2.1041 1.9341 1.5641
3539.674 1.2841 1.0598 0.9638 0.8572 0.735 0.5112 0.3949 0.4674 0.3344 0.2972
3558.964 0.4195 0.5123 0.4774 0.3498 0.2844 0.2944 0.3415 0.16668 0.16396 0.4155
3578.254 0.3953 0.3912 0.4322 0.2744 0.2383 0.4238 0.4234 0.3631 0.3897 0.2284
3597.544 0.12231 0.1977 0.2768 0.2866 0.3727 0.4314 0.2964 0.2126 0.2261 0.1632
3616.833 0.086908 0.18071 0.3807 0.4864 0.4706 0.4124 0.3791 0.2689 0.1576 0.2344
3636.123 0.3565 0.3746 0.2449 0.15563 0.11102 0.13058 0.24 0.2789 0.2705 0.1995
3655.413 0.14478 0.15255 0.2175 0.2024 0.17875 0.2034 0.1985 0.17933 0.0586 0.0683
3674.703 0.16933 0.2331 0.2225 0.16545 0.2287 0.3016 0.3788 0.3598 0.4099 0.4111
3693.993 0.3664 0.2241 0 0.1843 0.3328 0.3392 0.227 0.2088 0.2824 0.321
3713.282 0.3739 0.3694 0.4386 0.376 0.319 0.332 0.3472 0.3636 0.2809 0.226
3732.572 0.2125 0.3181 0.4301 0.3808 0.3581 0.3462 0.278 0.3129 0.3704 0.4162
3751.862 0.4232 0.3746 0.3982 0.3064 0.17544 0.3657 0.4613 0.435 0.5417 0.5621
3771.152 0.5362 0.3283 0.1891 0.3361 0.3573 0.224 0.3463 0.4248 0.3216 0.2565
3790.441 0.1923 0.3138 0.2764 0.15324 0.3045 0.2738 0.2421 0.4096 0.468 0.4087
3809.731 0.3879 0.3622 0.1976 0.1927 0.3628 0.5216 0.5983 0.6277 0.5889 0.5221
3829.021 0.6114 0.7788 0.8377 0.8019 0.8757 1.0841 1.1741 1.1441 1.2541 1.3841
3848.311 1.3641 1.3541 1.3641 1.3241 1.4741 1.5941 1.5441 1.4341 1.2641 1.1741
3867.601 1.0941 0.9345 0.7346 0.699 0.7812 0.7204 0.6018 0.6942 0.7979 0.6391
3886.890 0.6348 0.572 0.464 0.5927 0.5987 0.5123 0.4809 0.5346 0.516 0.4516
3906.180 0.5026 0.5385 0.5991 0.6792 0.6227 0.525 0.5401 0.7002 0.8298 0.7647
3925.470 0.6863 0.7381 0.7828 0.7 0.8326 1.1141 1.1341 1.0346 1.0296 1.0618
3944.760 1.0169 1.0207 1.0941 1.0669 0.9977 0.9251 0.8156 0.7276 0.7666 0.8747
3964.049 0.7511 0.6386 0.6568 0.7017 0.5253 0.4834 0.6756 0.6053 0.5733 0.589
3983.339 0.3667 0.2638 0.4703 0.5603 0.492 0.5972 0.7872 0.7076 0.451 0.5166
##END=
