##TITLE=11-Heneicosanol
##JCAMP-DX=4.24
##DATA TYPE=INFRARED SPECTRUM
##ORIGIN=EPA-IR VAPOR PHASE LIBRARY
##OWNER=SRD/NIST
Collection (C) 2018 copyright by the U.S. Secretary of Commerce
on behalf of the United States of America. All rights reserved.
##CAS REGISTRY NO=3381-26-8
##MOLFORM=C 21 H 44 O
##$NIST SOURCE=MSDC-IR
##STATE=gas
##XUNITS=1/CM
##YUNITS=ABSORBANCE
##XFACTOR=1.
##YFACTOR=0.001
##DELTAX=1.92898
##FIRSTX=549.8
##LASTX=4000.7
##FIRSTY=1.66
##MAXX=4000.7
##MINX=549.759
##MAXY=0.60861
##MINY=0.000341
##NPOINTS=1790
##XYDATA=(X++(Y..Y))
549.759 1.66 1.81 1.55 1.63 1.22 0.728 0.952 0.9546 0.7267 0.7913
569.049 1.33 1.32 0.8853 0.5495 0.4868 0.4334 0.9379 1.49 1.01 0.9148
588.339 0.8932 0.9857 1.13 0.9387 0.794 0.6212 0.6732 0.762 0.8329 0.8178
607.628 0.7135 0.8036 0.5772 0.4744 1 1.5 1.46 0.947 0.5529 0.6521
626.918 1.07 1 0.8769 1.21 1.07 0.7914 0.6611 0.5277 0.7448 0.817
646.208 0.8765 0.923 0.8016 1.01 1.11 0.8153 0.8217 1.14 1.05 0.8381
665.498 0.9287 1.1 1.11 1.14 1.12 1.08 1.21 1.48 1.63 1.74
684.787 1.72 1.92 2.02 2.1 2.38 2.72 3.18 3.51 3.73 3.82
704.077 4.51 5.07 5.62 6.42 7.24 7.83 8.14 8.3 8.45 8.56
723.367 8.57 8.35 7.84 7.82 7.72 7.34 7.1 6.84 6.39 6.08
742.657 6.19 6.12 5.74 5.39 5.22 5.04 4.9 5.06 4.94 4.67
761.947 4.54 4.47 4.7 4.59 4.17 4.05 4.05 3.97 3.83 3.66
781.236 3.56 3.42 3.34 3.19 3.14 3.46 3.25 3.11 3.43 3.28
800.526 3.31 3.52 3.47 3.24 3.29 3.59 3.64 3.46 3.13 3.06
819.816 3.24 3.21 3.37 3.64 3.44 3.46 3.79 3.72 3.9 4.02
839.106 3.82 3.94 4.13 4.26 4.09 3.92 4.51 4.55 4.16 4.3
858.395 4.3 4.31 4.47 4.87 4.8 4.65 4.88 5.05 4.96 5.16
877.685 5.49 5.54 5.27 5.43 5.93 5.92 5.68 5.8 6.09 6
896.975 6.01 5.88 5.84 6 6.13 6.01 5.84 5.97 6 5.97
916.265 6.01 5.86 5.68 5.96 6.49 6.72 6.55 6.35 6.54 6.83
935.555 6.93 6.98 7.16 7.39 7.75 8.25 8.68 9 9.23 9.57
954.844 10.08 10.5 10.89 11.12 11.44 11.5 11.6 12.2 12.54 12.56
974.134 12.6 12.62 12.57 12.44 12.33 12.23 12.56 13.17 13.15 13.18
993.424 13.64 14.18 14.39 14.73 15.15 15.73 16.24 16.45 17.27 17.99
1012.714 18.08 18.25 18.36 18.34 18.39 17.81 17.33 17.06 16.68 16.53
1032.003 15.83 15.31 15.66 15.59 15.26 14.9 14.55 14.36 14.38 14.61
1051.293 14.97 15.4 15.98 15.98 15.71 16.24 16.79 17.05 17.35 17.26
1070.583 17.32 17.79 17.64 17.31 16.83 16.32 15.89 16.21 16.22 15.15
1089.873 14.18 13.69 13.67 13.57 13.02 12.03 12.15 12.25 11.64 11.3
1109.163 11.66 11.91 12.06 12.53 12.38 12.74 13.41 13.2 13.16 13.23
1128.452 12.46 12.14 12.27 11.27 10.16 9.82 9.25 8.39 8.19 8.59
1147.742 8.48 8.23 8.11 8.57 8.87 8.92 9.24 9.58 9.44 9.16
1167.032 9.45 9.66 9.96 9.7 9.19 9.5 9.67 9.59 9.91 10.31
1186.322 10.6 9.83 9.63 10.78 10.82 10.67 11.59 12.31 11.24 10.06
1205.611 10.73 11.81 12.36 12.16 11.29 11.46 12.5 13.27 12.57 12.36
1224.901 13.17 13.46 12.86 13 13.5 13.62 14.45 14.42 13.98 13.99
1244.191 14.48 14.84 14.53 14.07 14.1 14.6 14.52 14.1 14.2 14.36
1263.481 14.47 14.25 13.9 13.65 13.45 13.65 13.74 13.7 13.78 13.7
1282.771 13.45 13.38 13.59 13.58 13.63 13.75 13.97 14.24 14.2 14.25
1302.060 14.47 14.63 14.69 14.56 14.34 14.14 13.93 13.71 13.5 13.44
1321.350 13.35 13.23 13.28 13.43 13.77 14.22 14.8 15.51 16.32 17.16
1340.640 18.11 19.03 19.79 20.74 21.64 22.3 22.81 23.09 23.32 23.52
1359.930 23.51 23.41 23.43 23.47 23.42 23.32 23.09 22.85 22.69 22.84
1379.219 22.98 22.96 22.73 22.12 21.05 19.78 18.63 17.44 16.41 15.56
1398.509 14.69 13.86 13.04 12.22 11.61 11.21 10.89 10.55 10.31 10.23
1417.799 10.11 10.08 10.24 10.5 10.98 11.7 12.59 13.69 15.11 16.78
1437.089 18.76 20.79 22.85 25.07 27.35 29.87 32.42 34.91 37.5 40.06
1456.378 42.52 44.37 45.38 45.36 44.06 41.91 38.92 35.28 31.27 27.21
1475.668 23.44 20.04 17.33 15.03 13.08 11.58 10.44 9.43 8.46 7.69
1494.958 7 6.39 5.97 5.66 5.36 5.01 4.66 4.41 4.09 3.9
1514.248 3.83 3.6 3.37 3.16 3.02 2.93 2.83 2.7 2.59 2.53
1533.538 2.55 2.53 2.5 2.36 2.19 2.12 2.06 2.06 1.87 1.8
1552.827 1.89 1.78 1.74 1.75 1.7 1.74 1.8 1.79 1.57 1.39
1572.117 1.56 1.56 1.37 1.32 1.38 1.4 1.35 1.38 1.2 1.12
1591.407 1.29 1.42 1.45 1.47 1.32 1.22 1.23 1.19 1.19 1.18
1610.697 1.15 1.16 1.17 1.07 0.9344 0.9234 0.9436 0.9895 1.03 1.1
1629.986 1.13 0.9803 0.9582 0.9518 0.9018 0.9141 0.942 0.9086 0.9337 0.8943
1649.276 0.7946 0.8717 0.9154 0.8672 0.8855 0.9225 0.9121 0.8513 0.8208 0.8764
1668.566 0.8293 0.7424 0.7828 0.7385 0.7035 0.7402 0.7536 0.7234 0.7095 0.6819
1687.856 0.5911 0.6524 0.7992 0.7642 0.7404 0.8513 0.8002 0.7497 0.6657 0.5314
1707.146 0.552 0.5359 0.5302 0.6671 0.655 0.6511 0.706 0.6159 0.585 0.599
1726.435 0.638 0.6442 0.565 0.4641 0.4939 0.4934 0.482 0.4678 0.4262 0.4991
1745.725 0.5423 0.5817 0.6053 0.5932 0.5658 0.5002 0.4815 0.4823 0.5004 0.5145
1765.015 0.4272 0.4336 0.5103 0.4904 0.5189 0.5595 0.5206 0.4738 0.4656 0.4819
1784.305 0.3893 0.3612 0.467 0.4888 0.4621 0.4239 0.4282 0.5286 0.5882 0.6231
1803.594 0.6131 0.5236 0.557 0.5704 0.4961 0.5664 0.6161 0.5008 0.4379 0.3708
1822.884 0.341 0.4333 0.4636 0.5502 0.5848 0.5658 0.6072 0.6047 0.5605 0.4622
1842.174 0.4256 0.5197 0.547 0.5298 0.5638 0.6084 0.593 0.5263 0.5243 0.5339
1861.464 0.5576 0.5075 0.392 0.4308 0.4804 0.5462 0.5703 0.4981 0.4948 0.5068
1880.754 0.5351 0.5504 0.534 0.5089 0.4023 0.4139 0.5499 0.5682 0.5173 0.5656
1900.043 0.6173 0.5199 0.4945 0.5113 0.5578 0.5296 0.407 0.3864 0.4148 0.415
1919.333 0.4687 0.5192 0.4907 0.561 0.5276 0.4726 0.5403 0.5172 0.5126 0.4651
1938.623 0.4349 0.5566 0.5878 0.539 0.4998 0.4662 0.4076 0.395 0.4697 0.5127
1957.913 0.4804 0.4414 0.4673 0.5752 0.6231 0.542 0.5656 0.5671 0.5673 0.5609
1977.202 0.4978 0.4849 0.521 0.532 0.4826 0.5464 0.6315 0.6108 0.5468 0.5824
1996.492 0.6181 0.5837 0.714 0.8259 0.8109 0.7278 0.735 0.8387 0.8631 0.8733
2015.782 0.8951 0.889 0.9303 1.02 1.04 1.06 1.04 1.13 1.17 1.15
2035.072 1.23 1.17 1.12 1.15 1.1 1.07 1.06 1.03 1.03 1.07
2054.362 1.15 1.06 0.9977 1.06 1.03 0.9488 0.8883 0.8865 0.9207 0.9192
2073.651 0.9552 0.9192 0.807 0.7937 0.7892 0.8862 0.9141 0.8763 0.8879 0.7545
2092.941 0.6938 0.7432 0.7656 0.7743 0.7332 0.6525 0.6459 0.7684 0.7748 0.8156
2112.231 0.8545 0.808 0.7814 0.7747 0.825 0.8286 0.7968 0.7517 0.7251 0.6844
2131.521 0.7903 0.8428 0.751 0.7039 0.786 0.9241 0.9517 0.8841 0.9146 0.9438
2150.810 0.8321 0.7826 0.878 1.02 1.07 0.9935 0.8751 0.8977 0.9816 0.9315
2170.100 0.8296 0.9083 1 0.933 0.9247 0.9358 0.9603 0.8939 0.8335 0.8537
2189.390 0.87 0.9104 0.9308 0.9565 0.9616 0.8943 0.7644 0.7703 0.8164 0.8197
2208.680 0.8698 0.8966 0.969 0.9197 0.7886 0.7509 0.8062 0.8355 0.7493 0.8171
2227.970 0.9065 0.9034 0.8657 0.8326 0.8096 0.8809 0.9487 0.9896 1.03 1.07
2247.259 1.04 0.979 1.09 1.05 0.9728 1.09 1.08 0.9818 0.9736 0.9579
2266.549 1.05 1.09 1.02 0.9487 0.9699 1.05 1.06 1.1 1.08 1.08
2285.839 1.09 1.08 1.13 1.13 1.11 1.14 1.14 1.12 1.13 1.11
2305.129 1.09 1.17 1.13 1.06 1.05 1.1 1.18 1.1 1.06 1.12
2324.418 1.18 1.23 1.22 1.19 1.12 1.08 1.2 1.21 1.14 1.15
2343.708 1.24 1.28 1.33 1.33 1.15 1.07 1.17 1.24 1.29 1.25
2362.998 1.15 1.14 1.14 1.08 0.9714 1.01 1.17 1.3 1.36 1.33
2382.288 1.28 1.26 1.24 1.21 1.16 1.2 1.28 1.28 1.29 1.34
2401.578 1.36 1.29 1.23 1.17 1.13 1.12 1.13 1.2 1.26 1.34
2420.867 1.31 1.23 1.22 1.21 1.18 1.18 1.16 1.11 1.11 1.11
2440.157 1.14 1.22 1.23 1.21 1.15 1.1 1.14 1.18 1.28 1.31
2459.447 1.22 1.15 1.13 1.23 1.25 1.22 1.28 1.28 1.18 1.19
2478.737 1.21 1.09 1.13 1.38 1.35 1.2 1.23 1.27 1.29 1.33
2498.026 1.38 1.46 1.53 1.51 1.54 1.72 1.75 1.69 1.73 1.9
2517.316 1.82 1.68 1.77 1.68 1.67 1.88 2.1 2.13 2.03 2.05
2536.606 2.05 2.04 2.09 2.24 2.31 2.28 2.24 2.24 2.29 2.26
2555.896 2.27 2.21 2.27 2.32 2.35 2.44 2.53 2.57 2.54 2.63
2575.186 2.7 2.68 2.73 2.68 2.67 2.85 2.94 2.93 3.03 3.06
2594.475 3.1 3.25 3.25 3.23 3.34 3.5 3.64 3.78 3.76 3.65
2613.765 3.71 3.78 3.9 4.08 4.06 4.12 4.23 4.33 4.48 4.53
2633.055 4.52 4.61 4.69 4.69 4.81 4.98 5.13 5.23 5.4 5.52
2652.345 5.45 5.45 5.6 5.75 5.76 5.83 6 5.91 5.98 6.24
2671.634 6.32 6.42 6.5 6.57 6.72 6.82 6.74 6.86 6.93 6.74
2690.924 6.64 6.55 6.59 6.64 6.46 6.24 6.14 6.21 6.12 5.93
2710.214 5.89 6.03 6.17 6.23 6.31 6.26 6.19 6.23 6.44 6.6
2729.504 6.64 6.79 6.84 6.92 7.17 7.24 7.35 7.4 7.48 7.74
2748.794 7.67 7.7 7.89 7.86 7.77 7.96 8.18 8.23 8.35 8.52
2768.083 8.79 9.03 9.08 9.28 9.59 9.91 10.43 10.78 11.03 11.52
2787.373 11.95 12.28 12.67 13.19 13.75 14.2 14.81 15.54 16.12 16.85
2806.663 17.56 18.32 19.28 20.18 21.23 22.43 23.73 25.07 26.49 28.11
2825.953 30 31.95 34.06 36.61 39.6 43.24 47.53 52.72 59.04 66.62
2845.242 75.87 87.23 101.06 117.75 137.77 160.31 183.5 204.56 220.23 228.28
2864.532 228.31 221.86 211.37 198.46 184.8 172.03 161.13 152.69 146.27 141.23
2883.822 136.56 132.5 129.15 126.8 126.39 127.9 131.62 137.67 146.15 156.72
2903.112 168.96 183.05 199.1 216.59 235.38 256.15 279.19 306.02 337.4 374.45
2922.401 417.62 464.83 513.2 557.4 591.23 608.61 607.41 589.24 557.28 516.55
2941.691 471.04 422.63 374.68 330.63 291.52 258.75 233.16 213.83 200.32 192.02
2960.981 187.53 184.91 182.01 177.22 169.28 157.18 141.62 124.56 107.78 93.02
2980.271 80.93 71.03 62.95 56.18 50.48 45.85 41.81 38.19 35.01 32.43
2999.561 30.12 28.04 26.1 24.31 22.99 21.94 20.73 19.47 18.54 17.64
3018.850 16.73 15.96 15.26 14.57 13.79 13.18 12.66 12.11 11.75 11.28
3038.140 10.75 10.34 9.95 9.59 9.23 9.12 9.01 8.49 8.1 7.86
3057.430 7.53 7.27 7.26 7.06 6.74 6.48 6.33 6.25 6.04 5.74
3076.720 5.46 5.38 5.39 5.24 5.16 5.24 5.26 5.07 4.99 5.01
3096.009 4.81 4.76 4.7 4.46 4.28 4.2 4.18 4.05 3.86 3.69
3115.299 3.6 3.7 3.69 3.63 3.67 3.6 3.41 3.27 3.23 3.28
3134.589 3.3 3.37 3.29 3.04 3.11 3.12 3.03 3.1 3.1 2.92
3153.879 2.7 2.66 2.71 2.74 2.86 2.84 2.55 2.53 2.62 2.68
3173.169 2.66 2.45 2.4 2.39 2.32 2.32 2.31 2.21 2.22 2.18
3192.458 2.07 2.11 2.09 2.01 2.07 1.96 1.63 1.43 1.54 1.56
3211.748 1.64 1.69 1.52 1.5 1.57 1.65 1.52 1.27 1.23 1.31
3231.038 1.45 1.46 1.2 1.15 1.27 1.12 0.9754 1 1.05 0.9944
3250.328 1.03 1.21 1.17 1.06 1.03 1.16 1.08 0.7366 0.7279 0.9417
3269.617 0.8814 0.7136 0.635 0.6252 0.7294 0.8121 0.8352 0.7597 0.6662 0.7491
3288.907 0.9516 0.7647 0.8342 1.08 0.9407 0.9118 0.8034 0.68 0.7623 0.6801
3308.197 0.7146 0.9673 0.9001 0.888 1.17 1.2 1.04 0.898 0.8699 0.8076
3327.487 0.8469 1.02 0.8796 0.829 0.8034 0.7553 0.8096 0.7355 0.8426 1.14
3346.777 1.08 0.9097 0.7613 0.8917 1.01 0.8608 1.08 1.09 1.03 1.14
3366.066 1.17 0.9616 0.7289 0.9133 1.22 1.12 0.886 0.9272 0.9521 0.9831
3385.356 1 0.7855 0.8153 1.04 1.04 1.12 1.14 1 0.9902 1.15
3404.646 1.28 1.16 0.9432 0.98 1.08 1.08 1.05 1.08 1.03 1.08
3423.936 1.15 1.11 1.03 0.9851 1.2 1.12 1.11 1.29 1.21 1.2
3443.225 1.31 1.22 0.9464 0.9046 1.02 0.9197 0.7987 0.7323 0.8959 1.08
3462.515 0.9286 0.8372 0.8803 1.1 1.11 0.9591 0.9452 0.9875 0.9686 0.8769
3481.805 0.7967 0.7953 0.8291 0.7491 0.6139 0.7064 0.9414 0.9178 0.7879 0.5557
3501.095 0.601 0.6572 0.604 0.7679 0.8029 0.7367 0.6619 0.6417 0.6568 0.6447
3520.385 0.5627 0.6066 0.6166 0.6117 0.7876 0.7401 0.6124 0.4919 0.3668 0.4827
3539.674 0.6322 0.5105 0.6662 0.8629 0.69 0.5165 0.4649 0.601 0.7352 0.6341
3558.964 0.5178 0.7822 0.8543 0.7384 0.8129 0.7782 0.8021 0.8792 0.8653 0.8052
3578.254 0.7704 0.8116 0.74 0.8941 0.986 1.01 1.12 1.16 1.11 0.9974
3597.544 1.2 1.5 1.46 1.21 1.25 1.31 1.48 1.9 2.12 2.31
3616.833 2.49 2.58 2.8 3.2 3.64 3.79 3.99 4.47 4.51 4.71
3636.123 5.03 5.37 5.91 6.39 7.21 8.19 9.4 10.52 11.2 11.18
3655.413 10.44 9.55 8.45 7.38 6.46 5.54 4.9 4.35 3.62 3.01
3674.703 2.72 2.63 2.55 2.37 2.11 1.94 1.99 1.72 1.55 1.69
3693.993 1.66 1.65 1.69 1.42 1.27 1.54 1.51 1.55 1.5 1.39
3713.282 1.45 1.42 1.36 1.14 1.13 1.32 1.36 1.25 1.26 1.49
3732.572 1.57 1.44 1.26 1.15 1.31 1.29 1.34 1.5 1.3 1.1
3751.862 1.19 1.37 1.36 1.34 1.4 1.42 1.41 1.31 1.3 1.32
3771.152 1.29 1.22 1.32 1.41 1.34 1.42 1.22 1.35 1.52 1.33
3790.441 1.28 1.24 1.39 1.38 1.43 1.49 1.4 1.38 1.44 1.47
3809.731 1.3 1.26 1.44 1.46 1.24 1.29 1.44 1.6 1.67 1.62
3829.021 1.57 1.43 1.63 1.73 1.64 1.61 1.47 1.57 1.73 1.8
3848.311 1.7 1.56 1.58 1.56 1.56 1.72 1.7 1.61 1.64 1.7
3867.601 1.66 1.54 1.48 1.61 1.65 1.34 1.3 1.61 1.64 1.6
3886.890 1.56 1.48 1.53 1.75 1.65 1.14 1.39 1.72 1.62 1.5
3906.180 1.48 1.44 1.36 1.39 1.39 1.42 1.38 1.45 1.52 1.45
3925.470 1.52 1.52 1.53 1.47 1.49 1.6 1.48 1.45 1.48 1.3
3944.760 1.2 1.53 1.67 1.65 1.6 1.69 1.8 1.61 1.59 1.32
3964.049 1.27 1.56 1.58 1.43 1.43 1.61 1.65 1.57 1.67 1.69
3983.339 1.73 1.78 1.82 1.82 1.65 1.55 1.57 1.71 2.04 1.91
##END=
