##TITLE=Isopropalin
##JCAMP-DX=4.24
##DATA TYPE=INFRARED SPECTRUM
##ORIGIN=NIST Mass Spectrometry Data Center
##OWNER=NIST Standard Reference Data Program
Collection (C) 2018 copyright by the U.S. Secretary of Commerce
on behalf of the United States of America. All rights reserved.
##CAS REGISTRY NO=33820-53-0
##MOLFORM=C 15 H 23 N 3 O 4
##$NIST SOURCE=MSDC-IR
##SPECTROMETER/DATA SYSTEM=HP-GC/MS/IRD
##STATE=gas
##XUNITS=1/CM
##YUNITS=ABSORBANCE
##XFACTOR=1.0
##YFACTOR=0.000014400
##DELTAX=4.0
##FIRSTX=550.0
##LASTX=3846.0
##FIRSTY=0.000490
##MAXX=3846
##MINX=550
##MAXY=0.144
##MINY=0
##NPOINTS=825
##XYDATA=(X++(Y..Y))
550.0 34 10 0 5 6 12 19 21 22 22
590.0 26 28 32 41 46 49 50 51 52 54
630.0 63 79 97 114 128 126 105 77 54 37
670.0 28 29 35 45 60 76 100 146 243 449
710.0 843 1320 1534 1276 816 496 346 281 254 238
750.0 219 197 180 172 179 191 201 213 227 255
790.0 303 328 289 212 135 83 60 48 39 36
830.0 36 36 42 54 67 85 108 129 144 167
870.0 210 291 427 604 698 620 471 381 364 388
910.0 429 460 446 377 301 264 265 267 237 191
950.0 150 134 145 182 231 277 308 311 279 218
990.0 156 109 83 76 75 79 91 108 125 135
1030.0 143 158 171 174 184 188 180 183 210 250
1070.0 305 370 426 475 526 583 656 755 880 964
1110.0 923 777 619 502 415 351 319 317 347 413
1150.0 491 548 578 588 578 539 472 395 329 280
1190.0 252 244 251 270 313 376 455 529 589 664
1230.0 762 856 906 917 912 924 935 911 845 756
1270.0 686 648 638 639 640 644 654 673 701 744
1310.0 819 936 1070 1199 1326 1458 1613 1855 2262 2842
1350.0 3467 3856 3766 3255 2644 2175 1849 1614 1499 1496
1390.0 1498 1371 1130 904 755 666 608 566 542 540
1430.0 567 632 729 858 1006 1151 1277 1392 1496 1591
1470.0 1641 1629 1603 1641 1733 1812 1833 1815 1805 1833
1510.0 1906 2024 2193 2447 2841 3476 4474 5928 7773 9447
1550.0 10000 8845 6583 4439 3041 2245 1795 1504 1291 1122
1590.0 984 872 784 722 687 671 652 611 542 458
1630.0 383 320 267 221 185 158 139 124 111 100
1670.0 91 83 78 73 68 66 62 61 59 54
1710.0 48 43 39 36 32 29 27 26 26 27
1750.0 27 28 33 37 43 51 62 71 80 82
1790.0 75 63 52 43 39 34 27 23 20 17
1830.0 14 14 13 12 13 12 13 11 10 10
1870.0 9 9 8 8 9 8 8 7 6 6
1910.0 5 4 3 4 4 3 4 3 4 3
1950.0 4 3 2 1 1 1 2 3 4 3
1990.0 3 5 6 6 5 4 6 7 6 5
2030.0 6 6 5 6 7 6 5 6 5 6
2070.0 5 6 5 4 4 3 3 3 2 3
2110.0 3 4 5 3 5 5 3 3 4 3
2150.0 3 4 4 2 3 3 2 4 5 6
2190.0 5 5 6 6 5 4 2 4 5 4
2230.0 6 6 7 10 11 10 11 10 11 10
2270.0 9 9 9 8 9 9 8 7 8 8
2310.0 8 9 10 11 12 13 13 15 14 15
2350.0 14 11 8 8 9 11 11 11 12 14
2390.0 16 17 20 22 22 21 20 18 17 17
2430.0 16 15 16 16 21 23 25 25 26 28
2470.0 29 29 28 25 24 23 21 20 19 18
2510.0 17 16 16 17 18 19 19 23 24 22
2550.0 23 24 25 29 32 34 36 40 43 43
2590.0 43 44 45 43 42 42 42 41 43 43
2630.0 43 42 43 43 44 46 47 48 51 55
2670.0 57 59 63 67 69 70 74 78 81 86
2710.0 93 100 107 113 121 130 140 148 153 159
2750.0 160 158 158 159 160 162 166 168 169 172
2790.0 178 185 195 207 218 233 255 280 304 335
2830.0 374 421 478 554 646 751 868 980 1081 1183
2870.0 1303 1480 1745 2028 2143 2000 1758 1597 1555 1580
2910.0 1624 1673 1718 1768 1846 1962 2134 2364 2559 2588
2950.0 2460 2363 2470 2897 3729 4802 5438 4926 3567 2316
2990.0 1591 1202 938 734 581 472 395 341 299 265
3030.0 242 223 210 199 187 178 171 161 148 137
3070.0 127 119 114 112 109 106 103 99 94 91
3110.0 89 85 81 77 74 71 67 65 63 61
3150.0 60 59 59 57 58 59 56 55 56 56
3190.0 51 49 50 48 44 41 38 38 36 30
3230.0 26 25 25 21 20 21 19 16 15 13
3270.0 12 14 12 8 8 11 11 11 8 5
3310.0 8 11 9 8 11 10 8 7 5 7
3350.0 9 7 12 13 10 10 9 7 8 9
3390.0 7 7 8 7 7 8 6 3 4 8
3430.0 8 9 9 7 6 7 6 6 6 5
3470.0 4 5 7 12 12 8 4 3 2 3
3510.0 7 6 4 4 5 7 6 6 8 6
3550.0 5 5 3 3 4 5 4 4 3 2
3590.0 3 2 4 7 12 13 7 6 6 8
3630.0 8 7 6 4 5 6 7 7 8 9
3670.0 10 11 11 9 8 9 8 6 9 8
3710.0 7 7 9 10 11 12 12 11 11 9
3750.0 15 16 14 15 15 14 13 14 16 17
3790.0 19 18 19 19 18 20 20 19 19 18
3830.0 22 22 20 23 21
##END=
