##TITLE=9-(S)-Methyl-.delta.-5(10)-octalin-1,6-dione
##JCAMP-DX=4.24
##DATA TYPE=INFRARED SPECTRUM
##ORIGIN=EPA-IR VAPOR PHASE LIBRARY
##OWNER=SRD/NIST
Collection (C) 2018 copyright by the U.S. Secretary of Commerce
on behalf of the United States of America. All rights reserved.
##CAS REGISTRY NO=33878-99-8
##MOLFORM=C 11 H 14 O 2
##$NIST SOURCE=MSDC-IR
##STATE=gas
##XUNITS=1/CM
##YUNITS=ABSORBANCE
##XFACTOR=1.
##YFACTOR=0.001
##DELTAX=1.92898
##FIRSTX=549.8
##LASTX=4000.7
##FIRSTY=14.959
##MAXX=4000.7
##MINX=549.759
##MAXY=0.377159
##MINY=0
##NPOINTS=1790
##XYDATA=(X++(Y..Y))
549.759 14.959 16.149 17.079 17.329 16.889 15.759 14.549 13.229 11.079 9.359
569.049 7.439 5.649 4.469 3.899 3.969 3.939 3.089 2.809 3.369 3.309
588.339 3.899 4.729 4.799 5.229 6.199 6.679 6.969 7.549 8.319 9.829
607.628 10.769 10.849 11.249 11.319 11.119 10.399 9.289 8.459 7.729 6.909
626.918 6.269 6.019 5.919 5.969 5.789 5.219 4.799 4.599 4.099 3.339
646.208 2.859 2.789 3.119 2.939 2.389 2.529 2.869 2.939 2.889 2.579
665.498 2.609 2.659 2.669 2.669 2.419 2.189 1.989 1.859 1.769 1.859
684.787 1.929 1.939 1.969 1.979 1.789 1.709 1.589 1.709 1.929 1.719
704.077 1.939 2.179 2.189 2.279 2.409 2.439 2.349 2.229 2.099 2.199
723.367 2.229 2.019 1.679 1.529 1.529 1.689 1.909 1.749 1.729 2.219
742.657 2.749 3.449 3.919 4.089 4.809 5.509 5.979 6.569 7.519 7.989
761.947 8.049 8.129 8.309 8.309 7.739 7.439 6.949 5.739 4.599 3.869
781.236 3.269 2.789 2.459 2.399 2.309 2.079 1.839 2.109 2.529 2.619
800.526 2.859 3.259 3.979 4.509 4.709 5.169 6.079 6.929 7.409 8.019
819.816 8.579 9.319 9.769 10.009 10.259 10.289 10.649 10.679 10.319 10.209
839.106 10.809 11.629 11.979 12.319 13.259 14.549 15.919 16.549 16.569 16.379
858.395 15.229 14.389 14.059 13.809 13.999 14.289 14.539 15.049 16.089 17.549
877.685 18.359 18.149 17.369 16.319 15.649 14.769 13.389 11.699 10.439 9.339
896.975 8.319 7.609 6.819 6.689 6.609 6.389 6.359 6.589 7.149 7.569
916.265 8.099 9.099 10.529 12.189 13.859 15.499 17.529 19.499 21.249 22.789
935.555 23.819 24.529 24.559 23.879 22.759 21.229 19.179 17.129 15.479 13.739
954.844 12.679 11.739 10.329 9.389 8.689 7.949 7.159 6.569 5.749 5.129
974.134 5.129 5.229 4.959 5.039 5.379 5.429 5.929 6.789 7.279 7.529
993.424 8.219 9.079 10.269 11.429 13.139 15.579 17.819 20.119 22.369 23.779
1012.714 25.279 26.579 26.689 26.649 26.779 25.919 24.549 23.639 21.909 19.619
1032.003 17.699 16.009 13.879 11.769 10.409 9.129 7.119 6.439 6.629 6.319
1051.293 6.809 7.559 8.659 9.449 10.749 12.589 13.659 16.079 17.909 18.799
1070.583 20.509 21.099 20.469 20.219 19.879 19.249 17.679 14.569 12.869 12.489
1089.873 11.149 10.319 9.799 9.249 9.389 9.369 9.369 9.459 9.519 9.099
1109.163 9.609 10.369 11.389 12.739 13.939 14.559 14.329 15.079 16.409 16.479
1128.452 16.509 17.949 19.089 20.329 22.029 24.239 25.919 28.059 31.679 34.159
1147.742 36.129 37.939 37.779 37.849 37.469 36.259 35.109 33.129 31.439 29.309
1167.032 28.199 29.269 30.999 32.569 33.929 33.319 33.249 34.139 33.039 31.049
1186.322 28.459 25.639 22.479 19.999 19.149 18.629 17.269 16.499 17.499 18.319
1205.611 18.919 21.079 23.439 26.599 30.699 33.539 38.289 44.709 50.849 57.309
1224.901 62.949 68.729 73.519 75.879 76.899 75.659 72.689 68.419 62.809 57.299
1244.191 51.419 45.029 40.219 37.909 36.539 36.109 36.429 37.179 37.599 36.719
1263.481 35.349 33.649 31.349 28.399 25.119 21.849 18.959 15.909 12.979 11.539
1282.771 10.939 10.009 9.319 9.239 9.479 9.939 10.599 11.479 12.549 14.289
1302.060 16.699 19.279 22.319 25.789 29.199 32.479 35.609 38.209 40.289 41.749
1321.350 42.489 42.689 42.629 42.619 42.959 43.649 44.289 44.699 44.809 44.639
1340.640 44.029 42.509 39.949 36.419 32.489 28.539 24.869 21.529 18.739 16.709
1359.930 15.279 14.649 14.809 15.359 16.339 17.559 18.819 20.079 20.659 20.349
1379.219 19.169 17.609 16.109 14.519 12.879 11.229 9.919 8.939 8.239 8.139
1398.509 8.189 8.309 8.869 9.709 10.499 11.609 13.319 15.499 18.179 21.529
1417.799 25.369 29.649 33.539 36.539 38.799 40.329 40.859 40.189 38.939 37.429
1437.089 35.739 34.669 34.359 34.689 35.269 35.859 36.369 36.769 36.869 36.619
1456.378 36.179 35.429 34.419 33.109 31.419 29.339 27.359 25.169 22.619 20.079
1475.668 17.399 14.949 13.029 11.209 9.829 8.609 7.549 6.699 6.079 5.619
1494.958 5.169 4.899 4.659 4.379 4.209 4.099 3.989 3.909 3.909 3.809
1514.248 3.709 3.699 3.629 3.629 3.709 3.699 3.809 4.019 4.129 4.289
1533.538 4.299 4.059 3.989 3.869 3.739 3.659 3.539 3.599 3.479 3.259
1552.827 3.349 3.419 3.479 3.499 3.379 3.359 3.469 3.619 3.909 4.009
1572.117 4.109 4.339 4.569 5.059 5.569 5.969 6.589 7.049 7.439 7.999
1591.407 8.699 9.519 10.279 11.209 12.109 13.279 14.849 16.269 18.219 21.119
1610.697 24.579 28.939 33.959 39.439 44.769 49.299 52.579 54.269 54.359 52.559
1629.986 49.449 44.919 39.309 33.379 28.709 25.719 24.339 23.919 23.909 24.599
1649.276 25.659 26.809 28.359 30.139 31.839 33.599 35.659 37.849 40.259 42.919
1668.566 46.069 49.549 53.719 59.289 66.689 75.479 87.429 102.759 123.709 150.379
1687.856 181.169 217.459 255.989 292.079 324.789 351.729 368.549 377.159 374.829 361.389
1707.146 338.659 310.659 282.309 259.509 243.909 235.509 233.049 234.629 238.569 242.919
1726.435 245.289 243.739 236.899 224.139 204.969 182.619 159.119 134.359 111.799 92.039
1745.725 75.969 63.299 53.429 45.899 40.369 35.929 32.239 29.259 26.749 24.539
1765.015 22.699 21.089 19.559 18.359 17.279 16.129 14.959 13.989 13.139 12.359
1784.305 11.669 10.859 10.189 9.709 9.119 8.439 8.009 7.429 6.879 6.529
1803.594 6.129 5.799 5.519 5.189 4.989 4.779 4.509 4.359 4.139 3.929
1822.884 3.819 3.719 3.759 3.769 3.699 3.559 3.369 3.229 3.259 3.319
1842.174 3.299 3.289 3.199 3.129 3.169 3.099 3.129 3.059 2.899 2.979
1861.464 2.969 2.709 2.579 2.739 2.789 2.679 2.599 2.479 2.489 2.469
1880.754 2.529 2.489 2.319 2.289 2.259 2.219 2.079 1.989 2.049 2.129
1900.043 2.169 2.039 1.889 1.929 1.929 1.879 1.839 1.739 1.539 1.509
1919.333 1.719 1.719 1.709 1.599 1.489 1.559 1.579 1.519 1.549 1.619
1938.623 1.569 1.499 1.379 1.319 1.349 1.299 1.409 1.629 1.639 1.609
1957.913 1.519 1.499 1.549 1.509 1.519 1.509 1.419 1.409 1.459 1.499
1977.202 1.519 1.339 1.249 1.319 1.249 1.259 1.319 1.259 1.2086 1.158
1996.492 1.1497 1.0565 1.0221 1.1154 1.1152 0.9967 0.9933 1.1843 1.1985 1.0269
2015.782 1.098 1.1793 1.1086 1.2081 1.1551 1.07 1.1502 1.1463 1.1275 1.121
2035.072 1.1173 1.043 0.9479 0.9766 1.1118 1.1392 1.0305 0.9429 0.8292 0.8788
2054.362 0.955 1.0378 1.1823 1.0977 1.1986 1.229 1.1984 1.329 1.349 1.419
2073.651 1.469 1.419 1.429 1.449 1.419 1.449 1.589 1.529 1.329 1.379
2092.941 1.399 1.369 1.319 1.249 1.269 1.339 1.439 1.379 1.174 1.1211
2112.231 1.1836 1.1247 1.1253 1.1681 1.239 1.279 1.229 1.269 1.239 1.239
2131.521 1.259 1.249 1.279 1.399 1.409 1.409 1.399 1.299 1.1869 1.269
2150.810 1.419 1.459 1.379 1.309 1.499 1.419 1.379 1.519 1.509 1.549
2170.100 1.509 1.489 1.589 1.789 1.809 1.699 1.689 1.539 1.489 1.509
2189.390 1.639 1.559 1.319 1.279 1.165 1.2054 1.309 1.319 1.349 1.429
2208.680 1.329 1.259 1.409 1.529 1.569 1.469 1.459 1.429 1.299 1.329
2227.970 1.329 1.239 1.1759 1.1873 1.209 1.319 1.379 1.299 1.259 1.249
2247.259 1.309 1.249 1.309 1.459 1.439 1.279 1.419 1.519 1.499 1.509
2266.549 1.349 1.299 1.1857 1.2079 1.369 1.359 1.289 1.319 1.439 1.429
2285.839 1.299 1.1375 1.0035 0.9118 1.0173 1.1666 1.091 1.1433 1.209 1.219
2305.129 1.239 1.181 1.2058 1.319 1.369 1.419 1.499 1.509 1.499 1.349
2324.418 1.2014 1.219 1.349 1.449 1.349 1.206 1.1982 1.359 1.399 1.479
2343.708 1.479 1.399 1.369 1.279 1.409 1.409 1.379 1.1805 0.9288 1.0714
2362.998 1.1572 1.279 1.409 1.399 1.289 1.2002 1.259 1.229 1.1484 1.0925
2382.288 1.1869 1.299 1.209 1.1682 1.269 1.259 1.0952 1.0618 1.1355 0.9721
2401.578 0.9296 1.0128 0.9054 1.02 1.0512 0.9783 1.0673 1.0615 1.164 1.219
2420.867 1.1111 1.0367 1.0835 1.1533 1.045 0.9565 1.0015 0.9759 1.0895 1.379
2440.157 1.349 1.1978 1.1774 1.1515 1.1622 1.259 1.319 1.269 1.309 1.309
2459.447 1.299 1.239 1.1339 1.1836 1.219 1.0534 0.8767 1.1335 1.249 1.1485
2478.737 1.0056 0.9259 1.0005 1.1126 0.9527 0.7222 0.7808 0.8045 0.8683 0.9668
2498.026 1.0898 1.1361 0.9994 0.8233 0.9355 0.8611 0.8126 0.8198 0.8341 1.0324
2517.316 0.959 0.7985 0.766 0.7145 0.7625 0.8737 0.7842 0.7245 0.9116 0.9908
2536.606 0.8389 0.8153 0.8533 0.8014 0.8118 0.867 1.036 1.1672 0.9176 1.0248
2555.896 1.459 1.529 1.279 1.269 1.259 1.1338 1.299 1.409 1.229 1.118
2575.186 1.0321 0.9763 1.1566 1.349 1.239 1.174 1.229 1.219 1.329 1.0566
2594.475 0.844 1.0857 1.0874 1.0002 1.0645 1.1591 1.1138 0.9339 1.0234 1.279
2613.765 1.2041 1.0129 0.975 1.1015 1.1705 1.0828 0.9848 1.0057 1.329 1.339
2633.055 1.239 1.399 1.389 1.319 1.369 1.179 1.219 1.479 1.319 1.319
2652.345 1.519 1.529 1.569 1.589 1.579 1.789 1.839 1.619 1.769 1.819
2671.634 1.649 1.589 1.349 1.269 1.1657 1.122 1.269 1.449 1.479 1.389
2690.924 1.419 1.419 1.269 1.229 1.319 1.219 1.0295 0.934 1.1672 1.209
2710.214 1.1118 1.229 1.0921 0.9044 0.9951 1.1864 1.1752 0.9499 1.0633 1.249
2729.504 1.1427 1.1562 1.2004 1.1855 1.379 1.509 1.489 1.509 1.599 1.679
2748.794 1.739 1.699 1.639 1.539 1.579 1.739 1.669 1.649 1.709 1.869
2768.083 2.029 1.959 1.929 2.109 2.329 2.429 2.399 2.529 2.569 2.649
2787.373 2.729 2.679 2.779 2.859 3.089 3.349 3.339 3.229 3.189 3.129
2806.663 3.309 3.739 3.789 3.719 4.129 4.189 4.139 4.679 5.129 5.539
2825.953 6.139 6.899 7.549 7.899 8.339 9.059 9.799 10.609 11.419 11.969
2845.242 12.599 13.679 14.519 15.049 15.399 15.949 16.849 17.679 18.539 19.519
2864.532 21.079 23.139 25.289 27.649 30.579 33.639 36.199 38.669 40.689 41.689
2883.822 41.879 41.339 40.629 39.999 38.989 37.919 37.049 36.349 36.019 36.279
2903.112 36.869 37.549 38.479 39.649 40.669 41.359 41.999 42.759 43.779 44.989
2922.401 46.299 47.799 49.629 52.109 54.759 57.269 60.959 65.229 69.719 74.949
2941.691 80.769 87.689 95.669 103.969 112.159 120.329 128.309 134.729 139.269 142.059
2960.981 142.289 139.889 135.969 131.139 125.459 118.729 111.619 104.299 96.389 88.749
2980.271 81.159 73.379 65.889 58.839 52.019 45.369 39.049 33.359 28.759 24.809
2999.561 21.299 18.469 15.929 13.879 12.449 11.209 10.309 9.979 9.949 9.859
3018.850 9.839 10.019 10.329 10.969 11.939 12.549 12.899 13.549 13.999 13.739
3038.140 13.209 12.909 12.129 11.039 10.129 9.179 7.909 6.779 5.839 5.099
3057.430 4.639 4.229 3.759 3.539 3.479 2.979 2.829 2.789 2.629 2.559
3076.720 2.619 2.699 2.409 2.139 2.099 2.009 1.989 2.249 2.279 1.929
3096.009 1.869 1.969 2.139 2.149 1.979 2.149 2.119 1.979 1.779 1.379
3115.299 1.143 1.339 1.759 1.909 1.579 1.599 1.959 1.699 1.299 1.249
3134.589 1.0736 1.249 1.439 1.389 1.409 1.489 1.489 1.219 1.359 1.399
3153.879 1.389 1.519 1.319 1.259 1.409 1.1476 1.07 1.1956 1.229 1.1743
3173.169 1.1667 1.289 1.499 1.539 1.179 1.1095 1.1259 1.1118 0.9007 0.9776
3192.458 1.1737 0.9131 0.7736 0.8207 0.9313 0.9617 1.0882 1.0922 0.7889 0.3544
3211.748 0.25596 0.5713 0.811 0.9537 0.8817 0.6901 0.4293 0.3549 0.6292 0.8032
3231.038 0.8725 0.9624 1.309 1.289 0.9745 0.9493 0.8762 0.8114 0.9509 0.7951
3250.328 0.5386 0.6586 0.8734 1.0218 0.9813 0.8572 0.7489 0.7678 0.6276 0.5517
3269.617 0.7932 0.9042 0.7582 0.8396 1.0147 0.5757 0.6433 1.1526 1.0206 0.8109
3288.907 0.6138 0.5229 0.4569 0.4525 0.5827 0.7924 0.7499 0.7942 1.123 1.399
3308.197 1.299 1.0152 1.0325 0.9659 0.9485 1.239 1.559 1.359 1.389 1.819
3327.487 1.549 1.769 2.129 2.109 2.049 1.759 1.689 1.579 1.799 1.939
3346.777 1.819 2.059 2.129 2.189 2.819 2.889 2.659 3.229 3.479 3.779
3366.066 3.839 3.699 4.249 4.459 4.549 4.959 5.069 4.819 5.149 5.459
3385.356 5.579 5.479 5.049 4.789 4.569 4.049 3.599 3.499 3.609 3.499
3404.646 3.089 2.829 2.709 2.999 3.199 3.159 3.179 3.119 3.179 3.329
3423.936 3.609 3.809 4.459 5.129 5.129 4.969 4.849 5.119 4.939 4.239
3443.225 3.929 3.919 3.639 3.119 3.089 2.929 2.489 2.379 2.329 2.149
3462.515 2.209 2.049 1.559 1.209 1.1212 1.309 1.479 1.459 1.409 1.289
3481.805 1.219 1.299 1.0691 0.6932 0.7018 0.9674 0.8996 0.6135 0.6 0.7922
3501.095 0.787 0.8778 0.646 0.3387 0.376 0.5055 0.7635 0.6546 0.5979 0.6049
3520.385 0.4904 0.3464 0.064 0.1798 0.3616 0.24236 0.1788 0.387 0.6694 0.6253
3539.674 0.7858 1.0066 0.7343 0.6523 0.5671 0.3284 0.4581 0.5545 0.26216 0.25843
3558.964 0.5886 0.4482 0.3968 0.6623 0.724 0.5539 0.4794 0.6022 0.4845 0.28621
3578.254 0.25121 0.3866 0.4579 0.4452 0.6529 0.8941 0.9275 0.805 0.7776 0.557
3597.544 0.3831 0.3852 0.2317 0.26359 0.3435 0.19951 0 0.2773 0.6548 0.7228
3616.833 0.8231 0.8728 0.7255 0.435 0.4092 0.374 0.3526 0.30188 0.22893 0.4415
3636.123 0.4867 0.4642 0.6291 0.8467 0.7513 0.4659 0.27585 0.082 0.1093 0.267
3655.413 0.3794 0.4381 0.22444 0.1286 0.4799 0.4764 0.5475 0.7113 0.30069 0.355
3674.703 0.7817 0.5731 0.4936 0.8767 0.7771 0.5628 0.6543 0.6529 0.5753 0.5141
3693.993 0.4037 0.4372 0.29469 0.381 0.5484 0.2918 0.4728 0.7381 0.5802 0.5045
3713.282 0.6726 0.5823 0.29283 0.1766 0.22513 0.5944 0.6983 0.5561 0.3614 0.3132
3732.572 0.4331 0.3931 0.5948 0.6223 0.27759 0.1353 0.1809 0.25061 0.6957 0.6889
3751.862 0.4073 0.335 0.217866 0.4562 0.741 0.826 0.9152 0.5093 0.081 0.4474
3771.152 0.7445 0.7698 0.9097 0.785 0.1928 0.1651 0.5902 0.434 0.6462 0.9507
3790.441 0.8974 0.6579 0.5545 0.5438 0.064 0.008 0.4872 1.0153 1.0254 0.7392
3809.731 0.4681 0.5931 1.219 1.204 0.7106 0.6101 0.5388 0.326 0.25379 0.4106
3829.021 0.6425 0.6105 0.4966 0.622 0.6172 0.30439 0.379 0.7081 0.8243 0.7008
3848.311 0.6533 0.7468 0.6527 0.6516 0.7541 0.5164 0.5205 0.6851 0.4682 0.607
3867.601 0.7414 0.6974 0.7628 0.4538 0.3656 0.7791 0.9398 1.0181 1.136 0.9747
3886.890 0.9977 0.8493 0.8302 0.915 0.7741 0.9315 0.8387 0.738 0.7523 0.3898
3906.180 0.6036 0.9214 0.8229 0.8548 0.7054 0.5545 0.6026 0.8183 0.622 0.27497
3925.470 0.4235 0.4611 0.29258 0.5134 0.8698 0.9728 0.8563 0.8352 0.7378 0.8126
3944.760 0.8292 0.5502 0.5027 0.5854 0.6314 0.6948 0.9235 1.1024 0.7998 0.7545
3964.049 1.0493 1.239 1.389 1.1699 0.9812 0.8609 0.6425 0.805 0.9955 0.9438
3983.339 1.1149 1.1477 1.0956 0.8554 0.7693 0.8044 0.6135 0.7116 0.547 0.5617
##END=
