##TITLE=2-(2-Bromoethyl)-1,3-dioxane
##JCAMP-DX=4.24
##DATA TYPE=INFRARED SPECTRUM
##ORIGIN=EPA-IR VAPOR PHASE LIBRARY
##OWNER=SRD/NIST
Collection (C) 2018 copyright by the U.S. Secretary of Commerce
on behalf of the United States of America. All rights reserved.
##CAS REGISTRY NO=33884-43-4
##MOLFORM=C 6 H 11 Br O 2
##$NIST SOURCE=MSDC-IR
##STATE=gas
##XUNITS=1/CM
##YUNITS=ABSORBANCE
##XFACTOR=1.
##YFACTOR=0.001
##DELTAX=1.92898
##FIRSTX=549.8
##LASTX=4000.7
##FIRSTY=3.114
##MAXX=4000.7
##MINX=549.759
##MAXY=0.147404
##MINY=0
##NPOINTS=1790
##XYDATA=(X++(Y..Y))
549.759 3.114 2.854 2.174 3.454 4.804 4.644 4.494 4.074 4.234 4.274
569.049 4.534 5.454 6.304 6.724 7.724 8.614 9.014 8.794 8.254 7.604
588.339 6.334 5.184 3.854 3.244 2.824 2.624 2.854 2.704 2.204 2.084
607.628 2.684 2.914 2.494 2.244 3.224 3.624 4.214 5.234 5.434 6.834
626.918 7.254 7.294 7.814 7.144 6.214 5.144 3.694 3.494 3.634 3.114
646.208 3.074 3.124 3.084 3.014 2.994 3.554 4.174 4.084 4.124 4.254
665.498 4.344 4.004 3.674 3.644 3.894 3.664 2.904 2.784 2.654 2.704
684.787 2.704 2.474 2.074 2.324 2.604 2.364 2.494 2.524 2.164 2.254
704.077 2.484 2.214 2.224 2.324 2.994 3.174 3.254 3.654 3.634 3.204
723.367 2.834 3.194 2.924 2.404 2.664 2.914 2.664 2.384 1.874 1.774
742.657 2.014 1.954 2.174 2.274 1.844 1.894 1.924 1.834 1.804 2.104
761.947 2.374 2.464 2.634 2.804 3.274 3.644 3.954 4.174 4.234 4.234
781.236 4.264 3.854 3.054 2.414 2.184 2.734 3.154 3.094 2.724 2.504
800.526 2.304 2.174 2.554 2.364 2.254 2.494 2.514 2.344 2.464 3.314
819.816 3.914 3.144 3.024 3.444 3.214 3.614 4.074 4.404 5.094 5.874
839.106 6.134 6.944 8.044 8.274 8.614 8.944 8.594 8.324 8.634 8.954
858.395 9.354 9.274 9.344 9.754 9.704 10.034 11.064 12.464 13.484 13.864
877.685 14.414 15.024 15.064 14.914 14.794 14.604 13.964 12.844 11.714 10.734
896.975 9.674 9.244 8.854 8.174 8.414 8.914 9.374 10.134 10.824 12.084
916.265 13.354 13.864 14.804 15.194 14.594 14.024 12.894 11.644 10.844 9.964
935.555 9.384 9.214 8.834 8.814 9.254 9.664 10.054 10.034 9.734 9.754
954.844 10.084 10.494 10.494 9.844 9.474 9.594 9.674 9.604 10.074 11.644
974.134 12.834 13.414 14.074 15.124 15.444 15.974 17.114 16.964 16.614 17.354
993.424 18.784 20.534 21.924 23.754 26.514 29.644 32.584 34.734 37.294 39.834
1012.714 41.714 43.334 44.524 44.004 43.164 42.554 40.844 39.474 37.484 35.124
1032.003 33.164 30.584 27.954 25.114 22.164 18.874 17.314 16.524 15.184 14.974
1051.293 14.264 12.664 11.674 11.674 11.674 12.314 12.724 12.544 12.554 13.864
1070.583 15.364 16.084 17.124 17.834 20.104 21.114 21.424 22.084 21.434 21.244
1089.873 21.574 21.304 21.824 22.194 21.374 21.834 21.744 21.134 21.604 21.634
1109.163 21.494 24.454 28.124 31.844 36.514 42.414 48.664 55.144 62.894 71.934
1128.452 81.334 88.704 95.004 102.184 110.994 119.294 126.154 133.964 142.054 146.514
1147.742 147.404 145.484 138.884 127.484 112.394 94.254 76.814 62.544 51.124 41.244
1167.032 33.024 27.364 23.354 20.164 17.474 16.064 15.624 15.674 15.054 14.284
1186.322 13.284 12.034 11.354 11.124 11.404 11.594 11.834 12.504 14.304 14.704
1205.611 14.584 14.884 14.894 15.984 16.524 16.594 17.994 18.514 19.064 20.694
1224.901 21.114 21.784 22.534 22.764 24.084 24.794 24.424 24.034 23.464 24.014
1244.191 23.884 22.674 21.864 21.314 19.594 18.504 19.524 20.554 22.034 22.984
1263.481 23.164 23.524 23.164 22.644 21.894 19.844 17.594 16.404 15.504 14.614
1282.771 13.644 12.614 11.784 10.664 9.204 7.884 7.134 6.434 5.624 5.334
1302.060 5.244 5.144 5.254 5.394 5.414 5.554 5.894 6.024 5.964 5.984
1321.350 5.984 5.774 5.504 5.404 5.324 5.214 5.094 5.084 5.434 5.724
1340.640 5.654 5.584 5.614 5.734 5.844 6.124 6.404 6.504 6.854 7.474
1359.930 8.344 9.414 11.044 13.324 16.064 19.564 24.074 28.854 32.644 35.214
1379.219 36.934 37.814 37.114 34.334 30.304 26.974 24.904 23.564 23.114 23.014
1398.509 22.864 22.734 22.374 21.504 20.274 18.764 17.194 15.804 14.724 13.924
1417.799 13.084 12.474 12.444 12.794 13.354 14.124 15.044 15.584 16.004 16.494
1437.089 16.614 16.074 14.974 13.794 12.624 11.754 10.854 9.854 8.984 8.394
1456.378 8.024 8.094 8.354 8.534 8.874 9.134 9.494 9.584 9.484 9.284
1475.668 8.874 8.474 7.984 7.034 6.274 5.754 5.124 4.524 3.944 3.534
1494.958 3.154 2.994 2.824 2.704 2.504 2.284 2.494 2.464 2.354 2.454
1514.248 2.254 2.024 1.864 1.664 1.804 1.744 1.542 1.5256 1.5988 1.6276
1533.538 1.3913 1.4079 1.445 1.4708 1.6459 1.4564 1.4203 1.4406 1.3634 1.4693
1552.827 1.684 1.6534 1.5668 1.5655 1.3863 1.3447 1.3834 1.5972 1.5479 1.1455
1572.117 0.8169 0.75884 0.8945 1.3007 1.674 1.5507 1.4349 1.5678 1.4575 1.3845
1591.407 1.4677 1.5835 1.3667 1.3117 1.5459 1.3281 1.4037 1.6722 1.6611 1.5591
1610.697 1.1717 1.0672 1.2854 1.1981 1.0689 1.0686 1.083 0.986 1.0037 1.2698
1629.986 1.4398 1.4178 1.3423 1.2851 1.2756 1.0889 0.9658 0.9266 0.8092 1.0718
1649.276 1.0939 0.7898 0.9389 1.2233 1.2111 1.2429 1.2403 1.2055 1.2634 1.3064
1668.566 1.3286 1.1603 0.9824 0.8929 0.8828 1.2365 1.478 1.2557 1.0918 1.1233
1687.856 1.2063 1.1534 1.0537 1.1036 1.0943 0.9109 0.9414 1.0853 1.0643 1.1734
1707.146 1.3099 1.1397 0.9361 1.078 1.2279 1.2827 1.1728 1.037 1.0739 1.2228
1726.435 1.184 0.8791 0.9195 1.1445 1.1854 1.2198 1.2773 1.2466 1.1927 1.2463
1745.725 1.2041 1.1047 0.9758 0.9648 1.2522 1.3682 1.3839 1.4518 1.6422 1.5811
1765.015 1.4751 1.5001 1.4111 1.3423 1.2583 1.3716 1.4147 1.3021 1.3689 1.3415
1784.305 1.3183 1.5584 1.5484 1.4431 1.5442 1.6668 1.704 1.56 1.5342 1.6692
1803.594 1.6286 1.5798 1.5533 1.5455 1.6673 1.734 1.784 1.704 1.704 1.6506
1822.884 1.52 1.5365 1.5995 1.674 1.6384 1.5346 1.4936 1.5817 1.6458 1.6326
1842.174 1.5717 1.5519 1.5361 1.6519 1.724 1.6323 1.5733 1.5595 1.4923 1.6562
1861.464 1.824 1.5364 1.4608 1.5994 1.5932 1.6485 1.6721 1.6493 1.5675 1.5821
1880.754 1.6609 1.714 1.684 1.684 1.724 1.646 1.774 1.894 1.904 1.964
1900.043 1.854 1.684 1.814 1.924 1.954 1.954 1.794 1.834 1.924 1.864
1919.333 1.944 2.084 2.064 2.034 1.924 1.794 1.834 1.934 1.924 1.994
1938.623 1.994 1.864 1.814 1.694 1.6399 1.784 1.684 1.774 1.824 1.5563
1957.913 1.6714 1.5859 1.4645 1.704 1.764 1.814 1.6549 1.4967 1.655 1.694
1977.202 1.672 1.595 1.684 1.874 1.844 1.694 1.694 1.844 1.914 1.864
1996.492 1.934 2.004 1.954 2.034 1.954 1.994 2.154 1.974 1.884 1.944
2015.782 1.944 1.874 1.844 1.744 1.6118 1.5795 1.5341 1.5146 1.6205 1.684
2035.072 1.6 1.489 1.5371 1.5136 1.1999 1.1872 1.5233 1.5265 1.4434 1.4539
2054.362 1.4444 1.3608 1.3299 1.4955 1.5892 1.6098 1.47 1.4966 1.5215 1.3633
2073.651 1.6274 1.5947 1.3565 1.3913 1.3994 1.421 1.4749 1.4776 1.3833 1.3684
2092.941 1.4084 1.3385 1.3232 1.5569 1.5592 1.5236 1.6245 1.5569 1.5085 1.3412
2112.231 1.2298 1.3649 1.4393 1.3836 1.2641 1.3056 1.3915 1.4119 1.5839 1.5619
2131.521 1.4073 1.2461 1.0516 0.9829 1.1263 1.3735 1.4064 1.3998 1.2971 1.2773
2150.810 1.2958 1.2638 1.3218 1.2239 1.1059 1.1394 1.2377 1.3242 1.2886 1.2625
2170.100 1.3787 1.3944 1.3502 1.365 1.5171 1.6569 1.5153 1.3665 1.3563 1.49
2189.390 1.4083 1.2431 1.1231 1.1384 1.3132 1.3146 1.4466 1.5205 1.3103 1.27
2208.680 1.3571 1.3581 1.3534 1.1395 0.9289 0.9913 1.0848 1.0356 1.0808 1.2038
2227.970 1.211 1.3734 1.641 1.6429 1.3254 1.2104 1.3213 1.4402 1.4516 1.3179
2247.259 1.3259 1.4704 1.3779 1.102 0.9364 0.8554 1.025 1.2936 1.3776 1.2549
2266.549 1.2863 1.2638 1.2218 1.3086 1.1677 1.1868 1.4769 1.734 1.754 1.4438
2285.839 1.1485 1.0728 1.0516 1.2232 1.3202 1.2895 1.2826 1.1893 1.1717 1.0767
2305.129 1.1297 1.2544 1.1949 1.162 1.0778 0.9953 1.0078 0.948 0.902 1.1183
2324.418 1.2337 1.2521 1.1169 1.0222 1.1706 1.1774 1.2839 1.2428 1.1746 1.2576
2343.708 1.2294 1.2663 1.2498 1.2879 1.2476 1.0234 1.0372 1.1241 0.9943 0.8976
2362.998 0.9661 1.0399 1.2315 1.2421 1.0993 1.2063 1.4094 1.3217 1.267 1.2279
2382.288 1.0517 1.0641 1.1811 1.1243 1.0227 1.0555 0.9074 0.9557 1.2287 1.3133
2401.578 1.1872 1.0563 1.3853 1.4561 1.2579 1.1585 1.1076 1.2114 1.1608 1.0784
2420.867 1.0143 0.9612 0.9021 0.9745 1.0064 0.9712 1.0732 1.0952 1.1296 1.3745
2440.157 1.3625 1.1561 1.0887 1.1617 1.0304 0.8456 1.0155 1.0084 0.8641 0.9362
2459.447 0.9927 1.0775 0.9179 0.542 0.76129 0.7926 0.68619 0.9146 0.9634 0.8823
2478.737 0.9453 1.1106 1.0134 0.9174 0.8723 0.7927 0.8486 0.9457 0.9332 0.9538
2498.026 0.994 1.0192 1.1921 1.2985 1.2348 1.0986 0.977 0.9398 0.7359 0.67273
2517.316 0.643 0.7903 1.035 1.1118 1.164 1.1039 1.1563 1.0478 0.8699 0.7843
2536.606 0.8526 1.0563 0.977 0.8279 1.0097 1.1437 1.1475 1.2311 1.2583 1.3331
2555.896 1.1912 0.8848 1.2246 1.56 1.4627 1.5014 1.398 1.2322 1.3826 1.5157
2575.186 1.5062 1.5054 1.6008 1.6452 1.5084 1.6065 1.854 1.764 1.734 1.4568
2594.475 1.1134 1.2565 1.3123 1.5544 1.4009 1.1197 1.4217 1.3141 1.0367 1.1776
2613.765 1.3996 1.3925 1.5217 1.844 1.734 1.6273 1.724 1.894 1.804 1.6415
2633.055 2.094 2.284 2.264 2.434 2.754 2.954 2.904 3.104 3.364 3.664
2652.345 3.784 3.904 3.924 3.754 3.944 4.124 4.204 4.154 4.324 4.144
2671.634 3.784 3.894 3.854 3.664 3.524 3.444 3.264 3.174 3.324 3.214
2690.924 3.134 3.464 3.724 3.754 3.884 4.174 4.254 4.264 4.344 4.334
2710.214 4.484 4.944 5.044 5.174 5.844 5.874 5.614 6.144 6.744 6.634
2729.504 6.464 6.994 7.194 6.864 6.634 6.534 6.374 6.174 5.964 5.734
2748.794 5.694 5.364 5.064 5.004 4.974 5.174 4.824 4.484 4.764 4.884
2768.083 4.884 4.744 4.694 4.784 4.524 4.454 4.584 4.724 4.784 4.644
2787.373 4.694 5.004 5.314 5.344 5.314 5.324 5.594 6.104 6.374 6.274
2806.663 6.714 6.874 6.584 6.894 7.304 7.714 8.604 9.454 10.164 10.834
2825.953 11.794 13.364 14.794 16.634 18.644 21.364 24.934 28.164 32.164 36.994
2845.242 42.494 48.404 54.234 60.154 64.854 67.384 67.634 65.714 61.734 56.484
2864.532 50.474 44.344 39.204 34.394 29.744 25.704 22.164 18.794 16.104 14.524
2883.822 13.034 11.564 10.374 9.524 9.014 8.604 8.124 7.674 7.584 7.724
2903.112 7.844 7.964 8.474 8.984 9.454 10.294 11.224 11.994 13.134 14.764
2922.401 16.824 19.704 22.604 25.614 27.904 28.594 28.344 27.584 26.934 25.594
2941.691 23.324 21.254 20.394 21.024 22.394 24.424 27.694 31.294 34.504 37.084
2960.981 39.234 41.154 42.434 43.334 43.904 45.014 47.894 52.654 57.224 60.104
2980.271 60.874 59.784 58.124 55.044 49.784 42.394 34.184 26.784 21.014 17.254
2999.561 14.074 11.104 9.084 7.354 6.184 5.354 4.564 4.484 4.444 4.074
3018.850 3.664 3.594 3.414 3.354 3.034 2.474 2.464 2.384 2.614 2.584
3038.140 2.564 2.294 1.854 2.134 2.034 1.814 1.694 1.5304 1.4917 1.4094
3057.430 1.0332 0.8916 1.1642 1.1652 0.7801 0.72281 0.8777 0.67093 0.70865 0.9704
3076.720 1.1258 1.2771 1.1059 0.9576 0.9428 0.8253 0.8476 0.8608 1.1746 1.1704
3096.009 0.8404 0.683429 0.74801 0.9152 0.7965 0.9993 1.0594 1.0809 1.2828 1.1327
3115.299 0.8637 1.2455 1.4817 1.0482 0.9928 1.0045 0.7825 1.2239 1.1881 0.69516
3134.589 0.75572 0.9802 0.379 0.049 0.537 0.8144 0.8841 0.77137 0.71866 0.8131
3153.879 0.75577 0.8036 0.9621 0.77167 0.6 0.6119 0.73966 0.68701 0.7619 0.8648
3173.169 1.2304 1.644 1.5908 1.1809 0.8293 0.471 0.6158 1.1028 1.2235 1.1126
3192.458 0.648 0.6028 1.0196 1.115 1.0057 0.8511 0.8536 0.8726 0.9883 1.0613
3211.748 0.8971 0.878 1.0917 1.4045 1.4437 1.3396 0.875 0.6378 0.9586 0.8288
3231.038 0.287 0.301 0.8451 1.0513 0.9549 1.4069 1.1271 0.454 0.6162 0.7935
3250.328 1.1952 1.1652 0.8304 1.0313 0.8793 0.517 0.9857 1.0525 0.73181 0.9503
3269.617 0.73125 0.525 0.6324 0.6179 0.67223 0.473 0.67143 1.1066 0.6135 0.448
3288.907 0.75828 1.0552 1.3309 1.1703 1.101 1.0057 0.8682 1.0009 1.2386 1.0439
3308.197 1.1194 1.0735 0.67141 0.6984 0.6117 0.563 0.5944 0.8076 0.8865 0.9224
3327.487 0.72551 0.8132 0.557 0.164 0.72838 1.0688 1.0041 0.8651 0.69727 0.5972
3346.777 0.376 0.109 0.6244 0.8501 0.6352 0.5 0.469 0.538 0.537 0.316
3366.066 0.415 0.427 0.21 0.5947 0.69325 0.8187 0.76367 0.71888 0.7752 0.574
3385.356 0.486 0.44 0.73282 0.6176 0.379 0.413 0.062 0.176 0.73777 0.5982
3404.646 0.74473 0.9388 0.536 0.442 0.6221 0.9118 0.73139 0.8003 0.74508 0.378
3423.936 0.225 0.185 0.7597 0.9825 0.92 0.677784 0.6551 1.2737 1.1228 0.7959
3443.225 0.5754 0.54 0.491 0.47 0.8418 0.7936 1.047 1.4094 0.8469 0.494
3462.515 0.6299 0.8387 1.2011 1.1058 1.0649 0.6579 0.443 0.6434 0.8761 1.1167
3481.805 0.512 0.298 0.70841 0.8575 0.8739 0.9211 0.6627 0.472 0.8909 1.0854
3501.095 1.2205 1.1152 0.66975 0.435 0.491 0.72135 0.77069 0.53 0.504 0.8241
3520.385 1.1423 1.2093 1.271 1.0418 1.1309 1.3786 1.1242 1.0887 1.1395 1.0329
3539.674 0.7142 0.464 0.381 0.211 0.284 0.402 0.002 0.244 0.484 0.524
3558.964 0.6529 0.74713 0.9552 0.8274 0.464 0.37 0.71111 0.7918 0.792 0.9965
3578.254 0.69059 0.75006 1.1006 0.9188 0.435 0.465 1.2841 1.6551 1.214 0.74491
3597.544 0.527 0.389 0.505 0.6638 0.7798 1.0305 0.928 0.75823 1.1602 0.8223
3616.833 0.436 0.66 0.70792 0.77254 0.72062 0.6562 1.0912 1.0751 0.74762 0.8565
3636.123 0.9301 0.489 0.5797 0.9855 0.74152 0.69116 0.7858 0.76988 0.9265 1.0725
3655.413 0.8099 0.5843 0.7889 0.942 0.8198 0.6467 0.66977 0.486 0.204 0.533
3674.703 0.71347 0.5826 0.8916 1.143 1.0192 0.7803 0.9707 0.8893 0.564 0.8714
3693.993 0.71986 0.438 0.512 0.7779 0.869 0.9263 1.1229 0.927 0.75908 0.9466
3713.282 0.9883 0.70646 0.909 1.4252 1.1206 0.6581 0.6297 1.1821 1.3965 1.1848
3732.572 0.72497 0.316 0.8264 1.091 0.9372 0.8198 0.8898 0.7863 0.8701 1.0366
3751.862 0.8422 1.0487 0.8651 0.389 0.9275 0.9237 0.46 0.48 0.6117 0.73008
3771.152 0.7541 0.384 0.31 0.70174 0.38 0.198 0.41 0.6134 0.69377 0.243
3790.441 0.524 1.218 0.67181 0.296 0.393 0.8184 1.1131 0.73914 0.506 0.6391
3809.731 1.1088 1.3225 1.1108 0.9375 0.6574 0.532 0.6481 0.9199 1.0151 0.6026
3829.021 0.526 1.0111 1.0658 0.458 0.154 0.104 0 0.243 0.8782 0.76613
3848.311 0.312 0.463 0.7769 0.843 0.8602 0.62 0.8843 1.4478 1.1743 0.8624
3867.601 0.407 0.68583 0.8794 0.8839 1.6346 1.3032 0.519 0.69653 0.8182 0.7747
3886.890 0.9828 0.6403 0.238 0.441 0.8406 0.973 1.3753 1.2289 0.6925 0.8611
3906.180 1.0493 1.0355 0.8775 1.0111 1.3238 1.2949 1.0339 0.67199 0.8053 0.6638
3925.470 0.296 0.8907 0.9667 1.1629 1.304 1.0612 1.1621 1.1829 0.8983 0.71872
3944.760 1.0835 1.1667 0.6595 0.338 0.8519 1.1803 0.919 0.8236 0.69273 0.73319
3964.049 0.8783 0.76809 0.76061 1.0364 0.98 0.75206 0.8064 0.9018 0.9784 0.8148
3983.339 0.8584 0.9987 0.9893 1.2071 0.9806 0.6221 0.389 0.487 0.70603 0.8227
##END=
