##TITLE=2-Thenoylacetonitrile
##JCAMP-DX=4.24
##DATA TYPE=INFRARED SPECTRUM
##ORIGIN=EPA-IR VAPOR PHASE LIBRARY
##OWNER=SRD/NIST
Collection (C) 2018 copyright by the U.S. Secretary of Commerce
on behalf of the United States of America. All rights reserved.
##CAS REGISTRY NO=33898-90-7
##MOLFORM=C 7 H 5 N O S
##$NIST SOURCE=MSDC-IR
##STATE=gas
##XUNITS=1/CM
##YUNITS=ABSORBANCE
##XFACTOR=1.
##YFACTOR=0.001
##DELTAX=1.92898
##FIRSTX=549.8
##LASTX=4000.7
##FIRSTY=3.843
##MAXX=4000.7
##MINX=549.759
##MAXY=0.051063
##MINY=0
##NPOINTS=1790
##XYDATA=(X++(Y..Y))
549.759 3.843 3.703 3.133 3.913 5.533 5.583 6.293 6.273 5.173 5.843
569.049 6.613 6.043 5.373 5.713 6.033 6.073 6.453 6.213 5.573 5.473
588.339 4.993 4.473 4.043 3.663 3.303 2.963 3.053 2.993 2.503 2.203
607.628 2.263 2.243 2.223 2.553 2.243 1.6894 1.803 2.423 2.503 2.113
626.918 2.053 2.333 2.663 3.193 3.223 2.503 2.483 2.543 2.273 2.313
646.208 2.313 2.163 2.443 2.863 3.183 3.253 2.703 2.783 3.293 2.953
665.498 2.863 2.943 3.333 3.563 3.323 3.113 2.943 3.533 4.043 4.143
684.787 4.303 4.543 4.883 4.883 4.983 5.763 6.393 7.463 8.953 10.213
704.077 12.153 14.103 15.893 18.243 20.493 23.233 26.093 28.233 30.053 27.343
723.367 22.173 19.603 18.213 16.513 14.323 12.303 10.293 8.253 6.653 5.533
742.657 5.023 5.283 5.933 5.933 5.533 5.523 5.983 6.663 6.793 7.113
761.947 7.083 6.423 6.143 5.823 5.183 4.913 4.863 4.173 3.683 3.293
781.236 2.653 2.343 1.963 2.403 2.793 2.433 2.353 2.123 2.023 2.053
800.526 1.813 1.5923 2.183 2.533 1.873 1.5317 1.6507 1.773 2.293 2.543
819.816 2.303 2.253 2.213 2.313 2.673 3.133 3.443 3.763 4.113 4.593
839.106 4.823 5.103 5.453 6.063 6.783 7.123 7.583 7.823 7.773 7.733
858.395 7.703 7.513 7.173 6.943 6.663 5.423 4.493 3.723 2.823 2.673
877.685 3.063 2.773 2.223 2.603 2.573 2.613 3.003 3.133 3.453 3.513
896.975 3.543 3.633 3.353 3.693 3.803 3.143 3.353 3.603 3.523 3.753
916.265 4.063 4.153 4.053 3.743 3.463 3.293 3.133 3.353 3.163 2.413
935.555 2.133 2.103 2.073 1.893 1.853 2.033 1.903 1.873 1.793 1.963
954.844 2.433 2.843 2.853 2.583 2.773 3.353 3.553 3.543 3.933 4.313
974.134 4.463 4.433 4.913 4.913 4.363 4.543 4.083 3.453 2.823 2.453
993.424 2.593 1.953 2.193 2.643 2.213 2.403 2.843 2.653 2.103 2.003
1012.714 2.203 1.6158 1.4136 2.193 2.343 2.013 2.213 1.773 1.5939 2.343
1032.003 2.943 3.283 3.003 4.303 5.163 4.993 5.313 5.883 6.443 6.783
1051.293 5.963 5.843 6.723 6.593 6.593 7.583 8.313 7.863 7.493 6.803
1070.583 6.373 5.633 4.663 3.483 2.853 3.813 3.163 1.963 2.173 3.443
1089.873 4.153 3.163 2.953 2.723 1.4953 1.0085 1.5088 2.923 3.833 4.573
1109.163 4.093 1.7113 1.4633 1.4808 2.423 2.953 2.043 2.273 2.233 2.493
1128.452 2.683 2.653 1.993 1.773 2.193 1.5825 2.083 3.063 3.813 4.233
1147.742 4.213 5.403 5.673 5.033 6.213 6.693 6.193 5.903 5.623 6.483
1167.032 7.483 7.823 7.633 8.123 7.523 7.303 8.763 9.303 8.813 8.043
1186.322 7.673 7.483 8.373 8.993 8.733 7.173 6.703 7.263 7.553 8.043
1205.611 8.363 9.483 9.523 9.383 9.623 11.663 12.393 11.123 10.763 11.783
1224.901 11.583 10.743 11.633 12.023 12.343 12.793 14.463 15.373 16.223 17.853
1244.191 18.303 18.683 19.573 20.143 21.223 22.093 23.053 24.603 25.383 25.563
1263.481 26.183 25.623 24.203 23.303 22.343 21.203 19.283 17.363 15.833 14.193
1282.771 12.323 10.773 9.553 8.573 7.893 7.163 6.163 6.023 6.083 5.933
1302.060 5.933 5.833 5.733 5.693 5.853 6.063 6.173 6.243 6.293 6.133
1321.350 5.903 5.533 5.283 5.243 4.843 4.353 4.183 4.163 4.263 4.713
1340.640 5.283 6.093 7.363 9.083 10.923 12.513 13.893 14.523 14.643 14.613
1359.930 14.093 13.143 11.933 10.333 8.383 6.533 5.123 4.283 3.913 3.873
1379.219 3.933 4.063 4.293 4.643 4.973 5.353 6.113 7.073 8.143 9.583
1398.509 11.333 13.673 16.733 20.163 23.963 27.163 29.183 30.573 31.253 30.863
1417.799 29.593 27.803 25.343 21.633 16.983 12.913 10.073 8.263 6.903 6.183
1437.089 5.703 5.143 4.533 3.923 3.483 3.143 2.853 2.583 2.363 2.243
1456.378 2.243 2.053 2.053 1.913 1.6097 1.5018 1.5699 1.853 1.923 1.803
1475.668 1.7453 1.783 1.823 1.993 2.103 2.203 2.203 2.303 2.643 3.003
1494.958 3.523 4.113 4.973 5.983 6.903 7.913 9.023 9.943 10.573 10.913
1514.248 11.123 10.793 10.193 9.493 8.503 7.833 6.733 5.543 4.703 3.893
1533.538 3.473 3.093 2.843 2.603 2.633 2.773 2.733 2.853 2.793 2.793
1552.827 2.763 2.833 3.133 3.053 2.933 2.933 2.743 2.183 1.983 2.113
1572.117 2.033 1.943 1.923 1.893 1.7484 1.873 2.063 2.183 2.073 1.675
1591.407 1.5635 1.853 1.913 1.843 1.803 1.883 2.063 2.023 2.263 2.553
1610.697 2.743 2.773 2.583 2.653 3.033 3.203 2.843 2.533 2.763 3.063
1629.986 3.203 3.133 3.073 3.143 3.043 3.223 3.723 3.913 3.883 3.753
1649.276 4.093 4.733 5.063 5.323 5.733 6.183 6.763 7.313 7.973 8.773
1668.566 9.523 10.643 12.243 14.123 16.323 18.983 21.983 25.523 29.783 33.913
1687.856 38.093 41.973 45.183 47.533 49.123 50.373 51.063 50.613 48.813 46.093
1707.146 42.303 37.883 33.563 29.243 25.073 21.393 18.073 15.463 13.033 10.763
1726.435 9.213 8.113 7.223 6.543 5.753 5.353 5.073 4.743 4.623 4.403
1745.725 4.163 4.043 3.913 3.643 3.363 3.293 3.283 2.963 2.683 2.653
1765.015 2.603 2.503 2.323 2.403 2.433 2.243 2.173 2.123 2.093 1.973
1784.305 1.7448 1.783 1.933 2.003 2.013 1.973 1.993 1.983 2.063 2.043
1803.594 2.173 2.273 2.173 2.213 2.233 2.273 2.343 2.253 2.243 2.283
1822.884 2.123 2.183 2.393 2.353 2.093 2.053 2.083 1.843 1.793 1.883
1842.174 1.913 1.923 1.883 1.7316 1.7181 1.853 1.843 1.6935 1.4864 1.4277
1861.464 1.5661 1.5529 1.587 1.6591 1.5273 1.4874 1.5031 1.4232 1.2972 1.4102
1880.754 1.4394 1.3842 1.5775 1.7115 1.6483 1.4628 1.4466 1.4552 1.4622 1.4294
1900.043 1.3049 1.3264 1.4064 1.3893 1.2018 1.0046 1.0584 1.1498 1.2174 1.3276
1919.333 1.297 1.2416 1.2408 1.2874 1.0821 0.958 1.2691 1.3418 1.3283 1.2215
1938.623 1.1246 1.2662 1.4181 1.4421 1.2962 1.2163 1.1395 1.1878 1.4251 1.4077
1957.913 1.1991 1.1953 1.3196 1.2483 1.3025 1.3904 1.3227 1.3369 1.3287 1.485
1977.202 1.3663 1.2093 1.2938 1.2614 1.3797 1.1776 0.9925 1.0554 1.0824 1.2418
1996.492 1.2752 1.2691 1.2974 1.1471 1.0523 1.1195 0.9829 1.0016 1.1634 1.1875
2015.782 1.1149 1.1205 1.1754 1.1532 1.1978 1.1835 1.2821 1.2226 0.9375 0.9991
2035.072 1.0537 1.0387 1.1605 1.0377 0.8799 1.0313 1.1706 1.0923 0.9531 1.1862
2054.362 1.2472 1.0529 1.2506 1.2463 1.0254 1.0681 1.1136 1.0779 1.0505 1.0344
2073.651 1.1365 1.1377 1.0759 1.1338 1.1933 1.2001 1.2263 1.1405 1.0648 0.9123
2092.941 0.8969 0.9762 0.9307 0.9778 1.1159 1.4531 1.3224 1.207 1.2188 1.08
2112.231 1.1527 1.0027 1.0102 1.1362 0.9836 1.0169 0.9945 0.9503 1.0156 1.1201
2131.521 1.2023 1.0603 0.9553 1.0736 1.1696 1.2088 1.1275 1.0558 0.9157 0.8559
2150.810 1.1583 1.2324 1.2558 1.2614 1.1188 1.1228 1.1689 1.0452 1.0224 1.075
2170.100 1.1253 0.9586 0.8898 1.0568 1.1885 1.2636 1.307 1.3435 1.2772 1.3433
2189.390 1.1815 0.9893 1.0604 1.1691 1.1164 1.0947 1.2502 1.2801 1.2275 1.1744
2208.680 1.093 1.1854 1.1743 1.0924 1.1621 1.1494 1.2927 1.2312 0.9205 1.1113
2227.970 1.1968 1.0572 1.0731 0.9417 1.1381 1.2968 1.3475 1.3629 1.3845 1.3759
2247.259 1.2826 1.3166 1.3303 1.5086 1.813 1.813 1.5876 1.5497 1.6191 1.566
2266.549 1.427 1.369 1.4296 1.3544 1.2735 1.2861 1.2024 0.9633 1.0134 1.1911
2285.839 1.108 1.0955 1.0425 1.0031 1.0586 1.1554 1.0521 1.0496 1.0969 1.1304
2305.129 1.1615 1.1398 1.2809 1.1659 1.0652 1.0114 0.9292 0.9097 0.9847 1.155
2324.418 1.2479 1.4548 1.2721 1.0307 1.2169 1.2023 1.0727 1.0505 1.3456 1.5114
2343.708 1.1758 1.0999 1.294 1.196 1.0705 1.1152 1.077 1.1686 1.4172 1.3353
2362.998 1.1472 1.2139 1.339 1.2408 1.1788 0.9166 0.77315 0.9717 1.0569 1.1421
2382.288 1.0713 1.2015 1.2966 1.1273 1.1128 1.2092 0.9703 0.7085 0.82698 0.9494
2401.578 0.9241 1.1502 1.244 1.1176 1.225 1.038 0.9594 1.1322 1.1792 1.0522
2420.867 1.1048 1.3276 1.0945 1.2046 1.3836 1.2803 1.1718 1.0145 0.9429 0.957
2440.157 1.2351 1.2243 1.2365 1.0655 0.79704 0.75862 0.6884 0.9271 1.1143 1.1877
2459.447 1.3334 1.2448 1.0576 1.244 1.3235 1.3362 1.4226 1.2998 1.2694 1.2085
2478.737 1.1562 1.3148 1.1492 1.0914 1.1593 1.1173 1.2889 1.4439 1.4551 1.2661
2498.026 1.1967 1.2061 1.2158 1.1748 1.0463 0.8685 0.9968 1.2364 1.091 1.0266
2517.316 1.1357 1.314 1.2468 1.0358 1.2448 1.3638 1.0477 0.80848 0.80148 0.9681
2536.606 0.9804 0.8433 0.8703 0.9936 0.9477 0.8746 0.9164 1.0966 1.3277 1.2645
2555.896 0.9744 0.85729 0.8784 0.9017 0.9577 0.9647 0.928 1.1086 1.2819 1.1829
2575.186 1.1229 0.9164 0.79881 0.9967 1.2316 1.0971 0.9116 1.0988 1.0867 0.9923
2594.475 1.1012 0.9175 0.82311 0.9752 1.1857 1.0461 0.8847 0.9537 1.14 1.1335
2613.765 0.79003 0.77536 0.9292 1.1032 1.1159 1.2375 1.1477 0.9326 1.0606 1.2057
2633.055 1.19 1.0984 1.2435 1.1015 0.9 1.2389 1.2419 1.0742 1.1457 1.0408
2652.345 1.075 1.2744 1.16 1.1313 1.2137 1.2847 1.4141 1.1872 1.0522 1.3498
2671.634 1.593 1.4164 1.0425 0.9559 1.1138 1.1674 0.9941 0.9783 1.1031 1.3199
2690.924 1.2403 1.0335 0.9493 1.202 1.4825 1.3406 1.1674 0.7079 0.539 0.7361
2710.214 1.0929 1.0924 0.86113 0.6634 0.75326 1.2313 1.129 0.9387 0.9807 1.2521
2729.504 1.3661 1.1263 1.0803 0.9881 0.872 0.8975 1.1064 1.1567 0.9268 0.8751
2748.794 0.9247 1.1093 1.3597 1.3885 1.4172 1.2309 1.0493 0.82123 1.1493 1.5975
2768.083 1.1782 1.1029 1.1314 0.9009 0.766524 0.9894 1.3872 1.6992 1.6183 1.465
2787.373 1.3275 1.0868 1.3983 1.521 1.287 1.0574 0.892 0.929 1.1523 1.3181
2806.663 1.1025 0.8917 1.1864 1.1167 1.0465 1.0794 0.83611 0.757 0.681 1.0436
2825.953 1.3063 1.4001 1.1433 0.6683 0.8976 1.2102 1.3332 1.2146 1.0114 0.7084
2845.242 0.433 0.75505 0.9976 0.9203 0.8378 1.0609 1.1343 0.8757 0.748 0.9946
2864.532 1.2867 1.2388 1.4368 1.1231 0.80821 0.9034 1.161 1.3385 1.0208 1.0344
2883.822 1.0989 1.1253 1.0926 1.101 0.84486 1.0147 1.1622 0.85021 0.79017 0.9499
2903.112 1.3163 1.3779 1.2426 1.2771 1.2232 0.8879 0.8857 1.005 1.3297 1.2854
2922.401 0.9025 1.0383 1.468 1.7559 1.653 1.5844 1.6242 1.6799 1.893 1.803
2941.691 1.2372 1.1529 1.6632 1.7085 1.415 1.3247 0.9279 0.79108 0.8797 0.9766
2960.981 1.1216 1.1252 1.0038 1.0114 1.092 1.1331 1.083 0.6723 0.539 0.6994
2980.271 1.0743 1.2473 1.0827 0.9589 0.9959 1.0358 1.1959 1.353 1.4297 1.5308
2999.561 1.4262 1.0735 1.0174 0.9958 0.9127 0.9774 0.8797 0.634 0.887 0.9243
3018.850 0.7382 0.7097 0.764829 1.1386 1.07 1.2793 1.4431 1.2398 1.2739 1.481
3038.140 1.4733 1.4264 1.298 0.9343 0.7407 0.77816 0.9979 1.0801 0.7459 0.934
3057.430 1.2128 1.3783 1.3775 0.8821 1.0809 1.2125 1.2303 1.1718 1.0109 1.4555
3076.720 1.863 1.6513 1.5663 1.873 1.7495 1.913 2.413 2.753 2.573 2.403
3096.009 2.453 2.153 2.053 2.093 1.993 1.803 1.546 1.4827 1.471 1.3583
3115.299 1.3298 1.2956 1.4458 1.2082 0.7438 1.1324 1.1199 0.82532 1.2229 1.508
3134.589 1.6103 1.0284 0.95 1.5994 1.7384 1.3714 1.2306 1.0129 0.51 0.533
3153.879 1.0732 1.4071 1.0614 0.9026 1.1573 0.80528 0.647 0.9503 1.1275 1.0896
3173.169 0.6673 0.651 0.7033 1 0.769423 0.127 0.75394 1.0964 0.9275 0.8689
3192.458 0.9381 1.0491 0.82752 1.0655 1.1764 0.9921 0.85849 1.163 1.411 1.2517
3211.748 1.5115 1.5308 1.2822 1.1477 0.9476 0.9195 0.646 0.436 0.613 0.9426
3231.038 0.8991 0.533 0.80957 0.85417 0.9113 1.2148 1.0922 0.9033 1.0655 1.5585
3250.328 1.5611 1.933 1.7219 0.9788 0.895 0.8031 0.7234 1.1025 0.926 0.6913
3269.617 1.2706 1.3773 1.1823 0.84295 0.77778 1.1841 1.2803 1.1093 1.1029 1.4992
3288.907 1.3621 0.82344 1.2531 1.2255 0.83692 0.563 0.77456 1.2128 1.389 1.4071
3308.197 0.9587 1.0481 1.2698 1.0007 1.2065 1.3201 1.0574 1.0558 0.7135 0.648
3327.487 0.80417 0.79971 0.80973 0.83944 1.0753 1.0768 1.4234 1.5929 1.2859 1.267
3346.777 1.21 1.328 1.5384 1.3402 0.654 0.8793 1.5602 1.6695 1.5585 1.6701
3366.066 1.763 1.6772 1.5101 1.3583 1.7169 1.6812 1.5278 1.5246 1.833 2.103
3385.356 1.5947 1.6438 1.4601 1.33 1.6367 1.2235 0.9852 1.0966 1.2411 1.0409
3404.646 1.4203 1.6323 1.1285 1.3731 1.198 0.9291 1.165 1.4733 1.893 1.603
3423.936 1.1862 1.327 1.2352 0.85664 0.699 0.9338 1.1349 1.1317 1.0904 0.78436
3443.225 0.559 0.9135 1.2027 0.79841 0.527 0.85997 0.9193 0.728 1.1625 1.5099
3462.515 1.2222 0.85879 0.404 0.362 0.625 0.6918 0.6974 0.85926 1.6278 1.5495
3481.805 0.772764 0.9642 0.81126 0.395 0.7466 1.3746 1.5751 1.7004 1.7616 1.2999
3501.095 0.85026 1.0526 1.4003 1.2562 1.4281 1.793 1.4276 1.5498 1.973 1.4312
3520.385 1.1098 1.0478 1.2753 1.6363 1.617 1.0074 0.486 0.603 0.707 0.7442
3539.674 1.0442 1.1829 0.84062 0.7093 1.2172 1.5375 1.2405 0.8847 0.7009 0.8424
3558.964 1.0606 1.2346 1.2956 1.1697 0.7364 0.7159 1.027 0.6973 0.639 0.7514
3578.254 0.8816 0.9839 0.8653 1.1367 1.538 1.532 1.0989 0.631 0.7146 0.9397
3597.544 0.85192 1.0174 1.3194 1.1232 0.9759 0.75364 0.386 0.7335 0.7268 0.9168
3616.833 1.5628 0.8715 0.533 1.4546 1.4063 1.0766 1.3939 1.5305 1.51 1.3203
3636.123 0.8781 0.7485 0.6817 0.295 0.04 0.625 0.9784 0.9026 1.1448 1.3104
3655.413 0.966 0.9227 1.3905 1.0034 0.365 0.414 0.592 0.9201 1.2814 0.8266
3674.703 0.6729 0.8864 1.4126 1.4178 0.78366 0.7186 0.77789 0.426 0.478 0.9898
3693.993 0.82302 0.559 0.9433 1.1533 1.165 0.6956 0.126 0.499 0.9688 0.6976
3713.282 0.378 0.184 0 0.82313 0.78951 1.0608 1.7113 1.377 1.3937 1.4369
3732.572 1.2822 1.2822 1.3263 0.9356 0.278 0.209 0.645 0.6853 0.9326 1.12
3751.862 0.9298 0.82935 0.557 0.762261 0.9502 0.81511 0.514 0.234 0.7048 1.0006
3771.152 0.554 0.407 1.2594 1.1005 0.7488 1.5186 1.3702 0.9399 0.9963 0.79309
3790.441 0.6 0.77389 0.8982 0.85526 0.8785 0.767673 1.0027 1.1016 0.7421 0.582
3809.731 0.9828 1.1094 0.86285 0.9996 0.9137 0.588 0.404 0.77565 0.887 0.562
3829.021 0.7979 0.9827 0.9589 0.8655 0.9079 1.2494 1.5046 1.7088 1.674 1.4381
3848.311 1.0622 0.7337 0.82981 1.118 0.8907 0.345 0.4 0.48 0.597 1.3305
3867.601 1.2885 0.75516 0.9649 1.2067 1.0006 0.657 0.957 1.502 1.3814 1.3525
3886.890 1.5844 1.6943 1.4353 1.2907 1.436 1.5455 1.2827 0.9766 0.619 0.625
3906.180 0.77971 0.80589 1.3027 1.1058 0.85065 1.288 1.3713 1.4348 1.773 1.4863
3925.470 1.1243 1.454 1.3505 0.85547 1.0335 1.3265 1.3942 1.3707 0.9901 0.509
3944.760 0.579 1.025 0.9929 0.471 0.262 0.11 0.524 0.7106 1.1547 2.213
3964.049 1.963 1.1471 0.9017 0.635 0.565 0.565 0.7275 1.271 0.83527 0.9131
3983.339 1.388 1.2132 0.7119 0.78788 1.5925 1.401 1.0465 0.82125 0.417 0.203
##END=
