##TITLE=4-Trifluoromethylbenzhydrazide
##JCAMP-DX=4.24
##DATA TYPE=INFRARED SPECTRUM
##ORIGIN=EPA-IR VAPOR PHASE LIBRARY
##OWNER=SRD/NIST
Collection (C) 2018 copyright by the U.S. Secretary of Commerce
on behalf of the United States of America. All rights reserved.
##CAS REGISTRY NO=339-59-3
##MOLFORM=C 8 H 7 F 3 N 2 O
##$NIST SOURCE=MSDC-IR
##STATE=gas
##XUNITS=1/CM
##YUNITS=ABSORBANCE
##XFACTOR=1.
##YFACTOR=0.001
##DELTAX=1.92898
##FIRSTX=549.8
##LASTX=4000.7
##FIRSTY=4.685
##MAXX=4000.7
##MINX=549.759
##MAXY=0.256895
##MINY=0
##NPOINTS=1790
##XYDATA=(X++(Y..Y))
549.759 4.685 4.795 4.325 4.015 4.275 4.865 5.025 5.215 5.675 5.635
569.049 5.395 4.865 5.135 5.095 4.805 5.005 4.745 5.105 5.225 5.595
588.339 6.425 6.385 6.365 6.795 6.615 6.395 7.035 7.355 7.255 7.365
607.628 7.135 6.915 6.915 6.105 5.315 5.405 5.465 4.915 4.695 5.095
626.918 5.175 5.095 4.875 4.705 4.925 4.655 4.275 3.825 3.575 4.265
646.208 4.515 4.385 4.345 4.075 3.995 4.025 4.125 4.285 4.225 4.045
665.498 3.855 3.805 3.945 3.885 4.335 4.595 4.625 5.215 6.095 7.285
684.787 8.285 9.435 10.385 10.565 10.435 10.385 10.075 9.295 8.665 8.635
704.077 8.735 8.735 8.495 8.435 8.145 7.685 7.405 7.035 6.585 5.735
723.367 5.355 4.845 4.715 4.615 4.345 4.295 4.245 4.115 3.895 3.965
742.657 3.965 3.755 3.685 3.895 3.915 4.185 4.825 5.275 5.505 5.985
761.947 6.705 7.465 8.255 8.765 9.645 10.525 10.185 9.805 9.765 8.875
781.236 7.875 7.145 6.355 6.195 5.805 5.475 5.295 5.065 5.215 5.115
800.526 5.195 5.345 5.265 5.075 5.405 5.885 6.005 6.165 6.445 6.935
819.816 7.305 7.655 8.085 8.435 9.085 9.485 9.825 10.505 10.905 11.985
839.106 13.035 14.115 15.135 16.155 17.395 18.395 19.125 19.805 20.365 20.165
858.395 19.425 18.045 16.845 15.515 14.025 12.435 10.485 9.525 8.595 7.275
877.685 6.815 6.705 6.165 5.715 5.905 6.135 6.165 6.465 6.985 7.255
896.975 7.825 8.585 9.395 10.185 10.965 12.135 13.455 14.945 16.535 18.125
916.265 20.195 22.775 25.395 28.435 31.575 34.275 36.415 38.235 39.475 39.395
935.555 38.395 36.405 33.325 29.825 26.335 22.545 19.215 17.085 14.495 12.225
954.844 11.205 10.525 9.555 8.515 8.055 7.295 6.175 5.515 5.425 4.965
974.134 4.505 4.675 4.795 4.865 4.845 4.635 4.325 4.235 4.015 3.715
993.424 3.855 3.965 4.005 4.715 5.325 5.525 6.085 7.155 8.575 11.225
1012.714 15.865 20.555 23.435 23.965 23.125 21.505 17.825 12.675 8.545 6.495
1032.003 5.125 4.395 4.665 4.595 4.605 4.805 5.485 6.645 7.365 8.805
1051.293 11.455 14.335 18.775 25.285 32.665 41.135 50.655 57.605 60.685 61.155
1070.583 57.585 51.145 43.565 36.155 31.145 29.075 27.795 26.235 24.325 22.025
1089.873 20.025 18.755 17.795 16.045 15.785 15.585 15.945 17.625 18.215 19.165
1109.163 20.505 22.365 24.085 25.215 27.025 28.265 28.715 30.255 32.295 34.005
1128.452 36.845 40.725 44.745 49.055 54.475 61.715 70.235 78.775 89.335 101.565
1147.742 112.435 121.185 127.945 131.375 130.365 127.155 121.795 115.215 109.565 105.955
1167.032 104.705 106.625 109.255 110.055 108.875 103.965 95.405 85.335 75.515 65.905
1186.322 56.445 48.665 41.445 34.495 29.275 24.985 21.095 18.345 16.565 15.345
1205.611 14.295 13.045 12.545 11.615 11.245 11.325 10.175 9.905 10.465 10.595
1224.901 11.285 11.685 11.345 11.375 11.925 11.765 10.565 9.925 10.125 9.865
1244.191 10.225 10.845 11.185 12.055 12.825 13.555 14.545 15.805 17.335 19.605
1263.481 22.165 24.505 26.875 29.395 32.335 35.395 37.875 39.755 40.895 40.745
1282.771 39.485 37.365 35.005 33.345 31.875 30.695 30.365 30.535 31.525 33.285
1302.060 35.645 39.025 43.695 50.275 59.095 71.535 89.645 114.665 147.115 184.835
1321.350 221.215 247.485 256.895 247.865 221.175 178.405 126.815 81.095 51.025 34.525
1340.640 25.725 20.605 17.285 14.945 13.275 12.045 11.065 10.305 9.785 9.325
1359.930 8.895 8.745 8.685 8.485 8.285 8.015 7.775 7.645 7.565 7.475
1379.219 7.375 7.385 7.375 7.425 7.475 7.495 7.645 7.995 8.425 8.825
1398.509 9.265 9.635 10.045 10.295 10.355 10.615 10.835 10.765 10.915 11.385
1417.799 12.075 12.815 13.645 14.845 16.425 18.235 20.335 22.795 25.635 28.715
1437.089 32.035 35.335 38.615 41.665 43.995 45.655 46.485 46.275 45.175 43.275
1456.378 40.935 38.565 36.005 33.505 31.195 29.095 27.395 25.575 24.015 22.815
1475.668 21.525 20.285 19.315 18.485 17.575 16.795 15.965 15.105 14.225 13.315
1494.958 12.665 12.225 11.735 11.505 11.675 12.045 12.535 13.035 13.705 14.275
1514.248 14.695 14.985 14.875 14.625 14.335 13.775 12.945 11.845 10.985 10.215
1533.538 9.295 8.735 8.175 7.555 7.115 6.665 6.415 6.195 6.045 5.975
1552.827 5.905 6.045 6.085 6.345 6.715 6.865 7.255 7.615 7.735 7.935
1572.117 8.255 8.665 8.795 8.735 8.575 8.275 8.135 7.935 7.695 7.445
1591.407 6.975 6.745 6.825 6.685 6.515 6.615 6.875 7.315 7.815 8.325
1610.697 9.055 9.835 10.645 11.585 12.475 13.375 14.305 15.195 16.135 16.985
1629.986 17.735 18.305 18.655 18.795 18.575 18.195 17.545 16.555 15.355 14.185
1649.276 13.295 12.355 11.405 10.825 10.315 10.015 10.035 9.955 10.125 10.355
1668.566 10.705 11.375 12.245 13.165 14.415 16.015 17.905 20.275 23.085 26.555
1687.856 30.645 35.335 40.755 46.895 53.715 60.705 66.845 71.235 73.025 73.325
1707.146 72.845 70.055 63.875 56.135 48.875 42.355 36.425 31.465 27.115 23.305
1726.435 20.185 17.685 15.635 13.955 12.535 11.325 10.285 9.345 8.505 7.715
1745.725 7.005 6.505 6.125 5.595 5.095 4.835 4.665 4.495 4.235 4.065
1765.015 3.955 3.695 3.725 3.705 3.535 3.415 3.335 3.285 3.235 3.255
1784.305 3.285 3.155 3.035 2.935 2.915 2.915 2.715 2.735 2.855 2.805
1803.594 2.705 2.595 2.605 2.685 2.605 2.395 2.175 2.085 2.055 1.955
1822.884 1.865 1.805 1.775 1.645 1.535 1.565 1.535 1.435 1.455 1.3776
1842.174 1.2504 1.1512 1.0337 0.9848 1.0018 1.088 1.102 1.1453 1.1668 1.1532
1861.464 1.096 1.09 1.1203 1.0744 1.1108 1.1599 1.1839 1.1929 1.1452 1.0201
1880.754 1.0995 1.1818 1.1551 1.2299 1.2702 1.3055 1.3812 1.505 1.645 1.665
1900.043 1.745 1.865 1.865 1.865 1.805 1.905 2.075 2.045 2.095 2.105
1919.333 2.005 2.045 2.065 2.105 2.105 1.915 1.885 1.895 1.815 1.825
1938.623 1.845 1.795 1.675 1.635 1.635 1.635 1.595 1.455 1.2722 1.287
1957.913 1.3153 1.0955 0.9994 1.051 0.9427 0.8792 0.9045 0.8809 0.9694 0.9384
1977.202 0.8923 0.9626 0.8326 0.6592 0.6473 0.6812 0.6884 0.6025 0.6325 0.688
1996.492 0.6708 0.6163 0.6174 0.7539 0.6965 0.6295 0.6818 0.6512 0.6794 0.7268
2015.782 0.6735 0.6845 0.6395 0.6543 0.7558 0.7849 0.7975 0.6982 0.5718 0.5276
2035.072 0.6137 0.6824 0.6748 0.6048 0.564 0.6326 0.6393 0.699 0.7407 0.6996
2054.362 0.6418 0.6427 0.6991 0.7224 0.7519 0.7662 0.628 0.6107 0.7316 0.685
2073.651 0.7199 0.8517 0.9499 0.8183 0.703 0.9119 0.9373 0.8979 0.9426 0.9098
2092.941 1.0058 1.0583 1.1117 1.2591 1.1721 1.0782 1.0802 0.9962 0.937 0.8652
2112.231 0.6987 0.6662 0.7404 0.7222 0.7318 0.8241 0.757 0.607 0.6446 0.7275
2131.521 0.6192 0.44588 0.47996 0.6307 0.7769 0.774 0.6619 0.6326 0.7145 0.6779
2150.810 0.5828 0.5967 0.6806 0.7583 0.7523 0.6587 0.5872 0.5689 0.6037 0.7224
2170.100 0.7035 0.6269 0.5144 0.48787 0.6114 0.6945 0.6915 0.7541 0.7677 0.5962
2189.390 0.49378 0.5841 0.6267 0.6433 0.6194 0.7069 0.8623 0.8114 0.826 0.8994
2208.680 0.8515 0.8659 0.9513 0.9487 0.9274 0.831 0.8957 1.0381 0.9432 0.8019
2227.970 0.794 0.8436 0.8444 0.8622 0.833 0.7893 0.9317 0.9677 0.8497 0.788
2247.259 0.8438 0.9159 0.8919 0.8315 0.7957 0.8327 1.0138 1.1102 1.0196 0.98
2266.549 0.9653 1.0086 1.046 1.0259 1.0846 0.9788 0.9662 1.1817 1.2763 1.291
2285.839 1.2553 1.2565 1.3266 1.265 1.1618 1.1942 1.1639 1.09 1.1191 0.9697
2305.129 0.7569 0.8345 0.9473 0.9077 0.8931 0.9411 0.9985 1.0129 1.0431 0.8993
2324.418 0.8894 1.0169 1.0119 1.0262 0.8611 0.7747 0.8804 1.0154 1.039 0.9929
2343.708 0.9906 0.9664 1.0679 1.0733 0.9638 0.9576 0.9005 0.8714 0.8857 0.7464
2362.998 0.7132 0.9573 0.9787 0.8686 0.7617 0.724 0.8545 0.8311 0.8488 0.8126
2382.288 0.6766 0.7888 0.7625 0.8054 1.0034 1.0752 0.9637 0.8524 0.8217 0.7684
2401.578 0.7398 0.6314 0.6004 0.5486 0.5536 0.6524 0.7085 0.7218 0.6369 0.6031
2420.867 0.7393 0.6736 0.5878 0.6488 0.7304 0.7605 0.6503 0.6572 0.7273 0.6735
2440.157 0.7321 0.856 0.8011 0.7964 0.7134 0.5157 0.49696 0.6381 0.614 0.6579
2459.447 0.743 0.6289 0.667 0.7598 0.7587 0.7376 0.785 0.7687 0.82 0.9146
2478.737 0.9203 0.857 0.6019 0.5729 0.7358 0.8509 0.8927 0.897 0.874 0.6955
2498.026 0.6969 0.6183 0.6099 0.7748 0.7282 0.6012 0.7454 0.9275 0.8044 0.6762
2517.316 0.6972 0.8862 0.8094 0.5586 0.6322 0.6642 0.6461 0.8625 0.7863 0.6771
2536.606 0.726 0.7222 0.8576 0.9182 0.9369 0.8913 0.7559 0.7547 0.7724 0.7312
2555.896 0.8349 0.9517 0.8439 0.6661 0.8188 0.793 0.6058 0.751 0.674 0.6648
2575.186 0.7404 0.8193 0.8061 0.6836 0.6498 0.6699 0.6114 0.572 0.6169 0.6651
2594.475 0.6935 0.6722 0.7026 0.708 0.6939 0.6342 0.5723 0.5377 0.46806 0.48132
2613.765 0.709 0.636 0.6074 0.6981 0.7155 0.8714 0.8948 0.9937 1.0881 1.0342
2633.055 1.0701 0.8637 0.7413 0.7978 0.6586 0.7544 0.989 1.0234 0.8439 0.7189
2652.345 0.88 0.8776 0.8281 0.8601 0.7893 0.6378 0.41746 0.3765 0.42013 0.4672
2671.634 0.45071 0.45244 0.6502 0.7154 0.7286 0.6486 0.6388 0.7139 0.6315 0.5743
2690.924 0.5244 0.611 0.6898 0.6413 0.6007 0.5913 0.603 0.7247 0.6725 0.651
2710.214 0.645 0.6858 0.7462 0.6764 0.6649 0.6505 0.6641 0.6637 0.7434 0.749
2729.504 0.63 0.6066 0.7592 0.8186 0.8739 0.8588 0.5894 0.6579 0.7794 0.7097
2748.794 0.853 0.844 0.6663 0.7478 0.847 0.6798 0.6484 0.6852 0.6189 0.7278
2768.083 0.7192 0.5539 0.6336 0.7352 0.7922 0.8493 0.6478 0.6015 0.7201 0.569
2787.373 0.43401 0.3442 0.49978 0.7151 0.6055 0.6322 0.6422 0.6584 0.635 0.5861
2806.663 0.7747 0.7629 0.641 0.713 0.633 0.725 0.9793 0.8849 0.7694 0.7711
2825.953 0.8778 0.9223 0.7257 0.7239 0.86 0.9078 0.7851 0.5814 0.6242 0.7411
2845.242 0.7509 0.7079 0.6291 0.5374 0.5816 0.5322 0.3617 0.3705 0.5265 0.8472
2864.532 0.9934 0.8448 0.6274 0.3659 0.42165 0.6055 0.7462 0.8354 0.7233 0.6079
2883.822 0.5946 0.6339 0.5705 0.5507 0.6345 0.8804 0.9978 0.7862 0.703 0.6019
2903.112 0.5239 0.6814 0.7949 0.6969 0.7976 0.8941 0.8302 1.0752 1.0828 0.8167
2922.401 0.8946 0.9858 0.9747 1.191 1.1327 1.0586 1.1689 1.1917 1.1827 1.1416
2941.691 1.1747 1.2067 1.2125 0.9081 0.7586 0.8586 0.7432 0.4825 0.5442 0.7165
2960.981 0.6939 0.7389 0.6336 0.708 0.8179 0.8162 0.7658 0.3889 0.46481 0.9837
2980.271 1.037 0.8178 0.7593 0.9815 1.0173 0.8086 0.7582 0.6677 0.6411 0.7361
2999.561 0.5739 0.5518 0.8031 0.8391 0.8378 0.7485 0.8183 0.7671 0.62 0.8647
3018.850 1.0334 0.9351 0.8424 0.9918 1.1195 1.192 1.213 1.0749 1.0489 1.1027
3038.140 1.2186 1.435 1.645 1.865 2.165 2.195 2.205 2.355 2.515 2.485
3057.430 2.255 2.295 2.275 2.105 2.085 2.065 2.115 2.085 1.865 1.675
3076.720 1.595 1.655 1.545 1.535 1.815 1.885 1.535 1.3102 1.525 1.615
3096.009 1.655 1.725 1.575 1.3733 1.515 1.615 1.505 1.445 1.2658 1.1647
3115.299 1.2438 1.3434 1.2621 1.2579 1.391 1.485 1.3364 1.1916 1.1847 1.2025
3134.589 1.1609 0.9127 0.846 0.9943 1.0986 1.0401 1.0915 1.1918 1.0757 1.0915
3153.879 1.1352 0.9745 0.8078 0.6659 0.7527 0.8031 0.8564 0.9558 1.0781 1.0728
3173.169 0.9773 0.8753 0.9166 1.1242 1.0318 0.8652 0.9784 1.1362 1.2356 1.0926
3192.458 1.0982 1.2943 1.0222 0.9306 1.195 1.0525 1.178 1.425 1.3117 1.2291
3211.748 1.1417 1.3821 1.2502 0.9621 0.977 1.0096 1.0065 1.087 1.2209 1.2963
3231.038 1.465 1.485 1.2745 1.1605 0.8427 0.7394 1.04 1.1579 1.1025 1.0181
3250.328 1.1754 1.2933 1.2464 1.0039 0.8814 0.8611 0.7495 0.7599 0.8063 0.9296
3269.617 0.9548 0.81 0.8194 1.0948 1.1882 1.0291 0.9213 1.0454 1.2276 1.455
3288.907 1.465 1.3235 1.242 1.1268 1.159 1.1379 1.1031 1.2428 1.2545 0.9532
3308.197 0.8538 1.0043 1.0399 0.9605 1.0758 1.0364 1.0695 1.2723 1.2129 1.1387
3327.487 1.1844 1.3185 1.3965 1.1274 0.9846 1.1392 1.405 1.685 1.425 1.2688
3346.777 1.3599 1.3867 1.565 1.735 1.715 1.615 1.555 1.455 1.3453 1.515
3366.066 1.695 1.535 1.3631 1.3296 1.545 1.745 1.735 1.715 1.545 1.645
3385.356 1.925 2.055 2.205 2.035 1.965 2.085 2.165 2.075 1.865 1.765
3404.646 1.715 1.605 1.715 1.695 1.695 1.785 1.575 1.555 1.655 1.865
3423.936 2.215 2.335 2.295 2.395 2.555 2.905 3.035 3.185 3.205 3.325
3443.225 3.935 4.415 4.745 5.105 5.525 6.135 6.885 7.625 8.415 9.375
3462.515 10.095 10.575 11.035 11.565 12.015 11.975 11.695 11.295 10.775 10.225
3481.805 9.285 8.235 7.435 6.455 5.865 5.375 4.835 4.255 3.815 3.595
3501.095 3.175 2.795 2.465 2.235 2.055 1.735 1.565 1.735 1.625 1.3537
3520.385 1.1946 1.271 1.3587 1.3139 1.2462 1.1424 0.9487 0.851 0.8812 0.8479
3539.674 0.8341 0.815 0.6293 0.44906 0.7869 0.8886 0.7776 0.7988 0.9282 0.8602
3558.964 0.585 0.8368 0.9708 0.8126 0.6637 0.723 0.9425 1.1626 1.1865 1.0236
3578.254 0.7356 0.6746 1.0081 0.7947 0.5328 0.8412 0.9345 0.7239 0.6545 0.5952
3597.544 0.6825 0.7283 0.6785 0.8008 0.7305 0.7851 0.8025 0.7824 0.9109 0.9527
3616.833 0.9322 0.6731 0.6328 0.8543 0.8638 0.9088 0.9242 0.8217 0.6269 0.5629
3636.123 0.5438 0.411227 0.3352 0.188 0.3429 0.7204 0.8568 0.7386 0.6391 0.7949
3655.413 0.8267 0.7493 0.8224 1.0266 1.1569 0.8428 0.5464 0.3866 0.3685 0.49995
3674.703 0.45384 0.5633 0.9241 0.7739 0.6842 0.8535 0.8465 0.9116 0.8074 0.7138
3693.993 0.786 0.597 0.5636 0.6994 0.3876 0.3908 0.5916 0.7919 0.9202 0.6264
3713.282 0.3784 0.41919 0.5574 0.517 0.3744 0.42889 0.753 0.8635 0.8002 0.6724
3732.572 0.7258 1.0391 1.1333 1.04 0.7247 0.5469 0.753 0.8761 0.6833 0.5379
3751.862 0.58 0.3228 0.41947 0.6783 0.7461 0.8342 0.9703 0.9672 0.6912 0.48832
3771.152 0.5607 0.49826 0.5225 0.6334 0.5621 0.8073 0.9425 0.9229 0.8578 0.7758
3790.441 0.8396 0.9118 0.8884 0.96 0.9603 0.7033 0.5443 0.6158 0.645 0.6438
3809.731 0.6954 0.8395 0.7982 0.7895 0.6278 0.44005 0.6412 0.6467 0.5634 0.6518
3829.021 0.5903 0.42552 0.6754 0.8057 0.7684 0.7278 0.5736 0.5777 0.5996 0.42892
3848.311 0.5718 0.8871 0.8307 0.6538 0.5686 0.816 0.7693 0.5588 0.8263 1.1609
3867.601 0.922 0.6057 0.6378 0.49547 0.3717 0.3325 0.3276 0.4241 0.40037 0.45946
3886.890 0.518 0.6056 0.7372 0.4986 0.45188 0.6733 0.6146 0.3276 0.3972 0.7096
3906.180 0.5784 0.48003 0.7967 0.8304 0.44872 0.7216 1.02 0.644 0.46685 0.5294
3925.470 0.5721 0.7904 0.642 0.411543 0.6303 0.8382 1.0119 1.1451 0.9607 0.7609
3944.760 0.7683 0.8818 0.7207 0.6206 0.6517 0.3117 0 0.093 0.5604 0.6056
3964.049 0.648 0.6916 0.3578 0.3584 0.7343 0.767 0.44029 0.3 0.43144 0.49192
3983.339 0.5637 0.5125 0.44938 0.6215 0.699 0.8268 0.903 0.7538 0.46824 0.5165
##END=
