##TITLE=3,4-Dimethoxyphenyl isothiocyanate
##JCAMP-DX=4.24
##DATA TYPE=INFRARED SPECTRUM
##ORIGIN=EPA-IR VAPOR PHASE LIBRARY
##OWNER=SRD/NIST
Collection (C) 2018 copyright by the U.S. Secretary of Commerce
on behalf of the United States of America. All rights reserved.
##CAS REGISTRY NO=33904-04-0
##MOLFORM=C 9 H 9 N O 2 S
##$NIST SOURCE=MSDC-IR
##STATE=gas
##XUNITS=1/CM
##YUNITS=ABSORBANCE
##XFACTOR=1.
##YFACTOR=0.001
##DELTAX=1.92898
##FIRSTX=549.8
##LASTX=4000.7
##FIRSTY=19.563
##MAXX=4000.7
##MINX=549.759
##MAXY=0.502353
##MINY=0
##NPOINTS=1790
##XYDATA=(X++(Y..Y))
549.759 19.563 18.993 18.383 17.883 17.323 16.763 16.463 16.403 16.203 15.743
569.049 14.983 14.673 14.773 14.633 14.533 14.213 14.083 14.123 14.133 14.603
588.339 14.683 14.353 14.643 15.143 15.303 15.483 16.073 16.673 16.723 16.843
607.628 17.023 16.933 16.513 16.083 15.783 15.003 14.193 13.573 12.943 12.433
626.918 12.153 11.733 11.423 11.213 10.993 11.113 11.013 10.663 10.943 11.343
646.208 11.563 11.523 11.293 11.153 10.743 10.103 9.373 8.553 7.363 6.473
665.498 5.713 4.783 4.033 3.383 2.923 2.573 2.393 2.383 2.303 2.093
684.787 2.063 2.223 2.333 2.323 2.323 2.103 1.963 2.153 2.243 2.013
704.077 1.943 2.153 2.253 2.343 2.223 2.233 2.533 2.773 3.013 3.233
723.367 3.673 4.143 4.453 4.913 5.523 6.163 7.113 8.203 9.333 10.893
742.657 12.323 13.883 15.543 17.113 18.863 20.263 21.313 21.973 22.103 21.633
761.947 20.453 19.053 17.403 15.453 13.653 12.083 10.703 9.873 9.423 9.123
781.236 9.173 9.533 10.183 11.423 12.933 14.633 16.723 18.783 21.093 23.293
800.526 24.883 26.153 27.423 28.563 29.603 30.623 31.543 32.733 34.253 35.923
819.816 38.233 41.043 44.613 48.783 53.263 57.743 61.503 64.333 65.503 64.943
839.106 62.733 59.053 53.993 47.753 41.683 36.693 32.563 29.083 26.443 24.313
858.395 22.623 21.733 21.153 20.613 20.413 19.973 19.053 18.343 17.613 16.533
877.685 15.183 13.753 12.353 10.913 9.823 8.963 8.213 7.663 7.063 6.783
896.975 6.593 6.473 6.573 6.523 6.743 6.953 7.013 7.083 7.093 7.263
916.265 7.053 6.883 6.903 6.723 6.753 6.613 6.463 6.553 6.483 6.443
935.555 6.433 6.353 6.333 6.453 6.793 7.043 7.283 7.753 8.303 8.843
954.844 9.563 10.273 11.323 12.843 14.563 16.583 18.723 20.993 23.333 25.703
974.134 27.663 28.933 29.333 28.953 28.113 26.853 25.533 24.313 23.273 22.593
993.424 22.533 22.823 23.263 24.343 26.323 28.813 31.663 35.213 39.643 44.743
1012.714 50.493 56.483 62.613 68.753 74.753 79.803 83.713 86.853 88.463 88.863
1032.003 87.873 85.263 80.723 74.563 67.613 60.453 52.953 45.633 38.843 32.613
1051.293 27.173 22.603 19.133 16.613 14.713 13.073 11.863 10.903 9.963 9.313
1070.583 8.823 8.413 8.463 8.293 7.633 7.423 7.703 7.953 8.043 8.393
1089.873 8.753 9.333 10.423 11.553 12.623 13.843 15.933 18.743 22.153 26.203
1109.163 31.243 36.623 41.433 45.953 50.243 53.583 55.953 57.543 57.373 55.903
1128.452 53.763 50.823 47.583 43.733 39.663 35.673 31.763 28.563 26.293 25.093
1147.742 25.143 26.083 27.653 30.593 34.613 38.803 43.553 48.683 52.723 56.093
1167.032 58.573 59.883 60.293 59.673 58.253 56.273 54.033 52.153 50.943 50.053
1186.322 49.943 50.343 51.443 53.093 55.213 57.633 60.003 62.133 63.263 64.163
1205.611 65.353 66.213 66.863 68.143 70.503 73.963 78.493 84.173 90.633 97.613
1224.901 104.473 111.003 116.933 122.033 125.993 128.613 130.463 130.763 129.003 126.243
1244.191 123.673 121.813 121.253 123.133 128.083 136.323 146.923 157.533 165.793 169.183
1263.481 166.853 159.203 146.423 130.833 115.553 102.823 94.103 89.263 87.693 88.873
1282.771 92.243 97.193 102.993 108.813 114.143 118.443 121.183 122.093 120.663 117.063
1302.060 111.623 104.483 96.273 87.593 78.863 70.503 62.813 55.903 49.823 44.633
1321.350 40.233 36.463 33.253 30.483 28.143 26.103 24.123 22.183 20.323 18.503
1340.640 16.793 15.213 13.833 12.663 11.653 10.953 10.353 9.793 9.303 8.813
1359.930 8.463 8.223 7.983 7.753 7.623 7.493 7.383 7.363 7.413 7.453
1379.219 7.533 7.723 8.053 8.503 9.073 9.833 10.823 12.103 13.633 15.433
1398.509 17.563 19.923 22.423 24.923 27.223 29.013 30.123 30.553 30.423 29.753
1417.799 28.643 27.463 26.493 26.043 26.333 27.673 30.363 34.473 39.923 46.173
1437.089 52.543 57.943 61.623 63.233 62.843 60.903 58.243 55.563 53.613 52.983
1456.378 53.573 55.003 56.953 59.413 62.113 64.493 65.943 66.623 66.953 66.993
1475.668 66.663 66.603 68.133 71.863 77.973 86.983 99.533 115.873 136.643 162.003
1494.958 192.073 226.563 262.803 297.153 324.463 339.493 339.353 324.103 295.533 256.863
1514.248 213.913 172.703 137.593 110.223 89.123 73.483 61.613 52.443 45.463 40.123
1533.538 35.843 32.443 29.843 27.763 26.063 24.673 23.563 22.703 22.163 22.013
1552.827 22.063 22.313 22.913 23.763 24.783 26.153 27.903 29.853 32.093 34.573
1572.117 37.093 39.503 41.883 44.083 45.943 47.433 48.483 49.223 49.843 50.223
1591.407 50.373 50.413 50.363 50.043 49.113 47.643 45.593 42.743 39.303 35.473
1610.697 31.503 27.613 24.073 20.933 18.303 16.273 14.593 13.173 12.163 11.473
1629.986 10.803 10.193 9.743 9.383 8.943 8.533 8.253 7.973 7.793 7.563
1649.276 7.293 7.093 6.903 6.843 6.723 6.513 6.393 6.223 6.093 6.053
1668.566 6.023 5.923 5.763 5.663 5.623 5.553 5.453 5.373 5.243 5.113
1687.856 4.963 4.873 4.843 4.803 4.743 4.653 4.563 4.533 4.533 4.523
1707.146 4.523 4.503 4.453 4.383 4.433 4.513 4.483 4.503 4.483 4.473
1726.435 4.573 4.643 4.663 4.683 4.673 4.643 4.713 4.763 4.763 4.773
1745.725 4.773 4.743 4.683 4.653 4.563 4.503 4.493 4.453 4.443 4.383
1765.015 4.343 4.343 4.343 4.363 4.373 4.323 4.333 4.393 4.393 4.363
1784.305 4.383 4.463 4.543 4.633 4.723 4.813 4.933 5.093 5.233 5.383
1803.594 5.613 5.793 5.943 6.143 6.323 6.413 6.473 6.493 6.473 6.433
1822.884 6.393 6.323 6.223 6.123 6.013 5.953 5.923 5.923 5.943 6.013
1842.174 6.063 6.143 6.263 6.363 6.473 6.643 6.813 6.863 6.913 6.993
1861.464 7.053 7.063 6.993 6.953 6.953 6.993 7.023 7.083 7.203 7.293
1880.754 7.403 7.493 7.603 7.813 8.003 8.223 8.493 8.823 9.223 9.573
1900.043 9.963 10.453 10.943 11.523 12.223 12.973 13.823 14.743 15.733 16.823
1919.333 18.033 19.333 20.693 22.123 23.733 25.423 27.243 29.303 31.463 33.673
1938.623 36.043 38.563 41.243 44.033 46.943 50.133 53.443 56.893 60.583 64.423
1957.913 68.463 72.633 76.993 81.683 86.513 91.463 96.503 101.683 107.053 112.593
1977.202 118.233 124.063 130.163 136.563 143.333 150.423 157.843 165.613 173.843 182.503
1996.492 191.553 200.933 210.723 221.013 231.833 243.113 254.783 266.743 278.933 291.013
2015.782 302.783 314.413 325.493 335.923 345.813 355.103 364.173 373.273 382.503 392.353
2035.072 403.283 415.233 428.403 442.973 458.383 473.713 487.453 497.833 502.353 498.663
2054.362 485.983 464.963 437.213 405.723 373.223 342.083 314.223 290.883 272.813 259.753
2073.651 251.653 248.163 248.823 253.083 260.323 270.233 282.203 295.553 309.443 323.353
2092.941 336.333 347.283 355.253 359.143 358.153 351.763 340.193 324.203 304.783 283.433
2112.231 261.403 239.743 219.343 200.833 184.603 170.543 158.593 148.683 140.543 133.873
2131.521 128.653 124.693 121.623 119.243 117.393 115.913 114.623 113.373 111.933 110.023
2150.810 107.713 104.893 101.383 97.313 92.603 87.383 81.923 76.373 70.823 65.363
2170.100 60.263 55.533 51.333 47.653 44.413 41.613 39.203 37.153 35.243 33.513
2189.390 31.953 30.393 28.893 27.443 26.003 24.563 23.133 21.763 20.553 19.443
2208.680 18.403 17.413 16.603 15.903 15.243 14.643 14.033 13.473 12.943 12.513
2227.970 12.073 11.623 11.273 10.933 10.623 10.373 10.183 10.003 9.733 9.593
2247.259 9.563 9.523 9.533 9.503 9.483 9.583 9.633 9.563 9.503 9.503
2266.549 9.363 9.163 8.933 8.623 8.273 7.893 7.563 7.203 6.853 6.513
2285.839 6.133 5.783 5.443 5.153 4.963 4.703 4.463 4.273 4.043 3.873
2305.129 3.703 3.603 3.503 3.423 3.443 3.373 3.293 3.273 3.303 3.323
2324.418 3.283 3.283 3.333 3.343 3.333 3.403 3.383 3.273 3.343 3.423
2343.708 3.453 3.503 3.523 3.573 3.633 3.673 3.793 3.903 3.913 3.903
2362.998 4.063 4.183 4.153 4.233 4.323 4.383 4.453 4.493 4.553 4.583
2382.288 4.563 4.633 4.753 4.833 4.883 4.953 5.043 5.083 5.163 5.213
2401.578 5.213 5.233 5.223 5.213 5.183 5.173 5.113 5.033 5.033 5.053
2420.867 4.983 4.853 4.853 4.893 4.943 4.953 4.983 5.063 5.033 4.963
2440.157 5.003 5.113 5.113 5.113 5.113 5.043 4.983 4.943 4.953 4.923
2459.447 4.803 4.763 4.693 4.693 4.703 4.643 4.643 4.633 4.663 4.573
2478.737 4.563 4.633 4.613 4.613 4.633 4.573 4.543 4.583 4.553 4.613
2498.026 4.583 4.543 4.573 4.643 4.803 4.843 4.953 5.063 5.063 5.053
2517.316 5.193 5.383 5.433 5.403 5.433 5.473 5.523 5.693 5.833 5.883
2536.606 5.913 5.993 6.133 6.233 6.283 6.373 6.513 6.663 6.773 6.853
2555.896 6.963 7.093 7.243 7.263 7.233 7.303 7.313 7.363 7.383 7.353
2575.186 7.253 7.083 6.913 6.783 6.593 6.353 6.233 6.073 5.813 5.573
2594.475 5.383 5.203 4.953 4.673 4.463 4.363 4.263 4.093 3.943 3.893
2613.765 3.903 3.863 3.763 3.773 3.783 3.733 3.693 3.613 3.643 3.663
2633.055 3.633 3.603 3.593 3.613 3.623 3.643 3.623 3.593 3.543 3.533
2652.345 3.533 3.553 3.653 3.663 3.673 3.763 3.853 3.863 3.853 4.003
2671.634 4.153 4.213 4.333 4.423 4.553 4.683 4.753 4.793 4.903 5.073
2690.924 5.243 5.453 5.583 5.723 5.833 5.893 5.933 6.023 6.113 6.063
2710.214 5.953 5.903 5.883 5.703 5.493 5.333 5.203 5.053 4.793 4.533
2729.504 4.283 4.043 3.873 3.833 3.813 3.683 3.563 3.473 3.383 3.293
2748.794 3.243 3.293 3.343 3.423 3.483 3.473 3.463 3.453 3.433 3.453
2768.083 3.503 3.453 3.413 3.463 3.513 3.613 3.623 3.623 3.753 3.823
2787.373 3.873 4.053 4.123 4.303 4.593 4.753 5.043 5.353 5.653 6.013
2806.663 6.383 6.963 7.483 7.973 8.703 9.483 10.353 11.303 12.323 13.453
2825.953 14.903 16.603 18.603 21.003 23.773 26.843 29.833 32.403 34.453 35.593
2845.242 35.773 35.053 33.543 31.493 29.173 27.073 25.213 23.523 22.253 21.333
2864.532 20.703 20.353 20.043 19.753 19.493 19.303 19.213 19.153 18.963 18.763
2883.822 18.783 18.863 19.063 19.253 19.533 19.983 20.403 20.863 21.573 22.393
2903.112 23.283 24.293 25.293 26.273 27.293 28.423 29.653 30.823 31.623 32.373
2922.401 32.983 33.733 34.823 36.043 37.853 40.303 43.313 46.953 50.743 54.363
2941.691 57.673 60.053 61.253 61.883 61.643 60.283 58.443 56.183 53.873 51.783
2960.981 49.743 47.673 45.503 43.253 41.003 38.823 36.803 34.973 33.253 31.673
2980.271 30.143 28.963 28.183 27.623 27.483 27.653 28.163 29.023 30.313 32.153
2999.561 34.303 36.613 39.003 41.343 43.173 43.993 43.403 41.403 38.373 34.543
3018.850 30.163 25.803 22.093 19.233 17.063 15.543 14.603 13.873 13.243 12.793
3038.140 12.343 12.013 11.803 11.633 11.453 11.173 10.943 10.863 10.863 10.863
3057.430 10.853 10.813 10.763 10.643 10.543 10.403 10.133 9.873 9.673 9.403
3076.720 9.223 9.053 8.683 8.443 8.153 7.713 7.283 6.903 6.433 5.973
3096.009 5.823 5.613 5.243 5.013 4.853 4.673 4.413 4.073 3.933 3.913
3115.299 3.733 3.503 3.303 3.093 2.943 2.923 2.953 2.703 2.543 2.453
3134.589 2.193 2.123 1.983 1.793 1.703 1.703 1.683 1.433 1.443 1.493
3153.879 1.453 1.483 1.353 1.203 1.303 1.353 1.183 1.0458 1.1202 1.223
3173.169 1.1573 1.1046 0.9904 0.9488 0.937 0.9229 0.9801 0.9853 0.9482 0.8588
3192.458 0.794 0.7608 0.9277 0.9526 0.823 0.6992 0.609 0.6412 0.7155 0.6663
3211.748 0.581 0.5658 0.5271 0.5058 0.3568 0.3413 0.4467 0.4917 0.3323 0.2809
3231.038 0.3477 0.3072 0.26944 0.323 0.303 0.1312 0.1553 0.20696 0.1373 0.26348
3250.328 0.3936 0.21483 0.18912 0.18426 0.0732 0.1283 0.1431 0.1109 0.049 0.0886
3269.617 0.1421 0.1141 0.03 0 0.179531 0.346 0.3315 0.26495 0.20098 0.1004
3288.907 0.1135 0.1595 0.180637 0.22799 0.21392 0.1537 0.1591 0.26183 0.21372 0.19041
3308.197 0.3316 0.2673 0.1148 0.056 0.022 0.007 0.1318 0.24555 0.20622 0.23435
3327.487 0.26635 0.20073 0.1323 0.1104 0.20226 0.1304 0.0919 0.107 0.142 0.3046
3346.777 0.3406 0.21151 0.063 0.20121 0.4016 0.3638 0.1524 0.19924 0.26546 0.1286
3366.066 0.2916 0.3117 0.19691 0.2682 0.3036 0.3059 0.23325 0.16429 0.1895 0.21234
3385.356 0.1621 0.1296 0.2637 0.24728 0.1651 0.23945 0.15 0.01 0.1287 0.25784
3404.646 0.2939 0.315 0.27093 0.1532 0.038 0.0954 0.19126 0.24352 0.1271 0.027
3423.936 0.175786 0.22775 0.20353 0.2823 0.3724 0.26508 0.23462 0.22843 0.16714 0.182193
3443.225 0.18568 0.2905 0.3477 0.27296 0.19165 0.17125 0.1522 0.2241 0.26113 0.218
3462.515 0.18909 0.3016 0.26647 0.175769 0.22777 0.26101 0.3213 0.2162 0.16694 0.23424
3481.805 0.24522 0.3226 0.2991 0.20573 0.27148 0.3418 0.2964 0.2824 0.24997 0.22441
3501.095 0.18722 0.23603 0.3653 0.3031 0.21275 0.23412 0.3313 0.24394 0.20598 0.27017
3520.385 0.4157 0.455 0.2758 0.3225 0.3804 0.25104 0.3169 0.3073 0.3387 0.4932
3539.674 0.4201 0.3442 0.3787 0.3778 0.24197 0.3274 0.4796 0.4339 0.3176 0.26129
3558.964 0.3266 0.3417 0.31 0.3905 0.3257 0.20349 0.25282 0.3227 0.3799 0.3984
3578.254 0.3061 0.174463 0.1507 0.3158 0.4183 0.2958 0.2946 0.4227 0.4034 0.24995
3597.544 0.27294 0.4204 0.4162 0.3673 0.4941 0.5718 0.4729 0.3542 0.4575 0.4345
3616.833 0.26915 0.3485 0.26533 0.3725 0.5086 0.4123 0.2972 0.3234 0.4494 0.4002
3636.123 0.2819 0.20823 0.072 0.21735 0.3729 0.3756 0.3603 0.2687 0.3569 0.2764
3655.413 0.2794 0.4323 0.4182 0.3891 0.3173 0.3657 0.4164 0.3923 0.4002 0.3832
3674.703 0.4782 0.4456 0.4892 0.5412 0.5442 0.622 0.4897 0.3919 0.4663 0.5612
3693.993 0.6414 0.4652 0.4168 0.5285 0.6056 0.6444 0.6914 0.7446 0.5864 0.4024
3713.282 0.3916 0.5264 0.5245 0.4891 0.6042 0.5409 0.383 0.4008 0.4235 0.5787
3732.572 0.6585 0.5826 0.5688 0.4815 0.4285 0.5338 0.5251 0.4749 0.4866 0.4875
3751.862 0.451 0.3805 0.3994 0.539 0.5401 0.4762 0.4517 0.5313 0.7121 0.6293
3771.152 0.6161 0.6167 0.5542 0.4289 0.2951 0.26558 0.4475 0.5416 0.3944 0.5334
3790.441 0.509 0.3565 0.5064 0.5829 0.6154 0.6529 0.5271 0.5356 0.5982 0.562
3809.731 0.6787 0.7931 0.8215 0.7531 0.5838 0.5989 0.7729 0.7428 0.7296 0.6738
3829.021 0.5857 0.6863 0.7238 0.672 0.6555 0.7362 0.6243 0.6383 0.593 0.5849
3848.311 0.8886 0.9992 0.9673 0.9145 0.7953 0.8727 1.0952 1.1664 1.243 0.9533
3867.601 0.8722 1.233 1.203 0.9394 0.9751 1.1093 1.0626 1.1385 1.213 1.263
3886.890 1.273 1.323 1.443 1.413 1.243 1.1427 1.1395 1.213 1.413 1.443
3906.180 1.183 1.283 1.553 1.523 1.553 1.473 1.343 1.473 1.593 1.553
3925.470 1.593 1.593 1.423 1.403 1.373 1.423 1.493 1.423 1.483 1.493
3944.760 1.613 1.893 1.903 1.713 1.783 1.973 2.043 2.053 1.953 2.093
3964.049 2.313 2.293 2.283 2.193 2.063 2.123 2.203 2.323 2.303 2.143
3983.339 2.273 2.383 2.423 2.543 2.473 2.463 2.453 2.393 2.453 2.433
##END=
