##TITLE=4-Methylphenoxyacetonitrile
##JCAMP-DX=4.24
##DATA TYPE=INFRARED SPECTRUM
##ORIGIN=EPA-IR VAPOR PHASE LIBRARY
##OWNER=SRD/NIST
Collection (C) 2018 copyright by the U.S. Secretary of Commerce
on behalf of the United States of America. All rights reserved.
##CAS REGISTRY NO=33901-44-9
##MOLFORM=C 9 H 9 N O
##$NIST SOURCE=MSDC-IR
##STATE=gas
##XUNITS=1/CM
##YUNITS=ABSORBANCE
##XFACTOR=1.
##YFACTOR=0.001
##DELTAX=1.92898
##FIRSTX=549.8
##LASTX=4000.7
##FIRSTY=4.623
##MAXX=4000.7
##MINX=549.759
##MAXY=0.172903
##MINY=0
##NPOINTS=1790
##XYDATA=(X++(Y..Y))
549.759 4.623 3.723 3.733 3.493 3.463 3.453 2.563 2.133 2.633 3.173
569.049 3.013 2.413 2.663 2.873 3.223 3.343 3.193 3.213 2.703 2.633
588.339 3.543 3.643 2.863 3.253 3.783 3.393 3.373 3.093 3.663 4.683
607.628 3.643 3.073 3.283 3.023 2.793 2.793 2.233 2.433 2.913 2.823
626.918 2.923 2.483 2.043 1.793 1.284 1.1718 2.063 2.313 2.173 2.423
646.208 2.363 2.003 1.893 2.103 2.583 2.193 1.813 2.443 2.363 1.733
665.498 1.823 2.043 1.993 2.223 2.483 2.813 2.443 1.863 2.243 2.883
684.787 3.473 3.643 3.693 3.633 3.613 3.963 4.863 5.383 5.843 6.913
704.077 7.383 7.693 8.503 9.133 9.223 9.523 9.973 9.913 9.383 8.573
723.367 7.653 7.233 6.703 5.853 5.253 5.103 4.923 4.343 4.123 4.603
742.657 4.703 4.353 4.083 4.193 4.263 4.403 4.573 4.053 3.893 4.123
761.947 4.243 4.203 3.993 3.693 3.443 3.753 4.223 5.023 6.243 6.613
781.236 7.043 8.063 9.083 10.713 12.493 14.273 15.893 17.903 20.633 23.193
800.526 25.313 27.093 29.303 32.263 34.453 35.873 36.793 37.593 39.543 40.003
819.816 38.283 37.803 37.133 33.703 31.723 30.183 26.963 24.533 22.003 19.193
839.106 16.993 15.223 13.733 11.663 9.843 9.193 8.043 6.893 6.173 5.253
858.395 4.993 5.103 4.713 4.893 5.453 5.003 4.303 4.223 4.413 4.663
877.685 4.873 5.073 5.573 6.743 7.383 7.943 8.993 10.033 10.533 10.393
896.975 10.433 11.063 11.683 11.793 11.703 11.693 11.473 10.723 10.013 9.843
916.265 9.593 8.703 8.113 7.383 6.873 7.323 6.823 5.553 5.353 5.703
935.555 5.663 5.493 5.863 5.903 5.373 5.553 5.633 5.303 5.103 5.383
954.844 5.603 5.463 5.433 4.963 4.543 4.723 4.653 4.433 3.903 3.483
974.134 3.813 4.253 4.353 3.933 4.103 4.633 4.453 4.653 4.903 5.163
993.424 5.833 6.393 6.993 7.543 7.953 9.213 11.063 12.613 13.923 15.233
1012.714 17.293 19.563 21.543 23.433 26.473 29.503 31.403 34.013 37.593 40.783
1032.003 45.063 50.073 54.413 59.343 64.703 68.493 70.503 72.423 73.433 72.443
1051.293 70.293 68.173 64.773 59.603 54.613 49.983 45.003 38.883 32.123 26.933
1070.583 23.023 18.793 15.363 12.873 11.713 11.893 10.903 9.263 8.183 8.093
1089.873 8.243 8.293 9.233 9.323 9.413 9.473 8.413 9.013 9.473 9.263
1109.163 10.163 10.763 9.813 9.993 10.253 9.283 8.393 7.493 8.233 7.673
1128.452 5.963 5.583 4.933 4.843 5.583 5.523 4.723 3.763 4.163 5.493
1147.742 6.213 6.333 6.963 7.853 8.643 11.543 14.203 16.403 20.073 25.073
1167.032 31.193 36.133 39.103 40.833 42.013 42.263 41.113 38.763 35.483 32.423
1186.322 30.533 30.483 32.013 35.453 40.043 45.813 56.943 70.583 85.053 101.433
1205.611 118.743 135.103 147.513 157.783 166.203 170.943 172.903 169.013 159.993 151.763
1224.901 141.943 130.533 120.523 110.903 101.843 94.243 85.973 77.903 69.703 61.803
1244.191 53.833 45.893 39.343 33.063 29.303 27.403 25.613 24.843 24.703 25.103
1263.481 25.993 26.803 28.623 31.243 33.273 34.813 36.153 37.293 37.933 39.373
1282.771 40.423 40.053 39.163 37.663 35.683 33.173 30.773 28.253 25.403 22.683
1302.060 20.243 18.043 15.923 14.163 12.763 11.643 10.823 10.113 9.393 8.733
1321.350 8.423 8.113 7.843 7.833 7.693 7.503 7.523 7.713 7.863 8.113
1340.640 8.363 8.563 8.953 9.353 9.713 9.973 10.323 10.943 11.533 12.113
1359.930 12.933 13.823 14.383 14.723 15.093 15.353 15.283 15.073 14.873 14.313
1379.219 13.553 12.733 11.813 10.743 9.673 9.013 8.543 7.973 7.303 6.793
1398.509 6.483 6.163 6.133 6.313 6.353 6.303 6.573 6.753 6.683 7.123
1417.799 7.483 7.563 7.873 8.253 8.593 8.983 9.333 9.703 10.293 10.863
1437.089 11.353 11.933 12.963 13.943 14.423 14.913 15.373 15.543 15.633 15.623
1456.378 15.423 14.853 14.063 13.483 12.983 12.333 11.903 11.513 10.893 10.803
1475.668 11.143 11.633 12.423 13.313 14.783 16.983 19.793 23.733 29.543 37.753
1494.958 48.903 63.793 82.663 104.463 126.843 145.623 157.773 163.433 163.393 157.863
1514.248 146.823 129.353 105.573 80.443 58.293 42.853 31.943 24.533 19.633 15.963
1533.538 13.353 11.783 10.693 9.533 8.583 7.983 7.443 7.123 6.923 6.623
1552.827 6.203 6.053 6.173 5.763 5.653 6.043 6.183 6.283 6.453 6.933
1572.117 7.573 8.213 8.963 9.723 10.613 11.403 12.253 13.453 14.503 15.063
1591.407 15.683 16.373 17.043 17.943 18.663 19.163 19.813 20.543 20.993 21.373
1610.697 21.243 20.503 19.553 18.183 16.763 15.003 13.263 11.943 10.613 9.323
1629.986 8.243 7.503 6.823 6.373 6.173 5.763 5.333 5.043 4.633 4.473
1649.276 4.233 3.813 3.643 3.653 3.413 3.183 3.153 2.913 2.683 2.483
1668.566 2.363 2.223 2.253 2.243 2.033 1.953 2.023 1.983 1.853 1.993
1687.856 1.973 1.923 1.813 1.603 1.633 1.783 1.693 1.663 1.523 1.3739
1707.146 1.833 2.053 1.993 1.853 1.743 1.713 1.743 1.923 1.913 1.943
1726.435 2.083 1.913 1.803 2.133 2.133 2.043 2.193 2.313 2.533 2.603
1745.725 2.673 2.833 2.873 2.833 2.803 2.903 3.073 3.163 3.123 3.063
1765.015 3.143 2.913 2.543 2.483 2.423 2.333 2.293 2.113 1.983 1.953
1784.305 1.953 2.023 1.963 1.883 1.813 1.843 1.793 1.773 1.683 1.533
1803.594 1.543 1.613 1.543 1.493 1.713 1.833 1.823 1.693 1.633 1.833
1822.884 1.853 1.823 1.903 1.843 1.943 2.273 2.293 2.133 2.263 2.243
1842.174 2.223 2.423 2.563 2.613 2.693 2.933 3.023 3.213 3.613 3.733
1861.464 3.713 3.783 3.883 4.113 4.413 4.513 4.553 4.553 4.483 4.453
1880.754 4.463 4.283 3.983 3.863 3.803 3.853 3.773 3.683 3.673 3.493
1900.043 3.373 3.283 2.953 2.853 2.893 2.783 2.863 2.883 2.773 2.713
1919.333 2.783 2.893 3.023 3.073 3.053 3.153 3.023 2.603 2.473 2.593
1938.623 2.613 2.513 2.443 2.293 2.113 2.083 2.063 1.863 1.563 1.513
1957.913 1.743 1.713 1.683 1.833 1.813 1.883 1.803 1.883 1.963 1.853
1977.202 1.983 2.023 1.973 1.983 1.933 2.013 2.173 2.203 2.163 2.183
1996.492 2.313 2.433 2.373 2.563 2.743 2.603 2.593 2.543 2.463 2.543
2015.782 2.433 2.303 2.453 2.553 2.613 2.823 2.853 2.863 3.033 3.033
2035.072 2.843 2.893 3.153 3.163 3.313 3.353 3.223 3.273 3.433 3.413
2054.362 3.483 3.653 3.633 3.583 3.573 3.713 3.803 3.833 3.783 3.863
2073.651 3.953 4.053 4.013 3.953 3.973 3.993 3.993 3.773 3.583 3.553
2092.941 3.523 3.373 3.353 3.293 3.233 3.413 3.423 3.293 3.103 2.853
2112.231 2.893 2.783 2.563 2.593 2.393 2.163 2.193 2.223 2.093 1.813
2131.521 1.493 1.573 1.673 1.563 1.663 1.4649 1.2939 1.2032 1.1166 1.3306
2150.810 1.2851 1.391 1.543 1.3869 1.2799 1.1606 1.3013 1.4777 1.573 1.533
2170.100 1.4591 1.3595 1.2375 1.276 1.3364 1.4022 1.3658 1.3062 1.2993 1.2517
2189.390 1.2829 1.533 1.683 1.543 1.523 1.513 1.3062 1.4243 1.683 1.673
2208.680 1.693 1.803 1.783 1.633 1.813 2.213 2.163 2.033 2.203 2.443
2227.970 2.583 2.663 2.953 3.123 3.243 3.503 3.483 3.453 3.623 3.943
2247.259 3.813 3.603 3.663 3.673 3.663 3.463 3.203 2.913 2.963 3.093
2266.549 2.923 2.683 2.603 2.463 2.303 2.493 2.283 1.803 1.713 1.783
2285.839 2.053 2.143 2.003 2.013 2.023 1.953 1.973 2.013 2.093 2.313
2305.129 2.353 2.213 1.993 1.923 2.183 2.143 2.113 2.163 2.173 2.363
2324.418 2.233 2.083 2.293 2.233 2.063 1.843 1.633 1.643 1.763 1.833
2343.708 2.113 2.163 1.783 1.713 1.713 1.583 1.593 1.543 1.703 1.723
2362.998 1.2547 1.223 1.4696 1.623 1.583 1.523 1.573 1.4101 1.2913 1.4001
2382.288 1.3871 1.4204 1.3724 1.312 1.4091 1.4282 1.405 1.4451 1.573 1.4565
2401.578 1.3512 1.513 1.733 1.843 1.643 1.633 1.853 2.013 2.163 2.193
2420.867 2.273 2.283 2.153 2.133 1.953 1.733 1.913 1.973 1.913 1.933
2440.157 1.793 1.733 1.753 1.803 1.823 1.603 1.563 1.773 2.053 2.123
2459.447 2.023 2.123 1.913 1.743 1.713 1.743 1.783 1.583 1.4799 1.783
2478.737 1.893 1.723 1.793 1.933 1.763 1.533 1.593 1.593 1.603 1.753
2498.026 1.633 1.613 1.683 1.733 1.803 1.773 1.823 1.923 1.603 1.3338
2517.316 1.683 1.683 1.3377 1.4068 1.783 1.833 1.643 1.583 1.523 1.783
2536.606 1.643 1.4289 1.573 1.633 1.673 1.4398 1.2626 1.2913 1.653 1.853
2555.896 1.673 1.693 1.653 1.4256 1.563 1.723 1.563 1.513 1.513 1.673
2575.186 1.843 1.753 1.733 1.713 1.893 2.133 2.003 1.903 1.723 1.643
2594.475 1.753 1.823 1.913 1.723 1.513 1.2889 1.2802 1.693 1.813 1.432
2613.765 1.1391 1.2632 1.4548 1.3615 1.221 1.0147 1.184 1.3075 1.0493 1.1443
2633.055 1.23 1.543 1.793 1.3658 0.9437 1.1116 1.3216 1.0329 1.0326 1.1714
2652.345 1.3123 1.3866 1.1467 0.9264 1.0178 1.1871 1.15 0.9983 0.6371 0.8959
2671.634 1.4324 1.493 1.255 1.3249 1.583 1.673 1.4846 1.3068 1.4268 1.1561
2690.924 1.0957 1.2584 1.4225 1.893 1.913 1.583 1.4594 1.663 1.683 1.3686
2710.214 1.593 1.773 1.543 1.493 1.623 1.613 1.663 1.923 1.553 1.4047
2729.504 1.923 1.843 1.753 1.913 1.763 1.753 1.913 2.413 2.493 2.083
2748.794 1.973 2.273 2.303 1.883 1.833 1.983 2.313 2.033 2.053 2.153
2768.083 1.455 1.2759 1.663 1.643 1.4855 1.563 1.3951 1.643 1.803 1.763
2787.373 2.043 1.723 1.543 1.713 1.573 1.673 1.983 2.093 2.053 1.893
2806.663 1.943 2.063 2.303 2.713 2.913 2.923 2.523 2.533 2.673 2.533
2825.953 2.703 3.073 3.003 3.153 3.513 3.543 3.813 4.083 4.123 4.273
2845.242 4.743 5.223 5.653 5.953 6.493 7.253 7.853 8.563 9.343 10.253
2864.532 11.493 12.603 14.033 15.663 16.613 17.493 17.963 18.013 18.053 17.913
2883.822 17.903 17.623 16.593 15.773 15.493 14.993 14.473 14.153 14.163 14.223
2903.112 14.063 14.433 14.983 15.563 16.473 17.133 18.163 19.863 21.893 23.913
2922.401 26.323 29.343 32.483 35.013 37.193 38.893 39.403 39.143 38.183 36.253
2941.691 33.293 30.103 26.693 23.143 20.003 17.883 16.363 14.463 12.923 12.153
2960.981 11.813 11.513 11.443 11.513 11.523 11.833 12.383 13.233 13.783 14.543
2980.271 15.313 15.483 15.663 15.673 15.183 14.453 13.633 12.923 13.043 13.293
2999.561 13.253 13.373 13.873 14.393 14.163 14.033 14.713 14.993 14.713 15.113
3018.850 15.973 17.113 18.053 19.213 20.933 22.663 24.713 27.263 29.193 29.453
3038.140 29.093 28.813 27.623 25.883 23.713 21.123 18.683 16.643 15.443 14.483
3057.430 13.843 13.413 12.643 12.153 12.303 12.303 11.483 10.863 10.693 10.373
3076.720 9.803 9.303 8.933 8.773 8.343 7.503 7.343 7.383 6.703 6.093
3096.009 6.493 6.453 6.083 6.203 6.323 6.453 6.383 5.873 5.303 5.043
3115.299 4.883 4.463 4.243 4.263 4.163 4.213 4.113 3.373 2.883 2.773
3134.589 2.643 2.523 2.213 1.853 2.253 2.153 1.4009 1.4857 1.863 1.733
3153.879 1.3495 1.503 1.2386 0.8949 1.2854 1.3044 1.533 1.1764 0.7432 0.9353
3173.169 1.2174 1.693 1.2746 1.4248 1.653 1.321 1.1803 1.0012 1.2069 1.493
3192.458 1.3155 0.989 0.8244 1.178 2.023 1.793 1.1968 0.8957 0.6714 1.3144
3211.748 1.623 1.703 1.2039 0.9532 1.0464 0.8701 0.7887 0.6592 0.8352 1.1996
3231.038 1.503 1.2649 1.1476 1.0362 0.93 0.996 0.6693 0.8331 1.1417 1.1687
3250.328 1.3378 1.2456 0.8993 1.1703 2.103 1.833 1.1518 0.9713 1.0437 1.513
3269.617 1.4263 0.8593 0.8189 1.0799 0.599 0.623 0.6454 0.259 0.56449 0.7314
3288.907 0.9205 0.55298 0.22 0.5992 1.038 0.965 0.4224 0.58292 1.2034 1.3654
3308.197 1.1958 0.9623 1.0002 0.8169 0.53215 0.7498 0.7805 0.6517 0.96 1.1429
3327.487 1.0636 1.2928 1.533 1.4626 1.1328 1.2475 1.2789 0.9646 0.7776 0.7819
3346.777 0.9992 1.0603 0.8938 1.0125 1.1616 1.0385 1.1201 1.3394 1.3057 1.3468
3366.066 1.0972 0.837 1.0444 1.3822 1.1654 0.6285 0.48561 0.784 0.9595 1.0457
3385.356 1.4751 1.2499 0.9498 1.3953 1.553 1.1031 1.004 0.9727 1.1382 0.8417
3404.646 0.56308 0.9715 0.52007 0.246 0.272 0.348 0.59017 0.6128 1.0154 1.613
3423.936 1.683 1.1918 1.0277 1.0287 0.6769 0.9148 1.3531 1.4106 1.563 1.503
3443.225 1.0401 0.6649 0.6834 0.3 0.51276 0.7136 0.4786 0.54325 1.079 1.563
3462.515 1.1587 0.9455 0.54477 0.5969 0.9512 0.52534 0.4464 0.8788 0.58661 0.386
3481.805 0.5701 0.9987 1.1659 0.9438 0.8217 0.58636 0.50787 1.2033 0.9516 0.4014
3501.095 0.52522 0 0.337 0.8458 0.8108 0.8692 1.4538 1.803 1.1837 0.9189
3520.385 1.2485 1.4708 0.9734 0.51145 0.9911 1.3513 1.2644 1.0648 0.7752 0.8312
3539.674 1.2022 1.4386 1.503 0.8087 0.214 0.4119 0.8166 1.2358 1.0434 1.0004
3558.964 1.3204 1.3399 1.1062 0.7406 0.7314 0.7856 0.4765 0.195 0.6084 1.1186
3578.254 1.1262 0.8684 1.097 1.513 1.1146 0.6239 0.7068 0.9575 1.14 1.3262
3597.544 0.9596 0.4271 1.1219 1.4471 1.1324 0.9121 0.7482 0.9063 0.866 1.0128
3616.833 1.3552 1.573 1.3844 1.328 1.1826 1.0672 1.0742 0.8284 0.7835 0.9963
3636.123 1.1617 1.0429 1.0416 1.1187 0.9 0.7117 1.3203 1.533 1.1717 0.9621
3655.413 0.7621 0.58931 0.301 0.279 0.54745 1.1319 1.1598 0.7377 1.1332 1.553
3674.703 1.643 1.3679 0.9833 0.7768 0.7362 1.2119 1.2827 1.4507 1.2188 1.2096
3693.993 1.4907 0.9429 0.7781 0.8988 1.0984 1.603 1.523 0.8906 1.0522 1.088
3713.282 0.7666 0.9087 0.9689 1.087 1.0574 0.9892 1.4668 1.523 1.1718 1.3203
3732.572 1.4229 0.9984 0.9101 0.9018 1.046 1.194 0.9801 0.9871 1.231 1.1037
3751.862 0.7028 0.56227 0.4137 0.7303 1.1132 0.9511 0.774 0.9603 1.3631 1.4338
3771.152 1.2806 1.1846 0.9557 0.9116 0.9575 1.1605 1.391 1.4241 1.3834 1.0775
3790.441 0.8895 1.1067 0.8026 0.56281 1.1733 1.2995 1.2238 1.4739 1.703 1.943
3809.731 1.2301 0.627 1.0062 1.1521 0.9568 1.0726 1.3469 1.2105 0.6791 0.346
3829.021 0.6615 1.3277 1.633 1.3818 1.0359 0.7483 0.9908 1.2464 1.4407 1.3321
3848.311 1.0127 0.9081 0.7545 0.221 0.106 0.59104 1.0122 0.8273 0.7842 1.553
3867.601 1.933 1.703 1.379 1.503 1.603 1.743 2.133 1.743 1.0488 0.8821
3886.890 0.48393 0.9207 1.4193 1.0528 1.1135 0.863 1.0379 1.543 1.3284 1.3714
3906.180 1.4404 1.3408 0.8569 0.5156 1.4662 1.2001 0.6046 0.8545 0.57112 0.56255
3925.470 0.6904 0.8682 1.4179 1.2317 1.2158 1.543 0.9795 0.8363 1.1799 1.3826
3944.760 1.4891 1.4809 1.803 2.043 1.673 1.2538 1.338 1.523 1.0371 0.48576
3964.049 0.7157 1.2299 1.052 1.1215 1.4415 0.7912 0.6992 1.4429 1.398 1.1241
3983.339 1.4855 1.893 1.633 1.513 1.693 1.793 1.533 1.673 2.143 1.703
##END=
