##TITLE=4-Nitrophenoxyacetonitrile
##JCAMP-DX=4.24
##DATA TYPE=INFRARED SPECTRUM
##ORIGIN=EPA-IR VAPOR PHASE LIBRARY
##OWNER=SRD/NIST
Collection (C) 2018 copyright by the U.S. Secretary of Commerce
on behalf of the United States of America. All rights reserved.
##CAS REGISTRY NO=33901-46-1
##MOLFORM=C 8 H 6 N 2 O 3
##$NIST SOURCE=MSDC-IR
##STATE=gas
##XUNITS=1/CM
##YUNITS=ABSORBANCE
##XFACTOR=1.
##YFACTOR=0.001
##DELTAX=1.929
##FIRSTX=549.8
##LASTX=4000.8
##FIRSTY=1.982
##MAXX=4000.75
##MINX=549.766
##MAXY=0.114062
##MINY=0
##NPOINTS=1790
##XYDATA=(X++(Y..Y))
549.766 1.982 1.752 1.792 1.822 1.792 1.802 2.132 2.212 1.812 1.682
569.056 2.032 2.272 2.242 2.362 2.602 2.782 2.892 2.812 2.722 2.842
588.346 2.902 2.892 3.272 3.512 3.842 4.492 5.062 5.812 6.792 7.942
607.636 9.182 10.612 11.962 12.652 12.752 12.592 11.972 10.762 9.272 7.932
626.926 7.002 6.282 5.782 5.442 5.122 5.062 5.042 4.892 4.892 4.932
646.216 4.822 4.882 4.972 4.842 4.902 5.152 5.412 5.712 5.992 6.122
665.506 6.202 6.352 6.512 6.622 6.782 7.152 7.642 7.942 8.132 8.212
684.796 8.112 7.992 7.772 7.442 7.082 6.672 6.262 5.812 5.352 5.002
704.086 4.582 4.232 3.972 3.622 3.312 3.122 2.912 2.752 2.602 2.512
723.376 2.522 2.642 2.842 3.142 3.632 4.202 4.942 5.832 6.892 7.912
742.666 8.882 9.992 11.112 11.742 11.402 10.652 9.962 9.082 8.022 7.022
761.956 6.042 4.982 4.162 3.642 3.102 2.702 2.572 2.462 2.382 2.412
781.246 2.472 2.432 2.302 2.232 2.222 2.232 2.242 2.302 2.292 2.372
800.536 2.542 2.632 2.612 2.652 2.732 2.962 3.322 3.502 3.832 4.452
819.826 5.242 6.092 6.962 7.942 9.212 10.592 12.252 14.382 16.682 19.132
839.116 21.762 24.612 27.882 31.362 34.302 37.582 42.542 48.192 51.952 52.492
858.406 50.732 47.972 43.762 36.302 26.772 18.592 13.152 9.992 8.112 6.862
877.696 6.012 5.462 5.082 4.832 4.702 4.722 4.792 4.932 5.192 5.492
896.986 5.842 6.152 6.432 6.742 7.062 7.242 7.152 7.072 6.892 6.542
916.276 6.202 5.822 5.302 4.822 4.442 4.082 3.802 3.492 3.372 3.422
935.566 3.432 3.442 3.472 3.512 3.602 3.772 3.812 3.762 3.692 3.582
954.856 3.472 3.332 3.202 3.022 2.902 2.842 2.712 2.622 2.582 2.582
974.146 2.612 2.652 2.722 2.842 2.952 3.092 3.272 3.412 3.592 3.822
993.436 4.152 4.612 5.092 5.672 6.462 7.472 8.622 9.652 10.562 11.482
1012.726 12.512 13.462 14.292 15.442 16.942 18.662 20.642 23.112 26.082 29.432
1032.016 33.002 36.582 39.932 42.772 44.942 46.262 46.622 46.032 44.502 42.082
1051.306 38.902 35.142 31.012 26.712 22.562 18.622 15.092 12.152 9.912 8.282
1070.596 7.122 6.262 5.612 5.242 5.022 4.932 5.042 5.232 5.412 5.722
1089.886 6.082 6.562 7.252 8.122 9.182 10.672 12.772 15.302 18.162 20.802
1109.176 22.542 23.252 22.972 21.752 19.432 16.122 12.562 9.472 7.242 5.772
1128.467 4.752 4.052 3.532 3.232 3.082 3.032 3.142 3.282 3.522 3.922
1147.757 4.432 4.992 5.912 7.172 8.772 11.042 14.012 17.592 21.532 25.452
1167.047 28.822 31.252 32.562 32.602 31.402 29.102 26.082 22.812 19.782 17.322
1186.337 15.542 14.422 14.002 14.132 14.912 16.562 19.172 22.892 27.552 33.522
1205.627 40.492 48.022 56.062 63.832 71.052 77.932 84.352 89.722 93.462 95.632
1224.917 96.292 95.582 93.632 90.282 85.812 80.852 76.292 72.462 69.272 66.592
1244.207 63.902 60.882 57.242 52.822 47.802 42.682 38.002 34.432 32.592 32.672
1263.497 34.272 36.472 38.322 38.962 38.192 36.422 33.912 30.702 27.092 23.832
1282.787 21.712 21.032 21.352 22.452 24.252 26.252 27.752 28.342 28.012 26.852
1302.077 25.052 22.712 20.192 18.002 16.452 15.822 16.082 16.882 18.002 19.402
1321.367 21.042 22.772 24.782 27.332 30.712 35.282 41.432 49.582 59.742 71.532
1340.657 84.092 95.892 105.542 111.812 114.062 112.242 106.512 97.472 86.512 75.582
1359.947 65.992 57.922 51.062 45.192 40.022 35.292 31.032 27.212 23.892 21.072
1379.237 18.642 16.552 14.652 12.992 11.482 10.152 9.042 8.122 7.292 6.642
1398.527 6.152 5.752 5.432 5.182 5.022 4.882 4.852 4.862 4.932 5.122
1417.817 5.332 5.552 5.822 6.132 6.462 6.782 7.162 7.562 7.942 8.392
1437.107 8.902 9.382 9.992 10.712 11.382 12.042 12.622 13.082 13.432 13.582
1456.397 13.522 13.282 12.922 12.562 12.292 12.122 12.082 12.342 12.962 13.902
1475.687 15.312 17.292 20.102 24.152 29.802 37.542 47.682 59.562 71.552 80.552
1494.977 84.512 83.642 79.172 71.522 60.502 47.832 36.022 28.532 25.172 24.242
1514.267 24.832 26.512 29.202 32.532 36.722 41.382 46.802 52.802 59.072 65.542
1533.557 72.132 78.342 83.422 87.562 90.202 90.952 89.722 86.662 81.932 75.582
1552.847 68.152 59.662 51.652 43.882 36.982 31.832 27.682 24.672 22.782 21.752
1572.137 21.622 22.352 24.042 26.732 30.262 34.972 40.642 47.062 53.732 59.992
1591.427 65.112 68.552 69.852 68.862 65.792 61.212 55.952 51.062 47.262 44.482
1610.717 42.272 40.112 37.682 34.642 31.402 28.022 24.292 20.612 17.252 14.232
1630.007 11.722 9.772 8.262 7.042 6.152 5.522 5.042 4.652 4.292 4.172
1649.297 4.052 3.852 3.652 3.562 3.512 3.422 3.312 3.152 3.032 2.932
1668.587 2.802 2.732 2.662 2.532 2.432 2.372 2.252 2.122 2.022 1.972
1687.877 1.962 1.872 1.802 1.742 1.762 1.712 1.592 1.582 1.572 1.5177
1707.167 1.465 1.461 1.4171 1.3872 1.3801 1.3875 1.3707 1.3734 1.4197 1.4475
1726.457 1.4738 1.4543 1.4659 1.49 1.4929 1.5006 1.4794 1.481 1.5415 1.612
1745.747 1.662 1.672 1.752 1.862 1.942 2.042 2.102 2.142 2.192 2.222
1765.037 2.192 2.132 2.032 1.902 1.812 1.732 1.642 1.582 1.562 1.5471
1784.327 1.5521 1.5455 1.527 1.5234 1.4711 1.4568 1.4953 1.4857 1.4362 1.4479
1803.617 1.4322 1.3821 1.3453 1.3124 1.3243 1.3056 1.3231 1.3296 1.2505 1.2596
1822.907 1.2599 1.2307 1.2412 1.2002 1.2091 1.2262 1.1903 1.1378 1.1079 1.0867
1842.197 1.078 1.0544 1.0495 1.0474 1.0551 1.0508 1.0094 1.0253 1.063 1.0592
1861.487 1.056 1.1107 1.1759 1.1871 1.2012 1.2732 1.3229 1.3908 1.4547 1.572
1880.777 1.692 1.742 1.812 1.882 1.972 2.092 2.152 2.152 2.182 2.232
1900.067 2.282 2.262 2.232 2.242 2.242 2.242 2.252 2.202 2.122 2.052
1919.357 1.962 1.842 1.702 1.572 1.4952 1.4204 1.32 1.228 1.1654 1.1096
1938.647 1.0867 1.0789 1.0654 1.0825 1.0825 1.0984 1.1613 1.1686 1.1384 1.1591
1957.937 1.1941 1.192 1.1727 1.2018 1.2318 1.1985 1.1632 1.1537 1.1448 1.1378
1977.227 1.1775 1.2074 1.2247 1.2875 1.3146 1.3704 1.4501 1.5021 1.572 1.612
1996.517 1.702 1.782 1.772 1.732 1.732 1.772 1.762 1.752 1.702 1.652
2015.807 1.632 1.642 1.592 1.5278 1.5258 1.5109 1.506 1.4618 1.4591 1.5109
2035.097 1.4964 1.5401 1.612 1.652 1.712 1.772 1.842 1.902 1.972 2.002
2054.387 2.042 2.102 2.122 2.132 2.142 2.172 2.222 2.212 2.222 2.222
2073.677 2.242 2.222 2.232 2.272 2.212 2.192 2.182 2.102 2.012 1.972
2092.967 1.922 1.832 1.722 1.632 1.559 1.4949 1.459 1.3871 1.2764 1.2034
2112.257 1.1808 1.1311 1.0706 1.0224 0.9383 0.8631 0.865 0.838 0.8236 0.8148
2131.547 0.7798 0.7577 0.7263 0.7021 0.6784 0.6643 0.64581 0.61179 0.61722 0.66147
2150.837 0.65936 0.65608 0.6678 0.66137 0.63946 0.6706 0.6753 0.61301 0.57386 0.55516
2170.127 0.57747 0.58847 0.58592 0.57883 0.57993 0.59479 0.59007 0.59483 0.6226 0.65078
2189.417 0.6798 0.6895 0.6866 0.7145 0.7294 0.7279 0.7821 0.7877 0.7867 0.8303
2208.707 0.8701 0.938 0.944 0.9711 1.017 1.0285 1.1039 1.2028 1.2932 1.3525
2227.997 1.4317 1.538 1.652 1.752 1.902 2.062 2.182 2.382 2.592 2.662
2247.287 2.742 2.802 2.782 2.722 2.632 2.542 2.422 2.292 2.182 2.062
2266.577 1.912 1.842 1.792 1.672 1.592 1.5417 1.4768 1.4671 1.4405 1.358
2285.868 1.2735 1.2519 1.2605 1.179 1.0959 1.0686 1.0057 0.9831 1.0482 1.0443
2305.158 0.9737 0.9107 0.8436 0.8308 0.8887 0.8807 0.8178 0.8535 0.8833 0.815
2324.448 0.7469 0.7619 0.7555 0.6802 0.676 0.7124 0.7148 0.7427 0.7253 0.6991
2343.738 0.75 0.793 0.834 0.8425 0.7623 0.7644 0.8345 0.8225 0.8217 0.8267
2363.028 0.8416 0.8762 0.8747 0.8969 0.9638 1.0138 1.0548 1.0558 1.0895 1.0904
2382.318 1.0488 1.0545 1.0978 1.1015 1.0556 1.0636 1.0725 1.1182 1.1526 1.1314
2401.608 1.1091 1.0863 1.1003 1.1063 1.0982 1.0713 1.046 1.0495 1.0541 1.03
2420.898 0.9987 1.0217 1.0812 1.1336 1.1654 1.1466 1.1468 1.2711 1.3118 1.3395
2440.188 1.4287 1.4951 1.582 1.652 1.772 1.812 1.762 1.772 1.862 1.902
2459.478 1.862 1.792 1.722 1.632 1.5277 1.491 1.4653 1.3814 1.3321 1.3038
2478.768 1.2307 1.2403 1.2247 1.1216 1.115 1.1515 1.1474 1.1033 1.0479 1.0065
2498.058 1.0041 1.0227 0.972 0.9418 0.9454 0.9472 1.0037 1.045 0.9871 0.9547
2517.348 0.9332 0.9194 0.9551 0.9846 0.9454 0.9181 0.9769 1.0444 1.0723 1.0895
2536.638 1.0809 1.0546 1.0293 0.9924 1.0055 1.0164 0.9892 0.9859 1.0339 1.0615
2555.928 1.0813 1.1317 1.1294 1.1144 1.1237 1.1127 1.1293 1.1128 1.1476 1.1943
2575.218 1.2178 1.2432 1.2194 1.1653 1.1851 1.2498 1.2412 1.2007 1.1737 1.2341
2594.508 1.3251 1.3684 1.3552 1.3063 1.2469 1.1768 1.1562 1.171 1.1615 1.1436
2613.798 1.09 1.0793 1.1263 1.102 1.013 0.9754 0.9925 0.9379 0.9217 0.9291
2633.088 0.9088 0.9518 0.9101 0.8579 0.8487 0.8393 0.8548 0.8194 0.7973 0.8338
2652.378 0.8495 0.8049 0.8089 0.8864 0.8731 0.787 0.7741 0.7407 0.73 0.8127
2671.668 0.8548 0.8261 0.8242 0.8328 0.8258 0.8474 0.8585 0.9134 0.9734 0.9976
2690.958 0.9673 0.9477 1.0026 1.0674 1.0655 1.0677 1.0848 1.0695 1.0899 1.049
2710.248 0.9833 0.9786 0.9874 0.9955 0.9775 0.9416 0.9495 0.9704 0.9292 0.8593
2729.538 0.8786 0.8755 0.7741 0.7711 0.7015 0.65149 0.6732 0.61271 0.60227 0.58671
2748.828 0.55426 0.5412 0.5971 0.5977 0.58696 0.63036 0.58201 0.57765 0.62359 0.58324
2768.118 0.58067 0.61433 0.6643 0.7581 0.7197 0.64845 0.6836 0.7629 0.7661 0.7238
2787.408 0.7545 0.7476 0.7086 0.7351 0.7314 0.7583 0.7877 0.7753 0.7532 0.7236
2806.698 0.7756 0.8532 0.9285 0.9248 0.8895 0.9112 0.9444 1.0422 1.0867 1.0636
2825.988 1.015 1.0132 1.0993 1.1601 1.208 1.2297 1.2721 1.3381 1.3449 1.4316
2845.278 1.4976 1.4937 1.5542 1.652 1.792 1.852 1.842 1.922 2.152 2.392
2864.568 2.562 2.672 2.832 3.042 3.222 3.382 3.512 3.702 3.792 3.812
2883.858 3.862 3.862 3.682 3.532 3.372 3.172 3.092 2.922 2.742 2.652
2903.148 2.562 2.582 2.572 2.492 2.512 2.562 2.602 2.652 2.732 2.952
2922.438 3.202 3.492 3.842 4.252 4.772 5.412 6.142 6.832 7.382 7.692
2941.728 7.732 7.512 7.052 6.402 5.782 5.162 4.462 3.782 3.252 2.852
2961.018 2.462 2.222 2.092 1.892 1.692 1.632 1.662 1.722 1.812 1.902
2980.308 2.012 2.272 2.582 2.732 2.812 2.862 2.722 2.432 2.072 1.562
2999.598 1.157 0.8155 0.5313 0.5319 0.57878 0.5187 0.447 0.411 0.367 0.351
3018.888 0.462 0.5097 0.4708 0.443 0.4957 0.5097 0.426 0.435 0.457 0.355
3038.178 0.379 0.4 0.358 0.417 0.448 0.55733 0.63729 0.63708 0.7444 0.7981
3057.468 0.7879 0.8721 0.9174 1.0216 1.1624 1.1298 1.2312 1.4565 1.672 1.902
3076.758 2.212 2.662 3.162 3.652 4.152 4.752 5.112 5.172 4.972 4.682
3096.048 4.282 3.632 2.852 1.952 1.4227 1.163 0.9099 0.7328 0.5436 0.5196
3115.338 0.532 0.4676 0.468 0.4804 0.5 0.4784 0.4699 0.451 0.339 0.338
3134.628 0.276 0.167 0.242 0.205 0.197 0.224 0.156 0.252 0.325 0.199
3153.918 0.087 0.192 0.325 0.236 0.193 0.136 0.096 0.207 0.237 0.244
3173.208 0.317 0.286 0.161 0.133 0.106 0.176 0.303 0.299 0.174 0.136
3192.498 0.208 0.294 0.308 0.248 0.251 0.349 0.357 0.26 0.299 0.331
3211.788 0.358 0.386 0.374 0.36 0.33 0.328 0.349 0.341 0.25 0.225
3231.078 0.381 0.376 0.274 0.336 0.371 0.232 0.064 0.052 0.155 0.284
3250.368 0.311 0.261 0.193 0.129 0.14 0.162 0.192 0.208 0.175 0.154
3269.658 0.09 0 0.037 0.166 0.232 0.27 0.159 0.093 0.215 0.278
3288.948 0.244 0.203 0.143 0.064 0.115 0.234 0.257 0.242 0.238 0.266
3308.238 0.228 0.182 0.147 0.137 0.201 0.111 0.128 0.242 0.21 0.238
3327.528 0.259 0.188 0.224 0.256 0.251 0.347 0.259 0.109 0.242 0.336
3346.818 0.261 0.292 0.328 0.281 0.244 0.234 0.211 0.202 0.255 0.227
3366.108 0.243 0.269 0.208 0.181 0.203 0.245 0.27 0.296 0.201 0.126
3385.398 0.228 0.268 0.323 0.386 0.33 0.291 0.296 0.314 0.259 0.214
3404.688 0.287 0.269 0.185 0.283 0.322 0.274 0.234 0.121 0.08 0.159
3423.978 0.268 0.372 0.388 0.3 0.249 0.247 0.26 0.326 0.312 0.295
3443.269 0.34 0.271 0.259 0.274 0.202 0.189 0.234 0.283 0.285 0.289
3462.559 0.407 0.377 0.298 0.304 0.302 0.274 0.288 0.354 0.442 0.356
3481.849 0.289 0.419 0.37 0.267 0.275 0.32 0.29 0.237 0.209 0.231
3501.139 0.324 0.319 0.367 0.381 0.306 0.267 0.255 0.253 0.3 0.389
3520.429 0.358 0.262 0.16 0.102 0.112 0.232 0.437 0.4699 0.439 0.447
3539.719 0.212 0.192 0.396 0.417 0.316 0.203 0.176 0.197 0.219 0.279
3559.009 0.31 0.281 0.303 0.345 0.278 0.234 0.283 0.268 0.313 0.365
3578.299 0.333 0.399 0.422 0.345 0.368 0.442 0.363 0.274 0.342 0.378
3597.589 0.354 0.383 0.368 0.373 0.4747 0.424 0.302 0.243 0.207 0.234
3616.879 0.21 0.271 0.397 0.314 0.251 0.241 0.311 0.398 0.333 0.343
3636.169 0.375 0.353 0.319 0.321 0.364 0.319 0.348 0.289 0.3 0.444
3655.459 0.412 0.388 0.328 0.284 0.288 0.313 0.414 0.447 0.382 0.335
3674.749 0.415 0.394 0.31 0.339 0.346 0.259 0.241 0.292 0.375 0.4681
3694.039 0.454 0.459 0.45 0.306 0.336 0.38 0.328 0.402 0.4814 0.4928
3713.329 0.4647 0.5405 0.566448 0.4632 0.457 0.436 0.439 0.56408 0.60469 0.538
3732.619 0.449 0.416 0.347 0.336 0.362 0.432 0.4651 0.383 0.396 0.439
3751.909 0.329 0.351 0.435 0.436 0.437 0.406 0.443 0.5097 0.561243 0.5224
3771.199 0.425 0.445 0.459 0.45 0.39 0.408 0.449 0.36 0.309 0.324
3790.489 0.338 0.324 0.431 0.431 0.376 0.33 0.309 0.389 0.344 0.296
3809.779 0.374 0.4 0.384 0.363 0.375 0.416 0.407 0.395 0.375 0.348
3829.069 0.392 0.364 0.275 0.329 0.359 0.357 0.333 0.306 0.326 0.389
3848.359 0.405 0.32 0.271 0.316 0.332 0.283 0.298 0.433 0.4902 0.4854
3867.649 0.5104 0.386 0.312 0.45 0.55 0.5329 0.55358 0.5154 0.4633 0.5022
3886.939 0.447 0.434 0.4947 0.422 0.387 0.383 0.375 0.394 0.5038 0.526
3906.229 0.453 0.442 0.4951 0.5311 0.5018 0.5243 0.548 0.65477 0.6959 0.65421
3925.519 0.477 0.444 0.4869 0.4699 0.5265 0.60334 0.61519 0.5898 0.65599 0.491
3944.809 0.444 0.5497 0.4722 0.5021 0.64975 0.4842 0.416 0.5364 0.5223 0.5385
3964.099 0.5504 0.5493 0.4954 0.4958 0.55982 0.56025 0.5228 0.5247 0.4857 0.5314
3983.389 0.62736 0.60527 0.62537 0.55245 0.59556 0.7617 0.7334 0.7163 0.6933 0.58709
##END=
