##TITLE=7-Norbornyl t-butyl ether
##JCAMP-DX=4.24
##DATA TYPE=INFRARED SPECTRUM
##ORIGIN=EPA-IR VAPOR PHASE LIBRARY
##OWNER=SRD/NIST
Collection (C) 2018 copyright by the U.S. Secretary of Commerce
on behalf of the United States of America. All rights reserved.
##CAS REGISTRY NO=3391-07-9
##MOLFORM=C 11 H 20 O
##$NIST SOURCE=MSDC-IR
##STATE=gas
##XUNITS=1/CM
##YUNITS=ABSORBANCE
##XFACTOR=1.
##YFACTOR=0.001
##DELTAX=1.92898
##FIRSTX=549.8
##LASTX=4000.7
##FIRSTY=0.4143
##MAXX=4000.7
##MINX=549.759
##MAXY=0.101459
##MINY=0
##NPOINTS=1790
##XYDATA=(X++(Y..Y))
549.759 0.4143 0.302 0.4322 0.7996 0.8166 0.85 1.1849 1.1538 0.7744 1.0022
569.049 1.1551 0.8404 0.7753 1.1964 1.2855 0.9923 0.7252 0.45024 0.4156 0.3782
588.339 0.6171 0.49718 0.4322 0.7324 0.6905 0.4381 0.7283 0.936 0.6925 0.648
607.628 0.55314 0.50061 0.334 0.165 0.234 0.182 0.026 0.137 0.209 0.355
626.918 0.4868 0.53491 0.586 0.559 0.5995 0.47061 0.468548 0.7025 0.6808 0.4075
646.208 0.4385 0.5687 0.279 0 0.081 0.466201 0.4338 0.321 0.50635 0.51335
665.498 0.4878 0.458071 0.52765 0.53834 0.3985 0.46984 0.316 0.014 0.086 0.287
684.787 0.3778 0.49166 0.48286 0.276 0.356 0.435 0.3782 0.3618 0.315 0.265
704.077 0.315 0.265 0.136 0.224 0.462845 0.7097 0.6191 0.3625 0.354 0.54349
723.367 0.5719 0.5907 0.7646 0.7986 0.6936 0.6965 0.651 0.6677 0.8533 0.9108
742.657 1.155 1.3504 1.529 1.639 1.589 1.689 1.669 1.569 1.3604 1.195
761.947 1.0608 0.9541 1.1054 1.3473 1.3145 1.1849 1.0526 0.8046 0.7197 0.8338
781.236 0.8852 0.7136 0.54314 0.6703 0.8226 0.8157 0.89 1.1088 1.1658 0.8703
800.526 0.7305 0.8945 1.1169 0.9593 0.7539 0.843 0.9076 1.0415 1.2486 1.4192
819.816 1.3522 1.3002 1.2541 1.2916 1.659 1.759 1.809 1.959 1.769 1.639
839.106 1.769 1.729 1.4567 1.1798 0.9914 1.0666 1.0167 0.7588 0.8021 0.8009
858.395 0.6363 0.7735 1.0942 1.222 1.1981 1.1831 1.3693 1.599 1.849 2.249
877.685 2.579 2.749 3.169 3.759 4.299 4.909 5.539 6.159 6.669 7.199
896.975 7.659 7.849 7.939 7.759 7.319 6.829 6.249 5.669 4.969 4.229
916.265 3.599 3.309 3.219 3.079 2.999 2.819 2.689 2.589 2.539 2.429
935.555 2.239 2.079 1.929 1.739 1.589 1.4189 1.0458 0.8325 0.8556 0.9556
954.844 1.0495 1.1421 0.9802 0.7263 0.7755 0.7809 0.779 0.7751 0.7867 0.8194
974.134 0.7028 0.5948 0.5918 0.7067 0.7603 0.8806 1.1795 1.2586 1.0091 1.075
993.424 1.1819 1.2898 1.4356 1.437 1.4091 1.3261 1.2132 1.3483 1.929 2.239
1012.714 2.039 2.069 2.589 2.789 2.789 3.029 3.479 3.669 3.309 3.259
1032.003 3.179 3.099 3.509 3.519 3.169 2.949 2.669 2.489 2.389 2.609
1051.293 2.769 2.579 2.809 3.009 3.359 4.019 4.409 4.869 5.509 6.529
1070.583 7.969 10.179 12.909 15.499 19.089 23.189 26.879 30.609 33.749 35.289
1089.873 35.729 36.069 34.969 31.819 27.629 23.179 19.019 15.699 14.049 12.919
1109.163 11.599 11.089 10.839 10.589 10.279 9.599 9.359 8.999 8.099 7.719
1128.452 8.439 9.379 11.009 13.519 18.009 24.099 29.359 33.759 37.489 40.369
1147.742 41.229 40.189 38.019 34.429 28.499 21.399 15.779 12.469 10.079 8.699
1167.032 8.039 7.999 8.689 9.169 10.269 11.409 12.509 13.889 15.289 17.009
1186.322 19.019 20.509 22.149 24.409 26.209 27.289 27.799 27.879 27.639 26.709
1205.611 25.679 24.089 22.019 19.799 17.059 14.779 13.209 12.209 11.229 10.539
1224.901 10.049 9.479 9.329 9.489 9.579 9.499 9.269 9.259 8.969 8.499
1244.191 8.219 7.999 7.929 7.639 7.199 6.609 5.919 5.359 4.829 4.529
1263.481 4.129 3.449 2.769 2.599 2.549 2.159 1.999 2.049 2.089 1.989
1282.771 1.719 1.609 1.739 1.899 1.909 1.809 1.849 1.909 1.999 2.189
1302.060 2.299 2.409 2.659 2.979 3.279 3.619 3.939 4.199 4.329 4.419
1321.350 4.379 4.139 3.859 3.559 3.189 2.779 2.529 2.459 2.509 2.659
1340.640 2.859 3.179 3.619 4.209 5.039 6.079 7.339 8.819 10.399 11.969
1359.930 13.429 14.729 15.709 16.149 15.999 15.259 14.169 13.149 12.289 11.649
1379.219 11.339 11.539 12.129 12.809 13.249 13.309 13.119 12.499 11.659 10.759
1398.509 9.389 7.589 5.899 4.579 3.649 3.039 2.689 2.469 2.289 2.149
1417.799 2.079 2.019 1.969 1.989 2.049 2.129 2.209 2.279 2.399 2.659
1437.089 2.879 3.079 3.469 3.879 4.379 4.939 5.489 6.079 6.679 7.289
1456.378 7.759 7.959 8.139 8.359 8.579 8.819 9.199 9.629 9.749 9.589
1475.668 9.429 9.139 8.529 7.819 7.029 5.959 4.829 3.939 3.289 2.769
1494.958 2.309 2.029 1.869 1.769 1.659 1.569 1.489 1.3628 1.2456 1.1979
1514.248 1.1986 1.2592 1.1583 1.1229 1.1268 1.0209 1.0583 1.0907 1.0346 0.9489
1533.538 0.9205 0.8754 0.9241 0.9218 0.7988 0.8215 0.7549 0.6363 0.6619 0.6959
1552.827 0.7561 0.7425 0.6872 0.6583 0.5822 0.5671 0.618 0.6902 0.7025 0.6888
1572.117 0.7351 0.7709 0.818 0.7991 0.7549 0.8152 0.8385 0.7874 0.7467 0.7352
1591.407 0.6964 0.7011 0.7918 0.7228 0.6788 0.7391 0.7201 0.6893 0.6197 0.5811
1610.697 0.5789 0.599 0.7189 0.771 0.6589 0.5811 0.6829 0.744 0.6525 0.6229
1629.986 0.6439 0.646 0.6733 0.704 0.6943 0.7494 0.852 0.855 0.791 0.8703
1649.276 0.9831 1.024 1.0426 0.9095 0.769 0.7966 0.8748 0.8526 0.7993 0.7926
1668.566 0.7533 0.7041 0.7008 0.7712 0.7687 0.6495 0.6903 0.7301 0.7023 0.6939
1687.856 0.6619 0.5971 0.5749 0.6171 0.6226 0.616 0.6692 0.6747 0.5916 0.52068
1707.146 0.55391 0.6633 0.5961 0.6095 0.7431 0.754 0.722 0.6748 0.6395 0.679
1726.435 0.6577 0.6666 0.7133 0.6756 0.697 0.6544 0.6439 0.689 0.6436 0.6429
1745.725 0.6222 0.608 0.5964 0.6141 0.574 0.53549 0.6177 0.6426 0.6391 0.7083
1765.015 0.7104 0.6355 0.6965 0.7468 0.7165 0.6873 0.6694 0.6578 0.7153 0.7368
1784.305 0.7449 0.7416 0.7171 0.6619 0.6383 0.6757 0.7426 0.7931 0.7427 0.7452
1803.594 0.7696 0.7325 0.718 0.7271 0.7354 0.7142 0.6761 0.6788 0.6574 0.6992
1822.884 0.7381 0.6487 0.6398 0.6793 0.6614 0.6597 0.6375 0.6096 0.6238 0.6135
1842.174 0.5822 0.54748 0.49591 0.52123 0.54042 0.52961 0.54402 0.5803 0.6023 0.5885
1861.464 0.575 0.5701 0.5726 0.5718 0.6131 0.6366 0.5871 0.53829 0.52843 0.5601
1880.754 0.5834 0.6222 0.5759 0.53804 0.6321 0.6419 0.6231 0.6091 0.5783 0.5842
1900.043 0.6193 0.6585 0.6488 0.6144 0.53068 0.51672 0.53652 0.461035 0.54468 0.6473
1919.333 0.5666 0.5767 0.5861 0.5634 0.6317 0.6626 0.5945 0.51403 0.49964 0.53802
1938.623 0.55425 0.53035 0.50173 0.49364 0.5363 0.51098 0.50934 0.53575 0.48586 0.49729
1957.913 0.54559 0.53176 0.50398 0.53915 0.6212 0.6279 0.6184 0.6344 0.6577 0.6626
1977.202 0.5977 0.54609 0.6051 0.718 0.7235 0.6161 0.5833 0.6456 0.6359 0.6042
1996.492 0.6244 0.63 0.6119 0.5815 0.55592 0.55604 0.5699 0.5701 0.50185 0.50069
2015.782 0.5611 0.5693 0.5717 0.5599 0.6235 0.5878 0.52424 0.5806 0.6022 0.6364
2035.072 0.6431 0.6739 0.6844 0.6137 0.54714 0.6272 0.6415 0.576 0.6254 0.617
2054.362 0.5822 0.5951 0.6329 0.5954 0.5947 0.6876 0.6032 0.5776 0.6626 0.6178
2073.651 0.5879 0.6646 0.7371 0.7224 0.6832 0.6926 0.6895 0.6323 0.6746 0.7096
2092.941 0.6577 0.6842 0.7308 0.7334 0.7742 0.8083 0.7676 0.7731 0.8197 0.8193
2112.231 0.7989 0.77 0.7735 0.7815 0.7806 0.7639 0.7338 0.7094 0.7112 0.699
2131.521 0.7178 0.7498 0.7192 0.7057 0.7 0.7185 0.7451 0.7569 0.7891 0.8095
2150.810 0.7565 0.738 0.7621 0.7635 0.7462 0.8179 0.8427 0.8071 0.845 0.8078
2170.100 0.8556 0.8819 0.9031 0.8759 0.7935 0.8904 0.8618 0.7315 0.7404 0.8487
2189.390 0.7955 0.6767 0.7147 0.6739 0.631 0.6868 0.7234 0.8107 0.8129 0.7577
2208.680 0.7263 0.638 0.54441 0.52972 0.7026 0.7021 0.55457 0.5685 0.6192 0.6565
2227.970 0.6641 0.6623 0.6666 0.6569 0.6722 0.7102 0.6785 0.6906 0.7022 0.6764
2247.259 0.6726 0.6668 0.7128 0.7509 0.6929 0.6284 0.6909 0.7893 0.7281 0.6461
2266.549 0.698 0.7337 0.797 0.8147 0.8084 0.8256 0.7757 0.7615 0.7615 0.7809
2285.839 0.7745 0.7748 0.7724 0.762 0.7972 0.7749 0.7996 0.8097 0.6949 0.6252
2305.129 0.7294 0.7704 0.667 0.677 0.6312 0.593 0.6553 0.6748 0.6334 0.5856
2324.418 0.6347 0.6548 0.6885 0.6587 0.619 0.6648 0.6605 0.611 0.6027 0.6347
2343.708 0.6194 0.5865 0.53759 0.53667 0.5985 0.6687 0.6551 0.5955 0.6109 0.591
2362.998 0.54639 0.6069 0.6691 0.7202 0.6581 0.6087 0.6453 0.5915 0.6584 0.715
2382.288 0.6849 0.6911 0.6795 0.6484 0.6661 0.6392 0.54051 0.53453 0.622 0.6627
2401.578 0.6239 0.6525 0.6543 0.6216 0.6462 0.68 0.6667 0.647 0.6468 0.6804
2420.867 0.6977 0.6086 0.5775 0.6721 0.6502 0.6045 0.6828 0.6516 0.52648 0.4789
2440.157 0.51219 0.51186 0.48132 0.5685 0.684 0.6993 0.6318 0.5993 0.7321 0.6946
2459.447 0.5513 0.5705 0.6428 0.6171 0.5572 0.6435 0.6774 0.6409 0.53762 0.45666
2478.737 0.48141 0.4413 0.4076 0.51705 0.6371 0.562 0.55594 0.6526 0.6163 0.5898
2498.026 0.5952 0.622 0.53582 0.4079 0.3855 0.4481 0.5906 0.54666 0.48053 0.53437
2517.316 0.5739 0.658 0.6664 0.54603 0.51496 0.54658 0.6072 0.7212 0.6966 0.50974
2536.606 0.45038 0.48248 0.50039 0.5718 0.6123 0.5828 0.54248 0.5909 0.6132 0.55367
2555.896 0.5682 0.5756 0.53949 0.5974 0.684 0.681 0.646 0.6714 0.6999 0.6088
2575.186 0.6393 0.7694 0.7494 0.6801 0.7237 0.6785 0.6201 0.7672 0.7777 0.7361
2594.475 0.7132 0.681 0.7612 0.7437 0.7188 0.8138 0.7877 0.691 0.6706 0.7198
2613.765 0.7156 0.6426 0.6955 0.7465 0.7394 0.7419 0.6857 0.6678 0.7243 0.7079
2633.055 0.6541 0.6488 0.6892 0.7133 0.6642 0.6423 0.633 0.653 0.6354 0.6187
2652.345 0.6257 0.6101 0.621 0.5919 0.6283 0.6993 0.707 0.7423 0.7661 0.8251
2671.634 0.8396 0.8108 0.819 0.7436 0.6862 0.7005 0.6561 0.6706 0.7507 0.7524
2690.924 0.7021 0.6913 0.7381 0.7278 0.7874 0.8425 0.827 0.8786 0.962 1.0496
2710.214 1.1463 1.213 1.225 1.2158 1.2423 1.2443 1.1806 1.1738 1.2952 1.3472
2729.504 1.3269 1.309 1.232 1.2392 1.2476 1.1908 1.1787 1.043 1.037 1.2026
2748.794 1.1499 1.0675 1.0316 1.1215 1.1477 1.1173 1.118 1.0173 1.0709 1.093
2768.083 1.1604 1.3296 1.2498 1.2525 1.3572 1.2615 1.2059 1.1989 1.2368 1.2437
2787.373 1.2268 1.2937 1.2042 1.1943 1.2503 1.3053 1.3392 1.2866 1.499 1.559
2806.663 1.444 1.519 1.479 1.519 1.689 1.769 1.859 1.889 1.869 1.929
2825.953 2.099 2.269 2.289 2.239 2.279 2.459 2.669 2.899 3.069 3.199
2845.242 3.459 3.759 3.999 4.349 4.949 5.609 6.379 7.499 8.999 10.709
2864.532 12.779 15.129 17.439 19.659 21.809 23.539 24.459 24.859 24.719 23.929
2883.822 22.859 21.569 20.269 19.049 17.919 17.199 16.769 16.569 16.779 17.369
2903.112 18.039 18.909 20.039 21.309 22.669 24.119 25.409 26.549 27.689 28.749
2922.401 29.789 30.869 32.139 33.439 34.599 35.819 37.009 38.399 40.209 42.139
2941.691 44.089 46.029 48.569 51.889 55.999 60.659 65.589 70.469 74.969 79.389
2960.981 84.269 89.539 94.169 98.139 100.899 101.459 100.749 99.299 95.969 90.339
2980.271 82.919 73.869 63.879 53.929 44.669 36.159 28.559 22.479 17.899 14.319
2999.561 11.559 9.519 8.049 6.879 5.949 5.289 4.749 4.219 3.809 3.499
3018.850 3.259 3.029 2.829 2.709 2.399 2.169 2.189 2.119 2.009 1.899
3038.140 1.689 1.659 1.749 1.809 1.759 1.749 1.769 1.639 1.579 1.4397
3057.430 1.2814 1.2355 1.302 1.4072 1.3699 1.2815 1.2085 1.289 1.3239 1.2725
3076.720 1.3221 1.221 1.0959 1.1855 1.2253 1.1903 1.2623 1.2437 1.1932 1.303
3096.009 1.4349 1.549 1.489 1.4511 1.579 1.489 1.479 1.529 1.4293 1.3941
3115.299 1.353 1.148 1.2862 1.459 1.2183 1.1426 1.1827 1.1101 1.0347 1.1326
3134.589 1.0431 0.886 0.9656 1.0745 1.0177 0.9222 0.9206 0.8805 0.9217 0.8819
3153.879 0.793 0.9846 1.0606 0.8687 0.7792 0.7702 0.7849 0.8652 0.8118 0.8711
3173.169 0.9223 0.768 0.8031 0.9186 0.859 0.7736 0.8398 0.7836 0.6901 0.8285
3192.458 0.9236 0.8744 1.0421 1.1099 0.8758 0.7033 0.7223 0.8016 0.9176 0.9982
3211.748 0.8335 0.8218 0.8145 0.794 1.0019 0.9641 0.7183 0.7481 0.9724 0.8899
3231.038 0.7128 0.6448 0.6886 0.6548 0.5986 0.7304 0.7299 0.7137 0.6917 0.6318
3250.328 0.6353 0.816 0.8346 0.6531 0.47043 0.3929 0.53114 0.6576 0.6777 0.6533
3269.617 0.661 0.6152 0.6316 0.8032 0.8217 0.6395 0.5918 0.6504 0.7148 0.6751
3288.907 0.6235 0.6809 0.6887 0.53913 0.51797 0.5966 0.5717 0.5766 0.6791 0.8181
3308.197 0.7707 0.6616 0.8022 0.8509 0.6068 0.653 0.7853 0.6454 0.52159 0.4353
3327.487 0.3817 0.405 0.49701 0.53306 0.5638 0.6008 0.6212 0.5715 0.5686 0.6659
3346.777 0.5776 0.6225 0.645 0.6442 0.6444 0.46918 0.45371 0.47503 0.5098 0.6245
3366.066 0.7527 0.6708 0.54894 0.5714 0.5793 0.5693 0.626 0.6153 0.6637 0.7562
3385.356 0.5702 0.51088 0.54844 0.52937 0.5591 0.50238 0.48548 0.5614 0.55855 0.53146
3404.646 0.464701 0.4355 0.464658 0.3861 0.461927 0.45537 0.425 0.54358 0.6482 0.6677
3423.936 0.3783 0.155 0.328 0.49352 0.460002 0.4234 0.48052 0.5845 0.55056 0.50654
3443.225 0.5832 0.6269 0.696 0.7057 0.627 0.6295 0.7543 0.6243 0.4174 0.5948
3462.515 0.5832 0.347 0.29 0.52575 0.6298 0.3633 0.31 0.3907 0.50972 0.5697
3481.805 0.45786 0.329 0.185 0.202 0.284 0.3757 0.337 0.3962 0.3844 0.155
3501.095 0.168 0.3934 0.49842 0.358 0.266 0.4098 0.4115 0.378 0.466288 0.47325
3520.385 0.4107 0.42 0.45823 0.49205 0.51737 0.47143 0.53953 0.4153 0.239 0.346
3539.674 0.4483 0.47329 0.4163 0.303 0.339 0.4017 0.351 0.4122 0.319 0.295
3558.964 0.48108 0.3722 0.3914 0.463426 0.47972 0.4968 0.299 0.197 0.188 0.219
3578.254 0.229 0.283 0.48597 0.6103 0.6089 0.4162 0.317 0.45656 0.463345 0.50304
3597.544 0.47254 0.4201 0.52848 0.49783 0.3958 0.49401 0.4044 0.22 0.3849 0.52
3616.833 0.53432 0.49091 0.4059 0.308 0.4122 0.4325 0.3649 0.47532 0.497 0.4043
3636.123 0.3739 0.258 0.27 0.304 0.339 0.53094 0.3919 0.3 0.4458 0.52096
3655.413 0.50958 0.6162 0.6005 0.47453 0.48713 0.45133 0.334 0.252 0.301 0.4251
3674.703 0.6059 0.623 0.5858 0.53569 0.54111 0.6209 0.53452 0.4261 0.314 0.3751
3693.993 0.3951 0.4294 0.55727 0.3963 0.33 0.4097 0.438 0.3783 0.4483 0.658
3713.282 0.5802 0.3991 0.315 0.214 0.282 0.47585 0.3872 0.291 0.47858 0.51845
3732.572 0.3735 0.292 0.261 0.352 0.4387 0.467967 0.47733 0.388 0.35 0.4477
3751.862 0.51229 0.49011 0.3841 0.4107 0.49588 0.50612 0.49066 0.19 0.4093 0.801
3771.152 0.5882 0.54542 0.7622 0.5937 0.309 0.3872 0.4003 0.343 0.4092 0.4132
3790.441 0.53054 0.593 0.6442 0.6949 0.4299 0.4386 0.6959 0.721 0.685 0.6218
3809.731 0.472 0.52675 0.7095 0.7931 0.7019 0.6243 0.661 0.55779 0.4049 0.3762
3829.021 0.3673 0.50948 0.5396 0.50568 0.6155 0.72 0.7058 0.6729 0.6629 0.5685
3848.311 0.45389 0.3948 0.3793 0.4201 0.51829 0.6503 0.7094 0.52069 0.45548 0.4064
3867.601 0.344 0.3994 0.54844 0.52372 0.5049 0.7299 0.6683 0.49005 0.51567 0.6297
3886.890 0.6549 0.5971 0.5673 0.616 0.7456 0.6838 0.6321 0.6035 0.34 0.287
3906.180 0.49634 0.6159 0.49657 0.345 0.4206 0.5767 0.53619 0.278 0.153 0.326
3925.470 0.3951 0.3975 0.468055 0.6766 0.8233 0.677 0.55803 0.52206 0.50992 0.52194
3944.760 0.4362 0.314 0.4048 0.467913 0.53681 0.48847 0.317 0.49927 0.463174 0.3902
3964.049 0.462243 0.5271 0.6197 0.49386 0.55054 0.6553 0.47234 0.328 0.335 0.45684
3983.339 0.3907 0.3791 0.4294 0.3727 0.4281 0.4397 0.48788 0.50744 0.6112 0.6935
##END=
