##TITLE=1,2-Dimethoxy-4,5-dinitrobenzene
##JCAMP-DX=4.24
##DATA TYPE=INFRARED SPECTRUM
##ORIGIN=EPA-IR VAPOR PHASE LIBRARY
##OWNER=SRD/NIST
Collection (C) 2018 copyright by the U.S. Secretary of Commerce
on behalf of the United States of America. All rights reserved.
##CAS REGISTRY NO=3395-03-7
##MOLFORM=C 8 H 8 N 2 O 6
##$NIST SOURCE=MSDC-IR
##STATE=gas
##XUNITS=1/CM
##YUNITS=ABSORBANCE
##XFACTOR=1.
##YFACTOR=0.001
##DELTAX=1.92898
##FIRSTX=549.8
##LASTX=4000.7
##FIRSTY=1.969
##MAXX=4000.7
##MINX=549.759
##MAXY=0.131859
##MINY=0
##NPOINTS=1790
##XYDATA=(X++(Y..Y))
549.759 1.969 2.049 2.049 1.6194 1.6836 1.6322 0.84393 0.812 1.065 1.4148
569.049 1.5402 1.3379 1.3438 1.6801 2.199 2.279 2.249 2.659 2.599 2.149
588.339 2.039 2.329 2.749 2.509 2.519 3.079 3.339 3.419 3.279 3.129
607.628 3.429 3.319 3.289 3.359 3.049 3.129 2.939 3.079 3.669 3.879
626.918 3.439 2.799 2.669 2.629 2.589 2.829 2.789 2.789 2.969 2.849
646.208 3.379 4.279 3.949 4.249 5.189 5.569 5.919 6.199 6.299 6.279
665.498 5.979 5.939 5.779 4.859 4.089 3.569 3.339 3.019 2.449 2.149
684.787 2.159 2.279 2.419 2.449 2.279 2.069 2.269 2.419 2.419 2.289
704.077 2.099 2.269 2.339 2.299 2.189 2.399 2.669 2.949 3.129 3.179
723.367 3.379 3.629 4.249 4.159 4.119 4.659 5.149 5.389 5.049 5.429
742.657 6.379 6.609 6.789 7.369 7.589 7.789 8.109 7.739 7.419 7.679
761.947 7.549 7.579 8.079 8.699 9.299 10.289 11.339 12.359 13.669 14.459
781.236 14.719 14.769 14.539 13.699 12.329 11.089 10.179 9.739 9.759 10.859
800.526 12.359 12.819 13.009 13.389 13.399 12.449 10.649 8.589 6.819 5.759
819.816 4.209 3.759 3.719 2.809 3.549 3.439 2.819 2.499 2.689 3.159
839.106 3.189 3.359 3.879 4.669 4.939 5.259 6.079 6.809 7.599 9.469
858.395 10.939 11.599 12.469 12.789 11.889 11.069 10.029 8.659 7.829 7.029
877.685 6.579 6.379 6.259 6.229 5.979 5.929 6.189 6.039 5.589 4.759
896.975 4.149 4.289 4.259 3.779 3.329 3.019 2.799 2.689 2.379 2.149
916.265 2.219 2.549 2.589 2.029 2.059 2.199 2.259 2.649 2.649 2.649
935.555 2.739 2.579 2.619 2.569 2.539 2.919 3.349 3.369 3.409 3.669
954.844 3.889 4.149 4.059 4.459 5.189 5.619 5.369 4.889 5.429 5.859
974.134 5.779 5.799 5.789 5.689 5.529 4.819 4.569 4.899 4.839 5.309
993.424 5.589 5.829 6.459 7.109 7.509 7.639 7.909 8.719 9.899 10.969
1012.714 11.979 12.919 13.709 15.119 16.209 16.449 16.769 16.739 16.159 15.209
1032.003 15.219 15.749 15.669 15.709 16.689 17.549 18.909 20.909 23.919 27.109
1051.293 29.339 31.289 32.049 31.429 28.869 26.309 22.409 17.739 14.959 11.829
1070.583 9.269 7.719 6.009 4.359 3.969 4.459 4.559 4.439 3.499 2.379
1089.873 3.429 4.059 3.599 3.599 3.919 2.969 1.2585 1.76 2.719 2.789
1109.163 2.539 3.149 3.219 1.5212 1.263 2.449 3.089 2.819 2.719 3.029
1128.452 2.939 2.789 2.689 3.749 4.019 3.469 3.839 3.859 3.689 3.819
1147.742 3.539 3.559 4.329 4.939 4.809 4.829 5.489 5.649 5.789 5.849
1167.032 6.699 8.329 9.149 9.719 10.309 10.799 10.779 10.869 11.959 12.669
1186.322 11.259 10.199 10.409 9.949 9.439 9.399 10.089 10.799 12.239 14.789
1205.611 16.749 17.409 19.799 23.309 26.859 32.049 36.039 39.789 44.139 49.339
1224.901 52.469 51.499 50.619 48.949 44.799 39.839 35.339 31.409 28.289 26.109
1244.191 24.609 23.629 23.459 23.069 22.779 23.459 23.329 22.849 23.389 24.559
1263.481 25.819 27.809 31.279 35.699 40.129 45.159 51.119 57.179 62.589 65.759
1282.771 66.629 66.289 64.519 60.859 55.959 50.689 45.349 40.139 35.139 30.789
1302.060 27.269 24.409 22.359 20.909 20.109 20.099 20.349 20.499 20.989 22.049
1321.350 23.419 25.139 27.339 29.819 32.739 36.109 39.629 43.489 47.379 51.179
1340.640 55.209 59.229 63.169 66.899 70.339 73.529 75.999 77.439 77.739 76.509
1359.930 73.909 70.149 65.489 60.179 54.709 49.319 44.109 39.559 35.469 31.689
1379.219 28.449 25.499 22.669 20.259 18.329 16.789 15.209 13.729 12.699 11.829
1398.509 10.959 10.259 9.629 9.249 8.949 8.539 8.459 8.349 8.379 8.439
1417.799 8.379 8.429 8.539 8.779 8.979 9.279 9.949 10.769 11.649 12.709
1437.089 14.059 15.399 16.419 17.049 17.339 17.339 17.059 16.249 15.509 15.219
1456.378 15.259 15.919 16.849 18.019 19.159 19.849 20.269 20.629 20.589 20.299
1475.668 19.979 19.969 20.109 20.529 21.509 22.869 24.759 27.019 29.869 33.289
1494.958 36.979 40.859 44.529 48.009 51.279 53.939 55.669 56.319 56.079 54.969
1514.248 53.139 50.739 48.229 45.889 43.889 42.739 42.379 42.939 44.439 46.789
1533.538 49.929 53.709 58.019 63.419 69.589 76.129 83.679 92.369 101.589 111.429
1552.827 120.069 126.799 131.089 131.859 128.809 122.359 112.769 102.439 91.999 81.549
1572.117 72.809 65.729 58.819 52.689 47.139 41.949 37.669 33.639 30.369 27.639
1591.407 25.129 23.299 22.199 21.269 20.389 19.429 18.449 17.609 16.619 15.309
1610.697 13.969 12.729 11.619 10.419 9.489 8.769 8.069 7.689 7.479 7.239
1629.986 6.559 5.979 5.809 5.679 5.499 5.399 5.319 5.009 4.739 4.559
1649.276 4.429 4.389 4.249 4.069 3.909 3.949 3.899 3.569 3.399 3.169
1668.566 2.939 2.969 2.979 2.889 2.689 2.669 2.739 2.789 2.679 2.339
1687.856 2.309 2.449 2.479 2.439 2.459 2.509 2.339 2.149 2.209 2.279
1707.146 2.269 2.279 2.189 2.099 2.139 2.209 2.329 2.329 2.169 2.059
1726.435 2.099 2.009 1.899 2.009 2.069 1.959 1.8263 1.929 2.059 1.959
1745.725 1.879 1.839 1.879 1.889 1.8243 1.7341 1.7439 1.8182 1.7746 1.6425
1765.015 1.5719 1.7685 1.8179 1.8275 1.7821 1.6888 1.7363 1.5911 1.5532 1.7182
1784.305 1.7877 1.6612 1.6892 1.7919 1.8169 1.8198 1.787 1.641 1.5266 1.5867
1803.594 1.4851 1.521 1.5935 1.5189 1.6403 1.7803 1.6978 1.6015 1.6185 1.4261
1822.884 1.2875 1.45 1.4807 1.458 1.4714 1.4422 1.3969 1.4671 1.4416 1.2933
1842.174 1.3181 1.4017 1.4467 1.4717 1.5504 1.6047 1.4574 1.2256 1.2051 1.3811
1861.464 1.4855 1.4261 1.3693 1.4109 1.388 1.3624 1.419 1.3894 1.2444 1.1513
1880.754 1.2568 1.3704 1.3742 1.2419 1.3146 1.2994 1.1936 1.3297 1.2235 1.0492
1900.043 1.1584 1.2718 1.2931 1.3231 1.2142 1.2425 1.3325 1.3909 1.2871 1.1192
1919.333 1.1787 1.18 1.1318 1.1997 1.361 1.3806 1.3122 1.2665 1.2516 1.2952
1938.623 1.3164 1.2518 1.3411 1.4923 1.3871 1.1936 1.3268 1.5281 1.4641 1.4471
1957.913 1.415 1.3456 1.4243 1.592 1.6384 1.6312 1.5516 1.5504 1.652 1.6504
1977.202 1.6306 1.5911 1.6203 1.7469 1.859 1.969 1.979 1.939 2.079 2.179
1996.492 2.179 2.079 2.029 1.999 1.919 1.979 2.159 2.179 2.129 2.139
2015.782 2.179 2.339 2.309 2.249 2.279 2.179 2.229 2.289 2.149 2.029
2035.072 1.919 1.949 2.019 2.089 2.019 1.969 2.029 1.919 1.939 1.939
2054.362 1.919 1.869 1.8177 1.849 1.718 1.78 2.029 2.039 1.849 1.7814
2073.651 1.909 1.839 1.6577 1.6848 1.7687 1.6946 1.5976 1.5152 1.376 1.2685
2092.941 1.323 1.3359 1.33 1.2495 1.2727 1.4296 1.3513 1.2642 1.2116 1.1991
2112.231 1.2368 1.2294 1.2623 1.326 1.2702 1.1602 1.1403 1.0027 1.0141 1.1682
2131.521 1.2325 1.1925 1.1114 1.195 1.2838 1.2359 1.188 1.2657 1.4136 1.3425
2150.810 1.2398 1.2984 1.2694 1.3915 1.4842 1.3871 1.3808 1.3781 1.3826 1.2972
2170.100 1.2589 1.3614 1.2642 1.1571 1.1277 1.1233 1.271 1.3006 1.1732 1.1585
2189.390 1.1564 1.0995 1.2089 1.3409 1.2484 1.203 1.1663 1.2056 1.2593 1.1576
2208.680 1.1612 1.292 1.3099 1.3508 1.3432 1.2569 1.3486 1.2712 1.3033 1.3019
2227.970 1.2102 1.2944 1.29 1.2979 1.2287 1.0876 1.1375 1.3347 1.3212 1.2349
2247.259 1.3656 1.5516 1.7254 1.629 1.4733 1.4397 1.4617 1.5201 1.462 1.5281
2266.549 1.5909 1.5632 1.4559 1.4277 1.5197 1.512 1.6069 1.3667 1.2161 1.4681
2285.839 1.4273 1.3555 1.4748 1.5069 1.4895 1.4208 1.2761 1.4002 1.2636 1.181
2305.129 1.2263 1.2242 1.3707 1.2595 1.2865 1.4971 1.5728 1.3701 1.2997 1.35
2324.418 1.307 1.3414 1.1679 1.1118 1.3578 1.3123 1.2395 1.5828 1.6733 1.5427
2343.708 1.4978 1.5255 1.545 1.5019 1.7017 1.6099 1.3838 1.405 1.4049 1.434
2362.998 1.4358 1.556 1.5608 1.4113 1.52 1.5821 1.6126 1.5789 1.5469 1.4989
2382.288 1.2588 1.2529 1.3025 1.281 1.1977 1.3746 1.4973 1.3316 1.4796 1.5522
2401.578 1.4589 1.502 1.4867 1.3556 1.2995 1.4525 1.5737 1.6806 1.6506 1.4564
2420.867 1.3929 1.3583 1.4263 1.3528 1.2644 1.3637 1.328 1.3436 1.4461 1.3861
2440.157 1.2391 1.4061 1.4201 1.287 1.1732 1.0138 1.1748 1.3112 1.3507 1.3676
2459.447 1.2803 1.3992 1.3462 1.1892 1.2295 1.2999 1.334 1.1161 1.0759 1.3232
2478.737 1.1216 1.0017 1.0745 1.0511 1.1417 1.0995 1.1572 1.2859 1.2631 1.0697
2498.026 0.9927 1.2285 1.5137 1.3454 1.1153 1.2131 1.3093 1.2136 1.0845 1.19
2517.316 1.394 1.6032 1.6536 1.5623 1.6287 1.3776 1.0871 1.2237 1.4052 1.5416
2536.606 1.5163 1.42 1.4125 1.4895 1.3839 1.3463 1.5604 1.728 1.8031 1.7542
2555.896 1.919 1.919 1.7352 1.7245 1.6994 1.6873 1.6503 1.6899 1.8223 1.839
2575.186 1.849 2.019 2.029 1.7239 1.7626 1.999 1.929 2.049 2.129 2.009
2594.475 2.069 2.209 2.339 2.539 2.529 2.259 2.329 2.429 2.489 2.549
2613.765 2.299 2.289 2.359 2.429 2.439 2.369 2.389 2.379 2.499 2.519
2633.055 2.499 2.409 2.279 2.329 2.299 2.029 1.999 2.189 2.259 2.379
2652.345 2.419 2.469 2.479 2.259 2.339 2.369 2.139 1.979 2.069 1.989
2671.634 2.039 2.249 2.039 1.869 1.899 1.979 1.999 2.169 2.059 1.899
2690.924 1.939 1.7951 1.6967 1.6434 1.849 1.939 1.7143 1.5509 1.6886 1.6957
2710.214 1.4307 1.4956 1.4822 1.4085 1.3574 1.3562 1.6109 1.6358 1.6933 1.7816
2729.504 1.6765 1.5641 1.516 1.3375 1.4017 1.6335 1.5772 1.5616 1.636 1.608
2748.794 1.6635 1.7214 1.4906 1.5021 1.5608 1.4034 1.2635 1.4987 1.7713 1.849
2768.083 1.7976 1.5371 1.6546 1.839 1.7495 1.7169 1.6273 1.989 2.259 2.289
2787.373 2.219 1.889 1.8183 1.939 1.909 1.7619 1.839 1.7145 1.7447 1.959
2806.663 1.899 2.009 2.389 2.499 2.429 2.569 2.709 2.889 3.049 3.159
2825.953 3.409 3.709 3.739 3.639 3.679 3.979 4.579 5.049 4.919 4.989
2845.242 5.579 6.059 6.659 7.599 8.319 8.579 8.709 8.769 8.729 8.629
2864.532 8.399 7.849 7.369 6.969 6.629 6.309 5.739 5.469 5.599 5.619
2883.822 5.509 5.469 5.589 5.469 5.469 5.649 5.509 5.599 5.999 6.099
2903.112 5.999 6.189 6.529 6.849 6.829 6.649 6.889 7.209 7.469 7.649
2922.401 7.749 7.909 7.799 7.769 7.919 8.189 8.569 9.119 9.569 10.489
2941.691 12.019 13.249 14.069 14.719 15.119 14.969 14.559 13.949 13.309 12.569
2960.981 11.649 11.119 11.129 11.369 11.449 11.019 11.029 10.879 10.309 9.989
2980.271 9.239 8.559 8.009 7.229 6.549 6.029 5.949 6.119 5.839 5.729
2999.561 5.899 5.909 5.709 5.789 6.389 6.709 6.879 7.659 8.509 8.989
3018.850 9.399 9.719 9.879 9.419 8.419 7.349 6.389 5.669 4.839 4.339
3038.140 3.959 3.289 3.049 3.139 3.169 3.059 3.109 3.019 2.799 2.469
3057.430 2.369 2.479 2.149 1.969 1.959 2.039 2.399 2.559 2.399 2.619
3076.720 2.759 2.589 2.449 2.309 2.509 2.819 2.929 2.609 2.539 2.819
3096.009 2.849 3.089 3.069 2.809 2.609 2.429 2.139 2.049 2.169 1.929
3115.299 1.849 1.909 1.979 1.7962 2.089 2.349 1.7252 1.4452 1.6411 1.2563
3134.589 1.0988 1.5169 1.6723 1.4509 1.2587 1.3006 1.3644 1.5784 1.4685 1.4845
3153.879 1.7282 1.5613 1.31 1.3734 1.4205 1.3619 1.3911 1.3137 1.3184 1.2644
3173.169 1.2218 1.3386 1.2743 0.834381 0.54 1.1669 1.2905 1.1699 1.3763 1.1102
3192.458 1.1154 1.3489 1.6055 1.8107 1.5024 1.2961 1.4007 1.5135 1.4345 1.0697
3211.748 1.0488 1.2665 0.90355 0.614 1.0695 1.2823 0.88062 0.531 0.82652 1.1559
3231.038 1.1274 1.1252 0.82185 0.9874 1.1387 0.86989 1.0032 1.1689 0.9732 0.794
3250.328 1.0497 1.1388 0.9354 1.1478 1.2793 0.9516 0.84275 1.0473 1.0405 0.91259
3269.617 0.702 0.87548 1.0179 0.548 0.7886 1.2529 0.9882 0.656 1.0458 1.0517
3288.907 0.558 0.551 0.7308 0.90752 0.9393 0.65 0.375 0.837618 1.168 1.1828
3308.197 1.0879 0.7832 0.86101 0.84763 0.88853 0.9603 0.7316 0.721 0.7621 0.685
3327.487 0.671 0.612 0.626 0.9297 0.715 0.34 0.427 0.728 0.9302 0.662
3346.777 0.659 0.724 0.598 0.566 0.536 0.7603 0.86272 1.0731 0.9311 0.645
3366.066 0.9813 0.7897 0.462 0.431 0.585 0.61 0.248 0.441 1.0708 1.1457
3385.356 0.656 0.7893 1.135 0.828541 0.85806 1.229 1.0557 0.696 0.466 0.8424
3404.646 1.0685 0.482 0.361 0.374 0.406 0.7938 0.698 0.327 0.44 0.7734
3423.936 0.9989 0.87271 0.676 0.665 0.9643 1.3158 1.0497 0.88398 0.9937 0.7465
3443.225 0.32 0.36 0.673 0.82292 1.1857 1.3096 0.72 0.244 0.427 0.91278
3462.515 1.0746 0.88347 0.707 0.7627 0.7819 0.557 0.608 0.552 0.683 0.88636
3481.805 0.87879 0.7995 0.85175 0.85033 0.796 0.87665 0.625 0.379 0.199 0.257
3501.095 0.506 0.622 0.658 0.579 0.428 0.84741 0.87877 0.434 0.697 0.88892
3520.385 0.623 0.657 0.732 0.586 0.469 0.421 0.617 0.7553 0.7922 0.8033
3539.674 0.9455 0.7634 0.434 0.697 0.86048 0.7735 1.0243 1.098 1.0753 1.0137
3558.964 0.84932 1.0915 1.2467 0.8163 0.811 0.996 0.687 0.319 0.261 0.7729
3578.254 0.7952 0.711 0.549 0.346 0.9877 1.3811 1.2211 0.9802 0.829439 1.0215
3597.544 1.0586 1.3756 1.4208 0.86253 0.704 0.501 0.287 0.581 0.88349 0.836809
3616.833 0.558 0.689 0.8088 0.577 0.87535 1.2499 1.1551 0.91764 0.87478 1.1869
3636.123 1.1829 0.789 0.77 0.8106 0.7504 0.9629 1.232 0.84612 0.668 1.1783
3655.413 1.1144 1.0482 0.9305 0.677 0.71 0.7332 0.8017 0.8118 0.8094 0.62
3674.703 0.612 0.8034 1.0186 1.1892 1.1698 1.0647 0.9417 0.762 0.666 0.36
3693.993 0.223 0.504 0.683 0.8122 0.733 0.7361 0.596 0.541 0.551 0.35
3713.282 0.9291 1.2654 1.192 1.0507 0.721 0.9436 1.0856 0.7778 0.526 0.583
3732.572 0.7718 1.0216 0.9785 0.971 0.88863 0.621 0.669 0.25 0.181 0.82188
3751.862 0.528 0.151 0.229 0.573 0.9597 0.572 0.303 0.86964 0.88034 0.7814
3771.152 0.831603 0.87302 1.1785 0.87195 0.685 0.85001 0.687 0.626 0.63 0.554
3790.441 0.527 0.655 0.832675 0.298 0.287 0.689 0.9648 1.1227 0.7788 0.89593
3809.731 1.0472 0.773 0.669 0.652 0.355 0.496 0.9782 0.7543 0.675 0.92468
3829.021 0.9597 0.8493 0.7579 0.718 1.0412 0.9984 0.663 0.89811 1.0865 0.89406
3848.311 0.685 1.056 1.1744 0.9297 0.672 0.414 0.85672 1.0767 0.8125 0.7533
3867.601 0.7771 0.91568 1.0122 0.9331 1.0339 1.0756 1.3177 1.4232 1.2162 1.4545
3886.890 1.3965 1.0804 1.2518 1.3582 1.3263 1.352 1.4357 1.2414 0.84619 0.67
3906.180 0.44 0.728 0.9963 0.87047 0.7487 0.455 0.651 1.1218 1.0546 0.7301
3925.470 0.8425 0.83977 0.7383 0.9451 0.654 0.46 0.693 0.8104 0.7425 1.259
3944.760 1.4494 0.9918 0.8031 0.9852 1.284 1.2708 1.3541 1.087 0.664 0.606
3964.049 0.23 0 0.239 0.688 0.9525 1.0365 0.85796 0.578 0.8012 1.2557
3983.339 1.4197 1.0849 1.2139 1.4514 1.1673 0.7816 0.89875 1.0186 0.9585 1.0475
##END=
