##TITLE=2-Methyl-2-decanol
##JCAMP-DX=4.24
##DATA TYPE=INFRARED SPECTRUM
##ORIGIN=NIST Mass Spectrometry Data Center
##OWNER=NIST Standard Reference Data Program
Collection (C) 2018 copyright by the U.S. Secretary of Commerce
on behalf of the United States of America. All rights reserved.
##CAS REGISTRY NO=3396-02-9
##MOLFORM=C 11 H 24 O
##$NIST SOURCE=MSDC-IR
##SPECTROMETER/DATA SYSTEM=HP-GC/MS/IRD
##STATE=gas
##XUNITS=1/CM
##YUNITS=ABSORBANCE
##XFACTOR=1.0
##YFACTOR=0.000004600
##DELTAX=4.0
##FIRSTX=550.0
##LASTX=3846.0
##FIRSTY=0.000538
##MAXX=3846
##MINX=550
##MAXY=0.046
##MINY=0
##NPOINTS=825
##XYDATA=(X++(Y..Y))
550.0 117 81 58 45 34 34 26 14 12 16
590.0 11 3 8 22 26 31 42 44 41 50
630.0 55 44 44 41 27 29 40 52 66 64
670.0 44 41 52 63 71 75 75 76 91 120
710.0 147 161 167 176 176 169 164 170 175 171
750.0 169 176 184 189 190 177 157 135 118 109
790.0 108 109 101 85 86 92 92 93 97 89
830.0 90 99 98 105 111 118 129 139 156 174
870.0 194 229 268 309 368 436 514 595 676 733
910.0 754 753 744 729 692 645 594 535 472 419
950.0 384 357 333 304 278 255 229 209 188 170
990.0 158 149 140 144 147 142 147 164 170 180
1030.0 198 209 213 214 220 220 225 243 271 295
1070.0 325 363 403 449 495 538 579 609 636 666
1110.0 689 706 740 789 845 898 946 983 1015 1034
1150.0 1052 1064 1049 1009 944 877 827 797 793 801
1190.0 818 842 865 876 879 883 875 844 811 789
1230.0 774 746 712 684 662 645 620 603 591 576
1270.0 571 571 572 580 585 585 590 595 600 603
1310.0 608 612 615 618 622 634 653 675 696 716
1350.0 757 815 905 1040 1195 1313 1360 1341 1283 1166
1390.0 962 729 548 433 359 315 293 286 289 304
1430.0 338 387 449 533 630 746 867 974 1042 1037
1470.0 960 828 670 519 396 308 242 198 167 148
1510.0 132 113 99 89 82 76 70 65 58 54
1550.0 49 45 47 47 49 46 41 40 41 35
1590.0 31 28 30 35 35 32 31 28 26 29
1630.0 27 26 23 25 31 29 28 29 29 27
1670.0 25 27 28 25 25 25 21 24 23 20
1710.0 20 19 20 22 19 18 19 19 17 13
1750.0 15 17 17 14 17 19 16 14 15 17
1790.0 18 19 17 19 19 18 15 16 17 18
1830.0 15 15 16 17 16 18 19 14 9 9
1870.0 8 8 14 12 8 7 7 10 8 3
1910.0 5 6 7 10 7 6 7 9 10 9
1950.0 6 2 4 7 8 8 6 5 8 11
1990.0 7 5 8 8 8 8 11 14 13 14
2030.0 15 15 17 18 15 13 14 15 12 12
2070.0 13 12 15 13 10 11 10 10 5 3
2110.0 5 7 9 8 7 6 8 10 6 4
2150.0 11 16 12 9 8 10 12 8 0 0
2190.0 6 7 5 7 6 5 5 4 5 2
2230.0 6 7 5 6 7 8 11 11 10 9
2270.0 9 11 15 15 13 13 14 14 12 13
2310.0 14 15 17 14 12 13 11 11 13 16
2350.0 16 11 11 16 17 15 17 20 17 16
2390.0 17 16 16 17 15 16 17 16 16 14
2430.0 17 14 11 13 14 19 17 14 16 20
2470.0 17 17 19 17 16 17 20 21 20 20
2510.0 21 22 21 21 21 23 26 31 36 39
2550.0 36 32 35 39 38 36 38 42 44 44
2590.0 46 44 46 52 59 63 59 61 71 73
2630.0 71 75 75 81 87 87 93 98 98 99
2670.0 102 107 113 114 111 112 115 112 106 105
2710.0 110 114 115 124 129 136 143 148 151 152
2750.0 154 158 161 166 169 174 183 195 212 229
2790.0 253 276 292 321 353 389 434 492 551 617
2830.0 703 814 970 1204 1536 1992 2540 3080 3489 3656
2870.0 3597 3442 3283 3145 3034 2964 2987 3159 3482 3926
2910.0 4496 5226 6166 7318 8538 9524 10000 9827 9066 7958
2950.0 6839 6021 5681 5796 6106 6264 6043 5412 4524 3542
2990.0 2628 1922 1431 1095 865 700 586 505 442 392
3030.0 352 322 292 270 250 232 222 212 208 202
3070.0 186 177 169 163 157 148 146 143 133 128
3110.0 126 122 119 111 109 114 107 98 100 99
3150.0 88 88 88 85 87 84 84 88 89 86
3190.0 78 80 84 87 87 79 71 62 58 54
3230.0 54 56 54 50 48 48 39 35 39 37
3270.0 27 23 17 15 20 24 21 18 18 20
3310.0 28 34 36 37 35 32 27 28 26 16
3350.0 17 27 27 25 34 40 35 31 31 30
3390.0 31 33 28 28 30 30 44 48 34 30
3430.0 32 29 26 28 30 31 28 25 24 18
3470.0 18 28 30 25 20 18 17 10 2 10
3510.0 19 15 12 13 13 8 4 7 12 10
3550.0 8 7 8 12 17 15 12 17 14 6
3590.0 16 28 36 35 35 58 77 83 106 152
3630.0 216 288 343 356 318 251 190 146 102 76
3670.0 64 45 40 40 37 28 13 19 30 29
3710.0 23 20 20 22 26 17 15 18 14 13
3750.0 12 7 10 19 23 32 29 21 17 16
3790.0 14 12 18 23 28 25 23 33 33 29
3830.0 31 32 37 42 38
##END=
