##TITLE=Tebuthiuron
##JCAMP-DX=4.24
##DATA TYPE=INFRARED SPECTRUM
##ORIGIN=NIST Mass Spectrometry Data Center
##OWNER=NIST Standard Reference Data Program
Collection (C) 2018 copyright by the U.S. Secretary of Commerce
on behalf of the United States of America. All rights reserved.
##CAS REGISTRY NO=34014-18-1
##MOLFORM=C 9 H 16 N 4 O S
##$NIST SOURCE=MSDC-IR
##SPECTROMETER/DATA SYSTEM=HP-GC/MS/IRD
##STATE=gas
##XUNITS=1/CM
##YUNITS=ABSORBANCE
##XFACTOR=1.0
##YFACTOR=0.000000600
##DELTAX=4.0
##FIRSTX=550.0
##LASTX=3846.0
##FIRSTY=0.000349
##MAXX=3846
##MINX=550
##MAXY=0.006
##MINY=0
##NPOINTS=825
##XYDATA=(X++(Y..Y))
550.0 582 506 540 553 566 620 482 328 409 646
590.0 695 612 527 622 705 705 747 689 661 819
630.0 873 806 726 672 572 511 615 702 695 603
670.0 549 529 507 536 531 507 551 516 407 389
710.0 447 382 329 407 462 417 511 696 826 929
750.0 935 916 820 618 579 585 469 422 442 414
790.0 308 326 411 283 196 192 209 196 15 45
830.0 168 135 128 136 164 151 99 106 86 59
870.0 132 226 151 85 153 138 100 138 140 110
910.0 82 63 102 110 47 12 59 70 84 63
950.0 17 122 135 108 108 33 55 52 49 108
990.0 153 98 114 207 257 337 446 475 481 552
1030.0 609 713 802 1019 1389 1746 2247 2672 2759 2673
1070.0 2435 2099 1861 1641 1327 1112 887 648 572 477
1110.0 424 550 538 421 368 463 615 691 640 633
1150.0 775 742 797 889 921 1050 1075 1091 1230 1381
1190.0 1495 1746 2068 2294 2437 2484 2476 2363 2346 2392
1230.0 2242 2178 2239 2232 2171 2080 1939 1802 1729 1641
1270.0 1490 1411 1330 1275 1289 1295 1353 1436 1487 1535
1310.0 1561 1525 1435 1319 1158 1018 925 835 810 857
1350.0 951 1059 1243 1500 1762 2026 2310 2614 2769 2687
1390.0 2496 2148 1812 1670 1738 2013 2284 2304 2159 1829
1430.0 1416 1167 1112 1157 1232 1356 1525 1728 1870 2039
1470.0 2147 2178 2294 2468 2672 2868 3035 3271 3736 4573
1510.0 5851 7393 8809 9725 10000 9618 8709 7509 6197 4841
1550.0 3603 2642 1947 1499 1214 1024 900 801 709 611
1590.0 538 493 488 505 483 413 369 362 355 389
1630.0 385 338 350 360 356 357 338 377 407 446
1670.0 501 517 499 468 409 326 288 278 264 272
1710.0 307 292 249 238 238 226 233 227 184 179
1750.0 187 184 193 193 189 220 245 222 171 138
1790.0 186 186 182 188 192 216 204 200 202 187
1830.0 195 203 194 182 179 196 219 211 197 198
1870.0 193 181 171 153 165 176 161 157 146 131
1910.0 134 121 133 133 131 151 153 124 101 138
1950.0 171 158 164 178 184 173 153 91 90 152
1990.0 142 125 107 118 158 127 137 178 148 139
2030.0 143 149 174 197 194 189 219 206 159 150
2070.0 158 147 142 155 150 128 122 142 131 81
2110.0 112 167 181 134 109 147 151 162 157 95
2150.0 109 139 137 87 67 83 79 125 160 139
2190.0 82 77 159 172 160 179 187 238 294 288
2230.0 274 349 392 415 483 510 569 650 675 662
2270.0 703 771 762 757 757 675 602 575 546 550
2310.0 548 506 416 339 272 215 197 222 225 201
2350.0 191 160 124 81 71 56 2 18 49 62
2390.0 65 68 57 61 73 74 44 57 97 63
2430.0 45 89 108 95 78 45 45 87 81 54
2470.0 47 55 57 15 13 29 42 28 43 68
2510.0 74 87 69 97 74 45 102 92 34 47
2550.0 64 66 69 98 116 89 44 33 72 85
2590.0 84 80 87 96 95 92 88 79 47 64
2630.0 92 71 37 51 65 83 144 114 92 95
2670.0 56 68 165 164 123 125 105 121 172 166
2710.0 138 125 169 176 134 117 122 151 177 156
2750.0 152 152 122 165 213 179 161 188 226 260
2790.0 220 229 287 309 333 403 486 487 483 491
2830.0 526 508 504 562 594 652 702 839 1049 1198
2870.0 1314 1411 1494 1540 1588 1647 1666 1773 1922 2011
2910.0 2129 2236 2299 2409 2531 2626 2696 2856 3077 3265
2950.0 3533 3905 4477 5272 5935 6204 5995 5213 4205 3358
2990.0 2706 2185 1785 1372 1050 858 715 620 483 388
3030.0 333 318 305 289 341 291 230 298 281 246
3070.0 247 330 348 267 267 270 265 248 127 116
3110.0 159 145 165 208 233 209 203 146 112 107
3150.0 151 218 175 91 66 163 217 172 65 98
3190.0 179 194 236 206 151 164 174 123 162 217
3230.0 199 212 205 155 156 177 211 181 125 142
3270.0 102 38 139 236 224 80 0 128 164 54
3310.0 52 106 141 204 242 245 229 148 72 175
3350.0 308 226 133 184 222 173 174 238 248 280
3390.0 242 142 135 236 295 280 273 392 562 600
3430.0 668 732 760 746 700 768 874 854 817 889
3470.0 943 838 740 737 607 462 407 376 322 322
3510.0 361 298 331 313 307 362 339 385 273 185
3550.0 189 155 219 333 368 285 227 265 262 245
3590.0 248 296 244 151 184 230 176 177 276 247
3630.0 240 388 356 250 252 216 232 254 202 189
3670.0 236 265 275 310 300 256 258 250 256 312
3710.0 293 165 137 205 230 212 174 167 257 306
3750.0 254 158 148 161 245 358 188 125 200 220
3790.0 144 112 164 191 176 132 114 118 76 82
3830.0 178 227 223 255 201
##END=
