##TITLE=5-Methyl-2-hexene (c,t)
##JCAMP-DX=4.24
##DATA TYPE=INFRARED SPECTRUM
##ORIGIN=NIST Mass Spectrometry Data Center
##OWNER=NIST Standard Reference Data Program
Collection (C) 2018 copyright by the U.S. Secretary of Commerce
on behalf of the United States of America. All rights reserved.
##CAS REGISTRY NO=3404-62-4
##MOLFORM=C 7 H 14
##$NIST SOURCE=MSDC-IR
##SPECTROMETER/DATA SYSTEM=HP-GC/MS/IRD
##STATE=gas
##XUNITS=1/CM
##YUNITS=ABSORBANCE
##XFACTOR=1.0
##YFACTOR=0.000002600
##DELTAX=4.0
##FIRSTX=550.0
##LASTX=3846.0
##FIRSTY=0.000439
##MAXX=3846
##MINX=550
##MAXY=0.026
##MINY=0
##NPOINTS=825
##XYDATA=(X++(Y..Y))
550.0 169 56 17 8 8 16 28 54 53 83
590.0 83 63 72 111 146 146 126 102 98 97
630.0 115 111 87 75 80 121 135 117 90 100
670.0 159 193 183 143 126 129 159 175 156 162
710.0 180 162 127 113 121 156 174 179 173 153
750.0 157 167 165 164 157 167 169 154 151 162
790.0 163 154 172 191 185 189 202 207 193 181
830.0 176 186 200 199 194 190 177 198 207 218
870.0 264 280 252 245 273 285 300 330 377 425
910.0 471 520 578 655 725 774 846 974 1147 1352
950.0 1594 1857 2082 2196 2201 2125 1926 1610 1295 1030
990.0 830 693 601 537 485 452 437 427 409 409
1030.0 412 421 420 403 411 410 401 393 378 363
1070.0 341 293 268 260 235 238 237 255 308 309
1110.0 290 287 276 249 248 253 245 245 261 278
1150.0 299 347 420 460 469 464 420 354 291 256
1190.0 233 204 189 200 208 220 231 235 250 250
1230.0 243 251 240 224 224 219 231 263 295 334
1270.0 339 332 355 345 309 287 280 286 298 318
1310.0 336 339 337 349 362 399 443 477 511 548
1350.0 580 618 692 782 862 945 1069 1194 1243 1192
1390.0 1094 980 834 678 560 501 485 497 539 611
1430.0 706 807 929 1055 1160 1263 1337 1378 1383 1362
1470.0 1303 1178 1033 880 744 631 530 448 388 340
1510.0 291 264 248 236 224 205 191 184 191 180
1550.0 163 155 150 143 132 124 120 118 126 125
1590.0 114 129 130 115 114 118 121 128 122 112
1630.0 117 121 119 117 128 141 139 136 141 142
1670.0 144 149 151 151 148 150 166 176 174 170
1710.0 167 163 148 135 122 110 105 102 97 89
1750.0 91 90 85 87 95 99 98 100 105 105
1790.0 105 103 96 86 80 80 79 75 81 80
1830.0 72 73 74 66 58 55 52 56 61 53
1870.0 44 48 55 50 44 47 50 42 41 48
1910.0 49 43 42 42 46 46 42 38 37 38
1950.0 37 38 38 34 29 31 35 34 43 52
1990.0 56 56 51 51 53 47 42 37 29 34
2030.0 36 27 15 11 20 23 21 23 21 22
2070.0 22 20 15 19 19 16 23 18 7 5
2110.0 3 8 12 8 8 3 4 13 13 13
2150.0 15 12 15 19 21 20 13 19 27 23
2190.0 24 27 29 22 19 23 20 18 15 14
2230.0 20 18 16 14 10 14 21 25 23 20
2270.0 20 14 0 7 22 24 25 29 27 30
2310.0 37 22 16 19 24 33 26 22 24 23
2350.0 30 35 42 55 53 57 57 48 43 40
2390.0 36 42 48 42 38 44 36 32 54 64
2430.0 54 52 55 55 52 42 38 43 40 36
2470.0 41 50 51 58 62 50 46 53 64 77
2510.0 78 70 77 78 59 61 80 88 81 71
2550.0 78 84 82 88 87 84 86 88 96 95
2590.0 93 111 111 101 107 114 108 110 123 123
2630.0 118 119 119 130 139 137 135 131 138 138
2670.0 140 147 129 128 136 138 149 160 161 169
2710.0 181 191 209 238 270 282 299 325 328 326
2750.0 314 296 283 280 291 300 311 309 313 329
2790.0 359 374 382 419 465 504 566 646 747 872
2830.0 1016 1166 1327 1484 1635 1794 2013 2335 2736 3188
2870.0 3637 3978 4254 4535 4787 5022 5283 5567 5829 6053
2910.0 6216 6342 6496 6668 6781 6843 6879 6903 6960 7179
2950.0 7671 8479 9437 10000 9887 9298 8270 6851 5286 3901
2990.0 2956 2414 2114 1984 1919 1893 1889 1867 1820 1747
3030.0 1644 1511 1353 1185 1035 907 801 712 637 584
3070.0 550 529 500 480 472 447 408 385 386 372
3110.0 341 327 323 310 279 252 255 250 258 261
3150.0 234 230 219 221 219 206 215 220 211 210
3190.0 210 210 188 150 158 154 132 132 122 122
3230.0 110 97 106 98 84 83 88 101 92 80
3270.0 90 90 80 78 70 63 71 71 75 88
3310.0 75 65 79 65 48 50 54 79 79 64
3350.0 57 61 51 45 61 68 62 45 47 52
3390.0 45 53 65 56 58 73 55 41 52 46
3430.0 20 32 48 34 45 52 32 28 34 32
3470.0 32 23 7 6 29 43 40 46 48 35
3510.0 26 26 32 18 2 0 16 41 43 32
3550.0 33 42 41 54 49 25 26 45 52 33
3590.0 19 21 20 43 43 10 13 31 37 24
3630.0 28 46 37 39 61 65 49 55 48 42
3670.0 50 35 37 36 29 27 26 38 45 53
3710.0 62 44 30 58 52 31 33 44 56 49
3750.0 60 56 34 58 77 76 60 41 52 61
3790.0 62 69 80 82 71 77 96 104 86 74
3830.0 72 74 77 96 96
##END=
