##TITLE=2-Ethyl-3-methyl-1-pentene
##JCAMP-DX=4.24
##DATA TYPE=INFRARED SPECTRUM
##ORIGIN=NIST Mass Spectrometry Data Center
##OWNER=NIST Standard Reference Data Program
Collection (C) 2018 copyright by the U.S. Secretary of Commerce
on behalf of the United States of America. All rights reserved.
##CAS REGISTRY NO=3404-67-9
##MOLFORM=C 8 H 16
##$NIST SOURCE=MSDC-IR
##SPECTROMETER/DATA SYSTEM=HP-GC/MS/IRD
##STATE=gas
##XUNITS=1/CM
##YUNITS=ABSORBANCE
##XFACTOR=1.0
##YFACTOR=0.000002400
##DELTAX=4.0
##FIRSTX=550.0
##LASTX=3846.0
##FIRSTY=0.000355
##MAXX=3846
##MINX=550
##MAXY=0.024
##MINY=0
##NPOINTS=825
##XYDATA=(X++(Y..Y))
550.0 148 118 97 97 31 0 10 28 38 11
590.0 39 34 6 12 24 45 50 40 51 80
630.0 89 64 43 10 7 36 46 58 74 88
670.0 62 50 89 93 90 102 108 106 94 109
710.0 143 158 177 194 218 239 239 236 217 223
750.0 235 225 233 234 229 224 208 204 208 219
790.0 201 204 243 279 310 334 404 462 509 550
830.0 557 565 546 514 471 416 354 302 276 260
870.0 246 223 209 215 211 212 212 203 192 175
910.0 175 177 171 183 205 208 207 207 200 203
950.0 193 193 210 210 207 204 215 218 219 222
990.0 211 194 178 171 165 148 128 126 138 138
1030.0 126 124 137 160 181 189 200 207 207 228
1070.0 261 288 307 324 331 331 336 334 347 380
1110.0 419 442 445 434 388 311 230 180 145 123
1150.0 112 102 111 125 136 141 161 183 191 208
1190.0 230 231 215 208 208 206 196 199 207 217
1230.0 227 229 224 206 199 200 197 199 176 163
1270.0 160 176 206 218 234 250 265 281 294 314
1310.0 321 318 317 320 334 345 360 389 419 458
1350.0 488 512 547 603 694 815 946 1042 1093 1088
1390.0 1016 876 727 620 551 515 508 525 576 648
1430.0 738 848 968 1081 1183 1264 1313 1317 1280 1204
1470.0 1097 969 829 690 575 486 413 357 315 287
1510.0 268 255 241 221 214 214 212 207 200 201
1550.0 201 192 181 179 172 165 151 145 159 162
1590.0 155 146 140 139 137 132 129 128 136 139
1630.0 133 133 140 146 150 146 156 186 196 189
1670.0 184 175 158 130 97 83 74 69 65 61
1710.0 70 62 51 53 49 43 42 49 50 41
1750.0 38 38 32 31 40 35 34 42 37 34
1790.0 33 40 41 36 36 37 34 38 41 38
1830.0 32 30 32 32 34 36 32 35 39 33
1870.0 34 38 34 30 28 23 28 33 33 27
1910.0 22 26 29 26 19 18 25 32 33 24
1950.0 23 30 31 29 31 30 26 26 24 26
1990.0 31 26 13 9 16 19 17 15 25 34
2030.0 20 14 24 26 23 28 27 18 18 20
2070.0 20 21 21 13 7 10 14 16 13 18
2110.0 8 3 6 8 16 16 10 11 12 11
2150.0 15 20 20 21 19 15 18 24 21 17
2190.0 19 23 25 22 15 13 15 14 7 1
2230.0 9 17 15 14 12 17 18 12 12 13
2270.0 17 20 18 15 7 11 17 15 5 9
2310.0 27 29 23 18 24 25 23 25 23 28
2350.0 28 27 29 32 35 35 35 31 31 27
2390.0 27 33 36 40 36 36 42 42 40 42
2430.0 42 35 27 38 43 44 47 35 33 40
2470.0 38 26 20 25 29 37 41 38 33 32
2510.0 40 49 45 38 44 45 42 47 51 45
2550.0 48 58 58 62 66 65 62 57 60 68
2590.0 72 65 63 67 69 67 71 75 74 74
2630.0 76 87 92 96 98 101 96 97 117 132
2670.0 128 128 130 137 136 136 146 146 151 154
2710.0 158 166 189 219 244 275 310 330 335 336
2750.0 326 301 286 275 264 270 292 304 328 354
2790.0 382 420 455 501 546 594 651 716 804 913
2830.0 1056 1246 1490 1803 2206 2707 3282 3876 4417 4831
2870.0 5117 5288 5353 5288 5192 5128 5068 5096 5319 5776
2910.0 6435 7279 8205 9032 9659 10000 9954 9536 8903 8271
2950.0 7796 7554 7609 7873 7998 7784 7253 6429 5450 4548
2990.0 3841 3270 2802 2415 2095 1845 1656 1512 1405 1313
3030.0 1236 1181 1121 1048 981 921 849 774 725 675
3070.0 611 563 517 477 445 417 388 361 343 323
3110.0 301 291 284 265 235 222 206 201 193 166
3150.0 165 165 154 150 146 134 126 123 124 118
3190.0 108 107 103 101 95 90 92 82 77 76
3230.0 66 68 66 53 63 72 65 64 66 57
3270.0 54 50 37 49 56 50 52 52 58 47
3310.0 39 42 40 40 47 52 52 44 45 48
3350.0 46 52 50 41 37 41 42 37 37 41
3390.0 42 43 39 26 28 38 44 42 33 27
3430.0 17 15 22 29 21 18 21 24 31 30
3470.0 27 24 15 12 7 8 9 2 9 24
3510.0 19 10 16 19 31 39 25 27 26 24
3550.0 18 12 14 14 12 6 5 12 15 19
3590.0 21 17 18 19 20 20 22 24 31 35
3630.0 25 22 28 30 19 5 16 18 16 25
3670.0 38 29 18 28 23 3 10 30 31 33
3710.0 35 35 22 20 19 13 11 10 14 14
3750.0 24 36 35 28 24 25 34 39 34 19
3790.0 9 18 22 11 13 34 31 22 31 34
3830.0 39 39 42 48 60
##END=
