##TITLE=3,3-Dimethyl-1-pentene
##JCAMP-DX=4.24
##DATA TYPE=INFRARED SPECTRUM
##ORIGIN=NIST Mass Spectrometry Data Center
##OWNER=NIST Standard Reference Data Program
Collection (C) 2018 copyright by the U.S. Secretary of Commerce
on behalf of the United States of America. All rights reserved.
##CAS REGISTRY NO=3404-73-7
##MOLFORM=C 7 H 14
##$NIST SOURCE=MSDC-IR
##SPECTROMETER/DATA SYSTEM=HP-GC/MS/IRD
##STATE=gas
##XUNITS=1/CM
##YUNITS=ABSORBANCE
##XFACTOR=1.0
##YFACTOR=0.000005700
##DELTAX=4.0
##FIRSTX=550.0
##LASTX=3846.0
##FIRSTY=0.000416
##MAXX=3846
##MINX=550
##MAXY=0.057
##MINY=0
##NPOINTS=825
##XYDATA=(X++(Y..Y))
550.0 73 47 18 11 16 6 8 21 2 5
590.0 21 17 26 47 37 42 55 49 43 41
630.0 55 54 53 77 91 104 139 186 232 287
670.0 348 396 429 419 380 341 291 236 187 156
710.0 133 111 96 83 67 51 42 37 33 42
750.0 50 46 49 64 83 111 135 159 193 209
790.0 191 175 160 131 107 87 76 59 56 79
830.0 87 101 134 155 166 183 195 196 204 220
870.0 226 230 258 313 413 575 817 1120 1405 1636
910.0 1937 2056 1856 1667 1443 1113 818 613 478 420
950.0 389 357 341 335 342 360 392 445 525 631
990.0 751 867 974 1067 1093 1037 946 838 702 573
1030.0 465 387 346 312 300 298 300 312 311 299
1070.0 291 279 253 219 188 158 136 120 102 89
1110.0 84 83 81 80 81 86 100 109 122 135
1150.0 158 187 217 256 295 328 354 379 394 400
1190.0 396 372 338 305 276 246 216 187 163 140
1230.0 119 109 99 90 75 62 64 62 59 54
1270.0 60 66 71 84 93 97 106 112 109 105
1310.0 110 112 108 110 122 134 149 181 238 317
1350.0 413 515 620 821 1049 1079 1092 1167 1192 1114
1390.0 957 846 763 694 654 629 630 643 607 572
1430.0 563 546 553 607 703 835 968 1088 1169 1205
1470.0 1185 1115 1004 846 694 551 413 300 216 159
1510.0 130 110 89 77 75 72 65 59 60 66
1550.0 74 77 76 93 111 129 143 152 163 176
1590.0 178 173 177 187 201 232 276 346 449 551
1630.0 630 686 721 706 637 542 420 303 205 146
1670.0 114 95 84 70 62 60 47 37 36 37
1710.0 38 36 35 36 32 28 25 22 19 21
1750.0 21 21 24 20 21 24 21 23 27 27
1790.0 23 30 38 44 61 90 123 148 173 193
1830.0 199 192 173 145 117 90 64 46 34 27
1870.0 28 27 25 22 21 24 25 23 23 18
1910.0 19 20 14 13 16 18 13 12 16 17
1950.0 16 14 14 14 13 13 17 25 28 28
1990.0 26 22 23 25 22 18 14 13 15 16
2030.0 13 12 12 10 7 9 11 10 11 14
2070.0 16 17 14 14 12 13 15 15 11 8
2110.0 8 8 5 5 1 1 6 3 0 0
2150.0 1 0 1 2 3 4 3 4 4 2
2190.0 2 1 0 3 5 3 1 4 6 2
2230.0 4 5 5 6 6 11 14 11 8 8
2270.0 10 9 12 15 14 14 14 15 16 15
2310.0 18 21 24 19 14 13 14 10 6 8
2350.0 14 12 8 10 16 17 17 20 25 27
2390.0 26 25 23 21 21 25 23 21 24 20
2430.0 19 17 13 10 12 17 16 17 16 13
2470.0 16 18 18 11 10 15 17 19 19 21
2510.0 22 22 21 22 25 29 28 20 18 22
2550.0 27 28 25 27 26 27 28 27 28 34
2590.0 31 24 29 38 46 53 57 56 59 62
2630.0 62 61 64 68 61 60 60 60 68 71
2670.0 64 61 63 63 65 69 72 77 80 85
2710.0 89 100 110 114 118 123 134 138 139 140
2750.0 143 144 145 152 155 156 162 168 178 192
2790.0 200 210 217 230 247 263 286 315 340 382
2830.0 440 508 601 731 894 1088 1330 1605 1880 2139
2870.0 2392 2668 2913 3071 3169 3256 3322 3421 3578 3729
2910.0 3919 4222 4502 4671 4842 5016 5143 5230 5356 5668
2950.0 6248 7105 8191 9151 9788 10000 9639 8825 7570 6026
2990.0 4565 3420 2613 2085 1766 1522 1295 1120 960 810
3030.0 688 604 548 518 516 523 543 587 649 736
3070.0 859 1005 1109 1158 1269 1343 1145 948 830 644
3110.0 477 355 284 245 219 205 196 185 183 180
3150.0 170 168 168 162 154 147 139 139 142 137
3190.0 137 137 132 130 134 131 121 123 114 112
3230.0 111 104 98 96 92 83 81 73 69 70
3270.0 61 59 63 59 52 47 41 43 42 41
3310.0 44 44 49 48 50 48 45 48 45 42
3350.0 40 35 34 34 34 34 36 36 29 24
3390.0 23 27 28 30 27 22 27 27 25 22
3430.0 26 29 21 22 24 23 26 19 16 17
3470.0 16 15 13 9 12 17 14 14 12 11
3510.0 17 18 12 3 8 10 9 14 13 9
3550.0 3 9 22 21 13 14 15 11 10 16
3590.0 11 5 6 10 13 12 10 10 13 12
3630.0 12 14 9 8 7 7 11 16 23 11
3670.0 0 7 15 22 20 16 20 21 20 15
3710.0 10 17 15 15 17 11 7 12 17 16
3750.0 4 2 20 32 22 15 14 14 23 31
3790.0 34 31 28 23 20 19 11 9 16 11
3830.0 10 18 14 15 25
##END=
