##TITLE=3-Methyl-3-hexene (c,t)
##JCAMP-DX=4.24
##DATA TYPE=INFRARED SPECTRUM
##ORIGIN=NIST Mass Spectrometry Data Center
##OWNER=NIST Standard Reference Data Program
Collection (C) 2018 copyright by the U.S. Secretary of Commerce
on behalf of the United States of America. All rights reserved.
##CAS REGISTRY NO=3404-65-7
##MOLFORM=C 7 H 14
##$NIST SOURCE=MSDC-IR
##SPECTROMETER/DATA SYSTEM=HP-GC/MS/IRD
##STATE=gas
##XUNITS=1/CM
##YUNITS=ABSORBANCE
##XFACTOR=1.0
##YFACTOR=0.000002100
##DELTAX=4.0
##FIRSTX=550.0
##LASTX=3846.0
##FIRSTY=0.000764
##MAXX=3846
##MINX=550
##MAXY=0.021
##MINY=0
##NPOINTS=825
##XYDATA=(X++(Y..Y))
550.0 364 307 301 278 240 244 238 179 152 170
590.0 134 94 75 70 88 70 53 64 80 81
630.0 28 12 82 114 94 60 42 64 76 45
670.0 40 39 29 44 61 65 48 92 119 82
710.0 77 102 113 137 155 129 176 203 181 180
750.0 195 211 168 138 164 171 174 196 203 215
790.0 233 242 235 230 249 285 289 279 284 323
830.0 386 426 464 551 621 679 685 645 597 523
870.0 452 387 355 345 322 330 353 324 272 241
910.0 218 176 154 168 164 151 140 131 159 172
950.0 176 195 188 177 178 172 166 177 196 210
990.0 231 249 275 315 328 321 322 344 339 305
1030.0 299 286 267 270 304 356 386 419 449 479
1070.0 498 497 469 399 333 305 283 262 240 230
1110.0 248 276 297 306 298 288 244 202 192 165
1150.0 136 124 137 137 143 162 162 181 202 216
1190.0 226 234 245 256 252 222 204 191 175 157
1230.0 148 145 144 157 165 161 166 179 177 184
1270.0 190 193 192 199 236 288 336 387 445 509
1310.0 565 588 567 520 475 432 370 334 326 322
1350.0 345 379 424 490 573 678 784 853 902 917
1390.0 896 837 741 666 598 544 517 520 544 600
1430.0 677 754 846 952 1069 1175 1259 1323 1319 1252
1470.0 1160 1037 905 766 624 523 441 374 336 305
1510.0 286 273 249 229 222 220 217 209 205 202
1550.0 193 184 184 185 180 158 153 148 136 138
1590.0 133 132 133 136 133 130 122 110 119 128
1630.0 126 121 118 125 141 161 176 188 201 195
1670.0 185 164 150 129 116 119 113 94 81 101
1710.0 94 71 61 52 53 54 50 46 38 41
1750.0 42 23 25 39 34 30 35 31 23 28
1790.0 30 35 37 47 49 32 29 36 39 41
1830.0 47 51 46 37 38 44 42 41 44 48
1870.0 41 26 29 40 45 41 37 35 36 31
1910.0 35 45 35 25 21 22 31 28 25 33
1950.0 27 15 24 25 18 18 17 17 25 24
1990.0 14 7 14 26 34 37 28 20 26 36
2030.0 31 26 28 27 21 22 24 21 19 16
2070.0 11 20 25 27 26 16 13 16 7 13
2110.0 29 25 16 11 8 4 12 21 21 25
2150.0 25 30 33 25 28 29 26 27 27 24
2190.0 16 13 16 14 8 17 22 20 16 13
2230.0 20 8 2 6 3 6 9 20 28 24
2270.0 22 19 8 0 10 15 15 23 15 4
2310.0 16 19 13 17 20 23 17 15 28 32
2350.0 21 23 22 15 18 19 23 33 31 33
2390.0 43 47 38 34 37 33 39 48 45 32
2430.0 25 31 24 12 21 34 33 28 31 30
2470.0 23 14 2 12 21 27 32 28 34 31
2510.0 22 12 5 18 27 19 20 29 29 30
2550.0 36 29 27 34 41 43 44 36 16 20
2590.0 39 48 40 20 29 35 32 44 56 63
2630.0 59 61 51 43 54 56 42 31 32 35
2670.0 43 44 42 47 57 58 60 61 65 80
2710.0 82 99 132 157 169 188 208 205 210 214
2750.0 214 226 224 229 231 235 254 273 279 281
2790.0 299 330 360 388 441 489 526 592 685 782
2830.0 922 1106 1323 1577 1863 2187 2525 2856 3171 3496
2870.0 3874 4300 4647 4853 5015 5104 5070 4986 4890 4875
2910.0 4941 5064 5235 5472 5803 6198 6538 6715 6778 6852
2950.0 7040 7421 8118 9041 9747 10000 9809 9167 7930 6417
2990.0 5172 4275 3596 3042 2613 2272 1978 1746 1573 1429
3030.0 1309 1197 1080 988 908 831 771 713 648 580
3070.0 533 479 431 421 396 365 342 319 304 279
3110.0 268 254 239 233 204 189 206 207 186 176
3150.0 176 176 157 138 132 130 128 107 106 99
3190.0 97 109 82 57 53 61 63 53 67 50
3230.0 41 54 43 29 35 44 36 41 47 37
3270.0 21 21 22 21 8 2 15 23 26 23
3310.0 14 16 33 26 24 57 59 34 30 40
3350.0 54 34 22 30 26 16 25 33 28 31
3390.0 32 40 28 19 50 67 51 40 51 55
3430.0 48 36 45 45 39 33 28 42 54 58
3470.0 65 38 32 60 41 28 38 43 57 44
3510.0 29 58 69 38 33 46 30 19 46 51
3550.0 53 75 62 34 41 60 56 52 65 48
3590.0 49 58 69 81 76 70 82 83 46 26
3630.0 41 73 69 62 62 53 54 61 74 73
3670.0 79 76 74 78 99 127 98 68 81 101
3710.0 94 66 45 42 37 26 69 101 103 90
3750.0 61 57 66 78 106 109 95 80 83 104
3790.0 73 49 73 75 64 60 60 63 77 83
3830.0 83 88 99 100 64
##END=
