##TITLE=3-Methyl-1-hexene
##JCAMP-DX=4.24
##DATA TYPE=INFRARED SPECTRUM
##ORIGIN=NIST Mass Spectrometry Data Center
##OWNER=NIST Standard Reference Data Program
Collection (C) 2018 copyright by the U.S. Secretary of Commerce
on behalf of the United States of America. All rights reserved.
##CAS REGISTRY NO=3404-61-3
##MOLFORM=C 7 H 14
##$NIST SOURCE=MSDC-IR
##SPECTROMETER/DATA SYSTEM=HP-GC/MS/IRD
##STATE=gas
##XUNITS=1/CM
##YUNITS=ABSORBANCE
##XFACTOR=1.0
##YFACTOR=0.000004100
##DELTAX=4.0
##FIRSTX=550.0
##LASTX=3846.0
##FIRSTY=0.000369
##MAXX=3846
##MINX=550
##MAXY=0.041
##MINY=0
##NPOINTS=825
##XYDATA=(X++(Y..Y))
550.0 90 48 32 50 60 56 47 44 32 37
590.0 47 39 21 24 46 58 51 62 92 101
630.0 99 89 114 151 163 187 216 257 306 364
670.0 414 427 416 373 308 242 189 154 127 109
710.0 102 96 100 109 128 167 197 211 209 195
750.0 180 159 137 98 69 53 27 8 0 5
790.0 27 43 35 34 39 61 72 64 72 93
830.0 121 123 119 126 133 145 158 170 184 200
870.0 221 248 287 366 477 631 882 1240 1696 2065
910.0 2318 2453 2389 2196 1799 1341 1007 790 646 538
950.0 452 399 381 389 401 445 544 678 844 979
990.0 1051 1094 1070 973 811 645 523 431 370 325
1030.0 292 265 236 209 187 169 155 132 114 125
1070.0 132 119 122 141 156 161 170 188 209 216
1110.0 213 201 194 193 195 193 192 190 177 157
1150.0 138 122 99 80 73 70 52 40 48 45
1190.0 32 27 28 34 41 42 54 68 74 78
1230.0 83 92 94 90 85 78 69 69 85 96
1270.0 105 126 140 151 166 182 194 204 215 221
1310.0 223 237 242 234 231 226 227 239 254 264
1350.0 280 318 362 424 502 584 654 699 735 731
1390.0 680 602 523 483 488 516 545 573 582 581
1430.0 583 600 647 731 848 979 1109 1201 1209 1156
1470.0 1071 941 790 642 502 378 291 228 182 157
1510.0 126 109 100 86 75 74 71 67 68 66
1550.0 69 82 90 95 101 107 121 129 124 120
1590.0 121 128 137 146 165 201 257 339 444 555
1630.0 667 762 793 776 730 644 496 345 244 185
1670.0 148 118 94 86 78 64 62 58 54 44
1710.0 32 28 26 21 11 14 22 21 14 13
1750.0 18 15 13 11 8 13 12 15 18 13
1790.0 15 25 37 46 61 92 130 165 201 222
1830.0 229 217 187 155 118 84 60 41 31 25
1870.0 16 11 12 10 8 6 7 7 6 7
1910.0 8 5 7 6 3 2 3 2 2 8
1950.0 6 5 12 10 9 14 14 12 17 21
1990.0 22 16 12 10 10 6 3 6 10 8
2030.0 9 7 3 2 4 2 3 10 10 9
2070.0 7 5 5 1 0 0 0 4 5 7
2110.0 7 0 6 10 7 9 10 8 4 7
2150.0 7 8 10 8 9 14 18 19 17 17
2190.0 14 12 10 6 4 5 1 0 4 3
2230.0 1 2 5 5 7 7 4 7 12 11
2270.0 11 7 9 14 14 11 14 19 19 17
2310.0 20 23 23 20 20 24 28 30 29 28
2350.0 25 24 26 30 30 28 32 35 32 27
2390.0 28 28 30 30 27 21 23 24 23 21
2430.0 18 15 18 20 23 24 20 22 22 21
2470.0 20 21 25 22 25 33 30 31 30 25
2510.0 25 33 37 33 32 38 46 50 46 45
2550.0 43 45 49 50 53 58 68 72 73 81
2590.0 76 70 71 75 78 74 66 67 69 69
2630.0 66 67 73 78 77 73 71 76 82 88
2670.0 91 94 96 99 104 109 102 101 106 104
2710.0 108 113 119 132 145 164 177 184 193 197
2750.0 194 190 197 196 188 192 197 210 228 239
2790.0 252 276 296 321 347 379 426 468 517 582
2830.0 674 798 964 1172 1413 1694 2007 2360 2739 3139
2870.0 3588 4004 4266 4396 4427 4392 4348 4348 4477 4741
2910.0 5108 5540 5948 6300 6609 6871 7021 7031 7020 7101
2950.0 7344 7815 8646 9576 10000 9874 9277 8242 6876 5307
2990.0 3948 3029 2453 2071 1781 1550 1354 1174 1020 906
3030.0 819 754 719 695 685 697 732 790 873 996
3070.0 1152 1332 1481 1567 1528 1394 1250 1034 787 586
3110.0 445 356 301 270 254 240 220 214 200 190
3150.0 189 180 173 169 163 156 149 145 139 131
3190.0 125 121 112 97 91 90 75 72 76 61
3230.0 63 69 68 62 51 46 48 44 45 62
3270.0 59 46 45 37 33 32 35 37 44 50
3310.0 43 39 38 34 25 25 30 30 24 19
3350.0 14 16 30 42 37 30 35 30 17 17
3390.0 12 7 22 24 26 30 17 19 19 4
3430.0 7 24 30 24 22 11 7 16 15 16
3470.0 14 13 19 16 9 5 0 5 13 21
3510.0 30 20 12 16 20 17 20 21 12 9
3550.0 22 31 24 11 12 18 16 19 20 12
3590.0 16 24 19 13 30 34 14 13 11 26
3630.0 40 37 32 20 29 41 38 38 36 38
3670.0 35 31 32 35 40 35 22 21 22 25
3710.0 33 32 34 28 24 38 46 47 47 49
3750.0 53 56 47 44 44 35 38 43 41 32
3790.0 34 40 47 48 47 44 49 52 43 45
3830.0 42 40 49 46 30
##END=
