##TITLE=2,3-Dimethyl-1-pentene
##JCAMP-DX=4.24
##DATA TYPE=INFRARED SPECTRUM
##ORIGIN=NIST Mass Spectrometry Data Center
##OWNER=NIST Standard Reference Data Program
Collection (C) 2018 copyright by the U.S. Secretary of Commerce
on behalf of the United States of America. All rights reserved.
##CAS REGISTRY NO=3404-72-6
##MOLFORM=C 7 H 14
##$NIST SOURCE=MSDC-IR
##SPECTROMETER/DATA SYSTEM=HP-GC/MS/IRD
##STATE=gas
##XUNITS=1/CM
##YUNITS=ABSORBANCE
##XFACTOR=1.0
##YFACTOR=0.000003700
##DELTAX=4.0
##FIRSTX=550.0
##LASTX=3846.0
##FIRSTY=0.001758
##MAXX=3846
##MINX=550
##MAXY=0.037
##MINY=0
##NPOINTS=825
##XYDATA=(X++(Y..Y))
550.0 475 462 444 421 375 342 293 221 174 149
590.0 108 80 67 72 67 52 55 58 60 66
630.0 45 33 67 72 29 0 13 31 46 53
670.0 59 56 30 45 51 54 71 69 90 107
710.0 105 109 98 89 79 68 88 101 103 103
750.0 91 88 95 105 98 88 91 92 90 94
790.0 98 110 125 130 129 125 129 120 110 122
830.0 134 132 138 148 167 198 231 298 405 580
870.0 859 1244 1692 2085 2451 2767 2727 2399 2029 1559
910.0 1082 710 455 320 254 227 219 204 192 197
950.0 204 208 212 222 233 236 234 235 227 211
990.0 210 223 240 260 274 281 289 273 242 199
1030.0 158 126 100 83 74 58 65 90 103 131
1070.0 167 218 285 331 348 352 343 322 282 221
1110.0 178 158 138 125 129 129 120 126 143 152
1150.0 148 140 146 137 121 101 89 93 96 95
1190.0 97 108 109 113 125 146 173 192 216 238
1230.0 247 250 247 239 229 212 200 196 203 208
1270.0 210 222 225 222 217 214 205 193 194 196
1310.0 196 199 208 215 222 222 219 242 269 290
1350.0 345 448 587 752 948 1153 1336 1441 1447 1385
1390.0 1249 1061 862 689 576 530 529 553 611 691
1430.0 784 910 1082 1272 1455 1605 1709 1784 1784 1645
1470.0 1446 1227 1009 808 624 469 376 311 260 228
1510.0 200 179 163 147 136 134 133 126 124 128
1550.0 130 137 139 147 161 166 168 180 195 208
1590.0 215 227 251 269 290 329 387 474 589 726
1630.0 879 1020 1130 1198 1175 1059 889 722 544 383
1670.0 267 189 148 124 104 95 91 80 72 71
1710.0 68 61 49 49 52 45 41 45 44 47
1750.0 46 50 61 72 90 113 144 166 184 205
1790.0 207 188 168 147 120 93 71 51 39 36
1830.0 34 30 30 29 27 27 19 15 17 14
1870.0 20 22 14 16 15 10 12 12 8 14
1910.0 20 18 17 15 15 14 12 14 12 10
1950.0 12 6 2 4 11 11 7 7 4 2
1990.0 8 13 9 6 6 10 6 7 5 3
2030.0 7 8 5 6 9 8 3 4 4 2
2070.0 2 8 9 7 9 10 7 5 5 6
2110.0 12 13 6 5 4 3 4 5 5 4
2150.0 2 3 4 3 3 2 6 5 9 11
2190.0 10 12 4 3 7 2 2 11 15 14
2230.0 15 13 7 6 7 7 14 19 12 15
2270.0 18 13 15 18 15 16 21 18 19 20
2310.0 19 21 22 21 19 25 25 16 18 28
2350.0 30 21 21 25 23 25 29 29 27 31
2390.0 35 37 38 35 32 34 33 31 32 28
2430.0 31 33 28 29 36 33 34 34 31 29
2470.0 29 31 33 34 32 31 30 28 26 27
2510.0 27 22 22 29 31 28 30 38 42 43
2550.0 46 46 48 54 57 60 65 68 63 58
2590.0 62 63 61 66 67 64 67 69 69 65
2630.0 62 58 54 57 66 71 72 67 64 67
2670.0 74 76 77 82 86 87 95 98 95 102
2710.0 112 126 142 153 160 171 189 200 196 194
2750.0 195 190 185 183 189 193 198 213 230 245
2790.0 260 274 292 310 335 368 397 433 466 503
2830.0 554 622 713 827 980 1209 1516 1888 2314 2802
2870.0 3311 3757 4079 4247 4275 4198 4069 3902 3782 3819
2910.0 4008 4334 4793 5354 5906 6305 6525 6620 6645 6692
2950.0 6900 7360 8052 9031 9866 10000 9613 8814 7654 6270
2990.0 4827 3559 2636 2039 1651 1373 1161 1012 912 832
3030.0 777 747 734 737 752 792 869 993 1160 1320
3070.0 1462 1659 1760 1667 1566 1417 1180 952 755 571
3110.0 442 363 313 286 262 252 238 219 204 199
3150.0 195 180 172 169 159 148 142 144 140 126
3190.0 119 106 91 88 85 86 91 81 71 63
3230.0 58 60 59 53 48 49 58 52 42 46
3270.0 45 38 32 25 25 24 20 23 12 14
3310.0 23 30 23 7 16 23 16 14 16 17
3350.0 23 22 22 24 27 32 30 22 17 16
3390.0 19 17 22 36 29 23 38 36 30 26
3430.0 20 22 18 14 16 19 24 30 32 22
3470.0 20 20 22 32 27 16 15 18 22 22
3510.0 25 25 28 27 17 17 27 26 12 9
3550.0 10 10 17 15 10 19 33 27 16 16
3590.0 19 17 15 19 21 21 21 9 8 7
3630.0 3 18 22 16 16 20 29 25 22 26
3670.0 24 18 12 11 12 18 20 6 3 11
3710.0 14 12 14 22 18 11 15 19 7 2
3750.0 20 32 28 31 31 27 28 20 17 24
3790.0 32 34 25 30 35 23 15 19 37 48
3830.0 37 39 40 35 34
##END=
