##TITLE=Bis(phenylsulphonyl)methane
##JCAMP-DX=4.24
##DATA TYPE=INFRARED SPECTRUM
##ORIGIN=EPA-IR VAPOR PHASE LIBRARY
##OWNER=SRD/NIST
Collection (C) 2018 copyright by the U.S. Secretary of Commerce
on behalf of the United States of America. All rights reserved.
##CAS REGISTRY NO=3406-02-8
##MOLFORM=C 13 H 12 O 4 S 2
##$NIST SOURCE=MSDC-IR
##STATE=gas
##XUNITS=1/CM
##YUNITS=ABSORBANCE
##XFACTOR=1.
##YFACTOR=0.001
##DELTAX=1.92934
##FIRSTX=549.9
##LASTX=3999.5
##FIRSTY=5.36
##MAXX=3999.53
##MINX=549.863
##MAXY=0.0067
##MINY=0
##NPOINTS=1789
##XYDATA=(X++(Y..Y))
549.863 5.36 4.64 3.81 2.95 2.15 1.42 1.002 0.7056 0.5931 0.5254
569.156 0.4266 0.5683 0.5633 0.3916 0.5028 0.6398 0.4672 0.4094 0.4654 0.489
588.450 0.3886 0.2982 0.3163 0.2757 0.1956 0.2886 0.4104 0.5124 0.5099 0.3905
607.743 0.3563 0.3789 0.3789 0.3128 0.2862 0.243 0.18565 0.1297 0.035 0.0706
627.037 0.21596 0.29 0.2678 0.1642 0.17697 0.2518 0.26 0.2544 0.2509 0.2619
646.330 0.214 0.19942 0.18811 0.20254 0.22139 0.3075 0.3607 0.328 0.4215 0.5008
665.624 0.4813 0.5499 0.6294 0.6453 0.8256 1.0376 1.25 1.46 1.69 1.94
684.917 2.02 1.88 1.77 1.59 1.2 0.9799 0.8277 0.7894 0.7848 0.71
704.210 0.6572 0.675 0.7062 0.6615 0.6708 0.7043 0.7814 0.875 0.9209 0.9869
723.504 1.1213 1.3 1.48 1.65 1.94 2.45 3.01 3.69 4.36 4.74
742.797 4.79 4.52 3.99 3.33 2.68 2.25 2 1.92 2.03 2.26
762.091 2.52 2.73 2.85 2.92 2.9 2.76 2.48 2.21 1.9 1.54
781.384 1.32 1.16 0.9968 0.9023 0.8298 0.7196 0.6596 0.5838 0.4957 0.5347
800.678 0.6098 0.6581 0.6889 0.7491 0.7959 0.9003 1.1241 1.45 1.92 2.45
819.971 3.03 3.54 3.86 3.89 3.64 3.22 2.64 2.05 1.63 1.3
839.264 1.0007 0.8221 0.7126 0.5611 0.4184 0.3652 0.3232 0.3078 0.3341 0.2836
858.558 0.2851 0.2825 0.20233 0.19659 0.20649 0.23139 0.21671 0.16684 0.16959 0.17134
877.851 0.20109 0.2646 0.2714 0.2464 0.21691 0.15278 0.140613 0.15606 0.15014 0.18215
897.145 0.20731 0.19247 0.16882 0.17842 0.2055 0.2492 0.2545 0.20889 0.20524 0.23368
916.438 0.2675 0.21155 0.19109 0.18314 0.1912 0.22768 0.2473 0.2685 0.19575 0.149079
935.732 0.16321 0.1283 0.15921 0.19803 0.16203 0.18881 0.1809 0.17691 0.15782 0.1188
955.025 0.15338 0.20057 0.1576 0.1067 0.15525 0.1918 0.22225 0.20436 0.140968 0.15799
974.318 0.2394 0.2767 0.2725 0.2948 0.2944 0.295 0.2865 0.23342 0.21537 0.2418
993.612 0.2606 0.291 0.3256 0.3441 0.3941 0.3202 0.23982 0.3151 0.3309 0.3367
1012.905 0.3767 0.2951 0.2729 0.3225 0.3451 0.3913 0.4197 0.4093 0.3975 0.4102
1032.199 0.3447 0.2793 0.2816 0.2931 0.2854 0.3052 0.3103 0.2564 0.2782 0.2934
1051.492 0.2602 0.2597 0.3135 0.3777 0.3974 0.4662 0.535 0.5891 0.6624 0.7083
1070.786 0.8498 1.098 1.36 1.69 2.03 2.3 2.35 2.18 1.91 1.61
1090.079 1.36 1.17 0.9675 0.8237 0.7349 0.6652 0.5902 0.4977 0.54 0.4859
1109.372 0.4344 0.5274 0.4593 0.4065 0.4511 0.4838 0.539 0.4965 0.5382 0.5516
1128.666 0.5264 0.6134 0.7751 0.8659 1.0543 1.32 1.63 1.97 2.37 3.06
1147.959 3.79 4.54 5.12 5.31 5.26 5.11 4.87 4.6 4.22 4.03
1167.253 3.96 3.64 3.43 3.23 2.87 2.57 2.2 1.9 1.69 1.36
1186.546 1.26 1.28 1.16 1.1245 1.0937 1.45 1.93 2.12 2.36 2.24
1205.840 1.92 2.24 2.45 2.12 1.82 1.54 1.0135 0.6824 0.7574 0.6309
1225.133 0.6726 0.6003 0.4604 0.3165 0.13317 0.117 0.13079 0.16117 0.107 0.1091
1244.426 0.0861 0.0628 0.0961 0.17056 0.18309 0.22921 0.23724 0.17424 0.2685 0.2646
1263.720 0.2135 0.20569 0.15784 0.17968 0.2231 0.3237 0.3896 0.3426 0.2878 0.23305
1283.013 0.2585 0.3982 0.366 0.2997 0.387 0.4039 0.3291 0.2901 0.3682 0.4163
1302.307 0.4071 0.4704 0.5493 0.5555 0.5505 0.652 0.7138 0.6784 0.6434 0.7306
1321.600 0.8545 0.9378 1.08 1.27 1.45 1.62 1.73 1.82 2 2.21
1340.894 2.5 2.93 3.54 4.26 5.09 5.84 6.35 6.66 6.7 6.47
1360.187 6.16 5.74 5.18 4.62 4.04 3.44 2.82 2.23 1.76 1.39
1379.480 1.0828 0.8408 0.7138 0.6352 0.5538 0.5284 0.4602 0.3648 0.3022 0.2938
1398.774 0.301 0.3088 0.3227 0.287 0.276 0.3066 0.289 0.2803 0.2866 0.22602
1418.067 0.17547 0.1823 0.22565 0.20537 0.2429 0.2979 0.3108 0.312 0.3092 0.3724
1437.361 0.4935 0.6192 0.739 0.9318 1.0769 1.18 1.2 1.1395 1.013 0.8036
1456.654 0.5871 0.4636 0.418 0.3663 0.3404 0.3128 0.3128 0.3491 0.3296 0.3221
1475.948 0.3764 0.4065 0.4019 0.4013 0.3776 0.3467 0.3287 0.3097 0.2682 0.21282
1495.241 0.21585 0.21775 0.22104 0.23647 0.2138 0.17615 0.17587 0.22832 0.255 0.23748
1514.534 0.2551 0.2764 0.20861 0.16321 0.19297 0.19844 0.17837 0.17261 0.17485 0.18502
1533.828 0.16478 0.13491 0.1061 0.0935 0.1235 0.16857 0.149037 0.1219 0.13705 0.13862
1553.121 0.13745 0.13337 0.15007 0.1293 0.1296 0.1279 0.16458 0.19958 0.17084 0.20071
1572.415 0.23203 0.17586 0.16294 0.21022 0.241 0.2884 0.2943 0.3236 0.311 0.2723
1591.708 0.2956 0.292 0.21842 0.17038 0.20315 0.21613 0.1785 0.1583 0.17014 0.16924
1611.002 0.17943 0.20223 0.22 0.19643 0.19903 0.19173 0.16839 0.22036 0.20685 0.17358
1630.295 0.18353 0.21482 0.21484 0.18945 0.21717 0.2566 0.2313 0.2101 0.21196 0.22216
1649.588 0.23228 0.17327 0.140476 0.18581 0.21682 0.20346 0.17618 0.1676 0.20137 0.17337
1668.882 0.1157 0.16801 0.19454 0.15277 0.15698 0.143244 0.147764 0.17021 0.144662 0.13344
1688.175 0.1267 0.13676 0.16023 0.16566 0.1176 0.0662 0.0916 0.0759 0.0504 0.1023
1707.469 0.143769 0.13076 0.1048 0.0704 0.0886 0.0819 0.0777 0.1546 0.148176 0.1034
1726.762 0.146855 0.17941 0.15334 0.1062 0.0532 0.0837 0.0891 0.0711 0.0973 0.1236
1746.056 0.13835 0.1257 0.1183 0.13154 0.15849 0.17519 0.20143 0.22904 0.16912 0.13457
1765.349 0.17712 0.15079 0.1283 0.142653 0.143465 0.17939 0.18642 0.15743 0.17008 0.18005
1784.642 0.16155 0.1214 0.148521 0.19249 0.18891 0.21096 0.20555 0.22038 0.22802 0.23359
1803.936 0.2457 0.2522 0.26 0.22891 0.22315 0.20628 0.18546 0.18789 0.18385 0.21893
1823.229 0.21736 0.1298 0.146286 0.20706 0.19347 0.18317 0.149321 0.139962 0.118 0.0966
1842.523 0.0922 0.0892 0.0848 0.0827 0.1162 0.13043 0.1292 0.1127 0.093 0.0801
1861.816 0.13124 0.143613 0.1286 0.148784 0.13746 0.1535 0.1943 0.17963 0.1829 0.15853
1881.110 0.1251 0.16312 0.16174 0.1658 0.18048 0.15931 0.1601 0.17872 0.17364 0.21082
1900.403 0.21369 0.21624 0.248 0.22806 0.20529 0.21528 0.22734 0.23362 0.23151 0.18891
1919.696 0.18059 0.1848 0.16774 0.18362 0.16828 0.1267 0.142069 0.13723 0.0993 0.1228
1938.990 0.17122 0.16706 0.1243 0.13261 0.15946 0.15291 0.16635 0.18917 0.19567 0.20495
1958.283 0.2503 0.2596 0.22984 0.21102 0.21727 0.18673 0.16626 0.18695 0.18232 0.20118
1977.577 0.20804 0.19507 0.18175 0.1552 0.1159 0.1016 0.135 0.149973 0.18243 0.20555
1996.870 0.143419 0.1031 0.112 0.1188 0.108 0.0944 0.0895 0.1049 0.1231 0.1275
2016.164 0.1205 0.098 0.13771 0.15977 0.1294 0.116 0.13077 0.15224 0.148504 0.13679
2035.457 0.13604 0.1202 0.077 0.0761 0.0964 0.0826 0.056 0.09 0.1214 0.1094
2054.750 0.1146 0.1034 0.1113 0.1255 0.1091 0.1162 0.0988 0.1238 0.15016 0.13346
2074.044 0.1085 0.1031 0.1091 0.1069 0.1301 0.15616 0.17334 0.16122 0.139718 0.1106
2093.337 0.0874 0.099 0.15923 0.17639 0.15246 0.1152 0.0985 0.1118 0.1139 0.148255
2112.631 0.18904 0.1764 0.1262 0.098 0.1107 0.140437 0.1654 0.147226 0.126 0.144097
2131.924 0.139798 0.144225 0.143311 0.13825 0.1284 0.13133 0.124 0.1134 0.1275 0.143128
2151.218 0.147497 0.15568 0.18887 0.18281 0.16587 0.141667 0.1139 0.13083 0.16858 0.19251
2170.511 0.18517 0.15755 0.1299 0.1235 0.15106 0.16341 0.13761 0.1252 0.144789 0.145043
2189.804 0.13603 0.1358 0.13231 0.16901 0.17857 0.15363 0.144065 0.16882 0.20111 0.21094
2209.098 0.18275 0.145176 0.16742 0.143449 0.13118 0.143898 0.145236 0.18745 0.19916 0.19289
2228.391 0.18913 0.20759 0.18933 0.17613 0.2577 0.2661 0.21679 0.18049 0.18464 0.20926
2247.685 0.17631 0.1631 0.18652 0.19179 0.15228 0.149109 0.22273 0.2419 0.18306 0.16137
2266.978 0.17751 0.17111 0.20175 0.21379 0.14659 0.13468 0.19944 0.2148 0.20168 0.20001
2286.272 0.18585 0.15864 0.1639 0.18359 0.18239 0.17258 0.17946 0.21141 0.2055 0.16774
2305.565 0.16796 0.16254 0.1262 0.1124 0.141273 0.19112 0.19594 0.1523 0.16065 0.22306
2324.858 0.2489 0.23261 0.1972 0.17517 0.19683 0.23883 0.23347 0.20199 0.1521 0.15975
2344.152 0.2263 0.22291 0.17332 0.15715 0.1655 0.15302 0.18441 0.2527 0.22936 0.20397
2363.445 0.2019 0.1788 0.17097 0.17989 0.21007 0.20142 0.18246 0.17922 0.19498 0.20176
2382.739 0.20448 0.20632 0.18192 0.16851 0.15449 0.17268 0.2415 0.2387 0.20572 0.20315
2402.032 0.20459 0.2339 0.2305 0.20857 0.2202 0.22337 0.2256 0.22148 0.19904 0.18111
2421.326 0.19258 0.2461 0.2603 0.2414 0.23351 0.22692 0.2454 0.20023 0.16577 0.22743
2440.619 0.2548 0.21597 0.1816 0.20142 0.22133 0.21632 0.20833 0.18938 0.17942 0.22962
2459.912 0.2406 0.20356 0.20546 0.21049 0.22052 0.2218 0.2132 0.205 0.21481 0.20918
2479.206 0.18509 0.18787 0.18694 0.21476 0.2562 0.2452 0.22796 0.20757 0.17817 0.19323
2498.499 0.21536 0.22371 0.20716 0.15975 0.17193 0.21663 0.2744 0.3108 0.2932 0.2778
2517.793 0.23581 0.19949 0.18703 0.22462 0.2899 0.3208 0.2925 0.2713 0.2792 0.2861
2537.086 0.27 0.2499 0.2489 0.2575 0.2536 0.23881 0.2205 0.20006 0.22016 0.23757
2556.380 0.23268 0.2688 0.314 0.3074 0.2721 0.248 0.2494 0.2837 0.3045 0.3024
2575.673 0.2896 0.279 0.2734 0.2719 0.2795 0.273 0.2762 0.2637 0.2545 0.2618
2594.966 0.2584 0.2536 0.2782 0.2835 0.2877 0.2619 0.22611 0.21698 0.21759 0.2846
2614.260 0.2777 0.2478 0.2956 0.3081 0.2906 0.2586 0.278 0.3157 0.3248 0.3221
2633.553 0.2418 0.23715 0.323 0.3288 0.2772 0.2502 0.22641 0.19141 0.20862 0.21638
2652.847 0.20977 0.22863 0.268 0.22586 0.21791 0.2663 0.2532 0.2655 0.2883 0.2638
2672.140 0.2509 0.2925 0.23375 0.20711 0.272 0.3355 0.3025 0.2341 0.2863 0.3315
2691.434 0.3125 0.2922 0.21161 0.16918 0.2485 0.2948 0.2861 0.21705 0.17224 0.17835
2710.727 0.19682 0.2422 0.23732 0.2474 0.2834 0.2774 0.23939 0.23664 0.2546 0.297
2730.020 0.3018 0.2879 0.265 0.22177 0.23772 0.2436 0.2742 0.2456 0.2355 0.3115
2749.314 0.3037 0.275 0.2965 0.3238 0.2911 0.21984 0.2511 0.3304 0.3631 0.3388
2768.607 0.361 0.3792 0.3478 0.3534 0.3577 0.3259 0.2956 0.3453 0.3467 0.3027
2787.901 0.2737 0.22832 0.2776 0.3212 0.2939 0.3571 0.3975 0.3899 0.3813 0.3678
2807.194 0.3595 0.3139 0.3029 0.2921 0.3043 0.3041 0.2815 0.2816 0.23595 0.258
2826.488 0.3476 0.3801 0.3207 0.277 0.281 0.2867 0.326 0.2867 0.2514 0.2428
2845.781 0.2595 0.3727 0.3546 0.23694 0.248 0.2758 0.2976 0.255 0.2856 0.3399
2865.074 0.358 0.3844 0.3123 0.3073 0.2763 0.3336 0.3784 0.2595 0.2495 0.3221
2884.368 0.3327 0.3325 0.334 0.355 0.269 0.23676 0.3595 0.3697 0.2995 0.2849
2903.661 0.2892 0.3343 0.3821 0.3479 0.3823 0.36 0.22975 0.2582 0.4274 0.4414
2922.955 0.3669 0.3011 0.22506 0.2428 0.3049 0.3399 0.3452 0.4187 0.4674 0.4614
2942.248 0.4413 0.3055 0.2487 0.3067 0.3453 0.2899 0.2367 0.2656 0.2461 0.23374
2961.542 0.23806 0.2999 0.309 0.3385 0.4009 0.3588 0.2947 0.2999 0.405 0.3382
2980.835 0.21334 0.23621 0.22557 0.2123 0.2579 0.295 0.3194 0.3309 0.3667 0.4017
3000.128 0.5007 0.5807 0.3705 0.20934 0.3308 0.3629 0.3218 0.4315 0.4698 0.3893
3019.422 0.4619 0.522 0.3922 0.23145 0.2829 0.369 0.2796 0.2486 0.2786 0.4148
3038.715 0.501 0.5301 0.5405 0.34 0.3348 0.4701 0.4616 0.4921 0.5849 0.5477
3058.009 0.5699 0.7424 0.7897 0.7502 0.7879 0.8738 1.0306 1.21 1.34 1.43
3077.302 1.44 1.39 1.24 1.0659 0.9201 0.7589 0.6475 0.566 0.5393 0.5599
3096.596 0.5018 0.5429 0.457 0.3552 0.3638 0.318 0.2672 0.2476 0.3484 0.3787
3115.889 0.3896 0.4693 0.465 0.3657 0.2465 0.281 0.3597 0.3283 0.2457 0.21758
3135.182 0.2452 0.23679 0.3208 0.3302 0.2729 0.2664 0.3424 0.4151 0.3472 0.2668
3154.476 0.15942 0.18873 0.2639 0.2719 0.4048 0.4103 0.3096 0.3297 0.3335 0.2019
3173.769 0.1268 0.16991 0.2663 0.2919 0.19434 0.1697 0.2676 0.22988 0.17346 0.23826
3193.063 0.20201 0.16541 0.3388 0.3551 0.23604 0.3745 0.4576 0.3158 0.2627 0.2754
3212.356 0.15541 0.0801 0.17308 0.2997 0.3349 0.2499 0.2611 0.3756 0.3112 0.2825
3231.650 0.4321 0.4225 0.3151 0.2758 0.22183 0.18579 0.1858 0.19703 0.23223 0.17499
3250.943 0.16935 0.20194 0.19746 0.3174 0.2597 0.0683 0.1098 0.21751 0.21311 0.2969
3270.236 0.363 0.3587 0.2792 0.2569 0.314 0.2849 0.16856 0.0719 0.062 0.0926
3289.530 0.3442 0.4375 0.292 0.22531 0.1229 0.2602 0.3461 0.2688 0.3309 0.3361
3308.823 0.23536 0.257 0.343 0.3777 0.4121 0.3407 0.20689 0.2283 0.23421 0.029
3328.117 0.0623 0.22766 0.17826 0.1051 0.20394 0.3136 0.23437 0.13171 0.1218 0.16826
3347.410 0.23062 0.2698 0.3234 0.2993 0.142588 0.0646 0.16 0.2546 0.2477 0.263
3366.704 0.2954 0.2848 0.2817 0.22199 0.2873 0.2585 0.17854 0.2772 0.3075 0.2837
3385.997 0.183 0.16645 0.2433 0.2662 0.140629 0.029 0.091 0.19481 0.2671 0.19979
3405.290 0.1275 0.117 0.0839 0.143778 0.17108 0.08 0.1334 0.18448 0.19186 0.13191
3424.584 0.1317 0.17724 0.15155 0.19553 0.16112 0.16698 0.283 0.2666 0.13019 0.0736
3443.877 0.17423 0.2429 0.13465 0.0696 0.0693 0.0852 0.17817 0.19698 0.20268 0.2513
3463.171 0.23764 0.15129 0.19403 0.13812 0.0517 0.2111 0.3485 0.245 0.062 0.16329
3482.464 0.13341 0.0841 0.1186 0.0403 0.0679 0.18669 0.2735 0.2758 0.20897 0.21779
3501.758 0.1261 0.018 0.034 0.1359 0.18654 0.071 0.028 0.1171 0.2762 0.2907
3521.051 0.13541 0.13722 0.19735 0.2975 0.2452 0.1855 0.2944 0.23933 0.124 0.0576
3540.344 0.18191 0.15589 0.1165 0.22169 0.1094 0.099 0.16404 0.19129 0.1618 0.0518
3559.638 0.0791 0.15668 0.20754 0.106 0.23484 0.3192 0.0808 0 0.0996 0.0915
3578.931 0.143484 0.211 0.1275 0.22318 0.3233 0.3076 0.21351 0.146043 0.19991 0.15218
3598.225 0.17121 0.20492 0.1149 0.18199 0.2938 0.2851 0.18773 0.1176 0.15518 0.18366
3617.518 0.139868 0.149267 0.19981 0.16419 0.1183 0.19285 0.316 0.3138 0.2313 0.18096
3636.812 0.1004 0.15549 0.1954 0.19796 0.263 0.21555 0.16516 0.17233 0.2896 0.3384
3656.105 0.23554 0.18522 0.17533 0.1669 0.1028 0.031 0.037 0.0972 0.2409 0.353
3675.398 0.3179 0.2784 0.3029 0.3084 0.2604 0.2273 0.19249 0.0674 0.107 0.2515
3694.692 0.23687 0.19216 0.18731 0.19088 0.2404 0.23351 0.2647 0.23855 0.17821 0.15757
3713.985 0.13401 0.16099 0.2608 0.2527 0.2482 0.2565 0.143428 0.2218 0.258 0.2582
3733.279 0.2453 0.17129 0.2201 0.3078 0.3367 0.3305 0.3143 0.20915 0.22346 0.3394
3752.572 0.256 0.1 0.122 0.22253 0.21753 0.2551 0.23177 0.144696 0.1154 0.18908
3771.866 0.3097 0.3281 0.22835 0.14107 0.2613 0.3727 0.2718 0.17007 0.140299 0.15173
3791.159 0.23863 0.20409 0.14957 0.16555 0.1209 0.1287 0.142901 0.13167 0.2486 0.3148
3810.452 0.2452 0.13423 0.0948 0.140655 0.22477 0.2445 0.2579 0.3426 0.3055 0.22268
3829.746 0.2471 0.2483 0.20214 0.16679 0.23114 0.2647 0.147116 0.2701 0.3818 0.318
3849.039 0.294 0.3191 0.4045 0.349 0.3731 0.4131 0.3839 0.3287 0.18999 0.13664
3868.333 0.2411 0.318 0.26 0.23207 0.21525 0.2418 0.2956 0.276 0.2404 0.2473
3887.626 0.21723 0.13526 0.0866 0.155 0.19636 0.21841 0.2724 0.3038 0.295 0.2872
3906.920 0.2481 0.18742 0.1871 0.18384 0.1021 0.17404 0.3084 0.2654 0.2736 0.368
3926.213 0.3477 0.2839 0.29 0.281 0.2802 0.2675 0.1976 0.15344 0.2626 0.2568
3945.506 0.19193 0.2491 0.2814 0.23651 0.248 0.3654 0.3901 0.3215 0.3653 0.3655
3964.800 0.3596 0.3548 0.2736 0.21645 0.23201 0.2843 0.264 0.21045 0.1181 0.13708
3984.093 0.22414 0.2961 0.3403 0.3086 0.22633 0.20969 0.22513 0.22971 0.2796
##END=
