##TITLE=Orphenadrine hydrochloride
##JCAMP-DX=4.24
##DATA TYPE=INFRARED SPECTRUM
##ORIGIN=EPA-IR VAPOR PHASE LIBRARY
##OWNER=SRD/NIST
Collection (C) 2018 copyright by the U.S. Secretary of Commerce
on behalf of the United States of America. All rights reserved.
##CAS REGISTRY NO=341-69-5
##MOLFORM=C 18 H 23 N O* H Cl
##$NIST SOURCE=MSDC-IR
##STATE=gas
##XUNITS=1/CM
##YUNITS=ABSORBANCE
##XFACTOR=1.
##YFACTOR=0.001
##DELTAX=1.92898
##FIRSTX=549.8
##LASTX=4000.7
##FIRSTY=0.281
##MAXX=4000.7
##MINX=549.759
##MAXY=0.012772
##MINY=0
##NPOINTS=1790
##XYDATA=(X++(Y..Y))
549.759 0.281 0.207 0.216 0.333 0.5124 0.63143 0.7032 0.8137 1.0393 1.0843
569.049 0.593294 0.61608 0.7128 0.786 0.7579 0.65794 0.8051 0.5052 0.596803 0.65232
588.339 0.592714 0.5368 0.5203 0.7576 0.8054 0.7046 0.8292 0.8646 0.9535 1.3083
607.628 1.4871 1.672 1.962 2.232 2.292 2.522 2.562 2.162 2.132 1.932
626.918 1.5755 1.5818 1.5172 1.2392 1.006 1.1352 1.109 1.1189 1.302 1.3832
646.208 1.622 1.732 1.612 1.602 1.5275 1.592 1.4473 1.3823 1.5678 1.1518
665.498 1.1011 1.3458 1.3666 1.612 1.612 1.3553 1.5325 1.872 2.022 2.162
684.787 2.422 2.642 3.072 3.702 4.422 5.212 5.632 5.702 5.652 5.182
704.077 4.592 4.102 3.692 3.302 3.382 3.912 4.332 5.042 5.922 6.502
723.367 6.662 6.772 6.712 6.402 5.932 5.672 5.702 5.762 6.112 6.572
742.657 7.172 7.782 8.192 8.772 8.972 8.542 7.782 6.722 5.402 4.272
761.947 3.502 2.982 2.652 2.282 1.942 1.972 2.082 1.902 2.022 2.142
781.236 2.032 1.912 1.692 1.5232 1.592 1.4569 1.2396 1.3419 1.2906 1.1117
800.526 1.1263 1.1966 1.1942 1.2578 1.2088 1.123 1.1116 1.1409 0.9994 0.8764
819.816 1.0059 0.9762 1.1076 1.0816 0.8443 0.9089 1.0744 1.3416 1.3807 1.2383
839.106 1.2302 1.1712 1.2387 1.4212 1.3728 1.3721 1.2893 1.3104 1.762 1.762
858.395 1.5643 1.772 1.852 1.912 1.902 1.812 1.752 1.712 1.872 1.942
877.685 2.002 2.032 1.992 1.962 1.952 1.752 1.4488 1.4166 1.3809 1.4321
896.975 1.4639 1.3497 1.2232 1.1425 1.1383 1.237 1.205 1.2372 1.2865 1.2174
916.265 1.28 1.3804 1.3213 1.3069 1.3391 1.2565 1.3676 1.4553 1.3003 1.2139
935.555 1.4436 1.5656 1.782 1.802 1.622 1.642 1.652 1.872 2.042 1.962
954.844 1.842 1.902 2.072 2.312 2.282 2.062 2.022 1.942 1.952 2.012
974.134 2.112 2.102 1.902 1.882 2.062 2.152 2.342 2.432 2.312 2.262
993.424 2.192 2.192 2.182 2.502 2.922 2.872 2.832 2.942 3.172 3.442
1012.714 3.882 4.452 4.642 5.062 5.372 5.602 6.352 6.922 7.332 7.272
1032.003 6.882 7.182 7.332 7.352 7.622 7.962 8.432 8.862 9.292 9.382
1051.293 9.762 9.922 9.882 10.192 10.442 10.292 10.062 10.282 10.592 10.972
1070.583 11.172 11.092 11.252 11.542 11.212 11.072 11.412 11.822 12.362 12.462
1089.873 12.392 12.692 12.772 12.302 12.042 11.582 10.982 10.652 10.892 11.262
1109.163 10.712 10.352 10.142 9.632 9.082 8.562 7.862 6.812 6.052 5.452
1128.452 4.572 3.852 3.402 2.982 2.732 2.802 2.922 2.762 2.532 2.682
1147.742 2.702 2.642 2.672 2.852 2.862 2.592 2.632 2.832 2.982 2.982
1167.032 3.232 3.752 4.012 4.172 4.392 4.282 3.992 4.012 4.122 4.042
1186.322 3.782 3.232 2.932 3.242 3.332 3.112 2.812 2.482 2.212 2.572
1205.611 2.582 2.242 2.412 2.262 1.922 2.182 2.512 2.192 2.052 2.062
1224.901 2.292 2.182 1.832 1.862 1.912 1.932 2.112 2.362 2.392 2.372
1244.191 2.612 2.972 3.112 3.372 3.552 3.602 3.762 3.862 4.012 4.202
1263.481 4.262 4.242 4.202 4.282 4.472 4.572 4.562 4.612 4.702 4.742
1282.771 4.782 4.732 4.682 4.682 4.642 4.412 4.192 4.242 4.212 4.182
1302.060 4.162 4.132 4.052 3.922 3.832 3.742 3.702 3.692 3.642 3.572
1321.350 3.532 3.532 3.562 3.552 3.512 3.512 3.532 3.502 3.452 3.432
1340.640 3.442 3.312 3.172 3.112 3.002 2.862 2.742 2.662 2.652 2.592
1359.930 2.522 2.532 2.472 2.422 2.412 2.372 2.282 2.212 2.182 2.182
1379.219 2.162 2.212 2.232 2.092 1.982 1.942 1.892 1.832 1.722 1.702
1398.509 1.682 1.652 1.692 1.702 1.702 1.712 1.692 1.692 1.692 1.752
1417.799 1.762 1.772 1.822 1.902 1.962 1.982 2.112 2.282 2.442 2.602
1437.089 2.882 3.312 3.692 4.092 4.642 5.192 5.692 6.012 6.202 6.302
1456.378 6.272 6.192 6.062 5.962 5.852 5.702 5.442 5.162 4.982 4.752
1475.668 4.492 4.342 4.302 4.292 4.402 4.582 4.782 5.002 5.072 4.982
1494.958 4.722 4.242 3.652 3.022 2.522 2.102 1.792 1.672 1.5774 1.4955
1514.248 1.4206 1.381 1.3039 1.1419 1.0619 1.1424 1.2203 1.1458 1.0777 1.043
1533.538 0.9872 0.9707 0.9503 0.9087 1.0102 1.0895 1.022 1.007 1.0317 1.0572
1552.827 1.0053 0.943 0.9468 0.8701 0.9308 1.0839 1.1358 1.16 1.0121 0.913
1572.117 1.0135 1.0993 1.0674 1.0827 1.2209 1.2931 1.3358 1.3199 1.2709 1.394
1591.407 1.5623 1.692 1.852 1.982 2.022 2.092 2.152 2.062 1.882 1.682
1610.697 1.4788 1.3269 1.24 1.1836 1.1876 1.1703 1.1076 1.0433 0.9489 0.9459
1629.986 1.0039 0.938 0.8725 0.8869 0.9328 0.9538 0.9366 0.9314 0.8923 0.8271
1649.276 0.8345 0.827 0.749 0.8026 0.9111 0.9044 0.875 0.9066 0.9716 1.0193
1668.566 0.954 0.9391 0.9593 0.9366 0.948 0.9218 0.9353 0.9283 0.8867 0.9084
1687.856 0.9067 0.98 1.0367 0.9864 0.945 0.8864 0.8225 0.8672 0.8543 0.8195
1707.146 0.9058 0.8475 0.7672 0.8539 0.8988 0.8262 0.8565 0.9222 0.8824 0.8149
1726.435 0.828 0.9043 0.9429 0.8888 0.8032 0.8931 1.0092 0.8969 0.8073 0.8329
1745.725 0.862 0.8548 0.8286 0.9004 0.9607 0.9628 0.9041 0.9156 0.9452 0.9129
1765.015 0.8789 0.8458 0.8848 0.922 0.9031 0.9166 0.9297 0.894 0.9347 0.9816
1784.305 0.9888 1.0047 1.004 0.9651 0.9759 1.119 1.2388 1.2207 1.196 1.2319
1803.594 1.2476 1.1755 1.1244 1.0988 1.0881 1.1237 1.0883 1.0593 1.0343 1.002
1822.884 1.0191 0.988 0.9212 0.892 0.9504 0.9536 0.9511 0.9764 0.9885 0.9646
1842.174 0.8736 0.8301 0.772 0.7845 0.8073 0.7999 0.8317 0.8507 0.8402 0.8573
1861.464 0.8164 0.793 0.8132 0.8545 0.9528 0.9405 0.972 1.0345 0.9768 0.9536
1880.754 0.9606 0.9324 0.9627 1.0361 1.0328 1.0268 1.0697 1.0569 1.0082 0.9742
1900.043 1.047 1.1193 1.0759 1.026 0.9996 1.0011 0.9956 1.0348 1.0947 1.0582
1919.333 1.0175 0.9914 0.9794 0.9956 0.9617 0.9508 0.9912 0.988 1.0805 1.1793
1938.623 1.1555 1.1711 1.2358 1.2719 1.2527 1.2599 1.2772 1.2305 1.1479 1.0833
1957.913 1.0182 0.9991 0.9691 0.9082 0.9579 0.9471 0.931 0.8868 0.8501 0.8784
1977.202 0.8777 0.8451 0.7969 0.7835 0.7892 0.8002 0.785 0.7697 0.756 0.7973
1996.492 0.7948 0.7431 0.7655 0.8725 0.8825 0.804 0.7781 0.8248 0.8333 0.7839
2015.782 0.8058 0.8246 0.8052 0.8241 0.7551 0.7165 0.769 0.7953 0.7992 0.7816
2035.072 0.8308 0.863 0.8504 0.8045 0.8115 0.8301 0.8443 0.8631 0.8654 0.8804
2054.362 0.825 0.7438 0.7992 0.853 0.8402 0.8612 0.807 0.8244 0.7973 0.7479
2073.651 0.8179 0.7871 0.7904 0.8343 0.8259 0.8184 0.7867 0.7586 0.7756 0.8215
2092.941 0.8308 0.8203 0.8559 0.8319 0.7606 0.7623 0.7474 0.8175 0.8399 0.7705
2112.231 0.727 0.713 0.7323 0.7219 0.8278 0.8805 0.8026 0.7561 0.67399 0.6631
2131.521 0.7398 0.7934 0.7689 0.7616 0.7654 0.7253 0.7668 0.7822 0.7494 0.7397
2150.810 0.7234 0.64777 0.65674 0.6968 0.6977 0.777 0.827 0.8286 0.766 0.7293
2170.100 0.7059 0.7524 0.852 0.8182 0.8325 0.8196 0.7135 0.68792 0.7165 0.68865
2189.390 0.65346 0.6938 0.7412 0.7373 0.64922 0.62257 0.58283 0.5631 0.65687 0.7237
2208.680 0.6952 0.67298 0.6785 0.66549 0.64554 0.63653 0.63959 0.63801 0.65435 0.66831
2227.970 0.65078 0.58675 0.597411 0.60216 0.66644 0.7563 0.7203 0.65225 0.62201 0.7011
2247.259 0.7258 0.6613 0.63201 0.65039 0.7352 0.7594 0.7527 0.66406 0.58329 0.66556
2266.549 0.6955 0.7186 0.6965 0.66006 0.68498 0.7163 0.707 0.725 0.782 0.7802
2285.839 0.8489 0.7835 0.744 0.7116 0.5864 0.64977 0.7019 0.7081 0.7398 0.7571
2305.129 0.7132 0.68363 0.7153 0.7183 0.7841 0.8034 0.7347 0.7847 0.8121 0.8148
2324.418 0.8273 0.737 0.7361 0.7731 0.6942 0.61629 0.59022 0.7296 0.7909 0.6983
2343.708 0.65512 0.742 0.7439 0.6434 0.67655 0.7492 0.7876 0.7621 0.7165 0.600852
2362.998 0.5555 0.58924 0.60802 0.7101 0.7582 0.7245 0.7912 0.7463 0.60669 0.63735
2382.288 0.7556 0.7496 0.7337 0.8217 0.8025 0.68935 0.67894 0.7598 0.7176 0.67667
2401.578 0.7404 0.7063 0.7242 0.7915 0.8019 0.7941 0.7701 0.7672 0.773 0.7319
2420.867 0.7204 0.7338 0.7394 0.7816 0.7585 0.65222 0.69094 0.7489 0.7148 0.7756
2440.157 0.7878 0.7272 0.7384 0.6971 0.6293 0.7054 0.7523 0.7422 0.7996 0.7056
2459.447 0.68486 0.6958 0.600565 0.6922 0.8188 0.8187 0.8001 0.8086 0.68508 0.711
2478.737 0.8616 0.8351 0.8038 0.7474 0.7743 0.7715 0.8005 0.8441 0.7675 0.7675
2498.026 0.8016 0.8831 0.9335 0.8727 0.7925 0.7906 0.7303 0.64563 0.7412 0.8062
2517.316 0.7728 0.8219 0.8202 0.8148 0.9417 0.8722 0.8312 0.8718 0.68517 0.7192
2536.606 0.7949 0.777 0.811 0.7846 0.714 0.7057 0.8327 0.9165 0.9694 0.9087
2555.896 0.8376 0.9406 0.9988 0.9455 0.8247 0.762 0.7378 0.8044 0.8702 0.8933
2575.186 0.8617 0.8587 0.9862 0.9043 0.7963 0.9049 0.9896 0.9542 0.9192 0.8439
2594.475 0.8335 0.8739 0.8795 0.9174 1.0586 1.131 0.9624 0.9505 0.9237 0.9005
2613.765 1.0607 1.0858 1.0075 0.937 0.9455 0.9988 1.0099 1.1055 1.0783 0.9043
2633.055 0.9158 1.0126 1.0582 1.0143 1.0477 1.0743 1.0195 0.9515 0.8813 0.952
2652.345 1.0009 0.9717 1.1039 1.1165 1.0099 1.1323 1.163 1.0456 0.9559 1.0912
2671.634 1.2609 1.2985 1.3959 1.388 1.3231 1.3525 1.3705 1.3771 1.2542 1.2484
2690.924 1.4385 1.4477 1.3978 1.472 1.632 1.742 1.772 1.742 1.782 1.842
2710.214 1.902 1.982 2.012 2.142 2.252 2.182 2.412 2.502 2.402 2.522
2729.504 2.632 2.642 2.702 2.882 3.022 3.182 3.352 3.472 3.552 3.652
2748.794 3.842 4.112 4.342 4.702 4.992 5.312 5.822 6.262 6.842 7.612
2768.083 8.312 9.032 9.702 10.232 10.592 10.692 10.472 10.152 9.812 9.402
2787.373 9.002 8.522 8.232 7.892 7.522 7.262 7.102 7.082 6.882 6.682
2806.663 6.522 6.472 6.572 6.662 6.762 7.092 7.432 7.562 7.702 7.882
2825.953 7.952 7.922 7.682 7.262 6.952 6.662 6.382 6.052 5.862 5.982
2845.242 6.062 6.112 6.282 6.572 6.762 6.942 7.162 7.192 7.272 7.602
2864.532 7.742 7.742 7.782 7.752 7.822 7.802 7.612 7.422 7.172 7.092
2883.822 7.132 7.082 7.052 6.952 6.872 6.942 7.002 7.042 7.012 6.992
2903.112 7.052 7.022 6.932 6.812 6.832 6.922 7.092 7.132 7.012 7.232
2922.401 7.642 7.792 7.832 8.212 8.582 8.872 9.242 9.522 9.742 9.882
2941.691 10.122 10.332 10.472 10.842 10.982 10.732 10.602 10.452 10.022 9.572
2960.981 9.262 8.982 8.562 8.392 8.442 8.472 8.622 8.882 8.842 8.622
2980.271 8.342 7.662 6.892 6.122 5.512 4.972 4.402 4.062 3.762 3.522
2999.561 3.372 3.192 3.052 3.122 3.152 3.272 3.562 3.672 3.932 4.182
3018.850 4.372 4.772 5.152 5.452 5.542 5.682 5.912 5.992 5.852 5.492
3038.140 5.242 4.952 4.602 4.512 4.432 4.372 4.462 4.562 4.702 5.012
3057.430 5.542 5.992 6.572 7.292 7.782 8.222 8.612 8.712 8.342 7.712
3076.720 6.992 6.382 5.612 5.002 4.692 4.292 3.922 3.572 3.242 2.962
3096.009 2.832 2.782 2.672 2.402 2.212 2.222 2.072 1.752 1.5907 1.752
3115.299 1.652 1.337 1.3879 1.3252 1.1157 1.1911 1.2834 1.2047 1.1454 0.9973
3134.589 0.9706 1.0554 1.1911 1.1679 1.0253 0.8946 0.9754 0.9997 1.0077 1.1609
3153.879 1.0369 0.8777 0.921 0.8907 0.67721 0.6949 0.7801 0.7578 0.9089 0.8969
3173.169 0.7942 0.8761 0.8868 1.0297 0.9404 0.5813 0.63288 0.7092 0.5749 0.77
3192.458 0.9262 0.836 0.7617 0.7022 0.7609 0.8049 0.8403 0.8188 0.68293 0.66888
3211.748 0.727 0.7089 0.68363 0.7144 0.8074 0.9228 0.8074 0.51 0.465 0.472
3231.038 0.5324 0.7374 0.7312 0.6317 0.5367 0.35 0.46 0.62737 0.61965 0.61256
3250.328 0.68673 0.7126 0.7603 0.7712 0.5239 0.482 0.58801 0.596508 0.5316 0.66008
3269.617 0.6949 0.437 0.341 0.5455 0.67428 0.7685 0.7013 0.58852 0.5405 0.405
3288.907 0.292 0.308 0.5462 0.67061 0.7897 0.7711 0.64175 0.58786 0.5436 0.5295
3308.197 0.63094 0.6963 0.64332 0.5379 0.58446 0.7326 0.8143 0.7441 0.63217 0.7508
3327.487 0.7803 0.7658 0.67228 0.598084 0.7511 0.7657 0.477 0.431 0.507 0.61543
3346.777 0.67445 0.514 0.4926 0.6163 0.7658 0.7527 0.67724 0.7306 0.7921 0.8476
3366.066 0.7715 0.63614 0.5706 0.5125 0.5677 0.67478 0.61222 0.5463 0.69196 0.61489
3385.356 0.427 0.484 0.5676 0.66375 0.7868 0.8711 0.67721 0.5055 0.61162 0.65624
3404.646 0.591544 0.359 0.328 0.4926 0.5579 0.5439 0.5107 0.459 0.383 0.5226
3423.936 0.63118 0.62194 0.5663 0.5171 0.7264 0.8309 0.68198 0.362 0.454 0.758
3443.225 0.62875 0.5085 0.328 0.303 0.5646 0.7017 0.69081 0.58411 0.5342 0.48
3462.515 0.396 0.412 0.437 0.5591 0.58438 0.5449 0.478 0.7199 0.7662 0.408
3481.805 0.448 0.5505 0.484 0.537 0.465 0.401 0.60156 0.596543 0.718 0.7088
3501.095 0.61634 0.454 0.464 0.7155 0.63379 0.66362 0.66726 0.5182 0.414 0.6268
3520.385 0.9065 0.8062 0.5174 0.362 0.43 0.296 0.17 0.338 0.413 0.42
3539.674 0.5018 0.455 0.41 0.427 0.407 0.448 0.48 0.5582 0.463 0.337
3558.964 0.305 0.358 0.457 0.435 0.433 0.456 0.335 0.29 0.436 0.453
3578.254 0.7106 0.8881 0.6944 0.534 0.381 0.437 0.7506 0.7498 0.431 0.438
3597.544 0.62231 0.7535 0.66357 0.5502 0.64272 0.611 0.48 0.406 0.5371 0.6802
3616.833 0.4986 0.323 0.408 0.377 0.394 0.63865 0.66561 0.369 0.374 0.59029
3636.123 0.603 0.468 0.4941 0.5209 0.5144 0.68018 0.67378 0.48 0.5331 0.61648
3655.413 0.409 0.356 0.5378 0.58981 0.5411 0.471 0.473 0.459 0.279 0.156
3674.703 0.339 0.5683 0.313 0.208 0.355 0.458 0.5087 0.39 0.401 0.433
3693.993 0.352 0.307 0.405 0.5666 0.5267 0.343 0.443 0.29 0.099 0.26
3713.282 0.364 0.488 0.423 0.269 0.461 0.65702 0.457 0.58764 0.9857 1.0281
3732.572 0.7773 0.461 0.361 0.288 0.362 0.513 0.5016 0.600518 0.423 0.456
3751.862 0.68996 0.7018 0.7285 0.7363 0.4948 0.195 0.312 0.473 0.375 0.371
3771.152 0.5573 0.595989 0.63324 0.5734 0.345 0.233 0.358 0.62745 0.6332 0.406
3790.441 0.277 0.262 0.5703 0.694 0.442 0.418 0.485 0.5118 0.391 0.333
3809.731 0.466 0.5815 0.428 0.409 0.63785 0.434 0.285 0.325 0.204 0.363
3829.021 0.5805 0.267 0 0.168 0.295 0.431 0.4921 0.354 0.5022 0.8185
3848.311 0.8995 0.884 0.61269 0.368 0.5774 0.7302 0.62368 0.7074 0.5464 0.15
3867.601 0.293 0.5367 0.66111 0.7607 0.5781 0.239 0.33 0.5239 0.5129 0.5572
3886.890 0.6963 0.7299 0.5298 0.433 0.66128 0.6671 0.429 0.5247 0.477 0.60265
3906.180 0.62227 0.177 0.369 0.66204 0.408 0.22 0.446 0.60772 0.6933 0.67051
3925.470 0.62003 0.9687 0.8117 0.60237 0.8061 0.7316 0.5624 0.62223 0.63028 0.357
3944.760 0.352 0.473 0.60736 0.68481 0.6841 0.64992 0.597362 0.334 0.234 0.467
3964.049 0.5533 0.62716 0.5864 0.7362 0.64017 0.59024 0.7995 0.7159 0.6055 0.5808
3983.339 0.597173 0.5073 0.600769 0.64405 0.7489 0.699 0.429 0.322 0.315 0.593199
##END=
