##TITLE=4-Chloro-3-hydroxybenzoic acid
##JCAMP-DX=4.24
##DATA TYPE=INFRARED SPECTRUM
##ORIGIN=EPA-IR VAPOR PHASE LIBRARY
##OWNER=SRD/NIST
Collection (C) 2018 copyright by the U.S. Secretary of Commerce
on behalf of the United States of America. All rights reserved.
##CAS REGISTRY NO=34113-69-4
##MOLFORM=C 7 H 5 Cl O 3
##$NIST SOURCE=MSDC-IR
##STATE=gas
##XUNITS=1/CM
##YUNITS=ABSORBANCE
##XFACTOR=1.
##YFACTOR=0.001
##DELTAX=1.92898
##FIRSTX=549.8
##LASTX=4000.7
##FIRSTY=3.689
##MAXX=4000.7
##MINX=549.759
##MAXY=0.039609
##MINY=0
##NPOINTS=1790
##XYDATA=(X++(Y..Y))
549.759 3.689 3.709 4.169 4.789 4.979 4.659 4.449 4.689 4.489 4.609
569.049 5.109 5.269 5.289 5.209 5.289 5.799 5.879 5.829 5.859 5.799
588.339 5.879 5.579 5.249 5.239 5.129 4.789 4.439 4.269 4.079 3.849
607.628 3.659 3.299 2.919 2.579 2.409 2.379 2.049 1.809 1.859 1.879
626.918 1.859 1.849 1.669 1.4074 1.3661 1.4617 1.5486 1.569 1.5255 1.4998
646.208 1.5113 1.619 1.5799 1.554 1.769 2.079 2.639 2.989 2.909 2.749
665.498 2.649 2.699 2.679 2.389 1.899 1.4269 1.2706 1.1546 1.0911 1.1577
684.787 1.09 1.1832 1.3134 1.3343 1.3765 1.2308 1.148 1.444 1.699 1.729
704.077 1.769 1.5641 1.4969 1.739 1.839 2.009 2.329 2.749 3.979 5.749
723.367 7.429 8.409 8.679 8.999 9.019 8.939 7.839 5.659 4.139 3.339
742.657 3.049 3.259 3.799 4.419 5.099 5.919 6.369 6.939 7.959 9.019
761.947 9.169 8.149 7.219 6.619 6.169 5.519 4.749 4.139 3.539 3.099
781.236 2.709 2.349 2.079 1.799 1.4102 1.2297 1.2078 1.1868 1.0899 1.1469
800.526 1.2305 1.2489 1.0919 0.9057 1.1817 1.2649 1.2354 1.1668 1.3212 1.639
819.816 1.639 1.4786 1.4998 1.599 1.5675 1.4347 1.3312 1.3359 1.1978 1.0075
839.106 1.0493 1.0641 1.0352 0.8605 0.7853 0.9083 0.8498 0.9794 1.1249 1.0949
858.395 1.1537 1.037 0.8891 1.1171 1.2157 1.2357 1.4361 1.3995 1.3501 1.4421
877.685 1.5202 1.629 1.749 1.839 1.939 2.059 2.319 2.519 2.599 2.669
896.975 2.569 2.649 2.679 2.479 2.399 2.379 2.469 2.649 2.719 2.989
916.265 3.379 3.719 4.119 4.399 4.389 4.399 4.659 4.839 4.509 3.909
935.555 3.359 2.869 2.709 2.559 2.109 1.719 1.5707 1.5465 1.392 1.1316
954.844 1.1549 1.1769 1.0475 1.0213 1.1163 1.3298 1.2685 1.0624 1.1501 1.1443
974.134 1.0961 0.9972 0.8604 1.0521 1.1387 1.1419 1.2012 1.2129 1.1873 1.1852
993.424 1.272 1.1937 1.0468 1.0523 1.2252 1.2195 1.1343 1.2329 1.3156 1.4467
1012.714 1.639 1.689 1.839 1.909 1.799 1.939 2.139 2.389 2.619 2.829
1032.003 3.419 3.809 4.429 5.169 5.589 5.919 6.089 6.459 6.759 6.599
1051.293 6.069 5.659 5.229 4.509 4.379 4.879 5.459 6.089 7.129 8.549
1070.583 10.279 11.759 13.079 14.359 15.059 15.729 16.539 17.069 16.239 14.369
1089.873 13.069 12.419 11.389 9.729 7.969 6.779 6.159 5.439 4.689 4.209
1109.163 3.999 3.909 3.699 3.779 4.139 4.159 4.369 4.699 4.839 5.359
1128.452 5.779 6.019 6.449 7.149 7.799 8.239 9.069 10.059 11.129 12.589
1147.742 14.359 16.419 17.929 18.679 19.309 19.619 19.579 18.959 17.819 16.459
1167.032 15.019 13.849 12.759 11.849 11.329 10.809 10.489 10.259 10.099 10.239
1186.322 10.369 10.739 11.259 11.959 12.409 12.559 12.729 12.989 13.169 13.079
1205.611 12.869 12.319 11.879 11.209 9.519 7.859 6.969 6.099 5.379 4.849
1224.901 4.239 3.879 3.729 3.669 3.529 3.599 3.949 4.229 4.749 5.169
1244.191 5.589 6.129 6.359 6.369 6.449 6.709 6.619 6.349 6.049 5.679
1263.481 5.389 5.029 4.699 4.559 4.509 4.559 4.699 4.929 5.189 5.379
1282.771 5.429 5.639 5.769 5.859 6.049 6.099 6.129 6.279 6.459 6.679
1302.060 7.009 7.299 7.749 8.189 8.649 9.109 9.429 9.749 9.999 10.159
1321.350 10.179 10.059 9.949 9.859 9.739 9.689 9.769 9.959 10.119 10.329
1340.640 10.569 10.619 10.509 10.279 9.839 9.159 8.419 7.709 7.059 6.609
1359.930 6.289 6.059 6.039 6.099 6.149 6.119 5.969 5.709 5.399 5.039
1379.219 4.579 3.969 3.429 3.069 2.739 2.479 2.329 2.239 2.109 2.039
1398.509 2.049 2.139 2.239 2.299 2.389 2.569 2.759 2.889 3.079 3.289
1417.799 3.519 3.789 4.059 4.389 4.699 5.049 5.369 5.639 6.029 6.289
1437.089 6.469 6.739 6.929 6.949 6.849 6.649 6.369 5.979 5.569 5.099
1456.378 4.599 4.159 3.729 3.389 3.239 3.319 3.399 3.619 4.089 4.549
1475.668 5.009 5.559 6.089 6.419 6.559 6.629 6.559 6.279 5.849 5.329
1494.958 4.809 4.249 3.729 3.339 2.959 2.599 2.419 2.209 2.009 1.869
1514.248 1.719 1.5847 1.4588 1.3976 1.3559 1.368 1.3987 1.3696 1.3382 1.3106
1533.538 1.3161 1.381 1.3428 1.3153 1.4486 1.5501 1.531 1.5585 1.679 1.819
1552.827 1.959 2.079 2.289 2.609 2.879 3.189 3.499 3.879 4.399 4.899
1572.117 5.379 5.829 6.239 6.639 6.999 7.189 7.109 6.929 6.799 6.519
1591.407 6.089 5.709 5.289 4.839 4.489 4.159 3.809 3.609 3.439 3.199
1610.697 2.989 2.709 2.459 2.279 2.099 1.919 1.689 1.508 1.41 1.3135
1629.986 1.2404 1.1983 1.1826 1.1526 1.1718 1.178 1.1142 1.1239 1.1233 1.1238
1649.276 1.0998 1.1379 1.1977 1.1852 1.1417 1.0915 1.051 0.9904 1.0072 1.0848
1668.566 1.1166 1.0515 1.0176 1.044 0.9538 0.8905 0.9316 0.9844 1.0359 1.0816
1687.856 1.1439 1.1722 1.1924 1.2485 1.3329 1.4377 1.639 1.859 1.969 2.039
1707.146 2.199 2.429 2.569 2.609 2.649 2.659 2.629 2.619 2.639 2.719
1726.435 2.719 2.609 2.639 2.829 3.119 3.489 4.029 4.829 5.829 7.159
1745.725 8.929 11.289 14.419 18.499 23.469 28.879 34.039 37.729 39.349 39.609
1765.015 39.389 38.629 36.019 30.759 23.839 17.719 13.209 9.929 7.639 6.039
1784.305 4.809 3.969 3.379 2.909 2.659 2.469 2.369 2.309 2.239 2.239
1803.594 2.309 2.359 2.339 2.349 2.419 2.439 2.399 2.429 2.339 2.089
1822.884 1.909 1.749 1.599 1.4522 1.2726 1.1312 1.058 1.0357 1.0072 0.9384
1842.174 0.8988 0.8632 0.835 0.8222 0.8702 0.8872 0.8281 0.8148 0.8606 0.8754
1861.464 0.8706 0.8894 0.8872 0.8737 0.8675 0.9015 0.9013 0.9408 1.0314 1.0264
1880.754 0.9587 0.9551 1.0105 1.0419 1.0047 0.9618 0.9632 0.9702 0.9041 0.8925
1900.043 0.8976 0.8792 0.8547 0.7639 0.7808 0.7842 0.7534 0.742 0.7214 0.7714
1919.333 0.7657 0.7127 0.7353 0.7433 0.7532 0.7928 0.7768 0.7474 0.7578 0.7387
1938.623 0.7438 0.7221 0.67074 0.6851 0.7114 0.7075 0.6333 0.64803 0.6913 0.64877
1957.913 0.593172 0.594642 0.61598 0.58536 0.64457 0.7013 0.68351 0.67143 0.67425 0.65923
1977.202 0.65125 0.68488 0.7304 0.65891 0.58669 0.65638 0.66616 0.64453 0.66272 0.66832
1996.492 0.66741 0.64348 0.67884 0.7385 0.6965 0.66383 0.6717 0.64354 0.64265 0.67439
2015.782 0.6814 0.7226 0.7643 0.7304 0.66766 0.66082 0.6701 0.64792 0.60356 0.5778
2035.072 0.5625 0.5747 0.62204 0.62945 0.63337 0.594114 0.62196 0.6413 0.62927 0.64628
2054.362 0.67118 0.65357 0.58656 0.58392 0.62326 0.63293 0.66325 0.7259 0.7266 0.7152
2073.651 0.65782 0.6944 0.68384 0.65052 0.7229 0.7227 0.7383 0.7237 0.6918 0.6948
2092.941 0.68269 0.6929 0.7181 0.6929 0.60089 0.5499 0.5769 0.61219 0.60158 0.62103
2112.231 0.63351 0.61417 0.5728 0.553 0.58254 0.65518 0.7025 0.63753 0.61589 0.64852
2131.521 0.64586 0.61892 0.62126 0.62577 0.6099 0.62032 0.60274 0.63077 0.60918 0.577
2150.810 0.65899 0.6811 0.68824 0.68556 0.66921 0.66646 0.65343 0.63647 0.6431 0.64908
2170.100 0.63208 0.66257 0.68022 0.63512 0.6508 0.65133 0.5513 0.5606 0.6382 0.64409
2189.390 0.60478 0.57953 0.5539 0.5869 0.6079 0.62807 0.65551 0.61663 0.59164 0.58564
2208.680 0.60507 0.60893 0.591325 0.60504 0.63129 0.61914 0.63751 0.62304 0.58219 0.58711
2227.970 0.64564 0.68471 0.67963 0.64246 0.5571 0.5761 0.63242 0.63713 0.68638 0.63108
2247.259 0.61122 0.67252 0.64719 0.62418 0.62129 0.6184 0.61675 0.58206 0.588198 0.63178
2266.549 0.66693 0.62554 0.60184 0.62131 0.61551 0.593425 0.5787 0.63598 0.68611 0.7115
2285.839 0.64107 0.59583 0.60517 0.61863 0.593198 0.6224 0.7232 0.7068 0.61152 0.66416
2305.129 0.7035 0.63033 0.63971 0.61808 0.590329 0.5639 0.5368 0.5166 0.5161 0.5516
2324.418 0.5571 0.5388 0.5783 0.63968 0.61482 0.58672 0.62462 0.5756 0.596494 0.66555
2343.708 0.5777 0.541 0.5706 0.60043 0.60903 0.60362 0.588135 0.61205 0.60079 0.533
2362.998 0.593956 0.68844 0.7362 0.6937 0.68561 0.6901 0.64268 0.63416 0.60316 0.60289
2382.288 0.63612 0.6972 0.68497 0.68032 0.67314 0.65178 0.68298 0.66211 0.64076 0.60081
2401.578 0.598277 0.5717 0.5633 0.61777 0.65499 0.61952 0.593562 0.67229 0.6903 0.64653
2420.867 0.594967 0.590325 0.65567 0.61242 0.60293 0.62441 0.608 0.62367 0.7051 0.7034
2440.157 0.5965 0.63925 0.67386 0.58127 0.5596 0.594359 0.588586 0.64951 0.7189 0.6898
2459.447 0.63798 0.58272 0.5148 0.5552 0.5649 0.58024 0.58326 0.590878 0.61293 0.62298
2478.737 0.67468 0.6789 0.7066 0.7264 0.71 0.709 0.6928 0.66613 0.63709 0.65888
2498.026 0.6944 0.6685 0.64004 0.58265 0.60111 0.61914 0.58249 0.63882 0.63155 0.5389
2517.316 0.5176 0.60168 0.7152 0.7121 0.7169 0.7218 0.63965 0.62438 0.63777 0.61875
2536.606 0.598507 0.64183 0.67518 0.60316 0.59979 0.63006 0.5503 0.477 0.5098 0.573
2555.896 0.5327 0.5364 0.5224 0.487 0.553 0.58696 0.60074 0.63972 0.66143 0.62108
2575.186 0.592883 0.592053 0.5394 0.5664 0.5751 0.4962 0.5426 0.590956 0.5734 0.591775
2594.475 0.65791 0.62816 0.476 0.404 0.5632 0.598715 0.5122 0.5335 0.58119 0.60616
2613.765 0.58708 0.5648 0.483 0.5088 0.66045 0.62402 0.5513 0.65265 0.6774 0.65872
2633.055 0.60948 0.596938 0.5696 0.487 0.5232 0.5508 0.57996 0.60206 0.6145 0.5707
2652.345 0.523 0.5365 0.64494 0.63547 0.62925 0.65104 0.5 0.461 0.5359 0.5627
2671.634 0.5527 0.5418 0.5133 0.457 0.394 0.411 0.452 0.5732 0.5549 0.468
2690.924 0.502 0.5579 0.65867 0.6487 0.5315 0.5548 0.64126 0.63284 0.5786 0.5001
2710.214 0.47 0.4902 0.5128 0.5096 0.5072 0.521 0.471 0.411 0.42 0.364
2729.504 0.291 0.398 0.5331 0.5631 0.5479 0.5669 0.5255 0.457 0.445 0.435
2748.794 0.47 0.5454 0.61753 0.5649 0.48 0.48 0.5486 0.5423 0.5117 0.475
2768.083 0.435 0.486 0.457 0.452 0.531 0.5717 0.5473 0.5381 0.5553 0.5511
2787.373 0.564 0.5634 0.4986 0.418 0.47 0.59981 0.5448 0.477 0.425 0.412
2806.663 0.461 0.44 0.43 0.5066 0.5196 0.47 0.447 0.39 0.427 0.486
2825.953 0.5476 0.5198 0.38 0.357 0.429 0.398 0.32 0.427 0.5394 0.5581
2845.242 0.5338 0.5405 0.5601 0.414 0.424 0.5238 0.5501 0.5125 0.524 0.471
2864.532 0.367 0.418 0.404 0.399 0.4911 0.5472 0.486 0.398 0.408 0.437
2883.822 0.413 0.449 0.451 0.371 0.394 0.467 0.43 0.41 0.43 0.385
2903.112 0.345 0.356 0.469 0.5334 0.459 0.415 0.484 0.424 0.443 0.5129
2922.401 0.421 0.392 0.463 0.436 0.415 0.457 0.422 0.411 0.326 0.308
2941.691 0.372 0.31 0.261 0.367 0.471 0.433 0.412 0.387 0.371 0.562
2960.981 0.5636 0.452 0.433 0.411 0.397 0.411 0.373 0.325 0.362 0.37
2980.271 0.44 0.457 0.482 0.5133 0.5047 0.4998 0.463 0.371 0.315 0.379
2999.561 0.4945 0.478 0.33 0.435 0.591042 0.447 0.302 0.313 0.395 0.453
3018.850 0.387 0.4901 0.5547 0.407 0.372 0.422 0.44 0.439 0.429 0.31
3038.140 0.151 0.248 0.418 0.431 0.486 0.58767 0.6513 0.5464 0.5415 0.61105
3057.430 0.484 0.5087 0.66998 0.7222 0.67827 0.60841 0.64488 0.65139 0.64825 0.65871
3076.720 0.7246 0.7467 0.8478 0.8879 0.67954 0.65487 0.62564 0.64943 0.62269 0.5597
3096.009 0.4959 0.394 0.465 0.384 0.376 0.548 0.5214 0.466 0.463 0.385
3115.299 0.422 0.401 0.459 0.517 0.439 0.456 0.437 0.5121 0.473 0.393
3134.589 0.427 0.527 0.5656 0.4895 0.5132 0.5565 0.44 0.361 0.391 0.34
3153.879 0.436 0.466 0.331 0.385 0.38 0.397 0.448 0.332 0.339 0.4
3173.169 0.354 0.398 0.5602 0.5047 0.456 0.417 0.323 0.453 0.5431 0.483
3192.458 0.472 0.407 0.365 0.373 0.381 0.471 0.463 0.406 0.384 0.332
3211.748 0.3 0.436 0.5475 0.483 0.385 0.218 0.224 0.349 0.379 0.429
3231.038 0.384 0.355 0.351 0.346 0.349 0.376 0.337 0.406 0.468 0.416
3250.328 0.468 0.5405 0.58218 0.58187 0.5566 0.4992 0.443 0.426 0.4902 0.4968
3269.617 0.322 0.285 0.334 0.347 0.378 0.315 0.366 0.356 0.324 0.373
3288.907 0.333 0.307 0.432 0.485 0.462 0.5595 0.454 0.266 0.264 0.28
3308.197 0.415 0.4949 0.455 0.5316 0.435 0.307 0.34 0.438 0.4924 0.5518
3327.487 0.67578 0.522 0.387 0.513 0.63453 0.63674 0.63855 0.64966 0.5115 0.47
3346.777 0.473 0.481 0.486 0.5428 0.57956 0.60383 0.64682 0.5737 0.396 0.192
3366.066 0.274 0.483 0.5246 0.5252 0.5206 0.5229 0.5124 0.451 0.46 0.438
3385.356 0.373 0.402 0.414 0.352 0.415 0.5374 0.5524 0.5391 0.466 0.413
3404.646 0.489 0.5477 0.487 0.46 0.384 0.354 0.449 0.385 0.291 0.397
3423.936 0.438 0.4967 0.6686 0.64254 0.5757 0.4891 0.393 0.338 0.369 0.462
3443.225 0.447 0.427 0.474 0.393 0.404 0.425 0.453 0.595259 0.5181 0.433
3462.515 0.5218 0.5012 0.5521 0.62009 0.475 0.41 0.5273 0.61201 0.503 0.435
3481.805 0.5187 0.60752 0.569 0.5511 0.5626 0.5056 0.477 0.5514 0.5322 0.62912
3501.095 0.7462 0.7293 0.7897 0.7872 0.7539 0.66029 0.7343 0.8017 0.63257 0.62563
3520.385 0.7732 0.8428 0.8846 0.832 0.7045 0.7033 0.7037 0.7184 0.6983 0.6892
3539.674 0.7633 0.65381 0.7376 0.8518 0.8664 0.8999 0.9279 1.0658 1.202 1.3702
3558.964 1.669 2.049 2.559 3.679 5.459 7.999 11.599 15.399 18.829 22.089
3578.254 24.819 26.399 26.379 24.639 21.659 18.269 14.809 11.089 7.489 4.939
3597.544 3.259 2.209 1.709 1.3366 1.1545 1.0929 1.0135 0.9053 0.792 0.7984
3616.833 0.7783 0.7293 0.7111 0.5169 0.5124 0.7534 0.7069 0.6134 0.8328 0.8869
3636.123 0.9067 1.1501 1.2133 1.1109 1.1031 1.0996 1.0998 1.2468 1.2477 1.2037
3655.413 1.1297 1.0055 0.9861 0.9168 0.7839 0.8207 0.8453 0.5067 0.251 0.351
3674.703 0.5705 0.62856 0.58615 0.58705 0.58588 0.478 0.366 0.445 0.463 0.392
3693.993 0.443 0.479 0.496 0.5419 0.5345 0.491 0.5415 0.68104 0.65986 0.5699
3713.282 0.4913 0.401 0.392 0.485 0.5114 0.432 0.362 0.422 0.4979 0.41
3732.572 0.5422 0.5711 0.349 0.457 0.62684 0.5648 0.411 0.387 0.463 0.5489
3751.862 0.4979 0.462 0.5288 0.5326 0.392 0.32 0.39 0.451 0.444 0.288
3771.152 0.181 0.218 0.313 0.432 0.406 0.36 0.385 0.385 0.5138 0.5203
3790.441 0.437 0.475 0.4978 0.489 0.4 0.423 0.371 0.351 0.389 0.252
3809.731 0.307 0.322 0.423 0.48 0.397 0.391 0.361 0.377 0.458 0.63354
3829.021 0.589433 0.5748 0.6477 0.62797 0.5565 0.4923 0.58081 0.5095 0.371 0.35
3848.311 0.453 0.476 0.476 0.5295 0.5101 0.431 0.434 0.47 0.376 0.5054
3867.601 0.5485 0.361 0.223 0.193 0.285 0.345 0.477 0.386 0.213 0.247
3886.890 0.396 0.449 0.374 0.421 0.376 0.348 0.363 0.322 0.203 0
3906.180 0.021 0.298 0.374 0.293 0.433 0.431 0.269 0.422 0.5536 0.365
3925.470 0.408 0.5572 0.325 0.241 0.307 0.262 0.37 0.549 0.465 0.428
3944.760 0.5659 0.5714 0.5645 0.5195 0.424 0.43 0.448 0.424 0.384 0.429
3964.049 0.481 0.328 0.299 0.5077 0.456 0.345 0.299 0.157 0.174 0.389
3983.339 0.5098 0.398 0.389 0.354 0.207 0.203 0.344 0.387 0.433 0.58166
##END=
