##TITLE=o-Ethylbenzonitrile
##JCAMP-DX=4.24
##DATA TYPE=INFRARED SPECTRUM
##ORIGIN=NIST Mass Spectrometry Data Center
##OWNER=NIST Standard Reference Data Program
Collection (C) 2018 copyright by the U.S. Secretary of Commerce
on behalf of the United States of America. All rights reserved.
##CAS REGISTRY NO=34136-59-9
##MOLFORM=C 9 H 9 N
##$NIST SOURCE=MSDC-IR
##SPECTROMETER/DATA SYSTEM=HP-GC/MS/IRD
##STATE=gas
##XUNITS=1/CM
##YUNITS=ABSORBANCE
##XFACTOR=1.0
##YFACTOR=0.000001600
##DELTAX=4.0
##FIRSTX=550.0
##LASTX=3846.0
##FIRSTY=0.000706
##MAXX=3846
##MINX=550
##MAXY=0.016
##MINY=0
##NPOINTS=825
##XYDATA=(X++(Y..Y))
550.0 441 737 619 493 308 208 157 167 186 185
590.0 193 183 169 136 131 108 69 64 50 81
630.0 94 93 108 124 128 92 47 26 74 102
670.0 112 153 147 179 244 285 323 449 500 513
710.0 560 556 551 600 715 979 1529 2568 3956 5155
750.0 6576 9683 10000 6932 5460 4269 2692 1573 946 677
790.0 603 548 488 447 469 456 371 348 329 268
830.0 210 172 171 191 202 192 195 203 211 213
870.0 209 204 195 188 152 139 159 161 168 167
910.0 152 155 183 220 239 297 337 338 365 486
950.0 476 353 321 307 291 239 184 167 147 111
990.0 104 110 111 125 127 129 165 246 313 355
1030.0 446 525 591 628 671 746 760 765 729 642
1070.0 538 433 343 281 240 219 228 234 249 301
1110.0 327 310 289 250 232 195 132 110 99 100
1150.0 153 222 281 308 305 296 236 164 133 138
1190.0 143 147 181 220 249 253 240 217 187 190
1230.0 241 280 282 291 323 326 289 259 273 295
1270.0 335 406 425 410 399 392 374 370 379 399
1310.0 442 466 492 520 495 471 438 384 342 312
1350.0 297 282 266 264 298 335 370 428 486 485
1390.0 465 418 348 322 325 338 352 389 468 555
1430.0 690 900 1183 1494 1713 1872 2009 2042 2003 2006
1470.0 2121 2364 2645 2750 2648 2380 1949 1390 892 605
1510.0 452 375 302 240 201 156 118 97 82 89
1550.0 94 79 73 96 125 146 195 257 316 422
1590.0 567 689 756 754 698 638 573 512 470 415
1630.0 369 316 247 181 124 90 63 57 68 75
1670.0 72 72 74 76 112 169 201 206 210 208
1710.0 187 147 122 129 131 133 125 123 113 86
1750.0 57 44 33 29 38 44 45 52 54 68
1790.0 90 112 153 195 256 283 288 283 236 187
1830.0 155 145 147 157 171 176 160 126 93 66
1870.0 44 46 68 100 128 146 162 167 159 159
1910.0 195 269 330 362 357 335 298 237 193 201
1950.0 244 276 281 257 203 143 91 59 47 44
1990.0 31 27 33 21 18 26 25 18 21 30
2030.0 33 23 19 28 32 23 14 6 3 9
2070.0 15 7 6 15 16 10 3 0 0 10
2110.0 16 14 16 29 23 17 25 14 14 21
2150.0 26 31 17 11 32 52 62 61 62 76
2190.0 85 99 121 168 266 421 653 963 1241 1409
2230.0 1443 1323 1025 635 336 189 131 99 88 89
2270.0 94 104 114 101 86 83 90 97 91 84
2310.0 85 92 102 105 102 113 125 125 95 68
2350.0 66 62 46 32 30 39 53 60 69 65
2390.0 43 45 57 63 60 46 52 58 51 39
2430.0 52 69 62 59 70 62 51 57 58 61
2470.0 48 31 46 52 53 59 50 51 50 47
2510.0 68 79 63 50 43 56 67 52 45 56
2550.0 66 59 60 69 73 65 54 49 54 61
2590.0 67 75 70 62 62 76 91 92 97 102
2630.0 113 118 126 126 109 107 106 106 117 113
2670.0 115 118 113 135 129 108 118 136 122 117
2710.0 123 109 113 113 114 131 144 165 176 177
2750.0 194 221 208 203 204 208 225 240 266 280
2790.0 272 243 243 250 246 252 257 282 314 335
2830.0 354 375 413 460 497 523 574 670 804 961
2870.0 1213 1550 1912 2245 2458 2494 2406 2278 2127 1989
2910.0 1877 1832 1854 1921 2080 2343 2695 3129 3526 3720
2950.0 3730 3691 3613 3653 4128 5068 5950 6484 6509 5944
2990.0 4812 3440 2402 1789 1435 1250 1202 1265 1394 1548
3030.0 1676 1738 1710 1599 1462 1361 1372 1528 1798 2153
3070.0 2535 2810 2873 2726 2410 1987 1537 1168 961 845
3110.0 707 590 544 468 393 383 393 387 347 320
3150.0 323 299 270 259 236 209 199 210 213 192
3190.0 169 157 168 168 141 118 92 76 104 128
3230.0 102 83 77 82 75 66 88 105 89 94
3270.0 109 96 113 117 89 77 91 100 120 109
3310.0 68 53 79 108 89 74 80 86 84 91
3350.0 99 95 80 68 52 73 88 77 102 112
3390.0 106 105 130 117 79 104 143 159 120 70
3430.0 98 129 115 96 111 121 106 113 107 111
3470.0 114 97 108 109 95 96 104 96 82 100
3510.0 105 95 78 67 67 70 77 80 101 93
3550.0 90 101 102 83 56 57 79 107 98 54
3590.0 44 72 95 88 64 37 52 69 83 98
3630.0 98 109 109 111 81 32 79 102 113 110
3670.0 80 64 84 108 76 60 70 83 96 96
3710.0 112 135 113 86 76 102 89 86 97 80
3750.0 86 91 120 108 86 83 95 132 130 138
3790.0 130 116 111 78 98 128 102 106 137 116
3830.0 129 173 157 138 130
##END=
