##TITLE=2-Bromobenzaldoxime
##JCAMP-DX=4.24
##DATA TYPE=INFRARED SPECTRUM
##ORIGIN=EPA-IR VAPOR PHASE LIBRARY
##OWNER=SRD/NIST
Collection (C) 2018 copyright by the U.S. Secretary of Commerce
on behalf of the United States of America. All rights reserved.
##CAS REGISTRY NO=34158-72-0
##MOLFORM=C 7 H 6 Br N O
##$NIST SOURCE=MSDC-IR
##STATE=gas
##XUNITS=1/CM
##YUNITS=ABSORBANCE
##XFACTOR=1.
##YFACTOR=0.001
##DELTAX=1.92934
##FIRSTX=549.9
##LASTX=3999.5
##FIRSTY=5.83
##MAXX=3999.53
##MINX=549.863
##MAXY=0.18026
##MINY=0
##NPOINTS=1789
##XYDATA=(X++(Y..Y))
549.863 5.83 6.15 6.18 6.07 6.09 6.23 6.17 6.4 6.58 6.5
569.156 6.64 6.82 6.96 6.99 7.14 7.26 7.2 7.09 6.7 6.41
588.450 6.31 5.99 5.81 5.7 5.49 5.51 5.62 5.57 5.62 5.72
607.743 5.93 6.33 6.89 7.95 9.68 12.52 16.44 20.9 24.97 27.71
627.037 29.26 30.46 31.79 32.16 30.35 26.34 21.62 17.85 15.37 13.69
646.330 12.47 11.7 11.2 10.95 10.9 11.03 11.34 11.66 12.17 12.96
665.624 14.24 16.33 19.12 22.83 27.59 32.96 38.16 42.28 45.04 46.44
684.917 46.42 45.24 42.96 39.34 34.71 30.1 26.49 23.84 21.95 20.7
704.210 19.82 18.9 18.07 17.65 17.88 18.07 17.76 18.14 19.44 20.98
723.504 22.85 25.23 28.2 32.15 37.08 42.86 49.93 58.31 67.53 76.87
742.797 85.96 95.96 108.42 120.47 123.08 112.42 96.23 82.25 71.2 61.35
762.091 51.88 42.91 35.14 29 24.36 20.8 18.19 16.07 13.99 11.92
781.384 10.13 8.83 7.99 7.44 7.05 6.87 6.81 6.68 6.67 6.76
800.678 6.79 6.93 7.08 7.09 7.15 7.34 7.56 7.97 8.32 8.59
819.971 8.82 9.01 9.24 9.49 9.67 9.79 9.84 9.89 10.02 10.25
839.264 10.61 11.18 12.07 13.4 15.62 18.91 23.55 29.7 36.89 44.34
858.558 50.77 55.33 58.05 59.53 59.75 57.89 53.82 47.94 41.42 35.76
877.851 31.62 28.94 27.31 26.27 25.44 24.45 23.38 22.34 21.4 20.6
897.145 20 19.58 19.5 19.98 20.83 21.89 23 24.16 25.35 26.55
916.438 27.79 29.18 30.71 32.37 34.36 36.96 40.56 45.75 52.34 59.69
935.732 67.94 78.24 91 105.68 121.68 138.57 155.74 170.96 179.94 180.26
955.025 174.34 164.57 150.84 133.14 111.99 88.87 66.38 47.72 34.59 26.53
974.318 22.04 19.45 17.63 16.2 15.01 13.88 12.96 12.18 11.53 11.08
993.612 10.82 10.65 10.54 10.53 10.73 11.3 12.22 13.55 15.68 19.08
1012.905 23.95 30.48 38.48 46.89 54.11 59.01 61.71 63.34 64.47 63.91
1032.199 60.67 55.35 49.36 44.03 39.81 36.42 33.83 31.97 30.23 27.69
1051.492 24 19.85 16.13 13.32 11.4 10.03 9.09 8.38 7.73 7.05
1070.786 6.34 5.76 5.22 4.76 4.44 4.29 4.14 3.98 3.96 3.8
1090.079 3.67 3.77 3.91 3.99 4.14 4.43 4.75 5.24 6.09 7.24
1109.372 8.52 9.84 10.86 11.5 11.79 11.75 11.38 10.67 9.62 8.05
1128.666 6.32 5.07 4.17 3.63 3.56 3.41 3.4 3.42 3.41 3.58
1147.959 3.68 3.88 4.11 4.29 4.5 4.65 4.75 4.77 4.86 4.87
1167.253 4.67 4.35 4.12 3.96 3.72 3.51 3.47 3.72 3.84 3.97
1186.546 4.31 4.87 5.97 7.17 8.59 10.87 13.94 17.3 20.29 22.84
1205.840 24.8 25.78 25.87 25.23 23.84 20.67 16.54 13.27 11.07 9.69
1225.133 9.1 8.95 9.04 9.74 10.93 12.55 14.58 17.13 20.53 24.81
1244.426 30.38 37.67 46.32 55.54 64.23 71.11 75.45 77.58 78.73 79.73
1263.720 79.53 77.07 73.14 69.41 66.79 65.04 63.09 60.27 56.34 51.24
1283.013 45.32 38.8 31.87 25.51 20.56 17.09 14.79 13.28 12.26 11.55
1302.307 11.03 10.63 10.37 10.14 9.84 9.57 9.33 9.08 8.8 8.48
1321.600 8.29 8.1 7.92 7.89 7.93 7.94 8.05 8.2 8.45 8.75
1340.894 8.92 9.1 9.17 9.11 8.98 8.79 8.52 8.12 7.68 7.29
1360.187 6.98 6.76 6.65 6.73 6.95 7.25 7.77 8.45 9.29 10.31
1379.480 11.52 12.92 14.43 16.18 18.22 20.45 22.79 25.02 26.91 28.07
1398.774 28.32 27.94 27.28 26.23 24.83 23.15 21.23 19.66 18.75 18.49
1418.067 18.75 19.36 20.49 22.39 25.19 28.92 33.32 37.59 40.79 42.18
1437.361 41.79 40.51 38.63 35.57 30.89 25.08 19.53 15.68 13.84 13.82
1456.654 15.35 18.08 21.75 26.3 31.14 35.51 38.43 39.53 39.1 37.83
1475.948 35.79 32.09 26.51 20.09 14.33 10.16 7.67 6.33 5.67 5.39
1495.241 5.29 5.26 5.19 5.12 4.95 4.65 4.4 4.14 3.85 3.48
1514.534 3.14 2.87 2.72 2.6 2.416 2.3077 2.2399 2.1747 2.1147 2.0479
1533.828 2.0093 2.0342 2.1381 2.3564 2.64 3.01 3.5 4.1 4.95 6.02
1553.121 7.22 8.57 9.8 10.9 11.81 12.34 12.57 12.59 12.24 11.45
1572.415 10.47 9.53 9.01 9.03 9.47 10.25 11.22 12.17 12.86 13.19
1591.708 13.09 12.71 12.15 11.34 10.3 9.08 7.94 7.04 6.37 6.04
1611.002 5.86 5.71 5.51 5.22 5.02 4.79 4.46 4.16 3.85 3.56
1630.295 3.3 3.04 2.73 2.4749 2.3487 2.2631 2.1621 2.012 1.9018 1.8562
1649.588 1.801 1.7218 1.6835 1.6826 1.6271 1.614 1.6805 1.7578 1.763 1.809
1668.882 1.8738 1.9716 2.101 2.2006 2.3219 2.4484 2.6 2.74 2.93 3.17
1688.175 3.3 3.33 3.39 3.41 3.41 3.39 3.29 3.22 3.15 3.01
1707.469 2.86 2.78 2.78 2.73 2.64 2.54 2.54 2.49 2.3752 2.2716
1726.762 2.1047 1.9587 1.8624 1.7288 1.6071 1.50802 1.378 1.273 1.224 1.233
1746.056 1.199 1.163 1.175 1.178 1.154 1.114 1.109 1.132 1.16 1.161
1765.349 1.162 1.181 1.193 1.195 1.243 1.335 1.4149 1.4647 1.57716 1.7813
1784.642 1.9867 2.119 2.2415 2.3864 2.58 2.85 3.08 3.27 3.52 3.81
1803.936 3.96 3.98 3.97 3.88 3.71 3.5 3.28 3.11 2.96 2.86
1823.229 2.87 2.89 2.96 3.05 3.16 3.26 3.31 3.3 3.28 3.27
1842.523 3.15 3.04 2.98 2.94 2.99 3.1 3.2 3.31 3.44 3.54
1861.816 3.59 3.62 3.63 3.7 3.75 3.66 3.65 3.7 3.76 3.87
1881.110 3.99 4.06 4.13 4.3 4.49 4.64 4.85 5.04 5.19 5.32
1900.403 5.36 5.39 5.43 5.37 5.22 5.04 4.87 4.77 4.69 4.62
1919.696 4.56 4.4 4.18 3.98 3.79 3.54 3.31 3.09 2.89 2.78
1938.990 2.75 2.78 2.9 3.08 3.24 3.34 3.38 3.31 3.18 3.01
1958.283 2.73 2.4878 2.2295 1.8738 1.5381 1.297 1.177 1.087 1.016 0.962
1977.577 0.956 0.967 0.893 0.845 0.838 0.8 0.81 0.828 0.789 0.785
1996.870 0.812 0.782 0.743 0.751 0.774 0.785 0.758 0.756 0.761 0.722
2016.164 0.707 0.742 0.765 0.755 0.745 0.726 0.731 0.695 0.658 0.711
2035.457 0.704 0.667 0.705 0.685 0.656 0.674 0.674 0.669 0.672 0.629
2054.750 0.624 0.639 0.615 0.644 0.68 0.702 0.666 0.615 0.63 0.66
2074.044 0.633 0.604 0.627 0.682 0.692 0.699 0.72 0.702 0.703 0.725
2093.337 0.756 0.74 0.705 0.709 0.685 0.61 0.614 0.653 0.653 0.688
2112.631 0.71 0.682 0.689 0.712 0.695 0.664 0.689 0.725 0.72 0.692
2131.924 0.696 0.691 0.665 0.702 0.735 0.692 0.658 0.653 0.644 0.646
2151.218 0.644 0.683 0.696 0.678 0.682 0.661 0.66 0.682 0.633 0.607
2170.511 0.62 0.61 0.609 0.646 0.646 0.597 0.568 0.571 0.577 0.584
2189.804 0.59 0.602 0.656 0.701 0.684 0.661 0.717 0.788 0.816 0.82
2209.098 0.813 0.794 0.8 0.845 0.862 0.834 0.831 0.863 0.908 0.928
2228.391 0.941 0.96 1.03 1.097 1.076 1.075 1.093 1.083 1.092 1.096
2247.685 1.102 1.097 1.027 0.999 1.014 1.013 1.019 1.022 1.008 1.036
2266.978 1.096 1.151 1.129 1.091 1.103 1.1 1.113 1.149 1.141 1.058
2286.272 1.007 1.019 1.009 0.977 1.034 1.07 1.08 1.111 1.138 1.183
2305.565 1.205 1.31 1.4347 1.52635 1.6076 1.6816 1.7766 1.8775 1.9492 1.9458
2324.858 1.9326 1.8773 1.8043 1.7255 1.6027 1.50549 1.373 1.266 1.297 1.252
2344.152 1.142 1.118 1.076 1.056 1.112 1.187 1.187 1.224 1.275 1.266
2363.445 1.292 1.298 1.306 1.291 1.236 1.177 1.131 1.086 0.987 0.924
2382.739 0.9 0.838 0.803 0.787 0.701 0.67 0.689 0.621 0.596 0.654
2402.032 0.662 0.604 0.548 0.523 0.506 0.516 0.549 0.565 0.557 0.554
2421.326 0.571 0.576 0.538 0.571 0.595 0.582 0.604 0.62 0.64 0.627
2440.619 0.642 0.641 0.639 0.627 0.619 0.611 0.601 0.582 0.542 0.574
2459.912 0.624 0.654 0.707 0.707 0.714 0.744 0.754 0.769 0.796 0.831
2479.206 0.829 0.8 0.82 0.872 0.901 0.967 0.994 0.99 1.082 1.156
2498.499 1.197 1.288 1.369 1.4175 1.51201 1.5931 1.6247 1.6783 1.6642 1.631
2517.793 1.676 1.6931 1.6583 1.6127 1.56464 1.57516 1.6018 1.5979 1.56399 1.56289
2537.086 1.56269 1.52672 1.48225 1.49435 1.49997 1.4559 1.4656 1.51008 1.54508 1.48771
2556.380 1.463 1.4709 1.4522 1.461 1.4129 1.4221 1.455 1.4171 1.333 1.262
2575.673 1.295 1.305 1.301 1.272 1.262 1.244 1.126 1.127 1.154 1.161
2594.966 1.172 1.133 1.12 1.147 1.192 1.168 1.136 1.206 1.311 1.332
2614.260 1.309 1.334 1.366 1.4061 1.4877 1.51557 1.56929 1.6801 1.7222 1.6509
2633.553 1.7526 1.9086 1.9906 2.0862 1.9648 1.9046 1.9455 1.9258 1.8561 1.8557
2652.847 1.8136 1.6274 1.56893 1.52209 1.4582 1.383 1.225 1.115 1.121 1.115
2672.140 1.07 1.071 1.087 1.018 0.882 0.85 0.892 0.846 0.811 0.798
2691.434 0.683 0.546 0.532 0.57 0.534 0.543 0.514 0.41 0.4 0.44
2710.727 0.43 0.43 0.45 0.44 0.41 0.42 0.41 0.44 0.513 0.511
2730.020 0.48 0.46 0.45 0.494 0.518 0.522 0.502 0.509 0.49 0.507
2749.314 0.594 0.551 0.47 0.46 0.44 0.37 0.35 0.39 0.37 0.3
2768.607 0.34 0.35 0.38 0.44 0.496 0.47 0.497 0.529 0.537 0.548
2787.901 0.49 0.49 0.45 0.44 0.545 0.561 0.45 0.42 0.33 0.2
2807.194 0.23 0.22 0.25 0.31 0.3 0.28 0.21 0.26 0.35 0.3
2826.488 0.3 0.39 0.42 0.45 0.49 0.47 0.42 0.46 0.5 0.492
2845.781 0.41 0.39 0.4 0.45 0.47 0.43 0.49 0.519 0.546 0.56
2865.074 0.578 0.655 0.622 0.505 0.47 0.4 0.37 0.4 0.3 0.3
2884.368 0.31 0.24 0.25 0.21 0.23 0.29 0.3 0.34 0.25 0.21
2903.661 0.26 0.22 0.23 0.2 0.1 0.17 0.24 0.24 0.26 0.3
2922.955 0.3 0.35 0.37 0.37 0.45 0.511 0.606 0.597 0.581 0.693
2942.248 0.751 0.824 0.95 0.997 1.022 1.064 1.225 1.374 1.4008 1.56349
2961.542 1.7881 1.9078 2.1255 2.3411 2.53 2.88 3.44 3.77 3.87 4.09
2980.835 4.32 4.46 4.48 4.43 4.29 4.05 3.69 3.29 2.87 2.53
3000.128 2.3049 2.1209 2.0222 2.1137 2.2416 2.2968 2.4342 2.62 2.86 3
3019.422 3.04 3.17 3.23 3.37 3.57 3.69 3.95 4.03 4.06 4.18
3038.715 4.21 4.4 4.72 5.09 5.59 6.39 7.47 8.77 10.27 12.1
3058.009 14.1 15.83 17.54 19.38 21.08 22.9 24.77 26.27 27.04 26.82
3077.302 26 24.92 23.65 21.98 19.57 16.63 13.5 10.83 8.77 7.17
3096.596 6.08 5.19 4.45 3.87 3.32 2.88 2.68 2.56 2.4424 2.53
3115.889 2.62 2.62 2.66 2.73 2.77 2.8 2.73 2.54 2.5 2.4419
3135.182 2.0354 1.58195 1.365 1.19 0.949 0.633 0.48 0.43 0.29 0.35
3154.476 0.38 0.32 0.26 0.22 0.3 0.24 0.22 0.38 0.34 0.25
3173.769 0.29 0.27 0.17 0.2 0.31 0.31 0.36 0.3 0.29 0.35
3193.063 0.3 0.29 0.22 0.13 0.13 0.02 0 0.24 0.25 0.13
3212.356 0.18 0.22 0.22 0.24 0.18 0.15 0.23 0.21 0.15 0.22
3231.650 0.36 0.38 0.504 0.583 0.75 0.786 0.796 1.048 1.083 1.366
3250.943 1.8016 1.808 1.6884 1.4718 1.365 1.51265 1.311 0.982 0.913 0.899
3270.236 0.695 0.717 0.771 0.666 0.601 0.579 0.532 0.42 0.38 0.42
3289.530 0.35 0.38 0.51 0.41 0.26 0.19 0.3 0.41 0.42 0.28
3308.823 0.23 0.17 0.15 0.28 0.38 0.32 0.3 0.23 0.18 0.32
3328.117 0.31 0.26 0.31 0.35 0.21 0.06 0.25 0.35 0.27 0.15
3347.410 0.13 0.26 0.32 0.29 0.2 0.37 0.54 0.25 0.09 0.26
3366.704 0.18 0.2 0.3 0.24 0.19 0.28 0.43 0.4 0.21 0.17
3385.997 0.25 0.22 0.08 0.14 0.34 0.41 0.34 0.23 0.18 0.12
3405.290 0.36 0.531 0.505 0.31 0.12 0.16 0.28 0.39 0.32 0.3
3424.584 0.42 0.33 0.33 0.503 0.47 0.45 0.617 0.513 0.38 0.3
3443.877 0.26 0.48 0.522 0.46 0.47 0.574 0.507 0.42 0.526 0.609
3463.171 0.616 0.621 0.793 0.812 0.57 0.566 0.683 0.692 0.568 0.519
3482.464 0.547 0.45 0.508 0.613 0.614 0.545 0.492 0.588 0.705 0.757
3501.758 0.85 0.94 0.977 0.874 0.77 0.719 0.745 0.812 0.821 0.835
3521.051 0.834 0.93 1.056 1.096 1.035 1.093 1.062 1.042 1.148 1.247
3540.344 1.231 1.121 1.318 1.51286 1.51734 1.55461 1.6413 1.8054 1.9264 2.021
3559.638 2.3254 2.4631 2.57 2.96 3.16 3.28 3.43 3.63 3.91 4.02
3578.931 4.09 4.13 4.17 4.41 4.57 4.89 5.32 5.56 5.84 6.21
3598.225 6.59 7.09 7.89 9.02 10.36 11.98 13.98 16.41 19.44 23.13
3617.518 27.74 33.33 39.94 48.17 58.29 69.77 82.86 98.05 116.11 136.87
3636.812 154.03 161.21 157.85 150.42 140.61 126.19 109.69 86.49 58.27 35.15
3656.105 20.51 12.87 9.07 7.11 5.97 5.21 4.83 4.54 4.21 4.06
3675.398 3.95 3.82 3.9 4.06 4.07 4.08 4.08 4.11 4.21 4.39
3694.692 4.33 4.05 3.93 3.83 3.71 3.64 3.58 3.39 3.22 3.08
3713.985 2.89 2.77 2.49 2.2296 2.2093 2.1051 1.9661 1.8142 1.7393 1.7111
3733.279 1.54972 1.55655 1.5933 1.3904 1.266 1.194 1.302 1.4452 1.348 1.363
3752.572 1.4146 1.326 1.249 1.157 1.041 1.15 1.224 1.183 1.048 1.019
3771.866 1.023 0.911 1.008 1.091 0.985 0.972 0.98 0.836 0.75 0.75
3791.159 0.741 0.735 0.808 0.835 0.83 0.795 0.707 0.638 0.667 0.804
3810.452 0.796 0.718 0.721 0.723 0.808 0.776 0.687 0.801 0.904 0.875
3829.746 0.888 0.896 0.789 0.707 0.838 0.857 0.705 0.726 0.693 0.673
3849.039 0.611 0.63 0.739 0.724 0.738 0.752 0.75 0.792 0.857 0.857
3868.333 0.873 0.848 0.839 0.863 0.902 0.848 0.867 0.94 0.792 0.75
3887.626 0.865 0.828 0.759 0.865 0.976 0.977 0.929 0.968 1.08 1.088
3906.920 1.035 1.016 0.968 0.989 1.042 1.077 1.106 1.139 1.263 1.359
3926.213 1.3965 1.3996 1.303 1.223 1.255 1.335 1.332 1.359 1.345 1.237
3945.506 1.22 1.26 1.33 1.249 1.199 1.216 1.162 1.192 1.167 1.179
3964.800 1.209 1.13 1.092 1.21 1.251 1.277 1.284 1.218 1.245 1.307
3984.093 1.361 1.322 1.31 1.287 1.282 1.219 1.136 1.178 1.359
##END=
