##TITLE=p-Methoxybenzamide
##JCAMP-DX=4.24
##DATA TYPE=INFRARED SPECTRUM
##ORIGIN=EPA-IR VAPOR PHASE LIBRARY
##OWNER=SRD/NIST
Collection (C) 2018 copyright by the U.S. Secretary of Commerce
on behalf of the United States of America. All rights reserved.
##CAS REGISTRY NO=3424-93-9
##MOLFORM=C 8 H 9 N O 2
##$NIST SOURCE=MSDC-IR
##STATE=gas
##XUNITS=1/CM
##YUNITS=ABSORBANCE
##XFACTOR=1.
##YFACTOR=0.001
##DELTAX=1.92898
##FIRSTX=549.8
##LASTX=4000.7
##FIRSTY=1.7845
##MAXX=4000.7
##MINX=549.759
##MAXY=0.041977
##MINY=0
##NPOINTS=1790
##XYDATA=(X++(Y..Y))
549.759 1.7845 2.157 2.047 2.287 2.917 2.617 2.347 2.537 3.027 3.567
569.049 4.267 4.317 4.777 5.377 5.597 6.067 6.627 7.017 6.457 5.837
588.339 6.107 6.117 5.437 4.807 4.327 3.907 3.147 2.727 2.877 2.637
607.628 2.187 2.067 1.977 2.077 2.287 2.527 2.337 2.447 2.667 2.157
626.918 2.067 2.367 2.717 2.687 2.447 2.537 2.427 2.037 2.367 2.527
646.208 2.277 1.997 2.017 2.437 2.777 2.697 2.287 2.337 2.727 2.877
665.498 2.807 2.467 2.507 2.807 2.917 3.297 3.267 3.397 3.757 3.667
684.787 3.587 3.637 3.897 3.937 4.007 4.317 4.427 4.217 3.857 3.837
704.077 3.687 3.597 3.457 3.157 2.897 2.607 2.247 2.267 2.787 2.817
723.367 2.897 2.907 2.867 2.727 2.547 2.497 2.487 2.687 2.817 3.077
742.657 3.487 3.807 3.767 4.037 4.507 4.597 4.687 5.077 5.787 6.337
761.947 6.467 6.237 6.007 5.957 5.557 5.187 5.227 4.817 4.677 4.397
781.236 3.927 3.807 3.687 3.537 3.447 3.537 3.647 3.787 3.947 4.007
800.526 4.207 4.677 4.717 4.517 4.517 4.517 4.277 4.577 4.887 4.827
819.816 4.807 4.857 4.967 5.097 5.217 5.437 5.857 6.257 6.647 7.147
839.106 7.587 7.547 7.607 7.597 7.427 7.027 6.587 6.317 6.017 5.417
858.395 4.917 4.657 4.007 3.767 3.437 3.017 3.077 3.057 2.907 2.767
877.685 2.817 2.737 2.477 2.337 2.407 2.657 2.807 2.507 2.167 2.277
896.975 2.247 2.127 2.067 2.207 2.307 1.977 1.9111 2.057 2.107 2.107
916.265 2.097 1.987 1.9119 2.227 2.277 2.437 2.417 2.027 2.047 2.067
935.555 1.9462 1.8831 1.7461 1.7615 1.987 2.007 2.037 1.961 1.8757 2.097
954.844 2.237 2.317 2.367 2.547 2.347 2.167 2.407 2.477 2.497 2.347
974.134 2.317 2.397 2.657 2.727 2.627 2.947 3.087 2.967 2.767 2.617
993.424 2.617 2.787 2.637 2.827 3.277 3.157 3.127 3.367 3.577 3.387
1012.714 3.727 4.317 4.637 5.267 5.897 6.417 6.807 7.187 8.117 9.027
1032.003 9.507 10.097 10.697 10.527 10.457 10.077 9.497 8.987 7.927 7.147
1051.293 6.217 5.457 5.287 4.907 4.767 5.297 5.437 4.827 4.427 4.287
1070.583 4.547 4.587 4.757 4.387 3.647 3.427 2.637 2.567 2.467 2.717
1089.873 3.277 2.847 2.587 2.797 2.887 2.787 2.647 2.547 2.407 2.467
1109.163 1.8769 1.878 2.697 2.617 2.817 3.097 3.027 2.807 2.687 2.377
1128.452 1.8039 2.417 2.907 2.697 3.027 3.067 2.507 2.407 2.567 2.927
1147.742 2.607 2.007 2.407 2.407 2.677 3.627 4.487 5.857 7.877 9.887
1167.032 11.917 13.767 14.657 15.127 15.897 15.687 15.057 13.707 11.147 8.837
1186.322 7.137 5.897 4.397 3.507 3.157 2.867 2.717 2.517 2.457 2.567
1205.611 2.507 2.457 2.587 2.837 2.937 3.027 3.157 3.317 3.437 4.247
1224.901 5.347 6.137 7.347 7.857 8.997 11.427 13.637 16.447 20.037 24.157
1244.191 28.457 31.777 34.637 36.767 37.667 37.477 35.667 32.847 28.857 24.067
1263.481 19.997 16.807 13.767 11.437 10.497 9.557 8.767 8.537 8.147 7.647
1282.771 7.507 7.857 8.187 8.327 8.547 9.147 9.837 10.257 10.647 10.927
1302.060 10.977 11.027 10.907 10.667 10.397 9.907 9.497 9.237 9.087 9.267
1321.350 9.777 10.767 12.247 14.097 16.437 19.257 22.547 26.077 29.687 33.057
1340.640 35.617 37.167 37.587 36.877 35.057 32.187 28.387 24.007 19.657 15.947
1359.930 12.827 10.247 8.527 7.337 6.357 5.567 4.997 4.617 4.477 4.217
1379.219 3.917 3.757 3.617 3.487 3.297 3.157 3.147 3.187 3.157 3.077
1398.509 3.067 3.177 3.367 3.627 3.687 3.717 3.917 3.907 3.767 3.567
1417.799 3.377 3.197 3.047 2.927 2.627 2.477 2.417 2.347 2.517 2.617
1437.089 2.797 3.107 3.387 3.647 3.707 3.717 3.797 3.857 3.967 4.197
1456.378 4.307 4.257 4.337 4.687 5.057 5.157 5.177 5.157 5.007 4.927
1475.668 4.857 4.537 4.247 4.087 3.747 3.647 3.897 4.037 4.387 4.867
1494.958 5.597 6.727 8.127 9.967 12.077 14.267 16.257 17.527 17.857 17.527
1514.248 16.767 15.457 13.587 11.127 8.257 6.437 5.087 4.007 3.667 3.467
1533.538 3.177 3.027 2.977 2.927 3.137 3.297 3.207 3.197 3.237 3.377
1552.827 3.707 4.007 4.227 4.647 5.107 5.657 6.367 7.207 8.177 9.377
1572.117 10.717 12.267 14.227 16.057 17.647 19.097 20.177 20.917 21.457 21.837
1591.407 22.007 22.007 22.077 22.297 22.627 23.337 24.017 24.407 24.587 24.337
1610.697 23.457 22.047 20.407 18.297 15.977 13.667 11.427 9.447 7.807 6.777
1629.986 6.117 5.337 4.847 4.607 4.137 3.897 3.757 3.697 3.707 3.517
1649.276 3.457 3.647 3.637 3.427 3.407 3.427 3.537 3.727 3.907 4.097
1668.566 4.327 4.627 4.887 5.047 5.337 5.667 5.817 5.967 6.397 6.787
1687.856 7.187 7.937 8.827 9.897 11.297 13.127 15.387 18.287 21.407 25.427
1707.146 30.097 34.787 38.977 41.707 41.977 41.237 41.227 41.927 40.997 37.077
1726.435 31.377 25.657 20.807 17.207 14.027 11.387 9.567 8.047 6.997 6.197
1745.725 5.667 5.357 5.147 4.967 4.907 4.877 4.667 4.507 4.307 3.917
1765.015 3.567 3.237 2.827 2.707 2.607 2.277 2.077 1.8356 1.6143 1.5261
1784.305 1.3092 1.2488 1.3113 1.3069 1.3079 1.2934 1.1842 1.1079 1.0831 1.0931
1803.594 1.1556 1.1255 1.1768 1.1874 1.1522 1.18 1.1572 1.1102 1.0685 1.085
1822.884 1.1592 1.2744 1.2241 1.0782 1.1602 1.172 1.1138 1.05572 1.00541 1.01584
1842.174 1.06562 1.03601 0.965 0.95931 0.98073 1.02572 1.02453 1.0966 1.1184 1.05825
1861.464 1.0632 1.05959 0.99252 1.00523 1.1665 1.2096 1.0709 1.03994 1.073 1.0676
1880.754 1.06486 1.0893 1.1861 1.1539 1.1636 1.2468 1.1929 1.1067 1.1566 1.1803
1900.043 1.158 1.1973 1.1708 1.2127 1.1168 1.05196 1.0872 1.0979 1.1151 1.0933
1919.333 1.1008 1.01587 1.05487 1.1766 1.2107 1.1741 1.03674 0.974569 1.0773 1.1545
1938.623 1.2233 1.2458 1.1681 1.1661 1.1762 1.2523 1.1702 0.98011 1.01856 1.01955
1957.913 0.98349 0.99054 1.02366 1.01394 1.1016 1.1188 0.9347 1.00005 1.03733 1.02516
1977.202 1.1052 1.1153 1.00778 0.95835 1.0714 1.0882 1.05286 1.01039 1.05868 1.0474
1996.492 0.98318 1.04988 0.98987 0.9438 1.03031 1.01384 1.03348 1.0225 1.0453 0.9478
2015.782 0.9511 1.1695 1.1698 1.02263 0.99226 1.1008 1.0722 1.098 1.1205 1.00704
2035.072 1.04128 1.0785 1.0965 1.2793 1.2919 1.2218 1.2408 1.3015 1.3693 1.394
2054.362 1.3145 1.3206 1.3939 1.4281 1.4567 1.3974 1.4207 1.3497 1.3259 1.4226
2073.651 1.3574 1.2771 1.2213 1.1718 1.241 1.1784 1.00054 0.9326 0.9378 0.9495
2092.941 0.9424 1.02278 1.1222 1.05012 0.818 0.813 0.828 0.836 0.9317 0.838
2112.231 0.719 0.694 0.766 0.867 0.9384 0.9211 0.9304 0.872 0.788 0.839
2131.521 0.843 0.85 0.9547 0.8938 0.865 0.886 0.693 0.792 0.9549 0.8707
2150.810 0.822 0.845 0.8721 0.751 0.718 0.795 0.799 0.9322 0.9424 0.835
2170.100 0.855 0.8974 0.817 0.711 0.753 0.9075 1.0717 1.01189 0.9002 0.9356
2189.390 0.969344 0.9894 0.766 0.637 0.853 0.968486 1.02071 0.99987 0.9246 1.04976
2208.680 1.05455 0.792 0.785 1.01641 1.03831 0.8923 0.8878 1.01613 0.9305 0.793
2227.970 0.85 0.975476 0.854 0.738 0.834 0.807 0.794 0.8874 0.9457 0.8802
2247.259 0.8965 0.772 0.726 0.9392 0.969294 0.9024 0.98491 1.068 1.035 1.0922
2266.549 1.0574 0.97885 0.976922 1.0699 1.1091 1.0898 1.02136 0.96564 1.1153 1.2221
2285.839 1.1291 0.973527 0.9434 0.839 0.777 0.782 0.815 0.866 0.84 0.835
2305.129 0.835 0.801 0.839 0.8953 0.858 0.9496 0.9129 0.765 0.64 0.566
2324.418 0.658 0.697 0.698 0.648 0.719 0.789 0.715 0.728 0.759 0.701
2343.708 0.613 0.708 0.775 0.763 0.578 0.549 0.725 0.789 0.8904 0.98534
2362.998 1.0684 1.00388 0.844 0.8744 1.04304 0.971131 0.8881 0.971265 0.828 0.796
2382.288 0.97711 0.9082 0.8842 0.9548 0.824 0.771 0.615 0.532 0.704 0.801
2401.578 0.9462 0.9488 0.9479 1.0673 1.1369 1.1528 1.0897 1.0686 1.06041 1.0824
2420.867 1.1651 1.1004 1.0391 1.1253 1.02138 0.9457 0.8762 0.863 0.9496 0.9339
2440.157 0.9109 0.765 0.614 0.606 0.723 0.783 0.832 0.798 0.718 0.775
2459.447 0.857 0.976079 1.01867 0.9446 0.9143 0.902 0.86 0.9486 0.9402 0.794
2478.737 0.816 0.805 0.756 0.726 0.96145 1.04728 0.8918 0.775 0.767 0.9189
2498.026 0.967965 1.0966 1.02732 0.795 0.817 0.8677 0.98602 1.1763 1.0685 0.95899
2517.316 0.9336 0.746 0.9162 1.1188 1.0826 0.976697 0.931 1.02512 0.98397 0.796
2536.606 0.739 0.9562 1.01534 0.841 0.9249 1.2142 1.2883 1.3126 1.2584 1.103
2555.896 1.0901 1.02263 0.9383 0.96503 1.0888 1.1201 1.0354 1.1639 1.1345 1.0839
2575.186 1.1585 1.0832 1.06497 1.0205 0.98796 1.0476 1.01206 0.951 1.03602 1.02773
2594.475 0.869 0.916 0.95735 0.97896 1.01024 1.00973 1.03333 0.9443 0.789 0.8747
2613.765 0.804 0.83 0.8828 0.78 0.9089 1.00645 1.0574 0.99879 0.967027 0.9541
2633.055 1.05918 1.1493 1.06039 1.04539 1.03883 0.852 0.666 0.663 0.676 0.678
2652.345 0.77 0.682 0.644 0.808 0.8717 0.8954 0.799 0.857 1.0334 0.829
2671.634 0.683 0.806 0.864 0.98085 0.863 0.625 0.834 0.966953 1.01691 1.06626
2690.924 0.95832 0.855 0.834 0.8785 0.755 0.666 0.687 0.793 0.9017 0.9371
2710.214 0.935 0.9204 1.01888 0.99216 0.848 0.75 0.795 0.8743 1.04062 1.1144
2729.504 0.9227 0.848 0.9231 1.06537 0.9364 0.854 0.967389 0.98063 1.01583 0.9485
2748.794 0.8681 0.8678 0.821 0.831 0.834 0.743 0.707 0.81 1.00326 0.9193
2768.083 0.816 0.96216 1.1173 1.04403 0.816 0.9634 1.1595 1.1469 1.1073 0.97805
2787.373 0.9144 0.8788 0.99568 1.0687 0.99275 1.185 1.316 1.1453 1.1425 1.1067
2806.663 0.9327 1.03168 1.2034 1.1864 1.1005 1.02629 1.1217 1.4273 1.5353 1.7578
2825.953 1.8743 1.6152 1.6111 1.8478 2.177 2.277 2.407 2.797 3.117 3.577
2845.242 3.677 3.517 3.447 3.557 3.657 3.077 2.567 2.387 2.067 1.8391
2864.532 1.7897 1.6406 1.3246 1.3437 1.5322 1.7098 1.5338 1.4959 1.7472 1.4378
2883.822 1.2922 1.5515 1.6923 1.547 1.4803 1.6014 1.7953 2.007 2.117 2.187
2903.112 2.087 2.057 2.427 2.757 2.787 2.687 2.597 2.547 2.577 2.657
2922.401 2.857 2.617 2.227 2.157 2.207 2.237 2.447 2.797 2.907 3.227
2941.691 3.737 4.117 4.377 4.647 4.647 4.577 4.807 4.777 4.617 4.667
2960.981 4.437 4.087 4.107 3.917 3.517 3.397 3.537 3.557 3.217 3.027
2980.271 2.777 2.567 2.737 2.697 2.527 2.497 2.477 2.497 2.477 2.587
2999.561 2.837 3.207 3.517 3.807 4.087 4.437 4.477 4.307 4.497 4.337
3018.850 3.777 3.337 3.047 2.717 2.477 2.407 2.407 2.477 2.467 2.447
3038.140 2.387 2.477 2.727 2.627 2.507 2.497 2.407 2.217 1.987 2.037
3057.430 2.127 1.9104 1.6074 1.5709 1.7221 1.7048 1.6992 1.7584 1.9602 2.167
3076.720 2.297 2.087 1.8497 1.8866 1.899 2.057 1.8522 1.6365 1.5846 1.5194
3096.009 1.7211 1.7099 1.544 1.5918 1.6354 1.541 1.4802 1.4192 1.3056 1.1863
3115.299 1.3682 1.3896 1.1686 1.2557 1.1888 1.4596 1.4187 0.99175 1.1516 1.1043
3134.589 0.9261 0.8828 0.9258 1.1593 1.2516 1.2485 1.0712 0.826 0.846 0.8902
3153.879 0.9155 1.00952 1.1426 1.1154 0.8899 0.8934 0.808 0.828 1.0928 1.01458
3173.169 1.05178 1.02569 0.788 0.8682 0.782 0.8834 0.9117 0.689 0.78 0.841
3192.458 0.855 0.667 0.566 0.892 0.9175 0.666 0.33 0.405 0.9321 1.02222
3211.748 0.813 0.707 0.68 0.635 0.716 0.571 0.539 0.608 0.593 0.589
3231.038 0.638 0.811 0.753 0.491 0.678 0.9249 1.04825 0.97914 0.65 0.604
3250.328 0.754 0.642 0.633 0.702 0.379 0.456 0.567 0.499 0.561 0.531
3269.617 0.628 0.631 0.714 0.866 0.612 0.558 0.655 0.603 0.831 0.98449
3288.907 1.2101 1.2015 0.664 0.518 0.88 1.0313 0.71 0.634 0.9226 1.1332
3308.197 0.9427 0.703 0.9268 1.2718 0.99336 0.8786 0.821 0.55 0.398 0.221
3327.487 0.498 0.601 0.583 0.879 1.00462 0.724 0.654 0.613 0.636 0.763
3346.777 0.769 0.819 0.668 0.709 0.692 0.544 0.458 0.56 0.735 0.832
3366.066 0.842 0.729 0.809 0.9013 0.9811 0.9203 0.8855 0.755 0.8678 1.2387
3385.356 1.3801 1.4084 1.1402 0.9145 1.2318 1.3089 1.2545 1.4963 1.5246 1.5777
3404.646 1.7192 1.8326 2.167 2.217 2.247 2.767 3.197 3.347 3.477 3.727
3423.936 3.687 3.977 4.487 4.577 4.507 4.537 4.507 4.247 4.217 3.847
3443.225 3.157 2.727 2.277 2.107 1.8936 1.5963 1.767 1.5088 1.1595 1.1531
3462.515 1.3024 1.4309 1.294 1.153 0.775 0.627 0.833 0.758 0.57 1.00779
3481.805 1.2399 0.825 0.756 1.03316 0.973419 0.853 0.779 0.758 0.9159 1.2282
3501.095 1.3637 1.226 1.2899 1.4407 1.4356 1.1527 1.3652 1.5244 1.4511 1.5527
3520.385 1.6155 1.6234 1.4146 1.7682 2.157 2.117 2.027 2.177 2.487 2.887
3539.674 3.367 3.607 3.757 3.857 3.867 3.757 3.667 3.807 3.687 3.217
3558.964 2.997 2.777 2.257 1.8928 1.962 1.6207 0.9551 0.854 0.9363 1.0774
3578.254 1.00075 0.79 0.747 0.9056 0.9374 0.798 0.79 0.897 1.1236 0.973527
3597.544 0.621 0.63 0.722 0.614 0.731 0.975324 0.504 0.224 0.805 1.0777
3616.833 1.00413 1.02344 1.0824 1.02174 0.863 0.723 0.972117 0.8916 0.574 0.668
3636.123 0.825 0.623 0.498 0.651 0.725 0.681 0.793 0.9056 0.8778 0.656
3655.413 0.493 0.708 0.321 0 0.288 0.817 0.493 0.329 0.783 0.507
3674.703 0.589 0.628 0.674 0.9101 0.788 0.8786 1.0502 0.97861 1.03266 0.83
3693.993 0.571 0.9066 1.06052 0.8707 0.9436 0.856 0.831 0.748 0.734 0.844
3713.282 0.759 0.825 0.8796 0.739 0.458 0.262 0.421 0.613 0.677 0.612
3732.572 0.761 1.05583 0.95907 0.9081 0.612 0.518 0.614 0.9273 0.98268 0.725
3751.862 0.81 0.559 0.154 0.088 0.518 0.9358 0.845 0.704 0.696 0.749
3771.152 0.596 0.593 0.732 0.535 0.637 0.98684 0.9332 1.02361 0.9374 0.847
3790.441 0.9551 0.82 0.728 0.9079 0.737 0.667 1.1983 0.98269 0.741 0.703
3809.731 0.371 0.459 0.77 0.719 0.67 0.781 0.671 0.559 0.769 0.869
3829.021 0.824 1.04255 1.2443 0.895 0.74 0.8977 0.828 0.822 0.779 0.4
3848.311 0.302 0.63 0.9153 0.938 0.726 0.773 0.9883 0.764 0.533 0.471
3867.601 0.544 0.835 0.636 0.725 1.1805 1.1635 1.03924 0.8944 0.57 0.357
3886.890 0.575 1.02552 1.098 0.8675 1.0693 1.1718 1.0676 0.743 0.795 0.825
3906.180 0.537 0.518 0.562 0.614 0.584 0.7 0.8966 0.775 0.786 0.968624
3925.470 0.718 0.566 0.537 0.568 0.67 0.583 0.385 0.318 0.389 0.444
3944.760 0.585 1.04912 0.72 0.327 0.619 0.784 0.9181 0.8 0.721 0.527
3964.049 0.362 0.375 0.436 0.752 1.04848 0.811 0.47 0.593 0.341 0.316
3983.339 0.577 0.63 0.725 0.568 0.501 0.396 0.377 0.304 0.387 0.31
##END=
