##TITLE=1-Chloropyrene
##JCAMP-DX=4.24
##DATA TYPE=INFRARED SPECTRUM
##ORIGIN=NIST Mass Spectrometry Data Center
##OWNER=NIST Standard Reference Data Program
Collection (C) 2018 copyright by the U.S. Secretary of Commerce
on behalf of the United States of America. All rights reserved.
##CAS REGISTRY NO=34244-14-9
##MOLFORM=C 16 H 9 Cl
##$NIST SOURCE=MSDC-IR
##SPECTROMETER/DATA SYSTEM=HP-GC/MS/IRD
##STATE=gas
##XUNITS=1/CM
##YUNITS=ABSORBANCE
##XFACTOR=1.0
##YFACTOR=0.000002300
##DELTAX=4.0
##FIRSTX=550.0
##LASTX=3846.0
##FIRSTY=0.000152
##MAXX=3846
##MINX=550
##MAXY=0.023
##MINY=0
##NPOINTS=825
##XYDATA=(X++(Y..Y))
550.0 66 63 13 32 59 77 154 303 399 398
590.0 337 209 105 55 32 20 25 34 28 61
630.0 161 324 458 447 277 120 93 92 104 170
670.0 266 373 358 268 221 222 438 946 1673 2607
710.0 2550 1686 985 422 192 124 166 325 620 1064
750.0 1551 1534 1014 574 305 188 171 173 182 191
790.0 186 163 170 228 346 617 1181 1801 2434 3378
830.0 5121 7522 10000 9851 6679 3711 1682 653 336 209
870.0 149 117 95 81 84 71 58 32 8 3
910.0 1 13 17 21 13 20 32 42 62 82
950.0 89 124 258 473 614 548 312 114 63 53
990.0 36 52 72 97 111 155 348 778 1491 1983
1030.0 1855 1158 464 226 186 177 159 164 264 429
1070.0 599 799 1119 1455 1512 1153 639 349 250 209
1110.0 194 202 247 358 497 561 543 680 1205 1643
1150.0 1690 1285 846 703 627 697 975 1189 1145 924
1190.0 725 744 790 689 520 438 455 451 371 303
1230.0 299 335 406 449 408 317 232 204 202 208
1270.0 216 217 226 258 312 362 391 389 374 412
1310.0 484 514 452 311 202 155 132 125 142 164
1350.0 188 206 210 180 147 142 152 173 188 184
1390.0 187 215 280 362 427 463 481 557 787 1160
1430.0 1404 1303 937 647 693 941 1099 1004 725 526
1470.0 553 800 1215 1585 1722 1568 1247 930 672 445
1510.0 270 179 133 114 112 129 166 216 235 217
1550.0 176 138 128 167 231 306 414 593 851 1113
1590.0 1261 1223 1039 781 547 390 302 280 294 286
1630.0 247 207 200 228 262 276 275 279 268 233
1670.0 193 166 168 155 118 86 73 70 86 132
1710.0 177 187 174 148 135 152 184 221 253 250
1750.0 203 142 112 127 170 236 311 363 388 414
1790.0 447 408 310 209 131 85 61 44 41 49
1830.0 56 67 75 94 139 194 248 291 325 367
1870.0 387 365 286 182 131 130 138 155 184 235
1910.0 314 393 443 450 413 324 228 145 81 48
1950.0 35 29 23 24 25 18 15 17 12 9
1990.0 16 23 22 21 20 23 18 11 15 14
2030.0 10 12 15 15 16 22 20 13 16 18
2070.0 25 22 8 9 12 11 18 25 23 25
2110.0 27 12 12 21 18 16 15 24 21 17
2150.0 11 9 21 16 11 22 25 15 10 12
2190.0 18 20 17 21 23 27 28 25 20 25
2230.0 34 27 25 24 18 13 10 6 10 18
2270.0 22 30 35 32 31 32 30 24 29 35
2310.0 36 41 35 28 29 29 29 38 39 35
2350.0 32 32 33 33 30 34 36 40 42 35
2390.0 26 17 13 13 20 25 21 22 23 26
2430.0 25 23 29 33 35 34 28 22 25 28
2470.0 26 27 25 16 17 22 20 24 25 23
2510.0 32 35 35 40 34 23 18 15 26 34
2550.0 31 36 18 2 22 32 23 21 22 16
2590.0 24 37 38 33 30 31 23 16 24 22
2630.0 20 28 24 15 23 28 26 6 3 6
2670.0 5 16 21 27 21 13 17 8 13 17
2710.0 11 13 17 16 14 12 11 7 5 13
2750.0 18 13 4 3 1 7 7 6 10 3
2790.0 2 6 3 5 2 3 0 3 15 18
2830.0 11 10 17 21 29 32 17 13 24 34
2870.0 33 33 43 43 29 26 30 40 43 32
2910.0 24 29 30 30 38 60 85 84 78 80
2950.0 87 103 109 109 127 149 157 160 158 154
2990.0 155 163 180 215 247 274 327 414 530 699
3030.0 972 1433 2180 3221 4245 4861 4851 4160 3144 2247
3070.0 1657 1359 1216 1101 975 853 736 637 554 459
3110.0 356 274 220 192 185 177 167 144 124 109
3150.0 82 66 62 55 51 53 40 39 41 41
3190.0 45 35 40 38 38 46 36 30 31 41
3230.0 38 34 29 24 35 31 13 13 20 31
3270.0 36 21 13 24 23 18 10 7 14 14
3310.0 9 1 22 24 12 16 33 42 45 43
3350.0 27 31 32 33 23 25 33 23 25 39
3390.0 38 24 22 17 11 33 55 48 34 26
3430.0 37 52 53 42 39 41 44 55 56 47
3470.0 45 44 55 63 65 60 32 36 44 46
3510.0 61 71 69 65 61 49 53 65 73 48
3550.0 35 49 52 60 60 53 54 61 74 74
3590.0 58 48 55 68 76 70 76 84 66 52
3630.0 68 69 44 38 48 60 66 68 71 71
3670.0 73 85 74 71 78 82 91 74 58 56
3710.0 49 52 51 60 59 45 48 58 74 79
3750.0 85 78 76 94 103 92 94 103 85 69
3790.0 78 95 99 93 88 94 102 93 70 68
3830.0 88 84 84 82 76
##END=
