##TITLE=2-(4-Biphenylyl)-2-propanol
##JCAMP-DX=4.24
##DATA TYPE=INFRARED SPECTRUM
##ORIGIN=EPA-IR VAPOR PHASE LIBRARY
##OWNER=SRD/NIST
Collection (C) 2018 copyright by the U.S. Secretary of Commerce
on behalf of the United States of America. All rights reserved.
##CAS REGISTRY NO=34352-74-4
##MOLFORM=C 15 H 16 O
##$NIST SOURCE=MSDC-IR
##STATE=gas
##XUNITS=1/CM
##YUNITS=ABSORBANCE
##XFACTOR=1.
##YFACTOR=0.001
##DELTAX=1.929
##FIRSTX=549.8
##LASTX=4000.8
##FIRSTY=3.876
##MAXX=4000.75
##MINX=549.766
##MAXY=0.066706
##MINY=0
##NPOINTS=1790
##XYDATA=(X++(Y..Y))
549.766 3.876 4.076 4.176 4.206 4.566 5.206 6.166 7.436 8.536 9.796
569.056 11.106 12.216 13.136 13.616 13.686 13.386 12.696 11.536 10.376 9.306
588.346 8.136 7.016 5.976 5.216 4.616 4.056 3.706 3.496 3.376 3.326
607.636 3.226 3.146 2.916 2.736 2.756 2.716 2.626 2.436 2.396 2.436
626.926 2.246 2.156 2.236 2.326 2.256 2.066 2.086 2.056 2.086 2.216
646.216 2.386 2.656 2.846 3.036 3.086 3.326 3.796 4.196 4.926 6.486
665.506 8.376 9.796 10.886 11.836 12.556 12.646 12.226 12.066 12.706 14.076
684.796 15.966 18.256 20.736 23.186 25.636 27.656 28.666 28.576 27.556 25.826
704.086 23.726 21.506 19.146 17.086 15.366 13.846 12.816 12.196 11.886 11.966
723.376 12.366 12.996 13.986 15.146 16.336 17.546 18.386 18.356 17.696 17.066
742.666 16.416 15.766 15.416 15.386 15.956 17.186 18.866 20.696 22.536 24.166
761.956 25.236 25.376 24.146 22.086 19.816 17.386 14.986 12.616 10.556 8.796
781.246 7.356 6.276 5.386 4.666 4.166 3.886 3.626 3.456 3.376 3.426
800.536 3.626 3.826 4.126 4.436 4.736 5.106 5.386 5.786 6.556 7.446
819.826 8.396 9.656 11.346 13.296 15.476 17.696 19.686 21.606 23.206 24.136
839.116 24.416 24.006 22.846 21.306 19.756 18.216 16.926 15.976 15.316 14.906
858.406 14.496 13.936 13.206 12.306 11.186 9.896 8.706 7.666 6.836 6.146
877.696 5.606 5.166 4.686 4.336 4.156 4.016 3.946 3.886 3.916 3.976
896.986 3.966 3.966 3.986 4.066 4.146 4.226 4.336 4.466 4.506 4.586
916.276 4.786 5.016 5.336 5.746 6.216 6.726 7.346 8.076 8.936 9.896
935.566 11.046 12.326 13.696 15.086 16.286 17.296 17.986 18.276 18.146 17.506
954.856 16.426 15.136 13.636 12.106 10.656 9.416 8.296 7.246 6.426 5.816
974.146 5.316 4.916 4.626 4.356 4.136 4.086 4.246 4.536 4.966 5.606
993.436 6.166 6.626 7.406 8.816 11.356 15.206 18.436 19.226 18.776 17.456
1012.726 13.696 9.026 6.126 5.036 4.776 4.786 4.906 5.056 5.106 5.226
1032.016 5.666 6.216 6.766 7.126 7.106 6.866 6.376 5.646 5.026 4.686
1051.306 4.586 4.736 4.956 5.326 5.826 6.266 6.816 7.426 8.026 8.636
1070.596 9.306 10.036 10.776 11.586 12.606 13.716 14.886 16.146 17.356 18.586
1089.886 19.876 21.266 22.786 24.406 25.966 27.286 28.246 28.776 28.716 28.036
1109.176 27.016 25.646 24.106 22.506 20.886 19.466 18.166 16.946 15.886 14.986
1128.467 14.246 13.786 13.506 13.336 13.306 13.416 13.676 14.086 14.726 15.506
1147.757 16.446 17.516 18.656 19.966 21.486 23.136 24.736 26.146 27.356 28.146
1167.047 28.366 28.116 27.266 25.946 24.426 22.606 20.596 18.516 16.506 14.866
1186.337 13.326 11.986 11.026 10.226 9.626 9.266 8.876 8.466 8.066 7.896
1205.627 7.786 7.656 7.816 8.086 8.306 8.506 8.846 9.366 9.856 10.376
1224.917 10.956 11.486 12.036 12.616 13.056 13.546 14.086 14.626 15.326 16.036
1244.207 16.876 17.756 18.606 19.496 20.266 20.776 21.026 20.946 20.566 19.966
1263.497 19.226 18.486 17.766 17.076 16.426 15.886 15.406 15.006 14.746 14.616
1282.787 14.546 14.526 14.656 14.826 15.066 15.346 15.626 16.066 16.506 16.866
1302.077 17.436 18.086 18.686 19.336 20.026 20.676 21.216 21.526 21.536 21.306
1321.367 20.816 20.086 19.196 18.246 17.226 16.186 15.266 14.436 13.796 13.256
1340.657 12.646 12.186 11.916 11.696 11.646 11.806 12.076 12.556 13.226 13.986
1359.947 14.926 15.876 16.626 17.236 17.586 17.546 17.336 17.126 16.966 17.096
1379.237 17.516 18.036 18.346 18.466 18.416 17.856 16.966 16.236 15.676 15.046
1398.527 14.366 13.546 12.626 11.706 10.766 9.816 8.946 8.166 7.516 7.026
1417.817 6.666 6.266 5.936 5.826 5.746 5.746 5.846 5.976 6.126 6.416
1437.107 6.656 6.676 6.836 7.116 7.346 7.616 7.896 8.106 8.306 8.596
1456.397 9.006 9.056 8.956 9.046 9.186 9.316 9.536 10.026 11.026 12.696
1475.687 15.316 19.396 25.016 31.736 37.656 40.606 40.016 36.706 30.736 23.376
1494.977 17.316 13.656 11.826 10.746 9.836 9.026 8.256 7.276 6.296 5.596
1514.267 5.176 5.036 5.016 5.276 5.496 5.526 5.616 5.506 5.246 4.866
1533.557 4.356 3.816 3.466 3.236 2.996 2.816 2.666 2.476 2.546 2.616
1552.847 2.596 2.696 2.736 2.866 2.876 2.796 2.816 2.846 2.906 2.936
1572.137 2.946 2.956 3.016 3.086 3.256 3.456 3.746 4.256 4.866 5.676
1591.427 6.716 7.936 9.296 10.516 11.226 11.286 10.806 9.706 8.196 6.636
1610.717 5.196 4.066 3.276 2.686 2.226 1.976 1.846 1.756 1.746 1.746
1630.007 1.726 1.696 1.716 1.756 1.676 1.666 1.726 1.786 1.936 1.996
1649.297 2.016 2.196 2.416 2.396 2.376 2.456 2.526 2.576 2.616 2.666
1668.587 2.686 2.696 2.636 2.556 2.366 2.166 2.006 1.866 1.696 1.426
1687.877 1.276 1.226 1.1509 1.1125 1.1589 1.1222 1.1577 1.1283 1.0019 1.0041
1707.167 0.9954 1.0275 1.0736 1.1377 1.226 1.286 1.236 1.1648 1.1756 1.2137
1726.457 1.226 1.286 1.366 1.516 1.636 1.546 1.576 1.656 1.716 1.736
1745.747 1.716 1.686 1.686 1.626 1.436 1.386 1.426 1.426 1.406 1.386
1765.037 1.506 1.756 1.906 2.026 2.186 2.266 2.366 2.526 2.696 2.836
1784.327 3.096 3.356 3.616 3.896 4.056 4.056 3.896 3.616 3.306 2.916
1803.617 2.406 2.036 1.866 1.776 1.726 1.656 1.586 1.566 1.456 1.286
1822.907 1.207 1.1355 0.9364 0.8203 0.8174 0.7935 0.7584 0.7303 0.7091 0.7134
1842.197 0.797 0.863 0.8486 0.8709 0.8876 0.9056 0.9845 1.0614 1.1448 1.216
1861.487 1.326 1.436 1.516 1.676 1.826 1.876 1.956 2.056 2.176 2.336
1880.777 2.476 2.626 2.796 2.846 2.766 2.626 2.426 2.296 2.156 2.066
1900.067 2.126 2.176 2.176 2.196 2.236 2.206 2.096 2.046 2.016 1.976
1919.357 1.906 1.866 1.846 1.836 1.876 1.906 1.916 1.976 2.046 2.116
1938.647 2.166 2.186 2.176 2.166 2.186 2.246 2.256 2.296 2.326 2.166
1957.937 1.946 1.696 1.356 1.0226 0.7802 0.6324 0.5449 0.4694 0.4222 0.4014
1977.227 0.3787 0.3385 0.327 0.3596 0.3392 0.31111 0.3188 0.3169 0.3363 0.27694
1996.517 0.222371 0.21196 0.220342 0.26941 0.30473 0.29086 0.27549 0.26027 0.23665 0.24727
2015.807 0.26802 0.26324 0.23306 0.26645 0.30712 0.29454 0.29026 0.27051 0.224904 0.21042
2035.097 0.22769 0.2545 0.26945 0.2424 0.23565 0.23369 0.224276 0.23692 0.221538 0.175
2054.387 0.1594 0.1557 0.1507 0.1333 0.1323 0.16 0.111 0.075 0.091 0.085
2073.677 0.093 0.1258 0.13 0.1167 0.1213 0.11 0.069 0.059 0.097 0.113
2092.967 0.09 0.103 0.14 0.1648 0.1668 0.1283 0.1231 0.1595 0.18 0.1612
2112.257 0.1613 0.189 0.1935 0.197 0.2103 0.1935 0.1733 0.1527 0.1269 0.1527
2131.547 0.1802 0.1539 0.1637 0.20939 0.1982 0.1397 0.1234 0.1217 0.111 0.1323
2150.837 0.1218 0.081 0.03 0.013 0.073 0.107 0.1374 0.1707 0.132 0.115
2170.127 0.111 0.1325 0.1773 0.1517 0.08 0.096 0.122 0.1 0.1429 0.1765
2189.417 0.146 0.101 0.086 0.089 0.1301 0.185 0.145 0.1394 0.1331 0.112
2208.707 0.1663 0.1773 0.1318 0.1268 0.1716 0.20819 0.221518 0.21137 0.219589 0.223907
2227.997 0.23752 0.25389 0.23202 0.20906 0.1952 0.21117 0.2017 0.1869 0.219108 0.23025
2247.287 0.23624 0.26803 0.25908 0.24676 0.24012 0.23162 0.25008 0.218201 0.1932 0.1963
2266.577 0.218817 0.21323 0.2069 0.21228 0.2016 0.18 0.2007 0.24458 0.23768 0.29223
2285.868 0.3454 0.3294 0.30529 0.30413 0.3503 0.3791 0.3654 0.3777 0.4034 0.3758
2305.158 0.4168 0.5359 0.5932 0.6203 0.6416 0.6287 0.6164 0.5732 0.5033 0.4911
2324.448 0.4646 0.4078 0.393 0.3852 0.3768 0.3846 0.3549 0.3161 0.3482 0.3561
2343.738 0.3169 0.29515 0.29484 0.28598 0.26896 0.25721 0.196 0.1885 0.2726 0.28021
2363.028 0.23236 0.23238 0.24253 0.24537 0.24839 0.221211 0.1758 0.21228 0.24111 0.21289
2382.318 0.1877 0.1755 0.19 0.21037 0.25709 0.24804 0.1883 0.1878 0.222142 0.22953
2401.608 0.221794 0.222814 0.2009 0.1742 0.1707 0.1751 0.1647 0.1862 0.22703 0.23559
2420.898 0.25379 0.216921 0.23011 0.23281 0.2045 0.220813 0.184 0.1783 0.1403 0.075
2440.188 0.047 0.076 0.048 0 0.024 0.022 0.058 0.082 0.088 0.096
2459.478 0.101 0.11 0.09 0.1311 0.1903 0.15 0.093 0.1251 0.1856 0.1787
2478.768 0.1256 0.113 0.154 0.1478 0.1342 0.131 0.097 0.099 0.115 0.111
2498.058 0.07 0.11 0.1836 0.1586 0.11 0.08 0.114 0.1626 0.1364 0.093
2517.348 0.061 0.1173 0.1665 0.116 0.048 0.086 0.1715 0.1366 0.1161 0.1624
2536.638 0.1503 0.1666 0.1841 0.1353 0.1807 0.25696 0.23519 0.1567 0.1343 0.1479
2555.928 0.1492 0.1612 0.1554 0.1724 0.2299 0.28128 0.24905 0.1534 0.1242 0.142
2575.218 0.1648 0.2031 0.26768 0.28429 0.25902 0.216828 0.219468 0.28056 0.3232 0.3446
2594.508 0.3381 0.3007 0.25846 0.31101 0.3723 0.4289 0.4621 0.4407 0.4565 0.4213
2613.798 0.4058 0.4164 0.4549 0.4976 0.433 0.4041 0.3846 0.3782 0.3449 0.26388
2633.088 0.3453 0.3834 0.29677 0.221438 0.1481 0.1354 0.1631 0.1891 0.1169 0.097
2652.378 0.1644 0.1235 0.05 0.053 0.106 0.105 0.1366 0.1489 0.104 0.096
2671.668 0.094 0.1193 0.20949 0.20859 0.086 0.034 0.079 0.074 0.083 0.1417
2690.958 0.1641 0.1871 0.1858 0.25235 0.27158 0.1941 0.23823 0.29664 0.26866 0.25039
2710.248 0.3236 0.3365 0.2868 0.26781 0.31063 0.3763 0.3541 0.3565 0.3531 0.345
2729.538 0.31094 0.29204 0.30234 0.30711 0.30773 0.3419 0.3668 0.30596 0.25951 0.29026
2748.828 0.31418 0.3185 0.3291 0.25147 0.20788 0.27666 0.3441 0.3732 0.416 0.4456
2768.118 0.3886 0.372 0.4299 0.4056 0.3824 0.3755 0.3799 0.3821 0.29141 0.31412
2787.408 0.4433 0.385 0.3713 0.3929 0.3854 0.4988 0.5699 0.6174 0.728 0.8036
2806.698 0.7877 0.8193 0.8544 0.8014 0.8001 0.8669 0.8993 0.9567 1.0393 0.9878
2825.988 1.0169 1.1594 1.1985 1.276 1.406 1.496 1.566 1.636 1.746 1.916
2845.278 2.076 2.196 2.416 2.646 2.826 3.086 3.416 3.796 4.216 4.706
2864.568 5.176 5.666 6.196 6.776 7.316 7.716 8.046 8.156 8.166 8.216
2883.858 8.196 8.226 8.156 8.056 8.086 8.166 8.186 8.316 8.546 8.736
2903.148 9.056 9.456 9.816 10.076 10.326 10.636 11.016 11.386 11.836 12.476
2922.438 13.236 14.096 15.036 16.086 17.036 17.956 18.796 19.376 19.706 19.666
2941.728 19.226 18.386 17.286 16.146 15.126 14.356 13.846 13.836 14.346 15.366
2961.018 17.066 19.506 22.626 26.596 31.536 37.336 43.906 51.026 57.886 63.516
2980.308 66.706 66.606 63.216 56.956 49.056 40.946 33.606 27.506 22.846 19.416
2999.598 16.586 14.336 12.776 11.566 10.706 10.206 9.906 9.846 10.146 10.836
3018.888 11.906 13.336 15.256 17.876 21.126 24.736 28.406 31.456 33.026 32.876
3038.178 31.076 27.976 24.346 20.966 18.526 17.226 16.936 17.246 17.896 19.016
3057.468 20.606 22.656 25.506 28.976 32.426 35.006 35.906 35.276 33.296 30.386
3076.758 27.346 24.926 23.466 22.646 21.956 21.246 20.266 19.166 18.046 16.676
3096.048 15.246 13.846 12.486 11.206 9.956 8.866 7.936 7.016 6.266 5.656
3115.338 5.136 4.716 4.316 4.006 3.676 3.326 3.066 2.796 2.596 2.506
3134.628 2.396 2.176 1.956 1.876 1.776 1.646 1.526 1.386 1.306 1.276
3153.918 1.226 1.1852 1.0626 0.954 0.9439 0.8751 0.8812 0.9267 0.849 0.7777
3173.208 0.7649 0.7019 0.7089 0.7656 0.6732 0.5937 0.5536 0.5707 0.7159 0.8394
3192.498 0.711 0.626 0.6761 0.6556 0.6998 0.6595 0.5731 0.5735 0.6317 0.7454
3211.788 0.7295 0.6768 0.7428 0.6237 0.5679 0.5876 0.5405 0.6372 0.6673 0.5739
3231.078 0.5679 0.5585 0.5436 0.6545 0.6942 0.6562 0.5637 0.4331 0.4395 0.4719
3250.368 0.5562 0.5268 0.3487 0.3417 0.31132 0.28275 0.3185 0.3511 0.3912 0.3391
3269.658 0.3332 0.3675 0.36 0.28461 0.27642 0.25515 0.1943 0.222385 0.25487 0.28042
3288.948 0.215836 0.195 0.217454 0.1506 0.1811 0.20804 0.132 0.13 0.1277 0.1396
3308.238 0.2921 0.3806 0.3517 0.2689 0.215944 0.25633 0.28636 0.30356 0.27243 0.30088
3327.528 0.3291 0.327 0.3587 0.4048 0.4802 0.4664 0.409 0.3861 0.31228 0.25679
3346.818 0.24144 0.1882 0.1377 0.1975 0.29831 0.4175 0.4764 0.3583 0.29569 0.29335
3366.108 0.3178 0.348 0.3511 0.3728 0.3767 0.4689 0.5135 0.4369 0.4626 0.4629
3385.398 0.4059 0.3334 0.31147 0.3313 0.3001 0.3199 0.4036 0.4193 0.4258 0.5027
3404.688 0.4253 0.3263 0.4134 0.4923 0.4508 0.4482 0.4491 0.4755 0.5036 0.4453
3423.978 0.3426 0.28165 0.26356 0.27805 0.4148 0.492 0.4446 0.5161 0.5534 0.4908
3443.269 0.4734 0.4887 0.5872 0.5956 0.5556 0.5057 0.4878 0.53 0.4891 0.4523
3462.559 0.4461 0.4068 0.4364 0.4428 0.3592 0.3196 0.30784 0.3191 0.26911 0.24592
3481.849 0.27952 0.22418 0.26113 0.28528 0.26663 0.31302 0.30855 0.2329 0.20734 0.25828
3501.139 0.29511 0.28139 0.25521 0.26479 0.26842 0.3499 0.31118 0.2814 0.4196 0.4764
3520.429 0.3666 0.23491 0.26237 0.3637 0.4317 0.3224 0.2041 0.2759 0.4153 0.3445
3539.719 0.27672 0.3844 0.4355 0.54 0.4985 0.4508 0.451 0.4485 0.4984 0.4266
3559.009 0.3977 0.3985 0.3698 0.456 0.7016 0.6554 0.5357 0.5331 0.30637 0.3383
3578.299 0.5302 0.517 0.5478 0.5449 0.5791 0.5601 0.4351 0.5432 0.6321 0.622
3597.589 0.6303 0.6564 0.6776 0.7117 0.9486 1.226 1.426 1.616 1.806 2.036
3616.879 2.306 2.606 3.066 3.506 3.936 4.686 5.456 6.016 6.416 7.016
3636.169 7.526 7.736 7.816 7.656 7.296 6.816 6.256 5.556 4.826 4.116
3655.459 3.466 2.926 2.496 2.106 1.866 1.726 1.506 1.386 1.286 1.1352
3674.749 1.1817 1.266 1.1534 0.9539 0.8822 0.8413 0.7086 0.6799 0.6345 0.5535
3694.039 0.6563 0.6457 0.6695 0.7075 0.6134 0.5838 0.6113 0.6682 0.6268 0.6461
3713.329 0.6709 0.6653 0.6529 0.6116 0.5443 0.5188 0.547 0.526 0.5049 0.6507
3732.619 0.6889 0.6788 0.7737 0.6509 0.5308 0.5374 0.4798 0.4118 0.4784 0.5368
3751.909 0.4059 0.3944 0.4886 0.3837 0.29363 0.27035 0.27625 0.3323 0.3535 0.4509
3771.199 0.5471 0.4843 0.3761 0.3862 0.3701 0.31075 0.3662 0.30244 0.1992 0.26188
3790.489 0.2691 0.23917 0.26402 0.25644 0.29726 0.3192 0.3431 0.4097 0.4949 0.3744
3809.779 0.31041 0.366 0.25415 0.30029 0.443 0.6169 0.6255 0.4801 0.3964 0.424
3829.069 0.505 0.4993 0.4817 0.4449 0.462 0.5123 0.4708 0.5008 0.5656 0.5527
3848.359 0.5173 0.5645 0.6734 0.6765 0.563 0.4844 0.5668 0.653 0.6846 0.6126
3867.649 0.5608 0.5423 0.4875 0.5701 0.6245 0.5778 0.5759 0.5844 0.5652 0.5395
3886.939 0.4516 0.4331 0.52 0.568 0.5682 0.6079 0.5954 0.5358 0.6475 0.7045
3906.229 0.605 0.4633 0.4652 0.4778 0.4802 0.6085 0.5704 0.6067 0.608 0.5801
3925.519 0.5242 0.29241 0.27772 0.3829 0.5173 0.4774 0.3724 0.3325 0.3684 0.4105
3944.809 0.389 0.4543 0.405 0.30366 0.20805 0.1835 0.3079 0.3282 0.24216 0.27625
3964.099 0.25604 0.23277 0.30627 0.30334 0.30657 0.3817 0.3949 0.385 0.3703 0.3184
3983.389 0.28987 0.30738 0.30985 0.24277 0.1887 0.27682 0.4091 0.3798 0.30833 0.224658
##END=
