##TITLE=N-(2-Hydroxyethyl)-2-pyrrolidone
##JCAMP-DX=4.24
##DATA TYPE=INFRARED SPECTRUM
##ORIGIN=NIST Mass Spectrometry Data Center
##OWNER=NIST Standard Reference Data Program
Collection (C) 2018 copyright by the U.S. Secretary of Commerce
on behalf of the United States of America. All rights reserved.
##CAS REGISTRY NO=3445-11-2
##MOLFORM=C 6 H 11 N O 2
##$NIST SOURCE=MSDC-IR
##SPECTROMETER/DATA SYSTEM=HP-GC/MS/IRD
##STATE=gas
##XUNITS=1/CM
##YUNITS=ABSORBANCE
##XFACTOR=1.0
##YFACTOR=0.000014900
##DELTAX=4.0
##FIRSTX=550.0
##LASTX=3846.0
##FIRSTY=0.001699
##MAXX=3846
##MINX=550
##MAXY=0.149
##MINY=0
##NPOINTS=825
##XYDATA=(X++(Y..Y))
550.0 114 185 154 169 164 159 158 151 141 138
590.0 137 137 141 151 161 166 172 180 187 191
630.0 198 206 210 213 217 218 209 193 177 155
670.0 130 105 82 66 53 42 34 28 26 27
710.0 22 18 19 21 26 26 20 18 12 6
750.0 5 8 6 4 5 6 9 14 13 13
790.0 17 22 24 28 32 39 48 60 80 105
830.0 133 169 204 234 264 281 284 270 241 211
870.0 185 162 149 146 152 161 172 182 189 199
910.0 205 208 212 213 203 191 179 164 152 144
950.0 136 133 137 146 160 178 205 244 293 349
990.0 411 466 514 557 588 612 640 675 728 808
1030.0 908 1018 1134 1246 1332 1390 1429 1459 1499 1552
1070.0 1593 1588 1523 1397 1224 1032 843 675 545 456
1110.0 390 344 316 301 296 299 309 327 349 377
1150.0 416 459 498 540 577 603 615 616 611 606
1190.0 609 620 639 665 703 744 782 817 850 879
1230.0 910 951 1011 1103 1232 1400 1605 1843 2099 2361
1270.0 2614 2829 2953 2951 2825 2597 2285 1939 1634 1415
1310.0 1275 1190 1138 1106 1078 1046 1009 970 939 919
1350.0 916 924 926 904 859 812 768 735 742 807
1390.0 937 1143 1437 1808 2219 2586 2832 2923 2859 2652
1430.0 2347 2020 1728 1494 1308 1176 1111 1070 1024 967
1470.0 894 793 674 592 570 573 562 532 479 401
1510.0 299 212 160 130 111 98 89 83 77 69
1550.0 64 62 61 56 53 53 51 50 48 49
1590.0 48 49 50 52 53 55 61 66 72 80
1630.0 90 103 117 135 161 194 237 287 357 449
1670.0 568 719 917 1179 1551 2044 2718 3609 4706 5943
1710.0 7281 8613 9644 10000 9705 8960 7674 5968 4239 2825
1750.0 1843 1220 849 626 482 381 307 250 205 171
1790.0 145 123 105 91 79 70 63 56 50 45
1830.0 41 36 34 32 29 26 26 24 23 23
1870.0 24 22 22 21 21 20 19 18 18 18
1910.0 19 18 17 16 16 14 12 11 9 7
1950.0 7 4 2 1 2 1 1 0 0 1
1990.0 2 3 4 3 5 7 7 8 8 7
2030.0 6 5 5 6 7 6 6 6 5 6
2070.0 6 5 4 4 3 3 4 4 3 4
2110.0 4 5 7 9 11 10 11 13 13 12
2150.0 11 12 13 12 10 8 7 6 7 6
2190.0 6 5 5 4 3 2 3 2 3 2
2230.0 4 6 7 6 5 6 7 6 7 8
2270.0 8 9 9 10 9 10 10 9 10 11
2310.0 10 11 12 12 11 12 13 15 14 15
2350.0 14 13 12 13 13 12 11 10 9 8
2390.0 7 7 5 4 6 8 9 10 11 13
2430.0 16 17 18 19 19 20 20 21 19 17
2470.0 15 14 14 13 11 11 10 8 8 9
2510.0 10 9 8 8 8 7 8 7 8 7
2550.0 7 7 9 8 7 7 8 9 8 6
2590.0 7 8 7 8 10 11 11 13 14 14
2630.0 15 17 18 18 19 21 22 25 26 28
2670.0 30 34 39 42 48 51 54 59 64 70
2710.0 76 79 79 82 83 82 82 86 90 93
2750.0 97 102 108 118 126 134 144 154 165 176
2790.0 189 206 228 250 275 304 336 373 416 464
2830.0 519 588 670 766 877 1001 1133 1273 1408 1530
2870.0 1645 1754 1849 1929 1982 2008 2022 2029 2033 2040
2910.0 2058 2077 2093 2096 2086 2065 2042 2022 2005 1995
2950.0 1983 1970 1956 1944 1934 1920 1897 1852 1779 1649
2990.0 1449 1204 968 763 589 451 345 269 214 177
3030.0 153 134 118 107 99 91 85 81 79 74
3070.0 69 65 62 58 55 50 43 40 38 34
3110.0 30 26 24 24 22 20 20 20 16 15
3150.0 14 14 14 12 10 9 9 8 5 4
3190.0 7 7 7 8 7 10 12 14 15 16
3230.0 18 19 22 26 28 32 33 33 35 38
3270.0 41 42 41 42 45 48 47 45 43 45
3310.0 46 47 47 48 46 44 44 45 45 45
3350.0 46 46 49 50 49 53 58 63 68 77
3390.0 89 97 107 123 138 154 173 197 228 260
3430.0 297 333 368 398 423 440 445 448 447 438
3470.0 427 415 400 387 371 350 329 312 294 277
3510.0 264 250 235 225 214 203 196 188 183 177
3550.0 170 164 161 158 155 147 141 138 135 131
3590.0 127 125 125 121 119 120 121 122 121 119
3630.0 118 117 118 124 140 166 204 248 286 311
3670.0 319 306 267 216 169 132 101 78 63 52
3710.0 44 39 31 26 28 26 25 26 26 25
3750.0 26 24 19 19 19 17 16 16 17 16
3790.0 14 14 16 19 19 17 17 20 22 21
3830.0 18 16 18 19 16
##END=
