##TITLE=Di-n-butyldichlorosilane
##JCAMP-DX=4.24
##DATA TYPE=INFRARED SPECTRUM
##ORIGIN=EPA-IR VAPOR PHASE LIBRARY
##OWNER=SRD/NIST
Collection (C) 2018 copyright by the U.S. Secretary of Commerce
on behalf of the United States of America. All rights reserved.
##CAS REGISTRY NO=3449-28-3
##MOLFORM=C 8 H 18 Cl 2 Si
##$NIST SOURCE=MSDC-IR
##STATE=gas
##XUNITS=1/CM
##YUNITS=ABSORBANCE
##XFACTOR=1.
##YFACTOR=0.001
##DELTAX=3.85796
##FIRSTX=501.5
##LASTX=4000.7
##FIRSTY=12.68
##MAXX=4000.7
##MINX=501.534
##MAXY=0.05101
##MINY=0.00005614
##NPOINTS=908
##XYDATA=(X++(Y..Y))
501.534 12.68 10.92 9.25 8.04 7.66 8.44 10.12 12.89 17.12 22.94
540.114 29.49 35.39 39.3 39.55 35.84 29.68 23.14 17.48 12.98 9.61
578.693 7.02 5.31 4.2 3.47 3.09 2.69 2.52 2.58 2.69 2.77
617.273 2.88 3.18 3.5 3.92 4.36 4.87 5.47 5.9 6.29 6.7
655.852 7.28 8.13 9.11 10.23 11.53 12.94 14.22 15.22 16.1 16.79
694.432 17.34 17.94 18.59 19.24 19.88 20.25 20.13 19.52 18.65 17.74
733.011 16.91 16.27 15.86 15.59 15.27 14.83 14.08 13.12 12.06 10.93
771.591 9.86 8.98 8.46 8.18 8.06 7.87 7.31 6.33 5.09 3.99
810.170 3.22 2.71 2.37 2.21 2.14 2.15 2.26 2.48 2.79 3.18
848.750 3.5 3.68 3.83 3.96 4.24 4.86 5.71 6.51 7.07 7.13
887.330 6.63 5.72 4.57 3.58 2.88 2.38 2.06 1.78 1.55 1.46
925.909 1.45 1.38 1.36 1.46 1.64 1.96 2.45 3.24 4.25 5.15
964.489 5.45 4.99 4.21 3.61 3.43 3.61 3.97 4.38 4.5 4.12
1003.068 3.47 2.75 2.25 2.1 2.26 2.62 2.94 3.07 3.08 3.19
1041.648 3.24 3.24 3.22 3.16 3.2 3.36 3.64 4.16 5.03 6.07
1080.227 6.81 6.95 6.33 5.15 3.92 2.85 2.23 1.76 1.35 1.17
1118.807 1.03 0.9627 0.8751 0.8575 0.8807 0.8328 0.791 0.8169 0.9761 1.05
1157.387 1.15 1.44 1.89 2.47 3.06 3.61 4.04 4.52 5.42 6.58
1195.966 7.32 7.18 6.2 4.84 3.53 2.55 1.88 1.38 1.08 0.8454
1234.546 0.7166 0.6544 0.5978 0.5894 0.5193 0.5369 0.684 0.8225 1.06 1.24
1273.125 1.24 1.21 1.27 1.4 1.63 1.94 2.3 2.61 2.64 2.38
1311.705 1.99 1.61 1.4 1.39 1.55 1.89 2.47 3.23 3.85 3.94
1350.284 3.49 2.83 2.29 2.03 2.01 2.18 2.62 3.42 4.32 4.9
1388.864 4.95 4.65 4.53 4.72 4.93 4.92 4.56 3.96 3.35 2.92
1427.443 2.69 2.61 2.67 2.9 3.36 4.06 4.9 5.68 6.37 6.84
1466.023 6.89 6.44 5.55 4.46 3.45 2.68 2.18 1.84 1.58 1.41
1504.603 1.24 1.09 1.01 0.9088 0.8275 0.7661 0.6918 0.6149 0.5571 0.4908
1543.182 0.4343 0.4155 0.3998 0.3467 0.31 0.3179 0.3065 0.2888 0.273 0.279
1581.762 0.3001 0.2828 0.2533 0.2612 0.2846 0.2836 0.2773 0.2736 0.2796 0.2978
1620.341 0.3011 0.3065 0.2876 0.2624 0.2619 0.2656 0.247 0.2057 0.1866 0.2024
1658.921 0.2378 0.2455 0.2237 0.2173 0.2191 0.2029 0.168 0.1691 0.1962 0.1674
1697.500 0.1341 0.138 0.1394 0.1589 0.1725 0.1544 0.1662 0.1709 0.1586 0.1381
1736.080 0.1322 0.1288 0.1218 0.1238 0.1449 0.1594 0.1349 0.1234 0.1304 0.1308
1774.659 0.1308 0.149 0.1302 0.1087 0.115 0.1205 0.1139 0.09713 0.1108 0.1076
1813.239 0.1024 0.1137 0.1126 0.1077 0.08941 0.09022 0.113 0.1309 0.1259 0.1236
1851.819 0.1314 0.117 0.1028 0.1128 0.1256 0.1417 0.1389 0.1466 0.1587 0.1493
1890.398 0.172 0.1885 0.1547 0.1475 0.1652 0.1714 0.1927 0.1989 0.1901 0.1811
1928.978 0.1912 0.206 0.2098 0.2174 0.2212 0.2203 0.2174 0.2041 0.1964 0.2017
1967.557 0.2205 0.2279 0.2258 0.2418 0.2247 0.2018 0.2104 0.206 0.1973 0.1939
2006.137 0.1963 0.1982 0.1921 0.1858 0.1964 0.2031 0.1977 0.1887 0.1801 0.1802
2044.716 0.182 0.1876 0.1728 0.1844 0.213 0.2199 0.2192 0.2085 0.199 0.1757
2083.296 0.1689 0.1771 0.1681 0.1598 0.1482 0.1527 0.1575 0.1456 0.1481 0.1608
2121.875 0.1825 0.1856 0.1697 0.1681 0.1738 0.1667 0.155 0.1772 0.1827 0.1833
2160.455 0.1972 0.1887 0.1852 0.1854 0.1821 0.1679 0.1726 0.194 0.1945 0.1842
2199.035 0.1702 0.1749 0.191 0.1803 0.1683 0.1764 0.1609 0.1702 0.1948 0.1751
2237.614 0.1688 0.1649 0.1506 0.1629 0.1714 0.1558 0.1396 0.1505 0.1473 0.1444
2276.194 0.1726 0.1607 0.1235 0.129 0.1675 0.1501 0.132 0.1536 0.1626 0.1647
2314.773 0.1631 0.1658 0.1759 0.1667 0.1569 0.1652 0.178 0.1966 0.2056 0.2265
2353.353 0.2291 0.2002 0.2025 0.2057 0.2047 0.2227 0.2369 0.2341 0.2354 0.2314
2391.932 0.21 0.1929 0.1955 0.2086 0.2128 0.206 0.2051 0.2364 0.2473 0.2498
2430.512 0.2556 0.2448 0.2174 0.2002 0.1947 0.1793 0.1735 0.2001 0.2194 0.1916
2469.092 0.191 0.2139 0.1895 0.1596 0.1753 0.1943 0.2156 0.2391 0.2383 0.2452
2507.671 0.2726 0.2476 0.2173 0.2301 0.2422 0.273 0.27 0.221 0.2453 0.281
2546.251 0.2496 0.2453 0.2425 0.2281 0.2216 0.2597 0.3124 0.3025 0.2999 0.3205
2584.830 0.3542 0.3925 0.4316 0.4576 0.4627 0.5014 0.5325 0.5226 0.5196 0.5072
2623.410 0.4959 0.4983 0.5085 0.524 0.5245 0.5466 0.5843 0.6219 0.6443 0.6301
2661.989 0.6304 0.6411 0.6563 0.6662 0.6659 0.6511 0.6294 0.5979 0.6176 0.6346
2700.569 0.601 0.6326 0.6562 0.6814 0.7457 0.7886 0.7972 0.8605 0.9435 1.02
2739.148 1.17 1.24 1.27 1.33 1.34 1.3 1.3 1.34 1.38 1.47
2777.728 1.57 1.7 1.86 2.01 2.16 2.31 2.43 2.54 2.65 2.76
2816.308 2.91 3.13 3.35 3.6 3.96 4.36 4.83 5.48 6.33 7.52
2854.887 9.28 11.83 15.22 19.11 22.62 25.24 27.18 28.28 28.02 26.22
2893.467 23.52 21.23 20.15 20.35 21.46 23.21 25.66 28.99 33.58 39.39
2932.046 45.48 50.01 51.01 47.93 42.47 37.49 35.36 37.07 41.98 47.05
2970.626 47.86 42.7 33.41 23.84 17.02 12.93 10.35 8.57 7.25 6.24
3009.205 5.49 4.88 4.43 4.01 3.62 3.33 3.01 2.69 2.44 2.26
3047.785 2.12 2.01 1.87 1.73 1.65 1.59 1.55 1.51 1.47 1.44
3086.364 1.37 1.33 1.3 1.27 1.27 1.19 1.07 1 0.998 1.02
3124.944 0.9849 0.9862 0.9559 0.9378 0.953 0.8863 0.8366 0.8332 0.8141 0.8048
3163.524 0.8061 0.7663 0.7386 0.7374 0.7084 0.6655 0.6222 0.6012 0.6112 0.6072
3202.103 0.5739 0.5428 0.49 0.4629 0.4878 0.4531 0.4126 0.3788 0.3472 0.3487
3240.683 0.3244 0.2732 0.2566 0.2824 0.3087 0.2702 0.2542 0.2833 0.2472 0.1884
3279.262 0.1986 0.2795 0.2436 0.2072 0.2471 0.2221 0.2268 0.2422 0.1889 0.2226
3317.842 0.2465 0.207 0.2188 0.2149 0.1925 0.1698 0.1975 0.2306 0.2224 0.2283
3356.421 0.2112 0.1769 0.2098 0.221 0.2048 0.205 0.207 0.2283 0.2402 0.2239
3395.001 0.1951 0.1936 0.1714 0.1233 0.1205 0.1828 0.2348 0.2127 0.1794 0.1943
3433.580 0.1808 0.1538 0.1582 0.1806 0.2283 0.2085 0.1846 0.1606 0.1361 0.09979
3472.160 0.0892 0.1085 0.1315 0.1542 0.14 0.1269 0.1672 0.1666 0.1058 0.09734
3510.740 0.07 0.05614 0.1033 0.1197 0.1364 0.1823 0.1339 0.1189 0.1503 0.1499
3549.319 0.1662 0.1889 0.2064 0.1716 0.1687 0.2155 0.2312 0.2189 0.1822 0.1948
3587.899 0.2325 0.2086 0.1649 0.2133 0.2615 0.2301 0.2316 0.2173 0.1894 0.2246
3626.478 0.2362 0.2025 0.2599 0.2534 0.241 0.2684 0.2812 0.2835 0.2393 0.2084
3665.058 0.2156 0.212 0.1713 0.175 0.153 0.1713 0.2223 0.2113 0.2151 0.2613
3703.637 0.1915 0.1168 0.1648 0.2086 0.2401 0.2563 0.2207 0.2468 0.2876 0.266
3742.217 0.2555 0.2345 0.2165 0.2479 0.2928 0.3433 0.3252 0.2952 0.2939 0.278
3780.797 0.2867 0.2987 0.3308 0.3202 0.2602 0.2259 0.225 0.2192 0.2201 0.2112
3819.376 0.2177 0.2044 0.1782 0.2225 0.2419 0.2381 0.261 0.2575 0.2237 0.1557
3857.956 0.1547 0.2042 0.197 0.1649 0.1439 0.1883 0.19 0.1438 0.184 0.2559
3896.535 0.2253 0.1582 0.2262 0.2706 0.2576 0.2361 0.2127 0.3272 0.3014 0.2335
3935.115 0.2838 0.3476 0.352 0.2801 0.2527 0.2618 0.2957 0.2666 0.2628 0.3067
3973.694 0.3133 0.3497 0.3906 0.3346 0.2808 0.3269 0.363 0.3082
##END=
