##TITLE=3,5,5-Trimethyl-1-hexanol
##JCAMP-DX=4.24
##DATA TYPE=INFRARED SPECTRUM
##ORIGIN=NIST Mass Spectrometry Data Center
##OWNER=NIST Standard Reference Data Program
Collection (C) 2018 copyright by the U.S. Secretary of Commerce
on behalf of the United States of America. All rights reserved.
##CAS REGISTRY NO=3452-97-9
##MOLFORM=C 9 H 20 O
##$NIST SOURCE=MSDC-IR
##SPECTROMETER/DATA SYSTEM=HP-GC/MS/IRD
##STATE=gas
##XUNITS=1/CM
##YUNITS=ABSORBANCE
##XFACTOR=1.0
##YFACTOR=0.000004100
##DELTAX=4.0
##FIRSTX=550.0
##LASTX=3846.0
##FIRSTY=0.000820
##MAXX=3846
##MINX=550
##MAXY=0.041
##MINY=0
##NPOINTS=825
##XYDATA=(X++(Y..Y))
550.0 200 158 161 142 102 104 107 105 99 90
590.0 85 97 112 111 98 89 82 81 63 49
630.0 71 56 52 58 45 53 65 48 23 10
670.0 34 55 46 33 23 18 20 13 9 36
710.0 38 30 35 39 40 39 52 57 52 54
750.0 54 47 37 36 37 34 41 43 43 46
790.0 46 53 60 67 74 79 93 100 102 107
830.0 126 143 145 150 155 157 153 148 157 168
870.0 169 160 149 147 149 154 151 151 156 162
910.0 174 190 211 223 239 258 280 307 346 391
950.0 443 505 567 628 675 707 728 741 751 768
990.0 809 855 906 953 982 1017 1069 1142 1230 1350
1030.0 1503 1682 1859 2002 2084 2093 2011 1858 1619 1348
1070.0 1113 928 815 744 678 615 557 498 447 427
1110.0 415 401 392 384 381 377 360 349 347 347
1150.0 342 349 359 370 401 429 447 483 528 573
1190.0 620 657 676 678 655 625 599 574 575 594
1230.0 621 647 668 671 638 586 528 480 452 440
1270.0 428 424 425 424 415 399 380 364 351 339
1310.0 330 328 335 340 352 374 410 453 513 592
1350.0 698 841 1030 1243 1423 1526 1512 1417 1310 1233
1390.0 1174 1088 965 819 653 510 418 367 343 347
1430.0 373 413 460 509 575 660 761 891 1034 1182
1470.0 1301 1354 1323 1195 993 747 526 368 271 207
1510.0 162 139 118 101 85 75 71 63 57 57
1550.0 61 53 49 51 41 35 39 35 32 34
1590.0 35 38 37 35 39 42 32 26 27 24
1630.0 24 22 20 17 18 18 18 25 23 21
1670.0 22 17 19 21 19 23 22 15 18 21
1710.0 18 18 14 15 14 13 8 6 6 4
1750.0 4 8 10 6 3 1 0 1 4 3
1790.0 8 9 7 11 12 8 10 13 13 14
1830.0 13 11 11 9 12 18 17 17 19 20
1870.0 19 20 21 18 18 21 18 17 18 18
1910.0 18 15 14 17 21 23 20 15 14 16
1950.0 14 15 15 14 19 23 22 22 24 22
1990.0 21 21 23 21 23 30 24 17 19 25
2030.0 28 29 26 27 25 22 25 27 24 24
2070.0 26 19 16 17 16 12 10 12 15 16
2110.0 16 20 23 16 7 9 9 11 16 14
2150.0 12 14 15 16 17 17 15 13 13 12
2190.0 10 9 12 11 9 14 20 21 19 14
2230.0 14 17 16 13 16 16 9 9 12 13
2270.0 12 15 18 14 15 16 21 22 23 24
2310.0 19 14 13 13 16 10 4 4 4 7
2350.0 15 14 10 12 15 15 15 19 19 18
2390.0 19 17 16 19 18 20 21 22 23 17
2430.0 17 17 19 19 15 13 13 10 9 14
2470.0 14 16 17 10 6 10 12 13 13 11
2510.0 8 11 13 13 14 13 17 20 18 23
2550.0 29 28 29 35 32 29 28 27 26 27
2590.0 28 22 14 24 37 35 35 40 41 40
2630.0 40 43 47 55 57 54 59 64 70 76
2670.0 80 84 88 96 101 104 108 114 125 136
2710.0 147 154 158 168 183 196 200 199 195 195
2750.0 199 205 210 208 205 206 215 225 244 263
2790.0 276 300 317 332 363 392 434 486 536 602
2830.0 697 819 954 1112 1301 1507 1732 1985 2298 2676
2870.0 3084 3471 3785 4001 4151 4295 4485 4734 5032 5329
2910.0 5558 5664 5685 5685 5715 5819 6002 6277 6657 7210
2950.0 8023 8977 9744 10000 9471 8164 6477 4867 3556 2595
2990.0 1913 1431 1085 848 676 544 457 394 341 292
3030.0 256 225 208 196 175 164 159 147 136 131
3070.0 135 135 123 116 109 113 114 99 93 92
3110.0 93 91 83 81 85 94 85 74 80 86
3150.0 86 94 92 85 85 76 75 90 92 80
3190.0 72 75 74 69 64 62 73 69 61 54
3230.0 47 47 40 37 38 38 34 31 33 31
3270.0 30 31 25 11 13 23 28 30 27 20
3310.0 16 16 23 32 29 20 21 27 30 24
3350.0 18 20 19 21 30 32 32 25 16 15
3390.0 19 29 32 24 26 30 28 34 38 25
3430.0 31 36 38 41 39 27 13 29 43 42
3470.0 34 31 37 39 30 29 23 20 27 34
3510.0 34 23 21 19 20 23 13 11 17 16
3550.0 12 17 25 21 19 23 18 18 30 41
3590.0 40 45 53 49 45 42 49 63 71 81
3630.0 78 93 128 174 239 316 404 488 558 583
3670.0 551 482 393 299 214 149 112 98 82 62
3710.0 53 56 51 49 46 35 35 35 38 37
3750.0 29 32 40 44 42 42 40 41 34 32
3790.0 33 38 53 59 52 44 39 45 46 41
3830.0 43 43 46 51 49
##END=
