##TITLE=t-Butyl cumyl peroxide
##JCAMP-DX=4.24
##DATA TYPE=INFRARED SPECTRUM
##ORIGIN=EPA-IR VAPOR PHASE LIBRARY
##OWNER=SRD/NIST
Collection (C) 2018 copyright by the U.S. Secretary of Commerce
on behalf of the United States of America. All rights reserved.
##CAS REGISTRY NO=3457-61-2
##MOLFORM=C 13 H 20 O 2
##$NIST SOURCE=MSDC-IR
##STATE=gas
##XUNITS=1/CM
##YUNITS=ABSORBANCE
##XFACTOR=1.
##YFACTOR=0.001
##DELTAX=1.92934
##FIRSTX=549.9
##LASTX=3999.5
##FIRSTY=6.57
##MAXX=3999.53
##MINX=549.863
##MAXY=0.12197
##MINY=0
##NPOINTS=1789
##XYDATA=(X++(Y..Y))
549.863 6.57 6.18 5.69 5.44 5.19 4.85 4.79 4.72 4.96 5.85
569.156 7.13 8.89 11.36 14.49 17.98 21.31 23.59 24.93 26.06 27.18
588.450 28.2 28.61 27.6 24.62 20.41 16.36 13.06 10.51 8.68 7.36
607.743 6.36 5.71 5.11 4.42 3.84 3.44 3.08 2.73 2.55 2.37
627.037 2.19 2.0173 1.9376 1.8048 1.6183 1.5795 1.6423 1.6019 1.6034 1.7157
646.330 1.7349 1.8143 1.9304 2.1236 2.42 2.72 2.99 3.59 4.39 5.26
665.624 6.32 7.54 8.78 10.18 11.69 13.18 14.61 15.79 16.95 18.24
684.917 20.12 23.45 27.36 26.96 22.95 20.21 18.88 17.95 17.15 16.01
704.210 14.5 12.91 11.29 9.8 8.58 7.62 6.81 6.1 5.56 5.16
723.504 4.93 4.87 5.01 5.41 6 6.93 8.12 9.46 10.95 12.47
742.797 14.04 15.48 16.82 18.23 20.13 23.37 28.63 32.12 27.84 21.2
762.091 18.49 17.3 16.16 14.95 13.45 11.76 10.02 8.41 6.88 5.55
781.384 4.59 3.87 3.36 2.95 2.68 2.56 2.44 2.3 2.18 2.19
800.678 2.1562 2.0973 2.052 1.9747 1.9292 1.8358 1.7562 1.7357 1.7249 1.6801
819.971 1.6684 1.7897 1.7936 1.7316 1.8055 1.7839 1.7854 1.8399 1.8812 1.9312
839.264 1.9007 1.83 1.8058 1.8597 1.9518 2.0323 2.0761 2.0782 2.1226 2.2
858.558 2.24 2.33 2.47 2.58 2.63 2.64 2.65 2.73 2.84 2.96
877.851 3.06 3.17 3.33 3.5 3.67 3.85 4.02 4.22 4.42 4.53
897.145 4.59 4.66 4.68 4.7 4.75 4.78 4.83 4.83 4.88 4.97
916.438 4.98 5.01 5.05 5.07 5.19 5.42 5.79 6.36 7.13 8.08
935.732 9.17 10.49 11.85 13.07 13.97 14.56 14.93 15.08 15.08 14.93
955.025 14.63 13.97 12.77 11.2 9.55 8.03 6.81 5.89 5.25 4.74
974.318 4.27 3.9 3.63 3.42 3.23 3.11 3.06 3.06 3.05 3.05
993.612 3.1 3.2 3.26 3.4 3.63 3.87 4.17 4.59 5.15 5.8
1012.905 6.55 7.29 7.89 8.15 8 7.78 7.74 7.47 6.99 6.8
1032.199 6.56 5.71 4.55 3.61 2.97 2.65 2.54 2.54 2.63 2.76
1051.492 2.94 3.15 3.41 3.73 4.07 4.44 4.81 5.16 5.56 5.89
1070.786 6.09 6.24 6.37 6.46 6.54 6.52 6.4 6.22 6.07 5.97
1090.079 5.87 5.66 5.3 4.91 4.55 4.31 4.14 3.99 3.86 3.75
1109.372 3.65 3.52 3.34 3.23 3.17 3.1 3.04 2.97 2.89 2.82
1128.666 2.79 2.77 2.75 2.74 2.79 2.88 2.95 3.05 3.25 3.51
1147.959 3.77 4.06 4.44 4.77 5.11 5.61 6.19 6.89 7.77 8.89
1167.253 10.25 11.93 13.82 15.72 17.41 18.8 20.36 22.31 23.94 25.47
1186.546 27.39 29.08 30.04 30.43 30.57 30.71 30.98 31.25 31.48 31.86
1205.840 32.43 33.33 34.68 36.12 37.22 37.41 35.89 33.96 34.16 36.36
1225.133 38.97 41.19 42.84 43.82 44.22 44.33 44.56 45.41 47.42 51.04
1244.426 56.46 63.57 71.93 80.42 87.88 93.31 96.4 97.93 98.49 97.61
1263.720 94.65 89.75 81.89 69.01 52.36 36.38 24.47 17.25 13.34 11.23
1283.013 10.06 9.32 8.94 8.75 8.64 8.72 8.9 9.15 9.47 9.86
1302.307 10.22 10.44 10.37 10.06 9.91 9.87 9.89 10.03 10.12 10.24
1321.600 10.54 11.01 11.73 12.7 13.92 15.53 17.36 19.37 21.72 24.29
1340.894 27.09 30.1 33.44 37.15 41.04 44.99 48.66 51.76 54.11 56.08
1360.187 58.17 59.85 61.43 62.26 61.11 58.25 54.15 49.7 45.54 42
1379.480 38.72 35.63 32.76 29.96 27.24 24.57 22.15 20.08 18.29 16.83
1398.774 15.72 14.84 14.22 13.85 13.61 13.49 13.46 13.51 13.67 13.87
1418.067 14.18 14.55 14.87 15.24 15.63 15.99 16.51 17.28 18.12 19.01
1437.361 19.99 20.87 21.55 21.77 21.57 21.12 20.46 19.89 19.52 19.12
1456.654 18.34 16.97 15.15 13.7 12.53 11.43 10.96 10.47 10 9.51
1475.948 9.11 8.74 8.3 8.06 7.76 7.53 7.5 7.38 7.22 7.25
1495.241 7.01 6.86 6.97 6.81 6.79 6.74 6.55 6.64 6.71 6.61
1514.534 6.66 6.63 6.6 6.7 6.61 6.73 6.85 6.64 6.62 6.71
1533.828 6.67 6.71 6.67 6.68 6.71 6.58 6.55 6.5 6.35 6.34
1553.121 6.36 6.34 6.36 6.33 6.41 6.56 6.73 6.96 7.18 7.46
1572.415 7.77 8.08 8.48 8.79 9.03 9.33 9.68 10.06 10.44 10.75
1591.708 10.95 10.98 10.78 10.55 10.35 10.17 9.96 9.74 9.44 8.9
1611.002 8.21 7.42 6.66 5.99 5.53 5.14 4.75 4.42 4.2 4.03
1630.295 3.89 3.79 3.73 3.77 3.89 4.02 4.16 4.4 4.73 5.05
1649.588 5.42 5.87 6.41 6.97 7.57 8.26 8.96 9.53 10.1 10.82
1668.882 11.74 12.84 14.16 15.84 17.95 20.43 23.71 27.55 32.89 39.5
1688.175 47.23 56.74 67.63 78.97 90.61 100.44 107.17 111.97 114.81 117.29
1707.469 119.86 121.97 121.96 118.12 110.22 99.84 88.93 79.84 72.47 66.81
1726.762 62.78 60 58.19 57.44 57.33 57.11 56.38 55.23 54.04 53.19
1746.056 52.42 51.33 50.15 48.53 46.3 43.62 40.69 37.88 34.97 32.02
1765.349 29.25 26.57 24 21.63 19.36 17.32 15.51 13.93 12.62 11.59
1784.642 10.74 9.9 9.14 8.55 8.07 7.69 7.34 6.97 6.73 6.47
1803.936 6.11 5.76 5.42 5.09 4.77 4.43 4.1 3.75 3.39 3.12
1823.229 2.92 2.75 2.58 2.4 2.31 2.25 2.16 2.1091 2.0529 2.0039
1842.523 1.9503 1.8805 1.8198 1.7043 1.6331 1.6345 1.544 1.4183 1.3918 1.3522
1861.816 1.3129 1.3095 1.2972 1.3556 1.3901 1.431 1.5262 1.6168 1.7278 1.8217
1881.110 1.8286 1.8911 1.971 1.9597 1.9927 2.0629 2.088 2.084 2.0657 1.9997
1900.403 1.9423 1.9179 1.842 1.7067 1.5713 1.484 1.3844 1.25558 1.18871 1.1455
1919.696 1.0966 1.044 0.998 0.956 0.957 1.007 1.0911 1.17756 1.25624 1.3359
1938.990 1.3774 1.4592 1.6061 1.7261 1.7975 1.8912 1.9722 1.9758 1.9968 2.0216
1958.283 2.065 2.1277 2.1004 2.059 2.0314 1.929 1.7852 1.7089 1.6502 1.532
1977.577 1.4325 1.3382 1.24248 1.17777 1.0839 1.019 0.946 0.847 0.797 0.746
1996.870 0.685 0.632 0.566 0.517 0.469 0.442 0.481 0.468 0.439 0.429
2016.164 0.444 0.474 0.478 0.458 0.461 0.493 0.451 0.387 0.385 0.398
2035.457 0.411 0.4 0.377 0.381 0.394 0.424 0.411 0.384 0.351 0.325
2054.750 0.336 0.335 0.365 0.404 0.393 0.392 0.435 0.481 0.482 0.482
2074.044 0.523 0.548 0.578 0.594 0.596 0.582 0.622 0.676 0.662 0.63
2093.337 0.645 0.673 0.655 0.674 0.715 0.735 0.716 0.72 0.731 0.771
2112.631 0.823 0.81 0.81 0.817 0.84 0.84 0.83 0.825 0.803 0.788
2131.924 0.77 0.779 0.767 0.737 0.746 0.736 0.686 0.64 0.634 0.63
2151.218 0.605 0.583 0.565 0.523 0.485 0.47 0.426 0.403 0.373 0.366
2170.511 0.379 0.374 0.397 0.382 0.365 0.332 0.32 0.342 0.356 0.357
2189.804 0.358 0.377 0.382 0.408 0.409 0.389 0.412 0.411 0.409 0.437
2209.098 0.438 0.44 0.461 0.471 0.455 0.437 0.437 0.417 0.382 0.403
2228.391 0.446 0.428 0.44 0.452 0.424 0.448 0.451 0.443 0.468 0.463
2247.685 0.429 0.463 0.485 0.486 0.509 0.506 0.547 0.55 0.519 0.522
2266.978 0.538 0.555 0.575 0.572 0.575 0.603 0.591 0.567 0.566 0.596
2286.272 0.622 0.631 0.627 0.611 0.614 0.655 0.695 0.698 0.733 0.809
2305.565 0.831 0.852 0.949 1.036 1.0915 1.1085 1.1161 1.1355 1.1408 1.20057
2324.858 1.21527 1.1286 1.0684 1.037 0.998 0.95 0.933 0.912 0.875 0.868
2344.152 0.842 0.796 0.766 0.734 0.712 0.711 0.734 0.737 0.723 0.728
2363.445 0.746 0.789 0.792 0.75 0.694 0.669 0.663 0.619 0.604 0.582
2382.739 0.51 0.423 0.444 0.474 0.414 0.384 0.35 0.34 0.338 0.321
2402.032 0.293 0.276 0.261 0.254 0.242 0.208 0.222 0.269 0.295 0.28
2421.326 0.272 0.259 0.266 0.29 0.3 0.267 0.228 0.267 0.304 0.267
2440.619 0.216 0.211 0.232 0.207 0.16 0.14 0.11 0.09 0.12 0.13
2459.912 0.176 0.2 0.15 0.11 0.1 0.13 0.13 0.12 0.11 0.1
2479.206 0.14 0.178 0.206 0.213 0.197 0.12 0.12 0.228 0.234 0.231
2498.499 0.259 0.273 0.265 0.257 0.27 0.27 0.268 0.275 0.268 0.297
2517.793 0.332 0.327 0.337 0.286 0.216 0.206 0.165 0.19 0.244 0.195
2537.086 0.18 0.225 0.238 0.289 0.35 0.357 0.353 0.311 0.31 0.347
2556.380 0.332 0.341 0.413 0.401 0.36 0.404 0.454 0.467 0.438 0.414
2575.673 0.392 0.38 0.396 0.421 0.424 0.424 0.422 0.375 0.41 0.415
2594.966 0.393 0.415 0.37 0.391 0.422 0.392 0.379 0.366 0.38 0.377
2614.260 0.333 0.311 0.349 0.406 0.4 0.384 0.394 0.336 0.34 0.349
2633.553 0.32 0.357 0.318 0.263 0.304 0.339 0.318 0.328 0.355 0.334
2652.847 0.3 0.302 0.282 0.295 0.309 0.309 0.246 0.219 0.278 0.265
2672.140 0.295 0.262 0.259 0.273 0.176 0.13 0.16 0.204 0.224 0.231
2691.434 0.217 0.236 0.243 0.289 0.313 0.227 0.238 0.291 0.283 0.308
2710.727 0.294 0.275 0.292 0.316 0.356 0.404 0.467 0.477 0.456 0.462
2730.020 0.477 0.483 0.509 0.539 0.584 0.666 0.708 0.727 0.753 0.795
2749.314 0.901 0.943 0.966 0.918 0.814 0.805 0.869 0.952 0.97 1.054
2768.607 1.1136 1.0883 1.148 1.23777 1.2738 1.2883 1.3294 1.3746 1.3648 1.35
2787.901 1.3212 1.361 1.4294 1.397 1.3448 1.3289 1.3855 1.4745 1.5345 1.6303
2807.194 1.698 1.7839 1.9275 1.9922 2.0395 2.1485 2.33 2.52 2.73 2.87
2826.488 2.96 3.22 3.48 3.66 3.95 4.24 4.5 4.83 5.14 5.55
2845.781 5.96 6.28 6.72 7.15 7.58 8.12 8.72 9.32 9.93 10.55
2865.074 11.13 11.63 12.07 12.53 12.9 13.2 13.47 13.67 13.85 14.16
2884.368 14.59 15.32 16.47 17.68 18.24 17.87 17.07 16.05 15.6 16.03
2903.661 16.97 18.2 19.67 21.19 22.58 24.07 25.55 26.83 27.83 28.85
2922.955 29.73 30.23 30.64 30.87 30.92 30.89 30.78 30.71 30.64 30.45
2942.248 30.38 30.62 31.19 31.54 31.99 33.1 33.82 32.6 30.81 30.5
2961.542 30.84 31.79 33.44 35.01 35.98 36.11 35.82 35.69 35.7 35.4
2980.835 35.05 35.2 35.75 35.52 34.58 34.03 33.85 33.36 33.04 32.75
3000.128 32.28 31.75 32.21 32.86 31.83 31.47 31.59 31.49 31.46 30.93
3019.422 29.86 29.21 29.1 28.91 28.52 28.02 27.71 27.25 26.79 26.52
3038.715 26.05 25.45 25.06 24.7 24.29 23.79 23.36 23.08 22.87 22.88
3058.009 23.09 23.53 24.13 24.91 25.6 25.9 25.97 25.95 25.85 25.73
3077.302 25.44 24.92 24.16 23.1 21.77 20.17 18.59 17.47 16.68 16.09
3096.596 15.38 14.54 13.6 12.44 11.28 10.02 8.85 8.03 7.39 6.56
3115.889 5.73 5.1 4.55 4.06 3.64 3.22 2.87 2.69 2.6 2.36
3135.182 2.0227 1.9277 1.9941 1.9709 1.7218 1.6125 1.6333 1.6162 1.5241 1.3828
3154.476 1.4084 1.5129 1.4266 1.18675 1.1422 1.1404 1.117 0.958 0.831 0.874
3173.769 0.841 0.768 0.665 0.543 0.455 0.514 0.593 0.613 0.607 0.475
3193.063 0.276 0.239 0.263 0.24 0.314 0.332 0.362 0.383 0.248 0.204
3212.356 0.316 0.392 0.327 0.261 0.26 0.237 0.344 0.391 0.208 0.238
3231.650 0.305 0.12 0.11 0.312 0.27 0.217 0.237 0.183 0.219 0.235
3250.943 0.183 0.204 0.14 0.06 0.11 0.239 0.25 0.13 0.191 0.29
3270.236 0.22 0.12 0.11 0.244 0.279 0.05 0.02 0.08 0.01 0.01
3289.530 0.02 0.09 0.213 0.194 0.226 0.272 0.186 0.222 0.182 0.11
3308.823 0.08 0 0.11 0.14 0.09 0.07 0.03 0.05 0.06 0.12
3328.117 0.171 0.184 0.162 0.183 0.258 0.288 0.181 0.15 0.15 0.183
3347.410 0.213 0.199 0.369 0.435 0.541 0.557 0.461 0.639 0.718 0.605
3366.704 0.576 0.717 0.946 1.1274 1.3363 1.5176 1.5041 1.5542 1.6923 1.8905
3385.997 2.0734 2.1148 2.0874 2.1501 2.25 2.19 2.18 2.1075 2.08 2.0675
3405.290 1.8813 1.7505 1.5636 1.3828 1.3534 1.3663 1.3121 1.21267 1.1192 1.2141
3424.584 1.2657 1.3239 1.5047 1.519 1.5447 1.5866 1.6014 1.4239 1.4327 1.6098
3443.877 1.6253 1.609 1.591 1.6679 1.6638 1.5684 1.4875 1.5048 1.61 1.6367
3463.171 1.5895 1.5649 1.4898 1.4199 1.4159 1.4022 1.3459 1.2775 1.17134 1.0816
3482.464 1.052 0.938 0.779 0.735 0.819 0.781 0.726 0.71 0.724 0.644
3501.758 0.641 0.714 0.674 0.662 0.678 0.558 0.459 0.499 0.566 0.55
3521.051 0.462 0.436 0.385 0.517 0.627 0.515 0.426 0.41 0.407 0.424
3540.344 0.37 0.466 0.571 0.449 0.406 0.41 0.438 0.55 0.496 0.495
3559.638 0.637 0.529 0.495 0.696 0.709 0.518 0.367 0.396 0.429 0.472
3578.931 0.468 0.433 0.509 0.451 0.395 0.466 0.45 0.37 0.415 0.48
3598.225 0.438 0.298 0.355 0.533 0.507 0.588 0.535 0.353 0.481 0.599
3617.518 0.597 0.416 0.285 0.321 0.348 0.401 0.407 0.425 0.492 0.528
3636.812 0.499 0.478 0.532 0.545 0.585 0.678 0.639 0.617 0.686 0.741
3656.105 0.72 0.597 0.584 0.621 0.64 0.675 0.678 0.626 0.582 0.585
3675.398 0.57 0.573 0.607 0.605 0.491 0.477 0.483 0.511 0.517 0.492
3694.692 0.617 0.733 0.674 0.606 0.587 0.59 0.581 0.513 0.556 0.663
3713.985 0.703 0.619 0.607 0.637 0.614 0.64 0.692 0.719 0.673 0.631
3733.279 0.652 0.657 0.668 0.695 0.715 0.739 0.596 0.559 0.627 0.562
3752.572 0.54 0.659 0.76 0.643 0.498 0.502 0.592 0.662 0.696 0.644
3771.866 0.6 0.704 0.734 0.66 0.703 0.779 0.805 0.778 0.73 0.775
3791.159 0.822 0.789 0.684 0.7 0.764 0.7 0.686 0.736 0.766 0.696
3810.452 0.631 0.626 0.638 0.572 0.559 0.634 0.59 0.554 0.588 0.599
3829.746 0.601 0.557 0.544 0.601 0.534 0.433 0.426 0.578 0.72 0.731
3849.039 0.679 0.606 0.562 0.52 0.538 0.565 0.604 0.587 0.603 0.525
3868.333 0.375 0.41 0.455 0.381 0.43 0.593 0.716 0.702 0.596 0.572
3887.626 0.549 0.504 0.556 0.579 0.488 0.518 0.633 0.701 0.662 0.611
3906.920 0.588 0.603 0.563 0.522 0.612 0.595 0.49 0.555 0.586 0.496
3926.213 0.555 0.644 0.574 0.609 0.657 0.589 0.594 0.662 0.643 0.631
3945.506 0.678 0.64 0.629 0.684 0.674 0.659 0.78 0.779 0.728 0.776
3964.800 0.758 0.715 0.697 0.721 0.765 0.702 0.658 0.735 0.701 0.595
3984.093 0.628 0.701 0.737 0.783 0.784 0.722 0.724 0.825 0.872
##END=
