##TITLE=5-Bromo-1-indanone
##JCAMP-DX=4.24
##DATA TYPE=INFRARED SPECTRUM
##ORIGIN=EPA-IR VAPOR PHASE LIBRARY
##OWNER=SRD/NIST
Collection (C) 2018 copyright by the U.S. Secretary of Commerce
on behalf of the United States of America. All rights reserved.
##CAS REGISTRY NO=34598-49-7
##MOLFORM=C 9 H 7 Br O
##$NIST SOURCE=MSDC-IR
##STATE=gas
##XUNITS=1/CM
##YUNITS=ABSORBANCE
##XFACTOR=1.
##YFACTOR=0.001
##DELTAX=1.92898
##FIRSTX=549.8
##LASTX=4000.7
##FIRSTY=3.761
##MAXX=4000.7
##MINX=549.759
##MAXY=0.261991
##MINY=0
##NPOINTS=1790
##XYDATA=(X++(Y..Y))
549.759 3.761 4.511 4.961 4.571 4.051 4.941 5.671 5.161 5.361 6.521
569.049 6.991 6.061 5.551 5.361 4.981 4.941 4.401 3.871 4.191 4.411
588.339 4.451 3.961 3.571 3.421 3.571 3.431 2.961 2.541 2.251 2.301
607.628 2.061 1.971 1.941 1.6347 0.9678 1.0621 1.6659 0.9839 0.8949 1.2126
626.918 1.1111 1.3672 1.422 0.9344 0.9495 1.0626 1.1743 1.6714 1.5409 1.3862
646.208 1.6209 1.971 1.4452 0.8913 1.2222 1.4451 1.1211 0.877 0.8361 1.3252
665.498 2.191 2.261 1.5179 1.0156 2.001 2.491 2.391 2.981 3.071 3.151
684.787 3.121 2.971 3.111 3.061 2.401 2.031 2.251 1.971 1.4941 1.2931
704.077 1.5575 1.2025 0.8324 1.2345 1.3653 1.2618 1.3633 1.4784 1.376 1.3193
723.367 2.001 2.761 3.021 4.341 5.701 6.661 7.801 8.471 8.471 8.491
742.657 8.051 6.441 4.441 3.131 2.651 2.271 1.6004 1.3914 1.6541 1.5954
761.947 1.4745 1.3537 1.3509 1.5546 1.951 1.871 1.891 1.881 1.951 2.351
781.236 2.281 2.461 3.091 3.201 3.121 3.951 4.981 6.151 7.641 9.141
800.526 10.761 12.391 13.631 15.571 18.451 20.341 20.241 19.491 19.291 18.741
819.816 18.261 17.611 16.981 17.101 17.051 17.131 16.801 15.551 14.461 13.471
839.106 13.321 14.341 16.231 19.871 26.111 35.071 44.051 49.051 49.651 48.891
858.395 47.821 41.271 29.281 19.031 14.051 12.521 12.031 12.011 11.681 10.581
877.685 9.281 8.361 7.571 6.781 5.971 5.041 4.101 3.431 3.051 3.031
896.975 2.611 2.331 2.631 2.621 2.311 2.221 2.501 2.861 2.781 2.531
916.265 2.641 2.751 2.621 2.231 2.321 2.671 2.751 2.611 2.741 2.571
935.555 2.061 1.841 1.4327 1.5734 1.981 1.981 2.151 2.121 1.961 1.851
954.844 1.771 1.811 1.931 2.281 1.941 1.851 2.571 2.581 2.141 2.201
974.134 2.351 2.501 2.561 3.001 3.621 3.811 3.601 3.381 3.211 3.081
993.424 3.101 3.591 4.691 5.291 5.951 6.601 7.591 9.331 11.031 13.371
1012.714 16.371 20.881 26.201 30.771 34.531 35.181 34.431 33.231 30.541 26.581
1032.003 21.791 17.831 14.461 12.291 12.351 13.431 14.501 16.891 20.341 24.571
1051.293 28.011 29.661 30.931 31.171 29.171 26.311 22.341 16.921 13.251 11.781
1070.583 9.831 6.821 5.761 5.771 4.571 3.261 3.221 3.731 3.391 3.971
1089.873 5.361 5.231 5.671 7.191 6.591 6.321 6.971 6.661 7.431 7.481
1109.163 6.471 6.161 5.391 5.491 6.791 7.341 6.271 5.381 5.311 4.321
1128.452 3.891 3.821 3.131 2.861 2.591 2.281 2.651 2.711 1.851 1.0025
1147.742 1.851 2.381 2.741 3.801 4.541 7.031 10.271 11.751 12.011 12.001
1167.032 12.101 10.671 7.521 5.081 4.231 4.641 5.641 6.361 6.591 8.741
1186.322 14.391 21.551 29.781 37.471 41.061 41.371 40.081 36.391 29.351 19.401
1205.611 9.901 4.931 3.711 3.791 2.841 2.651 4.061 4.761 5.461 5.571
1224.901 5.571 7.451 9.441 11.251 13.491 15.721 18.121 19.071 19.441 19.551
1244.191 18.101 16.411 15.231 14.191 14.041 14.951 17.151 19.211 20.301 20.761
1263.481 20.201 18.581 15.721 12.641 10.451 9.391 8.441 8.351 9.001 9.111
1282.771 9.331 9.931 10.551 11.841 13.321 15.441 18.881 23.831 30.521 37.831
1302.060 44.781 50.541 54.191 55.111 53.131 48.151 40.961 32.931 25.091 18.201
1321.350 13.151 9.911 7.791 6.501 5.741 5.211 4.601 4.151 3.841 3.791
1340.640 3.591 3.151 3.181 3.251 3.141 3.151 3.191 3.211 3.301 3.361
1359.930 3.291 3.341 3.431 3.371 3.361 3.401 3.551 3.561 3.601 3.861
1379.219 3.961 4.051 4.331 4.691 5.021 5.251 5.511 5.821 6.371 6.931
1398.509 7.531 8.141 8.831 9.671 10.811 12.091 13.041 13.841 14.281 14.151
1417.799 13.921 13.291 12.051 10.701 9.401 8.401 7.891 7.791 7.971 8.281
1437.089 8.821 9.771 10.731 11.511 11.951 11.811 11.531 11.461 11.331 10.691
1456.378 10.101 9.761 9.771 10.021 10.071 9.951 9.401 8.621 7.781 6.641
1475.668 5.411 4.381 3.661 3.141 2.681 2.291 2.041 2.091 2.231 2.091
1494.958 2.151 2.221 2.331 2.431 2.161 2.101 2.441 2.321 2.111 2.231
1514.248 2.271 2.221 1.991 1.991 1.971 2.141 2.441 2.321 2.311 2.451
1533.538 2.521 2.381 2.531 3.011 3.331 3.721 4.301 4.781 5.471 6.701
1552.827 8.051 9.931 12.351 15.321 18.661 22.091 25.841 29.581 32.861 35.741
1572.117 38.201 40.431 42.971 46.241 50.121 54.951 60.841 67.091 73.331 79.151
1591.407 84.691 88.831 90.191 88.231 82.671 74.671 64.641 52.951 40.951 30.331
1610.697 22.451 16.921 13.661 11.641 9.961 8.831 7.901 7.441 7.091 6.741
1629.986 6.641 6.511 6.481 6.501 6.381 6.321 6.261 6.171 6.141 5.951
1649.276 5.591 5.221 5.101 4.861 4.571 4.421 4.151 3.901 3.711 3.691
1668.566 3.641 3.601 3.851 4.091 4.051 4.251 4.671 5.101 5.691 6.121
1687.856 6.671 7.451 8.461 9.681 10.891 11.531 12.031 12.701 13.221 13.691
1707.146 14.161 14.831 15.751 17.421 20.171 23.951 29.221 35.731 44.671 57.101
1726.435 73.311 94.741 123.321 157.631 196.941 231.781 253.391 261.991 260.051 248.711
1745.725 222.791 182.411 139.491 104.251 79.011 61.151 47.701 37.911 30.501 24.841
1765.015 20.771 17.631 14.951 13.001 11.431 9.901 8.811 8.171 7.711 7.151
1784.305 6.581 6.191 5.771 5.371 4.931 4.551 4.311 4.001 3.811 3.811
1803.594 3.711 3.721 3.711 3.831 3.981 3.961 3.921 3.841 3.881 4.041
1822.884 4.211 4.061 3.861 3.921 3.861 3.571 3.341 3.051 2.651 2.551
1842.174 2.591 2.641 2.551 2.311 2.271 2.261 2.161 2.011 1.991 1.901
1861.464 1.7162 1.741 1.881 1.821 1.6895 1.6971 1.6194 1.5458 1.6256 1.7196
1880.754 1.741 1.771 1.5799 1.5573 1.741 1.841 1.991 1.941 2.021 2.311
1900.043 2.261 2.261 2.511 2.641 2.751 2.811 2.841 2.761 2.551 2.261
1919.333 2.301 2.371 2.101 1.911 1.771 1.791 1.761 1.6606 1.6606 1.5649
1938.623 1.4626 1.4473 1.4059 1.1336 1.0747 1.2627 1.3892 1.5002 1.3976 1.3298
1957.913 1.3353 1.3819 1.3143 1.3537 1.4414 1.2699 1.2605 1.2777 1.1916 1.1676
1977.202 1.2842 1.3127 1.2278 1.3119 1.212 1.0703 1.0398 1.0732 1.1265 1.0107
1996.492 0.9213 0.9927 1.1432 1.053 0.9922 1.0894 1.019 0.9878 0.9899 0.9112
2015.782 0.9507 1.038 0.9366 0.74692 0.8292 1.0798 1.2301 1.1829 1.1277 1.1066
2035.072 1.1706 1.3453 1.3808 1.4925 1.5891 1.4843 1.3902 1.3551 1.3057 1.2786
2054.362 1.1717 1.1283 1.1401 1.0223 0.924 0.9579 0.9771 0.8869 0.76918 0.6303
2073.651 0.76496 0.9237 0.8831 0.7033 0.461 0.526 0.6933 0.6977 0.6908 0.78751
2092.941 0.9235 0.7653 0.569 0.76191 0.9618 1.0497 1.0876 0.73878 0.7 1.0611
2112.231 1.1236 0.885 0.80047 0.8344 0.8549 0.9438 0.9718 0.97 0.8597 0.8389
2131.521 0.77362 0.82053 0.8755 1.0365 1.14 0.9824 0.9182 0.80832 0.730984 0.8785
2150.810 0.8867 0.6605 0.53 0.598 0.61 0.6338 0.6503 0.7084 0.9559 0.916
2170.100 0.9179 1.0753 0.9883 0.76522 0.75987 0.81406 0.8327 0.79604 0.721127 0.80744
2189.390 0.8674 0.9367 0.8363 0.76686 0.958 0.9395 1.057 1.2236 1.1909 1.2848
2208.680 1.2533 1.1296 1.15 1.3608 1.4737 1.3071 1.1869 1.132 1.213 1.2741
2227.970 1.3378 1.3337 1.3625 1.2264 0.9761 1.0417 0.9873 1.1653 1.3191 1.2147
2247.259 1.0286 1.0027 1.0749 1.0411 1.2156 1.1474 1.1169 1.11 0.9334 1.1637
2266.549 1.2696 1.2044 1.2091 1.1439 1.2597 1.3777 1.3051 1.2328 1.1402 0.9768
2285.839 1.1342 1.4281 1.3356 1.1913 1.1032 1.1757 1.3067 1.1379 1.0545 1.0513
2305.129 1.1167 1.4327 1.5564 1.2775 1.1752 1.301 1.3252 1.4001 1.5226 1.4841
2324.418 1.4102 1.5473 1.58 1.468 1.5172 1.5739 1.6531 1.6135 1.5732 1.4559
2343.708 1.2495 1.328 1.3672 1.4098 1.3902 1.3382 1.39 1.2541 1.2467 1.3202
2362.998 1.181 1.1866 1.1905 1.0426 0.8625 0.931 1.1729 1.0977 0.9646 1.0646
2382.288 1.0905 1.0671 0.9947 0.9927 0.9671 0.9352 1.0932 1.0141 1.002 1.1731
2401.578 1.2735 1.191 1.0161 1.0075 0.6978 0.6857 1.143 1.2127 1.0191 0.9892
2420.867 1.1373 1.0577 0.8534 0.869 1.0837 1.0309 0.9553 0.9948 1.0971 1.1736
2440.157 1.0218 1.2095 1.246 0.9193 0.8896 0.9438 1.1131 1.1272 0.9971 1.1394
2459.447 1.2152 1.2141 1.1028 1.0887 1.0501 0.8568 1.0536 1.3263 1.2427 1.1072
2478.737 1.1975 1.3611 1.1472 0.8289 0.9555 1.1382 0.8916 0.819 0.9779 0.8974
2498.026 0.9045 1.0119 1.0707 0.993 0.8511 1.0523 1.2318 1.1384 1.1298 1.1645
2517.316 1.1152 1.1516 1.3416 1.2441 1.1844 1.2593 1.2374 1.1824 0.9824 0.965
2536.606 0.81549 0.586 0.8907 1.2486 1.3029 1.0829 1.0864 1.2667 1.344 1.4561
2555.896 1.3905 1.6496 1.821 1.4522 1.2821 1.3316 1.4482 1.4581 1.5236 1.5696
2575.186 1.5148 1.529 1.3382 1.0369 1.0834 1.2255 1.0348 1.1105 1.3773 1.1852
2594.475 1.1459 1.2831 1.3312 1.2652 1.0409 1.0473 1.1765 1.3016 1.2722 1.0967
2613.765 1.2349 1.4185 1.2975 1.3343 1.2183 0.9156 0.9064 0.9132 1.056 1.0639
2633.055 0.8646 0.9217 1.037 1.0505 1.046 0.8894 0.9532 1.2357 1.2278 1.1601
2652.345 1.1482 1.2973 1.3389 1.1814 1.1779 1.1467 0.9867 0.9953 0.9202 1.1199
2671.634 1.4349 1.2312 1.065 1.1528 1.2962 1.0882 0.9339 1.0853 1.0586 1.2836
2690.924 1.3023 1.0229 0.8703 1.0691 1.4719 1.5222 1.4654 1.3241 1.2451 1.1588
2710.214 1.0828 1.1765 1.2504 1.3625 1.4787 1.2944 1.1362 1.0495 1.1297 1.2086
2729.504 0.9097 0.905 0.9836 1.2155 1.1834 0.9376 1.0741 1.2662 1.4923 1.5243
2748.794 1.5345 1.5135 1.6425 1.801 1.6274 1.4662 1.2028 0.9494 1.0805 1.1955
2768.083 1.1874 1.0729 0.8927 1.1601 1.3956 1.395 1.1262 0.9135 0.9921 0.8836
2787.373 0.9597 1.1455 1.279 1.2076 1.1259 1.0842 0.9921 1.1086 1.0519 1.2538
2806.663 1.4309 1.1959 1.5608 1.951 1.951 2.081 2.011 1.971 2.101 2.051
2825.953 1.911 1.791 1.771 1.6107 1.6264 1.941 2.081 2.061 2.321 2.641
2845.242 2.861 3.001 2.671 2.971 3.391 3.221 3.281 3.451 3.811 4.201
2864.532 4.561 4.681 4.821 4.991 4.741 4.571 4.741 4.581 4.301 4.421
2883.822 4.411 4.101 3.541 2.901 2.531 2.471 2.351 2.151 2.001 1.971
2903.112 2.001 2.061 2.391 2.511 2.481 2.701 2.941 3.421 3.991 4.431
2922.401 4.891 5.901 7.271 8.971 11.321 13.551 16.111 18.961 21.161 23.021
2941.691 24.571 25.021 24.241 22.251 19.341 16.101 13.681 11.901 10.321 9.691
2960.981 9.401 8.791 8.211 8.361 8.751 9.301 9.241 7.891 7.091 6.751
2980.271 5.991 4.891 4.091 3.471 2.801 2.271 1.851 1.951 1.632 1.361
2999.561 1.5577 1.5493 1.781 2.291 2.021 1.6057 1.6584 1.741 1.981 1.971
3018.850 1.951 1.881 2.031 2.431 2.261 2.311 2.651 2.651 2.911 2.721
3038.140 2.581 2.901 2.711 2.691 2.591 3.021 3.311 3.001 3.251 3.231
3057.430 3.521 3.901 3.491 3.561 3.691 3.361 3.321 3.541 3.801 3.871
3076.720 4.201 4.241 4.031 3.751 3.361 3.251 3.211 2.781 2.781 2.921
3096.009 2.371 2.121 1.991 1.7079 1.4008 1.2898 1.3664 1.3114 1.2473 1.1662
3115.299 0.9534 1.0731 1.751 2.151 1.791 1.731 1.6447 1.3869 1.5013 1.372
3134.589 1.2805 1.1823 0.8252 0.9933 1.2448 1.3482 1.3175 0.996 0.77334 0.842
3153.879 1.0966 1.4563 1.5208 1.2895 1.342 1.2911 0.9488 0.8386 0.79318 0.537
3173.169 0.534 1.0094 1.3159 1.3239 1.0806 0.82048 1.0908 1.2067 1.0256 0.9415
3192.458 1.1333 0.8394 0.537 0.6527 0.6687 0.78517 0.71231 0.564 0.6608 0.724805
3211.748 0.74885 1.0059 1.1848 1.2886 0.74293 0.6351 0.904 0.873 0.8831 0.616
3231.038 0.554 0.197 0.214 0.79557 0.8435 0.6578 0.76622 0.9595 1.2469 1.0253
3250.328 1.1421 1.5 0.8657 0.6845 1.0404 0.535 0.75226 1.2792 0.9437 1.0197
3269.617 0.9452 0.528 0.424 0.492 0.564 0.576 0.509 0.584 0.513 0.357
3288.907 0.8887 1.0537 0.6743 0.65 0.725323 0.6715 0.77875 0.78073 0.612 0.71
3308.197 0.573 0.8255 0.9888 1.1067 1.1888 0.8687 0.79381 0.8236 0.7558 0.9145
3327.487 1.2119 1.0983 1.0347 1.0039 1.0873 1.7092 1.5942 1.1135 1.2644 1.4318
3346.777 1.3287 1.1463 1.0655 0.9592 0.6628 0.8747 0.9389 0.80987 0.8853 0.8819
3366.066 0.9933 0.9694 1.059 1.0951 1.0901 0.76174 0.437 0.53 0.6269 0.6507
3385.356 0.71166 0.333 0.323 0.76707 0.494 0.9217 1.4453 1.0953 0.8969 0.9231
3404.646 0.720761 0.696 1.1753 0.9511 0.402 0.41 0.8276 1.2884 1.0708 0.9764
3423.936 1.2168 1.323 1.801 1.961 1.5866 1.791 1.761 1.761 1.931 1.951
3443.225 2.631 2.681 2.491 2.501 2.931 3.551 3.731 4.171 4.441 4.421
3462.515 4.731 5.151 4.891 4.441 4.041 3.381 2.881 2.661 2.271 2.041
3481.805 1.6551 1.2068 1.3307 1.981 2.191 2.161 1.981 1.1491 1.2076 1.3866
3501.095 1.2433 1.2626 1.3791 1.5122 1.5911 1.3189 1.0531 0.9234 0.7026 0.589
3520.385 0.6566 0.843 0.9696 0.80777 0.6806 0.9356 0.604 0.491 0.6454 0.43
3539.674 0.6234 0.897 1.1922 1.3589 1.2351 1.064 0.9714 0.7475 0.506 0.507
3558.964 0.635 0.482 0.361 0.267 0.506 1.1132 1.0065 0.695 0.503 0.541
3578.254 0.6421 0.76335 0.9202 0.8885 0.8939 1.0617 0.9395 0.609 0.43 0.8459
3597.544 0.8816 0.488 0.73618 0.5 0.476 0.6527 0.7317 0.9323 0.477 0.381
3616.833 0.74292 0.6676 0.526 0.8927 1.0004 0.606 0.477 1.0966 1.2075 0.599
3636.123 0.6696 0.9865 1.0237 0.9634 1.0394 1.1525 1.128 1.0819 1.1372 1.4622
3655.413 1.6542 1.4764 0.975 0.8513 1.0425 0.8575 0.81298 0.6234 0.6645 0.962
3674.703 1.0077 1.2156 0.8647 0.546 0.517 0.57 0.613 0.536 0.8756 0.381
3693.993 0.258 0.9276 0.9161 0.8355 1.0638 0.9753 0.76624 0.9927 0.79165 0.8606
3713.282 0.8525 0.503 0.395 0.213 0.396 0.562 0.408 0.372 0.492 0.8838
3732.572 1.0728 0.80367 0.7783 0.481 0.371 0.612 0.75853 1.2238 1.1848 0.8935
3751.862 1.2384 1.3991 1.3714 0.81889 0.80135 1.0548 0.9233 1.1157 0.80675 0.881
3771.152 1.1435 1.1867 1.064 0.848 0.853 0.6586 0.487 0.407 0.6483 1.0116
3790.441 1.0227 0.77678 0.6862 0.8518 0.78455 0.9131 1.359 1.3979 1.4481 1.4886
3809.731 1.3944 1.2483 1.3262 1.5701 1.4293 1.4901 1.5814 1.082 0.80781 1.3872
3829.021 1.5958 1.527 1.1477 0.438 0.6712 1.2278 1.2519 1.0178 0.582 0.605
3848.311 0.9473 0.9818 0.901 0.73862 0.75604 0.8509 0.604 0.438 0.6712 0.528
3867.601 0.302 0.9742 1.1312 0.554 0.337 0.538 0.73674 0.615 0.9811 1.1899
3886.890 1.3167 1.4572 1.2263 1.1079 0.79669 1.0594 1.731 1.3313 0.9853 1.2692
3906.180 1.4216 1.4805 1.301 0.9756 1.0944 1.2042 1.1334 1.1038 0.9751 1.0921
3925.470 1.599 1.7034 1.5325 1.288 0.78705 0.6866 0.78365 0.935 1.0224 0.9241
3944.760 1.0272 1.3061 1.2822 0.575 0 0.619 1.1243 0.9786 0.74903 0.608
3964.049 0.9371 0.9877 0.6455 0.497 0.403 0.78157 1.6213 1.6902 1.0359 1.0134
3983.339 0.9386 0.9166 1.1218 0.9246 0.9848 1.2626 0.905 0.6307 1.2293 1.2513
##END=
