##TITLE=Dibenzyl carbonate
##JCAMP-DX=4.24
##DATA TYPE=INFRARED SPECTRUM
##ORIGIN=EPA-IR VAPOR PHASE LIBRARY
##OWNER=SRD/NIST
Collection (C) 2018 copyright by the U.S. Secretary of Commerce
on behalf of the United States of America. All rights reserved.
##CAS REGISTRY NO=3459-92-5
##MOLFORM=C 15 H 14 O 3
##$NIST SOURCE=MSDC-IR
##STATE=gas
##XUNITS=1/CM
##YUNITS=ABSORBANCE
##XFACTOR=1.
##YFACTOR=0.001
##DELTAX=1.929
##FIRSTX=549.8
##LASTX=4000.8
##FIRSTY=6.12
##MAXX=4000.75
##MINX=549.766
##MAXY=0.57805
##MINY=0
##NPOINTS=1790
##XYDATA=(X++(Y..Y))
549.766 6.12 6.1 6.47 6.98 7.06 7.46 8.02 8.38 8.79 9.62
569.056 10.58 11.56 12.42 12.79 12.79 12.32 11.4 10.55 10.03 9.72
588.346 9.45 9.47 9.45 9.24 9.11 9.03 8.87 8.9 8.86 8.6
607.636 8.56 8.51 8.28 7.93 7.62 7.32 6.96 6.52 6.08 5.63
626.926 5.07 4.83 4.95 4.96 4.78 4.63 4.63 4.65 4.68 4.78
646.216 4.77 4.8 4.99 5.26 5.6 5.97 6.43 7.05 7.95 8.94
665.506 10.37 12.5 14.27 16.02 18.47 21.21 24.11 27.21 30.58 34.11
684.796 38.06 42.49 47.49 52.66 56.7 58.74 58.66 56.72 53.84 50.97
704.086 48.37 46.07 43.88 41.93 40.43 39.15 38.32 37.84 37.73 38.21
723.376 38.88 39.8 40.92 42.06 43.41 44.92 46.52 48.25 50.16 52.02
742.666 53.31 53.62 52.53 49.82 46.11 41.76 37.1 32.53 28.17 24.37
761.956 21.13 18.31 15.97 14.19 13.04 12.31 11.91 12 12.48 13.09
781.246 14.01 15.15 16.39 17.73 18.77 19.48 19.83 19.48 18.51 17.15
800.536 15.69 14.36 13.25 12.49 12.07 11.98 12.1 12.45 12.93 13.28
819.826 13.53 13.64 13.45 12.98 12.22 11.35 10.55 9.84 9.21 8.67
839.116 8.17 7.72 7.4 7.06 6.77 6.54 6.37 6.16 5.97 5.91
858.406 5.89 5.92 5.97 6.07 6.31 6.62 6.97 7.46 7.97 8.5
877.696 9.12 9.81 10.62 11.52 12.44 13.37 14.49 15.79 17.22 18.98
896.986 21.08 23.47 26.21 29.12 31.83 33.79 34.75 34.83 34.1 32.85
916.276 31.5 30.4 29.73 29.57 30.12 31.3 33 35.32 38.24 41.83
935.566 45.92 50.45 55.62 61.24 67.36 73.82 80.17 86.1 91.11 94.64
954.856 96.39 96.24 94.24 90.63 85.89 80.46 74.69 68.88 63.23 57.85
974.146 52.76 48.07 43.93 40.25 37.13 34.55 32.3 30.5 29.12 27.99
993.436 27.16 26.82 26.99 27.45 27.51 27.17 26.69 25.64 24.18 22.97
1012.726 22.14 21.42 20.64 19.87 19.3 19.01 18.88 18.78 18.39 17.58
1032.016 16.49 14.97 13.19 11.71 10.67 9.98 9.52 9.24 9.17 9.28
1051.306 9.51 9.85 10.25 10.72 11.35 12.15 13.03 13.86 14.78 15.76
1070.596 16.69 17.5 18.16 18.63 18.91 18.96 18.83 18.55 18.13 17.66
1089.886 17.1 16.38 15.71 15.11 14.49 14.03 13.57 13.09 12.75 12.32
1109.176 11.82 11.34 10.85 10.35 9.79 9.29 8.91 8.51 8.21 7.96
1128.467 7.69 7.64 7.69 7.64 7.62 7.78 8.03 8.22 8.52 8.95
1147.757 9.4 9.87 10.48 11.21 11.95 12.73 13.64 14.67 15.93 17.55
1167.047 19.53 21.91 24.96 29.02 34.16 40.32 46.81 52.04 55.11 56.39
1186.337 56.45 56.23 57.64 61.57 67.46 74.46 81.57 87.96 93.41 97.95
1205.627 101.83 105.49 109.49 114.42 120.54 128.02 137.24 148.76 163.21 181.41
1224.917 203.85 230.95 262.98 299.6 340.29 384.03 429.32 473.93 514.62 547.5
1244.207 569.1 578.05 575.43 564.36 549.09 533.72 520.88 510.68 501.07 488.79
1263.497 470.71 444.84 411.14 371.81 329.85 288.77 251.2 218.26 190.02 165.83
1282.787 145.06 127.17 111.67 98.26 86.7 76.74 68.26 61 54.8 49.52
1302.077 45.06 41.25 38.03 35.33 32.94 30.85 29.06 27.42 25.88 24.45
1321.367 23.09 21.84 20.72 19.74 18.92 18.24 17.69 17.24 16.86 16.48
1340.657 16.05 15.68 15.47 15.45 15.61 15.99 16.74 17.88 19.39 21.28
1359.947 23.5 25.9 28.33 30.55 32.44 33.95 35.29 36.75 38.65 41.59
1379.237 46.24 52.8 60.41 66.87 70.01 68.94 63.9 55.77 46.14 37.06
1398.527 29.76 24.32 20.57 17.89 15.92 14.44 13.38 12.56 11.97 11.6
1417.817 11.4 11.22 11.18 11.36 11.61 11.97 12.49 13.12 13.95 14.92
1437.107 16.09 17.37 18.95 20.89 23.12 25.73 28.68 31.75 34.77 37.31
1456.397 39.17 39.9 39.28 37.55 34.79 31.5 28.17 24.96 22.15 19.67
1475.687 17.7 16.12 15.02 14.37 14.08 14.24 14.91 16.09 17.88 20.14
1494.977 22.48 24 23.95 22.59 20.15 16.78 13.35 10.91 9.33 8.16
1514.267 7.4 6.89 6.46 6.2 6.03 5.9 5.84 5.74 5.61 5.54
1533.557 5.5 5.46 5.44 5.42 5.37 5.34 5.29 5.29 5.3 5.34
1552.847 5.47 5.61 5.73 5.86 5.97 6.04 6.17 6.34 6.53 6.7
1572.137 6.91 7.17 7.42 7.55 7.62 7.73 7.79 7.8 7.76 7.66
1591.427 7.53 7.38 7.23 7.08 6.94 6.77 6.67 6.61 6.49 6.31
1610.717 6.05 5.71 5.4 5.1 4.82 4.63 4.47 4.36 4.31 4.27
1630.007 4.22 4.2 4.24 4.3 4.31 4.28 4.27 4.31 4.39 4.45
1649.297 4.46 4.52 4.62 4.6 4.59 4.63 4.71 4.78 4.86 4.96
1668.587 5.06 5.16 5.31 5.47 5.61 5.77 5.96 6.21 6.52 6.77
1687.877 7.03 7.33 7.73 8.16 8.63 9.09 9.55 10.08 10.64 11.29
1707.167 11.96 12.65 13.38 14.14 14.93 15.77 16.59 17.4 18.3 19.35
1726.457 20.64 22.19 24.07 26.41 29.36 32.69 36.7 41.82 47.98 55.59
1745.747 64.9 76.43 90.51 107.57 126.62 146.36 165.49 180.78 190.2 192.67
1765.037 187.86 176.61 160.66 143.19 126.04 112.17 102.8 97.91 96.64 97.18
1784.327 97.45 95.77 91.31 83.89 73.74 62.24 51.41 42.16 34.94 29.51
1803.617 25.55 22.56 20.21 18.32 16.82 15.64 14.63 13.75 12.99 12.28
1822.907 11.64 11.04 10.46 9.88 9.37 8.93 8.53 8.1 7.69 7.39
1842.197 7.18 6.95 6.71 6.48 6.27 6.11 5.94 5.79 5.71 5.63
1861.487 5.54 5.42 5.35 5.33 5.28 5.24 5.21 5.19 5.16 5.03
1880.777 4.89 4.77 4.6 4.35 4.12 3.92 3.76 3.58 3.38 3.25
1900.067 3.12 3 2.96 2.97 2.95 2.94 2.98 3.03 3.11 3.22
1919.357 3.38 3.51 3.69 3.86 4.01 4.2 4.39 4.58 4.78 4.94
1938.647 5.06 5.23 5.47 5.63 5.72 5.85 5.99 6.06 6.08 6.03
1957.937 5.81 5.42 4.96 4.44 3.95 3.54 3.17 2.87 2.69 2.55
1977.227 2.44 2.36 2.3 2.2555 2.2073 2.1895 2.1586 2.112 2.0608 2.0385
1996.517 1.9951 1.9807 2.0085 1.9772 1.9528 1.9737 1.9693 1.9059 1.8911 1.9229
2015.807 1.9521 1.9617 1.9817 2.0148 2.0053 2.0216 2.0403 2.0472 2.0643 2.0673
2035.097 2.1139 2.1426 2.1396 2.1375 2.1352 2.1495 2.1624 2.1573 2.1462 2.1551
2054.387 2.1937 2.2091 2.2099 2.2163 2.2245 2.2105 2.1794 2.1861 2.1913 2.1505
2073.677 2.1162 2.1114 2.0827 2.0725 2.0666 2.0712 2.0632 1.9993 1.9943 1.9623
2092.967 1.9285 1.9291 1.9098 1.8934 1.9 1.9276 1.922 1.8905 1.8823 1.9104
2112.257 1.9321 1.9402 1.975 1.9993 1.9983 2.06 2.1365 2.1758 2.2311 2.2578
2131.547 2.2382 2.266 2.29 2.2748 2.29 2.31 2.31 2.35 2.39 2.41
2150.837 2.4 2.38 2.37 2.39 2.43 2.45 2.43 2.38 2.38 2.4
2170.127 2.37 2.35 2.33 2.32 2.36 2.38 2.38 2.39 2.42 2.39
2189.417 2.35 2.37 2.34 2.2594 2.2432 2.2576 2.2322 2.2064 2.1752 2.1749
2208.707 2.1873 2.1567 2.1304 2.1443 2.1129 2.0475 2.0155 2 1.9395 1.9079
2227.997 1.9007 1.9005 1.9183 1.9331 1.9613 1.9569 1.9354 1.9331 1.9252 1.9342
2247.287 1.9321 1.952 1.9962 1.9974 1.9752 1.9393 1.9366 1.9681 1.9512 1.9605
2266.577 1.9999 1.9951 1.9468 1.917 1.8799 1.8899 1.9638 1.9766 1.9763 1.9854
2285.868 2.0002 2.006 2.0378 2.052 2.0575 2.1208 2.1388 2.2018 2.34 2.41
2305.158 2.5 2.65 2.78 2.96 3.14 3.26 3.38 3.47 3.47 3.43
2324.448 3.4 3.37 3.37 3.42 3.43 3.41 3.41 3.42 3.41 3.39
2343.738 3.38 3.3 3.18 3.17 3.29 3.44 3.56 3.6 3.57 3.56
2363.028 3.57 3.5 3.39 3.27 3.09 2.93 2.76 2.53 2.3 2.116
2382.318 1.9085 1.7269 1.6055 1.509 1.4554 1.3909 1.33517 1.30807 1.2577 1.2511
2401.608 1.2437 1.2441 1.2576 1.2588 1.2296 1.2002 1.185 1.165 1.134 1.131
2420.898 1.155 1.138 1.146 1.127 1.095 1.091 1.091 1.077 1.093 1.16
2440.188 1.2059 1.171 1.135 1.166 1.2374 1.27863 1.27779 1.29429 1.31117 1.30458
2459.478 1.31428 1.3407 1.36722 1.35996 1.3914 1.4467 1.458 1.4644 1.4221 1.4396
2478.768 1.4544 1.4121 1.3905 1.4455 1.4781 1.4284 1.4123 1.4164 1.4066 1.36281
2498.058 1.33199 1.33332 1.27868 1.2152 1.2094 1.1923 1.14 1.108 1.104 1.107
2517.348 1.026 0.956 0.968 0.938 0.888 0.858 0.853 0.851 0.786 0.715
2536.638 0.692 0.666 0.675 0.712 0.726 0.664 0.632 0.631 0.657 0.668
2555.928 0.651 0.681 0.668 0.618 0.616 0.589 0.573 0.595 0.556 0.561
2575.218 0.594 0.625 0.621 0.606 0.651 0.641 0.563 0.549 0.528 0.518
2594.508 0.555 0.583 0.605 0.639 0.696 0.751 0.764 0.771 0.797 0.806
2613.798 0.781 0.801 0.806 0.713 0.687 0.735 0.785 0.773 0.773 0.812
2633.088 0.792 0.839 0.891 0.887 0.894 0.84 0.788 0.836 0.881 0.833
2652.378 0.767 0.772 0.768 0.742 0.792 0.805 0.744 0.739 0.764 0.748
2671.668 0.711 0.686 0.702 0.689 0.666 0.64 0.653 0.67 0.653 0.667
2690.958 0.673 0.645 0.672 0.705 0.714 0.719 0.7 0.724 0.71 0.666
2710.248 0.663 0.702 0.743 0.733 0.738 0.77 0.778 0.794 0.798 0.751
2729.538 0.692 0.72 0.749 0.73 0.697 0.706 0.728 0.73 0.712 0.688
2748.828 0.669 0.592 0.606 0.625 0.597 0.58 0.544 0.526 0.598 0.608
2768.118 0.607 0.609 0.523 0.547 0.616 0.583 0.585 0.665 0.708 0.729
2787.408 0.798 0.873 0.89 0.883 0.843 0.87 0.923 0.985 1.034 1.071
2806.698 1.15 1.2184 1.3514 1.4406 1.5242 1.6291 1.6835 1.7777 1.8172 1.8268
2825.988 1.9102 1.9572 1.9676 2.0128 2.0203 2.0538 2.1298 2.1426 2.1376 2.0962
2845.278 2.0442 2.0769 2.0922 2.0851 2.0945 2.1464 2.183 2.2121 2.31 2.42
2864.568 2.55 2.7 2.83 2.96 3.27 3.57 3.85 4.21 4.62 5.14
2883.858 5.73 6.39 6.99 7.5 8.05 8.58 8.98 9.22 9.36 9.39
2903.148 9.25 9.03 8.69 8.31 7.86 7.43 7.11 6.8 6.51 6.36
2922.438 6.24 6.16 6.32 6.54 6.74 7.03 7.4 8.04 8.83 9.68
2941.728 10.78 12.16 13.65 15.39 17.48 19.84 22.24 24.65 27.06 29.02
2961.018 30.31 30.72 30.13 28.8 26.92 24.75 22.5 20.36 18.49 16.9
2980.308 15.63 14.61 13.77 13.09 12.52 11.88 11.31 10.9 10.41 9.98
2999.598 9.69 9.47 9.38 9.38 9.55 9.94 10.5 11.2 12.07 13.19
3018.888 14.58 16.3 18.31 20.47 22.86 25.5 28.24 31.02 33.57 35.59
3038.178 36.99 37.62 37.33 36.16 34.38 32.34 30.32 28.46 27.15 26.55
3057.468 26.51 27.12 28.51 30.74 33.75 37.23 40.72 43.31 44.13 43.01
3076.758 40.28 36.38 32.06 28.38 25.65 23.58 22 20.76 19.69 18.62
3096.048 17.65 16.72 15.72 14.77 13.86 12.88 11.9 10.94 9.99 9.17
3115.338 8.36 7.44 6.5 5.62 4.67 3.84 3.15 2.55 2.1651 1.8197
3134.628 1.5043 1.32007 1.2204 1.097 0.936 0.906 0.927 0.903 0.899 0.882
3153.918 0.838 0.806 0.858 0.814 0.736 0.835 0.961 0.894 0.815 0.818
3173.208 0.764 0.751 0.718 0.596 0.545 0.473 0.452 0.44 0.347 0.28
3192.498 0.18 0.22 0.28 0.26 0.26 0.2 0.07 0.08 0.22 0.27
3211.788 0.21 0.23 0.27 0.24 0.21 0.18 0.23 0.2 0.12 0.11
3231.078 0.16 0.21 0.19 0.16 0.06 0.02 0.05 0.03 0.11 0.16
3250.368 0.1 0.14 0.12 0.07 0.18 0.12 0.08 0.08 0.05 0.02
3269.658 0.05 0.14 0.07 0.07 0.12 0.11 0.01 0 0.16 0.2
3288.948 0.22 0.17 0.15 0.15 0.13 0.11 0.12 0.21 0.16 0.14
3308.238 0.18 0.21 0.25 0.288 0.284 0.16 0.07 0.13 0.18 0.22
3327.528 0.19 0.08 0.14 0.26 0.22 0.17 0.21 0.19 0.2 0.24
3346.818 0.21 0.25 0.25 0.2 0.24 0.23 0.26 0.371 0.356 0.25
3366.108 0.25 0.26 0.25 0.26 0.22 0.24 0.25 0.282 0.312 0.298
3385.398 0.281 0.2 0.27 0.414 0.353 0.307 0.26 0.23 0.314 0.316
3404.688 0.297 0.367 0.27 0.17 0.15 0.22 0.396 0.391 0.365 0.354
3423.978 0.314 0.321 0.309 0.386 0.379 0.32 0.367 0.298 0.24 0.21
3443.269 0.25 0.363 0.372 0.416 0.397 0.344 0.311 0.285 0.432 0.485
3462.559 0.44 0.496 0.487 0.412 0.435 0.462 0.472 0.481 0.557 0.611
3481.849 0.664 0.786 0.722 0.677 0.781 0.871 0.964 0.992 0.997 1.066
3501.139 1.11 1.136 1.167 1.209 1.1891 1.124 1.033 0.971 0.957 0.964
3520.429 0.904 0.848 0.839 0.814 0.791 0.723 0.711 0.647 0.602 0.674
3539.719 0.714 0.668 0.704 0.773 0.849 0.824 0.776 0.817 0.767 0.747
3559.009 0.725 0.64 0.645 0.667 0.675 0.576 0.447 0.478 0.561 0.545
3578.299 0.474 0.426 0.403 0.486 0.533 0.448 0.45 0.465 0.476 0.562
3597.589 0.579 0.562 0.492 0.481 0.532 0.545 0.511 0.4 0.474 0.571
3616.879 0.619 0.593 0.547 0.618 0.579 0.596 0.679 0.661 0.639 0.668
3636.169 0.699 0.672 0.666 0.716 0.763 0.806 0.864 0.801 0.745 0.859
3655.459 0.887 0.887 0.935 0.908 0.859 0.889 0.834 0.8 0.796 0.746
3674.749 0.771 0.724 0.654 0.694 0.745 0.657 0.675 0.77 0.754 0.662
3694.039 0.663 0.773 0.743 0.689 0.733 0.696 0.647 0.7 0.723 0.715
3713.329 0.702 0.681 0.655 0.654 0.583 0.639 0.618 0.539 0.578 0.596
3732.619 0.62 0.629 0.621 0.562 0.571 0.658 0.724 0.706 0.676 0.665
3751.909 0.685 0.598 0.536 0.585 0.586 0.505 0.484 0.497 0.463 0.485
3771.199 0.522 0.509 0.51 0.431 0.423 0.451 0.343 0.403 0.53 0.495
3790.489 0.497 0.483 0.532 0.624 0.594 0.656 0.59 0.532 0.586 0.461
3809.779 0.432 0.586 0.643 0.736 0.704 0.671 0.747 0.681 0.685 0.703
3829.069 0.647 0.623 0.621 0.61 0.66 0.612 0.514 0.565 0.668 0.716
3848.359 0.751 0.765 0.735 0.709 0.726 0.733 0.68 0.609 0.655 0.735
3867.649 0.776 0.897 0.882 0.755 0.667 0.744 0.815 0.727 0.774 0.916
3886.939 0.907 0.851 0.891 0.856 0.753 0.817 0.849 0.795 0.795 0.761
3906.229 0.663 0.677 0.742 0.728 0.798 0.863 0.761 0.808 0.893 0.837
3925.519 0.807 0.821 0.844 0.815 0.745 0.673 0.679 0.714 0.757 0.749
3944.809 0.67 0.752 0.808 0.678 0.669 0.729 0.752 0.792 0.768 0.659
3964.099 0.597 0.607 0.655 0.635 0.661 0.724 0.634 0.646 0.694 0.69
3983.389 0.605 0.585 0.652 0.668 0.71 0.726 0.712 0.682 0.813 0.851
##END=
