##TITLE=2-Trifluoromethylbenzyl alcohol
##JCAMP-DX=4.24
##DATA TYPE=INFRARED SPECTRUM
##ORIGIN=EPA-IR VAPOR PHASE LIBRARY
##OWNER=SRD/NIST
Collection (C) 2018 copyright by the U.S. Secretary of Commerce
on behalf of the United States of America. All rights reserved.
##CAS REGISTRY NO=346-06-5
##MOLFORM=C 8 H 7 F 3 O
##$NIST SOURCE=MSDC-IR
##STATE=gas
##XUNITS=1/CM
##YUNITS=ABSORBANCE
##XFACTOR=1.
##YFACTOR=0.001
##DELTAX=1.92898
##FIRSTX=549.8
##LASTX=4000.7
##FIRSTY=2.887
##MAXX=4000.7
##MINX=549.759
##MAXY=0.450517
##MINY=0
##NPOINTS=1790
##XYDATA=(X++(Y..Y))
549.759 2.887 2.977 2.997 2.907 2.947 3.337 3.257 2.697 2.937 3.467
569.049 3.877 4.117 4.027 4.057 4.447 5.087 6.317 7.587 8.007 7.777
588.339 8.037 8.667 9.607 10.957 12.157 13.407 14.077 14.457 14.557 14.427
607.628 14.147 13.457 12.437 11.667 10.917 9.367 8.257 7.727 7.347 6.877
626.918 6.127 5.787 5.367 5.007 5.167 5.797 6.737 8.037 10.587 14.617
646.208 19.327 23.817 27.087 29.367 31.477 32.137 31.287 29.897 27.287 23.147
665.498 18.237 14.037 10.637 8.277 7.057 5.917 5.297 5.177 5.107 4.647
684.787 4.487 4.387 4.317 4.197 4.077 4.357 4.627 4.987 5.047 5.297
704.077 5.867 6.447 7.197 8.147 9.107 10.067 11.427 13.107 14.667 16.517
723.367 18.537 20.227 21.827 23.117 23.757 24.237 24.857 25.177 25.357 25.967
742.657 27.027 28.867 31.607 36.147 42.907 50.827 59.227 66.707 73.327 80.917
761.947 93.517 110.567 115.077 96.537 75.237 64.317 57.267 49.567 40.087 30.607
781.236 22.377 16.157 12.507 10.167 8.627 7.447 6.187 5.517 5.177 5.257
800.526 5.297 5.217 5.387 5.087 5.187 5.397 5.567 5.797 5.677 5.847
819.816 6.167 6.287 6.217 6.337 6.487 6.137 5.527 5.327 5.327 5.157
839.106 4.867 4.587 4.397 4.197 3.877 3.737 3.957 4.387 4.407 4.227
858.395 4.377 4.507 4.787 4.897 4.657 4.837 5.257 5.387 5.477 5.517
877.685 5.407 5.207 5.027 4.897 4.797 4.667 4.597 4.407 4.307 4.297
896.975 4.537 4.697 4.547 4.547 4.937 5.007 5.007 5.707 6.027 6.257
916.265 6.877 7.147 7.217 7.607 8.017 8.547 9.107 9.767 10.807 12.077
935.555 13.507 14.707 16.127 17.917 19.747 21.827 23.767 25.547 26.807 27.107
954.844 26.457 25.267 24.457 23.707 22.667 21.707 20.707 19.657 18.607 17.837
974.134 17.567 17.327 17.017 17.317 18.187 18.907 19.707 20.917 21.977 22.957
993.424 24.507 26.957 29.637 32.477 35.657 39.627 44.427 49.317 55.127 61.547
1012.714 68.887 77.127 86.157 96.097 106.267 116.847 127.057 135.987 145.637 154.687
1032.003 161.107 165.487 167.137 165.567 160.307 152.627 143.417 133.397 123.277 113.767
1051.293 105.347 99.287 93.897 90.477 88.697 86.637 84.887 81.127 76.087 70.327
1070.583 62.647 52.647 42.977 36.047 31.697 29.877 29.627 29.637 30.017 31.717
1089.873 33.607 35.467 37.987 41.437 46.787 52.317 58.217 66.587 75.617 85.137
1109.163 98.217 113.577 130.297 148.317 169.537 194.477 221.427 250.147 278.927 306.337
1128.452 332.527 359.727 388.237 415.767 434.067 432.367 408.457 377.397 349.107 318.377
1147.742 288.817 263.227 240.587 226.047 223.047 230.627 244.727 263.077 282.897 300.107
1167.032 313.017 318.717 314.387 301.697 283.817 262.407 236.407 208.587 179.887 151.367
1186.322 127.357 106.737 89.247 76.267 66.707 58.837 51.637 45.227 41.657 38.817
1205.611 35.137 31.627 29.387 28.227 27.007 25.787 24.417 23.837 22.787 21.607
1224.901 21.577 21.127 20.147 20.337 20.497 20.727 21.487 21.657 21.267 21.857
1244.191 22.157 22.637 23.917 25.157 26.627 27.677 29.317 31.897 34.457 37.237
1263.481 40.417 43.547 47.567 52.357 57.477 63.077 68.777 75.397 82.247 89.537
1282.771 97.427 105.097 112.777 121.007 129.607 139.147 151.297 167.317 188.737 217.377
1302.060 254.327 297.447 342.967 385.697 419.787 441.547 450.517 445.137 422.907 385.497
1321.350 336.167 277.077 213.187 154.167 108.237 77.467 58.417 46.877 39.757 35.177
1340.640 32.137 30.057 28.567 27.697 27.187 26.777 26.677 26.917 27.197 27.377
1359.930 27.837 28.307 28.787 29.387 29.887 30.517 31.117 31.677 32.127 32.367
1379.219 32.547 32.587 32.157 31.487 30.747 29.767 28.477 26.987 25.437 23.807
1398.509 22.277 20.857 19.437 18.187 17.287 16.477 15.517 14.777 14.107 13.427
1417.799 13.047 12.707 12.327 12.117 11.917 11.927 12.127 12.227 12.647 13.537
1437.089 14.657 16.007 17.907 20.247 22.887 25.717 28.427 30.427 31.767 32.417
1456.378 32.167 31.337 29.877 27.757 24.967 21.767 18.787 16.257 14.387 12.997
1475.668 12.067 11.497 11.117 10.997 10.997 10.907 10.727 10.667 10.767 10.477
1494.958 9.997 9.557 8.967 8.277 7.407 6.557 5.937 5.367 4.767 4.237
1514.248 3.947 3.737 3.647 3.607 3.437 3.297 3.267 3.307 3.247 3.127
1533.538 3.037 2.877 2.717 2.757 2.627 2.337 2.307 2.347 2.367 2.447
1552.827 2.457 2.477 2.507 2.587 2.677 2.787 3.077 3.487 4.017 4.687
1572.117 5.397 6.057 6.927 7.837 8.427 9.057 9.777 10.177 10.367 10.457
1591.407 10.297 10.357 10.507 10.557 11.067 11.887 12.557 12.827 12.937 12.957
1610.697 12.567 11.717 10.767 9.677 8.687 7.837 6.997 6.577 6.257 6.147
1629.986 6.367 6.467 6.567 6.787 6.787 6.727 6.717 6.477 6.227 5.957
1649.276 5.477 5.077 4.737 4.187 3.687 3.407 3.137 2.927 2.697 2.427
1668.566 2.307 2.167 1.997 1.877 1.827 1.847 1.807 1.877 1.797 1.637
1687.856 1.647 1.697 1.877 1.897 1.717 1.827 2.007 2.067 2.277 2.537
1707.146 2.677 2.807 2.867 3.077 2.997 2.787 2.887 2.817 2.667 2.427
1726.435 2.357 2.317 2.097 1.957 2.077 2.227 2.197 2.097 2.037 1.997
1745.725 2.037 2.047 1.997 1.917 1.757 1.687 1.577 1.517 1.537 1.477
1765.015 1.307 1.267 1.257 1.277 1.237 1.167 1.247 1.267 1.277 1.167
1784.305 1.1558 1.347 1.247 1.042 1.1111 1.267 1.327 1.327 1.427 1.627
1803.594 1.707 1.897 2.087 2.247 2.557 2.837 3.127 3.317 3.377 3.567
1822.884 3.647 3.457 3.287 3.247 3.087 2.817 2.567 2.437 2.287 2.047
1842.174 2.097 2.127 2.067 2.207 2.307 2.397 2.387 2.297 2.367 2.347
1861.464 2.147 2.067 1.987 1.897 1.727 1.677 1.817 1.837 1.677 1.707
1880.754 1.867 1.917 1.927 1.927 1.997 2.097 2.107 2.047 2.137 2.157
1900.043 2.177 2.177 2.147 2.117 2.097 2.207 2.337 2.367 2.467 2.677
1919.333 2.747 2.857 3.287 3.647 3.787 3.937 3.997 3.907 3.927 3.827
1938.623 3.617 3.447 3.157 2.857 2.597 2.467 2.367 2.407 2.587 2.867
1957.913 3.067 3.077 3.147 3.227 3.187 3.107 2.997 2.737 2.507 2.267
1977.202 1.997 1.727 1.517 1.337 1.1161 1.0498 1.0254 1.0545 1.1001 1.0115
1996.492 0.9935 1.0012 1.0247 1.0668 1.0814 1.1543 1.1025 1.0177 0.9971 1.0136
2015.782 1.167 1.217 1.0992 1.237 1.387 1.347 1.327 1.477 1.527 1.487
2035.072 1.477 1.397 1.367 1.417 1.497 1.527 1.497 1.437 1.487 1.577
2054.362 1.567 1.607 1.657 1.707 1.747 1.727 1.627 1.687 1.737 1.647
2073.651 1.687 1.717 1.567 1.347 1.337 1.257 1.187 1.307 1.287 1.167
2092.941 1.0268 1.0972 1.1191 1.0327 0.9423 0.8257 0.8103 0.8628 0.8846 0.8628
2112.231 0.7927 0.7719 0.7637 0.7753 0.9452 1.0477 0.9645 0.8857 0.9345 0.9162
2131.521 0.9418 0.9688 0.8182 0.7252 0.8186 0.956 0.9515 0.8802 0.7445 0.7654
2150.810 0.9038 0.915 0.954 1.0247 0.9888 0.8522 0.8034 0.9254 1.0678 1.0013
2170.100 0.9082 1.1053 1.177 1.0578 1.0923 1.1001 1.0519 0.9845 1.0337 1.1213
2189.390 1.13 1.197 1.237 1.257 1.1525 1.167 1.217 1.247 1.287 1.297
2208.680 1.317 1.277 1.327 1.437 1.627 1.647 1.547 1.657 1.717 1.677
2227.970 1.687 1.757 1.847 1.877 1.927 1.967 1.997 1.957 2.027 1.997
2247.259 1.857 1.907 1.897 2.017 2.167 2.077 1.917 1.897 1.997 1.987
2266.549 1.977 2.027 1.887 1.797 1.677 1.707 1.837 1.717 1.557 1.517
2285.839 1.587 1.607 1.617 1.557 1.507 1.667 1.747 1.597 1.597 1.807
2305.129 1.707 1.517 1.587 1.577 1.537 1.587 1.607 1.677 1.807 1.837
2324.418 1.897 2.017 2.137 2.097 2.017 2.077 2.217 2.297 2.287 2.197
2343.708 2.077 1.927 1.777 1.627 1.467 1.437 1.417 1.537 1.537 1.387
2362.998 1.337 1.367 1.407 1.397 1.367 1.467 1.417 1.327 1.297 1.237
2382.288 1.1341 1.0606 1.177 1.1445 1.1205 1.1147 1.017 1.0404 1.0597 0.9925
2401.578 0.9577 1.0568 1.078 0.9381 0.8791 0.9069 0.9172 0.9578 0.9479 0.9586
2420.867 1.1072 1.0746 0.9131 0.9797 1.0623 1.0161 0.9582 1.0155 1.167 1.0334
2440.157 0.9182 1.0621 1.0512 0.9649 0.9851 1.0215 1.1233 1.197 1.187 1.1255
2459.447 1.1065 1.0787 0.9118 0.9898 1.0554 0.9964 1.011 0.9406 0.9565 0.9706
2478.737 0.9706 1.0897 1.187 1.277 1.217 1.1146 1.0934 0.9433 0.7901 0.8495
2498.026 0.9446 0.8037 0.8026 0.8158 0.7924 0.955 0.833 0.7349 0.8267 0.8389
2517.316 0.8211 0.8275 0.8429 0.7641 0.6171 0.5936 0.616 0.6029 0.7389 0.8149
2536.606 0.7443 0.6751 0.6691 0.614 0.5765 0.6486 0.7445 0.7303 0.596 0.4669
2555.896 0.6281 0.7956 0.7605 0.7432 0.7423 0.7351 0.7772 0.8594 0.7242 0.661
2575.186 0.7323 0.8233 0.9189 0.9934 0.9692 0.9805 1.0995 1.0367 0.918 0.8954
2594.475 0.9203 0.9793 1.0877 1.0617 1.0431 1.1473 1.197 1.257 1.277 1.437
2613.765 1.317 1.177 1.297 1.317 1.437 1.487 1.447 1.537 1.607 1.517
2633.055 1.287 1.1424 1.227 1.217 1.0133 0.8869 1.0025 0.899 0.7113 0.7587
2652.345 0.7413 0.7274 0.7732 0.9134 0.9419 0.9009 0.9106 0.9473 0.9147 0.857
2671.634 0.928 0.9558 0.8595 0.7726 0.7598 0.7249 0.8699 0.9016 0.7913 0.9581
2690.924 0.9571 0.7374 0.6869 0.959 1.0522 0.8209 0.6934 0.7373 0.7829 0.8144
2710.214 0.8116 0.8372 1.0757 0.9898 0.7476 0.7218 0.7569 0.814 0.9345 1.187
2729.504 1.177 1.132 1.177 1.207 1.237 1.287 1.367 1.307 1.257 1.357
2748.794 1.267 1.0881 1.407 1.607 1.587 1.567 1.597 1.677 1.637 1.577
2768.083 1.507 1.507 1.617 1.727 1.727 1.537 1.567 1.667 1.617 1.737
2787.373 1.807 1.837 2.027 2.087 2.027 1.947 1.957 2.187 2.167 2.047
2806.663 2.127 2.107 2.077 2.267 2.387 2.337 2.297 2.297 2.287 2.377
2825.953 2.497 2.547 2.727 2.787 2.717 2.777 2.907 3.137 3.267 3.277
2845.242 3.427 3.717 3.817 3.887 4.107 4.287 4.517 4.847 5.077 5.247
2864.532 5.677 5.887 6.207 6.637 6.837 7.237 7.737 8.307 8.777 9.447
2883.822 10.087 10.797 11.667 12.177 13.067 13.947 14.547 15.197 15.717 16.267
2903.112 16.827 17.047 17.267 17.397 17.137 16.687 16.497 16.357 15.997 15.557
2922.401 14.997 14.287 13.837 13.517 12.757 12.257 12.097 11.827 11.677 11.737
2941.691 11.827 11.827 11.857 12.027 12.367 12.417 12.607 13.017 13.007 13.087
2960.981 13.107 13.017 13.087 13.007 12.837 12.807 12.717 12.367 12.287 12.167
2980.271 11.757 11.397 10.957 10.607 10.337 10.057 9.627 9.307 9.067 8.637
2999.561 8.297 8.187 8.007 7.777 7.757 7.677 7.597 7.357 7.097 6.867
3018.850 6.767 6.927 6.737 6.787 7.127 7.237 7.607 8.297 8.977 9.557
3038.140 10.137 10.687 11.047 11.537 11.997 12.007 11.987 11.987 11.997 12.197
3057.430 12.317 12.527 12.987 13.737 15.017 16.287 17.367 18.847 20.477 21.697
3076.720 22.607 23.267 23.587 23.677 22.917 21.547 20.197 18.277 16.107 13.987
3096.009 11.757 9.687 8.047 6.547 5.347 4.687 4.237 3.807 3.487 3.317
3115.299 3.317 3.337 3.227 2.997 2.577 2.097 2.037 2.057 1.787 1.807
3134.589 1.757 1.477 1.227 1.177 1.0299 0.97 1.133 1.217 1.277 1.1054
3153.879 1.0573 1.347 1.697 1.887 1.657 1.267 0.9722 0.9025 1.217 1.457
3173.169 1.217 1.1464 1.0826 0.9952 1.1331 0.9481 0.7851 0.9184 0.7658 0.4993
3192.458 0.6285 0.6708 0.5696 0.6641 0.8099 0.8311 0.6972 0.6165 0.4997 0.4781
3211.748 0.20427 0.0833 0.1338 0 0.3047 0.3543 0.3513 0.4653 0.4694 0.3602
3231.038 0.344 0.4337 0.4554 0.4892 0.4025 0.4336 0.4215 0.362 0.2943 0.044
3250.328 0.051 0.20383 0.4933 0.653 0.4543 0.4285 0.3594 0.4776 0.515 0.3938
3269.617 0.631 0.432 0.1434 0.3581 0.3995 0.4137 0.6653 0.5586 0.22271 0.24671
3288.907 0.276 0.17373 0.3318 0.3729 0.3749 0.3809 0.4592 0.5834 0.3268 0.3126
3308.197 0.3486 0.17459 0.3038 0.338 0.3175 0.3623 0.3154 0.5161 0.5181 0.2842
3327.487 0.3482 0.3639 0.18632 0.396 0.6125 0.4899 0.4386 0.3121 0.17341 0.1084
3346.777 0.0931 0.2638 0.5057 0.5756 0.6427 0.6271 0.6351 0.7084 0.8604 0.9778
3366.066 0.6822 0.5896 0.4818 0.388 0.3655 0.3988 0.5756 0.5377 0.6562 0.8872
3385.356 0.7165 0.8548 1.177 1.0213 0.9259 0.8899 0.9218 0.9342 0.7077 0.7405
3404.646 0.7779 0.5849 0.7232 0.9098 1.0167 1.082 1.0076 0.8581 0.9791 1.277
3423.936 1.157 0.9793 0.8513 0.9011 0.9224 0.7726 0.8992 0.9987 0.8969 0.8373
3443.225 0.9763 1.297 1.287 1.0418 0.7443 0.6015 0.8024 0.8697 0.7787 0.746
3462.515 1.0009 1.1246 0.9057 0.6774 0.8292 0.9145 0.7439 0.9058 1.066 1.187
3481.805 1.0055 0.6826 0.5765 0.3509 0.5739 0.9718 0.7877 0.7274 0.8227 0.8448
3501.095 0.7692 0.6777 0.7404 0.8611 0.9595 1.0181 0.9133 0.6888 0.7663 0.6473
3520.385 0.5696 0.8424 0.9417 0.8039 0.8237 0.9949 0.8865 0.8239 0.9385 1.217
3539.674 1.387 1.467 1.257 1.0396 1.0342 1.207 1.317 1.128 1.237 1.247
3558.964 1.0911 1.0623 0.7934 0.909 1.0707 1.0304 1.177 1.297 1.297 1.447
3578.254 1.547 1.417 1.467 1.477 1.377 1.437 1.677 1.837 1.787 1.747
3597.544 1.967 1.937 1.907 2.077 2.357 2.447 2.327 2.567 2.837 3.117
3616.833 3.417 3.317 3.377 3.767 4.017 4.347 4.907 5.387 5.827 6.647
3636.123 7.467 8.247 9.247 10.537 12.177 13.887 15.407 17.017 19.247 21.477
3655.413 22.897 23.897 24.727 25.247 25.687 25.627 24.807 23.927 22.717 21.217
3674.703 19.677 18.307 16.967 15.427 14.107 12.637 11.367 10.287 9.097 8.037
3693.993 7.447 7.097 6.627 5.837 5.147 5.117 4.787 4.257 3.967 3.667
3713.282 3.447 3.347 3.097 2.817 2.927 2.827 2.607 2.627 2.617 2.587
3732.572 2.387 2.187 1.957 1.797 1.977 2.047 1.927 2.077 2.017 1.847
3751.862 1.757 1.587 1.135 1.1407 1.507 1.647 1.617 1.347 1.357 1.297
3771.152 1.167 1.207 1.197 1.227 1.277 1.457 1.327 0.8468 0.8349 0.919
3790.441 0.7949 0.8495 0.9148 1.0406 1.287 1.407 1.537 1.447 1.437 1.367
3809.731 1.0225 0.7853 1.157 1.427 1.247 1.517 1.767 1.557 1.197 1.187
3829.021 1.167 1.117 1.1443 1.0142 1.1456 1.247 0.9078 1.1503 1.327 1.1543
3848.311 1.247 1.287 1.297 1.237 1.387 1.437 1.457 1.397 1.377 1.547
3867.601 1.477 1.527 1.467 1.467 1.637 1.447 1.347 1.217 1.267 1.637
3886.890 1.827 1.717 1.537 1.477 1.507 1.717 1.797 1.907 1.717 1.297
3906.180 1.377 1.337 1.197 1.12 0.9658 1.0895 1.187 1.287 1.317 1.1474
3925.470 0.9324 0.7387 0.8019 0.7489 0.7501 0.8031 0.5454 0.5083 0.6516 0.848
3944.760 0.8452 1.1244 1.227 0.7411 0.7109 0.8443 0.8774 0.9915 0.7922 0.8758
3964.049 1.177 0.7849 0.4147 0.5463 0.6758 0.576 0.7862 0.8647 0.9357 0.9607
3983.339 0.8772 0.8964 0.663 0.5977 0.4993 0.3155 0.4961 0.8191 0.8312 0.6326
##END=
