##TITLE=2,2-Diphenylethyl isothiocyanate
##JCAMP-DX=4.24
##DATA TYPE=INFRARED SPECTRUM
##ORIGIN=EPA-IR VAPOR PHASE LIBRARY
##OWNER=SRD/NIST
Collection (C) 2018 copyright by the U.S. Secretary of Commerce
on behalf of the United States of America. All rights reserved.
##CAS REGISTRY NO=34634-22-5
##MOLFORM=C 15 H 13 N S
##$NIST SOURCE=MSDC-IR
##STATE=gas
##XUNITS=1/CM
##YUNITS=ABSORBANCE
##XFACTOR=1.
##YFACTOR=0.001
##DELTAX=1.92898
##FIRSTX=549.8
##LASTX=4000.7
##FIRSTY=3.433
##MAXX=4000.7
##MINX=549.759
##MAXY=0.092153
##MINY=0
##NPOINTS=1790
##XYDATA=(X++(Y..Y))
549.759 3.433 3.293 3.203 3.323 3.533 3.853 4.343 4.593 4.763 5.243
569.049 5.503 5.433 5.603 5.593 5.493 5.253 4.813 4.873 4.763 4.213
588.339 3.643 3.273 3.053 2.753 2.583 2.713 2.863 2.913 2.943 3.193
607.628 3.403 3.693 4.023 4.063 4.313 4.393 4.173 3.903 3.763 3.633
626.918 3.353 3.093 2.793 2.563 2.303 2.143 2.133 2.093 2.103 2.153
646.208 2.083 2.183 2.243 2.173 2.243 2.343 2.343 2.523 2.783 2.863
665.498 3.173 3.423 3.733 4.143 4.633 5.353 5.843 6.383 7.043 7.943
684.787 9.253 10.963 13.593 16.793 20.083 22.803 24.513 25.003 24.313 22.663
704.077 20.243 17.983 16.043 14.073 12.473 11.173 9.853 8.753 8.143 7.813
723.367 7.553 7.393 7.413 7.713 7.993 8.143 8.273 8.303 8.043 7.673
742.657 7.403 6.963 6.553 6.153 5.853 5.583 5.193 4.963 4.713 4.523
761.947 4.383 4.083 3.743 3.443 3.043 2.783 2.583 2.293 2.133 2.023
781.236 1.933 1.843 1.623 1.483 1.3333 1.273 1.2495 1.1228 1.0864 1.1119
800.526 1.0932 1.0536 1.0636 1.0782 0.9364 0.9107 0.9006 0.9296 0.8984 0.8119
819.816 0.769 0.7385 0.9082 1.0393 1.0065 0.9402 0.9626 1.1608 1.3111 1.2768
839.106 1.06 0.9497 1.0884 1.1418 1.0277 0.87 0.857 0.8381 0.7969 0.7923
858.395 0.9379 1.0418 0.9766 0.8537 0.8456 0.9655 0.8945 0.8333 0.9875 0.9832
877.685 0.9154 0.8667 0.5935 0.5729 0.6898 0.7012 0.8325 0.965 1.0707 1.1034
896.975 1.0615 1.0594 1.1013 1.2873 1.3366 1.3123 1.383 1.433 1.483 1.453
916.265 1.383 1.453 1.443 1.2469 1.2104 1.1984 1.0703 1.0236 0.9917 0.9694
935.555 1.1447 1.1372 1.063 1.18 1.1643 1.1258 0.9504 0.8716 1.1716 1.205
954.844 1.0944 1.2194 1.2456 1.1528 1.2302 1.2078 1.1424 1.255 1.463 1.523
974.134 1.3215 1.2538 1.2662 1.373 1.32 1.1249 1.1693 1.2145 1.259 1.343
993.424 1.423 1.573 1.703 1.833 1.943 1.953 2.013 1.933 1.773 1.593
1012.714 1.403 1.543 1.603 1.723 2.033 1.973 2.193 2.983 3.713 4.113
1032.003 4.103 3.763 3.353 3.143 2.703 2.083 1.823 1.543 1.23 1.2191
1051.293 1.1746 1.1453 1.2093 1.0647 1.042 1.433 1.623 1.573 1.643 1.713
1070.583 2.123 2.573 2.773 2.743 2.733 3.043 2.723 2.353 2.403 2.283
1089.873 1.933 1.493 1.483 1.503 1.493 1.543 1.453 1.2904 1.413 1.693
1109.163 1.783 1.743 1.693 1.553 1.0527 1.0027 1.2121 1.0731 1.2891 1.593
1128.452 1.2251 0.9194 1.1119 1.1841 0.9772 0.8353 0.7862 0.5388 0.7085 0.8298
1147.742 0.4661 0.5561 0.5528 0.8103 1.0257 0.6566 0.6054 0.8513 1.0467 0.9896
1167.032 0.7165 0.6788 0.9865 1.0589 0.9705 0.9545 1.0331 1.363 1.583 1.683
1186.322 1.613 1.403 1.3271 1.413 1.653 1.663 1.553 1.483 1.3199 1.503
1205.611 1.633 1.493 1.713 1.863 1.903 1.723 1.573 1.563 1.533 1.593
1224.901 1.613 1.673 1.733 1.793 1.813 1.943 2.053 1.993 1.873 1.993
1244.191 2.043 1.963 2.003 1.923 2.013 2.123 2.063 1.833 1.763 1.883
1263.481 2.073 2.233 2.023 1.863 1.883 2.053 2.203 2.083 2.153 2.313
1282.771 2.423 2.513 2.533 2.683 2.883 2.933 3.033 3.293 3.513 3.743
1302.060 3.953 4.073 4.273 4.523 4.733 4.973 5.203 5.503 5.793 6.023
1321.350 6.333 6.693 7.043 7.323 7.513 7.723 7.943 8.133 8.313 8.533
1340.640 8.913 9.503 10.183 10.753 11.143 11.323 11.143 10.663 9.963 9.003
1359.930 7.893 6.903 5.963 5.163 4.553 4.043 3.653 3.283 2.983 2.723
1379.219 2.513 2.363 2.193 1.993 1.783 1.623 1.573 1.443 1.3238 1.2674
1398.509 1.1731 1.1403 1.1442 1.1571 1.1789 1.1525 1.1236 1.1562 1.2339 1.2811
1417.799 1.286 1.403 1.603 1.723 1.813 1.913 2.053 2.263 2.523 2.713
1437.089 3.033 3.483 4.043 4.913 5.933 7.093 8.393 9.723 10.963 11.713
1456.378 11.813 11.453 10.543 9.133 7.473 5.903 4.683 3.813 3.313 3.133
1475.668 3.053 3.053 3.213 3.503 3.993 4.763 5.773 6.983 8.323 9.463
1494.958 9.963 9.803 9.143 7.943 6.373 4.823 3.563 2.753 2.223 1.813
1514.248 1.583 1.403 1.2703 1.1981 1.1051 1.0952 1.1344 1.101 1.1142 1.1566
1533.538 1.0566 1.0415 1.0826 1.038 0.9609 0.9402 0.9583 0.9143 0.9167 0.9563
1552.827 0.9737 0.9381 0.9506 0.982 0.9637 1.0604 1.152 1.1393 1.2188 1.3012
1572.117 1.443 1.663 1.783 1.943 2.153 2.303 2.583 2.973 3.253 3.483
1591.407 3.833 4.163 4.463 4.763 4.873 4.743 4.523 4.213 3.653 3.063
1610.697 2.653 2.243 1.853 1.563 1.373 1.167 0.9817 0.9461 0.8951 0.8768
1629.986 0.8477 0.8153 0.8188 0.7732 0.7513 0.7795 0.7678 0.7099 0.704 0.7518
1649.276 0.7074 0.6099 0.6102 0.7139 0.7078 0.7081 0.6799 0.6496 0.681 0.6657
1668.566 0.688 0.6591 0.6364 0.69 0.7174 0.7086 0.7402 0.6821 0.6254 0.6456
1687.856 0.6285 0.6129 0.6653 0.6589 0.5849 0.6225 0.6196 0.6178 0.6696 0.6521
1707.146 0.6541 0.676 0.6876 0.6832 0.6771 0.7436 0.7878 0.7083 0.7385 0.8082
1726.435 0.8559 0.8494 0.7937 0.848 0.9072 1.0247 1.0732 1.0265 1.061 1.0408
1745.725 0.9648 0.9906 0.9964 0.9482 0.974 0.9594 0.881 0.8241 0.8038 0.825
1765.015 0.8513 0.8319 0.871 0.9591 0.9912 1.0182 1.0314 1.0675 1.1827 1.2765
1784.305 1.373 1.543 1.663 1.753 1.863 1.943 1.993 1.953 1.783 1.623
1803.594 1.533 1.453 1.393 1.3234 1.2408 1.2021 1.1729 1.1281 1.103 1.0794
1822.884 1.038 0.9399 0.9141 0.9288 0.8802 0.9053 0.8948 0.8324 0.8683 0.95
1842.174 0.95 0.9082 0.934 0.9833 1.0637 1.1508 1.179 1.2494 1.2925 1.2917
1861.464 1.423 1.563 1.603 1.653 1.673 1.723 1.743 1.763 1.843 1.883
1880.754 1.903 1.973 2.053 2.053 2.043 2.033 2.013 1.903 1.903 1.923
1900.043 1.913 1.953 2.013 2.093 2.153 2.213 2.363 2.503 2.583 2.683
1919.333 2.823 2.993 3.143 3.313 3.513 3.683 3.893 4.143 4.363 4.583
1938.623 4.873 5.143 5.353 5.483 5.633 5.853 6.053 6.313 6.703 7.043
1957.913 7.303 7.623 7.883 8.083 8.343 8.663 9.103 9.583 10.103 10.713
1977.202 11.353 12.063 12.873 13.783 14.723 15.683 16.743 17.933 19.203 20.523
1996.492 21.943 23.493 25.153 26.893 28.773 30.753 32.833 35.053 37.423 39.923
2015.782 42.563 45.383 48.333 51.343 54.473 57.673 60.993 64.393 67.733 71.033
2035.072 74.263 77.413 80.353 83.053 85.493 87.593 89.383 90.813 91.783 92.153
2054.362 92.143 91.703 90.703 89.283 87.393 84.953 82.203 79.193 76.023 72.833
2073.651 69.643 66.663 63.963 61.493 59.173 57.153 55.473 53.933 52.473 51.243
2092.941 50.143 49.023 47.863 46.723 45.533 44.163 42.733 41.203 39.523 37.773
2112.231 35.933 34.123 32.263 30.393 28.673 27.053 25.463 24.003 22.753 21.583
2131.521 20.483 19.573 18.773 18.023 17.303 16.613 16.023 15.433 14.893 14.433
2150.810 13.903 13.393 12.963 12.573 12.163 11.783 11.443 11.223 10.993 10.723
2170.100 10.613 10.533 10.423 10.433 10.513 10.513 10.453 10.543 10.653 10.773
2189.390 10.933 11.093 11.243 11.383 11.493 11.613 11.713 11.813 11.923 11.863
2208.680 11.733 11.523 11.303 11.013 10.653 10.283 9.853 9.363 8.793 8.293
2227.970 7.833 7.313 6.763 6.303 5.873 5.453 5.093 4.813 4.573 4.303
2247.259 4.013 3.793 3.533 3.353 3.243 3.113 2.963 2.833 2.703 2.583
2266.549 2.483 2.433 2.323 2.133 2.073 2.053 2.013 1.933 1.833 1.833
2285.839 1.793 1.703 1.643 1.613 1.563 1.533 1.473 1.363 1.353 1.353
2305.129 1.363 1.383 1.423 1.483 1.493 1.433 1.393 1.373 1.363 1.2886
2324.418 1.2742 1.2624 1.2568 1.2388 1.1733 1.168 1.1508 1.1585 1.205 1.2108
2343.708 1.154 1.1118 1.16 1.1606 1.0854 1.0395 1.0399 1.0155 0.9443 0.9426
2362.998 0.9329 0.916 0.8938 0.8932 0.9532 0.8942 0.8233 0.8215 0.832 0.812
2382.288 0.7666 0.7089 0.6435 0.67 0.6783 0.64 0.7121 0.6884 0.6492 0.7057
2401.578 0.6733 0.6201 0.5922 0.6107 0.636 0.635 0.6148 0.5692 0.5657 0.5856
2420.867 0.5749 0.5972 0.5172 0.4791 0.5286 0.54 0.5744 0.5576 0.57 0.557
2440.157 0.5261 0.4721 0.4868 0.5691 0.5835 0.5704 0.5318 0.5273 0.5831 0.6487
2459.447 0.6024 0.534 0.5389 0.5242 0.5185 0.5934 0.5929 0.5522 0.525 0.5429
2478.737 0.5556 0.564 0.5822 0.5585 0.6316 0.6922 0.6262 0.5739 0.5421 0.5228
2498.026 0.5754 0.5408 0.4892 0.5247 0.6143 0.6031 0.5898 0.6431 0.6369 0.6111
2517.316 0.5742 0.6137 0.7239 0.7062 0.6344 0.704 0.7301 0.7719 0.8103 0.8012
2536.606 0.8424 0.7683 0.7543 0.8156 0.8189 0.8011 0.7819 0.7831 0.7446 0.7396
2555.896 0.8376 0.8721 0.8108 0.7653 0.7193 0.7423 0.7983 0.763 0.7293 0.7831
2575.186 0.729 0.6629 0.6967 0.7307 0.7001 0.6791 0.5926 0.579 0.6451 0.597
2594.475 0.6628 0.6712 0.6235 0.656 0.6426 0.5637 0.516 0.5775 0.6167 0.5749
2613.765 0.5649 0.5606 0.5357 0.5274 0.5887 0.5963 0.6253 0.6225 0.4997 0.5346
2633.055 0.6201 0.6079 0.6498 0.7081 0.6426 0.6195 0.6249 0.6182 0.6439 0.615
2652.345 0.5642 0.6023 0.704 0.7261 0.6398 0.6302 0.7116 0.7579 0.8685 0.9728
2671.634 0.8133 0.7026 0.7476 0.7612 0.8586 0.8994 0.8685 0.8436 0.8012 0.7762
2690.924 0.8272 0.8768 0.849 0.8449 0.8563 0.8333 0.8474 0.861 0.8705 0.9083
2710.214 0.8661 0.8964 0.9842 0.9096 0.8794 0.9074 0.9128 0.9301 0.9938 1.0397
2729.504 0.9456 0.9024 0.9596 1.0542 1.1008 1.1431 1.2324 1.2664 1.2476 1.2231
2748.794 1.1923 1.2687 1.3368 1.3068 1.2851 1.2526 1.2584 1.2993 1.363 1.373
2768.083 1.413 1.393 1.3411 1.3179 1.3104 1.2878 1.2082 1.234 1.1782 1.1492
2787.373 1.2302 1.2046 1.1325 1.1301 1.0742 1.0091 1.0341 0.9806 0.8871 0.8703
2806.663 0.8764 0.8899 0.9143 0.8905 0.9173 0.9196 0.8098 0.7596 0.7652 0.7547
2825.953 0.7234 0.7339 0.7654 0.6558 0.6395 0.6995 0.7532 0.838 0.8469 0.8547
2845.242 0.8797 0.8108 0.7598 0.8559 0.9195 0.943 0.8355 0.8007 0.9754 1.0351
2864.532 1.064 1.1483 1.3353 1.453 1.583 1.893 2.233 2.603 3.003 3.403
2883.822 3.653 3.873 3.983 3.903 3.813 3.583 3.213 2.993 2.953 3.053
2903.112 3.053 3.073 3.033 2.883 2.803 2.743 2.683 2.523 2.493 2.413
2922.401 2.233 2.423 2.643 2.753 3.013 3.293 3.683 4.053 4.373 4.793
2941.691 5.143 5.483 5.733 5.823 5.943 5.923 5.813 5.733 5.663 5.433
2960.981 5.123 4.823 4.443 3.803 3.173 2.813 2.423 2.053 1.833 1.733
2980.271 1.563 1.373 1.3375 1.3203 1.2853 1.1945 1.1464 1.1772 1.2921 1.503
2999.561 1.623 1.683 1.853 2.033 2.143 2.343 2.583 2.813 3.203 3.793
3018.850 4.283 4.953 5.863 6.973 8.143 9.183 10.213 10.873 11.153 11.173
3038.140 10.583 9.723 8.933 8.093 7.323 6.683 6.363 6.303 6.353 6.473
3057.430 6.673 7.213 8.113 9.283 10.733 12.253 13.523 14.233 14.403 13.953
3076.720 12.773 11.203 9.733 8.693 7.933 7.443 7.193 6.983 6.593 6.113
3096.009 5.683 5.223 4.743 4.263 3.963 3.613 3.273 3.053 2.823 2.563
3115.299 2.203 1.923 1.643 1.343 1.1628 0.9857 0.8681 0.8358 0.7937 0.7699
3134.589 0.7138 0.6856 0.6592 0.6957 0.6592 0.5294 0.4986 0.4763 0.4802 0.4963
3153.879 0.5164 0.5248 0.5299 0.5075 0.6601 0.6262 0.37663 0.4557 0.5249 0.5019
3173.169 0.5183 0.40262 0.37588 0.36265 0.3293 0.323 0.36994 0.40824 0.41816 0.3298
3192.458 0.3059 0.3227 0.22 0.2698 0.39509 0.44031 0.4502 0.5047 0.43356 0.211
3211.748 0.162 0.18 0.131 0.2 0.2475 0.212 0.202 0.153 0.104 0.068
3231.038 0.032 0.201 0.241 0.221 0.178 0.047 0.114 0.3148 0.3275 0.193
3250.328 0.099 0.234 0.344109 0.233 0.2635 0.35981 0.254 0.202 0.22 0.219
3269.617 0.277 0.2472 0.188 0.215 0.32 0.233 0.189 0.242 0.119 0.026
3288.907 0.146 0.203 0.2819 0.36933 0.23 0.188 0.352341 0.39658 0.234 0.166
3308.197 0.122 0.14 0.183 0.151 0.167 0.236 0.2958 0.236 0.213 0.2464
3327.487 0.2969 0.127 0.007 0.162 0.215 0.174 0.2607 0.4721 0.42131 0.2883
3346.777 0.231 0.099 0.174 0.236 0.241 0.3688 0.3547 0.228 0.142 0.109
3366.066 0.084 0.054 0.099 0.2465 0.257 0.188 0.225 0.2446 0.2581 0.2941
3385.356 0.37722 0.39038 0.2443 0.181 0.3183 0.38116 0.3171 0.231 0.156 0.242
3404.646 0.37225 0.263 0.351597 0.4665 0.39774 0.5005 0.3821 0.2964 0.3238 0.3107
3423.936 0.39955 0.42083 0.33345 0.2604 0.237 0.233 0.106 0.151 0.3138 0.3171
3443.225 0.222 0.196 0.185 0.158 0.22 0.2705 0.348279 0.37031 0.2787 0.2595
3462.515 0.2444 0.3164 0.41738 0.3137 0.2527 0.166 0.155 0.187 0.2947 0.3039
3481.805 0.197 0.22 0.2442 0.164 0.083 0.144 0.223 0.2889 0.2784 0.232
3501.095 0.3233 0.2958 0.139 0.113 0.207 0.33785 0.42551 0.41841 0.40961 0.33524
3520.385 0.272 0.40193 0.4989 0.38491 0.2981 0.238 0.2617 0.4125 0.37563 0.3246
3539.674 0.39618 0.36745 0.2516 0.2854 0.39843 0.4491 0.41235 0.343777 0.2699 0.2878
3558.964 0.3187 0.2 0.127 0.231 0.345994 0.172 0 0.129 0.149 0.206
3578.254 0.3181 0.173 0.2587 0.41164 0.2869 0.205 0.183 0.241 0.208 0.196
3597.544 0.2757 0.234 0.173 0.2439 0.40975 0.4525 0.387 0.3273 0.33474 0.38257
3616.833 0.39763 0.35907 0.224 0.112 0.2437 0.3017 0.3217 0.39001 0.3283 0.38704
3636.123 0.42132 0.42158 0.4783 0.33828 0.34136 0.38014 0.2889 0.3017 0.3151 0.2733
3655.413 0.2551 0.242 0.3188 0.40861 0.40243 0.37789 0.43147 0.42819 0.2798 0.2705
3674.703 0.202 0.108 0.19 0.2502 0.3042 0.2437 0.208 0.3566 0.40995 0.4246
3693.993 0.4809 0.36773 0.2585 0.36722 0.41957 0.39943 0.43388 0.452 0.3165 0.294
3713.282 0.343116 0.2847 0.3235 0.35472 0.3047 0.37368 0.38342 0.3233 0.2713 0.2604
3732.572 0.33 0.2669 0.2757 0.34073 0.2828 0.38503 0.39147 0.347086 0.33792 0.2756
3751.862 0.37774 0.41564 0.2608 0.2726 0.35499 0.41964 0.4674 0.40398 0.38337 0.235
3771.152 0.164 0.167 0.3237 0.4785 0.35763 0.166 0.165 0.3132 0.2976 0.225
3790.441 0.3305 0.5791 0.5013 0.232 0.225 0.2908 0.3012 0.2932 0.2637 0.39844
3809.731 0.4739 0.40904 0.348057 0.3007 0.2694 0.2442 0.2711 0.209 0.2763 0.3246
3829.021 0.33491 0.36227 0.216 0.188 0.2764 0.3142 0.3012 0.2627 0.265 0.3025
3848.311 0.40273 0.5523 0.4783 0.39501 0.42968 0.4933 0.5155 0.4904 0.42073 0.342091
3867.601 0.351853 0.33973 0.2793 0.2529 0.17 0.159 0.229 0.33932 0.38022 0.2716
3886.890 0.37538 0.5301 0.5784 0.43552 0.3065 0.44252 0.43983 0.2982 0.42269 0.5123
3906.180 0.5321 0.5368 0.6105 0.6676 0.5333 0.39195 0.39864 0.39445 0.40949 0.466
3925.470 0.40371 0.39237 0.39189 0.4716 0.445 0.34091 0.4666 0.4848 0.38811 0.4929
3944.760 0.5328 0.4499 0.5616 0.6873 0.55 0.5029 0.41395 0.2689 0.4622 0.5254
3964.049 0.3283 0.36676 0.41318 0.4521 0.6205 0.6443 0.7454 0.7645 0.5515 0.5809
3983.339 0.5831 0.39151 0.636 0.7392 0.5149 0.5421 0.7188 0.722 0.5932 0.5767
##END=
