##TITLE=Pentamethylphenylacetonitrile
##JCAMP-DX=4.24
##DATA TYPE=INFRARED SPECTRUM
##ORIGIN=EPA-IR VAPOR PHASE LIBRARY
##OWNER=SRD/NIST
Collection (C) 2018 copyright by the U.S. Secretary of Commerce
on behalf of the United States of America. All rights reserved.
##CAS REGISTRY NO=34688-70-5
##MOLFORM=C 13 H 17 N
##$NIST SOURCE=MSDC-IR
##STATE=gas
##XUNITS=1/CM
##YUNITS=ABSORBANCE
##XFACTOR=1.
##YFACTOR=0.001
##DELTAX=1.92898
##FIRSTX=549.8
##LASTX=4000.7
##FIRSTY=0.4444
##MAXX=4000.7
##MINX=549.759
##MAXY=0.0425
##MINY=0.00003555
##NPOINTS=1790
##XYDATA=(X++(Y..Y))
549.759 0.4444 0.4439 0.5732 0.3296 0.2685 0.6085 0.7975 0.7158 0.4948 0.5371
569.049 0.6786 0.5269 0.3286 0.2175 0.4487 0.7263 0.6292 0.5774 0.7551 0.7069
588.339 0.3635 0.3907 0.7149 0.6191 0.507 0.6877 0.5731 0.3331 0.3786 0.582
607.628 0.3909 0.2704 0.462 0.745 0.9764 0.677 0.2632 0.3866 0.7905 0.7586
626.918 0.6958 0.7734 0.7604 0.8333 0.7849 0.822 0.8733 0.9177 1.11 1.15
646.208 1.08 0.7676 0.8141 1.11 1.15 1.18 1.15 0.9774 1.02 1.07
665.498 0.8844 0.8343 1.05 1.05 0.7394 0.6086 0.67 0.7702 0.8448 0.8164
684.787 0.7299 0.7291 0.6513 0.8468 0.9771 0.7611 0.7424 0.8668 0.8566 0.7512
704.077 0.7816 0.8071 0.7395 0.6448 0.6639 0.7282 0.7362 0.6188 0.5438 0.6004
723.367 0.6739 0.6819 0.7385 0.9288 0.8773 0.7626 0.6959 0.6056 0.6427 0.6469
742.657 0.3996 0.4578 0.6392 0.4961 0.6836 0.9631 0.8543 0.8967 0.8907 1.01
761.947 1.22 0.9964 0.8681 0.9174 1.02 1.12 1.27 1.51 1.78 1.93
781.236 1.87 1.98 2.09 2.27 2.69 2.94 3.09 3.3 3.47 3.78
800.526 3.96 4.04 4.02 3.61 3.27 3.11 2.66 2.15 1.75 1.64
819.816 1.7 1.71 1.6 1.3 1.16 1.11 1.24 0.9871 0.5874 0.7035
839.106 0.8619 1.04 0.8722 0.7643 0.9903 1.07 1.02 0.8888 0.8908 0.7443
858.395 0.715 0.7651 0.6052 0.5831 0.5827 0.6077 0.7573 0.7692 0.7967 1
877.685 1.07 0.9571 0.9812 0.8626 0.7947 0.916 0.9465 0.8671 0.7721 0.9898
896.975 1.1 0.9686 1.07 1.42 1.54 1.55 1.73 1.86 1.88 2.1
916.265 2.46 2.48 2.44 2.49 2.47 2.36 2.12 1.94 1.76 1.52
935.555 1.4 1.22 1.07 1.13 0.936 0.8575 0.9522 1.07 1.1 0.8525
954.844 0.804 0.8098 0.837 0.9248 0.8676 1.03 1.07 0.9677 1.05 1.19
974.134 1.33 1.23 1.19 1.13 1.22 1.37 1.36 1.5 1.44 1.55
993.424 1.72 1.76 1.89 1.93 1.99 2.1 2.3 2.56 2.69 2.8
1012.714 3.27 3.39 3.34 3.7 3.83 4.12 4.41 4.27 4.01 4.04
1032.003 4.33 4.45 4.27 4.23 4.21 3.91 3.99 4.36 4.55 5.23
1051.293 5.95 5.93 6.22 7.1 7.78 8.17 8.61 8.65 8.6 8.47
1070.583 7.65 7.38 7.22 6.14 5.15 4.89 4.81 4.14 3.64 3.7
1089.873 3.49 3.01 2.78 2.62 2.52 2.28 2.18 2.59 2.6 2.31
1109.163 1.99 2.05 1.85 1.12 1.1 1.16 0.9859 1.07 1.16 1.26
1128.452 1.3 1.19 1.08 0.7387 0.6274 1.05 1.3 1.19 0.9748 0.7588
1147.742 0.8098 1.03 1.24 1.41 1.23 1.15 1.2 1.16 1.14 1.12
1167.032 1.09 1.1 1.16 1.12 1.05 0.9047 0.7223 0.6566 0.9612 0.946
1186.322 0.7399 0.9312 0.9821 1.08 1.33 1.53 1.75 1.77 1.69 1.71
1205.611 1.76 1.72 1.71 1.51 1.35 1.44 1.25 1.47 1.66 1.26
1224.901 1.18 1.35 1.34 1.68 2.05 2.2 2.18 2.36 2.8 2.98
1244.191 2.8 2.35 2.21 2.22 2.1 2.12 2.04 2.07 2.18 2.11
1263.481 2.17 2.31 2.43 2.47 2.51 2.61 2.51 2.27 2.26 2.27
1282.771 2.42 2.54 2.52 2.71 2.79 2.82 2.97 3.11 3.07 3.03
1302.060 2.93 2.8 2.74 2.5 2.26 2.15 2.07 2.03 2.05 2.05
1321.350 1.99 2.03 2.02 2.02 2.1 2.17 2.2 2.26 2.33 2.33
1340.640 2.34 2.31 2.33 2.46 2.57 2.59 2.59 2.62 2.73 2.76
1359.930 2.77 2.85 2.94 3.03 3.06 3.13 3.32 3.5 3.76 4.08
1379.219 4.31 4.64 5.03 5.38 5.78 6.15 6.38 6.58 6.82 6.99
1398.509 7 7.07 7.16 7.24 7.54 7.97 8.48 9.01 9.71 10.57
1417.799 11.42 12.35 13.41 14.61 15.89 17.19 18.38 19.47 20.53 21.27
1437.089 21.71 21.93 21.77 21.39 20.78 19.95 18.99 18.05 17.22 16.42
1456.378 15.73 15.19 14.65 14.12 13.65 13.3 13 12.65 12.27 12.03
1475.668 11.82 11.51 11.24 11 10.75 10.51 10.23 9.93 9.66 9.37
1494.958 9.12 8.89 8.58 8.32 8.16 7.85 7.54 7.35 7.2 7.03
1514.248 6.84 6.62 6.51 6.33 6.13 6.06 5.85 5.62 5.54 5.42
1533.538 5.29 5.16 4.96 4.8 4.68 4.61 4.49 4.44 4.41 4.3
1552.827 4.23 4.13 4.1 4.04 3.96 3.98 3.88 3.78 3.7 3.61
1572.117 3.59 3.45 3.35 3.36 3.37 3.36 3.27 3.14 3.07 2.96
1591.407 2.88 2.92 2.78 2.68 2.72 2.74 2.71 2.49 2.33 2.37
1610.697 2.34 2.27 2.23 2.12 2.13 2.11 2.06 1.97 1.84 1.8
1629.986 1.78 1.72 1.62 1.56 1.55 1.55 1.51 1.5 1.41 1.29
1649.276 1.32 1.27 1.22 1.2 1.19 1.24 1.2 1.17 1.11 1.09
1668.566 1.1 1.05 0.9653 0.9477 0.8963 0.8558 0.8448 0.7797 0.7678 0.7781
1687.856 0.7948 0.8235 0.8395 0.7966 0.6791 0.7712 0.7683 0.6375 0.7169 0.7608
1707.146 0.7272 0.6949 0.7304 0.6938 0.6065 0.5934 0.573 0.6091 0.6739 0.6435
1726.435 0.6702 0.6604 0.5522 0.512 0.5397 0.5656 0.5849 0.5989 0.5945 0.6296
1745.725 0.6375 0.6301 0.6075 0.5576 0.5232 0.5854 0.5699 0.505 0.5407 0.6166
1765.015 0.6027 0.5527 0.5968 0.5756 0.5764 0.5946 0.5806 0.5583 0.5623 0.5482
1784.305 0.5345 0.5646 0.5673 0.5867 0.505 0.439 0.5085 0.5202 0.5168 0.5097
1803.594 0.4695 0.4281 0.4137 0.4572 0.4879 0.4819 0.5011 0.5586 0.5087 0.3989
1822.884 0.4209 0.5052 0.5177 0.501 0.5131 0.5394 0.5582 0.5047 0.5043 0.4736
1842.174 0.3995 0.4273 0.4975 0.5012 0.4757 0.4463 0.39 0.3353 0.3542 0.422
1861.464 0.4075 0.4183 0.4034 0.3579 0.3375 0.3188 0.3447 0.3806 0.3943 0.372
1880.754 0.3377 0.3349 0.3604 0.3938 0.3593 0.3143 0.343 0.4014 0.3831 0.3106
1900.043 0.3038 0.2832 0.2986 0.4028 0.4578 0.381 0.2901 0.3027 0.3175 0.2987
1919.333 0.2533 0.2337 0.2403 0.2765 0.286 0.2701 0.3114 0.3536 0.3454 0.3385
1938.623 0.3868 0.4331 0.4368 0.4444 0.4385 0.4433 0.4777 0.5025 0.5026 0.4726
1957.913 0.4741 0.4912 0.4727 0.443 0.4488 0.4121 0.3959 0.4623 0.4494 0.4371
1977.202 0.4914 0.4785 0.4885 0.4755 0.4203 0.3909 0.3972 0.3975 0.3725 0.3877
1996.492 0.4071 0.4373 0.4294 0.389 0.3791 0.3837 0.3944 0.3355 0.3072 0.3823
2015.782 0.4557 0.4646 0.3618 0.3161 0.3694 0.3659 0.3767 0.4215 0.4438 0.4264
2035.072 0.3905 0.4271 0.4929 0.502 0.3917 0.3976 0.4682 0.3677 0.3395 0.3789
2054.362 0.3728 0.43 0.4607 0.3782 0.3499 0.4641 0.4761 0.3776 0.3561 0.366
2073.651 0.3606 0.3822 0.3413 0.3302 0.409 0.4067 0.3531 0.3259 0.353 0.3682
2092.941 0.4013 0.4381 0.4465 0.3763 0.3633 0.4377 0.4391 0.4422 0.4818 0.4958
2112.231 0.4895 0.5764 0.6086 0.5306 0.5301 0.4532 0.3914 0.4158 0.3336 0.3451
2131.521 0.3604 0.3496 0.3934 0.3874 0.4027 0.4322 0.4515 0.4237 0.3744 0.3714
2150.810 0.3789 0.4036 0.353 0.3609 0.4005 0.3838 0.4041 0.3002 0.2418 0.2825
2170.100 0.2926 0.3636 0.439 0.4512 0.4241 0.3825 0.3789 0.3287 0.3232 0.38
2189.390 0.2775 0.2497 0.3287 0.3528 0.3667 0.3954 0.4192 0.4531 0.4335 0.4253
2208.680 0.4273 0.37 0.4334 0.4807 0.5 0.5452 0.5316 0.4881 0.5291 0.6557
2227.970 0.7211 0.7245 0.8463 1.08 1.3 1.59 2.04 2.46 2.8 3.09
2247.259 3.38 3.45 3.29 3.03 2.61 2.1 1.63 1.31 0.9925 0.7538
2266.549 0.6408 0.5444 0.5176 0.4162 0.3391 0.4039 0.4801 0.4386 0.4657 0.4827
2285.839 0.4019 0.4034 0.4609 0.4756 0.4251 0.3691 0.3971 0.3794 0.301 0.2785
2305.129 0.3101 0.3937 0.3353 0.3376 0.4184 0.396 0.3906 0.4297 0.4174 0.3583
2324.418 0.3733 0.448 0.4257 0.351 0.2971 0.3374 0.4274 0.4631 0.468 0.4185
2343.708 0.4429 0.4478 0.4262 0.5063 0.4883 0.428 0.4357 0.3932 0.4364 0.5382
2362.998 0.6033 0.544 0.4351 0.426 0.4001 0.4304 0.5059 0.5622 0.548 0.535
2382.288 0.5377 0.5539 0.6466 0.6587 0.6399 0.6526 0.599 0.5654 0.5303 0.5781
2401.578 0.5674 0.4522 0.5449 0.6812 0.6744 0.6617 0.671 0.6464 0.6225 0.6276
2420.867 0.6146 0.5317 0.5673 0.6197 0.578 0.5877 0.5851 0.5922 0.7292 0.76
2440.157 0.7037 0.6758 0.6825 0.737 0.7447 0.6993 0.6391 0.6964 0.7608 0.7556
2459.447 0.7315 0.683 0.6885 0.716 0.6947 0.7612 0.7544 0.6243 0.6373 0.6935
2478.737 0.7063 0.6592 0.6422 0.6056 0.5813 0.6353 0.6399 0.6118 0.5744 0.5924
2498.026 0.644 0.6124 0.5987 0.5989 0.5915 0.6477 0.6321 0.5812 0.5593 0.4895
2517.316 0.4716 0.4884 0.4928 0.4637 0.3707 0.3393 0.458 0.5531 0.5238 0.5297
2536.606 0.56 0.4811 0.4324 0.4736 0.4748 0.4797 0.4395 0.4732 0.4977 0.5184
2555.896 0.5318 0.6117 0.6579 0.5416 0.5114 0.571 0.6291 0.6441 0.6416 0.6617
2575.186 0.6697 0.6408 0.7371 0.8205 0.7284 0.651 0.7143 0.7215 0.6625 0.694
2594.475 0.7218 0.7304 0.7514 0.7091 0.6608 0.6396 0.6076 0.5756 0.5559 0.5862
2613.765 0.624 0.6045 0.5311 0.4593 0.483 0.4792 0.4877 0.5922 0.5954 0.5374
2633.055 0.5088 0.5069 0.484 0.4802 0.5571 0.5328 0.5012 0.5147 0.5361 0.5445
2652.345 0.5174 0.5472 0.5702 0.5932 0.5605 0.5358 0.6024 0.7129 0.6897 0.6732
2671.634 0.8056 0.8713 0.8182 0.7706 0.7913 0.7503 0.7086 0.675 0.6532 0.6376
2690.924 0.662 0.7451 0.8138 0.886 0.9132 0.8442 0.8372 0.8827 0.9998 1.04
2710.214 0.9245 1.09 1.23 1.23 1.25 1.24 1.41 1.49 1.49 1.7
2729.504 1.85 1.98 2.15 2.27 2.46 2.55 2.58 2.6 2.47 2.42
2748.794 2.4 2.36 2.31 2.24 2.23 2.11 2.02 2.06 2.06 1.97
2768.083 1.96 2.01 2.03 2.09 2.15 2.15 2.06 2.04 2.15 2.16
2787.373 2.2 2.2 2.17 2.24 2.3 2.36 2.41 2.52 2.55 2.63
2806.663 2.8 2.86 2.95 3.09 3.2 3.39 3.55 3.71 3.94 4.09
2825.953 4.26 4.38 4.53 4.83 5.09 5.35 5.71 6.02 6.38 6.85
2845.242 7.34 7.9 8.43 9.13 9.9 10.68 11.66 12.64 13.6 14.71
2864.532 16.03 17.36 18.63 19.92 21.37 22.71 24 25.21 26.08 26.79
2883.822 27.36 27.84 28.11 28.36 28.52 28.49 28.46 28.63 28.79 28.94
2903.112 29.19 29.46 29.8 30.27 30.93 31.54 32.05 32.74 33.76 34.74
2922.401 35.69 36.73 37.73 38.68 39.65 40.58 41.38 41.93 42.3 42.5
2941.691 42.35 41.99 41.55 40.86 39.96 38.93 37.81 36.72 35.41 34.07
2960.981 32.89 31.76 30.76 29.71 28.74 27.66 26.35 25.28 24.41 23.53
2980.271 22.72 22 21.51 21.15 20.71 20.46 20.26 20.06 20.01 20.05
2999.561 20.01 20.14 20.27 20.29 20.43 20.4 20.34 20.44 20.37 20.3
3018.850 20.1 19.85 19.76 19.61 19.44 19.09 18.64 18.2 18.04 17.94
3038.140 17.39 16.94 16.61 16.06 15.5 15.08 14.68 14.27 13.74 13.27
3057.430 12.77 12.27 11.75 11.28 10.71 10.05 9.74 9.33 8.86 8.53
3076.720 8.13 7.61 7.28 7.08 6.75 6.34 5.87 5.61 5.38 5.25
3096.009 5.27 4.94 4.5 4.26 4.23 4.11 3.82 3.74 3.61 3.25
3115.299 3.16 3.16 2.99 2.9 2.96 2.86 2.71 2.6 2.45 2.52
3134.589 2.54 2.23 2.17 2.24 2.05 2.04 2.02 1.9 1.92 1.85
3153.879 1.58 1.56 1.7 1.76 1.82 1.63 1.66 1.76 1.58 1.59
3173.169 1.6 1.46 1.32 1.24 1.11 1.06 1.13 1.1 0.9598 0.8559
3192.458 0.9464 0.9535 0.8322 0.7854 0.8109 0.7043 0.7285 0.8449 0.9018 0.9062
3211.748 0.7221 0.6794 0.7932 0.736 0.609 0.582 0.6892 0.7868 0.755 0.7016
3231.038 0.5634 0.4559 0.5025 0.6658 0.6299 0.44 0.4 0.487 0.5603 0.4339
3250.328 0.4193 0.4734 0.5699 0.624 0.5247 0.6152 0.6097 0.4619 0.5003 0.545
3269.617 0.4532 0.4724 0.4451 0.3945 0.4667 0.4671 0.4151 0.4382 0.5522 0.6779
3288.907 0.6495 0.5567 0.5686 0.5003 0.4808 0.516 0.525 0.5072 0.5032 0.6762
3308.197 0.7004 0.6698 0.5569 0.445 0.4137 0.3972 0.5235 0.6096 0.5155 0.3704
3327.487 0.3646 0.3503 0.4175 0.5205 0.5264 0.4596 0.5162 0.558 0.3872 0.3815
3346.777 0.4757 0.4708 0.5707 0.5649 0.4279 0.5093 0.5319 0.3997 0.3869 0.3887
3366.066 0.4039 0.4484 0.5315 0.5256 0.4421 0.4126 0.3879 0.502 0.4402 0.2759
3385.356 0.3069 0.3395 0.3317 0.4288 0.4853 0.3158 0.3942 0.4861 0.3675 0.4457
3404.646 0.5341 0.5753 0.5838 0.5639 0.5962 0.5214 0.4576 0.5715 0.5747 0.3702
3423.936 0.2795 0.3054 0.5625 0.6283 0.3345 0.3119 0.347 0.3135 0.2912 0.2586
3443.225 0.2623 0.4495 0.504 0.4203 0.3346 0.3241 0.4641 0.3802 0.2354 0.2746
3462.515 0.427 0.4904 0.2949 0.2538 0.4271 0.345 0.2867 0.4659 0.5245 0.4567
3481.805 0.4658 0.5367 0.492 0.4102 0.4632 0.3313 0.3032 0.2553 0.1725 0.2845
3501.095 0.4227 0.5368 0.4354 0.3765 0.5115 0.5647 0.4469 0.4838 0.5195 0.4541
3520.385 0.4672 0.4345 0.4252 0.3942 0.3317 0.3059 0.3291 0.3421 0.3326 0.3546
3539.674 0.4274 0.5517 0.5424 0.3585 0.2971 0.4608 0.5785 0.4502 0.3124 0.3113
3558.964 0.2768 0.3134 0.3695 0.3745 0.3951 0.395 0.4575 0.4947 0.4463 0.3646
3578.254 0.3129 0.4079 0.3841 0.2982 0.2536 0.2385 0.3937 0.3494 0.3403 0.367
3597.544 0.2655 0.325 0.4986 0.549 0.354 0.2819 0.3212 0.2955 0.242 0.3095
3616.833 0.3653 0.224 0.1161 0.1922 0.2766 0.1661 0.1498 0.3681 0.4082 0.2025
3636.123 0.1571 0.2222 0.1659 0.224 0.1807 0.1469 0.2273 0.3082 0.3493 0.2263
3655.413 0.2662 0.3625 0.249 0.2205 0.2402 0.2486 0.3576 0.3106 0.2962 0.2716
3674.703 0.2117 0.2425 0.1606 0.2383 0.481 0.4433 0.2146 0.07207 0.03555 0.1793
3693.993 0.3626 0.5161 0.5325 0.3561 0.2728 0.345 0.5483 0.4312 0.1844 0.1862
3713.282 0.2281 0.2745 0.194 0.1212 0.08328 0.1945 0.3479 0.2969 0.2972 0.2679
3732.572 0.2028 0.3012 0.4182 0.3069 0.2393 0.2166 0.2062 0.2815 0.2388 0.2377
3751.862 0.3076 0.399 0.3905 0.4159 0.4045 0.3544 0.3571 0.3332 0.3195 0.3709
3771.152 0.5491 0.4362 0.2385 0.1231 0.1388 0.2739 0.3678 0.4263 0.237 0.05679
3790.441 0.1701 0.2649 0.3638 0.2654 0.1829 0.3538 0.4621 0.4504 0.4129 0.4332
3809.731 0.251 0.2016 0.2587 0.2208 0.2385 0.2346 0.1942 0.2554 0.3613 0.2063
3829.021 0.2713 0.5447 0.4826 0.2574 0.07745 0.1505 0.2472 0.1473 0.1411 0.2426
3848.311 0.4191 0.4737 0.4194 0.3528 0.265 0.2769 0.1465 0.2115 0.4151 0.3886
3867.601 0.5508 0.6197 0.3818 0.2156 0.2013 0.2871 0.2979 0.283 0.3274 0.386
3886.890 0.4837 0.5672 0.4851 0.3238 0.3816 0.5636 0.5613 0.5255 0.5331 0.6338
3906.180 0.6689 0.6649 0.6007 0.5076 0.5409 0.5458 0.569 0.4754 0.3554 0.4407
3925.470 0.5452 0.4081 0.4458 0.5052 0.4688 0.5737 0.4309 0.3765 0.634 0.6184
3944.760 0.5582 0.6009 0.734 0.7725 0.5074 0.4715 0.5085 0.4057 0.3623 0.6506
3964.049 0.8075 0.6549 0.6214 0.6319 0.4871 0.3445 0.3674 0.3476 0.3542 0.3713
3983.339 0.4355 0.5269 0.3839 0.2716 0.3959 0.4963 0.5294 0.5477 0.4822 0.4625
##END=
