##TITLE=Hexamethylenechloroiodide
##JCAMP-DX=4.24
##DATA TYPE=INFRARED SPECTRUM
##ORIGIN=EPA-IR VAPOR PHASE LIBRARY
##OWNER=SRD/NIST
Collection (C) 2018 copyright by the U.S. Secretary of Commerce
on behalf of the United States of America. All rights reserved.
##CAS REGISTRY NO=34683-73-3
##MOLFORM=C 6 H 12 Cl I
##$NIST SOURCE=MSDC-IR
##STATE=gas
##XUNITS=1/CM
##YUNITS=ABSORBANCE
##XFACTOR=1.
##YFACTOR=0.001
##DELTAX=3.85796
##FIRSTX=501.5
##LASTX=4000.7
##FIRSTY=1.9524
##MAXX=4000.7
##MINX=501.534
##MAXY=0.0553124
##MINY=0
##NPOINTS=908
##XYDATA=(X++(Y..Y))
501.534 1.9524 2.0124 1.9924 1.9124 1.6524 1.4624 1.3124 1.1324 1.0424 0.8662
540.114 0.6426 0.6147 0.6384 0.6508 0.6928 0.7416 0.8246 0.8627 1.0239 1.2724
578.693 1.5024 1.8324 2.2924 2.9624 3.5424 3.7524 3.6224 3.1624 2.5624 2.0824
617.273 1.7524 1.5324 1.5524 1.7624 2.0124 2.3124 2.8224 3.5024 4.3824 5.5024
655.852 6.6724 7.5524 7.7024 6.9224 5.6024 4.4024 3.5724 3.0324 2.8124 2.8024
694.432 2.9024 3.1124 3.5724 4.3024 5.2224 6.3524 7.6124 8.7924 9.8024 10.5024
733.011 10.9924 11.1824 10.8624 10.1524 9.1324 8.0024 7.0724 6.2124 5.4124 4.7524
771.591 4.2724 3.9624 3.7824 3.7024 3.5924 3.4724 3.3024 3.0724 2.9124 2.7724
810.170 2.6424 2.5624 2.4724 2.3324 2.2424 2.2524 2.2824 2.2824 2.2524 2.2224
848.750 2.1424 2.1124 2.0724 2.0124 1.9324 1.8924 1.9324 1.9724 2.0324 2.1024
887.330 2.1824 2.3724 2.5824 2.6724 2.6824 2.6324 2.5524 2.4424 2.2824 2.1224
925.909 2.0024 1.9524 1.8924 1.8024 1.7824 1.7724 1.6924 1.6224 1.5924 1.5424
964.489 1.5024 1.4724 1.4724 1.4724 1.4424 1.3924 1.3724 1.4624 1.5124 1.5024
1003.068 1.5524 1.6424 1.6724 1.7224 1.8324 1.9124 1.9124 1.9024 1.9724 1.9024
1041.648 1.7624 1.5924 1.5124 1.5124 1.4924 1.4424 1.3724 1.2924 1.2624 1.2524
1080.227 1.1724 1.1124 1.0281 0.9357 0.9298 0.9369 0.9589 1.006 1.1024 1.3024
1118.807 1.4824 1.7024 1.8824 2.1124 2.4724 2.7124 3.0124 3.5124 4.1024 4.8324
1157.387 5.7524 6.8124 7.9124 9.0524 10.2824 11.5524 12.5524 13.1824 13.3224 12.9124
1195.966 12.5924 12.5124 12.4224 12.2924 11.9524 11.4124 10.8724 10.6124 10.5824 10.5424
1234.546 10.6224 10.9424 11.2924 11.5424 11.6424 11.6424 11.4624 11.0424 10.5824 10.3524
1273.125 10.3324 10.3324 10.5224 10.9624 11.5024 11.8924 11.9424 11.7024 11.3324 10.8624
1311.705 10.1924 9.2824 8.3124 7.3624 6.4624 5.7424 5.2724 5.1424 5.3324 5.6424
1350.284 5.8124 5.6224 5.0924 4.4824 3.9424 3.4724 3.0424 2.6524 2.2624 1.9324
1388.864 1.7224 1.6324 1.6224 1.6924 1.8124 2.0024 2.3324 2.8524 3.5924 4.6624
1427.443 6.0724 7.5924 8.8324 9.6924 10.4524 11.4424 12.3024 12.4524 11.5924 10.1424
1466.023 8.4724 6.7924 5.2424 3.9724 3.0424 2.3724 1.9224 1.6124 1.3924 1.2424
1504.603 1.1324 1.0624 0.9748 0.9004 0.827 0.7648 0.7497 0.7215 0.6836 0.6578
1543.182 0.6167 0.5937 0.5868 0.5651 0.5255 0.5041 0.4982 0.4888 0.4711 0.4582
1581.762 0.4489 0.4267 0.4033 0.3814 0.3844 0.3817 0.3529 0.3172 0.3018 0.2855
1620.341 0.2725 0.271 0.2823 0.2757 0.2536 0.2621 0.2614 0.2368 0.2172 0.2041
1658.921 0.1972 0.1983 0.1925 0.1785 0.1674 0.1469 0.1414 0.1387 0.12976 0.1381
1697.500 0.12944 0.1239 0.145 0.1443 0.12165 0.10892 0.10917 0.10572 0.10073 0.09498
1736.080 0.07885 0.07717 0.09365 0.10779 0.11887 0.12786 0.13168 0.13012 0.1386 0.1482
1774.659 0.1504 0.1559 0.1758 0.1765 0.1787 0.204 0.2062 0.1893 0.1859 0.2004
1813.239 0.206 0.2116 0.2097 0.2026 0.1972 0.1951 0.1911 0.1983 0.2092 0.2206
1851.819 0.2199 0.2066 0.214 0.2203 0.2118 0.2103 0.229 0.2319 0.2242 0.2159
1890.398 0.2146 0.2262 0.225 0.2234 0.2343 0.235 0.2286 0.2247 0.2324 0.2367
1928.978 0.2394 0.2505 0.2536 0.2549 0.2545 0.2479 0.2482 0.2476 0.2493 0.2508
1967.557 0.2448 0.2324 0.226 0.2294 0.2444 0.256 0.2477 0.2507 0.2576 0.2663
2006.137 0.2833 0.3016 0.3141 0.3305 0.3482 0.3426 0.3443 0.368 0.3872 0.3973
2044.716 0.389 0.3848 0.3779 0.364 0.35 0.3485 0.3528 0.3506 0.3464 0.34
2083.296 0.3438 0.3357 0.3283 0.3361 0.3434 0.3522 0.3498 0.3422 0.3557 0.3547
2121.875 0.3539 0.3742 0.3656 0.3505 0.3544 0.3667 0.3745 0.3726 0.3814 0.374
2160.455 0.374 0.3962 0.4107 0.4096 0.3981 0.4176 0.4439 0.4331 0.4342 0.4527
2199.035 0.4424 0.4242 0.4224 0.418 0.4018 0.3909 0.4 0.4067 0.3953 0.3859
2237.614 0.3735 0.3661 0.3558 0.3473 0.3601 0.3575 0.3502 0.3476 0.3591 0.3686
2276.194 0.3561 0.3468 0.358 0.3633 0.3626 0.3764 0.3819 0.3744 0.3604 0.3623
2314.773 0.3837 0.3919 0.3955 0.4145 0.4065 0.3969 0.4142 0.4132 0.4124 0.4104
2353.353 0.3899 0.3801 0.3934 0.4311 0.4388 0.4113 0.4157 0.4317 0.409 0.4024
2391.932 0.4121 0.4111 0.3964 0.3816 0.379 0.3699 0.3621 0.3562 0.3536 0.3473
2430.512 0.3445 0.3343 0.3165 0.3025 0.3015 0.3036 0.2931 0.2585 0.2448 0.2892
2469.092 0.3186 0.3065 0.2999 0.3028 0.32 0.3279 0.3192 0.3231 0.3315 0.3532
2507.671 0.3635 0.3527 0.3429 0.3407 0.3515 0.3438 0.3401 0.3525 0.326 0.3225
2546.251 0.3106 0.303 0.3237 0.3134 0.32 0.3416 0.3647 0.3686 0.3791 0.3995
2584.830 0.4084 0.4372 0.4465 0.4479 0.4861 0.5003 0.4876 0.5028 0.5345 0.5496
2623.410 0.5467 0.5457 0.5472 0.5844 0.6188 0.6195 0.6147 0.6128 0.6317 0.6546
2661.989 0.6785 0.7126 0.7381 0.7533 0.7749 0.8067 0.8311 0.818 0.8255 0.8366
2700.569 0.795 0.7669 0.7573 0.7587 0.7885 0.8118 0.7873 0.786 0.8184 0.8256
2739.148 0.7973 0.7955 0.8237 0.8164 0.8346 0.8693 0.8869 0.9344 0.9805 0.9872
2777.728 1.0524 1.1524 1.2124 1.2824 1.3724 1.5024 1.6524 1.8024 1.9924 2.2024
2816.308 2.4524 2.8024 3.2524 3.8224 4.6624 5.8224 7.2924 9.0124 10.9124 12.8924
2854.887 14.8624 16.7824 18.4524 19.5524 19.8324 19.4124 18.5724 17.5824 16.7024 16.1924
2893.467 16.1924 16.7224 17.5924 18.7224 20.1824 22.0224 24.4424 27.7724 31.9924 37.0024
2932.046 42.7224 48.6324 53.4024 55.3124 53.4524 48.6724 43.2524 39.0624 36.0924 33.1224
2970.626 29.3124 24.9424 20.7124 17.2124 14.8824 13.7824 13.8024 14.0324 13.3324 11.5624
3009.205 9.6924 8.3924 7.2824 6.0124 4.7224 3.6224 2.8324 2.3124 1.9624 1.7224
3047.785 1.5324 1.3824 1.2524 1.1124 0.9911 0.9187 0.8783 0.8333 0.7313 0.64
3086.364 0.6045 0.5691 0.5274 0.472 0.4397 0.4434 0.4437 0.4261 0.4021 0.4006
3124.944 0.374 0.3453 0.3292 0.2937 0.2703 0.2879 0.3104 0.3094 0.3436 0.3232
3163.524 0.2762 0.2814 0.282 0.268 0.2808 0.2923 0.2642 0.2442 0.2242 0.2122
3202.103 0.1904 0.1654 0.1826 0.2014 0.1572 0.1475 0.1787 0.1479 0.1663 0.1608
3240.683 0.11543 0.1329 0.12208 0.10093 0.05891 0.07236 0.11343 0.1163 0.1391 0.11177
3279.262 0.09126 0.10004 0.11717 0.1228 0.12715 0.1389 0.1667 0.1823 0.1495 0.12655
3317.842 0.12665 0.11798 0.06815 0.10062 0.10968 0.07786 0.09031 0.06842 0.06799 0.11406
3356.421 0.1357 0.10179 0.05345 0.05525 0.08623 0.11636 0.1437 0.1277 0.12173 0.10969
3395.001 0.07995 0.08737 0.148 0.1458 0.08776 0.06086 0.06785 0.09061 0.10626 0.0877
3433.580 0.09358 0.10933 0.07979 0.06906 0.09337 0.10102 0.09055 0.08468 0.10252 0.1415
3472.160 0.12996 0.12626 0.09733 0.07497 0.11824 0.09507 0.037264 0.03106 0.0011 0.02706
3510.740 0.040536 0.0087 0.07081 0.08382 0.04454 0.0056 0.0083 0.05178 0.10935 0.06879
3549.319 0 0.02541 0.0127 0.02527 0.04475 0.06913 0.08431 0.11755 0.09948 0.08459
3587.899 0.13214 0.08195 0.07323 0.12928 0.1625 0.1533 0.10076 0.08324 0.10818 0.10829
3626.478 0.09102 0.11068 0.156 0.204 0.2267 0.2324 0.1862 0.1517 0.1598 0.1452
3665.058 0.1565 0.1684 0.1788 0.171 0.14 0.12716 0.1366 0.1752 0.191 0.1626
3703.637 0.1608 0.1526 0.1331 0.1359 0.1934 0.2079 0.1309 0.10413 0.1361 0.1356
3742.217 0.1426 0.1771 0.1807 0.1687 0.1782 0.1839 0.1841 0.2111 0.1979 0.1666
3780.797 0.1403 0.1715 0.2128 0.2638 0.2435 0.11927 0.11318 0.1818 0.1738 0.1681
3819.376 0.1779 0.2031 0.2094 0.1533 0.1399 0.1798 0.199 0.2006 0.1869 0.1347
3857.956 0.1369 0.1537 0.1847 0.199 0.2119 0.2347 0.1853 0.19 0.2048 0.1656
3896.535 0.11956 0.1329 0.1879 0.2229 0.2201 0.2198 0.2179 0.2163 0.1865 0.1874
3935.115 0.2227 0.2404 0.2223 0.2227 0.2422 0.1752 0.1731 0.1823 0.1699 0.1804
3973.694 0.2504 0.2642 0.2676 0.2935 0.2815 0.3206 0.2895 0.2574
##END=
