##TITLE=Mesitylacetonitrile
##JCAMP-DX=4.24
##DATA TYPE=INFRARED SPECTRUM
##ORIGIN=EPA-IR VAPOR PHASE LIBRARY
##OWNER=SRD/NIST
Collection (C) 2018 copyright by the U.S. Secretary of Commerce
on behalf of the United States of America. All rights reserved.
##CAS REGISTRY NO=34688-71-6
##MOLFORM=C 11 H 13 N
##$NIST SOURCE=MSDC-IR
##STATE=gas
##XUNITS=1/CM
##YUNITS=ABSORBANCE
##XFACTOR=1.
##YFACTOR=0.001
##DELTAX=1.92898
##FIRSTX=549.8
##LASTX=4000.7
##FIRSTY=2.0625
##MAXX=4000.7
##MINX=549.759
##MAXY=0.02941
##MINY=0
##NPOINTS=1790
##XYDATA=(X++(Y..Y))
549.759 2.0625 1.49468 1.8618 2.29 1.6148 1.119 1.126 1.374 1.8981 2.0613
569.049 1.9947 1.56381 1.49748 2.264 2.483 2.0036 2.0182 2.66 3.21 3.2
588.339 3.11 2.4565 1.7907 2.2942 2.61 2.3436 2.0611 1.5736 1.308 1.303
607.628 1.6108 1.7087 1.6666 2.0547 1.9309 1.8971 1.7346 1.54558 1.55019 1.56053
626.918 1.7362 1.309 1.352 1.7677 1.7555 1.8001 1.911 2.0619 1.811 1.5418
646.208 1.9736 2.0262 1.6766 1.4722 1.9519 2.4838 2.0587 1.4202 1.6354 1.9242
665.498 1.6574 1.7956 1.9947 1.7668 1.9177 2.2147 2.0104 2.0475 2.0758 2.2573
684.787 2.2302 2.3689 2.4405 2.53 3 3.42 3.87 3.84 3.79 4.06
704.077 4.44 4.5 4.22 3.59 3.31 2.96 2.62 2.64 2.3851 1.8006
723.367 1.374 1.348 1.55509 1.8817 1.8265 1.811 1.7767 1.323 1.4552 1.759
742.657 1.8933 1.9579 1.7079 2.1767 2.0557 1.7617 2.0934 1.57552 1.55036 1.9229
761.947 1.7692 1.9704 2.4506 2.83 2.78 2.88 3.18 3.62 4.03 3.7
781.236 3.7 3.61 3.24 3.1 2.51 2.2433 2.2951 1.8198 2.1394 2.58
800.526 2.1661 1.8511 1.6166 1.7605 1.8704 1.6804 1.6247 1.338 1.49457 2.63
819.816 2.65 2.1131 2.57 3.04 3.2 3.24 3.73 4.87 6.09 6.95
839.106 8.05 9.45 10.49 11.91 13.49 14.85 14.32 11.86 10.08 9.39
858.395 8.53 7.12 5.9 4.79 3.72 3.44 3.33 2.58 2.2333 2.4527
877.685 2.67 2.78 2.54 2.3861 2.4112 1.9641 1.8284 1.7465 1.231 1.301
896.975 1.352 1.51105 2.0222 2.2621 2.2502 2.3315 2.88 2.82 2.53 2.7
916.265 2.99 2.96 2.4117 2.4526 2.9 2.76 2.66 2.95 3.12 3.14
935.555 3.09 2.83 2.51 2.68 2.81 2.74 3.15 3.11 2.67 2.85
954.844 3.16 3.01 2.93 3.03 3.04 3.14 2.87 2.52 2.59 2.74
974.134 2.3203 2.4515 2.51 2.2252 2.53 2.53 2.4548 2.93 3.15 2.87
993.424 2.9 2.56 2.87 3.22 3.01 3.47 3.51 3.43 3.61 3.88
1012.714 4.14 4.23 4.11 4.13 4.89 4.81 4.1 4.07 4.56 4.42
1032.003 4.48 4.8 3.95 3.65 3.39 3.25 3.17 2.97 2.99 2.74
1051.293 2.68 2.4952 2.124 2.139 2.3769 2.1951 2.2177 2.64 2.51 2.1673
1070.583 1.871 1.8645 2.4717 2.4145 2.58 2.59 1.51363 1.344 2.65 2.88
1089.873 2.1966 1.678 2.0451 1.8472 1.296 2.0424 1.351 1.092 1.9142 1.7819
1109.163 2.2375 1.9367 0.3 0.18 1.16 1.8689 2.68 2.99 2.66 2.62
1128.452 2.356 2.0473 1.6495 1.8812 2.65 2.65 2.165 1.814 1.5831 2.4857
1147.742 2.4238 1.7578 1.56701 0.76 1.274 1.8832 1.8834 2.466 2.4501 2.0372
1167.032 1.9343 1.8025 1.5588 1.6203 1.4602 1.4117 1.8618 2.3022 2.96 4
1186.322 3.72 2.1566 1.9544 2.7 2.55 2.4213 3.08 2.77 3.44 4.26
1205.611 3.06 2.71 2.57 1.902 1.6346 1.9013 2.1837 1.9877 1.4852 1.4611
1224.901 0.962 0 0.17 0.562 1.943 2.57 1.92 1.8724 2.2035 1.7742
1244.191 1.8389 1.6455 1.338 1.58922 1.8855 2.1363 1.8371 1.8285 1.9249 2.0928
1263.481 1.9321 1.7724 1.9328 2.0161 2.4031 2.481 2.55 2.92 2.64 2.0723
1282.771 2.51 3.03 2.79 3.1 3.3 3.36 3.31 3.25 3.3 3.05
1302.060 2.9 2.89 2.85 2.73 2.63 2.4177 2.4462 2.59 2.59 2.59
1321.350 2.68 2.67 2.64 2.63 2.69 2.68 2.53 2.58 2.7 2.79
1340.640 2.78 2.74 2.68 2.76 2.91 3.1 3.03 2.9 3 3.07
1359.930 3.25 3.34 3.3 3.43 3.57 3.7 3.77 3.96 4.28 4.5
1379.219 4.82 5.03 5.16 5.31 5.46 5.49 5.52 5.44 5.12 4.7
1398.509 4.4 4.29 4.3 4.46 4.46 4.49 4.67 5.01 5.57 6.09
1417.799 6.78 7.71 8.56 9.53 10.54 11.47 12.44 13.25 13.75 14.19
1437.089 14.58 14.64 14.63 14.62 14.45 14.14 13.92 13.66 13.39 13.19
1456.378 12.84 12.44 12.22 12.09 11.99 11.97 12.05 12.31 12.67 13.03
1475.668 13.39 13.85 14.06 13.98 13.93 13.63 13 12.19 11.38 10.54
1494.958 9.54 8.7 8.02 7.55 7.17 6.77 6.54 6.43 6.35 6.27
1514.248 6.19 6.24 6.28 6.13 6.06 6.12 5.97 5.84 5.95 5.87
1533.538 5.85 5.79 5.56 5.58 5.45 5.27 5.39 5.55 5.66 5.76
1552.827 5.99 6.07 5.99 6.14 6.4 6.57 6.76 6.93 6.93 6.97
1572.117 6.86 6.93 7.15 7.12 7.07 7.07 6.89 6.82 6.96 7
1591.407 7 6.98 7.16 7.66 8.28 8.9 9.76 10.6 11.25 11.84
1610.697 12.13 11.94 11.35 10.55 9.48 8.34 7.14 5.71 4.59 3.84
1629.986 3.24 2.94 2.72 2.4358 2.2808 2.2062 2.198 2.165 2.0548 2.1169
1649.276 2.2063 2.0857 1.9692 2.0466 2.0565 1.9659 1.8591 1.889 1.9807 2.0183
1668.566 2.0087 1.9683 1.8791 1.8189 1.771 1.7687 1.8382 1.9151 1.8722 1.8475
1687.856 1.8168 1.9365 2.2212 2.1876 2.2701 2.3395 2.1877 2.126 2.1687 2.2881
1707.146 2.4249 2.4253 2.52 2.75 2.91 2.8 2.79 3.1 3.23 3.15
1726.435 3.1 3.09 2.96 2.69 2.57 2.64 2.4998 2.2724 2.3199 2.328
1745.725 2.2303 2.3418 2.3413 2.2083 2.2674 2.3317 2.3077 2.2723 2.1998 2.1287
1765.015 2.0016 1.8055 1.7319 1.8224 1.8701 1.809 1.8234 1.8172 1.785 1.7878
1784.305 1.8079 1.886 1.8381 1.8484 1.7959 1.706 1.7471 1.6954 1.6899 1.7216
1803.594 1.7998 1.8574 1.7737 1.7318 1.7466 1.6714 1.6966 1.8043 1.7082 1.58448
1822.884 1.6488 1.7321 1.758 1.8892 1.9504 1.9368 1.8431 1.6845 1.5708 1.6176
1842.174 1.6869 1.6973 1.6872 1.6996 1.641 1.6326 1.7892 1.7415 1.6776 1.7148
1861.464 1.7287 1.7275 1.8003 1.7653 1.7421 1.7627 1.8013 1.7945 1.8212 1.9703
1880.754 1.8934 1.679 1.6928 1.8771 1.9336 1.9299 2.0077 1.9799 1.8118 1.7868
1900.043 1.8937 1.944 1.8724 1.8123 1.895 1.9207 1.8455 1.8703 1.9854 2.0148
1919.333 1.9892 1.8805 1.8193 1.7246 1.55983 1.76 1.8479 1.809 1.8458 1.8056
1938.623 1.7458 1.7999 1.8638 1.7668 1.8259 1.8875 1.7724 1.7789 1.8179 1.6666
1957.913 1.58236 1.694 1.8313 1.8329 1.7296 1.7056 1.7986 1.8494 1.7698 1.691
1977.202 1.6747 1.6195 1.53908 1.52913 1.52181 1.53496 1.54364 1.54797 1.6328 1.6547
1996.492 1.57934 1.6012 1.6037 1.6669 1.7156 1.5436 1.4029 1.4337 1.55785 1.58736
2015.782 1.6338 1.7193 1.6772 1.6264 1.689 1.669 1.6708 1.7032 1.6536 1.57249
2035.072 1.52558 1.541 1.6149 1.7852 1.8209 1.7856 1.7383 1.8161 1.9006 1.7788
2054.362 1.6595 1.6353 1.7368 1.6999 1.631 1.7124 1.8505 1.8213 1.7059 1.757
2073.651 1.7483 1.7353 1.6693 1.616 1.7162 1.7469 1.7818 1.7606 1.7266 1.58689
2092.941 1.55638 1.7496 1.7705 1.8095 1.7611 1.6406 1.49695 1.6576 1.8668 1.8243
2112.231 1.7137 1.50984 1.54754 1.7219 1.8168 1.7471 1.7422 1.7996 1.7343 1.7495
2131.521 1.6818 1.55107 1.6771 1.7212 1.6912 1.601 1.662 1.8086 1.7914 1.8291
2150.810 1.8087 1.7835 1.8139 1.9543 1.94 1.7159 1.7475 1.8793 1.9363 2.0272
2170.100 1.8705 1.6912 1.6648 1.6851 1.8193 1.9898 1.9228 1.8164 1.725 1.56251
2189.390 1.6395 1.7856 1.711 1.6292 1.6256 1.686 1.7432 1.6534 1.6843 1.8232
2208.680 1.8929 1.7298 1.6589 1.7632 1.9288 2.0498 2.004 1.9126 1.9045 1.965
2227.970 1.8264 1.7528 2.0036 2.1452 2.3048 2.53 2.71 2.94 2.97 3.2
2247.259 3.39 3.47 3.62 3.53 3.37 3.15 2.97 2.82 2.51 2.2788
2266.549 2.1126 1.9268 1.8966 1.8697 1.7142 1.7151 1.7395 1.6619 1.7103 1.7507
2285.839 1.7351 1.6151 1.6312 1.743 1.832 1.7536 1.6034 1.57476 1.52668 1.59685
2305.129 1.7218 1.8069 1.7889 1.7972 1.8567 1.9144 1.8044 1.7029 1.6812 1.6994
2324.418 1.715 1.6552 1.57732 1.55828 1.6757 1.8142 1.6711 1.661 1.7513 1.59344
2343.708 1.679 1.657 1.50866 1.607 1.7948 1.8571 1.8549 1.8099 1.8387 1.8342
2362.998 1.7534 1.8228 1.7752 1.6642 1.6494 1.4767 1.4728 1.6456 1.6756 1.806
2382.288 1.7655 1.713 1.7541 1.8776 1.8724 1.8124 1.9944 1.9754 1.8897 1.9357
2401.578 2.0403 1.9363 1.8537 1.9623 1.9256 1.8488 1.9867 2.0996 2.0317 1.8713
2420.867 1.7655 1.7859 1.8802 1.9226 1.8031 1.6911 1.7157 1.7012 1.7206 1.8164
2440.157 1.8803 1.9342 1.879 1.8351 1.9585 2.0713 1.8082 1.625 1.7021 1.866
2459.447 2.0653 2.2355 2.0852 1.7884 1.8869 1.9217 1.8057 1.754 1.55106 1.7177
2478.737 2.113 1.9619 1.8525 1.8183 1.7794 1.8135 1.8365 1.9007 1.8031 1.7384
2498.026 1.6471 1.667 1.8771 1.7396 1.6916 1.7724 1.7849 1.723 1.6741 1.8123
2517.316 1.7622 1.8675 1.9858 1.8469 1.8251 1.651 1.53369 1.59019 1.59273 1.6953
2536.606 1.8007 1.7192 1.6701 1.738 1.7382 1.7695 1.8342 1.8006 1.8922 2.04
2555.896 1.8694 1.69 1.7934 1.7838 1.6707 1.7715 1.7483 1.6508 1.8265 1.8987
2575.186 1.6955 1.7773 1.836 1.7957 1.9146 1.9333 1.7797 1.79 1.8475 1.7911
2594.475 1.7616 1.6536 1.6458 1.958 2.0584 1.8551 1.8236 1.6859 1.6249 1.7677
2613.765 1.7767 1.7817 1.835 1.9615 2.0166 1.8255 1.53052 1.52517 1.8007 1.9567
2633.055 1.8249 1.7814 1.812 1.8538 1.962 1.8727 1.718 1.7406 1.848 1.8245
2652.345 1.7675 1.6646 1.6457 1.8596 1.9236 1.725 1.6044 1.6992 1.9133 1.9122
2671.634 1.875 1.8029 1.8306 1.8417 1.8582 1.9314 1.9345 1.9507 1.6464 1.6449
2690.924 1.8747 1.8688 1.9185 1.8322 1.9052 2.0282 2.0275 2.1862 2.1897 1.966
2710.214 1.8352 2.0749 2.2828 2.221 2.1124 2.1817 2.3331 2.3154 2.299 2.3311
2729.504 2.5 2.66 2.82 2.95 2.88 3.08 3.23 3.16 3.26 3.25
2748.794 3.15 3.15 3.12 2.9 2.76 2.77 2.57 2.3703 2.2767 2.2254
2768.083 2.3402 2.4096 2.4764 2.3382 2.1599 2.3206 2.4509 2.6 2.7 2.6
2787.373 2.53 2.4858 2.4965 2.3132 2.2182 2.4207 2.61 2.69 2.59 2.6
2806.663 2.64 2.78 2.91 2.99 3.16 3.13 3.09 3.19 3.34 3.31
2825.953 3.2 3.29 3.49 3.76 4 4.04 4.22 4.49 4.78 5.13
2845.242 5.43 5.86 6.19 6.57 7.19 7.63 8.02 8.6 9.32 10.19
2864.532 10.96 11.88 13.06 13.72 14.17 14.56 14.63 14.66 14.47 14.03
2883.822 14 13.83 13.07 12.61 12.33 12.22 12.3 12.45 12.66 12.81
2903.112 12.92 13.34 13.82 14.33 15.2 16.42 18.05 19.5 20.99 22.64
2922.401 24.16 25.61 27.1 28.44 29.25 29.41 29.12 28.4 27.27 26.1
2941.691 24.79 23.37 21.97 20.75 20.14 19.37 18.89 18.82 18.39 18.02
2960.981 17.86 17.38 16.79 16.55 16.14 16.01 16.17 16.26 16.28 16.41
2980.271 16.49 16.68 16.79 16.69 16.64 16.25 16.03 15.81 15.58 15.39
2999.561 15.13 15.24 15.62 16.01 16.47 16.79 16.8 17.24 17.7 17.83
3018.850 17.79 17.53 17.31 17.02 16.3 15.7 15.32 14.65 13.97 13.19
3038.140 12.73 12.32 11.87 11.58 10.95 10.33 9.81 9.38 9.14 8.79
3057.430 8.21 7.65 7.43 7.14 6.73 6.51 6.13 5.81 5.58 5.24
3076.720 5.04 4.85 4.7 4.62 4.4 4.1 4.09 4.1 4.1 3.94
3096.009 3.71 3.71 3.64 3.62 3.55 3.57 3.71 3.41 3.2 3.36
3115.299 3.18 2.87 2.74 2.64 2.67 2.66 2.67 2.53 2.3685 2.4453
3134.589 2.4954 2.55 2.4577 2.2656 2.0809 2.1214 2.2254 2.3197 2.64 2.75
3153.879 2.55 2.4395 2.3783 2.4097 2.4618 2.62 2.52 2.268 2.2077 2.3309
3173.169 2.55 2.73 2.72 2.3039 2.2429 2.331 2.0146 2.0274 1.9998 1.773
3192.458 2.0337 2.0268 1.7988 1.9599 1.8579 1.9185 2.0917 1.8034 1.6671 1.8655
3211.748 1.969 1.773 1.6261 1.54982 1.684 1.9222 1.9816 1.6398 1.384 1.4144
3231.038 1.6161 1.8162 1.6551 1.6547 1.8326 1.7179 1.54679 1.6309 1.54989 1.5578
3250.328 1.6889 1.8473 1.881 1.6429 1.53402 1.6633 1.9158 1.8039 1.414 1.321
3269.617 1.486 1.6126 1.7452 1.9476 1.9804 1.9025 1.7824 1.6115 1.52307 1.7817
3288.907 1.8574 1.8084 1.9675 1.7461 1.369 1.18 1.286 1.5227 1.7217 1.57536
3308.197 1.4255 1.4544 1.57599 1.619 1.7285 1.7039 1.4227 1.4518 1.4828 1.6975
3327.487 1.7603 1.6387 1.4217 1.184 1.284 1.7846 1.7951 1.6808 1.8015 1.6744
3346.777 1.8511 2.0196 1.7747 1.6489 1.57867 1.4702 1.393 1.269 1.57994 1.8566
3366.066 1.713 1.5731 1.58492 1.6189 1.6728 1.52871 1.59222 1.603 1.288 1.337
3385.356 1.307 1.27 1.58507 1.6982 1.6087 1.4808 1.254 1.071 1.4081 1.6614
3404.646 1.6038 1.609 1.49681 1.6136 1.7664 1.6757 1.5688 1.312 1.067 1.038
3423.936 1.286 1.58701 1.57397 1.7391 1.93 1.54558 1.178 1.291 1.53885 1.49264
3443.225 1.345 1.285 1.324 1.118 1.066 1.267 1.35 1.4888 1.35 1.4426
3462.515 1.5464 1.51151 1.4273 1.293 1.376 1.6435 1.8168 1.7378 1.6733 1.911
3481.805 1.8409 1.4227 1.191 1.354 1.4803 1.4106 1.4836 1.397 1.389 1.6902
3501.095 1.6726 1.408 1.25 1.127 1.4492 1.9418 2.1117 1.8139 1.35 1.56504
3520.385 1.8149 1.7978 1.6996 1.347 1.339 1.6671 1.7829 1.7094 1.6359 1.4428
3539.674 1.52797 1.8161 1.8131 1.6643 1.7638 1.9408 2.0559 1.9749 1.6757 1.4589
3558.964 1.383 1.358 1.6363 1.777 1.8313 1.6428 1.6293 1.56045 1.173 1.4186
3578.254 1.50618 1.6385 1.9916 1.9769 1.6646 1.58711 1.7277 1.52301 1.344 1.6945
3597.544 1.8654 1.867 1.655 1.4148 1.4408 1.55785 1.7585 1.4705 1.407 1.7173
3616.833 1.6164 1.58672 1.7438 1.6267 1.338 1.319 1.4719 1.332 1.4362 1.5699
3636.123 1.385 1.345 1.37 1.50598 1.57869 1.4688 1.389 1.4428 1.6993 1.8359
3655.413 1.601 1.335 1.6381 1.9751 1.6529 1.51572 1.343 1.55785 1.8173 1.57941
3674.703 1.878 1.9491 1.57892 1.287 1.246 1.333 1.4549 1.4732 1.324 1.328
3693.993 1.8091 2.0589 1.9338 1.7987 1.8765 1.8228 1.51401 1.6561 1.724 1.50702
3713.282 1.6614 1.4802 1.323 1.55572 1.374 1.50644 1.6837 1.7406 1.7741 1.58729
3732.572 1.51769 1.52888 1.783 1.613 1.661 1.9141 1.7276 1.9623 2.112 1.9378
3751.862 1.8714 1.6229 1.395 1.5466 1.6943 1.7406 1.6914 1.67 1.645 1.4732
3771.152 1.4509 1.4264 1.274 1.375 1.18 1.18 1.311 1.372 1.6767 1.6159
3790.441 1.7076 1.646 1.282 1.164 1.252 1.56523 1.7081 1.449 1.4139 1.50449
3809.731 1.378 1.341 1.53975 1.6134 1.57408 1.51693 1.4591 1.351 1.35 1.6147
3829.021 1.4019 1.12 1.49115 1.8898 1.6701 1.4401 1.7454 1.8079 1.56421 1.5722
3848.311 1.6068 1.5579 1.8772 2.2634 1.9958 1.6761 1.58532 1.8468 2.0134 1.7275
3867.601 1.49036 1.4438 1.6104 1.4753 1.4555 1.6938 1.6766 1.6585 1.7331 1.49378
3886.890 1.7304 1.9405 2.0028 2.1969 1.9593 1.8701 1.9043 2.2288 2.176 1.7545
3906.180 1.7907 1.7498 1.6342 1.6577 2.005 2.0183 1.313 0.986 1.107 1.4822
3925.470 1.7786 1.8494 1.9391 1.9298 1.4717 1.4199 1.7376 1.7691 1.7221 1.7124
3944.760 1.54246 1.383 1.45 1.34 1.366 1.49328 1.6978 1.8914 1.7872 1.692
3964.049 1.4063 1.6451 2.0379 1.7453 1.7575 1.57847 1.4157 1.7213 1.9012 1.6017
3983.339 1.6416 2.0244 1.9067 1.59941 1.667 1.8172 1.50045 1.4146 1.50141 1.366
##END=
