##TITLE=2,3-Diphenylindole
##JCAMP-DX=4.24
##DATA TYPE=INFRARED SPECTRUM
##ORIGIN=EPA-IR VAPOR PHASE LIBRARY
##OWNER=SRD/NIST
Collection (C) 2018 copyright by the U.S. Secretary of Commerce
on behalf of the United States of America. All rights reserved.
##CAS REGISTRY NO=3469-20-3
##MOLFORM=C 20 H 15 N
##$NIST SOURCE=MSDC-IR
##STATE=gas
##XUNITS=1/CM
##YUNITS=ABSORBANCE
##XFACTOR=1.
##YFACTOR=0.001
##DELTAX=1.92898
##FIRSTX=549.8
##LASTX=4000.7
##FIRSTY=0.34173
##MAXX=4000.7
##MINX=549.759
##MAXY=0.046264
##MINY=0
##NPOINTS=1790
##XYDATA=(X++(Y..Y))
549.759 0.34173 1.1096 1.924 2.744 3.584 4.344 4.814 5.064 5.074 3.834
569.049 2.214 1.944 1.804 1.464 1.444 1.394 1.3128 1.1998 1.1898 1.384
588.339 0.8854 0.7069 1.2096 1.924 2.754 3.394 4.284 5.884 7.224 8.004
607.628 8.124 7.324 6.194 4.894 3.804 2.874 2.274 2.134 2.254 2.294
626.918 2.104 1.904 1.774 2.004 2.284 2.294 2.114 2.104 1.934 1.714
646.208 1.694 1.944 2.474 2.574 2.924 3.304 3.334 3.524 3.724 4.244
665.498 5.134 6.024 6.474 6.794 7.294 7.294 7.194 7.374 7.914 9.164
684.787 11.004 13.414 16.664 20.974 26.394 31.984 35.574 36.474 34.854 30.704
704.077 25.544 20.194 15.854 12.954 11.134 9.904 8.714 8.104 8.104 8.324
723.367 8.964 10.944 14.634 19.614 25.704 32.264 38.654 46.264 46.194 36.894
742.657 30.204 25.504 20.624 17.624 16.784 17.534 19.224 21.404 23.794 25.814
761.947 26.294 24.074 20.684 17.504 14.194 11.314 9.344 7.684 6.124 5.064
781.236 4.604 4.634 4.434 3.854 3.654 3.764 3.774 3.834 4.164 4.404
800.526 4.344 3.984 3.854 4.084 3.984 3.984 4.144 4.714 5.244 5.414
819.816 6.644 7.414 7.514 7.474 7.524 7.524 7.134 7.104 7.064 6.884
839.106 7.074 7.294 7.574 7.854 7.744 7.454 7.044 6.734 6.654 6.764
858.395 6.484 6.044 5.704 5.364 4.914 4.294 3.864 3.674 3.354 2.944
877.685 2.624 2.584 2.584 2.504 2.214 1.804 1.834 1.924 1.694 1.974
896.975 2.194 1.964 2.314 2.874 3.144 3.164 3.454 3.934 4.064 4.134
916.265 4.404 4.844 5.264 5.334 4.904 4.094 3.434 2.924 2.554 2.304
935.555 2.124 2.114 1.974 1.944 2.144 2.154 1.724 1.514 1.794 1.974
954.844 2.044 2.324 2.694 3.274 4.504 5.434 6.144 6.374 5.784 5.064
974.134 4.144 3.414 2.584 2.014 1.734 1.614 1.634 1.364 1.484 1.564
993.424 1.614 1.764 1.804 2.054 2.554 3.154 3.574 3.994 4.664 5.374
1012.714 5.194 4.774 4.234 3.694 3.954 4.144 4.734 5.564 6.154 6.294
1032.003 5.244 3.934 3.324 2.834 2.054 1.364 0.7459 0.8373 1.0377 1.1726
1051.293 1.474 1.334 1.2716 1.684 2.444 2.704 3.154 4.194 5.104 5.314
1070.583 4.764 4.354 3.974 3.524 3.254 2.744 3.024 2.964 2.194 2.284
1089.873 2.554 2.244 1.834 1.444 1.404 1.824 1.934 1.444 1.364 1.1393
1109.163 1.2911 1.844 1.514 1.414 0.8385 1.0498 1.1399 0.5216 0.6088 0.5888
1128.452 0.8749 1.3034 1.514 1.2048 1.0852 1.2082 0.7595 1.1799 1.724 1.614
1147.742 1.974 2.424 2.584 3.084 2.994 2.154 1.704 1.277 0.9738 1.1817
1167.032 1.524 1.474 1.0362 1.444 1.964 1.664 1.834 2.054 1.484 2.054
1186.322 2.634 2.074 1.974 2.084 2.564 2.834 2.734 3.144 3.404 3.024
1205.611 2.524 2.794 2.804 2.494 2.004 1.854 2.834 2.444 2.584 3.654
1224.901 4.334 5.474 6.134 6.674 7.384 7.464 8.284 9.064 9.184 9.924
1244.191 10.744 11.974 12.414 11.794 10.794 9.104 7.774 6.664 5.784 5.454
1263.481 5.264 5.164 4.954 4.544 4.594 4.814 4.824 4.794 4.514 4.494
1282.771 5.234 5.954 6.494 7.384 8.694 9.834 11.004 12.164 12.704 13.094
1302.060 13.304 13.014 12.644 12.594 12.484 12.334 12.454 12.694 13.334 14.154
1321.350 14.734 14.874 14.404 13.354 11.774 9.974 8.274 6.884 5.784 4.964
1340.640 4.394 3.924 3.554 3.214 3.014 2.874 2.674 2.674 2.794 2.884
1359.930 3.034 3.104 2.994 2.924 2.804 2.484 2.254 2.194 2.234 2.234
1379.219 2.094 2.074 2.084 2.064 2.124 2.174 2.154 2.264 2.444 2.624
1398.509 2.884 3.224 3.614 4.044 4.634 5.424 6.444 7.734 8.914 9.824
1417.799 10.444 10.724 10.524 9.934 8.934 7.854 7.254 7.064 7.424 8.344
1437.089 9.634 11.084 12.584 14.164 15.774 17.394 19.224 21.274 22.954 23.384
1456.378 22.374 20.204 17.214 13.544 10.194 7.964 6.894 6.454 6.464 6.964
1475.668 7.764 8.944 10.324 11.514 12.124 12.014 11.274 10.074 8.824 8.004
1494.958 7.864 8.464 9.354 9.904 10.124 9.974 9.074 7.624 6.254 4.994
1514.248 4.174 3.834 3.474 3.234 3.174 2.934 2.714 2.624 2.674 2.724
1533.538 2.644 2.524 2.474 2.524 2.484 2.574 2.684 2.734 2.924 3.254
1552.827 3.454 3.714 3.984 3.964 3.884 3.924 4.054 4.094 4.384 4.744
1572.117 4.964 5.074 5.104 4.964 4.954 5.024 4.924 5.084 5.594 6.394
1591.407 7.354 8.474 9.814 11.294 12.504 13.364 13.814 13.684 13.114 12.074
1610.697 10.614 8.904 7.274 6.024 4.864 3.884 3.194 2.654 2.154 1.854
1629.986 1.694 1.524 1.524 1.554 1.474 1.384 1.2542 1.1884 1.334 1.634
1649.276 1.924 2.204 2.404 2.444 2.624 2.784 2.644 2.464 2.374 2.214
1668.566 2.044 1.974 1.904 1.964 1.994 1.854 1.724 1.664 1.534 1.324
1687.856 1.261 1.2253 1.2384 1.2079 1.1186 1.0535 1.1039 1.0626 0.9179 0.9608
1707.146 0.9882 0.9797 1.0322 1.0433 1.1655 1.2157 1.1055 1.1658 1.0528 0.9787
1726.435 1.151 1.2354 1.1954 1.1882 1.334 1.384 1.404 1.524 1.614 1.594
1745.725 1.564 1.724 1.854 2.004 2.184 2.264 2.284 2.234 2.134 1.914
1765.015 1.744 1.704 1.584 1.474 1.434 1.364 1.324 1.324 1.364 1.454
1784.305 1.624 1.894 2.144 2.384 2.664 2.944 3.064 3.044 2.904 2.564
1803.594 2.194 2.004 1.974 1.824 1.694 1.574 1.474 1.424 1.404 1.394
1822.884 1.294 1.2145 1.2175 1.1587 1.1249 1.2168 1.2525 1.424 1.624 1.654
1842.174 1.614 1.644 1.754 1.644 1.384 1.2873 1.404 1.474 1.384 1.384
1861.464 1.524 1.684 1.814 2.004 2.254 2.464 2.644 2.874 3.064 3.024
1880.754 2.884 2.774 2.544 2.284 2.164 1.994 1.694 1.524 1.494 1.384
1900.043 1.3003 1.354 1.464 1.474 1.574 1.804 2.104 2.224 2.244 2.214
1919.333 2.054 2.004 1.814 1.564 1.514 1.654 1.774 1.864 2.104 2.284
1938.623 2.274 2.354 2.464 2.414 2.244 2.194 2.204 2.134 2.154 2.134
1957.913 2.004 1.764 1.494 1.2422 1.04 1.0039 0.8983 0.6879 0.6522 0.7982
1977.202 0.8716 0.8276 0.7492 0.7179 0.6598 0.6069 0.6943 0.7614 0.7478 0.6215
1996.492 0.5319 0.5215 0.5319 0.5842 0.6176 0.6098 0.5204 0.5823 0.6101 0.6033
2015.782 0.6981 0.6657 0.4915 0.4781 0.6774 0.5951 0.5054 0.6326 0.6589 0.5366
2035.072 0.4717 0.511 0.5294 0.5182 0.552 0.5951 0.5436 0.4805 0.5217 0.5841
2054.362 0.4442 0.5042 0.6276 0.5434 0.4932 0.4777 0.5606 0.5072 0.4213 0.453
2073.651 0.40209 0.37206 0.39564 0.5286 0.4529 0.2911 0.4481 0.511 0.425 0.4353
2092.941 0.39734 0.35658 0.40392 0.4334 0.4451 0.456 0.4647 0.5519 0.5319 0.4606
2112.231 0.4531 0.38997 0.38592 0.4419 0.561 0.6072 0.5537 0.5768 0.6106 0.6822
2131.521 0.7543 0.7142 0.565 0.5157 0.5185 0.5086 0.5608 0.4715 0.4823 0.5328
2150.810 0.4947 0.5524 0.6138 0.6879 0.7106 0.6776 0.5594 0.5186 0.6732 0.6573
2170.100 0.585 0.6123 0.554 0.5214 0.6053 0.634 0.5815 0.5951 0.663 0.5654
2189.390 0.4762 0.5165 0.4784 0.5104 0.5815 0.6243 0.7455 0.7618 0.725 0.5802
2208.680 0.6228 0.6496 0.4946 0.5989 0.7645 0.7311 0.5378 0.6094 0.7971 0.7754
2227.970 0.6336 0.5487 0.5553 0.6074 0.7455 0.7711 0.7171 0.6971 0.7245 0.7806
2247.259 0.7494 0.7133 0.6554 0.6222 0.6294 0.6556 0.6908 0.6197 0.6019 0.7597
2266.549 0.7808 0.611 0.5684 0.6712 0.5776 0.5584 0.6782 0.6391 0.6386 0.6074
2285.839 0.6535 0.7375 0.7126 0.6392 0.6136 0.7835 0.8256 0.7002 0.6688 0.8221
2305.129 0.9005 0.9134 0.9098 0.9653 1.0887 1.017 0.95 0.9533 1.0232 0.8629
2324.418 0.6726 0.8078 0.882 0.7931 0.8173 0.9071 0.89 0.7953 0.675 0.7843
2343.708 0.8473 0.7532 0.7848 0.7902 0.7595 0.7021 0.7195 0.6912 0.6265 0.6739
2362.998 0.5898 0.5735 0.6592 0.7168 0.7592 0.6415 0.5249 0.6171 0.7837 0.7287
2382.288 0.7388 0.7808 0.6528 0.6936 0.7756 0.6764 0.6156 0.6759 0.7481 0.774
2401.578 0.8067 0.8398 0.805 0.7602 0.7142 0.77 0.7248 0.6306 0.77 0.7707
2420.867 0.7922 0.861 0.6861 0.7078 0.6965 0.691 0.83 0.8223 0.8903 0.8006
2440.157 0.6862 0.734 0.7919 0.7801 0.8237 0.8982 0.798 0.8352 0.8813 0.8331
2459.447 0.8236 0.9614 1.0218 0.914 0.9101 0.8584 0.8563 0.9049 0.9024 0.9227
2478.737 0.9556 0.999 1.004 0.9533 0.8249 0.8477 0.9011 0.6906 0.6292 0.9423
2498.026 1.1159 0.8778 0.8924 1.0014 0.8269 0.6829 0.7164 0.7516 0.7312 0.7306
2517.316 0.7948 0.8083 0.6882 0.7696 0.7442 0.7454 0.9793 1.0309 0.9382 0.9038
2536.606 0.8091 0.6436 0.6304 0.7059 0.8992 1.0241 0.9565 0.9612 1.0417 0.9794
2555.896 0.8495 0.7991 0.8127 0.7934 0.8445 0.8966 0.9172 0.9899 0.8731 0.8191
2575.186 0.8486 0.8221 0.8995 0.9007 0.7393 0.846 1.024 1.0703 0.8911 0.8162
2594.475 1.0686 1.0055 1.0672 0.9678 0.7766 0.9475 0.972 0.9343 0.8531 0.7218
2613.765 0.6702 0.7867 0.871 0.8672 0.8288 0.8615 0.8687 0.8109 0.8725 0.9479
2633.055 0.9022 0.7291 0.7007 0.7843 0.7407 0.7607 0.79 0.7328 0.76 0.545
2652.345 0.37247 0.4577 0.5121 0.6201 0.71 0.5984 0.6148 0.7575 0.6912 0.7541
2671.634 0.6901 0.6044 0.7814 0.9065 0.8689 0.8373 0.8691 0.8147 0.7564 0.7181
2690.924 0.6994 0.7556 0.7024 0.6202 0.5603 0.5202 0.614 0.5524 0.6371 0.7906
2710.214 0.642 0.7168 0.9222 0.8458 0.8007 0.7809 0.6357 0.5983 0.728 0.8308
2729.504 0.8497 0.8377 0.7592 0.7668 0.9401 0.8325 0.5376 0.5844 0.6088 0.5928
2748.794 0.8145 0.9288 0.7511 0.5276 0.6196 0.8879 0.7859 0.6593 0.7669 0.7695
2768.083 0.6085 0.634 0.7845 0.7454 0.8586 0.8964 0.78 0.8204 0.9799 0.8974
2787.373 0.7236 0.7938 0.7308 0.5626 0.7581 0.9275 0.7979 0.9312 1.0941 1.059
2806.663 1.0448 0.9318 0.8495 1.004 1.0426 0.8829 0.9577 0.9475 0.8455 0.875
2825.953 0.8147 0.8968 1.0272 0.9898 1.0318 1.0525 0.8785 0.7456 0.7267 0.9112
2845.242 1.0039 0.9915 0.929 0.8535 0.765 0.7104 0.914 1.0141 0.9612 0.7992
2864.532 0.7903 0.9489 0.9124 0.9242 1.0046 0.9887 1.0012 1.1818 1.2831 1.2401
2883.822 1.2348 1.2106 1.1689 1.1424 1.354 1.424 1.1625 1.0405 1.0916 1.1182
2903.112 1.2804 1.3104 1.1425 1.1504 1.2375 1.2312 1.374 1.1568 0.9211 1.1137
2922.401 1.104 1.1799 1.1686 1.0977 1.0441 1.0418 1.1561 1.1133 1.1147 1.196
2941.691 1.252 1.374 1.3045 1.1499 1.2313 1.261 1.1239 0.9508 1.0108 1.1611
2960.981 1.0361 1.045 1.334 1.444 1.384 1.394 1.424 1.2992 1.1465 1.354
2980.271 1.524 1.634 1.934 1.824 1.594 1.644 1.824 1.984 2.144 2.374
2999.561 2.434 2.744 3.254 3.364 3.854 4.434 4.894 5.654 6.274 6.944
3018.850 7.634 8.254 9.144 10.214 11.094 11.994 12.904 13.564 14.184 14.564
3038.140 14.844 15.064 14.914 14.934 15.204 15.744 16.544 17.634 19.324 21.664
3057.430 24.574 28.334 32.844 37.254 40.804 42.634 42.384 39.814 35.644 31.004
3076.720 26.734 23.554 21.344 19.784 18.124 16.184 14.314 12.534 11.144 9.844
3096.009 8.554 7.654 6.594 5.674 5.294 5.184 4.794 4.134 3.784 3.524
3115.299 3.254 3.104 2.894 2.764 2.554 2.114 1.804 1.764 1.914 1.704
3134.589 1.544 1.684 1.644 1.614 1.534 1.2723 1.1408 1.404 1.604 1.394
3153.879 1.314 1.364 1.162 0.9662 1.0329 1.0654 1.0235 1.0369 1.0808 0.9378
3173.169 0.8414 1.0092 0.7568 0.7484 0.9773 0.7697 0.6966 0.6549 0.6056 0.6194
3192.458 0.7565 0.7277 0.7872 0.7674 0.40929 0.40802 0.4836 0.5272 0.5905 0.6782
3211.748 0.7562 0.5192 0.195 0.36631 0.5146 0.5101 0.5717 0.5649 0.4532 0.4756
3231.038 0.504 0.3714 0.5029 0.4667 0.31228 0.5018 0.5088 0.30622 0.4631 0.6735
3250.328 0.33783 0.244 0.4937 0.577 0.7367 0.7566 0.6146 0.6286 0.4794 0.434
3269.617 0.5431 0.4501 0.5347 0.6764 0.6057 0.5702 0.6346 0.4828 0.3034 0.2885
3288.907 0.39533 0.4962 0.4696 0.4767 0.5015 0.4283 0.2866 0.204 0.4267 0.475
3308.197 0.2778 0.155 0.2171 0.201 0.185 0.320452 0.3106 0.165 0.091 0.263
3327.487 0.2242 0.13 0.4197 0.4214 0.35043 0.4613 0.41367 0.39417 0.39594 0.4175
3346.777 0.317232 0.319132 0.422 0.3605 0.5013 0.6513 0.6274 0.4494 0.35046 0.4841
3366.066 0.633 0.5317 0.2926 0.33377 0.5235 0.34174 0.152 0.2302 0.146 0.102
3385.356 0.291 0.3796 0.4599 0.3662 0.161 0.4753 0.6472 0.5563 0.4795 0.5617
3404.646 0.6128 0.5737 0.6403 0.5066 0.38022 0.5472 0.7329 0.8644 0.9293 0.8974
3423.936 0.8161 0.7208 0.5453 0.5643 0.8862 0.901 0.8096 0.7779 0.5389 0.5822
3443.225 0.8275 0.9754 1.0709 1.1674 1.364 1.384 1.574 1.864 2.084 2.134
3462.515 2.294 2.604 2.874 3.264 3.624 4.114 4.704 5.514 6.614 7.934
3481.805 9.394 11.234 13.314 15.254 17.224 18.874 19.234 18.594 17.244 15.064
3501.095 12.294 9.464 7.074 5.214 3.864 3.124 2.464 1.914 1.744 1.354
3520.385 1.2423 1.2144 1.106 0.9985 0.8886 0.9622 0.7693 0.6246 0.8181 0.7143
3539.674 0.6378 0.7056 0.638 0.6622 0.6915 0.8805 1.0617 0.6874 0.3031 0.35262
3558.964 0.4991 0.7408 0.8562 0.5911 0.5357 0.6253 0.7048 0.6289 0.4649 0.4789
3578.254 0.33957 0.4689 0.5521 0.4935 0.5909 0.5567 0.36211 0.059 0 0.2432
3597.544 0.4605 0.653 0.4922 0.2851 0.5728 0.7575 0.6578 0.4997 0.4759 0.5206
3616.833 0.4828 0.6092 0.6636 0.6166 0.36659 0.33339 0.4886 0.4915 0.4576 0.616
3636.123 0.7055 0.5301 0.4882 0.5731 0.35646 0.3161 0.6104 0.5742 0.494 0.4311
3655.413 0.4499 0.6694 0.7293 0.4961 0.4052 0.4212 0.2931 0.5741 0.8411 0.7739
3674.703 0.7138 0.4966 0.6534 0.8577 0.7334 0.6395 0.5917 0.6132 0.5845 0.4654
3693.993 0.7369 0.8585 0.40693 0.5547 0.9525 0.8164 0.7771 0.5637 0.34165 0.44
3713.282 0.36153 0.113 0.198 0.4817 0.5436 0.6282 0.8192 0.6908 0.435 0.4547
3732.572 0.5142 0.5872 0.5084 0.5345 0.4693 0.37355 0.6945 0.5307 0.171 0.199
3751.862 0.4407 0.583 0.5309 0.4912 0.4554 0.4976 0.5576 0.521 0.5627 0.4608
3771.152 0.35455 0.5713 0.7402 0.4461 0.2536 0.4515 0.38283 0.2425 0.36684 0.5406
3790.441 0.6433 0.38045 0.33205 0.6198 0.5593 0.5527 0.8628 0.8546 0.37511 0.2395
3809.731 0.5603 0.7202 0.40644 0.2256 0.5125 0.7324 0.7243 0.37577 0.36217 0.5937
3829.021 0.5413 0.6495 0.5345 0.2866 0.3 0.4623 0.38943 0.34612 0.4934 0.38632
3848.311 0.34789 0.6307 0.8284 0.8457 0.6807 0.6497 0.7194 0.7655 0.7163 0.4403
3867.601 0.5658 0.7188 0.6279 0.6542 0.6169 0.6574 0.7575 0.6444 0.4628 0.5163
3886.890 0.8173 0.9834 0.6605 0.38474 0.5181 0.4188 0.39387 0.7286 0.7192 0.4558
3906.180 0.476 0.7127 0.6098 0.4795 0.33671 0.19 0.432 0.5018 0.5339 0.4885
3925.470 0.320959 0.4191 0.4645 0.4976 0.32989 0.123 0.320006 0.6356 0.6948 0.6528
3944.760 0.8421 0.6588 0.5442 0.7212 0.5727 0.6263 0.7127 0.6428 0.8959 1.0341
3964.049 0.657 0.33618 0.39168 0.33838 0.34978 0.40436 0.5057 0.6114 0.5571 0.5047
3983.339 0.40218 0.3503 0.4459 0.6374 0.6179 0.40048 0.4669 0.5396 0.7043 0.8452
##END=
