##TITLE=2-Phenylpropionaldehyde
##JCAMP-DX=4.24
##DATA TYPE=INFRARED SPECTRUM
##ORIGIN=EPA-IR VAPOR PHASE LIBRARY
##OWNER=SRD/NIST
Collection (C) 2018 copyright by the U.S. Secretary of Commerce
on behalf of the United States of America. All rights reserved.
##CAS REGISTRY NO=34713-70-7
##MOLFORM=C 9 H 10 O
##$NIST SOURCE=MSDC-IR
##STATE=gas
##XUNITS=1/CM
##YUNITS=ABSORBANCE
##XFACTOR=1.
##YFACTOR=0.001
##DELTAX=1.92934
##FIRSTX=549.9
##LASTX=3999.5
##FIRSTY=3.807
##MAXX=3999.53
##MINX=549.863
##MAXY=0.098997
##MINY=0
##NPOINTS=1789
##XYDATA=(X++(Y..Y))
549.863 3.807 3.407 3.217 3.087 2.847 2.757 2.657 2.437 2.297 2.217
569.156 2.077 1.987 1.741 1.6256 1.744 1.7479 1.6987 1.5681 1.423 1.4287
588.450 1.5363 1.5213 1.5385 1.5579 1.4149 1.375 1.3353 1.3516 1.4257 1.5034
607.743 1.5118 1.4011 1.4123 1.5078 1.5848 1.6949 1.766 1.7019 1.6881 1.6781
627.037 1.6817 1.7964 1.8245 1.9034 1.977 1.987 2.057 2.137 2.317 2.487
646.330 2.647 2.857 3.087 3.437 3.737 4.027 4.397 4.697 5.047 5.417
665.624 5.747 6.187 6.607 7.197 8.007 8.987 10.347 12.007 13.977 16.317
684.917 18.907 21.677 24.477 27.117 29.547 31.647 33.427 33.657 31.977 30.077
704.210 28.017 25.537 23.077 20.617 18.167 15.927 13.927 12.247 10.987 10.017
723.504 9.267 8.767 8.527 8.427 8.447 8.667 9.037 9.507 10.207 10.967
742.797 11.747 12.587 13.437 14.257 14.927 15.407 15.587 15.407 14.767 13.737
762.091 12.687 11.577 10.357 9.187 8.067 6.997 6.027 5.167 4.467 3.917
781.384 3.417 3.057 2.787 2.527 2.327 2.167 2.077 1.997 1.8785 1.745
800.678 1.651 1.602 1.517 1.4928 1.4878 1.4822 1.4594 1.4959 1.5668 1.5747
819.971 1.6345 1.7055 1.7554 1.8586 2.047 2.267 2.467 2.687 2.907 3.167
839.264 3.607 4.107 4.557 5.037 5.587 6.127 6.627 7.177 7.667 8.057
858.558 8.417 8.687 8.797 8.867 8.917 8.977 8.967 8.977 9.047 9.127
877.851 9.247 9.357 9.417 9.437 9.417 9.327 9.127 8.917 8.647 8.367
897.145 8.127 7.777 7.407 7.157 6.857 6.507 6.177 5.857 5.547 5.237
916.438 4.917 4.657 4.357 4.027 3.737 3.477 3.267 3.097 2.937 2.757
935.732 2.587 2.487 2.427 2.297 2.117 2.027 1.977 1.8816 1.831 1.805
955.025 1.772 1.764 1.7762 1.741 1.7326 1.7578 1.7625 1.764 1.7666 1.7882
974.318 1.8263 1.8572 1.9006 1.967 2.017 2.107 2.257 2.427 2.637 2.867
993.612 3.057 3.257 3.547 3.937 4.437 5.087 6.007 7.247 8.777 10.447
1012.905 12.107 13.427 14.277 14.837 15.177 15.057 14.697 14.067 12.817 11.137
1032.199 9.347 7.727 6.537 5.737 5.177 4.837 4.657 4.587 4.657 4.807
1051.492 4.997 5.257 5.557 5.877 6.147 6.317 6.417 6.437 6.357 6.157
1070.786 5.937 5.717 5.367 4.977 4.647 4.327 4.107 3.917 3.737 3.667
1090.079 3.657 3.627 3.717 3.807 3.827 3.937 4.077 4.177 4.207 4.277
1109.372 4.387 4.467 4.457 4.417 4.417 4.367 4.297 4.167 4.057 3.907
1128.666 3.727 3.577 3.427 3.287 3.067 2.857 2.667 2.497 2.317 2.127
1147.959 2.037 1.9317 1.7986 1.745 1.7086 1.6015 1.4994 1.4554 1.4307 1.3966
1167.253 1.3678 1.3819 1.3754 1.389 1.4482 1.4836 1.5208 1.5237 1.5221 1.5707
1186.546 1.5814 1.5622 1.5297 1.5204 1.5507 1.4845 1.44 1.4378 1.4091 1.3768
1205.840 1.3136 1.2946 1.3089 1.3189 1.3307 1.3161 1.3357 1.3753 1.3844 1.4413
1225.133 1.4593 1.4234 1.458 1.5535 1.599 1.5897 1.6273 1.6649 1.6764 1.7003
1244.426 1.6978 1.6778 1.6558 1.6804 1.7367 1.7746 1.7897 1.8063 1.8609 1.932
1263.720 1.967 1.987 2.037 2.077 2.127 2.217 2.307 2.337 2.417 2.507
1283.013 2.567 2.657 2.787 2.837 2.837 2.897 2.947 2.977 2.977 2.927
1302.307 2.887 2.807 2.707 2.657 2.607 2.547 2.527 2.467 2.407 2.357
1321.600 2.337 2.347 2.377 2.357 2.327 2.317 2.327 2.307 2.247 2.187
1340.894 2.137 2.097 2.077 2.067 2.057 2.107 2.167 2.207 2.237 2.377
1360.187 2.607 2.777 2.967 3.207 3.497 3.837 4.147 4.497 4.937 5.297
1379.480 5.657 6.027 6.267 6.407 6.567 6.577 6.397 6.167 5.867 5.467
1398.774 5.027 4.617 4.197 3.807 3.487 3.187 2.977 2.887 2.837 2.787
1418.067 2.797 2.857 2.957 3.127 3.347 3.597 3.877 4.247 4.757 5.387
1437.361 6.137 6.877 7.667 8.547 9.347 10.117 10.837 11.377 11.677 11.797
1456.654 11.867 11.697 11.247 10.627 9.927 9.217 8.517 7.957 7.567 7.297
1475.948 7.257 7.507 8.127 9.087 10.177 11.277 12.277 12.977 13.447 13.667
1495.241 13.617 13.267 12.597 11.557 10.187 8.787 7.387 6.157 5.127 4.237
1514.534 3.587 3.147 2.847 2.577 2.327 2.127 1.997 1.9199 1.8569 1.8173
1533.828 1.7672 1.72 1.6916 1.669 1.6546 1.6356 1.5443 1.4051 1.3184 1.3048
1553.121 1.3335 1.3344 1.366 1.4322 1.4674 1.5104 1.5734 1.6634 1.7768 1.967
1572.415 2.177 2.367 2.617 2.927 3.307 3.727 4.267 4.887 5.617 6.407
1591.708 7.157 7.827 8.307 8.577 8.667 8.557 8.207 7.697 7.037 6.267
1611.002 5.507 4.697 3.997 3.367 2.827 2.457 2.227 2.037 1.9098 1.8954
1630.295 1.8867 1.8683 1.8495 1.9181 1.997 2.027 2.087 2.157 2.287 2.437
1649.588 2.577 2.727 2.887 2.987 3.087 3.187 3.347 3.517 3.637 3.877
1668.882 4.137 4.297 4.477 4.707 4.927 5.207 5.537 5.907 6.317 6.717
1688.175 7.167 7.657 8.237 8.907 9.647 10.427 11.297 12.307 13.317 14.467
1707.469 15.767 17.247 18.827 20.617 22.747 25.257 28.227 31.717 36.077 41.427
1726.762 47.717 54.917 62.857 70.867 78.897 86.117 92.047 96.507 98.777 98.997
1746.056 97.007 92.517 85.607 76.897 67.547 57.707 47.587 38.647 31.337 25.867
1765.349 21.967 19.077 16.817 15.117 13.767 12.627 11.737 11.057 10.497 10.047
1784.642 9.667 9.297 8.937 8.617 8.317 7.957 7.577 7.207 6.807 6.367
1803.936 5.907 5.437 4.887 4.387 4.017 3.667 3.407 3.157 2.897 2.667
1823.229 2.477 2.317 2.217 2.057 1.9236 1.8401 1.7773 1.7479 1.7117 1.7203
1842.523 1.7611 1.7986 1.8094 1.8237 1.8742 1.987 2.077 2.117 2.207 2.277
1861.816 2.277 2.307 2.387 2.427 2.457 2.497 2.487 2.417 2.427 2.387
1881.110 2.297 2.217 2.107 1.997 1.8763 1.7518 1.6562 1.5352 1.4308 1.3408
1900.403 1.2372 1.1882 1.1363 1.0927 1.0627 1.04548 1.02764 1.0656 1.1629 1.1919
1919.696 1.2643 1.4071 1.5455 1.6487 1.7674 1.9048 1.967 2.077 2.197 2.297
1938.990 2.387 2.437 2.487 2.547 2.587 2.577 2.537 2.487 2.407 2.277
1958.283 2.147 1.997 1.891 1.7665 1.5932 1.4452 1.2973 1.1375 1.02153 0.98217
1977.577 0.907 0.826 0.844 0.843 0.786 0.767 0.797 0.816 0.786 0.738
1996.870 0.724 0.78 0.782 0.733 0.688 0.695 0.713 0.692 0.664 0.624
2016.164 0.63 0.594 0.549 0.534 0.511 0.538 0.532 0.495 0.479 0.474
2035.457 0.495 0.485 0.489 0.485 0.486 0.514 0.477 0.476 0.456 0.417
2054.750 0.383 0.406 0.485 0.466 0.466 0.486 0.444 0.404 0.41 0.396
2074.044 0.347 0.351 0.358 0.346 0.346 0.332 0.351 0.39 0.364 0.347
2093.337 0.374 0.373 0.346 0.33 0.35 0.339 0.322 0.373 0.402 0.35
2112.631 0.33 0.351 0.368 0.383 0.364 0.386 0.369 0.334 0.35 0.352
2131.924 0.377 0.376 0.372 0.384 0.369 0.39 0.452 0.455 0.404 0.37
2151.218 0.344 0.335 0.349 0.343 0.362 0.388 0.386 0.401 0.381 0.365
2170.511 0.387 0.408 0.445 0.406 0.379 0.399 0.383 0.407 0.397 0.38
2189.804 0.399 0.38 0.353 0.33 0.366 0.398 0.392 0.409 0.405 0.4
2209.098 0.39 0.383 0.402 0.406 0.413 0.415 0.396 0.423 0.445 0.419
2228.391 0.406 0.429 0.46 0.455 0.437 0.436 0.421 0.401 0.417 0.433
2247.685 0.434 0.428 0.401 0.397 0.403 0.416 0.472 0.487 0.457 0.449
2266.978 0.475 0.47 0.432 0.443 0.441 0.47 0.522 0.51 0.505 0.495
2286.272 0.51 0.493 0.48 0.494 0.477 0.509 0.507 0.458 0.482 0.529
2305.565 0.596 0.646 0.641 0.674 0.684 0.668 0.678 0.695 0.662 0.666
2324.858 0.669 0.603 0.59 0.558 0.509 0.552 0.637 0.631 0.613 0.653
2344.152 0.654 0.637 0.616 0.616 0.636 0.631 0.604 0.594 0.598 0.591
2363.445 0.606 0.629 0.588 0.562 0.527 0.483 0.524 0.538 0.509 0.477
2382.739 0.462 0.469 0.471 0.45 0.441 0.413 0.382 0.385 0.445 0.438
2402.032 0.38 0.381 0.377 0.405 0.418 0.417 0.416 0.423 0.455 0.418
2421.326 0.401 0.436 0.446 0.449 0.454 0.436 0.401 0.416 0.429 0.414
2440.619 0.422 0.435 0.473 0.488 0.442 0.428 0.415 0.419 0.45 0.454
2459.912 0.477 0.451 0.426 0.428 0.391 0.393 0.411 0.419 0.416 0.402
2479.206 0.399 0.402 0.43 0.455 0.428 0.41 0.408 0.42 0.431 0.424
2498.499 0.405 0.412 0.431 0.395 0.414 0.432 0.399 0.416 0.45 0.446
2517.793 0.441 0.458 0.461 0.44 0.423 0.425 0.401 0.41 0.437 0.446
2537.086 0.471 0.46 0.499 0.536 0.517 0.491 0.45 0.44 0.494 0.518
2556.380 0.523 0.556 0.586 0.632 0.592 0.591 0.628 0.662 0.701 0.705
2575.673 0.75 0.775 0.795 0.848 0.9243 0.96904 0.98892 0.97958 0.98097 1.0171
2594.966 1.04365 1.02618 1.00521 1.0578 1.0898 1.1167 1.1351 1.1131 1.1415 1.179
2614.260 1.2009 1.2761 1.3703 1.429 1.5032 1.6021 1.6598 1.7573 1.9363 2.077
2633.553 2.177 2.337 2.507 2.667 2.807 2.937 3.037 3.187 3.367 3.517
2652.847 3.677 3.787 3.927 4.127 4.337 4.517 4.767 5.017 5.237 5.497
2672.140 5.827 6.257 6.627 7.007 7.497 8.057 8.667 9.347 10.067 10.837
2691.434 11.607 12.457 13.357 14.187 14.947 15.677 16.377 16.957 17.417 17.797
2710.727 17.907 17.777 17.507 17.087 16.497 15.817 15.067 14.247 13.487 12.777
2730.020 12.077 11.537 11.007 10.437 9.957 9.617 9.437 9.177 8.937 8.827
2749.314 8.687 8.567 8.407 8.347 8.327 8.267 8.297 8.297 8.307 8.337
2768.607 8.377 8.437 8.457 8.587 8.777 8.977 9.237 9.617 10.167 10.787
2787.901 11.527 12.437 13.457 14.597 15.787 16.857 17.787 18.657 19.327 19.717
2807.194 19.787 19.467 18.837 17.987 16.997 15.867 14.667 13.507 12.347 11.267
2826.488 10.287 9.447 8.697 8.037 7.507 7.087 6.717 6.437 6.237 5.987
2845.781 5.837 5.707 5.687 5.787 5.887 5.927 5.937 6.127 6.447 6.837
2865.074 7.187 7.597 8.177 8.767 9.407 10.107 10.787 11.427 11.997 12.497
2884.368 12.767 12.837 12.757 12.487 12.227 11.777 11.117 10.527 9.987 9.427
2903.661 8.937 8.607 8.297 7.987 7.817 7.727 7.637 7.627 7.657 7.687
2922.955 7.847 8.117 8.477 8.897 9.397 9.977 10.567 11.097 11.607 12.067
2942.248 12.267 12.297 12.297 12.067 11.537 11.077 10.757 10.317 9.867 9.717
2961.542 9.887 10.317 10.977 11.897 13.127 14.697 16.607 18.787 21.007 23.187
2980.835 24.917 25.677 25.617 25.067 24.017 22.507 20.867 18.897 16.457 13.937
3000.128 11.757 9.917 8.637 8.017 7.527 7.417 7.697 8.097 8.707 9.447
3019.422 10.337 11.537 13.007 14.417 15.697 16.927 17.897 18.447 18.767 18.867
3038.715 18.627 17.977 17.147 16.167 15.037 13.927 13.027 12.407 12.207 12.577
3058.009 13.357 14.527 16.087 17.617 18.997 20.197 21.047 21.587 21.727 21.657
3077.302 21.377 20.647 19.567 18.237 16.677 15.137 13.867 12.907 12.127 11.417
3096.596 10.637 9.887 9.307 8.647 7.817 6.977 6.227 5.667 5.187 4.607
3115.889 4.017 3.547 3.097 2.827 2.537 2.047 1.8142 1.6547 1.4062 1.1526
3135.182 1.0171 0.96947 0.8769 0.854 0.8746 0.8782 0.782 0.855 0.942 0.845
3154.476 0.812 0.8737 0.9066 0.758 0.712 0.674 0.588 0.624 0.693 0.708
3173.769 0.673 0.606 0.57 0.582 0.644 0.597 0.454 0.466 0.437 0.463
3193.063 0.481 0.354 0.399 0.522 0.505 0.281 0.122 0.195 0.289 0.303
3212.356 0.26 0.255 0.212 0.283 0.384 0.298 0.284 0.174 0.065 0.146
3231.650 0.219 0.204 0.069 0.013 0.118 0.184 0.246 0.178 0.107 0.139
3250.943 0.164 0.208 0.328 0.45 0.339 0.153 0.086 0.114 0.076 0.13
3270.236 0.189 0.105 0.139 0.198 0.226 0.245 0.232 0.219 0.251 0.289
3289.530 0.256 0.186 0.12 0.129 0.174 0.183 0.129 0.065 0.067 0
3308.823 0.016 0.076 0.132 0.214 0.145 0.106 0.138 0.106 0.088 0.231
3328.117 0.193 0.046 0.164 0.234 0.14 0.146 0.216 0.188 0.252 0.312
3347.410 0.315 0.308 0.344 0.387 0.374 0.346 0.206 0.188 0.231 0.134
3366.704 0.188 0.34 0.354 0.341 0.289 0.288 0.317 0.359 0.468 0.592
3385.997 0.532 0.385 0.472 0.453 0.378 0.405 0.51 0.521 0.402 0.479
3405.290 0.61 0.506 0.439 0.52 0.613 0.561 0.519 0.622 0.597 0.627
3424.584 0.783 0.8578 0.779 0.828 0.8953 0.8946 1.03547 1.2704 1.495 1.6616
3443.877 1.7079 1.7583 1.9026 2.057 2.127 2.157 2.177 2.237 2.277 2.177
3463.171 2.107 2.067 1.9221 1.7085 1.5972 1.5466 1.5023 1.3688 1.3687 1.3427
3482.464 1.2094 1.1422 1.0803 1.04406 1.00103 0.9231 0.831 0.809 0.719 0.6
3501.758 0.45 0.443 0.521 0.52 0.662 0.731 0.65 0.587 0.614 0.534
3521.051 0.455 0.438 0.457 0.514 0.443 0.404 0.402 0.476 0.364 0.268
3540.344 0.427 0.4 0.322 0.366 0.465 0.383 0.237 0.336 0.384 0.295
3559.638 0.251 0.311 0.413 0.372 0.265 0.296 0.35 0.376 0.415 0.395
3578.931 0.398 0.377 0.372 0.413 0.365 0.37 0.446 0.423 0.382 0.389
3598.225 0.371 0.424 0.416 0.348 0.393 0.343 0.29 0.374 0.407 0.468
3617.518 0.523 0.472 0.394 0.348 0.362 0.427 0.463 0.393 0.337 0.409
3636.812 0.5 0.53 0.458 0.427 0.522 0.643 0.608 0.567 0.621 0.586
3656.105 0.602 0.596 0.546 0.565 0.544 0.463 0.479 0.601 0.585 0.517
3675.398 0.469 0.423 0.46 0.484 0.537 0.603 0.571 0.596 0.594 0.448
3694.692 0.43 0.446 0.419 0.437 0.479 0.439 0.485 0.561 0.53 0.461
3713.985 0.404 0.39 0.396 0.512 0.496 0.352 0.332 0.379 0.458 0.491
3733.279 0.439 0.476 0.428 0.368 0.443 0.515 0.531 0.501 0.5 0.456
3752.572 0.443 0.436 0.353 0.343 0.396 0.405 0.391 0.412 0.353 0.314
3771.866 0.384 0.393 0.413 0.424 0.359 0.374 0.359 0.308 0.304 0.351
3791.159 0.436 0.462 0.45 0.419 0.419 0.404 0.377 0.352 0.367 0.397
3810.452 0.323 0.402 0.502 0.476 0.417 0.463 0.512 0.383 0.37 0.396
3829.746 0.376 0.406 0.452 0.418 0.402 0.389 0.358 0.361 0.349 0.339
3849.039 0.299 0.352 0.424 0.392 0.375 0.332 0.317 0.269 0.275 0.381
3868.333 0.374 0.38 0.429 0.421 0.434 0.406 0.33 0.282 0.299 0.309
3887.626 0.288 0.347 0.396 0.429 0.361 0.311 0.359 0.414 0.482 0.504
3906.920 0.453 0.349 0.347 0.378 0.399 0.399 0.339 0.351 0.285 0.269
3926.213 0.382 0.433 0.446 0.522 0.538 0.439 0.414 0.432 0.413 0.359
3945.506 0.293 0.306 0.372 0.345 0.29 0.308 0.313 0.345 0.362 0.326
3964.800 0.39 0.456 0.428 0.36 0.36 0.348 0.348 0.381 0.36 0.363
3984.093 0.393 0.419 0.483 0.5 0.411 0.457 0.501 0.451 0.496
##END=
