##TITLE=2,2'-Dibromoadipic acid
##JCAMP-DX=4.24
##DATA TYPE=INFRARED SPECTRUM
##ORIGIN=EPA-IR VAPOR PHASE LIBRARY
##OWNER=SRD/NIST
Collection (C) 2018 copyright by the U.S. Secretary of Commerce
on behalf of the United States of America. All rights reserved.
##CAS REGISTRY NO=3479-85-4
##MOLFORM=C 6 H 8 Br 2 O 4
##$NIST SOURCE=MSDC-IR
##STATE=gas
##XUNITS=1/CM
##YUNITS=ABSORBANCE
##XFACTOR=1.
##YFACTOR=0.001
##DELTAX=3.85796
##FIRSTX=501.5
##LASTX=4000.7
##FIRSTY=0.365
##MAXX=4000.7
##MINX=501.534
##MAXY=0.050194
##MINY=0
##NPOINTS=908
##XYDATA=(X++(Y..Y))
501.534 0.365 0.39444 0.33021 0.2827 0.34201 0.3013 0.2886 0.281 0.3879 0.5444
540.114 0.5549 0.6623 0.7619 0.6253 0.4542 0.5032 0.6032 0.6203 0.6799 0.7466
578.693 0.8068 0.7843 0.8567 0.9582 0.9678 0.9807 0.8978 0.9495 1.0196 0.9647
617.273 0.883 0.8027 0.8604 0.8592 0.8655 0.895 0.8938 0.9451 0.9963 1.2167
655.852 1.384 1.434 1.594 1.764 1.964 2.194 2.284 2.334 2.324 2.184
694.432 2.084 2.044 2.004 1.954 1.874 1.784 1.664 1.574 1.524 1.434
733.011 1.394 1.424 1.424 1.424 1.454 1.544 1.614 1.674 1.654 1.564
771.591 1.604 1.764 1.844 1.934 1.984 1.964 2.014 2.074 2.084 2.034
810.170 1.964 1.894 1.934 1.924 1.894 1.964 1.964 1.854 1.794 1.884
848.750 1.904 1.834 1.734 1.614 1.624 1.614 1.574 1.574 1.504 1.504
887.330 1.544 1.494 1.404 1.2729 1.0999 1.0024 0.9437 0.9234 0.8881 0.8324
925.909 0.8495 0.8933 0.9469 1.0232 1.1029 1.2143 1.374 1.524 1.654 1.894
964.489 2.214 2.564 2.994 3.494 3.924 4.344 4.764 5.164 5.524 5.784
1003.068 5.954 6.014 6.044 6.144 6.264 6.434 6.684 6.864 6.784 6.474
1041.648 6.084 5.874 5.684 5.434 5.324 5.214 5.104 5.034 4.944 4.794
1080.227 4.654 4.564 4.454 4.384 4.434 4.524 4.534 4.664 5.044 5.654
1118.807 6.534 7.744 9.434 11.674 14.504 17.914 21.574 24.884 27.304 28.454
1157.387 28.134 26.744 24.714 22.704 21.074 19.734 18.744 18.254 18.294 18.604
1195.966 18.924 19.174 19.414 19.454 19.334 19.374 19.544 19.744 19.924 20.104
1234.546 20.344 20.474 20.474 20.644 21.264 22.174 23.204 24.224 24.774 24.514
1273.125 23.414 21.494 19.074 16.844 15.164 13.954 13.024 12.124 11.124 10.104
1311.705 9.234 8.584 8.114 7.784 7.584 7.484 7.424 7.414 7.494 7.564
1350.284 7.534 7.384 7.054 6.494 5.854 5.254 4.684 4.144 3.574 3.024
1388.864 2.614 2.334 2.144 2.074 2.094 2.184 2.314 2.444 2.664 3.154
1427.443 4.154 6.074 9.024 11.614 11.834 9.954 7.864 6.334 5.014 4.054
1466.023 3.394 2.924 2.564 2.314 2.114 1.924 1.774 1.674 1.564 1.464
1504.603 1.394 1.354 1.334 1.3036 1.2597 1.2617 1.275 1.2548 1.2267 1.2001
1543.182 1.1916 1.1954 1.1877 1.1951 1.1806 1.1453 1.1315 1.1281 1.114 1.0731
1581.762 1.0493 1.0637 1.0397 0.977 0.8978 0.879 0.9317 0.9389 0.8991 0.8429
1620.341 0.7681 0.7464 0.71 0.664 0.6814 0.6734 0.6665 0.6768 0.6814 0.7039
1658.921 0.7116 0.7062 0.734 0.7739 0.8185 0.8801 0.9635 1.0684 1.1993 1.424
1697.500 1.714 2.094 2.574 3.174 3.904 4.734 5.654 6.674 7.934 9.534
1736.080 11.774 15.024 20.024 27.244 36.634 45.664 50.194 47.214 38.454 28.804
1774.659 21.704 17.364 14.624 12.554 10.624 8.614 6.694 5.064 3.874 3.024
1813.239 2.424 2.014 1.684 1.434 1.219 1.0454 0.9232 0.8393 0.798 0.7585
1851.819 0.6954 0.6652 0.6691 0.6184 0.5882 0.6115 0.6077 0.5968 0.5818 0.5656
1890.398 0.5669 0.552 0.5257 0.5176 0.5051 0.4988 0.5021 0.4866 0.4684 0.4819
1928.978 0.479 0.4754 0.4824 0.4766 0.4736 0.5023 0.5305 0.5128 0.5022 0.512
1967.557 0.5132 0.4972 0.5144 0.5452 0.5142 0.5086 0.5263 0.5271 0.5531 0.5772
2006.137 0.5768 0.5751 0.5732 0.5906 0.6074 0.5911 0.5728 0.5582 0.564 0.5842
2044.716 0.5994 0.5929 0.5852 0.5549 0.5436 0.5542 0.5606 0.5702 0.5578 0.5582
2083.296 0.5538 0.5628 0.577 0.5563 0.5658 0.5713 0.5266 0.5227 0.5502 0.5432
2121.875 0.5216 0.5148 0.5177 0.5177 0.4879 0.4707 0.463 0.4522 0.434 0.4127
2160.455 0.39234 0.37419 0.38116 0.34915 0.34104 0.34295 0.321428 0.33363 0.33951 0.34177
2199.035 0.35703 0.34474 0.315747 0.2876 0.2592 0.2808 0.30632 0.2854 0.2644 0.27
2237.614 0.2679 0.2663 0.2828 0.2911 0.2597 0.2227 0.2449 0.2731 0.2826 0.2857
2276.194 0.2638 0.2768 0.2995 0.2894 0.2738 0.265 0.2849 0.3119 0.31157 0.2945
2314.773 0.287 0.2969 0.275 0.263 0.30511 0.3035 0.3024 0.3003 0.2973 0.2908
2353.353 0.2913 0.30478 0.2771 0.2446 0.2166 0.2471 0.294 0.31099 0.33529 0.316927
2391.932 0.2878 0.2976 0.2984 0.2958 0.30843 0.3093 0.2909 0.2919 0.313002 0.2953
2430.512 0.2733 0.2679 0.2544 0.266 0.2602 0.2389 0.2368 0.2447 0.2441 0.2411
2469.092 0.2398 0.2648 0.2852 0.27 0.2837 0.267 0.2495 0.2625 0.2807 0.2764
2507.671 0.2653 0.2831 0.2967 0.30781 0.2878 0.254 0.2635 0.255 0.2442 0.2968
2546.251 0.2931 0.2669 0.2495 0.2207 0.2529 0.2791 0.261 0.2677 0.2661 0.2654
2584.830 0.2861 0.2941 0.2794 0.2763 0.32369 0.30597 0.2825 0.2892 0.2892 0.30417
2623.410 0.2718 0.2398 0.2418 0.2538 0.2742 0.2926 0.265 0.2376 0.2694 0.2645
2661.989 0.2407 0.2638 0.2381 0.203 0.202 0.208 0.212 0.2263 0.2265 0.2227
2700.569 0.2274 0.2258 0.186 0.173 0.2274 0.207 0.2231 0.2433 0.207 0.206
2739.148 0.2502 0.2591 0.2533 0.2715 0.2566 0.23 0.205 0.208 0.2187 0.2587
2777.728 0.293 0.31396 0.31048 0.2806 0.33707 0.39996 0.381 0.3792 0.4205 0.4463
2816.308 0.4828 0.5061 0.531 0.6019 0.6761 0.8098 1.0462 1.344 1.724 2.124
2854.887 2.324 2.094 1.704 1.434 1.324 1.2462 1.1853 1.1432 1.1693 1.324
2893.467 1.484 1.684 1.924 2.114 2.254 2.404 2.504 2.574 2.664 2.724
2932.046 2.864 3.024 3.304 3.864 4.704 5.964 8.154 11.174 12.914 11.614
2970.626 8.444 5.804 4.434 3.744 3.414 3.244 3.114 3.114 3.134 3.084
3009.205 2.954 2.754 2.564 2.394 2.264 2.224 2.224 2.174 2.024 1.814
3047.785 1.574 1.384 1.242 1.1257 1.0507 0.9801 0.8974 0.8051 0.8169 0.8388
3086.364 0.8016 0.7961 0.7651 0.6894 0.6622 0.6521 0.6117 0.573 0.537 0.4997
3124.944 0.4887 0.4759 0.4318 0.4278 0.39877 0.319023 0.34012 0.4094 0.38746 0.33086
3163.524 0.30413 0.30762 0.2564 0.2163 0.2649 0.2663 0.213 0.2575 0.3019 0.2842
3202.103 0.2806 0.2783 0.239 0.16 0.147 0.207 0.188 0.168 0.208 0.2147
3240.683 0.181 0.129 0.13 0.122 0.1 0.115 0.191 0.2203 0.166 0.158
3279.262 0.182 0.203 0.164 0.17 0.177 0.159 0.144 0.127 0.169 0.175
3317.842 0.185 0.2 0.149 0.16 0.208 0.21 0.143 0.084 0.098 0.108
3356.421 0.152 0.2143 0.176 0.076 0.076 0.082 0.099 0.118 0.135 0.163
3395.001 0.174 0.188 0.126 0.106 0.174 0.206 0.2338 0.2463 0.2797 0.2869
3433.580 0.2673 0.318915 0.2981 0.2471 0.2592 0.2981 0.2981 0.2537 0.32546 0.37322
3472.160 0.36251 0.4152 0.4572 0.4844 0.5429 0.5955 0.6382 0.6321 0.6059 0.6063
3510.740 0.5665 0.5001 0.4222 0.39468 0.36258 0.33898 0.33505 0.33893 0.3314 0.34012
3549.319 0.2745 0.2587 0.31164 0.2403 0.079 0 0.073 0.118 0.152 0.133
3587.899 0.141 0.187 0.176 0.2222 0.2496 0.199 0.208 0.2688 0.2214 0.179
3626.478 0.2446 0.2188 0.2153 0.2511 0.2278 0.2333 0.2661 0.2534 0.205 0.229
3665.058 0.2457 0.2224 0.2301 0.179 0.164 0.209 0.203 0.171 0.201 0.2333
3703.637 0.214 0.185 0.132 0.126 0.165 0.154 0.21 0.2834 0.2449 0.2409
3742.217 0.2541 0.2444 0.2474 0.2511 0.2144 0.2366 0.2633 0.2448 0.19 0.177
3780.797 0.2315 0.199 0.207 0.203 0.165 0.201 0.2249 0.182 0.141 0.137
3819.376 0.149 0.2288 0.2837 0.2738 0.2501 0.21 0.2554 0.2734 0.2153 0.184
3857.956 0.191 0.212 0.2192 0.2617 0.30567 0.302 0.2532 0.2719 0.34828 0.3033
3896.535 0.2462 0.315388 0.33784 0.3026 0.31121 0.204 0.157 0.2711 0.2984 0.2364
3935.115 0.2342 0.32734 0.32808 0.2831 0.2527 0.149 0.125 0.2488 0.34889 0.36265
3973.694 0.32573 0.2368 0.147 0.189 0.2173 0.2 0.215 0.16
##END=
