##TITLE=4-Acetyl-4-phenylpiperidine hydrochloride
##JCAMP-DX=4.24
##DATA TYPE=INFRARED SPECTRUM
##ORIGIN=EPA-IR VAPOR PHASE LIBRARY
##OWNER=SRD/NIST
Collection (C) 2018 copyright by the U.S. Secretary of Commerce
on behalf of the United States of America. All rights reserved.
##CAS REGISTRY NO=34798-80-6
##MOLFORM=C 13 H 18 Cl N O
##$NIST SOURCE=MSDC-IR
##STATE=gas
##XUNITS=1/CM
##YUNITS=ABSORBANCE
##XFACTOR=1.
##YFACTOR=0.001
##DELTAX=1.92898
##FIRSTX=549.8
##LASTX=4000.7
##FIRSTY=10.087
##MAXX=4000.7
##MINX=549.759
##MAXY=0.091437
##MINY=0
##NPOINTS=1790
##XYDATA=(X++(Y..Y))
549.759 10.087 9.417 8.727 8.087 7.167 7.067 6.377 5.487 5.517 5.647
569.049 5.807 5.727 6.177 6.857 7.377 7.597 8.697 10.147 11.297 12.187
588.339 12.247 12.997 13.427 12.947 12.597 12.157 11.427 10.257 9.447 8.487
607.628 7.057 6.317 5.507 4.717 4.117 3.997 4.287 4.157 4.087 3.687
626.918 3.347 3.497 3.977 4.487 5.297 5.757 5.997 6.867 7.017 6.757
646.208 7.107 6.627 6.047 5.917 5.457 5.227 5.457 5.777 6.157 6.337
665.498 6.117 6.527 6.927 6.967 7.617 8.057 8.167 8.787 9.647 11.097
684.787 13.407 15.937 19.597 24.167 28.487 32.497 35.997 38.007 38.057 36.207
704.077 32.907 29.417 25.207 20.727 17.537 15.647 14.477 13.837 13.397 12.917
723.367 13.207 14.547 15.847 16.737 18.167 19.957 21.977 24.607 27.577 31.227
742.657 35.337 38.837 42.397 45.927 47.927 48.627 47.257 44.127 40.007 35.067
761.947 30.067 24.727 19.927 16.317 13.517 11.387 10.027 9.137 8.327 7.447
781.236 7.007 6.767 6.097 5.567 5.237 5.127 4.957 4.287 3.917 3.737
800.526 3.447 3.707 3.957 3.687 3.197 2.837 2.727 2.807 2.857 2.877
819.816 2.617 2.907 2.897 2.347 2.807 2.847 2.477 2.957 3.517 3.057
839.106 2.917 3.217 3.497 3.507 3.737 3.857 3.867 4.407 4.227 4.177
858.395 4.727 4.697 4.677 5.277 5.477 5.687 5.697 5.207 4.907 4.547
877.685 4.507 4.577 4.167 3.987 3.917 3.797 4.107 3.827 3.757 4.307
896.975 4.637 4.707 4.927 5.317 5.267 4.857 4.397 4.187 4.067 4.187
916.265 4.187 4.067 4.227 4.207 4.147 3.917 3.557 3.437 3.667 3.617
935.555 3.027 2.937 3.137 3.307 3.457 3.707 4.307 4.507 4.917 6.037
954.844 6.687 6.787 7.297 8.027 8.257 8.707 8.967 8.887 9.097 8.857
974.134 7.987 7.597 7.517 7.037 6.867 7.127 7.007 6.107 6.127 6.867
993.424 6.637 6.387 7.047 7.697 7.487 7.907 8.627 8.597 9.527 10.307
1012.714 9.847 9.547 9.297 9.587 10.017 10.577 11.547 12.047 12.437 12.457
1032.003 11.937 10.887 9.377 8.517 8.077 7.207 6.907 7.167 6.497 5.677
1051.293 5.587 6.087 5.967 5.407 5.167 5.257 5.717 5.807 5.517 4.637
1070.583 4.727 5.537 5.387 5.117 5.537 5.497 5.447 5.667 5.557 5.837
1089.873 6.457 7.537 9.347 10.557 10.767 12.587 14.717 14.917 16.297 17.957
1109.163 18.037 18.427 17.747 17.797 18.667 18.757 18.147 17.777 17.957 17.757
1128.452 16.977 15.267 14.787 15.277 14.937 14.837 15.557 16.057 15.027 14.707
1147.742 14.547 12.927 12.847 13.907 14.567 14.507 14.007 13.647 14.267 14.777
1167.032 14.997 15.727 15.877 16.187 17.287 18.117 19.017 20.027 21.327 22.937
1186.322 23.517 23.267 22.227 21.247 19.887 17.957 16.497 14.357 12.807 11.277
1205.611 8.987 9.387 9.587 7.827 6.907 7.237 7.827 7.367 6.347 6.717
1224.901 7.797 7.517 6.287 6.667 7.327 6.497 5.747 6.417 6.167 5.247
1244.191 4.897 3.787 3.687 3.987 3.517 2.957 3.117 3.747 4.017 4.057
1263.481 4.047 4.477 5.017 5.207 5.437 5.397 5.717 6.147 6.467 6.767
1282.771 6.587 6.567 6.517 6.607 6.757 6.727 6.727 6.607 6.607 6.607
1302.060 6.267 6.067 6.127 6.307 6.577 6.757 7.347 8.237 9.267 10.607
1321.350 11.867 13.137 14.307 15.337 15.917 15.847 15.497 15.267 15.307 15.557
1340.640 16.227 17.387 19.137 21.487 24.107 26.597 28.647 30.157 30.837 30.297
1359.930 28.607 26.177 23.427 20.447 17.507 14.767 12.677 11.197 9.877 8.877
1379.219 8.257 7.867 7.707 7.687 7.567 7.607 7.577 7.167 6.977 6.837
1398.509 6.477 6.327 6.337 6.197 6.067 6.237 6.767 7.357 7.797 8.487
1417.799 9.227 10.047 11.017 11.857 12.697 13.477 14.187 15.027 16.027 17.097
1437.089 18.357 19.627 20.867 21.877 22.517 22.587 22.247 21.837 20.687 19.297
1456.378 17.877 16.387 15.077 13.817 12.777 11.927 11.417 11.057 10.767 10.497
1475.668 10.307 10.287 10.437 10.807 11.347 12.027 13.217 14.527 15.517 16.087
1494.958 16.047 15.667 14.837 13.567 12.097 10.577 9.057 7.777 6.847 5.847
1514.248 5.007 4.497 4.197 4.077 3.807 3.687 3.567 3.357 3.427 3.457
1533.538 3.427 3.437 3.377 3.157 3.237 3.147 2.917 2.927 2.747 2.667
1552.827 2.757 2.767 2.827 2.787 2.707 2.917 3.177 3.207 3.247 3.457
1572.117 3.807 4.147 4.347 4.797 5.377 5.907 6.327 6.987 7.747 8.117
1591.407 8.587 9.237 9.357 9.027 8.787 8.437 7.697 6.767 5.967 5.247
1610.697 4.537 3.987 3.657 3.547 3.467 3.207 3.037 2.857 2.897 2.947
1629.986 2.837 2.737 2.787 2.917 2.927 2.737 2.737 3.107 3.527 3.617
1649.276 3.737 3.937 3.997 4.297 4.477 4.537 4.577 4.677 4.777 4.907
1668.566 5.157 5.417 5.637 5.647 5.837 6.237 6.507 6.757 7.157 7.597
1687.856 8.147 9.017 10.147 11.727 13.897 16.567 20.067 25.107 31.477 39.947
1707.146 49.967 60.747 71.477 81.057 88.157 91.437 89.957 84.057 74.637 63.187
1726.435 51.097 39.777 30.227 22.917 17.547 13.947 11.517 9.797 8.517 7.687
1745.725 7.117 6.497 5.897 5.577 5.417 5.117 4.907 4.717 4.557 4.507
1765.015 4.347 4.207 4.187 4.107 4.067 4.157 4.117 4.007 4.037 3.957
1784.305 3.767 3.717 3.687 3.647 3.757 3.897 3.917 3.887 3.877 3.687
1803.594 3.307 3.007 2.797 2.597 2.407 2.277 2.197 2.167 2.087 2.037
1822.884 1.917 1.897 1.907 1.777 1.697 1.817 1.837 1.697 1.634 1.4283
1842.174 1.3697 1.536 1.667 1.797 1.787 1.677 1.727 1.6097 1.556 1.827
1861.464 1.977 1.957 1.947 1.987 2.097 2.167 2.207 2.377 2.377 2.277
1880.754 2.357 2.407 2.427 2.317 2.167 2.227 2.107 1.947 1.967 1.937
1900.043 1.867 1.697 1.747 1.797 1.5117 1.5197 1.5934 1.4615 1.4256 1.3837
1919.333 1.4111 1.4121 1.4864 1.6249 1.667 1.827 1.947 2.067 2.317 2.607
1938.623 2.707 2.657 2.837 2.997 2.897 2.867 2.797 2.627 2.577 2.477
1957.913 2.347 2.197 2.097 2.007 1.797 1.657 1.5529 1.3604 1.127 1.1701
1977.202 1.2521 1.23 1.238 1.2386 1.2372 1.2655 1.1162 1.0172 1.1435 1.1251
1996.492 1.0943 1.1294 1.1418 1.1146 1.1189 1.1736 1.1992 1.2165 1.1927 1.2101
2015.782 1.058 1.1505 1.2937 1.155 1.1746 1.2297 1.3132 1.2759 1.159 0.9885
2035.072 0.8888 0.9389 1.0602 1.2456 1.2156 1.1473 1.1976 1.2488 1.1873 1.0924
2054.362 1.0602 1.037 1.1569 1.284 1.2608 1.0564 0.9723 1.1767 1.2063 1.1029
2073.651 1.1438 1.1024 0.9684 0.9528 0.9077 0.8829 0.9998 1.0628 1.1734 1.2664
2092.941 1.1673 1.0912 1.0214 0.9987 1.1201 1.1907 0.9714 0.8342 0.9229 1.0153
2112.231 1.1472 1.06 1.0306 1.213 1.338 1.161 0.8737 0.9284 1.0357 0.9235
2131.521 0.9539 0.927 0.8281 0.9389 1.0419 1.0266 0.9625 0.9169 0.9628 0.9127
2150.810 0.7402 0.7574 0.8016 0.7602 0.7552 0.8034 0.8997 1.0317 1.0224 1.0307
2170.100 1.0574 1.0747 1.1716 1.0712 1.1555 1.327 1.1841 1.1381 1.1083 1.1007
2189.390 1.2163 1.146 1.0983 1.1919 1.1246 1.1174 1.1717 1.0945 0.9889 0.9897
2208.680 1.0066 1.2294 1.2341 1.0376 1.097 1.0178 1.0059 1.1125 1.2109 1.3009
2227.970 1.1327 0.9576 1.0211 1.1614 1.0733 0.9832 1.102 1.0774 1.0034 1.122
2247.259 1.2923 1.2235 1.1209 1.1775 1.2213 1.2263 1.185 1.1271 1.0826 1.0342
2266.549 1.111 1.2308 1.1145 0.9656 1.1717 1.2354 1.1248 0.9118 0.8029 0.9426
2285.839 1.0035 1.0123 1.1034 1.0027 0.8739 1.0292 0.961 1.0002 1.1207 1.13
2305.129 1.2321 1.3887 1.3239 1.3589 1.407 1.2488 1.1337 1.1113 1.4174 1.3909
2324.418 1.1883 1.2752 1.2016 1.2864 1.3923 1.1593 1.1803 1.2801 1.0763 1.0477
2343.708 1.1704 1.0823 1.2104 1.4688 1.3091 1.2662 1.1912 1.06 1.2782 1.1996
2362.998 0.9803 0.9045 1.0835 1.3531 1.3746 1.2451 1.1725 1.181 1.1123 1.0211
2382.288 1.0811 1.1215 1.179 1.2505 1.2639 1.2293 0.9065 0.72942 0.7736 1.0796
2401.578 1.3958 1.2003 0.9303 0.9634 1.1089 1.0818 1.0975 1.0982 1.133 1.191
2420.867 1.2802 1.4355 1.2988 1.0296 0.9033 1.0077 1.021 1.1625 1.2646 1.0916
2440.157 1.1605 1.3533 1.3504 1.2656 1.1972 1.155 1.2348 1.2771 1.1302 1.1902
2459.447 1.4569 1.4852 1.5433 1.403 1.2523 1.2469 1.2986 1.5353 1.4359 1.3438
2478.737 1.1518 1.056 1.2252 1.2063 1.1881 1.0987 1.1709 1.3249 1.3091 1.1735
2498.026 0.8814 0.9266 1.1317 1.1071 1.2791 1.3638 1.2668 1.0925 1.0595 1.2345
2517.316 1.3974 1.3406 1.202 1.2684 1.236 1.1588 1.1949 1.2419 1.1705 1.1084
2536.606 1.1624 1.0229 1.1352 1.2664 1.0699 0.9411 1.193 1.4243 1.2504 1.1229
2555.896 1.0902 1.2728 1.4167 1.3065 1.3918 1.4558 1.1941 1.3425 1.6238 1.4572
2575.186 1.274 1.2639 1.431 1.4744 1.3759 1.2424 1.0995 1.2067 1.2698 1.2989
2594.475 1.261 1.2467 1.3611 1.1862 1.1882 1.4164 1.5211 1.657 1.5938 1.5633
2613.765 1.5773 1.4998 1.697 1.697 1.717 1.887 1.857 1.967 2.137 2.457
2633.055 2.527 2.347 2.247 2.257 2.507 2.807 2.897 2.877 2.847 3.037
2652.345 3.017 2.927 2.877 2.807 2.877 2.837 2.747 2.567 2.407 2.387
2671.634 2.477 2.427 2.467 2.477 2.587 2.697 2.707 2.797 2.757 2.887
2690.924 2.917 2.817 2.987 3.017 3.047 3.187 3.137 3.067 2.837 2.757
2710.214 2.827 2.857 2.797 2.857 2.977 3.067 3.227 3.357 3.657 3.987
2729.504 4.237 4.637 5.277 5.877 6.377 6.657 7.207 7.757 7.677 7.857
2748.794 8.197 8.007 7.397 6.727 6.207 5.987 5.767 5.377 5.657 5.767
2768.083 5.447 5.247 5.327 5.487 5.697 5.987 6.247 6.427 6.527 6.897
2787.373 7.547 8.227 8.857 9.667 10.257 10.927 11.707 12.167 12.497 12.757
2806.663 12.827 12.637 12.447 12.527 12.747 12.717 13.007 13.927 14.727 15.307
2825.953 15.957 16.397 16.917 17.497 17.627 17.577 17.087 16.637 16.467 15.867
2845.242 15.117 14.797 14.827 15.127 15.397 15.787 16.487 17.147 17.497 17.947
2864.532 18.667 19.017 19.077 18.897 18.827 18.557 18.187 17.607 16.727 16.017
2883.822 15.287 14.647 14.237 14.037 13.877 13.907 14.237 14.737 15.387 16.307
2903.112 17.087 18.157 19.917 21.517 22.707 23.997 25.777 27.567 29.287 31.227
2922.401 33.287 35.317 37.507 40.177 42.867 45.327 48.107 51.347 55.007 59.167
2941.691 64.047 68.927 73.077 76.677 78.807 78.627 76.547 73.077 67.717 60.757
2960.981 53.397 46.187 39.617 33.967 29.377 25.517 22.427 19.427 16.467 14.027
2980.271 12.047 10.327 9.317 8.647 7.847 7.617 7.177 6.657 6.257 6.197
2999.561 6.167 6.377 6.707 6.807 6.937 6.717 6.847 7.317 7.627 8.167
3018.850 8.787 9.267 9.827 10.387 10.917 11.067 11.367 11.997 12.227 12.197
3038.140 12.247 12.047 11.957 11.627 10.957 11.067 11.537 11.637 12.047 13.247
3057.430 14.737 16.227 17.637 19.107 20.527 21.597 21.927 21.337 19.997 18.397
3076.720 16.847 15.457 13.827 13.017 12.937 12.767 12.597 12.527 12.217 11.817
3096.009 11.177 10.017 9.067 8.127 7.497 6.787 6.247 5.637 4.667 4.287
3115.299 4.217 3.617 3.277 3.147 2.887 2.627 2.547 2.267 1.737 2.117
3134.589 2.147 1.917 1.857 1.797 1.657 1.517 1.647 1.5316 1.4209 1.4498
3153.879 1.4999 1.5964 1.697 1.5115 1.1782 1.2073 1.657 1.897 1.6029 1.3269
3173.169 1.5138 1.4294 1.1137 1.1442 1.2887 1.3319 1.4819 1.727 1.4671 1.129
3192.458 1.5267 1.817 1.2062 0.8272 1.2851 0.9895 0.526 0.65963 0.7889 0.8374
3211.748 0.68087 0.8007 0.918 0.71044 0.463 0.5727 0.73456 0.68419 0.7263 0.9409
3231.038 0.897 0.5443 0.63351 0.9553 0.9525 1.2303 1.3262 0.853 0.717 0.923
3250.328 0.9586 0.7859 0.9674 1.2019 0.8371 0.9307 0.9923 0.8128 1.0203 1.0677
3269.617 0.8413 0.7649 0.7689 0.638293 0.65738 0.68508 1.1325 1.2865 1.0306 0.68378
3288.907 0.7839 1.3192 1.1354 0.9166 0.8184 1.0062 1.0622 0.9929 1.1419 1.1828
3308.197 1.6239 1.5186 0.9868 0.8843 0.9233 0.9277 1.1777 1.345 1.272 0.9815
3327.487 0.9189 1.507 1.2031 0.8163 1.1929 1.4439 1.2503 1.065 1.1852 1.1111
3346.777 1.2789 1.3396 1.2359 1.2466 1.1732 1.2909 1.0643 0.794 0.8172 0.7446
3366.066 0.8801 0.9767 0.8058 0.5499 0.6035 0.9137 1.1676 1.2784 1.0903 0.826
3385.356 0.68026 0.73167 0.8083 0.5436 0.7133 0.8062 0.8968 1.1739 1.1077 1.4023
3404.646 1.847 2.157 2.237 2.267 2.187 2.177 2.167 1.997 2.127 2.157
3423.936 1.717 1.707 1.687 1.4016 1.2752 1.1914 1.0278 0.7381 1.1007 1.0632
3443.225 0.62772 1.2958 1.5469 0.8421 0.6169 0.5893 0.55 0.68387 0.7826 0.855
3462.515 0.7821 1.0418 1.1726 0.8458 0.8987 1.0769 1.1908 1.0991 0.449 0.27
3481.805 0.7528 0.8605 0.6516 0.404 0.459 0.42 0.5735 1.0461 0.9987 0.8013
3501.095 0.7871 0.73203 0.425 0.133 0.321 0.579 0.5743 0.67913 0.69695 1.1262
3520.385 1.3132 0.8566 0.5897 0.405 0.6049 0.68229 0.8376 0.977 0.8548 0.68652
3539.674 0.8429 1.0933 0.9068 0.72 0.402 0.69736 1.0852 0.9525 0.7803 0.6323
3558.964 0.7989 0.9681 0.9092 1.0352 1.1251 0.9572 1.0841 0.8081 0.377 0.8932
3578.254 1.2024 1.2165 1.0957 0.624 0.41 0.339 0.499 0.8102 0.7691 0.5938
3597.544 0.8462 1.2204 1.0066 0.419 0.28 0.449 0.507 0.66307 0.9363 0.9001
3616.833 0.7628 0.72054 0.66466 0.7974 0.8076 0.6099 0.5642 0.62918 0.414 0.423
3636.123 0.8597 0.973 0.223 0 0.481 1.0643 1.4672 1.2807 1.1513 0.8115
3655.413 0.70011 0.7192 1.1374 1.486 1.2361 0.9924 0.74 0.8002 0.9427 0.72412
3674.703 0.518 0.5609 0.7804 0.6225 0.57 0.9743 0.8933 0.8999 0.8502 0.8364
3693.993 1.0222 0.9319 0.9798 0.9158 0.8171 1.0058 1.2591 0.8324 0.5977 0.8829
3713.282 0.8291 1.0066 1.0908 0.9326 1.1857 0.9007 0.478 0.72775 0.515 0.349
3732.572 1.0383 1.5288 1.2042 0.70571 0.71454 0.8288 1.0193 1.1737 0.9165 0.9335
3751.862 0.9312 0.938 0.766 0.8335 1.0319 1.127 1.2819 0.9322 0.65657 0.7796
3771.152 0.8477 0.8841 0.8823 0.7641 0.5802 0.6269 0.72909 0.9811 1.1072 1.0243
3790.441 0.8005 0.6242 0.7573 0.543 0.291 0.5494 0.70561 0.7703 0.924 0.69569
3809.731 0.6196 0.72106 0.963 0.8158 0.403 0.313 0.52 0.49 0.5916 1.0035
3829.021 0.72387 0.375 0.514 0.9416 1.5011 1.3683 0.8465 0.9994 0.9404 0.638227
3848.311 0.8327 0.8998 0.8769 0.842 0.639965 0.8386 0.65986 0.283 0.44 0.5806
3867.601 1.0457 1.3086 1.0195 0.9168 0.644848 0.522 0.7626 1.1565 1.0255 0.5877
3886.890 0.8371 1.1028 1.0653 0.5939 0.6095 0.9775 1.1176 1.356 1.048 0.9571
3906.180 1.2475 1.1465 0.9292 1.1855 1.1262 0.775 1.0114 1.5361 1.5163 1.0436
3925.470 1.1472 1.4582 1.4418 1.011 1.3662 1.657 1.1226 0.8904 0.8688 0.66503
3944.760 0.6209 0.7826 0.8134 0.9006 0.73515 0.70035 0.7745 0.5545 0.67938 0.834
3964.049 0.9114 1.0791 1.2152 1.2998 1.1436 0.983 0.5796 0.5544 0.9423 1.1453
3983.339 1.3227 1.2391 1.1335 0.9685 0.6003 0.273 0.473 0.604 0.67799 1.3649
##END=
