##TITLE=N-Vinylphthalimide
##JCAMP-DX=4.24
##DATA TYPE=INFRARED SPECTRUM
##ORIGIN=EPA-IR VAPOR PHASE LIBRARY
##OWNER=SRD/NIST
Collection (C) 2018 copyright by the U.S. Secretary of Commerce
on behalf of the United States of America. All rights reserved.
##CAS REGISTRY NO=3485-84-5
##MOLFORM=C 10 H 7 N O 2
##$NIST SOURCE=MSDC-IR
##STATE=gas
##XUNITS=1/CM
##YUNITS=ABSORBANCE
##XFACTOR=1.
##YFACTOR=0.001
##DELTAX=1.92898
##FIRSTX=549.8
##LASTX=4000.7
##FIRSTY=4.07
##MAXX=4000.7
##MINX=549.759
##MAXY=0.37213
##MINY=0
##NPOINTS=1790
##XYDATA=(X++(Y..Y))
549.759 4.07 3.59 3.98 3.11 2.2056 2.0594 1.032 1.39976 1.6413 1.46667
569.049 1.8424 1.5932 1.274 1.40571 1.7203 3.03 4.5 4.57 4.67 5.26
588.339 5.39 5.59 6.37 6.53 6.08 5.63 5 4.2 3.08 2.51
607.628 2.1575 1.7539 1.8096 1.7492 1.4479 1.192 0.891 0.662 0.782 1.248
626.918 1.143 0.593 1.3514 2.4 2.47 2.1539 1.7476 1.9366 2.3982 2.81
646.208 3.21 3.24 3.67 5.09 6.45 7.46 9.05 11.23 13.77 16.06
665.498 18.31 20.92 23.87 26.37 25.43 21.18 17.64 16 14.55 12.38
684.787 10.08 8.69 7.9 6.95 6.78 7.34 7.15 6.81 7.82 9.58
704.077 11.62 13.42 14.94 17.58 20.62 24.6 28.72 32.1 36.26 42.91
723.367 53.07 55.1 43.9 34.88 31.31 28.32 24.85 19.91 15.16 11.61
742.657 8.86 6.53 5.26 4.44 4.11 4.22 4.05 3.62 2.99 3.05
761.947 3.26 2.94 2.3208 2.64 3.16 3.53 4.32 4.8 5.44 5.68
781.236 6.16 6.96 7.38 8.39 9.66 9.32 7.38 6.43 6.22 5.58
800.526 5.08 4.23 3.66 3.33 2.69 2.5 2.4 2.3268 2.51 2.0676
819.816 1.805 2.3149 1.9676 1.47831 1.7983 2.3924 2.92 2.74 2.45 2.48
839.106 2.8 3.06 2.9 2.73 3 3.75 4.25 4.02 4.26 4.79
858.395 5.21 5.87 6.13 7.26 9.23 10.98 13.61 16.68 18.98 20.79
877.685 21.7 22.23 24.07 26.41 28.07 28.34 27.45 26.85 26.86 28.38
896.975 30 28.74 25.39 22.84 21.25 19.61 18.12 16.92 16.06 15.54
916.265 15.48 15.92 16.79 17.18 16.52 15.62 14.89 13.87 12.45 10.39
935.555 8.46 7.55 6.89 6.53 6.63 6.98 6.99 7.42 8.21 8.53
954.844 8.87 9.28 10.16 10.77 11.16 12.12 12.92 13.91 15.26 16.07
974.134 17.11 18.05 18.47 18.62 17.62 16.58 16.39 16.45 16.53 17.18
993.424 18.85 20.46 22.19 23.8 24.7 25.8 27.84 31.04 33.17 34.5
1012.714 36.18 37.43 38.44 39.09 40.46 42.06 42.67 41.72 40.37 38.87
1032.003 36 32.87 29.81 26.86 23.44 19.62 17.41 15.73 14.28 12.84
1051.293 10.88 9.82 9.2 8.57 8.47 7.8 5.95 5.95 6.89 6.44
1070.583 5.92 6.28 6.21 5.38 5.24 6.14 6.53 6.53 6.03 5.69
1089.873 6.01 6.68 6.61 5.5 5.25 4.94 4.89 4.96 4.56 5.65
1109.163 6.26 5.29 4.66 5.18 5.84 5.57 5.07 4.94 4.55 4.64
1128.452 5.3 5.44 6.24 7.95 8.85 9.32 11.4 13 15.02 17.82
1147.742 19.25 19.26 18.36 19.41 21.43 22.34 22.39 21.26 19.45 19.05
1167.032 19.93 20.19 18.24 16.81 16.21 15.07 13.48 11.25 9.7 8.92
1186.322 7.81 6.82 7.04 6.96 6.41 6 6.05 6.55 6.64 7.57
1205.611 9.6 10.19 10.33 11.6 11.9 11.43 10.92 10.1 9.01 7.45
1224.901 5.82 3.69 2.3104 2.1545 1.5287 0.848 0.18 0 0.95 1.9832
1244.191 2.41 2.2249 2.1315 2.5 3.27 3.31 3.38 3.44 3.09 3.46
1263.481 3.75 3.91 4.37 5.19 6.44 7.02 7.67 8.97 10.41 12.04
1282.771 13.87 15.64 17.95 20.81 23.88 28.18 34.64 42.53 51.38 60.29
1302.060 66.26 68.2 67.62 65.57 61.65 56.43 48.61 37.67 27.08 19.5
1321.350 15.37 13.46 12.73 12.5 12.47 12.8 13.65 14.94 16.58 18.82
1340.640 21.94 25.98 31.12 37.6 45.27 54.17 64.58 76.54 90.1 105.45
1359.930 123.48 145.7 172.79 203.34 235.08 264.44 287.13 301.09 305.63 301.01
1379.219 286.87 263.41 230.2 191.11 151.72 118.63 94.95 77.8 63.99 52.83
1398.509 44.64 38.4 34.1 31.43 30.19 29.69 28.75 27.23 26.11 24.74
1417.799 23.26 21.52 18.84 15.87 13.42 12.11 11.25 10.79 10.51 10.09
1437.089 9.79 9.5 9.18 8.68 8.32 8.16 7.87 7.75 7.66 7.85
1456.378 8.23 8.7 9.37 10.21 11.3 12.07 12.21 12.05 12.07 12.09
1475.668 11.33 10.15 8.97 7.74 6.73 5.98 5.48 5.14 4.92 4.78
1494.958 4.56 4.5 4.63 4.66 4.87 5.25 5.24 5.07 5.22 5.24
1514.248 5.14 5.12 5.07 5.02 5.12 5.14 5.05 5.02 4.9 4.76
1533.538 4.86 4.79 4.45 4.33 4.42 4.63 4.78 4.8 4.74 4.81
1552.827 5.06 5.51 5.9 6.07 6.56 6.97 6.98 7.38 7.56 7.34
1572.117 7.33 7.39 7.46 7.24 7.04 7.08 7.09 6.96 7.16 7.44
1591.407 7.55 7.8 8.35 8.77 9.23 9.82 10.53 11.61 12.75 13.89
1610.697 14.9 15.77 16.44 16.96 17.46 18.28 19.31 20.42 22.31 24.86
1629.986 27.98 31.84 36.18 41.21 45.24 47.36 47.46 46.13 43.55 39.48
1649.276 34.79 29.01 21.32 14.77 10.48 7.92 6.79 6.24 6.07 6.04
1668.566 6.13 6.36 6.75 7.07 7.29 7.41 7.56 7.63 7.68 7.95
1687.856 8.19 8.41 8.92 9.74 10.71 11.89 13.45 15.26 17.21 19.73
1707.146 22.53 25.48 29.01 33.38 39.17 47.23 57.67 70.49 88.09 111.18
1726.435 140.68 177.1 220.89 267.26 314.59 352.39 370.09 372.13 369.71 370.15
1745.725 362.46 330.5 277.06 217.57 166.48 126.96 95.98 73.9 58.2 47.37
1765.015 40.13 34.87 30.92 28.29 26.14 24.84 24.68 25.55 28.1 32.35
1784.305 37.63 43.09 47.81 51.06 53.15 54.14 53.83 52.27 48.37 42.45
1803.594 36.32 31.1 27.13 24.14 21.37 18.81 16.47 14.14 12.06 10.36
1822.884 9.08 8.18 7.39 6.96 6.73 6.57 6.46 6.41 6.61 6.66
1842.174 6.78 6.82 6.66 6.77 6.77 6.61 6.45 6.21 6.13 6.08
1861.464 5.82 5.62 5.64 5.65 5.64 5.75 5.72 5.42 5.05 5.01
1880.754 5.1 4.83 4.35 4.26 4.17 3.86 3.68 3.63 3.55 3.38
1900.043 3.33 3.41 3.46 3.42 3.49 3.56 3.57 3.58 3.45 3.4
1919.333 3.37 3.39 3.49 3.48 3.59 3.76 4.01 4.17 4.28 4.38
1938.623 4.28 4.32 4.42 4.34 4.17 4.05 3.88 3.6 3.39 3.13
1957.913 2.88 2.86 3.03 3.05 3.08 3.11 3.04 3.11 3.11 3.08
1977.202 2.96 2.57 2.3258 2.2195 2.0875 2.076 2.0365 1.8449 1.8234 1.9772
1996.492 2.0158 1.9589 1.9325 2.0798 2.0967 2.0452 2.0401 1.8795 1.8284 1.8762
2015.782 1.9344 1.993 1.9742 1.8566 1.7832 1.9044 1.9208 1.8647 1.9165 1.8231
2035.072 1.7113 1.7377 1.859 1.8173 1.769 1.7835 1.8317 1.8503 1.8867 2.0993
2054.362 2.0288 1.9161 1.989 2.0035 1.897 1.8271 1.8867 2.0894 2.2307 2.0852
2073.651 2.1895 2.3726 2.3783 2.43 2.344 2.3376 2.43 2.3077 2.2451 2.2558
2092.941 2.2219 2.307 2.2138 1.9878 1.9244 1.894 1.8915 1.8349 1.7385 1.755
2112.231 1.7495 1.7242 1.7031 1.7746 1.8822 1.8875 1.9418 1.9266 1.8003 1.8872
2131.521 2.0048 1.8981 1.9835 1.9702 1.7908 1.755 1.7586 1.7812 1.9221 2.0121
2150.810 1.9035 1.7639 1.779 1.8371 1.6923 1.7276 1.8934 1.8695 1.9271 1.8846
2170.100 1.9376 2.1669 2.0589 1.9332 1.8477 1.8762 2.1432 2.2846 2.1523 2.069
2189.390 1.915 1.7751 1.8074 1.7592 1.7505 1.7465 1.5536 1.5465 1.8002 1.8997
2208.680 1.8986 1.7932 1.7297 1.8654 1.9685 1.8806 1.9337 2.0762 2.0967 2.0167
2227.970 1.9107 1.827 1.8678 2.1007 2.0911 2.0422 2.1568 2.1964 2.1191 2.029
2247.259 2.1905 2.2548 2.3228 2.3155 2.2249 2.2968 2.2214 2.2989 2.1165 1.8576
2266.549 2.0682 2.0404 1.7845 1.8187 1.9958 2.0752 2.0444 1.9929 2.1364 2.2186
2285.839 2.1933 2.1135 2.1334 2.1302 2.1707 2.1701 2.0454 2.0872 2.135 2.2497
2305.129 2.3034 2.3479 2.1961 2.0994 2.3045 2.3854 2.3864 2.4 2.52 2.66
2324.418 2.47 2.3612 2.53 2.52 2.55 2.61 2.59 2.69 2.69 2.3537
2343.708 2.0775 2.0049 2.112 2.3459 2.57 2.3951 2.1565 2.1802 2.2229 2.47
2362.998 2.56 2.49 2.58 2.73 2.63 2.49 2.57 2.64 2.52 2.3964
2382.288 2.5 2.58 2.65 2.52 2.53 2.59 2.2218 2.0001 2.1622 2.1668
2401.578 2.1339 2.2932 2.3261 2.1983 2.0674 2.059 2.0261 2.0094 2.1094 1.952
2420.867 1.8065 2.0222 1.8758 1.8298 1.9911 1.9338 1.8072 1.8335 2.032 1.9636
2440.157 1.8469 2.0135 2.1932 2.1451 2.1503 2.0202 1.6838 1.6365 1.7899 1.8143
2459.447 1.8648 1.9252 1.8879 1.9251 1.7814 1.6209 1.6588 1.8311 1.8975 1.7375
2478.737 1.623 1.45854 1.42663 1.3149 1.258 1.5934 1.7334 1.5309 1.5481 1.6484
2498.026 1.7227 1.8754 1.8347 1.7235 1.8591 1.863 1.7841 1.9001 1.8406 1.7355
2517.316 1.665 1.6758 1.9913 2.1529 1.9873 1.9248 1.8525 1.7685 1.8272 1.9333
2536.606 2.1314 2.1176 1.889 1.8696 1.8818 2.0366 2.0866 1.8593 1.9836 2.1712
2555.896 1.9351 2.0299 2.2911 2.3051 2.2825 2.0225 1.8312 1.6969 1.8691 1.9502
2575.186 1.7885 1.7868 1.5562 1.636 1.7882 1.5944 1.6159 1.7873 1.8018 1.7939
2594.475 1.7559 1.6699 1.6723 1.7495 1.7789 1.8272 1.8792 1.8166 1.9467 1.9808
2613.765 1.5858 1.5025 1.6971 1.8783 1.8646 1.8044 1.8523 1.7395 1.7179 1.9606
2633.055 2.0004 1.8265 1.8318 2.0228 2.0082 1.6856 1.6683 1.8902 1.9716 1.9044
2652.345 1.86 1.6999 1.7592 1.9642 1.9136 1.8098 1.8051 1.9709 2.1324 1.94
2671.634 1.8887 2.0796 2.0946 1.9223 1.8971 2.0882 2.3642 2.46 2.1825 1.8794
2690.924 1.8274 2.0417 2.212 2.2293 1.9833 1.939 2.001 1.7346 1.48162 1.6017
2710.214 1.7598 1.8108 1.7637 1.5353 1.44923 1.5628 1.41962 1.5101 1.8087 1.6101
2729.504 1.3865 1.39809 1.6046 1.7216 1.7015 1.534 1.48195 1.4029 1.359 1.284
2748.794 1.49403 1.8947 1.6388 1.3083 1.3139 1.412 1.6209 1.7398 1.7098 1.7926
2768.083 1.7402 1.7998 2.1596 1.9952 1.8756 2.1278 1.9442 1.8821 1.9705 2.1681
2787.373 2.2821 1.8625 1.6809 1.8409 1.8644 1.9114 1.9437 2.0636 2.2058 2.0691
2806.663 1.9835 2.0433 2.1898 2.0577 1.5808 1.5403 1.591 1.6788 1.7963 1.6338
2825.953 1.672 2.0106 2.1454 1.839 1.8154 1.7765 1.46031 1.5307 1.5345 1.5367
2845.242 1.8695 1.8199 1.6259 1.44256 1.289 1.48505 1.6832 1.9819 1.9945 1.745
2864.532 1.6384 1.277 1.245 1.44481 1.48923 1.587 1.6212 1.578 1.5587 1.705
2883.822 1.6055 1.5156 1.6975 1.7517 1.4088 1.5176 1.909 1.8055 1.877 1.5688
2903.112 1.111 1.46637 1.9377 2.0302 2.071 1.9074 1.6387 1.6665 2.1411 2.3581
2922.401 2.1473 2.0284 1.8592 2.0179 2.39 2.3864 2.2136 1.9411 1.7582 1.7266
2941.691 1.9562 2.2046 1.9195 1.582 1.686 1.7708 1.5439 1.81 1.9921 1.8712
2960.981 1.5999 1.252 1.5083 1.5698 1.3879 1.5876 1.6373 1.298 1.41728 2.1161
2980.271 2.175 1.8292 1.8004 1.8021 1.5635 1.5225 1.882 1.5445 1.064 1.3491
2999.561 1.7187 1.9558 1.7618 1.6428 1.8829 1.9468 1.7207 1.719 2.169 2.53
3018.850 2.45 2.3774 2.72 2.86 2.77 2.64 3.05 3.41 3.6 3.96
3038.140 4.09 4.41 5.07 5.87 6.93 8.26 9.42 10.51 11.64 12.75
3057.430 13.35 13.43 13.27 12.67 11.88 10.83 9.72 9.16 8.87 8.74
3076.720 8.79 9.25 10.05 10.73 11.2 11.28 10.89 10.53 9.91 9.19
3096.009 8.15 6.94 6.09 5.19 4.09 3.38 3.23 2.77 2.3783 2.1025
3115.299 1.9158 2.0402 2.1413 2.1318 2.1729 2.52 3.01 2.85 2.58 2.85
3134.589 2.9 2.84 2.6 2.57 2.66 2.0936 1.9056 1.8974 1.8762 1.6767
3153.879 1.3298 1.49927 1.5969 1.39309 1.6094 1.6659 1.5107 1.283 1.278 1.48772
3173.169 1.40669 1.246 1.153 1.5019 1.6465 1.47263 1.43637 1.5147 1.41592 1.168
3192.458 0.993 1.3661 1.3354 1.22 1.46305 1.7837 2.0574 1.7488 1.5314 1.4699
3211.748 1.529 1.6981 1.5244 1.5706 1.3875 0.998 1.196 1.162 1.217 1.43463
3231.038 1.44722 1.40477 1.49988 1.69 1.49071 1.279 1.248 1.6144 1.9451 1.6199
3250.328 1.7425 1.8179 2.0339 2.1398 1.7908 1.7389 1.239 0.945 0.909 0.947
3269.617 1.3036 1.4134 1.264 1.074 1.3521 1.5198 1.43232 1.571 1.203 0.837
3288.907 1.121 1.3625 1.5798 1.7408 1.6536 1.5529 1.44893 1.275 1.216 0.998
3308.197 1.027 1.3436 1.12 1.248 1.5554 1.5479 1.7239 1.40225 1.045 1.41354
3327.487 1.45906 1.233 1.069 1.11 1.42445 1.6071 2.0227 1.8933 1.8062 1.7861
3346.777 1.33 1.227 1.204 1.237 1.3835 1.4208 1.3752 1.3366 1.3838 1.5048
3366.066 1.178 1.3804 1.8539 1.5305 1.121 1.13 0.966 1.032 1.252 0.784
3385.356 0.881 0.989 0.776 1.103 1.3172 1.44575 1.3182 1.3884 1.7644 1.8643
3404.646 1.6899 1.6761 1.5503 1.4442 1.825 1.959 1.5131 1.167 0.888 0.813
3423.936 1.188 1.40764 1.6162 1.222 1.3383 1.7596 1.6852 1.5281 1.5546 1.6936
3443.225 1.6262 1.5805 1.4682 1.5486 1.6239 1.6252 1.597 1.6348 1.7162 2.0094
3462.515 2.2331 2.1789 2.1646 2.3698 2.3813 2.45 2.78 2.67 2.58 2.59
3481.805 2.55 3.06 2.99 2.84 3.33 3.47 3.22 3 3.44 3.8
3501.095 3.56 3.6 4.05 4.1 4.68 5.12 4.83 4.45 4.37 4.88
3520.385 4.75 4.45 4.53 4.22 3.77 3.76 3.53 2.76 2.57 2.5
3539.674 2.249 2.1491 1.9384 1.5555 1.106 1.5079 1.7965 1.665 1.75 1.252
3558.964 0.99 1.164 1.352 1.7221 1.7248 1.6424 1.5135 1.44591 1.6367 1.7948
3578.254 1.7079 1.5226 1.3849 1.5739 1.264 0.978 1.073 1.124 1.45323 1.281
3597.544 1.201 1.3474 1.187 1.135 1.084 0.85 0.906 1.002 0.729 1.021
3616.833 1.5696 1.44189 1.47978 1.44635 1.116 1.231 1.6856 1.7195 1.43485 1.184
3636.123 1.108 1.136 1.3162 1.167 0.878 0.689 0.954 1.3699 1.41861 1.3084
3655.413 1.116 1.085 0.84 1.088 1.117 0.774 1.3266 1.3503 0.947 1.032
3674.703 1.5985 1.962 1.6165 1.3591 1.091 1.13 1.47314 1.37 0.957 1.103
3693.993 1.23 1.255 1.085 1.135 1.6085 1.3813 1.141 1.40625 1.40458 1.3785
3713.282 1.45246 1.242 0.639 0.68 1.188 1.6209 1.9503 1.8377 1.7983 1.8382
3732.572 1.8697 1.9518 1.7806 1.291 1.118 1.6579 1.8574 1.3607 1.05 1.3027
3751.862 1.6722 1.6058 1.3451 0.959 1.072 1.12 1.146 1.44305 1.43289 1.236
3771.152 1.106 1.209 1.256 1.224 1.3828 1.7423 1.5858 1.883 2.045 1.9581
3790.441 1.6152 0.956 0.97 1.159 1.41114 1.7116 1.7158 1.223 1.3451 1.5707
3809.731 1.40492 1.215 1.001 1.252 1.5755 1.7795 1.7386 1.3497 1.5928 1.5652
3829.021 1.167 1.371 1.219 1.063 1.5327 1.3264 1.242 1.183 1.008 1.065
3848.311 1.048 0.975 0.806 0.91 1.081 0.977 0.74 0.781 0.712 0.647
3867.601 0.794 1.075 1.25 1.005 1.049 1.297 1.217 1.579 1.989 1.592
3886.890 1.237 1 0.942 0.983 0.934 1.3744 1.3379 0.708 0.848 1.45029
3906.180 1.7222 1.7072 1.3571 1.194 1.5413 1.6761 1.49249 1.4148 1.3083 0.876
3925.470 0.767 1.161 1.47396 1.198 1.278 1.269 1.2 1.42016 1.069 0.945
3944.760 0.848 1.3785 1.4588 1.4923 2.0335 1.6491 1.058 0.753 0.889 1.222
3964.049 1.5572 1.539 1.5138 1.41757 1.233 0.931 0.85 1.46165 1.5524 1.184
3983.339 1.037 1.135 1.279 1.5989 1.5419 1.193 1.124 1.3472 1.3675 1.3137
##END=
