##TITLE=3,5-Dichlorophenyl isocyante
##JCAMP-DX=4.24
##DATA TYPE=INFRARED SPECTRUM
##ORIGIN=EPA-IR VAPOR PHASE LIBRARY
##OWNER=SRD/NIST
Collection (C) 2018 copyright by the U.S. Secretary of Commerce
on behalf of the United States of America. All rights reserved.
##CAS REGISTRY NO=34893-92-0
##MOLFORM=C 7 H 3 Cl 2 N O
##$NIST SOURCE=MSDC-IR
##STATE=gas
##XUNITS=1/CM
##YUNITS=ABSORBANCE
##XFACTOR=1.
##YFACTOR=0.001
##DELTAX=3.85796
##FIRSTX=501.5
##LASTX=4000.7
##FIRSTY=0.033
##MAXX=4000.7
##MINX=501.534
##MAXY=0.365223
##MINY=0
##NPOINTS=908
##XYDATA=(X++(Y..Y))
501.534 0.033 0 0.09 0.1847 0.4526 0.5546 0.3997 0.4631 0.6604 0.656
540.114 0.7228 0.9883 1.373 1.773 2.113 2.183 1.983 1.983 2.193 2.553
578.693 3.063 3.223 3.183 3.153 2.963 2.883 2.973 3.053 3.283 3.693
617.273 3.953 3.983 3.823 3.593 3.463 3.353 3.363 3.893 5.023 7.033
655.852 9.523 11.463 13.923 12.143 7.573 5.143 3.073 1.793 1.313 1.1056
694.432 1.0259 0.9891 0.9759 1.0189 1.0502 0.9913 0.9204 0.8561 0.8031 0.7962
733.011 0.7235 0.6346 0.6014 0.6194 0.604 0.5501 0.6008 0.7185 0.7859 0.9755
771.591 1.226 1.543 2.323 3.603 5.813 9.283 13.813 18.293 21.063 21.433
810.170 19.903 18.063 17.363 17.483 17.153 15.713 13.563 12.133 12.993 15.803
848.750 19.993 24.483 25.353 25.303 27.953 31.013 31.273 27.053 18.813 10.073
887.330 5.213 3.373 2.603 2.253 1.963 1.723 1.593 1.433 1.2316 1.0159
925.909 0.7535 0.5755 0.4535 0.3879 0.3869 0.3833 0.3065 0.2214 0.23615 0.252241
964.489 0.30532 0.29067 0.28919 0.33978 0.30268 0.29627 0.365 0.451 0.4319 0.4063
1003.068 0.3805 0.25443 0.2057 0.2112 0.1506 0.136 0.2254 0.216 0.2303 0.31286
1041.648 0.30569 0.3792 0.4948 0.7199 0.9809 1.1557 1.253 1.333 1.553 2.033
1080.227 2.863 3.943 5.573 7.993 10.383 11.693 11.303 9.113 5.983 3.403
1118.807 1.963 1.283 1.0448 0.9026 0.7744 0.6908 0.4423 0.28232 0.29218 0.243492
1157.387 0.2066 0.23687 0.32363 0.476 0.5674 0.5172 0.553 0.5665 0.5448 0.6019
1195.966 0.6855 0.6352 0.5177 0.476 0.4177 0.4014 0.5278 0.6633 0.664 0.5853
1234.546 0.4606 0.3874 0.3902 0.4144 0.51 0.5713 0.4396 0.34176 0.3871 0.48
1273.125 0.6553 0.8133 0.8757 0.9227 0.883 0.7436 0.6305 0.5698 0.5564 0.5754
1311.705 0.6276 0.6733 0.711 0.7075 0.6607 0.6165 0.6077 0.6219 0.6654 0.7233
1350.284 0.7795 0.88 1.0245 1.373 2.063 3.233 4.953 7.023 9.183 10.863
1388.864 11.523 11.163 10.033 8.863 8.383 8.763 9.793 10.893 11.723 11.933
1427.443 11.263 9.993 8.343 6.573 5.143 4.293 3.903 3.803 3.943 4.223
1466.023 4.533 4.893 5.373 6.143 7.383 9.193 11.273 12.413 11.663 9.493
1504.603 6.863 4.783 3.963 4.153 4.943 5.943 6.853 7.343 7.373 7.323
1543.182 7.823 9.763 14.213 22.363 35.083 50.523 63.523 70.273 68.563 61.473
1581.762 60.223 68.873 78.573 79.663 69.193 50.823 31.883 18.183 10.773 7.233
1620.341 5.453 4.403 3.653 3.123 2.693 2.353 2.123 1.983 1.853 1.713
1658.921 1.523 1.373 1.253 1.1719 1.1211 1.0762 1.0259 0.9756 0.9672 1.0097
1697.500 1.1495 1.363 1.563 1.743 1.893 1.983 2.013 2.013 1.883 1.663
1736.080 1.413 1.153 0.8893 0.6767 0.5642 0.4962 0.4473 0.4198 0.4056 0.4017
1774.659 0.4104 0.4143 0.4021 0.3884 0.3694 0.3838 0.4065 0.4444 0.4781 0.4921
1813.239 0.509 0.5166 0.5036 0.4721 0.4414 0.4296 0.4092 0.3933 0.3762 0.3523
1851.819 0.3614 0.3762 0.3782 0.3792 0.3746 0.3563 0.33677 0.33472 0.33874 0.33435
1890.398 0.34251 0.3597 0.3779 0.3809 0.3837 0.3731 0.3514 0.32542 0.32876 0.3572
1928.978 0.3735 0.3914 0.4176 0.4573 0.4928 0.5173 0.5378 0.5601 0.5958 0.6367
1967.557 0.6759 0.7169 0.7485 0.7365 0.6954 0.6689 0.6445 0.6373 0.6354 0.6199
2006.137 0.6321 0.6733 0.7118 0.7622 0.7912 0.8419 0.8852 0.8955 0.9524 1.019
2044.716 1.064 1.0886 1.1027 1.1301 1.115 1.0819 1.0881 1.1154 1.1776 1.2273
2083.296 1.263 1.353 1.443 1.513 1.593 1.693 1.843 2.063 2.303 2.543
2121.875 2.823 3.203 3.703 4.333 5.193 6.353 7.833 9.443 10.813 11.573
2160.455 11.593 11.043 10.433 10.173 10.353 10.943 11.843 13.053 14.713 16.833
2199.035 19.483 22.623 26.033 29.373 32.373 35.003 37.583 40.623 44.623 50.333
2237.614 58.723 70.903 88.063 111.403 142.303 181.963 231.023 287.303 339.213 365.223
2276.194 348.953 291.983 214.403 144.223 96.653 69.303 54.483 46.483 41.733 38.573
2314.773 36.693 35.843 35.633 35.753 35.653 34.943 33.583 31.913 30.523 29.943
2353.353 30.173 30.273 29.203 26.793 23.353 19.343 15.383 12.003 9.563 7.963
2391.932 6.913 6.213 5.683 5.223 4.803 4.353 3.923 3.553 3.213 2.923
2430.512 2.713 2.613 2.543 2.543 2.603 2.653 2.713 2.733 2.673 2.433
2469.092 2.073 1.713 1.363 1.0918 0.9474 0.8537 0.7856 0.7168 0.6425 0.6239
2507.671 0.611 0.5749 0.5567 0.5583 0.5563 0.5265 0.5241 0.5383 0.5071 0.4937
2546.251 0.4669 0.427 0.4419 0.4717 0.4653 0.4615 0.4752 0.4618 0.4623 0.4556
2584.830 0.4613 0.4942 0.5231 0.5547 0.5449 0.5268 0.5281 0.5298 0.5306 0.5092
2623.410 0.4785 0.4853 0.5079 0.516 0.5512 0.6357 0.7032 0.7376 0.7597 0.7838
2661.989 0.806 0.81 0.812 0.8528 0.837 0.811 0.7947 0.767 0.7848 0.8235
2700.569 0.8851 0.9185 1.008 1.1544 1.2348 1.273 1.204 1.0338 0.885 0.7732
2739.148 0.6635 0.5842 0.5696 0.5497 0.4801 0.4285 0.4253 0.4192 0.4105 0.399
2777.728 0.3855 0.398 0.4419 0.4713 0.4678 0.4624 0.4788 0.4796 0.4544 0.4433
2816.308 0.4155 0.378 0.3813 0.4641 0.5139 0.5172 0.5244 0.5254 0.4987 0.4641
2854.887 0.4745 0.4763 0.4386 0.3599 0.31023 0.33604 0.375 0.3717 0.3997 0.4132
2893.467 0.4309 0.5188 0.5851 0.6322 0.7117 0.828 0.9747 1.1047 1.2023 1.283
2932.046 1.283 1.1919 1.0516 0.8689 0.6845 0.5064 0.4183 0.4178 0.378 0.398
2970.626 0.4526 0.4364 0.4067 0.4258 0.4756 0.4794 0.4241 0.3291 0.25689 0.2294
3009.205 0.2227 0.221 0.2135 0.1961 0.1895 0.1907 0.1602 0.1718 0.1819 0.1628
3047.785 0.1852 0.24197 0.25684 0.2693 0.323 0.3803 0.4319 0.4937 0.5912 0.6706
3086.364 0.7409 0.776 0.705 0.6457 0.6015 0.6193 0.7405 0.864 1.0775 1.353
3124.944 1.613 1.863 2.143 2.333 2.393 2.383 2.223 1.893 1.493 1.1326
3163.524 0.8796 0.6898 0.5566 0.45 0.44 0.4394 0.3983 0.3666 0.31202 0.3758
3202.103 0.374 0.32198 0.352 0.34071 0.33499 0.28965 0.28489 0.28883 0.246619 0.26437
3240.683 0.28075 0.29201 0.23554 0.1824 0.2232 0.182 0.109 0.089 0.12 0.1512
3279.262 0.2138 0.2215 0.2279 0.24418 0.1614 0.1566 0.2113 0.24138 0.242064 0.23821
3317.842 0.27803 0.2734 0.2281 0.2323 0.1966 0.24985 0.4046 0.4241 0.3924 0.499
3356.421 0.5149 0.5132 0.6113 0.6663 0.756 0.8055 0.7997 0.7792 0.6826 0.6211
3395.001 0.6475 0.7139 0.7815 0.847 0.9323 1.011 1.1942 1.453 1.653 1.863
3433.580 1.963 1.953 1.963 1.853 1.673 1.423 1.138 0.9088 0.7726 0.7196
3472.160 0.6608 0.5926 0.509 0.398 0.3703 0.4599 0.4673 0.4462 0.4418 0.4927
3510.740 0.526 0.5065 0.5116 0.4744 0.4948 0.5329 0.4971 0.5021 0.5161 0.4703
3549.319 0.5076 0.5111 0.5332 0.5524 0.5361 0.5326 0.5586 0.529 0.5279 0.5676
3587.899 0.5636 0.6231 0.6092 0.6837 0.7615 0.7271 0.7511 0.8272 0.877 0.9502
3626.478 1.008 1.0367 1.1272 1.2132 1.293 1.363 1.443 1.473 1.433 1.413
3665.058 1.343 1.2073 1.1055 0.9935 0.8893 0.8652 0.8608 0.8157 0.8114 0.8811
3703.637 0.8543 0.8751 0.861 0.8015 0.8379 0.8262 0.8444 0.9804 1.1033 1.2154
3742.217 1.353 1.443 1.573 1.673 1.723 1.663 1.553 1.403 1.1526 1.0019
3780.797 0.8972 0.7565 0.7097 0.7438 0.7363 0.752 0.7698 0.6918 0.6274 0.582
3819.376 0.6026 0.5737 0.6209 0.7031 0.5978 0.5717 0.5852 0.588 0.6176 0.6074
3857.956 0.5423 0.483 0.5202 0.5453 0.5258 0.486 0.3855 0.3922 0.4808 0.4953
3896.535 0.4617 0.3662 0.3553 0.32974 0.32216 0.3815 0.3597 0.34231 0.33105 0.27857
3935.115 0.28775 0.3597 0.3512 0.3462 0.3668 0.34045 0.3611 0.3958 0.4204 0.4192
3973.694 0.4103 0.4067 0.33434 0.25708 0.23356 0.3059 0.3668 0.3886
##END=
