##TITLE=3,5-Bis(trifluoromethyl)phenol
##JCAMP-DX=4.24
##DATA TYPE=INFRARED SPECTRUM
##ORIGIN=EPA-IR VAPOR PHASE LIBRARY
##OWNER=SRD/NIST
Collection (C) 2018 copyright by the U.S. Secretary of Commerce
on behalf of the United States of America. All rights reserved.
##CAS REGISTRY NO=349-58-6
##MOLFORM=C 8 H 4 F 6 O
##$NIST SOURCE=MSDC-IR
##STATE=gas
##XUNITS=1/CM
##YUNITS=ABSORBANCE
##XFACTOR=1.
##YFACTOR=0.001
##DELTAX=1.92898
##FIRSTX=549.8
##LASTX=4000.7
##FIRSTY=15.4147
##MAXX=4000.7
##MINX=549.759
##MAXY=1.65478
##MINY=0
##NPOINTS=1790
##XYDATA=(X++(Y..Y))
549.759 15.4147 14.3047 13.0847 11.9947 10.6447 9.5847 9.5547 9.6747 9.6647 9.9047
569.049 10.2947 10.8647 11.8247 11.9547 12.0047 11.8347 11.3147 11.4347 11.3647 11.9047
588.339 13.0347 13.7647 15.1547 17.5247 19.8747 22.0947 24.0447 25.5647 27.1147 29.0047
607.628 30.6247 32.2247 33.6347 34.3447 34.2247 34.0247 33.4647 31.5247 28.8647 25.8147
626.918 22.4747 19.8347 17.1047 14.5147 12.3147 10.6447 10.0347 9.3047 8.3247 8.0147
646.208 8.3347 8.5947 8.9047 9.0247 9.3847 9.9847 10.7947 12.5347 14.4647 16.7047
665.498 19.3847 23.3447 28.5747 36.6947 54.0147 93.7347 170.495 280.285 364.885 390.525
684.787 407.525 401.445 374.125 306.955 219.945 174.475 169.975 184.285 189.135 172.135
704.077 146.685 123.115 101.825 82.3547 64.7547 51.4247 44.9547 46.2547 55.4747 73.9347
723.367 100.095 122.875 128.775 127.145 129.265 133.615 121.105 88.7747 59.7247 39.9847
742.657 26.7047 18.2147 13.4347 10.4447 8.7147 7.9147 7.7547 7.7447 7.8247 8.1547
761.947 8.2947 8.4847 8.8347 8.8047 8.0247 7.4047 7.0447 6.7747 6.5747 6.3647
781.236 6.4247 6.3047 6.1347 6.2847 6.6047 6.9647 7.1847 7.2447 7.5547 8.0047
800.526 8.0347 8.4847 8.9247 8.7447 8.6847 8.7647 9.0447 9.4447 10.0047 10.8947
819.816 12.0347 13.8047 15.9947 19.1947 23.2547 28.4447 36.7047 48.5547 63.8147 81.7347
839.106 101.055 122.065 143.425 160.355 170.185 172.215 167.005 156.805 142.185 128.545
858.395 120.785 118.905 122.815 132.055 148.015 168.165 182.325 184.085 182.555 186.125
877.685 191.875 197.575 205.095 218.175 236.135 246.315 235.465 210.235 185.535 162.635
896.975 137.835 112.895 91.0547 74.2047 62.7547 55.6247 52.1047 51.7247 53.5947 58.4547
916.265 66.1747 77.1147 92.4347 113.215 141.645 181.255 235.275 306.165 394.715 492.655
935.555 579.095 631.405 647.085 642.125 621.625 562.565 453.925 329.145 225.345 151.945
954.844 103.865 73.9147 56.2547 47.2647 43.1347 41.0047 40.5947 41.4247 42.6147 43.7047
974.134 45.0147 46.7547 47.9647 47.9047 47.4647 46.9747 46.0547 45.6947 46.3147 48.2747
993.424 52.4547 58.5147 64.3147 67.7547 68.3847 68.4447 68.8447 65.5747 57.4347 48.0847
1012.714 39.8947 32.9347 27.9047 24.6547 21.7847 19.7447 18.4547 17.3347 17.0547 17.2747
1032.003 17.5247 17.5447 17.4147 17.8047 17.5447 17.8347 18.7647 19.3047 19.8347 20.0147
1051.293 20.6447 20.8447 21.0147 21.6447 21.7847 22.1647 22.8847 23.7647 24.6847 25.5147
1070.583 27.3547 29.6847 31.8547 35.9047 41.0947 47.6447 56.4447 64.1247 71.0647 78.6047
1089.873 88.0347 100.575 117.305 143.025 174.835 204.795 226.695 240.515 246.595 240.965
1109.163 217.005 182.545 155.845 143.825 142.295 146.805 156.525 167.795 181.565 202.785
1128.452 235.675 282.935 348.835 438.985 556.605 709.565 892.365 1081.08 1256.72 1393.17
1147.742 1488.64 1537.88 1586.67 1614.76 1614.06 1628.36 1654.78 1644.06 1591.17 1506.09
1167.032 1416.5 1363.7 1368.66 1435.31 1517.25 1567.45 1576.43 1572.2 1569.7 1560.43
1186.322 1549.57 1540.56 1472.69 1366.64 1249.58 1078.84 889.055 738.225 624.735 535.935
1205.611 465.745 412.625 371.025 336.925 308.825 285.365 268.085 256.515 249.445 245.145
1224.901 241.725 240.025 239.525 239.655 239.095 238.135 236.235 232.915 228.725 221.845
1244.191 213.475 206.455 202.555 203.185 209.555 222.355 244.525 276.655 320.595 381.655
1263.481 467.845 592.645 775.565 1025.67 1293.59 1478.24 1569.19 1610.83 1617.53 1605.85
1282.771 1582.15 1547.76 1493.62 1364.24 1152.4 945.765 773.855 614.425 473.665 365.785
1302.060 286.505 227.755 185.415 157.045 139.675 130.115 125.585 124.215 124.405 124.505
1321.350 123.035 119.775 115.095 109.315 102.595 95.2347 88.0747 81.7447 76.5547 72.5247
1340.640 69.6047 67.9047 67.6047 69.0647 72.7347 78.4447 86.7747 98.6247 114.885 137.415
1359.930 168.775 211.695 268.845 342.625 436.935 554.615 694.705 851.945 1014.6 1163
1379.219 1278.19 1347.96 1367.59 1339.85 1268.15 1151.74 979.955 772.215 565.935 398.225
1398.509 278.675 198.475 148.005 115.885 95.6047 82.9247 74.8747 69.0047 64.7247 61.4647
1417.799 58.8647 56.3747 53.7847 51.8347 50.9947 51.0247 51.6047 52.4347 53.9447 56.3747
1437.089 60.5847 66.9747 76.5547 90.5447 110.595 137.565 171.765 210.535 250.325 285.145
1456.378 311.825 330.255 337.575 331.415 309.735 277.535 242.235 208.055 178.985 156.485
1475.668 140.645 129.395 121.615 115.285 109.355 103.735 98.5947 94.0447 89.8747 85.5847
1494.958 80.2547 73.6047 66.1347 58.1947 50.4247 43.5747 37.7947 33.4947 30.9447 29.2947
1514.248 27.8747 26.5547 25.3547 24.4547 23.6447 23.1547 22.8747 22.8047 23.2147 23.6847
1533.538 24.0747 24.1847 24.2747 24.5747 24.5547 24.3647 24.3547 24.4747 24.8647 25.5447
1552.827 26.3847 27.1547 27.7547 28.2047 28.3347 28.3847 28.4847 28.7847 29.8547 31.4447
1572.117 32.8747 34.4747 36.5047 38.8247 41.3247 44.0747 47.0147 50.0047 53.5247 57.6847
1591.407 62.6847 68.8447 76.5547 86.7347 98.5947 111.205 123.895 135.485 144.795 151.195
1610.697 154.465 154.525 151.785 147.215 142.545 139.455 138.585 139.855 141.685 142.525
1629.986 141.305 137.405 130.405 119.885 106.745 92.4347 77.2247 62.1947 48.9547 38.5447
1649.276 31.0447 26.1947 22.9447 20.7647 19.1547 17.9247 16.8747 15.7747 14.9447 14.3047
1668.566 13.7847 13.4247 13.2247 13.2247 13.2947 13.1847 13.0147 12.6847 11.9647 11.2447
1687.856 10.6247 9.9147 9.2847 8.9347 8.7647 8.7547 8.9047 9.1247 9.2747 9.4047
1707.146 9.6547 9.9247 10.2047 10.7147 11.4347 12.1147 12.8347 13.6947 14.6447 15.7047
1726.435 16.9247 18.0647 19.0247 19.7547 20.1447 20.1647 19.7747 19.0947 18.4847 17.9147
1745.725 17.4547 17.2347 17.4047 18.0347 18.9547 19.9347 21.1547 22.5147 24.0647 25.9647
1765.015 28.0747 30.3047 32.3347 34.0447 35.4747 36.3747 36.7147 36.4947 35.7847 34.5047
1784.305 32.7547 30.5447 27.8147 25.0647 22.3547 19.4647 16.9147 14.7147 12.9847 11.8347
1803.594 10.9547 10.2047 9.5947 9.0647 8.6547 8.2747 7.9147 7.7247 7.5847 7.3947
1822.884 7.2447 7.1347 6.9847 6.9047 6.7847 6.4447 6.0647 5.7747 5.4947 5.1847
1842.174 4.9947 4.7947 4.6647 4.7147 4.7547 4.8047 4.9147 5.0247 4.9847 4.9147
1861.464 4.8047 4.9247 5.0647 4.9247 4.8247 4.9347 5.2547 5.6347 5.8847 6.0247
1880.754 6.2047 6.4047 6.3747 6.0947 5.9147 5.7847 5.6147 5.5847 5.6347 5.6047
1900.043 5.6247 5.7347 5.9447 6.2147 6.3147 6.3747 6.2647 5.8947 5.6047 5.3347
1919.333 4.8347 4.5247 4.3147 3.8947 3.6747 3.7047 3.7947 3.8047 3.7947 3.8847
1938.623 4.0647 4.1747 4.0847 3.9147 3.8747 3.8147 3.4847 3.1447 2.8947 2.6847
1957.913 2.6347 2.4547 2.3647 2.3147 2.2747 2.4347 2.5447 2.5847 2.7547 3.0047
1977.202 3.3147 3.5947 3.8347 4.3047 4.7747 5.1147 5.5647 6.0447 6.3847 6.7847
1996.492 7.2047 7.4747 7.7847 8.1047 8.3647 8.5347 8.6047 8.4747 8.1847 7.6947
2015.782 7.1747 6.6747 6.2847 5.9947 5.7147 5.6047 5.4947 5.3847 5.2947 5.1147
2035.072 4.9047 4.6347 4.2747 3.9947 3.6447 3.2547 3.0147 2.8347 2.6347 2.4547
2054.362 2.3347 2.3147 2.2747 2.2847 2.3947 2.4747 2.5647 2.8247 3.0647 3.1947
2073.651 3.5047 3.6847 3.7947 4.0947 4.2947 4.4747 4.6147 4.7447 4.9647 5.1847
2092.941 5.2947 5.3147 5.4547 5.6147 5.7847 6.0447 6.3647 6.5947 6.8347 7.1347
2112.231 7.3147 7.4047 7.4947 7.5147 7.5347 7.4647 7.2447 7.1547 7.0447 6.8147
2131.521 6.6447 6.4347 6.1847 6.0047 5.7547 5.3647 5.0347 4.8647 4.8347 5.0047
2150.810 5.2147 5.4147 5.8047 6.1647 6.5947 7.2047 7.9647 8.7247 9.4647 10.2147
2170.100 10.6147 10.8047 10.7447 10.4447 9.9447 9.2247 8.3647 7.3547 6.3947 5.5447
2189.390 4.9547 4.5747 4.2847 4.1147 4.0247 3.9947 4.0247 4.2347 4.5347 4.8847
2208.680 5.3147 5.7947 6.3947 7.0047 7.5147 7.9547 8.4647 9.0447 9.4047 9.5747
2227.970 9.6647 9.5747 9.4647 9.3847 9.2647 9.1247 8.7847 8.4447 8.1047 7.8247
2247.259 7.6347 7.4947 7.4247 7.3047 7.3547 7.4847 7.5947 7.6847 7.8347 8.0747
2266.549 8.3747 8.7647 8.9647 9.1447 9.4447 9.7147 9.9347 10.1247 10.4047 10.8347
2285.839 11.1747 11.3947 11.7347 11.9947 12.0447 11.9447 11.6647 11.1147 10.6747 10.3447
2305.129 9.8947 9.4547 9.1847 9.0747 9.0347 9.1047 9.2647 9.4147 9.6947 9.9847
2324.418 10.3247 10.7747 11.1347 11.5647 11.8747 11.9947 11.9247 11.8047 11.7247 11.5747
2343.708 11.2447 10.9347 10.8547 10.7747 10.7447 10.7847 10.6847 10.8047 10.9447 10.7947
2362.998 10.6647 10.6047 10.4947 10.2447 9.9047 9.7947 9.6147 9.5047 9.7047 9.6647
2382.288 9.7147 9.6447 9.5647 9.7647 9.9747 10.1747 10.3547 10.5347 10.7047 10.7347
2401.578 10.8347 11.0747 10.9947 10.8347 10.7647 10.6347 10.6047 10.5047 10.4747 10.3447
2420.867 10.3247 10.4247 10.1847 9.7547 9.4247 9.0647 8.6147 8.1347 7.6547 7.0447
2440.157 6.5447 6.2247 6.0947 6.0647 6.1147 6.3847 6.5847 6.7547 6.8747 7.0147
2459.447 6.9447 6.7447 6.7347 6.5747 6.2547 6.0147 5.7547 5.6747 5.7647 5.6247
2478.737 5.2247 4.8647 4.6647 4.5247 4.3347 3.9947 3.5647 3.4747 3.4347 3.2747
2498.026 3.1747 3.0447 2.9547 2.9447 3.0847 3.0647 3.0347 3.1247 3.2147 3.3347
2517.316 3.3347 3.4047 3.6247 3.6747 3.6347 3.7647 4.0247 4.2447 4.4647 4.5347
2536.606 4.6347 5.0447 5.2647 5.4747 5.7747 6.0247 6.3047 6.6447 6.8847 7.2747
2555.896 7.5247 7.5247 7.5147 7.3647 7.2947 7.2147 7.0147 6.8647 6.6247 6.2747
2575.186 6.0047 5.6047 5.1147 4.6747 4.2147 3.7647 3.3847 3.0547 2.7447 2.7847
2594.475 2.8947 2.8447 2.9047 3.1747 3.1647 3.1947 3.5247 3.6947 3.9747 4.2347
2613.765 4.2247 4.0747 4.1247 4.2747 4.1547 4.0947 4.2447 4.4447 4.4147 4.4447
2633.055 4.7547 5.0447 5.2547 5.6147 6.0047 6.2547 6.4847 6.6647 6.9247 7.2747
2652.345 7.7147 7.9747 8.2147 8.3447 8.2747 8.1747 7.8247 7.3647 6.7447 6.1147
2671.634 5.4647 5.0447 4.6447 4.1847 4.0947 3.6647 3.2847 3.3047 3.0847 2.8547
2690.924 2.9247 2.8947 2.7647 2.7747 2.7847 2.8447 2.8147 2.5847 2.2647 2.1947
2710.214 2.1647 2.0247 1.8447 1.6347 1.5547 1.4447 1.3647 1.2847 1.1947 1.3547
2729.504 1.2947 1.1447 1.0847 0.9293 0.8773 1.1447 1.3347 1.4247 1.7647 1.9647
2748.794 2.0947 2.2847 2.4847 2.6947 2.8247 2.8647 2.9247 3.0347 3.0947 3.0247
2768.083 2.8847 2.8147 2.7647 2.6147 2.3247 1.9747 2.0647 2.2247 2.0747 1.8447
2787.373 1.8547 1.9347 1.7947 1.6847 1.5647 1.5447 1.6947 1.6447 1.5947 1.5047
2806.663 1.2547 1.2647 1.3347 1.3647 1.3547 1.2747 1.1947 1.1647 1.1647 1.3447
2825.953 1.3747 1.2347 1.1347 1.2147 1.2647 1.3147 1.4247 1.4647 1.6047 1.5947
2845.242 1.5347 1.4147 1.4947 1.5247 1.3947 1.4947 1.6647 1.7847 1.6947 1.5747
2864.532 1.5347 1.7347 2.0047 2.1047 1.9047 1.7447 1.7747 1.7747 1.8147 1.5947
2883.822 1.5847 1.6747 1.5847 1.6047 1.6047 1.6747 1.7447 1.7647 1.7947 1.6547
2903.112 1.5947 1.7147 1.7847 1.9347 2.0947 2.0147 1.9147 1.9047 1.8747 1.8147
2922.401 1.8647 1.9747 1.9547 2.0647 2.1547 2.0747 1.9347 1.9047 2.0947 2.3447
2941.691 2.4347 2.2847 2.1147 1.9947 2.0347 1.9147 1.9647 2.1047 2.0147 2.0447
2960.981 1.9147 1.7247 1.5547 1.4447 1.5047 1.6647 1.7947 1.4947 1.5547 2.0347
2980.271 2.1247 2.2547 2.4647 2.6647 2.7147 2.5947 3.0647 3.2447 3.1247 3.3047
2999.561 3.4547 3.6547 3.8347 4.0647 4.0847 3.9347 3.9347 3.9947 3.7347 3.5647
3018.850 3.4847 3.2047 2.9947 2.9247 3.0447 3.3147 3.5847 3.9547 4.6647 5.6647
3038.140 6.5247 7.5847 9.2047 10.7747 12.4347 14.2247 15.5447 16.4847 17.0247 17.2247
3057.430 17.0847 16.2247 14.9547 13.7147 12.3847 11.3747 10.7447 10.1647 9.7547 9.4947
3076.720 9.0547 8.7447 8.4047 7.9547 7.7947 7.5447 7.1647 6.9647 6.8947 6.6747
3096.009 6.3647 6.1147 5.8047 5.3547 4.9647 4.4847 4.0647 3.7847 3.2747 2.9947
3115.299 2.8047 2.6347 2.4747 1.9147 1.7647 1.6947 1.3947 1.4147 1.2947 1.1447
3134.589 0.9848 0.8344 0.9303 1.0431 1.0267 0.9236 0.7886 0.4927 0.4959 0.6665
3153.879 0.5164 0.34 0.4579 0.3796 0.2347 0.257 0.3079 0.4324 0.6271 0.6095
3173.169 0.4523 0.3648 0.4342 0.5991 0.6263 0.7276 0.6812 0.7362 0.7314 0.4973
3192.458 0.5103 0.5176 0.4533 0.498 0.5659 0.7458 0.8382 0.7434 0.6515 0.6284
3211.748 0.6592 0.8136 1.0392 1.0847 0.9378 0.7513 0.5807 0.7708 0.8328 0.753
3231.038 0.8806 0.7835 0.735 0.8692 0.9091 1.0847 1.2647 1.3447 1.4447 1.3547
3250.328 1.2547 1.4247 1.3647 1.2247 1.3247 1.2147 0.9254 1.0747 1.1847 0.762
3269.617 0.5819 0.469 0.6545 0.9218 0.8978 0.6787 0.3847 0.4012 0.2731 0.4066
3288.907 0.7692 0.7696 0.6793 0.6795 0.8391 0.9094 0.6037 0.5456 0.8042 0.746
3308.197 0.6667 0.6909 0.5581 0.729 1.2947 1.7347 2.0947 2.5947 3.2247 3.6747
3327.487 4.0747 4.6347 5.0447 5.4447 5.6847 5.3747 5.2247 4.9647 4.6647 4.6547
3346.777 4.4747 4.1347 4.2347 4.4847 4.4047 4.5647 4.6847 4.6447 4.7947 4.8747
3366.066 4.6847 4.4747 4.2847 3.9547 3.7647 3.9947 4.0747 3.7147 3.3947 3.3047
3385.356 3.2447 3.1047 3.0647 3.0547 2.8747 2.7847 2.9047 2.9847 2.7947 2.5847
3404.646 2.5147 2.5447 2.4947 2.3047 2.5447 2.7347 2.7647 2.7847 2.6647 2.7647
3423.936 3.0047 3.0247 2.9247 2.5547 2.3247 2.4147 2.1847 2.1947 2.2247 2.0047
3443.225 2.0347 2.1847 2.2747 2.1647 2.0247 2.1547 2.1647 2.0947 2.2247 2.0547
3462.515 1.7547 1.5947 1.2847 1.3647 1.6347 1.5747 1.6147 1.5247 1.1647 1.2447
3481.805 1.2447 0.8752 0.8827 1.1947 1.4147 1.4347 1.4847 1.5147 1.5047 1.5547
3501.095 1.4547 1.4347 1.3547 1.2847 1.3247 1.2347 1.0724 0.7936 0.7912 0.9619
3520.385 0.9313 1.0084 0.8021 0.6266 0.6765 0.8023 0.8548 0.714 0.4139 0.5698
3539.674 1.0314 1.0026 1.1047 1.3747 1.2847 1.0382 1.1547 1.3447 1.5947 1.6347
3558.964 1.8147 1.7447 1.4347 1.4547 1.2647 1.3547 1.7147 1.7347 1.7047 1.8947
3578.254 1.9447 1.9847 1.9847 1.9947 2.2747 2.6147 2.7647 3.0547 3.5747 3.7847
3597.544 3.8147 4.3747 5.1047 5.3447 5.7747 6.6647 7.7247 8.5947 9.8047 11.6247
3616.833 13.3647 15.2147 17.9447 22.0247 27.3047 34.8347 45.7147 60.5147 80.3147 107.065
3636.123 142.135 187.285 242.845 309.065 381.165 442.575 472.005 466.435 442.165 401.645
3655.413 338.045 251.965 167.515 104.975 65.2047 41.0947 26.5747 17.9447 12.5247 9.2647
3674.703 7.4947 6.2047 5.2947 4.6147 4.1147 3.5847 3.0547 3.0747 3.1447 2.8947
3693.993 2.6247 2.3547 2.1147 1.9247 1.6347 1.5147 1.5647 1.5647 1.4947 1.2647
3713.282 1.1247 1.04 0.9776 0.9174 0.7331 0.8372 1.2247 1.4947 1.3147 1.1047
3732.572 1.0331 1.0847 1.3547 1.5547 1.5447 1.4847 1.6047 1.8547 1.6547 1.4347
3751.862 1.2947 1.1547 1.3147 1.5747 1.5947 0.9395 0.7905 1.1047 0.9214 0.9531
3771.152 1.3947 1.5347 1.7147 1.8647 1.6347 1.4847 1.4247 1.2547 1.1847 1.2947
3790.441 1.4547 1.6847 1.8347 1.6347 1.4747 1.4547 1.3747 1.3947 1.3847 1.3847
3809.731 1.4847 1.1647 1.0847 1.3447 1.3947 1.9247 1.9847 1.7547 1.8447 1.8447
3829.021 2.0947 2.2447 1.9447 1.9547 2.3147 2.4147 2.5847 3.0047 3.1447 2.8147
3848.311 2.8047 3.0947 2.8847 2.7347 2.7847 2.6247 2.5447 2.8547 3.1347 3.1147
3867.601 3.1647 3.0547 3.1247 3.3747 3.2947 3.2947 3.3947 3.1847 3.1247 3.1147
3886.890 3.0447 2.9347 2.6247 2.3947 2.5347 2.7747 2.4947 2.3247 2.5447 2.5847
3906.180 2.5247 2.5647 2.7247 2.9247 2.9747 3.1547 3.3947 3.4847 3.7547 4.1647
3925.470 4.2247 4.1047 4.0147 3.7547 3.6447 3.7747 3.5747 3.1047 2.9447 3.0147
3944.760 3.1347 2.8647 2.8547 3.1047 3.1147 3.2747 3.5847 4.1547 4.4547 4.4147
3964.049 4.4747 4.4347 4.3747 3.9447 3.1647 2.6047 2.0647 1.8247 1.7047 1.4547
3983.339 1.3647 1.2747 0.9137 0.5153 0.4702 0.3578 0.2522 0 0.15334 0.4688
##END=
