##TITLE=4-Trifluoromethylbenzyl alcohol
##JCAMP-DX=4.24
##DATA TYPE=INFRARED SPECTRUM
##ORIGIN=EPA-IR VAPOR PHASE LIBRARY
##OWNER=SRD/NIST
Collection (C) 2018 copyright by the U.S. Secretary of Commerce
on behalf of the United States of America. All rights reserved.
##CAS REGISTRY NO=349-95-1
##MOLFORM=C 8 H 7 F 3 O
##$NIST SOURCE=MSDC-IR
##STATE=gas
##XUNITS=1/CM
##YUNITS=ABSORBANCE
##XFACTOR=1.
##YFACTOR=0.001
##DELTAX=1.92898
##FIRSTX=549.8
##LASTX=4000.7
##FIRSTY=5.622
##MAXX=4000.7
##MINX=549.759
##MAXY=0.910182
##MINY=0
##NPOINTS=1790
##XYDATA=(X++(Y..Y))
549.759 5.622 5.922 5.152 5.322 5.902 6.192 6.802 6.862 6.332 6.822
569.049 7.342 7.952 8.892 9.032 8.842 9.342 10.022 10.472 11.082 11.722
588.339 12.652 13.372 14.172 14.602 14.802 15.082 14.852 15.702 16.712 16.732
607.628 16.412 15.932 16.152 16.442 16.182 16.112 16.202 16.062 16.132 16.292
626.918 15.952 15.622 15.692 15.192 14.562 14.032 13.092 12.432 12.132 11.442
646.208 10.862 10.732 9.982 9.192 8.922 8.352 7.932 7.682 6.942 6.612
665.498 6.482 6.302 5.812 5.452 5.442 4.972 4.632 4.822 4.852 4.682
684.787 4.662 4.602 4.572 4.762 5.232 5.702 5.842 5.972 6.352 6.832
704.077 7.152 7.252 7.782 8.042 8.652 9.322 9.632 9.692 10.012 10.452
723.367 10.592 11.462 12.112 12.692 13.762 15.202 16.762 18.832 21.322 23.502
742.657 25.542 27.352 28.562 28.722 27.792 26.162 24.102 21.552 18.762 16.132
761.947 14.142 12.442 10.932 10.182 9.512 9.312 9.322 8.932 9.092 9.572
781.236 10.222 10.992 12.002 13.072 14.302 15.952 17.602 19.522 22.142 24.672
800.526 27.402 31.142 34.962 39.092 43.682 48.272 53.032 57.992 62.932 67.022
819.816 70.922 74.702 77.152 79.872 82.132 82.772 82.512 81.462 79.542 76.442
839.106 72.742 68.802 64.572 59.862 54.602 49.462 44.682 40.262 35.922 31.862
858.395 28.392 25.122 22.272 19.982 17.802 15.472 13.732 12.472 11.652 11.092
877.685 10.172 9.502 9.162 9.082 8.632 8.022 7.882 7.972 8.312 8.462
896.975 8.392 8.282 8.432 8.752 9.072 9.202 9.242 9.592 9.762 10.022
916.265 10.442 10.422 10.072 10.142 10.592 11.122 11.762 12.322 12.712 13.182
935.555 13.942 14.692 14.972 15.342 16.252 16.662 17.062 17.782 17.992 18.392
954.844 19.352 19.852 20.462 21.462 22.212 22.992 24.002 24.832 25.462 26.212
974.134 26.832 27.732 28.622 29.452 30.892 32.312 33.872 36.092 38.062 40.122
993.424 43.362 46.542 49.842 54.712 60.952 68.682 79.162 93.522 112.942 135.702
1012.714 155.582 166.152 168.622 168.832 166.122 157.972 140.932 120.472 106.652 100.772
1032.003 99.542 100.022 100.902 101.492 100.902 99.642 97.692 95.712 95.162 96.132
1051.293 99.562 106.922 121.622 144.372 178.602 226.292 279.392 326.412 355.822 367.312
1070.583 366.172 352.532 316.592 253.192 181.522 125.062 90.012 70.972 60.642 53.742
1089.873 50.342 48.822 48.942 51.152 54.242 58.232 63.622 70.632 77.722 85.842
1109.163 93.622 102.452 113.342 123.542 135.612 148.942 162.132 176.862 193.752 214.522
1128.452 239.822 267.222 296.552 330.782 369.342 409.862 455.302 498.882 534.902 561.492
1147.742 573.792 580.132 574.652 559.852 542.812 524.862 511.702 504.092 503.072 506.352
1167.032 507.962 500.472 478.132 442.712 400.952 358.422 317.902 280.762 245.782 213.702
1186.322 183.632 157.422 137.112 119.282 105.512 95.162 86.012 79.522 73.502 68.222
1205.611 64.732 60.562 56.432 53.562 50.742 47.932 46.362 45.232 44.182 43.152
1224.901 42.212 42.522 42.402 41.242 40.642 39.832 38.122 36.962 36.162 35.202
1244.191 34.042 32.712 31.782 31.262 31.582 31.842 31.692 31.702 32.222 32.702
1263.481 33.182 33.552 33.792 34.182 35.002 36.042 37.482 39.392 41.142 43.142
1282.771 45.632 48.692 52.262 56.682 61.912 67.792 74.552 82.802 93.062 105.992
1302.060 122.862 145.202 175.102 215.792 270.822 342.722 432.622 538.142 651.902 760.502
1321.350 847.132 899.182 910.182 878.572 806.482 697.912 562.282 420.372 297.212 208.102
1340.640 151.112 116.312 94.652 80.192 70.072 63.052 58.052 54.562 52.322 50.802
1359.930 49.762 49.182 48.772 48.432 48.162 48.032 47.852 47.462 47.022 46.682
1379.219 46.182 45.692 45.262 44.642 44.092 43.702 43.532 43.692 43.972 44.452
1398.509 45.302 46.462 47.742 49.082 50.442 51.492 52.402 53.172 53.262 52.912
1417.799 52.062 50.542 48.602 46.422 43.922 41.072 37.922 34.692 31.472 28.382
1437.089 25.412 22.642 20.282 18.302 16.492 14.962 13.622 12.582 11.842 11.352
1456.378 10.972 10.742 10.772 10.822 10.832 10.792 10.662 10.302 9.852 9.342
1475.668 8.622 7.812 7.082 6.532 6.122 5.762 5.402 5.212 5.112 5.032
1494.958 4.962 4.862 4.882 4.872 4.742 4.732 4.842 4.992 5.142 5.082
1514.248 5.102 5.132 4.992 4.902 4.632 4.372 4.272 4.202 4.052 3.852
1533.538 3.572 3.422 3.632 3.802 3.722 3.682 3.802 3.822 3.802 3.852
1552.827 3.732 3.722 3.772 3.812 3.972 4.152 4.252 4.362 4.572 4.942
1572.117 5.032 5.052 5.422 5.802 6.012 6.102 6.152 6.212 6.422 6.652
1591.407 6.842 6.902 7.102 7.532 7.992 8.802 9.842 11.312 13.252 15.622
1610.697 18.452 21.632 24.782 27.632 30.332 32.182 32.392 31.542 29.902 27.332
1629.986 24.092 20.702 17.602 14.992 13.052 11.692 10.712 9.902 9.412 8.922
1649.276 8.412 8.222 8.152 7.822 7.392 7.282 7.152 6.962 6.842 6.692
1668.566 6.512 6.372 6.232 6.012 5.782 5.652 5.332 4.952 4.792 4.502
1687.856 4.252 4.082 3.892 3.662 3.342 3.152 2.982 2.762 2.542 2.452
1707.146 2.282 2.062 2.092 2.072 2.102 2.232 2.142 2.172 2.162 2.122
1726.435 2.212 2.262 2.262 2.242 2.482 2.792 2.922 3.012 3.112 3.322
1745.725 3.412 3.412 3.452 3.492 3.552 3.452 3.452 3.462 3.412 3.412
1765.015 3.432 3.582 3.732 3.842 3.892 4.092 4.342 4.342 4.522 4.742
1784.305 4.852 5.092 5.442 5.872 6.332 6.802 7.122 7.172 7.112 6.882
1803.594 6.432 5.852 5.212 4.612 3.982 3.472 3.022 2.652 2.422 2.262
1822.884 2.122 1.972 1.862 1.792 1.632 1.512 1.562 1.472 1.312 1.342
1842.174 1.412 1.282 1.242 1.262 1.172 1.302 1.372 1.232 1.272 1.452
1861.464 1.472 1.392 1.502 1.602 1.682 1.872 2.022 2.102 2.232 2.272
1880.754 2.492 2.882 3.052 3.302 3.662 3.912 4.252 4.692 5.092 5.432
1900.043 5.792 6.242 6.602 6.842 7.122 7.252 7.262 7.322 7.292 7.152
1919.333 7.032 6.782 6.532 6.172 5.562 5.052 4.632 4.212 3.842 3.582
1938.623 3.292 2.902 2.692 2.542 2.482 2.402 2.292 2.152 1.972 2.032
1957.913 2.032 1.962 1.982 1.942 1.852 1.902 1.962 1.892 1.822 1.822
1977.202 1.732 1.682 1.732 1.722 1.692 1.622 1.582 1.642 1.642 1.662
1996.492 1.662 1.502 1.462 1.512 1.462 1.332 1.312 1.452 1.582 1.682
2015.782 1.622 1.542 1.562 1.632 1.602 1.572 1.562 1.602 1.622 1.522
2035.072 1.582 1.662 1.642 1.612 1.672 1.792 1.852 1.882 1.862 1.982
2054.362 2.192 2.332 2.332 2.422 2.602 2.652 2.812 2.832 2.762 2.882
2073.651 2.892 2.882 2.772 2.782 2.662 2.442 2.452 2.342 2.172 1.872
2092.941 1.702 1.632 1.592 1.652 1.592 1.452 1.332 1.332 1.242 1.242
2112.231 1.382 1.302 1.302 1.192 1.0891 1.202 1.232 1.302 1.502 1.622
2131.521 1.632 1.592 1.482 1.422 1.512 1.602 1.462 1.342 1.202 1.1075
2150.810 1.242 1.262 1.0937 1.0004 0.9974 0.9414 1.0171 1.0557 0.9337 0.9646
2170.100 1.1015 1.0418 0.9871 1.152 1.152 1.0696 0.9999 1.0531 1.192 1.342
2189.390 1.552 1.492 1.432 1.542 1.682 1.932 1.872 1.842 1.942 1.962
2208.680 1.972 2.072 2.072 2.042 2.222 2.362 2.312 2.242 2.242 2.282
2227.970 2.372 2.342 2.302 2.312 2.302 2.192 2.102 2.232 2.132 2.042
2247.259 2.132 2.022 1.982 2.032 2.082 2.192 2.422 2.562 2.692 2.852
2266.549 2.852 2.922 3.042 3.082 3.192 3.302 3.292 3.282 3.222 3.212
2285.839 3.232 3.242 3.312 3.252 3.162 3.332 3.382 3.122 3.022 3.102
2305.129 3.242 3.272 3.202 3.292 3.242 2.992 2.882 3.062 3.112 2.902
2324.418 2.732 2.752 2.782 2.752 2.672 2.672 2.602 2.482 2.522 2.582
2343.708 2.612 2.722 2.642 2.292 2.182 2.252 2.112 2.002 1.972 1.782
2362.998 1.742 1.742 1.652 1.722 1.802 1.842 1.742 1.692 1.692 1.562
2382.288 1.562 1.692 1.722 1.632 1.712 1.762 1.642 1.522 1.632 1.672
2401.578 1.542 1.602 1.592 1.442 1.382 1.312 1.232 1.252 1.222 1.232
2420.867 1.362 1.482 1.422 1.342 1.362 1.372 1.252 1.1214 1.182 1.282
2440.157 1.352 1.342 1.272 1.322 1.342 1.502 1.542 1.362 1.342 1.362
2459.447 1.392 1.422 1.432 1.472 1.552 1.552 1.602 1.722 1.772 1.762
2478.737 1.682 1.692 1.822 1.862 1.782 1.702 1.672 1.612 1.592 1.512
2498.026 1.392 1.332 1.442 1.542 1.352 1.302 1.412 1.272 1.132 1.192
2517.316 1.1195 0.953 0.8827 0.8653 0.9387 0.9285 0.9772 0.9712 0.9484 0.9943
2536.606 0.9484 0.8487 0.9509 1.152 1.0651 0.9033 0.9506 1.0127 0.8258 0.792
2555.896 0.9159 0.9038 0.8612 0.9314 1.0051 0.9652 1.115 1.212 1.0191 0.8279
2575.186 0.9249 1.0199 1.0035 1.132 1.182 1.132 1.142 1.332 1.412 1.372
2594.475 1.432 1.432 1.382 1.422 1.362 1.382 1.252 1.162 1.482 1.542
2613.765 1.442 1.492 1.572 1.622 1.652 1.772 2.012 2.092 2.272 2.352
2633.055 2.262 2.482 2.732 2.902 2.872 2.872 3.062 3.142 3.032 2.772
2652.345 2.532 2.292 2.142 1.942 1.792 1.732 1.732 1.702 1.562 1.512
2671.634 1.372 1.312 1.482 1.452 1.282 1.352 1.372 1.402 1.442 1.302
2690.924 1.362 1.452 1.422 1.562 1.532 1.362 1.452 1.562 1.562 1.472
2710.214 1.512 1.562 1.452 1.452 1.542 1.682 1.642 1.542 1.752 1.852
2729.504 1.762 1.902 2.042 1.902 1.782 1.842 2.092 2.152 2.102 2.152
2748.794 2.092 2.222 2.222 2.222 2.412 2.512 2.582 2.552 2.632 2.832
2768.083 2.802 3.012 3.232 3.142 3.222 3.342 3.412 3.572 3.852 3.892
2787.373 3.912 4.012 4.272 4.352 4.182 4.362 4.602 4.852 4.952 5.142
2806.663 5.362 5.282 5.272 5.402 5.412 5.562 5.982 6.162 6.392 6.932
2825.953 7.312 7.332 7.692 8.202 8.662 9.302 9.862 10.682 11.232 11.602
2845.242 12.412 13.242 13.882 14.642 15.492 16.332 17.392 18.612 19.592 20.792
2864.532 22.162 23.582 25.122 26.842 28.632 30.282 32.162 33.782 35.442 36.742
2883.822 37.352 37.522 37.472 37.232 36.512 35.552 34.432 33.672 33.132 32.472
2903.112 32.002 31.562 31.112 30.812 30.712 30.442 30.282 30.472 30.502 30.572
2922.401 30.752 30.832 30.882 31.042 30.922 30.962 30.832 30.392 30.532 30.122
2941.691 29.482 29.332 28.762 28.052 27.272 26.252 25.362 24.352 23.082 21.752
2960.981 20.572 19.432 18.102 16.852 15.832 14.802 13.672 12.582 11.762 11.142
2980.271 10.482 9.662 9.212 8.762 8.032 7.822 7.632 7.372 7.112 6.862
2999.561 6.712 6.642 6.732 6.872 7.162 7.502 7.692 8.122 8.522 8.932
3018.850 9.482 9.852 10.322 10.722 11.172 11.732 12.162 12.602 13.082 13.652
3038.140 14.632 15.382 15.952 16.482 16.622 16.492 16.032 15.432 14.802 13.912
3057.430 12.832 12.032 11.372 11.012 10.672 10.282 10.042 9.922 9.752 9.332
3076.720 9.232 8.982 8.782 8.912 8.602 8.102 7.862 7.752 7.542 7.232
3096.009 7.052 7.052 6.692 6.282 6.092 5.802 5.682 5.562 5.322 5.012
3115.299 4.722 4.372 4.002 3.782 3.512 3.332 3.012 2.922 2.812 2.552
3134.589 2.522 2.592 2.752 2.762 2.622 2.242 2.112 1.992 1.822 1.862
3153.879 1.752 1.482 1.142 0.8484 0.8115 1.0104 0.9887 0.8045 0.6427 0.6199
3173.169 0.5373 0.3877 0.489 0.4416 0.508 0.5268 0.4035 0.3751 0.4628 0.4121
3192.458 0.4501 0.5733 0.467 0.4417 0.7137 0.8331 0.5698 0.4966 0.3138 0
3211.748 0.2376 0.3725 0.2412 0.5319 0.8164 0.7467 0.542 0.5693 0.7939 0.8643
3231.038 0.8721 0.8997 0.9468 0.8742 0.9009 0.7867 0.563 0.6981 0.6431 0.3835
3250.328 0.5089 0.704 0.4348 0.3015 0.5944 0.8034 0.7303 0.638 0.5852 0.4151
3269.617 0.4048 0.5472 0.4749 0.332 0.2483 0.2487 0.4072 0.4853 0.6316 0.6254
3288.907 0.4332 0.5402 0.7721 0.7207 0.4906 0.357 0.3875 0.4739 0.4276 0.4845
3308.197 0.4368 0.2729 0.5407 0.5689 0.266 0.3106 0.2996 0.3254 0.3495 0.3931
3327.487 0.5669 0.4678 0.5741 0.692 0.5952 0.8448 0.8664 0.5363 0.5553 0.5654
3346.777 0.5232 0.6869 0.4311 0.18723 0.5161 0.6677 0.745 0.7887 0.7481 0.7815
3366.066 0.6518 0.7405 0.8516 0.9464 0.9962 0.7969 0.7062 0.8488 1.0284 1.0458
3385.356 0.9368 0.9222 1.1068 1.262 1.202 1.1118 1.222 1.282 1.282 1.272
3404.646 1.0188 0.7299 0.7209 0.9864 1.172 1.0351 0.975 1.152 1.0829 1.182
3423.936 1.252 1.132 1.242 1.1216 0.806 0.8385 1.089 1.422 1.532 1.332
3443.225 1.232 1.232 1.292 1.442 1.482 1.472 1.452 1.1196 0.9159 1.202
3462.515 1.632 1.512 1.392 1.502 1.342 1.322 1.192 1.152 1.402 1.462
3481.805 1.432 1.332 1.352 1.312 1.282 1.422 1.592 1.572 1.472 1.402
3501.095 1.122 1.0703 1.312 1.262 1.1059 1.252 1.252 0.9452 0.9748 1.382
3520.385 1.252 1.162 1.352 1.372 1.202 1.292 1.522 1.162 0.9422 1.0653
3539.674 1.132 1.232 1.152 1.0535 1.0707 0.8888 0.8655 1.1133 1.222 1.1059
3558.964 1.122 1.412 1.392 1.362 1.462 1.382 1.272 1.492 1.772 1.652
3578.254 1.442 1.552 1.612 1.632 2.022 2.122 1.942 2.192 2.302 2.132
3597.544 2.322 2.432 2.442 2.732 3.002 3.032 3.392 3.832 4.312 4.802
3616.833 5.292 6.022 6.492 6.812 7.412 8.312 9.312 10.152 10.782 11.752
3636.123 12.882 13.782 14.752 15.962 17.102 18.062 19.482 21.382 23.212 24.902
3655.413 26.352 27.842 29.072 30.032 30.302 29.722 29.092 28.102 26.342 24.502
3674.703 22.992 21.322 19.572 17.892 16.572 15.462 14.132 12.752 11.812 10.642
3693.993 9.402 8.472 7.632 6.922 6.092 5.542 5.192 4.872 4.542 4.172
3713.282 3.822 3.392 2.852 2.652 2.672 2.732 2.392 2.142 2.382 2.312
3732.572 2.332 2.582 2.432 1.962 1.632 1.752 2.052 2.152 2.032 1.852
3751.862 1.772 1.622 1.522 1.462 1.482 1.402 1.222 1.272 1.272 1.332
3771.152 1.242 1.0747 1.152 1.212 1.162 1.0911 1.1131 1.192 1.562 1.542
3790.441 1.1144 1.132 1.262 1.302 1.342 1.342 1.412 1.522 1.382 1.192
3809.731 1.222 1.0483 1.0643 1.422 1.302 1.362 1.652 1.532 1.642 1.612
3829.021 1.682 1.932 1.782 1.302 1.262 1.662 1.352 1.322 1.772 1.782
3848.311 1.492 1.582 1.842 1.982 1.902 1.722 1.432 1.392 1.752 1.982
3867.601 1.692 1.642 1.792 1.442 1.422 1.982 2.152 1.832 1.842 1.822
3886.890 1.832 1.732 1.462 1.272 1.222 1.182 1.312 1.472 1.532 1.552
3906.180 1.442 1.382 1.1086 1.282 1.732 1.602 1.232 1.0351 0.9496 1.212
3925.470 1.432 1.412 1.282 1.212 1.172 0.8948 0.7314 0.9085 1.0793 1.132
3944.760 1.262 1.1157 0.9504 1.132 1.202 1.0939 1.0605 1.0296 0.9252 0.8136
3964.049 0.6158 0.3832 0.4107 0.6516 0.6607 0.6068 0.9606 0.9997 0.7576 0.5465
3983.339 0.18275 0.0356 0.3239 0.3873 0.4018 0.4141 0.412 0.7412 0.6859 0.2863
##END=
