##TITLE=3-Chloro-4-fluoronitrobenzene
##JCAMP-DX=4.24
##DATA TYPE=INFRARED SPECTRUM
##ORIGIN=EPA-IR VAPOR PHASE LIBRARY
##OWNER=SRD/NIST
Collection (C) 2018 copyright by the U.S. Secretary of Commerce
on behalf of the United States of America. All rights reserved.
##CAS REGISTRY NO=350-30-1
##MOLFORM=C 6 H 3 Cl F N O 2
##$NIST SOURCE=MSDC-IR
##STATE=gas
##XUNITS=1/CM
##YUNITS=ABSORBANCE
##XFACTOR=1.
##YFACTOR=0.001
##DELTAX=1.92934
##FIRSTX=549.9
##LASTX=3999.5
##FIRSTY=4.47
##MAXX=3999.53
##MINX=549.863
##MAXY=0.31628
##MINY=0
##NPOINTS=1789
##XYDATA=(X++(Y..Y))
549.863 4.47 4.43 4.26 3.99 3.9 3.7426 3.4446 3.4088 3.338 3.2264
569.156 3.1816 2.9839 2.9639 3.1715 3.2928 3.1779 3.2556 3.3881 3.2944 3.2679
588.450 3.2791 3.2246 3.1965 3.165 3.237 3.4316 3.5307 3.6739 3.85 4.14
607.743 4.43 4.74 5.38 6.09 7.1 8.81 11.73 16.21 22.16 29.06
627.037 34.74 37.34 37.84 37.82 36.96 34.86 30.31 23.31 16.45 11.3
646.330 8.09 6.34 5.4 4.75 4.33 4.05 3.79 3.6257 3.5651 3.501
665.624 3.6127 3.82 3.97 4.11 4.26 4.77 5.46 6.44 8.01 9.78
684.917 11.51 12.89 13.99 15.15 16.57 17.84 18.73 20 22.54 27.39
704.210 35.48 47.07 61.5 76.6 89.27 97.52 101.52 101.97 99.61 93.89
723.504 82.92 68.34 55.3 46.8 42.68 41.6 43.25 48.3 56.18 57.54
742.797 47.48 38.94 35.65 32.31 28.29 23.81 19.43 15.87 13.26 11.51
762.091 10.54 9.91 9.32 8.59 7.84 7.29 6.86 6.33 5.71 5.13
781.384 4.71 4.42 4.2 4.11 4.1 4.16 4.27 4.46 5 6.08
800.678 8.27 11.84 15.93 18.89 20.64 23.49 26.21 29.04 32.44 33.38
819.971 33.22 34.36 37.6 42.79 47.65 46.44 37.78 30.19 26.82 23.81
839.264 20.22 16.46 13 10.28 8.32 7.11 6.51 6.24 6.17 6.18
858.558 6.23 6.3 6.36 6.46 6.76 7.28 8.06 9.32 11.17 13.66
877.851 16.9 20.75 25.11 29.97 35.57 42.15 49.49 57.03 63.97 69.05
897.145 71.15 70.07 67.14 62.98 57 49.19 40.67 32.59 25.48 19.55
916.438 14.86 11.3 8.85 7.2 5.97 5.09 4.52 4.2 3.97 3.83
935.732 3.79 3.7391 3.625 3.5624 3.4824 3.3491 3.2174 3.1455 3.0391 2.9198
955.025 2.9019 2.82116 2.85063 2.9832 2.9825 2.9672 2.9862 3.0617 3.139 3.1021
974.318 3.111 3.1429 3.1345 3.1306 3.1103 3.1286 3.1535 3.1841 3.2213 3.1871
993.612 3.1953 3.2706 3.35 3.4218 3.4137 3.3217 3.2772 3.2179 3.1057 3.0495
1012.905 2.9882 2.9573 2.9355 2.9697 3.0591 3.1043 3.1915 3.4082 3.81 4.43
1032.199 5.25 6.27 7.7 9.66 12.13 15.13 18.64 22.34 25.72 28.32
1051.492 29.79 30.45 31.01 31.49 31.17 29.32 26.3 23.04 20.04 17.54
1070.786 15.57 13.76 11.9 10.12 8.61 7.46 6.59 5.97 5.58 5.37
1090.079 5.35 5.5 5.76 6.25 7.19 8.65 10.51 12.81 15.64 18.5
1109.372 20.68 21.71 21.8 22.25 24.04 26.3 28.27 30.89 34.61 38.68
1128.666 42.03 44.95 47.81 50.22 51.82 50.55 45.8 39.66 34.21 29.94
1147.959 25.69 20.84 15.87 11.92 9.2 7.27 5.86 4.83 4.07 3.4526
1167.253 3.1009 2.9278 2.7166 2.502 2.421 2.374 2.444 2.422 2.412 2.305
1186.546 2.279 2.332 2.389 2.487 2.427 2.487 2.553 2.554 2.6945 2.85074
1205.840 2.85678 3.0176 3.2732 3.84 4.39 4.8 5.73 6.62 7.29 8.61
1225.133 10.1 11.74 13.54 14.91 16.02 17.06 18.16 19.21 20.35 21.94
1244.426 23.96 26.96 32.04 39.65 49.95 63.11 78.23 94.19 110.43 126.06
1263.720 139.54 149.06 153.13 150.7 142.05 129.4 114.73 99.21 84.12 70.35
1283.013 58.73 50.48 45.42 42.13 39.42 36.51 33.26 29.71 25.86 21.96
1302.307 18.36 15.42 13.47 12.36 11.83 11.74 12.14 12.99 14.28 16.18
1321.600 18.73 22.12 26.76 32.97 41.42 53.22 69.29 90.77 118.81 153.59
1340.894 193.56 234.26 270.77 298.07 313.31 316.28 307.24 286.16 251.8 205.79
1360.187 156.18 112.98 81.87 62.45 50.76 43.81 39.77 37.51 36.15 35.13
1379.480 34.14 33.03 31.73 29.97 27.58 25.02 22.97 21.65 20.84 20.26
1398.774 19.66 18.78 17.61 16.36 15.19 14.06 12.88 11.67 10.74 10.16
1418.067 9.93 10.05 10.46 11.11 12 12.96 13.85 14.61 15.27 15.87
1437.361 16.41 16.85 17.44 18.07 18.92 20.18 22 24.27 26.92 29.59
1456.654 32.44 35.34 38.05 41.04 44.52 48.79 54.44 62.31 73.34 88.15
1475.948 105.62 125.89 147.15 168.51 187.27 200.9 207 204.79 195.14 180.87
1495.241 162.77 141.83 120.96 101.75 86.42 75.97 69 65.09 63.7 63.61
1514.534 63.97 64.16 63.91 63.52 63.21 63.68 65.53 68.94 74.35 82.68
1533.828 95.45 112.89 134.74 164.06 198.31 234.01 268.33 294.57 306.92 306.29
1553.121 298.88 290.54 278.76 252.02 210.19 167.63 129.23 100.52 81.06 67.75
1572.415 59.62 55.57 54.5 55.51 58.15 61.95 66.12 70.26 73.91 76.73
1591.708 78.48 79.07 78.36 76.15 72.07 66.25 59.36 52.3 46 40.62
1611.002 35.95 31.88 28.37 24.9 21.77 19.21 16.9 14.91 13.33 12.05
1630.295 10.96 9.98 9.21 8.71 8.36 8.21 8.24 8.39 8.63 8.93
1649.588 9.15 9.24 9.23 9.19 8.98 8.6 8.2 7.63 6.99 6.39
1668.882 5.8 5.3 4.92 4.6 4.33 4.21 4.16 4.1 4.07 4.13
1688.175 4.15 4.14 4.22 4.27 4.26 4.26 4.19 4.16 4.12 3.95
1707.469 3.88 3.84 3.84 3.87 3.9 3.95 3.97 4.01 4.01 4.01
1726.762 4.06 3.99 3.83 3.7033 3.5645 3.3593 3.1551 3.0216 2.9026 2.77966
1746.056 2.78003 2.80107 2.81118 2.8692 3.0043 3.1694 3.3628 3.6629 4.03 4.44
1765.349 4.86 5.17 5.46 5.72 5.89 5.97 5.93 5.84 5.69 5.55
1784.642 5.46 5.37 5.28 5.19 5.17 5.13 4.98 4.77 4.54 4.35
1803.936 4.14 3.81 3.4791 3.2387 2.9956 2.7943 2.63 2.475 2.4 2.389
1823.229 2.38 2.341 2.318 2.306 2.325 2.322 2.27 2.252 2.228 2.233
1842.523 2.219 2.158 2.158 2.165 2.137 2.157 2.153 2.126 2.169 2.167
1861.816 2.165 2.22 2.285 2.354 2.416 2.514 2.7179 2.9156 3.1326 3.446
1881.110 3.78 4.18 4.58 4.93 5.27 5.63 5.88 5.99 6 5.92
1900.403 5.72 5.39 5.01 4.58 4.12 3.6855 3.2782 2.9632 2.7116 2.46
1919.696 2.229 2.102 2.078 2.057 2.049 2.028 2.037 2.046 2.067 2.083
1938.990 2.047 2.063 2.078 2.061 2.068 2.129 2.183 2.158 2.131 2.094
1958.283 2.08 2.083 2.068 2.07 2.073 2.072 2.107 2.17 2.223 2.283
1977.577 2.319 2.336 2.332 2.312 2.328 2.348 2.29 2.233 2.175 2.14
1996.870 2.127 2.081 2.064 2.093 2.096 2.068 2.085 2.098 2.059 1.988
2016.164 1.979 2.015 1.995 2.011 1.989 1.971 2.025 2.029 2.05 2.029
2035.457 1.988 2.004 2.026 2.056 2.026 1.998 1.958 1.932 1.961 1.993
2054.750 2.036 2.058 2.112 2.187 2.259 2.403 2.524 2.61 2.727 2.8131
2074.044 2.84862 2.85511 2.84908 2.7696 2.6604 2.538 2.367 2.23 2.155 2.065
2093.337 1.984 1.927 1.905 1.881 1.835 1.83 1.816 1.774 1.768 1.774
2112.631 1.76 1.777 1.777 1.768 1.76 1.783 1.827 1.788 1.74 1.73
2131.924 1.74 1.72 1.7 1.69 1.68 1.71 1.75 1.8 1.856 1.89
2151.218 1.931 1.928 1.912 1.968 2.031 2.109 2.145 2.159 2.206 2.185
2170.511 2.166 2.148 2.11 2.082 2.069 2.067 2.029 2.006 1.999 2.011
2189.804 2.078 2.141 2.151 2.184 2.23 2.22 2.211 2.201 2.181 2.152
2209.098 2.124 2.073 2.005 1.992 1.931 1.853 1.823 1.833 1.887 1.901
2228.391 1.88 1.902 1.97 2.029 2.079 2.115 2.145 2.181 2.245 2.326
2247.685 2.358 2.371 2.449 2.484 2.477 2.439 2.359 2.319 2.297 2.254
2266.978 2.182 2.108 2.068 2.079 2.094 2.094 2.081 2.1 2.093 2.085
2286.272 2.124 2.143 2.183 2.231 2.246 2.232 2.222 2.228 2.221 2.176
2305.565 2.078 2.014 2.008 1.969 1.846 1.784 1.849 1.827 1.795 1.802
2324.858 1.801 1.801 1.774 1.75 1.75 1.785 1.82 1.846 1.86 1.855
2344.152 1.874 1.931 1.982 2.032 2.088 2.112 2.121 2.121 2.099 2.031
2363.445 2.034 2.012 1.918 1.857 1.776 1.768 1.808 1.784 1.794 1.836
2382.739 1.818 1.835 1.896 1.939 1.969 2.022 2.025 1.996 1.993 1.964
2402.032 1.952 1.931 1.875 1.824 1.788 1.74 1.71 1.73 1.72 1.67
2421.326 1.69 1.68 1.68 1.75 1.75 1.74 1.771 1.818 1.898 1.982
2440.619 2.035 2.104 2.158 2.188 2.272 2.314 2.381 2.458 2.483 2.516
2459.912 2.532 2.569 2.585 2.617 2.637 2.64 2.632 2.641 2.6678 2.6884
2479.206 2.7498 2.80891 2.8611 2.9749 3.0499 3.0339 3.0402 3.0145 2.9831 2.9032
2498.499 2.76006 2.654 2.589 2.549 2.486 2.463 2.449 2.434 2.486 2.545
2517.793 2.626 2.6715 2.76073 2.84139 2.83772 2.85698 2.84877 2.83965 2.79779 2.6847
2537.086 2.598 2.585 2.53 2.449 2.406 2.438 2.433 2.385 2.425 2.427
2556.380 2.449 2.508 2.521 2.555 2.65 2.705 2.7223 2.81483 2.9705 3.1985
2575.673 3.3302 3.4315 3.572 3.7034 3.85 3.96 4.02 4.02 3.99 3.91
2594.966 3.7351 3.5345 3.3168 3.082 2.8873 2.7138 2.512 2.322 2.227 2.081
2614.260 1.929 1.878 1.889 1.874 1.792 1.74 1.74 1.76 1.76 1.71
2633.553 1.64 1.58 1.6 1.59 1.54 1.53 1.55 1.57 1.56 1.56
2652.847 1.52 1.52 1.56 1.64 1.68 1.72 1.76 1.782 1.828 1.956
2672.140 2.106 2.193 2.295 2.409 2.576 2.6859 2.80501 3.013 3.0535 3.0607
2691.434 3.0868 3.0561 3.0103 2.9175 2.80516 2.632 2.533 2.415 2.307 2.22
2710.727 2.226 2.315 2.309 2.298 2.234 2.173 2.214 2.277 2.303 2.319
2730.020 2.271 2.229 2.217 2.188 2.156 2.155 2.208 2.196 2.119 2.114
2749.314 2.097 2.056 2.014 1.981 1.973 1.97 1.933 1.822 1.76 1.73
2768.607 1.69 1.71 1.74 1.61 1.56 1.61 1.6 1.55 1.57 1.57
2787.901 1.49 1.39 1.33 1.37 1.33 1.3 1.28 1.29 1.31 1.31
2807.194 1.34 1.37 1.48 1.49 1.45 1.48 1.5 1.52 1.63 1.848
2826.488 1.882 1.836 1.891 1.995 2.159 2.287 2.432 2.551 2.533 2.64
2845.781 2.77913 2.82726 2.9184 2.9218 2.9347 3.0042 2.9606 2.9635 3.0416 3.0355
2865.074 3.082 3.1624 3.1735 3.2424 3.4726 3.7237 3.88 4.23 4.71 5.08
2884.368 5.5 5.81 5.91 6.06 6.11 5.96 5.75 5.46 5.07 4.48
2903.661 3.85 3.3771 2.9526 2.648 2.432 2.25 2.149 2.071 2.02 1.957
2922.955 2.02 2.139 2.126 2.114 2.162 2.227 2.273 2.23 2.228 2.276
2942.248 2.236 2.131 1.946 1.799 1.773 1.69 1.52 1.46 1.33 1.15
2961.542 1.09 1.14 1.14 1.1 1.09 1.14 1.14 0.96 0.84 0.74
2980.835 0.77 0.89 0.8 0.73 0.75 0.73 0.62 0.41 0.41 0.38
3000.128 0.37 0.41 0.36 0.38 0.37 0.35 0.38 0.47 0.59 0.54
3019.422 0.36 0.3 0.24 0.24 0.39 0.44 0.49 0.5 0.48 0.49
3038.715 0.38 0.48 0.73 0.74 0.75 0.66 0.54 0.72 0.77 0.72
3058.009 0.73 0.89 0.96 0.97 1.19 1.33 1.58 2.019 2.495 3.0067
3077.302 3.7259 4.58 5.61 6.74 7.81 8.82 9.57 10.21 10.75 11.1
3096.596 11.65 12.06 11.97 11.69 11.24 10.66 10 9.16 8.24 7.35
3115.889 6.3 5.14 4.3 3.7257 3.0204 2.438 2.024 1.69 1.29 0.97
3135.182 0.84 0.64 0.54 0.54 0.51 0.42 0.33 0.35 0.32 0.18
3154.476 0.21 0.3 0.26 0.1 0.09 0.17 0.17 0.22 0.23 0.16
3173.769 0 0.01 0.13 0.32 0.36 0.28 0.4 0.35 0.15 0.14
3193.063 0.29 0.37 0.42 0.52 0.5 0.42 0.53 0.56 0.52 0.49
3212.356 0.5 0.63 0.65 0.57 0.6 0.59 0.58 0.61 0.52 0.47
3231.650 0.52 0.48 0.44 0.52 0.39 0.42 0.49 0.35 0.3 0.23
3250.943 0.2 0.22 0.24 0.27 0.29 0.24 0.21 0.31 0.5 0.44
3270.236 0.37 0.44 0.52 0.46 0.31 0.34 0.49 0.46 0.43 0.38
3289.530 0.3 0.46 0.47 0.4 0.4 0.41 0.39 0.44 0.5 0.38
3308.823 0.35 0.36 0.34 0.27 0.28 0.4 0.44 0.47 0.52 0.7
3328.117 0.75 0.52 0.43 0.53 0.6 0.73 0.79 0.68 0.61 0.64
3347.410 0.57 0.55 0.52 0.48 0.57 0.58 0.63 0.67 0.64 0.64
3366.704 0.68 0.64 0.63 0.63 0.66 0.56 0.61 0.79 0.69 0.67
3385.997 0.81 0.79 0.71 0.77 0.72 0.79 0.9 0.85 0.83 0.8
3405.290 0.73 0.75 0.81 0.79 0.79 0.79 0.87 1.01 0.98 0.92
3424.584 0.98 1.04 1.04 0.96 0.92 0.97 1.01 0.98 0.93 1.03
3443.877 1.09 1.03 1.11 1.17 1.16 1.11 1.09 1.04 1.06 1.18
3463.171 1.27 1.33 1.29 1.24 1.17 1.15 1.14 1.07 1.01 1.12
3482.464 1.2 1.22 1.22 1.11 1.16 1.2 1.23 1.16 1.01 1.1
3501.758 1.15 1.19 1.24 1.19 1.09 1.1 1.26 1.25 1.2 1.24
3521.051 1.29 1.34 1.31 1.35 1.47 1.46 1.42 1.44 1.4 1.4
3540.344 1.36 1.34 1.46 1.42 1.38 1.44 1.49 1.43 1.33 1.42
3559.638 1.51 1.42 1.43 1.38 1.3 1.28 1.29 1.35 1.45 1.52
3578.931 1.51 1.53 1.61 1.62 1.48 1.47 1.53 1.65 1.66 1.5
3598.225 1.52 1.63 1.63 1.65 1.63 1.6 1.6 1.58 1.58 1.59
3617.518 1.57 1.58 1.57 1.56 1.55 1.58 1.6 1.49 1.54 1.63
3636.812 1.6 1.6 1.54 1.53 1.56 1.58 1.62 1.57 1.57 1.6
3656.105 1.53 1.55 1.65 1.73 1.75 1.66 1.62 1.68 1.806 1.789
3675.398 1.798 1.71 1.62 1.789 1.846 1.766 1.69 1.63 1.71 1.922
3694.692 1.919 1.827 1.72 1.65 1.66 1.72 1.846 1.827 1.794 1.76
3713.985 1.65 1.72 1.832 1.83 1.788 1.812 1.803 1.81 1.886 1.89
3733.279 1.951 1.947 1.82 1.833 1.944 1.865 1.74 1.87 1.946 1.833
3752.572 1.772 1.767 1.814 1.798 1.73 1.73 1.886 1.848 1.75 1.842
3771.866 1.827 1.7 1.68 1.763 1.75 1.74 1.76 1.798 1.7 1.71
3791.159 1.75 1.74 1.76 1.75 1.846 1.75 1.74 1.857 1.838 1.856
3810.452 1.897 1.929 1.891 1.841 1.865 1.768 1.832 1.901 1.811 1.813
3829.746 1.782 1.74 1.761 1.66 1.64 1.71 1.68 1.62 1.72 1.854
3849.039 1.802 1.72 1.69 1.779 1.78 1.68 1.67 1.69 1.67 1.62
3868.333 1.52 1.55 1.77 1.809 1.68 1.66 1.76 1.826 1.792 1.75
3887.626 1.798 1.844 1.89 1.941 1.926 1.955 1.924 1.896 1.96 1.983
3906.920 2.032 2.013 1.982 2 2.029 1.996 1.904 1.872 1.89 1.888
3926.213 1.843 1.864 1.888 1.868 1.93 1.866 1.841 1.891 1.867 1.845
3945.506 1.809 1.77 1.796 1.794 1.74 1.67 1.65 1.66 1.48 1.52
3964.800 1.7 1.74 1.822 1.919 2.02 1.978 1.771 1.7 1.69 1.65
3984.093 1.766 1.831 1.782 1.74 1.74 1.84 1.889 1.931 1.915
##END=
