##TITLE=Phenylsulphonylacetamide
##JCAMP-DX=4.24
##DATA TYPE=INFRARED SPECTRUM
##ORIGIN=EPA-IR VAPOR PHASE LIBRARY
##OWNER=SRD/NIST
Collection (C) 2018 copyright by the U.S. Secretary of Commerce
on behalf of the United States of America. All rights reserved.
##CAS REGISTRY NO=35008-50-5
##MOLFORM=C 8 H 9 N O 3 S
##$NIST SOURCE=MSDC-IR
##STATE=gas
##XUNITS=1/CM
##YUNITS=ABSORBANCE
##XFACTOR=1.
##YFACTOR=0.001
##DELTAX=1.92934
##FIRSTX=549.9
##LASTX=3999.5
##FIRSTY=7.096
##MAXX=3999.53
##MINX=549.863
##MAXY=0.032196
##MINY=0
##NPOINTS=1789
##XYDATA=(X++(Y..Y))
549.863 7.096 8.266 9.696 10.976 11.916 12.536 12.776 12.326 11.506 10.396
569.156 8.826 7.396 6.466 5.766 5.256 4.926 4.626 4.446 4.416 4.406
588.450 4.336 4.306 4.156 3.916 3.766 3.616 3.426 3.226 3.106 2.976
607.743 2.736 2.566 2.426 2.256 2.176 2.046 1.846 1.736 1.756 1.716
627.037 1.666 1.766 1.786 1.766 1.776 1.806 1.886 1.966 2.056 2.216
646.330 2.396 2.506 2.576 2.676 2.786 2.816 2.896 2.936 2.916 2.926
665.624 2.846 2.796 2.956 3.106 3.296 3.596 3.986 4.456 4.906 5.266
684.917 5.456 5.466 5.306 5.066 4.796 4.516 4.296 4.266 4.356 4.506
704.210 4.716 4.866 4.956 4.986 4.956 5.006 5.096 5.096 5.016 4.886
723.504 4.726 4.456 4.076 3.726 3.366 3.176 3.196 3.326 3.596 3.976
742.797 4.366 4.666 4.866 4.876 4.696 4.376 3.986 3.526 3.086 2.776
762.091 2.476 2.236 2.136 2.146 2.186 2.296 2.446 2.576 2.696 2.836
781.384 3.006 3.176 3.456 3.726 3.976 4.326 4.676 4.876 4.936 4.916
800.678 4.756 4.466 4.086 3.656 3.156 2.706 2.386 2.206 2.036 1.916
819.971 1.986 1.976 1.906 1.956 2.056 2.076 2.056 2.086 2.166 2.226
839.264 2.296 2.386 2.426 2.546 2.746 2.906 3.076 3.216 3.306 3.416
858.558 3.416 3.396 3.396 3.356 3.316 3.276 3.286 3.406 3.566 3.776
877.851 4.046 4.436 4.806 5.136 5.556 5.786 5.876 5.856 5.656 5.356
897.145 4.946 4.506 4.096 3.686 3.316 3.086 2.916 2.726 2.556 2.436
916.438 2.376 2.316 2.256 2.216 2.196 2.196 2.186 2.186 2.096 1.976
935.732 1.886 1.806 1.786 1.756 1.686 1.686 1.686 1.656 1.636 1.596
955.025 1.586 1.626 1.636 1.646 1.696 1.776 1.786 1.616 1.5045 1.4894
974.318 1.4431 1.4323 1.4432 1.4663 1.5003 1.4843 1.4848 1.5182 1.576 1.636
993.612 1.666 1.706 1.736 1.756 1.696 1.596 1.5473 1.5044 1.4605 1.4163
1012.905 1.3739 1.3494 1.3785 1.478 1.5374 1.5541 1.596 1.606 1.596 1.5402
1032.199 1.4825 1.4297 1.2922 1.2338 1.2388 1.2329 1.2588 1.3017 1.2983 1.3242
1051.492 1.4028 1.464 1.478 1.5241 1.646 1.726 1.836 1.986 2.106 2.276
1070.786 2.546 2.866 3.366 4.006 4.646 5.286 5.856 6.226 6.306 6.196
1090.079 5.866 5.326 4.696 4.006 3.306 2.786 2.416 2.116 1.876 1.716
1109.372 1.676 1.626 1.576 1.596 1.646 1.746 1.866 2.016 2.166 2.356
1128.666 2.716 3.216 3.746 4.266 4.846 5.606 6.506 7.306 8.136 9.006
1147.959 10.016 11.226 12.386 13.686 15.056 16.516 17.916 19.006 19.776 20.066
1167.253 19.766 18.966 17.636 15.836 13.956 11.946 9.836 7.966 6.496 5.406
1186.546 4.716 4.216 3.806 3.336 2.866 2.626 2.386 2.176 2.126 2.066
1205.840 1.936 1.616 1.726 2.056 2.016 2.046 2.326 2.556 2.856 3.176
1225.133 3.276 3.586 3.906 4.056 4.116 4.086 3.796 3.406 3.056 2.576
1244.426 2.266 2.086 1.836 1.616 1.5401 1.4872 1.3799 1.3741 1.4217 1.47
1263.720 1.4655 1.515 1.616 1.666 1.726 1.816 1.976 2.096 2.126 2.226
1283.013 2.326 2.336 2.416 2.516 2.606 2.676 2.746 2.876 3.036 3.246
1302.307 3.476 3.716 4.026 4.386 4.776 5.266 5.796 6.406 7.156 8.076
1321.600 9.136 10.286 11.556 12.936 14.406 15.956 17.546 19.256 21.106 23.056
1340.894 25.216 27.336 29.206 30.776 31.836 32.196 31.736 30.386 28.166 25.256
1360.187 21.946 18.566 15.376 12.546 10.096 8.136 6.656 5.606 4.876 4.366
1379.480 4.016 3.756 3.576 3.456 3.376 3.356 3.346 3.326 3.286 3.216
1398.774 3.056 2.896 2.726 2.486 2.296 2.116 1.916 1.806 1.696 1.576
1418.067 1.4395 1.3911 1.4516 1.4337 1.3867 1.3787 1.415 1.5351 1.696 1.836
1437.361 2.086 2.436 2.676 2.896 3.146 3.316 3.386 3.196 2.856 2.486
1456.654 2.096 1.866 1.676 1.4177 1.2492 1.1772 1.1661 1.1296 1.0896 1.1353
1475.948 1.1948 1.2429 1.2532 1.2436 1.2537 1.1937 1.0588 0.9497 0.9309 0.9119
1495.241 0.8383 0.7788 0.7621 0.7705 0.7679 0.7188 0.62593 0.60285 0.63082 0.6737
1514.534 0.7183 0.7137 0.723 0.7033 0.7222 0.771 0.7645 0.7738 0.7855 0.7876
1533.828 0.794 0.8364 0.8202 0.7982 0.8176 0.8136 0.8819 0.9924 1.0247 1.0673
1553.121 1.1005 1.107 1.1457 1.1507 1.3079 1.472 1.576 1.746 1.916 2.136
1572.415 2.446 2.786 3.216 3.816 4.506 5.276 6.146 7.116 8.156 9.136
1591.708 9.946 10.526 10.806 10.736 10.336 9.616 8.746 7.726 6.636 5.726
1611.002 4.916 4.186 3.646 3.236 2.886 2.566 2.306 2.116 1.976 1.916
1630.295 1.896 1.806 1.666 1.616 1.586 1.596 1.586 1.5315 1.4784 1.4635
1649.588 1.4854 1.4342 1.419 1.5305 1.626 1.696 1.676 1.686 1.806 1.886
1668.882 1.946 2.116 2.266 2.346 2.566 2.786 2.956 3.146 3.316 3.586
1688.175 3.866 4.146 4.446 4.686 4.926 5.236 5.526 5.936 6.406 6.946
1707.469 7.606 8.366 9.206 10.236 11.446 12.806 14.436 16.176 17.996 19.916
1726.762 21.916 23.866 25.686 27.256 28.616 29.566 29.776 29.266 28.036 26.116
1746.056 23.666 20.806 17.796 14.956 12.526 10.466 8.786 7.546 6.616 5.956
1765.349 5.486 5.046 4.646 4.346 4.066 3.836 3.626 3.366 3.096 2.876
1784.642 2.636 2.436 2.276 2.076 1.936 1.846 1.776 1.696 1.566 1.4436
1803.936 1.4123 1.3826 1.2901 1.2157 1.167 1.1056 1.0126 0.9469 0.906 0.8524
1823.229 0.8025 0.7465 0.7362 0.7288 0.6755 0.65514 0.6758 0.6818 0.6735 0.6376
1842.523 0.62922 0.6334 0.6109 0.58435 0.557003 0.57196 0.59475 0.60475 0.58014 0.56946
1861.816 0.58489 0.5882 0.61161 0.60831 0.59434 0.61972 0.65453 0.6736 0.6669 0.64432
1881.110 0.6631 0.7074 0.7144 0.7023 0.729 0.7749 0.7993 0.7913 0.7682 0.7832
1900.403 0.8085 0.8083 0.7989 0.775 0.7567 0.7674 0.7595 0.7092 0.7109 0.7184
1919.696 0.6797 0.62617 0.60221 0.63734 0.63657 0.59416 0.5819 0.57963 0.57769 0.58175
1938.990 0.57531 0.59733 0.6188 0.6661 0.6783 0.64635 0.6945 0.7414 0.7342 0.7278
1958.283 0.7236 0.7254 0.7171 0.7142 0.7464 0.7609 0.7687 0.7637 0.7404 0.7135
1977.577 0.7054 0.6782 0.63163 0.60079 0.59471 0.58034 0.5295 0.4973 0.4979 0.4894
1996.870 0.4903 0.5105 0.5236 0.513 0.5108 0.5206 0.5129 0.5187 0.5239 0.5036
2016.164 0.5051 0.5169 0.5019 0.5258 0.5239 0.5037 0.5025 0.4939 0.4986 0.5042
2035.457 0.5153 0.5144 0.4846 0.4625 0.4754 0.496 0.4916 0.4861 0.4824 0.4614
2054.750 0.4622 0.4706 0.469 0.445 0.417 0.439 0.4564 0.454 0.4613 0.4609
2074.044 0.443 0.44 0.446 0.449 0.4621 0.454 0.4562 0.4712 0.462 0.484
2093.337 0.5007 0.4742 0.456 0.4672 0.4714 0.4605 0.45 0.433 0.453 0.4855
2112.631 0.4814 0.4564 0.4663 0.4792 0.453 0.435 0.459 0.4677 0.455 0.4704
2131.924 0.456 0.444 0.45 0.4721 0.5261 0.5428 0.55493 0.563306 0.56689 0.57691
2151.218 0.5823 0.59566 0.59061 0.57588 0.57776 0.558966 0.5194 0.5048 0.5227 0.5274
2170.511 0.5104 0.4983 0.4715 0.4726 0.4937 0.4857 0.4816 0.4819 0.4802 0.5005
2189.804 0.4869 0.4682 0.4615 0.448 0.442 0.4609 0.4827 0.4828 0.455 0.442
2209.098 0.4678 0.473 0.4645 0.4737 0.4821 0.4714 0.5097 0.5396 0.5187 0.4988
2228.391 0.4972 0.534 0.5419 0.5122 0.5238 0.5386 0.54649 0.5419 0.54683 0.5416
2247.685 0.54623 0.55276 0.5324 0.5131 0.5281 0.5267 0.5035 0.507 0.4789 0.4804
2266.978 0.469 0.4589 0.456 0.415 0.409 0.449 0.4691 0.446 0.433 0.435
2286.272 0.439 0.423 0.395 0.387 0.401 0.387 0.37 0.394 0.395 0.37
2305.565 0.358 0.389 0.388 0.348 0.343 0.335 0.329 0.354 0.388 0.402
2324.858 0.404 0.371 0.341 0.32 0.327 0.337 0.313 0.287 0.288 0.337
2344.152 0.357 0.355 0.362 0.336 0.299 0.269 0.217 0.195 0.219 0.228
2363.445 0.206 0.221 0.235 0.238 0.238 0.249 0.292 0.33 0.355 0.352
2382.739 0.35 0.381 0.394 0.387 0.401 0.429 0.444 0.444 0.434 0.434
2402.032 0.446 0.443 0.4592 0.452 0.434 0.433 0.412 0.428 0.469 0.4749
2421.326 0.435 0.438 0.4896 0.4906 0.5015 0.4934 0.4809 0.441 0.439 0.4844
2440.619 0.4703 0.447 0.445 0.467 0.4688 0.4948 0.5067 0.4921 0.4744 0.438
2459.912 0.438 0.4767 0.4722 0.451 0.4657 0.4578 0.452 0.454 0.447 0.469
2479.206 0.4909 0.4855 0.4637 0.4604 0.4768 0.476 0.4847 0.4572 0.423 0.424
2498.499 0.391 0.384 0.405 0.415 0.453 0.433 0.399 0.401 0.374 0.368
2517.793 0.403 0.402 0.383 0.397 0.401 0.406 0.407 0.394 0.413 0.415
2537.086 0.384 0.391 0.417 0.374 0.354 0.393 0.406 0.415 0.426 0.397
2556.380 0.388 0.417 0.433 0.453 0.41 0.395 0.414 0.406 0.405 0.405
2575.673 0.422 0.411 0.421 0.418 0.412 0.422 0.39 0.352 0.333 0.382
2594.966 0.396 0.39 0.409 0.431 0.407 0.374 0.37 0.363 0.398 0.44
2614.260 0.42 0.433 0.42 0.35 0.347 0.375 0.404 0.437 0.428 0.429
2633.553 0.406 0.361 0.361 0.32 0.325 0.339 0.317 0.346 0.361 0.388
2652.847 0.406 0.367 0.39 0.402 0.404 0.445 0.435 0.385 0.394 0.384
2672.140 0.359 0.399 0.388 0.396 0.379 0.29 0.282 0.271 0.25 0.276
2691.434 0.277 0.237 0.257 0.275 0.252 0.259 0.232 0.184 0.173 0.199
2710.727 0.246 0.271 0.3 0.328 0.321 0.298 0.296 0.301 0.268 0.258
2730.020 0.293 0.301 0.276 0.262 0.258 0.277 0.317 0.32 0.295 0.317
2749.314 0.326 0.288 0.25 0.243 0.316 0.337 0.343 0.38 0.355 0.325
2768.607 0.324 0.379 0.384 0.312 0.275 0.274 0.246 0.268 0.302 0.318
2787.901 0.303 0.222 0.215 0.275 0.298 0.296 0.255 0.25 0.248 0.191
2807.194 0.209 0.226 0.213 0.192 0.226 0.287 0.238 0.214 0.241 0.277
2826.488 0.287 0.283 0.275 0.26 0.294 0.302 0.273 0.234 0.224 0.25
2845.781 0.282 0.355 0.33 0.287 0.373 0.363 0.337 0.348 0.3 0.323
2865.074 0.358 0.338 0.309 0.262 0.341 0.401 0.368 0.369 0.344 0.35
2884.368 0.343 0.347 0.337 0.285 0.336 0.381 0.36 0.338 0.282 0.303
2903.661 0.364 0.293 0.279 0.28 0.288 0.277 0.237 0.286 0.326 0.363
2922.955 0.392 0.395 0.37 0.408 0.425 0.394 0.388 0.376 0.351 0.324
2942.248 0.424 0.428 0.345 0.33 0.274 0.285 0.279 0.193 0.228 0.291
2961.542 0.319 0.301 0.279 0.255 0.25 0.283 0.269 0.201 0.199 0.28
2980.835 0.302 0.285 0.273 0.312 0.243 0.219 0.253 0.24 0.23 0.304
3000.128 0.388 0.363 0.347 0.363 0.433 0.471 0.4568 0.439 0.436 0.4686
3019.422 0.4712 0.4857 0.4933 0.463 0.4724 0.4855 0.4777 0.55397 0.55003 0.4989
3038.715 0.54706 0.5061 0.5044 0.5003 0.4671 0.5251 0.57182 0.61829 0.6764 0.7546
3058.009 0.9433 1.1128 1.2502 1.5068 1.866 2.186 2.446 2.736 2.926 2.986
3077.302 2.956 2.896 2.786 2.456 2.086 1.786 1.4756 1.241 1.1103 1.0625
3096.596 0.8996 0.8086 0.7601 0.6656 0.60938 0.451 0.331 0.411 0.386 0.25
3115.889 0.284 0.304 0.283 0.254 0.25 0.297 0.242 0.181 0.341 0.337
3135.182 0.225 0.287 0.378 0.365 0.251 0.219 0.285 0.282 0.237 0.294
3154.476 0.238 0.171 0.213 0.287 0.436 0.437 0.358 0.296 0.277 0.341
3173.769 0.262 0.233 0.304 0.215 0.08 0.111 0.176 0.194 0.187 0.174
3193.063 0.165 0.146 0.182 0.22 0.329 0.283 0.181 0.147 0.097 0.097
3212.356 0.101 0.209 0.312 0.233 0.118 0.16 0.247 0.305 0.314 0.229
3231.650 0.149 0.129 0.075 0.111 0.09 0.011 0.059 0.121 0.087 0.015
3250.943 0.005 0.044 0.136 0.088 0.039 0.04 0 0.111 0.179 0.07
3270.236 0.068 0.168 0.223 0.252 0.233 0.211 0.216 0.231 0.228 0.148
3289.530 0.152 0.182 0.089 0.054 0.066 0.109 0.183 0.219 0.249 0.251
3308.823 0.23 0.165 0.243 0.33 0.288 0.224 0.149 0.205 0.217 0.243
3328.117 0.369 0.403 0.403 0.416 0.4565 0.5107 0.4652 0.5329 0.6291 0.57009
3347.410 0.492 0.55401 0.6855 0.8094 0.8854 0.8142 0.7866 0.8534 0.855 0.8633
3366.704 0.918 0.9856 1.122 1.1652 1.1834 1.2065 1.3893 1.646 1.916 2.246
3385.997 2.506 2.816 3.116 3.446 3.876 4.336 4.656 4.736 4.756 4.656
3405.290 4.356 4.046 3.566 3.036 2.656 2.276 1.916 1.726 1.566 1.4114
3424.584 1.3199 1.1344 1.017 1.0952 1.1836 1.0999 1.0676 1.0781 1.0512 1.1132
3443.877 1.1293 1.16 1.1115 0.929 0.9193 0.9629 0.9519 0.9496 0.9739 0.9098
3463.171 0.8312 0.9258 0.9615 0.9803 1.0668 1.0759 1.1356 1.2296 1.208 1.2416
3482.464 1.3325 1.4136 1.5133 1.524 1.626 1.826 1.906 2.166 2.466 2.586
3501.758 2.866 3.276 3.796 4.316 4.926 5.596 6.136 6.776 7.396 7.736
3521.051 7.796 7.606 7.196 6.716 6.116 5.416 4.616 3.836 3.026 2.376
3540.344 1.956 1.646 1.3505 1.0835 0.9453 0.957 0.9077 0.8257 0.8424 0.7081
3559.638 0.560218 0.58415 0.54812 0.447 0.4635 0.4809 0.4962 0.501 0.565558 0.5409
3578.931 0.489 0.455 0.36 0.336 0.302 0.278 0.336 0.34 0.291 0.293
3598.225 0.253 0.311 0.362 0.257 0.323 0.353 0.222 0.139 0.176 0.294
3617.518 0.314 0.286 0.276 0.262 0.263 0.271 0.232 0.285 0.319 0.331
3636.812 0.363 0.317 0.253 0.259 0.303 0.256 0.201 0.198 0.179 0.192
3656.105 0.267 0.328 0.349 0.284 0.29 0.301 0.25 0.214 0.183 0.242
3675.398 0.234 0.19 0.22 0.205 0.143 0.167 0.276 0.364 0.354 0.31
3694.692 0.338 0.316 0.258 0.243 0.225 0.224 0.221 0.27 0.368 0.347
3713.985 0.24 0.183 0.231 0.236 0.223 0.312 0.299 0.227 0.247 0.233
3733.279 0.199 0.221 0.262 0.252 0.162 0.139 0.193 0.294 0.366 0.292
3752.572 0.237 0.261 0.334 0.282 0.224 0.268 0.261 0.256 0.236 0.198
3771.866 0.259 0.296 0.294 0.358 0.379 0.369 0.257 0.173 0.238 0.235
3791.159 0.318 0.404 0.324 0.329 0.4 0.315 0.232 0.293 0.354 0.359
3810.452 0.31 0.308 0.327 0.333 0.323 0.384 0.362 0.346 0.447 0.423
3829.746 0.363 0.314 0.263 0.228 0.253 0.328 0.325 0.269 0.316 0.349
3849.039 0.261 0.239 0.184 0.123 0.231 0.367 0.386 0.346 0.334 0.302
3868.333 0.238 0.188 0.195 0.225 0.209 0.233 0.276 0.248 0.221 0.225
3887.626 0.205 0.206 0.241 0.241 0.276 0.297 0.264 0.225 0.212 0.181
3906.920 0.261 0.33 0.289 0.281 0.278 0.264 0.258 0.3 0.261 0.204
3926.213 0.248 0.23 0.201 0.257 0.334 0.365 0.343 0.256 0.161 0.186
3945.506 0.275 0.301 0.312 0.325 0.289 0.257 0.291 0.295 0.305 0.32
3964.800 0.224 0.279 0.354 0.234 0.224 0.271 0.295 0.295 0.236 0.289
3984.093 0.313 0.291 0.307 0.329 0.377 0.412 0.388 0.387 0.402
##END=
