##TITLE=m-Trifluoromethylacetanilide
##JCAMP-DX=4.24
##DATA TYPE=INFRARED SPECTRUM
##ORIGIN=EPA-IR VAPOR PHASE LIBRARY
##OWNER=SRD/NIST
Collection (C) 2018 copyright by the U.S. Secretary of Commerce
on behalf of the United States of America. All rights reserved.
##CAS REGISTRY NO=351-36-0
##MOLFORM=C 9 H 8 F 3 N O
##$NIST SOURCE=MSDC-IR
##STATE=gas
##XUNITS=1/CM
##YUNITS=ABSORBANCE
##XFACTOR=1.
##YFACTOR=0.001
##DELTAX=1.92898
##FIRSTX=549.8
##LASTX=4000.7
##FIRSTY=10.345
##MAXX=4000.7
##MINX=549.759
##MAXY=0.416365
##MINY=0
##NPOINTS=1790
##XYDATA=(X++(Y..Y))
549.759 10.345 8.785 7.465 6.105 5.685 5.555 5.105 4.685 4.215 3.865
569.049 4.105 4.255 3.935 3.955 4.225 4.365 4.325 4.215 4.015 3.815
588.339 3.425 3.115 3.135 2.935 2.845 3.195 3.495 3.385 3.385 3.755
607.628 4.055 4.025 4.105 4.145 3.995 4.205 4.235 4.155 4.165 4.125
626.918 4.035 3.855 3.945 3.975 3.905 4.235 5.045 5.925 7.265 8.415
646.208 9.405 11.125 13.035 14.045 14.185 14.135 13.795 13.275 11.945 10.225
665.498 9.055 8.425 8.395 8.895 9.605 10.475 11.645 13.385 15.575 18.225
684.787 21.495 24.605 27.425 30.685 34.975 39.935 41.695 38.215 33.375 29.575
704.077 25.955 22.155 18.215 14.455 11.505 9.315 7.655 6.505 5.815 5.195
723.367 4.605 4.155 3.875 3.805 3.565 3.225 3.055 2.885 2.915 2.815
742.657 2.705 3.065 3.475 3.935 4.435 4.775 5.135 5.585 6.145 6.585
761.947 6.645 6.605 6.695 6.985 7.365 7.905 8.855 10.425 12.785 15.705
781.236 19.045 22.625 26.175 29.005 31.235 32.715 32.845 31.425 28.395 24.605
800.526 20.775 17.285 14.255 11.555 9.105 7.245 6.035 5.185 4.695 4.285
819.816 3.845 3.605 3.335 3.125 3.095 3.025 2.935 2.865 2.985 3.285
839.106 3.355 3.295 3.425 3.645 3.945 4.305 4.655 5.045 5.755 6.505
858.395 7.455 8.665 9.705 11.045 12.505 13.915 15.375 16.295 16.625 16.665
877.685 16.615 16.575 16.765 17.245 17.675 18.165 18.775 19.315 19.885 20.185
896.975 20.105 19.675 18.885 17.725 16.285 14.885 13.565 12.165 10.925 9.975
916.265 9.105 8.385 7.745 7.435 7.315 7.115 7.105 7.455 7.805 8.225
935.555 8.785 9.395 10.095 10.535 10.835 11.185 11.645 12.035 12.105 11.925
954.844 11.885 11.955 11.895 12.085 12.445 12.725 12.825 13.225 13.965 15.005
974.134 16.415 17.795 19.195 20.725 22.525 24.495 26.365 27.815 28.515 28.955
993.424 29.115 29.415 30.155 30.135 29.305 28.165 27.175 25.395 22.155 19.135
1012.714 16.965 15.435 14.495 13.795 12.995 12.255 11.715 11.285 11.395 11.455
1032.003 11.465 12.065 12.575 12.885 13.255 13.705 14.205 15.065 16.295 17.525
1051.293 18.755 20.525 23.075 26.015 29.485 34.045 39.625 46.215 52.855 58.155
1070.583 61.995 64.125 64.155 61.895 57.685 51.595 45.335 41.075 38.775 38.125
1089.873 39.215 41.665 44.355 47.415 49.845 49.525 46.945 42.865 37.645 32.415
1109.163 28.345 25.585 24.675 25.595 27.545 30.405 34.505 40.245 47.415 56.445
1128.452 68.415 83.195 101.065 122.275 146.145 172.315 199.545 227.245 252.975 272.095
1147.742 279.105 270.715 250.975 225.385 197.295 170.465 147.805 132.895 127.695 131.715
1167.032 142.535 155.845 170.725 187.055 201.135 208.725 207.675 200.095 188.205 173.495
1186.322 156.205 137.015 119.565 105.865 96.025 89.785 87.335 87.805 90.515 95.025
1205.611 100.705 107.245 113.155 117.305 119.335 118.765 114.965 108.995 102.135 95.155
1224.901 90.355 87.485 86.435 86.515 86.285 85.555 83.225 78.985 73.425 67.105
1244.191 59.925 52.675 46.255 40.445 35.705 32.065 29.425 27.995 27.595 27.805
1263.481 28.555 30.085 32.415 35.245 38.245 41.535 44.695 47.395 49.995 52.645
1282.771 55.505 58.305 61.145 64.445 68.495 73.285 78.485 83.945 89.515 94.805
1302.060 98.965 101.635 102.495 101.955 101.205 101.485 104.745 113.465 130.335 157.555
1321.350 196.495 246.495 302.695 356.245 396.865 416.365 410.915 380.415 326.875 256.835
1340.640 184.255 125.395 86.425 63.455 50.045 41.985 37.245 34.785 34.055 34.735
1359.930 36.495 38.865 41.305 43.325 44.635 44.915 44.095 42.245 39.595 36.745
1379.219 34.045 31.525 29.335 27.445 25.855 24.735 24.005 23.705 23.855 24.375
1398.509 25.255 26.635 28.655 31.275 34.445 38.195 42.405 46.875 51.455 56.225
1417.799 61.515 67.715 74.885 83.475 93.925 105.755 118.265 129.625 137.765 141.105
1437.089 138.955 132.035 120.845 106.005 89.055 72.455 58.685 48.895 42.445 38.425
1456.378 36.095 34.815 34.415 34.745 35.825 37.635 40.235 43.985 49.205 56.115
1475.668 64.785 75.375 87.345 99.875 111.175 119.515 124.055 124.635 121.265 114.765
1494.958 106.345 97.675 90.865 86.845 85.615 86.765 90.015 94.895 100.765 107.565
1514.248 114.955 122.345 128.895 133.685 136.785 137.365 134.745 128.925 120.245 109.425
1533.538 97.205 84.665 73.065 62.365 53.225 45.675 39.525 34.605 30.835 27.855
1552.827 25.535 23.725 22.225 21.105 20.275 19.645 19.275 19.075 18.915 18.975
1572.117 19.235 19.555 20.185 20.925 21.735 22.885 24.225 25.745 27.445 29.515
1591.407 31.845 34.215 36.635 38.915 40.665 41.655 41.695 40.915 39.665 37.995
1610.697 36.265 34.865 33.675 32.325 30.865 29.035 26.695 23.935 20.865 17.775
1629.986 15.005 12.855 11.275 10.225 9.545 9.025 8.725 8.555 8.425 8.355
1649.276 8.275 8.235 8.115 8.065 8.135 8.095 8.155 8.265 8.315 8.425
1668.566 8.645 8.925 9.225 9.535 9.995 10.575 11.215 12.075 13.145 14.245
1687.856 15.485 16.925 18.505 20.295 22.345 24.465 26.575 28.905 31.315 34.035
1707.146 37.325 41.445 47.025 54.405 64.055 76.395 91.215 106.905 122.525 136.845
1726.435 148.655 156.415 158.375 154.555 146.565 136.895 125.985 113.155 99.875 87.465
1745.725 76.905 68.265 61.255 55.555 50.885 46.935 43.355 39.975 36.785 33.705
1765.015 30.695 27.805 25.025 22.415 19.965 17.855 15.995 14.365 12.995 11.815
1784.305 10.745 9.775 8.955 8.195 7.545 7.055 6.635 6.265 5.965 5.715
1803.594 5.545 5.355 5.255 5.215 5.135 5.075 4.935 4.805 4.725 4.595
1822.884 4.435 4.285 4.175 4.025 3.935 3.885 3.755 3.645 3.605 3.595
1842.174 3.565 3.495 3.465 3.475 3.475 3.475 3.445 3.415 3.435 3.465
1861.464 3.415 3.305 3.205 3.145 3.105 3.085 3.095 3.105 3.165 3.245
1880.754 3.265 3.315 3.325 3.235 3.155 3.025 2.835 2.655 2.535 2.445
1900.043 2.315 2.245 2.235 2.185 2.135 2.135 2.215 2.225 2.205 2.275
1919.333 2.315 2.355 2.465 2.545 2.615 2.655 2.705 2.745 2.745 2.725
1938.623 2.685 2.715 2.625 2.525 2.515 2.465 2.415 2.295 2.255 2.185
1957.913 2.035 1.945 1.785 1.655 1.615 1.585 1.495 1.415 1.405 1.355
1977.202 1.235 1.195 1.175 1.1354 1.1151 1.1387 1.166 1.0707 1.0344 1.0471
1996.492 0.9853 1.0073 1.0561 1.0309 1.0346 1.0576 1.0396 0.9852 0.9523 1.0337
2015.782 1.1486 1.1218 1.0656 1.0534 1.0869 1.1314 1.1368 1.215 1.285 1.245
2035.072 1.215 1.225 1.185 1.1259 1.1382 1.205 1.215 1.215 1.215 1.225
2054.362 1.265 1.255 1.225 1.185 1.195 1.255 1.275 1.295 1.355 1.425
2073.651 1.425 1.455 1.505 1.525 1.545 1.625 1.785 1.865 1.905 1.955
2092.941 1.975 1.885 1.785 1.755 1.665 1.605 1.555 1.475 1.405 1.325
2112.231 1.285 1.315 1.265 1.225 1.215 1.1739 1.235 1.315 1.295 1.355
2131.521 1.405 1.355 1.395 1.425 1.415 1.395 1.395 1.425 1.485 1.505
2150.810 1.515 1.575 1.615 1.615 1.615 1.635 1.645 1.565 1.565 1.655
2170.100 1.655 1.615 1.575 1.525 1.515 1.495 1.375 1.385 1.385 1.335
2189.390 1.315 1.265 1.245 1.255 1.305 1.345 1.325 1.305 1.325 1.295
2208.680 1.285 1.275 1.235 1.305 1.345 1.295 1.255 1.265 1.265 1.235
2227.970 1.225 1.205 1.205 1.1343 1.1462 1.215 1.1712 1.1746 1.245 1.335
2247.259 1.325 1.305 1.355 1.395 1.405 1.365 1.375 1.395 1.315 1.425
2266.549 1.555 1.525 1.575 1.595 1.615 1.665 1.705 1.725 1.685 1.705
2285.839 1.685 1.525 1.435 1.475 1.425 1.365 1.345 1.355 1.345 1.385
2305.129 1.435 1.405 1.435 1.505 1.475 1.485 1.495 1.525 1.545 1.545
2324.418 1.625 1.665 1.705 1.715 1.675 1.685 1.695 1.755 1.705 1.715
2343.708 1.765 1.745 1.765 1.785 1.785 1.735 1.655 1.585 1.585 1.595
2362.998 1.535 1.465 1.495 1.505 1.425 1.385 1.425 1.415 1.405 1.465
2382.288 1.525 1.525 1.495 1.495 1.425 1.385 1.385 1.365 1.395 1.465
2401.578 1.445 1.285 1.225 1.255 1.315 1.315 1.265 1.255 1.275 1.275
2420.867 1.155 1.0593 1.1112 1.205 1.195 1.172 1.175 1.1382 1.1401 1.1456
2440.157 1.1286 1.092 1.0812 1.0956 1.0883 1.0269 0.9868 1.0327 1.0389 1.027
2459.447 1.0279 1.0354 1.0703 1.0846 1.1606 1.225 1.265 1.295 1.305 1.265
2478.737 1.1661 1.195 1.215 1.205 1.265 1.305 1.255 1.235 1.235 1.225
2498.026 1.195 1.245 1.245 1.215 1.265 1.275 1.335 1.375 1.365 1.345
2517.316 1.335 1.315 1.255 1.1639 1.145 1.235 1.185 1.0021 0.9343 0.9713
2536.606 0.8841 0.8107 0.9037 0.9779 0.957 0.9546 0.9145 0.8541 0.8217 0.8447
2555.896 0.8514 0.7844 0.8115 0.8711 0.7953 0.694 0.7796 0.761 0.7085 0.7595
2575.186 0.7775 0.8315 0.7854 0.6923 0.7576 0.7558 0.7363 0.7972 0.7963 0.823
2594.475 0.8849 0.8758 0.8912 0.8776 0.8087 0.8204 0.8727 0.8496 0.7871 0.7937
2613.765 0.9078 1.0192 0.8871 0.7761 0.9033 1.0025 0.9787 0.9084 0.9306 1.0195
2633.055 1.0707 1.0332 1.0031 0.9599 0.9343 0.9798 1.0912 1.1506 1.1232 1.175
2652.345 1.255 1.305 1.315 1.335 1.325 1.365 1.335 1.167 1.0819 0.953
2671.634 0.886 0.9323 0.9284 0.8719 0.789 0.7869 0.7702 0.7392 0.769 0.7855
2690.924 0.741 0.6911 0.7507 0.8297 0.7522 0.7282 0.7281 0.7485 0.8425 0.8279
2710.214 0.8082 0.8113 0.7926 0.7688 0.8356 0.9278 0.8645 0.8375 0.9418 0.959
2729.504 0.8736 0.9083 0.9528 0.927 0.9814 0.9946 0.9503 0.9372 0.9908 0.9946
2748.794 0.9039 0.8045 0.8427 0.9341 0.896 0.8225 0.8102 0.8287 0.8263 0.7993
2768.083 0.7605 0.7539 0.7036 0.6651 0.6689 0.6748 0.6778 0.6551 0.6399 0.6651
2787.373 0.668 0.5768 0.5229 0.5439 0.5823 0.5029 0.5184 0.561 0.574 0.6247
2806.663 0.601 0.6394 0.6663 0.6789 0.6494 0.715 0.7133 0.7309 0.7877 0.8433
2825.953 0.8641 0.8921 0.8791 0.7972 0.8691 0.9685 1.0361 1.0188 1.0131 1.0241
2845.242 0.994 1.0617 1.215 1.1647 1.1272 1.295 1.295 1.215 1.255 1.215
2864.532 1.136 1.0867 1.1544 1.255 1.205 1.1634 1.285 1.395 1.325 1.315
2883.822 1.305 1.315 1.415 1.385 1.415 1.525 1.635 1.885 2.025 2.105
2903.112 2.255 2.365 2.425 2.505 2.555 2.655 2.825 2.955 3.035 3.165
2922.401 3.365 3.625 3.875 4.135 4.585 4.865 5.055 5.375 5.595 5.735
2941.691 5.715 5.455 5.135 4.875 4.655 4.385 4.115 3.885 3.655 3.475
2960.981 3.325 3.265 3.145 3.035 2.955 2.875 2.955 2.975 2.945 2.895
2980.271 2.825 2.795 2.785 2.805 2.865 2.825 2.855 2.855 2.935 2.935
2999.561 2.915 3.135 3.225 3.305 3.395 3.515 3.705 3.955 4.155 4.395
3018.850 4.815 5.285 5.675 6.045 6.445 6.765 6.965 7.075 7.225 7.325
3038.140 7.395 7.425 7.475 7.665 7.995 8.115 8.065 8.125 8.145 8.135
3057.430 8.005 7.785 7.745 7.775 7.615 7.375 7.305 7.185 7.045 7.065
3076.720 6.955 6.765 6.755 6.835 6.895 6.965 6.835 6.705 6.645 6.515
3096.009 6.375 6.275 6.045 5.625 5.445 5.275 4.785 4.515 4.335 4.165
3115.299 4.115 3.855 3.585 3.375 3.135 2.955 2.765 2.575 2.365 2.185
3134.589 2.015 1.915 1.835 1.715 1.565 1.485 1.375 1.235 1.285 1.185
3153.879 1.1556 1.0885 0.9131 0.9763 1.0051 0.8386 0.7786 0.8401 0.75 0.7196
3173.169 0.6507 0.611 0.6674 0.6905 0.7127 0.7117 0.6598 0.5482 0.4687 0.5354
3192.458 0.562 0.4805 0.4264 0.4421 0.5027 0.5306 0.5811 0.6991 0.6629 0.5759
3211.748 0.6389 0.7382 0.7573 0.7166 0.6518 0.5423 0.4907 0.5205 0.5856 0.5007
3231.038 0.4495 0.4513 0.4586 0.5354 0.464 0.3112 0.399 0.3793 0.1931 0.25856
3250.328 0.26958 0.321 0.38 0.26191 0.27189 0.4447 0.2866 0.1391 0.189 0.26248
3269.617 0.2997 0.3173 0.3609 0.26487 0.19547 0.098 0.1343 0.23633 0.25994 0.2786
3288.907 0.27474 0.25256 0.3585 0.3816 0.2858 0.23365 0.1591 0.177353 0.24621 0.182096
3308.197 0.22137 0.3544 0.3939 0.429 0.3827 0.3585 0.4118 0.393 0.3715 0.3279
3327.487 0.3538 0.4674 0.5382 0.4736 0.3413 0.3171 0.4516 0.5067 0.4433 0.4648
3346.777 0.4355 0.4498 0.6019 0.5836 0.475 0.4711 0.4721 0.5854 0.6413 0.6392
3366.066 0.5985 0.5501 0.5505 0.4975 0.5299 0.5983 0.6455 0.7795 0.7995 0.8714
3385.356 1.1278 1.215 1.1507 1.1067 1.205 1.355 1.515 1.745 1.855 2.025
3404.646 2.305 2.515 2.645 2.865 3.155 3.255 3.495 3.935 4.115 4.105
3423.936 4.325 4.675 4.945 5.175 5.385 5.645 6.005 6.365 6.535 6.905
3443.225 7.435 7.735 8.255 8.975 9.575 10.275 11.065 11.935 12.855 13.645
3462.515 14.405 14.855 14.625 13.975 13.235 12.085 10.495 8.855 7.155 5.695
3481.805 4.735 3.985 3.375 3.085 2.785 2.575 2.425 2.185 1.955 1.725
3501.095 1.675 1.615 1.515 1.525 1.185 0.9097 0.7683 0.6129 0.5945 0.6258
3520.385 0.7106 0.7471 0.7717 0.7316 0.5186 0.3152 0.3716 0.4653 0.5154 0.424
3539.674 0.3505 0.4135 0.3854 0.3164 0.365 0.4622 0.316 0.17168 0.23467 0.3213
3558.964 0.3932 0.352 0.3318 0.387 0.4302 0.4005 0.2874 0.21021 0.21458 0.21419
3578.254 0.3819 0.5367 0.502 0.4424 0.23898 0.2891 0.3833 0.22375 0.20331 0.2996
3597.544 0.3525 0.3495 0.3465 0.26068 0.24926 0.3939 0.3172 0.23765 0.3014 0.3365
3616.833 0.3059 0.23598 0.22858 0.2829 0.3548 0.3867 0.4306 0.20196 0 0.068
3636.123 0.2919 0.3961 0.26475 0.23476 0.22342 0.112 0.0921 0.26839 0.4218 0.3668
3655.413 0.305 0.3755 0.293 0.20372 0.25671 0.1347 0.059 0.20536 0.18595 0.072
3674.703 0.16621 0.1668 0.1486 0.27467 0.26494 0.20436 0.3342 0.3708 0.3593 0.3807
3693.993 0.24569 0.3067 0.3555 0.3245 0.383 0.3536 0.3027 0.26605 0.3112 0.3441
3713.282 0.2799 0.3469 0.3849 0.2962 0.2803 0.26959 0.116 0.1283 0.27037 0.26268
3732.572 0.2897 0.3276 0.2896 0.2875 0.3077 0.27163 0.22549 0.3 0.3362 0.3899
3751.862 0.4117 0.4037 0.4637 0.26889 0.27066 0.44 0.3923 0.3682 0.3196 0.3825
3771.152 0.3148 0.216 0.3908 0.4285 0.3989 0.3274 0.21743 0.22026 0.1991 0.20433
3790.441 0.21881 0.2872 0.26613 0.2769 0.4967 0.4324 0.3725 0.296 0.2455 0.25991
3809.731 0.326 0.3769 0.25525 0.3555 0.399 0.3161 0.289 0.20184 0.2318 0.4688
3829.021 0.4071 0.25094 0.26973 0.4112 0.3558 0.22026 0.23217 0.2756 0.1505 0.05
3848.311 0.21715 0.3751 0.4921 0.541 0.4283 0.3519 0.3623 0.22829 0.184737 0.24181
3867.601 0.3679 0.3644 0.3042 0.322 0.26199 0.20903 0.1646 0.18673 0.26719 0.3415
3886.890 0.441 0.4443 0.4585 0.4176 0.22397 0.24428 0.3291 0.364 0.4913 0.5137
3906.180 0.2957 0.21414 0.25101 0.16731 0.23519 0.3478 0.3471 0.22963 0.16637 0.1228
3925.470 0.17047 0.3637 0.25808 0.3976 0.4806 0.4062 0.5499 0.5216 0.4346 0.3665
3944.760 0.4423 0.71 0.6742 0.4054 0.3594 0.3812 0.3587 0.22565 0.3311 0.5338
3964.049 0.6081 0.6613 0.6002 0.6643 0.5783 0.23223 0.21203 0.4074 0.5558 0.5013
3983.339 0.3082 0.3555 0.3889 0.4476 0.5884 0.5687 0.5526 0.4663 0.4256 0.4861
##END=
