##TITLE=Ethyl 2,5-dichlorobenzoate
##JCAMP-DX=4.24
##DATA TYPE=INFRARED SPECTRUM
##ORIGIN=EPA-IR VAPOR PHASE LIBRARY
##OWNER=SRD/NIST
Collection (C) 2018 copyright by the U.S. Secretary of Commerce
on behalf of the United States of America. All rights reserved.
##CAS REGISTRY NO=35112-27-7
##MOLFORM=C 9 H 8 Cl 2 O 2
##$NIST SOURCE=MSDC-IR
##STATE=gas
##XUNITS=1/CM
##YUNITS=ABSORBANCE
##XFACTOR=1.
##YFACTOR=0.001
##DELTAX=1.929
##FIRSTX=549.8
##LASTX=4000.8
##FIRSTY=14.51
##MAXX=4000.75
##MINX=549.766
##MAXY=0.26118
##MINY=0
##NPOINTS=1790
##XYDATA=(X++(Y..Y))
549.766 14.51 13.66 13.22 12.55 11.98 11.29 10.45 9.9 9.53 8.97
569.056 8.6 8.67 8.9 9.19 9.8 10.64 11.39 11.99 12.55 13.35
588.346 14.29 15.34 16.09 16.35 16.18 15.35 14.19 12.84 11.05 9.27
607.636 7.89 6.7 5.62 4.65 3.93 3.59 3.19 2.75 2.63 2.52
626.926 2.1236 1.6504 1.45821 1.5105 1.6053 1.46191 1.257 1.3277 1.3239 1.3199
646.216 1.50342 1.7088 1.8798 1.9923 2.5 3.46 4.48 5.46 6.21 6.63
665.506 6.75 6.2 5.19 4.32 3.51 3.16 3.02 2.79 2.68 2.64
684.796 2.74 2.87 2.88 2.93 2.97 2.89 2.91 3 2.89 2.78
704.086 2.85 2.7 2.47 2.3073 2.2319 2.1967 2.2342 2.3265 2.2621 2.1669
723.376 2.1236 2.2804 2.3447 2.44 2.67 2.82 3.06 3.34 3.74 4.45
742.666 5.35 6.47 7.99 9.83 11.56 12.98 14.14 14.84 15.12 15.02
761.956 14.57 14 13.53 13.22 13.01 12.94 13.01 13.18 13.31 13.15
781.246 12.75 12.3 11.87 11.34 10.69 10.32 10.18 9.94 9.9 10.35
800.536 11.27 12.79 15.43 19.07 23.26 27.87 32.63 37.87 43.73 46.75
819.826 42.21 34.22 28.47 23.74 18.83 14.35 11 8.96 7.79 7.17
839.116 6.89 6.81 6.92 7.23 7.66 8.1 8.67 9.29 9.81 10.35
858.406 10.97 11.34 11.44 11.43 11.14 10.84 10.72 10.69 10.76 11.23
877.696 12.25 13.81 15.77 18.15 20.68 22.92 24.72 25.77 25.92 25.03
896.986 23.15 20.49 17.66 15.01 12.61 10.49 8.65 7.21 6.21 5.48
916.276 4.88 4.44 4.16 3.86 3.59 3.48 3.37 3.28 3.23 3.14
935.566 3.14 3.2 3.18 3.21 3.31 3.39 3.45 3.5 3.47 3.43
954.856 3.54 3.65 3.73 3.8 3.78 3.8 3.91 3.96 4.11 4.31
974.146 4.45 4.66 4.91 5.19 5.53 5.96 6.6 7.28 7.93 8.87
993.436 10.1 11.48 13.17 15.4 18.01 20.94 24.28 27.73 31.16 34.28
1012.726 36.73 38.39 39 38.69 37.71 36.1 34.33 32.85 32.08 32.35
1032.016 33.85 36.82 41.18 46.79 53.09 59.37 64.82 68.33 69.7 69.17
1051.306 66.34 61.32 54.95 48.17 42 37.14 33.64 31.54 30.42 29.95
1070.596 29.98 30.25 30.73 31.22 31.74 32.44 33.44 34.81 36.83 39.89
1089.886 44.36 50.65 58.82 68.37 78.05 86.4 92.69 96.99 99.15 99.04
1109.176 97.02 94.61 93.81 94.9 97.15 99.66 101.74 103.12 103.73 103.39
1128.467 102.34 100.88 99.19 97.59 95.79 93.04 89.1 84 77.64 70.16
1147.757 61.82 53.25 45.34 38.68 33.4 29.58 26.88 25.02 23.84 22.97
1167.047 22.43 22.24 22.25 22.42 22.62 22.86 23.1 23.28 23.48 23.89
1186.337 24.38 24.95 25.53 26.33 27.51 28.83 30.2 31.61 33.25 35.39
1205.627 37.95 40.85 44.37 48.62 53.93 60.36 68.33 78.35 90.41 104.58
1224.917 120.71 137.92 155.06 170.16 181.12 186.09 183.95 174.94 160.21 141.69
1244.207 122.3 104.87 91.64 83.57 79.7 78.74 80.21 83.52 88.47 95.47
1263.497 105.46 119.74 138.77 161.86 187.52 213.44 236.64 253.61 261.18 257.79
1282.787 243.57 220.01 189.88 157.38 126.98 101.96 83.27 69.78 60.06 52.83
1302.077 47.04 42.17 38 34.29 30.85 27.78 25.12 22.78 20.68 18.89
1321.367 17.33 15.98 14.83 13.82 12.99 12.25 11.64 11.15 10.65 10.22
1340.657 9.93 9.74 9.62 9.64 9.83 10.13 10.63 11.4 12.42 13.68
1359.947 15.33 17.33 19.52 21.63 23.55 25.51 27.56 29.87 32.55 35.84
1379.237 39.91 44.37 48.59 51.96 54.31 55.43 55.15 53.65 51.11 47.94
1398.527 44.51 40.88 37.05 32.92 28.81 25.1 22.09 19.88 18.36 17.3
1417.817 16.57 16.05 15.85 15.81 15.98 16.3 16.68 17.12 17.69 18.37
1437.107 19.21 20.19 21.48 23.13 25.16 27.86 31.34 35.58 40.79 46.63
1456.397 53.15 59.84 65.39 69.27 70.81 69.86 66.54 61.19 54.16 46.49
1475.687 39.42 33.15 27.96 23.72 20.27 17.43 15.05 13.06 11.49 10.17
1494.977 8.99 8 7.17 6.51 5.99 5.51 5.09 4.71 4.52 4.37
1514.267 4.16 4.04 3.95 3.92 3.9 3.86 3.88 3.94 4.08 4.17
1533.557 4.27 4.54 4.71 4.93 5.33 5.81 6.43 7.2 8.09 9.13
1552.847 10.12 11.03 11.58 11.74 11.6 10.99 10.03 8.91 7.77 6.79
1572.137 6.2 6 5.97 6.07 6.22 6.42 6.66 6.74 6.71 6.69
1591.427 6.59 6.39 6.12 5.89 5.69 5.4 5.15 4.96 4.8 4.69
1610.717 4.57 4.52 4.5 4.5 4.6 4.72 4.94 5.22 5.48 5.78
1630.007 6.11 6.33 6.37 6.29 6.11 5.85 5.57 5.23 4.88 4.64
1649.297 4.52 4.46 4.41 4.41 4.39 4.37 4.45 4.6 4.74 4.88
1668.587 5.07 5.26 5.44 5.62 5.81 6.05 6.32 6.63 6.97 7.38
1687.877 7.85 8.39 9.02 9.72 10.51 11.37 12.35 13.51 14.73 16.23
1707.167 17.97 19.91 22.27 25.01 28.18 31.8 36.02 40.7 46.04 52.29
1726.457 59.4 67.43 76.38 85.71 95.63 104.98 112.84 119.64 125.18 129.82
1745.747 133.53 136.58 138.99 140.44 139.92 136.97 131.18 122.63 111.12 97.94
1765.037 85.25 73.79 63.56 54.78 46.89 40.21 34.59 29.85 25.87 22.53
1784.327 19.78 17.47 15.57 13.93 12.46 11.17 10.13 9.21 8.37 7.66
1803.617 7 6.4 5.95 5.59 5.26 4.93 4.68 4.47 4.27 4.11
1822.907 4.01 3.91 3.82 3.74 3.72 3.63 3.54 3.55 3.5 3.43
1842.197 3.39 3.34 3.24 3.15 3.09 3.05 3.05 2.94 2.84 2.81
1861.487 2.8 2.8 2.78 2.75 2.75 2.79 2.8 2.83 2.97 3.12
1880.777 3.25 3.41 3.6 3.89 4.13 4.36 4.54 4.55 4.42 4.17
1900.067 3.92 3.67 3.34 3.05 2.79 2.63 2.48 2.3444 2.2563 2.1573
1919.357 2.0867 2.0374 1.9523 1.8652 1.8568 1.8747 1.8361 1.7242 1.708 1.7507
1938.647 1.7793 1.7192 1.6983 1.7185 1.659 1.6195 1.5951 1.6344 1.6841 1.6683
1957.937 1.6304 1.6466 1.6694 1.6312 1.6629 1.7149 1.7561 1.8061 1.8082 1.8313
1977.227 1.841 1.8872 1.9121 1.8648 1.9112 1.926 1.9247 1.9599 1.946 1.9057
1996.517 1.8652 1.8073 1.7736 1.7816 1.7101 1.6651 1.6387 1.5876 1.5813 1.5916
2015.807 1.5872 1.6013 1.586 1.5362 1.50634 1.46053 1.42891 1.43486 1.44364 1.48662
2035.097 1.48664 1.4628 1.45148 1.4425 1.45199 1.42091 1.3901 1.41232 1.49093 1.5222
2054.387 1.49285 1.48331 1.4589 1.44952 1.48031 1.526 1.5447 1.5571 1.50568 1.43224
2073.677 1.46589 1.52 1.5314 1.5807 1.6488 1.6363 1.6597 1.7068 1.723 1.7677
2092.967 1.8002 1.8244 1.8691 1.8883 1.8789 1.8614 1.8147 1.7961 1.789 1.7338
2112.257 1.7208 1.7081 1.6897 1.704 1.677 1.6438 1.6568 1.7174 1.7177 1.654
2131.547 1.6553 1.6481 1.6561 1.6837 1.6654 1.6027 1.5569 1.5415 1.5452 1.5351
2150.837 1.49006 1.4879 1.47796 1.43963 1.4331 1.41301 1.393 1.40615 1.3671 1.3718
2170.127 1.3594 1.231 1.169 1.18 1.16 1.164 1.175 1.197 1.158 1.109
2189.417 1.155 1.164 1.11 1.036 1.036 1.019 0.981 1.037 1.074 1.055
2208.707 1.067 1.109 1.129 1.128 1.131 1.073 1.065 1.106 1.082 1.11
2227.997 1.152 1.162 1.184 1.146 1.121 1.192 1.221 1.177 1.172 1.197
2247.287 1.211 1.181 1.192 1.271 1.272 1.208 1.237 1.3107 1.308 1.3353
2266.577 1.3432 1.3279 1.3376 1.3924 1.47241 1.5263 1.5856 1.5668 1.50755 1.4895
2285.868 1.47587 1.47642 1.44185 1.3551 1.31 1.27 1.241 1.229 1.192 1.191
2305.158 1.228 1.223 1.202 1.192 1.153 1.171 1.212 1.193 1.115 1.118
2324.448 1.226 1.235 1.198 1.26 1.283 1.26 1.262 1.266 1.3136 1.3656
2343.738 1.3448 1.3355 1.40735 1.3992 1.3716 1.3877 1.3937 1.382 1.3718 1.42699
2363.028 1.41536 1.3722 1.3373 1.3281 1.3868 1.3467 1.3368 1.3717 1.41797 1.4421
2382.318 1.3883 1.3451 1.3502 1.358 1.343 1.3113 1.283 1.3403 1.3988 1.3857
2401.608 1.362 1.3481 1.337 1.3178 1.31 1.296 1.302 1.323 1.3399 1.291
2420.898 1.228 1.211 1.153 1.147 1.141 1.096 1.085 1.073 1.115 1.174
2440.188 1.179 1.168 1.13 1.064 1.031 1.04 1.003 0.977 0.989 0.961
2459.478 0.994 1.015 1.021 1.044 1.014 1.064 1.052 0.99 1.025 1.078
2478.768 1.091 1.08 1.043 1.023 1.02 0.98 1.051 1.098 1.084 1.086
2498.058 1.096 1.168 1.151 1.13 1.167 1.216 1.234 1.156 1.139 1.116
2517.348 1.07 1.075 1.068 1.073 1.095 1.061 1.027 1.057 1.09 1.039
2536.638 0.966 0.943 0.946 0.939 0.874 0.866 0.882 0.831 0.829 0.841
2555.928 0.826 0.773 0.731 0.714 0.713 0.736 0.732 0.795 0.799 0.772
2575.218 0.807 0.82 0.757 0.694 0.758 0.814 0.806 0.827 0.843 0.838
2594.508 0.862 0.838 0.819 0.833 0.802 0.821 0.859 0.915 0.87 0.796
2613.798 0.835 0.869 0.899 0.896 0.873 0.89 0.904 0.895 0.879 0.877
2633.088 0.883 0.856 0.849 0.89 0.892 0.797 0.792 0.788 0.773 0.796
2652.378 0.76 0.738 0.754 0.849 0.894 0.843 0.816 0.803 0.825 0.825
2671.668 0.857 0.858 0.777 0.789 0.828 0.782 0.79 0.865 0.869 0.834
2690.958 0.838 0.845 0.832 0.838 0.817 0.814 0.765 0.689 0.722 0.758
2710.248 0.703 0.689 0.722 0.758 0.776 0.784 0.809 0.841 0.871 0.925
2729.538 0.874 0.811 0.819 0.812 0.911 0.984 0.957 0.92 0.899 0.88
2748.828 0.909 0.921 0.92 0.888 0.865 0.939 0.978 0.994 1.021 1.009
2768.118 1.12 1.173 1.131 1.198 1.222 1.246 1.251 1.264 1.3619 1.3385
2787.408 1.3355 1.42336 1.46097 1.48002 1.44314 1.3554 1.41895 1.5663 1.6189 1.5556
2806.698 1.5291 1.6141 1.5823 1.6437 1.8068 1.8298 1.818 1.818 1.8219 1.8459
2825.988 1.9696 2.0524 1.9728 1.9381 1.9191 1.8781 1.9548 2.0259 2.1143 2.1391
2845.278 2.155 2.2824 2.304 2.3476 2.52 2.64 2.72 2.78 2.91 3.15
2864.568 3.26 3.36 3.48 3.68 4.04 4.4 4.78 5.16 5.48 5.94
2883.858 6.32 6.53 6.72 6.88 6.87 6.77 6.73 6.81 7.03 7.33
2903.148 7.53 7.79 8.2 8.56 8.83 8.98 9.1 9.19 9.24 9.16
2922.438 8.95 8.86 9.04 9.49 10 10.78 11.83 13.06 14.45 15.84
2941.728 17.09 18 18.37 18.2 17.64 16.76 15.75 14.87 14.28 14.09
2961.018 14.26 14.81 15.66 16.64 17.72 19.02 20.51 22.47 24.94 27.9
2980.308 31.37 34.6 37.26 38.78 38.9 37.72 35.4 32.25 28.67 25.47
2999.598 22.88 20.86 19.29 17.88 16.48 15.1 13.97 12.89 11.7 10.54
3018.888 9.49 8.53 7.53 6.75 6.15 5.52 4.96 4.51 4.18 3.92
3038.178 3.67 3.33 3.02 2.81 2.68 2.55 2.3967 2.301 2.2082 2.1706
3057.468 2.1434 2.1916 2.2508 2.3013 2.46 2.67 2.91 3.28 3.66 3.91
3076.758 4.02 3.94 3.81 3.71 3.59 3.22 2.77 2.53 2.3261 2.1565
3096.048 2.0497 1.9054 1.7894 1.7395 1.7541 1.6233 1.4141 1.3561 1.3573 1.3709
3115.338 1.3365 1.25 1.227 1.27 1.143 1.058 1.147 1.284 1.221 0.976
3134.628 0.902 0.895 0.948 0.971 0.825 0.891 0.981 0.835 0.941 0.987
3153.918 0.913 0.931 0.898 0.828 0.833 0.879 0.811 0.783 0.731 0.746
3173.208 0.797 0.655 0.589 0.668 0.526 0.4 0.474 0.39 0.427 0.581
3192.498 0.506 0.438 0.412 0.422 0.413 0.3 0.3 0.37 0.36 0.3
3211.788 0.27 0.33 0.422 0.39 0.31 0.37 0.39 0.38 0.37 0.26
3231.078 0.17 0.2 0.3 0.32 0.27 0.24 0.22 0.23 0.32 0.21
3250.368 0.17 0.23 0.18 0.07 0.14 0.24 0.21 0.16 0.1 0.12
3269.658 0.14 0.16 0.14 0.1 0.09 0.14 0.24 0.2 0.05 0.03
3288.948 0.1 0.11 0.13 0.18 0.19 0.17 0.08 0.19 0.38 0.27
3308.238 0.05 0.05 0.17 0.31 0.38 0.23 0.12 0.14 0.15 0.07
3327.528 0.07 0.13 0.13 0.15 0.18 0.09 0.13 0.27 0.29 0.27
3346.818 0.09 0 0.27 0.31 0.23 0.34 0.17 0.06 0.15 0.11
3366.108 0.15 0.21 0.25 0.33 0.31 0.18 0.17 0.36 0.33 0.3
3385.398 0.3 0.26 0.39 0.416 0.34 0.27 0.23 0.27 0.37 0.32
3404.688 0.24 0.3 0.3 0.31 0.426 0.453 0.4 0.497 0.543 0.53
3423.978 0.449 0.445 0.68 0.675 0.467 0.533 0.661 0.641 0.637 0.619
3443.269 0.655 0.804 0.948 0.942 0.954 0.982 0.999 1.068 1.043 1.105
3462.559 1.176 1.286 1.287 1.134 1.03 0.975 1.125 1.306 1.301 1.223
3481.849 1.202 1.234 1.27 1.307 1.41028 1.3633 1.3321 1.4026 1.3319 1.177
3501.139 1.071 0.982 0.796 0.803 0.99 0.856 0.672 0.686 0.606 0.546
3520.429 0.475 0.505 0.59 0.415 0.28 0.28 0.32 0.28 0.19 0.19
3539.719 0.19 0.31 0.31 0.25 0.24 0.24 0.32 0.36 0.28 0.19
3559.009 0.29 0.39 0.4 0.32 0.28 0.26 0.32 0.4 0.417 0.36
3578.299 0.36 0.523 0.451 0.37 0.45 0.33 0.34 0.38 0.22 0.17
3597.589 0.31 0.4 0.43 0.47 0.38 0.22 0.16 0.2 0.32 0.33
3616.879 0.17 0.17 0.23 0.2 0.21 0.18 0.12 0.18 0.34 0.425
3636.169 0.41 0.471 0.39 0.25 0.19 0.24 0.27 0.23 0.22 0.2
3655.459 0.26 0.24 0.26 0.28 0.34 0.46 0.446 0.37 0.26 0.33
3674.749 0.39 0.37 0.43 0.34 0.431 0.514 0.33 0.33 0.472 0.559
3694.039 0.477 0.38 0.38 0.41 0.486 0.459 0.31 0.15 0.17 0.424
3713.329 0.464 0.31 0.28 0.28 0.39 0.42 0.411 0.5 0.49 0.492
3732.619 0.35 0.26 0.39 0.429 0.446 0.421 0.37 0.39 0.36 0.38
3751.909 0.537 0.518 0.511 0.573 0.641 0.605 0.529 0.58 0.475 0.471
3771.199 0.609 0.583 0.451 0.448 0.52 0.418 0.411 0.487 0.544 0.416
3790.489 0.431 0.687 0.661 0.598 0.532 0.533 0.513 0.34 0.35 0.451
3809.779 0.521 0.624 0.524 0.35 0.459 0.701 0.692 0.566 0.492 0.4
3829.069 0.36 0.39 0.463 0.43 0.41 0.446 0.448 0.466 0.463 0.49
3848.359 0.5 0.46 0.45 0.538 0.523 0.504 0.553 0.579 0.559 0.502
3867.649 0.422 0.4 0.516 0.571 0.575 0.462 0.508 0.649 0.524 0.54
3886.939 0.57 0.478 0.453 0.475 0.471 0.32 0.35 0.511 0.506 0.52
3906.229 0.553 0.482 0.489 0.487 0.491 0.552 0.506 0.511 0.487 0.503
3925.519 0.561 0.451 0.4 0.413 0.33 0.36 0.439 0.464 0.38 0.37
3944.809 0.445 0.454 0.492 0.565 0.612 0.617 0.536 0.568 0.761 0.762
3964.099 0.718 0.761 0.736 0.805 0.718 0.59 0.563 0.461 0.595 0.678
3983.389 0.627 0.602 0.553 0.627 0.662 0.517 0.469 0.573 0.684 0.644
##END=
