##TITLE=trans-10-Dodecen-1-ylacetate
##JCAMP-DX=4.24
##DATA TYPE=INFRARED SPECTRUM
##ORIGIN=EPA-IR VAPOR PHASE LIBRARY
##OWNER=SRD/NIST
Collection (C) 2018 copyright by the U.S. Secretary of Commerce
on behalf of the United States of America. All rights reserved.
##CAS REGISTRY NO=35148-19-7
##MOLFORM=C 14 H 26 O 2
##$NIST SOURCE=MSDC-IR
##STATE=gas
##XUNITS=1/CM
##YUNITS=ABSORBANCE
##XFACTOR=1.
##YFACTOR=0.001
##DELTAX=1.92898
##FIRSTX=549.8
##LASTX=4000.7
##FIRSTY=0.621
##MAXX=4000.7
##MINX=549.759
##MAXY=0.171033
##MINY=0
##NPOINTS=1790
##XYDATA=(X++(Y..Y))
549.759 0.621 0.614 0.497 0.283 0.741 1.03077 0.498 0.143 0.225 0.161
569.049 0.488 0.9893 1.1925 1.5193 1.1133 1.1619 1.5867 0.96435 0.569 0.9182
588.339 1.155 0.9004 1.2537 1.7413 1.6645 1.6942 1.973 2.843 3.333 3.553
607.628 3.843 3.843 3.553 3.063 2.623 2.843 2.993 3.033 3.503 3.643
626.918 3.793 3.673 3.373 4.023 4.613 4.103 3.703 3.363 2.823 3.193
646.208 3.313 2.463 2.213 2.293 2.203 1.8006 1.587 1.9152 1.5039 0.699
665.498 0.747 1.2114 1.575 1.2679 0.817 0.8923 0.8774 1.1571 1.2924 1.3639
684.787 1.4665 1.2598 1.0953 1.3883 1.7047 1.5436 1.5882 1.574 1.7271 2.123
704.077 2.333 2.253 2.203 2.563 2.633 2.403 2.663 2.673 2.693 2.993
723.367 3.333 3.603 2.973 2.443 2.443 2.303 2.443 2.953 3.193 2.943
742.657 2.463 2.363 2.273 2.183 2.683 2.363 2.073 2.553 2.783 2.873
761.947 2.863 2.393 1.8652 1.8047 2.143 2.583 2.423 2.233 2.703 2.663
781.236 2.113 2.013 2.273 2.153 2.103 2.293 2.383 2.373 2.223 2.183
800.526 1.9106 2.133 3.073 3.233 2.663 2.453 2.673 2.833 2.773 3.343
819.816 2.413 0.478 0 1.1115 3.103 3.553 3.203 3.063 3.063 3.253
839.106 3.263 3.233 3.103 3.253 3.383 3.153 3.433 3.853 3.713 3.563
858.395 3.963 4.293 4.193 4.233 4.273 4.433 4.913 4.763 3.913 4.003
877.685 4.353 3.743 3.783 4.263 4.383 4.423 4.233 4.353 4.603 5.053
896.975 5.093 4.633 4.753 4.943 5.133 5.293 5.503 5.733 5.733 5.893
916.265 6.113 6.113 5.923 6.033 6.503 7.213 7.673 7.843 8.433 8.943
935.555 8.803 8.703 8.973 9.363 10.253 11.453 12.093 12.343 13.133 14.503
954.844 16.043 17.423 19.203 20.713 21.663 22.193 22.003 20.983 19.443 17.573
974.134 15.773 15.023 13.993 12.643 11.903 11.423 11.063 11.053 11.213 11.113
993.424 11.413 12.103 12.553 13.543 13.963 14.123 14.943 15.733 16.683 17.773
1012.714 19.023 20.003 21.823 23.963 24.953 26.003 26.963 28.283 29.793 30.973
1032.003 32.343 33.043 33.353 33.853 34.183 33.543 32.483 32.313 32.143 31.203
1051.293 30.273 30.173 29.633 28.263 27.193 26.043 25.043 25.093 25.333 24.573
1070.583 23.763 23.733 23.003 21.563 20.963 20.143 19.173 17.823 16.733 17.593
1089.873 16.813 15.013 14.023 13.163 12.563 10.923 9.583 9.893 10.173 8.963
1109.163 7.363 6.753 7.293 7.623 7.253 7.453 6.293 5.123 5.543 5.293
1128.452 5.423 5.423 4.843 4.763 4.403 3.993 4.293 4.083 3.553 3.693
1147.742 3.683 4.273 5.363 5.483 5.413 5.453 4.513 4.133 4.943 5.263
1167.032 4.933 5.463 6.223 6.273 7.123 7.553 7.413 7.943 8.323 9.173
1186.322 10.443 11.483 12.173 12.743 14.483 17.003 19.263 21.913 25.533 29.343
1205.611 32.913 37.863 44.893 52.953 62.593 72.743 83.713 97.603 112.233 126.473
1224.901 142.553 157.633 166.943 170.933 171.033 166.503 159.043 147.903 133.433 118.793
1244.191 103.583 89.923 79.083 70.193 62.813 56.163 50.103 44.773 41.503 39.343
1263.481 36.453 33.543 30.363 27.573 25.103 23.343 21.933 20.753 19.243 17.773
1282.771 16.893 15.853 15.143 14.673 14.243 13.273 12.353 12.103 11.903 11.633
1302.060 11.513 11.203 10.703 10.133 9.773 9.483 9.033 8.653 8.373 8.103
1321.350 7.873 7.703 7.463 7.363 7.393 7.363 7.523 7.723 7.893 8.243
1340.640 8.633 9.173 9.873 10.923 12.103 13.173 14.633 16.413 18.443 21.093
1359.930 23.953 26.983 30.323 32.913 34.413 34.453 32.883 30.423 27.693 25.243
1379.219 23.393 22.133 21.383 20.933 20.513 19.973 19.203 18.393 16.973 15.343
1398.509 13.993 12.643 11.443 10.353 9.553 8.983 8.543 8.233 7.983 7.973
1417.799 8.023 8.023 8.243 8.483 8.673 9.013 9.523 10.133 10.823 11.573
1437.089 12.513 13.393 14.283 15.213 15.813 16.373 17.093 17.673 18.133 18.523
1456.378 18.913 19.223 19.323 19.203 18.593 17.663 16.783 15.893 14.733 13.443
1475.668 12.383 11.333 10.053 9.033 8.503 8.033 7.513 6.863 6.393 6.003
1494.958 5.843 5.763 5.463 5.243 5.183 5.133 5.013 4.743 4.493 4.413
1514.248 4.373 4.263 4.123 4.193 4.253 4.003 3.803 3.823 3.773 3.803
1533.538 3.833 3.743 3.713 3.593 3.573 3.343 3.063 3.233 3.393 3.453
1552.827 3.373 3.263 3.153 2.863 2.953 3.013 3.003 3.093 2.973 3.033
1572.117 2.993 2.663 2.653 2.713 2.613 2.673 2.773 2.773 2.593 2.373
1591.407 2.433 2.433 2.313 2.303 2.393 2.483 2.293 2.333 2.373 2.303
1610.697 2.473 2.493 2.363 2.193 2.183 2.333 2.353 2.363 2.383 2.183
1629.986 2.073 2.143 2.193 2.273 2.363 2.553 2.533 2.493 2.573 2.733
1649.276 2.843 2.683 2.523 2.493 2.673 2.993 3.133 3.133 3.133 3.073
1668.566 3.153 3.353 3.343 3.273 3.383 3.523 3.563 3.693 3.923 3.933
1687.856 4.033 4.243 4.453 4.883 5.343 5.523 5.863 6.233 6.503 7.123
1707.146 7.663 8.233 8.863 9.443 10.553 11.663 12.483 13.613 14.813 16.143
1726.435 17.663 19.383 21.583 23.993 26.763 30.083 33.703 37.803 42.213 47.293
1745.725 53.183 59.733 66.983 75.363 84.393 93.533 101.953 107.093 107.493 103.293
1765.015 95.293 85.173 75.173 66.503 58.373 50.993 44.663 39.343 34.433 30.073
1784.305 26.343 23.053 20.363 18.083 16.003 14.173 12.543 11.243 10.213 9.133
1803.594 8.263 7.513 6.883 6.343 5.843 5.483 5.123 4.843 4.603 4.363
1822.884 4.123 3.863 3.613 3.513 3.383 3.243 3.213 3.143 3.063 2.953
1842.174 2.903 2.803 2.743 2.673 2.583 2.493 2.403 2.383 2.493 2.593
1861.464 2.463 2.453 2.493 2.433 2.393 2.333 2.273 2.133 2.103 2.153
1880.754 2.123 2.103 1.983 2.033 2.083 1.953 1.963 1.993 2.083 2.073
1900.043 2.033 1.92 1.8114 1.943 1.943 1.8966 2.013 1.943 1.983 2.063
1919.333 1.8706 1.8371 1.8943 1.9091 1.9077 1.943 1.9062 1.8774 1.8841 1.7831
1938.623 1.7393 1.7121 1.6953 1.8009 1.7957 1.8042 1.7385 1.7214 1.8834 1.7695
1957.913 1.6103 1.6285 1.7101 1.7643 1.7133 1.7738 1.8341 1.7636 1.7507 1.7899
1977.202 1.8514 1.742 1.6243 1.5493 1.6189 1.8692 2.003 1.9041 1.9028 2.003
1996.492 1.8975 1.8577 2.043 2.133 2.083 2.043 2.053 1.963 1.8997 1.9005
2015.782 2.043 2.223 2.093 1.993 1.963 2.103 2.143 1.983 1.993 1.973
2035.072 2.033 2.193 2.183 2.133 2.113 1.993 2.013 2.143 2.213 2.273
2054.362 2.233 2.173 2.083 1.953 1.8796 1.8994 1.9035 1.983 2.103 2.063
2073.651 2.023 2.103 2.003 1.8643 1.963 1.983 2.023 2.133 2.143 2.003
2092.941 1.861 1.8406 1.8516 2.003 2.033 1.883 1.933 1.963 1.8336 1.914
2112.231 1.983 1.8355 1.7776 1.8938 1.8043 1.5969 1.6242 1.7172 1.7279 1.6849
2131.521 1.6845 1.6827 1.5675 1.5501 1.656 1.7073 1.8415 1.8587 1.7604 1.8687
2150.810 1.8508 1.8573 1.8787 1.665 1.6678 1.7199 1.6806 1.7019 1.646 1.5954
2170.100 1.7277 1.7534 1.7422 1.6166 1.4666 1.5452 1.5804 1.6474 1.5905 1.6555
2189.390 1.6587 1.5133 1.5686 1.5405 1.4427 1.4498 1.441 1.4229 1.3702 1.3479
2208.680 1.4898 1.502 1.4 1.3479 1.3347 1.3602 1.4572 1.3564 1.3063 1.3405
2227.970 1.4124 1.533 1.4045 1.248 1.3139 1.4725 1.522 1.6605 1.6498 1.495
2247.259 1.4968 1.3814 1.2093 1.2148 1.2731 1.3815 1.6013 1.6633 1.5557 1.45
2266.549 1.5007 1.615 1.5101 1.336 1.3725 1.4762 1.4078 1.2872 1.5143 1.5804
2285.839 1.4751 1.5569 1.5852 1.6624 1.4991 1.4549 1.7046 1.6274 1.6469 1.8297
2305.129 1.7945 1.564 1.3096 1.3837 1.6437 1.6967 1.4052 1.2661 1.2386 1.4379
2324.418 1.5881 1.5155 1.5388 1.5418 1.482 1.4987 1.5399 1.5668 1.7562 1.6615
2343.708 1.3938 1.3223 1.3363 1.4059 1.5054 1.4854 1.6347 1.6379 1.4563 1.4313
2362.998 1.5775 1.6931 1.3035 1.252 1.5336 1.6023 1.5505 1.5744 1.5347 1.3783
2382.288 1.4725 1.4851 1.2083 1.2841 1.5501 1.4835 1.3755 1.2325 1.1834 1.3838
2401.578 1.4539 1.6122 1.7468 1.7965 1.6402 1.5071 1.5529 1.4825 1.4998 1.6898
2420.867 1.8116 1.6626 1.7126 1.7341 1.6225 1.6836 1.4355 1.3947 1.7678 1.8883
2440.157 1.943 1.8185 1.8898 1.8575 1.7177 1.8177 1.7366 1.6211 1.686 1.7882
2459.447 1.7141 1.5452 1.6578 1.983 1.8902 1.7535 1.6277 1.37 1.6179 1.7521
2478.737 1.5665 1.5462 1.3998 1.4771 1.4419 1.253 1.2642 1.5337 1.6546 1.3433
2498.026 1.356 1.4153 1.5509 1.6848 1.455 1.3479 1.4869 1.6164 1.5646 1.4726
2517.316 1.5612 1.6787 1.5377 1.4629 1.5763 1.6055 1.6997 1.7127 1.7391 1.6241
2536.606 1.5202 1.6121 1.8509 1.973 1.7632 1.8063 1.8373 1.7882 1.7018 1.613
2555.896 1.5509 1.4308 1.4581 1.635 1.7386 1.767 1.6866 1.568 1.6992 1.7941
2575.186 1.7298 1.7108 1.7725 1.6126 1.5242 1.6995 1.943 1.953 1.8161 1.8374
2594.475 1.8452 2.053 2.093 1.7775 1.7827 1.8756 1.973 2.053 2.053 2.003
2613.765 2.063 1.943 1.6084 1.7675 2.083 2.203 1.973 2.043 2.333 2.213
2633.055 2.093 2.063 2.083 2.393 2.293 2.023 2.093 2.153 2.303 2.343
2652.345 2.233 2.213 2.193 2.303 2.493 2.493 2.563 2.583 2.603 2.523
2671.634 2.253 2.553 2.913 2.613 2.323 2.523 2.623 2.943 3.223 2.853
2690.924 2.703 2.863 3.043 2.743 2.843 3.003 2.783 2.983 2.913 2.733
2710.214 2.723 2.553 2.493 2.463 2.533 2.703 2.963 3.033 2.663 2.833
2729.504 3.143 3.323 3.393 3.393 3.603 3.603 3.613 3.663 3.713 3.783
2748.794 3.723 3.603 3.393 3.403 3.463 3.243 3.033 3.163 3.113 3.083
2768.083 3.263 3.413 3.903 4.013 4.033 4.163 3.993 4.073 4.403 4.443
2787.373 4.143 4.203 4.643 4.633 4.473 4.793 5.193 5.393 5.303 5.633
2806.663 5.973 5.763 6.173 6.843 6.883 7.173 7.543 7.643 8.273 8.663
2825.953 8.963 9.413 9.973 10.993 12.263 12.923 13.703 15.193 16.883 19.223
2845.242 22.033 25.283 29.263 33.733 38.803 44.513 50.213 55.133 59.043 62.013
2864.532 62.993 61.883 59.153 55.313 51.233 47.123 43.033 39.633 37.093 34.833
2883.822 33.223 32.803 33.003 33.673 34.943 36.363 38.263 40.433 42.893 45.873
2903.112 49.003 52.513 56.653 61.333 66.013 71.133 77.273 84.003 92.143 101.833
2922.401 112.983 125.853 138.903 150.663 159.793 164.993 166.363 163.183 155.803 146.063
2941.691 134.943 123.293 111.793 100.573 90.153 81.243 74.023 67.753 62.403 58.103
2960.981 54.503 51.673 48.933 46.263 43.783 41.753 39.433 36.873 34.813 33.023
2980.271 31.233 29.143 27.383 25.883 24.413 23.263 22.093 20.703 20.013 19.273
2999.561 18.283 17.743 17.093 16.683 16.603 16.293 16.013 15.513 15.243 15.383
3018.850 15.203 14.833 14.363 14.083 14.013 13.643 12.923 12.373 11.773 11.353
3038.140 10.393 9.403 9.403 9.223 8.553 7.733 7.423 7.263 7.033 7.033
3057.430 6.703 6.423 6.133 5.883 6.033 5.853 5.513 5.183 4.833 4.463
3076.720 4.403 4.713 4.653 4.553 4.723 4.823 4.833 4.423 3.893 3.633
3096.009 3.433 3.443 3.643 3.663 3.623 3.713 3.783 3.673 3.723 3.973
3115.299 3.693 3.083 2.923 3.033 3.183 3.473 3.253 2.533 2.643 2.793
3134.589 2.583 2.493 2.383 2.543 2.593 2.473 2.613 2.603 2.313 2.193
3153.879 2.213 1.9161 1.8702 1.933 2.193 2.223 1.8266 2.043 1.8174 1.3261
3173.169 1.3781 1.7588 2.123 1.8943 1.7783 1.9274 1.983 1.953 1.6087 1.2976
3192.458 1.4277 1.5337 1.4654 1.8639 1.8371 1.4431 1.3176 1.6004 1.9059 1.6029
3211.748 1.5056 1.3189 1.1523 1.1581 1.03257 1.0672 1.112 1.1302 1.1459 1.1278
3231.038 1.4762 1.5492 1.2874 1.3534 1.279 1.0755 1.138 1.3648 1.1913 1.2469
3250.328 1.2558 0.695 0.721 1.0645 1.2264 1.5477 1.4998 1.4197 1.1454 0.9197
3269.617 1.1676 0.782 0.9199 1.3804 1.6876 1.7661 1.1803 1.1453 1.3253 1.2456
3288.907 1.3994 1.5161 0.95908 0.81 1.3674 1.5019 1.1611 0.99503 1.00116 0.774
3308.197 0.95593 1.1173 1.1755 1.521 1.8355 2.033 1.5883 1.5297 1.803 1.5357
3327.487 1.2957 0.738 0.303 0.482 0.738 0.75 1.01639 1.5109 1.7723 1.759
3346.777 1.2836 0.829 0.9119 1.01204 1.0352 0.8524 1.0763 1.6186 1.1857 0.98273
3366.066 1.1919 1.139 1.3149 1.6743 1.5419 1.5021 1.4442 1.1366 1.3547 1.5236
3385.356 0.97198 0.601 0.98166 1.5222 1.3275 0.8602 1.00835 1.5933 1.8164 1.5352
3404.646 1.4771 1.1994 0.67 1.127 1.6455 1.3308 1.1898 1.2962 1.0871 0.96478
3423.936 1.126 1.2768 1.4547 1.2725 1.4718 1.5003 0.8516 0.92437 1.2978 1.5067
3443.225 1.3262 1.0319 1.2686 1.3814 1.2103 1.1095 1.054 0.8459 0.71 0.96741
3462.515 1.413 1.4998 1.4026 1.2346 1.0735 1.00453 1.7184 1.983 1.6907 1.8405
3481.805 1.7178 1.6056 1.5821 1.7397 2.023 1.943 1.5226 1.7808 2.033 2.143
3501.095 2.493 2.513 2.213 2.343 2.583 2.403 2.203 1.7611 1.9104 1.6305
3520.385 1.4754 1.8324 1.6003 1.4881 1.4124 1.0499 1.0333 1.0604 0.9046 1.01845
3539.674 1.3349 1.1158 0.823 1.3441 1.7811 1.4061 0.99458 1.01714 1.02508 1.01527
3558.964 1.0548 1.144 1.3083 1.2012 0.685 0.379 0.509 1.3472 1.5066 1.0477
3578.254 1.1374 0.98564 0.96507 0.635 0.271 0.769 0.9196 1.0475 1.6758 1.8603
3597.544 1.7725 1.3186 1.0611 1.487 1.3719 1.2065 1.4909 1.4859 1.2157 1.304
3616.833 1.09 1.0682 1.1239 1.2461 1.3336 0.95425 0.405 0.534 0.8983 1.00226
3636.123 1.3562 0.98661 0.63 0.742 1.0977 1.3567 1.4261 1.2984 1.1759 1.3735
3655.413 1.8106 1.953 1.8052 1.4052 0.793 0.704 1.2523 1.5669 1.2726 1.4376
3674.703 1.6952 1.5685 1.6053 1.674 1.6464 1.4812 0.709 0.426 0.8923 1.4697
3693.993 1.1852 0.8426 1.3942 1.3094 1.211 1.0606 0.92969 1.0457 0.8849 0.69
3713.282 0.99942 1.0661 0.784 0.726 0.75 0.8446 0.98116 0.748 0.737 0.96599
3732.572 0.99842 1.1581 1.2336 1.2982 1.275 1.2535 1.1957 1.1234 1.2689 1.3128
3751.862 1.2953 1.3335 1.3438 1.1413 0.9149 1.2499 1.1421 1.1233 1.2137 0.95595
3771.152 0.936727 0.99437 0.689 0.249 0.329 0.704 1.1681 1.6496 1.774 1.1496
3790.441 1.271 1.783 1.6696 1.5953 1.3153 1.2661 1.4375 1.4338 1.3584 1.3775
3809.731 1.1271 0.8809 0.96518 1.1551 1.4247 1.2289 1.1214 1.4685 1.7293 1.4179
3829.021 0.936666 1.4278 1.6383 1.69 2.173 1.983 1.973 1.5075 1.0466 1.5803
3848.311 1.461 1.432 1.6981 1.1746 0.708 0.792 1.3932 1.6305 1.2002 1.2087
3867.601 1.2167 1.1595 1.1162 0.692 0.9207 1.193 1.1144 1.3194 1.497 1.085
3886.890 0.8691 0.634 1.03173 1.4343 1.3772 1.6742 1.2631 1.01334 1.1665 1.0747
3906.180 1.1662 1.2455 1.02345 1.5124 1.716 1.4247 1.3847 1.235 1.3551 1.3887
3925.470 1.2797 1.0622 1.1615 1.2999 1.2206 1.3085 1.2898 1.0707 1.3964 2.003
3944.760 1.7544 1.3675 1.6403 2.013 1.5687 1.1886 1.3218 1.5947 1.5254 1.2628
3964.049 1.4909 1.7483 1.7325 1.7246 1.1821 1.2308 1.7257 1.6788 1.7421 1.5467
3983.339 1.5118 1.4095 1.4455 1.5634 1.5979 1.4585 1.1048 0.8671 1.3191 1.6427
##END=
