##TITLE=N,N-Hexylmethylamine
##JCAMP-DX=4.24
##DATA TYPE=INFRARED SPECTRUM
##ORIGIN=EPA-IR VAPOR PHASE LIBRARY
##OWNER=SRD/NIST
Collection (C) 2018 copyright by the U.S. Secretary of Commerce
on behalf of the United States of America. All rights reserved.
##CAS REGISTRY NO=35161-70-7
##MOLFORM=C 7 H 17 N
##$NIST SOURCE=MSDC-IR
##STATE=gas
##XUNITS=1/CM
##YUNITS=ABSORBANCE
##XFACTOR=1.
##YFACTOR=0.001
##DELTAX=3.85796
##FIRSTX=501.5
##LASTX=4000.7
##FIRSTY=1.466
##MAXX=4000.7
##MINX=501.534
##MAXY=0.119216
##MINY=0
##NPOINTS=908
##XYDATA=(X++(Y..Y))
501.534 1.466 1.556 1.506 1.596 1.616 1.646 1.636 1.646 1.766 1.666
540.114 1.576 1.596 1.596 1.466 1.486 1.576 1.556 1.596 1.656 1.826
578.693 1.956 1.946 2.026 2.206 2.266 2.426 2.646 2.826 3.056 3.276
617.273 3.496 3.806 4.136 4.436 4.826 5.186 5.536 5.966 6.516 7.006
655.852 7.526 8.076 8.676 9.146 9.566 10.066 10.546 10.976 11.336 11.736
694.432 12.126 12.466 12.786 13.056 13.156 13.046 12.796 12.426 11.876 11.166
733.011 10.356 9.496 8.636 7.726 6.966 6.436 5.906 5.396 4.996 4.686
771.591 4.396 4.036 3.666 3.376 3.156 3.006 2.826 2.636 2.516 2.496
810.170 2.446 2.316 2.176 2.086 2.036 1.966 1.956 1.876 1.836 1.846
848.750 1.796 1.786 1.856 1.876 1.826 1.826 1.846 1.916 1.996 2.086
887.330 2.196 2.296 2.376 2.396 2.376 2.416 2.326 2.286 2.376 2.326
925.909 2.246 2.176 2.126 2.036 1.986 1.986 1.956 1.986 2.086 2.116
964.489 2.106 2.096 2.116 2.116 2.126 2.126 2.166 2.256 2.256 2.286
1003.068 2.386 2.466 2.556 2.576 2.566 2.596 2.586 2.526 2.476 2.406
1041.648 2.406 2.486 2.586 2.656 2.856 3.186 3.396 3.676 4.026 4.306
1080.227 4.586 4.926 5.256 5.466 5.746 6.256 6.956 7.866 9.076 10.386
1118.807 11.916 13.496 14.676 15.356 15.786 16.086 16.056 15.726 15.036 13.786
1157.387 12.116 10.426 8.806 7.296 6.036 5.066 4.406 3.826 3.386 3.146
1195.966 2.946 2.786 2.716 2.706 2.656 2.576 2.476 2.416 2.416 2.346
1234.546 2.366 2.396 2.356 2.316 2.346 2.436 2.466 2.536 2.596 2.666
1273.125 2.656 2.606 2.646 2.686 2.746 2.846 2.956 3.006 3.026 3.066
1311.705 3.046 3.026 3.036 3.146 3.356 3.636 4.036 4.526 5.106 5.766
1350.284 6.416 6.966 7.346 7.496 7.416 7.196 6.956 6.676 6.296 5.836
1388.864 5.296 4.656 4.086 3.756 3.626 3.636 3.816 4.126 4.626 5.356
1427.443 6.316 7.566 9.126 11.076 13.126 14.916 16.296 17.206 17.706 17.996
1466.023 18.126 17.776 16.686 14.966 12.666 10.126 7.876 6.166 4.906 3.996
1504.603 3.366 2.866 2.476 2.186 1.986 1.806 1.656 1.516 1.416 1.336
1543.182 1.246 1.1871 1.1217 1.0256 0.9681 0.9289 0.9017 0.8852 0.8965 0.8762
1581.762 0.821 0.7773 0.7339 0.7036 0.6908 0.6987 0.6831 0.6825 0.6807 0.6651
1620.341 0.6629 0.6535 0.6411 0.5975 0.5864 0.6215 0.6333 0.6094 0.5768 0.5593
1658.921 0.5681 0.5635 0.5659 0.5804 0.5669 0.5461 0.5187 0.4778 0.4725 0.4633
1697.500 0.4561 0.4555 0.4331 0.4135 0.395 0.4003 0.4092 0.4003 0.4012 0.3857
1736.080 0.3731 0.3724 0.3576 0.3576 0.3679 0.3662 0.3492 0.3442 0.3645 0.3669
1774.659 0.3656 0.3653 0.3676 0.3862 0.4074 0.3989 0.3824 0.4003 0.4349 0.4634
1813.239 0.4614 0.4482 0.4537 0.4671 0.4697 0.4814 0.4965 0.4966 0.4727 0.4624
1851.819 0.4657 0.456 0.4428 0.4271 0.4027 0.3839 0.3613 0.3409 0.32881 0.30609
1890.398 0.28891 0.27563 0.268 0.28071 0.26787 0.238143 0.2557 0.244036 0.2106 0.2084
1928.978 0.21 0.2253 0.2181 0.1899 0.1835 0.1913 0.2043 0.2258 0.2149 0.1985
1967.557 0.2171 0.2089 0.2034 0.2119 0.2194 0.24844 0.25323 0.2495 0.2553 0.24902
2006.137 0.25284 0.28328 0.30408 0.3114 0.31764 0.33359 0.3533 0.3805 0.3904 0.3916
2044.716 0.3975 0.397 0.3838 0.3847 0.3914 0.3793 0.3964 0.4024 0.3725 0.3607
2083.296 0.3818 0.3494 0.3393 0.3512 0.313 0.29715 0.30591 0.33504 0.3385 0.3115
2121.875 0.29237 0.27148 0.25352 0.25343 0.25533 0.28598 0.29832 0.26988 0.27071 0.27216
2160.455 0.25384 0.238384 0.25821 0.26736 0.27049 0.2806 0.27434 0.28668 0.28537 0.27995
2199.035 0.29321 0.29129 0.25831 0.2675 0.28235 0.27163 0.25853 0.2362 0.25273 0.274
2237.614 0.27714 0.26502 0.27365 0.27291 0.26552 0.2877 0.29347 0.30124 0.29878 0.28194
2276.194 0.28639 0.28324 0.27627 0.28365 0.28632 0.30564 0.32852 0.3356 0.33149 0.32027
2314.773 0.30157 0.28099 0.27552 0.30159 0.33308 0.3424 0.3514 0.3465 0.343 0.356
2353.353 0.368 0.3657 0.3686 0.381 0.3485 0.32186 0.333 0.3571 0.3605 0.3374
2391.932 0.33198 0.3495 0.362 0.3389 0.3453 0.3696 0.3789 0.3665 0.3861 0.3968
2430.512 0.3653 0.3943 0.4027 0.3985 0.4261 0.4229 0.4131 0.4234 0.4285 0.4513
2469.092 0.5007 0.5221 0.4993 0.4773 0.4883 0.5225 0.5347 0.5263 0.5471 0.5814
2507.671 0.5972 0.6116 0.6476 0.6803 0.7033 0.7493 0.7821 0.8293 0.8507 0.8594
2546.251 0.8796 0.9067 0.9479 0.9637 1.0022 1.0505 1.0597 1.0633 1.1196 1.1972
2584.830 1.2327 1.256 1.306 1.326 1.366 1.426 1.486 1.546 1.586 1.656
2623.410 1.716 1.796 1.866 1.936 2.006 2.116 2.236 2.366 2.496 2.646
2661.989 2.836 2.996 3.176 3.436 3.626 3.776 3.936 4.126 4.286 4.406
2700.569 4.536 4.636 4.686 4.766 4.846 4.936 5.106 5.326 5.586 5.886
2739.148 6.206 6.586 7.016 7.556 8.286 9.146 10.236 11.656 13.446 15.686
2777.728 18.456 21.826 25.666 29.796 33.556 36.156 37.356 37.146 35.716 33.736
2816.308 31.926 30.446 29.386 28.896 29.036 30.066 32.116 35.186 39.216 43.806
2854.887 48.386 52.216 54.806 56.166 56.436 56.256 55.846 54.866 53.856 53.166
2893.467 52.826 53.526 55.886 60.026 65.946 73.716 83.156 93.566 103.636 112.016
2932.046 117.616 119.216 116.386 110.236 102.286 93.886 86.536 81.516 78.506 75.006
2970.626 69.416 61.786 52.006 41.376 32.026 24.846 19.616 15.916 13.316 11.366
3009.205 9.926 8.826 7.936 7.226 6.646 6.146 5.716 5.326 4.936 4.566
3047.785 4.276 4.056 3.806 3.586 3.396 3.216 3.096 2.956 2.776 2.616
3086.364 2.476 2.386 2.276 2.136 2.036 1.946 1.826 1.756 1.726 1.666
3124.944 1.596 1.556 1.456 1.376 1.346 1.246 1.1884 1.1375 1.1371 1.1638
3163.524 1.0851 1.0327 1.0193 0.9975 1.0054 0.9744 0.8835 0.8337 0.8009 0.7475
3202.103 0.6933 0.6784 0.7079 0.689 0.6212 0.5558 0.4864 0.4076 0.3716 0.3686
3240.683 0.3444 0.32541 0.30276 0.26495 0.27935 0.31451 0.2861 0.2233 0.2123 0.26356
3279.262 0.30701 0.30336 0.27577 0.25507 0.2217 0.1905 0.164 0.2069 0.27207 0.1901
3317.842 0.1906 0.2255 0.1469 0.1795 0.2182 0.1767 0.1763 0.1802 0.2063 0.29016
3356.421 0.28821 0.2344 0.25563 0.29461 0.27355 0.2254 0.1705 0.1886 0.26205 0.2235
3395.001 0.1857 0.2106 0.2 0.2259 0.2154 0.095 0.09 0.151 0.128 0.122
3433.580 0.096 0.083 0.133 0.105 0.065 0.09 0.121 0.1488 0.1464 0.07
3472.160 0 0.007 0.057 0.068 0.044 0.092 0.114 0.072 0.076 0.101
3510.740 0.096 0.044 0.053 0.089 0.07 0.122 0.129 0.063 0.048 0.009
3549.319 0.026 0.063 0.044 0.027 0.013 0.058 0.117 0.109 0.055 0.073
3587.899 0.115 0.117 0.082 0.075 0.1368 0.235571 0.29448 0.27521 0.2186 0.244278
3626.478 0.26881 0.1763 0.111 0.128 0.221 0.29809 0.30697 0.29321 0.30227 0.30897
3665.058 0.25418 0.22961 0.2237 0.2227 0.244318 0.1806 0.1883 0.1995 0.1617 0.1846
3703.637 0.1822 0.1674 0.121 0.121 0.1874 0.2125 0.2026 0.2106 0.1786 0.108
3742.217 0.122 0.22894 0.22748 0.1779 0.26527 0.25853 0.2164 0.23822 0.1584 0.1913
3780.797 0.27996 0.1573 0.155 0.26662 0.23002 0.1943 0.28249 0.27055 0.2214 0.2153
3819.376 0.2102 0.25979 0.24724 0.1946 0.25059 0.28262 0.2187 0.2253 0.2822 0.30721
3857.956 0.31013 0.31489 0.3576 0.32344 0.2183 0.2082 0.22852 0.26518 0.28918 0.29779
3896.535 0.30738 0.29781 0.33098 0.3441 0.29352 0.27217 0.3679 0.4288 0.33294 0.29379
3935.115 0.3843 0.4006 0.3939 0.4402 0.4138 0.3674 0.4138 0.5635 0.5057 0.3515
3973.694 0.3666 0.4363 0.5111 0.4564 0.4489 0.4661 0.4063 0.42
##END=
