##TITLE=4-(Trifluoromethoxy)fluorobenzene
##JCAMP-DX=4.24
##DATA TYPE=INFRARED SPECTRUM
##ORIGIN=EPA-IR VAPOR PHASE LIBRARY
##OWNER=SRD/NIST
Collection (C) 2018 copyright by the U.S. Secretary of Commerce
on behalf of the United States of America. All rights reserved.
##CAS REGISTRY NO=352-67-0
##MOLFORM=C 7 H 4 F 4 O
##$NIST SOURCE=MSDC-IR
##STATE=gas
##XUNITS=1/CM
##YUNITS=ABSORBANCE
##XFACTOR=1.
##YFACTOR=0.001
##DELTAX=1.92898
##FIRSTX=549.8
##LASTX=4000.7
##FIRSTY=4.94
##MAXX=4000.7
##MINX=549.759
##MAXY=0.61552
##MINY=0
##NPOINTS=1790
##XYDATA=(X++(Y..Y))
549.759 4.94 5.63 4.96 3.27 3.04 3.93 4.67 4.75 4.82 5.65
569.049 7.66 10.13 12.1 14.17 17.78 21.12 23.55 26.02 27.45 27.66
588.339 27.22 25.07 21.96 19.6 16.63 13.12 10.71 8.91 7.04 6.35
607.628 5.99 5.46 5.2 4.85 5.07 5.26 4.62 4.28 4.31 3.74
626.918 3.3 3.3 3.07 2.66 2.79 2.84 3.2 3.86 4.06 3.88
646.208 4.31 4.37 4.04 4.77 5.29 5.53 5.76 6.7 7.19 7.47
665.498 7.87 7.64 7.6 6.98 6.84 7.04 6.47 6.43 6.29 5.38
684.787 4.61 4.5 4.47 4.44 4.4 4.19 4.21 4.44 4.8 4.74
704.077 5.05 5.82 6.4 6.92 7.46 8.09 8.04 7.41 7.06 6.93
723.367 6.83 6.3 5.23 4.96 4.84 4.13 3.91 3.44 2.93 2.85
742.657 2.9 3.27 3.44 3.53 3.41 3.58 4.61 5.05 5.52 6.55
761.947 8.49 11.24 14.87 19.62 23.69 26.32 27.58 27.66 27.08 25.06
781.236 21.65 17.16 12.29 9.28 7.77 6.97 6.11 4.97 5.23 5.86
800.526 5.62 5.79 6.74 7.73 9.33 11.02 12.42 14.35 16.79 19.52
819.816 22.74 25.47 28.19 31.87 34.55 36.74 39.16 40.62 41.44 42.75
839.106 44.29 44.43 43.81 42.8 41.3 39.65 36.74 34.14 31.46 28.38
858.395 25.09 21.7 19.18 16.63 14.24 12.3 10.75 9.57 9.08 8.02
877.685 7.09 6.52 5.92 5.45 5.33 5.21 4.36 3.86 3.13 3.01
896.975 3.72 3.79 3.45 3.59 3.8 4.13 4.59 5 5.62 6.63
916.265 7.63 8.31 9.06 10.03 10.39 10.22 10.07 9.74 9.7 9.35
935.555 8.47 7.62 6.66 5.94 5.96 5.9 5.31 4.49 3.89 3.64
954.844 3.93 4.09 3.46 3.17 3.29 3.2 2.56 2.27 2.51 2.54
974.134 2.62 2.44 2.0078 1.8377 1.8973 1.8724 1.7092 2.28 2.22 2.22
993.424 3 3.06 2.92 3.14 3.58 4.03 5.79 8.02 9.9 10.85
1012.714 10.78 10.85 10.66 10 8.14 6.01 4.64 3.41 2.47 2.72
1032.003 2.62 1.947 2.34 2.39 2.26 2.0942 1.797 1.9054 2.26 2.64
1051.293 1.9022 1.6904 1.7243 2.0643 2.24 1.5151 2.26 2.88 2.97 3.18
1070.583 4.27 5.49 6.21 7.77 9.84 11.01 11.18 11.33 12.7 15.26
1089.873 16.8 17.23 17.88 17.99 17.37 17.4 17.02 15.61 14.85 13.68
1109.163 12.36 12.11 11.17 10.19 11.46 12.33 12.1 12.4 12.48 12.49
1128.452 12.31 12.83 14.33 15.36 17.01 19.86 23.33 27.76 33.59 41.02
1147.742 48.31 55.15 61.72 69.41 77.82 85.01 91.76 99.97 109.69 121.53
1167.032 137.51 157.26 179.72 205.15 232.3 260.49 290.29 320.62 352.17 383.74
1186.322 412.55 433.48 447.92 460.3 467.47 467.71 464.03 455.45 446.06 440.84
1205.611 434.64 430.54 426.47 422.06 422.58 424.35 424.46 424.3 421.46 414.72
1224.901 406.64 397.7 390.37 387.83 389.56 391.88 395.09 396.43 393.24 389.35
1244.191 383.41 370.9 355.56 341.03 329.78 327.41 335.96 356.39 385.7 421.3
1263.481 465.67 513.33 556.96 592.28 612.13 615.52 597.79 560.32 508.55 446.83
1282.771 380.17 312.35 249.63 199.13 162.58 137.14 118.05 102.95 90.97 80.75
1302.060 72.03 64.73 58.47 52.52 47.09 42.29 37.97 34.33 31.19 28.16
1321.350 25.52 23.48 21.7 19.98 18.46 17.33 16.17 15.01 14.02 12.98
1340.640 12.17 11.45 10.83 10.36 9.7 8.99 8.55 8.22 7.92 7.62
1359.930 7.2 6.94 6.7 6.51 6.42 6.29 6.09 5.98 5.76 5.5
1379.219 5.46 5.54 5.53 5.31 5.26 5.28 5.26 5.31 5.24 5.05
1398.509 5.01 5.05 5.09 5.13 5.26 5.33 5.5 5.59 5.59 5.84
1417.799 6.07 6.21 6.24 6.24 6.25 6.31 6.5 6.7 6.9 7.05
1437.089 7.27 7.56 7.77 8.02 8.13 8.21 8.46 8.48 8.13 7.54
1456.378 7.37 7.14 6.81 6.67 6.44 6.11 5.94 6.38 6.79 7.46
1475.668 8.61 9.74 11.49 13.79 17.1 22.25 29.49 40.04 55.13 74.67
1494.958 99.72 131.12 164.53 196.22 221.23 236.68 242.75 238.79 225.66 203.36
1514.248 174.62 144.38 117.27 96.58 80.63 69.22 59.95 52.19 45.28 38.93
1533.538 33.16 28.16 24.07 20.57 18.03 16.17 14.61 13.23 12.21 11.44
1552.827 10.88 10.33 9.83 9.5 9.13 8.46 8.13 8 7.7 7.27
1572.117 7.4 7.88 7.79 7.57 7.56 7.65 7.61 7.84 8.26 8.36
1591.407 8.51 8.99 9.52 9.65 9.54 9.81 10.21 10.72 11.12 11.17
1610.697 11.3 11.16 10.92 10.6 10.14 9.84 9.06 8.35 8.02 7.6
1629.986 7.55 7.7 7.79 7.74 7.44 7.12 6.83 6.7 6.5 6.03
1649.276 5.71 5.8 5.63 5.28 4.97 4.47 4.24 4.31 3.96 3.67
1668.566 3.73 3.52 3.35 3.31 3.17 3.1 3.25 3.18 3.04 3.23
1687.856 3.42 3.39 3.41 3.29 3.16 3.21 3.23 3.11 3.11 3.17
1707.146 2.99 2.9 2.81 2.77 2.83 2.93 3.05 3.22 3.27 3.11
1726.435 3.02 3.33 3.56 3.8 4.16 4.27 4.62 4.87 4.77 4.68
1745.725 4.57 4.23 3.9 3.7 3.4 3.11 2.95 3.01 3.14 3.02
1765.015 2.85 2.94 3.01 3.09 3.19 3.14 3.08 3.03 2.97 2.83
1784.305 2.92 2.98 2.8 2.86 2.81 2.56 2.68 2.66 2.51 2.64
1803.594 2.54 2.54 2.46 2.31 2.43 2.45 2.27 2.38 2.52 2.52
1822.884 2.44 2.52 2.7 2.67 2.82 3 3.15 3.36 3.4 3.47
1842.174 3.57 3.62 3.95 4.18 4.36 4.67 4.97 5.3 5.64 6.07
1861.464 6.47 6.83 7.08 7.13 7.23 7.51 7.58 7.24 7.1 6.98
1880.754 6.35 5.83 5.58 5.16 4.63 4.14 3.65 3.29 3.05 2.85
1900.043 2.65 2.44 2.41 2.38 2.126 2.0891 2.23 2.17 2.104 2.27
1919.333 2.17 2.0143 2.087 2.1442 2.26 2.26 2.0841 1.9658 1.9853 1.9861
1938.623 1.9231 1.7833 2.0612 2.1053 1.9135 1.8792 1.6611 1.848 2.0347 1.9964
1957.913 2.0373 1.9203 1.8215 2.0535 2.22 2.1448 2.26 2.42 2.39 2.31
1977.202 2.26 2.39 2.51 2.44 2.42 2.57 2.68 2.69 2.73 2.68
1996.492 2.61 2.59 2.86 2.98 2.93 3.15 3.33 3.46 3.61 3.8
2015.782 4.05 4.3 4.39 4.53 4.62 4.51 4.44 4.44 4.5 4.47
2035.072 4.3 4.35 4.33 4.23 4.44 4.53 4.5 4.49 4.33 4.03
2054.362 3.95 4.03 3.85 3.56 3.12 2.72 2.74 2.81 2.72 2.69
2073.651 2.66 2.67 2.64 2.49 2.48 2.46 2.52 2.69 2.64 2.66
2092.941 2.71 2.73 2.75 2.78 2.97 2.86 2.62 2.62 2.75 2.76
2112.231 2.53 2.54 2.81 2.92 2.69 2.61 2.61 2.73 2.87 2.67
2131.521 2.51 2.62 2.79 2.81 2.81 2.7 2.65 2.65 2.64 2.61
2150.810 2.52 2.42 2.36 2.51 2.57 2.32 2.0846 1.9828 1.9753 1.9961
2170.100 1.9609 1.9854 1.9217 1.8921 1.8769 1.9715 2.26 2.25 2.34 2.4
2189.390 2.23 2.21 2.19 2.1312 2.0313 1.8408 1.6641 1.6273 1.5764 1.6834
2208.680 1.7367 1.5821 1.4781 1.3839 1.4141 1.5166 1.4658 1.6198 1.5665 1.3399
2227.970 1.6597 1.6244 1.3113 1.3941 1.4424 1.4327 1.294 1.3169 1.5923 1.6067
2247.259 1.5406 1.5739 1.6743 1.7141 1.5915 1.4718 1.4641 1.4641 1.3177 1.1499
2266.549 1.2223 1.0904 0.911 1.0871 1.21715 1.2666 1.16688 1.029 1.045 1.23152
2285.839 1.326 1.23232 1.20508 1.17801 1.20252 1.096 1.1301 1.3642 1.4192 1.3479
2305.129 1.16173 1.0612 1.1088 1.2929 1.4932 1.5919 1.4515 1.5448 2.0175 1.8607
2324.418 1.731 1.9977 2.0965 2.1083 1.9178 1.89 2.0976 2.0592 2.05 2.23
2343.708 2.35 2.3 2.25 2.32 2.36 2.33 2.39 2.52 2.49 2.37
2362.998 2.25 2.32 2.38 2.25 2.33 2.5 2.4 2.34 2.33 2.29
2382.288 2.56 2.84 2.88 2.85 2.84 2.8 2.88 3.1 3.18 3.03
2401.578 2.9 2.91 3.11 3.4 3.65 3.91 4.15 4.27 4.3 4.67
2420.867 4.82 4.89 5.17 5.25 5.31 5.25 5.29 5.08 4.97 4.91
2440.157 4.94 4.86 4.43 4.43 4.41 4 3.78 3.75 3.57 3.51
2459.447 3.38 3.14 3.05 3.07 3.08 3.14 3.21 3.09 3.24 3.61
2478.737 3.75 3.9 4.19 4.19 4.15 4.28 4.25 4.24 4.32 4.54
2498.026 4.43 4.33 4.5 4.46 4.24 4.16 3.89 3.85 3.98 3.67
2517.316 3.43 3.39 3.35 3.17 2.98 2.75 2.64 2.63 2.56 2.36
2536.606 2.23 2.28 2.46 2.66 2.35 2.1354 2.0419 2.19 2.45 2.33
2555.896 1.8865 1.9164 2.15 1.9239 1.9677 2.0954 2.0666 1.6583 1.3033 1.20821
2575.186 1.18021 1.4837 1.7364 1.5072 1.4434 1.4418 1.3403 1.4183 1.5617 1.4989
2594.475 1.3801 1.6468 1.6762 1.3891 1.0897 0.839 0.774 0.954 1.1089 1.0868
2613.765 0.829 0.977 1.2913 1.1004 1.043 1.0653 1.17665 1.24916 1.24729 0.986
2633.055 0.77 0.933 1.1389 1.2732 1.0896 1.046 1.16316 1.154 0.912 0.824
2652.345 0.885 0.901 1.0662 0.94 0.793 0.812 0.778 0.832 0.876 0.86
2671.634 0.922 1.0533 1.15677 1.1117 1.0661 1.1588 0.931 0.732 0.699 0.837
2690.924 0.986 0.801 0.889 0.817 0.649 0.799 0.797 0.908 1.001 1.0813
2710.214 1.02 0.909 0.905 0.747 0.848 1.0697 1.21218 1.0935 0.88 0.818
2729.504 0.749 1.1146 1.3454 1.20469 1.1198 1.001 1.0583 1.0773 0.964 0.86
2748.794 1.015 1.23605 1.3578 1.7241 1.5295 1.1056 1.045 1.087 1.1257 1.21101
2768.083 1.2999 1.04 0.636 0.473 0.843 1.17956 1.21335 0.983 0.865 0.869
2787.373 0.852 0.778 0.735 0.741 0.833 1.0639 1.17088 1.03 0.585 0.638
2806.663 1.065 0.918 0.724 0.99 1.0865 1.2859 1.3353 1.1367 0.848 0.901
2825.953 1.20551 1.0933 1.038 0.871 0.679 0.777 1.0967 0.986 0.946 1.14548
2845.242 1.18963 1.16504 1.013 1.4251 1.5675 1.3471 1.3981 1.075 0.657 0.822
2864.532 1.2722 1.7086 1.7207 1.4363 1.2821 1.5048 1.6003 1.2809 1.3574 1.6235
2883.822 1.752 1.2653 0.949 1.0814 0.807 0.409 0.506 1.007 1.17463 1.22678
2903.112 1.1187 0.89 1.0614 1.3645 1.016 0.446 0.691 1.3211 1.324 0.824
2922.401 0.714 0.825 0.988 1.0947 1.15477 0.778 0.7 0.834 0.589 0.455
2941.691 0.08 0 0.445 0.755 1.0873 1.19969 1.1014 0.878 0.847 1.19353
2960.981 0.9 0.53 0.62 0.913 0.703 0.557 0.663 0.717 1.16783 1.049
2980.271 0.774 1.07 1.0958 1.1028 1.36 1.4724 1.083 0.918 1.20539 0.901
2999.561 1.24853 1.6419 1.4873 1.3034 0.786 0.798 0.708 0.737 0.989 0.996
3018.850 1.1169 1.21107 1.23362 1.3862 1.4286 1.2454 1.15554 1.20291 1.4044 1.4042
3038.140 1.2883 1.6929 1.8259 1.466 1.6202 1.678 1.5771 1.794 2.16 2.16
3057.430 2.17 2.68 3.42 4.11 3.66 3.11 3.74 4.07 3.71 3.26
3076.720 3.06 2.79 2.27 1.9871 1.9133 2.1092 2.0534 2.0399 2.19 2.26
3096.009 2.0836 1.8327 1.8216 1.8692 1.8104 1.818 2.0381 1.9597 1.9195 1.5568
3115.299 1.2747 1.5231 1.6832 1.8065 1.7938 1.8017 1.7479 1.8152 1.8333 1.6491
3134.589 1.3675 1.0664 1.046 1.18223 1.1388 1.014 1.2727 1.0884 0.626 0.903
3153.879 1.19437 1.1071 0.929 0.84 0.845 0.834 0.749 0.746 1.15638 1.4062
3173.169 1.0734 1.049 1.2507 1.20642 1.0774 0.976 1.0864 1.3807 1.4927 1.2596
3192.458 1.2927 1.104 0.903 1.21244 1.1048 0.67 0.945 1.23003 1.4155 1.4573
3211.748 0.973 0.795 0.846 1.4161 1.5097 0.96 0.716 0.464 0.799 1.038
3231.038 0.843 0.397 0.219 0.731 0.908 0.751 0.368 0.544 1.0857 1.127
3250.328 0.755 0.588 0.697 0.828 0.652 0.407 0.662 0.976 1.4286 1.1237
3269.617 0.645 0.955 1.4534 1.2777 0.591 0.788 1.18345 1.3367 1.22685 1.1271
3288.907 0.943 0.905 1.1237 0.926 0.826 1.1385 0.955 0.466 0.612 0.914
3308.197 0.942 0.969 0.983 1.3332 1.18431 0.547 0.836 0.67 0.379 0.751
3327.487 1.1092 1.24315 0.863 0.188 0.535 0.972 0.877 1.23792 1.4262 1.3209
3346.777 1.04 0.729 1.1143 1.4043 1.3673 1.5273 1.4504 1.20304 1.21887 1.0711
3366.066 0.624 0.538 0.982 1.5162 1.6789 1.6427 1.1902 0.794 1.15494 1.254
3385.356 0.843 0.835 1.0728 1.043 0.887 0.986 0.897 0.72 0.995 1.1939
3404.646 1.4308 1.4255 1.24375 0.992 0.81 1.14011 1.24254 1.3714 1.4751 1.1409
3423.936 0.934 0.977 0.808 0.849 1.24572 1.16358 1.1141 1.3429 1.15765 0.898
3443.225 1.18507 1.5375 1.24255 1.0943 0.901 0.504 0.786 0.647 0.309 0.705
3462.515 0.842 0.989 1.1223 0.874 1.048 1.026 0.78 0.798 1.0541 1.3927
3481.805 1.2868 1.038 0.987 1.4472 1.5233 1.23767 1.0862 1.1133 1.3882 1.3384
3501.095 1.1105 0.806 1.0571 1.5971 1.4682 1.4228 1.8611 1.6902 0.974 0.804
3520.385 0.77 0.84 0.978 1.3013 1.23851 0.95 1.4244 1.6774 1.677 1.3888
3539.674 1.0971 1.16018 1.2868 1.3014 1.20314 0.779 0.686 1.17626 1.2898 1.373
3558.964 1.2811 1.1207 0.933 0.936 1.17588 1.3643 1.032 1.0758 1.6274 1.797
3578.254 1.8991 1.5248 1.3829 1.5456 1.22906 0.756 1.045 1.6703 1.6046 1.361
3597.544 1.5095 1.766 1.3798 0.624 0.89 1.5928 1.20856 0.673 0.829 0.929
3616.833 1.0504 1.2017 0.926 1.19592 1.8065 1.15501 0.966 1.539 1.2728 0.883
3636.123 1.0528 1.1378 1.0846 1.0945 0.534 0.621 0.826 0.542 0.729 0.891
3655.413 1.1372 1.2573 0.885 1.024 1.4669 1.7162 1.7294 1.14452 0.854 1.0631
3674.703 1.7355 1.7626 1.4654 1.5744 1.6317 1.8871 1.4596 1.395 1.5704 1.0635
3693.993 0.816 0.697 0.753 0.52 0.357 0.867 0.984 0.775 0.758 0.682
3713.282 0.482 0.366 0.941 1.6674 1.6657 1.9167 2.0061 1.3911 0.852 1.027
3732.572 1.2776 1.0556 1.042 0.348 0.286 0.961 0.833 0.822 0.918 0.835
3751.862 1.048 1.4599 1.23475 0.974 0.758 0.529 1.018 0.818 0.336 0.603
3771.152 0.831 0.947 0.841 0.826 1.15449 0.953 0.717 0.554 0.798 1.2822
3790.441 1.4845 1.2795 0.977 0.941 0.902 1.2918 1.5259 1.044 0.767 0.799
3809.731 0.88 1.2517 0.883 0.56 0.73 0.249 0.344 0.716 0.474 0.165
3829.021 0.662 1.4627 1.6156 1.1329 0.616 0.83 1.4063 1.4571 1.204 0.979
3848.311 0.776 0.607 0.547 0.823 0.864 0.571 0.606 0.84 0.696 0.664
3867.601 0.584 0.425 1.20022 1.7921 1.573 1.5144 1.6743 1.4331 0.895 1.21246
3886.890 1.3683 1.15921 1.18285 1.1502 1.19307 1.3788 1.3033 0.938 1.3172 1.8871
3906.180 1.4887 1.03 0.895 0.671 0.57 0.479 0.633 0.699 0.827 1.4663
3925.470 1.0806 0.937 1.3917 1.4992 1.5222 1.5928 1.652 1.558 0.998 0.355
3944.760 0.717 1.19903 1.3284 1.017 1.017 1.085 1.23785 1.5365 1.2534 0.917
3964.049 0.783 0.916 0.688 0.57 0.969 1.2899 1.1115 0.963 1.18219 1.20259
3983.339 0.767 0.731 1.3427 1.2899 0.899 0.764 0.331 0.294 0.551 0.6
##END=
