##TITLE=Bis(2,2,2-trifluoroethyl)maleate
##JCAMP-DX=4.24
##DATA TYPE=INFRARED SPECTRUM
##ORIGIN=EPA-IR VAPOR PHASE LIBRARY
##OWNER=SRD/NIST
Collection (C) 2018 copyright by the U.S. Secretary of Commerce
on behalf of the United States of America. All rights reserved.
##CAS REGISTRY NO=352-28-3
##MOLFORM=C 8 H 6 F 6 O 4
##$NIST SOURCE=MSDC-IR
##STATE=gas
##XUNITS=1/CM
##YUNITS=ABSORBANCE
##XFACTOR=1.
##YFACTOR=0.001
##DELTAX=1.92898
##FIRSTX=549.8
##LASTX=4000.7
##FIRSTY=5.17
##MAXX=4000.7
##MINX=549.759
##MAXY=0.18121
##MINY=0
##NPOINTS=1790
##XYDATA=(X++(Y..Y))
549.759 5.17 4.93 4.14 3.67 3.27 3.19 3.17 2.88 3.08 3.42
569.049 3.53 3.38 3.44 3.76 3.49 2.79 3.06 3.1 2.232 2.42
588.339 3.27 2.89 2.44 2.78 3.14 3.01 2.64 2.5 2.59 2.69
607.628 2.85 3.4 3.66 3.95 4.09 3.66 3.74 3.88 4.04 4.39
626.918 4.63 4.92 4.48 4.36 4.78 5.29 5.89 5.94 6.07 6.36
646.208 6.37 6.95 7.92 8.47 8.49 8.88 9.54 9.47 9.31 8.82
665.498 8.18 7.83 7.61 7.14 6.63 6.24 5.99 5.47 4.75 4.71
684.787 4.66 4.46 4.21 3.82 3.72 3.63 3.27 3.11 2.96 2.68
704.077 3.01 3.01 2.57 2.75 2.94 2.83 2.61 2.32 2.1547 2.3
723.367 2.41 2.2633 2.1079 2.2266 2.2321 2.0928 2.1597 2.56 2.85 2.8
742.657 2.4 2.33 2.1568 2.0942 2.53 2.57 2.65 2.64 2.1098 1.7027
761.947 2.0758 2.0058 2.2101 2.81 3.16 2.78 2.83 3.03 2.44 2.67
781.236 2.85 2.92 2.98 2.74 2.84 3.45 3.84 4.17 4.62 4.62
800.526 4.5 5.05 5.34 5.54 6.18 6.27 6.09 6.18 6.59 6.37
819.816 5.73 6.45 7.14 6.82 6.76 6.77 6.83 6.47 5.93 6.08
839.106 6.41 6.58 6.89 6.75 6.59 6.5 6.54 6.27 5.96 6.6
858.395 6.67 6.24 6.12 5.8 5.95 6.18 5.99 5.85 5.69 5.58
877.685 5.7 5.8 5.45 5.39 5.74 5.49 5.15 5.77 6.43 6.13
896.975 5.7 6.07 6.76 6.84 6.65 6.53 6.4 6.53 6.6 6.61
916.265 6.45 6.22 6.13 6 6.42 6.93 7.12 6.96 7.12 7.38
935.555 7.42 7.59 7.73 8.07 7.94 8.42 9.56 10.18 10.83 11.7
954.844 12.31 13.06 14.16 15.28 16.39 17.06 18.09 18.94 19.95 21.06
974.134 21.24 21.19 20.89 21.23 20.95 20.04 19.11 17.76 16.69 14.85
993.424 13.24 11.58 9.43 8.54 8.28 7.92 7.01 5.88 5.87 6.28
1012.714 5.89 5.77 5.76 5.55 5.81 6.1 6.99 7.09 7.61 9.35
1032.003 10.09 11.69 13.29 14.3 15.46 16.87 19.26 20.4 20.93 22.28
1051.293 23.1 22.55 21.29 20.29 18.36 17.46 17.11 14.95 13.23 12.54
1070.583 12.32 11.33 10.14 9.39 8.42 8.66 9.72 9.75 8.19 6.92
1089.873 7.69 8.68 8.87 9.04 10.01 10.75 10.39 11.3 12.37 13.02
1109.163 14.26 16.62 19.21 19.12 20.42 22.8 26.03 29.69 31.15 35.63
1128.452 41.74 47.42 54.68 62.01 69.96 80.75 91.61 100.69 109.06 115.06
1147.742 118.9 121.19 120.61 117.99 114.05 110.27 109.14 110.67 113.1 117.14
1167.032 124.54 133.94 145.11 158.18 169.9 177.42 181.21 178.78 169.8 157.14
1186.322 139.84 121.35 104.88 91.85 83.57 75.72 68.76 64.62 60.79 57.47
1205.611 54.62 52.5 50.14 46.9 43.55 40.81 39.26 37.76 36.23 34.94
1224.901 33.45 31.58 30.1 29.81 30.03 29.22 28.82 28.84 27.24 27.2
1244.191 27.7 26.91 27.42 27.9 28.33 29.6 30.52 30.86 31.21 31.44
1263.481 32.06 34.03 35.8 37.48 39.52 42.75 46.84 51.33 56.42 61.87
1282.771 67.77 73.3 77.88 80.51 80.92 79.75 76.94 73.09 68.44 63.04
1302.060 57.87 52.96 48.24 43.94 39.74 35.66 31.99 28.71 25.64 22.51
1321.350 19.76 17.88 16.23 14.27 12.64 11.43 10.54 9.7 8.98 8.84
1340.640 8.47 7.72 7.4 7.21 6.81 6.51 6.53 6.62 6.4 6.44
1359.930 6.65 6.75 6.76 6.7 6.92 7.24 7.46 7.87 8.37 9.02
1379.219 10.1 11.25 12.51 13.91 15.07 16.05 16.95 17.75 18.64 19.91
1398.509 21.73 24.1 26.5 29.33 32.18 34.14 35.14 35.05 33.61 30.99
1417.799 27.51 23.54 19.94 16.97 14.52 12.52 11.16 10.12 9.31 8.89
1437.089 8.52 8.45 8.43 8.31 8.55 8.72 8.54 8.3 8.07 7.89
1456.378 7.45 6.94 6.56 6.04 5.67 5.24 4.92 4.77 4.4 4.05
1475.668 3.89 3.68 3.72 3.72 3.44 3.37 3.33 3.37 3.4 3.33
1494.958 3.42 3.26 3.08 3.1 2.87 2.93 3.04 2.81 2.91 2.85
1514.248 2.76 2.74 2.76 2.58 2.45 2.72 2.79 2.82 2.7 2.64
1533.538 2.68 2.63 2.56 2.52 2.55 2.67 2.69 2.51 2.37 2.45
1552.827 2.39 2.2491 2.32 2.59 2.78 2.44 2.0157 2.0084 2.1258 2.2258
1572.117 2.2502 2.105 2.0474 2.164 2.34 2.44 2.49 2.2415 1.9825 2.0702
1591.407 2.1884 2.268 2.0892 2.1708 2.51 2.78 2.92 2.93 2.98 3.12
1610.697 3.33 3.17 3.23 3.67 3.88 3.87 4.06 4.41 4.79 5.25
1629.986 5.78 6.52 7.01 7.46 7.92 8.16 8.3 7.85 7.3 7.05
1649.276 6.67 6.11 5.55 5 4.52 4.34 4.04 3.98 4.01 4
1668.566 4.01 3.78 3.63 3.55 3.64 3.72 3.64 3.8 3.99 3.86
1687.856 3.76 3.6 3.64 3.76 3.73 3.79 4.09 4.24 4.31 4.52
1707.146 4.68 4.68 4.84 5.25 5.58 5.85 6.13 6.37 6.78 7.21
1726.435 7.58 8.07 8.55 8.96 9.49 10.11 11.02 12.32 13.48 14.83
1745.725 16.62 18.98 21.97 25.77 30.2 35.34 41.61 48.06 54.41 60.3
1765.015 65 68.22 69.66 69.28 66.95 63.18 58.09 52.25 46.3 40.52
1784.305 35.21 30.48 26.28 22.65 19.67 17.04 15.09 13.56 12.17 10.94
1803.594 9.93 9.06 8.26 7.61 7.15 6.69 6.25 5.96 5.62 5.24
1822.884 4.96 4.64 4.39 4.26 3.95 3.68 3.65 3.63 3.45 3.16
1842.174 3.14 3.11 2.99 2.83 2.67 2.61 2.6 2.77 2.75 2.53
1861.464 2.6 2.59 2.38 2.37 2.41 2.38 2.32 2.2462 2.1961 2.1128
1880.754 2.0501 2.1128 2.1068 2.0863 2.086 1.9892 1.8496 1.8101 1.9471 2.0296
1900.043 2.0516 2.1143 2.0118 1.9496 2.0304 1.9773 1.8091 1.7437 1.9287 2.0566
1919.333 2.0221 1.8639 1.7944 1.8757 1.7365 1.6973 1.8097 1.8063 1.6442 1.6675
1938.623 1.8773 1.9061 1.8713 1.6953 1.6057 1.6791 1.8687 1.8823 1.8171 1.8303
1957.913 1.7643 1.8078 1.8335 1.7509 1.7766 1.845 1.8954 1.8562 1.7049 1.8192
1977.202 1.8362 1.8352 1.9875 2.0367 2.0193 1.7199 1.5825 1.7183 1.7857 1.8353
1996.492 1.8707 1.8755 2.0277 2.1324 2.1246 2.082 2.0731 2.1675 2.1678 2.1616
2015.782 2.1211 2.0948 2.2018 2.28 2.212 2.1396 2.0425 2.0213 2.0451 1.9894
2035.072 1.8572 1.8562 1.9945 2.0139 1.8808 1.867 1.9307 1.8759 1.9093 1.9093
2054.362 1.8808 1.9798 2.0108 1.9953 2.072 2.0406 1.9666 1.9392 1.9757 1.935
2073.651 1.9107 2.0189 2.0163 2.0524 2.1759 2.31 2.28 2.0133 1.904 2.0478
2092.941 2.0964 2.0486 1.9377 1.9142 1.9615 2.0224 2.0067 1.9714 2.0454 2.0583
2112.231 2.0904 1.9807 1.9281 1.9497 1.8498 1.8826 2.0298 2.1688 2.0448 1.8458
2131.521 2.0103 1.9434 1.7188 1.7773 1.8828 1.831 1.7431 1.8456 1.9294 1.7515
2150.810 1.7079 1.9738 2.0007 1.7106 1.6316 1.879 1.9849 1.6803 1.4823 1.511
2170.100 1.48 1.6016 1.7142 1.7743 1.6685 1.6624 1.6787 1.4624 1.5385 1.6518
2189.390 1.8523 1.9625 1.8175 1.8187 1.7358 1.9155 1.94 1.738 1.5932 1.5502
2208.680 1.5084 1.4012 1.5643 1.6726 1.6686 1.7284 1.7399 1.6869 1.4685 1.27809
2227.970 1.5632 1.6709 1.6646 1.7232 1.7227 1.7985 1.6859 1.6499 1.6876 1.5723
2247.259 1.6482 1.703 1.7157 1.882 1.8014 1.6938 1.7395 1.6307 1.5567 1.5179
2266.549 1.4651 1.752 1.9196 1.8025 1.6574 1.423 1.4499 1.6764 1.6471 1.5598
2285.839 1.6129 1.7296 1.8022 1.6611 1.5684 1.512 1.4437 1.5462 1.6361 1.6457
2305.129 1.6418 1.6174 1.7663 1.6186 1.36814 1.5713 1.7072 1.6876 1.7218 1.6699
2324.418 1.7577 1.9061 1.85 1.9797 2.0148 1.8832 1.8313 1.7892 1.6059 1.7461
2343.708 1.9302 1.853 1.8959 1.659 1.5789 1.8162 1.7545 1.6442 1.782 1.7982
2362.998 1.3986 1.34227 1.6283 1.6755 1.7183 1.6983 1.3764 1.26836 1.6402 1.8198
2382.288 1.7581 1.7579 1.736 1.4406 1.35647 1.4132 1.27427 1.36136 1.5595 1.5603
2401.578 1.501 1.27896 1.29237 1.5416 1.3716 1.5445 1.6998 1.5275 1.5425 1.532
2420.867 1.34697 1.26678 1.379 1.3734 1.4152 1.35841 1.36454 1.3812 1.4194 1.4441
2440.157 1.2976 1.2909 1.36408 1.4918 1.5313 1.4084 1.28475 1.161 1.2333 1.133
2459.447 0.997 1.033 0.896 1.014 1.11 0.946 1.111 1.4089 1.5497 1.5771
2478.737 1.5794 1.5536 1.4363 1.33249 1.4384 1.5416 1.5039 1.2203 1.087 1.2313
2498.026 1.3465 1.2226 1.009 1.4448 1.4989 1.1767 1.2243 1.217 0.987 0.956
2517.316 1.28498 1.34793 1.3934 1.5739 1.30145 1.043 1.4986 1.581 1.35504 1.4098
2536.606 1.3868 1.4606 1.2012 1.011 1.34349 1.3968 1.34109 1.5525 1.4896 1.33959
2555.896 1.47 1.5381 1.30148 1.2355 1.4214 1.4395 1.3084 1.33225 1.3936 1.4329
2575.186 1.4682 1.153 1.26834 1.4237 1.377 1.5695 1.5901 1.31821 1.053 1.3714
2594.475 1.5463 1.3887 1.1846 1.3758 1.5239 1.224 1.2057 1.1884 1.118 0.973
2613.765 0.764 0.932 1.29083 1.3939 1.29616 1.35139 1.31523 1.29485 1.2477 1.1903
2633.055 1.2161 1.106 1.29218 1.2174 1.117 1.129 0.973 1.1746 1.30536 1.1875
2652.345 1.122 1.063 1.05 1.046 0.952 1.1871 1.4215 1.4165 1.6958 1.4843
2671.634 1.012 0.93 1.033 1.239 1.3865 1.4189 1.4442 1.3789 1.1725 1.4001
2690.924 1.4416 1.28072 1.35392 1.039 1.135 1.5087 1.4125 1.3757 1.2137 1.148
2710.214 1.4585 1.5809 1.34297 1.4173 1.3873 1.2266 1.4757 1.5244 1.112 1.143
2729.504 1.29365 1.096 1.29143 1.4938 1.1964 1.13 1.2487 1.109 1.2188 1.29877
2748.794 1.4224 1.4192 1.28077 1.26416 1.2649 1.2472 1.131 1.143 1.33717 1.3731
2768.083 1.6122 1.6136 1.36203 1.30543 1.2594 1.2383 0.927 1.082 1.28958 1.139
2787.373 1.2553 1.1846 1.2326 1.5151 1.3926 1.4895 1.32794 1.2371 1.29869 0.96
2806.663 0.953 1.2322 1.2145 1.1777 1.27523 1.225 1.33365 1.117 1.2293 1.4286
2825.953 1.4017 1.5644 1.4931 1.096 1.026 1.29854 1.31373 1.31307 1.4932 1.35394
2845.242 1.101 1.28088 1.1899 1.163 1.5788 1.7007 1.4015 1.27898 1.5212 1.6482
2864.532 1.2062 1.159 1.485 1.3791 1.1806 1.30449 1.5464 1.6476 1.6933 1.6906
2883.822 1.5125 1.4498 1.6338 1.6561 1.7491 1.6221 1.5131 1.7553 1.4545 1.4769
2903.112 1.9811 2.0243 2.2451 2.158 1.8051 1.9164 1.7493 1.146 1.104 1.33188
2922.401 1.4143 1.4317 1.5133 1.4959 1.4025 1.6771 1.5343 1.5272 1.9771 1.8849
2941.691 1.8793 1.967 1.3941 1.29985 1.679 1.7673 1.8156 1.838 1.9386 2.0928
2960.981 2.52 2.78 2.84 3.33 3.79 4.18 5.21 6.04 6.94 8.37
2980.271 9.05 9.06 8.37 6.99 5.86 4.8 3.99 3.51 2.82 2.45
2999.561 2.44 2.1973 2.35 2.85 2.61 2.1044 2.2369 2.2609 2.1991 2.1678
3018.850 1.7761 1.4607 1.3769 1.5637 1.6138 1.7468 1.6448 1.4164 1.4716 1.32105
3038.140 1.119 1.129 1.084 1.049 1.073 1.061 1.2366 1.2397 1.30029 1.6182
3057.430 1.32353 1.154 1.459 1.131 1.2241 1.6646 1.4668 1.089 0.847 1.056
3076.720 1.5426 1.7077 1.6436 1.449 1.33856 1.33681 1.104 1.2155 1.5792 1.4245
3096.009 0.95 0.985 0.984 0.999 1.29022 1.037 0.576 1.002 1.4061 1.6952
3115.299 1.7389 1.33524 1.159 1.2485 1.31819 1.155 0.908 1.009 1.4899 1.5728
3134.589 1.5923 1.30055 1.2577 1.4401 1.3861 1.5228 1.5172 1.144 0.989 0.882
3153.879 0.991 1.537 1.4641 1.1872 1.3846 1.143 0.77 1.094 1.3917 1
3173.169 0.878 1.27726 1.131 1.136 1.2313 1.27265 1.449 1.4043 1.2106 0.86
3192.458 1.077 1.31094 1.101 1.02 1.27919 1.32959 1.063 1.4481 1.152 0.826
3211.748 1.126 1.31848 1.4895 1.1867 0.952 1.14 0.891 1.035 1.3769 1.2895
3231.038 1.1746 1.059 1.3953 1.31914 1.121 1.5377 1.7339 1.26335 1.088 1.167
3250.328 1.1839 1.3201 0.97 0.829 1.2511 1.3778 1.36653 0.953 0.434 0.364
3269.617 0.624 1.1 1.1859 1.2152 1.4713 1.35891 0.88 0.845 0.886 0.983
3288.907 1.33266 1.5781 1.4794 1.1 1.015 1.1914 1.6075 1.31503 0.663 0.543
3308.197 0.958 1.34004 1.191 1.052 1.2234 0.935 0.704 1.2179 1.32437 0.99
3327.487 0.93 1.087 1.093 1.1846 1.125 1.008 1.145 1.31668 1.31417 0.953
3346.777 1.033 1.4518 1.3945 1.154 1.1846 1.4637 1.34145 1.5419 1.3832 1.031
3366.066 1.552 2.0267 1.6416 0.935 0.936 1.2306 1.5609 1.6657 1.8191 1.6434
3385.356 0.954 0.738 1.2184 1.9602 1.4686 1.2023 1.412 1.26618 1.31504 1.35272
3404.646 1.3889 1.397 1.8888 1.694 1.2289 1.4424 1.30145 1.27873 1.4006 1.125
3423.936 1.31879 1.187 0.984 1.27723 1.017 0.688 0.771 0.843 0.795 0.933
3443.225 1.142 1.2004 1.32195 1.013 1.1 1.4859 1.5369 1.32498 1.3733 1.135
3462.515 0.689 1.077 1.4364 1.6915 1.8932 2.0264 2.1556 2.0965 1.5702 1.4142
3481.805 1.894 1.8168 1.4912 1.3977 1.36088 1.08 1.064 1.6597 1.471 1.5
3501.095 1.8312 1.7191 1.9845 2.3 2.0929 1.919 1.7557 2.0525 2.3 1.858
3520.385 1.7589 1.6609 1.8277 1.9839 1.9191 1.7576 1.2947 1.046 1.4988 1.8056
3539.674 1.5674 1.5971 1.4242 1.4658 1.4461 1.6927 1.9123 1.4996 1.008 1.1826
3558.964 1.26622 1.052 1.5256 1.051 0.747 1.2347 1.2534 1.059 0.834 1.153
3578.254 1.4967 1.31813 1.2371 0.985 0.935 1.3712 1.6116 1.31666 0.919 0.982
3597.544 0.796 0.818 1.082 1.003 0.969 1.2019 1.5264 1.5073 1.5183 1.238
3616.833 0.912 0.853 1.34918 1.7396 1.116 1.082 1.7659 1.6296 1.2432 1.033
3636.123 1.1899 1.5807 1.7148 1.7135 1.162 1.2531 1.7119 1.3767 1.6027 1.4844
3655.413 1.4323 1.5095 1.7042 1.7615 1.143 1.2415 1.30032 1.051 1.27394 1.137
3674.703 0.957 1.1772 1.33538 1.5107 1.31347 1.3807 0.923 0.756 1.105 1.127
3693.993 1.039 0.943 1.167 1.6823 1.8391 1.5576 1.7156 1.4798 1.4784 1.4316
3713.282 1.3913 1.6282 1.154 0.691 0.525 0.652 0.735 0.914 0.753 0.595
3732.572 1.119 1.27499 0.868 0.797 1.153 1.016 1.054 1.145 0.731 0.507
3751.862 1.044 1.5805 1.2336 1.121 1.433 1.4506 1.2308 1.26274 1.4039 1.3967
3771.152 1.7047 1.30873 0.787 0.812 1.134 1.6637 1.35655 1.1913 1.167 1.002
3790.441 0.781 0.743 1.4529 1.32351 1.064 1.4863 1.4781 1.1707 1.003 1.082
3809.731 1.30363 1.35126 1.2557 1.2204 1.4275 1.4732 1.6356 1.8614 1.5232 1.32074
3829.021 1.5517 1.6454 1.075 0.324 0.557 0.609 0 0.23 0.756 0.79
3848.311 0.851 0.793 1.015 1.5198 1.4012 1.024 1.1892 1.3971 1.106 0.754
3867.601 0.615 1.057 1.113 0.717 0.891 1.107 1.31242 1.27101 1.129 0.954
3886.890 0.749 1.3919 1.31756 1.098 1.013 0.915 1.5188 1.5239 1.4187 1.09
3906.180 0.951 1.6335 1.32239 0.956 1.2489 1.1858 0.835 0.695 0.718 0.716
3925.470 0.49 0.467 1.044 1.1955 1.1709 1.3 1.26614 0.973 0.877 1.106
3944.760 1.30424 1.36833 1.35402 1.433 1.33858 1.4397 1.4521 1.109 1.1 1.2477
3964.049 1.1749 1.133 1.063 1.077 1.26909 1.30822 1.159 0.871 0.79 0.895
3983.339 0.704 0.521 0.597 0.809 1.2086 1.2134 1 0.883 1.033 1.4641
##END=
