##TITLE=1-Hepten-4-ol
##JCAMP-DX=4.24
##DATA TYPE=INFRARED SPECTRUM
##ORIGIN=NIST Mass Spectrometry Data Center
##OWNER=NIST Standard Reference Data Program
Collection (C) 2018 copyright by the U.S. Secretary of Commerce
on behalf of the United States of America. All rights reserved.
##CAS REGISTRY NO=3521-91-3
##MOLFORM=C 7 H 14 O
##$NIST SOURCE=MSDC-IR
##SPECTROMETER/DATA SYSTEM=HP-GC/MS/IRD
##STATE=gas
##XUNITS=1/CM
##YUNITS=ABSORBANCE
##XFACTOR=1.0
##YFACTOR=0.000001500
##DELTAX=4.0
##FIRSTX=550.0
##LASTX=3846.0
##FIRSTY=0.000581
##MAXX=3846
##MINX=550
##MAXY=0.015
##MINY=0
##NPOINTS=825
##XYDATA=(X++(Y..Y))
550.0 387 171 0 53 57 142 198 174 190 192
590.0 218 178 154 173 234 314 349 376 390 452
630.0 550 589 553 508 496 410 345 392 355 295
670.0 279 246 209 174 194 222 170 167 238 247
710.0 184 153 192 176 172 204 214 231 267 297
750.0 286 290 270 249 238 180 154 165 177 168
790.0 149 158 172 188 259 299 333 381 391 510
830.0 664 773 851 867 950 1030 1048 1062 1061 1081
870.0 1097 1091 1084 1108 1162 1233 1372 1601 1947 2403
910.0 2850 3200 3337 3221 2916 2481 2028 1684 1480 1384
950.0 1340 1319 1317 1344 1402 1498 1679 1959 2334 2758
990.0 3172 3536 3834 4020 4109 4132 4080 3957 3737 3455
1030.0 3123 2770 2418 2139 2001 1931 1921 1939 1927 1927
1070.0 1972 1992 1974 1947 1907 1866 1840 1834 1863 1913
1110.0 1971 2017 2047 2045 1997 1919 1768 1603 1465 1296
1150.0 1142 1034 933 874 837 809 836 900 938 1002
1190.0 1086 1183 1254 1310 1376 1425 1444 1455 1443 1421
1230.0 1410 1376 1402 1426 1407 1407 1421 1428 1435 1454
1270.0 1451 1428 1407 1387 1315 1246 1194 1132 1072 1028
1310.0 985 948 941 937 950 998 1060 1136 1209 1297
1350.0 1403 1495 1600 1705 1797 1886 1914 1919 1917 1891
1390.0 1817 1700 1568 1426 1305 1221 1198 1210 1225 1290
1430.0 1401 1505 1587 1625 1617 1562 1509 1447 1362 1285
1470.0 1167 1017 868 724 595 494 428 372 314 277
1510.0 241 217 226 218 197 196 207 198 188 183
1550.0 173 165 165 156 137 131 133 134 143 130
1590.0 115 140 166 176 186 222 276 351 486 655
1630.0 863 1069 1167 1157 1063 883 621 390 257 190
1670.0 147 117 96 90 82 74 75 74 81 77
1710.0 64 75 89 95 89 90 93 98 99 89
1750.0 79 69 68 54 43 50 47 37 42 48
1790.0 44 49 62 62 63 91 109 137 182 236
1830.0 291 321 336 342 309 253 204 156 125 106
1870.0 81 65 60 52 39 33 35 45 40 35
1910.0 41 34 23 27 24 17 20 31 42 36
1950.0 29 29 32 38 40 46 62 59 47 57
1990.0 53 35 43 35 26 37 36 37 31 32
2030.0 36 27 19 21 27 31 38 45 33 19
2070.0 29 35 22 19 39 44 37 42 39 26
2110.0 28 31 31 24 23 33 27 26 26 23
2150.0 26 37 34 26 34 44 44 41 34 32
2190.0 49 52 40 33 33 37 37 36 40 50
2230.0 60 55 39 30 39 48 46 30 25 25
2270.0 17 26 47 57 44 43 41 41 44 49
2310.0 53 48 48 46 41 51 57 50 53 46
2350.0 42 44 50 50 39 46 55 63 64 55
2390.0 47 49 62 70 69 60 45 40 44 56
2430.0 47 44 48 42 32 33 39 38 31 22
2470.0 21 26 37 37 48 58 62 63 51 44
2510.0 37 32 42 48 47 59 59 57 66 66
2550.0 62 51 49 74 78 71 74 63 56 71
2590.0 87 94 97 82 81 98 103 99 103 105
2630.0 102 111 126 130 140 142 161 183 176 174
2670.0 184 195 208 214 223 229 229 231 229 212
2710.0 215 227 228 244 259 266 269 274 290 307
2750.0 320 319 320 333 335 329 338 368 395 410
2790.0 421 448 492 536 574 606 666 759 858 979
2830.0 1124 1309 1533 1781 2049 2334 2628 2967 3365 3786
2870.0 4262 4791 5218 5427 5490 5470 5383 5358 5540 5926
2910.0 6466 7109 7811 8486 9107 9642 9980 10000 9671 9166
2950.0 8662 8313 8303 8594 8827 8640 8036 7068 5836 4639
2990.0 3721 3072 2611 2303 2085 1861 1696 1544 1359 1198
3030.0 1062 947 864 827 831 839 860 904 982 1125
3070.0 1296 1549 1850 2059 2065 1911 1679 1288 880 625
3110.0 475 374 309 269 224 207 191 191 185 160
3150.0 159 156 160 141 128 152 147 125 129 117
3190.0 94 98 112 87 64 62 49 52 57 51
3230.0 43 32 21 20 33 39 32 32 46 57
3270.0 79 74 54 58 54 59 68 64 56 33
3310.0 26 42 29 20 57 63 58 64 58 53
3350.0 58 58 57 48 58 75 64 69 79 70
3390.0 56 61 57 47 60 89 104 78 51 67
3430.0 82 72 38 29 56 64 79 67 45 62
3470.0 72 72 67 49 70 93 84 63 44 48
3510.0 77 89 59 43 56 70 89 64 36 72
3550.0 88 93 82 75 89 75 94 117 124 159
3590.0 181 197 235 296 381 508 616 690 769 816
3630.0 837 842 876 889 929 986 963 866 762 660
3670.0 529 393 284 221 179 165 153 127 131 126
3710.0 120 114 104 94 82 76 90 93 106 97
3750.0 73 82 72 71 71 80 92 92 92 81
3790.0 75 76 83 104 109 108 110 89 79 114
3830.0 145 111 91 94 94
##END=
