##TITLE=2,6-Dinitrobenzonitrile
##JCAMP-DX=4.24
##DATA TYPE=INFRARED SPECTRUM
##ORIGIN=EPA-IR VAPOR PHASE LIBRARY
##OWNER=SRD/NIST
Collection (C) 2018 copyright by the U.S. Secretary of Commerce
on behalf of the United States of America. All rights reserved.
##CAS REGISTRY NO=35213-00-4
##MOLFORM=C 7 H 3 N 3 O 4
##$NIST SOURCE=MSDC-IR
##STATE=gas
##XUNITS=1/CM
##YUNITS=ABSORBANCE
##XFACTOR=1.
##YFACTOR=0.001
##DELTAX=1.92898
##FIRSTX=549.8
##LASTX=4000.7
##FIRSTY=3.21
##MAXX=4000.7
##MINX=549.759
##MAXY=0.05795
##MINY=0
##NPOINTS=1790
##XYDATA=(X++(Y..Y))
549.759 3.21 2.8 3.02 3.16 2.2146 2.2666 3.26 2.87 1.9297 2.182
569.049 2.1099 1.49643 1.46785 1.131 1.5246 2.3575 2.5 2.53 2.83 2.55
588.339 2.67 2.7 2.3811 2.3008 1.9129 1.6101 1.8334 2.38 2.88 2.9
607.628 2.49 2.3641 1.9099 1.547 1.6897 1.7064 2.0513 2.2377 1.6145 0.94
626.918 1.3311 1.796 1.992 1.7473 1.3833 1.7887 1.8606 2.0176 2.2311 2.3891
646.208 2.68 2.1352 1.9597 1.8448 1.399 1.50446 1.7081 2.3597 2.2707 1.232
665.498 1.47636 2.0742 1.718 2.2099 2.2778 2.1112 2.54 2.8 2.91 3.12
684.787 3.57 3.43 3.14 3.41 3.67 3.68 4.35 5.38 5.72 6.39
704.077 8.22 9.48 10.13 10.88 11.19 11.5 11.52 11.68 10.96 9.68
723.367 9.47 9.32 9.56 9.66 9.99 11.23 11.89 12.56 13.65 13.82
742.657 12.86 11.31 10.26 9.21 8.32 7.83 7.29 6.51 5.34 4.42
761.947 3.95 3.7 3.65 3.37 3.23 3.04 2.76 2.77 2.72 2.61
781.236 2.2194 2.3741 2.78 2.77 2.72 2.75 2.8 2.47 2.66 3.18
800.526 2.86 2.94 2.89 2.62 2.94 3.91 4.92 4.93 5.3 6.15
819.816 6.54 6.77 6.29 5.67 6.01 5.97 5.63 5.85 5.35 5.16
839.106 5.15 4.44 4.04 3.44 2.77 2.57 2.3331 2.53 2.65 2.52
858.395 2.3804 2.53 3.04 2.65 1.6472 1.41468 1.7287 1.9125 2.0222 2.1776
877.685 2.41 2.63 3.01 2.7 2.51 2.92 3.16 3.12 3.28 3.61
896.975 4.23 4.92 5.52 6.25 6.3 6.63 7.17 7.2 6.84 6.32
916.265 5.64 4.55 3.89 3.48 3.32 2.69 2.113 2.0776 1.5887 1.3521
935.555 1.5637 1.135 1.057 1.215 1.032 1.167 1.3223 1.5729 1.6191 1.3152
954.844 0.914 0.872 1.196 1.299 1.4338 1.5775 1.40702 1.12 1.138 1.309
974.134 1.3806 1.45597 1.8916 2.0871 1.5795 1.5352 1.6696 1.6935 1.7677 1.7172
993.424 1.7833 1.7876 1.276 1.6071 2.52 2.2455 1.5302 1.5176 1.8138 1.43256
1012.714 1.241 0.833 0.955 1.277 0.506 0.807 1.076 1.154 1.103 0.901
1032.003 1.5644 1.5983 1.41661 1.127 1.213 2.2265 2.2003 1.19 1.48813 2.41
1051.293 1.8646 0.565 0 1.308 2.3939 2.1556 1.705 2.1404 2.73 2.1573
1070.583 2.48 3.42 2.72 2.51 2.77 1.7662 1.214 2.1615 2.67 1.6412
1089.873 1.6909 2.74 3.06 2.46 2.3727 1.8615 0.767 1.3132 2.54 2.0444
1109.163 1.123 1.41841 1.8512 2.0586 2.63 2.99 3.36 3.32 2.59 1.8871
1128.452 2.43 2.2704 1.8967 2.0907 1.9742 2.3975 1.9566 1.7385 1.9312 2.53
1147.742 2.2504 3.04 3.27 1.8869 2.1638 2.47 2.66 2.3174 1.3774 1.3874
1167.032 1.8149 1.7717 1.45973 2.2298 2.91 2.138 1.9014 2.68 2.91 2.89
1186.322 2.78 3.34 3.72 2.98 2.0821 2.0485 3.35 3.63 3.33 3.64
1205.611 4.93 4.56 4.01 4.24 3.73 4.31 4.71 3.84 3.19 3.72
1224.901 4.87 3.75 3.16 3.67 3.13 3.9 4.18 3.43 3.84 3.97
1244.191 2.67 2.2208 2.68 3.21 3.61 3.67 4 3.92 3.15 2.82
1263.481 3.32 3.71 3.43 3.3 3.56 3.87 3.78 3.62 3.69 4.01
1282.771 4 3.9 4.18 4.02 3.84 4.11 4.48 4.65 4.45 4.4
1302.060 4.7 4.95 5.19 5.34 5.36 5.61 6 6.46 7.19 8.1
1321.350 9.26 10.52 12.47 14.99 17.89 21.6 25.97 30.82 35.63 40.07
1340.640 43.62 45.81 46.41 44.83 41.67 37.08 31.4 25.48 19.93 15.82
1359.930 12.99 10.58 8.74 7.44 6.52 5.84 5.4 5.08 4.74 4.57
1379.219 4.22 3.88 3.85 3.86 3.69 3.64 3.66 3.63 3.69 3.57
1398.509 3.49 3.59 3.42 3.24 3.24 3.22 3.2 3.26 3.27 3.24
1417.799 2.89 2.44 2.59 2.8 2.69 2.52 2.54 2.64 2.64 2.49
1437.089 2.7 2.75 2.63 2.69 2.82 2.9 2.84 2.79 2.93 3.13
1456.378 2.96 2.85 2.87 2.73 2.73 2.79 2.47 2.2027 2.52 2.97
1475.668 2.84 2.59 2.62 2.54 2.52 2.77 2.92 2.92 3.3 3.77
1494.958 3.84 3.78 3.94 4.61 5.12 5.34 5.8 6.32 7 7.56
1514.248 8.02 8.68 9.05 9.41 10.44 11.32 12.28 13.4 14.46 15.58
1533.538 17.22 18.9 20.29 22.53 25.33 28.09 31.45 34.9 38.2 42.56
1552.827 46.54 50.9 54.03 56.05 57.88 57.95 56.37 54.35 51.56 47.79
1572.117 43.68 39.99 37.23 34.66 32.47 30.87 29.01 26.81 25 22.68
1591.407 20.33 18.68 17.14 15.11 13.77 13.11 12.11 11.17 10.34 9.86
1610.697 9.73 9.35 8.75 8.34 8.03 7.51 6.93 6.51 6.23 5.63
1629.986 5.12 4.87 4.73 4.54 3.97 3.84 3.81 3.5 3.14 3.13
1649.276 3.13 3.07 3.25 3.04 2.81 2.74 2.61 2.58 2.7 2.6
1668.566 2.44 2.44 2.6 2.58 2.3684 2.3579 2.2923 2.3082 2.3998 2.2031
1687.856 2.1861 2.3686 2.2289 2.0689 2.0336 2.1649 2.49 2.3608 2.2233 2.2537
1707.146 2.2426 2.162 2.4097 2.53 2.1538 2.088 2.2203 2.6 2.56 2.4084
1726.435 2.62 2.46 2.3422 2.399 2.2046 2.0243 2.2181 2.2781 2.3226 2.3465
1745.725 2.2312 2.2085 2.2153 2.2867 2.298 2.3498 2.1769 1.9261 1.7056 1.6144
1765.015 1.7902 1.8687 1.9677 2.1362 1.9733 1.8292 1.9427 1.8313 1.7397 1.7164
1784.305 1.7656 1.776 1.7814 1.8768 1.8011 1.8262 1.7988 1.7454 1.7359 1.7734
1803.594 1.7472 1.6468 1.7555 2.0013 2.1344 1.9653 1.6131 1.38 1.5314 1.6674
1822.884 1.4892 1.43648 1.7688 2.0286 1.8833 1.8199 1.8005 1.948 2.0492 1.9345
1842.174 1.9065 1.8726 1.8815 1.8953 1.932 1.8366 1.8047 1.7811 1.6041 1.5474
1861.464 1.749 1.8697 1.7428 1.6611 1.6007 1.7531 1.8767 1.6968 1.45333 1.4634
1880.754 1.6769 1.8446 1.9082 1.8952 1.9074 1.9192 1.8767 1.8149 1.6956 1.7856
1900.043 1.8932 1.8407 2.0884 2.3007 2.1432 2.0708 2.1914 1.9996 1.7558 1.6806
1919.333 1.688 1.68 1.7475 1.8273 1.5648 1.516 1.6134 1.567 1.6333 1.6514
1938.623 1.6041 1.5173 1.3642 1.5475 1.6888 1.5731 1.7098 1.6186 1.6274 1.8525
1957.913 1.9062 2.1731 2.1986 1.973 2.0019 2.0269 1.9733 1.9028 1.8071 1.8695
1977.202 1.9 1.6697 1.46498 1.44159 1.49475 1.6198 1.6395 1.4726 1.5456 1.6283
1996.492 1.5777 1.5635 1.5762 1.50714 1.5715 1.5928 1.6964 1.7304 1.5779 1.6257
2015.782 1.6719 1.5957 1.5221 1.5965 1.6147 1.395 1.3603 1.5561 1.48407 1.50715
2035.072 1.6196 1.6985 1.5173 1.40451 1.5214 1.5481 1.5091 1.5989 1.5859 1.5403
2054.362 1.551 1.533 1.6825 1.6675 1.6377 1.6131 1.46602 1.50328 1.5363 1.5638
2073.651 1.6563 1.5522 1.6414 1.49471 1.263 1.5518 1.6015 1.47547 1.5337 1.44237
2092.941 1.3817 1.3 1.228 1.3689 1.42489 1.45627 1.45208 1.5609 1.5495 1.3949
2112.231 1.3838 1.42874 1.3896 1.3958 1.3762 1.3189 1.3647 1.218 1.212 1.3592
2131.521 1.3969 1.37 1.47605 1.48934 1.44759 1.6145 1.75 1.6007 1.4779 1.50803
2150.810 1.46092 1.5206 1.50727 1.3702 1.3258 1.3545 1.3701 1.289 1.251 1.255
2170.100 1.3721 1.5436 1.5425 1.3801 1.3131 1.47745 1.7123 1.757 1.7107 1.6427
2189.390 1.5138 1.46375 1.40001 1.3344 1.216 1.3217 1.42557 1.47682 1.42821 1.279
2208.680 1.3426 1.541 1.696 1.43767 1.3605 1.5878 1.5952 1.7412 1.7946 1.7449
2227.970 1.8674 1.8762 1.8274 1.8544 1.8637 2.0127 2.1103 2.0879 2.062 1.9974
2247.259 2.0457 2.0489 1.9832 1.7975 1.6598 1.46418 1.3783 1.5516 1.6118 1.7379
2266.549 1.6919 1.3852 1.3207 1.3226 1.25 1.199 1.303 1.5161 1.41347 1.3765
2285.839 1.3207 1.274 1.47368 1.43388 1.41605 1.252 1.304 1.3743 1.3 1.40143
2305.129 1.41719 1.49651 1.5724 1.5372 1.214 1.079 1.211 1.192 1.141 1.3645
2324.418 1.3957 1.3856 1.185 0.983 1.087 1.13 1.47962 1.5299 1.185 1.188
2343.708 1.643 1.8259 1.7159 1.6985 1.5042 1.5994 1.6054 1.3793 1.47593 1.7775
2362.998 2.0867 2.0929 1.8987 1.9035 1.9521 1.8362 1.9515 1.9292 1.9243 1.9262
2382.288 1.9007 1.9003 1.8598 1.5986 1.49399 1.5948 1.6093 1.932 2.0205 2.071
2401.578 2.2418 2.0656 1.8325 1.6982 1.7372 1.7107 1.659 1.5256 1.5217 1.7407
2420.867 1.584 1.3678 1.3378 1.42781 1.4216 1.3155 1.41331 1.654 1.7273 1.5253
2440.157 1.38 1.279 1.165 1.202 1.3693 1.44981 1.266 1.3296 1.3798 1.3425
2459.447 1.7403 1.6547 1.3421 1.3653 1.48719 1.6995 1.8245 1.722 1.7029 1.8128
2478.737 1.7857 1.7131 1.46219 1.566 1.8218 1.6898 1.47262 1.44209 1.48571 1.47903
2498.026 1.5313 1.6569 1.5853 1.3514 1.31 1.5104 1.49186 1.28 1.573 1.6367
2517.316 1.292 1.261 1.231 1.165 1.3328 1.5338 1.46851 1.254 1.23 1.514
2536.606 1.7414 1.5257 1.236 1.24 1.5338 1.3738 1.18 1.255 1.142 1.265
2555.896 1.3247 1.3467 1.4745 1.49007 1.301 1.212 1.259 1.3112 1.45139 1.5761
2575.186 1.41363 1.3759 1.5463 1.4836 1.713 1.7659 1.6534 1.5453 1.3498 1.5491
2594.475 1.6548 1.3866 1.112 1.16 1.192 1.3813 1.5448 1.46845 1.48046 1.42272
2613.765 1.49316 1.45199 1.3482 1.3359 1.3634 1.46262 1.43958 1.352 1.41367 1.49545
2633.055 1.44102 1.47217 1.6525 1.6184 1.45425 1.6591 2.0417 2.0099 1.8585 1.9851
2652.345 1.9234 1.9042 1.8436 1.5179 1.48594 1.329 0.976 1.069 1.3575 1.5535
2671.634 1.7476 1.9406 2.0303 2.1242 2.1253 2.2118 2.1183 1.9592 1.8671 1.7897
2690.924 1.6634 1.6733 1.9758 1.9737 1.9238 1.7481 1.5587 1.50998 1.46298 1.5804
2710.214 1.6391 1.6888 1.7825 1.8999 1.828 1.5524 1.46699 1.46485 1.47814 1.40466
2729.504 1.5396 1.47312 1.3623 1.7298 1.7312 1.5423 1.48911 1.5241 1.49105 1.74
2748.794 1.7715 1.47028 1.45086 1.3988 1.7043 2.0943 1.9152 1.5528 1.3423 1.3303
2768.083 1.45655 1.7301 1.45622 1.173 1.3696 1.45732 1.6305 1.50468 1.46367 1.784
2787.373 1.7507 1.5545 1.7338 1.9773 1.7911 1.47285 1.5475 1.6708 1.46125 1.43987
2806.663 1.6887 1.5182 1.3175 1.5139 1.8807 1.6897 1.218 1.088 1.155 1.167
2825.953 1.189 1.6832 1.6859 1.08 1.199 1.40309 1.15 1.201 1.194 1.273
2845.242 1.6054 1.6381 1.5571 1.7984 1.8629 1.8688 2.0725 2.187 2.026 1.7608
2864.532 1.7792 1.9519 2.0349 1.9984 1.9555 1.9141 1.8647 1.7663 1.7287 1.976
2883.822 2.41 2.62 2.3811 2.2182 2.84 2.86 2.51 2.48 2.46 2.4053
2903.112 2.3604 2.3736 2.2192 2.173 2.62 2.48 1.9818 2.1943 2.0625 1.9502
2922.401 1.9575 1.6658 1.5719 1.45569 1.7323 2.0655 1.7648 1.6187 1.3298 1.3364
2941.691 1.8025 1.8926 2.0267 1.8964 1.7921 1.9618 1.6806 1.5273 1.7138 1.5848
2960.981 1.523 1.7315 2.0426 1.6265 1.117 1.056 1 1.3431 1.6622 1.6483
2980.271 1.5838 1.869 1.9376 1.514 1.5593 1.5906 1.3389 1.235 1.3847 1.7502
2999.561 1.592 1.3665 1.3823 1.368 1.5947 1.806 1.5546 1.334 1.41499 1.3691
3018.850 1.29 1.40705 1.577 1.7083 1.9837 2.0671 1.655 1.6849 1.7048 1.5228
3038.140 1.5543 1.45147 1.7132 2.2207 2.0897 1.8468 1.5704 1.3566 1.3249 1.5734
3057.430 1.9646 1.8529 1.273 1.3327 1.6917 1.48045 1.49645 1.7012 2.0437 2.0431
3076.720 1.6194 1.6452 1.7757 1.8839 1.9738 2.098 2.3458 2.2949 2.196 2.43
3096.009 2.42 2.073 2.3425 2.66 2.66 2.2989 2.0351 1.9722 1.818 1.7158
3115.299 1.5872 1.955 1.8837 1.5615 1.3761 1.231 1.6562 2.0378 1.6437 1.42411
3134.589 1.5551 1.3926 1.47833 1.3551 1.3314 1.42152 1.48383 1.8114 1.6725 1.3891
3153.879 1.396 1.4109 1.3678 1.46331 1.4827 1.171 0.87 0.613 0.873 1.307
3173.169 1.263 1.113 1.019 1.32 1.7445 1.6944 1.5158 1.205 1.217 1.3465
3192.458 1.011 0.955 1.13 1.47385 1.47333 0.956 1.015 1.197 0.939 0.949
3211.748 1.097 0.817 1.208 1.46105 0.79 0.974 1.814 1.8894 1.3233 1.29
3231.038 1.47725 1.5646 1.6217 1.6677 1.762 1.6457 1.7972 1.7546 1.6867 1.7454
3250.328 1.6338 1.5931 1.5966 1.45815 1.297 1.49774 1.7808 1.871 1.8614 1.46036
3269.617 1.062 1.4364 1.297 0.998 1.45905 1.47509 1.40862 1.6873 1.537 1.167
3288.907 1.3861 1.7372 1.563 1.3572 1.4902 1.4131 0.976 1.109 1.5948 1.214
3308.197 0.797 0.759 0.986 1.221 0.956 1.3911 1.7529 1.9341 1.8133 1.247
3327.487 1.079 0.941 1.077 1.6713 1.901 1.624 1.3632 1.3939 1.5379 1.43812
3346.777 1.3431 1.5428 1.48489 1.074 1.112 1.3973 1.3423 1.277 1.3519 1.3916
3366.066 1.071 1.004 1.184 0.98 0.802 0.743 0.94 1.241 1.7736 1.9669
3385.356 1.4791 1.5478 1.9722 1.4504 1.40237 1.7271 1.5249 1.207 1.004 1.221
3404.646 1.518 1.44795 1.3848 1.267 1.44195 1.7269 1.234 1.249 1.7525 1.46633
3423.936 1.065 1.176 1.6565 1.9049 1.524 1.46233 1.6901 1.67 1.9214 2.1008
3443.225 1.6147 1.44088 1.44862 1.291 1.201 1.149 1.3952 1.9064 1.9992 1.6821
3462.515 1.8305 1.8802 1.9884 1.9687 1.6715 1.27 0.773 1.132 1.7616 1.6424
3481.805 1.5868 1.8606 1.6125 1.50882 1.6082 1.584 1.5382 1.7021 2.0868 1.9245
3501.095 1.7009 1.44748 1.204 1.44248 1.44024 1.48979 1.47139 1.594 1.7638 1.8761
3520.385 1.889 1.7102 1.747 1.4474 1.48443 1.6374 1.5629 1.6312 1.6235 1.7034
3539.674 1.7633 1.42361 1.255 1.15 0.9 1.078 0.997 1.3584 1.6691 1.44515
3558.964 1.7192 1.9074 1.7278 1.23 1.115 1.4551 1.6142 1.7338 1.5341 1.296
3578.254 1.5384 1.278 0.897 1.391 1.5625 1.292 1.249 1.3254 1.129 1.01
3597.544 1.151 1.071 1.159 1.3854 1.863 1.5854 0.925 1.303 1.42675 0.975
3616.833 1.009 1.158 0.862 1.189 1.47941 1.273 1.46672 1.49719 0.988 1.3615
3636.123 1.7096 1.025 0.449 0.993 2.1022 2.0704 0.846 0.704 1.3669 1.3887
3655.413 1.40273 1.3666 1.011 0.39 0.507 1.3125 1.9891 1.6879 0.627 0.839
3674.703 1.3673 1.292 1.3182 1.171 0.692 0.595 0.814 0.977 0.642 0.735
3693.993 0.915 0.29 0.32 0.732 1.149 1.188 0.926 0.976 0.616 0.19
3713.282 0.44 0.897 0.947 1.092 0.981 1.095 1.236 0.958 0.999 1.186
3732.572 1.6833 2.3448 2.51 2.3032 1.761 0.91 1.009 1.131 1.3864 1.6962
3751.862 2.0066 1.6252 1.3257 1.6992 1.8999 2.0351 1.6154 1.183 1.3611 1.7
3771.152 1.8781 1.8885 1.47518 0.828 0.718 1.291 1.5835 1.728 1.7954 2.0586
3790.441 2.44 2.0727 1.03 0.672 0.667 0.2 0.463 0.918 1.134 1.42702
3809.731 1.106 0.853 0.855 1.032 1.47975 1.4201 0.882 0.53 0.584 0.788
3829.021 1.036 1.031 0.81 1.074 1.094 0.641 0.38 0.932 1.7243 1.641
3848.311 1.47398 1.204 1.204 1.7466 2.1418 2.0308 0.981 1.009 1.47268 1.007
3867.601 1.12 1.6745 1.5351 1.299 2.1535 2.3104 1.21 1.069 1.292 0.681
3886.890 0.789 1.269 1.3901 1.8443 1.7049 1.3638 1.8678 1.40351 0.598 0.75
3906.180 1.3674 1.48886 1.45867 1.6486 1.3213 0.958 0.927 1.092 1.191 1.5449
3925.470 2.2822 2.2792 1.7259 1.542 1.6041 1.42424 1.108 1.125 1.5754 1.7264
3944.760 1.41499 1.3596 1.094 1.038 1.5823 1.549 1.081 1.102 1.193 1.3128
3964.049 1.2 0.952 1.8728 2.55 1.8964 1.6154 1.50483 1.6657 1.876 1.41862
3983.339 1.049 0.996 1.414 1.9988 1.6144 1.014 1.008 0.981 1.075 0.954
##END=
