##TITLE=Allylcyclopentane
##JCAMP-DX=4.24
##DATA TYPE=INFRARED SPECTRUM
##ORIGIN=NIST Mass Spectrometry Data Center
##OWNER=NIST Standard Reference Data Program
Collection (C) 2018 copyright by the U.S. Secretary of Commerce
on behalf of the United States of America. All rights reserved.
##CAS REGISTRY NO=3524-75-2
##MOLFORM=C 8 H 14
##$NIST SOURCE=MSDC-IR
##SPECTROMETER/DATA SYSTEM=HP-GC/MS/IRD
##STATE=gas
##XUNITS=1/CM
##YUNITS=ABSORBANCE
##XFACTOR=1.0
##YFACTOR=0.000002600
##DELTAX=4.0
##FIRSTX=550.0
##LASTX=3846.0
##FIRSTY=0.000486
##MAXX=3846
##MINX=550
##MAXY=0.026
##MINY=0
##NPOINTS=825
##XYDATA=(X++(Y..Y))
550.0 187 65 0 54 68 106 99 46 45 62
590.0 64 65 73 62 78 107 101 105 143 177
630.0 175 178 182 170 158 187 216 195 179 177
670.0 157 129 121 121 115 100 79 76 89 67
710.0 70 74 55 70 66 61 45 33 36 35
750.0 56 55 42 53 69 58 54 70 59 53
790.0 51 43 54 78 92 84 94 107 119 132
830.0 149 154 176 218 229 232 248 244 260 298
870.0 323 360 405 464 564 705 875 1105 1414 1716
910.0 1882 1921 1859 1646 1329 1035 822 686 599 529
950.0 489 478 470 473 497 526 572 647 737 825
990.0 890 898 852 749 621 479 372 312 253 222
1030.0 214 200 190 187 203 215 197 177 171 155
1070.0 141 125 119 113 106 101 90 74 61 57
1110.0 70 80 66 63 52 55 66 70 77 84
1150.0 113 108 113 130 115 102 109 107 102 95
1190.0 94 114 116 106 99 94 110 116 110 114
1230.0 115 115 120 129 130 130 127 114 114 132
1270.0 136 138 148 154 161 167 168 172 172 164
1310.0 160 167 167 167 166 172 183 187 209 226
1350.0 223 223 215 195 168 137 126 123 124 131
1390.0 126 137 167 200 239 276 301 330 381 441
1430.0 503 561 630 689 711 712 677 615 559 504
1470.0 450 395 352 314 286 254 210 168 148 136
1510.0 120 105 96 90 83 77 75 68 61 64
1550.0 69 70 62 55 61 65 58 49 61 68
1590.0 62 70 78 85 111 144 176 231 320 445
1630.0 591 712 764 759 709 585 406 259 172 121
1670.0 92 77 62 59 56 42 35 46 50 37
1710.0 29 29 23 21 31 33 29 30 30 26
1750.0 26 26 19 24 38 41 35 29 33 38
1790.0 45 54 54 58 73 94 124 165 205 226
1830.0 229 224 191 147 116 88 70 57 45 39
1870.0 40 38 29 23 23 24 27 30 31 22
1910.0 23 26 22 25 31 32 24 19 25 29
1950.0 28 30 30 28 34 43 45 41 38 35
1990.0 30 31 32 23 19 22 21 21 22 19
2030.0 19 21 17 16 24 22 18 19 19 22
2070.0 24 26 24 13 16 22 26 27 27 34
2110.0 25 25 24 21 26 30 32 25 29 34
2150.0 35 31 30 34 32 32 36 34 35 38
2190.0 37 33 32 32 32 28 34 43 43 41
2230.0 45 45 44 42 38 40 41 42 35 30
2270.0 37 39 29 26 30 30 30 37 40 38
2310.0 41 40 36 35 34 38 40 37 39 37
2350.0 33 28 33 27 27 32 30 37 42 29
2390.0 27 31 29 27 29 28 30 32 24 23
2430.0 27 31 34 31 27 21 17 27 36 44
2470.0 37 27 32 36 35 36 38 38 46 43
2510.0 32 31 38 34 37 50 47 39 42 44
2550.0 39 50 60 56 49 49 56 59 70 72
2590.0 69 76 68 51 59 73 70 67 69 69
2630.0 69 67 63 66 65 62 64 59 55 56
2670.0 53 64 77 77 77 81 81 81 85 88
2710.0 93 95 92 94 99 104 104 104 121 128
2750.0 129 131 138 144 160 162 158 173 187 191
2790.0 201 221 245 278 310 348 405 475 561 668
2830.0 791 942 1105 1267 1448 1668 1951 2294 2663 3064
2870.0 3491 3847 4043 4116 4131 4089 4069 4148 4334 4592
2910.0 4905 5215 5484 5708 5911 6153 6511 7034 7704 8409
2950.0 9042 9557 10000 9750 8629 7433 6312 5206 4199 3374
2990.0 2768 2357 2058 1815 1591 1387 1199 1020 854 716
3030.0 619 566 523 488 485 507 540 595 678 786
3070.0 921 1099 1268 1315 1255 1161 1008 749 501 364
3110.0 262 198 169 160 156 143 138 132 113 100
3150.0 97 102 111 95 82 76 70 81 74 67
3190.0 68 65 68 72 71 61 55 58 55 44
3230.0 49 70 80 68 58 62 55 54 53 35
3270.0 35 44 41 43 45 44 37 25 39 56
3310.0 59 57 46 37 55 68 43 27 27 28
3350.0 29 37 35 33 32 26 29 25 33 38
3390.0 36 43 34 34 45 43 40 36 32 45
3430.0 52 45 41 41 36 46 52 40 39 50
3470.0 62 61 52 49 43 50 49 33 27 21
3510.0 16 28 55 69 70 63 52 58 43 40
3550.0 58 58 59 64 58 39 32 35 41 43
3590.0 40 41 43 45 38 33 48 54 53 36
3630.0 21 37 43 32 48 53 49 40 41 68
3670.0 59 46 50 46 50 58 54 40 46 51
3710.0 63 76 63 55 53 52 58 47 50 50
3750.0 58 62 56 62 63 63 59 65 66 64
3790.0 67 71 75 62 68 91 81 62 57 60
3830.0 64 70 71 45 41
##END=
