##TITLE=Benzoin methyl ether
##JCAMP-DX=4.24
##DATA TYPE=INFRARED SPECTRUM
##ORIGIN=EPA-IR VAPOR PHASE LIBRARY
##OWNER=SRD/NIST
Collection (C) 2018 copyright by the U.S. Secretary of Commerce
on behalf of the United States of America. All rights reserved.
##CAS REGISTRY NO=3524-62-7
##MOLFORM=C 15 H 14 O 2
##$NIST SOURCE=MSDC-IR
##STATE=gas
##XUNITS=1/CM
##YUNITS=ABSORBANCE
##XFACTOR=1.
##YFACTOR=0.001
##DELTAX=1.92934
##FIRSTX=549.9
##LASTX=3999.5
##FIRSTY=3.85
##MAXX=3999.53
##MINX=549.863
##MAXY=0.13201
##MINY=0
##NPOINTS=1789
##XYDATA=(X++(Y..Y))
549.863 3.85 3.86 3.68 3.55 3.54 3.62 3.74 3.75 3.8 3.97
569.156 4.24 4.43 4.55 4.91 5.25 5.77 6.39 7.08 8.08 9.33
588.450 10.95 12.84 14.79 17.09 19.6 22.55 26.44 31.24 36.72 42.12
607.743 46.86 50.35 52.41 52.81 51.56 49.15 45.76 41.58 37.15 32.85
627.037 29.03 26.2 24.58 24.12 24.54 25.49 26.6 27.5 27.98 27.91
646.330 27.25 26.15 24.74 23.41 22.72 22.69 23.32 24.61 26.28 28.12
665.624 30.02 31.89 33.72 35.46 37.39 39.64 42.48 46.42 51.88 59.09
684.917 68.31 79.29 91.4 103.48 113.53 120 122.32 120.07 113.53 104.1
704.210 93.57 83.93 76.39 71.06 67.36 64.58 61.97 58.94 55.26 51.03
723.504 46.86 43.21 40.25 38.06 36.64 35.93 35.8 36.04 36.52 37.12
742.797 37.63 37.82 37.46 36.53 35.32 33.86 32.27 30.86 29.65 28.57
762.091 27.44 26.21 24.84 23.35 21.85 20.5 19.15 17.82 16.63 15.39
781.384 14.16 13.01 11.97 11.18 10.64 10.17 9.81 9.63 9.47 9.22
800.678 8.97 8.87 8.82 8.74 8.87 9.09 9.37 9.98 10.85 11.78
819.971 12.68 13.46 13.91 14.06 13.91 13.59 13.28 13.28 13.61 14.13
839.264 14.71 15.14 15.33 15.32 14.95 14.26 13.48 12.58 11.6 10.86
858.558 10.27 9.78 9.5 9.25 8.98 8.66 8.37 8.1 7.65 7.15
877.851 6.72 6.32 6.02 5.9 5.88 5.85 5.98 6.14 6.19 6.36
897.145 6.57 6.79 6.99 7.18 7.5 7.89 8.31 8.71 9.11 9.53
916.438 9.96 10.38 10.79 11.26 11.82 12.48 13.24 14.09 15.05 16.07
935.732 17.04 17.98 18.9 19.59 19.94 19.97 19.61 18.94 18.05 17.02
955.025 16.08 15.39 15.01 14.86 14.87 15.1 15.48 15.89 16.4 17.06
974.318 17.78 18.58 19.47 20.42 21.42 22.29 22.96 23.35 23.48 23.42
993.612 23.32 23.32 23.39 23.49 23.71 24.07 24.57 25.12 25.73 26.69
1012.905 28.14 30.09 32.34 34.53 36.36 37.69 38.35 37.89 36.07 33.29
1032.199 30.21 27.33 24.67 22.3 20.68 19.86 19.63 19.65 19.6 19.44
1051.492 19.2 18.98 18.99 19.27 20 21.22 22.9 24.93 27.08 29.19
1070.786 31.22 32.95 34.33 35.5 36.56 37.8 39.6 42.27 45.82 50.4
1090.079 56.26 63.19 70.9 79.2 87.74 96.24 104.31 111.76 118.48 124.14
1109.372 128.55 131.29 132.01 130.13 125.29 117.79 108.01 96.72 84.91 73.63
1128.666 63.36 54.43 47.2 41.58 37.08 33.44 30.56 28.38 26.75 25.53
1147.959 24.63 24.13 23.95 23.92 24.14 24.37 24.64 25 25.71 27.18
1167.253 29.43 32.92 37.98 44.61 52.38 60.38 67.19 72.21 75.57 76.94
1186.546 76.92 76.4 75.91 76.41 77.74 79 80.03 80.38 79.92 79.03
1205.840 77.78 76.55 74.95 72.67 69.71 66.17 62.77 59.68 57.03 55.04
1225.133 53.87 53.43 53.44 53.56 53.75 53.9 53.46 52.66 51.69 50.5
1244.426 49.25 47.88 46.55 45.3 44.01 43.02 42.4 42.06 42.27 42.94
1263.720 43.93 45.36 47.2 49.27 51.34 53.14 54.49 55.06 54.5 52.91
1283.013 50.29 46.8 42.99 39.04 35.32 32.19 29.66 27.69 26.19 25.05
1302.307 24.11 23.4 22.99 22.73 22.49 22.24 21.97 21.68 21.28 20.85
1321.600 20.45 20.08 19.79 19.62 19.62 19.76 19.89 19.98 19.95 19.82
1340.894 19.55 19.07 18.46 17.75 16.91 15.96 14.95 13.92 12.87 11.88
1360.187 11 10.22 9.58 9.06 8.66 8.35 8.16 8 7.79 7.61
1379.480 7.44 7.16 6.8 6.43 6.04 5.73 5.49 5.22 5.01 4.92
1398.774 4.82 4.78 4.74 4.73 4.77 4.81 4.92 5.07 5.22 5.42
1418.067 5.7 6.08 6.53 7.02 7.56 8.23 9.13 10.35 12.05 14.34
1437.361 17.57 21.62 26.38 31.27 35.29 37.87 38.74 37.79 35.26 31.57
1456.654 27.05 23.07 20.33 18.26 16.73 15.55 14.65 13.93 13.28 12.75
1475.948 12.41 12.18 12.22 12.68 13.59 14.96 16.84 19.05 21.11 22.38
1495.241 22.67 21.89 20.13 17.59 14.6 11.78 9.46 7.96 7.07 6.5
1514.534 6.11 5.89 5.76 5.62 5.6 5.63 5.73 5.83 5.95 6.01
1533.828 6.02 6.08 6.05 5.98 5.99 6.02 6.06 6.05 6.04 6.12
1553.121 6.23 6.31 6.47 6.72 7.07 7.51 8.1 8.9 9.92 11.14
1572.415 12.5 13.87 15.25 16.45 17.31 17.9 18.26 18.62 19.15 20.04
1591.708 21.39 22.98 24.41 25.29 25.35 24.39 22.54 20.13 17.47 14.92
1611.002 12.85 11.33 10.33 9.54 8.93 8.47 8.11 7.77 7.46 7.24
1630.295 7.11 7.08 7.12 7.2 7.36 7.61 7.91 8.23 8.66 9.17
1649.588 9.67 10.19 10.82 11.48 12.24 13.08 14.09 15.4 16.94 18.7
1668.882 20.95 23.72 27.15 31.5 37.21 43.99 52.35 61.75 72.57 83.8
1688.175 93.7 102.15 107.8 110.17 109.25 106.22 102.02 97.8 95.06 93.39
1707.469 92.74 92.21 90.71 87.34 81.75 74.02 64.82 55.73 47.07 39.4
1726.762 32.98 27.8 23.68 20.47 17.79 15.71 14.08 12.69 11.64 10.75
1746.056 10 9.33 8.78 8.34 7.97 7.6 7.26 6.97 6.71 6.49
1765.349 6.31 6.19 6.14 6.06 5.98 5.9 5.77 5.65 5.53 5.42
1784.642 5.41 5.55 5.84 6.17 6.57 7.09 7.63 8.12 8.54 8.77
1803.936 8.83 8.72 8.43 7.96 7.4 6.87 6.36 5.84 5.4 5.04
1823.229 4.7 4.4 4.18 3.95 3.72 3.59 3.49 3.37 3.31 3.26
1842.523 3.1873 3.1586 3.197 3.175 3.1512 3.1519 3.1401 3.1724 3.2059 3.25
1861.816 3.33 3.44 3.54 3.66 3.84 4.01 4.18 4.41 4.59 4.75
1881.110 4.93 5.07 5.23 5.37 5.4 5.47 5.57 5.56 5.51 5.42
1900.403 5.33 5.23 5.05 4.89 4.75 4.57 4.39 4.2 4.08 4.02
1919.696 3.94 3.85 3.78 3.75 3.76 3.83 4.02 4.29 4.64 5.01
1938.990 5.42 5.82 6.17 6.54 6.87 7.11 7.27 7.38 7.42 7.4
1958.283 7.23 7.01 6.75 6.35 5.89 5.43 4.94 4.47 4.01 3.63
1977.577 3.32 3.0676 2.8963 2.7656 2.6438 2.5589 2.482 2.3994 2.3493 2.3732
1996.870 2.3491 2.31172 2.30645 2.27359 2.29955 2.30496 2.26845 2.22963 2.22525 2.26918
2016.164 2.27325 2.27073 2.29039 2.3294 2.3347 2.3338 2.3933 2.4404 2.4428 2.421
2035.457 2.4616 2.4897 2.4839 2.5352 2.5707 2.6004 2.6499 2.6972 2.7452 2.7606
2054.750 2.8031 2.8657 2.8678 2.8643 2.8894 2.9427 2.9473 2.9179 2.9223 2.9136
2074.044 2.9037 2.9045 2.8982 2.911 2.9239 2.885 2.8426 2.8163 2.7488 2.6828
2093.337 2.6618 2.652 2.5939 2.4917 2.433 2.4017 2.3568 2.30842 2.24238 2.22306
2112.631 2.21449 2.1453 2.1285 2.115 2.05 2.02 2.04 2.041 1.992 1.969
2131.924 1.934 1.892 1.881 1.854 1.84 1.828 1.822 1.828 1.841 1.827
2151.218 1.797 1.782 1.787 1.806 1.816 1.822 1.828 1.859 1.863 1.853
2170.511 1.871 1.885 1.909 1.92 1.907 1.915 1.886 1.871 1.892 1.866
2189.804 1.834 1.824 1.806 1.746 1.711 1.722 1.726 1.733 1.732 1.71
2209.098 1.677 1.663 1.645 1.663 1.717 1.683 1.633 1.625 1.613 1.6
2228.391 1.59 1.611 1.596 1.582 1.619 1.619 1.609 1.603 1.6 1.608
2247.685 1.639 1.67 1.67 1.642 1.648 1.688 1.683 1.642 1.629 1.652
2266.978 1.691 1.715 1.716 1.737 1.771 1.772 1.805 1.872 1.882 1.844
2286.272 1.85 1.847 1.784 1.743 1.747 1.747 1.73 1.764 1.803 1.844
2305.565 1.914 2.03 2.21468 2.3375 2.4706 2.6639 2.7328 2.6975 2.6299 2.5101
2324.858 2.31219 2.1337 2.069 2.071 2.105 2.1573 2.1903 2.2093 2.24962 2.23514
2344.152 2.1647 2.078 2.017 1.974 1.922 1.857 1.824 1.809 1.776 1.785
2363.445 1.788 1.776 1.832 1.845 1.803 1.819 1.788 1.739 1.729 1.745
2382.739 1.769 1.799 1.803 1.803 1.808 1.769 1.78 1.771 1.766 1.784
2402.032 1.776 1.75 1.729 1.736 1.752 1.769 1.759 1.716 1.72 1.734
2421.326 1.679 1.614 1.59 1.599 1.599 1.591 1.578 1.542 1.526 1.521
2440.619 1.527 1.544 1.513 1.481 1.487 1.475 1.441 1.433 1.457 1.475
2459.912 1.46 1.441 1.43 1.428 1.411 1.404 1.428 1.429 1.438 1.473
2479.206 1.486 1.493 1.471 1.483 1.509 1.508 1.492 1.521 1.545 1.534
2498.499 1.563 1.565 1.57 1.563 1.538 1.537 1.561 1.559 1.54 1.562
2517.793 1.563 1.526 1.503 1.476 1.468 1.456 1.466 1.496 1.506 1.494
2537.086 1.5 1.52 1.525 1.548 1.533 1.528 1.572 1.6 1.611 1.578
2556.380 1.575 1.606 1.62 1.635 1.651 1.681 1.696 1.676 1.714 1.78
2575.673 1.823 1.904 1.982 1.979 2.011 2.098 2.1496 2.2034 2.24124 2.28795
2594.966 2.3569 2.3754 2.3486 2.30614 2.27262 2.24229 2.196 2.1614 2.116 2.079
2614.260 2.077 2.045 2.076 2.095 2.03 2.035 2.052 2.033 2.003 1.973
2633.553 1.96 1.901 1.884 1.95 1.932 1.919 1.922 1.901 1.864 1.874
2652.847 1.888 1.865 1.88 1.868 1.84 1.847 1.819 1.76 1.779 1.838
2672.140 1.748 1.659 1.749 1.763 1.724 1.659 1.609 1.669 1.666 1.628
2691.434 1.633 1.665 1.684 1.662 1.715 1.7 1.699 1.727 1.709 1.728
2710.727 1.77 1.783 1.755 1.771 1.759 1.801 1.834 1.797 1.834 1.913
2730.020 1.944 1.984 2.031 2.031 2.048 2.087 2.1242 2.22052 2.23043 2.1637
2749.314 2.25452 2.3302 2.30298 2.328 2.4994 2.6603 2.7319 2.8138 2.8209 2.8756
2768.607 3.065 3.1606 3.27 3.41 3.58 3.78 3.95 4.15 4.36 4.61
2787.901 4.91 5.21 5.49 5.83 6.11 6.41 6.82 7.29 7.7 8.16
2807.194 8.76 9.48 10.35 11.42 12.87 14.68 16.93 19.91 23.49 27.48
2826.488 31.85 36.08 39.42 41.42 41.63 40.3 37.77 34.06 29.92 25.93
2845.781 22.42 19.78 17.88 16.61 15.86 15.61 15.62 15.7 16.09 16.77
2865.074 17.65 18.62 19.66 20.76 21.89 22.84 23.7 24.48 24.99 25.36
2884.368 25.67 25.87 26.04 26.18 26.11 25.97 25.83 25.77 25.79 25.84
2903.661 26.07 26.44 26.88 27.4 27.94 28.37 28.88 29.34 29.68 30.15
2922.955 30.88 31.88 33.12 34.65 36.44 38.36 40.22 41.83 42.86 43.09
2942.248 42.5 41.08 38.91 36.16 33.02 29.94 27.04 24.19 21.77 19.85
2961.542 18.16 16.77 15.71 14.88 14.27 13.97 13.91 14.12 14.47 14.92
2980.835 15.76 16.98 18.55 20.39 22.5 24.87 27.13 28.87 30.06 30.52
3000.128 29.81 28.34 26.35 24.1 22.08 20.39 19.22 18.69 18.66 19.22
3019.422 20.53 22.3 24.44 27.03 29.93 32.64 35.01 36.94 38.12 38.4
3038.715 37.83 36.61 35.01 33.45 32.21 31.65 31.92 33.14 35.49 38.85
3058.009 43.09 48.18 54.02 60.2 66.45 72.22 76.41 78.01 76.91 73.42
3077.302 67.73 60.78 53.66 47.35 42.73 39.63 37.38 35.67 33.99 31.86
3096.596 29.28 26.51 23.81 21.23 18.92 16.81 14.94 13.39 11.89 10.41
3115.889 9.01 7.84 6.87 5.99 5.22 4.64 4.17 3.81 3.49 3.27
3135.182 3.2158 2.9924 2.8475 2.8078 2.723 2.6765 2.7711 2.8367 2.7052 2.7059
3154.476 2.7395 2.6398 2.6434 2.6686 2.5428 2.3644 2.1586 1.862 1.68 1.488
3173.769 1.18 1.09 1.09 0.99 0.87 0.73 0.68 0.76 0.74 0.66
3193.063 0.61 0.57 0.55 0.49 0.44 0.45 0.41 0.31 0.4 0.5
3212.356 0.37 0.37 0.4 0.37 0.31 0.33 0.36 0.33 0.29 0.25
3231.650 0.31 0.22 0.09 0.11 0 0.13 0.31 0.17 0.08 0.11
3250.943 0.26 0.33 0.28 0.14 0 0 0.13 0.34 0.39 0.25
3270.236 0.21 0.19 0.24 0.36 0.36 0.2 0.13 0.29 0.24 0.17
3289.530 0.17 0.06 0.07 0.16 0.19 0.26 0.19 0.17 0.2 0.26
3308.823 0.4 0.38 0.23 0.24 0.41 0.36 0.23 0.26 0.34 0.35
3328.117 0.35 0.31 0.33 0.42 0.43 0.45 0.57 0.59 0.6 0.77
3347.410 0.86 0.86 1.02 1.1 1.12 1.19 1.259 1.363 1.478 1.469
3366.704 1.432 1.371 1.295 1.21 1.17 1.19 1.254 1.304 1.21 1.15
3385.997 1.2 1.14 1.18 1.338 1.34 1.347 1.311 1.342 1.317 1.233
3405.290 1.2 1.19 1.13 0.99 0.99 0.94 0.86 0.78 0.72 0.79
3424.584 0.73 0.66 0.61 0.69 0.68 0.53 0.5 0.39 0.33 0.4
3443.877 0.44 0.53 0.59 0.42 0.28 0.31 0.33 0.27 0.34 0.31
3463.171 0.18 0.22 0.27 0.31 0.32 0.38 0.39 0.37 0.4 0.51
3482.464 0.5 0.49 0.46 0.21 0.17 0.27 0.28 0.32 0.39 0.45
3501.758 0.41 0.33 0.39 0.44 0.37 0.33 0.33 0.3 0.32 0.34
3521.051 0.31 0.25 0.24 0.32 0.4 0.4 0.46 0.47 0.41 0.45
3540.344 0.46 0.42 0.43 0.48 0.4 0.26 0.31 0.42 0.53 0.57
3559.638 0.43 0.39 0.42 0.43 0.41 0.34 0.29 0.35 0.44 0.43
3578.931 0.43 0.47 0.44 0.29 0.24 0.27 0.36 0.44 0.4 0.36
3598.225 0.44 0.54 0.57 0.52 0.51 0.54 0.4 0.37 0.49 0.57
3617.518 0.54 0.57 0.54 0.54 0.59 0.55 0.55 0.6 0.78 0.86
3636.812 0.84 0.76 0.72 0.79 0.89 0.96 0.94 0.9 0.98 1.11
3656.105 1.08 1.06 0.98 0.98 1.07 1 0.9 0.89 0.94 0.98
3675.398 1.02 1 0.99 0.98 0.98 1.03 0.94 0.76 0.78 0.96
3694.692 1.07 1.05 1.05 1.1 1.18 1.232 1.236 1.15 1.11 1.12
3713.985 1.16 1.16 1.16 1.226 1.21 1.13 1.07 1.09 1.11 1.04
3733.279 0.94 0.89 0.9 0.87 0.87 0.93 0.93 0.96 0.98 0.98
3752.572 1 0.95 0.89 0.93 1.09 1.18 1.11 1.06 1.03 1.05
3771.866 1.09 1.09 1.09 1.08 1.01 0.99 1.1 1.13 1.08 1.01
3791.159 0.99 0.99 0.91 0.98 1.06 1.03 1 1.01 1.04 1.01
3810.452 0.95 0.93 0.91 0.91 1 0.93 0.94 0.98 0.99 1.09
3829.746 1.04 0.93 0.88 0.91 0.95 0.89 0.84 0.92 0.95 0.94
3849.039 0.99 1 1.01 0.98 0.93 0.94 0.96 0.97 0.93 0.97
3868.333 1.04 0.98 0.98 1.04 0.98 0.9 0.94 1.01 1.13 1.18
3887.626 1.19 1.17 1.09 1.08 1.13 1.16 1.18 1.235 1.258 1.225
3906.920 1.265 1.314 1.21 1.11 1.2 1.238 1.21 1.304 1.332 1.329
3926.213 1.354 1.408 1.423 1.464 1.554 1.534 1.392 1.32 1.358 1.401
3945.506 1.394 1.413 1.484 1.41 1.413 1.448 1.297 1.233 1.295 1.295
3964.800 1.265 1.239 1.258 1.331 1.306 1.22 1.264 1.387 1.459 1.462
3984.093 1.393 1.331 1.345 1.421 1.486 1.626 1.664 1.628 1.7
##END=
