##TITLE=9-Hydroxy-4-methoxyacridine
##JCAMP-DX=4.24
##DATA TYPE=INFRARED SPECTRUM
##ORIGIN=EPA-IR VAPOR PHASE LIBRARY
##OWNER=SRD/NIST
Collection (C) 2018 copyright by the U.S. Secretary of Commerce
on behalf of the United States of America. All rights reserved.
##CAS REGISTRY NO=35308-00-0
##MOLFORM=C 14 H 11 N O 2
##$NIST SOURCE=MSDC-IR
##STATE=gas
##XUNITS=1/CM
##YUNITS=ABSORBANCE
##XFACTOR=1.
##YFACTOR=0.001
##DELTAX=1.92898
##FIRSTX=549.8
##LASTX=4000.7
##FIRSTY=2.698
##MAXX=4000.7
##MINX=549.759
##MAXY=0.054428
##MINY=0
##NPOINTS=1790
##XYDATA=(X++(Y..Y))
549.759 2.698 2.468 1.768 1.3092 1.718 2.038 2.138 1.968 2.138 2.478
569.049 2.478 1.938 1.748 2.278 2.458 2.178 1.918 1.0327 0 0.029
588.339 0.303 0.8342 1.538 1.618 1.568 1.0695 0.540539 1.0298 1.538 1.4276
607.628 1.2119 1.0441 0.7614 0.55267 0.7926 1.4737 1.4438 1.264 1.628 1.758
626.918 1.658 1.848 2.418 2.778 2.418 2.008 1.798 1.4693 1.748 1.908
646.208 1.4814 1.2117 1.0323 1.3219 1.978 1.758 1.3054 1.3703 1.3756 0.9995
665.498 0.60722 1.0293 1.4839 1.698 1.968 2.378 2.768 3.118 3.728 4.188
684.787 4.468 4.928 5.668 5.668 4.778 4.208 3.878 3.418 3.068 2.728
704.077 2.648 2.758 2.568 2.448 2.308 2.088 2.198 2.588 3.098 3.448
723.367 4.098 4.778 5.388 5.668 5.888 6.388 6.868 7.088 7.268 8.828
742.657 10.868 12.688 14.848 17.818 20.128 19.298 16.518 14.028 12.098 10.248
761.947 7.968 5.938 4.438 3.198 2.198 1.668 1.588 1.658 1.5141 1.278
781.236 1.2486 1.1577 1.1932 1.3802 1.319 1.213 1.044 1.0586 1.678 1.818
800.526 2.008 2.458 2.098 2.118 2.758 3.208 3.358 3.228 3.228 3.068
819.816 2.878 2.858 2.358 1.778 1.568 1.3671 1.2922 0.9438 0.63349 0.9555
839.106 1.1374 1.1666 1.3021 1.1767 0.9985 0.9535 0.7942 0.6687 0.8365 1.1471
858.395 1.1076 0.836 0.4485 0.315 0.6559 1.1441 1.4172 1.4811 1.638 1.728
877.685 1.4684 1.2077 1.2842 1.4749 1.525 1.868 2.538 3.058 3.308 3.138
896.975 3.008 3.118 2.648 1.868 1.708 1.568 1.452 1.648 1.466 1.2493
916.265 1.1928 1.1786 1.2252 1.04 1.0353 1.5277 1.738 1.748 1.898 1.638
935.555 1.4909 1.758 2.078 2.308 2.728 2.898 3.118 3.848 4.688 5.908
954.844 7.078 8.238 9.248 10.038 10.398 10.298 9.688 8.418 7.128 5.798
974.134 4.498 3.628 3.098 2.608 2.478 2.458 2.308 1.808 1.718 1.978
993.424 1.998 2.328 2.568 2.428 2.348 2.208 2.018 2.728 3.468 3.368
1012.714 3.188 3.028 3.628 4.048 4.498 5.278 5.208 5.398 5.718 5.548
1032.003 5.128 4.938 4.708 4.668 4.858 4.338 4.318 4.578 4.618 4.858
1051.293 5.138 5.848 6.428 7.408 8.138 8.608 9.148 9.098 9.308 9.248
1070.583 9.058 9.798 10.368 10.798 11.528 11.378 10.358 9.708 9.018 7.778
1089.873 6.498 5.968 5.738 4.508 4.338 4.288 3.808 3.458 2.258 1.918
1109.163 3.498 3.768 2.008 2.848 2.768 1.918 1.5159 1.1729 1.3912 0.5707
1128.452 0.9024 1.4514 0.9609 0.876 1.1471 1.538 2.588 3.038 3.468 4.738
1147.742 6.188 7.378 7.958 8.398 9.238 10.398 10.098 9.438 9.038 7.798
1167.032 6.868 6.868 7.228 7.178 6.988 7.238 7.448 7.618 7.938 7.818
1186.322 7.768 7.728 6.228 4.558 4.348 4.518 3.498 3.088 4.478 4.918
1205.611 4.808 4.588 4.898 6.378 7.308 7.378 7.698 9.978 13.008 15.088
1224.901 17.318 19.528 22.248 23.958 24.798 26.178 27.308 27.958 28.158 28.678
1244.191 29.558 29.938 29.438 27.808 25.558 22.428 18.738 15.528 12.888 10.978
1263.481 9.008 7.578 6.988 6.458 5.728 4.928 4.318 3.958 3.788 3.448
1282.771 3.358 3.548 3.548 3.658 3.688 3.868 4.248 4.818 5.488 6.068
1302.060 6.868 7.518 8.068 8.898 9.758 10.258 10.328 10.158 9.688 9.088
1321.350 8.538 7.788 7.208 6.858 6.578 6.208 5.688 5.328 4.868 4.358
1340.640 3.828 3.298 2.968 2.838 2.558 2.348 2.378 2.298 2.148 1.958
1359.930 1.918 1.978 2.028 2.068 2.038 2.018 2.138 2.258 2.378 2.378
1379.219 2.278 2.398 2.538 2.658 2.778 2.928 2.988 3.138 3.628 4.108
1398.509 4.828 5.878 7.078 8.598 10.318 11.958 13.068 13.298 12.868 11.898
1417.799 10.228 8.298 6.438 4.868 3.938 3.578 3.428 3.448 3.768 4.118
1437.089 4.668 5.448 6.258 7.198 8.438 9.688 10.818 11.978 12.968 13.738
1456.378 14.398 15.018 15.718 16.318 16.918 17.518 18.228 18.838 19.358 20.118
1475.668 20.778 21.008 20.978 20.418 19.318 17.938 16.198 14.188 12.258 10.858
1494.958 10.008 9.648 9.858 10.568 11.558 13.028 15.208 18.048 21.218 24.898
1514.248 29.068 33.328 37.448 40.868 43.378 44.778 44.428 42.138 38.198 33.298
1533.538 27.938 22.458 17.578 13.308 10.088 7.848 6.418 5.658 5.038 4.658
1552.827 4.478 4.278 4.338 4.578 4.898 5.248 5.648 6.418 7.178 7.648
1572.117 8.078 8.628 9.028 9.008 8.908 8.758 8.698 8.718 8.928 9.208
1591.407 9.698 10.918 12.278 13.698 15.278 17.068 18.828 20.718 22.978 25.458
1610.697 28.488 32.058 35.638 39.168 42.498 44.778 45.508 44.128 40.998 36.618
1629.986 31.088 25.458 20.468 16.188 13.188 11.558 10.688 10.148 10.128 10.538
1649.276 11.418 13.128 15.888 19.788 25.218 32.248 39.948 47.348 52.548 54.428
1668.566 53.658 50.888 45.118 36.428 26.868 19.048 13.428 9.868 7.548 5.928
1687.856 4.988 4.548 4.198 3.898 3.588 3.428 3.398 3.158 3.008 2.988
1707.146 2.878 2.658 2.498 2.358 2.178 2.198 2.238 2.178 2.128 2.148
1726.435 2.188 2.058 1.858 1.888 1.878 1.618 1.4282 1.4942 1.4993 1.4718
1745.725 1.4759 1.3802 1.3724 1.3548 1.2983 1.2916 1.4192 1.3289 1.2886 1.4498
1765.015 1.548 1.608 1.648 1.5324 1.4107 1.424 1.3679 1.231 1.1873 1.2711
1784.305 1.4025 1.3838 1.2368 1.2967 1.3902 1.4742 1.5072 1.5094 1.588 1.618
1803.594 1.568 1.548 1.578 1.568 1.568 1.5229 1.3213 1.2458 1.3109 1.2878
1822.884 1.3282 1.3662 1.3192 1.3946 1.413 1.3282 1.3183 1.3097 1.3791 1.4017
1842.174 1.2604 1.2707 1.2769 1.2912 1.2976 1.2889 1.2543 1.2054 1.1692 1.1128
1861.464 1.2526 1.238 1.0436 0.9201 0.8859 0.9552 1.013 0.9561 0.9653 1.0267
1880.754 1.081 1.0704 1.0024 1.1252 1.1523 1.2139 1.3345 1.2679 1.2474 1.2956
1900.043 1.2833 1.2578 1.3731 1.4493 1.3492 1.3654 1.5277 1.618 1.568 1.4965
1919.333 1.5365 1.618 1.768 1.788 1.788 1.698 1.4634 1.4376 1.4262 1.386
1938.623 1.2999 1.2778 1.2974 1.2714 1.1939 1.0858 1.1682 1.2638 1.2217 1.1982
1957.913 1.1784 1.0921 0.9564 0.9823 1.0439 0.9811 0.9837 1.0094 1.0128 0.9814
1977.202 1.0041 0.9742 0.9285 1.0579 1.0827 1.0185 1.0252 1.0144 1.1168 1.0659
1996.492 0.9201 0.9004 0.9892 1.0388 0.9891 0.9512 1.0045 1.0567 1.008 0.8909
2015.782 0.9174 1.0735 1.0318 1.0489 1.117 1.1055 1.1306 1.1803 1.2645 1.2921
2035.072 1.2096 1.1628 1.141 1.1758 1.2016 1.1602 1.227 1.2856 1.2656 1.2688
2054.362 1.2046 1.1833 1.1907 1.0613 1.0306 1.0426 1.0336 1.0754 1.0581 0.8969
2073.651 0.7415 0.8569 0.9926 0.8391 0.8003 0.8562 0.8479 0.8488 0.7697 0.8641
2092.941 0.8753 0.7583 0.8526 0.8639 0.7453 0.7975 0.9144 0.8638 0.8101 0.7998
2112.231 0.8533 0.9509 0.933 0.928 0.9722 1.0286 0.9714 0.9035 0.9218 0.9552
2131.521 0.9413 0.9006 0.8623 0.8423 0.8684 0.9032 1.0033 1.0993 1.1051 1.0848
2150.810 0.9874 0.9318 0.9798 0.979 1.0681 1.1511 1.0268 0.8291 0.8752 1.0085
2170.100 0.9751 0.9759 0.9364 0.8684 0.8496 0.8403 0.8966 0.9419 0.8753 0.7584
2189.390 0.6633 0.6446 0.7346 0.872 0.927 0.8395 0.8208 0.908 0.9226 0.9663
2208.680 1.0509 0.9979 0.9126 0.8368 0.8628 0.9236 0.8967 0.9371 0.9272 0.8446
2227.970 0.9847 1.0661 0.9738 0.9045 0.8875 0.9513 0.8738 0.8226 0.7597 0.7851
2247.259 0.9376 0.908 0.8833 0.9579 0.8835 0.7874 0.773 0.7545 0.8133 0.8671
2266.549 0.8917 0.8891 0.8213 0.8037 0.8642 0.8471 0.8753 0.9197 0.9349 1.013
2285.839 1.026 0.9058 0.8669 0.9677 1.022 1.1129 1.0731 0.947 0.9295 1.0217
2305.129 1.1052 1.2004 1.2266 1.1035 1.0866 1.0326 1.0093 1.126 1.1203 1.051
2324.418 1.1055 1.2116 1.1515 1.1644 1.102 0.9122 0.9418 0.9938 1.0156 1.0211
2343.708 1.0398 0.9725 0.8693 0.8624 0.9105 1.0024 0.9552 0.9491 1.0126 0.9114
2362.998 0.9409 0.9221 0.8102 0.8566 0.9062 0.9523 0.949 0.8948 0.9402 0.971
2382.288 0.9454 0.9711 0.994 1.0586 1.0895 0.9373 0.8024 0.8743 0.917 0.883
2401.578 0.8894 0.9601 0.8878 0.8315 0.8741 0.7311 0.7133 0.695 0.7479 0.8618
2420.867 0.7778 0.8438 1.0552 1.031 0.991 0.9639 0.7995 0.8247 0.9426 1.0369
2440.157 1.0222 0.9928 0.9148 0.9125 0.9549 0.952 1.0081 0.8794 0.8898 0.9211
2459.447 0.9284 1.0732 1.0044 1.0492 1.1019 1.0484 1.0208 0.9291 1.0232 1.0407
2478.737 0.9543 1.0156 1.1817 1.0879 0.9765 0.9899 1.0554 1.1451 1.1302 1.1358
2498.026 1.1662 1.2401 1.2028 1.0594 1.1624 1.3132 1.1995 1.1469 0.9886 1.0111
2517.316 1.0816 1.0025 0.9705 0.9509 1.0142 0.9639 0.9078 0.8717 0.8853 0.9358
2536.606 0.9472 0.9321 0.9983 0.9309 0.8984 1.0412 1.023 0.9933 0.9814 0.9767
2555.896 1.1046 1.138 1.1474 1.1596 1.1132 1.1183 1.0915 1.1368 1.0371 1.0896
2575.186 1.2669 1.1246 0.9227 0.9841 1.0728 1.104 1.2229 1.3027 1.2542 1.1296
2594.475 1.1563 1.1581 1.0349 0.9532 0.968 1.0109 0.9882 1.0135 1.1355 1.2562
2613.765 1.211 1.0123 0.9574 1.0174 1.0512 0.9839 0.9511 0.9162 0.9295 0.8518
2633.055 0.7702 0.9016 0.9318 0.8231 0.9511 1.0733 1.034 0.9751 0.9104 0.9108
2652.345 0.8314 1.0254 1.2331 1.1133 1.1903 1.328 1.0727 0.9156 0.9149 0.7983
2671.634 0.7958 0.7843 0.7292 0.8395 0.863 0.7066 0.7191 0.8211 0.8576 0.9439
2690.924 0.8719 0.8559 0.8298 0.7549 0.9101 0.9664 0.9809 0.9956 1.055 1.0649
2710.214 0.9785 0.8055 0.8183 0.886 0.7905 0.7528 0.8354 0.9301 0.8112 0.7261
2729.504 0.8879 1.0378 0.9401 1.0367 1.1829 1.0889 0.8761 0.7629 0.9816 1.028
2748.794 0.8611 0.9108 0.885 0.8928 0.9425 1.0397 1.1452 1.0733 1.087 0.9752
2768.083 0.9922 1.0345 1.0798 1.1659 1.1384 1.2285 1.1029 1.1383 1.3087 1.015
2787.373 1.0183 1.1546 0.998 1.0339 0.9918 0.9475 0.9727 1.1117 1.2618 1.4128
2806.663 1.3423 1.17 1.0752 1.0043 1.2531 1.3522 1.1308 1.2348 1.538 1.5362
2825.953 1.568 1.668 1.728 1.698 1.938 2.378 2.438 2.598 3.088 3.398
2845.242 3.608 3.568 3.278 3.168 3.188 2.828 2.558 2.718 2.608 2.458
2864.532 2.398 2.488 2.478 2.408 2.218 2.058 2.158 2.098 2.008 2.008
2883.822 1.918 1.788 1.798 1.938 2.038 1.958 1.928 2.018 2.188 2.218
2903.112 2.158 2.118 2.188 2.388 2.668 3.048 2.978 2.828 2.868 2.818
2922.401 2.938 3.018 3.038 2.958 2.858 3.108 3.268 3.428 3.688 3.968
2941.691 4.428 4.888 5.388 5.858 6.138 6.348 6.298 5.918 5.578 5.248
2960.981 4.718 4.478 4.578 4.448 4.088 3.598 3.518 3.458 3.148 2.898
2980.271 2.638 2.458 2.488 2.538 2.488 2.448 2.498 2.558 2.578 2.918
2999.561 3.288 3.518 3.818 3.808 3.628 3.818 3.988 3.928 3.828 3.478
3018.850 3.108 2.918 2.838 2.868 2.848 2.868 2.818 2.838 3.048 3.008
3038.140 3.058 3.228 3.368 3.468 3.588 3.898 3.878 3.908 4.108 4.128
3057.430 4.228 4.388 4.358 4.818 5.388 5.848 6.358 6.588 6.808 7.228
3076.720 7.438 7.228 7.008 6.378 5.818 5.398 4.668 3.938 3.288 2.798
3096.009 2.538 2.288 2.178 2.008 1.838 1.678 1.4444 1.3105 1.12 1.2801
3115.299 1.441 1.1591 1.1141 1.2043 1.1005 1.092 1.2124 1.1996 1.1162 1.2249
3134.589 1.0748 0.823 0.8161 0.9322 1.0731 1.0388 0.8058 0.7096 0.9234 0.9749
3153.879 0.60491 0.58834 0.8382 0.8647 1.0439 1.1307 1.0101 0.9683 0.6866 0.53157
3173.169 0.8336 0.9447 0.9606 0.826 0.8408 0.8898 0.7313 0.6982 0.6782 0.7496
3192.458 0.72 0.5269 0.58239 0.8315 0.9676 0.8596 0.61703 0.7347 1.0227 0.9242
3211.748 0.6381 0.8115 1.0295 0.6952 0.6543 0.7175 0.57345 0.60148 0.7107 0.8197
3231.038 0.7582 0.7806 0.8505 0.862 0.8057 0.7637 0.6393 0.7599 0.9877 0.8276
3250.328 0.7769 0.8538 0.9395 1.0859 1.0043 0.8543 0.744 0.62565 0.8596 1.0034
3269.617 0.8555 0.969 1.2031 1.0674 0.9463 0.9852 0.7072 0.63019 0.58563 0.39
3288.907 0.543125 0.7955 0.9687 1.0726 1.0946 0.987 0.648 0.6783 1.0072 1.1779
3308.197 1.1576 0.982 0.9778 1.0646 1.0258 1.166 1.548 1.648 1.4107 1.1873
3327.487 1.146 1.17 1.1182 0.7285 0.4434 0.60931 0.7699 0.883 0.8761 0.7469
3346.777 0.59787 0.61249 0.957 1.0805 0.8891 0.7527 0.7515 0.6472 0.355 0.393
3366.066 0.7228 0.8916 0.7926 0.333 0.27 0.395 0.4942 0.699 0.59657 0.349
3385.356 0.166 0.438 0.9239 0.999 0.9358 0.8173 0.7617 0.7725 0.6801 0.8338
3404.646 1.1432 1.1677 1.1889 1.2101 1.1252 0.9473 0.6671 1.0254 1.568 1.578
3423.936 1.558 1.748 1.568 1.568 2.038 2.438 2.868 3.428 3.968 4.758
3443.225 5.588 6.548 7.908 9.628 11.518 13.028 14.148 14.648 14.288 13.328
3462.515 11.908 10.258 8.238 6.038 4.098 2.928 2.438 1.948 1.3802 1.2074
3481.805 1.2078 1.0163 1.0875 0.9415 0.57607 0.58538 0.56893 0.7112 0.8989 0.7502
3501.095 0.56783 0.59739 0.61235 0.426 0.397 0.339 0.282 0.4659 0.4928 0.337
3520.385 0.4929 0.6598 0.621 0.56845 0.404 0.261 0.4632 0.58481 0.4633 0.514
3539.674 0.58542 0.4596 0.61527 0.63041 0.4456 0.4409 0.5182 0.7144 0.8059 0.5747
3558.964 0.58526 0.9626 0.801 0.4606 0.4996 0.271 0.032 0.262 0.4654 0.546584
3578.254 0.61952 0.59418 0.5541 0.5259 0.58207 0.8641 0.8913 0.6816 0.336 0.203
3597.544 0.349 0.7551 0.9297 0.7988 0.6808 0.677 0.8372 0.8651 0.8476 0.8457
3616.833 0.9176 0.9608 0.918 0.6911 0.389 0.403 0.61098 0.6726 0.61891 0.5177
3636.123 0.5248 0.4 0.4 0.389 0.311 0.7256 0.7997 0.6427 0.7333 0.7287
3655.413 0.732 0.8511 0.8435 0.729 0.6596 0.60237 0.8049 0.727 0.6591 0.7693
3674.703 0.8419 1.0226 0.9956 0.8676 0.6964 0.6551 0.5967 0.4922 0.61174 0.9554
3693.993 1.0455 0.6811 0.54954 0.6567 0.5252 0.4982 0.55837 0.55891 0.546237 0.5923
3713.282 0.61442 0.6568 0.6913 0.6812 0.6906 0.6147 0.435 0.322 0.53405 0.7403
3732.572 0.8616 0.7857 0.6673 0.55366 0.6942 0.9291 0.7114 0.52866 0.7267 0.9215
3751.862 0.9793 0.6626 0.6972 1.0164 0.8241 0.6747 0.6714 0.6493 0.6843 0.8515
3771.152 0.8927 0.9075 0.8146 0.6739 0.5128 0.4394 0.8133 0.779 0.9848 1.2005
3790.441 0.7991 0.6519 0.712 0.58194 0.6844 0.60964 0.5238 0.7757 0.614 0.396
3809.731 0.547879 0.9232 0.8713 0.5133 0.267 0.25 0.244 0.338 0.6685 0.7981
3829.021 0.5268 0.319 0.186 0.119 0.098 0.255 0.63253 0.58436 0.4866 0.9234
3848.311 1.0912 0.8903 0.9314 0.7386 0.5155 0.42 0.4668 0.63126 0.9194 1.0872
3867.601 0.721 0.6694 0.7723 0.63692 0.7185 0.6931 0.60485 0.57545 0.5263 0.62959
3886.890 0.6764 0.53237 0.55073 0.56626 0.61706 0.843 0.6922 0.6921 0.9265 0.6639
3906.180 0.157 0.046 0.354 0.58561 0.57492 0.4784 0.4826 0.62347 0.7317 0.7491
3925.470 0.7159 0.4821 0.371 0.7329 0.7163 0.537721 0.54788 0.61589 0.57587 0.4473
3944.760 0.7705 0.9882 0.61554 0.63354 0.7369 0.6202 0.56172 0.8616 1.1848 1.1762
3964.049 1.1535 0.9534 0.9825 0.8603 0.542869 0.7111 0.793 0.6051 0.7058 0.8066
3983.339 0.9554 0.8476 0.61352 0.797 0.9296 0.4836 0.449 0.7373 0.6324 0.5008
##END=
