##TITLE=m-Nitrobenzoyl azide
##JCAMP-DX=4.24
##DATA TYPE=INFRARED SPECTRUM
##ORIGIN=EPA-IR VAPOR PHASE LIBRARY
##OWNER=SRD/NIST
Collection (C) 2018 copyright by the U.S. Secretary of Commerce
on behalf of the United States of America. All rights reserved.
##CAS REGISTRY NO=3532-31-8
##MOLFORM=C 7 H 4 N 4 O 3
##$NIST SOURCE=MSDC-IR
##STATE=gas
##XUNITS=1/CM
##YUNITS=ABSORBANCE
##XFACTOR=1.
##YFACTOR=0.001
##DELTAX=1.92898
##FIRSTX=549.8
##LASTX=4000.7
##FIRSTY=1.221
##MAXX=4000.7
##MINX=549.759
##MAXY=0.341817
##MINY=0
##NPOINTS=1790
##XYDATA=(X++(Y..Y))
549.759 1.221 1.1776 1.0194 1.2773 1.737 1.977 2.117 2.287 2.747 2.837
569.049 2.637 2.727 2.877 3.197 3.437 3.567 3.207 3.087 3.637 3.697
588.339 3.507 3.547 3.827 3.857 3.777 3.907 3.967 4.047 4.057 4.067
607.628 4.117 3.987 3.967 3.977 3.987 3.797 3.517 3.617 3.687 3.877
626.918 3.697 3.587 3.687 3.447 3.557 3.547 3.617 4.177 4.457 4.547
646.208 4.707 4.627 4.547 4.707 4.807 4.967 5.177 5.567 5.947 6.157
665.498 6.807 7.897 8.667 8.697 8.487 8.387 8.317 7.987 7.317 6.757
684.787 6.327 5.827 5.067 4.337 3.847 3.437 3.007 2.817 2.657 2.467
704.077 2.587 2.697 2.697 2.777 3.217 3.797 4.467 5.377 6.377 7.597
723.367 8.677 9.807 11.277 12.967 14.397 14.857 14.217 12.967 11.757 10.597
742.657 9.567 8.477 7.317 6.297 5.307 4.777 4.517 4.137 4.027 4.107
761.947 4.477 4.877 5.317 5.807 6.167 6.757 7.457 8.557 10.217 12.447
781.236 15.417 18.747 21.587 23.827 25.237 25.797 25.957 25.357 23.377 19.707
800.526 15.427 11.677 9.297 7.707 6.367 5.207 4.347 3.517 2.667 2.247
819.816 1.887 1.497 1.357 1.457 1.447 1.467 1.487 1.2644 1.0381 0.9402
839.106 0.9521 0.9793 1.0996 1.236 1.2434 1.2383 1.207 1.1111 1.0877 1.2229
858.395 1.2059 1.094 1.161 1.357 1.447 1.557 1.777 2.177 2.717 3.427
877.685 4.157 4.717 5.457 6.387 7.337 8.377 9.197 9.317 9.207 8.737
896.975 8.267 7.887 7.277 6.647 5.637 4.657 3.807 3.107 2.627 2.157
916.265 1.817 1.767 1.697 1.397 1.0976 0.8368 0.7426 0.8334 0.9816 0.8528
935.555 0.7619 0.8312 0.8236 0.7547 0.83 0.7818 0.6485 0.6062 0.4649 0.527
954.844 0.5841 0.4874 0.6081 0.7322 0.6056 0.573 0.6254 0.4482 0.41376 0.6633
974.134 0.6939 0.5908 0.5611 0.4545 0.39206 0.5083 0.5932 0.7803 0.7571 0.4562
993.424 0.43399 0.7546 0.8772 0.852 0.9657 0.8162 0.7748 0.7691 0.7106 0.9022
1012.714 0.8607 0.8059 0.8199 0.8147 0.7608 0.5464 0.621 0.8587 0.7724 0.7104
1032.003 0.789 0.9154 1.0448 1.1132 1.0591 1.1067 1.2451 0.8996 0.6576 1.1926
1051.293 1.627 1.777 2.267 2.747 2.837 3.017 3.677 3.907 4.247 4.537
1070.583 4.697 4.607 4.727 5.137 5.037 4.937 4.487 3.747 3.427 3.597
1089.873 3.427 2.797 2.407 2.427 2.227 2.377 2.297 1.937 1.777 1.3375
1109.163 1.497 1.717 1.387 1.647 2.107 2.587 2.967 3.507 4.177 4.487
1128.452 4.807 5.087 5.287 5.507 5.577 5.427 5.437 5.367 5.177 5.257
1147.742 5.237 4.817 4.617 5.027 5.417 5.607 5.427 5.367 5.497 5.217
1167.032 5.027 4.897 4.817 4.807 4.687 4.137 3.487 3.477 3.377 3.027
1186.322 2.447 2.027 1.877 1.457 1.3145 1.377 1.1602 0.8803 0.7826 0.9238
1205.611 1.2176 1.2557 0.7333 0.40226 0.5486 0.8426 1.0807 1.088 0.921 0.8575
1224.901 0.6199 0.691 1.0118 0.9753 0.8954 1.1619 1.0843 0.7493 0.9809 1.1284
1244.191 1.1772 1.3112 1.347 1.377 1.457 1.487 1.657 1.957 2.067 2.217
1263.481 2.727 2.987 3.017 3.207 3.297 3.407 3.457 3.447 3.267 3.267
1282.771 3.347 3.347 3.477 3.677 3.987 4.277 4.557 4.677 4.727 4.747
1302.060 4.677 4.537 4.367 4.147 4.027 3.997 3.897 3.997 4.227 4.557
1321.350 5.057 5.687 6.477 7.527 8.737 10.167 11.917 14.017 16.577 19.587
1340.640 23.097 27.357 32.347 37.987 44.157 49.917 54.077 56.237 56.467 55.127
1359.930 52.277 47.157 39.517 31.017 23.357 17.377 13.117 10.057 7.827 6.247
1379.219 5.197 4.427 3.777 3.327 3.027 2.847 2.657 2.527 2.447 2.317
1398.509 2.267 2.247 2.217 2.177 2.107 2.037 1.947 1.957 2.027 2.117
1417.799 2.177 2.147 2.147 2.197 2.267 2.277 2.247 2.257 2.267 2.277
1437.089 2.357 2.387 2.467 2.647 2.717 2.767 2.867 2.957 3.017 3.147
1456.378 3.327 3.497 3.727 3.877 3.937 4.117 4.377 4.627 4.817 5.067
1475.668 5.427 5.847 6.257 6.667 7.107 7.617 8.167 8.717 9.347 10.067
1494.958 10.727 11.427 12.257 13.077 13.907 14.727 15.437 15.977 16.337 16.587
1514.248 16.717 16.857 17.087 17.497 18.287 19.607 21.737 24.657 28.437 33.387
1533.538 39.467 46.337 53.487 61.427 69.097 75.487 80.497 83.737 85.007 84.487
1552.827 82.307 78.517 73.587 67.667 61.577 56.177 51.217 46.937 43.127 39.567
1572.117 36.547 34.087 32.097 30.887 30.287 29.677 28.937 27.787 26.187 24.207
1591.407 21.777 19.277 16.817 14.547 12.877 11.847 11.547 11.787 12.207 12.767
1610.697 13.257 13.507 13.557 13.457 12.947 12.047 10.917 9.587 8.397 7.387
1629.986 6.337 5.357 4.697 4.187 3.777 3.587 3.387 3.187 3.037 2.917
1649.276 2.867 2.847 2.737 2.587 2.407 2.267 2.177 2.087 1.957 1.907
1668.566 1.827 1.647 1.577 1.477 1.437 1.397 1.2846 1.2463 1.2603 1.2089
1687.856 1.1563 1.2209 1.2054 1.1572 1.1321 1.2018 1.2297 1.2347 1.3156 1.2959
1707.146 1.2671 1.2215 1.1607 1.1017 1.0544 1.0172 0.8996 0.8293 0.768 0.6752
1726.435 0.6389 0.5727 0.5358 0.5246 0.5269 0.5704 0.5742 0.5964 0.6367 0.6139
1745.725 0.6141 0.6221 0.5846 0.5897 0.638 0.6682 0.6503 0.6937 0.7599 0.7679
1765.015 0.8045 0.81 0.8428 0.9252 1.0114 1.01 0.9879 1.0002 0.9691 1.0436
1784.305 1.0649 1.0244 1.0375 1.0224 1.047 1.1175 1.0759 1.0596 1.0414 1.0021
1803.594 1.0465 1.0537 1.0185 0.992 1.0606 1.0463 0.9782 0.9338 0.8905 0.897
1822.884 0.891 0.8894 0.9009 0.8616 0.8169 0.7442 0.6968 0.6278 0.55 0.5714
1842.174 0.5998 0.6387 0.6103 0.583 0.5996 0.6019 0.6304 0.6414 0.6495 0.6536
1861.464 0.7279 0.7916 0.7953 0.8242 0.84 0.8436 0.9051 1.0318 1.0872 1.1027
1880.754 1.1365 1.1432 1.1843 1.153 1.0499 1.0233 0.9981 0.8933 0.7564 0.6949
1900.043 0.6705 0.5833 0.5439 0.5837 0.6076 0.598 0.5322 0.5067 0.5316 0.5788
1919.333 0.6484 0.6969 0.735 0.7567 0.7486 0.7361 0.8259 0.9483 0.9877 0.9915
1938.623 1.0369 1.1017 1.12 1.1434 1.1604 1.0951 1.0378 1.0232 0.9798 0.9201
1957.913 0.8574 0.824 0.7591 0.6051 0.5637 0.619 0.6214 0.648 0.6629 0.6844
1977.202 0.6573 0.5974 0.6357 0.6596 0.612 0.5545 0.5573 0.5403 0.5328 0.5753
1996.492 0.5622 0.4926 0.4798 0.509 0.5036 0.5412 0.5981 0.5761 0.4763 0.4997
2015.782 0.5536 0.5729 0.5861 0.6055 0.5805 0.5508 0.6256 0.6934 0.6507 0.6676
2035.072 0.8041 0.8109 0.768 0.7713 0.772 0.79 0.855 0.9299 0.9771 0.9604
2054.362 1.0032 1.0529 1.0909 1.1256 1.1265 1.1834 1.1955 1.2678 1.367 1.377
2073.651 1.417 1.457 1.427 1.427 1.477 1.487 1.517 1.577 1.607 1.707
2092.941 1.787 1.857 1.937 2.037 2.117 2.177 2.247 2.297 2.347 2.437
2112.231 2.537 2.587 2.637 2.797 2.857 2.917 3.077 3.187 3.347 3.537
2131.521 3.717 3.787 3.917 4.077 4.227 4.437 4.687 4.967 5.247 5.487
2150.810 5.737 5.997 6.267 6.617 6.977 7.347 7.707 8.017 8.447 8.937
2170.100 9.427 9.957 10.647 11.407 12.207 13.127 14.107 15.217 16.327 17.397
2189.390 18.657 19.927 21.067 22.157 23.257 24.357 25.397 26.377 27.387 28.387
2208.680 29.337 30.337 31.327 32.237 33.167 34.067 35.047 36.217 37.547 38.997
2227.970 40.727 42.717 44.987 47.697 50.827 54.417 58.657 63.577 69.477 76.577
2247.259 85.167 95.727 108.607 124.247 143.207 165.767 191.817 220.967 252.127 283.097
2266.549 310.477 330.547 341.037 341.817 333.547 316.747 292.027 261.787 229.607 198.617
2285.839 171.377 149.007 131.187 117.157 106.147 97.397 90.227 84.117 78.697 73.717
2305.129 69.027 64.457 59.867 55.487 51.617 48.007 44.667 41.897 39.727 38.117
2324.418 36.937 36.047 35.407 34.927 34.407 33.807 33.117 32.357 31.597 30.727
2343.708 29.797 28.887 27.877 26.827 25.867 24.867 23.887 23.147 22.427 21.517
2362.998 20.617 19.877 19.097 18.087 17.127 16.137 15.007 13.917 12.897 11.927
2382.288 10.877 9.947 9.237 8.547 7.927 7.387 6.977 6.677 6.347 6.027
2401.578 5.817 5.727 5.517 5.357 5.257 5.037 4.847 4.577 4.337 4.147
2420.867 3.817 3.567 3.427 3.257 3.067 2.877 2.737 2.617 2.507 2.387
2440.157 2.257 2.137 2.067 2.037 1.967 1.887 1.787 1.737 1.717 1.677
2459.447 1.627 1.627 1.607 1.467 1.457 1.457 1.3436 1.2809 1.367 1.377
2478.737 1.3073 1.3067 1.2506 1.1489 1.1763 1.2484 1.1941 1.052 0.9658 0.9313
2498.026 1.0167 1.1326 1.1042 1.0703 1.0729 1.0642 0.9687 0.8915 0.8898 0.8995
2517.316 0.9213 0.918 0.8479 0.8465 0.8549 0.8115 0.7761 0.7541 0.7475 0.7024
2536.606 0.7394 0.7715 0.7805 0.7409 0.6731 0.7086 0.7396 0.7754 0.754 0.7435
2555.896 0.7797 0.7392 0.766 0.7879 0.7548 0.7915 0.768 0.688 0.7777 0.8481
2575.186 0.7524 0.7348 0.833 0.7958 0.6794 0.766 0.7416 0.6744 0.7703 0.764
2594.475 0.7975 0.7591 0.7161 0.736 0.6944 0.7414 0.7146 0.7264 0.8732 0.8928
2613.765 0.825 0.7567 0.696 0.7126 0.7051 0.745 0.7699 0.7295 0.731 0.7477
2633.055 0.6933 0.6643 0.7318 0.7837 0.7736 0.7621 0.7759 0.7023 0.6831 0.6493
2652.345 0.5892 0.6317 0.6496 0.7072 0.8145 0.7408 0.6824 0.7518 0.8214 0.7872
2671.634 0.8099 0.8631 0.8085 0.8434 0.9464 1.013 0.9823 0.9595 0.9268 0.9984
2690.924 1.126 1.1952 1.2388 1.2545 1.2964 1.242 1.1907 1.2549 1.2995 1.228
2710.214 1.2305 1.2758 1.3046 1.2099 1.1507 1.186 1.1567 1.0928 1.0382 1.0094
2729.504 1.0175 1.0009 0.8886 0.9445 1.0124 0.9785 0.9176 0.8162 0.8548 0.8892
2748.794 0.7711 0.694 0.7473 0.7462 0.7464 0.8158 0.8247 0.7341 0.7084 0.7578
2768.083 0.6978 0.7121 0.7084 0.6483 0.6929 0.7132 0.6786 0.677 0.668 0.641
2787.373 0.6323 0.5717 0.5371 0.5443 0.5246 0.5842 0.6585 0.6064 0.5283 0.4964
2806.663 0.5034 0.642 0.6904 0.6365 0.6568 0.6885 0.7887 0.8641 0.7451 0.673
2825.953 0.7817 0.7601 0.6752 0.7983 0.9083 0.9059 0.894 0.8901 0.9123 0.8867
2845.242 0.8213 0.8516 0.9155 1.0372 1.0996 1.0863 1.1678 1.2342 1.1533 1.037
2864.532 1.0943 1.2631 1.357 1.357 1.3203 1.357 1.457 1.447 1.437 1.527
2883.822 1.527 1.497 1.467 1.567 1.547 1.397 1.477 1.547 1.497 1.477
2903.112 1.507 1.527 1.457 1.427 1.517 1.597 1.627 1.577 1.487 1.597
2922.401 1.547 1.347 1.3388 1.2951 1.312 1.387 1.3058 1.2249 1.2395 1.2555
2941.691 1.3312 1.387 1.387 1.2962 1.2811 1.2383 1.0817 1.2008 1.298 1.1378
2960.981 1.1208 1.1137 1.0196 0.874 0.6688 0.6183 0.6209 0.7001 0.7469 0.6441
2980.271 0.5808 0.7049 0.734 0.6501 0.5958 0.4806 0.5569 0.6338 0.7305 0.8667
2999.561 0.8374 0.8074 0.7834 0.726 0.6436 0.7575 0.9407 0.9295 0.9419 1.1088
3018.850 1.2191 1.1989 1.1324 1.0248 0.9906 1.0069 1.0043 1.104 1.1725 1.2197
3038.140 1.2292 1.3093 1.417 1.387 1.447 1.527 1.567 1.597 1.747 1.947
3057.430 2.037 2.087 2.247 2.427 2.467 2.577 2.827 2.977 3.077 3.137
3076.720 3.247 3.407 3.517 3.607 3.617 3.657 3.747 3.797 3.687 3.377
3096.009 3.087 2.867 2.617 2.417 2.247 1.997 1.857 1.657 1.2832 1.1419
3115.299 1.1205 0.9916 0.8647 0.7558 0.6772 0.6082 0.6347 0.6605 0.6752 0.652
3134.589 0.6377 0.7443 0.7524 0.6883 0.5671 0.44576 0.5531 0.7403 0.8474 0.9453
3153.879 1.0275 1.0702 0.9741 0.9522 0.9471 0.942 1.0034 1.0307 1.0403 1.0201
3173.169 0.9673 0.9487 0.8945 0.8024 0.7642 0.7344 0.7236 0.6644 0.6728 0.7225
3192.458 0.8301 0.8951 0.8546 0.7818 0.6123 0.5531 0.6013 0.5973 0.5906 0.4825
3211.748 0.4751 0.5248 0.4546 0.40502 0.41998 0.39767 0.41562 0.35802 0.36834 0.4892
3231.038 0.5165 0.5165 0.4913 0.37971 0.39866 0.42446 0.38845 0.4778 0.3158 0.2693
3250.328 0.43183 0.38583 0.2523 0.2933 0.3334 0.5081 0.5645 0.4557 0.4814 0.4887
3269.617 0.4479 0.39709 0.4515 0.43315 0.36556 0.3073 0.3014 0.350257 0.38571 0.41749
3288.907 0.34535 0.24 0.244 0.36663 0.42749 0.323 0.354437 0.4578 0.4646 0.4589
3308.197 0.42119 0.42516 0.5079 0.662 0.5385 0.41443 0.471 0.43813 0.43912 0.4478
3327.487 0.4801 0.4826 0.5305 0.6735 0.7072 0.6189 0.6565 0.6877 0.6826 0.6985
3346.777 0.6547 0.7939 0.9686 0.9578 0.8515 0.8602 0.8219 0.7846 0.8029 0.874
3366.066 0.9911 0.8729 0.8581 0.9905 0.8799 0.7911 0.7809 0.6152 0.6805 0.8119
3385.356 0.8002 0.8137 0.9238 1.0197 0.9788 1.1034 1.1214 1.0447 1.1936 1.2441
3404.646 1.2083 1.212 1.2928 1.3238 1.397 1.567 1.737 1.777 1.817 1.877
3423.936 1.937 2.027 1.847 1.757 1.777 1.767 1.737 1.707 1.597 1.497
3443.225 1.417 1.3061 1.247 1.1316 1.0415 1.0778 1.1294 1.0852 1.016 0.9321
3462.515 0.9814 0.8542 0.5623 0.5915 0.6974 0.5847 0.5637 0.561 0.4709 0.40507
3481.805 0.38947 0.5161 0.586 0.6668 0.5816 0.4651 0.5609 0.5792 0.5557 0.5902
3501.095 0.5984 0.547 0.5041 0.6213 0.6137 0.5562 0.5783 0.5596 0.5927 0.5056
3520.385 0.5064 0.6457 0.6126 0.42369 0.5536 0.6684 0.5818 0.5936 0.4695 0.4667
3539.674 0.6671 0.6422 0.5996 0.6237 0.5721 0.5831 0.6209 0.5563 0.44441 0.5432
3558.964 0.5745 0.546 0.5961 0.5978 0.5692 0.5599 0.604 0.5842 0.54 0.5445
3578.254 0.4495 0.459 0.5864 0.5626 0.4588 0.4544 0.5691 0.6329 0.7374 0.7839
3597.544 0.7197 0.671 0.5888 0.6594 0.8121 0.7608 0.6368 0.6595 0.7358 0.8559
3616.833 0.8985 0.9271 0.9194 0.9775 1.0065 0.8928 0.8588 0.8035 0.7448 0.6773
3636.123 0.7972 0.8986 0.9008 0.9442 1.0048 0.8802 0.89 1.0939 1.1821 1.187
3655.413 1.0732 1.0653 1.0835 1.1597 1.3016 1.3012 1.3256 1.357 1.547 1.757
3674.703 1.627 1.577 1.607 1.667 1.937 1.997 1.717 1.817 1.777 1.637
3693.993 1.617 1.367 1.3318 1.357 1.417 1.517 1.3047 1.1423 1.2962 1.219
3713.282 1.2276 1.2255 1 1.111 1.2134 1.1674 1.2958 1.2893 1.0355 0.8219
3732.572 0.9554 1.0041 0.9752 1.0166 0.8219 0.6428 0.7004 0.9626 1.0997 1.0361
3751.862 1.1017 1.1745 1.1544 1.0213 0.9742 1.1707 1.1507 1.1716 1.3035 1.2782
3771.152 1.242 1.1531 1.1096 1.1356 1.1791 1.2357 1.2368 1.2302 1.2063 1.1361
3790.441 1.0128 1.0617 1.0981 1.1281 1.0068 0.9433 0.9103 0.9118 0.9182 0.6352
3809.731 0.7026 0.7841 0.7637 0.8707 0.7711 0.6922 0.6338 0.7028 0.9093 0.8103
3829.021 0.6545 0.5712 0.669 0.7985 0.7146 0.5674 0.4575 0.6536 0.6503 0.4838
3848.311 0.40571 0.4794 0.5973 0.6203 0.6747 0.5822 0.602 0.7004 0.653 0.626
3867.601 0.6774 0.7044 0.7154 0.5648 0.4666 0.593 0.5676 0.43218 0.39443 0.39788
3886.890 0.532 0.5177 0.4607 0.4863 0.39245 0.4832 0.488 0.4682 0.5787 0.5669
3906.180 0.4841 0.43145 0.41645 0.36166 0.42612 0.4969 0.4752 0.37253 0.3059 0.243
3925.470 0.012 0 0.3148 0.3143 0.356485 0.4724 0.42761 0.41215 0.43013 0.36272
3944.760 0.2567 0.3329 0.2596 0.165 0.239 0.2917 0.3029 0.40143 0.508 0.4724
3964.049 0.3335 0.194 0.144 0.1 0.105 0.2657 0.2845 0.131 0.186 0.3234
3983.339 0.194 0.108 0.245 0.345 0.2878 0.3018 0.2831 0.3034 0.43815 0.4407
##END=
