##TITLE=Dimethyl diallylmalonate
##JCAMP-DX=4.24
##DATA TYPE=INFRARED SPECTRUM
##ORIGIN=EPA-IR VAPOR PHASE LIBRARY
##OWNER=SRD/NIST
Collection (C) 2018 copyright by the U.S. Secretary of Commerce
on behalf of the United States of America. All rights reserved.
##CAS REGISTRY NO=35357-77-8
##MOLFORM=C 11 H 16 O 4
##$NIST SOURCE=MSDC-IR
##STATE=gas
##XUNITS=1/CM
##YUNITS=ABSORBANCE
##XFACTOR=1.
##YFACTOR=0.001
##DELTAX=1.92934
##FIRSTX=549.9
##LASTX=3999.5
##FIRSTY=4.24
##MAXX=3999.53
##MINX=549.863
##MAXY=0.28252
##MINY=0
##NPOINTS=1789
##XYDATA=(X++(Y..Y))
549.863 4.24 4.29 4.16 4.08 4.05 3.94 3.89 3.88 3.8 3.64
569.156 3.62 3.59 3.4543 3.51 3.65 3.66 3.57 3.5 3.61 3.7
588.450 3.75 3.84 3.89 4.05 4.17 4.24 4.47 4.68 4.84 5.11
607.743 5.46 5.81 6.19 6.63 7.17 7.76 8.4 9.09 9.83 10.63
627.037 11.39 12.05 12.61 13.07 13.31 13.47 13.56 13.49 13.32 13.12
646.330 12.95 12.76 12.62 12.52 12.35 12.13 11.83 11.48 11.2 10.8
665.624 10.4 10.1 9.73 9.39 9.18 8.99 8.86 8.78 8.6 8.5
684.917 8.4 8.27 8.14 7.96 7.84 7.73 7.59 7.39 7.21 7.02
704.210 6.73 6.41 6.12 5.88 5.62 5.34 5.04 4.76 4.53 4.33
723.504 4.16 4.02 3.82 3.73 3.69 3.6 3.58 3.55 3.48 3.4466
742.797 3.4283 3.47 3.48 3.5 3.53 3.53 3.64 3.77 3.87 3.92
762.091 4.04 4.15 4.21 4.28 4.33 4.38 4.42 4.45 4.49 4.5
781.384 4.47 4.43 4.43 4.5 4.56 4.61 4.67 4.77 4.97 5.22
800.678 5.58 5.97 6.39 6.82 7.2 7.52 7.83 7.97 7.91 7.65
819.971 7.29 6.94 6.63 6.48 6.46 6.58 6.94 7.51 8.25 9.27
839.264 10.48 11.79 13.15 14.4 15.39 15.93 15.94 15.55 14.76 13.66
858.558 12.49 11.36 10.4 9.65 9.16 8.86 8.7 8.74 8.96 9.27
877.851 9.58 9.87 10.18 10.47 10.71 10.96 11.14 11.31 11.63 12.08
897.145 12.77 13.79 15.36 17.63 20.79 25.12 30.69 37.38 44.75 52.34
916.438 59.26 64.86 68.02 66.93 62.46 56.42 49.36 41.93 34.96 29.09
935.732 24.52 21.19 18.88 17.24 16.19 15.57 15.17 14.98 15.03 15.34
955.025 15.77 16.37 17.13 18.02 19.06 20.13 21.14 22.05 22.89 23.66
974.318 24.33 25.01 25.84 26.96 28.46 30.32 32.34 34.32 36.05 37.23
993.612 37.52 36.77 35.12 32.82 30.27 27.81 25.69 24.09 23.11 22.77
1012.905 23.03 23.85 25.08 26.62 28.37 30.3 32.21 34.02 35.79 37.36
1032.199 38.66 39.7 40.57 41.19 41.52 41.69 41.61 41.26 40.68 39.94
1051.492 39.08 38.1 37.1 36.13 35.27 34.53 34.02 33.62 33.43 33.49
1070.786 33.62 33.95 34.38 34.78 35.2 35.62 35.99 36.26 36.53 36.84
1090.079 37.2 37.56 37.95 38.39 38.89 39.48 40.04 40.59 41.21 41.84
1109.372 42.57 43.47 44.64 46.11 47.91 50.07 52.67 55.69 59.08 62.72
1128.666 66.64 70.58 74.29 77.78 80.79 83.13 84.74 85.54 85.56 84.74
1147.959 83.02 80.72 77.95 74.76 71.43 68.37 65.73 63.66 62.58 62.48
1167.253 63.3 65.25 68.43 72.8 78.37 84.98 92.59 101.06 110.09 119.52
1186.546 129.29 139.21 148.85 158.22 167.35 176.2 184.64 192.52 200.11 207.11
1205.840 213.46 219.17 223.75 226.94 228.36 228.13 226.1 222.02 216.2 208.71
1225.133 199.81 189.63 178.46 166.72 154.73 142.94 131.76 121.76 113.18 106.13
1244.426 100.63 96.5 93.49 91.22 89.26 87.25 84.75 81.7 78.16 74.17
1263.720 70.09 66.24 63.05 60.77 59.53 59.49 60.43 61.92 63.47 64.64
1283.013 65.04 64.4 62.66 59.88 56.24 52.16 48.02 44.08 40.61 37.67
1302.307 35.17 33.01 31.15 29.64 28.47 27.77 27.61 28.03 29.01 30.39
1321.600 31.85 33.08 34.02 34.44 34.07 32.94 31.2 29.06 26.7 24.36
1340.894 22.16 20.18 18.49 17.03 15.8 14.75 13.81 12.98 12.27 11.67
1360.187 11.16 10.7 10.28 9.95 9.7 9.43 9.21 9.04 8.86 8.68
1379.480 8.52 8.4 8.33 8.28 8.24 8.19 8.22 8.36 8.44 8.58
1398.774 8.91 9.35 9.94 10.68 11.51 12.48 13.57 14.74 15.88 16.94
1418.067 18.11 19.54 21.24 23.67 27.2 31.94 37.86 44.37 51.07 57.38
1437.361 62.23 64.52 64.3 61.64 56.51 49.91 43.19 37.29 32.16 27.81
1456.654 24.26 21.48 19.46 17.99 16.85 15.87 14.94 14.11 13.38 12.61
1475.948 11.88 11.23 10.65 10.17 9.75 9.35 9.04 8.8 8.55 8.33
1495.241 8.13 7.99 7.82 7.65 7.52 7.38 7.28 7.2 7.11 7
1514.534 6.97 6.93 6.82 6.77 6.73 6.61 6.57 6.55 6.48 6.46
1533.828 6.41 6.35 6.35 6.33 6.3 6.29 6.28 6.28 6.25 6.27
1553.121 6.36 6.41 6.4 6.4 6.39 6.4 6.39 6.33 6.3 6.26
1572.415 6.2 6.19 6.15 6.05 5.98 5.93 5.85 5.76 5.66 5.63
1591.708 5.62 5.54 5.51 5.53 5.52 5.51 5.54 5.66 5.77 5.87
1611.002 6.07 6.26 6.53 6.85 7.26 7.79 8.46 9.35 10.43 11.85
1630.295 13.6 15.54 17.47 19.2 20.45 21.07 20.86 19.78 18.01 15.86
1649.588 13.61 11.55 9.76 8.56 7.88 7.42 7.15 7.02 6.95 6.95
1668.882 7.01 7.11 7.26 7.4 7.53 7.72 7.98 8.29 8.64 8.99
1688.175 9.39 9.91 10.51 11.19 12.02 12.93 14.07 15.33 16.61 18.11
1707.469 19.66 21.33 23.12 24.98 26.93 28.97 31.18 33.67 36.77 40.7
1726.762 45.72 52.32 61.13 72.65 88.11 107.14 129.65 156.02 183.81 212.35
1746.056 239.69 261.95 275.65 282.52 281.94 269.74 249.24 228.53 208.27 187.17
1765.349 165.72 144.09 123.09 104.33 87.33 72.37 59.42 48.89 40.78 34.7
1784.642 30.19 26.7 23.93 21.75 19.98 18.46 17.2 16.15 15.28 14.49
1803.936 13.78 13.18 12.59 12.08 11.59 11.12 10.71 10.36 10.05 9.81
1823.229 9.68 9.63 9.63 9.68 9.85 10.12 10.43 10.69 10.9 11.01
1842.523 11 10.8 10.41 9.92 9.29 8.56 7.81 7.12 6.48 5.9
1861.816 5.44 5.06 4.74 4.46 4.24 4.06 3.94 3.86 3.78 3.7
1881.110 3.62 3.57 3.51 3.49 3.4679 3.4266 3.3935 3.371 3.3516 3.296
1900.403 3.2805 3.2873 3.2872 3.3001 3.3106 3.3139 3.2804 3.2727 3.2835 3.2418
1919.696 3.2044 3.2038 3.2022 3.1744 3.1952 3.2172 3.2037 3.1925 3.1828 3.2012
1938.990 3.1889 3.1534 3.1623 3.1692 3.1674 3.1864 3.1826 3.1832 3.1571 3.1512
1958.283 3.1913 3.2066 3.2019 3.2038 3.2437 3.2962 3.3523 3.3892 3.3894 3.4079
1977.577 3.4397 3.4601 3.4553 3.4506 3.4388 3.4203 3.456 3.48 3.4611 3.4406
1996.870 3.4361 3.4266 3.4204 3.4293 3.4521 3.4602 3.4598 3.48 3.52 3.53
2016.164 3.52 3.51 3.49 3.49 3.51 3.53 3.53 3.54 3.55 3.54
2035.457 3.52 3.5 3.4495 3.4402 3.4427 3.423 3.4027 3.3837 3.3382 3.3121
2054.750 3.2979 3.2965 3.2761 3.2216 3.2189 3.1913 3.191 3.2044 3.1713 3.102
2074.044 3.054 3.0438 3.0239 2.9947 2.9589 2.9162 2.8927 2.8566 2.8175 2.7951
2093.337 2.7398 2.7074 2.7123 2.6914 2.6924 2.6621 2.6349 2.6316 2.55251 2.50316
2112.631 2.49152 2.47678 2.4485 2.4046 2.361 2.332 2.346 2.343 2.325 2.283
2131.924 2.266 2.307 2.301 2.267 2.232 2.225 2.236 2.229 2.222 2.213
2151.218 2.204 2.203 2.204 2.163 2.143 2.136 2.117 2.116 2.119 2.098
2170.511 2.075 2.078 2.058 2.061 2.049 2.001 1.999 1.979 1.931 1.909
2189.804 1.874 1.833 1.816 1.802 1.786 1.767 1.717 1.685 1.657 1.661
2209.098 1.669 1.632 1.615 1.578 1.529 1.52 1.496 1.45 1.43 1.45
2228.391 1.492 1.477 1.44 1.45 1.46 1.44 1.45 1.476 1.501 1.483
2247.685 1.45 1.47 1.475 1.42 1.39 1.4 1.41 1.41 1.39 1.38
2266.978 1.4 1.4 1.41 1.44 1.44 1.43 1.44 1.42 1.39 1.42
2286.272 1.484 1.46 1.43 1.43 1.41 1.4 1.41 1.43 1.42 1.42
2305.565 1.4 1.36 1.39 1.39 1.4 1.45 1.45 1.44 1.45 1.479
2324.858 1.474 1.47 1.487 1.47 1.481 1.47 1.44 1.46 1.46 1.519
2344.152 1.512 1.472 1.489 1.472 1.471 1.488 1.496 1.528 1.529 1.503
2363.445 1.524 1.521 1.487 1.503 1.51 1.518 1.541 1.584 1.594 1.608
2382.739 1.626 1.602 1.578 1.581 1.624 1.666 1.691 1.663 1.653 1.644
2402.032 1.659 1.699 1.689 1.686 1.685 1.677 1.639 1.571 1.558 1.556
2421.326 1.521 1.516 1.511 1.514 1.519 1.472 1.46 1.473 1.46 1.43
2440.619 1.4 1.38 1.38 1.4 1.38 1.32 1.29 1.29 1.29 1.29
2459.912 1.28 1.24 1.18 1.14 1.16 1.15 1.16 1.17 1.12 1.12
2479.206 1.12 1.08 1.08 1.09 1.09 1.12 1.13 1.08 1.04 1.07
2498.499 1.07 1.06 1.08 1.08 1.05 1.04 1.01 1.02 1.08 1.06
2517.793 1.02 1.04 1.04 1 1 1.01 1.06 1.11 1.11 1.07
2537.086 1.01 1.04 1.11 1.11 1.09 1.08 1.13 1.18 1.17 1.18
2556.380 1.19 1.17 1.22 1.24 1.2 1.23 1.27 1.29 1.31 1.3
2575.673 1.27 1.28 1.28 1.22 1.23 1.22 1.16 1.19 1.24 1.21
2594.966 1.21 1.24 1.23 1.22 1.2 1.16 1.14 1.17 1.16 1.09
2614.260 1.07 1.07 1.08 1.07 1.04 1.01 0.95 0.94 0.99 0.98
2633.553 0.94 0.91 0.9 0.89 0.89 0.9 0.9 0.94 0.96 0.97
2652.847 0.99 0.96 0.89 0.87 0.83 0.85 0.88 0.84 0.81 0.8
2672.140 0.8 0.82 0.77 0.7 0.72 0.73 0.75 0.72 0.64 0.6
2691.434 0.62 0.6 0.63 0.7 0.7 0.67 0.6 0.58 0.69 0.73
2710.727 0.64 0.59 0.62 0.6 0.62 0.64 0.65 0.65 0.61 0.63
2730.020 0.62 0.63 0.63 0.62 0.62 0.68 0.72 0.66 0.65 0.71
2749.314 0.74 0.76 0.8 0.81 0.82 0.8 0.81 0.83 0.81 0.88
2768.607 0.91 0.91 0.88 0.86 0.85 0.81 0.88 0.83 0.76 0.75
2787.901 0.79 0.86 0.85 0.86 0.84 0.83 0.93 1 1.01 1.12
2807.194 1.21 1.24 1.34 1.548 1.698 1.816 1.954 2.122 2.403 2.6487
2826.488 2.9653 3.431 3.9 4.56 5.45 6.49 7.62 8.9 10.18 11.19
2845.781 11.81 12.06 11.83 11.16 10.27 9.22 8.08 7.16 6.47 6.02
2865.074 5.78 5.58 5.51 5.54 5.57 5.69 5.87 6.03 6.2 6.51
2884.368 6.91 7.3 7.77 8.33 8.96 9.65 10.3 10.87 11.39 12.03
2903.661 12.68 13.24 13.91 14.71 15.5 16.24 17.08 17.88 18.56 19.27
2922.955 19.9 20.34 20.7 21.04 21.46 22.01 22.66 23.52 24.56 26
2942.248 28.04 30.77 34.72 40.17 47.26 55.76 64.43 71.8 77.26 80.14
2961.542 78.93 73.67 66.18 57.58 48.46 40.06 33.7 29.74 27.7 27.11
2980.835 27.54 28.59 29.77 30.85 31.63 31.83 31.4 30.6 29.56 28.29
3000.128 27.08 26.08 25.39 24.84 24.3 23.85 23.55 23.37 23.15 22.85
3019.422 22.5 22 21.49 20.98 20.25 19.46 18.63 17.55 16.41 15.34
3038.715 14.25 13.19 12.27 11.47 10.82 10.41 10.03 9.82 9.77 9.77
3058.009 9.89 10.1 10.56 11.18 11.9 12.8 13.95 15.37 17.1 19.51
3077.302 22.67 26.44 30.39 33.75 36.21 37.38 36.48 33.11 28.52 23.76
3096.596 18.62 13.86 10.16 7.81 6.45 5.45 4.84 4.4 4.07 3.81
3115.889 3.55 3.2866 3.0983 2.9316 2.7849 2.6658 2.4413 2.289 2.247 2.281
3135.182 2.219 2.104 2.099 1.989 1.838 1.692 1.57 1.47 1.47 1.606
3154.476 1.44 1.17 1.22 1.21 1.04 0.89 0.89 0.9 0.81 0.76
3173.769 0.74 0.76 0.68 0.56 0.55 0.62 0.65 0.69 0.59 0.51
3193.063 0.59 0.52 0.51 0.44 0.37 0.43 0.3 0.3 0.46 0.48
3212.356 0.42 0.33 0.27 0.16 0.11 0.22 0.18 0.14 0.19 0.13
3231.650 0.19 0.2 0.06 0.04 0.1 0.12 0.06 0.09 0.15 0.1
3250.943 0.1 0.1 0.08 0.19 0.18 0.06 0.02 0.16 0.35 0.22
3270.236 0.09 0.1 0.15 0.2 0.14 0.14 0.17 0.07 0.04 0.1
3289.530 0.22 0.23 0.08 0 0.01 0.13 0.08 0.01 0.13 0.1
3308.823 0.02 0.09 0.08 0.07 0.16 0.06 0.05 0.14 0.14 0.28
3328.117 0.33 0.26 0.27 0.22 0.23 0.35 0.32 0.22 0.27 0.34
3347.410 0.35 0.34 0.3 0.18 0.15 0.29 0.41 0.37 0.32 0.45
3366.704 0.41 0.27 0.26 0.28 0.34 0.45 0.44 0.42 0.38 0.28
3385.997 0.38 0.52 0.41 0.33 0.45 0.54 0.47 0.42 0.49 0.45
3405.290 0.41 0.52 0.55 0.54 0.55 0.55 0.61 0.64 0.59 0.57
3424.584 0.65 0.69 0.68 0.65 0.6 0.69 0.72 0.66 0.84 0.85
3443.877 0.84 0.97 1.03 1.09 1.13 1.22 1.25 1.26 1.3 1.36
3463.171 1.591 1.739 1.753 1.789 1.859 1.96 2.127 2.348 2.4202 2.587
3482.464 2.6958 2.6894 2.8425 2.7858 2.6703 2.8997 3.0315 2.9108 2.8835 2.7826
3501.758 2.6954 2.7519 2.6976 2.49847 2.334 2.14 1.898 1.836 1.686 1.538
3521.051 1.47 1.32 1.25 1.31 1.37 1.33 1.27 1.11 1.02 1.08
3540.344 1.03 1 0.96 0.99 1.09 1.04 0.91 0.93 0.97 1
3559.638 1.04 0.93 1.01 1.11 1.16 1.08 0.94 0.89 0.85 0.92
3578.931 0.97 1.01 1.06 0.96 0.88 0.99 0.99 0.88 0.9 0.99
3598.225 0.9 0.92 0.91 0.85 0.88 0.83 0.81 0.81 0.82 0.88
3617.518 1 0.97 0.92 0.97 0.99 0.93 0.91 0.92 0.94 0.94
3636.812 0.9 0.86 0.85 0.9 0.9 0.86 0.9 0.97 0.96 0.96
3656.105 0.94 0.9 0.78 0.81 0.93 0.93 0.95 0.99 1.11 1.1
3675.398 0.92 0.89 0.94 0.94 0.93 0.98 1.02 0.97 0.99 1.07
3694.692 1.01 0.93 0.9 0.94 1.06 1.09 1.09 1.08 1.05 1.08
3713.985 1.11 1.1 1.13 1.14 1.13 1.15 1.13 1.13 1.15 1.12
3733.279 1.1 1.06 1.01 1.06 1.17 1.16 1.07 1.04 1.08 1.09
3752.572 1.05 1.03 1.09 1.09 1.07 1.11 1.15 1.13 1.04 0.99
3771.866 1.05 1.09 1.06 1.04 1.08 1.04 0.94 1.02 1.17 1.19
3791.159 1.16 1.19 1.2 1.2 1.23 1.12 1.03 1.16 1.15 1.16
3810.452 1.14 1.04 1.06 1.12 1.2 1.21 1.21 1.17 1.13 1.19
3829.746 1.2 1.17 1.18 1.21 1.19 1.12 1.08 1.11 1.13 1.17
3849.039 1.21 1.2 1.19 1.19 1.27 1.34 1.3 1.35 1.39 1.34
3868.333 1.32 1.33 1.33 1.27 1.33 1.34 1.3 1.31 1.28 1.28
3887.626 1.26 1.21 1.27 1.33 1.36 1.37 1.26 1.3 1.35 1.33
3906.920 1.37 1.31 1.28 1.38 1.39 1.35 1.35 1.33 1.39 1.39
3926.213 1.28 1.24 1.32 1.36 1.31 1.32 1.33 1.29 1.33 1.36
3945.506 1.38 1.4 1.37 1.33 1.33 1.38 1.39 1.46 1.495 1.36
3964.800 1.36 1.38 1.4 1.47 1.532 1.44 1.33 1.43 1.47 1.497
3984.093 1.503 1.498 1.502 1.43 1.43 1.45 1.487 1.495 1.481
##END=
