##TITLE=cis-2-Methyl-7-octadecene
##JCAMP-DX=4.24
##DATA TYPE=INFRARED SPECTRUM
##ORIGIN=EPA-IR VAPOR PHASE LIBRARY
##OWNER=SRD/NIST
Collection (C) 2018 copyright by the U.S. Secretary of Commerce
on behalf of the United States of America. All rights reserved.
##CAS REGISTRY NO=35354-39-3
##MOLFORM=C 19 H 38
##$NIST SOURCE=MSDC-IR
##STATE=gas
##XUNITS=1/CM
##YUNITS=ABSORBANCE
##XFACTOR=1.
##YFACTOR=0.001
##DELTAX=1.92918
##FIRSTX=549.8
##LASTX=3999.2
##FIRSTY=0.069
##MAXX=3999.2
##MINX=549.817
##MAXY=0.236885
##MINY=0
##NPOINTS=1789
##XYDATA=(X++(Y..Y))
549.817 0.069 0 0.115 0.146 0.016 0.345 0.6896 0.5612 0.42 0.359
569.109 0.488 0.5693 0.63824 0.69073 0.5182 0.5735 0.7985 1.0178 1.0811 1.1344
588.401 1.0579 0.9007 1.0293 1.0319 1.0287 1.1486 0.9229 0.7753 0.9337 0.9228
607.693 0.9494 0.9283 0.9247 0.8604 0.721 0.7517 0.7968 0.8527 0.8796 0.7918
626.984 0.8006 0.7662 0.723 0.64842 0.5719 0.7449 0.69143 0.515 0.5288 0.7538
646.276 1.0004 0.9738 0.8656 1.0396 1.1889 1.2998 1.5629 1.635 1.705 1.895
665.568 1.945 1.875 2.075 2.415 2.545 2.775 3.085 3.215 3.415 3.815
684.860 4.145 4.295 4.545 4.825 5.045 5.185 5.395 5.735 5.935 6.145
704.152 6.355 6.655 7.025 7.115 7.225 7.365 7.315 7.305 7.415 7.265
723.444 6.915 6.705 6.505 6.395 6.095 5.805 5.495 5.065 4.845 4.645
742.735 4.385 4.165 4.015 3.775 3.425 3.165 2.995 2.865 2.705 2.655
762.027 2.625 2.525 2.395 2.275 2.175 2.105 2.175 2.055 1.895 1.905
781.319 1.865 1.885 1.875 1.725 1.5408 1.4981 1.5105 1.4084 1.4242 1.4587
800.611 1.421 1.4565 1.3674 1.3601 1.3841 1.2806 1.2733 1.2324 1.1625 1.2144
819.903 1.3281 1.3875 1.3895 1.2839 1.2624 1.3686 1.3821 1.3907 1.4129 1.3619
839.195 1.4247 1.4452 1.3619 1.3474 1.3366 1.32 1.2401 1.2516 1.3438 1.4158
858.487 1.426 1.353 1.3249 1.3149 1.2763 1.2608 1.2962 1.3156 1.3088 1.3082
877.778 1.3467 1.3837 1.4693 1.4526 1.434 1.5159 1.4754 1.403 1.3457 1.3585
897.070 1.3904 1.3906 1.3514 1.3797 1.4134 1.4077 1.4285 1.406 1.4437 1.482
916.362 1.4327 1.3909 1.441 1.4785 1.4241 1.3749 1.3238 1.319 1.4193 1.4566
935.654 1.3538 1.4048 1.4803 1.3935 1.3983 1.4472 1.5629 1.675 1.735 1.865
954.946 2.085 2.325 2.505 2.715 2.895 2.995 2.915 2.835 2.705 2.445
974.238 2.275 2.125 1.985 1.945 1.925 1.825 1.675 1.6121 1.625 1.6081
993.529 1.5937 1.5922 1.645 1.635 1.615 1.645 1.625 1.655 1.655 1.685
1012.821 1.745 1.725 1.755 1.825 1.875 1.895 1.835 1.825 1.805 1.785
1032.113 1.735 1.715 1.705 1.635 1.675 1.685 1.5869 1.5875 1.6101 1.6049
1051.405 1.611 1.625 1.675 1.675 1.5703 1.5707 1.655 1.635 1.625 1.635
1070.697 1.5694 1.5531 1.5743 1.4343 1.3374 1.3107 1.2817 1.2213 1.1316 1.1642
1089.989 1.178 1.14 1.1209 1.1346 1.1376 1.1592 1.179 1.2032 1.2969 1.3943
1109.281 1.4226 1.5145 1.5981 1.5484 1.555 1.5813 1.579 1.5677 1.5285 1.5307
1128.572 1.5311 1.493 1.4726 1.4488 1.4597 1.4023 1.3318 1.3456 1.3731 1.3611
1147.864 1.3685 1.4849 1.5677 1.665 1.855 2.035 2.225 2.435 2.615 2.755
1167.156 2.825 2.785 2.645 2.515 2.345 2.145 1.975 1.805 1.755 1.725
1186.448 1.725 1.685 1.5906 1.5502 1.5782 1.625 1.5611 1.5228 1.575 1.5888
1205.740 1.5591 1.5605 1.5737 1.5738 1.5886 1.5502 1.5571 1.635 1.645 1.645
1225.032 1.645 1.665 1.625 1.584 1.675 1.755 1.765 1.725 1.825 1.935
1244.323 1.915 1.955 2.075 2.215 2.325 2.355 2.375 2.455 2.565 2.615
1263.615 2.735 2.895 2.965 2.985 3.025 3.075 3.085 3.035 3.035 3.115
1282.907 3.215 3.305 3.345 3.395 3.515 3.635 3.775 3.905 4.035 4.175
1302.199 4.385 4.535 4.615 4.775 4.885 4.905 4.905 4.895 4.885 4.915
1321.491 4.885 4.825 4.795 4.845 4.955 5.085 5.275 5.505 5.765 6.095
1340.783 6.475 6.855 7.235 7.555 7.815 8.005 8.045 7.955 7.875 7.845
1360.075 7.895 7.985 8.155 8.345 8.435 8.525 8.525 8.385 8.195 8.065
1379.366 8.105 8.305 8.555 8.695 8.645 8.425 7.955 7.265 6.605 6.245
1398.658 6.135 6.165 6.175 5.995 5.605 5.045 4.525 4.145 3.925 3.805
1417.950 3.655 3.705 3.935 4.095 4.335 4.685 5.105 5.665 6.395 7.145
1437.242 8.095 9.105 10.125 11.175 12.265 13.385 14.455 15.495 16.615 17.665
1456.534 18.625 19.605 20.195 20.355 20.095 19.465 18.585 17.375 15.755 13.995
1475.826 12.375 10.785 9.365 8.115 7.065 6.185 5.435 4.855 4.395 3.955
1495.117 3.565 3.265 3.025 2.745 2.535 2.355 2.075 1.925 1.855 1.735
1514.409 1.615 1.54 1.4527 1.3473 1.2802 1.2485 1.1524 1.1146 1.1271 1.0438
1533.701 0.974 0.9991 0.9507 0.838 0.8317 0.8416 0.8398 0.8521 0.859 0.8388
1552.993 0.7813 0.7406 0.71127 0.63558 0.68217 0.7568 0.7852 0.7877 0.7481 0.70907
1572.285 0.7257 0.7382 0.65657 0.68021 0.7617 0.7705 0.7532 0.7772 0.7964 0.7484
1591.577 0.7476 0.7366 0.7391 0.7757 0.7516 0.722 0.7641 0.7991 0.7703 0.7356
1610.869 0.7454 0.7637 0.7535 0.7613 0.8002 0.8625 0.8711 0.8956 0.9285 0.9561
1630.160 1.0416 1.0956 1.094 1.1589 1.305 1.3903 1.4705 1.5351 1.5428 1.5808
1649.452 1.635 1.548 1.4286 1.484 1.4769 1.4091 1.3177 1.2112 1.2223 1.1829
1668.744 1.1337 1.1492 1.1183 1.0949 1.1396 1.1603 1.1372 1.0789 1.0088 1.0232
1688.036 1.0607 1.0429 1.0097 0.9504 0.8695 0.8771 0.8613 0.8412 0.8096 0.773
1707.328 0.8302 0.8248 0.7928 0.7865 0.7487 0.65613 0.61207 0.64118 0.63339 0.63219
1726.620 0.619093 0.5899 0.5536 0.504 0.495 0.5495 0.5597 0.5541 0.5595 0.505
1745.911 0.474 0.479 0.439 0.451 0.497 0.486 0.513 0.489 0.454 0.47
1765.203 0.46 0.437 0.409 0.384 0.428 0.467 0.442 0.429 0.443 0.414
1784.495 0.41 0.474 0.462 0.406 0.415 0.457 0.477 0.453 0.417 0.4
1803.787 0.435 0.469 0.448 0.442 0.441 0.45 0.463 0.441 0.436 0.493
1823.079 0.507 0.455 0.454 0.42 0.394 0.421 0.421 0.46 0.488 0.459
1842.371 0.395 0.371 0.403 0.425 0.462 0.476 0.435 0.395 0.374 0.399
1861.663 0.451 0.444 0.414 0.371 0.362 0.429 0.43 0.454 0.446 0.396
1880.954 0.376 0.363 0.391 0.411 0.396 0.373 0.375 0.385 0.375 0.371
1900.246 0.396 0.382 0.334 0.328 0.317 0.314 0.329 0.34 0.357 0.384
1919.538 0.392 0.348 0.363 0.389 0.394 0.4 0.376 0.358 0.378 0.379
1938.830 0.403 0.428 0.392 0.387 0.365 0.357 0.382 0.373 0.363 0.333
1958.122 0.311 0.386 0.405 0.365 0.364 0.382 0.38 0.348 0.368 0.41
1977.414 0.398 0.359 0.368 0.384 0.418 0.392 0.355 0.41 0.442 0.468
1996.705 0.469 0.423 0.389 0.416 0.45 0.466 0.488 0.437 0.421 0.471
2015.997 0.491 0.511 0.5587 0.5832 0.542 0.5316 0.544 0.5549 0.5906 0.5856
2035.289 0.5408 0.5304 0.5271 0.502 0.5165 0.5817 0.60931 0.5795 0.5615 0.5833
2054.581 0.5921 0.5275 0.463 0.491 0.5429 0.5433 0.5355 0.5413 0.5396 0.5276
2073.873 0.515 0.514 0.506 0.515 0.5202 0.479 0.466 0.489 0.468 0.446
2093.165 0.447 0.449 0.486 0.502 0.466 0.442 0.473 0.468 0.414 0.396
2112.456 0.459 0.514 0.482 0.436 0.382 0.401 0.437 0.464 0.477 0.438
2131.748 0.459 0.476 0.46 0.476 0.471 0.475 0.463 0.424 0.478 0.5232
2151.040 0.508 0.499 0.506 0.5344 0.5544 0.5428 0.5206 0.5313 0.5207 0.504
2170.332 0.495 0.495 0.5151 0.541 0.5677 0.5393 0.5361 0.5535 0.5344 0.5319
2189.624 0.525 0.5374 0.5515 0.5387 0.5504 0.5697 0.5254 0.493 0.471 0.454
2208.916 0.478 0.457 0.47 0.548 0.5491 0.5453 0.5679 0.504 0.472 0.442
2228.208 0.447 0.5307 0.5534 0.504 0.466 0.482 0.504 0.504 0.447 0.433
2247.499 0.489 0.504 0.514 0.5355 0.5425 0.5584 0.5411 0.514 0.509 0.5786
2266.791 0.65716 0.605 0.5614 0.5885 0.5493 0.54 0.5812 0.5922 0.5903 0.5936
2286.083 0.60912 0.5873 0.5708 0.5902 0.62764 0.624501 0.603 0.60592 0.579 0.5309
2305.375 0.514 0.5445 0.5607 0.5452 0.5686 0.577 0.5473 0.5544 0.5563 0.5457
2324.667 0.5592 0.5393 0.5216 0.5319 0.5631 0.5538 0.521 0.507 0.474 0.45
2343.959 0.509 0.5395 0.5181 0.5617 0.5519 0.479 0.471 0.491 0.49 0.5392
2363.250 0.5909 0.5564 0.515 0.5386 0.5453 0.5295 0.5397 0.5514 0.5665 0.607
2382.542 0.65829 0.66212 0.65155 0.67319 0.70564 0.71168 0.68823 0.63062 0.6004 0.61031
2401.834 0.67397 0.68396 0.5983 0.5525 0.5917 0.65668 0.63003 0.6317 0.66914 0.65207
2421.126 0.66031 0.65108 0.622321 0.68777 0.70641 0.66878 0.66336 0.64755 0.5904 0.5714
2440.418 0.623787 0.64279 0.67115 0.68326 0.7163 0.68432 0.6376 0.63919 0.6012 0.65068
2459.710 0.67022 0.64225 0.64602 0.62564 0.63804 0.66019 0.68566 0.68285 0.66788 0.70734
2479.002 0.67397 0.67928 0.7605 0.7519 0.7235 0.7487 0.746 0.7461 0.7538 0.7949
2498.293 0.8273 0.7947 0.7864 0.7977 0.8352 0.9149 0.9248 0.9222 0.9663 0.9673
2517.585 0.9622 0.9499 0.9409 0.944 0.9523 0.9533 0.9342 0.9487 0.9586 0.9624
2536.877 0.9808 0.9925 0.9522 0.9362 0.9876 1.0152 1.0277 1.0467 1.0418 1.0579
2556.169 1.0469 1.0279 1.07 1.0976 1.0834 1.0923 1.1613 1.2197 1.2044 1.1835
2575.461 1.1856 1.2122 1.261 1.2873 1.3474 1.4213 1.4332 1.3969 1.4167 1.4391
2594.753 1.4403 1.416 1.3947 1.4979 1.615 1.635 1.625 1.635 1.685 1.705
2614.044 1.705 1.765 1.815 1.745 1.715 1.785 1.835 1.885 1.935 1.955
2633.336 1.915 1.915 2.005 2.035 2.065 2.145 2.185 2.205 2.145 2.195
2652.628 2.285 2.255 2.325 2.335 2.325 2.405 2.415 2.475 2.535 2.485
2671.920 2.465 2.495 2.465 2.425 2.455 2.515 2.585 2.555 2.495 2.475
2691.212 2.495 2.525 2.485 2.465 2.405 2.375 2.455 2.505 2.515 2.515
2710.504 2.515 2.565 2.615 2.665 2.725 2.725 2.765 2.845 2.945 2.945
2729.796 2.965 3.065 3.095 3.045 3.015 3.145 3.215 3.215 3.185 3.195
2749.087 3.255 3.275 3.275 3.285 3.385 3.495 3.515 3.525 3.585 3.695
2768.379 3.775 3.815 3.985 4.115 4.165 4.205 4.265 4.435 4.675 4.805
2787.671 4.935 5.185 5.425 5.655 5.875 6.135 6.355 6.545 6.785 7.015
2806.963 7.375 7.775 8.105 8.475 8.905 9.415 9.965 10.515 11.185 11.925
2826.255 12.705 13.615 14.595 15.775 17.215 18.825 20.795 23.175 25.995 29.505
2845.547 33.675 38.505 44.345 51.065 58.495 66.455 74.245 81.015 85.935 88.405
2864.838 88.355 86.375 83.245 79.575 75.905 72.765 70.295 68.305 66.725 65.305
2884.130 63.795 62.465 61.535 61.225 61.625 62.685 64.665 67.465 71.055 75.455
2903.422 80.345 85.825 91.885 98.335 105.235 112.855 121.555 131.805 143.975 158.255
2922.714 174.465 191.805 208.815 223.435 233.355 236.885 233.845 225.105 212.145 196.705
2942.006 180.315 164.325 149.675 136.995 126.895 119.615 115.275 113.665 114.255 116.255
2961.298 118.195 118.665 116.595 111.625 103.675 93.385 81.985 70.565 60.075 51.075
2980.590 43.825 38.115 33.345 29.575 26.795 24.595 22.775 21.495 20.775 20.525
2999.881 20.895 21.775 23.135 24.845 26.675 28.175 28.875 28.465 26.885 24.445
3019.173 21.485 18.375 15.575 13.325 11.535 10.145 9.175 8.345 7.575 7.005
3038.465 6.565 6.195 5.835 5.555 5.355 5.215 5.085 4.905 4.785 4.625
3057.757 4.515 4.515 4.455 4.415 4.305 4.075 3.995 4.005 3.775 3.505
3077.049 3.485 3.445 3.315 3.235 3.135 3.085 2.955 2.835 2.855 2.795
3096.341 2.685 2.615 2.485 2.455 2.415 2.215 2.135 2.235 2.265 2.215
3115.632 2.185 2.055 1.975 1.965 1.925 1.925 1.935 1.895 1.895 1.845
3134.924 1.805 1.785 1.715 1.795 1.815 1.715 1.665 1.705 1.765 1.685
3154.216 1.5588 1.5272 1.665 1.695 1.5762 1.5989 1.625 1.685 1.705 1.5973
3173.508 1.5815 1.615 1.5931 1.5774 1.507 1.3949 1.3659 1.3827 1.4081 1.3726
3192.800 1.3552 1.3271 1.2599 1.2267 1.2587 1.228 1.1513 1.0862 0.983 0.9678
3212.092 0.9667 0.9736 0.8744 0.8618 0.9545 0.8694 0.8265 0.7178 0.60853 0.65093
3231.384 0.68185 0.7558 0.7951 0.67028 0.5382 0.547 0.5351 0.5305 0.64779 0.716
3250.675 0.723 0.67221 0.65322 0.7278 0.68975 0.63008 0.67816 0.68989 0.66239 0.6509
3269.967 0.67799 0.65766 0.512 0.5 0.5161 0.508 0.5309 0.455 0.481 0.5557
3289.259 0.5216 0.468 0.457 0.492 0.5235 0.486 0.497 0.5168 0.497 0.469
3308.551 0.49 0.5298 0.5649 0.63663 0.5654 0.401 0.48 0.5572 0.5284 0.559
3327.843 0.5857 0.5709 0.473 0.5809 0.6008 0.494 0.5332 0.503 0.466 0.485
3347.135 0.5572 0.5706 0.472 0.419 0.39 0.438 0.451 0.446 0.5994 0.614911
3366.426 0.5499 0.502 0.429 0.413 0.396 0.407 0.386 0.296 0.317 0.288
3385.718 0.275 0.45 0.514 0.352 0.248 0.345 0.43 0.399 0.355 0.371
3405.010 0.38 0.421 0.484 0.393 0.293 0.257 0.221 0.272 0.289 0.29
3424.302 0.251 0.301 0.318 0.25 0.383 0.414 0.413 0.373 0.299 0.229
3443.594 0.242 0.229 0.202 0.28 0.25 0.211 0.168 0.167 0.207 0.227
3462.886 0.222 0.318 0.359 0.327 0.37 0.34 0.229 0.231 0.269 0.225
3482.178 0.226 0.277 0.278 0.147 0.123 0.167 0.177 0.201 0.173 0.235
3501.469 0.279 0.281 0.222 0.163 0.117 0.109 0.114 0.119 0.136 0.203
3520.761 0.254 0.149 0.146 0.224 0.287 0.229 0.224 0.269 0.19 0.194
3540.053 0.213 0.238 0.247 0.134 0.124 0.18 0.155 0.276 0.35 0.369
3559.345 0.354 0.215 0.203 0.219 0.269 0.259 0.176 0.188 0.154 0.173
3578.637 0.218 0.209 0.218 0.171 0.139 0.197 0.28 0.219 0.176 0.278
3597.929 0.296 0.234 0.23 0.265 0.367 0.329 0.15 0.227 0.337 0.336
3617.220 0.25 0.19 0.369 0.492 0.468 0.434 0.419 0.427 0.433 0.447
3636.512 0.478 0.489 0.421 0.413 0.372 0.243 0.253 0.284 0.428 0.442
3655.804 0.275 0.301 0.363 0.332 0.311 0.388 0.405 0.36 0.234 0.178
3675.096 0.256 0.338 0.303 0.251 0.295 0.311 0.177 0.184 0.351 0.338
3694.388 0.411 0.448 0.385 0.446 0.569 0.5623 0.5308 0.461 0.257 0.245
3713.680 0.344 0.441 0.493 0.438 0.5704 0.614902 0.425 0.311 0.336 0.2
3732.972 0.121 0.267 0.386 0.395 0.31 0.261 0.198 0.26 0.266 0.104
3752.263 0.252 0.417 0.371 0.427 0.411 0.314 0.392 0.438 0.294 0.314
3771.555 0.443 0.37 0.28 0.322 0.41 0.449 0.383 0.368 0.472 0.482
3790.847 0.461 0.5187 0.463 0.489 0.5658 0.47 0.347 0.371 0.474 0.388
3810.139 0.307 0.299 0.276 0.299 0.355 0.486 0.454 0.305 0.413 0.516
3829.431 0.459 0.467 0.5268 0.5504 0.413 0.341 0.367 0.425 0.5217 0.485
3848.723 0.405 0.3 0.196 0.241 0.317 0.307 0.273 0.369 0.375 0.364
3868.014 0.425 0.424 0.492 0.509 0.6021 0.498 0.383 0.42 0.429 0.457
3887.306 0.496 0.496 0.417 0.387 0.377 0.403 0.366 0.27 0.257 0.368
3906.598 0.5304 0.513 0.5454 0.5536 0.394 0.356 0.364 0.394 0.482 0.44
3925.890 0.44 0.495 0.44 0.399 0.383 0.307 0.311 0.494 0.481 0.49
3945.182 0.485 0.399 0.408 0.488 0.5713 0.5157 0.422 0.477 0.476 0.394
3964.474 0.386 0.488 0.5785 0.5491 0.486 0.363 0.446 0.5526 0.473 0.453
3983.766 0.5262 0.619686 0.62114 0.5815 0.599 0.62804 0.523 0.5263 0.566
##END=
