##TITLE=1-Bromo-5-methylhexane
##JCAMP-DX=4.24
##DATA TYPE=INFRARED SPECTRUM
##ORIGIN=EPA-IR VAPOR PHASE LIBRARY
##OWNER=SRD/NIST
Collection (C) 2018 copyright by the U.S. Secretary of Commerce
on behalf of the United States of America. All rights reserved.
##CAS REGISTRY NO=35354-37-1
##MOLFORM=C 7 H 15 Br
##$NIST SOURCE=MSDC-IR
##STATE=gas
##XUNITS=1/CM
##YUNITS=ABSORBANCE
##XFACTOR=1.
##YFACTOR=0.001
##DELTAX=1.92898
##FIRSTX=549.8
##LASTX=4000.7
##FIRSTY=2.801
##MAXX=4000.7
##MINX=549.759
##MAXY=0.141081
##MINY=0
##NPOINTS=1790
##XYDATA=(X++(Y..Y))
549.759 2.801 2.331 3.251 4.841 4.511 4.101 4.511 5.201 6.181 6.921
569.049 7.321 7.781 7.571 6.181 6.151 5.511 4.141 3.491 3.111 2.241
588.339 2.071 2.231 2.131 2.751 1.741 0.8011 0.8804 1.1101 0.8038 0.5803
607.628 1.2712 1.831 2.101 2.461 2.491 2.011 1.881 2.151 2.501 3.031
626.918 3.101 3.201 3.571 3.401 3.441 4.391 5.151 5.551 6.201 6.771
646.208 7.591 8.401 8.291 8.761 9.341 8.651 8.121 7.411 6.511 5.541
665.498 4.211 3.111 2.711 2.751 2.711 2.521 1.831 1.4213 1.751 1.771
684.787 1.871 2.031 1.6087 1.6082 1.6081 1.4435 1.681 1.5898 1.731 1.941
704.077 1.6092 1.951 2.571 2.511 2.311 2.471 2.511 2.521 3.021 3.491
723.367 4.291 4.681 4.641 4.751 4.831 4.401 4.481 5.491 5.791 5.091
742.657 4.671 4.631 3.831 3.301 3.631 3.411 2.301 1.971 2.301 1.891
761.947 1.5243 1.791 1.761 1.4368 1.711 1.861 1.831 2.041 1.681 1.651
781.236 1.781 2.061 2.221 2.091 2.161 2.151 2.101 2.371 2.591 2.691
800.526 2.831 2.561 2.621 3.031 2.971 3.041 2.631 2.351 2.821 2.631
819.816 3.041 4.461 4.591 2.271 1.781 2.281 1.841 1.5995 1.801 2.471
839.106 2.531 2.001 1.771 1.921 1.901 2.341 2.111 1.6224 1.861 2.311
858.395 2.511 2.101 2.081 2.541 2.191 2.161 2.721 2.481 2.081 1.941
877.685 1.921 2.171 2.541 2.801 2.071 1.821 2.451 2.591 2.221 1.741
896.975 2.071 2.101 1.5839 1.781 2.051 2.121 2.251 2.101 2.051 2.091
916.265 1.751 1.2981 1.5157 2.441 2.671 1.911 1.661 1.971 2.161 2.061
935.555 2.171 2.161 2.181 2.331 2.041 2.071 1.951 1.811 2.001 1.871
954.844 2.131 2.881 2.821 2.281 2.231 2.921 3.321 2.941 2.541 2.231
974.134 2.391 2.651 2.931 3.031 2.531 2.221 2.421 2.361 2.311 2.261
993.424 2.071 2.201 2.691 2.701 1.691 1.971 2.431 2.051 2.111 2.741
1012.714 2.591 2.481 2.871 2.651 2.581 2.481 3.061 2.711 1.5324 1.5017
1032.003 1.5509 1.4208 0.8687 1.781 2.671 1.761 1.114 1.5118 2.441 2.131
1051.293 1.459 1.1217 1.3004 1.0696 0.527 0.5911 0.73142 0.9107 0.9013 0.9625
1070.583 1.3696 0.8465 0.196 0.8587 1.6222 1.861 2.021 1.3193 0.9766 2.201
1089.873 2.891 2.511 1.4717 0.222 0 0.8746 1.651 0.6096 1.0064 2.761
1109.163 2.071 2.551 2.871 2.171 1.2616 0.7573 1.5466 0.66399 0.6161 1.4042
1128.452 2.151 2.061 0.8405 1.5938 2.711 2.391 2.361 2.061 1.1375 1.3117
1147.742 1.4787 2.021 2.061 2.101 2.131 2.171 3.241 4.501 5.391 5.621
1167.032 6.231 6.591 5.991 5.541 5.141 5.101 4.821 3.721 3.991 4.411
1186.322 3.941 4.051 4.611 4.891 5.421 5.621 5.771 6.321 6.031 5.871
1205.611 6.661 7.341 7.971 6.511 6.441 7.641 5.991 5.721 7.351 9.051
1224.901 9.001 8.411 10.121 11.681 11.801 12.791 14.091 14.731 15.831 17.021
1244.191 17.651 18.341 18.491 18.361 19.071 18.461 17.451 17.521 16.551 15.521
1263.481 15.251 14.711 14.151 13.421 12.091 11.341 10.931 10.731 10.701 10.801
1282.771 10.881 10.461 10.211 10.401 10.221 9.951 9.721 8.971 8.361 8.091
1302.060 7.761 7.691 7.781 7.431 7.201 6.991 6.891 6.861 6.501 6.231
1321.350 5.951 5.591 5.481 5.581 5.841 6.071 6.051 6.201 6.311 6.261
1340.640 6.511 6.711 6.591 6.521 6.881 7.111 7.341 7.711 8.051 8.511
1359.930 8.811 9.371 10.021 10.501 10.891 11.161 11.491 11.621 11.751 11.801
1379.219 11.781 11.981 12.341 12.691 12.641 12.311 11.761 10.941 9.881 8.641
1398.509 7.371 6.221 5.421 4.971 4.541 4.121 4.041 4.081 4.061 4.051
1417.799 4.291 4.731 4.921 5.371 6.081 6.611 7.421 8.361 9.291 10.591
1437.089 11.771 12.541 13.351 14.231 14.861 15.291 15.771 15.921 16.131 16.761
1456.378 17.261 17.871 18.401 18.761 18.941 18.721 18.491 18.051 17.261 16.311
1475.668 14.941 13.201 11.781 10.611 9.451 8.421 7.501 6.461 5.611 5.191
1494.958 4.811 4.251 3.691 3.271 2.941 2.631 2.531 2.661 2.511 2.301
1514.248 2.251 2.031 1.961 2.061 2.021 1.911 1.731 1.661 1.574 1.4302
1533.538 1.2825 0.9986 0.9776 1.1746 1.186 1.1702 1.054 0.9099 1.0553 1.2712
1552.827 1.3898 1.2063 1.1955 1.375 1.381 1.4289 1.2282 0.8567 0.8879 1.1591
1572.117 1.1269 1.1 1.157 0.9003 0.7869 0.9949 1.2199 1.3898 1.3057 0.9964
1591.407 0.7997 0.9968 0.8806 0.8076 0.8824 0.9047 1.1496 1.0916 1.0847 1.0944
1610.697 1.1047 1.2878 1.0749 1.0169 1.0529 0.7798 0.8077 1.0338 1.1489 1.0944
1629.986 1.0641 1.1027 1.0923 1.1087 1.0901 0.7816 0.8914 1.2916 1.0604 0.9577
1649.276 1.0575 0.8247 0.9065 1.2528 1.2516 1.1006 1.082 1.0903 0.9599 1.0963
1668.566 1.2495 1.2577 1.1888 1.1126 1.1222 1.0283 1.0854 1.1728 1.0855 1.1184
1687.856 1.2954 1.1662 0.9581 1.0081 1.0297 0.8595 0.5705 0.525 0.7421 0.9989
1707.146 1.018 0.9534 0.9631 0.8072 0.73503 0.8371 0.67035 0.533 0.68183 0.8138
1726.435 0.8076 0.9431 0.9082 0.69424 0.71425 0.645405 0.69271 0.6867 0.5993 0.7414
1745.725 0.845 0.65559 0.53 0.7352 0.8295 0.7871 0.9458 1.0179 1.005 0.9254
1765.015 0.8768 0.8212 0.70046 0.7811 0.7493 0.70328 0.69359 0.7617 0.9158 0.9008
1784.305 0.8441 0.8154 0.70293 0.7782 0.9399 0.8741 0.873 0.7753 0.7428 0.8696
1803.594 0.8261 0.8601 0.887 0.7896 0.7697 0.7843 0.7874 0.8303 0.8032 0.7696
1822.884 0.8085 1.007 0.9207 0.8117 0.8338 0.68215 0.8522 0.9492 0.8172 0.7447
1842.174 0.882 0.9484 0.73815 0.6021 0.8345 0.8591 0.8094 0.8523 0.70803 0.70452
1861.464 0.643809 0.8583 0.9719 0.9327 0.9493 0.7664 0.8174 0.68168 0.5745 0.6113
1880.754 0.5415 0.65231 0.8122 0.9654 0.8489 0.6274 0.70109 0.9529 0.9222 1.0298
1900.043 0.9011 0.5998 0.7958 0.8567 0.70524 0.66293 0.68187 0.8705 0.9328 0.786
1919.333 0.8238 0.9176 0.925 0.9064 1.1217 1.1259 0.9419 0.939 0.96 0.9222
1938.623 0.9145 0.9523 0.9294 0.7572 0.69125 0.7456 0.68233 0.68073 0.9612 1.0498
1957.913 0.9554 0.9691 0.69599 0.644709 0.8584 0.876 0.8692 0.818 0.7523 0.71111
1977.202 0.9086 1.0197 0.8916 0.8731 0.8938 0.8858 0.9625 0.8462 0.7053 1.0334
1996.492 1.0305 0.816 0.8526 1.0517 0.9978 0.8352 0.9684 0.8999 0.8367 0.7798
2015.782 0.69163 0.7868 0.9532 1.0497 1.1038 1.0351 1.0499 1.1611 1.0501 1.0172
2035.072 1.0177 1.0474 1.1833 1.2681 1.3104 1.1971 0.9279 1.0314 1.1353 0.8928
2054.362 0.8564 0.8356 0.9909 1.1438 0.895 0.7757 0.9952 1.0072 0.96 0.9382
2073.651 0.904 0.7686 0.73155 0.9841 0.9251 0.8326 0.9015 1.0306 0.9713 0.7736
2092.941 0.7663 0.902 1.0781 1.034 0.9128 1.0384 0.9959 0.8625 0.8668 0.69863
2112.231 0.66108 0.9557 1.0569 1.017 1.0874 0.9198 0.7598 0.8444 0.8642 0.9555
2131.521 1.1732 1.0897 0.8401 0.9572 1.0276 0.9035 0.8179 0.9291 1.0672 1.0543
2150.810 1.0761 1.1181 1.2459 1.1788 0.9878 0.9908 1.0585 1.1022 1.1019 1.0637
2170.100 1.055 1.0508 1.1551 1.1408 1.1943 1.1389 0.9566 0.923 0.8059 1.084
2189.390 1.161 1.0319 1.213 1.2444 1.1408 1.1283 1.2377 1.1827 1.273 1.4235
2208.680 1.4116 1.2529 0.9875 0.9263 0.8875 0.9065 1.131 1.3846 1.3872 1.3721
2227.970 1.33 1.085 1.1019 1.1562 1.1534 1.3094 1.2203 1.1597 1.2232 1.181
2247.259 1.1287 0.9628 0.7569 0.9031 1.0673 1.1069 1.0954 1.1014 1.2568 1.2836
2266.549 1.0839 1.1012 1.2577 1.1717 1.1661 1.2501 1.2378 1.0689 1.0053 1.2001
2285.839 1.1016 1.2067 1.5054 1.3107 1.1121 0.9847 1.1504 1.385 1.3811 1.24
2305.129 1.1879 1.1014 1.1026 1.0285 0.8988 1.0424 1.3726 1.5239 1.1397 1.2259
2324.418 1.3646 1.3151 1.2572 1.3592 1.4156 1.1644 1.1267 1.1039 1.2208 1.3782
2343.708 1.4038 1.5128 1.3821 1.2155 1.0702 0.9916 1.1659 1.2936 1.4367 1.3909
2362.998 1.3956 1.3954 1.4143 1.5712 1.5405 1.3544 1.3071 1.4384 1.3906 1.3867
2382.288 1.3862 1.1463 1.1861 1.3279 1.2143 1.1662 1.183 1.0089 0.8964 0.9426
2401.578 1.1777 1.1979 1.0342 1.2048 1.3349 1.3624 1.2137 1.2829 1.5642 1.3083
2420.867 1.0532 1.1723 1.3768 1.4224 1.474 1.4545 1.2714 1.14 1.1066 1.336
2440.157 1.5015 1.3476 1.2532 1.2421 1.3285 1.4456 1.3855 1.2404 0.9879 1.1077
2459.447 1.3315 1.2166 1.1126 1.2889 1.5192 1.4059 1.0831 0.9613 1.1268 1.1919
2478.737 1.1545 1.2272 1.2883 1.2008 1.2571 1.4968 1.4805 1.2072 1.2581 1.4312
2498.026 1.4829 1.251 1.0132 1.0065 1.0508 1.2097 1.463 1.5485 1.3512 1.4831
2517.316 1.4504 1.225 1.0975 0.9998 1.2126 1.3448 1.1955 1.2575 1.3911 1.3631
2536.606 1.3827 1.3057 1.226 1.4462 1.2629 0.9868 1.1054 1.3755 1.501 1.5031
2555.896 1.5873 1.3609 1.3457 1.4895 1.4112 1.5364 1.701 1.701 1.6376 1.4075
2575.186 1.3272 1.1158 1.0902 1.3923 1.5189 1.6221 1.811 1.891 1.681 1.4667
2594.475 1.3427 1.5215 1.681 1.6171 1.5354 1.681 1.821 1.901 1.871 2.021
2613.765 2.131 2.021 2.021 2.011 2.101 2.101 2.111 2.101 2.121 2.161
2633.055 2.131 2.271 2.301 2.291 2.401 2.151 2.001 1.971 1.6274 1.651
2652.345 2.111 2.241 1.751 1.6195 1.981 1.971 1.981 1.921 2.021 2.201
2671.634 2.181 2.011 2.221 2.241 1.901 1.971 2.301 2.481 2.311 2.301
2690.924 2.541 2.841 2.431 2.361 2.601 2.561 2.571 2.681 2.641 2.561
2710.214 2.971 2.811 2.401 2.551 2.681 2.351 2.351 2.631 2.831 3.251
2729.504 3.041 2.951 3.231 3.561 3.831 3.331 3.081 3.141 3.101 3.091
2748.794 3.271 3.371 3.281 2.871 2.961 3.371 3.181 3.141 3.221 3.191
2768.083 3.191 3.401 3.571 3.761 3.901 3.511 3.201 3.621 3.951 3.801
2787.373 3.531 3.611 3.981 4.201 4.661 4.571 4.121 4.601 4.841 4.881
2806.663 5.401 5.501 5.881 6.381 6.361 6.471 7.161 7.541 7.571 7.551
2825.953 7.841 8.891 9.801 10.661 11.591 12.661 14.131 15.311 16.621 18.481
2845.242 20.391 22.241 24.321 26.081 27.691 29.841 31.351 32.571 34.221 35.761
2864.532 37.311 39.101 40.941 42.961 45.251 47.521 49.331 50.741 52.151 53.041
2883.822 53.251 53.111 52.461 52.311 53.081 53.871 54.611 55.671 57.031 58.561
2903.112 60.671 63.541 65.731 67.871 70.481 72.361 73.791 75.101 76.451 77.611
2922.401 79.001 80.761 82.471 84.891 87.561 90.061 92.811 95.411 97.771 99.521
2941.691 100.721 101.851 102.771 102.801 103.191 105.271 108.271 112.831 118.711 126.171
2960.981 134.181 139.341 141.081 139.661 134.781 125.891 113.481 99.181 84.781 69.931
2980.271 56.911 47.421 39.661 33.561 28.811 25.041 22.081 19.761 18.071 16.821
2999.561 15.851 15.381 15.271 15.101 15.011 15.051 14.631 14.271 13.721 12.681
3018.850 12.031 11.251 10.231 9.351 7.901 6.911 6.611 5.941 5.771 5.771
3038.140 5.291 4.761 4.451 4.431 4.801 4.781 4.361 3.971 3.631 3.491
3057.430 3.691 3.831 3.781 3.531 3.441 3.461 3.681 4.051 3.741 3.571
3076.720 3.211 2.901 3.161 3.321 2.851 2.671 3.071 3.331 3.521 3.431
3096.009 2.951 2.711 2.941 2.741 2.761 2.681 2.061 2.121 2.291 2.311
3115.299 2.201 1.971 2.131 2.301 2.321 2.631 2.931 2.671 2.451 2.751
3134.589 2.801 2.741 2.631 2.381 2.541 2.371 2.451 2.451 2.391 2.641
3153.879 2.111 2.061 2.281 2.151 2.251 2.441 2.831 2.661 2.121 2.271
3173.169 2.461 2.351 2.531 2.531 2.601 2.641 2.071 1.951 2.271 2.041
3192.458 1.931 2.291 2.351 2.121 1.625 1.761 2.091 1.811 1.921 2.161
3211.748 1.861 1.6007 1.3893 0.9283 1.0054 1.3563 1.3693 1.6041 1.831 1.871
3231.038 1.6352 1.3026 1.165 1.2997 1.4178 1.5268 1.3531 1.0951 0.9647 0.66194
3250.328 0.73543 0.9366 0.7644 0.65871 0.8602 1.1778 1.4114 1.3236 1.2205 1.22
3269.617 1.2048 0.9477 1.0757 1.4413 1.0479 0.71855 1.1457 1.0465 0.805 1.0866
3288.907 0.8063 0.69115 0.8652 0.6249 0.444 0.8194 1.0711 1.1034 1.0313 0.9959
3308.197 1.641 1.5099 1.1818 1.4657 1.1324 0.9687 0.66106 0.319 0.369 0.362
3327.487 0.302 0.442 0.7876 1.2101 1.5033 1.4402 1.3745 1.2417 1.711 1.691
3346.777 1.3105 1.5674 1.5545 1.083 0.9331 1.1476 0.9135 0.411 0.7378 0.512
3366.066 0.63849 1.144 0.7438 1.1198 1.2551 1.2899 1.0999 0.6718 1.1175 1.2117
3385.356 0.7954 1.0392 0.7942 0.371 0.68097 0.71116 0.67824 0.69793 0.7441 0.9011
3404.646 0.70719 1.1514 1.3314 0.7865 1.0878 1.4504 1.5283 1.2965 0.9374 0.8672
3423.936 0.5653 0.5878 0.7434 0.7901 0.9562 0.8761 0.9736 0.9673 1.065 1.1679
3443.225 1.2231 1.3713 1.0622 0.865 1.0112 1.2011 0.9459 1.0782 1.0219 0.335
3462.515 0.51 1.0512 1.0548 0.5424 0.066 0.311 0.518 0.421 0.71418 0.9327
3481.805 0.7423 0.6766 1.0662 1.5097 1.1773 0.601 0.9325 0.8217 0.7798 0.9544
3501.095 0.5524 0.7643 1.0279 0.9733 0.9523 0.7773 0.446 0.471 0.7929 0.5868
3520.385 0.9541 1.3424 1.1185 0.9937 0.68407 0.291 0.259 0.7626 0.7555 0.31
3539.674 0.271 0.8481 0.8066 0.416 0.69785 0.9804 0.7833 0.403 0.297 0.439
3558.964 1.0465 1.35 1.1387 0.69099 0.65257 1.0383 1.0267 0.9224 0.7911 1.1687
3578.254 1.5613 1.4247 1.3248 1.1066 1.323 1.2528 0.67023 0.9707 1.2849 1.3102
3597.544 1.3044 1.4959 1.1954 0.9249 1.2583 1.0022 1.0476 1.3167 1.5712 1.2118
3616.833 0.68091 1.2787 1.4623 1.1631 1.1697 0.7669 0.6135 1.1359 1.1927 0.8323
3636.123 0.8446 0.8249 1.0654 1.6237 1.3428 1.0865 1.29 1.2192 1.2689 1.0655
3655.413 0.8096 0.9373 0.9368 1.063 0.9158 0.8203 1.1838 1.102 0.5559 0.6801
3674.703 1.2412 1.3916 1.1756 1.2152 1.1398 0.8429 0.65172 0.501 0.9152 1.0181
3693.993 0.9347 1.2019 1.3476 1.2391 1.1025 0.8839 1.1371 1.1806 0.8507 0.832
3713.282 0.496 0.073 0.338 0.9075 1.0619 0.9973 0.9538 1.3745 1.591 1.127
3732.572 0.8716 0.65391 0.7917 1.1174 1.0181 0.9373 1.1176 1.0499 1.0904 1.6066
3751.862 1.1972 0.6235 0.6227 0.395 0.5498 1.0987 1.1611 0.7704 0.429 0.369
3771.152 0.6784 1.0084 1.1355 0.8846 0.7794 1.1404 1.0252 0.9164 1.1899 0.917
3790.441 0.9962 1.5084 1.1586 0.9846 1.2327 1.323 1.3954 1.761 2.191 2.201
3809.731 1.691 1.4436 1.1596 1.2133 1.4046 1.5497 1.671 1.1261 0.92 0.6106
3829.021 0.8338 1.1113 1.2896 1.801 1.6344 1.4304 1.691 1.751 1.2574 1.4273
3848.311 1.771 0.8719 0.5905 0.8015 0.9606 1.299 1.451 1.4928 1.3657 1.4912
3867.601 1.355 1.1016 0.9468 0.69162 1.0952 1.5509 1.4279 1.4738 1.911 1.4771
3886.890 0.73965 1.1068 1.207 1.1514 1.1478 0.8109 0.8597 0.953 0.650057 0.8198
3906.180 0.8672 0.7828 1.2701 1.3945 1.2701 0.9782 0.644043 0.9448 1.198 1.4798
3925.470 1.651 1.651 1.4659 1.007 1.4143 1.4917 1.0706 0.894 1.0172 1.3247
3944.760 1.444 1.1791 1.1353 1.603 1.2565 0.8649 0.8412 0.51 0.543 0.815
3964.049 0.6144 0.358 0.6005 1.0449 0.9775 1.0233 1.181 1.2093 1.4748 1.564
3983.339 1.641 1.4401 1.681 1.741 0.9719 0.8017 1.1159 1.3451 1.5612 1.5299
##END=
