##TITLE=2-Methyl-7-octadecyne
##JCAMP-DX=4.24
##DATA TYPE=INFRARED SPECTRUM
##ORIGIN=NIST Mass Spectrometry Data Center
##OWNER=NIST Standard Reference Data Program
Collection (C) 2018 copyright by the U.S. Secretary of Commerce
on behalf of the United States of America. All rights reserved.
##CAS REGISTRY NO=35354-38-2
##MOLFORM=C 19 H 36
##$NIST SOURCE=MSDC-IR
##SPECTROMETER/DATA SYSTEM=HP-GC/MS/IRD
##STATE=gas
##XUNITS=1/CM
##YUNITS=ABSORBANCE
##XFACTOR=1.0
##YFACTOR=0.000005000
##DELTAX=4.0
##FIRSTX=550.0
##LASTX=3846.0
##FIRSTY=0.001770
##MAXX=3846
##MINX=550
##MAXY=0.05
##MINY=0
##NPOINTS=825
##XYDATA=(X++(Y..Y))
550.0 354 163 27 39 34 34 40 48 21 30
590.0 44 38 31 27 27 42 51 37 33 31
630.0 29 36 43 52 53 40 34 41 51 47
670.0 47 58 62 66 59 61 72 82 97 106
710.0 125 152 160 163 170 164 159 145 129 125
750.0 123 127 120 95 91 98 97 86 73 69
790.0 72 80 77 73 73 77 82 84 78 70
830.0 66 66 69 72 66 66 63 59 61 68
870.0 78 74 71 74 78 81 78 83 87 86
910.0 78 74 75 77 82 71 68 73 66 67
950.0 71 69 70 70 72 78 80 83 82 83
990.0 89 88 81 77 71 64 66 71 68 66
1030.0 69 62 66 70 69 70 72 74 73 77
1070.0 72 70 75 73 69 71 70 69 71 75
1110.0 87 90 90 90 87 82 79 79 78 85
1150.0 93 102 117 131 146 144 130 119 112 109
1190.0 109 101 100 107 106 106 113 112 105 104
1230.0 105 105 109 108 111 124 128 136 150 161
1270.0 166 175 189 196 204 216 233 249 263 280
1310.0 295 320 364 431 517 590 600 560 525 520
1350.0 518 501 477 459 460 464 443 420 417 406
1390.0 372 308 243 206 190 186 186 187 211 259
1430.0 337 454 585 671 709 750 794 847 885 854
1470.0 762 625 492 378 286 223 186 153 128 93
1510.0 84 89 68 56 62 59 50 29 27 44
1550.0 46 33 11 29 46 43 36 35 50 52
1590.0 55 57 50 46 44 42 33 28 31 32
1630.0 32 20 23 29 20 3 1 25 33 29
1670.0 26 24 26 9 8 23 12 0 4 19
1710.0 22 13 7 20 25 17 9 15 21 22
1750.0 17 18 19 16 16 14 15 24 25 25
1790.0 21 18 22 20 23 24 23 25 24 19
1830.0 20 27 27 21 26 29 25 22 25 23
1870.0 20 25 22 22 25 21 21 21 23 23
1910.0 20 18 19 21 22 24 24 23 20 22
1950.0 24 21 18 18 16 19 20 18 20 18
1990.0 20 22 25 28 26 26 26 25 28 31
2030.0 32 32 32 35 33 30 32 31 27 28
2070.0 28 27 29 25 26 26 23 22 23 24
2110.0 24 22 22 23 24 24 26 27 26 24
2150.0 22 23 21 19 23 21 22 28 27 22
2190.0 23 27 31 32 29 27 22 18 21 22
2230.0 22 19 19 21 24 25 28 26 23 24
2270.0 24 23 27 31 28 26 26 25 22 20
2310.0 22 22 20 22 23 22 20 18 18 20
2350.0 21 19 20 19 18 18 22 25 25 26
2390.0 25 25 27 23 23 26 24 23 23 21
2430.0 21 21 18 17 20 22 22 23 27 26
2470.0 25 28 29 26 21 19 22 24 25 27
2510.0 26 28 32 35 33 35 34 34 39 42
2550.0 45 47 46 49 53 52 52 57 58 59
2590.0 64 66 66 65 67 70 75 77 77 86
2630.0 94 93 95 101 104 104 104 109 112 114
2670.0 117 120 121 121 121 118 120 120 115 112
2710.0 117 120 122 129 137 139 141 143 147 152
2750.0 153 156 161 167 172 177 188 194 203 213
2790.0 232 253 278 301 324 353 392 439 495 559
2830.0 636 747 910 1154 1513 1989 2543 3099 3506 3615
2870.0 3458 3207 2999 2847 2719 2648 2704 2925 3314 3833
2910.0 4415 5038 5810 6850 8104 9294 10000 9912 9012 7621
2950.0 6290 5447 5145 5088 4833 4161 3226 2344 1706 1297
2990.0 1023 832 693 584 498 440 392 352 319 294
3030.0 273 256 242 231 218 209 197 182 180 171
3070.0 158 158 152 148 147 147 139 126 125 119
3110.0 111 110 113 110 111 113 113 109 106 108
3150.0 105 97 95 95 100 104 103 99 97 95
3190.0 89 88 86 79 75 70 66 66 69 67
3230.0 65 64 60 59 59 55 50 52 51 49
3270.0 52 52 53 57 55 54 54 47 51 55
3310.0 54 53 47 49 53 54 56 55 53 55
3350.0 55 50 47 46 43 46 48 53 48 38
3390.0 39 39 40 38 41 43 43 44 44 39
3430.0 39 48 46 39 40 36 39 45 45 42
3470.0 32 31 34 34 33 32 33 27 26 31
3510.0 30 33 29 23 28 27 29 30 31 33
3550.0 31 28 26 23 22 25 29 28 26 23
3590.0 33 39 28 33 30 22 31 27 32 34
3630.0 30 37 41 48 36 22 26 28 37 39
3670.0 33 26 33 43 27 21 37 40 36 32
3710.0 29 33 37 39 40 29 12 16 11 5
3750.0 9 18 33 38 34 42 43 38 35 38
3790.0 35 34 30 25 37 44 33 28 34 35
3830.0 35 32 25 31 41
##END=
