##TITLE=9-Octadecyne
##JCAMP-DX=4.24
##DATA TYPE=INFRARED SPECTRUM
##ORIGIN=NIST Mass Spectrometry Data Center
##OWNER=NIST Standard Reference Data Program
Collection (C) 2018 copyright by the U.S. Secretary of Commerce
on behalf of the United States of America. All rights reserved.
##CAS REGISTRY NO=35365-59-4
##MOLFORM=C 18 H 34
##$NIST SOURCE=MSDC-IR
##SPECTROMETER/DATA SYSTEM=HP-GC/MS/IRD
##STATE=gas
##XUNITS=1/CM
##YUNITS=ABSORBANCE
##XFACTOR=1.0
##YFACTOR=0.000007000
##DELTAX=4.0
##FIRSTX=550.0
##LASTX=3846.0
##FIRSTY=0.000812
##MAXX=3846
##MINX=550
##MAXY=0.07
##MINY=0
##NPOINTS=825
##XYDATA=(X++(Y..Y))
550.0 116 72 38 41 46 49 40 40 28 27
590.0 28 26 25 18 10 14 22 10 7 11
630.0 9 0 5 16 12 6 8 12 8 3
670.0 5 4 10 21 27 30 33 48 68 87
710.0 104 116 131 144 135 129 119 102 96 93
750.0 91 89 84 75 71 67 61 55 45 45
790.0 48 41 42 38 24 23 25 20 14 19
830.0 24 21 20 21 25 22 23 25 21 20
870.0 24 27 27 31 34 37 38 33 32 31
910.0 29 27 26 24 22 24 26 30 29 33
950.0 35 34 31 30 31 31 32 34 34 33
990.0 34 38 40 37 37 43 48 48 50 51
1030.0 50 48 48 48 46 45 45 41 37 35
1070.0 28 25 23 21 22 24 25 26 30 37
1110.0 41 43 33 24 19 15 19 22 19 19
1150.0 21 23 21 23 28 31 34 35 33 36
1190.0 40 43 44 44 47 49 48 49 50 49
1230.0 50 53 61 65 68 72 75 78 87 97
1270.0 112 126 139 152 164 174 186 204 220 235
1310.0 249 270 309 372 458 527 535 495 451 431
1350.0 417 393 358 327 298 272 256 249 247 232
1390.0 198 170 152 139 137 137 147 168 192 231
1430.0 307 433 560 629 658 688 742 789 782 726
1470.0 636 511 384 285 222 181 146 121 105 104
1510.0 95 77 71 65 52 46 44 47 47 39
1550.0 33 35 41 32 23 23 22 20 19 19
1590.0 17 17 14 12 17 17 17 16 16 14
1630.0 11 17 18 14 17 22 21 13 8 9
1670.0 17 18 14 19 20 13 18 20 15 11
1710.0 11 15 16 10 8 13 18 15 13 13
1750.0 13 11 9 8 6 10 8 4 7 7
1790.0 7 6 6 9 5 4 6 6 3 5
1830.0 5 4 2 5 6 1 0 3 1 4
1870.0 6 3 1 2 3 4 1 0 3 2
1910.0 4 4 5 3 1 2 3 4 5 4
1950.0 3 1 2 1 0 3 4 3 4 5
1990.0 7 6 5 6 7 7 10 9 11 14
2030.0 14 13 14 13 13 12 10 9 8 8
2070.0 9 10 9 8 8 9 8 8 7 6
2110.0 6 6 7 8 7 6 6 5 6 8
2150.0 10 10 9 7 7 7 6 6 7 7
2190.0 8 8 7 8 7 10 10 6 6 6
2230.0 8 7 6 8 7 8 9 8 7 5
2270.0 7 9 8 7 8 7 9 12 10 9
2310.0 10 11 12 11 10 11 9 12 12 9
2350.0 8 11 15 15 12 12 12 9 9 10
2390.0 10 8 7 8 7 6 7 5 3 3
2430.0 3 0 3 3 4 7 4 4 4 3
2470.0 5 8 7 7 8 9 9 8 9 10
2510.0 9 10 12 15 17 18 18 17 17 19
2550.0 18 22 25 24 23 24 28 26 28 31
2590.0 31 32 34 36 37 37 40 48 50 51
2630.0 56 61 64 66 70 74 76 79 81 82
2670.0 87 91 95 95 92 89 82 79 76 75
2710.0 76 78 79 80 83 88 93 100 104 107
2750.0 108 109 115 125 131 135 141 152 166 180
2790.0 195 216 237 257 282 311 348 390 446 512
2830.0 592 704 866 1104 1453 1926 2499 3091 3539 3659
2870.0 3449 3100 2807 2617 2479 2377 2379 2550 2893 3384
2910.0 4001 4722 5623 6773 8084 9291 10000 9887 8931 7435
2950.0 5911 4787 4187 3972 3839 3481 2844 2152 1612 1244
2990.0 999 819 683 577 499 438 386 350 318 287
3030.0 261 242 223 202 185 174 164 153 142 134
3070.0 125 119 111 105 100 97 93 86 80 73
3110.0 69 66 67 65 61 57 52 50 52 51
3150.0 50 52 48 45 47 46 43 43 40 37
3190.0 33 30 32 31 25 22 21 18 18 17
3230.0 17 18 16 11 9 7 6 13 15 12
3270.0 9 9 12 12 11 11 12 9 8 10
3310.0 13 14 9 10 13 12 13 15 17 17
3350.0 15 13 9 6 9 12 10 8 10 7
3390.0 5 5 5 9 12 12 8 6 10 9
3430.0 11 15 14 11 11 11 9 8 4 3
3470.0 6 6 8 5 4 3 2 8 13 10
3510.0 5 1 0 6 3 0 3 0 6 12
3550.0 5 5 4 3 9 6 1 4 3 10
3590.0 15 11 7 8 14 17 16 15 17 23
3630.0 24 16 13 18 25 25 20 17 8 9
3670.0 16 19 18 14 12 13 9 9 14 18
3710.0 22 19 16 21 21 18 27 25 23 28
3750.0 19 15 19 18 14 14 13 15 18 17
3790.0 12 14 18 20 17 15 18 23 21 17
3830.0 18 23 24 23 18
##END=
