##TITLE=4-Iodothioanisole
##JCAMP-DX=4.24
##DATA TYPE=INFRARED SPECTRUM
##ORIGIN=EPA-IR VAPOR PHASE LIBRARY
##OWNER=SRD/NIST
Collection (C) 2018 copyright by the U.S. Secretary of Commerce
on behalf of the United States of America. All rights reserved.
##CAS REGISTRY NO=35371-03-0
##MOLFORM=C 7 H 7 I S
##$NIST SOURCE=MSDC-IR
##STATE=gas
##XUNITS=1/CM
##YUNITS=ABSORBANCE
##XFACTOR=1.
##YFACTOR=0.001
##DELTAX=1.92898
##FIRSTX=549.8
##LASTX=4000.7
##FIRSTY=1.6954
##MAXX=4000.7
##MINX=549.759
##MAXY=0.05643
##MINY=0
##NPOINTS=1790
##XYDATA=(X++(Y..Y))
549.759 1.6954 1.2502 0.557 1.4193 1.6623 0.55 0 0.352 1.6031 2.19
569.049 1.9581 1.6054 1.8546 2.26 1.5831 1.8449 1.8986 0.781 0.544 1.3245
588.339 1.7876 1.9283 1.5818 1.4091 1.9417 1.9922 1.9035 1.9341 1.4989 1.2912
607.628 0.995 0.978 1.6702 1.5373 1.6712 2.17 2.32 2.67 2.73 2.76
626.918 2.67 2.28 2.13 2.38 2.59 2.68 2.46 1.8936 1.5615 1.3606
646.208 1.2481 1.9281 2.0937 1.7364 1.8389 2.0612 2.0251 1.867 1.6548 1.6864
665.498 1.8297 1.4787 1.5136 1.5553 1.5672 2.0267 2.0226 1.713 1.6079 1.7767
684.787 2.32 2.25 1.8138 1.7344 1.7264 1.728 2.3 3.14 2.98 2.81
704.077 2.95 3.32 3.24 2.64 2.76 3.13 3.1 3.15 3.89 4.9
723.367 4.86 4.55 4.05 3.09 2.29 1.6911 1.8727 1.6933 2.0422 2.83
742.657 2.56 2.42 2.65 2.25 2.41 2.65 2.78 3.23 3.47 3.78
761.947 3.87 3.73 3.5 3.06 3.33 3.93 4.08 4.33 4.39 4.81
781.236 5.7 7.04 8.44 9.54 11.02 12.68 14.61 16.63 18.41 20.34
800.526 22.1 23.34 24.11 24.15 24.16 23.86 22.97 21.45 19.93 19.47
819.816 18.46 14.35 11.25 10.06 8.45 7.31 6.3 5.41 4.19 3.2
839.106 2.39 2.55 2.85 2.5 2.51 2.48 2.72 2.55 1.9601 1.8945
858.395 2.29 2.44 2.0395 1.7209 2.13 2.51 1.8899 1.7579 1.9456 2.0251
877.685 2.112 1.7319 1.7285 2.0479 2.119 2.1158 2.0062 1.6235 1.6752 2.19
896.975 2.27 2.17 2.21 1.9005 1.9319 1.925 1.8042 2.3 2.37 2.19
916.265 2.37 2.62 2.34 2.0292 1.9783 2.46 2.66 2.54 2.59 2.44
935.555 2.56 3.14 3.45 3.25 3.43 3.81 3.85 4.11 4.59 4.81
954.844 5.57 6.8 7.51 8.22 9.93 11.64 12.37 12.67 12.81 12.22
974.134 10.79 9.26 8.2 7.13 5.8 5.33 6.04 7.01 8.13 9.98
993.424 13.44 19.12 26.73 36.5 46.1 52.87 56.43 55.83 50.63 41.29
1012.714 28.92 18.32 11.81 8.17 6.49 5.65 5.19 4.16 3.08 3.41
1032.003 4.1 3.57 3.14 3.4 4.01 3.59 3.37 4.38 4.63 5.27
1051.293 7.15 8.88 10.03 10.25 9.79 8.97 8.35 7.44 6.34 6.25
1070.583 6.54 6.44 7.09 8.04 9.37 13.2 17.68 24.37 32.26 39.31
1089.873 47.5 50.14 46.39 41.69 34.08 23.77 15.46 11.01 9.15 7.94
1109.163 7.39 7.14 5.77 4.37 4.02 4.36 3.08 2.66 4.26 3.93
1128.452 2.99 3.22 2.47 2.76 3.62 3.64 3.86 3.06 2.1149 1.9168
1147.742 2.98 2.99 1.3763 1.4239 2.25 2.27 1.8199 2.43 2.43 1.8175
1167.032 2.1051 1.9639 1.8298 1.13281 0.998 1.5405 2.0474 2.34 2.9 3.25
1186.322 2.92 3.09 3.66 3.12 2.2 3.06 2.77 2.39 3.7 3.61
1205.611 3.49 3.87 3.64 3.89 3.76 4.41 4.2 3.18 3.91 4.14
1224.901 3.62 3.95 4.12 3.14 1.7024 1.5036 2.44 2.88 2.29 1.7997
1244.191 2.32 2.76 2.78 2.54 2.36 2.22 1.9853 2.58 2.81 2.52
1263.481 2.45 2.0911 2.35 2.54 2.0875 1.8507 1.7733 2.15 2.54 2.16
1282.771 2.3 2.71 2.4 2.1132 2.14 2.26 2.46 2.77 3.06 3.06
1302.060 3.11 3.19 3.24 3.64 3.91 4.12 4.45 4.78 5.12 5.55
1321.350 5.78 5.77 5.55 5.14 4.77 4.25 3.51 3.17 3.21 3.19
1340.640 3.04 2.85 2.77 2.85 2.83 2.58 2.76 3.18 3.47 3.6
1359.930 3.72 4.17 4.83 5.45 5.99 6.41 6.81 7.42 8.09 8.53
1379.219 8.9 9.05 8.93 8.86 8.71 8.45 8.23 7.81 7.24 6.61
1398.509 6.33 6.27 6.15 6.04 5.79 5.7 5.97 6.11 6.09 6.44
1417.799 7.01 7.35 7.65 8.17 8.67 9.06 9.7 10.15 10.53 11.35
1437.089 12.18 12.8 13.24 13.78 14.15 14.04 13.74 13.6 13.63 13.9
1456.378 15.16 17.61 21.1 26.14 32.54 39.94 47.12 52.27 53.38 50.5
1475.668 44.88 36.81 27.44 18.82 12.59 8.88 6.82 5.28 4.5 4.25
1494.958 3.76 3.65 3.63 3.36 3.25 3.36 3.28 2.92 2.95 3.07
1514.248 3.2 3.34 3.31 3.31 3.52 3.64 3.6 3.39 3.4 3.53
1533.538 3.27 3.05 3.18 3.22 3.24 3.41 3.45 3.39 3.24 3.43
1552.827 3.58 3.4 3.41 3.47 3.33 3.18 3.14 3.16 3.17 2.85
1572.117 2.68 2.62 2.45 2.75 3 2.72 2.52 2.78 3 2.8
1591.407 2.51 2.51 2.84 2.87 2.96 3.2 3.11 2.97 2.99 3.14
1610.697 3.29 3.45 3.38 3.31 3.61 3.84 3.86 3.89 3.69 3.65
1629.986 3.7 3.39 3.1 3.11 3.07 2.73 2.61 2.58 2.47 2.33
1649.276 2.27 2.25 1.9391 1.9308 1.9618 1.8933 1.7441 1.6911 1.9143 1.907
1668.566 1.7802 1.6891 1.7221 1.6236 1.4431 1.4176 1.3894 1.4333 1.4503 1.3901
1687.856 1.4724 1.7502 1.8186 1.7096 1.6219 1.6056 1.492 1.3213 1.3092 1.3127
1707.146 1.4378 1.4327 1.2491 1.365 1.7535 1.6696 1.3421 1.2648 1.4004 1.6723
1726.435 1.5654 1.4388 1.6215 1.6281 1.5317 1.5849 1.7226 1.6803 1.7189 1.7622
1745.725 1.7268 1.7723 1.7514 1.714 1.7939 1.8709 1.9111 2.15 2.39 2.43
1765.015 2.35 2.34 2.34 2.43 2.39 2.27 2.2 1.9639 1.7539 1.5862
1784.305 1.4822 1.4735 1.586 1.4796 1.3308 1.4575 1.3821 1.3594 1.3889 1.3771
1803.594 1.4549 1.3301 1.2595 1.4425 1.6134 1.6001 1.4519 1.4461 1.4829 1.3884
1822.884 1.4066 1.4223 1.4135 1.4338 1.4912 1.3958 1.2671 1.4417 1.2878 1.2732
1842.174 1.4207 1.2649 1.3684 1.5827 1.5658 1.5598 1.6628 1.752 1.7443 1.7558
1861.464 1.9868 2.13 2.21 2.34 2.37 2.4 2.46 2.5 2.56 2.64
1880.754 2.87 3.03 3.04 3.07 2.84 2.71 2.82 2.69 2.63 2.69
1900.043 2.64 2.37 2.27 2.29 2.1165 1.9646 1.8053 1.6799 1.7239 1.644
1919.333 1.4978 1.494 1.395 1.4028 1.6399 1.6485 1.5471 1.487 1.4527 1.6309
1938.623 1.6125 1.4454 1.325 1.21899 1.20099 1.21496 1.14995 1.2319 1.4335 1.4173
1957.913 1.2355 1.1122 1.4403 1.6082 1.3527 1.3022 1.3159 1.2302 1.21047 1.0507
1977.202 0.963 1.19337 1.2935 1.3675 1.2472 1.17852 1.2681 1.3846 1.5089 1.2883
1996.492 1.14928 1.18641 1.1037 1.2125 1.368 1.2738 1.18739 1.2862 1.3917 1.254
2015.782 1.3153 1.5131 1.5085 1.539 1.5961 1.5067 1.3674 1.3537 1.2987 1.2501
2035.072 1.3426 1.5256 1.6242 1.6744 1.5563 1.4422 1.5125 1.3408 1.3713 1.4541
2054.362 1.3891 1.54 1.6258 1.4815 1.3312 1.4539 1.5837 1.3454 1.1677 1.2502
2073.651 1.3034 1.21223 1.2433 1.257 1.11998 1.008 1.21439 1.4257 1.21459 1.20532
2092.941 1.20702 1.13366 1.2727 1.2204 1.11441 1.11865 1.1137 1.17669 1.3051 1.4604
2112.231 1.4995 1.4431 1.3298 1.473 1.6695 1.5413 1.3 1.18097 1.2673 1.3953
2131.521 1.21462 1.017 1.0907 1.0522 1.1834 1.3614 1.2834 1.2614 1.32 1.4313
2150.810 1.3175 1.1011 1.11184 0.992 0.935 0.931 0.924 1.0958 1.12169 1.06
2170.100 1.16475 1.19769 1.0725 1.12855 1.3016 1.3752 1.3981 1.377 1.4794 1.3983
2189.390 1.2509 1.2359 1.19991 1.19249 1.2156 1.2589 1.0887 1.1081 1.16506 1.2594
2208.680 1.3274 1.4066 1.5122 1.3875 1.3402 1.2448 1.2857 1.3325 1.286 1.3255
2227.970 1.3434 1.5312 1.5372 1.401 1.3389 1.329 1.2884 1.1682 1.23 1.3657
2247.259 1.3842 1.3457 1.301 1.2454 1.2935 1.17262 1.1193 1.27 1.4288 1.4995
2266.549 1.3455 1.3722 1.3722 1.19934 1.2722 1.5522 1.531 1.4621 1.5949 1.563
2285.839 1.6894 1.899 1.7789 1.796 1.7107 1.447 1.8097 1.9393 1.686 1.5004
2305.129 1.5541 1.6446 1.5404 1.5337 1.3839 1.292 1.2818 1.16758 1.18485 1.1353
2324.418 1.12984 1.2679 1.0814 0.961 1.274 1.5542 1.4983 1.3756 1.3079 1.16629
2343.708 1.0215 1.2208 1.454 1.3964 1.393 1.3988 1.4017 1.3475 1.21491 1.2847
2362.998 1.3155 1.3502 1.3818 1.3215 1.5241 1.5719 1.5214 1.517 1.356 1.2617
2382.288 1.17421 1.3464 1.5923 1.634 1.752 1.8002 1.6262 1.4801 1.3658 1.3934
2401.578 1.3714 1.4548 1.6513 1.4645 1.3647 1.3147 1.3136 1.21755 1.1916 1.0578
2420.867 1.16975 1.4359 1.16938 1.004 1.18674 1.2944 1.2629 1.3467 1.2589 1.3098
2440.157 1.4546 1.3855 1.2204 1.11453 0.954 0.934 0.956 1.297 1.4473 1.2761
2459.447 1.3056 1.19238 0.954 0.919 1.17028 1.2502 1.17328 0.99 1.0516 1.171
2478.737 1.13357 1.14553 1.1624 1.2341 1.3358 1.4336 1.3504 1.2717 1.3538 1.4079
2498.026 1.3911 1.5157 1.5353 1.3206 1.13755 0.905 0.858 0.997 1.4155 1.705
2517.316 1.8908 1.8427 1.519 1.18321 1.0443 1.3321 1.492 1.5497 1.4039 1.2388
2536.606 1.4632 1.5104 1.20939 1.262 1.4114 1.2868 1.3106 1.3344 1.2543 1.4449
2555.896 1.6439 1.7549 1.7425 1.4921 1.5111 1.6699 1.6954 1.535 1.4044 1.6294
2575.186 1.7932 1.7056 1.6451 1.6477 1.3942 1.2239 1.3935 1.3031 1.3212 1.2927
2594.475 1.15156 1.2407 1.3592 1.5361 1.5809 1.2473 1.1756 1.3686 1.2785 1.2914
2613.765 1.3145 1.3313 1.2731 1.11294 1 0.987 1.0538 1.3096 1.6207 1.4084
2633.055 1.0796 1.0585 1.2369 1.2826 1.2818 1.4823 1.4803 1.4864 1.3236 0.891
2652.345 1.01 1.2212 1.258 1.4517 1.4743 1.5035 1.5708 1.3619 1.14983 1.17644
2671.634 1.13652 0.935 1.031 1.0351 1.12183 1.299 1.2923 1.2677 1.19238 1.3495
2690.924 1.4298 1.3042 1.11047 1.18453 1.3505 1.519 1.3512 1.2618 1.3058 1.0733
2710.214 1.1691 1.3229 1.6094 1.5124 1.11916 0.763 0.747 1.019 1.11656 0.965
2729.504 0.943 1.19562 1.3174 1.3417 1.2518 1.2404 1.078 1.2235 1.11542 0.918
2748.794 0.899 0.907 1.3383 1.19768 0.773 1.16202 1.4548 1.3819 1.5933 1.5676
2768.083 1.5974 1.8154 1.6186 1.7029 1.846 1.5588 1.4995 1.6206 1.7155 1.5529
2787.373 1.7617 1.5631 1.213 1.3157 1.4938 1.62 1.5419 1.4159 1.13313 1.2455
2806.663 1.3661 1.6587 1.7728 1.468 1.5959 1.887 1.8603 1.9841 2.23 2.1077
2825.953 2.4 2.69 2.5 2.27 2.35 2.66 2.52 2.51 3.02 3.39
2845.242 3.45 3.72 3.97 3.95 3.66 3.3 3.19 3.52 3.8 3.39
2864.532 3.18 3.42 3.2 2.84 2.63 2.32 2.61 2.79 2.39 2.63
2883.822 2.95 2.7 2.55 2.61 2.88 3.29 3.21 3.29 3.24 3.35
2903.112 3.77 3.88 4.4 4.9 5.17 5.51 6.04 6.78 7.46 7.94
2922.401 8.29 9.34 11.26 13.24 14.94 16.34 16.2 15.79 15.18 12.97
2941.691 10.95 9.37 8.07 6.95 6.49 6.12 5.36 5.09 5.11 4.9
2960.981 4.74 4.4 4.2 4.09 3.62 3.85 4.34 4.2 3.85 3.96
2980.271 4.38 4.95 5.16 5.31 5.84 6.06 6.61 7.25 7.25 7.5
2999.561 7.68 7.48 7.36 6.88 6.07 5.67 5.15 4.34 4.14 4.23
3018.850 3.78 3.45 3.71 3.51 3.19 3.15 2.94 2.69 2.75 2.85
3038.140 2.88 2.75 2.54 2.68 3.12 3.27 3.36 3.74 4.08 4.12
3057.430 3.94 4.28 5.05 5.46 5.59 5.9 6.16 6.4 6.58 7.01
3076.720 7.37 7.41 7.32 7.01 6.79 6.39 6.08 5.63 4.97 4.13
3096.009 3.59 3.64 3.38 2.58 1.8683 1.9901 1.8542 1.2797 1.2484 1.7124
3115.299 1.8253 1.2215 1.314 2.112 1.9558 1.9025 2.0194 1.365 1.3512 1.5662
3134.589 1.3328 1.7396 2.0484 1.8394 1.8212 1.5273 1.012 1.2422 1.8751 1.4012
3153.879 0.785 1.0247 1.4428 1.4712 1.2392 1.4041 1.7438 1.9236 1.7715 1.7042
3173.169 1.8516 1.4651 0.822 0.537 0.59 1.036 1.17875 1.2311 1.2295 0.694
3192.458 0.676 0.978 0.862 0.893 1.21025 1.2952 1.391 1.12077 1.0851 1.0684
3211.748 0.962 1.018 0.91 1.2892 1.20245 1.018 1.16115 1.0789 1.0562 1.1781
3231.038 1.001 0.723 0.977 1.2326 1.5807 1.553 1.0483 1.16307 1.2228 1
3250.328 0.916 1.2569 1.5634 1.0564 0.763 1.2629 1.2927 1.3143 1.014 0.47
3269.617 1.0718 1.4219 0.941 1.0231 1.55 1.2219 0.726 0.686 1.12646 1.16885
3288.907 0.934 0.844 0.615 0.75 1.14723 1.009 0.442 0.306 1.0865 1.3325
3308.197 0.807 0.559 0.37 0.55 0.615 0.528 1.0932 1.3111 0.879 0.755
3327.487 0.55 0.645 0.907 0.752 0.889 1.3734 1.3209 1.2462 1.028 1.1413
3346.777 1.788 1.3484 0.748 1.0967 1.0341 0.515 0.863 1.3235 0.868 0.397
3366.066 0.611 0.939 1.2795 1.3387 0.871 0.625 0.507 0.354 0.253 0.558
3385.356 0.725 1.017 1.2224 0.603 0.905 1.7065 1.426 0.937 0.741 0.87
3404.646 1.3343 1.1006 0.923 1.2284 1.3517 1.6343 1.4975 0.893 1.0572 1.0844
3423.936 0.749 1.14512 1.0656 0.585 0.332 0.35 0.741 0.884 0.431 0.586
3443.225 1.1542 0.977 1.21422 1.2445 1.002 1.0368 1.4483 1.5925 1.12031 1.14347
3462.515 1.2362 1.0279 1.085 1.2265 0.813 0.815 1.0839 0.906 1.1045 1.3043
3481.805 0.845 0.844 1.2795 1.20461 1.0948 1.0823 0.914 0.935 0.696 0.716
3501.095 1.3808 1.19512 0.703 1.0534 1.4417 1.7157 1.8144 1.5568 1.1538 0.818
3520.385 0.762 0.73 0.632 0.677 1.0402 1.3652 1.5708 1.4712 1.18074 1.005
3539.674 0.815 0.89 0.757 0.872 0.886 0.484 0.745 1.0842 1.0648 0.924
3558.964 0.883 0.625 0.823 1.4071 1.0698 0.531 0.509 0.667 0.71 0.667
3578.254 0.791 0.903 0.852 0.61 0.354 0.738 1.14543 0.773 0.312 0.514
3597.544 0.797 0.631 0.633 0.932 1.1924 0.974 0.723 1.0706 1.4305 1.4783
3616.833 1.11426 0.774 0.735 0.727 1.0678 0.926 0.567 0.437 0.77 0.923
3636.123 0.633 0.656 0.934 1.517 0.974 0.497 0.769 1.0367 1.2421 1.287
3655.413 1.4229 1.16704 1.0866 0.739 0.843 1.3864 1.44 1.13012 1.2239 1.19885
3674.703 0.952 1.20481 1.4017 1.5935 1.2461 1.18805 1.0542 0.95 0.959 0.787
3693.993 1.11054 1.3843 1.0417 0.71 1.16709 1.3951 1.19096 1.3919 1.2748 1.18689
3713.282 1.6463 1.6433 1.11152 1.16295 1.5105 1.0794 1.0842 1.16615 1.18404 1.6455
3732.572 1.2842 1.3244 1.4627 1.3914 1.4443 1.3629 1.5447 1.14364 0.765 0.814
3751.862 0.876 0.906 0.886 0.898 1.007 0.785 1.0951 1.6565 1.21365 1.018
3771.152 1.0823 1.1095 1.16099 0.914 0.787 0.728 0.645 1.0549 1.4222 1.11284
3790.441 1.16281 1.533 1.5605 1.3266 1.3497 1.5792 1.6164 1.3817 1.0585 1.0383
3809.731 1.11629 0.892 0.628 0.739 1.0355 0.735 0.624 0.974 1.0548 0.877
3829.021 0.42 0.528 1.17939 1.3774 1.8987 2.33 1.6362 1.2553 1.4104 1.17769
3848.311 0.891 0.719 0.747 0.735 0.812 0.912 0.84 0.946 0.78 0.728
3867.601 0.578 0.372 0.372 0.642 0.83 0.185 0.09 0.795 0.917 0.636
3886.890 0.757 0.891 1.0319 1.17733 0.874 0.438 0.712 1.3643 1.2693 0.893
3906.180 0.639 1.16822 1.5508 1.1832 1.4185 1.5481 1.3609 1.2705 0.879 1.11664
3925.470 1.2307 0.756 1.006 1.4155 1.249 1.4523 1.5332 0.719 0.633 0.953
3944.760 0.904 1.015 0.995 0.838 0.563 0.955 1.2076 1.1232 1.5771 1.4355
3964.049 1.0205 0.982 0.933 0.959 0.879 0.797 0.683 0.586 1.17732 1.6415
3983.339 1.6103 1.4611 1.0662 0.827 1.0327 1.014 0.97 1.0468 1.18643 1.11102
##END=
