##TITLE=Pentafluoroethane
##JCAMP-DX=4.24
##DATA TYPE=INFRARED SPECTRUM
##CLASS=IUPAC A
##ORIGIN=NIST, Analytical Chemistry Division, 301-975-3108
##OWNER=COPYRIGHT (C) 2000 by the U.S. Secretary of Commerce
##DATE=00/02/01
##$SPECTRA VERSION=1.10
##$UNCERTAINTY IN Y=2.0 % relative (B=1.0E-04,C=1.4E-09,D=3.5E-13)
##CAS NAME=Pentafluoroethane
##CAS REGISTRY NO=354-33-6
##MOLFORM=C2 H F5
##MP=-102.78 C
##BP=-48.55 C
##$NIST SOURCE=QUANT-IR
##SPECTROMETER/DATA SYSTEM=IFS66V (Bruker)
##INSTRUMENT PARAMETERS=KBr Beam Splitter; MCT Detector; Multipass cell
##STATE=gas
##SAMPLE DESCRIPTION=Pentafluoroethane Primary Gas Standard
##PRESSURE=101.3 Pa
##TEMPERATURE=23 C
##SAMPLING PROCEDURE=1 L/min Flow
##RESOLUTION=1.9290
##DATA PROCESSING=Boxcar Apodization
##XUNITS=cm-1
##YUNITS=(micromol/mol)-1m-1 (base 10)
##XFACTOR=1.0
##YFACTOR=3.6379E-12
##DELTAX=0.9645
##FIRSTX=575.652
##LASTX=3974.603
##FIRSTY=.0000824
##MAXX=3973.64
##MINX=575.65
##MAXY=.0029354
##MINY=-.0000137
##NPOINTS=3526
##XYDATA=(X++(Y..Y))
575.65 22666895 21542413 57887944 46657865 22139782 27953473
580.47 21962650 27849271 28350079 33129999 33315122 32848366
586.26 29968938 26885597 22578741 18886715 13967026 11999167
592.04 8352493 6599742 5065352 4271768 2485627 2348908
597.83 920420 1306476 594261 1849035 440003 946276
603.62 789691 908743 245217 921981 107833 602968
609.40 410571 762350 221789 313259 492215 221603
615.19 356021 585818 596732 416670 287389 460492
620.97 313134 640538 82976 477070 116633 443064
626.76 275192 840606 3238 254306 68053 701887
632.54 883422 571511 213382 134414 972581 220152
638.33 515493 403125 246863 618338 800794 897127
644.11 446309 748093 424735 611234 1197841 532551
649.90 956842 547021 608326 735957 415181 515207
655.68 773214 707987 693943 509419 868125 340260
661.47 629462 791318 868529 225848 966605-556921
667.25-1207874 705584 617093 520233 231385 503305
673.04 380455 387435 522921 458986 602557 207304
678.83 153621 550539 323330 579302 201467 10789
684.61 88658 411196 305502 11533 400460 264826
690.40 298043 329039 723933 501857 357898 820572
696.18 1069268 1211049 1365775 1794243 2442130 3141738
701.97 4580016 5179623 7307778 9350113 12156556 14889285
707.75 18524044 22321221 26351707 29945447 33766982 36511280
713.54 39939506 41264572 44123045 48264180 56932172 54934134
719.32 84113423 87120277 64755743 60355264 44884207 48125894
725.11 67446840 115026198 79021250 68271370 58455096 50872203
730.89 48392416 46890325 45893792 43709229 41148450 38126674
736.68 33407930 28955794 23966015 19603126 15635088 12297858
742.47 8991585 6994984 5337906 4201146 2901274 2252355
748.25 1751597 1634680 1179064 1025848 717924 914892
754.04 370997 884816 615020 693479 404070 786342
759.82 453576 599778 723862 587652 366197 785119
765.61 624998 791013 785291 888411 668943 959456
771.39 701842 797146 832220 1025166 953396 1018717
777.18 990528 1197994 959911 1142799 1335758 1338184
782.96 1327412 1346220 1202723 1559359 1044715 1265425
788.75 890807 1363405 1153752 1341583 1170810 1634184
794.53 1106230 1436102 1131442 1449713 949409 961579
800.32 709056 1382367 970215 1037380 871888 1122284
806.11 669063 1069844 779517 896190 750318 976840
811.89 579366 955636 694353 1114012 512736 1023163
817.68 553302 835999 427361 822108 700109 981179
823.46 593278 1202287 800900 1179367 1246761 1399352
829.25 1501547 1441496 752201 1429898 1333695 1662359
835.03 1553768 2101287 2136419 2661963 2975177 3868197
840.82 4156168 5242762 6229139 7953948 9547233 11847095
846.60 13729954 17136465 20220679 24092827 27986918 32856781
852.39 37205466 42704806 46841246 50975416 52890727 56684813
858.17 59175807 62116208 64300681 70009950 72972578 81793541
863.96 90124469 97637080 113286099 127383358 97893139 53353794
869.75 60086932 60342240 65036596 64670367 65970152 62557759
875.53 59571643 53019903 47118842 39339308 33188639 26378955
881.32 21638575 16861705 13744982 10807490 9214069 7707299
887.10 7146888 6220208 5975677 5322963 5281626 5028247
892.89 4918219 4324517 4399703 3922870 4097222 3278703
898.67 3727349 3773968 3775335 3611214 3574300 3297940
904.46 3111425 2762297 2504686 2272172 1976470 1576421
910.24 1579150 1472845 1205160 1150135 1373904 1338278
916.03 1224603 1204776 1463414 1373208 1559380 1660235
921.81 1575732 1615537 1834835 1888893 1913885 1884691
927.60 1988289 1950249 1998189 2050470 2222158 2198364
933.39 2407664 2429512 2473851 2407266 2331877 2399464
939.17 2252586 2053423 1931889 2104825 1860822 1818119
944.96 1604020 1521166 1368079 1200966 983503 1119503
950.74 955325 1008114 903601 834145 809699 427829
956.53 486406 448506 691510 308699 300429 407269
962.31 376624 350633 465404 378520 362803 374321
968.10 287877 511319 443598 632592 473298 621850
973.88 480596 615158 360055 607463 641402 579149
979.67 814986 723962 705005 650824 549021 601501
985.45 652443 738726 717654 620771 497717 668454
991.24 436472 435283 474722 476581 504297 524898
997.03 277090 292314 574666 479076 496931 500117
1002.81 330228 500616 355251 543128 403222 608008
1008.60 307679 531193 272509 458381 292354 394719
1014.38 344421 491183 312471 295951 426185 399469
1020.17 156631 333887 135758 364669 220777 274812
1025.95 193982 374057 151717 450466 46377 326031
1031.74 92993 328346 116112 402156-27986 243256
1037.52 106013 387649 245298 399120 285355 467108
1043.31 400543 487786 411808 618322 277409 546073
1049.09 500482 742119 681836 748342 909527 1187232
1054.88 1152259 1462540 1323976 1788542 1873133 2063659
1060.67 2288164 2882170 2800089 3454043 3483565 3973041
1066.45 4156328 4525508 4688579 5068148 5306085 5818334
1072.24 5850500 6479952 6404164 7151658 6791260 7146525
1078.02 6548094 7349962 7427878 7780841 7406914 7598063
1083.81 7398103 7852122 7768607 8506676 8378408 9239292
1089.59 9312097 10449458 10969101 12331028 13067426 14650953
1095.38 15736690 17563502 19002589 21890909 25023851 26485154
1101.16 27253524 29100661 29629873 33093346 33571053 35803420
1106.95 39386538 41762054 48650263 48174874 43858335 44613906
1112.73 44295625 45440521 46470704 47470983 46441033 48455349
1118.52 48949611 53020419 51430053 51068293 51425909 55998421
1124.31 60600971 68824174 76815086 90036079 104041902 124700023
1130.09 146940395 176113719 205683433 241845561 275707873 319975838
1135.88 363175942 407295583 442289351 482089977 500051370 545509227
1141.66 553864828 436935229 430254385 578527547 612346541 516998034
1147.45 544771714 531391469 459320220 366242261 296794182 234684471
1153.23 193111522 159433644 144052919 111162270 88031157 71346607
1159.02 59131769 46865168 40193755 34285096 30185856 25571575
1164.80 24035839 20878255 19924021 18510268 18987457 18816593
1170.59 19679313 18910093 19132971 20436305 22201709 24559673
1176.37 27629625 31179599 35176814 40260988 45636677 54265616
1182.16 60667450 70892356 80813953 93671822 106775082 121654125
1187.95 135861719 152747431 167014757 179848874 193894251 213821440
1193.73 238099962 284547513 355673230 444585251 547091010 610672899
1199.52 434733243 386734110 457175442 471583783 544731689 636373292
1205.30 722201262 775913898 806876566 800338312 786810147 758122923
1211.09 736252042 711885597 699127647 687675233 687507539 686148295
1216.87 700459314 714842857 733164265 718175803 656435554 606984165
1222.66 608480376 633297142 553659889 473301888 427853782 403746397
1228.44 386102844 363106776 336378958 301801169 265012251 226887230
1234.23 191881875 158058997 129708707 104222125 84929620 67765862
1240.01 55744790 44955630 39092294 32000671 27599974 24260964
1245.80 21613567 19364497 18392407 18717360 17567876 15791612
1251.59 16443054 14539846 15854837 14442879 15730417 14776058
1257.37 16146277 15387828 16739676 16177832 17326689 16867621
1263.16 18364967 17660870 18733033 18249275 19083673 18542672
1268.94 19585772 18673324 20040603 19369704 20415083 19822029
1274.73 20884165 21090932 23184015 23830155 26393950 23079952
1280.51 25969175 27359021 31798999 35021117 41087335 45931076
1286.30 54689029 62330992 75538947 88036410 104967864 121001303
1292.08 141280021 158684947 179161286 193644614 210161942 219216357
1297.87 226550697 225299981 223331207 222215592 221711917 221373578
1303.65 240798653 263567248 323959720 404901822 497453353 570480165
1309.44 178425403 149768690 149869974 147182672 147238856 150138203
1315.23 149566861 147179342 139955542 130841060 118160441 104931312
1321.01 90103130 76492408 62625296 50845722 39958943 31209442
1326.80 23702718 17963502 13266047 10020399 7472298 6024468
1332.58 4636875 4042490 3576824 3437923 3501546 3736388
1338.37 4119343 4617054 5337263 6132581 6743639 7507693
1344.15 8104915 8463517 8638291 8629974 8401956 8650331
1349.94 8992845 9732868 10142000 10664653 9882411 11427639
1355.72 15268619 14819815 12666313 10939560 9712616 9205099
1361.51 9114692 8564998 8799055 8142848 7938312 7267126
1367.29 6832410 6107491 5849261 5509911 5594244 4802098
1373.08 4748141 4304813 4500087 4306625 4584899 4502273
1378.87 4689714 4506472 4817981 4757662 5117740 5008561
1384.65 5409569 5310165 5558232 6509586 6359292 6432494
1390.44 7735427 7668761 6640892 5669767 5140264 4901524
1396.22 4549906 4220390 3885254 3972341 4041635 3827406
1402.01 3599906 3277205 3105439 2880354 2795884 2378455
1407.79 2239141 2018288 1876106 1747132 1851668 1709830
1413.58 1927459 1727787 1859102 1720077 1964014 738469
1419.36 2418573 2484927 2890231 2672719 2906120 3200633
1425.15 3493296 3542492 3877561 3942170 3899004 4191149
1430.93 4497014 4353611 4681125 5019098 5793021 4050012
1436.72 5462133 5716262 6166213 6497610 6849759 7035266
1442.51 7445152 7472858 7258739 6772904 6432149 6141567
1448.29 6157144 6289595 6081387 6219922 5397870 4314785
1454.08 4791135 3799908 2583660 3847099 3445947 3408999
1459.86 3012254 2484526 2127509 1769172 920494 1054876
1465.65 1341224 925228 1214871 565672 1073272 43075
1471.43-33-381641 262178 431669-91075 460283
1477.22 461957 426310 401112 170113 407972 280763
1483.00 341621 349916 354031-116972 58401 234754
1488.79-263644-168763 106217 402571 195224 472276
1494.57-220443-962496 742021-348614 203476 501198
1500.36 395081 557974 490006 617303-608815-1008826
1506.14-1068556 115914 463540 195502 784655 138061
1511.93 342937 678243 380277 532672-41726-42868
1517.72 563195 353277-597000-963689 165795 145679
1523.50 637379-574784 520956 52303 551492 193530
1529.29 744936 148598 477966-319688-201439 470897
1535.07 371746 477107 284037-1680374-1184325-256163
1540.86-547865-400072 1033519-41778 330959 706202
1546.64 820622 731813 692590 467624 1067669 837884
1552.43 1362249-133386 1295451 947720 638330-1453552
1558.21-141319-1351056 793565 925931 1231378 985594
1564.00 820783 1009469 1187517 902834 978164-28314
1569.78 1221917 890737 1231409 782221 1500654-327764
1575.57-771367 1309695 848708 1146402 1124375 1148524
1581.36 1001488 1024118 937877 912176 1171131 846048
1587.14 892098 652518 734280 598376 683290 611295
1592.93 658816 451601 564766 327528 495422 309338
1598.71 501781 232823 456068 258513 421905 112511
1604.50 387337 88581 296528 194013 296552 111386
1610.28 502116 150331 424657-24993 658789-887660
1616.07-1543027 564691 77630 393696 192655 392013
1621.85 28946-344469 433144 338744 482429 35758
1627.64 425058 569961 631318 512888 720233 517625
1633.42 593770-1285326 238570 529154 429327 640284
1639.21 591138 570586 628282 690517 708146 537064
1645.00-941047 215054 80876 437100 612699 538405
1650.78-192246-3042391-1416463-161395 366531 440346
1656.57 420833 442237 450652 435057 461259-43963
1662.35-103223 612003 281535 645391 292007 547760
1668.14-705437 259390 238650 293520 445486 659269
1673.92-513573-318183 725453 337758 561988 393392
1679.71 257538 634849 7896-204720-2088475-1035415
1685.49 867779 40871 557992 26115 385841 164260
1691.28 680203 11430 712804-896315-2205939 588878
1697.06 152969 346861-2013561-913600 478074 648493
1702.85 471471 215063 673440 350482 1132778 988073
1708.64 1263428 969929 1501723 1329931 1523766 1102671
1714.42 1144491 1600430-88304 1084167 1754831 1956745
1720.21 1990133 1752499 1874515 1885409 1995230 1699900
1725.99 1712216 1535595 1482651 1042712 1270956 1370745
1731.78 652241-500378-442448 621269 945389 414153
1737.56 869656-265007 101437 546977 395575 188814
1743.35 428033 282556 305353 85112 181564-264126
1749.13 349987-897441-22734 245803 235796 287400
1754.92 156490-335388 288387 134808 313170 271532
1760.70-336997-7421 464410 280648 379547 384540
1766.49 309388-286719 779350 199032 342401-607753
1772.28-227359 756379 341268 563084 670178 665751
1778.06 683900 533876 457357 654916 659710 705591
1783.85 359954 601407 653451 714033 687142 709008
1789.63 621502 706409-25430 519596 1059676 677587
1795.42 851603 661196 917083 545162 806344 707571
1801.20 652531 743548 862671 590243 857533 622342
1806.99 615185 625937 610781 315764 593245 360042
1812.77 481647 309872 443738 293468 290024 290959
1818.56 436493 143323 376422 105161 334088 12940
1824.34-158164 161289 350182 130173 89878-354241
1830.13 271913 110964 330866 129316 236345 138708
1835.92 284393 20248 174677 30024 274987-8032
1841.70 352144-424279-599088 204517 129237 75024
1847.49 192190 131161 162265 115323 210912 245929
1853.27 277290 188702 411486 236452 321256 340904
1859.06 376024 291442 442154 416485 486497 428806
1864.84 546567 333022 438061 143150 30679 358587
1870.63 330026 408891 487213 351783 413470 259113
1876.41 335351 138183 217826 96052 181810 51266
1882.20 138431 5414 169481 33532 80256 72455
1887.98-5452-122883 120334-27713 133180 17900
1893.77 45074-86733 80580-4791 139337 86827
1899.56 155504-94705 142756 22399 158007-7388
1905.34 205504 122945 221296 172099 149740 215814
1911.13 375289 326566 430511 419382 581087 547500
1916.91 401635 660571 709119 765031 1038603 959841
1922.70 1210090 1342348 1390770 1319745 1531302 1464697
1928.48 1626149 1603395 1806248 1772035 1912606 1711904
1934.27 1818469 1620524 1831996 1574118 1683239 1443278
1940.05 1550899 1436437 1389802 1180599 1209722 1078395
1945.84 1088529 934840 1075043 813334 798621 676153
1951.62 566469 470815 588482 379171 454985 265277
1957.41 335644 201011 192890 100692 244209 12696
1963.20 167758 49352 52917-139080 42599 63260
1968.98 139699-7158 132468-5719 61607-33917
1974.77 8989 20030 38600-1273 71916-36210
1980.55 143220-43332-17804 16145 41557-80459
1986.34 37021-22901 86918-49770 141739-147972
1992.12 84619 21321 88717 33204 177553 71918
1997.91 98319-34373 175231 53272 198071 21931
2003.69 152173 169291 211771 57870 126157 88978
2009.48 223799 86628 152841 48544 131283 30929
2015.26 168477 12873 194807 64952 193745 10084
2021.05 186658 109187 93922 79435 178687 71975
2026.84 179185-1838 218618 21748 180142 147049
2032.62 143137 81121 183723 83762 174378 163713
2038.41 242113 138466 273134 206533 318188 252951
2044.19 369514 309767 434465 339670 538676 455609
2049.98 577939 549832 753799 638993 797360 682645
2055.76 933281 942909 1000694 1024013 1205438 1247179
2061.55 1339227 1372143 1330926 1080115 1130523 788036
2067.33 979420 875357 1009057 945570 1056979 941964
2073.12 967886 828783 866296 607471 789688 549193
2078.90 609969 397170 499375 328569 561212 367514
2084.69 423391 352636 421795 256687 338640 262947
2090.48 295800 164717 240487 148901 290737 108543
2096.26 268079 15906 316952 106706 139174-27212
2102.05 273992 32389 68936-82486 171035 50632
2107.83 92643-42513 99591 203302 27622-11425
2113.62-64451 201962 118391 15804 47253 174542
2119.40 113129-60086 56296 122858 107439-17930
2125.19 89585 31444 240405-77082 112635 44154
2130.97 214749-41413 90469 103435 193291 30635
2136.76 164506 156866 281565 148019 220382 126058
2142.54 235619 233631 328561 355895 511869 402068
2148.33 614641 547449 683297 687579 759416 726008
2154.12 1029875 894912 922689 978620 1212250 1038087
2159.90 1214980 1143075 1260707 1068400 1303797 1386692
2165.69 1533687 1295614 1597714 1593592 1420628 1166383
2171.47 838721 774615 687815 572170 850982 611978
2177.26 631754 701151 784851 350864 387945 391176
2183.04 336502 141059 294243 295940 166721 16786
2188.83 218325 35716 67931 51023 164805-105974
2194.61 33529 6863 68466-86344 98691 66584
2200.40 37350 132172 161087-73812-263-25813
2206.18 97792-23294 204190-86152 127294-23257
2211.97 138073-64636 202583 19245 167143 24987
2217.76 108203-11773 210782 54084 210208 99056
2223.54 102515 118495 171455 103142 297172 118395
2229.33 223140 161636 234218 192372 255267 237109
2235.11 357506 292248 480943 388250 482697 452156
2240.90 604821 514208 788784 741484 891540 790855
2246.68 1074956 915027 1108011 1124299 1266373 1247399
2252.47 1421449 1312264 1469915 1462164 1578671 1510265
2258.25 1736334 1563626 1659336 1715389 1769113 1712971
2264.04 1906493 1814944 1918425 2014917 2228232 2161941
2269.82 2339002 2446366 2714608 2965944 3408742 3422010
2275.61 3625685 3415528 3569546 3679713 3889728 3549001
2281.40 3791638 3776978 3642180 3053193 2886303 2443528
2287.18 2093689 1850723 1738185 1263589 1303058 1018826
2292.97 1076010 818494 968066 744866 716424 518397
2298.75 581489 378168 760181 403479 607226 237166
2304.54 548745 287380 477338 315359 306715 206474
2310.32 171994 317530-4644 333703-120590 240160
2316.11-216419 231760-191371 170092-397215 30164
2321.89-391905-133867-444319-155120-461299-342260
2327.68-617197-401063-586775-516307-728845-477725
2333.46-659475-559464-564166-573421-560734-617576
2339.25-583676-588172-590132-415236-403777-409884
2345.04-130414-90635 55784 105179 85283-160614
2350.82-171450-368399-452819-527677-579969-709021
2356.61-683588-872796-858732-983495-848005-934980
2362.39-900091-926293-698995-783202-737005-640746
2368.18-597832-550130-394719-417577-148436-299921
2373.96-6135-108848 49549 44692 51143 29708
2379.75 66721 134487 171063 246622 451989 294990
2385.53 480086 370094 579078 581992 594243 657391
2391.32 942679 786794 991598 833982 1097783 1123349
2397.10 1466239 1674647 1816049 1931426 2074337 1900706
2402.89 1916311 1786299 1845760 1749186 2024514 1905079
2408.67 1983701 1891027 1957269 1830301 1935356 1740370
2414.46 1687655 1608123 1620789 1094217 972370 844522
2420.25 934785 696103 844858 518520 473026 306857
2426.03 313817 136087 307957 184695 364787 203464
2431.82 399855 309316 355792 307665 499201 335613
2437.60 464319 324334 347032 337678 402276 330250
2443.39 475625 373463 434560 241583 338419 241593
2449.17 267052 204121 160554 186320 255469 44732
2454.96 183715 3521 12872-124943-23983-215342
2460.74-175748-169213-162152-233786-156442-279753
2466.53-138997-199269-138902-268598-189959-237612
2472.31-109952-162906-91698-204126-7091-109518
2478.10-42954-32722 82251 66765 242790 162417
2483.89 377504 315546 374467 352171 550100 464038
2489.67 668186 643098 1012952 925149 1173722 1113422
2495.46 1253424 1171302 1313831 1236778 1523791 1501575
2501.24 1705363 1544004 1747766 1511792 1221837 1086289
2507.03 1163491 964664 1221267 1068529 1116397 1042958
2512.81 947812 730058 690674 543779 606245 330367
2518.60 367460 173958 380566-87327 230278 28073
2524.38 204871-41010 71813 10907 77569 13156
2530.17 198196-51799 165257 49790 23715-51732
2535.95 29679-71609 121629-13867 69162-112344
2541.74 30617-140706 7722-4131 77144-52661
2547.53 49889-60044 122289-117369 105223-49036
2553.31 128756 106561 186647 105022 296998 238284
2559.10 366731 233395 346218 292652 428211 365054
2564.88 496063 389797 441931 423781 377694 325991
2570.67 336968 327183 408097 247316 467124 340958
2576.45 432264 161796 225531 183727 330452 103618
2582.24 223105 154943 123030 177351 234796 92158
2588.02 229570 105502 307376 185394 384251 298727
2593.81 373312 405889 601105 501311 521783 479488
2599.59 516992 366745 487283 607733 436206 624459
2605.38 580546 608511 807031 205288 458151 272079
2611.17 515502 246979 26711-328860-203380-296326
2616.95-252308-274950 98225 48405 41510-153613
2622.74-114737-189700-95367-362097-295742-201316
2628.52-248917-256948-174128-192444-177631-269433
2634.31-28074-159207-78941-126721 36100-59172
2640.09 80507 26455 107376-16930 267085 167048
2645.88 206953 313861 297429 109113 274942 285769
2651.66 391138 341343 350913 332239 471134 291971
2657.45 379783 334431 429408 214497 360158 186616
2663.23 445479 266396 456741 220442 415893 290665
2669.02 220298 262928 360074 175071 233275 280436
2674.81 334691 75530 271788 170706 281636 218116
2680.59 166984 25984 309218 61524 189428 91207
2686.38 235407 236498 390098 122781 161818 52026
2692.16 96621-22476 6117-97717-4226-38665
2697.95 100497-194530 27583-135047 112666-137621
2703.73-105805-63735 86799-43815-235-137098
2709.52-37213-135465-68310-90379-109488-125621
2715.30-128531-189722-38844-171567-32200-107785
2721.09-172126-15652 75630-221704-19796-121690
2726.87-23250-126774 70667-111050-20775-99166
2732.66 22512 2314 125893 10785-41839 54944
2738.45 28030 23482 99365-117485 69728 25003
2744.23 79143-82466 146636-94154 101646-81969
2750.02 31395-100842-100196-177975 143269-101435
2755.80-44880-217213-54827-128426 81946-163029
2761.59-67979-212636 37815-5171 8949-126895
2767.37 58872-38356 117245 25143 195118 64433
2773.16 9938-35218 172600 66999 184521-36289
2778.94 228515 15241 235052-4161 232786 135165
2784.73 207075-54344 293141 87653 157836 143803
2790.51 183827 42425 37095 138707 150829 201219
2796.30 181304-45484-61102-36837 30591-98757
2802.09 15284-54769-10702-28746 32451 22233
2807.87 176609-83649 74193-98853-138606 58802
2813.66 151795-228799 121489-131018 128770-48582
2819.44 206580 31776 131304-32113 86228 11559
2825.23 178594 67616 261269 145323 400445 187561
2831.01 451186 455736 562424 369684 548310 476052
2836.80 688155 735407 671645 619930 853620 789141
2842.58 813643 658538 901204 834038 1009504 954550
2848.37 581092 746942 700783 513072 593973 442988
2854.15 552401 493766 507607 291024 492105 384580
2859.94 413124 275590 362925 265053 389381 246329
2865.73 228466 183366 338468 177534 194094 200896
2871.51 255766 224079 245847 38045 226705 90248
2877.30 90373 20020 96345-62346 122561-45237
2883.08 115376-267966-55680-182196-2641-93054
2888.87 29416-142880 9063-196603 6938-124471
2894.65-129480-117963 43422-136238 81691-137020
2900.44-160190-124072-74696-300910-194287-313069
2906.22 18847-298392-99578-123578-89117-233014
2912.01 38135-238675-203393-179715-37313-142865
2917.79-124393-173520 32870-365454 70105-94246
2923.58-73186-120263-37310-317208-8514 20961
2929.37 19621-172390 3711-93208 14075-179884
2935.15 64946 38710 22784-26991 2217-91036
2940.94-194971-165303 17545-53385-76332-74287
2946.72-69144-188324-98107-166486-10836-9618
2952.51 50026-72410-57201-97427-55040-154147
2958.29 54366-185412-121490-116174 127006 38754
2964.08 275606 136707 144541 64066 367832 338483
2969.86 611013 455959 838600 907455 993774 1308829
2975.65 1704564 2016635 2504964 3036026 3659996 4265744
2981.43 5171530 6144042 7378328 8547054 9942624 11190941
2987.22 13013325 14281826 15213655 16026709 16741817 17070324
2993.01 17631960 17624585 18646518 19227296 21368193 24634036
2998.79 27914905 35758466 44174712 32984195 21520858 18288580
3004.58 16990199 16593748 16175601 16151264 16028921 15754129
3010.36 15002825 13936352 12819717 11432496 9965731 8423962
3016.15 7098287 5849231 4680164 3698613 3051829 2232592
3021.93 1607704 1207340 1021998 708423 555772 367638
3027.72 337504 182728 85973 24561 43642-162909
3033.50-21168-73037 56683-243194 37928-47487
3039.29 6346-207177-74980-303146-23641-252765
3045.07-19745-368212-134647-97414 55696-248871
3050.86-884-222998-82673-152081-229444-135298
3056.65 63095 75836-44071-142107 49367-101740
3062.43 49587-175551 34731 109911 64451-24937
3068.22 49579-49909 46986-43570 99552-34501
3074.00 207264-23195 15141-15382-21574-89348
3079.79 54336-155565-11394-117831-29482-109210
3085.57-14601-183851 109572-234123 7860-237948
3091.36-16879-123850 90672-228020-127658-277287
3097.14-233515-250598-182688-46095-141263-147876
3102.93 79074-214272-6957-212496-230194-209768
3108.71-133311-108278-187780-228852-21730-68817
3114.50-241253-124163-110701-139136 59576-138244
3120.29 48314-156844-4509-183484 22164-198060
3126.07-94512-148018-68722-114332-63408-136864
3131.86-2301-227560 205260-137049 161027-127296
3137.64-46225-128402-116822-165601-59563-185049
3143.43 23977 21394 51010 32728-102863-219070
3149.21 25981-130644 27675-218860 13154-155197
3155.00-63620-89673-114150-65732-59981-342015
3160.78-22806-278389-48971-78651-99478-7919
3166.57 11786-238446-110962-105762-118922-40467
3172.35-33543-236541 66343-119009 147044-283634
3178.14-50735-186340 73098-155593-41698-110920
3183.93-38325-282367 41257-126027 31938-137917
3189.71 22820-7554-7668-102431-57968-49826
3195.50-77077-97871-48478-46598-3947-219480
3201.28-43835-204376 114988-142105 117615-111169
3207.07-110480-186537-141495-131781 67306 83395
3212.85-151119-121368 15391-243190 69986-60600
3218.64-86995-168185 124188-226643 59760-161430
3224.42-42164-19696-193342-148657-51245 47684
3230.21-58536-50394 40045 36228-138119-45238
3235.99-14802 28204 95305 9758 9639 13878
3241.78-29487-55273 16231-147020 113042 27192
3247.56 86697-156582 91570-86555 10630 108467
3253.35 34164-30975-87770-151567-351190-87074
3259.14 115270-49841-162099-268434-12168-92607
3264.92 106879-219002-215150-23613 87689-63816
3270.71-188193-290331-40068 113662 78910-136511
3276.49 233777-205237-108116-155899 2993-414901
3282.28-86131-409612-23427-101556 48931-222941
3288.06-25965-81593-218847-85381-197622-376902
3293.85 57347-23559 36823-72245-158905-423747
3299.63-159219-217853-26916-93269-182219-233664
3305.42 113253-87976-179208-232064-102410-55453
3311.20-40533-290258-136552-294774-149710-132619
3316.99-61519-326428-112264-233938-23277-148991
3322.78-107609-165571-158448-331577-79971-105948
3328.56-193464-102651-120146-189150-270189-256592
3334.35 13773-197775-227976-144220-109791-171822
3340.13-40734-9694-192547-313725-130554-390066
3345.92-132084-189790 25034-292419-112062-226697
3351.70-206183-301550-2036-352783-23439-342409
3357.49-4239-218207-258445-254204 11207-160539
3363.27-119198-284992-212217-242918-186637 17705
3369.06-80928-251990-229837-71242-255010-299570
3374.84-110607-245520-6736-228937-103271-234438
3380.63-95073-320330-110091-357467-152560-363045
3386.42-39367-137777-147249-191639-99846-211534
3392.20-128254-323675-419543-233286-124504-352778
3397.99-101080-219865-16252-331029-108408-275527
3403.77-140406-65385-164280-324486-246097-190850
3409.56-279417-284599-200434-354159-200046-181232
3415.34-260300-268253-247884-300806-226829-324471
3421.13-328006-141651-233255-351353-307507-364618
3426.91-255331-351117-86616-465790-238507-482988
3432.70-194952-405118-349114-343815-359616-287681
3438.48-240587-421301-283840-334668-327796-260053
3444.27-373739-384879-412003-177681-168452-133776
3450.06-504323-291028-229187-494173-204744-101576
3455.84-327666-340730-128137-270185-303877-393135
3461.63-183857-498353-87824-476286-344314-445465
3467.41-303847-356050-408534-342690-389265-226086
3473.20-309023-435188-350165-467801-286372-260047
3478.98-328390-328343-296814-521300-268482-519420
3484.77-245608-376417-372520-274837-220871-578819
3490.55-278309-201338-114909-512248-355502-443666
3496.34-409405-424828-158313-461966-281348-197767
3502.12-316259-529602-390771-416826-333011-416221
3507.91-74633-519141-324704-421348-300865-447224
3513.70-301360-195882-251677-492815-329540-547071
3519.48-177306-308044-369827-192926-283493-579728
3525.27-237858-456836-271143-487370-302517-366363
3531.05-216362-541679-290582-433452-305421-368724
3536.84-301901-344367-162811-281745-336346-459578
3542.62-281937-442457-429397-529834-465843-287102
3548.41-213887-417867-350192-557382-241819-546105
3554.19-187305-382370-316597-453752-284287-492973
3559.98-196649-394358-293333-465151-217849-574701
3565.76-446366-758500-646890-214617-301538-239619
3571.55-318320-282094-239317-415085-273497-365913
3577.34-271461-267762-503362-313695-240664-429786
3583.12-316350-284862-552391-795328-527098-1061132
3588.91-99087-457474-180078-587037-154112-406220
3594.69-561881-337380-337906-653577-395560-477126
3600.48-340283-523181-424000-385919-286352-590129
3606.26-673078-505714-1094332-558729-328341-883092
3612.05-624083-486029-657416-366446-521634-720334
3617.83-575119-1251975-268404-731793-446616-516965
3623.62-321616-686553-416564-767969-1356280-1776669
3629.40-675631-526750-273712-665167-518134-424266
3635.19-255734-390701-490542-697382-220639-506822
3640.98-542825-539825-190352-631799-233359-1121520
3646.76-718006-1303956-1551538-881278-1071793-291916
3652.55-622475-235197-846858-1381642-525442-497605
3658.33-476076-490668-530898-510857-401254-501629
3664.12-360074-621780-344065-736015-1037914-774723
3669.90-2123371-341796-505527-502456-1228015-1975640
3675.69-1180873-203504-689921-647313-653737-332501
3681.47-643529-382975-634458-304980-606220-309174
3687.26-2328481-990431-360418-1227330-611961-424457
3693.04-449446-602094-515835-451990-437710-600948
3698.83-547009-562362-919066-526478-361126-524951
3704.62-403736-495797-408432-634734-1019505-467531
3710.40-923221-1699536-265880-663761-497556-396637
3716.19-306147-478936-509086-486148-309624-778241
3721.97-593026-551733-622764-605060-845351-517742
3727.76-416722-555535-371804-1177092-1475499-107526
3733.54-1388013-736948-1538437-727860-599512-582153
3739.33-687812-842756-714346-245990-2973483-2600305
3745.11-6899-1108733-101438-2240980-2033456-166785
3750.90-2536516-1527712-366904-747464-517292-984036
3756.68-304766-657226-785024-766310-409688-451325
3762.47-516316-535373-665706-736880-428326-474876
3768.26-703878-1186851-334496-628772-357848-666763
3774.04-452938-657874-518408-354616-429885-1096309
3779.83-258173-469014-422663-640383-572816-711581
3785.61-383600-604215-436391-563533-279427-515001
3791.40-456937-593289-332041-635149-686081-913709
3797.18-260511-711067-92302-2270823-1558142-488450
3802.97-623811-555424-423599-1645008-979586-371042
3808.75-558246-364515-841368-148965-920350-99608
3814.54-1656150-2099554-257847-619939-334246-1055889
3820.32-1249520-1129370-278133-721188-228089-721954
3826.11-582423-535188-517003-543908-790408-1006418
3831.90-351751-710117-916601-862556-150449-2693819
3837.68-968968-557817-767625-715310-443662-930129
3843.47-669196-523534-352134-522115-278230-507376
3849.25-338146-521304-2405220-526345-3775513-1115473
3855.04-157695-696323-254099-443728-367171-468939
3860.82-689713-535237-151603-984664-715281 61844
3866.61-402879-387484-1339349-1358270-276556-617361
3872.39-558477-1012270-434361-552983-376357-507678
3878.18-415464-1188888-816522-512181-584047-330963
3883.96-910030-1726229-366572-590924-540150-590331
3889.75-807610-1098554-258433-568407-288025-630008
3895.54-462821-802296-389132-1521104-330254-1107448
3901.32-995191-578879-1404428-725071-711629-575823
3907.11-566251-588703-468337-618291-744178-671232
3912.89-640159-602663-581877-810921-745987-555790
3918.68-759150-615929-487375-609905-657204-763056
3924.46-561798-588148-602463-803710-513323-603531
3930.25-533458-691045-718778-665108-399542-679701
3936.03-642498-732663-529598-585573-606700-636861
3941.82-539927-654204-485073-569898-481314-745910
3947.60-437907-888753-637395-412671-552212-557347
3953.39-438887-687843-563931-658245-470250-644217
3959.18-499342-666773-629398-517796-632175-616129
3964.96-426255-576611-378347-544440-256945-573333
3970.75-450587-625793-405669-441726
##END=
