##TITLE=Chlorodifluoroacetamide
##JCAMP-DX=4.24
##DATA TYPE=INFRARED SPECTRUM
##ORIGIN=EPA-IR VAPOR PHASE LIBRARY
##OWNER=SRD/NIST
Collection (C) 2018 copyright by the U.S. Secretary of Commerce
on behalf of the United States of America. All rights reserved.
##CAS REGISTRY NO=354-28-9
##MOLFORM=C 2 H 2 Cl F 2 N O
##$NIST SOURCE=MSDC-IR
##STATE=gas
##XUNITS=1/CM
##YUNITS=ABSORBANCE
##XFACTOR=1.
##YFACTOR=0.001
##DELTAX=1.929
##FIRSTX=549.8
##LASTX=4000.8
##FIRSTY=4.312
##MAXX=4000.75
##MINX=549.766
##MAXY=0.103862
##MINY=0
##NPOINTS=1790
##XYDATA=(X++(Y..Y))
549.766 4.312 4.082 4.072 4.282 4.422 4.162 3.372 3.332 3.492 3.522
569.056 3.652 3.612 3.732 3.932 3.992 4.232 4.452 4.612 4.942 5.652
588.346 6.702 7.582 8.132 8.762 9.242 9.432 9.922 11.202 12.702 12.352
607.636 10.862 10.542 10.852 11.022 10.782 9.922 8.962 8.252 7.662 7.032
626.926 6.312 5.992 5.942 5.942 6.152 6.472 6.692 7.052 7.692 8.422
646.216 9.372 10.502 11.582 12.422 13.172 14.312 16.052 17.742 18.292 17.942
665.506 17.872 18.222 18.082 17.572 16.692 15.402 14.242 13.112 11.972 10.892
684.796 10.002 9.292 8.542 7.872 7.352 6.912 6.562 6.332 6.112 5.932
704.086 5.982 5.902 5.702 5.692 5.712 5.782 5.912 5.852 5.752 5.832
723.376 6.072 6.352 6.572 6.812 7.082 7.392 7.622 7.782 8.022 8.322
742.666 8.612 8.712 8.772 8.952 9.132 9.212 9.422 9.512 9.352 9.212
761.956 8.922 8.662 8.362 8.072 7.912 7.762 7.582 7.382 7.252 7.032
781.246 6.912 6.852 6.892 6.982 6.912 6.752 6.732 6.772 6.812 6.892
800.536 6.912 6.882 6.932 6.992 7.182 7.512 7.232 6.892 7.262 7.702
819.826 7.942 8.002 8.132 8.342 8.502 8.652 8.722 8.812 8.842 8.922
839.116 9.032 9.032 8.992 9.052 9.002 8.892 8.772 8.622 8.672 8.632
858.406 8.452 8.422 8.402 8.302 8.202 8.102 8.092 8.132 8.132 8.102
877.696 8.042 7.982 8.052 8.112 8.232 8.272 8.262 8.432 8.622 8.902
896.986 9.062 9.062 9.302 9.472 9.482 9.722 10.002 10.322 10.672 11.052
916.276 11.592 12.322 13.052 13.782 14.752 15.932 17.172 18.582 20.172 21.932
935.566 23.962 26.192 28.612 31.172 33.832 36.842 40.062 43.342 46.842 50.492
954.856 54.052 57.252 60.382 63.112 65.102 66.412 66.742 66.182 64.802 62.712
974.146 60.162 57.352 54.212 50.732 47.172 43.502 39.682 35.932 32.582 29.842
993.436 27.682 26.002 24.632 23.542 22.572 21.682 20.802 20.022 19.252 18.432
1012.726 17.502 16.432 15.322 14.242 13.322 12.582 11.982 11.442 10.852 10.302
1032.016 9.882 9.392 8.942 8.502 8.152 7.862 7.522 7.202 6.892 6.762
1051.306 6.632 6.462 6.462 6.422 6.382 6.492 6.732 7.172 7.662 8.152
1070.596 8.722 9.432 10.292 11.302 12.402 13.572 15.092 16.792 18.662 20.872
1089.886 23.212 25.742 28.612 31.742 35.132 39.002 43.162 47.442 51.972 56.352
1109.176 60.522 64.792 69.082 73.052 76.252 78.202 78.472 76.982 74.072 70.602
1128.467 66.972 63.172 59.132 54.622 50.052 46.022 42.532 39.552 37.132 35.272
1147.757 34.002 33.062 32.302 32.012 32.062 32.492 33.312 34.262 35.432 36.672
1167.047 38.002 39.412 40.842 42.292 43.392 44.102 44.642 44.922 44.612 43.832
1186.337 42.842 41.602 40.152 38.512 36.722 34.932 33.172 31.222 29.052 26.992
1205.627 24.892 23.032 21.342 19.752 18.342 16.702 15.262 14.032 12.752 11.582
1224.917 10.692 9.862 8.982 8.232 7.502 6.882 6.392 5.902 5.412 5.052
1244.207 4.662 4.392 4.312 4.072 3.852 3.822 3.652 3.472 3.362 3.232
1263.497 3.152 3.102 2.912 2.722 2.692 2.662 2.592 2.522 2.502 2.492
1282.787 2.392 2.312 2.352 2.412 2.442 2.462 2.422 2.352 2.412 2.482
1302.077 2.552 2.602 2.632 2.772 2.902 3.052 3.192 3.272 3.482 3.782
1321.367 4.082 4.412 4.692 5.002 5.382 5.842 6.332 6.972 7.672 8.452
1340.657 9.382 10.412 11.552 12.762 13.992 15.312 16.662 17.912 19.022 20.012
1359.947 20.872 21.592 22.112 22.392 22.302 21.782 20.822 19.602 18.382 17.072
1379.237 15.592 13.902 12.052 10.292 8.642 7.222 6.172 5.342 4.632 4.082
1398.527 3.662 3.302 3.022 2.762 2.552 2.312 2.102 1.962 1.8454 1.7943
1417.817 1.7041 1.609 1.575 1.5239 1.4689 1.398 1.3616 1.3456 1.3349 1.2491
1437.107 1.1994 1.2443 1.2206 1.1786 1.1817 1.171 1.1771 1.22 1.2201 1.138
1456.397 1.0783 1.0847 1.0732 1.1056 1.1207 1.0813 1.0977 1.1471 1.0739 1.0743
1475.687 1.1327 1.1101 1.0932 1.1112 1.1297 1.1515 1.1859 1.1338 1.1157 1.2031
1494.977 1.2459 1.2486 1.2145 1.1851 1.2669 1.2891 1.2711 1.324 1.3299 1.3047
1514.267 1.2617 1.2325 1.2787 1.3084 1.3331 1.3925 1.4203 1.468 1.4965 1.4899
1533.557 1.5606 1.671 1.7631 1.8479 1.902 2.022 2.262 2.512 2.842 3.182
1552.847 3.482 3.862 4.382 5.062 5.912 6.802 7.812 9.062 10.512 12.262
1572.137 14.042 15.732 17.392 19.032 20.632 22.452 24.172 25.152 25.762 26.262
1591.427 26.412 26.192 25.732 25.022 23.952 22.622 21.062 19.332 17.552 15.802
1610.717 14.152 12.602 11.132 9.702 8.522 7.532 6.632 5.882 5.182 4.592
1630.007 4.082 3.632 3.312 3.012 2.742 2.482 2.282 2.112 1.942 1.8545
1649.297 1.7672 1.682 1.5883 1.4922 1.4512 1.4253 1.3781 1.3405 1.3656 1.363
1668.587 1.348 1.3868 1.4376 1.4642 1.4918 1.546 1.574 1.5505 1.6606 1.8054
1687.877 1.8448 1.892 1.942 2.002 2.102 2.182 2.282 2.442 2.542 2.642
1707.167 2.792 2.912 3.172 3.482 3.792 4.202 4.672 5.142 5.712 6.462
1726.457 7.332 8.292 9.472 10.842 12.482 14.162 15.872 17.882 20.092 22.582
1745.747 25.382 28.522 32.122 36.332 41.122 46.452 52.402 58.662 64.952 70.672
1765.037 75.422 79.242 82.372 85.402 89.512 95.002 100.772 103.862 101.292 94.612
1784.327 88.332 84.972 83.242 80.492 75.322 67.892 59.382 50.702 42.772 36.072
1803.617 30.772 26.532 23.042 19.972 17.252 14.832 12.712 10.862 9.222 7.782
1822.907 6.622 5.652 4.802 4.122 3.622 3.192 2.852 2.612 2.442 2.272
1842.197 2.102 2.032 1.972 1.912 1.8303 1.7575 1.6793 1.5949 1.5975 1.5611
1861.487 1.4958 1.4552 1.4164 1.4135 1.3904 1.3377 1.2891 1.2296 1.1701 1.1596
1880.777 1.1602 1.1335 1.0906 1.0517 1.0637 1.0643 1.0159 0.96751 0.94273 0.9813
1900.067 1.0059 0.9775 0.94103 0.94722 0.94106 0.92819 0.94703 0.92586 0.89906 0.876486
1919.357 0.881043 0.88568 0.9037 0.96089 0.93304 0.879698 0.880403 0.91939 0.91711 0.89157
1938.647 0.875721 0.8533 0.86389 0.8284 0.7977 0.768 0.77 0.7973 0.758 0.755
1957.937 0.7843 0.756 0.752 0.756 0.697 0.688 0.687 0.653 0.689 0.763
1977.227 0.762 0.697 0.642 0.633 0.624 0.654 0.684 0.666 0.671 0.645
1996.517 0.673 0.697 0.672 0.599 0.585 0.658 0.66 0.64 0.655 0.653
2015.807 0.651 0.692 0.704 0.716 0.746 0.696 0.676 0.709 0.675 0.646
2035.097 0.671 0.677 0.633 0.607 0.595 0.61 0.686 0.665 0.595 0.596
2054.387 0.605 0.587 0.559 0.553 0.537 0.574 0.636 0.567 0.542 0.609
2073.677 0.605 0.578 0.57 0.575 0.583 0.576 0.619 0.648 0.606 0.643
2092.967 0.621 0.588 0.643 0.671 0.653 0.607 0.577 0.592 0.627 0.615
2112.257 0.591 0.616 0.636 0.597 0.606 0.598 0.549 0.601 0.643 0.623
2131.547 0.604 0.637 0.667 0.618 0.581 0.584 0.623 0.616 0.613 0.633
2150.837 0.622 0.623 0.616 0.577 0.605 0.671 0.616 0.587 0.598 0.579
2170.127 0.61 0.573 0.53 0.546 0.545 0.59 0.673 0.68 0.662 0.663
2189.417 0.671 0.68 0.653 0.698 0.731 0.72 0.73 0.731 0.744 0.748
2208.707 0.748 0.744 0.754 0.7876 0.8021 0.8185 0.8508 0.86357 0.8389 0.8182
2227.997 0.7879 0.763 0.7761 0.7991 0.7958 0.756 0.685 0.644 0.642 0.62
2247.287 0.621 0.582 0.53 0.517 0.481 0.448 0.447 0.512 0.491 0.401
2266.577 0.435 0.445 0.468 0.489 0.438 0.477 0.518 0.483 0.44 0.408
2285.868 0.409 0.446 0.5 0.497 0.476 0.46 0.446 0.439 0.438 0.515
2305.158 0.568 0.52 0.421 0.417 0.426 0.421 0.479 0.476 0.431 0.439
2324.448 0.457 0.453 0.435 0.451 0.466 0.445 0.477 0.473 0.458 0.529
2343.738 0.519 0.458 0.448 0.448 0.496 0.531 0.488 0.473 0.476 0.457
2363.028 0.486 0.473 0.472 0.494 0.455 0.441 0.459 0.479 0.463 0.438
2382.318 0.438 0.475 0.467 0.447 0.449 0.446 0.429 0.407 0.404 0.394
2401.608 0.35 0.367 0.443 0.43 0.382 0.372 0.343 0.338 0.335 0.294
2420.898 0.344 0.387 0.376 0.382 0.406 0.452 0.498 0.462 0.441 0.465
2440.188 0.466 0.41 0.41 0.466 0.499 0.52 0.547 0.572 0.579 0.559
2459.478 0.494 0.443 0.425 0.424 0.425 0.475 0.435 0.312 0.3 0.391
2478.768 0.375 0.348 0.356 0.269 0.275 0.331 0.323 0.344 0.34 0.317
2498.058 0.284 0.285 0.307 0.259 0.25 0.256 0.282 0.307 0.283 0.242
2517.348 0.268 0.318 0.297 0.312 0.291 0.243 0.254 0.237 0.247 0.237
2536.638 0.241 0.258 0.265 0.289 0.289 0.293 0.264 0.285 0.288 0.269
2555.928 0.231 0.132 0.127 0.184 0.187 0.17 0.214 0.2 0.144 0.125
2575.218 0.115 0.146 0.129 0.081 0.094 0.124 0.168 0.207 0.116 0.051
2594.508 0.095 0.143 0.159 0.118 0.136 0.156 0.052 0.072 0.198 0.178
2613.798 0.141 0.147 0.125 0.127 0.145 0.128 0.071 0.05 0.099 0.15
2633.088 0.228 0.213 0.114 0.124 0.159 0.156 0.193 0.201 0.204 0.225
2652.378 0.202 0.199 0.219 0.221 0.212 0.131 0.091 0.198 0.251 0.199
2671.668 0.165 0.167 0.177 0.2 0.199 0.221 0.185 0.149 0.21 0.205
2690.958 0.098 0.064 0.114 0.208 0.239 0.167 0.2 0.232 0.233 0.207
2710.248 0.208 0.221 0.168 0.211 0.205 0.19 0.234 0.183 0.197 0.251
2729.538 0.172 0.145 0.17 0.115 0.102 0.095 0.063 0.061 0.106 0.057
2748.828 0.051 0.062 0.024 0.044 0.056 0.054 0.033 0.039 0.061 0.031
2768.118 0.049 0.069 0 0.051 0.075 0.031 0.102 0.163 0.134 0.138
2787.408 0.137 0.15 0.188 0.148 0.122 0.104 0.109 0.18 0.209 0.144
2806.698 0.122 0.119 0.071 0.065 0.171 0.22 0.131 0.094 0.102 0.13
2825.988 0.145 0.155 0.158 0.207 0.281 0.249 0.255 0.205 0.149 0.272
2845.278 0.362 0.438 0.53 0.534 0.517 0.522 0.489 0.541 0.535 0.56
2864.568 0.613 0.533 0.428 0.512 0.644 0.583 0.583 0.567 0.566 0.496
2883.858 0.434 0.452 0.366 0.325 0.319 0.193 0.178 0.248 0.261 0.299
2903.148 0.266 0.277 0.265 0.2 0.198 0.23 0.1 0.019 0.142 0.156
2922.438 0.198 0.242 0.262 0.352 0.345 0.261 0.232 0.282 0.399 0.364
2941.728 0.262 0.249 0.221 0.32 0.511 0.528 0.534 0.457 0.311 0.322
2961.018 0.292 0.27 0.293 0.322 0.396 0.396 0.362 0.335 0.305 0.22
2980.308 0.149 0.18 0.255 0.297 0.269 0.278 0.275 0.222 0.277 0.353
2999.598 0.374 0.374 0.257 0.199 0.249 0.294 0.359 0.423 0.384 0.318
3018.888 0.369 0.381 0.326 0.337 0.419 0.447 0.35 0.371 0.39 0.377
3038.178 0.4 0.331 0.358 0.341 0.265 0.232 0.246 0.283 0.246 0.173
3057.468 0.239 0.284 0.329 0.384 0.286 0.235 0.239 0.266 0.304 0.432
3076.758 0.365 0.242 0.241 0.289 0.38 0.331 0.309 0.381 0.377 0.272
3096.048 0.374 0.504 0.504 0.573 0.549 0.474 0.51 0.491 0.445 0.519
3115.338 0.546 0.654 0.717 0.633 0.543 0.549 0.61 0.628 0.671 0.759
3134.628 0.8243 0.761 0.728 0.879745 0.9866 0.8921 0.7824 0.7866 0.754 0.698
3153.918 0.718 0.707 0.715 0.677 0.643 0.706 0.764 0.8289 0.86239 0.751
3173.208 0.666 0.659 0.635 0.609 0.573 0.67 0.739 0.573 0.522 0.537
3192.498 0.547 0.501 0.397 0.467 0.539 0.516 0.401 0.372 0.523 0.528
3211.788 0.418 0.409 0.475 0.44 0.382 0.467 0.478 0.427 0.442 0.463
3231.078 0.448 0.354 0.317 0.416 0.421 0.412 0.484 0.53 0.519 0.464
3250.368 0.431 0.44 0.484 0.478 0.451 0.477 0.448 0.374 0.278 0.164
3269.658 0.114 0.2 0.343 0.44 0.425 0.45 0.377 0.37 0.431 0.33
3288.948 0.338 0.428 0.446 0.383 0.373 0.43 0.413 0.377 0.474 0.613
3308.238 0.623 0.565 0.627 0.65 0.731 0.681 0.57 0.586 0.583 0.505
3327.528 0.469 0.618 0.668 0.612 0.675 0.765 0.763 0.737 0.8148 1.0037
3346.818 1.032 1.013 1.0504 0.9922 0.92404 0.9731 1.0814 1.1725 1.2062 1.2845
3366.108 1.4018 1.5094 1.5728 1.6589 1.6641 1.6609 1.7603 1.8248 1.912 1.952
3385.398 2.042 2.192 2.262 2.372 2.482 2.802 3.192 3.372 3.692 4.072
3404.688 4.512 4.972 5.442 6.002 6.582 7.312 8.042 8.612 9.082 9.722
3423.978 10.522 11.312 12.222 12.912 13.572 14.302 14.772 15.062 15.122 15.062
3443.269 15.192 15.462 15.662 15.272 14.082 12.902 12.082 11.612 11.112 10.222
3462.559 9.152 8.122 6.992 5.962 5.162 4.602 4.242 3.882 3.542 3.332
3481.849 3.122 2.912 2.942 3.002 3.032 3.112 3.192 3.332 3.452 3.642
3501.139 3.872 3.922 4.112 4.462 4.822 5.232 5.692 6.082 6.422 6.892
3520.429 7.312 7.692 8.112 8.522 8.982 9.492 9.902 10.262 10.502 10.692
3539.719 11.202 12.042 13.012 13.862 14.852 15.932 16.762 17.532 18.032 18.242
3559.009 18.432 18.752 19.282 19.312 18.422 17.042 15.532 14.282 13.222 12.062
3578.299 10.642 8.812 7.072 5.562 4.282 3.442 2.942 2.602 2.202 1.785
3597.589 1.5942 1.4756 1.3656 1.2827 1.1455 1.1108 1.1872 1.0863 0.9803 0.9598
3616.879 0.88617 0.8599 0.8434 0.8537 0.8168 0.7823 0.7857 0.705 0.722 0.847
3636.169 0.8278 0.7772 0.771 0.753 0.719 0.747 0.8547 0.8384 0.7892 0.7738
3655.459 0.641 0.597 0.749 0.8332 0.759 0.759 0.689 0.714 0.921 0.779
3674.749 0.619 0.576 0.616 0.756 0.7969 0.877794 0.96146 0.8563 0.662 0.608
3694.039 0.694 0.665 0.616 0.594 0.558 0.643 0.746 0.742 0.687 0.712
3713.329 0.736 0.644 0.605 0.706 0.711 0.671 0.755 0.88584 0.92305 0.89376
3732.619 0.787 0.706 0.7 0.761 0.86996 0.93632 0.96532 0.88266 0.748 0.744
3751.909 0.763 0.735 0.8403 0.86291 0.8185 0.868 0.8125 0.724 0.702 0.697
3771.199 0.839 0.86606 0.764 0.754 0.716 0.725 0.695 0.627 0.592 0.645
3790.489 0.75 0.8253 0.8212 0.742 0.743 0.7837 0.94926 0.96272 0.8104 0.7741
3809.779 0.7915 0.72 0.63 0.724 0.754 0.768 0.8089 0.641 0.6 0.749
3829.069 0.7834 0.7863 0.718 0.757 0.8048 0.695 0.688 0.668 0.595 0.674
3848.359 0.7877 0.8338 0.8233 0.718 0.75 0.707 0.46 0.494 0.713 0.648
3867.649 0.531 0.587 0.581 0.516 0.619 0.724 0.8063 0.7779 0.613 0.555
3886.939 0.63 0.674 0.677 0.659 0.625 0.686 0.657 0.666 0.71 0.628
3906.229 0.697 0.688 0.554 0.574 0.545 0.57 0.666 0.595 0.531 0.578
3925.519 0.6 0.592 0.596 0.533 0.558 0.569 0.559 0.582 0.59 0.606
3944.809 0.657 0.752 0.8403 0.8107 0.572 0.477 0.464 0.393 0.466 0.526
3964.099 0.568 0.55 0.528 0.543 0.469 0.434 0.415 0.489 0.565 0.534
3983.389 0.538 0.525 0.588 0.612 0.653 0.623 0.57 0.56 0.45 0.576
##END=
