##TITLE=4-tert-Butylurazole
##JCAMP-DX=4.24
##DATA TYPE=INFRARED SPECTRUM
##ORIGIN=EPA-IR VAPOR PHASE LIBRARY
##OWNER=SRD/NIST
Collection (C) 2018 copyright by the U.S. Secretary of Commerce
on behalf of the United States of America. All rights reserved.
##CAS REGISTRY NO=35403-67-9
##MOLFORM=C 6 H 11 N 3 O 2
##$NIST SOURCE=MSDC-IR
##STATE=gas
##XUNITS=1/CM
##YUNITS=ABSORBANCE
##XFACTOR=1.
##YFACTOR=0.001
##DELTAX=1.92898
##FIRSTX=549.8
##LASTX=4000.7
##FIRSTY=40.505
##MAXX=4000.7
##MINX=549.759
##MAXY=0.433905
##MINY=0
##NPOINTS=1790
##XYDATA=(X++(Y..Y))
549.759 40.505 41.885 42.195 42.515 42.545 41.625 40.005 37.835 35.345 32.285
569.049 29.055 25.835 22.235 19.465 17.175 14.905 12.995 11.385 10.015 8.795
588.339 8.375 7.725 6.945 6.655 6.705 6.915 6.915 7.155 7.475 7.795
607.628 8.545 9.145 9.705 10.565 11.655 12.955 14.555 17.005 19.535 21.905
626.918 24.205 26.765 29.395 31.705 34.835 37.725 39.355 40.495 40.915 40.425
646.208 39.125 37.055 34.445 31.385 28.345 24.905 20.925 17.265 14.185 11.505
665.498 9.735 8.585 7.315 6.455 5.975 5.475 4.885 4.765 5.235 5.965
684.787 6.655 7.235 8.285 9.645 10.965 12.255 13.345 13.805 13.975 14.265
704.077 14.255 13.835 12.905 11.705 10.655 9.565 8.385 7.715 7.515 7.605
723.367 7.895 8.365 9.035 9.605 10.215 11.005 11.915 12.875 14.175 15.875
742.657 17.605 19.705 22.155 25.455 29.115 33.075 37.455 41.625 46.185 50.875
761.947 55.585 60.645 65.485 69.835 72.935 74.935 76.285 76.655 76.155 73.885
781.236 69.645 63.875 57.565 51.635 45.805 40.545 35.645 30.815 26.655 23.095
800.526 20.245 18.035 16.515 15.285 13.955 13.135 12.715 12.325 12.105 12.145
819.816 12.235 12.125 12.255 12.105 11.895 11.885 11.575 11.225 10.705 10.215
839.106 9.925 9.515 9.015 8.805 8.505 8.255 8.025 7.615 7.345 7.075
858.395 6.595 6.195 5.955 5.715 5.775 5.625 5.315 4.945 4.885 4.935
877.685 4.635 4.505 4.405 4.435 4.355 3.905 3.975 4.125 3.955 3.815
896.975 3.605 3.495 3.675 3.955 4.035 3.985 3.715 3.735 3.835 3.585
916.265 3.725 4.025 4.035 3.925 3.945 4.255 4.375 4.325 4.405 4.405
935.555 4.345 4.245 4.035 3.915 3.935 3.865 3.745 3.785 3.775 3.785
954.844 3.995 3.905 3.695 3.725 3.695 3.835 3.825 3.705 4.055 4.095
974.134 3.945 3.995 4.215 4.695 5.055 5.045 5.315 5.935 6.295 6.865
993.424 7.685 8.585 9.225 9.885 10.875 11.735 12.145 12.225 12.545 12.885
1012.714 13.245 12.865 12.495 12.405 11.455 10.365 9.535 9.035 8.415 8.135
1032.003 8.235 7.835 7.375 7.165 7.635 7.495 7.025 7.175 7.075 7.315
1051.293 7.565 7.575 7.625 7.355 7.305 6.945 6.875 6.695 6.255 6.085
1070.583 5.655 6.015 6.965 7.165 6.775 7.115 8.055 8.885 10.155 11.005
1089.873 11.245 11.515 11.425 11.855 12.045 12.095 12.285 11.305 9.745 8.015
1109.163 6.985 7.245 7.525 7.465 6.565 6.055 6.185 5.955 5.995 6.385
1128.452 6.005 5.645 6.345 7.325 7.025 6.265 6.235 6.105 6.105 5.685
1147.742 4.905 5.525 5.955 5.865 6.365 6.985 7.275 7.385 8.185 8.985
1167.032 9.245 9.855 11.325 12.145 12.625 14.115 15.365 16.305 17.285 17.875
1186.322 18.485 19.005 19.615 20.375 21.195 21.775 22.835 24.115 24.545 25.135
1205.611 26.385 27.585 28.335 29.715 30.785 31.745 32.345 32.145 32.595 32.015
1224.901 30.925 29.825 27.535 25.115 23.255 21.415 20.035 19.225 18.305 17.785
1244.191 17.605 17.625 18.065 18.495 19.015 19.265 19.615 20.185 20.055 19.215
1263.481 18.235 17.305 16.275 15.125 13.825 12.765 11.805 10.525 9.385 8.805
1282.771 8.585 8.475 8.555 8.715 8.975 9.695 10.645 11.715 13.175 15.085
1302.060 17.495 20.455 24.015 28.265 33.165 38.255 43.455 48.375 52.655 56.165
1321.350 58.785 60.195 60.085 58.545 55.805 51.995 47.205 41.765 36.185 31.025
1340.640 26.415 22.475 19.325 16.885 15.245 14.405 14.355 14.975 16.175 18.045
1359.930 20.585 23.675 27.425 31.995 37.345 43.655 50.795 58.125 65.175 71.855
1379.219 78.515 85.135 91.585 97.435 102.325 106.355 109.505 111.565 112.535 112.175
1398.509 110.275 107.175 103.185 97.895 91.255 84.535 77.925 70.695 62.995 55.365
1417.799 48.645 43.005 38.405 34.595 31.195 28.115 25.345 22.875 20.745 19.005
1437.089 17.595 16.425 15.525 14.905 14.485 14.215 14.145 14.155 14.235 14.395
1456.378 14.485 14.555 14.595 14.635 14.665 14.815 14.925 14.935 14.935 14.775
1475.668 14.655 14.475 14.115 13.785 13.385 12.955 12.335 11.535 10.845 9.955
1494.958 8.995 8.175 7.535 6.955 6.325 5.845 5.515 5.195 4.905 4.575
1514.248 4.265 4.065 3.955 3.855 3.755 3.625 3.495 3.445 3.465 3.425
1533.538 3.325 3.315 3.195 3.085 3.135 3.105 3.095 3.235 3.235 3.085
1552.827 3.025 2.975 2.975 2.835 2.575 2.515 2.535 2.485 2.365 2.305
1572.117 2.335 2.235 1.945 1.925 2.055 2.115 2.235 2.175 2.025 1.975
1591.407 1.855 2.045 2.195 2.005 2.055 2.145 2.185 2.225 2.275 2.305
1610.697 2.335 2.425 2.565 2.675 2.645 2.655 2.805 2.955 3.035 3.055
1629.986 3.145 3.295 3.365 3.455 3.545 3.645 3.775 3.835 3.735 3.855
1649.276 4.005 3.975 4.015 4.105 4.315 4.395 4.585 4.855 4.925 5.145
1668.566 5.505 5.765 5.925 6.185 6.525 7.015 7.645 8.235 8.805 9.435
1687.856 10.355 11.295 12.235 13.335 14.545 15.935 17.555 19.395 21.365 23.795
1707.146 26.485 29.465 32.945 36.835 41.475 47.095 53.965 62.115 72.495 85.805
1726.435 102.225 122.345 147.155 176.785 212.705 252.765 293.725 335.225 371.915 401.085
1745.725 420.625 431.275 433.905 430.225 419.055 397.225 362.765 318.915 268.885 218.515
1765.015 173.375 135.565 105.665 83.405 66.545 54.395 45.805 39.785 35.645 32.845
1784.305 31.225 30.465 30.385 31.045 32.385 33.885 35.305 36.605 37.345 37.505
1803.594 37.265 36.425 34.855 32.705 30.365 27.805 24.815 21.705 18.945 16.655
1822.884 14.835 13.475 12.405 11.505 10.665 9.955 9.355 8.785 8.275 7.885
1842.174 7.525 7.085 6.665 6.335 6.085 5.905 5.645 5.435 5.305 5.135
1861.464 5.025 4.925 4.825 4.755 4.655 4.595 4.555 4.555 4.525 4.515
1880.754 4.505 4.415 4.405 4.405 4.395 4.375 4.385 4.445 4.355 4.325
1900.043 4.395 4.385 4.265 4.015 3.815 3.595 3.405 3.245 3.025 2.885
1919.333 2.765 2.675 2.675 2.625 2.535 2.465 2.425 2.445 2.495 2.515
1938.623 2.485 2.465 2.525 2.615 2.615 2.635 2.675 2.655 2.705 2.705
1957.913 2.655 2.605 2.455 2.305 2.285 2.295 2.285 2.265 2.135 2.055
1977.202 1.935 1.815 1.775 1.705 1.565 1.555 1.605 1.525 1.515 1.525
1996.492 1.435 1.385 1.385 1.395 1.385 1.395 1.525 1.605 1.695 1.705
2015.782 1.635 1.655 1.625 1.555 1.595 1.565 1.485 1.455 1.455 1.385
2035.072 1.325 1.265 1.245 1.265 1.225 1.235 1.195 1.1555 1.1732 1.0798
2054.362 1.0362 1.0252 0.9536 0.9669 0.9996 1.0434 1.0325 0.9649 0.9951 1.0901
2073.651 1.1837 1.1741 1.1332 1.1752 1.1622 1.205 1.285 1.225 1.245 1.265
2092.941 1.173 1.235 1.315 1.235 1.1525 1.195 1.205 1.1459 1.1466 1.215
2112.231 1.215 1.1574 1.1616 1.1029 1.0796 1.215 1.355 1.315 1.295 1.365
2131.521 1.415 1.525 1.505 1.455 1.525 1.545 1.555 1.635 1.665 1.705
2150.810 1.735 1.705 1.735 1.755 1.785 1.765 1.795 1.815 1.695 1.665
2170.100 1.715 1.775 1.725 1.675 1.695 1.575 1.485 1.515 1.505 1.515
2189.390 1.495 1.345 1.385 1.415 1.275 1.1723 1.195 1.215 1.205 1.215
2208.680 1.172 1.0873 1.0707 1.0011 0.9417 0.9342 0.8402 0.7851 0.9802 1.0759
2227.970 0.8276 0.7976 0.8573 0.7716 0.8237 0.8299 0.7821 0.8471 0.8488 0.8556
2247.259 0.932 0.9915 0.9704 0.9607 1.0055 1.0364 1.0558 1.0123 1.0076 0.9965
2266.549 1.0012 1.0235 1.0252 0.9686 0.8987 0.9841 0.9145 0.8254 0.8441 0.9549
2285.839 0.9757 0.921 0.9451 0.9456 0.8495 0.8224 0.9095 0.8713 0.8519 0.847
2305.129 0.8177 0.7846 0.7117 0.7515 0.7731 0.7055 0.6986 0.6969 0.7145 0.621
2324.418 0.6118 0.7004 0.6811 0.5577 0.5827 0.7219 0.774 0.6356 0.5532 0.6849
2343.708 0.6466 0.6303 0.595 0.5355 0.4908 0.4312 0.4313 0.5144 0.513 0.4989
2362.998 0.6396 0.6294 0.5838 0.5907 0.5706 0.6107 0.672 0.774 0.8218 0.6958
2382.288 0.6323 0.647 0.6679 0.6933 0.7655 0.8353 0.8589 0.823 0.8642 0.9495
2401.578 0.8866 0.8715 0.8541 0.8504 0.863 0.9135 1.0272 1.029 1.051 0.9865
2420.867 0.9473 0.9993 1.0854 1.245 1.255 1.285 1.285 1.255 1.315 1.345
2440.157 1.355 1.385 1.335 1.375 1.415 1.285 1.285 1.255 1.1531 1.0441
2459.447 1.0483 1.1501 1.0646 0.9506 0.8628 0.8279 0.8127 0.8187 0.8393 0.808
2478.737 0.7236 0.7364 0.7522 0.7645 0.8223 0.835 0.9026 0.9736 0.9078 0.8115
2498.026 0.9118 0.9756 0.9507 0.9547 0.9831 0.9387 0.9016 0.9631 0.9715 1.0523
2517.316 1.1046 1.0283 1.1254 1.0672 0.811 0.7739 0.826 0.8906 0.7999 0.7156
2536.606 0.8015 0.7889 0.8623 0.8915 0.8978 0.9505 0.9217 0.957 0.8876 0.8366
2555.896 0.883 0.8282 0.9076 1.1322 1.335 1.535 1.535 1.455 1.475 1.485
2575.186 1.515 1.585 1.455 1.375 1.425 1.375 1.375 1.285 1.235 1.325
2594.475 1.275 1.215 1.1848 1.1136 1.0645 1.0295 1.0239 1.0264 1.0068 1.0668
2613.765 1.0993 1.0664 1.0464 0.9726 1.0008 1.0547 1.0261 0.9373 0.844 0.8748
2633.055 0.9684 0.9555 0.9012 0.976 1.0563 1.1226 1.1346 1.0299 1.0183 1.1145
2652.345 1.1064 1.0378 0.9922 0.9761 0.8991 0.8738 0.9881 1.0335 0.9251 0.867
2671.634 0.9234 0.9313 1.0231 1.1064 1.0159 1.0265 1.1173 1.0954 1.185 1.1822
2690.924 1.02 1.0243 1.1833 1.295 1.275 1.1758 1.1232 1.0699 1.104 1.1537
2710.214 1.1623 1.1357 1.0864 1.0303 0.8451 0.9012 1.0399 1.1006 1.1229 1.0594
2729.504 1.0688 1.1147 1.1478 1.1297 1.1428 1.1342 1.069 1.1024 1.1381 1.1603
2748.794 1.1024 1.0323 1.0269 1.0253 1.0831 1.0807 1.0132 1.0201 0.9974 0.9559
2768.083 0.9294 0.8772 0.8929 0.9434 0.9649 0.9208 0.8482 0.7813 0.8249 0.8684
2787.373 0.771 0.8031 1.0129 1.0167 1.0034 1.1449 1.1641 1.1627 1.225 1.315
2806.663 1.265 1.265 1.235 1.1566 1.265 1.365 1.325 1.215 1.265 1.385
2825.953 1.385 1.305 1.335 1.405 1.505 1.485 1.555 1.725 1.735 1.745
2845.242 1.625 1.705 1.855 1.795 1.965 2.145 2.155 2.345 2.525 2.675
2864.532 2.985 3.305 3.585 3.755 4.005 4.415 4.845 5.095 5.215 5.395
2883.822 5.745 5.975 6.065 6.345 6.615 6.915 7.155 7.195 7.405 7.855
2903.112 8.295 8.745 9.275 9.695 10.015 10.375 10.785 11.275 11.665 11.925
2922.401 12.075 12.405 12.965 13.485 13.815 14.145 14.745 15.315 15.625 15.995
2941.691 16.405 16.765 17.045 17.315 17.635 17.875 18.095 18.395 18.765 19.435
2960.981 20.245 21.265 22.605 23.825 25.275 26.845 28.095 29.115 30.005 30.535
2980.271 30.535 30.115 29.515 28.805 27.615 25.985 24.335 22.825 21.505 20.325
2999.561 19.165 18.165 17.175 16.025 14.895 13.995 13.295 12.475 11.375 10.245
3018.850 9.095 8.105 7.445 6.505 5.535 4.865 4.275 3.835 3.515 3.165
3038.140 2.695 2.245 2.085 2.065 1.915 1.745 1.725 1.685 1.675 1.605
3057.430 1.435 1.425 1.425 1.325 1.205 1.315 1.1366 0.9931 1.1509 1.1745
3076.720 1.1116 1.1019 1.1111 1.0963 1.0902 0.9311 0.8916 0.8831 0.9032 0.9242
3096.009 0.8244 0.7788 0.7729 0.7148 0.6896 0.9171 0.9671 0.7593 0.8363 0.9409
3115.299 0.8559 0.8639 0.8295 0.8424 1.0596 1.1371 0.9795 0.8345 0.9002 0.9014
3134.589 0.799 0.88 1.0864 1.0501 0.9535 1.0054 1.0257 0.8151 0.699 0.8969
3153.879 0.8781 0.7549 0.7428 0.7865 0.8083 0.7373 0.7709 0.753 0.7741 0.9139
3173.169 0.9741 0.9663 0.9605 0.9532 0.9462 1.0738 1.1164 1.083 0.9176 0.8047
3192.458 1.0052 0.9543 0.7362 0.7991 0.9218 0.8924 0.9591 1.185 1.1394 0.93
3211.748 0.9301 0.8829 0.8127 0.7069 0.7723 0.9519 0.7282 0.5691 0.6547 0.6904
3231.038 0.8493 0.9934 0.7637 0.7449 0.8508 0.6422 0.4652 0.643 0.7838 0.5992
3250.328 0.6848 0.6453 0.5149 0.6058 0.6036 0.6674 0.6855 0.5998 0.5493 0.5953
3269.617 0.6451 0.699 0.5906 0.6513 0.7419 0.6418 0.7169 0.8215 0.735 0.5437
3288.907 0.6982 0.9357 0.9012 0.8328 0.6949 0.7791 0.9531 0.8454 0.846 0.7867
3308.197 0.6378 0.4745 0.4867 0.6876 0.6637 0.5966 0.5048 0.4832 0.6195 0.6423
3327.487 0.6162 0.6806 0.7493 0.8673 0.8435 0.7312 0.7317 0.706 0.6557 0.655
3346.777 0.6833 0.7597 0.9444 1.1346 1.215 1.315 1.515 1.725 1.875 2.195
3366.066 2.685 3.415 4.435 5.845 8.175 11.445 15.955 21.845 28.515 35.075
3385.356 40.025 42.875 46.085 50.725 51.485 48.945 47.365 43.755 37.325 29.925
3404.646 23.105 17.305 12.795 9.805 7.405 5.715 4.625 3.805 3.275 2.725
3423.936 2.235 2.045 1.915 1.635 1.425 1.275 1.315 1.445 1.255 1.195
3443.225 1.285 0.9045 0.8708 1.0738 0.9799 0.8558 0.852 0.9166 1.0199 0.8241
3462.515 0.701 0.7257 0.5014 0.6475 0.8142 0.8383 0.9567 1.0576 1.0993 1.0772
3481.805 1.0887 1.255 1.335 1.365 1.415 1.415 1.495 1.585 1.575 1.635
3501.095 1.635 1.445 1.445 1.655 1.775 1.705 1.935 2.145 2.165 2.315
3520.385 2.415 2.275 2.325 2.755 3.035 3.015 2.895 2.885 3.065 3.135
3539.674 3.025 3.035 2.975 2.845 2.805 2.465 2.235 1.985 1.555 1.405
3558.964 1.325 1.1597 1.0887 1.1561 0.9779 0.7257 0.6825 0.7011 0.6441 0.5931
3578.254 0.7197 0.8426 0.6867 0.6999 0.8353 0.7247 0.6151 0.5435 0.9144 1.0013
3597.544 0.8823 1.0444 0.8156 0.5774 0.6256 0.7016 0.6602 0.6178 0.6139 0.5682
3616.833 0.4276 0.4588 0.5676 0.5674 0.6236 0.4787 0.25807 0.27495 0.3828 0.3202
3636.123 0.1393 0.227 0.4336 0.4332 0.5339 0.446 0.2941 0.3278 0.23566 0.23768
3655.413 0.4331 0.4006 0.4651 0.6736 0.5266 0.3922 0.4303 0.3231 0.25146 0.5503
3674.703 0.62 0.4943 0.5119 0.6336 0.5645 0.3728 0.192411 0.17847 0.3734 0.4006
3693.993 0.21183 0.194353 0.24705 0.2499 0.4672 0.6142 0.5642 0.5353 0.5381 0.138
3713.282 0.039 0.26488 0.2762 0.22904 0.22458 0.24767 0.083 0.0941 0.2288 0.26753
3732.572 0.25195 0.24668 0.1168 0.027 0.1178 0.21043 0.1699 0.074 0.0998 0.3094
3751.862 0.4465 0.2987 0.3458 0.4497 0.2913 0.1225 0.1551 0.20631 0.20519 0.3433
3771.152 0.3325 0.1471 0.1355 0.186208 0.22159 0.18072 0.1148 0.3543 0.4778 0.26837
3790.441 0.23767 0.25544 0.22383 0.25555 0.3501 0.5092 0.3973 0.372 0.491 0.3871
3809.731 0.22297 0.28237 0.5131 0.4517 0.3305 0.3282 0.3341 0.4761 0.5661 0.4868
3829.021 0.3115 0.188936 0.21962 0.2396 0.0939 0.1295 0.5046 0.6698 0.5233 0.3503
3848.311 0.2974 0.3898 0.3708 0.3414 0.2978 0.3005 0.4094 0.3749 0.5345 0.6034
3867.601 0.4739 0.5288 0.5267 0.5036 0.5128 0.5716 0.468 0.3468 0.4803 0.4111
3886.890 0.3244 0.3381 0.4798 0.601 0.365 0.3774 0.4304 0.0912 0 0.4046
3906.180 0.5952 0.627 0.7659 0.6378 0.5232 0.4322 0.3288 0.318 0.3674 0.4679
3925.470 0.6544 0.6377 0.6181 0.75 0.7804 0.7658 0.6196 0.4109 0.5659 0.7179
3944.760 0.5109 0.4954 0.7549 0.834 0.8802 0.9313 0.9567 0.9592 0.8772 0.8969
3964.049 0.8333 0.6563 0.5762 0.577 0.5436 0.5867 0.4564 0.4492 0.4905 0.4708
3983.339 0.5763 0.654 0.6337 0.5465 0.5932 0.4378 0.3816 0.4399 0.493 0.6781
##END=
