##TITLE=Methyl adipyl chloride
##JCAMP-DX=4.24
##DATA TYPE=INFRARED SPECTRUM
##ORIGIN=EPA-IR VAPOR PHASE LIBRARY
##OWNER=SRD/NIST
Collection (C) 2018 copyright by the U.S. Secretary of Commerce
on behalf of the United States of America. All rights reserved.
##CAS REGISTRY NO=35444-44-1
##MOLFORM=C 7 H 11 Cl O 3
##$NIST SOURCE=MSDC-IR
##STATE=gas
##XUNITS=1/CM
##YUNITS=ABSORBANCE
##XFACTOR=1.
##YFACTOR=0.001
##DELTAX=1.92934
##FIRSTX=549.9
##LASTX=3999.5
##FIRSTY=1.764
##MAXX=3999.53
##MINX=549.863
##MAXY=0.18775
##MINY=0
##NPOINTS=1789
##XYDATA=(X++(Y..Y))
549.863 1.764 1.7105 1.7889 1.8141 1.8037 1.747 1.7815 1.784 1.7101 1.7886
569.156 1.9299 1.9139 2.0239 2.1702 2.147 2.1963 2.228 2.2135 2.2357 2.3003
588.450 2.3434 2.4429 2.5732 2.56 2.552 2.5538 2.63 2.77 2.8 2.85
607.743 2.81 2.72 2.77 2.8 2.78 2.72 2.68 2.69 2.7 2.75
627.037 2.71 2.7 2.7 2.65 2.5957 2.5527 2.61 2.6095 2.4862 2.4001
646.330 2.3937 2.417 2.3554 2.2136 2.1102 2.0767 2.0905 2.0541 1.9125 1.8583
665.624 1.846 1.8251 1.8997 1.8315 1.8143 1.9084 1.9324 1.9895 1.9469 1.8229
684.917 1.8206 1.8829 1.8425 1.9379 2.1163 2.1598 2.1673 2.2889 2.4036 2.349
704.210 2.3798 2.4861 2.4502 2.4376 2.4644 2.4305 2.518 2.5515 2.5393 2.62
723.504 2.67 2.73 2.84 2.84 2.82 2.92 3.04 3.13 3.25 3.34
742.797 3.39 3.51 3.69 3.79 3.93 4.13 4.29 4.42 4.53 4.66
762.091 4.66 4.7 4.78 4.78 4.82 4.87 4.91 5 5.16 5.17
781.384 5.1 5.11 5.1 5.08 5.1 5.09 5.09 5.13 5.19 5.23
800.678 5.36 5.54 5.7 5.88 6.08 6.34 6.64 6.98 7.3 7.51
819.971 7.71 7.95 8.12 8.27 8.42 8.44 8.38 8.38 8.38 8.4
839.264 8.31 8.21 8.14 8 7.89 7.74 7.64 7.57 7.53 7.45
858.558 7.3 7.18 7.12 7.08 6.99 6.87 6.83 6.74 6.59 6.49
877.851 6.3 6.1 5.92 5.81 5.71 5.56 5.4 5.25 5.1 4.97
897.145 4.91 4.75 4.6 4.54 4.44 4.32 4.24 4.13 3.99 3.84
916.438 3.69 3.56 3.45 3.39 3.33 3.28 3.15 3.1 3.09 3.05
935.732 3.12 3.18 3.18 3.18 3.25 3.32 3.33 3.35 3.41 3.5
955.025 3.59 3.79 4.03 4.25 4.51 4.83 5.22 5.57 5.96 6.37
974.318 6.73 7.13 7.58 8.03 8.45 8.92 9.42 9.97 10.66 11.47
993.612 12.34 13.2 14.18 15.21 16.22 17.23 18.23 19.16 20.02 20.74
1012.905 21.27 21.65 21.75 21.58 21.21 20.78 20.29 19.72 19.15 18.58
1032.199 18.09 17.75 17.58 17.5 17.51 17.63 17.78 18.06 18.36 18.68
1051.492 19.14 19.64 20.17 20.7 21.19 21.7 22.13 22.41 22.58 22.72
1070.786 22.78 22.73 22.62 22.42 22.25 22.13 21.83 21.38 20.9 20.42
1090.079 19.92 19.4 18.98 18.68 18.43 18.38 18.5 18.8 19.25 19.83
1109.372 20.65 21.76 23.09 24.64 26.5 28.68 31.2 34.07 37.39 41.12
1128.666 45.27 49.9 55.02 60.55 66.37 72.38 78.43 84.36 89.92 94.97
1147.959 99.48 103.42 106.9 109.87 112.41 114.55 116.18 117.5 118.64 119.36
1167.253 119.64 119.44 118.82 117.69 115.88 113.73 111.19 108.5 105.97 103.75
1186.546 102 100.72 99.91 99.16 98.77 98.81 98.73 98.51 98.2 97.71
1205.840 97.09 96.25 95.39 94.66 93.94 93.27 92.5 92.15 91.47 90.56
1225.133 90.04 89.71 89.4 89.12 88.8 88.3 87.99 87.62 87.02 86.29
1244.426 85.39 84.18 82.43 80.46 78.45 76.1 73.48 70.83 67.94 64.83
1263.720 61.77 58.85 55.98 53.36 50.94 48.78 46.9 45.19 43.69 42.31
1283.013 40.98 39.78 38.69 37.55 36.42 35.31 34.27 33.35 32.46 31.59
1302.307 30.91 30.39 29.93 29.49 29.11 28.76 28.37 27.91 27.39 26.88
1321.600 26.36 25.91 25.55 25.29 25.24 25.3 25.59 26.03 26.62 27.35
1340.894 28.2 29.07 29.94 30.84 31.72 32.58 33.4 34.11 34.64 34.92
1360.187 34.84 34.4 33.57 32.36 30.85 29.07 27.06 25.02 22.99 20.97
1379.480 19.1 17.42 15.89 14.53 13.32 12.32 11.49 10.76 10.24 9.88
1398.774 9.64 9.53 9.55 9.72 9.99 10.36 10.86 11.51 12.25 13.01
1418.067 13.96 15.17 16.6 18.38 20.63 23.42 26.99 31.26 35.76 39.57
1437.361 42.01 43.1 42.92 40.99 37.36 33.23 29.77 27.36 25.59 24.22
1456.654 23.06 21.97 20.96 19.92 18.74 17.51 16.33 15.15 14.02 12.9
1475.948 11.88 10.98 10.16 9.4 8.74 8.19 7.75 7.31 6.91 6.57
1495.241 6.28 6.05 5.76 5.52 5.34 5.16 4.97 4.82 4.71 4.61
1514.534 4.54 4.44 4.36 4.29 4.26 4.23 4.13 4.07 4.06 4.04
1533.828 3.99 3.98 3.97 3.96 3.96 3.91 3.94 3.99 3.97 3.92
1553.121 3.89 3.98 4.03 3.95 3.89 3.94 4 3.94 3.88 3.86
1572.415 3.84 3.84 3.78 3.73 3.73 3.73 3.67 3.62 3.6 3.52
1591.708 3.47 3.42 3.38 3.38 3.34 3.32 3.28 3.21 3.19 3.18
1611.002 3.16 3.14 3.13 3.1 3.05 3.04 3.06 3.04 3.04 3.06
1630.295 3.06 3.09 3.08 3.04 3.05 3.09 3.11 3.13 3.21 3.21
1649.588 3.21 3.31 3.38 3.35 3.39 3.44 3.51 3.61 3.67 3.75
1668.882 3.9 4.02 4.13 4.27 4.41 4.55 4.78 5.04 5.33 5.6
1688.175 5.85 6.17 6.64 7.21 7.78 8.37 9.09 9.93 10.85 11.92
1707.469 13.13 14.54 16.1 17.88 19.9 22.25 24.95 27.89 31.3 35.16
1726.762 39.51 44.54 50.15 56.33 63.67 71.59 80.05 89.71 99.99 111.13
1746.056 123.01 135.59 148.3 160.97 172.26 180.92 186.33 187.75 184.97 178.32
1765.349 168.39 156.06 142.65 129.37 115.82 103 90.96 79.75 69.37 59.95
1784.642 51.53 44.09 37.68 32.07 27.29 23.19 19.79 16.96 14.64 12.75
1803.936 11.2 9.91 8.79 7.92 7.16 6.43 5.89 5.42 5 4.66
1823.229 4.37 4.14 3.93 3.74 3.58 3.42 3.27 3.16 3.09 3.01
1842.523 2.93 2.88 2.81 2.77 2.72 2.65 2.62 2.62 2.5895 2.5507
1861.816 2.5152 2.4987 2.4732 2.4354 2.4469 2.4583 2.439 2.365 2.3495 2.3689
1881.110 2.3477 2.3146 2.2815 2.2607 2.2795 2.2739 2.253 2.2364 2.2238 2.2207
1900.403 2.1963 2.1673 2.1296 2.1347 2.147 2.1329 2.1009 2.0867 2.1271 2.1498
1919.696 2.1743 2.1816 2.1597 2.1453 2.1557 2.1899 2.2227 2.2486 2.2582 2.2799
1938.990 2.2801 2.2621 2.2886 2.3146 2.3413 2.3772 2.3947 2.4077 2.4156 2.4273
1958.283 2.4455 2.4395 2.4627 2.5261 2.5579 2.5945 2.64 2.68 2.7 2.72
1977.577 2.73 2.76 2.83 2.85 2.89 2.92 2.93 3 3.04 3.01
1996.870 3.03 3.09 3.09 3.08 3.12 3.13 3.14 3.16 3.16 3.16
2016.164 3.16 3.21 3.24 3.22 3.2 3.18 3.17 3.18 3.13 3.08
2035.457 3.09 3.08 3.06 3.04 3.06 3.09 3.09 3.07 3.05 3.03
2054.750 3.02 2.98 2.95 2.95 2.91 2.89 2.86 2.82 2.78 2.74
2074.044 2.73 2.67 2.5954 2.5515 2.4606 2.423 2.3972 2.3442 2.3212 2.2703
2093.337 2.2011 2.1391 2.0864 2.0608 2.001 1.9193 1.8716 1.8374 1.8222 1.7638
2112.631 1.7127 1.7196 1.67939 1.63326 1.6241 1.61326 1.581 1.5346 1.5504 1.5472
2131.924 1.508 1.472 1.459 1.492 1.448 1.391 1.407 1.419 1.398 1.4
2151.218 1.385 1.342 1.358 1.363 1.352 1.364 1.357 1.345 1.343 1.333
2170.511 1.298 1.256 1.259 1.281 1.258 1.239 1.252 1.236 1.239 1.258
2189.804 1.265 1.266 1.237 1.174 1.142 1.144 1.116 1.121 1.14 1.129
2209.098 1.109 1.109 1.134 1.118 1.058 1.058 1.055 1.02 1.062 1.085
2228.391 1.08 1.071 1.027 1.018 1.049 1.072 1.046 1.02 1.035 1.034
2247.685 1.032 1.068 1.095 1.073 1.063 1.088 1.084 1.056 1.059 1.112
2266.978 1.137 1.096 1.069 1.089 1.133 1.128 1.118 1.122 1.116 1.13
2286.272 1.121 1.087 1.067 1.085 1.102 1.093 1.12 1.154 1.146 1.142
2305.565 1.14 1.128 1.098 1.091 1.119 1.114 1.105 1.123 1.16 1.175
2324.858 1.149 1.157 1.148 1.12 1.148 1.154 1.148 1.148 1.141 1.149
2344.152 1.154 1.125 1.119 1.167 1.179 1.157 1.151 1.138 1.14 1.163
2363.445 1.169 1.158 1.128 1.171 1.171 1.109 1.109 1.128 1.123 1.129
2382.739 1.116 1.091 1.09 1.049 1.058 1.107 1.087 1.092 1.108 1.074
2402.032 1.055 1.033 1.023 1.049 1.067 1.037 1.008 1.03 1.038 1.005
2421.326 0.975 0.974 0.999 0.984 0.996 1.015 0.962 0.94 0.985 1.018
2440.619 1.013 0.994 1.001 1.011 0.988 0.961 0.906 0.868 0.907 0.92
2459.912 0.915 0.924 0.876 0.878 0.911 0.913 0.896 0.863 0.879 0.872
2479.206 0.863 0.87 0.854 0.826 0.831 0.835 0.79 0.784 0.793 0.818
2498.499 0.821 0.783 0.781 0.771 0.805 0.843 0.813 0.813 0.837 0.813
2517.793 0.785 0.772 0.761 0.775 0.794 0.789 0.814 0.851 0.809 0.8
2537.086 0.785 0.771 0.81 0.823 0.822 0.832 0.834 0.799 0.77 0.771
2556.380 0.772 0.77 0.766 0.789 0.776 0.77 0.795 0.78 0.792 0.848
2575.673 0.837 0.824 0.9 0.903 0.867 0.886 0.899 0.894 0.936 0.995
2594.966 0.997 0.962 0.964 0.981 0.996 1.024 1.016 0.986 0.945 0.919
2614.260 0.925 0.893 0.903 0.922 0.883 0.873 0.911 0.91 0.858 0.845
2633.553 0.829 0.813 0.837 0.888 0.887 0.866 0.868 0.876 0.848 0.845
2652.847 0.885 0.866 0.856 0.846 0.844 0.859 0.831 0.803 0.815 0.857
2672.140 0.831 0.791 0.816 0.827 0.825 0.842 0.805 0.784 0.842 0.848
2691.434 0.826 0.853 0.811 0.758 0.753 0.78 0.803 0.738 0.68 0.683
2710.727 0.728 0.724 0.713 0.646 0.645 0.713 0.698 0.657 0.648 0.613
2730.020 0.56 0.55 0.54 0.57 0.616 0.628 0.628 0.59 0.618 0.683
2749.314 0.63 0.6 0.701 0.747 0.759 0.774 0.764 0.783 0.799 0.868
2768.607 0.88 0.798 0.803 0.822 0.843 0.913 0.941 1.003 1.039 1.032
2787.901 1.052 1.051 1.146 1.237 1.248 1.245 1.304 1.422 1.418 1.434
2807.194 1.508 1.5947 1.7772 1.9584 2.0868 2.1257 2.2378 2.4645 2.6019 2.82
2826.488 3.17 3.48 3.86 4.32 4.76 5.24 5.91 6.68 7.45 8.33
2845.781 9.17 9.78 10.21 10.47 10.54 10.4 10.11 9.79 9.66 9.73
2865.074 9.85 10.18 10.56 10.95 11.38 11.71 11.91 12.07 12.21 12.18
2884.368 12.07 11.99 11.92 11.95 12.08 12.2 12.34 12.57 12.9 13.38
2903.661 13.88 14.37 15.05 15.79 16.63 17.66 18.74 19.81 21.08 22.52
2922.955 23.87 25.21 26.64 28.08 29.53 30.99 32.6 34.33 36.11 38.12
2942.248 40.4 42.8 45.59 48.79 52.38 56.7 61.33 65.62 68.6 69.58
2961.542 68.64 66.04 61.87 56.07 49.5 43.53 38.74 34.94 31.77 29.05
2980.835 26.81 25 23.44 22.14 20.97 19.86 19.1 18.56 18.1 17.61
3000.128 17.02 16.53 16.01 15.52 15.09 14.58 14 13.45 12.98 12.65
3019.422 12.38 12.07 11.75 11.46 11.17 10.82 10.32 9.78 9.27 8.74
3038.715 8.24 7.78 7.36 6.99 6.52 5.96 5.57 5.34 5.14 4.88
3058.009 4.52 4.3 4.11 4 3.75 3.36 3.39 3.37 3.24 3.18
3077.302 3.06 3.07 3.07 2.88 2.74 2.83 2.88 2.77 2.62 2.5501
3096.596 2.5543 2.4097 2.4412 2.3496 2.2525 2.2826 2.1659 2.1286 2.0139 1.8388
3115.889 1.7347 1.65926 1.5952 1.6417 1.5849 1.468 1.471 1.418 1.272 1.244
3135.182 1.161 1.057 1.078 0.953 0.914 0.938 0.895 0.798 0.739 0.847
3154.476 0.84 0.734 0.655 0.59 0.673 0.631 0.56 0.55 0.5 0.54
3173.769 0.45 0.44 0.56 0.48 0.39 0.44 0.46 0.44 0.45 0.4
3193.063 0.32 0.4 0.44 0.49 0.57 0.41 0.25 0.2 0.28 0.33
3212.356 0.3 0.3 0.19 0.12 0.23 0.3 0.35 0.27 0.13 0.12
3231.650 0.1 0.13 0.2 0.2 0.18 0.16 0.19 0.35 0.32 0.2
3250.943 0.19 0.09 0.13 0.11 0 0.13 0.16 0.15 0.27 0.29
3270.236 0.21 0.27 0.37 0.3 0.21 0.3 0.33 0.27 0.24 0.19
3289.530 0.26 0.28 0.22 0.22 0.36 0.22 0.07 0.19 0.24 0.27
3308.823 0.32 0.43 0.6 0.631 0.42 0.29 0.37 0.33 0.31 0.29
3328.117 0.38 0.5 0.47 0.51 0.46 0.38 0.48 0.51 0.49 0.4
3347.410 0.35 0.45 0.42 0.34 0.3 0.34 0.36 0.34 0.36 0.49
3366.704 0.5 0.4 0.38 0.44 0.46 0.5 0.53 0.61 0.58 0.45
3385.997 0.52 0.53 0.617 0.63 0.56 0.684 0.783 0.629 0.729 0.823
3405.290 0.76 0.804 0.663 0.639 0.674 0.59 0.65 0.725 0.722 0.708
3424.584 0.766 0.774 0.728 0.779 0.665 0.683 0.896 0.939 0.855 0.931
3443.877 0.891 0.736 0.78 0.844 0.931 0.949 1.001 1.074 1.115 1.188
3463.171 1.235 1.3 1.39 1.417 1.5 1.5995 1.7342 1.8084 1.8212 1.9866
3482.464 2.1198 2.2641 2.315 2.3418 2.422 2.4165 2.5045 2.586 2.6033 2.5997
3501.758 2.64 2.68 2.5202 2.3385 2.2094 2.2202 2.2168 2.0121 1.8577 1.7105
3521.051 1.5817 1.548 1.553 1.477 1.315 1.212 1.178 1.169 1.151 1.069
3540.344 1.099 1.125 1.056 0.985 0.995 0.95 0.931 0.887 0.91 1.016
3559.638 0.865 0.832 0.912 0.934 0.934 0.928 0.864 0.943 1.047 0.93
3578.931 0.929 0.972 0.982 0.957 0.873 0.901 0.914 0.924 0.841 0.832
3598.225 0.9 0.89 0.903 0.919 0.93 0.943 0.93 0.882 0.871 0.898
3617.518 0.902 0.888 0.831 0.852 0.858 0.823 0.86 0.893 0.882 0.854
3636.812 0.848 0.894 0.924 0.89 0.911 0.897 0.901 0.951 0.89 0.787
3656.105 0.83 0.873 0.821 0.772 0.829 0.883 0.905 0.859 0.773 0.824
3675.398 0.773 0.804 0.88 0.826 0.903 0.909 0.961 1.044 0.995 0.905
3694.692 0.813 0.811 0.843 0.779 0.687 0.781 0.859 0.941 0.939 0.861
3713.985 0.886 0.858 0.862 0.861 0.777 0.813 0.893 0.825 0.813 0.899
3733.279 0.922 0.925 0.939 0.972 1.088 1.098 0.985 1.017 1.028 0.992
3752.572 0.898 0.859 0.99 0.987 0.871 0.832 0.856 0.905 0.858 0.812
3771.866 0.833 0.952 0.982 0.906 0.914 1.022 1.095 1.003 0.984 0.921
3791.159 0.858 0.791 0.799 0.797 0.829 1.043 1.057 0.973 0.933 1.018
3810.452 1.116 0.976 0.816 0.833 0.923 0.984 0.944 0.806 0.772 0.859
3829.746 1.021 1.17 1.143 1.044 0.992 0.934 0.861 0.911 0.994 1.027
3849.039 1.021 0.947 0.886 0.956 1.051 1.026 0.906 0.877 0.891 0.907
3868.333 0.94 0.943 0.954 0.994 1.007 0.96 0.941 0.93 0.978 0.852
3887.626 0.812 0.927 0.987 0.949 0.81 0.867 0.907 0.879 0.958 1.072
3906.920 1.06 1.027 1.038 1.004 0.936 0.932 1.022 1.101 1.14 1.147
3926.213 1.054 0.924 0.885 0.873 0.868 0.904 0.972 1.041 1.006 1.019
3945.506 1.051 1.04 1.034 1.066 1.08 0.998 0.967 1.002 1.057 1.023
3964.800 0.994 0.987 1.122 1.227 1.208 1.178 1.146 1.176 1.151 1.201
3984.093 1.231 1.172 1.127 1.074 1.094 1.137 1.185 1.217 1.174
##END=
