##TITLE=Perfluorohexane
##JCAMP-DX=4.24
##DATA TYPE=INFRARED SPECTRUM
##ORIGIN=NIST Mass Spectrometry Data Center
##OWNER=NIST Standard Reference Data Program
Collection (C) 2018 copyright by the U.S. Secretary of Commerce
on behalf of the United States of America. All rights reserved.
##CAS REGISTRY NO=355-42-0
##MOLFORM=C 6 F 14
##$NIST SOURCE=MSDC-IR
##SPECTROMETER/DATA SYSTEM=HP-GC/MS/IRD
##STATE=gas
##XUNITS=1/CM
##YUNITS=ABSORBANCE
##XFACTOR=1.0
##YFACTOR=0.000002200
##DELTAX=4.0
##FIRSTX=550.0
##LASTX=3846.0
##FIRSTY=0.000374
##MAXX=3846
##MINX=550
##MAXY=0.022
##MINY=0
##NPOINTS=825
##XYDATA=(X++(Y..Y))
550.0 170 168 160 184 149 152 201 236 174 155
590.0 150 108 149 106 79 125 111 124 139 149
630.0 208 226 168 118 164 216 191 166 132 106
670.0 65 53 111 78 40 62 60 84 159 337
710.0 561 651 635 681 828 942 969 963 867 606
750.0 344 210 150 89 55 67 69 52 48 83
790.0 135 164 202 223 258 327 386 383 356 320
830.0 314 309 280 308 381 473 505 481 428 361
870.0 268 162 120 110 84 60 40 55 80 92
910.0 112 90 94 111 121 120 64 23 47 72
950.0 83 140 172 165 203 248 290 370 440 445
990.0 387 287 194 146 160 187 177 164 160 128
1030.0 139 194 239 281 312 329 292 272 292 339
1070.0 443 452 351 328 377 434 538 568 488 379
1110.0 319 365 456 579 727 920 1168 1380 1484 1533
1150.0 1482 1252 991 861 854 892 988 1131 1285 1449
1190.0 1633 1888 2221 2564 2837 2998 3024 3031 3176 3526
1230.0 4159 5159 6620 8374 9794 10000 8673 6627 4859 3708
1270.0 2997 2507 2148 1868 1647 1485 1348 1204 1070 948
1310.0 856 819 833 879 947 970 913 797 662 536
1350.0 419 322 255 212 163 135 131 105 80 77
1390.0 64 52 40 38 52 46 26 29 38 41
1430.0 36 43 43 36 39 37 40 57 55 46
1470.0 42 44 36 16 23 31 37 43 48 60
1510.0 42 27 33 45 37 26 33 63 64 41
1550.0 29 40 69 54 43 57 74 59 31 38
1590.0 47 61 52 46 53 43 46 48 49 54
1630.0 44 55 62 51 41 55 61 50 53 49
1670.0 34 36 48 54 52 35 46 69 75 65
1710.0 46 51 64 37 14 35 59 51 44 55
1750.0 52 25 18 35 43 41 35 34 35 37
1790.0 44 42 40 45 35 31 28 30 49 58
1830.0 49 36 33 35 33 39 37 29 35 44
1870.0 40 32 22 19 35 37 33 33 39 45
1910.0 40 40 54 45 34 29 26 35 48 52
1950.0 35 42 49 45 32 22 26 29 41 47
1990.0 33 43 49 36 44 47 48 59 51 43
2030.0 41 42 46 41 37 43 46 41 46 51
2070.0 50 54 41 32 44 53 52 48 63 66
2110.0 46 45 54 55 46 52 65 45 37 30
2150.0 26 36 41 52 52 45 48 57 53 54
2190.0 63 56 50 57 69 64 53 55 55 51
2230.0 60 62 58 57 48 36 35 39 46 50
2270.0 58 65 63 59 53 52 67 63 53 60
2310.0 76 91 88 84 84 81 96 117 97 73
2350.0 85 99 94 92 102 104 106 106 91 79
2390.0 83 84 78 69 54 51 56 56 63 81
2430.0 78 80 90 83 82 91 87 75 84 96
2470.0 85 73 66 52 62 72 68 66 57 61
2510.0 67 53 47 40 37 53 55 49 60 79
2550.0 82 59 57 63 59 51 40 55 51 53
2590.0 47 55 89 76 56 63 52 50 68 52
2630.0 32 43 45 39 36 53 66 62 51 49
2670.0 52 31 37 38 34 31 25 34 35 35
2710.0 36 40 40 41 42 48 61 50 55 44
2750.0 22 51 66 51 30 35 56 39 30 49
2790.0 37 20 21 0 3 36 45 23 34 39
2830.0 25 40 60 50 54 60 48 31 25 36
2870.0 57 88 74 38 15 33 61 45 40 51
2910.0 50 50 53 57 75 64 33 35 40 52
2950.0 66 52 55 88 85 72 84 100 76 52
2990.0 59 76 52 23 32 39 61 85 80 69
3030.0 66 76 95 85 59 49 70 54 29 40
3070.0 58 87 82 65 113 127 84 71 76 75
3110.0 70 78 53 39 66 71 66 73 72 59
3150.0 46 38 79 119 107 81 61 52 54 77
3190.0 66 25 33 63 77 84 54 67 84 76
3230.0 57 63 95 95 91 79 56 62 61 58
3270.0 79 91 100 92 81 107 125 122 106 86
3310.0 98 110 97 110 119 102 109 107 92 81
3350.0 98 140 116 75 103 130 117 98 98 124
3390.0 136 120 123 139 130 112 104 145 149 125
3430.0 105 79 114 106 97 125 113 119 119 93
3470.0 86 99 123 147 159 137 139 150 158 174
3510.0 123 154 194 150 146 137 118 134 138 148
3550.0 147 127 106 105 115 129 123 98 143 158
3590.0 133 136 144 157 177 179 167 131 124 155
3630.0 158 133 121 142 165 166 186 179 152 140
3670.0 157 182 187 166 149 164 152 139 147 167
3710.0 176 140 117 145 162 171 187 187 193 204
3750.0 171 152 159 157 150 142 152 156 128 143
3790.0 135 116 172 179 161 155 146 197 185 145
3830.0 170 160 160 183 166
##END=
