##TITLE=Benzhydryl isothiocyanate
##JCAMP-DX=4.24
##DATA TYPE=INFRARED SPECTRUM
##ORIGIN=EPA-IR VAPOR PHASE LIBRARY
##OWNER=SRD/NIST
Collection (C) 2018 copyright by the U.S. Secretary of Commerce
on behalf of the United States of America. All rights reserved.
##CAS REGISTRY NO=3550-21-8
##MOLFORM=C 14 H 11 N S
##SOURCE REFERENCE=No.301881 (NIST/EPA/NIH MS Database)
##$NIST SOURCE=MSDC-IR
##STATE=gas
##XUNITS=1/CM
##YUNITS=ABSORBANCE
##XFACTOR=1.
##YFACTOR=0.001
##DELTAX=1.92898
##FIRSTX=549.8
##LASTX=4000.7
##FIRSTY=13.288
##MAXX=4000.7
##MINX=549.759
##MAXY=0.426648
##MINY=0
##NPOINTS=1790
##XYDATA=(X++(Y..Y))
549.759 13.288 11.928 10.838 9.938 9.238 8.628 7.758 7.468 7.548 7.548
569.049 7.648 8.128 8.868 9.398 9.888 10.388 11.218 12.168 12.958 14.118
588.339 15.848 18.908 24.568 32.668 41.718 48.538 52.068 53.568 53.418 50.308
607.628 43.278 36.518 32.518 30.508 30.028 30.128 29.978 29.718 29.198 28.548
626.918 28.638 29.068 29.548 30.048 30.148 29.458 27.608 24.658 20.968 17.098
646.208 14.038 11.898 10.728 10.338 10.268 10.498 11.368 12.388 13.368 14.638
665.498 16.278 18.348 20.268 22.368 24.748 27.218 30.108 33.498 37.768 43.548
684.787 51.318 61.068 72.408 84.588 95.808 104.288 108.848 109.138 105.828 99.458
704.077 91.718 84.168 77.778 73.178 70.048 68.328 68.018 68.708 69.578 70.898
723.367 72.358 72.958 72.698 72.328 72.198 72.598 73.898 75.568 77.008 77.138
742.657 75.198 70.868 64.408 56.738 48.488 40.488 33.928 28.468 24.198 21.088
761.947 18.678 16.718 15.228 14.318 13.538 13.148 12.858 12.598 12.528 12.768
781.236 13.248 13.608 14.038 14.348 14.468 14.488 14.718 14.458 13.608 12.908
800.526 12.158 11.178 10.518 10.298 10.218 10.308 10.688 11.198 11.578 11.908
819.816 11.888 11.358 10.448 9.438 8.438 7.588 7.128 6.728 6.468 6.528
839.106 6.758 7.448 8.418 9.878 11.948 14.068 15.928 16.928 17.078 16.578
858.395 15.308 13.598 11.468 9.428 7.858 6.798 6.058 5.338 4.898 4.698
877.685 4.468 4.138 4.008 4.008 3.898 3.828 3.668 3.538 3.668 3.698
896.975 3.648 3.758 3.968 3.988 4.148 4.348 4.418 4.548 4.468 4.408
916.265 4.508 4.548 4.498 4.378 4.328 4.358 4.208 4.108 4.048 3.878
935.555 3.758 3.678 3.628 3.518 3.268 3.198 3.178 3.048 2.938 2.818
954.844 2.718 2.468 2.238 2.258 2.398 2.218 2.048 2.148 2.008 2.048
974.134 2.138 1.958 2.118 2.368 2.338 2.288 2.358 2.458 2.768 3.088
993.424 3.538 4.348 5.218 5.948 6.248 6.318 6.158 5.728 5.168 4.388
1012.714 3.928 4.028 4.888 6.188 7.558 9.778 12.508 14.868 16.238 16.388
1032.003 15.458 13.788 11.188 8.118 5.678 4.308 3.768 3.518 3.398 3.558
1051.293 3.798 4.018 4.408 4.848 5.158 5.678 6.238 6.648 7.068 7.078
1070.583 7.078 7.038 6.658 6.328 5.898 5.338 4.968 4.328 3.768 3.868
1089.873 3.748 3.418 3.268 3.108 2.968 3.058 2.658 2.698 3.268 3.238
1109.163 3.268 3.228 3.158 3.048 2.938 2.888 2.498 2.218 2.408 2.498
1128.452 2.558 2.188 1.928 2.058 2.068 2.338 2.718 2.818 2.658 2.478
1147.742 2.698 3.178 3.278 3.338 3.528 3.728 3.958 4.008 4.318 4.778
1167.032 5.358 5.998 6.598 7.668 8.948 10.298 11.638 12.778 13.338 13.188
1186.322 12.598 11.778 10.408 8.708 7.548 6.558 5.778 5.438 5.268 4.898
1205.611 4.578 4.438 4.348 4.368 4.418 4.618 4.848 4.868 4.918 5.258
1224.901 5.948 6.868 7.498 8.288 9.168 9.728 10.088 10.538 11.288 12.268
1244.191 13.448 14.548 15.418 16.408 17.338 18.128 19.008 20.098 21.198 22.428
1263.481 23.898 25.268 26.968 29.298 31.568 33.468 35.668 38.068 40.468 42.928
1282.771 45.388 47.898 50.358 52.098 52.648 52.218 50.478 47.778 44.628 41.168
1302.060 37.958 35.268 33.318 32.258 31.948 32.098 32.878 34.018 35.138 36.158
1321.350 36.878 37.158 36.978 36.458 35.718 34.928 34.138 33.298 32.298 30.948
1340.640 29.188 26.978 24.388 21.638 18.868 16.198 13.858 11.898 10.318 9.148
1359.930 8.298 7.598 7.038 6.698 6.498 6.388 6.278 6.138 5.968 5.778
1379.219 5.518 5.148 4.728 4.368 3.998 3.678 3.468 3.238 3.038 2.938
1398.509 2.848 2.828 2.838 2.848 2.958 3.048 3.208 3.408 3.598 3.868
1417.799 4.158 4.528 4.988 5.548 6.118 6.808 7.718 8.788 10.038 11.548
1437.089 13.428 15.628 18.318 21.558 25.098 28.768 32.068 34.288 35.108 34.298
1456.378 31.768 28.168 24.298 20.488 17.208 14.698 12.918 11.678 10.868 10.478
1475.668 10.518 10.888 11.698 13.158 15.278 18.208 22.208 26.888 31.588 35.208
1494.958 36.638 35.828 32.938 28.258 22.598 16.858 12.028 8.718 6.658 5.418
1514.248 4.708 4.258 3.918 3.748 3.688 3.588 3.598 3.648 3.638 3.668
1533.538 3.648 3.538 3.528 3.498 3.418 3.358 3.308 3.238 3.218 3.308
1552.827 3.338 3.358 3.478 3.568 3.728 3.908 4.068 4.328 4.608 4.778
1572.117 5.018 5.478 6.078 6.738 7.438 8.158 9.088 10.258 11.498 12.958
1591.407 14.538 15.968 16.938 17.318 17.198 16.568 15.298 13.698 11.868 10.148
1610.697 8.748 7.508 6.458 5.628 5.058 4.638 4.288 4.048 3.918 3.798
1629.986 3.628 3.468 3.358 3.268 3.208 3.188 3.258 3.228 3.148 3.168
1649.276 3.208 3.198 3.178 3.118 3.088 3.048 2.978 2.818 2.708 2.748
1668.566 2.678 2.588 2.528 2.478 2.478 2.498 2.488 2.448 2.448 2.508
1687.856 2.528 2.578 2.598 2.568 2.548 2.608 2.678 2.648 2.648 2.708
1707.146 2.798 2.828 2.858 2.948 3.018 3.068 3.088 3.108 3.218 3.288
1726.435 3.358 3.508 3.588 3.708 3.848 3.968 4.078 4.228 4.418 4.518
1745.725 4.608 4.678 4.608 4.558 4.428 4.288 4.158 3.928 3.768 3.748
1765.015 3.668 3.648 3.738 3.838 3.948 4.078 4.238 4.378 4.548 4.808
1784.305 5.198 5.828 6.548 7.348 8.208 8.828 9.068 8.938 8.468 7.708
1803.594 6.858 6.018 5.278 4.678 4.258 4.038 3.868 3.738 3.648 3.538
1822.884 3.458 3.358 3.188 3.068 2.998 3.018 2.998 2.998 3.108 3.178
1842.174 3.218 3.318 3.488 3.608 3.698 3.988 4.288 4.518 4.808 5.128
1861.464 5.498 5.978 6.438 6.918 7.468 7.908 8.338 8.738 9.088 9.418
1880.754 9.778 10.168 10.528 10.988 11.438 11.878 12.208 12.378 12.478 12.528
1900.043 12.518 12.518 12.628 12.828 13.278 13.858 14.438 15.138 15.968 16.968
1919.333 18.008 19.108 20.388 21.788 23.358 24.998 26.818 28.888 31.048 33.338
1938.623 35.688 38.118 40.658 43.098 45.558 48.158 50.948 54.058 57.538 61.278
1957.913 65.138 68.988 72.908 76.928 80.918 85.148 89.758 94.768 100.328 106.318
1977.202 112.768 119.598 126.748 134.288 142.228 150.538 159.188 168.268 177.698 187.608
1996.492 197.958 208.598 219.648 231.068 242.878 255.028 267.368 280.108 293.138 306.138
2015.782 319.258 332.328 345.168 357.678 369.558 380.908 391.588 401.308 409.758 416.798
2035.072 422.088 425.388 426.648 425.478 421.918 416.178 408.428 398.788 387.758 376.128
2054.362 364.278 352.658 341.708 331.238 321.558 312.488 303.298 293.978 284.238 273.918
2073.651 263.258 252.618 242.248 232.518 223.558 215.618 208.818 202.868 197.818 193.648
2092.941 189.878 186.348 182.878 179.268 175.188 170.548 165.428 159.858 154.068 148.138
2112.231 142.208 136.508 131.188 126.268 121.698 117.418 113.368 109.578 105.958 102.548
2131.521 99.428 96.278 93.348 90.688 88.028 85.558 83.148 80.878 78.838 76.938
2150.810 75.168 73.458 71.798 70.228 68.618 66.958 65.298 63.618 62.038 60.498
2170.100 59.018 57.688 56.438 55.268 54.058 52.698 51.318 49.918 48.408 46.868
2189.390 45.218 43.568 42.008 40.448 38.988 37.598 36.198 34.808 33.398 32.088
2208.680 30.788 29.448 28.128 26.798 25.408 24.058 22.798 21.608 20.498 19.378
2227.970 18.318 17.358 16.468 15.728 14.958 14.188 13.518 12.958 12.398 11.838
2247.259 11.398 11.008 10.648 10.278 9.858 9.448 9.048 8.768 8.508 8.158
2266.549 7.898 7.668 7.348 7.088 6.858 6.618 6.388 6.178 5.978 5.718
2285.839 5.448 5.328 5.168 4.938 4.698 4.528 4.368 4.178 4.068 3.998
2305.129 3.938 3.888 3.848 3.938 4.048 4.078 4.038 3.908 3.728 3.518
2324.418 3.368 3.268 3.168 3.138 3.138 3.238 3.308 3.288 3.318 3.368
2343.708 3.308 3.268 3.238 3.208 3.228 3.268 3.288 3.278 3.288 3.258
2362.998 3.178 3.198 3.268 3.308 3.328 3.298 3.358 3.328 3.188 3.138
2382.288 3.118 3.138 3.048 2.958 2.938 2.878 2.858 2.718 2.618 2.668
2401.578 2.658 2.638 2.668 2.688 2.648 2.628 2.608 2.518 2.468 2.428
2420.867 2.448 2.498 2.468 2.398 2.348 2.278 2.298 2.308 2.238 2.158
2440.157 2.148 2.208 2.278 2.168 2.098 2.108 2.098 2.158 2.218 2.268
2459.447 2.228 2.158 2.158 2.248 2.228 2.228 2.328 2.348 2.358 2.348
2478.737 2.428 2.428 2.408 2.508 2.498 2.548 2.598 2.618 2.678 2.668
2498.026 2.668 2.798 2.798 2.848 2.908 2.868 2.908 3.008 3.098 3.168
2517.316 3.198 3.288 3.398 3.398 3.408 3.478 3.528 3.528 3.588 3.628
2536.606 3.708 3.848 3.888 3.918 3.928 3.958 4.098 4.208 4.308 4.408
2555.896 4.498 4.638 4.738 4.758 4.818 4.888 4.998 5.128 5.078 4.988
2575.186 4.968 4.878 4.778 4.708 4.588 4.458 4.308 4.098 3.958 3.848
2594.475 3.678 3.478 3.418 3.438 3.338 3.198 3.158 3.078 3.058 2.948
2613.765 2.808 2.748 2.648 2.518 2.488 2.468 2.378 2.388 2.348 2.358
2633.055 2.388 2.358 2.378 2.438 2.368 2.278 2.228 2.168 2.148 2.148
2652.345 2.148 2.098 2.048 2.048 2.148 2.168 2.148 2.198 2.248 2.258
2671.634 2.188 2.168 2.118 2.078 2.128 2.158 2.178 2.198 2.238 2.128
2690.924 1.998 2.018 2.008 1.988 1.958 1.938 2.018 2.028 1.958 1.928
2710.214 1.878 1.938 1.968 1.878 1.908 2.028 1.978 1.848 1.898 2.038
2729.504 2.238 2.288 2.168 2.128 2.218 2.308 2.338 2.348 2.338 2.368
2748.794 2.488 2.578 2.578 2.638 2.668 2.698 2.798 2.808 2.738 2.808
2768.083 2.948 3.038 3.128 3.198 3.228 3.208 3.178 3.278 3.328 3.338
2787.373 3.408 3.338 3.258 3.228 3.228 3.248 3.248 3.238 3.258 3.328
2806.663 3.298 3.258 3.378 3.428 3.368 3.338 3.338 3.448 3.508 3.458
2825.953 3.528 3.568 3.498 3.468 3.478 3.658 3.748 3.668 3.618 3.498
2845.242 3.448 3.478 3.498 3.428 3.228 3.248 3.348 3.378 3.428 3.388
2864.532 3.348 3.398 3.418 3.508 3.618 3.718 3.818 3.928 4.038 4.298
2883.822 4.618 4.768 5.038 5.588 6.198 6.908 7.778 8.658 9.678 10.728
2903.112 11.618 12.328 12.768 12.768 12.328 11.838 11.208 10.078 9.018 8.168
2922.401 7.278 6.628 6.138 5.568 5.168 4.848 4.628 4.468 4.178 4.078
2941.691 4.008 3.828 3.578 3.338 3.238 3.088 2.978 2.968 2.828 2.668
2960.981 2.668 2.598 2.418 2.438 2.438 2.408 2.468 2.398 2.388 2.478
2980.271 2.528 2.568 2.658 2.788 2.898 2.998 3.098 3.228 3.358 3.588
2999.561 4.018 4.528 5.038 5.778 6.498 7.258 8.218 9.368 10.548 11.998
3018.850 14.028 16.388 19.298 22.828 26.998 31.518 35.738 39.498 42.418 43.708
3038.140 43.258 41.538 38.858 35.638 32.458 29.708 27.608 26.538 26.378 26.778
3057.430 28.018 30.418 33.888 38.698 44.928 51.798 58.328 63.328 65.828 65.208
3076.720 61.688 56.108 49.318 42.558 37.148 33.508 31.188 29.628 28.518 27.308
3096.009 25.598 23.848 22.048 20.168 18.478 16.858 15.388 13.928 12.648 11.348
3115.299 9.748 8.298 6.998 5.798 4.928 4.208 3.658 3.218 2.758 2.478
3134.589 2.358 2.178 1.988 1.858 1.598 1.3812 1.3416 1.3543 1.4443 1.4761
3153.879 1.3149 1.3304 1.3993 1.4309 1.5159 1.4379 1.4358 1.5534 1.535 1.4107
3173.169 1.2798 1.2715 1.1602 0.9682 0.7711 0.7353 0.7293 0.60883 0.6796 0.8102
3192.458 0.7745 0.591213 0.4968 0.429 0.4937 0.5238 0.437 0.5233 0.5472 0.465
3211.748 0.4886 0.5085 0.4933 0.4895 0.323 0.223 0.286 0.346 0.355 0.377
3231.038 0.347 0.269 0.389 0.465 0.393 0.357 0.372 0.312 0.183 0.257
3250.328 0.327 0.372 0.468 0.293 0.226 0.31 0.386 0.373 0.271 0.327
3269.617 0.328 0.325 0.358 0.332 0.335 0.283 0.226 0.236 0.16 0.119
3288.907 0.093 0.235 0.471 0.415 0.448 0.411 0.224 0.35 0.375 0.305
3308.197 0.247 0.197 0.21 0.137 0.212 0.257 0.132 0.159 0.341 0.392
3327.487 0.325 0.251 0.197 0.236 0.241 0.234 0.239 0.336 0.258 0.054
3346.777 0.089 0.257 0.404 0.475 0.409 0.382 0.439 0.325 0.26 0.329
3366.066 0.396 0.367 0.181 0.202 0.357 0.266 0.185 0.161 0.122 0.258
3385.356 0.33 0.326 0.387 0.378 0.372 0.3 0.124 0 0.144 0.376
3404.646 0.394 0.337 0.335 0.34 0.457 0.469 0.395 0.334 0.268 0.255
3423.936 0.321 0.278 0.328 0.5609 0.5211 0.35 0.225 0.376 0.261 0.135
3443.225 0.416 0.449 0.5314 0.5089 0.357 0.314 0.21 0.16 0.272 0.45
3462.515 0.376 0.371 0.397 0.364 0.392 0.419 0.444 0.388 0.457 0.5681
3481.805 0.45 0.42 0.356 0.24 0.303 0.238 0.271 0.38 0.296 0.231
3501.095 0.352 0.271 0.177 0.389 0.326 0.268 0.395 0.407 0.302 0.422
3520.385 0.5723 0.4942 0.367 0.259 0.354 0.462 0.506 0.60667 0.57801 0.5098
3539.674 0.417 0.281 0.336 0.32 0.386 0.596773 0.5061 0.505 0.46 0.414
3558.964 0.416 0.25 0.283 0.372 0.345 0.269 0.356 0.48 0.5089 0.4948
3578.254 0.377 0.323 0.418 0.346 0.243 0.148 0.177 0.257 0.387 0.411
3597.544 0.329 0.376 0.363 0.326 0.412 0.448 0.366 0.408 0.458 0.5094
3616.833 0.61138 0.6916 0.63284 0.444 0.449 0.63345 0.59992 0.5137 0.4994 0.58397
3636.123 0.7523 0.7873 0.7017 0.7563 0.9039 0.8623 0.8442 0.9261 0.9626 0.947
3655.413 1.0165 1.0579 0.9817 0.9969 1.0075 0.9259 0.7104 0.62948 0.8064 0.8497
3674.703 0.7469 0.6983 0.8411 1.0272 1.0264 0.9021 0.9278 0.9023 0.9416 1.1004
3693.993 0.9855 1.0343 1.0487 0.867 0.775 0.7644 0.7472 0.7784 0.9839 1.1049
3713.282 1.0384 0.9592 0.915 0.9382 0.837 0.65904 0.5691 0.5655 0.62653 0.7186
3732.572 0.7745 0.65749 0.5605 0.58021 0.658 0.736 0.6881 0.5421 0.5217 0.8267
3751.862 0.9138 0.60104 0.5036 0.5566 0.60305 0.5686 0.5193 0.447 0.481 0.636
3771.152 0.7302 0.7363 0.5662 0.508 0.61502 0.58878 0.472 0.5433 0.61973 0.6332
3790.441 0.7042 0.7164 0.67483 0.74 0.58668 0.5867 0.7154 0.5682 0.63632 0.63359
3809.731 0.65451 0.749 0.68203 0.7217 0.7641 0.7524 0.7735 0.63857 0.60554 0.7126
3829.021 0.67218 0.7366 0.7624 0.66214 0.6908 0.5734 0.65197 0.8584 0.7689 0.7591
3848.311 0.67603 0.7055 0.8679 0.9292 0.934 0.7269 0.7282 0.8653 0.8525 1.0072
3867.601 0.942 0.9282 0.9345 0.8403 0.9965 1.072 1.0455 1.0186 1.0119 1.1056
3886.890 1.1085 0.8976 0.7787 0.8975 1.0112 1.0156 1.1711 1.2161 1.0432 0.9455
3906.180 1.1648 1.2701 1.1717 1.3473 1.3772 1.424 1.5367 1.3304 1.3562 1.3868
3925.470 1.3117 1.3074 1.3488 1.5591 1.5155 1.4615 1.5331 1.5697 1.4928 1.4537
3944.760 1.5239 1.3619 1.3611 1.5637 1.608 1.588 1.5817 1.668 1.628 1.571
3964.049 1.808 1.928 1.968 1.918 1.748 1.778 1.918 1.908 1.898 1.928
3983.339 1.958 2.008 2.198 2.248 2.098 2.098 2.158 2.118 2.078 2.208
##END=
