##TITLE=4-Pyrrolidinobutyronitrile
##JCAMP-DX=4.24
##DATA TYPE=INFRARED SPECTRUM
##ORIGIN=EPA-IR VAPOR PHASE LIBRARY
##OWNER=SRD/NIST
Collection (C) 2018 copyright by the U.S. Secretary of Commerce
on behalf of the United States of America. All rights reserved.
##CAS REGISTRY NO=35543-25-0
##MOLFORM=C 8 H 14 N 2
##$NIST SOURCE=MSDC-IR
##STATE=gas
##XUNITS=1/CM
##YUNITS=ABSORBANCE
##XFACTOR=1.
##YFACTOR=0.001
##DELTAX=1.92934
##FIRSTX=549.9
##LASTX=3999.5
##FIRSTY=1.0661
##MAXX=3999.53
##MINX=549.863
##MAXY=0.056093
##MINY=0
##NPOINTS=1789
##XYDATA=(X++(Y..Y))
549.863 1.0661 0.9604 0.8594 0.7973 0.663 0.6442 0.6481 0.5639 0.656 0.7092
569.156 0.5171 0.5104 0.5701 0.7126 0.7846 0.6347 0.5986 0.5558 0.6298 0.6591
588.450 0.5643 0.4927 0.5161 0.5856 0.5804 0.5484 0.5384 0.6189 0.6525 0.5948
607.743 0.43434 0.2997 0.37805 0.44736 0.5376 0.5539 0.43358 0.44447 0.4875 0.4688
627.037 0.35942 0.35949 0.4632 0.372654 0.3152 0.42191 0.42768 0.39671 0.35996 0.368682
646.330 0.366107 0.2707 0.2947 0.3502 0.3114 0.263 0.2858 0.253 0.252 0.2961
665.624 0.2993 0.37493 0.37699 0.38125 0.44214 0.41556 0.43276 0.43129 0.40221 0.40233
684.917 0.399 0.43866 0.4967 0.5158 0.5528 0.5424 0.5245 0.5835 0.5941 0.5556
704.210 0.5351 0.5427 0.6039 0.6504 0.6591 0.6988 0.6884 0.683 0.7294 0.7722
723.504 0.7796 0.7521 0.7626 0.7611 0.7155 0.7019 0.7303 0.7235 0.696 0.7602
742.797 0.9062 0.9235 0.8658 0.8842 0.9287 1.0203 1.0923 1.1462 1.2093 1.2126
762.091 1.1806 1.1339 1.0976 1.0825 1.0408 1.0641 1.0294 0.8992 0.9208 0.9164
781.384 0.8488 0.7997 0.8194 0.8614 0.7811 0.7942 0.8989 0.9171 0.9027 0.893
800.678 0.9035 0.9472 0.9308 0.9677 1.1052 1.0321 1.0573 1.2242 1.2289 1.3182
819.971 1.453 1.503 1.553 1.603 1.693 1.873 2.003 2.123 2.293 2.453
839.264 2.613 2.653 2.753 2.913 3.043 3.143 3.163 3.243 3.353 3.433
858.558 3.483 3.533 3.563 3.643 3.733 3.703 3.563 3.443 3.433 3.383
877.851 3.243 3.073 2.953 2.843 2.773 2.673 2.573 2.563 2.613 2.623
897.145 2.663 2.783 2.853 2.863 2.853 2.743 2.643 2.543 2.383 2.233
916.438 2.083 1.943 1.823 1.743 1.713 1.723 1.703 1.613 1.593 1.653
935.732 1.653 1.693 1.693 1.683 1.693 1.653 1.593 1.613 1.623 1.633
955.025 1.713 1.723 1.733 1.823 1.913 2.003 2.063 2.123 2.273 2.383
974.318 2.433 2.423 2.343 2.233 2.173 2.113 2.053 2.003 1.823 1.623
993.612 1.523 1.463 1.483 1.533 1.513 1.503 1.553 1.613 1.693 1.763
1012.905 1.853 1.953 2.043 2.103 2.183 2.313 2.383 2.503 2.653 2.773
1032.199 2.903 2.963 3.013 3.113 3.203 3.243 3.343 3.493 3.593 3.603
1051.492 3.623 3.773 3.913 3.913 3.893 3.923 3.883 3.843 3.823 3.723
1070.786 3.663 3.603 3.543 3.493 3.413 3.373 3.323 3.273 3.233 3.163
1090.079 3.193 3.283 3.283 3.323 3.443 3.603 3.833 4.043 4.343 4.673
1109.372 5.003 5.513 6.113 6.743 7.453 8.233 9.063 9.963 10.863 11.683
1128.666 12.403 13.123 13.783 14.323 14.713 14.883 14.923 14.883 14.743 14.573
1147.959 14.353 13.983 13.503 13.013 12.473 11.893 11.293 10.753 10.263 9.843
1167.253 9.463 9.153 8.923 8.663 8.413 8.233 8.063 7.883 7.723 7.553
1186.546 7.453 7.363 7.283 7.303 7.353 7.353 7.333 7.363 7.473 7.533
1205.840 7.633 7.723 7.783 7.763 7.693 7.713 7.703 7.643 7.583 7.513
1225.133 7.453 7.403 7.363 7.343 7.333 7.373 7.383 7.333 7.303 7.243
1244.426 7.113 6.973 6.773 6.573 6.323 6.033 5.743 5.483 5.283 5.053
1263.720 4.883 4.723 4.593 4.573 4.523 4.503 4.603 4.683 4.803 4.963
1283.013 5.013 5.143 5.283 5.383 5.463 5.453 5.493 5.503 5.463 5.433
1302.307 5.373 5.273 5.223 5.213 5.203 5.243 5.343 5.493 5.683 5.913
1321.600 6.183 6.433 6.713 7.093 7.533 8.063 8.673 9.453 10.263 11.053
1340.894 11.943 12.623 13.083 13.393 13.433 13.193 12.663 11.823 10.813 9.773
1360.187 8.753 7.763 6.903 6.313 5.873 5.603 5.513 5.483 5.553 5.653
1379.480 5.743 5.773 5.763 5.723 5.643 5.443 5.183 4.903 4.543 4.163
1398.774 3.773 3.463 3.323 3.153 2.943 2.873 2.923 2.993 3.093 3.263
1418.067 3.473 3.743 4.003 4.383 4.933 5.403 5.833 6.243 6.583 6.793
1437.361 6.953 7.203 7.553 7.883 8.113 8.303 8.513 8.743 8.923 9.043
1456.654 9.033 8.803 8.443 7.963 7.403 6.853 6.233 5.623 5.103 4.663
1475.948 4.313 3.913 3.593 3.373 3.113 2.953 2.833 2.653 2.463 2.323
1495.241 2.213 2.093 1.913 1.773 1.673 1.483 1.362 1.373 1.3599 1.242
1514.534 1.1295 1.0509 0.9392 0.8973 0.9006 0.8708 0.8815 0.816 0.7607 0.746
1533.828 0.7016 0.7045 0.6286 0.5575 0.6006 0.6014 0.5769 0.566 0.589 0.5873
1553.121 0.547 0.562 0.5592 0.5088 0.4871 0.512 0.5033 0.4663 0.44757 0.42989
1572.415 0.41492 0.43211 0.4871 0.5173 0.4846 0.4825 0.44403 0.44084 0.4711 0.38832
1591.708 0.365785 0.39885 0.43695 0.4719 0.44842 0.4463 0.5168 0.5098 0.43981 0.40885
1611.002 0.38802 0.44645 0.4335 0.31 0.35437 0.38004 0.3075 0.2806 0.249 0.2649
1630.295 0.3361 0.3343 0.3219 0.3175 0.2764 0.3119 0.3347 0.2828 0.29 0.2843
1649.588 0.2641 0.178 0.147 0.2632 0.3265 0.3456 0.3104 0.3008 0.3108 0.2748
1668.882 0.243 0.306 0.38439 0.37913 0.37998 0.36034 0.3222 0.2848 0.2659 0.3294
1688.175 0.35387 0.37723 0.39116 0.3016 0.242 0.19 0.104 0.2 0.2691 0.241
1707.469 0.245 0.24 0.246 0.221 0.171 0.149 0.13 0.172 0.183 0.156
1726.762 0.172 0.162 0.176 0.154 0.106 0.109 0.103 0.11 0.132 0.145
1746.056 0.173 0.156 0.163 0.199 0.177 0.145 0.127 0.13 0.145 0.197
1765.349 0.216 0.182 0.146 0.122 0.154 0.179 0.206 0.198 0.153 0.127
1784.642 0.162 0.215 0.229 0.251 0.24 0.236 0.204 0.141 0.158 0.197
1803.936 0.192 0.225 0.234 0.176 0.164 0.142 0.102 0.13 0.134 0.111
1823.229 0.13 0.097 0.083 0.1 0.112 0.133 0.141 0.132 0.093 0.099
1842.523 0.109 0.077 0.074 0.085 0.119 0.163 0.157 0.097 0.066 0.076
1861.816 0.085 0.104 0.113 0.121 0.109 0.146 0.2 0.149 0.094 0.066
1881.110 0.065 0.083 0.13 0.162 0.132 0.156 0.137 0.063 0.104 0.14
1900.403 0.122 0.134 0.118 0.099 0.097 0.129 0.112 0.08 0.08 0.091
1919.696 0.102 0.097 0.117 0.118 0.115 0.152 0.182 0.209 0.177 0.128
1938.990 0.144 0.138 0.134 0.157 0.185 0.165 0.131 0.095 0.075 0.109
1958.283 0.144 0.105 0.095 0.158 0.154 0.127 0.145 0.156 0.167 0.156
1977.577 0.165 0.148 0.155 0.204 0.218 0.205 0.209 0.214 0.176 0.217
1996.870 0.201 0.169 0.193 0.204 0.211 0.199 0.203 0.234 0.236 0.223
2016.164 0.204 0.221 0.211 0.188 0.183 0.148 0.158 0.147 0.132 0.142
2035.457 0.141 0.135 0.129 0.165 0.18 0.165 0.171 0.157 0.129 0.081
2054.750 0.091 0.131 0.119 0.1 0.144 0.171 0.151 0.186 0.151 0.096
2074.044 0.085 0.091 0.13 0.12 0.115 0.138 0.144 0.1 0.117 0.16
2093.337 0.128 0.106 0.127 0.114 0.118 0.145 0.139 0.136 0.102 0.096
2112.631 0.127 0.12 0.117 0.135 0.136 0.15 0.166 0.123 0.137 0.151
2131.924 0.081 0.075 0.089 0.128 0.123 0.078 0.08 0.093 0.105 0.101
2151.218 0.066 0.065 0.084 0.091 0.077 0.063 0.115 0.149 0.146 0.144
2170.511 0.162 0.165 0.14 0.138 0.167 0.153 0.123 0.142 0.161 0.204
2189.804 0.225 0.23 0.244 0.241 0.2662 0.2725 0.2667 0.26 0.235 0.257
2209.098 0.238 0.164 0.185 0.249 0.252 0.242 0.245 0.2844 0.3447 0.39249
2228.391 0.4409 0.519 0.6252 0.7362 0.8518 0.9869 1.1236 1.2774 1.473 1.573
2247.685 1.623 1.663 1.703 1.653 1.543 1.453 1.3225 1.1067 0.8948 0.7673
2266.978 0.6498 0.5372 0.45036 0.37355 0.35759 0.3493 0.36865 0.41045 0.37624 0.3468
2286.272 0.36522 0.37591 0.37792 0.3351 0.3208 0.35561 0.3195 0.296 0.35376 0.3327
2305.565 0.3294 0.39835 0.39116 0.3208 0.2735 0.257 0.259 0.2951 0.2914 0.242
2324.858 0.268 0.2945 0.22 0.184 0.196 0.18 0.201 0.217 0.201 0.188
2344.152 0.179 0.168 0.173 0.262 0.2917 0.224 0.207 0.197 0.177 0.152
2363.445 0.134 0.156 0.194 0.231 0.274 0.2878 0.256 0.263 0.2751 0.221
2382.739 0.22 0.236 0.243 0.2852 0.2863 0.2665 0.234 0.221 0.22 0.228
2402.032 0.214 0.175 0.156 0.13 0.13 0.147 0.105 0.108 0.16 0.174
2421.326 0.174 0.15 0.138 0.148 0.121 0.114 0.122 0.134 0.148 0.105
2440.619 0.089 0.126 0.107 0.105 0.133 0.133 0.13 0.139 0.126 0.134
2459.912 0.129 0.061 0.113 0.162 0.11 0.058 0.067 0.127 0.162 0.16
2479.206 0.169 0.205 0.217 0.226 0.26 0.2838 0.256 0.24 0.2646 0.2792
2498.499 0.3054 0.2995 0.2752 0.2725 0.2951 0.3168 0.3337 0.3139 0.2703 0.2776
2517.793 0.2956 0.3186 0.2902 0.238 0.247 0.22 0.223 0.2751 0.3401 0.38111
2537.086 0.3452 0.3276 0.3206 0.35903 0.41269 0.465 0.4948 0.5121 0.5069 0.4789
2556.380 0.532 0.6168 0.6042 0.5648 0.6041 0.618 0.6067 0.6445 0.7093 0.767
2575.673 0.8285 0.8577 0.8582 0.8573 0.8156 0.8465 0.8886 0.8884 0.9283 0.9299
2594.966 0.9023 0.9348 0.981 1.009 1.0906 1.1766 1.2208 1.1918 1.2163 1.3581
2614.260 1.373 1.383 1.423 1.463 1.523 1.573 1.643 1.753 1.873 1.893
2633.553 1.973 2.013 2.033 2.073 2.073 2.033 2.043 2.113 2.123 2.163
2652.847 2.263 2.343 2.473 2.503 2.473 2.533 2.643 2.763 2.833 2.923
2672.140 3.003 3.043 3.143 3.243 3.323 3.413 3.573 3.703 3.723 3.773
2691.434 3.903 3.963 3.973 4.033 4.063 4.073 4.163 4.263 4.353 4.433
2710.727 4.413 4.403 4.523 4.673 4.843 5.033 5.273 5.463 5.783 6.213
2730.020 6.503 6.773 7.133 7.593 8.013 8.403 8.873 9.333 9.683 10.013
2749.314 10.413 10.883 11.373 11.743 12.103 12.533 12.983 13.573 14.243 15.053
2768.607 16.003 17.123 18.593 20.243 21.963 24.043 26.283 28.613 31.063 33.573
2787.901 36.013 38.253 40.183 41.733 42.983 43.783 44.123 44.023 43.493 42.553
2807.194 41.283 39.773 38.053 36.023 33.773 31.453 29.183 27.073 24.923 22.793
2826.488 20.853 19.043 17.453 16.033 14.813 13.803 12.943 12.253 11.623 11.093
2845.781 10.693 10.383 10.153 9.983 9.893 9.863 9.883 10.073 10.293 10.593
2865.074 11.153 11.893 12.673 13.533 14.683 16.013 17.213 18.523 19.793 20.633
2884.368 21.233 21.733 22.023 22.073 22.043 21.923 21.713 21.503 21.553 21.803
2903.661 22.163 22.673 23.193 23.843 24.553 25.203 25.833 26.483 27.143 27.813
2922.955 28.503 29.083 29.743 30.673 31.773 32.873 34.073 35.293 36.653 38.093
2942.248 39.073 40.163 41.603 43.023 44.503 45.863 47.373 49.063 50.703 52.353
2961.542 53.763 54.823 55.573 56.093 56.073 55.543 54.413 52.333 49.353 45.503
2980.835 41.183 36.753 32.323 27.783 23.543 19.853 16.643 14.083 11.993 10.343
3000.128 9.153 8.183 7.313 6.603 6.053 5.673 5.363 4.943 4.593 4.293
3019.422 3.953 3.723 3.553 3.283 3.123 3.003 2.723 2.513 2.273 2.073
3038.715 1.943 1.903 1.813 1.633 1.413 1.2557 1.2941 1.2838 1.2071 1.1074
3058.009 0.9681 0.8643 0.795 0.8368 0.9005 0.8318 0.7811 0.6863 0.6485 0.7091
3077.302 0.6554 0.5547 0.5189 0.40547 0.38148 0.39015 0.3442 0.45009 0.512 0.347
3096.596 0.3422 0.3055 0.181 0.254 0.4111 0.43121 0.224 0.161 0.3024 0.35355
3115.889 0.3204 0.37845 0.43167 0.37886 0.3036 0.2889 0.216 0.145 0.233 0.181
3135.182 0.14 0.178 0.146 0.245 0.2749 0.171 0.038 0.036 0.232 0.2829
3154.476 0.226 0.165 0.21 0.4648 0.42418 0.3258 0.367885 0.2734 0.2667 0.259
3173.769 0.248 0.37381 0.2858 0.229 0.42119 0.4352 0.44006 0.46274 0.38834 0.35947
3193.063 0.38987 0.39913 0.35881 0.2695 0.228 0.209 0.101 0.111 0.018 0
3212.356 0.096 0.16 0.199 0.215 0.17 0.126 0.23 0.221 0.199 0.177
3231.650 0.16 0.074 0.134 0.223 0.219 0.139 0.227 0.39872 0.203 0.195
3250.943 0.2744 0.3034 0.3342 0.326 0.3164 0.122 0.091 0.253 0.195 0.155
3270.236 0.258 0.39078 0.3468 0.235 0.3277 0.259 0.141 0.19 0.2678 0.28
3289.530 0.35656 0.39896 0.155 0.091 0.2796 0.2 0.239 0.369193 0.3341 0.3433
3308.823 0.226 0.38573 0.5376 0.43433 0.5092 0.5721 0.3982 0.33 0.3133 0.221
3328.117 0.262 0.221 0.203 0.2 0.217 0.3326 0.2732 0.249 0.2724 0.347
3347.410 0.4705 0.43716 0.3116 0.225 0.25 0.38099 0.4855 0.3782 0.2939 0.2726
3366.704 0.232 0.173 0.142 0.2686 0.178 0.074 0.071 0.123 0.3154 0.2968
3385.997 0.2741 0.3022 0.3479 0.3405 0.372035 0.44142 0.2987 0.2776 0.362277 0.221
3405.290 0.159 0.2728 0.3265 0.3042 0.243 0.2691 0.3278 0.363548 0.2653 0.211
3424.584 0.264 0.243 0.172 0.093 0.2 0.263 0.231 0.259 0.238 0.238
3443.877 0.246 0.2737 0.3076 0.215 0.149 0.103 0.168 0.2845 0.3024 0.35586
3463.171 0.39318 0.2876 0.213 0.2806 0.2697 0.236 0.238 0.3162 0.2849 0.174
3482.464 0.157 0.186 0.212 0.165 0.17 0.189 0.226 0.41176 0.4703 0.38828
3501.758 0.2798 0.203 0.363649 0.4707 0.41473 0.3511 0.37981 0.3116 0.252 0.2871
3521.051 0.238 0.363137 0.51 0.4709 0.39164 0.4745 0.4853 0.2806 0.2632 0.197
3540.344 0.182 0.40081 0.44794 0.2942 0.178 0.116 0.24 0.3138 0.309 0.39233
3559.638 0.38406 0.46139 0.4911 0.40039 0.40743 0.2923 0.177 0.169 0.212 0.234
3578.931 0.106 0.088 0.214 0.2874 0.26 0.3119 0.3286 0.175 0.084 0.189
3598.225 0.2799 0.238 0.232 0.198 0.146 0.182 0.258 0.2775 0.175 0.147
3617.518 0.154 0.182 0.2972 0.2776 0.076 0.103 0.3274 0.3034 0.255 0.2794
3636.812 0.212 0.171 0.12 0.082 0.181 0.201 0.173 0.117 0.062 0.21
3656.105 0.213 0.173 0.239 0.176 0.177 0.154 0.071 0.103 0.195 0.2758
3675.398 0.197 0.128 0.241 0.3201 0.2881 0.145 0.021 0.031 0.006 0.003
3694.692 0.083 0.181 0.234 0.231 0.136 0.159 0.224 0.214 0.19 0.18
3713.985 0.249 0.221 0.169 0.218 0.207 0.186 0.2962 0.241 0.126 0.097
3733.279 0.139 0.182 0.111 0.128 0.204 0.147 0.061 0.119 0.183 0.2704
3752.572 0.3193 0.3142 0.198 0.053 0.11 0.209 0.2784 0.257 0.173 0.181
3771.866 0.145 0.158 0.233 0.189 0.147 0.087 0.032 0.158 0.239 0.249
3791.159 0.21 0.172 0.183 0.196 0.184 0.126 0.147 0.131 0.115 0.107
3810.452 0.199 0.3067 0.225 0.093 0.125 0.128 0.089 0.174 0.182 0.168
3829.746 0.2 0.147 0.035 0.071 0.096 0.048 0.113 0.121 0.08 0.091
3849.039 0.178 0.189 0.098 0.15 0.177 0.117 0.092 0.065 0.128 0.134
3868.333 0.083 0.076 0.063 0.052 0.087 0.166 0.167 0.192 0.181 0.089
3887.626 0.113 0.119 0.114 0.179 0.161 0.099 0.201 0.173 0.041 0.083
3906.920 0.169 0.257 0.239 0.238 0.2672 0.2687 0.2992 0.2911 0.173 0.172
3926.213 0.189 0.103 0.095 0.139 0.129 0.15 0.18 0.085 0.014 0.104
3945.506 0.119 0.052 0.102 0.114 0.121 0.15 0.153 0.155 0.17 0.173
3964.800 0.206 0.2762 0.211 0.069 0.138 0.152 0.095 0.183 0.168 0.164
3984.093 0.14 0.104 0.159 0.116 0.141 0.196 0.11 0.149 0.228
##END=
