##TITLE=2-Phenoxynicotinic acid
##JCAMP-DX=4.24
##DATA TYPE=INFRARED SPECTRUM
##ORIGIN=EPA-IR VAPOR PHASE LIBRARY
##OWNER=SRD/NIST
Collection (C) 2018 copyright by the U.S. Secretary of Commerce
on behalf of the United States of America. All rights reserved.
##CAS REGISTRY NO=35620-71-4
##MOLFORM=C 12 H 9 N O 3
##$NIST SOURCE=MSDC-IR
##STATE=gas
##XUNITS=1/CM
##YUNITS=ABSORBANCE
##XFACTOR=1.
##YFACTOR=0.001
##DELTAX=1.929
##FIRSTX=549.8
##LASTX=4000.8
##FIRSTY=4.306
##MAXX=4000.75
##MINX=549.766
##MAXY=0.078956
##MINY=0
##NPOINTS=1790
##XYDATA=(X++(Y..Y))
549.766 4.306 4.546 4.746 4.826 4.966 5.236 5.376 5.666 5.806 5.736
569.056 5.916 6.066 6.246 6.386 6.286 6.096 6.356 6.596 6.276 6.016
588.346 5.976 6.076 5.676 5.006 4.656 4.496 4.456 4.366 4.026 3.676
607.636 3.706 3.706 3.656 3.716 3.696 3.926 4.306 4.546 4.936 5.756
626.926 6.636 7.086 7.336 7.436 7.546 7.386 6.636 5.996 5.326 4.806
646.216 4.566 4.356 4.256 4.076 3.716 3.496 3.576 3.506 3.266 3.306
665.506 3.396 3.416 3.486 3.476 3.626 3.786 4.086 4.696 5.456 6.026
684.796 6.396 6.626 6.736 6.646 6.136 5.376 4.676 4.286 3.966 3.706
704.086 3.636 3.646 3.696 3.746 4.016 4.466 4.976 5.516 6.336 7.346
723.376 8.226 9.166 10.106 11.016 11.586 11.746 11.626 11.016 10.266 9.716
742.666 9.036 8.396 7.966 7.616 7.426 7.326 7.306 7.336 7.426 7.696
761.956 8.156 8.936 9.866 10.626 11.616 12.536 13.126 13.316 12.966 12.496
781.246 12.076 11.606 11.146 10.716 10.256 9.836 9.326 8.626 7.946 7.336
800.536 6.846 6.426 5.886 5.476 5.266 5.076 4.886 4.766 4.686 4.606
819.826 4.426 4.166 3.816 3.336 2.946 2.756 2.546 2.426 2.266 2.046
839.116 1.866 1.786 1.806 1.776 1.736 1.666 1.516 1.456 1.606 1.626
858.406 1.526 1.476 1.486 1.596 1.696 1.806 1.986 2.166 2.386 2.836
877.696 3.476 4.306 5.416 6.706 7.946 8.986 9.766 10.306 10.516 10.356
896.986 9.956 9.376 8.796 8.146 7.396 6.546 5.586 4.596 3.636 2.846
916.276 2.216 1.916 1.806 1.596 1.446 1.3726 1.3471 1.2923 1.2026 1.1945
935.566 1.1479 1.1102 1.0399 0.9729 0.998 0.9507 0.9721 0.9983 0.9604 0.9921
954.856 1.0391 1.0487 1.014 0.9641 1.0216 1.1195 1.2154 1.2998 1.3864 1.476
974.146 1.476 1.423 1.3888 1.3031 1.2719 1.2723 1.2594 1.3307 1.3614 1.4039
993.436 1.3964 1.466 1.646 1.866 2.086 2.246 2.446 2.586 2.746 2.966
1012.726 3.296 3.766 4.286 5.026 5.716 6.106 6.396 6.596 6.836 7.096
1032.016 7.466 8.286 9.356 10.506 11.686 12.456 12.856 12.796 12.246 11.436
1051.306 10.486 9.616 9.006 8.576 8.286 8.136 8.116 8.156 8.076 8.036
1070.596 8.036 7.846 7.516 7.266 7.016 6.796 6.616 6.546 6.446 6.286
1089.886 6.246 6.226 6.126 6.136 6.306 6.666 7.386 8.376 9.716 11.426
1109.176 13.276 15.076 16.376 17.356 18.276 18.306 17.276 15.866 14.306 12.476
1128.467 10.806 9.326 8.116 7.286 6.746 6.516 6.316 6.276 6.516 6.786
1147.757 7.306 8.166 9.286 10.816 12.466 13.786 14.476 14.826 15.026 14.846
1167.047 14.466 14.366 14.756 15.626 17.006 18.496 19.856 20.986 21.846 22.456
1186.337 22.886 23.086 23.286 23.686 23.996 24.406 25.046 25.446 25.406 25.016
1205.627 24.036 22.646 21.326 20.396 20.026 20.116 20.666 21.626 22.966 24.546
1224.917 26.406 28.416 30.516 32.646 34.586 36.406 38.036 39.366 40.366 40.876
1244.207 40.856 40.336 39.096 37.356 35.166 32.616 29.966 27.316 24.956 23.166
1263.497 21.896 21.296 21.536 22.286 23.466 25.046 26.746 28.406 29.816 30.796
1282.787 31.196 31.026 30.326 29.186 27.976 26.646 25.286 24.036 22.866 21.816
1302.077 20.846 20.036 19.326 18.686 18.176 17.716 17.196 16.756 16.386 16.016
1321.367 15.616 15.256 14.936 14.726 14.666 14.646 14.686 14.756 14.946 15.296
1340.657 15.666 16.126 16.666 17.116 17.576 18.086 18.556 18.986 19.456 19.866
1359.947 20.276 20.726 21.086 21.386 21.636 21.786 21.766 21.556 21.176 20.646
1379.237 19.876 18.936 17.956 16.896 15.806 14.846 14.006 13.326 12.826 12.716
1398.527 12.976 13.596 14.826 16.796 19.636 23.566 28.776 35.426 43.126 51.266
1417.817 59.066 66.576 72.966 77.396 78.956 77.256 72.866 66.726 58.936 49.756
1437.107 39.656 30.746 23.686 18.476 15.016 12.936 11.756 11.046 10.536 10.196
1456.397 9.886 9.436 8.846 8.236 7.746 7.276 6.876 6.706 6.696 6.926
1475.687 7.466 8.326 9.776 12.056 15.106 18.836 22.726 25.566 26.696 26.286
1494.977 24.456 21.236 16.936 12.616 9.386 7.346 6.016 5.076 4.446 3.986
1514.267 3.676 3.446 3.276 3.126 2.996 2.856 2.806 2.816 2.726 2.766
1533.557 2.916 2.976 3.156 3.346 3.506 3.806 4.256 4.736 5.326 6.096
1552.847 6.996 8.156 9.586 11.486 13.776 16.296 19.326 22.706 26.116 29.396
1572.137 32.146 34.166 35.336 35.566 35.096 33.996 32.626 31.286 30.016 28.726
1591.427 27.356 25.726 23.746 21.406 18.746 15.966 13.296 10.816 8.746 7.076
1610.717 5.826 4.976 4.346 3.866 3.466 3.136 2.906 2.706 2.566 2.406
1630.007 2.226 2.106 2.026 1.906 1.806 1.736 1.636 1.586 1.596 1.646
1649.297 1.566 1.446 1.466 1.442 1.4318 1.3998 1.3949 1.4432 1.456 1.4429
1668.587 1.476 1.506 1.516 1.606 1.646 1.636 1.696 1.756 1.816 1.906
1687.877 1.936 1.976 2.146 2.326 2.526 2.686 2.876 3.126 3.316 3.526
1707.167 3.736 3.996 4.236 4.446 4.726 5.066 5.346 5.686 6.156 6.756
1726.457 7.416 8.096 8.866 9.786 11.026 12.586 14.586 17.496 20.996 24.696
1745.747 28.166 31.016 32.876 33.436 32.806 31.326 29.636 28.736 29.146 31.006
1765.037 34.646 40.086 46.936 53.906 59.896 63.636 64.266 61.536 55.406 46.776
1784.327 37.146 28.056 21.026 16.196 13.086 11.076 9.696 8.666 7.826 7.026
1803.617 6.216 5.446 4.766 4.156 3.656 3.266 2.926 2.656 2.466 2.256
1822.907 2.106 2.026 1.916 1.876 1.886 1.836 1.806 1.836 1.826 1.776
1842.197 1.726 1.716 1.656 1.546 1.496 1.456 1.4195 1.319 1.2742 1.285
1861.487 1.2444 1.2235 1.2036 1.1884 1.1584 1.1319 1.133 1.118 1.1058 1.0733
1880.777 1.0257 1.0305 0.9915 1.0086 1.0253 1.0356 1.0512 1.0195 1.0225 1.0816
1900.067 1.1413 1.1541 1.1713 1.1939 1.2488 1.3024 1.3255 1.3513 1.3701 1.3787
1919.357 1.4287 1.526 1.526 1.516 1.556 1.516 1.466 1.476 1.456 1.4335
1938.647 1.476 1.4413 1.3711 1.3768 1.3983 1.4019 1.3731 1.3373 1.3097 1.2553
1957.937 1.1861 1.137 1.1141 1.0823 1.0132 0.9825 1.029 1.0369 0.9778 0.9722
1977.227 0.9865 0.984 0.9649 0.9271 0.8908 0.8628 0.8504 0.7964 0.7651 0.775
1996.517 0.7963 0.816 0.8032 0.7767 0.7531 0.7499 0.7772 0.8063 0.799 0.7672
2015.807 0.7717 0.7533 0.7396 0.7413 0.6595 0.6419 0.6984 0.6943 0.6927 0.6986
2035.097 0.6802 0.6939 0.7018 0.6709 0.7099 0.746 0.7271 0.7871 0.792 0.7794
2054.387 0.7951 0.7759 0.7778 0.8094 0.8554 0.8026 0.7565 0.7749 0.7727 0.7449
2073.677 0.7318 0.7342 0.6696 0.6045 0.6342 0.6938 0.6768 0.6642 0.6829 0.6737
2092.967 0.6829 0.6467 0.6292 0.6433 0.606 0.5622 0.5515 0.5699 0.5659 0.5739
2112.257 0.562 0.5498 0.5929 0.5637 0.51041 0.54271 0.5554 0.52084 0.5212 0.5533
2131.547 0.5846 0.5548 0.5512 0.5489 0.5315 0.5831 0.5968 0.6135 0.6345 0.6759
2150.837 0.705 0.6826 0.6937 0.7236 0.7569 0.7435 0.7116 0.704 0.6858 0.6234
2170.127 0.5635 0.5703 0.593 0.6186 0.5798 0.52179 0.51437 0.53339 0.52159 0.46931
2189.417 0.46833 0.49562 0.52601 0.5407 0.5503 0.551 0.53079 0.52685 0.52299 0.46893
2208.707 0.47908 0.52953 0.54506 0.53669 0.5494 0.5541 0.5142 0.48077 0.51644 0.5811
2227.997 0.5903 0.5882 0.5891 0.5959 0.5713 0.51545 0.50381 0.51745 0.5576 0.5514
2247.287 0.47924 0.45947 0.52707 0.5555 0.49244 0.46825 0.448643 0.3992 0.3715 0.3782
2266.577 0.4175 0.47252 0.46179 0.43843 0.4017 0.3893 0.4254 0.47987 0.51905 0.52429
2285.868 0.53803 0.54029 0.54272 0.5706 0.6094 0.6045 0.5754 0.6003 0.6713 0.6953
2305.158 0.7037 0.7463 0.801 0.8333 0.8782 0.9115 0.8705 0.846 0.8794 0.854
2324.448 0.7689 0.7937 0.8533 0.8219 0.7296 0.7296 0.7705 0.7361 0.6871 0.665
2343.738 0.6664 0.6499 0.7003 0.7147 0.7319 0.7436 0.7049 0.7303 0.7389 0.7498
2363.028 0.7355 0.7539 0.7634 0.7671 0.8238 0.835 0.8201 0.8092 0.7463 0.6508
2382.318 0.619 0.6417 0.6056 0.5577 0.5919 0.6505 0.6477 0.6153 0.6223 0.6398
2401.608 0.6475 0.5894 0.51701 0.52473 0.5727 0.54477 0.53964 0.53238 0.51491 0.5675
2420.898 0.6287 0.6558 0.5892 0.5497 0.54394 0.51503 0.50951 0.4965 0.4753 0.51269
2440.188 0.5586 0.53499 0.47434 0.48568 0.53274 0.52509 0.6078 0.5895 0.44436 0.44551
2459.478 0.52147 0.54271 0.52216 0.5598 0.5879 0.5583 0.5721 0.6085 0.6175 0.6404
2478.768 0.609 0.6109 0.65 0.6513 0.6703 0.6574 0.6983 0.6932 0.631 0.6841
2498.058 0.7141 0.6561 0.6328 0.6657 0.6551 0.5791 0.5671 0.5515 0.5628 0.6016
2517.348 0.6237 0.6311 0.5857 0.5599 0.5667 0.6249 0.6258 0.6115 0.54086 0.48836
2536.638 0.5641 0.6328 0.5892 0.5538 0.5451 0.5461 0.53062 0.5291 0.5995 0.5688
2555.928 0.5178 0.5571 0.5583 0.46318 0.455313 0.46548 0.43605 0.47231 0.436 0.4146
2575.218 0.49109 0.49174 0.450693 0.49382 0.49878 0.4169 0.3907 0.322 0.32 0.3747
2594.508 0.3603 0.341 0.343 0.3835 0.342 0.263 0.28 0.3795 0.4019 0.3842
2613.798 0.4192 0.4119 0.322 0.295 0.305 0.32 0.346 0.346 0.3919 0.3802
2633.088 0.3524 0.341 0.331 0.315 0.342 0.3862 0.3656 0.3953 0.45866 0.4218
2652.378 0.263 0.272 0.3804 0.353 0.307 0.34 0.317 0.316 0.3856 0.4052
2671.668 0.3975 0.4034 0.3508 0.306 0.3722 0.3788 0.3632 0.4145 0.4111 0.3758
2690.958 0.45885 0.43733 0.3765 0.4006 0.3761 0.4099 0.4104 0.3833 0.4044 0.3501
2710.248 0.3647 0.45043 0.46269 0.3869 0.319 0.3607 0.3644 0.3555 0.4033 0.43834
2729.538 0.3887 0.335 0.3479 0.3626 0.3827 0.3535 0.287 0.276 0.287 0.26
2748.828 0.263 0.215 0.17 0.233 0.28 0.272 0.203 0.18 0.189 0.185
2768.118 0.291 0.231 0.124 0.177 0.256 0.3667 0.3494 0.286 0.292 0.302
2787.408 0.3616 0.4182 0.348 0.317 0.301 0.282 0.281 0.223 0.194 0.193
2806.698 0.189 0.235 0.286 0.3501 0.391 0.3473 0.317 0.271 0.232 0.232
2825.988 0.3 0.4159 0.384 0.327 0.3557 0.3695 0.3 0.239 0.327 0.4116
2845.278 0.3542 0.233 0.171 0.23 0.328 0.3468 0.303 0.299 0.344 0.323
2864.568 0.254 0.297 0.259 0.237 0.279 0.243 0.251 0.234 0.248 0.383
2883.858 0.3946 0.324 0.3887 0.3709 0.3629 0.3979 0.3606 0.284 0.203 0.295
2903.148 0.345 0.318 0.293 0.25 0.367 0.292 0.21 0.302 0.295 0.296
2922.438 0.305 0.258 0.225 0.266 0.27 0.22 0.252 0.229 0.219 0.21
2941.728 0.146 0.209 0.225 0.212 0.274 0.166 0.172 0.301 0.256 0.233
2961.018 0.275 0.322 0.269 0.254 0.3515 0.308 0.322 0.43668 0.48501 0.45308
2980.308 0.42 0.5191 0.6471 0.7316 0.6953 0.7864 0.8758 0.7896 0.8007 0.7286
2999.598 0.6811 0.7892 0.8369 0.8389 0.8541 0.9645 1.0079 1.0454 1.2099 1.2334
3018.888 1.2421 1.4238 1.476 1.546 1.816 1.956 2.016 2.246 2.566 2.826
3038.178 3.126 3.566 4.056 4.576 4.966 5.296 5.546 5.626 5.896 6.166
3057.468 6.266 6.256 6.126 5.916 5.756 5.736 5.616 5.386 5.416 5.696
3076.758 5.966 6.176 6.356 6.486 6.466 6.266 5.846 5.346 4.786 4.146
3096.048 3.656 3.376 3.056 2.686 2.456 2.226 1.896 1.616 1.3945 1.2467
3115.338 1.1722 1.0219 0.8869 0.9218 1.0094 0.8863 0.6832 0.6471 0.73 0.8252
3134.628 0.7207 0.48616 0.4083 0.4092 0.3919 0.50725 0.5685 0.52893 0.5544 0.54175
3153.918 0.5763 0.51603 0.4055 0.48145 0.46602 0.3584 0.322 0.269 0.261 0.237
3173.208 0.146 0.257 0.311 0.136 0.154 0.262 0.247 0.221 0.259 0.326
3192.498 0.3653 0.234 0.175 0.278 0.279 0.264 0.225 0.21 0.113 0.042
3211.788 0.199 0.407 0.327 0.091 0.053 0.166 0.3718 0.3955 0.304 0.268
3231.078 0.198 0.233 0.304 0.3593 0.3698 0.268 0.225 0.245 0.311 0.295
3250.368 0.341 0.48998 0.4714 0.5625 0.5554 0.4302 0.47686 0.48546 0.4334 0.54413
3269.658 0.51743 0.46526 0.50392 0.48452 0.5019 0.47416 0.4345 0.3998 0.46703 0.52055
3288.948 0.4173 0.3576 0.3817 0.262 0.2 0.305 0.46364 0.4279 0.381 0.399
3308.238 0.26 0.301 0.3595 0.309 0.244 0.223 0.3528 0.4203 0.446924 0.48556
3327.528 0.44308 0.4041 0.4254 0.52117 0.5615 0.48931 0.45894 0.52968 0.5812 0.6271
3346.818 0.6752 0.6276 0.7151 0.7486 0.8059 0.916 0.7901 0.7989 0.907 0.9576
3366.108 0.972 0.9704 1.1038 1.211 1.231 1.23 1.2168 1.1941 1.1152 1.3008
3385.398 1.516 1.526 1.636 1.756 1.696 1.596 1.686 1.836 1.906 1.916
3404.688 2.076 2.076 2.016 2.256 2.596 2.776 2.916 3.266 3.586 3.786
3423.978 4.126 4.536 4.976 5.596 6.156 6.716 7.366 8.056 8.766 9.426
3443.269 10.106 10.696 11.366 11.906 12.186 12.556 12.626 12.576 12.586 12.456
3462.559 12.176 11.846 11.576 11.166 10.686 10.236 9.786 9.296 8.826 8.416
3481.849 7.896 7.546 7.236 6.606 6.166 5.796 5.436 5.166 4.766 4.396
3501.139 4.056 3.766 3.646 3.436 3.076 2.876 2.726 2.646 2.526 2.436
3520.429 2.326 2.186 2.186 2.166 2.016 1.936 1.966 1.846 1.756 1.766
3539.719 1.656 1.456 1.496 1.566 1.556 1.716 1.886 2.146 2.566 3.256
3559.009 4.336 5.676 7.296 9.016 10.386 11.066 11.406 11.716 11.336 10.196
3578.299 8.946 7.686 6.426 5.246 4.226 3.436 2.696 1.966 1.4401 1.1792
3597.589 1.056 0.8789 0.668 0.6087 0.6837 0.7735 0.7264 0.6373 0.5957 0.56
3616.879 0.5598 0.5752 0.5899 0.6085 0.5664 0.454194 0.4008 0.415 0.48136 0.49611
3636.169 0.5474 0.46808 0.311 0.3884 0.405 0.3712 0.3785 0.284 0.246 0.278
3655.459 0.278 0.284 0.224 0.257 0.29 0.3917 0.5494 0.4248 0.337 0.342
3674.749 0.421 0.4225 0.3799 0.3793 0.316 0.271 0.233 0.257 0.304 0.4063
3694.039 0.344 0.224 0.197 0.218 0.301 0.307 0.351 0.3833 0.3612 0.3929
3713.329 0.323 0.228 0.266 0.203 0.291 0.3779 0.314 0.307 0.318 0.311
3732.619 0.281 0.196 0.249 0.4161 0.324 0.248 0.315 0.319 0.258 0.311
3751.909 0.3901 0.355 0.215 0.172 0.205 0.152 0.027 0.088 0.223 0.17
3771.199 0.186 0.198 0.173 0.24 0.328 0.3584 0.298 0.221 0.227 0.298
3790.489 0.3495 0.285 0.291 0.3908 0.25 0.142 0.137 0.217 0.336 0.3757
3809.779 0.348 0.316 0.3757 0.307 0.179 0.104 0.085 0.267 0.324 0.174
3829.069 0.178 0.222 0.114 0.095 0.251 0.3471 0.251 0.214 0.338 0.274
3848.359 0.258 0.333 0.317 0.343 0.4027 0.3541 0.307 0.3653 0.491 0.4323
3867.649 0.3508 0.335 0.23 0.218 0.216 0.121 0.21 0.332 0.4025 0.53082
3886.939 0.3649 0.282 0.51131 0.62 0.49261 0.3764 0.344 0.314 0.3831 0.3965
3906.229 0.44366 0.47753 0.341 0.235 0.213 0.148 0.16 0.213 0.191 0.217
3925.519 0.314 0.3511 0.188 0.11 0.188 0.3491 0.43977 0.3677 0.336 0.268
3944.809 0.192 0.241 0.259 0.28 0.132 0.198 0.4321 0.3933 0.4197 0.4079
3964.099 0.3637 0.159 0.02 0.152 0.242 0.323 0.328 0.3522 0.338 0.217
3983.389 0.224 0.296 0.328 0.191 0 0.134 0.263 0.231 0.287 0.158
##END=
