##TITLE=N-Benzylisatoic anhydride
##JCAMP-DX=4.24
##DATA TYPE=INFRARED SPECTRUM
##ORIGIN=EPA-IR VAPOR PHASE LIBRARY
##OWNER=SRD/NIST
Collection (C) 2018 copyright by the U.S. Secretary of Commerce
on behalf of the United States of America. All rights reserved.
##CAS REGISTRY NO=35710-05-5
##MOLFORM=C 15 H 11 N O 3
##$NIST SOURCE=MSDC-IR
##STATE=gas
##XUNITS=1/CM
##YUNITS=ABSORBANCE
##XFACTOR=1.
##YFACTOR=0.001
##DELTAX=3.85796
##FIRSTX=551.7
##LASTX=4000.7
##FIRSTY=0.579
##MAXX=4000.7
##MINX=551.688
##MAXY=0.063769
##MINY=0
##NPOINTS=895
##XYDATA=(X++(Y..Y))
551.688 0.579 0.35 0.3316 0.4393 0.5124 0.5048 0.5258 0.5195 0.4683 0.4347
590.268 0.3618 0.457 0.5276 0.4732 0.5535 0.5944 0.6321 0.6259 0.5379 0.5407
628.847 0.584 0.6024 0.6791 0.7436 0.7949 0.9527 1.099 1.239 1.499 2.119
667.427 3.029 3.859 4.539 4.989 4.959 4.559 4.309 4.629 5.379 5.959
706.006 5.889 5.309 4.699 3.999 3.239 2.849 2.949 3.169 3.629 4.549
744.586 6.399 9.219 11.309 10.309 6.959 3.909 2.119 1.409 1.089 0.9875
783.165 0.938 0.8754 0.8188 0.8184 0.8164 0.8124 0.8172 0.8616 0.8694 0.7632
821.745 0.6744 0.6775 0.7108 0.7335 0.7752 0.8476 1.0112 1.0064 0.956 0.9682
860.324 0.7909 0.6222 0.6528 0.6069 0.5669 0.6382 0.6508 0.6478 0.609 0.6185
898.904 0.6571 0.6614 0.6834 0.7126 0.7676 0.8429 0.9065 0.9185 0.8805 0.8435
937.484 0.7631 0.7215 0.794 0.9228 1.059 1.129 1.0182 0.8439 0.8481 0.9538
976.063 1.059 1.129 1.239 1.509 1.839 2.279 2.719 3.279 4.319 5.939
1014.643 8.479 12.219 16.579 20.079 20.679 17.279 11.729 6.959 4.299 3.529
1053.222 3.659 4.209 4.829 4.859 4.419 3.689 3.119 2.739 2.399 2.099
1091.802 1.759 1.669 1.399 1.119 1.149 1.179 1.119 1.029 1.099 1.409
1130.381 1.789 2.039 2.179 1.929 1.609 1.559 1.759 2.229 2.669 2.849
1168.961 2.769 2.679 3.199 4.479 5.679 5.769 4.719 3.449 2.619 2.169
1207.540 1.859 1.639 1.449 1.409 1.529 1.829 2.549 3.629 5.039 6.779
1246.120 8.279 9.169 9.599 9.599 9.089 8.229 7.339 6.729 6.359 6.029
1284.699 5.869 6.229 7.129 8.009 8.589 9.339 10.989 13.569 15.929 16.699
1323.279 15.499 13.239 10.989 8.969 7.269 6.129 5.769 6.319 7.509 8.569
1361.859 8.839 8.399 7.979 7.839 7.489 6.389 4.769 3.389 2.569 2.139
1400.438 1.899 1.659 1.409 1.269 1.239 1.289 1.379 1.519 1.749 2.079
1439.018 2.589 3.389 4.389 5.289 5.879 6.529 7.919 10.629 14.069 16.639
1477.597 16.989 15.669 14.629 14.509 13.969 12.049 9.529 7.489 5.819 4.309
1516.177 2.979 2.189 1.819 1.609 1.509 1.459 1.399 1.319 1.279 1.349
1554.756 1.439 1.539 1.609 1.679 1.859 2.269 2.849 3.709 5.099 6.919
1593.336 8.949 10.979 12.589 13.279 12.789 11.379 9.539 7.559 5.649 4.039
1631.915 2.919 2.179 1.769 1.519 1.409 1.349 1.339 1.389 1.449 1.459
1670.495 1.479 1.509 1.489 1.539 1.659 1.849 2.029 2.199 2.359 2.469
1709.075 2.649 2.939 3.449 4.229 5.259 6.559 7.909 9.249 10.639 12.559
1747.654 15.919 22.409 34.219 50.819 63.769 62.819 47.929 29.959 18.939 14.569
1786.234 13.799 15.419 19.569 26.459 34.969 41.189 40.919 33.559 23.039 14.269
1824.813 9.019 6.349 5.029 4.239 3.619 3.079 2.619 2.289 2.029 1.779
1863.393 1.609 1.489 1.319 1.209 1.149 1.069 0.9943 0.9532 0.9474 0.9636
1901.972 0.9929 0.9891 0.9886 1.0171 1.039 1.069 1.129 1.199 1.249 1.229
1940.552 1.189 1.159 1.109 1.079 1.059 1.0043 0.9046 0.8098 0.6909 0.5886
1979.131 0.5784 0.569 0.5284 0.4842 0.4626 0.4756 0.4863 0.4846 0.4628 0.438
2017.711 0.4316 0.4424 0.4512 0.4539 0.4628 0.4882 0.504 0.4905 0.49 0.4813
2056.291 0.4696 0.4663 0.4454 0.4381 0.4309 0.4278 0.4379 0.4538 0.4605 0.438
2094.870 0.3961 0.3738 0.3697 0.3595 0.3783 0.4031 0.3912 0.3695 0.3502 0.3679
2133.450 0.3969 0.3959 0.3869 0.3643 0.3611 0.3676 0.3704 0.4076 0.4157 0.4138
2172.029 0.4163 0.4138 0.4181 0.4102 0.386 0.3799 0.4193 0.4362 0.4454 0.4322
2210.609 0.419 0.425 0.4273 0.401 0.3578 0.3709 0.382 0.3736 0.4043 0.3968
2249.188 0.3673 0.3504 0.3431 0.3918 0.4426 0.4469 0.48 0.5245 0.5174 0.5121
2287.768 0.4929 0.4439 0.4294 0.4506 0.4487 0.4528 0.4634 0.4458 0.4283 0.4405
2326.347 0.4239 0.4098 0.4641 0.5002 0.5225 0.554 0.5465 0.5068 0.4582 0.3956
2364.927 0.3804 0.3907 0.3776 0.3624 0.3692 0.3692 0.3606 0.3654 0.3396 0.3128
2403.507 0.3135 0.307 0.2973 0.3213 0.3393 0.3132 0.2774 0.3167 0.3629 0.3398
2442.086 0.3264 0.3408 0.3404 0.3071 0.292 0.3106 0.3196 0.3244 0.3141 0.293
2480.666 0.3039 0.3331 0.3363 0.3399 0.3548 0.3575 0.3707 0.3624 0.336 0.3502
2519.245 0.3501 0.3334 0.3322 0.3392 0.3464 0.3346 0.3315 0.3562 0.3269 0.2804
2557.825 0.3039 0.2904 0.2527 0.2538 0.2663 0.3106 0.2825 0.22 0.2402 0.2909
2596.404 0.3081 0.3108 0.3235 0.3009 0.3428 0.3431 0.3266 0.374 0.3303 0.3072
2634.984 0.3511 0.3534 0.3486 0.3784 0.3919 0.3641 0.3339 0.3217 0.297 0.2804
2673.563 0.3187 0.3538 0.3205 0.2992 0.2771 0.2724 0.2901 0.2815 0.3009 0.3023
2712.143 0.2623 0.1913 0.2122 0.2472 0.253 0.2779 0.2389 0.2403 0.3043 0.3605
2750.722 0.3546 0.3242 0.2999 0.2796 0.2726 0.265 0.2639 0.2471 0.2697 0.3512
2789.302 0.3571 0.3434 0.4044 0.4089 0.3457 0.3371 0.3367 0.3037 0.2935 0.3478
2827.882 0.3267 0.2876 0.3466 0.3473 0.3667 0.3902 0.3285 0.3438 0.399 0.4246
2866.461 0.4016 0.4207 0.5049 0.5627 0.5237 0.4403 0.4661 0.4763 0.4445 0.5087
2905.041 0.5398 0.5368 0.5661 0.5482 0.5971 0.6475 0.7094 0.8438 0.9412 1.0267
2943.620 1.129 1.169 1.159 1.069 0.917 0.8782 0.8586 0.8103 0.7963 0.8336
2982.200 0.9041 0.9296 0.8973 0.8021 0.7361 0.7644 0.8196 0.8336 0.8895 1.0022
3020.779 1.169 1.439 1.809 2.169 2.349 2.329 2.199 1.919 1.779 1.859
3059.359 2.029 2.239 2.589 2.939 3.009 2.769 2.439 2.319 2.299 2.169
3097.938 1.929 1.539 1.209 1.0149 0.848 0.6812 0.537 0.4578 0.4444 0.435
3136.518 0.3846 0.3361 0.2666 0.2098 0.1739 0.1845 0.1992 0.2087 0.2236 0.2321
3175.098 0.1814 0.1914 0.2868 0.3051 0.299 0.2562 0.2175 0.1719 0.1616 0.1647
3213.677 0.155 0.1923 0.2127 0.1783 0.2261 0.2767 0.2431 0.1865 0.12811 0.1995
3252.257 0.2579 0.206 0.1873 0.12792 0.1374 0.2177 0.2574 0.3096 0.29 0.2168
3290.836 0.1507 0.2096 0.2358 0.2177 0.1848 0.1467 0.1921 0.1818 0.1855 0.1775
3329.416 0.1433 0.1792 0.1418 0.09371 0.11157 0.1572 0.2162 0.2494 0.2175 0.1796
3367.995 0.1907 0.1865 0.184 0.2142 0.1889 0.1607 0.1372 0.1464 0.1955 0.1415
3406.575 0.1462 0.3191 0.3009 0.2226 0.2325 0.2296 0.2532 0.1771 0.2008 0.2471
3445.154 0.1914 0.2065 0.2266 0.1821 0.1401 0.1374 0.1825 0.2133 0.2606 0.3618
3483.734 0.3145 0.2803 0.359 0.3122 0.2876 0.3766 0.3437 0.2453 0.3312 0.4513
3522.314 0.5501 0.5884 0.5382 0.476 0.416 0.482 0.571 0.6074 0.5959 0.5919
3560.893 0.5452 0.4177 0.3357 0.3634 0.3468 0.2239 0.1939 0.227 0.3127 0.3477
3599.473 0.3476 0.3663 0.264 0.2726 0.3781 0.3423 0.2753 0.2322 0.215 0.2593
3638.052 0.2444 0.1345 0.146 0.2534 0.2538 0.2203 0.09953 0.07397 0.1305 0.125
3676.632 0.165 0.07872 0.02597 0.12729 0.1349 0.06732 0.08218 0.1299 0.2496 0.3022
3715.211 0.1432 0.125 0.2304 0.2372 0.1573 0.1464 0.1785 0.12497 0.2042 0.2605
3753.791 0.2388 0.2287 0.2441 0.1792 0.08604 0.1345 0.12732 0.1799 0.2386 0.171
3792.370 0.1794 0.1634 0.12755 0.1299 0.1906 0.1698 0.11606 0.1529 0.11514 0.1358
3830.950 0.11697 0.08473 0.07349 0.12049 0.1716 0.10943 0.031357 0.02626 0.10493 0.1552
3869.530 0.2103 0.1524 0.0290801 0.04757 0.2133 0.3168 0.2481 0.1677 0.2021 0.2149
3908.109 0.1968 0.156 0.08558 0.11971 0.12716 0.1336 0.1532 0.1826 0.2225 0.1406
3946.689 0.07856 0.09619 0.07209 0.09511 0.12454 0.05906 0 0.04549 0.0879 0.09039
3985.268 0.1601 0.2046 0.10486 0.06249 0.09948
##END=
