##TITLE=p-Diethylaminobenzylidine rhodanine
##JCAMP-DX=4.24
##DATA TYPE=INFRARED SPECTRUM
##ORIGIN=EPA-IR VAPOR PHASE LIBRARY
##OWNER=SRD/NIST
Collection (C) 2018 copyright by the U.S. Secretary of Commerce
on behalf of the United States of America. All rights reserved.
##CAS REGISTRY NO=35778-58-6
##MOLFORM=C 14 H 16 N 2 O S
##$NIST SOURCE=MSDC-IR
##STATE=gas
##XUNITS=1/CM
##YUNITS=ABSORBANCE
##XFACTOR=1.
##YFACTOR=0.001
##DELTAX=3.85796
##FIRSTX=501.5
##LASTX=4000.7
##FIRSTY=1.241
##MAXX=4000.7
##MINX=501.534
##MAXY=0.015631
##MINY=0
##NPOINTS=908
##XYDATA=(X++(Y..Y))
501.534 1.241 1.221 1.161 1.141 0.9487 0.8858 0.8383 0.7886 0.7942 0.7714
540.114 0.7252 0.7437 0.7221 0.6612 0.5224 0.3609 0.385 0.3493 0.3297 0.4165
578.693 0.4437 0.4873 0.6502 0.7557 0.6453 0.5698 0.6449 0.8315 1.077 1.191
617.273 1.131 1.0893 1.1053 0.9835 0.786 0.6175 0.4882 0.4439 0.4031 0.4072
655.852 0.4752 0.6878 1.131 1.701 1.941 1.521 0.866 0.5067 0.3528 0.3063
694.432 0.3465 0.3435 0.2882 0.3066 0.3715 0.3887 0.4577 0.5143 0.5337 0.5164
733.011 0.5 0.488 0.4286 0.3553 0.3216 0.3302 0.3013 0.3046 0.3162 0.3061
771.591 0.2727 0.2971 0.3536 0.4466 0.565 0.6345 0.6693 0.6508 0.7663 0.998
810.170 1.231 1.271 1.0637 0.7922 0.6103 0.5046 0.4175 0.3994 0.3659 0.3285
848.750 0.3478 0.3566 0.2988 0.3073 0.3614 0.3429 0.3459 0.363 0.3987 0.3903
887.330 0.4099 0.473 0.5199 0.51 0.4739 0.4478 0.3916 0.3425 0.3211 0.3151
925.909 0.3208 0.3618 0.3855 0.3359 0.2852 0.2838 0.2746 0.2418 0.2398 0.2815
964.489 0.2944 0.2943 0.3624 0.4429 0.5536 0.6226 0.7465 1.0216 1.221 1.301
1003.068 1.211 1.0206 0.8974 0.881 0.7998 0.6669 0.536 0.4735 0.465 0.5255
1041.648 0.6093 0.6528 0.7572 0.9757 1.271 1.501 1.591 1.561 1.551 1.511
1080.227 1.371 1.231 1.1064 1.151 1.211 1.0897 1.0579 1.161 1.221 1.351
1118.807 1.621 2.091 2.781 3.671 4.721 5.841 7.211 8.671 9.561 9.331
1157.387 8.711 9.211 11.661 15.011 15.631 11.841 7.351 4.991 4.011 3.671
1195.966 3.631 3.441 3.081 2.591 2.211 2.081 1.961 1.921 1.961 2.091
1234.546 2.351 2.551 2.611 2.541 2.621 3.111 3.981 5.041 5.691 5.481
1273.125 4.671 3.951 3.701 3.811 3.741 3.151 2.341 1.781 1.471 1.301
1311.705 1.281 1.311 1.381 1.541 1.801 2.141 2.511 2.901 3.271 3.611
1350.284 3.911 4.091 4.021 3.641 3.091 2.661 2.591 2.911 3.371 3.701
1388.864 4.111 5.051 6.771 9.241 11.261 10.921 8.181 5.231 3.431 2.561
1427.443 2.101 1.741 1.391 1.131 0.9892 0.949 0.9552 0.9778 0.9908 0.9987
1466.023 1.0316 1.0824 1.1201 1.1054 1.0672 1.0727 1.151 1.301 1.641 2.271
1504.603 3.411 5.281 7.471 8.781 8.051 5.911 4.011 2.871 2.201 1.831
1543.182 1.631 1.581 1.661 1.781 1.951 2.241 2.711 3.451 4.601 6.361
1581.762 9.031 12.391 14.871 14.441 11.081 7.261 4.781 3.541 2.851 2.281
1620.341 1.811 1.501 1.281 1.0967 0.9437 0.8375 0.7569 0.6717 0.6191 0.5786
1658.921 0.5518 0.5544 0.5586 0.5466 0.5307 0.5494 0.5736 0.6121 0.6652 0.7305
1697.500 0.8249 0.9279 1.0462 1.211 1.411 1.651 1.941 2.401 3.191 4.531
1736.080 6.551 8.651 9.521 8.401 6.121 4.071 2.741 1.921 1.411 1.0779
1774.659 0.8911 0.7839 0.7037 0.6633 0.6428 0.5999 0.5442 0.4986 0.4551 0.4181
1813.239 0.3828 0.3542 0.3542 0.3564 0.3329 0.3157 0.3053 0.2997 0.2967 0.2981
1851.819 0.2905 0.2818 0.2907 0.2888 0.2835 0.2957 0.3178 0.3192 0.2975 0.2772
1890.398 0.2797 0.2617 0.2218 0.2274 0.2395 0.21796 0.21554 0.22006 0.20906 0.20131
1928.978 0.1997 0.19753 0.19524 0.2081 0.21952 0.2098 0.20213 0.18924 0.19062 0.20178
1967.557 0.19393 0.1964 0.20381 0.22015 0.2421 0.2521 0.2623 0.2606 0.2621 0.252
2006.137 0.2421 0.2381 0.21071 0.19138 0.1841 0.17583 0.16994 0.17199 0.19561 0.20684
2044.716 0.19114 0.19143 0.18827 0.18046 0.17086 0.17818 0.19325 0.18955 0.198 0.21639
2083.296 0.22015 0.20308 0.21622 0.2295 0.20025 0.18724 0.17324 0.16495 0.19372 0.1942
2121.875 0.191 0.2122 0.18932 0.17162 0.19205 0.20399 0.20971 0.20295 0.19708 0.19263
2160.455 0.18391 0.17832 0.18374 0.19528 0.18361 0.16892 0.16241 0.16883 0.19487 0.20543
2199.035 0.19882 0.19825 0.20312 0.21554 0.21855 0.2268 0.2322 0.22068 0.20963 0.2243
2237.614 0.2426 0.226 0.21749 0.229 0.21801 0.20709 0.21012 0.20018 0.21778 0.2614
2276.194 0.2411 0.21671 0.21945 0.20833 0.21666 0.2268 0.2327 0.21634 0.21306 0.21122
2314.773 0.2003 0.20458 0.2134 0.20711 0.19638 0.19462 0.16261 0.14889 0.17484 0.17602
2353.353 0.17926 0.17452 0.16132 0.1671 0.15509 0.14788 0.15609 0.17104 0.17341 0.17888
2391.932 0.19949 0.21488 0.21411 0.21999 0.21593 0.20254 0.19598 0.18018 0.17315 0.17506
2430.512 0.18586 0.18647 0.17139 0.16902 0.19172 0.20575 0.2296 0.257 0.2635 0.2641
2469.092 0.2572 0.2716 0.272 0.2256 0.18975 0.21402 0.2334 0.21258 0.21575 0.2346
2507.671 0.2413 0.2409 0.2499 0.2493 0.252 0.2614 0.2619 0.2693 0.2758 0.2607
2546.251 0.2399 0.2438 0.241 0.2266 0.2265 0.2451 0.2571 0.2767 0.2819 0.2666
2584.830 0.2646 0.2847 0.3008 0.308 0.2968 0.2549 0.2461 0.2683 0.2747 0.2648
2623.410 0.2915 0.2904 0.256 0.2515 0.2541 0.2629 0.2753 0.2743 0.2289 0.21736
2661.989 0.2302 0.2129 0.22053 0.2288 0.19291 0.19913 0.20265 0.17608 0.17905 0.18391
2700.569 0.19417 0.19707 0.18795 0.19446 0.2378 0.2475 0.22041 0.20701 0.2261 0.2421
2739.148 0.2636 0.2907 0.2865 0.3014 0.3115 0.3029 0.3136 0.3078 0.2993 0.3
2777.728 0.3158 0.3207 0.2912 0.2922 0.287 0.2932 0.3472 0.3796 0.3541 0.3732
2816.308 0.4133 0.396 0.4082 0.4407 0.4619 0.4663 0.4797 0.4915 0.5286 0.5782
2854.887 0.6095 0.663 0.695 0.713 0.7724 0.8482 0.9352 1.0353 1.0679 1.0435
2893.467 0.9938 0.9681 0.9819 0.9622 0.9303 0.9272 0.9464 0.9793 0.9893 1.0446
2932.046 1.171 1.331 1.501 1.531 1.451 1.311 1.181 1.171 1.211 1.291
2970.626 1.511 1.831 2.141 2.301 2.251 1.911 1.471 1.0996 0.8695 0.7672
3009.205 0.6388 0.5543 0.5532 0.5358 0.5187 0.505 0.5052 0.5393 0.5476 0.5397
3047.785 0.5194 0.4629 0.4101 0.364 0.3555 0.3511 0.3448 0.3863 0.4351 0.4646
3086.364 0.5008 0.5073 0.4904 0.5147 0.5011 0.4359 0.3741 0.3369 0.324 0.2977
3124.944 0.2754 0.2636 0.2254 0.2044 0.226 0.2217 0.2235 0.20844 0.13961 0.13503
3163.524 0.19817 0.224 0.2343 0.2473 0.18286 0.120626 0.17746 0.2255 0.2306 0.21679
3202.103 0.17549 0.17797 0.1738 0.13929 0.14268 0.14466 0.13305 0.15514 0.14367 0.13267
3240.683 0.13959 0.1066 0.0831 0.13402 0.14606 0.0951 0.1094 0.13835 0.11905 0.0892
3279.262 0.0859 0.1074 0.125829 0.11257 0.125845 0.17178 0.16543 0.1495 0.13206 0.14544
3317.842 0.21656 0.20804 0.18171 0.18754 0.15633 0.12747 0.1385 0.17262 0.16833 0.16087
3356.421 0.18852 0.19602 0.13303 0.11805 0.15353 0.11626 0.1047 0.14208 0.16266 0.14876
3395.001 0.14427 0.19087 0.2502 0.2923 0.3123 0.3652 0.4786 0.7153 1.0492 1.461
3433.580 1.981 2.381 2.081 1.211 0.6114 0.3935 0.303 0.3033 0.3268 0.287
3472.160 0.2587 0.2411 0.2361 0.2379 0.21903 0.19277 0.17283 0.18723 0.15357 0.1079
3510.740 0.124524 0.13486 0.11654 0.17478 0.18315 0.0947 0.0816 0.0985 0.13228 0.13852
3549.319 0.13678 0.14888 0.129833 0.128147 0.14618 0.19846 0.19422 0.14594 0.11243 0.0558
3587.899 0.0995 0.13462 0.1048 0.1069 0.0804 0.0571 0.0644 0.0869 0.0681 0.0486
3626.478 0.0964 0.14915 0.16635 0.13449 0.11615 0.123742 0.14334 0.13989 0.1097 0.1184
3665.058 0.1441 0.11449 0.0871 0.0413 0 0.0446 0.0866 0.13483 0.11633 0.0802
3703.637 0.0884 0.093 0.11669 0.0923 0.1045 0.14754 0.13738 0.14748 0.15901 0.0903
3742.217 0.0542 0.1008 0.11636 0.0998 0.087 0.0919 0.0836 0.1007 0.0862 0.0675
3780.797 0.0933 0.1089 0.0829 0.0905 0.11937 0.1054 0.0884 0.0875 0.1059 0.0987
3819.376 0.12515 0.14047 0.0896 0.0778 0.129373 0.0939 0.0268 0.0505 0.130774 0.16907
3857.956 0.1048 0.0533 0.124406 0.14403 0.0722 0.1065 0.1356 0.0996 0.0757 0.0939
3896.535 0.1097 0.0968 0.0709 0.0908 0.14432 0.14138 0.14599 0.12527 0.0794 0.123893
3935.115 0.17241 0.18485 0.16819 0.126154 0.1113 0.15094 0.14361 0.0926 0.127697 0.16629
3973.694 0.129071 0.0964 0.128205 0.15861 0.13749 0.0984 0.1013 0.15248
##END=
