##TITLE=3-Methyl-4-nonanone
##JCAMP-DX=4.24
##DATA TYPE=INFRARED SPECTRUM
##ORIGIN=NIST Mass Spectrometry Data Center
##OWNER=NIST Standard Reference Data Program
Collection (C) 2018 copyright by the U.S. Secretary of Commerce
on behalf of the United States of America. All rights reserved.
##CAS REGISTRY NO=35778-39-3
##MOLFORM=C 10 H 20 O
##$NIST SOURCE=MSDC-IR
##SPECTROMETER/DATA SYSTEM=HP-GC/MS/IRD
##STATE=gas
##XUNITS=1/CM
##YUNITS=ABSORBANCE
##XFACTOR=1.0
##YFACTOR=0.000003200
##DELTAX=4.0
##FIRSTX=550.0
##LASTX=3846.0
##FIRSTY=0.000211
##MAXX=3846
##MINX=550
##MAXY=0.032
##MINY=0
##NPOINTS=825
##XYDATA=(X++(Y..Y))
550.0 66 58 67 57 39 57 70 50 46 50
590.0 48 57 61 82 71 73 73 51 54 48
630.0 15 0 23 38 32 20 23 48 60 50
670.0 38 33 36 38 34 35 51 62 66 84
710.0 105 120 134 149 164 184 201 203 212 222
750.0 215 202 205 215 209 209 217 216 206 210
790.0 216 196 179 168 150 133 119 107 135 129
830.0 91 97 98 101 116 118 111 96 86 93
870.0 96 97 96 94 95 98 108 114 111 110
910.0 121 137 155 186 225 272 305 345 393 434
950.0 470 493 523 563 590 630 672 703 745 783
990.0 817 861 901 941 978 994 998 964 891 849
1030.0 850 898 988 1105 1199 1220 1176 1079 955 857
1070.0 795 743 709 688 657 635 634 657 695 733
1110.0 773 797 797 784 742 678 615 550 505 490
1150.0 491 510 568 644 696 711 686 634 574 541
1190.0 531 519 518 511 489 461 447 432 412 415
1230.0 415 410 415 428 444 459 479 501 523 541
1270.0 545 548 570 599 631 670 686 677 667 647
1310.0 621 595 578 591 626 690 780 876 972 1069
1350.0 1173 1271 1345 1374 1352 1321 1323 1349 1347 1279
1390.0 1142 969 814 726 690 682 684 688 687 689
1430.0 712 771 866 1005 1198 1433 1684 1915 2032 1978
1470.0 1767 1449 1123 847 640 500 403 335 281 240
1510.0 214 193 171 157 151 140 134 122 108 107
1550.0 105 97 92 96 94 89 87 87 89 88
1590.0 87 84 84 84 81 89 87 87 105 114
1630.0 115 115 123 138 147 156 178 204 234 279
1670.0 332 389 462 549 676 857 1118 1507 2078 2834
1710.0 3744 4643 5316 5531 5133 4224 3118 2127 1397 930
1750.0 659 493 375 298 242 198 168 150 128 108
1790.0 94 83 76 69 67 65 55 48 47 43
1830.0 37 29 28 31 31 31 29 28 24 18
1870.0 16 16 14 16 18 16 19 20 17 12
1910.0 11 13 12 11 6 8 9 8 9 9
1950.0 7 2 3 3 3 5 3 0 0 1
1990.0 1 1 2 1 7 14 12 9 10 10
2030.0 12 13 14 11 8 5 2 8 11 8
2070.0 5 7 12 12 9 4 4 3 10 13
2110.0 7 5 5 9 8 6 7 12 12 5
2150.0 1 3 5 2 3 8 11 9 9 12
2190.0 10 4 4 6 7 4 5 7 6 8
2230.0 8 11 14 10 6 5 2 0 4 3
2270.0 1 3 6 4 5 10 12 13 12 11
2310.0 9 9 17 20 16 13 14 15 20 21
2350.0 13 12 11 7 14 16 18 24 25 23
2390.0 21 23 26 24 21 25 29 29 22 19
2430.0 21 18 19 19 19 18 15 10 7 12
2470.0 19 14 9 13 11 11 14 11 6 8
2510.0 14 16 15 18 20 15 15 17 15 20
2550.0 21 19 29 34 35 40 39 36 38 40
2590.0 34 36 43 45 42 43 47 50 53 56
2630.0 61 71 73 72 78 85 82 77 85 94
2670.0 97 98 103 104 103 98 93 102 109 107
2710.0 112 120 124 131 139 152 171 180 188 201
2750.0 203 204 206 204 206 213 226 242 258 279
2790.0 303 329 361 393 427 466 503 550 607 666
2830.0 739 835 962 1125 1338 1621 1988 2428 2902 3361
2870.0 3760 4118 4461 4732 4855 4832 4698 4563 4538 4649
2910.0 4901 5315 5900 6646 7452 8182 8730 9008 8981 8723
2950.0 8355 8103 8241 8853 9633 10000 9579 8346 6664 5060
2990.0 3773 2821 2145 1671 1331 1087 919 789 694 628
3030.0 564 507 460 429 403 381 365 345 324 307
3070.0 295 287 280 272 259 255 241 224 215 207
3110.0 192 179 175 177 175 166 159 156 156 152
3150.0 141 140 145 142 141 131 115 112 106 103
3190.0 105 97 91 83 75 67 64 65 61 46
3230.0 39 37 33 31 27 27 23 23 27 24
3270.0 21 23 25 25 24 17 11 9 9 15
3310.0 9 10 15 17 16 15 21 13 14 22
3350.0 27 20 17 24 23 20 22 26 34 38
3390.0 46 53 59 70 71 76 87 101 120 111
3430.0 94 86 74 64 53 45 36 28 20 16
3470.0 12 6 9 3 0 4 13 10 9 9
3510.0 4 5 2 3 0 3 4 8 11 6
3550.0 3 4 10 14 10 10 15 14 19 19
3590.0 10 6 10 9 13 14 11 8 17 21
3630.0 13 12 8 14 16 13 13 10 8 7
3670.0 6 11 15 15 11 13 16 13 20 29
3710.0 28 28 30 30 24 24 25 29 28 19
3750.0 13 16 24 27 28 25 28 34 28 29
3790.0 24 22 23 26 36 26 15 15 20 23
3830.0 28 22 20 28 28
##END=
