##TITLE=4-Ethoxycoumarin
##JCAMP-DX=4.24
##DATA TYPE=INFRARED SPECTRUM
##ORIGIN=EPA-IR VAPOR PHASE LIBRARY
##OWNER=SRD/NIST
Collection (C) 2018 copyright by the U.S. Secretary of Commerce
on behalf of the United States of America. All rights reserved.
##CAS REGISTRY NO=35817-27-7
##MOLFORM=C 11 H 10 O 3
##$NIST SOURCE=MSDC-IR
##STATE=gas
##XUNITS=1/CM
##YUNITS=ABSORBANCE
##XFACTOR=1.
##YFACTOR=0.001
##DELTAX=1.92934
##FIRSTX=549.9
##LASTX=3999.5
##FIRSTY=1.0353
##MAXX=3999.53
##MINX=549.863
##MAXY=0.064574
##MINY=0
##NPOINTS=1789
##XYDATA=(X++(Y..Y))
549.863 1.0353 0.9828 0.9519 0.9481 1.0818 1.0919 0.9699 0.8467 0.8414 0.849
569.156 0.7727 0.8192 0.8385 0.8815 0.9598 0.9577 0.9759 1.011 1.023 1.0788
588.450 1.0584 0.9949 1.016 0.9869 0.9235 0.8636 0.9364 0.9601 0.9548 1.1033
607.743 1.0835 0.996 0.9468 0.8649 0.8421 0.7986 0.7369 0.733 0.7332 0.6921
627.037 0.6687 0.7064 0.6979 0.65876 0.6743 0.7238 0.7771 0.7691 0.7159 0.7397
646.330 0.7748 0.7386 0.7464 0.7016 0.7191 0.7959 0.8374 0.9359 1.063 1.1715
665.624 1.2306 1.3739 1.5254 1.614 1.774 1.844 1.834 1.834 1.774 1.664
684.917 1.5256 1.3186 1.1145 0.9985 0.8505 0.729 0.6974 0.65708 0.5946 0.61496
704.210 0.62959 0.6074 0.65526 0.64656 0.6685 0.7429 0.7355 0.709 0.7095 0.7339
723.504 0.7757 0.8164 0.8698 0.9158 1.0675 1.2654 1.5483 1.984 2.544 3.254
742.797 4.074 4.994 6.114 7.804 9.644 9.994 9.304 9.424 10.314 10.894
762.091 10.034 8.154 6.624 5.544 4.514 3.584 2.804 2.114 1.614 1.2865
781.384 1.0482 0.9261 0.8482 0.7675 0.7799 0.821 0.8769 0.9279 0.9189 0.997
800.678 1.0938 1.1943 1.4074 1.734 2.084 2.454 3.004 3.594 4.264 4.984
819.971 5.464 5.674 5.774 5.734 5.334 4.684 4.154 3.724 3.314 2.884
839.264 2.484 2.174 1.944 1.854 1.854 1.854 1.894 1.974 2.044 2.104
858.558 2.144 2.204 2.194 2.084 1.984 1.954 1.974 2.064 2.244 2.484
877.851 2.844 3.234 3.724 4.264 4.804 5.394 5.974 6.494 6.874 7.084
897.145 7.134 7.034 6.874 6.674 6.434 6.254 6.154 6.304 6.704 7.314
916.438 8.114 8.914 9.524 9.814 9.794 9.484 8.884 7.944 6.734 5.454
935.732 4.234 3.254 2.594 2.174 1.964 1.814 1.564 1.389 1.2952 1.1953
955.025 1.1158 1.0505 0.9777 0.9222 0.9223 0.936 0.9431 0.9323 0.8968 0.8483
974.318 0.8853 0.9108 0.8837 0.8958 0.9217 0.9665 1.0148 1.022 1.0684 1.1522
993.612 1.2146 1.2877 1.3994 1.5485 1.774 2.024 2.264 2.574 2.924 3.284
1012.905 3.634 3.884 4.184 4.514 4.814 5.154 5.514 5.724 5.664 5.424
1032.199 5.144 4.794 4.264 3.614 2.944 2.304 1.884 1.654 1.4751 1.347
1051.492 1.2999 1.3012 1.3179 1.3556 1.3989 1.4086 1.3704 1.3959 1.4838 1.5185
1070.786 1.5105 1.5247 1.584 1.664 1.744 1.844 2.034 2.234 2.494 2.874
1090.079 3.344 3.924 4.704 5.734 7.004 8.474 10.014 11.504 12.624 13.274
1109.372 13.414 12.984 12.134 10.924 9.394 7.924 6.894 6.494 6.814 7.934
1128.666 9.684 11.514 12.894 13.474 13.434 12.984 12.154 10.714 8.734 6.944
1147.959 5.924 5.724 5.974 6.524 7.344 8.434 9.654 10.884 12.134 13.394
1167.253 14.674 15.814 16.784 17.454 17.604 17.454 16.954 15.974 14.754 13.444
1186.546 12.034 10.684 9.504 8.224 7.334 6.944 6.474 6.204 6.064 5.894
1205.840 5.994 6.184 6.564 7.034 7.974 9.154 10.474 12.434 14.324 16.164
1225.133 18.024 19.594 20.544 20.814 20.364 19.054 17.354 15.314 13.144 10.954
1244.426 8.884 7.254 6.044 5.204 4.664 4.294 3.984 3.864 3.974 4.254
1263.720 4.694 5.234 5.744 6.044 6.114 6.164 6.214 5.974 5.424 4.794
1283.013 4.174 3.704 3.384 3.094 2.964 2.954 2.964 2.974 2.974 3.024
1302.307 3.134 3.294 3.534 3.824 4.214 4.664 5.054 5.334 5.454 5.374
1321.600 5.114 4.724 4.214 3.604 3.094 2.834 2.774 2.944 3.214 3.564
1340.894 4.084 4.774 5.674 6.764 8.034 9.464 10.954 12.384 13.584 14.374
1360.187 14.764 14.774 14.344 13.624 12.824 12.164 11.934 12.424 13.534 14.974
1379.480 16.334 17.274 17.704 17.504 16.724 15.374 13.404 11.204 9.394 8.284
1398.774 7.684 7.374 7.224 7.124 6.994 6.754 6.384 5.954 5.494 4.994
1418.067 4.454 3.894 3.384 2.944 2.564 2.314 2.204 2.144 2.094 2.104
1437.361 2.214 2.404 2.704 3.144 3.674 4.194 4.644 4.934 5.064 5.134
1456.654 5.064 4.744 4.204 3.604 3.204 3.014 2.964 3.084 3.354 3.714
1475.948 4.124 4.574 5.024 5.474 5.854 6.094 6.104 5.914 5.564 5.134
1495.241 4.644 4.104 3.534 3.024 2.654 2.344 2.074 1.864 1.704 1.574
1514.534 1.4922 1.4611 1.4415 1.4164 1.3967 1.4021 1.4167 1.4195 1.4012 1.3994
1533.828 1.3897 1.3637 1.3786 1.3987 1.4619 1.5537 1.624 1.724 1.864 2.054
1553.121 2.324 2.664 3.074 3.584 4.114 4.534 4.874 5.044 5.044 4.944
1572.415 4.764 4.494 4.084 3.694 3.424 3.254 3.244 3.344 3.514 3.824
1591.708 4.224 4.734 5.394 6.184 7.104 8.154 9.264 10.464 11.674 12.944
1611.002 14.364 15.994 17.784 20.004 22.684 25.494 28.184 30.204 31.044 30.734
1630.295 29.554 27.594 24.704 20.904 16.844 13.174 10.174 7.974 6.344 5.194
1649.588 4.444 3.914 3.524 3.264 3.054 2.884 2.774 2.654 2.564 2.504
1668.882 2.464 2.474 2.444 2.414 2.354 2.304 2.254 2.234 2.214 2.144
1688.175 2.114 2.134 2.134 2.154 2.184 2.184 2.254 2.304 2.304 2.384
1707.469 2.484 2.624 2.794 2.974 3.224 3.434 3.644 3.904 4.154 4.434
1726.762 4.794 5.194 5.714 6.384 7.334 8.564 10.094 12.044 14.394 17.174
1746.056 20.404 24.074 28.134 32.674 37.584 42.884 48.494 53.824 58.424 61.854
1765.349 63.904 64.574 63.804 61.484 57.464 52.294 46.424 40.464 34.854 29.914
1784.642 25.634 21.914 18.754 16.084 13.764 11.714 10.064 8.764 7.714 6.774
1803.936 6.034 5.444 4.944 4.474 4.054 3.714 3.414 3.164 2.904 2.654
1823.229 2.474 2.344 2.214 2.094 1.984 1.874 1.804 1.754 1.704 1.664
1842.523 1.614 1.584 1.5286 1.4883 1.4846 1.4619 1.4309 1.3893 1.3407 1.3198
1861.816 1.3248 1.2947 1.2425 1.2073 1.2045 1.1864 1.1299 1.0922 1.0601 1.0234
1881.110 0.9962 0.9647 0.9228 0.8945 0.8703 0.8681 0.8545 0.8343 0.8381 0.8318
1900.403 0.8211 0.8107 0.8459 0.8827 0.9101 0.9757 1.0158 1.0419 1.0731 1.0386
1919.696 0.9947 0.9593 0.917 0.8857 0.7968 0.7302 0.7225 0.7328 0.7606 0.7861
1938.990 0.8369 0.8586 0.8655 0.8702 0.8581 0.8168 0.7681 0.7481 0.7166 0.6828
1958.283 0.65259 0.62518 0.59361 0.569828 0.5454 0.5169 0.4949 0.4907 0.4847 0.4759
1977.577 0.4914 0.5107 0.5166 0.5071 0.5076 0.5073 0.4883 0.5164 0.5289 0.518
1996.870 0.5301 0.5242 0.5326 0.519 0.5451 0.59329 0.57672 0.5565 0.565953 0.57357
2016.164 0.56093 0.54 0.544 0.572803 0.58122 0.5746 0.58243 0.59319 0.60078 0.58781
2035.457 0.56058 0.5217 0.536 0.568163 0.5423 0.5033 0.4852 0.489 0.5009 0.5179
2054.750 0.5116 0.4901 0.4874 0.4907 0.4835 0.4913 0.5169 0.5275 0.4995 0.5146
2074.044 0.5261 0.4848 0.4863 0.5209 0.5439 0.5424 0.5137 0.5009 0.5035 0.5025
2093.337 0.5041 0.4887 0.442 0.398 0.413 0.445 0.4651 0.45 0.436 0.456
2112.631 0.452 0.439 0.446 0.444 0.433 0.424 0.397 0.381 0.387 0.396
2131.924 0.414 0.417 0.378 0.355 0.358 0.367 0.366 0.331 0.331 0.362
2151.218 0.37 0.369 0.355 0.352 0.363 0.385 0.398 0.389 0.393 0.38
2170.511 0.37 0.384 0.374 0.363 0.389 0.403 0.396 0.384 0.357 0.344
2189.804 0.343 0.342 0.351 0.328 0.317 0.33 0.308 0.304 0.311 0.303
2209.098 0.301 0.317 0.311 0.304 0.326 0.331 0.334 0.32 0.315 0.366
2228.391 0.362 0.325 0.343 0.345 0.35 0.385 0.396 0.378 0.387 0.395
2247.685 0.363 0.341 0.331 0.337 0.357 0.356 0.332 0.332 0.353 0.353
2266.978 0.342 0.346 0.357 0.355 0.348 0.342 0.35 0.365 0.377 0.389
2286.272 0.38 0.392 0.44 0.451 0.413 0.407 0.462 0.4835 0.4768 0.4864
2305.565 0.5367 0.56822 0.5506 0.55509 0.57952 0.55705 0.5241 0.5166 0.4967 0.4742
2324.858 0.4711 0.478 0.4774 0.463 0.4784 0.4984 0.482 0.453 0.44 0.413
2344.152 0.431 0.444 0.411 0.404 0.39 0.402 0.433 0.451 0.428 0.429
2363.445 0.451 0.458 0.453 0.451 0.4815 0.4674 0.458 0.4877 0.462 0.425
2382.739 0.401 0.401 0.411 0.379 0.36 0.378 0.41 0.415 0.408 0.399
2402.032 0.414 0.426 0.395 0.395 0.378 0.354 0.406 0.449 0.455 0.439
2421.326 0.407 0.378 0.37 0.421 0.4782 0.4662 0.4652 0.4748 0.4898 0.5005
2440.619 0.46 0.44 0.436 0.432 0.442 0.456 0.451 0.429 0.414 0.407
2459.912 0.43 0.436 0.395 0.357 0.36 0.383 0.376 0.374 0.354 0.323
2479.206 0.342 0.333 0.344 0.39 0.409 0.388 0.376 0.404 0.369 0.337
2498.499 0.341 0.3 0.286 0.306 0.334 0.357 0.301 0.254 0.262 0.268
2517.793 0.276 0.268 0.264 0.254 0.24 0.247 0.236 0.227 0.253 0.262
2537.086 0.24 0.227 0.216 0.216 0.217 0.23 0.269 0.247 0.211 0.212
2556.380 0.188 0.177 0.231 0.235 0.196 0.171 0.205 0.2 0.131 0.173
2575.673 0.21 0.187 0.172 0.173 0.176 0.169 0.153 0.135 0.166 0.186
2594.966 0.136 0.09 0.085 0.13 0.136 0.107 0.156 0.175 0.166 0.186
2614.260 0.183 0.17 0.13 0.095 0.109 0.144 0.144 0.161 0.174 0.186
2633.553 0.163 0.117 0.108 0.129 0.127 0.093 0.084 0.061 0.115 0.147
2652.847 0.099 0.064 0.036 0.066 0.102 0.098 0.099 0.085 0.073 0.08
2672.140 0.043 0 0.024 0.067 0.052 0.032 0.072 0.066 0.027 0.012
2691.434 0.029 0.072 0.069 0.042 0.06 0.042 0.016 0.045 0.023 0
2710.727 0.028 0.031 0.019 0.015 0.058 0.077 0.05 0.047 0.016 0.031
2730.020 0.058 0.036 0.053 0.095 0.078 0.062 0.098 0.138 0.153 0.127
2749.314 0.124 0.181 0.227 0.174 0.143 0.162 0.187 0.18 0.177 0.183
2768.607 0.168 0.184 0.178 0.125 0.101 0.139 0.149 0.169 0.161 0.13
2787.901 0.095 0.076 0.066 0.048 0.049 0.113 0.178 0.155 0.143 0.163
2807.194 0.257 0.252 0.172 0.186 0.172 0.161 0.173 0.205 0.196 0.16
2826.488 0.174 0.135 0.144 0.174 0.138 0.187 0.248 0.219 0.203 0.231
2845.781 0.235 0.2 0.195 0.256 0.24 0.171 0.172 0.207 0.33 0.398
2865.074 0.35 0.367 0.408 0.462 0.563743 0.61582 0.63138 0.66004 0.7549 0.8453
2884.368 0.9177 0.9529 0.9784 1.0832 1.2014 1.313 1.2943 1.2699 1.4058 1.5295
2903.661 1.584 1.624 1.624 1.614 1.614 1.604 1.5547 1.4819 1.4666 1.4785
2922.955 1.53 1.5052 1.4789 1.5178 1.594 1.634 1.754 2.094 2.434 2.574
2942.248 2.764 2.964 3.064 3.064 2.904 2.714 2.464 2.214 1.964 1.744
2961.542 1.584 1.4379 1.4324 1.4741 1.4625 1.604 1.794 1.874 2.084 2.444
2980.835 2.844 3.334 3.914 4.354 4.654 4.944 5.104 5.124 5.004 4.544
3000.128 3.894 3.344 2.854 2.484 2.074 1.764 1.4764 1.1978 1.0699 0.9123
3019.422 0.8299 0.7863 0.7638 0.729 0.7288 0.62455 0.59023 0.6899 0.63875 0.675
3038.715 0.7411 0.7896 0.8028 0.7095 0.7474 0.8286 0.8024 0.8566 1.0058 1.0539
3058.009 1.0327 1.0521 1.0983 1.1586 1.2502 1.4382 1.614 1.714 1.744 1.824
3077.302 1.854 1.964 2.124 2.244 2.304 2.164 1.964 1.754 1.5129 1.3226
3096.596 1.1504 0.9158 0.7724 0.65743 0.573572 0.6037 0.57758 0.424 0.387 0.387
3115.889 0.378 0.395 0.28 0.169 0.174 0.168 0.175 0.206 0.126 0.09
3135.182 0.151 0.159 0.072 0.115 0.138 0.055 0.06 0.064 0.016 0.043
3154.476 0.108 0.089 0.037 0.047 0.098 0.136 0.162 0.157 0.184 0.187
3173.769 0.185 0.234 0.215 0.171 0.261 0.249 0.122 0.113 0.09 0.108
3193.063 0.128 0.064 0.169 0.228 0.176 0.093 0.061 0.101 0.123 0.203
3212.356 0.222 0.226 0.192 0.154 0.25 0.195 0.111 0.198 0.173 0.124
3231.650 0.118 0.126 0.142 0.1 0.094 0.131 0.243 0.279 0.178 0.154
3250.943 0.218 0.207 0.094 0.013 0.147 0.209 0.136 0.112 0.104 0.157
3270.236 0.201 0.201 0.178 0.314 0.328 0.267 0.297 0.233 0.205 0.183
3289.530 0.177 0.147 0.144 0.143 0.05 0.069 0.08 0.174 0.222 0.093
3308.823 0.184 0.314 0.335 0.383 0.443 0.327 0.168 0.175 0.248 0.263
3328.117 0.253 0.242 0.205 0.228 0.294 0.301 0.206 0.257 0.323 0.297
3347.410 0.306 0.33 0.325 0.327 0.359 0.389 0.342 0.258 0.368 0.377
3366.704 0.33 0.394 0.331 0.293 0.333 0.321 0.266 0.296 0.33 0.26
3385.997 0.282 0.345 0.391 0.422 0.445 0.4727 0.388 0.31 0.325 0.32
3405.290 0.304 0.344 0.352 0.361 0.405 0.404 0.431 0.442 0.394 0.39
3424.584 0.438 0.445 0.438 0.437 0.409 0.436 0.427 0.395 0.305 0.312
3443.877 0.4948 0.5168 0.5132 0.5329 0.45 0.423 0.5268 0.5999 0.61662 0.65712
3463.171 0.55591 0.5137 0.59224 0.58066 0.5177 0.4995 0.60389 0.6673 0.60645 0.5358
3482.464 0.63102 0.7306 0.6878 0.6869 0.7723 0.7858 0.7512 0.7032 0.7399 0.8809
3501.758 0.9713 0.9785 1.0106 1.0875 1.115 1.0006 0.9564 0.9899 0.935 0.994
3521.051 1.006 0.9565 0.9561 0.9101 0.8591 0.8258 0.7848 0.7062 0.693 0.7547
3540.344 0.6939 0.6545 0.7631 0.739 0.61128 0.5459 0.5345 0.569643 0.462 0.4971
3559.638 0.65227 0.6774 0.62698 0.5914 0.569357 0.529 0.5232 0.58804 0.59019 0.5185
3578.931 0.5141 0.4842 0.455 0.415 0.42 0.56158 0.58225 0.45 0.459 0.4673
3598.225 0.425 0.4973 0.58618 0.5403 0.4796 0.488 0.511 0.5517 0.5309 0.5068
3617.518 0.4674 0.4986 0.58711 0.572355 0.515 0.457 0.5049 0.5358 0.436 0.381
3636.812 0.408 0.421 0.391 0.381 0.431 0.401 0.421 0.5083 0.4834 0.425
3656.105 0.4662 0.4985 0.41 0.412 0.431 0.408 0.452 0.4777 0.4671 0.426
3675.398 0.4649 0.563589 0.5168 0.435 0.413 0.4766 0.57788 0.5251 0.4678 0.455
3694.692 0.4739 0.495 0.4871 0.457 0.411 0.4673 0.4759 0.5131 0.5246 0.428
3713.985 0.411 0.445 0.4684 0.4928 0.436 0.414 0.448 0.4671 0.452 0.437
3733.279 0.409 0.388 0.449 0.4666 0.455 0.4817 0.4989 0.447 0.431 0.4915
3752.572 0.5106 0.4906 0.4977 0.4806 0.5049 0.5334 0.4999 0.45 0.404 0.344
3771.866 0.419 0.5159 0.4789 0.452 0.42 0.424 0.4 0.36 0.41 0.446
3791.159 0.4748 0.444 0.441 0.456 0.408 0.421 0.4869 0.5076 0.4751 0.4819
3810.452 0.459 0.409 0.429 0.408 0.415 0.4646 0.4655 0.424 0.376 0.419
3829.746 0.455 0.443 0.44 0.452 0.5172 0.5385 0.5113 0.5322 0.444 0.382
3849.039 0.414 0.43 0.397 0.368 0.346 0.34 0.446 0.464 0.412 0.443
3868.333 0.4775 0.5002 0.4964 0.4889 0.4689 0.384 0.454 0.5398 0.461 0.411
3887.626 0.41 0.461 0.5158 0.5076 0.4733 0.417 0.379 0.4655 0.5159 0.4757
3906.920 0.431 0.411 0.378 0.432 0.452 0.435 0.496 0.43 0.395 0.45
3926.213 0.5314 0.5595 0.4858 0.445 0.449 0.399 0.399 0.391 0.319 0.37
3945.506 0.4821 0.4721 0.368 0.38 0.393 0.372 0.393 0.446 0.419 0.37
3964.800 0.375 0.392 0.446 0.404 0.361 0.405 0.425 0.408 0.386 0.436
3984.093 0.5166 0.426 0.399 0.456 0.355 0.321 0.399 0.433 0.404
##END=
