##TITLE=cis-6-Nonen-1-ol
##JCAMP-DX=4.24
##DATA TYPE=INFRARED SPECTRUM
##ORIGIN=EPA-IR VAPOR PHASE LIBRARY
##OWNER=SRD/NIST
Collection (C) 2018 copyright by the U.S. Secretary of Commerce
on behalf of the United States of America. All rights reserved.
##CAS REGISTRY NO=35854-86-5
##MOLFORM=C 9 H 18 O
##$NIST SOURCE=MSDC-IR
##STATE=gas
##XUNITS=1/CM
##YUNITS=ABSORBANCE
##XFACTOR=1.
##YFACTOR=0.001
##DELTAX=1.92898
##FIRSTX=549.8
##LASTX=4000.7
##FIRSTY=3.23
##MAXX=4000.7
##MINX=549.759
##MAXY=0.14974
##MINY=0
##NPOINTS=1790
##XYDATA=(X++(Y..Y))
549.759 3.23 2.89 2.41 3.32 4.01 2.99 2.68 2.53 2.0241 3.35
569.049 4.04 3.34 4.47 5.95 5.04 3.97 4.88 5.9 5.09 4.18
588.339 3.86 3.67 4.31 4.33 3.95 3.82 3.34 3.73 4.12 3.67
607.628 3.28 3.83 3.75 3.07 3.14 2.74 2.39 3.45 4.09 3.35
626.918 3.72 4.39 4.1 4.1 4.48 4.48 4.44 4.5 4.22 5.07
646.208 5.13 4.39 4.55 4.54 4.78 5.28 5.52 5.62 5.7 5.63
665.498 5.94 6.48 6.96 7.32 7.51 7.23 7.21 7.79 8.69 9.28
684.787 9.15 9.49 10.31 10.78 11.03 11.6 12.42 13.12 13.43 13.39
704.077 13.54 14.02 14.13 13.54 13.12 13.33 13.56 13.29 12.71 12.53
723.367 11.94 11.08 11.33 11.23 10.54 9.77 9.42 8.96 8.58 9.12
742.657 8.43 7.83 7.81 7.54 7.58 7.07 6.24 6.21 5.58 5.09
761.947 5.52 5.02 5.14 5.37 4.9 4.91 4.88 4.89 4.73 4.7
781.236 4.88 4.68 4.49 4.91 5.11 5.04 5.73 5.95 5.67 5.04
800.526 4.7 5.12 4.89 4.79 5.18 5.1 4.84 4.6 4.17 4.59
819.816 4.24 2.1596 1.5311 3.41 4.54 4.13 4.52 4.46 3.93 4.1
839.106 3.7 3.79 5.04 5.26 4.82 4.62 4.61 4.6 4.86 5.29
858.395 5.34 5.6 5.99 5.78 6 6.28 6.81 6.85 6.65 6.9
877.685 7.14 7 6.85 7.34 6.96 6.62 6.96 7.31 7.19 6.47
896.975 6.33 6.37 5.98 6.27 6.08 5.79 6.2 6.08 5.82 6.14
916.265 6.32 6.04 5.85 6.14 6.49 6.34 6.46 6.54 6.37 6.01
935.555 6.56 7.62 7.85 7.91 7.93 8.04 8.41 8.41 8.38 8.98
954.844 9.48 9.51 9.69 9.95 9.98 9.98 10.1 10.42 10.77 11.11
974.134 11.67 11.74 12.09 12.86 12.53 13.2 13.88 13.65 13.69 14.23
993.424 15.3 15.88 17.21 17.79 17.75 18.3 18.79 19.67 20.29 20.81
1012.714 21.66 22.31 23.03 24.19 25.93 27.77 28.96 29.89 31.4 33.83
1032.003 36.56 38.18 39.53 41.52 42.49 42.72 42.89 42.28 42.42 43.2
1051.293 42.39 40.81 39.14 38.26 36.69 35.75 36.07 34.33 33.18 33.03
1070.583 32.43 30.83 29.44 28.34 26.82 24.73 21.09 18.83 17.19 16.29
1089.873 15.2 15.28 15.09 12.69 11.06 11.56 12.09 10.15 8.56 9.1
1109.163 8.22 7.04 7.52 7.89 7.45 6.59 6.31 6.55 7.72 7.75
1128.452 7.02 7.56 7.98 8.1 7.52 6.03 6.24 6.57 5.78 5.56
1147.742 5.79 6.07 6.34 6.57 6.29 6.31 7.3 7.18 6.51 6.74
1167.032 6.59 6.84 7.14 6.54 7.28 7.74 7.17 6.86 7.75 9.4
1186.322 9.15 8.89 8.89 9.64 10.11 9.32 9.1 8.55 9.95 12.16
1205.611 10.82 10.06 11.3 11 9.86 9.37 10.02 11.01 12.41 11.11
1224.901 10.1 11.48 11.92 11.38 11.46 11.28 11.62 11.8 11.26 11.65
1244.191 11.24 11.17 10.93 10.51 10.98 11.5 11.28 11.25 10.97 10.94
1263.481 11.54 11.5 11.34 10.82 10.75 11.08 11.36 11.05 10.74 10.97
1282.771 11.23 11.13 11.01 11.28 11.1 11.22 11.82 11.99 12.14 12.56
1302.060 12.74 12.87 12.86 12.56 12.17 11.66 11.23 10.9 10.53 10.17
1321.350 9.86 9.7 9.6 9.45 9.14 9.03 9.2 9.31 9.5 9.73
1340.640 9.8 9.95 10.32 10.57 10.53 10.63 10.87 10.68 10.62 10.81
1359.930 10.86 10.99 10.82 10.72 11.26 11.5 11.65 12.08 12.56 13.14
1379.219 13.59 13.67 13.91 14.12 14.14 14.27 14.41 14.34 14.09 13.98
1398.509 13.87 13.85 13.64 13.01 12.33 11.71 11.16 10.64 10.09 9.61
1417.799 8.92 8.53 8.65 8.63 8.61 8.92 9.36 9.56 9.81 10.33
1437.089 11.22 11.92 12.35 12.89 13.44 14.14 14.88 15.42 15.86 16.28
1456.378 16.44 16.35 16.31 16.12 15.78 15.44 14.79 13.97 13.38 12.86
1475.668 12.17 11.36 10.75 10.13 9.06 8.23 7.42 6.62 5.99 5.41
1494.958 4.98 4.79 4.41 4.12 3.9 3.58 3.59 3.35 3.35 3.32
1514.248 3.07 2.6 2.54 2.72 2.57 2.51 2.41 2.31 2.41 2.58
1533.538 2.63 2.23 1.8725 1.981 2.22 2.39 2.31 2.3 2.34 1.9624
1552.827 1.5934 1.8152 2.1489 2.35 2.22 2.0025 1.9266 2.0233 2.0202 2.1004
1572.117 2.3 2.0279 1.9893 2.0553 2.123 2.29 2.19 2.1375 1.6675 1.5025
1591.407 1.7212 1.6123 1.7824 1.8218 1.8716 2.1372 2.22 2.32 2.1448 1.7666
1610.697 1.9058 2.25 2.23 2.49 2.67 2.47 2.32 2.27 2.32 2.53
1629.986 2.61 2.47 2.75 3.19 3.39 3.52 3.43 3.63 3.86 3.73
1649.276 3.8 3.99 4.06 4.09 3.99 3.8 3.69 3.44 3.4 3.45
1668.566 3.33 3.31 3.43 3.39 3.01 2.95 2.98 3 3.17 2.86
1687.856 2.57 2.88 3.07 2.93 2.64 2.46 2.44 2.38 2.48 2.58
1707.146 2.33 2.0962 2.39 2.3 2.0084 2.0457 1.864 1.9876 2.23 2.0348
1726.435 1.9421 1.844 1.7587 1.8823 1.7001 1.9075 2.21 1.9794 1.8872 1.7418
1745.725 1.8502 1.9511 1.918 1.8065 1.6657 1.6737 1.618 1.7729 1.893 1.9566
1765.015 2.116 1.8229 1.6799 1.9951 1.8655 1.6465 1.6095 1.85 1.8617 1.5872
1784.305 1.5538 1.5646 1.5632 1.6779 1.8342 1.6262 1.4663 1.5307 1.4451 1.4052
1803.594 1.618 1.5356 1.33 1.4841 1.7446 1.7176 1.4162 1.4183 1.6311 1.6607
1822.884 1.5299 1.4726 1.4531 1.4556 1.4514 1.4965 1.5952 1.6339 1.5658 1.4078
1842.174 1.5042 1.5614 1.4221 1.4635 1.4807 1.4985 1.4303 1.4671 1.4913 1.425
1861.464 1.6022 1.7776 1.699 1.5673 1.5103 1.3017 1.3779 1.524 1.481 1.4914
1880.754 1.5673 1.5492 1.394 1.457 1.4896 1.3437 1.19449 1.25328 1.3846 1.3163
1900.043 1.1204 1.1152 1.2557 1.3208 1.4529 1.4265 1.3054 1.385 1.4612 1.4367
1919.333 1.6175 1.7114 1.6677 1.7354 1.5661 1.412 1.4404 1.4981 1.5266 1.4616
1938.623 1.4943 1.4581 1.3236 1.293 1.2834 1.3763 1.5766 1.7471 1.6329 1.3623
1957.913 1.3501 1.5778 1.6229 1.5752 1.5047 1.4304 1.521 1.5265 1.5676 1.6308
1977.202 1.5695 1.3856 1.3216 1.4407 1.447 1.5356 1.5501 1.4946 1.6236 1.5221
1996.492 1.4168 1.6409 1.678 1.5731 1.5436 1.3636 1.3791 1.4195 1.3926 1.27927
2015.782 1.3041 1.4566 1.5192 1.6935 1.7327 1.7928 1.7993 1.7303 1.7724 1.7647
2035.072 1.6942 1.6649 1.7114 1.9681 2.0763 2.0367 1.8987 1.8754 1.9708 1.8533
2054.362 1.7805 1.7538 1.7057 1.715 1.6476 1.6927 1.9285 2.0711 1.8005 1.5842
2073.651 1.5071 1.2941 1.3433 1.5779 1.5674 1.5257 1.6259 1.5219 1.4616 1.3542
2092.941 1.3991 1.559 1.5191 1.3342 1.2823 1.4255 1.5149 1.353 1.24718 1.327
2112.231 1.4246 1.3467 1.1212 1.1606 1.24883 1.3007 1.3736 1.2947 1.1573 1.313
2131.521 1.3987 1.3591 1.26061 1.18063 1.306 1.3542 1.27705 1.1201 1.017 1.028
2150.810 1.1319 1.426 1.5478 1.4056 1.1461 1.076 1.4027 1.6227 1.6223 1.4418
2170.100 1.19846 1.27419 1.4147 1.2962 1.3411 1.3941 1.3894 1.347 1.2944 1.3862
2189.390 1.4107 1.4494 1.4569 1.3869 1.3899 1.2972 1.2963 1.4299 1.4156 1.4285
2208.680 1.374 1.2907 1.3473 1.4155 1.26231 1.1478 1.3645 1.26493 1.19307 1.4964
2227.970 1.5532 1.3484 1.24287 1.1355 0.985 1.1242 1.3853 1.4551 1.3507 1.1624
2247.259 1.1147 1.28544 1.3819 1.5135 1.4889 1.2907 1.4349 1.6508 1.5751 1.4811
2266.549 1.5177 1.24494 1.1085 1.26912 1.297 1.5082 1.5195 1.3017 1.1207 1.02
2285.839 1.2989 1.4602 1.4469 1.5689 1.5968 1.27183 1.2987 1.671 1.526 1.5047
2305.129 1.5853 1.6848 1.4438 1.2218 1.3426 1.313 1.088 1.034 1.4457 1.7045
2324.418 1.7077 1.6858 1.879 1.8123 1.651 1.6225 1.6431 1.5329 1.5776 1.6719
2343.708 1.5692 1.5979 1.4786 1.3154 1.3827 1.372 1.22521 1.27446 1.5218 1.8248
2362.998 1.8508 1.3449 1.1205 1.6152 1.6787 1.38 1.3206 1.4652 1.5816 1.587
2382.288 1.5774 1.6527 1.6425 1.6233 1.7597 1.5573 1.4794 1.4712 1.1689 1.3748
2401.578 1.5851 1.4234 1.5541 1.5287 1.4156 1.3445 1.2945 1.3008 1.3894 1.5476
2420.867 1.4187 1.3684 1.2918 1.3329 1.6032 1.5331 1.6852 1.7395 1.4429 1.391
2440.157 1.5114 1.7196 1.4627 1.24831 1.4003 1.27504 1.3962 1.7766 1.658 1.395
2459.447 1.5693 1.6378 1.5919 1.7005 1.6795 1.6207 1.4867 1.3094 1.4956 1.8438
2478.737 1.8149 1.6259 1.5413 1.4552 1.42 1.6545 1.8109 1.5999 1.6134 1.7973
2498.026 1.5759 1.5431 1.6035 1.5354 1.5204 1.3032 1.4507 1.3938 1.3606 1.9552
2517.316 1.8049 1.3852 1.5506 1.8732 2.1053 1.918 1.756 1.6105 1.4995 1.7283
2536.606 1.8079 2.0274 2.0527 1.6562 1.632 1.8168 1.6618 1.6893 1.7479 1.7717
2555.896 1.9436 1.7223 1.4796 1.4786 1.3942 1.4921 1.8481 1.9891 1.8792 1.7523
2575.186 1.8324 1.7786 1.621 1.788 2.1211 1.9899 1.9219 2.1226 1.7938 1.4052
2594.475 1.1796 1.5329 1.6799 1.6463 1.9654 1.9985 2.0098 2.21 2.1127 1.8673
2613.765 1.7621 1.8298 2.0377 1.8719 1.9943 2.4 2.18 1.7293 1.9471 2.27
2633.055 2.1716 2.1374 2.46 2.59 2.43 2.27 2.36 2.7 2.81 2.85
2652.345 2.92 2.74 2.59 2.84 2.99 2.83 2.62 2.38 2.4 2.48
2671.634 2.55 2.7 2.79 2.89 2.74 2.77 3.19 3.19 3 3.09
2690.924 3.21 3.32 3.51 3.68 3.58 3.39 3.41 3.42 3.2 3.18
2710.214 3.29 3.39 3.7 3.86 3.62 3.43 3.62 3.53 3.59 3.79
2729.504 3.79 3.94 4.24 4.56 4.57 4.3 4.26 4.44 4.34 4.56
2748.794 4.92 4.84 4.78 4.84 4.99 5.06 4.99 5.16 5.19 4.92
2768.083 4.92 5.23 5.54 5.89 5.98 5.78 5.81 5.91 6.07 6.23
2787.373 6.34 6.78 7.1 7.18 7.18 7.04 7.27 7.53 7.63 7.78
2806.663 8.17 8.68 8.97 9.46 10.1 10.42 10.98 11.48 11.74 12.12
2825.953 12.59 13.65 14.93 16.1 17.45 18.99 20.46 21.71 23.72 26.1
2845.242 28.49 31.75 35.23 38.37 41.76 45.63 49.68 53.41 56.83 59.72
2864.532 62.46 64.91 66.7 68.14 69.14 69.88 70.68 71.28 71.45 71.56
2883.822 71.03 70.14 68.95 68.05 67.97 67.39 66.59 66.59 66.96 68.28
2903.112 70.31 72.98 75.7 78.51 82.28 86.05 90.4 95.29 100.38 105.97
2922.401 111.98 118.56 125.41 131.75 137.21 142.16 145.76 148.27 149.74 148.39
2941.691 144.81 140.19 134.71 127.58 119.36 112.31 105.85 99.87 95.01 91.55
2960.981 89.4 87.57 86.29 84.9 83.35 81.36 78.81 75.06 70.12 65.17
2980.271 59.76 54.04 49.27 44.74 40.8 38.13 36.39 35.08 34.42 34.78
2999.561 35.62 36.99 38.91 40.39 42 43.88 44.57 44.07 42.4 40.36
3018.850 38.02 35.19 31.43 27.53 23.85 20.65 18.26 16.05 14.15 12.29
3038.140 10.67 9.56 8.94 8.41 8.02 7.5 6.86 7.04 6.82 6.25
3057.430 6.3 6.02 5.38 5.37 5.52 5.27 5.04 4.84 4.89 5.02
3076.720 4.72 4.22 4.17 4.06 3.76 3.12 3.06 3.49 3.2 3.32
3096.009 3.62 3.57 3.56 3.49 2.94 2.64 2.76 2.95 2.74 2.64
3115.299 3.03 3.32 2.9 2.46 2.41 2.21 2.0891 2.27 2.46 2.39
3134.589 2.58 2.73 2.47 2.58 2.65 2.6 2.4 1.7316 1.5765 1.6211
3153.879 1.5487 1.8676 2.27 2.54 2.97 2.78 2.26 1.9147 1.8373 1.4331
3173.169 0.998 1.5597 1.7436 1.869 2.0511 1.7682 1.052 1.1464 2.0215 1.5679
3192.458 0.999 1.3785 1.4033 1.3407 1.8153 2.0072 1.7902 1.3468 1.26644 1.1449
3211.748 0.901 0.997 1.4113 1.3466 0.812 1.086 1.26696 1.3686 1.191 0.746
3231.038 1.1786 1.5737 1.4363 1.08 0.898 0.728 0.497 0.638 0.468 0.905
3250.328 1.4769 1.25122 0.867 0.81 0.847 0.733 0.756 1.1406 1.616 1.015
3269.617 0.894 1.4616 1.27505 0.836 0.608 0.679 1.067 1.18349 1.21074 1.1777
3288.907 1.27335 1.19959 1.20428 1.1651 0.899 1.046 1.037 1.1172 0.688 0.586
3308.197 0.784 0.948 0.969 0.788 1.28275 1.003 0.568 0.799 1.18411 1.046
3327.487 0.817 0.544 0.597 1.1242 0.818 0.438 0.933 1.27672 1.071 1.1778
3346.777 1.1527 1.013 1.27076 1.7969 1.4977 1.26393 1.4017 1.26005 0.829 0.611
3366.066 0.504 1.021 1.8198 1.7722 1.6172 1.19987 0.764 0.642 0.903 0.683
3385.356 0.4 1 0.914 1.004 1.5167 1.3342 0.989 0.811 0.736 0.935
3404.646 1.6717 1.4227 1.033 1.19666 1.24047 1.3352 0.957 0.72 0.86 1.048
3423.936 1.4556 1.3022 0.865 0.769 0.654 0.998 1.26004 1.4312 1.6379 1.4756
3443.225 1.4201 1.3846 1.8056 1.8169 1.3601 1.18208 0.992 1.2168 1.8849 1.8767
3462.515 1.3708 1.26624 1.3503 1.3164 1.4447 1.6112 1.4697 1.5667 1.5021 1.6162
3481.805 2.18 1.9867 1.43 1.23926 1.1729 1.5086 1.4894 1.5547 1.5706 1.19557
3501.095 1.3276 1.1069 0.662 0.702 1.028 1.3894 1.4383 0.938 0.27 0.06
3520.385 0.474 1.033 1.21534 1.19733 1.008 0.792 0.754 1.5703 2.1528 0.718
3539.674 0.356 1.20746 1.6191 1.7332 1.166 0.87 1.1333 1.26748 1.6645 1.9382
3558.964 1.25888 0.968 1.28341 1.078 0.989 1.325 1.1361 1.054 0.89 0.31
3578.254 0.639 1.17 0.963 0.791 1.08 1.3072 1.6154 1.6514 1.7093 2.0306
3597.544 1.4409 1.21164 1.8986 1.7779 1.5057 1.4173 1.4854 2.25 2.1465 1.935
3616.833 2.29 1.9112 1.9817 2.63 2.49 2.27 2.1832 2.6 2.9 2.85
3636.123 3.26 3.64 4.3 4.63 4.93 5.67 5.99 6.81 7.83 8.5
3655.413 9.15 10.16 10.92 11.13 11.34 11.61 12.11 11.96 11.51 11.37
3674.703 10.84 9.81 8.78 7.91 7.67 7.12 5.99 5.43 4.9 4.51
3693.993 4.03 3.79 3.5 3.12 3.07 2.45 1.8112 1.7735 2.37 2.55
3713.282 2.39 1.9485 1.6863 2.04 1.7717 1.2942 1.8006 1.8048 1.3476 1.18797
3732.572 1.063 1.632 2.0036 1.8971 1.27223 1.4694 2.1453 1.6861 1.25275 1.051
3751.862 1.25478 1.1749 0.7 0.668 1.26266 1.4376 1.4001 1.26179 0.837 1.24841
3771.152 1.9495 2.3 2.1896 1.3915 0.912 1.5897 1.6018 1.3243 1.079 1.1253
3790.441 1.4398 0.827 0.517 1.058 0.874 1.24794 1.67 1.006 1.398 1.3994
3809.731 1.061 1.24429 1.5327 1.6495 1.4231 1.668 1.8479 1.5249 1.0933 0.863
3829.021 1.25415 1.5644 1.718 1.3839 0.76 0.98 0.894 1.4604 2.1035 1.006
3848.311 0.725 1.5084 1.141 0.933 1.6598 1.8443 1.4045 1.4275 1.0979 0.776
3867.601 0.858 0.898 1.4219 1.4311 0.765 0.96 1.6347 1.5449 1.7482 1.7922
3886.890 1.3158 1.3455 1.7762 1.8903 1.88 1.3088 1.3472 1.5419 1.22136 1.6434
3906.180 1.8266 1.6012 1.5951 1.5942 1.4812 1.777 1.482 1.3005 1.26181 1.2923
3925.470 1.4604 0.816 0.378 0 0.382 0.756 0.866 0.639 0.364 0.848
3944.760 1.3593 1.4055 1.023 0.989 1.20056 1.3492 1.27815 1.54 1.4935 1.1661
3964.049 1.1715 1.4275 1.4604 1.1666 0.956 0.88 1.25867 1.918 1.9884 1.4753
3983.339 1.013 0.726 0.234 0.14 0.94 0.974 0.335 0.587 1.061 1.078
##END=
