##TITLE=3,3,3-Trifluoro-1,2-epoxypropane
##JCAMP-DX=4.24
##DATA TYPE=INFRARED SPECTRUM
##ORIGIN=EPA-IR VAPOR PHASE LIBRARY
##OWNER=SRD/NIST
Collection (C) 2018 copyright by the U.S. Secretary of Commerce
on behalf of the United States of America. All rights reserved.
##CAS REGISTRY NO=359-41-1
##MOLFORM=C 3 H 3 F 3 O
##$NIST SOURCE=MSDC-IR
##STATE=gas
##XUNITS=1/CM
##YUNITS=ABSORBANCE
##XFACTOR=1.
##YFACTOR=0.001
##DELTAX=1.92898
##FIRSTX=549.8
##LASTX=4000.7
##FIRSTY=7.679
##MAXX=4000.7
##MINX=549.759
##MAXY=0.813739
##MINY=0
##NPOINTS=1790
##XYDATA=(X++(Y..Y))
549.759 7.679 5.689 4.499 4.499 4.219 4.059 3.599 3.039 3.109 2.539
569.049 2.589 3.789 3.419 3.059 2.969 2.589 2.439 3.429 4.739 4.489
588.339 3.469 2.779 2.939 3.419 3.759 3.509 3.079 3.109 3.229 3.439
607.628 3.859 3.429 2.859 2.919 3.139 4.249 5.189 6.809 8.939 10.299
626.918 12.459 15.099 17.229 19.409 21.789 24.199 25.419 27.039 30.659 34.249
646.208 36.309 35.259 32.689 32.139 31.849 31.319 30.249 27.199 24.399 22.379
665.498 19.629 16.659 14.299 12.549 10.369 8.439 7.499 6.109 4.919 4.389
684.787 3.779 3.039 2.959 2.959 2.889 2.829 2.459 1.969 1.2877 1.1638
704.077 1.789 1.809 1.529 1.649 2.079 2.039 1.579 1.461 1.0997 1.091
723.367 1.2894 1.441 1.3762 0.8743 1.3013 2.379 2.459 1.789 1.669 2.209
742.657 1.919 2.089 2.519 2.379 2.969 3.439 3.379 2.989 3.329 3.979
761.947 4.239 4.509 4.909 5.169 5.639 6.919 7.889 8.739 8.849 8.359
781.236 8.809 9.209 8.979 8.869 9.149 8.839 8.129 7.839 7.489 6.539
800.526 6.049 6.269 5.909 5.189 4.569 3.519 3.479 3.289 2.579 3.889
819.816 3.979 3.369 3.969 4.459 5.299 6.519 7.499 8.649 10.159 11.529
839.106 13.459 15.219 16.739 18.669 20.309 22.239 24.419 25.899 27.159 28.369
858.395 29.149 29.239 28.819 28.419 27.919 27.109 25.759 24.129 22.099 20.079
877.685 18.949 18.179 18.289 19.299 20.949 22.789 25.399 29.119 32.709 37.019
896.975 41.839 45.889 49.229 52.499 55.609 58.529 61.169 62.719 63.509 63.259
916.265 61.489 58.619 54.879 50.829 47.039 43.359 39.599 35.569 31.639 27.929
935.555 24.089 20.979 18.179 15.519 13.449 11.829 10.739 9.429 8.259 7.609
954.844 6.859 6.639 6.779 6.939 7.899 8.989 9.949 11.509 13.709 16.439
974.134 19.669 23.539 27.559 31.859 36.199 40.059 43.919 47.429 51.059 54.989
993.424 58.359 59.289 58.969 59.229 57.689 55.179 53.179 50.169 46.559 42.929
1012.714 39.729 36.409 32.439 28.449 24.259 21.019 18.279 15.929 14.009 12.269
1032.003 11.539 11.569 11.149 10.339 10.399 11.089 11.099 11.139 12.369 12.849
1051.293 13.279 14.939 16.179 17.379 17.949 19.089 20.219 21.049 22.599 22.929
1070.583 22.539 21.429 20.559 20.699 20.159 19.659 18.959 18.009 16.199 15.209
1089.873 14.929 13.399 12.879 12.009 11.009 10.379 10.549 11.949 11.879 11.859
1109.163 14.459 15.839 16.109 17.479 19.249 21.939 25.189 30.249 35.819 39.539
1128.452 45.289 52.879 59.339 65.139 73.339 85.539 98.439 111.259 126.399 146.339
1147.742 169.209 194.689 223.999 257.489 297.199 342.309 394.179 454.159 517.169 584.969
1167.032 660.799 724.139 767.029 801.559 813.739 806.419 786.379 751.819 696.599 619.399
1186.322 532.269 445.209 366.119 301.149 249.839 207.509 173.369 145.539 118.309 95.949
1205.611 81.189 69.659 60.289 54.139 50.969 48.979 47.949 46.289 44.429 43.939
1224.901 44.729 47.239 49.099 51.049 55.019 58.699 64.919 73.609 82.309 91.169
1244.191 99.739 107.729 114.939 119.369 120.619 120.329 122.939 128.269 135.599 137.899
1263.481 128.959 127.199 134.779 142.889 148.289 150.919 153.499 156.379 160.179 165.099
1282.771 170.389 175.739 181.419 185.979 189.319 189.849 185.729 177.369 165.089 153.109
1302.060 142.629 131.209 119.359 107.479 95.769 84.639 74.569 65.709 57.679 50.409
1321.350 43.729 37.779 32.839 29.039 25.839 22.989 20.529 18.369 16.589 14.869
1340.640 13.399 12.249 11.169 10.239 9.509 8.929 8.559 8.329 8.159 8.099
1359.930 8.159 8.279 8.269 8.339 8.239 8.409 8.749 8.889 9.159 9.359
1379.219 9.549 9.699 9.889 10.189 10.369 10.589 11.129 11.759 12.479 13.519
1398.509 14.939 16.419 18.299 21.179 24.339 28.009 32.439 37.129 42.229 47.619
1417.799 52.839 58.119 62.849 66.989 70.299 72.249 72.879 72.369 71.059 70.079
1437.089 68.889 65.719 59.839 53.509 48.999 44.739 39.109 32.949 26.879 21.559
1456.378 16.829 12.999 10.349 8.189 6.699 5.689 4.999 4.569 4.239 4.069
1475.668 4.269 4.579 4.839 5.139 5.319 5.269 5.269 5.509 5.809 5.899
1494.958 5.769 5.319 5.229 5.109 5.019 4.979 4.699 4.689 4.429 4.019
1514.248 3.749 3.559 3.469 3.249 2.969 2.649 2.429 2.379 2.419 2.419
1533.538 2.229 2.219 2.339 2.209 2.069 2.079 2.149 2.339 2.299 1.999
1552.827 1.789 1.889 2.119 2.069 1.879 1.889 2.039 2.049 1.889 1.769
1572.117 1.869 1.819 1.729 1.919 1.869 1.639 1.4963 1.5133 1.3806 1.2452
1591.407 1.2416 1.129 1.0204 1.0671 1.2731 1.5075 1.3737 1.2901 1.3184 1.0227
1610.697 1.202 1.3715 1.2443 1.0156 1.1453 1.639 1.569 1.2933 1.589 1.889
1629.986 1.949 2.029 1.849 1.789 1.789 1.799 1.969 1.829 1.769 1.849
1649.276 1.789 1.759 1.519 1.4895 1.769 1.869 1.699 1.649 1.729 1.619
1668.566 1.2901 1.4839 1.669 1.619 1.609 1.579 1.819 1.939 1.909 1.939
1687.856 1.979 2.009 2.049 2.079 2.179 2.179 1.929 2.049 2.309 2.439
1707.146 2.419 2.279 2.219 2.189 2.229 2.189 2.089 1.859 1.829 1.949
1726.435 1.749 1.609 1.629 1.4607 1.3924 1.4362 1.4906 1.659 1.649 1.559
1745.725 1.569 1.669 1.569 1.4395 1.609 1.529 1.4905 1.819 2.069 2.029
1765.015 1.819 1.799 1.929 1.919 1.899 1.979 1.929 1.829 1.829 1.959
1784.305 2.159 2.169 2.159 2.079 1.949 1.779 1.699 1.799 1.939 2.069
1803.594 2.069 1.979 1.929 1.869 1.809 1.949 2.039 1.949 1.969 1.919
1822.884 1.999 2.009 1.909 1.929 1.709 1.3862 1.3437 1.4747 1.487 1.347
1842.174 1.1887 1.1856 1.2197 1.2011 1.3135 1.1936 1.1274 1.1654 1.0202 0.9867
1861.464 0.9792 0.9442 0.9816 0.9499 0.9139 1.1977 1.2224 1.0781 1.0447 0.9675
1880.754 0.9805 1.018 0.9383 0.9862 1.1053 1.1088 1.1442 1.2347 1.2151 1.2008
1900.043 1.2105 1.1643 1.2996 1.569 1.4802 1.4149 1.539 1.498 1.4177 1.3514
1919.333 1.4195 1.4169 1.5087 1.749 1.799 1.879 1.859 1.699 1.849 2.189
1938.623 2.109 1.899 2.079 2.219 2.369 2.389 2.389 2.579 2.639 2.529
1957.913 2.449 2.519 2.619 2.569 2.349 2.249 2.139 2.069 2.069 2.049
1977.202 2.039 2.009 1.889 1.709 1.659 1.699 1.539 1.4593 1.609 1.739
1996.492 1.729 1.579 1.549 1.4321 1.3368 1.5093 1.5168 1.4427 1.519 1.4744
2015.782 1.519 1.619 1.649 1.719 1.739 1.649 1.619 1.709 1.889 2.009
2035.072 1.919 2.019 2.249 2.339 2.259 2.159 2.149 2.239 2.139 2.049
2054.362 2.179 2.239 2.369 2.339 2.289 2.299 2.129 1.949 2.009 2.169
2073.651 1.849 1.679 1.809 1.619 1.519 1.539 1.629 1.679 1.4742 1.3227
2092.941 1.4096 1.3555 1.2832 1.4397 1.2404 1.1503 1.3207 1.272 1.1922 1.2424
2112.231 1.2591 1.124 1.1642 1.2803 1.33 1.2895 1.1927 1.214 1.2291 1.3482
2131.521 1.639 1.599 1.4508 1.719 1.679 1.4 1.609 1.709 1.579 1.749
2150.810 1.609 1.5161 1.859 1.919 1.679 1.609 1.679 1.719 1.579 1.519
2170.100 1.699 1.629 1.497 1.519 1.609 1.4969 1.3971 1.4435 1.4385 1.4666
2189.390 1.559 1.519 1.519 1.4906 1.4599 1.629 1.659 1.729 2.019 1.999
2208.680 1.889 1.809 1.939 2.009 1.709 1.539 1.699 1.749 1.639 1.859
2227.970 1.719 1.639 1.869 1.749 1.539 1.649 1.679 1.689 2.009 1.989
2247.259 1.859 1.979 2.119 2.239 2.289 2.519 2.639 2.719 2.859 2.769
2266.549 2.939 3.109 3.159 3.389 3.429 3.359 3.519 3.429 3.219 3.299
2285.839 3.269 3.249 3.449 3.429 3.339 3.429 3.289 3.179 3.049 2.829
2305.129 2.859 2.889 2.719 2.719 2.879 2.959 3.079 3.149 3.139 3.299
2324.418 3.209 3.119 3.289 3.499 3.439 3.149 3.159 3.439 3.609 3.449
2343.708 3.169 3.229 3.149 2.859 2.649 2.759 3.029 2.899 2.849 2.759
2362.998 2.549 2.309 2.179 2.099 1.999 2.109 1.959 1.889 1.709 1.3911
2382.288 1.3802 1.529 1.579 1.2637 1.3087 1.559 1.4828 1.3753 1.3522 1.375
2401.578 1.2599 0.988 1.0236 1.1336 1.2289 1.3871 1.1545 1.0377 1.1394 1.1174
2420.867 1.3118 1.4365 1.5075 1.4749 1.2687 1.4068 1.4591 1.4995 1.4253 1.3264
2440.157 1.659 1.699 1.549 1.3107 1.2852 1.539 1.599 1.4343 1.2702 1.1326
2459.447 1.107 1.4077 1.3349 1.1989 1.0174 0.8177 1.1542 1.3603 1.3195 1.4793
2478.737 1.3621 1.221 1.1972 1.1937 1.2494 1.0537 0.9983 0.9702 1.0468 1.0753
2498.026 0.9245 0.8615 0.7363 0.7014 0.7545 0.8859 0.8832 0.8804 0.9269 0.8229
2517.316 0.7232 0.6731 0.8717 0.994 0.9003 0.9507 0.9222 0.7974 0.8103 0.8679
2536.606 0.8301 0.7341 0.60762 0.8427 0.9253 0.7519 0.9139 1.0485 0.9135 0.7225
2555.896 0.6667 0.7498 0.8822 0.72 0.8817 1.0549 0.967 1.3499 1.519 1.1375
2575.186 1.0048 1.2364 1.2926 1.21 1.2497 1.2582 1.2236 1.3526 1.3573 1.1469
2594.475 1.004 1.13 1.2157 1.1776 1.2916 1.0926 1.1671 1.2199 1.0138 1.1926
2613.765 1.3799 1.235 0.8703 0.9924 1.197 1.1743 1.2545 0.9145 0.7147 1.0446
2633.055 0.9254 0.7066 0.6862 0.7965 0.8094 0.6863 0.9749 1.007 0.7542 0.696
2652.345 0.6553 0.9114 1.1471 0.9146 0.4336 0.326 0.528001 0.55096 0.418 0.4701
2671.634 0.54624 0.53372 0.57421 0.55945 0.4334 0.527861 0.8825 1.0217 0.9394 0.57947
2690.924 0.61811 0.9125 0.9028 0.791 0.8411 0.8705 0.9239 0.9374 0.7942 1.0049
2710.214 1.1106 1.4232 1.4863 0.8746 0.58764 0.6933 0.8247 1.0036 1.0193 1.2523
2729.504 1.629 1.4027 1.2403 1.0857 0.7652 0.59089 0.61359 0.7328 0.771 0.9948
2748.794 1.0388 0.8981 0.7131 0.353 0.382 0.32 0.213 0.57026 0.668 0.60839
2768.083 0.60352 0.6592 1.2547 1.3389 0.7186 0.53138 0.7047 0.6844 0.518466 0.5761
2787.373 0.8692 1.1518 1.2092 0.9172 0.8327 1.011 0.7925 0.59462 0.61037 0.59036
2806.663 0.525578 0.4309 0.6589 0.9327 1.0909 1.0129 0.9572 0.61652 0.362 0.6935
2825.953 0.8807 0.8089 0.742 0.9818 1.1576 1.3357 1.1555 1.0195 1.2438 1.154
2845.242 1.0998 1.3739 1.2302 1.0916 1.0213 0.7634 0.7971 0.7746 0.7229 0.6732
2864.532 0.57179 0.6322 0.7926 0.4896 0.5035 0.649 0.4871 0.7559 0.7366 0.6729
2883.822 1.141 0.9441 0.9646 1.413 1.2619 1.0724 1.1942 1.3872 1.4507 1.729
2903.112 1.889 1.819 1.769 1.609 1.949 2.319 2.019 1.919 2.269 2.389
2922.401 2.469 2.719 2.969 3.149 3.209 3.619 4.049 4.399 4.659 4.839
2941.691 5.179 5.249 5.689 6.199 6.209 6.479 6.629 6.719 6.579 6.369
2960.981 6.719 6.799 6.669 6.619 6.239 5.479 5.159 5.169 4.799 4.239
2980.271 3.789 3.979 4.369 4.339 4.269 4.929 5.689 6.219 6.879 7.399
2999.561 8.479 9.879 11.319 12.879 14.279 15.589 17.329 18.609 19.429 20.319
3018.850 21.519 23.049 23.799 23.909 23.619 23.229 22.589 22.039 21.519 20.599
3038.140 18.969 16.389 14.539 13.329 12.179 11.309 10.559 9.649 8.849 8.389
3057.430 7.849 7.929 8.289 8.189 8.349 9.069 9.679 10.569 11.519 12.119
3076.720 12.449 12.829 13.289 14.219 14.969 13.119 11.219 10.629 9.989 9.599
3096.009 8.689 8.129 7.409 5.909 4.889 4.229 3.589 2.939 2.409 1.909
3115.299 1.809 1.899 1.769 1.3611 0.9371 0.4912 0.384 0.7493 0.61355 0.7404
3134.589 0.9581 0.6802 0.6677 0.8191 0.4984 0.181 0.51159 1.0305 1.1488 1.089
3153.879 0.8977 0.8675 0.8843 0.6245 0.4414 0.60374 0.6257 0.6783 0.7569 0.9095
3173.169 1.0071 0.649 0.8356 0.9212 0.6556 0.6295 0.4672 0.6513 0.6981 0.8011
3192.458 0.9658 0.56924 0.4396 0.136 0.247 0.9731 1.0066 0.7828 0.9121 0.745
3211.748 0.8195 1.112 1.3413 1.2392 0.9495 0.5041 0.327 0.6455 0.8165 0.5045
3231.038 0.34 0.403 0.049 0.295 0.6633 0.8296 0.8787 0.9225 1.0058 0.7247
3250.328 0.501 0.58046 0.6872 0.59468 0.6578 0.6795 0.8817 0.9299 0.398 0.303
3269.617 0.8238 0.7686 0.51024 0.56811 0.6924 0.8709 0.8996 1.1434 1.5032 1.1387
3288.907 0.6353 0.6472 0.6461 0.8622 0.8627 0.355 0.191 0.5838 0.527027 0.059
3308.197 0.051 0.385 0.6214 0.8706 1.105 0.7821 0.6312 0.8375 0.5021 0.6314
3327.487 1.1553 0.8715 0.55564 0.4497 0.3 0.351 0.337 0.229 0.135 0.226
3346.777 0.333 0.4789 0.8373 1.0555 1.1145 0.9324 0.6496 0.6754 0.53995 0.7983
3366.066 1.0051 0.9527 1.0043 0.7765 0.9552 0.8762 0.60504 0.406 0.257 0.4856
3385.356 0.406 0.351 0.9098 1.3876 1.0969 0.9488 0.7235 0.169 0.049 0.277
3404.646 0.8749 1.2034 1.0779 0.4746 0.448 0.9579 0.8141 0.6587 0.175 0.32
3423.936 0.8946 0.8613 0.6902 0.497 0.405 0.6325 0.389 0.221 0.4887 0.406
3443.225 0.554 0.4458 0.062 0.57376 0.7095 0.377 0.22 0.241 0.8352 0.7137
3462.515 0.9766 1.0555 0.60979 0.415 0.034 0.4521 0.58619 0.6633 0.7386 0.7551
3481.805 0.8719 0.54342 0.344 0.8218 0.9929 0.5049 0.242 0.6931 1.1586 0.9246
3501.095 0.57536 0.7174 0.6513 0.135 0.53121 0.9039 0.7636 0.9127 0.6994 0.4257
3520.385 0.7666 0.8653 0.41 0.221 0.31 0.302 0.331 0.7609 1.0791 0.8261
3539.674 0.7698 0.6926 0.60424 0.7576 0.759 0.9562 0.5772 0.064 0.56506 0.59577
3558.964 0.342 0.5416 0.8169 0.6878 0.4502 0.4367 0.6718 0.9581 0.7243 0.6694
3578.254 0.7334 0.60868 0.674 0.862 0.9726 0.9187 1.1375 0.9554 0.6511 0.56401
3597.544 1.1564 1.3922 0.902 0.9371 1.2199 0.9637 0.53397 0.659 0.527075 0.405
3616.833 0.8568 1.1556 1.0145 1.1178 0.9768 0.6244 0.6716 0.7875 1.1265 1.0829
3636.123 0.8417 0.9139 0.7732 0.932 0.7524 1.0073 1.1228 0.336 0.285 0.486
3655.413 0.371 0.378 0.8257 0.8078 0.57685 0.309 0 0.6448 0.9753 0.6611
3674.703 0.195 0.32 0.4827 0.306 0.8587 1.0819 0.7209 0.9988 1.2104 0.8691
3693.993 0.58885 0.284 0.6988 0.7609 0.353 0.382 0.706 0.9209 0.9321 1.0679
3713.282 0.9163 0.4745 0.4288 0.4672 0.167 0.124 0.59025 0.9373 0.8584 0.9887
3732.572 0.9264 0.56298 0.377 0.54945 0.7877 0.9403 0.6943 0.6981 0.9493 0.8928
3751.862 0.9984 1.3249 0.9898 0.55652 0.8483 0.8635 0.5028 0.56708 0.4723 0.6129
3771.152 0.767 0.61307 1.0724 0.6772 0.693 1.2387 1.529 1.3716 0.5085 0.374
3790.441 0.61679 0.8021 1.0271 0.9736 0.8217 0.9158 1.3986 1.4144 0.8178 0.4848
3809.731 0.635 1.0269 1.2596 1.2552 1.4324 1.529 1.3105 1.1613 0.9928 1.3479
3829.021 1.619 1.649 1.3729 0.9038 0.6493 0.5069 0.82 1.0943 1.0116 0.7075
3848.311 0.8233 1.0906 1.3485 1.4446 1.4257 1.2942 1.1009 1.2828 1.2733 1.4473
3867.601 1.4177 1.1107 1.669 2.299 1.979 1.919 1.779 1.539 1.579 1.3202
3886.890 1.529 2.139 1.999 1.809 1.529 1.3084 1.3148 0.8488 0.7336 1.1588
3906.180 1.559 1.2414 1.1912 1.579 1.539 1.1473 1.1488 1.3805 1.2606 1.3711
3925.470 1.699 1.4327 0.8949 1.3722 2.049 1.929 1.719 1.4984 1.659 1.879
3944.760 1.829 1.629 1.4726 1.879 1.929 1.709 1.579 1.1798 0.9592 0.9617
3964.049 1.0656 0.8255 0.7429 0.9077 1.0435 1.0415 0.7591 0.6252 0.147 0.394
3983.339 1.1879 1.1506 0.699 0.7253 0.913 0.57222 0.8639 0.774 0.396 0.6491
##END=
