##TITLE=2-Chloro-2,4-dimethylpentane
##JCAMP-DX=4.24
##DATA TYPE=INFRARED SPECTRUM
##ORIGIN=NIST Mass Spectrometry Data Center
##OWNER=NIST Standard Reference Data Program
Collection (C) 2018 copyright by the U.S. Secretary of Commerce
on behalf of the United States of America. All rights reserved.
##CAS REGISTRY NO=35951-33-8
##MOLFORM=C 7 H 15 Cl
##$NIST SOURCE=MSDC-IR
##SPECTROMETER/DATA SYSTEM=HP-GC/MS/IRD
##STATE=gas
##XUNITS=1/CM
##YUNITS=ABSORBANCE
##XFACTOR=1.0
##YFACTOR=0.000002800
##DELTAX=4.0
##FIRSTX=550.0
##LASTX=3846.0
##FIRSTY=0.000423
##MAXX=3846
##MINX=550
##MAXY=0.028
##MINY=0
##NPOINTS=825
##XYDATA=(X++(Y..Y))
550.0 151 228 343 475 662 837 991 1168 1276 1275
590.0 1163 949 708 474 341 299 277 316 392 443
630.0 487 516 499 430 295 192 146 120 115 90
670.0 76 74 52 39 43 53 41 20 25 29
710.0 35 44 42 41 59 49 44 67 74 65
750.0 71 87 96 130 170 193 212 223 233 234
790.0 244 273 302 332 347 352 347 322 302 274
830.0 264 266 256 249 249 245 241 245 257 280
870.0 288 285 281 256 216 199 196 174 157 167
910.0 170 184 207 221 220 215 214 204 190 170
950.0 145 136 140 143 161 198 240 288 329 346
990.0 330 289 248 202 170 155 151 151 146 142
1030.0 127 121 124 130 131 140 165 197 242 292
1070.0 352 428 515 593 664 722 751 755 746 737
1110.0 738 770 864 1020 1247 1502 1723 1891 2005 2028
1150.0 1985 1920 1855 1783 1683 1561 1395 1193 994 820
1190.0 677 591 563 577 649 751 835 859 822 744
1230.0 624 494 401 349 351 374 411 447 470 493
1270.0 474 434 409 379 342 308 285 270 253 242
1310.0 238 232 223 218 238 275 316 387 498 641
1350.0 822 1036 1292 1569 1817 2071 2246 2210 2148 2057
1390.0 1863 1610 1326 1041 750 541 447 431 456 508
1430.0 597 730 897 1085 1284 1492 1684 1829 1901 1924
1470.0 1884 1723 1481 1215 953 710 530 408 327 272
1510.0 227 198 180 161 144 129 122 120 113 101
1550.0 95 96 87 83 90 86 84 78 66 62
1590.0 66 60 50 51 54 53 52 57 58 59
1630.0 69 73 69 75 75 70 64 53 48 51
1670.0 49 43 41 43 38 38 45 41 35 32
1710.0 30 29 27 27 24 23 23 27 26 20
1750.0 16 21 30 34 34 29 28 29 27 19
1790.0 16 22 27 25 23 21 21 22 14 13
1830.0 14 15 14 13 20 21 15 16 15 13
1870.0 18 14 7 10 14 10 13 15 17 14
1910.0 11 10 4 5 4 2 8 11 8 7
1950.0 5 5 10 5 2 5 10 10 5 9
1990.0 7 5 8 10 8 8 10 14 9 6
2030.0 9 8 10 13 10 8 6 7 7 8
2070.0 9 11 5 0 6 12 16 11 10 13
2110.0 15 14 13 20 17 14 11 10 15 20
2150.0 19 22 29 37 36 34 34 32 38 43
2190.0 39 42 40 34 34 40 38 32 28 21
2230.0 23 33 37 35 25 20 24 23 25 28
2270.0 28 29 27 25 32 33 37 37 31 30
2310.0 34 38 33 30 24 26 28 19 19 25
2350.0 22 26 32 34 29 21 25 35 35 32
2390.0 30 31 34 37 39 32 34 35 31 31
2430.0 35 36 39 36 25 37 46 42 44 46
2470.0 40 36 43 38 34 38 34 33 37 36
2510.0 29 32 37 38 47 52 53 53 51 47
2550.0 52 60 68 70 73 73 71 74 83 83
2590.0 77 77 80 86 85 79 82 90 92 95
2630.0 101 100 92 90 92 93 95 100 98 99
2670.0 105 110 108 110 118 120 117 124 142 152
2710.0 161 173 186 209 228 240 255 262 248 228
2750.0 211 202 199 209 219 227 245 245 248 257
2790.0 259 274 292 314 353 387 424 466 508 562
2830.0 623 693 783 893 986 1076 1204 1392 1662 2039
2870.0 2521 3009 3415 3694 3845 3869 3811 3772 3818 3951
2910.0 4188 4533 4987 5549 6172 6717 7039 7113 7041 6945
2950.0 6984 7335 8062 8978 9687 10000 9898 9398 8576 7645
2990.0 6609 5358 4237 3251 2373 1716 1222 901 702 567
3030.0 475 413 375 339 317 300 287 281 271 268
3070.0 274 283 281 268 257 247 236 223 213 208
3110.0 203 202 196 192 193 178 175 188 196 187
3150.0 186 193 181 175 190 194 192 194 173 169
3190.0 179 180 190 186 179 172 158 147 148 143
3230.0 142 150 144 133 122 114 111 118 111 90
3270.0 90 93 95 103 92 76 72 71 78 80
3310.0 84 78 71 81 87 77 65 67 69 69
3350.0 70 73 83 72 59 57 62 74 72 58
3390.0 59 73 73 60 54 55 52 55 66 60
3430.0 66 71 61 59 47 35 32 38 42 40
3470.0 32 21 22 31 33 36 41 44 42 36
3510.0 37 34 42 49 40 44 52 50 45 47
3550.0 36 21 26 42 35 17 23 32 35 35
3590.0 27 28 42 46 35 24 31 38 39 33
3630.0 27 29 31 35 32 24 24 33 38 29
3670.0 38 44 32 42 42 40 42 32 18 28
3710.0 41 39 30 34 32 18 32 47 53 46
3750.0 35 29 29 30 30 27 34 44 44 42
3790.0 47 47 52 55 48 45 42 47 52 57
3830.0 59 74 85 83 65
##END=
