##TITLE=2,2'-Ethylidene bis(4,6-di-t-butylphenol)
##JCAMP-DX=4.24
##DATA TYPE=INFRARED SPECTRUM
##ORIGIN=EPA-IR VAPOR PHASE LIBRARY
##OWNER=SRD/NIST
Collection (C) 2018 copyright by the U.S. Secretary of Commerce
on behalf of the United States of America. All rights reserved.
##CAS REGISTRY NO=35958-30-6
##MOLFORM=C 30 H 46 O 2
##$NIST SOURCE=MSDC-IR
##STATE=gas
##XUNITS=1/CM
##YUNITS=ABSORBANCE
##XFACTOR=1.
##YFACTOR=0.001
##DELTAX=1.92898
##FIRSTX=549.8
##LASTX=4000.7
##FIRSTY=6.77
##MAXX=4000.7
##MINX=549.759
##MAXY=0.37938
##MINY=0.0004486
##NPOINTS=1790
##XYDATA=(X++(Y..Y))
549.759 6.77 6.79 6.5 6.09 6.21 6.06 5.84 5.82 5.87 5.83
569.049 5.63 5.44 5.43 5.52 5.35 5.16 5.36 5.61 5.42 5.64
588.339 6.08 6.05 5.81 5.75 5.78 5.78 5.95 6.02 6.27 6.74
607.628 6.98 6.87 6.83 7.21 7.51 7.72 8.08 8.3 8.21 8.27
626.918 8.54 8.58 8.9 9.29 9.3 9.28 8.91 8.85 9.33 9.96
646.208 10.56 10.53 10.19 9.32 8.04 6.93 6.12 5.98 5.86 5.51
665.498 5.76 6.28 6.55 6.73 6.73 6.27 5.76 5.44 5.13 4.9
684.787 4.9 5 5.07 5.02 5.01 4.91 4.8 4.55 4.51 4.8
704.077 5.01 5.06 4.99 5.37 5.8 6.22 6.99 7.77 8.75 9.85
723.367 10.74 11.99 13.19 13.41 12.67 11.34 9.73 8.35 7.42 6.7
742.657 6.23 6.07 6.06 6.18 6.24 6.85 8.22 9.61 11.17 12.79
761.947 14.01 14.7 14.7 14.01 12.7 11.34 10.28 9.44 9.21 9.23
781.236 9.23 9.4 9.51 9.47 9.56 9.9 10.35 10.77 10.7 10.25
800.526 9.51 8.83 9 10.31 12.52 15.28 18.16 20.2 20.63 18.72
819.816 15.82 12.66 9.39 7.4 6.05 5.04 4.53 4.05 3.77 3.54
839.106 3.51 3.55 3.34 3.33 3.26 3.2 3.26 3.44 3.77 4.07
858.395 4.4 4.68 4.94 5.47 6.51 7.78 9.73 13.2 17.79 22.37
877.685 25.48 25.51 22.57 18.8 15.54 13.16 12.03 12.02 12.57 13.25
896.975 13.79 13.93 13.19 11.9 10.89 10.12 9.78 9.52 9.33 9.53
916.265 9.71 10.04 10.46 10.78 11.33 11.86 12.04 12.29 12.24 11.64
935.555 10.32 8.71 7.45 6.3 5.46 4.78 4.08 3.68 3.49 3.31
954.844 3.15 2.97 2.82 2.79 2.8 2.59 2.56 2.61 2.48 2.53
974.134 2.73 2.71 2.71 2.83 2.65 2.55 2.64 2.9 2.87 2.91
993.424 3.17 3.28 3.37 3.49 3.48 3.41 3.42 3.64 3.97 4.05
1012.714 4.11 4.44 4.88 5.33 5.5 5.34 5.21 4.8 4.39 4.45
1032.003 4.06 3.46 3.57 3.66 3.46 3.49 3.74 3.67 3.46 3.53
1051.293 3.68 3.98 4.2 4.63 5 5.24 5.53 5.76 6 6.22
1070.583 6.6 6.86 6.98 6.57 5.94 5.56 5.39 5.29 5.04 4.7
1089.873 4.87 5.12 5.31 5.86 6.27 6.67 6.94 8.12 9.96 10.9
1109.163 11.95 13.83 16.17 17.53 18.74 19.78 20.57 22.02 23.77 25.64
1128.452 26.32 25.53 24.15 22.93 21.89 21.36 21.42 22.04 23.32 25.16
1147.742 27.48 29.37 30.47 30.92 30.91 30.52 29.74 29.08 28.44 28.13
1167.032 29.04 30.15 31.58 33.86 36.51 39.82 43.79 47.82 51.98 56.42
1186.322 61.07 65.04 67.64 69.23 69.84 69.94 69.95 69.9 69.11 68.34
1205.611 68.69 69.47 70.08 69.88 68.15 64.74 60.73 57.32 55.08 54.88
1224.901 55.91 57.36 59.05 60.58 61.47 61.47 61.23 60.85 60.36 59.9
1244.191 59.04 57.89 56.2 54.26 52.39 50.45 48.72 47.05 45.48 43.7
1263.481 41.2 37.95 34.73 31.75 29.14 27.36 26.82 27.16 27.9 29.46
1282.771 31.7 34.18 36.38 37.79 38.34 37.71 36.02 33.88 31.45 29.28
1302.060 27.74 26.69 26.15 25.8 25.45 25.11 24.72 24.23 23.84 23.7
1321.350 23.51 23.22 22.82 22.09 21.01 19.7 18.35 17.1 16.13 15.46
1340.640 15.12 15.25 15.8 16.73 18.11 20 22.24 24.94 28.46 33.2
1359.930 39.76 48.37 57.64 64.01 64.6 59.46 51.64 44.41 39.24 35.83
1379.219 33 30.26 28.05 26.95 27.35 29.64 34.06 40 45.6 48.1
1398.509 46.13 40.93 35.42 31.75 30.3 30.49 31.59 32.97 34.12 34.45
1417.799 34 33.06 32.06 31.29 31.21 32.11 34.17 37.52 42.27 48.59
1437.089 57.04 66.71 77.18 87.39 95.43 99.87 100.3 97.87 94.34 91.48
1456.378 89.73 88.73 88.01 87.45 87.34 87.94 89.3 91.18 92.96 94.38
1475.668 94.97 94.16 91.13 85.09 76.05 65.02 53.45 42.82 33.89 27.07
1494.958 22.2 18.6 15.97 14.04 12.47 11.26 10.35 9.48 8.7 8.04
1514.248 7.48 7.02 6.71 6.51 6.16 5.82 5.64 5.41 5.09 4.79
1533.538 4.58 4.42 4.24 4.09 4.02 3.88 3.7 3.53 3.4 3.3
1552.827 3.23 3.06 2.98 3.13 3.18 3.17 3.2 3.2 3.23 3.4
1572.117 3.51 3.59 3.86 4.18 4.44 4.75 5.04 5.32 5.69 6.04
1591.407 6.37 6.76 7.09 7.14 6.96 6.65 6.1 5.35 4.67 4.11
1610.697 3.63 3.25 2.94 2.66 2.52 2.44 2.38 2.31 2.24 2.21
1629.986 2.12 2.03 2.02 2.05 2.03 1.95 1.93 1.98 1.98 1.96
1649.276 1.99 2 1.88 1.76 1.82 1.81 1.79 1.82 1.75 1.79
1668.566 1.77 1.67 1.61 1.6 1.57 1.55 1.58 1.55 1.54 1.49
1687.856 1.54 1.54 1.47 1.52 1.54 1.55 1.57 1.45 1.4 1.45
1707.146 1.46 1.46 1.45 1.48 1.53 1.57 1.59 1.56 1.54 1.56
1726.435 1.61 1.62 1.63 1.75 1.9 2.02 2.04 2.11 2.29 2.49
1745.725 2.77 3.11 3.51 3.86 4.12 4.41 4.64 4.82 5.01 5.16
1765.015 5.22 5.2 5.06 4.86 4.68 4.46 4.2 3.95 3.66 3.37
1784.305 3.11 2.89 2.74 2.54 2.27 2.08 2.01 1.93 1.84 1.74
1803.594 1.64 1.62 1.53 1.39 1.38 1.31 1.28 1.29 1.25 1.26
1822.884 1.19 1.19 1.13 0.9838 0.9818 1.01 1.01 1.04 1.03 1
1842.174 1 1.03 1 0.9459 0.9466 0.8876 0.8176 0.8175 0.8034 0.7729
1861.464 0.7586 0.7377 0.7238 0.7287 0.7619 0.7623 0.7272 0.7676 0.7691 0.7668
1880.754 0.8323 0.8201 0.7621 0.802 0.7963 0.755 0.7982 0.835 0.9273 1.02
1900.043 1.03 1.02 1.02 1.01 1.06 1.11 1.06 1.02 0.9737 0.9892
1919.333 1.13 1.25 1.18 1.08 1.03 1.04 1.09 1.07 1.08 1.08
1938.623 1.1 1.1 1.03 1 0.9826 0.9705 0.958 0.9091 0.9036 0.9087
1957.913 0.8863 0.893 0.8957 0.8526 0.8344 0.8223 0.7732 0.7535 0.782 0.8613
1977.202 0.8322 0.7615 0.791 0.8501 0.8569 0.8035 0.7367 0.6471 0.6738 0.7048
1996.492 0.6812 0.7235 0.7846 0.7881 0.8229 0.8414 0.8725 0.8895 0.8783 0.8388
2015.782 0.8265 0.8654 0.7776 0.7472 0.7486 0.7742 0.8288 0.7766 0.7651 0.765
2035.072 0.7099 0.6738 0.7173 0.7252 0.6832 0.7034 0.7 0.6878 0.6599 0.6508
2054.362 0.6013 0.546 0.5796 0.6003 0.5971 0.5993 0.6181 0.6481 0.6482 0.6491
2073.651 0.6149 0.5811 0.5908 0.6644 0.6944 0.651 0.597 0.5773 0.6216 0.5586
2092.941 0.536 0.5246 0.4819 0.4673 0.4486 0.4717 0.4977 0.502 0.4775 0.4699
2112.231 0.5472 0.5606 0.5155 0.5082 0.484 0.5087 0.5914 0.5845 0.6084 0.6048
2131.521 0.5371 0.5088 0.4693 0.4984 0.5964 0.5969 0.591 0.6728 0.6183 0.6099
2150.810 0.6567 0.6199 0.6214 0.6977 0.7069 0.6653 0.6788 0.7305 0.6952 0.6243
2170.100 0.6675 0.7382 0.722 0.7198 0.674 0.5844 0.5867 0.6194 0.6827 0.6787
2189.390 0.6293 0.6537 0.6109 0.5638 0.6322 0.6578 0.6247 0.6256 0.56 0.5045
2208.680 0.5453 0.5472 0.5695 0.5864 0.5385 0.5219 0.5956 0.5722 0.5071 0.5729
2227.970 0.6397 0.6612 0.6623 0.6624 0.7177 0.7266 0.7212 0.7037 0.6802 0.6596
2247.259 0.6511 0.7206 0.7297 0.7381 0.807 0.8172 0.7437 0.7669 0.7525 0.74
2266.549 0.7934 0.8447 0.8636 0.8128 0.9232 1.03 0.9665 0.9564 1 1.03
2285.839 1.12 1.16 1.1 1.02 1.07 1.1 1.02 1.03 1.07 1.02
2305.129 1.01 0.9832 0.9171 0.9212 0.948 0.9961 0.9677 0.9334 0.9102 0.9293
2324.418 0.9635 0.9754 1 0.96 0.8561 0.8841 0.9853 1 1.04 1
2343.708 1.06 1.16 1.17 1.16 1.21 1.25 1.2 1.2 1.26 1.38
2362.998 1.39 1.4 1.44 1.45 1.61 1.72 1.68 1.7 1.83 1.9
2382.288 1.98 2.08 1.99 1.93 2.01 2.01 1.93 1.94 1.96 1.84
2401.578 1.77 1.78 1.78 1.73 1.64 1.6 1.54 1.53 1.62 1.65
2420.867 1.6 1.61 1.65 1.61 1.6 1.63 1.68 1.68 1.64 1.68
2440.157 1.61 1.53 1.55 1.57 1.52 1.58 1.59 1.51 1.59 1.62
2459.447 1.67 1.67 1.64 1.69 1.73 1.62 1.56 1.64 1.65 1.67
2478.737 1.6 1.59 1.7 1.69 1.66 1.66 1.68 1.64 1.62 1.63
2498.026 1.61 1.65 1.7 1.66 1.63 1.66 1.67 1.72 1.72 1.64
2517.316 1.61 1.67 1.66 1.62 1.71 1.75 1.75 1.71 1.64 1.62
2536.606 1.62 1.62 1.64 1.64 1.64 1.61 1.65 1.75 1.76 1.75
2555.896 1.76 1.82 1.93 1.94 1.89 1.86 1.88 1.82 1.75 1.79
2575.186 1.69 1.65 1.81 1.9 1.81 1.77 1.81 1.83 1.82 1.82
2594.475 1.81 1.79 1.77 1.77 1.78 1.75 1.77 1.89 1.89 1.84
2613.765 1.9 1.93 1.9 1.91 1.93 1.93 1.99 2.03 2.12 2.19
2633.055 2.21 2.25 2.28 2.33 2.35 2.46 2.56 2.53 2.54 2.64
2652.345 2.67 2.61 2.73 2.74 2.66 2.68 2.61 2.63 2.66 2.57
2671.634 2.48 2.46 2.4 2.44 2.56 2.5 2.43 2.35 2.31 2.38
2690.924 2.4 2.44 2.54 2.56 2.67 2.79 2.81 2.83 3.02 3.28
2710.214 3.48 3.64 3.92 4.23 4.34 4.44 4.54 4.48 4.4 4.34
2729.504 4.14 3.92 3.86 3.88 3.79 3.66 3.71 3.85 3.92 3.93
2748.794 3.93 3.92 3.91 3.96 3.89 3.74 3.66 3.7 3.75 3.68
2768.083 3.65 3.78 3.94 4.04 4.11 4.35 4.65 4.83 5.02 5.28
2787.373 5.41 5.31 5.18 5.11 5.09 5.22 5.32 5.35 5.55 5.78
2806.663 6.05 6.47 6.76 6.91 7.26 7.58 7.72 7.9 8.09 8.29
2825.953 8.57 9.08 9.58 10.05 10.49 10.9 11.65 12.39 13.19 14.15
2845.242 15.28 16.73 18.4 20.45 22.94 25.99 29.33 33.18 37.91 43.46
2864.532 49.59 56.15 63.31 70.57 77.27 83.18 88.18 91.86 94.06 94.67
2883.822 93.47 91.09 88.14 85.25 82.89 81.44 81.44 82.55 84.56 87.56
2903.112 91.46 96.31 101.47 106.42 110.83 113.84 115.46 115.72 114.84 113.51
2922.401 112.23 111.13 110.34 110.07 110.4 111.71 113.82 117.08 121.35 126.2
2941.691 132.11 139.7 149.75 163.2 180.85 202.83 228.81 257.61 287.01 314.62
2960.981 339.24 359.82 374.33 379.38 370.52 346.46 309.93 266.7 222.34 180.44
2980.271 143.81 114.83 93.43 77.7 66.04 57.24 50.64 45.53 41.74 39.15
2999.561 37.55 36.71 35.84 34.39 32.01 28.63 24.75 21.12 18.14 15.98
3018.850 14.4 13.16 12.31 11.67 10.99 10.49 10.27 9.97 9.73 9.58
3038.140 9.29 9.12 9 8.85 8.85 8.87 8.74 8.58 8.48 8.36
3057.430 8.3 8.26 8.09 8.14 8.23 8.17 8.22 8.2 8.11 8.16
3076.720 8.13 8.05 8.13 8.39 8.52 8.59 8.73 8.56 8.48 8.64
3096.009 8.69 8.51 8.32 8.21 8.18 8.07 7.69 7.34 7.04 6.78
3115.299 6.46 5.97 5.66 5.43 5.09 4.87 4.8 4.66 4.48 4.53
3134.589 4.53 4.44 4.48 4.49 4.26 4.15 4.24 4.16 4.2 4.22
3153.879 4.26 4.41 4.42 4.43 4.47 4.48 4.51 4.54 4.63 4.8
3173.169 4.79 4.65 4.57 4.57 4.62 4.75 4.81 4.75 4.75 4.68
3192.458 4.59 4.47 4.38 4.44 4.45 4.39 4.37 4.37 4.27 4.11
3211.748 4 3.95 3.98 4.11 4.22 4.1 3.86 3.72 3.77 3.81
3231.038 3.78 3.77 3.63 3.6 3.64 3.45 3.27 3.36 3.31 3.24
3250.328 3.2 3.18 3.31 3.3 3.11 2.91 2.86 2.88 2.87 2.85
3269.617 2.89 2.89 2.89 3 3.09 3.04 2.91 2.87 2.77 2.83
3288.907 2.99 2.93 2.83 2.78 2.75 2.7 2.63 2.57 2.62 2.58
3308.197 2.63 2.85 2.87 2.71 2.63 2.62 2.53 2.46 2.42 2.5
3327.487 2.53 2.46 2.49 2.49 2.43 2.5 2.56 2.55 2.5 2.54
3346.777 2.73 2.62 2.41 2.42 2.57 2.58 2.53 2.62 2.55 2.6
3366.066 2.8 2.74 2.76 2.79 2.78 2.92 2.97 2.95 3.06 3.19
3385.356 3.25 3.24 3.36 3.4 3.4 3.46 3.67 3.95 3.97 3.98
3404.646 4.13 4.22 4.27 4.54 4.64 4.58 4.61 4.63 4.82 5.05
3423.936 5.22 5.43 5.58 5.73 5.76 5.77 6.13 6.5 6.65 6.78
3443.225 6.98 7.32 7.71 8.09 8.39 8.91 9.64 10.43 11.24 11.98
3462.515 12.99 14.09 15.14 16.32 17.75 19.08 20.51 22.14 23.81 25.79
3481.805 27.99 30.67 34.09 38.03 42.63 48.14 54.38 60.85 67.55 74.18
3501.095 80.18 85.45 89.5 92.63 95.19 96.88 97.44 97.3 96.59 95.24
3520.385 93.65 92.07 90.17 88.13 85.82 83.28 80.64 77.61 74.49 71.34
3539.674 68.27 65.3 62.48 59.72 56.77 54.05 51.7 49.24 46.87 44.79
3558.964 42.81 41.02 39.56 38.05 36.67 35.52 34.03 32.25 30.52 28.64
3578.254 26.58 24.84 23.21 21.56 20.04 18.63 17.37 16.13 14.85 13.87
3597.544 13.08 12.19 11.46 10.95 10.41 9.87 9.58 9.34 8.96 8.79
3616.833 8.86 9.18 9.71 10.2 10.8 11.7 12.57 13.33 13.46 13.24
3636.123 13.29 13.1 13.08 13.49 14.27 15.32 16.51 17.72 19.08 20.74
3655.413 22.57 24.34 25.59 26.41 26.6 25.93 24.57 22.72 20.51 18.35
3674.703 16.34 14.39 12.76 11.37 10.14 8.98 7.82 7.01 6.4 5.7
3693.993 5.23 4.57 4.18 3.9 3.56 3.42 3.09 2.88 2.68 2.53
3713.282 2.49 2.42 2.29 1.97 1.98 1.96 1.73 1.8 1.72 1.68
3732.572 1.69 1.68 1.58 1.26 1.21 1.17 1.17 1.33 1.4 1.43
3751.862 1.47 1.38 1.23 1.11 1.18 1.22 1.13 1.12 1.04 1.05
3771.152 1.21 1.27 1.19 1.1 1.13 1.25 1.28 1.29 1.29 1.36
3790.441 1.33 1.35 1.52 1.4 1.33 1.26 1.31 1.42 1.33 1.32
3809.731 1.34 1.33 1.48 1.53 1.37 1.39 1.48 1.45 1.42 1.47
3829.021 1.39 1.3 1.34 1.35 1.36 1.4 1.45 1.4 1.35 1.44
3848.311 1.53 1.38 1.38 1.63 1.63 1.61 1.57 1.5 1.41 1.45
3867.601 1.59 1.58 1.6 1.58 1.56 1.58 1.5 1.53 1.57 1.61
3886.890 1.67 1.71 1.88 1.93 1.78 1.78 1.99 2.09 2.16 2.06
3906.180 1.84 1.73 1.76 1.68 1.7 1.75 1.57 1.65 1.79 1.75
3925.470 1.6 1.63 1.66 1.61 1.56 1.6 1.73 1.68 1.61 1.62
3944.760 1.64 1.78 1.82 1.72 1.73 1.55 1.41 1.57 1.56 1.51
3964.049 1.53 1.53 1.5 1.43 1.31 1.19 1.33 1.46 1.39 1.39
3983.339 1.4 1.45 1.51 1.53 1.37 1.27 1.33 1.28 1.18 1.24
##END=
