##TITLE=5-Amino-6-nitroquinoline
##JCAMP-DX=4.24
##DATA TYPE=INFRARED SPECTRUM
##ORIGIN=EPA-IR VAPOR PHASE LIBRARY
##OWNER=SRD/NIST
Collection (C) 2018 copyright by the U.S. Secretary of Commerce
on behalf of the United States of America. All rights reserved.
##CAS REGISTRY NO=35975-00-9
##MOLFORM=C 9 H 7 N 3 O 2
##$NIST SOURCE=MSDC-IR
##STATE=gas
##XUNITS=1/CM
##YUNITS=ABSORBANCE
##XFACTOR=1.
##YFACTOR=0.001
##DELTAX=1.92898
##FIRSTX=549.8
##LASTX=4000.7
##FIRSTY=2.97
##MAXX=4000.7
##MINX=549.759
##MAXY=0.03691
##MINY=0
##NPOINTS=1790
##XYDATA=(X++(Y..Y))
549.759 2.97 3.48 3.65 3.73 3.79 3.91 4.45 4.69 4.57 4.01
569.049 3.85 3.62 3.07 2.82 3.24 3.67 3.51 3.43 3.29 3.47
588.339 3.71 3.8 4.23 3.93 3.57 3.7 3.64 3.37 2.88 2.39
607.628 1.79 1.82 2.03 2.22 2.46 2.33 2.27 2.02 2.03 2.36
626.918 2.26 2.04 2.18 2.13 2.14 2.21 2.09 2.04 1.95 2.22
646.208 1.97 1.68 2.04 1.99 1.82 1.97 2.09 2.2 2.26 2.12
665.498 2.13 2.27 2.41 2.32 2.2 2.28 2.18 2 1.87 1.82
684.787 1.82 1.77 1.6 1.53 1.61 1.58 1.89 2.25 2.42 2.27
704.077 1.99 1.81 1.74 1.84 1.67 1.49 1.55 1.77 1.93 1.98
723.367 2.06 2.05 2.09 2.14 2.11 2.01 1.78 1.85 2.14 2.06
742.657 2.18 2.39 2.32 2.18 2.13 2.33 2.58 3.11 3.89 4.5
761.947 4.97 5.6 6.44 7.18 8.17 8.53 7.56 6.55 5.98 5.8
781.236 5.4 4.91 4.3 3.64 3.65 3.93 4.04 4.64 5.66 6.59
800.526 7.51 8.3 9.38 9.99 9.68 8.91 7.94 6.74 5.76 5.67
819.816 5.57 5.36 5.46 5.58 6.18 6.84 6.4 5.26 4.65 4.6
839.106 3.87 3.02 2.67 2.18 2.09 1.88 1.74 1.83 1.97 1.94
858.395 1.76 1.59 1.4 1.35 1.46 1.92 2.27 2.1 1.92 2.15
877.685 2.3 2.38 2.3 2.31 2.67 3.09 3.33 3.41 3.43 3.41
896.975 3.17 2.99 3.09 2.95 2.5 2.06 1.76 1.57 1.64 1.61
916.265 1.43 1.49 1.53 1.3362 1.1754 1.2945 1.1644 1.0978 1.54 1.59
935.555 1.48 1.37 0.9312 0.8352 1.178 1.2613 1.0424 0.8265 0.8161 0.7926
954.844 1.0135 1.1759 1.2033 1.3173 1.133 1.1393 1.2811 1.2035 1.4 1.4
974.134 1.0269 1.0209 1.1954 1.4 1.57 1.43 1.3186 1.196 1.0748 1.0321
993.424 1.1117 1.2305 1.1442 0.8569 0.6556 0.8015 0.784 0.9727 1.1822 1.0443
1012.714 1.0688 0.8948 0.7444 1.1793 1.0293 1.076 1.1535 0.9308 1.1883 1.46
1032.003 1.2185 0.9986 0.9919 1.3167 1.2669 0.642 1.0189 0.9775 1.1551 1.44
1051.293 0.7693 0.728 0.99 1.2739 1.59 1.78 2.18 2.52 2.99 3.73
1070.583 4.29 3.64 3.91 4.66 4.51 4.03 3.43 3.76 3.11 2.51
1089.873 2.66 2.66 2.4 1.61 1.51 1.2491 1.42 1.89 1.44 1.2411
1109.163 1.0197 0.6081 0.9893 1.42 1.63 1.73 1.48 1.3351 1.5 1.2173
1128.452 1.3255 2.19 1.53 1.35 1.97 2.21 2.42 2.38 2.25 1.93
1147.742 2.04 2.32 2.21 2.63 2.92 2.86 2.89 3.61 4.14 4.15
1167.032 4.57 4.62 5.03 5.68 5.53 5.37 5.08 4.16 4.08 4.04
1186.322 4.13 4.24 3.76 3.46 3.62 3.4 2.41 2.68 2.86 2.35
1205.611 2.08 1.65 1.1691 1.0823 1.0115 1.1251 2.26 2.85 3.24 3.24
1224.901 2.33 2.16 1.83 1.79 1.98 1.98 2.48 2.39 2.23 2.67
1244.191 3.07 3.21 3.74 4.22 4.51 5.36 6.25 6.84 8.23 9.72
1263.481 10.1 10.09 9.21 8.65 8.32 7.18 5.98 5.08 4.45 4.14
1282.771 4.38 4.98 5.42 5.97 6.98 8.31 10.31 12.8 15.55 18.43
1302.060 21.16 23.53 25.41 26.66 27.12 26.71 25.77 24.76 23.92 23.34
1321.350 22.61 21.74 20.76 19.52 17.94 15.61 12.81 10.37 8.44 6.9
1340.640 5.87 5.11 4.6 4.36 4.15 4.03 4.02 4.02 3.96 3.95
1359.930 3.99 4 3.99 4.11 4.25 4.38 4.54 4.63 4.77 5.01
1379.219 5.14 5.27 5.59 6 6.48 7.25 8.4 9.8 11.66 13.91
1398.509 16.03 17.7 18.82 19.17 18.68 17.5 15.63 13.24 10.87 8.75
1417.799 7 5.96 5.23 4.55 4.15 3.83 3.45 3.24 3.05 2.82
1437.089 2.66 2.61 2.62 2.7 2.88 2.98 3 3.07 3.32 3.62
1456.378 3.91 4.2 4.62 5.31 6.07 7.01 8.16 9.21 10.24 11.18
1475.668 11.89 12.3 12.38 12.16 11.73 11.04 9.97 8.79 7.74 6.84
1494.958 5.98 5.23 4.88 4.83 4.78 4.83 5.13 5.69 6.37 7.2
1514.248 8.15 9.22 10.41 11.41 12.42 13.24 13.74 14.13 14.08 13.76
1533.538 13.13 12.08 10.71 9.21 8.04 6.97 6.09 5.36 4.7 4.31
1552.827 3.93 3.59 3.41 3.24 3.35 3.52 3.6 3.79 4.03 4.42
1572.117 5.18 5.88 6.59 7.57 8.58 9.68 10.84 11.82 12.9 14.2
1591.407 15.47 16.92 18.63 20.31 22.06 24.36 26.74 29.29 31.96 34.3
1610.697 36.09 36.91 36.87 35.78 33.7 31.11 27.81 24.07 20.3 16.55
1629.986 13.49 11.03 8.93 7.22 6.09 5.29 4.61 4.05 3.47 3.15
1649.276 2.88 2.62 2.44 2.35 2.22 2.04 1.93 1.86 1.78 1.67
1668.566 1.51 1.38 1.41 1.47 1.49 1.47 1.44 1.51 1.4 1.3229
1687.856 1.47 1.47 1.43 1.3434 1.209 1.1729 0.9026 0.9096 1.0434 1.0419
1707.146 1.1019 1.1277 1.1305 1.0051 0.9064 0.8653 0.8099 0.8702 0.8654 0.96
1726.435 1.1054 0.9612 0.7832 0.7026 0.7837 0.924 0.8315 0.8349 0.9342 0.9211
1745.725 0.9953 0.9537 0.8785 0.8931 0.8757 0.8672 0.902 0.8675 0.8297 0.895
1765.015 0.9331 0.8113 0.7434 0.7507 0.8004 0.941 0.9957 0.8945 0.8569 0.8486
1784.305 0.8778 1.0693 1.1465 1.1129 1.0223 0.8701 0.7017 0.7207 0.8024 0.6882
1803.594 0.6172 0.6323 0.6078 0.5951 0.5176 0.499 0.5695 0.5168 0.4913 0.5776
1822.884 0.5852 0.5567 0.5792 0.6354 0.6985 0.6936 0.6569 0.5971 0.6069 0.6452
1842.174 0.545 0.5259 0.5157 0.5774 0.6832 0.64 0.5991 0.6122 0.6389 0.6604
1861.464 0.6689 0.7022 0.7196 0.6922 0.7707 0.7697 0.7135 0.7508 0.7375 0.7129
1880.754 0.7576 0.8154 0.7736 0.7357 0.8073 0.7843 0.7624 0.8318 0.798 0.7802
1900.043 0.8617 0.9509 1.0525 1.1017 1.0881 1.063 1.0189 1.0076 1.0874 1.07
1919.333 0.9948 0.9271 0.922 0.9613 0.992 1.0155 1.0026 1.0614 1.0533 1.0004
1938.623 1.038 0.9922 0.9166 0.9248 0.8441 0.9071 0.8794 0.7325 0.6567 0.5395
1957.913 0.5272 0.4809 0.455 0.4586 0.5005 0.5234 0.547 0.5983 0.6283 0.6088
1977.202 0.5011 0.4857 0.5004 0.5264 0.5937 0.5646 0.44283 0.479 0.5082 0.5125
1996.492 0.5616 0.5235 0.5012 0.4717 0.4908 0.5203 0.5356 0.5561 0.5911 0.5969
2015.782 0.4964 0.4769 0.5204 0.5861 0.5922 0.6184 0.6574 0.5602 0.5067 0.5805
2035.072 0.556 0.42815 0.5302 0.5623 0.4937 0.4637 0.43711 0.42111 0.4897 0.6527
2054.362 0.6627 0.6004 0.5525 0.5084 0.4632 0.6115 0.622 0.5636 0.5516 0.5408
2073.651 0.6433 0.601 0.5817 0.5664 0.5877 0.5776 0.5077 0.5755 0.5282 0.4502
2092.941 0.4596 0.5273 0.6181 0.5472 0.5415 0.6049 0.532 0.5104 0.5099 0.5168
2112.231 0.6293 0.6107 0.534 0.5059 0.4601 0.482 0.4531 0.42476 0.5334 0.617
2131.521 0.5621 0.5513 0.6395 0.641 0.6857 0.6233 0.41676 0.4743 0.5258 0.36325
2150.810 0.36155 0.44538 0.501 0.51 0.4897 0.39654 0.43732 0.5129 0.4694 0.5116
2170.100 0.5778 0.4803 0.43149 0.43427 0.351111 0.4511 0.507 0.5078 0.5628 0.6425
2189.390 0.6733 0.6931 0.7426 0.6982 0.5695 0.53 0.5938 0.626 0.6024 0.7103
2208.680 0.7584 0.6099 0.5415 0.614 0.6249 0.6554 0.6412 0.4663 0.5058 0.6128
2227.970 0.5332 0.541 0.6323 0.4834 0.4619 0.5903 0.6077 0.6077 0.6201 0.5504
2247.259 0.5313 0.6695 0.6263 0.5863 0.6399 0.6715 0.6613 0.5579 0.5515 0.6721
2266.549 0.7287 0.6355 0.5882 0.4691 0.3144 0.4837 0.6273 0.547 0.5565 0.5611
2285.839 0.6326 0.6421 0.5412 0.5359 0.5788 0.5866 0.6947 0.684 0.6883 0.7391
2305.129 0.5697 0.5783 0.6316 0.6923 0.6793 0.6758 0.7272 0.7978 0.7364 0.6525
2324.418 0.6643 0.599 0.6112 0.5989 0.5339 0.5124 0.4788 0.5064 0.6122 0.5306
2343.708 0.4913 0.4986 0.4523 0.521 0.5589 0.5225 0.4519 0.43035 0.4684 0.38014
2362.998 0.322 0.5338 0.6472 0.6021 0.621 0.6409 0.7032 0.6922 0.6594 0.6283
2382.288 0.6123 0.5882 0.5831 0.618 0.6003 0.6086 0.5881 0.5586 0.6343 0.626
2401.578 0.623 0.5748 0.5062 0.6765 0.7369 0.6055 0.5534 0.5671 0.5534 0.5239
2420.867 0.633 0.6935 0.7084 0.6683 0.5687 0.5519 0.6407 0.7069 0.6542 0.7243
2440.157 0.6687 0.5895 0.6485 0.7569 0.6462 0.4887 0.5424 0.5672 0.5808 0.6065
2459.447 0.4903 0.4553 0.6316 0.784 0.7724 0.6819 0.7366 0.7579 0.598 0.7603
2478.737 1.0437 0.8601 0.6412 0.6118 0.6678 0.7707 0.7673 0.6442 0.6008 0.6312
2498.026 0.6051 0.6478 0.6563 0.5007 0.42102 0.37868 0.44729 0.6136 0.4952 0.4744
2517.316 0.5854 0.6203 0.5801 0.5188 0.5247 0.4603 0.43057 0.5595 0.695 0.5682
2536.606 0.44124 0.5402 0.5403 0.42221 0.4684 0.4869 0.5671 0.6332 0.44113 0.43987
2555.896 0.5423 0.5888 0.5902 0.534 0.6839 0.683 0.644 0.6539 0.6165 0.64
2575.186 0.533 0.5299 0.5631 0.5169 0.5199 0.5857 0.5717 0.5815 0.6415 0.5892
2594.475 0.6731 0.6934 0.707 0.6679 0.43782 0.5424 0.7601 0.7138 0.6083 0.611
2613.765 0.5296 0.5288 0.6672 0.6867 0.6312 0.5095 0.44015 0.6094 0.6846 0.5609
2633.055 0.5566 0.5989 0.5733 0.502 0.5148 0.5775 0.5481 0.4687 0.5365 0.5858
2652.345 0.5199 0.4841 0.4003 0.5097 0.5974 0.5503 0.4539 0.3686 0.43378 0.471
2671.634 0.5532 0.6211 0.7697 0.7722 0.6318 0.6016 0.655 0.714 0.5651 0.5062
2690.924 0.5031 0.38654 0.6182 0.7583 0.722 0.6836 0.4915 0.5321 0.5933 0.6493
2710.214 0.6075 0.4995 0.5261 0.5439 0.5568 0.5777 0.6175 0.7722 0.7658 0.6342
2729.504 0.6077 0.5884 0.629 0.6704 0.6234 0.5272 0.5623 0.6348 0.5681 0.5255
2748.794 0.6139 0.6518 0.6033 0.6887 0.8855 0.8947 0.7184 0.6087 0.6076 0.5172
2768.083 0.4995 0.6714 0.6783 0.6346 0.64 0.6356 0.6813 0.7106 0.8151 0.7437
2787.373 0.6146 0.6646 0.7444 0.8295 0.8109 0.5511 0.5121 0.6641 0.7623 0.8559
2806.663 0.7378 0.5001 0.38978 0.525 0.6888 0.657 0.7444 0.756 0.5433 0.5907
2825.953 0.6684 0.5968 0.5964 0.6458 0.497 0.4727 0.6117 0.5916 0.6669 0.6907
2845.242 0.7055 0.8375 0.7722 0.6894 0.6978 0.6266 0.5628 0.5969 0.6411 0.8213
2864.532 0.8394 0.8041 0.8221 0.7074 0.6967 0.7521 0.8703 0.7826 0.6637 0.7224
2883.822 0.7132 0.7395 0.9433 1.0281 0.8061 0.6624 0.7109 0.8127 0.7012 0.6803
2903.112 0.6474 0.4936 0.6392 0.713 0.71 0.6912 0.6666 0.7509 0.7247 0.7358
2922.401 0.6815 0.5324 0.6639 0.8338 0.6658 0.5166 0.5125 0.5994 0.7198 0.6547
2941.691 0.6033 0.6938 0.72 0.5594 0.44035 0.39138 0.5358 0.7169 0.7199 0.6287
2960.981 0.5714 0.7035 0.7625 0.8314 0.9441 0.8532 0.7459 0.8492 0.8707 0.7888
2980.271 0.8107 0.867 0.9254 1.0534 1.1172 1.051 1.049 1.1297 1.1181 1.0239
2999.561 1.1325 1.2119 1.1345 1.1108 1.0901 1.0692 1.1263 1.1152 1.0979 1.1617
3018.850 1.1351 1.119 1.1075 1.0846 1.3118 1.44 1.38 1.6 1.87 1.76
3038.140 1.79 2.1 2.15 2.1 2.2 2.4 2.44 2.38 2.31 2.2
3057.430 2.34 2.39 2.38 2.4 2.37 2.4 2.43 2.59 2.72 2.81
3076.720 2.91 2.78 2.68 2.79 2.56 2.2 1.89 1.58 1.44 1.36
3096.009 1.2781 1.1789 1.0804 0.9477 0.8608 0.8643 0.8469 0.7675 0.7496 0.659
3115.299 0.5075 0.5686 0.5791 0.5619 0.5683 0.5226 0.5094 0.4639 0.38468 0.37141
3134.589 0.2576 0.2786 0.299 0.2969 0.5464 0.6321 0.6596 0.7348 0.6914 0.4801
3153.879 0.4727 0.635 0.6784 0.8502 0.6871 0.5597 0.7039 0.6483 0.5637 0.42784
3173.169 0.353284 0.37578 0.4669 0.6841 0.7876 0.7094 0.4628 0.3725 0.3213 0.2752
3192.458 0.39153 0.4942 0.5264 0.4919 0.5518 0.6913 0.8064 0.661 0.43399 0.3386
3211.748 0.43219 0.38481 0.42803 0.6871 0.6623 0.4608 0.2532 0.2924 0.39853 0.42217
3231.038 0.4942 0.5731 0.4624 0.2949 0.38508 0.4515 0.38849 0.4084 0.38978 0.169
3250.328 0.224 0.2723 0.026 0.097 0.192 0.155 0.34249 0.4888 0.5035 0.5708
3269.617 0.39402 0.2741 0.36058 0.2986 0.40391 0.43488 0.39591 0.4626 0.43069 0.3165
3288.907 0.3026 0.5004 0.5221 0.4843 0.42611 0.39997 0.5126 0.5036 0.4659 0.4992
3308.197 0.5175 0.554 0.5287 0.5024 0.5692 0.4952 0.597 0.8245 0.8319 0.8409
3327.487 0.8284 0.6456 0.5449 0.6639 0.8772 0.9616 0.9299 1.0255 1.201 1.3118
3346.777 1.4 1.41 1.6 1.91 1.99 2.23 2.68 3.12 3.56 3.91
3366.066 4.32 4.85 5.31 5.67 6.03 6.35 6.52 6.7 6.62 6.34
3385.356 5.83 5.44 5.26 4.71 4.16 3.7 3.29 2.92 2.48 2.17
3404.646 2.13 1.91 1.59 1.36 1.38 1.51 1.2875 1.2126 1.2872 1.0688
3423.936 0.859 0.8258 0.7052 0.6107 0.6592 0.7064 0.6572 0.6301 0.6967 0.5598
3443.225 0.4598 0.6917 0.6806 0.6188 0.8097 0.8084 0.6996 0.6004 0.5171 0.6726
3462.515 0.6806 0.5751 0.5573 0.5574 0.7995 1.0159 0.8459 0.7696 0.6121 0.6349
3481.805 0.9786 1.089 0.9499 0.8991 1.051 1.0612 1.2883 1.66 1.83 1.69
3501.095 1.77 1.98 2.14 2.36 2.4 2.73 3.19 3.38 3.6 3.73
3520.385 3.89 3.9 3.75 3.84 3.82 3.49 3.37 3.22 2.77 2.46
3539.674 2.42 2.32 2.16 1.73 1.2521 1.284 1.2343 1.0865 0.9697 0.8039
3558.964 0.7655 0.7542 0.6347 0.5939 0.6178 0.6608 0.674 0.5029 0.34792 0.2637
3578.254 0.4827 0.6709 0.5416 0.5669 0.5943 0.3431 0.36432 0.5136 0.38456 0.38706
3597.544 0.37789 0.5281 0.7169 0.5473 0.4575 0.41767 0.357327 0.259 0.184 0.2972
3616.833 0.5003 0.5935 0.4895 0.43442 0.38288 0.209 0.205 0.42088 0.554 0.2775
3636.123 0 0.193 0.40987 0.4882 0.2827 0.215 0.336 0.42419 0.5413 0.3667
3655.413 0.22 0.349243 0.37073 0.246 0.048 0.177 0.34596 0.199 0.41369 0.6187
3674.703 0.4953 0.3999 0.4906 0.5912 0.43197 0.3236 0.146 0.188 0.6556 0.6777
3693.993 0.3993 0.2822 0.163 0.208 0.4893 0.733 0.7312 0.5057 0.5299 0.43985
3713.282 0.229 0.3202 0.5208 0.349218 0.2605 0.3175 0.36953 0.5218 0.5457 0.454
3732.572 0.4721 0.6302 0.2811 0.178 0.42994 0.213 0.103 0.34198 0.2739 0.099
3751.862 0.214 0.38102 0.40105 0.5333 0.5309 0.38224 0.36633 0.225 0.2703 0.4587
3771.152 0.5007 0.5398 0.5608 0.4918 0.42322 0.3395 0.42637 0.5425 0.3212 0.2576
3790.441 0.40636 0.4774 0.35108 0.165 0.2773 0.2772 0.2826 0.39188 0.4764 0.6091
3809.731 0.5064 0.44841 0.4591 0.43975 0.6349 0.42818 0.2542 0.3393 0.358822 0.4739
3829.021 0.4972 0.43969 0.44761 0.37805 0.2772 0.234 0.193 0.609 0.8968 0.6456
3848.311 0.4721 0.6651 0.57 0.238 0.3281 0.38664 0.3345 0.358023 0.39681 0.3139
3867.601 0.2662 0.4803 0.5013 0.4508 0.44119 0.37739 0.34969 0.2988 0.2611 0.326
3886.890 0.248 0.146 0.213 0.225 0.3064 0.4511 0.4507 0.34009 0.43773 0.5564
3906.180 0.355958 0.36406 0.4528 0.6423 0.5993 0.38429 0.41274 0.3332 0.2818 0.091
3925.470 0.085 0.44117 0.5705 0.36954 0.41931 0.5862 0.42488 0.4853 0.6932 0.681
3944.760 0.5406 0.41814 0.3033 0.3195 0.4878 0.5997 0.4796 0.38749 0.43689 0.6184
3964.049 0.5242 0.3056 0.41147 0.40366 0.4662 0.4242 0.44378 0.438 0.4295 0.5047
3983.339 0.6078 0.629 0.6863 0.6175 0.4957 0.524 0.36007 0.3337 0.37704 0.41873
##END=
