##TITLE=3-(2,6-Dichlorophenoxy)prop-1-yne
##JCAMP-DX=4.24
##DATA TYPE=INFRARED SPECTRUM
##ORIGIN=EPA-IR VAPOR PHASE LIBRARY
##OWNER=SRD/NIST
Collection (C) 2018 copyright by the U.S. Secretary of Commerce
on behalf of the United States of America. All rights reserved.
##CAS REGISTRY NO=3598-66-1
##MOLFORM=C 9 H 6 Cl 2 O
##$NIST SOURCE=MSDC-IR
##STATE=gas
##XUNITS=1/CM
##YUNITS=ABSORBANCE
##XFACTOR=1.
##YFACTOR=0.001
##DELTAX=1.92898
##FIRSTX=549.8
##LASTX=4000.7
##FIRSTY=2.975
##MAXX=4000.7
##MINX=549.759
##MAXY=0.063425
##MINY=0
##NPOINTS=1790
##XYDATA=(X++(Y..Y))
549.759 2.975 2.865 1.965 2.535 3.455 2.565 2.215 3.425 3.425 3.105
569.049 2.845 2.455 2.435 2.015 2.345 2.605 2.415 3.005 3.545 3.245
588.339 2.965 3.645 3.965 3.485 3.295 3.495 4.435 4.955 5.215 6.465
607.628 7.085 7.165 7.525 8.655 9.745 10.945 12.185 12.825 14.635 16.375
626.918 18.015 19.545 20.545 20.845 20.285 18.895 17.205 16.195 14.565 13.395
646.208 13.425 13.065 12.545 12.175 11.635 11.365 12.635 14.085 15.695 18.005
665.498 20.055 21.495 22.705 23.475 22.495 19.895 17.175 14.745 12.285 10.025
684.787 8.205 6.865 5.825 4.905 4.385 3.955 3.605 3.535 3.295 2.895
704.077 2.705 2.735 2.645 2.255 2.255 3.035 3.305 3.175 4.075 5.115
723.367 5.325 5.595 6.295 7.475 7.775 7.855 8.685 9.405 9.485 9.205
742.657 8.795 8.265 7.715 6.945 6.565 6.835 7.625 9.205 11.245 14.095
761.947 18.415 22.465 26.585 33.395 42.365 45.435 40.715 37.555 37.645 37.235
781.236 35.345 33.675 34.125 35.225 35.925 36.895 37.145 35.945 33.535 30.185
800.526 26.205 22.045 18.135 14.395 11.135 9.265 7.855 7.085 6.575 5.545
819.816 5.365 4.935 4.095 4.175 4.305 3.895 3.715 3.895 3.915 3.625
839.106 3.745 3.855 3.345 3.225 3.105 3.155 3.465 3.365 3.075 2.715
858.395 2.565 2.385 1.835 1.4084 1.528 2.255 2.825 2.455 2.065 1.625
877.685 1.3557 1.615 1.785 1.905 2.245 2.075 2.165 2.615 2.575 3.055
896.975 3.365 3.185 3.395 3.215 3.125 3.615 3.595 3.665 4.355 4.945
916.265 5.155 5.725 6.565 6.965 7.345 8.105 8.865 8.875 8.885 8.785
935.555 8.485 8.095 7.705 7.975 8.135 7.885 7.375 7.605 8.575 8.625
954.844 8.085 8.505 9.115 9.295 10.075 10.465 10.815 11.615 12.565 14.115
974.134 15.245 16.845 19.475 22.265 24.795 28.005 32.735 38.485 44.045 49.325
993.424 54.055 57.245 58.695 57.915 55.475 51.515 46.075 39.925 34.165 28.355
1012.714 23.405 19.375 15.755 13.385 10.835 9.555 9.525 9.355 8.775 8.215
1032.003 7.965 7.785 7.565 6.655 6.695 6.505 5.665 5.785 5.695 5.125
1051.293 4.775 4.735 5.555 7.555 9.365 10.855 12.595 13.585 13.835 14.395
1070.583 15.935 16.475 15.975 15.345 12.965 10.445 8.475 7.565 6.285 4.215
1089.873 4.615 5.885 6.295 6.425 5.795 6.825 8.555 7.465 6.685 6.205
1109.163 4.805 4.055 3.705 3.895 3.045 2.845 4.115 3.415 1.985 1.3233
1128.452 1.725 2.195 2.035 1.765 1.765 1.945 2.255 3.115 4.255 5.285
1147.742 5.275 4.785 3.725 3.825 4.675 4.405 4.315 3.985 3.715 3.555
1167.032 3.135 3.045 3.045 2.755 2.595 2.555 2.605 3.375 3.665 3.145
1186.322 3.665 4.835 5.625 6.825 8.195 9.635 11.005 11.935 12.245 11.635
1205.611 12.525 12.995 12.375 13.255 14.285 13.715 14.515 18.835 23.985 28.635
1224.901 33.575 38.735 43.985 48.985 52.065 54.485 54.785 54.155 53.285 51.295
1244.191 48.685 45.705 42.695 39.205 35.675 32.535 30.355 27.935 25.285 23.095
1263.481 21.525 20.325 19.715 18.425 16.005 14.525 13.245 12.105 11.165 10.555
1282.771 10.045 9.305 8.695 7.925 7.145 6.375 5.905 5.515 5.165 5.125
1302.060 4.805 4.275 4.285 4.235 4.035 4.035 3.955 3.895 3.835 3.995
1321.350 4.255 4.445 4.695 4.905 4.975 4.935 5.075 5.315 5.585 5.905
1340.640 6.325 6.595 6.975 7.635 8.325 9.155 10.285 11.795 13.655 15.675
1359.930 17.675 19.185 19.975 20.335 19.885 18.785 16.935 14.535 12.155 9.865
1379.219 7.785 6.095 5.015 4.465 4.035 3.805 3.775 3.695 3.845 4.005
1398.509 4.175 4.415 4.725 5.125 5.485 5.665 5.975 6.445 6.985 7.925
1417.799 9.125 10.815 12.785 15.535 19.545 24.575 30.645 37.195 43.935 49.855
1437.089 54.915 58.875 61.955 63.425 62.865 61.505 60.075 58.585 57.205 55.585
1456.378 52.945 50.045 47.495 44.445 40.685 36.285 30.895 25.235 20.365 16.875
1475.668 14.745 12.685 11.265 10.165 8.875 7.895 7.075 6.155 5.515 4.935
1494.958 4.295 3.905 3.735 3.795 3.755 3.655 3.535 3.235 2.995 3.055
1514.248 2.865 2.395 2.295 2.535 2.375 1.985 2.065 2.125 2.295 2.595
1533.538 2.555 2.455 2.425 2.625 3.155 3.225 3.585 4.215 4.575 5.375
1552.827 6.325 7.405 8.595 10.135 12.215 13.545 14.135 14.525 14.505 13.425
1572.117 11.325 9.135 7.275 5.945 4.755 3.925 3.565 3.005 2.415 2.075
1591.407 2.015 1.835 1.775 1.965 2.075 1.965 1.5305 1.2243 1.4117 1.4051
1610.697 1.321 1.605 1.655 1.735 1.795 1.4699 1.3435 1.456 1.2998 1.2432
1629.986 1.3529 1.3274 1.5474 1.645 1.4953 1.4026 1.3425 1.3845 1.4301 1.605
1649.276 1.725 1.615 1.665 2.085 2.385 2.095 1.835 1.765 1.645 1.725
1668.566 1.665 1.4118 1.2299 1.1746 1.1361 0.9715 1.0985 1.3528 1.293 1.2039
1687.856 1.1091 1.0261 1.0169 1.095 1.2097 1.0634 1.0138 1.0895 1.1762 1.2656
1707.146 1.2704 1.2468 1.2102 1.1147 1.0428 1.1649 0.973 0.8759 1.0911 1.0949
1726.435 1.0727 1.1436 1.0246 0.8456 0.7435 0.7349 0.8153 0.8893 0.9416 1.0051
1745.725 0.9726 0.8922 0.9098 0.7803 0.7482 1.0987 1.3712 1.2121 1.2048 1.4619
1765.015 1.5555 1.575 1.815 2.015 2.105 2.065 1.905 1.995 1.955 1.695
1784.305 1.4988 1.4688 1.5249 1.4722 1.4091 1.3406 1.32 1.4375 1.4947 1.4464
1803.594 1.4744 1.3748 1.1462 1.1773 1.2826 1.2545 1.1019 1.1436 1.3677 1.3781
1822.884 1.2635 1.1908 1.1412 1.1065 1.3132 1.645 1.765 1.865 2.085 2.245
1842.174 2.255 2.085 2.125 2.345 2.215 2.055 1.875 1.715 1.595 1.3724
1861.464 1.2912 1.2206 1.1637 1.1953 1.3241 1.3718 1.2243 1.2557 1.2729 1.2148
1880.754 1.4091 1.5237 1.5484 1.497 1.4273 1.4418 1.3905 1.2886 1.3979 1.715
1900.043 1.905 1.905 1.905 2.095 2.145 2.235 2.445 2.405 2.395 2.435
1919.333 2.385 2.265 2.235 2.145 1.895 1.745 1.805 1.695 1.4922 1.4933
1938.623 1.4658 1.4077 1.3846 1.4392 1.3836 1.3369 1.2702 1.2468 1.4292 1.4709
1957.913 1.4613 1.4979 1.4673 1.585 1.715 1.665 1.565 1.504 1.5633 1.4878
1977.202 1.3105 1.4481 1.665 1.715 1.4998 1.3568 1.4221 1.4509 1.5288 1.4048
1996.492 1.2444 1.2229 1.2407 1.4798 1.585 1.309 1.3114 1.304 1.2167 1.293
2015.782 1.2812 1.2011 1.3397 1.5636 1.4857 1.2751 1.1733 1.3854 1.4882 1.3796
2035.072 1.3261 1.3515 1.3427 1.1108 1.0357 1.2415 1.3663 1.4067 1.2868 1.2578
2054.362 1.2059 1.1654 1.2135 1.0669 1.0178 1.1259 1.2354 1.2177 1.2237 1.2636
2073.651 1.2379 1.3 1.3508 1.1979 1.1725 1.1452 1.1437 1.2816 1.1289 0.9293
2092.941 0.9076 1.0799 1.2552 1.2976 1.2813 1.3536 1.3094 1.1607 1.2616 1.4154
2112.231 1.398 1.3721 1.4853 1.675 1.755 1.895 1.995 1.875 1.825 1.775
2131.521 1.675 1.695 1.655 1.4643 1.5426 1.4377 1.3184 1.2448 0.9822 0.9002
2150.810 0.9663 1.0309 0.9754 0.9765 0.9839 0.8414 0.6838 0.8254 1.0328 0.8546
2170.100 0.7457 0.7174 0.8795 1.1695 1.0037 0.8304 0.8387 0.795 0.8397 0.8787
2189.390 0.8468 0.8597 0.8994 0.9327 0.8892 0.8081 0.8047 0.9073 0.9494 0.9046
2208.680 0.9382 1.0622 0.9353 0.8037 0.9723 1.0814 1.0024 1.1278 1.3141 1.1248
2227.970 0.8854 0.83 1.0744 1.259 1.0826 0.93 0.9548 0.9774 1.0552 0.9877
2247.259 0.9202 1.1095 1.1774 1.0306 1.0726 1.3408 1.3589 1.1887 1.0206 1.2576
2266.549 1.3592 1.2072 1.3434 1.2791 1.0228 0.9017 1.0241 0.9286 0.8921 1.0907
2285.839 1.1938 1.1041 1.0217 1.1545 0.9028 0.7738 1.103 1.1293 1.0715 1.1272
2305.129 0.9268 0.7842 0.9093 1.0026 1.1367 1.047 0.65633 0.7352 1.1604 1.2586
2324.418 1.0867 1.0168 0.9568 0.9027 1.0422 0.908 0.7707 0.8296 0.65525 0.7188
2343.708 1.0401 1.0234 0.7311 0.7606 0.8271 0.7184 0.64546 0.6834 0.65667 0.63612
2362.998 0.8033 0.8542 0.8884 0.7605 0.7075 0.61412 0.566161 0.8602 0.8893 0.7924
2382.288 0.6676 0.57925 0.7357 0.7704 0.7422 0.8193 1.0117 1.0978 1.0137 1.0502
2401.578 0.9565 0.9819 1.0144 0.9662 1.0242 1.2038 1.1132 0.9224 0.7852 0.7346
2420.867 1.0048 1.0111 0.954 0.8915 0.8115 1.1568 1.2523 0.9993 0.8449 1.062
2440.157 1.1719 1.0311 1.0858 0.9499 1.0007 1.0598 0.932 1.0684 1.1376 0.9047
2459.447 0.9325 1.1839 1.1251 0.8919 1.0885 1.1566 1.0491 1.1825 1.1516 1.225
2478.737 1.4459 1.4247 1.3376 1.2355 1.2261 1.3444 1.433 1.3922 1.4458 1.625
2498.026 1.5455 1.575 1.575 1.5535 1.595 1.565 1.705 1.885 1.625 1.1869
2517.316 1.1141 1.1914 1.1827 1.0824 1.2143 1.0749 0.8644 0.9201 0.9351 0.7592
2536.606 0.7596 1.0721 0.9603 0.8427 0.9415 0.7866 0.5474 0.442 0.64337 1.1289
2555.896 1.2802 1.1146 0.9441 0.8893 0.8921 0.7348 0.61926 0.8127 1.0433 0.9595
2575.186 0.8051 0.7483 0.8962 0.9571 0.728 0.65068 0.7868 0.7203 0.65819 0.7547
2594.475 0.8759 1.1947 1.444 0.9812 0.5762 0.8745 1.0391 1.1416 1.2117 0.9839
2613.765 0.8608 0.8893 0.9333 0.958 0.7191 0.572543 0.6933 0.7546 0.679 0.8639
2633.055 1.0106 0.8929 0.7934 0.9711 1.1197 0.8566 0.9418 0.831 0.4898 0.60313
2652.345 0.8481 0.9866 0.8048 0.9702 1.4774 1.3522 0.8966 1.0132 1.2774 1.0676
2671.634 1.2989 1.4276 1.054 0.8006 0.65188 0.59966 0.838 1.0167 1.0169 1.0984
2690.924 1.1413 0.992 0.9486 1.0563 0.9836 1.136 1.3348 1.0408 1.0575 1.1879
2710.214 1.2499 1.3217 0.9132 0.566723 0.58467 0.64434 0.7514 0.8941 0.8382 0.8546
2729.504 1.0238 1.1719 1.0922 0.9084 0.6805 0.59391 0.58201 0.6891 0.9361 0.7513
2748.794 0.424 0.570496 0.9606 0.9901 0.7053 0.8539 1.1886 0.9559 0.8283 0.8889
2768.083 0.55542 0.33 0.448 0.7434 0.8873 0.9112 0.9211 1.0215 0.9764 0.8332
2787.373 1.0902 1.3971 1.4597 1.3201 1.0837 1.2699 1.585 1.3032 1.1284 1.1439
2806.663 1.2248 1.4033 1.4782 1.3876 1.0035 0.8751 1.0819 1.1091 1.1816 1.4712
2825.953 1.3388 1.3978 1.3367 1.0611 0.8775 0.7888 1.1006 1.2213 1.115 0.9038
2845.242 0.8773 1.0016 1.2744 1.4876 1.685 1.5458 1.409 1.755 2.135 2.275
2864.532 2.205 2.195 2.455 2.655 2.595 2.765 2.845 3.185 3.435 3.225
2883.822 2.835 2.495 2.315 2.225 2.425 2.495 2.175 2.285 2.065 1.765
2903.112 2.425 2.475 2.295 2.485 2.535 2.505 2.375 2.515 2.665 2.685
2922.401 3.075 3.475 3.715 4.145 4.665 5.075 5.395 5.635 5.955 6.325
2941.691 6.275 6.245 6.385 6.685 6.445 5.965 5.825 5.575 5.505 5.165
2960.981 4.825 4.485 4.375 4.445 4.505 4.185 3.445 3.255 3.255 3.235
2980.271 3.135 2.745 2.145 1.655 1.5581 1.905 2.065 1.825 1.645 1.357
2999.561 1.3432 1.203 1.1862 1.1392 0.9165 1.1323 1.2557 1.1506 1.2696 1.2741
3018.850 0.9707 1.1842 1.2932 0.9164 0.835 1.0042 0.8703 1.1883 1.635 1.1956
3038.140 1.0045 1.3761 1.1373 1.077 1.3927 1.4062 1.5009 1.5635 1.625 1.715
3057.430 2.025 2.645 2.795 2.895 3.675 4.085 4.455 4.875 4.965 4.845
3076.720 4.655 4.675 4.365 4.115 3.855 3.545 3.205 2.635 2.195 1.975
3096.009 1.4713 0.9896 0.9506 0.7846 0.8386 1.3273 1.3145 1.0883 1.3768 1.4249
3115.299 1.4488 1.1164 0.7849 1.3515 1.4827 1.2373 1.275 1.3087 1.0477 1.1025
3134.589 1.2781 1.3931 1.1636 0.706 0.6926 0.9055 0.9147 0.6934 0.65188 0.5243
3153.879 0.4703 0.7632 0.8746 0.4 0.298 0.7759 0.8402 0.7624 0.7493 0.57586
3173.169 0.344 0.58296 0.9699 1.0631 1.1803 0.6996 0.463 0.63203 0.7841 1.1503
3192.458 1.0472 0.7608 0.4702 0.4748 1.1616 1.1938 0.8536 0.65903 0.7913 0.9608
3211.748 1.1179 1.1869 0.7642 0.7322 0.63785 0.64028 1.0395 0.7572 0.5513 1.0961
3231.038 1.1275 0.9905 0.842 0.7359 1.0493 1.0912 0.76 0.783 0.723 0.5249
3250.328 0.936 1.4938 1.605 1.0495 0.8565 1.2368 1.1534 0.8095 1.2537 1.5646
3269.617 1.4632 1.765 2.275 2.735 3.035 3.215 2.785 2.915 3.575 3.785
3288.907 3.725 4.305 5.025 5.605 6.395 7.025 7.965 8.835 9.635 10.725
3308.197 11.575 11.735 12.035 12.335 12.835 14.265 15.895 17.835 20.205 22.055
3327.487 22.845 21.475 19.525 18.735 16.545 13.435 10.235 7.185 5.505 4.595
3346.777 4.115 3.725 3.385 2.925 2.605 2.495 2.125 2.075 1.945 1.4646
3366.066 1.526 1.565 0.9985 0.56081 0.8718 1.4581 1.595 1.735 1.825 1.5094
3385.356 1.3783 1.1029 0.8799 1.0007 0.8799 0.6704 0.8995 1.1924 1.0868 1.1144
3404.646 1.1746 1.2031 1.388 1.3799 0.59832 0.457 0.9104 0.8051 0.9049 0.8885
3423.936 0.8023 1.1941 1.5121 1.1716 0.5031 0.082 0.322 0.9541 1.0203 0.4682
3443.225 0.59397 1.0344 0.58171 0.7752 1.4227 0.9262 0.65255 0.8727 1.1607 1.2343
3462.515 1.0631 1.0837 0.991 0.9636 0.9647 0.8747 1.2533 1.635 1.2624 1.034
3481.805 1.1707 1.0323 0.7774 0.463 0.4737 0.7971 0.7893 0.4853 0.7962 0.8749
3501.095 0.9054 1.3525 1.2717 0.9869 0.9276 0.8634 0.7006 0.57994 0.346 0.5423
3520.385 0.4833 0.55896 0.60555 0.365 0.58307 0.8178 1.0168 1.1278 0.8409 0.61112
3539.674 0.8852 1.2888 1.2675 1.3868 1.0457 0.336 0.6996 1.0707 0.65387 0.221
3558.964 0.312 0.322 0.311 0.4 0.418 0.7024 0.8834 0.6093 0.7985 0.7528
3578.254 0.043 0.273 0.62685 0.64639 1.1707 1.0361 0.6953 0.7978 0.6905 0.4754
3597.544 0.244 0.302 0.60971 0.8042 0.62184 0.59927 0.8213 0.7992 0.8622 0.6999
3616.833 0.65256 1.068 1.0102 0.64587 0.727 1.1364 0.8138 0.988 1.1235 0.501
3636.123 0.9276 0.9874 0.8175 0.8252 0.356 0.174 0.8218 1.0897 0.4659 0.337
3655.413 0.367 0.4959 0.7041 0.9649 0.66118 0.62512 1.0132 1.0588 0.8156 0.175
3674.703 0.262 0.419 0.152 0.008 0 0.172 0.171 0.311 0.307 0.61644
3693.993 1.2322 1.0726 0.7968 1.247 1.468 1.0602 0.8249 0.62932 0.8205 0.8977
3713.282 0.8654 0.9957 1.0008 0.9537 0.7061 0.64803 0.9649 0.6207 0.317 0.5221
3732.572 0.211 0.256 0.422 0.125 0.4 1.0424 0.9261 0.5548 0.4786 0.7613
3751.862 0.8797 0.5307 0.6666 0.65055 0.6814 0.6813 0.6974 1.0123 0.9256 0.326
3771.152 0.6906 1.0732 0.8217 1.0615 0.9731 0.8397 0.846 1.1811 1.2576 0.5188
3790.441 0.379 0.5505 0.5521 0.876 1.058 1.0847 0.7645 0.5798 0.6825 0.7953
3809.731 1.0946 1.0595 0.7662 0.8001 0.8408 0.814 0.8963 1.1291 1.2653 0.689
3829.021 0.5036 1.0106 0.56631 0.167 0.9792 1.5215 1.2022 1.1899 1.5004 1.2034
3848.311 0.8128 1.3176 1.3827 1.2202 1.317 0.9166 1.1384 1.5578 1.705 1.3788
3867.601 1 1.0161 0.9145 0.4693 0.5453 1.2628 0.8876 0.6879 1.4198 1.1895
3886.890 0.399 0.324 0.4677 0.784 1.4802 1.5178 0.56285 0.7156 1.509 1.0813
3906.180 0.5114 0.6805 1.2581 1.1875 0.9057 0.9977 1.1706 1.12 1.0449 1.5177
3925.470 1.3618 1.1463 1.3697 1.1061 0.722 0.4919 0.287 0.7294 0.9796 0.8245
3944.760 1.216 1.1981 1.277 1.625 1.625 1.735 1.635 1.4264 1.5047 1.3074
3964.049 1.277 1.4349 1.615 1.5608 1.2889 1.1558 1.1264 1.0488 1.1905 1.413
3983.339 1.344 1.441 1.2625 0.58835 0.5125 0.8986 1.0095 0.7797 0.7539 0.9295
##END=
