##TITLE=2,3-Diflurophenylacetic acid
##JCAMP-DX=4.24
##DATA TYPE=INFRARED SPECTRUM
##ORIGIN=EPA-IR VAPOR PHASE LIBRARY
##OWNER=SRD/NIST
Collection (C) 2018 copyright by the U.S. Secretary of Commerce
on behalf of the United States of America. All rights reserved.
##CAS REGISTRY NO=360-03-2
##MOLFORM=C 8 H 6 F 2 O 2
##$NIST SOURCE=MSDC-IR
##STATE=gas
##XUNITS=1/CM
##YUNITS=ABSORBANCE
##XFACTOR=1.
##YFACTOR=0.001
##DELTAX=1.92898
##FIRSTX=549.8
##LASTX=4000.7
##FIRSTY=7.968
##MAXX=4000.7
##MINX=549.759
##MAXY=0.037938
##MINY=0
##NPOINTS=1790
##XYDATA=(X++(Y..Y))
549.759 7.968 10.298 10.518 9.788 10.798 11.268 10.978 11.338 11.748 11.478
569.049 10.368 9.208 8.748 8.458 8.448 8.058 7.228 6.698 6.048 6.208
588.339 6.638 6.478 7.078 7.378 6.908 6.458 6.808 7.358 7.648 7.838
607.628 8.188 8.948 9.258 9.448 9.548 9.318 8.748 8.288 8.488 8.678
626.918 8.498 8.538 8.808 8.588 8.348 8.308 7.978 7.398 7.258 7.508
646.208 7.338 7.438 6.968 6.678 6.748 6.258 6.238 6.298 6.368 6.498
665.498 6.188 5.958 6.408 5.938 5.858 6.358 5.168 4.478 4.818 4.348
684.787 3.798 3.618 3.608 3.548 3.878 3.808 3.438 3.738 3.988 4.378
704.077 4.588 4.978 5.488 5.588 5.888 5.308 5.068 5.638 5.168 4.868
723.367 5.098 5.198 4.878 4.498 4.628 5.238 6.018 6.498 6.488 6.598
742.657 6.568 6.498 6.368 6.268 6.848 7.498 7.208 7.088 7.318 7.218
761.947 6.928 6.728 6.868 6.648 6.668 6.788 6.558 6.458 6.808 6.708
781.236 5.968 5.508 5.018 4.348 4.128 3.868 3.658 3.838 3.808 3.418
800.526 3.248 2.868 2.348 2.528 2.758 2.898 2.738 2.888 3.278 3.608
819.816 3.888 3.818 3.988 4.658 4.508 4.458 5.318 5.478 4.988 4.778
839.106 4.488 3.758 3.438 3.358 2.838 2.438 2.728 2.458 2.348 2.768
858.395 2.638 1.998 1.938 2.108 2.488 2.738 2.248 2.118 2.548 2.618
877.685 2.168 2.398 2.738 2.258 1.8188 1.9047 2.308 2.388 2.138 2.328
896.975 2.828 2.768 1.8777 1.478 2.138 2.558 2.088 1.998 2.278 1.9129
916.265 1.8678 2.228 2.818 2.558 1.998 2.278 2.658 2.528 1.988 1.8855
935.555 2.108 2.438 2.258 1.978 1.968 2.108 2.338 2.648 2.268 2.378
954.844 2.188 1.4449 1.7018 1.6874 1.7263 1.9139 1.646 1.6633 1.912 1.948
974.134 1.7893 1.8855 2.228 2.618 2.768 2.688 3.348 4.398 5.138 5.438
993.424 6.128 6.848 6.928 6.868 6.568 6.108 5.868 5.858 5.528 4.438
1012.714 3.208 2.918 3.458 3.388 2.928 2.808 2.868 2.838 2.828 3.258
1032.003 3.328 2.548 2.248 3.228 3.528 3.398 3.478 2.868 2.408 2.468
1051.293 2.748 3.118 3.498 3.878 4.078 3.578 3.718 4.788 5.778 6.068
1070.583 5.618 5.638 4.938 3.998 4.898 5.828 6.348 7.118 7.398 7.808
1089.873 8.668 8.998 9.958 11.348 12.908 15.178 16.228 18.948 22.478 24.928
1109.163 26.998 28.938 30.588 31.848 33.598 34.588 34.228 33.998 32.748 29.938
1128.452 27.928 25.368 21.758 19.258 18.348 16.248 14.548 13.988 12.208 11.498
1147.742 12.528 12.818 11.418 10.488 9.638 8.058 8.088 7.688 7.188 7.038
1167.032 6.108 5.888 6.318 6.738 7.378 7.178 6.428 6.288 6.508 8.008
1186.322 8.598 8.228 8.808 9.008 9.488 10.268 10.168 9.988 11.158 13.708
1205.611 14.408 13.858 13.978 13.978 14.028 14.558 14.878 15.068 14.528 12.558
1224.901 12.408 12.988 12.188 10.798 9.898 9.888 9.498 9.988 9.988 9.368
1244.191 9.608 8.828 7.928 8.088 8.538 8.848 8.738 8.998 8.898 9.158
1263.481 10.038 10.538 11.188 12.028 12.298 12.628 13.558 14.268 15.728 17.058
1282.771 17.548 17.638 17.838 17.918 17.018 16.068 15.288 14.428 13.388 12.048
1302.060 11.058 10.208 9.198 8.428 7.818 7.398 7.148 6.718 6.228 6.028
1321.350 5.988 6.028 5.948 5.748 5.798 5.868 5.838 5.778 5.778 5.768
1340.640 5.778 6.098 6.308 6.318 6.528 6.538 6.638 6.948 6.978 7.088
1359.930 7.258 7.328 7.428 7.358 7.288 7.288 7.008 6.718 6.558 6.338
1379.219 5.908 5.528 5.248 4.938 4.528 4.298 4.048 3.578 3.448 3.428
1398.509 3.238 3.158 3.368 3.298 3.028 3.198 3.408 3.328 3.238 3.288
1417.799 3.268 3.188 3.288 3.438 3.478 3.458 3.628 3.738 3.528 3.398
1437.089 3.488 3.348 3.118 2.938 2.978 2.918 2.808 3.108 3.378 3.568
1456.378 3.798 3.998 4.478 5.368 6.188 7.088 8.498 9.838 11.278 13.238
1475.668 14.988 16.788 18.868 20.858 22.878 25.198 27.488 29.628 31.198 32.038
1494.958 32.088 31.328 30.168 28.708 26.718 23.768 20.578 17.338 14.398 11.948
1514.248 9.818 8.208 6.888 5.878 5.218 4.638 3.838 3.338 3.108 2.778
1533.538 2.718 2.718 2.688 2.738 2.718 2.658 2.558 2.688 2.668 2.498
1552.827 2.538 2.378 2.358 2.668 2.598 2.258 2.308 2.638 2.848 2.688
1572.117 2.298 2.578 2.828 3.018 3.408 3.248 3.318 3.958 4.268 4.408
1591.407 4.688 4.998 5.328 5.378 5.278 5.058 4.798 4.708 4.548 4.428
1610.697 4.388 4.438 4.628 4.858 5.298 5.648 5.848 5.998 6.088 5.728
1629.986 5.608 5.348 4.438 3.958 3.638 3.138 2.528 2.398 2.428 1.998
1649.276 1.7448 1.5878 1.729 2.108 2.158 2.128 2.118 2.058 2.078 2.048
1668.566 1.988 2.018 1.8878 1.7165 1.968 2.068 2.078 2.038 1.8217 2.288
1687.856 2.538 2.258 2.338 2.418 2.358 2.518 2.448 2.388 2.458 2.598
1707.146 2.778 2.858 2.998 3.088 3.238 3.398 3.428 3.658 3.878 3.938
1726.435 4.018 4.268 4.578 4.898 5.548 6.098 6.528 7.178 7.748 8.258
1745.725 8.838 9.528 10.638 11.888 12.718 13.588 14.718 15.778 16.958 18.238
1765.015 19.968 21.898 23.778 26.008 28.468 30.878 33.068 34.948 36.478 37.468
1784.305 37.938 37.778 36.908 34.918 32.188 29.328 26.588 24.118 21.708 19.168
1803.594 17.008 15.298 13.648 12.148 10.948 9.868 8.748 7.848 6.958 6.248
1822.884 5.678 5.148 4.758 4.468 4.238 3.898 3.718 3.478 3.228 3.048
1842.174 2.818 2.778 2.628 2.588 2.498 2.228 2.418 2.558 2.378 2.158
1861.464 1.978 1.978 2.018 2.008 2.018 1.8028 1.8368 1.928 1.8193 1.7746
1880.754 1.666 1.7073 1.7073 1.6494 1.6373 1.6456 1.7762 1.948 1.7868 1.5813
1900.043 1.6881 1.7187 1.7186 1.7465 1.7091 1.82 2.038 2.018 1.948 2.038
1919.333 1.938 1.7894 1.6775 1.5761 1.5584 1.4 1.458 1.6586 1.5781 1.4977
1938.623 1.6234 1.7012 1.4738 1.4343 1.4467 1.3388 1.4494 1.445 1.4219 1.5795
1957.913 1.6874 1.5562 1.3762 1.4519 1.5399 1.5212 1.5983 1.6441 1.5906 1.4586
1977.202 1.2809 1.5694 1.7416 1.4981 1.5059 1.6386 1.649 1.5281 1.2802 1.2063
1996.492 1.34 1.3626 1.4181 1.507 1.5899 1.4953 1.4061 1.4368 1.4086 1.4951
2015.782 1.5778 1.4377 1.4104 1.5148 1.484 1.3902 1.293 1.3693 1.428 1.3803
2035.072 1.4258 1.4603 1.3542 1.1467 1.2395 1.4488 1.3958 1.238 1.2681 1.3476
2054.362 1.3664 1.3459 1.4334 1.5209 1.4883 1.385 1.1852 1.3073 1.4611 1.3927
2073.651 1.235 1.1878 1.2316 1.385 1.6016 1.63 1.5753 1.4697 1.2535 1.3235
2092.941 1.4578 1.3235 1.191 1.0907 1.1651 1.2765 1.3164 1.4415 1.5396 1.3501
2112.231 1.1436 1.2012 1.2461 1.357 1.4407 1.2469 1.2104 1.2424 1.22 1.2468
2131.521 1.2089 1.2274 1.3637 1.265 1.1877 1.2246 1.347 1.4956 1.4908 1.4982
2150.810 1.4513 1.4513 1.2962 1.2671 1.3003 1.292 1.3196 1.2073 1.1613 1.2543
2170.100 1.3846 1.3888 1.2841 1.1624 1.0789 1.00286 1.156 1.2215 1.1813 1.3147
2189.390 1.4496 1.578 1.6622 1.5442 1.3137 1.2368 1.1645 1.1047 1.1001 1.2425
2208.680 1.4629 1.5018 1.3382 1.2668 1.3487 1.3207 1.2281 1.4225 1.5872 1.4002
2227.970 1.2763 1.2646 1.4477 1.5922 1.4493 1.605 1.6917 1.4595 1.3584 1.4376
2247.259 1.4529 1.3277 1.2358 1.1356 1.3317 1.6318 1.5428 1.3041 1.3404 1.3676
2266.549 1.1633 1.1966 1.1413 1.0578 1.4317 1.3974 1.0434 0.94486 1.1271 1.4504
2285.839 1.3569 1.1649 1.1078 1.373 1.5989 1.4517 1.3227 1.1564 1.0384 1.2209
2305.129 1.2922 1.1285 1.2598 1.5146 1.4269 1.2051 1.3581 1.4458 1.327 1.371
2324.418 1.3261 1.2667 1.1742 1.1253 1.2858 1.4063 1.3931 1.3235 1.0815 1.1083
2343.708 1.1545 1.137 1.2594 1.0523 1.0649 1.1831 1.1804 1.2435 1.1713 1.1077
2362.998 1.01218 0.96962 1.0376 1.1631 1.4209 1.55 1.3783 1.2708 1.2179 1.1566
2382.288 1.2241 0.8503 0.803 1.1069 1.3402 1.3529 1.1323 1.01725 0.8857 1.01664
2401.578 1.256 1.4096 1.5153 1.502 1.3885 1.3891 1.3269 1.1989 1.1189 1.0917
2420.867 1.4957 1.6739 1.3026 1.0667 1.162 1.3692 1.516 1.4483 1.3047 1.2393
2440.157 1.1157 1.01329 1.0749 1.1687 1.1085 1.00982 1.1112 1.2522 1.1555 1.0927
2459.447 1.3231 1.1527 1.0473 1.3722 1.1305 1.0992 1.3321 1.3675 1.3088 1.2252
2478.737 1.4308 1.5244 1.464 1.2147 0.9015 1.00603 1.2961 1.2185 1.00972 1.2126
2498.026 1.3031 1.0169 1.0741 1.4233 1.4135 1.1136 1.1429 1.2194 1.239 1.1533
2517.316 0.9673 1.1892 1.1744 0.9015 0.94948 1.3405 1.5508 1.2466 1.0591 1.0337
2536.606 0.899 1.051 1.2878 1.1936 0.8678 1.1464 1.2654 1.01125 1.0999 1.2705
2555.896 1.3788 1.1791 0.98454 1.1834 1.249 1.0446 1.02031 1.1893 1.00613 1.02729
2575.186 1.3888 1.1925 1.109 1.3034 1.3756 1.2472 1.1905 1.4359 1.523 1.2635
2594.475 1.4251 1.4044 0.795 0.8902 1.2149 1.1098 1.2676 1.2979 1.1409 1.2935
2613.765 1.3704 1.2174 0.99677 0.707 0.772 1.1995 1.3635 1.4782 1.6841 1.4721
2633.055 1.3889 1.4435 1.3571 1.2275 1.1003 0.93852 1.124 1.2217 1.1171 1.1918
2652.345 0.95852 0.8307 1.0936 0.98835 1.01367 1.2491 1.1438 1.2401 1.3374 1.5658
2671.634 1.212 1.1071 1.552 1.5514 1.3759 1.2851 1.2408 1.196 1.2906 1.139
2690.924 0.798 0.738 0.8529 0.96626 1.01203 0.99678 0.95608 1.0493 1.275 1.4164
2710.214 1.2077 1.01151 1.113 1.0506 1.1229 0.94411 0.8797 0.96721 0.8653 1.1768
2729.504 1.2257 1.2035 1.1775 1.1755 1.2971 1.1971 1.1097 1.0429 1.0495 1.3413
2748.794 1.1532 0.9649 1.2753 1.1423 0.96554 1.1101 1.2236 1.4895 1.6972 1.5134
2768.083 1.4571 1.2826 1.0873 1.4248 1.6988 1.4943 1.2526 1.4987 1.651 1.1884
2787.373 1.1548 1.1464 1.043 1.1614 1.1572 1.1443 1.0976 0.931362 0.8682 1.1473
2806.663 1.3591 1.3306 1.3121 1.3898 1.4268 1.4587 1.4016 0.929339 0.8286 1.2445
2825.953 1.1889 1.2917 1.4749 1.2555 1.4298 1.2276 0.8574 1.2547 1.6036 1.7476
2845.242 1.2777 0.658 0.597 0.214 0.388 1.3804 1.2315 1.0607 1.3842 1.4681
2864.532 1.6462 1.6623 1.2471 1.1704 1.3441 1.1901 1.2685 1.3174 1.6378 1.6706
2883.822 0.97566 1.1043 1.3794 1.1617 1.2967 1.5703 1.5416 1.3659 1.0741 0.8414
2903.112 0.92473 1.1433 1.6556 1.8912 1.5179 1.2608 1.4479 1.7748 1.7457 1.6339
2922.401 1.694 1.7505 1.8695 1.7635 1.2946 1.3964 1.8786 1.8711 1.8082 1.6434
2941.691 1.5819 1.6919 1.8659 1.988 1.804 1.8655 1.928 1.8421 1.7867 1.4644
2960.981 1.2582 1.4982 1.6359 1.6214 1.5174 1.3522 1.524 1.7396 1.525 1.1709
2980.271 1.0652 0.99691 1.1278 1.4751 1.4094 1.403 1.3338 1.185 1.6817 1.5077
2999.561 1.0684 1.5657 2.018 1.7453 1.2603 1.3657 1.5423 1.0641 1.0698 1.3206
3018.850 1.1553 1.2205 1.3797 1.3997 1.3317 1.4132 1.5237 1.5183 1.6864 1.505
3038.140 0.98812 1.3772 1.8016 1.7503 2.068 2.088 2.048 2.118 2.248 2.208
3057.430 1.8979 2.018 1.9053 1.751 2.238 2.758 2.618 2.168 2.558 2.838
3076.720 2.188 2.148 2.348 2.328 2.508 2.528 2.168 1.6883 1.7336 1.8083
3096.009 1.6273 1.6592 1.376 0.8434 0.99641 1.4739 1.8345 1.988 1.6424 1.2038
3115.299 0.9067 0.801 1.2125 1.5452 1.4796 1.3158 1.02057 1.1192 0.8744 0.92476
3134.589 1.1293 0.68 0.6 0.9011 0.809 0.723 0.96203 1.0618 1.187 1.3401
3153.879 0.8403 0.94816 1.463 1.0391 1.0631 1.3143 0.91908 0.72 0.803 0.702
3173.169 0.931954 1.0417 1.0047 1.0852 0.94592 0.582 0.8532 1.3328 1.4383 1.321
3192.458 1.5563 1.6435 1.4719 1.5594 1.3565 0.775 1.00737 1.6251 1.5722 1.4291
3211.748 0.9007 0.8992 1.1933 1.1456 1.0936 0.8973 1.01356 1.1774 0.719 0.692
3231.038 1.3584 1.4065 1.2215 1.1759 1.2231 1.1116 0.9171 1.4301 1.828 2.058
3250.328 2.038 1.8722 1.7356 1.2364 1.1075 1.231 1.4048 1.6225 1.566 1.3633
3269.617 0.94902 0.608 0.748 1.0297 1.2341 1.0712 1.0489 0.99638 0.8762 1.1518
3288.907 1.4521 1.2294 0.8489 0.455 0.627 1.052 1.1052 1.3553 1.00464 0
3308.197 0.16 0.99352 1.089 0.98168 1.0874 1.3119 1.2258 1.2149 1.0526 0.96601
3327.487 1.2818 1.2781 1.3408 1.7449 1.3733 0.792 0.744 0.57 0.95569 1.2912
3346.777 1.4666 1.3963 0.929552 0.92745 0.806 0.96726 1.3167 1.3045 0.99487 0.592
3366.066 0.8892 1.3123 1.3728 1.1217 1.2028 1.4167 0.8738 0.574 0.8938 1.0304
3385.356 0.95045 1.0519 1.2829 1.5754 1.2542 1.2143 1.3143 0.773 0.296 0.748
3404.646 1.4316 1.4988 1.1158 0.756 0.699 0.231 0.234 0.95878 1.2329 0.822
3423.936 0.703 0.8564 1.2872 1.3298 1.1968 1.2779 1.3831 1.2785 0.827 1.02719
3443.225 0.96361 1.0715 0.8809 0.572 0.94835 1.1423 0.8 0.372 1.1331 1.264
3462.515 0.398 0.672 1.1495 0.8506 0.68 1.02218 1.2241 0.9019 0.724 1.1218
3481.805 1.0863 1.1335 1.0624 0.668 0.668 0.556 0.802 0.935645 1.3045 1.8717
3501.095 1.988 1.3823 1.2714 1.5963 1.6104 1.4614 0.95711 1.3072 1.5606 1.3721
3520.385 1.2148 1.3994 1.6265 1.2731 1.3763 1.8273 1.938 1.978 1.9221 1.8294
3539.674 2.168 2.488 2.528 2.518 2.578 2.608 2.758 3.148 3.458 4.008
3558.964 4.788 5.768 7.138 8.938 11.128 13.278 15.348 16.268 16.708 17.298
3578.254 16.498 15.178 13.208 10.348 8.218 6.388 4.578 3.518 3.168 3.018
3597.544 2.918 3.148 3.428 2.938 2.218 2.058 1.988 1.4758 1.2089 1.7947
3616.833 1.797 1.1946 0.92446 1.00182 1.369 1.469 1.4215 1.5139 1.8201 2.298
3636.123 2.048 1.8728 1.7202 1.8301 2.208 1.4547 0.8315 0.94187 0.9104 1.02624
3655.413 1.02423 0.826 0.738 1.037 1.4199 1.1793 1.1424 1.4191 1.5449 1.7675
3674.703 1.7992 1.3431 0.777 0.685 1.0803 1.1583 1.4775 1.938 1.6678 1.1874
3693.993 1.0654 1.2431 1.1469 0.8816 0.632 1.00444 1.01386 0.757 0.813 0.823
3713.282 1.2239 1.2458 1.2829 1.3922 1.7092 1.9123 1.1753 0.631 0.746 1.125
3732.572 1.1213 1.0446 1.3581 1.342 1.1336 0.487 0.399 1.0835 1.1896 1.0509
3751.862 0.8961 1.1262 1.682 1.5843 1.126 1.00332 1.0774 0.9175 0.8857 1.4626
3771.152 1.3572 1.151 0.99925 0.97883 1.1888 0.707 0.488 0.493 0.364 0.617
3790.441 0.98036 1.00198 0.94478 1.047 0.9121 0.803 0.8966 0.9567 0.684 0.364
3809.731 0.562 0.9039 0.8448 0.645 0.8779 0.928666 1.181 1.405 1.0554 0.909
3829.021 0.8504 1.1916 1.4545 0.8721 0.485 1.1453 1.8429 1.4051 0.782 0.725
3848.311 1.0511 1.3424 1.2908 1.212 1.1964 0.8828 0.8393 1.0384 0.911 0.756
3867.601 0.709 0.9086 1.01108 1.00945 0.782 0.741 1.2767 1.5518 1.4417 0.8907
3886.890 0.71 1.0788 0.9017 0.655 0.781 1.0429 1.0788 0.514 0.323 0.474
3906.180 0.665 1.5479 1.8468 1.1499 0.8299 0.96976 1.0747 0.8342 0.505 0.897
3925.470 1.0399 1.2416 1.1379 0.935189 1.2082 1.1865 0.94513 0.9005 0.9158 0.546
3944.760 0.599 0.417 0.346 1.0518 1.1778 0.661 0.681 1.0277 1.1021 0.8378
3964.049 1.1613 1.3515 1.0541 0.8849 0.9058 1.1493 0.723 0.178 0.61 1.4133
3983.339 1.2963 1.4116 1.714 1.223 1.2493 1.3441 1.1611 0.9123 0.645 0.8344
##END=
