##TITLE=2-Trifluoromethylbenzamide
##JCAMP-DX=4.24
##DATA TYPE=INFRARED SPECTRUM
##ORIGIN=EPA-IR VAPOR PHASE LIBRARY
##OWNER=SRD/NIST
Collection (C) 2018 copyright by the U.S. Secretary of Commerce
on behalf of the United States of America. All rights reserved.
##CAS REGISTRY NO=360-64-5
##MOLFORM=C 8 H 6 F 3 N O
##$NIST SOURCE=MSDC-IR
##STATE=gas
##XUNITS=1/CM
##YUNITS=ABSORBANCE
##XFACTOR=1.
##YFACTOR=0.001
##DELTAX=1.92934
##FIRSTX=549.9
##LASTX=3999.5
##FIRSTY=8.01
##MAXX=3999.53
##MINX=549.863
##MAXY=0.29373
##MINY=0
##NPOINTS=1789
##XYDATA=(X++(Y..Y))
549.863 8.01 7.94 7.81 7.61 7.57 7.49 7.21 6.93 6.76 6.7
569.156 6.7 6.68 6.67 6.59 6.61 6.83 7.01 7.08 7.3 7.67
588.450 7.88 8.17 8.67 9.38 10.05 10.45 11 12.32 14.46 17.15
607.743 19.93 22.26 24.5 27.59 29.71 28.66 26.52 24.64 22.14 18.86
627.037 15.57 12.85 10.81 9.5 8.84 8.79 9.37 10.83 13.21 16.43
646.330 19.79 22.16 23.41 25.32 26.63 25.21 23.95 22.73 20.13 17.12
665.624 14.64 13.14 12.49 12.32 12.36 12.53 12.75 13.05 13.33 13.6
684.917 13.86 14.07 14.22 14.43 14.62 14.66 14.66 14.59 14.56 14.57
704.210 14.59 14.75 14.95 15.2 15.57 16.12 16.74 17.43 18.36 19.53
723.504 20.75 21.79 22.75 23.7 24.73 25.78 26.68 27.6 28.56 29.28
742.797 29.79 30.3 31.27 33.2 36.28 40.61 45.92 51.48 56.13 59.6
762.091 64.19 75.3 88.47 81.15 62.12 53.91 50.61 45.6 39.04 32.17
781.384 26.43 22.21 19.38 17.56 16.4 15.61 14.96 14.49 14.17 13.91
800.678 13.73 13.58 13.44 13.27 13.1 13.02 12.97 12.93 12.96 13
819.971 13.01 13.06 13.12 13.14 13.19 13.3 13.41 13.46 13.47 13.45
839.264 13.44 13.44 13.37 13.22 13.12 13 12.8 12.62 12.45 12.31
858.558 12.15 11.97 11.85 11.79 11.74 11.73 11.73 11.76 11.88 11.99
877.851 12.12 12.28 12.3 12.29 12.32 12.28 12.24 12.17 12.01 11.86
897.145 11.73 11.52 11.29 11.09 10.89 10.74 10.56 10.34 10.19 10.05
916.438 9.9 9.8 9.7 9.63 9.64 9.65 9.67 9.69 9.74 9.86
935.732 9.99 10.14 10.34 10.57 10.85 11.18 11.47 11.7 11.99 12.41
955.025 12.89 12.83 11.98 11.09 10.62 10.25 9.78 9.27 8.82 8.43
974.318 8.09 7.85 7.72 7.65 7.57 7.46 7.36 7.26 7.2 7.21
993.612 7.21 7.25 7.31 7.4 7.56 7.78 8.04 8.41 8.92 9.59
1012.905 10.55 11.87 13.78 16.48 20.28 25.62 32.53 40.4 48.11 54.8
1032.199 60.45 65.34 68.82 70.7 72.06 72.61 71.35 68.83 66.15 63.88
1051.492 61.91 59.33 55.65 51.08 45.23 38.12 31.01 25.17 21.02 18.43
1070.786 16.94 16.19 15.94 16.1 16.58 17.26 18.19 19.23 20.36 21.79
1090.079 23.58 25.81 28.6 32.1 36.45 41.61 47.48 53.87 60.45 67
1109.372 73.13 78.2 81.87 84.58 87.11 89.92 93.53 98.69 105.98 115.76
1128.666 127.82 141.11 154.07 165.31 174.39 181.23 184.51 182.72 176.73 168.34
1147.959 158.85 149.33 140.34 132.02 124.54 118.41 114.11 111.91 112.01 114.64
1167.253 119.72 127.03 136.19 146.74 157.85 168.5 177.78 184.44 187.65 186.79
1186.546 181.32 171.27 157.32 140.8 122.83 104.36 86.75 70.76 57.04 46.21
1205.840 38.17 32.34 28.07 24.95 22.56 20.64 19.16 17.92 16.88 16.16
1225.133 15.64 15.17 14.81 14.72 14.71 14.7 14.9 15.27 15.8 16.54
1244.426 17.6 18.95 20.76 23.07 25.86 29.34 33.43 37.97 42.74 47.5
1263.720 51.89 55.63 58.45 60.25 61.07 60.88 59.76 58.08 56.27 54.61
1283.013 53.38 52.75 52.97 54.2 56.62 60.69 67.06 76.67 90.49 109.47
1302.307 133.97 163.2 195.1 226.68 254.76 276.5 289.95 293.73 287.33 270.96
1321.600 246.08 216.21 185.9 159.66 141.07 131.56 130.13 134.76 143.29 153.82
1340.894 164.53 173.77 180.22 182.68 180.52 173.62 162.26 147.32 130.14 112.17
1360.187 94.48 78.03 63.71 52.12 43.22 36.6 31.72 28.05 25.25 23.06
1379.480 21.21 19.62 18.22 16.98 15.84 14.78 13.81 12.91 12.04 11.29
1398.774 10.65 10.08 9.59 9.09 8.67 8.32 7.98 7.65 7.35 7.05
1418.067 6.82 6.7 6.62 6.57 6.57 6.62 6.76 6.96 7.23 7.62
1437.361 8.12 8.57 8.98 9.32 9.5 9.52 9.37 9.02 8.51 7.88
1456.654 7.2 6.59 6.1 5.66 5.42 5.37 5.34 5.35 5.45 5.63
1475.948 5.83 6.08 6.35 6.65 6.94 7.2 7.35 7.46 7.59 7.57
1495.241 7.37 7.1 6.85 6.55 6.24 5.91 5.64 5.53 5.43 5.36
1514.534 5.34 5.29 5.26 5.23 5.27 5.35 5.43 5.53 5.6 5.69
1533.828 5.85 6.01 6.12 6.24 6.47 6.71 7.03 7.44 7.82 8.29
1553.121 8.88 9.57 10.41 11.56 13.09 14.91 17.23 20.1 23.66 28.14
1572.415 33.51 39.77 47.35 55.92 64.88 73.85 81.97 88.75 93.43 95.22
1591.708 93.87 89.99 84.06 76.45 67.81 58.83 50.28 42.71 36.36 31.13
1611.002 26.98 23.7 21.02 18.82 17.13 15.8 14.84 14.22 13.87 13.7
1630.295 13.6 13.64 13.68 13.7 13.71 13.62 13.39 13.06 12.71 12.33
1649.588 11.98 11.59 11.21 11.03 10.96 11.01 11.23 11.64 12.25 13.02
1668.882 13.99 15.16 16.48 17.91 19.48 21.04 22.63 24.1 25.43 26.65
1688.175 27.61 28.3 28.84 29.38 30.14 31.27 32.97 35.56 39.27 44.98
1707.469 53.23 64.74 80.26 100.02 123.62 150.17 178.36 206.06 234.62 262.35
1726.762 282.06 285.97 272.36 248.63 221.52 194.45 165.49 134.98 108.06 85.79
1746.056 68.26 54.87 45.13 38.2 33.57 30.54 28.46 26.98 25.79 24.7
1765.349 23.62 22.43 21.13 19.72 18.2 16.67 15.14 13.68 12.35 11.17
1784.642 10.14 9.22 8.44 7.8 7.23 6.77 6.42 6.09 5.79 5.58
1803.936 5.46 5.35 5.3 5.3 5.37 5.52 5.73 5.98 6.23 6.46
1823.229 6.7 6.9 7.02 7.02 6.92 6.75 6.51 6.18 5.83 5.47
1842.523 5.11 4.81 4.6 4.45 4.38 4.35 4.34 4.36 4.4 4.43
1861.816 4.47 4.5 4.51 4.47 4.43 4.33 4.22 4.1295 3.9968 3.885
1881.110 3.7879 3.6711 3.569 3.4679 3.3862 3.3452 3.3325 3.3012 3.2585 3.2664
1900.403 3.2975 3.3519 3.3989 3.4195 3.4471 3.4707 3.4676 3.4472 3.4411 3.4496
1919.696 3.4721 3.5454 3.6615 3.8139 3.9963 4.22 4.43 4.58 4.73 4.78
1938.990 4.71 4.6 4.45 4.29 4.0844 3.8193 3.5871 3.5065 3.4658 3.458
1958.283 3.5588 3.7124 3.8635 3.9548 3.9983 3.9861 3.9476 3.8723 3.6981 3.4879
1977.577 3.2598 2.997 2.761 2.581 2.456 2.37 2.286 2.224 2.183 2.147
1996.870 2.12 2.11 2.12 2.12 2.11 2.08 2.07 2.1 2.12 2.1
2016.164 2.11 2.11 2.11 2.13 2.12 2.141 2.168 2.164 2.15 2.13
2035.457 2.13 2.12 2.13 2.13 2.1 2.07 2.08 2.08 2.06 2.07
2054.750 2.07 2.06 2.08 2.09 2.08 2.06 2.04 2.03 2.05 2.07
2074.044 2.05 2.03 2.06 2.08 2.07 2.08 2.14 2.174 2.183 2.209
2093.337 2.244 2.287 2.305 2.351 2.445 2.454 2.451 2.455 2.426 2.404
2112.631 2.382 2.325 2.274 2.236 2.154 2.07 2.04 2 1.96 1.98
2131.924 1.96 1.94 1.93 1.92 1.91 1.91 1.92 1.93 1.92 1.92
2151.218 1.94 1.93 1.89 1.88 1.9 1.91 1.91 1.89 1.89 1.92
2170.511 1.95 1.97 1.97 1.97 1.99 1.97 2 2.03 2.03 2.05
2189.804 2.06 2.07 2.09 2.12 2.11 2.12 2.152 2.188 2.214 2.21
2209.098 2.221 2.25 2.298 2.318 2.318 2.341 2.344 2.341 2.338 2.355
2228.391 2.379 2.365 2.336 2.324 2.3 2.281 2.275 2.3 2.328 2.296
2247.685 2.256 2.236 2.207 2.192 2.184 2.173 2.191 2.185 2.186 2.199
2266.978 2.193 2.204 2.218 2.213 2.226 2.238 2.232 2.225 2.21 2.194
2286.272 2.158 2.151 2.158 2.163 2.148 2.14 2.173 2.156 2.165 2.188
2305.565 2.197 2.231 2.235 2.24 2.277 2.311 2.35 2.383 2.408 2.403
2324.858 2.404 2.456 2.514 2.538 2.531 2.528 2.52 2.5 2.482 2.453
2344.152 2.395 2.324 2.271 2.204 2.12 2.07 2.05 2.04 2.02 2.01
2363.445 2 1.98 1.99 2 2 2.03 2.06 2.04 2.03 2.02
2382.739 1.98 1.94 1.94 1.93 1.92 1.9 1.88 1.87 1.86 1.89
2402.032 1.92 1.89 1.88 1.9 1.91 1.91 1.91 1.9 1.92 1.97
2421.326 1.99 2.02 2.02 2.02 2.08 2.09 2.07 2.09 2.08 2.09
2440.619 2.11 2.11 2.13 2.13 2.1 2.07 2.06 2.06 2.04 2
2459.912 1.97 1.95 1.93 1.9 1.84 1.78 1.77 1.73 1.7 1.71
2479.206 1.7 1.68 1.66 1.63 1.63 1.63 1.59 1.59 1.59 1.58
2498.499 1.57 1.56 1.53 1.48 1.45 1.44 1.44 1.4 1.39 1.41
2517.793 1.41 1.37 1.38 1.38 1.33 1.29 1.29 1.29 1.28 1.27
2537.086 1.28 1.27 1.27 1.28 1.25 1.26 1.26 1.23 1.21 1.18
2556.380 1.2 1.23 1.21 1.2 1.22 1.25 1.25 1.23 1.21 1.2
2575.673 1.26 1.31 1.28 1.3 1.34 1.32 1.33 1.36 1.37 1.35
2594.966 1.32 1.35 1.35 1.34 1.34 1.34 1.37 1.39 1.36 1.38
2614.260 1.43 1.48 1.52 1.56 1.54 1.52 1.54 1.57 1.57 1.57
2633.553 1.56 1.49 1.43 1.39 1.36 1.33 1.34 1.34 1.34 1.35
2652.847 1.31 1.26 1.28 1.32 1.28 1.27 1.28 1.27 1.25 1.23
2672.140 1.23 1.21 1.17 1.11 1.08 1.09 1.03 1.01 1 0.97
2691.434 0.98 0.97 0.91 0.88 0.92 0.89 0.85 0.86 0.87 0.87
2710.727 0.85 0.83 0.88 0.89 0.86 0.91 0.93 0.88 0.89 0.92
2730.020 0.95 0.94 0.91 0.86 0.79 0.81 0.85 0.78 0.76 0.82
2749.314 0.82 0.82 0.87 0.92 0.9 0.9 0.91 0.9 0.88 0.89
2768.607 0.88 0.89 0.9 0.89 0.87 0.83 0.82 0.88 0.9 0.86
2787.901 0.91 0.97 1.01 1.04 1.11 1.18 1.22 1.29 1.4 1.45
2807.194 1.49 1.55 1.54 1.48 1.49 1.48 1.36 1.25 1.2 1.16
2826.488 1.04 0.96 0.92 0.84 0.72 0.69 0.73 0.72 0.67 0.65
2845.781 0.66 0.65 0.62 0.59 0.62 0.64 0.62 0.66 0.61 0.61
2865.074 0.66 0.69 0.74 0.72 0.75 0.8 0.78 0.78 0.77 0.79
2884.368 0.81 0.82 0.87 0.91 0.94 0.9 0.98 1.04 0.96 0.88
2903.661 0.9 0.98 0.98 0.91 0.9 0.9 0.98 1.01 0.94 0.96
2922.955 0.99 0.92 0.85 0.82 0.82 0.84 0.79 0.74 0.73 0.79
2942.248 0.74 0.65 0.61 0.54 0.5 0.44 0.33 0.25 0.24 0.32
2961.542 0.35 0.27 0.25 0.28 0.26 0.28 0.32 0.31 0.3 0.34
2980.835 0.37 0.32 0.27 0.34 0.44 0.53 0.61 0.79 0.9 0.89
3000.128 0.99 1.05 1.07 1.19 1.24 1.18 1.22 1.21 1.14 1.15
3019.422 1.24 1.35 1.43 1.51 1.73 1.91 1.98 2.193 2.46 2.643
3038.715 2.82 2.974 3.017 3.0624 3.1201 3.14899 3.19717 3.291 3.4709 3.8372
3058.009 4.3 4.83 5.51 6.24 7.13 8.32 9.52 10.67 11.84 12.84
3077.302 13.69 14.22 14.34 14.09 13.31 12.15 10.86 9.33 7.68 6.09
3096.596 4.75 3.7642 3.0494 2.491 2.13 2.02 1.91 1.8 1.69 1.57
3115.889 1.47 1.36 1.28 1.13 1.02 0.96 0.85 0.71 0.6 0.65
3135.182 0.67 0.63 0.71 0.81 0.9 0.96 0.93 0.97 1.1 1.09
3154.476 1.11 1.17 1.25 1.34 1.27 1.22 1.14 1.08 1.11 0.98
3173.769 0.76 0.69 0.74 0.76 0.7 0.54 0.48 0.44 0.39 0.39
3193.063 0.34 0.28 0.3 0.26 0.12 0.03 0.05 0.06 0.05 0.1
3212.356 0.11 0.07 0.07 0.18 0.23 0.13 0.05 0.05 0.16 0.24
3231.650 0.2 0.2 0.12 0.02 0 0.04 0.09 0.17 0.18 0.08
3250.943 0.07 0.16 0.15 0.14 0.2 0.17 0.1 0.08 0.17 0.27
3270.236 0.31 0.29 0.3 0.41 0.45 0.41 0.32 0.34 0.48 0.52
3289.530 0.48 0.42 0.42 0.5 0.57 0.73 0.83 0.86 0.89 0.95
3308.823 1.14 1.05 1 1.14 1.05 1.11 1.29 1.27 1.19 1.08
3328.117 0.98 0.97 1.02 0.97 0.88 0.73 0.64 0.82 0.92 0.95
3347.410 1.05 1.04 0.96 0.89 0.92 1.06 1.1 1.14 1.21 1.36
3366.704 1.47 1.55 1.69 1.82 2.01 2.187 2.358 2.487 2.704 3.0759
3385.997 3.4061 3.8425 4.24 4.54 5.06 5.7 6.37 7.18 8.09 9.07
3405.290 10.21 11.47 12.89 14.46 16.16 18.1 20.22 22.44 24.83 27.3
3424.584 29.65 31.7 33.24 34.32 34.63 33.83 31.9 29.19 26.08 22.78
3443.877 19.5 16.33 13.47 11.05 9.06 7.51 6.39 5.72 5.26 4.82
3463.171 4.57 4.32 4.1204 4.0548 3.9887 3.9041 3.8948 3.7897 3.6623 3.6702
3482.464 3.6634 3.646 3.6599 3.6512 3.6487 3.8686 4.1022 4.3 4.59 4.9
3501.758 5.2 5.47 5.78 6.18 6.69 7.12 7.46 7.9 8.42 8.92
3521.051 9.49 10.17 10.86 11.55 12.31 13.14 14.08 15.16 16.28 17.63
3540.344 19.11 20.73 22.45 23.95 25.32 26.42 27.11 27.11 26.23 24.75
3559.638 22.73 20.37 17.8 15.2 12.67 10.36 8.49 7.03 5.99 5.3
3578.931 4.86 4.51 4.26 4.123 3.9435 3.786 3.7399 3.633 3.5717 3.5134
3598.225 3.485 3.4443 3.2991 3.19747 3.0507 2.846 2.743 2.641 2.58 2.546
3617.518 2.429 2.35 2.254 2.182 2.12 2.06 1.96 1.89 1.88 1.93
3636.812 2 1.94 1.91 1.9 1.89 1.84 1.81 1.82 1.88 1.95
3656.105 1.96 1.92 1.88 1.87 1.82 1.73 1.73 1.84 1.84 1.75
3675.398 1.73 1.81 1.87 1.87 1.83 1.84 1.85 1.82 1.83 1.8
3694.692 1.86 1.91 1.87 1.82 1.8 1.79 1.78 1.7 1.7 1.76
3713.985 1.78 1.88 1.94 1.88 1.77 1.78 1.85 1.84 1.82 1.82
3733.279 1.83 1.93 2.01 2 2.01 1.98 1.9 1.9 1.88 1.9
3752.572 2.04 2.09 2.04 1.99 2.04 2.07 2.03 1.99 1.93 1.93
3771.866 1.94 1.95 1.94 2 1.97 1.96 2.03 2 1.98 1.92
3791.159 1.88 1.88 1.9 1.92 2 1.99 1.92 1.88 1.91 1.91
3810.452 1.86 1.93 1.94 1.88 1.85 1.83 1.85 1.93 1.93 1.91
3829.746 1.89 1.83 1.79 1.77 1.79 1.85 1.93 2.03 2.05 2.01
3849.039 1.96 1.93 2 2.04 1.99 2 2.03 2.03 2.08 2.07
3868.333 2.02 2.03 2.06 2.01 1.96 1.98 1.94 1.91 1.89 1.83
3887.626 1.91 1.98 1.91 1.86 1.9 1.86 1.74 1.69 1.75 1.79
3906.920 1.8 1.84 1.86 1.82 1.8 1.85 1.86 1.85 1.78 1.71
3926.213 1.79 1.88 1.94 1.87 1.85 1.9 1.79 1.68 1.69 1.71
3945.506 1.78 1.78 1.69 1.64 1.72 1.81 1.76 1.72 1.7 1.72
3964.800 1.76 1.75 1.76 1.76 1.78 1.82 1.78 1.73 1.64 1.65
3984.093 1.73 1.79 1.82 1.82 1.78 1.84 1.85 1.78 1.75
##END=
