##TITLE=2,5-Dimethoxyphenethylamine
##JCAMP-DX=4.24
##DATA TYPE=INFRARED SPECTRUM
##ORIGIN=EPA-IR VAPOR PHASE LIBRARY
##OWNER=SRD/NIST
Collection (C) 2018 copyright by the U.S. Secretary of Commerce
on behalf of the United States of America. All rights reserved.
##CAS REGISTRY NO=3600-86-0
##MOLFORM=C 10 H 15 N O 2
##$NIST SOURCE=MSDC-IR
##STATE=gas
##XUNITS=1/CM
##YUNITS=ABSORBANCE
##XFACTOR=1.
##YFACTOR=0.001
##DELTAX=1.92898
##FIRSTX=549.8
##LASTX=4000.7
##FIRSTY=5.3852
##MAXX=4000.7
##MINX=549.759
##MAXY=0.278125
##MINY=0
##NPOINTS=1790
##XYDATA=(X++(Y..Y))
549.759 5.3852 5.4552 5.7452 5.7252 5.5352 5.6752 5.5852 5.2852 5.2352 5.3852
569.049 5.9852 6.2252 6.1252 6.2452 6.2652 6.3652 6.3652 6.5552 6.9552 6.9352
588.339 6.8352 6.8652 6.7652 6.6452 6.6452 6.7652 6.9652 7.0052 6.9752 6.8652
607.628 6.8052 7.0352 7.1252 7.1652 7.2252 7.3152 7.5352 7.5352 7.5752 7.7452
626.918 7.9252 8.0452 7.9552 8.0652 8.2452 8.1352 7.9352 7.7952 7.7052 7.6552
646.208 7.7952 7.7352 7.4252 7.3452 7.4052 7.5252 7.6252 7.7052 7.8352 8.1052
665.498 8.2452 8.4052 8.7552 9.0752 9.3052 9.4852 9.9352 10.4852 11.1152 11.8552
684.787 12.8152 14.2252 15.8752 17.9152 20.4452 23.2752 26.3852 29.5652 32.6052 35.2652
704.077 37.1752 38.3452 38.6252 38.2152 37.2252 35.5752 33.6952 31.7952 30.2552 29.1052
723.367 28.4852 28.5652 29.1852 29.8952 30.6852 31.2852 31.7752 32.5552 33.0352 33.1852
742.657 33.2852 33.1352 33.0852 33.3152 33.5352 33.8152 34.0952 34.3652 34.8352 35.7352
761.947 36.9652 38.3352 39.4952 40.5352 41.7152 42.9052 44.1052 44.8952 45.2352 45.5352
781.236 45.8352 45.9052 46.1052 46.5252 46.8752 47.4152 48.1252 48.5952 49.0552 49.4152
800.526 49.5552 49.4152 48.5952 46.9952 44.8752 42.2752 39.1752 35.8652 32.5452 29.2552
819.816 26.2352 23.8552 21.7952 20.0652 18.6552 17.6852 17.2052 16.8952 17.0452 17.2052
839.106 17.3052 17.8652 18.5352 18.8852 19.1552 19.4352 19.6152 19.5952 19.1752 18.8952
858.395 18.9052 18.7852 18.6052 18.5752 18.6252 18.7252 18.9452 18.8952 18.6152 18.1552
877.685 17.2752 16.1452 15.0652 13.9652 12.7452 11.8152 10.9152 10.0552 9.3652 8.9852
896.975 8.6552 8.0452 7.4952 7.2952 7.3152 7.1952 7.0952 7.0252 6.9652 7.0152
916.265 6.9252 6.8152 6.9052 7.1052 7.0852 7.1452 7.4152 7.5052 7.6152 7.5952
935.555 7.2752 7.2352 7.3252 7.3252 7.3252 7.2852 7.5052 7.5152 7.3252 7.3252
954.844 7.5852 7.8652 7.8752 7.9852 8.2952 8.4952 8.7452 9.1552 9.4652 9.7952
974.134 10.4052 11.2252 11.9052 12.3952 13.1152 13.9252 14.5452 15.3252 16.2152 16.9452
993.424 17.7552 18.5952 19.2852 19.8652 20.4852 21.4352 22.4152 23.6552 25.1452 26.6852
1012.714 28.6652 31.0452 33.6952 36.4452 39.4952 42.8352 46.3852 50.0352 54.0852 58.9452
1032.003 64.2252 70.0252 76.8652 84.2752 92.0452 100.185 107.845 114.615 119.555 122.075
1051.293 122.335 119.885 114.705 107.375 98.3452 88.4852 78.8952 69.8252 61.2452 53.7352
1070.583 47.4952 41.8452 37.1052 33.2752 30.1052 27.3052 24.7152 23.2352 22.0952 20.8652
1089.873 20.3452 19.7952 20.0552 20.9052 21.4452 22.2552 22.8352 23.5852 24.5052 25.0452
1109.163 25.4752 25.4252 25.4252 25.5252 24.8552 24.0352 23.4952 22.9652 22.3752 21.9352
1128.452 21.1352 20.2852 19.8452 19.5952 19.9552 20.5152 21.1252 22.3752 24.0652 26.2852
1147.742 28.9452 31.0552 33.0852 35.3352 36.8152 37.3952 37.8752 38.0652 37.9252 38.1652
1167.032 39.2552 41.5152 44.1552 46.7952 49.4952 51.6452 53.1052 53.7452 53.4152 52.5452
1186.322 51.5452 50.8252 50.8652 51.8652 53.7152 57.2552 62.7952 69.9152 78.9252 90.7452
1205.611 105.025 121.815 142.755 166.785 191.505 216.505 240.425 260.055 272.885 278.125
1224.901 274.905 263.775 245.385 220.755 192.995 164.855 139.175 117.705 100.015 85.8852
1244.191 75.1552 66.9252 60.6152 55.9052 52.1152 49.5552 48.2352 47.4752 47.2152 47.5752
1263.481 48.8652 50.6452 52.5452 54.8552 57.1252 59.0452 60.6552 61.2652 60.7952 59.5452
1282.771 57.7152 55.1852 52.1452 49.1452 46.3452 43.7352 41.3252 39.1552 37.1852 35.4352
1302.060 33.6452 31.7752 29.9652 28.2552 26.6852 25.1552 23.7052 22.4052 21.2452 20.1552
1321.350 19.1452 18.3052 17.5552 16.9252 16.4252 15.9852 15.5852 15.2752 15.0452 14.8752
1340.640 14.7452 14.6652 14.6652 14.6952 14.6052 14.5852 14.5652 14.4252 14.2852 14.1052
1359.930 13.9052 13.7252 13.5352 13.3652 13.2852 13.2652 13.2752 13.3352 13.4652 13.5552
1379.219 13.5252 13.4852 13.4652 13.4952 13.4952 13.4052 13.4452 13.7152 14.1252 14.7252
1398.509 15.6952 17.1652 19.1152 21.6152 24.6852 28.1952 31.8552 35.4252 38.8052 41.6252
1417.799 43.7052 45.0952 45.5952 45.2352 44.3052 43.2552 42.3752 41.7652 41.5652 41.9252
1437.089 42.9052 44.1252 45.3052 46.1952 46.6152 46.7052 46.6452 46.4952 46.4852 46.9252
1456.378 48.2652 50.8352 54.3852 58.6552 63.1052 67.1852 70.4552 73.1652 75.5352 77.8552
1475.668 80.3452 83.6252 88.7852 97.1852 109.525 125.935 146.375 169.475 193.375 214.905
1494.958 231.025 240.285 240.945 232.815 216.485 193.695 165.765 136.965 110.635 87.6652
1514.248 69.5652 55.7752 45.2952 37.6752 31.7752 27.3252 23.9552 21.2052 18.9952 17.2952
1533.538 16.0052 14.8652 14.0052 13.3452 12.6352 12.0552 11.6452 11.2852 11.0852 10.9652
1552.827 10.8452 10.8052 10.8652 11.0652 11.3452 11.6552 12.1052 12.6852 13.3852 14.2152
1572.117 15.1852 16.2952 17.5752 18.8752 20.1652 21.2852 22.1852 23.0252 23.5752 23.8752
1591.407 24.0752 24.2052 24.4252 24.6452 24.8452 25.3652 26.0152 26.5352 26.9352 27.1252
1610.697 26.9452 26.5652 25.9752 25.1452 24.1752 23.0852 21.9452 20.6652 19.3452 18.0652
1629.986 16.8452 15.6052 14.4152 13.3252 12.2652 11.2252 10.2452 9.4752 8.8552 8.3152
1649.276 7.7952 7.3152 6.9052 6.4952 6.2152 6.0252 5.7352 5.5152 5.3652 5.1952
1668.566 5.0152 4.8652 4.7752 4.6452 4.5052 4.4552 4.4052 4.3652 4.2852 4.1252
1687.856 4.0052 3.9852 4.0252 3.9852 3.9252 3.8652 3.7852 3.7552 3.7252 3.6052
1707.146 3.5052 3.4952 3.4852 3.4852 3.4952 3.4852 3.4552 3.4052 3.3852 3.3852
1726.435 3.3652 3.3252 3.3252 3.3852 3.3852 3.3652 3.3752 3.3652 3.3052 3.2352
1745.725 3.2152 3.1852 3.1252 3.0452 2.9952 2.9952 2.9652 2.8552 2.7952 2.8152
1765.015 2.7852 2.7652 2.7652 2.7452 2.8052 2.8352 2.7452 2.7452 2.7552 2.7852
1784.305 2.8552 2.8552 2.8752 2.9052 2.9052 2.9252 2.9452 2.9752 3.0252 3.0352
1803.594 3.0552 3.0552 3.0252 3.0452 3.0852 3.1052 3.1852 3.2852 3.3052 3.3252
1822.884 3.4452 3.5052 3.5252 3.5752 3.6052 3.6152 3.6352 3.6452 3.6352 3.6152
1842.174 3.5852 3.5852 3.5252 3.4952 3.4652 3.3952 3.3152 3.1752 3.0652 2.9652
1861.464 2.8352 2.7552 2.6752 2.5752 2.4552 2.2652 2.1752 2.1452 2.0752 1.9852
1880.754 1.8752 1.7552 1.6952 1.6652 1.6452 1.6052 1.6052 1.6352 1.6352 1.5952
1900.043 1.5552 1.5652 1.5552 1.5752 1.5352 1.5452 1.5552 1.5652 1.6752 1.7152
1919.333 1.6552 1.6452 1.7052 1.7552 1.8052 1.7952 1.7852 1.8452 1.9552 2.0652
1938.623 2.1252 2.2452 2.3352 2.4452 2.5952 2.6852 2.8052 2.9752 3.1352 3.2852
1957.913 3.4052 3.5052 3.5752 3.6652 3.7652 3.7852 3.8252 3.8652 3.8052 3.7952
1977.202 3.8552 3.8752 3.8752 3.8552 3.8252 3.8052 3.7852 3.7652 3.7152 3.6852
1996.492 3.6852 3.6652 3.6152 3.5252 3.4552 3.3952 3.3352 3.2952 3.2552 3.2552
2015.782 3.2352 3.1652 3.1552 3.1552 3.1252 3.0652 3.0652 3.1052 3.1752 3.2352
2035.072 3.2352 3.2652 3.3252 3.3652 3.4052 3.4552 3.4652 3.4852 3.5352 3.6052
2054.362 3.6852 3.6752 3.6652 3.7552 3.8352 3.8252 3.7952 3.7852 3.7652 3.7452
2073.651 3.7552 3.7152 3.6552 3.5852 3.4952 3.4252 3.3052 3.2152 3.0952 2.9752
2092.941 2.8652 2.7352 2.6652 2.5752 2.4652 2.3452 2.2552 2.1752 2.0652 1.9752
2112.231 1.8852 1.8552 1.8352 1.7752 1.7652 1.7252 1.6452 1.6652 1.6652 1.6152
2131.521 1.6852 1.6952 1.6852 1.6952 1.6552 1.7352 1.7452 1.7052 1.7352 1.7752
2150.810 1.8552 1.8552 1.8552 1.8952 1.8752 1.8452 1.8152 1.8052 1.7552 1.7452
2170.100 1.7452 1.6752 1.6652 1.6752 1.6552 1.6252 1.5952 1.5452 1.5352 1.6152
2189.390 1.6552 1.6052 1.5652 1.5352 1.5252 1.5552 1.5452 1.5852 1.6352 1.6152
2208.680 1.6252 1.5752 1.5352 1.5352 1.5952 1.6352 1.5952 1.5852 1.5952 1.6052
2227.970 1.5752 1.6352 1.6652 1.7052 1.7352 1.6952 1.6752 1.7052 1.7652 1.7652
2247.259 1.6952 1.6352 1.6952 1.7352 1.6852 1.6852 1.6752 1.6552 1.5852 1.4952
2266.549 1.4952 1.5052 1.4452 1.3652 1.3252 1.3852 1.4152 1.3452 1.3252 1.3252
2285.839 1.3452 1.3852 1.3152 1.2252 1.2952 1.3152 1.3452 1.3752 1.3352 1.3352
2305.129 1.3252 1.3252 1.3952 1.4352 1.4352 1.3652 1.3252 1.2952 1.2752 1.2652
2324.418 1.2552 1.2152 1.1752 1.1352 1.1252 1.1452 1.1052 1.0852 1.1652 1.1652
2343.708 1.0852 1.1252 1.1952 1.1752 1.1452 1.1052 1.0352 1.0452 1.0752 1.0352
2362.998 0.9786 1.0169 1.0552 0.9898 0.9605 1.0218 1.0752 1.0752 1.0652 1.0852
2382.288 1.0752 0.966 0.9183 0.8651 0.8664 0.9478 0.979 1.0021 0.982 0.9825
2401.578 0.9792 0.9476 0.9909 0.999 1.0087 1.0552 1.1152 1.1552 1.1252 1.1152
2420.867 1.1652 1.1652 1.1752 1.1952 1.2352 1.3052 1.2752 1.2552 1.3152 1.3552
2440.157 1.4052 1.3852 1.3652 1.3752 1.3952 1.4352 1.4252 1.4652 1.5652 1.6352
2459.447 1.6452 1.7652 1.8352 1.7952 1.8552 2.0252 2.0852 2.1152 2.1552 2.2152
2478.737 2.2652 2.2752 2.3352 2.3252 2.3152 2.3252 2.3252 2.2452 2.1452 2.1352
2498.026 2.0952 2.0252 1.9852 1.9252 1.9552 1.9452 1.8552 1.8052 1.7952 1.8452
2517.316 1.8152 1.7652 1.7452 1.7852 1.7552 1.7552 1.8252 1.7552 1.7452 1.7152
2536.606 1.6952 1.7352 1.7152 1.6652 1.6252 1.6152 1.6052 1.5452 1.5052 1.4552
2555.896 1.4252 1.4652 1.5052 1.5352 1.5352 1.4952 1.4352 1.4252 1.4152 1.3952
2575.186 1.5052 1.6152 1.5452 1.5252 1.6552 1.6752 1.7352 1.8452 1.7852 1.8152
2594.475 1.9152 1.9852 2.0652 2.0752 2.0152 2.0452 1.9852 1.9152 2.0152 2.0552
2613.765 2.0052 1.9352 1.9652 1.9952 1.9552 1.9952 1.9652 1.9452 2.0252 2.0552
2633.055 2.0152 1.9652 2.0052 2.0552 2.0852 2.1052 2.1552 2.1652 2.1652 2.1552
2652.345 2.1552 2.1152 2.0552 2.0652 2.0552 2.0852 2.1352 2.2052 2.1952 2.1852
2671.634 2.2652 2.3152 2.2552 2.3852 2.4752 2.4152 2.3352 2.3552 2.4452 2.4452
2690.924 2.4952 2.5752 2.5652 2.5152 2.4752 2.4852 2.5752 2.6552 2.7352 2.7652
2710.214 2.7952 2.7852 2.8252 2.9352 2.9652 3.0052 3.0552 3.1452 3.2852 3.3952
2729.504 3.4152 3.3852 3.4352 3.5152 3.5652 3.6852 3.7852 3.9052 4.0552 4.0652
2748.794 4.0452 4.1452 4.2652 4.2552 4.2052 4.2152 4.2252 4.2652 4.3052 4.3952
2768.083 4.5852 4.6752 4.7852 5.0252 5.1952 5.2752 5.4852 5.7852 5.9652 6.1552
2787.373 6.5152 6.9352 7.2652 7.6852 8.1552 8.6252 9.2152 9.7952 10.2652 10.7452
2806.663 11.3752 12.2452 13.1152 13.9452 14.8952 15.9252 17.1452 18.6052 20.3852 22.7252
2825.953 25.7252 29.4552 34.0552 39.3552 44.8252 49.6852 53.4552 56.1152 57.6352 57.9152
2845.242 56.8252 54.6352 51.8852 49.1052 46.7152 45.0052 43.8952 43.1752 42.8952 42.9152
2864.532 43.0852 43.1652 43.1752 43.0952 42.7952 42.4552 42.0852 41.5752 41.0752 40.4452
2883.822 39.9252 39.6852 39.4652 39.3152 39.4552 40.0152 40.9152 42.2652 44.1552 46.6052
2903.112 49.6052 53.0252 56.6352 60.4152 64.3152 68.0152 71.1352 73.4652 75.1052 76.1552
2922.401 76.8552 77.5652 78.3652 79.6352 81.7152 84.3852 87.6052 91.1152 94.6552 97.9852
2941.691 100.515 102.145 102.775 102.205 100.785 98.4152 94.8452 90.2652 84.7652 78.8452
2960.981 72.8852 66.9552 61.2652 55.8752 50.8752 46.5352 43.0552 40.2152 37.9752 36.5252
2980.271 35.5752 35.3252 35.8252 36.9852 38.9252 41.6552 45.2552 49.4352 53.7852 57.5052
2999.561 59.8152 60.1552 58.7552 55.8852 51.4052 45.7052 39.5052 33.6352 28.4952 24.5052
3018.850 21.7252 20.0252 19.0152 18.3052 18.0652 18.1252 18.2352 18.3352 18.4552 18.4152
3038.140 18.2452 17.9652 17.3852 16.7152 16.0752 15.4552 14.8452 14.3552 13.9552 13.6952
3057.430 13.6052 13.5152 13.4252 13.4952 13.5752 13.4952 13.3152 13.1952 13.1052 12.8152
3076.720 12.3752 11.9852 11.6552 11.2852 10.8452 10.3552 9.7952 9.3352 8.8952 8.3552
3096.009 7.9452 7.4952 7.2352 7.0952 6.8052 6.4752 6.1552 5.9552 5.7652 5.5552
3115.299 5.3952 5.1952 4.9452 4.7552 4.4852 3.9652 3.7552 3.7252 3.4952 3.3352
3134.589 3.1652 2.9352 2.7452 2.6652 2.5452 2.4352 2.4152 2.2552 2.1552 2.3152
3153.879 2.1552 1.8852 2.0252 2.0552 1.9652 1.9252 1.9152 1.8252 1.6852 1.7252
3173.169 1.7452 1.6452 1.6252 1.6452 1.6352 1.5752 1.4652 1.3952 1.4252 1.4952
3192.458 1.6152 1.5252 1.3052 1.2752 1.2152 1.1752 1.2452 1.3552 1.2852 1.1552
3211.748 1.0852 1.0033 1.0231 1.0852 0.9996 0.9076 0.895 0.8642 0.9573 1.1052
3231.038 1.0652 0.9511 0.9023 0.8376 0.8853 0.9146 0.8374 0.8956 0.8435 0.6753
3250.328 0.7055 0.753 0.7774 0.712 0.6809 0.7284 0.6508 0.544 0.4783 0.5279
3269.617 0.6211 0.7499 0.6372 0.4898 0.5651 0.577 0.593 0.5177 0.4552 0.5181
3288.907 0.5837 0.5294 0.6512 0.728 0.6704 0.5867 0.4404 0.5242 0.6193 0.6176
3308.197 0.6629 0.7589 0.6958 0.5422 0.5759 0.5329 0.6507 0.852 0.7033 0.7679
3327.487 1.0652 1.1352 1.0218 1.1252 1.2552 1.3852 1.4852 1.3452 1.5452 1.6752
3346.777 1.4652 1.5152 1.5552 1.4052 1.2552 1.1152 0.9396 0.9163 0.8663 0.7851
3366.066 0.843 0.8023 0.7637 0.865 0.8368 0.7641 0.7889 0.7713 0.6779 0.5799
3385.356 0.5154 0.5446 0.6945 0.6813 0.5924 0.7353 0.808 0.7446 0.7326 0.6968
3404.646 0.7942 0.8889 0.9121 0.9552 0.8852 0.839 0.8514 0.7876 0.732 0.778
3423.936 0.7856 0.7934 0.784 0.7848 0.6202 0.4364 0.5667 0.6859 0.6593 0.6305
3443.225 0.6333 0.5642 0.3996 0.3514 0.5321 0.622 0.6513 0.6456 0.5034 0.5518
3462.515 0.6523 0.6436 0.6284 0.5143 0.5275 0.6211 0.5408 0.5405 0.4885 0.4123
3481.805 0.5035 0.3971 0.3429 0.4707 0.5888 0.5556 0.4804 0.5611 0.4689 0.404
3501.095 0.5705 0.4687 0.355 0.3639 0.248 0.1681 0.2203 0.3576 0.37 0.3659
3520.385 0.4771 0.5125 0.5271 0.6119 0.4541 0.3259 0.4799 0.4581 0.4642 0.5815
3539.674 0.5692 0.4844 0.4104 0.3574 0.3694 0.3849 0.2948 0.2796 0.1959 0.07929
3558.964 0.1293 0.1283 0.2007 0.3839 0.475 0.4856 0.4359 0.4159 0.4464 0.5217
3578.254 0.5821 0.3049 0 0.1393 0.3915 0.5572 0.5201 0.4987 0.5239 0.3673
3597.544 0.3109 0.4603 0.5232 0.3164 0.1839 0.4386 0.5992 0.4579 0.3599 0.3014
3616.833 0.2837 0.3887 0.4185 0.3903 0.3629 0.3716 0.4698 0.3875 0.3282 0.2847
3636.123 0.3801 0.3741 0.2159 0.373 0.369 0.2509 0.2032 0.3321 0.5007 0.395
3655.413 0.3022 0.4023 0.547 0.4835 0.3547 0.3924 0.437 0.4304 0.5128 0.6434
3674.703 0.5855 0.4047 0.3017 0.2911 0.2985 0.3022 0.2915 0.2653 0.2489 0.1395
3693.993 0.2128 0.3908 0.2847 0.3927 0.6176 0.388 0.1882 0.311 0.3452 0.226
3713.282 0.2539 0.3319 0.4192 0.5245 0.4529 0.3436 0.3767 0.3832 0.3176 0.4137
3732.572 0.4458 0.347 0.3846 0.3124 0.3334 0.499 0.5252 0.4006 0.3714 0.5897
3751.862 0.55 0.5125 0.6355 0.6426 0.5854 0.418 0.298 0.3778 0.5073 0.5461
3771.152 0.4596 0.4586 0.5406 0.4953 0.4123 0.5622 0.6008 0.4467 0.433 0.5078
3790.441 0.564 0.6711 0.7664 0.6354 0.6023 0.67 0.589 0.4726 0.4355 0.3354
3809.731 0.3678 0.4332 0.3815 0.3171 0.3879 0.4174 0.3558 0.3985 0.4699 0.4961
3829.021 0.4757 0.496 0.5135 0.425 0.3547 0.3709 0.3056 0.3392 0.4438 0.5865
3848.311 0.5212 0.4548 0.7094 0.7968 0.73 0.61 0.5606 0.6143 0.6421 0.6219
3867.601 0.5411 0.5046 0.4546 0.4726 0.5911 0.7699 0.9284 0.9413 0.8433 0.6551
3886.890 0.6459 0.7127 0.7913 0.7957 0.7109 0.6066 0.4722 0.4825 0.5814 0.5489
3906.180 0.574 0.7303 0.7291 0.6862 0.5159 0.4872 0.5788 0.6674 0.8784 0.823
3925.470 0.6635 0.658 0.6963 0.7285 0.7632 0.7402 0.7907 0.7822 0.8393 0.8469
3944.760 0.8025 0.9294 0.8244 0.7583 0.7181 0.718 0.8682 0.9909 0.9414 0.9222
3964.049 1.0198 0.9474 0.8745 0.792 0.8161 0.8598 0.8489 0.9336 0.966 1.0085
3983.339 1.1052 1.0221 1.1152 1.2052 1.0452 1.0652 1.0852 1.0652 1.0852 1.0652
##END=
