##TITLE=3,6-Dimethyl-6-hepten-4-yn-3-ol
##JCAMP-DX=4.24
##DATA TYPE=INFRARED SPECTRUM
##ORIGIN=EPA-IR VAPOR PHASE LIBRARY
##OWNER=SRD/NIST
Collection (C) 2018 copyright by the U.S. Secretary of Commerce
on behalf of the United States of America. All rights reserved.
##CAS REGISTRY NO=3601-67-0
##MOLFORM=C 9 H 14 O
##$NIST SOURCE=MSDC-IR
##STATE=gas
##XUNITS=1/CM
##YUNITS=ABSORBANCE
##XFACTOR=1.
##YFACTOR=0.001
##DELTAX=1.92934
##FIRSTX=549.9
##LASTX=3999.5
##FIRSTY=7.94
##MAXX=3999.53
##MINX=549.863
##MAXY=0.11565
##MINY=0
##NPOINTS=1789
##XYDATA=(X++(Y..Y))
549.863 7.94 7.85 7.55 7.29 7.38 7.26 7.01 6.87 6.82 6.77
569.156 6.69 6.61 6.67 6.84 6.7 6.7 6.73 6.68 6.81 6.76
588.450 6.61 6.44 6.32 6.3 6.29 6.11 5.95 5.81 5.64 5.52
607.743 5.37 5.35 5.34 5.13 4.96 4.8 4.6 4.49 4.35 4.24
627.037 4.21 4.17 4.19 4.26 4.38 4.53 4.61 4.69 4.82 4.86
646.330 4.76 4.71 4.58 4.43 4.26 3.98 3.77 3.6 3.39 3.14
665.624 2.98 2.83 2.79 2.74 2.56 2.45 2.32 2.22 2.14 2.12
684.917 2.08 2.07 2.11 2.12 2.08 2.0003 2.0307 2.1 2.0461 1.9743
704.210 1.994 1.9316 1.8476 1.8656 1.8598 1.8681 1.8658 1.8082 1.8134 1.8369
723.504 1.7983 1.7643 1.7361 1.7257 1.6753 1.6509 1.7046 1.7426 1.7631 1.7358
742.797 1.7283 1.7055 1.7064 1.7776 1.8028 1.7678 1.8063 1.8961 1.9571 1.9814
762.091 2.0087 2.12 2.19 2.32 2.5 2.56 2.58 2.73 2.86 2.98
781.384 3.11 3.2 3.29 3.35 3.36 3.31 3.31 3.34 3.39 3.51
800.678 3.77 4.04 4.37 4.71 4.95 5.18 5.24 5.13 5.04 4.86
819.971 4.47 3.94 3.52 3.21 2.96 2.83 2.72 2.67 2.76 2.84
839.264 2.89 3.02 3.08 3.21 3.46 3.68 3.95 4.24 4.59 5.07
858.558 5.65 6.36 7.15 8.09 9.18 10.4 11.82 13.37 15.14 17.04
877.851 19.14 21.43 23.77 26.31 28.87 31.58 34.55 37.7 41.22 44.93
897.145 48.58 51.42 53.27 54.89 56.55 58.27 59.83 60.72 60.49 59
916.438 56.23 52.17 47.23 42.02 36.71 31.42 26.53 22.26 18.63 15.59
935.732 13.19 11.34 9.91 8.8 8.05 7.56 7.28 7.24 7.34 7.59
955.025 8.01 8.56 9.29 10.23 11.3 12.46 13.79 15.17 16.52 17.82
974.318 18.92 19.76 20.28 20.54 20.58 20.44 20.16 19.71 19.2 18.72
993.612 18.37 18.25 18.32 18.52 18.92 19.47 20.11 20.7 21.27 21.88
1012.905 22.44 22.97 23.42 23.78 24.02 24.08 24.04 23.93 23.63 23.22
1032.199 22.73 22.02 21.17 20.27 19.33 18.51 17.78 17.01 16.23 15.46
1051.492 14.66 13.84 12.98 12.12 11.3 10.56 9.93 9.42 9.03 8.81
1070.786 8.69 8.64 8.66 8.85 9.14 9.39 9.7 10.09 10.54 11.04
1090.079 11.62 12.25 12.95 13.7 14.39 15.15 16.16 17.26 18.29 19.35
1109.372 20.55 21.85 23.16 24.54 26.09 27.64 29.17 30.87 32.43 33.86
1128.666 35.23 36.29 37.13 37.85 38.35 38.54 38.43 38.38 38.39 38.09
1147.959 37.77 37.49 37.23 37.01 36.55 36.03 35.54 34.63 33.66 32.78
1167.253 31.63 30.44 29.13 27.71 26.52 25.17 23.86 22.86 21.86 21.03
1186.546 20.26 19.42 18.66 18.11 17.64 17.15 16.54 15.94 15.57 15.15
1205.840 14.75 14.52 14.05 13.57 13.3 13.04 13.29 13.24 12.64 12.38
1225.133 12.5 12.75 12.87 12.84 12.81 13.02 13.27 13.5 13.8 14.04
1244.426 14.23 14.46 14.78 15.22 15.62 16.01 16.52 17.17 18.01 18.89
1263.720 19.87 21.01 22.18 23.56 24.92 26.27 27.8 29.15 30.54 32.07
1283.013 33.38 34.51 35.45 36.26 36.97 37.53 37.96 38.26 38.48 38.7
1302.307 38.94 39.27 39.75 40.31 40.93 41.7 42.54 43.43 44.42 45.42
1321.600 46.29 46.99 47.67 48.34 49.07 50 50.97 51.79 52.51 53.1
1340.894 53.48 53.55 53.11 52.05 50.42 48.27 45.71 43.05 40.47 38.16
1360.187 36.39 35.3 35.07 35.71 37.11 38.82 40.25 41.11 41.58 41.58
1379.480 40.94 39.71 37.33 33.87 30.14 26.72 23.72 21.03 18.66 16.67
1398.774 15.07 13.79 12.76 12 11.45 11 10.74 10.65 10.61 10.66
1418.067 10.84 11.09 11.4 11.78 12.28 12.81 13.37 14.02 14.74 15.49
1437.361 16.2 16.87 17.48 18.05 18.65 19.27 19.93 20.64 21.34 21.83
1456.654 22.03 22.05 21.91 21.46 20.63 19.48 18.13 16.66 15.14 13.64
1475.948 12.18 10.74 9.43 8.31 7.35 6.49 5.81 5.32 4.89 4.49
1495.241 4.2 3.95 3.73 3.53 3.4 3.3 3.23 3.17 3.13 3.08
1514.534 3.01 3 3 2.97 3 3.02 2.98 3.03 3.07 3.1
1533.828 3.13 3.11 3.11 3.18 3.29 3.26 3.26 3.35 3.38 3.45
1553.121 3.57 3.64 3.7 3.82 3.96 4.11 4.29 4.51 4.72 4.97
1572.415 5.25 5.54 5.93 6.37 6.85 7.4 7.99 8.69 9.45 10.29
1591.708 11.29 12.39 13.53 14.66 15.75 16.77 17.67 18.6 19.51 20.33
1611.002 20.96 21.24 21.1 20.6 19.9 19.09 18.06 16.74 15.17 13.32
1630.295 11.5 9.93 8.61 7.51 6.62 5.85 5.11 4.5 3.98 3.53
1649.588 3.15 2.8 2.5 2.29 2.15 2.0214 1.9109 1.8098 1.75 1.7095
1668.882 1.6479 1.6148 1.6284 1.5854 1.51 1.487 1.4732 1.418 1.4017 1.4423
1688.175 1.3758 1.3089 1.2624 1.2303 1.2075 1.12789 1.06094 1.0073 1.0087 1.0003
1707.469 0.928 0.921 0.929 0.898 0.863 0.811 0.806 0.801 0.782 0.758
1726.762 0.727 0.745 0.737 0.73 0.721 0.714 0.735 0.759 0.765 0.761
1746.056 0.777 0.807 0.849 0.894 0.908 0.92 0.9901 1.039 1.0859 1.2006
1765.349 1.3058 1.406 1.507 1.6035 1.742 1.8885 2.09 2.33 2.63 2.97
1784.642 3.32 3.72 4.12 4.54 4.94 5.23 5.4 5.47 5.45 5.33
1803.936 5.16 4.86 4.47 4.06 3.66 3.28 2.95 2.67 2.44 2.19
1823.229 1.9496 1.7918 1.6295 1.4542 1.3125 1.2011 1.08606 0.9888 0.887 0.791
1842.523 0.72 0.648 0.642 0.647 0.614 0.577 0.56 0.546 0.525 0.517
1861.816 0.48 0.435 0.432 0.446 0.455 0.472 0.453 0.458 0.518 0.568
1881.110 0.575 0.594 0.636 0.644 0.65 0.587 0.563 0.627 0.618 0.589
1900.403 0.577 0.565 0.575 0.575 0.579 0.544 0.498 0.533 0.542 0.518
1919.696 0.517 0.527 0.554 0.571 0.587 0.575 0.568 0.563 0.551 0.545
1938.990 0.532 0.537 0.551 0.526 0.47 0.487 0.505 0.466 0.452 0.447
1958.283 0.437 0.482 0.505 0.484 0.487 0.463 0.461 0.453 0.429 0.444
1977.577 0.436 0.411 0.423 0.442 0.436 0.443 0.452 0.446 0.448 0.405
1996.870 0.354 0.359 0.383 0.416 0.449 0.436 0.398 0.368 0.391 0.42
2016.164 0.404 0.406 0.42 0.469 0.478 0.421 0.41 0.456 0.494 0.497
2035.457 0.479 0.44 0.421 0.433 0.479 0.505 0.505 0.516 0.536 0.52
2054.750 0.481 0.492 0.499 0.509 0.551 0.557 0.548 0.549 0.536 0.516
2074.044 0.506 0.523 0.546 0.545 0.547 0.512 0.484 0.509 0.533 0.521
2093.337 0.481 0.502 0.519 0.498 0.483 0.482 0.499 0.531 0.55 0.526
2112.631 0.522 0.528 0.523 0.52 0.538 0.561 0.579 0.589 0.57 0.529
2131.924 0.529 0.57 0.593 0.587 0.575 0.58 0.587 0.598 0.589 0.602
2151.218 0.6 0.595 0.625 0.628 0.614 0.627 0.612 0.602 0.657 0.654
2170.511 0.622 0.616 0.625 0.656 0.691 0.715 0.721 0.723 0.743 0.781
2189.804 0.799 0.85 0.906 0.945 0.9664 1.0008 1.008 1.0369 1.06532 1.0406
2209.098 1.04976 1.04766 1.05731 1.06097 1.0275 0.9863 0.9794 0.932 0.866 0.824
2228.391 0.807 0.797 0.76 0.731 0.738 0.744 0.739 0.73 0.676 0.664
2247.685 0.69 0.666 0.672 0.716 0.731 0.748 0.758 0.765 0.787 0.795
2266.978 0.814 0.842 0.883 0.889 0.864 0.881 0.889 0.892 0.9 0.899
2286.272 0.878 0.847 0.832 0.829 0.79 0.764 0.775 0.726 0.677 0.684
2305.565 0.679 0.672 0.625 0.6 0.62 0.592 0.587 0.577 0.565 0.573
2324.858 0.571 0.593 0.611 0.609 0.595 0.584 0.59 0.611 0.646 0.678
2344.152 0.632 0.616 0.678 0.676 0.676 0.697 0.683 0.693 0.697 0.696
2363.445 0.7 0.707 0.703 0.738 0.807 0.792 0.788 0.834 0.871 0.883
2382.739 0.853 0.839 0.852 0.854 0.886 0.913 0.875 0.847 0.87 0.89
2402.032 0.881 0.882 0.881 0.856 0.853 0.83 0.827 0.817 0.765 0.772
2421.326 0.795 0.81 0.825 0.801 0.774 0.759 0.765 0.759 0.733 0.73
2440.619 0.729 0.741 0.772 0.788 0.78 0.744 0.734 0.787 0.81 0.798
2459.912 0.819 0.809 0.8 0.824 0.832 0.788 0.745 0.746 0.748 0.776
2479.206 0.766 0.744 0.769 0.778 0.754 0.71 0.726 0.745 0.732 0.726
2498.499 0.713 0.696 0.689 0.686 0.68 0.699 0.704 0.668 0.674 0.699
2517.793 0.692 0.667 0.661 0.688 0.707 0.688 0.631 0.624 0.616 0.618
2537.086 0.643 0.647 0.64 0.631 0.618 0.647 0.689 0.673 0.654 0.668
2556.380 0.693 0.684 0.694 0.686 0.717 0.724 0.655 0.662 0.715 0.742
2575.673 0.73 0.703 0.726 0.78 0.789 0.792 0.776 0.772 0.775 0.773
2594.966 0.794 0.79 0.775 0.811 0.845 0.831 0.814 0.833 0.86 0.87
2614.260 0.891 0.873 0.85 0.875 0.866 0.842 0.835 0.865 0.863 0.825
2633.553 0.865 0.918 0.9629 1 0.9878 0.9765 1.0106 1.0273 1.021 1.0043
2652.847 0.9883 1.0011 1.0026 0.9658 0.899 0.916 0.9637 0.933 0.892 0.873
2672.140 0.926 0.903 0.84 0.849 0.847 0.869 0.86 0.788 0.745 0.764
2691.434 0.814 0.806 0.791 0.804 0.813 0.846 0.852 0.875 0.924 0.946
2710.727 1.0059 1.05956 1.08459 1.11922 1.1887 1.2705 1.3245 1.4119 1.5072 1.6024
2730.020 1.64 1.7059 1.7816 1.7941 1.8716 1.9349 1.9266 1.917 1.9503 1.9941
2749.314 1.9615 1.9411 1.9286 1.8813 1.8518 1.8328 1.8582 1.7806 1.7422 1.8702
2768.607 1.9563 1.9153 1.9178 2.0073 2.0069 2.0371 2.0479 2.0411 2.14 2.15
2787.901 2.24 2.37 2.37 2.4 2.47 2.57 2.68 2.79 2.91 3.01
2807.194 3.12 3.27 3.37 3.42 3.5 3.63 3.81 4.05 4.23 4.36
2826.488 4.48 4.66 4.89 5.11 5.39 5.73 6.08 6.42 6.9 7.47
2845.781 8.12 8.82 9.58 10.42 11.32 12.28 13.15 13.91 14.76 15.66
2865.074 16.54 17.35 18.11 18.9 19.68 20.43 21.3 22.3 23.37 24.39
2884.368 25.33 26.11 26.66 27.17 27.45 27.53 27.34 26.92 26.52 26.09
2903.661 25.76 25.67 25.75 26.13 27.02 28.44 30.26 32.5 35.37 38.76
2922.955 42.56 46.75 51.05 55.51 59.78 63.71 67.41 70.35 72.24 73.1
2942.248 72.92 71.49 69.08 66.09 62.55 58.81 55.43 52.7 50.88 50.3
2961.542 51.18 53.46 57.32 62.71 69.55 77.54 85.94 94.64 103.1 110.02
2980.835 114.35 115.65 113.91 109.49 103.15 95.15 85.51 74.78 64.04 54.33
3000.128 46.01 38.94 32.98 27.97 23.91 20.8 18.37 16.41 14.81 13.57
3019.422 12.71 11.89 11.07 10.36 9.74 9.17 8.58 8.12 7.69 7.3
3038.715 7.04 6.82 6.67 6.59 6.59 6.55 6.46 6.38 6.2 6.07
3058.009 6.04 5.96 5.82 5.77 5.72 5.62 5.66 5.82 6.03 6.26
3077.302 6.56 6.84 7.06 7.45 7.95 8.55 9.38 10.38 11.75 13.61
3096.596 15.45 16.53 16.63 16.44 16.23 15.48 14.58 13.31 10.99 8.44
3115.889 6.59 5.36 4.58 4.08 3.81 3.62 3.45 3.22 2.93 2.78
3135.182 2.58 2.38 2.25 2.13 2.0345 2.0035 1.9106 1.7159 1.6957 1.7471
3154.476 1.6116 1.4826 1.4688 1.4463 1.3617 1.3791 1.3734 1.3573 1.3546 1.3135
3173.769 1.2899 1.2843 1.3963 1.4805 1.3358 1.2188 1.2496 1.1556 1.0948 1.0949
3193.063 1.13543 1.2329 1.179 1.07563 1.06913 1.0008 0.895 0.935 0.9544 0.847
3212.356 0.907 0.936 0.894 0.89 0.89 0.94 0.896 0.9516 0.908 0.74
3231.650 0.699 0.767 0.871 0.908 0.868 0.758 0.669 0.502 0.491 0.572
3250.943 0.506 0.459 0.415 0.534 0.489 0.29 0.293 0.307 0.144 0.09
3270.236 0.28 0.383 0.4 0.378 0.325 0.229 0.217 0.181 0.129 0.252
3289.530 0.254 0.232 0.212 0.04 0.02 0.193 0.207 0.09 0.104 0.219
3308.823 0.164 0 0.05 0.129 0.144 0.232 0.252 0.138 0.217 0.409
3328.117 0.393 0.339 0.273 0.298 0.358 0.286 0.272 0.293 0.368 0.49
3347.410 0.627 0.649 0.629 0.59 0.588 0.675 0.623 0.663 0.649 0.538
3366.704 0.44 0.432 0.514 0.452 0.444 0.48 0.504 0.504 0.7 0.786
3385.997 0.66 0.683 0.675 0.598 0.602 0.581 0.535 0.562 0.516 0.391
3405.290 0.461 0.584 0.586 0.576 0.604 0.619 0.607 0.67 0.544 0.502
3424.584 0.536 0.495 0.427 0.44 0.536 0.515 0.531 0.562 0.558 0.596
3443.877 0.601 0.511 0.539 0.567 0.555 0.519 0.599 0.615 0.48 0.568
3463.171 0.684 0.688 0.719 0.811 0.745 0.7 0.794 0.724 0.684 0.749
3482.464 0.718 0.769 0.86 0.901 0.865 0.786 0.773 0.688 0.684 0.794
3501.758 0.736 0.727 0.771 0.695 0.671 0.657 0.717 0.728 0.657 0.623
3521.051 0.591 0.572 0.53 0.59 0.586 0.515 0.521 0.663 0.777 0.627
3540.344 0.632 0.727 0.649 0.601 0.555 0.595 0.623 0.635 0.63 0.616
3559.638 0.633 0.601 0.689 0.785 0.65 0.608 0.693 0.698 0.67 0.606
3578.931 0.7 0.766 0.851 0.862 0.728 0.635 0.635 0.742 0.831 0.826
3598.225 0.77 0.751 0.771 0.9551 1.13766 1.3297 1.5603 1.702 1.917 2.32
3617.518 2.97 3.7 4.44 5.46 6.71 8.06 9.6 11.37 12.85 14.07
3636.812 15.18 16.05 16.73 16.97 16.74 15.89 14.37 12.65 11.09 9.52
3656.105 8 6.59 5.31 4.23 3.33 2.68 2.15 1.7798 1.4791 1.2041
3675.398 1.10036 0.999 0.9 0.852 0.716 0.633 0.63 0.644 0.621 0.613
3694.692 0.598 0.666 0.694 0.651 0.665 0.699 0.697 0.711 0.64 0.603
3713.985 0.724 0.628 0.515 0.528 0.51 0.505 0.574 0.606 0.604 0.588
3733.279 0.539 0.428 0.352 0.38 0.358 0.346 0.501 0.576 0.48 0.486
3752.572 0.554 0.575 0.589 0.581 0.583 0.58 0.576 0.591 0.614 0.572
3771.866 0.612 0.672 0.684 0.703 0.721 0.725 0.8 0.83 0.778 0.832
3791.159 0.861 0.778 0.718 0.707 0.663 0.691 0.744 0.755 0.753 0.709
3810.452 0.647 0.664 0.679 0.691 0.706 0.685 0.676 0.63 0.617 0.714
3829.746 0.709 0.67 0.704 0.726 0.687 0.669 0.717 0.774 0.676 0.606
3849.039 0.68 0.703 0.649 0.692 0.794 0.68 0.644 0.704 0.685 0.714
3868.333 0.715 0.732 0.771 0.727 0.71 0.699 0.704 0.745 0.78 0.823
3887.626 0.853 0.872 0.85 0.743 0.738 0.839 0.9 0.892 0.807 0.743
3906.920 0.804 0.877 0.866 0.825 0.853 0.858 0.827 0.903 1.04637 1.0287
3926.213 0.895 0.92 0.9595 0.949 0.9572 0.905 0.836 0.805 0.735 0.765
3945.506 0.864 0.81 0.75 0.727 0.635 0.652 0.76 0.758 0.736 0.722
3964.800 0.627 0.679 0.791 0.727 0.759 0.811 0.739 0.734 0.841 0.9561
3984.093 0.9715 0.899 0.815 0.852 0.938 0.897 0.828 0.888 0.9822
##END=
