##TITLE=1-Cyano-4-methylnaphthalene
##JCAMP-DX=4.24
##DATA TYPE=INFRARED SPECTRUM
##ORIGIN=EPA-IR VAPOR PHASE LIBRARY
##OWNER=SRD/NIST
Collection (C) 2018 copyright by the U.S. Secretary of Commerce
on behalf of the United States of America. All rights reserved.
##CAS REGISTRY NO=36062-93-8
##MOLFORM=C 12 H 9 N
##$NIST SOURCE=MSDC-IR
##STATE=gas
##XUNITS=1/CM
##YUNITS=ABSORBANCE
##XFACTOR=1.
##YFACTOR=0.001
##DELTAX=1.92898
##FIRSTX=549.8
##LASTX=4000.7
##FIRSTY=1.1344
##MAXX=4000.7
##MINX=549.759
##MAXY=0.091549
##MINY=0
##NPOINTS=1790
##XYDATA=(X++(Y..Y))
549.759 1.1344 1.359 1.213 0.9166 0.8052 0.8793 0.9478 0.9277 0.8942 0.9155
569.049 0.8753 0.8064 0.7749 0.6001 0.5334 0.732 0.9333 0.9401 0.8482 0.7722
588.339 0.9669 1.439 1.549 1.389 1.639 1.789 1.639 1.679 1.759 1.769
607.628 1.629 1.329 1.0264 0.8844 0.7544 0.6793 0.7561 0.7337 0.5096 0.4758
626.918 0.5985 0.5933 0.6035 0.6672 0.8263 0.8844 0.8167 0.8455 0.8106 0.8324
646.208 0.9401 0.8406 0.6972 0.6006 0.6317 0.6086 0.4317 0.459 0.674 0.8084
665.498 0.8323 0.8499 0.8825 1.0625 1.339 1.629 2.059 2.659 3.079 3.369
684.787 3.589 3.619 3.589 3.629 3.599 3.189 2.509 1.969 1.659 1.539
704.077 1.569 1.779 1.989 2.169 2.479 2.619 2.519 2.439 2.449 2.519
723.367 2.579 2.639 2.739 3.009 3.509 4.039 4.959 6.639 9.179 13.299
742.657 19.209 26.399 33.489 38.979 42.669 48.899 66.879 91.549 86.709 57.869
761.947 44.219 41.949 38.219 31.689 23.829 16.859 11.819 8.319 5.839 4.459
781.236 3.709 3.329 3.099 3.079 3.199 3.249 3.159 3.199 3.329 3.359
800.526 3.409 3.559 3.519 3.579 4.049 5.119 6.979 9.599 12.969 16.749
819.816 20.529 24.009 27.219 31.679 39.559 48.609 45.799 33.239 26.389 24.019
839.106 21.269 17.679 13.779 10.039 7.119 5.409 4.359 3.809 3.489 3.389
858.395 3.269 2.989 2.799 2.789 2.689 2.449 2.209 1.989 1.919 1.779
877.685 1.509 1.369 1.389 1.489 1.539 1.459 1.339 1.309 1.349 1.329
896.975 1.319 1.279 1.1687 1.1631 1.2011 1.1843 1.098 1.0176 1.0616 1.0866
916.265 1.0455 1.2149 1.499 1.579 1.649 1.709 1.699 1.759 1.739 1.789
935.555 1.899 2.089 2.189 2.169 2.159 2.119 2.159 2.309 2.669 2.829
954.844 2.709 2.519 2.359 2.259 2.159 2.189 2.009 1.699 1.459 1.1708
974.134 1.0141 1.013 0.95 0.8301 0.7902 0.8614 0.9399 0.9186 1.1189 1.309
993.424 1.399 1.539 1.679 1.889 2.249 2.889 3.459 3.959 4.629 5.129
1012.714 5.459 5.719 5.649 5.749 5.779 5.449 4.989 4.459 4.099 3.939
1032.003 3.859 3.799 3.489 2.999 2.769 2.469 2.089 2.109 1.929 1.699
1051.293 1.599 1.279 1.0148 0.9888 0.9146 0.7048 0.7752 0.8128 0.7232 0.7938
1070.583 0.78 0.7442 0.7613 0.5605 0.4439 0.7232 0.8929 0.9326 0.9588 1.309
1089.873 1.409 1.479 1.779 1.649 1.399 1.1305 0.9943 0.8362 0.9019 0.9933
1109.163 0.6591 0.3833 0.3948 0.6541 0.9042 1.011 0.939 0.6486 0.6467 0.7725
1128.452 0.946 0.9643 0.8002 0.9731 1.2045 1.389 1.499 1.579 1.539 1.569
1147.742 1.869 1.909 2.099 2.669 3.329 4.069 4.509 4.679 4.709 4.579
1167.032 4.719 4.779 4.219 3.359 2.509 1.769 1.389 1.229 1.0526 1.1934
1186.322 1.309 1.2253 1.224 1.389 1.659 1.759 1.679 1.659 1.879 2.349
1205.611 2.579 2.479 2.649 3.169 3.659 4.059 4.439 4.599 4.599 4.459
1224.901 4.189 3.859 3.589 3.319 2.979 2.729 2.519 2.299 2.059 1.939
1244.191 1.829 1.749 1.629 1.309 1.1271 1.0523 1.1547 1.299 1.1952 1.309
1263.481 1.529 1.659 1.939 2.129 2.199 2.259 2.279 2.459 2.639 2.499
1282.771 2.309 2.149 1.899 1.909 2.049 1.979 1.929 1.919 1.829 1.769
1302.060 1.809 1.999 2.289 2.609 2.959 3.379 3.749 4.039 4.269 4.429
1321.350 4.429 4.269 4.069 3.829 3.539 3.189 2.869 2.689 2.689 2.809
1340.640 3.029 3.279 3.489 3.749 4.059 4.409 4.839 5.299 5.719 6.129
1359.930 6.489 6.729 6.919 7.059 7.139 7.129 7.029 6.979 7.129 7.609
1379.219 8.619 10.369 12.669 15.009 16.689 17.399 17.579 17.349 16.439 15.239
1398.509 13.509 10.839 8.129 6.269 5.369 5.119 5.209 5.479 5.919 6.459
1417.799 7.079 7.659 8.149 8.419 8.469 8.419 8.439 8.429 8.109 7.619
1437.089 7.049 6.589 6.279 6.149 6.169 6.139 6.209 6.419 6.579 6.559
1456.378 6.389 6.199 6.029 5.849 5.579 5.269 4.909 4.529 4.169 3.819
1475.668 3.539 3.259 3.049 2.959 2.899 2.879 2.909 2.979 3.269 3.709
1494.958 4.329 5.239 6.449 8.049 9.959 11.849 13.509 14.569 14.939 14.879
1514.248 14.459 13.659 12.309 10.419 8.109 6.099 4.579 3.549 2.989 2.689
1533.538 2.429 2.359 2.449 2.409 2.399 2.429 2.449 2.479 2.519 2.589
1552.827 2.689 2.819 2.849 2.999 3.319 3.559 3.839 4.229 4.769 5.529
1572.117 6.489 7.639 9.009 10.559 12.139 13.649 14.959 15.959 16.379 16.219
1591.407 15.439 14.189 12.629 10.889 9.119 7.429 6.079 5.089 4.469 4.169
1610.697 4.079 3.959 3.869 3.759 3.559 3.339 3.069 2.749 2.429 2.159
1629.986 1.979 1.849 1.709 1.689 1.769 1.829 1.949 2.069 2.189 2.459
1649.276 2.769 3.059 3.289 3.359 3.289 3.189 3.119 2.929 2.639 2.329
1668.566 2.039 1.799 1.539 1.379 1.299 1.249 1.259 1.269 1.279 1.369
1687.856 1.449 1.479 1.569 1.699 1.869 2.109 2.289 2.539 2.769 2.879
1707.146 2.879 2.819 2.769 2.659 2.499 2.279 2.039 1.769 1.499 1.379
1726.435 1.349 1.329 1.269 1.1969 1.1273 1.1194 1.1691 1.1942 1.2154 1.279
1745.725 1.369 1.469 1.559 1.509 1.529 1.569 1.519 1.459 1.369 1.2208
1765.015 1.1482 1.0882 0.9601 0.9342 0.9508 0.9271 0.9489 0.9394 0.9063 0.9015
1784.305 0.9165 0.9565 0.9823 1.0317 1.0859 1.1795 1.339 1.509 1.759 2.019
1803.594 2.249 2.429 2.589 2.639 2.609 2.519 2.409 2.309 2.139 1.989
1822.884 1.869 1.789 1.829 1.969 2.159 2.259 2.259 2.219 2.179 2.139
1842.174 2.019 1.859 1.709 1.619 1.559 1.549 1.639 1.809 2.039 2.349
1861.464 2.729 3.119 3.519 3.959 4.399 4.719 4.819 4.739 4.509 4.259
1880.754 3.999 3.559 2.939 2.379 2.009 1.719 1.609 1.579 1.589 1.619
1900.043 1.659 1.739 1.719 1.679 1.649 1.639 1.639 1.599 1.599 1.669
1919.333 1.829 2.039 2.219 2.309 2.329 2.309 2.229 2.139 2.029 1.899
1938.623 1.809 1.739 1.719 1.809 1.939 2.109 2.189 2.239 2.239 2.149
1957.913 2.059 1.939 1.759 1.569 1.329 1.0865 0.9414 0.811 0.6937 0.6583
1977.202 0.6552 0.6332 0.6123 0.5596 0.4766 0.4856 0.5232 0.4799 0.4746 0.4924
1996.492 0.4977 0.4683 0.4529 0.4812 0.4738 0.4522 0.4361 0.4671 0.4643 0.4235
2015.782 0.41 0.4668 0.5244 0.5051 0.5148 0.5428 0.5196 0.4557 0.4541 0.5092
2035.072 0.4986 0.4528 0.4797 0.5076 0.5031 0.5185 0.5368 0.52 0.4908 0.498
2054.362 0.5291 0.5233 0.5333 0.5667 0.6069 0.6258 0.5973 0.5661 0.5568 0.5647
2073.651 0.5747 0.5445 0.5806 0.6068 0.5756 0.6007 0.5824 0.5607 0.5658 0.5799
2092.941 0.5826 0.5963 0.5725 0.5176 0.5162 0.506 0.4892 0.4926 0.4448 0.4617
2112.231 0.4822 0.4687 0.4412 0.3693 0.406 0.4227 0.3865 0.4288 0.4007 0.3513
2131.521 0.3545 0.3589 0.3546 0.31567 0.3292 0.3305 0.3632 0.3901 0.32167 0.30837
2150.810 0.3616 0.4137 0.4302 0.4604 0.4605 0.432 0.479 0.4932 0.5285 0.6175
2170.100 0.6178 0.5942 0.6381 0.6718 0.7059 0.7572 0.7523 0.7545 0.7942 0.7881
2189.390 0.8193 0.8594 0.8888 0.9843 1.0809 1.2275 1.439 1.659 2.009 2.549
2208.680 3.209 4.089 5.259 6.669 8.329 10.099 11.799 13.259 14.379 15.009
2227.970 15.089 14.679 13.669 12.189 10.319 8.249 6.349 4.879 3.789 3.019
2247.259 2.569 2.299 2.079 1.869 1.759 1.639 1.589 1.589 1.539 1.459
2266.549 1.349 1.289 1.299 1.299 1.239 1.1652 1.1414 1.1267 1.0577 1.0447
2285.839 1.0286 0.949 0.9104 0.8509 0.8308 0.8719 0.8776 0.8807 0.8715 0.9353
2305.129 1.0086 0.9556 0.9107 0.9671 0.9732 0.922 0.9061 0.8682 0.8565 0.8401
2324.418 0.7805 0.7693 0.7665 0.7651 0.7875 0.7964 0.7244 0.6919 0.6828 0.6231
2343.708 0.5912 0.5996 0.6386 0.6243 0.5763 0.5405 0.5808 0.5898 0.5534 0.5123
2362.998 0.5248 0.5896 0.5743 0.597 0.6582 0.6472 0.6084 0.5938 0.6515 0.7327
2382.288 0.6925 0.6389 0.6115 0.6445 0.7182 0.703 0.647 0.6652 0.7428 0.7436
2401.578 0.7099 0.7364 0.7573 0.7617 0.8066 0.8124 0.7856 0.7429 0.6715 0.5911
2420.867 0.6013 0.6057 0.5577 0.5478 0.5692 0.5977 0.614 0.5803 0.5457 0.5316
2440.157 0.5046 0.5059 0.5034 0.4958 0.5071 0.5476 0.5936 0.6296 0.5727 0.5435
2459.447 0.5973 0.6405 0.6516 0.7109 0.7338 0.6836 0.7134 0.7259 0.7267 0.6928
2478.737 0.6583 0.6615 0.6778 0.6931 0.6716 0.5855 0.5638 0.6238 0.6228 0.6013
2498.026 0.6167 0.6812 0.7087 0.6822 0.6691 0.6484 0.6365 0.6668 0.7185 0.7445
2517.316 0.7602 0.7885 0.7687 0.7516 0.7807 0.8125 0.7785 0.7495 0.6843 0.6433
2536.606 0.665 0.6881 0.7632 0.7515 0.6838 0.6621 0.66 0.636 0.6012 0.5574
2555.896 0.5259 0.5315 0.5126 0.485 0.4823 0.484 0.534 0.5141 0.491 0.4824
2575.186 0.4684 0.5158 0.4801 0.5068 0.5462 0.5201 0.4781 0.4168 0.514 0.5693
2594.475 0.5513 0.5795 0.5466 0.5757 0.5943 0.6245 0.6594 0.6023 0.5536 0.5887
2613.765 0.5931 0.6323 0.6458 0.5876 0.6058 0.6692 0.7751 0.8449 0.9091 0.9376
2633.055 0.8808 0.8696 0.8575 0.82 0.7576 0.6624 0.6457 0.6263 0.6196 0.6047
2652.345 0.5739 0.5514 0.5322 0.59 0.6017 0.549 0.5464 0.5376 0.5142 0.5539
2671.634 0.5455 0.4953 0.479 0.5404 0.6103 0.5907 0.5913 0.6332 0.6086 0.5589
2690.924 0.6211 0.6172 0.5779 0.558 0.5573 0.5744 0.5281 0.51 0.4649 0.4555
2710.214 0.4831 0.4719 0.5028 0.4706 0.4412 0.4521 0.4562 0.4975 0.5392 0.6128
2729.504 0.6621 0.6923 0.7671 0.8529 0.891 0.9194 1.0368 1.0465 1.0193 1.0605
2748.794 1.0582 1.0593 1.0238 0.983 0.8747 0.8062 0.7767 0.6631 0.6857 0.6825
2768.083 0.6676 0.7532 0.7144 0.5929 0.598 0.6595 0.6754 0.7336 0.7609 0.7283
2787.373 0.7048 0.7162 0.7061 0.73 0.7672 0.7375 0.7387 0.773 0.8471 0.9377
2806.663 0.9685 0.9819 0.9934 1.0313 1.0584 1.1655 1.319 1.309 1.259 1.339
2825.953 1.439 1.429 1.419 1.489 1.549 1.559 1.639 1.659 1.599 1.709
2845.242 1.899 1.979 2.069 2.249 2.369 2.539 2.799 3.019 3.319 3.779
2864.532 4.079 4.289 4.619 4.949 5.209 5.409 5.519 5.569 5.579 5.509
2883.822 5.479 5.449 5.379 5.249 5.079 5.109 5.259 5.369 5.479 5.649
2903.112 5.839 6.039 6.289 6.429 6.479 6.589 6.699 6.879 7.159 7.519
2922.401 8.009 8.659 9.439 10.289 11.249 12.219 12.929 13.299 13.469 13.439
2941.691 13.139 12.639 12.029 11.369 10.859 10.589 10.379 10.279 10.419 10.849
2960.981 11.299 11.159 10.669 10.269 10.019 9.969 9.969 10.039 10.449 10.929
2980.271 11.409 11.879 12.039 11.949 11.779 11.489 11.109 10.519 9.749 8.849
2999.561 7.969 7.359 6.929 6.659 6.589 6.599 6.679 6.799 6.899 6.939
3018.850 6.999 7.139 7.269 7.529 7.819 8.229 8.669 9.019 9.549 10.199
3038.140 10.749 11.299 11.959 12.619 13.319 13.889 14.209 14.449 14.619 14.769
3057.430 14.919 15.089 15.279 15.659 16.269 17.049 18.009 19.059 20.069 21.009
3076.720 21.989 22.769 23.349 23.319 22.579 21.529 20.169 18.799 17.429 15.989
3096.009 14.479 12.839 11.399 10.159 9.109 8.299 7.419 6.559 5.789 4.879
3115.299 4.079 3.499 2.939 2.459 2.139 1.969 1.829 1.639 1.509 1.449
3134.589 1.389 1.369 1.299 1.2162 1.1052 1.0301 1.0631 1.1428 1.1502 0.9959
3153.879 0.8734 0.9052 0.9527 0.9034 0.9079 0.8663 0.8594 0.9882 0.9734 0.9322
3173.169 0.9335 0.9072 0.9748 0.9274 0.7566 0.694 0.703 0.7521 0.7325 0.5876
3192.458 0.6123 0.7374 0.6783 0.6651 0.6925 0.6413 0.7179 0.7589 0.7126 0.7685
3211.748 0.7987 0.7757 0.6714 0.5529 0.5081 0.5279 0.5675 0.5409 0.4934 0.4703
3231.038 0.4465 0.4969 0.4879 0.3974 0.4407 0.4588 0.3651 0.31071 0.3701 0.382
3250.328 0.3892 0.4012 0.32471 0.31357 0.3851 0.4685 0.4677 0.3475 0.25389 0.30481
3269.617 0.3338 0.32573 0.4059 0.4042 0.24334 0.29994 0.4167 0.3349 0.26008 0.25924
3288.907 0.1688 0.096 0.1642 0.1767 0.1858 0.28614 0.30546 0.1735 0.1759 0.2061
3308.197 0.1862 0.2006 0.24109 0.188 0.122 0.1794 0.27749 0.3395 0.28472 0.26958
3327.487 0.29459 0.3726 0.3703 0.238985 0.1604 0.2015 0.30132 0.2839 0.31639 0.31738
3346.777 0.30426 0.3317 0.30629 0.3302 0.26309 0.236421 0.235969 0.232538 0.22569 0.27156
3366.066 0.3453 0.3448 0.3308 0.3298 0.235914 0.1563 0.31019 0.3514 0.3158 0.3344
3385.356 0.351 0.28174 0.229243 0.27753 0.2145 0.1853 0.31821 0.31043 0.25214 0.31795
3404.646 0.29622 0.2151 0.2147 0.29068 0.31365 0.29067 0.23987 0.107 0.22324 0.3801
3423.936 0.31357 0.27318 0.231093 0.26003 0.32609 0.3706 0.3499 0.30977 0.28874 0.28687
3443.225 0.3992 0.4189 0.32518 0.272 0.29685 0.3842 0.5429 0.4882 0.361 0.4547
3462.515 0.5392 0.4669 0.3857 0.4043 0.3642 0.26517 0.31865 0.4178 0.3472 0.3865
3481.805 0.4097 0.28415 0.26804 0.3317 0.3432 0.28002 0.28572 0.24671 0.2016 0.31037
3501.095 0.4026 0.4524 0.4045 0.406 0.3868 0.22341 0.2701 0.3586 0.3611 0.3298
3520.385 0.3409 0.3468 0.229528 0.118 0.1349 0.30295 0.30962 0.22769 0.28641 0.3556
3539.674 0.27707 0.29659 0.28352 0.2044 0.25416 0.31229 0.3611 0.32349 0.27071 0.1736
3558.964 0.065 0.1296 0.1708 0.2048 0.25894 0.28992 0.352 0.25363 0.2056 0.245
3578.254 0.229797 0.2137 0.1891 0.25367 0.29079 0.25954 0.2147 0.26002 0.28438 0.1741
3597.544 0.236606 0.29002 0.1601 0.146 0.1942 0.27094 0.4199 0.3828 0.3265 0.337
3616.833 0.3768 0.3801 0.31986 0.31772 0.24465 0.30985 0.3667 0.3311 0.2071 0.063
3636.123 0.122 0.1932 0.30512 0.32431 0.2024 0.1581 0.2177 0.2108 0.2149 0.28952
3655.413 0.30764 0.26666 0.1787 0.1853 0.30892 0.30694 0.1955 0.196 0.1994 0.2161
3674.703 0.24445 0.229876 0.24483 0.30731 0.31301 0.2146 0.26836 0.347 0.3365 0.27372
3693.993 0.119 0.084 0.2091 0.27279 0.3384 0.3803 0.3671 0.3687 0.26298 0.24285
3713.282 0.27138 0.2107 0.24849 0.3054 0.273 0.30849 0.30224 0.25605 0.31098 0.3977
3732.572 0.3906 0.32757 0.3211 0.3462 0.3762 0.3398 0.3773 0.3739 0.30494 0.3419
3751.862 0.27773 0.28233 0.29548 0.29159 0.4352 0.5518 0.5317 0.4719 0.4873 0.4736
3771.152 0.4524 0.4933 0.4809 0.4644 0.5317 0.5048 0.3989 0.4453 0.5236 0.4858
3790.441 0.4008 0.4767 0.6087 0.5828 0.4188 0.426 0.5881 0.555 0.4575 0.4853
3809.731 0.6822 0.6855 0.5511 0.5486 0.5694 0.5366 0.4684 0.4353 0.5335 0.5502
3829.021 0.4631 0.3889 0.3991 0.475 0.5605 0.4641 0.4436 0.5128 0.4326 0.5388
3848.311 0.6857 0.7002 0.5976 0.56 0.5883 0.5853 0.6936 0.8528 0.7992 0.6445
3867.601 0.4919 0.4272 0.5742 0.5608 0.4524 0.4005 0.4241 0.4224 0.3458 0.3575
3886.890 0.4073 0.345 0.28565 0.30203 0.24445 0.232795 0.228188 0.26907 0.3487 0.3768
3906.180 0.4608 0.3392 0.1413 0.1925 0.24345 0.2134 0.1958 0.22279 0.230534 0.2162
3925.470 0.26519 0.3649 0.3959 0.4498 0.4504 0.3557 0.27826 0.30005 0.3685 0.4077
3944.760 0.4496 0.3994 0.31383 0.22657 0.1929 0.1519 0.24205 0.4386 0.4178 0.31261
3964.049 0.28127 0.27117 0.2179 0.28186 0.345 0.32655 0.28976 0.3346 0.28409 0.2042
3983.339 0.2113 0.1671 0.29395 0.3533 0.1362 0 0.098 0.22639 0.233119 0.232817
##END=
