##TITLE=1-Benzyl-4-piperidine
##JCAMP-DX=4.24
##DATA TYPE=INFRARED SPECTRUM
##ORIGIN=NIST Mass Spectrometry Data Center
##OWNER=NIST Standard Reference Data Program
Collection (C) 2018 copyright by the U.S. Secretary of Commerce
on behalf of the United States of America. All rights reserved.
##CAS REGISTRY NO=3612-20-2
##MOLFORM=C 12 H 15 N O
##$NIST SOURCE=MSDC-IR
##SPECTROMETER/DATA SYSTEM=HP-GC/MS/IRD
##STATE=gas
##XUNITS=1/CM
##YUNITS=ABSORBANCE
##XFACTOR=1.0
##YFACTOR=0.000014000
##DELTAX=4.0
##FIRSTX=550.0
##LASTX=3846.0
##FIRSTY=0.000182
##MAXX=3846
##MINX=550
##MAXY=0.14
##MINY=0
##NPOINTS=825
##XYDATA=(X++(Y..Y))
550.0 13 16 5 4 5 4 0 3 16 38
590.0 73 122 174 215 230 210 169 127 88 58
630.0 44 36 36 43 53 71 95 128 174 222
670.0 274 338 440 632 972 1437 1848 2008 1856 1519
710.0 1214 1052 1071 1283 1617 1921 2033 1916 1674 1489
750.0 1444 1427 1331 1142 916 712 538 410 331 286
790.0 269 280 311 354 399 427 416 367 302 225
830.0 157 113 87 76 70 64 57 53 52 52
870.0 54 57 62 74 93 115 155 217 279 309
910.0 287 231 186 174 182 200 224 238 241 238
950.0 225 223 245 286 356 456 572 657 676 656
990.0 663 727 809 866 879 840 775 755 864 971
1030.0 942 775 544 417 374 373 433 569 796 1035
1070.0 1182 1190 1095 989 889 763 625 535 536 624
1110.0 820 1159 1659 2226 2600 2555 2079 1487 1092 901
1150.0 816 772 738 714 723 785 901 1059 1257 1472
1190.0 1657 1745 1696 1531 1337 1217 1185 1184 1161 1107
1230.0 1052 1004 941 865 794 751 748 766 778 786
1270.0 817 891 981 1063 1103 1077 1008 941 920 961
1310.0 1068 1233 1437 1653 1811 1880 1953 2227 2765 3152
1350.0 3031 2462 1867 1597 1480 1314 1093 920 856 827
1390.0 789 736 686 680 742 861 992 1082 1091 1009
1430.0 872 741 671 688 768 853 887 848 764 687
1470.0 641 610 582 561 577 649 705 663 518 336
1510.0 210 155 126 113 107 105 104 102 100 97
1550.0 93 93 95 100 108 122 135 153 176 209
1590.0 257 305 336 335 304 259 217 183 163 154
1630.0 153 155 159 165 176 193 220 249 284 324
1670.0 369 416 463 524 610 716 833 949 1072 1240
1710.0 1516 1982 2810 4171 6067 8090 9586 10000 9143 7386
1750.0 5254 3374 2126 1429 1047 820 670 567 494 437
1790.0 394 360 332 297 251 206 171 144 124 108
1830.0 96 85 77 71 69 73 81 92 104 115
1870.0 124 131 133 130 121 106 88 76 70 64
1910.0 64 66 71 80 91 105 124 141 151 150
1950.0 141 129 112 87 58 36 24 20 18 17
1990.0 16 17 15 14 15 14 11 10 8 9
2030.0 10 11 10 11 12 12 11 10 11 12
2070.0 15 18 19 20 20 18 15 13 11 7
2110.0 4 3 1 3 3 5 4 5 5 3
2150.0 1 2 2 3 5 7 9 10 9 10
2190.0 9 10 11 11 9 10 9 8 10 8
2230.0 6 5 5 6 7 5 3 4 5 4
2270.0 4 5 5 4 5 4 3 5 7 9
2310.0 14 15 11 7 5 5 6 8 6 3
2350.0 3 4 6 5 6 5 4 4 5 6
2390.0 7 6 6 8 9 9 10 12 13 12
2430.0 12 10 7 4 1 3 4 2 0 1
2470.0 0 0 2 4 5 5 6 7 6 6
2510.0 7 6 4 3 5 6 6 9 12 14
2550.0 17 20 23 23 25 27 30 35 41 50
2590.0 58 68 81 92 100 108 114 120 126 130
2630.0 137 147 161 177 188 204 216 222 229 241
2670.0 258 275 299 325 353 380 398 415 438 466
2710.0 497 528 550 562 572 591 630 697 803 942
2750.0 1107 1283 1427 1515 1540 1527 1535 1629 1857 2240
2790.0 2757 3334 3852 4180 4240 4043 3651 3143 2600 2087
2830.0 1654 1321 1082 918 801 710 644 605 592 604
2870.0 637 684 738 784 817 849 897 991 1166 1437
2910.0 1789 2154 2416 2488 2362 2125 1892 1728 1664 1692
2950.0 1790 1927 2076 2242 2423 2550 2465 2094 1560 1041
2990.0 692 513 433 411 424 464 540 674 870 1107
3030.0 1322 1431 1387 1216 1002 841 792 873 1081 1370
3070.0 1574 1574 1383 1126 949 832 715 584 467 378
3110.0 314 257 200 149 109 84 64 52 47 44
3150.0 42 43 43 44 45 42 35 30 26 20
3190.0 15 13 12 14 15 12 10 9 11 9
3230.0 8 7 3 4 4 7 7 5 4 4
3270.0 1 0 2 7 8 5 4 4 3 4
3310.0 6 7 5 5 4 4 5 9 10 8
3350.0 8 11 14 16 14 12 16 19 18 17
3390.0 19 22 25 28 33 39 41 43 51 59
3430.0 69 82 98 119 142 159 168 159 144 122
3470.0 103 88 76 69 61 51 44 36 29 27
3510.0 25 21 19 17 12 12 12 13 12 10
3550.0 10 10 13 15 14 13 14 13 14 14
3590.0 14 18 19 17 18 19 19 22 20 25
3630.0 25 21 25 27 28 28 32 33 30 31
3670.0 32 29 30 30 29 29 30 31 31 33
3710.0 30 25 28 30 32 34 32 31 31 29
3750.0 31 29 28 28 29 28 29 31 29 28
3790.0 33 34 31 33 33 30 29 31 32 33
3830.0 35 36 33 31 32
##END=
