##TITLE=3-Acetyl-2,5-dichlorothiophene
##JCAMP-DX=4.24
##DATA TYPE=INFRARED SPECTRUM
##ORIGIN=EPA-IR VAPOR PHASE LIBRARY
##OWNER=SRD/NIST
Collection (C) 2018 copyright by the U.S. Secretary of Commerce
on behalf of the United States of America. All rights reserved.
##CAS REGISTRY NO=36157-40-1
##MOLFORM=C6 H4 Cl2 O S
##$NIST SOURCE=MSDC-IR
##STATE=gas
##XUNITS=1/CM
##YUNITS=ABSORBANCE
##XFACTOR=1.
##YFACTOR=0.001
##DELTAX=1.92898
##FIRSTX=549.8
##LASTX=4000.7
##FIRSTY=41.516
##MAXX=4000.7
##MINX=549.759
##MAXY=0.447596
##MINY=0
##NPOINTS=1790
##XYDATA=(X++(Y..Y))
549.759 41.516 50.746 62.006 73.016 80.046 83.796 85.216 82.466 77.306 68.836
569.049 56.856 45.656 38.926 35.986 35.056 34.716 34.056 32.966 31.936 30.736
588.339 28.386 24.946 20.586 16.476 13.456 11.396 9.936 8.946 8.846 9.356
607.628 10.496 11.916 13.356 15.016 16.866 18.616 19.686 21.036 22.726 24.186
626.918 25.976 27.436 28.576 29.886 30.686 30.946 30.326 29.156 27.636 25.906
646.208 24.386 22.856 20.006 16.996 15.386 14.286 13.116 12.006 11.056 10.356
665.498 9.766 8.886 8.326 7.886 7.606 7.456 6.686 6.086 6.396 6.576
684.787 6.516 6.176 5.686 5.446 5.026 4.526 4.016 3.556 3.136 2.726
704.077 2.406 2.246 1.956 1.616 1.336 1.336 1.626 1.576 1.346 1.436
723.367 1.336 1.1837 1.376 1.526 1.696 1.706 1.556 1.726 2.166 2.586
742.657 2.906 2.966 3.076 3.196 3.396 3.796 4.046 4.206 4.526 4.486
761.947 4.796 5.696 6.116 6.496 6.826 6.916 6.996 6.996 6.606 5.966
781.236 5.436 4.886 4.576 4.146 3.566 3.506 3.506 3.336 3.646 4.446
800.526 4.976 5.266 6.326 8.316 10.446 12.946 16.136 19.166 22.286 26.156
819.816 31.816 36.346 34.836 32.616 33.176 34.746 36.726 39.246 42.656 46.346
839.106 50.636 55.176 58.956 61.956 64.166 64.596 62.956 59.506 55.456 51.886
858.395 48.856 45.466 41.196 36.836 32.066 26.616 21.026 16.156 12.286 9.766
877.685 8.646 7.976 7.226 6.626 5.846 5.086 4.836 4.636 4.436 4.036
896.975 3.666 3.636 3.456 3.376 3.296 2.866 3.096 3.236 3.126 3.386
916.265 3.536 3.626 3.956 4.086 4.246 4.636 4.996 5.446 5.706 5.766
935.555 6.176 6.876 7.246 7.616 8.056 8.716 10.026 11.696 14.156 16.936
954.844 19.266 22.096 24.396 26.006 27.766 29.376 30.826 31.416 31.496 31.406
974.134 30.976 30.556 30.186 30.096 30.196 29.976 30.286 31.726 33.276 35.046
993.424 37.576 40.456 43.656 46.476 48.816 51.046 53.496 55.886 57.576 59.256
1012.714 61.136 63.636 67.886 74.316 84.616 99.786 119.876 145.036 172.576 198.796
1032.003 220.386 235.576 243.996 244.956 236.706 216.456 184.566 149.936 121.396 97.806
1051.293 76.756 57.656 42.596 32.526 25.446 20.836 17.816 15.636 14.156 13.266
1070.583 12.536 11.596 11.056 10.476 10.956 11.476 10.706 10.286 11.056 11.686
1089.873 11.086 10.636 10.876 11.106 10.646 10.886 11.596 12.496 13.296 14.266
1109.163 14.606 15.116 15.976 16.506 17.466 18.486 20.186 21.786 23.026 24.516
1128.452 26.086 27.606 29.466 31.176 32.486 33.406 33.606 33.216 32.826 31.846
1147.742 30.356 28.506 25.446 23.506 22.326 21.366 20.866 20.416 20.556 21.746
1167.032 23.116 24.166 25.876 27.806 30.266 33.306 36.346 39.316 42.966 48.106
1186.322 53.116 58.946 68.126 79.376 93.476 113.236 140.766 178.726 227.236 285.876
1205.611 349.486 402.436 434.346 447.596 444.706 421.456 380.456 317.966 237.126 162.186
1224.901 107.566 71.726 49.516 36.196 28.766 24.006 20.226 18.216 16.646 14.996
1244.191 13.906 13.166 12.316 11.446 10.566 9.716 8.936 8.566 8.486 7.996
1263.481 7.776 7.576 7.226 7.126 7.096 6.936 6.746 6.576 6.266 6.386
1282.771 6.446 6.466 6.536 6.536 7.036 7.666 8.046 8.436 9.156 9.846
1302.060 10.506 11.346 12.246 13.326 14.626 16.116 18.206 20.856 24.156 28.386
1321.350 33.736 40.806 49.576 60.126 72.236 84.846 96.506 105.616 111.116 112.556
1340.640 110.586 105.876 98.396 88.486 78.046 70.906 69.586 74.056 83.156 95.866
1359.930 112.166 131.706 153.036 173.026 187.906 195.166 194.676 187.416 173.356 153.526
1379.219 128.176 99.996 75.206 58.036 48.016 42.906 40.736 40.446 41.636 43.816
1398.509 46.996 51.406 56.976 64.076 73.226 84.706 98.796 116.296 137.246 161.576
1417.799 188.946 219.116 249.046 277.026 301.586 320.456 332.076 333.756 323.536 302.826
1437.089 273.516 239.606 202.326 163.896 128.386 99.126 77.296 62.086 51.376 43.686
1456.378 37.886 33.336 30.016 27.376 25.156 23.296 21.806 20.446 19.156 17.946
1475.668 16.986 16.166 15.516 14.926 14.396 14.086 14.006 14.056 14.346 14.746
1494.958 15.276 16.186 17.346 18.916 21.086 23.796 27.346 31.796 37.016 43.056
1514.248 49.886 57.086 64.056 69.796 73.706 75.566 74.996 71.946 67.176 61.006
1533.538 53.826 46.136 39.006 33.046 28.676 25.646 23.356 21.626 20.386 19.296
1552.827 18.316 17.286 16.236 15.266 14.206 13.366 12.806 12.106 11.466 10.936
1572.117 10.536 10.356 10.166 9.796 9.486 9.296 9.316 9.446 9.466 9.536
1591.407 9.586 9.436 9.326 9.356 9.376 9.236 9.066 8.956 8.876 8.766
1610.697 8.636 8.486 8.466 8.656 8.926 9.356 9.956 10.516 11.326 12.316
1629.986 13.316 14.426 15.526 16.646 17.506 18.066 18.826 19.736 20.616 21.506
1649.276 22.426 23.646 25.466 27.686 30.376 33.366 36.836 40.856 45.186 49.626
1668.566 54.426 59.316 64.306 69.896 77.126 86.346 99.246 116.446 139.866 170.506
1687.856 206.246 246.726 286.136 317.846 341.416 361.656 379.196 390.106 386.926 369.546
1707.146 342.026 309.956 277.126 245.666 215.636 186.406 157.456 131.996 111.136 95.186
1726.435 83.336 74.426 67.666 62.766 59.036 55.876 53.226 50.376 47.226 43.866
1745.725 40.226 36.356 32.456 28.606 25.006 21.966 19.486 17.486 15.926 14.746
1765.015 13.916 13.296 12.826 12.416 11.866 11.286 10.696 10.026 9.356 8.606
1784.305 7.956 7.426 6.876 6.426 6.166 5.906 5.606 5.396 5.266 5.096
1803.594 4.846 4.646 4.496 4.386 4.246 4.106 4.086 4.076 4.006 3.986
1822.884 4.026 3.886 3.736 3.676 3.546 3.446 3.406 3.376 3.406 3.526
1842.174 3.576 3.676 3.806 3.886 4.016 3.966 3.816 3.736 3.486 3.206
1861.464 2.986 2.786 2.646 2.406 2.296 2.316 2.266 2.166 2.086 2.096
1880.754 2.166 2.206 2.206 2.156 2.046 2.036 2.106 2.156 2.226 2.176
1900.043 2.056 2.096 2.056 1.956 1.886 1.896 1.976 1.846 1.836 1.896
1919.333 1.846 1.876 1.926 1.896 1.896 1.896 1.836 1.806 1.806 1.766
1938.623 1.666 1.626 1.616 1.636 1.576 1.526 1.576 1.586 1.576 1.546
1957.913 1.566 1.636 1.686 1.726 1.806 1.876 1.966 1.916 1.866 1.926
1977.202 1.956 2.026 2.046 1.986 1.906 1.916 1.986 2.046 2.096 2.136
1996.492 2.266 2.366 2.306 2.406 2.526 2.406 2.346 2.376 2.306 2.256
2015.782 2.226 2.146 1.956 1.806 1.666 1.696 1.796 1.716 1.686 1.726
2035.072 1.696 1.626 1.676 1.706 1.716 1.646 1.556 1.576 1.676 1.776
2054.362 1.766 1.776 1.736 1.666 1.616 1.626 1.606 1.556 1.636 1.696
2073.651 1.636 1.626 1.556 1.416 1.376 1.2064 1.1328 1.1874 1.0786 0.9654
2092.941 0.934 0.9569 1.0315 0.9876 0.9063 0.9774 1.0438 1.0599 0.9801 0.8444
2112.231 0.8213 0.8919 0.9802 0.9339 0.8834 0.9342 0.8935 0.9057 0.9892 0.9244
2131.521 0.914 0.9958 0.9481 1.0201 1.0773 1.0898 1.1727 1.2002 1.1426 1.0655
2150.810 1.1356 1.2156 1.1958 1.2219 1.306 1.376 1.286 1.286 1.296 1.1852
2170.100 1.1977 1.152 1.064 1.0698 1.1029 1.0861 1.1819 1.266 1.1951 1.2389
2189.390 1.286 1.2286 1.356 1.416 1.356 1.456 1.496 1.566 1.556 1.536
2208.680 1.646 1.646 1.566 1.466 1.536 1.546 1.496 1.486 1.516 1.546
2227.970 1.586 1.546 1.516 1.526 1.456 1.356 1.276 1.2432 1.1866 1.1962
2247.259 1.1059 1.0413 1.0866 1.0658 0.9437 0.8841 0.9495 0.8626 0.8092 0.8233
2266.549 0.8344 0.8937 0.869 0.8099 0.7585 0.798 0.7347 0.7006 0.733 0.7059
2285.839 0.7793 0.8383 0.8886 0.9147 0.9268 0.8275 0.8857 1.0514 1.0621 0.9968
2305.129 0.9921 1.0763 1.1027 1.114 1.1687 1.2106 1.1956 1.296 1.356 1.326
2324.418 1.416 1.446 1.386 1.366 1.316 1.336 1.436 1.456 1.416 1.326
2343.708 1.296 1.376 1.366 1.436 1.496 1.446 1.416 1.446 1.496 1.496
2362.998 1.456 1.396 1.446 1.446 1.316 1.336 1.446 1.416 1.316 1.336
2382.288 1.436 1.496 1.436 1.416 1.376 1.436 1.506 1.496 1.586 1.546
2401.578 1.486 1.506 1.526 1.546 1.496 1.446 1.346 1.416 1.496 1.466
2420.867 1.516 1.466 1.346 1.346 1.256 1.2036 1.1375 1.1364 1.1876 1.0457
2440.157 0.966 1.0211 0.9483 0.8718 0.922 0.9427 0.9294 0.9296 0.9993 0.9254
2459.447 0.8638 0.9032 0.8686 0.8505 0.7976 0.8082 0.8755 0.9424 0.9338 0.9321
2478.737 1.0025 0.9609 0.943 0.9465 0.9955 1.1167 1.0663 0.8516 0.7622 0.7727
2498.026 0.8501 0.8913 0.8965 0.9195 0.9693 1.0775 1.0012 0.8509 0.9547 1.1026
2517.316 1.0096 1.0109 1.0334 1.0129 1.0263 1.1272 1.2201 1.1907 1.276 1.276
2536.606 1.1612 1.266 1.376 1.346 1.406 1.506 1.546 1.556 1.596 1.526
2555.896 1.476 1.556 1.576 1.556 1.536 1.476 1.466 1.416 1.266 1.1749
2575.186 1.1464 1.1461 1.1073 1.0684 1.0644 1.0858 1.0137 0.87 0.7938 0.7527
2594.475 0.7238 0.7065 0.751 0.741 0.5757 0.5201 0.6376 0.7714 0.8033 0.7542
2613.765 0.7282 0.6775 0.7353 0.7864 0.7472 0.9271 1.124 1.1321 1.1063 1.1707
2633.055 1.316 1.396 1.506 1.546 1.456 1.576 1.746 1.736 1.706 1.646
2652.345 1.616 1.656 1.606 1.516 1.436 1.306 1.2035 1.2482 1.326 1.316
2671.634 1.2184 1.1208 1.1052 1.0759 1.1071 1.1259 1.0776 1.0274 0.8991 0.8761
2690.924 0.901 0.8267 0.7916 0.8292 0.7906 0.8105 0.8181 0.7338 0.6734 0.5999
2710.214 0.7191 0.7716 0.7233 0.7939 0.7998 0.8695 0.8464 0.8049 0.9422 0.893
2729.504 0.8511 0.9021 1.0018 1.0824 0.9814 0.8668 0.8244 0.7932 0.8856 0.8645
2748.794 0.8524 1.1009 1.1694 1.1267 1.1249 1.0213 0.99 1.2304 1.436 1.426
2768.083 1.366 1.2458 1.2465 1.456 1.566 1.536 1.476 1.366 1.266 1.2358
2787.373 1.286 1.2409 1.286 1.526 1.446 1.336 1.476 1.566 1.586 1.626
2806.663 1.566 1.636 1.776 1.656 1.576 1.726 1.786 1.786 1.866 2.006
2825.953 2.116 2.126 2.216 2.416 2.736 2.936 3.116 3.516 3.726 3.816
2845.242 3.976 3.976 3.996 4.066 4.116 4.096 4.156 4.206 4.066 3.806
2864.532 3.666 3.606 3.376 3.046 2.806 2.666 2.376 2.156 2.236 2.366
2883.822 2.376 2.276 2.206 2.296 2.486 2.476 2.496 2.726 2.766 2.676
2903.112 2.686 2.846 2.846 2.726 2.786 2.966 3.106 3.256 3.496 3.706
2922.401 3.766 4.006 4.306 4.526 4.846 5.326 5.506 5.466 5.686 5.676
2941.691 5.576 5.536 5.406 5.246 5.166 5.056 5.096 5.136 5.186 5.526
2960.981 5.676 5.776 6.106 6.566 6.896 7.256 7.806 8.066 8.216 8.626
2980.271 8.986 9.126 9.236 9.216 9.056 8.996 9.006 9.046 9.116 9.566
2999.561 10.266 11.116 12.126 13.276 14.546 15.506 16.296 16.866 16.856 16.376
3018.850 15.676 14.596 13.096 11.586 10.256 9.156 8.176 7.116 6.316 5.866
3038.140 5.396 4.956 4.676 4.456 4.096 3.856 3.856 3.756 3.526 3.396
3057.430 3.446 3.566 3.656 3.736 3.606 3.556 3.776 3.756 3.776 3.966
3076.720 3.936 3.876 3.806 3.896 4.116 4.136 4.386 4.796 5.156 5.626
3096.009 6.296 7.026 8.176 9.766 11.206 12.666 13.866 14.316 13.976 13.416
3115.299 12.976 12.056 10.326 8.326 6.356 4.686 3.806 3.146 2.586 2.426
3134.589 2.226 1.986 1.806 1.816 1.706 1.536 1.486 1.356 1.366 1.476
3153.879 1.616 1.686 1.436 1.1343 1.1505 1.256 1.2482 1.2541 1.316 1.1724
3173.169 1.1361 1.1873 1.0319 0.8617 0.8955 0.9556 1.0405 1.02 0.8285 0.7636
3192.458 0.9503 1.0518 0.9495 1.0625 0.935 0.7245 0.7959 0.8211 0.7585 0.6853
3211.748 0.7205 0.7676 0.744 0.8195 0.7628 0.6763 0.6688 0.6677 0.8375 0.8301
3231.038 0.6913 0.7786 0.782 0.7389 0.8002 0.7931 0.5709 0.4898 0.6103 0.5617
3250.328 0.578 0.6121 0.5322 0.4663 0.4947 0.632 0.6501 0.5022 0.5755 0.71
3269.617 0.6808 0.5963 0.7939 0.8404 0.8111 0.748 0.53 0.5727 0.7298 0.9009
3288.907 0.8175 0.7595 0.7377 0.6452 0.5353 0.5895 0.7606 0.7655 0.6769 0.6063
3308.197 0.7498 0.7602 0.7308 0.7545 0.789 0.8742 0.9704 0.9734 1.06 1.2511
3327.487 1.0992 1.0973 1.0948 1.0393 1.13 1.2171 1.476 1.626 1.586 1.766
3346.777 2.116 2.166 2.296 2.696 2.946 3.046 3.276 3.706 4.076 4.546
3366.066 5.056 5.496 5.796 6.066 6.336 6.646 6.806 6.436 6.106 6.086
3385.356 5.776 5.396 5.436 5.286 4.936 4.856 4.646 4.316 4.256 4.156
3404.646 3.876 3.556 3.356 3.286 3.106 2.846 2.776 2.596 2.426 2.426
3423.936 2.186 2.086 2.086 1.946 1.736 1.386 1.2248 1.326 1.466 1.486
3443.225 1.286 1.2159 1.2309 1.139 1.0536 1.0145 1.0477 1.2522 1.1244 0.9499
3462.515 0.8713 0.7345 0.7537 0.7878 0.8257 0.7949 0.8643 0.9625 1.029 0.9124
3481.805 0.7788 0.5643 0.524 0.7843 0.7752 0.6299 0.5438 0.6141 0.4528 0.3581
3501.095 0.3617 0.27031 0.30571 0.4517 0.6838 0.5744 0.3647 0.32864 0.3479 0.26687
3520.385 0.2704 0.4352 0.4505 0.3698 0.32687 0.3768 0.34707 0.369 0.4926 0.5661
3539.674 0.541 0.5632 0.5154 0.264993 0.29823 0.5479 0.4106 0.2184 0.29873 0.4003
3558.964 0.5213 0.566 0.5211 0.5198 0.4959 0.4022 0.256766 0.4327 0.5301 0.4553
3578.254 0.6734 0.7315 0.5984 0.4907 0.6349 0.619 0.5144 0.5754 0.5554 0.403
3597.544 0.149 0.145 0.27663 0.3706 0.4538 0.4386 0.4269 0.3914 0.2902 0.27038
3616.833 0.28469 0.29636 0.32836 0.4467 0.33705 0.1975 0.4069 0.4087 0.4469 0.4458
3636.123 0.3119 0.4074 0.5288 0.5172 0.44 0.3874 0.2487 0.2095 0.148 0.1995
3655.413 0.35402 0.4044 0.3447 0.27781 0.33462 0.3107 0.29072 0.4555 0.3651 0.133
3674.703 0.2286 0.2186 0.1768 0.232 0.34599 0.29503 0.30893 0.4593 0.34344 0.27291
3693.993 0.4523 0.549 0.4912 0.3943 0.31306 0.3629 0.29742 0.155 0.261261 0.4033
3713.282 0.3596 0.30167 0.143 0.2002 0.31762 0.31782 0.366 0.31326 0.2184 0.2111
3732.572 0.33378 0.4626 0.5855 0.4867 0.3921 0.2174 0.059 0.2181 0.4036 0.4874
3751.862 0.3765 0.33707 0.30986 0.2849 0.35 0.34537 0.25357 0.30325 0.4791 0.5572
3771.152 0.35078 0.33259 0.6707 0.6922 0.6314 0.4847 0.27465 0.4008 0.6742 0.654
3790.441 0.5226 0.7062 0.8848 0.9945 0.9246 0.7882 0.7556 0.6534 0.5802 0.6585
3809.731 0.5751 0.5285 0.6327 0.7835 1.0282 0.8432 0.3724 0.32549 0.522 0.5333
3829.021 0.6218 0.692 0.4457 0.33823 0.5159 0.4564 0.38 0.4609 0.5739 0.5624
3848.311 0.4761 0.5037 0.3561 0.403 0.4881 0.1731 0 0.083 0.4371 0.6381
3867.601 0.4913 0.29786 0.4258 0.6 0.34505 0.2304 0.4738 0.6026 0.5133 0.6256
3886.890 0.6549 0.6232 0.626 0.5569 0.7698 0.8574 0.716 0.6203 0.5428 0.4496
3906.180 0.4802 0.6055 0.4605 0.4157 0.7294 0.6553 0.5218 0.4399 0.32947 0.4398
3925.470 0.5766 0.7519 0.5915 0.4569 0.5559 0.5529 0.5115 0.6762 0.8451 0.8602
3944.760 0.7939 0.6643 0.5439 0.551 0.7666 0.8688 0.7384 0.5635 0.4158 0.5368
3964.049 0.8123 0.7902 0.766 0.7226 0.5087 0.5183 0.7204 0.8432 0.7882 0.7304
3983.339 0.6161 0.4997 0.4585 0.4397 0.5757 0.6834 0.6771 0.7327 0.6545 0.6429
##END=
