##TITLE=Piperidineacetaldehyde diethyl acetal
##JCAMP-DX=4.24
##DATA TYPE=INFRARED SPECTRUM
##ORIGIN=EPA-IR VAPOR PHASE LIBRARY
##OWNER=SRD/NIST
Collection (C) 2018 copyright by the U.S. Secretary of Commerce
on behalf of the United States of America. All rights reserved.
##CAS REGISTRY NO=3616-58-8
##MOLFORM=C 11 H 23 N O 2
##$NIST SOURCE=MSDC-IR
##STATE=gas
##XUNITS=1/CM
##YUNITS=ABSORBANCE
##XFACTOR=1.
##YFACTOR=0.001
##DELTAX=1.92898
##FIRSTX=549.8
##LASTX=4000.7
##FIRSTY=2.33
##MAXX=4000.7
##MINX=549.759
##MAXY=0.34227
##MINY=0.00007284
##NPOINTS=1790
##XYDATA=(X++(Y..Y))
549.759 2.33 2.39 2.47 2.2 2.01 2.04 2.15 1.99 2.01 2.29
569.049 2.44 2.4 2.61 2.87 3.08 3.75 4.16 4.5 4.68 4.67
588.339 4.85 5.01 4.9 4.41 3.81 3.22 2.99 2.95 2.59 2.4
607.628 2.37 2.19 1.91 1.81 1.77 1.54 1.29 1.16 1.21 1.19
626.918 1.08 0.9793 0.8887 1.03 1.02 0.8238 0.8587 0.7809 0.584 0.3713
646.208 0.4653 0.7414 0.733 0.6011 0.5802 0.6131 0.5431 0.5558 0.5723 0.5018
665.498 0.4568 0.3316 0.3597 0.3957 0.2138 0.2623 0.4128 0.4301 0.4132 0.4661
684.787 0.5595 0.5869 0.5967 0.5533 0.6684 0.8346 0.8213 0.6912 0.722 0.8312
704.077 0.7502 0.5918 0.4906 0.5511 0.6788 0.7495 0.7176 0.7319 0.8451 0.8659
723.367 0.8678 0.8823 0.9363 0.9382 0.9293 1.02 1.11 1.11 1.1 1.19
742.657 1.38 1.57 1.63 1.71 1.92 2.24 2.51 2.77 3.21 3.66
761.947 4.12 4.63 5.24 5.98 6.72 7.57 8.53 9.34 10.07 10.69
781.236 10.95 10.85 10.48 9.88 8.97 8.27 7.66 7.08 6.81 6.56
800.526 6.38 6.44 6.57 6.63 6.77 7.18 7.48 7.52 7.58 7.6
819.816 7.71 7.95 7.98 8.15 8.53 8.75 9 9.19 9.33 9.58
839.106 9.79 10.12 10.52 10.81 11.3 12.06 13.07 14.41 15.77 16.68
858.395 17.12 16.88 16 14.75 13.25 11.75 10.34 9.4 8.82 8.22
877.685 7.91 7.9 8.06 8.28 8.5 8.8 9.24 9.6 9.94 10.18
896.975 10.33 10.56 10.79 11.08 11.34 11.51 11.67 11.84 12.09 12.31
916.265 12.54 12.85 13.09 13.34 13.69 14.05 14.37 14.82 15.1 15.03
935.555 15.09 15.24 15.04 14.5 14.17 13.89 13.49 13.13 12.89 12.82
954.844 13 13.33 13.68 14.22 14.87 15.51 15.94 16.48 17.28 18
974.134 18.79 19.93 21.71 24.02 26.81 30.34 34.41 38.82 43.42 47.3
993.424 50.25 52.14 53.06 53.34 52.75 52.05 51.82 52.29 53.18 54.38
1012.714 56.07 57.92 59.93 62.14 64.94 68.63 72.64 76.83 81.56 86.52
1032.003 91.53 96.4 101.2 106.13 110.72 115.59 121.48 128.7 137.24 146.61
1051.293 156.47 166.13 175.06 183.48 189.94 194.4 197.09 197.85 197.22 194.54
1070.583 190.02 184.8 178.47 171.27 164.01 156.59 149.23 142.24 136.42 132.03
1089.873 128.64 126.33 125.19 124.34 124.23 125.08 125.52 126.76 129.09 132.17
1109.163 136.6 141.1 145.72 150.65 154.74 157.69 159.36 160.04 160.54 160.42
1128.452 160.2 160.5 160.06 158.89 156.45 152.35 146.82 139.53 131.45 123.06
1147.742 114.85 107.81 101.66 96.54 92.85 89.81 86.8 83.61 79.66 75.37
1167.032 71.1 66.71 62.47 58.35 54.35 50.69 46.99 43.3 39.89 36.85
1186.322 34.01 31.34 29.19 27.24 25.67 24.27 22.8 21.88 20.86 19.87
1205.611 19.43 18.87 18.11 17.75 17.24 16.38 15.65 14.97 14.28 13.56
1224.901 12.95 12.48 12.2 11.86 11.57 11.45 11.37 11.41 11.56 11.65
1244.191 11.95 12.52 13.21 14.16 15.33 16.4 17.18 17.7 18.06 18.31
1263.481 18.51 18.85 19.16 19.63 20.71 21.75 22.89 24.16 25.28 26.32
1282.771 27.37 28.59 29.98 31.64 33.58 35.83 38.42 41.27 44.02 46.22
1302.060 47.83 48.88 49.15 48.71 47.8 46.57 45.23 43.75 42.15 40.53
1321.350 38.89 37.27 35.65 34.15 32.9 31.94 31.35 31.16 31.44 32.05
1340.640 32.71 33.3 33.66 33.56 33.01 31.93 30.47 28.85 27.27 26.02
1359.930 25.31 25.35 26.27 28.11 30.77 33.91 37.16 40.15 42.73 44.84
1379.219 46.22 46.81 46.63 45.87 44.61 42.87 40.71 38.01 34.79 31.39
1398.509 28.12 25.1 22.61 20.6 19.04 17.89 16.99 16.24 15.66 15.25
1417.799 15 14.9 14.92 15.13 15.49 16 16.88 18.05 19.44 21.15
1437.089 23.23 25.36 27.49 29.41 30.97 32.11 32.78 33.22 33.43 33.26
1456.378 32.56 31.3 29.75 27.82 25.58 23.17 20.91 19.02 17.37 15.84
1475.668 14.53 13.3 12.24 11.33 10.46 9.69 8.93 8.12 7.44 6.86
1494.958 6.26 5.69 5.25 4.86 4.54 4.34 4.11 3.83 3.64 3.49
1514.248 3.28 3.18 3.1 2.98 2.89 2.8 2.73 2.61 2.49 2.45
1533.538 2.41 2.28 2.2 2.19 2.08 1.99 1.96 1.91 1.84 1.8
1552.827 1.79 1.79 1.8 1.76 1.69 1.66 1.68 1.66 1.55 1.49
1572.117 1.41 1.42 1.48 1.43 1.45 1.44 1.46 1.46 1.44 1.52
1591.407 1.49 1.4 1.39 1.41 1.43 1.48 1.44 1.39 1.41 1.44
1610.697 1.43 1.36 1.38 1.45 1.43 1.39 1.37 1.4 1.42 1.43
1629.986 1.43 1.36 1.29 1.31 1.33 1.32 1.33 1.32 1.32 1.35
1649.276 1.39 1.35 1.28 1.32 1.39 1.41 1.41 1.37 1.35 1.38
1668.566 1.43 1.39 1.36 1.45 1.43 1.34 1.32 1.29 1.26 1.25
1687.856 1.23 1.24 1.24 1.15 1.1 1.14 1.15 1.1 1.08 1.09
1707.146 1.08 1.04 1.03 1.06 1.08 1.12 1.11 1.09 1.1 1.12
1726.435 1.13 1.13 1.13 1.13 1.12 1.09 1.05 1.1 1.14 1.12
1745.725 1.17 1.15 1.16 1.2 1.16 1.12 1.13 1.16 1.13 1.17
1765.015 1.16 1.1 1.13 1.1 1.05 1.02 1.01 1.02 1.01 1.02
1784.305 1.03 0.9948 0.9692 0.9681 0.9309 0.931 0.9861 0.9935 0.9824 0.986
1803.594 0.9869 1.01 1.03 1.04 1.05 1.09 1.13 1.14 1.11 1.1
1822.884 1.16 1.22 1.17 1.16 1.19 1.18 1.17 1.16 1.19 1.24
1842.174 1.27 1.28 1.27 1.32 1.39 1.37 1.39 1.48 1.48 1.43
1861.464 1.42 1.43 1.48 1.54 1.63 1.67 1.72 1.77 1.82 1.86
1880.754 1.89 1.99 2.11 2.21 2.23 2.25 2.28 2.35 2.42 2.46
1900.043 2.49 2.49 2.48 2.51 2.49 2.43 2.47 2.49 2.45 2.44
1919.333 2.47 2.46 2.46 2.53 2.56 2.57 2.66 2.72 2.71 2.67
1938.623 2.65 2.69 2.72 2.75 2.73 2.68 2.64 2.66 2.75 2.75
1957.913 2.69 2.65 2.66 2.68 2.65 2.62 2.63 2.59 2.52 2.52
1977.202 2.47 2.35 2.3 2.26 2.19 2.15 2.1 2.02 1.95 1.91
1996.492 1.87 1.85 1.79 1.72 1.69 1.65 1.62 1.62 1.61 1.58
2015.782 1.56 1.55 1.56 1.52 1.48 1.47 1.43 1.46 1.44 1.35
2035.072 1.34 1.33 1.27 1.27 1.27 1.26 1.27 1.24 1.2 1.17
2054.362 1.18 1.19 1.19 1.23 1.25 1.25 1.31 1.37 1.36 1.38
2073.651 1.46 1.47 1.45 1.45 1.45 1.47 1.45 1.46 1.49 1.46
2092.941 1.44 1.46 1.43 1.41 1.36 1.32 1.31 1.3 1.36 1.36
2112.231 1.34 1.38 1.37 1.35 1.39 1.45 1.47 1.45 1.43 1.47
2131.521 1.53 1.55 1.56 1.54 1.55 1.65 1.71 1.73 1.76 1.77
2150.810 1.84 1.88 1.93 1.95 1.92 1.94 1.95 1.85 1.82 1.87
2170.100 1.85 1.83 1.79 1.75 1.8 1.84 1.82 1.77 1.71 1.7
2189.390 1.69 1.72 1.74 1.71 1.7 1.66 1.64 1.7 1.66 1.56
2208.680 1.61 1.65 1.62 1.62 1.59 1.57 1.63 1.66 1.67 1.73
2227.970 1.75 1.69 1.71 1.73 1.7 1.7 1.72 1.73 1.69 1.59
2247.259 1.55 1.61 1.6 1.6 1.57 1.51 1.53 1.56 1.49 1.47
2266.549 1.47 1.48 1.51 1.54 1.56 1.52 1.44 1.35 1.41 1.49
2285.839 1.5 1.45 1.39 1.41 1.4 1.41 1.42 1.38 1.37 1.33
2305.129 1.35 1.36 1.3 1.27 1.3 1.29 1.23 1.22 1.21 1.2
2324.418 1.2 1.19 1.2 1.13 1.05 1.04 1.12 1.19 1.14 1.09
2343.708 1.11 1.11 1.1 1.14 1.16 1.11 1.1 1.14 1.1 1.05
2362.998 1.07 1.06 1.13 1.15 1.14 1.15 1.18 1.16 1.15 1.21
2382.288 1.2 1.24 1.34 1.35 1.33 1.38 1.37 1.32 1.34 1.34
2401.578 1.36 1.46 1.5 1.52 1.61 1.62 1.61 1.66 1.71 1.75
2420.867 1.77 1.69 1.65 1.68 1.59 1.54 1.57 1.54 1.5 1.53
2440.157 1.56 1.5 1.42 1.33 1.35 1.39 1.29 1.27 1.32 1.29
2459.447 1.27 1.34 1.37 1.38 1.44 1.4 1.42 1.39 1.39 1.47
2478.737 1.47 1.5 1.56 1.52 1.47 1.58 1.65 1.66 1.63 1.58
2498.026 1.66 1.81 1.82 1.78 1.74 1.7 1.73 1.74 1.85 1.93
2517.316 1.86 1.76 1.73 1.68 1.63 1.63 1.63 1.7 1.68 1.65
2536.606 1.67 1.65 1.67 1.71 1.71 1.7 1.8 1.9 1.96 2
2555.896 2.04 2.06 2.18 2.33 2.41 2.48 2.57 2.65 2.8 2.93
2575.186 3.08 3.22 3.37 3.55 3.71 3.94 4.15 4.38 4.62 4.77
2594.475 4.87 5.03 5.2 5.39 5.55 5.7 5.84 5.9 6.1 6.34
2613.765 6.39 6.39 6.43 6.59 6.78 6.9 7.13 7.35 7.5 7.63
2633.055 7.87 8.14 8.39 8.74 9 9.23 9.49 9.77 10.06 10.29
2652.345 10.59 10.9 11.02 11.18 11.61 12.06 12.45 12.91 13.37 13.92
2671.634 14.34 14.71 15.21 15.53 15.71 15.87 16 16.25 16.58 16.88
2690.924 17.28 17.68 18.11 18.68 19.19 19.7 20.3 20.79 21.13 21.56
2710.214 22 22.41 22.74 23.19 23.71 24.23 24.87 25.65 26.53 27.43
2729.504 28.49 29.69 31.06 32.45 33.91 35.44 36.9 38.39 39.92 41.4
2748.794 42.73 43.88 44.81 45.69 46.72 47.6 48.35 49.24 50.35 51.57
2768.083 52.88 54.42 56.36 58.51 60.66 62.87 65.22 67.58 69.55 70.89
2787.373 71.59 71.6 70.6 68.89 66.61 63.73 60.77 57.93 55.17 52.83
2806.663 51.02 49.37 47.95 46.97 46.25 45.77 45.64 45.78 45.93 46.13
2825.953 46.4 46.81 47.36 47.94 48.55 49.23 50.04 50.91 51.98 53.4
2845.242 55.3 57.82 61.04 65.04 69.93 75.57 81.8 88.48 94.86 100.04
2864.532 103.3 104.72 104.69 103.35 101.19 98.69 96.38 94.82 94 93.42
2883.822 92.79 92.17 91.44 90.77 90.06 89.39 89.21 89.38 90.37 92.1
2903.112 94.53 97.74 101.53 106.08 111.47 117.71 124.36 131.57 139.65 148.27
2922.401 157.63 168.45 181.29 196.94 215.83 238.57 264.71 292.37 318.24 337.56
2941.691 342.27 328.37 303.4 271.36 234.27 196.58 163.71 139.38 122.44 110.73
2960.981 102.52 96.61 92.75 90.95 91.1 92.89 96.3 100.97 106.15 111.06
2980.271 114.31 114.32 110.27 102.79 93.13 82.11 70.68 60 50.83 43.52
2999.561 37.88 33.58 30.26 27.48 25.26 23.42 21.83 20.38 18.97 17.77
3018.850 16.6 15.39 14.39 13.54 12.74 11.87 11.16 10.59 9.96 9.4
3038.140 8.94 8.57 8.11 7.63 7.22 6.88 6.57 6.26 6.04 5.81
3057.430 5.53 5.32 5.15 4.96 4.7 4.52 4.38 4.24 4.09 3.96
3076.720 3.85 3.79 3.72 3.53 3.46 3.44 3.34 3.25 3.26 3.12
3096.009 2.99 3.13 3.09 2.96 2.89 2.79 2.71 2.73 2.79 2.76
3115.299 2.64 2.57 2.6 2.51 2.34 2.27 2.35 2.27 2.21 2.33
3134.589 2.31 2.27 2.3 2.3 2.37 2.36 2.33 2.29 2.23 2.23
3153.879 2.24 2.25 2.14 2.17 2.29 2.27 2.16 2.14 2.14 2.01
3173.169 1.97 2.07 2.23 2.35 2.27 2.24 2.23 2.15 2.05 1.98
3192.458 1.97 1.95 1.85 1.68 1.67 1.72 1.69 1.64 1.6 1.7
3211.748 1.66 1.59 1.45 1.4 1.5 1.3 1.25 1.36 1.33 1.33
3231.038 1.29 1.3 1.27 1.16 1.11 0.9152 0.7178 0.8318 0.9523 0.8848
3250.328 0.8974 0.8224 0.7099 0.6033 0.6278 0.7731 0.7804 0.7295 0.604 0.5823
3269.617 0.6228 0.4911 0.5425 0.6516 0.5899 0.575 0.4535 0.4542 0.6069 0.6518
3288.907 0.4445 0.3134 0.5705 0.6093 0.5324 0.4044 0.3542 0.4487 0.4761 0.5068
3308.197 0.4712 0.451 0.4348 0.4777 0.5845 0.5506 0.4311 0.4285 0.5031 0.5081
3327.487 0.5109 0.6289 0.6563 0.5725 0.5062 0.4662 0.5299 0.6128 0.5392 0.5037
3346.777 0.6302 0.6056 0.5604 0.673 0.6093 0.4735 0.3885 0.4085 0.6069 0.5892
3366.066 0.3958 0.4959 0.7114 0.6317 0.5313 0.5241 0.5685 0.5694 0.5396 0.5744
3385.356 0.6955 0.6945 0.6041 0.6776 0.6018 0.5245 0.5071 0.5667 0.589 0.5272
3404.646 0.6864 0.6891 0.6615 0.6459 0.3643 0.3172 0.4209 0.5713 0.5421 0.3647
3423.936 0.4119 0.4376 0.482 0.378 0.4238 0.5365 0.3798 0.3038 0.2998 0.3277
3443.225 0.3748 0.3915 0.3408 0.3076 0.2774 0.2813 0.2775 0.2491 0.2813 0.2632
3462.515 0.2719 0.358 0.2693 0.2925 0.4058 0.3803 0.3329 0.2838 0.3443 0.3774
3481.805 0.3598 0.3688 0.3319 0.187 0.2168 0.4521 0.4993 0.343 0.2023 0.1156
3501.095 0.1799 0.3222 0.3487 0.3817 0.3643 0.4153 0.4873 0.4112 0.3441 0.2366
3520.385 0.07428 0.1066 0.3605 0.425 0.4925 0.5514 0.3648 0.3287 0.3685 0.3681
3539.674 0.3793 0.1885 0.2172 0.3547 0.2957 0.2323 0.2151 0.2269 0.2056 0.3527
3558.964 0.3228 0.263 0.2718 0.1384 0.1792 0.2961 0.2932 0.2041 0.3087 0.4261
3578.254 0.2286 0.07284 0.2271 0.4325 0.3533 0.4229 0.574 0.3514 0.19 0.2503
3597.544 0.3786 0.446 0.3666 0.2524 0.2417 0.1283 0.1794 0.1643 0.1301 0.3391
3616.833 0.3538 0.2425 0.384 0.4629 0.3963 0.3344 0.1418 0.195 0.2003 0.1619
3636.123 0.2013 0.3446 0.4757 0.3866 0.4072 0.5575 0.5287 0.4626 0.3576 0.3631
3655.413 0.433 0.4351 0.5367 0.3929 0.2695 0.4578 0.5495 0.5168 0.4002 0.4467
3674.703 0.5896 0.4764 0.46 0.5026 0.4607 0.4073 0.3897 0.4432 0.5732 0.6526
3693.993 0.5055 0.492 0.5116 0.4377 0.621 0.7511 0.6194 0.5389 0.494 0.4992
3713.282 0.6511 0.6989 0.7065 0.8063 0.8264 0.6726 0.5752 0.6346 0.7291 0.7211
3732.572 0.8164 0.8622 0.7191 0.7646 0.7865 0.7233 0.6456 0.5062 0.6569 0.7389
3751.862 0.7628 0.8641 0.7723 0.7839 0.7837 0.7094 0.6463 0.6305 0.6295 0.6236
3771.152 0.5918 0.5228 0.5551 0.7431 0.8878 0.8259 0.7231 0.6244 0.6108 0.5719
3790.441 0.5315 0.6555 0.7871 0.8332 0.7309 0.8619 0.994 0.8485 0.8449 0.8476
3809.731 0.6585 0.5966 0.6565 0.776 0.8118 0.726 0.7318 0.7916 0.7953 0.7645
3829.021 0.8965 0.8369 0.8337 0.7863 0.7451 0.7483 0.712 0.8662 0.8508 0.6886
3848.311 0.6231 0.7271 0.7188 0.7091 0.7642 0.6968 0.6095 0.6719 0.8124 0.6908
3867.601 0.6226 0.6566 0.4849 0.5692 0.8128 0.8478 0.7608 0.7823 0.8968 1.01
3886.890 1.04 0.9659 0.8936 1.04 1.07 0.8464 0.889 1.05 0.9843 0.9142
3906.180 0.867 0.7541 0.8706 0.9305 1.06 1.2 1.22 1.29 1.25 1.18
3925.470 1.07 1.03 1.09 1.21 1.22 1.17 1.19 1.27 1.41 1.52
3944.760 1.57 1.45 1.53 1.61 1.41 1.31 1.21 1.22 1.35 1.33
3964.049 1.24 1.26 1.4 1.59 1.67 1.6 1.58 1.56 1.53 1.54
3983.339 1.47 1.6 1.63 1.64 1.81 1.8 1.78 1.77 1.79 1.83
##END=
