##TITLE=2,6-Dichlorobenzothiazole
##JCAMP-DX=4.24
##DATA TYPE=INFRARED SPECTRUM
##ORIGIN=EPA-IR VAPOR PHASE LIBRARY
##OWNER=SRD/NIST
Collection (C) 2018 copyright by the U.S. Secretary of Commerce
on behalf of the United States of America. All rights reserved.
##CAS REGISTRY NO=3622-23-9
##MOLFORM=C 7 H 3 Cl 2 N S
##$NIST SOURCE=MSDC-IR
##STATE=gas
##XUNITS=1/CM
##YUNITS=ABSORBANCE
##XFACTOR=1.
##YFACTOR=0.001
##DELTAX=1.92898
##FIRSTX=549.8
##LASTX=4000.7
##FIRSTY=3.292
##MAXX=4000.7
##MINX=549.759
##MAXY=0.221152
##MINY=0
##NPOINTS=1790
##XYDATA=(X++(Y..Y))
549.759 3.292 3.472 3.632 2.632 2.022 1.842 1.632 2.742 3.192 3.142
569.049 2.532 2.672 3.602 3.762 4.032 4.572 4.992 5.292 6.552 6.822
588.339 5.182 4.552 4.122 3.422 3.252 3.042 2.652 2.272 1.602 1.4158
607.628 1.802 1.3367 0.9148 1.0422 1.2096 1.1532 1.313 1.3244 0.8251 0.7633
626.918 1.0208 0.9863 1.4943 1.732 1.652 1.872 1.662 1.672 1.892 1.692
646.208 1.5918 1.892 1.902 1.892 2.332 3.122 3.432 4.042 5.552 7.862
665.498 11.222 14.712 16.282 16.272 15.622 14.282 12.062 8.472 5.442 3.862
684.787 2.952 2.392 2.212 2.042 1.772 1.772 1.612 1.692 1.962 1.752
704.077 1.872 2.232 2.312 2.032 1.772 2.052 2.342 2.392 2.312 2.432
723.367 2.972 3.252 3.282 3.672 4.152 4.152 3.972 4.182 4.152 4.322
742.657 4.752 5.812 7.932 10.732 16.152 25.022 34.052 40.762 44.882 46.802
761.947 46.422 42.192 33.032 23.502 18.112 16.552 17.282 18.752 19.392 18.762
781.236 17.652 15.872 13.972 11.442 8.532 7.042 6.632 6.902 8.062 9.832
800.526 12.552 15.752 19.692 24.232 28.982 33.722 37.922 42.632 47.862 52.442
819.816 49.682 41.672 37.022 33.962 30.032 25.732 21.852 18.832 17.052 17.252
839.106 19.582 22.792 25.392 27.322 28.772 30.122 31.292 32.052 33.462 36.772
858.395 41.042 48.022 57.852 64.132 64.822 63.142 59.872 51.462 37.382 23.952
877.685 14.952 10.362 8.792 8.522 9.122 9.632 9.322 8.402 8.052 7.082
896.975 5.512 4.652 4.252 3.982 3.832 3.642 3.412 3.572 3.702 3.872
916.265 3.982 4.152 4.432 4.772 4.872 4.372 3.882 3.672 3.732 3.792
935.555 3.622 3.562 3.932 3.972 3.662 3.712 3.792 3.352 2.612 2.222
954.844 2.212 2.172 2.592 2.812 2.542 2.352 2.762 3.272 3.202 3.652
974.134 4.202 5.172 6.292 7.152 7.892 8.482 9.242 10.242 11.352 11.902
993.424 13.672 17.222 22.182 29.232 39.262 53.722 73.492 99.712 132.112 167.162
1012.714 197.702 216.522 221.152 213.132 193.732 160.762 117.372 74.982 44.922 29.272
1032.003 20.872 14.852 11.402 9.872 8.782 6.882 5.702 6.142 6.272 5.942
1051.293 5.142 4.782 5.152 5.752 6.132 6.162 6.252 6.262 6.512 7.532
1070.583 8.002 8.492 9.202 9.312 9.652 9.522 9.112 10.072 11.392 13.412
1089.873 17.822 23.192 31.522 44.942 61.662 80.992 97.932 106.922 108.662 106.222
1109.163 100.062 83.542 60.492 41.862 32.272 31.172 29.982 27.672 26.192 24.442
1128.452 24.352 24.402 21.692 17.822 15.692 14.332 12.922 10.172 7.022 6.282
1147.742 6.212 5.532 5.542 5.412 5.462 5.222 4.622 5.462 6.502 6.132
1167.032 5.992 6.412 6.702 6.732 6.812 6.482 5.322 4.702 4.892 5.192
1186.322 4.662 4.662 4.612 3.932 4.982 5.642 5.342 5.612 6.062 7.202
1205.611 7.612 7.812 7.862 8.062 9.452 11.062 12.582 13.182 13.022 14.012
1224.901 14.712 15.922 16.862 16.022 15.502 14.992 13.292 10.702 9.102 8.702
1244.191 9.132 9.732 11.432 14.562 17.652 20.952 24.422 27.022 28.082 27.552
1263.481 25.692 21.442 16.982 13.842 11.612 10.582 10.162 9.932 9.652 10.282
1282.771 11.792 12.862 13.962 14.862 15.172 15.242 15.202 14.872 13.912 12.672
1302.060 11.362 10.032 8.742 7.702 6.962 6.192 5.452 4.922 4.442 4.242
1321.350 4.112 3.852 3.922 4.052 4.012 4.242 4.402 4.452 4.532 4.232
1340.640 4.012 3.782 3.552 3.232 2.872 2.882 2.682 2.442 2.512 2.632
1359.930 2.832 3.182 3.462 3.782 4.352 4.932 5.682 6.962 8.512 10.502
1379.219 13.262 16.502 20.332 24.222 27.882 30.952 32.982 34.022 34.202 33.792
1398.509 32.582 30.562 28.762 27.152 25.522 23.952 22.882 22.652 23.592 26.642
1417.799 31.702 38.722 47.812 59.272 73.512 89.262 104.762 117.672 126.042 129.642
1437.089 130.302 128.502 121.642 109.132 95.072 83.132 73.302 63.172 50.692 39.132
1456.378 30.732 25.142 21.662 18.992 17.162 16.672 17.792 20.152 23.862 29.232
1475.668 36.222 45.432 57.762 73.522 91.332 108.502 120.972 125.492 123.002 117.922
1494.958 108.752 90.182 65.882 45.172 32.242 24.662 19.172 15.182 12.462 10.552
1514.248 9.622 9.022 8.742 9.192 9.702 10.292 11.472 12.632 14.002 15.502
1533.538 16.542 17.542 18.632 19.512 20.062 20.272 20.202 19.482 18.172 16.532
1552.827 14.632 12.432 10.582 9.132 8.012 7.572 7.422 7.212 7.342 8.192
1572.117 9.152 10.782 13.352 16.762 21.652 28.062 35.462 43.842 51.642 56.962
1591.407 58.802 56.842 51.682 44.142 34.692 24.442 16.122 10.842 7.842 6.392
1610.697 5.272 4.392 4.212 3.722 3.282 3.202 3.132 3.322 3.432 3.562
1629.986 3.902 3.882 3.732 3.712 3.752 3.762 3.652 3.642 3.662 3.562
1649.276 3.582 3.732 3.642 3.602 3.702 3.402 3.092 2.872 2.652 2.712
1668.566 2.682 2.642 2.712 2.642 2.762 2.802 2.822 2.982 2.912 2.852
1687.856 3.092 3.292 3.372 3.542 3.802 4.102 4.412 4.502 4.582 4.712
1707.146 4.722 4.742 4.642 4.422 4.192 4.122 3.702 3.412 3.162 2.632
1726.435 2.422 2.192 2.042 2.102 1.902 1.762 1.802 1.752 1.732 1.982
1745.725 2.272 2.592 2.962 3.292 3.742 4.122 4.332 4.402 4.212 3.962
1765.015 3.592 3.092 2.862 2.492 2.022 1.822 1.702 1.652 1.652 1.5918
1784.305 1.4661 1.438 1.4249 1.3505 1.3055 1.4438 1.4339 1.3111 1.4714 1.692
1803.594 1.752 1.832 1.772 1.5244 1.4023 1.2763 1.2893 1.3958 1.3169 1.2894
1822.884 1.2866 1.2509 1.2108 1.197 1.228 1.3115 1.3181 1.1884 1.2578 1.3174
1842.174 1.2513 1.2714 1.269 1.1582 1.2134 1.237 1.1636 1.278 1.3095 1.2694
1861.464 1.3364 1.4223 1.622 1.802 1.882 2.112 2.322 2.452 2.702 3.182
1880.754 3.672 3.972 4.282 4.662 4.922 4.892 4.722 4.532 4.232 3.862
1900.043 3.492 3.132 2.642 2.282 2.092 1.782 1.652 1.612 1.4169 1.1841
1919.333 1.2054 1.3608 1.3286 1.317 1.2348 1.1885 1.2094 1.2087 1.2925 1.2917
1938.623 1.2339 1.0696 1.0168 1.0855 1.1163 1.2513 1.2727 1.189 1.1386 1.1521
1957.913 0.9489 0.7894 0.9156 0.9931 0.9965 0.9314 0.887 0.9087 0.9794 0.965
1977.202 0.8937 0.9081 0.8276 0.7595 0.9092 0.9746 1.0258 1.0186 0.888 0.8121
1996.492 0.66078 0.67347 0.7026 0.69039 0.7705 0.6975 0.68904 0.7361 0.8086 0.7348
2015.782 0.63592 0.67331 0.7651 0.8946 0.985 1.0679 0.9439 0.8264 0.7371 0.59408
2035.072 0.466 0.396 0.4 0.276 0.078 0.13 0.349 0.389 0.373 0.176
2054.362 0.018 0.075 0.219 0.5348 0.6979 0.716 0.65193 0.631 0.626 0.60502
2073.651 0.64098 0.7387 0.7635 0.62203 0.60564 0.63194 0.61614 0.63907 0.5701 0.5336
2092.941 0.63665 0.5681 0.5183 0.61966 0.7454 0.7132 0.5712 0.62219 0.65495 0.67535
2112.231 0.7902 0.7792 0.705 0.8261 0.8747 0.8571 0.8403 0.7318 0.8334 0.9593
2131.521 0.9875 0.9703 1.0261 1.0295 0.9257 0.8486 0.996 1.0583 0.9791 0.9646
2150.810 1.0623 1.2413 1.1405 1.1778 1.2519 1.1036 1.1501 1.2013 1.043 1.0195
2170.100 0.9799 0.9497 0.925 0.7331 0.61716 0.64579 0.8434 0.9145 0.9323 0.9747
2189.390 0.9496 0.8621 0.7736 0.6948 0.67288 0.7283 0.8289 0.8734 0.7887 0.8894
2208.680 0.9785 0.8977 0.9042 0.9568 0.9458 0.7454 0.539 0.748 1.1205 1.0228
2227.970 0.8245 0.9797 0.9967 0.9526 1.0575 1.0618 1.1512 1.2578 0.9989 0.964
2247.259 1.1736 1.0671 1.1768 1.2799 1.1732 1.1649 1.0305 1.0398 1.0815 1.1044
2266.549 1.1017 1.0744 1.1062 1.2526 1.2351 1.0328 1.0789 1.1067 1.2048 1.252
2285.839 1.2688 1.2786 1.1982 1.371 1.372 1.2454 1.3055 1.2596 1.2731 1.428
2305.129 1.4421 1.2774 1.2917 1.4661 1.4011 1.326 1.2934 1.2572 1.2869 1.1864
2324.418 1.1244 1.1739 1.0122 0.9584 1.0927 1.1737 1.1543 1.0315 1.0413 1.0591
2343.708 1.0712 1.0612 1.0234 0.852 0.60874 0.725 0.9978 1.0406 0.8689 0.7551
2362.998 0.8095 0.7576 0.7216 0.7576 0.8233 1.0155 0.8293 0.7762 1.1086 1.0856
2382.288 0.9139 0.7917 0.8088 0.9907 1.0054 0.8657 0.8526 0.8357 0.7207 0.7733
2401.578 0.8247 0.8866 0.9194 0.9786 0.8431 0.601048 0.7322 0.8718 1.0994 1.1025
2420.867 0.9084 0.8002 0.8101 0.9073 0.8465 0.872 1.0131 0.8904 0.8708 0.8554
2440.157 0.8746 1.0841 1.012 0.9377 0.9617 1.005 1.01 0.9718 1.0463 1.0576
2459.447 1.0429 1.1253 1.1578 0.8429 0.63913 0.7328 0.7921 0.9587 0.888 0.8026
2478.737 0.927 0.9761 0.934 0.9576 1.0388 0.9951 1.2103 1.2846 1.334 1.3556
2498.026 1.2578 1.2775 1.107 1.2599 1.4685 1.592 1.5846 1.3688 1.4489 1.4897
2517.316 1.3781 1.3838 1.2912 1.2811 1.4229 1.3483 1.2849 1.2817 1.2351 1.1242
2536.606 1.1316 1.2458 1.3896 1.3166 1.0814 1.2572 1.2192 0.9395 1.0084 1.0777
2555.896 1.2818 1.3231 0.9571 1.0173 1.1931 1.1271 1.1771 1.1426 0.9441 1.0454
2575.186 1.0184 0.996 1.0321 0.8554 0.7651 0.7632 0.9009 0.8697 0.7079 0.8356
2594.475 1.094 0.9843 0.768 1.0556 1.1774 1.0006 1.108 1.0178 0.8162 0.9972
2613.765 0.9004 0.7616 0.8656 0.9983 1.1258 1.0054 0.9713 1.0365 1.1155 1.1309
2633.055 0.893 0.8954 1.0567 1.2442 1.4745 1.3647 1.3331 1.4655 1.0385 0.8757
2652.345 1.2852 1.308 1.2197 1.3249 1.5326 1.4685 1.0863 0.9846 1.1857 1.4449
2671.634 1.602 1.489 1.4019 1.5393 1.712 1.5836 1.5149 1.5686 1.472 1.702
2690.924 1.992 1.712 1.3323 1.414 1.4843 1.1571 0.9711 1.2501 1.4616 1.2484
2710.214 1.2189 1.2764 0.9944 0.8284 0.8613 0.8614 0.8965 0.864 0.9373 1.1407
2729.504 0.9304 0.5421 0.64545 0.7971 0.8106 0.7584 0.61672 0.67435 0.66571 0.5658
2748.794 0.591873 0.8227 1.0184 1.0514 0.8548 0.8456 1.0031 1.0495 0.8337 0.482
2768.083 0.58234 0.9191 1.02 1.027 0.9996 1.1133 1.1825 0.9565 0.7526 0.7945
2787.373 0.9525 0.8536 0.8773 0.922 0.9652 1.0151 1.075 0.9533 0.8271 0.8371
2806.663 0.8518 1.0454 1.0416 0.8995 1.0227 1.0913 1.1424 1.2823 0.9828 0.9512
2825.953 1.3739 1.4975 1.3239 1.453 1.4757 1.0743 1.0447 1.2248 1.0822 0.7845
2845.242 0.68852 0.8713 1.0228 1.0877 1.0825 1.0061 0.9107 0.7544 0.8603 0.919
2864.532 1.0423 1.0936 0.9702 1.0597 0.7683 0.5582 0.8154 1.0115 1.1559 1.1247
2883.822 1.0583 1.3765 1.4843 1.0588 0.7767 0.8562 0.8387 1.1445 1.3729 1.313
2903.112 1.4263 1.3756 1.2876 1.4663 1.792 1.712 1.612 1.602 1.3161 1.4406
2922.401 1.762 1.642 1.672 2.042 1.972 1.5415 1.4443 1.882 1.762 1.3249
2941.691 1.4139 1.2148 1.3697 1.902 2.062 2.162 2.082 2.232 2.482 2.702
2960.981 3.202 3.472 3.602 3.602 3.592 3.232 2.962 2.732 2.372 2.002
2980.271 1.4329 1.3047 1.309 1.3806 1.3775 0.8575 0.62261 0.61842 0.5451 0.539
2999.561 0.594905 0.6958 0.6975 0.5534 0.558 0.7007 0.9048 0.9474 0.7708 0.9301
3018.850 0.8002 0.5194 0.65722 0.7029 0.64737 0.8347 1.0498 0.6129 0.416 0.68143
3038.140 0.7322 0.7665 0.7308 0.9701 1.0993 1.0632 1.0146 1.1448 1.357 1.1827
3057.430 1.1164 1.4882 1.912 2.022 2.172 2.682 2.742 2.642 3.102 3.352
3076.720 3.062 3.542 4.152 3.832 3.722 3.492 3.292 3.382 3.142 2.782
3096.009 2.602 2.302 1.972 1.732 1.5571 1.253 1.1444 1.5633 1.5835 1.0102
3115.299 0.7785 0.8761 0.8199 0.292 0.055 0.338 0.5338 0.7971 0.9406 1.1345
3134.589 1.1052 0.9464 0.9639 1.1402 1.017 0.8688 0.8557 0.945 0.831 0.476
3153.879 0.433 0.223 0.428 0.9656 0.7223 0.436 0.6421 0.8202 0.9649 0.7884
3173.169 0.485 0.422 0.448 0.9217 1.3142 1.0666 0.8211 0.366 0.173 0.61481
3192.458 0.9538 0.8148 0.289 0.364 0.8343 1.135 0.8983 0.8997 0.9417 0.7285
3211.748 0.62801 0.59094 0.58943 0.7862 0.9011 0.9316 0.9749 0.575 0.7507 1.2157
3231.038 0.8008 0.137 0.232 0.355 0.361 0.7253 0.9397 0.62121 0.39 0.5241
3250.328 0.362 0.62824 1.0206 0.4993 0.199 0.562 0.918 0.7742 0.7754 0.7612
3269.617 0.600236 0.5411 0.506 0.66072 0.7965 0.7649 0.8615 0.7569 0.46 0.6139
3288.907 0.5606 0.1 0.11 0.64855 0.8282 0.7246 0.5131 0.60257 0.67131 0.6982
3308.197 0.9575 0.8917 1.0727 0.9954 0.7234 0.7004 0.921 1.0661 0.8284 0.5704
3327.487 0.5543 0.485 0.428 0.7009 1.0019 0.9939 0.8123 0.7488 0.5723 0.62227
3346.777 0.9018 1.1006 1.0536 0.8962 1.0176 1.0663 0.426 0.23 0.6981 0.7864
3366.066 0.7599 0.67814 0.461 0.404 0.393 0.487 0.857 0.551 0.5012 1.1129
3385.356 1.2839 1.1026 1.1067 0.9572 0.64413 0.9804 0.8248 0.25 0.168 0.5628
3404.646 0.68725 0.7489 1.0027 0.8688 0.7176 0.65961 0.8465 0.6948 0.413 0.465
3423.936 0.338 0.375 0.7992 0.68763 0.5018 0.62966 0.8208 0.7824 0.445 0.485
3443.225 0.396 0.381 0.7015 0.8894 0.8201 0.8111 1.0961 1.0492 1.0834 1.0963
3462.515 0.7491 0.9586 1.1145 0.8131 0.9895 1.1741 0.8398 0.5095 0.61904 0.9286
3481.805 0.63004 0.8744 1.3609 1.0946 0.8571 0.9669 0.8568 0.61529 1.085 1.2249
3501.095 0.8185 1.0141 1.592 1.3954 1.1272 1.0966 0.9122 0.67274 0.66911 0.7813
3520.385 0.8538 0.971 0.419 0.263 0.63191 0.67422 0.8274 1.1507 1.1554 0.8093
3539.674 0.685 0.63766 0.65628 0.66796 0.41 0.389 0.61968 0.9049 0.9967 0.5003
3558.964 0.7146 1.5219 1.2147 1.0274 0.9265 1.0343 1.1986 1.1842 1.5521 1.0386
3578.254 0.65756 0.8709 0.58702 0.5749 0.6953 0.5233 0.58 0.8292 0.755 0.63491
3597.544 0.5677 0.5532 0.7865 0.65987 0.431 0.5674 0.9453 0.8437 0.7241 0.8503
3616.833 0.63915 0.60216 0.487 0.61176 0.9985 0.8546 0.7262 0.756 0.6961 0.6715
3636.123 0.8486 0.8648 0.60387 0.359 0.65006 0.7775 0.7979 0.9625 0.9164 1.0453
3655.413 0.9542 0.9521 0.845 0.805 1.0868 0.7537 0.32 0.453 0.7744 0.5718
3674.703 0.7109 1.0105 0.8403 0.60394 0.9238 1.0974 0.67023 0.8105 0.417 0.191
3693.993 0.5775 0.7201 0.5398 0.433 0.505 0.61588 0.8055 0.5675 0.315 0.5493
3713.282 0.5569 0.60674 0.60432 0.63632 1.021 0.9614 0.68614 0.8871 1.0558 0.8531
3732.572 1.0488 0.9458 0.4986 0.67497 0.7214 0.9325 0.6957 0 0.434 0.6108
3751.862 0.67803 1.0919 1.4498 1.2818 0.985 1.0688 1.0115 1.0311 0.9453 1.1489
3771.152 1.3342 1.1777 0.7002 0.4 0.5779 0.259 0.109 0.5591 0.436 0.183
3790.441 0.5172 0.794 0.8898 0.8937 0.7493 0.58 0.64304 0.7933 0.442 0.409
3809.731 1.1285 1.1545 0.62502 0.467 0.38 0.47 1.1139 1.4857 0.9837 0.58986
3829.021 0.8779 1.1395 1.0614 1.0986 0.63859 0.301 0.8145 1.1382 0.8109 0.5707
3848.311 0.5498 0.5366 0.4992 0.37 0.7034 1.2084 1.1563 0.7549 0.5609 0.755
3867.601 1.1715 0.9978 0.9771 1.0953 0.9605 0.9323 0.344 0.358 0.8613 1.0208
3886.890 1.035 0.9001 0.8922 0.9034 0.9725 1.0221 0.873 1.1413 1.239 0.68317
3906.180 0.447 0.67377 1.1899 1.3092 0.7384 0.029 0.65714 1.1149 0.6962 0.66308
3925.470 0.5225 0.7438 1.1392 0.9277 0.7408 1.1091 1.1591 1.3086 1.4204 1.3742
3944.760 1.3938 1.1918 1.3512 1.2507 1.249 1.2587 0.8961 0.8213 0.7704 0.7839
3964.049 1.1257 0.9308 0.61798 0.8916 0.9951 1.1774 0.91 0.325 0.405 0.8754
3983.339 1.1912 1.0228 0.7267 0.905 1.1513 1.1698 1.0485 0.7828 0.8373 0.9247
##END=
