##TITLE=Diisopropyl phenylphosphonite
##JCAMP-DX=4.24
##DATA TYPE=INFRARED SPECTRUM
##ORIGIN=EPA-IR VAPOR PHASE LIBRARY
##OWNER=SRD/NIST
Collection (C) 2018 copyright by the U.S. Secretary of Commerce
on behalf of the United States of America. All rights reserved.
##CAS REGISTRY NO=36238-99-0
##MOLFORM=C 12 H 19 O 2 P
##$NIST SOURCE=MSDC-IR
##STATE=gas
##XUNITS=1/CM
##YUNITS=ABSORBANCE
##XFACTOR=1.
##YFACTOR=0.001
##DELTAX=1.929
##FIRSTX=549.8
##LASTX=4000.8
##FIRSTY=10.677
##MAXX=4000.75
##MINX=549.766
##MAXY=0.166007
##MINY=0
##NPOINTS=1790
##XYDATA=(X++(Y..Y))
549.766 10.677 9.997 8.917 7.847 6.947 6.077 5.207 4.317 3.587 3.187
569.056 2.817 2.597 2.547 2.497 2.437 2.347 1.937 1.659 1.6171 1.5702
588.346 1.6964 1.8137 1.6694 1.5171 1.4033 1.2571 1.2975 1.5902 1.7168 1.6982
607.636 1.7495 1.7139 1.6786 1.7054 1.8379 1.937 1.987 2.007 1.987 1.857
626.926 1.8187 1.897 1.7878 1.6446 1.6469 1.7957 1.947 2.077 2.117 2.157
646.216 2.317 2.457 2.497 2.717 2.947 3.147 3.387 3.557 3.987 4.427
665.506 4.697 5.187 5.837 6.317 6.777 7.477 8.217 9.047 10.207 11.877
684.796 14.077 16.757 20.207 24.327 28.487 32.287 35.277 36.807 36.817 35.557
704.086 33.397 30.727 28.027 25.987 24.597 23.607 23.097 23.077 23.487 24.137
723.376 25.247 26.857 28.907 31.437 34.187 36.797 39.027 40.837 41.887 42.277
742.666 41.887 40.897 39.817 38.687 37.577 36.287 34.577 32.367 29.567 26.327
761.956 22.847 19.337 15.947 13.097 10.957 9.317 7.947 6.797 6.067 5.557
781.246 5.157 4.777 4.407 4.187 4.027 3.777 3.547 3.447 3.347 3.337
800.536 3.367 3.327 3.267 3.257 3.417 3.297 3.367 3.857 4.037 4.007
819.826 4.187 4.697 5.167 5.627 6.237 7.107 8.247 9.517 11.147 13.197
839.116 15.657 18.577 22.137 26.637 32.017 38.127 44.757 51.487 57.737 62.627
858.406 65.407 65.817 63.777 59.497 53.557 46.587 39.557 33.147 27.567 22.747
877.696 18.847 15.867 13.607 12.047 11.027 10.307 9.827 9.607 9.447 9.437
896.986 9.527 9.717 10.027 10.407 10.857 11.467 12.177 13.017 14.107 15.217
916.276 16.577 18.297 20.337 22.807 25.787 29.387 33.697 38.917 45.267 52.707
935.566 61.277 71.077 82.097 94.157 106.837 119.797 132.417 143.997 153.837 161.117
954.856 165.247 166.007 163.607 158.617 151.877 144.357 136.877 130.247 124.847 120.477
974.146 116.547 112.367 107.267 100.857 93.007 83.797 73.807 63.617 53.827 45.077
993.436 37.857 32.427 28.477 25.567 23.357 21.517 19.997 18.607 17.227 15.947
1012.726 14.917 14.127 13.357 12.777 12.367 12.007 11.697 11.337 10.887 10.307
1032.016 9.637 9.057 8.627 8.217 7.957 7.787 7.647 7.547 7.497 7.507
1051.306 7.487 7.447 7.477 7.587 7.697 7.787 7.927 8.057 8.137 8.377
1070.596 8.757 9.207 9.767 10.487 11.557 12.887 14.537 16.777 19.577 22.927
1089.886 26.847 31.427 36.637 42.087 47.577 52.927 57.857 61.847 64.627 66.397
1109.176 67.177 67.077 66.337 65.257 64.107 63.017 61.837 60.527 59.107 57.657
1128.467 55.937 53.787 51.467 48.837 45.767 42.427 39.157 35.957 32.917 30.327
1147.757 28.067 26.067 24.397 22.887 21.517 20.477 19.817 19.647 19.907 20.337
1167.047 20.777 21.097 21.087 20.557 19.417 17.797 15.847 13.687 11.597 9.857
1186.337 8.467 7.377 6.457 5.817 5.347 4.857 4.697 4.657 4.517 4.377
1205.627 4.217 4.207 4.197 4.107 4.017 3.987 3.967 3.857 3.747 3.707
1224.917 3.817 3.897 3.897 3.787 3.617 3.577 3.517 3.467 3.477 3.397
1244.207 3.377 3.347 3.427 3.507 3.497 3.607 3.757 3.857 3.857 3.937
1263.497 4.037 4.027 4.087 4.127 3.957 3.787 3.677 3.627 3.607 3.587
1282.787 3.597 3.647 3.707 3.827 4.027 4.287 4.567 4.857 5.127 5.407
1302.077 5.627 5.677 5.737 5.757 5.717 5.767 5.897 6.097 6.367 6.687
1321.367 7.057 7.607 8.287 8.987 9.847 10.927 12.167 13.537 14.967 16.397
1340.657 17.797 19.067 20.227 21.217 21.777 21.807 21.307 20.397 19.207 17.997
1359.947 17.167 16.917 17.407 18.697 20.517 22.537 24.687 26.957 29.077 31.257
1379.237 33.647 35.637 36.657 36.537 35.217 32.297 28.097 23.247 18.427 14.477
1398.527 11.597 9.547 8.137 7.157 6.487 6.017 5.697 5.467 5.347 5.357
1417.817 5.457 5.717 6.077 6.497 7.127 7.887 8.667 9.397 10.097 10.607
1437.107 10.537 10.067 9.657 9.257 8.867 8.607 8.577 8.677 8.867 9.097
1456.397 9.287 9.347 9.207 9.027 8.797 8.627 8.447 8.197 7.947 7.627
1475.687 7.317 6.977 6.597 6.137 5.697 5.207 4.657 4.157 3.597 3.097
1494.977 2.817 2.667 2.477 2.297 2.207 2.187 2.157 1.987 1.8566 1.8232
1514.267 1.7916 1.7765 1.7811 1.8066 1.7871 1.7026 1.6401 1.6481 1.6965 1.739
1533.557 1.7624 1.7822 1.8221 1.897 1.8548 1.7902 1.7905 1.743 1.686 1.6269
1552.847 1.651 1.669 1.6872 1.7501 1.7041 1.6753 1.6883 1.7314 1.7915 1.8223
1572.137 1.877 1.987 2.057 2.007 2.017 2.027 2.057 2.117 2.087 2.117
1591.427 2.157 2.147 2.157 2.127 2.127 2.157 2.127 2.117 2.137 2.127
1610.717 2.117 2.087 2.087 2.107 2.067 2.027 2.047 2.077 2.097 2.067
1630.007 2.077 2.117 2.187 2.267 2.267 2.287 2.387 2.467 2.627 2.757
1649.297 2.797 2.947 3.087 3.067 3.077 3.147 3.187 3.197 3.197 3.237
1668.587 3.267 3.247 3.207 3.197 3.167 3.107 3.117 3.137 3.177 3.157
1687.877 3.157 3.217 3.177 3.227 3.347 3.347 3.357 3.407 3.387 3.347
1707.167 3.367 3.377 3.367 3.377 3.397 3.337 3.257 3.157 3.037 2.987
1726.457 2.917 2.837 2.707 2.617 2.617 2.497 2.367 2.297 2.207 2.067
1745.747 1.977 1.997 1.967 1.887 1.833 1.8236 1.7663 1.7654 1.7451 1.6552
1765.037 1.6149 1.5844 1.5757 1.5634 1.5461 1.5364 1.4924 1.4308 1.3821 1.3487
1784.327 1.3137 1.3462 1.434 1.5243 1.5905 1.6592 1.7872 1.907 2.007 2.117
1803.617 2.277 2.387 2.407 2.367 2.297 2.237 2.117 1.997 1.937 1.8013
1822.907 1.6686 1.5844 1.5593 1.5485 1.5005 1.4755 1.4472 1.4017 1.3537 1.3492
1842.197 1.3467 1.3728 1.3879 1.35 1.3621 1.4309 1.4612 1.4442 1.4648 1.4699
1861.487 1.4996 1.557 1.6185 1.7111 1.7591 1.8157 1.907 1.957 2.027 2.097
1880.777 2.147 2.207 2.287 2.317 2.317 2.297 2.277 2.227 2.077 1.897
1900.067 1.7864 1.7267 1.6229 1.5083 1.4711 1.4508 1.3793 1.3243 1.2853 1.2662
1919.357 1.2383 1.2046 1.2228 1.2545 1.2393 1.2153 1.252 1.2984 1.3445 1.4342
1938.647 1.5128 1.5992 1.6557 1.7145 1.81 1.867 1.897 1.957 1.977 1.917
1957.937 1.877 1.8281 1.7267 1.5769 1.4445 1.2814 1.1176 1.0528 0.9697 0.88381
1977.227 0.87229 0.8306 0.7821 0.748 0.727 0.753 0.754 0.719 0.699 0.703
1996.517 0.692 0.653 0.64 0.661 0.65 0.622 0.696 0.7576 0.712 0.695
2015.807 0.686 0.635 0.639 0.671 0.681 0.689 0.64 0.622 0.647 0.676
2035.097 0.687 0.697 0.749 0.748 0.746 0.7914 0.8341 0.8126 0.8025 0.860327
2054.387 0.89611 0.90091 0.91465 0.93981 0.9682 0.9572 0.92321 0.89425 0.88164 0.87203
2073.677 0.864813 0.90038 0.95534 0.9591 0.91718 0.88096 0.8351 0.8034 0.7737 0.781
2092.967 0.7929 0.7863 0.817 0.7729 0.691 0.721 0.736 0.701 0.642 0.618
2112.257 0.66 0.688 0.663 0.642 0.642 0.632 0.641 0.647 0.645 0.62
2131.547 0.577 0.612 0.621 0.555 0.56 0.528 0.506 0.544 0.566 0.535
2150.837 0.513 0.566 0.573 0.566 0.54 0.539 0.527 0.49 0.493 0.491
2170.127 0.503 0.504 0.525 0.552 0.516 0.517 0.519 0.437 0.445 0.543
2189.417 0.59 0.596 0.587 0.574 0.57 0.578 0.613 0.605 0.58 0.626
2208.707 0.632 0.605 0.608 0.612 0.65 0.69 0.684 0.672 0.682 0.687
2227.997 0.688 0.714 0.743 0.7586 0.7662 0.738 0.731 0.7742 0.826 0.8082
2247.287 0.8095 0.767 0.75 0.7935 0.743 0.743 0.726 0.704 0.692 0.676
2266.577 0.611 0.584 0.621 0.651 0.689 0.689 0.711 0.688 0.669 0.664
2285.868 0.649 0.655 0.663 0.627 0.631 0.724 0.7655 0.716 0.657 0.717
2305.158 0.8103 0.8201 0.860126 0.90467 0.88266 0.861794 0.861047 0.88526 0.865163 0.85109
2324.448 0.8427 0.8398 0.8325 0.8103 0.8241 0.86846 0.88143 0.8459 0.8427 0.8238
2343.738 0.7778 0.7727 0.741 0.715 0.734 0.741 0.7636 0.76 0.699 0.675
2363.028 0.679 0.68 0.69 0.71 0.691 0.681 0.709 0.719 0.657 0.593
2382.318 0.599 0.557 0.477 0.453 0.523 0.546 0.509 0.45 0.417 0.405
2401.608 0.38 0.417 0.422 0.35 0.371 0.439 0.461 0.478 0.471 0.444
2420.898 0.389 0.335 0.342 0.424 0.399 0.341 0.352 0.389 0.407 0.381
2440.188 0.349 0.364 0.392 0.41 0.441 0.488 0.503 0.447 0.434 0.477
2459.478 0.504 0.492 0.518 0.487 0.443 0.494 0.511 0.446 0.444 0.483
2478.768 0.519 0.53 0.466 0.461 0.519 0.532 0.545 0.595 0.619 0.61
2498.058 0.574 0.559 0.524 0.497 0.472 0.45 0.426 0.436 0.491 0.508
2517.348 0.515 0.52 0.472 0.408 0.436 0.465 0.453 0.439 0.427 0.442
2536.638 0.408 0.318 0.31 0.36 0.384 0.377 0.413 0.367 0.305 0.366
2555.928 0.42 0.402 0.41 0.475 0.41 0.356 0.342 0.329 0.38 0.364
2575.218 0.364 0.428 0.426 0.41 0.462 0.5 0.467 0.465 0.512 0.552
2594.508 0.515 0.511 0.531 0.545 0.562 0.566 0.573 0.624 0.691 0.683
2613.798 0.723 0.76 0.752 0.756 0.7898 0.7919 0.8158 0.86746 0.87825 0.88734
2633.088 0.92051 1.0012 1.0761 1.0761 1.0613 1.0647 1.0492 0.9612 0.9773 0.97
2652.378 0.87834 0.8375 0.818 0.8401 0.8062 0.7673 0.697 0.659 0.67 0.672
2671.668 0.673 0.708 0.7699 0.7848 0.7924 0.8171 0.7922 0.8296 0.89658 0.86859
2690.958 0.8137 0.8207 0.856378 0.8208 0.8166 0.8088 0.8047 0.8273 0.7774 0.721
2710.248 0.73 0.7646 0.8254 0.87867 0.8367 0.85303 0.9691 1.029 1.0611 1.166
2729.538 1.2961 1.2908 1.3082 1.3317 1.2149 1.1693 1.2136 1.1903 1.0959 1.0655
2748.828 1.0258 1.0283 1.0637 1.0585 0.9906 0.93431 0.9739 0.9913 0.89307 0.858521
2768.118 0.93642 0.89414 0.88589 0.9763 0.9881 0.9853 0.9738 0.9807 0.999 0.9571
2787.408 0.9986 1.1037 1.1135 1.1881 1.2765 1.2603 1.2853 1.3399 1.4188 1.4899
2806.698 1.5102 1.6811 1.8365 1.887 1.937 2.007 2.077 2.097 2.127 2.117
2825.988 2.167 2.217 2.277 2.327 2.317 2.347 2.517 2.707 2.777 2.877
2845.278 3.037 3.137 3.267 3.537 3.947 4.337 4.617 5.067 5.677 6.427
2864.568 7.267 8.127 9.127 10.247 11.487 12.797 14.007 15.067 15.977 16.767
2883.858 17.327 17.657 17.787 17.757 17.667 17.447 17.117 16.787 16.597 16.437
2903.148 16.247 16.137 16.087 16.057 16.167 16.327 16.517 16.907 17.467 18.287
2922.438 19.497 20.947 22.567 24.557 26.717 28.667 30.467 31.797 32.157 31.787
2941.728 30.667 28.957 26.977 24.877 22.947 21.477 20.637 20.377 20.697 21.687
2961.018 23.377 25.917 29.567 34.537 41.247 49.787 59.287 68.487 76.287 80.987
2980.308 80.917 76.827 70.017 61.377 52.757 44.967 38.147 32.517 28.027 24.417
2999.598 21.347 18.887 17.057 15.577 14.337 13.337 12.467 11.727 11.117 10.487
3018.888 9.697 8.837 8.117 7.487 6.857 6.417 6.127 5.937 5.857 5.807
3038.178 5.757 5.777 6.017 6.447 7.007 7.887 9.067 10.647 12.767 15.227
3057.468 17.817 20.157 21.807 22.557 22.427 21.577 20.277 18.727 17.177 16.017
3076.758 15.107 14.007 12.867 11.697 10.487 9.287 8.127 7.147 6.327 5.607
3096.048 4.907 4.237 3.597 3.167 2.837 2.557 2.407 2.197 2.007 2.027
3115.338 2.047 1.897 1.8501 1.646 1.5045 1.548 1.5427 1.5568 1.5534 1.6036
3134.628 1.7341 1.8445 1.887 1.907 1.8467 1.7452 1.6448 1.6461 1.6204 1.5499
3153.918 1.4594 1.2935 1.2153 1.1486 1.1451 1.173 1.1718 1.1574 1.1433 1.1776
3173.208 1.2314 1.1317 1.1746 1.2895 1.205 1.1871 1.1921 1.1786 1.2193 1.2591
3192.498 1.2134 1.0267 0.9857 1.0429 1.0464 1.0986 1.0644 0.94878 0.92291 0.91845
3211.788 0.858719 0.8001 0.649 0.621 0.714 0.764 0.711 0.561 0.553 0.636
3231.078 0.595 0.517 0.472 0.436 0.328 0.321 0.317 0.413 0.473 0.33
3250.368 0.221 0.252 0.298 0.236 0.273 0.186 0.19 0.33 0.271 0.187
3269.658 0.162 0.124 0.014 0 0.159 0.263 0.266 0.177 0.093 0.104
3288.948 0.114 0.179 0.298 0.402 0.425 0.366 0.39 0.275 0.089 0.06
3308.238 0.164 0.292 0.332 0.261 0.301 0.284 0.237 0.284 0.401 0.383
3327.528 0.23 0.25 0.146 0.142 0.26 0.342 0.297 0.2 0.223 0.219
3346.818 0.246 0.288 0.28 0.308 0.311 0.359 0.508 0.476 0.438 0.444
3366.108 0.464 0.432 0.348 0.327 0.308 0.368 0.327 0.304 0.371 0.438
3385.398 0.493 0.491 0.46 0.394 0.382 0.445 0.462 0.385 0.405 0.456
3404.688 0.429 0.437 0.411 0.4 0.397 0.354 0.261 0.23 0.333 0.4
3423.978 0.341 0.394 0.474 0.383 0.27 0.311 0.341 0.298 0.355 0.41
3443.269 0.448 0.434 0.426 0.41 0.337 0.306 0.353 0.38 0.404 0.437
3462.559 0.4 0.48 0.49 0.368 0.3 0.205 0.179 0.127 0.122 0.148
3481.849 0.215 0.34 0.312 0.293 0.295 0.195 0.241 0.315 0.265 0.248
3501.139 0.213 0.23 0.212 0.127 0.097 0.15 0.2 0.283 0.329 0.282
3520.429 0.34 0.424 0.431 0.322 0.175 0.139 0.199 0.325 0.197 0.081
3539.719 0.089 0.134 0.2 0.218 0.274 0.231 0.304 0.322 0.236 0.157
3559.009 0.139 0.179 0.179 0.173 0.097 0.176 0.208 0.097 0.079 0.128
3578.299 0.285 0.318 0.227 0.266 0.289 0.364 0.492 0.43 0.259 0.156
3597.589 0.192 0.213 0.235 0.381 0.354 0.268 0.233 0.248 0.25 0.251
3616.879 0.334 0.329 0.263 0.292 0.487 0.546 0.466 0.332 0.119 0.106
3636.169 0.193 0.205 0.162 0.104 0.192 0.288 0.34 0.29 0.223 0.167
3655.459 0.151 0.162 0.249 0.347 0.331 0.342 0.304 0.3 0.331 0.422
3674.749 0.461 0.347 0.285 0.32 0.397 0.388 0.354 0.4 0.365 0.465
3694.039 0.612 0.525 0.442 0.424 0.327 0.278 0.269 0.241 0.285 0.356
3713.329 0.281 0.213 0.248 0.209 0.219 0.283 0.312 0.358 0.336 0.349
3732.619 0.337 0.218 0.272 0.336 0.318 0.309 0.306 0.283 0.459 0.431
3751.909 0.266 0.313 0.362 0.389 0.414 0.362 0.268 0.427 0.531 0.513
3771.199 0.401 0.274 0.357 0.384 0.319 0.308 0.329 0.413 0.343 0.178
3790.489 0.313 0.44 0.421 0.381 0.348 0.372 0.372 0.368 0.33 0.384
3809.779 0.45 0.463 0.429 0.359 0.399 0.506 0.469 0.312 0.272 0.303
3829.069 0.265 0.365 0.447 0.368 0.47 0.509 0.427 0.446 0.379 0.363
3848.359 0.35 0.276 0.376 0.365 0.321 0.317 0.259 0.269 0.243 0.313
3867.649 0.334 0.307 0.397 0.329 0.252 0.272 0.211 0.239 0.267 0.111
3886.939 0.216 0.322 0.245 0.146 0.085 0.239 0.281 0.379 0.412 0.208
3906.229 0.143 0.153 0.224 0.314 0.406 0.355 0.281 0.23 0.358 0.348
3925.519 0.314 0.344 0.288 0.283 0.237 0.167 0.075 0.131 0.18 0.197
3944.809 0.218 0.204 0.143 0.195 0.296 0.317 0.313 0.347 0.364 0.341
3964.099 0.307 0.24 0.208 0.261 0.234 0.142 0.181 0.134 0.103 0.218
3983.389 0.189 0.171 0.252 0.266 0.188 0.245 0.244 0.334 0.431 0.412
##END=
