##TITLE=o-(p-Toluylsulfonamido)aniline
##JCAMP-DX=4.24
##DATA TYPE=INFRARED SPECTRUM
##ORIGIN=NIST Mass Spectrometry Data Center
##OWNER=NIST Standard Reference Data Program
Collection (C) 2018 copyright by the U.S. Secretary of Commerce
on behalf of the United States of America. All rights reserved.
##CAS REGISTRY NO=3624-90-6
##MOLFORM=C 13 H 14 N 2 O 2 S
##$NIST SOURCE=MSDC-IR
##SPECTROMETER/DATA SYSTEM=HP-GC/MS/IRD
##STATE=gas
##XUNITS=1/CM
##YUNITS=ABSORBANCE
##XFACTOR=1.0
##YFACTOR=0.000001800
##DELTAX=4.0
##FIRSTX=550.0
##LASTX=3846.0
##FIRSTY=0.006723
##MAXX=3846
##MINX=550
##MAXY=0.018
##MINY=0
##NPOINTS=825
##XYDATA=(X++(Y..Y))
550.0 3735 3377 3189 3276 3507 3783 3730 3441 2966 2250
590.0 1570 1124 879 787 765 779 835 983 1173 1329
630.0 1357 1452 1617 1857 2288 2991 3833 4373 4384 3939
670.0 3295 2718 2309 2005 1722 1518 1398 1362 1482 1664
710.0 1900 2172 2206 1911 1613 1630 2091 2872 3421 3247
750.0 2563 1937 1524 1246 1087 1021 996 966 954 976
790.0 1037 1175 1356 1615 2078 2592 2687 2295 2020 1965
830.0 1864 1723 1497 1208 1051 1023 994 910 798 694
870.0 644 666 742 929 1194 1501 1842 2142 2312 2271
910.0 2083 1842 1551 1323 1276 1298 1241 1036 791 589
950.0 433 323 267 228 181 163 153 131 105 92
990.0 94 78 44 55 93 106 149 193 228 229
1030.0 235 269 300 304 246 162 133 147 130 166
1070.0 259 346 510 873 1551 2346 2630 2171 1376 737
1110.0 466 372 323 349 340 345 433 591 768 1001
1150.0 1495 2513 4323 6950 9371 10000 8256 5354 3063 1867
1190.0 1261 972 937 998 1014 959 819 591 343 154
1230.0 40 0 29 108 204 301 403 511 634 726
1270.0 795 854 921 1019 1113 1232 1417 1622 1830 1967
1310.0 1961 1867 1790 1801 1915 2063 2163 2156 2061 1935
1350.0 1804 1679 1602 1600 1712 1954 2367 3016 3864 4708
1390.0 5238 5209 4683 3890 3064 2351 1788 1348 1044 856
1430.0 730 637 597 614 645 737 903 1062 1142 1088
1470.0 990 987 1178 1529 2018 2663 3307 3730 3723 3216
1510.0 2449 1724 1164 817 628 515 427 369 335 332
1550.0 328 316 318 361 435 520 625 739 890 1092
1590.0 1298 1489 1637 1698 1731 1831 2067 2456 2895 3162
1630.0 3097 2666 2048 1476 1060 765 551 429 339 265
1670.0 218 181 146 113 93 82 50 31 34 42
1710.0 36 15 7 10 10 8 10 25 40 48
1750.0 57 82 79 69 77 84 92 99 101 105
1790.0 120 145 150 121 91 79 70 59 53 48
1830.0 42 41 46 43 46 54 56 59 64 63
1870.0 74 92 108 130 148 152 154 170 190 209
1910.0 239 259 243 210 173 133 104 89 66 51
1950.0 47 46 49 46 33 38 46 39 34 35
1990.0 36 39 54 46 31 33 25 24 40 48
2030.0 41 41 41 44 49 49 42 41 53 49
2070.0 42 45 44 47 49 49 46 36 50 54
2110.0 51 51 47 35 37 56 44 37 47 47
2150.0 28 27 45 47 47 46 51 63 67 71
2190.0 72 71 64 67 71 70 68 48 39 47
2230.0 49 56 62 74 78 68 71 87 81 69
2270.0 67 78 85 80 85 83 78 89 88 82
2310.0 87 73 57 63 68 73 63 68 78 66
2350.0 56 59 70 58 36 35 46 61 81 87
2390.0 85 75 81 96 89 79 76 85 86 81
2430.0 84 84 78 86 82 78 83 87 94 86
2470.0 83 96 101 103 94 93 100 103 105 111
2510.0 114 122 107 93 115 135 142 126 128 145
2550.0 137 121 117 135 150 151 154 160 160 151
2590.0 136 125 142 170 164 142 149 153 135 134
2630.0 133 125 120 123 140 156 140 129 124 132
2670.0 146 141 137 142 142 156 160 145 158 149
2710.0 115 118 137 145 160 160 167 168 168 178
2750.0 187 191 169 160 181 175 163 154 165 196
2790.0 198 183 189 202 200 201 198 192 186 188
2830.0 212 221 220 230 259 284 289 313 348 397
2870.0 451 508 550 539 510 500 492 463 458 475
2910.0 494 523 574 642 740 851 952 958 855 723
2950.0 606 521 468 454 434 400 393 387 415 448
2990.0 473 501 512 518 547 617 700 808 943 1112
3030.0 1330 1521 1601 1574 1489 1367 1224 1160 1212 1266
3070.0 1299 1280 1141 1057 982 859 759 636 507 408
3110.0 357 323 291 277 262 260 236 224 243 252
3150.0 234 216 215 230 206 180 202 185 184 221
3190.0 210 210 220 239 243 255 237 204 229 234
3230.0 223 240 236 219 237 255 227 214 222 204
3270.0 214 216 200 214 231 219 212 232 257 238
3310.0 222 238 245 270 261 249 265 320 387 408
3350.0 430 509 583 646 796 984 1167 1428 1678 1857
3390.0 1961 1957 1879 1671 1344 1046 827 660 524 426
3430.0 377 343 319 316 321 331 355 385 420 485
3470.0 540 587 665 759 849 861 795 733 671 594
3510.0 501 414 326 277 241 185 168 157 125 113
3550.0 138 162 156 121 95 131 130 103 116 84
3590.0 43 49 94 104 82 90 109 119 88 70
3630.0 94 107 126 133 120 125 120 105 121 124
3670.0 98 109 125 131 137 116 104 109 102 97
3710.0 107 103 97 94 95 113 130 119 107 139
3750.0 145 119 116 127 144 126 128 167 185 176
3790.0 157 146 118 97 108 144 141 124 144 141
3830.0 135 131 128 153 178
##END=
