##TITLE=Pentafluorobenzene
##JCAMP-DX=4.24
##DATA TYPE=INFRARED SPECTRUM
##ORIGIN=NIST Mass Spectrometry Data Center
##OWNER=NIST Standard Reference Data Program
Collection (C) 2018 copyright by the U.S. Secretary of Commerce
on behalf of the United States of America. All rights reserved.
##CAS REGISTRY NO=363-72-4
##MOLFORM=C 6 H F 5
##$NIST SOURCE=MSDC-IR
##SPECTROMETER/DATA SYSTEM=HP-GC/MS/IRD
##STATE=gas
##XUNITS=1/CM
##YUNITS=ABSORBANCE
##XFACTOR=1.0
##YFACTOR=0.000035400
##DELTAX=4.0
##FIRSTX=550.0
##LASTX=3846.0
##FIRSTY=0.001841
##MAXX=3846
##MINX=550
##MAXY=0.354
##MINY=0
##NPOINTS=825
##XYDATA=(X++(Y..Y))
550.0 52 79 57 47 34 22 15 9 8 5
590.0 1 0 0 3 3 1 3 2 2 4
630.0 3 1 1 2 3 3 5 9 13 20
670.0 28 36 49 63 74 77 93 124 187 325
710.0 562 697 655 654 528 284 130 62 39 26
750.0 21 21 21 21 22 24 27 30 34 35
790.0 34 35 35 39 42 54 90 167 295 427
830.0 566 868 879 581 447 314 172 93 57 46
870.0 44 45 43 42 41 38 37 44 56 70
910.0 91 132 217 382 652 970 1295 1678 2139 2686
950.0 3142 3294 3111 2623 1904 1243 886 723 630 544
990.0 432 323 249 204 174 157 155 159 171 200
1030.0 235 267 291 313 347 405 552 912 1634 2704
1070.0 3597 3845 3889 3415 2131 1030 507 310 236 197
1110.0 166 148 145 169 235 338 423 464 455 387
1150.0 260 170 169 272 568 1096 1543 1688 1631 1351
1190.0 825 359 183 154 164 209 282 355 394 388
1230.0 343 268 193 148 142 158 188 222 249 268
1270.0 281 305 356 406 408 389 346 247 152 105
1310.0 91 89 89 85 80 70 60 53 47 45
1350.0 48 57 78 109 137 147 141 127 104 86
1390.0 90 112 144 173 182 174 154 122 90 74
1430.0 73 76 82 91 100 107 116 128 141 164
1470.0 212 311 503 850 1372 2053 2898 3839 4582 4883
1510.0 4914 4974 5357 6535 8393 9836 10000 8911 6650 3894
1550.0 1873 996 680 522 420 327 243 187 150 127
1590.0 112 107 108 117 135 160 194 245 319 429
1630.0 582 757 908 964 864 652 430 287 206 152
1670.0 117 94 82 73 68 67 72 87 107 129
1710.0 145 149 138 113 84 61 46 37 33 31
1750.0 30 29 30 30 29 29 28 26 25 23
1790.0 21 23 23 24 23 24 26 29 30 32
1830.0 35 37 37 38 40 43 45 44 39 31
1870.0 23 17 15 16 17 20 22 22 23 19
1910.0 15 13 14 14 12 11 10 11 10 10
1950.0 11 10 11 12 13 14 15 16 16 16
1990.0 17 16 17 16 15 15 11 9 7 7
2030.0 6 6 5 4 4 4 5 7 10 14
2070.0 18 21 24 27 28 28 30 32 33 34
2110.0 32 27 22 16 11 8 9 9 8 7
2150.0 8 7 6 5 6 6 5 6 7 8
2190.0 10 13 18 26 33 40 43 43 39 33
2230.0 27 25 27 29 31 30 28 22 17 12
2270.0 10 9 8 9 7 6 6 7 8 7
2310.0 7 8 10 12 14 16 20 25 30 37
2350.0 45 52 55 54 46 37 28 20 17 16
2390.0 15 16 15 16 17 19 23 27 29 30
2430.0 27 23 17 13 14 15 17 20 22 22
2470.0 21 21 20 19 18 16 14 12 12 13
2510.0 13 15 19 24 31 39 48 57 60 60
2550.0 55 47 40 39 42 47 50 50 47 40
2590.0 33 28 25 23 23 22 21 19 18 17
2630.0 18 20 21 23 26 30 34 37 39 41
2670.0 39 36 32 27 21 16 12 8 6 3
2710.0 3 3 3 4 4 5 3 2 2 2
2750.0 1 0 0 1 0 1 1 2 1 2
2790.0 3 5 6 7 8 10 11 12 12 10
2830.0 7 4 3 4 3 2 2 3 4 3
2870.0 4 3 4 5 6 8 10 11 14 17
2910.0 18 20 22 26 28 30 30 26 20 15
2950.0 11 8 6 4 2 2 3 2 3 1
2990.0 4 5 6 7 7 9 9 10 10 9
3030.0 10 13 14 14 15 16 15 14 14 13
3070.0 13 16 20 27 40 58 74 76 73 65
3110.0 45 27 17 10 7 6 5 5 6 8
3150.0 8 8 9 9 10 9 10 10 7 5
3190.0 3 2 3 4 4 2 1 0 0 0
3230.0 0 2 2 2 3 2 3 4 4 5
3270.0 5 6 7 6 5 5 3 4 5 6
3310.0 5 4 4 3 4 5 5 3 3 4
3350.0 4 3 4 5 4 5 4 4 5 5
3390.0 4 5 6 5 4 4 4 3 5 4
3430.0 2 4 5 5 4 5 6 6 5 5
3470.0 6 6 7 6 6 6 5 6 5 6
3510.0 6 5 6 5 6 5 5 7 6 5
3550.0 4 4 7 7 8 7 6 7 6 6
3590.0 5 5 6 6 6 7 8 7 6 6
3630.0 7 6 6 6 8 8 6 5 6 8
3670.0 6 6 8 5 5 7 8 9 10 9
3710.0 8 8 9 10 9 8 9 9 8 8
3750.0 10 9 9 10 9 9 10 12 11 8
3790.0 9 8 9 11 11 13 14 11 11 9
3830.0 10 12 13 12 12
##END=
