##TITLE=4,4'-Difluorobenzophenone oxime
##JCAMP-DX=4.24
##DATA TYPE=INFRARED SPECTRUM
##ORIGIN=EPA-IR VAPOR PHASE LIBRARY
##OWNER=SRD/NIST
Collection (C) 2018 copyright by the U.S. Secretary of Commerce
on behalf of the United States of America. All rights reserved.
##CAS REGISTRY NO=363-02-0
##MOLFORM=C 13 H 9 F 2 N O
##$NIST SOURCE=MSDC-IR
##STATE=gas
##XUNITS=1/CM
##YUNITS=ABSORBANCE
##XFACTOR=1.
##YFACTOR=0.001
##DELTAX=1.929
##FIRSTX=549.8
##LASTX=4000.8
##FIRSTY=7.468
##MAXX=4000.75
##MINX=549.766
##MAXY=0.169238
##MINY=0
##NPOINTS=1790
##XYDATA=(X++(Y..Y))
549.766 7.468 6.328 5.468 4.848 4.278 3.798 3.678 3.598 3.428 3.428
569.056 3.638 4.028 4.418 5.118 6.278 7.768 10.238 13.758 18.648 25.408
588.346 32.698 38.998 42.808 43.218 40.268 34.838 27.858 20.808 15.268 11.658
607.636 9.618 8.538 7.828 7.488 7.418 7.178 6.928 6.718 6.298 5.748
626.926 5.198 4.698 4.358 4.078 3.998 4.148 4.208 4.368 4.528 4.758
646.216 5.128 5.388 5.798 6.188 6.598 7.438 8.328 9.108 9.868 10.228
665.506 10.198 9.798 8.888 7.878 7.038 6.138 5.448 4.898 4.398 4.008
684.796 3.688 3.448 3.088 2.838 2.728 2.608 2.688 2.618 2.468 2.448
704.086 2.538 2.728 2.988 3.268 3.498 3.558 3.838 4.378 4.858 5.678
723.376 6.768 7.868 8.668 9.008 8.938 8.488 7.798 7.158 6.648 6.208
742.666 5.868 5.638 5.398 5.108 4.758 4.468 4.448 4.478 4.398 4.328
761.956 4.418 4.488 4.458 4.428 4.498 4.588 4.718 4.908 4.958 5.008
781.246 5.118 5.268 5.498 5.848 6.228 6.628 7.228 7.978 8.868 10.148
800.536 11.658 13.048 14.148 14.958 15.368 15.548 15.928 16.678 18.278 20.628
819.826 23.348 26.268 29.348 32.828 37.248 43.168 50.588 59.128 67.178 72.778
839.116 75.038 71.388 61.278 49.058 38.278 29.898 23.738 19.348 16.298 14.048
858.406 12.118 10.338 8.778 7.538 6.708 6.188 5.838 5.668 5.738 5.968
877.696 6.328 6.738 7.218 7.828 8.348 8.978 9.958 11.178 12.848 15.238
896.986 18.688 23.118 28.528 35.218 42.868 50.958 58.448 63.928 66.058 64.148
916.276 58.628 50.388 40.638 31.078 23.418 18.238 15.338 14.148 13.988 14.368
935.566 14.568 14.298 13.758 12.808 11.218 9.338 7.748 6.578 5.708 5.088
954.856 4.648 4.368 4.198 4.068 4.058 4.158 4.488 4.988 5.818 7.168
974.146 9.028 11.498 14.558 17.948 21.258 23.978 25.548 25.758 24.698 22.458
993.436 19.188 15.558 12.268 9.618 7.708 6.348 5.648 5.558 6.148 7.278
1012.726 8.338 8.818 8.748 8.078 6.768 5.168 3.818 2.958 2.438 2.158
1032.016 2.018 1.968 1.858 1.758 1.778 1.798 1.768 1.728 1.688 1.688
1051.306 1.678 1.728 1.798 1.838 1.828 1.698 1.688 1.688 1.738 1.848
1070.596 1.928 2.028 2.138 2.288 2.448 2.668 2.948 3.298 3.718 4.188
1089.886 4.738 5.418 6.118 6.588 6.618 6.178 5.598 4.968 4.298 3.608
1109.176 3.028 2.678 2.508 2.418 2.278 2.288 2.398 2.318 2.348 2.538
1128.467 2.608 2.718 3.138 3.638 4.218 5.068 6.288 8.158 11.178 15.918
1147.757 23.008 33.088 45.858 59.308 69.158 72.268 68.068 58.258 45.668 32.168
1167.047 21.058 14.008 9.778 7.208 5.608 4.648 4.008 3.648 3.528 3.358
1186.337 3.398 3.558 3.668 3.868 4.018 4.188 4.408 4.908 5.538 6.388
1205.627 7.618 9.088 10.748 12.698 15.028 17.628 20.498 23.708 27.418 32.258
1224.917 39.168 49.448 64.698 85.948 112.208 139.108 159.898 169.238 165.798 150.008
1244.207 123.668 93.868 68.948 51.468 39.768 31.768 26.098 22.088 19.338 17.578
1263.497 16.618 16.448 16.708 17.238 17.918 18.288 18.448 18.488 18.418 18.468
1282.787 19.058 20.568 23.358 27.518 32.488 37.328 41.428 45.158 48.538 50.358
1302.077 50.398 49.608 47.698 43.858 38.438 32.638 27.408 23.258 20.188 17.878
1321.367 16.148 14.738 13.598 12.658 11.888 11.378 11.078 11.078 11.368 11.848
1340.657 12.468 13.208 13.958 14.478 14.498 14.058 13.208 11.918 10.318 8.668
1359.947 7.258 6.058 5.098 4.448 3.968 3.598 3.438 3.398 3.278 3.238
1379.237 3.338 3.438 3.488 3.568 3.688 3.768 3.828 3.928 4.098 4.358
1398.527 4.768 5.298 5.818 6.118 6.088 5.868 5.408 4.718 4.088 3.658
1417.817 3.438 3.348 3.238 3.258 3.298 3.238 3.208 3.208 3.168 3.128
1437.107 3.128 3.098 3.138 3.258 3.328 3.418 3.548 3.618 3.688 3.738
1456.397 3.828 3.948 4.078 4.308 4.578 4.788 4.978 5.238 5.648 6.048
1475.687 6.488 7.098 7.798 8.608 9.578 10.848 12.508 14.678 17.678 21.758
1494.977 27.628 36.038 47.158 61.518 79.078 98.448 118.178 133.288 139.168 134.558
1514.267 120.438 99.128 74.718 53.058 36.398 26.128 19.688 15.488 12.638 10.648
1533.557 9.198 8.158 7.408 6.848 6.448 6.198 6.088 6.028 6.018 6.008
1552.847 5.978 5.998 5.968 5.918 5.958 6.078 6.328 6.658 7.098 7.688
1572.137 8.448 9.398 10.668 12.348 14.568 17.338 20.518 24.018 27.678 31.468
1591.427 35.128 38.488 41.528 44.048 45.718 46.168 45.208 43.178 40.598 37.918
1610.717 35.458 33.388 31.728 30.058 28.118 25.688 22.638 19.178 15.678 12.438
1630.007 9.878 8.158 7.038 6.338 6.018 5.918 5.868 5.888 5.938 5.958
1649.297 5.768 5.408 4.908 4.418 3.968 3.468 3.108 2.838 2.598 2.408
1668.587 2.288 2.148 2.008 1.998 1.968 1.868 1.798 1.768 1.668 1.588
1687.877 1.5399 1.4804 1.4471 1.4271 1.3488 1.2983 1.2679 1.226 1.2454 1.2387
1707.167 1.1697 1.073 1.0002 1.0199 1.0795 1.0671 1.0097 0.9995 1.0553 1.0531
1726.457 0.9895 0.9902 1.0552 1.0801 1.0306 1.0429 1.1322 1.2385 1.3168 1.4167
1745.747 1.528 1.658 1.898 2.158 2.418 2.708 3.028 3.288 3.418 3.428
1765.037 3.328 3.088 2.728 2.368 2.058 1.748 1.5233 1.4332 1.3089 1.2168
1784.327 1.1961 1.1262 1.0335 0.9496 0.904 0.9422 0.9673 0.9946 1.0177 1.0432
1803.617 1.0562 1.0784 1.147 1.1906 1.2439 1.3016 1.3585 1.3829 1.4189 1.4662
1822.907 1.4907 1.5332 1.5018 1.4505 1.4171 1.392 1.321 1.235 1.1952 1.1614
1842.197 1.1456 1.1323 1.1115 1.1453 1.1636 1.1005 1.1065 1.1409 1.1971 1.239
1861.487 1.2618 1.3065 1.4085 1.578 1.778 1.968 2.148 2.388 2.698 3.018
1880.777 3.348 3.698 4.028 4.268 4.448 4.538 4.498 4.358 4.128 3.828
1900.067 3.438 3.028 2.668 2.358 2.078 1.828 1.638 1.5041 1.3974 1.336
1919.357 1.284 1.1999 1.1647 1.1082 1.0392 1.0176 0.974 0.9202 0.8784 0.8972
1938.647 0.8834 0.8621 0.8691 0.8418 0.8207 0.8033 0.8109 0.8404 0.8929 0.936
1957.937 0.993 1.0694 1.136 1.1687 1.1909 1.2225 1.1979 1.1206 1.0931 1.0715
1977.227 1.027 0.9783 0.9682 0.9629 0.922 0.9385 0.9974 1.0355 1.0176 0.9946
1996.517 0.967 0.954 0.9373 0.9194 0.9049 0.8501 0.811 0.8453 0.8529 0.8432
2015.807 0.8411 0.8403 0.9277 0.9856 1.0023 1.0888 1.1935 1.2846 1.3826 1.4837
2035.097 1.598 1.728 1.788 1.818 1.898 1.928 1.888 1.798 1.728 1.688
2054.387 1.628 1.558 1.4848 1.4387 1.4185 1.3685 1.3155 1.2825 1.2912 1.3097
2073.677 1.3038 1.3057 1.2514 1.1917 1.1268 1.0687 1.0008 0.9066 0.8687 0.8084
2092.967 0.7461 0.7203 0.7246 0.7677 0.7666 0.7247 0.727 0.7362 0.7352 0.7115
2112.257 0.6907 0.6633 0.65303 0.6633 0.65619 0.64586 0.63382 0.62866 0.5944 0.57583
2131.547 0.62197 0.6731 0.6722 0.663 0.658 0.6689 0.6581 0.63371 0.6517 0.7282
2150.837 0.7543 0.6825 0.6736 0.7091 0.6715 0.62679 0.62715 0.61021 0.62998 0.6906
2170.127 0.6776 0.61183 0.63282 0.63271 0.62436 0.6622 0.62908 0.59282 0.62058 0.64828
2189.417 0.63898 0.63343 0.65514 0.6831 0.65153 0.63563 0.6699 0.6903 0.6928 0.7162
2208.707 0.6981 0.6735 0.6626 0.6656 0.6605 0.64512 0.7227 0.7747 0.7615 0.7516
2227.997 0.6856 0.6801 0.7521 0.7659 0.761 0.7712 0.8279 0.8701 0.8405 0.873
2247.287 0.9409 1.0359 1.1331 1.1119 1.1372 1.2108 1.2198 1.2001 1.1586 1.1053
2266.577 1.0625 1.0157 0.9565 0.9343 0.9234 0.8834 0.8822 0.9287 0.9268 0.8893
2285.868 0.8947 0.8731 0.8439 0.8523 0.8365 0.813 0.8094 0.8108 0.8165 0.8369
2305.158 0.9092 0.9807 1.033 1.0841 1.1024 1.1525 1.1862 1.1492 1.1179 1.1004
2324.448 1.0734 1.0525 1.0814 1.1178 1.1091 1.0958 1.0219 0.9414 0.9837 0.9815
2343.738 0.9333 0.9484 0.9139 0.8804 0.8459 0.8526 0.8179 0.7657 0.785 0.799
2363.028 0.8122 0.7962 0.8091 0.8472 0.8742 0.8774 0.8814 0.847 0.895 0.9864
2382.318 1.0079 1.0338 1.0485 1.0829 1.1925 1.3902 1.4861 1.5536 1.618 1.568
2401.608 1.5067 1.4258 1.3917 1.3918 1.3588 1.2867 1.2251 1.2082 1.1593 1.1931
2420.898 1.2893 1.2682 1.2531 1.2571 1.235 1.2473 1.2658 1.2546 1.2172 1.205
2440.188 1.2743 1.2562 1.2356 1.2633 1.3075 1.3762 1.4043 1.5148 1.578 1.5233
2459.478 1.558 1.698 1.748 1.698 1.698 1.778 1.768 1.738 1.698 1.588
2478.768 1.5098 1.4141 1.3525 1.3414 1.2431 1.1566 1.1297 1.0882 1.0428 1.0378
2498.058 1.0677 1.0485 1.0422 1.0692 1.0832 1.1039 1.1149 1.0989 1.0875 1.1136
2517.348 1.1474 1.1806 1.1661 1.1393 1.1594 1.2143 1.2348 1.2721 1.2886 1.2479
2536.638 1.2924 1.3412 1.349 1.3634 1.391 1.4187 1.3745 1.3203 1.2797 1.3395
2555.928 1.4353 1.3694 1.3505 1.3899 1.3838 1.4007 1.41 1.3264 1.2718 1.2809
2575.218 1.248 1.2042 1.1828 1.1508 1.1059 1.0498 1.0168 1.0664 1.1363 1.0909
2594.508 1.0546 1.0363 1.0047 1.0241 1.0314 1.0245 1.0032 0.9687 0.967 0.9716
2613.798 0.9809 0.9566 0.9951 1.0769 1.097 1.0289 0.9999 1.1364 1.1223 1.0981
2633.088 1.1262 1.0963 1.0979 1.0903 1.1145 1.1229 1.1617 1.1746 1.0925 1.0093
2652.378 1.0471 1.1216 1.0457 1.0684 1.1282 1.1032 1.1361 1.1657 1.1239 1.0928
2671.668 1.0872 1.0745 1.0896 1.0912 1.0568 1.042 1.0557 1.1154 1.1782 1.206
2690.958 1.1683 1.127 1.0937 1.0294 0.9986 0.9992 0.9967 0.9858 1.0111 0.9849
2710.248 0.9261 0.8985 0.8704 0.9106 0.8677 0.8261 0.8608 0.8261 0.8575 0.8795
2729.538 0.8539 0.9171 0.8827 0.8577 0.9728 1.0375 1.0447 1.04 1.1065 1.0997
2748.828 1.011 0.998 1.0362 0.9893 0.9266 0.907 0.8913 0.8529 0.8614 0.8185
2768.118 0.7352 0.7375 0.79 0.8019 0.7157 0.6984 0.7071 0.7332 0.7094 0.6856
2787.408 0.7157 0.671 0.6585 0.6752 0.61801 0.63489 0.7255 0.7302 0.6718 0.61851
2806.698 0.64039 0.7224 0.7201 0.6897 0.6941 0.7206 0.6671 0.61446 0.7083 0.7555
2825.988 0.6733 0.7062 0.7976 0.7397 0.7995 0.8383 0.7281 0.701 0.6936 0.7525
2845.278 0.7902 0.7832 0.8735 0.9153 0.8137 0.7323 0.8208 0.8675 0.8139 0.7688
2864.568 0.8042 0.8866 0.9033 0.8776 0.8876 0.8708 0.8895 0.857 0.8688 0.8922
2883.858 0.8798 0.8812 0.8442 0.8375 0.8494 0.8949 0.8265 0.793 0.7881 0.7668
2903.148 0.7647 0.792 0.7987 0.6927 0.7044 0.8019 0.7737 0.7189 0.65651 0.59961
2922.438 0.6447 0.64342 0.62761 0.64081 0.59393 0.58226 0.58342 0.57187 0.60661 0.65617
2941.728 0.7598 0.7137 0.6578 0.63411 0.58189 0.6685 0.7652 0.7392 0.62228 0.64772
2961.018 0.7477 0.7063 0.62538 0.65275 0.6965 0.6931 0.7236 0.7636 0.7399 0.7576
2980.308 0.7713 0.73 0.7244 0.8787 0.9841 0.9316 0.855 0.8457 0.9219 0.9399
2999.598 0.8552 0.8831 0.9752 0.9532 0.9361 0.9518 0.8997 0.8563 0.845 0.8066
3018.888 0.8683 0.8835 0.8954 1.0075 1.1607 1.2245 1.342 1.648 1.968 2.248
3038.178 2.688 3.268 3.868 4.528 5.348 6.128 6.548 6.758 6.768 6.498
3057.468 5.938 5.348 4.868 4.368 3.948 3.758 3.748 3.938 4.258 4.558
3076.758 4.888 5.288 5.598 5.608 5.268 4.768 4.148 3.538 3.058 2.738
3096.048 2.658 2.658 2.648 2.658 2.608 2.518 2.468 2.448 2.408 2.298
3115.338 2.128 2.008 1.948 1.818 1.678 1.5169 1.3706 1.1929 1.0498 0.925
3134.628 0.7995 0.823 0.7702 0.7515 0.6927 0.5133 0.525 0.4722 0.448 0.5103
3153.918 0.496 0.4787 0.391 0.354 0.423 0.5357 0.60891 0.4954 0.389 0.389
3173.208 0.387 0.396 0.41 0.405 0.402 0.372 0.32 0.281 0.227 0.225
3192.498 0.344 0.409 0.352 0.382 0.457 0.5383 0.5308 0.4862 0.4683 0.395
3211.788 0.376 0.41 0.443 0.435 0.456 0.536 0.60179 0.59999 0.61704 0.62988
3231.078 0.684 0.7523 0.6684 0.55499 0.457 0.41 0.336 0.297 0.351 0.404
3250.368 0.382 0.34 0.371 0.357 0.232 0.161 0.283 0.246 0.126 0.151
3269.658 0.298 0.337 0.183 0.213 0.216 0.102 0.105 0.101 0.071 0.083
3288.948 0.154 0.263 0.195 0.167 0.294 0.291 0.252 0.139 0.147 0.319
3308.238 0.222 0.087 0.076 0.158 0.153 0.144 0.252 0.29 0.246 0.136
3327.528 0.121 0.106 0.139 0.241 0.254 0.134 0.066 0.137 0.162 0.174
3346.818 0.173 0.128 0.124 0.144 0.099 0.009 0.081 0.25 0.219 0.172
3366.108 0.137 0.114 0.069 0 0.022 0.033 0.046 0.022 0.04 0.096
3385.398 0.067 0.084 0.07 0.082 0.102 0.128 0.149 0.1 0.047 0.054
3404.688 0.105 0.076 0.059 0.061 0.067 0.063 0.125 0.204 0.181 0.103
3423.978 0.092 0.144 0.244 0.297 0.405 0.5138 0.6798 0.9219 1.0321 1.0585
3443.269 1.0937 1.1583 1.0468 0.8974 0.8297 0.7346 0.63167 0.57312 0.44 0.337
3462.559 0.402 0.453 0.404 0.365 0.274 0.227 0.278 0.236 0.203 0.173
3481.849 0.173 0.188 0.236 0.217 0.201 0.251 0.272 0.261 0.236 0.268
3501.139 0.311 0.233 0.186 0.248 0.279 0.314 0.29 0.264 0.265 0.213
3520.429 0.213 0.207 0.247 0.249 0.161 0.165 0.259 0.394 0.294 0.247
3539.719 0.394 0.416 0.344 0.343 0.437 0.5079 0.425 0.315 0.413 0.55414
3559.009 0.5069 0.444 0.425 0.452 0.57183 0.5465 0.4729 0.456 0.4693 0.4751
3578.299 0.448 0.458 0.4597 0.59347 0.6934 0.7244 0.8849 0.9675 0.998 1.1508
3597.589 1.5098 1.808 2.028 2.398 2.878 3.588 4.668 5.998 7.558 9.528
3616.879 12.328 16.288 21.238 27.488 35.188 43.448 51.408 57.118 59.018 57.388
3636.169 52.808 45.768 36.648 27.128 18.968 13.068 8.948 5.998 4.228 3.208
3655.459 2.568 2.058 1.678 1.4035 1.228 1.1013 1.1194 1.1274 0.9981 0.8617
3674.749 0.7776 0.7729 0.7574 0.7252 0.63005 0.54869 0.64667 0.64974 0.65206 0.7463
3694.039 0.6743 0.58496 0.663 0.6891 0.62018 0.57247 0.61396 0.6781 0.65378 0.62836
3713.329 0.541 0.454 0.416 0.476 0.5357 0.57548 0.60796 0.58756 0.4867 0.359
3732.619 0.362 0.398 0.436 0.412 0.366 0.39 0.4646 0.387 0.276 0.332
3751.909 0.341 0.284 0.261 0.294 0.313 0.298 0.231 0.182 0.242 0.293
3771.199 0.317 0.368 0.422 0.39 0.356 0.441 0.455 0.392 0.328 0.264
3790.489 0.35 0.414 0.299 0.243 0.236 0.244 0.267 0.27 0.308 0.287
3809.779 0.374 0.5067 0.388 0.329 0.265 0.213 0.294 0.444 0.58681 0.468
3829.069 0.361 0.449 0.4613 0.371 0.335 0.45 0.4756 0.381 0.425 0.4
3848.359 0.425 0.421 0.397 0.456 0.431 0.425 0.4763 0.567125 0.64828 0.63121
3867.649 0.5468 0.5086 0.448 0.405 0.5011 0.4992 0.369 0.409 0.55084 0.5468
3886.939 0.4778 0.463 0.5043 0.5276 0.4663 0.5343 0.57961 0.62001 0.6367 0.5262
3906.229 0.4931 0.463 0.441 0.438 0.413 0.55279 0.57586 0.409 0.412 0.5052
3925.519 0.5002 0.4735 0.5362 0.56871 0.5839 0.59534 0.4677 0.4782 0.57306 0.61671
3944.809 0.6316 0.5238 0.5148 0.5375 0.560234 0.60617 0.5223 0.399 0.4821 0.61957
3964.099 0.6871 0.6804 0.5441 0.5143 0.5069 0.5473 0.57965 0.418 0.4946 0.678
3983.389 0.7333 0.6903 0.64763 0.5455 0.5394 0.6072 0.58315 0.5415 0.56887 0.7555
##END=
