##TITLE=Phenyl-p-benzoquinone
##JCAMP-DX=4.24
##DATA TYPE=INFRARED SPECTRUM
##ORIGIN=EPA-IR VAPOR PHASE LIBRARY
##OWNER=SRD/NIST
Collection (C) 2018 copyright by the U.S. Secretary of Commerce
on behalf of the United States of America. All rights reserved.
##CAS REGISTRY NO=363-03-1
##MOLFORM=C 12 H 8 O 2
##$NIST SOURCE=MSDC-IR
##STATE=gas
##XUNITS=1/CM
##YUNITS=ABSORBANCE
##XFACTOR=1.
##YFACTOR=0.001
##DELTAX=1.92898
##FIRSTX=549.8
##LASTX=4000.7
##FIRSTY=3.587
##MAXX=4000.7
##MINX=549.759
##MAXY=0.238007
##MINY=0
##NPOINTS=1790
##XYDATA=(X++(Y..Y))
549.759 3.587 3.067 2.367 2.057 2.347 2.367 2.197 1.717 1.517 1.637
569.049 1.667 1.847 1.467 1.1727 1.2315 0.9699 0.9928 0.8516 0.6112 0.9516
588.339 1.307 1.477 1.677 1.967 2.387 2.797 3.317 3.987 4.557 5.287
607.628 6.297 7.037 6.987 6.517 5.897 5.087 4.507 4.057 3.517 3.117
626.918 2.877 2.477 2.277 2.077 1.737 1.667 1.577 1.467 1.597 1.827
646.208 1.827 1.957 2.237 2.357 2.527 2.857 3.237 3.627 4.387 5.177
665.498 5.877 7.007 8.377 9.417 10.657 12.207 13.817 15.827 18.407 21.467
684.787 24.507 27.507 30.247 32.427 33.197 31.957 29.857 27.627 24.827 21.757
704.077 18.837 15.937 13.357 11.377 9.797 8.417 7.527 6.867 6.467 6.537
723.367 6.787 7.257 8.487 10.127 11.887 14.027 16.227 18.387 20.367 21.897
742.657 22.267 21.617 20.607 18.607 16.017 13.707 11.737 9.887 8.277 7.047
761.947 6.027 5.237 4.557 4.037 3.927 3.837 3.747 3.407 3.047 3.137
781.236 3.267 3.297 3.407 3.437 3.297 3.287 3.427 3.527 3.367 3.007
800.526 2.907 2.997 3.107 3.197 3.127 3.337 3.867 4.487 5.297 6.667
819.816 8.707 11.327 14.517 17.677 20.847 23.907 26.497 28.837 30.147 29.157
839.106 25.927 22.117 18.757 15.707 12.747 9.997 7.647 5.927 4.767 3.947
858.395 3.437 2.937 2.767 2.887 2.977 2.877 2.767 2.847 3.027 3.097
877.685 3.187 3.467 3.707 4.137 4.707 5.547 6.807 8.647 11.017 13.877
896.975 17.197 20.897 24.777 28.587 32.917 37.567 40.097 38.187 34.297 31.137
916.265 27.667 23.557 19.357 15.197 11.477 8.537 6.397 4.917 3.867 3.117
935.555 2.427 1.837 1.727 1.807 1.737 1.757 1.917 2.187 2.417 2.557
954.844 2.737 3.127 3.837 4.707 5.987 7.477 9.417 11.977 14.407 16.527
974.134 17.887 18.547 18.657 17.827 15.937 13.467 11.107 9.067 7.547 6.747
993.424 6.597 6.947 7.437 7.687 7.637 7.237 6.747 6.067 4.757 3.557
1012.714 3.037 2.767 2.647 2.787 2.857 2.687 3.007 3.347 3.427 3.357
1032.003 3.287 3.407 3.267 3.517 3.267 3.097 3.417 3.527 3.717 3.937
1051.293 4.507 5.097 5.727 6.617 7.397 8.177 9.167 10.227 11.517 12.797
1070.583 14.277 16.357 18.857 22.537 28.597 36.627 46.097 54.867 59.387 60.737
1089.873 60.507 57.887 51.317 41.037 30.317 22.067 16.547 12.757 9.737 7.317
1109.163 5.937 4.937 4.127 3.417 3.127 2.907 2.317 2.257 2.317 2.167
1128.452 1.977 1.657 1.657 1.637 1.457 1.487 1.517 1.337 1.447 1.647
1147.742 1.577 1.777 1.937 1.747 2.047 2.387 2.117 2.107 2.537 2.897
1167.032 3.487 4.557 5.777 7.187 9.287 11.717 13.737 15.157 15.897 16.067
1186.322 15.227 13.527 11.807 10.087 8.097 6.357 5.407 4.967 5.147 5.247
1205.611 4.867 5.007 5.327 5.367 5.467 6.047 6.357 6.607 7.117 7.287
1224.901 7.737 8.397 8.707 9.437 10.797 12.347 13.757 14.957 16.397 17.697
1244.191 19.087 20.307 21.087 22.107 23.527 25.167 27.177 29.777 33.047 36.867
1263.481 40.847 45.097 49.387 53.427 57.217 60.717 64.147 67.407 69.847 70.967
1282.771 70.777 69.287 66.247 61.297 54.767 47.427 40.007 33.667 29.207 26.527
1302.060 24.937 23.957 23.397 22.987 22.517 21.817 21.097 20.477 20.007 19.857
1321.350 20.157 20.767 21.547 22.337 22.877 23.017 22.827 22.237 21.197 19.507
1340.640 17.307 15.237 13.367 11.527 9.737 8.247 7.147 6.367 5.817 5.467
1359.930 5.287 5.267 5.437 5.677 6.007 6.307 6.507 6.617 6.467 6.167
1379.219 5.707 5.087 4.347 3.717 3.217 2.887 2.657 2.497 2.437 2.387
1398.509 2.357 2.327 2.307 2.247 2.217 2.177 2.127 2.137 2.097 2.077
1417.799 2.157 2.257 2.347 2.497 2.717 3.007 3.447 3.977 4.647 5.467
1437.089 6.417 7.377 8.177 8.797 9.107 9.017 8.657 8.087 7.317 6.457
1456.378 5.537 4.707 4.197 3.807 3.527 3.317 3.187 3.137 3.127 3.127
1475.668 3.177 3.467 4.037 4.847 5.967 7.507 9.177 10.717 11.897 12.347
1494.958 12.267 11.837 11.037 9.657 8.047 6.837 5.887 5.287 4.947 4.737
1514.248 4.587 4.367 4.157 4.047 3.927 3.727 3.607 3.637 3.697 3.637
1533.538 3.637 3.797 3.947 4.017 4.127 4.317 4.467 4.607 4.847 5.137
1552.827 5.487 5.967 6.457 7.167 8.147 9.277 10.587 12.017 13.617 15.237
1572.117 16.877 18.467 20.327 22.427 24.727 27.637 30.897 34.277 37.357 39.507
1591.407 40.467 40.217 38.717 35.897 32.097 28.017 24.287 21.257 19.027 17.397
1610.697 15.937 14.787 14.067 13.417 12.977 12.647 12.517 12.447 12.447 12.747
1629.986 13.237 13.927 14.857 16.057 17.677 19.857 22.787 26.527 31.437 37.387
1649.276 44.267 52.227 62.277 73.337 85.157 98.987 114.667 132.697 152.417 173.547
1668.566 195.377 215.817 230.727 238.007 237.487 230.667 216.847 195.967 167.777 136.947
1687.856 110.417 87.657 69.777 56.387 46.097 38.247 32.917 28.487 25.307 22.747
1707.146 20.507 18.617 16.967 15.337 13.927 12.637 11.337 10.177 9.187 8.397
1726.435 7.667 7.017 6.647 6.327 6.067 5.857 5.637 5.527 5.517 5.427
1745.725 5.297 5.147 5.007 4.817 4.647 4.427 4.277 4.167 3.967 3.817
1765.015 3.697 3.587 3.447 3.337 3.307 3.287 3.267 3.287 3.377 3.497
1784.305 3.707 3.997 4.237 4.427 4.587 4.687 4.697 4.657 4.567 4.387
1803.594 4.197 4.097 4.087 4.097 4.087 4.117 4.107 4.007 3.947 3.747
1822.884 3.487 3.317 3.087 2.777 2.487 2.267 2.037 1.867 1.777 1.677
1842.174 1.607 1.587 1.597 1.587 1.617 1.657 1.727 1.807 1.857 1.967
1861.464 2.117 2.237 2.327 2.377 2.437 2.497 2.507 2.577 2.617 2.637
1880.754 2.637 2.587 2.577 2.657 2.637 2.547 2.477 2.337 2.227 2.127
1900.043 2.007 1.907 1.727 1.537 1.467 1.317 1.1734 1.152 1.1016 1.1286
1919.333 1.1926 1.232 1.317 1.347 1.407 1.557 1.687 1.837 2.017 2.167
1938.623 2.267 2.377 2.417 2.447 2.497 2.517 2.527 2.457 2.487 2.597
1957.913 2.667 2.677 2.697 2.657 2.527 2.387 2.157 1.897 1.587 1.287
1977.202 1.2142 1.1497 1.0216 0.9263 0.8698 0.8544 0.8325 0.7997 0.7094 0.6411
1996.492 0.5989 0.5711 0.6008 0.5939 0.6313 0.6161 0.5789 0.6379 0.6795 0.6774
2015.782 0.6273 0.5382 0.5001 0.5419 0.5248 0.5176 0.5696 0.556 0.5643 0.5924
2035.072 0.5578 0.535 0.5523 0.5524 0.4807 0.4131 0.4557 0.49 0.4967 0.4025
2054.362 0.391 0.5217 0.5188 0.4702 0.5041 0.6152 0.5672 0.5168 0.5825 0.5971
2073.651 0.6028 0.6392 0.7072 0.7444 0.7267 0.6893 0.6984 0.7697 0.8056 0.8844
2092.941 0.8903 0.795 0.8265 0.879 0.8307 0.8419 0.8678 0.843 0.8943 0.9037
2112.231 0.8497 0.8471 0.8746 0.8554 0.797 0.7915 0.7592 0.6867 0.6477 0.667
2131.521 0.7031 0.7065 0.7347 0.6532 0.5809 0.6255 0.5825 0.5927 0.6091 0.5621
2150.810 0.5697 0.5486 0.5843 0.5931 0.6295 0.7545 0.6781 0.6451 0.7224 0.7025
2170.100 0.674 0.762 0.7709 0.702 0.7883 0.7906 0.7523 0.7716 0.7833 0.781
2189.390 0.7338 0.7599 0.7428 0.73 0.8214 0.8688 0.7905 0.7005 0.678 0.6896
2208.680 0.6727 0.6292 0.6479 0.6527 0.6598 0.6466 0.6326 0.6452 0.5813 0.5147
2227.970 0.4971 0.4985 0.4401 0.4992 0.6022 0.5429 0.4866 0.4676 0.491 0.6136
2247.259 0.5546 0.3815 0.4678 0.5757 0.5655 0.5564 0.6049 0.6081 0.6205 0.7123
2266.549 0.7574 0.7199 0.791 0.9261 0.8166 0.6954 0.7169 0.7542 0.8098 0.7614
2285.839 0.6965 0.6615 0.6694 0.7095 0.6085 0.5171 0.5575 0.5865 0.5985 0.5941
2305.129 0.6171 0.6041 0.5825 0.6377 0.7151 0.7903 0.758 0.7226 0.8365 0.9329
2324.418 0.8782 0.7437 0.7423 0.7876 0.7959 0.8635 0.8554 0.8548 0.8249 0.8975
2343.708 1.0567 1.0693 1.0209 0.9212 0.9696 0.9893 0.8569 0.8155 0.7812 0.6597
2362.998 0.635 0.6806 0.6376 0.6087 0.6688 0.6103 0.5291 0.5941 0.564 0.568
2382.288 0.5979 0.6076 0.4707 0.31754 0.3892 0.4742 0.5259 0.5193 0.44 0.4212
2401.578 0.5087 0.508 0.474 0.5606 0.6637 0.6508 0.6179 0.6594 0.6939 0.7231
2420.867 0.734 0.7318 0.6843 0.6381 0.7521 0.77 0.6537 0.5881 0.6058 0.6167
2440.157 0.5577 0.5554 0.6302 0.6753 0.5621 0.4833 0.5018 0.5621 0.6562 0.6564
2459.447 0.6459 0.6881 0.6468 0.5385 0.5252 0.5555 0.5424 0.5805 0.6034 0.5609
2478.737 0.5055 0.5205 0.5762 0.5057 0.4729 0.5264 0.5118 0.5397 0.4725 0.403
2498.026 0.5478 0.5274 0.3677 0.4086 0.5256 0.6046 0.6289 0.6492 0.7434 0.7482
2517.316 0.7094 0.6728 0.6721 0.6111 0.522 0.5526 0.6066 0.625 0.6802 0.7259
2536.606 0.7734 0.7718 0.7481 0.7161 0.6842 0.7693 0.828 0.8253 0.7527 0.731
2555.896 0.7876 0.7558 0.7055 0.7812 0.8012 0.7121 0.6472 0.6176 0.6298 0.5902
2575.186 0.5503 0.6425 0.6649 0.6582 0.6328 0.5373 0.6 0.7367 0.6724 0.5089
2594.475 0.515 0.6191 0.808 0.8435 0.6249 0.6338 0.6526 0.601 0.6209 0.6213
2613.765 0.5866 0.4225 0.355 0.354 0.27134 0.3707 0.4825 0.4002 0.3719 0.5048
2633.055 0.4863 0.4624 0.4925 0.4878 0.5074 0.5566 0.562 0.4781 0.4337 0.3698
2652.345 0.3746 0.4242 0.4177 0.4365 0.4877 0.4359 0.2853 0.245124 0.30906 0.32929
2671.634 0.31763 0.3606 0.4621 0.5095 0.4783 0.3921 0.3695 0.3587 0.4113 0.4648
2690.924 0.4606 0.419 0.355 0.4304 0.5043 0.6381 0.6204 0.508 0.5267 0.4895
2710.214 0.4826 0.5708 0.6394 0.5916 0.4705 0.31168 0.29286 0.3719 0.3788 0.30777
2729.504 0.2189 0.2207 0.27766 0.3776 0.4817 0.4586 0.4229 0.4648 0.4177 0.3601
2748.794 0.3977 0.4667 0.4616 0.4624 0.4652 0.4513 0.4113 0.392 0.5039 0.4972
2768.083 0.561 0.5906 0.566 0.5078 0.5627 0.6077 0.4009 0.4028 0.489 0.4707
2787.373 0.4138 0.4001 0.415 0.4765 0.4968 0.4123 0.3723 0.4266 0.3834 0.3635
2806.663 0.4187 0.3848 0.3515 0.3654 0.4312 0.5549 0.5954 0.5406 0.5594 0.6583
2825.953 0.6643 0.5429 0.5525 0.7479 0.8084 0.8405 1.0481 1.046 0.9766 0.966
2845.242 1.0183 1.0195 1.0777 1.1763 1.1398 0.9611 0.8574 0.9296 0.9084 1.0171
2864.532 1.0779 1.1395 1.1156 1.0657 1.0875 1.0518 1.0637 1.0756 1.1845 1.1854
2883.822 1.0806 1.0482 1.0524 0.9938 0.9691 0.8871 0.8508 0.9411 0.8932 0.9331
2903.112 0.9505 0.9234 1.0169 1.0516 1.0003 1.0461 0.9185 0.8639 1.0139 1.048
2922.401 0.9734 0.9262 0.9405 1.0357 1.0567 1.0359 1.0868 1.0058 1.0343 1.0377
2941.691 1.0086 0.8959 0.7924 0.8727 0.8391 0.6734 0.7057 0.7737 0.711 0.8689
2960.981 1.0236 0.9588 0.9049 0.8875 0.8841 1.055 1.1921 1.1478 1.1191 1.1079
2980.271 1.1052 1.1391 1.2067 1.257 1.277 1.257 1.247 1.267 1.307 1.437
2999.561 1.647 1.747 1.867 2.067 2.237 2.507 2.837 3.177 3.387 3.707
3018.850 4.207 4.817 5.627 6.317 7.027 7.737 8.437 9.247 10.117 10.757
3038.140 10.997 11.107 11.257 11.487 11.357 11.047 11.047 11.217 11.747 12.897
3057.430 14.767 17.327 20.097 22.807 25.047 26.567 27.417 27.177 26.007 24.167
3076.720 21.777 19.237 17.037 15.507 14.517 13.847 13.317 12.867 12.287 11.447
3096.009 10.727 10.027 9.167 8.297 7.507 6.907 6.347 5.547 4.957 4.657
3115.299 4.167 3.637 3.037 2.397 2.027 1.707 1.537 1.467 1.457 1.447
3134.589 1.437 1.367 1.1928 1.317 1.457 1.277 1.2224 1.257 1.1271 1.1478
3153.879 1.357 1.437 1.257 0.9938 0.8667 0.9193 0.878 0.9472 0.9618 0.8738
3173.169 0.8345 0.7193 0.7686 0.7912 0.7275 0.7323 0.8479 0.9421 1.0005 0.9793
3192.458 0.8348 1.0024 1.1216 0.9325 0.8367 0.7473 0.7298 0.7198 0.6574 0.7521
3211.748 0.6908 0.8057 0.8092 0.6512 0.679 0.5485 0.4749 0.5768 0.4268 0.4515
3231.038 0.6318 0.6373 0.6674 0.5474 0.5682 0.6803 0.6463 0.6998 0.9239 0.8607
3250.328 0.7827 0.8611 0.8739 0.9312 1.0077 1.155 1.327 1.487 1.507 1.487
3269.617 1.727 2.047 2.197 2.267 2.427 2.767 2.937 2.997 2.997 2.847
3288.907 2.977 3.027 2.857 2.697 2.457 2.477 2.677 2.627 2.657 2.917
3308.197 3.147 3.187 3.347 3.607 3.977 4.347 4.577 4.627 4.567 4.907
3327.487 5.047 4.877 4.807 4.717 4.427 4.137 3.927 3.677 3.327 2.827
3346.777 2.687 2.477 2.097 2.087 2.027 1.787 1.507 1.347 1.437 1.517
3366.066 1.427 1.317 1.0508 0.7862 0.8735 0.8889 0.8008 0.8776 0.9301 0.8923
3385.356 0.7897 0.6429 0.6089 0.6306 0.5164 0.5933 0.733 0.7049 0.5102 0.30859
3404.646 0.464 0.5291 0.4999 0.5521 0.4454 0.3381 0.30115 0.27998 0.33213 0.4602
3423.936 0.5731 0.4456 0.3654 0.4595 0.4798 0.4762 0.31353 0.2674 0.6262 0.6819
3443.225 0.26857 0.2855 0.4492 0.3803 0.1813 0.2142 0.4169 0.3732 0.30141 0.191
3462.515 0.11 0.25966 0.5435 0.5275 0.4738 0.5372 0.5017 0.4996 0.3939 0.1482
3481.805 0.11 0.25138 0.342 0.240153 0.2001 0.32703 0.27004 0.065 0.106 0.2024
3501.095 0.1755 0.2236 0.3977 0.4767 0.3548 0.4151 0.3936 0.2241 0.3899 0.4738
3520.385 0.3871 0.5215 0.3767 0.1526 0.3765 0.4464 0.3759 0.2135 0.083 0.1901
3539.674 0.3584 0.474 0.6376 0.536 0.4023 0.5739 0.6029 0.5905 0.5166 0.4946
3558.964 0.3828 0.25486 0.3701 0.3582 0.25854 0.30058 0.3575 0.3773 0.3882 0.3732
3578.254 0.4411 0.4084 0.3592 0.3544 0.2895 0.427 0.3464 0.3817 0.5612 0.29771
3597.544 0.1824 0.1957 0.088 0.240658 0.32222 0.33583 0.6014 0.3909 0.1544 0.4069
3616.833 0.485 0.4107 0.4558 0.3643 0.186 0.26243 0.3633 0.2351 0.134 0.359
3636.123 0.4802 0.4105 0.4892 0.4661 0.4874 0.5644 0.419 0.26887 0.3876 0.57
3655.413 0.6715 0.6096 0.3554 0.23045 0.173 0.29253 0.4587 0.4319 0.3595 0.4506
3674.703 0.6052 0.5848 0.637 0.6917 0.5949 0.572 0.5922 0.6078 0.4486 0.3373
3693.993 0.3645 0.4061 0.4557 0.372 0.3672 0.3538 0.33667 0.4787 0.5742 0.6596
3713.282 0.7303 0.5528 0.31916 0.3635 0.4727 0.5422 0.4396 0.4585 0.7808 0.7355
3732.572 0.3543 0.218 0.3747 0.5634 0.5787 0.597 0.8247 0.6827 0.5489 0.5805
3751.862 0.648 0.5848 0.572 0.8183 0.8545 0.6623 0.4237 0.32216 0.1803 0.29536
3771.152 0.464 0.3896 0.3402 0.5625 0.7225 0.4237 0.32911 0.5379 0.3616 0.116
3790.441 0.093 0.32333 0.4744 0.3817 0.4093 0.4592 0.5629 0.4674 0.30983 0.5384
3809.731 0.4659 0.33642 0.3771 0.3581 0.3987 0.28672 0.2233 0.4128 0.4965 0.27122
3829.021 0.3232 0.3739 0.3611 0.5147 0.5051 0.4693 0.4435 0.31156 0.4375 0.5932
3848.311 0.5855 0.597 0.5447 0.509 0.559 0.5707 0.5841 0.6735 0.7889 0.7878
3867.601 0.7102 0.684 0.6483 0.6725 0.6247 0.3922 0.29127 0.3927 0.4438 0.4998
3886.890 0.4038 0.2232 0.3803 0.4273 0.4107 0.379 0.3809 0.4132 0.349 0.5975
3906.180 0.6751 0.5141 0.5666 0.5499 0.5005 0.4917 0.4578 0.3656 0.28837 0.4472
3925.470 0.7587 0.7028 0.6323 0.647 0.4231 0.4264 0.4425 0.3503 0.31495 0.1556
3944.760 0.086 0.3595 0.3153 0.27937 0.3972 0.41 0.4525 0.5184 0.6345 0.643
3964.049 0.4301 0.1942 0.1812 0.047 0 0.25863 0.502 0.5977 0.632 0.5763
3983.339 0.4021 0.3792 0.26489 0.31833 0.591 0.4659 0.3644 0.5752 0.6173 0.4403
##END=
