##TITLE=Propylstearate
##JCAMP-DX=4.24
##DATA TYPE=INFRARED SPECTRUM
##ORIGIN=NIST Mass Spectrometry Data Center
##OWNER=NIST Standard Reference Data Program
Collection (C) 2018 copyright by the U.S. Secretary of Commerce
on behalf of the United States of America. All rights reserved.
##CAS REGISTRY NO=3634-92-2
##MOLFORM=C 21 H 42 O 2
##$NIST SOURCE=MSDC-IR
##SPECTROMETER/DATA SYSTEM=HP-GC/MS/IRD
##STATE=gas
##XUNITS=1/CM
##YUNITS=ABSORBANCE
##XFACTOR=1.0
##YFACTOR=0.000005300
##DELTAX=4.0
##FIRSTX=550.0
##LASTX=3846.0
##FIRSTY=0.000053
##MAXX=3846
##MINX=550
##MAXY=0.053
##MINY=0
##NPOINTS=825
##XYDATA=(X++(Y..Y))
550.0 10 17 6 0 11 11 23 34 36 32
590.0 27 28 32 36 40 42 39 45 48 39
630.0 39 43 40 34 32 35 43 42 36 31
670.0 32 48 50 50 54 55 68 89 106 130
710.0 153 166 173 177 177 166 154 140 133 136
750.0 133 125 129 128 121 115 105 104 105 104
790.0 91 84 85 84 80 80 85 83 80 81
830.0 81 88 97 99 101 101 101 98 105 119
870.0 121 121 127 133 140 144 155 164 169 175
910.0 174 175 176 169 162 164 170 179 194 213
950.0 235 260 290 325 353 379 402 411 406 396
990.0 387 379 372 363 347 327 305 286 276 274
1030.0 293 318 353 386 417 452 499 553 585 589
1070.0 574 548 533 532 538 554 574 597 632 669
1110.0 714 754 775 793 826 893 1003 1148 1314 1490
1150.0 1658 1800 1913 1997 2042 2030 1969 1877 1763 1644
1190.0 1537 1443 1371 1321 1284 1261 1256 1258 1269 1288
1230.0 1305 1308 1301 1277 1228 1163 1089 1015 953 895
1270.0 850 810 769 739 719 703 684 666 655 650
1310.0 643 632 611 586 570 573 593 632 669 704
1350.0 731 729 695 642 581 527 492 476 464 442
1390.0 415 383 341 298 267 250 252 270 297 332
1430.0 373 418 474 545 639 738 840 935 964 905
1470.0 775 615 473 364 289 236 196 166 146 133
1510.0 119 108 100 93 83 78 74 76 74 68
1550.0 67 66 70 64 58 56 51 52 49 45
1590.0 48 48 47 47 44 44 43 44 44 43
1630.0 42 44 48 49 52 59 58 58 64 65
1670.0 70 76 84 99 111 122 145 175 207 244
1710.0 292 352 424 518 648 842 1124 1507 1989 2502
1750.0 2885 2930 2580 2027 1485 1060 758 556 420 326
1790.0 257 206 170 140 117 101 87 78 68 61
1830.0 58 52 47 46 45 41 38 35 35 38
1870.0 34 30 30 28 26 29 29 27 26 24
1910.0 25 26 27 26 27 28 25 24 26 27
1950.0 26 25 25 24 24 23 20 21 25 26
1990.0 24 25 26 25 26 26 28 30 31 30
2030.0 33 33 34 33 29 27 28 30 27 27
2070.0 28 26 24 23 24 23 21 20 18 17
2110.0 16 16 17 15 13 13 16 17 17 15
2150.0 15 16 15 14 13 11 14 15 15 13
2190.0 13 14 13 12 12 13 12 12 14 14
2230.0 15 13 9 10 11 12 10 9 10 9
2270.0 9 11 13 13 11 11 13 12 9 8
2310.0 10 9 10 15 16 12 10 13 15 13
2350.0 10 13 14 10 9 8 6 6 5 8
2390.0 7 8 9 8 9 11 11 8 5 5
2430.0 7 7 5 4 3 2 1 5 4 5
2470.0 6 6 7 7 9 9 8 6 6 8
2510.0 9 11 14 14 16 17 17 20 20 19
2550.0 19 21 21 20 18 22 27 24 25 28
2590.0 32 38 42 41 42 44 45 49 51 52
2630.0 53 53 57 62 63 68 70 70 76 81
2670.0 84 89 94 97 95 94 91 89 87 85
2710.0 83 81 87 91 89 94 102 104 106 114
2750.0 118 121 125 126 127 136 147 158 171 184
2790.0 201 217 235 256 281 307 338 384 435 489
2830.0 555 644 763 945 1230 1698 2399 3189 3672 3595
2870.0 3163 2701 2373 2201 2134 2132 2207 2393 2698 3124
2910.0 3672 4378 5356 6740 8425 9769 10000 9090 7643 6196
2950.0 5003 4158 3653 3401 3250 3044 2732 2385 2028 1658
2990.0 1315 1035 824 676 562 474 412 364 321 285
3030.0 256 230 213 194 179 168 155 144 132 122
3070.0 113 106 99 96 93 87 83 77 71 65
3110.0 65 64 61 63 62 56 52 46 46 47
3150.0 43 45 42 42 42 39 40 35 27 28
3190.0 30 32 31 28 26 27 23 20 15 13
3230.0 18 18 16 12 14 14 10 10 8 8
3270.0 11 14 12 8 9 9 7 6 4 2
3310.0 4 8 10 13 10 5 6 7 7 7
3350.0 6 6 5 0 1 6 10 13 14 13
3390.0 13 17 18 17 20 15 9 8 15 20
3430.0 15 15 13 8 14 16 19 20 18 21
3470.0 25 29 31 33 38 38 34 26 19 16
3510.0 17 21 16 12 11 9 6 0 6 13
3550.0 11 12 12 14 17 18 19 14 11 18
3590.0 24 25 20 14 17 17 20 24 24 22
3630.0 28 30 25 21 23 27 26 26 24 26
3670.0 27 23 21 18 20 21 18 20 22 19
3710.0 20 22 24 25 23 21 27 29 30 35
3750.0 34 28 24 24 26 25 24 24 27 28
3790.0 32 33 33 35 35 35 38 41 39 35
3830.0 35 41 41 39 40
##END=
