##TITLE=4-Ethoxy-3-methoxyphenethylamine
##JCAMP-DX=4.24
##DATA TYPE=INFRARED SPECTRUM
##ORIGIN=EPA-IR VAPOR PHASE LIBRARY
##OWNER=SRD/NIST
Collection (C) 2018 copyright by the U.S. Secretary of Commerce
on behalf of the United States of America. All rights reserved.
##CAS REGISTRY NO=36377-59-0
##MOLFORM=C 11 H 17 N O 2
##$NIST SOURCE=MSDC-IR
##STATE=gas
##XUNITS=1/CM
##YUNITS=ABSORBANCE
##XFACTOR=1.
##YFACTOR=0.001
##DELTAX=1.92898
##FIRSTX=549.8
##LASTX=4000.7
##FIRSTY=6.4399
##MAXX=4000.7
##MINX=549.759
##MAXY=0.15996
##MINY=0
##NPOINTS=1790
##XYDATA=(X++(Y..Y))
549.759 6.4399 6.4299 6.6099 6.6499 6.5299 6.3999 6.4299 6.5099 6.7699 6.8399
569.049 6.6299 6.8299 6.5099 6.2299 6.2799 6.1399 6.1099 6.2499 6.3899 6.1899
588.339 6.0499 6.1699 6.0899 6.0899 6.2899 6.2999 6.1599 6.0499 6.1199 6.2699
607.628 6.2999 6.3899 6.5799 6.8399 6.9099 6.9099 7.0799 7.3499 7.6499 7.9399
626.918 8.5299 9.0299 9.4599 9.7399 9.7699 9.9099 10.0099 9.8899 9.7799 9.6999
646.208 9.3699 9.0699 8.8899 8.6299 8.2799 7.9799 7.7099 7.5999 7.6099 7.6399
665.498 7.5499 7.3999 7.4199 7.6099 7.7599 7.8899 7.9499 8.0599 8.2899 8.4999
684.787 8.8399 9.0599 9.3999 9.8899 10.0399 10.1999 10.6999 11.1499 11.4299 11.7499
704.077 11.9899 12.3099 12.6899 12.9799 13.3299 13.8599 14.5999 15.2299 15.9599 16.9299
723.367 17.9999 19.0699 20.2499 21.3999 22.3299 23.2199 24.0299 24.8699 25.6799 26.3299
742.657 26.8499 27.5699 28.3999 29.1999 30.2399 31.5299 32.7999 34.1499 35.3599 36.6799
761.947 38.2499 39.5699 40.7299 41.8799 42.8199 43.5299 44.0499 44.2799 44.2599 43.8499
781.236 43.1999 42.3299 41.4899 40.9499 40.4999 39.7099 38.9999 38.3499 37.3099 36.3299
800.526 35.1799 33.6899 32.4899 31.3199 29.8599 28.4399 27.4599 26.3599 25.0899 24.0499
819.816 22.8499 21.8199 20.7499 19.6699 18.4899 17.2699 16.1499 15.2299 14.7099 14.2999
839.106 13.9699 13.6399 13.4599 13.4099 13.3499 13.3099 13.1499 12.8899 12.7899 13.0599
858.395 13.4899 13.5799 13.6699 13.9899 14.3299 14.4799 14.4899 14.7599 14.8399 14.7299
877.685 14.7799 14.5899 14.5399 14.6399 14.6499 14.7199 14.6899 14.6999 14.9199 15.0799
896.975 15.1399 15.2499 15.2199 14.9799 14.8399 14.6299 14.1999 13.8299 13.5199 13.3299
916.265 13.0399 12.7299 12.6299 12.5899 12.3999 12.0299 11.8299 11.6099 11.3299 10.8999
935.555 10.4199 9.9699 9.5199 9.1899 8.8299 8.3999 7.9399 7.5899 7.5299 7.5699
954.844 7.3799 7.2199 7.2899 7.4099 7.3699 7.3799 7.4199 7.5699 7.7199 7.9299
974.134 8.2699 8.4799 8.7899 9.2199 9.7499 10.4099 11.1399 11.5799 12.0399 12.8099
993.424 13.4699 14.2399 14.9699 15.8799 16.9799 18.1599 19.5199 21.1299 23.2799 25.7199
1012.714 28.7999 32.7499 37.0699 41.9799 47.7699 54.5999 62.0499 70.1199 78.0999 84.8199
1032.003 90.5399 94.8399 97.1299 97.2099 95.0799 90.9299 85.3399 79.0499 72.3599 65.6699
1051.293 59.6499 54.0599 48.9699 45.0299 42.0099 39.7999 38.3299 36.8199 35.0799 33.6199
1070.583 32.1799 30.5299 29.1899 27.7799 26.3899 25.3399 24.6399 24.6199 24.9599 24.9799
1089.873 24.6599 24.7199 24.7199 24.6199 25.1199 26.2899 27.2599 27.6399 28.9199 31.0299
1109.163 33.5099 36.8099 40.3099 43.7499 47.5899 51.4599 55.0199 58.4399 61.1599 62.2999
1128.452 62.7599 63.0499 62.6199 61.3899 59.6099 57.8499 55.8499 53.8399 52.7399 51.9999
1147.742 51.0399 50.3299 49.7699 48.7799 47.3499 45.5599 42.8799 39.8299 36.9499 33.6599
1167.032 30.3199 27.3899 25.0099 23.0299 21.1299 19.8799 19.5099 19.3399 19.3299 19.6799
1186.322 20.3999 21.3799 22.4299 23.7999 25.1899 27.0199 29.8999 33.1499 37.0199 41.9699
1205.611 47.5099 53.9599 61.4399 69.3499 77.0299 83.8399 89.9299 94.7799 97.5199 98.6399
1224.901 98.4199 96.6599 93.6599 90.0899 86.2899 82.5299 78.9599 75.8399 73.4899 72.2799
1244.191 72.6399 73.9899 77.1199 82.3999 89.3299 97.7699 107.8 118.78 129.79 140.33
1263.481 148.89 155.12 158.96 159.7 157.19 152.1 145.05 136.27 126.52 116.43
1282.771 106.16 96.4099 87.5599 79.6799 73.0699 67.5599 62.8599 58.7599 55.0699 51.6499
1302.060 48.5499 45.5199 42.4999 39.5799 36.8099 34.3499 31.9599 29.7999 27.9899 26.3299
1321.350 24.9299 23.7999 22.8299 22.0399 21.5099 21.0999 20.6699 20.1699 19.6499 19.0899
1340.640 18.4199 17.8399 17.3299 16.8799 16.5799 16.4199 16.3499 16.2599 16.2199 16.1699
1359.930 16.1099 16.1099 16.2299 16.3899 16.6399 17.0699 17.6699 18.4799 19.6099 20.9599
1379.219 22.4599 24.1899 26.1499 28.0999 29.8999 31.3399 32.3599 32.9599 33.1399 33.0099
1398.509 32.8199 32.8699 33.2299 34.1699 35.5799 37.2699 38.8499 39.8999 40.3199 39.8199
1417.799 38.3999 36.1799 33.3899 30.2599 27.2799 24.7999 22.8099 21.4699 20.6299 20.2899
1437.089 20.4899 20.9999 21.7499 22.7699 23.8999 25.0599 26.1999 27.1799 28.1299 29.0899
1456.378 29.8999 30.6799 31.6199 32.8799 34.4699 36.1699 37.9799 39.9999 42.1999 44.5099
1475.668 46.6799 48.5199 49.8599 50.8799 51.8799 53.2999 55.7099 59.6999 65.9499 75.0099
1494.958 86.9099 101.21 116.68 132.12 145.67 155.29 159.96 158.96 152.03 139.75
1514.248 123.94 106.6 89.3699 73.9299 60.4699 49.6899 41.2299 34.7199 29.7699 25.8999
1533.538 22.8999 20.5699 18.8099 17.3899 16.1699 15.2599 14.5299 13.9799 13.6399 13.4999
1552.827 13.5199 13.5099 13.7099 14.1199 14.6599 15.3799 16.2599 17.3499 18.5299 19.7899
1572.117 21.1299 22.3699 23.4299 24.1399 24.5599 24.7199 24.3899 23.8099 23.0799 22.2399
1591.407 21.5399 20.9699 20.6199 20.4699 20.5099 20.7499 21.0199 21.1699 21.1499 21.1699
1610.697 21.1399 20.8999 20.3799 19.6999 18.9799 18.1499 17.2899 16.4999 15.6199 14.6499
1629.986 13.7199 12.7499 11.7599 10.7799 9.9099 9.1999 8.5199 7.8999 7.3799 6.9399
1649.276 6.4899 6.1299 5.7899 5.4399 5.1599 4.9699 4.7699 4.5299 4.3999 4.2599
1668.566 4.1499 4.0299 3.8999 3.8599 3.7199 3.6599 3.6799 3.5699 3.5299 3.5199
1687.856 3.4399 3.4099 3.3499 3.2299 3.1199 3.1199 3.1699 3.1299 3.0899 3.0299
1707.146 2.9999 2.9899 2.9799 2.9699 2.8999 2.8799 2.8899 2.8899 2.7699 2.7099
1726.435 2.7199 2.6699 2.6699 2.6999 2.7199 2.6799 2.6399 2.6599 2.6999 2.7599
1745.725 2.8099 2.7599 2.6999 2.6899 2.7699 2.7699 2.7299 2.7499 2.6699 2.6399
1765.015 2.6199 2.5799 2.5999 2.6099 2.6099 2.5599 2.5499 2.5099 2.4999 2.4999
1784.305 2.4999 2.4599 2.3799 2.3799 2.3699 2.4099 2.4399 2.4199 2.4599 2.4599
1803.594 2.4399 2.4099 2.4199 2.4699 2.4899 2.5099 2.5399 2.5599 2.6099 2.6399
1822.884 2.6199 2.6999 2.7999 2.8099 2.7699 2.7799 2.7899 2.7599 2.8399 2.9099
1842.174 2.9099 2.9399 2.9699 2.9999 3.0499 3.0199 2.9999 3.0699 3.0399 3.0499
1861.464 3.0899 3.0399 3.0599 3.0299 2.9299 2.8399 2.7899 2.7499 2.6699 2.4999
1880.754 2.3999 2.3399 2.2899 2.2599 2.1499 2.1299 2.1599 2.1499 2.1499 2.0899
1900.043 2.0699 2.1199 2.1199 2.1299 2.1599 2.1999 2.1599 2.0899 2.1099 2.1699
1919.333 2.2199 2.2099 2.2099 2.2199 2.2199 2.1999 2.2099 2.2299 2.1699 2.1499
1938.623 2.2099 2.2299 2.2299 2.2399 2.2599 2.2699 2.2799 2.2699 2.2899 2.3499
1957.913 2.4599 2.4599 2.3699 2.3399 2.3599 2.4199 2.4299 2.3899 2.3299 2.2999
1977.202 2.3299 2.3699 2.3799 2.3399 2.3099 2.3199 2.3299 2.2899 2.2799 2.3099
1996.492 2.2899 2.2899 2.3199 2.3199 2.3999 2.4599 2.3799 2.3499 2.3899 2.4099
2015.782 2.3999 2.3799 2.3699 2.3999 2.4599 2.4199 2.4199 2.5099 2.5599 2.5599
2035.072 2.5999 2.6499 2.6899 2.7399 2.7799 2.7499 2.7399 2.7499 2.7599 2.7799
2054.362 2.7199 2.6899 2.7099 2.6399 2.5699 2.5199 2.4499 2.3899 2.3299 2.2899
2073.651 2.2699 2.1999 2.1399 2.0699 1.9699 1.9399 1.9099 1.8199 1.8299 1.7699
2092.941 1.6899 1.6199 1.5499 1.5699 1.5199 1.3899 1.3399 1.3199 1.2499 1.2199
2112.231 1.1999 1.1499 1.1099 1.1399 1.1999 1.1699 1.1299 1.1499 1.1599 1.2099
2131.521 1.2899 1.3199 1.2799 1.3099 1.3299 1.3099 1.2699 1.2399 1.2199 1.2199
2150.810 1.2499 1.2299 1.2199 1.1899 1.1499 1.1599 1.2299 1.1899 1.1399 1.1599
2170.100 1.1399 1.1999 1.2299 1.1999 1.1599 1.1399 1.1699 1.2099 1.2299 1.2399
2189.390 1.2699 1.2999 1.2599 1.1599 1.1499 1.2199 1.2299 1.1699 1.0899 1.0337
2208.680 1.0459 1.0499 1.0071 1.0899 1.1199 1.0356 1.0148 0.966 0.9239 0.9854
2227.970 1.0599 1.0599 1.0999 1.0999 1.0231 1.0599 1.0374 1.0499 1.1499 1.1299
2247.259 1.0599 1.1199 1.1499 1.1199 1.1699 1.1999 1.1899 1.1699 1.2099 1.2799
2266.549 1.2999 1.3299 1.3199 1.3099 1.3699 1.3699 1.3299 1.2999 1.1999 1.2299
2285.839 1.2999 1.1999 1.1499 1.1599 1.1099 1.1499 1.1499 1.1299 1.0699 1.0699
2305.129 1.0599 1.0334 1.0899 1.0499 1.014 1.0599 1.0227 0.9322 0.905 0.9159
2324.418 0.9259 0.894 0.8994 0.956 0.9843 0.9216 0.8795 0.8882 0.9284 0.892
2343.708 0.8354 0.8425 0.8243 0.8612 0.8748 0.9056 0.8951 0.8841 0.8796 0.8698
2362.998 0.8873 0.8569 0.8977 0.907 0.8508 0.8655 0.8452 0.8228 0.8969 0.9287
2382.288 0.9464 0.9516 0.9506 1.0179 1.0495 1.0324 1.0068 0.9748 0.9995 1.0599
2401.578 1.0999 1.1499 1.1699 1.1899 1.2599 1.2599 1.1799 1.2899 1.3499 1.3399
2420.867 1.3899 1.3799 1.3899 1.3699 1.3099 1.2699 1.2699 1.3199 1.3999 1.4499
2440.157 1.3799 1.3099 1.3599 1.3599 1.2399 1.1899 1.2099 1.2799 1.3799 1.3299
2459.447 1.2699 1.2599 1.2599 1.3099 1.3599 1.3399 1.3499 1.3399 1.3499 1.3699
2478.737 1.3399 1.4199 1.4399 1.4099 1.3099 1.2899 1.4699 1.4499 1.4199 1.3399
2498.026 1.2599 1.3799 1.4099 1.3699 1.3999 1.4899 1.5599 1.5199 1.5599 1.5599
2517.316 1.6099 1.7599 1.7399 1.7299 1.7799 1.7599 1.7299 1.7699 1.8299 1.8999
2536.606 1.9599 2.0499 2.1399 2.1499 2.1299 2.1099 2.0699 2.0599 2.1399 2.2199
2555.896 2.1299 2.0799 2.0499 2.0599 2.0999 2.0099 1.9699 1.9699 2.0199 1.9599
2575.186 1.9099 1.8999 1.8599 1.8299 1.8099 1.8099 1.7899 1.7899 1.7799 1.7799
2594.475 1.7899 1.8299 1.7799 1.7699 1.8699 1.7899 1.7199 1.7799 1.7099 1.7099
2613.765 1.7599 1.7099 1.6399 1.6599 1.7099 1.6699 1.6699 1.7299 1.7099 1.6699
2633.055 1.7199 1.7399 1.7199 1.7299 1.7399 1.7299 1.7399 1.7399 1.7699 1.7899
2652.345 1.7999 1.8799 1.9399 1.9099 1.8999 1.9799 2.0299 1.9599 1.9099 2.0199
2671.634 2.0299 1.9999 2.0899 2.1699 2.2199 2.1999 2.2299 2.3299 2.2899 2.1999
2690.924 2.2999 2.4299 2.4899 2.4999 2.5299 2.5999 2.6899 2.7299 2.6899 2.7399
2710.214 2.8899 2.9899 3.0899 3.2199 3.2899 3.3299 3.3499 3.4299 3.5499 3.6599
2729.504 3.7899 3.8599 3.9199 4.0999 4.2399 4.2299 4.2199 4.2799 4.3399 4.3199
2748.794 4.2099 4.1099 4.1499 4.2199 4.2999 4.3599 4.3899 4.4199 4.4599 4.4699
2768.083 4.4999 4.5999 4.6499 4.7199 4.7499 4.7699 4.8399 4.9299 5.0099 5.1199
2787.373 5.2699 5.3599 5.5599 5.8199 6.0099 6.2899 6.5499 6.7499 6.9899 7.4199
2806.663 8.0099 8.4899 9.0399 9.7499 10.5099 11.2799 12.0699 13.0799 14.3099 15.5199
2825.953 16.8899 18.3799 20.0599 21.9399 23.7799 25.6099 27.4799 29.4299 31.2699 32.8699
2845.242 34.3299 35.7599 37.1499 38.2199 39.1599 39.9599 40.4299 40.7099 40.7499 40.8599
2864.532 40.9999 41.0099 41.2599 41.7199 42.2099 42.9599 43.7899 44.3299 44.6099 44.6799
2883.822 44.4299 44.0199 43.5199 42.9399 42.5199 42.3899 42.5999 43.1199 43.9799 45.3599
2903.112 47.2099 49.3699 51.9199 54.7899 57.8399 60.8999 63.8699 66.5999 68.7899 70.6099
2922.401 72.2799 73.8999 75.7399 78.1599 81.1999 84.8399 89.1499 93.3599 96.5599 98.5799
2941.691 98.8099 96.9499 93.5099 88.6199 82.7799 76.4799 70.5199 65.5499 61.2299 57.3999
2960.981 54.4399 52.1699 50.4599 49.4399 48.9499 49.0499 49.6299 50.5699 51.7999 53.1399
2980.271 54.4599 55.2099 55.2299 54.8899 53.9999 52.7099 51.1399 49.1899 47.0699 44.9499
2999.561 42.9199 40.8399 38.6399 36.3699 33.8899 31.3599 28.8499 26.3799 24.0899 22.2099
3018.850 20.8099 19.8599 19.3099 19.0999 19.1599 19.5599 20.0499 20.6599 21.2099 21.3499
3038.140 21.3899 21.2399 20.7699 20.1699 19.4699 18.7899 18.1599 17.4099 16.7799 16.2599
3057.430 15.6599 14.8799 14.0899 13.3499 12.7499 11.9799 11.1699 10.5399 9.7799 9.0999
3076.720 8.5499 8.1599 7.7999 7.3999 7.1899 6.7899 6.3099 6.0199 5.6399 5.4599
3096.009 5.3799 5.2099 4.9499 4.5899 4.4699 4.3699 4.1299 3.9499 3.8699 3.7899
3115.299 3.6899 3.4999 3.3599 3.2699 3.0399 2.8699 2.8499 2.8599 2.7099 2.6199
3134.589 2.4799 2.2199 2.0899 1.9099 1.8799 1.7999 1.6599 1.5699 1.6099 1.7699
3153.879 1.6599 1.5999 1.5699 1.5399 1.6099 1.5499 1.4599 1.3999 1.3699 1.3699
3173.169 1.3099 1.2899 1.2399 1.2699 1.4399 1.4299 1.2299 1.1599 1.1399 1.1099
3192.458 1.1099 1.1299 1.0799 0.9658 1.0212 1.0599 1.0134 1.0899 1.0899 0.9011
3211.748 0.8402 0.8812 0.9242 1.0187 1.0152 0.8734 0.7987 0.8305 0.8778 0.9514
3231.038 0.8961 0.7953 0.8638 0.8634 0.7594 0.7577 0.6891 0.5009 0.4873 0.6129
3250.328 0.5771 0.4194 0.4649 0.6102 0.5474 0.4621 0.5105 0.5044 0.4527 0.5422
3269.617 0.5482 0.4356 0.3665 0.4326 0.4018 0.3743 0.4698 0.508 0.5208 0.3973
3288.907 0.2809 0.3156 0.3047 0.2574 0.4564 0.506 0.3468 0.2459 0.313 0.4174
3308.197 0.3993 0.4855 0.5919 0.5762 0.558 0.5959 0.673 0.6398 0.5679 0.5617
3327.487 0.5338 0.6376 0.6825 0.7818 1.0203 1.0999 1.0799 1.1399 1.1499 1.1699
3346.777 1.1999 1.0999 0.9894 0.9467 0.8719 0.8399 1.0599 1.0137 0.7635 0.5786
3366.066 0.5516 0.6312 0.5555 0.6245 0.7446 0.7118 0.6099 0.5413 0.5255 0.5282
3385.356 0.5562 0.6034 0.5861 0.5791 0.6491 0.6427 0.6374 0.8018 0.872 0.943
3404.646 1.0999 1.1399 1.0699 0.9304 1.0699 1.1299 0.8772 0.7332 0.6628 0.598
3423.936 0.6304 0.5228 0.3966 0.3961 0.4755 0.5678 0.531 0.4618 0.3206 0.3097
3443.225 0.4065 0.3598 0.4155 0.5704 0.5168 0.2694 0.2121 0.4125 0.5056 0.3983
3462.515 0.2623 0.2412 0.4087 0.5532 0.5823 0.3911 0.059394 0.09051 0.289 0.3797
3481.805 0.3907 0.414 0.5012 0.4706 0.425 0.3886 0.3637 0.4372 0.458 0.3898
3501.095 0.4128 0.3423 0.159 0.10124 0.1807 0.2965 0.3267 0.2603 0.2997 0.3235
3520.385 0.3395 0.3906 0.3125 0.29 0.2466 0.212 0.13765 0 0.09427 0.1873
3539.674 0.11766 0.1747 0.1559 0.1973 0.2271 0.1883 0.3652 0.3867 0.2231 0.181
3558.964 0.2434 0.1076 0.0165 0.1166 0.07622 0.1769 0.3468 0.4198 0.3973 0.3154
3578.254 0.3395 0.3495 0.3378 0.1787 0.11876 0.271 0.3782 0.4681 0.3938 0.2677
3597.544 0.1655 0.224 0.3871 0.377 0.2524 0.0386 0.1623 0.2283 0.2349 0.385
3616.833 0.2939 0.3172 0.3333 0.2342 0.1734 0.2046 0.1971 0.12473 0.0304 0.13123
3636.123 0.262 0.3035 0.3016 0.2791 0.3047 0.3489 0.3219 0.2507 0.2446 0.1543
3655.413 0.1735 0.2917 0.4362 0.3609 0.08367 0.11848 0.3317 0.4816 0.459 0.2082
3674.703 0.0974 0.2558 0.4133 0.4305 0.3822 0.2613 0.252 0.3585 0.3731 0.3976
3693.993 0.3995 0.3488 0.3351 0.3343 0.3109 0.2319 0.3106 0.3754 0.4035 0.4545
3713.282 0.4826 0.518 0.3594 0.4545 0.6447 0.6143 0.5393 0.4361 0.4924 0.5458
3732.572 0.4061 0.4264 0.5265 0.5147 0.5302 0.5488 0.4513 0.4354 0.3407 0.2591
3751.862 0.3749 0.3272 0.3829 0.5797 0.6346 0.5167 0.3158 0.272 0.3887 0.3738
3771.152 0.3038 0.3238 0.4567 0.5811 0.5645 0.4932 0.3653 0.291 0.396 0.4493
3790.441 0.3783 0.3728 0.3416 0.3876 0.4693 0.4646 0.5356 0.5794 0.4421 0.3758
3809.731 0.5017 0.573 0.5547 0.4981 0.4008 0.2517 0.2643 0.3797 0.4621 0.5046
3829.021 0.3914 0.3818 0.4313 0.429 0.4148 0.3494 0.382 0.3941 0.3903 0.3818
3848.311 0.3764 0.442 0.5607 0.6207 0.5067 0.3527 0.2943 0.3694 0.5863 0.6442
3867.601 0.4418 0.4592 0.4948 0.4989 0.6758 0.5514 0.3365 0.3705 0.3286 0.2796
3886.890 0.2584 0.2129 0.4265 0.4713 0.3997 0.329 0.3728 0.6079 0.5313 0.4302
3906.180 0.4825 0.4847 0.463 0.3501 0.2981 0.4174 0.4924 0.5323 0.4602 0.4023
3925.470 0.5096 0.5602 0.5196 0.4454 0.4849 0.6629 0.6341 0.6301 0.6173 0.6536
3944.760 0.7237 0.6578 0.5884 0.5247 0.4909 0.5274 0.6248 0.7179 0.7867 0.7153
3964.049 0.6584 0.8122 0.9107 0.7562 0.7355 0.7998 0.8887 0.8213 0.64 0.7716
3983.339 0.8979 0.8249 0.7313 0.701 0.8415 0.8261 0.7765 0.8629 0.97 0.9915
##END=
