##TITLE=p-Butoxybenzylidene p-cyanoaniline
##JCAMP-DX=4.24
##DATA TYPE=INFRARED SPECTRUM
##ORIGIN=EPA-IR VAPOR PHASE LIBRARY
##OWNER=SRD/NIST
Collection (C) 2018 copyright by the U.S. Secretary of Commerce
on behalf of the United States of America. All rights reserved.
##CAS REGISTRY NO=36405-17-1
##MOLFORM=C 18 H 18 N 2 O
##$NIST SOURCE=MSDC-IR
##STATE=gas
##XUNITS=1/CM
##YUNITS=ABSORBANCE
##XFACTOR=1.
##YFACTOR=0.001
##DELTAX=1.92898
##FIRSTX=549.8
##LASTX=4000.7
##FIRSTY=7.3893
##MAXX=4000.7
##MINX=549.759
##MAXY=0.123929
##MINY=0
##NPOINTS=1790
##XYDATA=(X++(Y..Y))
549.759 7.3893 7.5093 7.9493 7.7893 7.4293 7.3593 7.0893 6.9393 6.3293 5.4293
569.049 5.1393 5.1293 4.7893 4.3693 4.1293 3.8793 3.8393 4.1793 4.0293 3.9793
588.339 4.4393 4.6293 4.6793 4.6493 4.7193 4.4793 4.1593 4.1993 3.6893 3.2893
607.628 2.9293 2.5093 2.1693 1.6993 1.6493 1.5793 1.4893 1.4993 1.3893 1.3093
626.918 1.3593 1.2293 1.2193 1.4793 1.4493 1.3793 1.4193 1.1793 0.9568 1.0149
646.208 1.1193 1.0505 0.8157 0.8651 0.9814 0.8622 0.9496 1.0153 0.7887 0.9706
665.498 1.1193 0.9025 1.0861 1.1893 1.1093 1.1593 0.9854 0.9235 1.1993 1.1793
684.787 1.0893 1.2393 1.2993 1.5693 1.8093 1.8393 1.9793 2.1493 2.3693 2.4293
704.077 2.3993 2.5093 2.6193 2.8493 2.8993 2.8493 2.8493 2.8393 2.6093 2.3993
723.367 2.2893 2.0893 1.9893 1.9193 1.9093 1.8693 1.7193 1.5993 1.6693 1.6893
742.657 1.6193 1.6993 1.4993 1.2893 1.5593 1.8393 1.8193 1.6993 1.8193 1.8793
761.947 1.6993 1.6293 1.8093 1.8393 1.6793 1.7893 1.8193 1.7193 1.8493 1.8693
781.236 1.8793 1.9793 2.0393 2.2293 2.2693 2.2993 2.5993 2.8193 3.1993 3.6793
800.526 3.9893 4.2193 4.4393 4.7293 4.8493 5.0793 5.5093 6.2393 7.1293 7.9593
819.816 9.0493 10.3993 11.8393 13.3393 15.1293 17.2593 19.4193 21.2593 22.4893 22.8893
839.106 22.4993 21.1493 19.1693 17.3593 15.5093 13.6493 12.1393 10.8493 9.6593 8.7293
858.395 8.1093 7.4993 7.0193 6.8193 6.8293 6.9493 6.9893 7.1793 7.6693 8.4093
877.685 9.3993 10.8693 12.6093 14.2693 15.8793 16.6593 16.0593 14.3393 12.0893 9.8493
896.975 7.9593 6.5993 5.5893 4.7893 4.2793 4.0293 3.6893 3.3693 2.9993 2.8093
916.265 2.9193 2.7793 2.4893 2.2993 2.0493 2.1893 2.4793 2.4493 2.3493 2.3493
935.555 2.5393 2.5593 2.7093 3.0193 3.2093 3.3893 3.5493 3.8393 4.0693 4.2293
954.844 4.5593 5.0193 5.3193 5.5993 5.9593 6.3193 7.0193 7.8093 8.1293 8.4593
974.134 8.9393 8.9293 8.6493 8.0793 7.2993 6.8893 6.8293 6.5793 6.1893 6.0593
993.424 6.1793 6.4693 6.7893 7.1993 7.7393 8.6893 9.8793 11.1393 12.1493 12.6793
1012.714 13.2593 13.7693 13.9593 14.0593 14.0593 14.0993 14.1093 13.6793 12.7893 12.0593
1032.003 11.4893 10.5093 9.8293 9.2993 8.3793 7.4293 6.4893 5.6693 5.5193 5.6293
1051.293 5.4993 5.5893 5.8193 6.1393 6.9993 7.7193 8.2193 8.3893 8.2093 8.1093
1070.583 8.0393 7.9593 7.5893 7.2793 6.6993 5.5593 4.8693 4.9393 4.8793 4.8993
1089.873 5.1393 5.3793 5.2293 5.0693 5.5593 6.4193 7.1493 7.7893 8.2693 8.2693
1109.163 8.3393 7.9393 7.1093 6.6393 6.2693 6.1693 6.1693 6.0193 6.0793 6.0493
1128.452 5.6093 5.5893 6.1293 6.5493 6.8193 7.3493 7.9693 8.9993 10.1793 11.5093
1147.742 13.5093 16.2093 20.5393 27.7293 39.8593 60.3493 88.1693 113.069 122.409 110.529
1167.032 84.3493 57.9493 38.8693 27.0093 19.7793 15.6093 13.5493 12.6593 12.7193 13.5593
1186.322 15.1793 18.2293 21.8193 24.5093 26.1593 25.7593 23.2993 20.7593 18.6393 16.9293
1205.611 16.6893 17.3693 18.7693 20.3893 22.9193 25.4493 26.6593 28.4193 30.3693 31.6993
1224.901 33.1093 34.8093 36.2893 38.0693 40.6493 44.1493 48.2793 52.8393 57.4793 61.8893
1244.191 66.0093 70.0693 73.5693 75.3393 74.4593 70.9893 65.5893 58.9193 51.8993 44.9193
1263.481 38.4993 33.1593 28.9793 25.3293 22.6093 20.5793 18.8293 17.7593 17.1093 16.8893
1282.771 16.9693 17.3593 18.1993 19.2593 20.3393 21.3593 22.3493 23.4793 25.0693 26.9993
1302.060 28.6693 29.2293 28.2493 25.9893 23.1093 19.9793 17.0593 14.5693 12.5693 11.1393
1321.350 10.0093 9.0993 8.3993 7.9193 7.4993 7.1293 6.7593 6.4393 6.2893 6.1193
1340.640 5.9693 5.8493 5.7293 5.6593 5.5093 5.3493 5.2093 5.0993 5.0193 4.9793
1359.930 4.9993 4.9993 5.0293 5.1693 5.3393 5.4693 5.6793 5.8193 5.9193 6.1693
1379.219 6.5093 6.9793 7.4893 7.9593 8.2993 8.3093 8.1093 7.8393 7.3093 6.7793
1398.509 6.3293 5.8893 5.6493 5.5593 5.6693 6.0093 6.5293 7.3193 8.4893 9.9493
1417.799 11.5093 12.8393 13.3293 12.5993 10.9593 9.0193 7.2993 6.1493 5.4693 5.0193
1437.089 4.7293 4.6493 4.5993 4.5693 4.5593 4.6493 4.8593 5.0993 5.3593 5.6593
1456.378 6.0593 6.4593 7.0293 7.7893 8.8093 10.0593 11.4293 12.8693 14.0893 14.7793
1475.668 14.8193 14.3593 13.6793 13.1693 13.1293 13.8093 15.2993 17.4393 19.8393 21.9793
1494.958 23.6093 25.0293 27.2293 31.0893 37.6093 46.9193 58.4993 69.5293 75.4193 73.0293
1514.248 62.6293 48.5793 35.7693 26.7193 20.7193 16.8693 14.1793 12.1393 10.6293 9.4393
1533.538 8.5793 7.9293 7.5293 7.3893 7.2793 7.4093 7.6593 7.8493 8.2093 8.6293
1552.827 9.1893 10.0093 10.9793 12.3193 14.0893 16.4293 19.4593 23.2593 28.0493 33.8393
1572.117 39.7693 44.3193 46.2093 45.2993 43.4093 43.3693 47.2193 55.4093 67.5693 82.8893
1591.407 99.5793 114.609 123.929 123.829 113.899 97.3493 79.5393 64.7893 53.7093 45.2493
1610.697 38.5293 33.0093 28.6493 25.4993 23.6993 23.3493 24.3593 26.9793 31.3993 37.5393
1629.986 44.9493 52.2493 56.8393 56.6893 51.5493 43.3193 34.6193 27.4793 22.2493 18.3993
1649.276 15.6193 13.6393 12.1193 10.9893 9.9693 9.1693 8.5593 7.9993 7.5193 7.0293
1668.566 6.5793 6.2193 5.8393 5.4393 5.1593 4.7693 4.4793 4.2393 3.9193 3.6893
1687.856 3.4593 3.2493 3.0993 2.9393 2.8193 2.7093 2.5993 2.5093 2.4693 2.3493
1707.146 2.2593 2.3093 2.2393 2.2193 2.2393 2.1693 2.1393 2.1993 2.2693 2.1993
1726.435 2.1493 2.1993 2.1893 2.1193 2.0193 1.9893 1.9493 1.8493 1.8993 1.9593
1745.725 1.9493 1.8693 1.9093 2.0093 1.9493 1.9693 2.0393 2.0793 2.1793 2.1793
1765.015 2.1493 2.1893 2.2393 2.2293 2.2893 2.2893 2.1693 2.0493 1.9693 1.8493
1784.305 1.7393 1.6993 1.6193 1.5193 1.3693 1.2693 1.2893 1.2993 1.2793 1.1893
1803.594 1.1193 1.0821 0.9955 1.024 1.1193 1.1393 1.0465 0.9367 0.9668 1.0322
1822.884 1.0184 0.9409 0.965 0.9706 0.913 0.9506 0.9697 0.9429 0.9794 1.0206
1842.174 1.0467 1.0217 1.0051 1.0882 1.1493 1.1493 1.1893 1.1993 1.1593 1.1693
1861.464 1.1993 1.2693 1.2193 1.1993 1.2593 1.2993 1.3593 1.3693 1.4493 1.5793
1880.754 1.6093 1.6393 1.7893 1.8693 1.8593 1.9093 1.9293 1.9493 1.9393 1.8993
1900.043 1.9393 1.9193 1.8493 1.8193 1.8093 1.7693 1.6693 1.5293 1.4293 1.4093
1919.333 1.3793 1.4093 1.4193 1.3493 1.3693 1.4793 1.5893 1.5793 1.5293 1.5293
1938.623 1.5293 1.5493 1.5293 1.5393 1.5393 1.5093 1.5093 1.4693 1.4493 1.4393
1957.913 1.3593 1.2693 1.2093 1.1793 1.2193 1.2493 1.2193 1.2093 1.1893 1.1393
1977.202 1.1593 1.2393 1.2993 1.3493 1.3693 1.3093 1.2893 1.3293 1.3893 1.4393
1996.492 1.4693 1.4893 1.5493 1.5393 1.5993 1.6193 1.6493 1.7293 1.7393 1.7393
2015.782 1.7993 1.8393 1.6893 1.6093 1.6493 1.6293 1.5993 1.6193 1.6993 1.7593
2035.072 1.7293 1.6993 1.6893 1.7193 1.8193 1.8493 1.8493 1.8393 1.7293 1.7193
2054.362 1.6493 1.5593 1.5693 1.5093 1.4093 1.3293 1.2893 1.2393 1.2593 1.3693
2073.651 1.4093 1.3293 1.3293 1.4193 1.4493 1.4193 1.3593 1.3793 1.3393 1.2593
2092.941 1.2493 1.1993 1.1593 1.1193 1.0744 0.9993 0.9679 0.9765 0.9499 0.9365
2112.231 0.9001 0.7841 0.7368 0.8319 0.8891 0.8714 0.8364 0.843 0.8303 0.7939
2131.521 0.7723 0.7406 0.7758 0.7899 0.7082 0.6868 0.6319 0.6136 0.6653 0.659
2150.810 0.6672 0.6893 0.691 0.6697 0.6117 0.6024 0.5954 0.5628 0.6426 0.7169
2170.100 0.6981 0.7002 0.7489 0.771 0.8133 0.8231 0.7678 0.676 0.5898 0.6086
2189.390 0.6581 0.7281 0.7461 0.6965 0.7261 0.8043 0.891 0.9075 0.9931 1.1593
2208.680 1.2893 1.4593 1.5293 1.6693 2.1193 2.6993 3.4593 4.6693 6.3993 8.6793
2227.970 11.2393 13.1493 13.4393 11.7693 8.8893 5.9493 3.7593 2.5493 1.9393 1.4893
2247.259 1.1493 1.0993 1.1093 1.0014 0.8771 0.8746 0.9263 0.9077 0.8979 0.9366
2266.549 0.9228 0.8347 0.7781 0.7959 0.8558 0.8379 0.7837 0.7584 0.7985 0.8159
2285.839 0.8259 0.857 0.7828 0.7485 0.7607 0.788 0.8047 0.7563 0.7671 0.7951
2305.129 0.733 0.683 0.7084 0.787 0.8215 0.7543 0.7551 0.8813 0.9781 0.9972
2324.418 1.0373 1.0186 0.9862 0.9968 0.9629 0.9024 0.9179 0.9283 0.8345 0.8373
2343.708 0.8346 0.76 0.7819 0.8345 0.8502 0.8755 0.8519 0.7745 0.8201 0.939
2362.998 0.8571 0.7888 0.8667 0.9705 1.0307 1.0285 1.0422 1.0715 1.1293 1.1593
2382.288 1.1993 1.2193 1.2793 1.3593 1.2793 1.2193 1.1593 1.1093 1.1693 1.1893
2401.578 1.1493 1.2093 1.2193 1.0832 1.0307 1.1193 1.1593 1.1593 1.2193 1.2093
2420.867 1.1193 1.0893 1.1693 1.2493 1.2293 1.0993 1.0798 1.0993 1.1193 1.1693
2440.157 1.1193 1.1193 1.1893 1.2393 1.2993 1.3393 1.2893 1.2993 1.3993 1.4793
2459.447 1.3993 1.3593 1.3793 1.3193 1.2693 1.3593 1.4793 1.4193 1.3193 1.3393
2478.737 1.5193 1.5193 1.5093 1.5193 1.4893 1.4693 1.5193 1.6193 1.5493 1.5493
2498.026 1.5793 1.5093 1.4793 1.5193 1.4493 1.4493 1.5693 1.5893 1.6193 1.6793
2517.316 1.7193 1.7293 1.7593 1.8093 1.8693 1.8493 1.8093 1.8393 1.9293 2.0193
2536.606 2.0193 2.0193 1.9693 1.9593 1.9893 1.9793 1.9893 1.9993 2.0493 1.9993
2555.896 1.8793 1.8993 1.8493 1.7893 1.6693 1.5393 1.5893 1.5193 1.4793 1.5693
2575.186 1.4793 1.3893 1.4493 1.4493 1.3793 1.3593 1.3493 1.3393 1.2893 1.2093
2594.475 1.2093 1.1793 1.0724 1.0657 1.0514 1.0993 1.1193 1.0358 0.9845 0.9255
2613.765 0.9422 0.9028 0.8524 0.8474 0.7927 0.7824 0.7813 0.7694 0.8413 0.8765
2633.055 0.8398 0.8182 0.8318 0.8496 0.8089 0.7903 0.7319 0.7758 0.8431 0.8409
2652.345 0.8199 0.7215 0.7228 0.7897 0.816 0.7472 0.7959 0.8388 0.7534 0.7063
2671.634 0.7502 0.7942 0.7497 0.7723 0.7901 0.8189 0.792 0.7924 0.915 1.0157
2690.924 0.9114 0.8592 0.936 1.0045 1.0475 0.8989 0.8507 0.9587 1.0417 1.0726
2710.214 0.9888 0.9459 0.9475 0.9603 1.0594 1.1093 1.2193 1.2693 1.2193 1.2393
2729.504 1.2493 1.3993 1.4393 1.3993 1.4493 1.4793 1.5693 1.5793 1.6293 1.7893
2748.794 1.8593 1.7893 1.7593 1.8693 1.8693 1.9393 1.9393 1.9093 1.8593 1.6993
2768.083 1.5893 1.5093 1.5793 1.6893 1.6493 1.5793 1.5993 1.5493 1.5393 1.6793
2787.373 1.7593 1.7293 1.7293 1.7493 1.7493 1.8093 1.9293 1.8993 1.8193 1.8393
2806.663 1.9293 1.9293 1.9793 2.0993 2.1793 2.1893 2.1393 2.2993 2.4393 2.5593
2825.953 2.6693 2.7293 2.8493 2.8993 3.0593 3.3093 3.5393 3.8293 4.1193 4.4493
2845.242 4.8893 5.3493 5.8193 6.3093 6.8893 7.5293 7.9393 8.2993 8.6893 9.1393
2864.532 9.5193 9.8493 10.4193 11.0593 11.7693 12.5093 13.1393 13.6793 14.3193 14.9293
2883.822 15.2493 15.2293 14.7893 14.1493 13.2493 12.4593 11.9393 11.4093 11.1193 11.0093
2903.112 10.8593 10.9593 11.1893 11.3093 11.5293 11.9993 12.5293 12.7993 12.9393 13.1993
2922.401 13.5893 13.9493 14.2993 14.7593 15.3893 16.0093 16.6693 17.6293 18.6193 19.5493
2941.691 20.3593 20.9193 21.2493 21.1793 20.7093 20.1593 19.7493 19.6393 19.9393 20.4993
2960.981 21.1993 22.0293 22.9093 23.6393 24.1793 23.9893 23.1493 21.8193 19.8593 17.5093
2980.271 15.2093 13.2793 11.6993 10.3293 9.1093 8.0793 7.2493 6.6693 6.2193 5.8393
2999.561 5.5293 5.1593 4.9493 4.7293 4.4993 4.4693 4.2893 4.0393 3.9793 3.9593
3018.850 3.8693 3.8193 3.8693 3.8993 4.0093 4.2193 4.5193 5.0093 5.5093 5.8893
3038.140 6.1993 6.3793 6.1393 5.7093 5.2293 4.6393 4.1893 3.8293 3.5393 3.2493
3057.430 3.0493 2.8993 2.8793 2.9493 3.0693 3.3393 3.7393 4.2593 4.7293 5.0293
3076.720 5.1293 5.0293 4.6893 4.4093 4.1493 3.8793 3.7693 3.8593 3.9193 3.7693
3096.009 3.6193 3.5493 3.4093 3.1993 3.1493 2.9893 2.7393 2.5693 2.4493 2.2293
3115.299 1.9693 1.7993 1.5993 1.5493 1.4793 1.3793 1.2393 1.1593 1.1993 1.1093
3134.589 1.0312 1.0166 0.9447 0.8749 0.9431 1.0547 1.0303 0.9831 0.8727 0.8082
3153.879 0.9021 0.8872 0.8077 0.7416 0.6728 0.6566 0.6727 0.677 0.7023 0.7385
3173.169 0.7498 0.9064 1.0781 1.0523 0.9972 1.0993 1.0401 0.9688 1.0626 1.0127
3192.458 1.0703 1.0864 1.0589 1.0452 0.9445 0.8092 0.6303 0.5992 0.6621 0.672
3211.748 0.7112 0.6676 0.5742 0.6067 0.612 0.5929 0.6196 0.5224 0.4929 0.5918
3231.038 0.5866 0.5401 0.586 0.6175 0.559 0.5609 0.6749 0.7168 0.7243 0.7476
3250.328 0.7918 0.9014 0.8501 0.9018 0.9615 0.9292 0.9469 0.8992 0.792 0.7313
3269.617 0.6983 0.5681 0.5483 0.4894 0.3325 0.3896 0.5665 0.3992 0.2195 0.2791
3288.907 0.384 0.4892 0.4617 0.3674 0.3098 0.2651 0.3864 0.3928 0.2324 0.3162
3308.197 0.4081 0.3825 0.2834 0.3107 0.3769 0.2734 0.092759 0.090848 0.3088 0.3661
3327.487 0.3083 0.3295 0.3068 0.2159 0.2709 0.2856 0.2011 0.18564 0.2595 0.3464
3346.777 0.3816 0.3012 0.1896 0.17495 0.2121 0.2717 0.2152 0.2608 0.2761 0.2742
3366.066 0.4429 0.395 0.1957 0.1479 0.2529 0.3526 0.3117 0.319 0.4456 0.3655
3385.356 0.1726 0.3306 0.4357 0.3676 0.3556 0.348 0.4069 0.412 0.4167 0.3171
3404.646 0.23 0.2438 0.3726 0.475 0.4536 0.5096 0.3905 0.2926 0.4025 0.5323
3423.936 0.5199 0.4081 0.5069 0.5745 0.413 0.3335 0.3628 0.3005 0.1849 0.2797
3443.225 0.3788 0.2399 0.18294 0.2906 0.3811 0.4467 0.3324 0.2304 0.2397 0.2121
3462.515 0.1613 0.2081 0.3524 0.3162 0.2749 0.2655 0.18808 0.078 0.0893 0.14041
3481.805 0.10971 0.08414 0.0713 0.10853 0.12006 0.09982 0.2729 0.388 0.2997 0.3324
3501.095 0.3938 0.387 0.2602 0.228 0.4264 0.505 0.3244 0.2609 0.2578 0.2106
3520.385 0.17989 0.074 0.08637 0.16909 0.18582 0.2692 0.299 0.1979 0.17512 0.2023
3539.674 0.2965 0.2043 0.16658 0.3148 0.3377 0.3338 0.18432 0.16016 0.2924 0.3231
3558.964 0.2955 0.224 0.094148 0.0444 0.0728 0.090404 0.0737 0.0146 0.2179 0.2804
3578.254 0.18565 0.2481 0.2887 0.404 0.3861 0.098593 0.18359 0.3888 0.1942 0.18033
3597.544 0.3086 0.18606 0.2063 0.2738 0.3969 0.5658 0.4704 0.392 0.3482 0.307
3616.833 0.3042 0.1937 0.2115 0.275 0.14838 0.2758 0.3359 0.2417 0.2517 0.2685
3636.123 0.3128 0.13002 0.10585 0.3154 0.2675 0.0731 0.0411 0.095586 0.12487 0.2986
3655.413 0.2861 0.2593 0.2896 0.3215 0.4451 0.4767 0.4434 0.3131 0.2554 0.3088
3674.703 0.2993 0.17755 0.15008 0.2531 0.14113 0.12022 0.318 0.2907 0.3182 0.4435
3693.993 0.3778 0.3029 0.3263 0.2727 0.2101 0.2009 0.18858 0.2327 0.2315 0.2244
3713.282 0.399 0.492 0.3083 0.2883 0.511 0.39 0.2296 0.236 0.2599 0.3651
3732.572 0.2898 0.2125 0.2686 0.3956 0.4323 0.3287 0.2551 0.2236 0.2983 0.3514
3751.862 0.285 0.3107 0.2255 0.14816 0.3824 0.348 0.2248 0.3107 0.4558 0.4524
3771.152 0.3227 0.3077 0.2745 0.2568 0.2696 0.2751 0.3144 0.2477 0.16401 0.1949
3790.441 0.17018 0 0.0097 0.2396 0.1111 0.18893 0.3184 0.17873 0.298 0.262
3809.731 0.17583 0.3479 0.3403 0.2984 0.5358 0.6316 0.4582 0.2769 0.3055 0.4187
3829.021 0.3495 0.4334 0.499 0.3599 0.18142 0.18102 0.3104 0.3556 0.3793 0.3592
3848.311 0.2566 0.13383 0.2495 0.2725 0.2679 0.2827 0.16254 0.17194 0.3515 0.3486
3867.601 0.15291 0.097108 0.15374 0.2856 0.2847 0.2316 0.2916 0.3928 0.3367 0.2465
3886.890 0.2883 0.4004 0.4056 0.18801 0.11218 0.1096 0.18649 0.3833 0.1998 0.091922
3906.180 0.14316 0.18678 0.2161 0.2131 0.2761 0.3211 0.2515 0.11929 0.2476 0.2551
3925.470 0.15993 0.2417 0.1944 0.14998 0.2562 0.2971 0.4317 0.4136 0.2814 0.2274
3944.760 0.2532 0.2756 0.18075 0.2461 0.2252 0.2295 0.2958 0.2085 0.2464 0.4228
3964.049 0.298 0.16055 0.2081 0.2249 0.33 0.4284 0.3314 0.2168 0.2763 0.3338
3983.339 0.3778 0.2434 0.2463 0.3307 0.2013 0.090883 0.13597 0.2638 0.14879 0.18921
##END=
