##TITLE=4,4'-Difluorobenzhydrol
##JCAMP-DX=4.24
##DATA TYPE=INFRARED SPECTRUM
##ORIGIN=EPA-IR VAPOR PHASE LIBRARY
##OWNER=SRD/NIST
Collection (C) 2018 copyright by the U.S. Secretary of Commerce
on behalf of the United States of America. All rights reserved.
##CAS REGISTRY NO=365-24-2
##MOLFORM=C 13 H 10 F 2 O
##$NIST SOURCE=MSDC-IR
##STATE=gas
##XUNITS=1/CM
##YUNITS=ABSORBANCE
##XFACTOR=1.
##YFACTOR=0.001
##DELTAX=1.92934
##FIRSTX=549.9
##LASTX=3999.5
##FIRSTY=38.92
##MAXX=3999.53
##MINX=549.863
##MAXY=0.24438
##MINY=0
##NPOINTS=1789
##XYDATA=(X++(Y..Y))
549.863 38.92 36.55 33.37 29.81 25.93 22.05 18.42 15.3 12.99 11.32
569.156 10.21 9.34 8.72 8.4 8.23 8.26 8.59 9.36 10.49 11.93
588.450 13.5 15.16 16.59 17.35 17.5 16.87 15.49 13.55 11.34 9.34
607.743 7.68 6.28 5.31 4.8 4.46 4.22 4.08 3.92 3.79 3.83
627.037 3.95 3.99 4 4.06 4.05 3.97 3.87 3.72 3.53 3.31
646.330 3.2 3.16 3.09 2.98 2.95 2.98 2.95 2.91 2.92 2.92
665.624 2.95 2.98 2.92 2.96 3 3 2.99 3.01 3.07 3.05
684.917 3.06 3.07 3.12 3.2 3.25 3.24 3.17 3.13 3.13 3.19
704.210 3.24 3.27 3.36 3.45 3.54 3.73 3.92 4.07 4.17 4.21
723.504 4.29 4.34 4.33 4.34 4.44 4.49 4.51 4.6 4.77 4.91
742.797 5.07 5.23 5.38 5.58 5.8 6.04 6.41 6.91 7.48 8.22
762.091 9.26 10.44 11.79 13.32 14.91 16.52 17.84 18.85 19.5 19.67
781.384 19.36 18.71 17.86 16.84 15.75 14.83 14.18 13.92 14.15 14.9
800.678 16.07 17.57 19.48 21.81 24.41 27.15 29.96 32.83 35.72 38.74
819.971 42.18 46.34 51.49 57.8 65.05 72.47 78.85 82.86 83.56 80.88
839.264 75.32 67.65 58.96 50.37 42.84 36.79 32.28 29.21 27.21 26.11
858.558 25.62 25.23 24.64 23.64 22.19 20.27 18 15.72 13.63 11.85
877.851 10.51 9.49 8.68 8.06 7.56 7.15 6.75 6.34 5.93 5.6
897.145 5.39 5.11 4.91 4.72 4.52 4.38 4.28 4.17 4.02 3.86
916.438 3.81 3.78 3.69 3.66 3.64 3.68 3.78 3.81 3.79 3.85
935.732 3.93 4.02 4.09 4.15 4.24 4.29 4.36 4.47 4.57 4.64
955.025 4.71 4.77 4.86 4.98 5.08 5.17 5.25 5.3 5.38 5.48
974.318 5.62 5.84 6.13 6.46 6.86 7.32 7.88 8.49 9.11 9.88
993.612 10.83 11.94 13.33 15 16.99 19.44 22.47 26.28 30.85 35.13
1012.905 37.9 39.53 40.75 41.28 40.89 40.51 40.96 41.72 42.08 41.7
1032.199 40.39 38.23 35.41 32.14 28.73 25.45 22.51 19.9 17.75 15.97
1051.492 14.41 13.08 11.96 10.97 10.04 9.22 8.51 7.89 7.39 7.02
1070.786 6.67 6.38 6.19 6.13 6.2 6.35 6.58 6.94 7.46 8.12
1090.079 8.86 9.61 10.25 10.73 10.99 10.96 10.63 10.12 9.54 8.84
1109.372 8.1 7.54 7.08 6.63 6.31 6.13 6 5.93 5.98 6.06
1128.666 6.2 6.44 6.76 7.12 7.57 8.3 9.26 10.6 12.77 16.45
1147.959 23.2 35.69 54.26 71.51 80.49 83.36 82.44 74.21 59.04 45.81
1167.253 38.66 35.53 34.11 33.09 32.1 30.77 29.11 27.13 24.98 22.88
1186.546 20.95 19.29 17.96 16.98 16.33 16.05 16.33 17 18.17 19.9
1205.840 22.15 25.03 28.43 32.45 37.01 42.23 48.25 55.26 63.94 75.62
1225.133 92.01 114.9 145.1 180.58 214.51 237.66 244.38 233.98 207.35 167.56
1244.426 124.28 88.72 64.39 48.76 38.59 31.85 27.41 24.43 22.47 21.19
1263.720 20.34 19.78 19.45 19.27 19.15 19.05 18.92 18.79 18.68 18.56
1283.013 18.4 18.41 18.61 18.87 19.19 19.56 19.82 19.82 19.62 19.16
1302.307 18.52 17.81 17.13 16.51 15.97 15.52 15.16 14.94 14.88 14.97
1321.600 15.11 15.36 15.71 16.08 16.44 16.76 16.96 17.03 17.05 17.01
1340.894 17 16.99 16.98 17.05 17.15 17.25 17.3 17.26 17.11 16.9
1360.187 16.53 16 15.37 14.66 13.87 13.07 12.35 11.63 11 10.47
1379.480 10.03 9.68 9.38 9.13 8.95 8.81 8.8 8.89 8.94 9.06
1398.774 9.25 9.47 9.73 10.04 10.3 10.5 10.63 10.65 10.53 10.33
1418.067 10.12 9.82 9.46 9.15 8.84 8.54 8.26 8 7.72 7.43
1437.361 7.17 6.93 6.77 6.63 6.5 6.42 6.41 6.4 6.48 6.65
1456.654 6.81 6.97 7.2 7.54 7.91 8.39 9.03 9.74 10.58 11.6
1475.948 12.75 14.07 15.57 17.3 19.28 21.5 24.17 27.57 32.19 38.59
1495.241 47.79 60.96 78.56 101.1 127.5 154.64 178.62 193 194.35 182.94
1514.534 161.33 133.12 103.65 77.95 57.3 42.97 32.93 25.89 20.92 17.44
1533.828 14.89 12.89 11.4 10.29 9.36 8.63 8.12 7.68 7.39 7.22
1553.121 7.08 7.01 7.02 7.03 6.99 7.03 7.12 7.34 7.68 8.02
1572.415 8.53 9.22 10.08 11.07 12.39 14.12 16.25 18.97 22.26 26.23
1591.708 30.95 36.4 42.38 48.49 54.05 58.24 60.26 59.67 56.54 51.48
1611.002 45.33 38.85 32.82 27.32 22.66 18.96 15.95 13.57 11.76 10.35
1630.295 9.24 8.44 7.89 7.47 7.14 6.98 6.85 6.68 6.56 6.42
1649.588 6.15 5.92 5.6 5.27 5.04 4.78 4.57 4.38 4.18 4.01
1668.882 3.86 3.72 3.62 3.49 3.3 3.16 3.04 2.97 2.93 2.8
1688.175 2.6849 2.6049 2.5138 2.4697 2.4412 2.3671 2.2964 2.2052 2.1547 2.1748
1707.469 2.1492 2.0999 2.0569 2.0089 2.0155 2.0226 1.9862 1.9866 1.9949 2.0269
1726.762 2.048 2.0923 2.121 2.1419 2.2185 2.2185 2.2543 2.3711 2.4811 2.6359
1746.056 2.82 3.07 3.32 3.56 3.9 4.2 4.49 4.75 4.85 4.77
1765.349 4.56 4.27 3.89 3.46 3.06 2.72 2.4526 2.2888 2.1803 2.1183
1784.642 2.0618 1.9746 1.9213 1.9079 1.8601 1.8385 1.8215 1.79611 1.75126 1.6938
1803.936 1.646 1.606 1.584 1.583 1.573 1.551 1.553 1.577 1.61 1.62
1823.229 1.6215 1.6274 1.6762 1.73207 1.76518 1.77822 1.75507 1.75185 1.76757 1.74207
1842.523 1.7104 1.6957 1.74482 1.8101 1.8757 1.9557 2.0031 2.062 2.2032 2.369
1861.816 2.5253 2.75 3 3.24 3.51 3.75 4 4.31 4.56 4.8
1881.110 5.03 5.26 5.46 5.61 5.64 5.55 5.37 5.08 4.69 4.32
1900.403 3.94 3.56 3.28 3.06 2.87 2.6927 2.5255 2.3789 2.2476 2.1442
1919.696 2.0622 1.9805 1.9031 1.87 1.8779 1.8646 1.8442 1.81228 1.79689 1.80306
1938.990 1.823 1.851 1.8272 1.77697 1.74371 1.6827 1.6209 1.594 1.597 1.568
1958.283 1.509 1.514 1.529 1.5 1.492 1.512 1.515 1.514 1.508 1.54
1977.577 1.561 1.554 1.552 1.597 1.6667 1.71782 1.77881 1.8303 1.8623 1.9152
1996.870 2.0047 2.0537 2.0793 2.1678 2.2603 2.3138 2.3965 2.488 2.581 2.6496
2016.164 2.6727 2.6573 2.6243 2.6036 2.5501 2.4347 2.3345 2.2776 2.1775 2.0723
2035.457 2.0334 2.0042 1.9942 1.9932 2.0161 2.0446 2.0315 2.0253 2.0094 2.015
2054.750 2.0231 2.0021 2.0187 2.0269 2.0339 2.0627 2.0524 2.0315 2.0119 1.9878
2074.044 1.9387 1.8565 1.8086 1.73905 1.7038 1.6729 1.605 1.586 1.577 1.561
2093.337 1.555 1.534 1.494 1.496 1.509 1.475 1.432 1.396 1.348 1.299
2112.631 1.267 1.239 1.185 1.148 1.167 1.162 1.115 1.105 1.101 1.081
2131.924 1.076 1.07 1.043 1.041 1.035 1.016 1.022 1.03 1.032 1.028
2151.218 1.05 1.033 1.01 1.052 1.059 1.041 1.038 1.021 0.992 1.016
2170.511 1.036 1.019 1.038 1.045 1.052 1.05 1.042 1.06 1.069 1.068
2189.804 1.081 1.083 1.104 1.135 1.136 1.101 1.056 1.055 1.088 1.116
2209.098 1.118 1.101 1.089 1.088 1.117 1.128 1.075 1.067 1.083 1.069
2228.391 1.087 1.112 1.128 1.147 1.195 1.24 1.229 1.255 1.295 1.341
2247.685 1.399 1.454 1.457 1.459 1.539 1.558 1.548 1.537 1.517 1.475
2266.978 1.435 1.42 1.39 1.358 1.311 1.309 1.338 1.324 1.298 1.277
2286.272 1.244 1.268 1.311 1.318 1.308 1.294 1.295 1.258 1.233 1.222
2305.565 1.187 1.188 1.245 1.27 1.247 1.278 1.284 1.242 1.237 1.254
2324.858 1.267 1.268 1.286 1.314 1.328 1.3 1.288 1.315 1.339 1.315
2344.152 1.298 1.345 1.393 1.405 1.361 1.337 1.327 1.312 1.339 1.362
2363.445 1.366 1.398 1.445 1.477 1.527 1.576 1.585 1.6376 1.6992 1.7474
2382.739 1.8279 1.8915 1.9765 2.0512 2.056 2.0667 2.0587 2.0026 1.9433 1.8534
2402.032 1.75902 1.6961 1.613 1.554 1.55 1.495 1.47 1.483 1.465 1.449
2421.326 1.469 1.494 1.507 1.539 1.549 1.553 1.563 1.584 1.6451 1.7039
2440.619 1.74425 1.78404 1.79215 1.8573 1.9285 1.9961 2.0675 2.1384 2.2297 2.2703
2459.912 2.3191 2.3891 2.4371 2.466 2.471 2.4357 2.3622 2.2573 2.1103 1.9642
2479.206 1.81745 1.6926 1.595 1.466 1.376 1.308 1.257 1.233 1.221 1.222
2498.499 1.21 1.204 1.192 1.15 1.19 1.27 1.27 1.269 1.284 1.248
2517.793 1.257 1.287 1.257 1.216 1.234 1.268 1.245 1.235 1.251 1.317
2537.086 1.323 1.25 1.232 1.254 1.263 1.279 1.316 1.333 1.367 1.4
2556.380 1.431 1.437 1.444 1.479 1.454 1.46 1.472 1.473 1.505 1.543
2575.673 1.557 1.535 1.525 1.474 1.449 1.424 1.348 1.306 1.258 1.168
2594.966 1.121 1.12 1.113 1.069 1.022 0.993 1.01 1.032 0.999 0.988
2614.260 0.959 0.966 0.985 0.969 0.949 0.923 0.93 0.923 0.906 0.884
2633.553 0.885 0.898 0.875 0.884 0.884 0.857 0.909 0.962 0.921 0.867
2652.847 0.846 0.89 0.946 0.921 0.923 0.975 0.964 0.963 0.958 0.922
2672.140 0.896 0.907 0.892 0.832 0.879 0.97 0.927 0.872 0.866 0.882
2691.434 0.925 0.968 0.972 0.977 1.011 1.011 1.042 1.056 1.03 1.034
2710.727 1.021 0.986 0.972 0.959 0.933 0.91 0.932 0.938 0.921 0.959
2730.020 0.958 0.957 0.975 1.005 1.084 1.105 1.082 1.067 1.047 0.975
2749.314 0.937 1.019 1.019 0.931 0.92 0.906 0.839 0.843 0.843 0.759
2768.607 0.783 0.838 0.796 0.804 0.854 0.857 0.851 0.872 0.85 0.831
2787.901 0.858 0.855 0.793 0.834 0.878 0.873 0.923 0.905 0.84 0.789
2807.194 0.82 0.803 0.771 0.807 0.808 0.859 0.974 0.961 0.897 0.902
2826.488 0.972 1.054 1.135 1.218 1.284 1.36 1.436 1.508 1.584 1.71767
2845.781 1.8463 1.972 2.1668 2.385 2.581 2.79 3.11 3.41 3.72 4.13
2865.074 4.6 5.15 5.75 6.42 7.17 7.89 8.57 9.26 9.86 10.35
2884.368 10.69 10.84 10.83 10.53 10.1 9.55 8.89 8.15 7.43 6.66
2903.661 5.79 5.03 4.33 3.74 3.24 2.79 2.5069 2.2737 2.0246 1.78573
2922.955 1.592 1.44 1.301 1.131 0.988 0.933 0.785 0.69 0.74 0.756
2942.248 0.63 0.51 0.51 0.45 0.47 0.5 0.46 0.41 0.38 0.36
2961.542 0.38 0.49 0.4 0.38 0.4 0.37 0.42 0.38 0.38 0.45
2980.835 0.59 0.71 0.777 0.851 0.938 1.104 1.333 1.508 1.77398 2.091
3000.128 2.2473 2.4108 2.5537 2.6426 2.79 2.98 2.99 2.97 3 3.05
3019.422 3.28 3.45 3.59 3.95 4.45 5 5.68 6.54 7.51 8.56
3038.715 9.57 10.36 10.97 11.24 11.06 10.58 9.79 8.88 8.08 7.36
3058.009 6.7 6.23 5.77 5.48 5.46 5.62 6 6.56 7.17 7.91
3077.302 8.42 8.54 8.34 7.73 6.91 5.95 5.01 4.18 3.65 3.36
3096.596 3.18 3.04 2.92 2.91 2.9 2.84 2.86 2.9 2.87 2.8
3115.889 2.7104 2.6756 2.58 2.4431 2.3689 2.1437 1.8956 1.74012 1.535 1.323
3135.182 1.051 0.799 0.65 0.54 0.44 0.36 0.35 0.34 0.24 0.16
3154.476 0.24 0.24 0.22 0.21 0.19 0.22 0.26 0.34 0.31 0.19
3173.769 0.09 0.1 0.26 0.39 0.34 0.29 0.34 0.32 0.33 0.39
3193.063 0.37 0.34 0.32 0.21 0.22 0.25 0.18 0.24 0.24 0.17
3212.356 0.19 0.24 0.34 0.35 0.29 0.26 0.22 0.18 0.23 0.28
3231.650 0.29 0.17 0 0.05 0.16 0.1 0.06 0.13 0.21 0.25
3250.943 0.23 0.18 0.18 0.16 0.21 0.22 0.27 0.31 0.29 0.28
3270.236 0.27 0.39 0.4 0.3 0.27 0.25 0.29 0.38 0.37 0.36
3289.530 0.44 0.38 0.17 0.22 0.45 0.51 0.43 0.28 0.34 0.43
3308.823 0.32 0.36 0.35 0.3 0.39 0.34 0.33 0.4 0.45 0.51
3328.117 0.63 0.63 0.52 0.53 0.54 0.56 0.66 0.75 0.72 0.6
3347.410 0.62 0.7 0.64 0.58 0.59 0.64 0.8 0.916 0.813 0.7
3366.704 0.727 0.791 0.76 0.847 0.808 0.748 0.843 0.843 0.81 0.798
3385.997 0.922 0.977 0.938 0.826 0.813 0.815 0.765 0.7 0.73 0.845
3405.290 0.787 0.76 0.787 0.842 0.941 1.004 0.996 0.942 0.961 0.978
3424.584 0.956 0.88 0.921 0.988 0.906 0.923 1.05 1.087 1 1.003
3443.877 0.974 0.971 1.091 1.08 1.168 1.123 0.875 0.907 0.982 0.915
3463.171 0.902 0.944 0.935 0.913 0.974 1.04 1.062 1.024 0.935 0.972
3482.464 1.009 0.944 0.964 0.998 1.008 1.084 1.065 1.006 1.037 1.128
3501.758 1.116 1.089 1.097 0.996 0.939 1.063 1.139 1.138 1.142 1.041
3521.051 1.015 0.987 0.974 0.991 1.078 1.19 1.079 1.084 1.163 1.119
3540.344 1.148 1.133 1.039 1.084 1.129 1.041 0.989 0.999 1.042 1.12
3559.638 1.164 1.17 1.171 1.117 1.086 1.161 1.25 1.181 1.017 1.084
3578.931 1.261 1.263 1.225 1.219 1.279 1.266 1.142 1.19 1.343 1.41
3598.225 1.364 1.384 1.522 1.58 1.6808 1.75801 1.77618 1.905 2.0332 2.1063
3617.518 2.3002 2.5659 2.78 3.01 3.46 4.09 4.9 6.07 7.36 8.94
3636.812 10.8 12.73 14.52 15.84 16.6 16.64 15.97 14.67 12.94 11.07
3656.105 9.18 7.48 6.04 4.97 4.31 3.69 3.19 2.92 2.7164 2.6169
3675.398 2.4756 2.3393 2.218 2.0849 2.0065 1.9738 1.9807 1.8699 1.7713 1.8331
3694.692 1.6744 1.546 1.6374 1.584 1.465 1.504 1.57 1.598 1.597 1.484
3713.985 1.404 1.503 1.503 1.411 1.333 1.28 1.324 1.247 1.278 1.391
3733.279 1.368 1.306 1.286 1.219 1.21 1.312 1.326 1.302 1.316 1.321
3752.572 1.295 1.244 1.238 1.206 1.152 1.178 1.248 1.257 1.256 1.302
3771.866 1.276 1.259 1.219 1.181 1.185 1.201 1.244 1.239 1.302 1.329
3791.159 1.216 1.217 1.27 1.241 1.202 1.15 1.14 1.213 1.279 1.24
3810.452 1.219 1.293 1.311 1.298 1.363 1.384 1.358 1.299 1.3 1.396
3829.746 1.326 1.258 1.3 1.364 1.462 1.481 1.472 1.469 1.384 1.44
3849.039 1.514 1.444 1.381 1.389 1.368 1.337 1.385 1.316 1.332 1.375
3868.333 1.36 1.366 1.408 1.431 1.447 1.485 1.505 1.503 1.462 1.472
3887.626 1.47 1.554 1.586 1.494 1.491 1.47 1.414 1.468 1.54 1.538
3906.920 1.459 1.381 1.35 1.402 1.474 1.389 1.344 1.334 1.294 1.306
3926.213 1.291 1.299 1.299 1.263 1.307 1.277 1.311 1.317 1.195 1.19
3945.506 1.221 1.142 1.13 1.122 1.035 1.046 1.029 1.082 1.143 1.093
3964.800 1.069 1.047 1.106 1.179 1.123 1.098 1.061 1.036 1.026 0.942
3984.093 0.893 0.918 0.946 0.989 1.017 0.938 0.9 0.974 0.988
##END=
