##TITLE=Ethyl 2,6-dimethylbenzoate
##JCAMP-DX=4.24
##DATA TYPE=INFRARED SPECTRUM
##ORIGIN=EPA-IR VAPOR PHASE LIBRARY
##OWNER=SRD/NIST
Collection (C) 2018 copyright by the U.S. Secretary of Commerce
on behalf of the United States of America. All rights reserved.
##CAS REGISTRY NO=36596-67-5
##MOLFORM=C 11 H 14 O 2
##$NIST SOURCE=MSDC-IR
##STATE=gas
##XUNITS=1/CM
##YUNITS=ABSORBANCE
##XFACTOR=1.
##YFACTOR=0.001
##DELTAX=1.92898
##FIRSTX=549.8
##LASTX=4000.7
##FIRSTY=0.9507
##MAXX=4000.7
##MINX=549.759
##MAXY=0.487013
##MINY=0
##NPOINTS=1790
##XYDATA=(X++(Y..Y))
549.759 0.9507 0.74841 0.8781 1.2199 1.723 1.763 1.3104 1.3854 1.783 2.563
569.049 4.233 5.493 6.603 7.783 8.703 9.203 8.953 8.673 7.923 6.733
588.339 5.263 3.843 2.733 1.973 1.6348 1.6396 1.1758 0.74188 0.566 0.659
607.628 0.8379 0.67725 0.5964 0.7895 1.1598 0.8978 0.6707 0.9676 1.2363 1.134
626.918 0.9357 0.77451 0.8564 1.693 1.873 1.6403 1.983 2.223 2.223 1.923
646.208 1.6529 1.683 1.943 2.193 2.083 2.223 2.243 2.093 2.423 2.413
665.498 2.293 2.423 2.533 2.743 2.863 3.013 3.313 3.383 3.693 4.203
684.787 4.533 4.533 4.753 5.303 5.463 5.423 6.033 6.893 7.603 8.253
704.077 9.033 10.103 11.323 12.553 14.333 16.263 17.343 18.533 19.443 20.003
723.367 20.803 21.593 22.423 23.503 24.703 25.963 27.583 29.183 30.443 31.313
742.657 31.093 30.613 31.233 32.613 35.463 40.773 49.053 59.433 71.083 83.333
761.947 95.803 110.013 127.273 132.953 117.693 100.953 89.153 77.673 65.503 52.663
781.236 41.463 32.983 26.513 21.683 18.413 15.743 13.783 12.403 11.743 10.973
800.526 9.843 9.053 8.663 8.213 7.833 7.773 7.543 7.613 7.573 7.233
819.816 7.433 7.543 7.723 7.553 7.783 8.253 8.723 9.743 10.633 11.403
839.106 12.233 12.873 13.913 15.103 15.723 16.073 15.973 16.153 15.963 15.073
858.395 14.643 14.113 13.453 13.263 12.843 12.573 12.433 12.113 11.373 10.323
877.685 9.623 8.363 7.003 6.483 6.013 5.363 4.953 4.813 4.613 4.853
896.975 4.973 4.693 4.563 4.523 4.523 4.543 4.433 4.623 4.943 4.903
916.265 4.963 5.093 5.143 5.063 5.013 4.953 4.913 5.123 5.133 5.073
935.555 5.183 5.363 5.423 5.403 5.463 5.533 5.543 5.923 6.273 6.053
954.844 6.283 6.753 6.933 7.243 7.193 7.443 7.973 8.063 8.143 8.173
974.134 8.433 8.893 9.393 9.703 10.003 10.253 10.713 11.453 11.973 12.963
993.424 14.003 14.703 15.673 17.183 18.833 19.993 21.223 23.013 24.873 26.473
1012.714 28.333 30.073 31.183 31.573 31.773 32.003 31.863 31.983 31.043 30.223
1032.003 30.313 29.873 29.773 30.633 32.283 34.223 37.213 41.243 46.303 53.573
1051.293 63.013 75.123 91.373 111.233 136.953 169.073 204.253 243.223 283.683 319.633
1070.583 347.043 365.533 372.143 366.003 348.543 319.033 284.913 250.063 217.203 192.463
1089.873 174.693 163.103 158.053 158.163 164.333 177.663 196.753 220.323 245.683 269.103
1109.163 286.373 295.043 293.323 280.263 257.803 228.463 195.863 163.913 136.603 114.923
1128.452 97.353 83.503 72.933 64.233 57.673 52.453 48.273 45.163 42.353 39.583
1147.742 37.673 36.553 35.723 34.733 33.973 34.603 35.053 34.903 34.783 34.953
1167.032 35.013 35.193 35.093 33.863 32.133 30.963 30.233 28.963 27.483 26.783
1186.322 25.503 24.393 24.393 24.083 24.373 24.783 24.743 24.833 25.243 25.743
1205.611 27.653 30.973 34.903 39.893 43.913 48.373 55.403 63.973 73.043 83.363
1224.901 96.843 113.033 131.603 153.733 179.423 206.723 235.453 264.403 291.513 315.303
1244.191 336.993 359.893 383.183 405.413 428.523 450.553 470.063 484.083 487.013 478.043
1263.481 456.663 423.153 379.033 329.283 279.043 232.563 193.233 161.553 136.473 116.943
1282.771 101.233 88.203 78.333 70.213 63.683 58.983 55.113 51.963 49.553 47.493
1302.060 45.473 43.343 41.183 39.073 36.743 34.683 32.753 30.733 28.843 27.263
1321.350 25.913 24.593 23.503 22.533 21.583 20.743 20.073 19.463 18.913 18.443
1340.640 18.113 17.993 18.023 18.173 18.383 18.793 19.643 20.993 22.913 25.383
1359.930 28.223 31.093 33.543 35.463 36.893 37.563 37.743 37.523 36.783 35.943
1379.219 35.393 35.433 35.863 36.233 36.533 36.533 36.193 35.363 33.943 32.683
1398.509 31.543 30.473 29.793 29.413 29.293 29.523 30.183 31.243 32.743 34.413
1417.799 36.313 38.643 41.153 43.603 45.853 47.773 49.283 50.383 51.033 51.253
1437.089 51.353 51.613 51.783 52.163 53.343 54.973 57.003 59.583 62.243 65.033
1456.378 67.923 70.623 72.923 74.753 76.123 76.763 76.493 75.093 72.803 69.823
1475.668 66.103 61.733 57.123 52.603 48.273 44.213 40.343 36.783 33.663 31.023
1494.958 28.723 26.803 25.343 24.083 23.033 21.993 21.013 20.443 20.033 19.473
1514.248 19.123 18.963 18.843 18.653 18.523 18.653 18.773 18.923 18.943 18.893
1533.538 18.913 18.673 18.203 17.893 17.553 17.193 16.963 16.803 16.593 16.293
1552.827 16.353 16.443 16.483 16.473 16.643 17.263 17.993 18.703 19.543 20.723
1572.117 22.153 23.783 25.893 28.173 30.483 32.853 35.363 37.963 40.163 41.843
1591.407 42.603 42.093 40.233 37.213 33.343 29.303 25.473 21.883 18.833 16.313
1610.697 14.483 13.253 12.373 11.733 11.103 10.513 10.003 9.783 9.793 9.783
1629.986 9.773 9.753 9.783 9.893 10.193 10.663 11.173 11.553 11.903 12.463
1649.276 12.843 12.903 13.123 13.293 13.293 13.393 13.353 13.193 13.093 13.033
1668.566 12.963 13.143 13.513 13.813 14.293 15.033 15.873 16.803 18.043 19.633
1687.856 21.283 23.103 25.393 27.853 30.443 33.163 36.013 39.073 42.033 44.943
1707.146 48.073 51.533 55.223 59.403 64.423 70.723 78.983 89.653 103.903 123.133
1726.435 148.153 179.303 216.623 257.993 302.743 347.973 390.253 427.653 452.013 453.393
1745.725 427.633 384.283 335.973 287.683 240.553 195.533 154.643 121.353 96.153 78.273
1765.015 65.993 57.433 50.963 45.743 41.163 37.043 33.283 29.983 26.993 24.173
1784.305 21.853 20.003 18.503 17.173 16.043 15.143 14.343 13.713 13.073 12.533
1803.594 12.173 11.723 11.263 10.883 10.583 10.373 10.093 9.603 9.133 8.723
1822.884 8.323 8.123 7.943 7.713 7.533 7.343 7.323 7.383 7.283 7.373
1842.174 7.643 7.703 7.753 7.833 7.863 7.783 7.553 7.303 7.033 6.703
1861.464 6.363 6.013 5.673 5.353 5.053 4.883 4.843 4.793 4.743 4.593
1880.754 4.503 4.573 4.593 4.563 4.533 4.573 4.643 4.653 4.603 4.673
1900.043 4.753 4.873 5.033 5.003 5.073 5.363 5.853 6.273 6.573 6.923
1919.333 7.303 7.913 8.453 8.843 9.303 9.743 9.853 9.653 9.353 8.843
1938.623 8.253 7.533 6.673 6.073 5.683 5.363 5.103 4.873 4.683 4.583
1957.913 4.493 4.343 4.283 4.143 3.953 3.883 3.653 3.563 3.593 3.593
1977.202 3.593 3.523 3.473 3.293 3.213 3.213 3.173 3.133 2.993 2.873
1996.492 2.853 2.913 2.813 2.643 2.543 2.493 2.553 2.623 2.573 2.453
2015.782 2.423 2.453 2.523 2.463 2.413 2.433 2.493 2.483 2.423 2.493
2035.072 2.443 2.453 2.583 2.483 2.363 2.333 2.223 2.283 2.323 2.273
2054.362 2.353 2.363 2.373 2.413 2.603 2.693 2.613 2.713 2.853 2.963
2073.651 3.043 3.133 3.063 3.133 3.333 3.413 3.483 3.573 3.763 3.743
2092.941 3.743 3.873 3.853 3.723 3.733 3.763 3.793 3.873 3.823 3.753
2112.231 3.773 3.703 3.623 3.573 3.443 3.313 3.223 3.183 3.183 3.193
2131.521 2.873 2.753 2.763 2.643 2.603 2.453 2.413 2.443 2.463 2.403
2150.810 2.383 2.393 2.333 2.183 2.183 2.223 2.183 2.263 2.263 2.253
2170.100 2.323 2.243 2.143 2.083 2.083 2.163 2.193 2.253 2.253 2.033
2189.390 1.993 2.033 1.853 1.933 2.013 1.973 1.993 1.913 1.953 2.013
2208.680 1.893 1.823 1.783 1.873 2.013 2.053 2.153 2.043 2.003 2.023
2227.970 1.953 2.053 2.253 2.293 2.293 2.343 2.283 2.273 2.293 2.273
2247.259 2.213 2.103 2.073 2.113 2.153 2.193 2.123 2.173 2.393 2.433
2266.549 2.223 2.053 2.083 2.093 2.053 1.993 2.023 2.113 2.073 2.143
2285.839 2.163 2.153 2.153 2.173 2.173 2.123 2.213 2.403 2.543 2.493
2305.129 2.523 2.533 2.423 2.503 2.693 2.853 2.983 3.023 3.063 3.043
2324.418 3.173 3.553 3.573 3.413 3.413 3.573 3.563 3.293 3.273 3.333
2343.708 3.263 3.043 2.953 3.083 3.143 3.013 2.813 2.813 2.933 2.843
2362.998 2.763 2.773 2.783 2.883 2.933 2.923 2.833 2.633 2.643 2.673
2382.288 2.623 2.573 2.533 2.623 2.613 2.553 2.553 2.643 2.683 2.733
2401.578 2.753 2.653 2.573 2.463 2.443 2.493 2.633 2.693 2.443 2.413
2420.867 2.453 2.383 2.393 2.273 2.203 2.203 2.123 2.143 2.123 2.063
2440.157 2.103 2.193 2.133 2.083 2.203 2.313 2.303 2.223 2.143 2.093
2459.447 2.103 2.063 2.083 2.103 2.173 2.213 2.243 2.393 2.443 2.313
2478.737 2.183 2.223 2.293 2.263 2.283 2.393 2.343 2.293 2.303 2.313
2498.026 2.303 2.303 2.273 2.183 2.333 2.333 2.243 2.153 2.133 2.093
2517.316 1.983 2.113 2.143 2.113 2.143 2.093 1.983 1.813 1.733 1.833
2536.606 1.853 1.833 1.863 1.923 1.893 1.803 1.903 1.893 1.763 1.863
2555.896 1.913 1.743 1.6303 1.6531 1.6683 1.693 1.5969 1.5453 1.783 1.763
2575.186 1.5649 1.6075 1.693 1.6382 1.683 1.783 1.743 1.873 1.983 1.843
2594.475 1.753 1.683 1.6154 1.723 1.943 2.023 1.963 1.943 1.893 1.983
2613.765 1.943 1.983 2.043 1.913 2.033 2.273 2.243 2.153 2.203 2.153
2633.055 2.133 2.163 2.073 2.053 2.133 2.083 2.103 1.973 1.753 1.693
2652.345 1.5985 1.5992 1.793 1.873 1.843 1.803 1.743 1.883 1.913 1.823
2671.634 2.063 2.283 2.233 2.043 1.983 2.073 2.063 2.093 2.103 2.083
2690.924 2.123 2.133 2.213 2.143 2.113 2.273 2.333 2.433 2.393 2.443
2710.214 2.653 2.693 2.773 2.883 3.113 3.233 3.163 3.223 3.453 3.493
2729.504 3.423 3.713 4.173 4.503 4.613 4.693 4.973 5.233 5.563 5.773
2748.794 5.803 5.783 5.773 5.693 5.443 5.313 5.023 4.673 4.533 4.623
2768.083 4.573 4.253 4.173 4.263 4.183 4.083 4.153 4.033 4.023 4.183
2787.373 4.133 4.353 4.663 4.623 4.613 4.833 4.973 5.153 5.483 5.493
2806.663 5.553 6.073 6.473 6.673 6.993 7.323 7.583 7.893 8.123 8.303
2825.953 8.613 9.223 9.713 10.043 10.423 10.703 11.373 12.123 12.643 13.523
2845.242 14.333 15.093 16.213 17.353 18.423 19.453 20.633 22.253 23.993 25.603
2864.532 27.473 29.223 31.003 32.933 34.663 36.493 38.073 39.393 40.693 41.943
2883.822 42.933 43.173 43.153 43.323 43.123 42.903 43.003 43.043 43.403 44.123
2903.112 45.013 46.063 47.263 48.553 49.903 51.313 52.713 54.603 56.813 59.263
2922.401 62.803 66.833 71.623 77.193 83.013 89.123 95.043 100.003 103.633 106.113
2941.691 106.693 105.403 102.553 98.753 94.203 89.713 85.733 82.303 80.403 80.203
2960.981 81.423 83.493 86.303 89.403 92.783 96.823 101.583 107.303 113.233 119.263
2980.271 124.633 128.163 130.023 129.543 125.943 120.193 112.763 103.923 95.123 87.063
2999.561 80.103 74.243 69.213 64.623 61.063 58.343 55.983 54.213 52.943 52.313
3018.850 52.143 52.183 52.653 53.023 53.243 53.423 53.083 52.393 51.753 51.033
3038.140 50.003 49.093 48.293 48.043 48.323 48.833 50.023 51.483 52.753 54.323
3057.430 56.353 58.463 59.943 61.223 62.463 62.843 62.293 60.683 57.963 54.393
3076.720 50.043 44.923 39.353 34.173 29.253 24.653 21.003 17.973 15.383 13.533
3096.009 12.293 11.283 10.253 9.303 8.473 7.903 7.773 7.353 6.943 6.743
3115.299 6.473 6.353 6.343 6.313 6.193 5.933 5.653 5.383 5.263 5.293
3134.589 5.143 4.943 4.933 5.003 4.733 4.583 4.563 4.443 4.513 4.443
3153.879 4.423 4.443 4.433 4.473 4.393 4.403 4.293 4.223 4.243 4.403
3173.169 4.433 4.153 3.933 3.523 3.413 3.553 3.443 3.243 3.063 2.883
3192.458 2.773 2.583 2.573 2.533 2.473 2.583 2.473 1.953 1.903 2.093
3211.748 2.183 2.283 2.013 2.103 2.203 1.973 1.833 2.033 1.953 1.703
3231.038 1.6413 1.753 1.634 1.5616 1.6152 1.5845 1.4564 1.2259 1.4077 1.428
3250.328 1.2854 1.4858 1.6486 1.4378 1.3473 1.302 1.0889 1.1646 1.3538 1.4569
3269.617 1.4921 1.4924 1.4767 1.3105 1.3085 1.1914 0.9411 1.0256 1.1951 1.4714
3288.907 1.4819 1.1496 1.2466 1.2922 1.0996 1.0194 1.1107 1.31 1.2464 1.1631
3308.197 1.2686 1.3512 1.183 1.1706 1.1252 1.0456 1.295 1.4716 1.456 1.439
3327.487 1.4666 1.2679 1.2379 1.1939 1.198 1.3149 1.1777 1.1629 1.1238 1.2796
3346.777 1.5746 1.3901 1.1427 1.3076 1.2983 1.2566 1.3715 1.3833 1.3245 1.1584
3366.066 1.3025 1.4838 1.3314 1.0097 1.1336 1.3567 1.1997 1.2196 1.2598 1.0654
3385.356 1.0765 1.2037 1.1128 1.2423 1.402 1.373 1.2116 1.255 1.5249 1.4209
3404.646 1.4153 1.3891 1.2487 1.3399 1.2929 1.3803 1.6187 1.6192 1.693 1.923
3423.936 1.813 1.4374 1.5752 1.903 1.963 1.933 1.913 1.953 2.233 2.563
3443.225 2.453 2.343 2.503 2.793 3.153 3.383 3.633 3.923 4.243 4.383
3462.515 4.493 4.733 4.673 4.413 4.373 4.193 3.893 3.683 3.353 3.163
3481.805 3.083 2.933 2.503 2.113 1.903 1.973 1.923 1.763 1.6512 1.3906
3501.095 1.5467 1.5402 1.3631 1.2302 1.0216 1.0007 1.1828 1.3155 1.3657 1.1886
3520.385 0.9657 0.9773 0.8897 0.75528 0.7907 0.8886 1.0507 1.0232 0.8374 1.0724
3539.674 0.962 0.9059 0.8606 0.6086 0.9063 1.1334 0.8647 0.8844 1.0231 0.998
3558.964 1.2058 1.101 1.1932 1.138 0.8816 1.0638 1.0304 0.9021 0.9794 1.0401
3578.254 1.0447 0.9629 0.9553 0.9061 0.8185 0.6492 0.67992 1.007 0.8656 0.6302
3597.544 0.685171 0.77335 0.69401 0.69502 0.6706 0.71203 0.8359 0.8456 0.6132 0.503
3616.833 0.496 0.403 0.75 0.9823 0.8023 0.8025 0.571 0.534 0.8325 0.8957
3636.123 0.8382 0.75139 0.6443 0.71049 0.6029 0.47 0.495 0.446 0.6567 0.407
3655.413 0.397 0.551 0.6437 0.76945 0.53 0.505 0.306 0 0.109 0.525
3674.703 0.71763 0.533 0.382 0.392 0.491 0.73843 0.77224 0.526 0.577 0.8621
3693.993 0.8926 0.499 0.449 0.76898 0.75883 0.6565 0.8608 0.9539 0.8718 0.69434
3713.282 0.71485 0.883 0.9392 0.8516 0.6128 0.8094 0.8841 0.8883 0.8995 0.74483
3732.572 0.796 0.69765 0.924 0.9925 0.8526 0.9904 1.0883 0.9596 0.75062 0.9064
3751.862 0.9968 1.0777 0.9952 0.69886 0.73058 0.8395 1.0738 0.9938 0.8689 0.8414
3771.152 0.8181 1.2251 1.3754 1.4087 1.4044 1.4267 1.3034 1.1024 1.176 1.3421
3790.441 1.2826 1.087 1.0982 1.1279 1.3515 1.2443 1.0266 1.2561 1.4407 1.693
3809.731 1.843 1.683 1.5844 1.683 1.6273 1.1287 1.1282 1.2821 1.2343 1.3701
3829.021 1.273 0.9252 0.8354 1.0177 1.1951 1.3019 1.1677 1.1469 1.1636 1.0904
3848.311 1.2299 1.2917 1.0272 1.0214 1.356 1.3658 1.2117 1.0797 0.9386 1.0028
3867.601 1.0197 0.9371 1.059 1.1439 1.1423 1.201 1.0512 1.2791 1.4805 1.4259
3886.890 1.4285 1.3658 1.2327 1.1351 1.2224 1.1576 1.075 1.2594 1.3092 1.2558
3906.180 1.3556 1.5169 1.5356 1.3247 1.3443 1.4776 1.6491 1.5592 1.3099 1.2123
3925.470 1.1594 1.3007 1.3968 1.3002 1.2921 1.4645 1.3088 1.2591 1.5918 1.823
3944.760 1.733 1.4266 1.0985 1.0562 1.1917 1.3819 1.4924 1.238 1.0198 1.2887
3964.049 1.6153 1.693 1.703 1.4833 1.4059 1.4139 1.5051 1.5368 1.4564 1.497
3983.339 1.5092 1.5286 1.4061 1.2245 1.0957 1.3262 1.6044 1.5283 1.5152 1.664
##END=
