##TITLE=2,2'-Bipyridine
##JCAMP-DX=4.24
##DATA TYPE=INFRARED SPECTRUM
##ORIGIN=NIST Mass Spectrometry Data Center
##OWNER=NIST Standard Reference Data Program
Collection (C) 2018 copyright by the U.S. Secretary of Commerce
on behalf of the United States of America. All rights reserved.
##CAS REGISTRY NO=366-18-7
##MOLFORM=C 10 H 8 N 2
##$NIST SOURCE=MSDC-IR
##SPECTROMETER/DATA SYSTEM=HP-GC/MS/IRD
##STATE=gas
##XUNITS=1/CM
##YUNITS=ABSORBANCE
##XFACTOR=1.0
##YFACTOR=0.000003400
##DELTAX=4.0
##FIRSTX=550.0
##LASTX=3846.0
##FIRSTY=0.000609
##MAXX=3846
##MINX=550
##MAXY=0.034
##MINY=0
##NPOINTS=825
##XYDATA=(X++(Y..Y))
550.0 179 119 88 66 43 64 55 39 39 10
590.0 29 55 69 73 47 43 73 55 27 25
630.0 37 75 80 78 79 65 77 120 217 467
670.0 702 743 578 280 131 82 80 87 80 86
710.0 90 89 80 68 68 99 100 92 104 99
750.0 104 114 103 104 119 116 119 131 177 254
790.0 349 482 675 1049 1774 2797 4054 4768 4245 3126
830.0 1925 1046 579 342 254 210 191 208 210 172
870.0 136 143 191 232 286 363 410 425 385 304
910.0 232 180 145 134 119 111 116 124 134 157
950.0 167 199 246 276 303 305 291 320 384 476
990.0 541 516 438 315 210 169 159 148 138 118
1030.0 124 183 212 255 279 244 240 225 207 230
1070.0 234 247 234 194 158 157 223 354 444 447
1110.0 362 236 169 139 124 108 86 68 87 82
1150.0 89 103 91 104 118 113 108 114 93 78
1190.0 84 91 87 88 102 152 210 255 319 362
1230.0 379 410 427 404 342 258 181 130 111 105
1270.0 109 122 120 103 94 95 89 85 97 103
1310.0 102 108 121 138 156 174 212 295 398 490
1350.0 557 627 769 1086 1601 2087 2292 2123 1699 1301
1390.0 1015 826 729 703 725 774 811 827 845 870
1430.0 908 939 960 1029 1225 1629 2138 2524 2574 2242
1470.0 1726 1287 1046 910 825 772 757 775 797 828
1510.0 874 940 1018 1097 1182 1276 1405 1583 1793 2009
1550.0 2184 2283 2299 2274 2277 2349 2625 3257 4411 6274
1590.0 8540 10000 9551 7397 4677 2780 1940 1500 1182 921
1630.0 709 581 519 463 402 348 285 221 186 166
1670.0 148 138 135 123 114 112 112 114 117 130
1710.0 142 143 145 157 151 124 111 105 91 78
1750.0 76 77 86 97 104 120 143 160 169 175
1790.0 176 166 158 151 139 125 109 98 86 73
1830.0 70 76 83 86 78 76 80 81 82 88
1870.0 86 79 77 75 71 69 76 92 115 160
1910.0 207 242 264 247 201 146 104 81 68 64
1950.0 65 60 53 52 49 51 53 60 58 55
1990.0 59 51 47 39 37 42 34 37 38 35
2030.0 32 34 37 31 29 34 39 41 42 36
2070.0 37 37 35 31 29 37 40 42 42 38
2110.0 42 36 34 42 42 39 42 42 42 32
2150.0 23 23 27 26 17 22 36 44 45 46
2190.0 56 53 48 52 52 55 63 60 43 39
2230.0 46 44 43 39 31 30 35 26 23 36
2270.0 43 44 38 35 42 51 52 44 32 28
2310.0 28 18 22 29 21 16 23 24 25 34
2350.0 30 29 36 32 29 32 36 38 35 29
2390.0 29 39 41 33 35 35 34 43 38 35
2430.0 51 50 42 40 39 34 38 48 61 65
2470.0 60 51 50 51 49 53 60 55 54 46
2510.0 33 37 38 33 30 23 24 30 38 29
2550.0 23 16 10 22 22 7 13 23 20 17
2590.0 20 27 29 23 24 30 25 19 21 28
2630.0 31 20 17 30 26 23 28 26 31 40
2670.0 47 42 37 43 33 28 28 29 29 23
2710.0 16 21 25 24 40 54 61 78 92 95
2750.0 92 75 63 53 42 45 50 54 59 52
2790.0 47 58 61 73 78 78 96 105 97 104
2830.0 129 153 166 184 206 235 291 360 438 511
2870.0 571 608 635 647 629 609 612 652 690 734
2910.0 803 905 1057 1276 1545 1766 1838 1743 1522 1257
2950.0 1047 892 778 699 636 594 545 512 545 603
2990.0 691 814 938 1064 1208 1360 1510 1613 1651 1673
3030.0 1664 1654 1652 1715 1953 2404 2901 3095 2844 2214
3070.0 1522 1095 882 756 673 590 490 401 329 279
3110.0 239 210 164 143 131 107 96 90 80 83
3150.0 88 59 49 59 52 62 69 55 49 57
3190.0 47 61 80 58 48 43 42 45 45 49
3230.0 43 29 34 44 43 44 38 25 31 48
3270.0 37 18 16 16 23 29 29 26 21 31
3310.0 37 39 43 43 50 55 45 43 44 51
3350.0 52 36 20 6 20 26 6 16 49 40
3390.0 33 35 27 30 28 45 52 44 38 24
3430.0 18 22 21 22 35 28 29 34 30 39
3470.0 36 22 20 29 14 0 13 29 43 43
3510.0 35 33 29 23 28 34 35 36 42 46
3550.0 51 56 43 31 42 42 24 27 33 41
3590.0 42 42 42 42 51 62 59 44 42 31
3630.0 32 45 45 48 43 21 8 21 41 43
3670.0 39 39 35 41 50 52 42 42 53 47
3710.0 42 45 42 45 51 65 70 52 51 42
3750.0 40 50 53 63 67 64 60 55 60 58
3790.0 42 35 42 56 69 67 67 62 39 30
3830.0 40 46 38 23 35
##END=
