##TITLE=1-Indanol
##JCAMP-DX=4.24
##DATA TYPE=INFRARED SPECTRUM
##ORIGIN=NIST Mass Spectrometry Data Center
##OWNER=NIST Standard Reference Data Program
Collection (C) 2018 copyright by the U.S. Secretary of Commerce
on behalf of the United States of America. All rights reserved.
##CAS REGISTRY NO=36643-74-0
##MOLFORM=C 9 H 10 O
##$NIST SOURCE=MSDC-IR
##SPECTROMETER/DATA SYSTEM=HP-GC/MS/IRD
##STATE=gas
##XUNITS=1/CM
##YUNITS=ABSORBANCE
##XFACTOR=1.0
##YFACTOR=0.000001800
##DELTAX=4.0
##FIRSTX=550.0
##LASTX=3846.0
##FIRSTY=0.001224
##MAXX=3846
##MINX=550
##MAXY=0.018
##MINY=0
##NPOINTS=825
##XYDATA=(X++(Y..Y))
550.0 680 784 404 401 320 294 288 301 362 503
590.0 641 827 1023 1039 999 953 809 616 478 337
630.0 219 177 168 131 85 88 89 70 40 63
670.0 120 169 206 227 327 395 406 500 661 836
710.0 1017 1407 1834 2256 2969 4054 5552 7206 8342 9381
750.0 10000 8853 7259 6075 4488 2926 1915 1244 792 501
790.0 316 197 170 197 230 282 341 383 423 444
830.0 446 472 490 497 502 554 591 571 548 577
870.0 607 596 594 641 726 795 863 897 908 880
910.0 873 903 911 961 1101 1322 1593 1927 2306 2747
950.0 3187 3546 3733 3640 3275 2794 2300 1877 1607 1513
990.0 1598 1831 2130 2517 2961 3349 3659 3882 4098 4415
1030.0 4922 5596 6477 7386 8060 8325 8038 7354 6360 5184
1070.0 4069 3155 2605 2411 2423 2507 2527 2458 2330 2097
1110.0 1817 1601 1487 1431 1445 1498 1544 1641 1807 1951
1150.0 2055 2157 2293 2400 2494 2681 2827 2883 2853 2772
1190.0 2700 2608 2531 2472 2379 2251 2104 1933 1782 1692
1230.0 1654 1634 1665 1696 1719 1761 1803 1825 1839 1877
1270.0 1906 1937 1979 2003 2024 2043 2066 2125 2207 2301
1310.0 2405 2530 2659 2789 2929 3060 3180 3274 3284 3236
1350.0 3170 3100 3084 3090 3136 3249 3375 3437 3392 3260
1390.0 3014 2686 2295 1881 1565 1347 1186 1096 1019 991
1430.0 1044 1195 1367 1566 1902 2239 2547 2751 2883 3124
1470.0 3278 3178 2913 2615 2233 1675 1133 756 531 448
1510.0 349 235 194 158 115 86 81 107 122 92
1550.0 80 109 152 132 124 162 217 290 347 420
1590.0 515 640 749 809 823 803 745 631 471 319
1630.0 205 149 100 56 46 63 76 41 37 54
1670.0 86 126 155 191 183 142 154 163 109 61
1710.0 47 62 67 43 61 99 115 83 62 70
1750.0 87 66 54 66 79 99 108 130 176 211
1790.0 256 283 293 299 266 241 226 203 193 198
1830.0 196 178 166 176 163 120 100 107 117 138
1870.0 153 143 141 149 166 223 288 348 389 402
1910.0 391 359 313 248 200 210 244 280 310 301
1950.0 264 217 146 71 31 16 11 12 19 22
1990.0 25 17 9 13 6 0 12 29 23 14
2030.0 12 12 7 12 10 7 21 29 36 45
2070.0 37 38 43 35 36 41 43 43 39 48
2110.0 64 78 78 59 53 62 62 52 49 50
2150.0 57 68 57 53 57 48 49 44 41 47
2190.0 41 38 52 63 58 56 64 69 78 97
2230.0 97 88 92 102 104 101 94 85 90 84
2270.0 73 82 97 90 80 92 112 128 136 139
2310.0 146 148 142 130 120 95 77 81 86 88
2350.0 81 74 66 64 73 78 70 69 68 70
2390.0 81 79 75 72 68 73 75 81 83 78
2430.0 71 66 62 63 59 68 75 69 56 57
2470.0 65 58 55 61 63 61 63 60 52 57
2510.0 55 49 63 73 68 57 42 37 54 57
2550.0 61 72 77 81 82 80 72 78 85 79
2590.0 86 93 104 112 101 106 119 121 126 124
2630.0 108 98 103 113 109 113 128 118 100 122
2670.0 123 104 112 121 107 109 107 102 96 110
2710.0 117 120 137 145 153 167 175 200 217 213
2750.0 240 249 235 246 254 256 253 277 289 275
2790.0 291 317 348 377 386 401 444 514 581 668
2830.0 795 941 1158 1485 1943 2558 3245 3832 4186 4395
2870.0 4404 4130 3800 3593 3541 3668 3901 4173 4445 4727
2910.0 5014 5292 5609 5982 6475 7065 7696 8357 8926 9310
2950.0 9470 9418 9267 9008 8569 7868 6896 5748 4602 3531
2990.0 2615 1972 1668 1614 1716 1993 2434 2973 3503 3899
3030.0 4158 4312 4301 4132 3976 3898 3944 4177 4576 5004
3070.0 5276 5321 5149 4706 3984 3104 2250 1624 1230 939
3110.0 709 543 422 330 284 266 229 194 191 200
3150.0 199 199 174 171 175 149 157 170 164 134
3190.0 105 103 97 86 80 92 105 85 57 43
3230.0 53 74 72 50 55 51 42 73 61 37
3270.0 50 47 60 78 62 74 94 78 69 82
3310.0 78 69 92 100 90 89 93 93 91 96
3350.0 125 130 118 118 137 148 161 151 140 162
3390.0 167 162 171 163 147 152 153 142 143 142
3430.0 127 144 168 133 124 133 137 158 187 203
3470.0 211 220 203 165 172 220 211 189 205 202
3510.0 184 167 165 156 166 187 172 182 179 178
3550.0 187 173 160 182 237 230 193 200 225 235
3590.0 229 231 257 318 410 517 643 793 1008 1341
3630.0 1635 1837 2012 2076 2022 1886 1667 1413 1135 915
3670.0 760 590 448 385 361 319 277 256 248 251
3710.0 267 274 255 253 276 262 280 265 268 320
3750.0 298 243 232 249 242 240 247 264 255 227
3790.0 230 245 256 249 245 252 238 239 255 244
3830.0 268 308 304 295 290
##END=
