##TITLE=Benzyl 2,4-Dihydroxyphenyl ketone
##JCAMP-DX=4.24
##DATA TYPE=INFRARED SPECTRUM
##ORIGIN=EPA-IR VAPOR PHASE LIBRARY
##OWNER=SRD/NIST
Collection (C) 2018 copyright by the U.S. Secretary of Commerce
on behalf of the United States of America. All rights reserved.
##CAS REGISTRY NO=3669-41-8
##MOLFORM=C 14 H 12 O 3
##$NIST SOURCE=MSDC-IR
##STATE=gas
##XUNITS=1/CM
##YUNITS=ABSORBANCE
##XFACTOR=1.
##YFACTOR=0.001
##DELTAX=1.92898
##FIRSTX=549.8
##LASTX=4000.7
##FIRSTY=18.21
##MAXX=4000.7
##MINX=549.759
##MAXY=0.19074
##MINY=0.0001933
##NPOINTS=1790
##XYDATA=(X++(Y..Y))
549.759 18.21 20.5 22.74 24.46 24.93 24.44 23.08 20.7 17.74 14.94
569.049 12.22 9.69 7.97 6.81 5.94 5.59 5.65 6.14 7.13 8.62
588.339 10.63 13.45 17.01 21 24.64 27.35 28.47 27.83 25.7 22.12
607.628 17.95 14.37 12.02 10.78 10 9.86 10.08 10.25 10.4 10.15
626.918 9.83 9.44 9.04 8.8 8.78 8.86 8.76 8.51 8.24 7.93
646.208 7.35 6.83 6.49 6.15 6.04 6.28 6.56 6.73 7.26 8.15
665.498 8.83 9.15 9.63 10.27 10.74 11.16 11.58 12.1 12.79 13.8
684.787 15.04 16.51 18.5 20.83 23.13 25.91 29.5 33.6 37.83 41.24
704.077 43.08 43.13 41.66 39.13 36.17 33.55 31.54 30.39 29.76 29.2
723.367 28.86 28.53 28.15 27.42 26.21 24.56 22.5 20.41 18.38 16.66
742.657 15.34 14.41 13.75 13.26 12.95 12.78 12.76 13.12 13.81 14.61
761.947 15.64 17.04 18.73 20.51 22.26 23.93 25.54 26.89 27.95 28.64
781.236 28.77 28.68 28.68 28.85 29.12 29.39 29.47 29.35 28.85 27.67
800.526 26.02 24.12 21.87 19.62 17.51 15.6 14 12.71 11.71 10.87
819.816 10.21 9.82 9.71 10 10.83 11.98 13.43 15.16 16.76 18.24
839.106 19.34 19.28 18.25 16.89 15.44 13.93 12.89 12.3 12.07 12.31
858.395 12.87 13.11 12.76 12 10.84 9.62 8.5 7.5 6.52 5.77
877.685 5.32 4.98 4.65 4.26 3.92 3.9 3.99 3.88 3.68 3.73
896.975 3.93 4.03 4.09 4.12 4.18 4.26 4.33 4.45 4.56 4.77
916.265 5.09 5.26 5.44 5.81 6.11 6.22 6.28 6.3 6.17 5.98
935.555 5.91 5.89 5.68 5.59 5.67 5.91 6.21 6.61 7.25 7.99
954.844 9.18 10.51 11.91 13.59 15.52 17.65 19.92 21.74 22.98 23.91
974.134 23.86 22.77 21.14 19.16 17.17 15.81 15.09 15.26 16.28 17.41
993.424 18.32 18.91 18.84 18.04 16.54 15.04 13.82 12.52 11.43 10.82
1012.714 10.34 9.93 9.86 9.77 9.53 9.66 10.6 11.5 11.94 11.92
1032.003 11.04 9.91 8.44 6.69 4.98 4.01 3.77 3.69 3.61 3.6
1051.293 3.68 3.49 3.58 3.99 4.33 4.45 4.7 5.14 5.52 5.97
1070.583 6.44 6.6 6.68 6.52 6.17 6.4 6.99 7.32 7.5 8.07
1089.873 8.83 9.17 9.41 9.77 10.4 11.3 11.82 12.61 13.52 15.16
1109.163 17.76 20.84 24.98 30.2 37.12 46.08 57.13 70.18 83.95 95.72
1128.452 103.75 108.27 109.06 105.84 99.16 91.64 85.18 79.27 74.49 71.14
1147.742 69.88 71.13 73.96 77.57 80.99 82.81 82.66 81.56 79.68 77.23
1167.032 75.29 73.79 73.02 72.61 72.6 73.99 76.24 79.89 85.33 92.21
1186.322 99.81 106.13 109.82 110.63 108.61 103.31 95.29 87.5 80.97 75.32
1205.611 70.98 68.17 66.1 64.49 63.54 62.61 61.2 59.15 56.81 54.17
1224.901 51.7 49.67 48.05 46.98 46.37 45.92 45.78 45.9 45.95 46.36
1244.191 47.44 49.05 51.06 53.91 57.92 62.7 67.54 72.45 77.69 82.71
1263.481 86.97 89.99 91.38 91.05 88.99 85.35 80.45 74.63 68.53 62.35
1282.771 56.6 51.66 47.35 43.96 41.06 38.48 36.34 34.42 32.68 31.17
1302.060 29.92 29.23 29.2 29.79 31.19 33.35 36.12 39.38 42.79 46
1321.350 48.71 50.94 52.92 54.79 56.75 58.95 61.39 63.87 66.2 68.16
1340.640 69.5 69.92 69.06 66.89 63.51 59.21 54.67 50.55 47.26 44.89
1359.930 43.39 42.63 42.34 42.21 41.9 41.33 40.5 39.21 37.57 35.7
1379.219 33.63 31.57 29.56 27.6 25.88 24.47 23.15 21.87 20.7 19.7
1398.509 18.85 18.22 17.78 17.52 17.51 17.74 18.16 18.75 19.54 20.54
1417.799 21.83 23.57 25.79 28.53 31.94 35.97 40.65 45.66 50.46 54.48
1437.089 57.61 59.36 59.1 57.01 53.42 48.73 43.56 38.41 33.64 29.6
1456.378 26.2 23.53 21.65 20.25 19.24 18.62 18.42 18.58 19.07 19.84
1475.668 20.79 21.86 23.09 24.48 26.08 28.05 30.63 34.02 38.29 42.76
1494.958 46.62 49.65 51.82 53.12 53.58 53.51 53.77 54.52 54.93 54.54
1514.248 53.23 50.95 48.02 44.83 41.55 38.68 36.23 34.35 32.94 31.95
1533.538 31.25 30.74 30.44 30.28 30.23 30.12 30.08 30.21 30.43 30.67
1552.827 31.02 31.51 32.01 32.6 33.52 34.64 35.87 37.3 39.1 41.24
1572.117 43.73 46.65 49.94 53.66 57.82 62.61 67.83 73.51 79.46 85.11
1591.407 90 93.79 96.05 96.46 95.21 92.9 90.11 87.68 86.53 87.39
1610.697 90.42 95.65 102.34 110.14 118.04 124.49 129.07 131.77 132.95 133.72
1629.986 135.46 139.36 146.17 155.87 166.92 177.57 186.1 190.74 190.46 185.1
1649.276 175.05 161.39 144.71 128.05 112.39 97.41 84.04 72.05 61.79 53.15
1668.566 45.84 39.71 34.69 30.58 27.22 24.46 22.1 20.14 18.39 16.84
1687.856 15.52 14.4 13.45 12.51 11.71 11.1 10.47 9.9 9.51 9.06
1707.146 8.66 8.32 7.95 7.62 7.34 6.98 6.72 6.58 6.37 6.14
1726.435 5.97 5.78 5.57 5.36 5.22 5.19 5.01 4.81 4.69 4.51
1745.725 4.29 4.09 3.91 3.8 3.74 3.62 3.48 3.4 3.33 3.23
1765.015 3.13 3.09 3.11 3.15 3.16 3.18 3.24 3.23 3.24 3.3
1784.305 3.33 3.46 3.6 3.67 3.74 3.72 3.65 3.53 3.32 3.14
1803.594 3 2.78 2.61 2.59 2.58 2.54 2.48 2.37 2.28 2.28
1822.884 2.29 2.22 2.23 2.28 2.24 2.22 2.25 2.28 2.3 2.36
1842.174 2.42 2.47 2.55 2.65 2.75 2.85 2.93 3.01 3.12 3.19
1861.464 3.22 3.3 3.37 3.41 3.44 3.54 3.59 3.56 3.58 3.52
1880.754 3.4 3.29 3.19 3.04 2.81 2.66 2.59 2.47 2.41 2.35
1900.043 2.23 2.19 2.19 2.16 2.11 2.12 2.16 2.19 2.19 2.14
1919.333 2.24 2.41 2.55 2.68 2.75 2.91 3.13 3.3 3.35 3.39
1938.623 3.48 3.51 3.45 3.39 3.38 3.38 3.34 3.25 3.14 3.03
1957.913 2.94 2.73 2.48 2.3 2.14 1.97 1.85 1.75 1.64 1.6
1977.202 1.54 1.47 1.47 1.44 1.4 1.45 1.45 1.41 1.4 1.44
1996.492 1.46 1.41 1.35 1.37 1.41 1.38 1.32 1.29 1.32 1.3
2015.782 1.22 1.21 1.21 1.25 1.27 1.28 1.24 1.22 1.23 1.16
2035.072 1.14 1.12 1.1 1.08 1.07 1.06 1.03 0.9777 0.981 1.01
2054.362 1.03 1.1 1.12 1.11 1.12 1.13 1.13 1.12 1.14 1.15
2073.651 1.16 1.19 1.19 1.16 1.14 1.15 1.18 1.23 1.23 1.2
2092.941 1.21 1.31 1.37 1.38 1.38 1.41 1.39 1.32 1.34 1.37
2112.231 1.36 1.36 1.3 1.24 1.2 1.17 1.18 1.14 1.11 1.11
2131.521 1.1 1.1 1.1 1.13 1.13 1.12 1.08 1.06 1.09 1.16
2150.810 1.19 1.14 1.14 1.21 1.26 1.27 1.3 1.32 1.32 1.33
2170.100 1.37 1.41 1.38 1.36 1.35 1.36 1.38 1.36 1.31 1.32
2189.390 1.36 1.33 1.3 1.28 1.22 1.19 1.15 1.16 1.16 1.15
2208.680 1.15 1.13 1.11 1.07 1.07 1.1 1.08 1.07 1.07 1.07
2227.970 1.06 1.06 1.1 1.16 1.15 1.16 1.18 1.15 1.16 1.22
2247.259 1.27 1.25 1.28 1.3 1.29 1.27 1.25 1.3 1.38 1.39
2266.549 1.37 1.37 1.38 1.44 1.44 1.45 1.47 1.48 1.52 1.54
2285.839 1.48 1.51 1.56 1.5 1.47 1.5 1.54 1.56 1.59 1.64
2305.129 1.66 1.74 1.86 1.9 1.94 1.97 1.98 2.03 2.05 2.07
2324.418 2.08 2.13 2.21 2.22 2.24 2.27 2.36 2.46 2.43 2.4
2343.708 2.47 2.53 2.47 2.45 2.5 2.51 2.52 2.48 2.57 2.68
2362.998 2.69 2.71 2.75 2.76 2.69 2.7 2.69 2.64 2.63 2.6
2382.288 2.51 2.45 2.43 2.4 2.35 2.32 2.37 2.37 2.29 2.2
2401.578 2.16 2.2 2.2 2.18 2.11 2.08 2.06 2.03 2.06 2.08
2420.867 2.04 2.01 2.06 2.04 1.99 1.97 1.93 1.94 1.97 1.99
2440.157 2.03 2.06 2.05 2.03 2.07 2.12 2.16 2.22 2.25 2.26
2459.447 2.31 2.32 2.29 2.31 2.27 2.27 2.32 2.36 2.41 2.42
2478.737 2.45 2.5 2.52 2.55 2.59 2.57 2.52 2.52 2.6 2.66
2498.026 2.76 2.81 2.74 2.75 2.84 2.88 2.91 2.97 3.04 3.09
2517.316 3.12 3.15 3.17 3.17 3.2 3.23 3.18 3.13 3.12 3.17
2536.606 3.22 3.21 3.15 3.11 3.12 3.13 3.13 3.13 3.11 3.14
2555.896 3.14 3.06 3.04 2.99 3.03 3.05 3.04 3.12 3.13 3.13
2575.186 3.15 3.2 3.23 3.24 3.22 3.28 3.36 3.4 3.48 3.49
2594.475 3.56 3.62 3.57 3.61 3.72 3.8 3.84 3.83 3.8 3.86
2613.765 3.99 4.02 3.99 4.08 4.21 4.25 4.28 4.31 4.32 4.37
2633.055 4.45 4.42 4.43 4.43 4.37 4.41 4.49 4.56 4.53 4.43
2652.345 4.38 4.4 4.43 4.36 4.29 4.29 4.29 4.3 4.26 4.15
2671.634 4.19 4.3 4.28 4.24 4.29 4.35 4.36 4.44 4.54 4.61
2690.924 4.64 4.67 4.7 4.72 4.78 4.76 4.72 4.78 4.81 4.82
2710.214 4.83 4.74 4.66 4.65 4.73 4.84 4.79 4.67 4.63 4.6
2729.504 4.55 4.45 4.47 4.54 4.56 4.57 4.51 4.48 4.46 4.45
2748.794 4.51 4.55 4.52 4.48 4.44 4.51 4.46 4.44 4.58 4.64
2768.083 4.63 4.56 4.54 4.6 4.53 4.46 4.4 4.44 4.6 4.56
2787.373 4.45 4.41 4.35 4.26 4.23 4.22 4.19 4.21 4.26 4.26
2806.663 4.27 4.35 4.36 4.31 4.39 4.54 4.69 4.74 4.71 4.8
2825.953 4.91 4.85 4.91 4.99 4.99 5.09 5.17 5.34 5.39 5.37
2845.242 5.54 5.59 5.57 5.67 5.71 5.77 5.85 5.94 6.02 6.04
2864.532 6.05 6.05 6.11 6.2 6.22 6.25 6.25 6.29 6.41 6.48
2883.822 6.57 6.77 6.83 6.88 7.1 7.38 7.55 7.75 8.06 8.31
2903.112 8.61 8.92 9.15 9.37 9.59 9.75 9.78 9.85 9.95 10.08
2922.401 10.27 10.41 10.5 10.72 10.93 11.08 11.3 11.35 11.38 11.32
2941.691 11.24 11.23 11.14 10.95 10.88 10.98 10.97 10.96 11 11.06
2960.981 11.22 11.28 11.32 11.4 11.41 11.55 11.69 11.65 11.56 11.54
2980.271 11.56 11.56 11.55 11.55 11.58 11.76 11.91 11.86 11.9 12.11
2999.561 12.31 12.54 12.87 13.19 13.61 14.09 14.41 14.76 15.27 15.9
3018.850 16.68 17.59 18.81 20.32 21.89 23.49 25.04 26.45 27.53 27.99
3038.140 27.96 27.43 26.56 25.5 24.46 23.68 22.97 22.56 22.38 22.39
3057.430 22.59 22.97 23.82 25.19 26.86 28.69 30.36 31.19 31.1 30.35
3076.720 28.96 27.08 25.14 23.53 22.56 21.79 21.02 20.46 19.9 19.27
3096.009 18.64 17.94 17.21 16.6 16.01 15.42 15.07 14.71 14.21 13.68
3115.299 13.1 12.6 12.17 11.79 11.4 11.15 11.02 10.85 10.76 10.66
3134.589 10.51 10.39 10.32 10.26 10.17 10.15 10.09 10.1 10.14 9.93
3153.879 9.83 9.84 9.83 9.79 9.68 9.7 9.64 9.61 9.68 9.64
3173.169 9.55 9.45 9.37 9.37 9.41 9.45 9.46 9.34 9.17 9.25
3192.458 9.35 9.21 9.22 9.3 9.24 9.18 9.06 8.93 8.91 8.88
3211.748 8.76 8.67 8.68 8.52 8.4 8.46 8.39 8.3 8.27 8.31
3231.038 8.35 8.2 8.09 8.08 8.06 8.1 8.03 8.09 8.19 8.17
3250.328 8.19 8.23 8.2 8.16 8.24 8.22 8.2 8.22 8.2 8.26
3269.617 8.31 8.19 8.13 8.15 8.09 7.97 7.87 7.76 7.71 7.61
3288.907 7.47 7.47 7.45 7.33 7.23 7.15 7.14 6.99 6.89 6.86
3308.197 6.57 6.47 6.45 6.44 6.43 6.27 6.13 6.06 5.86 5.78
3327.487 5.74 5.61 5.62 5.64 5.57 5.55 5.49 5.34 5.21 5.07
3346.777 5.09 5.06 4.95 4.91 4.86 4.79 4.65 4.63 4.73 4.55
3366.066 4.43 4.49 4.38 4.26 4.32 4.43 4.39 4.19 4.14 4.04
3385.356 3.93 3.95 3.85 3.73 3.51 3.44 3.5 3.48 3.43 3.38
3404.646 3.29 3.16 3.15 3.19 3.27 3.26 3.08 3.03 3.07 3.03
3423.936 2.96 2.98 2.96 2.91 2.83 2.73 2.68 2.63 2.63 2.55
3443.225 2.48 2.4 2.29 2.29 2.27 2.2 2.1 2.2 2.3 2.17
3462.515 2.14 2.06 2.02 2.05 1.97 1.83 1.82 1.86 1.81 1.86
3481.805 1.99 1.85 1.68 1.67 1.65 1.58 1.72 1.89 1.77 1.64
3501.095 1.68 1.63 1.56 1.52 1.39 1.39 1.26 1.26 1.39 1.28
3520.385 1.24 1.18 1.1 1.16 1.21 1.35 1.4 1.31 1.28 1.28
3539.674 1.24 1.21 1.21 1.2 1.26 1.29 1.2 1.05 0.9506 1.05
3558.964 1.21 1.28 1.19 1.06 1.04 1.17 1.26 1.25 1.29 1.23
3578.254 1.2 1.18 1.13 1.11 1.15 1.25 1.26 1.29 1.37 1.37
3597.544 1.33 1.38 1.44 1.61 1.8 1.87 2.06 2.26 2.38 2.64
3616.833 3.03 3.65 4.47 5.54 7.07 9.48 13.2 18.51 25.68 35.16
3636.123 46.55 59.29 70.64 76.78 77.25 72.33 62.13 48.55 35.5 25.02
3655.413 16.72 11.03 7.56 5.43 4.05 3.2 2.69 2.28 2 1.8
3674.703 1.62 1.5 1.51 1.44 1.3 1.18 1.07 0.9804 0.9257 0.8948
3693.993 0.8072 0.7596 0.7189 0.5894 0.6522 0.6984 0.6245 0.632 0.622 0.6786
3713.282 0.5488 0.4688 0.5842 0.4918 0.3757 0.4832 0.5973 0.5246 0.5101 0.4629
3732.572 0.4121 0.5027 0.5093 0.523 0.5433 0.4481 0.4434 0.4851 0.425 0.4593
3751.862 0.4671 0.3892 0.3484 0.4338 0.4759 0.3754 0.4785 0.6165 0.5305 0.4444
3771.152 0.4632 0.502 0.4931 0.5267 0.5484 0.5355 0.4822 0.4606 0.4547 0.3809
3790.441 0.3707 0.3854 0.4046 0.3953 0.3696 0.4388 0.5674 0.6178 0.5107 0.2634
3809.731 0.2608 0.3403 0.4705 0.4803 0.407 0.4503 0.405 0.4095 0.4556 0.5128
3829.021 0.6533 0.666 0.6724 0.6655 0.5147 0.4582 0.4338 0.52 0.6034 0.5699
3848.311 0.5029 0.6377 0.6133 0.4534 0.4891 0.5497 0.4081 0.281 0.3264 0.3485
3867.601 0.4588 0.416 0.3902 0.5357 0.6318 0.6028 0.535 0.5419 0.6533 0.5498
3886.890 0.408 0.3516 0.3101 0.4978 0.6482 0.5871 0.3772 0.2012 0.1933 0.4279
3906.180 0.6442 0.6686 0.6456 0.6361 0.6664 0.6787 0.7268 0.7336 0.6696 0.7352
3925.470 0.7221 0.581 0.5799 0.5247 0.5374 0.5548 0.4063 0.441 0.518 0.4996
3944.760 0.3949 0.3379 0.4354 0.5142 0.5315 0.4827 0.5267 0.6218 0.6043 0.6553
3964.049 0.7413 0.7939 0.782 0.7354 0.7422 0.5625 0.5041 0.6586 0.7008 0.6757
3983.339 0.7434 0.7647 0.7961 0.8328 0.7081 0.7091 0.81 0.8612 0.8527 0.855
##END=
