##TITLE=Butyl trifluoroacetate
##JCAMP-DX=4.24
##DATA TYPE=INFRARED SPECTRUM
##ORIGIN=NIST Mass Spectrometry Data Center
##OWNER=NIST Standard Reference Data Program
Collection (C) 2018 copyright by the U.S. Secretary of Commerce
on behalf of the United States of America. All rights reserved.
##CAS REGISTRY NO=367-64-6
##MOLFORM=C 6 H 9 F 3 O 2
##$NIST SOURCE=MSDC-IR
##SPECTROMETER/DATA SYSTEM=HP-GC/MS/IRD
##STATE=gas
##XUNITS=1/CM
##YUNITS=ABSORBANCE
##XFACTOR=1.0
##YFACTOR=0.000021900
##DELTAX=4.0
##FIRSTX=550.0
##LASTX=3846.0
##FIRSTY=0.000657
##MAXX=3846
##MINX=550
##MAXY=0.219
##MINY=0
##NPOINTS=825
##XYDATA=(X++(Y..Y))
550.0 30 40 23 20 18 20 24 24 27 29
590.0 32 30 25 21 15 10 6 4 3 0
630.0 2 4 4 5 4 2 2 5 4 4
670.0 5 7 11 13 17 21 26 35 47 68
710.0 107 172 291 484 674 766 732 575 381 256
750.0 197 178 186 210 248 293 330 348 334 298
790.0 259 222 195 179 169 167 166 174 186 206
830.0 230 254 278 300 309 298 277 248 219 198
870.0 178 159 144 129 114 104 98 94 95 98
910.0 108 123 152 196 258 326 381 412 413 387
950.0 347 303 262 224 190 160 142 135 134 139
990.0 147 150 151 151 149 147 143 138 128 119
1030.0 113 115 127 150 180 215 249 280 298 299
1070.0 302 307 312 335 377 434 511 610 744 929
1110.0 1178 1501 1910 2445 3159 4111 5314 6680 8033 9161
1150.0 9856 10000 9641 8967 8210 7627 7325 7140 6818 6267
1190.0 5593 4976 4530 4284 4226 4337 4623 5073 5615 6060
1230.0 6130 5650 4716 3582 2531 1765 1289 995 804 670
1270.0 573 499 442 400 375 362 362 374 397 430
1310.0 472 525 594 683 798 941 1109 1286 1437 1508
1350.0 1478 1347 1145 936 756 614 509 443 412 404
1390.0 409 414 408 384 341 285 235 202 183 173
1430.0 171 178 190 205 227 254 291 330 363 379
1470.0 375 347 303 249 199 155 122 100 84 73
1510.0 66 59 56 55 52 51 55 63 72 80
1550.0 87 89 83 70 57 48 41 35 32 30
1590.0 28 27 25 24 24 25 26 26 24 25
1630.0 26 26 28 29 30 31 32 30 33 35
1670.0 37 39 41 44 48 50 53 57 61 67
1710.0 74 84 95 107 123 144 170 203 248 302
1750.0 369 449 543 664 825 1049 1366 1813 2461 3364
1790.0 4365 5074 5217 4759 3741 2612 1787 1243 884 651
1830.0 489 375 293 232 184 149 121 100 85 74
1870.0 66 60 55 50 47 44 43 43 41 37
1910.0 36 35 34 32 30 29 29 28 29 30
1950.0 31 30 29 29 28 27 27 26 25 25
1990.0 24 23 21 20 20 18 16 15 15 13
2030.0 13 14 13 12 11 12 12 11 12 13
2070.0 14 15 14 14 13 12 13 11 9 10
2110.0 10 10 9 8 7 5 7 6 4 3
2150.0 4 3 4 5 5 6 7 7 6 5
2190.0 5 6 5 4 4 3 2 1 2 2
2230.0 2 1 0 2 1 2 3 5 6 8
2270.0 10 12 13 15 18 20 20 21 21 23
2310.0 23 24 24 23 23 22 21 20 18 17
2350.0 16 15 14 13 12 13 12 13 14 15
2390.0 15 14 15 16 15 15 16 14 13 14
2430.0 13 13 14 13 13 15 16 17 17 18
2470.0 19 20 21 21 22 23 22 23 22 20
2510.0 18 16 15 15 14 13 12 10 10 12
2550.0 13 12 10 11 10 11 10 9 7 7
2590.0 8 7 6 7 7 6 5 5 6 6
2630.0 5 5 6 7 9 7 6 5 7 8
2670.0 7 8 7 6 7 9 7 7 9 8
2710.0 8 9 10 11 12 11 13 14 15 17
2750.0 19 20 21 22 22 25 26 30 34 37
2790.0 41 44 46 48 49 52 57 61 64 68
2830.0 73 83 98 115 137 164 193 230 269 313
2870.0 370 441 518 588 627 628 606 574 555 562
2910.0 592 636 685 735 789 851 940 1055 1171 1257
2950.0 1298 1318 1364 1479 1650 1807 1853 1734 1494 1199
2990.0 938 743 599 486 394 321 263 218 182 157
3030.0 140 125 112 98 86 74 67 59 51 46
3070.0 41 38 39 36 34 32 32 31 28 27
3110.0 27 27 25 22 22 21 21 20 21 20
3150.0 17 17 18 18 16 14 13 13 15 14
3190.0 15 16 14 12 13 12 9 6 7 10
3230.0 8 6 5 3 4 5 5 4 3 2
3270.0 2 2 3 2 1 2 1 0 3 6
3310.0 3 3 3 2 3 4 4 2 2 3
3350.0 5 7 4 2 1 1 4 6 2 1
3390.0 3 3 1 0 0 2 3 2 4 2
3430.0 4 5 4 4 4 3 5 7 5 4
3470.0 5 6 7 9 10 9 9 10 10 9
3510.0 9 13 13 12 16 17 21 25 27 29
3550.0 32 34 40 46 48 53 62 64 59 52
3590.0 44 37 30 25 24 21 18 16 14 13
3630.0 14 11 10 12 7 7 11 11 9 10
3670.0 11 9 11 12 12 14 12 8 7 9
3710.0 10 10 9 9 8 7 8 12 13 9
3750.0 9 10 9 10 10 8 9 8 8 9
3790.0 9 10 8 6 8 9 9 10 11 11
3830.0 10 9 8 9 11
##END=
