##TITLE=Diphenyl-2-pyridylmethane
##JCAMP-DX=4.24
##DATA TYPE=INFRARED SPECTRUM
##ORIGIN=NIST Mass Spectrometry Data Center
##OWNER=NIST Standard Reference Data Program
Collection (C) 2018 copyright by the U.S. Secretary of Commerce
on behalf of the United States of America. All rights reserved.
##CAS REGISTRY NO=3678-70-4
##MOLFORM=C 18 H 15 N
##$NIST SOURCE=MSDC-IR
##SPECTROMETER/DATA SYSTEM=HP-GC/MS/IRD
##STATE=gas
##XUNITS=1/CM
##YUNITS=ABSORBANCE
##XFACTOR=1.0
##YFACTOR=0.000001500
##DELTAX=4.0
##FIRSTX=550.0
##LASTX=3846.0
##FIRSTY=0.000401
##MAXX=3846
##MINX=550
##MAXY=0.015
##MINY=0
##NPOINTS=825
##XYDATA=(X++(Y..Y))
550.0 267 172 119 51 0 59 142 190 282 347
590.0 528 1106 2334 4112 5304 4935 3643 2835 2482 2127
630.0 1733 1311 964 718 597 591 670 855 1155 1617
670.0 2197 2701 3035 3486 4552 6450 8565 9514 8690 6729
710.0 4785 3590 3193 3398 3991 4623 5068 5675 6463 6806
750.0 6185 4911 3768 3043 2506 1932 1382 971 725 608
790.0 545 484 436 382 341 338 370 420 433 402
830.0 333 283 248 233 241 247 239 233 262 287
870.0 286 262 200 175 186 191 181 171 174 188
910.0 213 226 216 193 159 130 102 101 110 99
950.0 132 151 148 148 154 166 183 212 285 472
990.0 713 833 752 550 384 299 292 400 700 1266
1030.0 1768 1780 1347 937 837 807 660 513 479 556
1070.0 667 729 729 726 763 789 729 566 404 328
1110.0 277 217 160 139 172 200 274 453 623 672
1150.0 554 361 249 245 265 301 380 511 692 834
1190.0 851 739 574 452 381 335 315 328 364 397
1230.0 444 489 521 516 478 427 365 311 283 283
1270.0 284 286 312 342 359 359 346 356 382 392
1310.0 395 396 378 351 315 287 291 298 284 261
1350.0 239 226 220 232 242 259 303 319 309 298
1390.0 289 297 305 342 425 555 802 1288 2266 3856
1430.0 5258 5313 4032 2765 2446 2623 2851 3217 3738 4088
1470.0 3886 3208 2552 2331 2758 3800 4662 4431 3155 1771
1510.0 988 690 574 523 494 501 533 592 668 739
1550.0 861 1077 1459 2093 3012 4086 5146 6489 8024 8628
1590.0 7599 5745 4229 3233 2376 1636 1108 776 578 467
1630.0 396 350 309 273 257 265 262 245 244 227
1670.0 214 192 160 150 139 132 155 181 182 173
1710.0 157 156 160 160 168 197 230 241 264 300
1750.0 317 307 283 261 257 274 289 311 346 407
1790.0 499 573 583 532 441 354 296 265 252 246
1830.0 245 251 266 277 280 278 268 275 314 372
1870.0 411 422 421 410 407 412 387 330 287 273
1910.0 270 276 287 307 358 452 571 655 674 639
1950.0 585 532 462 374 309 257 200 149 114 87
1990.0 70 61 50 40 38 46 51 47 38 43
2030.0 53 48 34 41 42 33 36 27 28 32
2070.0 31 28 29 29 18 12 19 22 14 8
2110.0 18 25 23 25 16 19 21 18 29 28
2150.0 16 13 17 21 32 45 51 67 72 56
2190.0 48 44 43 39 29 22 21 35 34 33
2230.0 35 23 16 18 26 28 36 39 38 44
2270.0 45 42 46 56 60 70 83 85 84 91
2310.0 106 114 97 77 65 60 76 92 87 72
2350.0 60 54 46 43 44 49 48 41 43 48
2390.0 40 32 36 41 42 41 49 53 56 70
2430.0 65 60 62 63 66 64 67 71 68 51
2470.0 48 57 50 36 32 44 47 37 34 46
2510.0 57 49 45 53 60 69 59 51 49 44
2550.0 49 47 49 45 47 54 52 58 54 57
2590.0 53 54 81 91 77 68 60 51 45 43
2630.0 47 46 40 40 41 45 44 33 40 52
2670.0 40 27 25 17 22 22 10 8 11 19
2710.0 22 18 17 16 13 15 12 19 23 16
2750.0 25 39 33 26 42 53 48 46 45 36
2790.0 34 40 35 30 30 39 35 36 45 54
2830.0 65 82 97 95 95 107 123 124 133 163
2870.0 188 226 262 300 372 454 545 601 604 591
2910.0 586 554 475 406 354 314 296 265 221 216
2950.0 213 181 178 194 209 235 267 319 400 490
2990.0 607 813 1124 1592 2148 2673 3065 3362 3824 4534
3030.0 5173 5287 4875 4372 4184 4406 4963 5930 7431 9119
3070.0 10000 9347 7611 5975 4958 4144 3302 2535 1961 1596
3110.0 1317 1049 798 606 498 448 417 386 372 341
3150.0 300 276 254 232 217 203 166 129 110 86
3190.0 72 74 69 55 57 65 65 49 39 36
3230.0 34 29 10 11 22 33 49 40 21 20
3270.0 35 36 40 49 34 41 50 41 33 40
3310.0 42 22 13 26 46 47 32 31 40 19
3350.0 14 52 64 39 25 39 59 60 38 17
3390.0 29 52 60 53 44 44 58 60 40 42
3430.0 46 45 44 58 71 65 64 72 65 57
3470.0 56 58 66 80 76 57 51 45 55 57
3510.0 41 54 77 70 70 69 79 73 69 83
3550.0 84 72 53 61 70 77 80 82 74 65
3590.0 64 59 63 77 75 70 85 101 90 103
3630.0 115 102 97 102 112 125 142 131 118 127
3670.0 137 147 143 116 116 138 138 124 122 133
3710.0 125 107 109 125 120 102 104 103 105 127
3750.0 112 97 98 86 94 90 71 81 89 74
3790.0 72 80 84 81 69 67 77 87 71 69
3830.0 90 98 105 91 95
##END=
