##TITLE=4-(Trifluoromethyl)phenyl hydrazine
##JCAMP-DX=4.24
##DATA TYPE=INFRARED SPECTRUM
##ORIGIN=EPA-IR VAPOR PHASE LIBRARY
##OWNER=SRD/NIST
Collection (C) 2018 copyright by the U.S. Secretary of Commerce
on behalf of the United States of America. All rights reserved.
##CAS REGISTRY NO=368-90-1
##MOLFORM=C 7 H 7 F 3 N 2
##$NIST SOURCE=MSDC-IR
##STATE=gas
##XUNITS=1/CM
##YUNITS=ABSORBANCE
##XFACTOR=1.
##YFACTOR=0.001
##DELTAX=1.92898
##FIRSTX=549.8
##LASTX=4000.7
##FIRSTY=23.368
##MAXX=4000.7
##MINX=549.759
##MAXY=0.347708
##MINY=0
##NPOINTS=1790
##XYDATA=(X++(Y..Y))
549.759 23.368 24.078 24.898 25.428 25.918 25.418 25.758 27.388 28.098 28.078
569.049 28.518 29.558 29.718 29.638 29.638 29.908 30.858 31.038 30.528 30.268
588.339 30.608 31.258 31.178 30.788 30.268 29.488 28.318 27.178 26.298 24.988
607.628 23.518 22.478 21.508 19.818 18.338 17.378 16.558 16.018 14.728 13.608
626.918 12.828 12.388 12.588 12.278 11.718 11.448 10.778 10.258 10.468 10.748
646.208 10.278 9.598 8.868 7.688 7.178 7.008 7.088 6.988 6.568 6.818
665.498 6.398 6.058 6.318 6.708 7.268 7.278 7.568 7.638 6.928 6.878
684.787 7.658 8.208 8.158 7.878 7.848 7.968 8.348 8.438 8.138 7.758
704.077 7.518 8.088 8.368 7.998 8.058 7.768 7.228 7.528 7.758 7.858
723.367 7.998 7.598 7.518 8.078 8.398 8.248 7.838 7.808 7.818 7.698
742.657 8.068 8.458 8.408 8.368 8.168 8.008 8.688 9.208 9.138 9.548
761.947 10.098 10.468 10.688 10.868 11.578 11.898 11.828 11.808 11.698 12.118
781.236 12.818 12.968 13.628 14.298 14.358 14.708 15.308 15.958 16.748 17.848
800.526 19.178 20.498 21.868 23.778 25.898 28.018 30.178 32.018 33.418 35.148
819.816 36.808 38.358 40.478 41.808 42.398 41.838 40.028 38.698 37.658 36.418
839.106 34.528 31.348 28.598 26.758 25.008 23.348 21.488 19.778 18.958 18.418
858.395 17.528 17.458 18.248 19.108 20.028 21.248 22.258 22.908 23.748 24.728
877.685 25.028 24.278 23.668 23.318 22.178 20.788 19.668 18.458 17.458 16.768
896.975 15.788 15.078 14.598 14.098 13.478 12.618 12.508 11.728 10.708 10.138
916.265 9.768 9.798 9.148 9.028 9.628 9.698 9.238 9.108 9.228 8.948
935.555 8.368 8.858 9.328 8.578 8.328 8.318 7.698 7.388 7.428 7.138
954.844 6.768 6.518 6.338 6.038 5.618 5.608 5.298 5.408 5.548 5.408
974.134 5.488 5.138 5.098 5.148 4.798 4.418 4.988 5.268 5.488 5.838
993.424 5.818 5.958 6.468 8.228 10.008 11.368 12.808 13.858 14.638 14.938
1012.714 14.028 12.958 11.158 8.938 7.638 6.958 6.728 6.768 7.128 6.618
1032.003 6.698 7.278 7.268 7.268 7.168 7.688 8.008 7.768 8.948 11.028
1051.293 13.378 16.848 21.888 31.138 44.028 59.148 76.498 92.278 102.578 108.878
1070.583 112.588 112.098 102.458 84.888 65.598 48.858 39.358 33.508 30.228 28.908
1089.873 27.648 27.108 27.018 27.788 30.008 30.568 33.648 39.658 43.138 47.418
1109.163 53.298 60.338 67.588 75.368 85.128 95.748 105.548 117.758 130.518 142.948
1128.452 156.288 168.028 179.568 190.598 198.608 198.988 189.388 175.328 160.328 146.598
1147.742 133.458 119.838 110.518 106.618 106.998 112.588 119.798 125.578 129.248 129.968
1167.032 125.018 117.078 107.998 100.408 95.868 93.298 89.178 82.898 77.078 70.568
1186.322 63.708 54.928 45.858 38.278 31.268 24.548 18.358 13.228 10.798 9.188
1205.611 9.168 9.688 9.198 8.918 7.698 6.968 7.808 8.288 8.738 8.638
1224.901 8.418 7.708 6.818 8.228 9.848 10.548 11.268 12.178 13.188 14.008
1244.191 15.788 17.118 17.398 18.568 20.348 22.868 26.188 29.238 32.718 36.638
1263.481 39.468 41.618 43.418 44.508 44.138 41.698 38.918 35.908 32.798 30.328
1282.771 28.458 27.868 28.318 29.378 31.588 34.838 38.738 43.798 50.008 57.668
1302.060 67.188 79.328 94.478 112.198 132.588 156.708 185.428 218.178 253.748 288.598
1321.350 317.818 338.298 347.708 343.818 324.988 292.188 249.268 201.988 156.248 117.198
1340.640 86.858 65.298 50.688 41.148 34.768 30.148 26.778 24.128 21.828 19.868
1359.930 18.348 17.178 15.828 14.458 13.618 12.938 12.068 11.258 10.568 9.888
1379.219 9.218 8.768 8.528 8.328 8.068 8.008 8.058 8.008 7.998 7.918
1398.509 7.588 7.498 7.448 7.238 7.028 6.638 6.468 6.358 6.068 5.628
1417.799 5.308 5.118 5.078 5.098 4.898 4.708 4.598 4.438 4.468 4.768
1437.089 4.908 4.958 4.718 4.608 5.038 5.508 5.838 5.808 6.038 6.578
1456.378 6.958 7.488 8.008 8.618 9.358 9.938 10.238 10.438 10.858 10.858
1475.668 10.418 10.148 9.588 8.678 7.898 7.398 7.068 6.708 6.228 5.888
1494.958 5.858 5.988 6.308 7.028 7.918 9.078 10.918 13.438 16.308 19.698
1514.248 22.918 25.748 28.098 28.928 28.668 27.608 25.158 21.798 18.078 14.788
1533.538 12.098 10.268 9.208 8.538 8.128 7.588 7.228 6.978 7.028 7.008
1552.827 6.988 7.428 7.588 7.588 7.688 7.758 7.678 7.738 8.058 8.118
1572.117 8.338 8.848 9.148 9.318 9.688 10.478 11.348 12.158 13.338 14.538
1591.407 16.058 18.768 21.788 25.138 29.218 34.298 40.308 47.248 54.258 61.618
1610.697 68.808 74.638 78.688 81.368 81.928 80.108 76.608 71.528 65.818 59.568
1629.986 52.988 46.958 41.618 36.598 32.428 28.818 25.608 22.828 20.398 18.158
1649.276 16.288 14.868 13.468 12.518 11.438 10.178 9.228 8.328 7.738 7.318
1668.566 6.818 6.338 5.948 5.828 5.288 4.708 4.448 4.268 4.188 4.008
1687.856 3.898 3.818 3.528 3.358 3.498 3.538 3.548 3.388 3.118 3.128
1707.146 2.938 2.808 2.958 2.998 2.958 2.848 2.788 2.638 2.518 2.648
1726.435 2.848 2.838 2.688 2.758 2.888 2.928 2.788 2.758 3.198 3.468
1745.725 3.328 3.378 3.568 3.588 3.528 3.618 3.618 3.488 3.438 3.198
1765.015 3.098 3.168 2.988 2.598 2.378 2.398 2.388 2.278 2.098 2.108
1784.305 2.238 2.328 2.288 2.158 2.168 2.258 2.138 2.238 2.278 1.938
1803.594 1.908 2.088 2.138 2.108 2.098 2.158 2.248 2.198 2.248 2.288
1822.884 2.018 2.108 2.208 2.178 2.118 1.868 1.7569 2.018 2.328 2.278
1842.174 2.178 2.018 1.838 2.038 2.248 2.288 2.138 2.098 2.198 2.288
1861.464 2.498 2.558 2.668 2.818 2.988 3.098 3.298 3.648 3.828 3.958
1880.754 4.068 4.098 4.038 4.088 4.268 4.258 4.088 3.868 3.668 3.698
1900.043 3.698 3.678 3.528 3.358 3.278 3.088 2.928 2.788 2.748 2.738
1919.333 2.498 2.328 2.378 2.388 2.278 2.228 2.358 2.278 1.988 1.968
1938.623 2.068 2.058 2.018 1.898 1.818 1.828 1.838 1.928 1.928 1.808
1957.913 1.768 1.838 1.858 1.741 1.758 1.697 1.6405 1.6241 1.6692 1.7487
1977.202 1.3642 1.2986 1.7479 1.7159 1.4789 1.5747 1.7401 1.7543 1.6958 1.7307
1996.492 1.6727 1.537 1.5463 1.5675 1.591 1.6661 1.5996 1.5057 1.3662 1.3992
2015.782 1.5503 1.6189 1.5454 1.4005 1.4277 1.5302 1.5193 1.4862 1.4632 1.4721
2035.072 1.5184 1.4259 1.5159 1.5704 1.4426 1.4689 1.6492 1.838 1.7166 1.4879
2054.362 1.5522 1.6772 1.7105 1.788 1.838 1.788 1.768 1.838 1.998 2.058
2073.651 1.908 1.858 1.878 1.948 2.048 1.988 1.978 1.958 1.898 1.948
2092.941 1.988 1.778 1.6365 1.798 1.828 1.808 1.6988 1.6353 1.6269 1.5428
2112.231 1.6891 1.637 1.4825 1.6165 1.6739 1.6662 1.5924 1.5327 1.7093 1.788
2131.521 1.6846 1.6207 1.6768 1.6739 1.6316 1.6249 1.6196 1.6538 1.6485 1.477
2150.810 1.5017 1.6321 1.4149 1.3279 1.5077 1.6621 1.6106 1.612 1.4847 1.2849
2170.100 1.4391 1.7408 1.898 1.758 1.7472 1.928 1.988 1.848 1.778 1.7355
2189.390 1.828 1.868 1.798 1.757 1.6772 1.838 1.968 1.948 1.838 1.7416
2208.680 1.888 1.788 1.5269 1.5665 1.6692 1.7446 1.908 1.898 1.6351 1.7426
2227.970 1.888 1.808 1.6914 1.5728 1.6635 1.7137 1.735 1.848 1.828 1.808
2247.259 1.978 1.908 1.918 2.138 1.968 1.818 1.958 2.178 2.148 2.008
2266.549 1.978 1.918 1.868 1.928 1.918 1.788 1.778 1.7509 1.808 1.878
2285.839 1.778 1.6644 1.6792 1.808 1.808 1.6514 1.7171 1.6984 1.868 1.998
2305.129 1.6937 1.808 2.078 1.928 1.798 1.818 1.858 1.6741 1.7236 1.898
2324.418 1.948 1.948 1.6705 1.6642 1.7429 1.808 1.878 1.697 1.4902 1.6866
2343.708 1.868 1.666 1.4268 1.5394 1.4534 1.1742 1.2468 1.3233 1.5006 1.5337
2362.998 1.3087 1.2092 1.0194 0.802 1.0398 1.1477 1.0448 1.1049 1.2046 1.2426
2382.288 1.4074 1.3972 1.3976 1.5067 1.2568 1.1781 1.541 1.5423 1.2624 1.2434
2401.578 1.2939 1.3421 1.3386 1.3059 1.2558 1.4187 1.4258 1.1417 1.2645 1.3537
2420.867 1.2543 1.2139 1.1379 1.2862 1.4097 1.392 1.3216 1.3869 1.577 1.5391
2440.157 1.5343 1.5047 1.4879 1.4973 1.3309 1.3735 1.3964 1.4714 1.6493 1.6883
2459.447 1.778 1.6082 1.4162 1.4701 1.3887 1.4513 1.457 1.5295 1.4863 1.3686
2478.737 1.7018 1.6837 1.3846 1.4809 1.4979 1.3571 1.369 1.4146 1.3352 1.3477
2498.026 1.416 1.2536 1.3114 1.5384 1.4342 1.376 1.3936 1.4029 1.5523 1.6195
2517.316 1.598 1.5681 1.4363 1.4005 1.5571 1.5872 1.3381 1.2899 1.1908 0.9724
2536.606 1.3528 1.5427 1.6372 1.818 1.6589 1.6563 1.642 1.768 1.908 1.6971
2555.896 1.918 2.158 2.068 2.058 1.988 2.188 2.528 2.378 2.288 2.458
2575.186 2.518 2.518 2.568 2.558 2.458 2.648 2.608 2.468 2.608 2.538
2594.475 2.438 2.228 2.038 1.918 2.058 2.128 1.978 2.198 2.228 1.958
2613.765 1.908 1.888 1.868 1.888 1.878 1.798 1.878 2.128 2.198 2.188
2633.055 2.038 2.028 2.218 2.128 2.018 2.088 1.998 2.148 2.288 1.978
2652.345 1.7027 1.968 1.968 1.4865 1.4705 1.4795 1.2922 1.3681 1.4529 1.364
2671.634 1.4153 1.289 1.164 1.0484 0.9711 1.1013 1.2402 1.0503 0.9284 1.1685
2690.924 1.2461 1.2211 1.0754 1.1387 1.3232 1.2092 1.1957 1.0709 0.83366 0.9712
2710.214 1.0883 1.1135 1.295 1.2532 1.127 1.1349 1.0966 1.2188 1.336 1.2845
2729.504 1.396 1.4098 1.2497 1.3324 1.557 1.5393 1.3703 1.5806 1.3137 0.9622
2748.794 1.3578 1.5156 1.4115 1.154 1.0835 1.2855 1.2921 1.2363 1.2671 1.0886
2768.083 0.77954 1.0932 1.333 1.1006 1.2486 1.4513 1.3343 1.2244 1.2974 1.4323
2787.373 1.3844 1.1419 1.0515 1.5096 1.948 1.7083 1.3903 1.3916 1.6055 1.4611
2806.663 1.2023 1.038 0.9173 1.1051 1.5322 1.7362 1.3878 1.2647 1.1951 1.427
2825.953 1.5698 1.3818 1.348 1.1921 1.4519 1.858 1.988 1.7527 1.4649 1.287
2845.242 1.2754 1.2013 1.4216 1.6244 1.4723 1.3445 1.1205 0.9567 1.1759 1.6736
2864.532 1.6004 1.4594 1.5805 1.6576 1.5526 1.5691 1.7205 1.3807 1.4115 1.6102
2883.822 1.4599 1.6174 1.788 1.6992 1.798 1.768 1.2465 1.0759 1.2984 1.4132
2903.112 1.1598 1.115 1.4293 1.5263 1.778 1.878 1.6478 1.6303 1.6075 1.4499
2922.401 1.5009 1.6305 1.5796 1.7498 1.988 2.028 2.248 2.438 2.048 2.268
2941.691 2.738 2.778 2.738 2.248 1.808 1.888 1.998 2.018 1.848 1.706
2960.981 1.7132 1.613 1.908 2.008 1.778 1.5758 1.4863 1.5324 1.3385 1.164
2980.271 1.4049 1.888 1.968 1.6902 1.6041 1.7302 1.838 1.7435 1.6724 1.798
2999.561 2.098 2.178 1.6306 1.6146 2.088 2.328 2.648 3.148 3.478 3.358
3018.850 3.448 3.818 4.088 4.228 4.598 5.208 5.588 6.028 6.218 6.648
3038.140 6.868 6.338 6.318 6.228 5.938 6.098 5.568 4.978 5.058 4.928
3057.430 4.638 4.538 4.368 4.118 4.308 4.458 4.538 4.878 5.208 5.008
3076.720 4.368 4.018 4.428 4.598 4.098 3.438 3.318 3.618 3.628 3.448
3096.009 3.028 2.658 2.378 2.508 2.948 2.978 2.648 2.308 2.018 2.298
3115.299 2.768 2.428 2.208 2.248 2.498 2.298 1.958 2.068 2.128 2.088
3134.589 1.768 1.6174 1.637 1.928 2.068 1.788 1.6296 1.458 1.4916 1.808
3153.879 1.798 1.68 1.5574 1.3024 1.4412 1.2649 1.298 1.356 0.9514 1.0431
3173.169 1.2334 1.5118 1.5393 1.2646 1.5333 1.828 1.4703 1.1946 1.1686 1.3023
3192.458 1.4576 1.3865 1.1808 1.1416 1.2659 1.4719 1.4635 1.5176 1.6449 1.3381
3211.748 1.29 1.4397 1.3441 1.0661 0.9584 1.0469 1.2735 1.7432 1.828 1.3357
3231.038 1.2143 1.6159 2.178 2.128 1.7548 1.858 1.4773 1.5805 2.188 1.968
3250.328 1.6275 1.5724 1.6471 1.6875 1.768 1.908 1.998 1.878 1.958 2.058
3269.617 2.028 1.768 1.5273 1.6151 1.1694 1.0447 1.6049 1.788 2.088 2.298
3288.907 2.078 1.818 1.7539 1.938 1.948 1.798 1.868 2.418 2.558 2.348
3308.197 2.818 3.018 2.648 2.388 2.048 1.978 1.858 1.6563 1.828 1.808
3327.487 1.928 1.838 1.4501 1.6285 1.5278 1.158 1.3458 1.3927 1.0986 0.9607
3346.777 1.2048 1.5788 1.828 1.918 1.818 1.5866 1.768 2.168 2.238 2.498
3366.066 2.698 3.068 3.748 4.358 4.468 4.468 4.848 4.958 4.788 4.958
3385.356 5.038 4.518 4.128 3.728 3.618 3.828 3.658 3.108 3.248 3.518
3404.646 3.668 4.238 4.288 4.398 4.928 5.538 5.368 5.208 6.108 7.208
3423.936 7.868 8.578 9.328 9.938 10.628 10.758 10.448 10.688 9.978 8.698
3443.225 7.888 6.828 6.108 5.068 4.378 3.878 3.158 3.288 2.858 2.638
3462.515 2.688 2.208 2.148 2.328 2.318 2.088 1.928 1.427 1.3254 1.5705
3481.805 1.5875 1.938 1.998 1.6169 1.4955 1.5801 1.768 1.868 1.63 1.059
3501.095 0.7154 0.77653 0.84816 0.9876 1.0432 0.74967 1.0938 1.1783 0.581 0.7069
3520.385 1.0539 0.9835 0.84066 0.6829 1.0535 0.9975 0.367 0.9441 1.3582 1.2514
3539.674 1.0698 0.6797 0.7199 1.0739 0.7426 0.484 0.77628 0.7247 0.7157 0.7267
3558.964 0.31 0.286 1.1764 1.5511 1.2548 1.1852 1.2591 0.933 0.761343 1.1696
3578.254 0.7366 0.468 1.4345 1.206 0.548 1.0473 1.2201 1.0532 1.0915 0.9728
3597.544 1.1439 1.4631 1.2498 0.547 0.573 0.81458 0.74 0.77147 0.9562 1.1784
3616.833 0.9787 0.643 0.549 0.9916 1.1563 1.0059 1.0188 1.3311 0.9335 0.393
3636.123 0.247 0.7302 1.3533 1.4885 1.3421 1.0602 0.577 0.593 1.2148 1.0782
3655.413 0.88 0.624 0.578 0.80463 0.9581 0.54 0.78742 1.5023 1.3909 1.3978
3674.703 0.9294 0.421 0.536 0.489 0.9713 1.3889 1.2139 1.7444 1.848 0.9138
3693.993 0.302 0.147 0 0.634 1.5695 1.6545 1.5332 1.0972 1.0742 1.044
3713.282 0.8857 0.622 0.645 1.243 1.0415 0.9191 1.2997 1.3503 1.1205 1.1145
3732.572 1.1287 1.4756 1.0886 1.1071 1.3653 1.0413 1.0792 1.0019 1.2186 1.3802
3751.862 1.1731 1.3585 1.3563 1.1375 1.3242 0.9705 1.0443 1.0356 0.539 0.563
3771.152 0.408 0.146 0.479 0.9042 1.0463 1.1179 1.3825 1.5767 1.5376 1.7057
3790.441 1.5489 0.9366 0.7515 1.0869 1.1556 0.81646 0.208 0.103 0.79408 0.8793
3809.731 0.9288 1.3008 0.83223 0.542 0.74836 0.628 0.481 0.41 0.491 0.6658
3829.021 0.625 0.618 0.626 0.82998 0.9726 1.2154 0.77808 0.243 0.477 0.642
3848.311 0.563 0.79607 1.1902 1.0339 1.1479 0.9666 0.7178 0.9792 1.4326 1.2586
3867.601 1.2772 1.7428 1.4414 1.1948 1.3789 1.4417 1.5257 1.1852 0.7006 0.657
3886.890 0.6733 1.0969 1.5696 0.8747 0.254 0.383 0.545 1.0592 1.4006 1.3298
3906.180 1.1236 0.8873 0.75053 0.77773 1.176 1.1403 0.9175 1.2375 1.3393 1.2668
3925.470 1.2714 1.5609 1.371 0.8165 0.634 0.8886 1.0314 0.85543 1.1276 1.0095
3944.760 1.3559 1.5943 0.9068 1.0648 1.7143 1.5637 1.3126 1.5003 1.3124 0.75132
3964.049 0.9524 1.7117 1.6407 1.5091 1.4094 1.3439 1.4025 0.84846 0.427 0.8824
3983.339 1.1196 1.2197 1.0266 0.562 0.6607 0.77558 1.1807 1.1041 1.3043 1.254
##END=
