##TITLE=4-(Trifluoromethyl)-1,2-phenyldiamine
##JCAMP-DX=4.24
##DATA TYPE=INFRARED SPECTRUM
##ORIGIN=EPA-IR VAPOR PHASE LIBRARY
##OWNER=SRD/NIST
Collection (C) 2018 copyright by the U.S. Secretary of Commerce
on behalf of the United States of America. All rights reserved.
##CAS REGISTRY NO=368-71-8
##MOLFORM=C 7 H 7 F 3 N 2
##$NIST SOURCE=MSDC-IR
##STATE=gas
##XUNITS=1/CM
##YUNITS=ABSORBANCE
##XFACTOR=1.
##YFACTOR=0.001
##DELTAX=1.92898
##FIRSTX=549.8
##LASTX=4000.7
##FIRSTY=29.044
##MAXX=4000.7
##MINX=549.759
##MAXY=0.372624
##MINY=0
##NPOINTS=1790
##XYDATA=(X++(Y..Y))
549.759 29.044 28.374 28.284 28.784 29.104 29.334 28.974 29.204 29.464 29.884
569.049 30.524 31.394 33.004 33.964 35.034 35.754 36.584 37.604 38.834 40.974
588.339 43.124 43.544 43.944 45.194 45.504 45.764 46.564 47.724 48.744 50.204
607.628 51.654 52.194 53.714 56.114 58.914 60.574 62.564 64.904 65.484 65.334
626.918 64.234 61.864 58.494 54.774 50.524 47.044 44.324 41.624 39.754 38.944
646.208 38.394 37.954 37.994 37.824 38.144 38.914 39.334 39.724 40.334 41.094
665.498 41.414 41.504 41.664 41.734 41.694 41.534 40.994 40.644 40.534 39.824
684.787 38.634 37.994 37.994 37.504 36.704 35.994 35.594 34.774 33.794 33.114
704.077 32.274 31.414 30.974 30.604 30.094 29.634 29.474 28.824 28.504 28.854
723.367 28.074 27.384 27.834 28.674 29.234 29.964 31.184 32.284 32.704 32.664
742.657 32.564 32.544 32.194 31.024 29.424 27.364 25.214 24.184 23.394 23.114
761.947 23.614 23.294 22.894 22.574 21.744 21.234 21.284 20.954 20.584 20.464
781.236 20.584 20.644 20.674 21.184 21.654 22.854 24.974 27.214 29.514 31.794
800.526 33.724 35.884 38.464 41.294 43.914 45.514 45.944 44.044 41.454 39.404
819.816 37.724 37.174 35.844 30.914 27.174 25.924 23.834 22.274 21.404 20.544
839.106 19.634 18.574 17.874 18.204 18.634 18.914 19.554 20.484 21.904 23.224
858.395 24.404 25.974 27.864 29.694 31.534 33.874 35.394 35.864 36.134 35.714
877.685 33.444 31.294 29.824 28.194 27.024 25.584 23.974 22.514 21.384 20.864
896.975 20.684 21.014 21.554 22.504 23.694 25.534 28.274 30.934 33.254 35.194
916.265 36.864 37.784 37.584 36.834 34.984 31.954 28.764 25.844 22.944 20.794
935.555 18.974 17.704 16.964 15.564 14.504 14.094 13.434 13.164 12.884 12.404
954.844 11.994 11.664 11.544 11.314 11.234 11.154 10.364 10.024 10.214 9.924
974.134 10.114 10.064 10.064 10.094 10.574 10.954 10.464 10.264 10.414 10.864
993.424 10.694 10.044 10.574 10.604 10.394 10.594 10.104 9.454 9.334 9.844
1012.714 9.684 9.734 10.524 10.744 9.854 9.864 10.874 10.934 10.534 10.894
1032.003 11.984 11.744 11.644 12.694 14.354 14.604 14.614 16.784 18.264 19.894
1051.293 22.534 25.344 29.244 34.724 40.524 46.504 53.564 60.194 66.324 72.374
1070.583 76.584 78.974 79.294 76.414 71.624 65.324 58.934 53.344 46.534 41.654
1089.873 38.984 37.094 35.924 35.214 36.814 38.974 39.254 39.854 42.554 45.524
1109.163 51.754 59.554 66.354 75.254 87.294 103.334 121.794 141.034 162.414 184.984
1128.452 209.104 237.584 268.384 294.014 304.904 296.884 279.174 259.344 237.444 214.364
1147.742 189.634 167.494 150.954 143.094 146.064 157.424 173.464 190.894 206.434 214.644
1167.032 211.514 196.124 175.024 155.374 138.984 123.814 106.114 87.744 71.384 57.744
1186.322 48.574 42.364 37.364 33.604 31.604 30.754 30.574 31.064 32.174 34.474
1205.611 37.504 41.884 47.454 55.794 63.964 71.204 82.214 93.564 103.664 112.134
1224.901 117.904 120.844 117.554 110.834 101.854 91.304 78.794 66.454 55.214 46.234
1244.191 40.994 36.624 32.584 29.544 27.344 26.204 25.884 25.594 25.834 26.274
1263.481 27.434 28.084 28.294 29.344 30.654 32.124 33.044 33.854 34.714 35.324
1282.771 36.844 38.844 40.884 43.804 47.624 51.734 55.804 59.474 61.964 63.574
1302.060 64.724 65.784 67.404 69.944 74.184 82.684 97.414 119.704 150.584 188.924
1321.350 231.614 274.544 313.314 343.664 363.734 372.624 369.504 353.764 325.944 290.104
1340.640 252.924 219.704 190.964 165.844 142.304 119.814 98.894 79.804 63.714 51.374
1359.930 42.614 37.014 33.674 31.664 30.414 29.274 28.294 27.014 25.254 23.354
1379.219 21.194 19.194 17.204 15.344 13.854 12.794 12.064 11.604 11.474 11.244
1398.509 10.934 10.804 10.884 11.154 11.544 11.984 12.484 13.424 14.784 16.054
1417.799 17.584 19.624 21.734 23.894 26.414 29.294 32.534 35.934 39.424 42.954
1437.089 46.344 49.184 51.154 52.084 51.914 50.534 47.964 44.504 40.274 35.664
1456.378 30.784 26.304 22.704 19.714 17.424 15.614 13.894 12.464 11.584 10.584
1475.668 9.844 9.624 9.324 8.904 8.944 9.054 9.224 9.534 9.944 10.784
1494.958 11.694 12.504 13.754 15.804 18.384 21.004 24.474 28.234 31.764 35.944
1514.248 39.814 43.044 45.734 47.394 47.984 47.004 44.714 41.724 38.074 33.974
1533.538 29.414 25.104 21.564 18.534 16.124 14.404 12.994 11.944 11.414 11.114
1552.827 10.874 10.694 10.684 10.884 11.054 11.234 12.054 12.834 13.284 13.894
1572.117 14.774 15.704 16.984 18.714 20.404 22.434 24.824 27.264 29.894 32.784
1591.407 35.174 37.714 40.034 41.534 42.824 43.924 45.084 46.164 47.754 49.874
1610.697 52.624 56.694 61.304 66.544 72.324 78.384 83.824 88.154 91.244 92.384
1629.986 91.704 89.194 85.134 79.664 73.274 66.454 59.204 51.924 44.944 38.874
1649.276 33.584 29.594 25.874 22.424 19.924 17.934 16.374 14.964 13.544 12.434
1668.566 11.774 10.934 10.124 9.744 9.154 8.704 8.614 8.364 8.104 7.894
1687.856 7.754 7.624 7.214 6.944 6.904 6.684 6.544 6.464 6.474 6.364
1707.146 6.234 6.284 6.134 6.124 6.294 6.414 6.634 6.774 6.674 6.724
1726.435 7.004 7.264 7.694 7.754 7.744 7.894 7.734 7.574 7.544 7.454
1745.725 7.264 6.914 6.644 6.464 6.184 5.964 5.814 5.774 5.614 5.404
1765.015 5.234 5.234 5.184 4.864 4.834 4.904 4.864 4.844 4.904 4.824
1784.305 4.714 4.654 4.374 4.374 4.574 4.674 4.584 4.454 4.394 4.344
1803.594 4.404 4.424 4.444 4.194 4.104 4.364 4.374 4.204 4.254 4.204
1822.884 4.164 4.404 4.404 4.354 4.314 4.244 4.334 4.594 4.624 4.664
1842.174 4.904 5.054 5.144 5.344 5.624 5.604 5.554 5.574 5.474 5.404
1861.464 5.304 4.984 4.594 4.434 4.334 4.124 4.054 3.994 3.944 3.794
1880.754 3.504 3.504 3.494 3.404 3.254 3.184 3.414 3.524 3.424 3.344
1900.043 3.224 3.134 3.184 3.234 3.084 2.994 2.994 2.934 2.924 2.814
1919.333 2.604 2.524 2.764 2.764 2.604 2.494 2.464 2.494 2.344 2.284
1938.623 2.384 2.474 2.544 2.434 2.254 2.344 2.344 2.314 2.304 2.164
1957.913 2.134 2.194 2.184 2.294 2.254 2.134 2.164 2.034 1.874 1.984
1977.202 2.204 2.264 2.234 2.124 2.134 2.154 2.114 2.084 2.214 2.134
1996.492 2.124 2.294 2.224 2.114 2.184 2.374 2.504 2.374 2.294 2.294
2015.782 2.194 2.114 2.054 2.124 2.154 2.254 2.344 2.344 2.184 2.254
2035.072 2.494 2.644 2.574 2.484 2.594 2.764 2.924 2.894 2.964 3.014
2054.362 2.994 2.984 3.104 3.054 2.984 3.044 3.144 3.074 2.874 2.964
2073.651 2.994 2.894 2.884 2.964 2.974 2.694 2.574 2.654 2.504 2.374
2092.941 2.514 2.564 2.394 2.334 2.224 1.994 2.004 2.144 2.094 1.914
2112.231 1.934 1.954 1.814 1.774 1.884 1.994 1.924 1.954 1.964 1.954
2131.521 2.254 2.334 2.184 2.154 2.064 2.024 2.184 2.244 2.234 2.114
2150.810 1.994 2.094 2.254 2.324 2.044 1.864 1.914 2.024 1.994 1.784
2170.100 1.834 1.814 1.844 1.924 1.874 1.894 1.884 1.964 2.124 2.094
2189.390 2.054 2.034 2.124 2.314 2.394 2.414 2.424 2.334 2.184 2.244
2208.680 2.264 2.164 2.184 2.314 2.114 2.094 2.544 2.544 2.254 2.334
2227.970 2.514 2.514 2.784 2.784 2.644 2.774 2.854 2.784 2.704 2.854
2247.259 3.104 3.204 3.034 2.924 2.954 2.964 2.974 2.674 2.454 2.594
2266.549 2.734 2.694 2.634 2.354 2.164 2.274 2.274 2.304 2.234 2.184
2285.839 2.134 2.074 2.144 2.074 2.184 2.374 2.354 2.094 1.984 2.104
2305.129 2.124 2.084 2.034 2.004 1.864 1.864 1.7528 1.7046 1.884 1.904
2324.418 1.864 1.7415 1.7624 2.154 2.164 1.844 1.924 1.854 1.764 2.074
2343.708 2.014 1.874 2.004 2.094 1.964 1.954 1.974 2.024 2.024 1.7394
2362.998 1.864 1.904 1.804 1.834 1.874 2.084 2.074 1.6585 1.5161 1.6782
2382.288 1.834 2.064 1.804 1.6325 1.854 2.134 2.034 1.7618 1.934 1.914
2401.578 1.894 1.864 1.712 1.6525 1.6519 1.784 1.874 1.854 1.6189 1.3344
2420.867 1.272 1.5311 1.784 1.834 1.7037 1.5446 1.4902 1.4535 1.4324 1.6763
2440.157 1.824 1.794 1.7225 1.864 2.094 1.7507 1.5077 1.7455 1.7576 1.4226
2459.447 1.5174 1.6266 1.6084 1.5169 1.2548 1.1662 1.5177 1.728 1.5971 1.5893
2478.737 1.4149 1.3445 1.447 1.3889 1.4409 1.48 1.4293 1.3788 1.222 1.2271
2498.026 1.3405 1.2874 1.3818 1.397 1.2419 1.283 1.3757 1.3144 1.2224 1.1378
2517.316 1.2075 1.5526 1.7466 1.6788 1.5761 1.7063 1.774 1.5471 1.4774 1.5491
2536.606 1.774 1.784 1.5954 1.7606 1.7021 1.784 1.7197 1.5623 1.624 1.4685
2555.896 1.5509 1.6282 1.6145 1.5002 1.5086 1.5399 1.2649 1.3678 1.3299 1.1222
2575.186 1.2683 1.4464 1.4873 1.4477 1.4473 1.2304 1.3614 1.4352 1.3929 1.6312
2594.475 1.6502 1.2014 1.1991 1.7492 1.6354 1.5299 1.874 1.984 1.964 1.964
2613.765 1.774 1.934 1.904 1.5181 1.6028 1.5552 1.4638 1.6222 1.794 1.7615
2633.055 1.7119 1.824 1.854 1.944 2.144 2.444 2.524 2.404 2.464 2.514
2652.345 2.364 2.544 3.024 3.154 2.914 2.674 3.014 3.304 3.134 3.114
2671.634 3.214 3.344 3.164 2.874 2.794 2.544 2.324 2.484 2.334 1.7329
2690.924 1.6735 1.914 1.6143 1.2325 1.2664 1.3755 1.247 1.284 1.5632 1.4666
2710.214 1.2046 1.1833 1.0334 1.0869 1.257 1.417 1.4474 1.339 1.3012 1.1097
2729.504 0.9394 0.9066 1.1359 1.0457 0.9344 0.82183 0.615 0.79986 0.617 0.77696
2748.794 1.3475 1.5392 1.2205 0.7601 0.7016 0.648 0.8899 1.4822 1.404 1.0638
2768.083 1.1262 1.2683 1.2343 1.1456 1.1928 1.2051 0.871 0.9371 1.5625 1.7128
2787.373 1.452 1.102 1.005 1.0933 1.3095 1.3462 0.9445 0.931 1.0148 1.0556
2806.663 1.0024 0.6689 0.645 0.7399 0.7411 0.82527 0.763501 0.652 0.718 0.84343
2825.953 1.1731 1.2164 1.0987 0.8671 0.566 0.766326 1.0642 1.3255 1.396 1.344
2845.242 1.0415 1.2733 1.6596 1.4998 1.4718 1.2315 1.3299 1.3903 1.6145 1.7636
2864.532 1.7461 1.6761 1.2754 1.1886 1.0353 0.9771 1.3345 1.262 0.9363 0.83634
2883.822 0.9596 1.2717 1.0798 0.9812 1.2201 1.1957 1.2531 1.237 1.1834 1.3656
2903.112 1.3171 1.3716 1.3852 1.1512 1.1776 1.2902 1.1804 1.186 1.0674 1.0937
2922.401 1.5971 1.6613 1.2009 1.1782 1.507 1.5457 1.4842 1.3714 1.0172 1.1903
2941.691 1.6964 1.1707 0.633 0.8736 1.4903 1.5731 1.4323 1.5067 1.3999 1.4209
2960.981 1.4983 1.3976 1.4829 1.7579 1.844 1.784 1.2379 1.1919 1.784 1.7124
2980.271 1.0942 1.361 1.5269 1.2514 1.1914 1.1901 2.084 2.524 2.134 1.804
2999.561 1.884 2.204 2.214 2.004 2.174 2.964 3.214 3.614 4.324 4.924
3018.850 5.684 5.944 6.684 7.664 8.124 8.634 8.764 8.524 8.674 9.194
3038.140 9.504 9.544 9.224 8.964 9.224 8.964 8.074 7.394 7.034 6.974
3057.430 6.714 6.474 6.124 5.594 5.304 5.214 5.044 4.054 3.494 3.974
3076.720 4.294 4.344 4.024 3.714 3.954 4.204 4.344 3.894 3.084 2.774
3096.009 2.634 2.524 2.814 2.734 2.554 2.804 2.494 2.104 2.204 2.254
3115.299 1.814 1.7594 2.074 1.814 1.6402 1.5173 1.5152 1.5119 1.834 1.904
3134.589 1.653 1.794 1.934 1.5312 1.3028 1.499 1.1268 1.1184 1.2478 1.436
3153.879 1.7078 1.525 1.2491 0.9618 0.9234 1.295 1.309 1.1484 1.2415 1.4107
3173.169 1.7079 1.6073 1.7313 2.074 1.854 1.5811 1.7152 2.094 1.934 1.5081
3192.458 1.5964 1.6065 1.3427 1.6299 2.184 1.904 1.844 2.104 1.924 1.864
3211.748 2.004 2.114 2.134 1.7576 1.5346 2.164 2.694 2.324 1.894 2.164
3231.038 2.214 2.144 2.164 2.454 2.454 1.804 1.814 2.254 2.044 1.904
3250.328 1.874 1.814 1.884 1.3024 0.9902 1.4931 1.934 1.834 1.6705 1.4543
3269.617 1.2542 1.3901 1.5044 1.6791 1.5502 1.5336 1.471 0.9661 1.1947 1.834
3288.907 1.6631 1.0647 0.9122 1.1337 0.9439 0.85858 1.6036 1.7214 1.6522 1.3648
3308.197 1.0311 1.4455 1.6038 1.4378 1.2342 1.3441 1.804 1.864 1.2383 1.242
3327.487 1.4379 1.3257 1.3128 1.2349 1.2704 1.2519 1.3341 1.3039 1.7515 2.024
3346.777 1.854 2.144 2.744 3.104 3.464 3.974 4.794 6.384 7.614 8.654
3366.066 9.924 11.034 12.384 14.084 14.704 14.994 15.684 15.344 14.844 14.034
3385.356 12.434 11.194 10.324 9.574 8.234 7.144 6.484 5.754 5.594 5.254
3404.646 4.864 4.704 4.514 4.804 4.754 4.404 3.994 3.884 3.944 3.994
3423.936 3.724 3.254 3.944 4.464 4.484 4.464 4.864 5.304 6.084 7.074
3443.225 7.244 8.104 9.454 10.484 11.474 12.144 13.494 14.754 15.464 15.974
3462.515 15.894 15.424 14.854 14.874 14.874 14.334 13.704 13.664 12.664 11.414
3481.805 10.504 9.504 8.954 8.324 7.704 7.004 6.264 5.694 5.284 4.874
3501.095 4.184 4.174 5.004 5.104 4.574 4.034 3.604 3.854 4.074 3.654
3520.385 3.794 3.734 3.034 2.694 2.664 2.714 2.684 2.834 3.024 2.824
3539.674 2.424 2.494 2.524 2.164 2.264 2.704 2.554 1.844 1.794 2.304
3558.964 2.384 1.794 1.864 1.844 1.3514 1.804 2.244 1.964 1.7343 1.5599
3578.254 1.2028 1.1414 1.3846 1.3255 1.4552 2.224 2.194 1.6658 1.2809 1.5666
3597.544 1.844 1.7587 2.054 2.584 2.374 1.763 1.4237 1.2183 1.3341 1.844
3616.833 2.474 1.874 1.0788 0.767434 0.9147 1.2564 1.3739 1.201 0.9946 0.81998
3636.123 0.434 0.83145 1.4761 1.5201 1.0322 1.188 1.4467 1.3828 1.6671 1.147
3655.413 0.606 1.088 1.6549 1.742 1.924 1.894 1.7415 1.6135 1.5643 1.3405
3674.703 1.702 2.294 1.834 1.3769 1.595 1.7157 1.7557 1.6342 1.0654 0.9142
3693.993 1.1397 1.3074 1.5536 1.1956 0.645 0.456 0.19 0.564 0.79587 0.646
3713.282 0.035 0 0.29 0.312 0.81514 1.3517 1.4353 1.2397 0.8803 0.6874
3732.572 0.9552 1.1427 1.1459 1.5864 1.5991 1.477 1.7179 1.3119 0.6741 0.7364
3751.862 0.7568 0.6 1.2125 1.195 0.6696 0.77959 0.8887 0.31 0.565 1.397
3771.152 0.9164 0.766922 1.266 1.3326 1.2505 0.9877 0.702 0.9969 1.2771 1.167
3790.441 1.0951 0.9914 1.1133 1.3514 1.5053 1.1716 0.8508 0.7104 0.152 0.603
3809.731 1.0225 1.054 1.4481 1.534 1.2399 1.1961 1.3332 0.9798 1.208 0.9461
3829.021 0.84225 1.2745 0.746 0.81939 1.2286 1.1026 0.9568 1.2577 1.3336 1.3766
3848.311 1.994 1.6804 1.2558 1.1985 1.0526 0.71 0.428 0.726 0.85385 0.79176
3867.601 0.7396 0.9196 0.9437 0.7005 0.523 0.599 0.8421 1.0097 0.7256 0.567
3886.890 1.2043 1.6393 1.5555 1.013 0.513 0.44 0.742 1.1789 1.2708 1.3392
3906.180 1.2852 1.2137 1.112 1.0781 1.5747 1.432 1.2153 1.3073 1.029 1.1746
3925.470 1.2592 0.9962 0.8316 0.76119 0.554 0.203 0.9689 1.4284 0.7118 0.368
3944.760 0.35 0.379 1.094 1.6787 1.0452 0.316 0.053 1.1155 1.924 1.4032
3964.049 1.1028 1.0251 1.2084 1.2959 1.1914 1.3624 1.7206 1.954 2.154 2.184
3983.339 2.084 1.864 1.7054 1.4942 1.4423 1.7241 1.5468 1.3721 1.7507 1.4923
##END=
