##TITLE=2-Tetrahydrofurfuryl isothiocyanate
##JCAMP-DX=4.24
##DATA TYPE=INFRARED SPECTRUM
##ORIGIN=EPA-IR VAPOR PHASE LIBRARY
##OWNER=SRD/NIST
Collection (C) 2018 copyright by the U.S. Secretary of Commerce
on behalf of the United States of America. All rights reserved.
##CAS REGISTRY NO=36810-87-4
##MOLFORM=C 6 H 9 N O S
##$NIST SOURCE=MSDC-IR
##STATE=gas
##XUNITS=1/CM
##YUNITS=ABSORBANCE
##XFACTOR=1.
##YFACTOR=0.001
##DELTAX=1.92898
##FIRSTX=549.8
##LASTX=4000.7
##FIRSTY=8.26
##MAXX=4000.7
##MINX=549.759
##MAXY=0.43308
##MINY=0
##NPOINTS=1790
##XYDATA=(X++(Y..Y))
549.759 8.26 8.39 8.15 7.72 7.53 7.31 7.29 7.2 7.11 6.97
569.049 7.18 7.34 7.51 7.58 7.37 7.47 7.5 7.63 7.53 7.62
588.339 7.99 8 8.09 8.09 8.02 7.96 7.6 7.49 7.76 7.97
607.628 7.83 7.63 7.52 7.45 7.32 7.29 7.24 6.9 6.83 7.06
626.918 7.13 7.13 7.15 7.27 7.09 6.96 7.26 7.28 7.17 7.26
646.208 7.19 7.07 7.2 7.12 6.83 6.89 7.25 7.36 7.31 7.36
665.498 7.25 7.23 7.41 7.55 7.61 7.69 8.09 8.51 8.75 9.03
684.787 9.47 9.94 10.47 10.94 11.2 11.62 12.27 12.81 13.26 13.62
704.077 13.94 14.3 14.49 14.74 14.96 15.14 15.33 15.34 15.27 15.12
723.367 15.01 14.88 14.42 13.91 13.43 12.63 11.75 10.88 10.14 9.5
742.657 8.73 8 7.29 6.66 6.1 5.7 5.37 5.21 4.96 4.69
761.947 4.47 4.4 4.35 4.1 4.12 4.09 3.89 3.85 3.96 3.98
781.236 4.06 4.1 3.94 3.71 3.88 4.1 4 3.96 4.02 4.23
800.526 4.38 4.6 4.78 5.05 5.2 5.08 5.31 5.45 5.57 5.95
819.816 6.25 6.37 6.55 6.75 6.89 7.07 7.11 7.18 7.47 7.63
839.106 7.56 7.6 8 8.58 8.97 9.31 9.65 9.92 10.26 10.49
858.395 10.7 10.78 10.92 11.23 11.08 11.07 11.2 10.93 10.54 10.22
877.685 10.07 9.67 9.14 8.98 8.91 8.6 8.39 8.18 8.2 8.45
896.975 8.37 8.28 8.51 8.8 9.03 9.46 10.02 10.47 11.09 11.63
916.265 11.87 12.18 12.27 12.3 12.25 12.03 11.74 11.49 11.32 11.06
935.555 11.03 10.86 10.7 10.71 10.74 10.59 10.23 10.08 10.05 9.86
954.844 9.58 9.32 9.3 9.48 9.47 9.42 9.71 10.12 10.38 10.88
974.134 11.68 12.43 13.19 14.05 15.02 15.92 16.84 17.73 18.33 18.61
993.424 18.41 18.37 18.25 17.68 17.05 16.28 15.69 15.14 14.57 14.15
1012.714 13.49 12.76 12.32 12.3 12.62 12.86 12.67 12.54 12.83 13.08
1032.003 13.44 13.86 14.01 14.39 15.01 15.64 16.27 16.9 17.67 18.81
1051.293 20.17 21.66 23.5 25.69 28.36 31.5 35.33 40.11 45.39 51.49
1070.583 58.63 65.87 73.29 80.65 86.99 91.6 94.4 95.38 94.78 92.47
1089.873 88.03 82.39 75.44 68.33 61.67 55.14 49.36 44.01 38.84 34.56
1109.163 31.17 28.52 26.2 24.02 22.61 21.1 19.7 18.75 17.8 17.2
1128.452 16.53 15.58 14.81 14.15 13.45 12.83 12.29 11.96 11.59 11.24
1147.742 10.78 10.22 9.97 9.8 9.63 9.5 9.29 9.33 9.41 9.22
1167.032 9.31 9.75 10.04 10.21 10.17 10.28 10.46 10.47 10.53 10.38
1186.322 10.25 9.97 9.7 9.58 9.19 8.65 8.7 8.76 8.57 8.4
1205.611 8.14 8.14 8.39 8.48 8.67 8.79 8.68 8.88 8.88 8.92
1224.901 9.14 9.38 9.56 9.71 9.96 10.14 10.28 10.51 10.61 10.53
1244.191 10.56 10.58 10.5 10.46 10.41 10.34 10.22 10.24 10.19 9.9
1263.481 9.84 9.97 10 10.17 10.62 10.95 11.55 12.43 13.06 13.47
1282.771 13.87 14.48 15.44 16.37 16.96 17.42 17.95 18.28 18.67 19.23
1302.060 19.76 20.34 20.85 21.43 22.25 23.28 24.51 25.86 27.23 28.56
1321.350 29.79 30.95 31.97 32.62 32.66 32.09 31.12 29.79 28.18 26.56
1340.640 24.97 23.48 22.28 21.54 21.46 22 23.01 24.49 26.41 28.68
1359.930 30.88 32.44 32.8 32.03 30.8 29.27 27.33 25.01 22.37 19.38
1379.219 16.28 13.56 11.37 9.67 8.42 7.52 6.77 6.2 5.79 5.46
1398.509 5.24 5.05 4.92 4.83 4.81 4.91 4.97 5.07 5.31 5.52
1417.799 5.72 6 6.38 6.88 7.48 8.21 9.31 10.93 13.09 15.69
1437.089 18.55 21.29 23.5 25.12 26.78 28.92 30.65 31.47 31.56 30.27
1456.378 27.71 25.08 23.14 21.54 19.68 17.32 14.83 12.7 11.06 9.73
1475.668 8.62 7.67 6.89 6.23 5.67 5.23 4.86 4.55 4.26 3.96
1494.958 3.73 3.51 3.28 3.02 2.76 2.56 2.41 2.34 2.24 2.13
1514.248 2.02 1.88 1.81 1.78 1.65 1.6 1.56 1.5197 1.5397 1.4826
1533.538 1.4104 1.3341 1.3729 1.3951 1.3752 1.351 1.2305 1.2412 1.3365 1.3114
1552.827 1.2355 1.248 1.252 1.2894 1.348 1.2996 1.2728 1.2765 1.232 1.1881
1572.117 1.1719 1.1473 1.1336 1.1589 1.1851 1.1814 1.197 1.2194 1.2042 1.1155
1591.407 1.0827 1.0556 1.0125 1.0654 1.1459 1.1516 1.1253 1.094 1.0562 1.1014
1610.697 1.1342 1.1024 1.0243 1.0375 1.1151 1.1338 1.0988 1.1272 1.1737 1.154
1629.986 1.1407 1.112 1.0712 1.1479 1.2123 1.1568 1.0864 1.0601 1.1463 1.1879
1649.276 1.126 1.1223 1.1272 1.161 1.2033 1.2085 1.2842 1.263 1.1853 1.183
1668.566 1.2791 1.2834 1.2619 1.2784 1.281 1.2722 1.263 1.3162 1.3666 1.4232
1687.856 1.4177 1.4366 1.4909 1.456 1.467 1.4767 1.4831 1.5033 1.515 1.59
1707.146 1.61 1.4964 1.4435 1.5283 1.62 1.65 1.59 1.4992 1.4701 1.5348
1726.435 1.5489 1.5576 1.56 1.5256 1.4798 1.4741 1.4982 1.4752 1.4663 1.4919
1745.725 1.4996 1.4772 1.4543 1.4673 1.4775 1.4849 1.4767 1.3923 1.3395 1.3669
1765.015 1.3763 1.3718 1.3828 1.4274 1.4631 1.4649 1.473 1.485 1.4756 1.4656
1784.305 1.4328 1.4317 1.4733 1.493 1.5123 1.5047 1.5514 1.57 1.5241 1.5282
1803.594 1.59 1.68 1.71 1.68 1.66 1.63 1.64 1.68 1.75 1.82
1822.884 1.86 1.86 1.85 1.88 1.95 1.98 1.95 2.01 2.12 2.14
1842.174 2.2 2.3 2.32 2.38 2.47 2.52 2.64 2.74 2.78 2.88
1861.464 3.02 3.13 3.21 3.31 3.48 3.66 3.81 3.94 4.1 4.25
1880.754 4.38 4.58 4.82 5.09 5.33 5.51 5.72 5.99 6.26 6.56
1900.043 6.86 7.13 7.42 7.78 8.11 8.38 8.72 9.18 9.61 10.01
1919.333 10.44 10.95 11.48 11.94 12.5 13.08 13.72 14.43 15.11 15.84
1938.623 16.67 17.54 18.41 19.26 20.19 21.24 22.31 23.48 24.69 25.96
1957.913 27.3 28.74 30.32 31.94 33.66 35.55 37.54 39.66 41.98 44.42
1977.202 46.98 49.75 52.71 55.92 59.39 63.01 66.87 70.98 75.44 80.19
1996.492 85.23 90.59 96.41 102.74 109.52 116.83 124.63 133.03 142.1 151.81
2015.782 162.16 173.22 185.02 197.59 210.78 224.59 239.06 254.05 269.44 285.15
2035.072 300.91 316.69 332.31 347.43 361.86 375.42 388.12 399.66 409.55 417.76
2054.362 424.4 429.48 432.5 433.08 431.43 427.4 420.79 411.46 399.61 385.54
2073.651 369.17 351.19 332.09 312.19 292.41 273.31 254.88 237.52 221.62 207.19
2092.941 194.43 183.27 173.59 165.23 158.02 151.9 146.72 142.27 138.33 135.04
2112.231 132.25 129.63 127.3 125.17 122.91 120.53 117.89 114.93 111.81 108.43
2131.521 104.7 100.92 97.17 93.51 89.95 86.42 83.19 80.25 77.45 74.83
2150.810 72.48 70.4 68.41 66.47 64.69 63.03 61.52 60.02 58.57 57.23
2170.100 55.95 54.76 53.68 52.63 51.62 50.7 49.88 49.11 48.3 47.63
2189.390 46.92 46.21 45.61 45.02 44.4 43.81 43.24 42.67 42.16 41.57
2208.680 40.97 40.41 39.79 39.1 38.33 37.49 36.67 35.79 34.73 33.73
2227.970 32.78 31.68 30.63 29.56 28.41 27.25 26.11 25.07 23.97 22.81
2247.259 21.75 20.74 19.71 18.67 17.71 16.74 15.83 14.97 14.07 13.27
2266.549 12.53 11.75 11.11 10.52 9.96 9.51 9.06 8.63 8.23 7.89
2285.839 7.55 7.2 6.9 6.53 6.25 6.14 5.92 5.63 5.43 5.23
2305.129 5.02 4.92 4.77 4.55 4.38 4.2 4.04 3.86 3.73 3.61
2324.418 3.52 3.5 3.41 3.3 3.13 3.05 3 2.95 2.82 2.69
2343.708 2.68 2.69 2.7 2.62 2.62 2.58 2.49 2.47 2.4 2.31
2362.998 2.36 2.39 2.26 2.18 2.17 2.19 2.22 2.2 2.17 2.17
2382.288 2.07 2.04 2.12 2.14 2.13 2.09 2.07 2.12 2.12 2.15
2401.578 2.18 2.16 2.07 2.01 2.01 2.04 2.09 2.07 2.14 2.07
2420.867 1.95 1.98 1.95 1.88 1.81 1.73 1.65 1.67 1.68 1.61
2440.157 1.62 1.64 1.66 1.71 1.69 1.58 1.4349 1.4363 1.56 1.59
2459.447 1.5279 1.4859 1.4822 1.4987 1.5006 1.4775 1.4426 1.4322 1.5088 1.57
2478.737 1.5227 1.59 1.62 1.5527 1.58 1.61 1.65 1.67 1.69 1.66
2498.026 1.62 1.65 1.83 1.83 1.69 1.79 1.85 1.83 1.88 1.87
2517.316 1.84 1.87 1.89 1.97 2.05 2.06 2.04 2.03 2.08 2.2
2536.606 2.31 2.32 2.27 2.36 2.45 2.54 2.54 2.5 2.57 2.69
2555.896 2.74 2.74 2.82 2.91 2.96 3.01 3.09 3.09 3.1 3.11
2575.186 3.11 3.06 2.95 2.98 3.01 2.92 2.84 2.73 2.61 2.57
2594.475 2.52 2.51 2.6 2.52 2.42 2.38 2.36 2.38 2.37 2.4
2613.765 2.39 2.46 2.5 2.47 2.52 2.56 2.57 2.63 2.64 2.68
2633.055 2.84 2.88 2.78 2.79 2.88 3.01 3.1 3.06 3.06 3.08
2652.345 3.1 3.16 3.1 3.12 3.24 3.32 3.35 3.37 3.44 3.43
2671.634 3.43 3.47 3.51 3.64 3.77 3.87 3.92 3.96 4.06 4.1
2690.924 4.09 4.08 4.23 4.45 4.52 4.67 4.82 4.9 4.99 5.11
2710.214 5.28 5.37 5.3 5.36 5.45 5.48 5.56 5.52 5.54 5.55
2729.504 5.59 5.62 5.61 5.77 5.79 5.76 5.9 5.95 6.02 6.1
2748.794 6.21 6.33 6.42 6.52 6.59 6.61 6.65 6.92 7.05 6.95
2768.083 6.93 7.03 7.17 7.23 7.2 7.25 7.2 7.15 7.15 7.09
2787.373 7.11 7.09 7.11 7.13 7.12 7.18 7.33 7.48 7.51 7.72
2806.663 7.98 8.14 8.31 8.65 8.98 9.23 9.57 10.02 10.39 10.68
2825.953 11.08 11.66 12.28 12.95 13.69 14.42 15.1 15.9 17.02 18.28
2845.242 19.61 21.01 22.56 24.47 26.69 29.21 31.92 34.8 37.92 41.26
2864.532 44.75 48.24 51.48 54.33 56.81 58.71 60.17 61.15 61.44 61.15
2883.822 60.22 58.78 57.07 55.21 53.15 50.91 48.7 46.45 44.4 42.73
2903.112 41.42 40.46 39.56 38.87 38.51 38.43 38.62 39.02 39.57 40.42
2922.401 41.8 43.24 44.95 46.98 48.89 50.75 52.6 54.36 56.06 57.56
2941.691 58.94 60.23 61.12 61.84 62.54 63.04 63.49 63.86 64.34 64.87
2960.981 65.23 65.65 66.03 66.33 66.97 67.85 69.16 71.09 72.74 73.55
2980.271 73.34 72.43 70.76 67.26 62.89 58.89 54.18 48.07 41.74 36.33
2999.561 31.82 27.89 24.54 21.73 19.33 17.34 15.65 14.05 12.62 11.54
3018.850 10.7 9.82 8.9 8.19 7.63 7.01 6.39 5.88 5.49 5.15
3038.140 4.9 4.44 4.02 3.88 3.72 3.45 3.16 2.9 2.72 2.69
3057.430 2.64 2.47 2.15 1.97 2.09 2.07 1.86 1.82 1.79 1.68
3076.720 1.65 1.58 1.4788 1.4387 1.4655 1.4482 1.3697 1.3761 1.3479 1.1411
3096.009 1.0449 1.1527 1.1916 1.2025 1.2073 1.1724 1.0803 0.9948 0.9932 1.0026
3115.299 0.9656 0.9382 0.9557 0.9578 0.9403 0.9556 0.9617 0.9003 0.8299 0.8566
3134.589 0.7779 0.62288 0.6415 0.6936 0.767 0.7242 0.58845 0.5141 0.421 0.435
3153.879 0.566642 0.61311 0.61427 0.58026 0.5347 0.4891 0.563295 0.559427 0.4736 0.5394
3173.169 0.427 0.347 0.4902 0.4768 0.371 0.379 0.448 0.336 0.178 0.246
3192.458 0.421 0.417 0.411 0.376 0.283 0.328 0.356 0.26 0.211 0.232
3211.748 0.199 0.217 0.253 0.19 0.259 0.36 0.317 0.384 0.389 0.288
3231.038 0.262 0.291 0.258 0.244 0.216 0.118 0.157 0.168 0.103 0.078
3250.328 0.131 0.18 0.071 0.075 0.166 0.19 0.248 0.222 0.248 0.202
3269.617 0.14 0.168 0.146 0.249 0.27 0.307 0.255 0.21 0.293 0.273
3288.907 0.248 0.259 0.304 0.232 0.231 0.208 0.134 0.213 0.358 0.293
3308.197 0.154 0.09 0.065 0.133 0.136 0.034 0.07 0.131 0.066 0.077
3327.487 0.169 0.251 0.245 0.152 0.059 0.059 0.164 0.162 0.165 0.348
3346.777 0.326 0.136 0 0.107 0.193 0.205 0.337 0.375 0.292 0.181
3366.066 0.129 0.061 0.08 0.201 0.217 0.22 0.157 0.079 0.015 0.109
3385.356 0.283 0.074 0.002 0.106 0.121 0.164 0.186 0.154 0.108 0.05
3404.646 0.166 0.195 0.116 0.206 0.192 0.202 0.348 0.366 0.288 0.307
3423.936 0.24 0.149 0.136 0.272 0.276 0.162 0.314 0.5108 0.459 0.344
3443.225 0.344 0.309 0.172 0.192 0.318 0.239 0.182 0.182 0.263 0.384
3462.515 0.382 0.319 0.265 0.3 0.343 0.364 0.374 0.404 0.447 0.401
3481.805 0.357 0.352 0.315 0.403 0.407 0.245 0.208 0.287 0.265 0.309
3501.095 0.4758 0.401 0.345 0.387 0.438 0.36 0.17 0.227 0.456 0.357
3520.385 0.25 0.4906 0.59878 0.436 0.378 0.415 0.343 0.312 0.36 0.427
3539.674 0.431 0.362 0.327 0.305 0.32 0.423 0.397 0.4 0.385 0.415
3558.964 0.57866 0.5376 0.4936 0.5179 0.4852 0.4964 0.58298 0.61508 0.5386 0.62073
3578.254 0.564462 0.416 0.339 0.404 0.4798 0.441 0.429 0.347 0.36 0.4752
3597.544 0.5198 0.4889 0.4935 0.5439 0.5142 0.294 0.301 0.4773 0.55359 0.4644
3616.833 0.305 0.356 0.449 0.356 0.358 0.439 0.427 0.398 0.292 0.368
3636.123 0.4863 0.365 0.444 0.444 0.424 0.5137 0.441 0.4767 0.4655 0.316
3655.413 0.272 0.322 0.373 0.307 0.321 0.431 0.4785 0.55215 0.453 0.334
3674.703 0.375 0.563321 0.58195 0.5285 0.5253 0.5019 0.4632 0.4736 0.5381 0.55229
3693.993 0.62322 0.58768 0.389 0.36 0.4615 0.5022 0.5385 0.4722 0.449 0.527
3713.282 0.5463 0.59793 0.7004 0.57649 0.363 0.403 0.411 0.298 0.405 0.5037
3732.572 0.4998 0.562632 0.455 0.5086 0.60883 0.4929 0.325 0.298 0.57904 0.7061
3751.862 0.60465 0.55403 0.63024 0.60538 0.5301 0.5369 0.63193 0.61461 0.61124 0.6696
3771.152 0.63223 0.6979 0.6636 0.6975 0.729 0.6803 0.6831 0.61305 0.5968 0.60043
3790.441 0.5079 0.563877 0.58636 0.5411 0.60902 0.62207 0.735 0.7982 0.6876 0.58432
3809.731 0.58148 0.58498 0.773 0.8823 0.7616 0.8738 0.9134 0.7643 0.7273 0.7815
3829.021 0.7432 0.7018 0.7613 0.7713 0.7945 0.8958 0.9857 0.975 0.8987 0.773
3848.311 0.7736 0.9367 1.048 1.0554 0.8137 0.676 0.8056 0.8885 0.9045 0.9363
3867.601 0.9952 1.0116 0.9467 1.0097 1.0792 1.0075 0.9486 0.8992 0.8797 0.8918
3886.890 1.0166 1.0153 0.8484 0.7393 0.8523 0.8959 0.7763 0.9512 0.979 0.7946
3906.180 0.7965 0.845 0.8375 0.8962 0.9903 0.9694 1.0276 1.19 1.109 0.9846
3925.470 1.011 0.9929 1.105 1.3283 1.3144 1.2226 1.126 1.1478 1.1705 1.0578
3944.760 1.0067 1.1355 1.2612 1.3084 1.2643 1.2609 1.3671 1.4032 1.3977 1.4506
3964.049 1.4618 1.3686 1.3938 1.5324 1.66 1.5478 1.4335 1.5103 1.4955 1.4633
3983.339 1.63 1.71 1.5471 1.59 1.77 1.81 1.82 1.8 1.82 1.82
##END=
