##TITLE=4-(Trifluoromethoxy)benzoyl chloride
##JCAMP-DX=4.24
##DATA TYPE=INFRARED SPECTRUM
##ORIGIN=EPA-IR VAPOR PHASE LIBRARY
##OWNER=SRD/NIST
Collection (C) 2018 copyright by the U.S. Secretary of Commerce
on behalf of the United States of America. All rights reserved.
##CAS REGISTRY NO=36823-88-8
##MOLFORM=C 8 H 4 Cl F 3 O 2
##$NIST SOURCE=MSDC-IR
##STATE=gas
##XUNITS=1/CM
##YUNITS=ABSORBANCE
##XFACTOR=1.
##YFACTOR=0.001
##DELTAX=1.92898
##FIRSTX=549.8
##LASTX=4000.7
##FIRSTY=9.169
##MAXX=4000.7
##MINX=549.759
##MAXY=0.446539
##MINY=0
##NPOINTS=1790
##XYDATA=(X++(Y..Y))
549.759 9.169 8.789 8.879 9.619 10.179 9.599 8.709 7.999 7.039 5.949
569.049 4.719 3.369 3.179 2.599 2.369 2.709 2.659 2.229 1.829 1.959
588.339 1.889 1.769 2.479 3.339 3.519 3.049 2.909 3.119 3.249 3.409
607.628 3.579 4.109 4.569 4.559 5.219 5.809 6.009 6.619 6.899 7.199
626.918 7.579 8.129 8.869 10.119 11.679 12.669 14.109 15.799 16.619 17.189
646.208 17.689 17.749 17.669 18.549 19.729 20.569 21.759 23.549 25.059 25.939
665.498 26.499 26.739 26.439 25.429 24.199 23.509 23.039 22.189 21.569 21.449
684.787 21.519 20.939 19.469 17.709 16.839 15.499 13.549 12.269 11.109 10.519
704.077 9.779 8.689 8.399 8.139 7.199 6.429 6.869 6.939 6.029 5.809
723.367 6.069 6.369 6.389 5.669 5.079 5.349 5.439 5.679 5.879 5.479
742.657 5.619 6.219 5.919 4.989 4.719 4.629 4.369 4.379 3.909 3.779
761.947 4.039 3.889 4.019 4.269 4.389 4.279 4.609 5.129 5.099 5.159
781.236 5.569 6.539 7.769 8.329 9.299 10.799 11.909 12.999 14.739 16.519
800.526 17.319 17.359 17.329 17.619 17.679 17.739 18.009 17.919 17.419 15.349
819.816 13.549 14.309 14.559 13.639 13.429 13.729 14.239 15.299 16.989 18.349
839.106 20.409 23.119 25.619 28.239 31.209 35.029 38.709 42.219 46.119 50.579
858.395 55.569 60.999 66.389 72.839 82.039 91.949 103.159 117.169 132.329 146.749
877.685 157.719 163.969 164.179 157.089 144.589 127.729 109.309 92.389 77.569 65.859
896.975 56.849 49.329 43.039 37.769 33.179 29.189 26.239 23.529 21.059 19.339
916.265 17.669 16.169 15.119 14.839 14.269 13.069 12.569 12.139 11.659 11.179
935.555 10.599 10.089 9.419 8.809 7.909 7.339 7.089 6.749 6.719 6.139
954.844 5.449 5.209 5.039 4.849 4.669 4.849 4.789 4.529 4.689 4.949
974.134 4.869 4.529 4.639 4.729 4.469 4.839 4.959 4.549 4.209 3.889
993.424 3.769 3.979 3.989 3.969 4.239 4.269 4.059 4.279 5.139 5.829
1012.714 7.059 8.389 8.739 8.389 7.839 6.829 5.339 4.179 3.489 3.089
1032.003 2.939 3.489 3.779 3.299 2.789 3.239 3.269 3.359 3.519 3.289
1051.293 3.449 3.619 3.919 3.959 4.089 4.349 4.219 3.679 3.879 3.639
1070.583 3.119 3.219 3.009 3.539 4.019 4.109 4.209 2.969 3.239 4.479
1089.873 5.199 5.619 4.409 4.859 5.819 6.129 7.699 8.609 8.239 8.959
1109.163 9.209 8.079 8.739 10.519 10.889 10.729 11.369 10.859 10.449 10.609
1128.452 12.339 13.779 14.629 15.589 15.429 16.729 18.419 19.129 21.589 24.929
1147.742 27.919 31.409 35.509 41.399 48.149 57.489 70.679 87.289 106.799 127.989
1167.032 147.999 161.269 167.729 168.899 165.209 159.149 155.389 157.249 166.169 181.409
1186.322 200.069 222.649 247.209 272.099 293.819 309.669 320.489 324.489 326.289 327.049
1205.611 328.879 338.189 355.239 378.519 401.659 421.249 434.259 431.929 414.249 386.229
1224.901 345.989 298.879 254.429 215.729 184.129 161.549 147.249 138.769 135.229 135.319
1244.191 139.499 147.639 160.059 176.909 196.589 221.339 251.769 286.079 324.399 363.339
1263.481 399.259 429.689 446.539 444.849 423.849 387.239 340.819 289.379 238.759 195.149
1282.771 160.879 135.679 117.389 104.029 94.819 87.539 81.349 76.459 71.589 66.669
1302.060 62.269 58.169 54.209 50.299 46.439 42.539 38.849 35.309 31.599 28.179
1321.350 24.689 21.329 18.749 16.709 15.169 13.869 12.429 11.239 10.549 9.889
1340.640 9.299 8.909 8.499 8.119 7.879 7.629 7.379 7.129 6.789 6.619
1359.930 6.639 6.469 6.089 5.689 5.349 5.029 4.869 4.919 4.799 4.669
1379.219 4.569 4.469 4.459 4.259 4.129 4.409 4.599 4.569 4.729 5.019
1398.509 5.389 5.699 6.099 6.659 7.109 7.689 8.189 8.329 8.469 8.549
1417.799 8.299 7.939 7.409 6.619 6.159 5.819 5.439 5.189 5.179 5.119
1437.089 4.789 4.879 5.019 4.849 4.739 4.639 4.619 4.899 5.059 5.009
1456.378 5.039 5.189 5.299 5.239 5.339 5.449 5.349 5.289 5.379 5.449
1475.668 5.589 5.989 6.269 6.519 6.989 8.039 9.489 11.229 13.869 16.959
1494.958 20.849 26.009 31.509 36.639 39.819 40.239 38.149 33.939 28.039 21.429
1514.248 15.939 12.079 9.699 8.319 7.359 6.639 6.229 6.069 5.969 5.889
1533.538 5.729 5.659 5.739 5.819 5.819 5.549 5.339 5.519 5.849 5.829
1552.827 5.779 6.029 6.139 6.259 6.449 6.749 7.089 7.329 7.839 8.579
1572.117 9.619 10.799 12.349 14.029 15.829 18.099 20.819 23.959 27.089 29.789
1591.407 32.359 34.839 36.189 37.049 37.799 38.199 38.359 37.709 35.709 32.849
1610.697 29.629 25.829 22.429 19.069 16.149 14.319 12.379 10.439 9.079 8.269
1629.986 7.609 6.749 5.939 5.579 5.349 4.929 4.829 4.599 4.329 4.409
1649.276 4.499 4.289 3.899 3.979 4.239 4.169 4.169 4.339 4.039 4.219
1668.566 4.569 4.539 4.559 4.579 4.579 4.639 4.629 4.579 4.629 4.609
1687.856 4.539 4.359 4.349 4.389 4.659 4.799 4.599 4.869 5.079 5.009
1707.146 5.229 5.549 5.939 6.419 6.649 7.039 7.839 8.569 9.579 10.679
1726.435 11.549 12.679 14.259 15.789 17.619 19.609 21.679 24.239 26.549 29.039
1745.725 31.819 34.169 36.079 37.849 39.029 40.009 40.849 41.469 42.019 42.479
1765.015 43.539 45.309 48.079 51.799 56.829 62.659 69.429 77.249 85.749 94.199
1784.305 101.569 107.249 109.959 109.709 106.499 100.139 91.239 80.599 69.459 58.909
1803.594 49.459 41.069 34.089 28.329 23.799 20.279 17.479 15.219 13.569 12.369
1822.884 11.379 10.539 9.859 9.109 8.369 8.049 7.599 6.969 6.489 6.059
1842.174 5.799 5.359 4.929 4.559 4.129 3.919 3.789 3.559 3.349 3.129
1861.464 2.799 2.769 2.789 2.529 2.509 2.589 2.479 2.379 2.389 2.349
1880.754 2.319 2.379 2.359 2.339 2.339 2.399 2.379 2.239 2.379 2.479
1900.043 2.629 2.959 3.089 3.189 3.269 3.369 3.609 3.689 3.639 3.579
1919.333 3.489 3.419 3.419 3.409 3.039 2.799 2.809 2.569 2.399 2.249
1938.623 2.109 1.929 1.749 1.719 1.629 1.6265 1.6279 1.719 1.689 1.649
1957.913 1.739 1.799 1.639 1.5119 1.649 1.6056 1.6031 1.719 1.719 1.649
1977.202 1.5891 1.709 1.779 1.829 1.909 1.789 1.869 2.079 1.959 1.759
1996.492 1.979 2.209 2.179 2.079 2.189 2.469 2.649 2.689 2.749 2.769
2015.782 2.719 2.999 3.139 3.079 3.079 3.129 3.159 3.039 2.959 2.889
2035.072 2.889 2.809 2.589 2.479 2.569 2.489 2.409 2.499 2.589 2.449
2054.362 2.379 2.449 2.389 2.249 2.169 2.429 2.599 2.419 2.419 2.489
2073.651 2.439 2.489 2.509 2.419 2.329 2.269 2.409 2.589 2.499 2.439
2092.941 2.299 2.229 2.159 1.999 2.139 2.309 2.339 2.139 1.979 1.939
2112.231 1.909 2.009 1.959 1.999 2.109 1.989 1.979 1.989 2.149 2.389
2131.521 2.309 2.349 2.389 2.299 2.309 2.319 2.319 2.179 2.039 1.929
2150.810 1.749 1.679 1.719 1.729 1.6215 1.5583 1.5297 1.5602 1.5097 1.4639
2170.100 1.5379 1.618 1.5552 1.4822 1.6009 1.719 1.699 1.6089 1.629 1.769
2189.390 1.779 1.629 1.5282 1.3701 1.528 1.6254 1.4818 1.3515 1.109 1.0345
2208.680 1.0762 1.1148 1.0465 1.1191 1.118 0.9594 0.9503 1.064 1.1507 1.0067
2227.970 1.0025 1.2362 1.3207 1.1091 0.9655 0.9974 1.0911 1.095 0.919 1.0203
2247.259 0.9852 0.802 0.927 1.1327 1.1323 0.8882 0.9613 1.0381 0.9778 1.0123
2266.549 1.1111 1.2912 1.1028 0.9543 1.244 1.4208 1.4957 1.4808 1.3064 1.0769
2285.839 1.0785 1.3484 1.4263 1.4617 1.5832 1.6009 1.5048 1.5146 1.2909 1.236
2305.129 1.4175 1.4051 1.4338 1.3664 1.2409 1.3389 1.2929 1.2742 1.5252 1.3739
2324.418 1.2699 1.3496 1.3722 1.2798 1.2061 1.3994 1.5321 1.3433 1.2815 1.3309
2343.708 1.508 1.649 1.6219 1.739 1.6271 1.669 1.699 1.5503 1.5499 1.4168
2362.998 1.5174 1.809 2.089 2.329 2.229 2.019 2.029 2.239 2.469 2.639
2382.288 2.709 2.589 2.619 2.839 2.759 2.439 2.579 2.769 2.799 2.709
2401.578 2.649 2.929 2.799 2.489 2.609 2.899 2.929 2.959 3.059 2.969
2420.867 2.879 2.999 3.329 3.459 3.629 3.759 3.659 3.809 3.829 3.679
2440.157 3.539 3.499 3.629 3.729 3.699 3.659 3.539 3.259 3.059 2.999
2459.447 2.959 2.909 2.609 2.549 2.839 2.859 2.899 2.809 2.709 2.629
2478.737 2.489 2.709 2.789 2.629 2.489 2.529 2.649 2.369 2.089 2.259
2498.026 2.379 2.259 2.109 1.979 2.219 2.249 1.889 1.999 2.079 2.139
2517.316 2.409 2.339 2.209 2.379 2.429 2.389 2.479 2.219 1.869 1.919
2536.606 2.059 2.029 2.209 2.239 2.069 2.109 1.989 2.079 2.149 2.149
2555.896 2.239 2.019 1.709 1.639 1.769 1.859 1.939 2.059 2.209 2.179
2575.186 2.169 2.169 2.099 2.189 2.119 1.829 1.5646 1.592 1.689 1.669
2594.475 1.729 1.659 1.639 1.709 1.5732 1.3638 1.2211 1.4943 1.729 1.5457
2613.765 1.4139 1.5487 1.699 1.519 1.2841 1.1493 1.1892 1.3515 1.3425 1.2409
2633.055 1.1898 1.2777 1.2901 1.2284 1.3359 1.2706 1.0227 0.7515 0.7356 1.0857
2652.345 1.3218 1.3446 1.2723 1.3559 1.3091 1.204 1.2212 1.1531 0.9064 0.7505
2671.634 0.8484 0.7464 0.8716 1.2296 1.2659 1.0454 1.2418 1.5426 1.769 1.779
2690.924 1.3583 1.4238 1.5577 1.5142 1.3826 1.3263 1.5232 1.1879 1.111 1.3973
2710.214 1.2992 1.2445 1.3511 1.3003 1.2528 1.2559 1.1538 1.4157 1.581 1.2317
2729.504 1.0889 0.9036 0.7801 0.8209 0.971 1.0821 1.005 1.1055 1.0892 1.213
2748.794 1.2883 1.1392 1.1699 1.4717 1.779 1.5825 1.2502 1.2286 1.2789 1.2989
2768.083 1.4046 1.542 1.509 1.3937 1.3166 1.3467 1.2822 1.1845 1.4193 1.4492
2787.373 1.427 1.639 1.5241 1.578 1.5582 1.3589 1.3744 1.2775 1.3586 1.3354
2806.663 1.3706 1.2926 1.2819 1.3563 1.143 1.2714 1.109 0.9423 1.1521 1.3589
2825.953 1.3384 1.0493 0.9759 1.0921 1.1802 1.1921 1.1529 1.1337 1.1032 1.0264
2845.242 1.2344 1.2546 0.9652 0.7695 0.9635 0.9589 0.69549 1.0622 1.2773 1.3649
2864.532 1.2597 0.942 0.9739 1.0948 1.0394 0.9143 1.0026 1.0169 1.0672 1.2203
2883.822 1.2134 1.1974 0.9586 1.0697 1.1235 0.8089 0.9295 1.0268 1.1437 1.0751
2903.112 0.8979 1.0363 1.0553 1.0775 0.9695 1.03 1.3059 1.3001 1.689 1.749
2922.401 1.2585 1.2999 1.246 0.9413 0.8364 0.9266 0.71393 0.8383 1.0773 0.8422
2941.691 0.68712 1.1798 1.719 1.2398 1.1078 1.0873 0.82 0.9516 1.3685 1.5606
2960.981 1.132 0.9201 1.0746 1.3602 1.6057 1.1726 0.62509 0.7963 1.3209 1.5924
2980.271 1.18 0.967 1.2664 1.5513 1.3809 0.8743 1.1432 1.4219 1.3353 1.0571
2999.561 1.2143 1.3486 1.4695 1.5815 1.1732 1.2246 1.1616 0.8253 0.5 0.413
3018.850 0.8764 0.9452 1.0204 1.4736 1.1638 0.9944 1.103 0.8818 0.88 0.844
3038.140 0.8854 1.0579 0.9743 0.9364 0.8657 0.8451 1.1811 1.3213 0.9388 0.9596
3057.430 1.3791 1.5021 1.0804 0.8462 1.2187 1.3535 1.1733 1.1528 1.1514 1.4606
3076.720 1.859 1.5992 1.6109 1.969 2.409 2.569 2.399 2.209 2.209 2.499
3096.009 2.089 1.739 1.6207 1.329 1.4377 1.2052 1.1748 1.0683 0.6123 0.7797
3115.299 1.0861 1.3266 1.4154 1.0838 0.9457 1.0833 1.2729 1.441 1.1419 0.8589
3134.589 0.9394 1.0829 1.0033 0.9932 1.0294 1.1584 1.4215 1.5304 1.2386 0.7375
3153.879 0.69775 1.1861 1.0826 0.8882 1.13 1.0249 0.9841 1.0115 1.0147 0.954
3173.169 0.9577 1.255 1.4053 1.1811 1.219 1.4127 1.0258 0.7091 0.70797 0.72216
3192.458 0.68721 0.454 1.0046 1.1787 0.70084 0.8456 1.2619 1.307 1.1706 1.0178
3211.748 0.66702 0.7447 0.9553 0.8317 0.939 1.0962 0.8661 0.888 0.9012 0.7654
3231.038 0.7295 0.5925 0.5724 0.61974 0.6102 0.858 0.8745 0.8213 1.0375 1.1162
3250.328 0.7764 0.68822 0.68177 0.7598 0.7773 0.72139 0.7533 0.5706 0.9809 1.1176
3269.617 0.8062 0.602 0.433 0.8306 1.1235 0.8175 1.2803 1.3971 0.8626 0.9944
3288.907 1.0807 0.8733 0.6164 0.504 0.68652 0.908 0.9163 0.5998 0.69037 1.1022
3308.197 0.6224 0.66447 1.3708 1.3556 0.65122 0.232 0.8298 1.1739 1.2754 1.2463
3327.487 0.9726 0.69636 0.638742 0.9167 0.501 0.428 1.0092 0.8936 0.7687 0.7918
3346.777 0.65312 0.70389 0.7641 1.1177 1.1352 0.8756 0.9217 0.7445 0.7725 1.0361
3366.066 0.9346 0.71655 0.455 0.473 0.638163 0.9723 0.9112 0.425 0.69325 0.8688
3385.356 0.8757 1.2976 1.649 1.4066 1.0497 1.145 1.2101 1.244 1.1952 1.1521
3404.646 1.2822 0.986 0.7841 0.7393 0.67601 0.72761 0.7575 1.0144 0.7936 0.416
3423.936 0.71318 0.8236 0.8117 0.8186 0.7962 0.9649 0.6517 0.5965 1.1325 1.4258
3443.225 1.3379 0.8705 0.247 0.31 0.9099 1.2714 1.1671 1.1218 1.4798 1.477
3462.515 1.0798 1.2019 1.5061 1.3955 0.9439 0.529 0.8545 0.9434 1.103 1.5135
3481.805 1.1156 0.7795 0.817 1.073 1.1005 0.8236 0.9315 1.2033 1.566 1.3728
3501.095 1.0979 1.2509 1.3424 1.4391 1.354 1.5099 1.6113 1.5131 1.5314 1.2975
3520.385 1.6209 2.079 2.039 2.029 2.229 2.409 2.089 2.059 2.289 2.089
3539.674 1.979 2.219 2.279 2.279 2.069 1.869 1.4845 1.3763 1.729 1.6089
3558.964 1.649 1.6 1.2677 1.2141 1.417 1.4697 1.5614 1.5124 1.2263 1.44
3578.254 1.1735 1.0652 1.163 1.0703 1.2054 1.0151 1.1483 1.5551 1.2247 0.9517
3597.544 1.1927 1.1869 1.1241 1.1713 1.3678 1.2391 1.1224 0.7406 0.472 0.957
3616.833 1.1263 1.2712 1.1187 0.5623 0.522 0.9561 1.2325 1.0658 1.0598 1.1308
3636.123 0.7529 0.7557 0.7705 0.7377 1.3447 1.649 1.449 1.2732 1.2641 0.6472
3655.413 0.29 0.5981 0.66906 1.009 1.1924 1.2392 1.5514 1.3375 1.0946 0.9033
3674.703 0.8781 1.0203 1.0378 0.9926 0.8609 0.8475 1.091 1.1142 0.8555 0.7375
3693.993 0.9338 0.8218 1.0526 1.138 0.389 0.351 0.72812 1.0631 1.0744 0.7802
3713.282 1.0604 1.3519 1.0209 1.0462 1.3303 1.2243 0.5928 0.478 0.6104 0.8068
3732.572 0.9261 0.71584 0.8946 0.9852 1.0029 1.2121 1.1754 1.0894 0.999 1.0588
3751.862 0.8462 0.19 0.396 0.7639 0.8234 0.9817 1.2095 0.9348 0.8786 1.3162
3771.152 1.3386 1.2961 1.1931 0.8094 0.9811 0.8799 0.62568 0.8333 0.7631 1.0991
3790.441 1.1327 0.9176 0.8397 0.8472 0.779 0.32 0 0.446 0.8854 0.7483
3809.731 0.8503 0.8014 0.9329 0.9563 0.23 0.37 0.9729 0.7403 0.391 0.5905
3829.021 1.1427 1.0749 0.67217 0.72515 0.9358 0.8579 0.8166 0.64082 0.419 0.885
3848.311 1.0603 0.6175 0.351 0.465 0.386 0.206 0.456 0.67602 0.7345 0.8295
3867.601 1.0322 1.1155 0.8385 0.8805 1.2081 1.4162 1.408 0.8945 0.385 0.7832
3886.890 1.1055 0.982 0.69418 0.209 0.338 0.322 0.462 1.0748 0.9266 0.69098
3906.180 0.451 0.174 0.8042 1.1189 1.099 1.1961 1.0319 1.0338 0.549 0.166
3925.470 0.812 1.0769 0.65403 0.416 0.5 0.71471 0.9147 1.1397 1.1075 1.1776
3944.760 1.2296 0.9151 0.8956 1.1069 1.0133 0.495 0.307 0.246 0.405 0.7631
3964.049 0.7672 0.6054 0.405 0.459 0.5858 0.7384 0.634664 1.0609 1.188 1.0016
3983.339 1.1861 0.9506 1.1931 1.4407 1.3991 1.2233 0.8976 0.417 0.27 0.22
##END=
