##TITLE=2,4,6-Tris(2-pyridyl)-s-triazine
##JCAMP-DX=4.24
##DATA TYPE=INFRARED SPECTRUM
##ORIGIN=EPA-IR VAPOR PHASE LIBRARY
##OWNER=SRD/NIST
Collection (C) 2018 copyright by the U.S. Secretary of Commerce
on behalf of the United States of America. All rights reserved.
##CAS REGISTRY NO=3682-35-7
##MOLFORM=C18 H12 N6
##$NIST SOURCE=MSDC-IR
##STATE=gas
##XUNITS=1/CM
##YUNITS=ABSORBANCE
##XFACTOR=1.
##YFACTOR=0.001
##DELTAX=1.92898
##FIRSTX=549.8
##LASTX=4000.7
##FIRSTY=1.03015
##MAXX=4000.7
##MINX=549.759
##MAXY=0.020086
##MINY=0
##NPOINTS=1790
##XYDATA=(X++(Y..Y))
549.759 1.03015 0.96077 0.821 0.9191 0.95419 0.663 0.636 0.772 0.709 0.742
569.049 0.712 0.748 0.8478 1.02713 1.1945 1.0637 1.1629 1.0442 0.92 1.0966
588.339 1.3069 1.2992 1.0346 1.0634 1.1131 0.95043 0.96834 0.943786 0.817 0.8737
607.628 0.93385 1.02255 1.3529 1.7897 1.8346 1.6302 1.3811 1.3038 1.3598 1.2133
626.918 1.0993 1.0741 1.0862 1.01417 1.1166 1.3212 1.3483 1.1978 1.0524 0.822
646.208 0.9034 1.092 1.086 1.1694 1.101 1.0975 1.207 1.3702 2.146 3.286
665.498 4.366 4.976 5.096 4.736 3.736 2.456 1.599 1.4324 1.2913 1.0497
684.787 1.1138 1.1353 1.1494 1.1817 0.96383 0.8717 0.92636 1.02624 0.95796 0.98532
704.077 1.03433 1.02188 1.1172 1.1603 1.1304 1.0589 1.1099 1.0782 1.0495 1.1939
723.367 1.2472 1.1057 0.9125 0.945413 1.132 1.6051 1.966 2.226 2.746 2.686
742.657 2.336 2.286 2.136 1.8597 1.6389 1.4997 1.5784 1.7895 2.046 2.426
761.947 2.836 3.306 3.856 4.186 3.926 3.566 2.996 2.206 1.8614 1.754
781.236 1.5176 1.3354 1.2791 1.321 1.3781 1.316 1.2471 1.03337 0.94782 0.940725
800.526 0.92737 1.0466 0.9192 0.811 0.95128 1.1047 1.00282 0.8909 0.941508 0.99398
819.816 1.0364 0.98832 0.93298 0.9716 1.0673 1.1377 1.2392 1.2716 1.1308 1.03243
839.106 1.1167 1.2587 1.3636 1.4791 1.6857 2.156 2.566 2.436 2.086 1.7308
858.395 1.2968 1.0518 1.1191 1.1792 1.0748 1.0848 1.055 1.1237 1.02236 0.759
877.685 0.745 0.674 0.711 0.8475 0.96709 0.8968 0.767 0.776 0.833 0.945649
896.975 1.02427 0.9209 0.8513 1.01151 0.9489 0.776 0.742 0.741 0.705 0.752
916.265 0.807 0.711 0.699 0.747 0.77 0.607 0.619 0.735 0.666 0.728
935.555 0.745 0.736 0.655 0.726 0.865 0.64 0.635 0.769 0.738 0.646
954.844 0.59 0.617 0.657 0.836 0.875 0.676 0.612 0.646 0.473 0.419
974.134 0.518 0.49 0.357 0.415 0.587 0.778 0.9255 0.96838 1.0982 1.3382
993.424 1.3786 1.2214 1.0056 0.686 0.596 0.477 0.366 0.479 0.446 0.337
1012.714 0.354 0.346 0.453 0.635 0.507 0.416 0.234 0.158 0.433 0.509
1032.003 0.398 0.184 0.09 0.267 0.555 0.9178 1.0897 1.01185 0.98328 0.786
1051.293 0.56 0.355 0.382 0.432 0.374 0.53 0.449 0.235 0.626 0.487
1070.583 0 0.326 0.38 0.276 0.183 0.577 0.95155 0.571 0.701 0.9139
1089.873 0.614 0.233 0.319 0.553 0.638 0.8532 0.547 0.268 0.498 0.582
1109.163 0.419 0.276 0.37 0.457 0.6 1.00125 1.1266 0.617 0.62 0.863
1128.452 0.8913 1.199 1.3315 1.1311 1.03406 1.1183 1.2818 1.5909 2.026 2.106
1147.742 1.8489 1.5331 1.2352 1.318 1.3152 1.3872 1.5621 1.3867 1.0965 1.02509
1167.032 1.3558 1.7626 1.8324 1.7802 1.976 2.256 2.356 2.316 2.476 2.246
1186.322 1.986 2.216 2.216 1.976 2.036 2.076 1.884 2.176 2.316 2.346
1205.611 2.706 2.626 2.606 3.016 3.046 2.956 2.906 2.846 2.866 2.926
1224.901 3.026 3.136 3.236 3.036 3.056 3.326 3.686 3.896 3.986 3.916
1244.191 3.776 3.806 3.596 3.376 3.296 3.246 3.206 3.146 3.246 3.406
1263.481 3.376 3.496 3.556 3.346 3.146 3.126 3.146 3.016 2.966 2.976
1282.771 2.886 2.856 2.916 2.836 2.836 2.736 2.566 2.506 2.476 2.416
1302.060 2.276 2.166 2.146 2.136 2.096 1.996 2.036 2.076 1.986 1.966
1321.350 1.966 1.996 2.036 1.9245 1.8618 1.8482 1.8238 1.8581 1.8794 1.8978
1340.640 1.9321 1.996 2.076 2.196 2.356 2.586 2.886 3.296 3.786 4.256
1359.930 4.846 5.596 6.396 7.136 7.746 8.136 8.136 7.696 6.836 5.736
1379.219 4.626 3.666 2.986 2.566 2.336 2.156 1.986 1.8583 1.7698 1.6539
1398.509 1.5726 1.5229 1.4616 1.4849 1.4994 1.5105 1.5074 1.4461 1.478 1.5359
1417.799 1.5381 1.6574 1.7543 1.8812 2.146 2.486 2.816 2.986 3.026 2.906
1437.089 2.636 2.316 2.036 1.8083 1.6908 1.5776 1.4934 1.5037 1.6497 1.8029
1456.378 1.8963 2.166 2.416 2.646 2.896 3.076 3.126 3.066 2.846 2.596
1475.668 2.406 2.206 2.056 1.912 1.9273 1.966 1.9284 2.046 2.196 2.266
1494.958 2.436 2.716 3.026 3.446 4.006 4.726 5.846 7.226 8.746 10.606
1514.248 12.726 14.836 16.766 18.376 19.616 20.086 19.866 18.886 17.206 15.166
1533.538 13.126 11.406 10.106 9.006 7.866 6.826 6.056 5.316 4.636 4.046
1552.827 3.676 3.446 3.156 2.916 2.706 2.616 2.606 2.576 2.656 2.636
1572.117 2.716 2.826 2.786 2.696 2.626 2.486 2.436 2.366 2.226 2.136
1591.407 2.066 2.016 1.7972 1.7 1.7964 1.7228 1.6877 1.7235 1.6954 1.7503
1610.697 1.7187 1.6536 1.7479 1.7597 1.564 1.6526 1.7984 1.76 1.7054 1.6362
1629.986 1.6422 1.6435 1.6276 1.6014 1.6319 1.6356 1.5861 1.6426 1.6797 1.6761
1649.276 1.5991 1.6456 1.6682 1.5873 1.5958 1.6049 1.513 1.5239 1.4914 1.4132
1668.566 1.5399 1.4863 1.4326 1.4617 1.4252 1.3929 1.367 1.3196 1.3135 1.4564
1687.856 1.4679 1.3844 1.4379 1.4572 1.5067 1.5585 1.4391 1.4785 1.5301 1.4244
1707.146 1.4442 1.5385 1.5383 1.512 1.4313 1.4566 1.6033 1.525 1.4954 1.5264
1726.435 1.4053 1.4519 1.5977 1.5222 1.5821 1.5454 1.4532 1.5418 1.5562 1.4811
1745.725 1.4975 1.5719 1.583 1.6213 1.5499 1.5172 1.5239 1.5059 1.5596 1.6059
1765.015 1.5611 1.5858 1.6164 1.5605 1.5374 1.4348 1.4426 1.4686 1.4338 1.4184
1784.305 1.4042 1.3951 1.3197 1.318 1.3682 1.4024 1.4155 1.3866 1.3657 1.3602
1803.594 1.3418 1.3963 1.382 1.2884 1.3297 1.3241 1.2949 1.3199 1.3461 1.3476
1822.884 1.3298 1.3229 1.3251 1.3073 1.3316 1.3834 1.3566 1.3498 1.3369 1.2879
1842.174 1.307 1.2949 1.2803 1.3068 1.2916 1.323 1.3411 1.2916 1.3214 1.3945
1861.464 1.3786 1.3369 1.3364 1.3329 1.3598 1.3329 1.3165 1.3642 1.3979 1.4122
1880.754 1.3524 1.2779 1.3163 1.3954 1.4026 1.3792 1.3382 1.3102 1.227 1.2322
1900.043 1.2574 1.2899 1.3408 1.303 1.3497 1.3634 1.3312 1.343 1.303 1.2591
1919.333 1.2441 1.2812 1.3511 1.3415 1.3096 1.2725 1.2364 1.2095 1.208 1.2536
1938.623 1.291 1.2718 1.2855 1.3452 1.3496 1.3439 1.3723 1.386 1.3331 1.3161
1957.913 1.301 1.2637 1.2663 1.2865 1.3086 1.2957 1.2637 1.2882 1.3309 1.3545
1977.202 1.3399 1.3446 1.352 1.3237 1.3191 1.2877 1.2537 1.3542 1.3815 1.2741
1996.492 1.2353 1.2517 1.2581 1.229 1.2111 1.1941 1.1995 1.3074 1.3244 1.244
2015.782 1.2618 1.2343 1.2254 1.2657 1.3041 1.3453 1.3151 1.2466 1.2368 1.2153
2035.072 1.1965 1.2497 1.2405 1.2108 1.2685 1.2846 1.2388 1.2326 1.2383 1.2611
2054.362 1.2651 1.1893 1.1636 1.2106 1.188 1.1862 1.2728 1.263 1.2148 1.184
2073.651 1.1974 1.231 1.2726 1.3108 1.2503 1.1649 1.1289 1.1458 1.1821 1.243
2092.941 1.3057 1.2585 1.1749 1.1907 1.205 1.2054 1.2182 1.227 1.2442 1.2688
2112.231 1.3136 1.291 1.2671 1.2824 1.3204 1.2946 1.2273 1.2621 1.2459 1.2172
2131.521 1.266 1.2632 1.2574 1.3053 1.3325 1.2771 1.1972 1.2422 1.2493 1.2689
2150.810 1.3059 1.2515 1.2603 1.3154 1.2752 1.2526 1.2707 1.2671 1.2307 1.1869
2170.100 1.1828 1.2218 1.2547 1.2133 1.2565 1.2684 1.2353 1.1934 1.1948 1.2919
2189.390 1.2824 1.1997 1.2069 1.2693 1.2919 1.2766 1.2097 1.176 1.3018 1.2929
2208.680 1.1717 1.2161 1.2676 1.2774 1.2499 1.2853 1.3254 1.3266 1.3577 1.3262
2227.970 1.3136 1.2872 1.2506 1.2973 1.2658 1.2203 1.2064 1.2079 1.2486 1.2481
2247.259 1.2271 1.2003 1.198 1.2608 1.3418 1.3372 1.2635 1.2113 1.2435 1.2726
2266.549 1.2897 1.2899 1.2554 1.2244 1.2849 1.3382 1.299 1.3315 1.3621 1.3397
2285.839 1.3283 1.3157 1.2475 1.2207 1.2739 1.2672 1.2151 1.2346 1.2262 1.1918
2305.129 1.2021 1.1922 1.2136 1.2054 1.2386 1.3132 1.2489 1.2449 1.2323 1.2237
2324.418 1.2805 1.2352 1.1936 1.2214 1.2223 1.2145 1.2076 1.2227 1.2962 1.2725
2343.708 1.2179 1.2157 1.2477 1.2766 1.2981 1.2919 1.2924 1.2996 1.2708 1.2591
2362.998 1.2592 1.2952 1.297 1.3299 1.2862 1.184 1.2543 1.3537 1.3078 1.3063
2382.288 1.2721 1.1647 1.2537 1.2754 1.1615 1.211 1.2853 1.3269 1.3971 1.3782
2401.578 1.2956 1.2864 1.3203 1.2501 1.1903 1.1738 1.2099 1.2799 1.3051 1.2938
2420.867 1.2983 1.2697 1.2316 1.2297 1.2434 1.2604 1.3338 1.3426 1.2638 1.259
2440.157 1.2782 1.2922 1.2954 1.2264 1.2143 1.2366 1.1417 1.1547 1.2591 1.3279
2459.447 1.3098 1.2651 1.2889 1.2637 1.2201 1.3234 1.4208 1.3314 1.1798 1.199
2478.737 1.287 1.2696 1.3038 1.3277 1.3452 1.4241 1.3754 1.2731 1.2863 1.411
2498.026 1.404 1.3455 1.3274 1.2168 1.252 1.3461 1.4072 1.4157 1.3555 1.2843
2517.316 1.233 1.2571 1.285 1.278 1.2526 1.1754 1.2084 1.2739 1.2477 1.2859
2536.606 1.3183 1.2983 1.278 1.3096 1.3407 1.3121 1.2786 1.2511 1.2559 1.2766
2555.896 1.2806 1.1957 1.2496 1.3571 1.3315 1.3268 1.3395 1.3193 1.3147 1.3372
2575.186 1.2959 1.2983 1.2781 1.2391 1.2375 1.3491 1.3989 1.2954 1.2717 1.2433
2594.475 1.2109 1.224 1.2247 1.2167 1.247 1.234 1.2212 1.2821 1.347 1.3169
2613.765 1.2963 1.3443 1.3849 1.3746 1.2778 1.2996 1.3863 1.4185 1.388 1.2988
2633.055 1.2049 1.2125 1.3 1.4387 1.4892 1.4135 1.43 1.4395 1.3939 1.3686
2652.345 1.3707 1.3207 1.2932 1.4173 1.4995 1.4688 1.4274 1.3657 1.291 1.2576
2671.634 1.3368 1.438 1.4255 1.4194 1.4133 1.4627 1.4432 1.3488 1.2652 1.2404
2690.924 1.2062 1.2479 1.3727 1.3942 1.4589 1.4306 1.3404 1.3219 1.3449 1.2883
2710.214 1.2959 1.3631 1.3558 1.2661 1.1682 1.3103 1.3965 1.3547 1.3631 1.3148
2729.504 1.2999 1.3616 1.4003 1.4147 1.3686 1.2677 1.306 1.3585 1.3746 1.3734
2748.794 1.2387 1.2141 1.3117 1.3397 1.2377 1.2533 1.3396 1.3157 1.2736 1.2713
2768.083 1.4085 1.4349 1.3502 1.3788 1.3838 1.3513 1.3424 1.3215 1.1556 1.1637
2787.373 1.2123 1.1185 1.1365 1.1532 1.125 1.1745 1.3223 1.2956 1.2961 1.3129
2806.663 1.2606 1.2039 1.1621 1.2244 1.2759 1.3007 1.3149 1.2468 1.2137 1.2691
2825.953 1.2138 1.1681 1.2553 1.3401 1.2389 1.1998 1.1906 1.1092 1.2369 1.4144
2845.242 1.3937 1.1825 1.185 1.2069 1.129 1.1391 1.1444 1.1623 1.1435 1.2435
2864.532 1.3489 1.4002 1.3951 1.2629 1.3038 1.369 1.2728 1.2197 1.3297 1.358
2883.822 1.3888 1.3778 1.3438 1.3845 1.2352 1.1142 1.2151 1.2445 1.2725 1.4189
2903.112 1.4693 1.332 1.3146 1.425 1.4116 1.3546 1.2828 1.2522 1.2724 1.2762
2922.401 1.2472 1.3324 1.3751 1.387 1.3618 1.2354 1.2184 1.3013 1.3395 1.2782
2941.691 1.3756 1.4927 1.424 1.3653 1.4082 1.5357 1.4699 1.3947 1.5062 1.5481
2960.981 1.5386 1.5327 1.5548 1.6041 1.5039 1.4314 1.5276 1.5942 1.4838 1.4065
2980.271 1.3526 1.3739 1.4912 1.4502 1.4519 1.5061 1.5717 1.5388 1.4556 1.568
2999.561 1.6544 1.5691 1.615 1.8031 1.8091 1.5948 1.6003 1.6645 1.6613 1.793
3018.850 1.8176 1.8532 1.755 1.7995 2.036 1.966 1.7799 1.7276 1.7607 1.7753
3038.140 1.9085 1.946 1.9078 1.9284 1.8727 1.986 2.136 2.296 2.456 2.716
3057.430 2.956 3.046 3.086 2.936 3.016 3.366 3.476 3.376 3.286 3.176
3076.720 2.816 2.416 2.146 2.016 1.8437 1.7541 1.7373 1.7485 1.8681 1.8294
3096.009 1.718 1.7806 1.8151 1.6338 1.4915 1.4811 1.4855 1.4673 1.3786 1.2612
3115.299 1.274 1.4292 1.472 1.4526 1.4669 1.4278 1.3588 1.4014 1.4935 1.4605
3134.589 1.4858 1.5564 1.5544 1.5469 1.5049 1.4061 1.4475 1.5938 1.5016 1.4722
3153.879 1.4886 1.4376 1.3994 1.2929 1.2099 1.3652 1.4809 1.4701 1.4676 1.3952
3173.169 1.4439 1.4604 1.483 1.5501 1.3802 1.2242 1.2674 1.2529 1.2124 1.2195
3192.458 1.244 1.3187 1.4145 1.4036 1.3208 1.405 1.4849 1.3974 1.368 1.3337
3211.748 1.4886 1.4504 1.4201 1.4934 1.4001 1.4336 1.5214 1.454 1.2265 1.1774
3231.038 1.2144 1.2155 1.2821 1.4393 1.5625 1.5806 1.54 1.4096 1.3463 1.4208
3250.328 1.4824 1.4237 1.4588 1.5613 1.3445 1.1759 1.2084 1.3015 1.4137 1.4028
3269.617 1.3678 1.4136 1.4629 1.3523 1.2476 1.2685 1.3819 1.4331 1.389 1.369
3288.907 1.3947 1.4097 1.3213 1.3132 1.2624 1.3537 1.5021 1.4269 1.5192 1.5492
3308.197 1.501 1.5965 1.7121 1.4345 1.2418 1.2876 1.2398 1.2874 1.2847 1.2746
3327.487 1.2612 1.2914 1.3422 1.3239 1.3101 1.3896 1.4834 1.4196 1.4169 1.5644
3346.777 1.56 1.4733 1.5662 1.5204 1.252 1.2586 1.2692 1.235 1.4157 1.4598
3366.066 1.4037 1.4249 1.2796 1.1627 1.3393 1.4019 1.1843 1.1969 1.3677 1.4373
3385.356 1.3189 1.1839 1.3917 1.481 1.4684 1.6514 1.6337 1.4041 1.3038 1.3734
3404.646 1.4404 1.3827 1.4363 1.5336 1.4666 1.3456 1.4019 1.3708 1.2901 1.3435
3423.936 1.3575 1.3677 1.3025 1.2958 1.319 1.2901 1.1781 1.1149 1.3661 1.6254
3443.225 1.6424 1.526 1.4831 1.3835 1.4199 1.5818 1.4889 1.5056 1.4875 1.3888
3462.515 1.3845 1.3874 1.3282 1.3714 1.3792 1.4307 1.575 1.4891 1.4909 1.5286
3481.805 1.48 1.5169 1.5601 1.5688 1.5148 1.4407 1.4075 1.4863 1.3327 1.2395
3501.095 1.2797 1.2038 1.3774 1.5509 1.5948 1.5898 1.5693 1.4849 1.5068 1.6672
3520.385 1.7523 1.6734 1.4905 1.4193 1.4527 1.4188 1.3541 1.3113 1.4247 1.5626
3539.674 1.6229 1.6832 1.4703 1.3312 1.4508 1.5163 1.4808 1.3257 1.2411 1.363
3558.964 1.4189 1.487 1.4933 1.3437 1.3462 1.4357 1.3622 1.2388 1.3597 1.4492
3578.254 1.5491 1.4767 1.242 1.2456 1.3046 1.2755 1.2798 1.4725 1.5089 1.3778
3597.544 1.323 1.4184 1.5362 1.4439 1.4394 1.4278 1.5002 1.6105 1.404 1.2194
3616.833 1.2647 1.3532 1.3315 1.3989 1.4415 1.4034 1.4007 1.433 1.4794 1.4
3636.123 1.2502 1.2798 1.2517 1.132 1.2404 1.412 1.5329 1.532 1.5824 1.4197
3655.413 1.308 1.2855 1.2488 1.5111 1.7069 1.5205 1.2266 1.2482 1.4305 1.3771
3674.703 1.3224 1.4003 1.3645 1.4412 1.5287 1.506 1.3892 1.4471 1.4388 1.2329
3693.993 1.309 1.3096 1.0973 1.2531 1.3842 1.4191 1.2465 1.1518 1.2232 1.341
3713.282 1.6251 1.5018 1.388 1.433 1.565 1.5334 1.3167 1.3424 1.3893 1.143
3732.572 1.1178 1.3345 1.5684 1.4757 1.2014 1.2334 1.1962 1.2416 1.3127 1.2737
3751.862 1.3704 1.497 1.4499 1.3318 1.323 1.3871 1.3611 1.3656 1.1973 1.1737
3771.152 1.1396 1.1279 1.3854 1.5403 1.6376 1.2894 1.2603 1.484 1.3878 1.3454
3790.441 1.425 1.3108 1.2072 1.3145 1.3374 1.2498 1.3132 1.1967 1.1754 1.2464
3809.731 1.1749 1.4664 1.4981 1.43 1.3204 1.1513 1.2955 1.3817 1.4598 1.5555
3829.021 1.5522 1.5062 1.3249 1.27 1.256 1.4303 1.6603 1.3485 1.0742 1.1125
3848.311 1.3986 1.5413 1.457 1.692 1.5526 1.2688 1.276 1.2181 1.2896 1.3318
3867.601 1.283 1.209 1.2626 1.314 1.3543 1.4528 1.444 1.404 1.3136 1.3692
3886.890 1.448 1.4644 1.5094 1.3966 1.2964 1.2453 1.3478 1.4854 1.6282 1.5275
3906.180 1.352 1.4746 1.4703 1.4801 1.4172 1.2258 1.2249 1.4729 1.3512 1.1132
3925.470 1.2266 1.3085 1.4123 1.6125 1.5264 1.3228 1.3204 1.2897 1.1692 1.1767
3944.760 1.2618 1.3379 1.5673 1.4395 1.2549 1.2994 1.3609 1.6451 1.6685 1.4806
3964.049 1.351 1.3338 1.2997 1.1709 1.3274 1.4132 1.3525 1.4637 1.4541 1.4671
3983.339 1.4719 1.385 1.3393 1.2546 1.2366 1.2137 1.3923 1.5227 1.227 1.1069
##END=
