##TITLE=cis-4-Methyl-2-hexene
##JCAMP-DX=4.24
##DATA TYPE=INFRARED SPECTRUM
##ORIGIN=NIST Mass Spectrometry Data Center
##OWNER=NIST Standard Reference Data Program
Collection (C) 2018 copyright by the U.S. Secretary of Commerce
on behalf of the United States of America. All rights reserved.
##CAS REGISTRY NO=3683-19-0
##MOLFORM=C 7 H 14
##$NIST SOURCE=MSDC-IR
##SPECTROMETER/DATA SYSTEM=HP-GC/MS/IRD
##STATE=gas
##XUNITS=1/CM
##YUNITS=ABSORBANCE
##XFACTOR=1.0
##YFACTOR=0.000001500
##DELTAX=4.0
##FIRSTX=550.0
##LASTX=3846.0
##FIRSTY=0.000279
##MAXX=3846
##MINX=550
##MAXY=0.015
##MINY=0
##NPOINTS=825
##XYDATA=(X++(Y..Y))
550.0 186 66 14 66 135 180 215 206 207 239
590.0 235 196 170 181 148 63 58 75 50 71
630.0 9 26 83 85 52 128 90 77 143 137
670.0 161 100 125 386 520 615 845 1095 1412 1821
710.0 2189 2329 2338 2179 1848 1487 1064 705 479 377
750.0 353 294 269 277 326 411 427 392 349 286
790.0 240 268 268 228 189 191 192 179 261 252
830.0 174 142 114 115 130 110 64 43 47 86
870.0 116 115 126 157 163 160 160 131 124 146
910.0 196 248 294 344 374 421 481 499 494 473
950.0 436 430 430 458 534 592 590 578 602 554
990.0 477 467 451 435 418 406 372 321 331 331
1030.0 290 272 248 203 169 155 154 149 176 193
1070.0 196 189 189 217 251 260 268 261 233 215
1110.0 212 174 157 178 191 178 172 197 195 196
1150.0 203 179 129 140 158 160 144 112 113 116
1190.0 98 97 94 86 82 78 103 120 93 107
1230.0 125 110 124 158 166 148 165 197 240 257
1270.0 254 258 274 321 323 292 306 319 351 376
1310.0 389 403 389 372 365 350 333 326 316 348
1350.0 387 439 507 618 737 825 913 1006 1060 1050
1390.0 1007 954 913 853 827 793 748 708 652 621
1430.0 644 710 827 981 1162 1324 1444 1535 1549 1450
1470.0 1308 1131 949 770 615 483 405 360 308 286
1510.0 268 264 269 257 237 237 251 233 227 222
1550.0 218 222 215 204 183 162 163 172 169 170
1590.0 177 165 161 164 154 134 130 129 146 172
1630.0 181 203 239 267 289 317 327 321 320 335
1670.0 328 325 323 313 294 260 220 193 175 144
1710.0 120 121 132 127 114 108 99 87 100 111
1750.0 127 111 80 97 102 84 86 81 72 80
1790.0 80 67 67 85 84 62 45 39 42 53
1830.0 58 58 57 50 47 49 41 43 48 43
1870.0 36 31 34 49 62 60 51 38 35 52
1910.0 60 52 50 39 35 49 51 35 41 58
1950.0 45 45 60 59 68 63 46 36 41 72
1990.0 69 68 68 54 52 55 63 45 26 26
2030.0 42 41 35 25 27 43 41 49 52 31
2070.0 37 41 23 3 14 30 33 27 20 22
2110.0 36 39 23 35 53 41 27 31 25 29
2150.0 51 51 38 39 34 32 61 62 39 29
2190.0 32 39 41 27 19 25 33 36 41 47
2230.0 33 18 38 43 42 61 61 53 48 60
2270.0 70 54 47 61 69 72 79 85 76 71
2310.0 66 67 66 60 68 74 66 68 74 82
2350.0 76 61 56 58 58 65 66 79 96 90
2390.0 78 75 59 47 54 65 59 53 71 77
2430.0 66 56 55 70 61 51 74 78 85 91
2470.0 69 71 82 69 76 92 90 97 90 75
2510.0 81 83 92 111 99 77 94 113 104 100
2550.0 108 100 86 104 122 123 124 107 120 141
2590.0 126 104 96 105 110 117 135 150 142 124
2630.0 107 103 103 124 131 103 114 154 164 146
2670.0 149 166 160 139 152 160 155 154 174 184
2710.0 190 200 207 214 220 247 255 257 284 287
2750.0 277 279 283 254 244 271 314 330 343 379
2790.0 385 390 406 438 433 430 488 549 589 625
2830.0 693 795 918 1079 1309 1585 1927 2314 2779 3276
2870.0 3681 3990 4211 4287 4299 4277 4235 4199 4248 4473
2910.0 4904 5469 6117 6722 7125 7327 7365 7292 7127 6992
2950.0 7070 7574 8608 9602 10000 9813 9248 8258 6918 5414
2990.0 4171 3488 3192 3179 3323 3559 3747 3606 3266 2930
3030.0 2548 2115 1740 1449 1261 1147 1027 942 889 858
3070.0 824 777 726 649 575 524 482 439 417 379
3110.0 337 327 310 299 278 260 262 261 275 261
3150.0 245 264 260 226 213 231 224 234 245 217
3190.0 234 200 144 135 113 107 116 119 101 106
3230.0 107 82 72 95 99 101 102 88 50 45
3270.0 75 65 44 59 61 54 65 76 85 73
3310.0 84 101 85 83 103 106 100 110 100 78
3350.0 79 64 54 87 58 51 85 79 77 115
3390.0 112 72 48 55 74 71 73 53 41 29
3430.0 48 98 92 51 52 45 44 49 75 119
3470.0 90 50 56 32 51 79 37 41 53 37
3510.0 35 55 37 28 49 55 75 74 82 65
3550.0 23 37 51 48 83 100 78 97 113 81
3590.0 61 48 33 42 45 40 27 50 88 104
3630.0 94 39 43 74 66 40 19 30 54 57
3670.0 89 102 92 80 33 24 48 48 53 78
3710.0 79 51 45 42 57 57 26 52 113 70
3750.0 51 72 44 32 41 61 64 62 71 65
3790.0 48 41 53 57 41 27 29 63 68 46
3830.0 10 0 33 100 114
##END=
