##TITLE=2-Fluoro-5-nitroaniline
##JCAMP-DX=4.24
##DATA TYPE=INFRARED SPECTRUM
##ORIGIN=EPA-IR VAPOR PHASE LIBRARY
##OWNER=SRD/NIST
Collection (C) 2018 copyright by the U.S. Secretary of Commerce
on behalf of the United States of America. All rights reserved.
##CAS REGISTRY NO=369-36-8
##MOLFORM=C 6 H 5 F N 2 O 2
##$NIST SOURCE=MSDC-IR
##STATE=gas
##XUNITS=1/CM
##YUNITS=ABSORBANCE
##XFACTOR=1.
##YFACTOR=0.001
##DELTAX=3.85796
##FIRSTX=501.5
##LASTX=4000.7
##FIRSTY=4.14
##MAXX=4000.7
##MINX=501.534
##MAXY=0.10458
##MINY=0.0002464
##NPOINTS=908
##XYDATA=(X++(Y..Y))
501.534 4.14 4 3.85 3.8 3.71 3.68 3.79 4.1 4.44 4.73
540.114 4.88 4.83 4.72 4.65 4.57 4.52 4.54 4.49 4.49 4.34
578.693 4.04 3.89 3.83 3.75 3.78 3.93 4.09 4.31 4.61 5.03
617.273 6 7.96 10.53 13.08 15.2 16.19 15.97 15.17 14.14 13.3
655.852 12.68 12.15 11.7 11.27 10.77 10.22 9.77 9.48 9.4 9.56
694.432 10.06 10.88 11.9 12.95 13.9 14.72 15.64 16.87 18.4 20.17
733.011 22.2 25.47 26.03 22.63 19.67 17.45 15.86 15.75 16.91 18.01
771.591 18.16 17.3 15.26 12.7 10.9 10.2 10.26 11.08 12.97 16.47
810.170 21.73 25.76 25.16 21.76 16.83 10.71 6.44 4.68 4.07 4.03
848.750 4.36 5.1 6.35 8.07 10.14 12.19 14.05 15.22 14.45 12.22
887.330 10.02 7.93 6.05 4.67 3.81 3.32 3.16 3.2 3.36 3.68
925.909 4.14 4.76 5.42 5.98 6.32 6.13 5.71 5.05 3.96 3.02
964.489 2.49 2.2 2.11 2.16 2.16 2.11 2.1 2.1 2.1 2.06
1003.068 1.99 1.88 1.79 1.66 1.56 1.46 1.34 1.43 1.74 1.95
1041.648 2.09 2.33 2.85 3.82 4.97 5.99 6.67 6.96 6.72 6.11
1080.227 5.75 5.93 6.48 6.88 6.75 6.27 5.48 4.47 4.13 4.85
1118.807 6.38 7.99 8.59 8.31 7.51 5.83 4.02 3.02 2.58 2.32
1157.387 2.23 2.25 2.28 2.36 2.54 2.83 3.34 4.12 5.33 7.03
1195.966 9.83 14.97 24.27 37.81 49.6 54.28 53.13 43.84 27.14 14.31
1234.546 8.86 6.61 5.7 5.51 5.82 6.52 7.54 8.88 10.68 13.26
1273.125 17.16 23.05 30.6 37.1 39.47 37.53 31.62 22.73 15.01 11.3
1311.705 10.85 12.51 15.72 19.98 24.63 29.2 33.85 39.89 49.79 64.42
1350.284 79.55 89.03 89.55 78.23 56.53 34.55 19.88 12.26 8.51 6.56
1388.864 5.52 4.91 4.51 4.28 4.15 4.03 3.96 4.03 4.37 5.06
1427.443 6.23 8.05 10.24 11.95 12.62 12.23 10.48 8.17 6.68 6.38
1466.023 6.88 7.91 9.42 11.46 14.11 17.63 23.3 32.93 47.6 64.41
1504.603 76.37 80.55 77.37 67.77 57.04 53.58 59.03 70.59 85.16 98.14
1543.182 104.58 103.74 98.15 87.31 73.08 60.95 52.32 45.85 39.8 33.24
1581.762 28.77 27 26.64 26.61 26.19 24.83 23.01 21.57 20.91 21.01
1620.341 21.34 21.95 23.3 25.3 27.22 27.92 26.95 24.56 20.92 16.03
1658.921 11.6 8.42 6.44 5.27 4.6 4.2 3.97 3.75 3.55 3.39
1697.500 3.22 3.04 2.86 2.67 2.49 2.33 2.21 2.18 2.24 2.38
1736.080 2.57 2.72 2.78 2.71 2.51 2.23 1.95 1.67 1.44 1.27
1774.659 1.14 1.07 1.02 0.9783 0.9149 0.874 0.8422 0.8068 0.7749 0.7565
1813.239 0.7495 0.7584 0.7886 0.8342 0.9117 1.02 1.14 1.32 1.55 1.77
1851.819 1.95 2.09 2.13 2.03 1.86 1.65 1.41 1.21 1.06 0.9667
1890.398 0.9263 0.8758 0.82 0.7777 0.7449 0.7043 0.6756 0.6867 0.6988 0.712
1928.978 0.7194 0.7291 0.7397 0.7298 0.7113 0.7031 0.7013 0.6965 0.71 0.7492
1967.557 0.8059 0.8609 0.9349 1.03 1.1 1.12 1.09 1.01 0.9304 0.8707
2006.137 0.8114 0.7648 0.7195 0.6929 0.6996 0.7194 0.7508 0.7887 0.8224 0.8433
2044.716 0.8526 0.8605 0.885 0.8933 0.8673 0.8358 0.7944 0.7292 0.6691 0.6361
2083.296 0.6 0.5685 0.5404 0.5129 0.4899 0.4653 0.447 0.4343 0.4192 0.4109
2121.875 0.4032 0.3923 0.4078 0.4251 0.4278 0.4408 0.4681 0.493 0.5154 0.5335
2160.455 0.5349 0.5178 0.5 0.5028 0.4995 0.4822 0.5017 0.5409 0.5453 0.5305
2199.035 0.5252 0.5152 0.5109 0.4863 0.456 0.4583 0.4591 0.472 0.4684 0.4407
2237.614 0.4432 0.444 0.4479 0.4762 0.5062 0.5395 0.5941 0.6616 0.7244 0.7688
2276.194 0.7821 0.7939 0.777 0.7339 0.6909 0.6579 0.6423 0.612 0.5985 0.5888
2314.773 0.5674 0.5477 0.5268 0.5263 0.5381 0.5383 0.5503 0.606 0.665 0.7096
2353.353 0.7529 0.7853 0.7766 0.7644 0.746 0.7054 0.6801 0.6583 0.6306 0.6059
2391.932 0.5957 0.5692 0.5679 0.5936 0.6064 0.6368 0.7027 0.7607 0.8128 0.8566
2430.512 0.8418 0.7825 0.7157 0.6462 0.6231 0.6264 0.5913 0.5572 0.5139 0.4546
2469.092 0.3968 0.3739 0.3842 0.3876 0.3825 0.3737 0.3557 0.3389 0.3332 0.352
2507.671 0.3745 0.3707 0.3739 0.3879 0.4158 0.4578 0.5101 0.5584 0.6101 0.6525
2546.251 0.645 0.6194 0.6017 0.603 0.6249 0.6596 0.6744 0.6951 0.7142 0.676
2584.830 0.6202 0.5535 0.5004 0.4593 0.4278 0.4293 0.4473 0.4655 0.4933 0.5352
2623.410 0.5913 0.6779 0.779 0.8902 0.9911 1.11 1.25 1.37 1.48 1.56
2661.989 1.58 1.55 1.46 1.34 1.23 1.12 1.02 0.954 0.916 0.8856
2700.569 0.8466 0.8339 0.8312 0.7893 0.7422 0.7043 0.6594 0.6139 0.563 0.5162
2739.148 0.4986 0.4547 0.4249 0.4271 0.433 0.4554 0.4644 0.4713 0.4739 0.4952
2777.728 0.5199 0.5147 0.4878 0.479 0.4956 0.4898 0.4681 0.4666 0.4664 0.4676
2816.308 0.509 0.537 0.5734 0.624 0.6758 0.7281 0.7857 0.8321 0.8815 0.9884
2854.887 1.06 1.1 1.2 1.32 1.42 1.47 1.51 1.53 1.52 1.47
2893.467 1.43 1.39 1.34 1.31 1.32 1.3 1.27 1.2 1.11 1.06
2932.046 0.9754 0.8595 0.7677 0.7175 0.6861 0.6377 0.5561 0.4724 0.4534 0.4426
2970.626 0.4287 0.3898 0.3245 0.3509 0.3626 0.3497 0.3736 0.3883 0.4141 0.4501
3009.205 0.4571 0.4496 0.436 0.4254 0.4046 0.3789 0.3754 0.3996 0.4312 0.4162
3047.785 0.4633 0.5881 0.7259 0.8422 0.9724 1.18 1.51 2 2.44 2.62
3086.364 2.62 2.4 1.95 1.54 1.4 1.38 1.32 1.22 1.05 0.836
3124.944 0.6478 0.5124 0.3968 0.3214 0.317 0.3106 0.3211 0.3751 0.4013 0.3847
3163.524 0.3821 0.4464 0.4892 0.4982 0.5501 0.6195 0.6885 0.7516 0.7965 0.8517
3202.103 0.9507 1.03 1.11 1.19 1.19 1.21 1.21 1.09 0.9344 0.8103
3240.683 0.6978 0.64 0.5931 0.4927 0.4429 0.4327 0.3847 0.3704 0.4164 0.4228
3279.262 0.4042 0.3981 0.3737 0.3766 0.3681 0.3364 0.3321 0.3617 0.3852 0.3432
3317.842 0.3381 0.3583 0.3722 0.3891 0.3721 0.355 0.3565 0.4146 0.4627 0.5009
3356.421 0.5557 0.6153 0.7059 0.8318 0.9383 1.03 1.16 1.35 1.59 1.88
3395.001 2.34 3.02 3.98 5.31 7.16 9.42 11.74 13.59 14.41 14.17
3433.580 12.78 10.45 8.02 5.95 4.29 3.12 2.42 2.01 1.81 1.73
3472.160 1.72 1.84 2.02 2.31 2.78 3.43 4.31 5.31 6.35 7.41
3510.740 8.37 8.92 8.89 8.36 7.46 6.34 5.17 4.09 3.24 2.51
3549.319 1.89 1.44 1.15 0.9401 0.7679 0.6371 0.5266 0.4817 0.4371 0.3821
3587.899 0.3765 0.3606 0.3079 0.3167 0.3229 0.3048 0.3171 0.355 0.3306 0.2932
3626.478 0.3165 0.3323 0.2942 0.2989 0.3695 0.3601 0.3405 0.3254 0.3159 0.3264
3665.058 0.2851 0.2647 0.2634 0.2666 0.2592 0.2464 0.2948 0.3187 0.3199 0.3418
3703.637 0.3554 0.3198 0.3096 0.3897 0.4111 0.4086 0.4249 0.4369 0.4299 0.3826
3742.217 0.3676 0.3814 0.3659 0.3944 0.3803 0.3201 0.3388 0.3874 0.4168 0.4002
3780.797 0.3909 0.3821 0.4099 0.4425 0.4381 0.4511 0.446 0.3968 0.4335 0.5049
3819.376 0.4661 0.3961 0.4054 0.4453 0.488 0.5471 0.5638 0.5401 0.5274 0.6068
3857.956 0.6819 0.7117 0.7926 0.8234 0.797 0.7903 0.7371 0.6839 0.6681 0.6458
3896.535 0.6117 0.5912 0.6079 0.5838 0.4975 0.4399 0.4432 0.4227 0.4082 0.4502
3935.115 0.4213 0.4019 0.4296 0.4552 0.5123 0.5654 0.5667 0.5515 0.5453 0.5116
3973.694 0.4771 0.4706 0.4473 0.4117 0.3822 0.4075 0.4218 0.3965
##END=
