##TITLE=cis,cis-2,7-Nonadiene
##JCAMP-DX=4.24
##DATA TYPE=INFRARED SPECTRUM
##ORIGIN=NIST Mass Spectrometry Data Center
##OWNER=NIST Standard Reference Data Program
Collection (C) 2018 copyright by the U.S. Secretary of Commerce
on behalf of the United States of America. All rights reserved.
##CAS REGISTRY NO=36901-84-5
##MOLFORM=C 9 H 16
##$NIST SOURCE=MSDC-IR
##SPECTROMETER/DATA SYSTEM=HP-GC/MS/IRD
##STATE=gas
##XUNITS=1/CM
##YUNITS=ABSORBANCE
##XFACTOR=1.0
##YFACTOR=0.000001400
##DELTAX=4.0
##FIRSTX=550.0
##LASTX=3846.0
##FIRSTY=0.000123
##MAXX=3846
##MINX=550
##MAXY=0.014
##MINY=0
##NPOINTS=825
##XYDATA=(X++(Y..Y))
550.0 88 53 124 237 291 312 418 646 816 822
590.0 808 710 489 411 339 304 373 391 319 312
630.0 451 567 618 656 827 1087 1266 1358 1562 1865
670.0 2090 2389 2759 3026 3138 3238 3334 3322 3215 2949
710.0 2542 2136 1746 1421 1141 890 753 584 423 341
750.0 288 251 218 187 188 215 179 105 67 81
790.0 100 74 70 77 50 16 0 9 32 46
830.0 44 62 93 143 140 127 147 123 84 98
870.0 111 118 116 102 95 102 133 149 140 193
910.0 259 281 266 290 329 353 423 473 504 478
950.0 417 399 387 400 415 369 321 315 334 381
990.0 438 425 445 491 431 420 446 428 422 430
1030.0 435 454 475 418 363 312 284 201 101 117
1070.0 157 157 154 124 136 149 126 111 105 118
1110.0 131 131 117 126 121 102 100 60 34 32
1150.0 26 9 16 48 36 47 91 113 118 81
1190.0 49 75 123 120 82 88 101 131 134 136
1230.0 161 125 106 106 148 190 179 198 183 174
1270.0 191 209 240 285 294 262 276 313 304 314
1310.0 369 409 447 498 512 516 511 536 587 587
1350.0 602 626 626 649 710 773 799 800 759 750
1390.0 860 1044 1230 1361 1423 1397 1247 1070 960 924
1430.0 961 1044 1159 1270 1331 1339 1316 1240 1072 940
1470.0 820 699 609 511 455 406 359 340 316 315
1510.0 309 298 328 336 309 303 286 299 321 301
1550.0 285 287 279 262 233 214 212 185 172 176
1590.0 190 199 199 200 204 213 248 295 297 309
1630.0 355 433 514 572 647 719 757 734 666 566
1670.0 482 426 363 296 258 243 208 199 185 160
1710.0 146 137 126 113 110 110 97 72 61 49
1750.0 46 57 55 39 31 34 30 37 59 38
1790.0 18 37 32 28 46 43 37 40 18 15
1830.0 35 34 26 18 23 32 31 31 33 31
1870.0 32 38 47 44 27 23 35 34 32 38
1910.0 43 50 46 58 65 29 33 66 65 51
1950.0 36 39 68 78 72 83 107 113 107 119
1990.0 135 136 127 122 96 59 64 68 69 67
2030.0 56 39 33 42 50 65 64 60 64 49
2070.0 54 56 45 41 56 62 43 44 29 1
2110.0 5 16 21 38 48 27 27 19 15 29
2150.0 28 40 36 37 26 0 6 34 42 29
2190.0 34 37 34 30 29 37 42 34 33 39
2230.0 41 39 34 24 25 31 26 44 55 34
2270.0 28 44 31 28 45 40 41 45 50 46
2310.0 44 59 67 68 60 40 38 55 54 42
2350.0 34 38 45 62 65 17 18 35 25 15
2390.0 13 16 24 26 37 26 1 8 18 18
2430.0 21 28 34 40 31 51 46 27 41 37
2470.0 19 27 40 34 40 37 42 59 60 53
2510.0 55 42 31 35 45 41 49 59 43 44
2550.0 43 36 36 69 83 70 61 44 30 46
2590.0 48 66 59 20 41 55 63 56 60 100
2630.0 108 103 102 85 87 108 111 100 98 103
2670.0 136 132 102 74 83 108 115 131 120 107
2710.0 148 170 175 192 200 212 211 218 217 206
2750.0 218 224 240 259 261 307 318 299 310 360
2790.0 402 439 452 466 502 563 635 698 792 918
2830.0 1101 1319 1579 1930 2343 2807 3258 3688 4095 4377
2870.0 4485 4478 4388 4261 4184 4174 4228 4420 4735 5130
2910.0 5684 6405 7294 8264 9132 9740 10000 9749 9039 8090
2950.0 7058 6084 5251 4637 4205 3860 3629 3483 3352 3271
2990.0 3207 3213 3416 3776 4371 5247 6263 7125 7493 7296
3030.0 6593 5523 4508 3657 2930 2355 1959 1670 1448 1297
3070.0 1159 1040 928 795 679 592 533 460 396 390
3110.0 396 312 254 262 228 216 220 178 142 142
3150.0 139 137 147 142 138 105 93 99 87 104
3190.0 89 56 73 91 76 80 97 74 73 78
3230.0 84 105 116 106 61 70 112 76 24 47
3270.0 92 105 74 64 103 102 90 99 87 89
3310.0 117 112 75 28 31 32 34 71 73 73
3350.0 42 25 61 85 73 54 51 33 36 74
3390.0 94 72 47 35 63 64 16 9 54 60
3430.0 44 54 38 18 17 34 31 37 34 20
3470.0 21 54 79 67 64 73 80 69 83 111
3510.0 84 89 100 65 41 0 29 70 66 102
3550.0 122 94 87 116 120 141 137 96 75 75
3590.0 74 66 77 80 108 106 109 147 111 92
3630.0 87 62 62 70 97 77 82 112 88 62
3670.0 98 146 111 68 88 101 112 110 92 95
3710.0 75 69 69 69 99 108 119 124 111 79
3750.0 96 113 101 102 91 65 70 92 66 88
3790.0 112 108 106 103 117 166 182 143 134 105
3830.0 72 102 72 32 74
##END=
