##TITLE=Methylene diurethane
##JCAMP-DX=4.24
##DATA TYPE=INFRARED SPECTRUM
##ORIGIN=EPA-IR VAPOR PHASE LIBRARY
##OWNER=SRD/NIST
Collection (C) 2018 copyright by the U.S. Secretary of Commerce
on behalf of the United States of America. All rights reserved.
##CAS REGISTRY NO=3693-53-6
##MOLFORM=C 7 H 14 N 2 O 4
##$NIST SOURCE=MSDC-IR
##STATE=gas
##XUNITS=1/CM
##YUNITS=ABSORBANCE
##XFACTOR=1.
##YFACTOR=0.001
##DELTAX=1.929
##FIRSTX=549.8
##LASTX=4000.8
##FIRSTY=9.16
##MAXX=4000.75
##MINX=549.766
##MAXY=0.22822
##MINY=0
##NPOINTS=1790
##XYDATA=(X++(Y..Y))
549.766 9.16 9.15 8.72 8.6 8.89 8.98 8.88 8.55 8.13 7.96
569.056 8.07 8.01 7.8 7.89 7.75 7.37 7.34 7.41 7.33 7.35
588.346 7.23 7.32 7.56 7.51 7.35 7.2 7.36 7.4 7.18 7.2
607.636 7.03 6.71 6.51 6.27 6.27 6.18 5.81 5.63 5.7 5.6
626.926 5.32 5.14 5.11 5.02 4.96 4.96 4.77 4.54 4.37 4.32
646.216 4.38 4.09 4.03 4.1 4.04 4 3.98 4.03 3.9 3.75
665.506 3.83 3.92 3.78 3.81 3.98 4.04 4.03 4.01 3.95 3.94
684.796 4 3.98 3.93 3.86 3.85 3.86 3.87 3.84 3.77 3.75
704.086 3.72 3.75 3.7 3.5 3.53 3.54 3.4 3.31 3.24 3.19
723.376 3.14 3.11 3.02 2.95 3.04 3.06 3.09 3.17 3.22 3.37
742.666 3.52 3.59 3.66 3.69 3.68 3.92 4.08 4.25 4.52 4.82
761.956 5.12 5.51 6.13 6.77 7.52 8.37 9.32 10.42 11.45 12.17
781.246 12.72 13.06 13.08 12.85 12.37 11.88 11.28 10.51 9.87 9.26
800.536 8.64 8.07 7.47 6.98 6.6 6.18 5.95 5.71 5.42 5.2
819.826 4.95 4.8 4.7 4.65 4.64 4.58 4.45 4.33 4.33 4.34
839.116 4.38 4.49 4.56 4.7 4.89 5.01 5.14 5.34 5.49 5.74
858.406 6.07 6.29 6.34 6.36 6.57 6.62 6.58 6.55 6.43 6.33
877.696 6.13 6.01 5.94 5.77 5.69 5.69 5.69 5.78 5.95 6.17
896.986 6.53 6.97 7.61 8.45 9.52 11.04 12.81 14.79 16.91 18.9
916.276 20.41 21.25 21.25 20.57 19.34 17.69 16.01 14.41 13.09 12.04
935.566 11.21 10.63 10.18 9.85 9.61 9.47 9.38 9.29 9.16 9.02
954.856 8.98 8.89 8.69 8.59 8.5 8.29 8.05 7.9 7.77 7.55
974.146 7.4 7.34 7.39 7.52 7.6 7.77 8.06 8.43 8.81 9.25
993.436 9.97 10.76 11.71 12.99 14.45 16.2 18.34 20.85 23.86 27.27
1012.726 31.22 35.84 40.96 46.4 51.72 56.41 59.99 61.89 61.79 59.85
1032.016 56.3 51.52 46.16 40.77 35.79 31.51 28.05 25.27 23.03 21.15
1051.306 19.65 18.63 17.87 17.35 17.04 17.02 17.29 17.76 18.51 19.52
1070.596 20.65 21.93 23.3 24.62 25.85 26.98 27.97 28.84 29.55 30.22
1089.886 30.82 31.34 31.86 32.42 32.97 33.31 33.39 33.29 33.12 32.82
1109.176 32.3 31.69 31.05 30.27 29.44 28.56 27.62 26.61 25.74 24.93
1128.467 24.06 23.29 22.79 22.57 22.48 22.41 22.39 22.55 22.7 22.73
1147.757 22.78 22.67 22.46 22.32 22.05 21.87 21.95 22.17 22.67 23.45
1167.047 24.43 25.61 26.99 28.78 30.79 33 35.72 38.93 42.67 47.11
1186.337 52.37 58.56 65.71 74.12 83.98 95.4 108.59 123.38 139.8 157.65
1205.627 175.93 193.53 208.93 220.53 227.33 228.22 222.49 211.27 195.88 177.76
1224.917 159.03 141.12 125.17 111.58 99.93 90.13 81.84 74.67 68.27 62.44
1244.207 57.26 52.65 48.6 44.98 41.77 38.97 36.7 34.67 32.96 31.61
1263.497 30.47 29.56 28.81 28.34 28.06 27.95 27.91 27.98 28.23 28.7
1282.787 29.34 29.93 30.52 31.17 31.75 32.25 32.66 33.04 33.43 33.74
1302.077 34.06 34.45 34.93 35.59 36.36 37.14 37.99 38.83 39.44 39.69
1321.367 39.4 38.4 36.54 34.07 31.09 27.85 24.75 21.87 19.38 17.29
1340.657 15.54 14.14 12.98 12.08 11.45 10.99 10.75 10.71 10.77 11
1359.947 11.4 12.02 12.72 13.49 14.26 14.8 15.26 15.67 16.04 16.35
1379.237 16.68 17.16 17.78 18.55 19.46 20.44 21.29 21.77 21.85 21.55
1398.527 20.88 19.99 19.07 18.07 17.17 16.45 15.94 15.61 15.31 15.06
1417.817 14.99 15 15.02 15.16 15.35 15.59 15.99 16.6 17.33 18.17
1437.107 19.22 20.32 21.56 22.96 24.53 26.25 28.05 29.89 31.76 33.64
1456.397 35.71 37.94 40.41 43.38 46.91 51.06 55.69 60.84 66.63 73.23
1475.687 80.29 88.12 96.74 106.51 117.45 129.4 141.7 153.01 161.93 166.93
1494.977 167.14 162.64 154.12 142.45 128.89 115.02 101.23 88.94 78.31 68.56
1514.267 60 52.36 45.62 39.98 34.91 30.86 27.56 24.73 22.47 20.55
1533.557 18.92 17.62 16.49 15.43 14.63 13.97 13.27 12.65 12.17 11.71
1552.847 11.3 10.92 10.58 10.23 9.95 9.68 9.46 9.23 8.99 8.73
1572.137 8.46 8.22 8.01 7.77 7.5 7.29 7.16 6.99 6.76 6.54
1591.427 6.42 6.31 6.12 6 5.85 5.66 5.55 5.46 5.36 5.28
1610.717 5.23 5.14 5.03 4.94 4.93 4.92 4.83 4.85 4.83 4.74
1630.007 4.74 4.73 4.66 4.64 4.69 4.69 4.71 4.76 4.77 4.79
1649.297 4.85 4.82 4.82 4.94 5.04 5.1 5.21 5.36 5.52 5.69
1668.587 5.8 5.94 6.13 6.32 6.59 6.83 7.02 7.21 7.52 7.85
1687.877 8.16 8.56 8.97 9.43 10 10.59 11.26 12.04 12.78 13.56
1707.167 14.41 15.41 16.47 17.65 19.02 20.56 22.41 24.61 27.27 30.6
1726.457 35.02 41.07 49.28 60.03 74.53 91.97 111.43 133.36 155.08 175.19
1745.747 191.59 201.54 202.43 195.98 184.85 169.79 151.69 133.6 116.53 101.09
1765.037 87.61 75.64 64.9 55.79 47.87 41.31 35.83 31.29 27.44 24.15
1784.327 21.38 19 17.04 15.41 14.05 12.9 11.94 11.19 10.58 10.03
1803.617 9.58 9.18 8.8 8.44 8.1 7.73 7.35 7.02 6.68 6.31
1822.907 5.94 5.63 5.33 5.01 4.76 4.6 4.4 4.17 4 3.9
1842.197 3.79 3.65 3.58 3.49 3.37 3.29 3.26 3.19 3.09 3.09
1861.487 3.02 2.91 2.89 2.84 2.78 2.76 2.76 2.73 2.72 2.71
1880.777 2.68 2.68 2.66 2.61 2.6 2.57 2.54 2.5 2.46 2.47
1900.067 2.43 2.39 2.37 2.37 2.35 2.2665 2.2502 2.2274 2.2025 2.2118
1919.357 2.2213 2.1572 2.0718 2.0835 2.1044 2.0762 2.0277 2.0472 2.0332 2.0191
1938.647 1.9892 1.9383 1.9318 1.9205 1.9043 1.8592 1.8344 1.847 1.8541 1.8732
1957.937 1.8718 1.8507 1.8345 1.7908 1.8256 1.8772 1.8485 1.8503 1.8431 1.8434
1977.227 1.8288 1.8214 1.8626 1.84 1.8711 1.9373 1.9268 1.8814 1.8612 1.8827
1996.517 1.9006 1.9005 1.8972 1.8747 1.8095 1.8 1.8355 1.8419 1.8424 1.8504
2015.807 1.834 1.7976 1.871 1.9015 1.8231 1.8607 1.88 1.8557 1.8376 1.8096
2035.097 1.8102 1.8128 1.8241 1.8354 1.8394 1.8599 1.8638 1.8201 1.8324 1.8574
2054.387 1.8367 1.8484 1.8549 1.8475 1.8496 1.8766 1.9129 1.9495 1.9959 1.9879
2073.677 2.0012 2.0403 2.0551 2.0789 2.1423 2.1922 2.1854 2.1717 2.1977 2.1985
2092.967 2.2206 2.2561 2.2234 2.2008 2.1691 2.1286 2.0879 2.0147 2.0299 2.0548
2112.257 2.0346 1.9735 1.9178 1.938 1.9484 1.9117 1.8848 1.8661 1.8627 1.8715
2131.547 1.8937 1.9376 1.955 1.9908 1.9832 1.9623 1.9586 1.9838 2.0611 2.057
2150.837 2.0044 1.9849 1.968 1.9813 1.9858 1.9794 2.0305 2.0766 2.0331 1.9741
2170.127 1.9446 1.9134 1.8877 1.9176 1.925 1.85 1.8169 1.837 1.808 1.7903
2189.417 1.7862 1.7574 1.7591 1.7866 1.7964 1.7381 1.7095 1.7854 1.796 1.7318
2208.707 1.7288 1.7385 1.7544 1.8025 1.8866 1.946 1.957 1.9793 2.055 2.13
2227.997 2.2067 2.2859 2.39 2.49 2.52 2.57 2.68 2.75 2.81 2.89
2247.287 2.93 3 3.09 3.12 3.08 3.07 3.06 3.01 2.95 2.86
2266.577 2.83 2.79 2.7 2.69 2.7 2.67 2.67 2.65 2.6 2.56
2285.868 2.53 2.53 2.49 2.35 2.2751 2.2359 2.1387 2.087 2.0302 1.9158
2305.158 1.8322 1.7884 1.7399 1.7289 1.6861 1.6078 1.6136 1.6835 1.6605 1.627
2324.448 1.5988 1.5946 1.631 1.6344 1.5756 1.476 1.4841 1.5129 1.4801 1.4996
2343.738 1.5373 1.5104 1.496 1.4537 1.5318 1.5717 1.5205 1.5019 1.4758 1.4475
2363.028 1.41267 1.41722 1.4414 1.5374 1.5826 1.543 1.5459 1.5135 1.4445 1.4954
2382.318 1.5097 1.4928 1.5274 1.5295 1.4548 1.41454 1.4489 1.4648 1.4762 1.498
2401.608 1.5238 1.5748 1.5896 1.5806 1.5928 1.6188 1.6776 1.7322 1.7244 1.6757
2420.898 1.6979 1.7501 1.7543 1.7208 1.6858 1.6846 1.6564 1.5961 1.5962 1.6073
2440.188 1.5871 1.5451 1.4823 1.4883 1.502 1.4772 1.4982 1.5292 1.4944 1.4455
2459.478 1.42896 1.42615 1.4514 1.4331 1.33328 1.3191 1.3066 1.223 1.198 1.221
2478.768 1.216 1.184 1.184 1.164 1.165 1.12 1.115 1.143 1.083 1.105
2498.058 1.097 1.119 1.18 1.148 1.103 1.108 1.083 1.107 1.119 1.062
2517.348 1.041 1.006 1.089 1.134 1.105 1.125 1.145 1.174 1.139 1.068
2536.638 1.092 1.097 1.048 1.055 1.039 0.957 1.022 1.091 1.107 1.128
2555.928 1.058 1.027 0.987 1.055 1.137 1.107 1.09 1.067 1.08 1.103
2575.218 1.107 1.105 1.11 1.14 1.141 1.071 1.018 1.017 1.109 1.171
2594.508 1.101 1.105 1.123 1.096 1.096 1.152 1.188 1.141 1.159 1.22
2613.798 1.23 1.226 1.212 1.171 1.2 1.205 1.11 1.104 1.136 1.066
2633.088 1.083 1.137 1.113 1.102 1.014 1.014 1.086 1.049 1.013 1.011
2652.378 1.011 1.02 0.975 0.999 1.064 1.001 1.016 1.094 1.094 1.108
2671.668 1.099 1.107 1.151 1.167 1.218 1.2625 1.197 1.189 1.2996 1.3178
2690.958 1.2738 1.3033 1.34393 1.3067 1.3096 1.34313 1.35932 1.37788 1.41176 1.41095
2710.248 1.37659 1.34973 1.35449 1.39371 1.42811 1.39854 1.39363 1.5157 1.5228 1.42126
2729.538 1.37097 1.32645 1.2911 1.2462 1.2478 1.2406 1.221 1.229 1.187 1.228
2748.828 1.2592 1.228 1.205 1.2516 1.33904 1.32927 1.36564 1.38521 1.37162 1.38036
2768.118 1.4108 1.4386 1.415 1.42009 1.4601 1.4711 1.4589 1.4504 1.39451 1.41938
2787.408 1.41705 1.34776 1.38723 1.41663 1.3812 1.3778 1.4876 1.5076 1.40629 1.4538
2806.698 1.56 1.5527 1.512 1.5728 1.6722 1.6828 1.6728 1.7734 1.8878 1.9397
2825.988 1.9068 1.9213 1.9916 2.0069 2.0433 2.1203 2.1916 2.2445 2.3082 2.4
2845.278 2.47 2.48 2.52 2.62 2.68 2.79 2.92 3.03 3.16 3.31
2864.568 3.45 3.62 3.89 4.08 4.34 4.7 4.97 5.31 5.71 6.08
2883.858 6.37 6.6 6.74 6.8 6.9 6.93 6.99 7.04 7.12 7.41
2903.148 7.64 7.81 8.05 8.36 8.58 8.74 8.96 9.08 9.19 9.29
2922.438 9.44 9.68 10.1 10.57 11.08 11.87 12.76 13.76 14.96 16.09
2941.728 16.92 17.5 17.79 17.8 17.66 17.3 16.97 16.88 17.13 17.69
2961.018 18.36 19.12 20 20.96 21.95 23.07 24.3 25.7 27.31 29.02
2980.308 30.61 31.99 32.84 32.89 32.32 31.06 29.22 27.11 25.01 23.05
2999.598 21.15 19.3 17.74 16.34 14.84 13.46 12.3 11.27 10.33 9.41
3018.888 8.54 7.78 7 6.36 5.73 5.2 4.81 4.39 4.03 3.72
3038.178 3.51 3.2 2.98 2.86 2.6 2.43 2.2616 2.1781 2.02 1.8059
3057.468 1.7362 1.7807 1.6941 1.5071 1.5008 1.42463 1.33647 1.36258 1.32312 1.2495
3076.758 1.189 1.216 1.223 1.213 1.2559 1.165 1.059 1.048 1.084 1.01
3096.048 0.96 0.994 0.973 0.998 1.007 1.023 1.059 1.024 1.016 0.987
3115.338 0.886 0.768 0.756 0.813 0.776 0.803 0.877 0.902 0.849 0.757
3134.628 0.877 0.871 0.745 0.726 0.78 0.764 0.687 0.779 0.9 0.812
3153.918 0.671 0.671 0.548 0.429 0.55 0.779 0.693 0.552 0.578 0.518
3173.208 0.524 0.504 0.572 0.597 0.564 0.663 0.671 0.601 0.557 0.497
3192.498 0.474 0.52 0.519 0.492 0.571 0.593 0.558 0.516 0.5 0.558
3211.788 0.383 0.31 0.399 0.495 0.439 0.391 0.493 0.448 0.44 0.451
3231.078 0.462 0.426 0.375 0.336 0.33 0.351 0.339 0.37 0.336 0.333
3250.368 0.361 0.365 0.335 0.26 0.28 0.3 0.28 0.29 0.3 0.23
3269.658 0.21 0.23 0.27 0.25 0.14 0.22 0.15 0 0.11 0.18
3288.948 0.21 0.16 0.12 0.11 0.14 0.23 0.1 0.03 0.12 0.24
3308.238 0.23 0.13 0.11 0.13 0.15 0.16 0.19 0.16 0.18 0.15
3327.528 0.03 0.02 0.11 0.13 0.17 0.2 0.18 0.11 0.08 0.19
3346.818 0.23 0.2 0.26 0.353 0.33 0.28 0.2 0.21 0.3 0.28
3366.108 0.26 0.411 0.442 0.385 0.466 0.514 0.566 0.641 0.626 0.518
3385.398 0.491 0.664 0.651 0.598 0.681 0.756 0.844 0.904 0.939 0.89
3404.688 0.937 0.98 0.995 1.071 1.154 1.253 1.34712 1.4705 1.6026 1.7645
3423.978 1.8418 1.9603 2.0615 2.2626 2.58 2.76 2.92 3.23 3.73 4.31
3443.269 4.89 5.48 6.21 7.1 8.14 9.24 10.62 12.17 13.75 15.48
3462.559 17.27 18.79 20.05 21.17 21.78 21.85 21.39 20.19 18.35 16.15
3481.849 13.88 11.79 10.14 8.72 7.49 6.61 5.82 5.21 4.78 4.35
3501.139 3.96 3.6 3.29 3.02 2.79 2.49 2.3 2.2488 2.0397 1.828
3520.429 1.6843 1.5708 1.467 1.3932 1.38648 1.2722 1.2483 1.2915 1.156 1.03
3539.719 1.024 1.054 1.078 1.048 0.905 0.823 0.819 0.818 0.808 0.794
3559.009 0.817 0.738 0.595 0.561 0.636 0.523 0.405 0.459 0.489 0.594
3578.299 0.537 0.391 0.386 0.388 0.374 0.483 0.632 0.614 0.485 0.393
3597.589 0.346 0.28 0.3 0.33 0.32 0.31 0.26 0.29 0.3 0.29
3616.879 0.368 0.36 0.33 0.36 0.31 0.16 0.1 0.25 0.3 0.28
3636.169 0.39 0.417 0.31 0.23 0.2 0.21 0.24 0.21 0.11 0.04
3655.459 0.05 0.13 0.2 0.27 0.23 0.16 0.13 0.22 0.26 0.32
3674.749 0.26 0.14 0.27 0.26 0.24 0.21 0.1 0.22 0.33 0.28
3694.039 0.26 0.25 0.3 0.3 0.14 0.19 0.23 0.17 0.24 0.2
3713.329 0.21 0.22 0.18 0.25 0.25 0.25 0.32 0.365 0.28 0.15
3732.619 0.23 0.21 0.18 0.27 0.23 0.12 0.12 0.24 0.19 0.02
3751.909 0.02 0.05 0.19 0.29 0.22 0.28 0.357 0.27 0.2 0.28
3771.199 0.29 0.23 0.25 0.31 0.33 0.27 0.26 0.25 0.28 0.17
3790.489 0.13 0.25 0.21 0.16 0.15 0.12 0.2 0.22 0.13 0.25
3809.779 0.27 0.25 0.22 0.14 0.08 0.14 0.29 0.444 0.414 0.22
3829.069 0.1 0.05 0.14 0.15 0.16 0.27 0.361 0.401 0.3 0.31
3848.359 0.376 0.25 0.19 0.19 0.32 0.379 0.29 0.17 0.03 0.15
3867.649 0.31 0.31 0.21 0.3 0.402 0.348 0.355 0.349 0.32 0.436
3886.939 0.5 0.421 0.344 0.3 0.26 0.25 0.29 0.362 0.46 0.335
3906.229 0.332 0.397 0.339 0.32 0.28 0.26 0.374 0.381 0.26 0.411
3925.519 0.502 0.494 0.428 0.32 0.39 0.407 0.39 0.436 0.457 0.466
3944.809 0.497 0.538 0.438 0.383 0.372 0.32 0.29 0.27 0.26 0.351
3964.099 0.503 0.523 0.361 0.16 0.27 0.418 0.411 0.414 0.361 0.32
3983.389 0.28 0.366 0.488 0.459 0.3 0.388 0.478 0.335 0.333 0.445
##END=
