##TITLE=4-Methoxybenzyl isothiocyanate
##JCAMP-DX=4.24
##DATA TYPE=INFRARED SPECTRUM
##ORIGIN=EPA-IR VAPOR PHASE LIBRARY
##OWNER=SRD/NIST
Collection (C) 2018 copyright by the U.S. Secretary of Commerce
on behalf of the United States of America. All rights reserved.
##CAS REGISTRY NO=3694-57-3
##MOLFORM=C 9 H 9 N O S
##$NIST SOURCE=MSDC-IR
##STATE=gas
##XUNITS=1/CM
##YUNITS=ABSORBANCE
##XFACTOR=1.
##YFACTOR=0.001
##DELTAX=1.92898
##FIRSTX=549.8
##LASTX=4000.7
##FIRSTY=13.194
##MAXX=4000.7
##MINX=549.759
##MAXY=0.251504
##MINY=0
##NPOINTS=1790
##XYDATA=(X++(Y..Y))
549.759 13.194 12.994 12.734 12.854 13.084 13.234 13.294 13.234 13.194 13.294
569.049 13.184 13.014 13.034 12.864 12.464 11.954 11.464 10.844 10.514 10.284
588.339 9.684 9.194 8.594 8.034 7.634 7.384 6.824 6.064 5.664 5.374
607.628 5.284 4.974 4.594 4.314 3.904 3.734 3.474 3.084 3.084 3.224
626.918 3.134 3.104 3.114 3.024 3.084 3.154 3.084 3.144 3.384 3.544
646.208 3.374 3.154 3.204 3.424 3.614 3.794 3.924 3.984 4.364 4.824
665.498 5.434 6.044 6.414 7.144 8.224 9.174 9.854 10.554 11.444 12.304
684.787 12.674 12.794 12.824 12.544 12.084 11.594 11.104 10.484 9.904 9.434
704.077 8.914 8.434 7.994 7.784 7.764 7.754 7.674 7.824 8.324 8.474
723.367 8.584 8.584 8.264 8.124 8.104 7.794 7.484 7.274 7.174 7.394
742.657 7.604 7.834 8.114 8.094 8.024 8.204 8.294 8.144 7.874 7.544
761.947 7.114 6.514 5.804 5.304 4.984 4.674 4.434 4.184 4.154 4.184
781.236 4.104 4.164 4.514 5.064 5.404 5.614 6.064 6.804 7.644 8.544
800.526 9.544 10.544 11.594 12.894 14.164 15.124 16.334 17.434 18.234 19.224
819.816 20.224 20.974 21.224 21.364 21.654 21.804 21.984 21.994 21.744 21.464
839.106 20.904 19.494 17.604 15.754 13.634 11.434 9.674 8.124 6.794 5.734
858.395 4.854 4.424 4.044 3.644 3.254 2.994 2.794 2.544 2.294 2.234
877.685 2.364 2.334 2.244 2.074 2.064 2.104 2.094 2.084 2.054 2.264
896.975 2.464 2.274 2.194 2.304 2.264 2.184 2.234 2.164 2.094 2.304
916.265 2.384 2.354 2.294 2.344 2.354 2.314 2.274 2.324 2.414 2.394
935.555 2.554 2.494 2.364 2.314 2.154 2.244 2.484 2.394 2.294 2.194
954.844 2.214 2.574 2.694 2.604 2.824 2.884 2.864 3.124 3.194 3.324
974.134 3.424 3.524 3.714 3.744 3.844 3.924 4.184 4.304 4.164 4.324
993.424 4.794 5.094 5.034 5.214 5.694 6.234 6.864 7.594 8.354 9.424
1012.714 10.594 11.424 12.584 14.004 15.504 17.264 19.384 21.734 24.164 26.574
1032.003 28.594 30.134 31.334 32.184 32.494 31.864 30.594 28.674 26.324 23.984
1051.293 21.204 18.504 16.004 13.544 11.774 10.274 8.764 7.834 7.064 6.404
1070.583 5.884 5.604 5.204 4.844 4.474 4.064 4.204 4.004 4.094 4.594
1089.873 4.434 4.164 4.444 4.844 4.864 4.794 4.944 5.334 5.754 6.204
1109.163 6.504 6.454 6.364 6.504 6.444 6.174 6.334 6.094 5.524 5.294
1128.452 5.044 4.894 4.804 4.774 4.634 4.694 5.264 5.354 5.364 5.794
1147.742 6.174 6.584 7.084 7.734 8.694 10.034 11.744 13.894 16.864 21.494
1167.032 28.604 36.814 44.734 50.364 52.654 53.094 51.274 45.594 36.914 28.614
1186.322 22.684 18.884 16.094 14.314 13.304 12.524 12.254 12.274 12.304 12.344
1205.611 12.364 12.674 13.384 14.194 15.414 16.464 17.474 18.924 20.654 22.984
1224.901 25.754 28.984 32.744 38.014 44.524 51.934 60.954 71.464 83.684 97.034
1244.191 110.794 124.044 134.904 141.624 143.324 140.104 132.294 120.654 106.874 92.514
1263.481 79.364 68.614 60.094 53.464 48.294 44.364 41.704 40.184 39.394 39.264
1282.771 39.754 40.714 41.924 43.154 44.144 44.984 45.504 45.264 44.214 42.314
1302.060 39.794 37.154 34.474 31.954 29.964 28.574 27.754 27.504 27.764 28.434
1321.350 29.344 30.634 32.354 34.354 36.694 39.474 42.624 45.994 49.274 52.034
1340.640 53.744 53.974 52.604 49.904 46.184 41.724 36.824 31.834 27.134 23.134
1359.930 19.904 17.224 15.064 13.314 11.874 10.664 9.764 8.984 8.244 7.674
1379.219 7.144 6.764 6.574 6.364 6.074 5.904 5.844 5.864 5.884 5.854
1398.509 5.884 6.004 6.144 6.324 6.514 6.764 7.084 7.294 7.494 7.794
1417.799 8.104 8.434 8.734 9.064 9.464 9.864 10.254 10.744 11.454 12.494
1437.089 13.924 15.674 17.614 19.684 21.934 24.484 27.424 30.024 31.404 31.754
1456.378 31.894 31.384 29.134 25.704 22.834 21.124 19.924 18.864 17.864 16.814
1475.668 15.554 14.094 12.954 12.354 12.174 12.284 12.834 13.834 15.324 17.514
1494.958 20.434 24.504 30.094 37.464 47.124 59.164 73.234 87.554 99.284 106.014
1514.248 106.564 101.504 91.554 77.684 61.254 46.144 34.154 25.614 19.884 15.914
1533.538 12.994 10.834 9.334 8.224 7.304 6.634 6.194 5.854 5.664 5.564
1552.827 5.454 5.384 5.384 5.554 5.724 5.884 6.084 6.464 6.964 7.424
1572.117 8.134 8.974 9.874 10.964 12.104 13.294 14.374 15.464 16.604 17.674
1591.407 18.714 19.734 20.974 22.464 24.274 26.454 28.734 31.014 33.064 34.514
1610.697 35.144 34.794 33.564 31.244 28.174 24.954 21.664 18.444 15.544 13.214
1629.986 11.294 9.724 8.514 7.534 6.694 6.094 5.614 5.214 4.884 4.534
1649.276 4.284 4.074 3.834 3.494 3.284 3.144 2.984 2.954 2.794 2.634
1668.566 2.604 2.394 2.274 2.244 2.144 2.064 1.984 1.944 1.884 1.804
1687.856 1.824 1.854 1.824 1.834 1.844 1.824 1.784 1.744 1.714 1.734
1707.146 1.764 1.794 1.844 1.834 1.784 1.734 1.744 1.704 1.684 1.734
1726.435 1.724 1.724 1.764 1.824 1.844 1.884 2.044 2.074 2.154 2.304
1745.725 2.364 2.474 2.584 2.614 2.624 2.614 2.614 2.534 2.394 2.244
1765.015 2.104 2.004 1.904 1.924 1.884 1.804 1.834 1.804 1.794 1.704
1784.305 1.634 1.694 1.684 1.714 1.694 1.704 1.664 1.634 1.684 1.714
1803.594 1.794 1.804 1.774 1.764 1.834 1.904 1.884 1.904 1.934 1.944
1822.884 1.984 2.004 2.014 2.094 2.224 2.274 2.264 2.364 2.484 2.524
1842.174 2.584 2.724 2.844 2.894 3.004 3.154 3.274 3.424 3.584 3.744
1861.464 3.864 3.914 4.064 4.304 4.474 4.594 4.704 4.854 5.004 5.124
1880.754 5.204 5.254 5.364 5.514 5.654 5.744 5.864 5.964 6.164 6.414
1900.043 6.564 6.744 6.894 7.034 7.194 7.444 7.684 7.904 8.104 8.324
1919.333 8.604 8.844 9.144 9.504 9.874 10.294 10.724 11.044 11.444 11.974
1938.623 12.464 13.054 13.774 14.474 15.134 15.894 16.794 17.734 18.714 19.754
1957.913 20.884 22.184 23.624 25.114 26.684 28.424 30.364 32.434 34.614 36.904
1977.202 39.404 42.134 45.044 48.144 51.474 55.064 58.754 62.734 67.064 71.634
1996.492 76.484 81.614 86.934 92.534 98.414 104.494 110.914 117.504 124.294 131.334
2015.782 138.474 145.734 153.164 160.714 168.184 175.654 183.124 190.454 197.664 204.734
2035.072 211.494 218.014 224.164 229.854 235.104 239.614 243.394 246.604 249.174 250.824
2054.362 251.504 251.264 250.124 248.074 245.164 241.524 237.024 231.874 226.104 219.544
2073.651 212.334 204.304 195.324 185.694 175.514 164.884 154.244 143.864 133.834 124.204
2092.941 115.084 106.634 98.814 91.534 84.864 78.774 73.134 68.014 63.274 58.914
2112.231 55.044 51.554 48.564 45.984 43.594 41.554 39.784 38.334 37.204 36.084
2131.521 35.154 34.544 34.124 33.864 33.694 33.634 33.714 33.894 34.254 34.694
2150.810 35.134 35.734 36.394 37.024 37.824 38.814 39.814 40.904 42.144 43.284
2170.100 44.384 45.594 46.624 47.384 47.924 48.094 47.794 47.044 45.984 44.664
2189.390 43.194 41.514 39.584 37.624 35.674 33.784 31.964 30.204 28.464 26.714
2208.680 25.154 23.734 22.374 21.134 19.874 18.714 17.634 16.594 15.654 14.724
2227.970 13.834 13.054 12.284 11.564 10.984 10.424 9.884 9.334 8.864 8.514
2247.259 8.084 7.734 7.494 7.214 6.944 6.734 6.594 6.424 6.214 6.064
2266.549 5.884 5.664 5.484 5.394 5.334 5.244 5.234 5.194 5.154 5.184
2285.839 5.114 4.964 4.924 4.924 4.784 4.594 4.484 4.464 4.344 4.194
2305.129 4.144 3.954 3.734 3.614 3.584 3.504 3.434 3.374 3.234 3.084
2324.418 2.974 2.964 2.844 2.654 2.634 2.584 2.584 2.604 2.424 2.384
2343.708 2.454 2.394 2.304 2.294 2.194 2.124 2.134 2.124 2.074 2.004
2362.998 1.934 1.834 1.804 1.834 1.804 1.764 1.794 1.724 1.664 1.694
2382.288 1.764 1.764 1.694 1.704 1.754 1.744 1.784 1.804 1.774 1.814
2401.578 1.844 1.854 1.794 1.704 1.724 1.804 1.804 1.864 1.904 1.864
2420.867 1.934 1.994 1.924 1.904 2.004 1.984 1.874 1.824 1.834 1.854
2440.157 1.834 1.774 1.794 1.754 1.704 1.714 1.744 1.744 1.674 1.734
2459.447 1.794 1.774 1.744 1.814 1.934 1.924 1.874 1.884 1.994 2.064
2478.737 1.974 2.024 2.084 2.064 2.064 2.114 2.294 2.404 2.404 2.364
2498.026 2.294 2.364 2.464 2.404 2.344 2.454 2.524 2.504 2.484 2.444
2517.316 2.544 2.604 2.604 2.584 2.524 2.514 2.564 2.494 2.494 2.644
2536.606 2.714 2.714 2.784 2.874 2.844 2.824 2.804 2.754 2.694 2.664
2555.896 2.694 2.714 2.654 2.564 2.434 2.344 2.344 2.344 2.384 2.364
2575.186 2.334 2.374 2.334 2.304 2.254 2.334 2.424 2.384 2.404 2.374
2594.475 2.294 2.214 2.194 2.234 2.234 2.314 2.394 2.264 2.224 2.284
2613.765 2.244 2.184 2.214 2.334 2.294 2.124 2.164 2.154 1.994 2.014
2633.055 2.044 1.914 1.914 1.944 1.824 1.814 1.844 1.814 1.724 1.644
2652.345 1.654 1.704 1.674 1.664 1.604 1.584 1.584 1.544 1.594 1.574
2671.634 1.634 1.704 1.744 1.804 1.784 1.824 1.794 1.784 1.934 1.994
2690.924 2.014 1.964 1.854 1.964 2.104 2.144 2.214 2.354 2.434 2.464
2710.214 2.454 2.474 2.554 2.574 2.574 2.664 2.764 2.794 2.864 2.964
2729.504 3.014 3.094 3.204 3.194 3.214 3.164 3.124 3.224 3.214 3.234
2748.794 3.334 3.354 3.414 3.574 3.584 3.564 3.764 3.844 3.794 3.754
2768.083 3.784 3.844 3.864 4.014 4.114 4.084 4.204 4.274 4.194 4.194
2787.373 4.264 4.364 4.454 4.554 4.574 4.534 4.654 4.754 4.634 4.654
2806.663 4.804 4.924 4.994 4.904 5.024 5.254 5.354 5.534 5.764 6.024
2825.953 6.444 6.984 7.524 8.094 8.974 10.144 11.364 12.664 14.004 15.114
2845.242 15.714 15.914 15.534 14.634 13.594 12.534 11.514 10.744 10.224 9.864
2864.532 9.634 9.534 9.684 9.934 10.234 10.454 10.574 10.784 10.994 11.134
2883.822 11.234 11.404 11.524 11.534 11.504 11.394 11.374 11.354 11.354 11.474
2903.112 11.684 12.134 12.494 12.914 13.644 14.434 15.094 15.604 16.164 16.594
2922.401 17.154 18.054 18.984 19.924 20.964 22.154 23.474 24.794 26.154 27.464
2941.691 28.404 28.904 29.254 29.434 29.174 28.604 27.634 26.514 25.494 24.334
2960.981 23.094 21.664 20.084 18.544 16.974 15.534 14.344 13.294 12.324 11.604
2980.271 10.994 10.404 10.254 10.304 10.444 10.604 10.844 11.404 12.154 13.044
2999.561 14.174 15.554 17.104 18.764 20.224 20.894 20.744 19.944 18.634 17.054
3018.850 15.134 13.354 12.124 11.434 11.134 11.134 11.354 11.704 12.164 12.424
3038.140 12.554 12.384 11.924 11.334 10.454 9.454 8.414 7.664 7.124 6.614
3057.430 6.304 6.004 5.784 5.814 5.814 5.894 6.154 6.344 6.534 6.574
3076.720 6.534 6.484 6.394 6.114 5.584 5.294 5.024 4.744 4.664 4.534
3096.009 4.404 4.424 4.404 4.234 3.964 3.834 3.844 3.844 3.734 3.434
3115.299 3.274 3.224 3.104 2.944 2.724 2.514 2.264 2.144 2.284 2.264
3134.589 2.074 1.894 1.784 1.784 1.764 1.524 1.4181 1.3298 1.1793 1.1708
3153.879 1.1352 1.0715 1.0147 1.1281 1.1224 1.1105 1.0376 0.9587 0.9466 0.8972
3173.169 0.8694 0.8679 0.8521 0.8226 0.8766 0.8344 0.8329 0.7093 0.5734 0.689
3192.458 0.6553 0.6099 0.681 0.816 0.8652 0.7429 0.5793 0.4265 0.50913 0.724
3211.748 0.6959 0.54749 0.58921 0.53651 0.4711 0.57501 0.56325 0.5999 0.6819 0.6211
3231.038 0.50729 0.54287 0.6045 0.53777 0.51669 0.54376 0.53741 0.6187 0.6185 0.5829
3250.328 0.6873 0.739 0.6328 0.4608 0.4576 0.4474 0.368 0.374 0.4775 0.5541
3269.617 0.58576 0.4133 0.104 0.204 0.4696 0.439 0.3999 0.38 0.228 0.247
3288.907 0.292 0.255 0.338 0.391 0.357 0.275 0.236 0.301 0.188 0.296
3308.197 0.4613 0.363 0.402 0.4537 0.4139 0.4445 0.346 0.213 0.249 0.171
3327.487 0.126 0.122 0.196 0.288 0.292 0.278 0.328 0.386 0.3946 0.384
3346.777 0.391 0.36 0.34 0.389 0.362 0.282 0.289 0.4134 0.4582 0.308
3366.066 0.195 0.298 0.415 0.496404 0.353 0.209 0.345 0.4388 0.4356 0.4489
3385.356 0.372 0.332 0.314 0.216 0.331 0.353 0.245 0.215 0.325 0.4444
3404.646 0.332 0.321 0.4115 0.344 0.156 0.167 0.262 0.323 0.211 0.255
3423.936 0.4451 0.3951 0.239 0.193 0.329 0.304 0.31 0.4307 0.4526 0.324
3443.225 0.267 0.33 0.393 0.289 0.177 0.261 0.251 0.129 0.174 0.131
3462.515 0.152 0.24 0.179 0.085 0.089 0.271 0.265 0.106 0.09 0.234
3481.805 0.296 0.308 0.356 0.334 0.252 0.219 0.209 0.333 0.349 0.274
3501.095 0.26 0.195 0.341 0.4056 0.219 0.16 0.257 0.319 0.359 0.4029
3520.385 0.4018 0.239 0.131 0.25 0.4377 0.4835 0.344 0.323 0.369 0.4063
3539.674 0.377 0.361 0.49246 0.4503 0.3949 0.57708 0.53668 0.4166 0.4702 0.457
3558.964 0.4432 0.383 0.278 0.293 0.263 0.064 0 0.166 0.342 0.4036
3578.254 0.39 0.257 0.294 0.493203 0.4692 0.4545 0.53457 0.48966 0.4038 0.276
3597.544 0.264 0.4179 0.4435 0.419 0.359 0.369 0.272 0.207 0.348 0.4086
3616.833 0.316 0.191 0.181 0.27 0.276 0.284 0.371 0.351 0.369 0.341
3636.123 0.343 0.4122 0.4712 0.6381 0.6608 0.6212 0.54454 0.56119 0.52035 0.239
3655.413 0.343 0.48861 0.4214 0.366 0.243 0.253 0.4456 0.52132 0.54307 0.5801
3674.703 0.58541 0.51783 0.4307 0.381 0.379 0.51687 0.52618 0.58605 0.6504 0.51905
3693.993 0.57931 0.54355 0.337 0.428 0.6044 0.52667 0.389 0.37 0.346 0.307
3713.282 0.286 0.4683 0.6531 0.6564 0.5499 0.394 0.41 0.54457 0.4393 0.213
3732.572 0.358 0.544 0.449 0.382 0.4071 0.4442 0.594 0.6296 0.4885 0.4666
3751.862 0.4079 0.3 0.353 0.323 0.4072 0.4053 0.37 0.4637 0.55814 0.56168
3771.152 0.362 0.347 0.4888 0.4504 0.4595 0.55142 0.4319 0.55937 0.5579 0.4015
3790.441 0.306 0.363 0.4837 0.4709 0.496087 0.56457 0.6314 0.53781 0.53211 0.6583
3809.731 0.52665 0.48771 0.6526 0.53722 0.502216 0.58713 0.56589 0.5489 0.6184 0.5115
3829.021 0.4383 0.6032 0.6785 0.5299 0.4642 0.376 0.372 0.382 0.275 0.368
3848.311 0.4242 0.56787 0.7001 0.56684 0.48416 0.3941 0.4799 0.7092 0.6598 0.6908
3867.601 0.6969 0.6427 0.51084 0.500587 0.6165 0.6139 0.7427 0.8904 0.7746 0.7601
3886.890 0.8405 0.6532 0.52852 0.501857 0.4639 0.4732 0.6792 0.7355 0.57077 0.6609
3906.180 0.8777 0.9342 0.7466 0.57824 0.6156 0.7904 0.888 0.7961 0.8463 0.8961
3925.470 0.6696 0.7826 1.0619 1.0637 0.9953 1.1463 1.0953 0.8899 0.9413 0.9439
3944.760 0.9762 0.9833 0.9611 0.9145 0.8954 0.8296 0.9497 1.0655 0.923 1.002
3964.049 1.0965 1.1684 1.1611 1.0703 1.1105 1.1855 1.2971 1.1716 1.1638 1.3161
3983.339 1.1917 0.9531 1.0345 1.221 1.1427 1.2835 1.3532 1.4477 1.534 1.4495
##END=
