##TITLE=3-Chlorobenzyl isothiocyanate
##JCAMP-DX=4.24
##DATA TYPE=INFRARED SPECTRUM
##ORIGIN=EPA-IR VAPOR PHASE LIBRARY
##OWNER=SRD/NIST
Collection (C) 2018 copyright by the U.S. Secretary of Commerce
on behalf of the United States of America. All rights reserved.
##CAS REGISTRY NO=3694-58-4
##MOLFORM=C 8 H 6 Cl N S
##$NIST SOURCE=MSDC-IR
##STATE=gas
##XUNITS=1/CM
##YUNITS=ABSORBANCE
##XFACTOR=1.
##YFACTOR=0.001
##DELTAX=1.92898
##FIRSTX=549.8
##LASTX=4000.7
##FIRSTY=12.865
##MAXX=4000.7
##MINX=549.759
##MAXY=0.406615
##MINY=0
##NPOINTS=1790
##XYDATA=(X++(Y..Y))
549.759 12.865 12.975 13.355 13.415 13.485 13.585 13.765 13.915 13.645 13.495
569.049 13.525 13.285 13.175 12.855 12.155 11.465 11.115 10.875 10.625 10.235
588.339 9.825 10.005 10.295 10.245 10.145 9.815 9.285 8.945 8.535 8.065
607.628 7.675 7.355 7.065 6.705 6.375 6.135 5.825 5.595 5.335 5.185
626.918 5.085 4.845 4.625 4.385 4.365 4.155 4.045 4.115 4.075 4.225
646.208 4.385 4.405 4.535 4.745 4.875 5.245 5.855 6.615 7.375 8.255
665.498 9.455 10.995 12.815 15.025 17.985 21.295 25.415 30.285 34.715 38.075
684.787 40.295 41.815 42.895 42.725 41.075 38.835 36.565 34.685 33.385 32.585
704.077 32.025 31.585 31.225 30.925 30.635 30.185 29.525 28.625 27.555 26.375
723.367 25.175 24.035 22.885 21.855 20.855 19.875 18.995 18.155 17.325 16.675
742.657 16.025 15.435 15.155 14.845 14.715 14.865 15.075 15.515 16.015 16.665
761.947 17.695 18.605 19.515 20.515 21.155 21.675 22.175 22.335 22.115 21.745
781.236 21.155 20.185 18.935 17.395 15.595 13.905 12.235 10.555 8.935 7.475
800.526 6.145 5.165 4.515 3.875 3.355 3.015 2.935 2.885 2.645 2.445
819.816 2.365 2.415 2.565 2.585 2.745 3.105 3.305 3.645 4.025 4.465
839.106 5.035 5.455 6.075 7.145 8.525 9.845 11.345 13.015 14.665 16.195
858.395 17.555 18.705 19.505 19.715 19.275 18.585 17.645 16.695 15.625 14.315
877.685 13.165 12.155 11.085 9.935 8.745 7.555 6.825 6.265 5.655 5.205
896.975 4.855 4.585 4.285 3.965 3.665 3.525 3.575 3.555 3.345 3.125
916.265 2.905 2.795 2.825 2.695 2.505 2.495 2.485 2.485 2.485 2.475
935.555 2.455 2.425 2.475 2.495 2.515 2.375 2.325 2.485 2.505 2.525
954.844 2.505 2.515 2.685 2.745 2.615 2.545 2.435 2.385 2.415 2.365
974.134 2.395 2.395 2.475 2.585 2.555 2.575 2.615 2.755 3.025 3.285
993.424 3.465 3.455 3.285 3.345 3.375 3.315 3.495 3.715 3.705 3.645
1012.714 3.515 3.315 3.315 3.545 3.645 3.335 3.035 3.085 3.045 2.905
1032.003 2.905 2.665 2.805 3.185 2.955 2.635 2.725 2.815 2.875 3.165
1051.293 3.625 3.805 3.985 4.565 5.165 5.895 6.825 7.965 9.395 10.805
1070.583 11.935 13.105 14.475 15.925 17.145 18.235 19.535 20.815 21.555 22.425
1089.873 22.965 22.775 22.275 21.575 20.375 18.735 17.465 15.905 14.435 13.285
1109.163 12.105 11.145 10.215 9.445 8.545 7.735 7.145 6.235 5.375 5.075
1128.452 4.925 4.675 4.405 4.175 4.005 3.745 3.885 3.995 3.775 3.775
1147.742 4.065 4.325 4.465 4.545 4.755 5.055 5.015 4.895 4.905 5.115
1167.032 5.525 5.755 5.955 6.395 6.615 6.715 6.825 7.235 8.005 8.965
1186.322 9.985 10.885 11.975 13.555 15.415 16.935 18.275 19.375 20.375 20.895
1205.611 20.445 19.905 18.995 17.635 16.335 14.955 13.395 11.975 10.755 9.645
1224.901 8.845 8.185 7.655 7.165 6.715 6.425 6.245 6.025 5.875 5.745
1244.191 5.635 5.705 5.885 6.105 6.325 6.535 6.915 7.355 7.725 8.085
1263.481 8.405 8.625 8.695 8.925 9.265 9.615 9.985 10.335 10.915 11.655
1282.771 12.275 12.765 13.315 13.965 14.475 14.785 15.135 15.545 15.915 16.315
1302.060 16.865 17.405 18.055 18.885 19.755 20.815 22.295 24.185 26.595 29.765
1321.350 33.865 39.195 46.185 55.175 66.455 79.435 91.935 100.825 103.785 101.395
1340.640 95.175 85.495 72.595 58.125 44.885 34.645 27.515 22.835 19.825 17.955
1359.930 16.695 15.715 14.925 14.195 13.385 12.535 11.725 10.915 10.155 9.535
1379.219 9.085 8.785 8.605 8.525 8.585 8.805 9.015 9.255 9.595 9.895
1398.509 10.175 10.505 10.845 11.205 11.675 12.315 13.175 14.365 15.965 17.935
1417.799 20.285 23.225 26.425 29.615 32.535 34.715 35.855 36.095 36.065 35.905
1437.089 35.365 34.385 33.335 32.965 33.485 34.645 36.005 36.835 36.685 35.655
1456.378 33.575 30.125 25.745 21.605 19.105 18.315 18.765 19.885 21.205 22.445
1475.668 23.555 24.235 24.225 23.565 22.315 20.665 18.745 16.625 14.425 12.365
1494.958 10.575 8.995 7.705 6.725 5.955 5.205 4.555 4.155 3.875 3.625
1514.248 3.395 3.175 3.015 2.895 2.845 2.845 2.785 2.725 2.705 2.705
1533.538 2.745 2.845 2.975 3.115 3.255 3.455 3.735 4.025 4.375 4.845
1552.827 5.345 6.015 6.845 7.745 8.815 10.245 12.025 13.935 15.935 17.935
1572.117 19.825 21.535 23.115 24.515 25.625 26.525 27.295 28.025 28.935 30.275
1591.407 31.925 33.405 34.305 34.235 32.865 30.165 26.465 22.215 17.875 13.735
1610.697 10.315 7.785 5.995 4.875 4.175 3.635 3.205 2.865 2.655 2.515
1629.986 2.365 2.275 2.195 2.115 2.085 2.025 1.965 1.905 1.845 1.885
1649.276 1.925 1.875 1.815 1.925 2.005 1.975 2.065 2.205 2.255 2.275
1668.566 2.325 2.415 2.475 2.525 2.575 2.555 2.505 2.425 2.335 2.265
1687.856 2.195 2.115 2.025 1.955 1.885 1.785 1.655 1.585 1.635 1.695
1707.146 1.715 1.735 1.765 1.795 1.785 1.755 1.815 1.895 2.005 2.075
1726.435 2.095 2.135 2.235 2.355 2.435 2.505 2.545 2.635 2.715 2.765
1745.725 2.855 2.895 2.915 2.935 2.955 3.025 3.055 3.005 2.965 2.955
1765.015 2.905 2.835 2.775 2.725 2.665 2.595 2.545 2.505 2.475 2.435
1784.305 2.425 2.495 2.545 2.525 2.505 2.525 2.525 2.515 2.475 2.425
1803.594 2.325 2.215 2.185 2.185 2.165 2.175 2.195 2.165 2.135 2.185
1822.884 2.255 2.325 2.395 2.475 2.515 2.575 2.695 2.825 2.945 3.005
1842.174 3.115 3.275 3.485 3.715 3.895 4.175 4.495 4.845 5.205 5.485
1861.464 5.725 5.905 6.015 6.025 5.965 5.965 5.895 5.895 5.915 5.885
1880.754 6.005 6.115 6.295 6.575 6.775 7.005 7.285 7.565 7.885 8.255
1900.043 8.615 8.965 9.365 9.805 10.235 10.725 11.285 11.885 12.475 13.095
1919.333 13.775 14.525 15.365 16.255 17.155 18.085 18.985 19.925 20.915 21.885
1938.623 22.905 23.995 25.125 26.345 27.675 29.055 30.515 32.155 33.935 35.835
1957.913 37.875 40.125 42.555 45.135 47.995 51.015 54.245 57.705 61.435 65.505
1977.202 69.835 74.445 79.345 84.655 90.375 96.425 102.845 109.715 116.995 124.825
1996.492 133.135 141.795 151.055 160.815 171.045 181.795 192.965 204.605 216.595 228.855
2015.782 241.275 253.795 266.415 278.975 291.465 303.815 315.795 327.545 339.025 349.905
2035.072 360.365 370.295 379.315 387.225 393.975 399.435 403.285 405.675 406.615 405.985
2054.362 403.755 400.275 395.375 388.985 381.345 372.285 361.675 349.275 335.005 319.145
2073.651 302.065 284.105 265.745 247.585 229.865 212.975 197.025 181.815 167.485 154.085
2092.941 141.545 129.825 119.095 109.385 100.445 92.465 85.415 79.135 73.635 68.835
2112.231 64.645 60.915 57.725 54.975 52.535 50.455 48.615 46.995 45.655 44.535
2131.521 43.475 42.565 41.905 41.355 40.875 40.625 40.535 40.645 41.035 41.675
2150.810 42.595 43.815 45.275 46.975 48.845 50.795 52.805 54.735 56.555 58.085
2170.100 59.205 59.965 60.345 60.265 59.755 58.985 57.955 56.745 55.395 53.895
2189.390 52.375 50.845 49.305 47.695 46.025 44.365 42.775 41.195 39.605 38.025
2208.680 36.455 34.985 33.585 32.285 30.955 29.575 28.205 26.875 25.635 24.485
2227.970 23.395 22.175 20.945 19.915 18.865 17.805 16.925 16.035 15.135 14.295
2247.259 13.575 12.885 12.125 11.505 10.965 10.415 9.955 9.505 9.085 8.805
2266.549 8.475 8.075 7.825 7.575 7.255 6.975 6.845 6.695 6.455 6.345
2285.839 6.215 6.145 6.075 5.915 5.835 5.755 5.665 5.615 5.545 5.445
2305.129 5.415 5.375 5.185 4.965 4.785 4.625 4.495 4.385 4.285 4.185
2324.418 4.045 3.945 3.805 3.595 3.515 3.475 3.425 3.355 3.235 3.135
2343.708 3.085 2.945 2.845 2.795 2.695 2.585 2.465 2.385 2.295 2.235
2362.998 2.245 2.175 2.115 2.095 2.125 2.105 2.035 1.995 1.995 1.965
2382.288 1.925 1.905 1.885 1.865 1.875 1.905 1.895 1.805 1.805 1.805
2401.578 1.725 1.705 1.695 1.675 1.605 1.585 1.665 1.705 1.635 1.615
2420.867 1.665 1.615 1.605 1.635 1.625 1.615 1.555 1.535 1.555 1.525
2440.157 1.515 1.575 1.565 1.475 1.505 1.555 1.525 1.535 1.605 1.625
2459.447 1.525 1.515 1.605 1.675 1.715 1.715 1.725 1.785 1.815 1.765
2478.737 1.725 1.725 1.775 1.875 1.965 1.995 1.895 1.865 1.905 1.935
2498.026 1.955 1.945 1.905 1.925 1.965 1.965 1.955 1.935 1.935 1.825
2517.316 1.785 1.815 1.775 1.755 1.735 1.845 1.895 1.925 1.935 1.885
2536.606 1.975 2.015 1.935 1.925 1.995 2.105 2.175 2.195 2.255 2.335
2555.896 2.345 2.385 2.445 2.425 2.465 2.555 2.535 2.435 2.395 2.375
2575.186 2.335 2.195 2.075 2.045 1.985 1.945 1.945 1.875 1.815 1.825
2594.475 1.775 1.665 1.625 1.615 1.585 1.465 1.315 1.315 1.365 1.415
2613.765 1.445 1.395 1.345 1.365 1.455 1.505 1.535 1.595 1.595 1.655
2633.055 1.735 1.815 1.895 1.895 1.935 1.945 1.915 1.995 2.115 2.095
2652.345 2.065 2.135 2.255 2.315 2.265 2.275 2.335 2.275 2.195 2.215
2671.634 2.235 2.155 2.085 2.075 2.105 2.135 2.135 2.175 2.105 2.075
2690.924 2.135 2.145 2.195 2.305 2.325 2.285 2.345 2.425 2.465 2.615
2710.214 2.735 2.735 2.795 2.865 2.975 3.065 3.095 3.195 3.385 3.495
2729.504 3.515 3.545 3.735 3.945 3.995 3.985 4.065 4.075 4.015 4.025
2748.794 4.105 4.155 4.145 4.155 4.185 4.235 4.295 4.245 4.255 4.275
2768.083 4.235 4.335 4.425 4.505 4.605 4.645 4.725 4.795 4.795 4.835
2787.373 4.885 4.915 4.875 4.795 4.715 4.685 4.555 4.425 4.325 4.225
2806.663 4.125 4.005 3.835 3.685 3.565 3.425 3.345 3.295 3.185 3.075
2825.953 3.025 2.945 2.815 2.745 2.725 2.745 2.735 2.685 2.675 2.685
2845.242 2.715 2.775 2.985 3.235 3.365 3.575 3.785 4.135 4.515 4.835
2864.532 5.255 5.615 6.015 6.455 6.845 7.125 7.335 7.565 7.745 7.925
2883.822 8.105 8.155 8.155 8.175 8.025 7.735 7.335 7.015 6.665 6.245
2903.112 5.955 5.695 5.555 5.605 5.755 5.955 6.225 6.605 7.215 7.925
2922.401 8.595 9.305 10.065 10.925 11.775 12.555 13.175 13.635 13.935 13.965
2941.691 13.905 13.865 13.735 13.535 13.335 13.115 12.955 12.545 12.045 11.475
2960.981 10.685 9.885 8.915 7.825 6.865 6.035 5.215 4.435 3.835 3.395
2980.271 3.075 2.785 2.515 2.335 2.195 2.015 1.915 1.945 1.905 1.815
2999.561 1.875 1.925 1.915 1.905 1.935 2.015 2.205 2.425 2.625 2.855
3018.850 3.045 3.335 3.645 3.765 3.995 4.185 4.365 4.465 4.415 4.535
3038.140 4.645 4.735 4.855 5.005 5.075 5.255 5.425 5.635 5.915 6.205
3057.430 6.625 6.975 7.285 7.695 8.035 8.275 8.495 8.635 8.835 8.915
3076.720 8.965 9.095 8.935 8.555 8.205 7.675 7.035 6.485 5.975 5.465
3096.009 4.985 4.635 4.205 3.805 3.425 3.025 2.645 2.205 1.845 1.515
3115.299 1.295 1.1098 0.9068 0.8238 0.7501 0.7386 0.6234 0.4838 0.5682 0.6066
3134.589 0.5075 0.4479 0.4362 0.5047 0.4822 0.4191 0.4639 0.4627 0.4974 0.4345
3153.879 0.37688 0.393 0.4078 0.4096 0.37607 0.3972 0.36281 0.342 0.2491 0.2418
3173.169 0.32812 0.35093 0.4152 0.3872 0.3941 0.4395 0.3528 0.257 0.3905 0.5714
3192.458 0.4857 0.27914 0.165 0.117 0.1883 0.2738 0.3029 0.29864 0.31775 0.33858
3211.748 0.287381 0.2719 0.2163 0.1888 0.2024 0.2088 0.32104 0.181 0.011 0.144
3231.038 0.149 0.146 0.2357 0.137 0.046 0.082 0.134 0.1927 0.2017 0.169
3250.328 0.167 0.2422 0.168 0.117 0.2168 0.2504 0.153 0.086 0.075 0.115
3269.617 0.2698 0.2261 0.122 0.2356 0.284231 0.286534 0.2575 0.173 0.091 0.108
3288.907 0.165 0.2034 0.2461 0.1993 0.2052 0.2443 0.15 0.116 0.2609 0.2697
3308.197 0.151 0.076 0.098 0.085 0.2204 0.4221 0.31161 0.082 0.01 0.09
3327.487 0.1994 0.289524 0.2644 0.29977 0.1885 0 0.008 0.038 0.041 0.175
3346.777 0.2725 0.127 0.2795 0.36571 0.2383 0.2588 0.154 0.2017 0.3775 0.3153
3366.066 0.153 0.1929 0.2731 0.3996 0.4212 0.30644 0.36062 0.4062 0.444 0.37503
3385.356 0.37538 0.3643 0.34443 0.5173 0.4278 0.32147 0.3367 0.2798 0.2527 0.173
3404.646 0.2263 0.264 0.231 0.30439 0.37307 0.4592 0.36801 0.2267 0.3158 0.34741
3423.936 0.36856 0.4987 0.4076 0.38397 0.5028 0.37231 0.31837 0.4597 0.3907 0.216
3443.225 0.2439 0.34087 0.33187 0.33351 0.4163 0.3824 0.3958 0.4032 0.36486 0.28666
3462.515 0.215 0.33828 0.3995 0.2456 0.114 0.2106 0.4254 0.4962 0.3949 0.3961
3481.805 0.4942 0.444 0.2591 0.2264 0.2527 0.33478 0.32752 0.2277 0.2588 0.32168
3501.095 0.2662 0.1853 0.3367 0.4964 0.4497 0.4068 0.4418 0.4295 0.4905 0.465
3520.385 0.32842 0.285827 0.30407 0.2684 0.2633 0.37356 0.38196 0.4164 0.3908 0.34118
3539.674 0.34019 0.27636 0.2827 0.35008 0.3895 0.2379 0.1911 0.2545 0.32658 0.4506
3558.964 0.4642 0.4097 0.35641 0.443 0.5017 0.4067 0.3973 0.38179 0.37327 0.3815
3578.254 0.34694 0.36282 0.38467 0.37156 0.31863 0.292035 0.38485 0.39 0.36311 0.3924
3597.544 0.5219 0.5179 0.4165 0.5051 0.6225 0.6124 0.4969 0.38118 0.34281 0.4483
3616.833 0.5287 0.5619 0.4728 0.4085 0.4387 0.4747 0.4517 0.3943 0.34689 0.30927
3636.123 0.3932 0.3622 0.32774 0.38059 0.3829 0.3467 0.33399 0.4102 0.33075 0.33012
3655.413 0.35853 0.32809 0.3923 0.4325 0.3932 0.3872 0.37719 0.3875 0.4079 0.289575
3674.703 0.2651 0.31754 0.4803 0.5289 0.5265 0.5553 0.3879 0.2603 0.30156 0.3921
3693.993 0.4114 0.4575 0.5612 0.5382 0.5178 0.5048 0.4511 0.5165 0.5947 0.5485
3713.282 0.499 0.4868 0.4539 0.4532 0.4459 0.5241 0.5605 0.4376 0.386 0.4612
3732.572 0.5887 0.5895 0.5291 0.5285 0.6402 0.6185 0.5215 0.6269 0.6647 0.5442
3751.862 0.4492 0.546 0.5808 0.5546 0.5928 0.5331 0.4531 0.4867 0.5545 0.5467
3771.152 0.5905 0.6563 0.6037 0.6355 0.6652 0.6572 0.6827 0.7384 0.748 0.6525
3790.441 0.62 0.6998 0.5992 0.4156 0.5176 0.576 0.5763 0.5664 0.4951 0.4863
3809.731 0.5878 0.5588 0.5195 0.6731 0.7673 0.7798 0.6083 0.4454 0.4821 0.4952
3829.021 0.5362 0.5219 0.5169 0.6909 0.6729 0.5446 0.5509 0.5786 0.5351 0.6207
3848.311 0.7226 0.6801 0.668 0.5922 0.592 0.7052 0.7894 0.7268 0.7034 0.7098
3867.601 0.6126 0.6722 0.6693 0.675 0.8731 0.9508 0.8638 0.7656 0.7586 0.9034
3886.890 0.9221 0.8683 0.8673 0.8854 0.8946 0.8729 0.7718 0.6236 0.7441 0.8203
3906.180 0.7617 0.8443 1.003 1.0482 0.9588 0.8444 0.77 0.8703 0.9802 1.0378
3925.470 1.1577 1.2006 1.189 1.1104 1.0158 1.06 1.1571 1.2445 1.335 1.405
3944.760 1.365 1.385 1.305 1.2653 1.315 1.2801 1.27 1.2534 1.375 1.475
3964.049 1.535 1.585 1.485 1.505 1.685 1.695 1.685 1.695 1.805 1.825
3983.339 1.705 1.725 1.685 1.695 1.795 1.735 1.665 1.735 1.775 1.655
##END=
