##TITLE=4-Methylbenzyl isothiocyanate
##JCAMP-DX=4.24
##DATA TYPE=INFRARED SPECTRUM
##ORIGIN=EPA-IR VAPOR PHASE LIBRARY
##OWNER=SRD/NIST
Collection (C) 2018 copyright by the U.S. Secretary of Commerce
on behalf of the United States of America. All rights reserved.
##CAS REGISTRY NO=3694-46-0
##MOLFORM=C 9 H 9 N S
##$NIST SOURCE=MSDC-IR
##STATE=gas
##XUNITS=1/CM
##YUNITS=ABSORBANCE
##XFACTOR=1.
##YFACTOR=0.001
##DELTAX=1.92898
##FIRSTX=549.8
##LASTX=4000.7
##FIRSTY=11.591
##MAXX=4000.7
##MINX=549.759
##MAXY=0.392271
##MINY=0
##NPOINTS=1790
##XYDATA=(X++(Y..Y))
549.759 11.591 12.301 13.041 13.681 14.231 14.611 14.851 14.991 15.341 15.721
569.049 16.101 16.391 16.041 15.631 15.241 14.681 14.311 14.011 13.351 12.451
588.339 11.511 10.541 9.741 9.031 8.221 7.651 7.171 6.681 6.151 5.601
607.628 5.131 4.781 4.341 3.991 3.711 3.511 3.521 3.431 3.171 2.971
626.918 2.971 2.941 2.941 3.081 3.061 2.941 3.031 3.011 3.151 3.381
646.208 3.441 3.621 3.741 3.971 4.171 4.221 4.301 4.501 4.851 5.251
665.498 5.691 6.171 6.771 7.501 8.171 8.791 9.561 10.371 11.091 11.591
684.787 11.921 12.211 12.401 12.421 12.361 12.421 12.571 12.811 13.181 13.371
704.077 13.761 14.741 15.911 17.351 19.131 21.031 22.941 24.551 25.661 26.441
723.367 26.961 27.141 26.931 26.261 25.571 25.091 24.231 23.111 22.321 21.561
742.657 20.701 19.911 19.271 18.621 18.011 17.281 16.181 15.251 14.331 13.391
761.947 12.501 11.541 10.911 10.391 10.161 10.331 10.411 10.561 11.031 11.681
781.236 12.221 12.881 13.851 14.781 15.571 16.301 16.911 17.261 17.561 17.871
800.526 18.121 18.351 18.321 18.161 17.751 17.121 16.341 15.431 14.241 13.011
819.816 12.171 11.411 10.851 10.571 10.401 10.301 10.201 10.021 9.411 8.681
839.106 7.921 6.711 5.581 4.721 4.021 3.481 3.031 2.761 2.441 2.161
858.395 2.121 2.041 1.731 1.701 1.761 1.631 1.511 1.541 1.641 1.701
877.685 1.691 1.491 1.541 1.711 1.651 1.681 1.761 1.711 1.731 1.801
896.975 1.901 1.961 2.011 2.401 2.581 2.581 2.731 2.781 2.901 3.001
916.265 2.961 3.041 3.161 3.291 3.351 3.351 3.221 3.181 3.311 3.211
935.555 3.031 2.951 2.921 2.911 2.851 2.711 2.671 2.591 2.451 2.321
954.844 2.341 2.511 2.451 2.471 2.451 2.381 2.331 2.261 2.321 2.361
974.134 2.351 2.331 2.271 2.361 2.371 2.271 2.371 2.351 2.301 2.411
993.424 2.511 2.401 2.291 2.431 2.531 2.581 2.811 3.251 3.641 4.311
1012.714 5.581 6.991 8.261 8.841 8.831 8.591 8.491 7.801 6.041 4.701
1032.003 4.131 3.781 3.421 3.411 3.571 3.561 3.651 3.651 3.571 3.661
1051.293 3.921 3.931 3.881 3.791 3.671 3.671 3.691 3.591 3.591 3.511
1070.583 3.281 3.541 3.411 3.161 2.711 2.671 3.061 3.461 3.221 2.581
1089.873 2.621 2.831 3.061 3.441 3.641 3.651 4.021 4.261 4.361 4.541
1109.163 4.921 5.211 5.331 5.701 5.661 5.521 5.361 5.401 5.601 5.301
1128.452 5.051 4.881 5.001 4.801 4.251 3.921 3.791 3.871 3.841 3.851
1147.742 3.781 3.751 3.761 3.731 4.051 4.041 4.061 3.961 3.961 4.391
1167.032 4.501 4.481 4.561 4.981 5.851 6.721 7.891 9.141 9.721 10.021
1186.322 10.221 10.381 10.021 9.141 8.281 7.411 6.901 6.801 7.141 7.251
1205.611 7.101 7.401 7.561 7.331 7.041 6.831 6.711 6.471 6.171 6.041
1224.901 6.001 6.331 6.771 7.091 7.281 7.221 7.221 7.041 6.671 6.391
1244.191 5.881 5.541 5.461 5.441 5.531 5.651 5.631 5.451 5.671 6.171
1263.481 6.461 6.821 7.031 7.321 7.811 8.161 8.531 8.981 9.431 10.061
1282.771 10.811 11.561 12.411 13.371 14.531 15.681 16.851 18.231 19.861 21.581
1302.060 23.361 24.991 26.341 27.571 28.731 29.881 31.191 32.771 34.611 36.701
1321.350 39.151 41.861 44.831 48.001 51.451 55.371 59.721 64.491 69.271 73.181
1340.640 75.121 74.421 71.581 67.411 62.221 55.831 48.291 40.431 33.331 27.611
1359.930 23.381 20.261 17.871 16.031 14.561 13.331 12.311 11.511 10.891 10.471
1379.219 10.151 9.941 9.811 9.731 9.651 9.601 9.601 9.591 9.621 9.751
1398.509 9.971 10.231 10.501 10.741 11.001 11.301 11.561 11.771 12.001 12.221
1417.799 12.501 12.791 12.991 13.191 13.351 13.441 13.521 13.571 13.651 13.801
1437.089 14.101 14.791 15.941 17.671 20.301 23.641 27.061 29.681 30.951 31.221
1456.378 30.941 29.241 25.201 19.691 14.681 11.191 9.151 7.971 7.241 6.771
1475.668 6.421 6.221 6.161 6.151 6.261 6.431 6.651 6.881 7.121 7.491
1494.958 7.991 8.651 9.481 10.541 11.901 13.671 15.971 18.701 21.501 23.881
1514.248 25.201 25.351 24.501 22.881 20.511 17.391 13.901 10.891 8.701 7.251
1533.538 6.361 5.751 5.321 5.031 4.761 4.471 4.291 4.131 3.971 3.841
1552.827 3.771 3.721 3.671 3.681 3.601 3.491 3.421 3.441 3.531 3.551
1572.117 3.501 3.401 3.321 3.291 3.271 3.281 3.251 3.231 3.341 3.361
1591.407 3.271 3.291 3.301 3.321 3.501 3.631 3.711 3.961 4.211 4.351
1610.697 4.511 4.621 4.771 4.861 4.771 4.731 4.621 4.361 4.231 4.111
1629.986 3.831 3.691 3.581 3.461 3.351 3.201 3.061 2.971 2.861 2.711
1649.276 2.611 2.531 2.501 2.451 2.301 2.141 2.121 2.071 1.991 1.931
1668.566 1.851 1.701 1.591 1.581 1.551 1.451 1.3634 1.3634 1.3549 1.3595
1687.856 1.3604 1.3451 1.3469 1.2925 1.2096 1.2618 1.3339 1.2791 1.2176 1.2333
1707.146 1.2942 1.2665 1.2701 1.3108 1.3145 1.2952 1.3052 1.3223 1.31 1.381
1726.435 1.411 1.431 1.421 1.441 1.511 1.531 1.601 1.631 1.641 1.631
1745.725 1.591 1.631 1.701 1.801 1.921 1.921 1.921 1.921 1.951 2.031
1765.015 2.121 2.201 2.241 2.371 2.531 2.691 2.931 3.101 3.301 3.471
1784.305 3.541 3.611 3.511 3.341 3.221 2.951 2.701 2.481 2.271 2.081
1803.594 1.891 1.841 1.791 1.701 1.671 1.651 1.641 1.651 1.691 1.741
1822.884 1.731 1.731 1.761 1.781 1.851 1.951 2.021 2.091 2.221 2.311
1842.174 2.361 2.471 2.591 2.711 2.821 2.961 3.151 3.321 3.481 3.691
1861.464 3.901 4.151 4.451 4.741 5.101 5.421 5.761 6.201 6.591 6.961
1880.754 7.341 7.751 8.111 8.421 8.741 8.981 9.171 9.341 9.521 9.671
1900.043 9.811 9.971 10.091 10.231 10.411 10.591 10.851 11.161 11.481 11.831
1919.333 12.191 12.631 13.071 13.551 14.121 14.691 15.301 16.011 16.751 17.461
1938.623 18.281 19.171 20.041 21.061 22.191 23.301 24.591 25.981 27.371 28.901
1957.913 30.591 32.521 34.511 36.651 39.001 41.511 44.291 47.281 50.521 54.071
1977.202 57.851 61.841 66.151 70.771 75.761 81.071 86.701 92.751 99.251 106.111
1996.492 113.461 121.221 129.311 137.901 146.981 156.401 166.181 176.451 187.081 197.971
2015.782 209.181 220.641 232.281 244.091 256.001 267.841 279.681 291.521 303.011 314.131
2035.072 325.111 335.751 345.651 354.911 363.261 370.711 377.401 382.871 387.131 390.211
2054.362 391.931 392.271 391.241 388.911 385.331 380.331 373.921 366.531 358.111 348.611
2073.651 338.191 326.581 313.781 299.781 284.691 268.741 252.021 235.201 218.791 203.041
2092.941 188.131 174.041 160.961 148.881 137.701 127.411 117.991 109.411 101.561 94.431
2112.231 87.981 82.131 76.821 72.101 67.971 64.351 61.201 58.491 56.211 54.331
2131.521 52.781 51.561 50.541 49.761 49.281 48.951 48.831 48.891 49.071 49.371
2150.810 49.871 50.581 51.371 52.301 53.441 54.781 56.341 58.031 59.941 62.071
2170.100 64.281 66.621 68.921 70.961 72.621 73.811 74.331 74.291 73.621 72.221
2189.390 70.321 68.041 65.331 62.311 59.281 56.211 53.141 50.171 47.301 44.551
2208.680 41.951 39.421 36.991 34.691 32.421 30.341 28.501 26.741 25.031 23.461
2227.970 22.051 20.671 19.331 18.091 16.931 15.811 14.801 13.911 13.061 12.271
2247.259 11.591 10.971 10.441 9.971 9.541 9.191 8.861 8.511 8.221 7.981
2266.549 7.791 7.601 7.381 7.201 7.111 7.011 6.871 6.741 6.671 6.701
2285.839 6.621 6.561 6.491 6.401 6.321 6.251 6.131 5.971 5.871 5.761
2305.129 5.681 5.551 5.301 5.091 4.901 4.741 4.681 4.491 4.261 4.101
2324.418 3.921 3.771 3.571 3.401 3.311 3.201 3.121 3.031 2.841 2.761
2343.708 2.721 2.531 2.461 2.421 2.311 2.371 2.401 2.241 2.181 2.241
2362.998 2.201 2.181 2.231 2.151 2.051 2.081 2.081 2.061 2.041 2.011
2382.288 2.041 2.061 2.011 2.011 2.061 2.101 2.071 2.051 2.081 2.041
2401.578 2.001 1.981 1.921 1.911 1.921 1.851 1.801 1.751 1.721 1.741
2420.867 1.711 1.611 1.551 1.581 1.621 1.601 1.511 1.501 1.511 1.481
2440.157 1.501 1.501 1.491 1.521 1.531 1.551 1.561 1.591 1.591 1.611
2459.447 1.601 1.541 1.551 1.591 1.631 1.641 1.641 1.651 1.641 1.671
2478.737 1.671 1.651 1.741 1.751 1.751 1.851 1.831 1.861 1.931 1.901
2498.026 1.841 1.831 1.831 1.851 1.831 1.851 1.921 1.921 1.901 1.851
2517.316 1.831 1.871 1.901 1.891 1.911 1.831 1.811 1.831 1.761 1.801
2536.606 1.801 1.791 1.751 1.741 1.801 1.801 1.841 1.921 1.911 1.871
2555.896 1.861 1.881 1.901 1.811 1.821 1.941 2.031 2.071 2.101 2.161
2575.186 2.121 2.131 2.241 2.311 2.341 2.381 2.541 2.581 2.541 2.521
2594.475 2.531 2.601 2.681 2.761 2.781 2.761 2.801 2.831 2.881 2.861
2613.765 2.791 2.801 2.741 2.651 2.601 2.571 2.481 2.371 2.251 2.121
2633.055 2.121 2.011 1.901 1.771 1.661 1.651 1.581 1.571 1.561 1.581
2652.345 1.571 1.511 1.491 1.391 1.2949 1.2764 1.31 1.431 1.521 1.491
2671.634 1.421 1.451 1.611 1.691 1.711 1.731 1.701 1.751 1.871 1.941
2690.924 1.921 2.011 2.111 2.231 2.331 2.421 2.621 2.701 2.651 2.761
2710.214 2.951 3.011 3.011 3.151 3.371 3.471 3.561 3.671 3.711 3.751
2729.504 3.841 4.001 4.121 4.241 4.421 4.591 4.741 4.851 4.901 4.931
2748.794 4.891 4.771 4.721 4.561 4.451 4.481 4.411 4.381 4.471 4.581
2768.083 4.631 4.631 4.591 4.641 4.761 4.821 4.861 4.931 5.021 5.021
2787.373 5.011 5.061 5.011 5.021 5.061 5.051 5.071 5.031 4.911 4.811
2806.663 4.771 4.641 4.491 4.361 4.331 4.381 4.351 4.291 4.341 4.311
2825.953 4.271 4.331 4.351 4.361 4.501 4.681 4.721 4.721 4.881 5.121
2845.242 5.331 5.611 6.101 6.531 6.971 7.681 8.411 9.211 10.171 11.291
2864.532 12.581 13.831 15.051 16.311 17.341 18.171 18.891 19.461 19.721 19.691
2883.822 19.561 19.361 19.011 18.571 18.101 17.431 16.781 16.151 15.521 15.021
2903.112 14.651 14.411 14.391 14.521 14.951 15.581 16.441 17.661 19.231 21.191
2922.401 23.441 26.051 28.921 31.721 34.181 36.061 37.271 37.851 37.571 36.521
2941.691 35.051 33.221 31.121 29.121 27.311 25.581 23.981 22.471 20.871 19.251
2960.981 17.841 16.461 15.151 14.061 13.011 12.051 11.361 10.751 10.381 10.401
2980.271 10.321 10.431 10.791 11.161 11.621 11.971 12.511 13.161 13.731 14.331
2999.561 14.941 15.491 16.031 16.611 17.161 17.691 18.311 18.961 19.741 20.841
3018.850 22.061 23.431 25.091 26.791 28.311 29.301 29.721 29.531 28.711 27.361
3038.140 25.671 23.941 22.301 20.951 20.081 19.531 19.191 18.901 18.521 18.071
3057.430 17.651 17.201 16.441 15.721 15.031 14.111 13.101 12.081 11.211 10.421
3076.720 9.641 8.991 8.341 7.791 7.411 7.081 6.771 6.411 6.141 5.991
3096.009 5.771 5.491 5.161 4.871 4.691 4.511 4.251 4.051 3.761 3.571
3115.299 3.561 3.311 2.981 2.831 2.731 2.701 2.611 2.501 2.441 2.261
3134.589 2.161 2.121 1.991 1.931 1.891 1.681 1.441 1.1546 0.9201 0.8348
3153.879 0.8485 0.7916 0.6944 0.6515 0.6324 0.6023 0.43942 0.43407 0.4921 0.41458
3173.169 0.379093 0.3203 0.3214 0.40471 0.3094 0.218 0.203 0.167 0.257 0.262
3192.458 0.242 0.266 0.2752 0.2922 0.213 0.2855 0.251 0.16 0.222 0.229
3211.748 0.17 0.171 0.179 0.15 0.114 0.111 0.231 0.3319 0.352 0.36653
3231.038 0.377473 0.3558 0.3446 0.3264 0.246 0.145 0.2747 0.4912 0.42303 0.187
3250.328 0.167 0.245 0.158 0.091 0.076 0.057 0.117 0.185 0.151 0.132
3269.617 0.209 0.122 0.112 0.257 0.3256 0.232 0.049 0.068 0.064 0.04
3288.907 0.147 0.16 0.021 0.089 0.154 0.12 0.1 0.025 0.181 0.186
3308.197 0.06 0.008 0 0.101 0.082 0.065 0.218 0.3437 0.3563 0.2867
3327.487 0.143 0.188 0.2869 0.183 0.154 0.237 0.172 0.186 0.172 0.062
3346.777 0.01 0.04 0.182 0.197 0.201 0.266 0.236 0.2797 0.3518 0.265
3366.066 0.093 0.133 0.241 0.3192 0.2765 0.207 0.236 0.079 0.105 0.179
3385.356 0.052 0.079 0.24 0.2719 0.2854 0.2963 0.2717 0.3088 0.38535 0.3106
3404.646 0.227 0.2 0.106 0.061 0.082 0.093 0.135 0.237 0.2919 0.265
3423.936 0.2893 0.3257 0.3008 0.377492 0.380683 0.348 0.378239 0.3148 0.188 0.212
3443.225 0.122 0.101 0.233 0.185 0.157 0.156 0.106 0.157 0.36411 0.3459
3462.515 0.177 0.136 0.134 0.116 0.022 0.061 0.171 0.159 0.19 0.3284
3481.805 0.2919 0.234 0.2834 0.2745 0.3076 0.243 0.117 0.112 0.164 0.2884
3501.095 0.2776 0.2 0.259 0.18 0.14 0.22 0.3461 0.373426 0.2789 0.3089
3520.385 0.38686 0.3351 0.266 0.3176 0.3487 0.36613 0.44078 0.373348 0.258 0.243
3539.674 0.165 0.154 0.3259 0.43422 0.3356 0.201 0.155 0.19 0.182 0.228
3558.964 0.3065 0.2773 0.3095 0.198 0.118 0.227 0.149 0.105 0.152 0.198
3578.254 0.212 0.249 0.2744 0.235 0.26 0.3635 0.198 0.083 0.3212 0.344
3597.544 0.198 0.201 0.188 0.149 0.229 0.203 0.206 0.201 0.209 0.36213
3616.833 0.38198 0.3221 0.372971 0.36154 0.217 0.228 0.222 0.209 0.3075 0.196
3636.123 0.129 0.235 0.3299 0.3541 0.372813 0.42851 0.521 0.5081 0.41443 0.5291
3655.413 0.5935 0.5781 0.44036 0.3132 0.2985 0.3451 0.46259 0.6083 0.6419 0.5008
3674.703 0.4945 0.5345 0.4773 0.44045 0.4989 0.4969 0.5716 0.5523 0.40083 0.374907
3693.993 0.38342 0.5003 0.5901 0.45765 0.39082 0.39317 0.3134 0.3269 0.3667 0.43178
3713.282 0.5024 0.4734 0.41976 0.256 0.107 0.177 0.235 0.3174 0.3561 0.36512
3732.572 0.3463 0.38278 0.46956 0.44431 0.43297 0.3016 0.258 0.2891 0.3229 0.5026
3751.862 0.6047 0.4752 0.38864 0.38287 0.3842 0.4395 0.43715 0.45456 0.45707 0.394
3771.152 0.43473 0.5386 0.5228 0.5182 0.5516 0.615 0.6239 0.5769 0.6303 0.6156
3790.441 0.5375 0.5214 0.4221 0.4237 0.5835 0.5961 0.5664 0.5079 0.5436 0.5919
3809.731 0.377296 0.36568 0.45065 0.46393 0.41317 0.374856 0.41985 0.44947 0.6016 0.5759
3829.021 0.4719 0.43321 0.5115 0.6516 0.5985 0.5836 0.556 0.5795 0.6123 0.6472
3848.311 0.6785 0.6684 0.7423 0.7016 0.5757 0.5875 0.7123 0.8686 0.8382 0.6497
3867.601 0.7641 0.8125 0.8017 0.8377 0.6529 0.6058 0.6948 0.7909 0.8414 0.8008
3886.890 0.7865 0.7599 0.7958 0.7968 0.8035 0.8609 0.8389 0.7419 0.7845 0.9183
3906.180 0.8335 0.8508 0.8896 0.9219 0.9957 0.9736 0.7728 0.7686 0.924 0.9213
3925.470 0.8903 0.7838 0.8076 0.92 0.9773 1.0118 0.9239 0.8128 0.9412 1.0312
3944.760 1.0572 1.1265 1.1499 1.207 1.255 1.2518 1.2246 1.1969 1.2985 1.2975
3964.049 1.2559 1.2551 1.2594 1.3569 1.3525 1.336 1.3511 1.411 1.441 1.471
3983.339 1.451 1.431 1.471 1.591 1.741 1.681 1.571 1.651 1.661 1.651
##END=
