##TITLE=2-Isopropylimidazole
##JCAMP-DX=4.24
##DATA TYPE=INFRARED SPECTRUM
##ORIGIN=EPA-IR VAPOR PHASE LIBRARY
##OWNER=SRD/NIST
Collection (C) 2018 copyright by the U.S. Secretary of Commerce
on behalf of the United States of America. All rights reserved.
##CAS REGISTRY NO=36947-68-9
##MOLFORM=C 6 H 10 N 2
##$NIST SOURCE=MSDC-IR
##STATE=gas
##XUNITS=1/CM
##YUNITS=ABSORBANCE
##XFACTOR=1.
##YFACTOR=0.001
##DELTAX=1.92934
##FIRSTX=549.9
##LASTX=3999.5
##FIRSTY=6.828
##MAXX=3999.53
##MINX=549.863
##MAXY=0.057608
##MINY=0
##NPOINTS=1789
##XYDATA=(X++(Y..Y))
549.863 6.828 6.018 5.198 4.338 3.818 3.358 2.898 2.618 2.348 2.198
569.156 2.008 1.808 1.7362 1.7284 1.6948 1.5271 1.3735 1.3408 1.4325 1.4664
588.450 1.4569 1.5026 1.5582 1.5777 1.6946 1.908 2.058 2.148 2.348 2.598
607.743 2.888 3.148 3.238 3.438 3.678 3.958 4.238 4.578 4.938 5.158
627.037 5.258 5.188 4.888 4.578 4.318 4.068 3.918 3.808 3.688 3.488
646.330 3.238 3.018 2.848 2.748 2.618 2.498 2.478 2.368 2.358 2.428
665.624 2.488 2.708 3.008 3.328 3.758 4.358 4.948 5.578 6.458 7.398
684.917 8.338 9.498 10.798 12.068 13.338 14.608 15.938 17.328 18.888 20.678
704.210 22.708 24.958 27.138 29.018 30.168 29.928 28.698 27.308 25.928 24.668
723.504 23.528 22.418 21.288 20.098 18.828 17.508 16.238 14.958 13.678 12.398
742.797 11.048 9.668 8.398 7.378 6.498 5.658 4.928 4.328 3.808 3.368
762.091 2.948 2.548 2.188 1.958 1.798 1.6122 1.3884 1.2062 1.0871 1.0157
781.384 0.9591 0.8722 0.765227 0.7441 0.75611 0.6744 0.616 0.624 0.606 0.594
800.678 0.64 0.6997 0.77851 0.82584 0.8606 0.9214 1.0172 1.1277 1.2309 1.3591
819.971 1.5159 1.6663 1.898 2.128 2.328 2.628 2.938 3.148 3.328 3.598
839.264 3.908 4.298 4.768 5.258 5.728 6.068 5.958 5.548 5.138 4.768
858.558 4.518 4.298 4.118 3.948 3.688 3.438 3.218 2.958 2.658 2.418
877.851 2.268 2.148 2.068 1.998 1.948 2.008 2.028 2.038 2.108 2.298
897.145 2.468 2.618 2.798 2.968 3.138 3.258 3.368 3.478 3.588 3.748
916.438 3.838 3.938 4.108 4.218 4.258 4.278 4.278 4.248 4.308 4.518
935.732 4.768 4.998 5.298 5.718 6.138 6.558 6.978 7.268 7.448 7.458
955.025 7.358 7.268 7.068 6.778 6.418 6.008 5.608 5.088 4.468 3.828
974.318 3.308 2.918 2.618 2.468 2.358 2.308 2.348 2.458 2.598 2.768
993.612 2.978 3.238 3.588 3.998 4.418 4.918 5.498 6.158 6.858 7.628
1012.905 8.458 9.268 10.168 11.098 11.958 12.778 13.468 14.048 14.568 15.018
1032.199 15.368 15.718 16.128 16.518 16.908 17.348 17.778 18.148 18.428 18.648
1051.492 18.908 19.178 19.458 19.698 19.898 20.128 20.238 20.208 20.058 19.798
1070.786 19.598 19.418 19.228 18.868 18.308 17.588 16.548 15.288 14.008 12.788
1090.079 11.668 10.578 9.538 8.658 7.838 7.128 6.598 6.108 5.688 5.348
1109.372 5.048 4.808 4.558 4.358 4.228 3.928 3.638 3.558 3.438 3.288
1128.666 3.168 3.098 3.058 3.058 3.308 3.498 3.598 3.908 4.368 4.848
1147.959 5.388 6.228 7.228 8.018 8.568 8.818 8.738 8.458 8.398 8.348
1167.253 7.908 7.388 7.048 6.708 6.008 5.128 4.238 3.278 2.708 2.528
1186.546 2.368 2.318 2.368 2.408 2.408 2.678 2.808 2.748 2.938 3.098
1205.840 3.168 3.258 3.468 3.808 4.158 4.338 4.278 4.088 4.338 4.688
1225.133 4.748 4.458 4.488 4.698 4.728 4.888 4.948 4.978 5.058 5.078
1244.426 4.988 5.038 5.078 5.058 5.058 5.118 5.148 5.048 5.018 4.938
1263.720 4.848 4.608 4.348 4.278 4.188 4.068 3.988 3.908 3.908 3.938
1283.013 3.998 4.218 4.468 4.698 4.968 5.358 5.828 6.378 6.958 7.558
1302.307 8.208 8.838 9.448 9.988 10.318 10.528 10.638 10.638 10.628 10.518
1321.600 10.298 9.968 9.538 9.068 8.648 8.298 7.918 7.608 7.428 7.258
1340.894 7.138 7.108 7.158 7.348 7.658 8.018 8.418 8.858 9.298 9.668
1360.187 9.918 10.038 10.078 10.018 9.898 9.638 9.348 9.148 9.028 8.998
1379.480 8.978 8.848 8.708 8.628 8.538 8.498 8.408 8.188 7.978 7.868
1398.774 7.788 7.768 7.808 7.948 8.178 8.518 8.988 9.558 10.228 10.998
1418.067 11.928 12.978 13.928 14.848 15.688 16.388 17.088 17.748 18.398 19.028
1437.361 19.618 20.128 20.448 20.448 20.198 19.788 19.258 18.658 17.988 17.388
1456.654 16.748 16.108 15.498 14.848 14.228 13.608 13.058 12.748 12.568 12.508
1475.948 12.638 12.818 12.888 12.768 12.438 11.978 11.518 10.998 10.328 9.598
1495.241 9.018 8.498 7.738 6.768 5.818 4.948 4.188 3.658 3.328 3.198
1514.534 3.238 3.438 3.798 4.318 5.088 6.088 7.408 9.078 11.078 13.348
1533.828 15.668 17.858 19.728 21.168 22.138 22.728 22.958 22.908 22.468 21.578
1553.121 20.478 19.048 17.108 14.558 11.818 9.478 7.598 6.268 5.398 4.788
1572.415 4.308 3.888 3.508 3.198 2.878 2.618 2.408 2.228 1.998 1.818
1591.708 1.7267 1.6085 1.5115 1.4126 1.309 1.2548 1.2027 1.1498 1.0545 0.9379
1611.002 0.8961 0.8562 0.77232 0.7384 0.7263 0.7276 0.765181 0.7323 0.651 0.635
1630.295 0.643 0.6623 0.6899 0.6859 0.64 0.644 0.627 0.629 0.6887 0.6619
1649.588 0.642 0.6895 0.6669 0.657 0.7314 0.765376 0.80004 0.83453 0.8791 0.958
1668.882 1.0797 1.2493 1.3888 1.572 1.848 2.138 2.408 2.638 2.868 3.088
1688.175 3.148 3.128 3.128 3.118 3.028 2.888 2.788 2.718 2.538 2.238
1707.469 1.928 1.6386 1.3789 1.1582 1.0282 0.9437 0.84636 0.77308 0.6669 0.587
1726.762 0.552 0.497 0.486 0.515 0.51 0.458 0.43 0.43 0.394 0.383
1746.056 0.384 0.357 0.379 0.399 0.399 0.393 0.395 0.382 0.343 0.363
1765.349 0.392 0.373 0.354 0.366 0.425 0.435 0.383 0.369 0.393 0.397
1784.642 0.406 0.411 0.395 0.406 0.463 0.455 0.418 0.413 0.404 0.409
1803.936 0.446 0.469 0.457 0.47 0.44 0.416 0.42 0.433 0.493 0.501
1823.229 0.48 0.44 0.42 0.451 0.441 0.393 0.379 0.4 0.409 0.424
1842.523 0.41 0.423 0.441 0.42 0.405 0.429 0.433 0.407 0.384 0.373
1861.816 0.398 0.396 0.384 0.405 0.432 0.421 0.402 0.378 0.343 0.367
1881.110 0.397 0.393 0.349 0.306 0.317 0.343 0.346 0.32 0.297 0.291
1900.403 0.288 0.283 0.33 0.355 0.334 0.321 0.336 0.334 0.325 0.309
1919.696 0.306 0.295 0.301 0.331 0.292 0.308 0.326 0.329 0.348 0.319
1938.990 0.323 0.331 0.307 0.299 0.29 0.298 0.312 0.33 0.332 0.331
1958.283 0.303 0.29 0.295 0.264 0.273 0.27 0.285 0.331 0.337 0.312
1977.577 0.303 0.321 0.333 0.329 0.339 0.359 0.379 0.387 0.359 0.352
1996.870 0.337 0.325 0.345 0.352 0.365 0.363 0.361 0.359 0.345 0.343
2016.164 0.346 0.341 0.336 0.319 0.3 0.3 0.315 0.353 0.382 0.374
2035.457 0.328 0.319 0.325 0.308 0.3 0.313 0.328 0.326 0.339 0.348
2054.750 0.361 0.361 0.332 0.307 0.318 0.32 0.318 0.323 0.312 0.324
2074.044 0.347 0.337 0.326 0.301 0.318 0.369 0.342 0.323 0.3 0.278
2093.337 0.304 0.303 0.3 0.31 0.302 0.312 0.348 0.352 0.382 0.426
2112.631 0.4 0.358 0.339 0.336 0.341 0.362 0.401 0.425 0.435 0.461
2131.924 0.475 0.461 0.477 0.5 0.5 0.484 0.451 0.454 0.47 0.454
2151.218 0.447 0.448 0.46 0.455 0.445 0.456 0.438 0.463 0.487 0.508
2170.511 0.527 0.513 0.518 0.576 0.606 0.605 0.608 0.613 0.596 0.557
2189.804 0.598 0.613 0.606 0.642 0.6789 0.6914 0.674 0.6946 0.74836 0.78003
2209.098 0.81544 0.85446 0.8762 0.8813 0.83667 0.81824 0.85641 0.8701 0.83866 0.8
2228.391 0.78729 0.758954 0.7291 0.6807 0.6653 0.7135 0.718 0.6834 0.6649 0.65
2247.685 0.636 0.645 0.633 0.619 0.611 0.57 0.542 0.554 0.562 0.546
2266.978 0.531 0.526 0.518 0.493 0.486 0.513 0.542 0.548 0.542 0.504
2286.272 0.468 0.467 0.49 0.489 0.493 0.519 0.483 0.437 0.434 0.468
2305.565 0.496 0.519 0.531 0.53 0.522 0.48 0.482 0.5 0.481 0.492
2324.858 0.485 0.445 0.452 0.456 0.423 0.451 0.475 0.433 0.433 0.429
2344.152 0.438 0.479 0.476 0.462 0.433 0.435 0.484 0.505 0.528 0.517
2363.445 0.526 0.516 0.504 0.53 0.544 0.546 0.513 0.529 0.55 0.549
2382.739 0.564 0.585 0.556 0.507 0.543 0.608 0.637 0.633 0.635 0.6584
2402.032 0.645 0.613 0.6745 0.75104 0.76075 0.80426 0.82828 0.79322 0.82172 0.84093
2421.326 0.85252 0.8754 0.84762 0.85247 0.8779 0.9003 0.9059 0.9051 0.8949 0.85366
2440.619 0.82492 0.85528 0.85247 0.77388 0.7459 0.764486 0.78072 0.766862 0.75286 0.761539
2459.912 0.758267 0.7571 0.758574 0.77018 0.765489 0.79311 0.80417 0.77898 0.81027 0.865
2479.206 0.8618 0.85661 0.9017 0.8959 0.8995 0.9489 0.9766 0.9649 0.9594 0.9457
2498.499 0.9285 0.9168 0.9183 0.9363 0.8972 0.8852 0.9694 0.9944 0.9619 0.9288
2517.793 0.9253 0.9287 0.8985 0.9098 0.8975 0.8793 0.8678 0.8686 0.8806 0.85752
2537.086 0.80463 0.81006 0.84352 0.82529 0.80558 0.80382 0.78049 0.75158 0.7105 0.701
2556.380 0.75102 0.77035 0.75123 0.77053 0.78937 0.79174 0.8101 0.80858 0.77661 0.78502
2575.673 0.82969 0.82181 0.82254 0.8516 0.85117 0.78705 0.77117 0.83885 0.8872 0.8811
2594.966 0.85635 0.8609 0.8751 0.8737 0.8807 0.8626 0.859 0.8656 0.8605 0.8705
2614.260 0.8631 0.8707 0.8917 0.9124 0.9293 0.9158 0.868 0.85414 0.8928 0.9074
2633.553 0.9215 0.9015 0.85694 0.84792 0.85011 0.84063 0.79767 0.7355 0.7396 0.77745
2652.847 0.75342 0.7215 0.6643 0.6 0.606 0.632 0.606 0.614 0.609 0.539
2672.140 0.525 0.563 0.554 0.559 0.586 0.568 0.606 0.611 0.572 0.575
2691.434 0.619 0.599 0.575 0.599 0.604 0.6746 0.7185 0.7411 0.78513 0.77009
2710.727 0.79889 0.83643 0.82434 0.8896 0.9312 0.9102 0.9378 1.0226 1.0795 1.0617
2730.020 1.0395 1.1181 1.1496 1.0987 1.0941 1.1159 1.0951 1.0721 1.1196 1.1813
2749.314 1.2009 1.1627 1.1665 1.186 1.1746 1.1808 1.1702 1.193 1.2679 1.2032
2768.607 1.1356 1.1698 1.1924 1.18 1.177 1.1907 1.2072 1.2488 1.1914 1.1584
2787.901 1.2379 1.2605 1.2213 1.2331 1.318 1.3747 1.3881 1.3924 1.3745 1.493
2807.194 1.6237 1.6673 1.6937 1.7026 1.788 1.848 1.908 2.018 2.078 2.128
2826.488 2.178 2.198 2.248 2.348 2.468 2.568 2.718 2.878 3.108 3.388
2845.781 3.658 3.948 4.258 4.688 5.218 5.758 6.388 7.188 8.108 9.128
2865.074 10.228 11.418 12.648 13.858 15.008 16.078 16.958 17.748 18.448 18.948
2884.368 19.468 19.878 20.108 20.238 20.248 20.118 19.868 19.598 19.298 19.078
2903.661 18.868 18.708 18.708 18.598 18.608 18.808 19.048 19.388 19.778 20.208
2922.955 20.808 21.588 22.398 23.238 23.968 24.698 25.528 26.278 26.878 27.628
2942.248 28.388 29.238 30.328 31.378 32.468 33.788 35.458 37.488 39.908 42.698
2961.542 45.748 48.958 51.858 54.098 55.888 57.108 57.608 57.198 55.608 53.528
2980.835 51.268 48.228 44.118 39.518 34.828 30.188 25.818 21.918 18.608 15.748
3000.128 13.278 11.358 9.758 8.388 7.258 6.198 5.298 4.648 4.068 3.438
3019.422 3.038 2.778 2.518 2.238 1.948 1.6546 1.4351 1.4479 1.3791 1.1706
3038.715 1.08 1.0805 1.0009 0.9122 0.9422 0.9137 0.8739 0.9692 0.9878 0.919
3058.009 0.9537 0.9274 0.9174 0.9892 1.0227 1.1467 1.1764 1.1655 1.273 1.4605
3077.302 1.5105 1.5058 1.5465 1.4505 1.5006 1.6283 1.5879 1.5676 1.6436 1.6627
3096.596 1.808 1.928 1.998 2.158 2.318 2.468 2.748 3.158 3.638 4.048
3115.889 4.298 4.458 4.548 4.668 4.918 5.088 4.858 4.658 4.838 5.138
3135.182 5.178 5.058 4.968 4.888 4.868 4.738 4.508 4.418 4.508 4.598
3154.476 4.248 3.778 3.738 3.608 3.198 2.678 2.188 1.7391 1.3642 1.1334
3173.769 0.951 0.8932 1.0411 1.158 1.1247 1.0426 0.9625 0.9216 0.9137 0.8598
3193.063 0.82287 0.8773 0.85131 0.77729 0.7388 0.77024 0.7568 0.6991 0.615 0.592
3212.356 0.594 0.525 0.496 0.498 0.503 0.373 0.32 0.457 0.527 0.479
3231.650 0.451 0.295 0.219 0.436 0.537 0.43 0.338 0.33 0.207 0.118
3250.943 0.118 0.026 0.055 0.245 0.331 0.312 0.195 0.08 0.156 0.293
3270.236 0.35 0.189 0.118 0.273 0.253 0.093 0.106 0.149 0.158 0.243
3289.530 0.322 0.238 0.236 0.246 0.193 0.185 0.217 0.264 0.273 0.31
3308.823 0.24 0.156 0.129 0.079 0.062 0.226 0.26 0.162 0.145 0.187
3328.117 0.177 0.125 0.202 0.214 0.145 0.116 0.058 0 0.116 0.098
3347.410 0.042 0.216 0.237 0.184 0.089 0.078 0.188 0.161 0.188 0.18
3366.704 0.114 0.142 0.172 0.178 0.217 0.273 0.221 0.223 0.213 0.192
3385.997 0.192 0.154 0.209 0.264 0.279 0.386 0.425 0.289 0.184 0.199
3405.290 0.234 0.167 0.28 0.385 0.306 0.281 0.331 0.35 0.357 0.485
3424.584 0.53 0.544 0.619 0.652 0.654 0.633 0.596 0.587 0.6746 0.84666
3443.877 0.981 1.2503 1.5318 1.5487 1.6069 1.848 2.158 2.448 2.608 2.898
3463.171 3.438 4.048 4.708 5.278 5.918 6.708 7.598 8.488 9.328 10.348
3482.464 11.468 12.578 13.748 14.998 16.228 17.318 18.408 19.328 19.958 20.128
3501.758 19.858 19.498 19.048 18.488 17.928 17.588 17.238 16.658 15.758 14.518
3521.051 13.118 11.448 9.768 8.328 7.008 5.948 5.128 4.488 3.808 3.158
3540.344 2.668 2.258 1.908 1.5629 1.2764 1.0577 0.9539 0.80911 0.637 0.62
3559.638 0.599 0.613 0.566 0.449 0.411 0.383 0.322 0.254 0.263 0.187
3578.931 0.177 0.225 0.213 0.235 0.291 0.361 0.298 0.199 0.236 0.274
3598.225 0.32 0.375 0.337 0.257 0.232 0.331 0.348 0.276 0.235 0.233
3617.518 0.268 0.33 0.283 0.138 0.126 0.192 0.219 0.33 0.336 0.337
3636.812 0.277 0.139 0.193 0.151 0.112 0.176 0.116 0.04 0.17 0.206
3656.105 0.143 0.149 0.138 0.117 0.114 0.166 0.15 0.074 0.123 0.259
3675.398 0.298 0.125 0.069 0.201 0.211 0.181 0.194 0.221 0.195 0.199
3694.692 0.184 0.167 0.152 0.143 0.147 0.182 0.222 0.216 0.328 0.424
3713.985 0.419 0.386 0.297 0.248 0.349 0.292 0.205 0.251 0.275 0.25
3733.279 0.295 0.307 0.145 0.201 0.291 0.239 0.296 0.275 0.283 0.274
3752.572 0.109 0.175 0.204 0.157 0.215 0.162 0.129 0.166 0.189 0.303
3771.866 0.329 0.269 0.263 0.207 0.139 0.153 0.193 0.227 0.252 0.245
3791.159 0.223 0.232 0.256 0.206 0.175 0.133 0.219 0.372 0.387 0.361
3810.452 0.311 0.289 0.299 0.286 0.304 0.246 0.203 0.215 0.264 0.344
3829.746 0.29 0.354 0.402 0.328 0.394 0.35 0.288 0.292 0.245 0.326
3849.039 0.414 0.405 0.374 0.354 0.278 0.238 0.276 0.284 0.283 0.305
3868.333 0.297 0.238 0.304 0.297 0.22 0.265 0.295 0.365 0.314 0.228
3887.626 0.213 0.279 0.319 0.292 0.26 0.204 0.313 0.321 0.194 0.252
3906.920 0.32 0.346 0.28 0.18 0.253 0.381 0.397 0.306 0.296 0.274
3926.213 0.303 0.412 0.395 0.286 0.362 0.37 0.263 0.317 0.322 0.347
3945.506 0.347 0.339 0.331 0.295 0.356 0.27 0.196 0.284 0.374 0.402
3964.800 0.372 0.42 0.419 0.36 0.335 0.312 0.396 0.517 0.542 0.593
3984.093 0.567 0.406 0.486 0.556 0.548 0.539 0.503 0.575 0.55
##END=
