##TITLE=.alpha.-(p-Chlorophenyl)ciannamonitrile
##JCAMP-DX=4.24
##DATA TYPE=INFRARED SPECTRUM
##ORIGIN=EPA-IR VAPOR PHASE LIBRARY
##OWNER=SRD/NIST
Collection (C) 2018 copyright by the U.S. Secretary of Commerce
on behalf of the United States of America. All rights reserved.
##CAS REGISTRY NO=3695-93-0
##MOLFORM=C 15 H 10 Cl N
##$NIST SOURCE=MSDC-IR
##STATE=gas
##XUNITS=1/CM
##YUNITS=ABSORBANCE
##XFACTOR=1.
##YFACTOR=0.001
##DELTAX=3.85796
##FIRSTX=551.7
##LASTX=4000.7
##FIRSTY=2.253
##MAXX=4000.7
##MINX=551.688
##MAXY=0.068013
##MINY=0
##NPOINTS=895
##XYDATA=(X++(Y..Y))
551.688 2.253 1.853 1.643 1.593 1.643 1.703 1.913 2.463 3.823 5.553
590.268 6.383 5.593 3.933 2.843 2.453 2.263 2.133 2.113 2.123 2.113
628.847 2.373 2.593 2.673 2.913 2.953 2.913 3.243 3.933 4.913 6.403
667.427 8.583 11.323 14.803 18.863 22.883 25.663 25.563 23.113 20.433 18.533
706.006 17.773 17.983 18.403 18.373 17.683 16.603 15.743 15.403 15.703 16.323
744.586 16.323 15.223 13.323 11.363 9.813 8.473 7.363 6.543 5.983 5.753
783.165 5.743 5.833 6.053 6.703 7.893 9.723 12.583 16.393 21.353 27.853
821.745 35.333 41.493 42.213 36.103 27.033 18.823 13.023 9.433 7.173 5.683
860.324 4.593 3.983 3.673 3.683 3.963 4.143 4.313 4.383 4.293 4.173
898.904 4.043 4.013 4.263 4.843 5.613 6.273 6.583 6.153 5.273 4.353
937.484 3.433 2.923 2.643 2.523 2.543 2.513 2.673 2.993 3.113 3.193
976.063 3.663 4.693 6.793 10.423 13.383 12.893 10.433 9.393 12.483 21.953
1014.643 30.353 25.893 14.213 8.393 7.473 6.103 4.543 3.563 3.233 3.213
1053.222 3.543 4.033 4.823 6.013 7.473 9.403 11.763 15.463 22.083 34.603
1091.802 53.703 68.013 63.133 42.993 25.633 17.213 12.953 10.483 8.993 7.373
1130.381 5.613 4.473 3.533 2.593 2.303 2.233 2.223 2.203 2.313 2.623
1168.961 2.843 3.213 3.893 5.013 6.313 6.593 6.063 5.713 5.253 4.643
1207.540 4.363 4.633 5.493 5.763 4.853 3.813 3.243 3.173 3.313 3.723
1246.120 4.553 5.583 5.813 4.893 3.583 2.513 1.973 1.813 1.813 1.903
1284.699 1.913 1.973 2.103 2.283 2.513 2.663 2.573 2.313 2.203 2.323
1323.279 2.613 3.003 3.393 3.703 4.093 4.683 5.453 6.183 6.293 5.623
1361.859 4.673 3.983 3.623 3.543 3.573 3.673 3.873 4.333 5.153 6.283
1400.438 7.453 8.053 7.833 6.923 5.773 4.823 4.273 4.063 4.173 4.663
1439.018 5.623 7.013 8.293 8.783 8.293 7.443 7.003 7.283 8.493 11.253
1477.597 16.653 26.313 41.013 56.943 64.923 59.923 45.973 30.183 17.273 10.353
1516.177 6.933 5.123 4.083 3.423 2.973 2.693 2.503 2.463 2.513 2.643
1554.756 2.853 3.143 3.493 3.893 4.393 4.853 5.423 6.303 7.833 10.073
1593.336 11.933 12.213 10.923 9.023 7.063 5.253 3.973 3.363 3.143 3.153
1631.915 3.263 3.403 3.573 3.643 3.523 3.283 2.973 2.693 2.453 2.183
1670.495 1.953 1.823 1.743 1.683 1.593 1.533 1.443 1.303 1.243 1.223
1709.075 1.243 1.283 1.303 1.373 1.433 1.463 1.513 1.633 1.803 2.003
1747.654 2.183 2.423 2.683 2.923 3.273 3.713 4.013 3.953 3.493 3.023
1786.234 2.993 3.303 3.593 3.333 2.613 2.073 1.813 1.683 1.603 1.493
1824.813 1.363 1.333 1.383 1.503 1.593 1.583 1.563 1.563 1.523 1.523
1863.393 1.643 1.833 2.033 2.283 2.513 2.743 3.103 3.523 3.843 3.913
1901.972 3.643 3.043 2.373 1.863 1.573 1.483 1.493 1.543 1.603 1.733
1940.552 1.913 2.083 2.143 2.183 2.343 2.573 2.543 2.063 1.423 0.9729
1979.131 0.7632 0.6891 0.6528 0.5926 0.5704 0.5496 0.5395 0.5411 0.5423 0.4889
2017.711 0.4436 0.4267 0.3983 0.3916 0.4003 0.3952 0.3794 0.3703 0.3485 0.3596
2056.291 0.394 0.4004 0.3826 0.3651 0.3637 0.3991 0.4076 0.387 0.3821 0.3776
2094.870 0.3902 0.389 0.3635 0.3609 0.363 0.388 0.3604 0.3133 0.2934 0.2905
2133.450 0.3231 0.3013 0.3168 0.3324 0.3137 0.3566 0.3935 0.4244 0.4491 0.4395
2172.029 0.4386 0.4989 0.5284 0.5614 0.6422 0.7625 0.9086 1.0719 1.423 2.153
2210.609 3.413 4.993 5.913 5.233 3.473 1.963 1.233 0.9176 0.7566 0.6862
2249.188 0.6574 0.6433 0.639 0.6523 0.6414 0.6181 0.5984 0.5721 0.6169 0.6577
2287.768 0.6343 0.6582 0.6756 0.6933 0.7563 0.7858 0.8597 0.9924 1.0785 0.978
2326.347 0.7669 0.6209 0.5732 0.6014 0.6443 0.6872 0.6823 0.6435 0.569 0.5153
2364.927 0.5187 0.5075 0.4902 0.459 0.4259 0.4423 0.4457 0.4457 0.4404 0.4345
2403.507 0.4708 0.4872 0.4645 0.4893 0.4751 0.3824 0.3852 0.4216 0.4405 0.4565
2442.086 0.4265 0.4014 0.4294 0.4437 0.4411 0.4483 0.4294 0.4329 0.4055 0.3916
2480.666 0.4595 0.5054 0.4924 0.4912 0.5145 0.5542 0.5931 0.6558 0.7208 0.7186
2519.245 0.691 0.6229 0.6138 0.5994 0.5516 0.5519 0.5639 0.5974 0.6313 0.6315
2557.825 0.6172 0.6341 0.6251 0.6063 0.6398 0.665 0.7002 0.7692 0.8053 0.7878
2596.404 0.842 0.9122 0.8838 0.7804 0.6598 0.5482 0.5051 0.4852 0.4312 0.4482
2634.984 0.4567 0.4256 0.3802 0.3943 0.3509 0.2933 0.334 0.3431 0.3332 0.3492
2673.563 0.3557 0.346 0.3874 0.4179 0.3999 0.4113 0.4176 0.4221 0.4176 0.3549
2712.143 0.3551 0.3602 0.3372 0.3215 0.299 0.3088 0.3616 0.4212 0.4373 0.4072
2750.722 0.3732 0.3252 0.3255 0.3542 0.4035 0.4796 0.5127 0.5712 0.6273 0.6471
2789.302 0.7198 0.7727 0.7406 0.7021 0.6939 0.7489 0.7213 0.669 0.6714 0.6344
2827.882 0.621 0.7135 0.7711 0.7815 0.8123 0.7829 0.7437 0.7121 0.6926 0.6928
2866.461 0.6757 0.6495 0.6474 0.7096 0.7532 0.752 0.7701 0.762 0.731 0.7241
2905.041 0.7439 0.7643 0.7809 0.8112 0.8689 0.934 0.9555 1.0322 1.0854 1.0842
2943.620 1.0689 1.0344 1.0306 1.0364 1.0605 1.0955 1.0594 1.0551 1.1037 1.183
2982.200 1.413 1.623 1.813 2.063 2.353 2.633 3.043 3.693 4.563 5.873
3020.779 7.973 11.283 15.583 19.283 19.973 17.073 13.153 10.873 10.513 11.633
3059.359 14.183 18.043 22.633 25.653 24.513 20.073 15.943 13.963 13.263 12.563
3097.938 11.453 10.113 8.563 6.883 5.263 3.823 2.693 1.983 1.543 1.333
3136.518 1.263 1.233 1.193 1.163 1.143 1.046 0.8865 0.8054 0.752 0.7189
3175.098 0.6883 0.6222 0.6171 0.652 0.6387 0.5737 0.5642 0.5258 0.5653 0.5595
3213.677 0.4332 0.3515 0.3281 0.3557 0.3301 0.2961 0.2625 0.2587 0.2865 0.2842
3252.257 0.2809 0.2366 0.21861 0.19658 0.15402 0.134238 0.138653 0.19398 0.15057 0.1185
3290.836 0.1983 0.18515 0.16371 0.15947 0.137176 0.19791 0.21616 0.22653 0.23126 0.15198
3329.416 0.14898 0.16825 0.17599 0.15363 0.15313 0.2521 0.287 0.299 0.2519 0.18441
3367.995 0.17037 0.20071 0.19527 0.16809 0.18852 0.17837 0.13105 0.0573 0.1075 0.141222
3406.575 0.0904 0.1063 0.141739 0.15938 0.15233 0.14623 0.12823 0.12567 0.134948 0.16841
3445.154 0.1234 0.0746 0.16859 0.21107 0.15361 0.15671 0.21608 0.22325 0.17804 0.18115
3483.734 0.2064 0.20536 0.2352 0.2225 0.2428 0.2407 0.1887 0.16881 0.15508 0.1194
3522.314 0.0657 0.021 0.0988 0.1897 0.1219 0.132243 0.14458 0.116 0.17165 0.16724
3560.893 0.16667 0.142515 0.12843 0.23093 0.22255 0.15118 0.1189 0.118 0.0466 0
3599.473 0.15284 0.21337 0.18439 0.1479 0.0441 0.0939 0.1733 0.18238 0.2824 0.3129
3638.052 0.2631 0.2397 0.22792 0.2358 0.2887 0.3386 0.3569 0.3847 0.4118 0.3473
3676.632 0.22003 0.2732 0.3538 0.3513 0.3649 0.315 0.3019 0.3317 0.2642 0.3024
3715.211 0.3826 0.3655 0.4265 0.4567 0.3858 0.3075 0.3225 0.3197 0.19375 0.18697
3753.791 0.22445 0.2488 0.2953 0.249 0.16081 0.18374 0.3292 0.4108 0.3876 0.3017
3792.370 0.2838 0.319 0.336 0.355 0.3286 0.3504 0.4156 0.4459 0.4359 0.3904
3830.950 0.3513 0.22045 0.16447 0.2487 0.21983 0.16443 0.19077 0.21735 0.19335 0.20664
3869.530 0.223 0.19722 0.22421 0.2422 0.2608 0.2757 0.2846 0.266 0.2365 0.21189
3908.109 0.1718 0.17437 0.1737 0.2384 0.22901 0.18933 0.2953 0.2792 0.19497 0.14534
3946.689 0.0599 0.083 0.18244 0.2943 0.23239 0.0832 0.0745 0.14945 0.289 0.2951
3985.268 0.2758 0.2592 0.2331 0.3062 0.3257
##END=
