##TITLE=p-Chloro-.alpha.-phenylcinnamonitrile
##JCAMP-DX=4.24
##DATA TYPE=INFRARED SPECTRUM
##ORIGIN=EPA-IR VAPOR PHASE LIBRARY
##OWNER=SRD/NIST
Collection (C) 2018 copyright by the U.S. Secretary of Commerce
on behalf of the United States of America. All rights reserved.
##CAS REGISTRY NO=3695-92-9
##MOLFORM=C 15 H 10 Cl N
##$NIST SOURCE=MSDC-IR
##STATE=gas
##XUNITS=1/CM
##YUNITS=ABSORBANCE
##XFACTOR=1.
##YFACTOR=0.001
##DELTAX=1.92898
##FIRSTX=549.8
##LASTX=4000.7
##FIRSTY=1.804
##MAXX=4000.7
##MINX=549.759
##MAXY=0.068254
##MINY=0
##NPOINTS=1790
##XYDATA=(X++(Y..Y))
549.759 1.804 1.304 1.2023 1.554 1.674 1.394 1.274 1.1667 1.1041 1.2222
569.049 1.2408 1.1545 0.8832 0.6952 0.7293 1.0201 1.2187 1.334 1.294 1.344
588.339 1.2494 1.334 1.404 1.0155 1.0609 1.384 1.554 1.584 1.494 1.334
607.628 1.354 1.354 1.364 1.594 1.814 1.794 1.844 1.954 2.114 2.354
626.918 2.454 2.404 2.184 2.224 2.464 2.394 2.284 2.454 2.674 2.644
646.208 2.404 2.324 2.474 2.684 2.894 3.334 3.774 4.054 4.444 4.974
665.498 5.624 6.474 7.444 8.334 9.264 10.614 12.184 13.754 15.614 17.404
684.787 19.114 20.914 22.254 22.664 22.314 22.054 22.004 21.644 20.494 18.794
704.077 16.994 14.794 12.714 11.324 10.254 9.514 9.024 8.434 7.834 7.304
723.367 6.934 6.624 6.254 6.354 6.534 6.814 7.584 8.514 9.404 10.504
742.657 11.994 13.544 15.114 17.084 19.594 21.654 23.224 24.584 24.864 23.814
761.947 21.844 19.794 17.694 15.484 13.544 11.794 10.464 9.344 8.514 7.884
781.236 7.404 6.904 6.414 6.354 6.154 6.064 6.174 6.104 6.264 6.564
800.526 6.974 7.554 8.214 9.194 10.554 11.844 12.984 14.784 16.794 18.454
819.816 20.264 22.104 23.964 25.444 25.844 25.224 23.744 21.364 18.394 15.574
839.106 13.404 11.724 10.314 9.264 8.234 7.274 6.644 5.984 5.364 5.004
858.395 4.654 4.484 4.544 4.484 4.424 4.574 4.814 4.974 5.184 5.644
877.685 6.394 7.184 7.894 8.624 9.364 10.294 11.194 11.744 11.924 11.784
896.975 11.024 9.804 8.814 7.784 6.714 5.694 4.984 4.464 3.804 3.404
916.265 3.194 3.024 3.004 3.054 2.944 2.804 2.664 2.664 2.734 2.564
935.555 2.344 2.344 2.494 2.394 2.324 2.324 2.264 2.234 2.044 2.004
954.844 2.024 2.144 2.094 1.754 1.744 1.914 2.044 2.094 2.254 2.354
974.134 2.284 2.374 2.504 2.684 2.824 2.894 3.294 3.424 3.514 3.904
993.424 4.134 4.434 5.444 7.254 8.594 9.404 10.974 13.974 19.714 27.284
1012.714 31.334 31.054 27.814 19.974 11.454 6.754 4.874 4.064 3.994 4.464
1032.003 4.714 4.584 4.164 3.534 2.914 2.594 2.554 2.594 2.494 2.734
1051.293 3.174 3.344 3.394 3.334 3.334 3.494 3.924 4.194 4.604 4.854
1070.583 4.944 5.464 6.084 7.264 8.564 9.924 12.254 16.774 23.784 33.754
1089.873 47.134 60.194 67.784 68.254 61.914 49.954 36.824 26.624 20.544 17.134
1109.163 15.014 14.044 13.304 12.694 12.224 10.904 9.454 8.464 7.214 6.014
1128.452 4.844 4.084 3.784 3.424 3.284 3.174 2.664 2.404 2.624 2.354
1147.742 1.804 2.124 2.374 2.154 2.244 2.304 2.184 1.954 1.834 1.974
1167.032 1.924 1.564 1.464 1.804 2.064 2.294 2.754 3.144 3.464 4.114
1186.322 4.114 3.684 3.584 3.154 2.684 2.364 2.334 2.494 2.324 2.314
1205.611 2.564 2.614 2.554 2.934 3.224 3.544 3.924 3.874 3.804 3.884
1224.901 3.944 4.044 3.904 3.334 3.084 2.824 2.954 3.154 3.124 3.314
1244.191 3.274 3.654 4.354 4.744 5.024 5.204 5.134 4.614 3.964 3.644
1263.481 3.414 3.354 3.124 2.774 2.824 2.734 2.474 2.254 1.974 1.784
1282.771 1.824 1.694 1.544 1.574 1.694 1.924 1.954 1.904 1.964 2.014
1302.060 2.024 1.984 1.994 2.054 2.054 2.024 2.074 2.134 2.174 2.234
1321.350 2.264 2.354 2.524 2.704 2.904 3.154 3.364 3.454 3.434 3.424
1340.640 3.414 3.524 3.744 3.974 4.284 4.494 4.524 4.424 4.184 3.794
1359.930 3.434 3.084 2.764 2.624 2.564 2.514 2.504 2.434 2.434 2.504
1379.219 2.504 2.514 2.544 2.574 2.594 2.744 2.894 2.994 3.274 3.634
1398.509 4.154 4.794 5.374 5.824 5.984 5.894 5.614 5.064 4.454 3.944
1417.799 3.574 3.374 3.234 3.174 3.234 3.364 3.564 3.824 4.174 4.654
1437.089 5.254 6.064 6.934 7.874 8.744 9.294 9.604 9.604 9.414 8.934
1456.378 8.164 7.534 7.024 6.494 6.044 5.714 5.594 5.754 6.174 6.964
1475.668 8.274 10.204 12.944 16.894 22.274 29.174 37.094 44.564 50.324 53.224
1494.958 52.144 47.554 41.114 33.754 26.534 20.624 16.094 12.834 10.464 8.664
1514.248 7.314 6.214 5.304 4.554 4.044 3.674 3.344 3.134 2.984 2.824
1533.538 2.684 2.554 2.434 2.284 2.134 2.054 2.054 2.064 2.094 2.234
1552.827 2.294 2.334 2.444 2.544 2.714 2.964 3.274 3.594 3.974 4.514
1572.117 5.104 5.844 6.784 8.054 9.774 11.924 14.604 17.744 20.994 23.654
1591.407 24.824 24.114 21.744 18.344 14.584 11.384 9.164 7.634 6.564 5.614
1610.697 4.834 4.214 3.684 3.314 3.084 2.914 2.744 2.674 2.694 2.744
1629.986 2.744 2.734 2.764 2.714 2.754 2.784 2.724 2.664 2.554 2.464
1649.276 2.304 2.164 2.054 2.074 2.054 1.964 1.904 1.794 1.764 1.844
1668.566 1.874 1.894 1.854 1.714 1.574 1.384 1.1934 1.0259 0.9206 0.9305
1687.856 0.9395 1.0076 1.0272 1 0.9689 0.9145 0.9024 0.9294 0.9791 0.9757
1707.146 1.0368 1.1822 1.294 1.424 1.474 1.374 1.394 1.504 1.554 1.574
1726.435 1.634 1.704 1.774 1.804 1.834 1.964 2.004 1.964 1.964 1.954
1745.725 1.944 1.864 1.794 1.814 1.864 1.904 1.944 2.004 2.064 2.184
1765.015 2.334 2.464 2.754 2.954 3.084 3.154 3.064 2.954 2.894 2.924
1784.305 2.964 3.034 3.174 3.304 3.404 3.414 3.274 3.024 2.704 2.404
1803.594 2.204 2.034 1.884 1.804 1.734 1.694 1.624 1.504 1.394 1.314
1822.884 1.2362 1.1506 1.0413 0.9163 0.8597 0.8707 0.839 0.8327 0.8283 0.8529
1842.174 0.9039 0.8712 0.8562 0.837 0.9002 0.9946 1.0388 1.0895 1.128 1.188
1861.464 1.2167 1.2519 1.364 1.494 1.624 1.814 1.984 2.114 2.184 2.254
1880.754 2.354 2.404 2.604 2.834 2.954 3.114 3.264 3.254 3.174 3.004
1900.043 2.814 2.604 2.374 2.214 2.064 1.864 1.744 1.604 1.434 1.374
1919.333 1.374 1.344 1.324 1.374 1.414 1.454 1.474 1.514 1.534 1.574
1938.623 1.714 1.804 1.794 1.834 1.874 1.864 1.874 1.824 1.934 2.114
1957.913 2.184 2.254 2.214 2.054 1.864 1.534 1.1903 0.979 0.846 0.7457
1977.202 0.6783 0.6119 0.6028 0.6035 0.6151 0.6026 0.5736 0.5972 0.5978 0.5692
1996.492 0.5333 0.5427 0.5266 0.5246 0.533 0.4955 0.4944 0.5338 0.5666 0.5378
2015.782 0.4984 0.5291 0.5603 0.5686 0.6038 0.6158 0.6014 0.6134 0.566 0.5256
2035.072 0.5358 0.5277 0.4784 0.4634 0.4867 0.4483 0.4076 0.3609 0.4146 0.4399
2054.362 0.3767 0.3977 0.3823 0.3984 0.4641 0.4538 0.4011 0.4495 0.4699 0.4238
2073.651 0.431 0.4433 0.436 0.3924 0.3893 0.4174 0.4501 0.4499 0.3888 0.393
2092.941 0.33842 0.30855 0.3445 0.3998 0.4458 0.3654 0.3822 0.4774 0.4339 0.34447
2112.231 0.3688 0.411 0.3697 0.30732 0.27988 0.29894 0.3545 0.365 0.33351 0.33811
2131.521 0.30585 0.34955 0.3732 0.3626 0.4252 0.4253 0.3857 0.34168 0.31515 0.31001
2150.810 0.33347 0.30896 0.33143 0.3935 0.4108 0.4504 0.4066 0.4013 0.5028 0.5182
2170.100 0.5026 0.4932 0.4722 0.513 0.4958 0.526 0.5595 0.5521 0.5783 0.5479
2189.390 0.6386 0.6601 0.6799 0.7304 0.7652 0.8516 0.9858 1.1957 1.404 1.774
2208.680 2.374 3.104 3.874 4.624 5.204 5.364 5.074 4.424 3.544 2.674
2227.970 1.934 1.364 1.0988 0.9471 0.8539 0.8257 0.7273 0.7187 0.7377 0.6736
2247.259 0.6246 0.6166 0.6634 0.6826 0.6516 0.6077 0.5714 0.5841 0.6043 0.6053
2266.549 0.5561 0.5687 0.5786 0.5423 0.6067 0.6354 0.6009 0.5895 0.6425 0.6674
2285.839 0.6616 0.6779 0.7371 0.7103 0.6329 0.6601 0.7332 0.6902 0.5838 0.5754
2305.129 0.5986 0.6242 0.674 0.7069 0.6793 0.762 0.8635 0.8535 0.8377 0.8185
2324.418 0.7441 0.6298 0.534 0.5287 0.5835 0.5503 0.4989 0.5365 0.5476 0.5703
2343.708 0.6836 0.673 0.6753 0.7023 0.6542 0.6209 0.5781 0.5101 0.433 0.4802
2362.998 0.5537 0.466 0.403 0.4921 0.4822 0.4119 0.3886 0.3807 0.4365 0.4684
2382.288 0.452 0.5496 0.6222 0.5738 0.5276 0.4401 0.373 0.3857 0.3864 0.4003
2401.578 0.5047 0.4761 0.3778 0.4714 0.566 0.5399 0.4896 0.4667 0.4881 0.4918
2420.867 0.5004 0.4895 0.5004 0.5467 0.5249 0.5244 0.6018 0.6436 0.5754 0.5525
2440.157 0.5603 0.5593 0.534 0.5183 0.532 0.5654 0.5492 0.476 0.5126 0.4994
2459.447 0.4397 0.4242 0.4819 0.455 0.34996 0.3241 0.34774 0.3987 0.4085 0.4103
2478.737 0.4696 0.4537 0.32233 0.2901 0.4 0.4596 0.4902 0.5244 0.504 0.4899
2498.026 0.4738 0.5152 0.5102 0.4235 0.4123 0.4926 0.5655 0.5381 0.5144 0.5638
2517.316 0.6563 0.6224 0.5362 0.5204 0.5741 0.7381 0.7297 0.6856 0.7211 0.6749
2536.606 0.6873 0.7783 0.8102 0.7542 0.7577 0.763 0.7654 0.7696 0.7615 0.763
2555.896 0.6541 0.5755 0.5364 0.5622 0.6135 0.6311 0.593 0.5954 0.5796 0.5582
2575.186 0.5608 0.5555 0.6443 0.7299 0.7691 0.7987 0.8018 0.8123 0.8535 0.8291
2594.475 0.8873 0.885 0.8312 0.8083 0.758 0.6982 0.6211 0.6223 0.5654 0.4637
2613.765 0.4321 0.3861 0.4006 0.4491 0.4154 0.3801 0.29414 0.24566 0.30155 0.3949
2633.055 0.3861 0.4101 0.4982 0.4166 0.34879 0.4011 0.4303 0.3762 0.30579 0.2402
2652.345 0.2811 0.32871 0.4012 0.4413 0.3741 0.432 0.4487 0.32028 0.33504 0.4333
2671.634 0.4212 0.5197 0.5029 0.33732 0.32941 0.33013 0.4002 0.4162 0.3869 0.4564
2690.924 0.3982 0.3967 0.3802 0.2969 0.3876 0.4433 0.4022 0.34702 0.32015 0.27979
2710.214 0.32428 0.3573 0.263885 0.24445 0.25115 0.28822 0.34284 0.3259 0.26725 0.2248
2729.504 0.30556 0.3994 0.3571 0.374 0.3604 0.2208 0.25638 0.34213 0.3886 0.3919
2748.794 0.31363 0.33668 0.3912 0.30158 0.33301 0.4822 0.4444 0.3934 0.4589 0.4388
2768.083 0.4525 0.443 0.4324 0.5159 0.4414 0.4912 0.6401 0.6371 0.5031 0.3926
2787.373 0.4276 0.4349 0.4177 0.3796 0.4 0.31927 0.26547 0.4199 0.421 0.3925
2806.663 0.33114 0.33079 0.4297 0.4693 0.5014 0.5091 0.4772 0.4095 0.4066 0.4587
2825.953 0.5221 0.5616 0.5369 0.641 0.7381 0.7964 0.788 0.7164 0.776 0.802
2845.242 0.7819 0.8154 0.7754 0.7353 0.7521 0.6633 0.556 0.5443 0.5416 0.4981
2864.532 0.5108 0.5608 0.5904 0.5492 0.464 0.5502 0.5361 0.4639 0.4956 0.5387
2883.822 0.6117 0.5953 0.5838 0.5321 0.5093 0.6121 0.7237 0.7448 0.7116 0.6731
2903.112 0.6384 0.6379 0.5841 0.5582 0.6156 0.6085 0.5948 0.5404 0.5247 0.6645
2922.401 0.7186 0.6892 0.7443 0.8111 0.932 0.9873 0.91 0.9525 0.9849 0.8598
2941.691 0.7712 0.7955 0.7911 0.7105 0.7141 0.8103 0.8775 0.889 0.8137 0.7596
2960.981 0.7304 0.7456 0.748 0.7691 0.8139 0.8761 0.9463 1.0194 1.0386 0.9923
2980.271 1.1017 1.153 1.1654 1.2321 1.1625 1.0721 1.0803 1.1658 1.414 1.674
2999.561 1.654 1.664 1.864 1.994 2.294 2.584 2.784 3.184 3.714 4.344
3018.850 5.134 6.104 7.174 8.484 10.064 11.774 13.624 15.184 16.264 16.804
3038.140 16.314 14.854 13.174 11.514 9.894 8.754 8.154 7.744 7.664 7.904
3057.430 8.334 9.024 10.094 11.574 13.534 16.094 18.924 21.474 22.684 22.104
3076.720 20.214 17.534 14.994 13.294 12.444 12.054 11.734 11.454 11.134 10.604
3096.009 10.034 9.524 8.804 8.114 7.364 6.644 6.064 5.364 4.654 3.964
3115.299 3.354 2.954 2.444 1.944 1.794 1.654 1.544 1.464 1.294 1.2149
3134.589 1.1991 1.0224 0.9055 1.0551 1.0961 1.0544 1.0903 0.9374 0.842 0.8934
3153.879 0.8362 0.7578 0.7023 0.7417 0.7065 0.6757 0.8127 0.7909 0.6599 0.6125
3173.169 0.6183 0.6477 0.7118 0.6955 0.6235 0.569 0.5906 0.5998 0.5977 0.6151
3192.458 0.6254 0.5823 0.4797 0.5663 0.5681 0.4336 0.3935 0.30848 0.34501 0.3805
3211.748 0.27106 0.2265 0.31218 0.34463 0.33502 0.3769 0.4175 0.4586 0.4575 0.519
3231.038 0.5229 0.571 0.5477 0.33965 0.26146 0.31703 0.27967 0.112 0.2351 0.3964
3250.328 0.24683 0.2325 0.137 0.079 0.146 0.077 0.124 0.145 0.088 0.2366
3269.617 0.3674 0.28281 0.17 0.209 0.27273 0.2235 0.27256 0.2438 0.084 0.132
3288.907 0.1741 0.12 0.117 0.107 0.2194 0.3088 0.248 0.147 0.2342 0.2152
3308.197 0.068 0.068 0 0.014 0.14 0.179 0.103 0.126 0.29318 0.3702
3327.487 0.24953 0.2415 0.3483 0.34702 0.25191 0.203 0.28523 0.2776 0.1887 0.28111
3346.777 0.3592 0.27369 0.137 0.109 0.28737 0.33988 0.34054 0.3591 0.3085 0.2116
3366.066 0.27728 0.3988 0.257975 0.149 0.063 0.056 0.099 0.065 0.089 0.087
3385.356 0.084 0.021 0.022 0.086 0.107 0.083 0.046 0.053 0.111 0.146
3404.646 0.145 0.24498 0.397 0.32914 0.29232 0.3819 0.28939 0.161 0.1737 0.32042
3423.936 0.26945 0.114 0.2024 0.2262 0.1846 0.28699 0.261291 0.2087 0.2163 0.1603
3443.225 0.2063 0.34366 0.33471 0.29266 0.32524 0.28869 0.28619 0.3547 0.33717 0.1858
3462.515 0.121 0.1856 0.1756 0.2435 0.4008 0.4121 0.29226 0.1762 0.25078 0.3558
3481.805 0.30913 0.4417 0.5448 0.5086 0.4569 0.3648 0.27257 0.126 0.30046 0.3828
3501.095 0.034 0.105 0.175 0.056 0.112 0.2009 0.28799 0.26314 0.192 0.2372
3520.385 0.27014 0.1594 0.074 0.064 0.2021 0.34987 0.28799 0.123 0.28713 0.4517
3539.674 0.4827 0.4959 0.2373 0.096 0.103 0.077 0.134 0.2766 0.33076 0.3922
3558.964 0.4258 0.4573 0.4119 0.2303 0.031 0.099 0.29102 0.19 0.143 0.2295
3578.254 0.261555 0.3098 0.28688 0.24595 0.4323 0.5203 0.4611 0.4031 0.2133 0.08
3597.544 0.118 0.24403 0.29587 0.1965 0.1926 0.26767 0.095 0.069 0.2214 0.2173
3616.833 0.3562 0.3571 0.1679 0.2095 0.30309 0.3634 0.27146 0.121 0.260986 0.3736
3636.123 0.3589 0.4479 0.3682 0.3549 0.509 0.4193 0.27623 0.26636 0.33486 0.3883
3655.413 0.4757 0.4476 0.3846 0.3583 0.31154 0.34716 0.463 0.5119 0.3554 0.29508
3674.703 0.3563 0.3636 0.33067 0.31429 0.3548 0.31854 0.33912 0.32253 0.3304 0.28893
3693.993 0.28795 0.4961 0.3632 0.1812 0.35039 0.5462 0.6217 0.5901 0.5437 0.6248
3713.282 0.6323 0.5188 0.4566 0.33815 0.3835 0.4177 0.3732 0.3939 0.3283 0.367
3732.572 0.4519 0.32752 0.1693 0.3321 0.4352 0.1564 0.015 0.1707 0.2143 0.1983
3751.862 0.1948 0.30687 0.32691 0.4082 0.4819 0.3832 0.32628 0.30511 0.28583 0.2001
3771.152 0.256819 0.28412 0.24502 0.30789 0.2069 0.262658 0.33549 0.2413 0.4119 0.5224
3790.441 0.5121 0.4435 0.3566 0.31505 0.257469 0.2025 0.27493 0.4706 0.5112 0.4005
3809.731 0.4566 0.4681 0.3841 0.30321 0.2669 0.4172 0.5391 0.5618 0.4293 0.32337
3829.021 0.31882 0.33066 0.259693 0.129 0.1998 0.3706 0.35275 0.24653 0.31383 0.4214
3848.311 0.4864 0.4203 0.26588 0.2386 0.25157 0.2712 0.2079 0.2025 0.1917 0.31187
3867.601 0.5221 0.3778 0.2442 0.2102 0.106 0.045 0.263292 0.4066 0.34633 0.34302
3886.890 0.258798 0.3979 0.4217 0.3155 0.3994 0.255949 0.179 0.3926 0.4168 0.32355
3906.180 0.32515 0.26957 0.3683 0.4464 0.4027 0.4855 0.4677 0.29773 0.30748 0.442
3925.470 0.4952 0.4754 0.398 0.3783 0.34886 0.29746 0.30618 0.2489 0.33545 0.4044
3944.760 0.27171 0.2074 0.115 0.1707 0.34249 0.24816 0.1808 0.261301 0.3118 0.4135
3964.049 0.4325 0.2993 0.1776 0.1899 0.262156 0.34836 0.4034 0.3687 0.1843 0.1805
3983.339 0.224 0.24661 0.33378 0.24859 0.2034 0.24992 0.3808 0.33289 0.32727 0.4001
##END=
