##TITLE=3-Methylbenzyl isothiocyanate
##JCAMP-DX=4.24
##DATA TYPE=INFRARED SPECTRUM
##ORIGIN=EPA-IR VAPOR PHASE LIBRARY
##OWNER=SRD/NIST
Collection (C) 2018 copyright by the U.S. Secretary of Commerce
on behalf of the United States of America. All rights reserved.
##CAS REGISTRY NO=3696-66-0
##MOLFORM=C 9 H 9 N S
##$NIST SOURCE=MSDC-IR
##STATE=gas
##XUNITS=1/CM
##YUNITS=ABSORBANCE
##XFACTOR=1.
##YFACTOR=0.001
##DELTAX=1.92898
##FIRSTX=549.8
##LASTX=4000.7
##FIRSTY=10.109
##MAXX=4000.7
##MINX=549.759
##MAXY=0.323469
##MINY=0
##NPOINTS=1790
##XYDATA=(X++(Y..Y))
549.759 10.109 10.059 9.799 9.919 10.049 9.899 10.279 10.279 10.139 10.379
569.049 10.389 10.349 10.129 9.949 9.809 9.599 9.289 8.859 8.629 8.409
588.339 8.229 8.359 8.369 8.349 8.579 8.699 8.649 8.589 8.259 7.959
607.628 7.819 7.259 6.689 6.589 6.359 6.089 5.989 6.009 6.049 5.699
626.918 5.329 5.129 4.859 4.709 4.579 4.199 4.009 3.909 3.729 3.409
646.208 3.299 3.529 3.659 3.509 3.249 3.209 3.209 3.359 3.659 3.849
665.498 3.919 4.129 4.629 5.199 5.849 6.699 7.649 8.569 9.529 10.749
684.787 12.089 13.329 14.639 16.069 17.529 19.049 20.759 22.779 24.789 26.459
704.077 28.019 29.229 30.179 30.839 31.029 31.029 30.709 30.149 29.409 28.639
723.367 27.819 27.169 26.589 25.789 24.869 23.849 22.859 21.819 20.879 20.009
742.657 19.289 18.799 18.289 17.689 16.989 16.559 16.239 15.939 15.889 15.979
761.947 15.829 15.609 15.659 15.499 15.119 14.789 14.439 13.879 13.369 12.799
781.236 11.919 11.219 10.529 9.579 8.639 7.659 6.829 6.079 5.229 4.539
800.526 4.069 3.369 2.839 2.599 2.269 1.979 1.799 1.719 1.569 1.479
819.816 1.3615 1.2584 1.1939 1.1906 1.0811 0.8594 0.7548 0.7291 0.836 0.9436
839.106 0.9147 0.9465 1.1129 1.1464 1.1959 1.3794 1.449 1.3504 1.459 1.649
858.395 1.859 2.159 2.419 2.749 3.009 3.189 3.579 3.929 4.129 4.259
877.685 4.179 4.119 4.139 3.909 3.789 3.849 3.729 3.509 3.409 3.479
896.975 3.319 3.179 3.129 3.029 3.039 3.059 3.049 2.989 2.799 2.549
916.265 2.519 2.679 2.909 2.909 2.899 2.899 2.789 2.699 2.659 2.729
935.555 2.879 2.929 2.769 2.659 2.709 2.699 2.689 2.719 2.659 2.639
954.844 2.619 2.579 2.459 2.439 2.499 2.429 2.339 2.149 2.169 2.419
974.134 2.409 2.219 2.269 2.469 2.419 2.439 2.579 2.539 2.679 2.929
993.424 2.819 2.899 3.249 3.129 2.749 2.479 2.579 2.539 2.589 2.699
1012.714 2.469 2.399 2.239 2.129 2.339 2.499 2.589 2.809 2.819 2.729
1032.003 2.849 2.909 2.899 2.729 2.809 3.109 3.329 3.209 3.309 3.549
1051.293 3.199 2.999 2.979 2.959 2.859 2.899 3.139 3.069 2.769 2.809
1070.583 2.819 2.779 2.799 2.729 2.819 3.249 3.609 3.739 3.619 3.779
1089.873 4.269 4.409 4.749 4.789 4.699 4.669 4.569 4.329 4.089 3.929
1109.163 3.569 3.719 3.859 3.429 3.359 3.469 3.389 2.979 2.729 2.709
1128.452 2.529 2.709 3.109 3.119 3.069 3.259 3.399 3.659 3.809 3.979
1147.742 4.149 4.179 4.399 4.699 4.829 4.959 5.329 5.199 4.959 4.909
1167.032 4.679 4.719 4.899 4.719 4.269 3.949 3.729 3.309 3.199 3.319
1186.322 3.159 2.949 3.069 3.159 3.099 3.129 2.959 2.739 2.739 3.099
1205.611 3.119 3.019 3.189 3.139 3.159 3.429 3.419 3.719 4.459 4.409
1224.901 4.559 5.109 5.139 5.119 5.339 5.559 5.709 5.719 5.789 6.029
1244.191 6.089 6.079 6.009 5.979 6.019 5.989 5.829 5.679 5.829 5.939
1263.481 5.899 6.059 6.219 6.419 6.689 7.079 7.399 7.909 8.599 9.339
1282.771 10.079 10.679 11.339 12.139 12.869 13.629 14.519 15.339 16.109 16.829
1302.060 17.429 18.049 18.649 19.199 19.849 20.509 21.289 22.229 23.539 25.349
1321.350 27.689 30.809 34.949 40.489 47.609 56.099 64.919 71.949 75.129 74.569
1340.640 71.729 67.169 60.529 51.549 41.429 32.299 25.279 20.349 17.199 15.209
1359.930 13.889 13.019 12.369 11.739 11.149 10.599 10.109 9.619 9.169 8.839
1379.219 8.489 8.109 7.829 7.639 7.409 7.159 6.909 6.569 6.279 6.109
1398.509 5.959 5.839 5.839 5.869 5.929 6.049 6.249 6.569 6.989 7.429
1417.799 7.869 8.469 9.219 9.949 10.789 11.729 12.689 13.749 14.929 16.179
1437.089 17.649 19.309 21.179 23.399 25.899 28.239 29.999 30.909 30.869 30.189
1456.378 28.669 25.909 22.029 17.799 14.359 12.079 10.849 10.169 9.829 9.759
1475.668 9.799 9.929 10.249 10.729 11.249 11.789 12.209 12.459 12.569 12.459
1494.958 12.159 11.649 10.929 10.139 9.239 8.319 7.589 6.939 6.429 6.079
1514.248 5.819 5.629 5.479 5.419 5.259 5.079 5.029 4.959 4.839 4.679
1533.538 4.519 4.429 4.279 4.119 4.019 3.819 3.619 3.459 3.339 3.279
1552.827 3.239 3.249 3.239 3.259 3.279 3.269 3.289 3.399 3.529 3.719
1572.117 3.939 4.139 4.379 4.629 4.939 5.299 5.659 6.099 6.529 6.999
1591.407 7.569 8.249 9.059 10.059 11.179 12.289 13.489 14.689 15.529 15.879
1610.697 15.809 15.169 14.029 12.569 10.839 9.009 7.369 5.919 4.819 3.979
1629.986 3.319 2.919 2.649 2.529 2.379 2.169 2.029 1.989 1.929 1.869
1649.276 1.829 1.769 1.799 1.869 1.879 1.859 1.819 1.849 1.959 1.969
1668.566 1.939 1.939 1.899 1.889 1.849 1.829 1.879 1.849 1.829 1.809
1687.856 1.769 1.759 1.759 1.749 1.769 1.729 1.639 1.669 1.689 1.619
1707.146 1.619 1.589 1.549 1.549 1.559 1.619 1.679 1.709 1.729 1.719
1726.435 1.759 1.849 1.919 1.989 2.029 2.099 2.169 2.219 2.329 2.399
1745.725 2.389 2.409 2.449 2.429 2.379 2.339 2.299 2.289 2.299 2.279
1765.015 2.279 2.279 2.279 2.299 2.299 2.269 2.239 2.239 2.229 2.199
1784.305 2.099 1.999 2.039 2.059 2.019 1.979 1.949 1.889 1.829 1.799
1803.594 1.759 1.779 1.789 1.799 1.789 1.729 1.789 1.899 1.949 1.929
1822.884 1.919 2.019 2.099 2.189 2.319 2.389 2.489 2.669 2.859 2.999
1842.174 3.139 3.269 3.409 3.569 3.669 3.739 3.849 4.029 4.129 4.149
1861.464 4.229 4.309 4.349 4.359 4.369 4.409 4.419 4.469 4.529 4.579
1880.754 4.729 4.829 4.939 5.119 5.279 5.429 5.609 5.809 6.049 6.369
1900.043 6.649 6.929 7.249 7.529 7.839 8.189 8.559 8.949 9.389 9.879
1919.333 10.389 10.929 11.499 12.059 12.609 13.259 13.979 14.679 15.349 15.979
1938.623 16.639 17.399 18.159 18.999 19.889 20.779 21.789 22.929 24.139 25.499
1957.913 26.939 28.469 30.199 32.029 34.009 36.199 38.589 41.099 43.789 46.659
1977.202 49.699 53.039 56.649 60.409 64.419 68.689 73.209 78.179 83.479 88.959
1996.492 94.799 101.009 107.539 114.399 121.659 129.239 137.149 145.409 153.949 162.679
2015.782 171.749 181.069 190.509 200.159 209.729 219.209 228.659 238.009 247.199 256.079
2035.072 264.609 272.839 280.679 288.069 294.839 300.999 306.669 311.429 315.489 318.889
2054.362 321.299 322.939 323.469 322.839 321.199 318.439 314.539 309.419 302.989 295.739
2073.651 287.839 278.799 268.769 257.769 245.729 232.799 219.109 204.969 190.879 177.139
2092.941 163.939 151.519 139.919 129.189 119.269 110.129 101.849 94.359 87.529 81.319
2112.231 75.689 70.669 66.209 62.209 58.669 55.519 52.659 50.179 48.089 46.219
2131.521 44.669 43.449 42.409 41.539 40.859 40.429 40.179 39.929 39.809 39.899
2150.810 40.049 40.369 40.889 41.499 42.409 43.459 44.629 46.039 47.529 49.199
2170.100 50.969 52.739 54.489 56.079 57.449 58.329 58.719 58.739 58.069 56.839
2189.390 55.289 53.469 51.449 49.239 47.029 44.819 42.649 40.499 38.459 36.539
2208.680 34.699 32.929 31.199 29.589 28.029 26.459 24.929 23.389 22.059 20.849
2227.970 19.509 18.259 17.229 16.189 15.239 14.379 13.589 12.929 12.299 11.779
2247.259 11.279 10.689 10.239 9.959 9.649 9.309 8.969 8.659 8.369 8.019
2266.549 7.719 7.499 7.259 6.969 6.699 6.419 6.209 5.989 5.769 5.599
2285.839 5.409 5.209 5.019 4.929 4.859 4.709 4.589 4.469 4.339 4.229
2305.129 4.119 4.099 4.089 4.029 4.009 3.919 3.839 3.789 3.649 3.549
2324.418 3.489 3.399 3.319 3.279 3.179 3.109 3.049 2.949 2.779 2.639
2343.708 2.629 2.599 2.539 2.469 2.479 2.449 2.379 2.349 2.229 2.109
2362.998 2.099 2.109 2.139 2.079 1.969 1.919 1.909 1.909 1.899 1.879
2382.288 1.799 1.809 1.819 1.759 1.759 1.809 1.809 1.779 1.719 1.579
2401.578 1.529 1.579 1.579 1.539 1.559 1.579 1.539 1.499 1.499 1.509
2420.867 1.449 1.3985 1.429 1.479 1.469 1.4043 1.429 1.439 1.3996 1.419
2440.157 1.489 1.489 1.469 1.469 1.539 1.599 1.569 1.579 1.539 1.529
2459.447 1.599 1.609 1.649 1.699 1.659 1.659 1.719 1.709 1.759 1.799
2478.737 1.769 1.839 1.819 1.799 1.819 1.819 1.819 1.779 1.789 1.819
2498.026 1.809 1.819 1.899 1.929 1.899 1.929 1.899 1.889 1.899 1.849
2517.316 1.819 1.769 1.729 1.769 1.809 1.839 1.749 1.729 1.759 1.679
2536.606 1.729 1.819 1.759 1.679 1.719 1.739 1.789 1.869 1.869 1.879
2555.896 1.829 1.839 1.869 1.929 1.979 1.969 1.989 1.979 1.949 1.919
2575.186 1.939 1.949 1.929 1.939 1.909 1.839 1.809 1.729 1.679 1.659
2594.475 1.669 1.669 1.659 1.609 1.539 1.569 1.569 1.479 1.449 1.4048
2613.765 1.2937 1.384 1.449 1.3617 1.4086 1.499 1.469 1.3926 1.3941 1.429
2633.055 1.459 1.539 1.589 1.609 1.629 1.609 1.659 1.749 1.739 1.709
2652.345 1.679 1.659 1.689 1.739 1.849 1.939 1.979 2.019 1.959 1.929
2671.634 1.939 1.909 1.949 1.909 1.939 2.029 1.949 1.829 1.869 1.959
2690.924 1.979 2.039 2.049 2.109 2.219 2.289 2.349 2.339 2.349 2.429
2710.214 2.469 2.499 2.549 2.669 2.719 2.759 2.879 2.939 3.029 3.139
2729.504 3.319 3.499 3.619 3.679 3.689 3.829 3.979 4.149 4.239 4.179
2748.794 4.239 4.239 4.149 4.149 4.189 4.139 4.129 4.169 4.119 4.069
2768.083 4.149 4.129 4.189 4.249 4.179 4.259 4.319 4.359 4.409 4.329
2787.373 4.259 4.319 4.409 4.419 4.299 4.189 4.239 4.139 3.949 3.919
2806.663 3.859 3.769 3.709 3.689 3.619 3.539 3.519 3.529 3.439 3.459
2825.953 3.599 3.629 3.729 3.829 3.849 3.839 3.859 3.989 4.179 4.359
2845.242 4.499 4.689 5.159 5.639 5.939 6.429 7.059 7.709 8.389 9.239
2864.532 10.099 10.939 11.809 12.509 12.979 13.519 14.099 14.389 14.499 14.559
2883.822 14.539 14.399 14.159 13.889 13.589 13.219 12.959 12.699 12.439 12.349
2903.112 12.469 12.569 12.719 13.099 13.539 14.139 15.069 16.349 17.779 19.179
2922.401 20.819 22.619 24.149 25.509 26.659 27.509 28.029 28.159 27.879 27.299
2941.691 26.479 25.379 24.249 23.119 21.969 20.919 19.989 18.959 17.879 16.759
2960.981 15.649 14.349 13.159 12.189 11.129 10.219 9.369 8.739 8.229 7.699
2980.271 7.319 7.209 7.209 7.269 7.459 7.599 7.749 7.989 8.189 8.369
2999.561 8.739 9.229 9.679 10.309 11.009 11.659 12.379 13.129 14.039 14.929
3018.850 15.769 16.779 17.799 18.939 20.069 20.939 21.649 22.259 22.689 22.719
3038.140 22.289 21.509 20.659 19.899 19.039 18.219 17.509 16.999 16.799 16.769
3057.430 16.789 16.819 16.889 16.759 16.319 15.889 15.399 14.659 13.669 12.629
3076.720 11.529 10.369 9.389 8.519 7.739 6.949 6.289 5.729 5.349 5.139
3096.009 4.859 4.649 4.519 4.339 4.109 4.049 4.009 3.809 3.619 3.279
3115.299 2.909 2.699 2.539 2.329 2.129 1.989 1.769 1.549 1.3062 1.176
3134.589 1.177 1.066 0.8281 0.7446 0.7652 0.6211 0.6643 0.7868 0.7556 0.6934
3153.879 0.5764 0.5635 0.5542 0.44265 0.50074 0.5696 0.47174 0.5153 0.5337 0.5297
3173.169 0.48194 0.42056 0.410298 0.306 0.3857 0.49672 0.43718 0.3528 0.395 0.49781
3192.458 0.49755 0.42615 0.42342 0.3649 0.236 0.231 0.247 0.3847 0.3609 0.189
3211.748 0.254 0.351 0.3101 0.254 0.254 0.21 0.199 0.194 0.233 0.267
3231.038 0.246 0.201 0.267 0.3461 0.161 0.126 0.3 0.282 0.171 0.148
3250.328 0.127 0.144 0.243 0.286 0.3604 0.3588 0.252 0.183 0.109 0.218
3269.617 0.221 0.12 0.235 0.3453 0.284 0.093 0.043 0.142 0.187 0.132
3288.907 0.146 0.204 0.119 0.041 0.107 0.224 0.309 0.232 0.173 0.23
3308.197 0.143 0.008 0.051 0.22 0.294 0.125 0.02 0.191 0.273 0.276
3327.487 0.238 0.176 0.175 0.132 0.166 0.288 0.3112 0.298 0.3 0.28
3346.777 0.3538 0.3528 0.22 0.124 0.142 0.259 0.3377 0.3407 0.242 0.077
3366.066 0 0.001 0.046 0.073 0.082 0.105 0.186 0.275 0.25 0.279
3385.356 0.43787 0.46232 0.3117 0.239 0.199 0.274 0.39993 0.3289 0.261 0.3092
3404.646 0.273 0.252 0.3256 0.3829 0.294 0.266 0.274 0.266 0.3432 0.386
3423.936 0.3262 0.3139 0.3776 0.3934 0.41996 0.224 0.251 0.413094 0.284 0.219
3443.225 0.3728 0.46238 0.3973 0.3233 0.288 0.42034 0.50562 0.44836 0.3551 0.3386
3462.515 0.281 0.184 0.281 0.418356 0.48028 0.47554 0.47202 0.5428 0.5295 0.215
3481.805 0.066 0.222 0.221 0.208 0.161 0.136 0.136 0.177 0.285 0.295
3501.095 0.271 0.266 0.234 0.169 0.27 0.291 0.27 0.3632 0.3968 0.3716
3520.385 0.256 0.16 0.15 0.277 0.333 0.277 0.3629 0.3472 0.3285 0.295
3539.674 0.203 0.173 0.141 0.242 0.28 0.249 0.189 0.102 0.212 0.3214
3558.964 0.3554 0.296 0.3696 0.48012 0.3407 0.213 0.228 0.261 0.279 0.303
3578.254 0.364 0.412918 0.304 0.3197 0.409907 0.3277 0.186 0.198 0.224 0.254
3597.544 0.3196 0.43365 0.46719 0.3091 0.265 0.224 0.28 0.40432 0.255 0.214
3616.833 0.389 0.410746 0.308 0.21 0.246 0.3524 0.3847 0.286 0.289 0.3384
3636.123 0.3223 0.3482 0.3562 0.3375 0.257 0.235 0.3541 0.3874 0.268 0.257
3655.413 0.21 0.201 0.29 0.269 0.118 0.186 0.298 0.266 0.258 0.212
3674.703 0.3231 0.281 0.212 0.3461 0.42204 0.326 0.3251 0.379 0.28 0.3094
3693.993 0.45616 0.3801 0.263 0.3556 0.3876 0.43181 0.3459 0.175 0.168 0.288
3713.282 0.336 0.3539 0.297 0.185 0.236 0.271 0.279 0.249 0.3213 0.42679
3732.572 0.48763 0.5095 0.411584 0.47557 0.48285 0.3534 0.409772 0.48071 0.3334 0.222
3751.862 0.253 0.3204 0.5208 0.5448 0.5565 0.5845 0.5718 0.521 0.418183 0.3868
3771.152 0.48903 0.6099 0.5622 0.46419 0.5222 0.5895 0.5149 0.5109 0.5454 0.5755
3790.441 0.5167 0.362 0.299 0.417615 0.43292 0.3347 0.295 0.42141 0.43842 0.413453
3809.731 0.48363 0.46978 0.5166 0.5288 0.47289 0.3526 0.282 0.3915 0.5172 0.3627
3829.021 0.186 0.242 0.224 0.3214 0.43077 0.3 0.275 0.3194 0.3445 0.306
3848.311 0.307 0.552 0.5823 0.48416 0.6011 0.5845 0.50335 0.50852 0.412053 0.3259
3867.601 0.415656 0.5185 0.47447 0.44636 0.43758 0.5244 0.6797 0.5997 0.5975 0.6575
3886.890 0.6082 0.776 0.8234 0.7724 0.7655 0.6545 0.7676 0.795 0.7719 0.6949
3906.180 0.6541 0.6953 0.6692 0.7301 0.8126 0.8392 0.7499 0.7459 0.7563 0.7547
3925.470 0.7704 0.9352 1.0517 0.9661 0.8895 0.9757 1.1515 1.0701 0.9719 1.0392
3944.760 1.0237 0.9141 0.9922 1.0256 0.9305 1.0602 1.1212 1.1758 1.0908 0.9919
3964.049 1.1834 1.3104 1.3513 1.2803 1.2258 1.1476 1.1386 1.3059 1.2927 1.2444
3983.339 1.2194 1.1306 1.1565 1.2301 1.2861 1.3061 1.3052 1.2272 1.1629 1.3546
##END=
