##TITLE=1-(2-Hydroxyethyl)-2-imidazolidinone
##JCAMP-DX=4.24
##DATA TYPE=INFRARED SPECTRUM
##ORIGIN=EPA-IR VAPOR PHASE LIBRARY
##OWNER=SRD/NIST
Collection (C) 2018 copyright by the U.S. Secretary of Commerce
on behalf of the United States of America. All rights reserved.
##CAS REGISTRY NO=3699-54-5
##MOLFORM=C 5 H 10 N 2 O 2
##$NIST SOURCE=MSDC-IR
##STATE=gas
##XUNITS=1/CM
##YUNITS=ABSORBANCE
##XFACTOR=1.
##YFACTOR=0.001
##DELTAX=1.92898
##FIRSTX=549.8
##LASTX=4000.7
##FIRSTY=7.04
##MAXX=4000.7
##MINX=549.759
##MAXY=0.16537
##MINY=0.000303
##NPOINTS=1790
##XYDATA=(X++(Y..Y))
549.759 7.04 7.23 7.24 7.06 6.91 6.82 6.93 7.3 7.34 7.03
569.049 6.89 6.85 6.99 7.11 7.21 7.02 6.95 7.11 7.01 6.77
588.339 6.72 6.73 6.63 6.68 6.64 6.51 6.51 6.68 6.63 6.42
607.628 6.33 6.42 6.53 6.48 6.37 6.32 6.27 5.98 5.99 5.98
626.918 5.78 5.76 5.72 5.54 5.31 5.19 5.2 5.14 4.92 4.85
646.208 4.88 4.74 4.64 4.61 4.48 4.5 4.51 4.37 4.29 4.19
665.498 4.01 3.83 3.71 3.67 3.44 3.19 3.15 3.14 3.23 3.28
684.787 3.22 3.32 3.52 3.69 3.98 4.23 4.43 4.7 5.05 5.4
704.077 5.82 6.2 6.41 6.56 6.81 7.17 7.4 7.38 7.23 7.16
723.367 7.11 7.07 6.98 6.8 6.65 6.6 6.52 6.55 6.68 6.83
742.657 7.03 7.24 7.5 7.83 8.24 8.74 9.31 9.58 9.64 9.8
761.947 9.86 9.88 9.93 9.66 9.3 9.06 8.86 8.48 7.96 7.43
781.236 6.99 6.6 6.09 5.86 5.62 5.26 5.07 4.83 4.63 4.65
800.526 4.54 4.23 4.06 3.92 3.91 3.9 3.84 3.76 3.77 3.83
819.816 3.72 3.66 3.65 3.81 3.72 3.63 3.8 3.78 3.89 3.99
839.106 4.02 4.16 4.44 4.51 4.57 4.74 4.75 4.87 5.05 5.19
858.395 5.19 5.16 5.27 5.29 5.2 4.99 4.82 4.68 4.62 4.61
877.685 4.52 4.48 4.56 4.65 4.52 4.39 4.4 4.48 4.56 4.36
896.975 4.34 4.51 4.35 4.25 4.24 4.28 4.34 4.36 4.41 4.35
916.265 4.35 4.44 4.47 4.55 4.74 4.93 4.99 5.14 5.32 5.35
935.555 5.44 5.56 5.68 5.79 5.9 5.97 6.01 5.87 5.69 5.75
954.844 5.81 5.79 5.59 5.53 5.58 5.32 5.08 5.01 4.89 4.71
974.134 4.66 4.7 4.64 4.69 4.85 4.84 4.83 5 5.3 5.64
993.424 5.94 6.1 6.21 6.53 7.01 7.52 8.07 8.57 9.11 9.83
1012.714 10.49 11.08 11.84 12.57 13.09 13.64 14.23 14.75 15.51 16.33
1032.003 17.15 18.13 18.97 19.83 20.65 21.28 22.1 23.03 23.99 24.64
1051.293 25.4 26.39 27.02 27.76 28.42 29.04 29.58 29.91 30.05 29.88
1070.583 29.59 29.22 28.49 27.54 26.2 24.74 22.92 21.02 19.47 18.09
1089.873 16.69 15.29 13.99 12.59 11.28 10.37 9.8 9.08 8.81 8.44
1109.163 7.88 7.78 7.64 7.05 7.12 7.71 7.39 7.08 6.81 6.47
1128.452 6.36 6.21 6.27 6.17 5.93 6 6.19 6.11 5.94 5.86
1147.742 5.59 5.67 6.06 6.35 6.36 6.12 6.28 6.45 6.67 6.96
1167.032 7.04 7.21 7.32 7.43 7.74 8.08 8.41 8.64 8.73 8.91
1186.322 9.36 9.82 9.94 10.03 10.19 10.44 10.87 11.2 11.5 11.74
1205.611 12.19 12.64 12.85 13.29 13.94 14.59 15.07 15.47 16.22 17.24
1224.901 17.93 18.53 19.34 20.27 20.87 21.63 22.34 22.85 23.65 24.62
1244.191 25.73 26.98 28.59 30.43 32.59 35.16 38.02 40.99 44.02 47
1263.481 49.45 51.24 52.37 52.74 52.49 51.51 49.45 46.8 43.67 39.91
1282.771 35.93 31.86 28.13 24.92 22.29 20.3 18.73 17.52 16.69 16.14
1302.060 15.76 15.46 15.16 14.97 14.72 14.42 14.03 13.67 13.35 12.96
1321.350 12.5 11.95 11.46 11 10.55 10.18 9.89 9.73 9.67 9.67
1340.640 9.87 10.24 10.62 11.06 11.61 12.27 12.97 13.65 14.26 14.75
1359.930 15.04 15.08 15.04 14.87 14.53 14.12 13.69 13.22 12.73 12.27
1379.219 11.89 11.69 11.77 12.05 12.53 13.32 14.31 15.44 16.79 18.51
1398.509 20.54 22.99 25.71 28.7 32.03 35.5 38.86 42 44.7 46.82
1417.799 48.3 49.33 49.78 49.56 48.77 47.37 45.34 42.96 40.33 37.63
1437.089 34.93 32.58 30.34 28.23 26.27 24.3 22.3 20.4 18.57 16.86
1456.378 15.11 13.59 12.35 11.2 10.33 9.72 9.43 9.47 9.92 11.03
1475.668 12.79 15.13 17.75 20.25 22.27 23.74 24.96 25.75 25.5 24.68
1494.958 23.94 22.89 20.96 18.26 15.3 12.6 10.27 8.55 7.42 6.54
1514.248 5.83 5.28 4.89 4.5 4.18 3.98 3.75 3.55 3.4 3.27
1533.538 3.17 3.03 2.86 2.78 2.72 2.57 2.48 2.41 2.31 2.29
1552.827 2.24 2.2 2.18 2.1 2.08 2.05 2.05 2.06 2.01 1.97
1572.117 2.01 2.01 1.97 1.95 1.94 1.9 1.87 1.92 1.95 1.92
1591.407 1.89 1.89 1.91 1.83 1.78 1.8 1.77 1.7 1.71 1.73
1610.697 1.74 1.76 1.76 1.8 1.84 1.84 1.83 1.85 1.86 1.89
1629.986 1.93 1.96 2.08 2.14 2.21 2.3 2.32 2.35 2.47 2.56
1649.276 2.66 2.7 2.73 2.88 3.06 3.21 3.31 3.39 3.54 3.7
1668.566 3.88 4.09 4.34 4.61 4.87 5.19 5.57 5.9 6.26 6.76
1687.856 7.28 7.87 8.53 9.19 9.97 10.86 11.82 13.02 14.35 15.93
1707.146 17.78 20 22.72 25.86 29.58 34.08 39.5 45.45 52.26 59.78
1726.435 67.91 76.53 85.6 94.85 105.13 116.07 126.6 137.49 147.43 155.85
1745.725 161.82 165 165.37 163.52 160.41 156.28 150.4 142.53 131.87 118.89
1765.015 104.67 89.86 75.34 62.54 51.02 41.45 33.71 27.56 22.68 18.85
1784.305 15.96 13.7 11.94 10.47 9.3 8.37 7.63 7 6.43 5.86
1803.594 5.42 5.03 4.74 4.46 4.12 3.85 3.63 3.45 3.34 3.18
1822.884 3.02 2.88 2.78 2.69 2.62 2.58 2.54 2.44 2.36 2.31
1842.174 2.2 2.11 2.1 2.08 2.05 2.04 1.97 1.91 1.9 1.89
1861.464 1.85 1.8 1.77 1.73 1.71 1.66 1.6 1.59 1.61 1.56
1880.754 1.48 1.47 1.48 1.48 1.46 1.46 1.45 1.43 1.44 1.43
1900.043 1.42 1.36 1.33 1.32 1.32 1.32 1.35 1.34 1.29 1.3
1919.333 1.34 1.32 1.3 1.29 1.29 1.28 1.27 1.29 1.27 1.27
1938.623 1.21 1.14 1.14 1.11 1.07 1.07 1.04 1.07 1.06 0.9865
1957.913 0.958 0.9382 0.9394 0.9346 0.9374 0.9516 0.9081 0.8837 0.8931 0.8852
1977.202 0.9167 0.9025 0.8751 0.886 0.8507 0.8294 0.8565 0.8673 0.8417 0.8186
1996.492 0.848 0.8663 0.8136 0.7924 0.8139 0.8249 0.8384 0.8613 0.8523 0.8537
2015.782 0.8792 0.8499 0.8446 0.8597 0.8485 0.8555 0.8723 0.8877 0.9037 0.9134
2035.072 0.8938 0.8689 0.8703 0.8845 0.8839 0.9029 0.8983 0.8743 0.8234 0.7817
2054.362 0.8086 0.8172 0.8187 0.8059 0.7927 0.8169 0.8498 0.8176 0.7806 0.765
2073.651 0.7536 0.7825 0.7607 0.7349 0.7502 0.7332 0.7314 0.7643 0.7342 0.7226
2092.941 0.7401 0.7364 0.7071 0.6742 0.6837 0.6897 0.7132 0.6992 0.7023 0.7026
2112.231 0.7107 0.7856 0.7644 0.7047 0.7102 0.7568 0.7593 0.7464 0.7389 0.6829
2131.521 0.7037 0.7649 0.7294 0.6758 0.6872 0.7233 0.6982 0.6725 0.6858 0.6928
2150.810 0.6843 0.6583 0.6688 0.7178 0.7802 0.7725 0.7174 0.7346 0.7579 0.7017
2170.100 0.679 0.6812 0.7137 0.754 0.7281 0.7275 0.7204 0.7343 0.6941 0.6374
2189.390 0.6541 0.6708 0.6954 0.736 0.7675 0.7486 0.7012 0.649 0.6212 0.6383
2208.680 0.6527 0.6417 0.6185 0.5827 0.5912 0.648 0.5969 0.5278 0.5863 0.6165
2227.970 0.5965 0.5551 0.582 0.6078 0.578 0.5715 0.528 0.4976 0.5539 0.561
2247.259 0.5225 0.5872 0.5689 0.5017 0.5284 0.5158 0.5065 0.5305 0.5524 0.5501
2266.549 0.5145 0.5868 0.6273 0.5972 0.5831 0.5485 0.4964 0.493 0.5393 0.5366
2285.839 0.5375 0.5401 0.5222 0.5409 0.5395 0.509 0.5369 0.5729 0.5958 0.5851
2305.129 0.5605 0.5285 0.5468 0.6072 0.5424 0.484 0.5813 0.6352 0.6258 0.5842
2324.418 0.552 0.5652 0.5803 0.6483 0.6912 0.6665 0.6472 0.589 0.5711 0.6117
2343.708 0.6519 0.7121 0.7673 0.7814 0.7372 0.6715 0.7034 0.7896 0.7763 0.7391
2362.998 0.7551 0.7552 0.7293 0.7312 0.7338 0.7172 0.7331 0.785 0.8162 0.7767
2382.288 0.7316 0.7722 0.7799 0.7494 0.718 0.6701 0.6738 0.7036 0.6961 0.6568
2401.578 0.6257 0.6493 0.6585 0.6598 0.6622 0.6577 0.668 0.7048 0.693 0.6408
2420.867 0.6408 0.6954 0.7139 0.6857 0.7367 0.7383 0.7007 0.701 0.7184 0.7565
2440.157 0.7693 0.7476 0.7668 0.7743 0.7403 0.7793 0.8412 0.8506 0.8093 0.8305
2459.447 0.8305 0.8074 0.8224 0.8505 0.8663 0.8503 0.8789 0.9096 0.9562 0.9128
2478.737 0.7804 0.7728 0.7593 0.7417 0.7991 0.8311 0.7447 0.7053 0.7988 0.8052
2498.026 0.8308 0.8552 0.8366 0.8198 0.8131 0.8292 0.8245 0.8081 0.7692 0.7619
2517.316 0.7663 0.7946 0.8383 0.744 0.6559 0.648 0.6512 0.6384 0.5946 0.5952
2536.606 0.6104 0.5978 0.5969 0.6585 0.6614 0.6257 0.695 0.718 0.646 0.6589
2555.896 0.6777 0.575 0.5382 0.588 0.6084 0.5697 0.5515 0.6268 0.6944 0.6712
2575.186 0.6122 0.644 0.641 0.5473 0.5745 0.6685 0.6577 0.6456 0.6531 0.5879
2594.475 0.6259 0.703 0.6608 0.6356 0.6339 0.6873 0.7377 0.6846 0.6356 0.637
2613.765 0.6797 0.7066 0.7155 0.683 0.6953 0.7008 0.6918 0.7549 0.791 0.8103
2633.055 0.7734 0.7504 0.7365 0.7241 0.8426 0.8485 0.7834 0.7932 0.7909 0.7875
2652.345 0.767 0.8634 0.9552 0.9614 0.933 0.9022 0.9363 1.03 1.1 1.07
2671.634 1.12 1.18 1.18 1.26 1.3 1.32 1.36 1.42 1.46 1.51
2690.924 1.6 1.7 1.78 1.83 1.85 1.84 1.88 1.94 1.96 1.95
2710.214 1.98 1.94 1.89 1.95 2 2.02 1.95 1.91 1.88 1.86
2729.504 1.85 1.76 1.81 1.84 1.8 1.78 1.81 1.88 1.93 1.94
2748.794 1.93 1.99 2.03 2.07 2.18 2.3 2.43 2.55 2.54 2.54
2768.083 2.64 2.71 2.77 2.87 2.96 3.07 3.17 3.23 3.31 3.45
2787.373 3.55 3.58 3.6 3.77 3.96 4.05 4.1 4.16 4.32 4.47
2806.663 4.64 4.8 4.95 5.12 5.29 5.54 5.89 6.16 6.41 6.72
2825.953 7.08 7.48 7.87 8.33 8.82 9.38 10.07 10.72 11.41 12.2
2845.242 12.95 13.77 14.65 15.52 16.49 17.51 18.37 19.38 20.48 21.46
2864.532 22.44 23.45 24.63 25.78 26.93 28.18 29.38 30.61 31.82 32.82
2883.822 33.67 34.24 34.56 34.79 34.83 34.59 34.05 33.52 32.86 32
2903.112 31.23 30.58 29.96 29.38 28.91 28.48 28.13 27.94 27.73 27.57
2922.401 27.58 27.64 27.71 27.8 28 28.33 28.68 28.99 29.3 29.63
2941.691 29.94 30.11 30.14 30.08 29.77 29.34 28.73 27.79 26.71 25.39
2960.981 23.94 22.47 21.08 19.68 18.32 17.22 16.16 15.17 14.26 13.52
2980.271 12.98 12.51 12.18 11.9 11.53 11.17 10.87 10.41 9.79 9.3
2999.561 8.79 8.17 7.59 6.97 6.31 5.68 5.02 4.44 4 3.69
3018.850 3.3 2.97 2.74 2.62 2.62 2.41 2.29 2.22 2.05 1.98
3038.140 1.91 1.77 1.68 1.67 1.58 1.51 1.49 1.39 1.33 1.35
3057.430 1.32 1.25 1.21 1.25 1.25 1.3 1.29 1.17 1.04 0.9373
3076.720 0.9707 0.9578 0.8778 0.8625 0.9228 0.829 0.7777 0.8603 0.8278 0.7966
3096.009 0.7741 0.7623 0.7926 0.7561 0.7227 0.7086 0.65 0.5769 0.5754 0.633
3115.299 0.6677 0.708 0.6868 0.6719 0.7209 0.7066 0.6774 0.7385 0.768 0.7397
3134.589 0.7352 0.7909 0.8041 0.7352 0.7516 0.7892 0.7237 0.7229 0.7256 0.6418
3153.879 0.6597 0.653 0.621 0.5724 0.5389 0.5956 0.6326 0.622 0.5697 0.5007
3173.169 0.4619 0.4759 0.5057 0.4475 0.3882 0.3594 0.4488 0.5836 0.5376 0.5105
3192.458 0.5765 0.5216 0.4167 0.4446 0.4743 0.4335 0.4841 0.5772 0.5644 0.527
3211.748 0.4843 0.5289 0.5235 0.5164 0.5879 0.5951 0.5676 0.5574 0.636 0.6797
3231.038 0.6115 0.517 0.453 0.5485 0.6156 0.6323 0.6655 0.645 0.6973 0.6965
3250.328 0.7614 0.914 0.8722 0.737 0.7542 0.8417 0.8417 0.8995 0.9456 0.9801
3269.617 1.01 1.01 0.9656 0.9407 1.05 1.03 1.01 1.11 1.09 1.03
3288.907 1.01 1.04 1.05 1.01 1 1.03 0.9477 0.8539 0.9332 1.01
3308.197 1 0.9778 1.06 1.08 1.02 1.07 1.04 0.9129 0.998 1.02
3327.487 1 1.06 0.9637 1.04 1.1 1.03 0.9578 0.8804 0.9426 0.9507
3346.777 0.9541 1 0.9743 1 1.02 0.9979 1.06 1.04 0.997 1.04
3366.066 0.9895 0.9799 0.9229 0.891 1.06 1.17 1.2 1.15 1.08 1.05
3385.356 1.12 1.26 1.2 1.1 1.23 1.34 1.37 1.38 1.36 1.44
3404.646 1.56 1.57 1.74 1.8 1.79 1.87 1.94 2 2.11 2.44
3423.936 2.63 2.7 2.88 3.24 3.58 3.86 4.15 4.53 4.94 5.29
3443.225 5.69 6.01 6.4 6.84 7.23 7.67 8.07 8.46 9.02 9.69
3462.515 10.6 11.66 12.83 14.4 16.06 17.82 19.56 20.84 21.72 22.26
3481.805 22.56 22.67 22.21 21.4 20.45 19.25 17.56 15.43 13.42 11.66
3501.095 10.17 9.03 8 7.2 6.59 6.04 5.66 5.45 5.23 5
3520.385 4.68 4.34 4.17 4.03 3.91 3.83 3.69 3.52 3.39 3.32
3539.674 3.31 3.23 3.04 2.89 2.87 2.79 2.77 2.74 2.7 2.63
3558.964 2.55 2.55 2.5 2.46 2.4 2.46 2.52 2.42 2.33 2.34
3578.254 2.28 2.2 2.21 2.13 2.03 1.98 2.02 2.07 2.03 2.09
3597.544 2.16 2.16 2.04 1.94 2 2.02 1.98 1.97 1.94 1.96
3616.833 2.11 2.19 2.16 2.09 1.96 1.94 1.85 1.92 2.06 1.96
3636.123 1.89 1.96 2.06 2.06 1.99 2.05 2.2 2.39 2.7 3.01
3655.413 3.21 3.46 3.78 4.01 4.17 4.29 4.34 4.39 4.5 4.4
3674.703 4.07 3.84 3.75 3.48 3.08 2.84 2.55 2.24 2.15 1.93
3693.993 1.64 1.4 1.22 1.1 1.07 1.12 1.1 1.01 0.8473 0.85
3713.282 0.8627 0.7732 0.7269 0.7071 0.695 0.5782 0.5619 0.5875 0.5616 0.6147
3732.572 0.5933 0.4891 0.497 0.5454 0.5678 0.4734 0.3223 0.5168 0.5833 0.5399
3751.862 0.5915 0.517 0.4363 0.4678 0.6215 0.5415 0.3864 0.4179 0.466 0.4727
3771.152 0.5226 0.531 0.4326 0.437 0.4773 0.4756 0.4985 0.5648 0.4618 0.3557
3790.441 0.4132 0.4022 0.356 0.3809 0.4801 0.5885 0.4746 0.4255 0.4224 0.303
3809.731 0.3942 0.5156 0.5058 0.5373 0.5539 0.4878 0.4441 0.494 0.5813 0.5265
3829.021 0.4573 0.4746 0.4601 0.497 0.5394 0.5663 0.5481 0.5787 0.5492 0.4089
3848.311 0.383 0.4406 0.5044 0.3592 0.3357 0.4721 0.4166 0.3859 0.4447 0.4067
3867.601 0.3441 0.3621 0.4107 0.4556 0.4587 0.472 0.3749 0.3879 0.5087 0.4655
3886.890 0.4962 0.4417 0.3351 0.3959 0.4403 0.4269 0.3894 0.3803 0.4959 0.595
3906.180 0.6 0.5834 0.6005 0.616 0.5432 0.3651 0.4011 0.4203 0.4443 0.5322
3925.470 0.48 0.4785 0.4485 0.5074 0.5197 0.4278 0.4762 0.5568 0.5448 0.524
3944.760 0.6114 0.5469 0.4784 0.5771 0.5221 0.4205 0.5194 0.4958 0.4496 0.5176
3964.049 0.4141 0.4221 0.5479 0.5717 0.5753 0.5609 0.5185 0.4893 0.4514 0.4781
3983.339 0.5442 0.5914 0.5888 0.5683 0.5254 0.4812 0.3777 0.4056 0.5156 0.4853
##END=
