##TITLE=Isopropyl m-trifluoromethylcarbanilate
##JCAMP-DX=4.24
##DATA TYPE=INFRARED SPECTRUM
##ORIGIN=EPA-IR VAPOR PHASE LIBRARY
##OWNER=SRD/NIST
Collection (C) 2018 copyright by the U.S. Secretary of Commerce
on behalf of the United States of America. All rights reserved.
##CAS REGISTRY NO=370-56-9
##MOLFORM=C 11 H 12 F 3 N O 2
##$NIST SOURCE=MSDC-IR
##STATE=gas
##XUNITS=1/CM
##YUNITS=ABSORBANCE
##XFACTOR=1.
##YFACTOR=0.001
##DELTAX=3.85796
##FIRSTX=551.7
##LASTX=4000.7
##FIRSTY=10.08
##MAXX=4000.7
##MINX=551.688
##MAXY=0.35027
##MINY=0.00008277
##NPOINTS=895
##XYDATA=(X++(Y..Y))
551.688 10.08 8.97 8.05 7.07 6.35 5.73 5.31 5.02 4.59 4.38
590.268 4.2 3.76 3.65 4.01 4.46 4.68 4.71 4.5 3.92 3.5
628.847 3.42 3.78 4.31 4.87 5.85 7.83 12.1 18.14 22.19 21.21
667.427 17.04 13.24 11.31 10.93 12.77 18.12 26.25 34.11 34.76 27.77
706.006 19.1 12.05 8.13 6.44 5.65 5.38 5.71 6.66 9.07 12.98
744.586 15.93 16.2 14.9 14.09 14.94 17.7 21.24 24.22 26.41 29.19
783.165 33.32 37.16 37.75 33 25.17 17.83 12.53 9.78 8.89 9.33
821.745 10.69 12.96 15.67 16.81 15.14 11.54 8.36 6.98 6.79 7.36
860.324 8.84 11.17 14.12 16.66 18.39 20.2 23.89 29.76 36.27 41.82
898.904 45.3 45.43 40.5 32.03 24.45 20.48 19.24 18.7 18.02 17.14
937.484 15.92 14.19 12.1 10.06 8.59 7.81 7.57 7.68 8.02 8.42
976.063 8.5 8.53 8.87 9.57 11.1 13.7 15.6 15.42 14.76 15.54
1014.643 18.09 21.91 26.34 30.92 35.96 41.34 45.73 47.48 46.42 43.88
1053.222 41.42 40.96 44.11 52.6 64.78 73.39 72.9 65.98 61.31 64.64
1091.802 77.82 97.68 113.93 122.54 132.94 149.48 159.06 153.35 143.47 144.15
1130.381 160.58 192.65 236.6 279.82 303.18 288.83 244.31 199.8 180.21 194.28
1168.961 232.52 279.1 321.64 340.57 321.37 284.37 268.3 289.49 329.44 350.27
1207.540 323.52 256.91 189.46 148.65 135.57 138.2 140.79 131.35 110.32 88.22
1246.120 71.58 60.29 53.75 51.77 53.38 57.68 63.69 70.81 78.6 86
1284.699 92.41 98.32 104.58 110.14 112.53 112 111.51 114.39 125.14 151.58
1323.279 202.03 273.09 330.9 321.98 239.34 146.71 90.5 64.84 53.49 49.13
1361.859 48.98 51.2 53.22 53.35 51.96 50.33 50.32 51.3 48.66 41.64
1400.438 34.97 31.84 31.75 34.46 39.99 47.41 55.7 65.65 79.05 97.25
1439.018 121 141.33 141.59 115.93 83.24 61.35 52.57 49.94 50.15 52.23
1477.597 56.66 65.11 78.21 93.79 106.5 112.96 115.21 118.57 127.96 144.88
1516.177 170.16 200.24 223.31 223.11 195.49 153.57 113.86 83.55 63.7 50.31
1554.756 41.36 35.22 31.03 28.35 26.57 25.7 26.14 28.04 31.29 35.63
1593.336 40.28 43.1 42.62 40.61 40.5 42.94 44.87 42.36 34.6 25.13
1631.915 18.19 14.15 11.84 10.48 9.65 9.23 9.08 9.03 9.05 9.14
1670.495 9.29 9.61 10.03 10.49 11.09 11.83 12.74 13.77 14.74 15.67
1709.075 16.72 17.92 19.5 21.86 25.71 32.34 43.25 60.82 87.68 127.2
1747.654 173.15 214.49 237.5 232.63 199.4 145.87 93.82 60.36 42.64 32.42
1786.234 25.44 20.48 17.14 15.18 14.12 13.54 13.13 12.64 11.91 10.96
1824.813 9.85 8.69 7.59 6.65 5.95 5.42 5.05 4.85 4.71 4.51
1863.393 4.28 4.09 4 4.06 4.06 3.88 3.57 3.23 2.96 2.78
1901.972 2.64 2.58 2.59 2.64 2.73 2.88 3.07 3.2 3.19 3.1
1940.552 2.95 2.81 2.74 2.62 2.44 2.23 2.1 2.06 1.99 1.89
1979.131 1.81 1.78 1.76 1.74 1.7 1.66 1.63 1.6 1.53 1.5
2017.711 1.51 1.55 1.62 1.65 1.69 1.74 1.74 1.72 1.72 1.73
2056.291 1.73 1.79 1.85 1.91 1.97 2 2 1.99 1.88 1.74
2094.870 1.67 1.62 1.55 1.51 1.51 1.54 1.57 1.57 1.59 1.63
2133.450 1.61 1.58 1.58 1.52 1.44 1.42 1.38 1.39 1.41 1.42
2172.029 1.48 1.54 1.61 1.69 1.79 1.94 2.12 2.23 2.33 2.46
2210.609 2.59 2.7 2.83 2.93 3.02 3.12 3.27 3.45 3.57 3.65
2249.188 3.77 3.85 3.93 4.11 4.36 4.64 4.88 4.95 4.78 4.3
2287.768 3.65 3.09 2.68 2.4 2.28 2.21 2.16 2.13 2.13 2.12
2326.347 2.05 2.01 1.99 1.99 2.04 2.05 1.98 1.92 1.9 1.85
2364.927 1.78 1.76 1.77 1.77 1.77 1.75 1.67 1.54 1.51 1.48
2403.507 1.43 1.41 1.36 1.35 1.37 1.35 1.3 1.24 1.26 1.28
2442.086 1.27 1.24 1.26 1.38 1.49 1.52 1.55 1.6 1.62 1.61
2480.666 1.58 1.55 1.51 1.48 1.46 1.48 1.52 1.55 1.62 1.66
2519.245 1.64 1.62 1.57 1.56 1.51 1.41 1.35 1.32 1.33 1.36
2557.825 1.36 1.42 1.44 1.38 1.33 1.23 1.18 1.18 1.16 1.15
2596.404 1.13 1.13 1.13 1.1 1.11 1.1 1.07 1.1 1.1 1.08
2634.984 1.1 1.12 1.16 1.16 1.17 1.32 1.39 1.36 1.3 1.24
2673.563 1.21 1.14 1.12 1.12 1.1 1.02 1.02 1.05 1.07 1.12
2712.143 1.12 1.16 1.27 1.26 1.27 1.33 1.43 1.52 1.61 1.63
2750.722 1.53 1.44 1.44 1.42 1.41 1.39 1.38 1.36 1.33 1.35
2789.302 1.34 1.33 1.36 1.45 1.49 1.52 1.58 1.63 1.76 1.93
2827.882 2.01 2.08 2.1 2.07 2.13 2.29 2.5 2.69 2.95 3.32
2866.461 3.82 4.5 5.35 6.43 7.7 8.78 9.25 9.02 8.49 8.17
2905.041 8.11 8.3 8.71 9.15 9.76 10.84 12.6 14.98 17.82 20.85
2943.620 22.91 22.66 20.22 17.32 15.58 15.48 16.92 20.07 26.11 36.96
2982.200 51.41 61.59 60.07 48.57 35.18 24.83 18.03 13.85 11.08 9.09
3020.779 7.77 7.14 6.9 6.78 6.53 6.42 6.65 6.93 7.12 7.08
3059.359 6.91 6.8 6.67 6.47 6.29 6.32 6.55 6.71 6.67 6.42
3097.938 5.99 5.46 4.86 4.25 3.84 3.5 3.14 2.88 2.62 2.32
3136.518 2.15 2.02 1.91 1.79 1.66 1.55 1.46 1.48 1.45 1.45
3175.098 1.51 1.49 1.48 1.51 1.52 1.5 1.38 1.29 1.27 1.19
3213.677 1.12 1.02 0.9033 0.9121 0.9364 0.9129 0.789 0.6738 0.6559 0.6084
3252.257 0.5695 0.4457 0.3468 0.3923 0.37 0.3106 0.3248 0.3539 0.398 0.4183
3290.836 0.3521 0.2852 0.272 0.3137 0.2369 0.1696 0.2592 0.29 0.328 0.3716
3329.416 0.2751 0.2162 0.2827 0.3307 0.3684 0.4057 0.3852 0.3966 0.4258 0.5209
3367.995 0.6048 0.6037 0.6246 0.6529 0.6755 0.6947 0.7227 0.7671 0.8526 0.9958
3406.575 1.11 1.19 1.34 1.56 1.92 2.4 3.09 4.04 5.43 7.53
3445.154 10.22 13.49 17.05 20.71 23.82 25.07 23.52 19.34 13.98 9.35
3483.734 6.46 4.93 4.1 3.55 3.22 2.92 2.54 2.2 1.81 1.41
3522.314 1.22 1.15 1.02 0.9371 0.8314 0.6435 0.456 0.3181 0.2584 0.2939
3560.893 0.3027 0.3213 0.2824 0.1472 0.1188 0.144 0.1317 0.1142 0.1424 0.1836
3599.473 0.2263 0.167 0.09572 0.1399 0.1338 0.1391 0.1923 0.1742 0.1497 0.1192
3638.052 0.1018 0.1054 0.08277 0.1028 0.1632 0.145 0.1265 0.2009 0.3402 0.3207
3676.632 0.1884 0.1956 0.2566 0.3157 0.3455 0.309 0.3273 0.367 0.2731 0.2176
3715.211 0.2713 0.301 0.3366 0.3215 0.2064 0.2112 0.2238 0.1751 0.2645 0.366
3753.791 0.3388 0.3487 0.3042 0.2009 0.1625 0.1772 0.2382 0.2508 0.2922 0.2702
3792.370 0.2442 0.2306 0.2322 0.2762 0.2625 0.3059 0.4436 0.409 0.3214 0.3328
3830.950 0.2887 0.2144 0.1821 0.1914 0.2278 0.308 0.3818 0.3274 0.2313 0.2846
3869.530 0.3139 0.3398 0.4206 0.4545 0.4158 0.4059 0.3367 0.2308 0.2364 0.2765
3908.109 0.3258 0.3575 0.3926 0.3584 0.2509 0.2509 0.2896 0.2951 0.3379 0.3421
3946.689 0.3443 0.3607 0.3905 0.43 0.4549 0.4469 0.4357 0.5378 0.5376 0.488
3985.268 0.4834 0.4521 0.5174 0.498 0.4639
##END=
