##TITLE=7-Methyl-3-octyne
##JCAMP-DX=4.24
##DATA TYPE=INFRARED SPECTRUM
##ORIGIN=NIST Mass Spectrometry Data Center
##OWNER=NIST Standard Reference Data Program
Collection (C) 2018 copyright by the U.S. Secretary of Commerce
on behalf of the United States of America. All rights reserved.
##CAS REGISTRY NO=37050-06-9
##MOLFORM=C 9 H 16
##$NIST SOURCE=MSDC-IR
##SPECTROMETER/DATA SYSTEM=HP-GC/MS/IRD
##STATE=gas
##XUNITS=1/CM
##YUNITS=ABSORBANCE
##XFACTOR=1.0
##YFACTOR=0.000003000
##DELTAX=4.0
##FIRSTX=550.0
##LASTX=3846.0
##FIRSTY=0.000369
##MAXX=3846
##MINX=550
##MAXY=0.03
##MINY=0
##NPOINTS=825
##XYDATA=(X++(Y..Y))
550.0 123 125 107 102 74 61 74 61 75 86
590.0 63 50 51 75 102 95 73 69 54 54
630.0 67 65 66 51 45 52 46 57 60 35
670.0 44 51 18 14 21 27 42 37 39 50
710.0 44 32 46 48 46 53 67 67 62 71
750.0 80 88 96 97 91 86 79 74 75 82
790.0 71 51 55 59 63 58 35 38 53 50
830.0 40 32 33 44 42 38 48 56 69 80
870.0 86 89 73 63 65 68 73 66 71 79
910.0 75 85 101 117 123 126 127 116 97 90
950.0 91 80 64 64 68 63 67 77 78 75
990.0 73 80 86 99 116 123 125 120 122 109
1030.0 100 86 79 101 115 146 187 228 250 240
1070.0 223 201 188 185 170 154 155 158 171 186
1110.0 196 204 195 173 162 156 148 150 158 170
1150.0 191 210 252 306 333 334 306 252 200 162
1190.0 134 131 144 154 168 178 181 168 154 147
1230.0 149 162 173 181 195 201 215 232 228 208
1270.0 193 187 191 211 246 289 362 472 616 833
1310.0 1155 1563 1947 2129 2061 1777 1355 1006 829 773
1350.0 783 806 834 867 892 919 947 980 1035 1051
1390.0 988 862 686 531 450 422 422 446 510 614
1430.0 751 899 1033 1138 1196 1232 1282 1337 1380 1402
1470.0 1364 1240 1058 853 673 537 433 354 293 247
1510.0 212 183 163 147 129 113 103 96 92 88
1550.0 83 81 77 71 70 65 69 73 65 60
1590.0 56 62 70 64 60 61 57 57 57 52
1630.0 50 53 52 53 54 51 49 48 47 48
1670.0 48 47 46 45 44 41 39 42 43 42
1710.0 37 34 35 32 32 36 33 23 19 18
1750.0 19 18 18 19 16 13 17 14 17 22
1790.0 19 23 22 18 21 19 15 15 17 19
1830.0 18 17 17 14 17 27 32 28 29 32
1870.0 28 27 29 22 18 14 10 14 19 12
1910.0 6 12 12 7 9 10 8 9 11 9
1950.0 7 8 6 0 2 11 11 6 3 4
1990.0 6 6 7 7 8 11 10 10 8 10
2030.0 13 16 23 28 26 24 18 16 16 13
2070.0 10 8 4 4 9 10 10 11 7 6
2110.0 7 4 10 16 14 11 5 5 4 5
2150.0 9 10 9 10 13 16 12 12 15 13
2190.0 17 17 13 14 19 22 23 22 24 22
2230.0 21 26 28 26 25 24 17 12 12 18
2270.0 23 21 19 19 17 16 16 17 20 28
2310.0 27 21 20 22 22 24 20 22 29 24
2350.0 18 16 18 19 18 21 21 20 23 25
2390.0 24 25 20 20 30 33 33 29 32 38
2430.0 33 34 37 34 23 23 30 32 27 28
2470.0 29 31 27 22 24 30 32 29 35 39
2510.0 38 36 31 25 24 34 41 38 37 42
2550.0 45 45 49 54 58 60 64 68 74 82
2590.0 87 88 79 76 79 82 94 109 112 117
2630.0 125 125 122 115 110 106 95 86 87 87
2670.0 84 92 101 103 105 108 109 112 119 122
2710.0 120 136 155 168 186 202 209 216 222 218
2750.0 217 223 227 237 243 230 227 238 246 255
2790.0 264 284 308 337 365 396 437 483 532 594
2830.0 680 791 949 1153 1422 1753 2115 2486 2818 3129
2870.0 3448 3707 3913 4092 4169 4139 4132 4203 4403 4811
2910.0 5398 6089 6828 7556 8172 8656 9000 9168 9174 9049
2950.0 8973 9122 9526 9986 10000 9447 8532 7277 5963 4846
2990.0 3739 2756 2148 1763 1469 1236 1043 872 739 632
3030.0 548 487 440 398 377 359 327 308 295 288
3070.0 275 259 254 245 236 233 235 228 224 230
3110.0 225 216 215 216 207 200 201 197 195 191
3150.0 192 185 178 178 178 179 179 171 166 154
3190.0 143 138 132 126 124 108 99 91 79 82
3230.0 72 57 58 54 41 36 37 39 45 49
3270.0 43 37 41 42 39 43 43 48 51 49
3310.0 48 40 52 60 57 54 66 83 79 68
3350.0 57 51 48 46 46 48 43 42 51 50
3390.0 34 29 28 23 39 42 27 22 20 40
3430.0 49 34 30 29 39 44 34 36 41 36
3470.0 32 31 30 34 38 29 21 27 27 26
3510.0 20 13 21 26 18 17 23 12 12 20
3550.0 20 24 28 27 16 10 14 24 21 15
3590.0 28 37 27 19 24 26 21 22 18 14
3630.0 16 15 22 22 29 37 37 39 34 32
3670.0 24 20 19 14 11 16 29 38 39 37
3710.0 33 31 26 35 32 26 34 26 15 16
3750.0 21 29 36 31 30 35 39 37 42 52
3790.0 46 48 58 65 52 49 57 40 38 43
3830.0 41 50 48 38 41
##END=
