##TITLE=3-Methylbenzylthiocyanate
##JCAMP-DX=4.24
##DATA TYPE=INFRARED SPECTRUM
##ORIGIN=EPA-IR VAPOR PHASE LIBRARY
##OWNER=SRD/NIST
Collection (C) 2018 copyright by the U.S. Secretary of Commerce
on behalf of the United States of America. All rights reserved.
##CAS REGISTRY NO=37141-50-7
##MOLFORM=C 9 H 9 N S
##$NIST SOURCE=MSDC-IR
##STATE=gas
##XUNITS=1/CM
##YUNITS=ABSORBANCE
##XFACTOR=1.
##YFACTOR=0.001
##DELTAX=1.92934
##FIRSTX=549.9
##LASTX=3999.5
##FIRSTY=0.6449
##MAXX=3999.53
##MINX=549.863
##MAXY=0.011914
##MINY=0
##NPOINTS=1789
##XYDATA=(X++(Y..Y))
549.863 0.6449 0.5027 0.5794 0.6808 0.6569 0.7078 0.6859 0.8687 1.0113 1.0383
569.156 1.324 1.564 1.754 2.004 2.224 2.324 2.424 2.524 2.384 2.154
588.450 1.904 1.574 1.1674 0.8266 0.6334 0.6267 0.605 0.5623 0.4622 0.3777
607.743 0.412 0.4082 0.3791 0.4448 0.5313 0.4691 0.4114 0.4097 0.4594 0.4686
627.037 0.4944 0.5962 0.6655 0.7063 0.7875 0.8552 0.9334 1.1026 1.314 1.474
646.330 1.634 1.874 2.014 2.124 2.184 2.214 2.254 2.254 2.274 2.374
665.624 2.444 2.324 2.334 2.504 2.634 2.774 3.004 3.344 3.744 4.184
684.917 4.654 5.194 5.854 6.684 7.664 8.684 9.724 10.694 11.494 11.914
704.210 11.794 11.534 11.204 10.654 10.034 9.404 8.794 8.194 7.614 7.064
723.504 6.604 6.154 5.654 5.184 4.744 4.394 4.104 3.714 3.284 2.994
742.797 2.754 2.564 2.434 2.304 2.294 2.264 2.304 2.484 2.724 2.994
762.091 3.284 3.644 4.134 4.724 5.314 5.964 6.654 7.284 7.844 8.284
781.384 8.484 8.324 7.884 7.304 6.614 5.874 5.074 4.354 3.624 2.954
800.678 2.484 2.104 1.754 1.444 1.2425 1.1121 0.9843 0.8645 0.7155 0.6542
819.971 0.6594 0.6385 0.6193 0.5579 0.5029 0.5302 0.5342 0.5115 0.5054 0.4847
839.264 0.4989 0.5142 0.5089 0.4785 0.4599 0.4904 0.5584 0.6096 0.6527 0.7289
858.558 0.8363 0.9495 1.0969 1.274 1.454 1.564 1.674 1.784 1.834 1.894
877.851 1.904 1.854 1.724 1.664 1.544 1.394 1.344 1.284 1.212 1.1518
897.145 1.1562 1.1399 1.1191 1.1222 1.1872 1.2436 1.245 1.2462 1.284 1.334
916.438 1.334 1.334 1.284 1.1884 1.1579 1.1435 1.0481 0.949 0.8949 0.8102
935.732 0.6873 0.595 0.5289 0.4958 0.4867 0.4571 0.4083 0.38 0.3875 0.4096
955.025 0.4271 0.4111 0.4048 0.3769 0.3757 0.4053 0.4247 0.459 0.4609 0.4627
974.318 0.5206 0.5279 0.5231 0.5666 0.5503 0.5769 0.6365 0.6921 0.7581 0.7848
993.612 0.8343 0.8964 0.8955 0.8415 0.8001 0.7734 0.6722 0.586 0.5374 0.4683
1012.905 0.4157 0.3639 0.35239 0.3864 0.3972 0.34146 0.33612 0.3761 0.4215 0.483
1032.199 0.4661 0.4917 0.5835 0.6591 0.7026 0.7304 0.7784 0.8533 0.8895 0.8775
1051.492 0.8756 0.8489 0.8425 0.8706 0.8574 0.8068 0.8458 0.8707 0.8467 0.885
1070.786 0.9306 1.0116 1.1552 1.254 1.384 1.584 1.754 1.884 1.974 2.054
1090.079 2.094 2.094 2.074 1.984 1.834 1.654 1.504 1.364 1.1859 1.0724
1109.372 0.9914 0.8739 0.7751 0.695 0.6627 0.6452 0.6175 0.5793 0.5675 0.5895
1128.666 0.5724 0.598 0.6225 0.6002 0.5725 0.6227 0.716 0.7179 0.7432 0.8049
1147.959 0.8765 1.0115 1.1129 1.1395 1.1385 1.1718 1.1349 1.0691 1.0289 0.9465
1167.253 0.9089 0.8954 0.8555 0.8137 0.7749 0.7141 0.7059 0.7392 0.7009 0.6554
1186.546 0.5998 0.5873 0.6315 0.6871 0.7049 0.6569 0.7115 0.8414 0.8659 0.9896
1205.840 1.1397 1.1975 1.274 1.524 1.954 2.524 3.304 4.144 5.164 6.174
1225.133 6.954 7.474 7.624 7.484 7.154 6.674 6.054 5.414 4.994 4.774
1244.426 4.754 4.904 5.044 5.244 5.474 5.654 5.704 5.564 5.274 4.834
1263.720 4.414 3.974 3.554 3.104 2.604 2.244 1.944 1.714 1.534 1.354
1283.013 1.2225 1.1373 1.1366 1.1159 1.0542 1.0535 1.016 0.9632 0.9985 1.0415
1302.307 1.0077 0.9516 0.9215 0.9139 0.9089 0.887 0.9042 0.9505 0.9269 0.8736
1321.600 0.8642 0.8476 0.8588 0.8512 0.8158 0.809 0.8295 0.8325 0.7819 0.7467
1340.894 0.7384 0.7685 0.7822 0.7322 0.7238 0.7527 0.7804 0.7936 0.7775 0.8253
1360.187 0.8682 0.8647 0.8931 0.9628 1.051 1.0979 1.1365 1.1835 1.284 1.424
1379.480 1.504 1.584 1.694 1.734 1.724 1.754 1.794 1.764 1.674 1.634
1398.774 1.584 1.594 1.624 1.704 1.794 1.844 1.974 2.144 2.344 2.544
1418.067 2.764 3.044 3.314 3.574 3.854 4.084 4.244 4.394 4.554 4.644
1437.361 4.654 4.684 4.694 4.594 4.444 4.274 4.044 3.784 3.554 3.354
1456.654 3.174 3.104 3.064 3.044 3.034 3.054 3.154 3.254 3.394 3.604
1475.948 3.864 4.224 4.594 4.944 5.284 5.594 5.824 5.874 5.854 5.754
1495.241 5.474 5.134 4.714 4.254 3.804 3.394 3.064 2.794 2.574 2.464
1514.534 2.394 2.304 2.234 2.184 2.144 2.074 2.054 2.044 1.984 1.964
1533.828 1.914 1.824 1.804 1.724 1.644 1.574 1.524 1.464 1.394 1.364
1553.121 1.324 1.354 1.394 1.404 1.464 1.524 1.574 1.664 1.804 1.954
1572.415 2.044 2.154 2.314 2.514 2.754 2.934 3.144 3.364 3.554 3.844
1591.708 4.104 4.374 4.774 5.244 5.674 6.114 6.554 6.864 7.014 6.964
1611.002 6.704 6.274 5.694 4.974 4.214 3.434 2.664 2.074 1.634 1.294
1630.295 1.0785 0.8975 0.7806 0.6855 0.6284 0.6004 0.537 0.4971 0.5312 0.5192
1649.588 0.5167 0.5004 0.4324 0.5084 0.5355 0.4814 0.476 0.5078 0.5448 0.5498
1668.882 0.5612 0.5604 0.5763 0.6193 0.6297 0.7037 0.7283 0.6931 0.7153 0.7572
1688.175 0.7799 0.7738 0.7524 0.6705 0.5844 0.5622 0.5393 0.4866 0.4216 0.4169
1707.469 0.4503 0.4374 0.3668 0.3567 0.3982 0.3892 0.3839 0.3747 0.3796 0.4161
1726.762 0.4334 0.4687 0.4868 0.4872 0.5059 0.5333 0.5686 0.5921 0.6118 0.5909
1746.056 0.6075 0.6538 0.6693 0.6522 0.6743 0.6846 0.6798 0.6822 0.6597 0.6741
1765.349 0.707 0.7575 0.7539 0.7416 0.7638 0.7679 0.8024 0.8299 0.7793 0.7591
1784.642 0.7643 0.7447 0.7188 0.682 0.6155 0.5738 0.5701 0.5425 0.492 0.4897
1803.936 0.4867 0.4578 0.4927 0.4992 0.4542 0.4495 0.4746 0.4434 0.4223 0.4524
1823.229 0.4826 0.4943 0.4839 0.5131 0.5346 0.568 0.6359 0.6518 0.6608 0.6949
1842.523 0.7345 0.7358 0.7277 0.7391 0.7709 0.7458 0.6892 0.6926 0.7104 0.6873
1861.816 0.6853 0.7194 0.757 0.7844 0.7617 0.7358 0.716 0.7126 0.6996 0.6379
1881.110 0.5678 0.5305 0.5266 0.4525 0.4102 0.4147 0.3843 0.4073 0.4029 0.3806
1900.403 0.3599 0.3678 0.4218 0.4267 0.4081 0.3977 0.4237 0.4807 0.5072 0.5336
1919.696 0.6056 0.6809 0.697 0.7445 0.8079 0.837 0.8854 0.9424 0.9776 0.9603
1938.990 0.9444 0.8978 0.8089 0.7242 0.6407 0.5854 0.5523 0.496 0.4485 0.4168
1958.283 0.3918 0.3665 0.35235 0.3873 0.3795 0.346 0.32609 0.32933 0.33076 0.3564
1977.577 0.357 0.31599 0.32304 0.34748 0.3581 0.35297 0.3629 0.3719 0.3809 0.3745
1996.870 0.3705 0.399 0.4146 0.4323 0.4751 0.5145 0.5329 0.5139 0.5153 0.5359
2016.164 0.5255 0.5234 0.5311 0.5762 0.6341 0.6365 0.6052 0.5923 0.5985 0.593
2035.457 0.5678 0.5747 0.5876 0.5966 0.6159 0.6368 0.627 0.6169 0.6506 0.6302
2054.750 0.5987 0.6381 0.661 0.6609 0.6679 0.6473 0.6373 0.6329 0.6208 0.5952
2074.044 0.5615 0.5537 0.5662 0.5557 0.5341 0.5102 0.4973 0.5165 0.5026 0.461
2093.337 0.4679 0.4786 0.488 0.4697 0.4358 0.4352 0.4555 0.4575 0.4562 0.4661
2112.631 0.4715 0.4805 0.5011 0.5154 0.5239 0.5772 0.6009 0.5989 0.6377 0.6755
2131.924 0.7257 0.8113 0.8965 0.9944 1.1522 1.344 1.534 1.794 2.154 2.564
2151.218 3.064 3.614 4.144 4.624 4.924 5.044 5.004 4.784 4.434 3.944
2170.511 3.274 2.564 1.954 1.504 1.1852 0.9725 0.8397 0.7495 0.6743 0.5866
2189.804 0.5034 0.4765 0.4399 0.3967 0.3772 0.359 0.3592 0.35146 0.3274 0.3284
2209.098 0.33006 0.31095 0.31532 0.31463 0.27013 0.259357 0.28031 0.27526 0.27249 0.28542
2228.391 0.28467 0.27367 0.27405 0.2817 0.29057 0.24491 0.2142 0.259947 0.27523 0.27984
2247.685 0.28558 0.2858 0.27895 0.263456 0.29093 0.2706 0.2419 0.2818 0.31569 0.33285
2266.978 0.3007 0.28454 0.29506 0.30532 0.31539 0.3024 0.31634 0.3573 0.3607 0.3636
2286.272 0.3741 0.367 0.3876 0.37 0.35274 0.3953 0.4277 0.4348 0.4199 0.4363
2305.565 0.4505 0.4197 0.3975 0.3882 0.3714 0.34814 0.3632 0.3601 0.35199 0.33798
2324.858 0.31588 0.29568 0.30824 0.32704 0.29343 0.29699 0.30818 0.33237 0.34749 0.33899
2344.152 0.32884 0.32194 0.3549 0.3595 0.31267 0.28707 0.2753 0.260767 0.256059 0.26505
2363.445 0.29805 0.255004 0.2355 0.28666 0.29835 0.30074 0.3002 0.31113 0.31585 0.30043
2382.739 0.26546 0.2394 0.28826 0.35248 0.3585 0.29931 0.29077 0.32593 0.3074 0.30028
2402.032 0.2873 0.30243 0.34227 0.32903 0.32362 0.31484 0.32913 0.34614 0.31731 0.30991
2421.326 0.29549 0.30237 0.3687 0.3698 0.31746 0.32608 0.33175 0.3268 0.30698 0.30014
2440.619 0.30655 0.31544 0.30305 0.27579 0.29783 0.31504 0.2685 0.257951 0.27887 0.3034
2459.912 0.34543 0.34457 0.32033 0.27299 0.27945 0.28458 0.30192 0.34839 0.32647 0.31531
2479.206 0.35157 0.33941 0.29894 0.30944 0.31013 0.29666 0.31519 0.29587 0.27026 0.28276
2498.499 0.28229 0.24549 0.2223 0.2411 0.257882 0.26509 0.2822 0.27685 0.29087 0.32972
2517.793 0.33317 0.31542 0.32006 0.3165 0.3021 0.27674 0.28589 0.32872 0.33956 0.3637
2537.086 0.3829 0.4036 0.4129 0.4142 0.4158 0.428 0.4235 0.405 0.4203 0.4534
2556.380 0.4182 0.3949 0.412 0.3756 0.3617 0.3442 0.30391 0.3506 0.4047 0.3669
2575.673 0.3584 0.32538 0.32582 0.34788 0.33674 0.3676 0.3621 0.33454 0.34182 0.3775
2594.966 0.3795 0.3884 0.4116 0.4045 0.427 0.445 0.43 0.3861 0.30861 0.32531
2614.260 0.4015 0.34267 0.29713 0.34264 0.29478 0.24733 0.253474 0.29136 0.3092 0.28666
2633.553 0.27395 0.255754 0.26858 0.31386 0.30506 0.27138 0.34136 0.34598 0.32928 0.3795
2652.847 0.4078 0.4421 0.4515 0.4528 0.4668 0.501 0.5118 0.4496 0.394 0.3541
2672.140 0.3673 0.4068 0.3922 0.3844 0.33771 0.31615 0.3713 0.3747 0.3068 0.307
2691.434 0.32464 0.3201 0.31893 0.34772 0.3651 0.33361 0.29577 0.28013 0.31475 0.27447
2710.727 0.2324 0.31758 0.3981 0.4223 0.4388 0.3799 0.35283 0.3913 0.4327 0.4992
2730.020 0.5045 0.4813 0.5201 0.4947 0.4907 0.6137 0.7332 0.7418 0.7016 0.6795
2749.314 0.6644 0.6354 0.5887 0.5924 0.6206 0.5889 0.4888 0.4412 0.4311 0.4402
2768.607 0.4654 0.4884 0.4307 0.3841 0.3709 0.3084 0.28246 0.33072 0.4121 0.4359
2787.901 0.4402 0.4339 0.4353 0.4688 0.5195 0.5193 0.4625 0.4939 0.5517 0.5582
2807.194 0.6241 0.6862 0.6722 0.6415 0.6843 0.8136 0.8921 0.9606 1.0514 1.0772
2826.488 1.1537 1.1991 1.2021 1.324 1.374 1.404 1.544 1.604 1.604 1.634
2845.781 1.744 1.814 1.874 1.924 1.954 2.134 2.264 2.394 2.604 2.734
2865.074 2.894 3.114 3.304 3.524 3.654 3.714 3.854 3.914 3.904 3.844
2884.368 3.764 3.664 3.544 3.544 3.534 3.484 3.474 3.594 3.714 3.724
2903.661 3.834 4.104 4.294 4.354 4.514 4.844 5.144 5.564 6.114 6.724
2922.955 7.294 7.834 8.444 9.064 9.524 9.774 9.954 10.034 9.934 9.654
2942.248 9.244 8.794 8.244 7.694 7.144 6.624 6.124 5.604 5.254 4.904
2961.542 4.494 4.204 3.974 3.834 3.734 3.434 3.284 3.264 3.254 3.194
2980.835 3.144 3.254 3.414 3.544 3.624 3.714 3.974 4.174 4.174 4.284
3000.128 4.434 4.534 4.674 4.814 5.034 5.394 5.754 6.094 6.514 6.964
3019.422 7.444 7.964 8.464 8.954 9.334 9.784 10.194 10.214 10.244 10.324
3038.715 10.184 9.954 9.624 9.234 8.834 8.474 8.204 7.924 7.694 7.684
3058.009 7.784 7.784 7.824 7.874 7.754 7.554 7.264 6.834 6.404 5.904
3077.302 5.294 4.694 4.204 3.814 3.484 3.224 2.954 2.704 2.584 2.534
3096.596 2.464 2.504 2.454 2.254 2.184 2.174 2.004 1.844 1.844 1.674
3115.889 1.464 1.434 1.274 0.95 0.878 0.8945 0.8412 0.7684 0.6475 0.5537
3135.182 0.5701 0.6197 0.439 0.28242 0.28904 0.33211 0.4189 0.3869 0.3391 0.28304
3154.476 0.2252 0.3186 0.34258 0.26912 0.29912 0.3778 0.37 0.257553 0.2175 0.28038
3173.769 0.3729 0.4298 0.34013 0.260611 0.29683 0.31515 0.2903 0.206 0.131 0.1983
3193.063 0.25202 0.2309 0.2106 0.1983 0.31576 0.4765 0.4695 0.3581 0.31148 0.31813
3212.356 0.32476 0.26745 0.2152 0.1718 0.091 0.111 0.1796 0.1836 0.086 0.075
3231.650 0.27495 0.34101 0.26874 0.28353 0.28815 0.2247 0.1593 0.086 0.111 0.115
3250.943 0.1704 0.33075 0.255292 0.177 0.113 0.053 0.091 0.2006 0.32065 0.27996
3270.236 0.152 0.129 0.2115 0.2021 0.142 0.097 0.1 0.122 0.098 0.1751
3289.530 0.24564 0.148 0.108 0.31573 0.27103 0.108 0.2006 0.135 0.081 0.153
3308.823 0.1877 0.27651 0.3791 0.29538 0.1776 0.121 0.1601 0.2685 0.2418 0.2239
3328.117 0.154 0.111 0.124 0.1953 0.2305 0.1708 0.1837 0.1637 0.2175 0.2357
3347.410 0.2111 0.1757 0.1702 0.219 0.25204 0.28323 0.2222 0.1734 0.1703 0.2294
3366.704 0.30551 0.260958 0.1714 0.1666 0.052 0.098 0.33088 0.3197 0.15 0.045
3385.997 0 0.065 0.1659 0.253983 0.27506 0.137 0.1706 0.1709 0.061 0.122
3405.290 0.30358 0.3434 0.3738 0.34354 0.1846 0.2162 0.2217 0.1571 0.117 0.074
3424.584 0.065 0.126 0.189 0.2188 0.2243 0.1912 0.31001 0.33005 0.1649 0.125
3443.877 0.1936 0.24929 0.25198 0.188 0.253672 0.32643 0.193 0.1723 0.2406 0.27682
3463.171 0.31624 0.29159 0.27718 0.2259 0.101 0.119 0.1699 0.145 0.134 0.08
3482.464 0.067 0.1777 0.093 0.095 0.2014 0.082 0.051 0.095 0.1763 0.1924
3501.758 0.109 0.129 0.106 0.07 0.2161 0.32227 0.261272 0.135 0.059 0.102
3521.051 0.134 0.1605 0.2144 0.126 0.068 0.054 0.085 0.145 0.1898 0.2133
3540.344 0.1639 0.172 0.142 0.2002 0.33063 0.33155 0.1651 0.041 0.118 0.132
3559.638 0.108 0.2287 0.2322 0.034 0.019 0.121 0.087 0.2104 0.31018 0.2308
3578.931 0.2269 0.1797 0.141 0.1738 0.1867 0.1845 0.2084 0.149 0.143 0.2046
3598.225 0.2091 0.2347 0.2341 0.24546 0.2762 0.28345 0.2392 0.2271 0.2466 0.2214
3617.518 0.135 0.104 0.08 0.165 0.2239 0.1933 0.28465 0.253834 0.1541 0.085
3636.812 0.086 0.2052 0.2133 0.108 0.119 0.2249 0.2157 0.107 0.14 0.26955
3656.105 0.3215 0.1869 0.054 0.098 0.1606 0.184 0.184 0.2424 0.1775 0.08
3675.398 0.126 0.077 0.101 0.2064 0.31072 0.28013 0.146 0.15 0.2055 0.2044
3694.692 0.26647 0.2389 0.069 0.055 0.1627 0.2165 0.30177 0.29263 0.1673 0.1692
3713.985 0.1771 0.1928 0.2354 0.207 0.1901 0.1915 0.2186 0.2251 0.1719 0.1614
3733.279 0.1908 0.232 0.1885 0.154 0.1568 0.1833 0.2445 0.262942 0.27719 0.30957
3752.572 0.22 0.124 0.1768 0.142 0.116 0.2405 0.253318 0.139 0.2209 0.32359
3771.866 0.2948 0.3037 0.29496 0.2422 0.1599 0.2122 0.254814 0.222 0.2292 0.255354
3791.159 0.27685 0.26954 0.29139 0.223 0.142 0.26507 0.30203 0.2395 0.2201 0.1884
3810.452 0.1945 0.154 0.146 0.1899 0.26577 0.29438 0.27514 0.2406 0.2035 0.2118
3829.746 0.27579 0.3605 0.28731 0.1681 0.126 0.1581 0.2291 0.32813 0.3801 0.32909
3849.039 0.243 0.106 0.1756 0.2379 0.2311 0.32385 0.28841 0.1918 0.2149 0.27242
3868.333 0.26513 0.2232 0.142 0.1613 0.263978 0.262554 0.25274 0.26764 0.2425 0.1894
3887.626 0.179 0.2087 0.2375 0.24777 0.1808 0.2003 0.31938 0.29531 0.2104 0.2276
3906.920 0.26598 0.28336 0.29157 0.27519 0.28124 0.33631 0.29315 0.255148 0.2052 0.1932
3926.213 0.29463 0.27583 0.26439 0.26603 0.2095 0.30381 0.34704 0.30391 0.27183 0.2085
3945.506 0.2403 0.32618 0.3767 0.28026 0.2122 0.2193 0.2302 0.2962 0.30597 0.32638
3964.800 0.2956 0.2337 0.253964 0.28753 0.28996 0.2301 0.260508 0.3551 0.28252 0.185
3984.093 0.25005 0.206 0.1686 0.31525 0.4086 0.415 0.35283 0.29958 0.28563
##END=
