##TITLE=Ethyl p-(p-pentyloxybenzylidene)aminobenzoate
##JCAMP-DX=4.24
##DATA TYPE=INFRARED SPECTRUM
##ORIGIN=EPA-IR VAPOR PHASE LIBRARY
##OWNER=SRD/NIST
Collection (C) 2018 copyright by the U.S. Secretary of Commerce
on behalf of the United States of America. All rights reserved.
##CAS REGISTRY NO=37168-42-6
##MOLFORM=C 21 H 25 N O 3
##$NIST SOURCE=MSDC-IR
##STATE=gas
##XUNITS=1/CM
##YUNITS=ABSORBANCE
##XFACTOR=1.
##YFACTOR=0.001
##DELTAX=1.92898
##FIRSTX=549.8
##LASTX=4000.7
##FIRSTY=2.022
##MAXX=4000.7
##MINX=549.759
##MAXY=0.088782
##MINY=0
##NPOINTS=1790
##XYDATA=(X++(Y..Y))
549.759 2.022 2.002 2.082 1.782 1.722 1.892 1.822 1.722 1.612 1.722
569.049 2.092 2.122 2.132 2.252 2.222 2.242 2.052 1.872 1.762 1.752
588.339 1.592 1.232 1.0748 0.88 0.725 0.852 0.8595 0.7532 0.6947 0.6694
607.628 0.6081 0.6099 0.6194 0.4228 0.2923 0.5301 0.7867 0.8242 0.7901 0.8012
626.918 0.8983 1.0208 1.172 1.432 1.562 1.472 1.402 1.152 0.8002 0.7603
646.208 1.0129 1.262 1.382 1.452 1.732 2.282 2.802 3.202 3.602 3.642
665.498 3.432 3.152 2.792 2.392 2.132 1.852 1.522 1.392 1.442 1.472
684.787 1.432 1.442 1.582 1.652 1.732 2.092 2.292 2.302 2.492 2.642
704.077 2.662 2.582 2.352 2.132 1.872 1.742 1.642 1.402 1.422 1.552
723.367 1.512 1.432 1.392 1.372 1.392 1.362 1.282 1.302 1.412 1.492
742.657 1.502 1.512 1.522 1.672 1.922 2.132 2.292 2.512 2.652 2.752
761.947 2.992 3.422 3.732 3.972 4.422 4.552 4.582 4.432 3.952 3.712
781.236 3.572 3.352 2.992 2.752 2.592 2.492 2.472 2.382 2.342 2.352
800.526 2.402 2.522 2.582 2.532 2.572 2.652 2.792 3.012 3.072 3.312
819.816 3.902 4.422 5.122 5.472 5.492 5.952 6.422 6.562 6.642 6.582
839.106 6.732 7.052 7.332 7.722 8.122 8.372 8.382 7.992 7.422 6.772
858.395 5.942 5.332 4.922 4.572 4.302 4.222 4.402 4.592 4.622 4.752
877.685 4.792 4.852 5.372 6.002 6.662 7.292 7.772 7.922 7.432 6.572
896.975 5.602 4.712 4.112 3.612 3.152 2.912 2.852 2.832 2.652 2.492
916.265 2.472 2.412 2.252 2.052 1.902 1.752 1.772 1.872 1.912 1.792
935.555 1.752 1.782 1.752 1.762 1.782 1.792 1.872 1.882 1.912 1.972
954.844 1.942 2.022 2.262 2.382 2.502 2.642 2.652 2.772 3.132 3.322
974.134 3.462 3.762 3.892 4.012 4.232 4.552 4.862 5.162 5.542 5.982
993.424 6.412 6.782 7.012 7.332 7.642 8.012 8.622 9.242 9.862 10.892
1012.714 12.312 13.342 13.462 12.822 12.032 11.312 10.702 10.202 9.812 9.332
1032.003 9.042 8.742 8.342 7.842 7.542 7.442 7.402 7.342 7.152 6.732
1051.293 6.002 5.552 5.282 5.202 4.932 4.652 4.852 5.032 5.422 5.982
1070.583 6.392 6.922 7.422 8.062 8.882 9.632 11.032 12.912 15.222 17.842
1089.873 20.742 24.512 28.532 32.372 35.632 37.952 39.862 41.752 42.622 41.692
1109.163 38.632 33.712 28.622 24.142 20.032 16.832 14.392 12.272 10.782 9.572
1128.452 8.522 7.762 7.522 7.462 7.142 7.212 7.782 8.272 8.732 9.992
1147.742 11.522 13.512 16.882 22.182 30.772 44.832 64.452 82.842 88.782 77.782
1167.032 58.072 40.082 27.872 20.392 15.842 12.972 11.272 10.452 10.202 10.812
1186.322 12.222 13.852 15.152 15.562 14.822 13.302 11.592 10.802 10.652 10.642
1205.611 11.032 11.872 13.092 14.412 15.502 16.732 18.392 20.152 22.342 25.042
1224.901 27.922 30.632 33.312 35.872 38.112 40.202 42.182 44.132 46.022 48.042
1244.191 50.362 52.752 54.912 56.512 57.552 58.502 59.652 61.542 65.102 70.702
1263.481 77.462 83.362 85.912 82.872 74.332 63.012 52.182 44.032 38.622 34.902
1282.771 31.912 29.072 26.112 23.482 21.512 20.112 19.222 18.782 18.932 19.472
1302.060 19.972 19.762 18.462 16.532 14.502 12.682 11.072 9.702 8.652 7.742
1321.350 6.992 6.412 5.902 5.512 5.212 4.982 4.792 4.552 4.412 4.392
1340.640 4.362 4.322 4.302 4.312 4.332 4.322 4.342 4.452 4.672 4.952
1359.930 5.332 5.892 6.722 7.812 8.912 9.332 8.702 7.562 6.562 6.082
1379.219 5.902 5.882 6.002 6.212 6.342 6.322 6.182 5.962 5.712 5.472
1398.509 5.332 5.282 5.332 5.552 5.952 6.532 7.172 7.592 7.832 8.112
1417.799 8.412 8.602 8.232 7.242 6.022 5.042 4.452 4.082 3.862 3.832
1437.089 3.832 3.822 3.882 3.962 4.042 4.162 4.252 4.422 4.612 4.822
1456.378 5.132 5.442 5.692 6.112 6.692 7.302 8.152 9.152 9.982 10.262
1475.668 9.882 9.062 8.072 7.132 6.442 6.022 5.832 5.852 6.122 6.682
1494.958 7.572 8.872 10.712 13.322 16.972 21.582 27.002 31.622 33.382 31.332
1514.248 26.212 20.252 15.262 11.922 9.622 8.162 7.042 6.162 5.482 4.932
1533.538 4.532 4.242 4.072 4.022 4.042 4.022 4.052 4.182 4.312 4.492
1552.827 4.702 4.982 5.462 6.162 7.022 8.132 9.672 11.682 14.212 17.372
1572.117 20.752 23.502 24.742 24.232 22.922 22.632 24.622 28.892 35.242 43.382
1591.407 52.662 61.452 67.452 68.272 63.252 54.222 44.112 35.372 28.582 23.342
1610.697 19.402 16.322 14.062 12.532 11.662 11.472 11.832 12.742 14.172 16.252
1629.986 18.702 20.892 22.012 21.562 19.632 16.942 14.172 11.892 10.112 8.652
1649.276 7.602 6.852 6.142 5.542 5.112 4.762 4.462 4.282 4.142 3.952
1668.566 3.792 3.692 3.572 3.482 3.432 3.322 3.232 3.222 3.222 3.222
1687.856 3.292 3.412 3.532 3.592 3.602 3.622 3.662 3.792 3.992 4.272
1707.146 4.602 5.022 5.532 6.162 7.022 8.122 9.572 11.372 13.752 16.752
1726.435 20.562 25.282 31.112 37.652 44.042 47.302 45.362 39.172 32.022 25.912
1745.725 21.032 17.082 13.892 11.282 9.182 7.612 6.412 5.522 4.832 4.222
1765.015 3.762 3.402 3.152 2.942 2.742 2.622 2.492 2.392 2.342 2.312
1784.305 2.272 2.242 2.202 2.072 1.942 1.842 1.742 1.632 1.532 1.442
1803.594 1.342 1.282 1.212 1.222 1.222 1.192 1.0834 0.9612 1.0061 0.9995
1822.884 0.9245 0.8776 0.8505 0.8787 0.9066 0.9066 0.8902 0.826 0.8682 0.962
1842.174 0.9285 0.9119 0.9258 0.904 0.8965 0.8914 0.8837 0.9068 0.9334 0.9175
1861.464 0.9055 0.9218 0.9221 0.9256 0.968 0.9671 0.9278 0.9446 0.9645 0.9805
1880.754 1.0185 1.0558 1.1103 1.162 1.162 1.132 1.1211 1.162 1.172 1.1099
1900.043 1.142 1.182 1.192 1.202 1.232 1.252 1.212 1.182 1.212 1.242
1919.333 1.242 1.262 1.252 1.242 1.252 1.242 1.212 1.172 1.192 1.202
1938.623 1.142 1.132 1.1144 1.0957 1.0652 0.9934 1.0384 1.0627 1.0194 1.008
1957.913 0.9944 0.9859 0.9639 0.9354 0.9509 0.9731 0.9595 0.9656 0.9729 0.9506
1977.202 0.9352 0.9217 0.9286 0.9411 0.9237 0.9163 0.9174 0.9055 0.9294 0.9616
1996.492 1.0015 1.0308 1.0495 1.0613 1.0799 1.0982 1.1 1.1193 1.152 1.182
2015.782 1.192 1.232 1.242 1.212 1.182 1.152 1.192 1.142 1.0605 1.0606
2035.072 1.077 1.0617 1.0851 1.0995 1.0485 1.0663 1.0876 1.0627 1.1144 1.162
2054.362 1.152 1.1102 1.0602 1.0343 0.9986 0.9725 0.9442 0.9128 0.9454 0.9697
2073.651 0.9634 0.947 0.9454 0.9357 0.9243 0.9698 0.9602 0.9177 0.8982 0.8892
2092.941 0.8492 0.8063 0.8385 0.8619 0.8334 0.8286 0.8282 0.8319 0.8077 0.7815
2112.231 0.774 0.7729 0.7809 0.7784 0.7966 0.775 0.7762 0.803 0.7365 0.7007
2131.521 0.7242 0.701 0.6927 0.661 0.6509 0.5871 0.5311 0.5592 0.558 0.5491
2150.810 0.5512 0.5284 0.5119 0.5778 0.5798 0.543 0.5364 0.4936 0.5265 0.573
2170.100 0.5444 0.5083 0.5294 0.5539 0.583 0.6024 0.5559 0.4984 0.4643 0.466
2189.390 0.4002 0.3647 0.3805 0.3963 0.412 0.4508 0.5034 0.4704 0.415 0.4128
2208.680 0.4318 0.4786 0.5076 0.4459 0.4055 0.4381 0.4701 0.4257 0.4323 0.5056
2227.970 0.4603 0.3859 0.3776 0.405 0.4674 0.4738 0.4185 0.3703 0.4115 0.4761
2247.259 0.4393 0.5003 0.5669 0.5222 0.5511 0.5456 0.5318 0.5696 0.5759 0.5875
2266.549 0.5697 0.5657 0.5711 0.5755 0.5945 0.6022 0.5803 0.5813 0.5405 0.5039
2285.839 0.5971 0.668 0.6055 0.5514 0.589 0.5815 0.5411 0.5202 0.4859 0.4435
2305.129 0.4921 0.556 0.4995 0.48 0.5184 0.5616 0.5758 0.545 0.5835 0.6367
2324.418 0.5802 0.56 0.5955 0.6072 0.6304 0.5762 0.5153 0.5294 0.6098 0.6385
2343.708 0.5748 0.5291 0.5647 0.6393 0.6334 0.6529 0.6823 0.6804 0.7129 0.7053
2362.998 0.6905 0.6786 0.6492 0.6887 0.7498 0.7664 0.7405 0.7174 0.7553 0.7678
2382.288 0.7251 0.7135 0.6692 0.6452 0.6558 0.6892 0.7251 0.728 0.8097 0.8041
2401.578 0.7327 0.7416 0.7713 0.7739 0.7535 0.6992 0.6583 0.6797 0.7422 0.738
2420.867 0.7278 0.7733 0.7999 0.774 0.7042 0.7008 0.7234 0.6732 0.7436 0.7932
2440.157 0.711 0.7399 0.7735 0.7703 0.7807 0.7756 0.7838 0.7887 0.799 0.8362
2459.447 0.8343 0.8371 0.8861 0.8987 0.8481 0.8146 0.8476 0.9053 0.8743 0.8523
2478.737 0.8484 0.8776 0.9575 0.9499 0.8998 0.8812 0.898 0.8754 0.8876 0.8907
2498.026 0.8318 0.8406 0.9055 0.9345 0.8821 0.8681 0.897 0.901 0.9128 0.9385
2517.316 0.9318 0.8627 0.8306 0.8966 0.9129 0.844 0.8132 0.8481 0.8923 0.9661
2536.606 1.0088 1.0341 1.0743 1.072 1.0938 1.152 1.142 1.1036 1.142 1.142
2555.896 1.142 1.1169 1.0406 1.0571 1.0856 1.0315 1.0209 1.013 0.9932 0.9736
2575.186 0.935 0.8795 0.8406 0.9013 0.894 0.8623 0.8796 0.8609 0.8068 0.7682
2594.475 0.7794 0.7701 0.778 0.7928 0.7225 0.6633 0.6617 0.6763 0.6744 0.6555
2613.765 0.6128 0.5987 0.6348 0.5945 0.6101 0.6454 0.5514 0.5752 0.5968 0.5511
2633.055 0.5264 0.5063 0.468 0.4458 0.4413 0.3989 0.4231 0.4771 0.4774 0.4855
2652.345 0.4884 0.4215 0.4066 0.424 0.447 0.4225 0.4465 0.5329 0.5373 0.5177
2671.634 0.4912 0.5134 0.6076 0.6249 0.5359 0.4931 0.5341 0.5597 0.514 0.4926
2690.924 0.4749 0.5026 0.526 0.4846 0.5199 0.5458 0.5763 0.626 0.6478 0.6327
2710.214 0.6116 0.669 0.7007 0.6717 0.6962 0.6709 0.6687 0.7293 0.7196 0.7749
2729.504 0.8384 0.8215 0.9008 0.9786 0.9693 0.9973 0.988 1.0124 1.0806 1.0277
2748.794 1.0342 1.1122 1.0646 1.0308 1.1063 1.152 1.098 1.0654 1.113 1.116
2768.083 1.1016 1.0934 1.1007 1.1081 1.0599 1.1206 1.152 1.0982 1.0122 0.9658
2787.373 1.0474 1.1129 1.162 1.182 1.192 1.152 1.1237 1.192 1.222 1.232
2806.663 1.232 1.252 1.252 1.282 1.412 1.472 1.502 1.612 1.682 1.772
2825.953 1.822 1.852 1.962 2.082 2.172 2.282 2.512 2.732 2.892 3.082
2845.242 3.372 3.742 4.122 4.512 4.962 5.462 5.932 6.282 6.682 7.142
2864.532 7.512 7.962 8.392 8.722 8.952 9.112 9.302 9.512 9.632 9.692
2883.822 9.782 9.632 9.412 9.102 8.592 8.272 8.092 7.922 7.882 7.902
2903.112 8.002 8.202 8.422 8.652 9.022 9.452 9.832 10.172 10.482 10.792
2922.401 11.142 11.662 12.212 12.792 13.472 14.292 15.132 15.882 16.632 17.302
2941.691 17.742 17.952 17.812 17.282 16.532 15.812 15.302 15.052 15.082 15.222
2960.981 15.592 16.032 16.372 16.712 16.872 16.702 16.092 15.112 14.152 13.432
2980.271 13.012 12.772 12.492 11.812 10.672 9.472 8.462 7.702 7.162 6.632
2999.561 6.112 5.822 5.492 5.152 4.862 4.562 4.292 3.992 3.642 3.342
3018.850 3.172 3.022 2.872 2.872 2.932 2.962 3.092 3.302 3.512 3.702
3038.140 3.762 3.622 3.372 3.122 2.912 2.742 2.582 2.422 2.382 2.282
3057.430 2.152 2.142 2.202 2.202 2.272 2.432 2.572 2.842 3.062 3.162
3076.720 3.212 3.032 2.782 2.642 2.532 2.412 2.342 2.422 2.392 2.262
3096.009 2.212 2.152 2.062 1.962 1.762 1.622 1.532 1.392 1.292 1.282
3115.299 1.222 1.132 1.142 1.0364 0.9386 0.9441 0.9171 0.8879 0.8904 0.8371
3134.589 0.759 0.7605 0.7847 0.7841 0.7092 0.7178 0.7581 0.745 0.6575 0.5455
3153.879 0.6497 0.6532 0.5304 0.4912 0.4619 0.4256 0.4772 0.5396 0.5511 0.5306
3173.169 0.5663 0.589 0.5658 0.6016 0.6304 0.6008 0.5867 0.6336 0.5861 0.5577
3192.458 0.6588 0.6495 0.6324 0.6375 0.5584 0.5678 0.5444 0.5653 0.5602 0.3878
3211.748 0.4348 0.572 0.5398 0.4785 0.497 0.5311 0.5509 0.4818 0.4503 0.541
3231.038 0.4581 0.4379 0.549 0.5374 0.4366 0.3354 0.3512 0.4135 0.4495 0.446
3250.328 0.4778 0.5621 0.5464 0.5496 0.5698 0.6025 0.605 0.5678 0.5371 0.5157
3269.617 0.4019 0.3028 0.4351 0.4329 0.3852 0.4776 0.4971 0.4756 0.4293 0.3698
3288.907 0.3409 0.3662 0.337 0.2447 0.2508 0.18405 0.1158 0.0701 0.1131 0.21542
3308.197 0.2782 0.22587 0.15756 0.2473 0.2553 0.2776 0.232 0.19554 0.2224 0.1142
3327.487 0.2469 0.3885 0.3229 0.3254 0.3771 0.399 0.3772 0.3326 0.3016 0.3453
3346.777 0.3232 0.3209 0.3489 0.2674 0.2712 0.251 0.19421 0.1879 0.15345 0.16688
3366.066 0.19126 0.20249 0.22837 0.2326 0.2358 0.2579 0.22797 0.14367 0.16711 0.16913
3385.356 0.18151 0.2906 0.2371 0.12716 0.133156 0.14882 0.13276 0.19938 0.3104 0.2902
3404.646 0.21238 0.253 0.3028 0.3447 0.2928 0.0876 0.16743 0.3924 0.2825 0.1758
3423.936 0.21041 0.19254 0.243 0.307 0.2766 0.3761 0.4602 0.379 0.2765 0.3509
3443.225 0.4669 0.4553 0.4771 0.5781 0.6741 0.6565 0.5819 0.5308 0.4544 0.4457
3462.515 0.4707 0.3655 0.3447 0.3565 0.3122 0.3251 0.402 0.3878 0.4118 0.3967
3481.805 0.2824 0.2916 0.3031 0.3227 0.21161 0.1155 0.1614 0.19281 0.21374 0.15849
3501.095 0.16009 0.17362 0.20647 0.3314 0.2894 0.2797 0.3338 0.3032 0.3136 0.20659
3520.385 0.0938 0.17743 0.2588 0.2661 0.18133 0.15483 0.18043 0.0831 0.0656 0.1143
3539.674 0.1197 0.1129 0.20147 0.20975 0.134123 0.243 0.322 0.19139 0.1179 0.16927
3558.964 0.21788 0.21444 0.3136 0.3145 0.3048 0.2773 0.12871 0.17394 0.16532 0.131416
3578.254 0.12686 0.0954 0.141622 0.21279 0.17714 0.134136 0.15562 0.21527 0.1649 0.16206
3597.544 0.21068 0.16812 0.2633 0.3699 0.3901 0.3587 0.2514 0.22627 0.19997 0.1191
3616.833 0.17611 0.15557 0.0698 0.1106 0.14251 0.075 0.0605 0.121 0.1183 0.19138
3636.123 0.2626 0.3137 0.2754 0.19774 0.23097 0.3279 0.3971 0.2538 0.18788 0.236
3655.413 0.2468 0.1805 0.1682 0.2557 0.2539 0.2376 0.2528 0.306 0.2978 0.19885
3674.703 0.28 0.3278 0.2275 0.18068 0.18545 0.19814 0.2559 0.2984 0.20641 0.14071
3693.993 0.0852 0.2409 0.356 0.2521 0.19345 0.1673 0.1681 0.2594 0.3323 0.3397
3713.282 0.2704 0.18136 0.20403 0.3239 0.3798 0.3273 0.3137 0.2409 0.2496 0.3172
3732.572 0.20947 0.2284 0.3285 0.2676 0.2403 0.22592 0.19056 0.1677 0.2583 0.285
3751.862 0.22443 0.332 0.3392 0.2452 0.2991 0.3235 0.2571 0.3216 0.2975 0.0619
3771.152 0 0.18078 0.3156 0.3053 0.2658 0.2368 0.1794 0.16234 0.2584 0.3658
3790.441 0.3153 0.2577 0.2669 0.2481 0.2418 0.2548 0.2451 0.2336 0.22835 0.12931
3809.731 0.21575 0.3462 0.3325 0.3249 0.226 0.2359 0.3267 0.3961 0.3512 0.2457
3829.021 0.22326 0.2839 0.2828 0.1687 0.16241 0.2804 0.3256 0.3059 0.3496 0.323
3848.311 0.18274 0.16263 0.3045 0.3256 0.2615 0.19373 0.22549 0.2948 0.2779 0.2526
3867.601 0.3615 0.3511 0.20384 0.2807 0.3099 0.3614 0.3883 0.2763 0.2102 0.2549
3886.890 0.3299 0.2452 0.2376 0.2804 0.2499 0.2899 0.4122 0.3954 0.2483 0.12806
3906.180 0.17436 0.2775 0.19103 0.2368 0.23056 0.1885 0.23079 0.2648 0.3996 0.3262
3925.470 0.2674 0.2527 0.19601 0.22856 0.20149 0.17765 0.0878 0.1138 0.22796 0.22475
3944.760 0.1868 0.14657 0.2611 0.2623 0.2374 0.2978 0.2471 0.3077 0.2894 0.20052
3964.049 0.20489 0.17352 0.21992 0.3088 0.2774 0.22225 0.21871 0.2402 0.3188 0.3035
3983.339 0.16406 0.2338 0.3274 0.3323 0.3291 0.276 0.2703 0.2534 0.2429 0.1159
##END=
