##TITLE=1,2,4-Trifluorobenzene
##JCAMP-DX=4.24
##DATA TYPE=INFRARED SPECTRUM
##ORIGIN=NIST Mass Spectrometry Data Center
##OWNER=NIST Standard Reference Data Program
Collection (C) 2018 copyright by the U.S. Secretary of Commerce
on behalf of the United States of America. All rights reserved.
##CAS REGISTRY NO=372-38-3
##MOLFORM=C 6 H 3 F 3
##$NIST SOURCE=MSDC-IR
##SPECTROMETER/DATA SYSTEM=HP-GC/MS/IRD
##STATE=gas
##XUNITS=1/CM
##YUNITS=ABSORBANCE
##XFACTOR=1.0
##YFACTOR=0.000000700
##DELTAX=4.0
##FIRSTX=550.0
##LASTX=3846.0
##FIRSTY=0.000146
##MAXX=3846
##MINX=550
##MAXY=0.007
##MINY=0
##NPOINTS=825
##XYDATA=(X++(Y..Y))
550.0 208 227 197 264 328 254 358 415 419 577
590.0 689 521 386 519 463 454 344 194 247 188
630.0 59 168 259 234 210 29 79 239 251 183
670.0 150 133 73 89 190 278 234 168 144 178
710.0 256 425 705 826 788 802 872 735 489 377
750.0 310 335 374 505 906 1360 1673 1899 1991 1939
790.0 1629 1215 982 1162 1358 991 718 783 723 572
830.0 567 690 870 1050 1205 1633 2022 1494 1114 1037
870.0 813 615 392 256 234 235 152 135 203 193
910.0 225 263 273 311 316 299 353 323 329 518
950.0 737 1079 1343 1424 1393 1286 1039 710 444 288
990.0 278 278 254 276 256 183 119 45 122 230
1030.0 192 214 226 158 118 196 206 152 153 171
1070.0 178 184 279 402 544 675 779 861 879 783
1110.0 584 408 341 356 546 1134 2006 2540 2806 2751
1150.0 2590 1940 929 369 217 204 147 186 177 249
1190.0 514 943 1439 1667 1591 1636 1717 1366 917 739
1230.0 724 1016 1632 2178 2477 2675 2697 2367 1557 830
1270.0 518 348 300 345 374 442 544 687 905 1061
1310.0 1033 973 970 825 563 371 227 156 134 138
1350.0 136 108 97 102 133 146 143 182 209 201
1390.0 195 207 235 239 227 233 250 290 366 495
1430.0 643 735 775 857 978 946 812 725 661 578
1470.0 479 427 455 594 780 1046 1508 2229 3387 5203
1510.0 7486 9289 10000 9766 8873 7063 4536 2524 1465 1036
1550.0 790 611 537 465 389 338 330 369 387 453
1590.0 510 569 642 702 817 983 1157 1333 1424 1416
1630.0 1365 1167 860 628 496 438 370 305 245 196
1670.0 182 147 132 152 141 157 202 221 203 172
1710.0 157 143 141 137 108 86 89 95 124 133
1750.0 115 83 55 65 98 120 111 98 88 92
1790.0 107 107 132 132 110 98 85 96 112 131
1830.0 147 159 170 188 202 191 149 157 167 145
1870.0 130 128 139 128 125 129 125 111 117 119
1910.0 73 71 113 108 90 93 99 104 117 113
1950.0 87 59 54 96 103 93 96 46 48 84
1990.0 71 77 119 105 69 37 48 78 92 91
2030.0 92 106 92 79 107 109 79 88 79 55
2070.0 65 70 69 79 105 106 79 59 60 75
2110.0 93 81 65 48 44 51 38 81 92 43
2150.0 29 86 99 85 74 47 40 68 106 73
2190.0 64 89 127 84 23 36 61 71 58 80
2230.0 89 87 83 66 44 49 92 109 106 88
2270.0 65 58 51 60 69 91 105 82 66 67
2310.0 68 26 69 117 147 132 83 95 111 97
2350.0 60 35 105 129 98 77 45 34 63 107
2390.0 108 136 153 159 149 122 111 102 61 59
2430.0 88 93 87 81 118 150 146 105 110 93
2470.0 71 111 78 61 103 120 97 76 80 89
2510.0 90 61 59 110 115 85 88 106 82 28
2550.0 33 72 80 83 48 69 129 130 111 76
2590.0 76 99 128 116 103 105 84 90 94 107
2630.0 122 68 22 29 26 21 63 58 40 48
2670.0 33 84 151 164 94 51 80 101 95 94
2710.0 101 68 48 56 72 91 77 79 97 41
2750.0 0 77 109 128 155 184 142 89 97 94
2790.0 53 54 96 87 82 70 43 93 172 153
2830.0 128 112 127 137 80 58 66 133 168 152
2870.0 122 90 125 156 170 147 119 112 59 104
2910.0 146 78 31 48 88 130 169 117 103 148
2950.0 152 153 183 177 161 164 104 59 93 110
2990.0 145 170 138 136 154 101 53 84 140 154
3030.0 145 61 2 103 151 110 147 152 145 160
3070.0 172 144 105 125 188 240 199 245 276 218
3110.0 145 57 80 90 36 36 59 80 159 190
3150.0 101 56 114 118 114 159 170 125 45 83
3190.0 112 41 32 82 138 178 225 162 103 105
3230.0 96 131 81 73 60 76 109 104 127 109
3270.0 48 39 199 279 276 281 163 185 220 104
3310.0 94 178 194 74 38 106 141 149 157 147
3350.0 136 170 164 118 125 176 181 220 211 129
3390.0 132 126 147 184 208 206 85 63 135 138
3430.0 97 113 206 256 196 217 243 135 80 154
3470.0 157 103 145 174 160 160 159 205 233 202
3510.0 147 112 120 87 88 180 194 134 92 105
3550.0 152 133 128 153 157 158 156 169 154 193
3590.0 315 224 190 287 299 252 143 211 235 53
3630.0 124 231 218 253 198 173 266 209 229 259
3670.0 190 202 184 212 222 187 188 167 137 90
3710.0 110 237 240 269 263 123 181 175 101 180
3750.0 186 202 180 172 237 282 213 196 225 241
3790.0 276 133 73 138 97 52 141 203 206 182
3830.0 177 272 356 280 226
##END=
