##TITLE=Ethyl 3-hydroxy-4,4,4-trifluorobutyrate
##JCAMP-DX=4.24
##DATA TYPE=INFRARED SPECTRUM
##ORIGIN=EPA-IR VAPOR PHASE LIBRARY
##OWNER=SRD/NIST
Collection (C) 2018 copyright by the U.S. Secretary of Commerce
on behalf of the United States of America. All rights reserved.
##CAS REGISTRY NO=372-30-5
##MOLFORM=C 6 H 9 F 3 O 3
##$NIST SOURCE=MSDC-IR
##STATE=gas
##XUNITS=1/CM
##YUNITS=ABSORBANCE
##XFACTOR=1.
##YFACTOR=0.001
##DELTAX=1.92934
##FIRSTX=549.9
##LASTX=3999.5
##FIRSTY=14.58
##MAXX=3999.53
##MINX=549.863
##MAXY=0.37535
##MINY=0
##NPOINTS=1789
##XYDATA=(X++(Y..Y))
549.863 14.58 14.9 14.96 15.27 15.66 15.78 15.68 15.56 15.18 14.66
569.156 14.18 13.26 12.59 12.14 11.37 10.91 10.52 10 9.69 9.44
588.450 9.32 9.38 9.3 8.94 9.01 9.2 9.27 9.53 9.65 9.62
607.743 9.66 9.8 9.78 9.68 9.62 9.63 9.72 9.84 10.05 10.28
627.037 10.57 11.07 11.72 12.41 13.25 14.49 15.99 17.79 20.02 22.56
646.330 25.31 28.04 30.38 32.18 33.49 34.11 33.8 32.67 30.9 28.63
665.624 26.17 23.68 21.19 18.74 16.49 14.55 12.83 11.37 10.14 9.13
684.917 8.32 7.64 7.12 6.74 6.39 6.1 5.83 5.65 5.52 5.42
704.210 5.39 5.34 5.32 5.25 5.25 5.31 5.34 5.43 5.49 5.45
723.504 5.47 5.53 5.58 5.57 5.52 5.47 5.32 5.21 5.2 5.14
742.797 4.99 4.89 4.83 4.76 4.74 4.82 4.82 4.76 4.76 4.79
762.091 4.87 4.95 4.97 5.04 5.09 5.18 5.28 5.3 5.41 5.5
781.384 5.59 5.62 5.66 5.78 5.87 5.95 5.98 6 6 5.99
800.678 6.01 6.02 5.97 5.92 5.9 5.89 5.91 5.92 5.97 6.05
819.971 6.14 6.18 6.28 6.45 6.64 6.93 7.16 7.41 7.81 8.24
839.264 8.64 9.2 9.78 10.24 10.77 11.31 11.85 12.44 13.17 13.89
858.558 14.75 15.91 17.12 18.53 20.16 21.85 23.53 25 26.14 26.94
877.851 27.25 26.95 26.13 24.93 23.49 21.94 20.35 18.85 17.58 16.6
897.145 15.7 14.93 14.34 13.78 13.19 12.73 12.46 12.27 12.22 12.35
916.438 12.61 12.97 13.5 14.26 15.12 16.03 16.96 17.84 18.72 19.55
935.732 20.23 20.8 21.14 21.27 21.25 21.02 20.71 20.23 19.57 18.84
955.025 18.03 17.16 16.32 15.5 14.67 13.98 13.42 12.91 12.63 12.54
974.318 12.6 12.77 13.02 13.35 13.87 14.6 15.5 16.51 17.7 19.13
993.612 20.8 22.7 24.8 27.21 29.96 33.03 36.43 40.19 44.25 48.64
1012.905 53.19 57.73 62.15 66.18 69.72 72.56 74.49 75.54 75.77 75.26
1032.199 74.04 72.36 70.4 68.15 65.56 62.7 59.85 56.96 54.13 51.53
1051.492 49.13 47.08 45.43 44.11 43.15 42.56 42.33 42.53 43.14 44.14
1070.786 45.67 47.65 50.18 53.37 57.1 61.36 66.06 71.26 76.81 82.47
1090.079 88.13 93.6 98.7 103.3 107.32 110.83 113.97 116.75 119.2 121.63
1109.372 124.18 126.87 129.99 133.62 137.93 143.5 150.61 159.45 170.28 183.28
1128.666 198.44 215.1 232.52 249.77 265.68 279.06 288.77 294.64 296.54 293.9
1147.959 287.57 279.18 269.99 261.69 255.63 252.56 253.23 257.73 265.78 277.14
1167.253 291.42 307.86 325.05 341.77 356.44 367.42 373.93 375.35 371.53 362.97
1186.546 350.47 335.29 318.63 301.52 285.04 269.34 254.87 241.69 229.25 218.3
1205.840 208.48 199.7 192.13 184.77 178.06 172.53 167.22 162.38 158.51 155.24
1225.133 152.5 150.32 148.43 146.9 146.18 145.85 145.3 144.83 144.58 144.26
1244.426 144.01 143.88 143.86 143.82 143.78 143.75 143.81 144.19 144.7 145.53
1263.720 146.66 147.83 149.42 151.1 152.64 154.14 155.29 156.13 156.65 156.66
1283.013 156.19 155.22 153.85 152.04 149.68 147.04 144.11 140.91 137.77 134.77
1302.307 131.96 129.59 127.81 126.57 125.87 125.73 125.89 126.06 126.02 125.39
1321.600 123.72 120.75 116.38 110.63 103.76 96.12 88.04 80.1 72.79 66.39
1340.894 61.07 56.84 53.54 51.01 49.11 47.6 46.19 44.96 44.06 43.63
1360.187 43.86 44.94 47.05 50.23 54.22 58.57 62.81 66.62 69.42 70.66
1379.480 70.17 68.3 65.51 62.27 58.79 55.35 52.43 50.05 48.12 46.59
1398.774 45.28 44.09 42.99 41.88 40.87 40.12 39.66 39.53 39.63 39.83
1418.067 40.04 40.11 39.9 39.52 38.92 37.99 36.82 35.51 34.14 32.78
1437.361 31.33 29.9 28.59 27.38 26.2 25.15 24.25 23.33 22.61 22.04
1456.654 21.43 20.96 20.67 20.55 20.52 20.56 20.53 20.32 19.95 19.36
1475.948 18.54 17.55 16.41 15.27 14.18 13.14 12.17 11.29 10.6 9.95
1495.241 9.38 8.94 8.47 8.07 7.74 7.44 7.19 6.93 6.74 6.56
1514.534 6.41 6.25 6.08 5.97 5.84 5.77 5.73 5.6 5.47 5.42
1533.828 5.33 5.26 5.17 5.02 4.94 4.94 4.89 4.86 4.82 4.74
1553.121 4.68 4.64 4.57 4.52 4.54 4.48 4.46 4.47 4.43 4.48
1572.415 4.51 4.46 4.45 4.5 4.49 4.54 4.57 4.54 4.57 4.6
1591.708 4.66 4.64 4.54 4.52 4.53 4.5 4.43 4.33 4.25 4.24
1611.002 4.31 4.29 4.26 4.29 4.26 4.27 4.32 4.34 4.35 4.38
1630.295 4.41 4.42 4.5 4.58 4.6 4.62 4.62 4.66 4.76 4.8
1649.588 4.9 5.04 5.15 5.23 5.34 5.46 5.54 5.68 5.84 6.01
1668.882 6.25 6.52 6.74 6.94 7.21 7.54 7.88 8.26 8.78 9.29
1688.175 9.78 10.4 11.12 11.9 12.72 13.62 14.76 16.1 17.41 18.93
1707.469 20.68 22.72 25.1 27.85 31.09 34.86 39.29 44.31 50.18 56.85
1726.762 64.17 71.97 80.2 88.46 96.81 104.82 112.14 119.06 125.41 131.26
1746.056 136.59 141.46 145.8 149.69 152.8 154.65 154.85 153.04 148.95 142.84
1765.349 134.97 125.21 113.89 101.84 89.04 76.65 65.24 55.06 46.29 39.02
1784.642 33.11 28.39 24.69 21.75 19.37 17.45 15.82 14.48 13.35 12.34
1803.936 11.46 10.66 9.97 9.41 8.88 8.39 7.99 7.58 7.22 6.9
1823.229 6.64 6.39 6.15 5.94 5.75 5.57 5.45 5.3 5.18 5.01
1842.523 4.87 4.79 4.73 4.66 4.58 4.51 4.45 4.39 4.39 4.36
1861.816 4.33 4.3 4.27 4.25 4.17 4.17 4.15 4.15 4.12 4.08
1881.110 4.03 3.9787 3.9595 3.9021 3.849 3.8202 3.7358 3.7 3.6792 3.6353
1900.403 3.5905 3.5111 3.4833 3.4646 3.4015 3.3512 3.3178 3.2675 3.2248 3.2126
1919.696 3.2635 3.2452 3.2059 3.1811 3.1673 3.1974 3.1869 3.1763 3.17 3.1684
1938.990 3.1663 3.1337 3.1197 3.1661 3.204 3.2178 3.2249 3.2167 3.1833 3.1559
1958.283 3.1721 3.2113 3.2303 3.2303 3.2468 3.2383 3.1625 3.1617 3.223 3.1958
1977.577 3.1468 3.1793 3.2535 3.2568 3.2335 3.2681 3.295 3.2827 3.2751 3.2803
1996.870 3.2596 3.2981 3.3263 3.2901 3.3024 3.3033 3.2914 3.3285 3.3417 3.3329
2016.164 3.3447 3.3156 3.2838 3.2601 3.2721 3.3207 3.3307 3.2852 3.2695 3.2717
2035.457 3.2505 3.2568 3.2553 3.2042 3.1768 3.1757 3.1506 3.1309 3.1448 3.1712
2054.750 3.1849 3.1777 3.1308 3.07326 3.0872 3.1006 3.07236 3.07585 3.0868 3.1007
2074.044 3.1006 3.111 3.0849 3.0532 3.06898 3.0802 3.0938 3.0764 3.03352 3.01342
2093.337 2.97526 2.9481 2.9586 2.9089 2.868 2.8804 2.879 2.856 2.852 2.869
2112.631 2.837 2.815 2.802 2.752 2.728 2.74 2.758 2.73 2.697 2.649
2131.924 2.591 2.591 2.623 2.633 2.613 2.604 2.582 2.55 2.549 2.555
2151.218 2.569 2.557 2.551 2.549 2.516 2.514 2.513 2.496 2.469 2.473
2170.511 2.489 2.474 2.448 2.418 2.417 2.405 2.394 2.385 2.399 2.423
2189.804 2.382 2.361 2.355 2.369 2.388 2.379 2.363 2.383 2.379 2.354
2209.098 2.381 2.426 2.453 2.47 2.493 2.478 2.453 2.454 2.467 2.508
2228.391 2.528 2.517 2.498 2.52 2.567 2.558 2.584 2.583 2.527 2.542
2247.685 2.565 2.557 2.572 2.6 2.656 2.659 2.632 2.637 2.627 2.643
2266.978 2.633 2.639 2.672 2.693 2.698 2.676 2.673 2.692 2.68 2.678
2286.272 2.678 2.644 2.657 2.712 2.751 2.753 2.72 2.731 2.778 2.795
2305.565 2.857 2.9024 2.9267 2.97812 3.02034 3.05964 3.0915 3.1207 3.1101 3.1158
2324.858 3.1683 3.1494 3.0903 3.0948 3.0927 3.0965 3.1389 3.1141 3.106 3.0877
2344.152 3.06348 3.07525 3.03149 2.97834 2.99003 2.99701 3.00089 3.00622 2.99984 3.00384
2363.445 2.9606 2.964 3.00357 2.99283 2.9665 2.9277 2.9059 2.9238 2.9148 2.858
2382.739 2.811 2.857 2.869 2.859 2.9 2.9319 2.9245 2.9316 2.9325 2.9254
2402.032 2.9264 2.859 2.808 2.87 2.855 2.812 2.842 2.827 2.799 2.725
2421.326 2.694 2.717 2.688 2.663 2.645 2.59 2.54 2.527 2.512 2.497
2440.619 2.426 2.366 2.371 2.384 2.385 2.354 2.326 2.326 2.33 2.276
2459.912 2.247 2.284 2.269 2.273 2.27 2.236 2.264 2.25 2.209 2.152
2479.206 2.132 2.17 2.156 2.152 2.151 2.098 2.068 2.029 2.005 2.018
2498.499 2.062 2.07 2.015 1.96 1.96 1.989 1.96 1.92 1.89 1.86
2517.793 1.86 1.86 1.82 1.92 1.94 1.84 1.78 1.79 1.87 1.84
2537.086 1.79 1.79 1.82 1.81 1.79 1.77 1.76 1.77 1.78 1.8
2556.380 1.81 1.81 1.83 1.81 1.8 1.8 1.75 1.77 1.79 1.77
2575.673 1.69 1.66 1.71 1.72 1.72 1.74 1.74 1.7 1.67 1.66
2594.966 1.58 1.6 1.65 1.64 1.6 1.56 1.57 1.62 1.63 1.58
2614.260 1.51 1.52 1.56 1.56 1.53 1.46 1.42 1.47 1.48 1.47
2633.553 1.49 1.49 1.43 1.44 1.49 1.47 1.44 1.41 1.39 1.39
2652.847 1.37 1.36 1.39 1.4 1.36 1.35 1.44 1.47 1.46 1.42
2672.140 1.43 1.46 1.47 1.52 1.5 1.48 1.5 1.48 1.42 1.43
2691.434 1.48 1.49 1.45 1.41 1.39 1.36 1.37 1.35 1.31 1.32
2710.727 1.27 1.2 1.2 1.28 1.36 1.34 1.34 1.37 1.38 1.39
2730.020 1.41 1.48 1.42 1.3 1.3 1.33 1.38 1.46 1.46 1.4
2749.314 1.4 1.42 1.54 1.54 1.51 1.58 1.58 1.55 1.53 1.58
2768.607 1.67 1.71 1.74 1.67 1.63 1.69 1.65 1.66 1.71 1.7
2787.901 1.74 1.75 1.68 1.68 1.71 1.77 1.83 1.81 1.73 1.75
2807.194 1.85 1.86 1.98 2.092 2.164 2.193 2.214 2.262 2.233 2.288
2826.488 2.397 2.429 2.477 2.512 2.571 2.629 2.622 2.641 2.671 2.805
2845.781 2.9309 3.06872 3.217 3.327 3.4105 3.5077 3.6757 3.8543 4.03 4.25
2865.074 4.57 4.83 5.04 5.36 5.75 6.12 6.62 7.18 7.57 8
2884.368 8.46 8.71 8.93 9.15 9.35 9.48 9.63 9.73 9.93 10.32
2903.661 10.75 11.28 11.88 12.43 12.82 13.37 13.96 14.38 14.68 14.97
2922.955 15.45 16.01 16.71 17.61 18.54 19.81 21.6 23.47 25.26 27.17
2942.248 28.9 29.97 30.57 30.67 30.19 29.22 27.98 26.58 25.26 24.34
2961.542 23.93 23.87 24.11 24.81 25.75 27.05 28.76 30.73 33.23 36.39
2980.835 39.88 43.14 45.76 47.39 48.01 47.53 45.79 43.14 39.75 36.25
3000.128 33.11 30.37 28.1 26.02 24.04 22.11 20.18 18.33 16.61 14.96
3019.422 13.47 12.15 10.88 9.78 8.77 7.74 6.9 6.32 5.81 5.26
3038.715 4.76 4.41 4 3.6652 3.3356 3.00644 2.838 2.643 2.421 2.316
3058.009 2.371 2.209 1.92 1.86 1.81 1.74 1.57 1.4 1.3 1.27
3077.302 1.3 1.15 1.04 0.99 0.91 0.89 1 0.99 0.78 0.86
3096.596 0.9 0.86 0.8 0.75 0.83 0.73 0.75 0.88 0.86 0.92
3115.889 0.86 0.8 0.85 0.78 0.78 0.84 0.7 0.73 0.83 0.71
3135.182 0.61 0.57 0.54 0.6 0.7 0.57 0.5 0.61 0.69 0.67
3154.476 0.53 0.44 0.47 0.46 0.48 0.57 0.61 0.43 0.4 0.47
3173.769 0.45 0.56 0.51 0.44 0.35 0.32 0.34 0.2 0.28 0.33
3193.063 0.21 0.22 0.21 0.21 0.25 0.23 0.27 0.25 0.15 0.07
3212.356 0 0.09 0.18 0.2 0.19 0.2 0.09 0.09 0.17 0.2
3231.650 0.19 0.17 0.15 0.14 0.29 0.29 0.24 0.2 0.11 0.15
3250.943 0.19 0.1 0.16 0.17 0.06 0.15 0.18 0.19 0.09 0.09
3270.236 0.16 0.25 0.24 0.15 0.2 0.3 0.32 0.28 0.39 0.4
3289.530 0.35 0.41 0.46 0.41 0.33 0.31 0.31 0.33 0.43 0.5
3308.823 0.33 0.28 0.4 0.51 0.63 0.75 0.73 0.52 0.55 0.69
3328.117 0.72 0.71 0.74 0.74 0.76 0.69 0.62 0.73 0.8 0.82
3347.410 0.88 0.84 0.81 0.92 0.89 0.88 0.91 0.95 1.11 1.04
3366.704 0.91 0.91 0.93 1.08 1.12 1.02 1.07 1.15 1.09 1.18
3385.997 1.43 1.36 1.38 1.34 1.24 1.31 1.34 1.51 1.5 1.53
3405.290 1.71 1.76 1.67 1.69 1.78 1.86 1.98 1.995 1.94 1.97
3424.584 2.11 2.254 2.329 2.266 2.38 2.47 2.462 2.802 3.05167 2.97294
3443.877 3.1325 3.3495 3.313 3.4669 3.6055 3.7804 4.15 4.35 4.54 4.76
3463.171 4.86 4.98 5.13 5.31 5.55 5.74 5.98 6.18 6.39 6.94
3482.464 7.29 7.5 8.11 8.67 9.07 9.76 10.49 11.01 11.6 12.12
3501.758 12.6 13.01 13.23 13.36 13.39 13.32 13.21 13.02 12.91 12.87
3521.051 12.7 12.33 11.97 11.83 11.72 11.55 11.3 11.18 11.13 10.99
3540.344 10.95 10.97 11.01 10.99 10.85 10.8 10.85 10.89 10.86 10.9
3559.638 10.92 10.94 11.04 11.07 11.19 11.45 11.76 12.03 12.23 12.44
3578.931 12.53 12.6 12.69 12.64 12.45 12.29 12.15 11.84 11.58 11.39
3598.225 11.23 11.08 10.93 10.78 10.75 10.86 10.94 11.03 11.22 11.46
3617.518 11.73 11.94 12.22 12.59 12.96 13.45 13.93 14.24 14.53 14.81
3636.812 15.15 15.76 16.4 17.05 17.9 18.82 19.7 20.53 21.05 21.24
3656.105 20.96 20.23 19.16 17.74 16.39 14.78 13.08 11.61 10.1 8.94
3675.398 8.11 7.29 6.52 5.79 5.09 4.67 4.45 4.17 3.8487 3.4868
3694.692 3.2725 3.2246 3.03561 2.887 2.85 2.721 2.542 2.395 2.305 2.261
3713.985 2.296 2.267 2.172 2.113 1.96 1.89 1.95 1.97 1.97 1.91
3733.279 1.9 1.93 1.84 1.9 2 1.9 1.83 1.71 1.66 1.65
3752.572 1.68 1.75 1.76 1.74 1.65 1.63 1.77 1.81 1.74 1.63
3771.866 1.62 1.66 1.7 1.8 1.85 1.84 1.74 1.67 1.76 1.84
3791.159 1.87 1.9 1.87 1.85 1.81 1.78 1.79 1.76 1.79 1.9
3810.452 1.93 1.98 1.94 1.82 1.985 2.067 1.94 1.88 2.01 2.041
3829.746 2.071 2.106 2.069 2.133 2.036 1.94 1.981 2.036 1.94 1.85
3849.039 1.91 1.98 1.986 1.9 1.9 1.999 2.031 1.9 1.9 1.9
3868.333 1.78 1.88 2.006 2.027 1.92 1.79 1.77 1.81 1.91 1.84
3887.626 1.78 1.88 1.86 1.85 1.81 1.7 1.66 1.82 1.86 1.72
3906.920 1.71 1.71 1.73 1.77 1.85 1.79 1.67 1.66 1.75 1.77
3926.213 1.76 1.81 1.82 1.79 1.8 1.76 1.76 1.74 1.66 1.67
3945.506 1.66 1.76 1.78 1.72 1.68 1.66 1.7 1.62 1.59 1.62
3964.800 1.63 1.64 1.7 1.68 1.67 1.77 1.74 1.75 1.84 1.8
3984.093 1.77 1.82 1.8 1.74 1.69 1.72 1.68 1.63 1.72
##END=
