##TITLE=2-Fluoropyridine
##JCAMP-DX=4.24
##DATA TYPE=INFRARED SPECTRUM
##ORIGIN=NIST Mass Spectrometry Data Center
##OWNER=NIST Standard Reference Data Program
Collection (C) 2018 copyright by the U.S. Secretary of Commerce
on behalf of the United States of America. All rights reserved.
##CAS REGISTRY NO=372-48-5
##MOLFORM=C 5 H 4 F N
##$NIST SOURCE=MSDC-IR
##SPECTROMETER/DATA SYSTEM=HP-GC/MS/IRD
##STATE=gas
##XUNITS=1/CM
##YUNITS=ABSORBANCE
##XFACTOR=1.0
##YFACTOR=0.000002200
##DELTAX=4.0
##FIRSTX=550.0
##LASTX=3846.0
##FIRSTY=0.000717
##MAXX=3846
##MINX=550
##MAXY=0.022
##MINY=0
##NPOINTS=825
##XYDATA=(X++(Y..Y))
550.0 326 548 457 467 410 298 191 85 40 81
590.0 101 105 135 153 193 255 235 226 290 292
630.0 235 216 211 177 150 117 92 97 81 64
670.0 70 96 116 114 98 83 94 164 231 272
710.0 321 376 415 447 613 879 845 782 993 1273
750.0 1585 1985 2430 2855 3476 4234 5050 6169 5421 3653
790.0 3172 2946 2631 2192 1756 1430 1298 1355 1602 1969
830.0 2327 2395 2410 2370 2075 1970 1741 1189 719 469
870.0 343 281 240 203 190 181 154 135 132 132
910.0 113 105 122 102 111 161 163 160 171 192
950.0 215 246 250 223 252 318 408 520 577 576
990.0 572 581 573 578 574 527 493 512 492 499
1030.0 622 692 694 617 566 578 511 411 332 260
1070.0 223 223 229 211 202 196 182 173 181 206
1110.0 193 218 282 362 471 544 586 620 593 584
1150.0 557 431 266 145 74 35 55 48 8 1
1190.0 11 11 15 25 40 87 167 307 526 859
1230.0 1398 2173 3245 4614 6256 7860 8820 9190 9825 9384
1270.0 8624 8066 6005 3862 2683 2204 1947 1655 1387 1086
1310.0 843 628 411 254 180 158 153 142 126 128
1350.0 136 161 176 199 225 249 282 305 332 362
1390.0 392 436 502 620 890 1397 2240 3518 5024 6171
1430.0 6337 6695 7008 6566 6776 6263 5368 5638 6728 7463
1470.0 7522 7927 7586 7224 7080 5340 3256 1946 1313 1087
1510.0 988 844 681 587 582 648 736 839 976 1173
1550.0 1474 1843 2294 2934 3862 5084 6389 7846 9188 9933
1590.0 10000 9134 7385 5844 4715 3474 2363 1653 1246 960
1630.0 733 565 444 360 310 285 267 256 245 252
1670.0 266 267 280 275 256 253 252 237 221 206
1710.0 196 202 206 206 206 192 171 149 144 148
1750.0 133 114 100 91 96 91 85 90 107 127
1790.0 133 146 172 197 220 237 245 247 251 255
1830.0 242 229 217 192 172 166 156 134 115 101
1870.0 95 87 85 83 84 99 121 139 155 167
1910.0 177 189 202 224 235 232 219 213 234 248
1950.0 236 206 180 173 169 158 148 128 102 91
1990.0 86 77 76 74 70 67 66 63 61 66
2030.0 70 73 68 73 80 82 84 90 101 114
2070.0 130 148 161 168 185 201 201 198 191 164
2110.0 142 130 104 84 79 78 79 79 68 63
2150.0 51 48 55 53 45 47 65 66 55 55
2190.0 59 65 74 74 65 64 64 67 73 73
2230.0 78 92 88 88 95 86 89 107 106 114
2270.0 121 123 135 137 123 106 110 125 119 110
2310.0 109 91 86 102 96 82 77 66 40 35
2350.0 44 44 48 46 52 62 52 50 46 45
2390.0 61 65 68 82 88 84 99 109 97 110
2430.0 124 118 104 94 85 78 73 71 72 56
2470.0 50 61 69 80 79 81 95 116 124 122
2510.0 134 148 157 154 146 140 121 107 106 102
2550.0 94 104 121 116 101 88 74 68 76 59
2590.0 52 70 58 50 47 30 28 37 33 37
2630.0 48 34 19 26 41 40 34 35 34 32
2670.0 32 37 48 51 60 63 65 70 61 52
2710.0 59 55 49 48 46 65 69 65 67 63
2750.0 49 31 16 0 8 19 27 31 15 29
2790.0 43 29 21 20 29 42 51 46 45 49
2830.0 57 61 52 57 65 61 57 53 50 54
2870.0 56 37 33 42 49 55 46 28 36 45
2910.0 32 34 44 58 69 70 70 65 73 79
2950.0 75 79 76 70 67 59 53 46 51 71
2990.0 91 113 135 169 211 286 370 420 471 520
3030.0 572 614 628 657 690 723 799 896 962 1007
3070.0 1073 1202 1344 1383 1314 1241 1140 1023 907 729
3110.0 555 402 280 206 164 135 109 95 108 120
3150.0 104 77 82 101 104 105 93 90 105 85
3190.0 63 78 86 63 41 47 54 41 45 50
3230.0 41 47 48 40 43 58 46 38 51 44
3270.0 57 83 72 51 47 41 29 36 47 36
3310.0 36 28 25 34 25 24 16 24 52 45
3350.0 27 39 50 59 58 54 44 18 21 44
3390.0 42 9 7 34 54 36 11 18 66 75
3430.0 59 40 21 38 50 37 24 30 13 4
3470.0 28 18 25 67 66 41 36 39 54 64
3510.0 55 47 49 59 50 34 43 38 22 41
3550.0 47 29 48 57 67 64 49 40 19 37
3590.0 75 78 58 48 75 83 77 94 100 122
3630.0 118 71 26 38 85 91 58 52 48 47
3670.0 42 33 36 39 67 78 65 60 63 56
3710.0 50 65 74 72 83 81 63 42 66 87
3750.0 62 59 74 75 62 71 84 80 78 75
3790.0 72 85 100 92 97 94 49 28 55 84
3830.0 92 66 55 98 105
##END=
