##TITLE=Ethyl 3-amino-4,4,4-trifluorocrotonate
##JCAMP-DX=4.24
##DATA TYPE=INFRARED SPECTRUM
##ORIGIN=EPA-IR VAPOR PHASE LIBRARY
##OWNER=SRD/NIST
Collection (C) 2018 copyright by the U.S. Secretary of Commerce
on behalf of the United States of America. All rights reserved.
##CAS REGISTRY NO=372-29-2
##MOLFORM=C 6 H 8 F 3 N O 2
##$NIST SOURCE=MSDC-IR
##STATE=gas
##XUNITS=1/CM
##YUNITS=ABSORBANCE
##XFACTOR=1.
##YFACTOR=0.001
##DELTAX=1.92934
##FIRSTX=549.9
##LASTX=3999.5
##FIRSTY=13.1
##MAXX=3999.53
##MINX=549.863
##MAXY=0.49348
##MINY=0
##NPOINTS=1789
##XYDATA=(X++(Y..Y))
549.863 13.1 13.53 14.04 14.51 14.89 15.58 16.21 16.97 17.9 18.7
569.156 19.82 21.21 22.72 24.39 26.11 27.58 28.55 29 28.78 28.01
588.450 26.82 25.27 23.88 22.63 21.39 20.48 19.93 19.4 18.76 18.24
607.743 17.87 17.43 17.05 16.73 16.3 15.98 15.72 15.41 15.2 14.98
627.037 14.84 14.58 14.29 14.03 13.8 13.75 13.81 14.07 14.74 15.82
646.330 17.2 18.68 20.17 21.67 22.87 23.59 23.92 23.79 23.37 22.91
665.624 22.45 21.97 21.44 21.11 20.8 20.42 20.2 20.09 20 19.94
684.917 19.93 19.97 19.99 19.97 19.86 19.79 19.82 19.78 19.68 19.65
704.210 19.71 19.67 19.65 19.67 19.66 19.76 19.91 19.97 20.05 20.22
723.504 20.24 20.33 20.51 20.56 20.66 20.74 20.69 20.59 20.44 20.19
742.797 19.91 19.54 19.05 18.57 18.08 17.56 17.05 16.53 16.07 15.65
762.091 15.28 14.96 14.69 14.38 14.11 14 13.92 13.9 14.08 14.42
781.384 14.74 15.21 16 17.04 18.32 19.84 21.63 23.75 26.15 28.76
800.678 31.55 34.45 37.18 39.6 41.52 42.74 43.02 42.19 40.35 37.94
819.971 35.33 32.54 29.67 26.8 24.08 21.7 19.52 17.52 15.92 14.62
839.264 13.47 12.55 11.87 11.22 10.71 10.4 10.07 9.85 9.79 9.8
858.558 9.81 9.87 9.98 10.16 10.42 10.79 11.3 11.97 12.87 13.91
877.851 15.02 15.95 16.54 16.84 16.7 16.07 15.1 13.89 12.65 11.59
897.145 10.65 9.94 9.43 9.05 8.8 8.6 8.48 8.35 8.2 8.15
916.438 8.14 8.12 8.15 8.21 8.16 8.13 8.18 8.2 8.24 8.31
935.732 8.33 8.41 8.54 8.64 8.81 9.13 9.48 9.8 10.16 10.63
955.025 11.17 11.66 12.08 12.41 12.67 12.78 12.77 12.65 12.52 12.38
974.318 12.16 11.92 11.74 11.59 11.45 11.42 11.44 11.42 11.52 11.74
993.612 11.97 12.3 12.72 13.3 13.96 14.77 15.87 17.18 18.89 21.02
1012.905 23.64 26.85 30.72 35.19 40.07 45.22 50.37 55.03 58.71 61.15
1032.199 62.13 61.46 59.26 55.83 51.59 46.93 42.19 37.8 33.97 30.8
1051.492 28.24 26.34 24.92 23.85 23.27 23.06 23.04 23.25 23.63 24.03
1070.786 24.47 24.88 25.29 25.76 26.26 26.82 27.7 28.91 30.49 32.68
1090.079 35.33 38.26 41.38 44.42 46.89 48.36 48.92 48.66 47.63 45.97
1109.372 43.96 42.28 41.46 41.82 43.27 45.61 49.01 53.31 58.56 65.03
1128.666 73.07 82.95 95.01 109.63 126.94 147.31 171.29 199.14 230.71 265.92
1147.959 303.88 343.17 382.38 419.16 450.49 474.29 489.12 493.48 486.87 470.27
1167.253 445.77 415.99 383.84 351.72 321.48 294.21 270.31 249.65 232.3 217.83
1186.546 205.45 195.19 186.92 180.35 174.86 170.47 167.64 166.22 165.84 166.7
1205.840 169.03 172.76 178.03 183.92 190.93 199.14 207.11 214.57 220.78 224.56
1225.133 225.78 223.91 218.85 210.84 199.36 185.68 170.54 154.28 137.89 122.27
1244.426 107.83 94.8 83.59 74.11 66.36 60.3 55.5 51.93 49.38 47.52
1263.720 46.35 45.93 46.04 46.51 47.47 48.85 50.54 52.85 55.77 59.25
1283.013 63.46 68.41 74.03 80.32 87.42 95.55 104.87 115.69 128.48 144.06
1302.307 163.2 186.74 215.6 250.15 289.69 332.07 373.26 407.48 428.97 433.34
1321.600 419.05 387 340.01 283.09 223.57 169.55 126.28 94.9 73.39 58.74
1340.894 48.64 41.6 36.57 33.03 30.71 29.39 29.07 29.93 32.18 36.38
1360.187 43.11 52.24 62.37 70.33 73.89 73.77 71.75 67.51 58.9 47.53
1379.480 37.83 31.75 28.54 27.09 26.63 26.6 26.65 26.61 26.39 25.93
1398.774 25.28 24.42 23.44 22.48 21.64 20.95 20.42 20.01 19.77 19.71
1418.067 19.79 20.09 20.54 21.08 21.65 22.12 22.43 22.57 22.5 22.17
1437.361 21.71 21.15 20.51 19.87 19.34 18.8 18.32 17.92 17.43 16.93
1456.654 16.5 16.09 15.84 15.65 15.54 15.52 15.47 15.38 15.21 14.97
1475.948 14.59 14.06 13.41 12.69 11.96 11.24 10.61 10.05 9.51 9.02
1495.241 8.57 8.17 7.86 7.59 7.35 7.17 7.02 6.98 6.95 6.9
1514.534 6.99 7.05 7.12 7.25 7.46 7.69 7.86 8.1 8.45 8.8
1533.828 9.14 9.56 10.05 10.61 11.24 12 12.87 13.79 14.82 16.01
1553.121 17.38 18.9 20.61 22.69 24.98 27.37 29.99 32.69 35.41 38.08
1572.415 40.49 42.43 43.89 44.79 44.92 44.3 42.98 41 38.62 35.97
1591.708 33.24 30.58 28.18 26.17 24.52 23.21 22.32 21.86 21.74 21.87
1611.002 22.23 22.84 23.54 24.43 25.53 26.58 27.76 29.18 30.84 32.84
1630.295 35.36 38.62 42.97 48.76 56.09 65.4 77.23 91.46 108.16 126.03
1649.588 142.47 155.05 163.06 165.64 161.99 151.38 134.39 113.69 94.23 78.98
1668.882 68.12 60.8 56.28 53.84 53.3 54.51 57.49 62.04 68.49 76.44
1688.175 85.4 95.3 105.24 114.2 121.66 126.69 128.56 128.05 125.37 120.11
1707.469 112.08 101.67 89.93 78.01 66.77 56.66 47.96 41.18 35.96 32.19
1726.762 29.81 28.58 28.26 28.4 28.6 28.48 28.02 27.31 26.31 24.62
1746.056 22.01 19.01 16.33 14.16 12.52 11.23 10.21 9.46 8.86 8.44
1765.349 8.11 7.79 7.53 7.33 7.13 6.95 6.84 6.73 6.58 6.44
1784.642 6.28 6.11 5.98 5.83 5.68 5.52 5.38 5.25 5.09 4.91
1803.936 4.74 4.58 4.4 4.24 4.09 3.96 3.83 3.69 3.52 3.3449
1823.229 3.264 3.2478 3.1878 3.1279 3.0781 3.0352 2.9953 2.9726 2.9538 2.8824
1842.523 2.8366 2.8433 2.8489 2.8292 2.8189 2.8158 2.8121 2.7693 2.7361 2.7163
1861.816 2.6728 2.6022 2.55175 2.52566 2.50213 2.5142 2.51985 2.51811 2.54881 2.55992
1881.110 2.5646 2.5689 2.5937 2.6487 2.7055 2.7642 2.7795 2.8119 2.8804 2.963
1900.403 3.029 3.0497 3.1175 3.1503 3.1235 3.0959 3.1011 3.1068 3.0663 2.9601
1919.696 2.8785 2.8461 2.815 2.7635 2.7021 2.6744 2.6279 2.5729 2.55656 2.54329
1938.990 2.53083 2.46173 2.3881 2.3871 2.4114 2.437 2.4187 2.4142 2.3971 2.4168
1958.283 2.4229 2.3933 2.3868 2.3832 2.4062 2.4175 2.4236 2.4304 2.45905 2.46078
1977.577 2.4318 2.47473 2.54978 2.54122 2.51844 2.50756 2.51724 2.561 2.5776 2.5745
1996.870 2.579 2.5744 2.52717 2.49824 2.5192 2.51847 2.54366 2.5638 2.55243 2.53815
2016.164 2.5314 2.53989 2.49234 2.45993 2.4219 2.3986 2.3862 2.353 2.3609 2.358
2035.457 2.323 2.289 2.263 2.236 2.221 2.229 2.19 2.168 2.177 2.113
2054.750 2.059 2.006 1.978 1.963 1.921 1.927 1.868 1.796 1.757 1.741
2074.044 1.716 1.704 1.753 1.744 1.756 1.807 1.85 1.832 1.806 1.858
2093.337 1.909 1.945 1.958 1.977 1.981 2.011 2.076 2.101 2.188 2.219
2112.631 2.18 2.207 2.247 2.271 2.272 2.302 2.3919 2.45088 2.47028 2.50482
2131.924 2.5369 2.6157 2.7393 2.8525 2.9969 3.1033 3.2025 3.3244 3.3788 3.3807
2151.218 3.3894 3.4059 3.366 3.287 3.138 2.954 2.8187 2.6503 2.47037 2.343
2170.511 2.223 2.142 2.097 2.088 2.094 2.047 2.024 2.046 2.038 2.018
2189.804 2.011 1.996 1.979 1.986 1.952 1.874 1.857 1.855 1.806 1.785
2209.098 1.748 1.72 1.702 1.648 1.628 1.623 1.595 1.601 1.628 1.613
2228.391 1.657 1.718 1.715 1.717 1.732 1.758 1.813 1.836 1.852 1.889
2247.685 1.932 1.967 2.011 2.064 2.087 2.115 2.172 2.212 2.208 2.218
2266.978 2.239 2.277 2.326 2.349 2.3645 2.3857 2.3801 2.3791 2.3955 2.3892
2286.272 2.4141 2.4457 2.3886 2.315 2.312 2.315 2.278 2.247 2.249 2.255
2305.565 2.21 2.148 2.12 2.143 2.141 2.095 2.093 2.105 2.108 2.122
2324.858 2.132 2.145 2.161 2.179 2.198 2.198 2.198 2.236 2.267 2.273
2344.152 2.261 2.301 2.307 2.279 2.228 2.157 2.197 2.211 2.179 2.142
2363.445 2.093 2.076 2.024 1.957 1.937 1.908 1.829 1.776 1.786 1.807
2382.739 1.821 1.84 1.821 1.768 1.762 1.796 1.781 1.758 1.759 1.748
2402.032 1.755 1.786 1.777 1.748 1.726 1.727 1.729 1.7 1.666 1.648
2421.326 1.632 1.594 1.571 1.57 1.534 1.51 1.508 1.521 1.5 1.44
2440.619 1.43 1.38 1.34 1.35 1.42 1.44 1.45 1.43 1.36 1.37
2459.912 1.42 1.42 1.42 1.43 1.4 1.36 1.35 1.36 1.35 1.3
2479.206 1.28 1.25 1.29 1.3 1.23 1.19 1.17 1.18 1.18 1.17
2498.499 1.12 1.13 1.15 1.13 1.16 1.13 1.12 1.18 1.16 1.19
2517.793 1.22 1.27 1.3 1.27 1.25 1.27 1.29 1.26 1.26 1.3
2537.086 1.28 1.2 1.12 1.09 1.1 1.07 1.06 0.99 0.91 0.92
2556.380 0.9 0.82 0.77 0.76 0.75 0.76 0.72 0.64 0.63 0.67
2575.673 0.62 0.59 0.65 0.65 0.63 0.68 0.72 0.72 0.76 0.79
2594.966 0.79 0.85 0.92 0.94 0.97 1.03 1.02 1 1.06 1.17
2614.260 1.19 1.16 1.09 1.06 1.03 0.96 0.94 0.86 0.77 0.76
2633.553 0.78 0.84 0.77 0.59 0.57 0.62 0.64 0.64 0.62 0.67
2652.847 0.69 0.7 0.67 0.67 0.71 0.69 0.7 0.7 0.68 0.75
2672.140 0.79 0.75 0.72 0.67 0.65 0.71 0.78 0.77 0.78 0.73
2691.434 0.65 0.64 0.65 0.63 0.64 0.64 0.58 0.64 0.73 0.67
2710.727 0.6 0.64 0.75 0.77 0.75 0.85 0.92 0.91 0.89 0.95
2730.020 1.03 1.06 1.14 1.23 1.28 1.31 1.24 1.17 1.23 1.25
2749.314 1.23 1.28 1.34 1.29 1.26 1.26 1.1 1.01 1.03 1.03
2768.607 1.04 1.09 1.09 1.05 1.07 1.02 0.96 0.98 0.95 0.91
2787.901 0.91 0.93 0.98 0.99 0.99 1.07 1.08 1.05 1.18 1.27
2807.194 1.2 1.22 1.31 1.29 1.41 1.49 1.46 1.527 1.654 1.695
2826.488 1.633 1.623 1.675 1.757 1.81 1.728 1.65 1.704 1.862 1.903
2845.781 1.88 1.951 2.006 2.015 2.13 2.321 2.46778 2.5769 2.6605 2.8266
2865.074 2.9995 3.2472 3.49 3.65 3.98 4.45 4.96 5.46 5.87 6.31
2884.368 6.67 6.9 7.06 7.13 7.21 7.26 7.27 7.34 7.41 7.58
2903.661 7.82 8.07 8.51 8.81 8.94 9.17 9.26 9.26 9.29 9.3
2922.955 9.25 9.21 9.49 9.91 10.52 11.46 12.61 13.93 15.37 16.81
2942.248 17.98 18.63 18.9 18.76 18.3 17.54 16.59 15.79 15.23 15.09
2961.542 15.44 16.03 16.87 17.87 18.9 20.18 21.81 23.82 26.13 28.76
2980.835 31.39 33.37 34.65 35.11 34.81 33.6 31.46 28.98 26.3 23.82
3000.128 21.75 20 18.48 16.97 15.5 14.15 12.83 11.51 10.3 9.27
3019.422 8.34 7.48 6.67 5.97 5.39 4.79 4.14 3.76 3.54 3.0854
3038.715 2.7948 2.5909 2.33 2.093 1.884 1.762 1.588 1.533 1.39 1.21
3058.009 1.12 1.09 1.11 1.09 1.14 1.11 0.93 0.83 0.89 0.88
3077.302 0.82 0.84 0.78 0.66 0.6 0.48 0.44 0.49 0.48 0.44
3096.596 0.44 0.55 0.71 0.73 0.59 0.68 0.72 0.71 0.83 0.83
3115.889 0.81 0.9 1.04 0.99 1.03 1.04 0.83 0.71 0.71 0.73
3135.182 0.64 0.58 0.53 0.39 0.44 0.53 0.56 0.42 0.24 0.24
3154.476 0.28 0.27 0.27 0.33 0.2 0.06 0.11 0.12 0.13 0.27
3173.769 0.2 0 0.02 0.05 0.12 0.23 0.23 0.19 0.13 0.17
3193.063 0.14 0.17 0.41 0.56 0.53 0.54 0.61 0.75 0.7 0.58
3212.356 0.7 0.75 0.78 0.88 0.93 0.94 1.07 1.09 1 1
3231.650 0.95 0.86 0.95 1.14 1.18 1.22 1.21 1.14 1.16 1.25
3250.943 1.31 1.19 1.17 1.3 1.34 1.43 1.509 1.548 1.715 1.755
3270.236 1.735 2.006 2.115 2.225 2.3946 2.4119 2.5636 2.7101 2.8913 3.1048
3289.530 3.2215 3.4025 3.6 3.73 3.87 4.04 4.13 4.19 4.32 4.51
3308.823 4.71 4.81 4.93 5.3 5.96 6.59 7.12 7.92 8.87 9.96
3328.117 11.31 12.63 14.02 15.58 17.11 18.65 20.07 21.11 21.91 22.58
3347.410 22.85 22.68 22.22 21.73 20.91 19.79 18.85 17.66 16.28 15.09
3366.704 14.06 12.85 11.64 10.68 9.81 9.11 8.33 7.66 7.11 6.56
3385.997 6.16 5.78 5.35 5.03 4.86 4.56 4.2 3.98 3.88 3.94
3405.290 3.85 3.7 3.75 3.69 3.67 3.59 3.52 3.62 3.57 3.47
3424.584 3.3219 3.1404 2.9132 2.767 2.6982 2.6714 2.6512 2.50436 2.525 2.7187
3443.877 2.7272 2.6968 2.7966 2.863 3.0448 3.2351 3.287 3.52 3.75 3.89
3463.171 4.12 4.36 4.54 4.76 5.24 5.78 6.16 6.6 7.14 7.73
3482.464 8.46 9.34 10.38 11.39 12.52 14.07 15.78 17.55 19.59 21.82
3501.758 24.34 27.15 30.18 33.33 36.29 39.19 41.99 44.41 46.58 48.19
3521.051 49.07 49.36 48.92 47.63 45.42 42.58 39.29 35.69 31.94 28.25
3540.344 24.73 21.41 18.48 15.91 13.66 11.83 10.4 9.21 8.1 7.15
3559.638 6.4 5.82 5.31 4.79 4.35 4 3.73 3.51 3.3089 3.1738
3578.931 2.9902 2.839 2.7457 2.55068 2.45141 2.263 2.1 1.973 1.857 1.825
3598.225 1.642 1.489 1.504 1.44 1.35 1.34 1.29 1.22 1.17 1.1
3617.518 1.07 1.1 1.14 1.22 1.12 1.03 0.98 0.89 0.91 1.01
3636.812 1.05 0.9 0.84 0.9 0.87 0.79 0.81 0.81 0.74 0.87
3656.105 0.98 0.87 0.9 0.91 0.75 0.74 0.81 0.82 0.88 0.87
3675.398 0.84 0.83 0.78 0.83 0.83 0.86 0.9 0.82 0.77 0.83
3694.692 0.88 0.8 0.77 0.84 0.81 0.78 0.81 0.85 0.75 0.68
3713.985 0.67 0.65 0.77 0.74 0.73 0.74 0.66 0.66 0.7 0.67
3733.279 0.61 0.71 0.73 0.64 0.62 0.6 0.67 0.8 0.73 0.67
3752.572 0.72 0.7 0.73 0.78 0.76 0.69 0.62 0.58 0.72 0.77
3771.866 0.79 0.93 0.88 0.7 0.69 0.77 0.87 0.9 0.77 0.84
3791.159 0.94 0.82 0.76 0.76 0.64 0.59 0.65 0.69 0.67 0.75
3810.452 0.79 0.83 0.86 0.77 0.7 0.72 0.73 0.7 0.75 0.7
3829.746 0.6 0.62 0.67 0.68 0.68 0.69 0.74 0.78 0.73 0.73
3849.039 0.8 0.85 0.89 0.84 0.84 0.84 0.76 0.79 0.81 0.81
3868.333 0.73 0.67 0.76 0.81 0.86 0.85 0.87 0.86 0.81 0.75
3887.626 0.65 0.7 0.76 0.73 0.64 0.68 0.79 0.75 0.74 0.73
3906.920 0.65 0.71 0.78 0.76 0.73 0.72 0.76 0.72 0.71 0.75
3926.213 0.68 0.69 0.77 0.68 0.64 0.68 0.72 0.72 0.72 0.63
3945.506 0.62 0.74 0.74 0.77 0.75 0.8 0.86 0.87 0.93 0.87
3964.800 0.82 0.79 0.75 0.79 0.78 0.73 0.77 0.8 0.78 0.82
3984.093 0.84 0.77 0.77 0.77 0.81 0.88 0.85 0.85 0.94
##END=
