##TITLE=1-Ethyl-4-methylcyclohexane
##JCAMP-DX=4.24
##DATA TYPE=INFRARED SPECTRUM
##ORIGIN=NIST Mass Spectrometry Data Center
##OWNER=NIST Standard Reference Data Program
Collection (C) 2018 copyright by the U.S. Secretary of Commerce
on behalf of the United States of America. All rights reserved.
##CAS REGISTRY NO=3728-56-1
##MOLFORM=C 9 H 18
##$NIST SOURCE=MSDC-IR
##SPECTROMETER/DATA SYSTEM=HP-GC/MS/IRD
##STATE=gas
##XUNITS=1/CM
##YUNITS=ABSORBANCE
##XFACTOR=1.0
##YFACTOR=0.000004500
##DELTAX=4.0
##FIRSTX=550.0
##LASTX=3846.0
##FIRSTY=0.000032
##MAXX=3846
##MINX=550
##MAXY=0.045
##MINY=0
##NPOINTS=825
##XYDATA=(X++(Y..Y))
550.0 7 30 40 51 56 54 42 8 1 18
590.0 33 36 46 43 46 45 35 61 81 65
630.0 49 47 45 39 35 49 60 42 46 62
670.0 55 47 65 71 50 43 52 58 54 54
710.0 52 45 50 57 64 60 43 47 54 55
750.0 63 64 66 70 77 84 77 73 65 58
790.0 57 57 56 58 54 42 52 49 40 46
830.0 46 52 58 50 47 48 50 64 75 76
870.0 85 101 118 124 126 129 121 110 106 105
910.0 101 105 106 102 102 86 74 70 77 97
950.0 124 163 206 232 230 215 174 140 132 127
990.0 118 112 113 118 120 118 116 103 91 87
1030.0 81 75 75 83 86 84 88 105 119 116
1070.0 116 113 106 98 91 79 78 95 102 101
1110.0 100 97 82 67 61 60 66 61 52 50
1150.0 60 61 61 64 58 59 55 49 59 59
1190.0 44 31 40 61 62 70 92 105 122 149
1230.0 160 159 151 130 112 98 88 88 101 109
1270.0 113 119 116 111 109 102 99 95 90 91
1310.0 89 83 83 82 81 89 104 111 111 121
1350.0 129 138 154 173 208 269 339 386 403 392
1390.0 340 257 198 158 130 117 118 128 151 194
1430.0 260 367 511 671 828 983 1074 1061 985 867
1470.0 736 592 447 324 239 185 146 115 96 86
1510.0 75 68 61 57 54 53 52 48 50 50
1550.0 48 46 42 39 40 44 48 44 37 38
1590.0 38 34 33 34 32 33 41 40 37 39
1630.0 42 38 35 39 36 36 36 36 34 33
1670.0 32 37 42 37 33 28 27 32 33 29
1710.0 25 24 23 22 21 20 27 27 24 27
1750.0 29 27 24 25 23 22 26 24 17 18
1790.0 18 17 21 20 16 13 11 12 8 7
1830.0 11 8 9 14 16 15 17 19 17 13
1870.0 14 14 7 7 9 4 12 20 17 16
1910.0 15 15 14 10 7 7 7 5 5 6
1950.0 5 7 7 4 6 6 9 9 4 2
1990.0 3 4 3 0 0 3 4 5 7 8
2030.0 6 5 7 9 5 5 10 9 4 5
2070.0 7 11 10 4 3 4 3 4 6 5
2110.0 1 1 0 1 11 10 6 6 2 2
2150.0 6 7 6 4 4 5 7 3 3 6
2190.0 7 4 2 9 14 15 12 11 13 10
2230.0 8 10 9 9 7 7 11 14 14 15
2270.0 16 13 12 15 14 10 10 13 10 12
2310.0 18 15 12 16 18 22 28 29 28 25
2350.0 24 25 26 30 31 26 28 31 28 28
2390.0 26 24 28 31 36 40 34 28 30 28
2430.0 26 27 27 24 24 25 24 24 27 29
2470.0 29 31 27 23 22 25 27 24 26 26
2510.0 28 33 36 38 41 45 40 36 37 38
2550.0 44 47 48 52 50 53 54 54 59 58
2590.0 61 68 73 80 85 92 99 105 104 102
2630.0 105 105 107 113 116 121 124 121 119 123
2670.0 123 121 124 127 126 126 125 122 119 117
2710.0 121 128 129 130 139 153 160 163 168 170
2750.0 172 169 166 170 171 173 178 184 199 220
2790.0 242 259 280 303 329 356 391 438 505 602
2830.0 758 1006 1402 1969 2597 3133 3567 3858 3882 3777
2870.0 3681 3558 3446 3389 3362 3395 3591 4006 4652 5535
2910.0 6642 8018 9357 10000 9901 9389 8473 7208 6008 5166
2950.0 4729 4719 4765 4660 4475 3952 3219 2489 1782 1220
2990.0 852 629 496 406 341 297 263 243 229 216
3030.0 211 208 201 181 175 183 178 170 160 159
3070.0 162 161 151 145 146 136 137 140 126 114
3110.0 120 118 119 130 127 126 125 122 121 123
3150.0 125 120 124 127 119 113 106 95 86 73
3190.0 60 62 62 51 41 42 39 31 30 35
3230.0 36 30 35 35 29 32 34 40 50 43
3270.0 31 37 40 27 24 28 35 34 25 30
3310.0 36 34 32 36 34 26 27 27 28 32
3350.0 40 41 36 29 23 26 27 35 41 39
3390.0 36 33 24 19 19 24 26 20 18 17
3430.0 16 11 7 11 7 13 13 2 5 14
3470.0 16 18 21 16 12 11 13 18 17 28
3510.0 31 23 18 14 16 9 5 14 8 11
3550.0 22 11 6 9 11 14 18 16 18 16
3590.0 4 4 7 6 13 24 20 16 15 13
3630.0 15 10 6 9 9 8 10 14 20 26
3670.0 21 23 32 31 34 39 34 23 25 27
3710.0 23 19 22 30 25 21 15 15 31 33
3750.0 25 21 22 17 14 23 30 33 31 37
3790.0 43 38 30 33 38 31 31 33 35 37
3830.0 32 33 36 31 34
##END=
