##TITLE=3-Carbethoxy-2-piperidone
##JCAMP-DX=4.24
##DATA TYPE=INFRARED SPECTRUM
##ORIGIN=NIST Mass Spectrometry Data Center
##OWNER=NIST Standard Reference Data Program
Collection (C) 2018 copyright by the U.S. Secretary of Commerce
on behalf of the United States of America. All rights reserved.
##CAS REGISTRY NO=3731-16-6
##MOLFORM=C 8 H 13 N O 3
##$NIST SOURCE=MSDC-IR
##SPECTROMETER/DATA SYSTEM=HP-GC/MS/IRD
##STATE=gas
##XUNITS=1/CM
##YUNITS=ABSORBANCE
##XFACTOR=1.0
##YFACTOR=0.000007700
##DELTAX=4.0
##FIRSTX=550.0
##LASTX=3846.0
##FIRSTY=0.002017
##MAXX=3846
##MINX=550
##MAXY=0.077
##MINY=0
##NPOINTS=825
##XYDATA=(X++(Y..Y))
550.0 262 287 122 123 104 109 101 94 89 116
590.0 160 199 250 304 373 439 516 584 603 621
630.0 624 611 594 566 557 550 525 483 432 563
670.0 527 278 192 160 134 99 82 68 58 47
710.0 23 13 34 37 21 13 14 24 33 40
750.0 42 42 42 40 39 39 33 25 24 20
790.0 13 18 25 28 33 30 30 24 15 12
830.0 14 22 36 55 72 100 133 149 149 144
870.0 135 127 138 162 168 148 125 101 79 72
910.0 76 93 128 157 180 185 194 210 230 253
950.0 270 279 275 254 238 239 245 254 265 276
990.0 282 281 290 313 359 442 563 738 953 1188
1030.0 1405 1541 1573 1505 1374 1243 1141 1085 1073 1058
1070.0 1012 959 927 950 1027 1149 1286 1382 1405 1341
1110.0 1221 1113 1024 969 973 1041 1187 1436 1812 2358
1150.0 3062 3818 4435 4749 4669 4268 3738 3272 3002 2909
1190.0 2962 3071 3074 2896 2581 2184 1844 1667 1623 1659
1230.0 1746 1864 2007 2158 2285 2353 2348 2248 2083 1904
1270.0 1771 1715 1740 1840 1996 2194 2420 2651 2838 2928
1310.0 2881 2695 2430 2132 1836 1585 1413 1348 1410 1524
1350.0 1596 1583 1482 1373 1334 1324 1299 1223 1068 893
1390.0 771 679 610 578 562 556 559 574 628 713
1430.0 816 937 1086 1221 1273 1270 1223 1186 1182 1138
1470.0 1056 927 815 767 726 662 570 438 305 195
1510.0 136 110 79 61 56 51 40 24 15 21
1550.0 24 14 0 15 31 34 39 43 53 59
1590.0 62 66 70 76 84 92 99 108 124 139
1630.0 153 165 188 215 243 281 339 429 542 678
1670.0 849 1051 1284 1565 1998 2625 3492 4713 6306 8003
1710.0 9369 10000 9722 8658 7198 5817 4811 4270 4145 4307
1750.0 4616 4862 4784 4301 3553 2706 1941 1379 1016 794
1790.0 649 553 480 411 357 307 263 228 197 170
1830.0 148 134 117 98 85 76 68 59 51 43
1870.0 38 40 41 40 37 32 33 34 33 29
1910.0 27 28 24 19 19 20 20 16 10 8
1950.0 8 9 11 10 6 4 6 6 5 5
1990.0 0 1 3 4 5 7 8 6 11 13
2030.0 11 9 9 8 9 10 14 16 13 12
2070.0 16 21 27 32 36 35 36 44 54 67
2110.0 93 133 192 269 372 478 568 614 611 559
2150.0 449 303 172 90 50 33 26 21 15 12
2190.0 15 14 10 10 12 14 17 18 14 14
2230.0 17 16 14 15 16 19 26 33 40 49
2270.0 62 78 101 129 170 217 273 344 427 513
2310.0 603 687 764 824 851 857 827 784 745 654
2350.0 647 829 1015 1106 1100 996 811 585 365 197
2390.0 100 51 31 25 23 23 23 20 24 24
2430.0 19 19 17 19 21 19 19 19 20 19
2470.0 18 17 17 20 20 18 15 16 21 19
2510.0 17 19 21 23 24 24 26 24 22 18
2550.0 16 17 21 20 19 21 21 17 16 13
2590.0 13 18 20 21 22 21 24 23 18 22
2630.0 23 25 29 29 25 26 33 35 34 29
2670.0 27 33 41 42 39 38 43 42 38 39
2710.0 42 44 44 49 52 54 58 61 64 66
2750.0 69 74 80 83 90 103 111 118 134 152
2790.0 165 176 188 196 208 223 230 235 247 260
2830.0 272 293 323 363 420 503 620 765 946 1126
2870.0 1265 1344 1358 1326 1262 1196 1128 1075 1042 1034
2910.0 1047 1090 1178 1301 1467 1685 1936 2190 2399 2563
2950.0 2697 2782 2788 2679 2469 2224 2035 1950 1906 1820
2990.0 1650 1402 1147 946 791 658 540 444 369 304
3030.0 252 215 185 161 142 125 112 105 97 88
3070.0 87 85 80 77 72 64 63 60 54 53
3110.0 53 59 57 54 57 58 57 55 56 60
3150.0 59 52 50 55 58 57 51 45 42 40
3190.0 31 31 36 36 35 38 32 30 35 28
3230.0 26 23 19 20 22 28 24 18 18 17
3270.0 18 23 29 26 23 23 20 14 20 22
3310.0 18 17 19 19 14 13 27 39 36 29
3350.0 29 36 37 37 46 52 56 58 61 67
3390.0 79 98 120 147 175 214 276 358 472 594
3430.0 694 746 723 638 511 392 306 236 192 163
3470.0 133 116 100 98 101 94 85 75 65 64
3510.0 67 65 59 46 45 50 35 31 35 30
3550.0 34 37 41 39 23 29 46 48 41 31
3590.0 30 37 44 46 36 28 33 33 40 42
3630.0 36 48 57 60 48 34 44 53 56 53
3670.0 49 49 55 64 61 55 64 66 57 53
3710.0 43 36 35 30 36 46 37 37 34 19
3750.0 22 27 25 27 31 31 38 44 44 42
3790.0 39 37 34 29 31 35 31 25 33 40
3830.0 38 30 29 38 37
##END=
