##TITLE=4-Aminomethylpyridine
##JCAMP-DX=4.24
##DATA TYPE=INFRARED SPECTRUM
##ORIGIN=NIST Mass Spectrometry Data Center
##OWNER=NIST Standard Reference Data Program
Collection (C) 2018 copyright by the U.S. Secretary of Commerce
on behalf of the United States of America. All rights reserved.
##CAS REGISTRY NO=3731-53-1
##MOLFORM=C 6 H 8 N 2
##$NIST SOURCE=MSDC-IR
##SPECTROMETER/DATA SYSTEM=HP-GC/MS/IRD
##STATE=gas
##XUNITS=1/CM
##YUNITS=ABSORBANCE
##XFACTOR=1.0
##YFACTOR=0.000000900
##DELTAX=4.0
##FIRSTX=550.0
##LASTX=3846.0
##FIRSTY=0.001192
##MAXX=3846
##MINX=550
##MAXY=0.009
##MINY=0
##NPOINTS=825
##XYDATA=(X++(Y..Y))
550.0 1324 1624 1271 1502 1611 1847 1972 2114 2144 2151
590.0 2112 1870 1629 1532 1464 1340 1196 1072 1094 1101
630.0 1023 1009 972 944 1019 1071 1117 1185 1308 1488
670.0 1600 1655 1708 1786 1976 2191 2477 2752 3041 3442
710.0 3878 4380 4895 5480 6052 6505 6942 7345 7646 7892
750.0 8060 8154 8262 8345 8322 8313 8320 8212 8102 7904
790.0 7549 7198 6803 6411 5980 5553 5140 4695 4282 3927
830.0 3603 3303 3034 2760 2515 2322 2119 1962 1819 1662
870.0 1453 1256 1131 1011 898 788 695 612 507 447
910.0 440 394 326 260 289 382 348 297 295 294
950.0 312 341 387 461 484 463 597 891 1224 1391
990.0 1436 1418 1355 1193 798 501 426 456 537 676
1030.0 832 923 970 1082 1105 1029 1010 978 917 901
1070.0 816 749 677 563 446 364 373 335 273 198
1110.0 128 112 63 56 39 0 3 18 19 16
1150.0 16 83 128 63 76 117 152 200 226 300
1190.0 440 608 770 985 1323 1677 1870 1875 1755 1591
1230.0 1275 816 463 266 157 133 132 149 172 197
1270.0 256 296 252 209 210 234 259 288 337 401
1310.0 503 603 686 787 884 972 1079 1186 1251 1289
1350.0 1315 1339 1397 1519 1665 1836 2047 2257 2471 2723
1390.0 3037 3420 3844 4273 4520 4349 4128 4150 3931 3259
1430.0 2477 1858 1418 1124 972 920 938 926 897 868
1470.0 823 728 618 566 542 533 543 538 502 449
1510.0 389 372 421 487 575 702 859 1082 1390 1746
1550.0 2124 2519 2890 3230 3618 4055 4491 5063 6051 7431
1590.0 8803 9722 10000 9730 9001 7878 6485 5221 4326 3757
1630.0 3355 2987 2611 2253 1964 1700 1439 1248 1106 957
1670.0 818 695 596 539 485 420 392 394 386 364
1710.0 355 350 361 377 365 357 372 362 351 342
1750.0 314 293 293 282 267 273 283 295 284 290
1790.0 300 298 291 281 293 302 314 318 332 369
1830.0 395 415 426 388 364 358 316 266 242 227
1870.0 229 234 233 241 242 250 285 325 347 410
1910.0 498 577 641 690 720 719 697 647 588 527
1950.0 443 375 340 292 269 279 263 248 249 250
1990.0 239 231 243 269 285 264 268 280 263 247
2030.0 276 291 287 287 287 288 294 289 285 284
2070.0 278 281 273 259 268 271 267 278 290 299
2110.0 296 298 284 295 313 289 279 292 314 315
2150.0 311 303 299 311 312 317 321 325 327 312
2190.0 312 305 315 334 326 319 310 307 315 322
2230.0 304 295 293 289 291 302 315 308 322 344
2270.0 345 336 341 342 353 365 363 362 356 353
2310.0 329 324 341 324 309 335 353 349 341 325
2350.0 318 316 304 324 338 330 315 303 305 335
2390.0 348 321 322 324 327 353 351 354 362 360
2430.0 362 346 352 365 343 329 321 320 307 294
2470.0 295 310 320 304 293 280 272 268 261 298
2510.0 307 293 293 281 290 317 305 296 322 335
2550.0 318 295 292 305 338 350 332 333 360 361
2590.0 338 341 358 385 389 359 368 395 395 372
2630.0 362 396 403 413 441 440 430 439 453 454
2670.0 440 448 464 457 459 462 460 438 438 482
2710.0 515 505 515 549 569 576 605 635 613 629
2750.0 668 670 667 676 688 706 715 707 748 783
2790.0 798 836 901 959 1033 1131 1206 1284 1396 1545
2830.0 1698 1862 2048 2270 2537 2793 3048 3244 3360 3452
2870.0 3501 3494 3463 3450 3428 3386 3404 3438 3483 3503
2910.0 3442 3360 3310 3259 3219 3164 3074 3018 3013 2975
2950.0 2920 2857 2805 2783 2735 2679 2651 2642 2622 2588
2990.0 2588 2557 2595 2711 2882 3138 3521 3999 4388 4725
3030.0 4945 4966 4973 5068 5143 5206 5378 5617 5798 5828
3070.0 5648 5404 5075 4563 3856 3068 2408 1852 1421 1160
3110.0 962 754 633 547 515 484 416 410 448 434
3150.0 396 398 389 424 441 405 389 396 398 372
3190.0 414 477 421 416 465 426 418 435 421 384
3230.0 359 371 393 432 446 424 437 438 410 414
3270.0 415 400 380 344 341 368 340 324 348 361
3310.0 390 401 388 371 375 411 449 437 413 433
3350.0 500 570 555 514 474 462 440 392 394 420
3390.0 450 435 437 457 446 489 489 509 514 485
3430.0 486 438 419 430 416 398 369 345 366 366
3470.0 366 346 335 382 387 389 372 341 340 330
3510.0 333 355 330 286 297 312 343 375 323 329
3550.0 354 285 264 294 330 313 276 277 257 285
3590.0 310 310 315 314 342 375 391 384 396 378
3630.0 362 354 326 325 340 324 306 296 317 350
3670.0 362 357 349 344 341 351 336 322 341 369
3710.0 355 291 250 283 324 334 377 370 312 317
3750.0 300 292 292 265 256 259 285 295 261 247
3790.0 263 252 305 355 329 321 311 288 262 256
3830.0 272 282 258 200 220
##END=
