##TITLE=Chlordene
##JCAMP-DX=4.24
##DATA TYPE=INFRARED SPECTRUM
##ORIGIN=NIST Mass Spectrometry Data Center
##OWNER=NIST Standard Reference Data Program
Collection (C) 2018 copyright by the U.S. Secretary of Commerce
on behalf of the United States of America. All rights reserved.
##CAS REGISTRY NO=3734-48-3
##MOLFORM=C 10 H 6 Cl 6
##$NIST SOURCE=MSDC-IR
##SPECTROMETER/DATA SYSTEM=HP-GC/MS/IRD
##STATE=gas
##XUNITS=1/CM
##YUNITS=ABSORBANCE
##XFACTOR=1.0
##YFACTOR=0.000001700
##DELTAX=4.0
##FIRSTX=550.0
##LASTX=3846.0
##FIRSTY=0.000631
##MAXX=3846
##MINX=550
##MAXY=0.017
##MINY=0
##NPOINTS=825
##XYDATA=(X++(Y..Y))
550.0 371 177 74 72 120 133 25 3 42 103
590.0 152 92 98 148 173 227 317 395 376 293
630.0 270 284 292 341 428 622 975 1612 2881 5110
670.0 8007 10000 9397 6796 4145 2514 1896 2090 2857 3694
710.0 4036 3673 3096 3007 3866 5638 7437 7653 6057 4324
750.0 3470 3079 2406 1504 880 621 475 380 395 453
790.0 511 623 794 1142 1586 1719 1561 1470 1703 2116
830.0 2211 1791 1169 706 485 411 371 380 441 500
870.0 570 676 864 1186 1821 2843 4062 5130 5588 5248
910.0 4257 3102 2160 1554 1178 986 1003 1181 1582 2055
950.0 2311 2051 1453 901 613 547 543 595 785 1158
990.0 1749 2585 3328 3359 2671 2035 1872 1987 2254 2789
1030.0 3734 4918 5723 5683 5084 4566 4373 4259 3991 3675
1070.0 3546 3575 3428 3142 2992 3201 3632 3771 3285 2534
1110.0 1945 1526 1129 751 565 568 618 635 841 1387
1150.0 2161 2722 2633 2034 1480 1297 1401 1783 2469 3094
1190.0 3032 2225 1387 924 779 805 939 1017 957 825
1230.0 753 793 936 1219 1826 2968 4235 4549 3495 2031
1270.0 1104 738 647 641 646 696 818 982 1079 993
1310.0 745 503 357 278 237 212 220 277 388 555
1350.0 682 631 434 248 162 136 134 148 134 136
1390.0 135 127 138 154 177 192 187 187 189 192
1430.0 208 238 294 392 608 930 1133 995 667 400
1470.0 267 199 165 137 124 112 96 85 64 57
1510.0 66 82 81 70 61 66 73 80 85 84
1550.0 90 109 146 185 223 282 365 462 614 929
1590.0 1531 2558 3902 4921 4774 3468 1969 1022 603 405
1630.0 286 229 186 161 143 124 114 120 129 136
1670.0 149 174 208 222 216 196 170 145 126 108
1710.0 89 77 84 83 59 57 72 78 81 94
1750.0 98 89 98 102 86 91 105 96 86 82
1790.0 86 74 67 72 72 77 72 62 69 70
1830.0 54 43 46 62 57 46 60 66 58 64
1870.0 68 67 57 52 64 70 69 63 53 42
1910.0 38 42 44 47 54 71 79 82 91 89
1950.0 69 50 48 48 49 60 66 57 52 58
1990.0 51 40 32 38 43 38 37 41 40 31
2030.0 22 20 30 34 36 38 36 17 9 19
2070.0 12 14 29 38 50 47 38 47 38 35
2110.0 52 54 53 42 31 27 27 26 25 34
2150.0 32 32 42 47 45 38 36 38 47 49
2190.0 37 28 23 30 33 36 37 36 41 51
2230.0 53 42 43 38 47 63 57 41 35 38
2270.0 42 43 29 26 34 29 16 26 37 37
2310.0 37 44 34 18 46 73 67 50 32 42
2350.0 50 59 64 51 52 62 41 30 45 41
2390.0 38 40 36 38 45 46 37 34 30 27
2430.0 29 27 34 41 28 29 33 26 28 25
2470.0 11 13 20 15 23 27 19 31 49 45
2510.0 29 40 50 42 31 22 16 15 24 24
2550.0 33 47 46 46 33 40 42 30 28 20
2590.0 14 0 5 21 16 25 37 27 13 26
2630.0 31 23 37 33 13 4 13 5 8 35
2670.0 22 35 49 42 56 38 42 54 40 46
2710.0 42 13 14 43 53 35 41 53 42 36
2750.0 48 59 44 25 40 48 35 37 48 66
2790.0 59 58 63 46 52 67 80 73 79 97
2830.0 84 69 91 120 143 168 237 365 546 863
2870.0 1180 1259 1073 769 521 400 332 270 246 273
2910.0 318 383 507 852 1628 2638 3202 2895 2243 1798
2950.0 1603 1300 842 466 289 263 365 704 1155 1294
2990.0 919 457 196 112 100 91 95 93 89 84
3030.0 78 83 98 131 178 264 493 910 1474 1954
3070.0 2034 1705 1122 555 241 132 107 94 85 88
3110.0 77 46 29 47 35 8 21 60 79 72
3150.0 55 63 79 55 30 40 46 61 64 62
3190.0 88 102 96 59 66 89 90 91 85 79
3230.0 85 76 48 43 50 37 32 38 31 28
3270.0 53 44 24 34 56 40 33 46 56 58
3310.0 54 89 107 81 69 95 97 69 67 67
3350.0 40 41 68 52 38 40 27 30 58 81
3390.0 80 47 41 81 75 44 46 71 84 49
3430.0 33 27 7 31 64 58 65 60 66 107
3470.0 99 46 50 97 105 90 89 64 45 37
3510.0 48 52 64 81 50 41 20 8 56 99
3550.0 104 74 54 73 71 31 42 78 72 60
3590.0 70 81 80 72 73 86 77 72 87 91
3630.0 91 100 102 98 115 81 34 33 34 69
3670.0 74 84 114 71 61 76 54 50 79 72
3710.0 29 35 62 77 105 112 95 91 86 94
3750.0 111 100 96 104 63 72 128 120 78 100
3790.0 103 85 117 127 105 112 110 101 144 146
3830.0 144 168 127 82 66
##END=
