##TITLE=trans-Nonachlor
##JCAMP-DX=4.24
##DATA TYPE=INFRARED SPECTRUM
##ORIGIN=NIST Mass Spectrometry Data Center
##OWNER=NIST Standard Reference Data Program
Collection (C) 2018 copyright by the U.S. Secretary of Commerce
on behalf of the United States of America. All rights reserved.
##CAS REGISTRY NO=3734-49-4
##MOLFORM=C 10 H 5 Cl 9
##$NIST SOURCE=MSDC-IR
##SPECTROMETER/DATA SYSTEM=HP-GC/MS/IRD
##STATE=gas
##XUNITS=1/CM
##YUNITS=ABSORBANCE
##XFACTOR=1.0
##YFACTOR=0.000002400
##DELTAX=4.0
##FIRSTX=550.0
##LASTX=3846.0
##FIRSTY=0.002959
##MAXX=3846
##MINX=550
##MAXY=0.024
##MINY=0
##NPOINTS=825
##XYDATA=(X++(Y..Y))
550.0 1233 1077 1877 3804 5253 4486 2380 942 441 400
590.0 480 733 1173 1428 1254 869 639 573 601 1081
630.0 2069 2473 1613 581 223 223 272 278 249 261
670.0 367 599 1055 2044 4289 7701 9108 6792 3640 1684
710.0 820 504 404 361 295 221 170 175 199 198
750.0 203 212 223 291 432 615 935 1451 2145 3030
790.0 4103 5114 5489 4920 4069 4066 5673 8575 9802 7401
830.0 4182 2664 2709 4140 6461 7401 5609 3255 2050 1505
870.0 1262 1340 1659 2148 2579 2679 2452 2253 2713 4117
910.0 5520 5223 3479 2191 1926 1951 1750 1395 1104 848
950.0 635 512 470 475 525 616 803 1130 1679 2510
990.0 3455 4007 3773 3095 2485 2107 2041 2341 2867 3454
1030.0 3987 4452 5225 6357 7011 6523 5478 5113 5865 7396
1070.0 9118 10000 9487 8039 6200 4383 3047 2281 1874 1611
1110.0 1319 1000 724 519 403 378 446 576 792 1107
1150.0 1511 1835 1997 2040 2065 2192 2433 2606 2406 1893
1190.0 1465 1309 1450 1878 2624 3531 3915 3718 3833 4601
1230.0 5362 5484 5133 4759 4619 4923 5581 5609 4332 2753
1270.0 1930 1735 1848 2092 2438 2959 3656 4155 3952 3348
1310.0 3361 4532 6068 6378 5315 4147 3264 2402 1681 1212
1350.0 942 768 647 552 489 439 374 323 267 213
1390.0 180 154 130 112 95 89 83 77 87 94
1430.0 85 65 56 52 35 30 19 15 27 27
1470.0 16 15 22 24 27 24 20 19 17 0
1510.0 1 9 5 15 32 39 42 41 47 59
1550.0 74 110 158 248 351 450 579 825 1305 2158
1590.0 3560 5311 6294 5411 3332 1623 774 427 279 217
1630.0 183 160 147 135 114 104 111 110 115 127
1670.0 124 107 97 82 74 73 64 62 68 80
1710.0 88 89 79 77 80 80 79 94 105 96
1750.0 95 108 115 122 123 124 135 141 131 119
1790.0 115 113 118 115 120 124 123 120 116 118
1830.0 122 127 127 120 125 131 133 132 131 126
1870.0 128 134 133 135 136 134 131 137 147 150
1910.0 147 150 148 143 145 147 152 160 163 166
1950.0 178 178 178 177 172 175 173 163 163 169
1990.0 175 169 171 177 174 181 181 178 185 191
2030.0 195 198 196 200 202 198 195 197 201 196
2070.0 192 192 194 192 185 184 188 188 191 187
2110.0 189 192 190 182 188 191 185 188 190 186
2150.0 186 197 203 203 197 195 202 200 197 200
2190.0 204 195 190 195 192 187 184 183 184 174
2230.0 169 176 183 188 186 182 178 179 186 190
2270.0 191 187 186 187 184 182 180 186 189 174
2310.0 170 180 181 182 185 182 190 194 187 198
2350.0 199 191 200 196 190 190 186 190 196 198
2390.0 204 214 224 222 221 229 237 237 240 242
2430.0 247 257 260 265 276 280 282 288 283 275
2470.0 274 291 303 294 285 288 293 296 300 303
2510.0 301 298 289 279 271 260 247 240 234 230
2550.0 237 235 231 227 221 228 231 217 214 212
2590.0 201 201 205 204 200 202 207 202 200 211
2630.0 213 206 211 212 205 199 206 218 208 203
2670.0 198 184 182 180 176 180 188 182 172 181
2710.0 193 190 186 200 195 187 189 182 185 184
2750.0 182 181 169 172 178 186 182 176 177 176
2790.0 175 175 179 182 180 181 187 183 176 176
2830.0 186 179 176 180 179 179 175 178 179 189
2870.0 204 206 220 221 219 223 220 216 225 238
2910.0 233 226 235 234 234 250 268 272 287 388
2950.0 633 893 926 866 906 889 780 692 629 507
2990.0 354 268 219 194 191 185 194 200 200 223
3030.0 233 228 226 223 228 235 236 232 220 210
3070.0 191 182 184 179 183 192 181 182 202 197
3110.0 184 195 200 188 196 207 214 206 177 185
3150.0 201 204 210 210 207 210 223 228 222 203
3190.0 184 182 200 202 199 199 195 211 209 196
3230.0 202 216 225 217 192 183 196 190 205 223
3270.0 197 197 216 216 222 236 227 210 202 192
3310.0 202 191 194 219 208 201 192 200 206 204
3350.0 212 213 197 183 196 211 217 207 195 207
3390.0 212 203 204 199 200 195 202 219 204 201
3430.0 194 185 200 193 198 210 198 186 197 211
3470.0 203 200 208 207 188 187 206 212 191 198
3510.0 204 211 217 193 199 201 187 201 207 194
3550.0 200 207 191 182 184 195 201 212 207 172
3590.0 181 199 210 222 208 207 209 191 202 213
3630.0 212 214 189 190 212 203 184 204 227 208
3670.0 204 192 194 227 218 202 205 189 177 201
3710.0 228 228 211 193 191 211 200 191 195 184
3750.0 198 195 212 229 230 232 218 206 216 235
3790.0 242 245 238 233 244 245 239 238 237 251
3830.0 278 266 232 217 225
##END=
