##TITLE=4-Chloro-2-methylphenyl isocyanate
##JCAMP-DX=4.24
##DATA TYPE=INFRARED SPECTRUM
##ORIGIN=EPA-IR VAPOR PHASE LIBRARY
##OWNER=SRD/NIST
Collection (C) 2018 copyright by the U.S. Secretary of Commerce
on behalf of the United States of America. All rights reserved.
##CAS REGISTRY NO=37408-18-7
##MOLFORM=C 8 H 6 Cl N O
##$NIST SOURCE=MSDC-IR
##STATE=gas
##XUNITS=1/CM
##YUNITS=ABSORBANCE
##XFACTOR=1.
##YFACTOR=0.001
##DELTAX=1.92898
##FIRSTX=549.8
##LASTX=4000.7
##FIRSTY=5.192
##MAXX=4000.7
##MINX=549.759
##MAXY=0.478752
##MINY=0
##NPOINTS=1790
##XYDATA=(X++(Y..Y))
549.759 5.192 4.852 4.432 4.272 4.412 4.482 4.792 5.232 6.002 6.932
569.049 7.502 8.102 9.032 9.882 10.722 11.642 12.162 12.692 13.382 13.942
588.339 13.902 13.552 13.262 12.682 11.812 10.732 9.632 8.412 7.242 6.422
607.628 5.702 5.042 4.532 4.232 3.892 3.462 3.422 3.582 3.622 3.662
626.918 3.592 3.622 3.852 3.912 3.782 3.742 3.882 3.932 3.732 3.652
646.208 3.842 4.052 4.072 3.912 3.822 3.672 3.412 3.192 3.322 3.432
665.498 3.312 3.122 2.992 2.812 2.632 2.542 2.392 2.272 2.162 2.052
684.787 1.852 1.662 1.682 1.702 1.682 1.712 1.632 1.562 1.642 1.782
704.077 1.762 1.682 1.682 1.742 1.702 1.582 1.462 1.412 1.552 1.652
723.367 1.682 1.742 1.852 1.932 2.002 2.182 2.322 2.262 2.152 2.052
742.657 1.952 1.932 1.812 1.572 1.412 1.3336 1.1593 1.1316 1.1259 0.8672
761.947 0.9034 1.1688 1.0522 0.8024 0.9596 1.1772 1.2037 1.318 1.2808 1.2192
781.236 1.2216 1.392 1.622 1.672 1.942 2.402 3.052 3.882 4.812 6.022
800.526 7.502 9.012 10.512 12.062 13.802 15.552 16.892 17.352 16.672 15.442
819.816 14.022 12.162 10.332 8.972 7.892 6.452 5.012 4.092 3.432 2.892
839.106 2.412 2.082 1.952 1.972 1.882 1.952 2.182 2.532 3.052 3.592
858.395 4.132 4.942 5.892 6.992 8.282 9.722 11.812 14.272 15.642 16.022
877.685 16.252 16.342 15.812 14.742 12.992 10.622 7.992 5.582 3.952 2.992
896.975 2.402 1.952 1.592 1.3311 1.2613 1.147 0.9343 0.8372 0.8581 0.8604
916.265 0.8588 0.8904 0.8778 0.71 0.6027 0.6095 0.723 0.7518 0.696 0.5761
935.555 0.5043 0.6718 0.7185 0.8119 0.8905 0.8718 0.9028 0.8637 0.8074 0.8101
954.844 0.6821 0.5417 0.6117 0.7054 0.6982 0.6659 0.8567 1.0297 1.155 1.3
974.134 1.3716 1.422 1.532 1.742 1.982 2.162 2.292 2.652 2.842 2.952
993.424 3.182 3.222 3.182 3.012 2.742 2.552 2.302 1.922 1.622 1.462
1012.714 1.2972 1.3032 1.3517 1.2569 1.392 1.2835 1.0499 1.0505 1.0918 1.0559
1032.003 0.9832 1.3298 1.462 1.392 1.402 1.382 1.3687 1.1954 1.3046 1.492
1051.293 1.522 1.692 1.912 2.152 2.502 2.942 3.612 4.062 4.612 5.712
1070.583 6.632 7.162 7.792 8.362 8.722 9.082 9.362 10.102 11.252 12.992
1089.873 15.872 19.812 25.162 31.102 37.532 43.492 47.482 49.642 49.092 46.502
1109.163 41.612 34.722 26.932 19.392 13.892 10.162 8.252 7.502 6.652 6.452
1128.452 6.502 6.452 6.822 7.412 7.622 8.022 8.872 9.072 9.182 9.582
1147.742 10.052 10.382 10.572 10.972 11.402 11.662 11.902 11.892 11.482 11.022
1167.032 10.272 9.082 8.022 7.302 6.682 6.252 5.682 4.732 4.362 4.552
1186.322 4.512 4.682 4.932 4.672 4.612 4.672 4.612 4.602 4.522 4.212
1205.611 3.512 2.822 2.432 2.142 1.872 1.842 1.742 1.552 1.2788 1.0737
1224.901 1.2845 1.3307 1.0884 0.9626 1.1028 1.392 1.552 1.702 1.912 1.792
1244.191 1.632 1.732 2.002 2.122 2.152 2.222 2.332 2.732 2.992 3.322
1263.481 3.912 4.052 3.882 3.962 4.002 3.792 3.432 2.872 2.292 1.832
1282.771 1.532 1.402 1.2584 0.9981 0.9047 0.9681 0.9645 0.9053 0.8849 0.9355
1302.060 0.9603 0.9434 0.952 1.0045 1.0585 1.0196 0.948 0.9859 1.0376 1.0353
1321.350 0.9975 0.9698 0.9832 1.0405 1.1401 1.1248 1.0742 1.0777 1.0589 1.0159
1340.640 1.0085 1.0304 1.1111 1.1572 1.1413 1.1764 1.2052 1.2262 1.263 1.3412
1359.930 1.442 1.502 1.572 1.772 1.972 2.192 2.452 2.732 2.942 3.132
1379.219 3.442 3.752 4.052 4.472 5.052 5.692 6.312 6.762 7.032 7.152
1398.509 7.082 6.732 6.122 5.462 4.892 4.452 4.212 4.232 4.352 4.552
1417.799 4.782 4.882 5.022 5.132 5.132 5.162 5.112 5.032 5.122 5.312
1437.089 5.532 5.852 6.272 6.742 7.162 7.652 8.172 8.582 8.902 9.092
1456.378 9.272 9.392 9.392 9.412 9.482 9.652 9.892 10.152 10.522 10.992
1475.668 11.662 12.502 13.452 14.432 15.502 16.752 18.032 19.512 21.352 23.552
1494.958 26.162 29.022 32.222 35.672 39.072 42.202 44.762 46.612 47.662 47.762
1514.248 46.852 45.102 42.632 39.592 35.962 32.172 28.452 24.792 21.442 18.442
1533.538 15.722 13.312 11.312 9.702 8.342 7.262 6.412 5.712 5.182 4.772
1552.827 4.402 4.112 4.052 4.062 4.012 4.052 4.162 4.252 4.402 4.532
1572.117 4.732 5.012 5.162 5.122 5.082 5.062 4.982 4.842 4.672 4.472
1591.407 4.252 4.212 4.162 4.012 3.872 3.772 3.672 3.542 3.262 2.942
1610.697 2.782 2.622 2.452 2.432 2.322 2.262 2.342 2.252 2.172 2.092
1629.986 1.942 1.872 1.852 1.782 1.682 1.542 1.432 1.337 1.2005 1.1056
1649.276 1.013 0.9454 0.9912 0.9212 0.8258 0.8683 0.8438 0.7616 0.7686 0.756
1668.566 0.74 0.7865 0.814 0.7986 0.7782 0.7443 0.7576 0.7427 0.7559 0.7867
1687.856 0.758 0.7594 0.7254 0.6856 0.6474 0.6624 0.7055 0.6793 0.6808 0.6747
1707.146 0.6611 0.6861 0.7461 0.7228 0.7381 0.8543 0.8351 0.8836 1.0035 1.0591
1726.435 1.146 1.2778 1.412 1.492 1.602 1.702 1.672 1.692 1.712 1.622
1745.725 1.552 1.522 1.462 1.261 1.112 0.9724 0.8464 0.713 0.6029 0.5793
1765.015 0.5877 0.5494 0.4814 0.42564 0.43356 0.5016 0.5306 0.547 0.45372 0.3946
1784.305 0.45986 0.5313 0.5429 0.586 0.6363 0.6383 0.6259 0.6547 0.7359 0.7604
1803.594 0.7756 0.7558 0.6996 0.7058 0.7012 0.7281 0.7472 0.6968 0.6937 0.7009
1822.884 0.6679 0.6403 0.6925 0.6903 0.6533 0.6511 0.6515 0.6593 0.6403 0.6846
1842.174 0.6916 0.6634 0.695 0.6697 0.685 0.7999 0.9104 1.0176 1.1294 1.2425
1861.464 1.2726 1.3084 1.3663 1.462 1.562 1.542 1.542 1.552 1.492 1.442
1880.754 1.442 1.382 1.2148 1.0454 0.9568 0.8721 0.7938 0.756 0.7475 0.7303
1900.043 0.7277 0.7166 0.677 0.6923 0.6493 0.6502 0.6805 0.6326 0.6417 0.6794
1919.333 0.6247 0.5744 0.6053 0.6346 0.6702 0.6974 0.7079 0.7006 0.6721 0.6374
1938.623 0.634 0.659 0.647 0.6499 0.6996 0.6322 0.5894 0.6399 0.6242 0.5726
1957.913 0.558 0.6043 0.6269 0.6129 0.607 0.6137 0.6564 0.7045 0.6852 0.6398
1977.202 0.6213 0.6639 0.7304 0.7633 0.8119 0.7866 0.7024 0.6853 0.7302 0.7217
1996.492 0.6881 0.7457 0.7323 0.7041 0.7302 0.7274 0.7422 0.7335 0.7247 0.7404
2015.782 0.7488 0.7837 0.8034 0.8027 0.8162 0.8338 0.8603 0.8647 0.8343 0.8182
2035.072 0.8592 0.8702 0.9095 0.9595 0.9342 0.9634 1.0074 1.0388 1.0601 1.1178
2054.362 1.2116 1.2229 1.2528 1.3293 1.3659 1.402 1.412 1.442 1.532 1.632
2073.651 1.712 1.762 1.812 1.922 2.062 2.072 2.122 2.312 2.452 2.502
2092.941 2.622 2.762 2.982 3.202 3.332 3.492 3.602 3.672 3.782 3.912
2112.231 4.032 4.122 4.202 4.212 4.252 4.332 4.432 4.612 4.732 4.792
2131.521 4.932 5.132 5.352 5.582 5.982 6.402 6.742 7.212 7.772 8.432
2150.810 9.242 10.072 10.922 11.872 13.002 14.202 15.412 16.672 17.932 19.162
2170.100 20.182 21.042 21.742 22.202 22.482 22.592 22.612 22.502 22.342 22.232
2189.390 22.322 22.562 22.922 23.512 24.262 25.292 26.542 27.992 29.682 31.432
2208.680 33.412 35.602 37.822 40.212 42.752 45.382 48.232 51.262 54.572 58.292
2227.970 62.372 66.792 71.582 76.542 81.712 87.082 92.382 97.732 103.122 108.582
2247.259 114.332 120.592 127.532 135.422 144.622 155.442 168.192 183.192 200.822 221.292
2266.549 244.952 272.052 302.372 335.592 370.722 405.452 436.722 461.092 475.612 478.752
2285.839 469.272 447.052 414.232 373.972 329.502 284.102 241.242 203.452 171.912 146.712
2305.129 126.822 111.082 98.742 88.982 80.992 74.172 68.242 62.982 58.122 53.732
2324.418 49.802 46.232 43.082 40.392 38.032 36.042 34.552 33.382 32.472 31.882
2343.708 31.402 31.342 31.662 32.092 32.732 33.522 34.362 35.082 35.532 35.642
2362.998 35.352 34.562 33.332 31.852 30.132 28.212 26.362 24.462 22.462 20.612
2382.288 18.882 17.202 15.642 14.292 13.072 11.832 10.692 9.762 8.952 8.222
2401.578 7.632 7.132 6.682 6.302 5.982 5.702 5.462 5.262 5.132 5.012
2420.867 4.872 4.802 4.702 4.652 4.662 4.612 4.502 4.492 4.472 4.332
2440.157 4.152 3.922 3.702 3.512 3.242 3.082 2.922 2.712 2.542 2.332
2459.447 2.192 2.072 1.952 1.922 1.872 1.832 1.852 1.762 1.722 1.642
2478.737 1.532 1.482 1.382 1.3404 1.2963 1.2857 1.2542 1.1504 1.1413 1.1667
2498.026 1.1688 1.1712 1.1165 1.0791 1.1425 1.0882 1.0451 1.1114 1.1122 1.0375
2517.316 0.9492 0.9885 1.0409 0.9938 0.9322 0.9201 0.9312 0.9334 0.91 0.8788
2536.606 0.8837 0.9078 0.8776 0.8395 0.8339 0.8188 0.8336 0.8726 0.8037 0.7597
2555.896 0.7702 0.7775 0.7808 0.7716 0.7639 0.7742 0.8578 0.8965 0.9162 0.9338
2575.186 0.9162 0.909 0.9715 1.0456 1.0324 1.049 1.1174 1.0524 0.9714 0.9881
2594.475 0.9988 1.0071 0.97 0.9443 1.0259 1.0605 1.0538 1.0742 1.0571 1.0664
2613.765 1.0895 1.1311 1.2025 1.2769 1.3361 1.331 1.402 1.412 1.442 1.542
2633.055 1.592 1.622 1.612 1.622 1.602 1.482 1.368 1.277 1.1438 1.0988
2652.345 1.0412 0.9665 0.9528 0.9073 0.8468 0.8067 0.7744 0.7788 0.7931 0.7712
2671.634 0.7188 0.6536 0.6319 0.6363 0.6629 0.7092 0.7031 0.6967 0.6161 0.5837
2690.924 0.7066 0.7229 0.6275 0.6218 0.6019 0.5478 0.6142 0.6688 0.6786 0.7229
2710.214 0.6828 0.6358 0.6575 0.7059 0.7465 0.7156 0.663 0.58 0.5811 0.6114
2729.504 0.6072 0.5947 0.6075 0.677 0.7464 0.776 0.7111 0.6922 0.7616 0.8389
2748.794 0.8181 0.7072 0.6884 0.6998 0.6955 0.6491 0.6372 0.6886 0.6698 0.6419
2768.083 0.6702 0.6104 0.5791 0.6862 0.6326 0.5818 0.6166 0.6439 0.7439 0.7617
2787.373 0.738 0.7818 0.7976 0.8011 0.7724 0.7624 0.6907 0.6684 0.7798 0.8319
2806.663 0.8307 0.7818 0.796 0.8916 0.9749 0.9758 1.0712 1.1529 1.0973 1.0894
2825.953 1.1117 1.1989 1.2533 1.169 1.1447 1.1435 1.1378 1.2444 1.2614 1.2466
2845.242 1.318 1.432 1.462 1.492 1.612 1.652 1.722 1.852 1.902 1.972
2864.532 2.132 2.272 2.302 2.332 2.482 2.572 2.632 2.742 2.802 2.762
2883.822 2.762 2.772 2.852 2.892 2.762 2.772 2.862 2.822 2.842 2.932
2903.112 2.962 3.012 3.092 3.182 3.342 3.522 3.732 3.922 4.172 4.522
2922.401 4.862 5.192 5.582 5.892 6.302 6.752 7.032 7.152 7.112 7.102
2941.691 7.042 6.802 6.482 6.112 5.762 5.452 5.172 4.902 4.732 4.662
2960.981 4.622 4.652 4.532 4.342 4.412 4.432 4.312 4.282 4.302 4.392
2980.271 4.412 4.382 4.522 4.702 4.872 4.752 4.532 4.522 4.462 4.362
2999.561 4.272 4.242 4.132 4.062 4.052 3.892 3.822 3.762 3.682 3.612
3018.850 3.502 3.492 3.502 3.372 3.172 3.142 3.012 2.922 3.062 2.932
3038.140 2.702 2.732 2.702 2.632 2.672 2.652 2.692 2.822 2.912 2.962
3057.430 2.982 2.992 2.992 3.072 3.132 3.032 2.902 2.782 2.742 2.692
3076.720 2.572 2.452 2.472 2.462 2.242 2.092 2.042 1.992 1.932 1.852
3096.009 1.742 1.642 1.502 1.402 1.3607 1.254 1.1858 1.189 1.1181 1.12
3115.299 1.1661 0.965 0.7662 0.7983 0.871 0.7382 0.6874 0.8332 0.8764 0.7928
3134.589 0.7316 0.614 0.5663 0.608 0.6661 0.6397 0.6043 0.6963 0.8092 0.8279
3153.879 0.7039 0.5917 0.6033 0.674 0.676 0.6777 0.7435 0.7614 0.7243 0.7502
3173.169 0.742 0.6255 0.5775 0.6043 0.5296 0.44168 0.40601 0.3026 0.39602 0.4754
3192.458 0.3414 0.2822 0.2899 0.3546 0.46855 0.376065 0.177 0.131 0.2853 0.3302
3211.748 0.162 0.192 0.255 0.197 0.191 0.126 0.096 0.25 0.3149 0.223
3231.038 0 0.044 0.241 0.2925 0.3543 0.37 0.2723 0.232 0.2752 0.2783
3250.328 0.221 0.223 0.267 0.24 0.3276 0.3631 0.3281 0.2987 0.245 0.212
3269.617 0.3052 0.4773 0.42187 0.2874 0.3804 0.4726 0.46222 0.43027 0.43186 0.41333
3288.907 0.3352 0.3207 0.46485 0.5245 0.44441 0.45686 0.42097 0.4828 0.582 0.5776
3308.197 0.4822 0.5115 0.656 0.5988 0.5773 0.5587 0.5298 0.52 0.5872 0.6808
3327.487 0.6973 0.7715 0.8072 0.8371 0.9471 1.044 1.1697 1.3436 1.412 1.422
3346.777 1.432 1.3697 1.542 1.662 1.632 1.872 1.872 1.812 1.942 1.972
3366.066 2.132 2.102 1.812 1.682 1.742 1.742 1.682 1.792 1.812 1.722
3385.356 1.712 1.662 1.662 1.582 1.412 1.3688 1.522 1.572 1.462 1.367
3404.646 1.402 1.542 1.482 1.532 1.662 1.532 1.512 1.612 1.582 1.642
3423.936 1.672 1.662 1.702 1.752 1.722 1.742 1.772 1.572 1.3682 1.3687
3443.225 1.343 1.2968 1.2713 1.1716 1.0161 0.9744 1.0506 0.9234 0.8109 0.8815
3462.515 1.0037 0.9974 0.8465 0.788 0.8063 0.7974 0.9071 0.9749 0.8576 0.7834
3481.805 0.8458 0.9967 1.0249 0.9019 0.86 1.0178 0.9808 0.7638 0.7713 0.809
3501.095 0.7371 0.7391 0.7344 0.6615 0.6049 0.6564 0.71 0.6036 0.6478 0.706
3520.385 0.5426 0.4767 0.5183 0.6202 0.6771 0.6492 0.6641 0.7315 0.6659 0.5497
3539.674 0.5714 0.5567 0.5664 0.5937 0.5618 0.45925 0.4882 0.6156 0.6246 0.6394
3558.964 0.713 0.7012 0.5933 0.5639 0.5695 0.5941 0.7541 0.7506 0.5706 0.5952
3578.254 0.6415 0.5639 0.6544 0.6093 0.5009 0.6175 0.701 0.7476 0.7706 0.7525
3597.544 0.744 0.7649 0.878 0.9677 0.8776 0.8839 0.9161 0.9124 0.9393 1.0214
3616.833 1.0853 1.0294 0.941 0.9834 1.05 0.9903 1.0161 1.0344 1.038 1.1335
3636.123 1.2199 1.1861 1.1712 1.248 1.2952 1.2219 1.1569 1.2483 1.3273 1.442
3655.413 1.602 1.672 1.742 1.852 1.732 1.602 1.792 1.992 2.122 2.052
3674.703 2.012 2.092 2.012 1.972 1.992 1.942 1.982 1.992 1.932 1.962
3693.993 2.012 1.972 1.952 1.922 1.912 1.972 2.072 2.172 2.102 2.002
3713.282 2.052 2.212 2.002 1.802 1.972 1.962 1.852 1.962 2.042 1.932
3732.572 1.722 1.612 1.652 1.712 1.582 1.522 1.582 1.422 1.382 1.3518
3751.862 1.3199 1.3482 1.1641 1.1482 1.2686 1.3336 1.402 1.2466 1.259 1.2329
3771.152 1.1393 1.3098 1.2974 1.2462 1.3343 1.3662 1.442 1.402 1.3704 1.382
3790.441 1.3234 1.2677 1.2287 1.3592 1.432 1.3392 1.2767 1.3157 1.442 1.412
3809.731 1.2388 1.075 1.0389 1.0508 1.0387 0.9703 0.8463 0.9271 0.9255 0.8269
3829.021 0.8601 0.9874 0.8284 0.6748 0.7475 0.7764 0.7482 0.7485 0.7548 0.6044
3848.311 0.45557 0.3038 0.44015 0.5517 0.5702 0.642 0.6365 0.6583 0.6895 0.5744
3867.601 0.40863 0.3854 0.4152 0.42892 0.5528 0.6274 0.4734 0.5068 0.5989 0.5692
3886.890 0.4414 0.4965 0.526 0.45477 0.5155 0.4812 0.5157 0.5688 0.4726 0.43642
3906.180 0.3247 0.37484 0.5691 0.598 0.5934 0.5742 0.43299 0.42234 0.6688 0.5067
3925.470 0.3022 0.38811 0.38674 0.4897 0.4913 0.3592 0.501 0.5694 0.5268 0.5047
3944.760 0.36703 0.38224 0.373857 0.42984 0.5105 0.3538 0.45289 0.637 0.482 0.40127
3964.049 0.46811 0.4765 0.42745 0.3392 0.39397 0.39068 0.40063 0.5055 0.4935 0.4951
3983.339 0.543 0.379429 0.2996 0.43038 0.3294 0.237 0.271 0.3192 0.3208 0.3459
##END=
