##TITLE=Vinylcyclopentane
##JCAMP-DX=4.24
##DATA TYPE=INFRARED SPECTRUM
##ORIGIN=NIST Mass Spectrometry Data Center
##OWNER=NIST Standard Reference Data Program
Collection (C) 2018 copyright by the U.S. Secretary of Commerce
on behalf of the United States of America. All rights reserved.
##CAS REGISTRY NO=3742-34-5
##MOLFORM=C 7 H 12
##$NIST SOURCE=MSDC-IR
##SPECTROMETER/DATA SYSTEM=HP-GC/MS/IRD
##STATE=gas
##XUNITS=1/CM
##YUNITS=ABSORBANCE
##XFACTOR=1.0
##YFACTOR=0.000004000
##DELTAX=4.0
##FIRSTX=550.0
##LASTX=3846.0
##FIRSTY=0.000604
##MAXX=3846
##MINX=550
##MAXY=0.04
##MINY=0
##NPOINTS=825
##XYDATA=(X++(Y..Y))
550.0 151 93 25 0 27 42 31 16 14 27
590.0 31 47 75 89 79 66 75 91 108 125
630.0 142 160 171 189 243 291 300 291 288 287
670.0 279 255 219 188 165 145 117 98 93 85
710.0 73 69 61 46 53 54 44 47 55 46
750.0 40 39 46 60 58 47 46 53 55 60
790.0 75 74 70 81 79 92 105 96 106 119
830.0 129 146 157 166 170 171 194 221 238 274
870.0 312 358 445 560 702 892 1134 1402 1659 1830
910.0 1897 1967 1943 1743 1458 1186 951 757 628 532
950.0 467 439 432 437 458 497 561 644 719 762
990.0 771 804 819 746 652 560 472 401 346 291
1030.0 250 222 202 169 154 160 155 140 130 131
1070.0 124 116 115 114 115 121 125 118 112 108
1110.0 113 113 113 111 111 106 92 81 69 66
1150.0 61 59 65 67 65 64 60 61 72 73
1190.0 57 51 61 71 70 64 60 58 63 64
1230.0 61 64 63 64 68 75 81 88 95 103
1270.0 118 127 142 157 165 175 180 185 180 164
1310.0 157 153 148 133 121 122 127 124 115 114
1350.0 107 102 101 92 79 73 77 89 96 100
1390.0 115 131 153 184 219 263 297 311 323 337
1430.0 349 354 369 400 426 452 459 449 455 446
1470.0 405 361 327 290 248 220 189 151 125 99
1510.0 84 76 64 56 51 48 41 35 41 50
1550.0 58 61 59 72 84 84 81 81 82 80
1590.0 79 90 104 124 155 200 264 363 497 637
1630.0 753 823 857 846 785 675 505 341 219 143
1670.0 102 78 58 38 35 39 28 19 18 21
1710.0 20 16 7 9 11 7 7 11 9 10
1750.0 11 8 9 12 10 7 12 16 16 22
1790.0 24 27 38 50 75 118 155 183 203 208
1830.0 203 189 154 106 70 48 34 29 29 22
1870.0 15 12 15 17 15 13 11 12 14 9
1910.0 3 3 5 3 3 6 7 3 4 8
1950.0 13 14 14 19 23 22 25 28 29 28
1990.0 19 15 18 19 14 7 5 7 12 15
2030.0 11 10 11 9 9 11 4 4 10 13
2070.0 14 13 15 15 17 14 15 17 12 10
2110.0 14 17 18 15 12 5 10 18 11 11
2150.0 17 18 19 18 16 18 24 25 25 25
2190.0 23 22 22 20 20 18 15 15 23 26
2230.0 20 23 21 20 21 19 18 20 27 29
2270.0 29 27 23 26 25 23 23 21 18 19
2310.0 19 10 4 2 2 2 2 2 2 2
2350.0 2 2 2 2 2 2 2 4 13 18
2390.0 18 14 10 12 13 9 9 9 6 6
2430.0 8 11 7 6 2 2 5 3 6 10
2470.0 10 15 12 4 5 10 13 14 13 8
2510.0 7 5 5 11 12 13 18 21 21 19
2550.0 24 27 27 29 27 25 25 29 36 40
2590.0 40 38 42 42 33 29 34 30 25 29
2630.0 26 27 26 25 27 29 24 20 24 29
2670.0 28 31 32 31 31 34 37 39 41 41
2710.0 46 51 57 60 57 58 65 64 67 75
2750.0 72 74 78 82 91 95 102 110 121 127
2790.0 135 145 157 178 204 225 250 288 333 391
2830.0 452 522 619 743 902 1109 1380 1732 2159 2612
2870.0 3004 3302 3507 3618 3630 3528 3356 3196 3114 3144
2910.0 3268 3460 3703 4004 4365 4813 5375 6059 6836 7619
2950.0 8300 8811 9413 10000 9440 8187 7176 6227 5285 4383
2990.0 3595 2968 2496 2128 1819 1554 1317 1099 904 739
3030.0 622 551 511 483 471 481 507 559 631 729
3070.0 881 1062 1188 1242 1260 1154 1026 905 682 472
3110.0 325 239 194 164 136 112 104 104 99 92
3150.0 81 77 79 67 59 58 55 61 53 44
3190.0 40 38 41 44 43 50 53 44 44 45
3230.0 49 47 41 42 44 46 44 41 41 52
3270.0 56 53 50 42 41 44 42 39 39 41
3310.0 45 41 31 22 23 29 34 25 25 31
3350.0 25 24 24 21 22 25 26 21 22 30
3390.0 29 34 36 31 35 32 28 26 22 25
3430.0 30 33 32 31 35 29 33 37 39 36
3470.0 28 30 22 14 17 26 31 28 29 38
3510.0 36 33 30 26 37 40 36 27 22 18
3550.0 25 30 19 14 19 21 19 22 17 15
3590.0 18 14 16 23 19 19 12 2 11 15
3630.0 11 15 21 24 14 11 19 21 18 16
3670.0 15 13 3 11 25 24 31 43 42 29
3710.0 24 27 27 28 24 25 17 16 20 12
3750.0 15 24 26 37 37 34 34 29 25 26
3790.0 30 37 34 24 29 39 31 25 26 29
3830.0 38 44 47 43 38
##END=
