##TITLE=n-Dodecylthioglycolate
##JCAMP-DX=4.24
##DATA TYPE=INFRARED SPECTRUM
##ORIGIN=EPA-IR VAPOR PHASE LIBRARY
##OWNER=SRD/NIST
Collection (C) 2018 copyright by the U.S. Secretary of Commerce
on behalf of the United States of America. All rights reserved.
##CAS REGISTRY NO=3746-39-2
##MOLFORM=C 14 H 28 O 2 S
##$NIST SOURCE=MSDC-IR
##STATE=gas
##XUNITS=1/CM
##YUNITS=ABSORBANCE
##XFACTOR=1.
##YFACTOR=0.001
##DELTAX=3.85796
##FIRSTX=501.5
##LASTX=4000.7
##FIRSTY=0.2216
##MAXX=4000.7
##MINX=501.534
##MAXY=0.28006
##MINY=0.00009397
##NPOINTS=908
##XYDATA=(X++(Y..Y))
501.534 0.2216 0.1518 0.1135 0.09397 0.2015 0.3062 0.2293 0.2076 0.3533 0.4549
540.114 0.4812 0.5032 0.5948 0.7977 1.01 1.22 1.45 1.66 1.9 2.15
578.693 2.32 2.36 2.29 2.12 1.93 1.75 1.5 1.33 1.18 0.9928
617.273 0.8381 0.7089 0.6251 0.5335 0.5371 0.5766 0.6435 0.6984 0.7105 0.8858
655.852 1.13 1.31 1.46 1.72 2.06 2.42 2.81 3.21 3.61 4.06
694.432 4.5 4.92 5.42 5.87 6.3 6.72 6.97 6.95 6.69 6.34
733.011 5.95 5.6 5.25 4.89 4.54 4.3 4.14 3.95 3.76 3.59
771.591 3.38 3.17 3.02 2.87 2.73 2.61 2.51 2.46 2.44 2.45
810.170 2.5 2.53 2.59 2.7 2.8 2.86 2.95 3.05 3.19 3.31
848.750 3.37 3.52 3.64 3.72 3.83 3.9 3.98 4.03 4.16 4.28
887.330 4.34 4.49 4.64 4.73 4.79 4.85 4.93 5.04 5.19 5.37
925.909 5.64 5.92 6.25 6.64 7.16 7.81 8.53 9.44 10.44 11.43
964.489 12.38 13.22 13.98 14.73 15.35 15.86 16.44 17.23 18.25 19.59
1003.068 21.22 22.85 24.2 24.99 24.99 24.37 23.41 22.21 21.07 20.26
1041.648 19.51 18.67 17.84 16.93 16.11 15.39 14.66 14.05 13.53 13.11
1080.227 12.84 12.76 12.96 13.52 14.5 16.02 18.1 20.89 24.6 29.3
1118.807 35.32 42.93 52.3 63.25 75.16 86.56 95.05 98.77 97.79 93.93
1157.387 88.71 82.66 75.9 68.77 61.57 54.76 48.86 44.06 40.28 37.53
1195.966 35.81 35.05 35.12 35.94 37.45 39.54 42.19 45.11 48 50.62
1234.546 52.7 54.18 55.28 56.86 60.28 66.34 74.32 82.41 88.87 92.65
1273.125 93.82 93.18 91.42 88.73 84.68 78.66 70.48 60.73 50.78 41.86
1311.705 34.47 28.72 24.4 21.22 18.86 17.03 15.64 14.69 14.17 13.95
1350.284 13.85 13.58 13.01 12.3 11.69 11.26 11.07 11.31 11.75 11.78
1388.864 11.05 9.97 9.09 8.79 9.21 10.48 12.82 15.95 18.44 18.46
1427.443 16.51 14.8 14.51 15.43 17.1 19.28 21.91 24.76 27.32 28.49
1466.023 27.6 24.78 20.57 16.11 12.32 9.52 7.58 6.23 5.29 4.59
1504.603 4.04 3.61 3.29 3.02 2.82 2.67 2.54 2.42 2.32 2.22
1543.182 2.14 2.08 2.02 1.94 1.87 1.85 1.81 1.75 1.72 1.7
1581.762 1.67 1.64 1.61 1.58 1.54 1.52 1.5 1.46 1.45 1.44
1620.341 1.45 1.45 1.46 1.48 1.51 1.57 1.61 1.68 1.75 1.83
1658.921 1.94 2.08 2.24 2.42 2.66 2.96 3.32 3.78 4.37 5.13
1697.500 6.1 7.34 8.88 10.81 13.15 16.01 19.65 24.44 30.93 39.56
1736.080 50.91 65.03 82.56 103.2 124.45 136.75 130.99 110.53 86.59 65.53
1774.659 48.95 36.72 27.81 21.34 16.63 13.13 10.55 8.61 7.11 5.96
1813.239 5.07 4.38 3.82 3.37 3.01 2.73 2.49 2.29 2.15 2.03
1851.819 1.93 1.82 1.73 1.66 1.61 1.56 1.52 1.49 1.47 1.43
1890.398 1.37 1.34 1.3 1.26 1.25 1.22 1.17 1.14 1.12 1.09
1928.978 1.08 1.07 1.06 1.05 1.03 1.02 1.02 1.05 1.05 1.04
1967.557 1.06 1.06 1.09 1.13 1.13 1.14 1.14 1.16 1.18 1.19
2006.137 1.2 1.23 1.25 1.27 1.29 1.32 1.34 1.33 1.32 1.29
2044.716 1.24 1.21 1.19 1.16 1.1 1.06 1.03 1 0.9818 0.942
2083.296 0.9158 0.9037 0.8899 0.8718 0.8413 0.8292 0.8464 0.8497 0.8404 0.8474
2121.875 0.8521 0.8567 0.8564 0.8637 0.8751 0.8715 0.8766 0.8797 0.8873 0.896
2160.455 0.891 0.8891 0.8809 0.8566 0.8344 0.8046 0.7877 0.7873 0.7808 0.7778
2199.035 0.7594 0.7311 0.7218 0.71 0.6939 0.6882 0.6788 0.6637 0.6449 0.6388
2237.614 0.6479 0.6547 0.656 0.6437 0.6247 0.622 0.6293 0.6323 0.6318 0.6493
2276.194 0.6624 0.6671 0.6823 0.6938 0.6984 0.7009 0.683 0.6731 0.7014 0.7121
2314.773 0.7096 0.7004 0.686 0.6831 0.6712 0.6544 0.6455 0.6494 0.6471 0.6368
2353.353 0.6262 0.6192 0.6128 0.6052 0.634 0.6708 0.6737 0.6871 0.7175 0.7281
2391.932 0.7297 0.729 0.7473 0.7546 0.7612 0.773 0.7658 0.7622 0.7509 0.7469
2430.512 0.7155 0.6859 0.7026 0.6859 0.6448 0.6218 0.6133 0.6195 0.6119 0.6007
2469.092 0.6046 0.618 0.6194 0.617 0.6479 0.6759 0.6937 0.7063 0.7087 0.7125
2507.671 0.7543 0.8003 0.8133 0.8522 0.9167 0.9514 0.9542 0.9609 0.9799 1
2546.251 1.03 1.04 1.03 1.04 1.06 1.11 1.18 1.25 1.35 1.49
2584.830 1.73 2.1 2.44 2.52 2.3 2.02 1.84 1.78 1.79 1.8
2623.410 1.82 1.85 1.93 2.01 2.05 2.12 2.2 2.29 2.37 2.46
2661.989 2.57 2.65 2.74 2.83 2.92 2.97 2.99 3.01 2.98 2.9
2700.569 2.83 2.79 2.77 2.75 2.76 2.81 2.9 2.98 3.1 3.27
2739.148 3.4 3.5 3.6 3.67 3.76 3.87 3.99 4.13 4.29 4.46
2777.728 4.67 4.98 5.36 5.79 6.27 6.81 7.41 8.05 8.81 9.69
2816.308 10.73 12 13.47 15.17 17.23 19.97 23.83 29.63 38.53 52.03
2854.887 70.56 90.32 103.16 103.74 94.88 83.25 73.67 67.44 63.46 61.3
2893.467 61.99 66.3 74.26 85.56 100.12 118.36 141.92 173.45 213.52 254.47
2932.046 280.06 279.04 254.78 218.27 180.14 148.46 127.56 117.03 112.57 107.9
2970.626 97.6 81.58 64.94 51.69 41.96 34.44 28.33 23.31 19.33 16.35
3009.205 14.04 12.25 10.85 9.62 8.65 7.86 7.12 6.44 5.84 5.31
3047.785 4.86 4.49 4.16 3.85 3.55 3.31 3.11 2.94 2.77 2.62
3086.364 2.48 2.4 2.32 2.21 2.11 2.02 1.97 1.87 1.8 1.72
3124.944 1.64 1.57 1.51 1.48 1.43 1.42 1.38 1.35 1.33 1.27
3163.524 1.21 1.15 1.12 1.09 1.03 1.02 0.9806 0.9326 0.8783 0.827
3202.103 0.8076 0.7254 0.6592 0.6369 0.5923 0.5246 0.4708 0.4273 0.3912 0.3842
3240.683 0.4097 0.3973 0.3618 0.3498 0.3454 0.2983 0.2572 0.2717 0.2748 0.2921
3279.262 0.2731 0.2546 0.2361 0.1824 0.1945 0.2136 0.22 0.2702 0.2772 0.2757
3317.842 0.2482 0.1802 0.2107 0.2287 0.2272 0.2228 0.1937 0.2168 0.2195 0.2349
3356.421 0.216 0.1998 0.2407 0.2279 0.2244 0.2241 0.1922 0.216 0.2651 0.2053
3395.001 0.1902 0.2735 0.2771 0.251 0.3033 0.3383 0.3163 0.3101 0.308 0.332
3433.580 0.3375 0.3343 0.3454 0.4039 0.4513 0.4364 0.5075 0.5959 0.6473 0.7561
3472.160 0.8429 0.9931 1.19 1.27 1.33 1.4 1.43 1.39 1.25 1.09
3510.740 0.9331 0.8071 0.6555 0.5241 0.5108 0.4767 0.4077 0.3519 0.3248 0.2965
3549.319 0.2822 0.2801 0.2837 0.3005 0.3046 0.309 0.3016 0.3058 0.3191 0.3219
3587.899 0.3328 0.3478 0.3099 0.3241 0.3424 0.3441 0.3939 0.3521 0.3576 0.387
3626.478 0.3745 0.3931 0.3931 0.395 0.3863 0.355 0.3529 0.3791 0.3515 0.3374
3665.058 0.3824 0.3801 0.362 0.3732 0.3645 0.3334 0.3488 0.3779 0.3578 0.3474
3703.637 0.3213 0.3261 0.3607 0.358 0.3628 0.3977 0.4057 0.3686 0.33 0.3246
3742.217 0.3517 0.3736 0.3937 0.3974 0.4489 0.4928 0.4667 0.4434 0.4116 0.4076
3780.797 0.4134 0.394 0.4366 0.4663 0.446 0.455 0.4367 0.4263 0.4477 0.4244
3819.376 0.4211 0.4165 0.4285 0.4565 0.4416 0.451 0.4435 0.4436 0.4492 0.404
3857.956 0.4022 0.4168 0.4045 0.3993 0.4172 0.454 0.4973 0.4497 0.3952 0.4646
3896.535 0.5117 0.5296 0.5362 0.5165 0.486 0.4791 0.4869 0.5046 0.5655 0.5891
3935.115 0.5504 0.5089 0.4876 0.5293 0.5564 0.5787 0.6222 0.6094 0.6246 0.6716
3973.694 0.6493 0.6628 0.7508 0.8034 0.7815 0.7312 0.7396 0.7648
##END=
