##TITLE=5-Undecanol
##JCAMP-DX=4.24
##DATA TYPE=INFRARED SPECTRUM
##ORIGIN=NIST Mass Spectrometry Data Center
##OWNER=NIST Standard Reference Data Program
Collection (C) 2018 copyright by the U.S. Secretary of Commerce
on behalf of the United States of America. All rights reserved.
##CAS REGISTRY NO=37493-70-2
##MOLFORM=C 11 H 24 O
##$NIST SOURCE=MSDC-IR
##SPECTROMETER/DATA SYSTEM=HP-GC/MS/IRD
##STATE=gas
##XUNITS=1/CM
##YUNITS=ABSORBANCE
##XFACTOR=1.0
##YFACTOR=0.000005000
##DELTAX=4.0
##FIRSTX=550.0
##LASTX=3846.0
##FIRSTY=0.000455
##MAXX=3846
##MINX=550
##MAXY=0.05
##MINY=0
##NPOINTS=825
##XYDATA=(X++(Y..Y))
550.0 91 48 33 42 15 0 9 21 23 27
590.0 29 23 28 40 37 20 16 28 28 28
630.0 18 8 11 17 19 14 8 6 5 7
670.0 16 12 21 33 29 35 46 46 56 71
710.0 84 106 130 147 155 157 154 155 147 134
750.0 129 123 115 106 98 100 104 111 116 111
790.0 104 113 113 106 101 91 82 81 77 82
830.0 99 99 109 122 135 149 160 165 169 178
870.0 188 199 210 218 224 232 249 257 255 252
910.0 238 227 219 211 204 201 200 206 222 244
950.0 276 313 345 372 396 416 438 461 490 530
990.0 570 609 644 668 689 711 743 786 831 881
1030.0 915 918 906 873 815 750 687 638 597 569
1070.0 547 525 511 501 494 486 481 480 485 495
1110.0 511 523 534 550 562 556 530 490 435 381
1150.0 335 301 291 287 289 304 320 336 353 370
1190.0 385 393 397 408 422 431 435 441 447 453
1230.0 465 473 479 490 496 498 503 500 492 481
1270.0 466 448 429 412 404 400 395 393 386 376
1310.0 368 360 357 359 369 390 416 446 482 510
1350.0 530 552 581 615 653 695 739 788 812 791
1390.0 721 630 549 480 420 377 345 326 331 350
1430.0 380 432 507 585 666 761 859 936 969 935
1470.0 840 697 548 421 322 255 211 178 157 134
1510.0 119 112 98 89 87 78 69 57 53 54
1550.0 51 46 35 39 44 38 32 29 29 30
1590.0 31 31 31 28 25 24 19 16 19 21
1630.0 18 12 15 15 13 12 10 15 13 11
1670.0 10 10 13 9 8 13 10 7 7 8
1710.0 11 10 7 7 10 11 5 4 8 7
1750.0 5 6 8 10 8 1 2 5 6 4
1790.0 3 6 5 6 7 8 6 4 3 3
1830.0 4 5 6 6 5 5 6 7 8 9
1870.0 8 8 6 6 8 6 3 1 0 3
1910.0 5 6 5 3 2 2 5 6 4 2
1950.0 0 0 0 1 3 3 3 8 7 3
1990.0 3 2 2 6 7 5 7 9 9 11
2030.0 12 11 10 11 10 9 8 9 8 7
2070.0 6 6 7 9 9 6 4 4 5 2
2110.0 0 4 5 4 2 0 2 4 4 2
2150.0 4 4 3 3 5 4 3 4 6 8
2190.0 4 2 4 7 5 2 2 3 3 2
2230.0 4 1 0 4 6 6 8 8 6 6
2270.0 6 7 6 6 7 10 10 9 9 10
2310.0 9 10 9 10 11 9 8 7 9 9
2350.0 11 11 11 14 13 16 18 17 16 14
2390.0 15 14 15 14 13 13 15 16 15 14
2430.0 14 15 10 7 11 12 8 9 11 9
2470.0 11 12 10 12 14 14 13 12 14 18
2510.0 18 17 18 23 27 27 28 30 30 28
2550.0 32 34 33 38 40 44 47 45 44 46
2590.0 51 55 55 56 59 63 68 72 69 72
2630.0 82 88 92 93 97 106 108 110 118 125
2670.0 127 129 132 134 134 135 133 130 128 128
2710.0 129 132 136 144 151 155 166 178 181 182
2750.0 184 188 189 192 197 207 222 230 245 264
2790.0 283 312 340 364 396 430 469 521 581 659
2830.0 761 897 1074 1304 1616 2030 2536 3087 3590 3934
2870.0 4065 4034 3932 3784 3588 3366 3233 3291 3551 3982
2910.0 4558 5276 6155 7213 8362 9387 10000 9979 9296 8167
2950.0 6979 6120 5781 5856 5959 5620 4733 3577 2588 1931
2990.0 1506 1217 1015 866 747 651 574 517 466 420
3030.0 382 351 320 288 261 241 227 212 203 193
3070.0 178 168 161 159 155 142 134 128 123 120
3110.0 114 112 106 103 97 94 90 83 78 74
3150.0 75 77 75 74 70 67 63 63 62 56
3190.0 53 48 48 45 40 40 39 34 27 23
3230.0 23 26 24 22 19 19 18 16 16 15
3270.0 11 12 12 13 12 10 12 15 14 11
3310.0 13 13 6 4 8 10 6 5 6 10
3350.0 13 15 14 15 20 19 16 17 16 15
3390.0 14 17 20 22 21 17 22 23 24 21
3430.0 22 25 22 18 18 15 13 17 16 11
3470.0 13 18 15 12 11 9 6 6 10 11
3510.0 8 2 0 3 5 0 0 8 11 8
3550.0 7 4 7 8 6 9 14 15 14 10
3590.0 12 16 17 22 32 42 53 67 85 101
3630.0 122 150 184 234 289 337 362 339 280 207
3670.0 145 106 79 61 48 40 39 34 27 23
3710.0 17 18 19 18 14 12 15 14 9 14
3750.0 15 15 16 19 24 21 18 17 16 20
3790.0 17 15 18 24 31 26 21 23 21 27
3830.0 32 29 28 26 28
##END=
