##TITLE=Heptafluorobutanol
##JCAMP-DX=4.24
##DATA TYPE=INFRARED SPECTRUM
##ORIGIN=EPA-IR VAPOR PHASE LIBRARY
##OWNER=SRD/NIST
Collection (C) 2018 copyright by the U.S. Secretary of Commerce
on behalf of the United States of America. All rights reserved.
##CAS REGISTRY NO=375-01-9
##MOLFORM=C 4 H 3 F 7 O
##$NIST SOURCE=MSDC-IR
##STATE=gas
##XUNITS=1/CM
##YUNITS=ABSORBANCE
##XFACTOR=1.
##YFACTOR=0.001
##DELTAX=3.85796
##FIRSTX=501.5
##LASTX=4000.7
##FIRSTY=4.68
##MAXX=4000.7
##MINX=501.534
##MAXY=0.3058
##MINY=0.0001328
##NPOINTS=908
##XYDATA=(X++(Y..Y))
501.534 4.68 4.8 4.64 4.84 5.13 6.06 7.36 8.7 9.81 10.23
540.114 9.82 8.72 7.56 6.92 6.43 6.01 6.09 6.36 6.26 6.03
578.693 5.78 5.34 4.76 4.41 4.29 4.35 5.1 6.26 7.7 9.35
617.273 10.77 11.46 11.28 10.53 9.42 8.37 7.52 6.78 6.37 6.08
655.852 5.92 6 6.09 6.09 5.99 5.79 5.55 5.21 4.9 4.38
694.432 3.69 3.18 2.82 2.74 3 3.53 4.55 6.67 11.13 17.41
733.011 22.53 25.13 24.68 21.48 16.83 13.37 11.98 10.76 9.28 7.51
771.591 5.74 4.85 4.39 3.84 3.11 2.43 1.96 1.71 1.65 1.56
810.170 1.43 1.44 1.46 1.36 1.4 1.54 1.59 1.68 1.9 2.04
848.750 2.17 2.39 2.74 3.29 4.06 5.05 6.24 7.85 10 12.94
887.330 16.75 21.33 26.42 31.01 33.96 34.37 31.94 27.35 22.53 19.45
925.909 18.57 19.05 20.19 21.82 24.15 27.5 31.13 33.45 33.37 30.87
964.489 26.54 22.11 20.09 21.26 25.09 31.22 38.95 46.65 52.49 54.75
1003.068 52.22 45.5 36.6 27.76 21 16.8 14.43 13.21 12.55 12.39
1041.648 12.62 13.65 15.84 18.79 22.47 26.88 31.67 36.75 41.98 46.81
1080.227 50.52 52.36 51.71 49.82 48.7 50.09 55.11 62.94 72.45 82.34
1118.807 90.6 95.4 95.22 89.93 80.98 70.93 62.06 55.59 52.49 53.48
1157.387 58.8 68.26 80.67 93.85 105.24 112.46 115.2 114.45 112.05 111.12
1195.966 113.12 118.26 126.46 136.57 148.89 166.62 193.15 228.86 267.92 297.97
1234.546 305.8 284.57 239.8 186.91 141.82 111.01 91.22 76.78 64.56 54.9
1273.125 47.7 42.68 39.5 37.31 35.48 33.61 31.69 29.66 27.64 26
1311.705 25.06 25.01 26.08 28.5 32.36 37.45 42.89 47.65 50.25 49.48
1350.284 45.39 39.05 32.11 25.93 21.22 17.83 15.02 12.46 10.2 8.43
1388.864 7.27 6.63 6.23 6.01 5.78 5.45 5 4.51 4 3.52
1427.443 3.17 2.94 2.81 2.73 2.76 2.96 3.43 3.95 4.37 4.5
1466.023 4.16 3.54 2.8 2.23 1.87 1.63 1.51 1.42 1.37 1.37
1504.603 1.39 1.36 1.33 1.35 1.38 1.32 1.26 1.23 1.21 1.23
1543.182 1.22 1.23 1.25 1.25 1.19 1.13 1.15 1.2 1.22 1.16
1581.762 1.05 0.998 0.966 0.8945 0.8235 0.7761 0.7902 0.7618 0.6921 0.6265
1620.341 0.6309 0.6574 0.6144 0.6114 0.6009 0.5464 0.541 0.5792 0.5882 0.6442
1658.921 0.6597 0.5872 0.6241 0.6437 0.5866 0.6052 0.6006 0.6246 0.6467 0.6609
1697.500 0.6406 0.5993 0.6127 0.6111 0.6404 0.6546 0.5971 0.5654 0.5729 0.5743
1736.080 0.5554 0.5417 0.5442 0.5174 0.4656 0.4421 0.4597 0.492 0.522 0.5396
1774.659 0.5332 0.5443 0.5616 0.5686 0.5744 0.5666 0.5771 0.6076 0.6382 0.6027
1813.239 0.5856 0.6054 0.5971 0.5743 0.5541 0.5803 0.5679 0.5668 0.579 0.5586
1851.819 0.5468 0.5116 0.5069 0.505 0.4794 0.4326 0.3926 0.37 0.3532 0.3608
1890.398 0.3467 0.3084 0.3056 0.3186 0.2946 0.2816 0.269 0.2612 0.2592 0.2473
1928.978 0.2723 0.3081 0.3199 0.3391 0.3807 0.4092 0.4362 0.4671 0.4576 0.4607
1967.557 0.5093 0.5369 0.5444 0.5524 0.5613 0.593 0.6005 0.5907 0.5496 0.4762
2006.137 0.4308 0.3969 0.3565 0.3232 0.3364 0.3689 0.3334 0.3377 0.3741 0.345
2044.716 0.325 0.3187 0.3246 0.3398 0.3245 0.3337 0.3906 0.4006 0.3729 0.3851
2083.296 0.428 0.4668 0.4793 0.4772 0.4715 0.4519 0.4711 0.496 0.4977 0.5655
2121.875 0.6799 0.6861 0.62 0.6054 0.6702 0.7667 0.7759 0.8076 0.938 0.9927
2160.455 0.9269 0.8701 0.827 0.7266 0.6382 0.6221 0.6102 0.5473 0.5564 0.5706
2199.035 0.5664 0.5721 0.5524 0.533 0.539 0.5639 0.5617 0.5866 0.6637 0.669
2237.614 0.6782 0.691 0.6779 0.6701 0.6781 0.7155 0.7008 0.6717 0.6821 0.7155
2276.194 0.7259 0.7594 0.7947 0.8174 0.8362 0.8478 0.8359 0.8282 0.8858 0.8704
2314.773 0.8436 0.8632 0.8694 0.89 0.9204 0.9113 0.9086 0.9322 1.05 1.13
2353.353 1.07 1.07 1.07 1.04 1.04 1.03 0.9651 0.9153 0.9089 0.9255
2391.932 0.93 0.9202 0.9157 0.9544 0.9915 1.01 1.03 1.08 1.09 1.06
2430.512 1.1 1.12 1.13 1.16 1.18 1.21 1.18 1.16 1.16 1.13
2469.092 1.11 1.1 1.05 1.04 1.01 0.9643 0.9289 0.9163 0.92 0.9015
2507.671 0.9221 0.8913 0.8676 0.8435 0.8065 0.8396 0.8714 0.8279 0.8291 0.8759
2546.251 0.883 0.853 0.8179 0.8314 0.8794 0.915 0.8843 0.8711 0.866 0.8242
2584.830 0.7966 0.7054 0.6327 0.6223 0.5694 0.5497 0.522 0.4414 0.3975 0.3866
2623.410 0.3728 0.4096 0.3951 0.3688 0.3894 0.3981 0.3541 0.4032 0.4647 0.4191
2661.989 0.3637 0.3382 0.3481 0.3026 0.3068 0.3252 0.2783 0.2912 0.3321 0.3235
2700.569 0.3352 0.3334 0.3584 0.3735 0.3458 0.3463 0.3747 0.3847 0.3554 0.3656
2739.148 0.3431 0.3499 0.3943 0.419 0.4592 0.48 0.4491 0.4936 0.5438 0.482
2777.728 0.4877 0.578 0.5971 0.5314 0.4959 0.5053 0.5388 0.5543 0.488 0.4586
2816.308 0.4933 0.5208 0.5669 0.5893 0.5602 0.6167 0.6442 0.6352 0.7285 0.7944
2854.887 0.852 0.9564 1.04 1.12 1.26 1.42 1.63 1.91 2.37 2.91
2893.467 3.32 3.51 3.43 3.12 2.71 2.4 2.19 2.16 2.39 2.7
2932.046 3.24 4.07 5.01 5.87 6.51 6.85 6.89 6.6 6.14 5.65
2970.626 5.05 4.55 4.18 3.87 3.61 3.35 3.12 2.92 2.73 2.47
3009.205 2.11 1.71 1.33 1.03 0.8277 0.7021 0.5434 0.5425 0.6194 0.4953
3047.785 0.4665 0.5046 0.4052 0.3396 0.3394 0.3466 0.3062 0.3366 0.4602 0.4485
3086.364 0.3551 0.3066 0.2805 0.2614 0.2258 0.1526 0.1616 0.1834 0.1778 0.1885
3124.944 0.2127 0.2589 0.2171 0.2293 0.2558 0.2116 0.1616 0.2067 0.243 0.1469
3163.524 0.1328 0.1713 0.1605 0.1761 0.2282 0.152 0.1608 0.2241 0.2214 0.2777
3202.103 0.247 0.198 0.2626 0.2896 0.2717 0.2591 0.2335 0.2737 0.2681 0.1819
3240.683 0.1527 0.2186 0.2546 0.2393 0.2503 0.2807 0.2362 0.1465 0.2258 0.2314
3279.262 0.1585 0.2748 0.3423 0.2821 0.3218 0.3182 0.3289 0.3018 0.2611 0.3372
3317.842 0.3108 0.3314 0.4095 0.4455 0.4618 0.4584 0.5234 0.543 0.5491 0.547
3356.421 0.5005 0.5717 0.6336 0.6682 0.6991 0.716 0.7378 0.8114 0.8082 0.7733
3395.001 0.7891 0.7476 0.6914 0.7717 0.8643 0.868 0.8765 0.8048 0.7954 0.866
3433.580 0.8561 0.8047 0.7784 0.7633 0.7265 0.7455 0.8062 0.8384 0.8683 0.8289
3472.160 0.8034 0.8131 0.7927 0.8262 0.8209 0.8034 0.8183 0.7948 0.7006 0.6638
3510.740 0.6884 0.7005 0.7342 0.7197 0.7957 0.8329 0.753 0.7384 0.8071 0.8467
3549.319 0.806 0.8022 0.9646 0.9361 0.7701 0.8508 0.9664 1.02 1.05 1.09
3587.899 1.23 1.29 1.19 1.24 1.34 1.45 1.62 1.75 1.92 2.13
3626.478 2.55 3.13 4.1 5.74 8.27 12.12 16.75 20.47 22.15 21.66
3665.058 19.36 16 12.64 9.79 7.7 6.13 4.7 3.63 2.96 2.49
3703.637 2.23 1.96 1.7 1.58 1.52 1.42 1.35 1.46 1.47 1.36
3742.217 1.31 1.31 1.15 0.9434 1.07 1.12 1.06 0.9534 0.8517 1.02
3780.797 1.03 0.926 0.9798 0.997 0.9385 0.883 0.9046 0.9463 0.9708 0.9882
3819.376 0.9762 0.9866 0.9657 1.09 1.08 0.857 0.9183 1.02 1.19 1.28
3857.956 1.19 1.22 1.21 1.11 1.1 1.11 1.22 1.38 1.12 0.9377
3896.535 1.18 1.18 1.08 1.12 1.15 1.17 1.12 1.13 1.13 1.02
3935.115 0.8875 0.8423 0.8267 0.7436 0.7022 0.7909 0.7588 0.6701 0.6614 0.7085
3973.694 0.6814 0.6108 0.7603 0.7778 0.7613 0.8508 0.7633 0.7106
##END=
