##TITLE=Perfluorononanoic acid
##JCAMP-DX=4.24
##DATA TYPE=INFRARED SPECTRUM
##ORIGIN=EPA-IR VAPOR PHASE LIBRARY
##OWNER=SRD/NIST
Collection (C) 2018 copyright by the U.S. Secretary of Commerce
on behalf of the United States of America. All rights reserved.
##CAS REGISTRY NO=375-95-1
##MOLFORM=C 9 H F 17 O 2
##$NIST SOURCE=MSDC-IR
##STATE=gas
##XUNITS=1/CM
##YUNITS=ABSORBANCE
##XFACTOR=1.
##YFACTOR=0.001
##DELTAX=1.92898
##FIRSTX=549.8
##LASTX=4000.7
##FIRSTY=60.421
##MAXX=4000.7
##MINX=549.759
##MAXY=1.03021
##MINY=0
##NPOINTS=1790
##XYDATA=(X++(Y..Y))
549.759 60.421 63.351 67.771 72.321 77.451 82.611 86.651 88.401 87.781 86.181
569.049 83.911 80.711 77.881 75.261 72.971 71.321 70.271 68.851 67.291 66.941
588.339 66.531 66.351 66.251 65.951 65.531 65.141 64.781 64.261 64.791 65.781
607.628 66.781 68.071 69.341 70.561 72.161 74.041 75.691 77.481 79.411 81.171
626.918 82.761 83.381 83.601 84.091 84.431 84.981 85.771 87.181 89.111 91.141
646.208 93.491 96.461 99.771 103.041 105.131 105.641 105.991 106.211 104.911 102.181
665.498 98.651 93.961 86.761 78.981 73.001 68.611 65.491 63.441 62.231 61.751
684.787 62.041 62.961 64.461 66.501 69.481 73.391 78.091 83.501 89.311 94.431
704.077 96.701 95.201 90.431 83.631 76.291 69.761 65.361 65.091 68.801 73.741
723.367 77.671 80.721 83.361 86.371 90.691 95.531 98.791 99.241 98.121 97.401
742.657 98.251 98.681 95.481 86.831 74.021 60.901 50.361 43.371 40.271 39.891
761.947 41.191 43.711 46.431 49.531 53.281 57.471 62.101 66.471 69.521 71.661
781.236 73.551 75.691 76.981 75.951 72.491 66.851 61.121 56.701 54.141 53.671
800.526 53.791 54.031 53.641 51.671 49.341 48.081 47.961 48.591 49.661 50.911
819.816 52.101 52.791 52.491 51.061 48.311 44.461 40.261 36.091 32.541 29.971
839.106 27.801 25.921 24.941 24.861 25.131 25.971 27.611 29.871 32.631 35.241
858.395 37.631 39.941 41.671 42.911 43.591 44.161 44.331 43.201 41.481 39.441
877.685 37.441 35.201 32.521 30.551 28.551 26.241 24.391 22.581 20.691 19.161
896.975 17.951 17.031 16.761 16.931 16.861 16.991 17.421 17.731 18.251 18.771
916.265 19.311 20.191 20.741 21.211 21.921 22.741 23.401 23.851 24.051 24.281
935.555 24.601 25.021 25.671 26.171 27.021 28.441 30.041 32.051 34.461 36.681
954.844 38.601 40.751 42.781 44.481 46.291 47.971 49.641 50.851 51.971 52.831
974.134 53.221 53.071 51.711 49.841 47.191 43.791 40.531 36.921 33.161 29.741
993.424 26.271 23.331 21.231 19.881 18.901 18.571 18.541 18.361 19.181 20.601
1012.714 22.191 24.221 26.821 30.281 33.731 36.781 40.301 43.511 46.601 49.641
1032.003 52.261 54.131 54.721 54.421 53.061 51.241 49.361 47.461 45.061 42.281
1051.293 39.771 37.241 34.661 32.601 31.561 31.121 31.521 31.821 32.331 33.681
1070.583 34.951 37.331 40.801 44.151 47.991 51.671 55.131 58.461 62.301 66.251
1089.873 69.681 73.711 77.521 81.801 86.811 93.341 102.041 110.801 119.761 129.091
1109.163 137.141 145.181 152.951 160.421 170.111 182.941 198.971 216.611 233.251 246.641
1128.452 258.751 269.331 276.361 283.471 289.651 295.311 302.221 310.311 320.101 328.611
1147.742 333.181 333.201 328.751 319.591 307.451 294.031 280.501 268.621 260.821 257.501
1167.032 257.291 260.201 265.081 271.791 280.061 288.021 295.741 305.241 315.801 325.601
1186.322 337.011 349.631 362.051 378.561 398.141 420.661 445.281 471.491 502.141 535.071
1205.611 568.321 599.651 629.401 656.921 679.561 699.571 712.071 713.851 713.511 709.041
1224.901 704.081 705.551 715.891 736.901 771.051 819.801 871.261 927.721 985.571 1024.41
1244.191 1030.21 1004.15 936.511 823.921 695.341 569.591 459.431 371.651 305.201 256.641
1263.481 220.731 193.171 171.531 154.151 140.301 129.111 119.361 111.331 104.501 98.411
1282.771 93.681 90.121 86.981 83.911 81.081 78.531 76.341 74.181 72.271 71.081
1302.060 70.491 70.391 70.921 71.801 72.591 73.291 73.831 73.971 73.541 72.791
1321.350 71.951 71.271 71.041 71.491 72.831 74.971 77.381 79.881 82.251 84.011
1340.640 84.631 84.071 82.371 79.701 76.271 72.401 68.611 65.031 61.531 57.981
1359.930 54.151 50.061 45.871 41.991 38.921 36.801 35.631 35.361 35.971 37.031
1379.219 38.181 39.151 39.641 39.351 37.981 35.681 32.701 29.521 26.451 23.581
1398.509 21.131 19.101 17.561 16.201 14.981 13.901 12.981 12.321 11.761 11.131
1417.799 10.651 10.211 9.781 9.361 9.001 8.701 8.301 7.991 7.751 7.591
1437.089 7.391 7.171 6.981 6.781 6.621 6.541 6.451 6.221 6.171 6.181
1456.378 6.071 6.001 5.851 5.751 5.851 5.781 5.491 5.431 5.351 5.101
1475.668 5.061 5.121 5.091 4.991 4.871 4.831 4.811 4.771 4.701 4.601
1494.958 4.671 4.701 4.571 4.561 4.551 4.521 4.541 4.671 4.771 4.741
1514.248 4.811 4.841 4.831 4.951 5.041 5.021 4.961 4.931 5.041 5.091
1533.538 5.101 5.001 4.971 5.001 4.901 4.851 4.941 4.891 4.801 4.811
1552.827 4.741 4.651 4.671 4.681 4.571 4.541 4.531 4.421 4.291 4.141
1572.117 4.031 3.951 3.821 3.741 3.671 3.481 3.411 3.441 3.371 3.311
1591.407 3.261 3.201 3.131 3.101 3.031 3.001 2.891 2.781 2.891 2.941
1610.697 2.901 2.881 2.931 3.021 2.861 2.751 2.731 2.741 2.931 3.001
1629.986 2.841 2.761 2.781 2.891 2.871 2.741 2.761 2.811 2.741 2.691
1649.276 2.741 2.861 2.891 2.831 2.851 2.771 2.801 2.881 2.911 3.041
1668.566 3.111 3.071 3.081 3.141 3.161 3.211 3.221 3.191 3.101 3.051
1687.856 2.961 2.931 3.081 3.161 3.171 3.191 3.251 3.181 3.271 3.481
1707.146 3.571 3.571 3.591 3.621 3.671 3.801 3.811 3.921 4.111 4.241
1726.435 4.361 4.471 4.641 4.861 5.151 5.331 5.531 5.871 6.331 6.751
1745.725 7.201 7.811 8.461 9.171 9.961 10.891 11.961 13.201 14.701 16.391
1765.015 18.271 20.411 22.481 24.511 26.711 28.881 31.001 33.281 35.841 38.601
1784.305 41.781 45.631 49.991 54.961 60.981 68.031 76.301 86.681 99.871 116.681
1803.594 137.851 163.601 192.771 222.231 247.181 261.991 262.631 248.471 222.881 191.891
1822.884 161.501 135.511 115.441 100.921 90.431 83.081 77.471 72.181 66.581 60.461
1842.174 53.891 47.431 41.451 36.441 32.201 28.531 25.341 22.681 20.451 18.511
1861.464 16.711 15.061 13.731 12.591 11.561 10.651 9.821 9.101 8.431 7.841
1880.754 7.341 6.901 6.411 6.001 5.661 5.331 5.091 4.871 4.571 4.331
1900.043 4.201 4.051 3.851 3.651 3.451 3.401 3.381 3.221 3.101 2.941
1919.333 2.891 2.881 2.771 2.751 2.751 2.661 2.581 2.461 2.451 2.541
1938.623 2.461 2.491 2.411 2.101 2.021 2.091 2.061 2.081 2.101 2.011
1957.913 2.041 2.081 2.031 2.041 2.121 2.141 2.191 2.061 2.011 2.091
1977.202 2.061 2.031 2.031 2.121 2.101 2.031 2.081 2.041 1.951 1.901
1996.492 1.831 1.821 1.781 1.661 1.611 1.597 1.5887 1.5797 1.5496 1.57
2015.782 1.5282 1.4203 1.3761 1.2866 1.2197 1.2695 1.2871 1.2348 1.269 1.1964
2035.072 1.1524 1.1946 1.161 1.1561 1.1922 1.273 1.2751 1.2234 1.15 1.1503
2054.362 1.2834 1.312 1.2427 1.2625 1.3567 1.3954 1.4401 1.3618 1.2166 1.3161
2073.651 1.3343 1.2581 1.3049 1.3091 1.2275 1.2231 1.2294 1.2285 1.2168 1.2025
2092.941 1.1737 1.13 1.1168 1.0813 1.1318 1.1793 1.1269 1.0306 1.021 1.0745
2112.231 1.1644 1.1695 1.1129 1.1103 1.1612 1.186 1.1242 1.0705 1.0462 1.053
2131.521 1.0974 1.1163 1.1209 1.1283 1.1898 1.1865 1.118 1.2068 1.3034 1.3365
2150.810 1.2671 1.2344 1.3134 1.271 1.2152 1.1915 1.2835 1.3079 1.306 1.3186
2170.100 1.3598 1.5291 1.5099 1.4234 1.4974 1.5157 1.5226 1.611 1.621 1.601
2189.390 1.5539 1.5128 1.5192 1.5617 1.611 1.5647 1.5139 1.4816 1.601 1.721
2208.680 1.691 1.671 1.671 1.711 1.771 1.811 1.771 1.771 1.811 1.781
2227.970 1.801 1.811 1.801 1.871 1.911 1.871 1.951 2.001 1.921 1.851
2247.259 1.901 2.051 2.011 1.921 2.001 2.121 2.211 2.231 2.201 2.171
2266.549 2.181 2.331 2.461 2.601 2.621 2.691 2.811 2.891 3.021 3.111
2285.839 3.161 3.321 3.591 3.751 3.981 4.311 4.401 4.531 4.811 4.971
2305.129 5.151 5.391 5.591 5.751 5.971 6.131 6.291 6.491 6.621 6.821
2324.418 6.961 7.121 7.251 7.261 7.131 7.001 7.001 7.051 7.151 7.201
2343.708 7.161 6.951 6.751 6.751 7.061 7.451 7.801 8.181 8.361 8.501
2362.998 8.611 8.491 8.401 8.391 8.181 7.791 7.401 7.161 6.901 6.381
2382.288 6.041 5.841 5.601 5.361 5.301 5.211 5.161 5.301 5.121 4.991
2401.578 4.901 4.901 4.981 4.941 4.971 4.891 4.881 4.841 4.781 4.861
2420.867 4.901 4.821 4.661 4.601 4.571 4.591 4.701 4.611 4.531 4.551
2440.157 4.501 4.411 4.381 4.401 4.301 4.251 4.311 4.301 4.241 4.261
2459.447 4.351 4.311 4.261 4.201 4.171 4.251 4.211 4.181 4.191 4.161
2478.737 4.171 4.151 4.201 4.201 4.141 4.151 4.121 3.951 3.891 3.821
2498.026 3.641 3.651 3.581 3.461 3.461 3.471 3.441 3.291 3.081 3.041
2517.316 3.021 3.021 3.101 2.921 2.751 2.771 2.701 2.481 2.331 2.351
2536.606 2.361 2.401 2.341 2.201 2.121 2.181 2.211 2.181 2.111 2.041
2555.896 2.091 2.001 1.971 2.151 2.211 2.051 1.941 1.931 1.841 1.861
2575.186 1.981 2.011 1.931 1.921 1.811 1.781 1.761 1.681 1.661 1.5738
2594.475 1.4251 1.3888 1.4022 1.2971 1.2539 1.2709 1.1994 1.0954 0.9955 0.932
2613.765 0.966 0.9512 0.8741 0.8443 0.8263 0.8359 0.7877 0.7461 0.61172 0.5022
2633.055 0.5466 0.5287 0.5579 0.5344 0.5138 0.463 0.483 0.494 0.377 0.425
2652.345 0.382 0.362 0.44 0.5321 0.5167 0.388 0.385 0.415 0.4 0.46
2671.634 0.468 0.416 0.277 0.268 0.333 0.197 0.2 0.206 0.153 0.213
2690.924 0.198 0.187 0.197 0.188 0.273 0.274 0.192 0.269 0.31 0.341
2710.214 0.44 0.387 0.258 0.086 0.076 0.193 0.241 0.282 0.221 0.295
2729.504 0.346 0.26 0.28 0.251 0.288 0.376 0.221 0.163 0.182 0.19
2748.794 0.223 0.255 0.388 0.168 0.039 0.359 0.445 0.354 0.334 0.319
2768.083 0.418 0.42 0.302 0.298 0.282 0.356 0.326 0.153 0.118 0.244
2787.373 0.358 0.388 0.344 0.408 0.409 0.375 0.337 0.191 0.09 0.183
2806.663 0.294 0.233 0.31 0.325 0.288 0.332 0.277 0.251 0.258 0.302
2825.953 0.264 0.291 0.365 0.443 0.5798 0.455 0.326 0.374 0.466 0.5547
2845.242 0.423 0.468 0.5023 0.428 0.361 0.206 0.081 0.202 0.389 0.333
2864.532 0.286 0.291 0.374 0.387 0.393 0.432 0.383 0.441 0.5309 0.493
2883.822 0.5042 0.534 0.67063 0.62584 0.469 0.44 0.449 0.5716 0.59106 0.5956
2903.112 0.63124 0.64321 0.69888 0.5851 0.62329 0.8405 0.9704 0.9059 0.845 1.0173
2922.401 1.2043 1.2127 1.0696 1.0647 1.077 1.0563 1.1222 1.1799 1.1828 1.1604
2941.691 0.9843 0.9867 1.2161 1.2235 1.0541 0.8698 0.8812 0.9324 0.849 0.7501
2960.981 0.8021 0.9011 0.8745 0.806 0.8381 0.9061 0.797 0.7826 0.7666 0.8225
2980.271 0.843 0.8192 0.9699 0.9558 0.8753 0.7672 0.7224 0.7374 0.7309 0.7654
2999.561 0.8489 0.9804 0.9854 0.8414 0.8689 1.0539 0.9695 0.8411 0.8786 0.8103
3018.850 0.8227 0.8624 0.7874 0.7274 0.8186 0.7877 0.61346 0.7537 0.7799 0.8226
3038.140 0.9968 0.8536 0.67232 0.8208 0.7747 0.69574 0.8384 0.8389 0.7897 0.7935
3057.430 0.7969 0.7512 0.7942 0.8809 0.8978 0.8104 0.5768 0.466 0.542 0.63999
3076.720 0.7435 0.7575 0.7831 0.61496 0.408 0.351 0.376 0.5223 0.471 0.269
3096.009 0.37 0.5109 0.63136 0.5584 0.385 0.5064 0.478 0.385 0.398 0.398
3115.299 0.402 0.428 0.373 0.347 0.44 0.473 0.279 0.29 0.453 0.5331
3134.589 0.479 0.407 0.5464 0.5177 0.456 0.451 0.489 0.438 0.266 0.178
3153.879 0.195 0.359 0.494 0.5464 0.548 0.429 0.321 0.442 0.63157 0.527
3173.169 0.463 0.5475 0.405 0.365 0.439 0.404 0.5028 0.5745 0.5335 0.479
3192.458 0.5702 0.5578 0.307 0.402 0.5696 0.379 0.438 0.415 0.244 0.29
3211.748 0.35 0.5636 0.68018 0.5282 0.309 0.193 0.205 0.167 0.286 0.436
3231.038 0.472 0.349 0.369 0.447 0.183 0.218 0.262 0.291 0.473 0.332
3250.328 0.318 0.343 0.257 0.319 0.29 0.155 0.202 0.226 0.349 0.485
3269.617 0.399 0.47 0.45 0.404 0.422 0.234 0.243 0.323 0.095 0
3288.907 0.049 0.089 0.142 0.348 0.302 0.15 0.342 0.5238 0.433 0.276
3308.197 0.227 0.257 0.41 0.5264 0.446 0.434 0.342 0.316 0.42 0.446
3327.487 0.346 0.16 0.272 0.5011 0.331 0.127 0.328 0.379 0.351 0.214
3346.777 0.17 0.239 0.172 0.211 0.257 0.164 0.173 0.349 0.5246 0.5846
3366.066 0.5542 0.423 0.357 0.39 0.315 0.317 0.324 0.335 0.337 0.335
3385.356 0.252 0.197 0.137 0.096 0.324 0.472 0.264 0.196 0.328 0.345
3404.646 0.382 0.366 0.291 0.377 0.229 0.208 0.439 0.421 0.399 0.454
3423.936 0.484 0.475 0.419 0.345 0.387 0.441 0.377 0.439 0.5617 0.465
3443.225 0.282 0.294 0.393 0.424 0.496 0.364 0.462 0.5563 0.551 0.5454
3462.515 0.498 0.5579 0.478 0.60858 0.68836 0.7201 0.66154 0.402 0.323 0.388
3481.805 0.7122 0.7829 0.67923 0.69015 0.68385 0.7814 0.8876 0.9688 0.9595 0.9699
3501.095 1.0101 0.9913 0.8426 0.8253 1.2105 1.2699 1.0846 1.1669 1.2189 1.3529
3520.385 1.611 1.661 1.811 2.011 2.141 2.341 2.681 3.051 3.221 3.531
3539.674 4.131 4.951 5.841 6.691 7.691 9.071 10.711 13.001 15.871 19.651
3558.964 25.471 34.131 47.631 68.991 101.801 145.431 185.431 201.011 183.811 142.411
3578.254 97.041 64.121 44.391 32.501 25.471 21.491 19.141 17.751 17.161 17.461
3597.544 17.991 18.551 19.011 19.121 18.601 17.391 15.781 14.011 12.191 10.281
3616.833 8.491 7.351 6.501 5.661 5.171 4.741 4.341 3.811 3.421 3.251
3636.123 3.081 3.061 2.791 2.501 2.391 2.171 2.051 2.051 2.201 2.031
3655.413 1.721 1.601 1.2285 1.2526 1.5019 1.4463 1.2953 1.386 1.548 1.1984
3674.703 0.9981 1.1206 1.1745 1.0815 0.59444 0.449 0.9434 1.0521 1.044 1.1415
3693.993 1.0756 1.0937 1.1422 1.1183 0.809 0.5538 0.5047 0.64922 0.9517 0.7017
3713.282 0.437 0.329 0.265 0.59583 0.68646 0.6421 0.537 0.499 0.7531 0.8284
3732.572 0.8745 1.0487 0.9054 0.8012 0.8857 0.8773 0.8738 0.7967 0.558 0.473
3751.862 0.5284 0.447 0.397 0.364 0.269 0.355 0.454 0.334 0.372 0.461
3771.152 0.457 0.5711 0.600314 0.37 0.282 0.5026 0.364 0.225 0.299 0.236
3790.441 0.125 0.117 0.416 0.64636 0.391 0.211 0.25 0.252 0.309 0.283
3809.731 0.452 0.5302 0.359 0.483 0.5576 0.5835 0.7333 0.68016 0.5883 0.473
3829.021 0.62047 0.5764 0.264 0.179 0.281 0.384 0.454 0.361 0.235 0.5186
3848.311 0.61879 0.454 0.441 0.373 0.358 0.409 0.339 0.398 0.407 0.388
3867.601 0.23 0.112 0.145 0.245 0.448 0.402 0.178 0.136 0.254 0.357
3886.890 0.286 0.272 0.163 0.089 0.228 0.237 0.182 0.201 0.367 0.395
3906.180 0.366 0.385 0.382 0.381 0.454 0.5837 0.503 0.421 0.24 0.323
3925.470 0.495 0.247 0.259 0.384 0.445 0.5216 0.5096 0.63163 0.5311 0.279
3944.760 0.328 0.607 0.59996 0.5663 0.67629 0.5575 0.61931 0.63747 0.291 0.147
3964.049 0.294 0.237 0.341 0.62986 0.483 0.252 0.314 0.361 0.456 0.281
3983.339 0.136 0.175 0.261 0.321 0.131 0.285 0.498 0.421 0.491 0.63391
##END=
