##TITLE=3-(3-Methylphenyl)propionic acid
##JCAMP-DX=4.24
##DATA TYPE=INFRARED SPECTRUM
##ORIGIN=EPA-IR VAPOR PHASE LIBRARY
##OWNER=SRD/NIST
Collection (C) 2018 copyright by the U.S. Secretary of Commerce
on behalf of the United States of America. All rights reserved.
##CAS REGISTRY NO=3751-48-2
##MOLFORM=C 10 H 12 O 2
##$NIST SOURCE=MSDC-IR
##STATE=gas
##XUNITS=1/CM
##YUNITS=ABSORBANCE
##XFACTOR=1.
##YFACTOR=0.001
##DELTAX=1.92898
##FIRSTX=549.8
##LASTX=4000.7
##FIRSTY=14.946
##MAXX=4000.7
##MINX=549.759
##MAXY=0.084996
##MINY=0
##NPOINTS=1790
##XYDATA=(X++(Y..Y))
549.759 14.946 15.356 16.056 16.886 17.766 18.546 19.216 19.896 19.826 19.526
569.049 19.126 18.376 17.756 17.086 16.486 15.926 15.346 14.816 14.466 14.126
588.339 13.806 13.286 12.676 12.586 12.446 11.876 11.496 11.456 11.406 11.426
607.628 11.526 11.506 11.576 11.796 12.076 12.426 12.636 12.796 12.996 13.146
626.918 12.896 12.746 12.766 12.636 12.366 11.786 11.436 11.096 10.636 10.276
646.208 9.926 9.326 8.586 8.256 7.976 7.606 7.186 6.836 6.786 6.856
665.498 6.786 6.566 6.596 6.696 6.826 7.166 7.416 7.796 8.416 9.026
684.787 9.896 10.886 11.756 12.686 13.586 14.326 14.696 14.296 13.426 12.266
704.077 10.886 9.616 8.606 7.576 6.496 5.896 5.616 5.306 5.026 4.916
723.367 4.786 4.636 4.556 4.306 4.076 3.956 3.716 3.586 3.806 4.056
742.657 4.136 4.166 4.276 4.506 4.846 5.196 5.356 5.536 5.976 6.656
761.947 7.506 8.256 8.856 9.586 10.526 11.406 12.006 12.216 12.196 11.976
781.236 11.476 10.886 10.026 9.096 8.326 7.726 7.206 6.766 6.386 5.766
800.526 5.326 5.036 4.546 4.186 3.826 3.486 3.076 2.506 2.346 2.296
819.816 1.836 1.506 1.526 1.516 1.566 1.536 1.516 1.496 1.3741 1.385
839.106 1.3506 1.456 1.576 1.566 1.536 1.696 1.786 1.676 1.716 1.916
858.395 2.036 2.156 2.496 2.836 3.166 3.446 3.546 3.756 4.156 4.446
877.685 4.506 4.566 4.736 4.596 4.216 3.876 3.516 3.256 2.966 2.666
896.975 2.626 2.636 2.446 2.306 2.506 2.516 2.356 2.376 2.386 2.466
916.265 2.556 2.606 2.546 2.566 2.796 2.796 2.636 2.656 2.746 2.906
935.555 3.046 2.986 2.946 3.056 3.126 3.136 3.196 3.296 3.416 3.446
954.844 3.306 3.386 3.356 3.306 3.366 3.266 3.266 3.306 3.366 3.486
974.134 3.566 3.586 3.646 3.566 3.686 4.096 4.216 4.096 4.086 4.346
993.424 4.506 4.426 4.596 4.906 4.886 4.936 5.316 5.456 5.216 5.266
1012.714 5.816 5.866 5.886 6.276 6.516 6.626 6.586 6.816 6.966 7.106
1032.003 7.356 7.236 7.126 6.686 6.646 6.606 6.296 6.526 6.746 6.886
1051.293 6.496 6.436 6.876 6.846 6.806 6.976 7.256 7.856 8.226 8.576
1070.583 9.486 10.466 11.356 12.416 13.666 14.926 16.496 18.246 19.786 21.096
1089.873 22.116 23.266 24.706 26.346 28.206 30.156 32.446 35.036 38.666 43.176
1109.163 48.206 53.416 58.066 62.046 64.706 66.356 66.766 65.096 62.216 58.516
1128.452 54.046 48.896 43.866 39.836 36.116 32.606 30.246 28.186 26.106 24.476
1147.742 23.036 21.936 20.646 19.476 18.756 18.016 17.146 16.416 15.946 15.626
1167.032 15.086 14.776 15.056 15.236 15.146 15.066 15.096 15.126 15.206 15.476
1186.322 15.596 15.486 15.576 15.716 15.866 15.746 15.156 14.856 14.356 13.776
1205.611 13.586 13.066 12.536 12.336 12.356 11.806 10.896 10.596 10.496 10.136
1224.901 10.146 10.036 9.366 9.116 8.916 8.616 8.626 8.536 8.496 8.476
1244.191 8.166 8.146 8.296 8.216 8.236 8.316 8.426 8.656 8.446 8.286
1263.481 8.316 8.036 7.876 7.776 7.706 7.806 7.866 7.796 7.686 7.526
1282.771 7.546 7.636 7.496 7.456 7.406 7.236 7.146 7.126 7.116 7.056
1302.060 6.986 6.916 6.796 6.776 6.776 6.666 6.576 6.596 6.606 6.596
1321.350 6.626 6.676 6.696 6.756 6.836 6.916 6.956 7.026 7.216 7.346
1340.640 7.426 7.616 7.806 7.946 8.206 8.586 8.986 9.356 9.806 10.346
1359.930 10.896 11.436 12.016 12.666 13.316 13.846 14.366 14.866 15.206 15.476
1379.219 15.586 15.456 15.226 14.776 13.946 13.006 12.026 10.956 9.936 9.016
1398.509 8.246 7.616 7.126 6.746 6.466 6.256 6.186 6.256 6.306 6.406
1417.799 6.596 6.816 7.046 7.336 7.566 7.776 8.046 8.266 8.376 8.476
1437.089 8.576 8.636 8.706 8.716 8.696 8.706 8.686 8.536 8.316 8.076
1456.378 7.846 7.516 7.096 6.686 6.296 5.966 5.716 5.536 5.466 5.506
1475.668 5.606 5.806 6.166 6.606 7.006 7.326 7.566 7.686 7.666 7.526
1494.958 7.256 6.866 6.376 5.806 5.266 4.866 4.536 4.166 3.886 3.726
1514.248 3.686 3.596 3.466 3.356 3.286 3.286 3.296 3.276 3.186 3.116
1533.538 3.026 2.916 2.916 2.896 2.806 2.766 2.756 2.666 2.576 2.536
1552.827 2.456 2.396 2.496 2.566 2.566 2.676 2.726 2.736 2.936 3.146
1572.117 3.336 3.626 3.876 4.076 4.376 4.756 5.016 5.286 5.616 6.066
1591.407 6.456 6.826 7.376 8.016 8.766 9.536 10.336 10.956 11.326 11.456
1610.697 11.166 10.536 9.706 8.536 7.156 5.856 4.766 3.886 3.186 2.716
1629.986 2.356 2.056 1.856 1.716 1.626 1.556 1.496 1.506 1.536 1.506
1649.276 1.546 1.566 1.566 1.606 1.606 1.656 1.716 1.736 1.776 1.806
1668.566 1.876 1.956 1.956 1.986 2.006 1.996 2.056 2.146 2.196 2.266
1687.856 2.336 2.396 2.526 2.616 2.716 2.836 3.046 3.246 3.376 3.636
1707.146 3.926 4.206 4.506 4.836 5.196 5.596 6.216 6.846 7.526 8.256
1726.435 9.026 9.996 11.056 12.186 13.536 14.906 16.316 17.956 19.626 21.396
1745.725 23.276 25.236 27.356 29.676 32.256 35.066 38.236 41.846 46.046 50.856
1765.015 56.076 61.686 67.646 73.266 78.296 82.116 84.366 84.996 83.706 80.546
1784.305 75.656 69.446 62.946 56.596 50.546 45.186 40.476 36.226 32.546 29.296
1803.594 26.396 23.766 21.396 19.196 17.206 15.326 13.576 12.056 10.746 9.566
1822.884 8.566 7.686 6.826 6.096 5.606 5.256 4.916 4.576 4.316 4.076
1842.174 3.876 3.636 3.416 3.316 3.226 3.166 3.046 2.896 2.756 2.666
1861.464 2.546 2.446 2.386 2.286 2.116 1.966 1.846 1.766 1.746 1.686
1880.754 1.556 1.496 1.466 1.4307 1.4344 1.456 1.486 1.446 1.446 1.466
1900.043 1.436 1.4028 1.4048 1.4147 1.456 1.506 1.536 1.586 1.596 1.626
1919.333 1.676 1.726 1.786 1.826 1.826 1.836 1.806 1.756 1.716 1.676
1938.623 1.556 1.456 1.405 1.2722 1.1545 1.1102 1.054 1.003 0.9357 0.9518
1957.913 1.0302 1.0004 0.9819 0.9475 0.9166 0.9889 0.9694 0.9007 0.9034 0.9274
1977.202 0.8946 0.8553 0.9028 0.9746 0.9758 0.9173 0.9419 0.9724 0.9679 0.9362
1996.492 0.9441 0.9706 0.9311 0.8836 0.8485 0.7954 0.7658 0.8146 0.8343 0.8388
2015.782 0.8259 0.7761 0.7622 0.7869 0.7824 0.7646 0.777 0.7859 0.7827 0.7876
2035.072 0.7614 0.7258 0.7435 0.7383 0.6909 0.7331 0.7958 0.737 0.6742 0.7
2054.362 0.7047 0.704 0.7664 0.7436 0.741 0.7666 0.7308 0.6602 0.6692 0.7033
2073.651 0.6954 0.7104 0.7072 0.7245 0.6898 0.7101 0.7124 0.6921 0.7215 0.684
2092.941 0.6413 0.6271 0.6477 0.6389 0.6416 0.7099 0.7037 0.7174 0.726 0.665
2112.231 0.6898 0.7407 0.7412 0.6923 0.7396 0.8357 0.7816 0.7242 0.7446 0.7345
2131.521 0.7494 0.7683 0.7519 0.7228 0.693 0.7056 0.7645 0.7821 0.7439 0.6706
2150.810 0.6832 0.7132 0.6968 0.7129 0.6825 0.6708 0.6898 0.6836 0.683 0.7128
2170.100 0.6993 0.6681 0.6837 0.6962 0.691 0.738 0.7917 0.7657 0.7547 0.7319
2189.390 0.7378 0.7507 0.7171 0.7733 0.8372 0.8267 0.8007 0.8018 0.8247 0.8649
2208.680 0.8733 0.8542 0.8458 0.8684 0.8964 0.8974 0.8599 0.9125 0.9603 0.8405
2227.970 0.8242 0.9069 0.8775 0.8269 0.7874 0.8484 0.9126 0.8678 0.8384 0.8184
2247.259 0.8864 0.9451 0.9098 0.8903 0.8657 0.8554 0.8543 0.8007 0.7585 0.7717
2266.549 0.8093 0.8039 0.7594 0.7677 0.7389 0.7219 0.7051 0.6396 0.6846 0.6858
2285.839 0.6609 0.6922 0.6905 0.6895 0.7102 0.7427 0.7937 0.8445 0.82 0.7746
2305.129 0.7392 0.7306 0.7423 0.7153 0.6876 0.7026 0.7975 0.7788 0.7145 0.7468
2324.418 0.7519 0.7477 0.753 0.7331 0.7592 0.8237 0.7748 0.7343 0.8352 0.8362
2343.708 0.6981 0.7443 0.7884 0.7267 0.7571 0.7308 0.7427 0.7855 0.804 0.7525
2362.998 0.6132 0.636 0.6868 0.6629 0.6699 0.66 0.6764 0.7051 0.7332 0.7636
2382.288 0.7046 0.6564 0.6532 0.7227 0.7235 0.7118 0.76 0.7618 0.7549 0.7071
2401.578 0.7453 0.7285 0.6978 0.7217 0.6832 0.6969 0.7069 0.7113 0.7245 0.7257
2420.867 0.7489 0.729 0.6697 0.6874 0.7226 0.6745 0.6248 0.6438 0.6401 0.6077
2440.157 0.6563 0.7785 0.8172 0.7319 0.6801 0.6902 0.7017 0.6502 0.6472 0.684
2459.447 0.6264 0.6663 0.7038 0.6736 0.7551 0.786 0.7321 0.6514 0.6424 0.7235
2478.737 0.6673 0.675 0.7122 0.6643 0.6393 0.5911 0.6595 0.6601 0.5797 0.6554
2498.026 0.712 0.6335 0.5992 0.6376 0.6092 0.5465 0.6013 0.585 0.5279 0.5481
2517.316 0.5718 0.6113 0.6302 0.6619 0.6549 0.5624 0.48942 0.5835 0.6745 0.6267
2536.606 0.5626 0.5463 0.5775 0.6536 0.7076 0.6928 0.6676 0.6013 0.5289 0.52474
2555.896 0.51615 0.48131 0.48761 0.45865 0.47013 0.51573 0.4803 0.49528 0.44813 0.4173
2575.186 0.48831 0.50987 0.47885 0.52887 0.555 0.47606 0.5542 0.6313 0.5519 0.46354
2594.475 0.52348 0.5653 0.5468 0.558 0.5882 0.5825 0.50689 0.49185 0.5574 0.584
2613.765 0.5394 0.5389 0.50282 0.542 0.583 0.5431 0.49872 0.51831 0.5892 0.5434
2633.055 0.49223 0.5388 0.5704 0.5363 0.6172 0.687 0.6228 0.6223 0.6265 0.5723
2652.345 0.5362 0.52292 0.50688 0.51852 0.5681 0.5586 0.556 0.5885 0.5792 0.5406
2671.634 0.49237 0.50307 0.5623 0.6011 0.6576 0.6688 0.628 0.6408 0.5964 0.47968
2690.924 0.5549 0.5884 0.47884 0.5426 0.6257 0.5933 0.5971 0.5691 0.5671 0.6397
2710.214 0.6981 0.7516 0.6831 0.62 0.6014 0.5593 0.5838 0.6402 0.677 0.7647
2729.504 0.8325 0.8214 0.7474 0.7722 0.9432 1.0473 1.0108 0.922 0.9021 0.9399
2748.794 0.8987 0.764 0.708 0.7254 0.7334 0.6978 0.6798 0.7086 0.7354 0.7113
2768.083 0.7075 0.7847 0.7447 0.6943 0.7669 0.8509 0.759 0.7335 0.7484 0.7751
2787.373 0.7561 0.8008 0.9168 0.8374 0.8066 0.7525 0.7443 0.7693 0.8325 0.909
2806.663 0.9394 0.8873 0.9398 0.9923 0.9396 1.0318 1.1487 1.2414 1.2564 1.2832
2825.953 1.456 1.606 1.696 1.726 1.806 1.906 1.916 2.046 2.206 2.346
2845.242 2.536 2.686 2.836 3.186 3.516 3.736 3.986 4.276 4.696 5.126
2864.532 5.586 6.046 6.366 6.646 6.926 7.236 7.336 7.376 7.446 7.356
2883.822 7.066 6.796 6.686 6.516 6.396 6.396 6.396 6.526 6.776 6.876
2903.112 7.116 7.486 7.746 8.106 8.536 9.096 9.836 10.766 11.746 12.696
2922.401 13.656 14.776 15.676 16.476 17.376 17.966 18.276 18.186 17.806 17.326
2941.691 16.676 15.836 14.986 14.186 13.356 12.606 11.926 11.306 10.846 10.356
2960.981 10.006 9.756 9.436 9.036 8.626 8.386 8.096 7.816 7.646 7.376
2980.271 7.166 7.096 7.116 7.116 7.156 7.236 7.326 7.336 7.316 7.536
2999.561 7.856 7.996 8.176 8.596 9.126 9.666 10.146 10.806 11.356 11.896
3018.850 12.506 13.046 13.576 13.986 14.486 14.936 15.216 15.226 15.106 14.736
3038.140 14.176 13.746 13.196 12.566 11.986 11.646 11.486 11.256 11.136 11.106
3057.430 11.066 10.906 10.646 10.376 9.916 9.446 8.906 8.086 7.446 6.766
3076.720 5.946 5.456 4.986 4.516 4.116 3.666 3.326 3.136 3.086 3.056
3096.009 2.966 2.766 2.656 2.686 2.606 2.556 2.516 2.426 2.216 2.036
3115.299 1.976 1.706 1.3936 1.3163 1.2861 1.1197 1.038 1.0288 0.9681 0.9768
3134.589 0.8758 0.7286 0.7192 0.7744 0.7094 0.649 0.6426 0.5555 0.4174 0.4988
3153.879 0.6591 0.5582 0.4205 0.52364 0.6198 0.706 0.708 0.6447 0.6209 0.49504
3173.169 0.4117 0.4226 0.50953 0.379 0.415 0.48968 0.3487 0.3921 0.45403 0.44081
3192.458 0.42937 0.44891 0.439522 0.267 0.159 0.224 0.252 0.255 0.286 0.3682
3211.748 0.3454 0.294 0.3887 0.323 0.275 0.46698 0.44882 0.3751 0.51847 0.57
3231.038 0.47651 0.3951 0.3396 0.225 0.212 0.3945 0.45245 0.4042 0.229 0.163
3250.328 0.3516 0.265 0.159 0.265 0.321 0.45636 0.42623 0.258 0.279 0.296
3269.617 0.264 0.241 0.301 0.242 0.261 0.3854 0.327 0.291 0.241 0.252
3288.907 0.238 0.188 0.122 0.038 0.217 0.311 0.175 0.031 0.031 0.2
3308.197 0.155 0.215 0.46548 0.32 0.215 0.323 0.29 0.17 0.139 0.125
3327.487 0.03 0.219 0.3518 0.188 0.219 0.4008 0.315 0.24 0.301 0.3434
3346.777 0.4204 0.3613 0.291 0.3414 0.315 0.256 0.297 0.215 0.195 0.241
3366.066 0.3595 0.4207 0.243 0.299 0.3877 0.256 0.165 0.158 0.196 0.283
3385.356 0.3557 0.3784 0.316 0.3414 0.4124 0.4275 0.3841 0.3401 0.297 0.255
3404.646 0.38 0.3771 0.312 0.4075 0.45981 0.3471 0.262 0.227 0.18 0.292
3423.936 0.3764 0.321 0.392 0.442518 0.49186 0.49079 0.3832 0.33 0.286 0.258
3443.225 0.189 0.216 0.309 0.326 0.3735 0.365 0.311 0.32 0.304 0.4075
3462.515 0.6513 0.7793 0.5914 0.45119 0.48314 0.5466 0.6124 0.46739 0.43078 0.3948
3481.805 0.316 0.47427 0.5413 0.4993 0.586 0.6723 0.709 0.7049 0.6698 0.6511
3501.095 0.6505 0.8041 0.9261 0.8045 0.864 0.9978 1.1 1.267 1.193 1.177
3520.385 1.33 1.446 1.526 1.666 1.776 1.756 1.626 1.776 2.046 2.176
3539.674 2.306 2.356 2.426 2.626 2.826 3.056 3.456 4.096 4.886 5.596
3558.964 6.776 8.626 11.316 15.286 20.706 26.926 32.246 35.116 35.556 35.196
3578.254 33.966 30.456 24.446 17.746 12.476 9.036 6.876 5.346 4.276 3.626
3597.544 3.056 2.596 2.346 2.116 1.986 1.946 1.766 1.466 1.2895 1.233
3616.833 1.243 1.2694 1.0751 0.98 1.065 1.0334 0.9647 0.9164 0.8864 0.8733
3636.123 0.8331 0.8806 0.954 0.7228 0.572 0.6215 0.6327 0.50207 0.47297 0.50368
3655.413 0.46088 0.403 0.33 0.48329 0.49048 0.362 0.315 0.217 0.132 0.166
3674.703 0.216 0.306 0.342 0.3391 0.177 0.251 0.51293 0.44648 0.4501 0.48774
3693.993 0.49333 0.612 0.53286 0.3975 0.322 0.261 0.3373 0.314 0.289 0.235
3713.282 0.19 0.235 0.332 0.284 0.262 0.42722 0.3 0.283 0.233 0.056
3732.572 0 0.09 0.251 0.3432 0.3742 0.234 0.191 0.148 0.044 0.309
3751.862 0.3613 0.175 0.214 0.242 0.228 0.205 0.3523 0.4024 0.3971 0.3925
3771.152 0.3583 0.4769 0.42997 0.244 0.157 0.146 0.239 0.291 0.3511 0.3884
3790.441 0.235 0.187 0.255 0.147 0.242 0.283 0.117 0.3664 0.51823 0.3935
3809.731 0.333 0.283 0.258 0.2 0.264 0.174 0.059 0.198 0.226 0.298
3829.021 0.3646 0.28 0.197 0.254 0.24 0.241 0.319 0.205 0.128 0.147
3848.311 0.208 0.29 0.252 0.268 0.271 0.215 0.168 0.195 0.222 0.319
3867.601 0.4636 0.4204 0.317 0.154 0.021 0.266 0.45771 0.27 0.3738 0.5472
3886.890 0.311 0.258 0.49621 0.43321 0.258 0.295 0.3615 0.4567 0.47611 0.4045
3906.180 0.42857 0.334 0.207 0.152 0.131 0.12 0.073 0.099 0.13 0.14
3925.470 0.208 0.234 0.299 0.171 0.089 0.219 0.3742 0.443711 0.44373 0.43342
3944.760 0.294 0.276 0.292 0.167 0.277 0.49158 0.47817 0.305 0.176 0.306
3964.049 0.3516 0.229 0.138 0.43256 0.4257 0.29 0.45136 0.228 0.085 0.121
3983.339 0.297 0.3689 0.17 0.215 0.19 0.104 0.143 0.194 0.331 0.326
##END=
