##TITLE=4-n-Decylaniline
##JCAMP-DX=4.24
##DATA TYPE=INFRARED SPECTRUM
##ORIGIN=EPA-IR VAPOR PHASE LIBRARY
##OWNER=SRD/NIST
Collection (C) 2018 copyright by the U.S. Secretary of Commerce
on behalf of the United States of America. All rights reserved.
##CAS REGISTRY NO=37529-30-9
##MOLFORM=C 16 H 27 N
##$NIST SOURCE=MSDC-IR
##STATE=gas
##XUNITS=1/CM
##YUNITS=ABSORBANCE
##XFACTOR=1.
##YFACTOR=0.001
##DELTAX=1.92898
##FIRSTX=549.8
##LASTX=4000.7
##FIRSTY=24.14
##MAXX=4000.7
##MINX=549.759
##MAXY=0.49145
##MINY=0.0007637
##NPOINTS=1790
##XYDATA=(X++(Y..Y))
549.759 24.14 24.09 23.57 22.5 21.17 19.52 18.48 17.71 16.26 15.39
569.049 14.85 14.63 14.63 14.16 13.62 13.35 13.75 14.03 13.86 13.28
588.339 13 12.51 12.24 12.74 13.15 12.99 12.96 13.53 13.42 13.11
607.628 13.43 13.63 13.96 14.62 15.39 15.97 16.59 17.87 19.28 20.37
626.918 21.67 23.38 25.31 27.6 30.44 33.95 37.89 41.86 45.71 49.76
646.208 53.71 56.77 58.79 59.8 59.76 58.23 55.59 53.07 50.25 46.94
665.498 44.39 41.96 40.01 38.71 37.07 35.95 35.34 34.51 33.6 32.79
684.787 32 31.25 30.24 29.4 28.95 28.15 27.49 26.75 26.02 25.74
704.077 25.1 24.61 24.25 23.65 23.52 23.37 23.13 22.89 22.25 22.03
723.367 22.01 21.43 21.03 20.91 20.67 20.2 19.96 19.53 19.1 18.98
742.657 18.99 18.98 18.65 18.53 18.36 18.53 18.52 18.37 18.94 19.27
761.947 19.25 19.48 19.63 19.98 20.64 20.72 21.15 21.81 22.21 22.99
781.236 24.05 25.15 26.21 27.17 28.15 29.19 31.03 33.37 35.45 37.34
800.526 39.37 41.89 44.14 46.15 47.64 49.06 50.29 50.42 49.76 48.36
819.816 47.05 45.6 43.42 40.62 37.86 35.69 33.68 31.66 29.76 28.33
839.106 27.25 25.55 23.56 21.88 20.47 19.05 17.56 16.54 15.65 14.89
858.395 13.88 13.16 12.75 12.1 11.74 11.66 11.48 11.38 10.86 10.19
877.685 9.72 9.24 9.13 9.33 9.02 8.46 8.49 8.55 8.52 8.29
896.975 7.89 7.95 8.03 7.43 7.32 7.63 7.5 7.41 7.71 7.54
916.265 6.96 6.95 7.09 7.28 7.39 7.49 7.65 7.51 7.25 7.01
935.555 6.77 6.61 6.64 6.66 6.4 6.38 6.46 6.47 6.66 6.72
954.844 6.64 6.81 7.04 7.08 7.22 7.44 7.76 7.85 7.77 7.5
974.134 7.57 8.04 7.93 7.73 7.67 7.73 7.73 7.33 7.65 8.17
993.424 7.76 7.1 6.98 7.11 6.62 6.23 6.48 7.22 7.62 7.64
1012.714 7.95 8.27 8.4 8.44 7.74 7.11 7.32 7.81 7.8 7.51
1032.003 7.45 7.49 7.77 8.47 9.29 9.51 9.51 9.78 10.14 10.38
1051.293 10.61 10.96 10.92 11.23 11.78 11.62 12.08 13.1 13.53 13.39
1070.583 13.41 13.64 14.01 14.7 14.6 14.4 15.11 14.65 14.18 13.44
1089.873 12.34 11.98 11.46 11.27 11.35 10.99 10.48 9.72 9.83 10.68
1109.163 10.61 11.36 12.06 11.56 12.21 14.03 14.1 14.22 15.45 15.77
1128.452 15.15 14.25 13.58 12.74 11.15 9.89 8.54 6.89 6.53 6.65
1147.742 7.08 7.51 7.31 7.19 7.07 7.17 7.33 7.76 7.95 8.07
1167.032 9.21 10.67 12.45 15.17 19.61 25.16 28.52 29.18 27.75 22.88
1186.322 17.39 13.48 10.17 8.33 7.86 8.01 7.88 7.25 7.13 7.1
1205.611 7.14 6.97 7.69 8.52 9.16 9.45 9.67 10.06 9.69 9.82
1224.901 10.21 10.55 10.81 11.25 12.08 13.41 15.05 16.15 18.28 21.09
1244.191 23.95 26.5 29.13 34.17 40.21 46.95 55.34 65.03 75.7 87.38
1263.481 98.64 107.45 111.81 111.1 105.06 94.61 81.86 68.94 57.61 47.83
1282.771 39.88 33.55 28.65 25.12 22.57 20.86 19.8 18.79 17.92 17.5
1302.060 17.21 16.83 16.47 16.1 15.76 15.32 14.96 14.87 14.57 14.28
1321.350 14.18 14.04 14.04 14.17 14.53 15.05 15.67 16.33 16.97 17.68
1340.640 18.29 18.77 19.33 19.83 20.06 20.03 19.7 19.21 18.48 17.69
1359.930 17.03 16.47 15.92 15.4 14.89 14.27 13.5 12.81 12.48 12.31
1379.219 12.24 12.19 11.93 11.54 10.97 10.34 9.76 9.17 8.72 8.37
1398.509 8.23 8.24 8.33 8.42 8.58 8.7 8.88 9.27 9.55 9.82
1417.799 10.22 10.61 11.05 11.6 12.24 12.94 13.6 14.54 15.82 17.13
1437.089 18.84 20.75 22.96 25.46 28.08 30.63 32.87 34.88 36.67 38.31
1456.378 39.58 40.57 41.14 41.03 40.12 38.52 36.55 34.12 31.4 28.66
1475.668 26.14 23.88 22.19 20.95 19.97 19.59 19.81 20.53 21.87 24.09
1494.958 27.14 31.58 37.74 46.05 57.36 71.99 91.06 114.45 140.05 163.95
1514.248 179.64 181.64 168.98 144.69 114.6 86.9 65.2 49.8 39.14 31.54
1533.538 26.06 22.18 19.2 16.8 14.95 13.36 12.13 11.26 10.58 10.04
1552.827 9.61 9.47 9.44 9.28 9.13 9.29 9.48 9.54 9.76 10.25
1572.117 10.88 11.34 11.91 12.7 13.5 14.28 15.11 16.12 17.11 18.05
1591.407 19.24 20.55 22.22 24.19 26.09 28.5 31.44 35.13 39.55 45.04
1610.697 51.45 58.59 66.88 75.9 85.16 94.07 102.28 108.43 111.27 110.25
1629.986 104.84 95.39 83.56 70.9 58.73 48.15 39.34 32.32 26.91 22.87
1649.276 19.82 17.31 15.21 13.63 12.65 11.92 10.98 10.19 9.52 8.83
1668.566 8.39 7.95 7.55 7.22 7.03 6.82 6.49 6.19 5.99 5.96
1687.856 5.98 5.9 5.75 5.73 5.75 5.79 5.87 5.99 5.91 5.78
1707.146 5.71 5.73 5.74 5.54 5.41 5.23 5.06 4.93 4.78 4.74
1726.435 4.64 4.35 4.23 4.24 4.27 4.37 4.42 4.56 4.65 4.71
1745.725 4.87 4.91 4.89 4.7 4.35 4.08 3.82 3.48 3.25 3.11
1765.015 3.01 2.96 2.84 2.71 2.63 2.52 2.58 2.63 2.5 2.42
1784.305 2.4 2.47 2.49 2.45 2.32 2.33 2.37 2.4 2.42 2.48
1803.594 2.46 2.45 2.48 2.37 2.41 2.56 2.67 2.66 2.6 2.67
1822.884 2.67 2.65 2.76 2.9 2.98 3.15 3.13 3.1 3.28 3.4
1842.174 3.6 3.8 3.96 4.2 4.6 4.85 5.02 5.22 5.55 5.91
1861.464 6.09 6.22 6.31 6.4 6.42 6.25 5.91 5.4 5.02 4.71
1880.754 4.29 4.04 3.82 3.54 3.31 3.15 3.04 2.93 2.85 2.8
1900.043 2.77 2.85 2.86 2.78 2.86 2.92 2.87 2.95 3.03 3.01
1919.333 3.09 3.13 3.13 3.05 2.97 2.88 2.77 2.71 2.64 2.71
1938.623 2.68 2.56 2.48 2.43 2.45 2.46 2.39 2.31 2.24 2.22
1957.913 2.23 2.16 2.03 1.93 1.95 2.03 1.95 1.88 1.85 1.84
1977.202 1.79 1.89 2.05 2.02 2 1.99 2 2.01 2 2.07
1996.492 2.09 1.99 1.98 2.03 2.09 2.09 2.09 2.3 2.52 2.56
2015.782 2.51 2.6 2.74 2.83 2.82 2.75 2.77 2.85 2.8 2.7
2035.072 2.7 2.87 2.94 2.75 2.79 2.74 2.64 2.69 2.55 2.38
2054.362 2.53 2.78 2.74 2.72 2.78 2.79 2.69 2.64 2.65 2.74
2073.651 2.77 2.66 2.65 2.65 2.55 2.39 2.37 2.31 2.3 2.29
2092.941 2.17 2.25 2.34 2.23 2.22 2.33 2.32 2.22 2.18 2.13
2112.231 2.06 2.1 2.11 1.92 1.85 1.77 1.67 1.78 1.7 1.63
2131.521 1.66 1.61 1.64 1.68 1.65 1.69 1.75 1.79 1.76 1.74
2150.810 1.68 1.59 1.67 1.69 1.67 1.83 1.93 1.9 1.85 1.8
2170.100 1.78 1.77 1.7 1.6 1.6 1.59 1.69 1.74 1.65 1.72
2189.390 1.74 1.61 1.61 1.64 1.6 1.67 1.63 1.63 1.66 1.6
2208.680 1.59 1.53 1.48 1.6 1.59 1.45 1.41 1.5 1.66 1.68
2227.970 1.68 1.6 1.58 1.59 1.52 1.51 1.51 1.43 1.42 1.49
2247.259 1.67 1.86 1.78 1.64 1.78 1.83 1.65 1.82 1.88 1.83
2266.549 1.86 1.94 2.09 1.99 1.92 2.02 2 1.98 1.92 1.86
2285.839 1.83 1.85 1.88 1.84 1.95 2.06 2.23 2.25 2.12 2.13
2305.129 2.19 2.16 2.11 2.07 2.12 2.19 2.12 2.22 2.19 2.14
2324.418 2.19 2.21 2.28 2.2 2.15 2.17 2.08 2 2.02 2.09
2343.708 2.11 2.05 2.01 2.01 1.94 2.03 2.07 1.94 1.85 1.82
2362.998 1.89 1.99 1.97 1.68 1.65 1.7 1.69 1.97 1.96 1.75
2382.288 1.66 1.71 1.67 1.6 1.74 1.84 1.85 1.75 1.72 1.73
2401.578 1.7 1.56 1.42 1.4 1.51 1.67 1.61 1.59 1.63 1.64
2420.867 1.57 1.63 1.67 1.73 1.71 1.55 1.67 1.8 1.84 1.85
2440.157 1.71 1.75 1.84 1.77 1.7 1.68 1.64 1.85 1.91 1.75
2459.447 1.86 1.88 1.81 1.8 1.81 1.72 1.69 1.61 1.59 1.65
2478.737 1.64 1.64 1.59 1.54 1.61 1.74 1.66 1.42 1.47 1.74
2498.026 1.92 1.94 1.85 1.99 2.04 1.98 2.26 2.47 2.44 2.31
2517.316 2.33 2.48 2.52 2.63 2.8 2.9 2.9 2.88 2.91 2.92
2536.606 2.87 2.83 2.83 2.77 2.68 2.58 2.56 2.57 2.42 2.33
2555.896 2.41 2.54 2.55 2.46 2.47 2.54 2.74 2.77 2.69 2.82
2575.186 2.9 3.01 3.05 3.04 2.98 2.97 3.14 3.29 3.38 3.43
2594.475 3.43 3.37 3.51 3.58 3.53 3.63 3.79 3.98 4 3.94
2613.765 3.94 3.89 3.78 3.8 3.87 3.89 4.05 4.14 4.22 4.22
2633.055 4.29 4.35 4.3 4.43 4.5 4.57 4.61 4.53 4.54 4.63
2652.345 4.74 4.89 4.96 4.95 5 5.25 5.32 5.3 5.24 5.28
2671.634 5.41 5.45 5.51 5.54 5.59 5.66 5.56 5.45 5.53 5.51
2690.924 5.43 5.48 5.28 5.17 5.3 5.21 5.09 4.85 4.76 4.94
2710.214 4.89 4.81 4.92 5.13 5.21 5.11 5.1 5.21 5.18 5.19
2729.504 5.24 5.33 5.51 5.58 5.64 5.67 5.71 5.92 6.17 6.25
2748.794 6.08 6 6.24 6.56 6.49 6.43 6.63 6.67 6.74 6.72
2768.083 6.8 6.87 7.11 7.62 7.88 7.99 8.36 8.78 8.96 9.1
2787.373 9.28 9.64 10.05 10.42 10.91 11.35 11.61 11.97 12.48 12.9
2806.663 13.4 14.13 14.78 15.42 16.31 17.16 17.92 19.03 20.37 21.66
2825.953 22.93 24.36 26.03 27.92 30.12 32.84 36.12 40.2 45.25 51.54
2845.242 59.73 69.88 82.42 97.5 114.9 133.79 152.72 169.24 180.61 185.6
2864.532 184.12 177.44 167.39 155.62 143.44 132.48 123.3 116.35 111.13 106.91
2883.822 103.66 101.01 98.74 97.23 97.31 98.97 102.16 107.04 113.59 121.64
2903.112 131.44 142.7 155.38 169.38 184.84 202.19 221.72 244.94 272.49 304.3
2922.401 340.54 379.93 419.2 454.15 479.42 491.45 488.96 472.2 444.29 408.33
2941.691 367.41 325.41 285.25 248.86 217.93 193.05 174.02 160.2 151.52 146.75
2960.981 144.25 143.3 141.81 138.86 133.38 124.46 112.97 99.93 87.35 76.58
2980.271 67.76 60.86 55.42 51.46 48.6 46.41 45.29 45.12 45.73 46.91
2999.561 48.21 49.59 50.88 51.44 51.25 50.64 49.95 49.75 49.99 50.83
3018.850 52.41 54.43 56.61 59.01 61.13 62.22 62.03 60.32 56.62 51.56
3038.140 46.21 41.2 37.05 33.99 31.99 30.37 29.36 28.6 27.83 26.98
3057.430 26.04 24.81 23.28 21.91 20.58 19.51 18.49 17.23 16.07 15.19
3076.720 14.43 13.61 12.94 12.62 12.48 12.1 11.66 11.38 11.28 11.14
3096.009 11.05 10.7 10.15 9.87 9.71 9.17 8.43 8.16 7.77 7.26
3115.299 6.86 6.66 6.67 6.52 6.3 6.11 5.85 5.69 5.65 5.71
3134.589 5.36 5.07 5.03 4.86 4.58 4.27 4.14 3.95 3.87 3.73
3153.879 3.42 3.53 3.83 3.75 3.41 3.37 3.26 3.09 2.99 3.12
3173.169 3.22 3.06 2.91 2.8 2.92 2.82 2.49 2.46 2.78 2.78
3192.458 2.72 2.7 2.83 2.83 2.78 2.83 2.93 3.15 3.09 3.12
3211.748 3.13 2.87 2.57 2.43 2.65 2.68 2.78 2.98 3.09 3.18
3231.038 3.03 2.81 2.76 2.99 3.04 2.89 2.75 2.69 2.6 2.42
3250.328 2.21 2.13 2.04 1.9 1.71 1.61 1.69 1.75 1.73 1.62
3269.617 1.74 1.84 1.51 1.26 1.37 1.61 1.61 1.28 1.08 1.06
3288.907 1.15 1.15 1.14 1.2 1.11 1.01 1.07 1.03 1.14 1.24
3308.197 1.15 1.14 1.16 1.2 1.2 1.18 0.8835 0.8791 1.12 1.25
3327.487 1.28 1.17 0.9589 1.02 1.45 1.32 1.11 1.31 1.21 0.9894
3346.777 0.7637 1.06 1.24 1.07 1.14 1.21 1.35 1.55 1.67 1.7
3366.066 1.95 2.02 1.97 2.18 2.44 2.58 2.86 3.03 3.24 3.51
3385.356 4.02 4.89 5.54 6.35 7.24 8.4 9.92 11.21 12.04 12.62
3404.646 12.94 12.85 12.42 11.9 11.24 10.16 8.9 7.6 6.25 5.32
3423.936 4.73 4.03 3.61 3.47 3.22 3.26 3.26 2.93 2.78 3.04
3443.225 3.1 2.79 2.75 2.97 3.17 3.19 3.29 3.42 3.78 4.12
3462.515 4.27 4.45 4.93 5.38 5.46 5.99 6.55 6.97 7.66 8.03
3481.805 8.11 8.38 8.52 8.31 8.1 7.96 7.89 7.62 7.12 6.62
3501.095 6.26 5.92 5.14 4.33 4.1 3.84 3.62 3.32 2.93 2.69
3520.385 2.34 2.15 1.95 1.94 1.94 1.77 1.81 1.76 1.46 1.46
3539.674 1.66 1.49 1.22 1.09 1.19 1.47 1.52 1.27 1.11 1.24
3558.964 1.02 0.9562 1.03 0.9966 0.9923 1 1.15 1.28 1.37 1.1
3578.254 0.9412 0.7832 0.7752 0.8905 0.9921 1.26 1.24 1.02 1.09 1.16
3597.544 1.05 1.07 1.1 1.16 1.23 1.25 0.9945 1.05 1.12 1.3
3616.833 1.73 1.6 1.43 1.35 1.56 1.78 1.55 1.35 1.39 1.5
3636.123 1.46 1.23 1.17 1.16 1.23 1.64 1.57 1.54 1.68 1.62
3655.413 1.66 1.62 1.35 1.34 1.55 1.59 1.58 1.56 1.61 1.56
3674.703 1.5 1.57 1.67 1.65 1.74 1.75 1.5 1.45 1.42 1.32
3693.993 1.18 1.3 1.71 1.64 1.3 1.21 1.54 1.46 1.26 1.32
3713.282 1.3 1.52 1.62 1.51 1.24 1.07 1.16 1.28 1.3 1.08
3732.572 1.06 1.2 1.24 1.32 1.55 1.56 1.48 1.53 1.51 1.54
3751.862 1.43 1.44 1.64 1.71 1.55 1.38 1.12 0.9177 0.9288 1.07
3771.152 1.18 1.53 1.72 1.55 1.37 1.37 1.55 1.49 1.58 1.63
3790.441 1.7 1.62 1.37 1.24 1.36 1.4 1.48 1.58 1.44 1.41
3809.731 1.46 1.52 1.42 1.45 1.48 1.41 1.59 1.68 1.55 1.63
3829.021 1.75 1.93 2.05 1.69 1.58 1.79 1.62 1.63 1.75 1.7
3848.311 1.71 1.67 1.73 1.92 2.27 2.5 2.49 2.57 2.53 2.35
3867.601 2.34 2.6 2.41 2.2 2.08 1.53 1.52 1.89 1.97 1.99
3886.890 1.99 2 1.93 1.79 2.05 2.43 2.43 2.13 2.01 2.12
3906.180 2.22 2.27 1.81 1.81 2.33 2.28 2.21 2.36 2.17 2.15
3925.470 2.29 2.08 2.03 2.02 1.8 1.76 1.94 1.97 2.21 2.34
3944.760 2.27 2.06 2.01 2.12 2.04 2.16 2.18 2.13 2.21 2.09
3964.049 1.86 1.8 2.11 2.17 2.06 2.33 2.33 2.2 2.17 1.84
3983.339 1.76 1.85 1.81 1.87 2.01 2.3 2.09 1.81 1.93 2.08
##END=
