##TITLE=Benzyl tiglate
##JCAMP-DX=4.24
##DATA TYPE=INFRARED SPECTRUM
##ORIGIN=EPA-IR VAPOR PHASE LIBRARY
##OWNER=SRD/NIST
Collection (C) 2018 copyright by the U.S. Secretary of Commerce
on behalf of the United States of America. All rights reserved.
##CAS REGISTRY NO=37526-88-8
##MOLFORM=C 12 H 14 O 2
##$NIST SOURCE=MSDC-IR
##STATE=gas
##XUNITS=1/CM
##YUNITS=ABSORBANCE
##XFACTOR=1.
##YFACTOR=0.001
##DELTAX=1.92934
##FIRSTX=549.9
##LASTX=3999.5
##FIRSTY=3.92
##MAXX=3999.53
##MINX=549.863
##MAXY=0.24837
##MINY=0
##NPOINTS=1789
##XYDATA=(X++(Y..Y))
549.863 3.92 3.88 3.6586 3.5156 3.4736 3.3519 3.5014 3.521 3.5413 3.84
569.156 4.1 4.36 4.58 4.93 5.39 5.99 6.72 7.12 7.43 7.75
588.450 7.86 7.87 7.83 7.9 7.9 7.64 7.3 6.95 6.52 6.1
607.743 5.7 5.24 4.69 4.27 4.04 3.81 3.6114 3.4859 3.3168 3.2155
627.037 3.1736 3.0996 3.0642 3.0547 3.133 3.2465 3.2261 3.2736 3.452 3.6374
646.330 3.9 4.39 4.85 5.22 5.6 5.93 6.35 6.74 6.94 7.22
665.624 7.66 8.23 9.12 10.24 11.39 12.65 14.15 15.77 17.41 19.24
684.917 21.28 23.52 25.95 28.43 30.5 31.66 31.77 31.11 29.85 28.37
704.210 27.07 26.01 25.2 24.65 24.53 24.77 25.34 26.4 28.03 30.1
723.504 32.31 34.85 37.63 40.35 43.02 45.24 46.61 47.37 47.6 47.26
742.797 46.28 44.66 42.18 38.97 35.27 31.19 27.16 23.31 19.79 16.79
762.091 14.38 12.37 10.76 9.67 8.86 8.23 7.84 7.65 7.6 7.72
781.384 7.99 8.24 8.52 8.81 8.89 8.88 8.79 8.57 8.25 7.87
800.678 7.42 7.04 6.77 6.52 6.34 6.22 6.29 6.52 6.75 6.74
819.971 6.56 6.54 6.61 6.56 6.49 6.46 6.41 6.3 6.19 6.16
839.264 6.14 6.09 6.04 6.04 6.13 6.22 6.3 6.52 6.76 6.91
858.558 7.04 7.13 7.18 7.26 7.32 7.32 7.27 7.17 7.06 6.97
877.851 6.89 6.85 6.93 7.04 7.13 7.29 7.54 7.81 8.14 8.48
897.145 8.9 9.4 9.87 10.23 10.45 10.53 10.35 10.07 9.82 9.54
916.438 9.24 8.98 8.85 8.77 8.66 8.59 8.57 8.58 8.57 8.58
935.732 8.62 8.59 8.66 8.79 8.9 9.01 9.18 9.44 9.8 10.22
955.025 10.8 11.57 12.43 13.44 14.62 15.88 17.14 18.4 19.63 20.67
974.318 21.45 21.92 21.98 21.74 21.31 20.63 19.87 19.17 18.57 18.18
993.612 18.04 18.27 18.9 19.67 20.47 21.44 22.58 23.74 24.79 25.89
1012.905 27.16 28.56 30.12 31.77 33.64 35.7 37.3 37.97 37.96 37.66
1032.199 37.27 36.5 35.62 35.47 36.17 37.28 38.57 40 41.45 42.91
1051.492 44.47 46.21 48.24 50.54 53.23 56.51 60.27 64.36 68.61 72.63
1070.786 75.97 78.49 79.84 79.83 78.48 75.93 72.51 68.44 64.01 59.43
1090.079 54.86 50.34 46.13 42.45 39.32 37 35.59 35.09 35.56 36.99
1109.372 39.66 43.74 49.47 57.39 67.82 81.44 98.61 118.84 140.72 161.78
1128.666 179.38 191.42 196.69 195.28 188.03 176.49 163.66 152.36 143.27 135.61
1147.959 128.15 119.4 108.79 96.3 82.51 68.85 56.66 46.62 38.68 32.61
1167.253 28.2 24.85 22.25 20.29 18.72 17.47 16.47 15.72 15.18 14.91
1186.546 14.52 14.06 14.12 14.33 14.78 15.71 16.78 18.17 19.74 21.18
1205.840 22.44 23.26 23.87 24.09 24.22 24.65 25.61 27.23 29.66 33.17
1225.133 37.52 42.94 49.88 58.99 70.73 85.1 102.57 123.24 146.59 171.13
1244.426 194.84 215.56 231.67 242.52 247.82 248.37 245.48 240.78 235.29 228.15
1263.720 217.64 202.43 182.22 158.19 132.64 108.19 86.88 69.79 56.71 47.01
1283.013 39.83 34.39 30.27 26.9 24.25 22.23 20.59 19.34 18.33 17.49
1302.307 16.8 16.22 15.78 15.49 15.23 14.95 14.72 14.51 14.22 13.98
1321.600 13.82 13.67 13.6 13.66 13.84 14.26 15.06 16.18 17.54 18.9
1340.894 19.99 20.54 20.51 19.97 18.93 17.57 16.19 15.1 14.49 14.34
1360.187 14.66 15.29 16.02 16.92 17.97 19.09 20.27 21.46 22.67 23.87
1379.480 25.08 26.22 27.13 27.82 28.07 27.73 26.85 25.43 23.53 21.43
1398.774 19.39 17.42 15.57 14.03 12.87 11.97 11.27 10.81 10.53 10.4
1418.067 10.41 10.48 10.63 10.87 11.22 11.7 12.21 12.78 13.49 14.31
1437.361 15.17 16.08 17.08 18.18 19.3 20.34 21.25 21.99 22.55 22.92
1456.654 22.99 22.7 22.18 21.49 20.58 19.47 18.24 16.98 15.77 14.58
1475.948 13.56 12.7 12.07 11.65 11.44 11.58 12.01 12.83 14.02 15.29
1495.241 16.28 16.64 16.4 15.72 14.53 12.86 11.07 9.63 8.66 8.06
1514.534 7.73 7.5 7.31 7.22 7.1 6.99 6.92 6.85 6.77 6.71
1533.828 6.64 6.55 6.49 6.45 6.38 6.28 6.19 6.12 6 5.91
1553.121 5.9 5.86 5.81 5.8 5.72 5.65 5.71 5.72 5.73 5.78
1572.415 5.85 5.97 6.13 6.25 6.36 6.53 6.69 6.87 7.02 7.11
1591.708 7.24 7.34 7.34 7.42 7.53 7.59 7.64 7.72 7.73 7.61
1611.002 7.49 7.36 7.22 7.06 6.92 6.95 7.05 7.21 7.44 7.79
1630.295 8.25 8.86 9.67 10.63 11.85 13.39 15.28 17.59 20.23 22.98
1649.588 25.53 27.53 28.76 28.89 27.96 26.13 23.55 20.63 17.89 15.67
1668.882 14.07 12.99 12.29 11.91 11.74 11.75 11.95 12.24 12.67 13.17
1688.175 13.71 14.41 15.21 16.14 17.37 18.8 20.54 22.8 25.62 29.23
1707.469 33.78 39.61 46.99 56.25 67.67 81.4 97.39 114.67 132.55 149.45
1726.762 163.78 174.44 181.03 182.99 179.52 170.71 157.26 140.53 122.68 104.81
1746.056 88.04 73 60 49.02 40.17 33.24 27.77 23.56 20.39 18.01
1765.349 16.24 14.96 14.01 13.31 12.82 12.46 12.15 11.87 11.65 11.41
1784.642 11.16 10.94 10.72 10.54 10.3 9.95 9.6 9.18 8.68 8.11
1803.936 7.5 6.91 6.35 5.81 5.35 5.01 4.73 4.53 4.4 4.23
1823.229 4.07 3.94 3.85 3.81 3.6968 3.5807 3.5481 3.5545 3.5154 3.5485
1842.523 3.6002 3.6418 3.6963 3.7249 3.78 3.82 3.9 3.98 4.03 4.07
1861.816 4.14 4.2 4.24 4.27 4.36 4.44 4.46 4.52 4.61 4.61
1881.110 4.56 4.51 4.45 4.35 4.23 4.14 4.1 4.1 4.07 4.02
1900.403 3.96 3.98 4.03 4.01 4 4.04 4.08 4.06 4.11 4.16
1919.696 4.2 4.26 4.27 4.31 4.36 4.41 4.43 4.47 4.52 4.54
1938.990 4.56 4.57 4.61 4.69 4.79 4.86 4.89 4.89 4.83 4.71
1958.283 4.52 4.25 3.99 3.6872 3.4046 3.2359 3.0872 2.9653 2.8925 2.8345
1977.577 2.78156 2.75248 2.74158 2.6933 2.6648 2.6936 2.7052 2.671 2.6826 2.72166
1996.870 2.73596 2.76139 2.7451 2.7112 2.6957 2.6529 2.628 2.6424 2.6333 2.669
2016.164 2.6951 2.6829 2.6736 2.6753 2.72988 2.79842 2.82715 2.871 2.9508 2.9879
2035.457 3.0276 3.0795 3.1242 3.1592 3.2018 3.2548 3.2651 3.2831 3.2727 3.237
2054.750 3.2502 3.2701 3.2566 3.1802 3.1085 3.0374 2.9819 2.9572 2.9111 2.8362
2074.044 2.80722 2.8172 2.77541 2.7089 2.6565 2.622 2.599 2.542 2.49 2.478
2093.337 2.453 2.45 2.441 2.429 2.418 2.405 2.41 2.369 2.371 2.405
2112.631 2.369 2.341 2.333 2.304 2.291 2.309 2.327 2.328 2.327 2.321
2131.924 2.332 2.345 2.305 2.288 2.299 2.317 2.395 2.425 2.414 2.419
2151.218 2.415 2.398 2.385 2.432 2.495 2.511 2.514 2.532 2.548 2.527
2170.511 2.531 2.599 2.6315 2.604 2.572 2.603 2.618 2.579 2.571 2.581
2189.804 2.548 2.524 2.541 2.523 2.475 2.46 2.437 2.415 2.421 2.39
2209.098 2.393 2.379 2.328 2.326 2.313 2.305 2.321 2.298 2.279 2.288
2228.391 2.301 2.297 2.321 2.348 2.315 2.303 2.337 2.363 2.373 2.389
2247.685 2.419 2.47 2.478 2.454 2.461 2.483 2.504 2.49 2.482 2.491
2266.978 2.469 2.447 2.404 2.392 2.389 2.38 2.392 2.377 2.376 2.389
2286.272 2.378 2.334 2.325 2.346 2.371 2.414 2.445 2.444 2.429 2.449
2305.565 2.496 2.54 2.59 2.6437 2.6451 2.621 2.585 2.554 2.503 2.444
2324.858 2.383 2.315 2.293 2.297 2.289 2.31 2.329 2.31 2.31 2.309
2344.152 2.313 2.332 2.332 2.309 2.31 2.297 2.302 2.312 2.274 2.283
2363.445 2.316 2.328 2.387 2.418 2.391 2.397 2.396 2.405 2.45 2.481
2382.739 2.497 2.519 2.537 2.564 2.588 2.583 2.598 2.598 2.578 2.574
2402.032 2.546 2.507 2.525 2.524 2.48 2.487 2.451 2.378 2.343 2.329
2421.326 2.355 2.354 2.31 2.307 2.339 2.319 2.321 2.336 2.296 2.266
2440.619 2.276 2.301 2.283 2.262 2.29 2.269 2.204 2.206 2.25 2.238
2459.912 2.244 2.25 2.231 2.249 2.26 2.266 2.276 2.267 2.274 2.298
2479.206 2.317 2.343 2.34 2.28 2.285 2.322 2.285 2.276 2.278 2.271
2498.499 2.241 2.252 2.273 2.281 2.306 2.262 2.239 2.294 2.334 2.368
2517.793 2.347 2.272 2.249 2.263 2.305 2.326 2.299 2.243 2.174 2.15
2537.086 2.142 2.061 2.007 2.036 2.044 2.02 1.996 2.026 2.024 1.971
2556.380 1.94 1.962 1.981 1.998 1.987 1.973 1.971 1.99 2.023 2.015
2575.673 2.01 1.992 1.976 1.981 2.035 2.043 2.061 2.093 2.089 2.121
2594.966 2.135 2.12 2.027 2.014 2.111 2.09 2.039 2.01 2.001 1.986
2614.260 1.984 1.999 1.996 1.994 1.945 1.95 2.006 2.012 1.988 1.994
2633.553 2.032 2.014 2.015 2.069 2.044 1.996 1.976 1.953 2.033 2.052
2652.847 1.95 1.902 1.869 1.915 1.968 1.919 1.919 1.982 2.042 2.06
2672.140 1.994 1.919 1.888 1.885 1.851 1.817 1.872 1.895 1.909 1.972
2691.434 1.958 1.912 1.941 1.986 2.03 2.034 2.015 2.062 2.095 2.125
2710.727 2.128 2.17 2.242 2.231 2.238 2.27 2.257 2.319 2.386 2.348
2730.020 2.347 2.417 2.447 2.41 2.41 2.525 2.625 2.614 2.612 2.582
2749.314 2.603 2.6568 2.627 2.6752 2.661 2.6505 2.7125 2.6736 2.602 2.598
2768.607 2.6317 2.565 2.558 2.567 2.525 2.502 2.475 2.549 2.602 2.594
2787.901 2.629 2.6368 2.7011 2.80822 2.78514 2.72845 2.77879 2.8678 2.9073 3.0161
2807.194 3.1565 3.2913 3.3687 3.4485 3.6 3.76 3.95 4.04 4.15 4.27
2826.488 4.34 4.5 4.64 4.78 4.97 5.05 5.1 5.27 5.52 5.79
2845.781 6.1 6.44 6.77 7.14 7.63 8.3 9.06 9.89 10.83 11.82
2865.074 12.82 13.85 14.64 15.23 15.81 16.11 16.2 16.22 16.2 16.27
2884.368 16.37 16.6 16.9 17.09 17.38 17.65 17.83 17.98 18.15 18.23
2903.661 18.2 18.33 18.55 18.89 19.34 19.93 20.71 21.78 23.09 24.7
2922.955 26.41 28.27 30.13 31.54 32.8 33.72 34.14 34.2 34.06 33.71
2942.248 33.27 33.01 32.75 32.48 32.2 31.9 31.57 31.19 30.7 29.95
2961.542 28.89 27.64 26.35 25.02 23.75 22.51 21.3 20.35 19.68 19.1
2980.835 18.63 18.31 18.05 17.95 17.81 17.75 17.76 17.67 17.66 17.55
3000.128 17.33 17.12 16.84 16.57 16.43 16.45 16.52 16.69 17.05 17.68
3019.422 18.49 19.48 20.71 22.08 23.59 25.34 27.1 28.62 29.99 31.05
3038.715 31.66 31.73 31.16 30.11 28.77 27.3 25.91 24.69 23.84 23.44
3058.009 23.43 23.9 24.79 26.06 27.72 29.54 30.91 31.21 30.64 29.47
3077.302 27.44 24.8 22.12 19.81 17.95 16.54 15.53 14.61 13.94 13.31
3096.596 12.51 11.82 11.3 10.75 10.06 9.35 8.66 8.01 7.44 6.77
3115.889 6.15 5.58 4.97 4.57 4.08 3.5285 3.0746 2.618 2.351 2.165
3135.182 1.979 1.825 1.66 1.56 1.36 1.24 1.26 1.25 1.15 1.08
3154.476 1.05 1.06 1.21 1.23 1.16 1.14 1.07 1.04 1.07 0.99
3173.769 0.96 0.91 0.8 0.66 0.59 0.64 0.59 0.51 0.55 0.59
3193.063 0.45 0.31 0.31 0.37 0.38 0.42 0.44 0.31 0.29 0.34
3212.356 0.2 0.17 0.25 0.3 0.34 0.27 0.25 0.27 0.28 0.23
3231.650 0.23 0.21 0.08 0 0.14 0.23 0.12 0.06 0.18 0.28
3250.943 0.23 0.14 0.03 0.08 0.17 0.11 0.15 0.15 0.13 0.18
3270.236 0.12 0.06 0.17 0.2 0.21 0.17 0.12 0.18 0.25 0.29
3289.530 0.07 0.04 0.07 0.08 0.08 0.06 0.15 0.1 0.15 0.2
3308.823 0.15 0.1 0.02 0.03 0.13 0.1 0.06 0.12 0.17 0.16
3328.117 0.21 0.19 0.05 0.02 0.03 0.06 0.1 0.14 0.24 0.26
3347.410 0.2 0.13 0.07 0.06 0.07 0.09 0.1 0.21 0.3 0.27
3366.704 0.32 0.32 0.37 0.43 0.4 0.41 0.38 0.48 0.5 0.42
3385.997 0.41 0.48 0.64 0.57 0.45 0.34 0.47 0.57 0.38 0.48
3405.290 0.56 0.36 0.26 0.37 0.49 0.59 0.62 0.69 0.77 0.79
3424.584 0.79 0.8 1.02 1.23 1.3 1.37 1.45 1.49 1.56 1.64
3443.877 1.56 1.54 1.5 1.41 1.4 1.4 1.21 1.1 1.09 0.98
3463.171 0.97 0.89 0.63 0.55 0.64 0.52 0.41 0.38 0.3 0.26
3482.464 0.27 0.42 0.37 0.3 0.36 0.38 0.34 0.25 0.26 0.33
3501.758 0.42 0.38 0.33 0.4 0.31 0.32 0.44 0.41 0.38 0.35
3521.051 0.37 0.43 0.46 0.46 0.5 0.48 0.39 0.42 0.42 0.39
3540.344 0.46 0.48 0.42 0.39 0.39 0.43 0.41 0.39 0.43 0.36
3559.638 0.3 0.48 0.61 0.51 0.4 0.51 0.55 0.46 0.43 0.51
3578.931 0.59 0.58 0.57 0.52 0.55 0.59 0.67 0.7 0.56 0.55
3598.225 0.51 0.51 0.61 0.54 0.56 0.61 0.63 0.67 0.65 0.63
3617.518 0.67 0.7 0.67 0.63 0.64 0.75 0.81 0.74 0.76 0.74
3636.812 0.76 0.82 0.73 0.81 0.94 0.96 1 1.06 0.95 0.86
3656.105 0.96 1 1.01 1 1.08 1.05 0.95 1.05 1 0.88
3675.398 0.85 0.89 0.89 0.91 0.93 0.98 1.08 1.01 0.94 0.96
3694.692 0.99 0.97 0.99 1.08 1.03 0.97 1.04 1.05 1.08 1.19
3713.985 1.18 1.11 1.01 1.02 1.06 1.02 1.09 1.11 1.12 1.15
3733.279 1.01 0.96 0.98 0.97 1.03 1.02 1.04 1.07 0.98 0.94
3752.572 0.91 0.93 0.91 0.93 0.96 0.9 0.97 1.06 1.01 0.88
3771.866 0.98 1.06 1.06 1.12 1.05 0.99 1 1.05 1.14 1.19
3791.159 1.12 1.1 1.16 1.09 1.08 1.19 1.2 1.17 1.21 1.18
3810.452 1.16 1.19 1.17 1.2 1.18 1.21 1.3 1.28 1.17 1.19
3829.746 1.25 1.23 1.18 1.2 1.17 1.15 1.15 1.12 1.17 1.16
3849.039 1.22 1.35 1.38 1.38 1.37 1.36 1.32 1.34 1.36 1.38
3868.333 1.42 1.35 1.37 1.4 1.44 1.46 1.42 1.45 1.52 1.53
3887.626 1.47 1.43 1.44 1.47 1.43 1.51 1.56 1.48 1.45 1.49
3906.920 1.5 1.53 1.55 1.53 1.57 1.55 1.48 1.45 1.55 1.61
3926.213 1.54 1.51 1.49 1.5 1.65 1.71 1.71 1.67 1.58 1.55
3945.506 1.52 1.54 1.57 1.57 1.56 1.61 1.65 1.63 1.63 1.58
3964.800 1.58 1.63 1.68 1.63 1.55 1.58 1.62 1.67 1.57 1.53
3984.093 1.57 1.52 1.51 1.54 1.55 1.57 1.56 1.57 1.59
##END=
