##TITLE=(1S,2R)-(+)-Norephedrine
##JCAMP-DX=4.24
##DATA TYPE=INFRARED SPECTRUM
##ORIGIN=EPA-IR VAPOR PHASE LIBRARY
##OWNER=SRD/NIST
Collection (C) 2018 copyright by the U.S. Secretary of Commerce
on behalf of the United States of America. All rights reserved.
##CAS REGISTRY NO=37577-28-9
##MOLFORM=C 9 H 13 N O
##$NIST SOURCE=MSDC-IR
##STATE=gas
##XUNITS=1/CM
##YUNITS=ABSORBANCE
##XFACTOR=1.
##YFACTOR=0.001
##DELTAX=1.92898
##FIRSTX=549.8
##LASTX=4000.7
##FIRSTY=5.8
##MAXX=4000.7
##MINX=549.759
##MAXY=0.03296
##MINY=0.00009834
##NPOINTS=1790
##XYDATA=(X++(Y..Y))
549.759 5.8 5.88 5.65 5.66 5.71 5.61 5.17 4.99 4.96 5.02
569.049 5.06 4.72 4.49 4.3 4.15 3.95 3.77 3.82 3.94 3.92
588.339 3.66 3.63 3.79 4.06 4.15 3.97 4.07 4.19 4.32 4.55
607.628 4.86 5.19 5.67 6.22 6.66 7.22 7.71 8.07 8.42 8.74
626.918 8.8 8.5 8.21 7.8 7.34 6.82 6.42 6.26 6.07 6.05
646.208 6.14 6.27 6.44 6.68 7 7.29 7.66 8.07 8.35 8.63
665.498 8.91 9.14 9.18 9.17 9.45 9.72 10.07 10.79 11.74 13.14
684.787 14.96 17.11 19.7 22.51 25.33 27.96 30.36 32.22 32.96 32.67
704.077 31.54 29.6 27.47 25.15 22.59 20.35 18.57 17.26 16.47 16.16
723.367 16.41 16.91 17.87 19.22 20.43 21.74 23.16 24.36 25.23 25.85
742.657 26.21 26.37 26.33 26.12 25.83 25.38 24.73 23.83 23.11 22.49
761.947 21.7 20.88 20.27 19.73 19.21 19 18.88 18.8 18.72 18.69
781.236 18.83 18.95 18.88 18.77 18.72 18.71 18.53 18.36 18.29 17.9
800.526 17.4 17.12 16.7 16.03 15.54 15.13 14.76 14.49 14.11 13.53
819.816 13.16 12.89 12.55 12.31 11.98 11.54 11.12 10.75 10.36 10.07
839.106 9.77 9.38 9.03 8.89 8.73 8.46 8.23 8.17 8.08 7.86
858.395 7.67 7.46 7.35 7.05 6.73 6.44 6.25 6.06 5.78 5.73
877.685 5.6 5.3 5.09 4.98 4.93 4.74 4.6 4.51 4.29 4.31
896.975 4.47 4.45 4.37 4.4 4.57 4.66 4.67 4.72 4.8 4.97
916.265 4.95 4.89 4.85 4.84 4.92 4.99 4.98 5.13 5.41 5.52
935.555 5.61 5.77 5.94 5.94 6 6.08 5.98 5.85 5.79 5.75
954.844 5.73 5.64 5.5 5.42 5.47 5.56 5.61 5.78 6.05 6.48
974.134 7.03 7.54 8.13 8.74 9.4 10.13 10.87 11.63 12.34 12.88
993.424 13.31 13.69 14.05 14.43 14.98 15.45 15.76 16.25 17.06 18.1
1012.714 18.99 19.95 20.97 21.91 22.67 23.32 24.04 24.36 24.52 24.66
1032.003 24.39 23.94 23.59 23.18 22.59 21.94 21.29 20.75 20.11 19.23
1051.293 18.41 17.53 16.59 15.93 15.23 14.41 13.64 13.02 12.35 11.83
1070.583 11.47 10.93 10.49 10.1 9.77 9.3 8.98 8.93 9 9
1089.873 8.73 8.71 9.14 9.44 9.35 9.47 9.81 10.13 10.19 10.16
1109.163 10.29 10.5 10.83 10.75 10.79 11.09 10.76 10.21 9.95 9.78
1128.452 9.29 8.79 8.41 8.03 7.54 7.21 6.93 6.6 6.39 6.15
1147.742 6.1 6.18 6.23 6.22 6.12 6.23 6.57 6.77 6.71 6.73
1167.032 6.85 7.24 7.86 8.11 8.22 8.53 8.78 9.01 9.36 9.7
1186.322 9.91 10.09 10.59 10.94 11.17 11.57 11.68 11.68 11.94 11.92
1205.611 11.59 11.38 11.35 11.25 10.97 10.89 10.64 10.49 10.67 10.58
1224.901 10.33 10.13 10.07 10.04 10.09 10.17 9.95 9.78 9.59 9.29
1244.191 9.1 8.93 8.86 8.59 8.23 8.15 8.19 8.05 7.94 8.09
1263.481 7.97 7.85 7.86 7.9 8.02 8.08 8.15 8.2 8.2 8.24
1282.771 8.29 8.4 8.43 8.46 8.61 8.71 8.8 8.96 9.22 9.54
1302.060 9.81 9.97 10.2 10.46 10.63 10.77 10.86 10.9 10.97 11.01
1321.350 10.98 10.92 10.72 10.41 10.14 9.83 9.45 9.12 8.76 8.43
1340.640 8.14 7.81 7.56 7.38 7.28 7.22 7.23 7.34 7.48 7.74
1359.930 8.07 8.47 8.98 9.58 10.26 10.98 11.73 12.4 12.98 13.44
1379.219 13.73 13.87 13.84 13.64 13.28 12.78 12.18 11.57 10.96 10.33
1398.509 9.75 9.18 8.57 8.01 7.49 7.01 6.56 6.17 5.82 5.46
1417.799 5.13 4.88 4.72 4.59 4.54 4.58 4.7 4.89 5.16 5.54
1437.089 6.02 6.63 7.35 8.07 8.83 9.52 10.1 10.48 10.61 10.66
1456.378 10.5 10 9.39 8.68 7.93 7.17 6.51 5.98 5.52 5.22
1475.668 5.06 5.05 5.21 5.48 5.87 6.35 6.82 7.19 7.35 7.41
1494.958 7.34 7.08 6.65 6.15 5.55 4.88 4.24 3.64 3.18 2.91
1514.248 2.73 2.58 2.5 2.48 2.49 2.48 2.49 2.53 2.53 2.57
1533.538 2.62 2.64 2.65 2.69 2.7 2.68 2.67 2.65 2.64 2.63
1552.827 2.6 2.56 2.55 2.58 2.64 2.69 2.68 2.76 2.89 3
1572.117 3.14 3.24 3.4 3.54 3.65 3.85 4.1 4.37 4.69 5.01
1591.407 5.45 5.93 6.34 6.73 7.07 7.43 7.83 8.11 8.3 8.49
1610.697 8.6 8.64 8.67 8.67 8.58 8.48 8.34 8.17 7.93 7.57
1629.986 7.21 6.75 6.25 5.8 5.35 4.94 4.55 4.15 3.85 3.57
1649.276 3.31 3.12 2.9 2.68 2.56 2.42 2.28 2.18 2.06 1.97
1668.566 1.9 1.83 1.72 1.63 1.58 1.49 1.45 1.4 1.35 1.29
1687.856 1.23 1.24 1.21 1.16 1.19 1.11 1.07 1.1 1.07 1.05
1707.146 1.07 1.06 1.04 1.04 1.03 1.07 1.08 1.01 1.01 1.07
1726.435 1.1 1.02 1.01 1.03 1.04 1.09 1.1 1.13 1.14 1.18
1745.725 1.2 1.17 1.16 1.2 1.21 1.11 1.07 1.04 1.04 1.04
1765.015 0.9722 0.9433 0.9558 0.9689 0.9777 0.962 0.9435 0.9619 0.996 0.9817
1784.305 1.02 1.1 1.22 1.37 1.45 1.54 1.65 1.78 1.84 1.81
1803.594 1.78 1.76 1.68 1.54 1.43 1.34 1.18 1.05 0.9942 0.9505
1822.884 0.8739 0.7971 0.749 0.7168 0.6976 0.6637 0.645 0.6213 0.6124 0.6316
1842.174 0.6535 0.6585 0.6571 0.6588 0.6485 0.6877 0.7448 0.7846 0.8557 0.936
1861.464 0.9742 1.04 1.13 1.19 1.27 1.35 1.37 1.37 1.41 1.47
1880.754 1.5 1.47 1.44 1.46 1.43 1.35 1.28 1.2 1.12 1.02
1900.043 0.9209 0.837 0.7893 0.7213 0.645 0.616 0.5704 0.5891 0.6381 0.6637
1919.333 0.7174 0.7493 0.7866 0.8614 0.9125 0.9731 1.1 1.24 1.37 1.45
1938.623 1.54 1.62 1.64 1.66 1.67 1.69 1.69 1.68 1.59 1.46
1957.913 1.37 1.26 1.11 1.03 0.961 0.8251 0.7033 0.6116 0.5458 0.4569
1977.202 0.4107 0.4077 0.3688 0.3945 0.4258 0.394 0.3898 0.4039 0.4007 0.3741
1996.492 0.3738 0.3834 0.3722 0.3574 0.3546 0.3339 0.3429 0.3322 0.3198 0.3283
2015.782 0.2861 0.2835 0.3514 0.3829 0.3413 0.3262 0.3239 0.2864 0.2654 0.3224
2035.072 0.3492 0.3194 0.354 0.3806 0.3761 0.3726 0.3308 0.3374 0.3603 0.3606
2054.362 0.3574 0.3577 0.3601 0.3258 0.3061 0.2958 0.2762 0.2585 0.3009 0.3235
2073.651 0.2793 0.2507 0.2381 0.2325 0.2534 0.2455 0.2147 0.2212 0.2047 0.2288
2092.941 0.288 0.2713 0.2112 0.2152 0.2227 0.2483 0.2597 0.2006 0.2147 0.255
2112.231 0.2718 0.2616 0.1847 0.1827 0.2154 0.1568 0.1528 0.1981 0.2301 0.2024
2131.521 0.177 0.1763 0.1527 0.1287 0.09834 0.123 0.1742 0.1645 0.1458 0.1588
2150.810 0.1561 0.1513 0.1731 0.1997 0.1758 0.1526 0.1742 0.2306 0.2499 0.2558
2170.100 0.219 0.1967 0.1932 0.1617 0.1839 0.2055 0.1998 0.1847 0.2067 0.2352
2189.390 0.248 0.2593 0.2093 0.1935 0.251 0.2595 0.2487 0.2713 0.2836 0.2251
2208.680 0.1672 0.1778 0.2375 0.2484 0.2222 0.2246 0.2308 0.2877 0.307 0.3042
2227.970 0.3508 0.3526 0.2879 0.2089 0.2003 0.2314 0.2299 0.264 0.2762 0.2749
2247.259 0.3139 0.3225 0.3308 0.3212 0.286 0.2499 0.2254 0.2459 0.2567 0.1915
2266.549 0.1972 0.2465 0.2707 0.2843 0.2567 0.2574 0.2038 0.1852 0.2549 0.2464
2285.839 0.22 0.2183 0.2598 0.2744 0.2434 0.2915 0.3524 0.3801 0.3524 0.3163
2305.129 0.3076 0.3362 0.4368 0.4644 0.4759 0.4426 0.4128 0.4525 0.4701 0.5028
2324.418 0.4731 0.4638 0.474 0.4907 0.4722 0.4097 0.4129 0.4694 0.5134 0.4715
2343.708 0.4147 0.3904 0.4152 0.404 0.3887 0.4261 0.3927 0.3636 0.4101 0.4108
2362.998 0.3492 0.3358 0.3851 0.418 0.3978 0.3524 0.3229 0.3511 0.3621 0.3263
2382.288 0.2952 0.3185 0.3631 0.3752 0.3611 0.3457 0.3463 0.3138 0.3315 0.3704
2401.578 0.3383 0.3147 0.3368 0.4124 0.3804 0.3022 0.2899 0.2959 0.3306 0.3322
2420.867 0.3123 0.3056 0.3261 0.342 0.3607 0.359 0.3899 0.4536 0.4039 0.3884
2440.157 0.4506 0.4355 0.4071 0.4039 0.4113 0.466 0.4581 0.3847 0.362 0.407
2459.447 0.3961 0.3345 0.3931 0.4672 0.4406 0.3638 0.3626 0.3783 0.3573 0.3783
2478.737 0.3936 0.3931 0.3599 0.3462 0.3843 0.3878 0.3567 0.3499 0.3625 0.3846
2498.026 0.3716 0.3822 0.4243 0.4299 0.4727 0.4973 0.4102 0.3622 0.4005 0.4084
2517.316 0.4133 0.3351 0.3363 0.4433 0.4838 0.4712 0.4634 0.4361 0.3736 0.3904
2536.606 0.4006 0.3622 0.3856 0.4793 0.5492 0.5535 0.5441 0.5519 0.5601 0.5223
2555.896 0.4775 0.5464 0.6257 0.607 0.5509 0.5793 0.6057 0.6169 0.6947 0.7672
2575.186 0.7499 0.7671 0.8157 0.7719 0.726 0.6943 0.7485 0.8331 0.8763 0.8224
2594.475 0.8102 0.9119 0.9146 0.8986 0.9076 0.9028 0.9139 0.9848 0.9987 0.8991
2613.765 0.905 0.9343 0.8267 0.8594 0.8726 0.8403 0.8472 0.8256 0.9116 0.9209
2633.055 0.8615 0.8179 0.7744 0.8317 0.8408 0.805 0.836 0.8618 0.8105 0.7702
2652.345 0.7449 0.7085 0.8618 0.9073 0.8667 0.8693 0.8869 0.8933 0.8559 0.8665
2671.634 0.8463 0.8276 0.856 0.8558 0.8244 0.8422 0.8992 0.9579 0.8867 0.8393
2690.924 0.8634 0.8232 0.8374 0.8798 0.8799 0.9011 0.9113 0.9036 0.9586 0.9776
2710.214 0.9608 1.05 1.08 1.1 1.13 1.08 1.14 1.22 1.2 1.13
2729.504 1.1 1.15 1.24 1.28 1.27 1.27 1.29 1.36 1.31 1.25
2748.794 1.26 1.31 1.32 1.3 1.31 1.3 1.26 1.27 1.29 1.35
2768.083 1.46 1.53 1.61 1.68 1.67 1.68 1.72 1.83 1.84 1.79
2787.373 1.85 1.92 1.94 1.95 1.96 1.99 2.13 2.29 2.31 2.32
2806.663 2.45 2.52 2.56 2.71 2.84 2.97 3.15 3.29 3.51 3.7
2825.953 3.9 4.13 4.37 4.64 4.97 5.33 5.64 5.99 6.37 6.67
2845.242 6.97 7.39 7.8 8.19 8.64 9.09 9.48 9.91 10.46 11.08
2864.532 11.6 12.25 13.03 13.82 14.56 15.27 16.04 16.68 17.22 17.67
2883.822 17.96 18.17 18.15 17.98 17.8 17.49 17.18 16.94 16.67 16.46
2903.112 16.25 15.94 15.63 15.4 15.12 14.71 14.26 13.94 13.68 13.35
2922.401 13.12 13.03 12.97 12.92 12.94 13.09 13.05 12.91 12.65 12.12
2941.691 11.62 11.07 10.55 10.1 9.78 9.76 10.04 10.61 11.44 12.67
2960.981 14.05 15.5 17.03 18.23 18.94 19.43 19.69 19.43 18.91 18.24
2980.271 17.36 16.32 15.11 13.79 12.65 11.75 10.84 9.85 8.92 8.05
2999.561 7.26 6.55 5.9 5.5 5.31 5.24 5.3 5.49 5.95 6.56
3018.850 7.26 8.24 9.3 10.43 11.52 12.5 13.32 13.82 14.22 14.29
3038.140 14.01 13.49 12.65 11.79 11.08 10.41 9.9 9.55 9.49 9.87
3057.430 10.57 11.46 12.53 13.8 14.97 15.98 16.71 17.1 17.1 16.75
3076.720 16.26 15.52 14.44 13.21 12.04 11 10.16 9.45 8.87 8.37
3096.009 7.78 7.18 6.5 5.88 5.31 4.73 4.36 3.93 3.45 3.07
3115.299 2.73 2.43 2.24 2.02 1.79 1.67 1.54 1.35 1.24 1.17
3134.589 1.18 1.25 1.14 1.01 0.8869 0.862 0.9303 0.9703 0.8922 0.8645
3153.879 0.9196 0.9321 0.9897 0.9619 0.9027 0.9483 0.9251 0.7744 0.7736 0.8865
3173.169 0.8928 0.8194 0.7594 0.7632 0.7847 0.7524 0.6722 0.6238 0.6375 0.641
3192.458 0.6291 0.6333 0.697 0.6559 0.6591 0.6941 0.6611 0.6994 0.6109 0.6035
3211.748 0.6473 0.6151 0.5898 0.646 0.6183 0.5042 0.5278 0.4888 0.383 0.45
3231.038 0.4812 0.3916 0.4341 0.5104 0.4354 0.4015 0.5432 0.4783 0.4166 0.537
3250.328 0.6491 0.5922 0.4659 0.4316 0.516 0.5748 0.4884 0.3775 0.3495 0.3274
3269.617 0.367 0.4463 0.4142 0.4184 0.3058 0.2831 0.3275 0.3528 0.4608 0.4787
3288.907 0.4984 0.4767 0.3036 0.2299 0.3203 0.3952 0.362 0.3658 0.4429 0.5184
3308.197 0.5866 0.5394 0.4779 0.5129 0.5131 0.4424 0.523 0.6137 0.5833 0.5415
3327.487 0.5514 0.6779 0.7459 0.6902 0.7135 0.7969 0.7709 0.8052 0.8746 0.8583
3346.777 0.8307 0.8625 0.7975 0.677 0.6863 0.638 0.6421 0.6761 0.6415 0.663
3366.066 0.6245 0.5835 0.5973 0.6116 0.5914 0.5966 0.6213 0.6829 0.7335 0.7913
3385.356 0.7928 0.7196 0.7856 0.8688 0.901 0.8739 1 1.18 1.21 1.17
3404.646 1.19 1.27 1.45 1.5 1.44 1.55 1.56 1.55 1.62 1.54
3423.936 1.57 1.59 1.43 1.35 1.31 1.26 1.36 1.35 1.25 1.13
3443.225 1.16 1.13 1.15 1.3 1.22 1.2 1.35 1.44 1.41 1.38
3462.515 1.32 1.36 1.47 1.43 1.2 1.12 1.18 1.11 1.07 1.15
3481.805 1.12 1.02 1.07 1.07 0.9657 1.07 1.24 1.18 1.12 1.29
3501.095 1.45 1.46 1.55 1.8 2 2.16 2.44 2.66 2.91 3.17
3520.385 3.52 3.95 4.28 4.6 4.9 5.02 5.12 5.08 4.88 4.76
3539.674 4.61 4.46 4.1 3.85 3.69 3.4 3.16 2.99 2.93 2.74
3558.964 2.54 2.41 2.3 2.31 2.22 2.13 2.11 2.03 2.02 2.09
3578.254 2.02 1.9 1.84 1.78 1.8 1.69 1.68 1.72 1.64 1.5
3597.544 1.47 1.6 1.55 1.43 1.47 1.52 1.58 1.69 1.68 1.69
3616.833 1.67 1.62 1.59 1.56 1.7 1.88 2.1 2.38 2.67 2.99
3636.123 3.38 3.88 4.42 4.96 5.52 6.03 6.44 6.7 6.75 6.71
3655.413 6.53 6.16 5.71 5.1 4.34 3.84 3.42 2.89 2.52 2.25
3674.703 2.04 1.85 1.48 1.24 1.3 1.28 1.17 1.09 1.02 0.862
3693.993 0.8006 0.9116 0.8869 0.8789 0.9079 0.7711 0.7459 0.7457 0.7196 0.7747
3713.282 0.7142 0.67 0.6136 0.5969 0.6153 0.5717 0.578 0.627 0.5312 0.6079
3732.572 0.5806 0.4652 0.5729 0.5235 0.5232 0.5722 0.5462 0.507 0.483 0.5223
3751.862 0.5808 0.5131 0.422 0.5345 0.568 0.5419 0.5835 0.544 0.4141 0.4328
3771.152 0.4956 0.5635 0.683 0.6099 0.4251 0.3427 0.4424 0.4455 0.4257 0.4891
3790.441 0.4038 0.3911 0.4754 0.5472 0.5036 0.2995 0.3436 0.485 0.4607 0.4664
3809.731 0.4853 0.4498 0.4593 0.3694 0.3564 0.3381 0.3687 0.3672 0.2864 0.4439
3829.021 0.5214 0.3529 0.3588 0.5053 0.507 0.4699 0.4924 0.5034 0.4495 0.5056
3848.311 0.3391 0.2275 0.416 0.5407 0.5386 0.5444 0.4754 0.3897 0.5706 0.6444
3867.601 0.5438 0.6342 0.6397 0.5702 0.5645 0.5462 0.5341 0.5841 0.5976 0.4459
3886.890 0.5747 0.6457 0.5604 0.6115 0.6889 0.7496 0.6377 0.5319 0.5391 0.6498
3906.180 0.7999 0.6667 0.5101 0.5146 0.4952 0.453 0.4853 0.612 0.5919 0.4422
3925.470 0.3753 0.476 0.4859 0.4673 0.4305 0.4377 0.4689 0.4375 0.4302 0.5051
3944.760 0.5066 0.482 0.4226 0.306 0.422 0.4805 0.4173 0.3657 0.3048 0.2663
3964.049 0.3113 0.4014 0.3821 0.2871 0.2101 0.1115 0.1541 0.3001 0.442 0.4776
3983.339 0.4922 0.4734 0.4104 0.467 0.3885 0.4399 0.5278 0.3929 0.2983 0.2232
##END=
