##TITLE=4,4'-Dihexylazoxybenzene
##JCAMP-DX=4.24
##DATA TYPE=INFRARED SPECTRUM
##ORIGIN=EPA-IR VAPOR PHASE LIBRARY
##OWNER=SRD/NIST
Collection (C) 2018 copyright by the U.S. Secretary of Commerce
on behalf of the United States of America. All rights reserved.
##CAS REGISTRY NO=37592-88-4
##MOLFORM=C 24 H 34 N 2 O
##$NIST SOURCE=MSDC-IR
##STATE=gas
##XUNITS=1/CM
##YUNITS=ABSORBANCE
##XFACTOR=1.
##YFACTOR=0.001
##DELTAX=1.92898
##FIRSTX=549.8
##LASTX=4000.7
##FIRSTY=1.285
##MAXX=4000.7
##MINX=549.759
##MAXY=0.025135
##MINY=0
##NPOINTS=1790
##XYDATA=(X++(Y..Y))
549.759 1.285 1.0282 1.1358 1.2037 1.0821 1.2615 1.1044 0.8789 0.8281 0.8436
569.049 0.8302 0.723 1.0011 1.0832 0.7734 0.8713 0.8968 0.682 0.6648 0.6068
588.339 0.5292 0.5272 0.4567 0.2221 0.154 0.32641 0.4151 0.30373 0.3114 0.6024
607.628 0.7485 0.7306 0.8206 0.7001 0.5473 0.5941 0.5926 0.6845 0.4885 0.5772
626.918 0.679 0.534 0.5043 0.4305 0.5925 0.6263 0.5683 0.7107 0.7943 0.8122
646.208 0.9039 0.608 0.4342 0.4738 0.4511 0.4874 0.53 0.4489 0.2517 0.32389
665.498 0.4653 0.413 0.4567 0.7538 0.8269 0.6931 0.7988 0.8268 0.7666 0.7743
684.787 0.7497 0.8154 0.7148 0.6458 0.5958 0.6341 0.8205 0.6648 0.6148 0.7577
704.077 0.659 0.6378 0.7047 0.6826 0.6681 0.8884 1.0544 0.9016 0.7803 0.8444
723.367 0.975 0.9154 0.7665 0.7379 0.9108 0.9754 0.8216 0.8173 0.8773 0.8088
742.657 0.6888 0.7857 0.9303 0.9208 0.7533 0.5923 0.6421 0.683 0.7019 0.6984
761.947 0.563 0.6228 0.7418 0.883 0.8929 0.7991 1.0104 1.1539 0.9627 0.8087
781.236 0.8131 0.866 0.9699 1.0084 1.2061 1.275 1.0002 0.973 1.2219 1.315
800.526 1.425 1.645 1.555 1.435 1.715 2.015 2.105 2.205 2.275 2.515
819.816 2.805 2.895 2.925 2.945 3.185 3.155 3.065 3.225 3.275 3.045
839.106 2.825 2.865 2.665 2.485 2.405 2.315 2.255 2.265 2.315 2.075
858.395 1.735 1.745 1.845 1.695 1.555 1.2521 1.1546 1.2236 1.0291 0.9208
877.685 0.966 0.9991 1.0189 0.9854 1.0166 1.082 0.9304 0.8617 0.9278 0.9323
896.975 0.982 1.0191 1.1907 1.325 1.385 1.455 1.565 1.835 2.105 2.405
916.265 2.625 2.585 2.355 2.005 1.595 1.355 1.2088 1.0117 1.1158 1.0198
935.555 0.8802 0.9206 0.6841 0.5882 0.7124 0.7962 0.7762 0.6569 0.6541 0.5766
954.844 0.32614 0.34705 0.4617 0.4095 0.4465 0.4107 0.4812 0.698 0.7011 0.6358
974.134 0.5167 0.5451 0.645 0.5352 0.5034 0.5412 0.4491 0.4004 0.4575 0.5615
993.424 0.4716 0.6378 0.6526 0.36341 0.3799 0.5313 0.8413 1.1558 1.455 1.665
1012.714 2.485 3.615 3.855 3.085 1.925 1.305 0.9522 0.7839 0.7549 0.7042
1032.003 0.8715 0.9284 0.5802 0.5521 0.8086 0.7524 0.4197 0.565 0.5593 0.29341
1051.293 0.4996 0.6192 0.4403 0.3661 0.30441 0.1779 0.33994 0.4297 0.5579 0.8578
1070.583 0.9978 0.8017 0.8036 0.7756 0.5451 0.4026 0.7267 0.9666 0.8821 0.9598
1089.873 0.9653 1.1942 0.9111 0.6276 0.9675 0.9998 1.0222 1.0455 0.8082 0.887
1109.163 1.0887 1.495 1.885 1.535 1.1097 0.9912 0.9849 0.7421 0.5215 0.5965
1128.452 0.9127 0.8487 0.649 0.9563 0.9221 0.5238 0.5691 0.9127 0.9612 0.8401
1147.742 0.5945 0.33599 0.5966 0.7064 0.7082 0.9555 1.205 1.555 2.115 2.985
1167.032 3.445 3.265 2.685 2.185 1.665 0.978 0.8565 1.093 1.0292 0.6697
1186.322 0.4243 0.465 0.5699 0.8941 1.0871 0.6452 0.3169 0.683 0.7375 0.36295
1205.611 0.5112 0.4748 0.304 0.104 0.2389 0.5776 0.543 0.6255 0.8969 0.9508
1224.901 0.8504 1.0073 1.0871 1.0022 1.0699 1.1444 1.2419 1.0626 0.852 0.7954
1244.191 0.6558 0.6959 0.683 0.8207 0.9125 0.8238 0.943 1.1414 1.1871 0.8889
1263.481 0.8788 1.1065 1.1754 1.2433 1.315 1.475 1.665 1.655 1.665 1.795
1282.771 1.775 1.855 2.085 2.155 2.115 2.155 2.195 2.185 2.235 2.375
1302.060 2.485 2.495 2.475 2.425 2.325 2.295 2.275 2.285 2.365 2.475
1321.350 2.565 2.695 2.775 2.855 2.865 2.755 2.665 2.535 2.425 2.375
1340.640 2.315 2.225 2.145 2.105 2.075 2.115 2.125 2.075 2.005 1.885
1359.930 1.835 1.795 1.725 1.735 1.715 1.605 1.545 1.505 1.475 1.495
1379.219 1.555 1.655 1.715 1.675 1.645 1.585 1.555 1.585 1.595 1.605
1398.509 1.665 1.815 1.975 2.185 2.465 2.635 2.735 2.735 2.625 2.535
1417.799 2.365 2.225 2.155 2.065 2.045 2.045 2.105 2.225 2.345 2.525
1437.089 2.765 3.095 3.465 3.905 4.395 4.935 5.555 6.275 7.135 8.085
1456.378 9.175 10.425 11.675 12.835 13.545 13.705 13.285 12.185 10.795 9.335
1475.668 8.015 6.995 6.155 5.575 5.265 5.165 5.225 5.415 5.925 6.725
1494.958 7.685 8.825 9.785 9.935 9.055 7.545 5.885 4.625 3.725 2.975
1514.248 2.525 2.185 1.885 1.675 1.535 1.435 1.375 1.305 1.1846 1.1042
1533.538 1.049 1.0131 0.926 0.8916 0.9233 0.881 0.8365 0.8276 0.8416 0.7817
1552.827 0.6803 0.7327 0.825 0.7861 0.8222 0.8351 0.7348 0.726 0.776 0.7695
1572.117 0.797 0.893 0.9338 0.8829 0.9123 0.974 1.0443 1.1326 1.1937 1.2711
1591.407 1.405 1.525 1.675 1.895 2.005 2.135 2.205 2.065 1.785 1.545
1610.697 1.375 1.2254 1.023 0.7666 0.7269 0.7731 0.7707 0.7567 0.7172 0.6497
1629.986 0.6577 0.6974 0.7211 0.706 0.6808 0.6598 0.6781 0.7265 0.6656 0.6092
1649.276 0.5965 0.5538 0.5655 0.5989 0.5455 0.5314 0.6015 0.6049 0.5767 0.5583
1668.566 0.5844 0.6081 0.5907 0.5764 0.5763 0.5372 0.4877 0.5032 0.5097 0.4941
1687.856 0.4699 0.528 0.5857 0.54 0.4825 0.4871 0.4633 0.3905 0.4049 0.4439
1707.146 0.4268 0.4841 0.5439 0.4956 0.36883 0.34641 0.4312 0.4595 0.479 0.4766
1726.435 0.4813 0.5123 0.5163 0.4611 0.4264 0.434 0.4675 0.4938 0.5071 0.4336
1745.725 0.3975 0.4387 0.4321 0.4514 0.514 0.5816 0.5963 0.5631 0.543 0.5344
1765.015 0.5218 0.5802 0.6493 0.6287 0.6215 0.6531 0.6902 0.7226 0.7123 0.7137
1784.305 0.7082 0.6502 0.6386 0.5541 0.4379 0.482 0.4984 0.4206 0.417 0.5006
1803.594 0.4683 0.3755 0.36602 0.4068 0.411 0.3794 0.3853 0.4269 0.424 0.3822
1822.884 0.4131 0.4657 0.4298 0.4077 0.4165 0.3871 0.4005 0.4443 0.463 0.488
1842.174 0.471 0.4319 0.4582 0.4551 0.5003 0.5376 0.466 0.4161 0.4407 0.4647
1861.464 0.4431 0.4602 0.4609 0.4179 0.4275 0.4555 0.4541 0.4568 0.4567 0.468
1880.754 0.4883 0.4466 0.4271 0.4289 0.4842 0.5802 0.5752 0.5932 0.6341 0.6801
1900.043 0.7134 0.6448 0.6358 0.7209 0.7241 0.6765 0.7076 0.7384 0.6516 0.5868
1919.333 0.6013 0.5788 0.5472 0.5241 0.4845 0.4444 0.4588 0.4778 0.4849 0.4416
1938.623 0.4463 0.4857 0.4329 0.4236 0.3964 0.4161 0.4493 0.4379 0.4868 0.4543
1957.913 0.4319 0.4516 0.4804 0.4477 0.3652 0.36059 0.3821 0.4174 0.3801 0.3935
1977.202 0.4314 0.4183 0.4092 0.36807 0.34351 0.36996 0.3834 0.4243 0.4626 0.4333
1996.492 0.399 0.32751 0.33748 0.36799 0.37056 0.4088 0.4647 0.4576 0.405 0.4189
2015.782 0.37262 0.35882 0.4324 0.4508 0.4371 0.4416 0.4182 0.3979 0.4132 0.46
2035.072 0.4571 0.4043 0.4299 0.4234 0.4363 0.47 0.4341 0.419 0.4262 0.4625
2054.362 0.4627 0.4434 0.4069 0.4054 0.4411 0.4231 0.4107 0.4095 0.4521 0.4712
2073.651 0.4335 0.4302 0.4005 0.37417 0.3877 0.3841 0.4538 0.4262 0.3906 0.4608
2092.941 0.438 0.4205 0.4291 0.4622 0.4827 0.4279 0.4427 0.4861 0.4691 0.4694
2112.231 0.417 0.4189 0.4728 0.4238 0.3909 0.4264 0.4438 0.4304 0.4469 0.4623
2131.521 0.4259 0.4098 0.3968 0.3903 0.4058 0.4145 0.4395 0.4095 0.4276 0.4424
2150.810 0.3811 0.4252 0.441 0.3978 0.3777 0.35469 0.3972 0.4079 0.3854 0.36874
2170.100 0.33831 0.36461 0.3937 0.4299 0.4847 0.4925 0.4519 0.3896 0.3906 0.4025
2189.390 0.3954 0.4249 0.4405 0.4187 0.36468 0.37373 0.4235 0.432 0.4656 0.4505
2208.680 0.4025 0.3923 0.4512 0.4851 0.4358 0.4293 0.3965 0.36475 0.3812 0.35682
2227.970 0.3619 0.4293 0.4719 0.4896 0.4271 0.4013 0.4423 0.423 0.4124 0.4239
2247.259 0.4421 0.4559 0.4804 0.5088 0.4666 0.3983 0.4214 0.4569 0.4483 0.428
2266.549 0.4357 0.4537 0.37494 0.3784 0.4796 0.4959 0.4959 0.4838 0.4994 0.5125
2285.839 0.4589 0.4172 0.4629 0.5142 0.5077 0.5297 0.5198 0.4809 0.4358 0.3942
2305.129 0.4044 0.4174 0.4324 0.4731 0.4721 0.4578 0.4754 0.4575 0.4171 0.3934
2324.418 0.3948 0.4247 0.459 0.484 0.4924 0.4548 0.4507 0.514 0.5064 0.4831
2343.708 0.508 0.5258 0.553 0.5616 0.5415 0.5195 0.5024 0.5209 0.5571 0.5407
2362.998 0.5104 0.5628 0.5421 0.5623 0.579 0.5108 0.4746 0.498 0.5489 0.5913
2382.288 0.6285 0.5747 0.4974 0.4934 0.5008 0.5126 0.5583 0.5627 0.5581 0.5791
2401.578 0.6221 0.5743 0.5042 0.4734 0.4627 0.4629 0.4331 0.4187 0.4335 0.4207
2420.867 0.4198 0.4396 0.4884 0.5033 0.5388 0.5907 0.5581 0.5462 0.5027 0.4597
2440.157 0.5381 0.5912 0.4924 0.43 0.4702 0.5148 0.4834 0.4236 0.4288 0.477
2459.447 0.5144 0.4726 0.4336 0.4153 0.4486 0.4554 0.4218 0.4538 0.5187 0.5134
2478.737 0.4318 0.4251 0.4239 0.4669 0.4779 0.4306 0.4399 0.5345 0.6036 0.5664
2498.026 0.5159 0.5449 0.5878 0.5287 0.4566 0.4626 0.4285 0.36246 0.3927 0.4359
2517.316 0.4265 0.4718 0.5443 0.5146 0.4889 0.4839 0.5273 0.5566 0.4795 0.4335
2536.606 0.5154 0.545 0.4815 0.5142 0.5979 0.6113 0.5777 0.6448 0.6491 0.5978
2555.896 0.6146 0.6241 0.6319 0.5914 0.5918 0.6096 0.6492 0.6482 0.5833 0.5731
2575.186 0.5897 0.5683 0.5155 0.5088 0.4827 0.4115 0.4705 0.5514 0.5813 0.5955
2594.475 0.5931 0.6474 0.693 0.664 0.6179 0.5744 0.6219 0.6647 0.6031 0.5997
2613.765 0.6201 0.6196 0.6415 0.6899 0.6587 0.6248 0.6711 0.6535 0.6321 0.6807
2633.055 0.6471 0.5396 0.5565 0.6487 0.7348 0.7975 0.7462 0.6363 0.6197 0.6527
2652.345 0.6358 0.6389 0.6227 0.6013 0.5967 0.5932 0.6477 0.7302 0.7426 0.6471
2671.634 0.6691 0.7894 0.7201 0.685 0.6887 0.6948 0.7012 0.6999 0.68 0.5871
2690.924 0.6402 0.742 0.7213 0.6842 0.7028 0.7064 0.6967 0.6428 0.6084 0.6493
2710.214 0.7454 0.7616 0.7017 0.7641 0.7997 0.7186 0.7068 0.7111 0.7057 0.6879
2729.504 0.7109 0.8074 0.8222 0.8602 0.9151 0.9577 0.9063 0.8327 0.8416 0.8247
2748.794 0.744 0.7062 0.734 0.809 0.8426 0.8311 0.8637 0.8232 0.8192 0.8939
2768.083 0.9208 0.8684 0.8666 0.9596 0.9862 0.8921 0.8588 0.8658 0.8318 0.8853
2787.373 0.9387 0.9888 1.0186 0.9973 1.0147 1.017 1.013 1.0021 1.0003 1.1036
2806.663 1.1534 1.1981 1.325 1.2581 1.1874 1.2372 1.305 1.385 1.485 1.495
2825.953 1.535 1.705 1.795 1.825 1.835 1.905 2.075 2.275 2.435 2.685
2845.242 2.975 3.245 3.735 4.345 5.005 5.795 6.675 7.515 8.345 9.005
2864.532 9.455 9.605 9.385 9.035 8.515 8.035 7.715 7.475 7.225 7.025
2883.822 6.945 6.735 6.405 6.235 6.105 6.015 5.985 6.185 6.435 6.595
2903.112 6.935 7.435 7.945 8.425 9.025 9.715 10.535 11.475 12.515 13.695
2922.401 15.075 16.735 18.595 20.515 22.275 23.735 24.755 25.135 24.775 23.815
2941.691 22.385 20.665 18.685 16.655 14.845 13.295 12.065 11.245 10.995 11.045
2960.981 11.265 11.535 11.715 11.955 11.905 11.375 10.445 9.145 7.775 6.635
2980.271 5.755 5.115 4.565 4.055 3.705 3.505 3.245 2.895 2.725 2.535
2999.561 2.455 2.475 2.375 2.345 2.245 2.205 2.155 2.055 2.085 2.105
3018.850 2.155 2.275 2.475 2.725 3.025 3.195 3.275 3.295 3.135 3.085
3038.140 3.085 2.975 2.905 2.775 2.595 2.505 2.335 2.145 2.035 1.925
3057.430 1.835 1.755 1.725 1.675 1.685 1.745 1.625 1.585 1.685 1.715
3076.720 1.815 1.815 1.705 1.645 1.505 1.395 1.375 1.2424 1.0599 1.1384
3096.009 1.1189 1.0541 0.9658 0.9161 1.0417 1.0816 1.0048 0.8904 0.8811 0.9839
3115.299 0.9741 0.8204 0.7622 0.7529 0.6632 0.638 0.6033 0.5747 0.5394 0.5175
3134.589 0.6655 0.6746 0.6524 0.6245 0.6135 0.6073 0.5181 0.4388 0.4852 0.5012
3153.879 0.5308 0.5757 0.5629 0.5189 0.4393 0.4525 0.5001 0.4724 0.5082 0.5495
3173.169 0.5291 0.4527 0.4022 0.4759 0.4845 0.4871 0.4167 0.3777 0.4301 0.5299
3192.458 0.5522 0.42 0.33514 0.34845 0.3753 0.4327 0.433 0.411 0.37349 0.3615
3211.748 0.5241 0.5577 0.3934 0.29275 0.2058 0.171 0.1982 0.2132 0.2523 0.384
3231.038 0.3811 0.35709 0.4034 0.4111 0.3789 0.2928 0.33647 0.34182 0.31003 0.3959
3250.328 0.4427 0.3793 0.33882 0.29059 0.29792 0.284054 0.2561 0.36397 0.34503 0.31157
3269.617 0.35711 0.4271 0.35341 0.167 0.2087 0.30424 0.30289 0.3426 0.31488 0.3158
3288.907 0.33482 0.30283 0.3908 0.274493 0.2302 0.33797 0.31209 0.4353 0.488 0.3909
3308.197 0.34512 0.34466 0.36198 0.29397 0.1975 0.2033 0.1808 0.2266 0.4083 0.4054
3327.487 0.32682 0.2615 0.276148 0.30221 0.353 0.4403 0.27125 0.142 0.212 0.27595
3346.777 0.4031 0.4101 0.4162 0.5127 0.3909 0.2008 0.2485 0.30442 0.2034 0.33497
3366.066 0.4051 0.32653 0.33852 0.4773 0.4631 0.1931 0.143 0.2618 0.36153 0.32974
3385.356 0.34366 0.34626 0.2892 0.4778 0.4915 0.26801 0.278873 0.35146 0.2446 0.2147
3404.646 0.34647 0.36478 0.1945 0.1845 0.33466 0.2146 0.1918 0.4337 0.3906 0.275849
3423.936 0.2616 0.1764 0.1955 0.33319 0.2331 0.091 0.118 0.2033 0.2369 0.2013
3443.225 0.3441 0.4752 0.4336 0.4051 0.4314 0.3891 0.33219 0.2528 0.284686 0.4528
3462.515 0.483 0.33965 0.34688 0.37138 0.34696 0.33257 0.29435 0.3798 0.26782 0.17
3481.805 0.2189 0.2063 0.2126 0.136 0.188 0.2401 0.102 0.084 0.2112 0.2385
3501.095 0.2273 0.4526 0.4591 0.276483 0.2414 0.2 0.2136 0.34255 0.4167 0.27128
3520.385 0.1863 0.26774 0.279473 0.2204 0.26668 0.2045 0.04 0 0.021 0.1768
3539.674 0.29933 0.3542 0.3904 0.32939 0.27043 0.276164 0.2061 0.126 0.104 0.161
3558.964 0.31358 0.3354 0.36666 0.4049 0.27185 0.1816 0.2492 0.3812 0.36923 0.2341
3578.254 0.173 0.30342 0.3008 0.28905 0.32427 0.2163 0.1897 0.25 0.280673 0.2601
3597.544 0.2352 0.198 0.30181 0.35818 0.2231 0.169 0.169 0.1922 0.2112 0.1914
3616.833 0.2337 0.37493 0.444 0.34018 0.29244 0.30584 0.4051 0.5341 0.3936 0.29181
3636.123 0.27264 0.2521 0.284374 0.2101 0.14 0.134 0.046 0.046 0.29441 0.2597
3655.413 0.172 0.2533 0.31551 0.33706 0.36336 0.3816 0.2011 0.2412 0.4325 0.27973
3674.703 0.2326 0.31606 0.2067 0.2566 0.4263 0.3925 0.2601 0.3752 0.4341 0.29598
3693.993 0.254 0.35003 0.3897 0.2469 0.101 0.07 0.1778 0.182 0.153 0.1
3713.282 0.103 0.27201 0.36551 0.32866 0.28762 0.35332 0.33927 0.194 0.2119 0.4069
3732.572 0.4133 0.30406 0.35837 0.3776 0.26899 0.29919 0.33439 0.2452 0.2126 0.157
3751.862 0.127 0.163 0.163 0.1811 0.1897 0.26887 0.27011 0.177 0.152 0.109
3771.152 0.2503 0.2069 0.107 0.2215 0.28972 0.28626 0.2545 0.2044 0.239 0.3368
3790.441 0.35068 0.4422 0.4453 0.31185 0.2343 0.2237 0.4054 0.4723 0.3828 0.4068
3809.731 0.5129 0.5712 0.4979 0.3884 0.2143 0.2142 0.1881 0.087 0.124 0.143
3829.021 0.17 0.2506 0.31301 0.2189 0.088 0.15 0.32686 0.153 0.137 0.32591
3848.311 0.27133 0.3807 0.3038 0.16 0.2387 0.142 0.043 0.041 0.126 0.2497
3867.601 0.277829 0.2606 0.4102 0.5007 0.3547 0.31 0.275452 0.1849 0.2339 0.31582
3886.890 0.192 0.025 0.043 0.1829 0.132 0.117 0.30564 0.3791 0.3919 0.278614
3906.180 0.34338 0.4486 0.4205 0.26829 0.1962 0.35226 0.35291 0.36371 0.35755 0.1824
3925.470 0.2444 0.34155 0.35569 0.454 0.3863 0.32752 0.148 0.01 0.057 0.142
3944.760 0.3773 0.5199 0.3761 0.27103 0.34676 0.4662 0.4134 0.1854 0.1952 0.2902
3964.049 0.29676 0.31768 0.34404 0.4241 0.3771 0.3774 0.33551 0.278745 0.29987 0.2417
3983.339 0.186 0.2429 0.36609 0.32242 0.34446 0.3811 0.2356 0.094 0.093 0.14
##END=
