##TITLE=p-Pentylacetophenone
##JCAMP-DX=4.24
##DATA TYPE=INFRARED SPECTRUM
##ORIGIN=EPA-IR VAPOR PHASE LIBRARY
##OWNER=SRD/NIST
Collection (C) 2018 copyright by the U.S. Secretary of Commerce
on behalf of the United States of America. All rights reserved.
##CAS REGISTRY NO=37593-02-5
##MOLFORM=C 13 H 18 O
##$NIST SOURCE=MSDC-IR
##STATE=gas
##XUNITS=1/CM
##YUNITS=ABSORBANCE
##XFACTOR=1.
##YFACTOR=0.001
##DELTAX=1.92898
##FIRSTX=549.8
##LASTX=4000.7
##FIRSTY=1.155
##MAXX=4000.7
##MINX=549.759
##MAXY=0.071017
##MINY=0
##NPOINTS=1790
##XYDATA=(X++(Y..Y))
549.759 1.155 1.1789 1.2299 1.387 1.747 2.197 2.667 3.337 4.257 5.127
569.049 6.107 6.677 7.217 8.077 8.477 8.737 8.947 9.107 9.227 9.137
588.339 9.187 9.117 9.027 8.887 8.547 8.027 7.247 6.337 5.327 4.467
607.628 3.847 3.367 2.917 2.287 1.767 1.647 1.487 1.327 1.2744 1.2431
626.918 1.111 1.0252 1.1425 1.2 1.189 1.2659 1.397 1.407 1.437 1.457
646.208 1.527 1.587 1.717 1.897 2.187 2.457 2.427 2.327 2.147 2.017
665.498 1.837 1.827 1.997 1.997 1.977 2.037 2.077 2.217 2.347 2.447
684.787 2.467 2.427 2.207 1.837 1.627 1.507 1.427 1.397 1.2972 1.0973
704.077 0.906 0.9791 1.0339 1.1115 1.2719 1.2768 1.367 1.367 1.347 1.377
723.367 1.2661 1.317 1.517 1.677 1.647 1.567 1.687 1.647 1.687 1.737
742.657 1.687 1.727 1.697 1.617 1.627 1.447 1.327 1.457 1.527 1.567
761.947 1.457 1.367 1.527 1.747 1.827 1.887 1.767 1.677 2.017 2.307
781.236 2.407 2.387 2.477 2.737 3.017 3.507 3.877 4.107 4.407 4.757
800.526 5.087 5.477 5.917 6.127 6.217 6.307 6.277 6.227 6.287 6.267
819.816 6.237 6.217 6.247 6.177 5.907 5.867 6.097 6.217 6.277 6.437
839.106 6.467 6.477 6.397 6.137 5.857 5.377 4.807 4.367 3.807 3.307
858.395 3.187 2.807 2.447 2.317 1.937 1.817 1.867 1.747 1.767 1.677
877.685 1.427 1.387 1.367 1.2891 1.477 1.677 1.697 1.647 1.717 1.767
896.975 1.717 1.547 1.527 1.587 1.437 1.317 1.387 1.537 1.507 1.3021
916.265 1.2629 1.397 1.427 1.647 1.877 1.957 2.107 2.377 2.757 3.217
935.555 3.587 4.187 5.147 6.177 7.477 8.757 10.067 11.107 11.387 11.267
954.844 10.637 9.387 8.077 6.897 5.807 5.047 4.607 4.137 3.717 3.477
974.134 3.147 2.997 2.967 2.757 2.707 2.567 2.417 2.377 2.197 2.017
993.424 2.067 2.247 2.157 2.137 2.447 2.837 2.917 3.037 3.717 4.757
1012.714 5.737 6.227 6.207 5.807 5.057 3.977 2.877 2.157 1.767 1.657
1032.003 1.667 1.547 1.3021 1.387 1.567 1.537 1.447 1.377 1.367 1.447
1051.293 1.777 1.977 1.757 1.667 1.787 1.977 2.477 2.507 2.487 2.957
1070.583 3.267 3.097 2.957 3.237 3.167 2.747 2.487 2.487 2.237 1.857
1089.873 1.697 1.787 1.917 1.857 1.867 1.897 1.937 1.967 1.857 2.447
1109.163 3.037 2.757 2.397 2.647 2.697 2.297 2.357 2.397 2.307 2.177
1128.452 1.827 1.847 2.087 1.687 1.537 1.707 1.657 1.2473 0.8928 1.2228
1147.742 1.737 1.727 1.527 1.457 1.427 1.427 1.597 1.787 1.837 2.077
1167.032 2.257 2.687 3.487 4.527 5.997 8.317 10.847 12.387 13.127 13.197
1186.322 12.217 10.397 8.327 6.537 5.477 4.897 4.767 4.427 3.807 3.657
1205.611 3.667 3.667 3.877 3.717 3.997 4.907 5.297 5.587 6.107 7.227
1224.901 8.267 9.367 10.607 11.777 12.787 13.517 14.377 15.127 16.137 17.127
1244.191 18.517 21.107 24.667 29.547 35.997 43.897 52.407 60.197 65.737 67.517
1263.481 65.047 58.697 49.357 38.807 29.407 22.437 17.477 13.877 11.597 10.127
1282.771 9.047 8.347 7.797 7.367 7.177 7.007 6.807 6.667 6.477 6.327
1302.060 6.147 5.907 5.577 5.237 4.877 4.527 4.217 3.937 3.747 3.627
1321.350 3.587 3.607 3.647 3.757 3.937 4.207 4.577 4.917 5.287 5.777
1340.640 6.377 7.147 8.067 9.227 10.707 12.547 14.807 17.447 20.057 21.927
1359.930 22.707 22.357 20.877 18.527 15.727 13.147 11.017 9.337 8.157 7.397
1379.219 6.887 6.527 6.297 6.147 5.997 5.797 5.717 5.787 5.937 6.237
1398.509 6.667 7.187 7.857 8.627 9.407 10.027 10.317 10.307 9.977 9.427
1417.799 8.667 7.847 7.227 6.737 6.347 6.117 5.997 5.947 5.987 5.967
1437.089 5.977 6.087 6.197 6.257 6.367 6.517 6.617 6.717 6.727 6.707
1456.378 6.777 6.797 6.777 6.757 6.637 6.417 6.077 5.707 5.317 4.877
1475.668 4.477 4.137 3.807 3.467 3.167 2.927 2.787 2.627 2.467 2.347
1494.958 2.277 2.247 2.227 2.157 2.137 2.077 2.017 2.057 2.097 2.017
1514.248 1.987 1.927 1.897 1.937 1.907 1.927 1.957 2.007 1.977 1.957
1533.538 1.957 1.947 1.937 1.927 1.977 2.027 2.097 2.177 2.297 2.407
1552.827 2.537 2.697 2.937 3.227 3.607 3.977 4.267 4.577 4.767 4.817
1572.117 4.727 4.487 4.237 4.007 3.857 3.917 4.207 4.657 5.267 6.027
1591.407 7.097 8.597 10.397 12.527 14.977 17.397 19.557 21.157 21.747 21.227
1610.697 19.697 17.277 14.427 11.537 9.187 7.487 6.237 5.327 4.727 4.317
1629.986 3.957 3.687 3.507 3.387 3.337 3.347 3.347 3.407 3.437 3.407
1649.276 3.517 3.687 3.767 3.957 4.207 4.387 4.637 4.907 5.177 5.427
1668.566 5.747 6.157 6.697 7.377 8.247 9.307 10.707 12.417 14.737 17.707
1687.856 21.427 26.467 33.117 41.197 50.907 60.607 67.327 71.017 70.557 65.877
1707.146 57.357 46.987 37.127 29.247 23.167 18.507 14.927 12.337 10.357 8.847
1726.435 7.717 6.717 5.957 5.377 4.777 4.367 4.067 3.807 3.647 3.497
1745.725 3.357 3.247 3.177 3.057 2.937 2.757 2.597 2.457 2.197 1.977
1765.015 1.847 1.737 1.677 1.587 1.457 1.317 1.2199 1.1977 1.1591 1.0393
1784.305 0.9914 1.0455 1.0624 1.0908 1.1555 1.2132 1.2191 1.2018 1.2291 1.2383
1803.594 1.2315 1.229 1.1429 1.0192 0.9618 0.9446 0.9417 0.8906 0.7762 0.7252
1822.884 0.7534 0.7035 0.7179 0.7793 0.757 0.7543 0.7257 0.6855 0.6979 0.7299
1842.174 0.7248 0.7181 0.7032 0.648 0.6638 0.6502 0.5935 0.6185 0.6935 0.7252
1861.464 0.6971 0.6694 0.6528 0.6192 0.6868 0.7729 0.7671 0.7964 0.7645 0.7734
1880.754 0.8687 0.8673 0.9068 0.9595 0.9274 1.0261 1.1456 1.1527 1.1856 1.2162
1900.043 1.1929 1.1399 1.151 1.175 1.1515 1.1633 1.2156 1.2749 1.2822 1.2625
1919.333 1.2264 1.2082 1.2072 1.1856 1.1396 1.0984 1.0869 1.0784 1.062 1.0286
1938.623 1.0267 0.9983 0.957 0.9142 0.8778 0.8857 0.8941 0.8683 0.8184 0.7525
1957.913 0.7253 0.7312 0.73 0.6925 0.6394 0.593 0.5441 0.5311 0.5408 0.5595
1977.202 0.5376 0.5122 0.5236 0.4733 0.4868 0.5329 0.5096 0.5089 0.5481 0.5731
1996.492 0.5101 0.4807 0.5456 0.5431 0.4612 0.5417 0.5866 0.4948 0.5126 0.5989
2015.782 0.6501 0.6462 0.6374 0.6204 0.636 0.7184 0.7201 0.7008 0.7081 0.6731
2035.072 0.672 0.6717 0.6752 0.6674 0.6545 0.6492 0.6116 0.559 0.5218 0.5078
2054.362 0.4971 0.5201 0.5437 0.5593 0.5207 0.4986 0.5181 0.5522 0.5242 0.4364
2073.651 0.4498 0.4663 0.4433 0.4487 0.4535 0.4362 0.4157 0.4685 0.4914 0.4541
2092.941 0.4819 0.449 0.4543 0.4842 0.469 0.4802 0.4895 0.433 0.39172 0.38793
2112.231 0.36489 0.38679 0.39056 0.40468 0.4512 0.4233 0.37201 0.4158 0.4795 0.4092
2131.521 0.37182 0.4317 0.4339 0.4086 0.4526 0.4918 0.4708 0.437 0.4223 0.4205
2150.810 0.4122 0.4296 0.4716 0.5036 0.5043 0.5419 0.5087 0.4791 0.5285 0.5058
2170.100 0.4663 0.4631 0.4917 0.4783 0.4404 0.4623 0.5125 0.4941 0.5057 0.579
2189.390 0.5234 0.448 0.4689 0.4914 0.4653 0.4398 0.4765 0.4888 0.4427 0.4325
2208.680 0.428 0.4229 0.4451 0.4848 0.4719 0.4192 0.4846 0.5578 0.5327 0.4755
2227.970 0.4247 0.4326 0.4586 0.4316 0.4359 0.4436 0.474 0.5214 0.496 0.4673
2247.259 0.4416 0.4688 0.508 0.5145 0.4892 0.4312 0.4415 0.4835 0.5093 0.5326
2266.549 0.5375 0.5563 0.5312 0.4912 0.4944 0.4882 0.4592 0.4404 0.5288 0.6128
2285.839 0.552 0.5346 0.5822 0.6112 0.6678 0.6634 0.6054 0.617 0.676 0.6805
2305.129 0.7113 0.7471 0.6782 0.6553 0.6565 0.6537 0.5991 0.5205 0.4604 0.4864
2324.418 0.5631 0.5867 0.571 0.5047 0.5061 0.5301 0.4769 0.4157 0.4591 0.4807
2343.708 0.4642 0.4938 0.4793 0.5499 0.616 0.5135 0.4201 0.4203 0.4516 0.5112
2362.998 0.5494 0.5393 0.4831 0.4494 0.5187 0.5581 0.5812 0.5652 0.5074 0.5191
2382.288 0.5558 0.5473 0.5465 0.5355 0.6247 0.6576 0.5382 0.4978 0.513 0.5229
2401.578 0.5893 0.6036 0.5373 0.5248 0.5225 0.5146 0.5191 0.5447 0.562 0.5882
2420.867 0.5899 0.5543 0.5389 0.5944 0.6115 0.5918 0.6011 0.5928 0.5791 0.4991
2440.157 0.488 0.5259 0.5241 0.5304 0.545 0.5779 0.494 0.4337 0.439 0.424
2459.447 0.4967 0.499 0.4276 0.418 0.40642 0.4192 0.4343 0.4238 0.4137 0.4179
2478.737 0.416 0.4612 0.4987 0.5269 0.6153 0.5822 0.5885 0.6106 0.5727 0.4751
2498.026 0.448 0.4902 0.4828 0.561 0.5734 0.5928 0.6428 0.6549 0.679 0.7582
2517.316 0.8077 0.7522 0.6739 0.6612 0.6708 0.7004 0.7387 0.689 0.6571 0.6785
2536.606 0.6896 0.6985 0.7049 0.704 0.6772 0.6828 0.7432 0.7234 0.6649 0.68
2555.896 0.7237 0.7806 0.7466 0.6808 0.6917 0.6911 0.7433 0.7358 0.6907 0.7524
2575.186 0.7642 0.764 0.7266 0.7341 0.7231 0.699 0.7454 0.7537 0.715 0.7724
2594.475 0.7832 0.7022 0.7525 0.7429 0.69 0.7379 0.8413 0.8896 0.8724 0.8798
2613.765 0.8549 0.7756 0.7583 0.7263 0.7793 0.9197 0.9075 0.8268 0.8257 0.8525
2633.055 0.8285 0.7313 0.7047 0.8032 0.7956 0.809 0.8988 0.9193 0.8744 0.839
2652.345 0.8832 0.9853 1.0382 0.9704 0.9202 0.9352 1.0151 1.0165 0.9839 0.9779
2671.634 0.9602 0.977 0.981 0.8933 0.8519 0.8575 0.8672 0.8612 0.7674 0.8323
2690.924 0.925 0.9853 0.9954 0.9691 0.9488 0.9107 0.8937 0.8003 0.7971 0.8785
2710.214 0.8598 0.8891 0.9335 0.8872 0.886 0.8842 0.8792 0.8987 0.8871 0.8397
2729.504 0.8238 0.8761 0.9779 1.0209 0.9461 0.8706 0.9111 0.9685 1.0464 1.0559
2748.794 1.0154 0.981 1.071 1.1618 1.1072 1.1311 1.1371 1.1721 1.2116 1.1627
2768.083 1.1334 1.1905 1.2709 1.2892 1.337 1.377 1.357 1.377 1.417 1.447
2787.373 1.457 1.477 1.617 1.757 1.697 1.707 1.807 1.877 1.907 1.907
2806.663 1.997 2.107 2.167 2.277 2.307 2.337 2.447 2.577 2.727 2.867
2825.953 2.967 3.137 3.327 3.507 3.787 4.087 4.437 4.787 5.187 5.657
2845.242 6.257 6.977 7.787 8.827 10.067 11.467 12.927 14.357 15.807 17.127
2864.532 18.207 18.997 19.327 19.317 19.097 18.617 18.147 17.767 17.417 17.017
2883.822 16.577 16.087 15.407 14.727 14.157 13.717 13.377 13.327 13.577 13.957
2903.112 14.487 15.187 15.997 17.077 18.427 19.897 21.487 23.267 25.527 28.287
2922.401 31.267 34.307 37.707 41.427 44.727 47.437 49.747 51.147 51.437 50.697
2941.691 48.817 46.097 42.817 39.237 35.737 32.727 30.427 28.897 28.147 28.017
2960.981 28.477 29.417 30.347 30.967 30.957 29.937 28.187 25.807 22.907 19.927
2980.271 17.187 14.917 13.187 11.737 10.597 9.737 9.037 8.497 8.067 7.837
2999.561 7.787 7.787 7.857 7.897 7.977 8.047 8.107 8.137 8.187 8.197
3018.850 8.007 7.837 7.927 8.227 8.547 8.967 9.367 9.587 9.627 9.287
3038.140 8.727 8.157 7.437 6.887 6.497 6.207 5.927 5.647 5.417 5.277
3057.430 5.167 4.957 4.837 4.827 4.857 4.767 4.797 4.777 4.677 4.767
3076.720 4.867 4.957 5.057 5.067 5.057 5.097 5.047 4.817 4.607 4.317
3096.009 4.017 3.697 3.327 3.037 2.867 2.737 2.447 2.347 2.367 2.347
3115.299 2.247 2.097 2.057 2.027 1.887 1.707 1.607 1.587 1.557 1.397
3134.589 1.367 1.407 1.387 1.347 1.2159 1.2025 1.136 1.0914 1.1241 1.0383
3153.879 0.9565 0.8134 0.8073 0.9084 0.8025 0.7097 0.7903 0.8793 0.7534 0.6071
3173.169 0.5369 0.6626 0.7598 0.6189 0.6539 0.6889 0.5692 0.6418 0.6869 0.6402
3192.458 0.611 0.6594 0.752 0.71 0.6346 0.5228 0.576 0.7553 0.7652 0.6094
3211.748 0.5441 0.5412 0.5587 0.6355 0.5864 0.5813 0.6579 0.6244 0.5538 0.6075
3231.038 0.5814 0.4674 0.4868 0.5435 0.4892 0.36198 0.39196 0.4924 0.4171 0.31974
3250.328 0.4478 0.4862 0.37911 0.416 0.3924 0.4375 0.4838 0.4678 0.4683 0.37606
3269.617 0.36585 0.34653 0.35236 0.4345 0.39941 0.4275 0.33138 0.2286 0.4254 0.4279
3288.907 0.4079 0.5092 0.5208 0.4583 0.32858 0.308511 0.37254 0.4738 0.575 0.5763
3308.197 0.5568 0.4444 0.2803 0.306032 0.38681 0.4428 0.4126 0.315437 0.4167 0.5155
3327.487 0.4301 0.4417 0.5384 0.4998 0.5309 0.5593 0.4678 0.552 0.5596 0.4892
3346.777 0.4154 0.37238 0.4746 0.5213 0.5698 0.6056 0.5571 0.4356 0.5033 0.6376
3366.066 0.6187 0.7223 0.8041 0.8793 1.0856 1.1508 1.2402 1.327 1.407 1.577
3385.356 1.697 1.697 1.517 1.279 1.1008 1.0049 0.8554 0.8235 0.8368 0.8002
3404.646 0.779 0.6215 0.5754 0.5972 0.5252 0.33033 0.2755 0.4628 0.5293 0.4879
3423.936 0.40699 0.34068 0.35158 0.4019 0.39179 0.34674 0.32182 0.31902 0.33022 0.3799
3443.225 0.4364 0.35461 0.31705 0.312905 0.2396 0.36634 0.4581 0.4236 0.30536 0.2372
3462.515 0.38459 0.4582 0.4386 0.38839 0.2766 0.2355 0.310111 0.4481 0.4687 0.2493
3481.805 0.184 0.206 0.127 0.19 0.2211 0.2128 0.2702 0.37123 0.40388 0.2848
3501.095 0.30048 0.307803 0.2233 0.251 0.34571 0.4581 0.5656 0.4116 0.2482 0.2439
3520.385 0.152 0.155 0.177 0.18 0.34071 0.4383 0.4236 0.38706 0.34151 0.2867
3539.674 0.32527 0.39439 0.4629 0.4942 0.37015 0.35018 0.4437 0.4676 0.5161 0.6386
3558.964 0.4352 0.2535 0.2696 0.30499 0.40615 0.36285 0.34372 0.4685 0.4791 0.34334
3578.254 0.2762 0.2117 0.2466 0.4401 0.39756 0.2526 0.202 0.2114 0.164 0.138
3597.544 0.192 0.203 0.2521 0.31583 0.3647 0.309548 0.2825 0.2644 0.2203 0.2086
3616.833 0.2859 0.35057 0.35702 0.4379 0.4455 0.4452 0.32975 0.35484 0.39189 0.3314
3636.123 0.314175 0.175 0.309812 0.5215 0.4157 0.269 0.33574 0.4134 0.4196 0.34251
3655.413 0.2806 0.36396 0.4628 0.4247 0.32514 0.314534 0.38392 0.31814 0.4123 0.5787
3674.703 0.337 0.19 0.2575 0.33792 0.37807 0.4257 0.5907 0.5834 0.5272 0.513
3693.993 0.36424 0.2729 0.316969 0.38938 0.4739 0.5225 0.4794 0.4636 0.36498 0.32486
3713.282 0.4622 0.4612 0.34154 0.2384 0.2745 0.315707 0.34616 0.464 0.5388 0.34693
3732.572 0.146 0.193 0.2898 0.36771 0.32863 0.2311 0.176 0.2152 0.153 0
3751.862 0.059 0.35874 0.485 0.426 0.4317 0.4725 0.5368 0.4341 0.2588 0.163
3771.152 0.158 0.2725 0.2813 0.2913 0.31923 0.33769 0.36936 0.37848 0.4266 0.4655
3790.441 0.4085 0.2648 0.2209 0.195 0.174 0.2941 0.311861 0.2793 0.33856 0.31994
3809.731 0.165 0.1 0.2478 0.311355 0.29808 0.2182 0.2204 0.31926 0.35508 0.33176
3829.021 0.2743 0.2879 0.40692 0.4558 0.33485 0.33758 0.32571 0.2517 0.315536 0.4108
3848.311 0.40418 0.35296 0.4245 0.34515 0.36649 0.36002 0.2536 0.433 0.6214 0.5454
3867.601 0.4896 0.5333 0.39959 0.34814 0.4869 0.5038 0.4147 0.4096 0.4396 0.4702
3886.890 0.4392 0.5038 0.4399 0.31876 0.4374 0.4439 0.4243 0.4469 0.34332 0.294
3906.180 0.32389 0.2754 0.2806 0.35989 0.39029 0.4262 0.4209 0.4883 0.5038 0.312337
3925.470 0.34607 0.5466 0.6364 0.4503 0.2104 0.2794 0.4194 0.4232 0.33603 0.40267
3944.760 0.4814 0.35262 0.2617 0.173 0.2089 0.356 0.311261 0.2657 0.198 0.189
3964.049 0.35816 0.5097 0.5649 0.5725 0.5451 0.511 0.36176 0.32451 0.4106 0.2746
3983.339 0.32247 0.5302 0.4508 0.39435 0.5705 0.5223 0.2691 0.4715 0.5827 0.34456
##END=
