##TITLE=(4,4'-Diheptyl)azoxybenzene
##JCAMP-DX=4.24
##DATA TYPE=INFRARED SPECTRUM
##ORIGIN=EPA-IR VAPOR PHASE LIBRARY
##OWNER=SRD/NIST
Collection (C) 2018 copyright by the U.S. Secretary of Commerce
on behalf of the United States of America. All rights reserved.
##CAS REGISTRY NO=37592-89-5
##MOLFORM=C 26 H 38 N 2 O
##$NIST SOURCE=MSDC-IR
##STATE=gas
##XUNITS=1/CM
##YUNITS=ABSORBANCE
##XFACTOR=1.
##YFACTOR=0.001
##DELTAX=1.92898
##FIRSTX=549.8
##LASTX=4000.7
##FIRSTY=0.5041
##MAXX=4000.7
##MINX=549.759
##MAXY=0.018342
##MINY=0
##NPOINTS=1790
##XYDATA=(X++(Y..Y))
549.759 0.5041 0.4261 0.4743 0.5859 0.6567 0.4863 0.38292 0.5516 0.6253 0.6315
569.049 0.5121 0.35273 0.461 0.6001 0.4541 0.40409 0.4391 0.40906 0.35417 0.2792
588.339 0.2949 0.329855 0.195 0.142 0.12 0.081 0.3736 0.4391 0.2403 0.3094
607.628 0.36046 0.36948 0.4567 0.4544 0.2874 0.2319 0.3083 0.32044 0.2302 0.2584
626.918 0.38986 0.4257 0.39933 0.2396 0.158 0.155 0.122 0.204 0.2393 0.192
646.208 0.193 0.2775 0.41769 0.34645 0.2446 0.2621 0.341 0.38179 0.2756 0.2545
665.498 0.2839 0.2239 0.302 0.4436 0.41236 0.41261 0.4884 0.4822 0.5016 0.4619
684.787 0.321976 0.3036 0.37333 0.3428 0.302 0.326856 0.32833 0.34809 0.36761 0.35648
704.077 0.4267 0.4999 0.462 0.4334 0.4968 0.5788 0.6006 0.5532 0.4472 0.4814
723.367 0.5675 0.5367 0.5279 0.5326 0.573 0.519 0.43 0.4525 0.4397 0.4622
742.657 0.5241 0.5111 0.4237 0.4259 0.41859 0.321352 0.31551 0.40544 0.4784 0.5087
761.947 0.5106 0.5042 0.5474 0.5945 0.5362 0.4839 0.5362 0.5707 0.6497 0.6591
781.236 0.5892 0.6033 0.6887 0.7889 0.795 0.7545 0.8098 0.854 0.9151 0.9977
800.526 0.9849 1.0035 1.0593 1.0767 1.1039 1.1911 1.352 1.432 1.372 1.442
819.816 1.532 1.612 1.662 1.682 1.822 1.902 1.882 1.882 1.852 1.822
839.106 1.742 1.672 1.732 1.712 1.582 1.442 1.392 1.2812 1.1326 1.0686
858.395 0.955 0.898 0.8612 0.7755 0.7441 0.7294 0.6522 0.6261 0.6791 0.6789
877.685 0.6233 0.6421 0.6806 0.5492 0.5031 0.498 0.459 0.5602 0.6136 0.6049
896.975 0.6096 0.6027 0.5862 0.7119 0.8703 0.9707 1.0567 1.2189 1.362 1.422
916.265 1.462 1.412 1.352 1.1155 0.925 0.9251 0.8287 0.712 0.6407 0.5532
935.555 0.5536 0.5327 0.4388 0.41585 0.36347 0.3111 0.3745 0.4546 0.454 0.4323
954.844 0.39336 0.34517 0.3398 0.37566 0.38422 0.40489 0.3997 0.37221 0.3816 0.37715
974.134 0.39736 0.34418 0.2781 0.2624 0.31463 0.35803 0.2976 0.279 0.32099 0.4234
993.424 0.4345 0.4412 0.4287 0.39475 0.4595 0.4909 0.5597 0.6516 0.876 1.1084
1012.714 1.592 2.352 2.582 2.042 1.3148 0.9275 0.7541 0.6091 0.5631 0.4477
1032.003 0.3047 0.3074 0.37287 0.39675 0.40155 0.2961 0.185 0.2665 0.2876 0.3575
1051.293 0.5294 0.4806 0.37393 0.3115 0.31231 0.4561 0.5192 0.41916 0.2746 0.2375
1070.583 0.3047 0.322904 0.3041 0.4929 0.5112 0.34292 0.41086 0.4448 0.4861 0.647
1089.873 0.776 0.8467 0.9271 0.707 0.8266 1.0133 0.7999 0.8097 0.9093 0.9203
1109.163 0.9278 0.8399 0.6172 0.5989 0.7851 0.7256 0.5399 0.5572 0.6461 0.4507
1128.452 0.2871 0.4273 0.33806 0.41125 0.5664 0.4776 0.4269 0.488 0.31612 0.215
1147.742 0.4582 0.5434 0.41018 0.3086 0.5167 0.7139 0.8132 1.0129 1.1998 1.582
1167.032 1.842 1.762 1.392 1.0337 0.7433 0.4261 0.466 0.5325 0.3533 0.3075
1186.322 0.39608 0.34395 0.37191 0.2904 0.182 0.213 0.198 0.2591 0.5097 0.5344
1205.611 0.2825 0.2997 0.36855 0.19 0.21 0.331362 0.2651 0.172 0.34556 0.675
1224.901 0.6557 0.6737 0.7074 0.6671 0.7155 0.6691 0.7834 0.7852 0.5172 0.4324
1244.191 0.5609 0.539 0.5007 0.5071 0.4762 0.4735 0.5077 0.5626 0.536 0.5754
1263.481 0.5423 0.532 0.6497 0.7287 0.7349 0.7219 0.8006 0.9158 0.9661 0.9998
1282.771 1.0486 1.0275 1.0833 1.1447 1.1411 1.2431 1.352 1.382 1.472 1.482
1302.060 1.422 1.432 1.432 1.412 1.382 1.342 1.3116 1.332 1.382 1.442
1321.350 1.502 1.582 1.642 1.692 1.702 1.632 1.532 1.472 1.422 1.352
1340.640 1.342 1.342 1.332 1.332 1.2978 1.2854 1.2782 1.2556 1.2175 1.1892
1359.930 1.1422 1.0853 1.0602 1.0344 0.9999 0.9585 0.9293 0.9107 0.8948 0.8926
1379.219 0.9122 0.9585 1.001 0.9869 0.955 0.9063 0.8626 0.8552 0.8814 0.9425
1398.509 0.9878 1.0393 1.1504 1.2837 1.422 1.522 1.582 1.592 1.542 1.472
1417.799 1.382 1.2905 1.2428 1.1976 1.158 1.2048 1.2915 1.352 1.422 1.512
1437.089 1.672 1.902 2.162 2.442 2.722 3.072 3.472 3.922 4.402 4.942
1456.378 5.622 6.392 7.132 7.802 8.252 8.342 8.022 7.312 6.452 5.542
1475.668 4.772 4.172 3.662 3.312 3.092 3.022 3.092 3.232 3.562 4.022
1494.958 4.632 5.342 5.922 6.032 5.502 4.542 3.512 2.702 2.142 1.802
1514.248 1.512 1.2632 1.1416 1.0283 0.9157 0.8318 0.7627 0.7 0.6365 0.6121
1533.538 0.6083 0.6023 0.548 0.4923 0.4963 0.5138 0.4887 0.4343 0.4416 0.4723
1552.827 0.4389 0.4371 0.443 0.4406 0.5047 0.4864 0.4513 0.4873 0.4857 0.4407
1572.117 0.4418 0.437 0.425 0.4631 0.4839 0.515 0.5475 0.5993 0.6632 0.7095
1591.407 0.7984 0.8658 0.9353 1.0475 1.1485 1.2636 1.3033 1.2144 1.0669 0.9069
1610.697 0.7705 0.651 0.5645 0.5236 0.4866 0.431 0.38793 0.38626 0.3846 0.37757
1629.986 0.39194 0.39594 0.38836 0.34279 0.3018 0.3137 0.34457 0.33941 0.33523 0.34351
1649.276 0.321013 0.322028 0.33873 0.2857 0.2544 0.2964 0.3186 0.2908 0.3085 0.321464
1668.566 0.2586 0.2552 0.2915 0.2788 0.2945 0.291 0.2713 0.2794 0.2439 0.202
1687.856 0.204 0.2506 0.257 0.218 0.198 0.19 0.153 0.162 0.206 0.2294
1707.146 0.22 0.205 0.169 0.162 0.182 0.189 0.175 0.168 0.201 0.207
1726.435 0.217 0.2307 0.2425 0.217 0.205 0.2433 0.2385 0.201 0.208 0.2345
1745.725 0.22 0.204 0.219 0.205 0.204 0.2546 0.2741 0.254 0.2234 0.2259
1765.015 0.2372 0.2382 0.263 0.3017 0.33307 0.34801 0.36392 0.40286 0.41001 0.37396
1784.305 0.35605 0.33843 0.31712 0.277 0.2516 0.2426 0.203 0.172 0.185 0.196
1803.594 0.196 0.21 0.208 0.19 0.167 0.182 0.201 0.193 0.193 0.172
1822.884 0.171 0.178 0.185 0.189 0.181 0.174 0.177 0.189 0.189 0.207
1842.174 0.204 0.17 0.169 0.166 0.155 0.191 0.2247 0.2224 0.207 0.176
1861.464 0.161 0.178 0.164 0.17 0.197 0.187 0.172 0.18 0.169 0.158
1880.754 0.205 0.221 0.214 0.2425 0.2621 0.252 0.2613 0.259 0.2502 0.2653
1900.043 0.2956 0.33193 0.37638 0.41144 0.38735 0.377 0.37281 0.34555 0.32029 0.3018
1919.333 0.2874 0.2648 0.2327 0.216 0.2247 0.213 0.202 0.196 0.193 0.183
1938.623 0.148 0.16 0.17 0.149 0.167 0.175 0.134 0.125 0.148 0.149
1957.913 0.163 0.189 0.208 0.195 0.17 0.177 0.182 0.172 0.162 0.161
1977.202 0.184 0.176 0.183 0.212 0.179 0.162 0.167 0.164 0.17 0.171
1996.492 0.167 0.188 0.178 0.19 0.198 0.155 0.173 0.181 0.179 0.172
2015.782 0.167 0.186 0.192 0.197 0.186 0.193 0.2 0.191 0.183 0.19
2035.072 0.208 0.212 0.212 0.192 0.218 0.2431 0.203 0.2 0.219 0.21
2054.362 0.191 0.193 0.189 0.196 0.191 0.182 0.214 0.201 0.171 0.17
2073.651 0.183 0.202 0.177 0.155 0.161 0.181 0.181 0.166 0.189 0.22
2092.941 0.214 0.203 0.205 0.207 0.22 0.207 0.192 0.184 0.175 0.182
2112.231 0.158 0.171 0.201 0.209 0.213 0.216 0.222 0.199 0.183 0.172
2131.521 0.174 0.194 0.2 0.188 0.19 0.168 0.167 0.193 0.189 0.173
2150.810 0.173 0.199 0.184 0.159 0.158 0.17 0.213 0.214 0.177 0.168
2170.100 0.175 0.183 0.163 0.137 0.16 0.205 0.185 0.148 0.18 0.195
2189.390 0.198 0.203 0.188 0.171 0.171 0.199 0.19 0.198 0.186 0.133
2208.680 0.149 0.173 0.151 0.145 0.175 0.173 0.142 0.147 0.179 0.197
2227.970 0.204 0.195 0.164 0.151 0.197 0.2246 0.198 0.168 0.154 0.182
2247.259 0.187 0.188 0.181 0.169 0.194 0.205 0.21 0.204 0.219 0.222
2266.549 0.196 0.171 0.163 0.2 0.2 0.182 0.21 0.215 0.216 0.2311
2285.839 0.21 0.195 0.175 0.166 0.181 0.157 0.164 0.2 0.197 0.196
2305.129 0.188 0.175 0.19 0.209 0.2459 0.2636 0.217 0.171 0.159 0.178
2324.418 0.2227 0.2494 0.2528 0.2382 0.203 0.213 0.236 0.202 0.168 0.206
2343.708 0.2284 0.205 0.207 0.202 0.175 0.196 0.2349 0.2464 0.2488 0.213
2362.998 0.208 0.2348 0.21 0.195 0.207 0.213 0.22 0.204 0.217 0.2521
2382.288 0.2501 0.2304 0.215 0.208 0.2505 0.2445 0.185 0.21 0.213 0.219
2401.578 0.22 0.2344 0.2634 0.2475 0.2299 0.207 0.2316 0.213 0.187 0.18
2420.867 0.191 0.209 0.199 0.183 0.186 0.203 0.207 0.191 0.217 0.216
2440.157 0.168 0.183 0.181 0.184 0.205 0.222 0.2307 0.203 0.176 0.165
2459.447 0.167 0.216 0.2512 0.217 0.211 0.2 0.195 0.2284 0.2398 0.2544
2478.737 0.2339 0.216 0.196 0.182 0.184 0.148 0.164 0.198 0.2273 0.208
2498.026 0.203 0.2262 0.195 0.197 0.205 0.203 0.187 0.196 0.2237 0.2311
2517.316 0.2356 0.2644 0.2525 0.206 0.2306 0.2624 0.2488 0.2271 0.2406 0.2359
2536.606 0.207 0.214 0.2268 0.2317 0.2267 0.2406 0.2396 0.2282 0.2626 0.2937
2555.896 0.2716 0.2479 0.2845 0.2722 0.227 0.2554 0.3 0.32445 0.325108 0.31305
2575.186 0.3037 0.2874 0.254 0.2344 0.2502 0.2665 0.2811 0.3022 0.3088 0.324807
2594.475 0.323216 0.2952 0.2699 0.2697 0.2784 0.2617 0.2502 0.2341 0.229 0.2841
2613.765 0.2933 0.2358 0.2385 0.31501 0.3179 0.2743 0.2889 0.2832 0.2429 0.2387
2633.055 0.2966 0.31578 0.3191 0.3059 0.3119 0.321428 0.2934 0.31362 0.329154 0.3049
2652.345 0.2977 0.3506 0.41204 0.39564 0.36121 0.330093 0.31211 0.34654 0.37793 0.34013
2671.634 0.31608 0.37726 0.41702 0.40991 0.35523 0.33716 0.36066 0.36619 0.35627 0.37009
2690.924 0.37734 0.3805 0.39857 0.38941 0.39067 0.34434 0.35255 0.39704 0.4368 0.42047
2710.214 0.36033 0.34802 0.37037 0.37786 0.35319 0.42055 0.4531 0.39611 0.3846 0.4319
2729.504 0.4587 0.41838 0.41418 0.462 0.4548 0.46 0.4618 0.4312 0.4409 0.4658
2748.794 0.4679 0.4323 0.42071 0.4373 0.4676 0.4936 0.4763 0.4495 0.4287 0.4627
2768.083 0.539 0.5226 0.4674 0.4954 0.4945 0.5004 0.5507 0.5501 0.5567 0.5527
2787.373 0.5403 0.5432 0.5515 0.5785 0.6128 0.6551 0.6579 0.6461 0.6717 0.6646
2806.663 0.6372 0.664 0.6994 0.7458 0.7736 0.8664 0.9325 0.916 0.9482 0.9979
2825.953 1.0247 1.05 1.1251 1.1748 1.2349 1.332 1.462 1.572 1.702 1.882
2845.242 2.072 2.332 2.672 3.132 3.642 4.232 4.922 5.622 6.232 6.622
2864.532 6.812 6.822 6.682 6.352 5.912 5.532 5.222 4.992 4.802 4.662
2883.822 4.562 4.472 4.302 4.142 4.042 4.012 4.052 4.202 4.362 4.572
2903.112 4.832 5.132 5.532 5.992 6.472 7.032 7.672 8.342 9.162 10.152
2922.401 11.242 12.432 13.802 15.292 16.632 17.712 18.312 18.342 17.882 17.022
2941.691 15.832 14.382 12.802 11.282 9.982 8.912 8.092 7.562 7.262 7.142
2960.981 7.202 7.302 7.342 7.332 7.202 6.852 6.222 5.482 4.752 4.152
2980.271 3.652 3.192 2.812 2.462 2.262 2.092 1.952 1.842 1.772 1.682
2999.561 1.542 1.442 1.382 1.332 1.3045 1.332 1.3008 1.2725 1.2951 1.2619
3018.850 1.2402 1.342 1.502 1.672 1.772 1.862 2.012 2.022 1.892 1.832
3038.140 1.822 1.722 1.622 1.542 1.492 1.462 1.412 1.372 1.2467 1.1643
3057.430 1.1215 1.0548 0.9742 0.9537 1.0085 1.0303 1.0056 1.0015 0.9801 0.9664
3076.720 0.9758 0.961 0.9449 0.9343 0.9004 0.8817 0.7802 0.6399 0.6682 0.6588
3096.009 0.6077 0.6256 0.5877 0.6098 0.6333 0.5801 0.5286 0.4901 0.4557 0.396
3115.299 0.37131 0.35269 0.331639 0.35535 0.36809 0.33358 0.2992 0.2672 0.219 0.2242
3134.589 0.3041 0.2801 0.207 0.2456 0.2557 0.233 0.184 0.147 0.179 0.196
3153.879 0.189 0.22 0.2794 0.2709 0.327187 0.34193 0.2743 0.207 0.153 0.195
3173.169 0.2319 0.189 0.168 0.206 0.169 0.105 0.124 0.19 0.191 0.131
3192.458 0.14 0.2 0.2312 0.19 0.172 0.2221 0.255 0.2507 0.2284 0.193
3211.748 0.166 0.109 0.071 0.096 0.14 0.187 0.179 0.154 0.123 0.168
3231.038 0.171 0.104 0.096 0.085 0.096 0.15 0.188 0.2289 0.2489 0.222
3250.328 0.131 0.055 0.086 0.114 0.166 0.169 0.131 0.104 0.114 0.113
3269.617 0.085 0.134 0.141 0.132 0.141 0.156 0.13 0.066 0.052 0.043
3288.907 0.118 0.209 0.178 0.143 0.144 0.069 0.04 0.108 0.08 0.06
3308.197 0.143 0.164 0.142 0.139 0.143 0.154 0.172 0.177 0.194 0.188
3327.487 0.132 0.124 0.172 0.2491 0.195 0.188 0.2606 0.2416 0.199 0.176
3346.777 0.227 0.178 0.116 0.173 0.192 0.152 0.116 0.164 0.107 0.078
3366.066 0.108 0.075 0.102 0.147 0.09 0.01 0 0.025 0.097 0.154
3385.356 0.156 0.149 0.189 0.132 0.113 0.14 0.138 0.153 0.126 0.078
3404.646 0.136 0.168 0.122 0.175 0.154 0.107 0.096 0.11 0.144 0.169
3423.936 0.17 0.131 0.134 0.145 0.102 0.022 0.098 0.167 0.14 0.121
3443.225 0.114 0.204 0.195 0.177 0.209 0.146 0.087 0.125 0.124 0.158
3462.515 0.192 0.146 0.209 0.2301 0.209 0.204 0.181 0.16 0.194 0.221
3481.805 0.134 0.084 0.151 0.142 0.152 0.185 0.148 0.177 0.185 0.167
3501.095 0.196 0.156 0.086 0.098 0.057 0.112 0.17 0.148 0.169 0.16
3520.385 0.08 0.04 0.155 0.161 0.082 0.088 0.105 0.164 0.2249 0.199
3539.674 0.129 0.054 0.058 0.105 0.13 0.183 0.179 0.141 0.137 0.166
3558.964 0.184 0.171 0.168 0.181 0.178 0.141 0.135 0.155 0.151 0.152
3578.254 0.115 0.098 0.134 0.114 0.094 0.145 0.181 0.172 0.142 0.146
3597.544 0.164 0.067 0.031 0.064 0.161 0.212 0.134 0.113 0.133 0.103
3616.833 0.105 0.218 0.2476 0.114 0.112 0.2314 0.2345 0.157 0.08 0.056
3636.123 0.101 0.099 0.078 0.136 0.153 0.153 0.2383 0.2782 0.163 0.079
3655.413 0.143 0.2362 0.207 0.163 0.219 0.216 0.161 0.206 0.218 0.132
3674.703 0.127 0.134 0.095 0.138 0.204 0.21 0.2649 0.2237 0.135 0.147
3693.993 0.139 0.144 0.14 0.106 0.174 0.232 0.213 0.163 0.128 0.181
3713.282 0.178 0.158 0.134 0.149 0.206 0.227 0.221 0.149 0.139 0.198
3732.572 0.213 0.128 0.18 0.2365 0.125 0.141 0.158 0.144 0.176 0.178
3751.862 0.157 0.141 0.163 0.124 0.097 0.148 0.144 0.19 0.2344 0.191
3771.152 0.165 0.157 0.104 0.132 0.172 0.151 0.191 0.2612 0.2511 0.194
3790.441 0.215 0.173 0.146 0.135 0.142 0.145 0.049 0.085 0.2 0.138
3809.731 0.058 0.135 0.235 0.18 0.084 0.038 0.008 0.042 0.107 0.2491
3829.021 0.2681 0.155 0.141 0.163 0.189 0.152 0.121 0.199 0.183 0.136
3848.311 0.136 0.128 0.022 0.015 0.093 0.121 0.111 0.031 0.097 0.163
3867.601 0.173 0.191 0.136 0.144 0.19 0.131 0.115 0.091 0.108 0.117
3886.890 0.009 0.045 0.163 0.203 0.15 0.15 0.156 0.076 0.099 0.166
3906.180 0.118 0.101 0.088 0.075 0.116 0.131 0.143 0.143 0.149 0.154
3925.470 0.132 0.125 0.128 0.131 0.138 0.081 0.102 0.155 0.169 0.2415
3944.760 0.195 0.114 0.137 0.153 0.151 0.169 0.151 0.167 0.219 0.2731
3964.049 0.31926 0.2281 0.191 0.222 0.168 0.116 0.121 0.14 0.145 0.189
3983.339 0.2983 0.31791 0.184 0.13 0.109 0.035 0.047 0.072 0.15 0.16
##END=
