##TITLE=p-Butoxybenzylidene p-propylaniline
##JCAMP-DX=4.24
##DATA TYPE=INFRARED SPECTRUM
##ORIGIN=EPA-IR VAPOR PHASE LIBRARY
##OWNER=SRD/NIST
Collection (C) 2018 copyright by the U.S. Secretary of Commerce
on behalf of the United States of America. All rights reserved.
##CAS REGISTRY NO=37599-83-0
##MOLFORM=C 20 H 25 N O
##$NIST SOURCE=MSDC-IR
##STATE=gas
##XUNITS=1/CM
##YUNITS=ABSORBANCE
##XFACTOR=1.
##YFACTOR=0.001
##DELTAX=1.92898
##FIRSTX=549.8
##LASTX=4000.7
##FIRSTY=15.1746
##MAXX=4000.7
##MINX=549.759
##MAXY=0.211285
##MINY=0
##NPOINTS=1790
##XYDATA=(X++(Y..Y))
549.759 15.1746 15.5046 15.3846 15.1146 14.6446 13.9746 13.2946 12.2846 10.8646 9.4346
569.049 8.4546 7.7046 6.9146 6.3546 5.6546 5.1846 4.9346 4.4346 4.3746 4.6046
588.339 4.7646 4.8246 4.9246 5.1146 5.2946 5.5046 5.8446 6.4446 6.9446 7.5446
607.628 7.9046 7.8746 8.0646 8.2846 7.9646 7.4546 7.0846 6.4246 5.8346 5.3146
626.918 4.7746 4.4046 4.1746 4.0346 4.0546 4.1446 3.9546 3.5046 3.1846 2.7446
646.208 2.2946 2.0946 1.8446 1.6846 1.7946 1.7746 1.3846 1.3246 1.3946 1.3546
665.498 1.3946 1.4246 1.3746 1.3846 1.5746 1.6446 1.4946 1.4146 1.4346 1.5446
684.787 1.5146 1.5546 1.6946 1.5546 1.5846 1.7746 1.9546 2.1046 2.1646 2.2946
704.077 2.5146 2.7646 3.0546 3.4546 3.9946 4.3946 4.5546 4.8146 4.9846 5.0046
723.367 4.7746 4.4146 4.2946 4.1346 3.9246 3.8446 3.8446 3.7646 3.6646 3.7446
742.657 3.8146 3.8546 3.9746 4.2146 4.3446 4.2146 4.1246 4.3546 4.5946 4.7446
761.947 4.7146 4.8846 5.1546 5.2446 5.5246 5.7546 5.9246 6.0446 6.3446 6.6846
781.236 6.9146 7.4146 7.9146 8.3846 9.0546 9.7446 10.6746 11.6846 12.8946 14.2246
800.526 15.3246 16.2146 16.8346 17.5746 18.1946 18.7646 19.7846 21.0046 22.2946 23.6746
819.816 25.1646 27.4446 30.0546 32.7046 35.2446 37.3346 39.1446 40.1746 40.4946 39.7946
839.106 38.1346 36.2046 33.7046 30.8246 28.0646 25.3646 22.8846 20.9346 19.1946 17.8146
858.395 16.9646 16.1946 15.6646 15.7146 15.9146 15.8946 16.3546 17.3846 18.6646 20.3346
877.685 22.5946 25.3646 28.4746 31.3246 33.3646 33.8646 32.0946 28.5746 24.2746 20.1246
896.975 16.7946 14.2646 12.3346 10.8646 9.6746 8.6546 7.7746 7.0546 6.5246 6.0146
916.265 5.6146 5.5046 5.4846 5.4246 5.3246 5.2746 5.3446 5.5546 5.7946 5.9146
935.555 6.1646 6.3446 6.5446 6.8646 7.2446 7.6746 8.1546 8.6646 9.2346 10.0046
954.844 10.8946 11.8546 12.7046 13.3746 14.3746 15.5146 16.5546 17.7146 18.7646 19.5246
974.134 19.6146 18.9346 17.9546 16.7446 15.6146 14.6446 13.8546 13.6146 13.6746 13.6746
993.424 13.7146 14.2246 14.9046 15.8646 17.5546 19.6846 22.3746 25.6546 28.9046 32.0946
1012.714 35.3246 37.6146 37.6346 35.8846 33.9946 33.4946 33.6746 33.2446 32.4246 31.3546
1032.003 30.1846 28.5446 26.7446 24.7246 22.5246 20.4546 18.5246 17.0046 15.7846 15.1546
1051.293 15.0646 15.3046 16.1246 17.5446 19.0946 20.3846 21.5246 22.6146 23.2546 23.1046
1070.583 22.2746 21.3146 20.2546 18.6446 17.0446 15.8946 14.9646 13.9346 13.3246 13.4346
1089.873 13.3246 13.4646 14.3646 15.2046 15.9446 17.0446 18.0146 18.8246 19.7246 19.6946
1109.163 19.1646 18.5046 17.7446 17.3246 16.7646 15.8846 14.9846 14.4346 13.8346 13.4046
1128.452 13.2746 13.3646 13.3246 13.3846 13.6746 14.2946 15.6746 16.9446 18.5246 20.6946
1147.742 23.7346 28.2146 34.8746 45.4246 62.7846 91.5746 134.015 181.035 211.285 206.765
1167.032 170.285 123.175 84.0146 58.0446 42.5946 33.7746 28.9546 27.1946 27.6646 30.2646
1186.322 35.0246 40.9046 46.2046 49.1246 49.2946 47.7046 46.5046 46.6946 46.9446 47.3646
1205.611 48.7646 51.8146 56.7846 62.9546 69.2746 74.6246 79.4846 84.8846 90.3746 95.2046
1224.901 99.4646 103.895 109.155 116.165 124.985 134.865 145.965 157.415 167.665 176.525
1244.191 182.825 184.755 181.515 172.925 160.105 144.855 128.405 111.915 96.7846 83.7546
1263.481 72.9646 64.0746 57.2246 52.0746 47.9146 44.9246 42.8446 41.5446 41.0646 41.3846
1282.771 42.2946 43.4946 45.0146 46.6246 48.0246 49.2246 50.6646 53.0746 56.6246 60.2546
1302.060 62.1146 60.9346 57.1046 51.7746 45.9646 40.3046 35.0746 30.6446 27.1346 24.3746
1321.350 22.2646 20.7346 19.6046 18.7046 18.1046 17.7446 17.6046 17.7146 17.9846 18.2646
1340.640 18.2746 17.6946 16.6046 15.3246 14.2246 13.3746 12.8046 12.5146 12.3946 12.4046
1359.930 12.4746 12.6146 12.8746 13.1446 13.4546 13.8146 14.1746 14.6346 15.3146 16.3746
1379.219 17.9146 19.8146 21.5946 22.8446 23.2646 22.7946 21.6246 19.9646 18.1746 16.4446
1398.509 14.9246 13.8546 13.1846 12.9346 13.1746 13.9546 15.3446 17.5046 20.3846 23.5546
1417.799 26.1646 27.0346 25.4046 21.9246 18.1346 15.2446 13.4946 12.6446 12.4046 12.4746
1437.089 12.6146 12.8546 13.1246 13.4546 13.9446 14.6246 15.4846 16.4746 17.5846 18.8046
1456.378 20.0346 21.3546 22.9146 24.8446 27.1746 29.9246 33.1146 36.5146 39.5146 41.3846
1475.668 41.4146 39.4646 36.4446 33.3446 30.9546 29.9046 30.2746 31.9346 34.8446 39.0246
1494.958 45.0046 53.5946 65.6746 82.7246 106.255 136.015 169.785 197.415 205.775 189.345
1514.248 154.705 116.065 84.4946 63.5246 49.4746 40.2046 33.6246 28.6346 24.7046 21.6546
1533.538 19.3346 17.5646 16.3046 15.3346 14.6546 14.2946 14.0746 13.9546 14.0946 14.3846
1552.827 14.8846 15.6646 16.6946 18.2846 20.4946 23.3146 27.1746 32.3346 38.9646 47.2346
1572.117 56.3046 63.9246 67.2346 64.9046 59.0346 53.7146 52.6046 56.4146 64.6746 77.2346
1591.407 93.7546 113.335 134.235 153.265 166.145 169.115 161.705 146.725 128.055 108.905
1610.697 91.1246 75.7746 64.0746 56.0746 51.8146 51.3746 54.4046 61.1346 71.2246 83.7046
1629.986 95.6446 102.575 100.925 90.4046 75.2346 60.3346 48.1746 39.3046 32.7346 27.8846
1649.276 24.3146 21.6146 19.3246 17.4946 16.0246 14.7746 13.6846 12.7246 11.9546 11.2346
1668.566 10.5946 10.0146 9.4346 8.8946 8.3746 7.9346 7.5046 7.1346 6.7646 6.3946
1687.856 6.1046 5.8346 5.6546 5.4746 5.2446 5.0146 4.8346 4.6646 4.5246 4.4446
1707.146 4.3846 4.2646 4.1746 4.1246 4.0746 4.0346 3.9546 3.9446 3.9146 3.8346
1726.435 3.8346 3.7946 3.7046 3.7146 3.6946 3.6546 3.6246 3.6146 3.6546 3.6746
1745.725 3.7246 3.7746 3.8946 4.0146 4.1446 4.3246 4.4946 4.5946 4.7346 4.9146
1765.015 5.0146 5.0046 4.9246 4.7546 4.3846 3.9846 3.6646 3.3746 3.2046 3.0246
1784.305 2.8546 2.8246 2.7546 2.6246 2.5546 2.5346 2.4846 2.4146 2.3546 2.3146
1803.594 2.2446 2.1746 2.1546 2.1046 2.0246 1.9546 1.8946 1.8846 1.8046 1.7946
1822.884 1.8346 1.7846 1.8046 1.8046 1.7946 1.8246 1.8546 1.9046 1.9446 2.0246
1842.174 2.0646 2.0546 2.0646 2.1246 2.1746 2.1746 2.1546 2.1546 2.1746 2.2646
1861.464 2.3646 2.4146 2.4846 2.5946 2.7646 2.9746 3.1546 3.3546 3.5646 3.7546
1880.754 3.9246 4.1246 4.2846 4.3646 4.4146 4.3746 4.2046 4.0446 3.8846 3.6946
1900.043 3.5046 3.3046 3.0946 2.9546 2.8346 2.6646 2.5646 2.5346 2.4946 2.4946
1919.333 2.5646 2.6646 2.7946 2.9446 3.0646 3.1546 3.2746 3.2946 3.2346 3.1546
1938.623 3.0746 2.9646 2.8346 2.6846 2.5246 2.4246 2.3246 2.2546 2.2246 2.2446
1957.913 2.2146 2.2046 2.2146 2.1946 2.2046 2.1846 2.2246 2.3146 2.3346 2.3146
1977.202 2.3546 2.4046 2.4246 2.4546 2.4246 2.4246 2.4346 2.5246 2.5846 2.5646
1996.492 2.6246 2.6946 2.7146 2.7646 2.8446 2.8746 2.9346 3.0446 3.2046 3.3346
2015.782 3.4546 3.5246 3.5146 3.4046 3.2546 3.1946 3.1546 3.1246 3.0646 3.0846
2035.072 3.1346 3.1946 3.2246 3.2146 3.2246 3.2346 3.2746 3.2846 3.2646 3.2246
2054.362 3.1946 3.1146 2.9446 2.7946 2.7246 2.6646 2.6246 2.5746 2.5346 2.5146
2073.651 2.4646 2.4046 2.4046 2.4246 2.3546 2.3146 2.3346 2.2246 2.1346 2.1146
2092.941 2.0346 1.9346 1.8746 1.8546 1.7946 1.6946 1.6346 1.5946 1.5346 1.4846
2112.231 1.4546 1.4246 1.3746 1.3246 1.2746 1.2546 1.2346 1.2246 1.2146 1.1746
2131.521 1.1146 1.0946 1.1146 1.1046 1.0746 1.0546 0.9854 0.9842 0.9744 0.9109
2150.810 0.9638 0.9888 0.9351 0.9354 0.9568 0.9544 0.8884 0.853 0.8916 0.8668
2170.100 0.8561 0.8776 0.924 0.9053 0.8376 0.8481 0.835 0.8089 0.8027 0.7942
2189.390 0.7692 0.741 0.7578 0.7843 0.7711 0.7684 0.7547 0.7632 0.7827 0.7812
2208.680 0.7849 0.7545 0.7327 0.786 0.8028 0.7456 0.7256 0.7375 0.7634 0.7796
2227.970 0.801 0.8143 0.8297 0.8506 0.8479 0.8541 0.8658 0.8544 0.8297 0.8202
2247.259 0.8304 0.8001 0.7718 0.8171 0.8651 0.9132 0.972 1.0188 1.0546 1.0646
2266.549 1.0846 1.1146 1.0946 1.1146 1.1746 1.1646 1.1846 1.1746 1.1346 1.1346
2285.839 1.1446 1.2046 1.2246 1.1546 1.1146 1.1046 1.0846 1.0946 1.1846 1.2546
2305.129 1.2346 1.1946 1.1046 1.0546 1.1146 1.1646 1.1846 1.2846 1.3446 1.3246
2324.418 1.3346 1.3246 1.3046 1.3546 1.3546 1.3146 1.3146 1.2646 1.2746 1.3146
2343.708 1.3546 1.3446 1.2746 1.2946 1.2746 1.1846 1.1846 1.2746 1.3346 1.4246
2362.998 1.4746 1.4046 1.3846 1.4346 1.4246 1.4446 1.5246 1.5546 1.5846 1.6146
2382.288 1.6646 1.7246 1.7546 1.7146 1.6746 1.7446 1.7946 1.8146 1.8146 1.8046
2401.578 1.8246 1.8746 1.8746 1.9446 1.9646 1.9446 1.9446 1.8846 1.8246 1.7946
2420.867 1.7946 1.8046 1.7246 1.6746 1.7046 1.7146 1.7046 1.7446 1.7846 1.8046
2440.157 1.8546 1.9646 2.0246 2.0146 2.0646 2.1546 2.2346 2.2146 2.2346 2.3246
2459.447 2.3446 2.3446 2.3246 2.3146 2.3946 2.4446 2.4946 2.5246 2.5346 2.6146
2478.737 2.6046 2.5946 2.5546 2.4746 2.4946 2.5646 2.5546 2.4846 2.4146 2.3446
2498.026 2.3146 2.3346 2.3446 2.3646 2.3146 2.2546 2.3346 2.4746 2.5046 2.4846
2517.316 2.5546 2.5846 2.5746 2.6346 2.6346 2.6546 2.8046 2.8446 2.8446 2.9046
2536.606 2.9746 3.0246 3.0646 3.0746 3.1546 3.2146 3.2046 3.1846 3.0546 2.9446
2555.896 2.9046 2.8846 2.8246 2.7846 2.7546 2.6946 2.6746 2.6246 2.5546 2.6046
2575.186 2.5946 2.4546 2.4346 2.4946 2.4346 2.3546 2.3346 2.2446 2.1346 2.0846
2594.475 2.0446 2.0046 2.0046 1.9646 1.8146 1.7546 1.8046 1.8246 1.7846 1.7746
2613.765 1.7546 1.6546 1.7046 1.7446 1.6446 1.5546 1.5646 1.5546 1.5446 1.5646
2633.055 1.5946 1.6246 1.5746 1.5146 1.5146 1.5346 1.5246 1.5446 1.5946 1.5746
2652.345 1.5346 1.5946 1.6846 1.7146 1.6946 1.7246 1.7646 1.7746 1.8246 1.8946
2671.634 1.9746 2.0046 2.0146 2.0446 2.0046 1.9546 1.9846 2.0046 1.9646 1.9946
2690.924 1.9446 1.8546 1.9346 1.9846 2.0546 2.1346 2.1246 2.1746 2.2746 2.2846
2710.214 2.3446 2.4846 2.5446 2.6546 2.8246 2.8846 2.8946 2.9746 3.0746 3.2246
2729.504 3.3446 3.3046 3.2846 3.4246 3.5946 3.7746 3.9746 4.0946 4.0946 4.0946
2748.794 4.1546 4.1446 4.1146 4.1046 4.1846 4.1946 4.1546 4.1446 4.0146 3.9746
2768.083 4.0346 4.1046 4.0646 3.9746 4.0146 4.1046 4.1446 4.1446 4.1946 4.3046
2787.373 4.4346 4.5546 4.7046 4.8646 4.9646 5.0746 5.2746 5.3446 5.3646 5.5546
2806.663 5.7246 5.8746 6.1246 6.4146 6.7646 7.1246 7.4546 7.7546 8.1246 8.5246
2825.953 9.0746 9.7146 10.2746 10.9646 11.8346 12.7546 13.8446 15.1846 16.7446 18.5346
2845.242 20.6046 23.0046 25.5046 28.3146 31.2846 34.0146 36.5246 38.6946 40.4746 41.9846
2864.532 43.5246 45.4746 47.9346 50.9146 54.1246 57.2046 60.0046 62.4246 64.4746 65.8046
2883.822 65.6946 63.5846 59.8246 55.4246 51.5646 48.6446 46.5246 45.0546 44.2646 44.0646
2903.112 44.3646 45.3046 46.7946 48.7446 51.1946 54.0146 57.0346 60.3646 63.6446 66.9246
2922.401 70.4046 74.0146 77.8346 82.1546 87.1246 91.9946 95.8446 98.0446 99.2746 100.455
2941.691 101.315 100.695 97.9046 93.5346 88.9546 85.5846 83.9346 84.0746 85.6146 88.1746
2960.981 91.4446 95.0846 98.7946 102.275 105.235 107.055 106.265 101.035 91.4046 79.4746
2980.271 68.0846 58.7046 51.1946 45.0046 39.8246 35.7546 32.5546 30.0346 27.9746 26.2946
2999.561 25.0146 24.0046 23.1146 22.2546 21.5546 21.1146 20.8546 20.8646 21.2846 22.1946
3018.850 23.8146 26.3246 29.6446 33.2246 35.9746 36.9546 35.8646 33.1746 30.0746 27.4146
3038.140 25.0346 22.7246 20.5346 18.6646 17.3346 16.3246 15.6146 15.2446 15.0446 14.8446
3057.430 14.6646 14.5746 14.5946 14.9046 15.4746 16.2646 17.4846 18.8646 19.9346 20.3846
3076.720 20.0546 19.0146 17.6246 16.2346 15.0546 14.1546 13.2946 12.4746 11.8246 11.3246
3096.009 10.7646 10.1346 9.5546 8.8646 8.3046 7.8746 7.3746 6.9646 6.5846 6.3146
3115.299 6.0546 5.6446 5.2946 4.9146 4.3946 3.9446 3.6746 3.4146 3.1346 2.9646
3134.589 2.8446 2.7146 2.6846 2.6046 2.4846 2.4846 2.5446 2.5046 2.3646 2.2746
3153.879 2.2046 2.1746 1.9846 1.7446 1.8246 1.8546 1.8346 1.7746 1.6246 1.6346
3173.169 1.6746 1.7146 1.7546 1.7546 1.7446 1.7546 1.7646 1.7446 1.7346 1.7946
3192.458 1.8346 1.8146 1.8646 1.8546 1.6846 1.5746 1.6946 1.8146 1.8146 1.7546
3211.748 1.6846 1.6446 1.5546 1.5346 1.4546 1.4246 1.4646 1.4746 1.6046 1.6646
3231.038 1.7146 1.7146 1.5146 1.5846 1.7246 1.6546 1.6446 1.6446 1.6346 1.6746
3250.328 1.6346 1.5846 1.6246 1.6646 1.5746 1.4646 1.3046 1.1646 1.1746 1.1446
3269.617 1.0339 0.9504 0.888 0.7298 0.6051 0.6239 0.5891 0.5587 0.4877 0.4952
3288.907 0.554 0.5367 0.5987 0.5687 0.4755 0.3961 0.3807 0.3875 0.304 0.3146
3308.197 0.4197 0.3409 0.34 0.4534 0.3801 0.3567 0.3415 0.3467 0.3833 0.409
3327.487 0.4161 0.4278 0.4772 0.3524 0.3223 0.3474 0.2308 0.2282 0.2892 0.2481
3346.777 0.2207 0.2775 0.3577 0.372 0.2666 0.1589 0.12444 0.13207 0.1895 0.321
3366.066 0.2943 0.2925 0.2619 0.2005 0.2577 0.3416 0.463 0.4635 0.3191 0.2288
3385.356 0.2841 0.227 0.1578 0.1401 0.11496 0.2211 0.2882 0.1963 0.2007 0.2309
3404.646 0.275 0.4147 0.3277 0.1395 0.09302 0.1734 0.2155 0.2518 0.2959 0.2664
3423.936 0.2159 0.2218 0.2805 0.3449 0.3436 0.217 0.135 0.12361 0.1809 0.3331
3443.225 0.3376 0.2282 0.266 0.3179 0.3165 0.2366 0.2319 0.3026 0.3209 0.3157
3462.515 0.2351 0.10699 0.168 0.2223 0.12613 0.09473 0.07252 0.1435 0.1907 0.1572
3481.805 0.10289 0.12373 0.1963 0.1956 0.13032 0.06181 0.06417 0.13289 0.1597 0.1725
3501.095 0.1616 0.10066 0.12357 0.10369 0.08332 0.11634 0.1452 0.1634 0.188 0.1633
3520.385 0.1663 0.2273 0.2091 0.2337 0.12076 0.07145 0.1586 0.05944 0.11361 0.252
3539.674 0.2424 0.1832 0.185 0.2344 0.1801 0.10138 0.08083 0.1561 0.1618 0.07634
3558.964 0.1455 0.1917 0.11576 0.11883 0.1558 0.10879 0.1587 0.281 0.3074 0.3218
3578.254 0.2953 0.2422 0.2788 0.3774 0.3949 0.1992 0 0.0131 0.1366 0.2349
3597.544 0.2974 0.3405 0.2342 0.1386 0.1773 0.1821 0.13308 0.1869 0.2789 0.2523
3616.833 0.2377 0.3505 0.3433 0.2305 0.2897 0.3253 0.277 0.2475 0.2403 0.2635
3636.123 0.2814 0.3445 0.4003 0.3869 0.3475 0.3135 0.3762 0.4472 0.4819 0.4872
3655.413 0.4783 0.4917 0.4295 0.3989 0.4384 0.3996 0.4292 0.5519 0.464 0.3936
3674.703 0.5195 0.4089 0.3066 0.4074 0.5363 0.5544 0.4996 0.5656 0.4571 0.3753
3693.993 0.4156 0.4139 0.3683 0.3597 0.4142 0.4782 0.5176 0.5126 0.5857 0.5635
3713.282 0.4209 0.3446 0.3084 0.29 0.3813 0.439 0.3973 0.3934 0.4223 0.3595
3732.572 0.3702 0.3671 0.2647 0.2821 0.335 0.4264 0.4566 0.4405 0.4525 0.4563
3751.862 0.4792 0.3677 0.3866 0.5101 0.475 0.3881 0.37 0.4166 0.3339 0.3151
3771.152 0.3517 0.3568 0.3494 0.3678 0.4012 0.3019 0.2327 0.256 0.2615 0.3523
3790.441 0.3184 0.2564 0.3661 0.3442 0.3433 0.3015 0.3254 0.3337 0.2444 0.3467
3809.731 0.4482 0.4788 0.3976 0.287 0.3152 0.4983 0.6819 0.6167 0.3702 0.261
3829.021 0.5195 0.5034 0.2969 0.4238 0.4755 0.4569 0.45 0.3883 0.4221 0.4674
3848.311 0.4697 0.4578 0.5069 0.5411 0.4841 0.4996 0.5053 0.4284 0.3754 0.4409
3867.601 0.4173 0.2991 0.3509 0.4435 0.4178 0.4454 0.3764 0.3324 0.4456 0.4874
3886.890 0.5267 0.5105 0.474 0.4317 0.4921 0.6225 0.5438 0.6024 0.6548 0.5547
3906.180 0.4789 0.353 0.4149 0.4658 0.381 0.3825 0.4894 0.6115 0.655 0.5668
3925.470 0.4581 0.4647 0.4546 0.4083 0.4264 0.404 0.4811 0.6072 0.5312 0.4562
3944.760 0.4985 0.5133 0.4262 0.4771 0.6066 0.6207 0.6499 0.6255 0.4305 0.4349
3964.049 0.6581 0.5975 0.486 0.4696 0.5651 0.725 0.6685 0.6315 0.5597 0.457
3983.339 0.5337 0.6179 0.5658 0.598 0.6974 0.7298 0.7359 0.5868 0.5591 0.5657
##END=
