##TITLE=Methyl 1-methylpyrrole-2-carboxylate
##JCAMP-DX=4.24
##DATA TYPE=INFRARED SPECTRUM
##ORIGIN=EPA-IR VAPOR PHASE LIBRARY
##OWNER=SRD/NIST
Collection (C) 2018 copyright by the U.S. Secretary of Commerce
on behalf of the United States of America. All rights reserved.
##CAS REGISTRY NO=37619-24-2
##MOLFORM=C 7 H 9 N O 2
##$NIST SOURCE=MSDC-IR
##STATE=gas
##XUNITS=1/CM
##YUNITS=ABSORBANCE
##XFACTOR=1.
##YFACTOR=0.001
##DELTAX=1.92918
##FIRSTX=549.8
##LASTX=3999.2
##FIRSTY=0.9302
##MAXX=3999.2
##MINX=549.817
##MAXY=0.12562
##MINY=0
##NPOINTS=1789
##XYDATA=(X++(Y..Y))
549.817 0.9302 1.0294 1.1742 0.9926 0.783253 0.8308 0.8904 0.86148 1.0245 1.0405
569.109 0.80483 0.598 0.7071 0.553 0.286 0.424 0.536 0.7281 1.1725 1.1724
588.401 1.0675 1.3758 1.8 2.11 2.04 2.03 2.3 2.65 3.38 3.91
607.693 3.51 2.94 2.64 2.51 2.39 2.02 1.82 1.8 1.5268 1.2274
626.984 1.0794 1.1198 1.1598 1.0191 0.9519 0.87636 0.85966 0.925 0.9789 1.0001
646.276 1.0075 1.139 1.1447 1.0245 1.095 1.2482 1.3733 1.3926 1.3744 1.4322
665.568 1.3917 1.4242 1.429 1.4207 1.531 1.629 1.7777 2.17 2.64 2.97
684.860 3.44 3.81 3.81 3.85 3.97 3.9 3.93 4.16 4.26 4.22
704.152 4.61 5.35 6.43 8.2 10.48 13.18 15.85 18.22 20.41 22.24
723.444 24.36 28.31 37.99 48.38 41.13 28.08 24.41 23.21 21.9 20.18
742.735 18.16 15.93 13.8 12.1 11.06 10.49 10.02 9.87 10.38 11.67
762.027 12.87 12.01 9.94 8.72 8.18 7.73 7.2 6.61 5.96 5.24
781.319 4.64 4.22 4.03 4 4 4.06 4.1 4.05 3.99 3.86
800.611 3.71 3.62 3.65 3.57 3.19 2.75 2.44 2.16 1.97 1.87
819.903 1.6579 1.4975 1.3925 1.2692 1.2199 1.3086 1.2963 1.2333 1.2029 1.1849
839.195 1.2606 1.3023 1.3469 1.341 1.2417 1.2255 1.2536 1.2958 1.4539 1.5596
858.487 1.5222 1.5546 1.6572 1.7374 1.88 1.95 1.9 1.85 1.85 1.97
877.778 2.1 2.16 2.34 2.53 2.56 2.58 2.55 2.49 2.5 2.52
897.070 2.46 2.22 1.99 1.81 1.5717 1.4796 1.5636 1.6102 1.6257 1.6887
916.362 1.6731 1.6077 1.5991 1.6584 1.7625 1.8 1.83 1.91 2.02 2.1
935.654 2.33 2.61 2.87 3.26 3.67 4.01 4.45 4.87 5.12 5.34
954.946 5.49 5.46 5.41 5.41 5.33 5.08 4.73 4.35 3.92 3.45
974.238 3.01 2.68 2.38 2.12 2.02 1.94 1.85 1.79 1.7299 1.7437
993.529 1.82 1.9 1.99 2.17 2.43 2.82 3.31 3.87 4.45 5.02
1012.821 5.5 5.8 6.02 6.12 6.16 6.24 6.24 6.1 5.92 5.73
1032.113 5.62 5.67 5.81 6.1 6.5 7.01 7.7 8.46 9.21 9.89
1051.405 10.5 10.95 11.26 11.58 11.82 11.99 12.15 12.18 12.2 12.32
1070.697 12.53 12.99 13.86 15.09 16.63 18.49 20.75 23.37 26.2 29.37
1089.989 33.12 37.53 42.5 47.88 53.49 59.24 65.14 71.1 76.93 82.49
1109.281 87.36 91.28 93.93 94.95 94.27 91.88 88.01 82.88 76.48 69.21
1128.572 61.33 53.09 44.94 37.4 30.89 25.52 21.26 17.85 15.22 13.25
1147.864 11.72 10.57 9.67 8.97 8.49 8.11 7.79 7.59 7.55 7.54
1167.156 7.54 7.67 7.95 8.28 8.67 9.22 9.91 10.68 11.37 12.01
1186.448 12.6 13.04 13.39 13.67 13.87 14.05 14.18 14.22 14.3 14.47
1205.740 14.73 15.26 16.14 17.35 18.76 20.15 21.52 22.88 24.38 26.22
1225.032 28.58 31.65 35.75 41.37 48.63 57.64 68.41 80.18 91.74 101.63
1244.323 108.75 112.69 113.76 112.4 108.62 102.07 92.26 79.11 63.55 47.79
1263.615 34.38 24.45 17.73 13.39 10.67 8.91 7.73 7.04 6.65 6.44
1282.907 6.44 6.62 6.95 7.5 8.27 9.31 10.6 12.27 14.43 17.12
1302.199 20.49 24.47 29 33.88 38.76 43.12 46.61 48.98 50.13 50.17
1321.491 49.14 46.97 43.77 39.55 34.37 28.72 23.29 18.73 15.35 13.04
1340.783 11.42 10.19 9.17 8.39 7.86 7.51 7.26 7.15 7.21 7.36
1360.075 7.59 7.95 8.36 8.82 9.39 10.01 10.66 11.25 11.83 12.38
1379.366 12.96 13.6 14.17 14.79 15.52 16.31 17.19 18.35 20.04 22.22
1398.658 25.02 28.42 31.79 34.87 37.26 38.83 39.9 40.62 40.69 39.9
1417.950 38.51 36.34 33.76 31.55 30.23 30.25 31.69 34.17 36.86 39.11
1437.242 40.6 41.49 42.08 41.61 40.61 39.38 35.94 30.54 25.07 21.2
1456.534 18.99 17.93 17.78 18.29 19.25 20.34 21.55 22.79 23.8 24.47
1475.826 24.74 24.72 24.4 23.9 23.02 21.68 19.87 17.74 15.47 13.46
1495.117 11.86 10.49 9.33 8.38 7.69 7.35 7.2 7.14 7.41 7.92
1514.409 8.62 9.68 11.04 12.63 14.53 16.31 18 19.32 20.18 20.71
1533.701 21.01 20.93 20.5 19.62 18.01 15.84 13.45 11.31 9.69 8.37
1552.993 7.29 6.25 5.43 4.86 4.2 3.74 3.52 3.37 3.22 3.11
1572.285 3.07 3.11 3.09 3.02 3.02 3.04 3.11 3.19 3.26 3.35
1591.577 3.41 3.47 3.5 3.5 3.52 3.54 3.51 3.49 3.47 3.41
1610.869 3.32 3.21 3.29 3.42 3.42 3.49 3.63 3.7 3.78 3.87
1630.160 3.84 3.83 3.91 3.93 3.76 3.61 3.52 3.46 3.45 3.47
1649.452 3.47 3.61 3.95 4.05 4.14 4.41 4.77 5.15 5.55 5.93
1668.744 6.35 6.7 6.98 7.42 7.82 8.12 8.49 8.85 9.31 9.6
1688.036 9.96 10.5 11.18 12.16 13.56 15.28 17.81 21.43 25.64 31.66
1707.328 39.24 48.63 60.05 72.93 86.44 99 108.88 114.24 116.56 118.71
1726.620 122.32 125.62 124.06 115.49 100.61 85.41 72.66 60.94 50.88 41.71
1745.911 33.88 27.49 22.59 18.68 15.62 13.42 11.61 10.13 9.02 8.09
1765.203 7.4 6.91 6.48 6.19 5.96 5.73 5.55 5.44 5.35 5.13
1784.495 4.82 4.51 4.22 3.97 3.72 3.45 3.21 2.98 2.76 2.55
1803.787 2.37 2.22 2.09 2.03 1.99 1.92 1.87 1.84 1.83 1.84
1823.079 1.85 1.83 1.83 1.88 1.87 1.87 1.86 1.83 1.79 1.7261
1842.371 1.713 1.6875 1.6053 1.5638 1.5096 1.4371 1.3977 1.3834 1.3618 1.3355
1861.663 1.322 1.3007 1.3279 1.3363 1.3104 1.2568 1.2326 1.3102 1.3429 1.3041
1880.954 1.2675 1.2993 1.3353 1.3256 1.3734 1.4031 1.3884 1.4138 1.4688 1.4595
1900.246 1.4093 1.4385 1.4991 1.4795 1.475 1.4998 1.4599 1.4401 1.4061 1.3657
1919.538 1.3423 1.2703 1.2264 1.1739 1.1141 1.0374 1.0169 1.0218 0.9864 0.9495
1938.830 0.8864 0.8946 0.9223 0.9054 0.8961 0.9292 0.9513 0.9548 0.9596 0.9518
1958.122 0.9427 0.9735 0.9755 0.9573 0.9898 1.0215 1.0631 1.0417 0.999 0.9661
1977.414 0.963 1.0109 0.9846 0.9611 0.9976 0.9727 0.935 0.9322 0.9187 0.86346
1996.705 0.82531 0.8801 0.9029 0.8814 0.86769 0.81357 0.79217 0.80094 0.81128 0.81367
2015.997 0.84033 0.84884 0.81897 0.83448 0.85498 0.8928 0.9041 0.9197 0.9755 1.0333
2035.289 1.0802 1.1088 1.1743 1.2303 1.2815 1.3205 1.3119 1.2832 1.2779 1.2853
2054.581 1.2936 1.277 1.2627 1.2982 1.3245 1.3131 1.3063 1.3217 1.3478 1.3578
2073.873 1.3381 1.3256 1.2768 1.2495 1.2385 1.1619 1.1186 1.088 1.0529 1.0135
2093.165 0.9706 0.955 0.9403 0.9683 1.0231 0.9985 0.9429 0.9743 0.9931 0.9449
2112.456 0.9819 1.0021 0.9504 0.9649 0.9795 0.9187 0.86292 0.8814 0.9292 0.9249
2131.748 0.8922 0.87368 0.87773 0.8941 0.8835 0.84587 0.83551 0.85268 0.82978 0.782307
2151.040 0.7652 0.7594 0.7083 0.676 0.671 0.675 0.674 0.658 0.62 0.616
2170.332 0.654 0.624 0.597 0.606 0.626 0.624 0.592 0.604 0.633 0.619
2189.624 0.622 0.654 0.628 0.64 0.624 0.59 0.648 0.671 0.663 0.7026
2208.916 0.7102 0.664 0.597 0.582 0.616 0.587 0.562 0.554 0.535 0.538
2228.208 0.586 0.562 0.556 0.58 0.535 0.514 0.547 0.584 0.582 0.578
2247.499 0.588 0.575 0.576 0.575 0.514 0.496 0.536 0.527 0.526 0.555
2266.791 0.529 0.593 0.641 0.59 0.538 0.486 0.525 0.545 0.535 0.605
2286.083 0.651 0.628 0.576 0.528 0.588 0.67 0.626 0.563 0.577 0.591
2305.375 0.577 0.569 0.596 0.625 0.6 0.579 0.595 0.592 0.572 0.566
2324.667 0.575 0.609 0.601 0.586 0.618 0.574 0.538 0.584 0.536 0.478
2343.959 0.495 0.46 0.462 0.453 0.393 0.439 0.497 0.49 0.485 0.482
2363.250 0.488 0.521 0.532 0.544 0.542 0.548 0.521 0.471 0.501 0.547
2382.542 0.549 0.51 0.509 0.523 0.518 0.505 0.458 0.454 0.519 0.567
2401.834 0.539 0.441 0.476 0.567 0.56 0.572 0.586 0.579 0.622 0.593
2421.126 0.603 0.644 0.605 0.644 0.674 0.659 0.638 0.664 0.7033 0.711
2440.418 0.678 0.669 0.6971 0.754 0.81179 0.7943 0.81508 0.84671 0.83985 0.86978
2459.710 0.8807 0.9079 0.965 0.9454 0.9538 0.9441 0.87209 0.87896 0.8854 0.84548
2479.002 0.81403 0.80566 0.7689 0.7155 0.668 0.625 0.6906 0.7727 0.6895 0.635
2498.293 0.669 0.642 0.645 0.632 0.613 0.656 0.629 0.629 0.651 0.627
2517.585 0.599 0.584 0.611 0.607 0.582 0.561 0.547 0.542 0.569 0.541
2536.877 0.522 0.586 0.548 0.487 0.489 0.509 0.492 0.468 0.465 0.47
2556.169 0.513 0.523 0.516 0.514 0.483 0.459 0.442 0.413 0.457 0.467
2575.461 0.42 0.408 0.428 0.47 0.459 0.479 0.5 0.488 0.475 0.453
2594.753 0.431 0.381 0.367 0.342 0.374 0.403 0.42 0.452 0.411 0.439
2614.044 0.46 0.428 0.476 0.483 0.464 0.457 0.427 0.431 0.464 0.47
2633.336 0.479 0.519 0.445 0.416 0.452 0.43 0.446 0.492 0.505 0.464
2652.628 0.515 0.603 0.581 0.556 0.552 0.555 0.48 0.442 0.459 0.498
2671.920 0.536 0.506 0.505 0.492 0.464 0.462 0.472 0.458 0.426 0.477
2691.212 0.544 0.492 0.513 0.574 0.534 0.557 0.613 0.603 0.618 0.65
2710.504 0.594 0.549 0.561 0.547 0.545 0.562 0.607 0.622 0.583 0.551
2729.796 0.545 0.567 0.617 0.617 0.658 0.7078 0.6988 0.7209 0.7368 0.7296
2749.087 0.7096 0.7598 0.79738 0.84294 0.8996 0.9458 0.9797 0.9563 0.9833 0.9822
2768.379 0.9876 1.0263 1.1026 1.2087 1.2071 1.1799 1.2622 1.3166 1.3265 1.4131
2787.671 1.373 1.2979 1.3342 1.3848 1.4616 1.517 1.5566 1.629 1.7079 1.86
2806.963 2.06 2.16 2.22 2.37 2.58 2.68 2.74 2.93 3.03 3.09
2826.255 3.27 3.4 3.55 3.65 3.68 3.92 4.13 4.26 4.49 4.6
2845.547 4.68 4.75 4.63 4.51 4.45 4.31 4.17 4.16 4.1 4
2864.838 4.08 4.15 4.13 4.17 4.23 4.27 4.32 4.35 4.37 4.46
2884.130 4.51 4.63 4.79 4.8 4.75 4.78 4.92 5.04 5.14 5.29
2903.422 5.43 5.51 5.74 5.99 6.17 6.37 6.61 6.88 7.08 7.28
2922.714 7.48 7.68 7.96 8.29 8.64 8.9 9.35 10.04 10.78 11.63
2942.006 12.7 14.11 15.88 17.9 20.01 22 23.76 24.88 25.54 25.98
2961.298 25.91 25.41 24.51 23.14 21.25 19.03 16.85 15.01 13.49 12.17
2980.590 11.1 10.31 9.62 9.1 8.76 8.52 8.37 8.28 8.24 8.21
2999.881 8.1 7.89 7.7 7.55 7.39 7.19 7.04 6.88 6.67 6.56
3019.173 6.4 6.22 5.98 5.65 5.44 5.24 4.99 4.82 4.6 4.22
3038.465 3.9 3.66 3.33 3.17 3.07 2.88 2.7 2.56 2.38 2.27
3057.757 2.27 2.12 2.04 2.04 1.98 1.97 1.81 1.6958 1.79 1.83
3077.049 1.82 1.83 1.643 1.565 1.6009 1.6121 1.6959 1.7224 1.6756 1.6188
3096.341 1.82 1.93 1.87 1.97 2.03 2.14 2.24 2.29 2.52 2.65
3115.632 2.64 2.79 2.97 3.11 3.15 3.17 3.2 3.11 3.1 3.13
3134.924 3.06 2.94 2.62 2.43 2.38 2.18 1.98 1.78 1.6134 1.4303
3154.216 1.2128 0.9537 0.82404 0.83498 0.7528 0.629 0.564 0.642 0.658 0.611
3173.508 0.554 0.46 0.407 0.35 0.312 0.427 0.498 0.492 0.371 0.183
3192.800 0.274 0.383 0.397 0.346 0.314 0.286 0.29 0.371 0.291 0.221
3212.092 0.268 0.28 0.3 0.287 0.333 0.358 0.308 0.288 0.28 0.278
3231.384 0.182 0.175 0.202 0.182 0.252 0.263 0.283 0.308 0.293 0.349
3250.675 0.358 0.359 0.39 0.381 0.321 0.228 0.275 0.325 0.266 0.183
3269.967 0.228 0.311 0.138 0.078 0.161 0.139 0.2 0.247 0.161 0.161
3289.259 0.213 0.273 0.309 0.114 0 0.08 0.127 0.133 0.124 0.099
3308.551 0.201 0.345 0.331 0.327 0.267 0.166 0.137 0.159 0.215 0.117
3327.843 0.09 0.203 0.235 0.226 0.236 0.231 0.241 0.268 0.269 0.195
3347.135 0.174 0.252 0.216 0.205 0.222 0.236 0.239 0.192 0.213 0.234
3366.426 0.197 0.238 0.265 0.283 0.286 0.29 0.339 0.225 0.146 0.211
3385.718 0.265 0.226 0.236 0.241 0.229 0.358 0.322 0.258 0.31 0.341
3405.010 0.36 0.305 0.287 0.409 0.466 0.525 0.6878 0.728 0.6824 0.644
3424.302 0.77278 0.9041 0.85049 0.83338 0.9699 1.033 0.9007 0.9491 0.9778 0.81076
3443.594 0.7157 0.677 0.67 0.622 0.597 0.53 0.409 0.342 0.261 0.356
3462.886 0.423 0.427 0.376 0.22 0.256 0.294 0.226 0.161 0.21 0.226
3482.178 0.281 0.267 0.229 0.372 0.239 0.137 0.211 0.228 0.142 0.071
3501.469 0.179 0.221 0.172 0.223 0.326 0.249 0.139 0.251 0.237 0.215
3520.761 0.22 0.128 0.156 0.211 0.167 0.08 0.109 0.203 0.265 0.311
3540.053 0.417 0.522 0.408 0.302 0.364 0.295 0.146 0.186 0.259 0.242
3559.345 0.237 0.239 0.259 0.293 0.37 0.318 0.279 0.359 0.382 0.362
3578.637 0.358 0.306 0.265 0.353 0.346 0.396 0.309 0.178 0.344 0.354
3597.929 0.362 0.347 0.264 0.233 0.219 0.301 0.267 0.221 0.227 0.315
3617.220 0.404 0.376 0.371 0.427 0.452 0.449 0.443 0.444 0.328 0.197
3636.512 0.329 0.339 0.203 0.222 0.443 0.51 0.462 0.453 0.345 0.307
3655.804 0.393 0.413 0.281 0.243 0.32 0.413 0.371 0.379 0.45 0.403
3675.096 0.463 0.488 0.378 0.28 0.336 0.423 0.285 0.171 0.239 0.309
3694.388 0.315 0.37 0.399 0.347 0.446 0.504 0.385 0.233 0.338 0.394
3713.680 0.318 0.323 0.213 0.196 0.237 0.24 0.32 0.338 0.187 0.256
3732.972 0.376 0.409 0.409 0.309 0.323 0.498 0.551 0.312 0.348 0.605
3752.263 0.7041 0.483 0.3 0.273 0.316 0.4 0.326 0.307 0.361 0.403
3771.555 0.43 0.383 0.346 0.322 0.325 0.325 0.345 0.349 0.304 0.333
3790.847 0.379 0.396 0.366 0.353 0.405 0.476 0.525 0.439 0.246 0.202
3810.139 0.27 0.275 0.376 0.531 0.484 0.347 0.284 0.308 0.293 0.197
3829.431 0.22 0.345 0.36 0.375 0.543 0.551 0.42 0.445 0.451 0.417
3848.723 0.323 0.376 0.494 0.408 0.391 0.34 0.298 0.288 0.244 0.338
3868.014 0.366 0.408 0.446 0.346 0.367 0.43 0.479 0.443 0.368 0.409
3887.306 0.409 0.396 0.47 0.526 0.492 0.279 0.26 0.429 0.478 0.338
3906.598 0.269 0.386 0.367 0.427 0.525 0.552 0.479 0.408 0.442 0.428
3925.890 0.384 0.383 0.415 0.358 0.396 0.411 0.373 0.372 0.371 0.478
3945.182 0.498 0.464 0.334 0.297 0.432 0.441 0.458 0.508 0.446 0.417
3964.474 0.499 0.398 0.309 0.385 0.376 0.379 0.49 0.561 0.49 0.443
3983.766 0.498 0.468 0.514 0.648 0.576 0.539 0.666 0.7117 0.676
##END=
