##TITLE=Diethyl 4-methylbenzylphosphonate
##JCAMP-DX=4.24
##DATA TYPE=INFRARED SPECTRUM
##ORIGIN=EPA-IR VAPOR PHASE LIBRARY
##OWNER=SRD/NIST
Collection (C) 2018 copyright by the U.S. Secretary of Commerce
on behalf of the United States of America. All rights reserved.
##CAS REGISTRY NO=3762-25-2
##MOLFORM=C 12 H 19 O 3 P
##$NIST SOURCE=MSDC-IR
##STATE=gas
##XUNITS=1/CM
##YUNITS=ABSORBANCE
##XFACTOR=1.
##YFACTOR=0.001
##DELTAX=1.92898
##FIRSTX=549.8
##LASTX=4000.7
##FIRSTY=26.413
##MAXX=4000.7
##MINX=549.759
##MAXY=0.217763
##MINY=0
##NPOINTS=1790
##XYDATA=(X++(Y..Y))
549.759 26.413 33.093 41.283 48.733 54.573 57.533 56.003 52.103 45.853 38.513
569.049 31.703 25.093 19.223 15.393 12.843 10.273 8.243 7.453 6.513 4.933
588.339 4.423 4.463 4.293 4.013 3.543 3.693 3.693 3.183 3.133 3.403
607.628 3.313 3.043 2.703 2.103 2.083 2.643 2.523 2.363 2.173 2.293
626.918 2.583 2.613 2.823 2.783 2.943 3.163 2.783 2.143 1.843 2.223
646.208 2.743 2.793 3.193 3.373 2.993 3.053 2.483 2.563 3.423 3.503
665.498 3.563 3.403 3.693 4.263 4.403 4.753 5.123 5.333 5.653 6.043
684.787 6.803 7.613 7.813 7.803 7.513 7.553 7.883 7.483 7.323 7.503
704.077 7.473 7.213 7.453 7.763 8.463 9.643 10.413 11.183 12.003 12.693
723.367 13.143 13.313 13.093 13.033 13.203 13.503 14.103 14.183 13.423 12.453
742.657 11.423 10.203 9.833 10.633 11.403 11.603 11.853 12.243 13.223 14.113
761.947 14.633 16.103 17.843 20.213 23.103 26.103 29.343 32.043 34.513 37.093
781.236 38.803 38.873 37.903 36.063 33.763 31.593 29.513 27.523 26.083 25.663
800.526 26.113 26.513 26.553 26.953 27.403 27.873 28.093 28.813 29.613 29.893
819.816 29.993 30.393 31.563 32.423 34.153 36.903 39.633 42.703 45.623 48.263
839.106 49.433 48.923 47.703 46.243 44.453 41.963 39.253 36.173 32.873 28.833
858.395 24.863 21.933 19.263 16.793 14.803 13.833 12.983 11.983 11.653 11.363
877.685 10.943 10.683 10.353 10.003 9.923 10.413 10.933 11.043 11.163 11.503
896.975 12.263 13.153 13.733 14.213 14.883 15.523 16.623 18.023 19.343 21.353
916.265 23.833 26.223 28.903 31.703 35.473 40.493 46.153 52.443 59.813 68.023
935.555 76.593 86.063 96.113 104.943 112.193 118.483 122.883 125.443 125.883 124.033
954.844 120.903 116.653 110.683 103.573 95.893 87.873 79.843 72.303 65.293 58.433
974.134 52.163 46.483 42.123 38.833 35.793 33.273 31.893 31.223 30.243 29.453
993.424 29.623 30.273 31.213 32.843 34.743 37.523 41.083 44.753 49.423 56.423
1012.714 64.323 73.573 85.223 98.133 111.773 125.853 141.223 157.193 172.873 186.983
1032.003 199.743 209.753 215.353 217.763 215.553 209.673 202.773 194.763 186.263 181.003
1051.293 177.203 174.103 173.213 172.583 170.383 165.923 159.943 152.673 143.733 132.193
1070.583 120.543 109.123 96.633 85.683 78.153 73.433 69.133 66.063 63.833 61.593
1089.873 60.893 62.273 64.593 66.073 65.743 63.513 60.583 58.103 53.433 46.593
1109.163 41.203 38.503 36.583 33.573 31.913 30.193 28.393 27.443 26.283 25.823
1128.452 24.563 23.073 23.333 22.963 22.433 22.273 22.013 21.963 21.123 20.643
1147.742 20.693 19.703 19.563 20.553 19.473 18.193 19.123 19.433 17.863 16.533
1167.032 16.583 17.433 18.033 17.463 16.983 16.893 15.823 16.383 17.513 16.353
1186.322 15.853 15.833 14.723 13.713 12.523 10.823 9.993 8.583 8.073 9.113
1205.611 9.323 9.233 8.813 9.093 8.743 8.723 9.613 10.613 11.303 11.383
1224.901 12.923 14.953 15.843 16.553 18.583 19.043 19.253 21.623 23.503 25.613
1244.191 28.153 29.653 30.773 32.093 33.923 36.843 41.443 47.113 53.163 59.893
1263.481 67.623 75.163 80.373 83.393 84.843 84.213 81.263 77.433 73.793 70.263
1282.771 66.723 62.923 58.893 54.603 49.693 44.473 39.183 34.313 29.923 25.843
1302.060 22.833 20.433 18.273 16.443 14.783 13.483 12.383 11.273 10.363 9.683
1321.350 9.003 8.493 7.963 7.273 6.993 6.883 6.513 6.343 6.233 6.033
1340.640 6.093 6.083 6.023 5.933 5.933 5.973 6.083 6.273 6.523 6.873
1359.930 7.293 7.923 8.423 9.073 9.983 10.733 11.303 11.723 11.833 12.233
1379.219 12.983 13.663 14.763 16.403 18.273 20.153 21.813 22.933 23.413 23.283
1398.509 22.513 21.373 20.163 19.143 18.243 17.473 16.953 16.233 15.333 14.473
1417.799 13.503 12.683 12.143 11.593 11.073 10.673 10.243 9.863 9.783 9.693
1437.089 9.493 9.243 9.123 9.083 8.963 8.863 8.733 8.663 8.463 8.253
1456.378 8.123 8.033 7.973 8.063 8.003 8.013 8.133 8.033 7.743 7.563
1475.668 7.543 7.723 7.903 7.933 8.143 8.223 8.333 8.603 9.213 9.623
1494.958 10.023 10.743 11.673 12.913 14.673 16.903 19.983 23.983 28.113 31.883
1514.248 34.153 34.343 32.433 28.573 23.013 17.863 13.383 10.143 8.133 6.733
1533.538 5.793 5.433 5.103 4.503 4.373 4.193 3.853 3.723 3.533 3.473
1552.827 3.393 3.203 3.113 2.843 2.653 2.773 2.733 2.633 2.713 2.703
1572.117 2.483 2.523 2.613 2.603 2.533 2.483 2.493 2.253 2.373 2.583
1591.407 2.503 2.603 2.653 2.413 2.343 2.533 2.753 2.743 2.613 2.603
1610.697 2.473 2.393 2.543 2.483 2.443 2.613 2.733 2.863 2.933 3.053
1629.986 2.983 2.713 2.573 2.523 2.663 2.763 2.473 2.393 2.563 2.673
1649.276 2.793 2.693 2.593 2.543 2.553 2.623 2.653 2.643 2.613 2.493
1668.566 2.583 2.723 2.543 2.413 2.443 2.503 2.503 2.323 2.143 2.213
1687.856 2.273 2.093 1.973 2.083 2.103 2.053 1.943 1.863 1.923 1.943
1707.146 1.993 2.043 2.203 2.603 2.683 2.363 2.163 2.353 2.513 2.473
1726.435 2.393 2.473 2.713 2.673 2.433 2.543 2.783 2.823 2.913 2.943
1745.725 2.943 2.933 2.963 2.973 2.903 2.923 3.073 3.163 3.213 3.233
1765.015 3.233 3.243 3.243 3.243 3.353 3.523 3.603 3.663 3.683 3.783
1784.305 3.763 3.813 3.773 3.553 3.443 3.323 3.233 3.143 3.063 3.053
1803.594 3.083 3.043 2.933 2.893 2.833 2.713 2.573 2.753 3.003 2.893
1822.884 2.853 2.933 2.883 2.803 2.823 2.993 2.963 2.783 2.703 2.673
1842.174 2.753 2.783 2.803 2.873 2.773 2.673 2.683 2.773 2.783 2.773
1861.464 2.783 2.683 2.643 2.843 2.993 2.933 3.023 3.113 3.173 3.293
1880.754 3.423 3.533 3.603 3.843 4.003 3.863 3.703 3.743 3.733 3.543
1900.043 3.383 3.153 2.923 2.663 2.473 2.513 2.483 2.293 2.183 2.263
1919.333 2.283 2.093 1.993 2.093 2.153 1.973 1.763 1.703 1.743 1.793
1938.623 1.703 1.693 1.733 1.6598 1.5966 1.5762 1.5569 1.4728 1.5341 1.5018
1957.913 1.5157 1.6184 1.4843 1.4231 1.6213 1.6806 1.6446 1.723 1.713 1.703
1977.202 1.6276 1.5994 1.733 1.753 1.6416 1.5163 1.5823 1.5641 1.4533 1.5625
1996.492 1.5445 1.4325 1.3829 1.3882 1.3075 1.3071 1.3344 1.2489 1.338 1.397
2015.782 1.3355 1.4275 1.4171 1.4027 1.414 1.285 1.2982 1.336 1.3455 1.226
2035.072 1.3088 1.4903 1.4047 1.3116 1.2772 1.2278 1.2768 1.3133 1.2461 1.3878
2054.362 1.2896 1.1955 1.2578 1.2709 1.2968 1.1397 1.1244 1.3134 1.4493 1.5281
2073.651 1.5543 1.5147 1.5694 1.51 1.4772 1.487 1.5003 1.5358 1.5906 1.491
2092.941 1.2211 1.3291 1.3712 1.3599 1.4527 1.452 1.4192 1.4496 1.499 1.4423
2112.231 1.4273 1.372 1.4091 1.5195 1.3568 1.1236 1.1151 1.2598 1.3646 1.4051
2131.521 1.3537 1.3406 1.4492 1.4304 1.4635 1.4389 1.3653 1.3089 1.2843 1.3076
2150.810 1.4178 1.3721 1.3959 1.5143 1.2536 1.2232 1.3797 1.3206 1.2953 1.3124
2170.100 1.254 1.1433 1.1323 1.3825 1.4092 1.3161 1.292 1.2429 1.3485 1.2526
2189.390 1.1285 1.1473 1.1729 1.2016 1.1089 1.2104 1.3752 1.153 1.139 1.3472
2208.680 1.409 1.4281 1.4094 1.2551 1.1761 1.3176 1.3521 1.3846 1.3513 1.3425
2227.970 1.5309 1.47 1.2284 1.2743 1.2999 1.1973 1.1501 1.2456 1.3262 1.2546
2247.259 1.4028 1.5058 1.4001 1.3248 1.3133 1.3598 1.3606 1.2385 1.1782 1.3271
2266.549 1.4935 1.4365 1.3832 1.31 1.2535 1.4629 1.567 1.6584 1.723 1.6088
2285.839 1.4398 1.3541 1.195 1.2687 1.4912 1.4861 1.4258 1.4346 1.4181 1.3653
2305.129 1.4804 1.5234 1.5297 1.5879 1.543 1.613 1.863 1.823 1.5461 1.6351
2324.418 1.6743 1.763 1.703 1.4416 1.4154 1.3417 1.2642 1.3987 1.6188 1.6406
2343.708 1.5324 1.5073 1.5745 1.4968 1.4563 1.5071 1.481 1.3695 1.4111 1.457
2362.998 1.389 1.1808 1.2274 1.389 1.2993 1.4096 1.713 1.6204 1.3724 1.3219
2382.288 1.3147 1.4591 1.4858 1.3988 1.3554 1.3111 1.328 1.2603 1.1896 1.3355
2401.578 1.5409 1.4099 1.2161 1.3005 1.3972 1.4461 1.3784 1.2899 1.2567 1.413
2420.867 1.5035 1.395 1.3765 1.4307 1.5161 1.5182 1.3858 1.327 1.3397 1.448
2440.157 1.5363 1.5339 1.4161 1.403 1.4428 1.3812 1.4137 1.4362 1.4856 1.5292
2459.447 1.6224 1.693 1.703 1.723 1.703 1.5189 1.553 1.6878 1.622 1.6563
2478.737 1.693 1.6837 1.783 1.773 1.6387 1.4317 1.4088 1.4329 1.4809 1.55
2498.026 1.5426 1.6509 1.551 1.3239 1.3119 1.2919 1.1734 1.3665 1.5184 1.4755
2517.316 1.2958 1.1887 1.2117 1.3814 1.5389 1.445 1.3876 1.4316 1.3217 1.3567
2536.606 1.5416 1.4134 1.5322 1.4892 1.16 1.1223 1.3461 1.4262 1.3819 1.3655
2555.896 1.1342 1.0073 1.086 1.2777 1.254 1.1171 1.0804 1.437 1.645 1.4661
2575.186 1.6836 1.793 1.6109 1.4345 1.2772 1.1858 1.287 1.4969 1.529 1.3724
2594.475 1.392 1.723 1.893 1.883 1.943 1.933 1.6121 1.2725 1.4425 1.4346
2613.765 1.5437 1.6127 1.4436 1.693 1.743 1.3583 1.2296 1.4824 1.4191 1.3345
2633.055 1.5704 1.6022 1.5533 1.6236 1.713 1.6852 1.5652 1.4713 1.2603 1.3348
2652.345 1.4413 1.3543 1.5696 1.6728 1.6044 1.4555 1.2888 1.1905 1.1383 1.2339
2671.634 1.2317 1.1549 1.2843 1.3626 1.3816 1.4211 1.11 1.2291 1.5525 1.4498
2690.924 1.4868 1.6175 1.6596 1.4716 1.6337 1.6707 1.5073 1.3983 1.3803 1.5822
2710.214 1.6251 1.833 1.843 1.943 1.983 1.853 1.893 2.113 2.283 2.103
2729.504 2.333 2.643 2.783 3.023 3.083 2.963 3.023 3.013 2.873 2.903
2748.794 2.763 2.523 2.373 2.293 2.253 2.313 2.063 1.963 2.503 2.793
2768.083 2.853 3.063 3.113 3.073 3.203 3.153 3.073 2.993 2.963 3.213
2787.373 3.333 3.033 2.943 3.213 3.383 3.273 3.053 2.933 3.253 3.513
2806.663 3.253 3.113 3.343 3.603 3.533 3.523 3.463 3.513 3.853 4.163
2825.953 4.413 4.563 4.463 4.113 4.083 4.493 5.083 5.323 5.293 5.283
2845.242 5.613 6.233 6.713 7.133 7.493 8.033 8.603 9.423 9.903 10.573
2864.532 12.023 12.973 13.943 15.413 16.833 18.053 19.133 19.843 20.193 20.493
2883.822 20.713 20.783 20.473 20.293 20.393 20.283 20.653 21.513 22.633 23.963
2903.112 25.073 26.403 28.033 29.743 31.513 33.093 34.813 36.263 37.403 38.673
2922.401 39.523 40.663 42.353 44.003 45.803 47.843 49.603 50.583 50.523 49.473
2941.691 47.943 45.663 42.803 39.793 37.123 34.983 33.503 32.263 31.843 32.573
2960.981 32.813 32.723 33.473 34.493 35.423 36.913 39.263 42.083 44.763 48.933
2980.271 52.963 55.553 56.943 56.613 55.803 53.953 51.093 48.453 45.783 43.093
2999.561 40.883 39.203 37.113 35.153 34.323 33.163 31.623 30.703 30.193 29.913
3018.850 29.893 30.333 30.763 30.693 30.573 30.603 29.793 27.883 25.143 22.433
3038.140 20.193 18.603 17.553 16.793 16.443 16.223 16.363 16.343 16.083 15.613
3057.430 15.023 14.683 13.903 12.683 11.833 10.873 9.993 9.173 8.393 7.893
3076.720 7.593 7.473 7.293 7.103 6.823 6.613 6.423 6.033 6.083 6.073
3096.009 5.453 5.403 5.703 5.553 5.113 4.723 4.553 4.483 4.073 3.503
3115.299 3.463 3.423 2.983 2.833 3.023 3.393 3.363 3.043 3.173 3.133
3134.589 2.893 2.743 2.543 2.633 2.543 2.373 2.463 2.333 2.123 2.303
3153.879 2.393 2.053 2.203 2.483 2.053 1.923 2.063 1.963 1.783 1.677
3173.169 1.903 2.083 2.073 2.133 2.143 1.803 1.247 1.3857 1.893 1.793
3192.458 2.103 2.553 2.033 1.3973 1.6004 1.973 1.903 1.863 1.873 1.873
3211.748 1.793 1.6628 1.4057 1.1598 1.3523 1.5486 1.703 1.773 1.6382 1.763
3231.038 1.873 1.5312 1.4057 1.5826 1.1755 1.0897 1.2491 1.4076 1.883 1.6377
3250.328 1.1657 1.5688 1.5591 1.1554 1.1678 1.157 1.2348 1.073 0.8573 0.8094
3269.617 0.8285 1.1471 1.3181 1.268 1.5019 1.723 1.3444 0.9477 1.1782 1.688
3288.907 1.4155 1.3224 1.5185 1.1312 0.9418 0.71349 0.8874 1.2321 1.0473 1.0484
3308.197 1.2593 1.2451 1.0679 0.8692 1.0797 0.8156 0.6492 0.9442 1.1483 0.9476
3327.487 0.75911 0.8553 1.0544 1.2689 0.9952 0.72303 0.9562 1.0535 1.0678 0.8188
3346.777 0.546 0.9719 0.9856 0.592 0.8288 0.76932 0.8806 1.3791 1.5515 1.743
3366.066 1.5174 1.1169 1.0658 1.4417 1.5429 0.9192 0.71884 1.1799 0.9328 0.8684
3385.356 1.0328 1.0859 1.2592 1.205 0.7546 0.44 0.79081 0.911 0.8476 0.7977
3404.646 0.72462 1.0138 0.957 0.68608 0.75431 0.8376 0.8728 0.7297 0.70936 1.0037
3423.936 1.0471 1.3274 1.3583 0.6802 0.583 0.6122 0.78561 1.0319 0.8984 1.1122
3443.225 1.1555 1.2372 1.2133 1.0054 0.8247 0.6424 0.6057 0.7975 0.9942 0.8713
3462.515 0.6399 0.6179 0.9052 1.0431 1.0538 1.261 0.9562 0.75031 0.9386 0.75302
3481.805 0.71414 0.8475 0.9889 1.0368 0.9105 1.1025 1.3821 1.1511 1.1618 1.172
3501.095 0.9135 0.5994 0.71327 0.9945 0.414 0.208 0.6709 0.6695 0.7949 1.1586
3520.385 1.0938 0.8866 0.9592 1.2107 1.2786 1.0799 1.0521 0.951 0.6635 1.0861
3539.674 0.76089 0.01 0.495 0.49 0.33 0.504 0.459 0.334 0.459 0.561
3558.964 0.226 0 0.094 0.521 0.9516 1.0391 0.9576 1.0183 0.9154 0.837
3578.254 0.6367 0.437 0.73174 0.9169 0.7491 0.73893 1.0758 1.2322 0.8768 0.72413
3597.544 1.0554 1.2122 0.9135 0.441 0.376 0.473 0.371 0.307 0.46 0.72259
3616.833 0.7558 0.74354 1.098 1.2605 1.1032 1.0241 1.1675 1.3262 0.71615 0.6255
3636.123 1.1766 1.2357 1.185 0.822 0.9089 1.0039 0.9796 0.9258 0.8678 0.6263
3655.413 0.325 0.421 0.537 0.8531 0.603 0.553 1.0948 1.222 0.8455 0.396
3674.703 0.413 0.8819 1.0531 0.45 0.413 0.915 0.6582 0.372 0.55 0.74379
3693.993 0.8144 0.9441 1.2335 0.78081 0.549 0.8385 0.828 0.584 0.349 0.559
3713.282 0.6822 0.9735 0.7951 0.393 0.5 1.0918 1.3827 1.2015 1.1389 1.1406
3732.572 1.3981 1.5771 1.2494 1.111 1.1931 1.4607 1.5924 1.1309 0.8529 1.0212
3751.862 1.259 1.0656 0.77859 0.9843 1.3595 1.1911 0.9195 1.2453 1.4199 0.73306
3771.152 0.477 0.302 0.511 1.2922 0.77353 0.53 0.72307 0.9068 1.3255 1.3264
3790.441 0.9058 0.846 1.3231 1.3931 1.3242 1.3388 1.963 1.6359 1.0265 1.5942
3809.731 1.6391 1.278 0.9452 1.0023 0.9491 0.74943 1.084 1.0653 1.1208 1.4575
3829.021 1.3085 0.8263 0.76711 1.2501 1.0323 0.8421 1.3503 1.5123 1.743 1.3042
3848.311 0.513 0.75138 0.6266 0.421 0.697085 0.8563 1.0012 1.0566 1.2035 1.2436
3867.601 1.1725 0.8689 0.669 0.68574 0.9052 1.362 1.172 0.78163 0.9674 1.2316
3886.890 1.1197 0.8318 1.2186 1.763 1.3772 0.9515 1.0437 1.36 1.763 1.773
3906.180 1.148 0.68934 1.2934 1.6583 1.4787 1.36 1.4908 1.6445 1.2611 1.0655
3925.470 1.1778 1.2576 1.386 1.6668 1.6457 1.2554 1.3332 1.4669 1.1998 1.3638
3944.760 1.5697 1.354 1.3881 1.3791 0.9188 0.6436 1.0464 1.3916 1.4411 1.4437
3964.049 1.5684 1.703 1.3735 1.2069 1.4826 1.6267 1.6273 1.4477 1.4317 1.3657
3983.339 1.2942 1.5686 1.4545 1.773 1.953 1.773 1.3213 1.1595 1.3823 1.2219
##END=
