##TITLE=6-Chlorochroman-4-one
##JCAMP-DX=4.24
##DATA TYPE=INFRARED SPECTRUM
##ORIGIN=EPA-IR VAPOR PHASE LIBRARY
##OWNER=SRD/NIST
Collection (C) 2018 copyright by the U.S. Secretary of Commerce
on behalf of the United States of America. All rights reserved.
##CAS REGISTRY NO=37674-72-9
##MOLFORM=C 9 H 7 Cl O 2
##$NIST SOURCE=MSDC-IR
##STATE=gas
##XUNITS=1/CM
##YUNITS=ABSORBANCE
##XFACTOR=1.
##YFACTOR=0.001
##DELTAX=1.92898
##FIRSTX=549.8
##LASTX=4000.7
##FIRSTY=23.082
##MAXX=4000.7
##MINX=549.759
##MAXY=0.263462
##MINY=0
##NPOINTS=1790
##XYDATA=(X++(Y..Y))
549.759 23.082 19.512 15.802 13.282 9.922 8.122 7.962 7.122 6.472 5.482
569.049 5.142 5.382 4.592 3.672 2.902 2.912 2.592 2.052 2.272 2.072
588.339 1.562 1.432 0.9117 0 0.5895 1.0702 1.2222 1.542 1.682 1.682
607.628 1.1787 1.199 1.372 1.3549 1.642 2.642 3.742 3.912 4.382 6.022
626.918 8.932 13.022 17.982 23.132 27.372 29.962 31.412 31.792 29.842 26.652
646.208 22.372 16.212 10.802 7.812 5.882 4.812 4.782 4.372 4.252 4.842
665.498 5.462 6.172 6.812 7.152 7.292 7.242 6.992 6.662 5.862 4.552
684.787 3.432 3.222 3.042 2.242 1.802 2.032 2.162 2.072 2.112 1.942
704.077 1.772 2.332 2.742 2.652 3.312 4.562 5.772 7.162 8.262 8.372
723.367 8.272 8.482 8.952 9.102 8.532 8.072 8.122 8.552 9.192 9.432
742.657 9.522 9.522 9.052 8.452 7.562 6.882 6.372 5.342 4.532 4.272
761.947 3.892 3.452 3.242 3.012 2.272 1.902 1.622 1.502 1.792 1.762
781.236 1.812 2.032 2.082 2.012 1.832 1.912 2.482 3.172 3.552 3.732
800.526 4.782 5.912 6.872 8.772 11.472 14.742 18.572 22.472 25.952 29.612
819.816 34.912 41.842 43.602 35.952 29.312 26.702 24.002 21.842 19.152 16.822
839.106 15.792 15.602 15.422 14.932 14.212 13.692 12.802 11.182 9.302 7.202
858.395 6.582 6.902 7.402 8.242 8.802 9.692 10.682 11.112 11.572 12.162
877.685 12.132 11.312 10.212 9.362 8.802 8.292 7.962 8.052 8.642 9.752
896.975 10.752 11.512 12.222 13.042 13.322 12.192 11.022 10.082 9.582 9.342
916.265 9.402 9.832 9.752 9.792 10.302 10.762 10.992 10.882 9.702 8.422
935.555 7.452 6.292 5.552 4.802 3.972 3.752 3.262 2.742 2.562 2.322
954.844 2.162 2.242 2.022 1.912 2.032 1.662 1.642 1.742 1.592 1.622
974.134 1.692 1.792 1.412 1.3469 1.772 1.882 2.122 2.202 2.152 2.202
993.424 2.372 2.272 2.072 2.272 2.172 2.162 2.632 2.802 2.612 2.382
1012.714 3.472 4.942 6.132 8.322 10.282 12.532 16.592 21.572 26.752 32.032
1032.003 36.402 38.422 39.302 39.362 36.712 32.962 28.322 23.132 19.402 16.902
1051.293 15.172 14.782 15.442 16.012 16.202 16.112 14.802 13.352 13.022 12.002
1070.583 9.662 8.492 7.872 8.372 10.492 12.292 13.382 14.022 16.142 18.002
1089.873 19.382 20.372 19.942 19.532 19.272 17.172 15.562 14.022 11.122 9.772
1109.163 9.592 9.562 9.472 8.882 9.082 12.382 17.542 23.022 27.812 31.012
1128.452 33.512 34.052 33.112 31.812 28.242 23.632 17.962 12.252 10.162 8.722
1147.742 7.352 8.012 8.692 9.282 10.262 11.872 13.802 16.302 19.112 21.432
1167.032 24.612 27.132 28.692 30.582 31.692 31.882 30.412 28.692 27.362 25.032
1186.322 21.802 19.422 18.942 17.802 17.142 18.102 20.372 23.102 27.052 31.142
1205.611 33.912 36.932 37.222 36.532 35.822 34.532 33.452 30.432 27.092 25.372
1224.901 25.282 25.842 25.512 25.492 26.702 28.962 30.682 31.802 34.362 37.782
1244.191 41.452 45.252 48.972 51.442 54.072 58.382 63.922 73.852 90.532 114.992
1263.481 146.552 181.332 213.742 239.912 257.692 263.462 255.192 233.802 202.332 164.532
1282.771 125.642 90.792 64.272 46.652 35.172 27.912 22.932 19.162 16.632 14.842
1302.060 13.522 12.892 12.322 11.742 11.222 10.502 9.772 9.162 8.582 7.712
1321.350 6.732 5.942 5.262 4.642 4.132 3.752 3.592 3.622 3.532 3.422
1340.640 3.452 3.502 3.612 3.692 3.772 3.822 3.892 4.132 4.402 4.512
1359.930 4.662 4.982 5.272 5.872 6.912 8.342 10.302 12.592 14.592 16.162
1379.219 17.542 18.682 19.842 20.712 20.632 20.282 20.272 20.782 22.232 24.432
1398.509 27.292 31.712 37.712 44.952 53.322 61.792 69.692 77.122 83.282 87.282
1417.799 88.382 86.712 83.262 78.492 72.302 64.812 57.092 50.822 46.422 43.092
1437.089 40.242 38.422 37.422 37.392 38.642 40.762 44.522 50.172 58.282 68.692
1456.378 80.092 88.942 92.262 92.982 93.862 95.502 98.162 101.022 104.582 111.432
1475.668 120.752 129.842 135.612 136.012 130.382 118.782 102.862 85.582 68.112 52.532
1494.958 40.092 30.772 24.312 19.912 16.842 14.352 12.252 10.502 9.152 8.232
1514.248 7.492 6.642 5.812 5.262 4.892 4.502 4.192 3.852 3.602 3.552
1533.538 3.432 3.482 3.642 3.632 3.862 3.882 3.892 4.302 4.512 4.772
1552.827 5.362 6.032 6.732 7.452 8.422 9.442 10.282 11.132 11.802 12.352
1572.117 12.842 12.972 13.212 13.652 14.092 14.712 15.652 17.412 19.822 22.812
1591.407 26.162 29.462 32.542 35.322 38.032 40.412 41.972 42.422 41.902 40.352
1610.697 38.022 34.852 30.902 26.552 22.062 17.922 14.352 11.372 9.472 8.252
1629.986 7.422 7.182 7.052 7.142 7.432 7.842 8.292 8.302 8.132 8.182
1649.276 8.042 7.712 7.222 6.522 6.082 5.772 5.672 5.842 6.232 6.572
1668.566 6.732 7.072 7.552 8.202 9.042 10.052 11.242 12.392 13.902 15.702
1687.856 17.492 19.842 22.802 26.242 31.212 37.462 44.992 55.382 67.782 82.922
1707.146 100.462 119.632 138.222 153.322 161.992 164.102 162.792 161.242 156.172 142.532
1726.435 121.352 98.362 77.992 61.922 48.912 39.162 32.052 26.722 22.752 19.632
1745.725 17.322 15.502 14.042 12.672 11.592 10.762 10.042 9.532 9.112 8.732
1765.015 8.582 8.682 8.562 8.392 8.302 8.132 8.052 7.692 7.192 6.862
1784.305 6.792 6.692 6.422 6.162 5.902 5.792 5.612 5.412 5.312 4.992
1803.594 4.742 4.552 4.342 4.182 3.972 3.712 3.382 3.122 2.882 2.702
1822.884 2.552 2.402 2.302 2.392 2.452 2.372 2.412 2.512 2.622 2.822
1842.174 3.032 3.212 3.392 3.492 3.522 3.622 3.562 3.232 3.092 2.992
1861.464 2.712 2.542 2.462 2.352 2.382 2.442 2.412 2.392 2.542 2.712
1880.754 2.752 2.892 3.252 3.472 3.442 3.652 3.932 3.972 4.092 4.182
1900.043 4.032 3.972 3.922 3.552 3.142 2.962 2.742 2.432 2.152 2.082
1919.333 2.002 1.922 2.042 1.992 1.892 1.942 1.872 1.862 1.912 1.992
1938.623 2.032 2.012 1.972 1.832 1.722 1.812 1.942 1.942 2.002 2.042
1957.913 2.082 2.032 1.892 1.832 1.802 1.862 1.892 1.812 1.792 1.662
1977.202 1.542 1.632 1.692 1.662 1.612 1.592 1.842 1.852 1.732 1.852
1996.492 1.862 1.722 1.592 1.632 1.722 1.602 1.552 1.742 1.772 1.622
2015.782 1.532 1.462 1.482 1.572 1.492 1.412 1.462 1.462 1.502 1.502
2035.072 1.522 1.582 1.442 1.612 1.762 1.792 1.882 1.852 1.882 2.002
2054.362 1.952 1.812 1.952 2.022 1.982 1.992 1.972 1.972 1.672 1.412
2073.651 1.412 1.2819 1.2656 1.422 1.522 1.572 1.502 1.432 1.412 1.372
2092.941 1.412 1.3525 1.432 1.662 1.652 1.582 1.692 1.812 1.822 1.682
2112.231 1.512 1.602 1.702 1.622 1.542 1.512 1.412 1.3296 1.432 1.402
2131.521 1.3129 1.3336 1.2632 1.2813 1.176 1.1982 1.3065 1.1654 1.2644 1.288
2150.810 1.191 1.197 1.2592 1.1659 1.1118 1.3546 1.382 1.3414 1.432 1.402
2170.100 1.354 1.2673 1.1643 1.2303 1.1551 1.0879 1.1112 1.0924 1.06 0.9771
2189.390 0.9878 1.0209 1.0034 1.0229 1.0007 0.9583 1.0509 1.0706 1.0693 0.996
2208.680 1.0723 1.1226 0.9613 0.9243 0.9617 1.0689 1.2434 1.2827 1.2178 1.1855
2227.970 1.1357 1.1355 1.2213 1.432 1.492 1.402 1.372 1.492 1.412 1.1526
2247.259 1.2278 1.3198 1.3489 1.492 1.356 1.2405 1.296 1.432 1.542 1.402
2266.549 1.2862 1.392 1.442 1.3274 1.432 1.522 1.412 1.562 1.682 1.522
2285.839 1.2471 1.1384 1.3148 1.502 1.702 1.672 1.542 1.592 1.532 1.492
2305.129 1.412 1.412 1.462 1.392 1.472 1.482 1.542 1.482 1.2933 1.362
2324.418 1.442 1.372 1.3361 1.492 1.592 1.592 1.472 1.382 1.512 1.382
2343.708 1.2688 1.552 1.612 1.502 1.422 1.3268 1.2279 1.2182 1.2688 1.2281
2362.998 1.1145 1.0745 1.124 1.0934 1.0218 1.1306 1.362 1.3616 1.3506 1.472
2382.288 1.442 1.432 1.572 1.382 1.1416 1.2124 1.3339 1.346 1.402 1.632
2401.578 1.712 1.792 1.792 1.482 1.472 1.732 1.732 1.602 1.462 1.502
2420.867 1.592 1.472 1.3341 1.2943 1.532 1.552 1.402 1.2896 1.3469 1.472
2440.157 1.402 1.382 1.482 1.542 1.412 1.422 1.662 1.502 1.2842 1.402
2459.447 1.392 1.422 1.3334 1.2314 1.502 1.3274 1.2228 1.572 1.482 1.2623
2478.737 1.382 1.482 1.2227 1.2202 1.2745 1.2495 1.3243 1.35 1.3004 1.2093
2498.026 1.197 1.253 1.1491 0.7531 0.8366 1.2363 1.0709 0.703 0.7828 1.0665
2517.316 1.039 0.9478 1.0495 1.0027 0.9862 1.0241 0.978 1.1516 1.362 1.552
2536.606 1.552 1.452 1.3577 1.422 1.532 1.362 1.2381 1.1018 1.2137 1.382
2555.896 1.2704 1.1636 1.2066 1.422 1.612 1.402 1.2221 1.2488 1.2698 1.2466
2575.186 1.0968 1.0226 1.0074 1.422 1.682 1.512 1.2974 1.0797 0.9973 1.114
2594.475 1.2209 1.3516 1.1093 0.942 1.2203 1.2386 1.2071 1.0534 1.0201 0.9884
2613.765 0.805 0.9648 1.1024 0.8336 0.7076 0.8589 0.9615 0.9255 0.8425 0.9173
2633.055 0.9512 0.7993 0.9875 1.295 1.2954 1.3321 1.2726 1.2268 1.3488 1.3419
2652.345 1.2675 1.2038 1.1842 1.3071 1.3485 1.2585 1.3507 1.0799 0.8315 0.9662
2671.634 1.1813 1.402 1.2668 1.3322 1.422 1.126 1.1573 1.17 1.0002 1.2649
2690.924 1.322 1.2664 1.452 1.502 1.372 1.392 1.2218 0.9069 1.1248 1.2487
2710.214 1.133 1.2833 1.2882 1.3591 1.452 1.382 1.532 1.622 1.622 1.632
2729.504 1.832 2.012 2.122 2.542 2.752 3.002 3.102 2.972 2.812 2.862
2748.794 3.092 2.842 2.732 2.512 2.042 1.792 1.872 1.832 1.642 1.622
2768.083 1.692 1.592 1.492 1.592 1.552 1.562 1.622 1.712 1.852 1.752
2787.373 1.772 1.972 1.862 1.702 1.752 1.832 1.742 1.792 1.762 1.842
2806.663 1.952 1.962 2.052 2.122 2.152 2.182 2.342 2.162 2.032 2.382
2825.953 2.542 2.302 2.482 2.922 3.002 2.902 2.962 3.172 3.382 3.372
2845.242 3.302 3.422 3.462 3.712 3.842 3.682 3.882 4.132 4.292 5.022
2864.532 5.982 7.072 8.592 10.382 12.462 15.022 18.542 22.292 25.182 27.792
2883.822 29.312 28.072 25.532 22.752 19.822 17.122 14.232 11.912 10.352 8.772
2903.112 7.582 7.312 7.292 7.222 7.372 7.722 8.012 8.392 9.082 9.592
2922.401 9.622 9.612 9.692 9.542 9.162 8.892 8.412 8.092 7.972 7.392
2941.691 7.142 7.152 7.032 6.432 5.912 5.802 5.752 5.762 5.392 5.462
2960.981 6.122 6.662 7.122 8.152 9.742 11.462 13.022 13.922 14.502 15.032
2980.271 15.092 15.282 16.352 18.452 22.602 28.242 32.732 34.132 34.082 33.542
2999.561 31.642 28.352 22.512 15.192 9.552 6.022 3.982 3.292 2.552 1.892
3018.850 1.822 1.812 2.062 2.202 2.112 1.802 1.712 1.652 1.642 1.852
3038.140 1.802 1.762 1.942 2.192 1.892 1.902 2.252 2.402 2.642 2.722
3057.430 2.592 2.482 2.612 2.962 3.742 4.222 4.412 4.982 5.182 5.422
3076.720 5.582 5.532 5.432 5.242 4.972 4.282 3.392 2.772 2.572 2.142
3096.009 1.922 2.072 2.052 2.002 1.932 1.472 1.2014 1.672 1.822 1.612
3115.299 1.462 1.2559 1.0528 0.8751 1.1175 0.9661 0.6237 0.8515 1.1235 1.0787
3134.589 1.2499 1.562 1.2149 0.8951 0.9753 0.9759 0.7848 0.7237 0.824 0.7016
3153.879 0.7202 0.8758 0.8948 0.8532 0.8214 1.0537 1.3193 1.392 1.762 1.642
3173.169 1.1457 1.422 1.462 1.1232 0.8609 0.6864 0.929 1.0554 0.666 0.66
3192.458 0.9873 1.0295 0.9881 1.0809 0.9243 0.6138 0.8754 1.1608 0.8857 0.6059
3211.748 0.6773 0.8407 0.6292 0.7756 0.8108 0.6075 0.7707 0.4907 0.5876 1.0192
3231.038 1.0098 0.9421 1.1838 1.2105 0.6509 0.5009 0.8898 0.7739 0.5405 0.8876
3250.328 0.7888 0.6694 0.9422 0.8696 0.9802 0.9512 0.5785 0.38911 0.45193 0.8048
3269.617 0.5371 0.4795 0.5954 0.6145 0.9445 0.6727 0.5176 0.45576 0.3451 0.709
3288.907 0.5252 0.163 0.6375 1.0423 0.7909 0.491 0.5579 0.6228 0.7171 0.8151
3308.197 0.8482 0.7339 0.6524 0.363725 0.38754 0.604 0.8412 0.829 0.7368 0.883
3327.487 0.5479 0.7484 0.9832 0.6645 0.42054 0.4756 0.6496 0.7701 1.0038 1.2548
3346.777 0.9524 0.42417 0.5036 0.8192 0.5397 0.6068 1.1325 0.6491 0.368483 0.969
3366.066 1.2359 1.0952 1.1652 1.402 1.1642 0.8024 0.9469 1.0505 1.0083 1.1073
3385.356 1.1677 1.422 1.642 1.692 1.522 1.502 1.762 1.912 2.142 2.632
3404.646 2.792 2.692 3.122 3.142 2.772 3.232 3.292 3.002 3.232 3.172
3423.936 3.152 2.822 2.692 2.452 1.762 1.572 1.902 1.992 1.382 0.9582
3443.225 0.9293 1.0588 1.392 1.3088 0.7968 0.5833 0.8121 1.191 0.8564 0.4908
3462.515 0.5521 0.3509 0.5493 0.8266 0.6966 1.0776 1.392 0.648 0.5456 0.6467
3481.805 0.3428 0.67 0.9168 0.9671 0.8662 0.8455 1.0005 1.015 0.5588 0.245
3501.095 0.44766 0.6893 1.057 1.2691 0.9169 0.7038 0.9023 0.9907 0.4929 0.4661
3520.385 0.7192 0.5064 0.6854 0.7306 0.343 0.16 0.2622 0.40872 0.7953 1.0705
3539.674 1.0002 1.0799 1.1159 0.9796 0.8625 1.0939 1.0258 0.5045 0.5541 1.0169
3558.964 0.9233 0.7561 0.659 0.42813 0.169 0.6198 1.0792 0.83 0.83 0.5519
3578.254 0.7339 0.40807 0.351 0.9457 0.7783 0.6257 0.8278 0.9212 1.0351 0.9351
3597.544 0.2882 0.222 0.9275 0.8482 0.8526 1.1637 0.6298 0.5457 0.5795 0.366946
3616.833 0.2755 0.251 0.42729 0.7705 0.7332 0.2661 0.17 0.5129 0.7006 0.6007
3636.123 0.42559 0.751 0.7978 0.6132 0.7509 0.4852 0.197 0.2925 0.40803 0.4823
3655.413 0.7497 0.7825 0.45413 0.554 0.8693 0.46157 0.102 0.44752 0.5587 0.38212
3674.703 0.5265 0.8528 0.695 0.3303 0.6444 0.7431 0.5978 0.5641 0.6421 0.7905
3693.993 0.8083 1.1582 1.372 1.023 0.5354 0.3351 0.8807 1.492 1.0673 1.0583
3713.282 1.422 1.1949 1.402 1.295 0.7749 1.0468 1.3183 0.8979 0.5531 0.6736
3732.572 0.5463 0.151 0.3034 0.7127 0.7002 0.5703 0.5846 0.5744 0.6135 0.8296
3751.862 0.8547 0.6118 1.0351 1.482 1.0736 0.6272 0.7103 1.1862 1.0464 0.843
3771.152 1.0526 0.8945 0.7962 0.8023 0.5882 0.7127 0.8394 0.7636 0.63 0.6711
3790.441 0.8951 0.6723 0.7411 0.9238 0.8673 0.7365 0.513 0.41593 0.40738 0.6953
3809.731 0.41201 0.3345 0.8577 0.4741 0.7095 1.1954 0.9642 0.4874 0.301 0.7523
3829.021 1.0786 1.0542 1.362 1.3177 0.8533 1.0209 1.0243 1.0654 1.0161 1.3025
3848.311 1.0188 0.185 0.123 0.3518 0.45834 0.5613 0.462 0.016 0.086 0.5537
3867.601 0.6487 0.8341 0.7697 0.5776 1.0214 0.9964 0.6045 0.5514 0.6794 0.6944
3886.890 0.929 1.0545 0.6467 0.5014 0.3337 0.4716 1.0391 0.8454 0.766 1.027
3906.180 0.9407 0.8879 0.9009 0.9999 1.1271 1.3415 1.402 1.1376 1.362 1.3282
3925.470 0.9422 0.8345 0.9516 1.3596 1.422 1.392 1.2622 1.0356 0.986 0.634
3944.760 0.829 1.442 1.462 1.2606 1.1699 1.2573 0.8072 0.3205 0.608 0.8501
3964.049 0.9846 0.9941 1.0274 1.0954 1.0318 1.204 1.2044 1.1408 1.0335 0.7972
3983.339 0.7854 0.5054 0.4753 0.8424 0.9516 0.8837 1.2254 1.402 0.7102 0.6078
##END=
