##TITLE=N,N,N'N'-Tetramethylsulfamide
##JCAMP-DX=4.24
##DATA TYPE=INFRARED SPECTRUM
##ORIGIN=EPA-IR VAPOR PHASE LIBRARY
##OWNER=SRD/NIST
Collection (C) 2018 copyright by the U.S. Secretary of Commerce
on behalf of the United States of America. All rights reserved.
##CAS REGISTRY NO=3768-63-6
##MOLFORM=C 4 H 12 N 2 O 2 S
##$NIST SOURCE=MSDC-IR
##STATE=gas
##XUNITS=1/CM
##YUNITS=ABSORBANCE
##XFACTOR=1.
##YFACTOR=0.001
##DELTAX=1.92898
##FIRSTX=549.8
##LASTX=4000.7
##FIRSTY=11.06
##MAXX=4000.7
##MINX=549.759
##MAXY=0.16372
##MINY=0
##NPOINTS=1790
##XYDATA=(X++(Y..Y))
549.759 11.06 9.55 7.87 6.55 5.45 4.81 4.5 3.95 3.68 3.41
569.049 3.12 2.85 2.62 2.55 2.53 2.32 2.08 2.09 2.34 2.27
588.339 2.06 2.11 2.06 2.19 1.97 1.53 1.63 1.79 1.86 1.82
607.628 1.72 1.77 1.83 1.99 2.1 2.02 1.97 2.05 2.36 2.37
626.918 2.15 2.35 2.54 2.74 3.16 3.31 3.45 3.8 4.39 5.26
646.208 6.11 7.34 9.08 11.01 13.16 15.51 18.09 20.75 23.44 26.34
665.498 29.39 31.98 33.16 33.11 31.84 30.01 28.35 26.48 24.42 21.72
684.787 18.59 15.67 13.22 11.42 9.82 8.82 8.59 8.49 8.65 8.93
704.077 9.4 10.27 11.24 12.32 13.77 15.46 17.5 19.66 22.14 25.46
723.367 29.4 34.01 39.23 45.57 53.34 62 71.41 81.64 92.09 101.7
742.657 109.97 116.61 121.42 123.99 123.44 119.41 112.69 104.5 95.18 84.48
761.947 72.49 59.9 47.82 36.78 27.7 21.08 16.41 13.17 10.88 9.12
781.236 7.7 6.68 5.91 5.34 4.88 4.52 4.29 3.98 3.65 3.32
800.526 3.07 2.84 2.69 2.53 2.27 2.28 2.18 2.11 2.17 2.08
819.816 1.89 1.86 2.02 2.09 2.05 2.05 2.17 2.25 2.17 2.13
839.106 2.17 1.94 2.06 2.3 2.21 2.16 2.28 2.51 2.55 2.61
858.395 2.59 2.78 3.09 3.06 3.1 3.27 3.53 3.69 3.77 4.1
877.685 4.59 5.08 5.48 5.94 6.48 6.94 7.49 8.23 9.1 10.14
896.975 11.21 12.19 13.42 14.88 16.5 18.25 20.23 22.5 24.73 27.27
916.265 30.54 34.16 38.19 42.89 48.02 54.26 61.55 69.73 78.4 87.67
935.555 97.59 107.38 116.97 125.69 133.13 139.14 143.4 145.56 145.59 143.26
954.844 139.13 133.15 125.09 116.22 106.56 96.36 86.61 77.57 69.18 61.84
974.134 55.3 49.45 44.46 40.14 36.28 32.85 29.99 27.65 25.59 23.8
993.424 22.07 20.46 19 17.53 16.33 15.55 14.92 14.37 13.61 12.8
1012.714 12.52 12 11.65 11.35 10.83 10.73 10.71 10.65 10.71 11.05
1032.003 11.72 12.16 12.79 13.58 13.97 14.55 15.47 16.25 16.89 17.67
1051.293 18.41 18.76 18.77 18.61 18.29 18.12 17.71 16.51 15.31 14.4
1070.583 13.64 12.65 11.7 11.26 10.97 10.58 9.98 9.47 8.87 8.34
1089.873 8.01 7.73 7.94 8.27 7.97 7.77 7.77 7.54 7.54 8.06
1109.163 8.1 7.68 8.47 9.12 9.26 9.53 9.53 9.75 10.66 11.67
1128.452 12.73 14.65 17.1 20.49 24.88 30.44 38.12 46.73 57.45 70.23
1147.742 83.23 96.03 107.24 117 126.61 138.06 149.87 154.53 145.13 128.19
1167.032 115.18 107.81 101 91.51 79.85 67.12 55.93 47.6 41.99 38.57
1186.322 36.65 36 35.47 35.51 35.95 35.8 35.24 34.89 34.95 34.49
1205.611 33.84 33.18 32.61 32.02 31.15 30.25 29.03 27.87 26.75 25.9
1224.901 25.59 25.06 24.36 23.86 23.83 23.98 24.02 24.18 24.61 25.59
1244.191 26.63 27.53 28.73 30.13 31.71 33.3 34.64 35.54 36.15 36.8
1263.481 36.97 36.61 35.91 35.29 34.26 32.77 31.24 29.51 27.77 25.97
1282.771 24.31 22.78 21.52 20.29 19.19 18.34 17.47 16.62 15.98 15.56
1302.060 15.16 14.89 14.68 14.47 14.36 14.47 14.75 15.21 15.88 16.75
1321.350 17.97 19.63 21.79 24.57 27.96 32.2 37.61 44.21 52.24 61.8
1340.640 72.66 84.5 97.03 109.57 121.89 133.74 144.64 154.16 161.03 163.72
1359.930 161.55 155.16 146.04 135.73 124.61 112.76 100.38 87.71 75.24 63.75
1379.219 53.57 45.02 38.01 32.43 28 24.53 21.98 19.99 18.48 17.52
1398.509 16.97 16.73 16.73 16.91 17.19 17.41 17.69 18.08 18.45 18.89
1417.799 19.24 19.18 18.77 18.28 18.05 18.02 18.02 18.06 18.16 18.36
1437.089 18.68 19.13 19.59 20.02 20.58 21.17 21.67 22.06 22.43 22.86
1456.378 23.25 23.65 24.01 24.27 24.38 24.38 24.31 24.01 23.59 23.08
1475.668 22.48 21.82 21.12 20.37 19.49 18.6 17.7 16.82 15.87 14.96
1494.958 14.24 13.38 12.58 11.91 11.27 10.64 10.05 9.51 8.97 8.45
1514.248 7.98 7.61 7.24 6.88 6.58 6.28 6.05 5.91 5.72 5.46
1533.538 5.32 5.22 5.07 4.88 4.79 4.79 4.72 4.65 4.56 4.48
1552.827 4.45 4.42 4.4 4.34 4.18 4.12 4.11 4.11 4.14 4.19
1572.117 4.2 4.14 4.04 4 4.05 4.11 4.15 4.15 4.16 4.17
1591.407 4.12 4.15 4.26 4.23 4.22 4.25 4.25 4.38 4.52 4.49
1610.697 4.38 4.34 4.35 4.27 4.16 4.12 4.03 3.92 3.91 3.83
1629.986 3.64 3.5 3.41 3.3 3.12 3 2.83 2.67 2.61 2.49
1649.276 2.36 2.26 2.19 2.16 2.07 1.96 1.91 1.9 1.87 1.82
1668.566 1.82 1.84 1.78 1.73 1.75 1.78 1.82 1.81 1.82 1.84
1687.856 1.9 1.9 1.88 1.95 1.93 1.89 1.97 2.05 2.06 2.03
1707.146 2.06 2.03 1.97 1.99 1.92 1.84 1.74 1.68 1.59 1.6
1726.435 1.54 1.41 1.44 1.34 1.2252 1.1355 1.122 1.1463 1.0696 1.055
1745.725 1.0504 0.9772 0.9853 0.9791 0.9398 0.8999 0.886 0.9556 0.9615 0.9075
1765.015 0.8999 0.9184 0.9242 0.923 0.934 0.9049 0.9421 1.0352 1.0593 1.0641
1784.305 1.0897 1.1687 1.1995 1.1777 1.1801 1.1511 1.1632 1.1718 1.141 1.1208
1803.594 1.0928 1.0201 0.9457 0.9675 0.9826 0.9843 0.9718 0.9433 0.8904 0.8349
1822.884 0.8738 0.9379 0.9011 0.8385 0.8378 0.8288 0.8037 0.783 0.7846 0.7089
1842.174 0.6563 0.6776 0.6474 0.6327 0.6237 0.5732 0.5639 0.5673 0.5528 0.5895
1861.464 0.621 0.5265 0.4836 0.5738 0.547 0.5196 0.5911 0.6323 0.6218 0.5955
1880.754 0.5912 0.5255 0.5196 0.5763 0.5684 0.5981 0.6099 0.6015 0.6589 0.7307
1900.043 0.7264 0.7039 0.6657 0.6883 0.7824 0.8056 0.7887 0.8065 0.8642 0.8901
1919.333 0.9066 0.8941 0.883 0.8994 0.9356 0.9808 0.9502 0.9348 0.9818 1.0256
1938.623 1.0443 1.0209 0.9526 0.9219 0.9004 0.8411 0.8033 0.7982 0.7802 0.7547
1957.913 0.7079 0.7172 0.7521 0.7148 0.6888 0.6561 0.6569 0.6796 0.6866 0.7056
1977.202 0.6746 0.6612 0.6511 0.5905 0.641 0.7239 0.6734 0.6483 0.6542 0.7003
1996.492 0.7402 0.8145 0.8855 0.8421 0.7998 0.7638 0.7771 0.8301 0.8814 0.91
2015.782 0.8673 0.8676 0.9536 0.9346 0.92 0.8976 0.8319 0.8026 0.7818 0.8078
2035.072 0.8063 0.708 0.6222 0.6386 0.651 0.5682 0.5383 0.5608 0.5327 0.5418
2054.362 0.5005 0.4622 0.4876 0.4639 0.4264 0.4075 0.4525 0.5704 0.5382 0.4536
2073.651 0.4567 0.4769 0.5548 0.6054 0.6046 0.5841 0.5999 0.6688 0.6714 0.633
2092.941 0.6156 0.603 0.6943 0.7591 0.6999 0.6617 0.7103 0.7406 0.7379 0.7809
2112.231 0.7238 0.7298 0.7966 0.7343 0.72 0.7149 0.6859 0.7246 0.7508 0.6989
2131.521 0.6745 0.698 0.6933 0.6762 0.6942 0.7085 0.6917 0.6801 0.682 0.6959
2150.810 0.6894 0.7189 0.7477 0.74 0.7341 0.7575 0.7563 0.6989 0.6742 0.6731
2170.100 0.6827 0.6736 0.6789 0.6675 0.6375 0.7075 0.7279 0.678 0.6474 0.6435
2189.390 0.6663 0.6682 0.6186 0.5238 0.514 0.5853 0.5858 0.5051 0.4965 0.5556
2208.680 0.573 0.5403 0.5651 0.605 0.5253 0.4246 0.3672 0.3958 0.4797 0.4908
2227.970 0.5621 0.617 0.5799 0.5531 0.5484 0.5728 0.5743 0.5308 0.5106 0.5677
2247.259 0.5886 0.5732 0.4989 0.4893 0.5231 0.5115 0.5213 0.497 0.4977 0.5248
2266.549 0.53 0.5121 0.4967 0.518 0.4954 0.453 0.4717 0.5152 0.5927 0.5948
2285.839 0.5534 0.5216 0.5077 0.4984 0.5163 0.6712 0.7288 0.7058 0.778 0.8056
2305.129 0.7986 0.8284 0.8566 0.8891 0.8592 0.8025 0.8085 0.7682 0.7473 0.7852
2324.418 0.7241 0.6987 0.6468 0.5573 0.5705 0.5345 0.5111 0.4476 0.4107 0.5227
2343.708 0.4882 0.4909 0.583 0.5803 0.6008 0.5959 0.5807 0.554 0.5342 0.6022
2362.998 0.6523 0.7196 0.772 0.7444 0.6871 0.6486 0.6491 0.638 0.6242 0.6269
2382.288 0.7002 0.7266 0.6806 0.7386 0.7569 0.7673 0.8021 0.6916 0.6394 0.6904
2401.578 0.7086 0.7281 0.7507 0.69 0.6637 0.6819 0.6559 0.6642 0.6528 0.6044
2420.867 0.6683 0.7829 0.7627 0.7022 0.6598 0.6282 0.5799 0.6196 0.6851 0.684
2440.157 0.689 0.6291 0.6679 0.7562 0.8013 0.7625 0.6421 0.6267 0.6582 0.6379
2459.447 0.6831 0.7279 0.6766 0.628 0.6722 0.7149 0.7295 0.7845 0.8307 0.846
2478.737 0.8423 0.8978 0.9389 0.9254 0.985 1.0778 1.116 1.1426 1.1328 1.1848
2498.026 1.33 1.39 1.39 1.35 1.35 1.4 1.4 1.35 1.36 1.36
2517.316 1.28 1.2264 1.25 1.28 1.2085 1.0034 0.9227 0.937 0.9047 0.8386
2536.606 0.8055 0.8983 0.9571 0.908 0.8047 0.7429 0.7326 0.7801 0.8217 0.8146
2555.896 0.827 0.8178 0.7816 0.753 0.8035 0.8407 0.7976 0.7942 0.804 0.7915
2575.186 0.8006 0.7513 0.7549 0.8423 0.8425 0.7883 0.7083 0.6847 0.7201 0.7527
2594.475 0.7656 0.7346 0.73 0.7777 0.8146 0.8554 0.8662 0.805 0.8178 0.8695
2613.765 0.9041 0.9097 0.8095 0.7652 0.8486 0.8348 0.7696 0.7799 0.8096 0.8291
2633.055 0.8801 0.9826 0.9585 0.9709 0.9911 0.9374 0.9225 0.9242 0.8956 0.8664
2652.345 0.8695 0.8442 0.9048 0.9274 0.9457 0.9525 0.9163 0.9484 0.8879 0.8673
2671.634 0.8934 0.8539 0.9046 0.8869 0.8944 0.9771 0.9625 0.948 1.0225 1.0956
2690.924 1.1158 1.0885 1.0694 1.1544 1.13 1.1084 1.1598 1.1739 1.2089 1.2174
2710.214 1.25 1.3 1.32 1.38 1.46 1.52 1.54 1.52 1.5 1.53
2729.504 1.61 1.64 1.65 1.7 1.76 1.73 1.79 1.94 2 1.99
2748.794 2.09 2.2 2.18 2.27 2.45 2.51 2.53 2.7 2.93 3.09
2768.083 3.24 3.31 3.45 3.75 3.95 4.19 4.42 4.74 5.2 5.59
2787.373 6.08 6.67 7.39 8.24 9.07 10.07 11.18 12.38 13.67 14.88
2806.663 16.12 17.4 18.56 19.48 20.18 20.77 21.21 21.25 21.15 20.97
2825.953 20.48 19.99 19.58 19.3 19.22 19.2 19.29 19.66 20.39 21.24
2845.242 22.25 23.35 24.54 25.79 27 28.1 29 29.74 30.32 30.86
2864.532 31.18 31.4 31.66 31.85 32.18 32.71 33.45 34.31 35.32 36.48
2883.822 37.81 39.25 40.72 42.19 43.52 44.69 45.83 46.75 47.39 47.95
2903.112 48.26 48.47 48.72 48.81 48.92 49.35 49.83 50.34 51.15 51.98
2922.401 53.08 54.43 55.8 57.46 59.02 60.51 62.06 63.38 64.43 65.44
2941.691 66.19 66.63 66.7 66.44 65.89 64.91 63.82 62.39 60.68 58.57
2960.981 56.2 53.76 51.02 48 44.79 41.44 38.17 35.01 31.96 29.14
2980.271 26.55 24.25 22.4 20.92 19.59 18.57 17.78 17.07 16.63 16.44
2999.561 16.19 15.97 15.68 15.5 15.51 15.23 14.79 14.51 14.31 13.77
3018.850 13.26 12.85 12.29 11.81 11.3 10.64 9.97 9.4 8.97 8.58
3038.140 8.05 7.51 7.07 6.68 6.33 6.07 5.9 5.76 5.52 5.23
3057.430 5.05 4.9 4.72 4.59 4.48 4.52 4.46 4.24 4.11 4.01
3076.720 3.9 3.92 3.89 3.72 3.58 3.55 3.47 3.42 3.49 3.4
3096.009 3.36 3.34 3.22 3.17 3.07 2.92 2.86 2.95 2.92 2.8
3115.299 2.83 2.72 2.53 2.54 2.48 2.45 2.33 2.16 2.14 1.92
3134.589 1.9 1.96 1.85 1.89 1.99 1.87 1.73 1.66 1.61 1.62
3153.879 1.58 1.57 1.57 1.51 1.42 1.45 1.38 1.28 1.2103 1.1173
3173.169 1.0549 1.1213 1.26 1.1259 1.0137 1.0645 1.167 1.0659 0.9744 0.9936
3192.458 0.9385 0.8863 0.8994 0.898 0.8325 0.858 0.8625 0.7859 0.7903 0.7664
3211.748 0.7325 0.6539 0.5833 0.5878 0.5388 0.6462 0.5678 0.5013 0.6046 0.6537
3231.038 0.574 0.4657 0.5132 0.466 0.3721 0.3293 0.34168 0.3957 0.4882 0.4991
3250.328 0.33464 0.3816 0.4692 0.4591 0.5328 0.4745 0.4221 0.5539 0.5636 0.4297
3269.617 0.30358 0.29463 0.425 0.5074 0.5461 0.4701 0.3996 0.4348 0.421 0.4458
3288.907 0.368 0.34051 0.32077 0.27054 0.3997 0.4557 0.4127 0.4133 0.3831 0.5159
3308.197 0.6788 0.6173 0.5796 0.5587 0.4677 0.3624 0.4042 0.406 0.4996 0.4997
3327.487 0.3997 0.3738 0.4083 0.3527 0.25373 0.5137 0.6848 0.5247 0.3964 0.31414
3346.777 0.24634 0.409 0.4856 0.3898 0.419 0.4037 0.31333 0.3673 0.4535 0.34969
3366.066 0.4294 0.4333 0.3994 0.5603 0.4688 0.4794 0.6069 0.5872 0.5105 0.5973
3385.356 0.659 0.5349 0.5479 0.5166 0.3703 0.3594 0.4084 0.4983 0.4061 0.33958
3404.646 0.4051 0.3648 0.3665 0.3819 0.33349 0.30598 0.33734 0.2875 0.2174 0.3863
3423.936 0.3969 0.24306 0.29218 0.31238 0.4766 0.5841 0.4482 0.30807 0.3405 0.4216
3443.225 0.27623 0.2807 0.3826 0.3533 0.252318 0.2691 0.4686 0.4072 0.30932 0.29543
3462.515 0.3323 0.3999 0.31213 0.2242 0.1818 0.2193 0.28771 0.3943 0.4328 0.28325
3481.805 0.1732 0.27758 0.33691 0.4191 0.5411 0.3613 0.2277 0.1931 0.2307 0.29776
3501.095 0.2142 0.109 0.2108 0.3682 0.31438 0.3987 0.4646 0.30204 0.29496 0.3719
3520.385 0.3571 0.3587 0.3711 0.31156 0.3607 0.34964 0.26774 0.4148 0.4951 0.4652
3539.674 0.3834 0.27495 0.213 0.2141 0.255808 0.32373 0.4994 0.6054 0.4263 0.3557
3558.964 0.4527 0.4349 0.33495 0.30398 0.3818 0.31035 0.29098 0.28012 0.257449 0.31266
3578.254 0.31205 0.32129 0.28089 0.24266 0.34246 0.26544 0.2061 0.26919 0.3537 0.4874
3597.544 0.5143 0.4443 0.4415 0.4442 0.30233 0.2313 0.1659 0.1973 0.31673 0.3983
3616.833 0.4217 0.3905 0.27188 0.32112 0.4188 0.2937 0.3919 0.395 0.3153 0.4145
3636.123 0.3794 0.250843 0.129 0.077 0.008 0.107 0.3033 0.3754 0.3503 0.28363
3655.413 0.34055 0.33322 0.103 0 0.1672 0.1759 0.156 0.1991 0.26351 0.2017
3674.703 0.1847 0.31135 0.30938 0.2143 0.24374 0.32682 0.28824 0.214 0.1675 0.2207
3693.993 0.118 0.12 0.1701 0.07 0.2279 0.3592 0.24195 0.1761 0.28952 0.4484
3713.282 0.4079 0.373 0.3886 0.34677 0.3696 0.3767 0.24605 0.1933 0.1906 0.2324
3732.572 0.28672 0.26977 0.24823 0.28002 0.28008 0.251903 0.4056 0.32994 0.2198 0.355
3751.862 0.3628 0.3177 0.3861 0.5079 0.4926 0.4021 0.5976 0.5485 0.30097 0.27351
3771.152 0.28755 0.2732 0.262 0.258117 0.26405 0.29769 0.28076 0.3924 0.4976 0.31089
3790.441 0.149 0.1831 0.2134 0.3292 0.4299 0.4292 0.32454 0.26303 0.3821 0.371
3809.731 0.250537 0.30094 0.3588 0.4646 0.4509 0.30683 0.1872 0.31682 0.5332 0.547
3829.021 0.5366 0.452 0.29931 0.2113 0.2375 0.29603 0.31859 0.387 0.5097 0.4118
3848.311 0.3519 0.5311 0.4404 0.30261 0.3806 0.4247 0.5269 0.4521 0.30342 0.26862
3867.601 0.3111 0.4476 0.4779 0.5147 0.5137 0.4138 0.3956 0.5232 0.7558 0.6663
3886.890 0.4407 0.4896 0.5178 0.4411 0.33816 0.4585 0.4858 0.4046 0.5435 0.6596
3906.180 0.6153 0.4633 0.5215 0.5662 0.4967 0.4653 0.4532 0.4906 0.6272 0.6871
3925.470 0.6572 0.518 0.4338 0.5613 0.5514 0.5883 0.6856 0.6119 0.5333 0.4567
3944.760 0.256037 0.3024 0.5218 0.5993 0.4085 0.32653 0.4683 0.4764 0.4323 0.5793
3964.049 0.6804 0.6705 0.6494 0.4472 0.5879 0.6571 0.5563 0.7143 0.7265 0.7131
3983.339 0.6767 0.5681 0.56 0.4884 0.4618 0.5387 0.7127 0.7546 0.7194 0.7213
##END=
