##TITLE=4-Methyl-1-hexene
##JCAMP-DX=4.24
##DATA TYPE=INFRARED SPECTRUM
##ORIGIN=NIST Mass Spectrometry Data Center
##OWNER=NIST Standard Reference Data Program
Collection (C) 2018 copyright by the U.S. Secretary of Commerce
on behalf of the United States of America. All rights reserved.
##CAS REGISTRY NO=3769-23-1
##MOLFORM=C 7 H 14
##$NIST SOURCE=MSDC-IR
##SPECTROMETER/DATA SYSTEM=HP-GC/MS/IRD
##STATE=gas
##XUNITS=1/CM
##YUNITS=ABSORBANCE
##XFACTOR=1.0
##YFACTOR=0.000003900
##DELTAX=4.0
##FIRSTX=550.0
##LASTX=3846.0
##FIRSTY=0.000168
##MAXX=3846
##MINX=550
##MAXY=0.039
##MINY=0
##NPOINTS=825
##XYDATA=(X++(Y..Y))
550.0 43 48 27 35 29 12 12 12 16 46
590.0 86 103 131 163 205 228 269 300 289 286
630.0 283 269 230 206 171 115 101 96 77 89
670.0 105 87 81 97 99 85 66 55 61 63
710.0 59 64 44 33 59 65 58 51 53 61
750.0 80 118 150 186 226 249 246 233 226 211
790.0 195 182 172 142 123 125 139 144 139 148
830.0 155 153 170 190 204 219 244 277 305 342
870.0 386 428 489 587 712 887 1134 1463 1845 2188
910.0 2422 2544 2486 2231 1861 1471 1145 914 753 656
950.0 608 597 625 658 718 812 944 1087 1221 1326
990.0 1383 1398 1354 1238 1083 910 765 657 567 507
1030.0 454 401 382 379 345 318 302 284 260 237
1070.0 207 194 191 184 178 172 182 186 186 187
1110.0 183 176 163 161 179 197 214 243 270 275
1150.0 266 256 241 216 180 150 122 99 78 59
1190.0 52 46 39 34 45 61 73 87 101 110
1230.0 125 129 113 106 103 106 114 122 132 146
1270.0 169 184 185 190 202 204 208 215 213 210
1310.0 211 211 208 205 217 240 265 302 336 361
1350.0 393 424 463 517 608 739 882 979 1040 1069
1390.0 1016 892 732 602 522 489 485 499 537 602
1430.0 700 817 960 1120 1271 1413 1518 1571 1569 1500
1470.0 1358 1174 991 804 625 482 376 297 243 207
1510.0 184 166 159 155 149 152 147 130 129 131
1550.0 127 122 110 109 113 113 115 109 109 111
1590.0 120 132 144 166 194 231 283 370 499 664
1630.0 832 942 994 992 920 775 550 342 214 146
1670.0 113 94 81 72 60 52 41 41 38 40
1710.0 36 27 21 16 14 12 12 18 21 25
1750.0 22 21 20 17 21 20 18 26 32 28
1790.0 36 44 51 64 81 108 152 198 242 271
1830.0 278 273 252 208 154 108 73 51 38 30
1870.0 28 27 26 25 29 30 24 23 24 22
1910.0 21 19 13 11 8 9 11 12 11 12
1950.0 15 18 20 24 29 24 32 38 31 33
1990.0 30 22 19 17 19 15 7 8 11 6
2030.0 0 2 11 10 9 11 10 13 13 12
2070.0 9 8 8 12 14 10 4 6 8 3
2110.0 3 13 15 7 6 8 13 12 13 14
2150.0 9 6 11 14 14 17 14 8 9 12
2190.0 17 20 18 14 14 18 17 14 11 12
2230.0 13 15 16 14 21 21 19 22 20 20
2270.0 19 20 16 12 17 21 24 28 25 25
2310.0 23 24 28 29 32 29 29 27 21 23
2350.0 28 30 30 33 34 40 39 35 35 34
2390.0 34 37 34 30 33 39 40 39 33 34
2430.0 42 45 36 32 36 40 39 34 36 33
2470.0 28 30 34 33 35 33 37 41 34 35
2510.0 46 49 42 39 44 52 51 42 53 63
2550.0 65 61 61 67 71 81 87 86 90 92
2590.0 94 99 102 103 100 99 97 96 98 99
2630.0 104 105 104 104 102 107 111 109 107 121
2670.0 124 118 126 138 141 140 140 141 146 149
2710.0 158 170 179 191 206 218 230 239 252 259
2750.0 256 259 257 261 264 269 278 290 308 325
2790.0 347 375 401 428 459 502 552 611 689 789
2830.0 915 1066 1229 1413 1627 1869 2143 2454 2813 3249
2870.0 3745 4247 4668 4990 5235 5401 5538 5667 5867 6203
2910.0 6641 7078 7428 7676 7783 7723 7529 7256 7008 6913
2950.0 7080 7593 8441 9403 10000 9945 9408 8492 7195 5675
2990.0 4300 3315 2659 2227 1919 1673 1473 1288 1119 990
3030.0 885 822 793 778 791 827 899 994 1103 1256
3070.0 1464 1688 1835 1898 1829 1648 1443 1138 824 618
3110.0 494 410 359 311 291 286 275 266 259 252
3150.0 249 250 245 230 220 217 206 188 182 175
3190.0 155 142 132 129 133 120 99 89 86 83
3230.0 76 64 69 76 76 76 75 74 76 80
3270.0 80 78 77 79 80 73 68 69 74 73
3310.0 62 53 56 64 73 67 61 58 51 47
3350.0 48 51 52 47 48 48 51 51 45 38
3390.0 45 45 39 51 57 49 46 53 47 45
3430.0 40 28 32 41 31 19 18 21 23 29
3470.0 30 24 19 18 18 11 16 26 27 25
3510.0 16 12 18 24 25 25 24 28 24 28
3550.0 31 27 23 16 26 32 28 22 25 38
3590.0 33 24 18 25 41 35 34 39 33 24
3630.0 23 30 34 29 23 26 38 41 41 39
3670.0 32 32 36 32 31 37 37 41 43 49
3710.0 56 57 47 37 45 54 45 46 55 56
3750.0 50 50 61 65 63 57 48 49 53 58
3790.0 42 40 46 45 58 59 56 53 48 57
3830.0 63 65 57 52 53
##END=
