##TITLE=2,3,5,6-Tetrabromo-4-methylphenol
##JCAMP-DX=4.24
##DATA TYPE=INFRARED SPECTRUM
##ORIGIN=EPA-IR VAPOR PHASE LIBRARY
##OWNER=SRD/NIST
Collection (C) 2018 copyright by the U.S. Secretary of Commerce
on behalf of the United States of America. All rights reserved.
##CAS REGISTRY NO=37721-75-8
##MOLFORM=C7 H4 Br4 O
##$NIST SOURCE=MSDC-IR
##STATE=gas
##XUNITS=1/CM
##YUNITS=ABSORBANCE
##XFACTOR=1.
##YFACTOR=0.001
##DELTAX=1.92898
##FIRSTX=549.8
##LASTX=4000.7
##FIRSTY=3.8838
##MAXX=4000.7
##MINX=549.759
##MAXY=0.0771838
##MINY=0
##NPOINTS=1790
##XYDATA=(X++(Y..Y))
549.759 3.8838 4.4538 5.6438 7.4438 9.2938 10.8738 11.6138 10.9238 9.4438 7.5438
569.049 5.3338 3.7138 2.9038 2.4338 2.1938 2.0338 1.9238 1.8538 1.8138 1.6938
588.339 1.5638 1.5638 1.4238 1.3338 1.2838 1.3338 1.4738 1.4338 1.5738 1.9338
607.628 2.1538 2.8638 3.7438 4.5038 5.6638 7.2038 9.3438 11.7138 13.4338 13.7138
626.918 13.0138 11.8238 9.7938 7.3838 5.9938 5.3438 4.4838 4.0238 3.9738 3.9938
646.208 4.1938 4.5338 4.8838 5.1138 5.1938 4.9638 4.4438 3.8038 3.3338 3.1738
665.498 2.9838 2.9138 2.9038 2.9438 2.9238 2.6038 2.2538 1.9338 1.7938 1.8838
684.787 1.9738 2.0038 2.0138 1.9338 1.9738 1.9538 1.7238 1.7338 1.8438 1.8738
704.077 2.0938 2.4238 2.4038 2.4838 2.6938 2.7838 2.8638 2.6938 2.5438 2.4838
723.367 2.6038 2.7238 2.6838 2.8538 2.9738 2.6738 2.4138 2.3938 2.2638 2.1838
742.657 2.3538 2.5038 2.7638 2.9138 2.8338 2.7738 2.7238 2.6738 2.6238 2.5138
761.947 2.3638 2.3838 2.3538 2.3138 2.3638 2.4738 2.7238 2.8838 2.9538 3.1538
781.236 3.4738 3.9538 4.3738 4.7938 5.2738 6.0038 6.5738 7.1138 7.9838 8.6438
800.526 9.9038 12.0338 15.0838 19.6138 25.3238 30.9238 33.8638 33.5338 30.7038 24.9138
819.816 17.3538 11.1338 7.3938 5.0638 3.7438 3.0738 2.7038 2.4838 2.3438 2.3738
839.106 2.4738 2.4138 2.2238 2.2438 2.3038 2.0538 1.7638 1.6238 1.5938 1.4838
858.395 1.4238 1.5438 1.6938 1.7738 1.6838 1.7438 1.9438 2.1238 2.1238 2.0938
877.685 2.1438 2.0138 1.7538 1.5538 1.3338 1.3138 1.3838 1.3638 1.2438 1.3838
896.975 1.6538 1.8638 2.0038 2.1038 2.2838 2.4238 2.5238 2.4238 2.3038 2.1938
916.265 2.0938 2.1138 2.2638 2.3638 2.3438 2.5138 2.7638 2.8238 2.9238 2.9838
935.555 3.1738 3.7338 4.8138 6.4338 8.0738 10.0638 12.1738 13.9838 15.7538 17.1938
954.844 17.6638 17.1638 16.0738 14.2538 12.1638 9.9938 8.1338 7.0538 6.3738 6.0038
974.134 6.1838 6.3738 6.5438 6.8638 7.0138 7.1938 7.4338 8.0338 8.4138 8.9438
993.424 10.0038 10.7838 11.4538 12.2738 12.8438 13.1238 13.4438 13.6438 13.6338 13.2338
1012.714 12.7938 12.3538 11.5638 10.8838 10.4738 10.1538 9.8838 9.5938 9.0438 8.4738
1032.003 8.2438 7.8938 7.4538 7.3438 7.1838 6.8338 6.4538 6.1738 6.2138 6.0938
1051.293 5.5838 5.2938 5.4138 5.3438 5.0838 5.0838 4.9538 4.5238 4.0838 4.0738
1070.583 4.0938 4.0738 4.3938 4.3538 4.0538 4.0438 4.2438 4.3038 4.0438 4.1038
1089.873 4.5638 4.6238 4.6738 5.1038 5.9038 7.0438 8.7638 11.2238 14.0738 18.0038
1109.163 23.0738 28.7338 33.9138 37.0938 37.4538 34.9338 29.9538 23.5038 17.3038 12.7938
1128.452 9.7938 7.4238 5.9238 4.9338 3.9238 3.2838 2.8538 2.6938 2.7538 2.4838
1147.742 2.4338 2.4438 2.2738 2.3038 2.6038 2.9338 2.8338 2.9238 3.4738 3.8138
1167.032 4.3338 4.8638 5.5338 6.4238 7.2738 8.9338 10.9538 14.0538 18.6138 24.5438
1186.322 32.3738 41.5438 51.6438 61.0838 68.5738 72.3338 70.1938 63.6438 54.1538 43.3638
1205.611 34.0738 27.1838 22.4738 19.0838 16.5038 15.1738 13.8238 12.4438 11.5538 10.9038
1224.901 10.3538 9.8438 9.2838 8.7438 8.7638 8.5038 8.2438 8.3738 9.0238 10.1338
1244.191 11.4738 13.3538 15.7138 18.3938 21.6538 25.4138 29.3038 32.8738 35.2738 36.1538
1263.481 35.6338 34.0238 31.6438 29.2638 27.9238 28.0738 29.7438 32.1238 33.6038 33.1738
1282.771 30.4738 25.8138 20.0938 14.6438 10.6138 7.8638 6.0838 4.8438 3.9738 3.5838
1302.060 3.2738 3.0638 3.1138 3.1638 3.2738 3.4838 3.7138 4.0738 4.4738 4.9738
1321.350 5.5938 6.1338 6.4938 6.6938 6.8438 7.0138 7.3538 7.8338 8.6338 9.9238
1340.640 11.6738 13.9438 16.8538 20.5238 25.0038 30.1638 35.7038 40.9638 45.0338 47.1438
1359.930 46.7438 43.8738 38.9838 33.1438 27.3638 22.3338 18.4838 15.7138 13.7238 12.2338
1379.219 11.2938 10.8138 10.6138 10.7238 10.9938 11.5138 12.1638 12.8538 13.6438 14.6138
1398.509 15.8438 17.3838 19.0938 21.0838 23.4638 26.2338 29.4738 33.2438 37.3738 41.8038
1417.799 46.0638 49.9738 52.7738 53.6338 52.1438 48.3338 42.4838 35.4638 28.1738 21.7938
1437.089 16.6438 13.0438 10.6038 8.9438 7.7938 6.8538 6.1538 5.6538 5.2138 4.8538
1456.378 4.5638 4.3538 4.2338 4.0938 3.9938 3.9838 3.9438 3.9638 3.9638 3.9538
1475.668 4.0038 4.0238 4.0538 4.0938 4.0938 4.0538 4.0838 4.1138 4.1938 4.2838
1494.958 4.3538 4.4438 4.5438 4.6038 4.6838 4.9238 5.2238 5.5538 5.9438 6.5138
1514.248 7.2338 8.0438 9.0538 10.1538 11.3938 12.6438 13.7838 14.7738 15.4838 15.8738
1533.538 16.0238 15.9938 15.9438 15.9538 16.1438 16.3738 16.4038 16.1438 15.5138 14.3638
1552.827 12.7538 10.8338 9.0538 7.6138 6.4838 5.7138 5.2738 4.9438 4.6638 4.4638
1572.117 4.2438 4.0838 3.9138 3.7838 3.6238 3.4238 3.2938 3.0638 2.8638 2.7938
1591.407 2.6838 2.4938 2.3938 2.2938 2.1238 1.9738 1.8038 1.5938 1.5538 1.5138
1610.697 1.4138 1.4138 1.4038 1.2738 1.1838 1.2538 1.3038 1.2738 1.2238 1.2338
1629.986 1.1838 1.0372 0.9889 1.0468 1.0164 0.9303 0.8514 0.8188 0.7848 0.7879
1649.276 0.7969 0.7472 0.7114 0.7485 0.7815 0.7758 0.7772 0.7497 0.7482 0.8199
1668.566 0.8015 0.7655 0.7519 0.6755 0.6491 0.6438 0.6234 0.5779 0.5729 0.6303
1687.856 0.6142 0.5614 0.5218 0.4466 0.4487 0.5982 0.6243 0.5106 0.4915 0.521
1707.146 0.5729 0.6617 0.6658 0.5948 0.5449 0.5184 0.5267 0.54 0.5326 0.488
1726.435 0.5391 0.542 0.5249 0.5715 0.5524 0.5734 0.5777 0.5963 0.5837 0.487
1745.725 0.4591 0.4608 0.5205 0.5659 0.5507 0.5055 0.4894 0.5726 0.6014 0.5986
1765.015 0.6167 0.6255 0.5883 0.5281 0.5499 0.5719 0.5324 0.4961 0.4975 0.5309
1784.305 0.4802 0.4193 0.4176 0.4181 0.3575 0.3609 0.4429 0.3798 0.3318 0.363
1803.594 0.4256 0.469 0.4401 0.4254 0.44 0.4488 0.4492 0.4384 0.4117 0.4211
1822.884 0.4531 0.464 0.5 0.5735 0.5495 0.4814 0.4912 0.4676 0.4152 0.4666
1842.174 0.5095 0.4939 0.4978 0.504 0.4714 0.4949 0.4817 0.3961 0.4354 0.4828
1861.464 0.4836 0.4674 0.4079 0.3862 0.3767 0.4071 0.4231 0.4268 0.4111 0.4075
1880.754 0.4428 0.4676 0.5239 0.5017 0.4503 0.3906 0.361 0.3595 0.3683 0.3945
1900.043 0.4425 0.4659 0.4609 0.4664 0.4929 0.4576 0.4246 0.4862 0.447 0.3937
1919.333 0.4574 0.4886 0.4038 0.3345 0.3319 0.3523 0.4131 0.4178 0.3391 0.3563
1938.623 0.4035 0.3782 0.3621 0.3587 0.3725 0.3651 0.3149 0.2996 0.3117 0.3459
1957.913 0.2979 0.2666 0.3348 0.3781 0.3762 0.3957 0.4401 0.4067 0.3323 0.3508
1977.202 0.43 0.4627 0.4874 0.4861 0.5107 0.5244 0.4828 0.5021 0.5202 0.514
1996.492 0.5368 0.5632 0.566 0.49 0.4331 0.4709 0.4368 0.4408 0.4668 0.464
2015.782 0.4648 0.42 0.4031 0.4141 0.4879 0.4887 0.4263 0.382 0.3924 0.4501
2035.072 0.4543 0.4207 0.3614 0.3607 0.3929 0.4188 0.4629 0.4732 0.4653 0.4605
2054.362 0.4693 0.5135 0.5765 0.531 0.4774 0.5431 0.5956 0.6116 0.6011 0.5782
2073.651 0.5773 0.5751 0.5542 0.5465 0.5227 0.5276 0.5284 0.5087 0.5256 0.4522
2092.941 0.4231 0.4069 0.2656 0.2623 0.3595 0.3533 0.3554 0.4123 0.3771 0.3259
2112.231 0.3416 0.2935 0.2513 0.2907 0.3317 0.3896 0.4342 0.4491 0.4343 0.4305
2131.521 0.3826 0.3418 0.4054 0.4401 0.473 0.5412 0.5545 0.5314 0.4609 0.3707
2150.810 0.467 0.5355 0.4732 0.4275 0.4086 0.4381 0.4494 0.4926 0.5132 0.5047
2170.100 0.4529 0.362 0.3868 0.3918 0.3666 0.3545 0.4101 0.4842 0.3759 0.3489
2189.390 0.3388 0.3405 0.4387 0.43 0.4689 0.4733 0.457 0.5069 0.5278 0.5321
2208.680 0.5289 0.5151 0.4583 0.4567 0.5177 0.5466 0.4896 0.4627 0.4569 0.4752
2227.970 0.51 0.53 0.5147 0.5149 0.5615 0.4717 0.4419 0.4778 0.4484 0.4797
2247.259 0.4804 0.4233 0.3633 0.335 0.3578 0.3967 0.4823 0.4616 0.4073 0.4278
2266.549 0.4377 0.3689 0.265 0.2508 0.3409 0.3851 0.3614 0.3708 0.3789 0.3412
2285.839 0.3213 0.3242 0.3312 0.3122 0.3445 0.4277 0.4612 0.4536 0.4476 0.4533
2305.129 0.4082 0.4278 0.4706 0.4555 0.4305 0.4702 0.5389 0.5164 0.5037 0.4701
2324.418 0.4135 0.4116 0.4734 0.5032 0.5515 0.6409 0.6392 0.5936 0.6637 0.6855
2343.708 0.6323 0.6744 0.664 0.6889 0.7586 0.7419 0.7038 0.7683 0.8037 0.8404
2362.998 0.8828 0.8675 0.8153 0.7688 0.7862 0.7949 0.797 0.7542 0.7791 0.8979
2382.288 0.8951 0.8239 0.8046 0.8399 0.819 0.7385 0.6921 0.6243 0.6005 0.5983
2401.578 0.5916 0.5617 0.5429 0.5516 0.4678 0.4231 0.4797 0.5343 0.522 0.4371
2420.867 0.4461 0.4417 0.4255 0.4725 0.4327 0.3932 0.4085 0.4335 0.4605 0.4364
2440.157 0.4742 0.5826 0.5338 0.4784 0.5256 0.6132 0.644 0.5718 0.5586 0.6209
2459.447 0.686 0.6757 0.638 0.6225 0.6344 0.5987 0.6032 0.6653 0.6286 0.6336
2478.737 0.6267 0.5097 0.5052 0.5998 0.6268 0.6038 0.5919 0.5598 0.5097 0.509
2498.026 0.4882 0.4526 0.4689 0.4701 0.4432 0.4759 0.4957 0.487 0.5068 0.5346
2517.316 0.5195 0.4557 0.4796 0.5032 0.4308 0.4395 0.5286 0.5317 0.5252 0.4892
2536.606 0.4249 0.5422 0.5871 0.5077 0.5118 0.4874 0.4665 0.5523 0.5568 0.5229
2555.896 0.475 0.4066 0.3602 0.3987 0.384 0.3094 0.2728 0.2783 0.3769 0.3757
2575.186 0.2956 0.2795 0.3631 0.4405 0.4315 0.3962 0.4496 0.5174 0.4969 0.4909
2594.475 0.5466 0.5171 0.4969 0.5028 0.4463 0.5242 0.5832 0.5837 0.6086 0.544
2613.765 0.5345 0.6055 0.636 0.6191 0.6365 0.5988 0.6151 0.7172 0.6548 0.6215
2633.055 0.7224 0.7109 0.6629 0.7151 0.7659 0.782 0.7177 0.7232 0.8254 0.8524
2652.345 0.7197 0.6122 0.5922 0.572 0.5943 0.6137 0.5818 0.5737 0.618 0.6333
2671.634 0.7029 0.7424 0.7837 0.7799 0.5709 0.484 0.6011 0.6099 0.5621 0.577
2690.924 0.5115 0.4632 0.479 0.4691 0.4646 0.525 0.5527 0.3875 0.3541 0.4553
2710.214 0.5125 0.5367 0.4711 0.3613 0.4207 0.4005 0.3178 0.4186 0.5682 0.5585
2729.504 0.4877 0.4478 0.3574 0.434 0.508 0.3781 0.3473 0.4873 0.5435 0.4935
2748.794 0.4819 0.5647 0.5645 0.5869 0.5645 0.5036 0.526 0.4672 0.3918 0.4056
2768.083 0.4339 0.5331 0.5181 0.3488 0.3213 0.4565 0.4636 0.4129 0.4332 0.4151
2787.373 0.4416 0.4912 0.475 0.4552 0.4621 0.3239 0.3278 0.5508 0.6551 0.5922
2806.663 0.5459 0.5164 0.5358 0.4643 0.3805 0.4815 0.4401 0.4307 0.5179 0.5001
2825.953 0.5087 0.5282 0.5061 0.5435 0.4679 0.4009 0.3563 0.4347 0.4874 0.4277
2845.242 0.5306 0.6013 0.6194 0.7459 0.9171 0.9074 0.9068 0.8335 0.8247 0.9824
2864.532 1.1138 1.1138 1.0672 1.2838 1.4838 1.4738 1.4238 1.4038 1.4738 1.5138
2883.822 1.4938 1.4438 1.3438 1.2638 1.1838 1.2738 1.2838 1.1338 1.1738 1.2938
2903.112 1.2838 1.2938 1.3138 1.3138 1.3338 1.3938 1.5038 1.5138 1.5838 1.7138
2922.401 1.8038 1.9638 2.2538 2.6838 3.0038 3.2538 3.6738 3.9938 4.2638 4.4138
2941.691 4.3738 4.4538 4.4738 4.1938 4.0238 3.8938 3.5438 3.2938 3.1038 2.8838
2960.981 2.7138 2.6238 2.5438 2.3238 2.2238 2.0838 1.8738 1.7938 1.7138 1.6238
2980.271 1.5538 1.3438 1.2438 1.2638 1.1038 0.9991 1.026 1.0058 0.9988 1.0135
2999.561 1.0057 0.9696 0.9056 0.9329 0.8859 0.8988 0.9691 0.8913 0.7924 0.8388
3018.850 0.9146 0.9384 0.9624 1.0081 1.1138 1.0808 1.0798 1.1738 1.2738 1.2538
3038.140 1.1538 1.1238 1.1138 1.1238 1.1738 1.2438 1.2138 1.2538 1.1938 1.0834
3057.430 1.1438 1.0938 0.826 0.7215 0.8462 0.8924 0.9843 1.0396 0.9441 0.8269
3076.720 0.7639 0.7625 0.7555 0.6807 0.6414 0.6937 0.6584 0.5894 0.6723 0.6636
3096.009 0.6049 0.6555 0.6293 0.6426 0.6445 0.565 0.5888 0.7174 0.7239 0.6375
3115.299 0.489 0.396 0.436 0.3669 0.4075 0.4983 0.3474 0.2561 0.4478 0.4298
3134.589 0.3134 0.4701 0.4674 0.3919 0.427 0.4813 0.4779 0.4185 0.4015 0.3163
3153.879 0.3736 0.4305 0.3672 0.2981 0.2644 0.43 0.5081 0.4279 0.4186 0.3801
3173.169 0.2454 0.2245 0.16174 0.14083 0.2496 0.199 0.17303 0.3722 0.4553 0.306
3192.458 0.2718 0.4045 0.4522 0.4749 0.5888 0.5694 0.5265 0.5562 0.5888 0.5609
3211.748 0.5037 0.5761 0.6679 0.5704 0.469 0.6028 0.7799 0.7819 0.725 0.6362
3231.038 0.491 0.4724 0.4464 0.4288 0.4238 0.3378 0.2075 0.2022 0.3488 0.4144
3250.328 0.3344 0.3436 0.3552 0.2357 0.2105 0.2369 0.23 0.2599 0.258 0.2478
3269.617 0.2374 0.18338 0.17715 0.3112 0.3732 0.15467 0.1736 0.2425 0.14498 0.1948
3288.907 0.18233 0.2442 0.3712 0.2583 0.2539 0.2676 0.2407 0.3205 0.4417 0.4674
3308.197 0.3941 0.2556 0.216 0.3639 0.3517 0.3004 0.2856 0.2948 0.3121 0.11979
3327.487 0.15812 0.4034 0.3575 0.3535 0.4251 0.4174 0.3355 0.2193 0.2005 0.2275
3346.777 0.2691 0.315 0.2521 0.3182 0.368 0.277 0.2418 0.3475 0.4328 0.3675
3366.066 0.3264 0.2357 0.2873 0.4568 0.5368 0.5464 0.5194 0.478 0.5365 0.4545
3385.356 0.4582 0.564 0.4522 0.3351 0.2879 0.2423 0.2025 0.2525 0.17826 0.1995
3404.646 0.2716 0.2847 0.3422 0.3464 0.3156 0.3894 0.4776 0.3981 0.3232 0.2426
3423.936 0.2408 0.21 0.1914 0.256 0.2353 0.2478 0.1632 0.2187 0.4577 0.5044
3443.225 0.4713 0.4893 0.5484 0.5786 0.5521 0.4441 0.3424 0.3922 0.4156 0.4595
3462.515 0.5243 0.5305 0.5616 0.442 0.4835 0.6953 0.6194 0.5584 0.6647 0.7445
3481.805 0.7786 0.7925 0.8988 0.7199 0.6099 0.9499 1.1238 1.2338 1.4838 1.7138
3501.095 1.8238 2.0238 2.6138 3.3038 4.0738 5.3838 7.5838 11.3138 17.8638 28.9638
3520.385 44.8138 61.7738 73.6238 77.1838 73.2438 63.3738 51.9038 42.9138 36.4938 31.3638
3539.674 26.3938 20.9738 16.2638 13.0438 10.7338 9.0938 7.7538 6.4738 5.3338 4.3038
3558.964 3.4538 2.8238 2.4438 2.1238 1.8138 1.6038 1.5438 1.4538 1.3038 1.3138
3578.254 1.3238 1.1938 0.9227 0.6917 0.7257 0.8732 1.0278 1.0512 0.8208 0.6445
3597.544 0.6301 0.5761 0.5543 0.6263 0.6368 0.4991 0.4178 0.3336 0.2858 0.4041
3616.833 0.2694 0.2171 0.3508 0.4134 0.5269 0.4475 0.4548 0.5308 0.4807 0.5276
3636.123 0.5636 0.5049 0.4786 0.4833 0.5085 0.4743 0.4474 0.4644 0.4402 0.4293
3655.413 0.4494 0.5318 0.4245 0.3758 0.4441 0.4945 0.5826 0.542 0.4773 0.5318
3674.703 0.4477 0.2571 0.14152 0.0351 0.12796 0.2551 0.2516 0.2693 0.2525 0.2534
3693.993 0.3062 0.3055 0.3013 0.2831 0.15699 0.12343 0.15997 0.0435 0.043 0.086892
3713.282 0.2309 0.3222 0.09382 0.12622 0.13207 0.15765 0.3279 0.398 0.3934 0.16807
3732.572 0.257 0.3825 0.1902 0.14503 0.1889 0.2461 0.3014 0.3786 0.3884 0.3933
3751.862 0.2691 0.07894 0.0369 0 0.16678 0.3013 0.2817 0.2348 0.17839 0.2097
3771.152 0.269 0.2132 0.0727 0.0373 0.2226 0.3194 0.2578 0.3294 0.3223 0.1931
3790.441 0.2196 0.3628 0.3863 0.4727 0.4595 0.388 0.4182 0.427 0.5945 0.5487
3809.731 0.3949 0.396 0.5886 0.648 0.4604 0.4677 0.5184 0.5331 0.5688 0.6038
3829.021 0.6763 0.8029 0.8784 0.7019 0.522 0.4503 0.4364 0.5167 0.5959 0.6498
3848.311 0.6675 0.5897 0.5571 0.5569 0.4873 0.5032 0.4317 0.3798 0.3768 0.4601
3867.601 0.4761 0.3952 0.5168 0.4745 0.4776 0.5879 0.3396 0.15869 0.2732 0.306
3886.890 0.2381 0.305 0.4021 0.3998 0.3811 0.5782 0.6391 0.4583 0.3566 0.2944
3906.180 0.3779 0.5165 0.4974 0.3991 0.2918 0.2168 0.3041 0.3902 0.497 0.6297
3925.470 0.6507 0.5852 0.5538 0.535 0.4833 0.5837 0.5492 0.4538 0.4638 0.5088
3944.760 0.6295 0.6535 0.6433 0.6284 0.7471 0.6829 0.5271 0.4393 0.2502 0.312
3964.049 0.3219 0.3154 0.3819 0.2466 0.2734 0.3735 0.4076 0.3876 0.3055 0.2708
3983.339 0.2124 0.10709 0.12657 0.2927 0.4151 0.4514 0.3211 0.18379 0.2189 0.348
##END=
