##TITLE=5-Benzylidenehydantoin
##JCAMP-DX=4.24
##DATA TYPE=INFRARED SPECTRUM
##ORIGIN=EPA-IR VAPOR PHASE LIBRARY
##OWNER=SRD/NIST
Collection (C) 2018 copyright by the U.S. Secretary of Commerce
on behalf of the United States of America. All rights reserved.
##CAS REGISTRY NO=3775-01-7
##MOLFORM=C 10 H 8 N 2 O 2
##$NIST SOURCE=MSDC-IR
##STATE=gas
##XUNITS=1/CM
##YUNITS=ABSORBANCE
##XFACTOR=1.
##YFACTOR=0.001
##DELTAX=1.92898
##FIRSTX=549.8
##LASTX=4000.7
##FIRSTY=10.64
##MAXX=4000.7
##MINX=549.759
##MAXY=0.0804
##MINY=0
##NPOINTS=1790
##XYDATA=(X++(Y..Y))
549.759 10.64 10.17 9.6 8.86 8.49 8.09 7.48 7 6.13 5.34
569.049 5.3 4.68 3.69 3.41 3.18 3.06 2.82 2.71 2.6 2.25
588.339 2.05 1.8 1.74 1.85 1.8 1.84 1.69 1.64 1.66 1.75
607.628 1.96 1.92 1.83 1.82 1.9 2.07 2.08 1.93 2.18 2.79
626.918 3.43 4.13 4.56 4.88 5.35 5.55 5.48 5.07 4.51 3.94
646.208 3.35 2.72 2.2 1.74 1.5 1.33 1.23 1.42 1.48 1.51
665.498 1.67 1.76 2.1 2.63 3 3.47 3.88 4.03 4.27 4.48
684.787 4.75 5.07 5.04 4.99 5.23 5.18 4.9 4.72 4.6 4.43
704.077 3.93 3.47 3.24 2.82 2.45 2.41 2.25 2.04 2.06 2.08
723.367 1.76 1.61 1.54 1.41 1.4 1.57 1.76 1.8 2.04 2.35
742.657 2.57 2.88 3.37 4.07 4.79 5.39 6.06 6.61 6.75 6.68
761.947 6.25 5.5 4.97 4.47 3.64 3.03 2.75 2.33 2.01 1.73
781.236 1.56 1.5 1.39 1.42 1.23 1.1254 1.24 0.9864 0.862 0.9517
800.526 1.0528 1.0245 1.0265 1.1379 0.9692 1.005 1.21 1.0985 1.1611 1.19
819.816 1.24 1.3 1.26 1.44 1.52 1.43 1.45 1.65 1.72 1.72
839.106 1.81 1.96 2.29 2.91 3.25 3.38 3.61 3.81 3.93 3.83
858.395 3.61 3.43 3.1 2.69 2.2 1.8 1.72 1.63 1.53 1.22
877.685 1.0331 1.0233 1.0901 1.18 0.9617 0.8664 0.9336 0.8842 0.8295 0.8496
896.975 0.8446 0.863 0.9459 1.0348 1.1679 1.18 1.18 1.26 1.4 1.38
916.265 1.27 1.36 1.31 1.31 1.27 1.115 1.0445 1.1476 0.9937 0.8111
935.555 1.019 1.097 1.0865 1.1239 1.19 1.19 1.29 1.48 1.61 1.68
954.844 1.88 2.29 2.79 3.35 3.81 4.41 5.21 5.8 6.2 6.46
974.134 6.72 6.7 6.34 5.88 5.25 4.55 3.91 3.47 3 2.54
993.424 2.22 1.93 1.69 1.58 1.54 1.66 1.64 1.54 1.56 1.43
1012.714 1.47 1.51 1.28 1.35 1.35 1.35 1.32 1.1784 1.38 1.61
1032.003 1.45 1.28 1.39 1.33 1.49 1.49 1.2 1.3 1.48 1.48
1051.293 1.77 2.28 2.39 2.25 2.27 2.55 2.89 3.56 4.19 4.47
1070.583 4.75 5.35 5.71 5.43 5.2 5.27 5.27 5.21 5.17 4.54
1089.873 4.22 4.49 4.5 4.21 3.76 3.31 2.94 3.29 3.66 3.47
1109.163 3.25 2.73 2.36 2.06 2.22 2.25 2.21 2.32 2.2 2.14
1128.452 1.99 1.7 1.44 1.36 1.23 1.4 1.6 1.55 1.6 1.53
1147.742 1.54 1.52 1.61 1.57 1.32 1.2 1.35 1.38 1.25 1.39
1167.032 1.48 1.77 2.13 2.23 2.29 2.56 2.88 3.04 3.49 3.68
1186.322 3.67 3.95 3.73 3.41 3.44 3.37 3.25 2.96 2.47 2.06
1205.611 2.06 2.22 2.35 2.51 2.34 2.29 2.36 2.29 2.28 2.67
1224.901 3.18 2.98 2.91 3.33 3.58 3.62 4.06 4.5 4.49 4.5
1244.191 4.7 4.89 4.81 4.5 4.37 4.25 4.05 3.91 3.6 3.73
1263.481 4.24 4.42 4.49 4.68 4.95 5.26 5.56 5.74 5.86 6.11
1282.771 6.26 6.29 6.42 6.72 6.85 6.8 6.98 7.28 7.63 8.02
1302.060 8.43 8.87 9.28 9.73 10.22 10.58 10.96 11.48 12.19 13.16
1321.350 14.35 15.82 17.44 19.13 20.56 21.67 22.5 22.93 23.09 23.52
1340.640 24.82 27.18 30.92 35.99 41.35 45.74 48.11 48.15 46.07 41.73
1359.930 35.25 27.75 21.07 16.14 12.6 10.1 8.39 7.19 6.48 6.09
1379.219 5.82 5.7 5.74 5.86 5.81 5.89 5.98 5.81 5.52 5.19
1398.509 4.88 4.48 3.99 3.53 3.2 2.82 2.47 2.21 1.99 1.77
1417.799 1.56 1.5 1.53 1.47 1.39 1.37 1.37 1.36 1.34 1.23
1437.089 1.26 1.5 1.65 1.76 1.83 1.83 1.83 1.83 1.76 1.59
1456.378 1.34 1.33 1.39 1.29 1.1582 1.1486 1.19 1.1691 1.1079 1.1386
1475.668 1.27 1.39 1.55 1.73 1.93 2.09 2.27 2.49 2.78 3.11
1494.958 3.15 3.05 2.95 2.75 2.49 2.05 1.6 1.41 1.29 1.178
1514.248 1.1263 1.0352 0.9858 0.8496 0.7975 0.9096 0.8824 0.8559 0.8263 0.7746
1533.538 0.7896 0.8083 0.7396 0.6137 0.643 0.6808 0.6694 0.7615 0.76 0.6878
1552.827 0.6732 0.6567 0.6294 0.5344 0.5747 0.7392 0.7954 0.7811 0.784 0.8628
1572.117 0.8965 0.8339 0.8449 0.924 0.9419 0.9884 1.018 1.0543 1.1243 1.21
1591.407 1.27 1.33 1.38 1.38 1.41 1.41 1.41 1.42 1.38 1.32
1610.697 1.24 1.1301 1.0416 1.097 1.1582 1.127 1.0533 1.0229 1.1265 1.1409
1629.986 1.146 1.23 1.27 1.27 1.39 1.49 1.55 1.73 1.88 2.07
1649.276 2.37 2.62 2.83 3.26 3.76 4.14 4.57 5.01 5.49 5.98
1668.566 6.35 6.67 6.95 7.07 7.12 7.05 6.86 6.55 6.05 5.63
1687.856 5.29 4.83 4.41 4.07 3.71 3.58 3.55 3.56 3.6 3.52
1707.146 3.48 3.48 3.4 3.29 3.23 3.13 3.12 3.13 3.1 3.2
1726.435 3.39 3.49 3.62 3.92 4.19 4.59 5.08 5.64 6.32 7.01
1745.725 7.75 8.61 9.57 10.76 12.36 14.3 16.85 20.2 24.65 30.36
1765.015 37.46 45.91 55.47 64.94 73.19 78.55 80.4 80.26 79.2 75.62
1784.305 67.71 57.29 47.39 39.33 33.86 31.03 30.79 33.02 37.56 43.98
1803.594 51.84 59.69 65.74 68.92 68.8 65.92 60.62 52.56 42.87 33.86
1822.884 26.7 21.46 17.73 14.91 12.58 10.72 9.18 7.84 6.69 5.7
1842.174 4.86 4.21 3.74 3.36 3.05 2.83 2.68 2.55 2.46 2.38
1861.464 2.3 2.26 2.13 1.99 1.99 2.03 1.99 1.9 1.83 1.76
1880.754 1.72 1.68 1.63 1.6 1.5 1.45 1.4 1.33 1.37 1.4
1900.043 1.35 1.34 1.33 1.33 1.34 1.33 1.31 1.3 1.29 1.34
1919.333 1.43 1.44 1.47 1.47 1.51 1.59 1.63 1.71 1.75 1.77
1938.623 1.78 1.79 1.78 1.8 1.84 1.79 1.74 1.7 1.66 1.64
1957.913 1.59 1.54 1.43 1.38 1.34 1.21 1.1513 1.1308 1.1022 0.9438
1977.202 0.8498 0.872 0.9307 0.929 0.8854 0.8552 0.8453 0.873 0.8221 0.7912
1996.492 0.8039 0.8042 0.7654 0.6895 0.6373 0.6432 0.6776 0.7264 0.694 0.6467
2015.782 0.6563 0.6418 0.6219 0.6212 0.6007 0.562 0.4978 0.4891 0.5175 0.5416
2035.072 0.5644 0.5771 0.5762 0.5434 0.5587 0.5612 0.5347 0.4692 0.4193 0.4655
2054.362 0.4473 0.3923 0.3936 0.371 0.4023 0.4054 0.4213 0.4452 0.4511 0.4007
2073.651 0.3977 0.4619 0.4074 0.3489 0.3874 0.4108 0.382 0.4335 0.4547 0.4421
2092.941 0.4289 0.3972 0.3911 0.3914 0.3314 0.3086 0.3114 0.3065 0.3842 0.3907
2112.231 0.3476 0.3622 0.3359 0.3257 0.3565 0.3863 0.3941 0.4066 0.3252 0.2384
2131.521 0.2916 0.3234 0.3731 0.3969 0.3332 0.3725 0.4584 0.4368 0.4217 0.3609
2150.810 0.3564 0.3807 0.3664 0.3643 0.3253 0.3622 0.365 0.3882 0.4507 0.4446
2170.100 0.3949 0.4072 0.4407 0.4014 0.3737 0.4165 0.4089 0.3625 0.377 0.3948
2189.390 0.4299 0.4498 0.4604 0.4867 0.5205 0.4825 0.4449 0.4438 0.4345 0.4711
2208.680 0.4572 0.4419 0.4735 0.4822 0.4355 0.4207 0.4112 0.3762 0.4698 0.4485
2227.970 0.3617 0.3702 0.3498 0.3779 0.4624 0.4396 0.3791 0.3924 0.3906 0.4346
2247.259 0.4968 0.434 0.4242 0.476 0.4602 0.4365 0.4365 0.4214 0.3624 0.382
2266.549 0.5039 0.5593 0.5568 0.4738 0.4134 0.3772 0.3328 0.4399 0.5243 0.5436
2285.839 0.5316 0.5279 0.5153 0.4326 0.3993 0.3706 0.3724 0.4392 0.4694 0.4352
2305.129 0.3902 0.4177 0.4212 0.4742 0.5196 0.4783 0.373 0.3582 0.3571 0.3165
2324.418 0.3771 0.3658 0.3454 0.3565 0.2912 0.23234 0.3017 0.358 0.4055 0.4222
2343.708 0.3784 0.3133 0.3453 0.4825 0.457 0.3326 0.2872 0.3083 0.3158 0.2795
2362.998 0.2938 0.3259 0.2832 0.3201 0.3173 0.3653 0.4422 0.4465 0.4236 0.3219
2382.288 0.3363 0.3793 0.4343 0.4388 0.4426 0.4969 0.4882 0.4371 0.4339 0.4096
2401.578 0.4222 0.5142 0.5033 0.4413 0.4388 0.544 0.5822 0.556 0.5357 0.5337
2420.867 0.5373 0.5886 0.5946 0.4895 0.4643 0.5054 0.4822 0.4648 0.5238 0.5413
2440.157 0.4845 0.4545 0.5133 0.4585 0.4008 0.442 0.4259 0.46 0.4513 0.4246
2459.447 0.4567 0.465 0.4749 0.3888 0.3595 0.4531 0.4819 0.4353 0.3031 0.20611
2478.737 0.24129 0.2901 0.3518 0.3958 0.4018 0.446 0.3792 0.3373 0.3756 0.4189
2498.026 0.3203 0.18556 0.24262 0.3188 0.3173 0.3104 0.2887 0.296 0.3835 0.3324
2517.316 0.2963 0.3425 0.3135 0.25165 0.23958 0.2979 0.3417 0.3305 0.26625 0.27858
2536.606 0.4227 0.4336 0.3457 0.3074 0.2823 0.29 0.3142 0.3445 0.3008 0.26084
2555.896 0.3652 0.4217 0.3303 0.3622 0.3987 0.3745 0.4113 0.3392 0.372 0.3962
2575.186 0.3153 0.3312 0.3277 0.2915 0.3629 0.4231 0.3758 0.4437 0.4857 0.3921
2594.475 0.3623 0.4663 0.4493 0.3744 0.4183 0.4663 0.3891 0.3428 0.4216 0.4531
2613.765 0.5031 0.4329 0.3721 0.3784 0.3713 0.4151 0.3745 0.3572 0.425 0.4688
2633.055 0.471 0.4458 0.3595 0.472 0.5103 0.3996 0.4032 0.3908 0.3654 0.333
2652.345 0.3987 0.3829 0.3478 0.3926 0.4077 0.3645 0.3718 0.4501 0.4291 0.3017
2671.634 0.3314 0.4449 0.4576 0.3947 0.328 0.3321 0.3108 0.3354 0.2932 0.3154
2690.924 0.3421 0.3159 0.3432 0.2999 0.3213 0.3446 0.3723 0.3734 0.3776 0.3358
2710.214 0.2373 0.2855 0.321 0.3466 0.3375 0.3013 0.3261 0.3656 0.363 0.347
2729.504 0.3077 0.2489 0.1518 0.21195 0.3327 0.3569 0.3629 0.3205 0.3232 0.3108
2748.794 0.26266 0.2316 0.184221 0.23317 0.3161 0.2845 0.2041 0.1461 0.2074 0.2647
2768.083 0.24449 0.217 0.24802 0.336 0.3964 0.3655 0.3186 0.2939 0.2807 0.3099
2787.373 0.3597 0.4058 0.3586 0.26268 0.21926 0.18878 0.20317 0.24478 0.3157 0.3358
2806.663 0.288 0.2894 0.25867 0.179197 0.3043 0.3908 0.383 0.4072 0.3225 0.24417
2825.953 0.21541 0.3045 0.353 0.26878 0.3343 0.4323 0.3992 0.3669 0.3498 0.3813
2845.242 0.4241 0.4362 0.3446 0.22625 0.27429 0.3179 0.2919 0.3489 0.3782 0.3804
2864.532 0.3476 0.3571 0.4628 0.4759 0.3887 0.4023 0.3861 0.2723 0.2381 0.23292
2883.822 0.3117 0.3293 0.27083 0.3402 0.3622 0.27455 0.3384 0.3986 0.3078 0.3631
2903.112 0.4602 0.4233 0.3845 0.383 0.3992 0.4112 0.5028 0.4597 0.3815 0.3568
2922.401 0.3034 0.3771 0.4505 0.4147 0.4268 0.4954 0.5007 0.4575 0.4345 0.3914
2941.691 0.3851 0.4793 0.4841 0.3441 0.4087 0.4296 0.3021 0.3059 0.3387 0.4482
2960.981 0.4639 0.4003 0.3732 0.3782 0.26302 0.23182 0.26824 0.24368 0.3265 0.3691
2980.271 0.4043 0.469 0.4055 0.3942 0.5012 0.5894 0.4831 0.4249 0.4369 0.4828
2999.561 0.5717 0.4818 0.4364 0.4985 0.6227 0.7 0.6743 0.6414 0.7112 0.7768
3018.850 0.8452 0.9824 1.21 1.28 1.37 1.63 1.85 1.94 1.95 2.07
3038.140 2.19 2.13 2.01 1.95 1.77 1.57 1.51 1.46 1.5 1.59
3057.430 1.63 1.81 2.04 2.25 2.53 2.87 3.12 3.2 3.24 3.16
3076.720 2.92 2.7 2.47 2.33 2.23 2.18 2.22 2.13 2.02 1.93
3096.009 1.72 1.68 1.7 1.53 1.42 1.34 1.21 1.21 1.22 1.0553
3115.299 0.9984 0.9642 0.7361 0.5744 0.4798 0.4704 0.6274 0.7458 0.7407 0.6396
3134.589 0.6903 0.7527 0.6655 0.5881 0.5685 0.6541 0.5915 0.4123 0.4997 0.6041
3153.879 0.5443 0.5606 0.57 0.5212 0.5084 0.4643 0.4802 0.3999 0.3586 0.3784
3173.169 0.3615 0.3305 0.311 0.4398 0.406 0.3027 0.3529 0.3124 0.18604 0.19653
3192.458 0.3841 0.4924 0.4357 0.475 0.3949 0.24107 0.25463 0.3252 0.4568 0.518
3211.748 0.4167 0.3273 0.334 0.465 0.5011 0.3052 0.2867 0.24524 0.2833 0.3645
3231.038 0.3347 0.3032 0.3453 0.3996 0.3881 0.3973 0.282 0.4167 0.6156 0.5756
3250.328 0.4379 0.4408 0.3516 0.21889 0.3963 0.402 0.2882 0.2858 0.2993 0.3333
3269.617 0.3241 0.349 0.3867 0.3581 0.3118 0.3206 0.3629 0.4293 0.5166 0.4957
3288.907 0.3563 0.26453 0.316 0.2988 0.27867 0.4188 0.368 0.3838 0.4287 0.23229
3308.197 0.2889 0.3709 0.24355 0.2615 0.2856 0.3182 0.3676 0.3179 0.4299 0.5969
3327.487 0.5491 0.4223 0.425 0.4811 0.4832 0.4071 0.421 0.3898 0.21887 0.3112
3346.777 0.4503 0.423 0.4389 0.3755 0.17369 0.19501 0.3964 0.2945 0.24587 0.4631
3366.066 0.4821 0.4595 0.5985 0.5377 0.3675 0.3564 0.3462 0.3663 0.3655 0.3505
3385.356 0.3619 0.4668 0.5709 0.4368 0.3479 0.4778 0.49 0.4583 0.3995 0.3696
3404.646 0.5538 0.6035 0.6639 0.6758 0.5863 0.6918 0.7135 0.6673 0.6818 0.7173
3423.936 0.6692 0.6503 0.6674 0.6907 0.7367 0.713 0.7926 0.8271 0.8803 0.9178
3443.225 0.8801 0.9047 0.9607 1.1134 1.1337 1.2 1.38 1.46 1.82 2.2
3462.515 2.44 2.88 3.5 4.29 5.03 5.93 7.02 8.12 9.54 11.11
3481.805 12.6 13.98 15.17 16.15 16.62 16.35 15.45 13.84 11.79 9.6
3501.095 7.38 5.44 3.87 2.86 2.29 1.67 1.26 1.177 1.1084 1.1101
3520.385 1.0738 0.9536 0.9522 1.038 0.9793 0.9959 1.25 1.21 1.0826 1.177
3539.674 1.172 1.0935 1.0045 0.9947 1.0886 0.9774 0.9261 1.0342 1.1189 1.0311
3558.964 0.9615 0.9966 0.9134 0.8917 0.993 1.1548 1.2 1.21 1.1693 1.1418
3578.254 1.167 1.27 1.1534 0.958 0.8223 0.8055 0.8409 0.7436 0.7046 0.5502
3597.544 0.5759 0.6985 0.5951 0.5943 0.682 0.6116 0.5881 0.7558 0.7451 0.665
3616.833 0.6245 0.5563 0.5857 0.5468 0.6393 0.6427 0.4191 0.3999 0.4939 0.4751
3636.123 0.5088 0.5449 0.3021 0.187283 0.4573 0.5223 0.2894 0.2871 0.3534 0.4396
3655.413 0.5117 0.4346 0.4148 0.4272 0.3716 0.281 0.3349 0.3687 0.4512 0.469
3674.703 0.2845 0.3544 0.4664 0.3958 0.3607 0.2898 0.185914 0.2093 0.25763 0.3764
3693.993 0.4255 0.4345 0.4555 0.3703 0.4021 0.418 0.3832 0.3657 0.22351 0.1601
3713.282 0.26446 0.23467 0.20355 0.17309 0.1334 0.1365 0.1381 0.3141 0.4014 0.27454
3732.572 0.2777 0.24797 0.22542 0.3208 0.24022 0.0946 0 0.1399 0.321 0.3264
3751.862 0.26374 0.3066 0.3266 0.24088 0.189365 0.26269 0.4845 0.418 0.333 0.4621
3771.152 0.4655 0.468 0.4992 0.4534 0.4245 0.4852 0.4348 0.4397 0.4381 0.21817
3790.441 0.22603 0.2939 0.08 0.17114 0.4918 0.4222 0.372 0.4004 0.3583 0.3406
3809.731 0.3436 0.4332 0.3582 0.3415 0.3298 0.20282 0.3159 0.4051 0.4044 0.3579
3829.021 0.25805 0.26719 0.2912 0.3811 0.4313 0.2876 0.3021 0.3845 0.374 0.3861
3848.311 0.3647 0.25131 0.27012 0.3725 0.4248 0.5482 0.607 0.5133 0.4544 0.3844
3867.601 0.21532 0.1587 0.23419 0.3287 0.3131 0.3063 0.3269 0.4423 0.4773 0.25152
3886.890 0.2824 0.4311 0.3609 0.22211 0.17699 0.3454 0.362 0.24187 0.3086 0.3617
3906.180 0.4269 0.5068 0.5542 0.4812 0.385 0.2989 0.3453 0.6283 0.5728 0.5036
3925.470 0.4654 0.3987 0.469 0.3693 0.24901 0.2872 0.423 0.4102 0.3092 0.4011
3944.760 0.5733 0.4106 0.1656 0.2915 0.3582 0.22784 0.24355 0.5663 0.637 0.4109
3964.049 0.23966 0.20663 0.3345 0.3209 0.3486 0.3777 0.25341 0.26197 0.21844 0.0924
3983.339 0.23115 0.2902 0.3588 0.4785 0.5038 0.5533 0.3633 0.26954 0.4569 0.4981
##END=
