##TITLE=Isooctyl vinyl ether
##JCAMP-DX=4.24
##DATA TYPE=INFRARED SPECTRUM
##ORIGIN=NIST Mass Spectrometry Data Center
##OWNER=NIST Standard Reference Data Program
Collection (C) 2018 copyright by the U.S. Secretary of Commerce
on behalf of the United States of America. All rights reserved.
##CAS REGISTRY NO=37769-62-3
##MOLFORM=C 10 H 20 O
##$NIST SOURCE=MSDC-IR
##SPECTROMETER/DATA SYSTEM=HP-GC/MS/IRD
##STATE=gas
##XUNITS=1/CM
##YUNITS=ABSORBANCE
##XFACTOR=1.0
##YFACTOR=0.000001300
##DELTAX=4.0
##FIRSTX=550.0
##LASTX=3846.0
##FIRSTY=0.000200
##MAXX=3846
##MINX=550
##MAXY=0.013
##MINY=0
##NPOINTS=825
##XYDATA=(X++(Y..Y))
550.0 154 152 83 54 105 141 53 87 119 9
590.0 12 28 60 163 164 83 59 117 101 72
630.0 127 122 55 95 111 33 10 47 75 45
670.0 50 85 166 154 80 130 166 155 213 209
710.0 147 117 131 187 188 129 126 190 206 204
750.0 216 236 257 264 309 318 330 371 432 527
790.0 560 629 785 961 1112 1255 1381 1433 1360 1244
830.0 1206 1222 1206 1140 1027 920 840 751 684 639
870.0 596 590 629 634 600 588 631 651 645 631
910.0 630 639 634 632 663 743 836 917 961 991
950.0 1027 1091 1141 1182 1202 1181 1169 1168 1203 1276
990.0 1347 1400 1421 1377 1334 1320 1260 1186 1128 1108
1030.0 1130 1145 1153 1171 1231 1345 1475 1647 1853 2110
1070.0 2367 2560 2600 2396 2024 1626 1306 1087 987 963
1110.0 995 1069 1185 1340 1472 1567 1697 1861 1986 2090
1150.0 2290 2502 2734 3003 3314 3726 4111 4484 4895 5297
1190.0 5839 6516 7001 7086 6638 5627 4388 3261 2432 1905
1230.0 1566 1331 1194 1105 1034 986 914 860 803 758
1270.0 741 733 736 758 767 755 768 793 906 1098
1310.0 1381 1779 2149 2269 2069 1630 1206 923 801 796
1350.0 844 920 1066 1327 1666 1982 2196 2251 2108 1846
1390.0 1536 1212 938 731 601 523 479 424 418 469
1430.0 500 515 578 693 806 948 1076 1228 1416 1551
1470.0 1566 1461 1291 1055 787 606 508 434 372 312
1510.0 337 364 320 308 324 317 311 290 318 375
1550.0 373 358 364 407 436 505 590 722 909 1075
1590.0 1350 1758 2264 2895 3585 4101 4246 4067 3749 3625
1630.0 3875 4261 4433 4202 3601 2852 2299 1982 1636 1300
1670.0 1023 816 691 572 457 363 277 213 174 172
1710.0 164 132 89 87 111 98 59 57 75 72
1750.0 69 86 83 80 81 44 68 98 83 84
1790.0 67 58 71 79 70 55 59 69 75 60
1830.0 58 60 48 59 75 83 70 73 100 112
1870.0 106 105 100 93 87 80 83 88 91 101
1910.0 92 91 89 80 84 94 87 66 56 63
1950.0 59 46 38 37 51 40 27 38 43 44
1990.0 50 37 39 64 75 77 65 64 52 48
2030.0 53 71 78 64 67 54 45 58 63 68
2070.0 60 41 50 47 47 59 55 50 58 68
2110.0 63 56 56 60 61 61 44 64 70 45
2150.0 42 40 54 54 54 68 57 35 35 27
2190.0 13 4 4 13 27 18 16 14 9 40
2230.0 39 0 7 46 39 5 11 33 25 28
2270.0 30 25 27 18 33 33 23 36 43 44
2310.0 37 39 30 3 1 1 1 1 1 17
2350.0 29 16 0 1 1 0 8 37 47 48
2390.0 61 62 56 53 46 50 50 41 33 34
2430.0 31 18 19 34 41 27 36 32 18 33
2470.0 42 45 27 20 55 52 53 70 71 62
2510.0 51 75 62 23 38 61 80 89 83 88
2550.0 72 65 75 100 107 98 104 105 93 89
2590.0 100 99 102 109 122 126 116 117 133 124
2630.0 113 117 101 103 112 112 130 122 79 83
2670.0 123 134 144 154 144 132 140 156 161 160
2710.0 179 208 226 247 263 256 252 254 254 263
2750.0 287 294 280 275 273 271 305 314 319 340
2790.0 343 389 432 437 469 524 555 578 619 681
2830.0 740 821 946 1112 1323 1595 1972 2409 2863 3413
2870.0 4026 4583 5027 5248 5193 4950 4687 4505 4467 4637
2910.0 4972 5355 5772 6259 6764 7200 7542 7742 7754 7652
2950.0 7691 8092 8834 9631 10000 9485 8147 6430 4792 3486
2990.0 2587 1978 1533 1246 1035 907 835 776 739 708
3030.0 651 600 577 581 602 654 644 565 537 509
3070.0 476 441 446 475 447 438 437 428 424 444
3110.0 491 545 621 681 690 623 489 363 276 260
3150.0 243 231 245 236 218 204 210 222 194 166
3190.0 168 167 218 244 199 173 144 132 120 111
3230.0 105 101 129 138 149 156 118 97 120 136
3270.0 139 132 117 115 96 118 127 99 110 101
3310.0 91 87 75 93 105 102 96 76 108 131
3350.0 141 168 142 82 61 62 72 112 118 120
3390.0 140 120 80 68 88 121 110 88 96 88
3430.0 98 80 69 91 106 117 127 122 92 88
3470.0 80 90 121 97 85 77 68 130 155 110
3510.0 77 58 50 47 81 88 65 38 1 52
3550.0 96 104 101 94 118 75 24 45 64 43
3590.0 39 58 60 85 120 109 68 43 59 66
3630.0 97 150 124 73 59 39 45 79 97 101
3670.0 69 53 81 113 99 58 70 97 68 32
3710.0 53 129 140 95 57 61 47 11 45 62
3750.0 36 66 105 97 104 51 50 97 99 100
3790.0 82 82 72 70 76 73 80 105 132 131
3830.0 121 113 103 84 110
##END=
