##TITLE=2-Chloro-6-fluorophenylacetic acid
##JCAMP-DX=4.24
##DATA TYPE=INFRARED SPECTRUM
##ORIGIN=EPA-IR VAPOR PHASE LIBRARY
##OWNER=SRD/NIST
Collection (C) 2018 copyright by the U.S. Secretary of Commerce
on behalf of the United States of America. All rights reserved.
##CAS REGISTRY NO=37777-76-7
##MOLFORM=C 8 H 6 Cl F O 2
##$NIST SOURCE=MSDC-IR
##STATE=gas
##XUNITS=1/CM
##YUNITS=ABSORBANCE
##XFACTOR=1.
##YFACTOR=0.001
##DELTAX=1.92934
##FIRSTX=549.9
##LASTX=3999.5
##FIRSTY=84.29
##MAXX=3999.53
##MINX=549.863
##MAXY=0.69894
##MINY=0
##NPOINTS=1789
##XYDATA=(X++(Y..Y))
549.863 84.29 75.34 66.27 58.12 51.52 46.81 43.49 41.27 39.98 39.21
569.156 38.88 39.12 39.85 40.93 42.52 44.71 47.47 50.81 54.9 59.86
588.450 65.48 71.57 78.16 85.17 92.76 100.61 107.81 113.78 118.98 124.42
607.743 130.37 136.42 142.22 147.46 151.42 153.8 154.44 153.15 150.06 144.95
627.037 138.03 129.93 121.28 112.74 104.67 97.27 90.58 84.58 79.22 74.31
646.330 69.81 65.71 62.18 59.24 56.73 54.59 52.89 51.53 50.39 49.5
665.624 48.91 48.54 48.1 47.64 47.1 46.37 45.49 44.45 43.15 41.66
684.917 40.07 38.41 36.72 35.1 33.52 31.94 30.41 28.93 27.58 26.33
704.210 25.16 24.18 23.53 23.28 23.43 24.01 24.8 25.67 26.69 28.14
723.504 30.06 30.67 28.92 26.87 25.57 24.36 22.88 21.22 19.62 18.33
742.797 17.29 16.59 16.2 16.1 16.27 16.95 18.31 20.91 25.7 34.04
762.091 47.21 66.05 89.16 113.21 133.96 153.72 184.54 238.49 256.65 195.71
781.384 151.3 139.26 122.43 97.61 71.01 49.27 34.35 25.68 20.97 18.63
800.678 17.46 16.87 16.48 16.29 16.24 16.36 16.68 17.3 18.2 19.43
819.971 21.04 23.17 25.81 29.07 33.07 37.88 43.33 49.16 54.93 60.23
839.264 64.79 68.58 71.66 74.12 76.23 77.99 79.14 79.75 80.04 80.07
858.558 79.68 78.79 77.34 75.25 72.5 69.16 65.39 61.38 57.35 53.46
877.851 49.77 46.38 42.96 39.06 35.36 32.32 29.61 27.14 25.01 23.23
897.145 21.89 20.95 20.29 19.87 19.7 19.71 19.86 20.1 20.36 20.72
916.438 21.16 21.68 22.32 23.11 24.09 25.36 27.14 29.6 32.95 37.53
935.732 43.92 52.8 65.04 81.47 102.3 126.61 151.92 174.64 191.15 199.37
955.025 200.21 195.97 185.74 166.76 139.18 107.97 79.93 58.54 43.86 34.4
974.318 28.55 24.99 22.77 21.31 20.41 19.88 19.54 19.35 19.26 19.17
993.612 19.03 18.83 18.56 18.21 17.75 17.22 16.7 16.14 15.59 15.14
1012.905 14.8 14.61 14.53 14.52 14.59 14.72 14.91 15.16 15.46 15.79
1032.199 16.18 16.63 17.11 17.61 18.26 19.07 19.95 20.94 22.15 23.58
1051.492 25.29 27.4 29.89 32.65 35.56 38.45 41.37 44.4 47.35 50.41
1070.786 53.7 57.06 60.75 64.99 69.96 75.78 82.47 90 98.45 107.89
1090.079 118.61 130.96 145.27 162.21 182.68 207.46 237.07 271.76 311.36 355.28
1109.372 402.69 452.43 501.58 544.37 574.02 587.91 587.88 573.82 545.6 507.57
1128.666 461.04 408.63 359.71 321.49 294.46 275.73 262.28 251.55 241.38 230.4
1147.959 218.4 205.35 191.67 178.58 167.03 157.46 149.34 141.8 134.61 127.78
1167.253 121.33 115.29 109.71 104.58 99.86 95.57 91.88 89.02 87.02 85.95
1186.546 85.64 86.04 87.02 88.13 89.13 89.84 90.02 89.62 88.69 87.23
1205.840 85.45 83.4 81.08 78.78 76.8 75.26 73.93 72.86 72.03 71.29
1225.133 70.66 70.38 70.79 72.19 75.26 81.05 90.77 105.47 125.72 150.59
1244.426 176.74 199.59 215.58 223.75 224.46 217.38 203.04 182.16 154.73 124.52
1263.720 98.06 78.96 66.68 59.11 54.42 51.33 49.13 47.51 46.2 45.06
1283.013 44 42.95 41.98 41.09 40.22 39.42 38.69 37.97 37.36 36.8
1302.307 36.19 35.56 34.96 34.38 33.85 33.43 33.21 33.21 33.47 34.01
1321.600 34.86 36.1 37.72 39.68 41.9 44.36 46.98 49.71 52.52 55.33
1340.894 58.13 60.96 63.89 67.08 70.74 75.14 80.49 86.73 93.38 99.74
1360.187 104.95 108.35 109.72 109.02 106.02 100.85 93.85 85.29 76.05 67.45
1379.480 60.17 54.36 49.79 46.2 43.27 40.77 38.72 37.07 35.77 34.75
1398.774 34.12 33.87 34.1 34.95 36.39 38.39 40.81 43.45 46.39 49.8
1418.067 53 54.7 55.01 55.32 55.99 56.89 58.32 60.78 64.78 70.8
1437.361 79.58 91.32 106.95 126.61 149.46 173.89 198.06 220.01 239.36 255.5
1456.654 267.75 273.53 270.54 260.28 244.73 225.54 204.31 181.74 158.36 134.78
1475.948 112.46 92.09 75.43 62.49 52.89 45.67 40.08 35.62 32.02 29.22
1495.241 27.14 25.46 24.06 22.93 22.11 21.54 21.2 21.09 21.22 21.51
1514.534 21.92 22.29 22.55 22.68 22.6 22.33 22.02 21.56 21.07 20.69
1533.828 20.51 20.57 20.99 21.79 22.88 24.25 25.86 27.72 29.91 32.37
1553.121 35.19 38.52 42.36 47.18 52.91 59.46 67.57 77.18 88.29 100.68
1572.415 113.43 125.76 137.26 146.62 152.8 155.41 153.81 148.2 139.2 127.85
1591.708 115.6 104.12 95.03 89.15 86.36 85.42 84.76 83.02 79.51 74.19
1611.002 67.38 59.36 50.92 42.47 34.83 28.61 23.9 20.54 18.24 16.7
1630.295 15.58 14.69 14.05 13.54 13.06 12.75 12.63 12.69 12.94 13.27
1649.588 13.62 14.03 14.32 14.32 14.21 14.01 13.75 13.44 13.02 12.59
1668.882 12.32 12.13 12.14 12.37 12.64 12.97 13.42 13.87 14.38 14.83
1688.175 15.27 15.85 16.45 17.1 17.92 18.77 19.75 20.79 21.82 22.98
1707.469 24.14 25.33 26.63 28.04 29.63 31.48 33.54 35.82 38.59 41.85
1726.762 45.62 49.97 54.93 60.42 66.56 72.7 78.81 85.01 90.86 96.47
1746.056 101.91 107.25 112.57 117.95 123.34 129.01 135.55 143.43 153.91 168.27
1765.349 188.42 217.43 258.17 311.51 378.75 452.66 524.71 587.22 637.58 676.18
1784.642 698.57 698.94 667.53 594.32 496.08 406.91 337.61 281.76 235.08 196.43
1803.936 166.34 143.92 127.45 114.98 105.06 96.59 88.95 81.8 75.21 69.37
1823.229 64.44 60.23 56.54 53.29 50.42 47.83 45.26 42.54 39.68 36.73
1842.523 33.88 31.13 28.5 26.01 23.73 21.7 19.99 18.55 17.29 16.2
1861.816 15.27 14.44 13.67 12.93 12.21 11.55 11.01 10.52 10.09 9.74
1881.110 9.48 9.24 9.04 8.91 8.84 8.8 8.84 8.94 9.09 9.36
1900.403 9.75 10.31 11.02 11.86 12.88 14.01 15.1 15.99 16.48 16.52
1919.696 16.24 15.59 14.45 13.17 11.88 10.5 9.23 8.28 7.6537 7.25249
1938.990 6.994 6.85 6.774 6.693 6.671 6.653 6.63 6.661 6.679 6.681
1958.283 6.735 6.799 6.838 6.89 6.958 7.027 7.0917 7.16729 7.23442 7.2921
1977.577 7.3637 7.4177 7.4562 7.5225 7.5641 7.5592 7.539 7.5282 7.5187 7.4466
1996.870 7.3278 7.19409 7.0801 6.968 6.816 6.661 6.53 6.406 6.281 6.185
2016.164 6.14 6.1 6.02 5.93 5.9 5.84 5.78 5.72 5.65 5.6
2035.457 5.54 5.5 5.46 5.41 5.4 5.37 5.35 5.35 5.37 5.36
2054.750 5.35 5.4 5.45 5.48 5.51 5.54 5.57 5.63 5.7 5.76
2074.044 5.84 5.94 5.99 6.03 6.14 6.227 6.292 6.368 6.419 6.44
2093.337 6.452 6.457 6.422 6.375 6.316 6.274 6.228 6.15 6.09 6.04
2112.631 6.02 5.99 5.96 5.97 5.97 5.95 5.89 5.84 5.81 5.78
2131.924 5.73 5.62 5.53 5.45 5.36 5.28 5.2 5.13 5.06 4.99
2151.218 4.99 4.99 4.98 4.99 5 5.03 5.05 5.06 5.08 5.09
2170.511 5.1 5.13 5.16 5.17 5.18 5.18 5.18 5.2 5.23 5.28
2189.804 5.38 5.48 5.59 5.73 5.87 5.98 6.13 6.269 6.384 6.505
2209.098 6.595 6.654 6.713 6.766 6.837 6.933 7.023 7.1237 7.21334 7.2891
2228.391 7.3481 7.3698 7.365 7.2997 7.17594 7.013 6.8 6.603 6.41 6.23
2247.685 6.08 5.97 5.88 5.77 5.69 5.66 5.63 5.63 5.65 5.65
2266.978 5.66 5.67 5.71 5.77 5.83 5.9 5.94 5.97 6 6.05
2286.272 6.09 6.14 6.183 6.23 6.264 6.281 6.339 6.426 6.463 6.491
2305.565 6.543 6.547 6.572 6.596 6.567 6.52 6.472 6.44 6.356 6.265
2324.858 6.204 6.13 6.04 5.92 5.85 5.81 5.73 5.69 5.69 5.67
2344.152 5.6 5.56 5.53 5.55 5.59 5.62 5.62 5.61 5.63 5.63
2363.445 5.6 5.56 5.52 5.49 5.49 5.48 5.47 5.49 5.48 5.45
2382.739 5.45 5.45 5.48 5.55 5.57 5.57 5.6 5.65 5.72 5.78
2402.032 5.84 5.87 5.94 5.99 5.99 5.99 5.98 5.93 5.88 5.81
2421.326 5.73 5.63 5.56 5.52 5.48 5.45 5.45 5.48 5.5 5.54
2440.619 5.6 5.65 5.7 5.78 5.84 5.87 5.92 5.98 6.02 6.07
2459.912 6.08 6.08 6.09 6.09 6.07 6.03 5.97 5.9 5.86 5.82
2479.206 5.79 5.75 5.72 5.73 5.76 5.85 5.94 6.01 6.07 6.08
2498.499 6.1 6.1 6.08 5.98 5.86 5.74 5.54 5.36 5.23 5.12
2517.793 4.99 4.86 4.76 4.72 4.68 4.61 4.58 4.52 4.48 4.47
2537.086 4.43 4.36 4.31 4.31 4.25 4.2 4.15 4.07 4.04 4.02
2556.380 3.96 3.89 3.84 3.79 3.73 3.71 3.75 3.77 3.74 3.72
2575.673 3.68 3.69 3.73 3.75 3.77 3.78 3.82 3.85 3.88 3.93
2594.966 3.98 4.03 4.01 4 3.99 3.99 3.96 3.89 3.86 3.88
2614.260 3.88 3.83 3.76 3.75 3.76 3.73 3.7 3.68 3.66 3.64
2633.553 3.62 3.64 3.69 3.68 3.66 3.67 3.67 3.68 3.71 3.7
2652.847 3.71 3.74 3.75 3.78 3.79 3.79 3.81 3.82 3.79 3.76
2672.140 3.71 3.64 3.59 3.51 3.4 3.33 3.3 3.21 3.14 3.11
2691.434 3.08 3.05 3.05 3.07 3.07 3.07 3.06 3.07 3.08 3.1
2710.727 3.13 3.15 3.16 3.14 3.12 3.06 3 3.01 3.01 2.99
2730.020 2.96 2.94 2.92 2.88 2.84 2.81 2.78 2.78 2.75 2.65
2749.314 2.58 2.59 2.54 2.46 2.37 2.31 2.23 2.18 2.16 2.15
2768.607 2.13 2.04 1.98 1.95 1.91 1.9 1.92 1.91 1.9 1.84
2787.901 1.8 1.8 1.77 1.75 1.76 1.76 1.78 1.79 1.79 1.71
2807.194 1.73 1.8 1.84 1.88 1.84 1.87 1.88 1.84 1.83 1.89
2826.488 1.98 1.95 1.9 1.81 1.77 1.79 1.72 1.69 1.73 1.71
2845.781 1.68 1.69 1.65 1.6 1.59 1.62 1.6 1.61 1.66 1.7
2865.074 1.74 1.71 1.69 1.78 1.84 1.85 1.86 1.93 2.03 2.07
2884.368 2.06 2.16 2.29 2.35 2.43 2.54 2.63 2.7 2.77 2.87
2903.661 2.92 2.94 3 3.08 3.11 3.12 3.18 3.25 3.29 3.36
2922.955 3.51 3.74 4.05 4.46 4.9 5.39 6.03 6.696 7.4823 8.44
2942.248 9.57 10.83 12.14 13.4 14.58 15.6 16.28 16.49 16.35 15.8
2961.542 14.85 13.64 12.21 10.71 9.34 8.18 7.16538 6.302 5.59 5.04
2980.835 4.59 4.19 3.88 3.69 3.56 3.48 3.42 3.38 3.47 3.54
3000.128 3.61 3.85 4.06 4.28 4.51 4.78 5.03 5.17 5.32 5.34
3019.422 5.27 5.22 5.09 4.87 4.66 4.53 4.28 3.96 3.81 3.69
3038.715 3.6 3.62 3.64 3.57 3.61 3.72 3.83 4.09 4.31 4.56
3058.009 4.97 5.46 6.1 6.979 8.0677 9.41 11.07 13.06 15.19 17.12
3077.302 18.74 19.99 20.71 20.86 20.49 19.63 18.27 16.48 14.45 12.49
3096.596 10.77 9.2 7.6407 6.06 4.63 3.46 2.56 1.93 1.5 1.25
3115.889 1.11 1 0.87 0.71 0.64 0.63 0.63 0.65 0.61 0.58
3135.182 0.61 0.56 0.54 0.55 0.59 0.62 0.65 0.68 0.65 0.66
3154.476 0.66 0.65 0.61 0.59 0.55 0.49 0.41 0.31 0.35 0.32
3173.769 0.15 0.14 0.14 0.07 0 0.01 0.12 0.13 0.03 0.02
3193.063 0.19 0.22 0.24 0.26 0.21 0.22 0.18 0.18 0.27 0.29
3212.356 0.24 0.29 0.35 0.31 0.29 0.32 0.36 0.31 0.26 0.26
3231.650 0.34 0.39 0.32 0.25 0.3 0.4 0.44 0.42 0.44 0.56
3250.943 0.53 0.45 0.5 0.58 0.57 0.51 0.57 0.58 0.45 0.4
3270.236 0.5 0.58 0.57 0.62 0.62 0.61 0.62 0.64 0.62 0.64
3289.530 0.67 0.74 0.72 0.7 0.79 0.8 0.85 0.89 0.83 0.79
3308.823 0.87 0.89 0.87 0.89 0.88 0.93 0.93 0.88 0.92 0.94
3328.117 0.94 0.94 0.92 0.98 1.07 1.09 1.08 1.13 1.12 1.04
3347.410 1.03 1.08 1.1 1.04 1.1 1.2 1.14 1.14 1.16 1.21
3366.704 1.23 1.23 1.25 1.28 1.32 1.33 1.37 1.37 1.43 1.43
3385.997 1.4 1.39 1.42 1.49 1.47 1.47 1.5 1.56 1.59 1.62
3405.290 1.71 1.72 1.69 1.77 1.82 1.77 1.73 1.82 1.91 1.96
3424.584 1.99 1.92 1.89 2.01 2.06 2.13 2.24 2.24 2.28 2.32
3443.877 2.35 2.44 2.54 2.52 2.46 2.46 2.46 2.5 2.54 2.56
3463.171 2.64 2.68 2.76 2.82 2.8 2.89 2.98 2.95 3.01 3.2
3482.464 3.33 3.38 3.44 3.55 3.78 3.93 4.07 4.35 4.52 4.62
3501.758 4.83 5.07 5.21 5.38 5.56 5.67 5.86 6.12 6.405 6.695
3521.051 6.998 7.367 7.8594 8.43 8.97 9.58 10.36 11.24 12.28 13.3
3540.344 14.24 15.26 16.21 17.11 17.97 18.92 20.18 22.12 25.29 30.3
3559.638 38.52 51.52 71.07 98.65 133.5 171.6 207.45 238.42 263.47 276.19
3578.931 266.1 238.4 207.48 174.48 136.63 98.76 67.83 46.36 32.89 25.1
3598.225 20.73 18.23 16.74 15.76 15.06 14.43 13.79 13.14 12.37 11.59
3617.518 10.76 9.92 9.19 8.61 8.19 7.8578 7.5253 7.24222 7.0769 6.857
3636.812 6.682 6.502 6.345 6.172 5.98 5.89 5.7 5.39 5.21 5.09
3656.105 4.94 4.78 4.66 4.51 4.35 4.32 4.29 4.24 4.19 4.15
3675.398 4.18 4.19 4.12 4.07 4.08 4.1 4.12 4.07 3.98 3.97
3694.692 4.04 4.06 4.05 4.07 4.14 4.13 4.08 4.13 4.14 4.09
3713.985 4.12 4.17 4.09 4.04 3.98 3.95 3.99 3.97 3.98 4.01
3733.279 4.02 4.06 4.04 3.97 4 4.06 4.07 4 3.96 3.99
3752.572 3.96 3.9 3.94 3.95 3.9 3.9 3.89 3.85 3.86 3.86
3771.866 3.83 3.79 3.83 3.87 3.87 3.87 3.85 3.87 3.86 3.88
3791.159 3.91 3.96 3.97 3.98 4.01 4.03 4.11 4.12 4.17 4.19
3810.452 4.13 4.15 4.23 4.25 4.21 4.16 4.18 4.17 4.1 4.04
3829.746 4 4.03 4.06 4.08 4.13 4.13 4.05 4.07 4.09 4.07
3849.039 4.14 4.18 4.19 4.23 4.14 4.1 4.14 4.14 4.16 4.17
3868.333 4.22 4.23 4.2 4.22 4.19 4.19 4.25 4.28 4.31 4.34
3887.626 4.34 4.38 4.43 4.45 4.44 4.44 4.44 4.53 4.58 4.54
3906.920 4.51 4.55 4.62 4.67 4.67 4.66 4.63 4.68 4.76 4.77
3926.213 4.79 4.79 4.88 4.93 4.92 4.93 4.92 4.92 4.89 4.92
3945.506 4.89 4.79 4.77 4.75 4.66 4.6 4.61 4.58 4.54 4.45
3964.800 4.32 4.3 4.31 4.3 4.27 4.23 4.18 4.1 4.1 4.16
3984.093 4.14 4.11 4.14 4.14 4.1 4.06 4.08 4.1 4.11
##END=
