##TITLE=2,4-Dichloropropiophenone
##JCAMP-DX=4.24
##DATA TYPE=INFRARED SPECTRUM
##ORIGIN=EPA-IR VAPOR PHASE LIBRARY
##OWNER=SRD/NIST
Collection (C) 2018 copyright by the U.S. Secretary of Commerce
on behalf of the United States of America. All rights reserved.
##CAS REGISTRY NO=37885-41-9
##MOLFORM=C 9 H 8 Cl 2 O
##$NIST SOURCE=MSDC-IR
##STATE=gas
##XUNITS=1/CM
##YUNITS=ABSORBANCE
##XFACTOR=1.
##YFACTOR=0.001
##DELTAX=1.92934
##FIRSTX=549.9
##LASTX=3999.5
##FIRSTY=4
##MAXX=3999.53
##MINX=549.863
##MAXY=0.11638
##MINY=0
##NPOINTS=1789
##XYDATA=(X++(Y..Y))
549.863 4 4.07 4.56 4.9 5.12 5.52 6.11 7.09 8.24 9.4
569.156 10.37 11.12 11.63 11.55 11.14 10.47 9.48 8.38 7.31 6.36
588.450 5.5 4.75 4.21 3.84 3.57 3.46 3.42 3.23 2.96 2.84
607.743 2.84 2.7 2.67 2.71 2.58 2.45 2.28 2.22 2.1231 2.0356
627.037 2.1056 2.0473 2.1195 2.21 2.27 2.31 2.29 2.32 2.28 2.32
646.330 2.38 2.44 2.49 2.55 2.58 2.62 2.75 2.86 2.99 3.3
665.624 3.57 3.75 3.89 4.01 4.18 4.16 3.96 3.84 3.67 3.36
684.917 3.13 2.97 2.81 2.74 2.74 2.75 2.75 2.74 2.8 2.95
704.210 3.05 3.06 3.06 3.07 3.06 3.05 3.01 2.97 2.93 2.87
723.504 2.85 2.84 2.85 2.86 2.89 2.92 2.89 2.91 2.99 3.06
742.797 3.07 3.06 3.13 3.21 3.25 3.32 3.42 3.6 3.75 3.83
762.091 3.99 4.22 4.41 4.68 5.02 5.38 5.82 6.28 6.74 7.32
781.384 8.14 9.16 10.49 12.25 14.59 17.54 21.19 25.59 30.78 36.76
800.678 43.18 49.69 55.97 61.5 65.95 69.01 70.58 70.62 69.14 66.32
819.971 62.21 57.06 51.2 44.88 38.46 32.22 26.5 21.57 17.45 14.22
839.264 11.84 10.07 8.77 7.87 7.34 7.06 7.16 7.62 8.4 9.71
858.558 11.44 13.4 15.44 17.54 19.67 21.86 22.91 20.88 17.84 15.56
877.851 13.34 11.2 9.11 7.4 6.11 5.2 4.67 4.4 4.28 4.23
897.145 4.27 4.4 4.62 4.88 5.2 5.57 6.02 6.58 7.29 8.17
916.438 9.34 10.95 12.94 15.55 19.02 23.3 28.5 34.38 40.57 46.49
935.732 51.39 54.86 56.61 56.67 55.38 53.09 50.11 46.41 42.2 37.81
955.025 33.28 28.55 23.68 18.98 14.87 11.7 9.53 8.1 7.12 6.44
974.318 6.01 5.74 5.58 5.51 5.54 5.68 5.88 6.15 6.52 7.02
993.612 7.71 8.6 9.62 10.92 12.57 14.46 16.47 18.47 20.36 21.77
1012.905 22.39 22.19 21.23 19.62 17.55 15.2 13.02 11.26 9.92 9.09
1032.199 8.72 8.63 8.88 9.51 10.49 11.76 13.45 15.52 17.71 19.9
1051.492 21.87 23.33 24.32 24.86 24.82 24.28 23.42 22.5 21.84 21.6
1070.786 21.79 22.34 23.29 24.65 26.34 28.33 30.42 32.46 34.2 35.55
1090.079 36.7 37.81 39.2 41.1 43.63 46.69 49.83 52.23 53.17 52.24
1109.372 49.43 45.13 39.56 33.22 27.04 21.97 18.28 15.69 13.98 13.03
1128.666 12.63 12.73 13.33 14.35 15.48 16.05 16.06 15.89 15.14 13.81
1147.959 12.03 9.98 8.27 7.05 6.15 5.52 5.28 5.16 5.24 5.52
1167.253 5.88 6.31 6.84 7.58 8.56 9.61 10.7 12.05 13.66 15.46
1186.546 17.4 19.68 22.42 25.61 29.14 33.15 37.58 41.94 45.7 48.19
1205.840 49.19 49.15 48.14 45.54 41.59 37.52 33.81 30.32 26.94 23.66
1225.133 20.81 18.39 16.41 14.81 13.6 12.65 11.98 11.61 11.42 11.72
1244.426 12.45 13.38 14.61 16.04 17.47 18.68 19.67 20.39 20.62 20.52
1263.720 20.26 20.04 20.17 20.36 20.33 20.24 19.89 19.11 18.1 17.01
1283.013 15.66 14.18 12.87 11.75 10.76 9.97 9.35 8.92 8.76 8.63
1302.307 8.61 8.72 8.9 9.19 9.48 9.79 10.14 10.64 11.14 11.62
1321.600 12.34 13.2 14.17 15.33 16.7 18.28 20.02 21.92 23.82 25.49
1340.894 26.87 27.7 27.93 27.66 26.93 25.91 24.85 24.13 24.08 24.84
1360.187 26.37 28.66 31.51 34.51 37.4 39.78 41.29 41.82 41.45 40.04
1379.480 37.45 34.14 30.52 26.93 23.59 20.55 17.82 15.56 13.81 12.47
1398.774 11.5 10.88 10.47 10.17 10.13 10.2 10.35 10.66 11.02 11.43
1418.067 11.88 12.38 12.95 13.57 14.23 14.98 15.87 16.86 17.89 18.79
1437.361 19.59 20.27 20.69 20.94 21.21 21.58 22.27 23.26 24.73 26.82
1456.654 29.6 32.86 35.97 38.47 39.83 39.96 38.72 36.19 32.55 28.26
1475.948 24.03 20.25 17.24 14.78 12.89 11.38 10.17 9.14 8.27 7.66
1495.241 7.15 6.71 6.46 6.35 6.25 6.16 6.12 6.21 6.39 6.53
1514.534 6.76 7.02 7.24 7.46 7.75 7.99 8.24 8.62 9.08 9.64
1533.828 10.45 11.44 12.63 14.24 16.14 18.13 20.15 22.02 23.55 24.79
1553.121 25.65 26.14 26.35 26.37 26.59 27.41 29.27 32.36 36.93 43.32
1572.415 51.43 61.13 72.89 85.28 96.24 104.38 107.6 105.37 97.99 86.33
1591.708 71.54 55.34 40.31 28.73 21.04 16.32 13.36 11.4 10.12 9.16
1611.002 8.45 7.87 7.44 7.12 6.83 6.62 6.49 6.37 6.27 6.19
1630.295 6.17 6.12 6.06 6.04 6.07 6.14 6.26 6.33 6.4 6.5
1649.588 6.64 6.76 6.9 7.18 7.49 7.8 8.19 8.69 9.31 10.06
1668.882 10.97 11.98 13.07 14.18 15.44 16.71 18.05 19.54 21.41 23.58
1688.175 25.93 28.82 32.39 36.66 42.29 48.96 56.89 66.79 76.91 87.96
1707.469 98.47 107.37 113.59 116.38 115.12 109.89 101.35 91.46 80.83 70.65
1726.762 61.47 53.54 46.73 40.97 35.78 31.54 27.97 24.65 21.82 19.32
1746.056 17.07 15.08 13.43 12 10.8 9.77 8.86 8.04 7.32 6.74
1765.349 6.21 5.7 5.32 4.96 4.65 4.42 4.15 3.9 3.69 3.45
1784.642 3.18 2.97 2.78 2.55 2.35 2.16 2.0315 1.9328 1.8469 1.8116
1803.936 1.7903 1.7688 1.7272 1.6966 1.7073 1.7211 1.7079 1.7366 1.7369 1.6623
1823.229 1.585 1.4649 1.4625 1.437 1.3319 1.2848 1.22798 1.17125 1.1036 1.0968
1842.523 1.0624 1.0527 1.1335 1.1262 1.0933 1.0826 1.1008 1.16846 1.21822 1.2871
1861.816 1.3116 1.3261 1.3959 1.4392 1.4856 1.5475 1.6019 1.6627 1.7196 1.7803
1881.110 1.9107 1.9973 2.0044 2.0344 2.0987 2.1067 2.0656 2.0533 2.0621 2.0613
1900.403 2.0162 1.9238 1.8594 1.8418 1.8013 1.6837 1.5559 1.4841 1.4497 1.3626
1919.696 1.2607 1.2175 1.18895 1.15754 1.1264 1.1024 1.018 0.95 0.938 0.923
1938.990 0.917 0.853 0.846 0.857 0.818 0.818 0.777 0.743 0.757 0.739
1958.283 0.688 0.696 0.704 0.659 0.669 0.698 0.655 0.613 0.625 0.635
1977.577 0.646 0.682 0.702 0.695 0.683 0.678 0.681 0.647 0.597 0.581
1996.870 0.603 0.582 0.56 0.576 0.596 0.62 0.637 0.573 0.514 0.58
2016.164 0.587 0.556 0.551 0.522 0.524 0.493 0.462 0.488 0.522 0.485
2035.457 0.445 0.446 0.468 0.493 0.505 0.488 0.463 0.47 0.434 0.428
2054.750 0.486 0.495 0.443 0.433 0.436 0.416 0.404 0.414 0.434 0.447
2074.044 0.446 0.421 0.416 0.426 0.39 0.418 0.455 0.431 0.424 0.408
2093.337 0.407 0.432 0.451 0.443 0.431 0.402 0.409 0.496 0.498 0.442
2112.631 0.444 0.436 0.412 0.406 0.405 0.427 0.454 0.489 0.5 0.489
2131.924 0.513 0.548 0.563 0.579 0.578 0.554 0.56 0.561 0.566 0.567
2151.218 0.565 0.583 0.549 0.518 0.519 0.5 0.507 0.502 0.469 0.454
2170.511 0.44 0.439 0.471 0.449 0.438 0.448 0.454 0.469 0.476 0.475
2189.804 0.481 0.504 0.479 0.47 0.487 0.476 0.475 0.501 0.51 0.502
2209.098 0.516 0.509 0.496 0.519 0.534 0.553 0.561 0.546 0.556 0.556
2228.391 0.586 0.613 0.566 0.568 0.592 0.597 0.563 0.563 0.569 0.539
2247.685 0.603 0.649 0.669 0.689 0.686 0.701 0.715 0.712 0.706 0.7
2266.978 0.692 0.642 0.627 0.657 0.685 0.738 0.753 0.721 0.777 0.831
2286.272 0.8 0.785 0.806 0.816 0.783 0.756 0.765 0.73 0.704 0.745
2305.565 0.791 0.764 0.752 0.8 0.832 0.815 0.795 0.795 0.796 0.812
2324.858 0.804 0.828 0.79 0.753 0.792 0.802 0.809 0.798 0.759 0.765
2344.152 0.746 0.753 0.788 0.781 0.788 0.761 0.737 0.741 0.742 0.733
2363.445 0.697 0.689 0.702 0.682 0.65 0.669 0.678 0.661 0.669 0.69
2382.739 0.714 0.673 0.663 0.699 0.72 0.765 0.782 0.761 0.761 0.749
2402.032 0.712 0.693 0.691 0.686 0.674 0.678 0.736 0.711 0.645 0.664
2421.326 0.663 0.681 0.66 0.609 0.614 0.576 0.562 0.59 0.621 0.688
2440.619 0.681 0.651 0.644 0.66 0.67 0.707 0.74 0.707 0.698 0.697
2459.912 0.713 0.701 0.67 0.687 0.679 0.631 0.646 0.687 0.654 0.619
2479.206 0.644 0.721 0.723 0.661 0.712 0.76 0.744 0.733 0.74 0.75
2498.499 0.804 0.849 0.886 0.951 0.99 1.007 0.999 1.021 1.0485 1.0698
2517.793 1.1145 1.0793 1.031 1.0557 1.0684 1.023 0.962 0.95 0.949 0.888
2537.086 0.86 0.841 0.788 0.762 0.708 0.65 0.576 0.551 0.574 0.594
2556.380 0.541 0.502 0.506 0.502 0.55 0.512 0.464 0.478 0.502 0.495
2575.673 0.458 0.447 0.522 0.616 0.562 0.48 0.475 0.471 0.478 0.54
2594.966 0.533 0.531 0.586 0.582 0.577 0.602 0.599 0.597 0.637 0.713
2614.260 0.758 0.711 0.716 0.763 0.717 0.748 0.764 0.763 0.758 0.808
2633.553 0.906 0.891 0.876 0.892 0.903 0.897 0.895 0.878 0.839 0.778
2652.847 0.783 0.838 0.875 0.831 0.749 0.785 0.812 0.782 0.767 0.778
2672.140 0.831 0.868 0.872 0.824 0.782 0.803 0.828 0.868 0.899 0.901
2691.434 0.838 0.76 0.834 0.861 0.805 0.863 0.917 0.845 0.816 0.856
2710.727 0.92 0.943 0.962 0.96 0.882 0.846 0.845 0.873 0.856 0.806
2730.020 0.82 0.945 0.966 0.892 0.96 0.976 0.986 0.993 0.959 0.995
2749.314 1.0719 1.1222 1.0766 1.007 1.029 1.0936 1.0808 1.075 1.0714 1.0547
2768.607 1.028 1.0459 1.0873 1.1201 1.16135 1.15708 1.22742 1.22314 1.21675 1.3445
2787.901 1.3264 1.3 1.3978 1.4223 1.4589 1.5944 1.6558 1.6176 1.5732 1.6261
2807.194 1.746 1.8308 1.9208 1.9657 2.0022 2.0554 2.1302 2.1305 2.0657 2.22
2826.488 2.33 2.24 2.24 2.3 2.3 2.34 2.44 2.56 2.61 2.6
2845.781 2.69 2.73 2.73 2.89 3.04 3.14 3.25 3.34 3.46 3.67
2865.074 3.88 4.09 4.36 4.67 5.04 5.61 6.29 7 7.81 8.72
2884.368 9.7 10.78 11.6 12.27 12.8 12.99 13.11 12.87 12.4 12.16
2903.661 12.06 11.93 11.87 12.05 12.19 12.26 12.4 12.45 12.49 12.51
2922.955 12.45 12.37 12.29 12.32 12.5 12.87 13.51 14.35 15.53 17.18
2942.248 19.32 21.71 23.77 25.21 25.83 25.64 24.86 23.35 21.36 19.41
2961.542 17.79 16.9 16.59 16.68 17.1 17.8 18.92 20.42 22.16 24.07
2980.835 25.99 27.61 28.83 29.34 28.97 27.86 26.14 23.96 21.45 19.11
3000.128 17.06 15.2 13.53 12.05 10.89 9.97 9.09 8.26 7.55 7.11
3019.422 6.65 6.19 5.81 5.34 4.94 4.69 4.5 4.2 3.88 3.76
3038.715 3.68 3.5 3.35 3.33 3.27 3.19 3.1 2.94 3 3.16
3058.009 3.18 3.16 3.36 3.58 3.6 3.66 3.72 3.76 3.77 3.76
3077.302 3.82 3.62 3.36 3.36 3.22 3.02 2.89 2.7 2.54 2.49
3096.596 2.43 2.35 2.29 2.106 2.0039 1.9275 1.7159 1.5431 1.4095 1.2776
3115.889 1.23285 1.2927 1.3281 1.2822 1.22999 1.13137 1.011 1.0587 1.14238 1.15182
3135.182 1.19453 1.2451 1.2461 1.20944 1.0561 0.935 0.931 0.908 0.838 0.743
3154.476 0.813 0.754 0.727 0.836 0.911 0.849 0.767 0.875 0.954 0.917
3173.769 0.844 0.841 0.826 0.785 0.718 0.677 0.676 0.664 0.648 0.657
3193.063 0.591 0.392 0.33 0.375 0.463 0.378 0.146 0.345 0.47 0.363
3212.356 0.314 0.449 0.449 0.226 0.294 0.371 0.4 0.347 0.358 0.521
3231.650 0.504 0.178 0.1 0.201 0.172 0.08 0.13 0.318 0.2 0.23
3250.943 0.384 0.466 0.433 0.286 0.218 0.322 0.331 0.157 0.204 0.287
3270.236 0.32 0.34 0.22 0.283 0.19 0.05 0.04 0 0.11 0.225
3289.530 0.379 0.404 0.365 0.464 0.579 0.473 0.312 0.22 0.181 0.246
3308.823 0.262 0.316 0.42 0.483 0.383 0.342 0.318 0.145 0.272 0.423
3328.117 0.212 0.145 0.453 0.61 0.517 0.409 0.403 0.455 0.383 0.339
3347.410 0.424 0.429 0.574 0.668 0.596 0.691 0.655 0.63 0.616 0.702
3366.704 0.844 0.746 0.839 1.024 1.0944 1.0664 0.989 1.0654 1.0721 1
3385.997 1.1168 1.16382 1.2251 1.3651 1.4063 1.6144 1.7398 1.7795 1.8422 1.826
3405.290 1.9735 1.979 1.8716 1.9602 1.8705 1.85 1.9407 1.8537 1.7645 1.6947
3424.584 1.6798 1.4871 1.21228 1.2996 1.20576 1.007 1.02 1.035 1.0701 0.899
3443.877 0.787 0.826 0.7 0.574 0.633 0.762 0.8 0.714 0.807 0.825
3463.171 0.803 0.821 0.764 0.642 0.408 0.51 0.582 0.454 0.415 0.399
3482.464 0.428 0.505 0.593 0.636 0.701 0.645 0.479 0.363 0.427 0.578
3501.758 0.652 0.636 0.51 0.393 0.229 0.147 0.214 0.375 0.477 0.485
3521.051 0.57 0.619 0.464 0.307 0.282 0.332 0.378 0.483 0.516 0.432
3540.344 0.42 0.534 0.437 0.381 0.509 0.416 0.455 0.539 0.582 0.567
3559.638 0.551 0.507 0.467 0.533 0.418 0.445 0.573 0.471 0.474 0.55
3578.931 0.516 0.449 0.494 0.557 0.484 0.526 0.548 0.596 0.669 0.606
3598.225 0.526 0.604 0.696 0.624 0.572 0.532 0.554 0.555 0.632 0.638
3617.518 0.562 0.546 0.434 0.395 0.431 0.386 0.298 0.429 0.593 0.606
3636.812 0.64 0.563 0.525 0.626 0.673 0.614 0.535 0.566 0.655 0.727
3656.105 0.684 0.592 0.557 0.58 0.538 0.476 0.555 0.602 0.648 0.693
3675.398 0.704 0.675 0.695 0.793 0.791 0.751 0.659 0.56 0.649 0.829
3694.692 0.901 0.776 0.653 0.633 0.595 0.663 0.717 0.728 0.584 0.494
3713.985 0.662 0.752 0.768 0.759 0.769 0.815 0.764 0.686 0.61 0.556
3733.279 0.699 0.698 0.619 0.683 0.719 0.683 0.668 0.729 0.723 0.768
3752.572 0.752 0.83 0.95 0.863 0.937 0.978 0.91 0.907 0.975 1.017
3771.866 0.893 0.851 0.847 0.776 0.747 0.743 0.716 0.793 0.832 0.753
3791.159 0.767 0.755 0.769 0.778 0.69 0.674 0.723 0.72 0.636 0.686
3810.452 0.822 0.851 0.704 0.626 0.714 0.68 0.555 0.678 0.881 0.81
3829.746 0.72 0.808 0.801 0.644 0.629 0.737 0.752 0.726 0.744 0.795
3849.039 0.778 0.701 0.68 0.61 0.669 0.813 0.837 0.762 0.748 0.821
3868.333 0.839 0.836 0.883 0.835 0.778 0.851 0.949 0.936 0.85 0.889
3887.626 1.027 1.0926 0.98 0.846 0.94 0.961 0.886 0.866 0.798 0.814
3906.920 0.919 0.946 0.884 0.895 1.0431 1.0881 1.033 0.941 0.805 0.734
3926.213 0.79 0.831 0.784 0.858 0.786 0.826 0.986 0.94 0.891 0.825
3945.506 0.803 0.835 0.851 0.85 0.98 1.0581 0.963 0.97 1.0498 0.969
3964.800 0.898 0.842 0.78 0.86 0.946 1.0866 1.15884 1.13222 1.0668 1.027
3984.093 1.031 1.0711 1.1096 1.1017 1.0713 1.0496 1.1218 1.1109 1.037
##END=
