##TITLE=4'-Butylacetophenone
##JCAMP-DX=4.24
##DATA TYPE=INFRARED SPECTRUM
##ORIGIN=EPA-IR VAPOR PHASE LIBRARY
##OWNER=SRD/NIST
Collection (C) 2018 copyright by the U.S. Secretary of Commerce
on behalf of the United States of America. All rights reserved.
##CAS REGISTRY NO=37920-25-5
##MOLFORM=C 12 H 16 O
##$NIST SOURCE=MSDC-IR
##STATE=gas
##XUNITS=1/CM
##YUNITS=ABSORBANCE
##XFACTOR=1.
##YFACTOR=0.001
##DELTAX=1.92898
##FIRSTX=549.8
##LASTX=4000.7
##FIRSTY=3.3892
##MAXX=4000.7
##MINX=549.759
##MAXY=0.169789
##MINY=0
##NPOINTS=1790
##XYDATA=(X++(Y..Y))
549.759 3.3892 3.8392 4.1192 4.3492 4.6192 5.5592 7.2292 8.6792 10.2692 12.2092
569.049 14.2092 16.0692 17.6992 19.4492 20.9492 21.7892 22.3192 22.5792 22.6092 22.5092
588.339 22.2492 21.8192 21.4592 20.8692 19.9292 18.6392 16.7392 14.7492 12.6392 10.5692
607.628 8.9192 7.7092 6.5892 5.4992 4.6792 3.9892 3.3392 3.0892 3.0692 2.7792
626.918 2.5692 2.5092 2.4892 2.4692 2.3892 2.4792 2.5992 2.6792 2.8992 3.0992
646.208 3.4392 3.7392 3.9592 4.2992 4.7292 5.1092 5.1592 5.2392 5.1592 4.9392
665.498 4.8092 4.4992 4.2092 4.1892 4.2292 4.4792 4.7592 4.9392 5.2092 5.4392
684.787 5.4892 5.3292 5.0892 4.6492 4.0292 3.4592 3.0892 2.7492 2.4592 2.1492
704.077 1.9392 1.9792 1.9692 1.7592 1.5792 1.6592 1.8892 1.8992 1.8892 1.9392
723.367 1.9092 1.9792 2.1092 2.1892 2.2492 2.3592 2.5792 2.7592 2.9192 3.2492
742.657 3.7192 3.9592 3.9192 4.0492 4.1392 4.0692 3.9492 3.9192 3.7492 3.5692
761.947 3.5092 3.5092 3.6692 3.9292 4.0192 4.1592 4.5592 4.8092 4.9992 5.4492
781.236 5.8992 6.3592 6.8192 7.1792 7.6492 7.9192 8.2592 8.8792 9.5492 10.1492
800.526 10.7492 11.5292 12.4392 13.3092 14.1992 15.2192 15.9692 16.6692 17.2892 17.5792
819.816 17.8492 18.0092 17.7192 17.6092 17.8392 17.5392 17.1992 16.9192 16.5692 16.1592
839.106 15.5792 14.6292 13.4492 12.0692 10.8092 9.4392 7.7592 6.6292 5.7192 5.0692
858.395 4.4692 3.8992 3.5792 3.3392 3.1792 3.0392 2.8292 2.7892 3.0192 3.0592
877.685 2.9092 2.9692 3.1292 3.2092 3.0692 2.9892 3.0592 3.1092 3.1592 3.0392
896.975 3.0792 3.0292 2.8892 2.8192 2.6492 2.6992 2.7892 2.7792 2.7092 2.8392
916.265 3.0292 3.1092 3.2492 3.5292 3.7992 4.2192 4.9092 5.4792 6.1492 6.9292
935.555 7.9492 9.4992 11.1492 13.1792 15.9492 19.0792 22.1692 24.8492 26.3492 26.6492
954.844 26.0392 24.3192 21.7092 18.5792 15.6092 13.2192 11.3992 9.9292 8.6492 7.6692
974.134 6.8592 6.1192 5.5992 5.2592 5.0892 4.7892 4.6792 4.7092 4.6592 4.6192
993.424 4.3892 4.4492 4.7492 5.0392 5.3392 5.7592 6.6292 7.7092 9.2892 11.4592
1012.714 13.3092 14.2292 13.7192 12.9592 12.0892 10.0092 7.4692 5.4792 4.2292 3.9592
1032.003 3.8892 3.5192 3.2992 3.1892 3.1492 3.4292 3.3892 3.3592 3.7492 4.0992
1051.293 4.2792 4.0892 3.9892 4.3192 4.4192 4.6792 5.1792 5.8592 7.0092 7.8092
1070.583 8.3092 8.8492 8.9092 8.4492 8.2492 7.6392 6.9692 6.9692 6.3492 5.6192
1089.873 5.1892 4.6792 4.7992 5.3892 5.8392 5.8192 5.5692 5.6392 5.8792 5.9392
1109.163 6.2492 6.0592 5.7492 5.5892 5.6792 6.0092 5.8692 5.5392 5.1492 5.0192
1128.452 4.8592 4.8092 4.2492 3.6092 3.7192 3.6892 3.6092 3.7392 3.8592 3.6792
1147.742 3.6792 3.9292 4.1692 4.1792 3.9992 4.1692 4.6392 5.0092 5.6792 6.2492
1167.032 6.8692 8.1892 9.6192 11.8492 15.4892 20.6292 26.3092 30.4092 32.2192 32.7892
1186.322 31.8492 28.4392 23.6892 19.1792 15.8292 13.9192 12.5992 11.7992 11.4292 10.8092
1205.611 10.5892 10.6692 10.2492 10.4392 11.4092 12.8392 14.0892 15.2392 17.1092 19.2892
1224.901 22.0492 24.5092 26.9592 29.3692 31.4392 33.2192 34.8992 36.9792 39.4692 42.9092
1244.191 47.3392 53.4692 62.3592 74.5492 90.2592 108.619 127.719 144.939 156.809 161.269
1263.481 157.539 144.909 124.769 100.489 76.9292 58.1892 44.8792 35.6592 29.2192 24.7092
1282.771 21.5292 19.2792 17.8492 16.9992 16.3692 15.8492 15.6092 15.5392 15.4492 15.0592
1302.060 14.4592 13.8892 13.2592 12.4292 11.4992 10.6092 9.8792 9.3092 8.8392 8.5092
1321.350 8.3392 8.3192 8.4592 8.7192 9.0992 9.6492 10.3392 11.2192 12.3092 13.6292
1340.640 15.1892 16.9592 19.0992 21.8392 25.4492 29.9892 35.5392 41.7992 47.5892 51.7592
1359.930 53.7192 53.3992 50.5492 45.3892 38.8792 32.3692 26.9192 22.7992 19.9292 18.0492
1379.219 16.7792 15.8792 15.2792 14.8692 14.5892 14.3592 14.1292 14.1392 14.4492 15.0892
1398.509 16.0992 17.3992 18.8792 20.5192 22.0992 23.3092 24.0492 24.2392 23.7292 22.6092
1417.799 21.0992 19.2792 17.5992 16.2492 15.2192 14.5792 14.1192 13.8192 13.6992 13.5892
1437.089 13.5592 13.6492 13.7392 13.7392 13.8292 13.9392 14.0392 14.2092 14.2792 14.2892
1456.378 14.2592 14.1892 14.0492 13.9392 13.7792 13.4792 13.0092 12.3892 11.6292 10.7392
1475.668 9.8892 9.0592 8.1692 7.4092 6.8492 6.3092 5.8692 5.5392 5.2492 5.0392
1494.958 4.8792 4.6592 4.5492 4.5692 4.5492 4.4992 4.3992 4.3792 4.3592 4.2792
1514.248 4.2892 4.1492 4.1092 4.1492 4.1292 4.2792 4.3592 4.4092 4.4592 4.4392
1533.538 4.4692 4.5792 4.5192 4.4192 4.4992 4.6492 4.7992 4.9292 5.0892 5.3692
1552.827 5.7892 6.1992 6.6692 7.3692 8.2392 9.1292 9.9192 10.5692 11.0492 11.1992
1572.117 11.0292 10.6892 10.0992 9.4992 9.1792 9.1792 9.6792 10.6392 12.1492 14.3092
1591.407 17.0092 20.4492 24.7692 29.9892 35.6192 41.3192 46.4792 49.9592 51.3392 50.4092
1610.697 47.1392 41.9692 35.6892 29.0592 23.1292 18.5792 15.3292 13.0692 11.4292 10.2192
1629.986 9.3292 8.8492 8.4692 8.0892 7.9392 7.9192 7.9292 7.9392 8.0092 8.1892
1649.276 8.4592 8.6892 8.9292 9.3892 9.9392 10.4792 10.9992 11.4592 12.0792 12.7392
1668.566 13.3692 14.2392 15.4692 16.9892 19.1092 21.7792 25.1592 29.5892 35.5292 43.3692
1687.856 53.2692 66.0992 82.6792 102.889 125.709 147.389 162.469 169.789 169.129 160.529
1707.146 143.179 119.439 95.0392 74.5592 58.7092 46.6092 37.3192 30.3892 25.0892 21.0792
1726.435 18.1392 15.8492 14.0992 12.7692 11.6592 10.7592 10.0092 9.3492 8.8692 8.5092
1745.725 8.1892 7.8492 7.5692 7.2792 6.9292 6.5692 6.2092 5.7992 5.3192 4.8992
1765.015 4.4892 4.0592 3.6792 3.3592 3.0992 2.9392 2.7492 2.5392 2.4092 2.3292
1784.305 2.2292 2.1892 2.2492 2.3192 2.4392 2.5392 2.6092 2.6892 2.7692 2.8392
1803.594 2.7692 2.6792 2.5592 2.3892 2.2592 2.0492 1.8592 1.6892 1.6292 1.5392
1822.884 1.4392 1.4392 1.4492 1.4292 1.3792 1.3892 1.3792 1.2992 1.2892 1.2792
1842.174 1.2492 1.2292 1.2092 1.1892 1.2292 1.2192 1.1692 1.1492 1.1092 1.1292
1861.464 1.1692 1.1692 1.2492 1.3292 1.3092 1.3192 1.3692 1.3992 1.4692 1.5992
1880.754 1.7592 1.7992 1.8192 1.9392 2.0092 2.0892 2.2092 2.3292 2.4292 2.4092
1900.043 2.3892 2.4292 2.4392 2.4292 2.4292 2.4492 2.4792 2.4792 2.4892 2.5192
1919.333 2.5092 2.4492 2.4392 2.4792 2.4192 2.3392 2.2392 2.0792 2.0492 2.0892
1938.623 2.0592 1.9992 1.9192 1.8292 1.7492 1.6492 1.5492 1.4492 1.3292 1.2592
1957.913 1.2292 1.1692 1.0533 0.9829 0.9308 0.8581 0.8718 0.8783 0.8325 0.7939
1977.202 0.776 0.7599 0.7289 0.7293 0.7282 0.7698 0.7387 0.6759 0.7083 0.7415
1996.492 0.7665 0.832 0.8527 0.8111 0.7972 0.8057 0.7887 0.8194 0.8259 0.8178
2015.782 0.9354 1.0288 1.0444 0.9875 1.0023 1.0094 0.9808 0.9814 1.0068 1.0489
2035.072 1.0163 0.9508 0.9042 0.8902 0.8997 0.8139 0.7151 0.6609 0.6391 0.7085
2054.362 0.7229 0.649 0.6171 0.6632 0.63 0.5937 0.5797 0.583 0.629 0.6252
2073.651 0.6059 0.5634 0.5036 0.5082 0.5199 0.4644 0.493 0.5993 0.6248 0.6272
2092.941 0.6141 0.5795 0.5283 0.4607 0.4786 0.4603 0.4812 0.5109 0.5087 0.479
2112.231 0.4222 0.4503 0.4771 0.4376 0.4315 0.4735 0.4583 0.4594 0.4873 0.5171
2131.521 0.5138 0.4895 0.4676 0.5077 0.5762 0.5595 0.4902 0.5005 0.491 0.4385
2150.810 0.4987 0.5242 0.4864 0.4561 0.4783 0.5785 0.561 0.4532 0.4644 0.5152
2170.100 0.5343 0.5028 0.4858 0.4862 0.4694 0.5066 0.494 0.5067 0.5629 0.5875
2189.390 0.615 0.6095 0.5445 0.5506 0.5554 0.5128 0.5312 0.5604 0.5738 0.6002
2208.680 0.6353 0.6221 0.6088 0.585 0.5275 0.5167 0.5319 0.5005 0.5283 0.4896
2227.970 0.3991 0.4468 0.4927 0.4617 0.4768 0.4915 0.4651 0.4924 0.5147 0.5473
2247.259 0.5402 0.4768 0.4809 0.5 0.4566 0.4261 0.4503 0.4573 0.4611 0.4662
2266.549 0.5084 0.5688 0.5992 0.5988 0.5393 0.5738 0.6291 0.6251 0.6901 0.7186
2285.839 0.7438 0.776 0.8041 0.8183 0.7836 0.7927 0.912 1.0239 0.9692 0.9385
2305.129 0.9881 1.0266 1.0579 1.0009 0.9236 0.9747 1.0577 0.9843 0.8677 0.8539
2324.418 0.7894 0.6908 0.6569 0.6377 0.6755 0.6685 0.6349 0.6435 0.6364 0.6212
2343.708 0.6099 0.5853 0.6249 0.6116 0.5483 0.5293 0.5424 0.6018 0.6277 0.6271
2362.998 0.5974 0.6495 0.6714 0.6109 0.685 0.7612 0.7116 0.7303 0.7958 0.8272
2382.288 0.8059 0.6931 0.658 0.6921 0.6698 0.6316 0.5746 0.5735 0.6346 0.6076
2401.578 0.558 0.5957 0.628 0.6431 0.6276 0.6062 0.6663 0.6847 0.6407 0.6684
2420.867 0.7187 0.7203 0.6703 0.6321 0.6555 0.6861 0.7117 0.7321 0.6309 0.5363
2440.157 0.6105 0.6905 0.6165 0.5635 0.5569 0.5211 0.5288 0.531 0.5056 0.4791
2459.447 0.5449 0.5747 0.4717 0.4026 0.4172 0.4604 0.5037 0.5082 0.5239 0.5307
2478.737 0.5589 0.5437 0.5746 0.6374 0.6358 0.6382 0.6423 0.7281 0.6914 0.6713
2498.026 0.79 0.7959 0.7748 0.8094 0.857 0.9034 0.9691 1.0254 1.0225 1.0191
2517.316 1.1192 1.1992 1.2192 1.1692 1.1192 1.1392 1.0159 0.9665 0.9726 0.932
2536.606 0.9643 0.9123 0.9033 0.9331 0.8747 0.8501 0.8498 0.822 0.8088 0.8217
2555.896 0.8785 0.9083 0.941 1.0549 1.0751 1.074 1.0992 1.1492 1.1292 1.0892
2575.186 1.1292 1.1292 1.1692 1.1392 1.1692 1.2492 1.1992 1.1492 1.1692 1.2292
2594.475 1.1992 1.1192 1.1492 1.1292 1.0264 0.9643 0.9977 1.0741 1.0451 1.0336
2613.765 1.0892 1.1292 1.1092 1.0892 1.0992 1.0992 1.0992 1.1292 1.1392 1.1192
2633.055 1.1592 1.1792 1.2392 1.2692 1.1792 1.1592 1.1992 1.2292 1.2492 1.3092
2652.345 1.3392 1.3892 1.4292 1.3892 1.3692 1.2792 1.2092 1.2692 1.3192 1.2792
2671.634 1.2492 1.2592 1.2692 1.2692 1.1792 1.1092 1.2092 1.2792 1.1992 1.1892
2690.924 1.2192 1.1792 1.1792 1.1792 1.1692 1.1692 1.1492 1.0892 1.0506 1.0395
2710.214 0.9851 0.9856 1.0505 1.043 1.0424 1.0412 1.0714 1.1292 1.1692 1.2992
2729.504 1.3192 1.3092 1.3292 1.4092 1.4592 1.4292 1.5092 1.6492 1.6392 1.5892
2748.794 1.6192 1.6392 1.6592 1.6492 1.6692 1.6692 1.6192 1.6692 1.7992 1.8892
2768.083 1.9192 1.9592 1.9992 2.0192 2.0692 2.2292 2.3192 2.3092 2.2992 2.3392
2787.373 2.5492 2.5892 2.4792 2.5292 2.5992 2.8192 3.0892 3.0492 2.9792 3.0392
2806.663 3.1492 3.3692 3.5292 3.5992 3.7592 4.0892 4.2392 4.2692 4.5592 4.8092
2825.953 4.9992 5.3292 5.5692 5.8792 6.3492 6.9092 7.4092 7.9592 8.8492 9.7392
2845.242 10.6892 11.8492 13.1592 14.7492 16.6392 18.7692 21.1092 23.6992 26.4092 28.9692
2864.532 31.2992 33.4792 35.0192 35.9592 36.4792 36.5492 36.3592 36.1292 35.6892 35.1392
2883.822 34.4992 33.4292 32.1692 30.7792 29.2192 27.7292 26.5292 25.9392 25.7892 26.0092
2903.112 26.7592 27.9092 29.2692 31.0192 33.3992 36.0292 39.1292 42.7092 46.4092 50.5792
2922.401 55.3192 60.3992 65.7592 71.2792 76.6292 81.6092 85.8892 89.0592 90.7492 90.7992
2941.691 89.1592 85.9592 81.7192 76.8492 71.7092 67.1192 63.5792 61.3292 60.8192 61.7292
2960.981 63.6092 66.2292 69.0992 71.7192 72.7392 71.1592 67.3892 62.0092 55.4392 47.9792
2980.271 40.7792 34.7792 30.1092 26.6492 23.8992 21.6892 20.0992 18.9492 18.1192 17.5692
2999.561 17.1792 17.1792 17.3392 17.4692 17.9292 18.3492 18.5492 18.7092 18.7692 18.5892
3018.850 18.3992 18.2892 18.4392 19.0392 20.0192 21.1992 22.2092 22.8092 22.7292 22.0592
3038.140 20.8892 19.3992 17.9192 16.6392 15.5192 14.6092 13.8592 13.3292 12.9992 12.5092
3057.430 11.8792 11.5192 11.3892 11.2592 11.2392 11.3692 11.3592 11.2192 11.2492 11.2592
3076.720 11.2892 11.5292 11.7892 11.9692 12.1092 11.9192 11.5992 11.3192 10.7692 10.0592
3096.009 9.3192 8.4892 7.6192 6.8192 6.3092 5.9392 5.4992 5.1092 4.8892 4.7992
3115.299 4.5892 4.3792 4.1392 3.8492 3.6892 3.5992 3.3792 3.1492 2.8892 2.6692
3134.589 2.4092 2.1092 2.0492 2.0792 2.0992 2.0592 1.9792 1.8892 1.7392 1.7292
3153.879 1.6392 1.4792 1.4192 1.3292 1.3992 1.4692 1.3592 1.2292 1.2192 1.2992
3173.169 1.2792 1.1592 1.1392 1.1792 1.1492 1.0513 1.0057 1.0042 1.0591 1.1092
3192.458 1.0106 0.9923 1.0074 0.8546 0.913 1.1292 1.0316 0.8875 0.9794 0.928
3211.748 0.7062 0.8695 1.0572 0.8396 0.6901 0.6274 0.6682 0.6783 0.5501 0.624
3231.038 0.6541 0.5498 0.4584 0.3821 0.3956 0.4093 0.4226 0.3436 0.3622 0.4738
3250.328 0.5162 0.6313 0.4449 0.3401 0.4319 0.4138 0.5051 0.4903 0.348 0.3064
3269.617 0.3708 0.4505 0.4766 0.4348 0.3263 0.2186 0.2439 0.355 0.3327 0.3829
3288.907 0.4309 0.3357 0.4667 0.511 0.3715 0.3394 0.3271 0.3547 0.4028 0.3897
3308.197 0.4438 0.5666 0.5752 0.5497 0.5495 0.5314 0.6346 0.5434 0.3559 0.3869
3327.487 0.4952 0.5463 0.4323 0.4089 0.4938 0.4287 0.4167 0.626 0.6136 0.5492
3346.777 0.5687 0.5533 0.7714 0.8288 0.5846 0.5839 0.7992 0.8398 0.916 1.1092
3366.066 1.1492 1.2292 1.5092 1.8692 2.1292 2.4392 2.5792 2.6392 2.9192 3.1092
3385.356 3.1092 3.0392 2.9792 2.8192 2.6292 2.3792 2.0692 1.8892 1.7192 1.4392
3404.646 1.1992 1.1092 0.9145 0.7272 0.7064 0.7624 0.6954 0.4312 0.3661 0.4039
3423.936 0.4871 0.5613 0.5015 0.3962 0.3728 0.408 0.3347 0.4103 0.3444 0.3736
3443.225 0.387 0.2789 0.5718 0.5293 0.329 0.3236 0.3041 0.2562 0.2799 0.3605
3462.515 0.2239 0.3535 0.4724 0.3291 0.4151 0.5515 0.4933 0.4109 0.3641 0.4457
3481.805 0.3845 0.1924 0.12463 0.1959 0.349 0.3834 0.4828 0.3092 0.15651 0.2428
3501.095 0.15462 0.13237 0.09495 0.0534 0.2086 0.2901 0.4331 0.4569 0.3584 0.3113
3520.385 0.2019 0.2148 0.3465 0.2943 0.2246 0.302 0.3061 0.3306 0.3184 0.2339
3539.674 0.1917 0.203 0.2396 0.15597 0.13072 0.14588 0 0.17289 0.3936 0.2842
3558.964 0.3088 0.505 0.3929 0.2519 0.3358 0.2473 0.14466 0.1933 0.2917 0.2546
3578.254 0.2022 0.16758 0.2051 0.3713 0.329 0.2886 0.3221 0.1914 0.15191 0.3326
3597.544 0.2926 0.266 0.4329 0.2553 0.2466 0.4624 0.4069 0.2703 0.2287 0.2729
3616.833 0.2446 0.2052 0.2365 0.296 0.3288 0.2523 0.2859 0.3184 0.3403 0.3556
3636.123 0.2719 0.1933 0.1905 0.3565 0.3718 0.2451 0.3599 0.5333 0.5087 0.4996
3655.413 0.5693 0.5357 0.443 0.3741 0.3607 0.4083 0.5561 0.7551 0.7468 0.5331
3674.703 0.3459 0.4997 0.6157 0.3969 0.4473 0.4478 0.2373 0.2407 0.3335 0.43
3693.993 0.4596 0.4671 0.468 0.5379 0.5086 0.4231 0.4619 0.393 0.2883 0.391
3713.282 0.4806 0.4651 0.5078 0.4406 0.4129 0.4817 0.6111 0.6186 0.5628 0.5539
3732.572 0.4866 0.5148 0.542 0.43 0.3738 0.3516 0.1931 0.11325 0.2984 0.3618
3751.862 0.1055 0.14627 0.3175 0.2763 0.3353 0.3787 0.3247 0.4708 0.4503 0.2996
3771.152 0.3392 0.4457 0.3271 0.17018 0.3185 0.2968 0.3063 0.3008 0.2894 0.3048
3790.441 0.2309 0.232 0.231 0.205 0.0800318 0.07246 0.3014 0.4145 0.3474 0.2282
3809.731 0.09825 0.308 0.4717 0.3702 0.3037 0.2454 0.11686 0.10653 0.3293 0.3587
3829.021 0.2825 0.3828 0.4543 0.4587 0.38 0.3093 0.4023 0.4907 0.2902 0.1953
3848.311 0.2536 0.15521 0.1827 0.3263 0.2961 0.4776 0.6352 0.4419 0.3834 0.2757
3867.601 0.2674 0.4233 0.4165 0.4836 0.6014 0.5867 0.5257 0.488 0.3874 0.3476
3886.890 0.4344 0.3481 0.2689 0.2837 0.2687 0.3726 0.3603 0.3683 0.375 0.3305
3906.180 0.4167 0.4449 0.3971 0.3146 0.2478 0.2842 0.3577 0.3299 0.42 0.6071
3925.470 0.5239 0.4105 0.4668 0.417 0.5037 0.5629 0.4845 0.4128 0.3942 0.6028
3944.760 0.6122 0.4237 0.5156 0.7625 0.6002 0.3615 0.4522 0.5993 0.6312 0.6561
3964.049 0.61 0.5548 0.6437 0.6268 0.5546 0.5444 0.5752 0.5413 0.4454 0.4076
3983.339 0.4458 0.4419 0.634 0.7465 0.6997 0.541 0.4199 0.6379 0.6838 0.6126
##END=
