##TITLE=2-Fluorodiphenylmethane
##JCAMP-DX=4.24
##DATA TYPE=INFRARED SPECTRUM
##ORIGIN=EPA-IR VAPOR PHASE LIBRARY
##OWNER=SRD/NIST
Collection (C) 2018 copyright by the U.S. Secretary of Commerce
on behalf of the United States of America. All rights reserved.
##CAS REGISTRY NO=3794-15-8
##MOLFORM=C 13 H 11 F
##$NIST SOURCE=MSDC-IR
##STATE=gas
##XUNITS=1/CM
##YUNITS=ABSORBANCE
##XFACTOR=1.
##YFACTOR=0.001
##DELTAX=1.92898
##FIRSTX=549.8
##LASTX=4000.7
##FIRSTY=2.095
##MAXX=4000.7
##MINX=549.759
##MAXY=0.072185
##MINY=0
##NPOINTS=1790
##XYDATA=(X++(Y..Y))
549.759 2.095 1.805 1.495 1.2978 1.365 1.785 2.145 2.175 2.535 3.035
569.049 3.195 3.365 3.675 4.065 3.785 3.585 3.495 3.205 3.005 2.695
588.339 2.415 2.285 2.295 2.695 3.155 3.475 4.005 4.415 5.025 5.535
607.628 5.835 6.355 6.385 6.205 6.145 5.565 4.705 4.155 3.665 2.905
626.918 2.415 2.225 2.125 2.025 1.795 1.795 1.755 1.825 1.785 1.565
646.208 1.455 1.595 1.805 2.005 2.225 2.475 2.935 3.135 3.485 4.125
665.498 4.485 4.965 5.605 6.415 7.125 8.025 9.425 10.725 12.275 14.155
684.787 16.225 18.665 21.475 24.345 26.815 28.655 29.585 29.625 29.365 28.925
704.077 28.005 26.755 26.035 25.805 25.755 26.075 26.855 27.895 28.905 30.185
723.367 31.655 32.675 33.215 33.205 33.005 33.325 34.015 35.405 38.005 41.845
742.657 46.855 52.875 59.275 65.375 70.495 72.185 67.885 60.585 53.335 45.475
761.947 37.715 31.005 25.555 21.175 18.325 16.995 16.075 15.585 15.175 14.955
781.236 14.725 14.015 13.255 12.145 10.935 9.715 8.365 7.295 6.455 5.875
800.526 5.565 4.935 4.415 4.115 3.955 3.905 3.625 3.355 3.225 3.305
819.816 3.155 2.825 2.665 2.695 2.905 3.195 3.425 3.885 4.495 4.985
839.106 5.575 6.305 6.975 7.435 7.745 7.955 7.875 7.695 7.355 6.775
858.395 6.275 5.765 5.195 4.785 4.355 4.065 3.655 3.145 2.905 2.975
877.685 2.925 2.825 2.685 2.505 2.375 2.445 2.695 2.745 2.815 2.835
896.975 2.705 2.665 2.735 2.765 2.835 2.995 3.095 2.965 3.005 3.135
916.265 3.355 3.525 3.505 3.535 3.755 4.065 4.355 4.565 4.485 4.425
935.555 4.555 4.455 4.085 3.685 3.345 2.935 2.475 2.175 1.955 1.705
954.844 1.775 1.975 1.815 1.485 1.325 1.485 1.445 1.355 1.365 1.445
974.134 1.425 1.1439 1.1252 1.2866 1.2757 1.0545 1.0399 1.034 1.0179 1.1446
993.424 1.0998 1.1244 1.385 1.395 1.655 1.885 1.795 1.805 1.885 2.215
1012.714 2.435 2.885 3.575 4.225 5.285 7.125 9.255 10.795 11.895 12.685
1032.003 12.715 11.885 10.305 8.375 6.535 5.255 4.265 3.395 2.865 2.625
1051.293 2.315 2.505 2.845 2.515 2.525 2.915 3.345 3.685 3.865 4.245
1070.583 4.475 4.655 4.845 5.025 5.255 5.775 6.895 8.375 9.715 10.815
1089.873 12.085 13.655 14.875 15.335 15.725 15.365 14.375 13.195 11.735 10.005
1109.163 8.115 6.835 5.875 4.895 3.705 2.795 2.775 2.655 2.085 1.805
1128.452 1.805 1.945 1.715 1.2564 1.505 1.665 1.655 1.895 1.985 2.025
1147.742 2.275 2.475 2.475 2.445 2.515 2.765 2.865 3.055 3.635 4.055
1167.032 4.525 5.195 5.935 6.485 7.065 7.655 8.055 8.545 8.985 9.485
1186.322 9.565 9.545 9.465 9.235 9.475 9.495 9.465 9.495 9.235 9.215
1205.611 9.415 9.855 10.425 11.275 12.845 14.825 17.775 21.925 26.445 31.865
1224.901 38.395 44.965 50.945 55.835 59.045 60.075 59.135 56.405 51.645 45.065
1244.191 37.675 30.285 23.765 18.855 15.315 12.715 10.715 9.495 8.725 7.965
1263.481 7.435 7.025 6.935 6.765 6.685 6.605 6.185 6.105 6.035 5.805
1282.771 5.555 5.245 4.875 4.555 4.285 3.935 3.585 3.465 3.425 3.325
1302.060 3.285 3.205 3.175 3.245 3.255 3.285 3.365 3.405 3.445 3.525
1321.350 3.555 3.545 3.585 3.615 3.505 3.405 3.325 3.205 3.145 2.965
1340.640 2.775 2.605 2.435 2.305 2.215 2.115 2.055 2.075 2.025 2.015
1359.930 2.055 2.045 2.085 2.165 2.245 2.325 2.435 2.545 2.535 2.565
1379.219 2.605 2.595 2.575 2.505 2.425 2.345 2.275 2.215 2.145 2.195
1398.509 2.225 2.215 2.295 2.395 2.505 2.645 2.825 2.985 3.175 3.455
1417.799 3.765 4.135 4.525 4.975 5.595 6.355 7.175 8.195 9.475 10.895
1437.089 12.595 14.475 16.515 18.775 21.115 23.415 25.535 27.175 28.185 28.615
1456.378 28.515 27.855 26.645 24.985 23.135 21.485 20.355 19.895 20.235 21.535
1475.668 23.845 27.085 31.155 35.905 40.925 45.955 51.085 56.275 60.875 63.675
1494.958 64.035 62.185 58.565 53.565 47.215 39.755 32.105 25.325 19.785 15.245
1514.248 11.745 9.225 7.305 5.905 5.045 4.445 4.025 3.755 3.545 3.385
1533.538 3.315 3.245 3.115 3.155 3.275 3.305 3.375 3.475 3.635 3.795
1552.827 4.005 4.305 4.655 5.035 5.505 5.995 6.515 7.225 8.125 9.135
1572.117 10.235 11.415 12.675 14.035 15.315 16.485 17.415 17.985 18.275 18.385
1591.407 18.395 18.145 17.685 17.205 16.795 16.265 15.525 14.645 13.525 12.325
1610.697 11.065 9.645 8.285 7.065 6.055 5.285 4.465 3.715 3.205 2.835
1629.986 2.565 2.365 2.175 2.005 1.975 1.955 1.865 1.855 1.805 1.705
1649.276 1.645 1.605 1.615 1.645 1.555 1.465 1.505 1.575 1.585 1.585
1668.566 1.585 1.615 1.725 1.795 1.945 2.165 2.255 2.315 2.405 2.445
1687.856 2.365 2.295 2.245 2.035 1.895 1.815 1.695 1.605 1.495 1.495
1707.146 1.495 1.435 1.415 1.355 1.335 1.365 1.445 1.505 1.465 1.445
1726.435 1.505 1.525 1.515 1.485 1.375 1.405 1.565 1.635 1.655 1.695
1745.725 1.725 1.785 1.825 1.815 1.825 1.815 1.875 1.965 1.975 2.015
1765.015 2.065 2.115 2.215 2.315 2.445 2.615 2.825 3.055 3.315 3.515
1784.305 3.705 4.015 4.245 4.335 4.325 4.225 4.065 3.805 3.515 3.205
1803.594 2.915 2.635 2.415 2.355 2.335 2.235 2.185 2.175 2.115 2.065
1822.884 1.945 1.845 1.735 1.535 1.455 1.395 1.315 1.305 1.325 1.345
1842.174 1.425 1.465 1.485 1.495 1.535 1.535 1.565 1.675 1.735 1.835
1861.464 1.975 2.055 2.145 2.255 2.295 2.275 2.265 2.265 2.215 2.185
1880.754 2.185 2.185 2.225 2.305 2.395 2.565 2.725 2.845 2.975 3.125
1900.043 3.185 3.165 3.125 3.025 2.875 2.695 2.505 2.445 2.395 2.315
1919.333 2.335 2.405 2.535 2.735 2.935 3.165 3.435 3.615 3.695 3.655
1938.623 3.595 3.485 3.385 3.305 3.185 3.045 2.895 2.705 2.515 2.275
1957.913 1.985 1.785 1.575 1.2929 1.1367 1.0006 0.872 0.8399 0.8108 0.7532
1977.202 0.7658 0.8125 0.7461 0.6961 0.6915 0.7183 0.758 0.713 0.694 0.7599
1996.492 0.7492 0.7426 0.8173 0.8514 0.8624 0.8945 0.9273 0.8894 0.8712 0.9116
2015.782 0.928 0.872 0.8053 0.7874 0.7738 0.7431 0.6728 0.7054 0.7819 0.7411
2035.072 0.7251 0.7202 0.6544 0.6166 0.6303 0.5981 0.4684 0.4459 0.5304 0.5365
2054.362 0.5263 0.549 0.5628 0.6096 0.6912 0.7251 0.7187 0.6895 0.7129 0.7139
2073.651 0.6925 0.7717 0.7638 0.714 0.7417 0.7172 0.6947 0.6908 0.6848 0.6706
2092.941 0.6001 0.5785 0.5723 0.5623 0.5092 0.4439 0.5028 0.5672 0.5399 0.4888
2112.231 0.4615 0.438 0.4633 0.4751 0.507 0.5177 0.4648 0.4487 0.4088 0.4386
2131.521 0.5149 0.4945 0.38034 0.39649 0.4146 0.39417 0.35992 0.314653 0.35776 0.34073
2150.810 0.38025 0.4286 0.4075 0.4346 0.4104 0.3286 0.33675 0.36125 0.35075 0.4287
2170.100 0.5303 0.5452 0.4671 0.429 0.4936 0.5423 0.5753 0.5718 0.5276 0.5388
2189.390 0.5681 0.4911 0.4779 0.5266 0.5015 0.463 0.4632 0.4641 0.4738 0.4737
2208.680 0.4569 0.4921 0.5276 0.6092 0.6732 0.5912 0.499 0.5345 0.6091 0.5703
2227.970 0.5156 0.5188 0.5031 0.4885 0.5118 0.5452 0.5202 0.4963 0.5216 0.5336
2247.259 0.5339 0.5204 0.5284 0.5925 0.5919 0.4845 0.4965 0.5722 0.5455 0.5103
2266.549 0.5679 0.6559 0.5958 0.5339 0.5808 0.5514 0.52 0.591 0.6137 0.5814
2285.839 0.631 0.6703 0.6521 0.6555 0.7249 0.7242 0.7446 0.8657 0.8893 0.9054
2305.129 0.9158 0.9966 1.0884 1.0534 0.9961 0.9431 0.9222 0.9115 0.9255 0.935
2324.418 0.837 0.797 0.8134 0.8695 0.9106 0.8911 0.9122 0.8377 0.8064 0.844
2343.708 0.8998 0.9089 0.8059 0.7302 0.7453 0.7289 0.6453 0.6965 0.7103 0.641
2362.998 0.7497 0.8041 0.6546 0.5905 0.5958 0.6144 0.6556 0.6842 0.7186 0.7078
2382.288 0.6136 0.5413 0.5482 0.5578 0.5196 0.445 0.5064 0.6375 0.6 0.5894
2401.578 0.6124 0.5568 0.5874 0.6583 0.6364 0.6451 0.7044 0.7296 0.7204 0.7536
2420.867 0.7487 0.7275 0.7816 0.7479 0.7494 0.7974 0.7643 0.6838 0.6162 0.6457
2440.157 0.6811 0.7028 0.7861 0.7868 0.799 0.8364 0.8665 0.9157 0.9671 1.0479
2459.447 1.0739 1.0079 0.9877 1.0325 0.9941 0.991 0.9891 0.9392 0.9044 0.8302
2478.737 0.69 0.6325 0.6517 0.6127 0.5935 0.5843 0.5387 0.5229 0.5709 0.586
2498.026 0.5962 0.5149 0.4669 0.4548 0.423 0.4609 0.4942 0.453 0.4689 0.4981
2517.316 0.4519 0.5517 0.6067 0.6183 0.6167 0.5703 0.5596 0.4726 0.4655 0.5338
2536.606 0.4998 0.5162 0.5372 0.6018 0.685 0.6 0.5029 0.6163 0.6937 0.7169
2555.896 0.6967 0.5724 0.588 0.6688 0.6187 0.5862 0.5226 0.5026 0.5965 0.5705
2575.186 0.5611 0.5989 0.6428 0.656 0.636 0.64 0.6732 0.7865 0.7934 0.7601
2594.475 0.7708 0.6861 0.6946 0.7683 0.7854 0.8101 0.7928 0.6908 0.6296 0.6983
2613.765 0.7463 0.7062 0.6954 0.6282 0.6344 0.5781 0.5097 0.5887 0.5566 0.4539
2633.055 0.5386 0.6291 0.544 0.5174 0.5255 0.5137 0.4864 0.4396 0.4661 0.4759
2652.345 0.37055 0.2739 0.32104 0.4162 0.4388 0.444 0.36537 0.34326 0.37983 0.33848
2671.634 0.30593 0.3324 0.31757 0.34847 0.39255 0.30094 0.39468 0.4785 0.35748 0.311579
2690.924 0.37428 0.35976 0.311531 0.33116 0.4255 0.4471 0.31684 0.34387 0.4277 0.4244
2710.214 0.4516 0.4316 0.307131 0.32253 0.38841 0.37491 0.34375 0.36771 0.39638 0.4188
2729.504 0.4738 0.5099 0.4826 0.4731 0.5108 0.5514 0.5085 0.4445 0.5239 0.5075
2748.794 0.5507 0.6439 0.6654 0.5985 0.5035 0.5921 0.6799 0.7388 0.7366 0.7166
2768.083 0.7524 0.758 0.7718 0.7944 0.8387 0.8563 0.7856 0.7757 0.8069 0.7794
2787.373 0.7022 0.6211 0.5773 0.5363 0.497 0.5609 0.5025 0.4246 0.5312 0.5451
2806.663 0.5735 0.6162 0.6152 0.7091 0.7064 0.5872 0.6474 0.8192 0.8809 0.8453
2825.953 0.9929 1.1059 1.0759 1.0855 1.1775 1.2273 1.325 1.605 1.915 2.095
2845.242 2.305 2.585 2.815 3.025 3.135 3.325 3.545 3.675 3.805 3.875
2864.532 3.835 3.735 3.585 3.325 3.015 2.895 2.865 2.755 2.675 2.685
2883.822 2.705 2.765 2.825 2.825 2.955 3.065 3.155 3.385 3.605 3.965
2903.112 4.275 4.615 5.075 5.425 5.875 6.505 7.205 7.905 8.485 9.045
2922.401 9.615 10.155 10.505 10.565 10.745 10.705 10.445 10.145 9.655 9.185
2941.691 8.695 8.195 7.715 7.255 6.755 6.325 5.975 5.575 5.155 4.775
2960.981 4.395 4.005 3.675 3.355 3.155 2.965 2.805 2.805 2.675 2.485
2980.271 2.345 2.255 2.235 2.295 2.355 2.235 2.295 2.595 2.795 2.995
2999.561 3.315 3.675 4.105 4.765 5.505 6.145 7.095 8.335 9.425 10.745
3018.850 12.625 14.715 16.905 19.545 22.365 25.085 27.565 29.515 30.865 31.255
3038.140 30.895 30.005 28.465 26.625 24.785 23.225 22.155 21.575 21.555 22.065
3057.430 22.795 24.115 26.205 28.835 31.835 34.645 36.845 38.225 38.725 38.285
3076.720 37.045 34.845 31.925 29.245 27.035 25.005 23.205 21.395 19.795 18.375
3096.009 16.675 14.995 13.405 11.905 10.565 9.505 8.535 7.645 6.825 5.975
3115.299 5.255 4.605 4.015 3.395 2.885 2.455 2.015 1.855 1.605 1.355
3134.589 1.335 1.083 0.888 0.8847 0.8378 0.8652 0.9496 1.0231 0.8878 0.8742
3153.879 0.9598 0.9619 0.9024 0.9152 0.9985 0.9302 0.9737 1.0199 0.9591 1.0098
3173.169 0.8819 0.6673 0.7859 0.6877 0.4465 0.4803 0.5835 0.619 0.5582 0.4529
3192.458 0.35738 0.4417 0.4789 0.4155 0.4982 0.5198 0.4981 0.5015 0.5215 0.5305
3211.748 0.31693 0.2291 0.4901 0.4854 0.2475 0.16 0.2165 0.2342 0.186 0.2433
3231.038 0.263 0.29942 0.32351 0.2707 0.34285 0.4307 0.36752 0.35222 0.4649 0.4859
3250.328 0.45 0.4549 0.32658 0.205 0.2383 0.309638 0.33818 0.3679 0.32774 0.2787
3269.617 0.266 0.2319 0.2598 0.4196 0.4958 0.33143 0.31241 0.2943 0.31886 0.2705
3288.907 0.189 0.32413 0.2804 0.2886 0.40166 0.36048 0.2647 0.2694 0.31967 0.29601
3308.197 0.34159 0.37425 0.4003 0.4351 0.552 0.4857 0.3155 0.314429 0.31999 0.32573
3327.487 0.36518 0.4548 0.34221 0.2681 0.4347 0.4144 0.32965 0.309213 0.229 0.122
3346.777 0.143 0.2185 0.194 0.2436 0.33566 0.32084 0.34542 0.31682 0.312329 0.4158
3366.066 0.32952 0.2121 0.32132 0.29773 0.2 0.37628 0.4142 0.29671 0.2878 0.2595
3385.356 0.29639 0.33065 0.40479 0.4048 0.2211 0.311296 0.37963 0.277 0.32114 0.30336
3404.646 0.34486 0.29808 0.117 0.2941 0.2915 0.188 0.2099 0.04 0.048 0.078
3423.936 0 0.194 0.2306 0.2061 0.283 0.188 0.175 0.2153 0.156 0.153
3443.225 0.165 0.32139 0.4216 0.3516 0.36355 0.307403 0.2276 0.2396 0.32637 0.38408
3462.515 0.241 0.143 0.151 0.2592 0.32859 0.153 0.2124 0.2188 0.2511 0.38869
3481.805 0.36843 0.39421 0.35372 0.2072 0.2428 0.30746 0.30323 0.2728 0.221 0.37822
3501.095 0.4652 0.3667 0.264 0.2594 0.2441 0.2096 0.2536 0.30126 0.371 0.39828
3520.385 0.187 0.29792 0.34703 0.178 0.2094 0.2508 0.36043 0.40285 0.4049 0.344
3539.674 0.283 0.415 0.5122 0.4148 0.37676 0.259 0.2208 0.35491 0.4671 0.3966
3558.964 0.2119 0.123 0.135 0.2425 0.3938 0.4995 0.4299 0.4653 0.36144 0.127
3578.254 0.2216 0.33331 0.3671 0.37585 0.2855 0.2186 0.115 0.189 0.36954 0.37245
3597.544 0.2399 0.2466 0.38809 0.5384 0.6404 0.5866 0.7012 0.6377 0.4929 0.6858
3616.833 0.6551 0.4009 0.4121 0.4931 0.5092 0.5542 0.5923 0.5686 0.5362 0.5036
3636.123 0.6005 0.6294 0.4874 0.4723 0.606 0.763 0.6837 0.7397 0.7778 0.6642
3655.413 0.7098 0.7188 0.5716 0.5612 0.5952 0.5414 0.489 0.4391 0.4688 0.483
3674.703 0.5485 0.424 0.4239 0.5353 0.4134 0.35259 0.53 0.5672 0.5698 0.6389
3693.993 0.4568 0.40153 0.5301 0.5669 0.4355 0.2623 0.044 0.165 0.36517 0.268
3713.282 0.29849 0.40138 0.4799 0.4419 0.4255 0.443 0.39539 0.4196 0.35939 0.38398
3732.572 0.4915 0.4235 0.30312 0.13 0.216 0.4055 0.33249 0.2843 0.278 0.134
3751.862 0.089 0.2464 0.34223 0.310772 0.34354 0.32577 0.161 0.2073 0.437 0.5788
3771.152 0.5654 0.4396 0.35358 0.33457 0.2116 0.2365 0.35972 0.4305 0.39584 0.2444
3790.441 0.2476 0.38603 0.5462 0.6257 0.6262 0.5704 0.5151 0.4478 0.4578 0.36005
3809.731 0.35313 0.44 0.36596 0.40198 0.4831 0.4249 0.4337 0.4726 0.532 0.6309
3829.021 0.33782 0.306396 0.4951 0.38893 0.32246 0.33264 0.4325 0.5124 0.5721 0.5422
3848.311 0.5895 0.7179 0.6106 0.407 0.40489 0.5482 0.7227 0.737 0.6202 0.6692
3867.601 0.558 0.568 0.6598 0.5299 0.5034 0.4523 0.5179 0.5855 0.5016 0.5026
3886.890 0.6142 0.6127 0.4366 0.4125 0.5459 0.5794 0.5328 0.5929 0.6959 0.578
3906.180 0.514 0.5112 0.4684 0.6681 0.8047 0.647 0.4975 0.5159 0.33268 0.34213
3925.470 0.5792 0.5645 0.37384 0.4083 0.623 0.654 0.554 0.5436 0.4566 0.37825
3944.760 0.35368 0.30258 0.4281 0.4362 0.35903 0.2683 0.2892 0.32807 0.33675 0.5106
3964.049 0.5014 0.32536 0.095 0.2359 0.4347 0.34644 0.38176 0.35814 0.31724 0.40184
3983.339 0.4077 0.32653 0.5023 0.7226 0.593 0.4796 0.40221 0.31593 0.36541 0.32021
##END=
