##TITLE=3-(Bromomethyl)pentane
##JCAMP-DX=4.24
##DATA TYPE=INFRARED SPECTRUM
##ORIGIN=NIST Mass Spectrometry Data Center
##OWNER=NIST Standard Reference Data Program
Collection (C) 2018 copyright by the U.S. Secretary of Commerce
on behalf of the United States of America. All rights reserved.
##CAS REGISTRY NO=3814-34-4
##MOLFORM=C 6 H 13 Br
##$NIST SOURCE=MSDC-IR
##SPECTROMETER/DATA SYSTEM=HP-GC/MS/IRD
##STATE=gas
##XUNITS=1/CM
##YUNITS=ABSORBANCE
##XFACTOR=1.0
##YFACTOR=0.000002300
##DELTAX=4.0
##FIRSTX=550.0
##LASTX=3846.0
##FIRSTY=0.000370
##MAXX=3846
##MINX=550
##MAXY=0.023
##MINY=0
##NPOINTS=825
##XYDATA=(X++(Y..Y))
550.0 161 113 86 65 7 26 65 110 109 67
590.0 113 160 193 271 355 425 491 527 509 464
630.0 407 413 568 833 1121 1319 1420 1406 1200 916
670.0 673 482 342 254 205 164 137 97 78 80
710.0 83 88 86 93 124 152 194 259 314 357
750.0 405 452 474 509 573 632 626 587 531 447
790.0 359 261 223 225 178 134 140 117 102 85
830.0 73 102 103 94 93 95 79 61 83 112
870.0 91 58 52 63 70 72 67 78 102 129
910.0 147 161 198 247 282 312 330 317 300 276
950.0 246 217 195 196 217 208 180 167 143 105
990.0 85 95 108 106 121 141 155 177 197 193
1030.0 180 159 181 195 170 153 120 124 117 90
1070.0 100 116 129 129 105 101 95 67 58 68
1110.0 76 74 67 63 87 114 121 131 136 134
1150.0 139 148 163 195 222 246 276 287 292 310
1190.0 320 307 317 359 456 629 895 1216 1483 1602
1230.0 1578 1409 1149 943 867 856 898 1002 1160 1308
1270.0 1394 1398 1300 1118 890 689 570 516 487 459
1310.0 426 392 357 323 319 326 326 339 351 361
1350.0 373 376 372 382 400 472 595 721 827 894
1390.0 872 766 611 469 374 311 295 321 381 502
1430.0 671 869 1092 1249 1354 1486 1621 1716 1748 1694
1470.0 1547 1312 1055 812 613 461 347 272 228 203
1510.0 184 163 147 140 128 123 118 103 99 103
1550.0 99 91 88 99 88 64 68 74 76 88
1590.0 83 74 81 84 90 88 84 79 74 80
1630.0 83 76 64 56 56 65 64 61 65 60
1670.0 62 64 51 44 48 49 42 35 47 43
1710.0 33 39 42 39 35 34 38 38 32 35
1750.0 44 49 46 39 31 34 40 42 37 31
1790.0 27 27 25 28 30 24 27 29 23 22
1830.0 26 30 26 19 22 20 16 18 25 20
1870.0 17 27 27 24 19 9 4 13 17 19
1910.0 23 29 25 20 12 5 17 22 15 20
1950.0 25 23 18 15 9 2 4 3 8 15
1990.0 12 12 10 15 16 9 13 17 18 21
2030.0 17 17 17 18 27 29 26 28 26 26
2070.0 23 22 29 26 23 18 14 21 21 24
2110.0 26 24 26 11 3 11 16 9 10 16
2150.0 15 17 13 1 12 25 23 19 17 15
2190.0 13 16 18 11 8 17 21 18 16 5
2230.0 2 15 13 12 26 24 18 32 33 26
2270.0 20 17 19 18 26 31 33 40 36 32
2310.0 35 35 38 40 40 41 35 32 35 35
2350.0 42 41 39 41 47 53 49 49 46 48
2390.0 48 40 42 52 57 44 35 43 39 30
2430.0 37 39 32 30 27 27 25 20 16 21
2470.0 23 22 33 43 39 37 40 43 36 23
2510.0 16 17 23 36 33 24 35 26 20 19
2550.0 21 30 29 31 47 44 40 47 48 58
2590.0 62 51 42 59 84 83 72 73 72 63
2630.0 60 66 76 86 78 82 90 94 108 123
2670.0 115 93 95 94 97 104 109 128 145 137
2710.0 122 115 117 114 129 160 165 165 174 192
2750.0 206 196 191 193 185 188 197 203 217 218
2790.0 235 255 268 295 329 350 374 413 445 494
2830.0 574 699 859 1036 1245 1426 1573 1749 2001 2295
2870.0 2608 2959 3309 3587 3732 3741 3624 3435 3271 3225
2910.0 3330 3571 3923 4384 4912 5450 5946 6274 6360 6283
2950.0 6207 6319 6869 7953 9205 10000 9879 8841 7125 5208
2990.0 3654 2634 2037 1703 1536 1417 1284 1161 1033 868
3030.0 721 619 542 480 452 428 393 367 348 323
3070.0 299 290 296 296 276 270 253 241 242 228
3110.0 234 243 236 199 178 176 172 169 151 143
3150.0 143 142 133 127 118 103 99 93 87 85
3190.0 84 103 107 76 68 76 68 45 35 43
3230.0 47 37 47 57 56 50 37 35 32 31
3270.0 37 27 26 45 40 30 28 20 18 30
3310.0 30 26 22 5 6 18 15 17 11 5
3350.0 12 33 45 28 28 35 20 10 30 37
3390.0 19 17 22 19 20 24 29 50 67 44
3430.0 27 40 24 12 9 19 27 17 11 10
3470.0 8 9 11 15 21 4 8 16 19 31
3510.0 32 22 8 5 16 17 17 32 30 31
3550.0 14 3 30 40 35 19 15 25 19 17
3590.0 13 11 22 32 29 21 11 10 21 41
3630.0 46 43 42 38 35 20 16 12 2 23
3670.0 42 33 23 28 27 24 31 20 25 46
3710.0 40 40 55 52 53 37 33 51 40 30
3750.0 27 32 40 33 18 20 45 37 27 35
3790.0 23 18 15 24 27 38 49 27 9 17
3830.0 31 17 0 21 55
##END=
