##TITLE=(+)-N-Benzyl-.alpha.- phenethylamine
##JCAMP-DX=4.24
##DATA TYPE=INFRARED SPECTRUM
##ORIGIN=EPA-IR VAPOR PHASE LIBRARY
##OWNER=SRD/NIST
Collection (C) 2018 copyright by the U.S. Secretary of Commerce
on behalf of the United States of America. All rights reserved.
##CAS REGISTRY NO=38235-77-7
##MOLFORM=C 15 H 17 N
##$NIST SOURCE=MSDC-IR
##STATE=gas
##XUNITS=1/CM
##YUNITS=ABSORBANCE
##XFACTOR=1.
##YFACTOR=0.001
##DELTAX=1.92898
##FIRSTX=549.8
##LASTX=4000.7
##FIRSTY=8.117
##MAXX=4000.7
##MINX=549.759
##MAXY=0.065257
##MINY=0
##NPOINTS=1790
##XYDATA=(X++(Y..Y))
549.759 8.117 8.157 7.737 7.047 6.997 6.527 6.577 6.607 6.137 5.687
569.049 5.537 6.297 7.067 6.877 7.007 7.277 7.847 7.577 6.967 7.137
588.339 7.087 6.877 6.757 6.667 6.467 7.037 6.737 6.727 6.967 6.197
607.628 5.977 6.187 5.987 5.457 5.157 5.157 5.167 5.067 4.577 4.477
626.918 4.797 4.847 4.517 4.497 4.997 5.347 5.207 5.277 5.397 5.777
646.208 6.827 7.127 7.287 7.817 7.987 8.217 8.667 9.337 10.227 10.707
665.498 11.917 13.227 14.467 15.587 16.547 17.917 18.847 19.867 21.497 23.557
684.787 26.357 30.487 35.597 42.237 50.517 57.937 63.077 65.257 64.617 61.507
704.077 55.527 48.697 42.267 36.637 32.777 29.897 27.537 26.307 25.237 24.227
723.367 24.057 24.337 24.507 24.737 25.417 26.207 26.767 27.347 27.447 27.297
742.657 26.777 25.767 25.257 25.137 25.377 26.477 27.647 28.577 29.317 28.947
761.947 26.707 23.637 20.207 16.847 14.347 11.807 10.077 9.017 8.057 7.887
781.236 7.577 6.737 6.377 5.817 5.437 5.717 5.677 5.577 5.637 5.477
800.526 5.167 5.077 4.957 5.017 4.957 4.837 5.057 5.057 4.787 5.007
819.816 4.727 3.147 2.537 4.037 4.297 3.597 3.777 3.537 3.177 2.797
839.106 2.427 2.427 2.617 2.737 2.717 2.327 2.257 2.477 2.747 2.367
858.395 2.237 2.557 2.497 2.377 2.347 2.797 2.807 2.827 2.937 2.907
877.685 3.257 3.427 3.187 3.087 3.307 3.337 3.117 3.207 3.777 4.337
896.975 4.597 4.937 5.487 5.777 6.147 6.477 6.367 6.307 6.147 5.287
916.265 4.517 4.267 4.147 3.917 3.917 4.017 3.727 3.627 3.617 3.347
935.555 2.987 2.967 2.957 2.827 2.717 2.377 2.447 2.917 2.987 3.137
954.844 3.107 2.707 2.807 3.247 3.807 3.597 3.097 3.307 3.587 3.797
974.134 3.957 3.747 3.907 4.537 4.197 4.017 4.047 4.097 4.397 4.827
993.424 5.397 5.397 5.127 5.167 5.447 5.787 6.617 7.217 6.657 6.367
1012.714 6.847 7.457 8.487 9.307 10.847 12.747 13.677 14.237 13.987 13.387
1032.003 12.187 10.257 8.027 6.607 6.667 6.267 6.087 6.777 7.357 8.407
1051.293 8.737 8.537 8.337 8.177 8.097 8.007 8.597 9.467 9.437 8.407
1070.583 8.717 8.757 9.167 9.027 7.917 8.947 8.677 8.307 7.827 7.897
1089.873 9.257 8.677 8.907 10.027 11.177 11.827 12.547 14.587 16.147 18.157
1109.163 18.917 19.017 21.077 22.527 24.187 26.707 27.277 27.547 27.857 26.807
1128.452 26.007 24.067 21.887 19.747 17.247 15.697 13.987 12.507 10.477 8.377
1147.742 7.627 7.837 7.837 7.767 6.867 5.747 5.977 5.487 4.827 4.737
1167.032 5.127 5.807 6.087 6.407 7.367 8.097 7.787 6.807 6.657 7.787
1186.322 8.437 8.477 8.167 8.507 9.117 10.027 11.527 11.947 12.267 11.777
1205.611 10.717 10.277 9.527 8.257 6.507 6.087 6.827 7.367 6.507 6.197
1224.901 5.747 5.127 5.507 5.367 4.897 5.077 5.037 4.917 4.537 4.317
1244.191 5.307 4.787 4.307 5.247 5.807 5.837 5.257 4.727 4.977 5.137
1263.481 5.197 5.747 6.107 6.167 6.227 6.627 7.117 6.877 6.977 7.217
1282.771 7.457 7.617 7.777 8.237 8.537 9.017 9.717 10.367 10.667 10.477
1302.060 10.447 10.387 10.037 9.797 9.767 9.817 9.707 9.917 10.437 10.947
1321.350 11.097 10.847 10.617 10.257 9.867 9.227 8.737 8.697 8.657 8.897
1340.640 9.167 9.537 10.157 10.717 11.217 11.717 12.087 12.177 12.097 11.987
1359.930 12.017 12.167 12.327 12.637 13.087 13.707 14.247 14.337 13.967 13.247
1379.219 12.117 10.577 9.027 7.607 6.567 5.707 4.917 4.417 4.227 4.217
1398.509 4.067 3.857 3.907 3.997 4.057 4.257 4.417 4.437 4.597 4.887
1417.799 5.307 5.777 6.267 6.897 7.447 8.247 9.207 10.207 11.607 13.137
1437.089 14.897 16.937 19.077 21.197 23.077 24.747 26.397 27.717 28.277 27.967
1456.378 27.227 26.507 25.607 24.327 22.857 21.317 19.697 17.987 16.207 14.537
1475.668 13.137 12.037 11.637 11.867 12.577 13.637 15.107 16.767 18.257 18.667
1494.958 18.237 17.127 14.847 12.277 9.767 7.657 5.887 4.837 4.527 4.247
1514.248 3.787 3.377 3.227 3.117 3.037 2.927 2.967 3.037 2.977 3.037
1533.538 3.147 2.937 2.807 2.827 2.687 2.467 2.417 2.427 2.317 2.207
1552.827 2.307 2.357 2.137 2.237 2.367 2.157 2.317 2.507 2.527 2.607
1572.117 2.807 3.167 3.397 3.597 3.977 4.427 4.657 4.917 5.457 5.917
1591.407 6.557 7.347 7.857 8.467 8.707 8.647 8.457 8.117 7.677 6.557
1610.697 5.617 4.857 3.937 3.237 2.677 2.327 2.257 2.177 2.037 1.907
1629.986 1.937 1.887 1.667 1.677 1.747 1.767 1.837 1.907 1.747 1.777
1649.276 2.007 1.967 1.877 2.167 2.317 2.127 1.897 1.907 1.987 1.897
1668.566 1.887 1.887 1.977 2.017 1.977 1.927 1.817 1.707 1.517 1.407
1687.856 1.2615 1.287 1.447 1.497 1.517 1.507 1.477 1.567 1.487 1.437
1707.146 1.657 1.597 1.507 1.687 1.707 1.787 1.907 1.737 1.717 1.837
1726.435 1.807 1.837 2.037 2.067 2.017 2.117 2.137 2.267 2.287 2.007
1745.725 2.047 2.157 1.967 1.907 1.897 1.767 1.717 1.677 1.727 1.857
1765.015 1.797 1.807 1.847 1.867 2.037 2.127 2.207 2.347 2.337 2.317
1784.305 2.677 2.997 3.107 3.377 3.757 4.127 4.327 4.357 4.287 4.087
1803.594 3.787 3.427 3.197 2.967 2.747 2.697 2.617 2.417 2.317 2.157
1822.884 2.087 2.157 2.007 1.837 1.697 1.617 1.637 1.617 1.557 1.667
1842.174 1.697 1.707 1.897 2.027 2.077 2.167 2.237 2.337 2.567 2.687
1861.464 2.717 2.837 2.957 2.967 3.167 3.197 3.057 3.197 3.247 3.097
1880.754 2.977 2.937 2.847 2.677 2.557 2.437 2.307 2.067 1.857 1.817
1900.043 1.657 1.487 1.627 1.657 1.587 1.717 1.837 1.877 1.867 1.847
1919.333 1.947 2.147 2.327 2.527 2.597 2.667 2.907 3.137 3.337 3.597
1938.623 3.727 3.677 3.737 3.887 3.847 3.747 3.817 3.727 3.527 3.337
1957.913 3.067 2.777 2.497 2.177 1.957 1.727 1.487 1.337 1.2405 1.0985
1977.202 1.0176 1.0579 1.2137 1.2677 1.1983 1.1834 1.0596 0.9473 0.9376 0.9835
1996.492 1.0514 0.8765 0.7683 0.8538 0.9937 1.0395 0.8623 0.7461 0.8293 0.9617
2015.782 0.9363 0.9414 0.9413 0.9958 1.0735 1.004 0.9213 0.9438 0.9288 0.9243
2035.072 0.8458 0.8158 0.8014 0.7307 0.7386 0.7587 0.8196 0.871 0.8274 0.7873
2054.362 0.6292 0.5702 0.6526 0.7575 0.7598 0.7291 0.9085 1.0666 1.0917 1.0201
2073.651 0.7876 0.7018 0.9007 0.9101 0.8551 0.7033 0.7153 0.9522 0.8905 0.798
2092.941 0.897 0.9041 0.8677 0.8044 0.8551 0.9354 0.7881 0.845 0.9074 0.973
2112.231 1.0008 0.8903 0.891 0.8432 0.8992 1.0179 1.0542 0.9108 0.764 0.7147
2131.521 0.7348 0.811 0.7487 0.7107 0.7362 0.7568 0.907 0.9317 0.7906 0.9038
2150.810 1.0325 1.0944 1.1594 1.1049 1.0112 1.0638 1.0563 0.9891 0.9425 0.8383
2170.100 0.8533 0.7488 0.6289 0.8415 0.9032 0.7145 0.8339 0.875 0.8608 0.8778
2189.390 0.8482 0.9153 0.8967 0.8246 0.8795 0.7636 0.7771 0.8605 0.8822 0.911
2208.680 0.738 0.7647 0.9298 0.9637 1.016 0.9845 0.9416 1.0676 1.1362 1.1833
2227.970 1.1008 0.8825 0.735 0.6793 0.8088 0.9526 1.0273 0.9577 0.8552 0.9075
2247.259 0.8904 0.889 0.9166 0.9519 0.9361 0.9527 0.9945 0.994 0.8887 0.8364
2266.549 0.8757 1.0287 1.1283 1.1074 0.9741 0.9231 0.8026 0.677 0.9438 1.1514
2285.839 1.1183 1.0479 1.1414 1.1762 1.1464 1.1704 1.1924 1.015 0.7903 1.0998
2305.129 1.517 1.497 1.427 1.417 1.367 1.1206 1.0264 1.1155 1.2023 1.407
2324.418 1.327 1.2309 1.1562 1.023 0.9997 0.9978 1.1806 1.327 1.1865 1.0087
2343.708 1.0452 1.0753 1.0395 0.9799 0.9194 1.1426 1.1885 1.0528 0.9954 0.7923
2362.998 0.6853 0.6158 0.6935 0.8148 0.7509 0.8384 0.9038 0.7974 0.8512 1.0178
2382.288 1.0286 1.1463 1.106 0.9994 0.9331 0.9602 0.8069 0.7634 0.8983 0.7977
2401.578 0.8597 0.899 0.8532 0.7922 0.9132 1.0483 0.9238 0.7199 0.8263 0.9752
2420.867 0.8929 0.6777 0.6114 0.8213 1.2191 1.297 1.0059 0.9469 0.9901 0.908
2440.157 0.8974 0.8322 0.7559 0.8688 1.0745 1.0575 0.8809 0.9021 0.7987 0.6755
2459.447 0.734 0.8799 0.9122 0.8517 0.8197 0.8806 0.9827 0.9832 0.81 0.8693
2478.737 1.0936 1.0338 0.9899 1.0129 1.0747 1.1751 1.1201 0.9519 1.0687 1.2411
2498.026 1.2079 1.0117 0.9245 1.0986 1.078 0.9716 0.9763 1.0767 1.1354 1.1436
2517.316 1.0464 1.017 1.0259 0.9361 1.0771 1.1347 1.1317 1.1458 1.0827 1.0168
2536.606 0.8405 0.8968 1.1114 0.9941 0.9644 1.1068 1.0206 0.9222 1.0071 1.327
2555.896 1.577 1.397 1.387 1.447 1.2662 1.377 1.497 1.647 1.707 1.517
2575.186 1.417 1.347 1.397 1.347 1.537 1.837 1.667 1.527 1.547 1.527
2594.475 1.517 1.537 1.687 1.727 1.527 1.307 1.2097 1.327 1.477 1.467
2613.765 1.617 1.667 1.467 1.587 1.647 1.507 1.617 1.707 1.597 1.647
2633.055 1.817 1.827 1.497 1.2452 1.437 1.467 1.467 1.547 1.527 1.547
2652.345 1.307 0.9641 1.1549 1.457 1.607 1.627 1.547 1.617 1.547 1.597
2671.634 1.867 2.057 1.847 1.777 1.947 1.687 1.667 2.077 1.837 1.447
2690.924 1.757 1.967 2.047 2.127 1.707 1.857 1.967 1.687 1.767 2.087
2710.214 2.307 2.207 2.077 2.227 2.517 2.437 2.447 2.717 2.717 2.497
2729.504 2.637 2.657 2.557 2.297 2.077 2.327 2.527 2.487 2.407 2.297
2748.794 2.337 2.707 2.797 2.807 2.957 2.897 3.027 3.247 3.407 3.447
2768.083 3.437 3.547 3.947 4.427 4.757 5.137 5.537 5.857 6.107 6.587
2787.373 7.037 7.447 7.787 8.267 8.787 9.317 9.947 10.277 10.707 11.187
2806.663 11.417 11.757 12.087 12.177 12.447 12.947 13.477 13.727 14.157 14.427
2825.953 14.317 14.157 14.377 14.967 15.077 15.057 15.057 14.867 14.567 14.257
2845.242 14.267 14.247 13.977 13.947 13.677 13.417 13.177 13.167 13.147 12.947
2864.532 13.327 13.227 13.317 13.997 14.077 14.117 14.307 14.567 14.817 14.577
2883.822 14.397 14.357 14.307 14.267 14.047 14.187 14.447 14.137 13.957 14.037
2903.112 14.147 13.947 13.707 13.597 13.597 13.747 14.107 14.637 15.217 15.747
2922.401 16.527 17.657 18.457 18.987 19.057 18.797 18.227 17.597 16.837 16.027
2941.691 15.047 13.787 13.197 12.597 12.037 12.107 12.027 12.267 13.357 15.157
2960.981 17.227 19.757 22.637 25.077 27.107 28.527 29.257 29.717 29.267 28.407
2980.271 27.557 25.377 22.787 19.867 16.377 13.707 11.587 9.597 8.387 7.967
2999.561 8.097 8.527 8.867 9.417 10.177 10.697 11.357 12.477 14.367 16.957
3018.850 19.197 21.807 25.077 28.237 31.007 33.117 34.467 34.767 33.617 31.447
3038.140 29.177 26.707 24.527 22.737 20.887 19.887 19.687 19.617 20.257 21.487
3057.430 23.407 25.837 29.157 33.147 36.607 39.537 41.397 41.617 40.147 37.447
3076.720 33.967 30.337 27.577 25.347 23.617 21.927 20.247 19.017 17.327 15.767
3096.009 14.287 12.777 12.057 10.997 9.677 9.177 8.717 7.687 6.967 6.437
3115.299 5.837 4.967 3.977 3.617 3.207 3.067 3.157 2.507 2.157 2.137
3134.589 1.777 1.787 1.697 1.907 2.157 1.887 1.767 1.697 1.867 1.647
3153.879 1.827 2.267 2.017 1.907 1.877 1.927 1.647 1.417 1.327 1.647
3173.169 2.037 1.937 2.047 1.777 1.407 1.567 1.517 1.467 1.477 1.447
3192.458 1.1764 0.9814 0.8808 0.9045 1.2175 1.297 1.0562 0.6262 0.6993 0.6758
3211.748 0.5975 0.9129 1.0133 0.7882 0.7805 1.0162 0.9595 0.6303 0.4142 0.438
3231.038 0.5331 0.2552 0.5784 0.9029 0.5913 0.4972 0.6543 1.417 1.497 0.7964
3250.328 0.5256 0.4647 0.8472 1.287 1.221 1.1226 0.9478 1.0281 1.2349 1.0647
3269.617 0.8679 0.7879 0.5006 0.5672 0.8521 0.5212 0.29151 0.5821 0.6815 0.5283
3288.907 0.7496 0.8718 0.7467 0.6695 0.8137 0.8243 0.5307 0.4594 0.4104 0.6419
3308.197 0.8999 0.7316 0.6743 0.6834 0.4573 0.3987 0.4865 0.6626 0.9408 0.8028
3327.487 0.4606 0.6392 1.0852 0.8959 0.7008 0.9599 1.0647 1.387 1.1999 0.4827
3346.777 0.30608 0.4405 0.7098 0.9644 1.327 1.317 0.6496 0.5397 0.584 0.5914
3366.066 0.7023 0.5262 0.35145 0.4378 0.8865 0.9137 0.6646 0.7537 0.7247 0.4711
3385.356 0.8039 0.9882 0.6823 0.8118 1.297 1.717 1.517 1.1222 0.7098 0.2651
3404.646 0.6515 1.0904 0.9955 0.9747 0.9473 0.7022 0.8538 1.1137 1.1138 1.0166
3423.936 0.7982 0.653 0.6696 0.571 0.8245 0.8645 0.4868 0.9633 1.1783 0.7712
3443.225 0.452 0.5121 0.4942 0.4954 0.6587 1.1871 1.517 1.2179 1.337 1.377
3462.515 1.0431 0.654 0.582 0.7221 0.9783 1.0499 0.8002 0.6731 0.6333 0.7851
3481.805 0.4097 0.5338 0.8488 0.7544 0.842 0.36558 0.4198 0.4482 0.36344 0.7179
3501.095 0.5662 0.4321 0.219 0.2602 0.783 1.0952 0.7574 0.8207 1.1084 0.8459
3520.385 0.8686 0.6766 0.4121 0.36261 0.4285 0.5194 0.4626 0.37593 0.4683 0.9035
3539.674 0.7991 0.4093 0.6606 0.7995 0.4473 0.048 0.3822 0.8094 0.6451 0.8165
3558.964 0.699 0.175 0.33096 0.7207 0.7309 0.6458 0.9461 1.2058 1.0957 0.5437
3578.254 0.31111 0.7119 0.6866 0.5123 0.7445 0.7647 0.4223 0.5694 0.855 0.7547
3597.544 0.7877 1.1638 1.667 1.477 1.0535 1.1941 1.407 1.128 1.0662 1.297
3616.833 1.337 1.1801 0.686 0.6502 0.9656 0.8577 0.6219 0.5425 0.6824 0.9887
3636.123 1.287 1.2486 1.0689 0.8452 0.774 0.9063 0.9061 0.8347 1.0212 1.0719
3655.413 0.8606 0.8758 0.8164 0.6838 0.2208 0.057 0.5588 0.8123 0.7703 0.7917
3674.703 1.1544 1.258 0.77 0.8036 1.0735 1.0002 1.2659 1.557 1.1382 0.7744
3693.993 1.2452 1.527 1.1349 0.9549 0.9171 1.124 1.307 1.006 0.7254 0.7681
3713.282 0.7638 0.6191 0.5916 0.30478 0.4715 1.1597 1.0676 0.6956 0.7569 0.7628
3732.572 0.7925 0.9582 0.8159 0.6736 0.4309 0.4329 0.6966 0.7836 0.8596 0.8538
3751.862 0.7963 0.5835 0.5143 0.2034 0.2193 0.6948 1.1829 1.317 1.1878 1.1642
3771.152 0.4744 0.2328 0.651 0.9249 0.6448 0.6755 1.307 1.069 0.5463 0.6412
3790.441 0.5526 0.5556 0.494 0.4554 1.0521 1.2381 1.2398 1.437 1.1142 0.9479
3809.731 0.8504 0.7463 0.9343 0.9594 0.5497 0.35038 0.6392 1.1332 1.2685 0.8103
3829.021 0.601 0.6989 0.5763 0.5314 0.6681 0.8854 1.0245 0.7784 0.6738 0.8765
3848.311 1.191 1.0167 0.7306 0.4762 0.7088 0.7147 0.34892 0.6828 1.0109 1.0027
3867.601 0.8245 0.6695 0.7554 0.9793 1.0396 1.1522 1.0002 0.985 0.9223 1.1045
3886.890 0.9143 0 0.30227 0.7407 0.9278 1.0339 0.9653 0.7724 0.68 0.4587
3906.180 0.5469 0.8936 0.7478 0.9165 1.2669 1.297 1.0173 1.1137 1.417 1.2346
3925.470 0.7424 0.6408 0.5709 0.286284 0.5565 0.7615 0.6409 0.6251 0.8681 0.8708
3944.760 0.7626 0.823 0.9437 0.7312 0.6965 0.8485 1.397 1.587 0.6353 0.7311
3964.049 1.1187 1.019 0.7694 1.0489 1.577 1.347 1.527 1.517 1.287 1.397
3983.339 0.9658 0.5333 0.9367 1.437 1.287 1.0298 0.8311 0.7785 0.4317 0.285607
##END=
