##TITLE=3,3-Dimethyl-1-indanol
##JCAMP-DX=4.24
##DATA TYPE=INFRARED SPECTRUM
##ORIGIN=NIST Mass Spectrometry Data Center
##OWNER=NIST Standard Reference Data Program
Collection (C) 2018 copyright by the U.S. Secretary of Commerce
on behalf of the United States of America. All rights reserved.
##CAS REGISTRY NO=38393-92-9
##MOLFORM=C 11 H 14 O
##$NIST SOURCE=MSDC-IR
##SPECTROMETER/DATA SYSTEM=HP-GC/MS/IRD
##STATE=gas
##XUNITS=1/CM
##YUNITS=ABSORBANCE
##XFACTOR=1.0
##YFACTOR=0.000002000
##DELTAX=4.0
##FIRSTX=550.0
##LASTX=3846.0
##FIRSTY=0.001118
##MAXX=3846
##MINX=550
##MAXY=0.02
##MINY=0
##NPOINTS=825
##XYDATA=(X++(Y..Y))
550.0 559 888 596 536 405 272 188 134 159 202
590.0 152 147 178 208 251 307 302 247 227 159
630.0 70 56 62 70 81 85 93 71 67 47
670.0 33 38 7 1 12 31 51 68 97 125
710.0 160 239 283 307 399 641 1142 1897 2880 4178
750.0 5067 4834 4027 2911 1811 1054 587 359 280 262
790.0 222 188 190 198 177 158 135 114 100 82
830.0 80 112 141 165 220 267 311 368 426 443
870.0 450 453 445 423 385 349 301 258 242 219
910.0 197 228 266 302 349 385 409 434 442 439
950.0 445 462 518 620 739 805 856 906 944 978
990.0 1030 1129 1243 1370 1532 1752 2006 2252 2447 2521
1030.0 2497 2460 2473 2567 2715 2830 2823 2662 2344 1972
1070.0 1648 1462 1439 1507 1566 1569 1491 1367 1255 1178
1110.0 1124 1102 1080 1039 1010 995 980 934 902 908
1150.0 941 971 979 977 949 927 979 1054 1131 1215
1190.0 1299 1370 1397 1390 1381 1329 1218 1074 939 848
1230.0 797 772 769 793 834 871 926 1000 1077 1139
1270.0 1175 1183 1174 1160 1180 1240 1306 1384 1458 1507
1310.0 1536 1541 1510 1459 1415 1391 1385 1405 1404 1408
1350.0 1480 1610 1767 1956 2198 2231 2117 2086 2005 1877
1390.0 1717 1503 1225 955 753 617 543 501 476 491
1430.0 546 639 771 938 1153 1357 1485 1538 1559 1611
1470.0 1694 1737 1631 1395 1086 733 453 317 251 210
1510.0 187 152 114 96 74 47 36 34 38 35
1550.0 25 23 34 48 48 53 79 116 141 180
1590.0 228 276 334 374 376 335 276 224 181 137
1630.0 101 77 59 41 32 37 42 37 35 41
1670.0 52 54 68 87 100 105 97 83 68 56
1710.0 55 45 37 43 45 47 39 25 16 15
1750.0 20 23 21 19 28 34 45 67 87 101
1790.0 115 136 138 135 121 98 86 87 90 93
1830.0 89 82 75 71 64 48 42 42 44 60
1870.0 73 71 67 68 70 80 109 133 159 180
1910.0 180 165 131 92 71 78 106 132 150 151
1950.0 125 90 60 37 18 6 1 11 17 3
1990.0 0 6 7 10 16 11 19 21 9 6
2030.0 3 10 12 17 19 7 1 6 3 0
2070.0 7 9 11 20 18 21 26 22 20 15
2110.0 10 8 16 21 21 21 14 8 6 10
2150.0 12 9 9 7 11 20 18 18 16 8
2190.0 8 10 11 7 6 9 0 8 19 19
2230.0 18 15 19 16 17 12 8 17 20 26
2270.0 31 28 22 23 29 32 35 35 45 56
2310.0 52 60 61 42 38 38 25 27 30 24
2350.0 21 10 5 11 21 21 15 20 33 27
2390.0 17 25 31 28 24 26 38 38 37 29
2430.0 13 22 36 40 38 25 23 29 31 23
2470.0 19 26 32 33 33 33 24 35 39 20
2510.0 20 29 25 32 42 34 34 36 28 30
2550.0 38 31 25 42 49 45 46 47 52 51
2590.0 41 43 49 56 48 45 48 49 48 43
2630.0 59 74 77 76 71 73 75 64 60 57
2670.0 66 71 73 76 72 73 71 67 73 79
2710.0 90 111 124 131 134 142 143 152 159 149
2750.0 136 124 135 141 143 156 145 145 157 160
2790.0 158 149 157 189 221 230 238 269 309 337
2830.0 363 424 525 623 751 961 1265 1637 2044 2440
2870.0 2756 2931 2932 2796 2667 2598 2595 2670 2816 2999
2910.0 3212 3508 3872 4280 4720 5096 5257 5234 5235 5501
2950.0 6326 7742 9135 10000 9911 8443 6159 4049 2536 1585
2990.0 1051 784 675 651 703 823 1005 1250 1511 1693
3030.0 1762 1738 1636 1518 1447 1427 1465 1583 1826 2142
3070.0 2386 2459 2308 1959 1516 1090 784 594 452 336
3110.0 246 181 144 118 114 112 110 106 108 109
3150.0 110 114 122 127 124 139 157 161 158 160
3190.0 150 129 126 115 108 93 77 65 54 48
3230.0 45 53 52 66 59 43 38 34 32 33
3270.0 33 26 27 17 28 38 34 42 29 25
3310.0 34 34 18 10 9 11 18 7 7 8
3350.0 15 12 6 21 18 12 20 34 23 18
3390.0 17 12 19 15 17 25 32 32 38 27
3430.0 6 0 12 32 29 32 34 14 8 10
3470.0 9 23 31 15 13 33 32 26 25 35
3510.0 32 21 11 20 11 11 40 33 31 37
3550.0 23 8 9 22 31 23 12 31 55 59
3590.0 51 55 53 50 88 124 160 236 330 453
3630.0 573 647 735 794 787 731 626 496 377 278
3670.0 218 167 98 53 28 21 31 32 15 18
3710.0 31 40 39 14 19 31 30 28 32 31
3750.0 36 45 12 2 32 40 14 15 23 26
3790.0 30 24 16 40 60 54 55 34 15 31
3830.0 43 55 76 66 26
##END=
