##TITLE=2-Cyanobenzoic acid
##JCAMP-DX=4.24
##DATA TYPE=INFRARED SPECTRUM
##ORIGIN=EPA-IR VAPOR PHASE LIBRARY
##OWNER=SRD/NIST
Collection (C) 2018 copyright by the U.S. Secretary of Commerce
on behalf of the United States of America. All rights reserved.
##CAS REGISTRY NO=3839-22-3
##MOLFORM=C 8 H 5 N O 2
##$NIST SOURCE=MSDC-IR
##STATE=gas
##XUNITS=1/CM
##YUNITS=ABSORBANCE
##XFACTOR=1.
##YFACTOR=0.001
##DELTAX=1.92898
##FIRSTX=549.8
##LASTX=4000.7
##FIRSTY=19.507
##MAXX=4000.7
##MINX=549.759
##MAXY=0.192237
##MINY=0
##NPOINTS=1790
##XYDATA=(X++(Y..Y))
549.759 19.507 18.667 16.847 14.867 13.317 11.827 10.667 9.567 8.677 7.767
569.049 7.107 6.577 5.887 5.377 4.737 4.247 4.237 4.167 3.717 3.127
588.339 2.887 2.737 2.227 2.017 1.867 1.737 1.777 1.687 1.377 1.2134
607.628 1.387 1.367 1.1683 1.2442 1.407 1.2606 1.0622 0.931 1.0216 1.367
626.918 1.717 2.257 2.467 2.527 2.727 2.847 2.997 3.007 3.027 3.237
646.208 3.147 2.457 2.237 2.087 1.537 1.327 1.2547 1.2448 1.0701 0.7991
665.498 0.9693 1.0631 0.9712 1.0851 1.0033 0.9174 1.0361 1.1723 1.277 1.417
684.787 1.807 2.247 2.717 3.427 4.507 6.427 8.597 11.037 13.287 14.997
704.077 16.097 17.187 19.607 31.537 46.867 36.967 20.907 18.447 18.457 18.257
723.367 16.817 14.427 11.737 9.327 7.217 5.597 4.547 4.027 3.797 3.547
742.657 3.127 3.037 2.977 2.737 2.477 2.197 1.897 1.717 1.517 1.2539
761.947 1.1464 1.1862 1.337 1.427 1.517 1.547 1.727 1.967 2.167 2.457
781.236 2.777 3.007 3.187 3.357 3.397 3.187 2.607 2.057 1.677 1.537
800.526 1.527 1.317 0.9923 0.7434 0.5539 0.5029 0.5326 0.5229 0.6947 0.6817
819.816 0.6538 0.6883 0.2649 0.33413 0.6533 0.6179 0.6696 0.6872 0.5277 0.35936
839.106 0.3846 0.4667 0.5403 0.4262 0.2146 0.2592 0.4084 0.4303 0.32328 0.2152
858.395 0.32647 0.486 0.4274 0.2392 0.2136 0.2909 0.273085 0.33795 0.4626 0.4315
877.685 0.3779 0.29142 0.4523 0.7793 0.8345 0.7026 0.5895 0.6301 0.6347 0.6205
896.975 0.6247 0.46 0.3806 0.4578 0.4895 0.6461 0.768 0.6995 0.6909 0.8449
916.265 0.7988 0.6306 0.6565 0.7059 0.696 0.7223 0.6815 0.7122 0.9864 0.9924
935.555 0.6873 0.6703 0.9256 1.1015 1.044 0.9418 1.0511 1.2578 1.367 1.367
954.844 1.477 1.617 1.487 1.457 1.537 1.607 1.627 1.617 1.807 1.957
974.134 2.147 2.207 2.067 2.217 2.287 2.527 2.897 3.187 3.707 4.567
993.424 5.437 6.227 7.177 8.267 9.297 10.457 11.697 13.107 14.677 16.077
1012.714 18.057 20.527 23.347 26.147 28.247 29.307 29.157 27.847 26.667 26.887
1032.003 26.917 25.237 22.047 17.827 13.887 10.687 8.097 6.727 5.897 5.457
1051.293 5.677 5.987 6.087 6.297 6.597 7.007 7.207 7.017 7.267 7.497
1070.583 7.537 7.977 8.257 8.087 8.117 8.217 8.157 7.867 7.727 7.727
1089.873 7.337 6.737 6.407 5.957 5.607 4.847 4.057 3.807 3.647 3.297
1109.163 2.897 2.917 2.997 3.087 2.657 2.057 2.037 1.897 1.377 1.577
1128.452 1.787 1.977 1.947 1.887 1.677 1.437 1.757 1.917 1.727 1.377
1147.742 1.517 1.507 1.427 1.547 1.697 1.767 1.937 2.137 2.107 2.747
1167.032 3.507 4.087 4.577 5.007 5.547 5.497 5.277 5.387 5.817 5.687
1186.322 5.267 4.727 3.977 3.547 3.007 2.737 2.737 2.457 2.347 2.647
1205.611 2.477 2.307 2.147 2.247 2.467 2.527 2.637 2.407 2.147 2.187
1224.901 2.387 2.537 2.527 2.467 2.477 2.497 2.777 3.047 3.387 3.727
1244.191 3.967 4.567 4.957 5.407 5.867 6.117 6.497 6.757 7.047 7.157
1263.481 7.317 7.597 8.187 8.947 9.407 10.407 11.747 13.337 15.487 17.927
1282.771 20.727 23.867 26.917 29.247 30.417 30.877 31.137 30.907 29.847 28.257
1302.060 25.917 22.397 18.327 14.547 11.847 10.297 9.237 8.257 7.397 6.837
1321.350 6.587 6.687 7.107 7.857 8.967 10.317 11.787 13.277 14.817 16.267
1340.640 17.547 18.787 20.077 21.387 22.477 23.237 23.637 23.817 23.747 23.477
1359.930 23.127 22.587 21.717 20.467 18.907 16.997 15.067 13.457 11.897 10.357
1379.219 8.807 7.387 6.237 5.317 4.587 3.957 3.337 2.767 2.407 2.197
1398.509 1.997 1.897 1.797 1.807 1.887 1.897 1.977 2.047 2.057 2.017
1417.799 2.027 2.077 2.007 1.867 1.767 1.647 1.497 1.337 1.1799 1.0845
1437.089 1.01 1.0285 1.1397 1.1806 1.2226 1.337 1.447 1.587 1.787 1.957
1456.378 2.177 2.477 2.747 3.057 3.307 3.447 3.417 3.127 2.987 3.067
1475.668 2.947 2.657 2.257 1.847 1.487 1.1808 0.9639 0.8346 0.7115 0.6606
1494.958 0.6507 0.6648 0.6979 0.6841 0.7073 0.7197 0.7323 0.8265 0.8476 0.8688
1514.248 0.9506 0.9649 1.0631 1.137 1.1012 1.0963 1.0831 1.1105 1.064 1.0237
1533.538 1.0707 0.9834 0.9286 0.8957 0.9021 0.9127 0.9146 0.8864 0.8394 0.8901
1552.827 0.9196 0.923 0.987 0.9641 0.8994 0.9282 0.9887 1.0372 0.9898 1.068
1572.117 1.154 1.1477 1.2129 1.317 1.407 1.477 1.587 1.807 1.957 1.987
1591.407 2.087 2.247 2.407 2.547 2.677 2.787 2.887 2.917 2.937 2.987
1610.697 2.937 2.807 2.597 2.387 2.267 2.147 2.007 1.837 1.687 1.747
1629.986 1.677 1.457 1.377 1.26 1.2076 1.267 1.367 1.407 1.377 1.547
1649.276 1.747 1.707 1.697 1.847 1.967 2.067 2.167 2.147 2.097 2.167
1668.566 2.117 2.047 1.957 1.837 1.737 1.677 1.607 1.477 1.407 1.427
1687.856 1.577 1.627 1.627 1.747 1.927 2.077 2.277 2.467 2.707 3.097
1707.146 3.487 3.867 4.337 4.977 5.647 6.337 7.117 7.917 8.697 9.587
1726.435 10.637 11.597 12.507 13.577 15.167 17.367 20.247 24.317 29.737 37.367
1745.725 48.087 62.787 81.747 105.397 131.407 156.267 176.917 188.157 188.747 184.157
1765.015 184.607 191.677 192.237 175.647 146.357 115.237 87.457 66.457 53.347 46.417
1784.305 43.597 42.617 42.207 41.777 41.177 39.817 37.507 35.357 33.337 29.517
1803.594 23.967 18.587 14.597 12.187 10.927 10.177 9.627 9.227 8.897 8.627
1822.884 8.357 7.937 7.457 6.997 6.507 5.947 5.407 4.987 4.667 4.417
1842.174 4.077 3.727 3.497 3.267 3.037 2.837 2.767 2.617 2.427 2.307
1861.464 2.237 2.177 2.127 2.137 2.097 2.097 2.147 2.137 2.147 2.127
1880.754 2.087 2.107 2.057 2.017 1.997 1.897 1.847 1.837 1.817 1.777
1900.043 1.687 1.617 1.617 1.547 1.417 1.447 1.457 1.367 1.357 1.387
1919.333 1.427 1.477 1.487 1.457 1.457 1.527 1.527 1.547 1.667 1.727
1938.623 1.727 1.727 1.657 1.477 1.437 1.407 1.2619 1.1668 1.1007 1.0459
1957.913 1.066 1.0592 1.0509 1.062 1.0888 1.1672 1.1757 1.1135 1.0498 1.0521
1977.202 1.0198 0.9504 0.8774 0.8129 0.7642 0.7141 0.6669 0.6095 0.5805 0.5251
1996.492 0.4623 0.4614 0.5557 0.5939 0.526 0.4616 0.4511 0.4941 0.459 0.4015
2015.782 0.4561 0.486 0.4401 0.454 0.4797 0.5038 0.5156 0.5127 0.4903 0.481
2035.072 0.5197 0.5147 0.5107 0.5268 0.5237 0.4859 0.4184 0.4072 0.4982 0.4982
2054.362 0.4058 0.4066 0.4435 0.4431 0.4166 0.4167 0.4849 0.4731 0.4337 0.436
2073.651 0.4498 0.5068 0.4973 0.4605 0.5316 0.6073 0.599 0.5921 0.6319 0.6532
2092.941 0.6669 0.6789 0.724 0.7389 0.6945 0.6557 0.6439 0.6772 0.6272 0.5329
2112.231 0.5565 0.6278 0.6314 0.6016 0.5509 0.5746 0.6428 0.6306 0.597 0.5948
2131.521 0.5817 0.5373 0.5114 0.5606 0.576 0.5364 0.5615 0.5876 0.5643 0.5219
2150.810 0.5392 0.5814 0.6008 0.6008 0.5834 0.5959 0.6205 0.6575 0.6248 0.5928
2170.100 0.5582 0.5095 0.5629 0.5886 0.596 0.6034 0.4965 0.4912 0.4906 0.3812
2189.390 0.36366 0.3814 0.4074 0.3979 0.3878 0.31701 0.28115 0.4061 0.4684 0.4106
2208.680 0.35264 0.3713 0.3964 0.3691 0.3768 0.35908 0.32307 0.34289 0.35265 0.35585
2227.970 0.3774 0.32197 0.28004 0.31415 0.34418 0.36369 0.3894 0.4445 0.4115 0.34914
2247.259 0.4037 0.4769 0.4932 0.5403 0.6261 0.5939 0.5026 0.4859 0.5491 0.6421
2266.549 0.6602 0.622 0.5882 0.5641 0.5467 0.4986 0.4842 0.5783 0.6365 0.6255
2285.839 0.6165 0.6592 0.7295 0.7144 0.7466 0.8108 0.8677 0.9111 0.8792 0.8869
2305.129 0.9142 0.9228 0.946 0.9558 0.8905 0.8032 0.7491 0.7675 0.7856 0.726
2324.418 0.694 0.7424 0.7244 0.6052 0.6161 0.6287 0.558 0.5911 0.6648 0.6692
2343.708 0.6024 0.5947 0.6129 0.5802 0.6171 0.6784 0.6504 0.6083 0.6549 0.6638
2362.998 0.6692 0.7304 0.7215 0.6552 0.6908 0.7413 0.7497 0.7341 0.7066 0.6965
2382.288 0.6469 0.7154 0.8081 0.8239 0.7477 0.6785 0.6766 0.6546 0.6705 0.6202
2401.578 0.6046 0.7726 0.7661 0.6698 0.7415 0.7049 0.5915 0.5024 0.4992 0.545
2420.867 0.5435 0.559 0.5755 0.5675 0.6218 0.6659 0.6415 0.5947 0.5476 0.4963
2440.157 0.4253 0.4248 0.4474 0.4744 0.4528 0.3676 0.32398 0.35347 0.36334 0.396
2459.447 0.4105 0.4367 0.4538 0.4702 0.5003 0.3821 0.3855 0.4428 0.4161 0.4327
2478.737 0.3953 0.391 0.4138 0.3776 0.3777 0.4195 0.4141 0.31685 0.2277 0.30813
2498.026 0.4121 0.4096 0.4256 0.498 0.4395 0.3773 0.474 0.5123 0.4723 0.5072
2517.316 0.5158 0.4329 0.3987 0.4114 0.4739 0.5004 0.4761 0.4856 0.4763 0.4805
2536.606 0.4958 0.467 0.4429 0.3743 0.35302 0.4208 0.43 0.373 0.3898 0.4444
2555.896 0.3781 0.32917 0.3727 0.3898 0.35266 0.30292 0.35005 0.4217 0.4797 0.5004
2575.186 0.4961 0.4025 0.3685 0.4215 0.5157 0.6259 0.6337 0.6348 0.6658 0.7194
2594.475 0.5616 0.4474 0.5459 0.5981 0.5684 0.5236 0.5856 0.5251 0.4381 0.5029
2613.765 0.5518 0.5757 0.5609 0.5206 0.4656 0.4414 0.469 0.5351 0.5353 0.5124
2633.055 0.5176 0.5475 0.4672 0.4208 0.4494 0.4372 0.4963 0.5425 0.5466 0.5056
2652.345 0.5236 0.49 0.524 0.5549 0.449 0.4807 0.5723 0.4737 0.42 0.4636
2671.634 0.36319 0.4228 0.4753 0.34645 0.30823 0.3731 0.3752 0.35294 0.3691 0.3648
2690.924 0.3902 0.35739 0.3702 0.4013 0.4333 0.5249 0.4894 0.35642 0.30993 0.34778
2710.214 0.35734 0.3383 0.34285 0.403 0.32903 0.32949 0.29885 0.1914 0.2482 0.2368
2729.504 0.171 0.1978 0.1754 0.1813 0.2066 0.2649 0.31292 0.2268 0.156 0.2551
2748.794 0.33851 0.2225 0.2273 0.33385 0.31919 0.2463 0.2987 0.32272 0.28545 0.2128
2768.083 0.2653 0.4119 0.3869 0.391 0.4066 0.4064 0.4492 0.4728 0.4717 0.4328
2787.373 0.373 0.4158 0.4853 0.4376 0.4624 0.5121 0.4931 0.5096 0.4914 0.3677
2806.663 0.1826 0.1946 0.34802 0.30253 0.2038 0.1956 0.2342 0.30125 0.33751 0.26374
2825.953 0.27715 0.3173 0.33382 0.33361 0.2212 0.133 0.2349 0.29002 0.2233 0.270805
2845.242 0.28153 0.26273 0.2555 0.25966 0.31367 0.4647 0.4349 0.29802 0.33859 0.32475
2864.532 0.2521 0.228 0.2327 0.2127 0.1911 0.31442 0.3966 0.3919 0.4301 0.474
2883.822 0.3756 0.2478 0.4001 0.5426 0.588 0.5893 0.5635 0.5444 0.5552 0.587
2903.112 0.5366 0.5337 0.5714 0.6027 0.6028 0.4802 0.4114 0.4284 0.4171 0.4832
2922.401 0.5161 0.5432 0.5893 0.6224 0.7495 0.7196 0.6327 0.6179 0.4836 0.3765
2941.691 0.4196 0.4716 0.4382 0.4729 0.3986 0.2372 0.26109 0.4037 0.3775 0.4004
2960.981 0.5013 0.4458 0.35681 0.4059 0.5022 0.3981 0.3962 0.4609 0.4346 0.3853
2980.271 0.29943 0.30523 0.32012 0.28702 0.36394 0.379 0.31931 0.275563 0.32213 0.2801
2999.561 0.2332 0.26114 0.30886 0.31817 0.26374 0.35183 0.3761 0.4141 0.471 0.373
3018.850 0.3784 0.4904 0.4551 0.4167 0.4158 0.4864 0.6009 0.6521 0.7818 0.9458
3038.140 1.0083 1.1779 1.377 1.407 1.407 1.427 1.537 1.637 1.727 1.857
3057.430 2.057 2.107 2.127 2.297 2.417 2.437 2.507 2.617 2.767 2.977
3076.720 3.147 3.327 3.447 3.627 3.807 3.767 3.727 3.677 3.467 3.187
3096.009 2.767 2.477 2.177 1.887 1.767 1.477 1.1296 0.7424 0.5403 0.5679
3115.299 0.5364 0.4603 0.4168 0.4297 0.34163 0.28128 0.2455 0.1762 0.1829 0.3548
3134.589 0.3788 0.28742 0.29758 0.267583 0.28588 0.27721 0.453 0.5286 0.379 0.30613
3153.879 0.09 0.193 0.4296 0.25915 0.1685 0.3047 0.2411 0.274769 0.3901 0.1942
3173.169 0.2125 0.3967 0.36651 0.4076 0.33003 0.27951 0.3966 0.35242 0.34058 0.3785
3192.458 0.3834 0.3861 0.4838 0.5528 0.4679 0.33182 0.2195 0.34635 0.33405 0.2469
3211.748 0.3783 0.4111 0.33216 0.2918 0.5376 0.5761 0.3766 0.445 0.5197 0.4587
3231.038 0.4936 0.4755 0.3932 0.4448 0.4806 0.32551 0.29225 0.33922 0.34427 0.387
3250.328 0.2856 0.32571 0.4163 0.4598 0.4046 0.35571 0.4263 0.29919 0.163 0.2072
3269.617 0.2029 0.2371 0.2351 0.1791 0.2051 0.124 0.2122 0.1785 0.062 0.183
3288.907 0.151 0.1871 0.4075 0.3816 0.2433 0.28817 0.30289 0.1942 0.115 0.145
3308.197 0.30432 0.30946 0.141 0.138 0.1725 0.2328 0.27848 0.27779 0.3132 0.383
3327.487 0.4089 0.4665 0.3513 0.14 0.2442 0.35046 0.2135 0.126 0.1771 0.1752
3346.777 0.274453 0.2819 0.2508 0.4058 0.3701 0.1689 0.1857 0.32706 0.269413 0.2341
3366.066 0.3768 0.4383 0.4099 0.33064 0.33041 0.388 0.4193 0.429 0.4004 0.30417
3385.356 0.2128 0.274074 0.28615 0.2252 0.2372 0.34499 0.3673 0.2559 0.3688 0.5941
3404.646 0.5166 0.3755 0.29709 0.2283 0.3788 0.5176 0.5082 0.6836 0.7166 0.5978
3423.936 0.6974 0.7343 0.8041 0.8447 0.9434 1.2008 1.427 1.637 1.917 2.307
3443.225 2.717 3.207 3.817 4.567 5.507 6.747 8.227 9.877 11.557 13.207
3462.515 15.007 16.877 18.817 20.647 22.237 22.997 22.587 21.647 20.517 19.137
3481.805 17.287 15.137 12.967 10.467 7.667 5.167 3.517 2.467 1.777 1.567
3501.095 1.487 1.587 1.697 1.697 1.747 1.767 1.847 1.997 2.087 2.197
3520.385 2.297 2.277 2.457 2.587 2.497 2.647 2.777 2.767 2.787 2.837
3539.674 2.827 2.877 2.797 2.457 2.367 2.247 2.097 1.887 1.487 1.1845
3558.964 1.0036 0.7921 0.5825 0.5331 0.5457 0.7673 0.8708 0.6314 0.4917 0.618
3578.254 0.6097 0.6144 0.5211 0.4619 0.5762 0.6091 0.6757 0.6719 0.5835 0.5186
3597.544 0.6362 0.6164 0.4697 0.3975 0.5124 0.5927 0.5329 0.5148 0.4127 0.4134
3616.833 0.5117 0.461 0.3773 0.3892 0.28077 0.26536 0.28115 0.109 0.085 0.077
3636.123 0.044 0.132 0.33197 0.36087 0.4106 0.571 0.499 0.4602 0.5114 0.4622
3655.413 0.4262 0.473 0.5816 0.3829 0.2217 0.3836 0.31379 0.2463 0.32398 0.2087
3674.703 0.058 0.2076 0.31293 0.1828 0.033 0 0.072 0.144 0.1764 0.13
3693.993 0.26738 0.3928 0.30798 0.3781 0.34663 0.2058 0.2064 0.191 0.094 0.1796
3713.282 0.274632 0.29746 0.4558 0.35909 0.2163 0.2184 0.2035 0.15 0.185 0.30628
3732.572 0.1911 0.2028 0.27377 0.32529 0.4454 0.4718 0.5097 0.3684 0.35176 0.4479
3751.862 0.3362 0.1916 0.28588 0.34846 0.29849 0.2119 0.019 0.056 0.058 0.108
3771.152 0.2376 0.31503 0.4024 0.4177 0.3899 0.33511 0.3923 0.5138 0.5774 0.5883
3790.441 0.4167 0.32253 0.34404 0.2594 0.2442 0.3714 0.5771 0.4527 0.30298 0.3867
3809.731 0.31784 0.1902 0.2144 0.099 0.08 0.4126 0.5536 0.3914 0.28376 0.25721
3829.021 0.2293 0.1934 0.1858 0.2067 0.1877 0.31628 0.3833 0.2372 0.09 0.26489
3848.311 0.5207 0.4372 0.29667 0.3767 0.2772 0.27827 0.4565 0.4068 0.3793 0.3698
3867.601 0.244 0.28806 0.33828 0.28509 0.27727 0.28168 0.2234 0.1848 0.2193 0.28879
3886.890 0.272226 0.1693 0.2284 0.2392 0.266232 0.33615 0.31169 0.157 0.058 0.149
3906.180 0.2377 0.2561 0.1748 0.266902 0.33839 0.1751 0.064 0.163 0.29357 0.2557
3925.470 0.2279 0.35604 0.28031 0.089 0.1917 0.2491 0.27899 0.3921 0.3693 0.1951
3944.760 0.164 0.35101 0.3734 0.311 0.35546 0.1954 0.134 0.124 0.102 0.202
3964.049 0.2448 0.1914 0.166 0.30742 0.2339 0.076 0.274509 0.4731 0.4109 0.3978
3983.339 0.4376 0.33847 0.3577 0.4704 0.4611 0.4646 0.4133 0.4502 0.3882 0.35836
##END=
