##TITLE=1-Cyclobutylethanol
##JCAMP-DX=4.24
##DATA TYPE=INFRARED SPECTRUM
##ORIGIN=NIST Mass Spectrometry Data Center
##OWNER=NIST Standard Reference Data Program
Collection (C) 2018 copyright by the U.S. Secretary of Commerce
on behalf of the United States of America. All rights reserved.
##CAS REGISTRY NO=38401-41-1
##MOLFORM=C 6 H 12 O
##$NIST SOURCE=MSDC-IR
##SPECTROMETER/DATA SYSTEM=HP-GC/MS/IRD
##STATE=gas
##XUNITS=1/CM
##YUNITS=ABSORBANCE
##XFACTOR=1.0
##YFACTOR=0.000002700
##DELTAX=4.0
##FIRSTX=550.0
##LASTX=3846.0
##FIRSTY=0.000313
##MAXX=3846
##MINX=550
##MAXY=0.027
##MINY=0
##NPOINTS=825
##XYDATA=(X++(Y..Y))
550.0 116 82 62 71 60 23 53 65 28 48
590.0 81 65 44 63 86 117 106 89 99 115
630.0 134 141 134 119 106 74 46 54 53 38
670.0 22 28 48 51 58 66 50 38 23 20
710.0 41 49 43 48 39 29 34 37 34 29
750.0 25 30 32 33 33 32 26 5 23 35
790.0 20 23 23 36 40 39 36 50 75 85
830.0 102 131 156 196 246 304 373 429 492 542
870.0 590 648 688 703 708 708 697 687 660 612
910.0 564 542 556 582 601 621 640 643 655 650
950.0 614 566 538 522 515 522 561 636 724 824
990.0 946 1093 1249 1389 1508 1597 1646 1659 1620 1527
1030.0 1403 1260 1147 1076 1033 1013 1018 1061 1138 1244
1070.0 1342 1449 1581 1714 1835 1941 2020 2053 2030 1966
1110.0 1870 1759 1640 1511 1403 1337 1306 1276 1246 1205
1150.0 1152 1094 1022 956 893 813 744 683 645 626
1190.0 607 595 596 636 699 754 813 894 1010 1149
1230.0 1295 1444 1564 1630 1648 1615 1538 1416 1255 1086
1270.0 938 819 742 692 677 670 657 651 653 652
1310.0 656 662 671 685 701 728 744 754 770 809
1350.0 869 943 1051 1211 1378 1530 1642 1714 1729 1648
1390.0 1490 1288 1072 882 738 627 545 494 479 488
1430.0 516 556 613 656 673 684 667 621 580 531
1470.0 471 403 334 273 230 199 165 137 117 98
1510.0 98 96 88 80 73 73 69 59 62 64
1550.0 50 38 28 30 29 27 24 23 22 18
1590.0 15 17 25 24 17 17 13 7 4 0
1630.0 4 7 7 6 3 0 6 17 15 12
1670.0 3 8 13 5 2 14 21 17 18 18
1710.0 13 18 21 18 12 14 19 14 9 9
1750.0 5 3 4 5 5 3 2 10 14 11
1790.0 12 8 8 6 5 12 16 14 17 20
1830.0 14 12 11 13 20 17 16 20 23 24
1870.0 17 18 21 22 28 30 23 17 13 8
1910.0 13 19 14 9 9 11 9 8 12 14
1950.0 9 13 17 12 11 14 15 14 13 12
1990.0 11 11 7 8 13 12 9 11 12 10
2030.0 7 6 6 6 11 17 14 12 12 7
2070.0 11 19 19 23 25 21 23 27 26 31
2110.0 35 33 34 38 35 36 39 40 45 46
2150.0 45 54 54 52 48 37 34 35 35 31
2190.0 30 31 36 38 33 31 32 31 30 26
2230.0 28 28 27 27 26 21 18 15 19 26
2270.0 18 19 23 18 17 14 7 6 11 9
2310.0 16 20 15 25 22 17 23 21 20 30
2350.0 30 27 26 21 20 25 28 29 28 23
2390.0 24 24 19 20 24 24 17 6 8 16
2430.0 13 15 17 15 23 27 29 28 22 22
2470.0 21 20 28 27 20 18 17 22 24 20
2510.0 17 16 16 13 10 13 16 15 13 16
2550.0 18 21 23 27 26 27 34 39 42 43
2590.0 43 43 49 56 64 75 83 98 110 112
2630.0 114 125 130 122 115 117 113 109 114 111
2670.0 103 99 100 103 105 99 103 108 104 108
2710.0 107 106 116 119 124 127 123 125 130 136
2750.0 144 146 144 153 165 178 189 185 192 212
2790.0 227 238 248 269 297 327 362 393 438 514
2830.0 599 698 838 1020 1250 1542 1893 2270 2674 3083
2870.0 3428 3645 3758 3793 3764 3690 3608 3561 3614 3766
2910.0 3998 4270 4525 4761 4979 5202 5451 5727 6040 6414
2950.0 6879 7440 8050 8673 9190 9631 9869 10000 9780 8295
2990.0 6646 5370 4097 2983 2070 1414 976 718 586 508
3030.0 460 423 400 391 377 366 345 334 320 299
3070.0 269 238 221 207 194 176 168 157 143 134
3110.0 132 110 92 78 63 60 65 64 54 50
3150.0 64 71 66 60 59 59 62 68 65 67
3190.0 69 66 72 71 64 50 38 34 36 30
3230.0 18 22 14 14 13 19 26 21 21 20
3270.0 18 18 23 34 39 36 36 31 27 32
3310.0 30 24 19 20 18 13 19 32 31 30
3350.0 21 11 9 7 11 7 7 19 21 26
3390.0 29 23 25 43 52 55 59 48 48 60
3430.0 61 55 64 59 55 65 61 59 56 56
3470.0 62 63 55 48 47 41 39 35 26 34
3510.0 43 37 24 29 38 35 30 31 31 31
3550.0 33 40 38 39 49 43 25 25 41 51
3590.0 51 54 53 51 65 92 126 162 214 268
3630.0 344 442 529 612 662 680 690 674 616 520
3670.0 423 331 244 183 148 115 84 71 67 56
3710.0 53 53 47 57 54 43 47 50 60 61
3750.0 53 56 50 40 36 31 26 28 31 39
3790.0 49 50 47 47 45 43 43 42 49 60
3830.0 74 73 65 61 58
##END=
