##TITLE=3,4,5-Trimethoxybenzyl chloride
##JCAMP-DX=4.24
##DATA TYPE=INFRARED SPECTRUM
##ORIGIN=EPA-IR VAPOR PHASE LIBRARY
##OWNER=SRD/NIST
Collection (C) 2018 copyright by the U.S. Secretary of Commerce
on behalf of the United States of America. All rights reserved.
##CAS REGISTRY NO=3840-30-0
##MOLFORM=C 10 H 13 Cl O 3
##$NIST SOURCE=MSDC-IR
##STATE=gas
##XUNITS=1/CM
##YUNITS=ABSORBANCE
##XFACTOR=1.
##YFACTOR=0.001
##DELTAX=1.92898
##FIRSTX=549.8
##LASTX=4000.7
##FIRSTY=3.477
##MAXX=4000.7
##MINX=549.759
##MAXY=0.118737
##MINY=0
##NPOINTS=1790
##XYDATA=(X++(Y..Y))
549.759 3.477 3.597 3.267 3.517 4.197 4.427 4.747 4.687 4.497 4.697
569.049 4.647 4.727 4.137 3.487 3.497 3.467 3.617 3.617 3.397 3.387
588.339 3.297 3.457 3.837 3.907 4.057 4.217 4.357 4.697 5.087 5.707
607.628 6.567 7.227 7.747 8.517 9.757 10.937 11.957 12.817 13.467 14.167
626.918 14.677 14.847 14.657 14.347 14.097 13.537 13.097 12.747 12.097 11.507
646.208 10.997 10.607 10.267 9.777 9.497 9.147 8.557 8.277 7.777 7.127
665.498 6.927 6.747 6.377 6.047 5.867 5.777 5.527 5.287 5.087 4.947
684.787 5.077 5.237 5.427 5.627 5.887 6.187 6.637 7.347 8.087 8.937
704.077 10.257 11.867 13.667 15.817 18.277 20.897 23.487 26.007 28.397 29.947
723.367 30.557 30.457 29.737 28.387 26.387 24.257 22.197 20.297 18.437 16.697
742.657 15.217 13.967 13.077 12.467 11.887 11.377 10.877 10.477 9.977 9.547
761.947 9.307 8.937 8.667 8.567 8.447 8.437 8.557 8.657 8.607 8.497
781.236 8.467 8.157 7.347 6.517 5.787 4.947 4.317 3.927 3.657 3.407
800.526 3.127 3.097 3.187 3.207 3.477 3.697 3.857 4.197 4.497 4.907
819.816 5.507 6.137 6.637 7.157 7.747 8.227 8.297 8.217 8.227 8.057
839.106 7.787 7.507 7.297 7.117 6.647 6.327 6.277 6.037 5.837 5.687
858.395 5.577 5.317 4.877 4.397 4.007 3.787 3.737 3.697 3.417 3.077
877.685 3.057 3.217 3.177 3.107 3.107 3.207 3.117 3.207 3.607 3.867
896.975 4.027 4.077 4.137 4.287 4.477 4.567 4.737 4.907 5.127 5.277
916.265 5.317 5.657 5.917 6.207 6.617 6.877 7.277 7.647 8.087 8.607
935.555 8.987 9.257 9.447 9.577 9.547 9.447 9.307 9.267 9.277 9.057
954.844 8.787 8.637 8.597 8.467 8.037 7.617 7.567 7.517 7.477 7.547
974.134 7.597 7.727 7.857 8.137 8.607 9.037 9.617 10.497 11.587 12.887
993.424 14.397 16.267 18.617 21.497 24.647 28.247 32.457 37.147 41.947 46.017
1012.714 49.117 50.607 50.117 47.777 43.667 38.837 33.887 29.487 25.997 24.137
1032.003 23.987 24.307 24.857 25.787 26.927 27.857 27.807 26.987 25.927 24.017
1051.293 21.947 20.667 19.617 18.797 18.467 18.647 19.447 20.267 21.177 22.697
1070.583 24.727 26.697 29.177 32.007 35.217 38.957 42.407 46.207 50.727 55.337
1089.873 59.807 64.497 69.127 73.627 78.627 83.837 89.097 94.747 100.437 105.307
1109.163 109.577 113.367 116.167 117.977 118.737 118.107 116.047 113.867 111.577 108.267
1128.452 105.217 102.707 99.637 96.017 92.207 87.947 83.157 78.207 73.007 66.807
1147.742 60.477 54.317 48.287 42.757 37.867 33.787 30.207 27.427 24.977 22.987
1167.032 21.677 20.877 20.427 20.497 21.327 22.027 22.797 23.697 24.457 25.127
1186.322 25.277 25.277 24.967 24.707 24.737 24.317 23.917 24.097 24.567 25.947
1205.611 27.577 29.597 32.557 35.667 39.947 45.587 52.037 59.197 67.397 75.747
1224.901 83.917 91.407 97.507 102.177 105.087 106.247 105.287 102.487 98.287 93.037
1244.191 86.747 79.697 72.647 65.387 58.187 52.047 46.637 42.117 38.567 35.447
1263.481 32.707 30.417 28.537 26.707 24.997 23.447 22.037 20.797 19.917 19.277
1282.771 18.757 18.317 18.087 18.137 18.147 18.307 18.627 19.007 19.707 20.457
1302.060 21.407 22.777 24.487 26.727 29.517 32.937 37.277 42.567 48.917 56.407
1321.350 64.997 74.627 84.597 94.187 102.587 108.647 111.557 110.637 105.757 97.497
1340.640 86.757 74.907 62.997 52.057 42.787 35.267 29.407 24.957 21.587 18.967
1359.930 16.927 15.387 14.257 13.447 12.777 12.197 11.847 11.647 11.557 11.617
1379.219 11.797 12.087 12.497 13.137 13.947 15.007 16.357 18.067 20.297 23.087
1398.509 26.637 31.097 36.477 42.917 50.227 57.917 65.447 72.227 77.357 80.457
1417.799 81.447 80.387 77.677 73.787 69.217 64.787 60.767 57.017 53.457 50.087
1437.089 46.777 43.677 40.877 38.707 37.757 38.217 40.227 43.397 47.157 51.027
1456.378 54.607 57.647 59.787 60.757 60.607 59.557 57.847 55.847 53.887 52.007
1475.668 50.367 49.347 49.417 51.017 54.027 58.237 63.467 69.387 75.377 80.567
1494.958 84.377 86.407 86.037 83.287 78.507 72.057 64.427 56.347 48.537 41.367
1514.248 35.197 30.007 25.827 22.697 20.237 18.337 16.957 15.927 15.147 14.587
1533.538 14.187 13.887 13.727 13.687 13.727 13.767 13.937 14.327 14.777 15.477
1552.827 16.347 17.307 18.597 20.297 22.327 24.697 27.467 30.877 34.957 39.387
1572.117 44.417 49.937 55.587 60.907 65.467 68.997 70.957 71.317 69.777 66.347
1591.407 61.497 55.687 49.517 43.627 38.237 33.507 29.477 25.967 22.947 20.287
1610.697 17.887 15.717 13.847 12.277 10.927 9.897 9.027 8.277 7.737 7.287
1629.986 6.897 6.557 6.307 6.057 5.877 5.727 5.487 5.357 5.227 5.037
1649.276 4.917 4.887 4.847 4.697 4.527 4.457 4.407 4.327 4.297 4.277
1668.566 4.167 4.027 3.927 3.777 3.707 3.647 3.667 3.647 3.527 3.407
1687.856 3.297 3.247 3.227 3.157 3.157 3.177 3.137 3.077 3.067 3.067
1707.146 3.027 3.027 2.957 2.927 2.937 2.927 2.897 2.757 2.617 2.537
1726.435 2.517 2.467 2.367 2.337 2.357 2.297 2.257 2.237 2.187 2.107
1745.725 2.047 2.047 2.057 1.987 1.977 1.987 1.927 1.877 1.877 1.867
1765.015 1.817 1.837 1.847 1.817 1.787 1.767 1.747 1.707 1.707 1.737
1784.305 1.737 1.757 1.767 1.727 1.687 1.697 1.717 1.657 1.587 1.577
1803.594 1.517 1.497 1.537 1.457 1.3525 1.3387 1.3338 1.258 1.2392 1.2657
1822.884 1.2523 1.2892 1.2725 1.2513 1.286 1.3051 1.2789 1.2744 1.3 1.3119
1842.174 1.2846 1.2629 1.2448 1.2453 1.2854 1.3258 1.3393 1.3628 1.3767 1.3356
1861.464 1.3594 1.364 1.3392 1.3139 1.3097 1.3971 1.4173 1.398 1.3694 1.3285
1880.754 1.3631 1.4035 1.3877 1.3564 1.3505 1.329 1.3504 1.36 1.3379 1.3428
1900.043 1.3204 1.2701 1.2231 1.1839 1.1973 1.2175 1.2085 1.2287 1.2288 1.1972
1919.333 1.2184 1.2539 1.2618 1.3641 1.4262 1.4237 1.4225 1.477 1.577 1.597
1938.623 1.607 1.667 1.747 1.847 1.927 2.017 2.117 2.177 2.317 2.387
1957.913 2.437 2.517 2.557 2.687 2.817 2.857 2.917 3.037 3.097 3.137
1977.202 3.237 3.307 3.327 3.327 3.347 3.407 3.407 3.357 3.257 3.207
1996.492 3.237 3.267 3.307 3.367 3.387 3.437 3.567 3.667 3.707 3.737
2015.782 3.817 3.847 3.817 3.807 3.737 3.647 3.527 3.287 3.057 2.897
2035.072 2.697 2.567 2.487 2.357 2.257 2.247 2.227 2.177 2.147 2.137
2054.362 2.167 2.197 2.187 2.187 2.197 2.177 2.227 2.277 2.257 2.287
2073.651 2.287 2.267 2.187 2.147 2.197 2.097 2.027 2.027 2.007 1.927
2092.941 1.897 1.897 1.827 1.787 1.797 1.807 1.797 1.777 1.717 1.647
2112.231 1.587 1.557 1.547 1.567 1.577 1.567 1.537 1.487 1.4308 1.3813
2131.521 1.4224 1.4184 1.457 1.487 1.507 1.557 1.487 1.467 1.487 1.487
2150.810 1.557 1.627 1.597 1.607 1.657 1.677 1.697 1.677 1.657 1.657
2170.100 1.677 1.687 1.657 1.657 1.617 1.527 1.537 1.547 1.517 1.517
2189.390 1.527 1.547 1.527 1.487 1.4311 1.4299 1.4065 1.399 1.3544 1.2838
2208.680 1.3178 1.3154 1.345 1.3794 1.3477 1.2895 1.3048 1.363 1.3771 1.4263
2227.970 1.477 1.517 1.497 1.507 1.587 1.687 1.767 1.777 1.757 1.707
2247.259 1.677 1.757 1.787 1.747 1.777 1.777 1.767 1.737 1.707 1.717
2266.549 1.757 1.757 1.737 1.677 1.597 1.527 1.507 1.497 1.405 1.296
2285.839 1.2776 1.2606 1.179 1.1775 1.1053 0.9908 0.9609 0.8842 0.7971 0.7806
2305.129 0.8177 0.8417 0.7774 0.7205 0.6778 0.6805 0.6924 0.6545 0.6599 0.71
2324.418 0.7411 0.6973 0.7563 0.805 0.7581 0.6943 0.6402 0.6905 0.7578 0.7485
2343.708 0.7551 0.8279 0.8231 0.7825 0.7906 0.8288 0.9077 0.9677 1.0212 0.9929
2362.998 0.9212 0.9607 0.9429 0.9462 1.0173 1.0354 1.0994 1.1046 1.073 1.1001
2382.288 1.0781 1.1148 1.1615 1.138 1.1343 1.0878 1.0748 1.1019 1.0933 1.0304
2401.578 1.0825 1.1245 1.0852 1.1034 1.1334 1.1187 1.0269 1.036 1.1307 1.1658
2420.867 1.1476 1.1694 1.1697 1.186 1.2389 1.2622 1.2711 1.2559 1.2388 1.2821
2440.157 1.2427 1.2068 1.2882 1.2748 1.2268 1.3366 1.437 1.3951 1.3479 1.3699
2459.447 1.3958 1.3229 1.2798 1.3602 1.3655 1.3199 1.3287 1.3289 1.3206 1.2802
2478.737 1.2296 1.2654 1.3219 1.2924 1.2348 1.197 1.2352 1.2693 1.2683 1.2578
2498.026 1.2572 1.2161 1.1426 1.0998 1.1259 1.1711 1.1384 1.119 1.1179 1.1533
2517.316 1.1841 1.159 1.1362 1.129 1.1559 1.192 1.2461 1.249 1.195 1.2615
2536.606 1.3147 1.338 1.391 1.4155 1.467 1.537 1.597 1.727 1.847 1.877
2555.896 1.857 1.787 1.817 1.967 2.017 1.927 1.907 1.967 1.957 1.827
2575.186 1.847 1.807 1.597 1.617 1.657 1.657 1.667 1.637 1.667 1.597
2594.475 1.597 1.697 1.617 1.617 1.667 1.557 1.527 1.517 1.517 1.527
2613.765 1.4323 1.3874 1.431 1.477 1.487 1.517 1.457 1.3604 1.3013 1.4028
2633.055 1.477 1.4102 1.487 1.517 1.487 1.467 1.547 1.647 1.597 1.557
2652.345 1.617 1.677 1.567 1.4074 1.3227 1.3387 1.3668 1.3979 1.4085 1.3842
2671.634 1.3127 1.2972 1.3204 1.2872 1.3119 1.3145 1.2833 1.3773 1.447 1.4256
2690.924 1.447 1.3979 1.467 1.517 1.477 1.527 1.577 1.687 1.827 1.867
2710.214 1.787 1.747 1.797 1.777 1.817 1.917 1.857 1.807 1.827 1.827
2729.504 1.847 1.957 2.027 1.937 1.907 1.927 1.907 2.007 2.007 1.887
2748.794 1.847 1.947 1.967 1.987 1.987 1.997 2.057 2.017 2.017 2.117
2768.083 2.227 2.257 2.267 2.317 2.397 2.547 2.677 2.707 2.677 2.777
2787.373 2.937 3.087 3.197 3.337 3.587 3.827 3.977 4.187 4.567 4.917
2806.663 5.227 5.647 6.167 6.657 7.227 8.047 8.897 9.907 11.237 12.827
2825.953 14.837 17.337 20.057 23.037 26.297 29.277 31.647 33.247 33.877 33.607
2845.242 32.587 31.017 28.947 26.717 24.467 22.417 20.777 19.487 18.577 17.937
2864.532 17.687 17.797 17.937 18.197 18.647 19.147 19.617 19.967 20.327 20.717
2883.822 21.097 21.407 21.687 21.907 22.197 22.407 22.567 22.667 22.617 22.647
2903.112 22.757 22.897 23.217 23.717 24.317 25.057 25.847 26.627 27.447 28.367
2922.401 29.417 30.837 32.377 34.307 36.867 40.057 44.237 49.177 54.557 60.037
2941.691 65.047 68.797 70.797 71.197 70.027 67.327 63.697 59.807 56.217 53.347
2960.981 51.157 49.387 47.707 45.937 44.037 41.877 39.477 37.247 35.357 33.837
2980.271 32.577 31.757 31.347 31.127 31.527 32.527 33.847 35.477 37.327 39.377
2999.561 41.567 43.347 44.287 44.097 42.707 40.537 37.427 33.677 29.827 25.927
3018.850 22.447 19.767 17.667 15.847 14.497 13.537 12.657 11.957 11.397 10.907
3038.140 10.417 10.097 9.867 9.637 9.477 9.387 9.327 9.177 9.057 9.037
3057.430 9.097 9.037 8.997 9.027 8.937 8.757 8.527 8.377 8.207 7.987
3076.720 7.637 7.347 6.997 6.467 6.047 5.817 5.637 5.437 5.047 4.687
3096.009 4.477 4.297 4.157 3.947 3.827 3.777 3.527 3.307 3.287 3.117
3115.299 2.917 2.827 2.687 2.627 2.627 2.387 2.297 2.327 2.237 2.097
3134.589 1.987 1.997 1.887 1.857 1.817 1.657 1.537 1.557 1.597 1.497
3153.879 1.447 1.3332 1.1911 1.227 1.288 1.2294 1.1546 1.1155 1.0762 1.1156
3173.169 1.0831 0.9973 1.0373 1.029 1.0483 1.1453 1.1802 1.1173 1.0175 0.9901
3192.458 0.9592 0.9523 0.8545 0.7493 0.6738 0.716 0.8011 0.7948 0.8281 0.7733
3211.748 0.6702 0.5548 0.6055 0.5945 0.45794 0.50879 0.6151 0.5961 0.5549 0.6275
3231.038 0.7237 0.8304 0.8167 0.6438 0.47556 0.47326 0.6703 0.7066 0.6089 0.5875
3250.328 0.49593 0.4187 0.3678 0.3384 0.4136 0.45684 0.461 0.4 0.3475 0.48485
3269.617 0.5899 0.46511 0.443346 0.47762 0.53349 0.46744 0.327 0.47292 0.5565 0.3462
3288.907 0.309 0.4207 0.4192 0.4123 0.46721 0.46755 0.43662 0.333 0.284 0.3609
3308.197 0.3523 0.3433 0.298 0.401 0.43417 0.226 0.19 0.3482 0.4646 0.47116
3327.487 0.49596 0.52929 0.322 0.211 0.303 0.3681 0.3766 0.4248 0.4165 0.3917
3346.777 0.4651 0.5543 0.5721 0.4091 0.303 0.4035 0.256 0.224 0.3606 0.28
3366.066 0.233 0.258 0.19 0.252 0.3784 0.3375 0.3643 0.4175 0.442298 0.4188
3385.356 0.45193 0.44728 0.318 0.204 0.278 0.3908 0.47886 0.48985 0.46958 0.45643
3404.646 0.51935 0.53052 0.311 0.258 0.165 0 0.059 0.17 0.263 0.3646
3423.936 0.4094 0.45167 0.51153 0.45956 0.3691 0.4633 0.46944 0.4239 0.45047 0.3889
3443.225 0.3539 0.207 0.177 0.3717 0.43504 0.281 0.218 0.259 0.296 0.318
3462.515 0.305 0.276 0.322 0.3858 0.3491 0.284 0.175 0.24 0.3633 0.3499
3481.805 0.3614 0.43483 0.440966 0.47175 0.3863 0.283 0.293 0.285 0.3802 0.4042
3501.095 0.4219 0.51224 0.4211 0.254 0.047 0.042 0.271 0.3382 0.3607 0.4121
3520.385 0.437656 0.42788 0.4041 0.49248 0.49812 0.325 0.268 0.3608 0.51254 0.4141
3539.674 0.306 0.3502 0.4147 0.45221 0.3539 0.251 0.261 0.278 0.287 0.3719
3558.964 0.3419 0.52812 0.5756 0.49357 0.4007 0.304 0.3829 0.33 0.3445 0.3414
3578.254 0.3667 0.3659 0.3415 0.4113 0.47928 0.5556 0.45407 0.3918 0.5298 0.48855
3597.544 0.445354 0.6211 0.6434 0.5872 0.5473 0.3813 0.332 0.325 0.3392 0.47869
3616.833 0.4543 0.3521 0.4052 0.3868 0.283 0.282 0.284 0.3495 0.4268 0.45197
3636.123 0.314 0.153 0.29 0.4106 0.3913 0.4146 0.45231 0.318 0.3618 0.574
3655.413 0.5528 0.4342 0.34 0.45179 0.5745 0.444533 0.336 0.327 0.43324 0.5849
3674.703 0.5765 0.6213 0.6153 0.49907 0.3509 0.251 0.407 0.50262 0.4929 0.52397
3693.993 0.5653 0.50918 0.3718 0.336 0.308 0.3846 0.48775 0.50617 0.5721 0.46286
3713.282 0.321 0.4062 0.482 0.48945 0.52558 0.51974 0.5608 0.5717 0.4265 0.47011
3732.572 0.5651 0.4258 0.4239 0.46646 0.4275 0.42713 0.45034 0.5547 0.5894 0.6331
3751.862 0.6208 0.53567 0.3932 0.3833 0.5663 0.53129 0.49958 0.45079 0.301 0.42997
3771.152 0.51373 0.411 0.3942 0.5442 0.5577 0.44801 0.50557 0.50838 0.438236 0.4236
3790.441 0.6082 0.6899 0.5059 0.53164 0.49348 0.44892 0.574 0.48714 0.47231 0.6546
3809.731 0.6209 0.42972 0.42747 0.50776 0.6039 0.518 0.437855 0.4686 0.3826 0.478
3829.021 0.615 0.47583 0.50108 0.71 0.6838 0.5373 0.4079 0.4204 0.49837 0.6414
3848.311 0.7579 0.5977 0.6158 0.6892 0.605 0.6593 0.6137 0.50339 0.49691 0.4672
3867.601 0.50406 0.6591 0.6775 0.6417 0.5557 0.43381 0.4029 0.5482 0.7357 0.7241
3886.890 0.6822 0.7214 0.6816 0.6729 0.8077 0.9635 0.9555 0.8937 0.8949 0.7602
3906.180 0.7431 0.8068 0.8561 0.8773 0.7627 0.656 0.49058 0.4709 0.7301 0.701
3925.470 0.51332 0.6138 0.6524 0.4192 0.4056 0.6049 0.6737 0.6343 0.6519 0.683
3944.760 0.8085 0.8387 0.6808 0.8579 0.8802 0.7952 0.9682 0.9899 0.9123 0.8874
3964.049 0.8792 0.9687 0.9578 0.8698 0.8407 0.8342 0.8325 0.8005 0.8923 0.8906
3983.339 0.8133 0.8037 0.771 0.8771 0.9311 0.8558 0.9031 0.8926 0.8374 0.88
##END=
