##TITLE=2,5-Dichloro-4-nitroacetanilide
##JCAMP-DX=4.24
##DATA TYPE=INFRARED SPECTRUM
##ORIGIN=EPA-IR VAPOR PHASE LIBRARY
##OWNER=SRD/NIST
Collection (C) 2018 copyright by the U.S. Secretary of Commerce
on behalf of the United States of America. All rights reserved.
##CAS REGISTRY NO=38411-17-5
##MOLFORM=C 8 H 6 Cl 2 N 2 O 3
##$NIST SOURCE=MSDC-IR
##STATE=gas
##XUNITS=1/CM
##YUNITS=ABSORBANCE
##XFACTOR=1.
##YFACTOR=0.001
##DELTAX=1.92898
##FIRSTX=549.8
##LASTX=4000.7
##FIRSTY=12.4
##MAXX=4000.7
##MINX=549.759
##MAXY=0.06694
##MINY=0
##NPOINTS=1790
##XYDATA=(X++(Y..Y))
549.759 12.4 12.57 11.6 10.31 9.58 9.39 7.75 6.93 6.48 5.15
569.049 4.28 4.51 4.84 3.93 3.08 3.5 3.91 3.35 3.28 3.74
588.339 3.76 4.2 3.76 3.31 4.07 4.34 3.86 3.78 3.49 2.95
607.628 2.81 3.05 3.53 3.49 3.54 3.42 3.94 4.58 3.66 3.24
626.918 3.26 3.26 3.39 2.64 2.71 2.79 2.71 3 2.86 2.79
646.208 2.78 2.85 2.58 2.58 3.56 4.01 3.71 3.53 3.89 4
665.498 4.33 5.48 6.59 7.88 8.68 9.11 8.76 7.77 7.31 5.88
684.787 4.26 3.59 3.19 3.15 2.67 2.46 2.5 2.07 2.22 2.51
704.077 1.8723 1.6443 1.9952 1.9392 2.22 2.52 2.31 2.2 2.38 2.69
723.367 2.67 2.77 3.08 2.61 2.75 2.79 2.67 3.28 3.55 3.29
742.657 3.35 3.97 4.65 5.86 6.68 7.17 7.89 8.74 8.59 7.8
761.947 7.15 6.16 4.88 3.73 3.58 3.4 2.86 2.61 2.39 1.9851
781.236 1.7593 2.26 1.8694 1.7137 2.22 2.26 2.41 2.11 1.8355 2.28
800.526 2.4 1.8341 1.8218 1.7603 1.7222 1.7359 1.7753 1.5774 1.3275 1.6886
819.816 2.18 2.47 2.99 3.11 2.28 3.03 3.92 4.2 4.83 5.57
839.106 7.44 8.93 8.95 9.36 9.4 8.75 7.96 6.6 5.63 4.5
858.395 3.22 3.01 2.99 2.64 2.59 2.2 2.51 3.23 3.58 3.61
877.685 3.67 4.77 5.54 5.76 7.07 8.76 9.09 9.02 8.94 8.59
896.975 8.43 7.64 6.82 6.06 4.8 3.87 2.97 2.69 2.9 2.53
916.265 2.21 2.36 2.56 2.39 2.55 2.42 2.04 2.58 2.83 2.62
935.555 2.39 2.25 2.64 2.62 2.08 2.05 2.22 1.8816 2.2 2.5
954.844 2.17 2.48 3.08 2.9 2.55 3.09 3.3 2.68 2.59 3.55
974.134 3.96 4.5 4.66 4.52 4.94 5.12 5.44 6.07 6.98 7.62
993.424 8.4 8.61 8.47 8.87 9.03 9.38 9.22 7.77 6.49 5.79
1012.714 5.5 5.06 5.14 5.51 4.61 4.02 4 3.34 2.66 3.26
1032.003 3.4 2.98 3.43 3.28 3.43 3.89 4.23 4.76 4.46 4.12
1051.293 4.06 4.84 5.7 5.84 5.73 5.72 6.4 7.02 8.36 9.99
1070.583 12.6 14.34 16.73 21.29 24.25 24.78 25.62 25.14 22.42 19.84
1089.873 16.21 12.92 10.54 8.46 5.94 5.03 6.04 5.23 5.09 4.78
1109.163 3.75 3.66 3.18 3.04 3.73 3.97 2.88 2.44 2.52 2.95
1128.452 3.89 4.23 4.7 4.61 2.82 2.77 3.35 3.16 2.18 2.8
1147.742 4.02 2.68 2.89 3.34 3.45 4.13 4.43 4.75 4.75 4.49
1167.032 4.35 4.76 4.99 5.49 6.07 6.59 7.47 7.22 7.13 7.72
1186.322 8.98 10.4 11.14 11.63 13.08 14.18 15 17.18 17.73 18.33
1205.611 22.16 26.51 30.47 34.57 38.97 43.12 45.78 45.87 43.48 40.65
1224.901 35.59 28.49 24.01 21.56 18.83 17.58 17.31 18.14 19.75 20.72
1244.191 20.93 20.01 18.23 16.47 15.51 13.64 11.73 10.77 9.62 9.23
1263.481 9.69 9.54 8.84 9.2 9.81 10.8 12.12 12.7 12.77 13.14
1282.771 13.81 13.27 11.85 10.6 9.36 8.59 8.17 7.66 7.25 7.2
1302.060 7.43 7.56 7.54 7.66 8.06 8.41 8.73 9.44 10.41 11.35
1321.350 12.73 14.54 16.81 19.82 23.48 27.99 33.23 39.26 45.93 52.68
1340.640 58.93 63.92 66.84 66.94 64.76 60.55 54.48 48.2 42.65 38.19
1359.930 35.48 34.38 34.63 35.8 37.43 39.34 40.6 40.92 40.27 38.54
1379.219 35.7 32.21 28.31 24.15 20.68 17.79 15.23 13.44 12.02 10.98
1398.509 10.35 9.73 9.3 8.85 8.45 8.31 8.42 8.41 8.21 8.07
1417.799 7.94 7.92 8.02 8.01 8.15 8.48 8.69 9 9.46 10.08
1437.089 10.83 11.86 13.34 14.8 16.04 17.38 18.31 18.89 19.3 19.03
1456.378 18.26 17.41 16.86 16.37 16.04 16.16 16.91 17.89 19.24 20.98
1475.668 23.11 25.75 28.79 32.5 36.54 40.97 45.91 50.77 55.16 59.07
1494.958 62.38 64.5 65.52 65.98 65.19 63.45 60.72 57.37 53.91 50.26
1514.248 46.63 42.96 39.42 36.42 33.84 31.86 30.45 29.37 28.81 29.16
1533.538 29.96 30.77 32.02 34.05 36.5 39.22 42.53 45.88 48.79 50.9
1552.827 51.82 51.76 50.28 48.18 46.71 45.38 44.65 45.63 47.77 50.77
1572.117 54.06 57.1 59.61 60.9 60.52 58.41 55.14 50.61 45.45 40.39
1591.407 35.51 31.05 27.08 23.49 20.16 17.09 14.16 11.79 10.23 8.83
1610.697 7.5 6.61 6.31 5.96 5.33 4.86 4.84 4.59 4.28 4.57
1629.986 4.53 4.12 3.82 3.67 3.58 3.47 3.29 3.05 3 3.05
1649.276 3.1 2.98 2.68 2.52 2.5 2.55 2.67 2.79 2.6 2.59
1668.566 2.66 2.7 2.89 2.98 3.14 3.3 3.44 3.67 4.01 4.22
1687.856 4.19 4.28 4.47 4.51 4.53 4.77 5.02 5.11 5.36 5.58
1707.146 5.88 6.3 6.76 6.86 6.77 7.18 7.67 8.34 9.07 10.09
1726.435 12.01 14.66 18.37 23.04 28.92 35.14 40.32 43.38 43.66 42.57
1745.725 39.82 34.21 27.15 20.79 16.38 13.37 11.19 9.95 9.2 8.57
1765.015 8.29 8.21 7.79 7.34 6.97 6.54 6.13 5.66 5.16 4.71
1784.305 4.18 3.92 4.01 4.02 3.78 3.75 3.92 3.7 3.31 2.97
1803.594 2.74 2.6 2.51 2.47 2.27 2.2 2.12 2.04 2.08 2.05
1822.884 1.8352 1.8561 2.02 1.8803 1.7882 1.8281 1.8644 1.8067 1.7203 1.7914
1842.174 1.7858 1.7418 1.755 1.7544 1.8199 1.6306 1.4671 1.647 1.6628 1.6491
1861.464 1.7057 1.6817 1.6175 1.4809 1.5532 1.5538 1.5203 1.5261 1.4742 1.5091
1880.754 1.5385 1.5437 1.4943 1.4509 1.3966 1.3629 1.3088 1.3623 1.5252 1.4253
1900.043 1.3788 1.3814 1.2919 1.23 1.2999 1.3913 1.46 1.5693 1.5214 1.358
1919.333 1.3124 1.3532 1.1709 1.02456 1.1543 1.3625 1.3937 1.4331 1.3662 1.2519
1938.623 1.3335 1.3795 1.2324 1.1247 1.2689 1.3894 1.3507 1.2461 1.193 1.1551
1957.913 1.1915 1.1705 1.04016 1.04451 1.1788 1.1884 1.1351 1.1964 1.11853 1.08449
1977.202 1.1682 1.1507 1.04509 1.02806 1.10547 1.11481 1.09424 0.9671 0.929 0.9454
1996.492 1.06993 1.10657 1.02551 1.03353 1.10622 1.296 1.2445 0.9646 1.0874 1.3508
2015.782 1.2042 1.1971 1.2006 1.10932 1.09264 1.07617 1.08615 1.05316 0.9513 0.826
2035.072 1.07233 1.1752 1.05891 0.844 0.788 1.1913 1.1896 1.07321 1.2456 1.266
2054.362 1.02706 0.82 0.637 0.731 0.9443 0.887 0.76 0.811 0.912 1.01354
2073.651 0.883 0.781 0.9579 0.9573 1.0001 1.078 1.1364 1.05545 1.03746 0.9829
2092.941 1.05816 1.05162 0.9483 1.0089 0.9314 0.872 0.828 0.84 0.882 0.9595
2112.231 0.9641 1.02051 1.1894 1.2237 1.1793 1.09275 1.0042 1.05686 1.184 1.1574
2131.521 1.09704 1.06167 1.02061 1.1811 1.2821 1.2001 1.06476 1.04661 1.1391 1.1507
2150.810 1.11001 1.03069 1.08813 1.2352 1.3053 1.2179 1.1555 1.2306 1.25 1.2742
2170.100 1.03765 0.848 0.9347 1.1631 1.10859 0.909 1.0081 1.02447 1.10024 1.1545
2189.390 0.835 0.787 1.2479 1.5392 1.2721 1.2283 1.6406 1.5541 1.3227 1.2411
2208.680 1.2451 1.2419 1.11985 1.07778 1.1386 1.161 1.2269 1.3583 1.1493 0.9768
2227.970 1.1285 1.1407 1.0999 1.1721 1.2207 1.09566 1.05383 1.03472 1.05804 0.9504
2247.259 0.941 1.02525 0.9388 1.1394 1.1984 1.0069 0.847 0.9572 1.1333 1.2297
2266.549 0.9919 0.9521 1.0372 0.814 0.9717 0.9947 0.9342 0.9542 0.884 0.872
2285.839 0.907 0.9552 0.9888 0.9886 0.9734 1.172 1.3749 1.2301 0.91 1.03921
2305.129 1.09955 1.1696 1.1749 0.833 0.893 1.07592 1.2496 1.3821 1.3303 1.02297
2324.418 0.9463 1.1817 1.4237 1.2823 1.05439 1.1482 1.1409 0.9689 1.1351 1.3886
2343.708 1.1642 1.1521 1.1639 0.9208 1.02879 1.1552 1.09393 1.04506 1.3172 1.495
2362.998 1.08652 1.1491 1.3893 1.1877 0.9668 0.9937 1.11904 0.88 0.77 0.886
2382.288 0.773 0.816 1.03223 1.0202 1.02616 1.0776 0.876 0.751 1.04613 1.2816
2401.578 1.2003 1.1226 0.878 0.781 1.04473 1.225 1.2954 1.3135 1.217 1.1281
2420.867 1.1516 1.07865 1.149 1.2978 1.345 1.1921 1.04836 1.2627 1.2829 1.1961
2440.157 1.1609 1.06022 1.1269 1.1796 1.2391 1.2045 1.1445 1.3751 1.4529 1.1663
2459.447 0.859 0.92 0.9853 1.0012 1.2309 1.2167 1.01259 0.901 0.806 0.956
2478.737 1.008 0.928 1.06761 1.04489 0.89 1.1703 1.302 1.05476 0.9203 1.0001
2498.026 1.2234 1.2395 1.2316 1.2435 1.155 1.3238 1.3815 1.3864 1.2633 1.10767
2517.316 1.3787 1.438 1.3266 1.4329 1.4726 1.4686 1.7437 1.6534 1.2244 1.09681
2536.606 1.14 1.3638 1.4346 1.3967 1.3978 1.2727 1.2515 1.3449 1.3096 1.07594
2555.896 0.885 0.859 1.05058 1.08988 1.11973 1.2861 1.3738 1.31 1.265 1.4077
2575.186 1.5103 1.5095 1.3697 1.2477 1.11556 1.1587 1.4923 1.5073 1.3591 1.1971
2594.475 1.2093 1.1903 1.3101 1.547 1.4511 1.291 1.2882 1.2557 1.1573 1.2433
2613.765 1.151 1.10996 1.2052 1.1796 1.2436 1.3079 1.297 1.3171 1.2257 1.1868
2633.055 1.1207 0.9699 1.1338 1.07532 0.714 0.798 0.849 0.892 0.698 0.738
2652.345 1.06936 0.9674 1.03953 1.1634 1.1372 1.1513 1.1976 1.1838 1.02563 1.0037
2671.634 1.3915 1.10072 0.783 0.824 0.88 1.2647 1.3712 1.2524 1.1512 1.195
2690.924 1.1738 1.2214 1.3262 1.11091 0.9 1.11368 1.3593 1.266 1.4451 1.6671
2710.214 1.4651 1.5552 1.7812 1.7716 1.6182 1.3861 0.9406 0.908 1.3257 1.2513
2729.504 1.1791 1.2778 1.2607 1.08587 1.05002 1.3171 1.3742 1.3501 1.1311 0.674
2748.794 0.63 0.717 0.847 0.9554 1.0004 1.3933 1.496 1.3556 1.3235 0.917
2768.083 0.9306 1.3111 1.1347 1.08161 1.09331 0.9625 1.1841 1.04289 0.829 1.3214
2787.373 1.4739 1.2879 1.2592 1.2954 1.3444 1.4236 1.525 1.3819 1.2085 1.2505
2806.663 1.07696 1.2185 1.5705 1.6024 1.3947 0.9425 1.0013 1.4118 1.4043 1.2319
2825.953 1.2669 1.5047 1.6953 1.4123 1.07897 1.0008 1.2619 1.5256 1.3874 1.3331
2845.242 1.565 1.7486 1.6435 1.629 1.5116 1.2997 1.7082 2.0109 1.6625 1.3267
2864.532 1.1747 1.3573 1.537 1.268 1.3801 2.04 2.14 1.6782 1.5987 1.4229
2883.822 1.2377 1.636 2.0017 2.05 2.0043 2.0063 2.13 1.723 1.5334 2.0041
2903.112 2.07 1.8427 1.5784 1.4065 1.6703 1.8508 1.5734 1.5562 1.7688 1.5121
2922.401 1.3091 1.7612 1.8398 1.4829 1.7116 1.9327 2.29 2.54 2.33 1.9568
2941.691 1.8603 2.0012 2.11 1.9262 1.7333 2.17 2.0002 1.5602 1.409 1.39
2960.981 1.5753 1.6546 1.7904 1.538 1.572 1.9491 1.6548 1.163 0.882 1.2527
2980.271 1.4479 1.1884 1.1782 1.3116 1.2107 1.1746 1.02762 0.85 1.1374 1.2193
2999.561 1.3486 1.6233 1.8463 1.8339 1.5959 1.6716 1.7546 1.6461 1.539 1.3889
3018.850 1.3375 1.7018 1.9017 1.6884 1.7728 1.9026 1.457 1.3193 1.8895 1.8456
3038.140 1.672 1.8936 1.842 1.6138 1.6871 1.8828 1.9543 1.5364 0.84 1.2775
3057.430 1.999 2.28 2.1 1.8135 1.7075 1.6367 1.8526 1.7767 1.9125 1.982
3076.720 1.9567 2.16 1.9609 1.5536 1.5327 1.6314 1.8378 2.02 1.9144 2.09
3096.009 2.54 2.6 2.18 2.0028 2.46 2.8 3.16 3.39 3.4 4.12
3115.299 4.36 4.23 4.39 4.33 4.41 4.31 3.65 3.22 2.92 2.47
3134.589 1.9039 1.6563 1.7604 2.07 1.8201 1.6337 1.9855 1.6864 1.4754 1.4964
3153.879 1.10944 0.687 0.617 1.4304 1.2211 0.712 1.06742 1.1558 1.4556 1.5651
3173.169 1.9512 1.7299 0.9649 0.9697 1.4251 1.3736 1.2346 0.911 0.268 0.394
3192.458 0.793 0.908 0.844 0.787 0.723 0.895 1.1583 1.1472 1.1381 1.4962
3211.748 0.9354 0.125 0.73 1.10503 0.544 0.813 1.07966 0.9614 1.7114 1.615
3231.038 1.7354 1.7832 0.9272 0.71 0.917 1.5967 1.6008 0.844 0.899 0.832
3250.328 0.513 0.723 1.03283 1.04842 0.745 0.652 0.788 1.1938 1.232 0.716
3269.617 0.881 1.0258 0.756 0.559 0.829 1.11708 1.138 1.07358 0.82 0.5
3288.907 0.367 0.835 0.858 0.493 0.484 1.1602 1.5635 1.383 1.4872 1.3127
3308.197 1.08445 1.2028 1.4272 1.3749 0.687 0.566 0.568 0.588 0.832 1.05272
3327.487 1.2143 1.11857 0.763 0.753 0.9963 0.669 0.831 1.2531 1.4162 1.4344
3346.777 1.2292 1.4462 1.09709 0.799 1.6011 1.3993 1.0299 0.908 0.787 0.813
3366.066 0.72 0.622 0.345 0.595 0.9863 1.3678 1.1929 0.888 1.193 0.898
3385.356 0.727 1.06743 1.4027 1.5327 1.3086 1.4767 1.7084 1.6375 1.9856 1.9813
3404.646 1.7888 1.7912 2.15 2.73 2.61 2.44 2.49 2.69 3.36 4.18
3423.936 4.74 5.19 5.76 6.96 8.55 10.34 12.73 13.99 14.28 14.28
3443.225 13.09 11.37 9.39 7.27 5.48 4.36 3.67 2.87 2.38 2.31
3462.515 2.23 1.9029 1.7459 1.9703 1.8474 1.4906 1.5299 1.559 1.5148 1.2902
3481.805 0.9916 1.0425 1.11662 1.11496 0.774 0.511 0.759 1.08178 1.4068 1.2256
3501.095 0.54 0.465 0.828 1.19 1.2502 1.2873 1.05478 0.749 0.633 1.5192
3520.385 1.569 0.641 0.729 1.05241 1 1.04668 1.09454 0.851 1.1941 1.11894
3539.674 1.07046 1.007 0.901 0.721 0.472 0.636 0.828 0.9807 1.2194 1.477
3558.964 1.269 1.1378 0.9626 0.768 1.1216 1.0661 1.11784 1.1408 0.726 0.838
3578.254 0.9276 1.03401 1.2737 1.1988 1.1618 0.874 0.794 1.04576 1.02517 0.534
3597.544 0.27 0.331 0 0.063 0.118 0.426 0.793 0.87 1.16 0.754
3616.833 0.518 0.501 0.68 0.887 0.864 0.827 0.8 0.9373 0.717 0.829
3636.123 0.769 0.62 0.927 1.1576 1.1585 1.4547 1.4649 0.86 0.683 1.0066
3655.413 1.4759 1.1228 0.736 0.722 0.71 0.613 0.564 1.1306 1.01106 0.909
3674.703 1.3464 1.4217 1.3653 1.10672 0.9965 1.2863 1.2727 0.91 0.855 0.843
3693.993 0.441 0.468 0.514 0.59 1.053 0.863 0.769 1.07152 1.4427 1.4037
3713.282 0.457 0.315 0.885 1.1787 1.09751 0.42 0.577 1.7022 1.7632 0.67
3732.572 0.41 1.06945 1.4368 1.3946 1.10182 1.05491 1.2821 1.5157 1.05991 0.726
3751.862 1.1649 1.2699 1.2138 1.2571 1.2553 1.1485 1.3969 1.3191 1.1501 1.10192
3771.152 1.04969 1.04448 0.898 0.889 1.3014 1.4669 0.839 1.01817 1.7205 1.6345
3790.441 1.1584 1.07324 1.0032 1.1317 1.5629 1.1813 0.9932 1.2889 1.6881 1.4757
3809.731 0.672 0.735 1.2428 1.2422 1.08679 1.2615 1.1424 0.694 0.489 0.884
3829.021 1.3754 0.912 0.522 0.785 0.773 0.782 0.9625 1.696 1.938 0.9804
3848.311 0.348 0.586 0.9964 1.04161 1.2747 1.07571 0.565 0.864 0.9638 0.725
3867.601 0.439 0.602 0.713 0.567 1.03043 0.552 0.268 0.435 0.372 0.635
3886.890 0.24 0.454 0.803 0.773 0.886 0.658 1.1917 1.7879 1.1476 0.818
3906.180 1.08781 0.482 0.466 0.9881 0.855 0.994 0.754 0.776 1.2081 0.595
3925.470 0.427 1.2143 1.05647 0.576 1.2617 1.154 0.388 0.495 0.794 1.09407
3944.760 1.422 1.4626 1.07579 1.09726 1.2712 0.707 0.637 0.831 1.2798 1.7996
3964.049 1.5149 0.9488 0.644 0.9752 1.04962 1.1899 1.09379 0.818 1.07601 1.2854
3983.339 1.3492 1.4715 1.7192 1.518 1.1667 1.1574 0.9968 0.472 0.586 1.0095
##END=
