##TITLE=N-Ethyl trimethylene diamine
##JCAMP-DX=4.24
##DATA TYPE=INFRARED SPECTRUM
##ORIGIN=EPA-IR VAPOR PHASE LIBRARY
##OWNER=SRD/NIST
Collection (C) 2018 copyright by the U.S. Secretary of Commerce
on behalf of the United States of America. All rights reserved.
##CAS REGISTRY NO=38571-87-8
##MOLFORM=C 5 H 14 N 2
##$NIST SOURCE=MSDC-IR
##STATE=gas
##XUNITS=1/CM
##YUNITS=ABSORBANCE
##XFACTOR=1.
##YFACTOR=0.001
##DELTAX=3.85796
##FIRSTX=501.5
##LASTX=4000.7
##FIRSTY=3.385
##MAXX=4000.7
##MINX=501.534
##MAXY=0.055985
##MINY=0
##NPOINTS=908
##XYDATA=(X++(Y..Y))
501.534 3.385 3.345 3.525 3.535 3.495 3.515 3.475 3.485 3.485 3.445
540.114 3.435 3.435 3.455 3.435 3.575 3.625 3.475 3.535 3.655 3.765
578.693 3.875 3.815 3.905 4.075 4.185 4.405 4.665 4.855 4.995 5.145
617.273 5.345 5.575 5.945 6.355 6.705 7.035 7.435 7.865 8.375 8.895
655.852 9.405 10.005 10.565 11.165 11.695 12.205 12.765 13.285 13.705 14.035
694.432 14.425 14.805 15.065 15.335 15.645 15.845 16.105 16.415 16.755 17.165
733.011 17.575 18.135 18.775 19.375 19.875 20.295 20.635 20.915 21.065 21.045
771.591 20.935 20.775 20.335 19.475 18.425 17.205 15.885 14.475 13.185 12.065
810.170 11.045 10.175 9.425 8.855 8.305 7.775 7.375 7.005 6.655 6.395
848.750 6.205 5.985 5.765 5.595 5.405 5.205 5.095 5.015 4.845 4.695
887.330 4.545 4.415 4.295 4.185 4.085 4.035 4.025 3.955 3.945 3.965
925.909 3.995 3.995 3.835 3.625 3.565 3.455 3.345 3.345 3.445 3.655
964.489 3.765 3.615 3.445 3.425 3.455 3.455 3.515 3.625 3.665 3.745
1003.068 3.905 4.055 4.235 4.555 4.865 5.065 5.325 5.555 5.745 5.955
1041.648 6.145 6.305 6.525 6.875 7.285 7.685 8.075 8.465 8.795 8.935
1080.227 8.885 8.895 9.045 9.185 9.405 9.895 10.645 11.445 12.665 14.335
1118.807 16.205 18.405 20.505 22.195 23.295 23.515 22.695 20.835 18.465 16.015
1157.387 13.705 11.595 9.745 8.315 7.255 6.425 5.715 5.105 4.565 4.235
1195.966 4.065 3.805 3.545 3.375 3.225 3.195 3.235 3.235 3.235 3.165
1234.546 3.155 3.235 3.255 3.225 3.185 3.205 3.345 3.495 3.575 3.605
1273.125 3.585 3.615 3.645 3.725 3.885 4.035 4.155 4.235 4.345 4.505
1311.705 4.725 5.065 5.535 6.135 6.825 7.565 8.295 8.935 9.335 9.475
1350.284 9.495 9.435 9.365 9.475 9.855 10.415 10.935 11.255 11.275 10.835
1388.864 9.905 8.755 7.625 6.645 5.885 5.405 5.185 5.235 5.545 6.085
1427.443 6.815 7.745 8.845 10.045 11.155 12.135 13.035 13.725 14.085 14.115
1466.023 13.785 12.975 11.715 10.305 8.735 7.145 5.825 4.795 4.015 3.435
1504.603 3.055 2.765 2.535 2.335 2.205 2.105 2.045 1.985 1.915 1.885
1543.182 1.875 1.865 1.845 1.865 1.895 1.905 1.935 2.035 2.135 2.265
1581.762 2.365 2.535 2.775 3.065 3.415 3.835 4.325 4.875 5.415 5.845
1620.341 6.085 6.125 5.905 5.465 4.875 4.235 3.675 3.185 2.775 2.415
1658.921 2.135 1.915 1.745 1.645 1.555 1.455 1.375 1.305 1.235 1.185
1697.500 1.155 1.1077 1.0553 1.0261 0.982 0.9392 0.9471 0.9487 0.9467 0.9759
1736.080 0.9742 0.9536 0.9384 0.9549 0.9954 0.9697 0.9374 0.9476 0.9715 0.9759
1774.659 0.9815 0.999 0.9967 0.9767 0.9806 0.9838 0.9714 0.975 0.9395 0.9021
1813.239 0.9231 0.9535 0.9583 0.954 0.9468 0.9366 0.9244 0.9333 0.9272 0.8883
1851.819 0.8411 0.7947 0.7837 0.7493 0.7038 0.6557 0.6073 0.5833 0.555 0.5263
1890.398 0.5092 0.4908 0.4573 0.4446 0.4451 0.4319 0.4243 0.4204 0.3933 0.3772
1928.978 0.3672 0.3495 0.3534 0.3512 0.3448 0.3496 0.3462 0.3405 0.3421 0.3414
1967.557 0.3547 0.3629 0.3544 0.3328 0.2966 0.3065 0.3356 0.3343 0.3188 0.3218
2006.137 0.3433 0.3359 0.3309 0.333 0.3141 0.3103 0.2975 0.3014 0.3051 0.2894
2044.716 0.2936 0.2865 0.277 0.2805 0.2689 0.2621 0.2607 0.2605 0.2688 0.2872
2083.296 0.283 0.2547 0.2466 0.2541 0.2496 0.2613 0.2757 0.2673 0.265 0.2406
2121.875 0.2624 0.2865 0.2539 0.2508 0.2619 0.2722 0.2968 0.2807 0.2508 0.2517
2160.455 0.2798 0.2843 0.2681 0.266 0.2474 0.2501 0.2697 0.2441 0.2399 0.2441
2199.035 0.2277 0.2405 0.2512 0.2511 0.2614 0.2586 0.2424 0.2682 0.2854 0.2626
2237.614 0.2576 0.257 0.2515 0.2611 0.2726 0.2677 0.2708 0.2957 0.2786 0.2684
2276.194 0.2884 0.28 0.2538 0.2661 0.3132 0.3134 0.2805 0.2666 0.2754 0.3141
2314.773 0.3444 0.3326 0.3489 0.3688 0.3371 0.3236 0.3199 0.3099 0.3182 0.3163
2353.353 0.3138 0.3328 0.3405 0.3229 0.3292 0.3556 0.336 0.2957 0.3059 0.2922
2391.932 0.2665 0.2773 0.2861 0.2823 0.2677 0.2782 0.3055 0.3173 0.3053 0.2883
2430.512 0.2855 0.2882 0.2829 0.2806 0.3121 0.348 0.3319 0.3208 0.3252 0.3022
2469.092 0.3055 0.3328 0.3375 0.3556 0.3731 0.3499 0.3613 0.3919 0.3873 0.4068
2507.671 0.4112 0.4114 0.4477 0.4458 0.4388 0.4954 0.5286 0.5444 0.5988 0.634
2546.251 0.6503 0.68 0.7039 0.7467 0.7946 0.8334 0.8791 0.9321 0.9744 1.0037
2584.830 1.0656 1.135 1.195 1.225 1.265 1.325 1.365 1.365 1.405 1.465
2623.410 1.545 1.665 1.765 1.855 1.975 2.115 2.235 2.345 2.455 2.595
2661.989 2.715 2.845 3.005 3.165 3.325 3.485 3.615 3.755 3.905 4.085
2700.569 4.245 4.385 4.535 4.735 4.945 5.175 5.405 5.665 5.925 6.185
2739.148 6.495 6.795 7.085 7.395 7.675 8.015 8.425 8.875 9.455 10.165
2777.728 11.055 12.135 13.475 15.015 16.785 18.825 21.035 23.355 25.645 27.805
2816.308 29.675 31.085 32.125 32.805 33.055 32.965 32.765 32.585 32.405 32.305
2854.887 32.315 32.295 32.315 32.535 32.865 33.095 33.205 33.345 33.525 33.745
2893.467 34.205 35.105 36.515 38.555 41.055 43.845 46.845 49.765 52.485 54.655
2932.046 55.865 55.985 54.895 52.715 49.825 46.715 44.015 42.085 40.725 39.425
2970.626 37.675 35.145 31.655 27.295 22.645 18.315 14.535 11.535 9.335 7.675
3009.205 6.375 5.385 4.645 4.035 3.595 3.315 3.015 2.715 2.455 2.265
3047.785 2.105 1.905 1.775 1.645 1.495 1.395 1.355 1.295 1.185 1.125
3086.364 1.0748 0.9918 0.9686 0.9548 0.9144 0.9134 0.879 0.846 0.7878 0.7415
3124.944 0.716 0.7017 0.6759 0.6269 0.5927 0.5521 0.5273 0.5123 0.5413 0.5294
3163.524 0.5118 0.5279 0.5059 0.4827 0.4644 0.4771 0.4832 0.4341 0.4006 0.4201
3202.103 0.4243 0.4081 0.4098 0.4385 0.3913 0.3003 0.2434 0.2426 0.2919 0.2934
3240.683 0.2882 0.2562 0.2238 0.19566 0.17907 0.20548 0.20879 0.18098 0.14185 0.11157
3279.262 0.121114 0.115952 0.0968 0.118041 0.14393 0.14591 0.17884 0.2311 0.3106 0.3949
3317.842 0.4876 0.6137 0.6708 0.7699 0.9289 1.0178 1.1049 1.175 1.125 1.0547
3356.421 0.9771 0.8453 0.6816 0.5258 0.4596 0.4377 0.3904 0.3816 0.3986 0.4147
3395.001 0.4796 0.4878 0.496 0.495 0.5387 0.624 0.517 0.3999 0.3225 0.2615
3433.580 0.19218 0.13671 0.11235 0.1029 0.13548 0.13093 0.0859 0.115813 0.2084 0.15827
3472.160 0.0631 0.0971 0.115176 0.0693 0.0383 0 0.0337 0.0684 0.08 0.121777
3510.740 0.15074 0.12963 0.118167 0.12964 0.0716 0 0.0166 0.0574 0.1045 0.11228
3549.319 0.0763 0.0547 0.0644 0.0909 0.0917 0.0799 0.012 0.003 0.0507 0.0793
3587.899 0.0682 0.046 0.0924 0.11205 0.10648 0.114992 0.16339 0.19009 0.14577 0.06
3626.478 0.0699 0.117507 0.0917 0.10658 0.16595 0.13899 0.0923 0.0747 0.0873 0.14196
3665.058 0.13515 0.0983 0.0765 0.120109 0.13475 0.20248 0.2084 0.118643 0.14615 0.0916
3703.637 0.0412 0.10602 0.18146 0.15649 0.0728 0.117484 0.15171 0.0545 0.0339 0.1038
3742.217 0.16436 0.19471 0.14584 0.119865 0.0795 0.0586 0.0769 0.0977 0.119553 0.1012
3780.797 0.0756 0.0844 0.15562 0.16392 0.1135 0.0826 0.0821 0.0845 0.0616 0.0694
3819.376 0.067 0.0699 0.0925 0.0932 0.0978 0.0716 0.0617 0.122082 0.12253 0.0967
3857.956 0.0446 0.0537 0.0823 0.0795 0.12915 0.17376 0.16443 0.0825 0.0848 0.120857
3896.535 0.10893 0.14237 0.2355 0.21448 0.15212 0.17121 0.14018 0.20238 0.2568 0.16907
3935.115 0.0861 0.12859 0.19051 0.20928 0.2291 0.2365 0.2814 0.3282 0.3509 0.287
3973.694 0.2624 0.2422 0.2324 0.2534 0.2246 0.2849 0.2901 0.2352
##END=
