##TITLE=3-Amino-2-nitrobenzotrifluoride
##JCAMP-DX=4.24
##DATA TYPE=INFRARED SPECTRUM
##ORIGIN=EPA-IR VAPOR PHASE LIBRARY
##OWNER=SRD/NIST
Collection (C) 2018 copyright by the U.S. Secretary of Commerce
on behalf of the United States of America. All rights reserved.
##CAS REGISTRY NO=386-71-0
##MOLFORM=C 7 H 5 F 3 N 2 O 2
##$NIST SOURCE=MSDC-IR
##STATE=gas
##XUNITS=1/CM
##YUNITS=ABSORBANCE
##XFACTOR=1.
##YFACTOR=0.001
##DELTAX=1.92898
##FIRSTX=549.8
##LASTX=4000.7
##FIRSTY=14.079
##MAXX=4000.7
##MINX=549.759
##MAXY=0.232079
##MINY=0
##NPOINTS=1790
##XYDATA=(X++(Y..Y))
549.759 14.079 14.109 13.429 12.499 12.709 13.369 12.989 13.709 14.319 14.069
569.049 14.639 14.429 14.019 12.799 12.429 13.509 13.149 12.509 12.219 12.409
588.339 11.559 11.079 11.709 11.619 12.049 12.009 11.439 11.149 11.309 10.729
607.628 10.509 10.919 11.289 12.269 11.869 10.289 9.539 10.349 10.899 11.239
626.918 11.569 11.059 11.059 11.369 11.299 10.949 10.819 11.199 11.959 12.429
646.208 12.169 11.919 11.609 11.499 11.659 11.579 11.419 11.829 11.989 11.869
665.498 11.949 12.319 11.919 12.139 13.109 13.389 14.589 17.119 19.819 22.259
684.787 24.309 25.569 26.569 26.809 26.929 26.589 25.069 22.629 20.359 19.119
704.077 17.849 17.129 17.779 18.239 18.549 18.449 18.379 18.699 18.089 17.659
723.367 17.229 17.039 17.509 17.319 16.899 16.879 17.489 17.839 17.559 17.859
742.657 19.249 21.159 22.949 24.929 27.179 30.069 32.109 33.509 34.639 33.599
761.947 31.899 30.069 27.099 23.479 20.559 18.669 17.369 16.619 16.139 16.669
781.236 18.219 20.799 23.529 25.749 28.459 31.079 33.909 37.539 39.149 36.339
800.526 31.969 28.939 25.929 22.849 20.349 17.779 15.749 14.009 13.469 13.619
819.816 13.429 13.429 12.699 12.099 12.479 13.039 13.369 14.469 15.919 17.409
839.106 19.649 22.039 24.429 26.939 28.539 29.009 29.429 29.019 27.669 25.929
858.395 23.289 19.739 16.779 14.569 12.619 11.719 10.959 10.299 9.869 9.459
877.685 9.479 9.199 9.209 9.829 9.719 8.969 9.469 10.129 9.749 9.929
896.975 10.029 10.339 11.109 11.959 13.069 14.279 15.969 18.129 19.959 22.519
916.265 25.659 27.729 29.479 30.369 30.569 29.339 26.789 24.409 21.059 17.449
935.555 14.279 11.159 8.829 7.579 7.119 6.719 6.219 5.729 4.989 4.769
954.844 5.109 5.119 5.159 5.259 4.759 4.849 5.219 5.349 5.539 5.469
974.134 5.139 4.769 4.989 5.039 4.639 4.419 4.909 5.209 4.909 4.719
993.424 5.549 6.189 5.339 4.969 5.199 5.399 4.589 4.799 5.219 4.889
1012.714 5.389 5.569 6.199 5.539 4.819 5.289 6.039 6.289 7.179 8.509
1032.003 9.069 10.409 12.159 14.599 15.999 17.409 18.639 19.049 19.779 19.789
1051.293 19.609 17.789 15.399 13.769 11.219 9.739 9.999 9.189 8.049 8.129
1070.583 7.549 7.489 8.319 9.569 11.749 13.319 16.229 18.789 19.759 23.299
1089.873 26.859 30.139 34.949 38.089 39.859 41.279 42.939 42.609 40.099 38.589
1109.163 35.409 30.209 27.229 26.349 26.409 26.489 24.339 24.869 26.959 27.449
1128.452 28.329 29.709 30.489 30.129 32.429 36.259 39.349 44.869 51.119 58.499
1147.742 68.169 79.359 91.199 105.199 124.379 143.129 161.379 182.169 201.439 216.269
1167.032 226.089 230.879 232.079 231.069 229.449 223.999 215.299 203.899 188.169 171.109
1186.322 153.019 136.899 122.489 109.369 100.529 93.059 87.449 87.619 88.269 84.349
1205.611 81.029 78.529 72.699 67.149 61.709 50.689 41.099 35.639 30.459 26.979
1224.901 24.809 23.499 22.239 20.019 17.809 16.939 16.459 16.579 17.109 16.479
1244.191 15.809 15.719 15.519 15.339 15.249 15.349 15.649 15.939 15.829 16.809
1263.481 18.019 18.419 19.379 20.139 20.489 21.409 22.629 24.009 25.889 29.039
1282.771 32.899 37.759 45.349 54.779 65.569 78.429 92.759 107.519 121.829 134.649
1302.060 144.309 150.499 153.049 151.569 146.599 139.019 130.329 121.199 112.989 106.949
1321.350 103.519 102.659 103.699 106.509 110.869 115.769 120.429 124.889 128.229 129.699
1340.640 129.609 128.169 125.539 122.069 118.329 114.169 109.599 104.449 98.759 92.599
1359.930 85.799 77.979 68.999 59.449 49.579 40.469 32.739 26.699 21.999 18.509
1379.219 16.139 14.559 13.469 12.549 11.649 11.249 10.889 10.299 10.239 10.159
1398.509 9.779 9.639 9.529 9.349 9.199 8.769 8.679 8.569 8.409 8.569
1417.799 8.499 8.409 8.519 8.739 8.769 8.949 9.219 9.429 9.769 10.199
1437.089 10.939 11.649 12.409 13.469 14.889 16.729 19.069 21.679 25.199 29.399
1456.378 34.229 39.839 45.709 51.559 56.619 61.319 64.589 65.849 65.319 62.529
1475.668 57.979 52.999 48.309 43.699 39.489 35.779 32.389 29.679 27.829 26.779
1494.958 26.009 25.319 25.359 25.849 26.269 26.969 27.839 28.799 30.039 31.819
1514.248 33.959 36.089 38.839 42.269 46.709 51.979 58.259 66.059 75.199 85.309
1533.538 96.449 108.269 119.619 130.469 139.779 146.469 149.419 147.659 141.629 132.579
1552.827 121.769 110.099 98.649 86.599 75.369 66.559 59.369 53.559 48.589 44.089
1572.117 40.759 38.489 36.719 35.349 34.059 33.149 33.159 33.589 34.169 35.259
1591.407 36.719 38.079 39.599 41.399 43.089 44.019 44.789 45.679 46.519 47.669
1610.697 48.549 50.069 52.649 56.319 60.669 65.159 69.459 72.709 74.539 74.899
1629.986 73.539 69.989 64.499 57.239 49.969 43.439 37.089 32.079 27.929 24.069
1649.276 21.139 18.989 17.079 15.359 13.849 12.619 11.719 11.079 10.379 9.699
1668.566 9.159 8.649 8.239 7.939 7.609 7.029 6.599 6.479 6.109 5.889
1687.856 5.919 5.719 5.329 5.089 4.779 4.429 4.349 4.419 4.339 4.109
1707.146 4.089 4.139 4.009 3.749 3.609 3.359 3.319 3.429 3.549 3.629
1726.435 3.399 3.019 3.069 3.409 3.269 3.289 3.329 3.229 3.289 3.169
1745.725 3.209 3.349 3.259 3.429 3.539 3.469 3.619 3.869 3.909 3.919
1765.015 4.019 3.889 3.869 4.009 3.999 3.679 3.509 3.679 3.399 3.079
1784.305 2.979 3.089 3.049 2.879 3.059 2.989 2.899 2.849 2.699 2.699
1803.594 2.779 2.809 2.709 2.639 2.689 2.889 2.899 2.769 2.819 2.929
1822.884 2.849 2.709 2.659 2.609 2.939 3.019 2.809 2.939 3.039 3.219
1842.174 3.379 3.399 3.619 3.799 3.779 3.689 3.669 3.509 3.279 3.049
1861.464 2.879 2.789 2.559 2.409 2.379 2.189 2.019 2.159 2.249 2.179
1880.754 2.309 2.429 2.179 2.079 2.039 2.019 2.219 2.219 2.259 2.259
1900.043 2.069 1.949 2.099 2.149 2.239 2.529 2.469 2.369 2.519 2.879
1919.333 2.909 2.869 3.079 3.399 3.679 3.519 3.559 3.689 3.649 3.689
1938.623 3.479 3.169 3.009 2.729 2.439 2.479 2.249 1.929 1.819 1.5823
1957.913 1.4704 1.3704 1.4735 1.779 1.859 1.869 1.6991 1.6572 1.789 1.5713
1977.202 1.5584 1.4388 1.1307 1.2977 1.4358 1.3359 1.2799 1.3409 1.3074 1.2729
1996.492 1.1293 1.0878 1.22 1.1333 1.2773 1.4555 1.4429 1.3243 1.0966 1.2252
2015.782 1.3987 1.5427 1.5325 1.3715 1.4909 1.4596 1.3663 1.3301 1.2424 1.3021
2035.072 1.3867 1.4345 1.4429 1.4568 1.443 1.4257 1.3843 1.4691 1.5804 1.5731
2054.362 1.5763 1.4585 1.4574 1.5044 1.6225 1.7218 1.6867 1.6056 1.7367 1.939
2073.651 1.899 1.779 1.769 1.919 1.999 2.099 2.029 1.999 2.079 2.079
2092.941 2.029 1.789 1.7309 1.899 1.769 1.5483 1.5971 1.5665 1.417 1.4499
2112.231 1.5015 1.5738 1.5942 1.3963 1.2915 1.3768 1.303 1.34 1.5497 1.4523
2131.521 1.1576 1.1092 1.2314 1.3119 1.5642 1.4625 1.2035 1.2394 1.2027 1.2044
2150.810 1.0473 1.1227 1.3876 1.2942 1.2145 1.1114 1.0569 1.2721 1.406 1.2542
2170.100 1.2087 1.248 1.3117 1.4209 1.372 1.3189 1.222 1.3013 1.3445 1.3999
2189.390 1.4656 1.5239 1.749 1.5701 1.4099 1.586 1.6624 1.919 1.919 1.412
2208.680 1.4776 1.759 1.749 1.682 1.6277 1.637 1.6443 1.5274 1.3674 1.4836
2227.970 1.5272 1.4597 1.3693 1.4739 1.5211 1.3104 1.1147 0.9834 1.1018 1.2884
2247.259 1.4291 1.4226 1.4033 1.3113 1.4261 1.66 1.618 1.5032 1.4766 1.7113
2266.549 1.5856 1.2044 1.1836 1.3253 1.3728 1.4973 1.5474 1.389 1.2514 1.1764
2285.839 1.2936 1.2678 1.0847 1.3052 1.5688 1.4973 1.5663 1.5315 1.368 1.474
2305.129 1.4625 1.4708 1.5478 1.6028 1.789 1.789 1.779 1.989 2.109 1.809
2324.418 1.5579 1.779 1.819 1.6152 1.5287 1.6185 1.6221 1.5364 1.7012 1.6838
2343.708 1.6556 1.5457 1.5028 1.6304 1.438 1.4159 1.6518 1.899 1.899 1.7088
2362.998 1.749 1.4197 1.2421 1.4786 1.4977 1.3879 1.3999 1.739 1.799 1.839
2382.288 1.859 1.7033 1.6708 1.6958 1.779 1.869 1.879 1.889 1.969 1.819
2401.578 1.6834 1.6308 1.3104 1.323 1.4515 1.1849 1.2497 1.4438 1.3119 1.2953
2420.867 1.3024 1.0139 1.1597 1.3135 1.1454 1.1277 0.9354 0.8682 1.0154 1.0047
2440.157 0.931 0.9065 0.80386 0.82881 1.0901 1.0932 0.80969 0.77846 0.6789 0.594
2459.447 0.8599 0.9686 1.0045 0.9515 0.8632 1.0291 1.0345 1.0162 0.995 0.81693
2478.737 0.8825 1.3845 1.2515 0.7934 0.9413 0.8849 1.0367 1.244 1.102 1.1528
2498.026 1.2066 1.04 0.8781 1.0795 1.2421 1.1561 1.2398 1.2109 1.0358 1.0799
2517.316 0.9808 0.8851 0.79715 0.72988 0.7165 0.7001 0.9179 0.9102 1.0273 1.3077
2536.606 1.4105 1.24 1.1807 1.2368 1.0112 0.79336 0.82305 0.865 0.677 0.8475
2555.896 1.0662 0.653 0.409 0.596 0.78853 0.8954 0.9436 0.8895 0.9458 0.9986
2575.186 0.76974 0.8691 1.0602 0.95 0.596 0.607 0.8662 0.76919 0.76624 1.0185
2594.475 1.2354 1.6273 1.819 1.6352 1.3649 1.3016 1.5105 1.2107 0.8869 0.9284
2613.765 1.0549 1.1017 1.3036 1.4223 1.5018 1.6403 1.6218 1.5591 1.2395 1.0999
2633.055 1.2605 1.5627 1.5076 1.2772 1.4445 1.6065 1.6726 1.497 1.1475 1.1124
2652.345 1.2265 1.241 1.2077 1.4109 1.3311 1.1182 1.3554 1.6357 1.659 1.4981
2671.634 1.5048 1.4647 1.2962 0.9838 0.7004 0.6398 0.522 0.79785 1.1362 1.165
2690.924 1.3601 1.1665 1.0066 0.9789 0.9681 1.0218 1.3864 1.4758 1.3404 1.0989
2710.214 1.1553 1.1464 0.983 1.154 1.0264 1.2346 1.1403 0.9866 1.1565 1.1007
2729.504 0.82997 0.628 0.6707 0.635 0.547 0.52 0.83698 1.3216 0.9156 0.746874
2748.794 0.915 1.0485 0.8967 0.611 0.78395 0.8777 0.9218 0.842 0.77203 0.9761
2768.083 0.8302 0.6767 0.6518 0.8827 0.9566 0.515 0.543 0.566 0.6907 0.79368
2787.373 0.77226 0.73336 0.79953 1.0374 0.9842 0.9442 0.9704 0.6905 0.6976 0.7166
2806.663 0.557 0.528 0.574 0.73276 0.7018 0.7287 0.81185 0.9725 0.8464 0.81729
2825.953 1.3014 1.3883 1.0491 1.2321 1.4466 0.9581 0.740134 0.9865 1.4706 1.869
2845.242 1.5631 1.4223 1.619 1.4349 1.1367 1.0449 1.1792 1.3352 1.5631 1.5874
2864.532 1.6764 1.839 1.4456 1.453 1.989 2.279 2.239 1.999 1.999 2.209
2883.822 2.689 2.979 2.839 2.939 3.139 2.759 2.219 2.549 2.459 2.179
2903.112 2.349 2.059 2.069 2.129 1.829 1.5107 1.5852 1.6923 1.4498 1.6917
2922.401 1.849 1.2812 1.4068 1.949 1.5024 1.2489 1.2399 0.9743 1.153 1.172
2941.691 1.3684 1.6939 1.4397 1.0119 0.8677 1.0328 1.0606 1.226 1.3027 0.941
2960.981 1.1559 1.0565 0.431 0.598 0.8527 0.72957 0.72 0.636 0.296 0.137
2980.271 0.48 0.6871 0.544 1.0807 1.3464 1.0366 0.9348 0.75374 0.8639 1.0514
2999.561 1.1648 0.9899 1.0302 0.934 0.79713 1.225 1.417 1.2058 1.0621 1.3212
3018.850 1.3373 1.859 2.639 2.559 2.649 3.249 3.539 4.129 4.299 4.479
3038.140 4.409 3.899 4.069 4.129 4.279 4.099 3.619 3.599 3.909 4.159
3057.430 3.919 3.839 4.149 4.679 5.439 5.989 5.769 5.309 5.379 5.239
3076.720 5.039 4.739 4.739 4.519 3.829 3.799 4.099 3.709 2.769 2.679
3096.009 2.829 2.709 2.489 2.439 2.669 2.639 2.159 1.5278 1.4009 1.789
3115.299 2.079 1.5559 0.6564 0.738756 1.2179 1.3515 1.5114 1.2128 1.171 1.0531
3134.589 0.76559 0.82109 0.384 0.533 0.81497 0.698 0.6575 0.43 0.223 0.363
3153.879 1.0294 1.3499 0.81293 0.555 0.508 0.543 0.7271 0.624 0.616 0.83154
3173.169 1.0012 0.8777 0.9587 0.9185 0.8597 0.82376 0.73142 0.6852 0.82743 1.4321
3192.458 1.6245 1.2577 1.1761 1.3338 1.1679 1.1181 1.3412 0.9835 0.6 1.1137
3211.748 1.6202 1.3245 1.3922 1.6482 1.5893 2.159 2.169 1.829 1.909 2.019
3231.038 1.919 1.759 1.6094 1.7135 1.899 1.789 1.6301 1.3627 1.2982 1.3275
3250.328 1.23 0.547 0.637 1.5375 1.4377 0.9906 0.94 0.9695 0.6953 0.539
3269.617 0.381 0.605 1.3986 1.3024 0.76284 0.9649 1.1966 1.1502 1.1718 1.2849
3288.907 1.0642 1.0683 0.9615 0.536 0.412 0.147 0.612 0.9737 0.523 0.46
3308.197 0.8554 0.9488 0.80932 0.81854 1.1424 1.0194 0.504 0.73419 0.6666 0.421
3327.487 0.447 0.391 0.601 0.635 0.81968 1.3712 1.2841 0.8467 0.77508 0.604
3346.777 0.609 0.8952 1.0492 0.9756 1.0563 1.2448 1.3888 1.4077 1.0661 0.9649
3366.066 1.889 2.519 2.409 2.319 2.329 2.559 2.379 2.219 2.539 2.999
3385.356 3.319 3.519 4.079 4.859 5.039 5.789 6.999 8.559 10.649 12.649
3404.646 15.059 17.759 20.879 24.219 27.619 30.229 32.069 33.049 32.109 30.509
3423.936 27.839 24.399 20.719 16.269 12.719 9.939 7.769 6.629 5.689 4.589
3443.225 3.629 3.059 2.509 2.279 2.409 2.739 3.039 2.529 2.269 2.489
3462.515 2.339 2.709 3.239 3.299 2.989 2.399 2.809 3.479 3.819 3.989
3481.805 4.229 4.779 5.249 5.499 5.889 6.979 8.139 8.599 9.079 10.409
3501.095 11.619 12.799 14.669 16.649 18.489 19.889 21.049 22.419 23.389 23.339
3520.385 22.199 20.689 19.069 16.709 14.609 12.489 10.309 8.549 6.949 6.329
3539.674 5.329 4.209 3.379 2.949 2.749 2.529 2.579 2.149 1.899 2.289
3558.964 2.539 2.539 2.229 2.129 2.069 1.525 1.859 2.059 1.5715 1.6321
3578.254 1.779 1.759 1.819 2.259 2.139 1.4478 1.3536 1.3425 1.3231 1.3013
3597.544 1.2253 1.1597 1.3465 1.1387 0.7686 0.73679 0.7177 0.77238 0.9266 0.9134
3616.833 0.8133 0.79806 0.9384 0.83803 0.80295 1.1382 1.3553 1.0323 1.3477 1.799
3636.123 1.3827 1.2982 0.8872 0.79666 0.975 1.071 1.4396 1.2558 0.9099 1.0579
3655.413 0.464 0.512 1.0128 1.0369 1.234 1.1004 1.1397 1.1467 1.5165 1.2705
3674.703 0.526 0.417 0.575 0.72972 1.0036 1.1225 1.096 0.83199 1.1844 1.2437
3693.993 0.76027 1.0146 0.9473 0.81722 1.0611 1.245 1.4644 1.5869 1.4899 1.0428
3713.282 0.349 0.618 1.1982 1.2193 0.6694 0.75773 1.0704 1.1127 1.0885 1.1663
3732.572 1.4693 1.0094 1.0724 1.349 1.1298 0.79073 0.9765 1.1634 0.8669 1.1876
3751.862 1.809 1.2275 0.9255 0.78792 0.6986 0.9373 0.6841 1.0878 1.1124 0.75474
3771.152 1.3244 1.4397 0.8636 1.2695 1.6477 1.5075 1.2633 1.3068 1.3494 1.0517
3790.441 1.245 1.111 1.3033 1.5689 1.2584 0.73653 0.47 1.168 1.3412 0.9525
3809.731 1.0847 1.2598 0.9808 1.1656 1.2905 1.1427 1.3201 1.6655 1.5612 0.7148
3829.021 0.535 1.0268 1.0539 0.75609 0.542 0.538 0.6759 0.9748 1.4176 1.829
3848.311 1.4416 1.188 1.0329 0.617 0.9051 0.76806 0.211 0.8576 1.5583 1.1093
3867.601 1.1375 0.9586 0.531 0.6662 0.81262 1.3416 1.218 0.747508 1.0834 1.3583
3886.890 1.4975 1.2738 0.8923 1.0942 1.4644 1.6026 2.039 1.5784 0.6977 0.492
3906.180 0.6639 1.1929 1.466 1.299 1.0539 1.0795 1.1094 0.8879 0.77495 0.513
3925.470 0.459 0.484 0.467 1.0222 1.3957 1.0964 0.579 0.602 1.234 1.6463
3944.760 1.4032 1.2856 0.7164 0 0.636 1.4303 1.7282 1.7051 1.3615 0.9113
3964.049 0.7215 0.9073 0.76159 0.747827 0.6791 0.507 0.936 1.3105 1.1575 0.9359
3983.339 0.9915 0.8894 0.9276 1.1529 0.80457 0.516 0.63 0.81249 0.9179 0.8981
##END=
