##TITLE=3,4-Difluoroaniline
##JCAMP-DX=4.24
##DATA TYPE=INFRARED SPECTRUM
##ORIGIN=EPA-IR VAPOR PHASE LIBRARY
##OWNER=SRD/NIST
Collection (C) 2018 copyright by the U.S. Secretary of Commerce
on behalf of the United States of America. All rights reserved.
##CAS REGISTRY NO=3863-11-4
##MOLFORM=C 6 H 5 F 2 N
##$NIST SOURCE=MSDC-IR
##STATE=gas
##XUNITS=1/CM
##YUNITS=ABSORBANCE
##XFACTOR=1.
##YFACTOR=0.001
##DELTAX=1.92898
##FIRSTX=549.8
##LASTX=4000.7
##FIRSTY=7.681
##MAXX=4000.7
##MINX=549.759
##MAXY=0.231961
##MINY=0
##NPOINTS=1790
##XYDATA=(X++(Y..Y))
549.759 7.681 7.611 7.911 8.321 8.361 8.971 10.001 10.521 11.061 11.441
569.049 11.791 12.541 13.071 13.571 14.131 14.711 15.021 15.221 15.851 16.591
588.339 17.271 17.761 18.381 18.481 17.871 17.771 18.101 18.801 19.831 19.941
607.628 18.831 17.231 15.481 14.151 13.461 12.761 12.331 12.091 11.691 11.531
626.918 11.681 12.061 12.581 13.141 13.891 14.831 15.921 17.371 18.891 20.541
646.208 22.551 24.871 27.441 29.791 31.721 33.671 35.221 36.021 36.811 37.411
665.498 37.431 36.801 35.851 34.431 32.381 29.871 27.151 24.891 23.211 21.831
684.787 20.221 18.631 17.481 16.611 15.881 15.361 14.841 14.321 14.081 13.851
704.077 13.591 13.271 12.841 12.871 13.041 13.041 13.331 13.451 13.341 13.531
723.367 13.651 13.571 13.731 14.021 14.121 14.161 14.061 13.661 13.561 13.991
742.657 14.241 14.131 13.921 13.731 13.711 13.841 13.841 14.091 15.101 16.691
761.947 19.411 23.111 27.401 31.991 36.081 39.791 42.261 43.741 45.131 46.561
781.236 47.061 46.711 47.021 46.201 43.311 40.231 38.691 39.421 41.601 41.891
800.526 37.431 31.441 28.011 26.311 25.031 23.881 22.481 20.851 19.561 18.531
819.816 17.611 17.581 18.011 18.561 19.291 20.161 21.641 23.841 26.991 30.441
839.106 32.101 30.851 28.181 26.061 24.501 22.991 21.311 19.721 17.971 16.121
858.395 14.671 13.131 11.551 10.101 9.091 8.311 7.311 6.591 6.221 5.921
877.685 5.611 5.371 5.321 5.091 4.941 4.951 4.911 4.961 4.971 4.941
896.975 4.781 4.761 4.571 4.551 4.841 4.721 4.731 4.891 4.781 4.821
916.265 5.201 5.401 5.531 5.581 5.381 5.291 5.511 5.861 6.221 6.831
935.555 7.771 8.981 10.321 12.101 14.411 16.931 19.551 21.541 22.401 21.941
954.844 21.261 20.911 20.281 20.361 20.351 18.751 15.901 12.831 10.211 8.201
974.134 6.751 5.781 4.931 4.471 4.291 3.911 3.771 3.741 3.521 3.331
993.424 3.311 3.191 2.951 3.021 3.051 2.861 2.811 2.831 3.021 3.111
1012.714 3.071 3.031 3.181 3.211 3.151 3.541 3.731 3.681 3.781 3.841
1032.003 3.751 3.691 4.081 4.481 4.411 4.531 4.731 4.711 4.711 4.671
1051.293 4.561 4.731 4.841 4.811 5.101 5.261 5.241 5.311 5.701 6.121
1070.583 6.311 6.811 7.201 7.511 8.261 8.601 9.101 9.701 10.061 11.031
1089.873 11.181 11.221 11.771 12.211 12.401 12.591 12.851 13.031 13.431 14.181
1109.163 15.041 15.831 16.331 16.641 16.861 16.521 16.111 16.141 16.231 15.911
1128.452 15.581 15.031 13.821 12.721 11.901 11.081 10.681 10.641 11.101 12.141
1147.742 13.251 15.261 18.391 21.891 25.671 29.491 32.111 33.621 34.161 34.401
1167.032 34.771 34.611 34.471 33.851 31.091 26.551 21.761 17.211 14.061 12.081
1186.322 10.891 10.471 10.071 10.371 11.401 12.791 15.561 19.531 25.331 32.831
1205.611 41.001 49.801 57.741 63.971 69.081 73.751 76.621 75.801 74.861 74.861
1224.901 70.751 62.861 54.461 45.401 36.271 27.711 20.841 16.071 12.891 11.371
1244.191 10.541 10.731 12.201 14.911 18.541 23.311 29.071 34.811 39.521 42.681
1263.481 45.291 48.051 50.361 50.491 50.381 50.971 49.081 44.541 39.371 34.431
1282.771 30.121 26.401 23.361 21.031 19.281 18.211 17.611 17.361 17.261 17.271
1302.060 17.481 17.901 18.721 19.881 21.251 22.841 24.311 25.451 26.141 26.251
1321.350 25.851 25.241 24.631 23.921 22.891 21.421 19.281 16.431 13.501 10.911
1340.640 8.771 7.121 5.801 4.831 4.211 3.711 3.391 3.281 3.271 3.331
1359.930 3.331 3.351 3.441 3.451 3.511 3.531 3.411 3.321 3.321 3.321
1379.219 3.281 3.181 3.071 3.011 3.031 3.051 3.061 3.081 3.171 3.261
1398.509 3.311 3.391 3.411 3.451 3.481 3.491 3.601 3.741 3.861 3.961
1417.799 4.121 4.321 4.571 5.041 5.811 6.751 7.841 9.251 10.921 12.611
1437.089 14.381 16.171 17.811 19.381 20.771 21.821 22.551 22.721 22.291 21.461
1456.378 20.531 19.931 19.491 18.701 17.431 16.001 14.731 13.651 12.891 12.351
1475.668 11.901 11.651 11.631 11.731 12.071 12.691 13.581 15.021 17.281 20.371
1494.958 24.661 30.691 38.781 49.451 62.921 79.161 98.401 119.781 142.011 164.381
1514.248 185.431 203.781 218.431 228.011 231.961 230.431 223.731 212.381 197.261 178.411
1533.538 157.111 134.841 112.251 90.131 70.621 55.221 43.811 35.851 30.461 26.531
1552.827 23.531 21.191 19.271 17.731 16.361 15.091 14.061 13.351 12.911 12.711
1572.117 12.751 13.021 13.681 14.531 15.451 16.651 17.901 19.281 20.881 22.571
1591.407 24.331 26.291 28.611 30.971 33.521 36.361 39.241 42.251 45.301 47.991
1610.697 49.791 50.491 50.301 49.701 49.011 48.251 47.571 47.091 46.361 45.061
1629.986 43.461 42.131 41.111 40.041 38.821 37.611 36.351 34.851 33.111 31.121
1649.276 28.741 26.021 22.991 19.981 17.311 15.051 13.171 11.641 10.491 9.461
1668.566 8.531 7.751 7.081 6.481 5.971 5.551 5.121 4.731 4.371 4.001
1687.856 3.711 3.461 3.241 3.161 3.001 2.851 2.851 2.811 2.721 2.691
1707.146 2.711 2.661 2.641 2.701 2.681 2.641 2.631 2.561 2.561 2.561
1726.435 2.511 2.541 2.551 2.571 2.591 2.541 2.501 2.531 2.551 2.581
1745.725 2.601 2.591 2.601 2.571 2.541 2.511 2.461 2.461 2.391 2.371
1765.015 2.481 2.431 2.331 2.321 2.291 2.191 2.101 2.071 2.031 2.061
1784.305 2.091 2.051 1.991 1.971 1.941 1.891 1.861 1.801 1.781 1.761
1803.594 1.781 1.881 1.921 2.011 2.061 2.151 2.281 2.451 2.591 2.691
1822.884 2.911 3.101 3.251 3.401 3.481 3.541 3.631 3.571 3.451 3.381
1842.174 3.301 3.171 2.941 2.781 2.561 2.331 2.161 1.951 1.781 1.701
1861.464 1.651 1.601 1.551 1.471 1.471 1.441 1.411 1.491 1.511 1.501
1880.754 1.531 1.571 1.681 1.801 1.881 1.951 2.011 2.061 2.161 2.231
1900.043 2.261 2.331 2.231 2.171 2.141 2.001 1.911 1.801 1.631 1.511
1919.333 1.421 1.341 1.2653 1.1619 1.0719 1.0706 1.083 1.061 1.0964 1.1418
1938.623 1.1423 1.128 1.0934 1.0829 1.1091 1.0922 1.1223 1.1373 1.1512 1.2255
1957.913 1.2732 1.2476 1.1402 1.1153 1.1905 1.2889 1.301 1.2343 1.2744 1.351
1977.202 1.361 1.361 1.431 1.451 1.391 1.391 1.451 1.511 1.481 1.421
1996.492 1.391 1.331 1.2811 1.2688 1.2413 1.1877 1.1247 1.1356 1.1127 1.0799
2015.782 1.0734 1.0785 1.0488 1.017 1.0964 1.1152 1.0913 1.2314 1.371 1.421
2035.072 1.441 1.461 1.511 1.551 1.551 1.521 1.531 1.571 1.551 1.521
2054.362 1.521 1.511 1.431 1.421 1.411 1.391 1.411 1.381 1.301 1.301
2073.651 1.331 1.341 1.351 1.341 1.321 1.2955 1.2953 1.271 1.2549 1.2662
2092.941 1.2538 1.2313 1.2294 1.2098 1.1919 1.2018 1.1461 1.0745 1.034 1.0067
2112.231 1.0072 1.0054 0.9383 0.8458 0.8344 0.8969 0.8647 0.8162 0.8289 0.7901
2131.521 0.7666 0.7502 0.7585 0.746 0.7034 0.6814 0.6981 0.7319 0.7032 0.7097
2150.810 0.7244 0.7243 0.7046 0.6524 0.6206 0.6627 0.7638 0.768 0.7057 0.756
2170.100 0.7742 0.7726 0.8004 0.8073 0.8336 0.8204 0.7464 0.7189 0.7248 0.7701
2189.390 0.8573 0.835 0.7375 0.6738 0.6275 0.6112 0.6416 0.6544 0.6816 0.6261
2208.680 0.5678 0.5899 0.5981 0.5823 0.5776 0.5679 0.5773 0.6738 0.7003 0.7124
2227.970 0.7209 0.7505 0.782 0.7524 0.7538 0.6941 0.7126 0.7534 0.7501 0.8019
2247.259 0.8471 0.8536 0.882 0.8765 0.874 0.9303 0.9665 1.0121 1.0625 1.0429
2266.549 1.0089 1.0347 1.0589 1.1214 1.1692 1.122 1.1417 1.1151 1.1302 1.2795
2285.839 1.255 1.2034 1.2336 1.301 1.311 1.331 1.371 1.391 1.361 1.296
2305.129 1.331 1.371 1.331 1.2888 1.2611 1.2243 1.1959 1.173 1.1713 1.2038
2324.418 1.2196 1.2087 1.177 1.1009 1.075 1.093 1.1229 1.1973 1.1244 1.0077
2343.708 1.0967 1.1533 1.0557 1.026 0.9965 0.9951 1.0382 0.9699 0.9414 0.9452
2362.998 0.9566 0.894 0.8464 0.8277 0.8373 0.8905 0.8688 0.8511 0.8792 0.9397
2382.288 0.9643 0.8881 0.8269 0.8267 0.8454 0.8488 0.8584 0.9262 0.9252 0.8861
2401.578 0.8729 0.8772 0.8942 0.9151 0.9254 1.013 0.9905 0.9695 1.0674 0.9922
2420.867 0.9676 0.98 0.8984 0.8642 0.8883 0.9256 0.9165 0.8704 0.8073 0.7798
2440.157 0.8085 0.7595 0.6967 0.7697 0.7125 0.5221 0.4837 0.5218 0.606 0.651
2459.447 0.6983 0.7469 0.7535 0.8345 0.9115 0.9284 1.0251 1.085 1.0933 1.1963
2478.737 1.278 1.311 1.2744 1.254 1.298 1.213 1.1322 1.1657 1.0935 1.0104
2498.026 0.9537 0.9004 0.7839 0.671 0.6152 0.5367 0.5017 0.4718 0.5158 0.5544
2517.316 0.5586 0.6495 0.6801 0.7867 0.8589 0.8345 0.8957 0.8911 0.9733 1.0304
2536.606 1.0227 1.0717 1.1283 1.0846 0.9495 0.9144 0.8544 0.8037 0.8183 0.8723
2555.896 0.8613 0.7953 0.7961 0.7813 0.8326 0.8951 0.8859 0.8716 0.9167 0.9245
2575.186 0.8896 0.9298 0.9961 0.9679 0.9596 0.8823 0.8071 0.8609 0.8264 0.8252
2594.475 0.8091 0.7713 0.6885 0.7121 0.792 0.7686 0.7854 0.7817 0.7981 0.7689
2613.765 0.6791 0.6743 0.7258 0.7792 0.7199 0.6272 0.5974 0.5555 0.5356 0.4847
2633.055 0.425 0.4156 0.4792 0.5414 0.4526 0.461 0.4981 0.37678 0.34563 0.40072
2652.345 0.4154 0.35324 0.31629 0.33069 0.33917 0.2875 0.2904 0.35064 0.39117 0.462
2671.634 0.446 0.41 0.4688 0.48 0.4552 0.4867 0.5196 0.5156 0.4797 0.4939
2690.924 0.5345 0.5762 0.6231 0.5727 0.5267 0.6272 0.6419 0.6106 0.655 0.6046
2710.214 0.4853 0.4797 0.5739 0.6244 0.6792 0.6715 0.6624 0.6571 0.6173 0.6738
2729.504 0.6606 0.6239 0.6659 0.706 0.757 0.7087 0.6555 0.6726 0.6769 0.6581
2748.794 0.6416 0.6683 0.6284 0.6153 0.6487 0.6156 0.5523 0.5749 0.6073 0.5704
2768.083 0.5311 0.5619 0.6088 0.6527 0.6528 0.5315 0.6274 0.7371 0.6916 0.7177
2787.373 0.7024 0.5703 0.5477 0.5955 0.5841 0.5092 0.38923 0.4156 0.417 0.4287
2806.663 0.405 0.34811 0.39269 0.39372 0.4261 0.5318 0.5344 0.4244 0.4296 0.5103
2825.953 0.5606 0.5515 0.4652 0.36477 0.38154 0.4929 0.4869 0.39276 0.36413 0.4308
2845.242 0.5229 0.5324 0.503 0.5255 0.5491 0.6721 0.5836 0.4199 0.4537 0.4196
2864.532 0.4326 0.5111 0.5657 0.6418 0.6007 0.5206 0.5478 0.5511 0.5089 0.5523
2883.822 0.6247 0.6549 0.6057 0.6188 0.6419 0.6075 0.5793 0.4923 0.5793 0.6528
2903.112 0.721 0.7994 0.7459 0.8043 0.8526 0.7147 0.6239 0.6528 0.5854 0.6055
2922.401 0.6423 0.5414 0.508 0.4438 0.4914 0.5349 0.5021 0.7197 0.7769 0.6447
2941.691 0.5517 0.5577 0.6439 0.6284 0.5498 0.6384 0.7096 0.4978 0.4487 0.5393
2960.981 0.577 0.5024 0.5508 0.533 0.35085 0.3989 0.38404 0.29179 0.2583 0.2565
2980.271 0.29999 0.38263 0.3439 0.30724 0.4177 0.4212 0.2841 0.2397 0.4195 0.5247
2999.561 0.5155 0.4032 0.308548 0.34409 0.29194 0.29773 0.4362 0.489 0.4559 0.4193
3018.850 0.5065 0.7241 0.9897 1.301 1.671 2.021 2.361 2.901 3.561 4.231
3038.140 4.941 5.721 6.501 7.121 7.551 7.771 7.961 8.121 8.041 7.841
3057.430 7.431 6.811 6.281 5.611 5.011 4.571 4.201 3.831 3.481 3.321
3076.720 3.051 2.781 2.431 2.111 1.931 1.741 1.581 1.491 1.361 1.137
3096.009 1.0584 0.9481 0.7516 0.6805 0.6786 0.6484 0.5479 0.4652 0.36785 0.4075
3115.299 0.453 0.31329 0.4213 0.5168 0.36267 0.2432 0.2436 0.2874 0.33668 0.304866
3134.589 0.35787 0.5443 0.5465 0.35416 0.2374 0.37129 0.406 0.33894 0.35899 0.31656
3153.879 0.31425 0.32641 0.2737 0.142 0.1 0.04 0.101 0.35605 0.4461 0.2663
3173.169 0.191 0.122 0.128 0.2677 0.187 0.092 0.073 0.2149 0.2876 0.115
3192.458 0.179 0.34639 0.4354 0.4981 0.4098 0.4288 0.4645 0.5171 0.5478 0.6182
3211.748 0.7582 0.9222 0.9623 0.8143 0.8609 0.9154 0.9706 1.1494 1.125 1.0178
3231.038 1.029 1.007 0.8352 0.9047 1.1112 1.0452 1.0074 1.1641 1.321 1.361
3250.328 1.2592 1.1855 1.1874 1.1156 1.121 1.1334 0.9874 0.8141 0.8376 0.8537
3269.617 0.8554 0.7775 0.7018 0.7235 0.5317 0.4338 0.4843 0.5447 0.4957 0.4419
3288.907 0.6056 0.5293 0.127 0.09 0.36171 0.437 0.3847 0.2587 0.178 0.17
3308.197 0.155 0.2302 0.165 0.156 0.15 0.073 0.2217 0.149 0.157 0.2846
3327.487 0.29297 0.29827 0.2456 0.2179 0.2575 0.2114 0.111 0.2412 0.35779 0.2152
3346.777 0.107 0.179 0.185 0.14 0.09 0.2831 0.4245 0.38784 0.5068 0.525
3366.066 0.5415 0.5476 0.7178 1.0015 0.9726 0.9862 1.214 1.441 1.541 1.791
3385.356 2.031 2.431 2.971 3.301 3.781 4.451 5.061 5.641 6.331 7.031
3404.646 7.571 7.951 8.481 8.941 9.001 8.891 8.901 8.841 8.431 7.811
3423.936 7.061 6.171 5.531 5.171 4.481 3.701 3.151 2.661 2.491 2.411
3443.225 2.031 1.731 1.671 1.551 1.511 1.591 1.701 1.671 1.611 1.781
3462.515 2.021 2.241 2.431 2.671 2.851 3.221 3.721 4.041 4.291 4.621
3481.805 5.121 5.681 5.951 5.991 6.071 6.031 5.951 6.141 6.441 6.621
3501.095 6.621 6.361 5.871 5.251 4.741 4.381 4.081 3.881 3.691 3.291
3520.385 2.751 2.371 2.051 1.911 1.661 1.2935 1.2886 1.2754 0.9832 0.8338
3539.674 0.7766 0.6917 0.7118 0.6875 0.584 0.5492 0.5627 0.40085 0.303697 0.37581
3558.964 0.36156 0.4069 0.5465 0.491 0.36642 0.38815 0.32421 0.191 0.183 0.2177
3578.254 0.17 0.115 0.093 0.078 0.197 0.2697 0.164 0.2745 0.31491 0.17
3597.544 0.097 0.129 0.179 0.129 0.069 0 0.105 0.193 0.2295 0.2453
3616.833 0.194 0.029 0.099 0.32951 0.38553 0.2557 0.046 0.086 0.098 0.118
3636.123 0.35086 0.39643 0.32025 0.2719 0.306398 0.5016 0.39075 0.308214 0.29536 0.2807
3655.413 0.32294 0.304227 0.2078 0.127 0.056 0.012 0.108 0.2462 0.19 0.083
3674.703 0.184 0.108 0.2394 0.4011 0.3295 0.2034 0.17 0.2528 0.192 0.243
3693.993 0.3361 0.32218 0.2796 0.14 0.04 0.2049 0.31932 0.36044 0.39398 0.39687
3713.282 0.32468 0.3184 0.459 0.4358 0.33568 0.2952 0.2795 0.2721 0.289 0.2801
3732.572 0.35945 0.37819 0.2736 0.2537 0.2425 0.36497 0.38832 0.307943 0.35447 0.2777
3751.862 0.2037 0.2461 0.2895 0.2322 0.2498 0.2681 0.2028 0.2897 0.4372 0.479
3771.152 0.37333 0.3274 0.2881 0.31547 0.33889 0.178 0.2747 0.429 0.37153 0.28
3790.441 0.185 0.136 0.36359 0.4462 0.30339 0.38811 0.524 0.5615 0.515 0.36157
3809.731 0.2014 0.18 0.301456 0.2131 0.146 0.36342 0.4368 0.4568 0.4202 0.35638
3829.021 0.39683 0.5329 0.4901 0.38707 0.4407 0.36151 0.39263 0.4372 0.4365 0.5529
3848.311 0.5444 0.604 0.7888 0.8378 0.773 0.7735 0.7771 0.6872 0.6332 0.622
3867.601 0.6322 0.6575 0.7515 0.7041 0.5019 0.4591 0.4866 0.4312 0.37264 0.35642
3886.890 0.32235 0.4186 0.5628 0.5285 0.4711 0.4475 0.4015 0.37989 0.4964 0.5247
3906.180 0.4415 0.5941 0.6183 0.5552 0.5137 0.4333 0.4592 0.39444 0.34877 0.35376
3925.470 0.5124 0.6236 0.4896 0.5267 0.5195 0.3413 0.4541 0.6193 0.5759 0.5668
3944.760 0.39792 0.37671 0.4172 0.39879 0.4689 0.32281 0.3119 0.2552 0.2684 0.37262
3964.049 0.39859 0.4268 0.4657 0.4689 0.39982 0.4209 0.4134 0.38083 0.37511 0.38361
3983.339 0.198 0.2047 0.38116 0.37164 0.4736 0.4702 0.4953 0.5047 0.4762 0.4488
##END=
