##TITLE=2-Methoxyethyl isothiocyanate
##JCAMP-DX=4.24
##DATA TYPE=INFRARED SPECTRUM
##ORIGIN=EPA-IR VAPOR PHASE LIBRARY
##OWNER=SRD/NIST
Collection (C) 2018 copyright by the U.S. Secretary of Commerce
on behalf of the United States of America. All rights reserved.
##CAS REGISTRY NO=38663-85-3
##MOLFORM=C 4 H 7 N O S
##$NIST SOURCE=MSDC-IR
##STATE=gas
##XUNITS=1/CM
##YUNITS=ABSORBANCE
##XFACTOR=1.
##YFACTOR=0.001
##DELTAX=1.92898
##FIRSTX=549.8
##LASTX=4000.7
##FIRSTY=13.218
##MAXX=4000.7
##MINX=549.759
##MAXY=0.378168
##MINY=0
##NPOINTS=1790
##XYDATA=(X++(Y..Y))
549.759 13.218 13.238 13.158 13.368 13.418 12.958 12.668 12.568 12.348 11.778
569.049 11.198 10.508 10.138 10.258 10.348 10.008 9.188 8.818 8.588 8.328
588.339 7.918 7.318 7.118 6.788 6.278 6.048 6.018 5.778 5.638 5.518
607.628 5.178 4.978 4.798 4.638 4.368 3.768 3.458 3.498 3.308 3.338
626.918 3.348 3.288 3.478 3.598 3.568 3.338 3.168 3.068 2.928 3.098
646.208 3.338 3.348 3.318 3.318 3.358 3.528 3.628 3.638 3.808 4.088
665.498 4.278 4.578 4.898 4.988 4.878 4.998 5.258 5.118 5.168 5.518
684.787 5.268 4.948 5.168 5.268 5.268 5.438 5.638 5.728 5.858 6.108
704.077 6.348 6.468 6.618 6.678 6.788 6.688 6.668 6.838 6.478 6.058
723.367 5.748 5.528 5.248 4.828 4.488 4.078 3.738 3.338 3.128 2.998
742.657 2.678 2.368 2.058 2.088 2.098 1.768 1.838 1.988 1.838 1.798
761.947 1.558 1.428 1.578 1.668 1.648 1.608 1.648 1.768 1.878 1.758
781.236 1.818 2.108 2.028 1.928 1.888 1.888 2.088 2.358 2.498 2.558
800.526 2.618 2.638 2.718 3.098 3.388 3.538 3.728 3.958 4.528 5.128
819.816 5.318 5.418 5.808 6.298 6.568 6.528 6.898 7.218 7.028 6.968
839.106 6.778 6.338 5.928 5.368 4.888 4.548 4.278 3.968 3.758 3.898
858.395 3.608 2.928 2.588 2.648 2.748 2.528 2.528 2.658 2.488 2.458
877.685 2.378 2.278 2.538 2.578 2.478 2.668 2.768 2.878 2.998 3.048
896.975 3.268 3.448 3.488 3.768 3.958 4.058 4.458 4.548 4.458 4.588
916.265 4.888 5.228 5.468 5.548 5.678 5.978 6.318 6.538 6.618 6.878
935.555 7.148 7.388 7.558 7.608 7.828 7.838 7.698 7.828 8.108 8.278
954.844 8.268 8.388 8.558 8.548 8.528 8.498 8.508 8.438 8.558 8.518
974.134 8.158 8.078 8.228 8.458 8.678 8.658 8.618 8.848 8.858 8.868
993.424 8.878 8.908 9.168 9.478 9.748 9.998 10.108 10.208 10.518 10.898
1012.714 11.238 11.278 10.898 10.828 10.918 10.788 10.548 10.098 9.998 9.768
1032.003 9.048 8.798 8.728 8.548 8.868 9.088 9.068 9.028 9.308 9.808
1051.293 9.898 10.218 10.768 11.178 11.568 11.898 12.408 12.968 13.488 14.118
1070.583 14.528 15.278 16.158 17.568 18.668 18.878 19.048 19.898 21.308 21.848
1089.873 22.338 23.578 24.768 25.828 27.468 29.268 31.678 34.168 36.218 38.868
1109.163 42.368 46.138 50.498 55.318 60.278 65.778 70.908 75.508 79.368 83.248
1128.452 86.538 88.438 89.478 89.128 87.558 84.928 81.058 76.248 71.068 65.378
1147.742 59.488 54.308 49.388 44.288 40.398 37.388 34.658 32.328 30.378 28.428
1167.032 26.718 25.708 24.798 23.918 23.388 23.368 23.588 23.718 24.468 25.758
1186.322 27.078 28.518 29.408 29.908 30.448 31.118 31.778 31.648 30.728 29.918
1205.611 28.438 26.378 24.708 22.388 19.618 17.448 15.528 13.708 12.808 12.438
1224.901 11.498 10.978 11.028 11.138 11.188 10.768 10.318 10.578 11.088 10.968
1244.191 10.698 10.518 10.508 10.488 10.338 10.338 10.288 9.998 9.788 9.618
1263.481 9.738 9.888 9.538 9.528 9.808 9.898 10.028 10.178 10.118 10.148
1282.771 10.278 10.298 10.578 10.878 11.018 11.478 12.128 12.818 13.698 14.808
1302.060 16.128 17.688 19.208 20.398 21.208 21.758 22.088 22.398 22.698 22.768
1321.350 22.648 22.608 22.928 23.828 25.438 27.898 31.178 34.968 38.908 42.468
1340.640 45.108 46.248 45.928 44.798 43.238 41.468 39.528 36.818 33.068 28.758
1359.930 24.398 20.518 17.478 15.328 13.888 12.988 12.338 11.838 11.518 11.248
1379.219 10.948 10.638 10.278 9.848 9.408 9.008 8.688 8.278 7.838 7.428
1398.509 7.068 6.748 6.478 6.178 5.918 5.808 5.678 5.608 5.668 5.808
1417.799 5.988 6.198 6.498 6.768 7.268 7.928 8.708 9.858 11.358 13.248
1437.089 15.528 17.808 19.808 21.338 22.498 23.768 25.398 26.908 27.938 28.398
1456.378 27.888 26.308 24.338 22.538 21.068 19.738 18.448 17.008 15.478 13.998
1475.668 12.548 11.278 10.098 9.008 8.108 7.398 6.818 6.308 5.918 5.498
1494.958 5.128 4.798 4.478 4.188 3.958 3.748 3.498 3.318 3.088 2.918
1514.248 2.858 2.798 2.718 2.528 2.328 2.268 2.328 2.278 2.128 2.098
1533.538 2.068 1.958 1.898 1.838 1.758 1.768 1.718 1.608 1.598 1.588
1552.827 1.618 1.718 1.648 1.538 1.498 1.468 1.528 1.528 1.598 1.608
1572.117 1.458 1.458 1.538 1.558 1.488 1.418 1.2527 1.2306 1.3675 1.2841
1591.407 1.2954 1.2957 1.3258 1.398 1.2961 1.1623 1.198 1.2064 1.1096 1.1858
1610.697 1.2912 1.2732 1.239 1.269 1.2203 1.1652 1.2254 1.2663 1.2009 1.2159
1629.986 1.1694 1.0744 1.1062 1.1797 1.221 1.2167 1.2019 1.1808 1.2332 1.2668
1649.276 1.2177 1.2592 1.2535 1.2316 1.2961 1.2838 1.2617 1.2799 1.2488 1.215
1668.566 1.245 1.2734 1.2168 1.2028 1.1884 1.0866 1.0712 1.0973 1.0153 0.9297
1687.856 0.9407 0.9469 0.9665 0.9482 0.9733 1.0032 0.8782 0.8027 0.7757 0.7484
1707.146 0.7047 0.7231 0.8173 0.8156 0.847 0.9318 0.8564 0.8043 0.7888 0.7856
1726.435 0.8292 0.8571 0.8333 0.8437 0.9162 0.8914 0.8527 0.8823 0.8975 0.8224
1745.725 0.8311 0.8498 0.8256 0.8524 0.9007 0.8085 0.7267 0.7761 0.8107 0.8812
1765.015 0.872 0.8699 0.8087 0.7806 0.8493 0.8147 0.8603 0.9076 0.9124 0.9736
1784.305 0.9736 0.9234 0.95 0.9855 1.0177 1.106 1.1182 1.08 1.1326 1.1641
1803.594 1.137 1.118 1.1206 1.1381 1.1697 1.1478 1.1642 1.272 1.279 1.2873
1822.884 1.3377 1.3048 1.3084 1.3843 1.438 1.508 1.628 1.688 1.768 1.898
1842.174 1.998 2.078 2.138 2.238 2.298 2.368 2.458 2.578 2.688 2.798
1861.464 2.948 3.048 3.098 3.228 3.438 3.598 3.788 3.948 4.058 4.298
1880.754 4.608 4.868 5.028 5.178 5.468 5.698 5.978 6.278 6.518 6.828
1900.043 7.088 7.318 7.688 8.088 8.448 8.808 9.158 9.638 10.038 10.408
1919.333 10.998 11.508 11.948 12.388 12.938 13.668 14.298 14.878 15.638 16.508
1938.623 17.298 18.118 19.088 20.098 21.148 22.258 23.348 24.528 25.928 27.308
1957.913 28.708 30.308 31.988 33.828 35.728 37.628 39.758 42.088 44.518 47.118
1977.202 49.938 52.968 56.198 59.558 63.288 67.498 71.918 76.608 81.758 87.328
1996.492 93.188 99.378 105.978 113.068 120.588 128.528 136.928 145.698 154.818 164.218
2015.782 173.938 184.008 194.398 205.108 215.988 227.138 238.508 249.848 261.358 273.108
2035.072 284.618 296.158 307.618 318.638 329.308 339.258 348.238 356.018 363.038 369.018
2054.362 373.428 376.508 378.078 378.168 376.628 373.478 368.388 361.608 353.358 343.088
2073.651 330.888 317.378 302.968 288.128 272.908 257.788 243.208 228.888 215.128 202.308
2092.941 190.218 178.908 168.418 158.738 149.938 141.688 133.988 126.758 120.008 113.898
2112.231 108.298 103.078 98.318 94.078 90.238 86.658 83.418 80.478 77.668 75.108
2131.521 72.798 70.528 68.378 66.548 64.848 63.178 61.558 59.998 58.628 57.308
2150.810 56.008 54.758 53.628 52.498 51.278 50.138 49.048 47.878 46.718 45.618
2170.100 44.608 43.668 42.648 41.688 40.848 40.058 39.278 38.598 37.988 37.368
2189.390 36.788 36.418 36.108 35.868 35.618 35.348 35.248 35.058 34.978 35.018
2208.680 35.018 34.968 34.878 34.848 34.728 34.448 34.068 33.588 32.988 32.328
2227.970 31.538 30.538 29.508 28.458 27.198 25.908 24.558 23.308 22.148 20.878
2247.259 19.728 18.568 17.438 16.398 15.408 14.478 13.578 12.798 12.118 11.398
2266.549 10.718 10.118 9.568 9.058 8.608 8.238 7.848 7.438 7.058 6.748
2285.839 6.378 6.078 5.848 5.638 5.428 5.088 4.898 4.758 4.618 4.418
2305.129 4.138 4.038 3.988 3.788 3.618 3.518 3.428 3.358 3.268 3.188
2324.418 3.058 2.948 2.908 2.808 2.718 2.698 2.688 2.628 2.538 2.438
2343.708 2.448 2.398 2.258 2.218 2.108 2.098 2.148 2.078 2.148 2.208
2362.998 2.158 2.108 2.018 2.018 1.998 1.908 1.868 1.878 1.868 1.858
2382.288 1.908 1.828 1.768 1.858 1.928 1.828 1.738 1.838 1.918 1.878
2401.578 1.788 1.678 1.748 1.748 1.688 1.768 1.708 1.608 1.598 1.618
2420.867 1.608 1.458 1.388 1.478 1.578 1.588 1.528 1.488 1.518 1.438
2440.157 1.3607 1.488 1.468 1.3512 1.3142 1.2796 1.3326 1.3753 1.333 1.3711
2459.447 1.408 1.388 1.398 1.3541 1.2989 1.3 1.408 1.498 1.418 1.3573
2478.737 1.3283 1.3112 1.326 1.3372 1.3516 1.3138 1.388 1.508 1.568 1.538
2498.026 1.488 1.498 1.488 1.538 1.548 1.528 1.568 1.588 1.618 1.718
2517.316 1.778 1.778 1.808 1.788 1.808 1.858 1.808 1.728 1.718 1.758
2536.606 1.818 1.868 1.928 1.918 1.778 1.808 1.918 1.998 2.018 1.848
2555.896 1.778 1.948 1.988 2.128 2.318 2.238 2.248 2.318 2.258 2.278
2575.186 2.458 2.538 2.488 2.498 2.518 2.528 2.548 2.428 2.288 2.318
2594.475 2.378 2.388 2.358 2.358 2.268 2.098 2.068 1.948 1.858 1.928
2613.765 1.928 1.928 1.758 1.638 1.708 1.698 1.758 1.808 1.728 1.718
2633.055 1.648 1.548 1.688 1.728 1.568 1.598 1.708 1.698 1.768 1.788
2652.345 1.818 1.828 1.878 1.998 1.968 1.978 2.098 2.198 2.348 2.418
2671.634 2.468 2.708 2.908 2.948 2.978 3.098 3.288 3.448 3.508 3.628
2690.924 3.768 3.798 3.798 3.858 4.028 4.258 4.538 4.658 4.778 5.058
2710.214 5.268 5.378 5.698 6.038 6.218 6.568 6.818 7.008 7.398 7.778
2729.504 8.038 8.368 8.668 8.848 8.988 9.188 9.428 9.618 9.778 9.768
2748.794 9.708 9.618 9.588 9.458 9.278 9.158 8.888 8.718 8.598 8.518
2768.083 8.388 8.158 8.098 7.928 7.878 8.008 8.018 8.008 8.128 8.218
2787.373 8.298 8.638 8.838 8.978 9.278 9.748 10.318 10.778 11.308 12.108
2806.663 12.998 13.968 15.088 16.148 17.248 18.418 19.738 21.198 22.628 23.968
2825.953 25.368 26.768 27.668 28.398 29.038 29.488 29.818 30.078 30.298 30.268
2845.242 30.288 30.328 30.228 30.178 30.188 30.318 30.558 31.078 31.658 32.328
2864.532 33.098 33.918 34.768 35.618 36.598 37.678 38.648 39.628 40.738 41.828
2883.822 42.618 43.138 43.728 44.158 44.278 44.198 43.958 43.418 42.848 42.208
2903.112 41.328 40.558 39.888 39.378 39.018 38.778 38.758 39.008 39.488 40.288
2922.401 41.468 42.758 44.478 46.428 48.318 50.308 52.128 53.438 54.288 54.858
2941.691 55.348 55.538 55.478 55.108 54.058 52.538 50.668 48.608 46.558 44.448
2960.981 42.318 40.438 38.538 36.298 34.088 32.088 30.198 28.628 27.228 25.988
2980.271 24.968 24.078 23.498 23.188 22.858 22.778 23.088 23.308 23.288 23.018
2999.561 22.178 21.268 20.398 19.408 18.478 17.198 15.668 14.108 12.568 11.218
3018.850 10.138 9.408 8.788 8.228 7.668 7.188 6.708 6.308 6.138 5.738
3038.140 5.468 5.288 4.978 4.768 4.588 4.348 4.148 4.008 3.868 3.788
3057.430 3.648 3.458 3.328 3.318 3.368 3.248 2.938 2.828 2.918 2.878
3076.720 2.728 2.698 2.688 2.488 2.458 2.528 2.448 2.318 2.198 2.108
3096.009 2.038 1.888 1.628 1.868 1.938 1.658 1.718 1.858 1.808 1.668
3115.299 1.598 1.428 1.568 1.638 1.568 1.618 1.648 1.488 1.189 1.1339
3134.589 1.1251 1.0516 1.1061 1.1164 1.1531 1.167 1.047 1.0585 0.941 0.8442
3153.879 0.919 0.8773 0.7478 0.7594 0.7626 0.7987 0.8692 0.8502 0.9667 0.8771
3173.169 0.6824 0.7932 0.8722 0.697 0.6095 0.6618 0.5999 0.47914 0.48762 0.5363
3192.458 0.5555 0.6191 0.5936 0.5157 0.5575 0.5318 0.43569 0.5832 0.6676 0.5979
3211.748 0.5903 0.47428 0.38649 0.6524 0.7557 0.41159 0.3663 0.43588 0.43778 0.6129
3231.038 0.6266 0.434 0.3731 0.3726 0.337 0.252 0.066 0.01 0.213 0.127
3250.328 0.174 0.391563 0.3472 0.401 0.41264 0.244 0.271 0.396936 0.3339 0.3503
3269.617 0.388749 0.5023 0.496 0.3741 0.3077 0.365 0.3327 0.2931 0.48491 0.46087
3288.907 0.3745 0.40067 0.37809 0.37906 0.2956 0.205 0.2895 0.248 0.176 0.265
3308.197 0.3214 0.191 0.3313 0.48369 0.328 0.255 0.3458 0.5084 0.41434 0.3183
3327.487 0.273 0.106 0.043 0.036 0.249 0.43322 0.3173 0.263 0.281 0.217
3346.777 0.246 0.41387 0.4168 0.3639 0.5003 0.5535 0.215 0.141 0.40026 0.3466
3366.066 0.3769 0.5292 0.43276 0.3728 0.391078 0.47343 0.48024 0.3489 0.3584 0.241
3385.356 0.237 0.5729 0.6297 0.44872 0.38025 0.3484 0.41355 0.43997 0.3273 0.47697
3404.646 0.47062 0.40293 0.44212 0.273 0.137 0.254 0.5201 0.6454 0.5432 0.3364
3423.936 0.38603 0.3496 0.253 0.3199 0.3355 0.3446 0.3728 0.3401 0.38252 0.3623
3443.225 0.15 0.3252 0.2975 0 0.04 0.074 0.22 0.3055 0.3054 0.38478
3462.515 0.4778 0.44898 0.3021 0.3035 0.207 0.125 0.268 0.395541 0.47071 0.5078
3481.805 0.49 0.2937 0.258 0.3259 0.3112 0.3001 0.193 0.117 0.256 0.3236
3501.095 0.126 0.149 0.3016 0.285 0.3008 0.5176 0.5183 0.286 0.157 0.192
3520.385 0.198 0.199 0.3569 0.285 0.236 0.38492 0.3569 0.3446 0.3742 0.41398
3539.674 0.42937 0.43235 0.361 0.397147 0.38533 0.3619 0.4187 0.38143 0.391439 0.5041
3558.964 0.5583 0.5483 0.4892 0.251 0.061 0.142 0.3795 0.5925 0.5552 0.329
3578.254 0.212 0.067 0.3125 0.3743 0.025 0.066 0.175 0.082 0.181 0.45334
3597.544 0.3407 0.187 0.283 0.268 0.235 0.5149 0.7458 0.6075 0.41089 0.3222
3616.833 0.2945 0.3499 0.5067 0.5174 0.2956 0.019 0.041 0.196 0.144 0.252
3636.123 0.3536 0.40046 0.3752 0.3143 0.395219 0.3339 0.209 0.38179 0.6058 0.5113
3655.413 0.238 0.289 0.5273 0.45101 0.47004 0.43574 0.236 0.226 0.287 0.3269
3674.703 0.44162 0.5261 0.5289 0.5493 0.5661 0.5721 0.6314 0.5827 0.2981 0.113
3693.993 0.23 0.2931 0.282 0.43611 0.45947 0.44535 0.5634 0.5323 0.46918 0.396025
3713.282 0.3382 0.40349 0.396118 0.3462 0.43014 0.42861 0.388333 0.5041 0.5191 0.41448
3732.572 0.3424 0.47879 0.5784 0.6368 0.6347 0.501 0.6423 0.5956 0.364 0.38296
3751.862 0.5039 0.545 0.5316 0.5535 0.5869 0.5453 0.44082 0.4911 0.48294 0.40511
3771.152 0.48126 0.5723 0.6434 0.7882 0.8067 0.6802 0.6917 0.5419 0.47155 0.6923
3790.441 0.751 0.7257 0.8114 0.7278 0.5877 0.6387 0.7742 0.8038 0.6284 0.5514
3809.731 0.5239 0.5578 0.5379 0.5682 0.6875 0.6774 0.6065 0.42309 0.47259 0.6457
3829.021 0.7233 0.8139 0.5763 0.43276 0.5501 0.6484 0.8757 0.7994 0.7193 0.7833
3848.311 0.7592 0.8232 0.8008 0.782 0.6448 0.573 0.7195 0.7529 0.8832 0.9705
3867.601 0.7827 0.7984 0.8587 0.8202 0.9735 0.9458 0.9347 1.0154 0.966 0.9161
3886.890 0.826 0.8224 0.7762 0.8482 1.0516 1.1393 1.0078 0.9949 1.0286 0.9473
3906.180 1.0252 1.0475 1.1018 1.0673 0.9338 0.8863 1.0017 1.1027 1.0569 1.2079
3925.470 1.3068 1.2108 1.2235 1.2394 1.2455 1.2245 1.3286 1.418 1.528 1.458
3944.760 1.2075 1.2319 1.361 1.3868 1.538 1.688 1.568 1.408 1.3399 1.468
3964.049 1.648 1.668 1.508 1.388 1.568 1.828 1.858 1.768 1.678 1.768
3983.339 1.828 1.838 1.908 1.858 1.788 1.958 1.958 1.858 1.818 1.708
##END=
