##TITLE=2-(3-Methoxyphenyl)-5-phenyloxazole
##JCAMP-DX=4.24
##DATA TYPE=INFRARED SPECTRUM
##ORIGIN=EPA-IR VAPOR PHASE LIBRARY
##OWNER=SRD/NIST
Collection (C) 2018 copyright by the U.S. Secretary of Commerce
on behalf of the United States of America. All rights reserved.
##CAS REGISTRY NO=38705-20-3
##MOLFORM=C 16 H 13 N O 2
##$NIST SOURCE=MSDC-IR
##STATE=gas
##XUNITS=1/CM
##YUNITS=ABSORBANCE
##XFACTOR=1.
##YFACTOR=0.001
##DELTAX=1.92898
##FIRSTX=549.8
##LASTX=4000.7
##FIRSTY=4.617
##MAXX=4000.7
##MINX=549.759
##MAXY=0.122557
##MINY=0
##NPOINTS=1790
##XYDATA=(X++(Y..Y))
549.759 4.617 4.637 4.957 4.737 4.257 4.857 5.547 5.797 5.727 5.957
569.049 6.277 6.417 6.447 6.317 6.177 5.167 4.237 4.127 3.897 3.697
588.339 2.987 3.127 3.067 2.627 2.837 2.817 2.717 2.647 2.687 2.417
607.628 2.427 2.727 2.847 2.497 1.917 1.597 1.857 2.407 2.407 2.317
626.918 2.307 2.457 2.897 3.117 3.117 3.447 4.057 4.577 4.717 4.867
646.208 5.397 5.547 5.967 6.917 7.267 8.127 9.377 10.347 11.447 12.917
665.498 14.557 16.427 18.217 20.087 23.037 26.837 32.147 39.007 46.717 55.427
684.787 64.157 69.457 70.087 66.307 59.647 51.857 43.157 34.777 28.547 24.547
704.077 21.347 19.307 18.187 17.607 17.477 17.337 17.667 18.477 20.787 25.157
723.367 31.057 38.767 47.107 55.197 64.697 69.617 63.747 55.127 47.557 39.157
742.657 31.737 26.967 24.957 25.747 29.507 34.857 40.497 45.307 48.557 48.047
761.947 42.657 36.257 30.767 25.967 22.317 20.397 20.537 22.067 24.647 27.627
781.236 30.517 33.037 34.677 35.617 35.687 34.067 30.807 26.557 22.207 18.457
800.526 15.247 12.487 10.647 9.857 9.517 9.387 9.767 10.637 11.877 14.497
819.816 17.877 20.247 23.807 29.127 32.697 35.727 38.697 41.687 44.747 46.757
839.106 49.067 51.857 54.287 55.987 56.617 54.587 49.557 41.827 33.337 26.417
858.395 21.807 19.117 17.287 16.587 16.437 16.307 16.337 16.327 16.207 16.067
877.685 16.207 15.877 15.187 15.107 14.727 13.967 13.527 13.087 12.027 10.947
896.975 10.387 9.697 9.217 8.967 8.857 8.697 8.537 8.417 8.027 7.417
916.265 6.547 6.057 6.027 6.297 6.817 7.677 9.157 11.447 14.897 18.517
935.555 21.077 22.277 23.037 23.257 21.697 19.707 19.287 20.287 22.927 27.647
954.844 32.077 34.507 34.597 32.067 27.157 21.467 16.857 13.347 10.877 9.357
974.134 8.377 7.657 7.477 7.577 7.697 8.067 8.417 8.687 9.627 10.577
993.424 11.167 12.087 12.397 12.037 11.857 11.547 11.567 11.827 12.067 13.327
1012.714 15.377 17.007 19.557 23.717 28.747 35.037 42.567 48.997 52.787 55.287
1032.003 57.167 59.867 63.637 68.767 74.057 77.767 80.227 81.597 82.527 83.967
1051.293 84.157 81.927 79.297 74.907 68.047 59.767 50.907 42.507 35.457 30.067
1070.583 25.557 22.447 20.677 19.077 18.247 18.877 19.057 18.887 18.757 18.747
1089.873 18.327 16.817 15.787 15.427 13.677 12.397 11.527 10.547 10.987 11.687
1109.163 12.557 14.637 17.547 20.367 24.997 31.677 39.837 49.317 59.747 69.457
1128.452 74.537 74.707 69.927 60.827 49.307 38.617 30.737 23.507 18.967 16.577
1147.742 14.397 13.237 13.187 14.037 15.457 17.087 18.067 18.287 19.317 20.787
1167.032 21.337 21.637 22.657 24.467 27.207 29.107 29.697 30.867 30.777 29.727
1186.322 28.587 26.907 25.297 24.997 25.917 27.027 29.217 32.057 36.087 40.987
1205.611 45.917 53.067 61.817 69.667 77.047 83.457 85.797 84.277 79.877 72.307
1224.901 64.027 56.957 50.167 43.867 39.747 36.587 35.377 37.127 40.847 46.597
1244.191 54.597 64.597 74.167 81.147 85.097 84.337 77.917 68.207 58.557 51.757
1263.481 47.657 46.227 47.207 48.907 52.477 56.567 59.427 61.827 63.967 65.027
1282.771 65.267 64.867 62.617 59.107 54.637 50.047 46.757 45.207 45.037 45.477
1302.060 46.087 46.607 46.977 47.767 49.147 50.577 51.947 52.887 52.937 52.197
1321.350 50.587 48.127 45.267 42.367 39.947 38.227 36.917 35.947 35.237 34.347
1340.640 33.117 31.537 29.207 26.147 22.577 19.107 15.947 13.327 11.457 10.207
1359.930 9.237 8.347 7.847 7.457 7.087 6.787 6.507 6.387 6.377 6.337
1379.219 6.207 6.297 6.447 6.527 6.847 7.187 7.427 7.687 8.227 8.797
1398.509 9.187 9.807 10.667 11.527 12.567 13.667 14.667 15.727 16.957 18.367
1417.799 20.027 22.037 24.547 27.857 32.347 38.287 46.117 54.727 62.057 66.237
1437.089 66.927 64.057 58.617 53.567 50.167 48.367 47.717 47.947 49.267 51.547
1456.378 55.387 60.967 68.027 76.277 84.527 92.227 98.617 103.147 105.707 106.947
1475.668 107.097 106.907 107.777 110.677 115.117 119.887 122.557 120.727 113.117 99.767
1494.958 82.567 64.237 48.597 36.927 29.007 23.847 20.327 18.167 16.887 16.357
1514.248 16.247 16.427 17.057 17.767 18.717 20.067 22.147 25.137 29.137 34.157
1533.538 40.597 48.307 56.647 65.907 74.567 80.787 83.927 83.367 78.847 71.097
1552.827 62.027 53.307 46.497 41.777 39.427 38.977 39.887 41.817 44.317 46.867
1572.117 49.337 51.647 53.987 56.817 60.857 66.787 74.707 83.777 92.257 98.637
1591.407 101.507 100.707 96.737 91.007 85.347 80.867 77.347 74.847 72.977 70.637
1610.697 67.607 63.267 57.447 50.447 42.887 35.697 29.427 24.397 20.377 17.307
1629.986 15.057 13.317 12.027 11.087 10.527 10.297 10.287 10.487 10.977 11.517
1649.276 11.927 12.307 12.577 12.627 12.457 12.177 11.857 11.527 10.937 10.237
1668.566 9.637 8.937 8.077 7.407 6.777 6.227 5.897 5.667 5.477 5.087
1687.856 4.857 4.777 4.707 4.527 4.227 4.137 4.017 3.767 3.747 3.747
1707.146 3.657 3.587 3.637 3.737 3.797 3.947 3.987 3.937 3.997 4.177
1726.435 4.347 4.427 4.697 4.917 5.047 5.237 5.257 5.267 5.117 4.807
1745.725 4.677 4.557 4.317 4.227 4.187 4.087 3.997 3.947 3.897 3.997
1765.015 4.167 4.107 4.127 4.307 4.477 4.577 4.657 4.717 4.897 5.157
1784.305 5.317 5.407 5.607 5.787 5.747 5.637 5.427 5.097 4.747 4.357
1803.594 3.997 3.857 3.957 3.987 3.937 3.917 3.877 3.837 3.617 3.337
1822.884 3.127 2.987 2.987 3.057 3.167 3.287 3.417 3.397 3.517 3.627
1842.174 3.737 4.057 4.087 4.097 4.237 4.277 4.287 4.347 4.337 4.427
1861.464 4.617 4.637 4.737 4.957 4.827 4.627 4.607 4.587 4.527 4.567
1880.754 4.787 5.067 5.167 5.097 4.907 4.487 4.067 3.557 3.147 2.877
1900.043 2.617 2.587 2.577 2.517 2.567 2.777 3.047 3.267 3.537 3.937
1919.333 4.277 4.507 4.767 5.077 5.317 5.407 5.567 5.847 6.007 6.007
1938.623 5.907 5.707 5.377 4.997 4.637 4.397 4.417 4.417 4.507 4.757
1957.913 4.737 4.407 3.937 3.327 2.857 2.537 2.337 2.237 2.157 2.047
1977.202 1.987 1.987 2.007 2.087 2.187 2.227 2.077 1.927 1.897 1.987
1996.492 2.067 2.147 2.147 2.177 2.277 2.277 2.217 2.197 2.237 2.317
2015.782 2.347 2.257 2.147 2.157 2.257 2.337 2.407 2.447 2.377 2.457
2035.072 2.567 2.547 2.547 2.717 2.957 3.017 3.027 3.027 3.067 3.187
2054.362 3.417 3.587 3.647 3.667 3.777 3.877 3.857 3.817 3.747 3.707
2073.651 3.777 3.707 3.557 3.497 3.397 3.387 3.477 3.457 3.407 3.307
2092.941 3.207 3.337 3.427 3.237 3.127 3.117 3.057 2.837 2.687 2.547
2112.231 2.327 2.307 2.337 2.197 2.077 2.017 2.017 1.977 1.837 1.817
2131.521 1.757 1.647 1.637 1.657 1.647 1.697 1.677 1.567 1.487 1.507
2150.810 1.607 1.647 1.587 1.627 1.667 1.667 1.767 1.747 1.627 1.547
2170.100 1.577 1.687 1.817 1.697 1.567 1.727 1.897 1.967 1.967 1.797
2189.390 1.757 1.827 1.817 1.767 1.727 1.807 1.707 1.647 1.687 1.527
2208.680 1.537 1.617 1.607 1.507 1.497 1.507 1.507 1.647 1.627 1.527
2227.970 1.4221 1.507 1.497 1.3706 1.3018 1.2547 1.3331 1.4184 1.3681 1.3282
2247.259 1.447 1.437 1.4262 1.507 1.567 1.557 1.557 1.687 1.667 1.627
2266.549 1.697 1.747 1.587 1.487 1.597 1.687 1.707 1.477 1.4248 1.587
2285.839 1.597 1.557 1.667 1.697 1.657 1.717 1.817 1.947 1.907 1.857
2305.129 1.997 1.987 2.107 2.417 2.497 2.627 2.647 2.697 2.757 2.627
2324.418 2.387 2.467 2.557 2.567 2.547 2.507 2.667 2.657 2.537 2.307
2343.708 2.207 2.257 2.237 2.177 2.207 2.067 1.877 2.007 2.047 2.047
2362.998 1.917 1.847 1.837 1.747 1.617 1.567 1.787 1.707 1.647 1.887
2382.288 2.027 2.077 1.967 1.967 2.077 1.977 1.967 1.847 1.837 2.057
2401.578 2.167 2.207 2.217 2.177 2.187 2.257 2.337 2.427 2.467 2.507
2420.867 2.237 2.077 2.297 2.227 2.087 2.097 1.987 1.947 1.947 2.007
2440.157 2.137 2.207 2.277 2.267 2.007 2.127 2.297 2.077 2.077 2.017
2459.447 1.957 1.917 1.797 1.777 1.827 1.807 1.977 2.017 1.857 1.897
2478.737 2.027 1.917 1.867 2.087 2.187 2.257 2.227 2.117 2.137 2.147
2498.026 2.127 2.097 2.177 2.197 2.167 2.157 2.057 1.817 1.787 1.887
2517.316 1.987 1.977 1.907 2.017 1.987 1.857 1.727 1.877 2.057 1.977
2536.606 1.987 2.067 2.087 2.167 2.407 2.387 2.127 2.017 2.137 2.157
2555.896 2.167 2.317 2.337 2.527 2.577 2.467 2.387 2.397 2.377 2.307
2575.186 2.337 2.107 2.177 2.367 2.277 2.277 2.327 2.477 2.447 2.367
2594.475 2.477 2.557 2.517 2.587 2.777 2.907 2.847 2.807 2.777 2.687
2613.765 2.687 2.607 2.597 2.547 2.127 1.987 1.987 1.857 1.707 1.777
2633.055 1.987 2.037 2.137 2.027 1.977 2.047 1.877 1.727 1.787 1.647
2652.345 1.447 1.657 1.907 1.937 2.027 2.147 2.037 2.047 2.347 2.537
2671.634 2.587 2.667 2.547 2.517 2.527 2.427 2.447 2.207 1.937 1.867
2690.924 1.917 1.937 1.877 1.797 1.757 1.617 1.607 1.727 1.877 1.857
2710.214 1.477 1.477 1.477 1.497 1.587 1.787 1.837 1.677 1.697 1.707
2729.504 1.737 1.787 1.797 1.897 2.037 1.967 1.777 1.717 1.807 1.997
2748.794 2.107 2.167 2.287 2.197 2.207 2.247 2.187 2.237 2.177 2.157
2768.083 2.267 2.527 2.547 2.457 2.567 2.407 2.457 2.627 2.607 2.797
2787.373 2.857 2.647 2.517 2.617 3.077 3.287 3.217 3.287 3.697 3.977
2806.663 4.007 4.047 4.247 4.877 5.407 5.607 6.007 6.637 7.127 7.547
2825.953 7.997 8.867 9.887 10.727 12.147 14.177 16.507 18.877 20.837 22.177
2845.242 22.687 22.057 20.507 18.177 15.907 14.157 12.627 11.457 10.627 10.217
2864.532 9.887 9.427 9.267 9.387 9.437 9.197 9.137 9.427 9.297 9.207
2883.822 9.667 9.987 10.167 10.637 11.017 11.287 11.587 11.937 12.187 12.697
2903.112 13.287 13.707 14.207 14.687 15.277 15.847 16.287 16.657 17.067 17.547
2922.401 18.137 18.427 18.317 18.197 18.537 18.987 19.967 21.477 23.037 25.057
2941.691 27.417 29.967 32.347 33.627 34.097 33.917 32.887 31.657 30.207 28.897
2960.981 27.747 26.287 24.547 22.737 20.797 18.927 17.207 15.537 14.107 13.417
2980.271 13.207 12.897 12.927 13.297 13.577 14.027 15.047 16.177 17.867 20.027
2999.561 22.347 25.277 28.517 31.657 34.497 35.877 34.957 32.267 28.477 24.917
3018.850 22.037 19.757 18.567 18.027 17.747 18.067 18.857 19.807 20.607 21.467
3038.140 22.667 23.417 23.517 23.757 23.787 23.297 22.907 22.667 22.417 22.957
3057.430 24.267 25.857 28.597 32.157 36.187 41.147 46.347 50.807 53.467 54.107
3076.720 52.897 49.977 46.407 42.707 39.267 36.037 32.797 29.797 26.497 23.287
3096.009 20.527 18.147 16.437 14.607 13.357 12.807 12.107 11.367 10.477 9.637
3115.299 9.087 8.767 8.687 8.897 9.277 9.927 10.967 11.737 11.727 11.467
3134.589 10.937 9.847 8.807 8.077 7.427 6.877 6.267 5.477 4.927 4.447
3153.879 4.017 3.827 3.597 3.107 2.927 3.207 3.207 3.017 2.787 2.547
3173.169 2.397 2.127 2.147 2.277 2.207 1.867 1.677 1.737 1.767 1.697
3192.458 1.393 1.2955 1.3207 1.447 1.587 1.507 1.2659 1.3108 1.1553 0.894
3211.748 1.164 1.3799 1.1791 0.9382 1.1199 1.3144 1.1023 0.6377 0.3991 0.452063
3231.038 0.4284 0.44384 0.3885 0.54011 0.5672 0.207 0.51604 0.7288 0.7365 1.1077
3250.328 0.9173 0.7029 0.7949 0.6284 0.49446 0.50997 0.004 0.038 0.6848 0.8392
3269.617 0.6645 0.5797 0.7066 0.7796 0.51154 0.11 0.268 0.3562 0.448143 0.7996
3288.907 0.7656 0.46624 0.3595 0.314 0.51457 0.50478 0.347 0.4247 0.312 0.5085
3308.197 0.7031 0.5707 0.6006 0.48437 0.3575 0.279 0.241 0.199 0.3753 0.808
3327.487 0.6172 0.4064 0.52795 0.47999 0.46505 0.4368 0.6311 0.8393 0.726 0.54324
3346.777 0.46456 0.6306 0.5473 0.46128 0.4188 0.275 0.3781 0.6141 1.0002 0.9828
3366.066 0.29 0.101 0.322 0.314 0.46662 0.6153 0.261 0.082 0.46253 0.7416
3385.356 0.8899 0.9816 0.7624 0.50419 0.5587 0.7243 0.8662 0.8051 0.7117 0.3489
3404.646 0.238 0.6443 0.7969 0.3927 0.241 0.4173 0.424 0.7361 0.6683 0.276
3423.936 0.178 0.4213 0.8594 0.6074 0.208 0.6746 0.7967 0.3947 0.52082 0.209
3443.225 0 0.279 0.6363 0.7896 0.3897 0.243 0.5089 0.3814 0.1 0.48964
3462.515 0.46597 0.5774 0.9111 0.49404 0.197 0.52862 0.6712 0.6987 0.6144 0.48974
3481.805 0.8243 1.0989 0.8903 0.446423 0.53706 1.0626 1.3683 1.0345 0.6824 0.6231
3501.095 0.7812 0.8696 0.52421 0.336 0.46306 0.5978 0.299 0.193 0.071 0.291
3520.385 0.8521 0.6483 0.3837 0.3591 0.299 0.4258 0.5981 0.8546 0.7277 0.4224
3539.674 0.304 0.309 0.5964 0.6224 0.6833 0.52044 0.267 0.655 0.6714 0.47028
3558.964 0.5981 0.5674 0.6214 0.657 0.4019 0.3555 0.4165 0.3852 0.5729 0.7951
3578.254 0.6408 0.44516 0.5947 0.46247 0.5794 0.8165 0.5886 0.52597 0.52372 0.7118
3597.544 0.6417 0.48889 0.6001 0.6054 0.52853 0.50417 0.4023 0.284 0.52008 0.6945
3616.833 0.8235 0.8701 0.6528 0.52413 0.369 0.23 0.256 0.278 0.3894 0.50846
3636.123 0.50751 0.4035 0.5669 0.7055 0.7543 1.0504 0.8577 0.3479 0.4068 0.5775
3655.413 0.451742 0.6054 0.452547 0.326 0.8249 0.7933 0.50775 0.7442 0.6152 0.245
3674.703 0.6729 0.824 0.312 0.249 0.6516 0.8927 0.9239 0.8602 0.8331 0.7767
3693.993 0.8642 0.8524 0.7162 0.792 0.778 0.5221 0.48832 0.7832 1.0635 1.0091
3713.282 0.7077 0.7182 0.44053 0.257 0.51531 0.7048 0.7189 0.6567 0.6533 0.7913
3732.572 0.9421 1.1989 1.3307 1.0832 1.0494 1.0709 0.9838 0.7737 0.7922 0.7761
3751.862 0.47037 0.54613 0.9781 0.9952 0.7987 0.6153 0.6681 0.825 0.48973 0.322
3771.152 0.47771 0.6192 0.8904 0.54374 0.076 0.215 0.46313 0.7565 0.9153 0.9614
3790.441 0.7461 0.8991 0.7881 0.5713 0.7521 0.8466 0.7939 0.6449 0.46816 0.434
3809.731 0.339 0.135 0.43888 0.6216 0.7884 0.9741 0.9393 0.7274 0.7468 0.7653
3829.021 0.8911 1.1711 0.8516 0.34 0.204 0.287 0.3788 0.4327 0.4161 0.3718
3848.311 0.148 0.319 0.7902 0.6888 0.52416 0.5808 0.209 0.3822 0.8785 0.7476
3867.601 0.721 0.5547 0.373 0.4196 0.4245 0.6655 0.8632 0.5779 0.333 0.258
3886.890 0.305 0.424 0.452686 0.6745 1.0142 1.1994 1.1281 0.961 0.7669 0.7669
3906.180 0.8097 0.6685 0.51411 0.8049 1.2076 0.7486 0.5495 0.5016 0.5735 0.51378
3925.470 0.194 0.51183 0.272 0.136 0.266 0.49874 0.8661 0.5998 0.3743 0.116
3944.760 0.249 0.5812 0.5781 0.693 0.8946 0.9346 0.8723 0.6384 0.3798 0.4178
3964.049 0.3938 0.236 0.603 0.9132 0.8874 0.8268 1.0063 1.1742 1.009 0.9285
3983.339 0.739 0.679 1.0289 1.0461 0.9251 1.1582 1.1499 1.1387 0.9981 0.8725
##END=
