##TITLE=4-Butoxyphenylacetonitrile
##JCAMP-DX=4.24
##DATA TYPE=INFRARED SPECTRUM
##ORIGIN=EPA-IR VAPOR PHASE LIBRARY
##OWNER=SRD/NIST
Collection (C) 2018 copyright by the U.S. Secretary of Commerce
on behalf of the United States of America. All rights reserved.
##CAS REGISTRY NO=38746-93-9
##MOLFORM=C 12 H 15 N O
##$NIST SOURCE=MSDC-IR
##STATE=gas
##XUNITS=1/CM
##YUNITS=ABSORBANCE
##XFACTOR=1.
##YFACTOR=0.001
##DELTAX=1.92898
##FIRSTX=549.8
##LASTX=4000.7
##FIRSTY=2.803
##MAXX=4000.7
##MINX=549.759
##MAXY=0.155363
##MINY=0
##NPOINTS=1790
##XYDATA=(X++(Y..Y))
549.759 2.803 2.753 2.753 2.703 2.823 2.903 2.833 2.673 2.813 3.113
569.049 3.063 3.343 3.553 3.653 3.953 3.953 3.923 4.053 4.153 4.153
588.339 4.323 4.713 4.743 4.783 4.863 4.693 4.963 4.973 4.673 4.293
607.628 3.673 3.253 3.053 2.913 2.773 2.593 2.163 2.023 1.913 1.743
626.918 1.733 1.783 1.823 1.753 1.793 1.893 1.883 1.623 1.493 1.383
646.208 1.293 1.0822 0.9618 1.0871 1.0933 1.0695 1.1954 1.303 1.313 1.263
665.498 1.1854 1.333 1.483 1.663 1.823 1.843 1.823 1.843 1.853 2.063
684.787 2.433 2.463 2.413 2.603 2.593 2.443 2.553 2.753 2.633 2.533
704.077 2.613 2.573 2.453 2.363 2.403 2.563 2.643 2.723 2.683 2.583
723.367 2.703 2.803 2.843 3.033 3.223 3.283 3.373 3.323 3.203 3.473
742.657 3.683 3.553 3.393 3.443 3.633 3.903 4.053 4.213 4.433 4.633
761.947 4.843 4.893 5.013 5.063 5.173 5.333 5.353 5.483 5.563 5.623
781.236 5.983 6.533 6.813 7.183 7.843 8.403 8.923 9.703 10.683 11.653
800.526 12.793 13.903 14.813 15.823 17.023 18.043 19.003 19.653 20.393 21.303
819.816 21.753 21.933 21.713 21.093 20.253 19.283 18.213 17.173 15.883 14.603
839.106 13.643 12.683 11.693 10.653 9.563 8.663 8.053 7.503 7.003 6.533
858.395 6.333 6.353 6.273 6.273 6.383 6.633 6.793 7.003 7.313 7.413
877.685 7.263 7.033 6.693 6.203 5.843 5.463 5.283 5.153 4.903 4.773
896.975 4.583 4.573 4.553 4.603 4.623 4.493 4.323 4.173 4.103 3.923
916.265 3.743 3.643 3.743 3.853 3.553 3.453 3.603 3.643 3.913 4.123
935.555 4.253 4.523 4.863 5.163 5.573 5.943 6.083 6.423 6.773 7.003
954.844 7.743 8.503 8.793 9.123 9.563 10.143 10.763 11.373 11.993 12.493
974.134 12.633 12.523 12.383 12.073 11.693 11.193 10.903 10.723 10.433 10.613
993.424 10.893 11.233 11.833 12.613 13.853 15.603 17.473 19.603 21.943 23.863
1012.714 25.413 26.393 26.883 27.533 27.753 27.773 28.123 28.383 28.123 27.303
1032.003 26.103 25.063 23.973 22.433 20.933 19.493 17.693 15.883 14.553 13.583
1051.293 13.003 12.933 13.173 13.923 15.213 16.263 17.003 17.753 18.183 18.153
1070.583 17.663 16.573 15.573 14.193 12.593 11.163 9.743 9.083 8.803 8.163
1089.873 7.523 7.843 8.273 8.393 8.523 8.443 8.463 9.003 9.363 9.253
1109.163 9.563 9.663 9.773 10.183 10.183 9.963 9.793 9.603 9.143 8.313
1128.452 7.453 7.393 7.003 6.403 6.483 6.493 6.303 6.003 5.863 5.973
1147.742 6.093 5.963 6.183 6.543 6.923 7.453 8.253 9.823 11.883 15.203
1167.032 20.283 27.103 35.413 43.103 47.863 48.983 46.883 41.553 33.833 25.903
1186.322 20.063 16.683 14.673 13.803 13.723 13.653 14.053 15.393 16.993 18.963
1205.611 21.553 24.843 28.353 32.213 37.173 42.263 47.223 52.663 58.203 63.513
1224.901 68.333 72.763 77.773 83.573 90.103 98.373 108.403 119.363 130.863 141.913
1244.191 150.763 155.363 154.993 149.643 139.543 126.013 111.253 97.263 85.103 75.333
1263.481 67.883 62.683 58.753 55.563 53.343 51.303 49.303 47.193 45.073 42.973
1282.771 40.663 38.553 36.753 35.263 34.083 33.063 32.283 31.793 31.103 30.233
1302.060 29.253 28.023 26.583 24.803 22.803 20.713 18.763 16.953 15.373 14.283
1321.350 13.533 12.993 12.753 12.613 12.403 12.153 11.803 11.373 10.883 10.303
1340.640 9.693 9.073 8.543 8.083 7.633 7.293 7.073 6.833 6.643 6.563
1359.930 6.503 6.463 6.413 6.343 6.443 6.723 7.063 7.563 8.293 9.273
1379.219 10.513 11.893 13.283 14.453 15.213 15.393 14.903 13.963 12.733 11.303
1398.509 9.943 8.883 8.123 7.513 7.183 7.123 7.223 7.383 7.683 8.213
1417.799 8.923 9.933 11.413 13.413 15.363 16.333 16.463 16.323 15.363 13.433
1437.089 11.603 10.633 10.223 9.993 9.953 10.113 10.403 10.773 11.243 11.833
1456.378 12.503 13.423 14.543 15.893 17.663 19.803 22.123 24.353 26.193 27.303
1475.668 27.523 26.723 24.893 22.673 20.693 19.093 18.283 18.543 19.943 22.693
1494.958 27.063 33.533 42.763 55.423 72.013 92.093 114.213 134.053 146.393 148.953
1514.248 141.713 125.743 103.333 79.443 58.633 43.873 33.603 26.573 21.723 18.003
1533.538 15.163 13.053 11.453 10.123 9.083 8.333 7.733 7.243 6.833 6.553
1552.827 6.413 6.333 6.293 6.263 6.343 6.523 6.793 7.133 7.593 8.123
1572.117 8.763 9.563 10.503 11.473 12.403 13.263 14.003 14.483 14.743 14.933
1591.407 15.063 15.363 16.073 17.253 19.013 21.303 23.953 26.973 30.143 33.043
1610.697 35.343 36.613 36.343 34.383 31.033 26.873 22.323 17.863 14.073 11.143
1629.986 9.063 7.713 6.713 5.953 5.403 4.863 4.413 4.153 3.843 3.463
1649.276 3.203 3.073 2.863 2.683 2.483 2.243 2.103 2.033 1.953 1.863
1668.566 1.873 1.823 1.653 1.563 1.513 1.493 1.523 1.453 1.413 1.403
1687.856 1.323 1.383 1.403 1.413 1.453 1.413 1.453 1.493 1.413 1.393
1707.146 1.443 1.523 1.563 1.523 1.543 1.593 1.593 1.543 1.573 1.623
1726.435 1.663 1.713 1.773 1.793 1.773 1.893 1.953 2.003 2.153 2.263
1745.725 2.333 2.453 2.593 2.683 2.683 2.663 2.683 2.673 2.553 2.393
1765.015 2.313 2.193 2.003 1.863 1.773 1.663 1.583 1.513 1.403 1.363
1784.305 1.313 1.2245 1.2091 1.2078 1.1635 1.0976 1.0763 1.0726 1.0676 1.0744
1803.594 1.0773 1.0535 1.0393 1.0443 1.0297 1.0551 1.0734 1.0983 1.1231 1.1116
1822.884 1.0984 1.1231 1.1437 1.1607 1.2234 1.2223 1.283 1.363 1.363 1.443
1842.174 1.523 1.593 1.683 1.713 1.773 1.883 1.993 2.023 2.003 2.003
1861.464 2.043 2.053 2.013 1.973 2.003 2.053 2.023 1.973 1.953 1.983
1880.754 2.063 2.133 2.123 2.143 2.153 2.153 2.233 2.203 2.093 2.123
1900.043 2.123 2.063 2.033 1.933 1.783 1.673 1.593 1.473 1.383 1.353
1919.333 1.313 1.283 1.222 1.1891 1.1536 1.1598 1.2255 1.273 1.283 1.293
1938.623 1.263 1.2311 1.273 1.323 1.233 1.243 1.263 1.1886 1.1906 1.233
1957.913 1.263 1.273 1.333 1.363 1.343 1.333 1.373 1.473 1.523 1.513
1977.202 1.553 1.583 1.643 1.633 1.583 1.603 1.693 1.723 1.663 1.693
1996.492 1.743 1.793 1.833 1.853 1.853 1.883 1.923 1.933 1.923 1.873
2015.782 1.873 1.973 2.033 1.993 1.993 1.943 1.883 1.873 1.873 1.843
2035.072 1.803 1.853 1.853 1.803 1.733 1.713 1.783 1.793 1.753 1.713
2054.362 1.673 1.673 1.653 1.643 1.633 1.603 1.623 1.583 1.523 1.503
2073.651 1.493 1.483 1.443 1.393 1.333 1.343 1.433 1.423 1.333 1.323
2092.941 1.313 1.1926 1.1203 1.2182 1.253 1.101 1.0408 1.1336 1.1492 1.0954
2112.231 1.0407 0.9596 0.9536 0.9381 0.8868 0.8828 0.8564 0.8584 0.8663 0.8434
2131.521 0.8571 0.8322 0.7759 0.8034 0.7949 0.7859 0.7906 0.7365 0.7071 0.6782
2150.810 0.7068 0.7196 0.6609 0.628 0.5783 0.5452 0.5631 0.5436 0.5609 0.6274
2170.100 0.6245 0.5842 0.5539 0.5445 0.5422 0.5088 0.4671 0.5711 0.6241 0.589
2189.390 0.5747 0.546 0.5781 0.592 0.5469 0.4991 0.4712 0.5796 0.6184 0.5735
2208.680 0.6403 0.6733 0.6232 0.5839 0.6568 0.7079 0.7323 0.7927 0.7601 0.7469
2227.970 0.8457 0.8867 0.9401 0.929 0.95 1.1439 1.283 1.343 1.393 1.513
2247.259 1.673 1.833 2.073 2.213 2.193 2.203 2.143 2.003 1.873 1.743
2266.549 1.643 1.543 1.383 1.243 1.1388 1.0718 1.007 0.9035 0.8099 0.822
2285.839 0.825 0.7936 0.819 0.8393 0.8318 0.7475 0.7272 0.7403 0.7349 0.7611
2305.129 0.8123 0.8735 0.8868 0.8966 0.9006 0.859 0.8671 0.9299 0.9388 0.9395
2324.418 0.928 0.9935 1.0909 1.052 1.0511 1.0737 1.0617 1.1272 1.1577 1.1347
2343.708 1.1064 1.1175 1.1485 1.1024 1.0784 1.0306 0.9731 1.0114 1.1033 1.1203
2362.998 1.0291 0.9799 0.9144 0.9061 0.908 0.8528 0.8796 0.9277 0.9144 0.8592
2382.288 0.836 0.9277 1.0014 0.9481 0.9137 0.9065 0.9242 0.9815 0.9982 0.9784
2401.578 0.9481 0.9577 0.9253 0.9773 1.1175 1.1455 1.1541 1.1674 1.1525 1.2209
2420.867 1.293 1.293 1.273 1.1576 1.1698 1.1922 1.1579 1.1793 1.1866 1.1627
2440.157 1.1838 1.2068 1.1306 1.1059 1.1236 1.1308 1.2005 1.1884 1.1397 1.253
2459.447 1.293 1.313 1.293 1.273 1.293 1.283 1.363 1.453 1.533 1.483
2478.737 1.483 1.573 1.593 1.633 1.583 1.563 1.593 1.553 1.483 1.403
2498.026 1.373 1.383 1.423 1.453 1.393 1.353 1.433 1.463 1.473 1.433
2517.316 1.443 1.483 1.493 1.483 1.453 1.463 1.383 1.453 1.593 1.603
2536.606 1.583 1.603 1.583 1.583 1.543 1.513 1.553 1.563 1.583 1.553
2555.896 1.503 1.553 1.533 1.463 1.373 1.343 1.333 1.303 1.303 1.283
2575.186 1.303 1.1756 1.1376 1.2291 1.233 1.293 1.313 1.333 1.413 1.423
2594.475 1.333 1.293 1.243 1.2078 1.1742 1.1172 1.1164 1.1455 1.1525 1.0464
2613.765 0.9495 0.945 0.9175 0.8383 0.8442 0.921 0.9577 1.0099 0.9857 0.9786
2633.055 0.9527 0.8821 0.8621 0.8399 0.8282 0.8731 0.9309 0.8914 0.8335 0.8186
2652.345 0.7561 0.7205 0.7848 0.8818 0.9134 0.9241 0.9226 0.8878 0.9449 0.9509
2671.634 0.8937 0.8762 0.8525 0.9481 1.078 1.0817 0.991 0.9051 0.9323 0.9797
2690.924 1.0069 1.0343 1.0414 1.0809 1.1774 1.253 1.1858 1.1687 1.2047 1.1713
2710.214 1.233 1.333 1.393 1.393 1.483 1.533 1.553 1.633 1.753 1.753
2729.504 1.783 1.923 1.943 1.973 2.083 2.233 2.243 2.363 2.533 2.503
2748.794 2.373 2.393 2.493 2.523 2.433 2.333 2.353 2.313 2.243 2.223
2768.083 2.193 2.193 2.253 2.163 2.113 2.103 2.103 2.123 2.233 2.203
2787.373 2.083 2.213 2.333 2.403 2.433 2.463 2.573 2.583 2.593 2.713
2806.663 2.793 2.903 3.073 3.213 3.373 3.533 3.693 3.873 4.133 4.343
2825.953 4.563 4.803 5.033 5.383 5.723 6.153 6.613 7.003 7.423 7.873
2845.242 8.323 8.913 9.603 10.193 10.833 11.623 12.373 13.273 14.363 15.483
2864.532 16.743 18.163 19.773 21.403 23.083 24.973 26.853 28.613 30.283 31.683
2883.822 32.503 32.693 32.523 31.793 30.703 29.623 28.623 27.983 27.723 27.803
2903.112 28.273 28.983 29.863 31.013 32.263 33.613 35.123 36.513 37.833 39.233
2922.401 40.653 42.153 43.743 45.303 46.793 48.303 49.973 51.733 53.553 55.193
2941.691 56.603 57.563 57.943 57.803 57.343 56.683 55.943 55.803 56.303 57.363
2960.981 58.853 60.433 61.883 62.963 63.393 62.603 60.143 56.133 51.253 45.863
2980.271 40.113 34.813 30.283 26.483 23.443 21.003 18.853 16.963 15.543 14.333
2999.561 13.313 12.483 11.843 11.423 10.983 10.513 10.023 9.703 9.613 9.483
3018.850 9.393 9.303 9.343 9.603 10.033 10.623 11.493 12.423 13.413 14.353
3038.140 14.943 15.073 14.513 13.383 11.883 10.283 8.923 7.933 7.153 6.563
3057.430 6.153 5.973 5.833 5.683 5.733 6.023 6.193 6.263 6.463 6.603
3076.720 6.613 6.413 6.123 5.703 5.323 5.123 4.813 4.583 4.543 4.503
3096.009 4.443 4.373 4.303 4.173 4.063 3.993 3.863 3.643 3.503 3.303
3115.299 2.973 2.793 2.683 2.583 2.533 2.423 2.273 2.153 2.093 2.023
3134.589 1.853 1.793 1.793 1.683 1.593 1.463 1.363 1.283 1.1363 1.1073
3153.879 1.036 1.0626 1.139 1.1833 1.1891 1.1355 1.1598 1.2155 1.243 1.1617
3173.169 1.1294 1.1455 1.1509 1.1595 1.1785 1.1261 1.0333 1.0091 1.0573 1.1667
3192.458 1.2142 1.1548 1.1354 1.098 1.0144 1.0106 1.118 1.18 1.022 0.902
3211.748 0.9132 0.8491 0.7645 0.7124 0.6727 0.718 0.655 0.5747 0.5486 0.5535
3231.038 0.6223 0.551 0.4346 0.3967 0.4461 0.358 0.26033 0.3134 0.3658 0.3577
3250.328 0.3769 0.4061 0.338 0.27892 0.4121 0.4713 0.31992 0.22447 0.1933 0.30607
3269.617 0.433 0.3817 0.4897 0.4739 0.172 0.123 0.26039 0.31673 0.3491 0.3434
3288.907 0.26798 0.25912 0.2176 0.2111 0.2703 0.28059 0.28824 0.24972 0.2177 0.242141
3308.197 0.234076 0.1739 0.112 0.127 0.2188 0.30549 0.3478 0.29016 0.235498 0.236645
3327.487 0.22596 0.3733 0.3526 0.31028 0.3784 0.4129 0.4425 0.4804 0.4558 0.3717
3346.777 0.366 0.27832 0.1655 0.233768 0.3865 0.28693 0.1618 0.29136 0.24348 0.1597
3366.066 0.242231 0.30534 0.29515 0.2179 0.22917 0.32733 0.28023 0.1452 0.1869 0.238566
3385.356 0.1938 0.1867 0.1706 0.1593 0.1933 0.1676 0.25463 0.3805 0.4136 0.4126
3404.646 0.3047 0.29105 0.3463 0.27177 0.1427 0.1456 0.3331 0.32564 0.2103 0.26667
3423.936 0.3767 0.3495 0.326 0.3472 0.2154 0.2116 0.4317 0.3724 0.1789 0.30253
3443.225 0.3475 0.24412 0.28598 0.3789 0.4246 0.25338 0.062 0.076 0.067 0
3462.515 0.1508 0.4325 0.4997 0.27429 0.1868 0.099 0.057 0.22593 0.1985 0.2229
3481.805 0.25653 0.29166 0.32636 0.1733 0.094 0.107 0.122 0.1457 0.2156 0.3485
3501.095 0.4132 0.27647 0.28867 0.32335 0.27344 0.3575 0.3751 0.3658 0.28453 0.1522
3520.385 0.1546 0.2029 0.222 0.29798 0.30258 0.2237 0.1904 0.132 0.112 0.1468
3539.674 0.237465 0.29227 0.2071 0.2171 0.1883 0.123 0.1396 0.1744 0.1736 0.1991
3558.964 0.29343 0.233595 0.112 0.073 0.043 0.1575 0.25852 0.26315 0.33178 0.3689
3578.254 0.32042 0.241585 0.28434 0.1917 0.036 0.18 0.32196 0.237446 0.113 0.1546
3597.544 0.1399 0.1644 0.27787 0.25809 0.128 0.121 0.2073 0.25618 0.33244 0.3619
3616.833 0.3613 0.32808 0.26336 0.2623 0.1533 0.098 0.1729 0.1622 0.1989 0.31614
3636.123 0.2318 0.224 0.29202 0.1393 0.197 0.27921 0.3558 0.4317 0.3552 0.3291
3655.413 0.32759 0.27136 0.2727 0.31945 0.30349 0.27719 0.3378 0.4825 0.4993 0.518
3674.703 0.4767 0.5219 0.5197 0.24906 0.27897 0.3458 0.3799 0.4095 0.3415 0.4149
3693.993 0.4619 0.3056 0.2113 0.2222 0.2579 0.386 0.374 0.3441 0.475 0.4476
3713.282 0.33199 0.24051 0.1982 0.3649 0.4548 0.32064 0.2115 0.1758 0.1443 0.1417
3732.572 0.1546 0.233629 0.27143 0.25225 0.30367 0.3984 0.3449 0.1512 0.092 0.099
3751.862 0.009 0.151 0.1817 0.1555 0.29985 0.28202 0.29438 0.241042 0.25137 0.3974
3771.152 0.3621 0.29223 0.4083 0.4361 0.3728 0.3767 0.355 0.30758 0.3474 0.3956
3790.441 0.32597 0.3473 0.26569 0.2123 0.232235 0.236488 0.3802 0.4014 0.29205 0.2103
3809.731 0.1911 0.3068 0.3468 0.26986 0.32181 0.3405 0.2008 0.138 0.238788 0.31457
3829.021 0.3442 0.25138 0.2013 0.29293 0.3879 0.451 0.4343 0.30126 0.30544 0.4094
3848.311 0.4439 0.4824 0.4387 0.4243 0.4943 0.4555 0.4293 0.3462 0.4106 0.5535
3867.601 0.3455 0.1847 0.232539 0.3452 0.5014 0.4262 0.29927 0.30823 0.29055 0.3586
3886.890 0.4773 0.4584 0.28884 0.2179 0.26755 0.4045 0.4591 0.4015 0.4354 0.4849
3906.180 0.4956 0.4953 0.3989 0.27323 0.26513 0.3875 0.3732 0.357 0.5052 0.4299
3925.470 0.3725 0.425 0.4282 0.4177 0.29523 0.24339 0.28713 0.25917 0.24952 0.32888
3944.760 0.4443 0.3645 0.3677 0.6084 0.5125 0.29773 0.3123 0.27752 0.27445 0.31789
3964.049 0.30568 0.3372 0.4931 0.4732 0.31956 0.3499 0.4517 0.3747 0.24813 0.28087
3983.339 0.28977 0.3572 0.33175 0.189 0.24988 0.4817 0.6199 0.5401 0.4647 0.39
##END=
