##TITLE=Triphenylphosphine selenide
##JCAMP-DX=4.24
##DATA TYPE=INFRARED SPECTRUM
##ORIGIN=EPA-IR VAPOR PHASE LIBRARY
##OWNER=SRD/NIST
Collection (C) 2018 copyright by the U.S. Secretary of Commerce
on behalf of the United States of America. All rights reserved.
##CAS REGISTRY NO=3878-44-2
##MOLFORM=C 18 H 15 P Se
##$NIST SOURCE=MSDC-IR
##STATE=gas
##XUNITS=1/CM
##YUNITS=ABSORBANCE
##XFACTOR=1.
##YFACTOR=0.001
##DELTAX=1.92934
##FIRSTX=549.9
##LASTX=3999.5
##FIRSTY=2.099
##MAXX=3999.53
##MINX=549.863
##MAXY=0.023429
##MINY=0
##NPOINTS=1789
##XYDATA=(X++(Y..Y))
549.863 2.099 2.119 2.329 2.599 3.059 3.949 5.679 8.479 12.479 16.929
569.156 20.899 23.429 22.169 17.809 12.859 8.059 4.629 2.979 2.139 1.589
588.450 1.369 1.369 1.269 1.119 1.0826 0.9967 0.9701 0.9972 0.8973 0.8141
607.743 0.7181 0.7306 0.8429 0.9079 0.9901 1.09 1.169 1.149 1.0635 0.9592
627.037 0.8416 0.7727 0.712 0.7062 0.7672 0.7636 0.7921 0.7488 0.6725 0.7171
646.330 0.7709 0.7946 0.8491 0.9927 1.129 1.209 1.329 1.529 1.749 2.009
665.624 2.309 2.569 2.949 3.359 3.729 4.169 4.679 5.269 6.149 7.539
684.917 9.529 11.999 14.689 17.079 18.399 18.429 17.489 15.919 14.639 14.269
704.210 14.799 15.499 15.569 14.319 11.689 8.759 6.149 4.199 3.089 2.519
723.504 2.279 2.179 2.169 2.279 2.429 2.749 3.279 4.019 4.949 5.849
742.797 6.499 6.709 6.249 5.319 4.179 3.219 2.579 2.069 1.719 1.449
762.091 1.309 1.209 1.0947 0.9878 0.8916 0.8261 0.7819 0.7371 0.7186 0.7368
781.384 0.6922 0.7286 0.759 0.7345 0.7693 0.7998 0.7765 0.713 0.6318 0.5579
800.678 0.5498 0.5795 0.61 0.6407 0.6153 0.5699 0.5458 0.5251 0.5041 0.3902
819.971 0.3353 0.429 0.417 0.4349 0.4016 0.3374 0.3322 0.3446 0.4386 0.4421
839.264 0.4385 0.4277 0.4171 0.4427 0.4638 0.4749 0.4664 0.4472 0.4277 0.4101
858.558 0.3734 0.3507 0.305 0.2772 0.2985 0.3043 0.3053 0.3372 0.3669 0.3345
877.851 0.3142 0.3117 0.3022 0.2967 0.3106 0.3244 0.3863 0.42 0.3374 0.3677
897.145 0.3702 0.2975 0.3088 0.3099 0.2872 0.3005 0.3312 0.3486 0.3559 0.3515
916.438 0.3321 0.3549 0.4005 0.4059 0.4104 0.3714 0.3585 0.3733 0.3817 0.3926
935.732 0.3832 0.3877 0.3431 0.3172 0.3943 0.4127 0.3954 0.4278 0.4968 0.4992
955.025 0.4629 0.5059 0.5866 0.644 0.628 0.5387 0.5326 0.5604 0.4887 0.4836
974.318 0.5125 0.4641 0.4385 0.4868 0.5181 0.542 0.59 0.6564 0.7828 0.9781
993.612 1.239 1.449 1.599 1.559 1.289 1.071 0.8897 0.6932 0.5894 0.6014
1012.905 0.6252 0.6568 0.7367 0.8351 0.9875 1.219 1.489 1.749 1.879 1.729
1032.199 1.359 1.0431 0.7774 0.5702 0.437 0.4049 0.4631 0.5266 0.5219 0.5208
1051.492 0.579 0.5866 0.6075 0.668 0.7175 0.7965 0.8977 0.9458 1.0194 1.0851
1070.786 1.169 1.309 1.459 1.689 1.969 2.459 3.269 4.479 6.279 8.719
1090.079 11.539 14.269 16.359 17.029 15.969 13.539 10.449 7.389 5.039 3.489
1109.372 2.519 1.999 1.669 1.409 1.299 1.229 1.139 1.0587 1.0122 1.0197
1128.666 1.0185 0.9737 0.9419 0.9773 0.9324 0.8397 0.8231 0.8266 0.8262 0.8068
1147.959 0.7601 0.7061 0.6851 0.6416 0.6036 0.5914 0.6355 0.6609 0.5948 0.603
1167.253 0.6504 0.6673 0.7197 0.8563 1.0661 1.389 1.859 2.389 2.899 3.279
1186.546 3.299 2.989 2.559 2.049 1.559 1.249 1.0184 0.8615 0.8127 0.7555
1205.840 0.661 0.5087 0.4815 0.5095 0.5045 0.4469 0.4101 0.4317 0.3924 0.3411
1225.133 0.3197 0.2786 0.2741 0.3104 0.2609 0.2497 0.2952 0.314 0.3362 0.3416
1244.426 0.3098 0.3083 0.3512 0.4262 0.4441 0.4691 0.4807 0.4876 0.5541 0.5706
1263.720 0.576 0.6282 0.6767 0.6443 0.5614 0.5571 0.5921 0.609 0.5966 0.5977
1283.013 0.6505 0.6845 0.7031 0.7673 0.8553 0.9001 0.9912 1.129 1.229 1.229
1302.307 1.269 1.299 1.299 1.259 1.149 1.0574 0.9855 0.9086 0.8575 0.8386
1321.600 0.8507 0.8723 0.9281 1.0201 1.003 1.0326 1.0378 0.9831 0.9297 0.7628
1340.894 0.638 0.6109 0.5447 0.498 0.5312 0.5463 0.5121 0.4593 0.4372 0.4061
1360.187 0.4161 0.4438 0.4447 0.4931 0.5861 0.6447 0.6208 0.5705 0.6111 0.6486
1379.480 0.6 0.5294 0.453 0.4607 0.4689 0.4486 0.4127 0.4296 0.4876 0.471
1398.774 0.4815 0.5352 0.5379 0.5009 0.5364 0.6404 0.7312 0.8144 0.9791 1.0994
1418.067 1.169 1.339 1.639 2.029 2.489 3.179 4.249 5.599 6.899 7.829
1437.361 8.269 7.659 6.189 4.709 3.359 2.269 1.679 1.399 1.199 1.032
1456.654 0.8674 0.8335 0.8595 0.8545 0.8533 0.8519 0.8876 1.0412 1.349 1.759
1475.948 2.249 2.809 3.289 3.519 3.409 2.999 2.469 1.869 1.339 1.019
1495.241 0.7877 0.596 0.5383 0.5105 0.4585 0.3948 0.2831 0.278 0.3178 0.258
1514.534 0.2671 0.2901 0.2571 0.2241 0.2776 0.3175 0.2897 0.31 0.3123 0.2876
1533.828 0.3349 0.3771 0.3021 0.21097 0.2292 0.2743 0.2927 0.3157 0.3286 0.339
1553.121 0.324 0.2924 0.252 0.25 0.3103 0.3483 0.411 0.4426 0.4405 0.4746
1572.415 0.5268 0.5362 0.4907 0.5514 0.6085 0.6002 0.6226 0.594 0.5539 0.5602
1591.708 0.5337 0.483 0.4671 0.4435 0.3989 0.3926 0.2936 0.2505 0.2984 0.2662
1611.002 0.307 0.386 0.3294 0.248 0.2543 0.2347 0.20604 0.20959 0.2556 0.2535
1630.295 0.18712 0.1507 0.13741 0.15562 0.20885 0.2714 0.3212 0.3345 0.2917 0.3002
1649.588 0.3931 0.2957 0.2896 0.4557 0.5123 0.5949 0.6061 0.6191 0.6296 0.5859
1668.882 0.5152 0.492 0.4239 0.3055 0.3047 0.3021 0.2629 0.16532 0.11745 0.2239
1688.175 0.2619 0.2311 0.21471 0.15128 0.126904 0.126332 0.0775 0.14321 0.15913 0.128657
1707.469 0.17695 0.17274 0.18002 0.1684 0.15311 0.1834 0.19752 0.21812 0.2197 0.19848
1726.762 0.19713 0.20125 0.17329 0.1055 0.119665 0.20913 0.20328 0.16798 0.20332 0.21545
1746.056 0.2396 0.2887 0.2792 0.3329 0.3926 0.3803 0.4122 0.3901 0.3978 0.4516
1765.349 0.4107 0.3846 0.366 0.3252 0.3601 0.4267 0.4694 0.4452 0.4407 0.4075
1784.642 0.3689 0.3692 0.385 0.3951 0.4318 0.5761 0.6321 0.6539 0.7658 0.9079
1803.936 1.0316 1.1104 1.169 1.189 1.189 1.1075 0.8975 0.7643 0.6783 0.5981
1823.229 0.5484 0.4664 0.4663 0.4308 0.4132 0.4637 0.4131 0.3619 0.3305 0.3618
1842.523 0.3696 0.3556 0.3211 0.2586 0.2824 0.2682 0.2505 0.2656 0.273 0.295
1861.816 0.291 0.3008 0.3175 0.306 0.3106 0.3373 0.3854 0.4518 0.4856 0.4951
1881.110 0.5556 0.6385 0.7192 0.754 0.744 0.7525 0.764 0.7631 0.7833 0.7934
1900.403 0.8115 0.8342 0.82 0.7447 0.6529 0.569 0.5151 0.4258 0.3444 0.3167
1919.696 0.2803 0.2364 0.20515 0.252 0.3107 0.3373 0.317 0.3245 0.3695 0.3976
1938.990 0.3844 0.3937 0.4895 0.5896 0.6287 0.7266 0.8154 0.8282 0.8454 0.8347
1958.283 0.795 0.765 0.8137 0.8238 0.7934 0.8015 0.7466 0.6363 0.5848 0.5043
1977.577 0.4069 0.3703 0.3188 0.2679 0.2211 0.18427 0.13375 0.14432 0.16379 0.14224
1996.870 0.17316 0.20891 0.20145 0.20283 0.19354 0.18155 0.19148 0.17508 0.21014 0.2381
2016.164 0.20822 0.21043 0.17208 0.15669 0.19033 0.18664 0.18805 0.18863 0.18707 0.1674
2035.457 0.15018 0.13078 0.15154 0.16667 0.1295 0.13711 0.15632 0.17108 0.16922 0.14932
2054.750 0.16887 0.16824 0.16708 0.20408 0.2575 0.224 0.15248 0.15582 0.17926 0.1941
2074.044 0.17299 0.18611 0.18164 0.15008 0.1399 0.16265 0.17144 0.14054 0.15607 0.17849
2093.337 0.15522 0.14942 0.17656 0.15511 0.11616 0.13993 0.18573 0.19165 0.15529 0.125692
2112.631 0.126848 0.14543 0.17995 0.17092 0.17326 0.1708 0.17013 0.16773 0.15142 0.16163
2131.924 0.15733 0.17416 0.1491 0.13296 0.14279 0.122057 0.13782 0.15878 0.13382 0.11533
2151.218 0.14398 0.13972 0.1337 0.14595 0.1406 0.14494 0.18701 0.2231 0.18778 0.2041
2170.511 0.2283 0.21764 0.2125 0.20151 0.2255 0.2304 0.2564 0.2836 0.2887 0.3299
2189.804 0.2948 0.2579 0.2924 0.2938 0.2369 0.1807 0.17158 0.17808 0.17031 0.13776
2209.098 0.15255 0.17509 0.17668 0.15982 0.126886 0.14904 0.17198 0.14547 0.124602 0.13786
2228.391 0.15597 0.16165 0.18216 0.19775 0.21169 0.18721 0.18752 0.2289 0.18681 0.1623
2247.685 0.16264 0.15586 0.16933 0.20483 0.2275 0.20405 0.18023 0.1719 0.16249 0.16777
2266.978 0.17557 0.17025 0.15589 0.16673 0.18484 0.19768 0.2174 0.2308 0.2523 0.2382
2286.272 0.2103 0.2276 0.2557 0.2357 0.2257 0.20156 0.20305 0.2248 0.20358 0.18328
2305.565 0.1606 0.15615 0.18633 0.2351 0.2714 0.2888 0.3183 0.2872 0.2388 0.2454
2324.858 0.2246 0.1787 0.15836 0.1557 0.127338 0.14137 0.17194 0.1404 0.13116 0.16076
2344.152 0.16232 0.16382 0.17954 0.17576 0.14042 0.0893 0.0543 0.0408 0.0415 0.0547
2363.445 0.0193 0.012 0.0357 0.0385 0.1032 0.15316 0.16949 0.16982 0.15532 0.16173
2382.739 0.14441 0.12968 0.1896 0.20108 0.18831 0.17997 0.126152 0.125565 0.15127 0.21508
2402.032 0.2482 0.20423 0.18412 0.15572 0.16785 0.19097 0.17774 0.18861 0.15939 0.14856
2421.326 0.14905 0.13798 0.16137 0.13008 0.13271 0.19172 0.19732 0.19414 0.17849 0.16183
2440.619 0.16208 0.14789 0.124802 0.17171 0.17848 0.14672 0.13148 0.12963 0.16229 0.14406
2459.912 0.17611 0.2267 0.19702 0.1401 0.14521 0.18088 0.13378 0.11056 0.13197 0.1058
2479.206 0.0989 0.15538 0.17059 0.19106 0.20168 0.18048 0.17957 0.15399 0.20285 0.2339
2498.499 0.15668 0.1063 0.0984 0.12998 0.21604 0.19081 0.14526 0.16437 0.16733 0.18272
2517.793 0.2306 0.2348 0.20506 0.18969 0.120813 0.14535 0.19492 0.18968 0.19011 0.19166
2537.086 0.21637 0.2306 0.21565 0.1686 0.17048 0.2515 0.2505 0.20617 0.17954 0.18582
2556.380 0.2389 0.2486 0.2324 0.20267 0.21293 0.2647 0.294 0.2854 0.2865 0.2786
2575.673 0.257 0.2961 0.3217 0.3101 0.3116 0.2897 0.2556 0.2474 0.2191 0.21514
2594.966 0.2233 0.21199 0.19451 0.20507 0.253 0.2715 0.2914 0.3127 0.3034 0.2684
2614.260 0.2846 0.2871 0.21263 0.18106 0.21401 0.20593 0.21163 0.2843 0.2927 0.2419
2633.553 0.2512 0.2511 0.19509 0.20918 0.2588 0.3095 0.3293 0.2919 0.2696 0.3019
2652.847 0.2544 0.20017 0.21252 0.2803 0.349 0.3478 0.3485 0.2837 0.2686 0.3082
2672.140 0.3298 0.3592 0.3728 0.3555 0.3771 0.374 0.3697 0.3811 0.3573 0.3285
2691.434 0.3178 0.3186 0.2362 0.2338 0.2721 0.262 0.2504 0.19857 0.16867 0.2388
2710.727 0.3281 0.3064 0.20806 0.20551 0.2499 0.2459 0.2331 0.16699 0.18183 0.2508
2730.020 0.2223 0.2298 0.2309 0.19666 0.14596 0.13963 0.18994 0.20682 0.2279 0.22
2749.314 0.2412 0.20324 0.14515 0.21613 0.21868 0.18173 0.2279 0.2327 0.19147 0.17776
2768.607 0.20113 0.21386 0.1958 0.17264 0.18355 0.256 0.297 0.2701 0.17656 0.121717
2787.901 0.17805 0.21176 0.2369 0.2837 0.21774 0.15903 0.2014 0.16722 0.224 0.2956
2807.194 0.2295 0.2443 0.2804 0.2715 0.3232 0.3536 0.3272 0.259 0.2726 0.3696
2826.488 0.4301 0.4167 0.391 0.347 0.2329 0.15772 0.13135 0.15264 0.2278 0.2856
2845.781 0.2264 0.2403 0.3219 0.3642 0.3639 0.231 0.2179 0.346 0.2903 0.2938
2865.074 0.388 0.2656 0.19483 0.17016 0.18569 0.2917 0.3009 0.304 0.3041 0.2973
2884.368 0.2997 0.3163 0.3455 0.2419 0.3027 0.3538 0.2764 0.2868 0.343 0.4097
2903.661 0.409 0.3656 0.352 0.3375 0.4041 0.4547 0.4081 0.4938 0.4483 0.3333
2922.955 0.3137 0.4238 0.4546 0.3831 0.4108 0.4196 0.3357 0.2973 0.3219 0.2824
2942.248 0.3124 0.4431 0.4556 0.4789 0.5645 0.56 0.5714 0.5919 0.4969 0.5031
2961.542 0.5202 0.4023 0.3834 0.411 0.4458 0.4332 0.4185 0.453 0.4916 0.5364
2980.835 0.5677 0.5933 0.5989 0.6034 0.7663 0.9064 0.9975 1.0178 0.9946 1.0113
3000.128 0.8937 0.9118 1.169 1.359 1.499 1.569 1.489 1.579 1.629 1.629
3019.422 1.649 1.629 1.699 1.649 1.599 1.709 1.689 1.669 1.749 1.859
3038.715 2.019 2.079 2.199 2.429 2.759 3.259 3.889 4.669 5.579 6.809
3058.009 8.319 9.949 11.509 12.699 13.139 12.579 11.309 9.649 8.099 7.109
3077.302 6.689 6.579 6.219 5.729 5.469 5.009 4.349 3.729 3.239 2.859
3096.596 2.509 2.039 1.699 1.449 1.159 1.1072 0.9989 0.8875 0.7438 0.7931
3115.889 0.7802 0.547 0.61 0.7 0.6719 0.7392 0.8324 0.9337 0.9562 0.835
3135.182 0.8467 0.9902 1.0252 1.0632 1.0188 0.9854 1.0616 1.0276 0.8732 0.6687
3154.476 0.6608 0.6756 0.5871 0.5238 0.5579 0.479 0.3077 0.3051 0.3611 0.3902
3173.769 0.4158 0.3369 0.4168 0.58 0.5643 0.5207 0.5865 0.5979 0.4904 0.3498
3193.063 0.2729 0.4597 0.5718 0.5099 0.4204 0.3664 0.25 0.1131 0.13331 0.21832
3212.356 0.3352 0.3392 0.3307 0.428 0.5948 0.6158 0.4263 0.4078 0.4513 0.3234
3231.650 0.2648 0.4458 0.4801 0.3942 0.4578 0.4564 0.2865 0.2388 0.2902 0.3327
3250.943 0.4381 0.4409 0.4181 0.3291 0.242 0.2354 0.2837 0.2796 0.21461 0.3084
3270.236 0.3662 0.4283 0.5089 0.402 0.2871 0.19271 0.20889 0.3142 0.2774 0.3013
3289.530 0.3319 0.3133 0.2713 0.15676 0.1925 0.3536 0.3276 0.283 0.2482 0.2833
3308.823 0.4165 0.4186 0.3998 0.4066 0.4307 0.4936 0.4955 0.4003 0.3202 0.3085
3328.117 0.3866 0.3239 0.3708 0.4685 0.45 0.3913 0.3807 0.5509 0.4817 0.3955
3347.410 0.4017 0.2874 0.2981 0.2792 0.318 0.4015 0.4016 0.3266 0.2619 0.4012
3366.704 0.3294 0.2528 0.3242 0.2645 0.2728 0.3061 0.3109 0.3052 0.21043 0.2821
3385.997 0.4252 0.3715 0.21155 0.2334 0.3538 0.3702 0.3691 0.3139 0.2528 0.21499
3405.290 0.2938 0.4357 0.4967 0.4261 0.279 0.2431 0.3005 0.2267 0.2276 0.3839
3424.584 0.3728 0.3522 0.4645 0.4591 0.279 0.3026 0.354 0.3672 0.4299 0.4539
3443.877 0.4075 0.2593 0.2534 0.3613 0.434 0.4007 0.2759 0.2217 0.3404 0.3393
3463.171 0.3432 0.4359 0.5485 0.5543 0.3664 0.3655 0.3887 0.3689 0.3669 0.3408
3482.464 0.4393 0.4706 0.5239 0.5055 0.3445 0.2771 0.2917 0.428 0.4796 0.3927
3501.758 0.2946 0.2971 0.3501 0.3355 0.284 0.2787 0.2745 0.3341 0.4682 0.3554
3521.051 0.2225 0.3051 0.3825 0.4226 0.5093 0.4868 0.4584 0.4968 0.3394 0.249
3540.344 0.3211 0.3073 0.3382 0.3722 0.3539 0.3784 0.3764 0.363 0.4477 0.3971
3559.638 0.302 0.3387 0.2547 0.19925 0.302 0.3546 0.3116 0.3441 0.3293 0.3756
3578.931 0.4916 0.5542 0.4238 0.2255 0.2375 0.2739 0.2708 0.19605 0.3375 0.3827
3598.225 0.2843 0.3483 0.3246 0.2685 0.2696 0.2919 0.362 0.4146 0.4197 0.3988
3617.518 0.2817 0.261 0.3341 0.4255 0.4246 0.3294 0.3177 0.2837 0.3694 0.437
3636.812 0.3412 0.2239 0.2547 0.2825 0.2306 0.255 0.2286 0.2361 0.3317 0.3834
3656.105 0.2864 0.2897 0.3009 0.2798 0.3853 0.433 0.41 0.4113 0.4132 0.3681
3675.398 0.3218 0.2948 0.365 0.4204 0.4083 0.4011 0.3902 0.4481 0.4986 0.4361
3694.692 0.3579 0.363 0.3473 0.4132 0.4749 0.3779 0.3255 0.2828 0.21768 0.2274
3713.985 0.4266 0.5012 0.3259 0.2877 0.3533 0.318 0.3323 0.3096 0.2058 0.21116
3733.279 0.2202 0.2648 0.364 0.323 0.2392 0.2748 0.3334 0.3432 0.2849 0.2742
3752.572 0.3035 0.3405 0.3258 0.3012 0.24 0.2716 0.4026 0.4128 0.4123 0.4018
3771.866 0.3952 0.3534 0.3008 0.3395 0.3111 0.2677 0.2916 0.288 0.3152 0.3315
3791.159 0.3624 0.3251 0.2806 0.3225 0.3062 0.2969 0.3198 0.3648 0.3314 0.2879
3810.452 0.2821 0.2608 0.2698 0.3 0.2858 0.275 0.2865 0.2448 0.2698 0.2476
3829.746 0.253 0.3264 0.2221 0.11246 0.0734 0.0983 0.16896 0.2255 0.3002 0.2231
3849.039 0.17215 0.20664 0.198 0.0697 0 0.0855 0.16015 0.2535 0.2997 0.2771
3868.333 0.275 0.3128 0.19698 0.16405 0.2414 0.2406 0.2194 0.21256 0.2358 0.21473
3887.626 0.1805 0.18093 0.18613 0.2338 0.2787 0.2388 0.2552 0.2663 0.2771 0.3126
3906.920 0.3199 0.2658 0.21421 0.3316 0.4554 0.3875 0.2884 0.3465 0.3869 0.2925
3926.213 0.2696 0.3403 0.3703 0.3015 0.21132 0.2387 0.3374 0.3075 0.2845 0.3193
3945.506 0.2714 0.2622 0.2853 0.2768 0.2647 0.2922 0.2867 0.18301 0.14692 0.20558
3964.800 0.20415 0.16865 0.1545 0.18723 0.20325 0.21779 0.3054 0.3221 0.2903 0.3275
3984.093 0.3409 0.3051 0.3169 0.4424 0.4497 0.317 0.3299 0.2988 0.2363
##END=
