##TITLE=p-Isobutylacetophenone
##JCAMP-DX=4.24
##DATA TYPE=INFRARED SPECTRUM
##ORIGIN=EPA-IR VAPOR PHASE LIBRARY
##OWNER=SRD/NIST
Collection (C) 2018 copyright by the U.S. Secretary of Commerce
on behalf of the United States of America. All rights reserved.
##CAS REGISTRY NO=38861-78-8
##MOLFORM=C 12 H 16 O
##$NIST SOURCE=MSDC-IR
##STATE=gas
##XUNITS=1/CM
##YUNITS=ABSORBANCE
##XFACTOR=1.
##YFACTOR=0.001
##DELTAX=1.92898
##FIRSTX=549.8
##LASTX=4000.7
##FIRSTY=1.247
##MAXX=4000.7
##MINX=549.759
##MAXY=0.073077
##MINY=0
##NPOINTS=1790
##XYDATA=(X++(Y..Y))
549.759 1.247 1.0021 0.9059 1.257 1.337 1.317 1.567 1.717 2.157 2.317
569.049 2.517 3.277 4.027 5.117 6.787 8.547 10.067 10.917 11.107 11.417
588.339 11.577 11.477 11.207 10.897 10.317 9.487 8.657 7.737 6.547 5.377
607.628 4.477 3.737 3.067 2.457 1.917 1.437 1.0831 0.8932 0.9357 1.1413
626.918 1.1647 0.9929 0.9008 0.8125 0.9928 1.0957 0.8344 0.7714 0.9216 0.8375
646.208 0.7402 0.846 0.856 0.6939 0.6772 0.6526 0.8272 1.0101 0.9736 1.0537
665.498 1.1614 1.267 1.397 1.707 2.087 2.357 2.577 2.797 3.107 3.567
684.787 3.997 4.057 3.937 3.807 3.437 2.927 2.437 1.957 1.487 1.1806
704.077 1.0923 1.1371 0.9829 0.7444 0.6171 0.5948 0.6615 0.7927 0.8188 0.7124
723.367 0.6639 0.7998 0.9208 0.8787 0.9286 0.9672 0.9605 0.9105 0.7313 0.546
742.657 0.671 0.8032 0.679 0.6375 0.7038 0.7189 0.7817 0.7881 0.8011 0.8884
761.947 0.9079 1.1595 1.397 1.407 1.467 1.617 1.927 2.367 2.737 3.247
781.236 3.977 4.637 5.347 5.957 6.467 6.877 7.077 7.257 7.067 6.647
800.526 6.167 5.427 4.767 4.087 3.447 3.217 3.127 2.937 2.967 3.107
819.816 3.067 3.227 3.387 3.617 3.927 4.227 4.607 4.917 5.107 5.417
839.106 5.817 6.297 6.717 6.807 6.767 6.667 6.397 5.887 5.507 5.027
858.395 4.297 3.677 3.207 2.787 2.377 2.057 2.037 2.137 2.037 1.987
877.685 2.007 1.957 1.767 1.657 1.717 1.727 1.557 1.327 1.1653 0.958
896.975 1.1001 1.237 0.8835 0.7826 0.9173 0.9816 0.9823 1.0883 1.257 1.237
916.265 1.437 1.627 1.767 1.867 1.827 1.927 2.237 2.517 2.557 2.827
935.555 3.267 3.777 4.637 5.797 7.107 8.307 9.597 10.737 11.407 11.537
954.844 11.077 10.357 9.247 7.767 6.367 5.307 4.677 4.067 3.407 2.897
974.134 2.707 2.447 2.077 2.007 1.977 1.897 1.847 1.907 1.937 1.797
993.424 1.727 1.807 2.057 2.187 2.217 2.497 2.607 2.927 3.737 4.597
1012.714 5.387 5.627 5.497 5.497 5.057 4.297 3.367 2.267 1.617 1.457
1032.003 1.427 1.337 1.407 1.427 1.297 1.427 1.527 1.397 1.367 1.557
1051.293 1.737 1.827 1.957 2.147 2.267 2.087 2.247 2.817 3.207 3.097
1070.583 3.247 4.007 4.037 3.547 3.407 3.487 3.277 3.047 2.637 2.307
1089.873 2.377 2.287 2.067 2.097 1.977 1.657 1.777 1.897 2.317 2.417
1109.163 2.137 2.087 2.547 3.037 3.307 3.747 3.387 3.067 3.057 3.047
1128.452 2.997 2.667 2.427 2.167 2.057 2.137 2.127 1.937 2.157 2.487
1147.742 2.547 2.527 2.597 3.067 3.457 3.707 4.237 4.887 5.147 5.047
1167.032 5.137 5.697 6.227 6.587 7.377 9.217 11.327 12.747 13.347 13.627
1186.322 13.377 12.287 10.417 8.257 6.917 6.037 5.567 5.257 4.697 4.447
1205.611 4.267 4.097 4.107 4.277 4.617 4.727 5.067 5.967 6.767 7.457
1224.901 8.707 9.897 10.897 11.907 12.747 13.467 14.127 14.587 15.207 16.647
1244.191 18.737 21.587 25.537 31.137 38.557 46.817 55.147 62.307 66.917 68.037
1263.481 65.587 59.867 50.867 40.437 30.927 23.777 19.017 15.687 13.287 11.677
1282.771 10.597 9.667 8.967 8.437 7.927 7.587 7.347 7.017 6.537 6.027
1302.060 5.617 5.237 4.837 4.497 4.237 3.927 3.617 3.377 3.177 3.067
1321.350 3.127 3.217 3.337 3.537 3.717 3.937 4.257 4.717 5.147 5.637
1340.640 6.257 6.997 7.997 9.207 10.757 12.827 15.397 18.177 20.637 22.377
1359.930 23.247 23.277 22.407 20.507 17.987 15.447 13.337 11.667 10.437 9.587
1379.219 8.997 8.697 8.617 8.707 8.737 8.687 8.577 8.447 8.257 8.047
1398.509 7.927 8.017 8.347 8.827 9.387 9.817 10.147 10.337 10.267 9.997
1417.799 9.507 8.767 7.987 7.297 6.767 6.377 6.077 5.797 5.647 5.607
1437.089 5.597 5.587 5.587 5.587 5.557 5.567 5.567 5.607 5.747 5.887
1456.378 6.067 6.267 6.437 6.577 6.607 6.567 6.567 6.467 6.237 5.877
1475.668 5.457 5.027 4.577 4.127 3.667 3.287 3.017 2.677 2.437 2.407
1494.958 2.357 2.257 2.147 2.097 2.087 2.077 2.087 2.047 1.957 1.957
1514.248 1.997 1.907 1.837 1.887 1.907 1.917 1.977 1.987 2.057 2.147
1533.538 2.157 2.137 2.147 2.217 2.247 2.227 2.197 2.217 2.287 2.397
1552.827 2.557 2.757 2.987 3.337 3.717 3.947 4.217 4.527 4.677 4.617
1572.117 4.517 4.407 4.137 3.897 3.867 3.937 4.187 4.647 5.277 6.207
1591.407 7.377 8.847 10.687 12.727 14.897 17.067 18.927 20.097 20.377 19.777
1610.697 18.437 16.457 14.027 11.477 9.237 7.557 6.327 5.477 4.897 4.457
1629.986 4.137 3.947 3.867 3.717 3.577 3.527 3.477 3.427 3.447 3.557
1649.276 3.607 3.677 3.857 4.077 4.337 4.607 4.837 5.047 5.397 5.727
1668.566 6.007 6.337 6.767 7.237 7.997 9.107 10.567 12.337 14.837 18.197
1687.856 22.407 27.947 35.157 43.677 53.637 63.347 69.777 73.077 72.887 69.737
1707.146 62.857 52.637 41.397 31.777 24.347 18.837 14.747 11.847 9.697 8.127
1726.435 7.127 6.497 5.977 5.607 5.277 4.927 4.687 4.397 4.117 3.857
1745.725 3.617 3.417 3.197 3.057 2.897 2.707 2.487 2.277 2.127 2.007
1765.015 1.927 1.777 1.657 1.537 1.447 1.377 1.307 1.257 1.2064 1.1387
1784.305 1.141 1.1268 1.1148 1.1701 1.1588 1.1782 1.1678 1.1694 1.2325 1.2085
1803.594 1.1919 1.1585 1.0831 1.023 0.9295 0.8593 0.849 0.7941 0.7384 0.754
1822.884 0.7587 0.7032 0.6505 0.695 0.6943 0.6526 0.6438 0.6392 0.6514 0.5976
1842.174 0.5731 0.6064 0.6357 0.6697 0.7027 0.7173 0.6832 0.6699 0.6133 0.6067
1861.464 0.6238 0.5729 0.5764 0.5789 0.6281 0.6174 0.62 0.6731 0.7107 0.7887
1880.754 0.8207 0.8089 0.786 0.855 0.9499 0.9784 1.0028 1.0278 1.0593 1.0645
1900.043 1.0577 1.0955 1.0936 1.0504 1.079 1.0648 1.053 1.0768 1.06 1.0266
1919.333 0.9916 0.9828 1.0231 1.0153 0.9619 0.9009 0.8777 0.9306 0.9413 0.9745
1938.623 0.9441 0.8845 0.9475 0.928 0.9116 0.9315 0.9164 0.919 0.8422 0.7871
1957.913 0.7357 0.6374 0.5709 0.5578 0.499 0.4814 0.5271 0.4884 0.505 0.4718
1977.202 0.4283 0.4191 0.4556 0.4499 0.404 0.4061 0.398 0.4017 0.3601 0.3853
1996.492 0.4127 0.4307 0.438 0.4121 0.3962 0.3961 0.3968 0.3999 0.4134 0.3916
2015.782 0.3912 0.4038 0.3871 0.4007 0.4335 0.4373 0.4693 0.4683 0.4619 0.5025
2035.072 0.4837 0.4968 0.4979 0.4367 0.4982 0.5311 0.4553 0.4069 0.4168 0.3792
2054.362 0.3526 0.3681 0.3445 0.31643 0.30285 0.2973 0.2973 0.30443 0.33354 0.3576
2073.651 0.3187 0.3711 0.428 0.3996 0.3695 0.3581 0.3964 0.3642 0.33657 0.3382
2092.941 0.30634 0.26017 0.25002 0.32754 0.3694 0.395 0.356 0.28704 0.31086 0.3372
2112.231 0.32063 0.29662 0.27637 0.28488 0.31419 0.3844 0.3914 0.3503 0.33491 0.32388
2131.521 0.3431 0.352 0.3667 0.30092 0.25484 0.28156 0.28598 0.32064 0.343 0.3759
2150.810 0.3564 0.31093 0.3407 0.30573 0.29625 0.33225 0.32753 0.3921 0.4271 0.3801
2170.100 0.3653 0.33311 0.3542 0.3684 0.28402 0.27909 0.33293 0.3867 0.3879 0.3359
2189.390 0.3351 0.4076 0.4438 0.4477 0.4169 0.399 0.4079 0.4101 0.3889 0.3796
2208.680 0.404 0.4288 0.4542 0.4762 0.5138 0.5417 0.4521 0.3828 0.3759 0.3759
2227.970 0.4279 0.3997 0.3925 0.3535 0.32463 0.32052 0.362 0.4187 0.4167 0.3682
2247.259 0.34 0.3419 0.3751 0.444 0.4 0.3491 0.3439 0.33115 0.3592 0.3686
2266.549 0.3827 0.4398 0.4472 0.3863 0.3621 0.4434 0.453 0.419 0.3717 0.3433
2285.839 0.3627 0.3991 0.4476 0.4929 0.5288 0.5455 0.5931 0.5943 0.5751 0.5604
2305.129 0.6091 0.5958 0.5606 0.6024 0.5771 0.5906 0.6453 0.5899 0.5357 0.5202
2324.418 0.4795 0.4955 0.4623 0.4118 0.4382 0.5523 0.573 0.5017 0.5058 0.5197
2343.708 0.4511 0.3755 0.37 0.3574 0.3842 0.4397 0.4224 0.3765 0.3499 0.321
2362.998 0.3627 0.4278 0.4369 0.4337 0.4385 0.4669 0.4699 0.4266 0.4394 0.4526
2382.288 0.3978 0.4636 0.4813 0.4345 0.4481 0.4438 0.4242 0.3588 0.4206 0.4657
2401.578 0.4443 0.5249 0.544 0.4464 0.3798 0.4104 0.4781 0.4846 0.4491 0.4702
2420.867 0.5023 0.4743 0.463 0.5211 0.4782 0.4322 0.4847 0.4942 0.4233 0.3756
2440.157 0.4331 0.4596 0.4459 0.4509 0.5164 0.4796 0.4422 0.4934 0.5289 0.4749
2459.447 0.493 0.5131 0.4462 0.4776 0.4168 0.3582 0.32686 0.3502 0.4147 0.4611
2478.737 0.4394 0.4616 0.5581 0.5175 0.4757 0.4836 0.5862 0.5764 0.4993 0.607
2498.026 0.6773 0.6435 0.5307 0.5092 0.5643 0.6056 0.6366 0.5654 0.5756 0.6756
2517.316 0.679 0.6151 0.6182 0.6355 0.6302 0.6794 0.7211 0.701 0.5964 0.499
2536.606 0.4687 0.5046 0.5443 0.5299 0.5295 0.6003 0.7034 0.6837 0.6165 0.5902
2555.896 0.5703 0.609 0.611 0.6167 0.6522 0.6371 0.6246 0.6892 0.7545 0.6921
2575.186 0.7009 0.7539 0.6915 0.6805 0.6651 0.5931 0.615 0.608 0.6168 0.6707
2594.475 0.6941 0.6929 0.6914 0.7051 0.7478 0.8138 0.8061 0.76 0.7342 0.74
2613.765 0.7502 0.7515 0.7722 0.7617 0.6818 0.6656 0.7179 0.762 0.7792 0.7114
2633.055 0.5979 0.5361 0.5829 0.6383 0.6782 0.7192 0.6921 0.7687 0.7988 0.7712
2652.345 0.7931 0.7935 0.8061 0.8079 0.7672 0.6807 0.6252 0.6677 0.6962 0.6481
2671.634 0.6404 0.6048 0.6411 0.656 0.5816 0.5629 0.584 0.5788 0.5574 0.56
2690.924 0.5768 0.5589 0.5671 0.6088 0.5556 0.5691 0.6124 0.615 0.5761 0.5375
2710.214 0.5835 0.7215 0.723 0.7368 0.7731 0.7282 0.7574 0.801 0.8703 0.965
2729.504 1.1203 1.1659 1.1317 1.1155 1.0749 0.9464 0.9686 0.9917 0.9431 1.0034
2748.794 0.9819 0.9584 0.9994 0.958 0.9074 0.9215 0.9007 0.917 0.9833 1.0303
2768.083 1.0591 1.0966 1.0961 1.0556 1.0103 0.9945 0.9327 0.8685 0.9865 1.0826
2787.373 1.1064 1.247 1.307 1.257 1.267 1.267 1.257 1.297 1.317 1.317
2806.663 1.377 1.437 1.377 1.397 1.597 1.717 1.797 1.837 1.897 2.077
2825.953 2.167 2.297 2.447 2.507 2.607 2.827 3.137 3.377 3.737 4.137
2845.242 4.537 5.067 5.497 5.827 6.307 6.597 6.827 7.197 7.447 7.757
2864.532 8.147 8.567 9.297 10.317 11.417 12.587 13.547 14.147 14.557 14.607
2883.822 14.237 13.687 13.227 12.857 12.647 12.677 12.877 13.247 13.627 14.037
2903.112 14.487 15.037 15.817 16.727 17.637 18.727 19.897 20.897 21.847 22.807
2922.401 23.587 24.117 24.477 24.727 24.737 24.587 24.447 24.087 23.617 23.067
2941.691 22.377 21.877 21.627 21.667 22.087 23.107 25.007 27.557 30.347 33.287
2960.981 36.367 39.237 41.557 43.197 43.727 42.527 39.817 35.867 31.267 26.587
2980.271 21.607 16.827 13.087 10.507 8.867 7.777 7.047 6.657 6.477 6.397
2999.561 6.327 6.367 6.537 6.627 6.647 6.757 6.977 7.207 7.257 7.187
3018.850 7.077 7.027 7.147 7.307 7.677 8.207 8.747 8.987 8.877 8.637
3038.140 8.357 7.797 6.997 6.447 6.037 5.697 5.567 5.407 5.237 5.007
3057.430 4.837 4.737 4.617 4.587 4.607 4.617 4.567 4.497 4.597 4.737
3076.720 4.827 4.877 4.987 5.067 5.087 4.977 4.837 4.717 4.577 4.377
3096.009 3.887 3.427 3.117 2.887 2.717 2.617 2.427 2.207 2.217 2.197
3115.299 2.077 2.037 1.937 1.877 1.767 1.617 1.527 1.387 1.2135 1.1971
3134.589 1.307 1.2155 1.0821 1.0886 1.0423 0.986 0.9596 0.9288 0.823 0.8035
3153.879 0.8897 0.8424 0.8952 0.9718 0.9783 1.0125 0.9678 0.8469 0.6609 0.6472
3173.169 0.741 0.7423 0.6446 0.6658 0.8008 0.8222 0.809 0.79 0.6844 0.5615
3192.458 0.5959 0.6358 0.7154 0.711 0.6561 0.6843 0.7018 0.7024 0.7333 0.7533
3211.748 0.6738 0.5848 0.5162 0.4888 0.6247 0.6135 0.367 0.3764 0.6031 0.6682
3231.038 0.5141 0.4419 0.4459 0.4591 0.4706 0.4117 0.3553 0.4957 0.5449 0.32079
3250.328 0.254 0.28711 0.23475 0.3462 0.4434 0.32179 0.1901 0.2058 0.29454 0.25999
3269.617 0.133 0.25875 0.4415 0.4071 0.30925 0.24714 0.1797 0.1881 0.3232 0.3948
3288.907 0.3481 0.3742 0.3654 0.3493 0.3809 0.31788 0.4454 0.4412 0.4245 0.4126
3308.197 0.3925 0.4053 0.3737 0.4053 0.4124 0.4504 0.5101 0.4265 0.4154 0.5247
3327.487 0.4576 0.238394 0.1837 0.3516 0.3832 0.4195 0.439 0.30006 0.31539 0.3519
3346.777 0.4097 0.4911 0.4108 0.33445 0.2252 0.1738 0.31025 0.509 0.5311 0.6174
3366.066 0.7313 0.6697 0.7854 0.9181 0.9536 1.193 1.477 1.537 1.447 1.477
3385.356 1.607 1.577 1.517 1.477 1.247 1.0317 1.0346 0.9934 0.8149 0.6713
3404.646 0.5646 0.4105 0.4137 0.4088 0.371 0.5075 0.4922 0.3623 0.30963 0.3924
3423.936 0.3809 0.26311 0.31769 0.32567 0.1963 0.1888 0.24895 0.28733 0.26694 0.2112
3443.225 0.2226 0.243845 0.1799 0.1836 0.3642 0.31153 0.12 0.1536 0.1679 0.23002
3462.515 0.3564 0.1946 0.2097 0.2739 0.1805 0.2217 0.26694 0.25743 0.1371 0.057
3481.805 0.084 0.1557 0.25176 0.1576 0.046 0.041 0.1628 0.22961 0.1386 0.1668
3501.095 0.27737 0.28371 0.25692 0.1904 0.08 0.133 0.24941 0.2194 0.2231 0.32347
3520.385 0.31224 0.22887 0.2021 0.2055 0.108 0.121 0.077 0.116 0.2855 0.1819
3539.674 0.1441 0.1833 0.129 0.1606 0.124 0.063 0.125 0.111 0.1619 0.1915
3558.964 0.1767 0.135 0.03 0.005 0.028 0.119 0.23249 0.26844 0.1814 0.1553
3578.254 0.2226 0.33446 0.28369 0.1814 0.1788 0.1659 0.1858 0.23187 0.26711 0.2552
3597.544 0.12 0.037 0.1497 0.187 0.1501 0.1972 0.23268 0.1747 0.073 0.037
3616.833 0.101 0.1791 0.1526 0.111 0.1662 0.30823 0.3728 0.2541 0.1476 0.108
3636.123 0.2077 0.31903 0.29357 0.237447 0.106 0.109 0.26075 0.196 0.103 0.2014
3655.413 0.2347 0.1947 0.29364 0.244163 0.28659 0.4546 0.4196 0.33582 0.3414 0.27417
3674.703 0.182 0.2022 0.26546 0.28166 0.3396 0.4352 0.31748 0.1699 0.30434 0.3715
3693.993 0.31728 0.29601 0.2514 0.134 0.121 0.1693 0.099 0.1907 0.2904 0.3426
3713.282 0.28439 0.103 0.1666 0.27532 0.27578 0.35 0.1769 0.024 0.102 0.1654
3732.572 0.1527 0.1922 0.30205 0.3628 0.25034 0.27735 0.3673 0.31057 0.4098 0.379
3751.862 0.27827 0.242155 0.3616 0.3941 0.26572 0.28235 0.26873 0.33509 0.4241 0.368
3771.152 0.378 0.3584 0.1679 0.115 0.1735 0.119 0.27894 0.4079 0.3805 0.32177
3790.441 0.28044 0.3767 0.25843 0.1597 0.25914 0.3431 0.24926 0.112 0.1596 0.1989
3809.731 0.29203 0.3809 0.2209 0.2551 0.4259 0.3467 0.3373 0.4411 0.3658 0.2116
3829.021 0.237489 0.25338 0.136 0.1922 0.2904 0.24289 0.2021 0.26672 0.3501 0.31631
3848.311 0.1736 0.02 0.1652 0.19 0.1399 0.3751 0.406 0.1777 0.1737 0.32949
3867.601 0.25176 0.12 0.049 0.1561 0.2091 0.1965 0.2093 0.28351 0.3454 0.2203
3886.890 0.239485 0.1809 0.19 0.33139 0.25343 0.23372 0.28039 0.204 0.1867 0.1779
3906.180 0.202 0.3102 0.3861 0.25802 0.104 0.23039 0.26532 0.27616 0.30457 0.32053
3925.470 0.4708 0.3907 0.3856 0.3729 0.1741 0.28042 0.3665 0.2207 0.135 0.1801
3944.760 0.28309 0.31831 0.4218 0.3994 0.26116 0.28971 0.32705 0.1758 0.07 0.113
3964.049 0.2166 0.3457 0.25109 0.26622 0.31214 0.3157 0.32788 0.24729 0.1437 0.091
3983.339 0.1957 0.3501 0.32629 0.1513 0.1891 0.1699 0.047 0 0.118 0.23501
##END=
