##TITLE=Methoxyacetyl chloride
##JCAMP-DX=4.24
##DATA TYPE=INFRARED SPECTRUM
##ORIGIN=EPA-IR VAPOR PHASE LIBRARY
##OWNER=SRD/NIST
Collection (C) 2018 copyright by the U.S. Secretary of Commerce
on behalf of the United States of America. All rights reserved.
##CAS REGISTRY NO=38870-89-2
##MOLFORM=C 3 H 5 Cl O 2
##$NIST SOURCE=MSDC-IR
##STATE=gas
##XUNITS=1/CM
##YUNITS=ABSORBANCE
##XFACTOR=1.
##YFACTOR=0.001
##DELTAX=1.92898
##FIRSTX=549.8
##LASTX=4000.7
##FIRSTY=20.654
##MAXX=4000.7
##MINX=549.759
##MAXY=0.198764
##MINY=0
##NPOINTS=1790
##XYDATA=(X++(Y..Y))
549.759 20.654 22.504 23.924 25.444 27.144 28.264 29.384 30.434 31.324 31.834
569.049 31.944 31.544 31.144 30.874 30.554 30.034 28.564 27.104 25.784 24.174
588.339 22.534 21.064 19.824 18.714 17.634 16.714 15.954 15.524 15.234 14.444
607.628 14.174 14.364 13.994 13.394 13.204 12.954 12.744 12.574 12.264 12.164
626.918 11.964 11.584 11.394 11.364 11.154 10.854 10.634 10.234 9.734 9.494
646.208 9.224 8.914 8.694 8.524 8.204 7.984 7.804 7.644 7.504 7.304
665.498 7.284 7.404 7.254 7.004 6.824 6.584 6.764 6.794 6.684 6.774
684.787 6.894 7.234 7.404 7.364 7.564 7.854 8.284 8.704 9.034 9.544
704.077 10.034 10.504 11.274 12.214 13.194 14.434 16.234 18.244 20.464 23.314
723.367 26.794 31.104 36.224 42.154 49.324 57.694 67.244 77.624 88.454 99.524
742.657 110.364 120.774 129.804 137.314 143.464 147.784 150.024 150.304 148.374 143.834
761.947 136.634 127.584 116.844 104.304 91.144 78.534 67.124 57.374 49.274 42.024
781.236 35.474 29.704 24.634 20.474 17.014 14.324 12.444 10.914 9.684 8.614
800.526 7.834 7.404 6.834 6.334 6.164 5.814 5.204 4.924 4.894 4.844
819.816 4.764 4.684 4.684 4.584 4.424 4.434 4.474 4.364 4.394 4.654
839.106 4.784 4.754 4.714 4.944 5.244 5.574 6.094 6.324 6.554 6.964
858.395 7.294 7.774 8.344 8.804 9.634 10.564 11.574 12.664 13.764 15.174
877.685 16.834 18.874 21.244 23.774 26.414 29.254 32.424 35.944 39.814 43.924
896.975 48.144 52.374 56.704 61.324 65.874 69.904 73.434 76.354 78.324 79.604
916.265 80.364 80.784 80.834 80.534 80.224 80.494 81.104 81.314 82.084 84.814
935.555 89.744 96.664 105.004 113.104 119.694 124.224 125.904 125.554 124.324 122.284
954.844 119.674 117.364 114.584 108.284 97.894 85.534 73.564 63.794 56.494 51.134
974.134 47.514 45.194 43.484 42.204 41.284 40.734 40.474 40.484 40.424 40.434
993.424 40.624 40.694 40.954 41.124 41.054 40.524 39.764 39.064 38.244 37.184
1012.714 35.844 34.964 33.894 32.394 31.234 30.114 29.494 29.084 28.604 28.854
1032.003 29.514 30.264 31.204 32.504 33.724 34.954 36.524 37.904 38.884 39.764
1051.293 40.604 40.904 41.044 41.354 41.104 40.694 40.044 39.134 38.114 36.464
1070.583 35.004 33.504 31.774 30.084 28.544 26.864 24.834 23.384 22.394 21.204
1089.873 20.634 20.704 20.044 19.794 20.074 20.194 20.374 21.414 22.714 23.834
1109.163 25.714 28.084 30.794 34.174 38.274 43.084 48.304 53.884 60.044 66.534
1128.452 73.224 79.384 84.604 89.104 92.634 94.364 95.004 95.084 94.614 92.794
1147.742 89.734 85.814 80.634 74.814 68.494 62.294 56.554 51.194 47.024 43.774
1167.032 40.984 38.714 36.874 35.944 35.654 35.644 36.004 37.064 38.884 41.264
1186.322 44.474 48.374 52.214 56.214 60.264 64.104 67.164 69.224 70.514 70.934
1205.611 71.144 70.464 68.674 66.484 63.634 60.244 56.044 51.044 45.734 40.634
1224.901 35.834 31.804 28.834 26.434 24.344 22.554 21.094 19.844 18.804 17.934
1244.191 17.134 16.444 15.824 15.164 14.554 14.114 13.814 13.374 12.894 12.464
1263.481 12.224 12.084 11.804 11.434 11.224 11.024 10.624 10.324 10.094 9.654
1282.771 9.274 8.924 8.414 7.934 7.534 7.164 6.724 6.274 5.924 5.504
1302.060 5.144 4.874 4.624 4.464 4.344 4.204 4.144 4.174 4.164 4.134
1321.350 4.224 4.374 4.584 4.804 5.074 5.454 5.854 6.224 6.544 6.814
1340.640 7.064 7.384 7.624 7.594 7.554 7.514 7.444 7.354 7.164 6.884
1359.930 6.584 6.304 5.954 5.644 5.424 5.204 5.024 4.954 4.884 4.854
1379.219 4.974 5.144 5.254 5.484 5.894 6.284 6.774 7.374 7.934 8.574
1398.509 9.294 10.034 10.764 11.474 12.084 12.594 13.034 13.354 13.544 13.734
1417.799 13.994 14.254 14.494 14.504 14.354 14.174 13.894 13.654 13.424 13.264
1437.089 13.204 13.274 13.384 13.584 13.984 14.484 14.914 15.294 15.644 15.804
1456.378 15.924 16.024 16.114 16.054 15.554 14.724 13.764 12.824 11.944 11.134
1475.668 10.464 9.814 9.174 8.504 7.944 7.404 6.804 6.274 5.864 5.514
1494.958 5.164 4.804 4.554 4.294 4.024 3.804 3.584 3.504 3.384 3.164
1514.248 3.054 2.944 2.834 2.794 2.754 2.684 2.614 2.534 2.494 2.484
1533.538 2.524 2.574 2.524 2.484 2.404 2.334 2.344 2.364 2.394 2.394
1552.827 2.414 2.454 2.484 2.484 2.534 2.544 2.574 2.644 2.594 2.514
1572.117 2.474 2.514 2.514 2.524 2.494 2.444 2.394 2.344 2.314 2.214
1591.407 2.194 2.164 2.094 2.074 2.084 2.144 2.054 1.954 1.944 1.904
1610.697 1.874 1.844 1.834 1.844 1.874 1.894 1.884 1.884 1.874 1.864
1629.986 1.894 1.864 1.834 1.844 1.854 1.894 1.924 1.944 1.944 1.904
1649.276 1.914 1.924 1.964 2.004 2.014 2.104 2.144 2.164 2.154 2.134
1668.566 2.144 2.214 2.234 2.264 2.324 2.324 2.274 2.314 2.394 2.374
1687.856 2.404 2.424 2.404 2.474 2.574 2.654 2.694 2.704 2.734 2.804
1707.146 2.884 3.004 3.124 3.184 3.284 3.444 3.604 3.704 3.864 4.074
1726.435 4.354 4.604 4.834 5.164 5.604 6.104 6.564 7.154 7.884 8.704
1745.725 9.564 10.444 11.524 12.714 13.934 15.344 17.074 19.144 21.614 24.454
1765.015 27.754 31.644 36.374 41.774 48.324 55.764 64.174 73.724 84.264 95.554
1784.305 107.264 119.184 130.204 139.604 146.574 151.354 155.924 163.544 174.554 185.614
1803.594 193.414 197.704 198.764 197.074 193.474 189.044 184.734 180.694 176.374 171.134
1822.884 164.924 158.194 151.374 145.074 138.994 133.044 126.984 120.864 114.804 108.824
1842.174 103.184 97.644 92.084 86.524 80.934 75.704 70.824 66.374 62.514 59.134
1861.464 55.984 53.134 50.444 47.934 45.584 43.394 41.284 39.214 37.264 35.444
1880.754 33.604 31.734 29.944 28.264 26.724 25.304 24.074 23.014 22.004 21.064
1900.043 20.184 19.324 18.424 17.564 16.724 15.904 15.084 14.154 13.204 12.244
1919.333 11.284 10.384 9.584 8.874 8.284 7.694 7.194 6.804 6.384 6.054
1938.623 5.764 5.484 5.244 5.014 4.854 4.654 4.454 4.304 4.164 3.994
1957.913 3.834 3.694 3.574 3.384 3.214 3.074 2.874 2.714 2.564 2.464
1977.202 2.424 2.294 2.174 2.184 2.154 2.054 2.024 1.984 1.924 1.864
1996.492 1.844 1.854 1.814 1.834 1.914 1.884 1.814 1.864 1.944 1.964
2015.782 1.944 2.004 2.044 2.064 2.144 2.184 2.214 2.254 2.304 2.384
2035.072 2.454 2.494 2.594 2.674 2.744 2.834 2.824 2.834 2.884 2.904
2054.362 2.934 2.964 2.944 2.874 2.794 2.834 2.834 2.674 2.634 2.614
2073.651 2.564 2.514 2.474 2.424 2.364 2.324 2.344 2.314 2.314 2.384
2092.941 2.364 2.314 2.314 2.404 2.434 2.454 2.474 2.504 2.574 2.604
2112.231 2.604 2.584 2.564 2.634 2.714 2.724 2.694 2.694 2.694 2.634
2131.521 2.554 2.514 2.444 2.374 2.364 2.284 2.184 2.074 2.034 1.994
2150.810 1.894 1.864 1.754 1.624 1.594 1.514 1.394 1.334 1.354 1.324
2170.100 1.2238 1.18 1.2133 1.1957 1.1179 1.0924 1.1008 1.0832 1.0388 1.083
2189.390 1.1416 1.1244 1.1539 1.1907 1.1785 1.1233 1.1098 1.1249 1.0673 1.0827
2208.680 1.1584 1.1591 1.1471 1.1354 1.0646 1.0739 1.111 1.1219 1.1244 1.0626
2227.970 1.0541 1.0694 1.0908 1.1423 1.1303 1.0752 1.072 1.1038 1.0807 1.0752
2247.259 1.1525 1.1759 1.1224 1.0114 0.9872 1.0449 1.0306 1.0632 1.129 1.1451
2266.549 1.0575 0.984 0.9856 0.9963 0.9733 0.9396 0.9817 1.0507 1.0592 1.0951
2285.839 1.1075 1.0334 1.0133 1 0.9486 0.9496 1.0054 1.0657 1.038 0.997
2305.129 0.9858 1.0144 1.0904 1.0419 1.0431 1.0887 1.0757 1.0971 1.1907 1.2305
2324.418 1.1865 1.2218 1.2583 1.2355 1.2647 1.284 1.2621 1.2239 1.2123 1.2249
2343.708 1.1761 1.1146 1.0983 1.0668 1.0591 1.1131 1.1254 1.1466 1.1154 1.0142
2362.998 0.99 0.9715 0.9523 1.0003 0.9684 0.9706 1.0379 1.0278 0.9704 0.9553
2382.288 0.9453 0.9135 0.9189 1.0106 1.0896 1.0647 1.0372 1.0524 1.1252 1.1417
2401.578 1.0736 1.0662 1.0897 1.1156 1.129 1.0736 1.0476 1.0128 1.0278 1.0467
2420.867 1.0599 0.98 0.8248 0.8123 0.7554 0.6776 0.685 0.7081 0.6624 0.5911
2440.157 0.537 0.4307 0.4038 0.4787 0.5288 0.5462 0.5597 0.5636 0.5552 0.4543
2459.447 0.4001 0.4334 0.502 0.5983 0.5571 0.5343 0.5668 0.5641 0.546 0.5152
2478.737 0.5608 0.5519 0.5182 0.5592 0.5836 0.6322 0.6233 0.6287 0.6207 0.5567
2498.026 0.5701 0.5386 0.5119 0.4789 0.4464 0.4768 0.4706 0.3919 0.33466 0.4325
2517.316 0.4572 0.34606 0.30235 0.31633 0.37445 0.30829 0.2055 0.2554 0.33544 0.3898
2536.606 0.4382 0.4686 0.4599 0.4181 0.4682 0.5428 0.4796 0.4412 0.4635 0.5362
2555.896 0.5709 0.5936 0.5722 0.5337 0.5721 0.5755 0.5957 0.6152 0.5737 0.528
2575.186 0.5616 0.5592 0.5415 0.545 0.5797 0.657 0.6944 0.6889 0.694 0.7456
2594.475 0.8012 0.8029 0.7282 0.6829 0.6869 0.6915 0.6638 0.6821 0.7653 0.7503
2613.765 0.7184 0.7565 0.7594 0.6254 0.6031 0.6483 0.5421 0.5473 0.6117 0.5597
2633.055 0.5772 0.6868 0.6768 0.6802 0.7599 0.7269 0.711 0.7056 0.685 0.7944
2652.345 0.8034 0.7466 0.7329 0.8174 0.8892 0.9251 0.9351 0.9303 0.9697 0.9739
2671.634 0.9962 1.0282 1.1256 1.145 1.1591 1.1683 1.1779 1.1778 1.239 1.2368
2690.924 1.2069 1.2712 1.2691 1.304 1.324 1.304 1.279 1.334 1.344 1.314
2710.214 1.304 1.314 1.334 1.314 1.334 1.304 1.2687 1.454 1.644 1.624
2729.504 1.544 1.514 1.524 1.584 1.644 1.634 1.654 1.764 1.824 1.874
2748.794 1.834 1.934 2.204 2.284 2.324 2.424 2.474 2.534 2.694 2.674
2768.083 2.684 2.944 3.134 3.254 3.434 3.554 3.624 3.764 4.114 4.384
2787.373 4.474 4.774 5.164 5.414 5.754 6.344 6.914 7.434 8.034 8.714
2806.663 9.504 10.354 11.234 12.164 13.294 14.644 16.184 17.824 19.544 21.334
2825.953 23.104 24.964 26.694 28.094 29.324 30.394 31.504 32.164 31.644 30.924
2845.242 30.484 29.864 28.954 27.714 26.394 25.104 23.844 22.974 22.374 22.004
2864.532 21.894 21.864 22.034 22.544 23.244 24.004 24.814 25.694 26.654 27.504
2883.822 28.494 29.384 30.134 30.814 31.564 32.354 32.714 32.904 33.034 33.094
2903.112 32.974 32.834 32.884 33.034 33.244 33.504 33.914 34.414 35.084 35.974
2922.401 36.924 38.174 39.614 40.924 42.244 43.304 44.184 44.984 45.514 45.834
2941.691 45.684 45.164 44.504 43.784 42.904 41.714 40.234 38.634 36.864 35.064
2960.981 33.234 31.364 29.784 28.164 26.674 25.384 24.004 22.684 21.554 20.654
2980.271 19.804 19.164 18.774 18.534 18.474 18.684 19.164 19.934 21.014 22.154
2999.561 23.184 24.044 24.574 24.604 24.274 23.984 23.784 23.364 22.594 21.794
3018.850 20.924 19.634 17.884 15.824 14.134 12.694 11.404 10.444 9.584 8.814
3038.140 8.274 7.664 7.234 7.134 6.844 6.534 6.394 6.164 5.834 5.634
3057.430 5.494 5.434 5.374 5.254 5.054 4.824 4.634 4.594 4.654 4.524
3076.720 4.304 4.154 3.964 3.924 3.904 3.744 3.634 3.444 3.264 3.304
3096.009 3.324 3.174 3.044 2.924 2.714 2.524 2.504 2.444 2.344 2.224
3115.299 2.014 1.824 1.874 1.974 1.774 1.644 1.624 1.544 1.534 1.504
3134.589 1.394 1.284 1.2295 1.294 1.2632 1.294 1.334 1.1303 0.9753 0.9286
3153.879 1.0303 0.9314 0.7775 0.8548 0.8583 0.9373 0.9586 0.8229 0.7441 0.7099
3173.169 0.6138 0.4667 0.4341 0.5849 0.5687 0.4868 0.4773 0.4878 0.6515 0.7
3192.458 0.5469 0.3926 0.4837 0.5249 0.463 0.5473 0.4769 0.3868 0.4848 0.5243
3211.748 0.4838 0.4804 0.493 0.4828 0.5648 0.408 0.2141 0.3921 0.5063 0.4791
3231.038 0.37855 0.37274 0.3973 0.33304 0.3757 0.4379 0.4952 0.5392 0.5536 0.5582
3250.328 0.3621 0.2533 0.2692 0.292291 0.293504 0.2378 0.28148 0.4513 0.5139 0.37849
3269.617 0.292577 0.2397 0.30485 0.4169 0.3565 0.4251 0.5352 0.385 0.30202 0.2393
3288.907 0.2092 0.201 0.2502 0.2109 0.126 0.095 0 0.2145 0.38285 0.283634
3308.197 0.25 0.189 0.33421 0.466 0.33561 0.31906 0.3851 0.35382 0.35953 0.37825
3327.487 0.4246 0.5746 0.5226 0.4031 0.31138 0.163 0.2596 0.5102 0.4666 0.36309
3346.777 0.3873 0.286029 0.2112 0.36023 0.4512 0.31878 0.2497 0.30024 0.2734 0.2457
3366.066 0.1951 0.004 0.084 0.291123 0.34519 0.3841 0.4157 0.4916 0.3999 0.27
3385.356 0.2156 0.2451 0.289052 0.31089 0.31676 0.2299 0.30857 0.35834 0.3948 0.413
3404.646 0.38254 0.38056 0.4569 0.6555 0.5248 0.2553 0.35718 0.37992 0.1907 0.290597
3423.936 0.30521 0.32043 0.4439 0.449 0.30887 0.137 0.2703 0.2708 0.32687 0.5714
3443.225 0.4775 0.2615 0.2591 0.518 0.36794 0.04 0.051 0.28133 0.4777 0.33926
3462.515 0.2229 0.283437 0.187 0.135 0.4193 0.541 0.4056 0.35128 0.33336 0.36791
3481.805 0.30173 0.2234 0.2563 0.4619 0.5135 0.2482 0.2479 0.29445 0.2344 0.2112
3501.095 0.4257 0.7038 0.5332 0.38002 0.4033 0.5076 0.5883 0.4508 0.3991 0.5173
3520.385 0.6542 0.6961 0.8053 0.8367 0.7683 0.8807 0.903 0.9251 0.9395 0.8203
3539.674 0.86 1.1135 1.304 1.384 1.514 1.464 1.554 1.814 1.984 2.154
3558.964 2.214 2.344 2.484 2.514 2.664 2.684 2.744 2.964 2.974 2.774
3578.254 2.714 2.804 2.824 2.854 2.814 2.604 2.444 2.454 2.554 2.584
3597.544 2.534 2.474 2.474 2.484 2.544 2.634 2.584 2.674 2.764 2.664
3616.833 2.634 2.734 2.674 2.574 2.724 2.814 3.004 3.224 3.084 2.984
3636.123 3.164 3.224 3.104 2.964 2.934 2.854 2.744 2.624 2.444 2.414
3655.413 2.444 2.374 2.264 2.164 1.984 1.904 1.924 1.944 1.734 1.564
3674.703 1.524 1.584 1.354 1.294 1.364 1.2273 1.2757 1.1757 0.8895 0.8016
3693.993 0.8978 0.9774 1.0485 0.963 0.8935 0.765 0.7124 0.801 0.8586 0.804
3713.282 0.834 0.7746 0.7082 1.0103 1.0728 0.912 0.7238 0.5915 0.5534 0.637
3732.572 0.8211 0.8261 0.7772 0.8393 0.8697 0.8232 0.768 0.6718 0.6121 0.7047
3751.862 0.7367 0.6055 0.5764 0.7082 0.7945 0.7113 0.5835 0.622 0.7834 0.7985
3771.152 0.6156 0.5862 0.5394 0.6398 0.6925 0.5433 0.5883 0.5515 0.4743 0.485
3790.441 0.5061 0.4779 0.4639 0.4178 0.4741 0.5827 0.4684 0.5367 0.5887 0.6088
3809.731 0.6506 0.6264 0.7305 0.7542 0.5935 0.445 0.5603 0.6607 0.5586 0.4939
3829.021 0.5437 0.6942 0.7271 0.5064 0.31004 0.22 0.4464 0.5919 0.5988 0.7389
3848.311 0.556 0.5344 0.5559 0.5001 0.7237 0.5861 0.5227 0.6976 0.8365 0.9527
3867.601 0.8776 0.9404 1.0676 0.974 0.8525 0.9705 1.1636 1.0195 0.8409 0.7252
3886.890 0.6763 0.7728 0.8942 0.9825 0.802 0.8575 0.8859 0.8574 1.1599 1.1138
3906.180 0.9438 0.9072 0.8208 0.8203 0.8178 0.7462 0.6374 0.7365 0.8235 0.6242
3925.470 0.4359 0.6187 0.7154 0.6397 0.8095 1.0054 0.9527 0.8394 0.7269 0.536
3944.760 0.7356 0.8295 0.7405 0.684 0.6933 0.8423 0.8192 0.7324 0.8487 0.9525
3964.049 1.0293 0.9837 0.9509 0.868 0.6202 0.6485 0.8346 0.8204 0.6128 0.745
3983.339 0.8809 0.8615 0.8233 0.6374 0.517 0.4814 0.6874 0.932 0.8943 0.708
##END=
