##TITLE=Pentafluoroanisole
##JCAMP-DX=4.24
##DATA TYPE=INFRARED SPECTRUM
##ORIGIN=NIST Mass Spectrometry Data Center
##OWNER=NIST Standard Reference Data Program
Collection (C) 2018 copyright by the U.S. Secretary of Commerce
on behalf of the United States of America. All rights reserved.
##CAS REGISTRY NO=389-40-2
##MOLFORM=C 7 H 3 F 5 O
##$NIST SOURCE=MSDC-IR
##SPECTROMETER/DATA SYSTEM=HP-GC/MS/IRD
##STATE=gas
##XUNITS=1/CM
##YUNITS=ABSORBANCE
##XFACTOR=1.0
##YFACTOR=0.000015300
##DELTAX=4.0
##FIRSTX=550.0
##LASTX=3846.0
##FIRSTY=0.000260
##MAXX=3846
##MINX=550
##MAXY=0.153
##MINY=0
##NPOINTS=825
##XYDATA=(X++(Y..Y))
550.0 17 16 6 13 9 3 2 0 1 9
590.0 14 15 14 13 10 10 6 7 10 10
630.0 9 5 9 12 5 1 3 4 11 11
670.0 6 9 11 6 0 4 8 10 5 3
710.0 11 9 4 9 13 13 14 17 17 15
750.0 15 14 14 13 7 7 10 9 9 12
790.0 11 10 11 11 8 10 14 16 19 20
830.0 24 29 30 32 33 33 34 38 44 49
870.0 50 52 56 60 57 57 63 70 87 116
910.0 160 239 367 544 740 885 916 800 595 419
950.0 331 315 337 371 408 452 521 654 941 1499
990.0 2393 3412 4104 4279 3850 2898 2037 1631 1622 1958
1030.0 2666 3700 4771 5404 5312 4575 3491 2442 1721 1308
1070.0 1050 855 686 539 418 330 273 240 224 211
1110.0 201 192 184 181 182 187 203 225 253 298
1150.0 359 414 439 426 388 343 308 292 300 322
1190.0 347 367 368 343 301 252 211 182 158 144
1230.0 134 122 111 103 93 88 82 77 77 79
1270.0 81 82 83 82 81 83 88 101 131 181
1310.0 234 266 265 233 183 142 124 116 112 111
1350.0 110 112 120 133 149 165 178 185 188 188
1390.0 188 193 204 219 239 262 299 375 515 714
1430.0 905 996 958 816 641 534 516 550 600 662
1470.0 735 829 958 1166 1524 2162 3186 4671 6418 8101
1510.0 9420 10000 9693 8492 6741 4700 2754 1446 803 533
1550.0 409 334 282 231 195 171 159 153 155 159
1590.0 160 155 142 126 112 103 98 100 108 118
1630.0 124 123 113 99 82 71 65 62 61 61
1670.0 63 64 62 60 56 51 48 47 46 44
1710.0 44 46 51 55 61 75 91 102 110 119
1750.0 120 112 101 90 79 71 68 66 64 63
1790.0 64 60 56 51 44 37 32 29 27 26
1830.0 25 25 24 25 24 25 27 29 28 28
1870.0 28 25 21 17 16 15 16 15 14 14
1910.0 16 17 16 15 14 14 15 16 17 19
1950.0 21 24 27 30 31 32 31 29 26 21
1990.0 17 14 12 11 10 11 11 13 13 15
2030.0 17 18 20 23 29 37 44 54 62 66
2070.0 68 69 67 60 50 42 34 28 22 21
2110.0 18 17 18 16 18 19 20 22 21 22
2150.0 22 19 15 13 14 13 11 12 13 12
2190.0 12 12 11 10 9 8 7 8 10 12
2230.0 15 17 15 14 14 13 9 6 5 4
2270.0 3 2 1 2 1 2 0 0 1 1
2310.0 0 2 2 1 3 3 3 5 7 8
2350.0 9 12 15 17 19 21 23 26 30 33
2390.0 37 42 45 48 45 41 36 31 29 28
2430.0 29 33 36 40 51 60 65 72 73 71
2470.0 64 58 50 39 30 26 23 21 23 25
2510.0 23 23 21 19 16 13 11 11 10 9
2550.0 12 14 12 13 14 14 13 15 13 11
2590.0 12 10 9 10 9 10 11 10 11 16
2630.0 20 26 32 38 43 52 62 67 70 66
2670.0 61 53 42 33 26 20 17 16 13 11
2710.0 12 11 9 5 5 5 2 1 1 4
2750.0 5 3 2 2 0 2 2 0 2 5
2790.0 5 6 9 14 16 18 23 27 32 42
2830.0 58 80 109 138 158 156 136 108 87 79
2870.0 77 79 86 97 107 114 117 117 114 111
2910.0 112 115 120 129 141 161 194 238 292 347
2950.0 394 425 434 415 373 320 269 231 208 199
2990.0 197 196 190 190 199 205 220 233 231 211
3030.0 184 151 122 102 86 76 66 59 57 52
3070.0 47 46 45 43 41 42 38 33 31 31
3110.0 29 26 26 22 21 21 19 18 18 13
3150.0 12 15 12 9 10 8 7 4 6 7
3190.0 4 3 3 6 7 2 2 1 0 3
3230.0 0 1 3 1 2 4 7 7 5 5
3270.0 5 1 1 2 2 4 4 5 5 3
3310.0 3 4 3 4 5 7 7 4 4 8
3350.0 7 5 5 6 5 6 4 3 5 7
3390.0 6 7 9 6 5 5 6 8 7 6
3430.0 9 9 7 7 8 10 11 12 13 13
3470.0 12 13 15 11 8 11 11 14 14 10
3510.0 11 14 13 11 10 9 11 15 14 13
3550.0 12 9 11 13 15 14 11 12 14 14
3590.0 15 15 13 12 12 11 10 11 10 10
3630.0 9 11 11 9 12 16 12 11 14 12
3670.0 13 16 13 11 14 14 10 10 12 12
3710.0 13 14 14 13 11 11 14 13 14 15
3750.0 11 13 12 12 10 12 12 11 11 12
3790.0 12 9 7 8 10 12 13 12 13 16
3830.0 15 14 13 11 11
##END=
