##TITLE=2,6,10-Trimethyldodecane
##JCAMP-DX=4.24
##DATA TYPE=INFRARED SPECTRUM
##ORIGIN=NIST Mass Spectrometry Data Center
##OWNER=NIST Standard Reference Data Program
Collection (C) 2018 copyright by the U.S. Secretary of Commerce
on behalf of the United States of America. All rights reserved.
##CAS REGISTRY NO=3891-98-3
##MOLFORM=C 15 H 32
##$NIST SOURCE=MSDC-IR
##SPECTROMETER/DATA SYSTEM=HP-GC/MS/IRD
##STATE=gas
##XUNITS=1/CM
##YUNITS=ABSORBANCE
##XFACTOR=1.0
##YFACTOR=0.000005300
##DELTAX=4.0
##FIRSTX=550.0
##LASTX=3846.0
##FIRSTY=0.000806
##MAXX=3846
##MINX=550
##MAXY=0.053
##MINY=0
##NPOINTS=825
##XYDATA=(X++(Y..Y))
550.0 152 85 28 35 32 23 23 37 39 29
590.0 19 12 15 26 25 16 5 2 8 19
630.0 24 24 33 39 35 29 29 34 33 31
670.0 30 21 32 45 42 43 51 55 54 60
710.0 69 79 89 99 117 121 121 121 106 94
750.0 99 97 91 92 92 97 105 101 96 96
790.0 89 75 74 79 79 71 62 61 67 75
830.0 73 76 78 76 73 70 74 76 68 62
870.0 60 57 61 61 62 63 64 70 75 85
910.0 97 104 109 112 120 120 120 125 126 123
950.0 123 126 132 142 155 164 168 167 160 149
990.0 142 139 144 154 157 159 161 157 147 140
1030.0 135 122 108 102 100 92 85 85 76 60
1070.0 52 46 48 49 42 41 46 53 58 64
1110.0 67 66 68 71 81 100 126 150 173 194
1150.0 216 232 244 257 258 235 196 157 133 124
1190.0 122 116 111 119 122 117 114 108 106 104
1230.0 95 89 91 94 98 92 94 102 108 125
1270.0 138 143 149 152 157 168 168 172 182 189
1310.0 203 216 223 231 253 274 307 349 361 370
1350.0 405 449 519 607 687 805 946 1054 1104 1055
1390.0 868 636 454 335 273 235 228 252 249 247
1430.0 283 360 449 543 691 858 1086 1305 1417 1434
1470.0 1325 1104 818 586 454 364 288 239 205 216
1510.0 198 152 148 142 115 92 88 108 115 90
1550.0 74 87 114 88 58 58 57 53 40 39
1590.0 37 38 37 36 37 39 51 57 51 45
1630.0 44 62 60 53 66 87 92 58 46 54
1670.0 63 66 60 77 78 50 66 89 76 49
1710.0 38 59 66 36 27 52 70 45 27 39
1750.0 56 45 34 32 39 46 34 23 34 33
1790.0 33 34 31 35 25 20 20 17 21 27
1830.0 26 21 16 26 27 13 10 14 14 19
1870.0 20 11 10 11 11 13 10 9 9 9
1910.0 8 9 17 14 6 4 7 8 10 8
1950.0 3 2 2 2 4 7 4 2 1 3
1990.0 8 7 3 3 5 1 3 10 8 8
2030.0 10 9 7 10 11 11 12 10 9 9
2070.0 3 2 4 6 4 5 7 6 5 5
2110.0 4 1 3 3 5 5 4 2 3 6
2150.0 6 9 10 6 5 7 10 10 7 5
2190.0 5 6 7 6 5 5 4 4 3 1
2230.0 6 7 6 5 6 7 8 8 9 12
2270.0 12 12 14 16 17 17 20 21 20 19
2310.0 21 20 22 30 31 31 31 29 26 25
2350.0 24 24 26 28 29 31 27 27 28 26
2390.0 23 23 23 23 26 25 20 19 24 27
2430.0 26 26 25 23 19 19 20 22 24 25
2470.0 23 25 25 24 27 29 27 28 34 36
2510.0 39 39 37 40 38 38 42 43 46 50
2550.0 53 57 61 62 64 69 75 80 88 94
2590.0 96 97 95 98 103 105 109 108 109 110
2630.0 107 108 110 111 111 113 118 118 117 122
2670.0 124 125 127 132 140 141 138 140 148 154
2710.0 160 171 181 191 202 211 218 218 216 213
2750.0 210 211 212 215 223 230 237 245 262 285
2790.0 307 334 361 390 422 461 510 560 613 681
2830.0 777 907 1095 1384 1798 2310 2804 3177 3444 3697
2870.0 4026 4420 4718 4784 4635 4475 4500 4789 5310 5933
2910.0 6511 7015 7513 8080 8699 9199 9331 8988 8300 7606
2950.0 7323 7744 8797 9849 10000 8823 6781 4720 3203 2257
2990.0 1669 1288 1025 832 700 607 530 472 423 382
3030.0 355 332 314 301 289 274 263 254 251 245
3070.0 233 224 220 213 204 203 198 187 183 173
3110.0 166 164 161 155 150 145 143 142 138 141
3150.0 142 138 140 137 129 128 128 123 120 115
3190.0 108 104 102 95 86 75 65 61 60 53
3230.0 45 47 44 44 43 36 35 39 40 35
3270.0 34 35 30 33 36 32 33 36 33 29
3310.0 26 24 27 29 31 34 35 39 38 31
3350.0 31 31 29 34 33 30 25 24 28 29
3390.0 26 20 16 18 15 13 14 12 9 7
3430.0 10 9 9 6 5 6 7 9 9 4
3470.0 2 6 14 15 12 9 0 4 13 6
3510.0 3 3 1 10 18 6 4 2 4 20
3550.0 18 7 4 13 31 21 1 1 6 32
3590.0 32 11 8 10 21 33 26 29 19 36
3630.0 55 20 8 5 30 49 25 14 1 6
3670.0 35 45 29 14 27 33 19 17 14 10
3710.0 22 26 16 26 31 29 52 44 51 65
3750.0 48 29 8 7 20 22 13 13 9 7
3790.0 3 6 20 27 26 22 28 39 32 24
3830.0 25 36 43 34 25
##END=
