##TITLE=.alpha.-Cyclohexylphenylacetonitrile
##JCAMP-DX=4.24
##DATA TYPE=INFRARED SPECTRUM
##ORIGIN=EPA-IR VAPOR PHASE LIBRARY
##OWNER=SRD/NIST
Collection (C) 2018 copyright by the U.S. Secretary of Commerce
on behalf of the United States of America. All rights reserved.
##CAS REGISTRY NO=3893-23-0
##MOLFORM=C 14 H 17 N
##$NIST SOURCE=MSDC-IR
##STATE=gas
##XUNITS=1/CM
##YUNITS=ABSORBANCE
##XFACTOR=1.
##YFACTOR=0.001
##DELTAX=1.92934
##FIRSTX=549.9
##LASTX=3999.5
##FIRSTY=1.6057
##MAXX=3999.53
##MINX=549.863
##MAXY=0.331143
##MINY=0
##NPOINTS=1789
##XYDATA=(X++(Y..Y))
549.863 1.6057 1.495 1.3055 1.0632 1.1056 1.2301 1.1066 0.8397 0.733 0.9835
569.156 1.1316 1.0778 1.0169 0.97838 1.174 1.1824 1.1274 1.3093 1.6338 1.943
588.450 2.283 2.853 3.413 3.953 4.423 4.473 4.363 4.073 3.553 3.173
607.743 2.953 2.763 2.593 2.543 2.553 2.553 2.433 2.373 2.483 2.593
627.037 2.853 3.503 4.383 5.193 5.753 6.053 6.253 6.203 5.783 5.213
646.330 4.553 4.083 3.913 3.943 4.113 4.503 5.043 5.613 6.393 7.453
665.624 8.643 9.853 11.133 12.393 13.523 14.613 15.583 16.493 17.803 19.793
684.917 23.103 28.403 35.913 45.403 55.323 63.343 68.783 71.423 70.423 65.003
704.210 56.203 46.363 36.883 28.643 22.103 17.263 13.793 11.413 9.763 8.723
723.504 8.153 7.963 8.203 8.643 9.583 11.093 13.043 15.593 18.773 22.383
742.797 26.043 29.093 30.893 31.273 30.323 28.223 25.073 21.273 17.493 14.363
762.091 12.013 10.443 9.553 9.063 8.853 8.683 8.423 8.013 7.383 6.703
781.384 5.993 5.233 4.593 4.103 3.753 3.503 3.273 3.053 2.893 2.823
800.678 2.783 2.763 2.763 2.793 2.873 2.963 2.993 2.893 2.773 2.613
819.971 2.343 2.063 1.8567 1.7055 1.6361 1.6579 1.6755 1.7891 2.003 2.223
839.264 2.523 2.883 3.093 3.183 3.243 3.183 3.003 2.713 2.453 2.273
858.558 2.193 2.203 2.203 2.283 2.503 2.583 2.683 2.853 2.923 3.013
877.851 3.123 3.353 3.743 4.163 4.633 5.143 5.573 5.853 5.873 5.743
897.145 5.593 5.363 5.123 5.013 5.003 4.973 4.963 4.873 4.723 4.553
916.438 4.313 4.063 3.863 3.773 3.673 3.493 3.273 3.073 2.933 2.813
935.732 2.713 2.683 2.673 2.713 2.783 2.773 2.663 2.563 2.403 2.203
955.025 2.083 1.963 1.893 1.943 2.113 2.343 2.543 2.673 2.813 2.933
974.318 3.043 3.143 3.143 3.083 3.023 2.903 2.773 2.643 2.473 2.273
993.612 2.143 2.193 2.353 2.503 2.603 2.683 2.743 2.793 2.843 2.853
1012.905 2.913 3.153 3.573 4.143 4.973 6.143 7.603 9.013 9.923 10.223
1032.199 10.083 9.573 8.643 7.333 5.973 5.043 4.493 4.143 4.013 4.003
1051.492 4.063 4.253 4.593 5.063 5.473 5.733 5.903 5.903 5.753 5.563
1070.786 5.453 5.453 5.413 5.373 5.373 5.283 5.123 4.953 4.633 4.213
1090.079 3.813 3.363 2.943 2.643 2.393 2.143 1.933 1.8828 1.8681 1.8051
1109.372 1.7753 1.752 1.77 1.8293 1.973 2.053 2.023 2.093 2.103 2.073
1128.666 1.983 1.8139 1.5205 1.345 1.2794 1.0385 0.8425 0.656 0.578 0.483
1147.959 0.401 0.484 0.506 0.505 0.583 0.697 0.74 0.7882 1.021 1.2036
1167.253 1.2403 1.334 1.4056 1.3278 1.3231 1.4001 1.4572 1.5748 1.6771 1.7444
1186.546 1.6792 1.6931 1.5927 1.4054 1.4126 1.206 1.1757 1.3193 1.2169 1.0183
1205.840 1.0591 1.3632 1.2738 1.0119 1.2419 1.4445 1.36 1.2928 1.388 1.614
1225.133 1.6029 1.6936 1.963 2.033 2.043 2.243 2.413 2.283 2.273 2.313
1244.426 2.313 2.583 2.893 3.083 3.403 3.833 4.233 4.743 5.383 5.933
1263.720 6.433 6.933 7.383 7.823 8.203 8.483 8.533 8.413 8.063 7.383
1283.013 6.653 5.813 4.893 4.183 3.723 3.573 3.553 3.533 3.693 3.933
1302.307 4.183 4.433 4.723 5.063 5.313 5.513 5.723 5.873 6.003 6.133
1321.600 6.253 6.333 6.323 6.373 6.493 6.593 6.713 6.913 7.203 7.543
1340.894 7.883 8.303 8.713 9.083 9.323 9.273 8.973 8.433 7.843 7.303
1360.187 6.803 6.543 6.513 6.533 6.573 6.553 6.403 6.043 5.563 5.013
1379.480 4.483 3.993 3.563 3.293 3.033 2.793 2.633 2.533 2.483 2.453
1398.774 2.453 2.493 2.603 2.763 2.873 2.993 3.133 3.243 3.353 3.423
1418.067 3.463 3.513 3.553 3.593 3.713 3.913 4.223 4.703 5.493 6.663
1437.361 8.493 11.213 15.053 20.063 26.063 32.423 38.413 43.193 46.283 46.923
1456.654 43.873 38.543 32.973 27.123 21.573 16.813 13.263 10.753 9.183 8.283
1475.948 7.883 7.933 8.543 9.733 11.323 13.263 15.573 17.913 19.963 21.453
1495.241 22.143 21.883 20.783 18.833 16.313 13.563 10.683 8.253 6.433 5.033
1514.534 4.013 3.273 2.803 2.513 2.363 2.303 2.263 2.253 2.263 2.233
1533.828 2.193 2.133 1.983 1.8259 1.7505 1.697 1.5903 1.4788 1.4458 1.3835
1553.121 1.3145 1.2548 1.1439 1.1429 1.2794 1.365 1.4641 1.602 1.7364 1.933
1572.415 2.213 2.473 2.753 3.263 3.763 4.303 4.963 5.683 6.463 7.303
1591.708 8.183 9.083 9.953 10.533 10.763 10.713 10.243 9.383 8.253 6.943
1611.002 5.713 4.643 3.753 3.053 2.583 2.203 1.923 1.7565 1.6513 1.5324
1630.295 1.4461 1.3945 1.2623 1.2131 1.2357 1.2298 1.1931 1.1899 1.2373 1.2057
1649.588 1.2374 1.2865 1.3331 1.4344 1.5029 1.5579 1.542 1.5029 1.4596 1.3634
1668.882 1.213 1.1954 1.1918 1.1326 1.0948 1.1004 1.1028 1.0474 1.042 1.0237
1688.175 1.0122 0.97309 0.91504 0.891353 0.8724 0.90106 0.8982 0.9083 0.96016 0.92623
1707.469 0.92953 0.97311 1.0163 1.0195 0.96331 0.93928 1.0063 1.0972 1.1391 1.1568
1726.762 1.2055 1.2865 1.3361 1.4272 1.5361 1.6293 1.6819 1.7683 1.8656 1.8783
1746.056 1.883 1.833 1.7326 1.6372 1.5281 1.4106 1.3061 1.2299 1.1471 1.0812
1765.349 1.0514 1.083 1.1737 1.1928 1.2414 1.3638 1.4803 1.5989 1.7344 1.8693
1784.642 2.083 2.433 2.833 3.233 3.573 3.853 4.063 4.043 3.843 3.563
1803.936 3.223 2.853 2.463 2.183 2.023 1.893 1.8077 1.7055 1.5823 1.475
1823.229 1.3255 1.2192 1.1103 0.96197 0.89455 0.8665 0.8305 0.8483 0.8255 0.81
1842.523 0.8584 0.89914 0.94748 1.0211 1.1207 1.2475 1.3491 1.4887 1.6858 1.8417
1861.816 2.013 2.213 2.373 2.513 2.673 2.773 2.813 2.793 2.683 2.643
1881.110 2.583 2.523 2.523 2.463 2.403 2.323 2.173 2.003 1.7782 1.6133
1900.403 1.4262 1.233 1.1108 1.0434 1.037 0.9971 0.93003 0.92387 0.92355 0.95391
1919.696 1.0369 1.0931 1.1579 1.3313 1.5238 1.7073 2.003 2.313 2.613 2.943
1938.990 3.263 3.523 3.653 3.683 3.603 3.453 3.313 3.203 3.103 2.983
1958.283 2.913 2.853 2.673 2.433 2.183 1.913 1.5874 1.3323 1.1797 1.0167
1977.577 0.96041 0.92578 0.89432 0.88095 0.8476 0.87832 0.8676 0.761 0.705 0.64
1996.870 0.563 0.547 0.521 0.538 0.554 0.524 0.513 0.523 0.543 0.53
2016.164 0.524 0.507 0.485 0.495 0.498 0.503 0.533 0.545 0.504 0.477
2035.457 0.495 0.481 0.48 0.481 0.499 0.511 0.539 0.56 0.539 0.547
2054.750 0.543 0.559 0.576 0.559 0.568 0.614 0.606 0.534 0.538 0.627
2074.044 0.613 0.552 0.568 0.559 0.541 0.544 0.555 0.567 0.566 0.573
2093.337 0.585 0.589 0.562 0.561 0.573 0.581 0.592 0.592 0.604 0.618
2112.631 0.629 0.611 0.62 0.635 0.626 0.668 0.686 0.674 0.665 0.641
2131.924 0.616 0.652 0.69 0.667 0.659 0.63 0.611 0.605 0.604 0.628
2151.218 0.649 0.681 0.7 0.696 0.684 0.687 0.727 0.752 0.721 0.71
2170.511 0.717 0.711 0.759 0.8115 0.8006 0.78 0.782 0.8141 0.8286 0.8729
2189.804 0.91489 0.88888 0.87796 0.8656 0.87389 0.8674 0.8644 0.90048 0.90525 0.92564
2209.098 0.94584 0.95813 0.95531 0.9764 1.0572 1.1273 1.1887 1.3105 1.4811 1.6882
2228.391 1.963 2.333 2.723 3.113 3.463 3.743 3.903 3.903 3.813 3.603
2247.685 3.273 2.893 2.483 2.143 1.893 1.7065 1.5489 1.4033 1.2759 1.2036
2266.978 1.1493 1.0845 1.03 1.0049 0.96497 0.8959 0.886021 0.93147 0.91792 0.88118
2286.272 0.888624 0.91609 0.90322 0.91089 0.93825 0.94666 0.96805 0.9911 1.0252 1.0562
2305.565 1.0903 1.1241 1.1987 1.2738 1.3091 1.3219 1.291 1.262 1.2144 1.168
2324.858 1.1208 1.0658 1.0426 1.0249 1.032 1.0761 1.1681 1.236 1.2894 1.3149
2344.152 1.2982 1.3224 1.3226 1.2502 1.1995 1.1844 1.1691 1.1505 1.1153 1.1229
2363.445 1.1947 1.2021 1.2248 1.302 1.2916 1.2607 1.2688 1.2873 1.2639 1.2435
2382.739 1.2654 1.2813 1.2685 1.2704 1.2805 1.2834 1.2933 1.2796 1.2935 1.3022
2402.032 1.2333 1.2039 1.2592 1.2791 1.2276 1.203 1.2115 1.1894 1.1709 1.1577
2421.326 1.1586 1.147 1.1436 1.1265 1.0546 1.0483 1.071 1.0395 1.0148 1.0379
2440.619 0.9847 0.92618 0.91281 0.87924 0.88172 0.88079 0.822 0.773 0.767 0.7953
2459.912 0.8334 0.883588 0.8589 0.8695 0.892819 0.89702 0.94076 0.95092 0.97883 1.007
2479.206 1.0305 1.0483 1.1113 1.207 1.2626 1.2423 1.2021 1.2229 1.2064 1.1505
2498.499 1.1531 1.1243 1.0873 1.0847 1.0971 1.0981 1.0852 1.1192 1.1328 1.1176
2517.793 1.1478 1.1611 1.1557 1.1868 1.1723 1.1511 1.1555 1.1778 1.2173 1.2207
2537.086 1.2092 1.1366 1.0621 1.0473 1.0066 0.97358 1.017 1.0369 1.0071 0.9972
2556.380 1.0367 1.0724 1.0763 1.1329 1.1832 1.1983 1.2258 1.2919 1.363 1.4065
2575.673 1.4069 1.4129 1.4835 1.5738 1.6446 1.6983 1.7292 1.7243 1.7317 1.8172
2594.966 1.8739 1.8515 1.913 1.983 1.983 2.053 2.103 2.023 2.013 2.063
2614.260 2.063 2.073 2.053 2.043 2.063 2.083 2.103 2.093 2.103 2.113
2633.553 2.113 2.133 2.133 2.163 2.163 2.203 2.293 2.383 2.493 2.593
2652.847 2.763 2.953 3.133 3.343 3.553 3.743 3.893 4.053 4.203 4.243
2672.140 4.163 4.073 3.993 3.803 3.533 3.313 3.113 2.893 2.743 2.563
2691.434 2.383 2.313 2.293 2.273 2.203 2.163 2.133 2.083 2.083 2.113
2710.727 2.063 2.003 2.003 2.013 1.993 1.913 1.7922 1.7372 1.7678 1.7555
2730.020 1.6484 1.6018 1.6151 1.5922 1.5425 1.5163 1.5307 1.5541 1.5573 1.5545
2749.314 1.5205 1.5305 1.6512 1.7889 1.883 1.973 2.023 2.043 2.153 2.183
2768.607 2.193 2.273 2.313 2.413 2.583 2.773 2.963 3.103 3.243 3.403
2787.901 3.623 3.953 4.223 4.453 4.723 4.983 5.203 5.383 5.443 5.413
2807.194 5.413 5.423 5.493 5.663 5.763 5.893 6.153 6.463 6.763 7.023
2826.488 7.283 7.643 8.073 8.373 8.713 9.393 10.283 11.463 13.063 15.373
2845.781 18.833 23.653 30.043 38.393 48.983 61.583 75.663 89.863 102.053 110.303
2865.074 113.503 110.993 103.003 91.293 77.853 64.513 53.193 44.793 39.033 35.373
2884.368 33.423 32.483 32.203 32.483 33.183 34.413 36.323 38.923 42.223 46.223
2903.661 50.913 56.103 61.553 67.303 72.993 78.723 85.323 93.713 104.283 117.073
2922.955 132.573 151.423 173.463 198.143 224.673 251.393 277.583 302.663 322.563 331.143
2942.248 325.843 307.973 279.133 241.763 199.773 156.843 118.003 87.073 64.163 47.623
2961.542 35.803 27.653 21.993 18.103 15.513 13.753 12.533 11.613 10.883 10.233
2980.835 9.613 9.083 8.643 8.133 7.543 7.123 6.783 6.603 6.483 6.313
3000.128 6.243 6.283 6.433 6.533 6.733 7.063 7.343 7.783 8.433 9.303
3019.422 10.573 12.353 14.423 16.903 19.953 23.133 26.253 28.813 30.463 31.073
3038.715 30.273 28.363 25.833 22.913 20.003 17.313 15.393 14.453 14.083 14.343
3058.009 15.413 17.133 19.453 22.483 25.983 29.763 32.953 34.933 35.693 35.233
3077.302 33.613 30.983 27.683 24.473 21.903 20.133 18.973 18.013 17.213 16.323
3096.596 15.233 14.063 12.803 11.533 10.283 9.263 8.493 7.723 7.003 6.243
3115.889 5.603 5.033 4.333 3.733 3.243 2.863 2.543 2.263 2.203 2.163
3135.182 1.983 1.7848 1.696 1.6618 1.695 1.656 1.7192 1.8069 1.6675 1.5455
3154.476 1.6547 1.8327 1.7303 1.7068 1.7607 1.7085 1.6601 1.5962 1.5899 1.5253
3173.769 1.399 1.2879 1.2196 1.0783 0.906 0.90565 0.97744 0.8269 0.718 0.769
3193.063 0.773 0.7908 0.724 0.712 0.69 0.69 0.733 0.707 0.761 0.9134
3212.356 0.891693 0.8103 0.77 0.75 0.8635 0.90972 0.88116 0.87574 0.8314 0.752
3231.650 0.7986 0.8244 0.8257 0.8131 0.721 0.72 0.707 0.591 0.548 0.672
3250.943 0.629 0.554 0.707 0.755 0.607 0.527 0.474 0.543 0.624 0.515
3270.236 0.454 0.366 0.357 0.449 0.378 0.436 0.399 0.278 0.362 0.409
3289.530 0.569 0.579 0.41 0.433 0.481 0.405 0.395 0.396 0.295 0.272
3308.823 0.402 0.446 0.291 0.2 0.241 0.259 0.243 0.172 0.214 0.291
3328.117 0.365 0.354 0.35 0.411 0.37 0.328 0.275 0.279 0.299 0.229
3347.410 0.266 0.314 0.348 0.539 0.398 0.288 0.416 0.472 0.419 0.39
3366.704 0.368 0.245 0.271 0.29 0.351 0.407 0.298 0.403 0.386 0.305
3385.997 0.445 0.397 0.216 0.102 0.266 0.396 0.222 0.171 0.227 0.194
3405.290 0.273 0.316 0.195 0.177 0.194 0.209 0.306 0.343 0.295 0.273
3424.584 0.269 0.448 0.551 0.594 0.634 0.566 0.564 0.569 0.65 0.705
3443.877 0.668 0.656 0.677 0.669 0.534 0.368 0.262 0.31 0.265 0.231
3463.171 0.436 0.545 0.41 0.314 0.298 0.164 0.224 0.257 0.229 0.296
3482.464 0.297 0.205 0.212 0.256 0.259 0.287 0.217 0.073 0.16 0.301
3501.758 0.201 0.181 0.184 0.082 0.101 0.159 0.163 0.168 0.093 0
3521.051 0.023 0.15 0.173 0.17 0.241 0.238 0.287 0.335 0.246 0.275
3540.344 0.239 0.216 0.249 0.103 0.064 0.239 0.309 0.178 0.106 0.056
3559.638 0.09 0.205 0.176 0.276 0.321 0.145 0.185 0.2 0.15 0.204
3578.931 0.3 0.235 0.108 0.225 0.279 0.134 0.148 0.287 0.346 0.404
3598.225 0.319 0.249 0.312 0.29 0.247 0.141 0.06 0.129 0.156 0.15
3617.518 0.208 0.39 0.448 0.341 0.359 0.391 0.39 0.459 0.438 0.426
3636.812 0.514 0.476 0.394 0.584 0.704 0.625 0.654 0.645 0.595 0.58
3656.105 0.686 0.702 0.636 0.666 0.629 0.512 0.421 0.426 0.434 0.336
3675.398 0.328 0.451 0.494 0.446 0.434 0.456 0.437 0.443 0.43 0.477
3694.692 0.567 0.636 0.676 0.694 0.661 0.624 0.72 0.736 0.679 0.715
3713.985 0.8059 0.824 0.803 0.767 0.683 0.669 0.707 0.742 0.748 0.633
3733.279 0.556 0.486 0.422 0.492 0.533 0.506 0.395 0.459 0.561 0.517
3752.572 0.553 0.554 0.665 0.668 0.498 0.501 0.557 0.528 0.602 0.636
3771.866 0.537 0.45 0.413 0.506 0.598 0.6 0.572 0.572 0.665 0.712
3791.159 0.651 0.57 0.584 0.611 0.485 0.451 0.505 0.475 0.463 0.582
3810.452 0.608 0.523 0.519 0.463 0.539 0.582 0.5 0.549 0.606 0.645
3829.746 0.713 0.723 0.609 0.621 0.644 0.578 0.54 0.563 0.532 0.524
3849.039 0.611 0.601 0.522 0.489 0.488 0.519 0.505 0.495 0.546 0.578
3868.333 0.507 0.391 0.496 0.621 0.593 0.527 0.576 0.673 0.607 0.56
3887.626 0.589 0.534 0.575 0.665 0.681 0.716 0.769 0.672 0.653 0.658
3906.920 0.598 0.63 0.619 0.671 0.717 0.715 0.697 0.656 0.66 0.592
3926.213 0.569 0.621 0.617 0.647 0.651 0.601 0.541 0.545 0.58 0.632
3945.506 0.685 0.672 0.671 0.692 0.698 0.652 0.709 0.8119 0.7992 0.687
3964.800 0.651 0.747 0.8057 0.890623 0.88252 0.8272 0.765 0.74 0.7888 0.8585
3984.093 0.8549 0.772 0.887834 1.0149 0.9468 0.91882 0.96105 0.9481 0.90193
##END=
