##TITLE=Cyclohexylphenylacetic acid
##JCAMP-DX=4.24
##DATA TYPE=INFRARED SPECTRUM
##ORIGIN=NIST Mass Spectrometry Data Center
##OWNER=NIST Standard Reference Data Program
Collection (C) 2018 copyright by the U.S. Secretary of Commerce
on behalf of the United States of America. All rights reserved.
##CAS REGISTRY NO=3894-09-5
##MOLFORM=C 14 H 18 O 2
##$NIST SOURCE=MSDC-IR
##SPECTROMETER/DATA SYSTEM=HP-GC/MS/IRD
##STATE=gas
##XUNITS=1/CM
##YUNITS=ABSORBANCE
##XFACTOR=1.0
##YFACTOR=0.000003700
##DELTAX=4.0
##FIRSTX=550.0
##LASTX=3846.0
##FIRSTY=0.002131
##MAXX=3846
##MINX=550
##MAXY=0.037
##MINY=0
##NPOINTS=825
##XYDATA=(X++(Y..Y))
550.0 576 620 391 411 435 492 560 708 934 1241
590.0 1638 2139 2609 2892 2936 2744 2484 2174 1788 1467
630.0 1305 1272 1243 1192 1145 1093 1027 907 764 667
670.0 601 574 593 671 886 1407 2116 2559 2456 1863
710.0 1200 784 622 612 669 693 659 606 564 597
750.0 683 709 635 474 349 275 219 190 175 154
790.0 140 149 146 136 110 90 84 76 68 65
830.0 51 49 62 66 84 102 117 142 160 176
870.0 183 177 166 156 162 181 192 204 220 217
910.0 196 195 178 157 148 140 143 129 119 110
950.0 98 90 111 154 188 216 221 209 194 181
990.0 172 176 197 233 253 262 283 324 395 467
1030.0 541 568 543 505 496 551 626 740 874 1008
1070.0 1142 1263 1442 1734 2161 2814 3732 4769 5595 5874
1110.0 5520 4756 3929 3244 2809 2676 2780 2919 2877 2633
1150.0 2223 1805 1466 1190 983 844 766 730 714 724
1190.0 720 653 561 513 510 523 551 563 527 471
1230.0 422 398 403 438 473 497 535 579 620 654
1270.0 684 695 681 662 639 625 626 635 644 638
1310.0 617 592 575 570 582 610 645 680 722 769
1350.0 818 850 873 879 870 835 759 677 585 489
1390.0 412 360 327 302 281 261 233 206 194 194
1430.0 202 242 353 583 905 1231 1351 1156 851 590
1470.0 429 346 314 332 418 574 725 750 619 398
1510.0 217 134 96 79 82 92 93 85 84 86
1550.0 82 67 65 85 101 111 126 161 211 269
1590.0 324 379 417 392 312 227 165 123 99 83
1630.0 79 81 83 83 86 85 90 102 108 118
1670.0 123 126 127 128 137 160 178 202 245 311
1710.0 406 519 653 797 921 995 1048 1139 1339 1716
1750.0 2388 3559 5306 7349 8840 8535 6588 4397 2760 1896
1790.0 1514 1330 1218 1121 1013 881 725 585 471 373
1830.0 303 257 226 200 185 181 176 176 175 171
1870.0 172 164 149 140 138 133 118 105 96 84
1910.0 78 79 77 86 98 109 132 149 159 161
1950.0 149 138 127 108 90 75 64 63 67 61
1990.0 54 58 59 57 60 60 62 62 53 48
2030.0 53 53 47 47 55 61 61 64 54 48
2070.0 52 56 56 60 65 62 52 49 55 55
2110.0 55 53 48 51 55 53 51 55 53 51
2150.0 53 54 63 71 74 76 76 75 85 91
2190.0 85 85 90 92 92 88 86 87 88 87
2230.0 86 86 85 80 77 80 79 77 72 69
2270.0 69 69 70 69 73 76 79 82 81 84
2310.0 90 92 92 88 84 84 79 86 83 80
2350.0 95 97 91 83 81 81 86 84 83 83
2390.0 79 77 68 66 71 71 72 66 64 67
2430.0 65 67 70 66 60 61 63 64 60 57
2470.0 59 61 64 65 67 65 68 77 75 58
2510.0 53 54 54 62 63 63 73 72 51 46
2550.0 52 51 51 57 62 67 65 63 63 76
2590.0 82 81 86 81 67 64 73 78 76 80
2630.0 84 83 90 97 105 113 120 128 130 137
2670.0 142 136 122 104 91 85 87 90 94 88
2710.0 71 67 69 70 64 60 62 57 54 48
2750.0 53 70 73 75 84 86 99 115 122 139
2790.0 157 169 186 206 221 226 227 238 263 291
2830.0 324 371 449 596 887 1361 2056 2858 3387 3322
2870.0 2702 1930 1383 1088 967 963 1051 1225 1487 1799
2910.0 2145 2574 3257 4409 6072 8002 9560 10000 9193 7494
2950.0 5362 3443 2134 1364 923 662 505 402 346 324
2990.0 298 279 262 252 266 282 306 380 513 693
3030.0 882 1002 982 846 681 570 545 611 778 1001
3070.0 1157 1145 988 786 671 622 554 452 362 290
3110.0 244 213 170 142 115 90 82 82 70 64
3150.0 61 55 59 50 57 70 48 31 36 41
3190.0 28 22 14 16 29 18 11 20 18 25
3230.0 32 33 32 37 33 29 26 17 15 15
3270.0 9 5 16 18 26 23 19 17 18 10
3310.0 0 5 13 2 0 13 11 20 38 38
3350.0 36 32 16 6 19 24 22 34 46 50
3390.0 38 17 15 26 21 26 34 37 38 25
3430.0 20 33 43 37 34 43 48 34 34 37
3470.0 40 49 55 55 57 54 59 79 98 114
3510.0 118 134 143 142 158 170 172 166 172 230
3550.0 354 649 1311 2367 3274 3474 2829 1716 835 405
3590.0 235 160 132 131 121 109 104 105 96 74
3630.0 59 63 86 90 74 55 78 82 80 84
3670.0 62 64 75 77 66 47 53 57 64 76
3710.0 72 82 89 78 76 83 76 72 67 40
3750.0 54 66 61 62 67 79 70 61 57 67
3790.0 83 88 75 72 72 75 69 62 62 63
3830.0 70 77 74 76 86
##END=
