##TITLE=2-Fluorophenyl isothiocyanate
##JCAMP-DX=4.24
##DATA TYPE=INFRARED SPECTRUM
##ORIGIN=EPA-IR VAPOR PHASE LIBRARY
##OWNER=SRD/NIST
Collection (C) 2018 copyright by the U.S. Secretary of Commerce
on behalf of the United States of America. All rights reserved.
##CAS REGISTRY NO=38985-64-7
##MOLFORM=C 7 H 4 F N S
##$NIST SOURCE=MSDC-IR
##STATE=gas
##XUNITS=1/CM
##YUNITS=ABSORBANCE
##XFACTOR=1.
##YFACTOR=0.001
##DELTAX=1.92898
##FIRSTX=549.8
##LASTX=4000.7
##FIRSTY=21.216
##MAXX=4000.7
##MINX=549.759
##MAXY=0.626536
##MINY=0
##NPOINTS=1790
##XYDATA=(X++(Y..Y))
549.759 21.216 22.836 24.006 24.936 25.436 25.056 24.126 22.596 20.476 17.676
569.049 14.836 13.186 12.496 11.846 10.996 10.786 10.796 10.736 11.036 11.236
588.339 11.526 11.706 11.536 11.486 11.236 10.736 10.126 9.576 8.996 8.326
607.628 7.866 7.356 6.896 6.366 5.996 5.786 5.576 5.476 5.566 5.816
626.918 5.946 6.166 6.496 6.576 6.486 6.456 6.266 6.036 6.016 5.756
646.208 5.506 5.296 4.896 4.796 4.926 5.076 5.266 5.316 5.336 5.776
665.498 6.356 7.026 8.086 9.486 11.076 12.876 14.546 16.116 17.586 18.336
684.787 18.306 17.286 15.436 13.216 10.576 8.176 6.376 5.286 4.696 4.186
704.077 3.846 3.746 3.686 3.556 3.356 3.246 3.496 3.906 4.576 5.516
723.367 6.856 8.856 11.496 15.056 19.936 25.756 32.536 40.246 48.386 56.126
742.657 62.916 69.326 77.126 88.856 102.936 103.646 84.966 69.426 63.246 57.496
761.947 50.366 42.096 33.756 25.866 19.216 13.996 10.096 7.486 5.956 5.106
781.236 4.536 4.396 4.896 5.546 6.556 7.906 9.366 11.146 13.166 15.446
800.526 18.126 20.826 22.656 23.226 22.606 21.496 21.036 21.316 20.696 18.576
819.816 15.776 12.816 10.526 9.016 7.686 6.516 5.796 5.126 4.416 4.116
839.106 3.796 3.326 2.886 2.396 2.066 1.866 1.596 1.406 1.1983 1.0693
858.395 1.1662 1.1069 0.8959 0.8633 0.8206 0.9523 1.195 1.2863 1.2759 1.2819
877.685 1.576 1.856 1.996 2.456 3.006 3.596 4.186 4.606 4.946 5.266
896.975 5.476 5.626 5.856 5.766 5.656 5.806 5.986 6.176 6.306 6.566
916.265 7.046 7.626 8.366 9.186 10.066 11.196 12.616 14.666 17.476 20.366
935.555 22.666 25.666 30.206 35.126 39.546 42.826 44.946 45.776 45.456 43.846
954.844 40.376 35.436 29.906 24.506 19.626 15.676 12.496 10.276 8.606 7.196
974.134 6.326 5.786 5.396 4.976 4.616 4.406 4.436 4.386 4.166 4.046
993.424 3.926 3.746 3.626 3.376 3.066 3.006 2.936 2.696 2.786 2.986
1012.714 3.166 3.416 3.646 4.106 4.626 4.926 4.996 5.116 5.066 5.136
1032.003 4.936 4.376 3.586 2.886 2.496 1.936 1.636 1.526 1.2527 0.99
1051.293 0.8582 1.0047 1.1577 1.0522 0.7143 0.3844 0.3465 0.6096 0.8592 1.0248
1070.583 1.2371 1.1423 1.2593 1.746 2.016 2.326 2.686 3.256 4.616 5.656
1089.873 6.886 8.666 10.646 13.026 15.506 17.546 17.706 16.636 16.116 16.666
1109.163 17.456 17.316 15.086 11.686 9.306 7.906 6.436 5.266 4.336 3.536
1128.452 2.796 2.096 1.576 1.3842 1.3533 1.3795 1.3726 1.516 1.876 1.896
1147.742 2.276 2.316 2.046 2.136 2.016 1.706 1.696 1.636 1.2852 1.1542
1167.032 1.2738 1.2362 1.0116 1.0111 1.1375 1.2332 1.359 1.496 1.686 1.966
1186.322 2.336 2.606 2.976 3.666 4.616 5.826 7.596 9.456 11.466 14.136
1205.611 17.146 20.626 24.566 28.506 30.926 31.766 32.106 32.606 33.626 33.996
1224.901 32.466 29.516 25.886 21.866 18.456 15.696 13.376 11.576 10.136 9.676
1244.191 9.876 10.356 11.266 12.586 14.696 17.546 21.086 25.156 29.246 32.856
1263.481 35.136 35.726 35.426 35.456 36.146 35.936 33.186 29.126 25.456 22.836
1282.771 21.076 19.476 18.056 16.786 15.296 13.696 12.116 10.476 8.896 7.546
1302.060 6.646 5.996 5.416 4.966 4.516 4.146 3.776 3.416 3.116 2.826
1321.350 2.656 2.466 2.306 2.176 2.076 1.986 1.876 1.746 1.706 1.696
1340.640 1.616 1.546 1.506 1.496 1.456 1.436 1.426 1.3777 1.3363 1.3166
1359.930 1.333 1.3248 1.2588 1.2345 1.3215 1.4064 1.411 1.398 1.416 1.456
1379.219 1.576 1.756 1.916 2.096 2.376 2.696 3.006 3.176 3.226 3.316
1398.509 3.396 3.436 3.416 3.326 3.196 3.046 2.966 2.946 2.956 2.946
1417.799 2.876 2.846 2.836 2.796 2.776 2.746 2.786 2.976 3.226 3.726
1437.089 4.456 5.296 6.466 7.856 9.476 11.436 13.586 15.706 17.486 18.476
1456.378 18.576 18.166 17.956 18.166 18.126 17.356 16.156 15.166 14.916 15.616
1475.668 17.316 20.176 24.296 29.706 36.606 44.956 54.536 64.786 74.516 82.566
1494.958 87.986 90.356 89.986 87.436 83.036 76.696 68.166 58.236 48.556 40.326
1514.248 33.906 29.056 25.296 22.306 19.796 17.576 15.446 13.316 11.456 10.116
1533.538 9.286 8.676 8.116 7.626 7.266 6.996 6.736 6.576 6.436 6.286
1552.827 6.266 6.276 6.336 6.496 6.806 7.226 7.696 8.326 9.116 9.966
1572.117 11.066 12.526 14.046 15.546 17.096 18.456 19.536 20.436 21.166 22.046
1591.407 23.096 24.096 24.866 25.496 26.086 26.876 27.706 28.096 27.596 26.276
1610.697 24.616 22.556 20.016 16.826 13.256 10.016 7.536 5.906 5.006 4.506
1629.986 4.096 3.786 3.556 3.376 3.296 3.286 3.236 3.066 2.926 2.916
1649.276 2.826 2.646 2.576 2.526 2.546 2.606 2.566 2.536 2.616 2.736
1668.566 2.906 3.156 3.426 3.676 3.876 4.016 4.036 4.036 4.016 3.946
1687.856 3.796 3.546 3.336 3.166 3.016 3.016 2.966 2.906 2.866 2.786
1707.146 2.826 2.686 2.486 2.476 2.366 2.246 2.266 2.236 2.116 2.036
1726.435 2.056 2.026 1.966 1.946 2.066 2.216 2.206 2.276 2.396 2.516
1745.725 2.606 2.616 2.766 2.936 3.146 3.356 3.506 3.666 3.786 3.966
1765.015 4.216 4.446 4.666 4.926 5.216 5.496 5.626 5.676 5.696 5.656
1784.305 5.586 5.476 5.346 5.106 4.676 4.366 4.176 3.936 3.716 3.636
1803.594 3.716 3.756 3.786 3.906 4.046 4.166 4.296 4.456 4.546 4.606
1822.884 4.606 4.606 4.696 4.706 4.706 4.806 4.956 5.176 5.446 5.706
1842.174 5.936 6.226 6.536 6.846 7.216 7.606 7.996 8.466 8.956 9.456
1861.464 9.896 10.206 10.466 10.736 10.976 11.136 11.296 11.486 11.766 12.186
1880.754 12.816 13.536 14.366 15.276 16.296 17.306 18.226 19.126 19.896 20.516
1900.043 20.966 21.186 21.306 21.386 21.386 21.406 21.476 21.656 22.116 22.906
1919.333 23.906 25.136 26.676 28.436 30.376 32.536 34.756 37.006 39.346 41.626
1938.623 43.856 46.216 48.646 51.106 53.746 56.446 59.286 62.416 65.766 69.356
1957.913 73.196 77.206 81.396 85.936 90.786 96.026 101.776 107.896 114.376 121.396
1977.202 128.946 136.796 144.976 153.406 162.066 171.086 180.286 189.626 199.106 208.816
1996.492 218.776 228.936 239.556 250.676 262.466 275.156 289.256 305.086 322.696 342.466
2015.782 364.586 389.226 416.236 445.206 475.836 507.576 539.476 569.076 593.286 610.976
2035.072 622.106 626.536 624.446 617.246 605.016 587.326 564.756 537.916 507.906 475.266
2054.362 440.696 405.346 370.346 336.826 305.516 276.896 251.806 230.926 214.246 201.716
2073.651 193.146 187.996 185.856 186.356 189.226 194.406 201.706 210.736 221.336 233.216
2092.941 245.826 258.756 271.396 282.916 292.616 300.136 304.766 306.046 303.556 296.886
2112.231 286.466 272.836 256.796 238.966 220.056 200.896 182.236 164.606 148.216 133.346
2131.521 120.246 108.906 99.246 91.346 84.876 79.476 75.056 71.526 68.746 66.626
2150.810 64.976 63.736 62.976 62.576 62.516 62.616 62.696 62.656 62.336 61.756
2170.100 60.776 59.226 57.186 54.806 52.056 49.036 45.876 42.696 39.756 36.996
2189.390 34.316 31.896 29.766 27.826 26.106 24.576 23.266 22.216 21.286 20.556
2208.680 20.026 19.566 19.216 18.906 18.766 18.656 18.516 18.416 18.256 18.016
2227.970 17.696 17.306 16.906 16.446 15.756 14.936 14.096 13.186 12.176 11.166
2247.259 10.206 9.346 8.546 7.826 7.216 6.626 6.096 5.676 5.286 4.976
2266.549 4.816 4.656 4.466 4.286 4.186 4.126 4.006 3.996 3.986 3.886
2285.839 3.866 3.916 3.906 3.846 3.836 3.786 3.726 3.706 3.706 3.636
2305.129 3.546 3.566 3.516 3.396 3.356 3.276 3.106 2.986 2.926 2.766
2324.418 2.586 2.496 2.386 2.246 2.136 2.056 1.986 2.026 2.016 2.036
2343.708 2.056 2.026 2.046 2.106 2.216 2.306 2.506 2.696 2.846 2.996
2362.998 3.146 3.386 3.636 3.896 4.116 4.376 4.546 4.686 4.886 5.026
2382.288 5.156 5.226 5.306 5.326 5.266 5.206 5.126 5.036 4.846 4.666
2401.578 4.586 4.456 4.236 4.056 3.976 3.906 3.856 3.796 3.736 3.726
2420.867 3.786 3.866 3.956 4.086 4.196 4.326 4.446 4.506 4.476 4.426
2440.157 4.396 4.306 4.236 4.116 3.936 3.826 3.776 3.606 3.386 3.296
2459.447 3.296 3.306 3.306 3.236 3.296 3.426 3.456 3.536 3.706 3.806
2478.737 4.036 4.296 4.446 4.756 4.996 5.126 5.396 5.626 5.726 5.816
2498.026 5.866 5.876 5.856 5.776 5.646 5.446 5.216 5.076 4.966 4.836
2517.316 4.726 4.626 4.626 4.676 4.646 4.626 4.646 4.666 4.716 4.826
2536.606 4.916 5.026 5.186 5.266 5.346 5.596 5.876 6.156 6.466 6.816
2555.896 7.166 7.476 7.696 7.826 8.026 8.086 8.066 8.006 7.856 7.686
2575.186 7.526 7.386 7.186 6.976 6.746 6.616 6.646 6.716 6.596 6.456
2594.475 6.456 6.376 6.256 6.136 5.896 5.626 5.376 5.046 4.816 4.566
2613.765 4.236 3.956 3.666 3.416 3.286 3.086 2.886 2.766 2.616 2.566
2633.055 2.496 2.376 2.286 2.206 2.226 2.316 2.336 2.216 2.206 2.306
2652.345 2.356 2.396 2.396 2.406 2.496 2.566 2.686 2.726 2.756 2.836
2671.634 2.866 2.936 2.946 2.996 3.076 3.046 3.066 3.146 3.236 3.276
2690.924 3.256 3.356 3.476 3.576 3.766 3.976 4.136 4.316 4.606 4.876
2710.214 5.186 5.576 5.856 6.186 6.546 6.816 7.046 7.166 7.266 7.386
2729.504 7.346 7.176 7.026 6.726 6.376 6.086 5.816 5.406 4.886 4.446
2748.794 4.176 3.926 3.626 3.356 3.076 2.906 2.856 2.756 2.716 2.626
2768.083 2.566 2.566 2.496 2.406 2.336 2.446 2.436 2.426 2.456 2.416
2787.373 2.396 2.306 2.336 2.316 2.226 2.176 2.086 1.986 1.946 1.856
2806.663 1.756 1.666 1.596 1.526 1.526 1.506 1.3915 1.3935 1.436 1.446
2825.953 1.546 1.526 1.476 1.576 1.646 1.796 1.886 1.856 1.816 1.856
2845.242 1.926 2.006 1.996 1.976 1.946 1.916 1.876 1.866 1.876 1.776
2864.532 1.676 1.656 1.676 1.476 1.3868 1.476 1.536 1.426 1.2298 1.1918
2883.822 1.2525 1.2529 1.2567 1.2028 1.1989 1.2816 1.3458 1.446 1.4141 1.466
2903.112 1.546 1.476 1.436 1.476 1.476 1.416 1.546 1.586 1.656 1.696
2922.401 1.626 1.666 1.686 1.596 1.536 1.676 1.686 1.586 1.686 1.676
2941.691 1.686 1.726 1.766 1.876 1.886 1.876 1.926 2.006 2.116 2.166
2960.981 2.216 2.246 2.246 2.376 2.546 2.406 2.466 2.736 2.826 2.896
2980.271 2.936 2.976 2.996 3.046 3.046 3.056 2.896 2.726 2.666 2.516
2999.561 2.356 2.266 2.196 2.066 1.996 1.866 1.866 1.906 1.896 1.916
3018.850 1.956 2.026 2.096 2.326 2.496 2.586 2.746 3.066 3.316 3.556
3038.140 3.946 4.466 4.906 5.246 5.646 5.916 6.036 6.076 6.286 6.576
3057.430 6.766 6.926 7.236 7.656 8.196 8.666 9.176 9.746 10.226 10.666
3076.720 11.006 11.246 11.396 11.376 11.156 10.866 10.586 10.246 9.616 8.876
3096.009 8.176 7.426 6.606 5.736 4.916 4.186 3.646 3.126 2.686 2.476
3115.299 2.126 1.726 1.596 1.416 1.2371 1.056 0.8893 0.9103 0.9052 0.818
3134.589 0.658 0.604 0.517 0.43202 0.50337 0.5465 0.5549 0.5362 0.50973 0.4684
3153.879 0.47104 0.418611 0.41464 0.3251 0.296 0.3266 0.219 0.136 0.155 0.3592
3173.169 0.3258 0.178 0.199 0.211 0.264 0.3952 0.289 0.118 0.103 0.128
3192.458 0.225 0.18 0.144 0.186 0.209 0.316 0.313 0.24 0.3171 0.31
3211.748 0.28 0.305 0.188 0.147 0.287 0.276 0.22 0.252 0.314 0.3573
3231.038 0.276 0.282 0.243 0.156 0.139 0.119 0.21 0.231 0.119 0.148
3250.328 0.296 0.3631 0.3366 0.3358 0.213 0.181 0.149 0.086 0.193 0.217
3269.617 0.238 0.29 0.213 0.011 0 0.048 0.176 0.271 0.109 0.038
3288.907 0.092 0.115 0.107 0.196 0.216 0.27 0.313 0.147 0.132 0.3345
3308.197 0.266 0.193 0.252 0.161 0.314 0.3361 0.252 0.157 0.204 0.257
3327.487 0.203 0.3207 0.293 0.244 0.296 0.3194 0.268 0.243 0.217 0.272
3346.777 0.307 0.3533 0.246 0.128 0.275 0.228 0.217 0.311 0.294 0.164
3366.066 0.172 0.294 0.246 0.192 0.255 0.3389 0.296 0.287 0.31 0.3163
3385.356 0.227 0.245 0.297 0.3323 0.3708 0.312 0.3358 0.315 0.3424 0.3969
3404.646 0.4041 0.276 0.234 0.3809 0.3559 0.314 0.175 0.022 0.289 0.45742
3423.936 0.289 0.182 0.301 0.3637 0.306 0.4019 0.425986 0.3956 0.29 0.147
3443.225 0.304 0.5378 0.369 0.204 0.3354 0.3451 0.18 0.171 0.255 0.3284
3462.515 0.415355 0.3548 0.276 0.216 0.193 0.211 0.19 0.17 0.214 0.40614
3481.805 0.40993 0.29 0.294 0.3399 0.3822 0.3627 0.43726 0.47422 0.41341 0.312
3501.095 0.275 0.3387 0.232 0.201 0.3824 0.47044 0.44047 0.348 0.329 0.45884
3520.385 0.3592 0.271 0.44976 0.3885 0.40792 0.50183 0.302 0.227 0.265 0.308
3539.674 0.45642 0.48777 0.5538 0.6001 0.5268 0.49398 0.43393 0.48011 0.5757 0.5708
3558.964 0.47975 0.45359 0.5816 0.49892 0.3962 0.45494 0.423355 0.45177 0.5566 0.46447
3578.254 0.3826 0.46369 0.5071 0.46622 0.46341 0.51286 0.46176 0.3991 0.44938 0.459
3597.544 0.49252 0.7154 0.745 0.50904 0.3902 0.3285 0.3565 0.45186 0.50677 0.50927
3616.833 0.423261 0.3838 0.43756 0.4651 0.4118 0.4953 0.51188 0.51269 0.552 0.6479
3636.123 0.6843 0.5445 0.49779 0.5589 0.6127 0.5852 0.5303 0.44412 0.48385 0.4493
3655.413 0.43163 0.597 0.6111 0.6011 0.50545 0.47806 0.5411 0.5831 0.7325 0.6546
3674.703 0.608 0.5187 0.44013 0.5324 0.51452 0.6753 0.603 0.3678 0.43196 0.5207
3693.993 0.4906 0.47146 0.46951 0.44437 0.5371 0.51076 0.399 0.4 0.3448 0.43187
3713.282 0.417419 0.311 0.5369 0.5652 0.50862 0.6385 0.8238 0.8047 0.6396 0.6274
3732.572 0.5932 0.5492 0.5451 0.561 0.6345 0.7109 0.6254 0.52 0.51428 0.3851
3751.862 0.297 0.48561 0.5986 0.6661 0.7651 0.5315 0.45376 0.5745 0.5996 0.5531
3771.152 0.5981 0.6659 0.5519 0.43855 0.3648 0.4055 0.5317 0.6822 0.699 0.7227
3790.441 0.841 0.8046 0.7186 0.6728 0.6363 0.7019 0.8306 0.8552 0.8662 0.8589
3809.731 0.7057 0.6972 0.7233 0.6114 0.5481 0.7211 0.7114 0.5812 0.6567 0.6502
3829.021 0.8141 0.909 0.7367 0.7013 0.8109 0.961 0.8964 0.7577 0.8279 0.7856
3848.311 0.7523 0.8639 0.7697 0.7236 0.7863 0.8529 0.9561 0.9224 0.922 1.0585
3867.601 1.2272 1.2322 1.0494 1.0393 1.15 1.0754 1.0265 1.1338 1.2075 1.2922
3886.890 1.2397 1.1581 1.193 1.2053 1.3158 1.3125 1.3031 1.2818 1.1912 1.2563
3906.180 1.308 1.3528 1.2046 1.0017 1.0142 1.1246 1.2233 1.2454 1.2918 1.2659
3925.470 1.2367 1.3598 1.3946 1.426 1.446 1.4149 1.516 1.636 1.696 1.596
3944.760 1.536 1.596 1.586 1.496 1.456 1.596 1.716 1.726 1.746 1.726
3964.049 1.666 1.796 1.906 1.986 1.986 1.976 2.116 2.166 2.066 1.986
3983.339 2.036 2.096 2.066 2.036 2.136 2.256 2.276 2.296 2.426 2.366
##END=
