##TITLE=2-Acetamido-5-bromobenzoic acid
##JCAMP-DX=4.24
##DATA TYPE=INFRARED SPECTRUM
##ORIGIN=EPA-IR VAPOR PHASE LIBRARY
##OWNER=SRD/NIST
Collection (C) 2018 copyright by the U.S. Secretary of Commerce
on behalf of the United States of America. All rights reserved.
##CAS REGISTRY NO=38985-79-4
##MOLFORM=C 9 H 8 Br N O 3
##$NIST SOURCE=MSDC-IR
##STATE=gas
##XUNITS=1/CM
##YUNITS=ABSORBANCE
##XFACTOR=1.
##YFACTOR=0.001
##DELTAX=1.92898
##FIRSTX=549.8
##LASTX=4000.7
##FIRSTY=2.75
##MAXX=4000.7
##MINX=549.759
##MAXY=0.26949
##MINY=0
##NPOINTS=1790
##XYDATA=(X++(Y..Y))
549.759 2.75 3.09 3.54 2.9 2.26 2.29 1.9805 2.38 2.1196 1.7441
569.049 2.1708 2.81 2.87 2.7 2.79 2.63 2.93 4.05 5.08 6.99
588.339 11.64 17.08 20.27 20.58 20.44 18.94 14.01 8.25 5.16 4.16
607.628 2.65 2.3 2.159 1.6817 1.6034 1.23737 1.5068 1.9228 1.9662 1.5301
626.918 1.3444 1.3895 1.8655 2.46 2.48 2.37 2.51 2.81 3.41 3.24
646.208 2.2193 2.1365 3.1 2.99 1.8884 1.7598 2.1625 2.73 2.62 2.48
665.498 3.12 3.69 4.26 4.74 5.78 6.82 7.12 6.96 7.19 6.78
684.787 5.66 4.99 4.69 5.36 5.68 5.71 5.6 5.47 5.34 4.49
704.077 3.58 3.16 2.86 2.77 2.36 1.6083 1.6544 1.6024 1.5996 2.0037
723.367 1.8273 1.4556 1.8699 1.9802 1.5601 2.1479 2.69 2.47 1.8712 1.9719
742.657 2.49 2.87 3.87 5.06 5.82 5.63 6.19 7.34 8.17 8.96
761.947 9.42 9.76 10.97 12.72 15.01 17.93 21.29 26.24 31.23 34.47
781.236 35.88 35.7 34.07 29.3 22.85 17.86 14.33 11.55 9.57 8.47
800.526 7.13 5.62 5 4.97 4.61 3.86 4.08 4.6 5.1 7.08
819.816 9.76 11.31 13.57 17.22 20.75 25.1 29.7 33.52 37.4 37.81
839.106 32.87 28.83 26.07 21.88 17.65 14.74 12.43 10.25 8.78 8.1
858.395 8.42 9.68 11.44 13 14.1 14.41 13.93 12.63 9.91 6.96
877.685 5.26 3.63 2.7 2.82 2.89 3.02 3.46 3.7 3.93 5.33
896.975 6.32 6.62 6.9 6.85 6.82 6.42 5.71 5.48 5.21 4.66
916.265 4.5 4.84 4.74 4.51 4.98 5.2 5.22 5.76 5.87 6.46
935.555 8.29 9.76 11.32 14.06 17.35 20.62 24.12 28.87 33.77 37.12
954.844 39.39 40.57 40.51 38.78 35.51 31.63 27.21 22.3 17.28 13.81
974.134 11.49 9.67 7.95 6.73 6.59 6.49 6.88 7.61 8.17 8.91
993.424 10.06 11.57 12.97 13.9 14.13 13.87 13.43 13.24 12.78 12.05
1012.714 12.34 12.84 12.86 13.3 14.58 15.46 16.87 19.49 21.44 23.42
1032.003 27.34 31.83 35.7 39.37 42.56 43.31 42.05 39.81 36.29 30.95
1051.293 25.21 20.93 17.78 15.06 13.13 13.22 14.13 15.64 16.44 16.03
1070.583 16.05 14.15 11.28 9.79 7.11 4.97 5.4 5.64 5.49 5.45
1089.873 5.65 6.65 5.98 4.31 5.65 8.49 8.85 6.93 7.08 8.05
1109.163 8.82 8.74 8.61 11.88 14.78 15.84 17.08 19.08 19.2 17.47
1128.452 15.52 12.74 11.26 10.69 9.46 7.64 5.29 4.65 4.75 4.51
1147.742 5.74 6.62 6.51 6.23 7.57 8.08 7.67 9.29 11.35 12.97
1167.032 15.75 20 24.44 30.59 38.19 46.04 54.13 61.93 67.89 71.46
1186.322 69.79 63.69 56.29 48.42 39.46 31.24 26.2 21.51 19.24 18.01
1205.611 15.03 12.84 13.78 15.25 14.6 13.77 13.78 14.15 14.7 14.02
1224.901 12.65 12.15 11.82 11.59 12.74 14.96 17.08 21.26 26.05 31.36
1244.191 37.3 45.01 53.58 60.39 68.24 76.06 81.22 83.11 82.02 78.31
1263.481 73.48 67.29 59.84 53.93 49.29 44.83 40.71 36.23 31.32 26.81
1282.771 23.45 23.23 25.49 28.85 33.09 36.75 39.6 40.54 39.11 36.51
1302.060 33.32 30.27 28.08 26.86 25.98 24.81 22.91 20.01 16.57 13.37
1321.350 10.82 8.98 7.63 6.52 5.83 5.35 4.68 4.13 3.77 3.56
1340.640 3.45 3.49 3.54 3.51 3.51 3.66 3.77 3.8 4.08 4.17
1359.930 4.44 4.88 5.24 5.87 6.74 7.68 8.87 10.54 12.55 14.57
1379.219 15.9 16.33 16.35 15.81 14.5 12.52 10.39 8.92 7.98 7.2
1398.509 6.81 6.72 6.93 7.35 7.96 8.65 9.08 9.74 10.42 11
1417.799 11.48 11.74 11.76 11.52 11.31 11.21 11.52 12.09 12.84 13.39
1437.089 13.89 14.48 15.17 15.81 16.24 16.9 18.21 20.4 23.89 29.04
1456.378 36.69 47 59.71 75.26 91.47 104.61 109.51 106.27 97.21 82.75
1475.668 64 45.76 33.7 27.44 24.22 21.49 18.85 16.4 13.81 10.99
1494.958 8.77 7.41 6.63 6.18 5.91 5.55 5.22 5.03 4.78 4.48
1514.248 4.46 4.48 4.37 4.53 4.66 4.93 5.13 4.98 5.03 5.32
1533.538 5.42 5.44 5.55 5.51 5.45 5.46 5.6 5.76 5.94 6.26
1552.827 6.31 6.36 6.7 6.9 7.19 7.5 7.66 7.68 7.66 7.87
1572.117 7.94 8.02 8.49 8.86 9.32 9.55 10.39 12.06 13.81 15.92
1591.407 17.98 20.01 22 23.14 23.72 23.57 22.62 21.46 19.77 17.99
1610.697 17.04 16.49 16.23 16.68 17.24 18.05 20.03 22.69 26.26 31.43
1629.986 37.7 45.51 55.53 68.65 84.6 102.74 123.28 144.23 163.71 180.17
1649.276 191.12 193.9 187.35 174.26 155.72 132.34 107.61 82.53 60.88 44.62
1668.566 33.21 25.24 19.58 15.78 12.86 10.85 9.44 8.23 7.44 6.88
1687.856 6.38 5.98 5.98 5.98 5.97 5.9 5.8 5.7 5.53 5.45
1707.146 5.46 5.59 5.47 5.44 5.57 5.57 5.67 5.54 5.58 5.98
1726.435 6.59 7.26 7.71 8.31 9.28 10.03 10.71 11.32 11.66 11.91
1745.725 12.08 12.35 12.92 13.6 14.31 15.2 16.51 18.33 21.07 24.58
1765.015 28.98 34.8 42.15 50.89 62 74.95 90.31 108.68 130.37 155.36
1784.305 183.38 212.64 238.66 257.36 266.68 269.49 266.64 253.91 229.02 195.75
1803.594 160.28 127.19 98.79 75.97 58.43 45.51 36.29 29.5 24.4 20.52
1822.884 17.61 15.06 12.8 10.98 9.69 8.69 7.83 7.3 6.85 6.55
1842.174 6.28 6.08 6.11 5.99 5.93 5.92 5.56 5.21 5.1 5.04
1861.464 4.87 4.58 4.22 3.91 3.86 3.83 3.73 3.61 3.41 3.27
1880.754 3.16 3.12 3.24 3.33 3.56 3.6 3.74 3.97 4 4.08
1900.043 4.06 4.06 4.29 4.47 4.59 4.64 4.54 4.55 4.66 4.82
1919.333 4.92 4.77 4.61 4.57 4.44 4.22 4.1 3.89 3.61 3.5
1938.623 3.35 3.24 3.22 3.39 3.61 3.68 3.68 3.64 3.53 3.43
1957.913 3.65 3.81 3.67 3.42 3.27 3.21 3.14 3.02 2.99 3.14
1977.202 2.95 2.63 2.64 2.71 2.75 2.72 2.69 2.84 2.86 2.89
1996.492 2.91 2.84 2.73 2.91 2.98 2.57 2.46 2.59 2.32 2.1402
2015.782 2.0686 1.9284 1.8797 1.9039 1.9392 1.8423 1.8461 2.012 2.0213 2.1139
2035.072 2.53 2.62 2.45 2.5 2.57 2.4 2.42 2.56 2.44 2.39
2054.362 2.34 2.1679 1.9368 1.8405 1.8816 1.8968 1.9959 2.003 1.7192 1.6244
2073.651 1.6516 1.6897 1.6544 1.5423 1.6906 1.7585 1.9127 1.8839 1.6465 1.5714
2092.941 1.4475 1.3557 1.28425 1.22961 1.096 1.1824 1.4839 1.6081 1.5675 1.27347
2112.231 1.27943 1.5969 1.7687 1.8079 1.9368 1.8739 1.6587 1.5077 1.4789 1.7498
2131.521 1.9461 2.0049 2.1692 2.24 2.0254 1.9774 2.0273 1.9588 1.9332 1.8723
2150.810 1.9658 1.9651 1.9689 1.9256 1.6986 1.7986 1.8146 1.7104 1.6566 1.8399
2170.100 1.8968 1.6631 1.7135 1.9037 1.8431 1.8146 1.8458 1.7994 1.8988 1.9581
2189.390 2.0107 2.1223 2.1569 2.1967 2.1449 2.1586 2.137 2.1063 2.1121 2.1325
2208.680 2.34 2.53 2.43 2.36 2.62 2.63 2.57 2.59 2.53 2.62
2227.970 2.7 2.53 2.1914 2.0043 2.0763 2.0972 2.0469 1.9993 2.0013 1.8362
2247.259 1.5386 1.532 1.789 1.6836 1.4135 1.3845 1.5775 1.5332 1.4192 1.5497
2266.549 1.721 1.7735 1.8501 1.7795 1.6555 1.8359 1.7614 1.6339 1.4809 1.3435
2285.839 1.3399 1.6036 1.5495 1.3595 1.4418 1.5363 1.6634 1.4839 1.4012 1.5599
2305.129 1.5486 1.6439 1.6129 1.556 1.4711 1.3923 1.5719 1.6427 1.5653 1.589
2324.418 1.6833 1.5483 1.4886 1.7299 1.7205 1.5381 1.6019 1.6643 1.5249 1.6522
2343.708 1.8438 1.6486 1.5886 1.7814 1.9201 1.7544 1.7331 2.0392 2.1509 1.9377
2362.998 2.0242 2.141 2.1415 2.0689 1.8541 2.0147 1.9995 2.036 2.0865 1.6775
2382.288 1.7132 1.7708 1.6456 1.7424 1.752 1.6226 1.499 1.31113 1.27276 1.3808
2401.578 1.3511 1.5609 1.7003 1.4973 1.4981 1.5795 1.3491 1.26271 1.5675 1.6685
2420.867 1.6144 1.5996 1.7304 1.6577 1.4576 1.5136 1.4609 1.4573 1.7772 1.6521
2440.157 1.3545 1.4475 1.3493 1.5625 1.9037 1.964 1.7221 1.635 1.5713 1.6182
2459.447 1.6231 1.5345 1.6474 1.5944 1.4783 1.3543 1.4563 1.7497 1.9435 1.8455
2478.737 1.6761 1.5983 1.7952 1.7821 1.5605 1.6626 1.7603 1.7638 1.7314 1.5753
2498.026 1.3412 1.5673 1.8467 1.5692 1.8256 2.1648 1.9611 1.7033 1.6865 1.6545
2517.316 1.7023 1.8098 1.6946 1.6173 1.5301 1.483 1.4907 1.8582 2.1555 1.7047
2536.606 1.3669 1.6891 1.8673 1.7997 1.5183 1.526 1.9234 1.9355 1.8898 2.0017
2555.896 1.7949 1.6364 1.9766 2.0052 1.9326 1.9134 1.6983 1.6696 1.6193 1.7554
2575.186 2.0004 1.7925 1.7897 1.9138 2.0262 2.202 2.0692 1.9589 2.1887 2.56
2594.475 2.88 2.86 2.62 2.65 2.67 2.88 2.96 2.76 2.62 2.35
2613.765 2.34 2.31 2.23 2.1616 1.887 1.7467 1.8133 1.8132 1.4637 1.196
2633.055 1.419 1.4855 1.7376 1.6093 1.01 1.117 1.4745 1.4149 1.049 1.006
2652.345 1.21187 1.5003 1.681 1.6688 1.6114 1.5693 1.4153 1.23144 1.091 1.053
2671.634 1.042 0.873 1.194 1.3613 1.151 1.2078 1.26315 1.3295 1.2777 1.3471
2690.924 1.27534 1.2069 1.3885 1.6045 1.6917 1.4929 1.31783 0.946 1.1339 1.6222
2710.214 1.6094 1.4712 1.4305 1.5495 1.51 1.3454 1.1946 1.1349 1.1585 1.081
2729.504 1.4097 1.7709 1.7677 1.8744 1.6234 1.5375 1.7145 1.244 1.24032 1.4655
2748.794 1.3421 1.28611 1.522 1.7273 1.6289 1.7252 1.4365 1.066 1.3313 1.6555
2768.083 1.6783 1.5726 1.31706 1.3317 1.3282 1.22338 1.4113 1.6058 1.7487 1.8415
2787.373 1.546 1.3272 1.1572 1.003 1.24416 1.3221 1.27187 1.3779 1.659 1.9221
2806.663 1.8589 1.9793 1.7567 1.3485 1.24359 0.88 0.604 0.947 1.508 1.6478
2825.953 1.5154 1.6401 1.5941 1.5059 1.6841 1.7723 1.9291 2.0259 2.1379 1.9387
2845.242 1.6093 1.7949 2.1071 2.219 2.176 2.0019 1.8753 2.1985 2.59 2.34
2864.532 2.0926 2.0855 2.2066 2.27 2.1181 1.6484 1.3635 1.5982 1.7957 1.6227
2883.822 1.25225 1.3803 1.6652 1.5186 1.4108 1.4813 1.5428 1.5737 1.5148 1.6631
2903.112 1.6297 1.3352 0.845 0.712 1.045 1.4332 1.7171 1.6109 1.4336 1.4492
2922.401 1.7944 1.8597 2.0567 2.1796 1.9962 2.1191 2.6 3.24 4.21 4.92
2941.691 5.17 5.92 6.04 5.48 5.11 4.29 3.59 3.21 2.38 2.051
2960.981 2.39 2.62 2.73 2.6 2.86 2.94 2.92 3.04 3.14 3.45
2980.271 3.33 3.54 3.75 3.58 3.4 3.15 2.59 2.2011 2.45 2.32
2999.561 1.824 1.6198 1.7858 1.9022 1.8474 2.152 2.2161 1.8884 1.911 1.5262
3018.850 1.4474 2.1733 2.41 2.0785 1.8719 2.0367 2.0118 1.6587 1.6279 1.7669
3038.140 1.5318 1.5132 1.9029 1.6071 0.946 1.25755 1.6379 1.4461 1.3805 1.5486
3057.430 1.4765 1.6083 2.0993 2.1509 2.66 2.99 2.66 3.22 4.3 4.57
3076.720 4.63 5.4 5.54 5.08 4.8 4.16 3.62 3.76 3.58 3.09
3096.009 2.79 2.44 2.0271 1.8628 1.9884 2.1944 1.8505 1.6552 1.24354 0.947
3115.299 1.4381 1.5176 1.8312 1.7956 1.6836 1.28718 1.069 1.648 1.5496 1.002
3134.589 1.104 1.2281 1.21952 1.4093 1.4113 1.1605 1.024 1.074 0.818 0.704
3153.879 0.8 0.842 0.764 0.667 0.823 0.836 1.089 1.014 0.711 0.976
3173.169 1.038 0.856 0.622 0.715 1.086 0.88 0.405 0.948 0.934 0.589
3192.458 0.856 1.1755 1.22444 0.781 0.814 1.4343 1.6571 1.059 0.542 0.847
3211.748 1.015 1.105 1.31591 0.87 0.954 0.657 0.412 1.006 0.804 0.881
3231.038 1.457 1.3574 1.284 1.2941 1.4002 1.4753 1.1504 1.11 1.027 0.628
3250.328 0.734 1.1339 1.25091 1.362 1.21309 1.29645 1.4026 1.359 1.6263 2.1068
3269.617 1.9368 1.5356 1.9374 2.39 2.4 2.58 2.6 2.0617 1.7943 2.0046
3288.907 2.0587 1.8972 1.5674 1.6206 2.0185 1.9978 1.6688 1.5209 1.1385 1.001
3308.197 1.5344 1.507 1.4456 0.968 0.591 0.969 0.747 0.534 0.748 0.928
3327.487 1.2006 1.23196 0.933 0.698 0.569 0.07 0.01 0.249 0.651 1.1734
3346.777 1.3635 1.29607 0.879 0.537 0.717 1.095 1.03 1.1502 1.4255 1.009
3366.066 0.579 0.76 0.972 1.22786 1.1768 0.924 0.889 1.013 0.784 0.797
3385.356 1.1447 1.4196 1.3429 0.602 0.459 0.476 0.19 0.22 0.343 0.381
3404.646 0.21 0 0.09 0.33 0.666 0.537 0.708 0.738 0.475 0.592
3423.936 0.226 0.06 0.277 0.502 0.928 0.931 0.907 0.916 0.622 0.672
3443.225 0.48 0.04 0.236 0.509 0.491 0.453 0.391 0.442 0.487 0.708
3462.515 0.87 0.92 1.1897 1.109 1.031 1.5015 1.1825 0.47 0.294 0.5
3481.805 0.592 0.492 0.527 0.948 1.046 0.92 0.957 1.2554 1.4641 1.1283
3501.095 1.1225 1.1474 1.25923 1.1453 0.934 0.602 0.688 1.1669 1.067 0.374
3520.385 0.19 0.557 0.801 1.1307 1.152 1.5069 1.7574 1.4555 1.4345 1.496
3539.674 1.6539 1.9079 1.8787 1.9836 2.38 2.77 2.72 2.72 3.2 3.33
3558.964 3.25 3.25 3.62 3.98 3.68 3.46 3.72 3.28 2.98 3.29
3578.254 3.07 2.65 1.9467 1.7369 1.5774 1.30839 1.7626 1.7801 1.4991 1.6949
3597.544 1.4768 1.047 1.4756 1.7699 1.2197 1.003 0.803 0.619 0.851 1.004
3616.833 1.014 1.072 1.4603 1.5405 1.339 0.921 1.1385 1.31676 0.628 0.631
3636.123 1.1223 0.877 0.857 1.1678 1.102 1.3288 1.1223 0.632 0.295 0.554
3655.413 0.844 0.775 0.794 0.951 0.951 0.927 1.11 0.745 0.886 0.981
3674.703 0.707 0.995 0.871 0.399 0.471 0.865 0.858 0.912 1.24722 1.2068
3693.993 1.007 0.976 1.009 1.029 1.076 1.3483 1.2698 1.022 1.22429 1.046
3713.282 0.642 0.755 1.25643 1.28374 0.717 0.508 0.472 0.547 0.921 0.607
3732.572 0.644 1.5302 1.08 1.042 1.28104 0.511 0.521 0.688 0.73 0.987
3751.862 1.052 1.27232 1.24705 0.654 0.491 0.794 0.87 1.075 1.26481 0.999
3771.152 0.771 1.1257 1.113 0.607 0.737 0.766 0.558 1.073 1.324 1.26945
3790.441 1.3522 1.118 1.2068 1.066 0.507 0.16 0.358 0.442 0.232 0.758
3809.731 0.951 0.955 1.016 0.733 1.25404 1.7856 1.5576 1.2298 0.872 0.637
3829.021 0.439 0.464 0.571 0.87 1.043 0.371 0.54 1.107 0.898 0.912
3848.311 0.913 0.231 0.338 0.732 0.69 0.644 0.78 1.106 0.993 1.30165
3867.601 1.26423 0.645 0.424 0.313 0.593 0.975 0.691 0.46 0.844 1.2032
3886.890 1.24478 1.28278 1.076 0.641 0.325 0.684 1.22638 1.1855 0.84 0.353
3906.180 0.389 0.495 0.585 0.679 0.44 0.763 0.867 0.622 0.899 0.956
3925.470 0.765 0.638 0.957 1.048 0.726 0.872 0.823 0.874 1.29796 1.23831
3944.760 1.038 1.3513 1.4001 0.936 1.1404 0.918 0.649 0.926 0.761 0.759
3964.049 0.767 0.645 0.908 0.627 0.238 0.878 1.30035 1.188 1.057 1.23716
3983.339 1.9085 1.7387 0.972 0.709 0.886 1.1739 1.378 0.998 0.967 1.5529
##END=
