##TITLE=Chromone-3-carboxylic acid
##JCAMP-DX=4.24
##DATA TYPE=INFRARED SPECTRUM
##ORIGIN=EPA-IR VAPOR PHASE LIBRARY
##OWNER=SRD/NIST
Collection (C) 2018 copyright by the U.S. Secretary of Commerce
on behalf of the United States of America. All rights reserved.
##CAS REGISTRY NO=39079-62-4
##MOLFORM=C 10 H 6 O 4
##$NIST SOURCE=MSDC-IR
##STATE=gas
##XUNITS=1/CM
##YUNITS=ABSORBANCE
##XFACTOR=1.
##YFACTOR=0.001
##DELTAX=1.92898
##FIRSTX=549.8
##LASTX=4000.7
##FIRSTY=1.7147
##MAXX=4000.7
##MINX=549.759
##MAXY=0.03627
##MINY=0
##NPOINTS=1790
##XYDATA=(X++(Y..Y))
549.759 1.7147 0.969 0.618 0.685 1.016 2.0434 1.8287 0.592 0.813 1.086
569.049 0.484 0.895 2.0543 1.625 1.262 1.47331 1.359 1.053 0.29 0.495
588.339 0.535 0 0.642 1.024 0.928 0.958 0.796 0.973 1.187 0.941
607.628 0.964 1.198 1.5818 1.50097 1.252 1.137 0.623 1.074 1.629 1.51997
626.918 1.4482 1.7665 2.85 3.09 3 3.34 3.68 4.04 4.04 4.22
646.208 4.1 2.85 1.9404 2.0025 1.6394 1.8904 2.379 1.8792 1.47217 1.193
665.498 0.762 1.281 1.345 0.961 1.444 1.6536 1.51122 1.7024 1.6567 1.7211
684.787 1.8464 1.659 1.52477 1.5772 1.7402 1.49881 1.7401 1.8676 1.8027 2.0715
704.077 1.9341 1.6973 1.56566 1.8408 2.2681 2.2051 2.58 2.83 2.275 2.1597
723.367 2.248 2.3269 2.2787 2.3248 2.4513 2.3532 2.69 2.73 2.54 3.03
742.657 3.61 3.89 4.46 5.37 6.37 6.95 7.32 8.32 9.51 10.83
761.947 12.15 11.94 10.2 8.7 7.79 7.2 6.3 5.37 4.26 3.48
781.236 3.53 3.87 3.57 2.92 3.21 2.49 1.7715 2.49 2.4229 2.57
800.526 3.21 2.99 2.68 2.92 3.3 3.47 3.4 3.44 3.76 3.6
819.816 3.53 4.05 3.97 3.22 2.4209 2.0714 2.1924 2.2129 2.1132 1.9143
839.106 2.063 2.2086 2.51 2.3331 2.1453 2.75 2.69 2.51 2.59 2.3912
858.395 2.2544 2.3455 2.54 2.3974 1.9972 1.7484 1.6088 1.295 0.987 0.96
877.685 1.218 1.368 1.109 1.13 1.231 1.275 1.188 1.078 1.13 0.951
896.975 0.988 1.037 1.4328 1.831 1.4611 1.356 1.295 1.41 2.0784 2.1233
916.265 2.0759 2.51 2.57 2.51 2.79 2.88 2.1073 1.244 1.257 1.4368
935.555 1.227 1.366 1.6152 1.6901 1.7126 1.7307 2.0914 2.0237 1.9583 2.2137
954.844 2.2627 2.0236 2.108 2.2511 1.8633 1.5936 1.297 0.925 1.236 1.6302
974.134 1.6246 1.254 0.86 0.946 0.779 0.695 0.658 1.056 1.55244 1.302
993.424 1.287 1.045 0.842 1.3 1.4231 1.55295 1.8708 1.6291 1.307 1.164
1012.714 1.057 1.081 1.48019 1.6396 1.5865 1.7011 1.7512 1.6897 1.49382 1.56743
1032.003 1.53317 0.93 0.36 0.557 1.168 1.344 1.6579 1.6602 1.4005 1.4492
1051.293 0.864 1.044 1.7517 1.56952 1.4574 1.9323 1.9 1.082 1.134 1.7094
1070.583 1.6214 1.315 1.5356 1.6521 0.848 0.34 1.4878 3.08 3.08 3.05
1089.873 3.08 3.33 3.67 4.6 5.49 5.08 5.6 6.28 6.66 8.16
1109.163 8.87 8.6 9.6 10.11 9.48 10.04 9.95 7.44 5.37 3.66
1128.452 2.2567 2.3167 1.6697 0.841 1.057 1.9247 2.61 2.83 2.74 1.307
1147.742 0.484 1.9965 2.1963 1.56807 2.0157 1.6624 1.046 1.243 1.7606 2.1162
1167.032 2.64 2.59 2.71 3.22 2.49 2.3396 2.81 2.5 2.2276 2.0643
1186.322 2.1704 2.109 2.184 2.83 2.57 2.2211 2.95 3.76 3.88 3.12
1205.611 2.2787 1.9278 1.8051 2.51 4.03 4.22 3.86 3.69 3.33 3.16
1224.901 2.4156 2.2029 3.24 3.35 3.07 3.12 4.01 4.48 4.91 4.95
1244.191 4.75 4.99 4.6 4.53 4.24 3.37 2.88 2.72 2.5 2.2993
1263.481 2.2288 2.3623 2.4588 2.49 2.4445 2.4658 2.53 2.68 2.72 2.99
1282.771 3.16 3.26 3.51 3.35 3.37 4.3 5.53 6.89 8.62 10.15
1302.060 11.22 11.84 12.28 12.35 12.07 11.29 10.15 9.22 8.64 8.54
1321.350 8.63 8.83 9.1 9.42 9.73 9.91 9.84 9.44 9.21 9
1340.640 8.43 7.5 6.74 6.22 5.67 5.31 5.21 5.28 5.33 5.23
1359.930 5.09 5.22 5.47 5.67 5.91 6.28 6.87 7.56 8.3 9.07
1379.219 10.11 11.41 12.71 14.15 15.89 17.55 19.15 20.74 21.77 22.55
1398.509 23.04 23.14 22.95 22.24 21.35 20.63 20.01 19.27 18.67 18.1
1417.799 17.34 16.46 15.38 14.46 13.67 12.88 12.22 11.43 10.44 9.3
1437.089 8.45 7.89 7.31 7.12 6.91 6.64 6.9 7.27 7.77 8.8
1456.378 10.28 12.12 14.14 15.74 16.66 17 16.78 15.99 14.62 12.75
1475.668 10.46 8.39 7.2 6.57 6.19 5.8 5.16 4.69 4.42 4.14
1494.958 3.93 3.79 3.59 3.3 3.03 2.93 2.87 2.79 2.78 2.81
1514.248 2.82 2.96 3.11 3.08 2.98 2.84 2.77 2.77 2.7 2.8
1533.538 3.01 2.99 3.04 3.16 3.23 3.45 3.69 3.74 3.93 4.3
1552.827 4.74 5.04 5.24 5.69 6.11 6.77 7.8 8.54 8.84 9.11
1572.117 9.09 8.76 8.54 8.2 7.32 6.19 5.23 4.73 4.53 4.35
1591.407 4.35 4.28 4.3 4.39 4.5 5.11 5.97 6.89 8.07 9.61
1610.697 11.27 12.77 13.9 14.5 14.6 14.3 13.48 12.26 11.35 10.72
1629.986 10.39 10.67 11.46 12.82 14.67 17.1 20.63 24.92 28.88 32.13
1649.276 34.33 35.26 34.88 33.51 31 26.92 21.94 17.03 12.95 9.9
1668.566 7.95 6.55 5.56 4.96 4.52 4.2 4.06 3.95 3.85 3.78
1687.856 3.76 3.77 3.63 3.53 3.35 3.27 3.27 2.99 2.76 2.71
1707.146 2.56 2.51 2.59 2.53 2.3295 2.167 2.3101 2.4405 2.4336 2.56
1726.435 2.76 2.99 2.93 2.87 3.02 3.18 3.39 3.57 3.74 3.89
1745.725 3.92 4.09 4.44 4.69 5.09 5.7 6.42 7.39 8.64 10.28
1765.015 12.54 15.36 18.97 23.21 27.85 32.11 35 36.27 36.07 34.96
1784.305 32.83 29.17 24.09 18.5 13.74 10.29 7.92 6.28 5.15 4.27
1803.594 3.68 3.38 3.16 2.8 2.63 2.58 2.5 2.6 2.57 2.53
1822.884 2.5 2.49 2.56 2.56 2.57 2.4396 2.4641 2.57 2.3764 2.2244
1842.174 2.2192 2.3166 2.375 2.3119 2.1823 2.084 2.1422 2.0253 1.9553 2.1435
1861.464 2.0668 2.0112 1.9812 1.9257 1.9213 1.8649 1.8412 1.8381 1.9865 2.0188
1880.754 1.9155 1.8176 1.7659 1.7691 1.7431 1.7053 1.8053 1.8643 1.818 1.934
1900.043 1.8388 1.8109 1.7944 1.7884 1.9016 1.9607 1.9155 1.7739 1.7631 1.7063
1919.333 1.6913 1.6972 1.6911 1.6227 1.57478 1.7115 1.8229 1.8953 1.9697 1.9581
1938.623 1.9494 2.0307 2.0263 1.9821 1.9985 1.8716 1.7516 1.6714 1.7578 1.833
1957.913 1.6935 1.698 1.7839 1.6328 1.54029 1.6861 1.6632 1.6305 1.7246 1.7264
1977.202 1.7519 1.6805 1.55255 1.57611 1.57991 1.53116 1.6124 1.6639 1.6542 1.6758
1996.492 1.6697 1.6718 1.7152 1.6981 1.6072 1.51763 1.363 1.48186 1.5948 1.6391
2015.782 1.6044 1.7074 1.7851 1.6269 1.6122 1.6009 1.6821 1.6947 1.6177 1.6883
2035.072 1.6957 1.6114 1.6543 1.5944 1.413 1.3887 1.49955 1.5938 1.5851 1.605
2054.362 1.6874 1.6609 1.5828 1.5921 1.6171 1.5874 1.57204 1.6233 1.6381 1.56673
2073.651 1.6394 1.48698 1.4268 1.5803 1.6197 1.5973 1.5862 1.6764 1.7783 1.741
2092.941 1.52851 1.48864 1.54348 1.6085 1.648 1.5451 1.48151 1.6053 1.6077 1.5918
2112.231 1.6172 1.6011 1.5985 1.56324 1.51274 1.48371 1.54465 1.6263 1.7762 1.9524
2131.521 1.8616 1.6904 1.7124 1.611 1.5344 1.6615 1.6989 1.51624 1.50129 1.6023
2150.810 1.51926 1.48258 1.6432 1.7433 1.6111 1.54218 1.5916 1.7416 1.7875 1.56752
2170.100 1.51445 1.5943 1.6563 1.689 1.7451 1.8691 1.7909 1.5602 1.3832 1.48679
2189.390 1.5971 1.54461 1.6604 1.5863 1.4898 1.7305 1.6666 1.6169 1.593 1.6371
2208.680 1.708 1.6771 1.6233 1.4608 1.4629 1.48854 1.66 1.7755 1.7769 1.7923
2227.970 1.7513 1.8415 1.9033 1.7454 1.4522 1.3997 1.7325 1.9084 1.8377 1.6552
2247.259 1.54146 1.6268 1.6964 1.6956 1.7061 1.6958 1.6366 1.55738 1.6223 1.57223
2266.549 1.54666 1.6063 1.5869 1.7707 1.8179 1.7547 1.7649 1.7185 1.8682 2.0342
2285.839 2.013 1.894 1.6946 1.7034 1.8646 1.9319 1.919 1.8965 1.8755 1.7629
2305.129 1.7667 1.8793 1.9852 2.0814 2.0227 2.007 2.1337 2.1884 2.0531 1.9152
2324.418 2.0557 2.1598 2.185 2.2024 2.2284 2.142 1.8905 1.8704 2.1369 2.2375
2343.708 2.1996 2.2091 2.1508 2.2037 2.2539 2.3234 2.3299 2.313 2.4646 2.7
2362.998 2.76 2.57 2.6 2.69 2.52 2.3027 2.229 2.2393 2.2763 1.9685
2382.288 1.6685 1.7006 1.6942 1.6722 1.8033 1.8904 1.53126 1.376 1.591 1.7978
2401.578 1.8498 1.8329 1.7909 1.67 1.6794 1.8057 1.7748 1.6465 1.6917 1.8151
2420.867 1.8594 1.8937 1.8007 1.6662 1.6915 1.6236 1.51819 1.54055 1.47674 1.4271
2440.157 1.47891 1.4316 1.51512 1.6964 1.8339 1.8195 1.8358 1.9105 1.7288 1.8336
2459.447 1.9339 1.8863 1.9098 1.6811 1.5879 1.7844 1.7984 1.6025 1.7117 1.7443
2478.737 1.56882 1.6212 1.6886 1.7129 1.911 1.9864 1.7468 1.65 1.7645 1.8821
2498.026 1.8172 1.7122 1.8387 1.8821 1.8445 1.8185 1.7536 1.7406 1.6976 1.6104
2517.316 1.6717 1.7424 1.7605 1.7699 1.8601 1.9274 1.8159 1.8894 1.9431 1.7953
2536.606 1.6682 1.7259 1.8067 1.7547 1.6614 1.6612 1.775 1.7657 1.7507 1.9706
2555.896 2.0595 1.904 1.8341 1.7916 1.6384 1.8291 1.983 1.8371 1.8735 1.9704
2575.186 1.9366 1.7999 1.684 1.7448 1.7424 1.639 1.5846 1.5831 1.6787 1.7717
2594.475 1.8227 1.8971 1.8859 1.8473 1.8887 1.8042 1.7516 1.7995 1.8594 1.8414
2613.765 1.9496 1.8687 1.6528 1.8754 1.9253 1.7887 1.8421 1.7177 1.7055 1.8613
2633.055 1.8934 1.9441 2.1157 2.1546 2.0698 1.9708 1.8532 1.7873 1.795 1.9116
2652.345 1.9123 1.8523 1.9223 2.0607 2.0074 1.8187 1.6439 1.7129 1.8715 1.9007
2671.634 1.8882 1.9534 2.1344 2.1429 2.0796 2.0559 2.0191 2.0328 2.1368 2.1145
2690.924 2.0001 1.9422 2.0354 2.1035 1.8574 1.8494 1.9818 1.7601 1.8245 1.8986
2710.214 2.1685 2.2644 2.1158 2.2249 2.382 2.3293 2.265 2.3092 2.1155 2.0044
2729.504 2.0183 2.1049 2.1532 2.0885 2.0586 2.1364 2.3692 2.5 2.3592 2.48
2748.794 2.4108 2.3679 2.4654 2.3374 2.3793 2.55 2.61 2.66 2.57 2.3519
2768.083 2.3608 2.52 2.3712 2.2678 2.67 2.87 2.75 2.7 2.75 2.64
2787.373 2.4437 2.7 2.99 2.66 2.57 2.4514 2.4636 2.64 2.55 2.4782
2806.663 2.4056 2.51 2.55 2.62 2.65 2.4484 2.297 2.339 2.3381 2.062
2825.953 2.0768 2.342 2.2966 2.276 2.2539 2.2281 2.3299 2.2893 2.228 2.1943
2845.242 2.3413 2.4051 2.309 2.4512 2.2415 2.0726 2.1721 2.1448 2.1348 2.1094
2864.532 2.1227 2.5 2.63 2.3979 2.4192 2.4172 2.1592 2.1559 2.4217 2.4544
2883.822 2.4572 2.4343 2.56 2.53 2.63 2.69 2.49 2.57 2.61 2.48
2903.112 2.4537 2.4139 2.1762 2.1825 2.3718 2.67 2.8 2.62 2.69 2.85
2922.401 2.81 2.82 2.4324 2.2017 2.5 2.77 2.51 2.397 2.61 2.69
2941.691 2.74 2.56 2.55 2.66 2.58 2.4277 2.471 2.57 2.52 2.4292
2960.981 2.55 2.55 2.3382 2.4556 2.78 2.97 2.85 2.54 2.55 2.72
2980.271 2.83 2.76 2.9 2.93 2.57 2.62 2.79 2.75 2.75 2.6
2999.561 2.4058 2.59 2.72 2.98 3.03 2.9 2.95 2.76 2.91 3.06
3018.850 2.97 2.84 2.98 3.23 3.08 3.18 3.16 2.97 3.14 3.36
3038.140 3.44 3.32 3.29 3.73 3.71 3.62 3.97 3.72 3.61 4.12
3057.430 4.15 4.16 4.4 4.65 4.6 4.6 5.01 5.16 5.08 5.3
3076.720 5.54 5.71 5.76 5.54 5.81 6.18 6.16 6.28 6.35 6.05
3096.009 5.99 6.05 6.02 5.77 5.45 5.35 5.35 5.45 5.21 4.96
3115.299 5.23 5.33 5.26 5.26 4.92 4.7 4.92 5.25 5.11 4.74
3134.589 4.62 4.36 4.51 4.71 4.48 4.86 4.87 4.39 4.6 4.79
3153.879 4.64 4.37 4.14 4.17 4.25 4.02 3.57 3.83 4.27 4.4
3173.169 4.5 4.16 3.8 3.78 3.83 3.82 3.67 3.62 3.64 3.55
3192.458 3.48 3.55 3.76 3.55 3.44 3.5 3.29 3.35 3.28 2.94
3211.748 3.04 3.41 3.59 3.47 3.46 3.45 3.04 3.16 3.46 3.33
3231.038 3.41 3.39 3.38 3.47 3.22 3.29 3.77 3.89 3.62 3.29
3250.328 3.11 3.13 3.24 3.28 3.32 3.22 3.11 3.18 2.6 2.3178
3269.617 2.56 2.64 2.61 2.3957 2.61 3.04 3.2 3.07 2.86 2.66
3288.907 2.67 2.79 2.66 2.67 2.85 2.74 2.49 2.52 2.58 2.66
3308.197 2.53 2.1349 2.1048 2.1406 2.08 2.1616 2.1133 1.9961 2.017 1.9871
3327.487 2.0203 2.0986 1.9428 1.8775 2.0593 1.6884 1.6704 1.989 1.8 1.7166
3346.777 1.7726 1.7454 1.6176 1.8287 2.1869 2.1996 1.8599 1.699 2.0445 1.8959
3366.066 1.51521 1.52119 1.6412 1.991 2.1733 1.9244 1.7146 1.7043 1.6759 1.7299
3385.356 1.6614 1.7149 2.27 2.0867 1.48113 1.332 1.7334 2.0633 1.7949 1.57308
3404.646 1.7401 1.9113 1.8686 1.6528 1.56693 1.9277 1.866 1.4608 1.197 1.411
3423.936 2.061 1.9946 1.5828 1.6321 1.759 1.8659 1.8393 1.825 1.8607 1.8747
3443.225 1.9283 1.9198 1.7209 1.4022 1.448 1.6148 1.5845 1.4234 1.266 1.251
3462.515 1.26 1.4608 1.78 1.6649 1.338 1.295 1.328 1.356 1.3905 1.19
3481.805 1.165 1.224 1.295 1.314 1.094 1.148 1.377 1.48352 1.4902 1.139
3501.095 0.909 1.246 1.16 1.018 1.154 1.4218 1.5897 0.92 0.943 1.52699
3520.385 1.12 0.908 1.133 1.374 1.57519 1.48142 1.48311 1.54136 1.377 1.286
3539.674 1.49586 1.49577 1.49845 1.6086 1.423 1.238 1.4846 1.6917 1.6488 1.4759
3558.964 1.4112 1.4695 1.273 1.329 1.4514 1.55486 1.8747 2.029 1.7337 1.6066
3578.254 1.4618 1.363 1.5888 1.332 1.083 1.184 1.165 0.924 0.696 1.052
3597.544 1.091 0.918 0.953 0.655 0.594 1.074 1.279 1.089 1.258 1.4241
3616.833 1.4438 1.269 1.018 1.101 1.065 1.11 0.918 0.861 1.178 1.322
3636.123 1.37 1.142 0.951 0.913 1.141 1.253 1.48112 1.5987 1.329 1.323
3655.413 1.195 0.876 0.96 1.087 1.045 1.232 1.319 1.226 1.244 1.116
3674.703 1.016 1.315 1.4829 1.314 1.192 0.84 0.803 1.189 1.312 1.227
3693.993 1.091 1.124 1.085 1.077 1.132 1.151 0.862 0.965 1.36 1.14
3713.282 1.003 0.847 0.821 1.043 1.162 0.734 0.628 0.95 0.875 0.573
3732.572 0.673 1.064 1.002 1.18 1.5936 1.312 1.004 1.034 1.069 1.287
3751.862 1.258 1.262 1.52319 1.53577 1.207 1.036 1.094 1.21 0.788 0.585
3771.152 1.083 1.17 0.835 0.706 0.738 0.506 0.549 1.177 1.371 1.05
3790.441 0.815 0.597 0.653 0.998 1.299 1.166 1.019 1.332 1.356 1.155
3809.731 1.309 1.31 1.109 1.153 1.261 1.4396 1.4081 1.314 1.327 1.226
3829.021 0.931 0.74 0.891 0.909 0.773 0.738 0.906 1.139 1.186 0.896
3848.311 0.649 0.755 1.016 0.811 0.662 0.653 0.33 0.492 1.183 1.218
3867.601 0.988 1.079 1.082 0.825 0.699 0.796 0.876 0.813 0.587 0.653
3886.890 0.931 0.959 1.082 1.51167 1.4902 1.182 0.865 1.032 1.022 0.873
3906.180 1.2 1.266 1.049 0.735 0.844 1.059 1.111 1.153 0.935 0.802
3925.470 1.1 1.351 1.121 0.779 0.984 1.51331 1.5012 1.368 1.4522 1.269
3944.760 0.968 0.775 0.797 1.021 1.098 0.816 0.854 1.091 1.001 0.837
3964.049 0.681 0.45 0.58 1.149 1.50388 1.5462 1.54405 1.4484 1.164 0.791
3983.339 0.828 1.145 1.293 1.47971 1.198 0.988 1.262 1.203 1.146 1.093
##END=
