##TITLE=Trimethylsilyl methyl sulfide
##JCAMP-DX=4.24
##DATA TYPE=INFRARED SPECTRUM
##ORIGIN=EPA-IR VAPOR PHASE LIBRARY
##OWNER=SRD/NIST
Collection (C) 2018 copyright by the U.S. Secretary of Commerce
on behalf of the United States of America. All rights reserved.
##CAS REGISTRY NO=3908-55-2
##MOLFORM=C 4 H 12 S Si
##$NIST SOURCE=MSDC-IR
##STATE=gas
##XUNITS=1/CM
##YUNITS=ABSORBANCE
##XFACTOR=1.
##YFACTOR=0.001
##DELTAX=1.92898
##FIRSTX=549.8
##LASTX=4000.7
##FIRSTY=1.5907
##MAXX=4000.7
##MINX=549.759
##MAXY=0.067324
##MINY=0
##NPOINTS=1790
##XYDATA=(X++(Y..Y))
549.759 1.5907 1.1575 1.2059 1.3472 0.8633 0.7435 1.2128 1.5194 1.4304 1.0059
569.049 0.9276 1.3212 1.5611 1.3601 1.012 0.9648 1.3222 1.3702 1.4881 1.804
588.339 1.5679 1.5899 1.724 1.934 2.124 1.764 1.724 2.114 2.224 2.474
607.628 3.144 3.794 4.434 5.414 6.334 7.204 8.234 8.994 9.714 10.304
626.918 10.614 10.864 10.784 10.654 10.544 9.964 9.254 8.414 7.304 6.334
646.208 5.434 4.484 3.734 3.414 3.124 2.754 2.614 2.694 2.984 3.154
665.498 3.184 3.444 3.644 3.874 4.284 4.604 5.044 5.634 6.164 6.684
684.787 7.194 7.824 8.464 8.824 9.134 9.474 9.734 9.724 9.664 9.664
704.077 9.494 9.194 8.754 8.144 7.704 7.444 7.034 6.674 6.344 6.154
723.367 6.104 6.074 6.084 5.854 5.834 6.194 6.444 6.764 7.204 7.364
742.657 7.694 8.204 8.684 9.214 9.544 9.794 10.004 10.094 10.264 10.214
761.947 9.864 9.414 9.084 8.854 8.554 8.074 7.414 6.934 6.614 6.334
781.236 6.084 5.664 5.524 5.554 5.544 5.714 5.734 6.054 6.504 6.804
800.526 7.324 7.964 8.464 9.504 10.894 12.014 13.354 14.974 16.724 18.974
819.816 21.534 24.294 27.614 31.214 35.124 39.454 43.924 48.724 53.604 58.074
839.106 62.014 65.244 67.104 67.324 66.184 63.924 60.924 57.374 53.234 48.554
858.395 43.694 39.164 35.194 31.604 28.204 25.434 23.164 21.184 19.394 17.664
877.685 16.334 15.094 14.044 13.104 12.274 11.554 10.924 10.474 9.794 9.214
896.975 8.844 8.284 8.014 7.664 7.164 6.794 6.404 6.124 5.894 5.654
916.265 5.414 5.214 5.004 4.774 4.624 4.324 3.984 3.894 3.794 3.654
935.555 3.534 3.394 3.154 3.004 2.854 2.674 2.544 2.444 2.354 2.324
954.844 2.314 2.274 2.144 1.864 1.904 2.064 2.054 2.004 2.004 1.874
974.134 1.654 1.5243 1.4625 1.3859 1.4309 1.5954 1.5498 1.3311 1.1951 1.3382
993.424 1.3687 1.2557 1.2152 1.2457 1.3 1.3674 1.3039 1.1588 1.2328 1.2302
1012.714 1.0836 1.1296 1.0711 0.9564 1.0101 0.9684 0.9678 0.9612 0.7543 0.5978
1032.003 0.7798 0.9716 0.9264 0.7368 0.8617 1.1708 1.0695 0.9599 0.9542 0.9315
1051.293 1.1317 1.1716 0.7889 0.71718 0.9532 0.8789 0.8499 0.8642 0.7839 0.8101
1070.583 0.8688 1.063 1.1278 0.9711 0.9743 0.8968 0.68789 0.8396 0.928 0.9097
1089.873 0.813 0.8752 1.1618 1.2341 1.1362 1.0696 1.0257 1.204 1.2465 1.0652
1109.163 0.9671 0.6103 0.5615 0.9189 1.1273 0.9093 0.9483 1.1249 1.131 1.1533
1128.452 1.0055 1.0962 1.1505 0.9502 0.8428 0.7402 0.9257 1.1075 1.1525 1.417
1147.742 1.4444 1.4499 1.3699 1.1006 1.2464 1.2468 1.1147 1.2713 1.4653 1.3892
1167.032 1.1081 1.2195 1.624 1.794 1.694 1.5125 1.5855 1.944 1.984 1.714
1186.322 1.804 2.144 2.164 2.104 2.314 2.484 2.484 2.694 2.644 2.554
1205.611 2.664 2.954 3.214 3.204 3.314 3.394 3.634 3.974 4.074 4.244
1224.901 4.524 5.074 5.934 6.584 7.324 8.654 10.494 12.134 13.774 15.604
1244.191 17.184 18.594 20.094 21.624 23.434 25.424 26.264 25.424 23.574 21.754
1263.481 20.194 19.084 17.914 16.104 13.724 11.414 9.684 8.264 7.044 6.154
1282.771 5.414 4.764 4.204 3.774 3.504 3.294 3.174 3.084 3.134 3.294
1302.060 3.454 3.584 3.694 3.894 4.064 4.144 4.254 4.314 4.344 4.334
1321.350 4.374 4.404 4.174 3.914 3.754 3.574 3.384 3.154 2.914 2.704
1340.640 2.494 2.294 2.124 2.024 1.954 1.924 1.914 1.854 1.794 1.824
1359.930 1.824 1.814 1.854 1.824 1.824 1.884 1.954 1.994 2.014 2.064
1379.219 2.134 2.214 2.264 2.344 2.464 2.534 2.624 2.704 2.794 2.884
1398.509 2.934 3.044 3.134 3.184 3.184 3.164 3.144 3.084 3.054 3.014
1417.799 2.934 2.864 2.884 2.894 2.884 2.894 2.914 2.954 3.004 3.004
1437.089 3.004 3.054 3.084 3.074 3.054 3.054 2.994 2.954 2.864 2.714
1456.378 2.604 2.444 2.314 2.234 2.074 1.914 1.844 1.734 1.624 1.5349
1475.668 1.4535 1.4002 1.3738 1.3354 1.2349 1.1708 1.1815 1.2136 1.1942 1.1664
1494.958 1.1594 1.1302 1.1217 1.1402 1.1275 1.0865 1.0529 1.1488 1.1996 1.0897
1514.248 1.0784 1.1023 1.1192 1.1256 1.125 1.1876 1.1663 1.0987 1.093 1.0756
1533.538 1.0232 1.0364 1.0611 1.093 1.0708 1.0578 1.1268 1.0933 1.0543 1.074
1552.827 1.0777 1.0145 0.9975 1.0012 0.9927 0.9504 0.8961 1.0118 1.0327 0.9011
1572.117 0.8426 0.7927 0.8034 0.864 0.8736 0.8434 0.815 0.8564 0.8378 0.7833
1591.407 0.8011 0.8601 0.8402 0.8325 0.8555 0.9008 0.9399 0.8689 0.8358 0.8401
1610.697 0.8142 0.7849 0.7899 0.7701 0.7451 0.7853 0.7444 0.70483 0.7752 0.8471
1629.986 0.794 0.7318 0.764 0.7764 0.8665 0.8965 0.9416 0.9052 0.7709 0.7922
1649.276 0.8034 0.69399 0.66651 0.7719 0.7818 0.7996 0.8121 0.7656 0.7962 0.8053
1668.566 0.7319 0.7357 0.7765 0.759 0.7417 0.7809 0.8623 0.8908 0.7991 0.7632
1687.856 0.7568 0.7732 0.8096 0.8004 0.8018 0.7585 0.72234 0.7444 0.7889 0.7946
1707.146 0.8473 0.8601 0.8271 0.809 0.7655 0.8048 0.8224 0.7838 0.7981 0.8129
1726.435 0.8 0.7748 0.7637 0.8185 0.7814 0.7579 0.7682 0.7419 0.7363 0.7376
1745.725 0.7288 0.71433 0.7471 0.71919 0.68805 0.70329 0.7402 0.785 0.7759 0.8136
1765.015 0.8282 0.7582 0.72377 0.70263 0.70629 0.7272 0.72028 0.67564 0.63675 0.69784
1784.305 0.7596 0.7229 0.65528 0.64233 0.65446 0.68049 0.68728 0.65109 0.65759 0.66901
1803.594 0.68524 0.67183 0.67597 0.66647 0.63677 0.68466 0.69671 0.69985 0.7394 0.72049
1822.884 0.67114 0.66298 0.71287 0.7393 0.71452 0.71245 0.67594 0.64725 0.6596 0.69401
1842.174 0.6638 0.62728 0.72347 0.7576 0.7394 0.7301 0.7347 0.806 0.8491 0.8082
1861.464 0.749 0.7951 0.873 0.8988 0.9185 0.9322 0.9255 0.9506 0.9811 0.9689
1880.754 0.9897 1.0457 1.0146 0.9466 0.9458 0.9221 0.9144 0.8917 0.8347 0.7899
1900.043 0.7679 0.7857 0.7477 0.69502 0.68444 0.7347 0.7707 0.7309 0.7339 0.72066
1919.333 0.69053 0.67118 0.69641 0.7491 0.7244 0.7368 0.8084 0.7823 0.7722 0.7826
1938.623 0.7961 0.8091 0.8156 0.8624 0.847 0.8177 0.8274 0.862 0.8564 0.7994
1957.913 0.7689 0.8245 0.8263 0.7398 0.7568 0.8063 0.7503 0.7306 0.7779 0.7889
1977.202 0.7311 0.69361 0.7413 0.7514 0.7566 0.7271 0.69226 0.7737 0.7464 0.69062
1996.492 0.7274 0.712 0.7409 0.7554 0.70926 0.69872 0.7281 0.7628 0.7482 0.7249
2015.782 0.7678 0.7804 0.7264 0.6704 0.67409 0.70873 0.691 0.65825 0.63863 0.64503
2035.072 0.64089 0.64184 0.66563 0.67235 0.66396 0.67005 0.5803 0.509 0.5829 0.628945
2054.362 0.63778 0.5896 0.6017 0.64038 0.6043 0.6099 0.5793 0.5525 0.5993 0.6071
2073.651 0.5353 0.512 0.5599 0.594 0.63722 0.67291 0.6385 0.5699 0.6004 0.64533
2092.941 0.5935 0.64404 0.70953 0.68771 0.66853 0.64504 0.67767 0.7063 0.70774 0.67963
2112.231 0.66673 0.71535 0.752 0.71314 0.68259 0.69588 0.64468 0.66246 0.69219 0.61887
2131.521 0.628865 0.6319 0.61502 0.5657 0.538 0.5563 0.522 0.5389 0.5464 0.5406
2150.810 0.506 0.492 0.513 0.5249 0.506 0.457 0.425 0.425 0.431 0.442
2170.100 0.474 0.482 0.456 0.487 0.488 0.448 0.461 0.49 0.508 0.466
2189.390 0.392 0.389 0.485 0.499 0.457 0.438 0.468 0.459 0.418 0.488
2208.680 0.51 0.504 0.468 0.426 0.495 0.508 0.462 0.463 0.494 0.505
2227.970 0.474 0.462 0.493 0.5324 0.529 0.5356 0.5381 0.514 0.494 0.514
2247.259 0.5459 0.421 0.387 0.432 0.429 0.483 0.468 0.485 0.524 0.474
2266.549 0.397 0.44 0.472 0.49 0.512 0.45 0.473 0.46 0.446 0.5
2285.839 0.441 0.408 0.462 0.456 0.42 0.422 0.399 0.392 0.45 0.392
2305.129 0.349 0.385 0.38 0.441 0.449 0.357 0.356 0.358 0.329 0.318
2324.418 0.294 0.35 0.396 0.352 0.353 0.337 0.33 0.383 0.376 0.326
2343.708 0.336 0.381 0.355 0.348 0.385 0.376 0.336 0.351 0.32 0.257
2362.998 0.278 0.253 0.273 0.256 0.242 0.272 0.278 0.332 0.426 0.418
2382.288 0.356 0.377 0.368 0.396 0.443 0.38 0.315 0.363 0.41 0.407
2401.578 0.388 0.351 0.363 0.408 0.348 0.335 0.365 0.309 0.321 0.372
2420.867 0.334 0.336 0.378 0.381 0.391 0.347 0.327 0.37 0.338 0.353
2440.157 0.344 0.276 0.346 0.328 0.261 0.285 0.346 0.376 0.362 0.349
2459.447 0.341 0.306 0.248 0.309 0.408 0.407 0.323 0.306 0.391 0.464
2478.737 0.406 0.329 0.293 0.342 0.433 0.394 0.36 0.367 0.378 0.38
2498.026 0.353 0.351 0.331 0.314 0.339 0.31 0.3 0.372 0.442 0.438
2517.316 0.348 0.29 0.371 0.357 0.226 0.226 0.261 0.24 0.277 0.318
2536.606 0.273 0.231 0.232 0.293 0.31 0.284 0.256 0.28 0.3 0.278
2555.896 0.244 0.244 0.264 0.202 0.235 0.26 0.238 0.209 0.205 0.211
2575.186 0.204 0.273 0.345 0.347 0.328 0.282 0.243 0.312 0.356 0.277
2594.475 0.227 0.232 0.223 0.229 0.205 0.197 0.244 0.261 0.297 0.253
2613.765 0.209 0.221 0.255 0.253 0.241 0.274 0.284 0.33 0.329 0.292
2633.055 0.297 0.285 0.307 0.304 0.199 0.242 0.349 0.261 0.201 0.323
2652.345 0.396 0.352 0.234 0.211 0.267 0.288 0.28 0.282 0.25 0.236
2671.634 0.251 0.114 0.075 0.205 0.366 0.368 0.336 0.318 0.245 0.248
2690.924 0.353 0.416 0.455 0.469 0.37 0.327 0.374 0.304 0.233 0.236
2710.214 0.266 0.346 0.369 0.36 0.346 0.329 0.253 0.211 0.3 0.271
2729.504 0.244 0.37 0.316 0.325 0.378 0.34 0.416 0.429 0.398 0.443
2748.794 0.459 0.512 0.498 0.49 0.505 0.452 0.422 0.417 0.511 0.5567
2768.083 0.5463 0.5616 0.5712 0.5274 0.6061 0.7866 0.8159 0.788 0.69854 0.70667
2787.373 0.7661 0.7917 0.9368 1.0545 1.1064 1.0313 1.0417 1.1144 1.1436 1.1849
2806.663 1.2126 1.2138 1.185 1.2764 1.3511 1.3835 1.4166 1.4426 1.5311 1.5533
2825.953 1.6176 1.674 1.714 1.784 1.754 1.824 1.954 2.054 2.174 2.404
2845.242 2.674 2.924 3.104 3.144 3.184 3.304 3.434 3.504 3.524 3.524
2864.532 3.524 3.464 3.384 3.364 3.414 3.484 3.464 3.344 3.334 3.544
2883.822 3.834 4.144 4.394 4.584 4.834 5.084 5.334 5.594 5.814 6.074
2903.112 6.284 6.404 6.504 6.594 6.464 6.404 6.484 6.564 6.784 7.154
2922.401 7.704 8.184 8.664 9.174 9.694 10.064 10.294 10.794 11.674 12.074
2941.691 11.704 11.764 12.404 13.054 13.544 13.884 14.094 14.194 14.404 14.864
2960.981 15.344 15.424 15.234 15.124 14.974 14.764 14.334 13.544 12.394 11.104
2980.271 10.034 9.074 8.274 7.574 6.884 6.304 5.814 5.374 5.064 4.734
2999.561 4.394 4.144 3.924 3.694 3.404 3.184 3.074 2.934 2.724 2.514
3018.850 2.454 2.394 2.164 2.124 2.084 1.994 2.044 2.034 2.044 1.994
3038.140 1.974 1.984 1.874 1.974 1.974 1.814 1.964 2.024 1.934 2.084
3057.430 2.234 2.204 2.074 2.004 2.034 2.024 1.994 2.034 2.084 2.124
3076.720 2.124 2.074 2.034 2.004 2.004 1.994 2.044 1.964 1.824 1.774
3096.009 1.754 1.704 1.624 1.5742 1.5073 1.581 1.5881 1.4865 1.4548 1.4722
3115.299 1.3899 1.3366 1.3373 1.2361 1.1919 1.282 1.2042 1.0699 1.0915 1.0214
3134.589 0.9857 0.9564 0.8717 0.8238 0.9028 0.8903 0.8106 0.8374 0.7175 0.69042
3153.879 0.68531 0.64714 0.66921 0.7585 0.7486 0.577 0.6213 0.632641 0.5264 0.5549
3173.169 0.5917 0.502 0.408 0.5898 0.8286 0.7018 0.482 0.435 0.487 0.521
3192.458 0.494 0.5424 0.64804 0.6491 0.67522 0.7596 0.6132 0.473 0.5276 0.444
3211.748 0.456 0.5271 0.426 0.45 0.534 0.362 0.289 0.385 0.381 0.448
3231.038 0.502 0.52 0.429 0.336 0.319 0.421 0.452 0.35 0.478 0.499
3250.328 0.274 0.29 0.354 0.342 0.44 0.442 0.345 0.35 0.444 0.487
3269.617 0.428 0.337 0.275 0.153 0.037 0.223 0.379 0.33 0.31 0.303
3288.907 0.374 0.455 0.351 0.218 0.279 0.286 0.2 0.161 0.172 0.195
3308.197 0.247 0.284 0.331 0.404 0.43 0.34 0.284 0.283 0.233 0.337
3327.487 0.423 0.237 0.12 0.201 0.367 0.328 0.166 0.164 0.237 0.316
3346.777 0.337 0.302 0.258 0.204 0.206 0.301 0.281 0.227 0.268 0.33
3366.066 0.343 0.424 0.507 0.454 0.34 0.368 0.397 0.309 0.229 0.284
3385.356 0.414 0.5547 0.61909 0.44 0.282 0.239 0.188 0.154 0.242 0.257
3404.646 0.229 0.367 0.41 0.301 0.233 0.21 0.197 0.219 0.164 0.208
3423.936 0.327 0.355 0.433 0.302 0.338 0.387 0.275 0.436 0.5271 0.494
3443.225 0.404 0.44 0.437 0.345 0.358 0.311 0.302 0.286 0.338 0.319
3462.515 0.295 0.423 0.41 0.266 0.31 0.509 0.5518 0.5756 0.494 0.384
3481.805 0.438 0.5623 0.63694 0.5566 0.454 0.4 0.333 0.239 0.323 0.5797
3501.095 0.64182 0.5386 0.419 0.277 0.244 0.388 0.471 0.3 0.298 0.48
3520.385 0.5993 0.422 0.311 0.48 0.449 0.441 0.422 0.456 0.494 0.5988
3539.674 0.65977 0.49 0.377 0.276 0.28 0.446 0.5863 0.631217 0.484 0.351
3558.964 0.451 0.409 0.394 0.356 0.424 0.65392 0.64759 0.63539 0.5761 0.51
3578.254 0.67807 0.69772 0.627406 0.6838 0.65549 0.66662 0.6118 0.5289 0.65214 0.69318
3597.544 0.5521 0.61956 0.63977 0.5555 0.5431 0.524 0.44 0.5275 0.441 0.343
3616.833 0.393 0.264 0.407 0.406 0.394 0.415 0.29 0.464 0.67498 0.627709
3636.123 0.5571 0.457 0.328 0.515 0.64219 0.572 0.72201 0.65102 0.542 0.5943
3655.413 0.463 0.5506 0.782 0.66242 0.378 0.5895 0.71556 0.5372 0.5283 0.495
3674.703 0.331 0.238 0.386 0.45 0.48 0.51 0.499 0.456 0.378 0.407
3693.993 0.395 0.497 0.6117 0.506 0.43 0.5993 0.67801 0.574 0.7963 0.6904
3713.282 0.516 0.448 0.478 0.624984 0.5873 0.72006 0.7556 0.8474 0.7245 0.63704
3732.572 0.8008 0.959 0.9675 0.7514 0.68419 0.5953 0.41 0.5349 0.629553 0.471
3751.862 0.46 0.5553 0.491 0.428 0.70825 0.63493 0.404 0.506 0.493 0.472
3771.152 0.5971 0.65244 0.5981 0.5652 0.478 0.5864 0.6038 0.6005 0.5444 0.273
3790.441 0.183 0.3 0.406 0.5474 0.8687 0.7803 0.593 0.5389 0.443 0.5523
3809.731 0.514 0.421 0.487 0.46 0.6025 0.5271 0.303 0.499 0.5945 0.435
3829.021 0.204 0.179 0.392 0.405 0.271 0.375 0.5692 0.414 0.22 0.21
3848.311 0.306 0.197 0.076 0.123 0.197 0.291 0.382 0.396 0.352 0.299
3867.601 0.26 0.229 0.259 0.359 0.195 0.339 0.338 0.118 0.223 0.342
3886.890 0.147 0 0.185 0.256 0.237 0.265 0.346 0.362 0.366 0.516
3906.180 0.398 0.235 0.228 0.252 0.36 0.398 0.5259 0.473 0.308 0.406
3925.470 0.357 0.31 0.429 0.402 0.295 0.28 0.178 0.249 0.467 0.398
3944.760 0.327 0.391 0.5657 0.507 0.418 0.496 0.526 0.377 0.401 0.412
3964.049 0.285 0.298 0.166 0.07 0.24 0.444 0.429 0.262 0.206 0.247
3983.339 0.083 0.026 0.191 0.236 0.192 0.217 0.213 0.188 0.394 0.455
##END=
