##TITLE=3,5-Dimethylphenylacetonitrile
##JCAMP-DX=4.24
##DATA TYPE=INFRARED SPECTRUM
##ORIGIN=EPA-IR VAPOR PHASE LIBRARY
##OWNER=SRD/NIST
Collection (C) 2018 copyright by the U.S. Secretary of Commerce
on behalf of the United States of America. All rights reserved.
##CAS REGISTRY NO=39101-54-7
##MOLFORM=C 10 H 11 N
##$NIST SOURCE=MSDC-IR
##STATE=gas
##XUNITS=1/CM
##YUNITS=ABSORBANCE
##XFACTOR=1.
##YFACTOR=0.001
##DELTAX=1.92898
##FIRSTX=549.8
##LASTX=4000.7
##FIRSTY=0.7985
##MAXX=4000.7
##MINX=549.759
##MAXY=0.057217
##MINY=0
##NPOINTS=1790
##XYDATA=(X++(Y..Y))
549.759 0.7985 0.3621 0.1327 0.3159 0.18879 0.084 0.27244 0.056 0.044 0.4543
569.049 0.4847 0.3411 0.29268 0.22221 0.088 0.27859 0.4448 0.058 0.084 0.3185
588.339 0.3042 0.22528 0.22883 0.2836 0.27732 0.201081 0 0.19382 0.4124 0.36
607.628 0.4218 0.3984 0.1697 0.27035 0.4985 0.3424 0.3492 0.5358 0.6754 0.7032
626.918 0.5473 0.5961 0.8357 1.0584 1.1704 1.417 1.727 1.917 2.377 2.897
646.208 3.137 3.357 3.817 4.097 4.287 4.367 4.117 4.097 4.277 4.237
665.498 4.217 4.427 4.807 5.227 5.757 6.397 6.927 7.367 7.867 8.637
684.787 9.617 10.747 11.477 11.957 12.637 13.057 13.277 13.647 13.687 13.207
704.077 12.487 11.507 10.357 9.147 7.877 6.807 5.957 4.957 4.137 3.477
723.367 2.807 2.347 2.167 1.917 1.557 1.307 1.0508 1.0202 1.0651 0.9551
742.657 0.9796 0.8627 0.7568 0.6678 0.4459 0.5407 0.6542 0.6179 0.5938 0.468
761.947 0.335 0.4444 0.4767 0.3832 0.4022 0.449 0.4875 0.4845 0.4709 0.473
781.236 0.4639 0.528 0.6645 0.7542 0.8633 0.9159 0.8512 0.9353 1.082 1.257
800.526 1.427 1.777 2.177 2.517 2.927 3.397 4.427 5.607 6.947 9.097
819.816 11.687 14.347 17.257 20.227 23.487 27.447 31.187 34.197 35.297 32.677
839.106 27.937 24.177 21.687 19.217 16.287 13.527 11.227 9.097 7.347 6.027
858.395 5.017 4.417 3.857 3.507 3.427 3.217 3.277 3.387 3.157 3.187
877.685 3.377 3.367 3.507 3.787 4.017 4.007 3.717 3.547 3.597 3.647
896.975 3.637 3.567 3.587 3.267 2.907 2.737 2.477 2.487 2.527 2.477
916.265 2.337 2.267 2.407 2.507 2.437 2.437 2.587 2.627 2.597 2.627
935.555 2.727 2.857 2.887 2.727 2.647 2.707 2.757 2.737 2.667 2.527
954.844 2.337 2.297 2.197 2.077 2.037 2.057 1.867 1.657 1.717 1.627
974.134 1.487 1.627 1.767 1.627 1.777 2.037 2.087 2.297 2.527 2.617
993.424 2.867 2.927 2.827 2.847 2.757 2.897 2.917 2.637 2.717 2.837
1012.714 2.517 2.147 2.037 2.177 1.977 1.557 1.567 1.647 1.797 2.097
1032.003 2.237 2.357 2.507 2.627 2.857 3.167 3.457 3.727 3.607 3.327
1051.293 3.417 3.277 3.047 3.307 3.327 3.167 3.057 2.677 2.347 2.417
1070.583 2.397 2.097 1.797 1.537 1.457 1.587 1.297 1.0198 1.247 1.1786
1089.873 0.7111 0.6049 0.7506 0.9975 1.1024 0.7606 0.6249 0.5928 1.0149 1.397
1109.163 1.1338 0.852 1.0877 1.307 1.0641 0.9596 0.7169 0.5045 0.6858 1.1024
1128.452 1.1267 0.8926 0.8787 1.0385 1.227 1.1672 1.01 1.0175 1.0955 1.427
1147.742 1.497 1.427 1.607 1.827 1.857 1.327 1.247 1.457 1.477 1.437
1167.032 1.227 1.1909 1.297 1.257 1.0932 0.8912 0.7761 1.0398 1.297 1.327
1186.322 1.143 1.108 1.417 1.557 1.397 1.257 1.317 1.197 1.1363 0.9201
1205.611 1.104 1.457 1.557 1.477 1.0524 1.1765 1.417 1.247 1.1633 1.437
1224.901 1.617 1.527 1.617 1.807 1.647 1.707 1.877 2.017 1.947 2.017
1244.191 2.437 2.467 2.537 2.697 2.747 2.907 3.067 3.047 3.047 2.867
1263.481 2.677 2.657 2.617 2.617 2.727 2.807 2.787 2.787 2.717 2.697
1282.771 2.717 2.617 2.587 2.837 3.017 3.027 3.027 3.227 3.437 3.647
1302.060 3.907 3.977 3.957 3.957 3.937 3.807 3.587 3.417 3.207 2.987
1321.350 2.757 2.567 2.357 2.297 2.357 2.347 2.367 2.447 2.557 2.657
1340.640 2.787 2.907 3.047 3.137 3.217 3.367 3.527 3.667 3.777 3.987
1359.930 4.097 4.137 4.317 4.517 4.717 4.977 5.277 5.687 6.177 6.667
1379.219 7.107 7.417 7.697 8.037 8.267 8.247 7.977 7.667 7.337 7.077
1398.509 7.017 7.087 7.247 7.467 7.837 8.277 8.727 9.297 10.107 11.217
1417.799 12.447 13.687 14.697 15.257 15.567 15.857 15.877 15.557 15.177 14.697
1437.089 14.197 14.177 14.687 15.517 16.627 17.847 19.007 20.057 20.887 21.347
1456.378 21.417 21.157 20.727 20.017 19.037 17.957 16.837 15.877 15.087 14.487
1475.668 14.127 13.787 13.557 13.437 13.317 13.287 13.327 13.277 13.177 12.967
1494.958 12.707 12.467 12.377 12.367 12.327 12.217 12.027 11.817 11.597 11.367
1514.248 11.157 11.067 11.037 11.017 10.987 10.997 11.017 11.087 11.167 11.187
1533.538 11.147 11.097 11.087 10.967 10.777 10.527 10.327 10.097 9.787 9.557
1552.827 9.397 9.237 9.047 8.917 8.907 9.007 9.187 9.387 9.587 9.827
1572.117 10.087 10.407 10.867 11.277 11.807 12.527 13.427 14.607 16.257 18.407
1591.407 20.977 24.417 28.617 33.567 39.197 45.047 50.557 54.857 57.207 57.217
1610.697 54.777 50.037 43.367 35.417 27.797 21.677 16.957 13.317 10.447 8.197
1629.986 6.497 5.207 4.217 3.527 2.957 2.597 2.377 2.147 2.017 1.977
1649.276 1.937 1.807 1.637 1.547 1.507 1.457 1.397 1.337 1.307 1.257
1668.566 1.247 1.287 1.227 1.217 1.277 1.297 1.327 1.327 1.317 1.427
1687.856 1.517 1.587 1.727 1.937 2.127 2.397 2.657 2.827 2.967 3.057
1707.146 3.207 3.287 3.267 3.197 3.057 2.867 2.647 2.487 2.387 2.247
1726.435 2.137 2.087 2.037 2.017 2.097 2.217 2.387 2.587 2.867 3.197
1745.725 3.447 3.727 3.947 4.067 4.087 3.997 3.887 3.707 3.487 3.267
1765.015 2.927 2.567 2.247 1.967 1.797 1.667 1.557 1.447 1.337 1.297
1784.305 1.307 1.237 1.287 1.397 1.367 1.337 1.357 1.317 1.407 1.487
1803.594 1.477 1.467 1.407 1.417 1.417 1.337 1.307 1.307 1.237 1.1616
1822.884 1.1512 1.0941 1.0485 1.0771 1.0341 0.9722 0.9346 0.855 0.8338 0.8961
1842.174 0.8426 0.786 0.8651 0.886 0.8957 0.9186 0.9073 0.8851 0.8607 0.924
1861.464 0.9185 0.8975 0.9701 1.0351 1.0615 1.015 1.0082 1.0502 0.9997 1.0252
1880.754 1.0854 1.0399 1.0519 1.0753 1.099 1.1086 0.9786 0.9201 0.9954 1.0459
1900.043 0.9857 0.8923 0.9008 0.9371 0.9667 0.98 1.0086 1.0123 1.0167 1.0491
1919.333 1.0608 1.0616 1.0147 1.0006 1.038 1.0427 0.9993 0.9751 0.951 0.8633
1938.623 0.8615 0.8566 0.7455 0.7114 0.7574 0.6598 0.6071 0.6601 0.6215 0.5831
1957.913 0.5997 0.598 0.5486 0.528 0.5326 0.5072 0.5283 0.5745 0.5573 0.556
1977.202 0.5232 0.4983 0.4513 0.3987 0.4232 0.4205 0.4356 0.4056 0.3986 0.4705
1996.492 0.4792 0.4425 0.4444 0.4401 0.3824 0.3369 0.3655 0.4542 0.4905 0.4432
2015.782 0.3771 0.4076 0.4178 0.4722 0.4898 0.4309 0.4589 0.4629 0.4931 0.503
2035.072 0.5064 0.5039 0.4807 0.4743 0.4309 0.407 0.4082 0.4627 0.4701 0.426
2054.362 0.386 0.3319 0.3709 0.4102 0.4275 0.485 0.4884 0.4128 0.4099 0.4807
2073.651 0.5318 0.5498 0.5068 0.5062 0.5098 0.4544 0.5099 0.5431 0.5249 0.5619
2092.941 0.5666 0.5956 0.6113 0.5976 0.5703 0.5175 0.509 0.5413 0.5815 0.6001
2112.231 0.5629 0.5854 0.6324 0.573 0.5682 0.5876 0.5403 0.5225 0.5931 0.6299
2131.521 0.5711 0.5473 0.588 0.5812 0.5726 0.622 0.6285 0.6036 0.6237 0.6183
2150.810 0.5702 0.5706 0.6144 0.6339 0.5792 0.5701 0.5924 0.5311 0.4718 0.4694
2170.100 0.435 0.3778 0.4333 0.504 0.4412 0.4364 0.4047 0.3559 0.4055 0.4158
2189.390 0.399 0.399 0.3946 0.3186 0.3224 0.4044 0.4344 0.4474 0.4495 0.4952
2208.680 0.4824 0.4448 0.5234 0.6079 0.6086 0.552 0.609 0.6883 0.6718 0.6898
2227.970 0.7542 0.8137 0.921 1.0601 1.1617 1.297 1.497 1.737 1.977 2.257
2247.259 2.477 2.587 2.687 2.807 2.867 2.827 2.747 2.607 2.397 2.207
2266.549 1.977 1.707 1.537 1.407 1.277 1.1179 1.0094 0.9408 0.8395 0.7942
2285.839 0.7839 0.7816 0.7083 0.6387 0.6518 0.6986 0.7102 0.6843 0.6827 0.696
2305.129 0.6992 0.7206 0.8252 0.8318 0.7699 0.8079 0.8508 0.9094 0.9724 0.9367
2324.418 0.8718 0.866 0.8707 0.8239 0.8844 0.9465 0.903 0.8908 0.8438 0.8064
2343.708 0.8152 0.8775 0.935 0.9662 0.9776 0.9666 0.9255 0.8819 0.878 0.8179
2362.998 0.7564 0.7049 0.6766 0.7017 0.7317 0.7463 0.7857 0.8237 0.8325 0.8273
2382.288 0.7452 0.7043 0.8163 0.8854 0.8482 0.8107 0.836 0.8565 0.8209 0.7994
2401.578 0.8026 0.8139 0.7751 0.8365 0.8514 0.7758 0.7894 0.8792 0.8777 0.8523
2420.867 0.8927 0.8339 0.8586 0.8698 0.7856 0.7951 0.8319 0.8252 0.8058 0.8091
2440.157 0.8969 0.9616 0.9151 0.8567 0.8977 0.972 0.9697 0.9297 0.8891 0.9038
2459.447 0.937 0.91 0.8478 0.8757 0.9071 0.861 0.87 0.8782 0.8784 0.8404
2478.737 0.7833 0.8092 0.8147 0.7734 0.787 0.7817 0.7529 0.7191 0.7149 0.7318
2498.026 0.7236 0.7002 0.7054 0.7289 0.7768 0.7347 0.6432 0.6323 0.6861 0.7417
2517.316 0.6939 0.6724 0.673 0.6496 0.6598 0.7136 0.6733 0.6336 0.6263 0.6665
2536.606 0.7593 0.7251 0.6062 0.5633 0.7013 0.7898 0.7834 0.7361 0.7706 0.8326
2555.896 0.7858 0.8218 0.8088 0.7179 0.695 0.7696 0.7786 0.7109 0.702 0.7197
2575.186 0.6872 0.7516 0.7742 0.7068 0.7239 0.7607 0.7668 0.7641 0.8743 0.8482
2594.475 0.8238 0.8529 0.8035 0.768 0.7506 0.7685 0.7544 0.7772 0.7587 0.7428
2613.765 0.7073 0.7192 0.7101 0.6491 0.6322 0.6207 0.6382 0.5554 0.456 0.4548
2633.055 0.4683 0.4976 0.5668 0.5043 0.4451 0.4981 0.5286 0.5526 0.6153 0.6493
2652.345 0.5916 0.4808 0.4757 0.5873 0.6376 0.6792 0.6666 0.615 0.6622 0.6738
2671.634 0.6699 0.6723 0.677 0.6662 0.673 0.7058 0.6884 0.6135 0.5821 0.6455
2690.924 0.6918 0.7435 0.8103 0.8512 0.907 0.9465 0.943 0.9635 0.9659 0.8993
2710.214 0.8877 0.9621 1.0031 1.0036 0.9891 1.0325 1.1454 1.257 1.347 1.397
2729.504 1.527 1.737 1.937 2.177 2.397 2.497 2.647 2.797 2.827 2.897
2748.794 2.857 2.657 2.487 2.377 2.157 1.927 1.767 1.577 1.407 1.257
2768.083 1.267 1.337 1.237 1.207 1.257 1.0904 1.1219 1.257 1.237 1.227
2787.373 1.287 1.337 1.437 1.457 1.507 1.537 1.517 1.637 1.677 1.687
2806.663 1.797 1.937 2.117 2.267 2.367 2.537 2.737 3.007 3.297 3.537
2825.953 3.807 4.007 4.247 4.577 4.827 5.087 5.367 5.697 6.047 6.377
2845.242 6.797 7.297 7.847 8.437 9.117 9.817 10.747 11.747 12.677 13.647
2864.532 14.737 15.947 17.037 17.917 18.537 19.087 19.547 19.777 19.677 19.307
2883.822 18.947 18.617 18.057 17.517 17.367 17.357 17.437 17.737 18.337 19.077
2903.112 20.107 21.337 22.517 23.917 25.637 27.517 29.697 32.407 35.327 38.487
2922.401 41.837 45.117 48.157 50.197 51.327 51.777 51.407 50.317 48.347 45.607
2941.691 42.287 38.587 34.837 31.277 28.207 25.527 23.267 21.607 20.127 18.617
2960.981 17.567 16.837 16.087 15.277 14.497 13.817 13.337 13.147 12.987 12.977
2980.271 13.127 13.427 13.957 14.547 15.117 15.667 16.297 17.047 17.707 18.367
2999.561 19.137 19.887 20.827 22.037 23.367 24.917 26.827 29.007 31.597 34.617
3018.850 37.697 40.637 42.967 44.577 45.387 45.287 44.457 42.707 40.137 36.787
3038.140 33.057 29.417 26.047 23.197 20.717 18.437 16.497 15.077 13.957 12.917
3057.430 12.037 11.297 10.707 9.957 9.287 8.747 8.117 7.567 7.047 6.617
3076.720 6.207 5.787 5.567 5.367 5.067 4.817 4.597 4.387 4.177 3.967
3096.009 3.797 3.647 3.477 3.277 3.167 2.987 2.657 2.397 2.347 2.337
3115.299 2.187 1.967 1.747 1.627 1.637 1.527 1.367 1.287 1.237 1.227
3134.589 1.1756 1.0397 1.0657 1.197 1.1701 1.195 1.267 1.207 1.1464 1.182
3153.879 1.0951 0.9741 0.9286 0.8761 0.8561 0.8698 0.9784 1.0611 0.9875 0.9059
3173.169 0.8875 0.9127 0.8747 0.8329 0.8773 0.8125 0.7996 0.8436 0.9765 0.879
3192.458 0.734 0.8688 0.969 0.8747 0.8675 1.0912 1.1124 0.97 0.9368 0.9192
3211.748 0.8948 0.9914 0.9433 0.8566 0.8004 0.7016 0.7613 0.765 0.8158 0.8246
3231.038 0.6643 0.6442 0.7888 0.7997 0.721 0.8152 0.7853 0.6948 0.6473 0.676
3250.328 0.7 0.7379 0.659 0.653 0.7703 0.697 0.5534 0.5253 0.6574 0.6275
3269.617 0.5089 0.588 0.6159 0.5694 0.6485 0.6198 0.5601 0.5798 0.4783 0.4121
3288.907 0.3813 0.4464 0.5195 0.4494 0.5501 0.5554 0.4318 0.4387 0.3042 0.3778
3308.197 0.4787 0.4062 0.5417 0.5627 0.4184 0.29002 0.311 0.404 0.4317 0.526
3327.487 0.4619 0.3055 0.26348 0.325 0.4619 0.36 0.23234 0.1434 0.1459 0.26982
3346.777 0.31 0.3602 0.4732 0.493 0.3892 0.3534 0.3616 0.25782 0.1657 0.203943
3366.066 0.3605 0.4318 0.29598 0.096 0.19587 0.3508 0.3437 0.4317 0.4001 0.3027
3385.356 0.3326 0.4068 0.3884 0.27519 0.24531 0.2598 0.25841 0.3766 0.3894 0.3537
3404.646 0.3964 0.22225 0.19412 0.3326 0.361 0.28657 0.329 0.4576 0.3957 0.4127
3423.936 0.4031 0.3542 0.3693 0.423 0.4952 0.4563 0.4926 0.5718 0.5163 0.531
3443.225 0.413 0.3097 0.3255 0.28528 0.3882 0.5091 0.491 0.4557 0.4939 0.4205
3462.515 0.3995 0.4617 0.4322 0.4216 0.5076 0.4914 0.5164 0.5448 0.348 0.3036
3481.805 0.3629 0.4318 0.5045 0.4817 0.4877 0.5266 0.3188 0.068 0.21227 0.22536
3501.095 0.151 0.199624 0.2297 0.3477 0.3782 0.3822 0.3259 0.3262 0.4386 0.4951
3520.385 0.4542 0.4756 0.5363 0.4036 0.3622 0.4196 0.4599 0.4546 0.4408 0.5268
3539.674 0.5006 0.5214 0.596 0.4722 0.4677 0.5843 0.461 0.27824 0.3123 0.3451
3558.964 0.25047 0.26386 0.4378 0.4624 0.4599 0.5478 0.4999 0.4549 0.3903 0.3282
3578.254 0.29374 0.3884 0.3727 0.196643 0.22509 0.24782 0.28398 0.3305 0.3423 0.3489
3597.544 0.3795 0.4168 0.3572 0.3199 0.24574 0.093 0.1378 0.26472 0.1311 0.035
3616.833 0.23389 0.3381 0.29134 0.4129 0.4653 0.28889 0.27485 0.3319 0.28477 0.27525
3636.123 0.324 0.27912 0.26001 0.3134 0.3152 0.329 0.28746 0.3415 0.2875 0.3702
3655.413 0.613 0.5811 0.4676 0.4433 0.4475 0.4064 0.3432 0.3124 0.27516 0.23059
3674.703 0.25999 0.3286 0.4125 0.4059 0.4278 0.4307 0.4055 0.3249 0.3197 0.4305
3693.993 0.4159 0.3902 0.4295 0.4538 0.393 0.4212 0.5031 0.4256 0.24394 0.1315
3713.282 0.27823 0.3896 0.3796 0.3867 0.3904 0.4017 0.4016 0.4748 0.4395 0.4078
3732.572 0.4015 0.4107 0.4238 0.3682 0.28915 0.4117 0.352 0.058 0.097 0.149
3751.862 0.1577 0.25742 0.3576 0.3041 0.25708 0.296 0.3073 0.3711 0.4121 0.3059
3771.152 0.26408 0.28857 0.27247 0.3256 0.4374 0.4816 0.3795 0.21516 0.26251 0.4556
3790.441 0.4344 0.4284 0.4447 0.4237 0.316 0.21828 0.4026 0.4222 0.28635 0.28147
3809.731 0.3482 0.3445 0.3652 0.4423 0.4112 0.4572 0.4391 0.4625 0.6086 0.6299
3829.021 0.5252 0.417 0.4531 0.4867 0.5387 0.5869 0.4928 0.6037 0.6653 0.4248
3848.311 0.3406 0.4374 0.6809 0.7913 0.545 0.49 0.4556 0.4137 0.4284 0.3716
3867.601 0.5361 0.7077 0.7072 0.671 0.6499 0.6156 0.6445 0.7838 0.6701 0.4634
3886.890 0.5202 0.6246 0.5754 0.5223 0.5264 0.5142 0.5591 0.4848 0.4599 0.5413
3906.180 0.629 0.66 0.6729 0.5255 0.3498 0.4652 0.6539 0.5695 0.5224 0.657
3925.470 0.7649 0.7615 0.6672 0.7192 0.7532 0.6563 0.6088 0.7327 0.834 0.6921
3944.760 0.7705 0.8518 0.6532 0.6314 0.5254 0.4814 0.5382 0.638 0.7282 0.633
3964.049 0.4714 0.5582 0.7116 0.707 0.6698 0.6805 0.6867 0.65 0.7173 0.6902
3983.339 0.621 0.6754 0.681 0.5311 0.5396 0.6943 0.7844 0.859 0.8231 0.758
##END=
