##TITLE=3-Bromobenzhydrazide
##JCAMP-DX=4.24
##DATA TYPE=INFRARED SPECTRUM
##ORIGIN=EPA-IR VAPOR PHASE LIBRARY
##OWNER=SRD/NIST
Collection (C) 2018 copyright by the U.S. Secretary of Commerce
on behalf of the United States of America. All rights reserved.
##CAS REGISTRY NO=39115-96-3
##MOLFORM=C 7 H 7 Br N 2 O
##$NIST SOURCE=MSDC-IR
##STATE=gas
##XUNITS=1/CM
##YUNITS=ABSORBANCE
##XFACTOR=1.
##YFACTOR=0.001
##DELTAX=3.85796
##FIRSTX=551.7
##LASTX=4000.7
##FIRSTY=1.83
##MAXX=4000.7
##MINX=551.688
##MAXY=0.01116
##MINY=0.0005755
##NPOINTS=895
##XYDATA=(X++(Y..Y))
551.688 1.83 1.78 1.74 1.67 1.65 1.62 1.69 1.77 1.7 1.69
590.268 1.74 1.71 1.66 1.64 1.64 1.64 1.6 1.57 1.57 1.61
628.847 1.7 1.74 1.74 1.73 1.78 1.88 1.9 1.87 1.81 1.88
667.427 2.05 2.19 2.25 2.25 2.24 2.19 2.07 1.94 2 2.14
706.006 2.27 2.59 3.18 3.89 4.41 4.68 4.63 4.31 4.02 3.82
744.586 3.54 3.19 2.91 2.58 2.27 2.12 2.06 1.98 1.93 1.94
783.165 2 2.13 2.24 2.29 2.31 2.21 2.01 1.83 1.71 1.64
821.745 1.62 1.65 1.65 1.67 1.69 1.69 1.72 1.72 1.73 1.81
860.324 1.89 1.98 2.11 2.2 2.26 2.33 2.35 2.29 2.26 2.25
898.904 2.25 2.34 2.4 2.46 2.58 2.71 2.94 3.28 3.67 4.09
937.484 4.41 4.56 4.46 4.04 3.44 2.86 2.4 2.09 1.87 1.77
976.063 1.66 1.53 1.51 1.55 1.59 1.65 1.63 1.56 1.48 1.43
1014.643 1.38 1.3 1.31 1.35 1.32 1.27 1.25 1.29 1.39 1.44
1053.222 1.47 1.61 1.86 2.04 2.16 2.28 2.24 2.1 2.04 1.9
1091.802 1.71 1.56 1.48 1.46 1.39 1.32 1.29 1.24 1.18 1.12
1130.381 1.16 1.25 1.22 1.18 1.16 1.11 1.19 1.23 1.23 1.35
1168.961 1.41 1.37 1.34 1.33 1.31 1.19 1.03 1.06 1.13 1.15
1207.540 1.13 1.11 1.18 1.18 1.2 1.3 1.4 1.56 1.74 2
1246.120 2.38 2.86 3.42 3.97 4.49 4.86 5.1 5.44 5.88 6.14
1284.699 6.05 5.64 4.96 4.14 3.35 2.69 2.21 1.89 1.7 1.6
1323.279 1.52 1.49 1.48 1.48 1.46 1.42 1.41 1.41 1.4 1.4
1361.859 1.36 1.36 1.39 1.39 1.42 1.49 1.57 1.64 1.74 1.9
1400.438 2.1 2.29 2.5 2.73 2.96 3.25 3.7 4.38 5.24 6.19
1439.018 7.15 7.87 8.15 7.89 7.24 6.44 5.72 5.12 4.68 4.41
1477.597 4.31 4.31 4.24 4.02 3.7 3.33 3.01 2.76 2.51 2.31
1516.177 2.18 2.07 1.98 1.92 1.91 1.91 1.94 2.01 2.19 2.49
1554.756 2.93 3.47 3.92 4.08 3.86 3.32 2.74 2.39 2.21 2.12
1593.336 2.07 2.03 2.05 2.07 2.12 2.22 2.36 2.55 2.76 3.03
1631.915 3.28 3.39 3.33 3.11 2.84 2.59 2.42 2.39 2.44 2.55
1670.495 2.73 2.97 3.26 3.63 4.18 5.16 6.84 9.13 10.8 11.16
1709.075 9.99 7.49 5.3 4.12 3.53 3.25 2.98 2.66 2.32 2
1747.654 1.76 1.58 1.47 1.41 1.37 1.35 1.32 1.31 1.29 1.26
1786.234 1.26 1.27 1.25 1.24 1.25 1.24 1.23 1.21 1.18 1.15
1824.813 1.15 1.15 1.14 1.12 1.09 1.08 1.08 1.1 1.1 1.1
1863.393 1.11 1.11 1.1 1.09 1.1 1.11 1.11 1.1 1.09 1.08
1901.972 1.07 1.04 1.01 1 0.9922 1 1.02 1.04 1.02 1.02
1940.552 1.03 1.02 1.01 0.9997 0.9819 0.969 0.9557 0.9429 0.9484 0.9431
1979.131 0.9332 0.924 0.9082 0.8934 0.8916 0.8896 0.8773 0.869 0.8829 0.8932
2017.711 0.8678 0.8558 0.8562 0.8499 0.8356 0.8083 0.7884 0.7859 0.77 0.7358
2056.291 0.7199 0.723 0.7192 0.6996 0.6855 0.6859 0.6763 0.6425 0.6413 0.6558
2094.870 0.6441 0.647 0.6405 0.6247 0.6268 0.6189 0.6082 0.6084 0.6097 0.6018
2133.450 0.5958 0.6056 0.6215 0.6092 0.6003 0.6084 0.6072 0.6064 0.6124 0.6213
2172.029 0.6198 0.6192 0.618 0.6236 0.651 0.6502 0.6397 0.6439 0.6233 0.62
2210.609 0.6187 0.6091 0.6187 0.6238 0.6413 0.6387 0.6216 0.612 0.6115 0.6322
2249.188 0.6206 0.6025 0.6017 0.6029 0.6186 0.6374 0.6509 0.644 0.6277 0.6293
2287.768 0.6307 0.6284 0.6186 0.6202 0.6302 0.6264 0.6243 0.6154 0.6057 0.5915
2326.347 0.6066 0.6314 0.6289 0.6387 0.6381 0.6352 0.6312 0.6205 0.6202 0.6286
2364.927 0.6354 0.6348 0.6358 0.6315 0.6191 0.6178 0.6376 0.6392 0.6135 0.6056
2403.507 0.6171 0.6253 0.6278 0.6341 0.6364 0.6394 0.6399 0.6528 0.6579 0.6489
2442.086 0.6355 0.6266 0.6273 0.6118 0.6246 0.6381 0.6461 0.6534 0.6302 0.6193
2480.666 0.6363 0.6364 0.652 0.6686 0.6638 0.6575 0.6404 0.6475 0.6521 0.6411
2519.245 0.6387 0.6286 0.6235 0.6339 0.6297 0.636 0.64 0.6336 0.6379 0.6317
2557.825 0.6315 0.6527 0.6693 0.6667 0.6573 0.6225 0.6021 0.6272 0.6238 0.6124
2596.404 0.6123 0.6182 0.6231 0.6214 0.6289 0.6236 0.62 0.6128 0.6185 0.6305
2634.984 0.6181 0.6451 0.6672 0.646 0.6491 0.6631 0.6441 0.6301 0.6467 0.6154
2673.563 0.6008 0.6318 0.6397 0.6491 0.6594 0.6634 0.6634 0.678 0.6937 0.6903
2712.143 0.7168 0.7363 0.7188 0.6752 0.6536 0.6654 0.6504 0.6469 0.6591 0.6539
2750.722 0.6605 0.6656 0.6658 0.6504 0.6441 0.6617 0.6492 0.6516 0.6648 0.6794
2789.302 0.6718 0.6409 0.6596 0.6857 0.6872 0.681 0.6846 0.6913 0.6944 0.6595
2827.882 0.6625 0.696 0.7008 0.7003 0.6891 0.6942 0.6968 0.7056 0.6969 0.697
2866.461 0.7327 0.7349 0.7219 0.7355 0.7328 0.7253 0.7269 0.75 0.7795 0.7865
2905.041 0.7888 0.7821 0.7938 0.7844 0.7395 0.7407 0.7434 0.7355 0.735 0.6966
2943.620 0.655 0.6773 0.6714 0.707 0.7548 0.7223 0.7235 0.7281 0.6924 0.6976
2982.200 0.7211 0.7027 0.7084 0.7445 0.7503 0.7403 0.8031 0.8057 0.7879 0.8454
3020.779 0.9007 0.9363 0.9709 0.9878 0.9702 1.01 1.05 1.04 1.04 1.1
3059.359 1.18 1.27 1.39 1.44 1.46 1.46 1.37 1.26 1.17 1.12
3097.938 1.04 0.9592 0.8842 0.839 0.8335 0.823 0.7912 0.7801 0.761 0.7272
3136.518 0.7481 0.7847 0.7162 0.7268 0.7357 0.7095 0.7647 0.7451 0.6958 0.7196
3175.098 0.7425 0.7441 0.7576 0.7535 0.7323 0.7502 0.787 0.7927 0.7853 0.7536
3213.677 0.7332 0.7434 0.7828 0.757 0.7222 0.7864 0.8123 0.7379 0.6736 0.673
3252.257 0.6847 0.7043 0.7028 0.7139 0.7171 0.7201 0.7578 0.7462 0.7323 0.7551
3290.836 0.7247 0.7055 0.7451 0.7578 0.7441 0.7257 0.7208 0.7602 0.8 0.8001
3329.416 0.7954 0.8271 0.8335 0.8305 0.8331 0.7968 0.8061 0.853 0.8616 0.843
3367.995 0.8466 0.8313 0.8064 0.7855 0.8056 0.8222 0.819 0.8605 0.8494 0.8113
3406.575 0.8194 0.8363 0.8633 0.8675 0.8731 0.94 0.9894 1.03 1.07 1.1
3445.154 1.2 1.27 1.34 1.46 1.66 1.92 2.14 2.25 2.16 2
3483.734 1.79 1.54 1.34 1.23 1.15 1.02 0.9438 0.8902 0.8393 0.8679
3522.314 0.8821 0.7978 0.7309 0.7367 0.7407 0.7185 0.6769 0.6933 0.7691 0.8009
3560.893 0.7973 0.7587 0.7183 0.7003 0.6822 0.7256 0.7261 0.6838 0.721 0.743
3599.473 0.7173 0.6842 0.6789 0.6961 0.7363 0.7649 0.7844 0.7726 0.7221 0.7102
3638.052 0.6864 0.6449 0.6319 0.6524 0.6866 0.6966 0.7162 0.7235 0.7311 0.7504
3676.632 0.7535 0.7236 0.6909 0.7184 0.7227 0.7205 0.7059 0.7124 0.7617 0.7383
3715.211 0.7101 0.7325 0.7339 0.7024 0.7156 0.6959 0.6525 0.6634 0.623 0.5875
3753.791 0.6265 0.674 0.6821 0.6676 0.6476 0.6395 0.6745 0.7309 0.7101 0.6945
3792.370 0.6939 0.6502 0.6595 0.6808 0.6859 0.67 0.6197 0.6243 0.6528 0.6963
3830.950 0.7178 0.6683 0.6501 0.7033 0.7466 0.7023 0.6711 0.6308 0.6156 0.6153
3869.530 0.5828 0.5755 0.5831 0.6219 0.6703 0.6969 0.6675 0.6508 0.6281 0.6365
3908.109 0.678 0.6471 0.6539 0.6788 0.6396 0.6453 0.6606 0.6738 0.7318 0.7209
3946.689 0.6672 0.6474 0.6092 0.6277 0.6571 0.6586 0.6525 0.6576 0.7052 0.6495
3985.268 0.6411 0.672 0.6562 0.6516 0.6588
##END=
