##TITLE=3,5-Dibromosulphanilamide
##JCAMP-DX=4.24
##DATA TYPE=INFRARED SPECTRUM
##ORIGIN=EPA-IR VAPOR PHASE LIBRARY
##OWNER=SRD/NIST
Collection (C) 2018 copyright by the U.S. Secretary of Commerce
on behalf of the United States of America. All rights reserved.
##CAS REGISTRY NO=39150-45-3
##MOLFORM=C 6 H 6 Br 2 N 2 O 2 S
##$NIST SOURCE=MSDC-IR
##STATE=gas
##XUNITS=1/CM
##YUNITS=ABSORBANCE
##XFACTOR=1.
##YFACTOR=0.001
##DELTAX=1.92934
##FIRSTX=549.9
##LASTX=3999.5
##FIRSTY=1.705
##MAXX=3999.53
##MINX=549.863
##MAXY=0.011645
##MINY=0
##NPOINTS=1789
##XYDATA=(X++(Y..Y))
549.863 1.705 1.785 1.845 1.995 2.275 2.625 3.025 3.555 4.175 4.945
569.156 5.525 5.875 5.985 5.625 5.215 4.655 3.985 3.435 2.965 2.625
588.450 2.475 2.475 2.485 2.515 2.525 2.375 2.165 1.925 1.625 1.3888
607.743 1.2492 1.1714 1.1223 1.096 1.0611 1.0685 1.0279 1.006 1.0316 1.055
627.037 1.0798 1.0388 1.0716 1.0701 0.9673 0.9544 0.9888 0.963 0.9403 0.9522
646.330 0.948 0.9143 0.9374 0.9041 0.8303 0.8789 0.9005 0.9023 0.9304 0.9034
665.624 0.9059 0.9591 1.008 0.986 0.9687 1.0277 1.0413 1.1045 1.182 1.1282
684.917 1.1039 1.0988 1.098 1.1388 1.16 1.1997 1.2088 1.1947 1.2064 1.1972
704.210 1.2206 1.2396 1.2749 1.4134 1.545 1.685 1.925 2.075 2.155 2.265
723.504 2.395 2.585 2.805 3.015 3.255 3.405 3.375 3.165 2.855 2.565
742.797 2.315 2.125 1.945 1.805 1.705 1.595 1.515 1.465 1.4536 1.4397
762.091 1.372 1.3079 1.2759 1.253 1.2329 1.1902 1.2316 1.2385 1.1924 1.1817
781.384 1.2103 1.2429 1.256 1.2761 1.2424 1.2336 1.2393 1.266 1.2931 1.239
800.678 1.2347 1.2894 1.299 1.2849 1.347 1.4108 1.4258 1.465 1.535 1.575
819.971 1.615 1.695 1.745 1.835 1.895 2.025 2.185 2.275 2.355 2.425
839.264 2.435 2.435 2.405 2.265 2.105 1.945 1.815 1.715 1.675 1.695
858.558 1.725 1.725 1.775 1.905 2.075 2.285 2.475 2.645 2.815 2.875
877.851 2.885 2.905 2.835 2.685 2.505 2.355 2.165 1.895 1.675 1.505
897.145 1.3539 1.2057 1.0795 1.0315 1.0336 1.01 0.9493 0.9233 0.8719 0.8026
916.438 0.8033 0.8212 0.7782 0.7244 0.7099 0.6805 0.6596 0.6754 0.6931 0.6902
935.732 0.637 0.6056 0.61 0.609 0.6025 0.5923 0.5963 0.5839 0.54273 0.54764
955.025 0.5656 0.5484 0.54623 0.5598 0.5903 0.6008 0.6088 0.6151 0.6051 0.5934
974.318 0.5592 0.51833 0.5209 0.52589 0.50607 0.51717 0.49183 0.458923 0.48329 0.50289
993.612 0.4923 0.462699 0.48532 0.51568 0.51555 0.48436 0.47834 0.52834 0.52659 0.49924
1012.905 0.48909 0.52922 0.54481 0.52206 0.53502 0.52655 0.5151 0.52308 0.5482 0.54383
1032.199 0.53813 0.5789 0.59 0.5486 0.5683 0.598 0.6426 0.7085 0.7924 0.8901
1051.492 0.9719 1.0614 1.1456 1.2838 1.4359 1.525 1.545 1.565 1.545 1.465
1070.786 1.3681 1.2389 1.1499 1.0916 1.0574 1.0183 0.9374 0.9063 0.9261 0.9275
1090.079 0.9219 0.9411 0.9278 0.9732 1.0824 1.1422 1.2313 1.3865 1.585 1.895
1109.372 2.235 2.575 2.835 3.025 3.065 2.855 2.515 2.105 1.705 1.4052
1128.666 1.2396 1.1701 1.0912 0.985 0.9369 0.9726 1.0369 1.0171 0.9948 1.0377
1147.959 1.1375 1.3251 1.485 1.715 1.945 2.205 2.605 3.145 3.955 4.985
1167.253 6.325 7.985 9.615 10.965 11.645 11.325 10.195 8.535 6.705 5.145
1186.546 4.095 3.335 2.745 2.345 2.075 1.895 1.635 1.3689 1.1873 1.0142
1205.840 0.9999 0.9636 0.7741 0.7365 0.8321 0.7994 0.7335 0.7206 0.8047 0.8897
1225.133 0.9087 0.9947 1.0638 1.0328 1.031 1.0344 0.9221 0.7939 0.7659 0.7038
1244.426 0.6303 0.6074 0.5735 0.5377 0.50069 0.52074 0.5843 0.5849 0.5671 0.5752
1263.720 0.54907 0.5721 0.6328 0.6598 0.6279 0.631 0.6852 0.73 0.7618 0.7828
1283.013 0.8168 0.8782 0.9497 0.9199 0.9177 0.953 0.9084 0.8489 0.7967 0.7507
1302.307 0.7023 0.6365 0.6004 0.5872 0.5833 0.5663 0.52678 0.53788 0.5601 0.54362
1321.600 0.5117 0.52388 0.5613 0.54739 0.54499 0.5856 0.6161 0.6675 0.7196 0.7524
1340.894 0.8019 0.874 0.9425 1.0289 1.1259 1.2419 1.4205 1.615 1.845 2.035
1360.187 2.205 2.365 2.455 2.565 2.665 2.785 3.095 3.555 4.095 4.685
1379.480 5.235 5.675 5.905 5.885 5.715 5.475 5.185 4.915 4.575 4.125
1398.774 3.635 3.065 2.515 2.055 1.695 1.4092 1.2238 1.0931 0.9953 0.9419
1418.067 0.8699 0.7826 0.7544 0.7719 0.7366 0.718 0.7494 0.7502 0.7507 0.7778
1437.361 0.8051 0.8204 0.8919 0.9577 1.0283 1.1955 1.3909 1.665 2.045 2.505
1456.654 2.955 3.375 3.685 3.765 3.585 3.225 2.765 2.285 1.865 1.555
1475.948 1.3512 1.2015 1.1137 1.0264 0.9623 0.8992 0.8294 0.7519 0.6781 0.6233
1495.241 0.585 0.52825 0.5196 0.55387 0.5653 0.5888 0.6082 0.6248 0.6063 0.6139
1514.534 0.6387 0.6451 0.6512 0.6804 0.7031 0.7463 0.8006 0.8269 0.9034 0.9908
1533.828 1.0557 1.1236 1.2294 1.3507 1.4232 1.495 1.595 1.645 1.625 1.605
1553.121 1.545 1.4031 1.3047 1.2444 1.1279 1.0219 0.9638 0.9453 0.9103 0.8638
1572.415 0.8584 0.8711 0.8865 0.9349 0.9839 1.0357 1.0891 1.1621 1.2431 1.3339
1591.708 1.4529 1.565 1.755 1.965 2.145 2.395 2.695 3.005 3.375 3.815
1611.002 4.235 4.575 4.775 4.815 4.635 4.265 3.755 3.215 2.725 2.285
1630.295 1.915 1.615 1.3769 1.2106 1.0788 0.9668 0.8622 0.759 0.7266 0.6752
1649.588 0.6022 0.6371 0.6291 0.5593 0.54773 0.51189 0.51412 0.53028 0.51074 0.47299
1668.882 0.427 0.456261 0.4446 0.4262 0.45266 0.4308 0.4061 0.4139 0.4254 0.4192
1688.175 0.4064 0.4203 0.4277 0.4253 0.459446 0.52806 0.52068 0.459268 0.4538 0.455719
1707.469 0.4435 0.4379 0.460631 0.4128 0.3648 0.3908 0.3965 0.3801 0.406 0.4064
1726.762 0.3785 0.3831 0.3718 0.3879 0.404 0.4107 0.407 0.4162 0.4324 0.3947
1746.056 0.3942 0.4182 0.4287 0.44 0.4297 0.4265 0.4403 0.436 0.4329 0.456538
1765.349 0.47953 0.47662 0.48018 0.52949 0.54305 0.51129 0.47992 0.48498 0.50262 0.46741
1784.642 0.4443 0.44996 0.44657 0.4326 0.4324 0.464136 0.454409 0.4234 0.4325 0.462269
1803.936 0.44882 0.4418 0.4434 0.3916 0.372 0.3836 0.3751 0.3785 0.3977 0.3828
1823.229 0.3776 0.3788 0.3551 0.346 0.353 0.3695 0.3749 0.351 0.3598 0.3583
1842.523 0.336 0.3569 0.3751 0.3555 0.342 0.3672 0.3799 0.3749 0.354 0.322
1861.816 0.319 0.33 0.312 0.319 0.3572 0.353 0.3575 0.3804 0.3654 0.305
1881.110 0.312 0.334 0.323 0.328 0.333 0.33 0.313 0.335 0.334 0.32
1900.403 0.324 0.341 0.3641 0.3619 0.3636 0.343 0.311 0.321 0.36 0.351
1919.696 0.315 0.327 0.348 0.342 0.331 0.331 0.339 0.353 0.351 0.325
1938.990 0.352 0.3599 0.335 0.346 0.342 0.322 0.324 0.349 0.351 0.34
1958.283 0.345 0.35 0.338 0.351 0.3689 0.3766 0.3821 0.3682 0.3741 0.3636
1977.577 0.353 0.3572 0.351 0.3759 0.399 0.406 0.4055 0.4076 0.3916 0.3634
1996.870 0.349 0.3559 0.3798 0.3731 0.3576 0.341 0.328 0.345 0.3665 0.351
2016.164 0.35 0.345 0.323 0.331 0.329 0.32 0.338 0.351 0.353 0.354
2035.457 0.345 0.335 0.335 0.337 0.331 0.331 0.34 0.341 0.334 0.333
2054.750 0.319 0.324 0.3618 0.3559 0.334 0.31 0.317 0.343 0.351 0.352
2074.044 0.3843 0.3989 0.35 0.339 0.341 0.343 0.344 0.352 0.3712 0.3753
2093.337 0.3644 0.3717 0.3839 0.3657 0.3634 0.3592 0.344 0.34 0.331 0.345
2112.631 0.372 0.3743 0.353 0.345 0.341 0.346 0.3819 0.379 0.3654 0.3741
2131.924 0.371 0.366 0.3676 0.3915 0.4095 0.3786 0.3866 0.3972 0.3633 0.3733
2151.218 0.3832 0.3778 0.3771 0.3604 0.354 0.334 0.326 0.3764 0.3915 0.391
2170.511 0.3713 0.339 0.3568 0.3699 0.33 0.328 0.3563 0.3607 0.3579 0.3578
2189.804 0.3563 0.3583 0.374 0.349 0.327 0.324 0.337 0.335 0.335 0.364
2209.098 0.348 0.312 0.331 0.342 0.346 0.3641 0.34 0.306 0.309 0.324
2228.391 0.326 0.335 0.344 0.3611 0.3574 0.35 0.351 0.3573 0.342 0.326
2247.685 0.346 0.35 0.352 0.3598 0.328 0.305 0.322 0.338 0.365 0.3595
2266.978 0.3562 0.3598 0.342 0.336 0.335 0.313 0.302 0.313 0.327 0.3566
2286.272 0.3688 0.3769 0.3829 0.3767 0.382 0.3654 0.322 0.338 0.346 0.322
2305.565 0.329 0.335 0.3578 0.3705 0.3774 0.3814 0.352 0.351 0.3636 0.35
2324.858 0.319 0.33 0.3756 0.3721 0.343 0.3565 0.39 0.389 0.35 0.334
2344.152 0.351 0.315 0.309 0.327 0.318 0.3625 0.3835 0.3737 0.3742 0.3571
2363.445 0.3633 0.332 0.345 0.3773 0.347 0.343 0.347 0.354 0.341 0.336
2382.739 0.33 0.35 0.3767 0.347 0.313 0.319 0.34 0.303 0.302 0.319
2402.032 0.307 0.323 0.323 0.34 0.352 0.329 0.338 0.352 0.3607 0.355
2421.326 0.359 0.3679 0.315 0.292 0.277 0.286 0.32 0.311 0.318 0.337
2440.619 0.344 0.318 0.305 0.304 0.312 0.339 0.348 0.336 0.338 0.336
2459.912 0.324 0.321 0.309 0.322 0.324 0.3 0.313 0.334 0.335 0.308
2479.206 0.315 0.341 0.328 0.308 0.325 0.347 0.326 0.299 0.3 0.32
2498.499 0.317 0.303 0.298 0.326 0.346 0.3618 0.3875 0.3896 0.3827 0.3659
2517.793 0.3791 0.4075 0.3926 0.3663 0.3737 0.3634 0.347 0.351 0.3643 0.3907
2537.086 0.3747 0.372 0.375 0.341 0.342 0.335 0.327 0.3593 0.351 0.339
2556.380 0.325 0.339 0.324 0.28 0.322 0.35 0.351 0.3645 0.3874 0.3597
2575.673 0.336 0.3615 0.3596 0.322 0.31 0.334 0.35 0.351 0.3672 0.4148
2594.966 0.4226 0.4412 0.44706 0.4095 0.4114 0.4351 0.4123 0.354 0.3698 0.3839
2614.260 0.3617 0.346 0.338 0.3702 0.3805 0.346 0.289 0.25 0.305 0.34
2633.553 0.318 0.333 0.337 0.321 0.321 0.346 0.321 0.273 0.261 0.278
2652.847 0.29 0.292 0.286 0.271 0.271 0.255 0.273 0.284 0.265 0.302
2672.140 0.35 0.335 0.333 0.319 0.259 0.246 0.283 0.301 0.293 0.311
2691.434 0.282 0.225 0.263 0.3 0.265 0.293 0.307 0.294 0.275 0.314
2710.727 0.331 0.27 0.273 0.278 0.275 0.28 0.265 0.235 0.256 0.275
2730.020 0.246 0.279 0.322 0.306 0.354 0.3669 0.297 0.279 0.295 0.292
2749.314 0.23 0.261 0.308 0.28 0.298 0.3798 0.3891 0.303 0.267 0.253
2768.607 0.28 0.28 0.249 0.263 0.264 0.289 0.353 0.316 0.228 0.242
2787.901 0.298 0.332 0.336 0.257 0.266 0.318 0.31 0.284 0.226 0.21
2807.194 0.213 0.201 0.221 0.23 0.183 0.224 0.263 0.218 0.224 0.257
2826.488 0.259 0.212 0.21 0.256 0.209 0.186 0.2 0.207 0.214 0.233
2845.781 0.284 0.222 0.158 0.23 0.307 0.304 0.277 0.21 0.159 0.213
2865.074 0.233 0.214 0.221 0.217 0.161 0.202 0.267 0.277 0.27 0.207
2884.368 0.207 0.214 0.182 0.151 0.153 0.193 0.24 0.24 0.198 0.23
2903.661 0.23 0.182 0.235 0.257 0.237 0.305 0.315 0.277 0.218 0.17
2922.955 0.171 0.126 0.091 0.133 0.207 0.181 0.189 0.232 0.174 0.216
2942.248 0.306 0.267 0.245 0.231 0.225 0.247 0.188 0.17 0.187 0.194
2961.542 0.19 0.193 0.166 0.099 0.153 0.224 0.185 0.127 0.188 0.311
2980.835 0.273 0.22 0.262 0.223 0.18 0.233 0.269 0.271 0.337 0.31
3000.128 0.262 0.291 0.263 0.188 0.206 0.204 0.15 0.163 0.159 0.16
3019.422 0.226 0.249 0.167 0.126 0.17 0.247 0.303 0.279 0.214 0.175
3038.715 0.17 0.169 0.165 0.211 0.177 0.125 0.155 0.177 0.222 0.239
3058.009 0.264 0.264 0.286 0.275 0.169 0.105 0.193 0.243 0.252 0.325
3077.302 0.269 0.288 0.334 0.324 0.4191 0.455715 0.3553 0.303 0.337 0.3563
3096.596 0.3868 0.3731 0.326 0.3575 0.334 0.28 0.334 0.3636 0.259 0.203
3115.889 0.19 0.183 0.207 0.195 0.25 0.278 0.194 0.208 0.165 0.121
3135.182 0.214 0.196 0.119 0.146 0.19 0.209 0.223 0.241 0.306 0.291
3154.476 0.271 0.261 0.205 0.157 0.156 0.247 0.264 0.245 0.233 0.182
3173.769 0.229 0.223 0.149 0.108 0.187 0.254 0.183 0.178 0.223 0.165
3193.063 0.12 0.163 0.193 0.167 0.179 0.227 0.175 0.115 0.092 0.093
3212.356 0.03 0.038 0.125 0.243 0.287 0.182 0.111 0.195 0.226 0.143
3231.650 0.171 0.167 0.128 0.15 0.171 0.225 0.269 0.238 0.302 0.311
3250.943 0.179 0.142 0.232 0.224 0.127 0.227 0.208 0.064 0.079 0.147
3270.236 0.204 0.275 0.227 0.171 0.233 0.246 0.199 0.061 0.132 0.222
3289.530 0.131 0.105 0.182 0.229 0.213 0.246 0.18 0.181 0.249 0.114
3308.823 0.07 0.182 0.219 0.213 0.205 0.204 0.214 0.23 0.196 0.166
3328.117 0.198 0.25 0.265 0.174 0.174 0.321 0.348 0.322 0.335 0.3635
3347.410 0.437 0.5786 0.6892 0.6919 0.6247 0.6432 0.8099 0.9065 1.0204 1.1376
3366.704 1.1083 1.1034 1.2376 1.2773 1.1586 1.1757 1.0927 1.0187 1.0871 1.0664
3385.997 1.0701 0.9988 1.0212 1.1405 1.0778 1.0256 1.063 1.088 1.2451 1.3448
3405.290 1.2101 1.0873 1.0266 0.9655 1.0239 1.1514 1.1872 1.1554 1.1 1.1362
3424.584 1.1534 1.004 0.8998 0.698 0.5652 0.52628 0.4366 0.458844 0.4314 0.458207
3443.877 0.3976 0.326 0.3958 0.4664 0.54234 0.5882 0.6694 0.6936 0.7161 0.8522
3463.171 0.8403 0.7592 0.7879 0.8296 1.0366 1.0762 0.9304 0.932 1.0229 1.1399
3482.464 1.1363 1.1674 1.2192 1.2408 1.1705 1.1988 1.2371 1.1517 1.0605 0.9324
3501.758 0.9974 1.1147 1.0853 1.0761 1.0063 0.8288 0.8149 0.8219 0.8408 0.9634
3521.051 1.0576 1.0467 1.0204 1.046 1.1319 1.1311 0.9854 0.8184 0.6315 0.5559
3540.344 0.52573 0.48318 0.46974 0.3809 0.286 0.272 0.243 0.162 0.145 0.195
3559.638 0.184 0.187 0.212 0.203 0.215 0.214 0.231 0.273 0.208 0.204
3578.931 0.26 0.201 0.173 0.123 0.108 0.243 0.287 0.201 0.242 0.262
3598.225 0.156 0.127 0.104 0.083 0.157 0.269 0.297 0.254 0.222 0.233
3617.518 0.274 0.3587 0.29 0.191 0.308 0.318 0.241 0.198 0.219 0.272
3636.812 0.242 0.181 0.16 0.244 0.202 0.178 0.259 0.231 0.146 0.147
3656.105 0.195 0.19 0.19 0.197 0.244 0.248 0.193 0.251 0.315 0.272
3675.398 0.276 0.308 0.283 0.223 0.247 0.289 0.339 0.326 0.267 0.302
3694.692 0.279 0.173 0.137 0.16 0.163 0.149 0.142 0.168 0.09 0
3713.985 0.11 0.173 0.132 0.199 0.253 0.254 0.278 0.252 0.246 0.27
3733.279 0.179 0.167 0.273 0.303 0.249 0.21 0.255 0.323 0.353 0.285
3752.572 0.203 0.201 0.218 0.189 0.135 0.15 0.22 0.287 0.232 0.199
3771.866 0.234 0.24 0.175 0.196 0.264 0.229 0.235 0.245 0.251 0.221
3791.159 0.244 0.257 0.191 0.159 0.187 0.187 0.144 0.147 0.165 0.231
3810.452 0.292 0.291 0.196 0.146 0.201 0.23 0.231 0.278 0.3553 0.316
3829.746 0.269 0.263 0.216 0.203 0.183 0.223 0.28 0.19 0.195 0.222
3849.039 0.17 0.185 0.24 0.285 0.283 0.235 0.211 0.238 0.186 0.213
3868.333 0.26 0.211 0.217 0.24 0.193 0.169 0.189 0.228 0.3 0.328
3887.626 0.321 0.283 0.228 0.163 0.127 0.177 0.236 0.238 0.201 0.219
3906.920 0.241 0.253 0.276 0.278 0.348 0.308 0.29 0.347 0.305 0.302
3926.213 0.291 0.272 0.307 0.31 0.308 0.295 0.247 0.252 0.301 0.286
3945.506 0.319 0.3581 0.293 0.269 0.22 0.239 0.317 0.3587 0.297 0.252
3964.800 0.303 0.256 0.183 0.216 0.247 0.195 0.164 0.134 0.154 0.149
3984.093 0.175 0.259 0.314 0.291 0.333 0.44855 0.4132 0.349 0.254
##END=
