##TITLE=4-Hydroxy-4'-nitrobiphenyl
##JCAMP-DX=4.24
##DATA TYPE=INFRARED SPECTRUM
##ORIGIN=EPA-IR VAPOR PHASE LIBRARY
##OWNER=SRD/NIST
Collection (C) 2018 copyright by the U.S. Secretary of Commerce
on behalf of the United States of America. All rights reserved.
##CAS REGISTRY NO=3916-44-7
##MOLFORM=C 12 H 9 N O 3
##$NIST SOURCE=MSDC-IR
##STATE=gas
##XUNITS=1/CM
##YUNITS=ABSORBANCE
##XFACTOR=1.
##YFACTOR=0.001
##DELTAX=1.92898
##FIRSTX=549.8
##LASTX=4000.7
##FIRSTY=6.04918
##MAXX=4000.7
##MINX=549.759
##MAXY=0.191959
##MINY=0
##NPOINTS=1790
##XYDATA=(X++(Y..Y))
549.759 6.04918 5.12918 4.47918 4.38918 3.99918 3.24918 3.01918 2.92918 2.94918 2.76918
569.049 2.39918 2.20918 2.23918 2.39918 2.34918 2.40918 2.47918 2.49918 2.50918 2.58918
588.339 2.91918 3.26918 3.91918 4.60918 5.21918 5.92918 6.24918 5.83918 5.15918 4.48918
607.628 3.61918 2.86918 2.32918 1.97918 1.77918 1.67918 1.62918 1.48918 1.63918 1.62918
626.918 1.43918 1.53918 1.57918 1.66918 1.80918 1.80918 1.95918 2.25918 2.44918 2.33918
646.208 2.01918 1.74918 1.64918 1.63918 1.70918 1.73918 1.82918 1.95918 1.83918 1.75918
665.498 1.85918 1.99918 2.21918 2.38918 2.58918 2.85918 3.19918 3.63918 4.25918 4.77918
684.787 5.26918 5.99918 6.65918 7.05918 7.39918 7.93918 8.33918 8.31918 8.27918 8.32918
704.077 8.32918 8.37918 8.44918 8.34918 8.09918 8.16918 8.21918 8.34918 8.80918 10.2292
723.367 14.2492 20.4692 24.7492 24.9392 23.8692 21.2992 15.3692 9.95918 7.77918 7.41918
742.657 7.91918 8.86918 10.0492 11.1992 12.1492 13.1292 13.8792 13.4492 12.3592 11.3992
761.947 10.2392 8.98918 7.89918 6.72918 5.66918 5.01918 4.33918 3.94918 3.92918 3.80918
781.236 3.92918 4.35918 4.64918 5.03918 5.68918 6.37918 7.27918 8.38918 9.41918 10.4292
800.526 11.3692 12.1292 12.9592 13.8892 15.0292 16.7292 18.8392 21.3692 24.4792 27.7392
819.816 31.2892 34.7492 38.0192 40.9792 42.9092 42.8092 40.5192 37.8092 35.2392 32.6692
839.106 30.6892 29.7992 30.8492 34.8992 42.5792 52.9692 62.2192 66.3592 65.5292 60.2692
858.395 49.6192 36.8492 27.1192 21.3192 17.6092 14.9192 12.6592 10.6092 8.92918 7.46918
877.685 6.23918 5.28918 4.44918 3.82918 3.22918 2.52918 2.21918 2.28918 2.33918 2.37918
896.975 2.39918 2.52918 2.57918 2.42918 2.34918 2.31918 2.26918 2.06918 1.86918 1.72918
916.265 1.60918 1.64918 1.73918 1.70918 1.68918 1.87918 2.00918 1.96918 1.95918 1.93918
935.555 1.88918 1.74918 1.60918 1.63918 1.72918 1.75918 1.92918 2.11918 2.16918 2.22918
954.844 2.17918 2.01918 1.95918 1.80918 1.66918 1.57918 1.51918 1.50918 1.39918 1.43918
974.134 1.44918 1.35918 1.36918 1.34918 1.50918 1.69918 1.60918 1.73918 1.88918 1.99918
993.424 2.52918 3.16918 4.05918 5.27918 6.73918 7.96918 8.47918 8.63918 8.70918 8.16918
1012.714 7.13918 6.53918 6.06918 5.34918 4.54918 3.83918 3.42918 3.20918 2.92918 2.65918
1032.003 2.62918 2.80918 2.85918 2.72918 2.79918 2.76918 2.60918 2.35918 2.27918 2.33918
1051.293 2.09918 2.22918 2.57918 2.65918 2.53918 2.59918 2.85918 3.01918 3.29918 3.36918
1070.583 3.53918 3.95918 4.05918 4.08918 4.75918 5.40918 5.88918 6.24918 6.43918 7.27918
1089.873 8.48918 9.98918 11.5892 13.4392 15.4792 17.7592 19.3892 20.9392 22.5092 23.2492
1109.163 23.3592 22.3092 20.8292 19.0592 16.7192 14.6492 12.8792 11.8092 11.3192 10.5992
1128.452 10.3892 10.6192 11.3092 12.8792 15.2092 17.4092 18.6992 19.3692 19.0392 17.9792
1147.742 16.6292 15.2892 14.9892 15.8992 17.6892 21.1192 26.2292 34.0592 46.1092 63.3092
1167.032 85.6092 109.479 131.259 149.659 161.979 162.709 152.079 134.719 113.579 90.1992
1186.322 68.2592 51.7092 40.5692 32.8992 27.3592 23.3392 20.1992 17.5792 15.5392 14.2192
1205.611 13.1292 12.3292 11.9892 11.8392 11.9192 12.2492 12.6092 12.7592 13.1592 13.7092
1224.901 13.8892 14.1092 14.4592 14.8692 15.4892 16.1992 16.9392 18.0492 19.5292 21.4692
1244.191 24.1992 27.9892 32.9692 39.1592 46.7692 55.4292 64.7292 74.2392 82.7092 88.4492
1263.481 90.4892 87.7092 80.2992 69.6392 56.9492 44.4192 33.7892 25.8092 20.8492 18.4792
1282.771 17.6292 17.5192 17.7592 18.0392 18.0292 17.4592 16.5792 15.7392 14.7792 13.7792
1302.060 13.0992 12.7692 12.7192 12.9692 13.5492 14.4192 15.6392 17.4092 19.9392 23.4192
1321.350 27.7692 32.7592 37.8792 42.7492 47.3692 51.7992 56.3492 61.5792 67.9392 75.5392
1340.640 84.7492 96.5292 112.379 133.309 157.729 179.779 191.959 190.789 175.469 146.179
1359.930 109.879 77.8192 55.2592 40.7592 31.3292 24.9892 20.6292 17.6792 15.7292 14.3892
1379.219 13.5692 13.1492 12.8792 12.7892 12.7492 12.5992 12.4092 12.0992 11.6992 11.3692
1398.509 10.8792 10.2392 9.62918 8.99918 8.30918 7.61918 7.11918 6.78918 6.58918 6.46918
1417.799 6.47918 6.70918 7.15918 7.87918 8.98918 10.5092 12.3892 14.3392 15.7792 16.1592
1437.089 15.5592 14.2392 12.3092 10.3092 9.07918 8.66918 8.70918 9.04918 9.63918 10.3392
1456.378 10.9992 11.6492 12.2292 12.8192 13.4792 14.2292 15.2292 16.4892 18.0192 20.1492
1475.668 23.2192 27.6492 33.6892 41.7092 51.1892 60.6192 68.0992 71.7392 71.0492 66.7192
1494.958 59.7092 52.0092 46.2292 43.1092 42.1692 42.6292 43.8692 45.5192 47.4792 49.9492
1514.248 53.3692 58.5092 66.0192 75.5892 87.2692 98.7992 108.849 116.489 120.759 121.219
1533.538 118.649 114.619 109.689 103.239 95.3392 86.2992 76.5692 67.0592 58.1092 49.8692
1552.827 42.9192 36.9792 32.3892 28.5392 25.5192 23.4892 21.9392 20.9192 20.3792 20.3792
1572.117 20.8792 21.8392 23.4392 25.6492 28.3792 31.7392 35.5992 39.8792 44.5992 49.8492
1591.407 55.7792 62.5892 70.0292 77.3292 83.4092 87.0992 87.4792 84.6692 79.5992 73.2792
1610.697 66.3992 59.2492 51.9192 44.1792 36.7792 30.3792 25.1192 21.2392 18.4992 16.6192
1629.986 15.1292 13.6392 12.1192 10.7092 9.49918 8.41918 7.55918 7.02918 6.63918 6.32918
1649.276 6.04918 5.79918 5.51918 5.31918 5.08918 4.73918 4.49918 4.31918 4.12918 3.93918
1668.566 3.79918 3.76918 3.78918 3.75918 3.73918 3.79918 3.78918 3.68918 3.58918 3.55918
1687.856 3.42918 3.20918 2.99918 2.74918 2.48918 2.35918 2.21918 2.09918 2.02918 1.95918
1707.146 1.92918 1.85918 1.86918 1.91918 1.90918 1.87918 1.82918 1.80918 1.84918 1.79918
1726.435 1.72918 1.72918 1.71918 1.69918 1.68918 1.72918 1.74918 1.77918 1.77918 1.80918
1745.725 1.90918 2.01918 2.11918 2.16918 2.19918 2.16918 2.03918 1.92918 1.83918 1.75918
1765.015 1.74918 1.72918 1.75918 1.89918 2.04918 2.18918 2.30918 2.48918 2.71918 2.85918
1784.305 2.98918 3.10918 3.13918 3.03918 2.90918 2.70918 2.37918 2.06918 1.74918 1.50918
1803.594 1.35918 1.23918 1.18918 1.17918 1.15918 1.13918 1.19918 1.21918 1.19918 1.21918
1822.884 1.20918 1.21918 1.24918 1.27918 1.32918 1.32918 1.30918 1.34918 1.39918 1.36918
1842.174 1.33918 1.30918 1.29918 1.31918 1.32918 1.37918 1.49918 1.57918 1.65918 1.71918
1861.464 1.75918 1.81918 1.86918 1.89918 1.94918 2.01918 2.04918 2.09918 2.13918 2.09918
1880.754 2.13918 2.14918 2.03918 2.00918 1.99918 1.96918 1.97918 1.94918 1.90918 1.85918
1900.043 1.94918 2.03918 2.04918 2.14918 2.21918 2.26918 2.37918 2.41918 2.42918 2.45918
1919.333 2.40918 2.34918 2.29918 2.20918 2.06918 1.90918 1.73918 1.54918 1.33918 1.18918
1938.623 1.08918 0.97658 0.90768 0.87088 0.79208 0.74818 0.74998 0.73528 0.73948 0.76098
1957.913 0.78128 0.82018 0.78978 0.75768 0.75178 0.78688 0.87158 0.85168 0.78568 0.75648
1977.202 0.78458 0.83858 0.87938 0.90138 0.96148 1.02918 1.04918 1.06918 1.04918 1.08918
1996.492 1.12918 1.11918 1.19918 1.22918 1.21918 1.22918 1.19918 1.10918 1.02918 0.98738
2015.782 0.93308 0.85878 0.82428 0.82148 0.81798 0.81018 0.77958 0.76788 0.76588 0.71868
2035.072 0.69498 0.73168 0.73098 0.73418 0.69948 0.64608 0.67858 0.68688 0.65778 0.64348
2054.362 0.61908 0.66848 0.73008 0.74258 0.77798 0.81118 0.89248 0.97458 0.96648 0.95068
2073.651 0.99078 1.03918 1.04918 1.05918 1.09918 1.15918 1.22918 1.27918 1.30918 1.31918
2092.941 1.28918 1.26918 1.18918 1.06918 1.01918 0.97388 0.89338 0.87178 0.83268 0.76428
2112.231 0.76338 0.72298 0.65698 0.64478 0.65888 0.66928 0.64038 0.62128 0.61638 0.58398
2131.521 0.52908 0.51038 0.47288 0.44798 0.48058 0.45928 0.42208 0.38638 0.37848 0.37948
2150.810 0.34728 0.37898 0.40928 0.32978 0.32098 0.36668 0.35308 0.35778 0.37348 0.36448
2170.100 0.37048 0.41038 0.43478 0.45388 0.41898 0.42588 0.45668 0.47998 0.49928 0.49798
2189.390 0.48548 0.50898 0.53118 0.50128 0.55858 0.62968 0.58678 0.61968 0.75298 0.76688
2208.680 0.76078 0.79298 0.77748 0.75578 0.75658 0.77758 0.77048 0.78828 0.78228 0.70218
2227.970 0.66988 0.66098 0.61538 0.63448 0.61948 0.53418 0.50528 0.47708 0.48978 0.54048
2247.259 0.55408 0.52898 0.48188 0.46268 0.54078 0.58618 0.60748 0.63748 0.65548 0.68838
2266.549 0.70838 0.70148 0.77238 0.90558 0.89258 0.90628 0.96858 0.98708 0.99808 0.97168
2285.839 0.94348 0.87268 0.88098 0.89788 0.90328 0.92318 0.93168 0.97628 0.98148 0.91178
2305.129 0.88608 0.90608 0.91198 0.91898 0.87108 0.90658 0.99388 1.00108 0.99788 1.03918
2324.418 1.01918 0.99338 1.04918 1.06918 1.05918 1.10918 1.07918 1.00538 1.02918 1.05918
2343.708 1.05918 1.06918 1.06918 1.09918 1.17918 1.19918 1.12918 1.07918 1.07918 1.14918
2362.998 1.11918 1.08918 1.10918 1.05918 1.02918 1.01918 0.94198 0.90278 0.93088 0.93538
2382.288 0.93758 0.92098 0.91908 0.93248 0.93098 0.90738 0.92188 0.97908 1.02918 1.09918
2401.578 1.10918 1.04918 1.02918 1.08918 1.22918 1.34918 1.38918 1.47918 1.65918 1.73918
2420.867 1.79918 1.96918 2.16918 2.30918 2.41918 2.54918 2.74918 2.88918 2.89918 2.91918
2440.157 2.89918 2.79918 2.65918 2.42918 2.30918 2.26918 2.15918 2.06918 1.99918 1.92918
2459.447 1.87918 1.91918 1.96918 1.91918 1.84918 1.75918 1.66918 1.54918 1.36918 1.30918
2478.737 1.24918 1.11918 1.10918 1.06918 1.00498 0.93968 0.89508 0.98388 1.05918 1.05918
2498.026 1.08918 1.19918 1.24918 1.28918 1.33918 1.35918 1.40918 1.38918 1.36918 1.45918
2517.316 1.56918 1.61918 1.62918 1.59918 1.57918 1.55918 1.56918 1.51918 1.35918 1.32918
2536.606 1.31918 1.23918 1.16918 1.07918 1.01918 0.94358 0.86848 0.85058 0.84298 0.80418
2555.896 0.80478 0.93658 1.01918 1.01918 1.03918 1.02918 1.06918 1.12918 1.07918 1.05918
2575.186 1.13918 1.13918 1.17918 1.31918 1.36918 1.34918 1.29918 1.27918 1.33918 1.36918
2594.475 1.38918 1.39918 1.39918 1.41918 1.38918 1.39918 1.32918 1.18918 1.17918 1.19918
2613.765 1.14918 1.05918 0.98058 0.92258 0.84818 0.80978 0.80848 0.80808 0.84398 0.84028
2633.055 0.74838 0.74938 0.80788 0.76898 0.78428 0.84488 0.77168 0.73938 0.82368 0.81288
2652.345 0.76388 0.84868 0.91868 0.85858 0.78468 0.77448 0.68338 0.64588 0.72528 0.75458
2671.634 0.77628 0.73838 0.72358 0.81778 0.84418 0.81088 0.88758 0.97708 0.96438 1.00918
2690.924 1.02918 1.03918 1.14918 1.17918 1.17918 1.19918 1.27918 1.35918 1.31918 1.26918
2710.214 1.19918 1.14918 1.08918 1.04918 1.00918 0.85678 0.80508 0.82058 0.74198 0.72658
2729.504 0.71108 0.64228 0.65438 0.64818 0.62788 0.62528 0.64888 0.75818 0.71938 0.60578
2748.794 0.60698 0.62728 0.63778 0.64988 0.64908 0.67648 0.69558 0.71348 0.76998 0.73488
2768.083 0.70318 0.76028 0.83218 0.80398 0.82448 0.82278 0.73778 0.65728 0.64928 0.76388
2787.373 0.76848 0.71758 0.77828 0.77008 0.68738 0.71948 0.70478 0.64928 0.69608 0.74088
2806.663 0.78278 0.82698 0.78068 0.72308 0.78158 0.82708 0.82468 0.86428 0.74668 0.68238
2825.953 0.83178 0.83088 0.81328 1.03918 1.13918 1.08918 1.19918 1.19918 1.15918 1.28918
2845.242 1.38918 1.42918 1.43918 1.48918 1.58918 1.66918 1.77918 1.85918 1.95918 2.08918
2864.532 2.22918 2.30918 2.38918 2.45918 2.47918 2.56918 2.60918 2.59918 2.57918 2.45918
2883.822 2.35918 2.29918 2.23918 2.14918 2.03918 1.94918 1.88918 1.78918 1.62918 1.58918
2903.112 1.60918 1.51918 1.46918 1.37918 1.32918 1.39918 1.25918 1.22918 1.27918 1.28918
2922.401 1.30918 1.29918 1.26918 1.23918 1.30918 1.33918 1.37918 1.52918 1.63918 1.71918
2941.691 1.75918 1.76918 1.79918 1.79918 1.90918 2.02918 2.01918 1.87918 1.63918 1.50918
2960.981 1.47918 1.40918 1.27918 1.20918 1.13918 1.09918 1.10918 1.08918 1.08918 1.16918
2980.271 1.22918 1.17918 1.28918 1.48918 1.54918 1.52918 1.54918 1.64918 1.84918 2.04918
2999.561 2.25918 2.49918 2.79918 3.13918 3.49918 3.96918 4.50918 4.97918 5.37918 5.81918
3018.850 6.18918 6.46918 6.78918 7.30918 8.09918 9.16918 10.4192 11.7992 13.1792 14.2792
3038.140 14.7592 14.4392 13.3892 11.8892 10.3192 8.91918 7.91918 7.45918 7.36918 7.45918
3057.430 7.74918 8.03918 8.21918 8.45918 8.62918 8.59918 8.56918 8.49918 8.38918 8.25918
3076.720 8.21918 8.22918 8.04918 7.72918 7.32918 6.75918 5.95918 5.18918 4.52918 3.87918
3096.009 3.31918 2.97918 2.75918 2.62918 2.51918 2.32918 2.15918 2.03918 1.94918 1.89918
3115.299 1.76918 1.68918 1.64918 1.52918 1.43918 1.36918 1.40918 1.44918 1.43918 1.37918
3134.589 1.20918 1.18918 1.13918 0.98708 0.96798 1.01918 0.87488 0.72718 0.71558 0.74318
3153.879 0.73418 0.68768 0.64868 0.60618 0.59148 0.55698 0.59618 0.69148 0.71508 0.72528
3173.169 0.65558 0.61068 0.63068 0.67198 0.75948 0.70208 0.71568 0.73388 0.70648 0.67068
3192.458 0.70498 0.75068 0.81768 0.96108 1.00378 0.96848 0.77308 0.74928 0.85918 0.80858
3211.748 0.72628 0.64738 0.67278 0.63368 0.55158 0.51698 0.37528 0.38628 0.39448 0.35158
3231.038 0.32128 0.35668 0.41718 0.29288 0.26318 0.32968 0.40848 0.37858 0.28478 0.21208
3250.328 0.20028 0.16348 0.18258 0.38558 0.45048 0.26228 0.19418 0.32348 0.31098 0.25238
3269.617 0.28798 0.26908 0.20168 0.21728 0.26048 0.30368 0.20098 0.04114 0.15008 0.27528
3288.907 0.25258 0.35558 0.39918 0.32048 0.34858 0.31278 0.28838 0.39148 0.31758 0.37328
3308.197 0.56108 0.54998 0.48348 0.44418 0.47478 0.50538 0.46188 0.47118 0.56758 0.56898
3327.487 0.53678 0.58588 0.60708 0.63388 0.81098 0.81008 0.86468 0.92618 0.81198 0.75188
3346.777 0.66898 0.69738 0.79628 0.79998 0.79638 0.82008 0.77608 0.70048 0.70148 0.71428
3366.066 0.62738 0.59628 0.66348 0.67808 0.69328 0.69458 0.66678 0.63508 0.69428 0.72378
3385.356 0.69758 0.59818 0.49168 0.60578 0.67228 0.60238 0.59368 0.58628 0.44038 0.40578
3404.646 0.45028 0.50898 0.57758 0.59878 0.51718 0.47338 0.50028 0.53598 0.50798 0.43728
3423.936 0.44688 0.40728 0.42408 0.50528 0.50258 0.53868 0.51738 0.51078 0.55858 0.49918
3443.225 0.47008 0.50918 0.46698 0.36928 0.42958 0.49868 0.48838 0.46478 0.45058 0.47908
3462.515 0.44498 0.40528 0.35228 0.34638 0.39968 0.49058 0.59558 0.58218 0.54288 0.57738
3481.805 0.57418 0.30418 0.21058 0.34688 0.38068 0.45468 0.52538 0.50268 0.47488 0.44808
3501.095 0.37778 0.35428 0.25848 0.29388 0.51048 0.48428 0.33398 0.35628 0.44058 0.41948
3520.385 0.45478 0.43008 0.25628 0.15248 0.28518 0.32678 0.22238 0.20938 0.24868 0.32968
3539.674 0.30608 0.21038 0.12008 0.19008 0.32618 0.40918 0.46798 0.43388 0.43738 0.44258
3558.964 0.38608 0.41428 0.36538 0.34218 0.40508 0.46368 0.49438 0.60098 0.72138 0.72628
3578.254 0.68238 0.57158 0.65558 0.69188 0.60648 0.63908 0.63118 0.73108 0.92498 1.06918
3597.544 1.04918 1.06918 1.21918 1.21918 1.15918 1.19918 1.21918 1.23918 1.47918 1.76918
3616.833 1.91918 2.17918 2.54918 2.95918 3.54918 4.36918 5.36918 6.90918 9.05918 11.8692
3636.123 15.7592 20.8392 27.7292 37.2092 49.0392 61.5892 71.7092 75.3392 70.7292 60.9992
3655.413 47.3292 31.3392 19.1892 12.4592 8.76918 6.48918 4.99918 3.84918 3.00918 2.45918
3674.703 2.11918 1.94918 1.78918 1.66918 1.45918 1.26918 1.19918 1.12918 1.00708 0.96158
3693.993 1.00918 0.96548 0.84008 0.73798 0.81658 0.88168 0.78668 0.76038 0.67338 0.46988
3713.282 0.46968 0.51678 0.45458 0.53548 0.55518 0.40608 0.44808 0.52888 0.44178 0.49958
3732.572 0.45638 0.30128 0.27268 0.37798 0.53988 0.51038 0.30288 0.19348 0.28168 0.21408
3751.862 0.24948 0.45008 0.43498 0.41888 0.38488 0.40008 0.37978 0.27208 0.32338 0.34258
3771.152 0.40748 0.48848 0.45858 0.46518 0.43208 0.33588 0.31708 0.45798 0.48008 0.46478
3790.441 0.40248 0.38178 0.49698 0.36408 0.25818 0.26588 0.20648 0.19028 0.29478 0.44758
3809.731 0.49768 0.46798 0.41378 0.38778 0.45028 0.55058 0.48858 0.27948 0.35638 0.38348
3829.021 0.27278 0.34898 0.35898 0.35018 0.34628 0.40788 0.51428 0.50148 0.42638 0.47798
3848.311 0.55868 0.44898 0.28768 0.28708 0.36828 0.42788 0.51888 0.49068 0.34098 0.36888
3867.601 0.45968 0.42048 0.51158 0.52808 0.38848 0.45158 0.73738 0.76258 0.58068 0.56708
3886.890 0.63098 0.70018 0.60228 0.51998 0.46018 0.48308 0.64258 0.56598 0.41138 0.51808
3906.180 0.57778 0.51078 0.54778 0.48498 0.44328 0.38968 0.41918 0.53368 0.47258 0.49338
3925.470 0.63588 0.66338 0.55398 0.48758 0.60278 0.59638 0.52088 0.61858 0.56538 0.52168
3944.760 0.53068 0.50558 0.45958 0.41278 0.49378 0.45238 0.53028 0.68188 0.58348 0.55078
3964.049 0.49278 0.46868 0.50008 0.50868 0.58998 0.49108 0.51208 0.52878 0.34218 0.26768
3983.339 0.26298 0.30228 0.16748 0 0.07493 0.27698 0.39298 0.29298 0.09834 0.08156
##END=
