##TITLE=2-Fluoromesitylene
##JCAMP-DX=4.24
##DATA TYPE=INFRARED SPECTRUM
##ORIGIN=EPA-IR VAPOR PHASE LIBRARY
##OWNER=SRD/NIST
Collection (C) 2018 copyright by the U.S. Secretary of Commerce
on behalf of the United States of America. All rights reserved.
##CAS REGISTRY NO=392-69-8
##MOLFORM=C 9 H 11 F
##$NIST SOURCE=MSDC-IR
##STATE=gas
##XUNITS=1/CM
##YUNITS=ABSORBANCE
##XFACTOR=1.
##YFACTOR=0.001
##DELTAX=1.92898
##FIRSTX=549.8
##LASTX=4000.7
##FIRSTY=0.9122
##MAXX=4000.7
##MINX=549.759
##MAXY=0.071136
##MINY=0
##NPOINTS=1790
##XYDATA=(X++(Y..Y))
549.759 0.9122 1.0653 1.1211 1.1511 1.516 1.836 2.206 2.906 2.596 2.016
569.049 2.146 2.096 1.786 1.526 1.656 1.606 1.4557 1.3536 1.1147 1.0264
588.339 1.1448 0.9358 0.57657 0.7115 0.7255 0.56971 0.51153 0.4117 0.221 0.267
607.628 0.321 0.108 0.19 0.307 0.283 0.34 0.321 0.38 0.4454 0.369
626.918 0.332 0.55468 0.489833 0.258 0.234 0.271 0.278 0.307 0.56646 0.4194
646.208 0.106 0.163 0.246 0.116 0.253 0.301 0 0.08 0.316 0.37
665.498 0.346 0.449 0.6498 0.6231 0.4115 0.485406 0.6364 0.4743 0.4228 0.383
684.787 0.4384 0.6601 0.8066 0.9391 0.9581 1.1926 1.766 2.176 2.426 2.956
704.077 3.616 3.976 4.266 4.676 5.696 7.966 9.616 8.136 5.686 4.566
723.367 4.476 4.786 4.746 4.656 4.746 5.256 6.326 7.676 9.686 12.276
742.657 14.956 17.136 18.096 18.356 18.946 19.146 17.926 17.086 16.466 14.436
761.947 11.186 7.926 5.456 3.976 3.086 2.316 1.826 1.546 1.3952 1.3088
781.236 1.1165 0.9137 0.8674 0.938 0.9976 0.8216 0.7943 0.8677 0.821 0.7852
800.526 0.6608 0.7679 0.9863 0.9515 0.8385 0.8056 0.8293 0.7155 0.7359 0.9002
819.816 1.0574 1.4056 1.796 2.136 2.456 3.396 4.736 6.046 7.826 9.756
839.106 11.496 12.826 14.176 16.156 19.616 25.326 30.766 27.646 18.826 14.676
858.395 13.796 13.046 11.976 10.366 8.426 6.556 4.716 3.466 2.956 2.276
877.685 1.886 1.626 1.2585 1.1357 1.135 1.2344 1.4154 1.3948 1.0089 0.7457
896.975 1.0067 1.1908 1.0634 1.2191 1.4324 1.2657 1.2299 1.4329 1.546 1.796
916.265 1.856 2.006 2.116 2.276 2.526 2.426 2.446 2.696 2.866 3.046
935.555 3.236 3.286 3.496 3.586 3.596 3.476 3.196 3.036 2.906 2.816
954.844 2.666 2.416 2.216 2.026 1.856 1.716 1.686 1.636 1.616 1.546
974.134 1.566 1.776 1.726 1.856 2.106 2.336 2.616 2.826 2.926 3.116
993.424 3.486 3.716 3.956 4.156 4.416 4.916 5.166 5.236 5.216 5.006
1012.714 5.176 5.066 4.836 4.986 4.446 4.046 3.946 3.786 3.486 3.146
1032.003 3.456 3.446 3.236 2.956 2.706 2.896 2.986 2.726 2.746 2.886
1051.293 3.086 3.016 2.636 2.676 2.716 2.776 2.616 2.446 2.426 2.136
1070.583 2.086 2.026 1.736 1.726 1.896 1.766 1.626 1.616 1.324 1.3225
1089.873 1.486 1.2862 1.526 1.3357 0.8343 1.178 1.636 1.816 1.826 1.976
1109.163 2.286 2.716 3.456 3.816 3.576 4.016 4.956 5.606 6.376 7.326
1128.452 8.476 10.096 12.376 14.906 17.816 20.576 22.816 25.126 26.896 28.016
1147.742 28.286 28.106 27.076 25.006 22.526 20.056 17.436 13.946 10.556 7.766
1167.032 5.846 4.816 4.196 4.076 4.216 4.706 5.946 7.376 8.846 11.036
1186.322 13.866 16.926 18.946 20.066 21.576 22.996 24.506 25.576 26.786 28.586
1205.611 31.276 35.666 41.186 47.176 51.856 54.826 56.536 58.696 59.766 57.746
1224.901 55.936 53.446 47.086 37.266 26.946 18.546 12.616 9.026 6.856 5.586
1244.191 4.866 4.496 4.346 4.356 4.396 4.056 3.816 4.196 4.326 3.876
1263.481 3.796 3.846 3.736 3.796 3.916 4.036 4.126 4.086 4.036 3.896
1282.771 3.896 4.016 3.986 4.066 4.166 4.296 4.626 5.136 5.846 6.586
1302.060 7.396 8.146 8.656 9.026 9.266 9.286 9.086 8.756 8.256 7.626
1321.350 6.936 6.046 5.106 4.366 3.896 3.636 3.496 3.376 3.296 3.276
1340.640 3.256 3.256 3.296 3.336 3.286 3.256 3.246 3.236 3.246 3.366
1359.930 3.486 3.466 3.566 3.746 3.956 4.256 4.566 4.886 5.236 5.586
1379.219 5.876 6.066 6.156 6.246 6.396 6.346 6.016 5.696 5.426 5.176
1398.509 5.026 5.036 5.236 5.436 5.676 5.946 6.236 6.576 6.946 7.496
1417.799 8.066 8.596 9.126 9.526 9.926 10.326 10.856 11.526 12.236 12.906
1437.089 13.486 14.196 14.986 15.736 16.526 17.276 17.916 18.526 19.286 20.096
1456.378 21.056 22.386 24.046 26.286 29.076 32.506 36.676 41.376 46.496 52.086
1475.668 57.556 62.486 66.476 69.336 70.926 71.136 69.916 67.396 63.756 59.226
1494.958 53.836 47.866 41.936 36.366 31.446 27.466 24.426 22.186 20.606 19.476
1514.248 18.566 17.776 17.256 16.766 16.296 15.946 15.446 14.956 14.506 14.096
1533.538 13.686 13.306 12.886 12.276 11.676 11.246 10.816 10.306 9.846 9.416
1552.827 9.046 8.636 8.326 8.106 7.836 7.516 7.216 7.026 6.766 6.486
1572.117 6.216 6.036 5.916 5.726 5.506 5.306 5.226 5.106 4.856 4.666
1591.407 4.526 4.366 4.336 4.346 4.296 4.206 4.116 4.126 4.086 4.016
1610.697 3.966 3.936 3.856 3.656 3.496 3.286 2.976 2.796 2.566 2.286
1629.986 2.156 2.006 1.796 1.656 1.616 1.586 1.506 1.4426 1.449 1.4135
1649.276 1.3831 1.3747 1.3238 1.2724 1.1956 1.167 1.1768 1.1127 1.0616 1.2184
1668.566 1.2674 1.1693 1.1965 1.1586 1.0889 1.0852 1.1036 1.1213 1.0977 1.1378
1687.856 1.2265 1.2683 1.3661 1.496 1.526 1.596 1.706 1.866 2.116 2.346
1707.146 2.626 2.956 3.306 3.676 4.006 4.176 4.266 4.286 4.196 4.086
1726.435 3.936 3.776 3.616 3.306 2.966 2.666 2.526 2.416 2.206 2.076
1745.725 2.036 2.026 1.906 1.816 1.756 1.646 1.566 1.4338 1.3174 1.263
1765.015 1.1875 1.108 1.0189 0.9299 0.8811 0.8136 0.8069 0.806 0.8109 0.808
1784.305 0.7701 0.7605 0.7418 0.7618 0.7845 0.7516 0.7543 0.7421 0.7684 0.8179
1803.594 0.7765 0.7221 0.6584 0.6244 0.6422 0.6551 0.6743 0.6753 0.678 0.6982
1822.884 0.637 0.54798 0.5983 0.7028 0.6935 0.6568 0.6596 0.6815 0.7052 0.7606
1842.174 0.7394 0.6817 0.7096 0.6959 0.7119 0.7232 0.65 0.6594 0.7086 0.7389
1861.464 0.786 0.7623 0.6872 0.7914 0.8967 0.8907 0.9295 0.985 1.0202 1.0459
1880.754 1.1073 1.1609 1.1894 1.2487 1.3129 1.3986 1.4712 1.506 1.526 1.4461
1900.043 1.4069 1.4381 1.3971 1.3383 1.3019 1.2285 1.1715 1.1167 1.0192 1.0106
1919.333 1.026 0.9788 0.9216 0.852 0.8721 0.9368 0.9096 0.9228 0.9874 0.9701
1938.623 0.9482 0.9943 1.0648 1.0768 1.0501 1.0556 1.0989 1.0621 1.0593 1.1208
1957.913 1.1058 1.1059 1.095 1.0879 1.1091 1.0774 1.0732 1.0338 0.9518 0.951
1977.202 0.9957 0.9581 0.8999 0.8429 0.7324 0.6392 0.57837 0.48487 0.49785 0.57351
1996.492 0.51487 0.49642 0.54048 0.53398 0.50926 0.56211 0.55783 0.47632 0.4091 0.377
2015.782 0.4013 0.490014 0.49619 0.43 0.3994 0.428 0.51554 0.52524 0.491476 0.4991
2035.072 0.49795 0.52057 0.6123 0.6272 0.6309 0.6181 0.5966 0.6047 0.6783 0.749
2054.362 0.7152 0.7773 0.8159 0.7269 0.7284 0.7522 0.7154 0.6518 0.6122 0.6055
2073.651 0.56125 0.5945 0.6168 0.5886 0.54116 0.5349 0.53463 0.485622 0.494407 0.52935
2092.941 0.51189 0.50116 0.53814 0.51636 0.51759 0.57361 0.56295 0.52872 0.5863 0.5877
2112.231 0.50425 0.49605 0.50341 0.5105 0.51299 0.57459 0.52517 0.486407 0.58144 0.5897
2131.521 0.5893 0.6394 0.6834 0.6082 0.54984 0.551 0.5814 0.5905 0.55685 0.51032
2150.810 0.4738 0.4647 0.457 0.56577 0.6795 0.6575 0.6377 0.6723 0.6541 0.6342
2170.100 0.6909 0.6715 0.6591 0.7134 0.7125 0.7027 0.7082 0.7802 0.7765 0.7018
2189.390 0.6742 0.6922 0.688 0.6714 0.704 0.7211 0.7748 0.7694 0.6924 0.6479
2208.680 0.662 0.6538 0.6568 0.7578 0.8084 0.8437 0.8641 0.8082 0.8132 0.9174
2227.970 0.9486 0.8873 0.935 0.9583 0.7981 0.746 0.785 0.7271 0.6585 0.6667
2247.259 0.6188 0.55467 0.5815 0.6112 0.6124 0.55256 0.56806 0.58 0.5878 0.58195
2266.549 0.56968 0.6131 0.56546 0.51649 0.51439 0.52502 0.57705 0.6131 0.56108 0.4466
2285.839 0.4289 0.50392 0.50706 0.52107 0.57557 0.6146 0.681 0.7104 0.7128 0.7003
2305.129 0.6265 0.6387 0.7365 0.7684 0.7921 0.8203 0.8493 0.923 0.9141 0.9501
2324.418 0.9489 0.8637 0.8938 0.97 0.9755 0.9107 0.9378 0.9578 0.952 0.971
2343.708 0.9053 0.9109 0.9479 0.8779 0.8968 0.9664 0.9819 1.0167 1.0238 0.9942
2362.998 1.0644 1.1215 1.0511 1.017 1.0111 0.964 0.902 0.8892 0.9582 1.0012
2382.288 0.9892 0.9616 0.9333 0.9051 0.9693 1.0684 1.0572 1.0543 1.0575 1.0975
2401.578 1.175 1.1757 1.1292 1.1155 1.2097 1.2226 1.1594 1.1166 1.1297 1.2008
2420.867 1.1323 1.0968 1.1434 1.15 1.1683 1.1049 1.0548 1.1309 1.0826 1.0391
2440.157 1.1135 1.0669 1.0324 1.0511 1.0062 0.9747 0.9788 1.01 0.9432 0.8642
2459.447 0.8838 0.8452 0.8274 0.8227 0.8228 0.818 0.7635 0.7301 0.8258 0.9228
2478.737 1.0218 1.009 0.9268 0.9851 0.974 0.864 0.8029 0.8906 0.9388 0.8246
2498.026 0.7834 0.8905 0.9305 0.913 0.903 0.8928 0.8018 0.7146 0.8662 0.9236
2517.316 0.8114 0.8002 0.8048 0.7984 0.8694 0.8756 0.816 0.8614 0.9818 1.0491
2536.606 0.9783 0.9253 0.9552 0.8615 0.7885 0.8346 0.8649 0.8325 0.7561 0.8703
2555.896 0.9393 0.9077 0.9387 0.9072 0.8428 0.8572 0.8664 0.8429 0.7684 0.7996
2575.186 0.855 0.8013 0.8087 0.8028 0.7822 0.7634 0.8297 0.8024 0.7186 0.6904
2594.475 0.6356 0.5978 0.58361 0.6411 0.6927 0.7677 0.8326 0.7699 0.58079 0.58335
2613.765 0.7005 0.6899 0.7199 0.7422 0.7221 0.6536 0.6287 0.7028 0.729 0.7441
2633.055 0.7628 0.7589 0.6755 0.5987 0.6587 0.7238 0.726 0.736 0.7503 0.7102
2652.345 0.697 0.7065 0.6836 0.6398 0.7184 0.7602 0.7852 0.8434 0.7927 0.7987
2671.634 0.7579 0.7017 0.7054 0.8103 0.9495 0.9413 0.9485 0.941 0.9626 1.0607
2690.924 1.0451 1.0154 1.0335 1.0712 0.9904 0.9303 1.0213 1.0339 1.1592 1.2445
2710.214 1.1498 1.0794 1.0332 1.1138 1.166 1.2246 1.3899 1.4526 1.4539 1.546
2729.504 1.646 1.796 2.026 2.266 2.476 2.536 2.716 2.966 3.166 3.266
2748.794 3.166 3.086 2.986 2.816 2.576 2.216 1.946 1.846 1.706 1.506
2768.083 1.4103 1.4138 1.4158 1.3462 1.3487 1.277 1.2825 1.4066 1.4308 1.3727
2787.373 1.427 1.4721 1.486 1.636 1.676 1.786 1.906 1.846 1.936 2.116
2806.663 2.216 2.296 2.416 2.566 2.626 2.576 2.656 2.926 3.136 3.196
2825.953 3.316 3.556 3.746 3.836 4.126 4.496 4.826 5.156 5.586 6.106
2845.242 6.606 7.186 7.946 8.906 9.916 11.066 12.336 13.846 15.426 16.936
2864.532 18.556 20.216 21.676 22.866 23.776 24.456 24.856 24.816 24.646 24.286
2883.822 23.556 22.786 21.956 21.316 20.746 20.096 19.746 19.506 19.586 19.986
2903.112 20.436 20.886 21.626 22.806 24.066 25.726 27.956 30.536 33.616 37.006
2922.401 40.706 44.576 48.406 51.846 54.666 56.706 57.496 57.436 56.506 54.576
2941.691 51.966 48.836 45.246 41.436 37.556 33.846 30.716 28.056 26.016 24.706
2960.981 23.916 23.416 22.936 22.456 21.926 21.376 21.066 21.126 21.366 21.636
2980.271 21.866 22.126 22.156 22.066 22.056 21.886 21.636 21.396 21.086 20.896
2999.561 20.916 21.046 21.336 22.016 22.866 23.756 24.756 25.696 26.616 27.256
3018.850 27.666 28.036 28.156 28.016 27.626 27.286 26.766 25.936 25.166 24.406
3038.140 23.746 23.096 22.196 21.186 20.276 19.296 18.166 17.036 15.956 14.846
3057.430 13.826 12.846 11.996 11.156 10.266 9.446 8.676 7.956 7.356 6.886
3076.720 6.256 5.696 5.356 5.066 4.676 4.266 3.966 3.706 3.546 3.416
3096.009 3.336 3.156 2.996 2.796 2.626 2.706 2.676 2.616 2.646 2.546
3115.299 2.466 2.416 2.266 2.256 2.136 2.066 1.936 1.756 1.786 1.666
3134.589 1.596 1.636 1.449 1.324 1.3461 1.2319 1.2295 1.1269 1.0344 1.2314
3153.879 1.2273 1.048 1.0323 0.9903 0.8731 0.8976 0.9346 0.9606 0.8679 0.7346
3173.169 0.7838 0.9235 0.9489 0.7872 0.6735 0.8399 1.0005 0.946 0.9016 0.824
3192.458 0.6988 0.50649 0.453 0.6339 0.7198 0.593 0.6527 0.739 0.56118 0.57382
3211.748 0.5396 0.3898 0.58006 0.7037 0.58589 0.7723 0.785 0.6468 0.7276 0.7693
3231.038 0.7314 0.6098 0.58127 0.6326 0.6855 0.6472 0.57955 0.5082 0.6799 0.7269
3250.328 0.6058 0.7074 0.7085 0.58207 0.6539 0.6241 0.5486 0.6686 0.7183 0.724
3269.617 0.7129 0.7752 0.6807 0.51631 0.50702 0.6652 0.6555 0.491777 0.52958 0.5895
3288.907 0.6397 0.7354 0.6571 0.49358 0.5984 0.7854 0.634 0.54363 0.56558 0.56045
3308.197 0.50848 0.486331 0.52579 0.3881 0.326 0.50109 0.669 0.7108 0.6346 0.50882
3327.487 0.50432 0.5878 0.6968 0.6816 0.6249 0.4735 0.52536 0.6206 0.485111 0.4666
3346.777 0.53396 0.6211 0.6238 0.4727 0.389 0.51411 0.4631 0.4372 0.57967 0.51288
3366.066 0.371 0.384 0.51541 0.55748 0.486341 0.490083 0.5915 0.6218 0.57468 0.4571
3385.356 0.47691 0.4502 0.4264 0.4445 0.3955 0.4406 0.4629 0.49885 0.47866 0.6746
3404.646 0.679 0.57903 0.58136 0.4485 0.47 0.445 0.50442 0.54091 0.363 0.299
3423.936 0.4016 0.6062 0.7117 0.53143 0.353 0.4511 0.6057 0.8014 0.7626 0.6139
3443.225 0.57209 0.343 0.177 0.326 0.491634 0.4217 0.4723 0.56117 0.5703 0.48635
3462.515 0.4181 0.48616 0.55085 0.5731 0.53173 0.5287 0.52281 0.52052 0.52081 0.6334
3481.805 0.56614 0.56153 0.6939 0.55491 0.4037 0.319 0.366 0.4157 0.457 0.333
3501.095 0.35 0.48363 0.372 0.318 0.4644 0.6298 0.55485 0.48064 0.51168 0.53033
3520.385 0.3881 0.54898 0.6579 0.4504 0.3978 0.4226 0.52136 0.6139 0.55325 0.4737
3539.674 0.4467 0.4508 0.6207 0.6768 0.6221 0.6567 0.5994 0.55331 0.55499 0.54343
3558.964 0.55747 0.57671 0.6232 0.55728 0.6102 0.6119 0.4734 0.486684 0.58384 0.6772
3578.254 0.56904 0.4294 0.54957 0.51547 0.288 0.231 0.324 0.3908 0.51104 0.56761
3597.544 0.50394 0.5959 0.5458 0.3952 0.364 0.372 0.255 0.258 0.4213 0.49965
3616.833 0.51548 0.50056 0.4099 0.301 0.367 0.53828 0.56821 0.4247 0.321 0.418
3636.123 0.51371 0.313 0.224 0.326 0.376 0.4485 0.50085 0.4726 0.402 0.29
3655.413 0.326 0.4011 0.323 0.332 0.54286 0.57639 0.4683 0.4086 0.55359 0.5705
3674.703 0.443 0.4108 0.214 0.26 0.4143 0.4265 0.51367 0.53323 0.358 0.314
3693.993 0.486919 0.493703 0.356 0.334 0.348 0.471 0.53469 0.359 0.296 0.4316
3713.282 0.6025 0.669 0.58235 0.4608 0.33 0.342 0.4108 0.4595 0.4691 0.55607
3732.572 0.6526 0.57452 0.56596 0.421 0.3 0.327 0.326 0.379 0.53877 0.54881
3751.862 0.296 0.283 0.49941 0.53443 0.4743 0.367 0.4438 0.6475 0.4329 0.4114
3771.152 0.57047 0.4096 0.338 0.391 0.4609 0.53967 0.54604 0.3925 0.339 0.4262
3790.441 0.363 0.341 0.351 0.4703 0.58562 0.49926 0.50182 0.4599 0.51544 0.56327
3809.731 0.51862 0.47875 0.4589 0.56586 0.490546 0.485101 0.6531 0.7265 0.51523 0.333
3829.021 0.4764 0.4674 0.3948 0.316 0.3898 0.646 0.6329 0.4275 0.3998 0.4254
3848.311 0.4289 0.56209 0.53991 0.4594 0.54436 0.5878 0.54695 0.6196 0.51215 0.4122
3867.601 0.4246 0.6162 0.7837 0.51783 0.53834 0.7376 0.6059 0.4397 0.56909 0.6737
3886.890 0.51514 0.4647 0.57132 0.490497 0.51867 0.7396 0.7532 0.6648 0.6407 0.6224
3906.180 0.5693 0.5847 0.696 0.7405 0.8553 1.0133 0.8408 0.771 0.8587 0.8466
3925.470 0.8301 0.7653 0.8993 0.858 0.7337 0.8371 0.8335 0.831 0.8875 0.9095
3944.760 0.8848 0.9859 0.9659 0.9163 1.0214 1.0285 1.0646 1.199 1.1715 1.106
3964.049 1.1188 1.0628 1.0338 1.0675 1.0731 1.0076 1.059 0.9895 0.8974 0.8298
3983.339 0.9185 0.9361 0.849 1.0952 1.1335 1.073 0.9081 0.6023 0.6858 0.686
##END=
