##TITLE=2,6-Dichloro-4-fluorophenol
##JCAMP-DX=4.24
##DATA TYPE=INFRARED SPECTRUM
##ORIGIN=EPA-IR VAPOR PHASE LIBRARY
##OWNER=SRD/NIST
Collection (C) 2018 copyright by the U.S. Secretary of Commerce
on behalf of the United States of America. All rights reserved.
##CAS REGISTRY NO=392-71-2
##MOLFORM=C 6 H 3 Cl 2 F O
##$NIST SOURCE=MSDC-IR
##STATE=gas
##XUNITS=1/CM
##YUNITS=ABSORBANCE
##XFACTOR=1.
##YFACTOR=0.001
##DELTAX=1.92898
##FIRSTX=549.8
##LASTX=4000.7
##FIRSTY=5.305
##MAXX=4000.7
##MINX=549.759
##MAXY=0.646905
##MINY=0
##NPOINTS=1790
##XYDATA=(X++(Y..Y))
549.759 5.305 5.395 5.615 6.185 6.135 5.605 6.025 6.705 7.035 8.455
569.049 10.235 12.315 14.385 17.555 21.555 26.205 33.675 42.645 44.745 38.735
588.339 34.145 33.205 31.755 28.585 23.545 17.655 13.125 9.835 7.935 6.805
607.628 6.085 5.985 5.915 6.065 5.905 5.735 5.825 6.075 6.265 5.735
626.918 5.355 4.985 4.745 5.035 5.355 5.595 5.915 6.415 6.865 7.395
646.208 7.855 7.935 7.335 6.855 6.865 6.745 6.325 5.955 5.315 4.225
665.498 3.695 3.595 3.855 3.725 3.575 3.735 3.655 3.605 3.955 4.285
684.787 4.285 4.635 5.575 6.615 7.675 9.195 11.205 13.325 15.285 17.065
704.077 19.555 22.845 26.215 27.445 22.335 16.785 15.685 15.445 14.545 13.555
723.367 12.995 12.485 12.165 12.025 12.075 11.805 11.045 10.655 10.125 9.195
742.657 9.075 9.235 8.945 9.325 10.395 11.185 11.745 12.605 13.625 14.065
761.947 14.445 15.595 17.525 20.515 25.515 34.315 48.545 70.515 101.505 140.005
781.236 178.725 205.865 212.355 209.235 225.565 250.055 252.135 235.555 214.235 199.465
800.526 192.665 189.845 188.185 184.255 176.465 163.655 144.245 118.495 90.945 68.755
819.816 56.275 51.915 50.475 49.705 49.075 47.875 46.585 44.865 43.205 42.535
839.106 43.405 47.055 55.375 67.455 82.375 93.845 95.965 97.855 106.415 119.695
858.395 133.285 122.305 86.895 65.325 57.545 49.255 39.655 29.285 20.565 14.935
877.685 11.275 8.725 7.405 6.875 6.445 6.145 5.885 5.745 5.795 5.675
896.975 5.345 5.295 5.605 5.625 5.575 5.945 6.345 6.925 7.745 8.255
916.265 8.655 8.935 8.935 9.385 10.555 12.205 14.855 19.325 26.765 37.285
935.555 51.175 68.475 87.465 105.785 120.635 131.495 140.345 147.785 150.465 144.235
954.844 129.655 110.705 92.425 76.445 60.905 46.805 35.765 27.225 21.185 17.155
974.134 14.455 12.145 10.295 8.935 7.505 6.265 5.575 5.145 4.645 4.195
993.424 4.075 3.885 3.555 3.845 4.155 4.035 4.095 3.905 3.735 3.995
1012.714 3.665 3.795 4.235 3.815 3.855 4.245 4.615 5.095 5.095 5.135
1032.003 5.375 5.615 6.135 7.305 8.085 8.485 8.935 9.505 10.845 13.085
1051.293 16.595 21.385 27.015 32.865 38.155 41.575 42.555 43.135 44.065 43.475
1070.583 40.035 33.885 26.745 21.165 17.385 14.975 14.345 14.355 14.625 15.605
1089.873 16.025 15.985 15.895 15.075 14.745 14.235 13.145 11.095 8.645 7.185
1109.163 6.995 7.325 6.845 6.665 7.115 7.245 6.725 7.345 7.535 7.175
1128.452 7.875 9.325 11.295 14.205 18.875 25.615 37.185 54.865 78.145 104.655
1147.742 132.285 155.695 167.355 170.205 171.665 171.435 164.185 145.325 116.555 86.785
1167.032 63.175 46.865 37.165 32.155 30.205 30.765 33.835 39.895 49.895 64.835
1186.322 84.875 110.495 142.135 176.805 211.795 243.075 265.955 279.405 284.195 285.135
1205.611 281.785 270.255 248.985 223.315 202.765 190.815 181.885 171.095 155.745 139.025
1224.901 126.635 117.465 106.655 91.535 73.765 57.035 43.765 34.325 27.765 22.625
1244.191 18.645 16.255 15.115 14.875 15.055 15.275 15.685 16.245 16.695 17.105
1263.481 17.225 17.705 18.475 18.675 19.025 19.465 20.215 21.285 22.545 24.495
1282.771 26.725 28.995 31.325 33.315 34.815 35.605 35.455 34.845 34.085 33.505
1302.060 33.375 34.065 36.505 41.565 50.535 64.135 82.135 103.365 125.605 145.725
1321.350 160.675 169.035 171.445 169.095 161.955 148.225 127.395 102.565 78.165 57.455
1340.640 41.885 31.495 25.405 22.455 21.475 21.625 22.225 22.645 22.755 22.445
1359.930 21.965 21.395 20.205 18.415 16.335 14.415 12.815 11.655 11.095 11.005
1379.219 11.355 12.145 13.375 14.965 16.805 18.875 21.535 25.085 29.765 35.965
1398.509 44.295 55.545 70.405 89.335 111.275 133.875 153.565 166.755 171.585 169.395
1417.799 163.795 156.575 144.625 124.535 99.805 78.255 64.605 59.365 59.605 61.955
1437.089 64.085 64.855 64.375 63.455 61.895 58.355 53.455 49.105 46.825 47.955
1456.378 53.495 64.385 81.285 105.605 138.955 183.525 240.445 310.685 392.255 479.435
1475.668 557.595 616.035 644.935 646.905 632.815 608.405 563.405 487.075 387.665 288.325
1494.958 205.425 144.215 102.965 74.835 54.995 40.695 30.315 23.205 18.755 15.765
1514.248 13.655 12.265 11.225 10.465 9.795 9.365 9.245 9.185 9.205 9.345
1533.538 9.415 9.345 9.305 9.365 9.325 9.075 8.905 8.825 8.765 8.795
1552.827 9.035 9.855 11.105 12.655 14.725 17.425 20.815 24.915 29.795 35.665
1572.117 42.605 50.945 61.735 74.365 88.545 104.775 121.945 139.515 156.605 172.025
1591.407 183.955 190.765 190.865 183.415 168.935 149.685 129.385 110.365 94.065 80.535
1610.697 68.905 58.825 50.265 42.715 36.125 30.425 25.385 20.915 17.195 14.385
1629.986 12.355 11.255 10.725 10.305 9.905 9.365 8.735 8.205 7.585 6.995
1649.276 6.515 5.975 5.505 5.135 4.825 4.775 4.905 5.085 5.585 6.085
1668.566 6.535 7.135 7.715 8.325 9.055 9.935 10.715 11.355 12.045 12.705
1687.856 13.215 13.595 13.865 13.975 14.015 13.995 13.875 13.475 13.025 12.565
1707.146 12.055 11.585 11.065 10.325 9.415 8.485 7.545 6.775 6.035 5.185
1726.435 4.365 3.665 3.275 3.105 2.865 2.705 2.655 2.715 2.815 2.795
1745.725 2.735 2.745 2.785 2.715 2.615 2.465 2.375 2.265 2.155 2.075
1765.015 1.885 1.785 1.685 1.625 1.655 1.595 1.595 1.565 1.595 1.585
1784.305 1.555 1.655 1.625 1.625 1.685 1.675 1.575 1.495 1.465 1.385
1803.594 1.3475 1.3025 1.264 1.1047 0.9807 0.8988 0.9018 0.9663 0.9268 0.9338
1822.884 1.0218 1.0956 1.0712 1.0033 0.9913 1.1411 1.23 1.2794 1.395 1.505
1842.174 1.665 1.925 2.145 2.165 2.205 2.365 2.495 2.505 2.475 2.445
1861.464 2.315 2.205 2.155 2.075 1.995 1.925 1.715 1.615 1.565 1.515
1880.754 1.445 1.3229 1.2392 1.2472 1.2798 1.226 1.1677 1.0365 1.0012 1.0508
1900.043 1.0746 1.0734 1.0151 1.0683 1.1585 1.1195 1.0301 1.0557 1.1596 1.1436
1919.333 1.0829 1.0924 1.1334 1.186 1.1113 1.1586 1.2923 1.395 1.515 1.635
1938.623 1.795 1.855 1.935 2.015 2.045 2.125 2.275 2.355 2.435 2.465
1957.913 2.385 2.385 2.325 2.225 2.075 1.905 1.845 1.745 1.655 1.565
1977.202 1.465 1.365 1.415 1.495 1.475 1.465 1.535 1.545 1.545 1.725
1996.492 1.865 1.925 1.995 2.125 2.265 2.385 2.385 2.425 2.585 2.485
2015.782 2.395 2.295 2.125 1.995 1.875 1.775 1.525 1.435 1.535 1.535
2035.072 1.395 1.2993 1.303 1.3312 1.295 1.3047 1.3458 1.375 1.405 1.525
2054.362 1.625 1.745 1.925 2.155 2.475 2.765 3.115 3.515 3.805 4.085
2073.651 4.385 4.645 4.715 4.695 4.695 4.455 4.115 3.785 3.285 2.665
2092.941 2.165 1.795 1.415 1.0793 0.9235 0.9238 0.9224 0.8769 0.812 0.8699
2112.231 0.9267 0.8346 0.8108 0.8679 0.8186 0.7905 0.85 0.8923 1.0063 1.0754
2131.521 1.0504 1.1041 1.2921 1.425 1.505 1.605 1.735 1.925 2.155 2.285
2150.810 2.305 2.265 2.165 2.145 2.215 2.055 1.815 1.675 1.495 1.375
2170.100 1.2821 1.2188 1.0984 0.971 0.9105 0.8018 0.7759 0.7882 0.664 0.7254
2189.390 0.711 0.6808 0.8886 0.8792 0.8825 1.0031 1.089 1.172 1.1975 1.2877
2208.680 1.485 1.705 1.845 1.855 1.855 1.895 1.755 1.625 1.585 1.635
2227.970 1.635 1.635 1.735 1.695 1.655 1.695 1.775 1.855 1.865 1.945
2247.259 2.095 2.175 2.295 2.245 2.245 2.395 2.475 2.575 2.665 2.725
2266.549 2.655 2.615 2.605 2.445 2.175 2.025 1.885 1.665 1.505 1.375
2285.839 1.2753 1.3084 1.2658 1.1005 0.9622 0.8003 0.7548 0.7848 0.8217 0.7946
2305.129 0.7794 0.8102 0.8919 0.8543 0.7113 0.6257 0.6923 0.8289 0.8586 0.7843
2324.418 0.6687 0.6544 0.5947 0.6449 0.6998 0.5093 0.5637 0.7274 0.7734 0.9756
2343.708 1.0899 1.0983 1.2347 1.375 1.515 1.605 1.655 1.785 1.965 2.055
2362.998 2.155 2.405 2.485 2.355 2.285 2.275 2.385 2.585 2.555 2.385
2382.288 2.445 2.535 2.435 2.415 2.545 2.435 2.345 2.375 2.355 2.285
2401.578 2.125 2.135 2.265 2.265 2.245 2.295 2.415 2.605 2.785 2.955
2420.867 3.095 3.235 3.375 3.395 3.305 3.195 3.075 2.875 2.675 2.445
2440.157 2.335 2.155 1.995 1.895 1.675 1.615 1.635 1.525 1.395 1.495
2459.447 1.545 1.625 1.875 2.125 2.375 2.425 2.525 2.865 3.265 3.555
2478.737 3.825 4.085 4.205 4.385 4.665 4.835 4.865 4.905 4.875 4.775
2498.026 4.655 4.405 4.205 4.005 3.575 3.195 2.955 2.705 2.495 2.365
2517.316 2.345 2.185 1.895 1.845 1.805 1.755 1.745 1.785 1.825 1.725
2536.606 1.655 1.715 1.795 1.735 1.655 1.675 1.585 1.475 1.485 1.425
2555.896 1.2394 1.1814 1.0867 0.9233 0.8704 0.7326 0.6058 0.6295 0.6107 0.6055
2575.186 0.6615 0.6384 0.5014 0.41165 0.518 0.6773 0.65 0.6525 0.6912 0.7468
2594.475 0.8046 0.7346 0.7676 0.7837 0.7457 0.8236 0.8204 0.7741 0.9191 1.0749
2613.765 0.9748 0.9602 1.1449 1.2531 1.3377 1.415 1.455 1.525 1.595 1.595
2633.055 1.535 1.595 1.825 1.935 1.965 2.075 2.085 1.885 1.805 1.735
2652.345 1.595 1.415 1.3193 1.1425 1.022 1.0282 0.7887 0.6548 0.7353 0.7526
2671.634 0.6605 0.599 0.6995 0.6768 0.5245 0.6503 0.7059 0.7443 0.8403 0.9092
2690.924 0.8525 0.8666 1.1495 1.2026 1.1291 1.1108 1.2308 1.2305 1.1299 1.083
2710.214 1.1241 1.1039 0.9803 0.9588 0.881 0.89 0.9149 0.6993 0.7084 0.8846
2729.504 0.7894 0.726 0.8422 1.0511 1.2173 1.1887 1.1064 1.2463 1.365 1.455
2748.794 1.515 1.485 1.565 1.825 1.985 1.945 1.855 1.945 2.085 2.165
2768.083 2.425 2.525 2.465 2.465 2.485 2.525 2.405 2.215 2.245 2.265
2787.373 2.185 2.205 2.295 2.295 2.155 2.055 1.905 1.755 1.805 1.785
2806.663 1.895 1.795 1.505 1.445 1.465 1.465 1.375 1.2585 1.1383 1.0104
2825.953 1.0193 0.9832 0.8127 0.6772 0.793 0.845 0.7446 0.837 0.7548 0.6317
2845.242 0.601 0.5429 0.43923 0.42821 0.4896 0.5667 0.7189 0.6987 0.5998 0.5918
2864.532 0.6716 0.643 0.5296 0.7188 0.998 1.0265 0.9367 0.9637 1.0533 1.1588
2883.822 1.3222 1.3505 1.415 1.385 1.2909 1.495 1.655 1.505 1.525 1.645
2903.112 1.595 1.775 1.755 1.525 1.405 1.2855 1.2499 1.2988 1.241 1.0537
2922.401 1.0733 1.091 1.0062 0.7916 0.5834 0.6605 0.6722 0.6923 0.7539 0.6512
2941.691 0.5655 0.5748 0.6389 0.6393 0.6266 0.6484 0.5901 0.43618 0.5564 0.7476
2960.981 0.7012 0.7015 0.575 0.5761 0.6785 0.6434 0.5475 0.547 0.6997 0.5822
2980.271 0.5572 0.7639 0.7223 0.6271 0.6823 0.6974 0.6748 0.7047 0.7355 0.614
2999.561 0.205 0.248 0.6596 0.7108 0.7061 0.5789 0.6514 0.748 0.5588 0.6601
3018.850 0.6371 0.4671 0.5339 0.5856 0.42714 0.4832 0.5557 0.5664 0.6645 0.4927
3038.140 0.39716 0.632 0.8426 0.788 0.7363 0.8312 0.9219 0.9428 1.0709 1.1823
3057.430 1.3121 1.555 1.705 1.575 1.495 1.535 1.485 1.475 1.545 1.775
3076.720 1.895 1.715 1.705 2.075 2.465 2.945 3.805 4.735 5.485 6.005
3096.009 6.205 6.135 5.965 5.645 5.175 4.415 3.225 2.065 1.355 1.0943
3115.299 0.8088 0.4954 0.4685 0.39475 0.193 0.3049 0.45201 0.3337 0.2851 0.4709
3134.589 0.44626 0.2851 0.36597 0.207 0.006 0.122 0.107 0.234 0.36725 0.24
3153.879 0.2978 0.40974 0.358471 0.21 0.248 0.5129 0.7734 0.8425 0.6769 0.7224
3173.169 0.8846 1.0894 1.229 1.495 1.505 1.575 1.865 1.875 2.015 2.025
3192.458 1.795 1.515 1.3131 1.331 1.375 1.301 1.395 1.3514 1.097 1.0202
3211.748 1.0782 0.9592 0.8505 1.0279 1.0807 0.8684 0.71 0.772 0.931 0.882
3231.038 0.7486 0.9432 1.1591 1.2786 1.385 1.535 1.545 1.2538 1.3087 1.505
3250.328 1.585 1.725 1.795 1.935 2.075 2.075 2.045 2.105 2.125 2.075
3269.617 1.805 1.455 1.415 1.385 1.395 1.425 1.405 1.2755 1.2346 1.0579
3288.907 0.9159 0.8519 0.72 0.7827 0.7893 0.6071 0.40061 0.3413 0.42581 0.4464
3308.197 0.4574 0.6174 0.6095 0.7378 0.8393 0.7983 0.9849 1.1322 1.2236 1.2797
3327.487 1.365 1.445 1.485 1.425 1.2684 1.022 0.9738 1.1802 1.0306 0.5629
3346.777 0.7035 0.8573 0.7112 0.586 0.4579 0.5422 0.7099 0.6769 0.44187 0.226
3366.066 0.171 0.3313 0.4153 0.38405 0.2732 0.3196 0.37518 0.2563 0.41514 0.6054
3385.356 0.4365 0.4872 0.6859 0.8514 0.8504 0.7379 0.7808 0.7308 0.7249 0.7566
3404.646 0.7389 0.6721 0.6395 0.5828 0.37988 0.37421 0.2689 0.17 0.359561 0.44412
3423.936 0.38734 0.3476 0.363078 0.3282 0.226 0.196 0.363212 0.5133 0.4588 0.211
3443.225 0.081 0.144 0.2792 0.234 0.063 0.093 0.3112 0.43105 0.3323 0.364572
3462.515 0.4171 0.41484 0.4645 0.4858 0.40454 0.3096 0.3898 0.44463 0.2968 0.3008
3481.805 0.37922 0.4889 0.6863 0.7497 0.7674 0.8438 0.8402 0.902 0.8196 0.6987
3501.095 0.6945 0.8104 1.0839 1.0672 0.9968 1.0082 1.0549 1.2632 1.334 1.425
3520.385 1.675 1.615 1.595 1.745 1.655 1.605 1.865 1.995 2.065 2.485
3539.674 3.045 3.435 3.855 4.825 5.935 7.215 8.965 11.545 15.245 20.865
3558.964 29.665 43.125 63.335 91.985 128.965 168.265 201.515 226.735 245.615 257.175
3578.254 259.365 251.835 231.715 199.805 163.495 128.185 96.685 70.705 50.805 36.325
3597.544 25.875 18.705 14.365 11.405 9.115 7.555 6.435 5.675 5.005 4.375
3616.833 4.025 3.825 3.455 3.155 2.765 2.445 2.555 2.375 1.925 1.655
3636.123 1.385 1.2422 1.2715 1.2866 1.1557 1.0383 1.0153 1.0219 0.9926 0.8359
3655.413 0.8046 0.6008 0.5107 0.8376 0.9096 1.0217 1.2096 1.1196 0.9121 0.66
3674.703 0.7158 0.7326 0.605 0.6398 0.7165 0.7984 0.7569 0.6575 0.556 0.546
3693.993 0.6674 0.583 0.4963 0.7051 0.5838 0.38659 0.241 0.193 0.4568 0.5814
3713.282 0.6387 0.6855 0.5442 0.45432 0.6184 0.7461 0.5482 0.37084 0.4651 0.5258
3732.572 0.41662 0.2633 0.34584 0.5108 0.5151 0.524 0.4946 0.3044 0.2977 0.40012
3751.862 0.40561 0.4625 0.44548 0.4867 0.553 0.5302 0.5148 0.40277 0.5519 0.7044
3771.152 0.6568 0.6721 0.5628 0.6381 0.6303 0.5101 0.3102 0.3101 0.6634 0.7164
3790.441 0.6858 0.511 0.34833 0.4859 0.5434 0.5105 0.4702 0.39746 0.5688 0.712
3809.731 0.7569 0.9451 1.1349 1.1941 1.3058 1.3183 1.405 1.745 1.845 1.805
3829.021 1.635 1.365 1.1309 0.9848 1.0269 0.81 0.586 0.5404 0.7705 0.9184
3848.311 0.7073 0.5477 0.4567 0.4962 0.5955 0.7542 0.834 0.8805 1.0555 1.0704
3867.601 1.0665 1.0506 1.2115 1.485 1.485 1.795 2.175 2.515 2.785 2.845
3886.890 3.025 3.215 3.545 3.795 3.635 3.445 3.195 2.695 2.165 1.665
3906.180 1.3481 1.2769 1.2248 1.048 0.9076 1.1273 1.2708 1.1241 1.0939 1.3056
3925.470 1.545 1.445 1.3163 1.1054 1.0477 1.047 1.0382 1.1116 1.0046 1.0346
3944.760 1.1784 1.2969 1.3211 1.2195 0.9833 0.916 0.9259 0.8065 0.8445 1.2565
3964.049 1.595 1.355 1.1954 1.2088 1.1975 1.1236 0.8534 0.7269 0.5788 0.4326
3983.339 0.459 0.39213 0.3096 0.355608 0.3285 0.3473 0.4563 0.291 0.091 0
##END=
