##TITLE=Diethyl 4-chlorobenzylphosphonate
##JCAMP-DX=4.24
##DATA TYPE=INFRARED SPECTRUM
##ORIGIN=EPA-IR VAPOR PHASE LIBRARY
##OWNER=SRD/NIST
Collection (C) 2018 copyright by the U.S. Secretary of Commerce
on behalf of the United States of America. All rights reserved.
##CAS REGISTRY NO=39225-17-7
##MOLFORM=C 11 H 16 Cl O 3 P
##$NIST SOURCE=MSDC-IR
##STATE=gas
##XUNITS=1/CM
##YUNITS=ABSORBANCE
##XFACTOR=1.
##YFACTOR=0.001
##DELTAX=1.92898
##FIRSTX=549.8
##LASTX=4000.7
##FIRSTY=46.65
##MAXX=4000.7
##MINX=549.759
##MAXY=0.17322
##MINY=0
##NPOINTS=1790
##XYDATA=(X++(Y..Y))
549.759 46.65 44.93 41.51 36.06 30.29 24.83 20.05 17.02 14.23 11.29
569.049 9.44 8.53 7.71 6.89 5.82 4.29 3.46 3.85 4.07 3.72
588.339 3.44 3.57 3.5 3.24 3.2 2.83 2.65 3.17 3.21 2.82
607.628 3 3.11 3.13 3.18 3.11 3.01 3.19 3.3 2.92 3.19
626.918 3.43 3.56 3.5 3.73 3.82 3.65 4.1 4.51 5.19 5.44
646.208 6.56 8.29 9.1 10.09 10.13 9.77 8.61 6.84 5.91 4.96
665.498 4.5 4.4 4.47 4.61 4.91 5.02 4.81 4.64 5.13 5.58
684.787 5.39 5.58 6.16 6.78 7.64 8.75 9.91 11.11 12 13.09
704.077 14.07 14.16 14.04 13.36 12.09 11.39 10.96 10.54 10.54 10.64
723.367 10.67 10.58 10.2 9.94 9.72 9.33 9.14 9.14 8.96 9.17
742.657 9.81 10.3 10.96 11.81 13.24 15.41 17.42 19.82 23.22 27.38
761.947 31.96 36.55 39.89 41.98 42.58 40.88 37.75 33.68 29.47 25.84
781.236 23.05 20.73 18.9 17.59 16.84 15.88 14.84 14.68 14.67 14.65
800.526 15.05 15.62 16.22 16.34 16.65 17.28 18.23 19.31 19.71 20.91
819.816 22.24 23.64 26.28 27.79 28.9 29.71 29.57 29.94 30.41 30.86
839.106 31.91 33.04 33.68 34.53 35.49 36.54 36.21 34.81 32.91 29.7
858.395 26.36 23.2 19.36 16.41 14.84 13.29 11.53 10.74 10.59 9.98
877.685 9.51 8.97 8.47 8.14 8.19 8.61 8.49 8.57 9.32 9.45
896.975 9.52 9.8 10.45 11.3 11.86 12.61 13.53 14.37 15.5 16.88
916.265 18.21 19.68 21.54 23.7 26.1 29.34 33.9 39.09 44.28 50.13
935.555 56.87 64.22 71.62 78.56 85.16 90.56 94.13 96.63 98.63 99.06
954.844 96.7 93.39 90.28 85.7 80.35 74.44 67.44 60.86 54.86 49.18
974.134 43.99 39.88 36.24 32.96 30.35 28.42 26.93 26.05 25.97 25.58
993.424 25.63 26.07 26.98 29.1 31.58 34.06 37.79 42.89 49.24 59.54
1012.714 73.24 85.28 94.21 103.23 111.27 116.34 122.6 132.76 145.19 156.81
1032.003 166.17 171.45 173.22 171.95 168.02 162.64 155.01 148.84 144.34 140.81
1051.293 139.16 139.69 139.9 138.44 136.77 133.45 128.65 122.27 113.1 103.21
1070.583 93.87 85.02 77.15 70.72 65.08 60.56 59.57 60.43 60.74 62.35
1089.873 66.86 71.43 75.51 78.67 78.36 74.61 66.26 56.73 50.25 43.57
1109.163 38.11 34.96 32.57 31.09 28.81 25.43 23.51 23.43 22.26 21.32
1128.452 21.3 21.58 21.37 20.54 19.45 18.17 19.12 19.51 18.61 18.8
1147.742 18.63 18.03 17.26 16.93 17.01 16.58 16.95 17.47 16.5 16.45
1167.032 16.7 16.16 16.04 16.45 17.01 16.19 15.64 15.57 16.5 16.84
1186.322 16.42 15.73 14.09 13.94 13.64 12.2 12 12.15 10.59 9.85
1205.611 9 9.49 10.79 10.42 9.65 10.23 10.72 11.67 13.04 12.99
1224.901 14.27 15.47 16.41 17.69 18.51 19.09 20.89 24.26 25.89 26.31
1244.191 26.79 26.04 26.07 27.17 28.16 30.37 33.57 37.69 42.44 47.89
1263.481 53.85 58.52 62.61 65.98 67.83 67.38 65.06 62.89 61.11 58.53
1282.771 56.07 53.84 50.84 47.28 42.88 38.33 33.92 29.68 26.02 22.87
1302.060 20.29 18.38 16.55 14.71 13.2 11.89 11.02 10.24 9.41 8.79
1321.350 8.09 7.47 7.01 6.5 6.09 5.72 5.58 5.55 5.52 5.46
1340.640 5.32 5.32 5.29 5.13 5.05 5.09 5.27 5.51 5.57 5.7
1359.930 6.01 6.37 6.82 7.38 8.17 8.94 9.4 9.54 9.63 9.87
1379.219 10.09 10.35 11.11 12.29 13.64 15.29 16.95 18.3 18.94 19.15
1398.509 18.93 18.36 17.83 17.3 16.8 16.61 16.53 15.96 15.14 14.2
1417.799 13.03 11.64 10.42 9.68 8.91 8.3 7.88 7.46 7.36 7.29
1437.089 7.11 7.12 7.35 7.37 7.42 7.4 7.2 7.11 7.19 7.4
1456.378 7.44 7.3 7.29 7.65 8.05 8.39 8.9 9.46 10.41 12
1475.668 13.89 16.36 19.43 23.13 27.81 33.26 39.54 46.12 51.03 52.89
1494.958 51.26 46.21 38.66 30.28 22.96 17.44 13.51 10.95 9.15 7.94
1514.248 7.16 6.5 5.71 5.09 4.99 4.54 4.14 4.09 3.74 3.26
1533.538 3.12 3.34 3.19 2.83 2.7 2.94 2.91 2.72 2.78 2.69
1552.827 2.44 2.25 2.11 2.05 2.21 2.19 2.29 2.47 2.42 2.34
1572.117 2.38 2.46 2.57 2.5 2.37 2.52 2.72 2.77 2.97 3.32
1591.407 3.34 3.1 2.99 3.02 3.12 3.25 3.27 3.14 2.89 2.95
1610.697 2.89 2.59 2.17 2.28 2.57 2.32 2.3 2.5 2.52 2.49
1629.986 2.6 2.95 2.98 2.64 2.69 2.79 2.87 2.83 2.78 2.88
1649.276 2.83 2.74 2.75 2.88 2.99 3.04 2.91 2.81 2.68 2.75
1668.566 2.87 2.84 2.68 2.47 2.45 2.5 2.56 2.53 2.39 2.46
1687.856 2.68 2.63 2.46 2.49 2.64 2.54 2.31 2.27 2.3 2.33
1707.146 2.37 2.4 2.36 2.46 2.65 2.53 2.47 2.67 2.86 2.81
1726.435 2.75 2.74 2.83 3.01 3.15 3.28 3.25 3.26 3.32 3.34
1745.725 3.26 3.24 3.29 3.34 3.32 3.22 3.37 3.54 3.55 3.48
1765.015 3.43 3.51 3.7 3.74 3.74 3.64 3.39 3.25 3.19 3.14
1784.305 3.11 3.16 3.14 3.09 3.16 3.13 3.14 3.06 2.93 2.98
1803.594 3.02 3.04 3.05 2.91 2.81 2.92 3 2.97 2.91 2.82
1822.884 2.86 2.8 2.89 3.06 2.97 2.92 2.85 2.69 2.6 2.69
1842.174 2.76 2.7 2.58 2.63 2.67 2.62 2.59 2.63 2.69 2.73
1861.464 2.81 2.85 2.79 2.77 2.84 2.75 2.76 2.88 2.98 3.09
1880.754 3.36 3.54 3.56 3.68 3.73 3.68 3.67 3.45 3.33 3.25
1900.043 2.96 2.73 2.49 2.36 2.36 2.39 2.33 2.17 2.03 1.92
1919.333 1.99 2.08 1.84 1.67 1.5962 1.6177 1.78 1.5915 1.3524 1.4867
1938.623 1.65 1.73 1.74 1.6019 1.4056 1.3796 1.4471 1.4486 1.5716 1.6257
1957.913 1.4808 1.5011 1.528 1.3861 1.5207 1.5784 1.4652 1.4445 1.2552 1.2562
1977.202 1.4701 1.4852 1.4489 1.4929 1.5812 1.69 1.6102 1.3263 1.1795 1.3464
1996.492 1.5581 1.4121 1.2654 1.4217 1.4564 1.4134 1.3766 1.3612 1.3604 1.4219
2015.782 1.4534 1.3823 1.3467 1.2889 1.3012 1.2981 1.1823 1.1113 1.2166 1.2974
2035.072 1.2776 1.1525 1.0364 1.1723 1.2562 1.2743 1.2585 1.1796 1.0867 1.1041
2054.362 1.195 1.0808 1.0196 1.1913 1.1839 1.2222 1.2459 1.1485 1.3499 1.4791
2073.651 1.4038 1.3038 1.198 1.0992 1.2591 1.3659 1.487 1.4236 1.308 1.34
2092.941 1.4385 1.5032 1.4325 1.4905 1.3403 1.1929 1.1486 1.1949 1.2098 1.2613
2112.231 1.4126 1.3339 1.1393 1.1092 1.1756 1.1493 1.1866 1.1915 1.0581 1.2005
2131.521 1.274 1.1062 1.2542 1.373 1.3034 1.2464 1.3263 1.3045 1.1166 0.9149
2150.810 0.8966 1.0408 1.0145 1.0106 1.0768 1.4007 1.3861 1.1246 1.2523 1.2298
2170.100 1.2233 1.23 1.172 1.215 1.1817 1.1118 0.9479 0.9685 1.0121 0.898
2189.390 1.1809 1.4001 1.3412 1.3437 1.3618 1.3275 1.2134 1.3043 1.3034 1.2938
2208.680 1.2403 1.1944 1.2577 1.1445 1.0071 1.0195 1.1002 1.2754 1.2601 1.2246
2227.970 1.3116 1.1579 1.0095 0.9754 0.9645 0.9223 1.2159 1.4089 1.0285 0.7875
2247.259 1.0518 1.2887 1.2473 1.1688 1.233 1.2225 1.0174 1.1486 1.3511 1.4129
2266.549 1.4725 1.3583 1.342 1.72 1.89 1.68 1.5148 1.475 1.5233 1.4938
2285.839 1.3019 1.149 1.1426 1.0668 1.1794 1.2813 1.2035 1.0344 0.8994 1.1665
2305.129 1.4018 1.2866 1.2613 1.235 1.2748 1.4198 1.2234 1.0335 1.2607 1.5755
2324.418 1.4215 1.2097 1.1084 1.0356 1.1988 1.2123 1.3761 1.4695 1.1792 1.0059
2343.708 0.9609 0.8962 0.9175 1.2376 1.3322 1.0191 0.9377 1.122 1.0321 0.9074
2362.998 1.0926 1.1251 1.1195 1.0347 0.9851 1.0727 0.9407 1.0484 1.2854 1.1548
2382.288 1.0007 1.1008 1.1978 1.1326 1.1019 1.1203 1.0955 0.921 0.97 1.1372
2401.578 1.1192 1.1577 1.2046 1.4579 1.4873 1.1754 1.0004 1.0585 1.2625 1.262
2420.867 1.2912 1.3086 1.2325 1.1135 1.1477 1.2505 1.2963 1.3836 1.3537 1.4392
2440.157 1.2542 1.0543 1.0988 1.2602 1.3091 1.4796 1.4418 1.0433 0.9994 1.0801
2459.447 1.1434 1.0463 1.1447 1.4106 1.1736 0.9576 1.0501 1.0109 0.9204 0.8023
2478.737 0.7652 0.9098 0.9855 0.9326 0.9394 1.0495 1.0181 1.0338 1.2439 1.078
2498.026 1.0135 1.1335 1.0596 0.8072 0.8064 1.0562 1.0804 1.0217 1.0774 1.1039
2517.316 1.0203 0.9532 0.9316 0.9921 1.0933 1.1913 1.1362 1.0152 0.9295 1.1426
2536.606 1.3241 1.0191 0.8973 1.0684 0.9897 1.0978 0.9858 0.7432 0.8719 0.73431
2555.896 0.7428 1.0148 1.088 0.8302 0.5651 0.9348 1.2801 1.1744 1.006 1.1096
2575.186 1.0411 0.70795 1.0125 1.405 1.2984 1.1482 1.3154 1.4158 1.4868 1.3648
2594.475 1.0501 0.9838 1.0199 1.0761 1.163 1.3386 1.1448 0.8745 0.9689 0.8728
2613.765 0.861 0.978 0.9961 0.9996 0.7981 0.9162 1.0932 1.0752 1.1733 1.4407
2633.055 1.42 1.3129 1.4359 1.3216 0.8337 0.66913 0.9666 1.2443 1.5215 1.4579
2652.345 1.1943 1.0596 0.8123 0.8508 1.1328 1.2881 1.4887 1.4877 1.3169 1.2118
2671.634 1.1525 0.8949 0.9015 1.1002 1.1719 1.2516 1.2973 0.9795 0.8375 0.9453
2690.924 0.8981 0.7681 0.8364 1.0506 1.3527 1.5897 1.2209 1.2103 1.3644 1.2856
2710.214 1.3327 1.3356 1.1751 1.2318 1.71 2.04 1.88 1.496 1.3952 1.4602
2729.504 1.5105 1.5999 1.67 1.68 1.77 1.75 1.75 1.76 1.7 1.67
2748.794 1.68 1.72 1.73 1.64 1.5062 1.6062 1.88 1.96 1.71 1.5482
2768.083 1.66 2.03 2.18 2.12 2.1 1.96 2.15 2.04 1.86 2.15
2787.373 2.12 1.78 1.75 1.82 1.66 1.69 1.83 1.91 1.92 1.81
2806.663 1.93 2.26 2.1 1.83 1.87 2.05 2.38 2.36 2.32 2.39
2825.953 2.36 2.39 2.61 2.69 2.62 2.6 2.62 2.92 3.19 3.27
2845.242 3.41 3.11 2.89 3.21 3.56 3.79 3.8 3.94 4.26 4.38
2864.532 4.57 5.21 5.64 5.88 6.25 6.74 7.42 8.39 8.58 8.53
2883.822 8.67 8.55 8.91 9.18 9.39 9.81 10.17 10.73 11.39 12.31
2903.112 13.47 14.24 15.22 16.53 17.24 17.89 18.51 18.98 19.52 19.86
2922.401 19.88 19.9 20.23 20.39 21.12 22.24 23.25 24.53 25.51 26.11
2941.691 26.09 25.71 25.06 23.5 21.96 20.94 20.3 20 20.15 20.32
2960.981 20.5 21.07 21.51 22.1 23.04 24.2 25.84 27.69 29.61 32.11
2980.271 35.29 37.63 38.61 39.16 38.42 36.65 34.15 31.53 29.37 27.24
2999.561 25.17 23.12 21.14 19.09 17.59 16.54 15.46 14.31 13.25 12.27
3018.850 11.37 10.52 10.1 10.29 10.1 9.6 9.49 9.31 9.43 9.34
3038.140 8.41 8.08 8.1 7.36 6.48 6.41 6.24 5.87 5.73 5.21
3057.430 4.78 4.37 4.17 4.15 3.55 3.18 3.53 3.92 3.94 3.93
3076.720 3.82 3.81 4.24 4.56 4.65 4.67 4.99 5.31 5.22 5.18
3096.009 4.6 4.01 4.12 3.62 3.22 3.17 3.07 2.82 2.66 2.6
3115.299 2.33 2.16 1.88 1.77 1.85 1.77 1.6018 2.31 2.43 2.05
3134.589 2.06 1.83 1.87 2.05 1.93 1.3237 1.1448 1.3858 1.5959 1.72
3153.879 1.75 1.5653 1.6229 1.4913 1.4063 1.7 1.5816 1.5798 1.4355 0.8469
3173.169 0.8336 1.4096 1.4673 1.5386 1.4999 1.4301 1.66 1.4793 1.3796 1.72
3192.458 1.5522 1.3903 1.73 1.6025 1.2646 1.3389 1.84 1.5525 1.243 1.5895
3211.748 1.1375 1.0647 1.2937 1.1679 1.1811 1.0668 1.1475 1.4701 1.5353 1.3158
3231.038 1.2321 1.1294 0.8028 1.0479 1.5172 1.5541 0.954 1.0746 1.64 1.1247
3250.328 0.8777 1.4057 1.7 1.3313 0.7468 0.73485 1.1501 0.9415 0.7841 0.856
3269.617 0.9835 1.2368 0.8912 0.382 0.6224 0.9308 1.0775 1.4088 1.3143 1.2645
3288.907 1.0328 0.602 0.434 0.393 0.69451 1.1654 1.0102 0.71208 0.648337 0.473
3308.197 0.361 0.459 0.9817 0.9215 0.9538 1.0472 0.9745 1.0825 0.8936 0.944
3327.487 0.63743 0.69277 1.0803 0.5699 0.274 0.70798 1.3086 1.373 1.1293 1.0169
3346.777 1.1397 0.874 0.9029 1.0267 0.647394 0.7745 0.7605 0.861 1.5763 1.4854
3366.066 0.8417 0.8284 1.1044 1.0633 0.915 0.8671 0.8507 0.8588 1.3158 1.5436
3385.356 1.4609 1.3983 0.8256 0.8491 1.1742 1.0906 1.1303 1.1397 0.8973 1.1693
3404.646 1.3745 1.1869 1.2196 1.0935 0.7729 0.67635 0.46 0.156 0.335 0.8302
3423.936 1.0917 0.6235 0.128 0.5428 0.8327 0.8997 1.1634 1.1791 0.8842 0.5863
3443.225 0.387 0.7195 0.9248 0.66828 0.63441 0.5516 0.8161 0.8199 0.7486 1.2845
3462.515 1.4654 1.174 0.977 0.8325 0.8064 0.9002 0.9193 1.0226 1.3347 1.3647
3481.805 1.0259 0.8067 1.0012 1.0059 0.6152 0.5846 0.9546 0.8563 0.9575 0.8353
3501.095 0.808 1.0054 0.354 0.369 0.487 0.648332 1.4076 1.2 0.9207 1.0264
3520.385 0.9773 0.9325 0.71635 0.6153 1.0438 1.3006 0.66299 0.406 0.73414 0.69328
3539.674 0.524 0.5867 0.71221 0.8213 0.8007 0.945 1.0797 0.8402 0.7618 0.907
3558.964 0.7747 0.509 0.07 0.257 0.9245 0.8715 0.6196 0.9352 1.142 1.0728
3578.254 1.4659 1.1309 0.608 0.8691 1.0932 1.2228 1.3983 1.0293 0.77 0.8106
3597.544 0.7631 1.0907 1.0709 0.8806 0.9001 0.9175 0.9951 1.1667 0.8959 0.478
3616.833 0.707 1.0213 1.0666 0.7717 0.402 1.019 1.6001 0.8772 0.9082 1.5416
3636.123 1.2039 0.9506 0.9263 0.5842 0.435 0.8234 1.0971 0.9994 1.213 1.4948
3655.413 1.4548 1.1531 0.95 0.515 0.295 0.451 0.5841 0.9869 0.9614 0.9315
3674.703 1.0899 1.0164 1.1368 1.1253 0.69211 0.67649 1.0352 0.636 0.44 0.8321
3693.993 0.9227 0.9131 1.0252 1.1745 1.3476 1.1089 0.6276 0.69899 1.2167 1.1311
3713.282 0.8928 1.0919 1.2996 1.5135 1.0846 0.72468 0.65891 0.7266 1.0809 1.2862
3732.572 1.1787 1.4649 1.6171 1.2871 1.0357 0.8518 1.1778 1.3257 0.5579 0.6279
3751.862 1.0644 1.0259 1.3237 1.3527 0.807 0.368 0.84 1.3906 0.8283 0.17
3771.152 0 0.372 0.9294 0.5402 0.8586 1.2233 0.9968 1.3512 1.3032 1.2599
3790.441 1.2987 0.8761 0.7446 0.7753 1.1463 1.4977 1.0663 0.8182 1.0604 1.0508
3809.731 1.1416 1.2238 1.2009 1.2433 0.8994 0.323 0.352 0.72299 0.8418 1.199
3829.021 1.5678 1.4902 0.9509 0.5615 0.447 0.9461 1.4812 1.149 0.9138 0.7569
3848.311 0.8621 1.3914 1.1066 1.2792 1.517 0.9957 0.8411 1.0793 1.66 1.3906
3867.601 1.1483 1.109 0.8975 0.9285 0.9035 1.2872 1.1464 1.1625 0.8877 0.213
3886.890 0.7896 1.158 0.7961 0.63631 1.1656 1.2953 0.8632 0.5727 0.317 0.5685
3906.180 0.8699 0.8559 1.068 1.2425 0.8604 0.7638 1.1154 1.21 0.9204 0.9008
3925.470 1.2752 1.0856 0.8817 1.2821 1.3879 0.7668 0.8172 1.1501 0.9806 1.2536
3944.760 1.4943 1.3498 0.9992 0.9542 1.0658 1.079 1.3724 1.1704 0.9361 1.3302
3964.049 1.2942 1.0139 0.9362 0.8678 1.1816 1.1943 0.9628 0.9582 0.983 0.514
3983.339 0.8872 1.148 0.8711 1.4657 1.0914 0.659 1.5744 1.91 1.138 1.2598
##END=
