##TITLE=3,5-Bis(trifluoromethyl)benzenesulfonyl chloride
##JCAMP-DX=4.24
##DATA TYPE=INFRARED SPECTRUM
##ORIGIN=EPA-IR VAPOR PHASE LIBRARY
##OWNER=SRD/NIST
Collection (C) 2018 copyright by the U.S. Secretary of Commerce
on behalf of the United States of America. All rights reserved.
##CAS REGISTRY NO=39234-86-1
##MOLFORM=C 8 H 3 Cl F 6 O 2 S
##$NIST SOURCE=MSDC-IR
##STATE=gas
##XUNITS=1/CM
##YUNITS=ABSORBANCE
##XFACTOR=1.
##YFACTOR=0.001
##DELTAX=3.85796
##FIRSTX=501.5
##LASTX=4000.7
##FIRSTY=3.327
##MAXX=4000.7
##MINX=501.534
##MAXY=0.146917
##MINY=0
##NPOINTS=908
##XYDATA=(X++(Y..Y))
501.534 3.327 3.857 3.447 2.387 1.577 1.427 1.647 2.057 2.647 3.607
540.114 5.587 9.477 15.787 22.157 26.597 33.047 39.067 36.707 27.637 19.537
578.693 14.547 10.677 7.787 5.817 4.477 3.837 4.027 5.107 6.687 7.927
617.273 9.087 12.557 19.187 24.657 22.737 14.827 7.547 3.987 2.717 2.077
655.852 1.627 1.357 1.247 1.537 2.527 6.217 12.707 16.237 13.847 9.817
694.432 8.717 7.567 4.877 2.647 1.407 1.1053 1.1436 1.1218 0.8358 0.5731
733.011 0.4505 0.4383 0.459 0.4636 0.4558 0.4757 0.4767 0.4216 0.2882 0.24443
771.591 0.24722 0.2593 0.3022 0.3556 0.4125 0.3899 0.3793 0.4461 0.5668 0.7549
810.170 0.9522 1.167 1.477 1.897 2.307 2.547 2.707 3.217 4.227 4.817
848.750 4.067 2.447 1.237 0.7194 0.5297 0.4812 0.4782 0.4457 0.4423 0.5126
887.330 0.637 1.0061 1.887 3.667 6.047 7.777 7.077 4.397 2.297 1.507
925.909 1.597 1.777 1.527 1.076 0.75 0.5736 0.4913 0.4383 0.3872 0.3696
964.489 0.3639 0.3881 0.3696 0.3784 0.4091 0.4129 0.4486 0.5014 0.5639 0.6407
1003.068 0.6805 0.7117 0.7889 0.8796 0.9544 1.0506 1.1205 1.1328 1.1268 1.0733
1041.648 1.0478 1.0427 1.0948 1.247 1.467 1.657 1.877 2.177 2.597 3.177
1080.227 4.047 5.237 6.797 9.237 13.117 18.307 23.187 25.037 22.857 18.497
1118.807 14.477 12.027 11.117 11.267 11.997 13.387 16.177 22.007 33.037 51.887
1157.387 78.577 105.037 112.537 93.427 69.137 61.367 73.627 95.937 111.567 108.087
1195.966 88.497 64.137 44.027 31.357 23.697 18.137 13.707 10.587 8.717 7.637
1234.546 7.287 7.567 8.427 9.667 11.157 13.047 15.907 19.907 26.577 41.547
1273.125 75.317 122.387 146.917 117.597 60.267 24.077 12.137 7.897 6.017 5.177
1311.705 4.817 4.597 4.407 4.427 4.857 5.817 7.557 10.747 16.267 24.237
1350.284 31.987 34.377 28.987 19.707 12.307 8.417 6.647 6.407 7.387 8.947
1388.864 9.897 10.397 12.957 20.667 31.207 34.737 26.417 14.197 7.347 5.347
1427.443 4.307 3.237 2.327 1.837 1.667 1.637 1.577 1.447 1.257 1.0545
1466.023 0.8568 0.7313 0.654 0.6131 0.6076 0.6133 0.6074 0.6289 0.6877 0.7506
1504.603 0.7799 0.7891 0.7582 0.6838 0.6218 0.5887 0.5767 0.5798 0.5799 0.5832
1543.182 0.5829 0.5619 0.5381 0.5303 0.5377 0.5553 0.5964 0.6537 0.7001 0.7548
1581.762 0.8316 0.9136 1.0379 1.257 1.597 1.927 2.077 2.007 1.967 2.197
1620.341 2.517 2.547 2.097 1.427 0.9258 0.6871 0.5847 0.5279 0.487 0.4488
1658.921 0.4158 0.3858 0.3473 0.3152 0.2878 0.2839 0.2959 0.3053 0.299 0.2733
1697.500 0.23019 0.20289 0.17925 0.15153 0.1461 0.1492 0.14902 0.1367 0.1288 0.1024
1736.080 0.0918 0.1086 0.1135 0.114 0.1258 0.15268 0.18253 0.21376 0.21885 0.21663
1774.659 0.22753 0.23169 0.23067 0.24051 0.25486 0.2754 0.3 0.3184 0.3426 0.4025
1813.239 0.5078 0.6332 0.7787 0.9163 1.0205 1.0589 1.0211 0.9102 0.7933 0.7715
1851.819 0.8202 0.8546 0.7765 0.5813 0.3863 0.2758 0.24072 0.22951 0.21055 0.18828
1890.398 0.17509 0.16956 0.162778 0.166387 0.1619 0.14827 0.1462 0.1388 0.1359 0.15306
1928.978 0.15506 0.14996 0.160456 0.17365 0.17826 0.16952 0.164131 0.15399 0.1239 0.1004
1967.557 0.0956 0.0941 0.1113 0.142 0.157889 0.18138 0.20818 0.2495 0.2848 0.2928
2006.137 0.2728 0.24939 0.23731 0.22803 0.23992 0.2377 0.22181 0.20564 0.19367 0.17473
2044.716 0.14 0.1174 0.1117 0.1165 0.1153 0.1074 0.1088 0.107 0.1135 0.1128
2083.296 0.1111 0.1274 0.1353 0.14902 0.163333 0.176 0.18141 0.1717 0.15247 0.14883
2121.875 0.14925 0.1408 0.1443 0.122 0.0923 0.0917 0.0825 0.085 0.1209 0.1434
2160.455 0.160683 0.18484 0.19431 0.21562 0.25303 0.2809 0.2989 0.3055 0.315 0.3015
2199.035 0.2884 0.2857 0.2649 0.24264 0.22485 0.20314 0.18618 0.18459 0.19328 0.19133
2237.614 0.20017 0.2169 0.22392 0.2585 0.2832 0.3027 0.3476 0.3781 0.3769 0.3875
2276.194 0.4138 0.4306 0.4547 0.4864 0.5187 0.537 0.5343 0.5218 0.5098 0.5093
2314.773 0.5147 0.4987 0.4621 0.4309 0.3986 0.38 0.3729 0.372 0.3793 0.3882
2353.353 0.4112 0.4349 0.4567 0.4824 0.4952 0.4835 0.4504 0.4035 0.3657 0.3252
2391.932 0.2833 0.25675 0.23107 0.21835 0.21051 0.19424 0.19082 0.19741 0.19159 0.1909
2430.512 0.18864 0.18305 0.18643 0.18982 0.18208 0.17588 0.17325 0.165123 0.16919 0.17855
2469.092 0.17265 0.1455 0.1215 0.116 0.1106 0.1181 0.1191 0.1022 0.1004 0.1352
2507.671 0.1698 0.17795 0.17456 0.16861 0.18324 0.18285 0.17682 0.18459 0.20071 0.22413
2546.251 0.22286 0.21853 0.23999 0.25222 0.23232 0.20562 0.19214 0.19776 0.21228 0.24533
2584.830 0.2851 0.2842 0.24511 0.20757 0.19356 0.16845 0.1462 0.159009 0.17728 0.17313
2623.410 0.1464 0.1438 0.164833 0.16941 0.1394 0.1118 0.109 0.0975 0.0803 0.0603
2661.989 0.051 0.0624 0.0896 0.0918 0.0632 0.052 0.051 0.046 0.053 0.0583
2700.569 0.051 0.055 0.0588 0.054 0.054 0.07 0.0907 0.0856 0.0804 0.0776
2739.148 0.0708 0.0777 0.0811 0.0925 0.1251 0.1251 0.1201 0.1307 0.1269 0.1096
2777.728 0.1105 0.1092 0.0976 0.1098 0.1108 0.1139 0.1413 0.1422 0.1436 0.1465
2816.308 0.1096 0.0698 0.038 0.039 0.0767 0.104 0.1056 0.0877 0.0743 0.0734
2854.887 0.0655 0.0812 0.0904 0.073 0.0753 0.0738 0.1029 0.1355 0.1353 0.15365
2893.467 0.1741 0.17877 0.163889 0.17375 0.18867 0.17804 0.16998 0.15081 0.15048 0.17263
2932.046 0.15537 0.1404 0.1425 0.14809 0.15535 0.164967 0.17716 0.18202 0.18386 0.17722
2970.626 0.157824 0.15414 0.159196 0.159872 0.1246 0.0958 0.093 0.0574 0.0605 0.0904
3009.205 0.0931 0.0974 0.103 0.077 0.0603 0.0669 0.1036 0.135 0.15067 0.17395
3047.785 0.21365 0.2805 0.3227 0.3333 0.4016 0.4793 0.5059 0.6006 0.8284 1.287
3086.364 1.997 2.567 2.547 1.947 1.197 0.7108 0.496 0.3503 0.22957 0.162504
3124.944 0.1279 0.1017 0.0723 0.0796 0.0987 0.0832 0.0746 0.0576 0.06 0.081
3163.524 0.0662 0.045 0.031 0.036 0.0643 0.0838 0.079 0.0703 0.0815 0.0817
3202.103 0.0794 0.0895 0.0676 0.043 0.034 0.017 0.016 0.041 0.042 0.028
3240.683 0.05 0.0669 0.042 0.011 0.041 0.0922 0.069 0.022 0.026 0.048
3279.262 0.0684 0.0771 0.0608 0.04 0.054 0.049 0.037 0.0659 0.1003 0.0651
3317.842 0.034 0.07 0.0612 0.046 0.0737 0.0647 0.037 0.036 0.032 0.032
3356.421 0.038 0.056 0.0584 0.079 0.0878 0.0649 0.056 0.068 0.05 0.043
3395.001 0.0808 0.0851 0.033 0.002 0.035 0.0708 0.0641 0.0614 0.0658 0.0623
3433.580 0.0989 0.0739 0.048 0.0608 0.0695 0.0827 0.058 0.048 0.0809 0.064
3472.160 0.056 0.0781 0.0872 0.1007 0.053 0.023 0.046 0.0735 0.0964 0.1121
3510.740 0.1009 0.086 0.0599 0.0583 0.0841 0.054 0.037 0.044 0.0686 0.0693
3549.319 0.0583 0.0829 0.044 0.023 0.0588 0.0837 0.0927 0.0809 0.0615 0.0591
3587.899 0.055 0.053 0.0784 0.1039 0.0971 0.058 0.026 0.006 0.049 0.133
3626.478 0.1406 0.0641 0.023 0.0853 0.1413 0.16738 0.158848 0.0863 0.0926 0.16849
3665.058 0.1535 0.0958 0.0839 0.0988 0.0759 0.058 0.0611 0.053 0.0571 0.0645
3703.637 0.0606 0.0763 0.0893 0.0654 0.0612 0.05 0.0727 0.0822 0.0658 0.054
3742.217 0.046 0.028 0 0.023 0.043 0.0666 0.0958 0.0704 0.0762 0.1227
3780.797 0.0633 0.023 0.0784 0.0998 0.089 0.1041 0.0853 0.0665 0.089 0.0678
3819.376 0.0807 0.0723 0.033 0.039 0.044 0.045 0.051 0.0695 0.1012 0.1261
3857.956 0.0847 0.027 0.017 0.039 0.057 0.047 0.0571 0.0707 0.0699 0.0804
3896.535 0.0925 0.076 0.0613 0.0743 0.0793 0.1115 0.0903 0.0756 0.1011 0.0832
3935.115 0.0688 0.047 0.0591 0.0835 0.088 0.0789 0.0635 0.0635 0.0603 0.0781
3973.694 0.0802 0.038 0.037 0.0705 0.0604 0.033 0.031 0.042
##END=
