##TITLE=Dinocap
##JCAMP-DX=4.24
##DATA TYPE=INFRARED SPECTRUM
##ORIGIN=NIST Mass Spectrometry Data Center
##OWNER=NIST Standard Reference Data Program
Collection (C) 2018 copyright by the U.S. Secretary of Commerce
on behalf of the United States of America. All rights reserved.
##CAS REGISTRY NO=39300-45-3
##MOLFORM=C 18 H 24 N 2 O 6
##$NIST SOURCE=MSDC-IR
##SPECTROMETER/DATA SYSTEM=HP-GC/MS/IRD
##STATE=gas
##XUNITS=1/CM
##YUNITS=ABSORBANCE
##XFACTOR=1.0
##YFACTOR=0.000009500
##DELTAX=4.0
##FIRSTX=550.0
##LASTX=3846.0
##FIRSTY=0.000770
##MAXX=3846
##MINX=550
##MAXY=0.095
##MINY=0
##NPOINTS=825
##XYDATA=(X++(Y..Y))
550.0 81 30 1 14 19 21 26 18 4 0
590.0 8 12 11 7 0 4 12 16 13 11
630.0 22 39 50 64 94 127 158 195 238 283
670.0 299 264 230 211 213 243 293 347 411 483
710.0 585 770 1013 1152 1067 918 843 839 840 774
750.0 653 568 538 522 517 542 599 669 723 768
790.0 838 894 850 710 564 492 488 535 584 604
830.0 577 496 427 392 382 388 394 415 455 513
870.0 594 694 793 850 835 787 769 796 839 904
910.0 1007 1106 1128 1089 1087 1146 1264 1481 1862 2454
950.0 3169 3746 3904 3550 2764 1857 1188 802 584 454
990.0 366 304 259 229 213 205 208 217 224 242
1030.0 271 309 349 395 446 487 546 629 753 944
1070.0 1225 1651 2278 3179 4295 5139 5087 4257 3407 2967
1110.0 2870 2999 3365 3961 4565 4713 4150 3197 2374 1875
1150.0 1628 1538 1570 1721 1998 2374 2771 3156 3589 4093
1190.0 4524 4665 4401 3840 3249 2841 2576 2285 1934 1625
1230.0 1424 1333 1340 1402 1448 1425 1340 1250 1198 1181
1270.0 1201 1255 1333 1435 1603 1897 2270 2406 2145 1833
1310.0 1715 1701 1737 1862 2139 2635 3475 4815 6525 7764
1350.0 7566 6156 4536 3261 2374 1801 1465 1323 1289 1184
1390.0 977 813 723 672 647 642 663 697 718 724
1430.0 741 795 907 1071 1272 1438 1491 1473 1448 1395
1470.0 1283 1141 1008 905 843 837 894 1006 1148 1252
1510.0 1298 1353 1464 1636 1884 2256 2850 3829 5480 7824
1550.0 9810 10000 8377 6147 4370 3282 2653 2275 2053 1970
1590.0 1975 1932 1733 1468 1297 1255 1270 1237 1120 971
1630.0 856 805 820 919 1124 1416 1691 1742 1433 959
1670.0 611 437 357 315 286 266 252 243 239 242
1710.0 248 257 274 304 340 382 428 481 556 665
1750.0 818 1037 1366 1902 2809 4007 4739 4409 3434 2410
1790.0 1613 1120 836 669 557 466 391 332 287 247
1830.0 212 185 161 142 126 113 102 91 85 80
1870.0 76 70 63 56 48 44 42 41 36 34
1910.0 33 30 28 26 26 26 24 25 25 22
1950.0 20 17 19 19 16 14 12 10 13 20
1990.0 25 28 33 39 42 43 37 37 36 35
2030.0 34 33 32 32 29 25 25 27 27 26
2070.0 27 26 27 28 28 29 33 36 40 50
2110.0 63 72 77 82 82 82 83 79 64 43
2150.0 21 11 11 8 4 4 2 0 1 2
2190.0 0 0 0 1 2 3 2 3 1 2
2230.0 1 0 0 4 7 8 9 9 11 13
2270.0 16 19 20 20 21 23 25 27 30 34
2310.0 35 38 40 42 46 51 54 51 49 45
2350.0 45 55 67 72 71 65 55 47 38 29
2390.0 25 23 24 22 21 23 22 21 24 24
2430.0 23 21 22 22 22 21 22 25 28 27
2470.0 24 28 29 26 23 22 18 15 17 17
2510.0 15 15 16 17 21 22 19 18 25 27
2550.0 24 27 31 33 35 35 35 38 38 37
2590.0 38 37 35 30 30 30 29 29 32 35
2630.0 34 40 43 40 41 41 41 43 49 55
2670.0 60 62 66 73 77 76 70 66 66 63
2710.0 62 60 60 60 58 64 71 81 91 97
2750.0 99 89 84 83 82 84 88 92 99 110
2790.0 118 131 140 149 162 177 197 221 246 276
2830.0 314 353 400 468 567 724 967 1303 1650 1852
2870.0 1853 1747 1674 1689 1693 1608 1497 1453 1500 1618
2910.0 1805 2065 2431 2977 3751 4557 4974 4825 4295 3607
2950.0 2970 2569 2469 2633 2985 3292 3200 2677 2049 1520
2990.0 1112 827 640 521 438 378 332 299 273 259
3030.0 252 246 233 221 215 211 203 204 219 231
3070.0 217 193 178 176 183 199 224 269 349 423
3110.0 399 289 189 136 112 99 88 84 83 80
3150.0 76 72 67 61 53 52 53 53 54 52
3190.0 45 41 43 44 44 43 35 33 36 35
3230.0 31 26 23 19 18 18 15 13 13 16
3270.0 20 15 11 12 9 7 10 14 17 15
3310.0 10 16 16 8 4 1 0 3 2 2
3350.0 5 4 3 6 6 5 8 7 6 6
3390.0 6 11 13 14 17 13 11 9 14 18
3430.0 16 20 14 6 9 13 15 13 10 9
3470.0 11 13 10 12 14 12 16 16 22 25
3510.0 22 27 32 39 43 44 44 40 31 30
3550.0 35 29 27 27 27 33 35 36 30 26
3590.0 25 26 27 18 13 8 6 12 10 14
3630.0 20 14 10 13 11 10 9 10 12 12
3670.0 15 18 14 10 5 7 12 10 5 4
3710.0 6 5 4 1 2 5 8 8 11 15
3750.0 9 4 7 11 15 18 9 4 4 3
3790.0 1 4 9 11 15 21 18 14 8 6
3830.0 6 1 3 6 7
##END=
