##TITLE=p-Toluenesulphonylacetic acid
##JCAMP-DX=4.24
##DATA TYPE=INFRARED SPECTRUM
##ORIGIN=EPA-IR VAPOR PHASE LIBRARY
##OWNER=SRD/NIST
Collection (C) 2018 copyright by the U.S. Secretary of Commerce
on behalf of the United States of America. All rights reserved.
##CAS REGISTRY NO=3937-96-0
##MOLFORM=C 9 H 10 O 4 S
##$NIST SOURCE=MSDC-IR
##STATE=gas
##XUNITS=1/CM
##YUNITS=ABSORBANCE
##XFACTOR=1.
##YFACTOR=0.001
##DELTAX=1.92934
##FIRSTX=549.9
##LASTX=3999.5
##FIRSTY=10.87
##MAXX=3999.53
##MINX=549.863
##MAXY=0.19161
##MINY=0
##NPOINTS=1789
##XYDATA=(X++(Y..Y))
549.863 10.87 8.85 7.24 6.04 5.09 4.4 3.92 3.51 3.16 2.9488
569.156 2.7741 2.6106 2.4717 2.2625 2.11788 2.10345 2.09885 2.0193 2.08138 2.15292
588.450 2.13937 2.1974 2.2546 2.3158 2.5199 2.7836 3.2 3.76 4.37 5.18
607.743 6.19 7.4 8.88 10.7 12.88 15.46 18.32 21.2 23.61 24.9
627.037 24.95 24.29 23.16 21.37 18.33 14.19 10.23 7.47 5.79 4.78
646.330 4.23 3.86 3.65 3.46 3.26 3.0427 2.9182 2.8195 2.6951 2.5462
665.624 2.4471 2.4536 2.4478 2.3808 2.2931 2.2426 2.1905 2.22 2.2358 2.2324
684.917 2.284 2.439 2.7106 3.036 3.42 3.73 3.92 4.05 4.2 4.3
704.210 4.33 4.26 4.13 4.09 4.19 4.38 4.75 5.36 6.3 7.62
723.504 9.39 11.85 15.22 19.55 25.06 31.82 39.65 48.37 57.38 65.91
742.797 73 77.8 79.88 78.79 74.7 68.03 59.47 50.05 40.73 32.11
762.091 24.85 19.22 15.01 12.04 10.01 8.64 7.83 7.51 7.55 7.91
781.384 8.48 9.06 9.6 10.22 10.78 11.26 11.77 12.28 12.82 13.39
800.678 14.16 15.29 16.74 18.48 20.48 22.54 24.01 24.51 24.25 23.1
819.971 21.27 19.37 16.91 13.92 11.08 8.65 6.86 5.61 4.68 4.04
839.264 3.65 3.38 3.19 3.0504 3.0028 2.9876 2.9604 2.9443 2.9744 2.9866
858.558 2.9613 2.9598 2.9478 2.9559 2.9855 2.9531 2.916 2.9107 2.9285 2.9819
877.851 3.0637 3.13 3.18 3.27 3.39 3.5 3.64 3.75 3.78 3.79
897.145 3.72 3.59 3.49 3.39 3.3 3.21 3.12 3.09 3.0309 2.9527
916.438 2.9333 2.9861 3.12 3.32 3.57 3.89 4.3 4.89 5.75 6.87
935.732 8.47 10.68 13.7 17.69 22.64 28.51 35.14 41.77 46.66 48.44
955.025 48.1 46.11 42.62 38.1 31.44 23.69 17.16 12.55 9.56 7.6
974.318 6.36 5.56 4.97 4.48 4.15 3.89 3.67 3.48 3.3 3.22
993.612 3.0808 2.9671 2.9706 2.9594 2.9314 2.9972 3.16 3.43 3.9 4.51
1012.905 5.19 5.77 6 6.08 6.09 5.99 5.86 5.41 4.74 4.2
1032.199 3.91 3.81 3.78 3.82 3.91 4.02 4.17 4.25 4.32 4.45
1051.492 4.68 4.91 5.03 5.24 5.5 5.74 5.98 6.3 6.67 7.11
1070.786 7.69 8.41 9.39 10.66 12.14 13.9 15.88 17.97 20.04 21.93
1090.079 23.41 24.35 24.66 24.11 22.68 20.9 18.82 16.51 14.41 12.65
1109.372 11.24 10.18 9.31 8.62 8.16 7.98 7.99 8.09 8.37 8.9
1128.666 9.74 11.1 13.01 15.62 19.19 23.7 29.4 36.68 45.86 57.27
1147.959 71.32 88.46 108.83 131.5 154.35 173.98 186.89 191.61 188.51 178.64
1167.253 162.97 141.79 115.69 87.8 63.34 45.59 34.04 26.52 21.43 17.73
1186.546 14.78 12.47 10.69 9.25 8.14 7.4 6.94 6.59 6.31 6.14
1205.840 5.91 5.66 5.44 5.29 5.03 4.75 4.55 4.2 3.96 3.87
1225.133 3.76 3.71 3.74 3.71 3.62 3.71 3.8 3.79 3.75 3.76
1244.426 3.83 3.91 4.01 4.14 4.32 4.55 4.73 4.9 5.15 5.44
1263.720 5.72 6.02 6.34 6.74 7.04 7.31 7.61 7.81 8.03 8.26
1283.013 8.5 8.79 9.12 9.6 10.32 11.23 12.38 13.75 15.26 16.89
1302.307 18.56 20.13 21.91 24.09 26.19 28.26 30.69 33.79 36.34 37.7
1321.600 39.89 43.31 47.5 52.59 58.73 66.29 75.5 86.16 97.61 109.07
1340.894 119.33 126.77 130.26 129.96 126.9 121.96 115.16 104.84 90.77 75.42
1360.187 60.89 48.18 37.73 29.5 23.2 18.67 15.55 13.52 12.32 11.66
1379.480 11.36 11.22 11.15 11.15 11.15 11.15 11.11 10.96 10.82 10.8
1398.774 10.83 10.93 11.04 11.15 11.22 11.25 11.28 11.25 11.11 10.74
1418.067 10.34 9.95 9.51 9.08 8.59 8.09 7.59 7.13 6.71 6.36
1437.361 6.12 5.89 5.72 5.57 5.38 5.23 5.15 5.1 5.03 4.98
1456.654 4.89 4.86 4.9 4.95 5 5.07 5.12 5.19 5.27 5.32
1475.948 5.41 5.56 5.78 6.12 6.57 7.13 7.81 8.58 9.37 9.91
1495.241 10.15 10.14 9.95 9.58 9.05 8.24 7.08 6.04 5.3 4.77
1514.534 4.46 4.25 4.08 3.99 3.96 3.82 3.66 3.61 3.56 3.49
1533.828 3.44 3.41 3.4 3.35 3.29 3.23 3.23 3.23 3.25 3.31
1553.121 3.35 3.43 3.55 3.67 3.76 3.88 4.07 4.23 4.37 4.55
1572.415 4.77 5.01 5.21 5.42 5.74 6.17 6.8 7.59 8.48 9.56
1591.708 10.82 12.13 13.26 14.1 14.5 14.47 14.11 13.32 12.2 10.88
1611.002 9.39 7.94 6.78 5.91 5.25 4.79 4.46 4.18 3.98 3.79
1630.295 3.66 3.6 3.51 3.43 3.39 3.39 3.41 3.44 3.43 3.41
1649.588 3.36 3.31 3.22 3.0492 2.9412 2.8297 2.7067 2.5774 2.3802 2.2575
1668.882 2.2134 2.10946 2.0082 1.93 1.867 1.847 1.821 1.852 1.838 1.752
1688.175 1.713 1.709 1.702 1.713 1.738 1.729 1.731 1.708 1.688 1.702
1707.469 1.695 1.731 1.799 1.804 1.828 1.875 1.853 1.815 1.84 1.86
1726.762 1.86 1.83 1.772 1.748 1.713 1.72 1.735 1.741 1.762 1.78
1746.056 1.829 1.851 1.835 1.855 1.909 1.977 2.0267 2.0372 2.08455 2.1089
1765.349 2.08405 2.08992 2.11842 2.14293 2.13437 2.0955 2.08197 2.09792 2.15355 2.2292
1784.642 2.2806 2.4222 2.5463 2.6434 2.8086 2.9552 3.0746 3.12 3.11 3.0237
1803.936 2.9574 2.8805 2.6697 2.4544 2.2475 2.052 1.928 1.844 1.794 1.75
1823.229 1.72 1.708 1.713 1.758 1.755 1.724 1.748 1.725 1.741 1.792
1842.523 1.757 1.774 1.784 1.775 1.794 1.785 1.774 1.783 1.818 1.838
1861.816 1.843 1.823 1.842 1.854 1.864 1.93 1.982 1.9987 2.0296 2.0567
1881.110 2.0737 2.15089 2.2321 2.2859 2.3669 2.4578 2.5291 2.6428 2.8139 2.9452
1900.403 3.0896 3.27 3.41 3.55 3.67 3.75 3.76 3.69 3.63 3.57
1919.696 3.44 3.22 3.0195 2.8686 2.6934 2.5305 2.3833 2.2215 2.08817 2.0076
1938.990 1.971 1.908 1.83 1.77 1.736 1.728 1.719 1.722 1.72 1.693
1958.283 1.638 1.618 1.6 1.607 1.633 1.581 1.593 1.645 1.629 1.593
1977.577 1.567 1.581 1.575 1.547 1.549 1.513 1.499 1.498 1.49 1.518
1996.870 1.57 1.574 1.559 1.556 1.551 1.564 1.612 1.623 1.624 1.645
2016.164 1.616 1.618 1.605 1.55 1.536 1.537 1.561 1.553 1.577 1.623
2035.457 1.6 1.622 1.646 1.623 1.664 1.698 1.681 1.719 1.789 1.82
2054.750 1.843 1.853 1.86 1.88 1.86 1.836 1.801 1.787 1.791 1.758
2074.044 1.727 1.732 1.714 1.637 1.613 1.611 1.587 1.587 1.586 1.594
2093.337 1.588 1.592 1.618 1.613 1.619 1.64 1.663 1.665 1.666 1.662
2112.631 1.683 1.697 1.659 1.628 1.609 1.595 1.595 1.561 1.518 1.523
2131.924 1.523 1.508 1.502 1.5 1.477 1.463 1.445 1.437 1.47 1.456
2151.218 1.436 1.441 1.447 1.475 1.468 1.452 1.493 1.506 1.511 1.561
2170.511 1.584 1.597 1.626 1.61 1.627 1.695 1.714 1.657 1.625 1.653
2189.804 1.67 1.675 1.63 1.603 1.571 1.562 1.601 1.582 1.532 1.529
2209.098 1.542 1.51 1.473 1.481 1.485 1.476 1.527 1.591 1.625 1.631
2228.391 1.627 1.664 1.705 1.732 1.811 1.896 1.932 1.977 2.0579 2.13648
2247.685 2.15878 2.2091 2.2773 2.2738 2.2433 2.1997 2.1997 2.238 2.2254 2.16714
2266.978 2.12659 2.10478 2.08701 2.0529 2.002 1.956 1.883 1.854 1.876 1.877
2286.272 1.858 1.872 1.947 1.965 1.951 1.9968 2.014 2.0034 2.0203 2.0311
2305.565 2.0244 1.979 1.942 1.941 1.892 1.831 1.827 1.84 1.818 1.781
2324.858 1.741 1.728 1.708 1.668 1.661 1.626 1.618 1.602 1.586 1.582
2344.152 1.555 1.552 1.562 1.559 1.592 1.609 1.641 1.678 1.664 1.67
2363.445 1.649 1.64 1.63 1.621 1.593 1.623 1.652 1.65 1.696 1.679
2382.739 1.657 1.685 1.69 1.713 1.734 1.738 1.745 1.729 1.712 1.728
2402.032 1.781 1.798 1.789 1.756 1.754 1.778 1.806 1.821 1.783 1.796
2421.326 1.821 1.805 1.783 1.788 1.787 1.772 1.783 1.806 1.806 1.788
2440.619 1.782 1.79 1.764 1.734 1.71 1.662 1.657 1.645 1.629 1.636
2459.912 1.658 1.677 1.677 1.675 1.672 1.702 1.714 1.712 1.728 1.736
2479.206 1.765 1.809 1.844 1.909 1.969 1.967 2.0061 2.0727 2.10141 2.11884
2498.499 2.12752 2.14072 2.1113 2.0702 2.0606 2.0278 1.956 1.904 1.874 1.83
2517.793 1.783 1.74 1.693 1.671 1.623 1.571 1.57 1.533 1.533 1.554
2537.086 1.548 1.548 1.509 1.522 1.565 1.592 1.624 1.643 1.693 1.672
2556.380 1.629 1.692 1.737 1.705 1.688 1.712 1.709 1.718 1.726 1.737
2575.673 1.788 1.818 1.845 1.866 1.871 1.887 1.881 1.843 1.852 1.865
2594.966 1.856 1.825 1.729 1.696 1.701 1.638 1.589 1.613 1.631 1.67
2614.260 1.717 1.739 1.724 1.679 1.691 1.642 1.588 1.513 1.387 1.365
2633.553 1.33 1.265 1.254 1.243 1.298 1.32 1.302 1.332 1.321 1.293
2652.847 1.308 1.302 1.286 1.312 1.333 1.401 1.436 1.377 1.355 1.429
2672.140 1.457 1.481 1.542 1.585 1.608 1.628 1.673 1.699 1.678 1.672
2691.434 1.645 1.62 1.571 1.481 1.434 1.403 1.36 1.304 1.28 1.305
2710.727 1.299 1.275 1.35 1.378 1.346 1.355 1.348 1.371 1.361 1.386
2730.020 1.431 1.444 1.484 1.557 1.702 1.723 1.683 1.68 1.752 1.837
2749.314 1.8 1.735 1.685 1.66 1.606 1.534 1.509 1.44 1.401 1.379
2768.607 1.367 1.371 1.333 1.355 1.364 1.333 1.372 1.354 1.337 1.366
2787.901 1.396 1.462 1.452 1.473 1.538 1.551 1.54 1.537 1.538 1.545
2807.194 1.542 1.582 1.599 1.592 1.628 1.611 1.627 1.657 1.562 1.482
2826.488 1.597 1.702 1.692 1.737 1.78 1.814 1.916 2.0117 2.0742 2.14123
2845.781 2.2855 2.3995 2.4351 2.5661 2.7746 3.0082 3.32 3.61 3.84 4.12
2865.074 4.43 4.76 5.13 5.4 5.75 6.03 6.12 6.27 6.33 6.32
2884.368 6.29 6.2 6.06 5.98 5.88 5.71 5.55 5.47 5.46 5.46
2903.661 5.47 5.43 5.46 5.69 5.87 6.11 6.43 6.82 7.43 8.12
2922.955 8.81 9.65 10.63 11.51 12.43 13.14 13.53 13.76 13.69 13.31
2942.248 12.53 11.54 10.45 9.38 8.5 7.63 6.84 6.23 5.77 5.37
2961.542 5.07 4.93 4.85 4.72 4.67 4.57 4.44 4.36 4.36 4.46
2980.835 4.47 4.65 4.8 4.89 5.14 5.3 5.42 5.53 5.59 5.78
3000.128 5.99 6.09 6.13 6.34 6.64 6.93 7.22 7.38 7.7 8.16
3019.422 8.53 8.87 9.36 9.95 10.6 11.22 11.75 12.21 12.51 12.68
3038.715 12.7 12.57 12.24 11.74 11.3 10.86 10.54 10.44 10.31 10.17
3058.009 10.15 10.12 10.13 10.15 9.87 9.39 8.9 8.4 7.76 6.97
3077.302 6.21 5.55 5.04 4.67 4.4 4.33 4.28 4.13 3.96 3.72
3096.596 3.47 3.19 2.9008 2.6967 2.4034 2.24 2.10504 1.968 1.894 1.662
3115.889 1.556 1.491 1.306 1.354 1.415 1.209 1.12 1.122 1.06 0.97
3135.182 0.94 0.9 0.88 0.87 0.82 0.73 0.65 0.57 0.58 0.54
3154.476 0.56 0.58 0.47 0.47 0.48 0.51 0.56 0.48 0.38 0.36
3173.769 0.38 0.5 0.56 0.4 0.37 0.34 0.36 0.42 0.44 0.55
3193.063 0.47 0.41 0.43 0.36 0.32 0.38 0.4 0.37 0.4 0.44
3212.356 0.35 0.3 0.3 0.28 0.34 0.34 0.31 0.24 0.07 0.11
3231.650 0.37 0.41 0.29 0.24 0.19 0.12 0.18 0.24 0.21 0.17
3250.943 0.11 0.01 0.02 0.05 0.08 0.17 0.23 0.29 0.31 0.22
3270.236 0.04 0 0.18 0.22 0.1 0.14 0.09 0.16 0.2 0.09
3289.530 0.02 0.06 0.19 0.17 0.1 0.07 0.09 0.08 0.06 0.04
3308.823 0.05 0.13 0.19 0.23 0.23 0.2 0.27 0.33 0.27 0.2
3328.117 0.14 0.05 0.05 0.09 0.04 0.16 0.3 0.18 0.18 0.33
3347.410 0.33 0.29 0.27 0.22 0.21 0.26 0.25 0.17 0.17 0.25
3366.704 0.24 0.12 0.03 0.1 0.2 0.26 0.24 0.11 0.13 0.2
3385.997 0.26 0.31 0.3 0.26 0.18 0.12 0.06 0.05 0.09 0.02
3405.290 0.09 0.23 0.22 0.18 0.15 0.24 0.39 0.32 0.16 0.08
3424.584 0.11 0.26 0.29 0.25 0.25 0.21 0.12 0.15 0.18 0.15
3443.877 0.23 0.28 0.29 0.24 0.16 0.11 0.12 0.17 0.12 0.15
3463.171 0.21 0.21 0.3 0.34 0.26 0.26 0.22 0.18 0.24 0.4
3482.464 0.42 0.36 0.39 0.48 0.47 0.34 0.26 0.23 0.26 0.26
3501.758 0.33 0.33 0.22 0.18 0.21 0.31 0.3 0.32 0.43 0.39
3521.051 0.37 0.41 0.46 0.44 0.38 0.42 0.49 0.43 0.35 0.36
3540.344 0.49 0.58 0.52 0.44 0.48 0.54 0.49 0.44 0.43 0.43
3559.638 0.54 0.65 0.54 0.42 0.48 0.5 0.45 0.51 0.58 0.51
3578.931 0.48 0.54 0.55 0.52 0.55 0.52 0.5 0.42 0.45 0.64
3598.225 0.67 0.66 0.53 0.49 0.6 0.63 0.49 0.42 0.43 0.45
3617.518 0.58 0.63 0.63 0.6 0.57 0.65 0.62 0.68 0.64 0.56
3636.812 0.63 0.61 0.62 0.71 0.75 0.67 0.68 0.75 0.77 0.79
3656.105 0.76 0.79 0.8 0.78 0.82 0.87 0.91 0.88 0.86 0.96
3675.398 0.92 0.84 0.88 0.96 0.95 0.86 0.86 0.94 0.95 0.93
3694.692 0.93 0.91 0.92 0.91 0.84 0.82 0.81 0.73 0.75 0.8
3713.985 0.85 0.83 0.77 0.79 0.82 0.81 0.88 1.03 0.87 0.72
3733.279 0.84 0.86 0.8 0.78 0.74 0.8 0.85 0.8 0.82 0.83
3752.572 0.76 0.8 0.86 0.88 0.83 0.81 0.84 0.84 0.87 0.95
3771.866 0.93 0.8 0.81 0.9 0.93 0.86 0.8 0.79 0.78 0.82
3791.159 0.88 0.93 0.9 0.85 0.87 0.93 0.94 0.9 0.89 0.91
3810.452 0.88 0.91 1.01 0.89 0.89 0.92 0.9 0.96 0.96 0.94
3829.746 0.92 0.92 0.95 1 0.98 0.97 0.93 0.87 0.93 0.98
3849.039 0.89 0.93 1.01 1.02 1 1 1.01 1.07 1.097 0.98
3868.333 1 1.02 1.01 1.06 1.142 1.305 1.386 1.357 1.276 1.204
3887.626 1.238 1.303 1.323 1.346 1.292 1.245 1.183 1.08 1.118 1.222
3906.920 1.168 1.162 1.164 1.05 1.02 1.05 1.04 1.05 0.99 0.88
3926.213 0.91 0.97 0.98 0.95 0.94 0.92 0.95 0.99 0.99 1
3945.506 1.106 1.08 0.98 1.08 1.157 1.164 1.19 1.196 1.155 1.136
3964.800 1.237 1.261 1.225 1.344 1.405 1.367 1.29 1.231 1.248 1.208
3984.093 1.211 1.189 1.134 1.197 1.16 1.08 1.094 1.05 1.07
##END=
