##TITLE=Methyl 2-fluorobenzoate
##JCAMP-DX=4.24
##DATA TYPE=INFRARED SPECTRUM
##ORIGIN=EPA-IR VAPOR PHASE LIBRARY
##OWNER=SRD/NIST
Collection (C) 2018 copyright by the U.S. Secretary of Commerce
on behalf of the United States of America. All rights reserved.
##CAS REGISTRY NO=394-35-4
##MOLFORM=C 8 H 7 F O 2
##$NIST SOURCE=MSDC-IR
##STATE=gas
##XUNITS=1/CM
##YUNITS=ABSORBANCE
##XFACTOR=1.
##YFACTOR=0.001
##DELTAX=1.92898
##FIRSTX=549.8
##LASTX=4000.7
##FIRSTY=8.022
##MAXX=4000.7
##MINX=549.759
##MAXY=0.267582
##MINY=0
##NPOINTS=1790
##XYDATA=(X++(Y..Y))
549.759 8.022 7.932 7.502 6.432 5.422 4.872 4.612 4.412 4.062 3.652
569.049 3.062 2.572 2.382 1.962 1.472 1.452 1.0188 0.5913 0.5674 0.7101
588.339 0.8565 0.7191 0.46302 0.5133 0.7927 0.7252 0.7375 0.762 0.7607 0.8978
607.628 0.8332 0.7164 0.81 0.7856 0.8997 1.0342 0.9637 1.1312 1.1368 0.9903
626.918 0.7785 0.8458 1.1768 1.305 1.502 1.612 2.072 2.842 3.842 5.432
646.208 7.432 9.352 10.712 11.902 12.722 13.172 13.362 13.132 12.302 10.442
665.498 8.232 6.342 5.042 4.382 4.552 5.152 5.582 6.302 7.212 8.002
684.787 8.822 9.732 10.922 12.532 13.412 13.032 12.272 11.482 10.812 9.932
704.077 8.862 7.702 6.562 5.752 5.062 4.662 4.222 3.622 3.382 3.512
723.367 3.722 4.162 5.062 6.342 8.162 10.562 14.072 19.042 25.182 32.292
742.657 39.582 46.672 53.552 61.182 71.322 85.072 99.532 99.992 82.412 67.032
761.947 60.252 54.992 49.062 42.112 34.652 27.642 21.702 17.142 13.962 12.082
781.236 11.312 11.122 11.402 12.062 12.902 13.832 14.492 14.592 14.082 13.542
800.526 13.612 13.582 12.732 11.282 9.942 8.602 7.322 6.552 6.072 5.902
819.816 5.952 6.142 6.722 7.492 8.552 10.212 11.912 13.382 14.722 15.582
839.106 16.252 17.182 18.162 18.662 17.952 16.502 15.012 13.502 12.262 10.902
858.395 9.172 7.852 7.222 6.832 6.382 5.752 5.362 5.242 5.042 4.902
877.685 4.622 4.292 4.212 3.972 3.812 3.392 3.082 3.042 2.722 2.372
896.975 2.092 1.992 1.842 1.652 1.652 1.592 1.582 1.652 1.512 1.572
916.265 1.762 1.752 1.782 2.092 2.432 2.562 2.702 2.932 2.992 3.022
935.555 3.392 4.002 4.462 4.732 5.152 5.672 5.942 6.242 6.722 7.122
954.844 7.432 7.632 8.162 8.632 8.752 8.842 8.902 8.992 8.762 8.182
974.134 7.572 6.922 6.092 5.252 4.462 3.732 3.272 2.882 2.532 2.502
993.424 2.632 2.592 2.632 2.762 2.922 2.932 2.942 3.052 3.242 4.022
1012.714 4.802 5.412 6.482 8.352 10.602 13.402 16.362 18.892 20.922 22.402
1032.003 23.182 23.252 22.912 22.082 20.872 18.912 16.492 14.092 11.992 10.832
1051.293 10.602 10.522 10.852 11.792 13.032 14.732 17.042 20.162 23.922 28.382
1070.583 34.112 41.122 48.622 56.912 64.922 71.542 77.082 80.872 83.112 83.752
1089.873 82.242 78.242 72.162 65.182 57.962 51.542 45.992 41.642 39.282 39.272
1109.163 41.952 46.862 54.292 64.812 76.572 87.542 97.122 103.832 107.352 108.612
1128.452 107.552 103.522 95.522 83.942 70.282 56.952 46.052 38.652 35.222 35.262
1147.742 37.722 40.142 41.092 41.752 42.262 42.172 41.642 40.272 37.372 32.702
1167.032 27.492 22.822 20.012 18.332 17.392 17.442 17.922 18.472 19.282 20.392
1186.322 21.552 22.872 23.822 24.562 25.162 25.582 25.482 25.312 25.342 25.102
1205.611 25.702 26.212 26.892 28.292 30.592 34.252 38.572 43.882 49.492 55.842
1224.901 63.202 70.812 78.362 86.272 94.472 102.782 111.282 120.772 131.682 143.502
1244.191 154.282 161.772 167.152 171.172 172.022 170.042 165.632 156.272 142.582 127.952
1263.481 114.512 103.052 94.422 89.902 89.422 92.142 97.162 103.932 112.452 122.272
1282.771 133.152 145.962 161.142 178.952 199.062 220.402 240.762 256.732 265.882 267.582
1302.060 262.652 251.572 234.182 210.212 179.442 144.552 110.522 81.852 60.882 46.822
1321.350 37.502 31.172 26.712 23.312 20.652 18.502 16.682 15.192 13.952 12.862
1340.640 12.002 11.382 10.862 10.472 10.222 10.002 9.802 9.592 9.392 9.202
1359.930 9.032 8.872 8.642 8.402 8.152 7.972 7.852 7.752 7.672 7.572
1379.219 7.442 7.332 7.232 7.142 7.042 6.982 6.862 6.742 6.722 6.882
1398.509 7.072 7.202 7.392 7.742 8.122 8.562 9.062 9.532 10.052 10.682
1417.799 11.492 12.512 13.952 16.062 19.172 23.352 28.342 33.352 37.562 41.012
1437.089 45.022 48.612 51.782 55.922 59.142 61.272 64.542 69.432 74.482 78.012
1456.378 79.382 79.452 78.832 76.712 73.042 66.582 56.712 46.662 39.782 36.802
1475.668 36.762 38.602 41.562 45.062 48.602 51.522 53.202 53.752 53.752 53.412
1494.958 52.282 49.752 45.892 41.042 35.822 30.802 26.122 22.052 18.712 16.042
1514.248 13.862 12.092 10.742 9.662 8.712 7.952 7.372 6.902 6.562 6.372
1533.538 6.282 6.212 6.162 6.202 6.382 6.542 6.752 7.042 7.432 7.842
1552.827 8.312 8.902 9.502 10.202 11.082 11.952 12.842 13.792 14.912 16.082
1572.117 17.252 18.372 19.482 20.552 21.392 22.022 22.642 23.022 23.342 23.922
1591.407 24.682 25.642 26.992 29.102 32.022 35.872 40.312 44.662 48.392 51.172
1610.697 52.642 52.782 51.772 49.372 45.762 41.282 36.182 30.992 26.302 22.182
1629.986 18.702 15.932 13.632 11.772 10.342 9.292 8.372 7.572 6.962 6.512
1649.276 6.102 5.792 5.562 5.292 5.122 5.052 5.042 5.102 5.212 5.292
1668.566 5.432 5.742 6.062 6.422 6.842 7.182 7.592 8.142 8.692 9.282
1687.856 10.002 10.732 11.552 12.402 13.242 14.232 15.432 16.732 18.072 19.762
1707.146 21.722 23.942 26.622 30.042 34.072 38.582 43.832 50.192 58.302 68.472
1726.435 80.772 95.032 110.812 126.462 140.142 150.102 156.872 163.662 171.972 180.242
1745.725 185.122 185.362 181.992 176.192 168.202 157.702 145.912 136.432 131.122 127.022
1765.015 118.922 106.032 91.372 78.372 67.772 59.272 52.232 46.222 41.222 36.872
1784.305 32.882 29.112 25.492 22.082 19.062 16.552 14.472 12.712 11.312 10.212
1803.594 9.282 8.502 7.932 7.442 6.912 6.462 6.112 5.682 5.312 5.002
1822.884 4.712 4.482 4.252 4.072 3.922 3.732 3.592 3.502 3.352 3.192
1842.174 3.102 2.972 2.832 2.662 2.532 2.382 2.252 2.262 2.192 2.112
1861.464 2.082 2.132 2.192 2.162 2.182 2.182 2.162 2.222 2.352 2.432
1880.754 2.452 2.492 2.502 2.492 2.572 2.632 2.632 2.692 2.812 2.952
1900.043 3.042 3.182 3.442 3.682 3.892 4.202 4.482 4.792 5.122 5.402
1919.333 5.712 5.922 5.942 5.892 5.762 5.572 5.472 5.262 4.932 4.722
1938.623 4.522 4.332 4.132 3.952 3.832 3.662 3.552 3.312 3.082 2.972
1957.913 2.812 2.602 2.352 2.182 1.982 1.792 1.732 1.672 1.682 1.672
1977.202 1.582 1.492 1.462 1.482 1.562 1.592 1.572 1.662 1.642 1.602
1996.492 1.612 1.642 1.702 1.732 1.742 1.732 1.692 1.622 1.562 1.512
2015.782 1.432 1.472 1.582 1.612 1.672 1.732 1.802 1.942 2.052 2.122
2035.072 2.212 2.252 2.272 2.402 2.552 2.592 2.542 2.522 2.562 2.582
2054.362 2.542 2.462 2.442 2.472 2.462 2.372 2.312 2.302 2.302 2.402
2073.651 2.502 2.562 2.672 2.782 2.942 3.102 3.252 3.472 3.592 3.652
2092.941 3.702 3.662 3.562 3.522 3.422 3.122 2.782 2.492 2.282 2.112
2112.231 1.932 1.802 1.712 1.582 1.492 1.482 1.452 1.412 1.3504 1.2228
2131.521 1.2826 1.382 1.3493 1.3182 1.2848 1.2722 1.2693 1.2545 1.216 1.2467
2150.810 1.27 1.299 1.2811 1.163 1.1437 1.0673 0.9873 1.0267 0.9958 0.9307
2170.100 0.9363 0.9452 0.8643 0.8179 0.8577 0.8646 0.8272 0.7876 0.7547 0.7391
2189.390 0.8432 0.8959 0.8202 0.8111 0.8213 0.8424 0.9517 1.0361 1.0222 1.0609
2208.680 1.0917 1.0919 1.1088 1.1464 1.2247 1.2172 1.1559 1.1507 1.1927 1.1779
2227.970 1.1898 1.1578 1.0546 1.0715 1.053 1.0128 1.0522 1.0484 1.0592 1.12
2247.259 1.1346 1.1567 1.2149 1.1438 1.115 1.1728 1.2442 1.3112 1.3313 1.3606
2266.549 1.3226 1.3201 1.402 1.392 1.3521 1.377 1.355 1.3631 1.3602 1.392
2285.839 1.422 1.3774 1.3088 1.2542 1.2012 1.1783 1.1418 1.0922 1.1283 1.1967
2305.129 1.1878 1.1518 1.1555 1.2107 1.2546 1.2223 1.211 1.2391 1.2705 1.215
2324.418 1.1969 1.2751 1.2941 1.252 1.2474 1.2272 1.1505 1.1967 1.2792 1.2776
2343.708 1.2499 1.1494 1.0786 1.0611 1.0487 1.018 0.9819 0.9657 0.9603 0.9641
2362.998 1.0778 1.1347 0.9928 0.9903 1.0346 1.0738 1.1521 1.1717 1.2715 1.2967
2382.288 1.229 1.2332 1.271 1.3229 1.3241 1.3236 1.3494 1.347 1.3261 1.3466
2401.578 1.3566 1.2819 1.2374 1.2932 1.2374 1.1849 1.2058 1.2017 1.2236 1.1771
2420.867 1.1479 1.1085 1.0754 1.1331 1.1699 1.1483 1.039 1.0003 1.0426 1.0749
2440.157 1.1044 1.1261 1.258 1.2909 1.2014 1.2151 1.2774 1.2986 1.3164 1.392
2459.447 1.402 1.392 1.442 1.422 1.402 1.462 1.412 1.3631 1.412 1.3709
2478.737 1.2936 1.2417 1.2194 1.2118 1.1815 1.1043 1.0656 1.1792 1.1527 0.9987
2498.026 1.0364 1.0489 1.0068 1.0003 1.0216 1.0207 1.0085 0.9601 0.8565 0.9265
2517.316 0.943 0.8876 0.9616 1.0497 1.1759 1.2323 1.2152 1.2413 1.1788 1.2197
2536.606 1.3064 1.3011 1.2743 1.2726 1.2598 1.111 1.0794 1.1155 1.0791 1.0806
2555.896 1.066 1.1166 1.1878 1.1865 1.1239 0.998 0.9577 1 1.0774 1.2412
2575.186 1.327 1.2884 1.2834 1.2607 1.2356 1.2151 1.2082 1.2977 1.3168 1.3627
2594.475 1.412 1.3616 1.3452 1.2675 1.1345 1.0862 1.062 1.0262 1.0622 1.0019
2613.765 1.0104 1.0192 0.8173 0.6919 0.742 0.7858 0.7582 0.7319 0.638 0.566
2633.055 0.6597 0.695 0.6825 0.6883 0.7424 0.722 0.6033 0.5886 0.6003 0.6047
2652.345 0.6081 0.6147 0.6598 0.6468 0.5454 0.543 0.583 0.5722 0.5289 0.47331
2671.634 0.5048 0.5778 0.5285 0.5161 0.5626 0.566 0.5552 0.5453 0.5766 0.6418
2690.924 0.5807 0.5789 0.6889 0.7434 0.7459 0.6728 0.6733 0.6982 0.6712 0.738
2710.214 0.73 0.6743 0.7343 0.7402 0.7196 0.76 0.7831 0.7094 0.7983 0.871
2729.504 0.818 0.8553 0.897 0.8555 0.9565 1.1102 1.0239 0.9274 0.9409 0.9714
2748.794 0.9692 0.8796 0.8503 0.909 0.9458 0.9259 0.8099 0.8339 0.7856 0.6677
2768.083 0.7836 0.8198 0.7323 0.7616 0.8039 0.7734 0.6534 0.5464 0.611 0.7204
2787.373 0.8701 0.8282 0.7679 0.8331 0.7511 0.7572 0.9512 0.9678 0.8677 0.9135
2806.663 0.8726 0.8334 1.0116 1.1497 1.0596 1.1507 1.392 1.381 1.412 1.582
2825.953 1.762 1.952 2.232 2.502 2.822 3.262 3.762 4.422 5.342 6.082
2845.242 6.502 6.852 6.942 7.072 7.062 6.712 6.192 5.522 4.722 3.992
2864.532 3.532 3.222 3.072 3.062 3.102 3.022 2.942 3.122 3.342 3.502
2883.822 3.762 4.122 4.402 4.622 4.952 5.292 5.442 5.612 5.942 6.292
2903.112 6.412 6.402 6.692 7.072 7.112 7.112 7.032 6.862 6.832 6.712
2922.401 6.742 6.842 6.602 6.382 6.472 6.522 6.592 6.982 7.512 8.272
2941.691 9.352 10.722 12.622 15.442 19.302 24.082 29.482 34.162 37.252 38.842
2960.981 39.512 39.252 37.732 35.622 32.522 27.622 21.852 16.912 13.372 11.072
2980.271 9.712 8.972 8.682 8.552 8.532 8.722 9.012 9.382 9.842 10.042
2999.561 10.332 10.852 11.172 11.132 10.922 10.842 10.762 10.702 10.672 10.592
3018.850 10.462 10.492 10.522 10.452 10.452 10.442 10.442 10.452 10.462 10.442
3038.140 10.412 10.452 10.372 10.202 10.092 9.912 9.912 10.112 10.052 9.922
3057.430 9.872 9.962 10.062 10.112 10.252 10.542 11.002 11.482 12.012 12.682
3076.720 13.372 13.912 14.422 14.922 15.252 15.172 14.812 14.272 13.502 12.552
3096.009 11.692 10.802 9.572 8.312 7.092 5.862 4.902 4.252 3.902 3.632
3115.299 3.332 3.002 2.712 2.592 2.492 2.272 1.962 1.772 1.802 1.802
3134.589 1.602 1.482 1.532 1.592 1.552 1.532 1.552 1.492 1.522 1.582
3153.879 1.412 1.2961 1.2698 1.3221 1.3782 1.2475 1.2075 1.1708 1.2145 1.3772
3173.169 1.3073 1.1271 1.0792 1.0281 0.9335 0.9359 0.9684 0.863 0.8735 0.9689
3192.458 0.987 0.9749 0.7898 0.7008 0.6443 0.6651 0.711 0.6039 0.6718 0.6697
3211.748 0.6038 0.573 0.41138 0.329 0.44073 0.4892 0.42885 0.346 0.39281 0.38792
3231.038 0.3379 0.3458 0.271 0.2879 0.2975 0.222 0.1 0.25 0.489 0.46046
3250.328 0.2945 0.209 0.239 0.3307 0.274 0.2 0.3331 0.3274 0.271 0.3532
3269.617 0.43012 0.3603 0.256 0.245 0.3628 0.43844 0.351 0.41119 0.4168 0.3126
3288.907 0.276 0.3235 0.3562 0.4926 0.5434 0.3565 0.3521 0.37508 0.3555 0.276
3308.197 0.126 0.237 0.3487 0.3242 0.244 0.158 0.233 0.3425 0.273 0.181
3327.487 0.473 0.44024 0.232 0.262 0.278 0.3692 0.281 0.248 0.3333 0.277
3346.777 0.2987 0.40804 0.40734 0.4844 0.5097 0.558 0.5665 0.40815 0.37735 0.4943
3366.066 0.5535 0.44247 0.3078 0.238 0.3293 0.5345 0.4976 0.3568 0.3759 0.5405
3385.356 0.4868 0.3304 0.2843 0.214 0.221 0.3132 0.3359 0.42381 0.41554 0.2916
3404.646 0.3098 0.43696 0.5798 0.42027 0.205 0.263 0.5211 0.5309 0.5435 0.655
3423.936 0.6134 0.5472 0.44868 0.386116 0.5051 0.6749 0.6374 0.6418 0.7974 0.8702
3443.225 0.7923 0.7702 1.0099 1.2534 1.2948 1.2919 1.432 1.442 1.442 1.642
3462.515 1.632 1.512 1.502 1.482 1.3212 1.2417 1.2712 1.3351 1.492 1.442
3481.805 1.3252 1.462 1.422 1.402 1.612 1.602 1.692 1.732 1.652 1.662
3501.095 1.552 1.612 1.602 1.3802 1.2462 1.1318 1.0185 0.9697 0.8731 0.8459
3520.385 0.8283 0.6978 0.7624 0.7706 0.6688 0.5518 0.4677 0.41089 0.40399 0.40382
3539.674 0.3467 0.40371 0.42204 0.43956 0.5524 0.44987 0.24 0.255 0.254 0.124
3558.964 0 0.103 0.31 0.3386 0.3215 0.28 0.16 0.095 0.169 0.41618
3578.254 0.383844 0.2931 0.3381 0.3448 0.3613 0.169 0.117 0.2829 0.3462 0.3275
3597.544 0.2875 0.259 0.2926 0.177 0.162 0.261 0.17 0.213 0.252 0.281
3616.833 0.43968 0.37621 0.23 0.052 0.068 0.256 0.216 0.17 0.124 0.108
3636.123 0.219 0.3274 0.3644 0.227 0.201 0.3445 0.43961 0.42883 0.242 0.248
3655.413 0.41816 0.48165 0.276 0.227 0.41424 0.3349 0.3177 0.385075 0.3555 0.3154
3674.703 0.204 0.108 0.186 0.237 0.2951 0.3716 0.382643 0.3269 0.205 0.2824
3693.993 0.3245 0.172 0.228 0.37748 0.34 0.256 0.41166 0.5537 0.24 0.169
3713.282 0.42441 0.46001 0.383954 0.252 0.241 0.259 0.3128 0.42824 0.3585 0.3658
3732.572 0.39594 0.173 0.221 0.179 0.076 0.202 0.239 0.3716 0.3481 0.27
3751.862 0.255 0.252 0.248 0.187 0.265 0.3707 0.45522 0.3255 0.065 0.082
3771.152 0.104 0.157 0.203 0.208 0.2871 0.3605 0.254 0.097 0.201 0.225
3790.441 0.116 0.099 0.213 0.2888 0.188 0.154 0.194 0.235 0.266 0.239
3809.731 0.25 0.3478 0.265 0.135 0.269 0.3036 0.246 0.3339 0.3128 0.3399
3829.021 0.47635 0.3607 0.279 0.3128 0.3281 0.162 0.112 0.034 0.044 0.3672
3848.311 0.47076 0.42604 0.3705 0.3111 0.22 0.194 0.256 0.241 0.2945 0.3038
3867.601 0.18 0.224 0.2828 0.38619 0.4846 0.40909 0.386111 0.43112 0.3421 0.3212
3886.890 0.42775 0.57 0.5843 0.45808 0.5033 0.6435 0.668 0.6624 0.46952 0.3373
3906.180 0.3757 0.37995 0.4969 0.8224 0.8954 0.8215 0.8531 0.8647 0.7976 0.6782
3925.470 0.7353 0.8009 0.8444 0.9198 0.8054 0.5405 0.5491 0.5525 0.3936 0.40245
3944.760 0.42759 0.2976 0.2856 0.4946 0.4612 0.37866 0.46499 0.381735 0.216 0.137
3964.049 0.3327 0.37704 0.2981 0.41433 0.41013 0.3428 0.3347 0.46769 0.43221 0.42961
3983.339 0.4935 0.44068 0.47416 0.41972 0.48139 0.47433 0.3451 0.316 0.3532 0.4908
##END=
