##TITLE=4-(Trifluoroacetyl)toluene
##JCAMP-DX=4.24
##DATA TYPE=INFRARED SPECTRUM
##ORIGIN=EPA-IR VAPOR PHASE LIBRARY
##OWNER=SRD/NIST
Collection (C) 2018 copyright by the U.S. Secretary of Commerce
on behalf of the United States of America. All rights reserved.
##CAS REGISTRY NO=394-59-2
##MOLFORM=C 9 H 7 F 3 O
##$NIST SOURCE=MSDC-IR
##STATE=gas
##XUNITS=1/CM
##YUNITS=ABSORBANCE
##XFACTOR=1.
##YFACTOR=0.001
##DELTAX=1.92898
##FIRSTX=549.8
##LASTX=4000.7
##FIRSTY=1.952
##MAXX=4000.7
##MINX=549.759
##MAXY=0.06543
##MINY=0
##NPOINTS=1790
##XYDATA=(X++(Y..Y))
549.759 1.952 3.4951 2.8205 1.708 2.263 2.67296 1.41 0.16 0.61 1.2
569.049 1.32 1.853 2.8073 2.8215 2.44 2.331 1.995 1.91 2.416 2.7912
588.339 2.267 2.469 3.0352 3.5033 3.3409 2.406 2.036 2.5741 3.565 3.67
607.628 3.76 4.92 5.74 6.61 6.45 5.84 6.24 6.74 6.85 6.36
626.918 5.69 4.13 3.0817 2.72841 2.337 2.07 2.74862 3.89 3.6175 2.379
646.208 1.692 1.839 2.509 3.0656 2.9885 2.9347 2.512 1.997 1.936 2.012
665.498 2.333 2.7599 2.471 2.072 2.058 1.999 2.445 2.595 2.251 2.052
684.787 2.33 2.8647 3.0781 2.9241 2.69623 2.993 3.3136 2.9051 2.74738 2.9112
704.077 2.74746 2.322 2.244 2.292 2.345 3.03 3.2858 3.0601 3.552 3.99
723.367 4.36 4.64 5.67 7.32 8.52 9.35 9.69 10.72 11.24 11.19
742.657 11.1 10.13 9.47 9.74 10.36 10.6 9.84 8.63 7.93 7.3
761.947 6.01 5.64 5.32 3.97 3.2409 3.2315 3.4292 3.3356 3.621 3.68
781.236 2.523 2.7872 3.3433 2.974 3.3697 3.0646 2.183 2.451 2.7715 2.7925
800.526 2.9973 2.5901 2.288 2.9636 3.78 4.13 3.5233 2.8482 3.1652 2.33
819.816 0.91 2.6113 3.81 3.5874 4.12 4.22 4.33 3.94 4.13 4.33
839.106 3.97 4.36 4.55 4.15 3.86 4.05 4.33 3.86 3.3667 3.1523
858.395 2.8624 2.8519 3.0533 3.2991 3.3295 2.7695 2.446 3.1552 3.2588 3.5903
877.685 3.638 3.1185 3.0287 2.9954 3.4693 3.5359 3.3119 2.8942 2.489 2.8305
896.975 3.3649 3.5064 3.68 3.98 4.29 4.11 4 4.95 5.22 4.93
916.265 5.77 6.77 7.29 8.17 9.21 10.48 12.81 15.33 17.7 20.18
935.555 22.51 23.84 24.49 25.16 24.42 22.26 19.6 17.02 15.05 13.12
954.844 10.83 9.21 7.98 6.68 6.08 5.6 5.29 4.92 4.63 4.78
974.134 4.35 4.55 4.45 3.85 4.9 5.06 4.76 4.56 4.01 4.46
993.424 4.5 3.88 4.43 4.38 4.2 4.62 4.08 3.9 4.48 3.92
1012.714 3.84 4.66 4.15 3.2668 3.01 3.3701 3.6409 3.66 3.89 3.67
1032.003 3.4077 3.85 4.7 4.2 2.9727 3.3302 3.83 3.2105 3.2771 3.3788
1051.293 2.9268 3.6179 3.5085 3.2652 3.3558 3.6361 4.46 3.5653 2.71597 2.9158
1070.583 2.7757 3.82 4.27 2.71344 2.089 2.9995 3.2735 2.432 2.6372 3.2084
1089.873 3.83 4.56 2.64003 0 0.56 2.066 3.66 3.4665 1.696 2.018
1109.163 1.31 1.889 3.67 2.67056 3.0461 4.8 4.89 4.55 4.59 5.64
1128.452 6.42 7.49 8.91 10.48 12.38 12.25 13.34 15.36 18.24 22.61
1147.742 26.17 28.95 33.55 38.64 40.74 42.27 42.66 44.69 49.24 53.48
1167.032 56.8 60.7 64.36 65.21 65.43 62.61 56.69 49.74 41.5 32.29
1186.322 24.51 21.92 21.73 21.63 21.95 23.15 25.49 26.83 28.31 30.82
1205.611 33.05 35.54 35.48 32.72 31.18 26.99 23.07 20.88 18.44 16.36
1224.901 13.74 11.12 8.62 8.06 7.86 6.2 4.63 3.86 3.3078 3.2105
1244.191 2.8074 2.412 2.071 2.176 1.5 0.47 0.85 1.21 1.21 1.654
1263.481 2.029 1.42 1.36 2.251 1.792 1.769 2.188 2.346 2.544 2.239
1282.771 2.285 2.9112 2.8664 2.7616 2.8995 2.279 2.082 2.307 2.534 2.621
1302.060 2.907 3.0707 2.9659 3.4349 4.19 4.48 4.43 4.44 4.64 4.56
1321.350 4.81 5.01 4.83 5.1 4.97 4.71 4.56 4.41 4.39 4.05
1340.640 3.77 3.66 3.4723 3.3146 3.1044 2.9002 2.69086 2.5889 2.5986 2.73511
1359.930 2.8335 2.9266 3.0135 2.7547 2.8201 3.0633 3.0365 2.8591 2.66478 2.8146
1379.219 2.8789 2.8086 2.68133 2.7726 2.9553 2.9988 3.208 3.2196 2.9628 3.0146
1398.509 3.1375 3.159 3.4329 3.559 3.4256 3.528 3.67 3.75 3.76 3.85
1417.799 3.85 3.68 3.81 3.66 3.4852 3.5719 3.5492 3.2947 3.083 3.1539
1437.089 3.3463 3.2875 2.9934 3.0855 3.2017 3.2505 3.2889 2.9874 2.782 2.68733
1456.378 2.7839 3.0299 3.3103 3.4588 3.363 3.2703 3.273 3.2918 3.0772 3.0999
1475.668 3.2355 3.0344 2.8779 2.9976 3.0195 3.1009 3.2087 3.2684 3.3184 3.2698
1494.958 3.1844 3.213 3.68 3.72 3.5857 3.4348 3.5374 3.76 3.3357 3.2666
1514.248 3.234 3.1652 3.4232 3.4718 3.4468 3.3751 3.279 3.2672 3.3741 3.69
1533.538 3.93 3.74 3.6275 3.3894 3.345 3.5984 3.71 3.68 3.3916 3.5162
1552.827 3.5863 3.67 3.95 3.82 3.65 3.5139 3.6048 3.91 3.68 3.77
1572.117 4.1 3.92 3.94 3.97 4.02 4.07 4.12 4.52 4.65 4.82
1591.407 5.46 5.97 6.62 7.86 9.37 10.91 12.58 14.1 15.04 15.29
1610.697 14.91 13.9 12.58 11.01 8.87 7.02 5.75 4.75 4.48 4.22
1629.986 3.99 3.8 3.2625 3.2172 3.3436 3.5052 3.5434 3.315 3.2586 3.4819
1649.276 3.3858 2.8032 2.5869 2.9409 3.1287 3.0108 2.9104 2.68131 2.7688 3.0312
1668.566 2.9489 3.121 3.0405 3.0579 3.28 3.0943 3.1769 3.2131 3.2553 3.3618
1687.856 3.3112 3.5027 3.481 3.4259 3.77 3.98 4.09 4.57 4.97 5.33
1707.146 6.04 6.84 7.93 9.76 11.83 13.99 17.3 20.97 24.27 27.29
1726.435 29.33 30.33 30.29 28.89 26.38 23.14 19.44 15.9 13.14 10.66
1745.725 8.85 7.63 6.39 5.55 5.26 4.95 4.84 4.85 4.61 4.35
1765.015 4.01 3.68 3.71 3.69 3.69 3.71 3.3635 3.2002 3.3087 3.342
1784.305 3.309 3.25 2.9975 2.8542 2.893 2.9448 2.8814 2.9614 3.1479 3.1041
1803.594 2.9658 2.9653 3.061 2.8514 2.6178 2.67015 2.73859 2.6381 2.5738 2.67445
1822.884 2.771 2.65924 2.71367 2.65468 2.409 2.6059 2.444 2.169 2.352 2.364
1842.174 2.34 2.491 2.455 2.439 2.528 2.437 2.5576 2.8472 2.5812 2.367
1861.464 2.5775 2.526 2.368 2.581 3.0053 2.9175 2.73856 2.9114 2.9285 2.7823
1880.754 2.6392 2.5559 2.5849 2.6036 2.9722 2.9342 2.541 2.6163 2.5974 2.69188
1900.043 2.9991 2.9341 2.9679 2.931 2.7574 2.8328 2.8582 2.73571 2.7924 3.0265
1919.333 3.0427 2.9783 2.9727 2.9806 2.9763 2.8673 2.8976 2.9638 2.8982 3.0387
1938.623 2.9482 2.74495 2.7609 2.9661 3.0155 2.9451 2.8716 2.871 3.0506 2.9473
1957.913 2.7516 2.8985 2.9791 2.9541 2.8702 2.8061 2.8785 2.8487 2.937 3.0415
1977.202 3.0086 2.8694 2.8931 3.0711 2.9417 2.66377 2.7938 2.72687 2.6232 2.9404
1996.492 3.0331 2.9111 2.8888 3.0514 3.0418 2.8322 2.9454 3.1073 2.965 2.9505
2015.782 3.0247 3.0699 3.0862 2.9445 2.69035 2.8571 2.962 2.65244 2.5707 2.65661
2035.072 2.71561 2.8139 2.9614 2.7817 2.72906 2.766 2.5716 2.5811 2.823 2.9883
2054.362 3.1531 3.1374 2.8829 2.8434 2.71729 2.68309 2.7969 2.66561 2.5737 2.69276
2073.651 2.8139 2.9777 3.0405 2.9166 2.7327 2.5612 2.8779 3.1522 3.1123 2.917
2092.941 2.9901 3.1127 2.70176 2.5928 2.8129 2.8559 2.7869 2.9179 2.9108 2.8179
2112.231 2.9089 2.9931 3.0575 3.2577 3.2302 3.1894 3.2335 3.0746 3.0517 2.8202
2131.521 2.8633 3.0324 3.1255 3.1959 3.0786 2.8388 2.74557 2.9419 2.8893 2.7859
2150.810 2.7482 2.64356 2.5888 2.73418 2.8486 2.8963 2.8042 2.71432 2.9888 3.0622
2170.100 3.0887 3.1005 2.8629 2.9678 3.308 3.3864 3.217 3.1832 3.1659 3.1918
2189.390 3.0965 2.9506 3.0397 2.9043 2.69628 2.943 3.1507 2.9025 2.8218 3.0489
2208.680 3.1309 3.1206 2.8295 2.64434 2.9906 3.2169 3.348 3.2026 2.70999 2.495
2227.970 2.7654 2.7423 2.54 2.8506 3.3556 3.3663 3.042 3.1843 3.2744 2.9558
2247.259 2.9495 3.2408 3.3709 3.0798 2.9357 3.0595 2.8964 2.70348 2.8289 2.9294
2266.549 3.0533 3.0275 2.9072 3.189 3.0515 2.9587 3.1891 3.1018 2.9363 3.0052
2285.839 2.9735 2.9479 3.005 3.1505 3.3606 3.5901 3.5898 3.3998 3.1946 2.9111
2305.129 3.0514 3.3022 3.2642 3.0922 3.1895 3.0707 3.0216 3.1607 3.1813 3.0672
2324.418 2.9947 3.2243 3.4258 3.5523 3.4244 3.4159 3.6289 3.85 3.89 3.66
2343.708 3.3577 3.3889 3.3248 3.0579 3.2698 3.4463 3.5755 3.6254 3.4644 3.5782
2362.998 3.3867 3.1835 3.3302 3.2232 3.3259 3.26 3.029 3.3084 3.4124 2.9107
2382.288 2.7878 3.0845 3.04 3.0413 3.249 3.2742 2.9302 2.9994 3.1686 3.0716
2401.578 3.1156 3.0308 3.0259 3.2084 3.1634 3.0854 3.0727 2.71995 2.7849 3.129
2420.867 3.1782 3.08 3.0889 3.2976 3.1719 3.0849 3.2284 3.2448 3.3287 3.1797
2440.157 2.896 2.9897 3.2374 3.3691 3.2969 3.2997 3.1114 2.8058 2.72455 3.1512
2459.447 3.3221 2.9135 3.1257 3.4163 3.2973 3.0649 2.9646 2.9923 3.1048 3.1264
2478.737 3.1552 3.3374 3.3306 3.2915 3.3488 3.479 3.4793 3.4295 3.3108 3.4247
2498.026 3.3702 3.045 3.0635 2.9772 2.9992 3.2611 3.5147 3.81 3.5024 3.1463
2517.316 3.3173 3.2159 3.1265 3.3004 3.4087 3.592 3.5864 3.2533 3.2345 3.4773
2536.606 3.2541 3.2826 3.5869 3.4796 3.2491 3.1089 2.9628 2.941 3.0632 3.1871
2555.896 3.004 2.783 3.0828 3.1642 3.2746 3.1966 3.2299 3.3445 3.4759 3.69
2575.186 3.7 3.66 3.6312 3.5337 3.4266 3.3435 3.2081 3.3621 3.2754 3.0318
2594.475 3.1064 3.2138 3.156 3.2916 3.3747 3.0866 3.187 3.74 3.88 3.6062
2613.765 3.2796 3.2318 2.9728 2.7769 3.2577 3.2699 3.1751 3.301 3.3615 3.2203
2633.055 3.2733 3.5835 3.4008 3.4534 3.3725 2.9166 2.9532 2.9201 3.1847 3.4417
2652.345 3.2762 3.2097 3.3058 3.3938 3.5138 3.8 3.69 3.78 3.66 3.3661
2671.634 3.5824 3.5631 3.641 3.9 3.4687 3.1062 3.0655 3.1687 3.3822 3.4408
2690.924 3.6197 3.5954 3.69 3.73 3.3506 3.3374 3.3954 3.2776 3.1424 3.5303
2710.214 3.79 3.1193 3.0761 3.4726 3.2471 3.1832 3.72 3.637 3.3294 3.4749
2729.504 3.5175 3.4765 3.282 3.3844 3.4737 3.1788 3.0722 3.1303 3.4734 3.607
2748.794 3.5967 4.06 4.06 3.92 3.88 3.3011 3.1976 3.2106 3.02 3.3048
2768.083 3.8 3.83 3.73 3.83 3.6191 3.4724 3.4849 3.2726 3.0103 3.2018
2787.373 3.3476 3.5181 3.5776 3.2532 2.9722 2.8546 2.9423 3.0258 2.8301 2.904
2806.663 3.0402 3.1615 3.594 3.6035 3.3684 3.063 3.5161 4.13 3.2896 2.8707
2825.953 2.9922 2.615 2.9168 3.3895 3.86 4.04 3.93 3.91 3.76 3.75
2845.242 3.88 3.7 3.5394 3.4483 3.3087 3.628 3.3458 3.3278 3.78 3.5914
2864.532 3.6065 3.92 3.6282 3.71 4.09 3.94 3.9 4.32 4.76 4.5
2883.822 4.11 4.46 4.87 4.53 4.35 4.39 4.25 4.13 4.52 4.37
2903.112 4.2 4.23 4.44 5.11 4.94 4.09 3.83 4.5 4.99 4.98
2922.401 5.12 5.34 5.56 5.53 5.05 5.56 5.9 5.59 5.81 5.9
2941.691 5.51 4.87 4.73 4.71 4.46 4.7 4.62 4.09 3.81 3.95
2960.981 3.94 3.66 3.5408 3.6134 4.01 3.76 3.8 4.24 4.16 4.08
2980.271 3.92 4.02 4.26 4.29 4.36 3.93 4 4.73 4.76 4.44
2999.561 4.23 4.71 4.82 4.62 4.72 4.67 4.54 4.85 4.92 4.76
3018.850 4.66 4.75 5.19 5 4.81 5.13 5.45 5.46 5.66 5.5
3038.140 5.51 6.06 5.41 5.24 5.72 5.49 5.09 5.05 5.28 5.05
3057.430 4.46 4.63 4.88 4.43 4.15 3.93 4.13 4.86 4.82 4.89
3076.720 5.18 5.02 5.18 5.33 4.52 3.6475 3.69 3.4211 3.5205 4.1
3096.009 3.87 4.37 4.27 3.194 3.2374 3.3246 4.12 3.93 2.68173 2.6278
3115.299 3.191 3.9 3.68 3.2674 3.3149 3.5231 3.68 2.9723 2.65489 2.9463
3134.589 3.2451 3.2433 3.2958 3.1673 3.0848 3.72 3.2384 2.7182 2.67246 2.268
3153.879 2.212 2.8388 3.1164 3.1126 3.0015 2.7737 3.017 3.3284 3.83 3.9
3173.169 3.87 3.3922 3.1343 3.4805 3.2944 3.052 2.8643 2.9058 2.7841 3.1945
3192.458 3.5981 3.3092 3.3807 3.4402 3.2558 3.36 3.097 2.8194 2.9954 2.9971
3211.748 3.4404 3.74 3.5073 3.3665 3.2891 3.046 2.7021 2.70461 2.8648 2.49
3231.038 2.70785 3.3464 3.1637 3.1072 3.489 3.1884 3.1118 3.87 3.3456 2.513
3250.328 2.455 2.472 2.327 2.286 2.9181 3.2214 3.2082 3.1289 2.9318 2.466
3269.617 2.67004 3.3627 3.6256 3.72 2.9369 2.471 2.6221 2.265 2.256 2.8895
3288.907 3.3378 3.6108 3.4546 2.8758 3.0278 3.3576 3.5297 3.7 2.7702 2.363
3308.197 2.74851 2.321 2.241 2.8608 3.0576 3.2191 2.74947 1.927 2.152 2.9017
3327.487 2.9795 2.7847 3.0652 2.7669 2.33 2.522 2.71873 3.0918 2.9787 3.0848
3346.777 3.73 2.9822 2.366 3.0265 2.8966 2.076 2.41 2.8822 2.6251 2.9041
3366.066 2.9994 2.5988 2.366 2.454 2.8651 2.7524 2.8326 2.6001 2.412 2.8157
3385.356 2.8094 3.1304 3.1341 2.543 2.265 2.508 2.511 2.217 2.21 2.508
3404.646 2.74992 2.9944 2.8284 2.509 2.73102 2.9852 3.3142 3.1344 2.5736 2.349
3423.936 2.5753 2.7539 3.2563 3.5017 3.77 3.4743 2.7541 2.5775 2.5988 2.8943
3443.225 2.8036 2.65014 2.928 2.7756 2.74777 3.087 3.3237 3.85 3.91 3.2793
3462.515 2.64177 2.8687 2.41 1.756 2.528 3.2919 2.6213 2.104 2.69684 2.9592
3481.805 2.9359 2.8333 3.1571 2.8207 2.64394 3.3781 3.3771 3.418 2.847 2.277
3501.095 2.74661 3.5057 3.4097 2.831 2.9457 2.8842 2.764 2.8241 3.0391 2.9437
3520.385 2.33 2.462 2.6382 2.6171 2.7694 2.5514 3.1286 3.3762 2.5752 2.086
3539.674 1.885 1.761 1.835 2.199 2.6169 2.6207 2.373 2.69225 2.521 2.7118
3558.964 3.5824 3.2085 2.6276 2.7641 2.9353 2.464 2.372 2.8683 2.938 2.8937
3578.254 3.0563 3.0795 3.2659 3.3538 3.0357 2.543 2.286 2.371 2.6748 3.0072
3597.544 3.284 3.1917 2.7829 2.6334 2.483 2.74228 2.542 1.924 2.19 2.189
3616.833 1.926 2.063 2.6231 2.8787 2.70563 2.8185 2.454 2.5775 2.564 2.501
3636.123 2.5914 2.179 1.713 1.984 2.9834 3.2729 2.8024 2.498 2.8683 2.296
3655.413 2.323 2.6534 2.257 2.159 2.29 2.912 3.71 3.6192 3.1717 2.9224
3674.703 2.8825 3.3273 2.939 2.65177 2.447 2.256 3.0966 3.1783 2.469 2.516
3693.993 2.72501 2.8411 2.468 2.478 2.6116 2.5807 3.1753 3.1626 2.7815 2.7681
3713.282 2.8336 2.6081 2.209 2.538 3.165 3.1087 2.9804 3.0077 2.69367 2.44
3732.572 2.8072 2.353 1.889 2.68827 2.9808 2.452 2.251 2.295 2.254 2.7825
3751.862 3.1448 3.3949 3.1439 2.449 3.072 3.2525 2.72525 2.262 2.9591 3.92
3771.152 3.2375 2.8971 2.8108 2.5647 2.70163 2.71897 2.396 2.366 2.8476 3.69
3790.441 3.4608 3.0623 2.6103 2.256 2.478 2.5946 2.5959 2.8343 2.67958 2.69786
3809.731 2.74119 2.5925 2.434 2.67598 3.72 3.1608 2.7635 2.9937 3.0723 2.9954
3829.021 2.504 2.41 2.7829 3.497 3.5769 2.7789 2.283 2.311 2.6364 2.5565
3848.311 2.6019 2.8342 2.8968 2.72121 2.247 2.398 3.0748 3.77 3.84 3.193
3867.601 2.053 2.057 2.9331 3.3723 3.0772 2.7589 2.74854 2.6353 2.9473 2.5657
3886.890 2.094 2.64808 3.5447 3.86 3.4553 3.2223 2.8245 2.5611 3.2361 3.4598
3906.180 3.1465 3.0721 3.0002 2.9843 3.1384 2.69648 2.368 2.549 2.7867 3.1372
3925.470 3.322 2.72257 2.9101 3.3706 2.9819 3 3.2441 2.8986 2.241 2.66848
3944.760 2.529 2.609 3.6359 3.1595 2.168 2.188 2.9549 3.1764 3.5593 3.3946
3964.049 2.265 2.416 3.0563 3.0618 3.1322 3.1172 2.6181 2.447 2.67972 2.5708
3983.339 2.391 3.078 3.3358 2.502 2.427 2.7989 2.5811 2.7995 3.5428 3.6213
##END=
