##TITLE=3-Fluoro-4-nitrophenol
##JCAMP-DX=4.24
##DATA TYPE=INFRARED SPECTRUM
##ORIGIN=EPA-IR VAPOR PHASE LIBRARY
##OWNER=SRD/NIST
Collection (C) 2018 copyright by the U.S. Secretary of Commerce
on behalf of the United States of America. All rights reserved.
##CAS REGISTRY NO=394-41-2
##MOLFORM=C 6 H 4 F N O 3
##$NIST SOURCE=MSDC-IR
##STATE=gas
##XUNITS=1/CM
##YUNITS=ABSORBANCE
##XFACTOR=1.
##YFACTOR=0.001
##DELTAX=1.92898
##FIRSTX=549.8
##LASTX=4000.7
##FIRSTY=4.879
##MAXX=4000.7
##MINX=549.759
##MAXY=0.269869
##MINY=0
##NPOINTS=1790
##XYDATA=(X++(Y..Y))
549.759 4.879 5.079 5.339 5.319 5.749 5.699 5.229 5.529 6.469 6.759
569.049 7.539 8.519 8.609 9.029 9.699 10.019 9.869 10.439 10.579 10.079
588.339 10.359 10.559 10.209 10.189 10.379 10.749 11.379 12.449 14.349 18.349
607.628 24.159 30.299 37.209 43.489 47.059 49.509 51.249 51.569 51.239 47.409
626.918 39.359 30.009 21.829 16.689 13.869 11.679 10.179 9.569 9.019 8.079
646.208 7.489 7.049 6.869 6.779 6.389 6.169 6.649 7.199 7.289 7.379
665.498 7.479 7.889 8.259 8.419 8.519 8.459 8.689 8.799 8.019 7.289
684.787 6.989 6.499 5.989 5.579 4.919 4.559 4.419 4.029 3.679 3.259
704.077 3.009 3.069 2.879 2.409 2.389 2.789 3.259 3.479 3.439 4.219
723.367 5.149 5.719 6.429 7.749 9.329 10.969 12.759 14.309 15.309 15.849
742.657 17.219 19.869 21.379 19.169 16.009 13.929 12.309 11.159 9.959 8.279
761.947 7.219 6.769 5.759 4.719 4.359 3.849 3.299 3.539 3.639 3.409
781.236 3.219 3.449 3.919 4.159 4.579 4.809 5.239 5.659 6.199 7.429
800.526 8.459 9.509 10.419 11.379 12.839 14.069 14.839 15.239 15.519 16.459
819.816 17.999 20.009 23.029 26.739 31.159 37.749 45.539 53.029 59.449 65.209
839.106 67.739 65.019 62.129 60.299 56.529 50.749 44.589 39.249 36.519 34.979
858.395 32.569 28.849 24.669 21.959 19.779 17.829 16.119 14.269 12.259 10.329
877.685 9.109 8.089 7.129 6.239 5.439 5.139 4.969 4.449 3.789 3.489
896.975 3.509 3.859 4.259 3.999 3.869 3.799 3.859 4.149 4.019 3.599
916.265 3.559 3.939 4.219 4.139 3.839 4.449 4.779 4.629 4.969 5.599
935.555 6.379 6.789 7.229 7.789 8.309 8.549 9.259 10.699 12.229 14.169
954.844 16.899 20.819 25.779 32.059 39.249 45.839 50.529 52.579 52.129 51.019
974.134 49.489 46.429 41.579 34.549 26.289 19.229 13.639 9.769 7.899 6.009
993.424 4.399 3.959 4.039 3.739 3.289 3.019 2.839 3.189 2.909 2.519
1012.714 2.499 2.309 3.199 3.519 3.619 3.929 3.959 4.179 4.249 3.879
1032.003 3.519 3.679 3.619 3.489 3.849 4.399 4.329 4.269 4.769 4.709
1051.293 4.079 3.749 3.989 4.799 5.479 6.359 7.379 7.899 8.999 10.259
1070.583 11.909 15.339 19.439 24.799 32.929 42.479 52.039 61.389 68.439 71.709
1089.873 73.149 73.269 71.889 69.439 63.589 52.609 40.359 31.619 25.329 20.389
1109.163 17.359 15.589 15.019 15.599 15.949 16.789 18.539 20.099 22.509 25.889
1128.452 30.759 36.869 43.749 52.149 60.299 68.099 76.339 84.069 90.139 94.579
1147.742 96.819 97.679 97.469 94.859 91.229 86.299 81.199 77.699 73.839 70.609
1167.032 69.009 68.699 68.399 68.219 70.759 75.229 80.909 87.469 93.749 97.859
1186.322 99.269 98.799 97.349 95.539 91.189 83.149 74.449 64.829 54.659 46.469
1205.611 38.619 32.989 29.979 27.139 24.309 23.759 23.379 22.069 21.709 20.639
1224.901 19.999 19.159 17.699 18.179 19.389 20.729 22.669 25.289 29.549 34.259
1244.191 39.579 44.369 47.369 48.619 49.139 49.819 49.519 48.189 45.589 40.939
1263.481 36.159 33.039 30.789 29.379 29.149 30.049 32.039 35.049 39.189 45.079
1282.771 51.829 59.449 69.609 81.429 94.139 107.209 120.069 131.159 138.949 142.959
1302.060 142.989 139.849 133.879 125.219 114.309 101.479 87.879 75.989 67.619 63.159
1321.350 61.799 61.979 62.749 64.429 67.189 71.189 76.609 83.509 92.259 102.879
1340.640 115.079 128.239 141.249 153.289 163.519 170.399 172.819 169.839 161.699 149.019
1359.930 132.849 115.169 96.659 77.899 60.369 45.449 34.039 25.759 20.009 16.229
1379.219 13.589 11.889 10.739 9.849 9.269 9.019 9.069 9.329 9.479 9.549
1398.509 9.859 10.059 10.079 10.219 10.389 10.369 10.289 10.249 10.229 10.369
1417.799 10.519 10.559 10.799 11.419 12.069 12.799 13.809 15.049 16.569 18.539
1437.089 20.819 23.099 25.549 28.119 30.539 32.629 34.509 35.879 36.689 36.879
1456.378 36.439 35.649 34.519 33.179 31.739 30.549 29.849 29.499 29.479 29.929
1475.668 30.919 32.279 34.149 36.869 40.319 44.829 50.499 56.649 63.079 69.169
1494.958 74.109 77.669 79.959 81.179 81.059 79.709 77.139 73.769 69.859 66.139
1514.248 63.869 62.829 62.959 64.499 67.059 70.429 74.939 80.469 87.079 94.769
1533.538 103.539 113.049 122.429 131.259 138.549 143.979 147.159 148.279 148.599 148.289
1552.827 146.849 142.589 135.119 126.139 117.339 109.649 103.189 98.099 93.739 89.879
1572.117 86.819 84.389 82.369 81.039 80.609 81.199 83.279 86.879 92.319 100.069
1591.407 110.369 123.359 139.209 157.839 178.239 199.169 219.799 238.729 254.109 264.929
1610.697 269.869 267.489 256.879 238.399 215.369 192.089 170.049 150.259 133.179 118.129
1629.986 105.049 93.779 83.579 74.429 66.219 58.939 52.509 46.839 41.909 37.459
1649.276 33.709 30.499 27.519 24.779 22.409 20.609 19.079 17.709 16.699 15.829
1668.566 14.849 14.089 13.319 12.519 11.779 10.949 10.219 9.499 8.749 8.209
1687.856 7.679 7.329 7.009 6.599 6.269 5.949 5.859 5.739 5.629 5.479
1707.146 5.239 5.119 4.969 4.699 4.479 4.239 3.979 3.689 3.419 3.279
1726.435 3.199 3.139 2.909 2.799 2.809 2.689 2.749 2.749 2.639 2.589
1745.725 2.669 2.849 3.059 3.059 2.899 2.919 3.069 3.159 3.149 3.239
1765.015 3.239 3.169 3.229 3.119 2.899 2.839 2.889 2.839 2.529 2.319
1784.305 2.259 2.079 1.929 1.789 1.749 1.769 1.769 1.849 1.939 1.909
1803.594 1.829 1.879 1.809 1.759 1.799 1.749 1.649 1.699 1.809 1.939
1822.884 1.929 1.849 1.869 1.839 1.859 1.829 1.919 1.939 1.739 1.669
1842.174 1.469 1.289 1.369 1.409 1.359 1.289 1.2376 1.241 1.259 1.469
1861.464 1.749 1.849 1.729 1.819 2.009 1.969 2.079 2.309 2.379 2.419
1880.754 2.579 2.559 2.589 2.739 2.689 2.659 2.489 2.429 2.549 2.439
1900.043 2.259 2.219 2.279 2.289 2.299 2.219 2.049 1.929 1.849 1.779
1919.333 1.819 1.819 1.699 1.699 1.629 1.599 1.499 1.349 1.469 1.639
1938.623 1.719 1.649 1.579 1.569 1.439 1.309 1.369 1.479 1.379 1.329
1957.913 1.369 1.339 1.399 1.359 1.389 1.389 1.2085 1.299 1.279 1.1348
1977.202 1.1806 1.1604 1.0189 0.9028 1.0226 0.9376 0.7855 0.9113 0.9183 0.8532
1996.492 0.794 0.7856 0.7598 0.6449 0.6982 0.774 0.7528 0.7641 0.747 0.7123
2015.782 0.7242 0.7519 0.7494 0.8429 0.9236 0.8851 0.9516 0.9988 0.8827 0.8472
2035.072 0.933 0.9293 0.994 0.9634 0.883 1.0115 1.0553 1.0755 1.2222 1.309
2054.362 1.2352 1.1877 1.1059 1.259 1.449 1.469 1.469 1.419 1.359 1.269
2073.651 1.2047 1.0582 1.0123 0.9094 0.7469 0.6861 0.6835 0.7701 0.8019 0.8371
2092.941 0.7878 0.6016 0.5938 0.6931 0.8495 0.829 0.6575 0.8605 0.9773 0.8667
2112.231 1.0414 1.309 1.389 1.1653 1.0824 1.1281 1.0288 1.0095 1.077 1.1256
2131.521 1.1356 0.9754 0.8556 0.8183 0.9707 1.2049 1.1971 1.1123 0.9284 0.8252
2150.810 0.8539 0.9111 0.9003 1.0183 1.0167 0.9202 0.8959 0.8531 0.9297 0.8241
2170.100 0.7633 0.7491 0.7499 0.8296 0.8423 0.9249 0.9432 0.9016 0.8699 0.8793
2189.390 0.7944 0.7684 0.8431 0.8593 0.9121 0.8292 0.6346 0.5538 0.73 0.7985
2208.680 0.5813 0.5185 0.7273 0.9241 0.9527 1.0238 1.0248 0.8973 0.8933 0.947
2227.970 0.9883 0.8855 0.9034 1.0595 1.0535 1.2136 1.2002 1.0919 1.1848 1.1941
2247.259 1.2093 1.2073 1.0427 0.9081 0.8625 0.9131 1.0599 1.0809 1.1093 1.2046
2266.549 1.0955 1.1172 1.2154 1.1813 1.259 1.419 1.399 1.379 1.299 1.2482
2285.839 1.499 1.499 1.479 1.499 1.469 1.589 1.619 1.459 1.489 1.539
2305.129 1.469 1.369 1.319 1.519 1.449 1.259 1.449 1.669 1.619 1.429
2324.418 1.579 1.739 1.789 1.949 1.999 2.089 2.199 2.439 2.609 2.639
2343.708 2.719 2.809 2.909 2.869 2.789 2.789 2.839 2.709 2.409 2.259
2362.998 2.329 2.279 2.119 2.119 2.179 2.119 2.089 2.159 2.159 2.229
2382.288 2.319 2.239 2.309 2.329 2.209 2.239 2.469 2.589 2.669 2.719
2401.578 2.519 2.449 2.469 2.429 2.369 2.479 2.549 2.499 2.559 2.479
2420.867 2.509 2.709 2.599 2.549 2.649 2.659 2.719 2.819 2.809 2.839
2440.157 2.879 2.759 2.689 2.709 2.729 2.709 2.739 2.609 2.409 2.309
2459.447 2.279 2.249 2.199 2.119 1.989 1.859 1.819 1.889 1.979 2.019
2478.737 2.099 2.099 2.049 1.939 2.029 2.319 2.519 2.609 2.629 2.719
2498.026 2.739 2.829 2.869 2.989 3.119 3.039 2.909 2.709 2.559 2.429
2517.316 2.359 2.229 2.169 1.969 1.719 1.839 1.619 1.459 1.509 1.389
2536.606 1.439 1.449 1.529 1.529 1.329 1.399 1.399 1.279 1.289 1.309
2555.896 1.2129 1.1292 1.1725 1.1771 1.1906 1.339 1.329 1.309 1.519 1.519
2575.186 1.389 1.379 1.289 1.329 1.499 1.509 1.469 1.559 1.509 1.509
2594.475 1.749 1.639 1.599 1.869 1.839 1.659 1.749 1.859 1.869 1.939
2613.765 1.929 1.999 2.279 2.439 2.379 2.229 2.359 2.539 2.509 2.339
2633.055 2.229 2.389 2.389 2.279 2.189 1.999 1.779 1.679 1.689 1.769
2652.345 1.669 1.689 1.829 1.819 1.749 1.629 1.679 1.429 1.238 1.319
2671.634 1.329 1.449 1.359 1.379 1.629 1.529 1.599 1.899 1.969 1.949
2690.924 1.919 2.029 2.129 2.039 1.879 1.919 1.969 1.729 1.689 1.819
2710.214 1.779 1.599 1.399 1.299 1.1619 1.0627 1.2111 1.1587 0.9483 0.9701
2729.504 1.0751 1.289 1.449 1.459 1.529 1.449 1.469 1.689 1.519 1.439
2748.794 1.419 1.419 1.759 2.029 1.969 1.879 1.889 1.719 1.659 1.709
2768.083 1.849 1.959 1.919 1.769 1.779 1.779 1.819 2.039 2.229 2.459
2787.373 2.249 2.179 2.009 1.709 1.769 1.849 1.989 1.979 2.099 2.059
2806.663 2.009 2.119 1.929 1.929 2.219 2.179 1.999 1.989 1.939 1.969
2825.953 2.179 2.239 2.069 2.009 1.879 1.919 1.869 1.759 1.789 1.799
2845.242 1.869 2.009 2.129 2.229 2.339 2.399 2.639 2.709 2.679 2.669
2864.532 2.659 2.859 2.949 2.779 2.759 2.869 2.829 2.999 3.229 3.179
2883.822 3.189 3.179 3.119 3.259 3.139 3.039 3.309 3.389 3.439 3.229
2903.112 2.989 2.959 2.789 2.639 2.829 2.739 2.519 2.419 2.559 2.409
2922.401 2.049 2.009 1.989 2.099 2.119 1.889 1.679 1.669 1.739 1.729
2941.691 1.749 1.589 1.429 1.559 1.609 1.639 1.429 1.279 1.429 1.479
2960.981 1.399 1.359 1.409 1.2219 1.0088 1.1366 1.1458 1.1143 1.1708 1.0099
2980.271 1.0808 1.2078 1.1157 1.0776 0.9633 0.8878 0.7611 0.633 0.4833 0.5457
2999.561 0.7891 0.6675 0.5212 0.5659 0.7542 0.8751 0.8166 0.6565 0.5414 0.6183
3018.850 0.8187 0.9365 0.8884 0.9912 1.1261 1.2336 1.259 1.559 2.149 2.199
3038.140 2.289 2.649 2.979 3.089 3.129 3.179 2.929 3.089 3.229 2.829
3057.430 2.659 2.279 1.979 2.199 2.349 2.669 2.769 2.649 3.019 3.289
3076.720 3.319 3.739 4.039 4.039 3.849 3.849 4.169 4.069 3.819 3.639
3096.009 3.359 3.029 2.749 2.569 2.289 2.139 1.879 1.449 1.1577 1.2478
3115.299 1.399 1.389 1.249 1.0296 1.2037 1.389 1.1205 1.0594 0.9244 0.8202
3134.589 1.0506 0.7908 0.5423 0.4797 0.6138 0.9101 0.7462 0.5626 0.4916 0.4896
3153.879 0.462 0.3885 0.4341 0.5793 0.629 0.1681 0.30032 0.6539 0.6898 0.5102
3173.169 0.251836 0.686 0.4617 0.1744 0.34316 0.4105 0.5849 0.3578 0.2016 0.2279
3192.458 0.4493 0.4663 0.4835 0.563 0.5154 0.7331 0.7321 0.7425 0.8729 0.8964
3211.748 0.9662 0.9174 0.9588 1.0508 1.03 1.0176 0.9124 1.0143 1.309 1.184
3231.038 1.2068 1.439 1.0652 0.9527 1.131 1.2255 1.2347 1.0967 1.0351 0.7611
3250.328 0.6629 0.7268 0.7963 0.8461 0.9083 0.8271 0.5439 0.5843 0.94 1.1396
3269.617 0.9139 0.6886 0.5113 0.6454 0.6852 0.5015 0.6983 0.7777 0.7254 0.5671
3288.907 0.6727 1.1161 1.0143 0.8999 0.9124 1.1376 1.269 1.269 1.469 1.399
3308.197 1.349 1.539 1.619 1.329 0.8666 0.9391 1.339 1.519 1.479 1.359
3327.487 1.379 1.1779 1.0956 1.2272 1.359 1.399 0.9644 0.7143 0.9789 1.359
3346.777 1.429 1.1285 0.9978 0.7767 0.6005 1.0571 1.359 1.0599 0.8874 0.8169
3366.066 0.7687 0.666 0.6711 0.6247 0.5959 0.6602 0.7409 0.8844 0.7914 0.7189
3385.356 0.9209 0.9575 0.8395 0.9596 0.9414 0.557 0.28594 0.512 0.693 0.7196
3404.646 0.4856 0.26364 0.4199 0.5608 0.5953 0.504 0.5116 0.7828 0.6364 0.3881
3423.936 0.4871 0.5048 0.5621 0.6605 0.7665 0.8905 0.9399 0.4313 0.2065 0.5007
3443.225 0.4726 0.592 0.392 0.1857 0.26255 0.27484 0.32353 0.4036 0.3788 0.102
3462.515 0.004 0.34391 0.457 0.081 0.169 0.3974 0.5548 0.7072 0.6919 0.6379
3481.805 0.5168 0.27357 0.07 0.33762 0.5644 0.431 0.27119 0.2137 0.2106 0.1623
3501.095 0.1529 0.4074 0.5661 0.2785 0.072 0.122 0 0.027 0.28504 0.4224
3520.385 0.3636 0.29574 0.066 0.145 0.29288 0.3641 0.7355 0.8039 0.4218 0.4424
3539.674 1.0145 0.8303 0.6462 1.1396 1.379 0.9033 0.743 0.6156 0.4034 0.7622
3558.964 0.9905 0.6696 0.7979 0.8531 0.7382 0.9366 0.7304 0.6073 0.4895 0.7759
3578.254 1.0198 1.0129 1.0483 0.9115 0.9295 1.0055 0.8025 0.8789 1.359 1.319
3597.544 1.1366 1.569 1.699 1.599 1.829 1.959 2.099 2.309 2.659 3.379
3616.833 4.229 5.209 6.899 9.069 11.339 14.689 19.839 26.379 34.879 45.449
3636.123 57.629 71.859 87.209 100.569 108.599 109.879 106.819 102.709 96.499 88.689
3655.413 78.229 62.219 44.389 29.259 18.799 12.599 8.519 5.879 4.459 3.609
3674.703 2.969 2.509 1.959 1.599 1.329 1.1518 1.1405 1.028 0.7709 0.7715
3693.993 0.842 0.632 0.8351 0.9935 0.6565 0.4909 0.7296 0.9018 0.7191 0.33852
3713.282 0.2064 0.34459 0.28093 0.30876 0.3987 0.3334 0.33569 0.4114 0.3917 0.27737
3732.572 0.4748 0.4369 0.2892 0.5002 0.5296 0.4333 0.613 0.814 0.6663 0.4606
3751.862 0.6739 0.6898 0.3595 0.4623 0.7148 0.8337 0.8734 0.6045 0.33569 0.24243
3771.152 0.5087 0.5121 0.457 0.6795 0.7919 0.5896 0.27891 0.3933 0.4082 0.6336
3790.441 0.7131 0.4024 0.139 0.139 0.32682 0.27852 0.5291 0.3936 0.1567 0.5775
3809.731 0.5573 0.4421 0.7205 0.7801 0.7094 0.7339 0.4411 0.108 0.29505 0.4946
3829.021 0.5025 0.5142 0.6641 0.5704 0.4513 0.879 0.7571 0.3733 0.3622 0.1604
3848.311 0.157 0.5172 0.322 0.3834 0.8685 0.8127 0.7625 0.6358 0.4159 0.594
3867.601 0.824 0.7957 0.7967 0.8186 0.5459 0.5666 1.1245 1.279 1.0146 0.9816
3886.890 0.8764 0.6576 0.7497 1.0474 0.9116 0.592 0.5552 0.4973 0.7474 0.8864
3906.180 0.8033 0.4695 0.30809 0.4636 0.3774 0.5073 0.8795 0.8055 0.473 0.6142
3925.470 0.6991 0.4922 0.4116 0.5038 0.4692 0.7077 0.7781 0.6299 0.8611 0.8644
3944.760 0.8984 0.9412 0.7571 0.8287 0.7609 0.8307 0.7289 0.34751 0.32059 0.4394
3964.049 0.6453 0.6206 0.8354 1.0391 0.6778 0.7012 0.8938 0.9588 0.9458 1.2226
3983.339 1.529 1.2326 1.309 1.409 1.2171 1.0095 0.7757 0.7095 0.6428 1.0071
##END=
