##TITLE=Ethyl 3,4-dimethoxybenzoate
##JCAMP-DX=4.24
##DATA TYPE=INFRARED SPECTRUM
##ORIGIN=EPA-IR VAPOR PHASE LIBRARY
##OWNER=SRD/NIST
Collection (C) 2018 copyright by the U.S. Secretary of Commerce
on behalf of the United States of America. All rights reserved.
##CAS REGISTRY NO=3943-77-9
##MOLFORM=C 11 H 14 O 4
##$NIST SOURCE=MSDC-IR
##STATE=gas
##XUNITS=1/CM
##YUNITS=ABSORBANCE
##XFACTOR=1.
##YFACTOR=0.001
##DELTAX=1.92934
##FIRSTX=549.9
##LASTX=3999.5
##FIRSTY=2.649
##MAXX=3999.53
##MINX=549.863
##MAXY=0.23503
##MINY=0
##NPOINTS=1789
##XYDATA=(X++(Y..Y))
549.863 2.649 2.593 2.566 2.502 2.485 2.474 2.47 2.524 2.518 2.517
569.156 2.435 2.394 2.408 2.31 2.343 2.418 2.407 2.335 2.383 2.571
588.450 2.507 2.414 2.503 2.524 2.582 2.738 2.749 2.755 2.856 2.884
607.743 2.9805 3.1459 3.2857 3.4585 3.6998 4.0337 4.57 5.41 6.45 7.68
627.037 8.81 9.68 10.36 10.62 10.43 9.7 8.63 7.54 6.52 5.59
646.330 4.8 4.19 3.78 3.4275 3.04769 2.827 2.633 2.441 2.366 2.315
665.624 2.274 2.24 2.202 2.191 2.116 2.066 2.059 2.049 2.03 2.104
684.917 2.172 2.188 2.226 2.26 2.32 2.392 2.435 2.453 2.536 2.639
704.210 2.721 2.823 2.9504 3.13148 3.3681 3.5656 3.85 4.23 4.56 4.95
723.504 5.44 5.99 6.55 7.16 7.77 8.37 8.97 9.51 10.19 11.07
742.797 12.18 13.52 15.13 17.06 19.27 21.65 24.04 26.4 28.51 30.24
762.091 31.48 31.85 30.95 28.99 26.4 23.46 20.39 17.46 14.84 12.53
781.384 10.64 9.18 8.03 7.21 6.68 6.3 6.01 5.8 5.8 5.89
800.678 5.98 6.19 6.41 6.6 6.82 7.07 7.32 7.6 7.84 8.06
819.971 8.2 8.23 8.21 8.09 7.96 7.8 7.55 7.27 7.02 6.83
839.264 6.61 6.33 6.06 5.82 5.64 5.57 5.54 5.55 5.61 5.84
858.558 6.16 6.48 6.82 7.12 7.38 7.58 7.77 7.9 7.96 7.99
877.851 7.99 7.96 7.92 7.86 7.75 7.58 7.36 7.2 7.13 7.06
897.145 7 7.1 7.29 7.49 7.79 8.21 8.8 9.58 10.53 11.53
916.438 12.51 13.38 13.93 14.08 13.82 13.12 12.1 10.92 9.78 8.73
935.732 7.82 7.11 6.56 6.12 5.8 5.58 5.44 5.35 5.29 5.33
955.025 5.36 5.39 5.49 5.61 5.72 5.84 6.02 6.26 6.47 6.69
974.318 6.96 7.21 7.54 7.89 8.29 8.79 9.37 10.01 10.74 11.62
993.612 12.67 13.88 15.28 16.97 18.97 21.24 23.91 27.11 30.78 34.94
1012.905 39.65 44.7 50 55.37 60.62 65.68 70.36 74.38 77.45 79.38
1032.199 79.89 78.74 75.8 71.08 65.02 58.09 50.77 43.63 37.06 31.33
1051.492 26.61 22.88 20.02 17.85 16.34 15.41 14.87 14.61 14.64 14.98
1070.786 15.6 16.6 18 19.99 22.74 26.24 30.64 36.05 42.43 49.65
1090.079 57.52 65.81 74.16 81.86 88.09 92.07 93.31 91.74 87.67 81.83
1109.372 75.37 69.33 64.54 61.41 59.79 59.39 59.92 60.88 62.03 62.95
1128.666 63.31 62.96 61.72 59.6 56.75 53.22 49 44.53 40.29 36.49
1147.959 33.18 30.64 29.09 28.58 29.02 30.41 32.86 36.22 40.7 46.29
1167.253 52.51 59.01 65 69.72 72.74 73.47 71.95 68.68 64.2 59.34
1186.546 54.92 51.63 49.7 49.18 50.29 52.95 56.95 62.65 69.97 78.62
1205.840 88.56 99.31 110.18 120.74 130.25 137.81 142.6 144.34 143.15 139.03
1225.133 132.51 124.25 115.35 106.56 98.52 91.6 85.79 81.12 77.46 74.63
1244.426 72.5 71.15 70.69 71.25 73.05 76.44 81.65 88.85 98.04 109.03
1263.720 121.23 133.47 144.72 154.51 163.19 171.52 180.54 191.2 203.71 216.99
1283.013 228.49 235.03 234.17 225.15 208.7 187.23 163.87 141.25 121.4 105.13
1302.307 92.11 81.73 73.25 66.07 59.82 54.24 49.31 44.97 41.08 37.71
1321.600 34.84 32.35 30.2 28.37 26.76 25.31 24 22.73 21.45 20.22
1340.894 18.98 17.73 16.58 15.59 14.82 14.28 14.05 14.11 14.6 15.61
1360.187 17.32 19.83 22.8 25.23 26.42 26.51 25.69 23.75 20.9 18.23
1379.480 16.54 15.84 15.84 16.3 17.06 18.18 19.58 21.32 23.43 25.84
1398.774 28.62 31.77 35.25 38.95 42.52 45.57 47.67 48.45 47.64 45.23
1418.067 41.62 37.16 32.57 28.45 25.11 22.64 21.03 20.2 20.01 20.4
1437.361 21.28 22.39 23.61 24.88 26.11 27.31 28.49 29.57 30.54 31.42
1456.654 32.28 33.19 34.06 34.93 35.82 36.53 36.78 36.46 35.53 34.06
1475.948 32.18 30.12 28.38 27.15 26.55 26.68 27.57 29.31 31.99 35.64
1495.241 40.4 46.39 53.3 60.65 67.61 73.22 76.76 77.55 75.3 70.22
1514.534 63.18 55.01 46.82 39.51 33.12 28.13 24.15 20.92 18.33 16.33
1533.828 14.77 13.53 12.53 11.69 11.12 10.72 10.4 10.23 10.15 10.11
1553.121 10.15 10.32 10.58 10.99 11.6 12.25 13.13 14.22 15.42 16.82
1572.415 18.39 19.92 21.46 22.97 24.26 25.4 26.42 27.4 28.44 29.67
1591.708 31.17 33.01 35.02 36.94 38.43 39.03 38.53 36.89 34.19 30.56
1611.002 26.5 22.47 18.85 15.83 13.48 11.74 10.36 9.31 8.55 7.94
1630.295 7.52 7.16 6.82 6.61 6.47 6.33 6.17 6.1 6.02 5.92
1649.588 5.9 5.84 5.86 5.97 6.02 6.08 6.13 6.18 6.26 6.33
1668.882 6.41 6.48 6.61 6.76 6.99 7.24 7.48 7.79 8.16 8.61
1688.175 9.11 9.58 10 10.43 10.88 11.28 11.64 12.12 12.71 13.44
1707.469 14.39 15.63 17.31 19.59 22.74 27.08 33.1 41.02 51.59 65.12
1726.762 81.54 100.09 119.04 135.14 146.35 150.65 147.6 137.38 119.96 97.08
1746.056 74.08 55.05 40.91 30.7 23.75 19.15 16.04 14.05 12.67 11.71
1765.349 11.06 10.55 10.15 9.79 9.47 9.21 8.93 8.63 8.27 7.93
1784.642 7.63 7.27 6.92 6.63 6.38 6.11 5.89 5.66 5.45 5.26
1803.936 5.09 4.92 4.77 4.66 4.54 4.41 4.29 4.18 4.1 4.05
1823.229 3.9743 3.8979 3.839 3.7539 3.6837 3.6613 3.6539 3.6721 3.6691 3.6291
1842.523 3.5971 3.624 3.6289 3.6135 3.6555 3.6691 3.6558 3.687 3.7296 3.7352
1861.816 3.7503 3.7539 3.7656 3.7897 3.8309 3.8868 3.9092 3.94 3.9659 3.9561
1881.110 3.9522 3.9608 3.9745 3.9415 3.8744 3.8495 3.8142 3.7384 3.6806 3.6286
1900.403 3.5699 3.4963 3.4377 3.3998 3.3459 3.2922 3.2339 3.1792 3.12787 3.07573
1919.696 3.0231 2.9864 2.9809 2.9781 2.9694 2.9693 3.0028 3.0259 3.04324 3.07424
1938.990 3.09902 3.1424 3.1995 3.2354 3.2334 3.2251 3.2607 3.2722 3.2375 3.2907
1958.283 3.3637 3.3669 3.3716 3.3651 3.3659 3.3823 3.3734 3.3442 3.3072 3.2941
1977.577 3.3142 3.2946 3.2422 3.2509 3.2736 3.2906 3.2918 3.2966 3.3359 3.4055
1996.870 3.4872 3.5196 3.5898 3.657 3.7068 3.8079 3.8859 3.9828 4.12 4.22
2016.164 4.3 4.44 4.57 4.65 4.7 4.74 4.78 4.81 4.8 4.76
2035.457 4.74 4.7 4.63 4.58 4.55 4.5 4.44 4.41 4.34 4.26
2054.750 4.23 4.24 4.17 4.07 4.0234 3.9569 3.9041 3.8534 3.8002 3.739
2074.044 3.6723 3.6238 3.5443 3.4475 3.382 3.3368 3.2782 3.2019 3.161 3.11184
2093.337 3.03738 3.0014 2.9605 2.878 2.859 2.851 2.794 2.779 2.796 2.796
2112.631 2.793 2.784 2.77 2.795 2.807 2.806 2.768 2.765 2.822 2.829
2131.924 2.812 2.801 2.805 2.808 2.806 2.792 2.739 2.721 2.692 2.662
2151.218 2.646 2.585 2.536 2.499 2.47 2.445 2.404 2.378 2.342 2.308
2170.511 2.338 2.363 2.35 2.328 2.306 2.303 2.303 2.33 2.342 2.321
2189.804 2.29 2.292 2.312 2.323 2.348 2.349 2.367 2.388 2.399 2.408
2209.098 2.405 2.41 2.428 2.413 2.397 2.435 2.445 2.412 2.399 2.436
2228.391 2.449 2.405 2.41 2.416 2.387 2.37 2.382 2.439 2.467 2.468
2247.685 2.461 2.472 2.483 2.494 2.5 2.505 2.517 2.54 2.569 2.564
2266.978 2.578 2.597 2.576 2.558 2.551 2.536 2.483 2.432 2.449 2.448
2286.272 2.421 2.405 2.375 2.328 2.318 2.335 2.306 2.268 2.29 2.361
2305.565 2.342 2.324 2.342 2.333 2.356 2.343 2.331 2.314 2.305 2.271
2324.858 2.225 2.232 2.176 2.123 2.125 2.093 2.089 2.117 2.102 2.096
2344.152 2.092 2.075 2.116 2.137 2.093 2.046 2 2.01 1.98 1.97
2363.445 2.04 2.064 2.068 2.078 2.133 2.171 2.171 2.167 2.136 2.174
2382.739 2.191 2.164 2.166 2.158 2.128 2.152 2.151 2.136 2.185 2.182
2402.032 2.159 2.166 2.178 2.226 2.232 2.155 2.126 2.129 2.115 2.099
2421.326 2.093 2.144 2.185 2.14 2.13 2.152 2.135 2.159 2.164 2.132
2440.619 2.116 2.133 2.126 2.065 2.099 2.132 2.128 2.114 2.101 2.116
2459.912 2.095 2.09 2.107 2.092 2.083 2.117 2.124 2.123 2.135 2.15
2479.206 2.155 2.161 2.206 2.21 2.253 2.308 2.322 2.329 2.35 2.376
2498.499 2.377 2.396 2.418 2.454 2.472 2.443 2.439 2.471 2.491 2.514
2517.793 2.528 2.521 2.512 2.5 2.54 2.591 2.579 2.592 2.582 2.606
2537.086 2.638 2.625 2.611 2.554 2.559 2.554 2.517 2.521 2.556 2.605
2556.380 2.602 2.587 2.655 2.735 2.76 2.744 2.785 2.857 2.893 2.955
2575.673 3.0197 3.0759 3.09289 3.09952 3.1494 3.1548 3.1895 3.2588 3.279 3.2681
2594.966 3.1818 3.152 3.1798 3.13895 3.08746 3.03666 2.924 2.843 2.771 2.739
2614.260 2.757 2.667 2.555 2.512 2.45 2.391 2.365 2.336 2.314 2.269
2633.553 2.193 2.163 2.149 2.093 2.108 2.121 2.102 2.08 2.01 1.97
2652.847 1.95 1.96 1.91 1.86 1.89 1.89 1.83 1.77 1.76 1.82
2672.140 1.87 1.8 1.76 1.8 1.8 1.79 1.78 1.82 1.83 1.75
2691.434 1.71 1.71 1.77 1.75 1.67 1.69 1.63 1.6 1.63 1.68
2710.727 1.7 1.66 1.69 1.69 1.66 1.68 1.76 1.83 1.8 1.78
2730.020 1.92 1.99 1.92 1.91 1.94 1.91 1.89 1.92 1.92 1.89
2749.314 1.95 1.99 1.94 1.98 2.062 2.122 2.176 2.211 2.262 2.324
2768.607 2.37 2.401 2.396 2.445 2.464 2.482 2.532 2.532 2.612 2.667
2787.901 2.71 2.829 2.891 2.914 3.0262 3.1692 3.355 3.5308 3.6721 3.9147
2807.194 4.19 4.44 4.74 5.08 5.45 5.84 6.25 6.73 7.33 7.99
2826.488 8.77 9.68 10.68 11.77 12.98 14.32 15.71 17.08 18.18 18.9
2845.781 19.12 18.85 18.26 17.31 16.17 15.11 14.21 13.44 12.91 12.49
2865.074 12.19 12.1 11.99 11.88 11.91 12.08 12.27 12.55 12.84 13.09
2884.368 13.35 13.56 13.74 13.88 13.99 14.16 14.47 14.93 15.45 15.98
2903.661 16.72 17.56 18.48 19.42 20.2 20.86 21.37 21.75 22.05 22.26
2922.955 22.61 23.1 23.76 24.82 26.38 28.5 31.11 34.09 37.18 39.93
2942.248 42.1 43.53 43.99 43.69 42.75 41.32 39.8 38.42 37.44 36.83
2961.542 36.32 35.91 35.5 34.93 34.35 34.01 34.03 34.31 35.1 36.28
2980.835 37.52 38.52 38.87 38.52 37.56 36.19 34.68 33.34 32.34 31.93
3000.128 31.99 32.15 32.28 32.24 31.79 30.59 28.57 26.06 23.16 20.14
3019.422 17.43 15.16 13.24 11.72 10.52 9.57 8.84 8.25 7.76 7.29
3038.715 6.89 6.66 6.39 6.19 6.01 5.82 5.72 5.58 5.52 5.52
3058.009 5.54 5.48 5.49 5.55 5.61 5.68 5.82 5.99 6.21 6.35
3077.302 6.45 6.62 6.55 6.36 6.21 5.9 5.57 5.36 4.95 4.45
3096.596 4.0079 3.677 3.4637 3.2688 3.08924 2.862 2.717 2.51 2.314 2.258
3115.889 2.179 2.114 2.04 1.94 1.78 1.6 1.48 1.5 1.54 1.41
3135.182 1.31 1.35 1.27 1.19 1.16 1.2 1.14 1.03 1.04 1.06
3154.476 0.99 0.94 0.98 0.95 0.92 0.91 0.99 1.01 0.92 0.95
3173.769 0.99 0.9 0.82 0.79 0.72 0.74 0.78 0.78 0.79 0.76
3193.063 0.68 0.76 0.7 0.55 0.45 0.39 0.55 0.6 0.5 0.44
3212.356 0.5 0.41 0.34 0.28 0.22 0.26 0.3 0.22 0.26 0.32
3231.650 0.23 0.18 0.27 0.38 0.33 0.2 0.15 0.14 0.22 0.19
3250.943 0.17 0.22 0.07 0 0 0.06 0.04 0.08 0.22 0.29
3270.236 0.24 0.17 0.24 0.23 0.22 0.27 0.17 0.08 0.09 0.18
3289.530 0.21 0.15 0.3 0.4 0.34 0.24 0.24 0.23 0.23 0.32
3308.823 0.36 0.36 0.5 0.49 0.33 0.39 0.51 0.44 0.38 0.5
3328.117 0.53 0.52 0.57 0.59 0.56 0.56 0.45 0.28 0.31 0.47
3347.410 0.52 0.43 0.37 0.43 0.47 0.46 0.46 0.55 0.61 0.68
3366.704 0.59 0.34 0.44 0.54 0.53 0.5 0.59 0.79 0.75 0.64
3385.997 0.56 0.61 0.61 0.49 0.57 0.71 0.68 0.57 0.59 0.63
3405.290 0.63 0.66 0.74 0.67 0.52 0.65 0.7 0.67 0.66 0.69
3424.584 0.74 0.73 0.79 0.83 0.97 1.1 1.12 1.12 1.24 1.43
3443.877 1.53 1.51 1.51 1.61 1.61 1.62 1.57 1.58 1.67 1.56
3463.171 1.39 1.32 1.28 1.27 1.16 1 0.94 0.92 0.95 0.96
3482.464 0.95 0.96 0.94 0.85 0.81 0.84 0.8 0.7 0.75 0.84
3501.758 0.85 0.84 0.89 0.92 0.86 0.9 0.93 0.99 1.01 0.92
3521.051 0.95 0.93 0.98 1.06 0.86 0.75 0.87 0.94 0.94 0.91
3540.344 0.87 0.86 0.88 1.01 1.04 0.95 0.91 0.86 0.91 0.95
3559.638 0.96 0.93 0.91 0.93 0.95 1.06 1.2 1.17 1.15 1.17
3578.931 1.08 1.06 1.11 1.14 1.14 1.18 1.15 1.09 1.08 1.06
3598.225 1.12 1.2 1.19 1.04 0.97 1.12 1.12 1.03 1.13 1.14
3617.518 0.98 0.95 1.12 1.1 1.03 1.08 1.11 1.19 1.17 1.09
3636.812 1.11 1.22 1.17 1.12 1.15 1.19 1.21 1.14 1.1 1.19
3656.105 1.24 1.22 1.25 1.29 1.31 1.28 1.17 1.14 1.14 1.14
3675.398 1.13 1.2 1.26 1.23 1.25 1.28 1.15 1.09 1.21 1.28
3694.692 1.31 1.36 1.36 1.29 1.3 1.36 1.29 1.23 1.21 1.22
3713.985 1.35 1.35 1.33 1.35 1.23 1.17 1.22 1.22 1.21 1.28
3733.279 1.34 1.32 1.34 1.4 1.36 1.26 1.25 1.3 1.26 1.18
3752.572 1.24 1.31 1.29 1.28 1.3 1.37 1.36 1.34 1.33 1.3
3771.866 1.26 1.25 1.3 1.27 1.31 1.33 1.35 1.39 1.42 1.43
3791.159 1.41 1.43 1.39 1.32 1.44 1.5 1.43 1.49 1.47 1.43
3810.452 1.42 1.35 1.37 1.34 1.31 1.4 1.42 1.39 1.38 1.37
3829.746 1.31 1.29 1.33 1.33 1.28 1.37 1.4 1.42 1.47 1.45
3849.039 1.42 1.34 1.3 1.42 1.5 1.43 1.36 1.41 1.47 1.47
3868.333 1.52 1.53 1.48 1.5 1.5 1.52 1.56 1.57 1.6 1.58
3887.626 1.56 1.54 1.52 1.46 1.46 1.4 1.34 1.44 1.45 1.43
3906.920 1.43 1.45 1.48 1.5 1.45 1.4 1.46 1.43 1.41 1.4
3926.213 1.39 1.48 1.47 1.45 1.45 1.47 1.5 1.41 1.39 1.5
3945.506 1.53 1.54 1.53 1.53 1.59 1.6 1.59 1.55 1.59 1.69
3964.800 1.66 1.63 1.68 1.65 1.61 1.6 1.65 1.68 1.6 1.63
3984.093 1.73 1.69 1.65 1.7 1.65 1.65 1.72 1.7 1.71
##END=
