##TITLE=2-(Trifluoromethyl)benzyl bromide
##JCAMP-DX=4.24
##DATA TYPE=INFRARED SPECTRUM
##ORIGIN=EPA-IR VAPOR PHASE LIBRARY
##OWNER=SRD/NIST
Collection (C) 2018 copyright by the U.S. Secretary of Commerce
on behalf of the United States of America. All rights reserved.
##CAS REGISTRY NO=395-44-8
##MOLFORM=C 8 H 6 Br F 3
##$NIST SOURCE=MSDC-IR
##STATE=gas
##XUNITS=1/CM
##YUNITS=ABSORBANCE
##XFACTOR=1.
##YFACTOR=0.001
##DELTAX=1.92898
##FIRSTX=549.8
##LASTX=4000.7
##FIRSTY=2.988
##MAXX=4000.7
##MINX=549.759
##MAXY=0.288928
##MINY=0
##NPOINTS=1790
##XYDATA=(X++(Y..Y))
549.759 2.988 2.618 3.678 4.368 4.618 5.228 5.778 5.968 5.918 5.458
569.049 5.348 5.528 4.358 3.378 3.548 3.858 3.978 3.808 4.538 4.668
588.339 4.468 4.928 5.658 6.358 6.878 7.188 6.868 7.838 8.458 9.208
607.628 11.008 12.628 14.948 17.218 19.668 21.988 23.848 25.068 25.008 24.738
626.918 24.128 22.398 20.568 18.288 15.828 14.268 13.228 12.998 13.548 14.628
646.208 17.568 20.588 21.848 22.798 23.398 23.088 21.658 19.648 17.188 14.798
665.498 12.928 11.518 10.208 9.478 9.508 8.518 7.288 6.898 6.698 6.248
684.787 5.628 5.288 5.168 4.868 4.788 4.418 4.048 4.278 3.888 3.688
704.077 3.718 3.628 3.488 3.368 3.608 3.318 3.098 3.148 3.418 3.348
723.367 3.018 3.408 3.688 4.098 4.328 4.738 5.258 5.988 7.258 8.598
742.657 10.538 13.008 16.008 19.598 24.608 30.878 38.148 44.878 50.768 58.638
761.947 68.588 68.958 55.918 44.298 37.498 30.768 23.078 16.158 10.998 7.688
781.236 5.878 4.708 3.928 3.458 3.298 3.078 2.838 2.438 2.138 2.378
800.526 2.488 2.488 2.288 2.308 2.888 3.298 3.218 3.288 4.288 5.438
819.816 5.858 6.348 6.568 6.338 6.368 5.998 5.328 4.748 4.128 3.608
839.106 3.578 3.478 3.228 3.158 3.078 3.068 2.708 2.458 2.368 2.248
858.395 2.898 3.508 3.668 3.818 4.198 4.808 4.868 4.228 4.048 4.178
877.685 3.918 3.838 3.988 3.688 3.118 2.598 2.278 2.498 2.438 2.238
896.975 2.038 1.958 2.108 1.8872 1.6612 1.7666 2.048 1.6977 1.4614 1.7261
916.265 1.4662 1.4706 1.6901 1.6112 1.2183 0.806 1.1952 1.5452 1.6293 2.218
935.555 2.208 1.8147 2.068 2.418 3.178 4.268 4.778 4.778 5.168 5.478
954.844 5.208 4.618 4.248 3.748 3.278 3.148 2.648 2.208 1.958 1.998
974.134 2.298 2.208 1.8804 2.098 2.548 2.538 2.538 2.788 3.268 3.518
993.424 3.378 3.358 3.328 3.348 3.148 3.158 3.778 3.618 3.658 4.328
1012.714 4.808 5.678 5.978 6.418 8.458 12.348 16.768 22.388 30.718 40.958
1032.003 51.188 59.628 63.268 63.628 64.628 62.598 56.028 46.598 37.918 33.358
1051.293 32.668 35.078 38.618 42.408 44.608 45.588 46.118 42.898 36.868 30.248
1070.583 23.288 18.028 14.738 13.748 12.118 11.228 13.678 13.968 14.758 17.168
1089.873 19.468 22.428 26.088 29.598 33.278 36.758 39.248 41.458 42.298 41.688
1109.163 40.858 41.098 42.558 45.438 51.698 60.018 71.058 86.458 104.888 128.528
1128.452 155.798 185.678 218.138 247.798 268.498 283.128 288.928 279.728 258.688 231.468
1147.742 202.808 173.078 146.148 122.528 103.428 90.858 81.928 75.958 74.048 75.508
1167.032 80.128 87.958 97.898 109.538 121.868 132.008 137.928 139.188 134.338 125.508
1186.322 113.048 95.408 79.648 66.388 54.248 45.418 38.758 33.948 31.128 29.168
1205.611 27.158 25.988 25.958 26.248 27.368 28.888 29.338 31.498 33.368 33.218
1224.901 33.018 33.198 30.838 28.298 26.918 23.888 22.378 20.468 17.128 15.848
1244.191 16.298 15.928 15.278 14.968 14.518 14.198 13.968 14.148 14.518 14.958
1263.481 15.118 15.778 17.488 18.618 20.408 23.148 26.308 30.758 36.348 44.308
1282.771 54.858 67.858 82.658 97.398 110.528 119.898 125.528 129.218 132.218 134.858
1302.060 137.688 144.598 159.598 182.098 206.378 225.588 235.328 235.108 225.908 207.218
1321.350 177.548 140.118 102.898 72.318 50.218 35.678 26.598 20.728 16.998 14.398
1340.640 12.678 11.558 10.608 9.898 9.268 8.848 8.758 8.588 8.338 8.028
1359.930 7.658 7.168 6.688 6.348 5.828 5.508 5.248 4.758 4.298 4.168
1379.219 4.088 3.918 3.768 3.658 3.588 3.508 3.408 3.348 3.338 3.388
1398.509 3.508 3.728 3.978 3.918 3.918 4.048 4.108 4.068 3.958 3.918
1417.799 4.128 4.398 4.538 4.648 4.988 5.448 5.678 5.858 6.188 6.558
1437.089 6.868 7.238 7.918 8.998 10.418 12.098 14.068 15.938 17.538 18.268
1456.378 18.018 17.398 16.098 14.208 11.968 9.718 8.068 6.948 6.138 5.668
1475.668 5.648 5.918 6.058 5.908 6.348 6.648 7.118 7.868 8.218 8.528
1494.958 8.268 7.618 7.328 7.038 6.118 5.118 4.288 3.538 3.078 2.858
1514.248 2.918 2.918 2.848 2.808 2.638 2.428 2.448 2.618 2.428 2.238
1533.538 2.428 2.288 1.7357 1.6418 1.8247 1.8147 1.8934 1.8579 1.7109 1.7731
1552.827 1.9282 2.048 2.088 1.9181 1.9042 2.048 2.138 2.528 3.108 3.358
1572.117 4.038 4.708 5.088 5.828 6.598 6.978 7.008 6.948 6.778 6.598
1591.407 6.548 6.498 6.458 6.868 7.448 8.038 8.318 8.498 8.358 7.978
1610.697 7.988 7.298 6.588 6.038 5.398 5.208 4.898 4.548 4.378 4.618
1629.986 4.698 4.698 4.948 4.778 4.558 4.478 4.368 4.338 4.198 3.828
1649.276 3.398 3.108 2.808 2.568 2.508 2.258 2.248 2.168 1.8242 1.814
1668.566 1.6299 1.4028 1.4772 1.3973 1.407 1.2996 1.1622 1.1944 1.1666 1.413
1687.856 1.5991 1.5035 1.4252 1.491 1.6569 1.7844 1.7464 1.8252 1.978 2.148
1707.146 2.488 2.808 2.768 2.788 2.748 2.598 2.508 2.458 2.318 2.098
1726.435 2.148 2.218 2.078 1.8178 1.907 1.948 2.088 2.278 2.148 2.198
1745.725 1.9157 1.7378 1.8362 1.8441 1.8603 1.8495 1.8044 1.7498 1.8449 1.869
1765.015 1.6924 1.6531 1.6704 1.4211 1.3079 1.303 1.3628 1.4429 1.3672 1.4751
1784.305 1.5156 1.4215 1.5936 1.6824 1.6189 1.7114 1.7727 1.7014 1.6358 1.8475
1803.594 2.068 1.998 2.128 2.368 2.398 2.608 2.718 2.758 3.008 3.068
1822.884 3.118 3.028 2.828 2.638 2.558 2.518 2.298 2.188 2.078 1.958
1842.174 2.088 2.128 1.968 1.968 1.998 2.028 2.018 2.068 2.128 2.088
1861.464 2.008 1.9103 1.7988 1.7289 1.5833 1.6749 1.8793 1.8255 1.9113 1.978
1880.754 1.988 1.8713 1.8484 1.8597 1.79 2.008 2.128 2.038 2.058 2.188
1900.043 2.148 2.018 2.028 2.058 2.048 2.048 2.068 2.028 2.118 2.098
1919.333 2.208 2.478 2.608 2.838 3.058 3.288 3.498 3.648 3.768 3.648
1938.623 3.168 2.758 2.468 2.198 2.058 2.148 2.178 2.178 2.388 2.568
1957.913 2.638 2.588 2.618 2.848 2.878 2.658 2.658 2.518 1.968 1.6687
1977.202 1.7354 1.5712 1.5037 1.473 1.4933 1.4571 1.2419 1.3309 1.3844 1.3698
1996.492 1.3172 1.2568 1.2328 1.1029 1.1535 1.3335 1.3491 1.2952 1.2687 1.227
2015.782 1.2448 1.3141 1.322 1.2855 1.2266 1.2936 1.3602 1.3647 1.3021 1.3084
2035.072 1.3906 1.4289 1.4424 1.1468 1.0783 1.2837 1.4076 1.5094 1.459 1.3298
2054.362 1.3349 1.4823 1.6208 1.6305 1.5888 1.603 1.591 1.6255 1.655 1.4959
2073.651 1.3781 1.4086 1.1715 1.134 1.2369 1.0973 1.0705 1.2463 1.4996 1.3796
2092.941 1.1499 1.1397 1.315 1.4015 1.2562 1.2129 1.1952 1.03469 0.9875 1.0882
2112.231 1.1382 1.1968 1.1845 1.1977 1.2123 1.3168 1.3983 1.2642 1.2629 1.2216
2131.521 1.2967 1.4367 1.3756 1.2458 1.1456 1.26 1.2517 1.1794 1.2578 1.3416
2150.810 1.3228 1.1334 1.03002 1.1455 1.2267 1.2136 1.3752 1.4474 1.379 1.3691
2170.100 1.4403 1.4852 1.3872 1.3326 1.5331 1.7629 1.6509 1.5526 1.5509 1.3865
2189.390 1.4822 1.5187 1.325 1.2711 1.3744 1.4723 1.5076 1.5634 1.5119 1.5575
2208.680 1.6936 1.6998 1.5608 1.5719 1.658 1.4973 1.4479 1.7494 1.732 1.6251
2227.970 1.8273 1.8849 1.7709 1.7979 1.9048 2.078 2.228 2.398 2.288 1.938
2247.259 1.8982 1.9094 1.9047 1.883 1.948 2.008 1.968 1.9075 1.938 2.038
2266.549 2.028 1.968 1.7178 1.6546 1.958 1.8315 1.5487 1.5201 1.5425 1.6132
2285.839 1.7401 1.7227 1.562 1.7131 1.8259 1.684 1.5867 1.5884 1.6422 1.7327
2305.129 1.7002 1.871 2.028 1.8001 1.8767 1.8902 1.8663 1.7682 1.8026 2.208
2324.418 2.198 2.048 1.968 2.158 2.228 2.228 2.278 1.998 1.8097 1.7059
2343.708 1.7528 1.8066 1.7706 1.6815 1.4431 1.3279 1.448 1.4532 1.3443 1.602
2362.998 1.63 1.4899 1.5056 1.3693 1.4101 1.3816 1.288 1.1684 1.2802 1.5571
2382.288 1.5081 1.265 1.0831 1.2983 1.4806 1.6048 1.5282 1.2669 1.3919 1.5017
2401.578 1.3825 1.2462 1.3552 1.3983 1.3182 1.285 1.3195 1.3806 1.3547 1.2239
2420.867 1.01427 1.0748 1.3614 1.6379 1.7982 1.7007 1.5154 1.3638 1.556 1.6121
2440.157 1.3008 1.3051 1.3188 1.2341 1.3391 1.5969 1.7487 1.6223 1.441 1.5131
2459.447 1.3923 1.2025 1.3824 1.5075 1.3147 1.4967 1.8631 1.6364 1.5053 1.6482
2478.737 1.4707 1.3795 1.5557 1.4052 1.134 0.9041 0.98431 1.053 1.0445 1.1252
2498.026 1.01896 1.0786 1.3929 1.6132 1.3734 1.1036 1.2691 1.4619 1.1876 1.092
2517.316 1.2692 1.3366 1.1687 1.1458 1.355 1.2521 0.92861 0.9234 1.0388 1.0552
2536.606 1.0937 1.0622 1.0483 1.0585 1.1524 1.3268 1.4822 1.2762 0.99813 0.96106
2555.896 1.0649 1.1696 1.2307 1.213 1.2 1.1107 1.2052 1.2736 0.8451 0.728
2575.186 0.9161 0.940182 1.00509 1.1229 1.2536 1.2211 1.2655 1.3008 0.99833 0.96025
2594.475 1.4025 1.5864 1.5496 1.5369 1.7134 1.9003 1.7764 1.7391 1.7402 1.6625
2613.765 1.4759 1.6015 1.6038 1.7299 1.7345 1.5083 1.4241 1.46 1.5259 1.2879
2633.055 1.3925 1.491 1.5292 1.5118 1.3483 1.2657 1.00078 0.8807 1.0822 1.0616
2652.345 0.941169 0.8853 1.2822 1.5829 1.2356 1.258 1.4454 1.1901 1.1449 1.4145
2671.634 1.3239 1.3839 1.5981 1.2217 0.9045 1.2454 1.4891 1.4758 1.3581 1.2634
2690.924 1.0418 0.683 0.824 1.0518 0.903 0.839 0.9156 1.0883 1.276 1.207
2710.214 1.2672 1.2359 0.93604 0.753 0.785 0.8 0.792 0.96427 1.147 0.96311
2729.504 0.655 0.8497 1.0516 1.2092 1.2341 0.765 0.821 1.1625 0.9262 0.678
2748.794 0.8515 1.0768 1.0707 0.8878 1.01065 1.02432 0.94863 1.1993 1.1712 1.1135
2768.083 1.2499 1.1812 1.1153 1.1158 1.2463 1.4147 1.2956 1.1579 1.2183 1.223
2787.373 1.1922 1.2836 1.3495 1.4296 1.3859 1.2106 1.1703 1.2005 1.1169 1.1196
2806.663 1.1975 1.1413 1.1616 1.3007 1.2986 1.3408 1.4988 1.3767 1.3946 1.4004
2825.953 1.3715 1.4784 1.113 1.00519 1.0429 1.0879 1.4575 1.2136 1.1612 1.5644
2845.242 1.3028 0.805 0.868 1.1645 1.1501 1.4084 1.5274 1.2433 1.3324 1.4718
2864.532 1.5341 1.5606 1.5563 1.7588 1.8646 1.5784 1.6982 1.8332 1.4509 1.3623
2883.822 1.3888 1.5096 1.758 1.788 1.7934 1.8418 1.6803 1.6124 1.9348 2.098
2903.112 2.038 2.138 2.038 1.8423 1.66 1.7428 2.118 2.148 1.998 1.909
2922.401 1.7643 1.988 2.038 1.5034 1.3818 1.5966 1.8576 1.8072 1.4753 1.2183
2941.691 1.424 1.8212 1.8696 1.5205 1.1664 1.513 1.5553 1.4511 1.6902 1.6645
2960.981 1.5804 2.008 2.108 1.8804 1.968 1.6629 1.8336 2.518 2.388 2.528
2980.271 3.168 3.418 3.868 3.918 3.948 4.438 4.978 5.738 5.938 5.508
2999.561 5.118 4.948 4.938 4.528 3.918 3.268 3.288 3.618 3.198 2.738
3018.850 3.008 2.888 2.708 3.328 3.328 3.228 3.828 4.388 4.478 5.058
3038.140 5.868 6.418 6.948 6.828 6.588 6.658 6.598 6.178 6.218 6.658
3057.430 6.468 6.478 6.908 7.348 7.758 8.548 9.518 10.388 11.368 12.158
3076.720 12.678 12.958 13.198 13.498 13.188 12.278 11.188 10.188 9.458 8.548
3096.009 7.288 5.798 4.748 4.048 3.628 3.698 3.218 2.498 2.278 2.488
3115.299 2.718 2.838 2.718 2.628 2.718 2.738 2.328 1.71 1.6188 1.8448
3134.589 1.998 1.948 1.998 1.6564 1.2083 0.99737 1.3684 1.6971 1.5907 1.4997
3153.879 1.3153 1.4115 1.7801 1.6386 1.6449 2.108 2.058 2.058 1.7555 1.2046
3173.169 1.2051 1.503 1.7215 1.5698 1.1559 1.2199 1.1935 1.1959 1.5645 1.3121
3192.458 1.4127 1.7729 1.579 1.4222 1.1474 1.01893 1.1466 1.0626 1.0955 0.937901
3211.748 0.699 0.824 0.688 0.8573 1.2351 1.264 1.2581 1.3286 1.3004 1.3113
3231.038 1.1685 0.8639 0.8528 0.644 0.608 0.377 0.453 1.1363 1.4475 1.3929
3250.328 1.4142 1.1801 0.8864 0.631 0.646 0.8698 0.621 0.505 0.745 0.9031
3269.617 1.1599 1.5247 1.4052 1.0513 1.0748 1.1452 1.1209 1.2584 1.0893 1.2484
3288.907 1.4936 1.4264 1.0588 0.771 1.0922 1.3239 1.5301 1.6404 1.7581 1.8341
3308.197 1.4512 1.1388 1.0532 0.8477 0.8683 0.97605 0.777 0.915 1.2264 1.2253
3327.487 1.1751 1.0662 1.2279 0.99771 1.1527 1.5217 1.2322 0.8431 0.786 1.0484
3346.777 1.01999 0.676 0.52 0.659 0.784 1.1874 1.1979 1.1084 0.782 0.826
3366.066 1.345 1.4695 1.4678 0.732 0.585 1.2638 1.4042 1.0707 1.2228 1.469
3385.356 1.0932 0.738 0.621 0.596 0.693 0.8423 0.628 0.439 1.01626 1.6741
3404.646 1.4059 1.0579 1.02426 1.1666 1.251 1.1467 0.8948 0.679 0.9158 1.0781
3423.936 1.0973 1.2548 1.4169 1.6172 1.5629 1.2754 1.1366 1.1141 0.799 0.8759
3443.225 1.3089 0.95052 0.696 1.02054 1.3289 1.4419 1.1163 1.3686 1.3977 0.94972
3462.515 1.01347 1.0723 1.2429 0.94898 0.772 0.829 0.793 1.1853 1.2735 0.746
3481.805 0.465 0.672 0.98381 0.827 0.657 0.813 0.98905 1.2188 1.02947 0.95815
3501.095 1.4076 1.4886 1.2778 0.965 0.576 0.698 1.1553 1.4313 1.0656 0.41
3520.385 0.717 1.3294 0.95172 0.656 0.832 1.138 1.1398 0.96936 1.00424 0.8396
3539.674 0.74 0.94808 0.8657 0.621 0.783 1.1548 1.5316 1.3191 1.0926 1.236
3558.964 0.771 0.553 1.2555 1.5702 1.2151 0.94103 0.751 0.809 0.99277 1.6693
3578.254 1.8084 1.3443 1.3555 1.1292 0.8743 0.93109 0.98699 0.96978 0.96917 0.828
3597.544 0.9181 1.4759 1.3624 1.0586 1.2085 1.3004 1.3282 1.3883 1.3666 0.8557
3616.833 0.685 1.01408 1.00928 1.2461 1.4124 1.0884 0.871 0.8921 1.208 1.4748
3636.123 1.4509 1.2076 0.8511 0.778 0.9225 0.8514 0.8406 0.78 1.0593 1.1741
3655.413 1.3081 1.3404 1.1447 1.3488 1.4524 0.848 0.563 1.0792 1.2972 1.3488
3674.703 0.8763 0.606 1.02236 1.2022 1.3571 1.5642 1.3442 1.01996 1.0825 1.4916
3693.993 1.4439 1.0891 0.8854 0.689 0.8979 0.9313 0.95721 0.9054 0.654 0.658
3713.282 0.702 0.96758 1.0893 1.275 1.2696 1.0999 1.1653 1.2633 1.5589 1.6434
3732.572 1.2685 1.01493 0.98029 0.95792 1.103 1.1752 0.73 0.754 1.1002 0.8935
3751.862 0.99481 1.1922 1.0794 1.0257 1.02374 1.1886 1.5783 1.4199 0.9002 0.759
3771.152 1.2576 1.4661 1.1991 1.5422 1.7594 1.1885 0.795 0.626 0.57 0.8616
3790.441 1.0872 1.2536 1.1953 1.00923 0.872 0.789 1.2288 1.346 0.8649 0.99783
3809.731 0.8542 0.575 1.1204 1.5464 1.6289 1.1481 0.98823 1.4067 1.3775 1.288
3829.021 1.1151 0.9273 0.556 0.511 0.697 0.744 1.01575 1.3108 0.94832 1.1392
3848.311 1.5668 0.584 0.288 1.0457 1.103 0.97294 1.0258 0.99986 1.02397 0.703
3867.601 0 0.286 0.99595 1.094 1.0872 0.8876 0.98646 0.9258 0.609 0.9105
3886.890 1.447 1.2828 0.9989 1.4725 1.7679 1.7238 1.2995 1.1485 1.2767 1.2996
3906.180 1.2289 1.2737 1.2987 0.99955 1.4832 1.5197 0.98122 1.6775 2.108 1.3752
3925.470 0.801 1.0646 1.6546 1.5254 1.4237 1.2688 0.8746 0.833 1.2997 1.6644
3944.760 1.4843 1.02044 0.453 0.658 0.9565 1.2889 1.6607 1.4328 1.1133 1.02646
3964.049 1.2355 0.9984 0.703 1.02679 1.01791 0.97239 1.2615 1.2007 1.1474 1.1853
3983.339 0.8927 0.98226 1.0583 1.0901 1.2837 1.4229 1.7058 1.2237 1.1094 1.2343
##END=
