##TITLE=4-(4-Chlorophenyl)-4-hydroxypiperidine
##JCAMP-DX=4.24
##DATA TYPE=INFRARED SPECTRUM
##ORIGIN=EPA-IR VAPOR PHASE LIBRARY
##OWNER=SRD/NIST
Collection (C) 2018 copyright by the U.S. Secretary of Commerce
on behalf of the United States of America. All rights reserved.
##CAS REGISTRY NO=39512-49-7
##MOLFORM=C 11 H 14 Cl N O
##$NIST SOURCE=MSDC-IR
##STATE=gas
##XUNITS=1/CM
##YUNITS=ABSORBANCE
##XFACTOR=1.
##YFACTOR=0.001
##DELTAX=1.92898
##FIRSTX=549.8
##LASTX=4000.7
##FIRSTY=15.0232
##MAXX=4000.7
##MINX=549.759
##MAXY=0.0697632
##MINY=0
##NPOINTS=1790
##XYDATA=(X++(Y..Y))
549.759 15.0232 13.2032 11.6732 10.2132 8.3032 6.9532 6.5932 6.4332 5.5932 4.6132
569.049 4.2132 4.2232 4.5532 4.7432 5.0332 4.5432 4.5232 4.7632 3.9532 3.6032
588.339 3.7232 3.9632 3.9432 3.2932 3.3032 3.7232 3.3132 3.3032 3.6132 2.8932
607.628 2.6532 2.9032 2.4332 2.2932 2.7732 2.6332 2.4432 3.1332 3.2732 2.8532
626.918 3.1632 3.5332 3.4832 3.9332 4.0332 3.6132 3.4732 3.6032 3.8832 4.1132
646.208 3.8732 4.0432 4.4832 4.7632 5.1132 5.2232 5.4032 5.7032 6.2132 7.1132
665.498 7.9832 8.3732 8.7432 9.2632 9.1232 9.1132 9.2032 8.9832 9.1632 8.6432
684.787 7.7932 7.3232 7.1032 6.6732 6.2532 5.9832 5.5732 5.5632 5.9532 6.3932
704.077 6.8132 7.1832 7.6332 8.2632 8.9232 9.7132 10.4832 11.2332 12.4432 13.9432
723.367 15.6332 17.4032 19.4732 22.1332 25.0132 26.8132 27.3932 27.4432 26.2232 24.7232
742.657 23.8132 23.1032 22.8032 23.0532 23.6632 24.2932 24.6532 24.8832 24.5732 23.6032
761.947 22.4632 21.2032 20.0532 18.8132 17.0932 15.5832 14.7432 13.8032 12.4732 11.4032
781.236 10.6332 10.0032 9.8032 9.7632 9.4232 9.4832 9.6932 9.7232 10.1832 10.6132
800.526 11.3932 12.0332 12.6532 13.8332 15.0532 16.6732 18.6632 20.6432 22.8732 24.8432
819.816 26.3132 27.7332 28.4432 28.1432 27.0532 25.3732 23.0832 20.3432 17.5332 15.0332
839.106 13.1032 11.5932 10.0532 8.7932 8.1932 8.0032 7.9332 7.4732 7.2232 7.3032
858.395 6.9732 6.3832 5.6732 5.2032 4.9832 4.3732 3.7932 3.2932 3.5732 3.9332
877.685 3.9332 4.1932 4.3132 4.5432 4.4832 4.5132 4.7232 4.8732 5.0332 5.3332
896.975 5.8232 6.0932 6.1732 6.5532 6.6732 6.5132 6.8632 7.0432 6.9832 6.7432
916.265 6.5432 6.4432 5.7432 5.4032 5.4432 5.3832 5.4832 5.0432 5.1232 5.7232
935.555 5.8432 6.0632 6.5432 7.5732 8.6932 9.5532 10.5432 11.3032 12.1132 12.8732
954.844 13.2832 13.4532 13.1932 13.2832 13.4832 13.5732 13.9432 13.9132 13.5832 13.6932
974.134 13.4132 12.6632 12.1432 11.3232 10.1232 9.0232 8.5532 8.4032 8.3232 8.5032
993.424 8.8132 9.1032 9.6832 10.7332 12.7132 15.5632 19.6032 26.3732 33.8332 38.2732
1012.714 39.2232 38.8632 36.4332 30.1632 22.1232 16.0032 13.6232 13.4432 12.9932 12.1132
1032.003 12.6032 12.6932 12.0532 12.4732 12.4932 12.1432 11.4432 10.2932 9.7532 9.6032
1051.293 9.0132 8.5332 8.7532 8.6832 8.6132 8.9432 8.5832 8.5032 9.0832 8.9832
1070.583 9.9532 11.0432 11.1532 11.6832 11.9532 13.3332 16.0832 18.0532 20.3132 25.6032
1089.873 32.0632 39.2332 48.1332 54.7432 57.1932 56.3932 51.9432 43.9432 34.9532 27.9632
1109.163 24.1732 21.6532 21.1432 21.4432 21.2832 21.6232 21.8832 22.6432 23.8132 24.5032
1128.452 25.8332 26.4332 26.6732 26.7332 26.5232 27.0232 25.5932 23.9532 22.4432 21.2332
1147.742 19.9732 18.0332 16.5432 15.1932 14.1932 13.3032 12.5832 12.6432 12.5632 11.7832
1167.032 11.2432 10.6232 10.2132 10.5332 11.0132 11.0332 10.4932 10.7832 11.1132 11.5232
1186.322 11.3032 10.5332 10.6932 11.2732 11.5832 11.2032 10.5532 10.4232 11.4032 11.8932
1205.611 11.8732 13.0232 14.1532 14.6332 14.5332 15.0632 16.0232 15.3332 14.2532 13.0132
1224.901 11.9132 11.3832 10.7132 10.3832 10.1432 9.2732 8.8532 8.9032 9.1132 10.1132
1244.191 10.2332 9.1432 8.7132 8.7432 9.0732 9.5032 8.9632 8.4032 8.6032 8.5832
1263.481 8.1432 8.1532 8.2432 8.3932 8.9732 9.4032 9.6032 9.7832 10.1532 10.1832
1282.771 10.4332 11.0132 11.2932 11.4232 11.7032 11.9332 11.9432 12.2132 12.5132 12.7432
1302.060 13.1432 13.7532 14.2532 14.8332 15.7432 16.8532 18.0832 19.2832 20.2232 21.0832
1321.350 21.7932 22.0532 21.8732 21.1332 19.9932 18.6432 17.4732 16.3432 15.1432 14.5132
1340.640 14.0632 13.6132 13.6832 14.1232 14.7632 15.5732 16.4232 17.1632 17.7432 17.9432
1359.930 17.8032 17.3932 16.7632 15.9532 15.0732 14.1832 13.4632 12.8732 12.3132 12.1132
1379.219 12.2732 12.7132 13.4332 14.3332 15.2132 15.7132 15.8332 15.7032 15.1632 14.2432
1398.509 13.1632 12.2032 11.6132 11.0232 10.6232 10.2632 9.8732 9.7932 9.7332 9.8432
1417.799 10.1432 10.2832 10.3232 10.5932 10.8132 10.8432 11.0832 11.4032 11.5332 11.7732
1437.089 12.0032 12.0732 12.0432 11.8032 11.4932 11.3232 11.2932 11.1332 10.9432 11.1232
1456.378 11.5332 11.8532 12.1132 12.5132 13.3332 14.4432 15.6832 16.7432 17.9132 19.0232
1475.668 19.7232 20.0932 20.3132 21.0432 22.5532 25.0232 28.8032 33.6432 38.1932 41.1932
1494.958 41.8732 39.9832 35.7432 29.5032 22.5232 16.4232 11.8432 8.6032 6.4632 5.1532
1514.248 4.3732 3.7932 3.3332 3.1332 2.8732 2.5832 2.3932 2.2632 2.2432 2.2232
1533.538 2.0432 1.9132 2.0132 2.1232 2.1432 1.9932 1.9232 2.0232 2.0532 2.0232
1552.827 2.0932 2.0832 2.1532 2.2432 2.2032 2.3732 2.3632 2.3132 2.4532 2.4832
1572.117 2.6532 2.8332 3.0332 3.0732 3.1032 3.5632 4.0632 4.5332 5.0832 5.9032
1591.407 6.4832 6.6232 6.7132 6.5932 6.1432 5.2732 4.4832 3.9132 3.3732 3.0732
1610.697 2.7732 2.5032 2.3332 2.2432 2.2632 2.2232 2.0932 2.0332 2.1732 2.3832
1629.986 2.4532 2.3332 2.3632 2.6232 2.7632 2.7532 2.5332 2.3732 2.3632 2.3532
1649.276 2.2732 2.3632 2.3832 1.9432 1.7732 1.7232 1.6932 1.7232 1.6732 1.4832
1668.566 1.3632 1.3432 1.2432 1.2932 1.2632 1.2032 1.0577 1.0531 1.1632 0.9631
1687.856 0.933 0.9802 0.9576 0.9172 0.9584 0.9261 0.8664 0.8651 0.7531 0.6596
1707.146 0.6521 0.804 0.8775 0.8259 0.7677 0.7774 0.7823 0.7925 1.0481 1.0733
1726.435 0.9825 1.0385 0.9863 0.9415 1.0164 1.1532 1.2032 1.1032 1.0344 1.1232
1745.725 1.1832 1.2432 1.4032 1.5232 1.5832 1.5232 1.5432 1.6532 1.6832 1.7232
1765.015 1.7332 1.8332 1.8732 1.8632 1.8732 1.8232 1.7732 1.7532 1.6732 1.5732
1784.305 1.4532 1.2932 1.2032 1.1032 1.0478 0.9425 0.8657 0.902 0.8317 0.7814
1803.594 0.8887 0.9462 0.9516 0.8656 0.7947 0.773 0.7252 0.8317 0.83 0.8338
1822.884 0.8296 0.8654 0.9731 0.9127 0.8555 0.9592 1.0552 1.0387 0.9804 0.8111
1842.174 0.822 0.8474 0.7674 0.689 0.5985 0.6463 0.7936 0.905 0.943 1.0125
1861.464 1.1132 1.1532 1.2832 1.3332 1.2732 1.3332 1.3832 1.4832 1.5732 1.6132
1880.754 1.5632 1.6832 1.8332 1.7932 1.8532 2.0232 2.1032 2.0832 2.1132 2.0932
1900.043 1.9732 1.9532 2.0232 2.0232 1.8432 1.6132 1.5532 1.4232 1.2532 1.1232
1919.333 1.0904 1.1432 1.0921 0.9853 0.8873 0.808 0.825 0.8701 0.7881 0.7139
1938.623 0.7739 0.775 0.6829 0.6496 0.6253 0.5824 0.6524 0.6329 0.488 0.4996
1957.913 0.4667 0.4856 0.5738 0.6073 0.6026 0.5697 0.6311 0.6542 0.6548 0.5581
1977.202 0.5275 0.5613 0.4778 0.441 0.4772 0.5751 0.4771 0.4342 0.6021 0.6906
1996.492 0.6767 0.6231 0.5091 0.4509 0.5658 0.583 0.5722 0.5618 0.5166 0.5027
2015.782 0.5054 0.5218 0.6173 0.5547 0.5785 0.6594 0.6139 0.5935 0.5727 0.6207
2035.072 0.6082 0.6499 0.6339 0.573 0.6275 0.6486 0.6335 0.6696 0.5243 0.4521
2054.362 0.5981 0.7069 0.6132 0.49 0.5837 0.5342 0.5199 0.4686 0.3833 0.5588
2073.651 0.5427 0.4562 0.5618 0.5185 0.4563 0.5666 0.5454 0.4708 0.4486 0.5108
2092.941 0.5601 0.5374 0.4801 0.4693 0.5926 0.5133 0.3979 0.4006 0.391 0.4447
2112.231 0.4545 0.4732 0.4854 0.4395 0.5019 0.5248 0.485 0.4918 0.4823 0.4645
2131.521 0.4763 0.5264 0.5742 0.5837 0.5257 0.481 0.4426 0.4164 0.4711 0.4935
2150.810 0.5477 0.5669 0.4482 0.4095 0.3802 0.4036 0.4478 0.4864 0.5106 0.3598
2170.100 0.2772 0.3981 0.531 0.6769 0.685 0.5838 0.4186 0.3564 0.5222 0.5206
2189.390 0.5257 0.5469 0.5183 0.5259 0.4859 0.5489 0.537 0.428 0.4416 0.4477
2208.680 0.4588 0.5261 0.5471 0.577 0.5958 0.6006 0.6089 0.5695 0.6109 0.7084
2227.970 0.7448 0.6774 0.4824 0.4078 0.5212 0.5414 0.5056 0.4817 0.5233 0.6407
2247.259 0.6691 0.5171 0.5227 0.5848 0.6542 0.6709 0.5769 0.5846 0.6318 0.6455
2266.549 0.7111 0.7227 0.6073 0.6386 0.6333 0.6719 0.7645 0.7324 0.689 0.6687
2285.839 0.7022 0.7832 0.7675 0.6768 0.6079 0.6339 0.6535 0.6649 0.7023 0.6579
2305.129 0.581 0.5585 0.6932 0.8218 0.8211 0.7353 0.663 0.7347 0.794 0.7672
2324.418 0.8268 0.7247 0.6087 0.6818 0.7581 0.7649 0.7259 0.6083 0.6412 0.8655
2343.708 0.9274 0.822 0.7667 0.7784 0.6801 0.6245 0.6687 0.6075 0.5702 0.6575
2362.998 0.747 0.8508 0.7433 0.6832 0.8708 0.9459 0.9465 0.8437 0.6616 0.7554
2382.288 0.7173 0.5192 0.5424 0.597 0.6368 0.6183 0.6922 0.6724 0.7043 0.6992
2401.578 0.593 0.6995 0.6784 0.5633 0.5386 0.6424 0.6705 0.6886 0.7505 0.5699
2420.867 0.5385 0.5888 0.6755 0.6634 0.5191 0.724 0.8895 0.7789 0.7086 0.743
2440.157 0.6703 0.6883 0.784 0.8342 0.7681 0.8013 0.8724 0.685 0.6643 0.8672
2459.447 0.9238 0.7266 0.6011 0.6656 0.6283 0.6934 0.6998 0.7552 0.8537 0.7095
2478.737 0.583 0.5643 0.5475 0.6584 0.76 0.6966 0.6537 0.642 0.7376 0.8463
2498.026 0.7963 0.774 0.8182 0.8731 0.9268 0.9221 0.8049 0.6078 0.5324 0.6001
2517.316 0.6671 0.7229 0.8168 0.7372 0.731 0.7648 0.7257 0.7356 0.6849 0.7914
2536.606 0.8596 0.8034 0.8337 0.6624 0.5999 0.6099 0.7023 0.9286 0.9036 0.7654
2555.896 0.84 0.9828 0.9929 0.8766 0.7909 0.8809 0.9213 0.881 0.8451 0.8716
2575.186 0.8517 0.8241 0.9802 1.0291 1.1632 1.2632 1.1532 1.1732 1.2232 1.0932
2594.475 0.9187 0.9655 1.0495 1.1032 1.1532 1.1232 1.2632 1.4032 1.2632 1.2332
2613.765 1.3632 1.3632 1.3732 1.4232 1.3532 1.4332 1.5732 1.5732 1.5732 1.6632
2633.055 1.7032 1.7332 1.8632 1.9932 1.9332 1.8332 1.9332 1.8132 1.7632 1.7532
2652.345 1.6332 1.6132 1.5332 1.5632 1.6632 1.7932 1.7532 1.7332 1.8132 1.7332
2671.634 1.8532 1.8732 1.8032 1.9332 2.1432 2.1132 2.1832 2.4032 2.3632 2.4132
2690.924 2.5532 2.5532 2.4732 2.5032 2.4832 2.4832 2.3432 2.4232 2.6632 2.5832
2710.214 2.5032 2.6632 2.9232 3.0432 3.0932 3.2932 3.6532 4.0132 4.1832 4.3132
2729.504 4.6432 5.1432 5.5032 5.8132 6.3332 6.6832 6.8332 6.8832 7.0032 7.2332
2748.794 7.1632 6.7732 6.4332 5.9832 5.5332 5.3432 5.0332 4.8432 4.7632 4.7532
2768.083 4.8832 4.8932 5.1432 5.3132 5.2932 5.6132 5.6932 5.6732 5.8732 6.1232
2787.373 6.4432 6.7432 7.2232 7.8232 8.2832 8.6532 9.1832 9.8432 10.4632 11.0432
2806.663 11.7332 12.5132 13.1932 13.8632 14.6432 15.4632 16.2232 17.2732 18.4432 19.6632
2825.953 20.8632 22.0032 23.5132 24.9632 25.7432 26.0432 25.9732 25.3032 24.5832 23.6632
2845.242 22.1332 20.5932 19.2632 17.7832 16.5332 15.6532 14.8532 14.2432 13.6232 13.2632
2864.532 13.3832 13.6432 13.8532 13.8232 13.7132 13.5832 13.3832 13.1932 12.8632 12.2732
2883.822 11.6932 11.2632 11.2232 11.2032 11.2732 11.5432 11.9832 12.5732 13.3032 14.4132
2903.112 15.7632 17.1532 18.8032 20.5032 22.3032 24.3532 26.4032 28.1832 29.9532 31.9832
2922.401 33.7932 35.2932 36.5832 37.8832 39.2132 40.5032 41.9332 43.5532 45.7332 48.6032
2941.691 51.8732 55.4232 59.1432 63.1432 66.7832 68.9932 69.7632 68.8832 65.9332 60.8232
2960.981 54.3332 47.3932 40.1732 33.2432 26.9932 21.6232 17.3332 13.8432 11.1032 8.9632
2980.271 7.3732 6.1932 5.1332 4.4232 4.0032 3.6832 3.4232 3.0632 2.7432 2.5632
2999.561 2.4532 2.0632 1.7532 1.9632 1.9932 1.7532 1.7032 1.8332 2.0532 2.1732
3018.850 2.0332 1.9032 2.1332 2.4632 2.7432 3.0432 3.1332 3.2232 3.5032 3.9832
3038.140 4.3832 4.2532 4.0132 3.9732 3.9332 3.7332 3.4432 3.2432 3.2432 3.2032
3057.430 3.2432 3.2932 3.1332 3.0032 2.9632 3.0032 3.0032 3.1632 3.4732 3.6232
3076.720 3.6932 4.1032 4.5132 4.6732 5.0832 5.3432 5.5332 5.8032 5.8032 5.7632
3096.009 5.6132 5.2032 4.6632 4.2232 3.8532 3.4832 2.8732 2.2332 1.9332 1.8632
3115.299 1.7832 1.3132 1.1432 1.1532 0.7564 0.7121 0.8663 0.8215 0.7781 0.7622
3134.589 0.835 0.914 0.8825 0.6117 0.3924 0.4685 0.4068 0.378 0.5793 0.5947
3153.879 0.6327 0.5549 0.2715 0.326 0.5696 0.61 0.4671 0.6081 0.83 1.0016
3173.169 0.9775 0.7937 0.8523 0.6537 0.379 0.4306 0.6642 0.6246 0.4787 0.5488
3192.458 0.5251 0.5152 0.555 0.4584 0.3268 0.14524 0.3284 0.6389 0.5125 0.531
3211.748 0.46 0.4671 0.5983 0.506 0.317 0.2521 0.3333 0.2448 0.18299 0.0594
3231.038 0.094711 0.14405 0.15102 0.4987 0.5561 0.4871 0.4092 0.16409 0.4209 0.5401
3250.328 0.3572 0.311 0.4451 0.6495 0.4537 0.3905 0.5723 0.6313 0.4278 0.3883
3269.617 0.712 0.6049 0.3676 0.19172 0.2912 0.5637 0.7682 0.7113 0.5137 0.6597
3288.907 0.6397 0.48 0.5092 0.7206 0.6732 0.3336 0.4565 0.556 0.2037 0.4681
3308.197 0.598 0.3387 0.3363 0.5341 0.5624 0.4107 0.6576 0.9693 1.0274 0.8291
3327.487 0.4615 0.4175 0.8271 0.9589 0.8179 0.6727 0.6806 0.7346 0.7974 0.9335
3346.777 0.9214 0.7694 0.7141 0.7539 0.8185 0.9277 0.8794 0.8853 1.0177 0.9466
3366.066 0.7832 0.7765 0.7761 0.6916 0.7162 0.7331 0.8392 1.0485 0.9726 0.7837
3385.356 0.6117 0.6828 0.8279 0.764 0.9192 1.0389 0.9405 1.0415 1.1032 1.0716
3404.646 1.0748 0.8829 0.5795 0.6341 0.8578 0.6428 0.5567 0.8505 0.9698 1.0688
3423.936 1.0192 0.9563 0.9618 0.8505 0.8008 0.8361 1.1032 1.0102 0.7122 0.9725
3443.225 1.1532 1.1932 1.5432 1.6332 1.4932 1.5532 1.4732 1.4032 1.4132 1.5032
3462.515 1.4032 1.2932 1.0823 0.9749 1.041 0.8527 0.9659 0.9214 0.8698 1.1132
3481.805 1.063 0.8858 0.9989 1.1732 1.2332 0.9538 0.6757 0.6663 0.5421 0.6452
3501.095 0.881 0.915 0.8289 0.7662 0.6734 0.5828 0.8399 1.0378 0.9853 0.8142
3520.385 0.6578 0.4481 0.6271 1.051 0.9889 0.8568 0.729 0.5879 0.6624 0.7559
3539.674 0.6269 0.5317 0.5809 0.9016 0.9297 0.888 0.8896 0.7958 0.9384 0.8665
3558.964 0.4544 0.2488 0.4505 0.7126 0.7953 0.7944 0.8316 0.7542 0.5763 0.4721
3578.254 0.7146 0.8364 0.9316 0.896 0.668 0.7987 0.9246 0.9913 0.992 0.9461
3597.544 1.0796 1.1332 1.3132 1.5132 1.4032 1.4632 1.8332 2.2132 2.4632 2.8332
3616.833 3.3832 4.0932 4.6932 4.9932 5.4232 6.1032 6.9432 7.1032 6.9432 7.3132
3636.123 7.3832 6.9032 6.2232 5.2932 4.7032 4.4632 4.0432 3.3332 2.8832 2.7032
3655.413 2.1532 1.9632 2.0432 1.6832 1.3632 1.5332 1.3632 0.977 1.0294 1.0043
3674.703 0.9782 1.0346 0.8001 0.5915 0.8343 0.7973 0.6598 0.9158 0.9634 0.7579
3693.993 0.6039 0.4613 0.5317 0.696 0.7626 0.532 0.4365 0.539 0.4878 0.5519
3713.282 0.4687 0.6067 0.6723 0.7451 0.8068 0.6324 0.6083 0.7117 0.792 0.6031
3732.572 0.2286 0.3651 0.6193 0.4561 0.6572 0.7654 0.5567 0.498 0.3944 0.5158
3751.862 0.7336 0.612 0.6564 0.6447 0.411 0.4884 0.4352 0.0118 0 0.3398
3771.152 0.5834 0.4988 0.4873 0.6631 0.5913 0.5711 0.4889 0.6926 0.6792 0.5654
3790.441 0.5959 0.4318 0.6766 0.8338 0.7807 0.9454 0.7557 0.574 0.7035 0.5644
3809.731 0.5482 0.6995 0.5754 0.5186 0.4841 0.4586 0.7571 0.9585 0.9367 1.0932
3829.021 1.1432 1.0101 1.012 0.8793 0.8902 0.8639 0.5637 0.4543 0.692 0.6667
3848.311 0.526 0.5379 0.577 0.5433 0.5607 0.5693 0.499 0.8172 0.9168 0.8453
3867.601 0.5548 0.2541 0.4751 0.6663 0.6284 0.5363 0.4936 0.7952 0.9418 0.8172
3886.890 0.7394 0.6532 0.7527 0.7852 0.7934 0.7401 0.6081 0.4259 0.3324 0.3736
3906.180 0.7126 0.7938 0.565 0.6448 0.7656 0.6407 0.5121 0.4412 0.2985 0.4023
3925.470 0.16411 0.3119 0.8157 0.5792 0.4435 0.5512 0.6301 0.5211 0.4806 0.4859
3944.760 0.4742 0.5015 0.5302 0.4508 0.2254 0.4366 0.5621 0.6843 0.7265 0.3088
3964.049 0.14631 0.4399 0.8041 0.7744 0.6172 0.5314 0.5681 0.6768 0.6719 0.5473
3983.339 0.7214 0.658 0.3294 0.4598 0.5776 0.5981 0.6922 0.6811 0.4331 0.4175
##END=
