##TITLE=Danitol
##JCAMP-DX=4.24
##DATA TYPE=INFRARED SPECTRUM
##ORIGIN=NIST Mass Spectrometry Data Center
##OWNER=NIST Standard Reference Data Program
Collection (C) 2018 copyright by the U.S. Secretary of Commerce
on behalf of the United States of America. All rights reserved.
##CAS REGISTRY NO=39515-41-8
##MOLFORM=C 22 H 23 N O 3
##$NIST SOURCE=MSDC-IR
##SPECTROMETER/DATA SYSTEM=HP-GC/MS/IRD
##STATE=gas
##XUNITS=1/CM
##YUNITS=ABSORBANCE
##XFACTOR=1.0
##YFACTOR=0.000002700
##DELTAX=4.0
##FIRSTX=550.0
##LASTX=3846.0
##FIRSTY=0.000473
##MAXX=3846
##MINX=550
##MAXY=0.027
##MINY=0
##NPOINTS=825
##XYDATA=(X++(Y..Y))
550.0 175 57 0 28 8 27 24 17 19 2
590.0 15 23 19 29 47 64 93 90 97 127
630.0 128 143 171 180 254 350 411 488 505 408
670.0 347 429 620 957 1556 2209 2281 1705 1073 680
710.0 503 418 379 374 399 475 553 671 818 970
750.0 1143 1257 1272 1221 1165 1180 1261 1342 1420 1448
790.0 1393 1282 1149 1015 904 851 853 880 935 1060
830.0 1232 1423 1613 1859 2131 2217 1983 1569 1224 1048
870.0 1025 1081 1141 1130 1028 931 879 838 796 797
910.0 849 926 1023 1083 1090 1090 1095 1133 1202 1281
950.0 1335 1297 1230 1174 1140 1134 1168 1226 1306 1460
990.0 1641 1866 2137 2318 2376 2410 2481 2648 2901 3218
1030.0 3712 4493 5478 6415 6958 6800 5945 4835 3879 3155
1070.0 2634 2255 2067 2022 2035 2166 2428 2842 3502 4424
1110.0 5554 6816 8085 9267 10000 9540 7845 5919 4542 3759
1150.0 3355 3244 3449 3818 4168 4488 4690 4462 3788 3107
1190.0 2713 2636 2874 3366 3901 4151 4054 3980 4298 5129
1230.0 6303 7495 8306 8561 8340 7706 6824 6053 5602 5364
1270.0 5054 4529 3861 3222 2726 2368 2161 2067 2042 2073
1310.0 2124 2150 2134 2107 2102 2117 2080 1888 1552 1212
1350.0 972 829 759 752 800 909 1101 1426 1887 2392
1390.0 2830 3076 2875 2292 1968 2138 2386 2404 2259 2102
1430.0 2034 2145 2520 3102 3574 3571 3151 2688 2411 2379
1470.0 2641 3334 4642 6471 7892 7625 5702 3513 2103 1399
1510.0 1020 810 680 591 533 497 486 492 517 576
1550.0 662 802 1000 1307 1714 2192 2805 3676 4704 5373
1590.0 5225 4412 3436 2649 2108 1694 1291 929 670 507
1630.0 402 336 291 260 237 218 208 204 195 189
1670.0 192 199 211 221 237 270 309 356 416 491
1710.0 575 667 807 1017 1315 1702 2178 2713 3340 4153
1750.0 5040 5513 5107 3988 2775 1898 1382 1073 851 682
1790.0 559 453 370 309 255 215 188 169 154 141
1830.0 131 127 126 135 143 144 145 150 146 133
1870.0 122 110 100 91 77 74 78 81 84 93
1910.0 99 116 138 166 189 205 205 186 163 142
1950.0 134 123 108 99 98 103 106 112 117 119
1990.0 124 127 119 111 119 116 108 109 112 119
2030.0 121 123 130 134 133 134 131 126 121 116
2070.0 112 103 92 84 73 65 62 57 57 51
2110.0 38 38 49 46 37 28 29 29 23 27
2150.0 30 31 26 22 20 24 27 19 10 6
2190.0 6 2 8 11 3 14 27 27 25 28
2230.0 26 31 44 45 50 56 47 33 26 23
2270.0 16 16 19 17 18 31 30 21 28 38
2310.0 43 46 55 55 43 40 43 38 33 26
2350.0 21 30 41 39 45 54 58 63 69 73
2390.0 73 78 81 75 73 68 68 84 89 85
2430.0 79 79 76 63 62 70 66 61 50 46
2470.0 49 33 35 40 32 32 35 42 42 38
2510.0 33 33 40 41 40 39 36 41 50 41
2550.0 39 50 53 52 56 58 56 61 58 61
2590.0 59 48 43 32 37 47 48 41 36 31
2630.0 32 35 27 25 24 21 8 2 13 20
2670.0 15 24 32 13 12 27 27 26 28 32
2710.0 27 18 25 32 32 56 86 104 133 148
2750.0 149 142 124 116 98 86 97 101 91 85
2790.0 90 90 90 100 114 130 126 129 148 155
2830.0 175 195 206 235 270 291 340 424 516 643
2870.0 824 1077 1323 1488 1546 1535 1506 1494 1501 1536
2910.0 1621 1756 1946 2204 2528 2851 3063 3109 3037 2984
2950.0 3039 3129 3075 2719 2173 1674 1338 1199 1187 1263
2990.0 1343 1364 1297 1145 945 797 751 754 774 814
3030.0 859 913 969 996 992 936 855 825 856 891
3070.0 968 1090 1191 1188 1038 855 737 641 547 460
3110.0 375 296 231 190 183 185 171 155 141 130
3150.0 117 105 97 79 81 87 81 74 58 64
3190.0 75 68 67 58 49 25 17 32 37 36
3230.0 28 27 19 25 26 19 16 3 9 26
3270.0 31 45 45 24 20 18 23 28 28 29
3310.0 20 14 18 32 33 24 27 28 23 18
3350.0 28 28 27 45 34 18 30 42 35 27
3390.0 27 31 43 40 33 40 48 48 48 33
3430.0 24 48 58 57 54 48 33 38 53 49
3470.0 75 93 89 82 76 68 59 57 69 75
3510.0 52 42 56 49 37 29 51 48 34 33
3550.0 25 40 44 37 32 42 45 38 43 43
3590.0 20 31 43 39 47 61 57 42 32 4
3630.0 12 52 58 36 25 39 45 39 33 35
3670.0 37 51 71 63 51 43 45 49 40 45
3710.0 48 48 41 43 55 53 63 61 52 58
3750.0 47 48 60 51 48 54 67 58 46 48
3790.0 50 39 32 50 56 53 58 51 38 52
3830.0 60 58 59 58 63
##END=
