##TITLE=2-Ethylbutyl acrylate
##JCAMP-DX=4.24
##DATA TYPE=INFRARED SPECTRUM
##ORIGIN=EPA-IR VAPOR PHASE LIBRARY
##OWNER=SRD/NIST
Collection (C) 2018 copyright by the U.S. Secretary of Commerce
on behalf of the United States of America. All rights reserved.
##CAS REGISTRY NO=3953-10-4
##MOLFORM=C 9 H 16 O 2
##$NIST SOURCE=MSDC-IR
##STATE=gas
##XUNITS=1/CM
##YUNITS=ABSORBANCE
##XFACTOR=1.
##YFACTOR=0.001
##DELTAX=3.85796
##FIRSTX=501.5
##LASTX=4000.7
##FIRSTY=1.3292
##MAXX=4000.7
##MINX=501.534
##MAXY=0.265359
##MINY=0
##NPOINTS=908
##XYDATA=(X++(Y..Y))
501.534 1.3292 1.1392 1.1192 1.1092 1.0792 1.0892 1.1492 1.2092 1.1092 1.0792
540.114 1.0492 0.9293 0.8809 0.8881 0.9092 0.8909 0.913 0.9412 0.8662 0.7905
578.693 0.7363 0.6637 0.7096 0.8645 0.9867 1.0592 1.0992 1.1492 1.1792 1.1192
617.273 1.1692 1.2892 1.2892 1.3192 1.3392 1.2592 1.2192 1.2592 1.3792 1.6392
655.852 2.0892 2.5492 2.9292 3.0692 2.8492 2.3592 1.7592 1.3392 1.0792 0.9064
694.432 0.7784 0.7388 0.7487 0.7432 0.7233 0.7262 0.7731 0.7989 0.8813 1.0292
733.011 1.1592 1.3692 1.6692 2.0492 2.4492 2.8292 3.2692 3.7292 4.3992 5.2592
771.591 6.1492 6.9992 7.6792 8.1392 8.7992 9.9992 11.8692 14.4092 16.9692 18.8292
810.170 19.2792 18.0892 15.8892 13.5192 11.4092 9.6992 8.4292 7.5192 6.9492 6.6392
848.750 6.4892 6.4692 6.4792 6.5292 6.6592 6.8092 7.0192 7.2192 7.3692 7.5092
887.330 7.6092 7.6892 7.7692 7.8592 7.9392 7.9592 7.8892 7.6992 7.5892 7.7392
925.909 8.2392 9.1292 10.3592 11.8992 13.8692 16.5092 20.0792 24.5292 28.9792 32.2092
964.489 33.3792 33.0992 32.5092 32.5892 33.5492 34.7192 35.1992 34.4792 33.0592 31.4892
1003.068 29.5992 27.2192 24.5092 21.7492 19.6292 18.7192 19.1292 20.9292 24.2792 29.6792
1041.648 37.6092 48.2092 60.4092 71.0092 76.0792 73.2592 62.9292 48.3292 34.9292 25.7192
1080.227 20.0392 16.4992 14.4092 13.3392 12.8592 12.6992 12.6392 12.6592 12.6892 12.6092
1118.807 12.6492 13.0592 13.7192 14.7792 16.4292 18.8992 22.3092 26.6392 32.0492 39.0592
1157.387 48.4092 61.6992 81.2192 109.889 149.409 196.159 239.599 265.359 262.819 230.909
1195.966 181.099 130.789 91.4192 65.4792 49.9692 40.9892 35.9192 33.6292 33.4092 35.2592
1234.546 39.7492 47.3692 58.7492 73.9092 91.2692 107.829 119.729 123.699 118.239 105.129
1273.125 88.2592 71.8992 60.1492 55.2992 56.2692 58.4492 57.5692 52.3692 42.8992 32.0592
1311.705 23.8692 18.7692 15.5192 13.3392 11.8292 10.8392 10.1292 9.5492 9.0492 8.6592
1350.284 8.4592 8.4692 8.7192 9.1292 9.7992 10.8992 12.6192 15.0092 17.6792 20.3092
1388.864 23.1092 27.1792 35.6392 50.7892 66.9092 75.0892 73.0992 60.6392 41.7992 27.2292
1427.443 19.7392 16.1792 14.6792 14.3992 15.1692 16.9292 19.5892 22.7492 25.8992 28.1092
1466.023 28.6992 27.3592 24.3592 20.5392 16.6192 13.2092 10.5892 8.6992 7.3992 6.4792
1504.603 5.8192 5.2892 4.8592 4.4892 4.1892 3.9492 3.7292 3.5492 3.4092 3.2592
1543.182 3.1192 2.9992 2.9292 2.8692 2.7992 2.7692 2.7892 2.8192 2.9092 3.0792
1581.762 3.2592 3.5292 3.9092 4.3492 4.9192 5.6592 6.5192 7.5592 8.7492 10.0692
1620.341 11.4792 12.8492 14.2092 15.3292 15.5492 14.5292 12.5092 9.7492 7.3092 5.8692
1658.921 5.2092 4.9792 4.9692 5.1192 5.4292 5.8892 6.5392 7.4392 8.5792 10.0792
1697.500 11.9892 14.3092 17.0892 20.7392 25.6692 32.6092 42.2892 55.8492 75.1692 100.969
1736.080 131.319 157.829 171.819 167.149 144.879 112.439 80.8092 56.7092 40.5492 29.7392
1774.659 22.2892 17.1892 13.6492 11.1792 9.4492 8.1292 7.0692 6.1892 5.4292 4.7892
1813.239 4.2292 3.7692 3.4092 3.0992 2.8292 2.6292 2.4792 2.3492 2.2492 2.1792
1851.819 2.1092 2.0492 2.0092 1.9692 1.9292 1.8692 1.8192 1.7592 1.7192 1.7292
1890.398 1.7492 1.8092 1.9292 2.1092 2.3592 2.6992 3.0992 3.5492 3.9092 4.1092
1928.978 4.0492 3.7392 3.3092 2.8592 2.4792 2.1892 1.9792 1.7892 1.6192 1.5092
1967.557 1.4192 1.3192 1.2592 1.2192 1.1792 1.2092 1.2592 1.2692 1.2892 1.3292
2006.137 1.3692 1.4092 1.4292 1.4392 1.4692 1.4892 1.5092 1.5492 1.6092 1.6292
2044.716 1.6092 1.5592 1.5292 1.5092 1.4892 1.4992 1.4992 1.4892 1.4892 1.4692
2083.296 1.4592 1.4292 1.3692 1.3292 1.2892 1.2392 1.1992 1.1592 1.1192 1.0492
2121.875 0.987 0.9568 0.9462 0.9554 0.9261 0.8865 0.8816 0.8863 0.8728 0.8628
2160.455 0.8308 0.7797 0.7386 0.6757 0.6308 0.6125 0.5763 0.5307 0.5197 0.4992
2199.035 0.483 0.4862 0.4611 0.4307 0.4172 0.435 0.447 0.4373 0.4278 0.4264
2237.614 0.4321 0.4396 0.4475 0.4429 0.4391 0.4441 0.4688 0.4713 0.4759 0.5042
2276.194 0.4992 0.5067 0.5314 0.5526 0.569 0.5935 0.6347 0.6588 0.6557 0.6594
2314.773 0.6919 0.7137 0.7257 0.7508 0.7892 0.8368 0.9028 0.9673 1.0392 1.1292
2353.353 1.1892 1.1892 1.2392 1.2392 1.1892 1.1392 1.0992 1.0292 0.907 0.8169
2391.932 0.76 0.7007 0.6424 0.5862 0.5518 0.5586 0.5586 0.5285 0.5078 0.4831
2430.512 0.476 0.4359 0.392 0.4211 0.4194 0.4067 0.4217 0.4388 0.4653 0.4918
2469.092 0.5154 0.5445 0.5758 0.5817 0.5513 0.5174 0.5163 0.5249 0.4784 0.4489
2507.671 0.4626 0.4495 0.4445 0.4315 0.394 0.3905 0.4118 0.4318 0.4255 0.4417
2546.251 0.4974 0.5128 0.5014 0.5101 0.514 0.5317 0.5842 0.6416 0.6739 0.7257
2584.830 0.7993 0.8217 0.8779 0.9344 0.9319 0.92 0.9205 0.9345 0.9233 0.9085
2623.410 0.9083 0.9225 0.9377 0.931 0.9164 0.9416 0.9822 1.024 1.0592 1.0592
2661.989 1.0992 1.1392 1.1492 1.1892 1.2192 1.2292 1.2492 1.2892 1.3692 1.4792
2700.569 1.5392 1.5692 1.6292 1.6392 1.6392 1.6992 1.7492 1.8092 1.9392 2.0792
2739.148 2.2592 2.4892 2.6492 2.7192 2.7292 2.6692 2.6092 2.5292 2.4992 2.5092
2777.728 2.5792 2.6992 2.8092 2.9792 3.1392 3.2892 3.4692 3.6792 3.9092 4.0892
2816.308 4.3392 4.6492 5.0492 5.5992 6.1892 6.8592 7.6792 8.6992 10.0192 11.8992
2854.887 14.6792 18.6892 24.0092 30.1892 36.4492 42.0992 46.9592 50.6892 52.8392 53.3092
2893.467 52.0492 49.5292 47.2592 46.2492 46.7492 48.8892 52.5792 57.6292 63.8692 70.9792
2932.046 78.1192 84.3092 88.4692 89.5892 88.2292 86.5092 87.1292 92.7092 103.719 116.439
2970.626 123.249 119.169 104.719 83.7692 63.0792 47.1492 35.9592 27.9792 22.1792 17.9492
3009.205 14.8692 12.7692 11.3892 10.5092 9.9792 9.7292 9.7492 9.9992 10.1692 9.9192
3047.785 9.2192 8.1592 7.0092 6.1892 5.7692 5.5692 5.4792 5.4292 5.2792 5.0692
3086.364 4.9092 4.8292 4.9192 5.3392 6.2792 7.2492 7.4592 6.9892 5.8292 4.2092
3124.944 3.0392 2.5492 2.2992 2.0992 2.0192 1.9692 1.9092 1.8792 1.8092 1.6992
3163.524 1.6092 1.5292 1.4292 1.4092 1.3092 1.2492 1.2092 1.0123 0.8996 0.8471
3202.103 0.7962 0.727 0.6624 0.6238 0.6152 0.5929 0.524 0.4784 0.5036 0.4797
3240.683 0.4142 0.3892 0.3482 0.361 0.3589 0.2904 0.2626 0.2678 0.2416 0.2293
3279.262 0.2139 0.2032 0.1776 0.1413 0.1591 0.12895 0.08811 0.12682 0.1633 0.1454
3317.842 0.11204 0.1601 0.2302 0.1954 0.1497 0.2146 0.2521 0.2072 0.2044 0.1859
3356.421 0.1984 0.2423 0.2532 0.2864 0.2958 0.2436 0.2119 0.2562 0.2798 0.232
3395.001 0.2022 0.2114 0.1853 0.1988 0.2472 0.2208 0.2578 0.3129 0.3234 0.3715
3433.580 0.4154 0.5284 0.6647 0.7739 0.9037 1.0492 1.2692 1.5292 1.7092 1.8792
3472.160 1.9992 1.9092 1.6992 1.4592 1.1592 0.8597 0.7689 0.6662 0.5012 0.4352
3510.740 0.3647 0.3039 0.2475 0.1833 0.1487 0.1391 0.12135 0.07432 0.11649 0.1514
3549.319 0.08278 0.03924 0.09633 0.1327 0.12367 0.07907 0.04429 0.05564 0.032423 0.0178
3587.899 0.02105 0 0.0091 0.034682 0.0300606 0.04132 0.034896 0.034299 0.02242 0.04762
3626.478 0.08222 0.07447 0.07882 0.1003 0.0822 0.034623 0.0847 0.0778 0.0182 0.0745
3665.058 0.10578 0.08341 0.06029 0.07502 0.11383 0.10447 0.07152 0.07584 0.1397 0.1549
3703.637 0.1479 0.1648 0.1417 0.08953 0.07932 0.12541 0.10741 0.08683 0.1209 0.09567
3742.217 0.11135 0.1613 0.08225 0.04273 0.11177 0.11989 0.07701 0.09359 0.1295 0.1198
3780.797 0.123 0.11261 0.1244 0.1413 0.09145 0.08246 0.07305 0.06488 0.037434 0.04156
3819.376 0.09907 0.10427 0.12791 0.1415 0.1433 0.11759 0.06937 0.07931 0.10398 0.1401
3857.956 0.1768 0.2115 0.2591 0.2578 0.2737 0.3233 0.3066 0.2655 0.271 0.2838
3896.535 0.2603 0.263 0.2868 0.2966 0.3169 0.3635 0.3787 0.3019 0.3438 0.4023
3935.115 0.3166 0.2319 0.2158 0.3087 0.3543 0.3301 0.3065 0.293 0.2771 0.2756
3973.694 0.2896 0.293 0.3321 0.3458 0.3269 0.3859 0.4322 0.4126
##END=
