##TITLE=Neopentylidenecyclohexane
##JCAMP-DX=4.24
##DATA TYPE=INFRARED SPECTRUM
##ORIGIN=NIST Mass Spectrometry Data Center
##OWNER=NIST Standard Reference Data Program
Collection (C) 2018 copyright by the U.S. Secretary of Commerce
on behalf of the United States of America. All rights reserved.
##CAS REGISTRY NO=39546-80-0
##MOLFORM=C 11 H 20
##$NIST SOURCE=MSDC-IR
##SPECTROMETER/DATA SYSTEM=HP-GC/MS/IRD
##STATE=gas
##XUNITS=1/CM
##YUNITS=ABSORBANCE
##XFACTOR=1.0
##YFACTOR=0.000004600
##DELTAX=4.0
##FIRSTX=550.0
##LASTX=3846.0
##FIRSTY=0.000124
##MAXX=3846
##MINX=550
##MAXY=0.046
##MINY=0
##NPOINTS=825
##XYDATA=(X++(Y..Y))
550.0 27 13 26 36 23 18 26 27 28 23
590.0 11 13 16 10 17 35 42 48 55 66
630.0 87 118 138 143 126 98 78 54 45 41
670.0 32 25 10 2 8 10 11 21 19 15
710.0 19 14 6 11 12 22 31 23 34 41
750.0 29 24 24 25 24 29 33 30 32 39
790.0 45 42 45 52 57 73 104 151 219 300
830.0 385 441 435 394 347 299 257 224 187 147
870.0 117 98 92 100 112 126 137 139 147 146
910.0 148 163 182 194 201 205 194 170 146 119
950.0 95 81 70 64 72 86 103 126 170 240
990.0 317 377 401 370 307 242 190 161 146 138
1030.0 132 120 100 76 57 52 46 42 41 45
1070.0 49 57 67 72 76 83 88 96 101 97
1110.0 89 75 60 61 63 57 53 54 55 62
1150.0 78 101 141 183 212 227 235 227 225 252
1190.0 297 373 491 626 720 712 610 458 321 252
1230.0 230 223 225 236 233 226 218 196 174 150
1270.0 125 107 91 72 61 57 56 60 64 67
1310.0 76 91 102 115 124 140 173 227 279 330
1350.0 394 477 587 699 763 740 637 501 375 295
1390.0 270 277 288 283 257 216 182 174 194 240
1430.0 314 433 581 736 867 946 953 901 853 812
1470.0 780 736 670 578 469 349 253 185 142 117
1510.0 96 81 71 63 55 48 42 37 32 27
1550.0 25 28 27 25 26 22 24 26 24 23
1590.0 20 22 22 22 23 25 28 33 37 44
1630.0 52 69 96 122 139 149 148 130 101 77
1670.0 62 51 41 38 32 30 28 26 25 23
1710.0 23 19 19 21 18 16 16 17 17 19
1750.0 17 15 16 16 15 14 12 12 15 14
1790.0 11 12 11 12 12 10 7 5 1 4
1830.0 8 7 4 4 6 9 11 11 10 9
1870.0 9 7 6 7 5 6 6 3 2 5
1910.0 7 5 5 5 7 7 7 10 12 12
1950.0 10 8 9 10 9 7 6 7 6 4
1990.0 3 3 5 7 6 5 2 2 3 2
2030.0 2 4 4 3 1 3 4 1 0 0
2070.0 1 3 4 3 4 4 6 7 8 7
2110.0 7 9 6 3 4 6 4 6 5 6
2150.0 8 11 10 9 10 10 8 8 9 7
2190.0 8 9 11 9 5 7 10 10 6 3
2230.0 6 8 6 3 5 5 3 5 7 9
2270.0 9 9 11 11 12 12 9 9 11 11
2310.0 10 11 11 8 8 10 12 10 11 11
2350.0 10 10 12 12 11 11 15 16 15 12
2390.0 13 15 12 16 17 15 13 14 15 15
2430.0 12 10 11 12 7 10 12 12 13 15
2470.0 17 16 15 13 12 15 18 15 14 16
2510.0 18 18 19 19 21 23 23 23 25 27
2550.0 26 29 32 32 33 32 33 41 42 41
2590.0 45 47 49 51 53 56 59 60 60 61
2630.0 60 60 67 72 82 92 103 112 117 119
2670.0 117 112 103 92 86 86 80 77 84 93
2710.0 99 105 106 105 102 99 95 94 94 97
2750.0 103 111 119 127 134 143 155 170 188 209
2790.0 227 240 253 266 280 301 334 381 454 568
2830.0 742 977 1258 1565 1890 2266 2729 3153 3414 3499
2870.0 3364 3093 2847 2657 2518 2458 2465 2541 2703 2968
2910.0 3370 3994 4909 6136 7601 9030 9940 10000 9389 8450
2950.0 7479 6816 6566 6400 6006 5348 4477 3578 2830 2233
2990.0 1777 1458 1235 1064 921 785 669 579 507 454
3030.0 408 367 339 311 281 256 232 209 193 176
3070.0 160 149 138 126 121 119 113 111 110 104
3110.0 100 99 96 92 90 88 91 88 82 80
3150.0 77 81 80 77 81 89 90 84 80 80
3190.0 81 83 81 78 74 73 72 68 67 75
3230.0 78 73 64 60 57 55 53 51 44 36
3270.0 36 36 31 26 24 25 26 24 26 28
3310.0 33 32 26 26 31 36 30 31 36 34
3350.0 32 28 24 22 26 31 34 29 28 36
3390.0 35 25 19 24 26 25 26 23 23 30
3430.0 29 28 28 26 23 23 22 14 15 17
3470.0 19 22 19 16 16 19 21 20 21 24
3510.0 28 19 14 11 6 14 23 19 13 9
3550.0 6 2 7 11 8 11 15 16 15 13
3590.0 15 12 8 9 14 17 12 16 22 24
3630.0 19 15 17 15 15 14 16 19 16 17
3670.0 21 23 22 20 21 27 33 26 22 23
3710.0 19 26 30 25 32 31 21 24 28 26
3750.0 20 21 25 28 31 33 26 23 31 34
3790.0 28 21 26 32 28 27 28 22 22 28
3830.0 34 35 33 34 35
##END=
