##TITLE=2,4-Dichlorophenoxyacetonitrile
##JCAMP-DX=4.24
##DATA TYPE=INFRARED SPECTRUM
##ORIGIN=EPA-IR VAPOR PHASE LIBRARY
##OWNER=SRD/NIST
Collection (C) 2018 copyright by the U.S. Secretary of Commerce
on behalf of the United States of America. All rights reserved.
##CAS REGISTRY NO=3956-63-6
##MOLFORM=C 8 H 5 Cl 2 N O
##$NIST SOURCE=MSDC-IR
##STATE=gas
##XUNITS=1/CM
##YUNITS=ABSORBANCE
##XFACTOR=1.
##YFACTOR=0.001
##DELTAX=1.929
##FIRSTX=549.8
##LASTX=4000.8
##FIRSTY=4.077
##MAXX=4000.75
##MINX=549.766
##MAXY=0.155957
##MINY=0
##NPOINTS=1790
##XYDATA=(X++(Y..Y))
549.766 4.077 4.427 5.067 5.717 5.577 5.467 5.557 5.387 5.217 4.857
569.056 4.527 4.317 4.177 3.977 3.607 3.287 3.247 3.337 3.207 3.147
588.346 3.207 3.087 3.107 3.297 3.307 3.157 3.087 3.117 3.027 2.727
607.636 2.567 2.427 2.407 2.397 2.347 2.357 2.327 2.457 2.717 2.997
626.926 3.237 3.777 4.547 5.497 6.897 8.687 10.707 12.447 13.577 14.197
646.216 14.157 13.267 11.897 10.227 8.307 6.777 5.597 4.717 4.057 3.507
665.506 3.307 2.937 2.697 2.677 2.547 2.477 2.557 2.727 2.937 3.087
684.796 3.337 3.897 4.637 5.567 6.857 8.437 10.167 12.197 14.087 15.497
704.086 16.607 17.137 16.987 16.337 15.267 14.057 13.107 12.547 12.477 12.747
723.376 13.247 13.787 14.197 14.587 14.587 14.107 13.387 12.367 11.457 10.857
742.666 10.397 9.947 9.527 9.077 8.677 8.127 7.277 6.657 5.957 5.237
761.956 4.657 4.177 3.937 3.747 3.627 3.537 3.507 3.627 3.907 4.157
781.246 4.407 4.947 5.557 6.287 7.247 8.247 9.227 10.477 11.767 12.777
800.536 13.537 13.897 14.177 14.637 15.227 15.867 16.947 18.207 19.027 19.797
819.826 20.607 21.357 22.127 22.917 23.777 25.037 26.667 28.207 29.377 29.787
839.116 29.237 27.907 25.527 22.387 18.917 15.637 13.097 11.437 10.617 10.497
858.406 11.037 12.127 13.487 14.937 16.657 18.477 19.807 19.387 17.347 15.137
877.696 13.337 11.587 9.837 8.427 7.367 6.527 6.137 6.117 6.257 6.527
896.986 6.857 7.337 7.757 8.097 8.367 8.557 8.557 8.277 7.907 7.507
916.276 6.947 6.437 5.937 5.427 4.987 4.657 4.477 4.317 4.057 3.837
935.566 3.717 3.727 3.787 3.737 3.657 3.587 3.587 3.597 3.537 3.467
954.856 3.327 3.267 3.307 3.227 3.157 3.057 3.027 3.027 2.977 3.057
974.146 3.117 3.157 3.307 3.487 3.737 3.987 4.287 4.757 5.307 5.847
993.436 6.587 7.547 8.697 10.117 11.847 13.867 16.397 19.467 23.037 27.167
1012.726 31.637 36.187 40.777 44.867 47.937 49.727 50.077 48.957 46.717 43.497
1032.016 39.687 35.717 31.697 27.927 24.647 21.907 19.827 18.567 18.237 19.237
1051.306 21.587 25.327 30.177 35.377 40.077 43.767 46.347 47.837 47.967 46.607
1070.596 44.057 40.607 36.687 32.817 29.237 25.947 23.037 20.817 19.657 19.797
1089.886 21.507 24.917 29.917 35.967 42.157 47.477 51.137 52.707 51.927 48.667
1109.176 43.427 37.267 31.247 26.007 21.857 18.737 16.297 14.437 12.997 11.797
1128.467 10.857 10.117 9.547 9.287 9.097 8.797 8.517 8.107 7.577 6.937
1147.757 6.227 5.717 5.227 4.757 4.407 4.167 4.017 3.947 3.917 3.947
1167.047 4.057 4.187 4.337 4.547 4.737 5.017 5.377 5.747 6.127 6.487
1186.337 6.907 7.327 7.717 8.047 8.427 8.957 9.647 10.597 11.897 13.717
1205.627 16.297 19.707 24.177 29.927 36.827 44.677 52.867 60.317 66.157 69.867
1224.917 71.387 70.657 67.797 63.557 58.857 54.557 51.237 49.197 48.487 48.857
1244.207 49.887 50.957 51.417 51.027 49.727 47.587 44.997 42.527 40.447 38.987
1263.497 38.157 37.887 38.247 38.907 39.377 39.367 38.927 38.257 37.517 36.697
1282.787 35.787 34.947 34.227 33.397 32.137 30.177 27.497 24.437 21.267 18.137
1302.077 15.117 12.347 10.057 8.307 7.117 6.367 5.857 5.487 5.197 4.987
1321.367 4.887 4.837 4.757 4.707 4.767 4.837 4.947 5.097 5.247 5.507
1340.657 5.757 6.027 6.417 6.817 7.197 7.597 8.057 8.587 9.187 9.927
1359.947 10.857 11.897 12.917 13.837 14.647 15.307 15.807 16.147 16.287 16.257
1379.237 16.157 15.927 15.507 14.987 14.297 13.377 12.347 11.217 9.947 8.727
1398.527 7.737 6.887 6.307 5.947 5.777 5.787 5.937 6.267 6.787 7.417
1417.817 8.147 9.147 10.207 11.227 12.257 13.117 13.817 14.397 14.917 15.387
1437.107 15.887 16.487 17.277 18.257 19.497 21.007 22.707 24.617 26.897 29.447
1456.397 32.797 37.107 42.467 49.747 59.387 72.117 87.657 105.417 123.757 140.437
1475.687 151.347 155.957 153.967 145.747 131.877 114.097 94.997 77.837 63.617 52.577
1494.977 43.747 36.177 30.197 25.487 21.707 18.627 15.837 13.527 11.677 10.147
1514.267 8.907 7.777 6.847 6.137 5.517 5.057 4.707 4.387 4.107 3.887
1533.557 3.697 3.577 3.447 3.317 3.367 3.467 3.527 3.647 3.867 4.107
1552.847 4.367 4.707 5.137 5.667 6.377 7.117 7.817 8.447 9.067 9.727
1572.137 10.287 10.677 10.967 11.137 11.057 10.847 10.497 9.957 9.267 8.397
1591.427 7.537 6.697 5.827 5.007 4.257 3.637 3.137 2.767 2.477 2.247
1610.717 2.117 2.037 1.937 1.847 1.847 1.837 1.767 1.767 1.777 1.787
1630.007 1.737 1.707 1.697 1.687 1.747 1.777 1.747 1.697 1.697 1.697
1649.297 1.647 1.517 1.397 1.447 1.457 1.427 1.3869 1.3812 1.397 1.374
1668.587 1.3607 1.3305 1.2932 1.2536 1.2312 1.2488 1.2445 1.2297 1.2117 1.1905
1687.877 1.2016 1.2091 1.2031 1.1833 1.1357 1.1568 1.1887 1.2859 1.3944 1.467
1707.167 1.587 1.637 1.657 1.687 1.687 1.727 1.827 1.977 2.167 2.287
1726.457 2.477 2.627 2.767 2.867 2.887 3.037 3.047 2.917 2.827 2.657
1745.747 2.497 2.357 2.157 1.977 1.897 1.817 1.777 1.757 1.717 1.627
1765.037 1.547 1.487 1.389 1.2914 1.2565 1.214 1.1948 1.2021 1.1858 1.1646
1784.327 1.1493 1.1337 1.1107 1.1308 1.1065 1.0791 1.1157 1.1159 1.1488 1.1534
1803.617 1.1187 1.0791 1.064 1.0645 1.0581 1.0635 1.0423 1.0089 0.9696 0.9676
1822.907 1.0059 0.9949 0.9734 1.0121 1.0692 1.1537 1.1859 1.2464 1.3611 1.427
1842.197 1.477 1.497 1.547 1.647 1.717 1.707 1.697 1.737 1.807 1.887
1861.487 1.907 1.937 1.977 1.967 1.937 1.967 2.017 2.047 2.037 1.977
1880.777 1.917 1.917 1.887 1.767 1.687 1.577 1.487 1.437 1.3407 1.225
1900.067 1.1418 1.1406 1.1369 1.1032 1.0874 1.07 1.0752 1.1465 1.2054 1.1896
1919.357 1.2046 1.2884 1.3176 1.2941 1.3078 1.3397 1.3525 1.3223 1.3424 1.3882
1938.647 1.397 1.3775 1.3675 1.3716 1.3469 1.323 1.2843 1.2551 1.1914 1.1675
1957.937 1.1777 1.1517 1.1204 1.1164 1.1264 1.1149 1.0998 1.119 1.1484 1.1189
1977.227 1.129 1.1894 1.1919 1.1649 1.1691 1.1821 1.1863 1.1904 1.2091 1.2524
1996.517 1.2858 1.2955 1.3554 1.417 1.397 1.427 1.457 1.457 1.487 1.567
2015.807 1.597 1.627 1.697 1.777 1.847 1.907 1.957 2.027 2.077 2.117
2035.097 2.167 2.187 2.157 2.097 2.027 1.957 1.867 1.837 1.827 1.767
2054.387 1.767 1.777 1.707 1.667 1.657 1.617 1.637 1.647 1.607 1.577
2073.677 1.517 1.497 1.477 1.497 1.517 1.457 1.457 1.467 1.467 1.437
2092.967 1.457 1.457 1.407 1.3968 1.3828 1.3789 1.3606 1.2907 1.2874 1.3043
2112.257 1.2581 1.2198 1.2035 1.174 1.0913 1.0442 1.0102 0.9899 0.9667 0.9108
2131.547 0.8605 0.8394 0.8363 0.786 0.7701 0.7697 0.7555 0.7277 0.6631 0.6325
2150.837 0.5992 0.6186 0.6618 0.6171 0.59 0.6105 0.6103 0.6179 0.6219 0.6198
2170.127 0.6525 0.6809 0.6768 0.6786 0.724 0.7455 0.6788 0.6892 0.7175 0.6901
2189.417 0.6729 0.6955 0.7278 0.7259 0.7445 0.7549 0.7756 0.7922 0.7848 0.8054
2208.707 0.8169 0.8364 0.8371 0.8503 0.9139 0.976 1.0503 1.0866 1.1575 1.2584
2227.997 1.3678 1.487 1.597 1.737 1.917 2.087 2.257 2.437 2.567 2.677
2247.287 2.767 2.737 2.627 2.517 2.367 2.217 2.097 1.997 1.867 1.727
2266.577 1.607 1.477 1.3906 1.3007 1.2007 1.1056 1.0381 1.0337 1.0441 1.0623
2285.868 1.0237 0.9932 1.0172 0.9956 0.9532 0.9081 0.9312 0.9534 0.9465 0.9557
2305.158 0.9819 1.0096 0.9813 0.9963 1.0374 1.0505 1.018 0.9902 0.9383 0.8689
2324.448 0.8769 0.8492 0.7629 0.7053 0.6271 0.5607 0.5621 0.5199 0.5011 0.48928
2343.738 0.45909 0.42798 0.40776 0.43846 0.4285 0.42206 0.40963 0.38975 0.3473 0.277
2363.028 0.3015 0.3005 0.3023 0.3163 0.3144 0.38812 0.399879 0.3468 0.39249 0.40963
2382.318 0.39051 0.43776 0.43923 0.43339 0.44382 0.43424 0.42965 0.403871 0.404668 0.45178
2401.608 0.45969 0.47242 0.4819 0.44577 0.4382 0.5129 0.5529 0.5146 0.48664 0.5085
2420.898 0.5146 0.5201 0.538 0.5464 0.564 0.576 0.627 0.6693 0.661 0.6599
2440.188 0.7115 0.7585 0.7111 0.6936 0.6741 0.6524 0.7424 0.797 0.7899 0.7237
2459.478 0.6874 0.6933 0.6973 0.6834 0.6452 0.6666 0.7 0.664 0.6044 0.608
2478.768 0.6367 0.715 0.7372 0.7179 0.7313 0.7561 0.7726 0.7509 0.7338 0.6929
2498.058 0.7232 0.7828 0.7779 0.7757 0.7819 0.7725 0.7437 0.7473 0.7742 0.7649
2517.348 0.7665 0.7894 0.787 0.8114 0.7936 0.6986 0.6274 0.6388 0.6541 0.6155
2536.638 0.5674 0.5514 0.5253 0.49358 0.48204 0.45758 0.406678 0.3617 0.41467 0.43316
2555.928 0.3737 0.3494 0.3708 0.4086 0.406658 0.3635 0.3596 0.3524 0.3484 0.3435
2575.218 0.3302 0.3671 0.41001 0.3609 0.297 0.3183 0.3711 0.3431 0.3233 0.35
2594.508 0.3732 0.3544 0.3467 0.3336 0.3066 0.3294 0.3481 0.3552 0.3059 0.289
2613.798 0.3062 0.246 0.18 0.172 0.22 0.238 0.169 0.149 0.158 0.169
2633.088 0.191 0.2 0.228 0.264 0.222 0.167 0.149 0.149 0.144 0.094
2652.378 0.155 0.2 0.134 0.106 0.144 0.237 0.216 0.111 0.116 0.188
2671.668 0.212 0.17 0.192 0.256 0.242 0.271 0.3126 0.292 0.249 0.19
2690.958 0.211 0.258 0.211 0.172 0.188 0.176 0.205 0.242 0.261 0.291
2710.248 0.267 0.261 0.2972 0.3153 0.3154 0.3611 0.3414 0.3238 0.3571 0.3581
2729.538 0.38719 0.383 0.3751 0.3677 0.3224 0.281 0.272 0.3063 0.263 0.128
2748.828 0.121 0.203 0.205 0.176 0.169 0.189 0.228 0.243 0.249 0.203
2768.118 0.15 0.192 0.257 0.219 0.14 0.152 0.23 0.3712 0.44256 0.41041
2787.408 0.405752 0.44175 0.5013 0.5701 0.6131 0.6045 0.6545 0.6944 0.7129 0.8371
2806.698 0.8964 0.9269 0.999 0.983 0.9303 0.8657 0.8597 0.8349 0.7803 0.7826
2825.988 0.7454 0.6696 0.6052 0.6185 0.6024 0.5912 0.5903 0.6019 0.6378 0.6835
2845.278 0.6967 0.6403 0.5982 0.5769 0.6331 0.778 0.8091 0.8321 0.9548 1.0617
2864.568 1.2376 1.437 1.577 1.737 1.927 2.077 2.147 2.247 2.347 2.277
2883.858 2.177 2.037 1.867 1.697 1.577 1.447 1.3622 1.3501 1.2664 1.1992
2903.148 1.224 1.2641 1.323 1.487 1.537 1.547 1.707 1.897 2.107 2.397
2922.438 2.707 3.067 3.647 4.297 5.027 5.867 6.767 7.687 8.437 8.917
2941.728 9.137 8.997 8.477 7.727 6.847 5.847 4.967 4.197 3.487 2.937
2961.018 2.537 2.237 1.997 1.867 1.747 1.747 1.897 2.037 2.127 2.327
2980.308 2.547 2.717 2.957 3.127 3.177 3.067 2.747 2.267 1.837 1.457
2999.598 0.9316 0.6233 0.6009 0.46754 0.406886 0.44353 0.43206 0.43743 0.5126 0.45895
3018.888 0.3767 0.44382 0.43852 0.43896 0.39939 0.47699 0.5306 0.4975 0.5207 0.506
3038.178 0.5382 0.5912 0.6019 0.5662 0.5812 0.5426 0.43226 0.43521 0.5247 0.6447
3057.468 0.6974 0.7257 0.8318 0.9499 1.0714 1.2562 1.3916 1.487 1.647 1.777
3076.758 1.847 1.867 1.907 1.777 1.427 1.1133 0.9902 0.9103 0.8017 0.7773
3096.048 0.7299 0.5981 0.4897 0.3746 0.3166 0.3868 0.45941 0.3742 0.288 0.188
3115.338 0.098 0.084 0.134 0.236 0.203 0.172 0.201 0.176 0.148 0.226
3134.628 0.285 0.241 0.252 0.289 0.189 0.167 0.267 0.228 0.191 0.259
3153.918 0.271 0.27 0.232 0.22 0.295 0.206 0.168 0.3043 0.367 0.215
3173.208 0.075 0.134 0.143 0.118 0.147 0.184 0.229 0.243 0.135 0
3192.498 0.07 0.126 0.083 0.18 0.266 0.167 0.22 0.3213 0.121 0.063
3211.788 0.187 0.115 0.011 0.069 0.101 0.068 0.15 0.227 0.259 0.166
3231.078 0.053 0.175 0.279 0.192 0.126 0.192 0.155 0.129 0.253 0.284
3250.368 0.284 0.255 0.261 0.3186 0.234 0.217 0.217 0.207 0.2988 0.261
3269.658 0.212 0.3066 0.269 0.253 0.3466 0.3176 0.3641 0.39114 0.3539 0.302
3288.948 0.212 0.231 0.283 0.247 0.239 0.286 0.276 0.283 0.3527 0.32
3308.238 0.244 0.267 0.274 0.266 0.3179 0.358 0.3865 0.296 0.293 0.39371
3327.528 0.3501 0.3689 0.378 0.406064 0.3777 0.3287 0.272 0.332 0.38739 0.26
3346.818 0.27 0.282 0.329 0.47325 0.42231 0.262 0.254 0.239 0.264 0.3444
3366.108 0.293 0.224 0.255 0.296 0.23 0.236 0.374 0.3633 0.4271 0.49454
3385.398 0.41473 0.49023 0.5075 0.4876 0.5156 0.42852 0.38779 0.403088 0.3491 0.3724
3404.688 0.46756 0.44632 0.3433 0.277 0.3511 0.42326 0.3392 0.2 0.226 0.3635
3423.978 0.3589 0.3397 0.41971 0.46905 0.3674 0.244 0.287 0.44448 0.5169 0.397878
3443.269 0.40591 0.5554 0.48821 0.3326 0.3005 0.3137 0.46969 0.5712 0.45217 0.44167
3462.559 0.41019 0.3772 0.40791 0.376 0.3633 0.43367 0.5097 0.42111 0.3383 0.3791
3481.849 0.403312 0.3717 0.39233 0.45372 0.46189 0.4347 0.5334 0.53 0.297 0.3726
3501.139 0.43789 0.406306 0.5232 0.5653 0.45173 0.3834 0.534 0.5239 0.45873 0.5388
3520.429 0.5094 0.42199 0.3663 0.398517 0.44723 0.42686 0.48463 0.45008 0.3598 0.405395
3539.719 0.5081 0.5287 0.5168 0.41245 0.3052 0.39877 0.44175 0.41854 0.3414 0.4161
3559.009 0.5568 0.5411 0.5421 0.6227 0.5616 0.43138 0.44691 0.45294 0.3821 0.3652
3578.299 0.5216 0.5833 0.42535 0.398654 0.45021 0.41125 0.42569 0.5328 0.5064 0.46884
3597.589 0.5934 0.5789 0.47135 0.48422 0.4941 0.5352 0.4995 0.3668 0.3392 0.46191
3616.879 0.4927 0.3715 0.49281 0.5435 0.41065 0.3754 0.3811 0.3697 0.397956 0.48336
3636.169 0.5218 0.4673 0.42497 0.3405 0.2992 0.3801 0.5157 0.5782 0.5603 0.5601
3655.459 0.567 0.5818 0.5437 0.5227 0.5626 0.5491 0.46372 0.3749 0.42227 0.5493
3674.749 0.48092 0.43494 0.43343 0.43868 0.47601 0.3367 0.288 0.41114 0.4347 0.39122
3694.039 0.49413 0.49145 0.406188 0.48203 0.547 0.523 0.5016 0.49614 0.47782 0.5327
3713.329 0.5417 0.535 0.5138 0.48931 0.5326 0.47414 0.3672 0.3313 0.42219 0.5452
3732.619 0.6189 0.6023 0.5712 0.5636 0.5183 0.46018 0.405728 0.43804 0.5447 0.5992
3751.909 0.6393 0.6826 0.627 0.4935 0.5139 0.6343 0.6181 0.614 0.6014 0.5406
3771.199 0.5512 0.5654 0.5572 0.5021 0.41757 0.45695 0.5157 0.5474 0.5355 0.5209
3790.489 0.5528 0.45438 0.39289 0.40076 0.47994 0.446 0.3515 0.43165 0.397833 0.284
3809.779 0.3742 0.46689 0.41367 0.399193 0.39059 0.48543 0.5306 0.46167 0.3505 0.4669
3829.069 0.5231 0.3773 0.40979 0.3846 0.3666 0.3602 0.3599 0.3862 0.3175 0.284
3848.359 0.282 0.279 0.244 0.293 0.3436 0.3468 0.283 0.256 0.293 0.41582
3867.649 0.5155 0.3458 0.3488 0.41418 0.3783 0.44518 0.43989 0.248 0.188 0.275
3886.939 0.3203 0.28 0.3449 0.45763 0.47517 0.47934 0.46891 0.41681 0.38768 0.5085
3906.229 0.4982 0.39275 0.39068 0.49311 0.6317 0.5503 0.5712 0.6667 0.6366 0.6563
3925.519 0.6433 0.6025 0.6135 0.598 0.5654 0.5086 0.5572 0.7428 0.8019 0.725
3944.809 0.6059 0.5841 0.44132 0.39078 0.47203 0.46286 0.4979 0.5391 0.657 0.6544
3964.099 0.565 0.5503 0.44887 0.4986 0.5935 0.5479 0.5882 0.4983 0.49036 0.5703
3983.389 0.48515 0.48041 0.6218 0.595 0.47448 0.42932 0.44993 0.6067 0.5553 0.47108
##END=
