##TITLE=o-Nitrobenzylbromide
##JCAMP-DX=4.24
##DATA TYPE=INFRARED SPECTRUM
##ORIGIN=NIST Mass Spectrometry Data Center
##OWNER=NIST Standard Reference Data Program
Collection (C) 2018 copyright by the U.S. Secretary of Commerce
on behalf of the United States of America. All rights reserved.
##CAS REGISTRY NO=3958-60-9
##MOLFORM=C 7 H 6 Br N O 2
##$NIST SOURCE=MSDC-IR
##SPECTROMETER/DATA SYSTEM=HP-GC/MS/IRD
##STATE=gas
##XUNITS=1/CM
##YUNITS=ABSORBANCE
##XFACTOR=1.0
##YFACTOR=0.000006800
##DELTAX=4.0
##FIRSTX=550.0
##LASTX=3846.0
##FIRSTY=0.000932
##MAXX=3846
##MINX=550
##MAXY=0.068
##MINY=0
##NPOINTS=825
##XYDATA=(X++(Y..Y))
550.0 137 220 201 228 243 235 203 162 137 131
590.0 144 185 246 332 457 643 895 1154 1309 1266
630.0 1071 836 653 542 491 501 568 698 852 974
670.0 1007 916 783 687 677 749 889 1083 1192 1148
710.0 1048 934 846 825 836 877 962 1079 1208 1302
750.0 1280 1107 914 825 869 1026 1253 1393 1224 942
790.0 789 794 904 976 934 766 525 339 244 214
830.0 219 258 373 606 979 1351 1535 1512 1261 876
870.0 569 379 251 161 101 64 50 48 45 41
910.0 36 31 23 10 0 0 14 25 39 67
950.0 95 101 83 59 41 27 21 25 32 37
990.0 36 41 46 54 74 88 99 121 141 152
1030.0 175 205 225 224 202 166 112 84 83 91
1070.0 107 119 116 102 88 82 77 70 75 86
1110.0 102 130 148 157 158 154 150 153 174 211
1150.0 260 308 341 337 321 292 261 256 277 315
1190.0 363 419 475 523 583 688 871 1154 1431 1524
1230.0 1399 1101 756 513 387 326 295 280 281 296
1270.0 322 366 423 506 624 774 924 1018 1020 943
1310.0 839 777 790 879 1051 1338 1810 2569 3661 4946
1350.0 5984 6349 5882 4550 2916 1732 1086 766 604 523
1390.0 479 458 452 454 457 462 472 490 530 604
1430.0 728 907 1102 1240 1257 1146 971 802 688 646
1470.0 666 739 842 943 1023 1084 1142 1235 1396 1633
1510.0 1945 2332 2830 3477 4323 5447 6906 8501 9729 10000
1550.0 9088 7349 5487 4105 3302 2775 2394 2081 1819 1589
1590.0 1399 1263 1195 1166 1132 1056 926 763 604 473
1630.0 379 312 264 230 204 180 154 133 118 102
1670.0 89 79 77 79 82 84 87 91 98 105
1710.0 113 122 131 135 131 123 109 91 74 62
1750.0 56 58 58 59 60 61 67 77 90 111
1790.0 149 211 292 383 451 484 495 467 374 257
1830.0 175 123 92 78 71 63 54 44 36 32
1870.0 27 26 25 25 30 36 43 49 54 57
1910.0 59 62 70 91 116 125 119 103 84 75
1950.0 78 92 104 108 95 67 41 25 17 13
1990.0 12 11 13 14 14 13 11 10 8 7
2030.0 6 6 5 6 5 2 3 4 3 3
2070.0 2 0 1 4 3 2 3 4 5 6
2110.0 3 4 6 3 1 3 4 5 4 1
2150.0 2 5 5 3 4 8 6 5 7 9
2190.0 9 10 10 10 11 9 7 9 11 12
2230.0 16 14 12 14 14 13 10 11 13 13
2270.0 16 18 14 16 24 27 31 38 44 49
2310.0 58 72 82 89 91 90 83 74 63 54
2350.0 51 63 71 72 73 68 59 50 41 34
2390.0 35 37 34 33 33 33 35 37 39 39
2430.0 35 31 27 23 26 22 17 18 17 16
2470.0 14 11 13 14 14 12 9 8 10 10
2510.0 8 5 8 7 6 4 2 0 0 2
2550.0 2 3 3 4 6 7 12 12 13 13
2590.0 12 11 12 14 12 12 14 17 16 18
2630.0 23 27 28 31 37 36 36 38 38 44
2670.0 48 45 45 48 50 55 55 56 56 49
2710.0 39 30 26 25 25 26 25 27 30 30
2750.0 25 22 23 22 20 20 20 18 20 23
2790.0 26 26 30 33 32 29 32 38 43 46
2830.0 55 64 65 69 76 84 96 111 132 152
2870.0 171 190 208 218 218 210 189 166 142 123
2910.0 106 92 82 79 75 72 71 72 70 68
2950.0 73 77 77 84 94 107 128 159 198 235
2990.0 264 276 259 225 188 153 132 127 127 133
3030.0 146 163 176 186 198 215 246 303 385 497
3070.0 626 743 809 785 687 532 371 248 170 126
3110.0 101 87 75 65 60 52 47 44 42 42
3150.0 43 42 41 38 31 25 22 20 22 25
3190.0 24 24 19 14 13 12 11 8 8 3
3230.0 6 8 6 4 1 0 2 5 7 2
3270.0 0 0 2 3 5 11 10 3 1 5
3310.0 6 5 12 15 18 24 21 16 15 12
3350.0 9 5 4 4 3 8 13 10 10 8
3390.0 4 7 14 18 11 8 8 3 3 10
3430.0 15 14 9 7 9 10 11 10 8 7
3470.0 10 12 12 12 14 10 8 13 12 10
3510.0 15 15 14 14 16 12 9 17 9 7
3550.0 9 5 11 17 13 12 16 24 28 26
3590.0 29 31 25 17 18 18 24 25 22 25
3630.0 26 26 26 29 28 24 18 20 21 20
3670.0 23 20 18 21 24 21 21 22 21 20
3710.0 21 26 26 25 23 21 25 24 21 23
3750.0 24 21 14 13 15 11 16 17 19 23
3790.0 19 23 24 25 25 20 21 23 25 27
3830.0 27 20 20 19 17
##END=
