##TITLE=3-Chloro-4-methylbenzyl alcohol
##JCAMP-DX=4.24
##DATA TYPE=INFRARED SPECTRUM
##ORIGIN=EPA-IR VAPOR PHASE LIBRARY
##OWNER=SRD/NIST
Collection (C) 2018 copyright by the U.S. Secretary of Commerce
on behalf of the United States of America. All rights reserved.
##CAS REGISTRY NO=39652-32-9
##MOLFORM=C 8 H 9 Cl O
##$NIST SOURCE=MSDC-IR
##STATE=gas
##XUNITS=1/CM
##YUNITS=ABSORBANCE
##XFACTOR=1.
##YFACTOR=0.001
##DELTAX=1.92898
##FIRSTX=549.8
##LASTX=4000.7
##FIRSTY=1.353
##MAXX=4000.7
##MINX=549.759
##MAXY=0.026583
##MINY=0
##NPOINTS=1790
##XYDATA=(X++(Y..Y))
549.759 1.353 1.413 1.633 1.833 1.673 1.443 1.523 1.663 1.683 1.843
569.049 1.793 1.553 1.373 1.243 1.353 1.553 1.613 1.643 1.623 1.413
588.339 1.0903 0.9752 1.1196 1.1015 1.1037 1.1219 0.9862 0.931 0.8456 0.7243
607.628 0.8982 1.0829 1.084 0.8695 0.7391 0.9341 0.9829 0.8781 0.8936 0.7611
626.918 0.6479 0.7078 0.6593 0.6269 0.4891 0.437 0.7224 1.0106 0.9576 0.8727
646.208 1.111 1.0563 0.9256 1.0643 1.153 1.153 1.088 0.9386 0.9102 0.8691
665.498 0.7351 0.8612 1.0016 0.9842 0.8595 0.9447 1.173 1.293 1.683 2.043
684.787 2.173 2.323 2.343 2.343 2.463 2.523 2.543 2.373 2.053 1.863
704.077 1.673 1.443 1.573 1.773 1.723 1.853 1.993 1.903 1.923 2.083
723.367 2.163 2.303 2.353 2.203 2.273 2.463 2.463 2.473 2.333 2.203
742.657 2.143 2.023 1.883 1.843 1.853 1.583 1.503 1.663 1.613 1.483
761.947 1.273 1.163 1.243 1.253 1.193 1.143 1.0882 1.193 1.223 1.283
781.236 1.353 1.473 1.713 1.833 1.903 2.233 2.603 2.883 3.523 4.133
800.526 4.623 5.283 5.983 6.643 7.403 8.203 8.833 9.203 9.063 8.313
819.816 7.503 6.713 5.973 5.383 4.553 3.843 3.243 2.673 2.243 1.883
839.106 1.693 1.543 1.603 1.673 1.643 1.673 1.853 2.013 1.983 2.083
858.395 2.543 2.993 3.173 3.503 3.763 3.863 4.173 4.643 4.933 4.953
877.685 4.933 4.773 4.493 4.363 4.213 3.853 3.443 3.163 2.903 2.523
896.975 2.243 2.053 1.923 1.853 1.823 1.883 1.843 1.693 1.713 1.773
916.265 1.943 2.053 2.013 2.093 2.143 2.073 2.083 1.953 1.953 2.143
935.555 2.253 2.453 2.373 2.383 2.483 2.493 2.633 2.783 3.073 3.163
954.844 2.953 3.053 3.343 3.533 3.743 3.953 4.213 4.293 4.343 4.643
974.134 4.743 4.873 5.193 5.293 5.473 5.793 5.973 6.083 6.383 6.883
993.424 7.153 7.253 7.423 7.633 8.083 8.643 8.943 9.173 9.533 9.853
1012.714 10.423 10.903 11.443 12.363 13.033 13.663 14.423 15.233 15.933 16.563
1032.003 17.563 18.463 19.423 20.733 22.183 23.593 24.693 25.873 26.583 26.363
1051.293 25.653 24.823 23.573 21.533 19.213 16.553 13.633 11.243 9.743 8.463
1070.583 7.433 6.483 5.633 5.333 4.993 4.133 3.193 2.953 2.943 2.973
1089.873 2.893 3.023 2.953 2.283 1.993 2.093 2.133 2.373 2.403 1.953
1109.163 1.553 1.783 2.043 1.733 1.983 2.123 1.913 2.283 2.363 2.313
1128.452 2.773 3.073 3.073 2.853 2.663 3.053 3.533 3.683 3.563 3.273
1147.742 3.313 3.513 3.263 3.153 3.113 3.023 3.193 3.293 3.123 2.943
1167.032 2.903 2.823 2.883 3.283 3.613 3.663 3.663 3.603 3.753 4.043
1186.322 4.463 5.033 5.023 5.033 5.113 5.243 5.493 5.363 5.423 5.963
1205.611 6.093 5.913 5.713 5.483 5.403 5.413 5.353 5.103 4.853 4.653
1224.901 4.453 4.273 4.293 3.993 3.983 3.983 3.843 3.833 3.603 3.363
1244.191 3.243 3.203 3.193 3.133 2.793 2.633 2.863 2.993 2.933 2.883
1263.481 2.853 2.813 2.683 2.733 2.873 2.893 2.743 2.643 2.823 2.813
1282.771 2.803 2.803 2.733 2.653 2.603 2.583 2.453 2.373 2.423 2.433
1302.060 2.443 2.413 2.403 2.413 2.463 2.463 2.423 2.493 2.473 2.473
1321.350 2.503 2.483 2.513 2.523 2.503 2.543 2.603 2.663 2.703 2.843
1340.640 2.943 3.053 3.243 3.413 3.653 3.903 4.223 4.543 4.743 5.043
1359.930 5.433 5.813 6.163 6.503 6.803 7.133 7.393 7.613 7.863 8.043
1379.219 8.173 8.223 8.253 8.273 8.253 8.273 8.273 8.203 8.093 7.973
1398.509 7.853 7.643 7.503 7.343 7.133 6.903 6.603 6.283 5.963 5.643
1417.799 5.403 5.133 4.833 4.663 4.463 4.303 4.233 4.173 4.153 4.173
1437.089 4.203 4.213 4.253 4.293 4.383 4.443 4.463 4.553 4.693 4.843
1456.378 5.023 5.313 5.623 5.883 6.263 6.723 7.163 7.653 8.123 8.553
1475.668 8.933 9.163 9.223 9.173 9.073 8.923 8.553 8.033 7.433 6.743
1494.958 6.043 5.433 4.873 4.423 3.993 3.463 2.963 2.573 2.273 2.003
1514.248 1.863 1.733 1.553 1.483 1.433 1.353 1.293 1.253 1.233 1.233
1533.538 1.233 1.263 1.293 1.293 1.233 1.203 1.213 1.283 1.373 1.423
1552.827 1.493 1.493 1.503 1.563 1.593 1.693 1.753 1.793 1.833 1.873
1572.117 1.953 1.993 1.953 1.903 1.843 1.823 1.763 1.693 1.653 1.603
1591.407 1.583 1.593 1.603 1.583 1.563 1.523 1.533 1.573 1.583 1.583
1610.697 1.463 1.363 1.313 1.263 1.223 1.143 1.0917 1.0593 0.9515 0.8953
1629.986 0.8663 0.8711 0.8736 0.779 0.6238 0.5708 0.6279 0.6324 0.5688 0.5102
1649.276 0.464 0.4658 0.4525 0.3882 0.3754 0.4105 0.4394 0.4708 0.4682 0.3877
1668.566 0.3933 0.3966 0.3441 0.3053 0.3373 0.3671 0.3938 0.4604 0.4467 0.3798
1687.856 0.3746 0.3683 0.2975 0.3274 0.3876 0.3989 0.4277 0.4464 0.4561 0.4665
1707.146 0.4437 0.402 0.4164 0.4717 0.5144 0.4699 0.5057 0.5468 0.5037 0.5138
1726.435 0.5543 0.6418 0.6914 0.6909 0.6891 0.6619 0.6819 0.7048 0.7 0.7563
1745.725 0.8243 0.8352 0.8267 0.8474 0.843 0.8315 0.7847 0.7442 0.7104 0.6438
1765.015 0.6224 0.6029 0.5362 0.4791 0.4434 0.4235 0.4659 0.4663 0.4348 0.4039
1784.305 0.3547 0.3771 0.3912 0.3315 0.3029 0.3155 0.291 0.3562 0.4389 0.3613
1803.594 0.3551 0.3643 0.3052 0.3683 0.4231 0.3989 0.3979 0.3748 0.376 0.4294
1822.884 0.4488 0.4228 0.3913 0.3675 0.3275 0.3083 0.3222 0.3202 0.3322 0.308
1842.174 0.2784 0.3132 0.3177 0.305 0.3331 0.3404 0.2777 0.23265 0.2637 0.3254
1861.464 0.349 0.3764 0.4315 0.4547 0.472 0.5312 0.5521 0.5999 0.6597 0.6921
1880.754 0.6775 0.666 0.714 0.6966 0.6807 0.6885 0.6909 0.6618 0.6002 0.6071
1900.043 0.5789 0.5151 0.5154 0.4873 0.4291 0.3925 0.3623 0.3535 0.3746 0.333
1919.333 0.3155 0.3285 0.2934 0.3398 0.358 0.3652 0.3008 0.22674 0.2582 0.2791
1938.623 0.2595 0.2878 0.3172 0.273 0.3034 0.32 0.3037 0.3195 0.3161 0.2707
1957.913 0.23191 0.2612 0.2489 0.22511 0.2899 0.2926 0.2535 0.2849 0.3324 0.2875
1977.202 0.2402 0.2981 0.2902 0.2501 0.245 0.22279 0.2377 0.2432 0.2474 0.3045
1996.492 0.3544 0.3326 0.3108 0.327 0.3147 0.2977 0.2849 0.304 0.3305 0.3539
2015.782 0.3817 0.3865 0.3854 0.3492 0.3501 0.4008 0.3856 0.3454 0.3841 0.3654
2035.072 0.3151 0.301 0.3042 0.2756 0.2549 0.2859 0.2603 0.2728 0.2977 0.2969
2054.362 0.2842 0.296 0.3264 0.3049 0.2516 0.23085 0.2749 0.3148 0.3312 0.3369
2073.651 0.3383 0.2553 0.2245 0.2919 0.3004 0.275 0.2564 0.2637 0.2856 0.306
2092.941 0.3039 0.2354 0.20052 0.245 0.2742 0.2415 0.21659 0.2344 0.2633 0.2742
2112.231 0.2502 0.2513 0.2401 0.19319 0.18668 0.22152 0.21106 0.17463 0.2075 0.2388
2131.521 0.247 0.2636 0.2479 0.22079 0.21419 0.2869 0.2629 0.19942 0.2345 0.17869
2150.810 0.17091 0.22791 0.16893 0.17627 0.22435 0.1178 0.1107 0.19865 0.19085 0.21654
2170.100 0.2448 0.2441 0.257 0.22446 0.17449 0.16922 0.21874 0.241 0.2384 0.2256
2189.390 0.18074 0.17602 0.2409 0.2537 0.2095 0.18559 0.17112 0.21061 0.2441 0.2609
2208.680 0.2529 0.154 0.14637 0.22342 0.22769 0.22006 0.21462 0.2333 0.2606 0.2821
2227.970 0.19313 0.0762 0.1219 0.16382 0.21476 0.21452 0.16598 0.19619 0.20397 0.19208
2247.259 0.19237 0.21563 0.258 0.275 0.3017 0.2864 0.2553 0.2558 0.18859 0.15019
2266.549 0.20486 0.2805 0.3089 0.2857 0.2532 0.2686 0.2815 0.2733 0.2288 0.23022
2285.839 0.2874 0.305 0.2557 0.22651 0.2471 0.2809 0.3558 0.3372 0.2821 0.3132
2305.129 0.2784 0.2789 0.3523 0.3281 0.2763 0.2976 0.3017 0.2635 0.3424 0.315
2324.418 0.21732 0.2733 0.3271 0.2926 0.2722 0.2362 0.17668 0.21791 0.2332 0.2642
2343.708 0.2714 0.22096 0.2187 0.20324 0.22223 0.20052 0.18594 0.20351 0.17979 0.2337
2362.998 0.2842 0.3178 0.3789 0.384 0.3296 0.21424 0.229 0.2849 0.2188 0.20359
2382.288 0.22202 0.3383 0.419 0.3911 0.3365 0.3058 0.3367 0.3301 0.3359 0.3231
2401.578 0.2819 0.3082 0.3414 0.3383 0.2985 0.291 0.313 0.3603 0.4161 0.3539
2420.867 0.2598 0.20142 0.22988 0.3042 0.287 0.2661 0.3454 0.3559 0.3169 0.3145
2440.157 0.274 0.2849 0.2743 0.21807 0.2833 0.3628 0.3021 0.2077 0.2483 0.2726
2459.447 0.2524 0.2416 0.2822 0.3815 0.2986 0.18824 0.19215 0.2393 0.3061 0.3459
2478.737 0.3713 0.2559 0.2476 0.3796 0.3697 0.3218 0.2823 0.3063 0.3468 0.4109
2498.026 0.4142 0.3004 0.244 0.2574 0.3062 0.2689 0.2551 0.3174 0.2877 0.2461
2517.316 0.2801 0.3083 0.2696 0.2735 0.3086 0.313 0.2956 0.3003 0.345 0.3027
2536.606 0.2511 0.2873 0.3173 0.3556 0.2503 0.16472 0.19135 0.216 0.3456 0.3805
2555.896 0.2991 0.2804 0.2955 0.22121 0.2357 0.3547 0.3623 0.3 0.24 0.267
2575.186 0.2545 0.2385 0.2875 0.2495 0.2395 0.20349 0.19455 0.2788 0.2794 0.2829
2594.475 0.3039 0.3158 0.3159 0.3337 0.3597 0.3826 0.3538 0.3018 0.34 0.3601
2613.765 0.3319 0.3375 0.3894 0.3729 0.3879 0.4193 0.2947 0.23206 0.3337 0.3585
2633.055 0.359 0.3718 0.3672 0.3119 0.2739 0.3233 0.22771 0.22424 0.3626 0.3894
2652.345 0.3515 0.3321 0.3368 0.3311 0.3348 0.3175 0.2991 0.2892 0.2657 0.23215
2671.634 0.2367 0.2711 0.2665 0.3332 0.3669 0.3208 0.3615 0.3617 0.358 0.3519
2690.924 0.3405 0.3854 0.4019 0.3283 0.2616 0.3131 0.3458 0.3555 0.3747 0.3354
2710.214 0.3178 0.4335 0.5277 0.5398 0.5197 0.4409 0.3626 0.3806 0.4037 0.3724
2729.504 0.4611 0.4506 0.3964 0.4809 0.5208 0.5573 0.6095 0.6541 0.6262 0.5932
2748.794 0.5904 0.5891 0.6003 0.6226 0.7004 0.7293 0.6296 0.6213 0.698 0.7283
2768.083 0.7051 0.7347 0.7999 0.7834 0.7489 0.6738 0.677 0.6526 0.6186 0.7583
2787.373 0.8062 0.8006 0.7635 0.6979 0.77 0.8738 0.939 0.9579 1.0115 1.0818
2806.663 1.0798 0.9876 0.9841 1.0335 1.1104 1.203 1.193 1.143 1.183 1.363
2825.953 1.563 1.533 1.533 1.643 1.813 1.923 1.973 2.133 2.243 2.493
2845.242 2.703 2.743 2.883 3.143 3.333 3.573 3.843 4.083 4.373 4.643
2864.532 4.893 5.123 5.533 5.973 6.293 6.623 6.923 7.173 7.363 7.573
2883.822 7.623 7.533 7.373 7.143 6.943 6.783 6.693 6.583 6.463 6.273
2903.112 6.063 6.063 6.083 6.143 6.253 6.273 6.323 6.393 6.573 6.883
2922.401 7.163 7.433 7.683 7.843 8.053 8.343 8.493 8.593 8.593 8.503
2941.691 8.363 8.053 7.683 7.403 7.123 6.833 6.553 6.263 5.993 5.753
2960.981 5.613 5.623 5.553 5.353 5.023 4.713 4.733 4.773 4.663 4.583
2980.271 4.493 4.343 4.203 4.093 4.003 3.823 3.743 3.683 3.493 3.423
2999.561 3.183 2.953 2.983 2.923 2.843 2.833 2.903 3.063 3.223 3.303
3018.850 3.333 3.363 3.393 3.563 3.663 3.623 3.513 3.373 3.253 3.133
3038.140 3.083 3.113 3.213 3.303 3.213 3.023 2.853 2.823 2.953 2.953
3057.430 2.823 2.763 2.723 2.593 2.483 2.433 2.303 2.233 2.273 2.103
3076.720 1.853 1.833 1.793 1.643 1.573 1.573 1.493 1.413 1.363 1.243
3096.009 1.183 1.1207 1.1054 1.143 1.0489 0.9259 0.8055 0.7157 0.8177 0.8012
3115.299 0.7876 0.6625 0.5538 0.6751 0.6438 0.5554 0.4705 0.4273 0.3869 0.3139
3134.589 0.3453 0.4227 0.2831 0.21024 0.3016 0.2694 0.2825 0.3142 0.3724 0.4077
3153.879 0.3376 0.348 0.315 0.23287 0.3143 0.2387 0.17761 0.1158 0.0367 0.19131
3173.169 0.23048 0.2574 0.2665 0.2039 0.16248 0.12543 0.21649 0.2853 0.20583 0.17622
3192.458 0.3052 0.3053 0.17874 0.16786 0.22778 0.20064 0.1189 0.22739 0.3104 0.22651
3211.748 0.19891 0.22714 0.21749 0.235 0.17853 0.3068 0.3154 0.18149 0.2437 0.2426
3231.038 0.18576 0.15227 0.20043 0.16974 0.22834 0.2498 0.0993 0.15982 0.2456 0.1944
3250.328 0.21573 0.20504 0.21108 0.3201 0.3515 0.2715 0.0739 0.0913 0.17808 0.15278
3269.617 0.21294 0.2715 0.2976 0.2492 0.22847 0.18963 0.19869 0.2351 0.0953 0.134619
3288.907 0.2454 0.14763 0.2103 0.2519 0.17069 0.0819 0 0.0881 0.2626 0.2665
3308.197 0.2824 0.32 0.2443 0.2582 0.19317 0.1227 0.16836 0.1241 0.140765 0.20742
3327.487 0.15663 0.16761 0.3056 0.2698 0.16396 0.2788 0.3235 0.3426 0.2858 0.1184
3346.777 0.18586 0.2929 0.2644 0.22381 0.235 0.16545 0.1727 0.21785 0.16163 0.16026
3366.066 0.2384 0.3423 0.2814 0.16114 0.2771 0.3812 0.23297 0.2658 0.3283 0.2732
3385.356 0.2578 0.20332 0.2641 0.3179 0.326 0.3892 0.2944 0.2466 0.2631 0.2758
3404.646 0.2643 0.20115 0.21787 0.3176 0.401 0.3379 0.323 0.3647 0.3255 0.288
3423.936 0.3134 0.2521 0.2406 0.3154 0.3531 0.2799 0.16747 0.19995 0.2625 0.2805
3443.225 0.2947 0.3693 0.2774 0.137633 0.2596 0.3769 0.2952 0.2712 0.3106 0.3297
3462.515 0.4105 0.3672 0.3075 0.3317 0.3129 0.3656 0.4937 0.4196 0.3189 0.2503
3481.805 0.0607 0.15382 0.2953 0.2915 0.2493 0.3117 0.289 0.093 0.12963 0.2808
3501.095 0.4116 0.3813 0.3102 0.3243 0.3921 0.4167 0.368 0.3368 0.2763 0.15404
3520.385 0.1104 0.3204 0.4815 0.3898 0.3235 0.3527 0.2798 0.0952 0.065 0.18026
3539.674 0.2522 0.307 0.3306 0.2344 0.1943 0.2494 0.22268 0.2969 0.3082 0.2575
3558.964 0.2602 0.2146 0.3407 0.3432 0.2411 0.3254 0.3395 0.3659 0.3477 0.263
3578.254 0.353 0.4123 0.4078 0.4159 0.3127 0.3371 0.3603 0.4367 0.4848 0.5478
3597.544 0.6659 0.5256 0.4062 0.3341 0.4838 0.6759 0.8111 0.8232 0.7442 0.8352
3616.833 0.8637 0.897 0.9316 0.9926 1.0458 1.128 1.363 1.503 1.533 1.703
3636.123 1.873 2.033 2.343 2.553 2.733 3.093 3.363 3.443 3.513 3.623
3655.413 3.793 3.703 3.533 3.653 3.643 3.433 3.203 3.033 2.863 2.663
3674.703 2.563 2.443 2.203 1.963 1.823 1.723 1.663 1.493 1.373 1.233
3693.993 1.1253 1.122 1.0264 0.8942 0.8252 0.9335 0.9625 0.9071 0.7992 0.7067
3713.282 0.7116 0.6198 0.5616 0.5251 0.4369 0.4247 0.5556 0.5627 0.3676 0.3383
3732.572 0.4306 0.523 0.4909 0.3684 0.3799 0.5641 0.5675 0.5049 0.5185 0.4143
3751.862 0.5024 0.5009 0.427 0.4799 0.4137 0.3526 0.3928 0.2806 0.2436 0.3709
3771.152 0.3356 0.2958 0.2881 0.3026 0.319 0.2377 0.16853 0.15339 0.2451 0.3236
3790.441 0.4026 0.3744 0.22057 0.16698 0.12431 0.2668 0.5297 0.5417 0.4513 0.3346
3809.731 0.2669 0.2897 0.2241 0.2914 0.3368 0.3575 0.4698 0.4492 0.3844 0.2577
3829.021 0.2934 0.321 0.284 0.3564 0.3246 0.2913 0.3143 0.3633 0.5146 0.4215
3848.311 0.3412 0.4675 0.4257 0.344 0.4028 0.4913 0.4485 0.17336 0.15473 0.3411
3867.601 0.3664 0.4285 0.4463 0.4635 0.464 0.3655 0.2813 0.3814 0.4867 0.4942
3886.890 0.4878 0.3843 0.3336 0.3969 0.4104 0.3474 0.3157 0.19937 0.15178 0.2456
3906.180 0.1114 0.140763 0.3549 0.4674 0.4551 0.4247 0.3967 0.3236 0.3577 0.20599
3925.470 0.19175 0.4424 0.3866 0.18948 0.21076 0.3101 0.3115 0.2517 0.133111 0.16898
3944.760 0.3238 0.3056 0.18361 0.2501 0.3049 0.17051 0.2742 0.42 0.18509 0.022
3964.049 0.21368 0.3325 0.3394 0.3394 0.2734 0.2533 0.2839 0.2812 0.2661 0.2758
3983.339 0.2431 0.23105 0.16701 0.1117 0.13059 0.2881 0.3267 0.22241 0.2555 0.2333
##END=
