##TITLE=2,7-Diacetylfluorene
##JCAMP-DX=4.24
##DATA TYPE=INFRARED SPECTRUM
##ORIGIN=EPA-IR VAPOR PHASE LIBRARY
##OWNER=SRD/NIST
Collection (C) 2018 copyright by the U.S. Secretary of Commerce
on behalf of the United States of America. All rights reserved.
##CAS REGISTRY NO=39665-89-9
##MOLFORM=C 17 H 14 O 2
##$NIST SOURCE=MSDC-IR
##STATE=gas
##XUNITS=1/CM
##YUNITS=ABSORBANCE
##XFACTOR=1.
##YFACTOR=0.001
##DELTAX=1.92898
##FIRSTX=549.8
##LASTX=4000.7
##FIRSTY=0.9421
##MAXX=4000.7
##MINX=549.759
##MAXY=0.047691
##MINY=0
##NPOINTS=1790
##XYDATA=(X++(Y..Y))
549.759 0.9421 0.9644 1.0186 1.2131 0.9667 0.7728 0.8035 0.8468 0.7896 0.7457
569.049 1.0478 1.361 1.401 1.3285 1.391 1.511 1.521 1.631 2.191 2.841
588.339 3.441 4.341 5.321 6.051 6.381 5.971 5.311 4.501 3.631 2.961
607.628 2.391 1.911 1.641 1.3236 1.1196 1.1309 1.0515 0.9953 0.799 0.794
626.918 0.7573 0.6309 0.649 0.8007 0.6843 0.40904 0.39368 0.4601 0.4702 0.6144
646.208 0.5551 0.360921 0.3235 0.40385 0.456 0.41198 0.5299 0.6122 0.6654 0.5944
665.498 0.4409 0.36684 0.42024 0.5423 0.5617 0.5067 0.512 0.684 0.7075 0.6521
684.787 0.692 0.936 1.421 2.141 3.161 3.991 4.281 4.241 3.681 2.811
704.077 2.191 1.901 1.871 1.801 1.661 1.651 1.511 1.1855 0.871 0.7883
723.367 0.7646 0.6069 0.6756 0.7087 0.5184 0.41831 0.42683 0.3283 0.4253 0.498
742.657 0.4672 0.506 0.5734 0.6194 0.5502 0.41014 0.3361 0.44182 0.44865 0.4513
761.947 0.41526 0.4835 0.6754 0.6566 0.5546 0.4487 0.5384 0.5979 0.44375 0.42148
781.236 0.42323 0.44421 0.5324 0.6105 0.6145 0.7334 0.831 0.8158 1.0012 1.1883
800.526 1.2795 1.711 2.341 3.001 3.691 4.431 4.991 5.181 5.291 5.301
819.816 4.941 4.481 4.111 3.671 3.121 2.671 2.291 1.901 1.781 1.621
839.106 1.371 1.123 0.9936 1.0464 0.9723 0.7467 0.6431 0.7058 0.7606 0.8769
858.395 1.1301 1.1769 1.1634 1.3098 1.2744 1.2167 1.2582 1.2151 0.9965 0.7709
877.685 0.7496 0.7778 0.8119 0.8546 0.8458 0.7632 0.6367 0.5563 0.5302 0.539
896.975 0.5976 0.6442 0.7404 0.7556 0.6498 0.749 0.8899 0.8888 0.8961 0.805
916.265 0.8017 0.8275 0.8542 0.8678 0.7892 0.8004 0.9292 1.0491 1.1097 1.3044
935.555 1.411 1.571 1.891 2.171 2.321 2.661 3.321 3.911 4.171 4.221
954.844 4.191 4.061 3.871 3.621 3.571 3.581 3.461 3.261 3.001 2.731
974.134 2.391 2.061 1.741 1.531 1.441 1.361 1.1068 1.0622 1.1576 1.1238
993.424 1.1614 1.0893 1.1118 1.551 1.971 2.031 2.111 1.921 1.391 1.274
1012.714 1.2702 1.1618 1.2294 1.2588 1.1678 1.0284 1.0285 0.99 0.8497 0.9887
1032.003 1.079 0.9818 0.7741 0.7142 0.7403 0.8514 0.8479 0.6809 0.8584 0.9786
1051.293 1.0244 1.0199 0.8967 0.6317 0.7106 0.967 1.0852 1.0349 0.9404 0.8576
1070.583 0.8071 1.107 1.179 0.9513 0.5109 0.478 0.7922 0.8154 0.8306 0.8184
1089.873 0.7548 0.40371 0.4482 0.9373 0.8452 0.9494 0.9355 0.6345 0.7451 0.8998
1109.163 1.2076 1.481 1.461 1.1753 1.371 1.721 1.761 1.611 1.621 1.861
1128.452 1.891 1.781 1.821 2.021 2.171 2.271 2.411 2.591 3.161 4.421
1147.742 5.811 7.311 8.271 8.371 7.871 6.481 4.841 3.811 3.241 2.721
1167.032 2.411 2.251 1.861 1.721 1.581 1.195 1.1504 1.0881 0.9759 1.1676
1186.322 1.059 1.1666 1.411 1.511 1.811 1.881 2.121 2.301 2.221 2.261
1205.611 2.101 2.211 2.571 2.661 2.891 3.311 3.661 3.831 4.241 4.941
1224.901 5.531 6.371 7.601 9.181 10.961 13.131 16.071 19.611 23.691 28.411
1244.191 33.741 39.331 44.451 47.621 47.691 44.141 37.231 29.041 21.451 15.411
1263.481 11.291 8.461 6.471 5.021 4.261 3.871 3.521 3.531 3.791 3.971
1282.771 4.261 4.921 5.911 7.101 7.991 8.361 8.101 7.231 6.071 4.881
1302.060 3.951 3.261 2.631 2.181 1.901 1.731 1.671 1.711 1.731 1.721
1321.350 1.791 1.881 1.971 2.081 2.181 2.331 2.441 2.461 2.481 2.481
1340.640 2.581 2.761 3.051 3.531 4.191 5.131 6.341 7.731 9.141 10.301
1359.930 10.861 10.631 9.741 8.401 6.961 5.711 4.711 3.991 3.441 2.961
1379.219 2.661 2.461 2.311 2.221 2.161 2.171 2.231 2.361 2.471 2.611
1398.509 2.811 3.041 3.321 3.671 4.101 4.441 4.641 4.651 4.571 4.561
1417.799 4.571 4.581 4.701 4.881 5.041 5.201 5.271 5.151 4.971 4.651
1437.089 4.201 3.781 3.361 2.941 2.571 2.251 1.931 1.741 1.641 1.541
1456.378 1.491 1.431 1.371 1.3438 1.361 1.3432 1.3277 1.361 1.391 1.361
1475.668 1.361 1.411 1.411 1.401 1.361 1.3092 1.2392 1.1268 1.0636 1.0533
1494.958 0.9854 0.98 1.036 0.9773 0.9103 0.9513 1.0116 0.9437 0.9187 0.9788
1514.248 0.9554 0.9393 0.9822 1.0315 1.0408 1.0299 1.0204 0.9861 1.0249 1.0433
1533.538 1.0666 1.091 1.0752 1.0997 1.1426 1.2191 1.2372 1.3083 1.441 1.511
1552.827 1.581 1.721 1.821 1.991 2.281 2.481 2.641 2.881 3.161 3.461
1572.117 3.831 4.161 4.361 4.261 3.951 3.561 3.171 2.801 2.501 2.381
1591.407 2.341 2.401 2.591 2.891 3.301 3.821 4.431 5.151 5.921 6.551
1610.697 6.801 6.591 6.021 5.101 4.121 3.291 2.691 2.391 2.071 1.761
1629.986 1.611 1.601 1.571 1.441 1.411 1.441 1.451 1.511 1.541 1.551
1649.276 1.651 1.791 2.001 2.231 2.411 2.591 2.821 3.011 3.011 2.931
1668.566 2.931 3.011 3.051 3.151 3.401 3.801 4.391 5.121 6.151 7.581
1687.856 9.591 12.451 16.481 21.941 29.031 36.121 40.731 42.131 39.721 33.941
1707.146 26.461 19.561 14.281 10.581 7.881 5.931 4.591 3.741 3.191 2.821
1726.435 2.671 2.621 2.561 2.551 2.591 2.631 2.661 2.621 2.531 2.431
1745.725 2.351 2.221 2.091 1.931 1.741 1.631 1.541 1.431 1.3002 1.1982
1765.015 1.1419 1.0474 1.0143 1.055 0.9628 0.8916 0.9525 0.9594 0.919 0.8661
1784.305 0.845 0.8086 0.7607 0.7601 0.7994 0.8168 0.8153 0.8063 0.8582 0.8717
1803.594 0.8005 0.782 0.7431 0.7176 0.6944 0.6915 0.781 0.7965 0.7685 0.7779
1822.884 0.7305 0.7008 0.7411 0.759 0.7161 0.6563 0.6507 0.6782 0.7071 0.6669
1842.174 0.6174 0.6419 0.6435 0.6347 0.6263 0.6383 0.6335 0.6039 0.5908 0.6223
1861.464 0.6653 0.6521 0.6387 0.6631 0.731 0.7563 0.7225 0.7203 0.7612 0.7798
1880.754 0.7312 0.7432 0.7591 0.7087 0.6423 0.6737 0.7085 0.6585 0.6365 0.6213
1900.043 0.654 0.6478 0.6161 0.6542 0.6281 0.5741 0.5775 0.5874 0.5812 0.6027
1919.333 0.6075 0.5949 0.609 0.5968 0.603 0.5791 0.573 0.6054 0.5886 0.6164
1938.623 0.5861 0.5424 0.5596 0.5453 0.5345 0.4934 0.4638 0.5075 0.5255 0.5166
1957.913 0.5575 0.5476 0.5178 0.508 0.4896 0.4778 0.5211 0.5414 0.5474 0.5442
1977.202 0.5164 0.5082 0.4712 0.5069 0.5458 0.5092 0.4811 0.4638 0.42836 0.452
1996.492 0.4721 0.44752 0.4525 0.449 0.4639 0.464 0.43402 0.4922 0.5092 0.5189
2015.782 0.538 0.4788 0.4899 0.4848 0.43938 0.4545 0.4529 0.43819 0.4979 0.5288
2035.072 0.4709 0.4644 0.5124 0.43666 0.41222 0.5309 0.5376 0.4849 0.4641 0.4547
2054.362 0.44058 0.42764 0.4872 0.5107 0.4861 0.5015 0.4653 0.41414 0.40107 0.38199
2073.651 0.40309 0.43458 0.41433 0.41829 0.44739 0.4659 0.4565 0.43152 0.412 0.39151
2092.941 0.34772 0.37581 0.41934 0.40576 0.41864 0.40901 0.43504 0.4777 0.4794 0.4759
2112.231 0.4596 0.4198 0.44077 0.4756 0.4541 0.44608 0.43299 0.4782 0.5158 0.4595
2131.521 0.41002 0.39276 0.39982 0.39547 0.42852 0.40497 0.36614 0.36727 0.37324 0.39533
2150.810 0.44425 0.44367 0.3918 0.41936 0.42462 0.42647 0.44181 0.41092 0.38375 0.360301
2170.100 0.37097 0.34952 0.38852 0.4756 0.4282 0.355198 0.355767 0.38368 0.38895 0.44092
2189.390 0.4855 0.4699 0.40593 0.40978 0.44177 0.4731 0.4991 0.4685 0.4527 0.43094
2208.680 0.4426 0.486 0.4803 0.4953 0.4773 0.4809 0.5251 0.5057 0.4579 0.44175
2227.970 0.4595 0.39849 0.354591 0.44587 0.4936 0.4661 0.4662 0.41229 0.37025 0.41589
2247.259 0.4812 0.44302 0.4223 0.4735 0.4822 0.5064 0.42333 0.3195 0.40343 0.4917
2266.549 0.4655 0.4589 0.4678 0.4834 0.5105 0.472 0.41992 0.3996 0.43337 0.4948
2285.839 0.44338 0.39067 0.44002 0.4542 0.4542 0.4667 0.4617 0.5019 0.5617 0.5149
2305.129 0.4543 0.4686 0.4629 0.4545 0.38764 0.39578 0.43415 0.36994 0.39994 0.4528
2324.418 0.4584 0.4594 0.477 0.454 0.4525 0.44589 0.4791 0.5229 0.5021 0.4921
2343.708 0.4585 0.4746 0.41766 0.359274 0.41396 0.42044 0.3345 0.34643 0.37481 0.38303
2362.998 0.4155 0.40915 0.40616 0.42223 0.43573 0.4138 0.4526 0.44229 0.43963 0.4554
2382.288 0.43919 0.41725 0.36362 0.42002 0.4798 0.4915 0.42277 0.34374 0.38997 0.42853
2401.578 0.4597 0.42133 0.40421 0.42754 0.41226 0.42397 0.4645 0.4981 0.5208 0.5042
2420.867 0.44129 0.41649 0.42918 0.41383 0.38068 0.38887 0.44462 0.4917 0.44533 0.40666
2440.157 0.42599 0.40177 0.37785 0.4244 0.41616 0.3999 0.43245 0.4793 0.5393 0.4839
2459.447 0.42164 0.4703 0.5413 0.558 0.4854 0.39331 0.42238 0.491 0.4957 0.4661
2478.737 0.4726 0.4584 0.38065 0.39844 0.4692 0.42495 0.42824 0.5141 0.5131 0.4756
2498.026 0.4226 0.43082 0.5171 0.5347 0.5002 0.4894 0.44985 0.43688 0.4741 0.4677
2517.316 0.4873 0.5132 0.4596 0.45046 0.4835 0.5003 0.536 0.5184 0.4955 0.4959
2536.606 0.4808 0.44278 0.4912 0.5264 0.4696 0.475 0.4683 0.5239 0.5273 0.4804
2555.896 0.4901 0.4966 0.5068 0.4748 0.4959 0.5837 0.5946 0.5399 0.499 0.5017
2575.186 0.5288 0.5717 0.5998 0.5376 0.5167 0.5174 0.4681 0.44655 0.4618 0.5008
2594.475 0.495 0.43021 0.41676 0.40571 0.4603 0.5111 0.4571 0.40405 0.37844 0.44775
2613.765 0.504 0.5094 0.43913 0.37389 0.45072 0.4853 0.42177 0.37941 0.40671 0.4813
2633.055 0.4798 0.457 0.476 0.5341 0.501 0.44397 0.503 0.4849 0.42777 0.4639
2652.345 0.4812 0.4671 0.4592 0.44987 0.41921 0.39035 0.40346 0.42577 0.44939 0.44579
2671.634 0.4938 0.5383 0.5201 0.44283 0.37659 0.43708 0.4654 0.42212 0.4758 0.4579
2690.924 0.38475 0.4039 0.5527 0.5685 0.42198 0.40622 0.44239 0.44222 0.42602 0.4932
2710.214 0.5627 0.5198 0.5497 0.51 0.38203 0.41585 0.42881 0.40031 0.3719 0.36799
2729.504 0.357461 0.3045 0.39138 0.43837 0.34933 0.2981 0.37043 0.43394 0.4693 0.44863
2748.794 0.3196 0.353072 0.4274 0.4683 0.4691 0.4816 0.573 0.5011 0.350111 0.37647
2768.083 0.4684 0.4604 0.4586 0.4572 0.44067 0.39797 0.42846 0.4644 0.459 0.4818
2787.373 0.41653 0.43057 0.4688 0.4578 0.4776 0.5039 0.5389 0.5501 0.5699 0.5881
2806.663 0.5823 0.6181 0.5987 0.5863 0.5778 0.5005 0.5365 0.6262 0.5815 0.4932
2825.953 0.5188 0.5789 0.5577 0.5231 0.562 0.5713 0.505 0.4579 0.4597 0.5162
2845.242 0.5723 0.5275 0.538 0.5444 0.563 0.6564 0.6216 0.6187 0.5934 0.5907
2864.532 0.5864 0.5928 0.6534 0.6249 0.6509 0.6448 0.5726 0.5718 0.5617 0.6242
2883.822 0.6454 0.5698 0.6181 0.6541 0.7209 0.7293 0.676 0.7236 0.8361 0.9588
2903.112 0.9153 1.0618 1.391 1.451 1.411 1.361 1.501 1.611 1.571 1.611
2922.401 1.541 1.481 1.511 1.501 1.431 1.451 1.401 1.2884 1.1727 1.017
2941.691 0.9473 0.9071 0.8823 0.7961 0.68 0.7534 0.8294 0.7918 0.8418 0.9042
2960.981 0.9019 0.9195 1.016 0.9952 0.8902 0.8757 0.898 1.0349 1.151 1.1188
2980.271 1.09 0.9839 0.9882 0.9704 0.8677 0.9131 0.9195 0.9303 1.0319 1.1786
2999.561 1.2852 1.2739 1.391 1.621 1.771 1.941 2.121 2.281 2.361 2.281
3018.850 2.191 1.991 1.781 1.711 1.591 1.491 1.611 1.641 1.621 1.671
3038.140 1.711 1.741 1.701 1.651 1.601 1.511 1.531 1.521 1.521 1.571
3057.430 1.551 1.491 1.461 1.571 1.761 1.751 1.751 1.961 2.151 2.311
3076.720 2.321 2.251 2.191 2.091 1.831 1.561 1.441 1.32 1.3123 1.2865
3096.009 1.1285 1.1223 1.0569 0.9167 0.8599 0.8365 0.8152 0.7623 0.695 0.6325
3115.299 0.6241 0.5315 0.563 0.6302 0.557 0.6023 0.5327 0.5044 0.5956 0.5554
3134.589 0.4536 0.38544 0.38466 0.40134 0.4848 0.6058 0.4953 0.42451 0.39757 0.3286
3153.879 0.38441 0.38079 0.38404 0.44117 0.4837 0.43129 0.39601 0.4139 0.4937 0.5808
3173.169 0.5655 0.5648 0.5664 0.4881 0.43962 0.36984 0.2804 0.3106 0.34926 0.3321
3192.458 0.2684 0.19 0.2621 0.281 0.2827 0.34644 0.3038 0.3243 0.324 0.3383
3211.748 0.3332 0.2825 0.36269 0.38395 0.39867 0.4097 0.40188 0.35164 0.3184 0.324
3231.038 0.174 0.2719 0.41415 0.3028 0.2591 0.286 0.227 0.237 0.39247 0.36606
3250.328 0.3219 0.3103 0.2992 0.3844 0.34819 0.3374 0.357841 0.2914 0.19 0.164
3269.617 0.247 0.3073 0.42912 0.38182 0.3278 0.41611 0.4137 0.3998 0.39009 0.39718
3288.907 0.3362 0.37566 0.43657 0.36596 0.3063 0.2972 0.356782 0.350638 0.37976 0.4869
3308.197 0.5222 0.37144 0.3269 0.34378 0.3321 0.4539 0.4665 0.4952 0.469 0.2755
3327.487 0.2771 0.36405 0.39435 0.41814 0.34933 0.2895 0.36496 0.39466 0.40557 0.4731
3346.777 0.43591 0.4598 0.42956 0.34309 0.4593 0.44457 0.3219 0.39155 0.41 0.43515
3366.066 0.5131 0.6308 0.723 0.679 0.6782 0.7026 0.7669 0.7939 0.7726 0.8959
3385.356 1.1204 1.0993 0.8668 0.7168 0.6681 0.7126 0.7312 0.6101 0.5532 0.4958
3404.646 0.35325 0.34791 0.42395 0.41985 0.43242 0.42916 0.359837 0.4232 0.42596 0.3353
3423.936 0.2543 0.287 0.37108 0.39621 0.38838 0.39473 0.42212 0.333 0.2588 0.3447
3443.225 0.2629 0.185 0.36599 0.43858 0.38247 0.41955 0.40896 0.352367 0.313 0.3014
3462.515 0.2874 0.136 0.107 0.171 0.234 0.3235 0.358466 0.293 0.2814 0.2659
3481.805 0.3256 0.34297 0.2574 0.223 0.2865 0.44261 0.45023 0.355953 0.3034 0.3386
3501.095 0.251 0.134 0.125 0.2735 0.36442 0.2991 0.2595 0.35139 0.34423 0.208
3520.385 0.2647 0.355974 0.34255 0.2698 0.2896 0.2972 0.3145 0.3245 0.2887 0.2837
3539.674 0.38469 0.4896 0.34878 0.244 0.36515 0.4644 0.43295 0.38021 0.2951 0.188
3558.964 0.13 0.134 0.2966 0.34276 0.3142 0.3017 0.3079 0.43728 0.4699 0.3386
3578.254 0.34144 0.4674 0.41877 0.2765 0.213 0.44191 0.38529 0.3147 0.42019 0.34245
3597.544 0.223 0.2697 0.3047 0.207 0.3021 0.3123 0.247 0.3339 0.41184 0.3339
3616.833 0.3385 0.40805 0.4038 0.3318 0.3619 0.37179 0.2712 0.325 0.2992 0.2722
3636.123 0.352465 0.3097 0.221 0.3086 0.34693 0.216 0.167 0.221 0.3027 0.2829
3655.413 0.242 0.233 0.245 0.3209 0.3308 0.318 0.37856 0.4026 0.3179 0.2984
3674.703 0.3661 0.2845 0.3393 0.2618 0.069 0.179 0.168 0.151 0.239 0.2807
3693.993 0.232 0.221 0.211 0.1 0.2573 0.34987 0.2 0.165 0.195 0.232
3713.282 0.214 0.101 0.167 0.3342 0.3184 0.360593 0.3185 0.2579 0.41495 0.4225
3732.572 0.4623 0.5315 0.4625 0.39289 0.2732 0.235 0.177 0.226 0.219 0.132
3751.862 0.3107 0.35684 0.3039 0.3764 0.37114 0.3026 0.2574 0.249 0.3381 0.3002
3771.152 0.22 0.232 0.36514 0.38845 0.36264 0.360084 0.231 0.18 0.179 0.2765
3790.441 0.3164 0.276 0.37331 0.44633 0.3206 0.2627 0.156 0.157 0.203 0.14
3809.731 0.3158 0.352958 0.358414 0.44517 0.3278 0.357988 0.40594 0.3061 0.3224 0.37713
3829.021 0.335 0.3117 0.34706 0.36545 0.2685 0.2887 0.3725 0.238 0.213 0.2987
3848.311 0.3249 0.145 0 0.106 0.206 0.2844 0.2601 0.2796 0.335 0.231
3867.601 0.171 0.189 0.175 0.134 0.231 0.36412 0.36415 0.2792 0.184 0.137
3886.890 0.04 0.158 0.4573 0.34757 0.175 0.143 0.056 0.125 0.358356 0.471
3906.180 0.3814 0.2651 0.215 0.198 0.233 0.3038 0.233 0.177 0.2612 0.3088
3925.470 0.2978 0.3365 0.3394 0.244 0.2705 0.37273 0.4417 0.2992 0.239 0.34509
3944.760 0.3382 0.3246 0.3215 0.277 0.2903 0.44206 0.39587 0.216 0.115 0.206
3964.049 0.38204 0.2952 0.154 0.223 0.197 0.118 0.172 0.2678 0.2819 0.3099
3983.339 0.35573 0.268 0.226 0.185 0.234 0.3063 0.312 0.2983 0.218 0.36597
##END=
