##TITLE=2-Methyl-1-phenyl-1-butanol
##JCAMP-DX=4.24
##DATA TYPE=INFRARED SPECTRUM
##ORIGIN=NIST Mass Spectrometry Data Center
##OWNER=NIST Standard Reference Data Program
Collection (C) 2018 copyright by the U.S. Secretary of Commerce
on behalf of the United States of America. All rights reserved.
##CAS REGISTRY NO=3968-86-3
##MOLFORM=C 11 H 16 O
##$NIST SOURCE=MSDC-IR
##SPECTROMETER/DATA SYSTEM=HP-GC/MS/IRD
##STATE=gas
##XUNITS=1/CM
##YUNITS=ABSORBANCE
##XFACTOR=1.0
##YFACTOR=0.000002200
##DELTAX=4.0
##FIRSTX=550.0
##LASTX=3846.0
##FIRSTY=0.001313
##MAXX=3846
##MINX=550
##MAXY=0.022
##MINY=0
##NPOINTS=825
##XYDATA=(X++(Y..Y))
550.0 597 418 232 148 157 124 47 45 46 42
590.0 34 21 3 68 125 166 245 292 384 489
630.0 532 483 413 400 418 487 610 674 686 737
670.0 762 800 918 1245 1935 2991 4159 4962 5073 4423
710.0 3361 2445 1903 1714 1732 1833 1931 2001 2051 2113
750.0 2195 2260 2188 1950 1612 1259 957 738 585 454
790.0 391 373 367 357 348 366 364 371 397 410
830.0 407 379 342 303 268 218 162 149 144 147
870.0 149 158 183 204 245 311 435 580 667 752
910.0 785 713 635 530 440 413 382 382 430 532
950.0 674 840 1022 1221 1403 1535 1661 1812 2004 2268
990.0 2607 2992 3378 3684 3881 3961 3959 3958 3990 3992
1030.0 3907 3691 3315 2819 2267 1757 1365 1133 1015 969
1070.0 974 981 929 861 800 746 758 787 800 819
1110.0 829 849 875 888 885 878 839 784 770 804
1150.0 890 1010 1096 1161 1176 1155 1182 1204 1185 1166
1190.0 1143 1148 1187 1210 1233 1266 1300 1351 1398 1407
1230.0 1385 1326 1248 1178 1117 1094 1108 1147 1220 1311
1270.0 1418 1513 1578 1593 1568 1532 1518 1490 1458 1434
1310.0 1393 1349 1311 1270 1214 1152 1106 1071 1065 1090
1350.0 1131 1187 1269 1391 1551 1748 1957 2139 2208 2099
1390.0 1831 1483 1158 911 762 665 601 581 578 587
1430.0 623 727 938 1237 1599 1977 2268 2374 2325 2157
1470.0 1894 1616 1395 1274 1272 1316 1277 1105 841 580
1510.0 392 290 246 230 220 213 208 211 207 186
1550.0 156 136 136 118 114 131 140 169 212 260
1590.0 325 409 486 495 428 317 206 132 102 94
1630.0 82 73 73 71 69 78 85 79 74 66
1670.0 71 66 61 60 44 44 43 37 34 29
1710.0 28 27 27 29 39 58 69 65 70 89
1750.0 91 77 62 52 49 43 54 61 72 111
1790.0 152 195 231 239 215 172 120 85 65 47
1830.0 36 17 12 14 21 34 44 63 90 119
1870.0 145 160 157 157 156 137 109 87 72 51
1910.0 38 34 43 59 90 137 174 207 237 248
1950.0 231 212 193 145 84 45 34 26 19 19
1990.0 9 11 19 20 21 23 19 19 23 19
2030.0 14 10 11 8 8 13 8 3 4 11
2070.0 10 5 13 18 15 8 6 10 4 12
2110.0 23 14 15 10 2 2 5 4 9 10
2150.0 2 1 2 7 13 13 13 10 19 18
2190.0 0 12 22 14 19 18 17 20 16 16
2230.0 17 14 14 18 14 3 12 18 18 19
2270.0 15 15 14 17 25 29 30 30 33 53
2310.0 64 62 58 45 42 43 51 57 53 61
2350.0 66 48 36 42 44 46 47 46 49 52
2390.0 52 42 40 53 59 58 63 60 59 66
2430.0 57 50 52 53 52 49 54 47 31 36
2470.0 34 39 36 30 35 38 44 48 40 38
2510.0 47 47 47 47 42 47 53 66 80 77
2550.0 65 68 90 92 93 97 105 117 123 132
2590.0 132 130 133 128 128 135 129 130 140 139
2630.0 139 144 131 125 128 126 134 144 144 144
2670.0 152 157 167 175 179 183 179 172 173 181
2710.0 190 191 189 201 230 247 245 261 283 297
2750.0 294 276 270 270 278 281 290 315 317 336
2790.0 365 384 412 447 478 497 525 572 619 668
2830.0 746 844 953 1069 1230 1462 1775 2187 2683 3247
2870.0 3842 4474 5117 5657 5994 6091 5901 5533 5180 4916
2910.0 4773 4748 4866 5107 5404 5731 6029 6205 6160 5932
2950.0 5743 5850 6546 7817 9172 10000 9862 8715 7005 5269
2990.0 3813 2803 2173 1812 1607 1532 1589 1773 2110 2527
3030.0 2884 3055 2951 2634 2295 2046 1980 2161 2561 3037
3070.0 3330 3333 3043 2586 2220 1948 1695 1451 1185 976
3110.0 816 664 544 460 402 369 339 316 297 273
3150.0 270 273 267 263 255 236 221 212 189 176
3190.0 171 159 139 142 128 108 92 87 92 87
3230.0 80 59 51 71 72 53 49 49 56 66
3270.0 56 67 76 59 53 50 53 52 53 70
3310.0 73 71 65 62 54 53 67 78 88 77
3350.0 70 76 64 60 71 58 66 81 68 66
3390.0 80 61 47 68 76 74 86 79 73 84
3430.0 87 70 45 59 60 53 69 64 62 62
3470.0 62 61 58 56 44 42 66 78 64 42
3510.0 50 65 40 23 31 47 28 46 42 16
3550.0 43 50 37 20 9 2 20 48 50 46
3590.0 48 52 57 78 104 126 139 145 192 270
3630.0 410 630 936 1275 1484 1554 1441 1184 910 668
3670.0 471 337 236 193 181 159 128 93 87 84
3710.0 70 78 69 47 32 26 33 21 6 10
3750.0 11 11 24 41 38 23 41 50 52 47
3790.0 45 27 0 17 35 28 27 43 37 27
3830.0 35 26 19 31 44
##END=
