##TITLE=(2-Methylbutyl)benzene
##JCAMP-DX=4.24
##DATA TYPE=INFRARED SPECTRUM
##ORIGIN=NIST Mass Spectrometry Data Center
##OWNER=NIST Standard Reference Data Program
Collection (C) 2018 copyright by the U.S. Secretary of Commerce
on behalf of the United States of America. All rights reserved.
##CAS REGISTRY NO=3968-85-2
##MOLFORM=C 11 H 16
##$NIST SOURCE=MSDC-IR
##SPECTROMETER/DATA SYSTEM=HP-GC/MS/IRD
##STATE=gas
##XUNITS=1/CM
##YUNITS=ABSORBANCE
##XFACTOR=1.0
##YFACTOR=0.000003000
##DELTAX=4.0
##FIRSTX=550.0
##LASTX=3846.0
##FIRSTY=0.000072
##MAXX=3846
##MINX=550
##MAXY=0.03
##MINY=0
##NPOINTS=825
##XYDATA=(X++(Y..Y))
550.0 24 34 22 18 11 31 74 108 155 205
590.0 242 237 225 234 214 163 131 109 100 83
630.0 88 92 109 121 118 159 200 228 271 339
670.0 435 596 888 1320 1926 2671 3349 3676 3499 2981
710.0 2474 2235 2299 2628 3040 3275 3173 2722 2089 1476
750.0 1041 786 639 576 548 501 438 373 310 250
790.0 198 176 157 145 149 121 131 159 189 197
830.0 148 129 113 95 77 74 80 72 70 76
870.0 80 83 88 93 117 166 198 222 240 246
910.0 230 196 161 124 114 119 122 111 101 104
950.0 103 123 171 224 259 276 279 271 256 240
990.0 238 237 235 251 286 330 382 461 594 694
1030.0 681 602 471 333 283 304 348 388 391 369
1070.0 331 289 262 260 279 306 327 331 326 311
1110.0 287 268 236 207 197 178 181 211 254 306
1150.0 339 339 297 236 181 147 127 123 119 111
1190.0 124 152 173 170 152 144 148 141 123 114
1230.0 123 134 130 131 136 144 151 157 167 176
1270.0 196 212 214 224 238 244 248 255 264 270
1310.0 264 258 257 257 257 271 292 312 367 426
1350.0 463 485 493 512 585 729 932 1121 1220 1187
1390.0 1017 782 563 424 349 324 319 327 362 417
1430.0 494 610 803 1060 1343 1623 1842 1968 1983 1864
1470.0 1648 1413 1242 1202 1323 1526 1630 1542 1298 926
1510.0 565 374 286 242 223 216 206 198 189 173
1550.0 161 170 185 197 218 245 287 353 441 544
1590.0 658 776 864 884 815 680 510 344 233 174
1630.0 153 144 131 124 115 113 115 107 100 94
1670.0 86 82 77 73 75 76 77 76 72 71
1710.0 68 63 64 75 87 95 104 112 110 101
1750.0 89 77 75 73 72 79 90 109 142 184
1790.0 217 236 235 199 147 118 105 86 69 61
1830.0 56 55 60 70 85 96 110 133 150 156
1870.0 164 165 157 142 121 106 86 69 65 57
1910.0 60 73 89 116 154 192 213 223 231 227
1950.0 200 165 124 78 47 36 24 19 22 20
1990.0 19 14 10 15 18 14 6 6 9 7
2030.0 8 11 9 4 4 5 5 5 0 2
2070.0 4 8 16 15 12 13 16 10 8 12
2110.0 7 4 8 8 8 6 7 7 6 13
2150.0 16 16 16 13 12 11 12 13 14 11
2190.0 9 9 17 19 13 14 15 15 12 14
2230.0 18 17 16 14 14 20 21 20 23 24
2270.0 18 15 15 19 24 23 22 31 36 43
2310.0 53 49 43 39 33 34 44 44 42 46
2350.0 48 46 46 52 53 50 45 45 43 39
2390.0 47 56 48 45 48 49 44 43 48 45
2430.0 42 44 43 40 44 46 42 41 41 41
2470.0 42 43 44 41 36 33 37 41 43 40
2510.0 47 51 47 51 51 52 59 54 55 64
2550.0 71 72 63 70 82 85 89 94 105 111
2590.0 115 119 119 121 125 126 121 116 118 122
2630.0 123 119 117 117 114 112 110 115 122 126
2670.0 124 125 130 135 139 138 136 135 140 146
2710.0 149 155 165 179 195 203 214 229 239 241
2750.0 242 244 236 232 236 246 254 270 289 304
2790.0 323 343 366 388 412 438 473 518 577 649
2830.0 723 834 990 1193 1456 1775 2140 2518 2854 3171
2870.0 3516 3909 4330 4650 4758 4683 4501 4396 4525 4944
2910.0 5611 6420 7203 7807 8137 8171 7941 7488 6908 6421
2950.0 6256 6577 7426 8596 9648 10000 9246 7607 5616 3821
2990.0 2622 1990 1677 1529 1492 1556 1747 2085 2574 3105
3030.0 3482 3549 3275 2751 2216 1904 1875 2119 2583 3002
3070.0 3169 3100 2785 2340 1989 1762 1537 1296 1084 912
3110.0 766 641 524 434 365 312 275 261 247 229
3150.0 227 234 236 227 226 219 201 181 173 169
3190.0 153 143 138 135 120 103 100 92 92 93
3230.0 89 81 80 81 80 74 60 61 58 53
3270.0 61 59 55 59 56 49 52 63 71 63
3310.0 48 46 51 59 62 56 54 59 66 63
3350.0 57 45 45 51 40 45 54 53 52 45
3390.0 43 46 45 47 44 39 37 38 46 38
3430.0 35 41 43 41 39 40 32 29 33 38
3470.0 44 37 26 26 29 35 34 30 34 45
3510.0 46 39 33 21 20 19 27 24 18 26
3550.0 38 45 29 13 15 30 33 29 32 24
3590.0 23 33 36 33 26 34 39 32 34 37
3630.0 48 46 40 43 42 51 61 61 62 63
3670.0 67 61 48 55 62 58 55 54 55 62
3710.0 63 58 55 46 39 47 56 59 63 57
3750.0 52 58 66 63 54 62 59 51 52 52
3790.0 52 61 66 60 65 66 63 62 56 53
3830.0 52 61 60 63 66
##END=
