##TITLE=p-Butoxybenzylidene p-heptylaniline
##JCAMP-DX=4.24
##DATA TYPE=INFRARED SPECTRUM
##ORIGIN=EPA-IR VAPOR PHASE LIBRARY
##OWNER=SRD/NIST
Collection (C) 2018 copyright by the U.S. Secretary of Commerce
on behalf of the United States of America. All rights reserved.
##CAS REGISTRY NO=39777-19-0
##MOLFORM=C 24 H 33 N O
##$NIST SOURCE=MSDC-IR
##STATE=gas
##XUNITS=1/CM
##YUNITS=ABSORBANCE
##XFACTOR=1.
##YFACTOR=0.001
##DELTAX=1.92898
##FIRSTX=549.8
##LASTX=4000.7
##FIRSTY=3.729
##MAXX=4000.7
##MINX=549.759
##MAXY=0.056709
##MINY=0
##NPOINTS=1790
##XYDATA=(X++(Y..Y))
549.759 3.729 3.659 3.789 3.949 4.009 3.979 3.729 3.599 3.349 3.149
569.049 2.899 2.629 2.549 2.149 1.769 1.559 1.449 1.289 1.249 1.329
588.339 1.199 1.159 1.389 1.659 1.799 1.889 1.839 1.799 1.759 1.899
607.628 2.239 2.339 2.339 2.359 2.279 2.149 2.109 1.979 1.609 1.499
626.918 1.479 1.319 1.279 1.319 1.309 1.169 1.0448 0.9824 0.9042 0.8821
646.208 0.8678 0.7001 0.6611 0.639 0.4516 0.4365 0.381 0.3571 0.4059 0.4092
665.498 0.5102 0.4561 0.467 0.5252 0.3422 0.4495 0.5465 0.5302 0.6337 0.5538
684.787 0.4458 0.531 0.6558 0.6651 0.662 0.7141 0.8476 0.8973 0.8805 0.9633
704.077 1.149 1.259 1.319 1.499 1.729 1.689 1.699 1.849 1.739 1.529
723.367 1.529 1.579 1.439 1.429 1.429 1.289 1.209 1.229 1.259 1.379
742.657 1.429 1.379 1.389 1.339 1.299 1.239 1.299 1.459 1.479 1.409
761.947 1.409 1.449 1.419 1.519 1.599 1.689 1.689 1.669 1.709 1.679
781.236 1.779 1.869 1.929 2.149 2.259 2.189 2.369 2.699 2.939 3.169
800.526 3.429 3.729 4.109 4.209 4.329 4.779 5.139 5.329 5.739 6.269
819.816 6.699 7.339 8.149 8.919 9.609 10.219 10.689 10.829 10.869 10.639
839.106 10.109 9.539 8.869 8.099 7.189 6.359 5.719 5.169 4.659 4.299
858.395 4.219 4.069 3.939 3.869 3.989 4.239 4.349 4.779 5.129 5.469
877.685 6.169 6.959 7.779 8.589 9.079 9.029 8.459 7.379 6.259 5.269
896.975 4.359 3.679 3.239 3.009 2.779 2.499 2.359 2.209 1.969 1.839
916.265 1.879 1.809 1.699 1.649 1.609 1.629 1.569 1.619 1.819 1.929
935.555 1.899 1.809 1.779 1.859 1.919 2.049 2.249 2.299 2.399 2.699
954.844 2.959 3.129 3.399 3.699 3.979 4.289 4.499 4.779 5.129 5.309
974.134 5.319 5.219 5.009 4.549 4.289 4.149 3.819 3.559 3.599 3.789
993.424 3.819 3.929 4.199 4.549 5.009 5.569 6.099 6.949 8.029 8.889
1012.714 9.759 10.489 10.319 9.689 9.239 8.909 8.989 8.939 8.589 8.209
1032.003 7.849 7.509 7.009 6.439 6.019 5.659 5.159 4.699 4.229 3.969
1051.293 4.059 4.099 4.239 4.299 4.599 5.159 5.489 5.559 5.669 5.819
1070.583 5.959 5.699 4.999 4.649 4.129 3.759 3.509 3.399 3.449 3.429
1089.873 3.489 3.659 3.699 3.529 3.599 4.039 4.739 5.079 5.149 5.229
1109.163 5.189 4.829 4.419 4.379 4.389 4.249 3.679 3.519 3.449 3.129
1128.452 3.419 3.669 3.559 3.399 3.629 3.929 4.119 4.469 4.669 5.399
1147.742 6.399 7.519 9.479 12.119 16.359 23.539 34.729 47.979 56.709 55.109
1167.032 44.369 31.439 21.389 15.029 11.279 8.849 7.409 6.879 6.949 7.579
1186.322 8.809 10.479 11.809 12.609 12.749 12.499 12.169 11.719 11.689 11.889
1205.611 12.279 12.999 14.289 15.889 17.629 19.409 20.729 21.869 23.189 24.429
1224.901 25.199 26.309 27.809 29.469 31.759 34.339 37.099 40.139 43.029 45.179
1244.191 46.639 47.109 46.199 44.169 40.989 37.149 32.979 28.699 24.819 21.509
1263.481 18.759 16.389 14.619 13.329 12.209 11.479 10.899 10.489 10.379 10.509
1282.771 10.749 11.079 11.569 12.049 12.469 12.869 13.399 14.109 15.079 16.129
1302.060 16.649 16.319 15.249 13.809 12.339 10.939 9.559 8.369 7.489 6.769
1321.350 6.189 5.799 5.469 5.229 5.099 4.979 4.869 4.849 4.859 4.819
1340.640 4.779 4.739 4.769 4.769 4.709 4.629 4.539 4.479 4.389 4.349
1359.930 4.339 4.329 4.319 4.349 4.389 4.379 4.369 4.429 4.519 4.709
1379.219 5.009 5.339 5.699 5.979 6.079 6.029 5.759 5.369 4.909 4.459
1398.509 4.139 3.909 3.699 3.599 3.669 3.839 4.149 4.729 5.449 6.319
1417.799 7.139 7.419 6.969 6.019 5.009 4.259 3.849 3.699 3.689 3.839
1437.089 4.039 4.209 4.429 4.659 4.959 5.289 5.599 5.909 6.249 6.589
1456.378 6.969 7.339 7.719 8.169 8.689 9.289 9.959 10.689 11.359 11.659
1475.668 11.429 10.809 9.919 9.009 8.349 8.109 8.229 8.679 9.479 10.659
1494.958 12.349 14.739 17.949 22.359 28.379 36.049 44.919 52.379 54.699 50.059
1514.248 40.509 30.259 22.149 16.719 13.049 10.619 8.869 7.519 6.499 5.749
1533.538 5.169 4.729 4.389 4.109 3.999 3.969 3.909 3.849 3.899 3.989
1552.827 4.109 4.319 4.579 5.009 5.599 6.269 7.259 8.599 10.339 12.519
1572.117 14.809 16.739 17.489 16.659 14.969 13.609 13.459 14.569 16.819 20.129
1591.407 24.429 29.559 35.019 39.809 42.829 43.319 41.259 37.409 32.749 27.949
1610.697 23.409 19.549 16.569 14.539 13.559 13.479 14.249 15.999 18.659 21.969
1629.986 25.179 26.969 26.279 23.229 19.159 15.389 12.379 10.149 8.509 7.309
1649.276 6.389 5.689 5.089 4.629 4.259 3.929 3.639 3.419 3.239 3.049
1668.566 2.869 2.709 2.529 2.379 2.299 2.189 2.019 1.919 1.849 1.789
1687.856 1.709 1.589 1.549 1.499 1.399 1.389 1.429 1.379 1.309 1.289
1707.146 1.289 1.239 1.209 1.219 1.219 1.229 1.199 1.159 1.159 1.169
1726.435 1.129 1.129 1.119 1.129 1.129 1.0695 1.0716 1.119 1.139 1.129
1745.725 1.1 1.1032 1.129 1.179 1.249 1.299 1.319 1.319 1.349 1.449
1765.015 1.489 1.509 1.489 1.409 1.329 1.219 1.0745 1.0069 1.0027 0.9658
1784.305 0.9598 0.927 0.8425 0.8484 0.8787 0.8409 0.8077 0.7799 0.781 0.7634
1803.594 0.7338 0.7108 0.6888 0.6837 0.675 0.6421 0.6307 0.6587 0.6594 0.645
1822.884 0.6121 0.5883 0.5765 0.594 0.6327 0.6372 0.6207 0.6287 0.6652 0.6785
1842.174 0.7001 0.7049 0.7496 0.8189 0.814 0.7863 0.7483 0.6964 0.7255 0.8019
1861.464 0.8463 0.838 0.8491 0.8981 0.9195 0.9276 0.9111 0.9143 1.0024 1.129
1880.754 1.209 1.289 1.329 1.319 1.379 1.359 1.319 1.239 1.159 1.109
1900.043 1.0108 0.9722 0.9298 0.9137 0.9035 0.8648 0.8151 0.8166 0.8695 0.8948
1919.333 0.8738 0.8503 0.8725 0.9001 0.9166 1.0043 1.0445 1.0224 1.0384 1.0318
1938.623 0.9573 0.9025 0.9057 0.8915 0.8923 0.8492 0.7734 0.7608 0.8137 0.8228
1957.913 0.7552 0.7365 0.7401 0.7439 0.7497 0.7939 0.8523 0.8531 0.8263 0.7893
1977.202 0.7713 0.798 0.7993 0.8074 0.8645 0.8615 0.806 0.8011 0.8237 0.8143
1996.492 0.8311 0.9047 0.9488 0.9538 0.9425 0.9749 1.0142 1.0156 1.0218 1.0524
2015.782 1.0828 1.0956 1.102 1.0544 1.031 1.0439 1.0265 1.0301 1.0509 1.053
2035.072 1.0644 1.0611 1.0339 1.0456 1.0695 1.0678 1.0805 1.0953 1.0983 1.088
2054.362 1.057 1.003 0.929 0.8992 0.9005 0.9122 0.934 0.9073 0.8842 0.8462
2073.651 0.791 0.8321 0.8513 0.7872 0.7978 0.8365 0.8692 0.8553 0.7347 0.6964
2092.941 0.7229 0.6919 0.6642 0.6631 0.6207 0.5908 0.59 0.563 0.571 0.5927
2112.231 0.5705 0.5499 0.539 0.5344 0.5097 0.5627 0.6336 0.5854 0.5801 0.5923
2131.521 0.5369 0.5094 0.5031 0.5126 0.4971 0.5018 0.48 0.4389 0.4688 0.4624
2150.810 0.4274 0.4187 0.4557 0.4567 0.4373 0.4233 0.4291 0.4686 0.4984 0.5074
2170.100 0.4889 0.4316 0.3867 0.4197 0.4468 0.4713 0.483 0.4637 0.4805 0.5059
2189.390 0.4824 0.4499 0.426 0.436 0.4495 0.4052 0.4308 0.4574 0.4336 0.4737
2208.680 0.4729 0.4463 0.4761 0.4821 0.4435 0.4018 0.347 0.3588 0.4289 0.4129
2227.970 0.3782 0.3898 0.3752 0.3719 0.4482 0.4861 0.473 0.4618 0.4422 0.4707
2247.259 0.4779 0.4284 0.4134 0.4456 0.5179 0.4874 0.4656 0.4943 0.4958 0.521
2266.549 0.4952 0.4852 0.5233 0.5514 0.565 0.5604 0.5702 0.5544 0.4959 0.4964
2285.839 0.5444 0.5466 0.522 0.5486 0.5598 0.5436 0.5775 0.6208 0.5504 0.4727
2305.129 0.4948 0.504 0.5242 0.5632 0.5837 0.5644 0.5686 0.6408 0.6688 0.6148
2324.418 0.5837 0.5843 0.5646 0.539 0.6023 0.6339 0.5804 0.5392 0.5133 0.5604
2343.708 0.5855 0.556 0.5753 0.6052 0.6164 0.6535 0.6245 0.5884 0.6214 0.6301
2362.998 0.5989 0.6016 0.627 0.6286 0.6512 0.6734 0.6806 0.6815 0.7068 0.7226
2382.288 0.6773 0.7086 0.7446 0.705 0.6959 0.7286 0.8102 0.8114 0.7169 0.7136
2401.578 0.7679 0.7488 0.7468 0.7345 0.7045 0.7117 0.718 0.6979 0.6655 0.6867
2420.867 0.693 0.6989 0.7183 0.7111 0.7144 0.7136 0.7123 0.7098 0.6685 0.637
2440.157 0.6415 0.6789 0.7167 0.7255 0.7928 0.8248 0.7612 0.7872 0.8603 0.8533
2459.447 0.8173 0.7949 0.8276 0.852 0.8645 0.8429 0.8441 0.8701 0.8429 0.8599
2478.737 0.9242 0.9862 0.9543 0.877 0.8404 0.854 0.8962 0.8459 0.8127 0.8811
2498.026 0.9026 0.8672 0.8187 0.8491 0.9098 0.9442 0.9312 0.899 0.8766 0.8669
2517.316 0.901 0.9457 1.0088 0.9473 0.8797 0.8989 0.9232 0.9736 1.0139 1.0602
2536.606 1.0712 1.0986 1.149 1.129 1.119 1.1084 1.0896 1.0686 1.079 1.0607
2555.896 1.0159 0.9948 0.9818 1.0287 1.0584 1.0321 0.9809 0.9765 0.9791 0.9717
2575.186 1.0032 1.0382 0.9964 0.9437 0.9506 0.9311 0.879 0.9065 0.8912 0.8634
2594.475 0.9022 0.8584 0.8256 0.835 0.8533 0.8672 0.8182 0.7866 0.8282 0.8645
2613.765 0.8595 0.8337 0.7621 0.7549 0.7623 0.7408 0.7523 0.7743 0.7939 0.7409
2633.055 0.6764 0.7747 0.8806 0.8024 0.772 0.8372 0.8275 0.7908 0.8007 0.8088
2652.345 0.8457 0.9048 0.8702 0.8476 0.9054 0.9398 0.9728 0.9687 0.9648 0.9254
2671.634 0.9202 0.9143 0.8917 0.8817 0.9117 0.9426 0.9137 0.9425 0.9347 0.9186
2690.924 0.9452 0.9211 0.9218 0.9812 1.0135 1.0124 0.961 0.9464 0.9649 0.9562
2710.214 0.9785 1.0143 0.996 1.0233 1.119 1.149 1.169 1.239 1.239 1.199
2729.504 1.229 1.249 1.239 1.229 1.319 1.459 1.489 1.549 1.569 1.519
2748.794 1.569 1.599 1.619 1.619 1.559 1.549 1.549 1.559 1.579 1.559
2768.083 1.609 1.649 1.659 1.669 1.619 1.609 1.639 1.679 1.739 1.769
2787.373 1.779 1.849 1.879 1.889 1.989 2.049 2.059 2.169 2.289 2.319
2806.663 2.329 2.429 2.589 2.669 2.719 2.839 3.029 3.169 3.349 3.529
2825.953 3.729 3.929 4.179 4.429 4.719 5.159 5.599 6.099 6.769 7.579
2845.242 8.439 9.399 10.619 12.139 13.799 15.639 17.539 19.289 20.689 21.679
2864.532 22.219 22.249 21.949 21.379 20.799 20.399 20.089 19.989 19.969 19.869
2883.822 19.739 19.399 18.729 17.959 17.259 16.819 16.659 16.699 16.909 17.359
2903.112 18.059 18.939 20.019 21.299 22.679 24.179 25.929 27.929 30.019 32.369
2922.401 35.159 38.179 41.499 44.979 48.059 50.409 51.559 51.429 50.269 48.199
2941.691 45.699 42.869 39.689 36.419 33.449 31.079 29.459 28.659 28.529 28.749
2960.981 29.389 30.309 31.089 31.489 31.199 30.079 28.179 25.569 22.659 19.839
2980.271 17.319 15.189 13.509 12.089 10.939 10.039 9.169 8.529 8.049 7.669
2999.561 7.419 7.029 6.689 6.519 6.319 6.099 6.049 6.039 6.129 6.419
3018.850 6.879 7.549 8.359 9.319 10.009 10.039 9.509 8.779 8.029 7.429
3038.140 6.849 6.149 5.529 5.029 4.719 4.519 4.379 4.269 4.169 4.139
3057.430 4.099 4.079 4.119 4.109 4.169 4.409 4.749 5.129 5.359 5.509
3076.720 5.529 5.229 4.809 4.459 4.109 3.819 3.639 3.379 3.229 3.099
3096.009 2.859 2.709 2.559 2.459 2.389 2.259 2.139 2.089 2.029 1.959
3115.299 1.889 1.749 1.639 1.539 1.389 1.299 1.199 1.109 1.129 1.109
3134.589 0.98 0.9268 0.9027 0.8935 0.8437 0.8123 0.984 0.9274 0.7841 0.8299
3153.879 0.742 0.6526 0.7372 0.727 0.743 0.7218 0.6126 0.6576 0.6169 0.6278
3173.169 0.7554 0.6914 0.627 0.5989 0.6406 0.6848 0.663 0.7295 0.7019 0.6332
3192.458 0.686 0.6335 0.6341 0.7228 0.7144 0.6913 0.7486 0.7494 0.6648 0.6576
3211.748 0.6468 0.5827 0.4835 0.5019 0.588 0.6179 0.6404 0.6218 0.5231 0.4922
3231.038 0.534 0.6477 0.6626 0.6384 0.6303 0.5249 0.5848 0.6877 0.6855 0.6677
3250.328 0.6511 0.6858 0.7494 0.6871 0.6599 0.6177 0.5959 0.5069 0.3547 0.41
3269.617 0.4794 0.4349 0.3511 0.2609 0.2647 0.4114 0.4257 0.3844 0.3927 0.4104
3288.907 0.4446 0.3918 0.3021 0.3185 0.3209 0.2523 0.2556 0.3328 0.3931 0.3291
3308.197 0.2894 0.3292 0.3954 0.4561 0.4087 0.3171 0.19316 0.15225 0.20248 0.2429
3327.487 0.2731 0.3437 0.4203 0.4025 0.4037 0.423 0.3301 0.3122 0.3497 0.326
3346.777 0.3612 0.3471 0.2334 0.12542 0.13821 0.17684 0.18074 0.2945 0.3608 0.2989
3366.066 0.248 0.2978 0.2143 0.0494 0.13265 0.2343 0.2476 0.2575 0.3203 0.3317
3385.356 0.3383 0.2988 0.2783 0.3342 0.2264 0.2573 0.3056 0.2284 0.2157 0.2305
3404.646 0.2878 0.2921 0.2221 0.17341 0.0987 0.0621 0.19583 0.2962 0.16425 0.0126
3423.936 0.0317 0.12372 0.137 0.12517 0.13956 0.12001 0.19903 0.2512 0.13634 0.19385
3443.225 0.2419 0.19421 0.19933 0.2709 0.3454 0.2706 0.19744 0.20591 0.219 0.1664
3462.515 0.14653 0.17294 0.2513 0.2447 0.18384 0.18655 0.291 0.3185 0.2751 0.3052
3481.805 0.2303 0.18799 0.18889 0.19329 0.19928 0.2417 0.3591 0.3347 0.14241 0.0506
3501.095 0.12387 0.2339 0.2165 0.13015 0.10319 0.13722 0.19576 0.19957 0.2216 0.18463
3520.385 0.2219 0.3278 0.254 0.182 0.19712 0.115116 0.10516 0.2631 0.16752 0.0881
3539.674 0.10766 0.0399 0.093 0.2248 0.2654 0.19444 0.2423 0.2831 0.16704 0.15791
3558.964 0.17004 0.13468 0.14663 0.14052 0.1746 0.2156 0.2535 0.2224 0.18778 0.20241
3578.254 0.15495 0.15325 0.19292 0.19791 0.19466 0.2329 0.201 0.111424 0.16865 0.263
3597.544 0.2263 0.17948 0.2131 0.3028 0.2942 0.2426 0.20012 0.14264 0.15609 0.18716
3616.833 0.2589 0.16611 0.0754 0.17995 0.19879 0.2777 0.3167 0.20046 0.1449 0.2642
3636.123 0.3064 0.263 0.3802 0.4612 0.3576 0.2619 0.20503 0.20676 0.242 0.2196
3655.413 0.2914 0.3298 0.3006 0.335 0.2766 0.14116 0.2126 0.2532 0.2972 0.3056
3674.703 0.2558 0.292 0.3301 0.356 0.2237 0.17165 0.2358 0.13089 0.0778 0.17646
3693.993 0.2853 0.2988 0.2395 0.2187 0.2469 0.3236 0.3179 0.2324 0.2126 0.2414
3713.282 0.292 0.2855 0.2032 0.2258 0.2222 0.18132 0.2959 0.3821 0.3241 0.2447
3732.572 0.2423 0.34 0.3204 0.3106 0.2812 0.2137 0.2374 0.2508 0.3627 0.4282
3751.862 0.3723 0.2341 0.3662 0.4459 0.2459 0.13719 0.16075 0.19486 0.0167 0
3771.152 0.14649 0.2566 0.3128 0.2917 0.2156 0.116332 0.14903 0.20605 0.2482 0.2771
3790.441 0.2823 0.3143 0.3576 0.4085 0.4119 0.3288 0.19721 0.110706 0.10205 0.117031
3809.731 0.16696 0.3225 0.392 0.2896 0.2146 0.2347 0.2666 0.2755 0.2189 0.20291
3829.021 0.239 0.23 0.3151 0.3438 0.2531 0.2638 0.3348 0.2924 0.15714 0.16871
3848.311 0.2419 0.27 0.3331 0.3018 0.2357 0.283 0.3174 0.342 0.362 0.3307
3867.601 0.2641 0.1922 0.2326 0.2393 0.2141 0.2142 0.2958 0.3155 0.2977 0.297
3886.890 0.2869 0.3059 0.2357 0.2733 0.3723 0.3593 0.2522 0.2057 0.2323 0.2593
3906.180 0.3648 0.3555 0.2303 0.2374 0.2729 0.3081 0.2797 0.1871 0.0915 0.15125
3925.470 0.2306 0.19122 0.2317 0.2761 0.2663 0.2677 0.3223 0.19661 0.19919 0.3021
3944.760 0.2689 0.276 0.2725 0.3309 0.4729 0.3798 0.2341 0.2521 0.20235 0.2434
3964.049 0.3649 0.3437 0.2997 0.3387 0.2385 0.146 0.19974 0.2381 0.2344 0.2352
3983.339 0.20805 0.2127 0.2465 0.2482 0.2645 0.3809 0.4577 0.3419 0.2418 0.2126
##END=
