##TITLE=p-Butoxybenzylidene p-hexylaniline
##JCAMP-DX=4.24
##DATA TYPE=INFRARED SPECTRUM
##ORIGIN=EPA-IR VAPOR PHASE LIBRARY
##OWNER=SRD/NIST
Collection (C) 2018 copyright by the U.S. Secretary of Commerce
on behalf of the United States of America. All rights reserved.
##CAS REGISTRY NO=39777-12-3
##MOLFORM=C 23 H 31 N O
##$NIST SOURCE=MSDC-IR
##STATE=gas
##XUNITS=1/CM
##YUNITS=ABSORBANCE
##XFACTOR=1.
##YFACTOR=0.001
##DELTAX=1.92898
##FIRSTX=549.8
##LASTX=4000.7
##FIRSTY=6.41413
##MAXX=4000.7
##MINX=549.759
##MAXY=0.0972941
##MINY=0
##NPOINTS=1790
##XYDATA=(X++(Y..Y))
549.759 6.41413 6.56413 6.72413 6.90413 6.81413 6.94413 6.78413 6.32413 5.95413 5.31413
569.049 4.87413 4.45413 3.97413 3.41413 2.88413 2.42413 2.33413 2.28413 2.16413 2.32413
588.339 2.43413 2.39413 2.30413 2.17413 2.32413 2.72413 2.94413 3.06413 3.10413 3.20413
607.628 3.33413 3.66413 3.81413 3.64413 3.47413 3.28413 3.16413 3.14413 3.06413 2.69413
626.918 2.26413 2.04413 2.02413 1.96413 2.00413 2.01413 1.86413 1.80413 1.57413 1.23413
646.208 1.01413 0.84703 0.81373 0.79963 0.74603 0.75873 0.75213 0.82093 0.88573 0.78123
665.498 0.66893 0.69143 0.63373 0.62923 0.65913 0.73133 0.85563 0.89553 0.95203 0.96703
684.787 0.90523 0.87953 0.81283 0.79293 0.95643 1.09413 1.10413 1.22413 1.37413 1.39413
704.077 1.54413 1.80413 2.00413 2.17413 2.40413 2.60413 2.68413 2.79413 2.84413 2.78413
723.367 2.69413 2.50413 2.34413 2.15413 1.96413 2.00413 2.19413 2.27413 2.21413 2.28413
742.657 2.26413 2.16413 2.05413 2.04413 2.25413 2.24413 2.11413 2.16413 2.27413 2.32413
761.947 2.38413 2.33413 2.33413 2.36413 2.44413 2.61413 2.68413 2.69413 2.77413 2.87413
781.236 2.80413 3.04413 3.42413 3.57413 3.56413 3.73413 4.12413 4.39413 4.83413 5.32413
800.526 5.79413 6.26413 6.73413 7.22413 7.73413 8.28413 8.81413 9.41413 10.0341 10.7741
819.816 11.6141 12.5641 13.6441 14.8941 15.9841 16.9241 17.9041 18.3241 18.2341 17.8641
839.106 16.9141 15.5941 14.4041 13.2041 11.9341 10.7341 9.82413 9.11413 8.42413 7.83413
858.395 7.53413 7.18413 7.00413 6.97413 7.00413 7.28413 7.38413 7.73413 8.56413 9.44413
877.685 10.4541 11.8341 13.3541 14.7341 15.6441 15.4041 14.1941 12.5141 10.6341 8.75413
896.975 7.22413 6.24413 5.62413 5.06413 4.40413 3.91413 3.63413 3.26413 3.09413 3.05413
916.265 2.81413 2.69413 2.59413 2.51413 2.56413 2.53413 2.58413 2.73413 2.74413 2.87413
935.555 3.06413 3.24413 3.29413 3.32413 3.36413 3.40413 3.71413 4.07413 4.38413 4.79413
954.844 5.15413 5.42413 5.73413 6.14413 6.65413 7.04413 7.58413 8.26413 8.67413 8.92413
974.134 8.94413 8.61413 8.26413 7.74413 7.08413 6.80413 6.63413 6.36413 6.16413 6.12413
993.424 6.37413 6.55413 6.85413 7.45413 8.18413 9.07413 10.2141 11.8641 13.4241 14.8441
1012.714 16.3541 17.5741 17.6141 16.4341 15.5741 15.4141 15.3141 14.8741 14.3841 14.1741
1032.003 13.6241 12.6241 11.7441 10.7441 9.54413 8.73413 8.18413 7.54413 6.93413 6.62413
1051.293 6.58413 6.89413 7.28413 7.34413 7.85413 8.76413 9.52413 10.0041 10.1041 9.97413
1070.583 9.53413 8.88413 8.95413 8.75413 7.95413 7.52413 7.05413 6.64413 6.20413 6.12413
1089.873 6.32413 6.28413 6.06413 6.20413 6.83413 7.42413 7.75413 7.83413 8.23413 8.74413
1109.163 8.75413 8.61413 8.31413 7.91413 7.38413 6.78413 6.72413 6.54413 6.27413 6.34413
1128.452 6.12413 5.69413 5.77413 6.20413 6.33413 6.59413 7.01413 7.47413 8.48413 9.68413
1147.742 10.9141 12.6541 15.8841 20.8041 28.2041 40.7441 60.0841 82.6341 97.2941 94.5641
1167.032 76.5941 54.3541 36.8641 25.6541 19.0941 15.3141 13.1041 12.0141 12.2041 13.6541
1186.322 15.5341 17.6841 20.2741 22.1741 22.3741 21.7341 21.1441 20.7141 20.6041 20.8441
1205.611 21.6241 23.2641 25.8041 28.7041 31.1041 33.4241 35.7541 38.0441 40.2641 42.0241
1224.901 43.7341 45.7141 48.4641 51.8741 55.6941 60.1741 64.9441 69.7941 74.4441 78.2741
1244.191 80.9341 81.8841 80.3041 76.4741 71.0041 64.3041 57.0041 49.8041 43.1441 37.2541
1263.481 32.3441 28.3641 25.3041 23.0541 21.3441 20.0241 19.0641 18.5741 18.4641 18.6241
1282.771 18.8941 19.4341 20.1641 20.7841 21.5441 22.2641 23.0241 24.1441 25.7441 27.5641
1302.060 28.5341 27.9841 26.2041 23.8341 21.1941 18.6041 16.2941 14.2741 12.6241 11.3841
1321.350 10.4441 9.74413 9.27413 8.89413 8.55413 8.34413 8.20413 8.04413 7.95413 7.96413
1340.640 7.93413 7.88413 7.88413 7.81413 7.67413 7.53413 7.41413 7.30413 7.19413 7.12413
1359.930 7.11413 7.14413 7.13413 7.16413 7.24413 7.21413 7.24413 7.37413 7.54413 7.89413
1379.219 8.43413 9.05413 9.66413 10.1041 10.2541 10.1241 9.69413 9.01413 8.26413 7.53413
1398.509 6.88413 6.42413 6.18413 6.06413 6.17413 6.44413 6.95413 7.89413 9.20413 10.7341
1417.799 12.0541 12.5541 11.7841 10.1341 8.41413 7.20413 6.50413 6.17413 6.13413 6.29413
1437.089 6.53413 6.77413 7.06413 7.43413 7.80413 8.25413 8.78413 9.31413 9.88413 10.5241
1456.378 11.1541 11.6741 12.3241 13.0741 13.9241 15.0641 16.4241 17.8741 19.0841 19.6141
1475.668 19.3041 18.2241 16.7141 15.1441 13.9941 13.5241 13.6941 14.5741 16.0341 18.0841
1494.958 21.0341 25.0241 30.4541 38.0541 48.4541 61.6241 76.7441 89.3741 93.3241 85.5741
1514.248 69.3941 51.8541 37.8441 28.5141 22.2341 18.0641 15.0441 12.7641 11.0241 9.66413
1533.538 8.63413 7.83413 7.23413 6.89413 6.65413 6.43413 6.35413 6.38413 6.49413 6.58413
1552.827 6.76413 7.09413 7.54413 8.30413 9.23413 10.4341 12.1841 14.4441 17.3941 21.1141
1572.117 25.1241 28.4641 29.8141 28.4641 25.5141 23.2441 23.0441 24.8541 28.6741 34.3741
1591.407 41.7141 50.4441 59.7541 68.0641 73.4441 74.3741 70.9241 64.2941 56.1641 47.9741
1610.697 40.3041 33.5541 28.4041 24.9641 23.1341 22.9941 24.4441 27.3741 31.8941 37.6841
1629.986 43.2541 46.3441 45.1441 39.8441 32.8741 26.3541 21.1041 17.2541 14.4541 12.4141
1649.276 10.8741 9.70413 8.70413 7.82413 7.16413 6.63413 6.17413 5.76413 5.45413 5.18413
1668.566 4.82413 4.52413 4.28413 4.04413 3.83413 3.60413 3.36413 3.16413 3.02413 2.90413
1687.856 2.77413 2.66413 2.55413 2.44413 2.40413 2.34413 2.27413 2.23413 2.15413 2.12413
1707.146 2.07413 1.99413 1.95413 1.90413 1.91413 1.90413 1.85413 1.79413 1.78413 1.79413
1726.435 1.74413 1.73413 1.73413 1.71413 1.69413 1.72413 1.77413 1.81413 1.81413 1.79413
1745.725 1.78413 1.77413 1.80413 1.87413 1.91413 1.96413 2.08413 2.25413 2.33413 2.35413
1765.015 2.36413 2.35413 2.38413 2.28413 2.06413 1.88413 1.72413 1.60413 1.46413 1.35413
1784.305 1.35413 1.32413 1.28413 1.24413 1.21413 1.23413 1.25413 1.20413 1.20413 1.20413
1803.594 1.13413 1.13413 1.11413 1.02413 0.95133 0.99313 1.06413 1.01413 0.89663 0.91693
1822.884 0.97363 0.97363 0.93443 0.92043 0.95973 0.94503 0.95123 0.98293 0.98123 0.96503
1842.174 0.99563 1.04413 1.03413 1.02413 1.03413 1.05413 1.10413 1.13413 1.13413 1.17413
1861.464 1.23413 1.25413 1.28413 1.33413 1.40413 1.46413 1.50413 1.58413 1.75413 1.87413
1880.754 1.93413 2.01413 2.06413 2.08413 2.08413 2.03413 1.97413 1.89413 1.80413 1.68413
1900.043 1.60413 1.54413 1.48413 1.45413 1.37413 1.33413 1.31413 1.28413 1.27413 1.28413
1919.333 1.34413 1.34413 1.32413 1.40413 1.48413 1.56413 1.62413 1.59413 1.55413 1.52413
1938.623 1.50413 1.45413 1.44413 1.41413 1.31413 1.24413 1.18413 1.19413 1.23413 1.18413
1957.913 1.15413 1.16413 1.16413 1.20413 1.19413 1.16413 1.15413 1.19413 1.25413 1.29413
1977.202 1.29413 1.29413 1.32413 1.33413 1.26413 1.22413 1.24413 1.23413 1.24413 1.28413
1996.492 1.31413 1.33413 1.36413 1.40413 1.42413 1.44413 1.46413 1.47413 1.51413 1.62413
2015.782 1.71413 1.71413 1.65413 1.57413 1.54413 1.56413 1.61413 1.62413 1.58413 1.55413
2035.072 1.57413 1.60413 1.65413 1.63413 1.59413 1.62413 1.63413 1.65413 1.67413 1.64413
2054.362 1.58413 1.49413 1.47413 1.51413 1.49413 1.38413 1.30413 1.28413 1.27413 1.28413
2073.651 1.28413 1.25413 1.23413 1.25413 1.23413 1.22413 1.25413 1.22413 1.10413 1.04413
2092.941 1.05413 1.02413 0.96993 0.95263 0.90973 0.88403 0.91103 0.91583 0.85983 0.81533
2112.231 0.82793 0.82753 0.77893 0.76813 0.82233 0.79783 0.74333 0.72873 0.70423 0.69453
2131.521 0.64943 0.65893 0.65033 0.58773 0.60123 0.62533 0.61863 0.57673 0.55553 0.56893
2150.810 0.55753 0.56363 0.60093 0.64593 0.64303 0.65883 0.63993 0.62803 0.66773 0.63013
2170.100 0.58153 0.53543 0.53553 0.54853 0.59323 0.60333 0.59053 0.54473 0.50363 0.52803
2189.390 0.54103 0.55043 0.58993 0.56143 0.51533 0.51273 0.53173 0.57093 0.53503 0.55743
2208.680 0.55573 0.53573 0.59643 0.57423 0.51463 0.49883 0.49333 0.52933 0.52883 0.53083
2227.970 0.55393 0.54143 0.52043 0.48733 0.47003 0.49173 0.50843 0.50903 0.55333 0.53643
2247.259 0.51323 0.56203 0.52903 0.54003 0.63653 0.57303 0.54033 0.60033 0.60843 0.65773
2266.549 0.69213 0.66733 0.62743 0.63103 0.68263 0.67633 0.68723 0.70193 0.65143 0.64633
2285.839 0.64643 0.64873 0.67213 0.67493 0.70723 0.72753 0.66313 0.63863 0.65443 0.65863
2305.129 0.67043 0.70613 0.71173 0.67653 0.70653 0.75593 0.74173 0.77093 0.76673 0.73733
2324.418 0.78603 0.83223 0.75593 0.72353 0.79403 0.77863 0.74623 0.77053 0.77633 0.79433
2343.708 0.82613 0.80003 0.83293 0.83343 0.77143 0.76513 0.73663 0.74353 0.79573 0.76983
2362.998 0.77923 0.80343 0.82023 0.87623 0.91033 0.85333 0.75903 0.79843 0.88223 0.88253
2382.288 0.93043 0.93193 0.94863 0.99763 0.97433 0.94973 0.94003 0.93993 0.94403 1.00413
2401.578 1.01413 0.94313 0.91563 0.94043 0.93483 0.94773 0.98613 0.96953 1.00113 1.01413
2420.867 0.94323 0.93943 0.91553 0.86363 0.90033 0.91543 0.96533 0.99043 0.91743 0.89613
2440.157 0.97463 0.98783 0.98663 1.06413 1.11413 1.09413 1.05413 1.09413 1.15413 1.18413
2459.447 1.24413 1.27413 1.21413 1.20413 1.25413 1.25413 1.24413 1.25413 1.28413 1.37413
2478.737 1.33413 1.33413 1.32413 1.27413 1.31413 1.32413 1.33413 1.31413 1.25413 1.25413
2498.026 1.24413 1.19413 1.20413 1.19413 1.20413 1.21413 1.22413 1.26413 1.26413 1.27413
2517.316 1.34413 1.36413 1.34413 1.32413 1.30413 1.34413 1.41413 1.39413 1.40413 1.52413
2536.606 1.61413 1.61413 1.65413 1.65413 1.65413 1.69413 1.68413 1.62413 1.62413 1.61413
2555.896 1.59413 1.63413 1.53413 1.45413 1.44413 1.43413 1.42413 1.38413 1.39413 1.34413
2575.186 1.28413 1.33413 1.40413 1.40413 1.35413 1.29413 1.24413 1.25413 1.23413 1.25413
2594.475 1.24413 1.10413 1.08413 1.13413 1.12413 1.13413 1.09413 1.12413 1.22413 1.11413
2613.765 1.00413 1.01413 1.06413 1.04413 1.00413 0.97213 0.95413 1.02413 1.06413 1.05413
2633.055 1.05413 0.99433 0.99743 1.04413 1.05413 1.01413 0.98873 1.03413 1.03413 1.05413
2652.345 1.03413 1.02413 1.13413 1.10413 1.03413 1.12413 1.20413 1.18413 1.17413 1.21413
2671.634 1.19413 1.21413 1.20413 1.22413 1.26413 1.27413 1.27413 1.24413 1.22413 1.21413
2690.924 1.28413 1.26413 1.25413 1.30413 1.28413 1.24413 1.30413 1.33413 1.34413 1.46413
2710.214 1.45413 1.47413 1.50413 1.46413 1.51413 1.50413 1.54413 1.67413 1.75413 1.84413
2729.504 1.86413 1.95413 2.06413 1.98413 1.97413 2.03413 2.11413 2.15413 2.14413 2.18413
2748.794 2.26413 2.31413 2.31413 2.36413 2.36413 2.31413 2.20413 2.09413 2.18413 2.28413
2768.083 2.29413 2.31413 2.29413 2.27413 2.33413 2.30413 2.35413 2.45413 2.41413 2.48413
2787.373 2.60413 2.77413 2.86413 2.79413 2.86413 2.97413 3.05413 3.07413 3.16413 3.32413
2806.663 3.43413 3.59413 3.75413 3.91413 4.04413 4.26413 4.56413 4.84413 5.01413 5.22413
2825.953 5.57413 5.91413 6.25413 6.72413 7.30413 7.86413 8.51413 9.38413 10.3541 11.4941
2845.242 12.8041 14.3341 16.2141 18.4241 20.8241 23.4141 26.0541 28.5741 30.7841 32.4141
2864.532 33.3841 33.7141 33.6641 33.3841 32.9941 32.6541 32.4041 32.2741 32.3641 32.4541
2883.822 32.2241 31.4941 30.3441 29.0241 27.8441 26.9841 26.4241 26.3341 26.6541 27.2241
2903.112 28.1041 29.3241 30.7541 32.4941 34.5441 36.7941 39.2941 42.0941 45.1041 48.3441
2922.401 52.1241 56.5741 61.1941 65.8141 70.2241 73.8141 75.9941 76.3941 75.2341 73.0241
2941.691 70.0541 66.4341 62.1241 57.5141 53.2641 49.7941 47.5041 46.4741 46.4141 47.2341
2960.981 48.8241 50.6041 52.1441 53.0941 53.0641 51.4941 48.1641 43.5341 38.2941 33.2841
2980.271 29.0741 25.5541 22.5341 20.1341 18.2041 16.5341 15.2841 14.3041 13.3841 12.5841
2999.561 11.9941 11.5141 11.0341 10.6141 10.2841 10.0141 9.84413 9.81413 10.0441 10.5941
3018.850 11.4341 12.6341 14.0441 15.5641 16.7241 16.8641 15.9541 14.5541 13.2641 12.2941
3038.140 11.3941 10.3741 9.34413 8.35413 7.69413 7.36413 7.14413 7.02413 6.87413 6.82413
3057.430 6.77413 6.69413 6.71413 6.77413 6.95413 7.28413 7.85413 8.47413 8.95413 9.23413
3076.720 9.19413 8.77413 8.08413 7.38413 6.89413 6.42413 5.99413 5.66413 5.39413 5.06413
3096.009 4.69413 4.43413 4.26413 4.15413 3.95413 3.78413 3.50413 3.30413 3.22413 3.01413
3115.299 2.83413 2.66413 2.43413 2.16413 2.04413 1.88413 1.69413 1.57413 1.53413 1.52413
3134.589 1.42413 1.35413 1.36413 1.33413 1.30413 1.31413 1.29413 1.31413 1.28413 1.23413
3153.879 1.20413 1.09413 0.94673 0.94843 0.99193 1.01413 0.97223 0.87593 0.89073 0.90523
3173.169 0.86793 0.86743 0.76483 0.74413 0.86753 0.91843 0.91393 0.94123 0.94173 0.90743
3192.458 0.83813 0.81663 0.84443 0.86753 0.91773 0.90953 0.82433 0.76733 0.84553 0.86253
3211.748 0.84873 0.78583 0.77373 0.74633 0.67193 0.77913 0.79463 0.73533 0.76683 0.82883
3231.038 0.88133 0.81483 0.74443 0.71223 0.70953 0.73013 0.73353 0.65963 0.70553 0.92963
3250.328 0.97293 0.89293 0.82313 0.88213 0.85483 0.67363 0.64253 0.64703 0.55533 0.56063
3269.617 0.51643 0.38683 0.40063 0.45153 0.50123 0.44533 0.40073 0.47853 0.46273 0.36913
3288.907 0.28183 0.32033 0.41843 0.39403 0.32793 0.20843 0.19313 0.31723 0.32193 0.24333
3308.197 0.25593 0.24383 0.22533 0.27043 0.39653 0.47533 0.35253 0.24403 0.21953 0.27013
3327.487 0.32773 0.40523 0.48483 0.43673 0.33753 0.28863 0.22013 0.18423 0.16993 0.10973
3346.777 0.19663 0.32453 0.31513 0.24833 0.15283 0.19773 0.21423 0.20573 0.26903 0.19003
3366.066 0.16143 0.30303 0.31743 0.16513 0.08507 0.16333 0.26433 0.29603 0.36843 0.29613
3385.356 0.10943 0.17123 0.31623 0.33123 0.22333 0.21383 0.31353 0.23573 0.15453 0.30043
3404.646 0.35713 0.26013 0.23703 0.20403 0.19803 0.13103 0.14213 0.12553 0.02362 0.005467
3423.936 0.10284 0.20013 0.20093 0.19363 0.14193 0.04355 0.06598 0.21863 0.23623 0.20073
3443.225 0.24493 0.22103 0.16713 0.11603 0.01909 0.12003 0.35003 0.23633 0.12643 0.17733
3462.515 0.0479 0.01725 0.19073 0.15353 0.09629 0.17453 0.18473 0.23853 0.21533 0.20683
3481.805 0.30663 0.31903 0.24443 0.32483 0.22653 0.02058 0.03776 0 0.03307 0.10401
3501.095 0.18093 0.13563 0.10713 0.12763 0.01838 0.06068 0.14033 0.10593 0.06107 0.14833
3520.385 0.18663 0.13573 0.13083 0.12483 0.12353 0.05527 0.007959 0.07793 0.18853 0.23023
3539.674 0.09065 0.11953 0.21003 0.21303 0.15603 0.13963 0.17093 0.10673 0.09937 0.09362
3558.964 0.07765 0.010774 0.009246 0.06506 0.05159 0.14053 0.24273 0.06863 0.08205 0.23943
3578.254 0.21163 0.24313 0.17553 0.09125 0.08998 0.12943 0.19753 0.21313 0.28933 0.32913
3597.544 0.32993 0.42183 0.39493 0.32523 0.24333 0.17503 0.16353 0.19913 0.22543 0.22923
3616.833 0.26653 0.14903 0.15363 0.30253 0.28913 0.18973 0.10763 0.22933 0.25813 0.25173
3636.123 0.28463 0.31163 0.37503 0.22163 0.15283 0.28073 0.37483 0.35873 0.25903 0.20363
3655.413 0.27233 0.29033 0.38763 0.40903 0.38663 0.44023 0.36423 0.31903 0.34293 0.36573
3674.703 0.41183 0.45873 0.38973 0.34563 0.39153 0.37083 0.39943 0.40843 0.27843 0.26443
3693.993 0.33423 0.29583 0.26193 0.35953 0.43773 0.35533 0.23263 0.14753 0.16993 0.31503
3713.282 0.36563 0.28413 0.26943 0.27273 0.26023 0.26563 0.27303 0.34983 0.29433 0.25293
3732.572 0.33723 0.34773 0.25463 0.17433 0.14523 0.14243 0.20313 0.27783 0.33503 0.37283
3751.862 0.26713 0.32693 0.45673 0.36523 0.25143 0.15803 0.11013 0.22373 0.22703 0.15063
3771.152 0.19513 0.17623 0.28823 0.29523 0.29303 0.39103 0.28403 0.21313 0.25373 0.24073
3790.441 0.25963 0.22353 0.15923 0.20513 0.15883 0.12453 0.23313 0.29883 0.36013 0.28533
3809.731 0.30983 0.35973 0.32423 0.34033 0.25173 0.26003 0.28143 0.25403 0.30703 0.27703
3829.021 0.21873 0.35393 0.46993 0.30953 0.27753 0.39433 0.36593 0.30803 0.23413 0.23833
3848.311 0.16743 0.20583 0.39043 0.36163 0.26713 0.29633 0.34843 0.28763 0.28653 0.30643
3867.601 0.12853 0.08162 0.18303 0.19363 0.12553 0.11783 0.22913 0.34503 0.29663 0.19383
3886.890 0.15623 0.19443 0.26953 0.27883 0.31513 0.31933 0.28503 0.27163 0.29853 0.27883
3906.180 0.28473 0.29603 0.25683 0.23363 0.20213 0.14293 0.23973 0.39043 0.36683 0.39353
3925.470 0.37113 0.24883 0.16383 0.23143 0.35273 0.32733 0.37273 0.37703 0.19833 0.12733
3944.760 0.15473 0.11243 0.08452 0.06918 0.12083 0.27533 0.39503 0.35103 0.32263 0.35813
3964.049 0.30213 0.20383 0.19753 0.19283 0.15113 0.25353 0.35423 0.38083 0.41183 0.45633
3983.339 0.37893 0.29153 0.29833 0.24503 0.31213 0.40683 0.38203 0.40703 0.40733 0.30953
##END=
