##TITLE=p-Butoxybenzylidene p-pentylaniline
##JCAMP-DX=4.24
##DATA TYPE=INFRARED SPECTRUM
##ORIGIN=EPA-IR VAPOR PHASE LIBRARY
##OWNER=SRD/NIST
Collection (C) 2018 copyright by the U.S. Secretary of Commerce
on behalf of the United States of America. All rights reserved.
##CAS REGISTRY NO=39777-05-4
##MOLFORM=C 22 H 29 N O
##$NIST SOURCE=MSDC-IR
##STATE=gas
##XUNITS=1/CM
##YUNITS=ABSORBANCE
##XFACTOR=1.
##YFACTOR=0.001
##DELTAX=1.92898
##FIRSTX=549.8
##LASTX=4000.7
##FIRSTY=3.925
##MAXX=4000.7
##MINX=549.759
##MAXY=0.058565
##MINY=0
##NPOINTS=1790
##XYDATA=(X++(Y..Y))
549.759 3.925 4.045 3.955 3.965 3.985 4.035 4.255 4.035 3.675 3.295
569.049 2.965 2.715 2.255 1.925 1.865 1.785 1.745 1.565 1.455 1.485
588.339 1.355 1.205 1.295 1.555 1.715 1.695 1.725 1.825 1.965 1.935
607.628 2.005 2.185 2.325 2.415 2.165 2.075 2.075 1.915 1.625 1.605
626.918 1.635 1.375 1.315 1.305 1.315 1.325 1.245 1.205 1.265 1.0628
646.208 0.7319 0.6303 0.746 0.6211 0.5477 0.7262 0.6477 0.5659 0.5619 0.564
665.498 0.5047 0.4147 0.5458 0.586 0.5977 0.6287 0.5027 0.5663 0.6416 0.6428
684.787 0.6693 0.5897 0.511 0.6353 0.677 0.749 0.9157 0.8878 1.0068 1.145
704.077 1.0697 1.215 1.355 1.385 1.515 1.605 1.665 1.605 1.595 1.645
723.367 1.585 1.615 1.525 1.375 1.395 1.355 1.325 1.395 1.475 1.505
742.657 1.435 1.395 1.355 1.305 1.405 1.555 1.685 1.765 1.685 1.685
761.947 1.675 1.595 1.465 1.515 1.705 1.785 1.805 1.855 1.985 2.005
781.236 2.055 2.105 2.205 2.385 2.465 2.445 2.645 3.095 3.265 3.345
800.526 3.665 3.995 4.165 4.195 4.435 4.785 5.075 5.405 5.745 6.185
819.816 6.875 7.515 8.135 9.035 9.805 10.455 11.025 11.275 11.485 11.355
839.106 10.835 10.125 9.275 8.485 7.615 6.745 5.965 5.335 4.985 4.615
858.395 4.315 4.205 4.195 4.235 4.175 4.185 4.515 4.825 5.125 5.765
877.685 6.585 7.385 8.185 8.915 9.485 9.445 8.615 7.515 6.345 5.335
896.975 4.655 3.995 3.455 3.135 2.825 2.495 2.295 2.205 2.075 2.095
916.265 2.025 1.795 1.665 1.655 1.705 1.615 1.665 1.795 1.835 1.745
935.555 1.815 2.145 2.265 2.295 2.405 2.415 2.545 2.775 2.895 3.075
954.844 3.185 3.395 3.685 4.045 4.305 4.545 4.975 5.255 5.385 5.585
974.134 5.825 5.635 5.215 4.955 4.645 4.365 4.185 3.935 3.805 3.865
993.424 4.075 4.155 4.165 4.445 4.755 5.175 6.025 7.125 8.275 9.205
1012.714 10.225 10.855 10.695 9.975 9.375 9.255 9.025 8.995 8.905 8.465
1032.003 7.865 7.315 6.775 6.345 6.085 5.605 5.005 4.495 4.255 4.095
1051.293 4.015 4.105 4.265 4.745 5.045 5.085 5.445 5.945 6.155 5.915
1070.583 5.735 5.665 5.325 4.795 4.425 4.405 4.075 3.825 3.755 3.525
1089.873 3.245 3.185 3.605 3.855 3.915 4.185 4.535 5.075 5.355 5.285
1109.163 5.315 4.995 4.845 4.775 4.265 3.925 3.955 3.705 3.695 3.785
1128.452 3.575 3.595 3.535 3.485 3.495 3.815 4.385 4.815 5.275 5.885
1147.742 6.755 7.785 9.445 12.415 17.115 24.695 36.135 49.525 58.565 57.165
1167.032 46.365 32.985 22.395 15.595 11.535 8.985 7.475 7.145 7.255 8.025
1186.322 9.305 10.965 12.675 13.585 13.645 13.265 13.245 13.115 12.925 12.955
1205.611 13.375 14.105 15.115 16.875 18.955 20.725 21.835 23.115 24.495 25.485
1224.901 26.535 27.845 29.275 31.175 33.515 36.335 39.345 42.485 45.515 47.565
1244.191 48.965 49.565 48.805 46.305 42.835 39.015 34.705 30.365 26.445 22.995
1263.481 19.845 17.315 15.375 13.895 12.965 12.025 11.335 11.165 11.055 11.095
1282.771 11.255 11.615 12.175 12.705 13.215 13.645 14.095 14.745 15.745 16.785
1302.060 17.275 16.955 15.915 14.405 12.835 11.365 9.925 8.665 7.635 6.875
1321.350 6.315 5.925 5.585 5.345 5.225 5.075 4.945 4.855 4.825 4.815
1340.640 4.795 4.755 4.665 4.555 4.445 4.365 4.285 4.205 4.135 4.145
1359.930 4.215 4.225 4.305 4.395 4.365 4.315 4.375 4.455 4.565 4.785
1379.219 5.155 5.585 6.015 6.285 6.325 6.225 5.965 5.545 5.105 4.725
1398.509 4.335 4.015 3.805 3.795 3.875 4.015 4.405 4.935 5.635 6.545
1417.799 7.345 7.625 7.185 6.255 5.175 4.405 4.015 3.795 3.715 3.795
1437.089 3.905 4.075 4.235 4.375 4.625 4.865 5.145 5.465 5.755 6.045
1456.378 6.365 6.755 7.215 7.705 8.275 9.045 9.865 10.675 11.385 11.815
1475.668 11.715 11.105 10.195 9.275 8.605 8.325 8.435 8.905 9.795 11.025
1494.958 12.755 15.205 18.565 23.155 29.475 37.415 46.655 54.415 56.795 52.225
1514.248 42.605 31.965 23.275 17.595 13.665 11.195 9.385 7.925 6.855 6.035
1533.538 5.385 4.905 4.545 4.205 4.035 3.985 3.935 3.985 4.025 4.075
1552.827 4.225 4.445 4.665 4.995 5.605 6.385 7.485 8.975 10.775 13.035
1572.117 15.435 17.335 18.105 17.385 15.765 14.405 14.205 15.265 17.545 20.995
1591.407 25.475 30.785 36.455 41.545 44.795 45.405 43.225 39.065 34.155 29.115
1610.697 24.435 20.405 17.285 15.185 14.145 14.075 14.875 16.705 19.505 22.965
1629.986 26.245 28.095 27.455 24.295 20.105 16.205 12.975 10.615 8.915 7.605
1649.276 6.605 5.835 5.165 4.805 4.465 4.155 3.895 3.545 3.325 3.185
1668.566 3.005 2.875 2.725 2.505 2.375 2.305 2.215 2.035 1.835 1.805
1687.856 1.725 1.665 1.625 1.525 1.445 1.445 1.395 1.375 1.355 1.305
1707.146 1.275 1.295 1.315 1.255 1.235 1.225 1.255 1.265 1.225 1.155
1726.435 1.125 1.185 1.175 1.0873 1.0506 1.135 1.165 1.135 1.155 1.195
1745.725 1.255 1.225 1.215 1.295 1.375 1.405 1.405 1.435 1.445 1.515
1765.015 1.555 1.515 1.495 1.415 1.265 1.195 1.125 1.0172 0.9639 0.9679
1784.305 0.9335 0.8819 0.8828 0.8654 0.8076 0.8454 0.8903 0.8346 0.7961 0.8277
1803.594 0.8581 0.8431 0.8123 0.7502 0.7397 0.7678 0.7162 0.7055 0.7151 0.6719
1822.884 0.6773 0.7069 0.6897 0.6862 0.6776 0.6671 0.6934 0.6895 0.6622 0.6927
1842.174 0.746 0.7982 0.8101 0.7856 0.7733 0.795 0.8552 0.8757 0.8351 0.8247
1861.464 0.851 0.8439 0.8868 0.9598 1.0151 1.0328 1.079 1.145 1.225 1.285
1880.754 1.275 1.305 1.375 1.385 1.365 1.415 1.385 1.305 1.225 1.155
1900.043 1.125 1.0794 1.0331 0.9997 0.9914 0.9277 0.8689 0.8582 0.8725 0.9074
1919.333 0.9337 0.9822 1.0528 1.1068 1.121 1.145 1.185 1.155 1.0891 1.119
1938.623 1.1221 1.0174 0.9478 0.9337 0.9257 0.882 0.84 0.8328 0.8182 0.8214
1957.913 0.8158 0.7599 0.7843 0.8513 0.8465 0.8689 0.8624 0.8035 0.7894 0.8178
1977.202 0.8933 0.8774 0.8508 0.9069 0.9242 0.9083 0.8949 0.9012 0.9451 0.9666
1996.492 0.9305 0.9039 0.9398 0.9321 0.9038 0.9308 0.9187 0.9717 1.0509 1.093
2015.782 1.1221 1.135 1.145 1.119 1.0994 1.0602 1.0262 1.0507 1.055 1.047
2035.072 1.0905 1.135 1.135 1.0928 1.0754 1.1183 1.155 1.165 1.165 1.165
2054.362 1.1206 1.0664 0.9907 0.9958 1.018 0.9166 0.8814 0.9367 0.9282 0.8796
2073.651 0.8891 0.8727 0.8656 0.8914 0.9039 0.8652 0.768 0.7609 0.7663 0.7076
2092.941 0.6881 0.6731 0.6987 0.7194 0.6805 0.6614 0.6361 0.6209 0.6489 0.6787
2112.231 0.6486 0.5671 0.5226 0.5722 0.6194 0.5973 0.5523 0.5513 0.5608 0.5478
2131.521 0.5349 0.5219 0.5174 0.4998 0.4828 0.5065 0.5011 0.4788 0.4913 0.5058
2150.810 0.4613 0.4541 0.4444 0.4138 0.4453 0.4486 0.4442 0.4981 0.4876 0.4382
2170.100 0.5172 0.5165 0.417 0.3939 0.4072 0.4004 0.4075 0.3896 0.3881 0.4385
2189.390 0.398 0.3416 0.3686 0.3966 0.3659 0.3404 0.4053 0.4024 0.404 0.4752
2208.680 0.4657 0.487 0.4978 0.4529 0.4264 0.41 0.3781 0.4088 0.4059 0.358
2227.970 0.3919 0.3978 0.4222 0.4659 0.4902 0.4828 0.4645 0.4871 0.4832 0.4895
2247.259 0.4846 0.4734 0.4568 0.4438 0.4849 0.5129 0.5071 0.4714 0.5071 0.5294
2266.549 0.5223 0.6072 0.6646 0.6109 0.5805 0.6088 0.6235 0.5856 0.538 0.5185
2285.839 0.5281 0.5425 0.5385 0.5028 0.4413 0.465 0.573 0.6324 0.6237 0.5943
2305.129 0.5349 0.482 0.4632 0.5122 0.516 0.4665 0.4643 0.5187 0.5503 0.5929
2324.418 0.6116 0.5904 0.6264 0.6088 0.5493 0.4848 0.4841 0.5006 0.5099 0.57
2343.708 0.5148 0.5222 0.6001 0.5504 0.4971 0.5299 0.5195 0.4698 0.4513 0.4535
2362.998 0.513 0.5803 0.5828 0.513 0.5142 0.5964 0.6481 0.7044 0.7327 0.7134
2382.288 0.7226 0.7103 0.7237 0.7333 0.6547 0.6493 0.6935 0.6907 0.7184 0.6909
2401.578 0.654 0.6864 0.7198 0.7111 0.7325 0.7783 0.789 0.7541 0.687 0.6631
2420.867 0.6904 0.715 0.6927 0.6733 0.6311 0.6462 0.6685 0.6667 0.6824 0.705
2440.157 0.7882 0.8194 0.7767 0.7839 0.7904 0.7439 0.7187 0.727 0.7725 0.8336
2459.447 0.808 0.8194 0.8693 0.8224 0.7924 0.8451 0.8412 0.8555 0.9132 0.9238
2478.737 0.9127 0.91 0.9823 0.9245 0.911 0.8987 0.8448 0.8862 0.8792 0.8451
2498.026 0.8551 0.9214 0.9309 0.8693 0.8411 0.8501 0.8822 0.8903 0.8597 0.8561
2517.316 0.8405 0.8582 0.8793 0.8386 0.8905 0.9767 1.0213 1.0446 0.9759 0.9377
2536.606 1.0035 1.0149 1.0555 1.145 1.175 1.1239 1.0721 1.195 1.185 1.0702
2555.896 1.1067 1.165 1.1239 1.0453 1.0278 0.9975 0.9613 1.0076 1.0308 0.9795
2575.186 0.9988 1.0229 0.9709 0.9201 0.8765 0.8896 0.9009 0.8684 0.8341 0.7353
2594.475 0.714 0.8094 0.8397 0.8006 0.7841 0.7433 0.6933 0.735 0.7584 0.7527
2613.765 0.736 0.7239 0.7622 0.7739 0.6924 0.6565 0.6625 0.6988 0.7762 0.7365
2633.055 0.6529 0.6794 0.6891 0.649 0.626 0.6826 0.7392 0.6975 0.7379 0.7909
2652.345 0.8153 0.7878 0.7606 0.7945 0.8437 0.8216 0.8093 0.8077 0.7786 0.7691
2671.634 0.7703 0.8047 0.885 0.8948 0.8999 0.873 0.8477 0.8822 0.8249 0.8321
2690.924 0.8049 0.7865 0.784 0.8428 0.9133 0.837 0.8109 0.8536 0.8846 0.9375
2710.214 0.8967 0.8519 0.9552 1.0176 1.0165 1.0849 1.135 1.135 1.135 1.165
2729.504 1.155 1.165 1.205 1.245 1.265 1.255 1.335 1.415 1.495 1.545
2748.794 1.505 1.445 1.415 1.395 1.445 1.445 1.395 1.385 1.365 1.405
2768.083 1.415 1.405 1.465 1.505 1.485 1.435 1.475 1.555 1.505 1.505
2787.373 1.545 1.545 1.645 1.755 1.745 1.695 1.765 1.885 1.955 2.085
2806.663 2.155 2.175 2.205 2.295 2.505 2.615 2.675 2.795 2.865 3.025
2825.953 3.285 3.485 3.715 3.985 4.195 4.485 4.845 5.355 5.945 6.565
2845.242 7.245 8.095 9.075 10.045 11.235 12.605 13.905 15.065 16.085 16.935
2864.532 17.685 18.165 18.345 18.485 18.595 18.675 18.745 18.815 18.895 18.875
2883.822 18.845 18.565 17.875 16.985 16.125 15.575 15.255 15.025 15.015 15.165
2903.112 15.555 16.065 16.665 17.465 18.405 19.635 20.955 22.225 23.725 25.485
2922.401 27.355 29.375 31.545 33.865 36.055 37.745 38.915 39.455 39.435 39.035
2941.691 37.925 36.215 34.185 31.945 29.885 28.215 27.085 26.765 27.105 27.825
2960.981 28.845 30.025 31.075 31.695 31.875 31.135 29.235 26.505 23.365 20.305
2980.271 17.615 15.425 13.605 12.125 10.905 9.925 9.225 8.695 8.205 7.695
2999.561 7.245 6.995 6.785 6.425 6.165 6.145 6.125 6.055 6.145 6.465
3018.850 6.985 7.765 8.725 9.595 10.215 10.355 9.735 8.825 8.125 7.525
3038.140 6.845 6.255 5.745 5.215 4.865 4.615 4.475 4.365 4.235 4.185
3057.430 4.095 3.975 4.015 4.175 4.365 4.555 4.805 5.165 5.465 5.635
3076.720 5.635 5.345 4.865 4.525 4.275 3.945 3.725 3.545 3.295 3.185
3096.009 3.095 2.815 2.675 2.665 2.545 2.365 2.195 2.155 2.115 1.945
3115.299 1.795 1.775 1.695 1.455 1.365 1.275 1.215 1.175 1.195 1.145
3134.589 0.9839 0.9234 0.9002 0.8669 0.8663 0.9073 0.8211 0.8614 0.9391 0.83
3153.879 0.7493 0.7684 0.7378 0.6347 0.6825 0.6737 0.5869 0.5564 0.6427 0.7339
3173.169 0.7278 0.771 0.7791 0.7727 0.6909 0.6371 0.6333 0.6636 0.7524 0.7315
3192.458 0.627 0.7076 0.7709 0.6032 0.5303 0.6878 0.8199 0.8193 0.8679 0.8023
3211.748 0.7163 0.6427 0.5903 0.5673 0.4552 0.5419 0.6393 0.4783 0.4481 0.6013
3231.038 0.6174 0.5688 0.6262 0.6953 0.6338 0.6885 0.8111 0.7272 0.7026 0.712
3250.328 0.6868 0.7003 0.605 0.6253 0.6012 0.5423 0.5147 0.3693 0.2934 0.3011
3269.617 0.3835 0.5004 0.484 0.2996 0.282 0.387 0.3516 0.369 0.4092 0.302
3288.907 0.3103 0.4205 0.3538 0.2959 0.3302 0.3061 0.2936 0.3494 0.2935 0.2557
3308.197 0.3643 0.2967 0.3151 0.4068 0.3393 0.2763 0.2553 0.2357 0.2467 0.3107
3327.487 0.2779 0.237 0.249 0.2543 0.2762 0.3019 0.3771 0.4466 0.4774 0.4666
3346.777 0.3587 0.17788 0.1014 0.14386 0.18549 0.2867 0.3085 0.2434 0.2589 0.3517
3366.066 0.3476 0.15297 0.085 0.2098 0.2997 0.3432 0.3632 0.2725 0.2585 0.3046
3385.356 0.3333 0.3175 0.2995 0.3533 0.2803 0.1073 0.096 0.21193 0.2382 0.2543
3404.646 0.20408 0.1147 0.1124 0.19498 0.20317 0.21668 0.15327 0.1039 0.21814 0.2879
3423.936 0.287 0.3311 0.3374 0.2448 0.20073 0.18925 0.2785 0.2777 0.15305 0.079
3443.225 0.18342 0.3293 0.3034 0.20423 0.22404 0.3286 0.3417 0.3456 0.3334 0.19055
3462.515 0.14853 0.2391 0.2353 0.2966 0.3316 0.2614 0.3161 0.4625 0.392 0.2775
3481.805 0.3096 0.284 0.21777 0.21728 0.22413 0.2495 0.2802 0.18337 0.14676 0.3232
3501.095 0.3677 0.3068 0.3666 0.3236 0.3045 0.3524 0.3139 0.2355 0.0995 0
3520.385 0.114 0.2983 0.3506 0.2701 0.1533 0.1382 0.2261 0.19644 0.20464 0.3419
3539.674 0.3866 0.3761 0.3641 0.2638 0.0989 0.15753 0.19233 0.18396 0.3027 0.3537
3558.964 0.4417 0.4102 0.19531 0.206 0.2391 0.232 0.274 0.18922 0.15877 0.244
3578.254 0.3023 0.2651 0.2269 0.3112 0.2779 0.2738 0.3856 0.3388 0.3593 0.3066
3597.544 0.3417 0.426 0.19796 0.1006 0.2275 0.17611 0.128953 0.2603 0.2563 0.2353
3616.833 0.2913 0.2896 0.231 0.2258 0.2613 0.3157 0.3485 0.3592 0.4137 0.3218
3636.123 0.19857 0.2627 0.4107 0.4269 0.3303 0.3044 0.2696 0.15776 0.3265 0.4197
3655.413 0.3533 0.3448 0.3029 0.3543 0.3608 0.3356 0.2988 0.2336 0.21533 0.3717
3674.703 0.4794 0.3364 0.2923 0.3097 0.2951 0.3506 0.3327 0.2769 0.3372 0.3129
3693.993 0.3303 0.3537 0.3092 0.3645 0.3025 0.2261 0.3485 0.2758 0.0926 0.0903
3713.282 0.17564 0.3053 0.2266 0.14254 0.15047 0.103 0.11727 0.3083 0.4159 0.244
3732.572 0.18169 0.3379 0.4724 0.3696 0.15463 0.1006 0.16058 0.22071 0.0932 0.14543
3751.862 0.2601 0.2394 0.2976 0.3213 0.314 0.254 0.2799 0.3997 0.334 0.17786
3771.152 0.2382 0.2968 0.2601 0.21089 0.21641 0.3539 0.4036 0.2965 0.3392 0.3983
3790.441 0.3057 0.306 0.2494 0.18817 0.2314 0.21988 0.2889 0.3575 0.2893 0.20417
3809.731 0.22001 0.2455 0.21767 0.2314 0.19442 0.2545 0.41 0.4632 0.5247 0.4485
3829.021 0.3178 0.3353 0.2679 0.14849 0.13432 0.09 0.15059 0.19079 0.20113 0.21542
3848.311 0.2349 0.21832 0.13722 0.18506 0.2832 0.4115 0.3741 0.2307 0.3208 0.4018
3867.601 0.4035 0.3648 0.3004 0.3889 0.3399 0.16901 0.2313 0.3925 0.3183 0.2995
3886.890 0.3612 0.3647 0.337 0.2606 0.3613 0.3357 0.21429 0.2211 0.18146 0.17354
3906.180 0.1887 0.2511 0.2664 0.253 0.3207 0.3433 0.3038 0.3142 0.3656 0.4116
3925.470 0.3741 0.267 0.3655 0.3417 0.17561 0.3185 0.3861 0.21283 0.2377 0.2542
3944.760 0.20466 0.3201 0.3701 0.3371 0.4017 0.3945 0.3667 0.4819 0.4576 0.2984
3964.049 0.3151 0.3405 0.2889 0.3243 0.3653 0.3113 0.2556 0.4792 0.5648 0.525
3983.339 0.5012 0.3837 0.2984 0.19686 0.2564 0.3278 0.3802 0.4394 0.4207 0.3979
##END=
