##TITLE=p-Ethoxybenzylidene p-heptylaniline
##JCAMP-DX=4.24
##DATA TYPE=INFRARED SPECTRUM
##ORIGIN=EPA-IR VAPOR PHASE LIBRARY
##OWNER=SRD/NIST
Collection (C) 2018 copyright by the U.S. Secretary of Commerce
on behalf of the United States of America. All rights reserved.
##CAS REGISTRY NO=39777-17-8
##MOLFORM=C 22 H 29 N O
##$NIST SOURCE=MSDC-IR
##STATE=gas
##XUNITS=1/CM
##YUNITS=ABSORBANCE
##XFACTOR=1.
##YFACTOR=0.001
##DELTAX=1.92898
##FIRSTX=549.8
##LASTX=4000.7
##FIRSTY=6.4377
##MAXX=4000.7
##MINX=549.759
##MAXY=0.0863577
##MINY=0
##NPOINTS=1790
##XYDATA=(X++(Y..Y))
549.759 6.4377 6.5577 6.4477 6.7377 7.0277 6.7977 6.3477 5.9877 5.5777 4.9877
569.049 4.4777 4.0777 3.4177 2.9577 2.8677 2.6877 2.5377 2.4177 2.2277 2.3277
588.339 2.4477 2.3077 2.3277 2.5277 2.8277 3.0177 3.1477 3.2077 3.2977 3.4477
607.628 3.5677 3.6877 3.5777 3.3277 3.1977 3.1477 2.9977 2.6277 2.3577 2.2077
626.918 1.8077 1.7277 1.7877 1.7277 1.7677 1.7277 1.6477 1.4977 1.3477 1.2277
646.208 1.0863 1.021 1.0051 0.9442 0.8144 0.6486 0.6546 0.7107 0.6682 0.6219
665.498 0.5673 0.5745 0.5791 0.5698 0.5465 0.5942 0.7936 0.7687 0.7005 0.7729
684.787 0.8538 0.8673 0.7887 0.877 0.9734 0.996 0.9793 1.1377 1.4277 1.4577
704.077 1.5377 1.6777 1.8377 2.0677 2.2677 2.5477 2.6677 2.5377 2.3977 2.4177
723.367 2.3577 2.1877 2.0977 2.0477 2.0377 1.9577 1.7877 1.6577 1.7377 1.8677
742.657 1.8477 1.7077 1.7377 1.7777 1.7777 1.8577 1.8877 1.9277 1.8177 1.8477
761.947 2.0277 2.1977 2.2877 2.2477 2.2677 2.3877 2.4977 2.4577 2.4477 2.6477
781.236 2.8677 2.9177 3.0677 3.2877 3.4977 3.8977 4.2177 4.4777 4.9177 5.2777
800.526 5.6677 6.0977 6.4577 6.7377 7.1477 7.8477 8.5077 9.2677 10.0377 10.7177
819.816 11.5477 12.4777 13.3777 14.3777 15.2777 15.9577 16.5177 16.9577 17.1077 16.7977
839.106 16.2377 15.3577 14.1877 12.9077 11.6777 10.5577 9.4477 8.5277 7.8177 7.1777
858.395 6.6577 6.4077 6.1977 6.0577 6.0177 6.0377 6.2977 6.7277 7.1677 7.7777
877.685 8.6677 9.7177 10.9577 12.1477 12.7877 12.7277 11.9577 10.8477 9.7577 8.9077
896.975 8.2477 7.8277 7.6177 7.1977 6.8877 6.5877 6.2877 6.1477 5.9877 5.9377
916.265 5.9477 6.1277 6.2677 6.0477 5.7277 5.2977 4.8677 4.3777 3.9577 3.7277
935.555 3.4077 3.2177 3.0777 2.8677 2.7777 2.6377 2.4777 2.5677 2.5477 2.5777
954.844 2.5977 2.5777 2.7877 2.9477 2.9877 3.1277 3.1677 3.2177 3.2977 3.2377
974.134 3.2177 3.2177 3.1077 2.9277 2.7977 2.6277 2.4777 2.4177 2.3377 2.5377
993.424 2.7377 2.6877 2.8577 3.1277 3.2877 3.7177 4.3477 5.1577 6.0977 7.1477
1012.714 8.3177 9.2677 9.4877 8.6377 7.9177 7.9377 8.5677 9.4977 10.4577 11.7277
1032.003 13.0577 14.2077 15.5677 17.1277 18.3177 18.9977 19.2177 18.8977 18.1877 17.0777
1051.293 15.5077 14.0977 12.7877 11.3877 10.0277 9.1777 8.5277 7.4677 6.7977 6.4577
1070.583 6.1277 5.8177 5.8577 6.0877 6.0777 6.0477 6.3777 6.9977 7.7277 8.2777
1089.873 8.8577 9.4377 9.6477 9.6577 9.6777 9.6577 10.1277 10.6777 10.7377 10.7677
1109.163 10.6877 10.5877 10.5077 10.5177 9.9677 9.2577 8.5877 7.6877 6.9977 6.6877
1128.452 6.2777 5.8177 5.7977 6.0977 6.5577 6.6577 6.5977 6.9277 7.6277 8.8277
1147.742 10.4177 12.4277 15.3577 20.0677 27.0877 37.9377 54.2077 72.9377 86.2577 86.3577
1167.032 72.6677 53.1777 36.4877 25.4677 18.7077 14.6177 12.3777 11.5177 11.4677 12.1977
1186.322 14.1177 16.5577 18.8677 20.1277 19.7777 18.6977 17.6277 17.0377 16.5177 16.0677
1205.611 16.0977 16.8177 17.8977 19.2277 20.9777 23.0177 25.3177 27.8977 30.9077 34.6377
1224.901 39.2577 44.6977 51.1777 58.0077 64.8377 70.9577 75.8477 79.3077 81.0677 81.6277
1244.191 81.1077 78.9277 75.1377 70.0877 63.9577 57.0077 49.5977 42.3177 35.4577 29.4677
1263.481 24.9077 21.5277 18.9177 17.0777 15.9777 15.2977 14.8277 14.5977 14.7077 14.9677
1282.771 15.3277 15.8977 16.6077 17.5177 18.3277 19.1277 20.1177 21.5077 23.5277 25.9377
1302.060 27.7877 28.1077 26.6977 24.1277 21.1677 18.2377 15.5277 13.2377 11.4277 9.9977
1321.350 8.9477 8.1877 7.6277 7.3177 7.0777 6.8777 6.8277 6.7977 6.7677 6.8177
1340.640 6.8777 6.8977 6.8777 6.8677 6.8377 6.7977 6.7077 6.6177 6.6177 6.6377
1359.930 6.6877 6.7677 6.9177 7.0577 7.1477 7.1277 6.9877 6.8377 6.7777 6.8177
1379.219 6.9877 7.3477 7.7977 8.3477 8.9877 9.6777 10.2977 10.7277 10.9277 10.7577
1398.509 10.2377 9.4677 8.7077 8.1777 7.9177 7.8877 8.1277 8.6577 9.4577 10.4777
1417.799 11.2877 11.4077 10.6777 9.2877 7.8177 6.7077 6.0477 5.7177 5.5777 5.5777
1437.089 5.7277 6.0077 6.3577 6.7577 7.2077 7.6877 8.0677 8.4277 8.7377 8.9777
1456.378 9.3377 9.6477 9.8777 10.0577 10.1477 10.2177 10.3077 10.4277 10.7177 11.2777
1475.668 12.2677 13.9577 16.0977 17.6877 17.7277 16.4177 15.1077 14.7777 15.4777 17.0277
1494.958 19.4377 22.9077 27.7477 34.4377 43.5777 55.2877 68.8477 80.6177 85.2077 79.6077
1514.248 65.7677 49.5877 36.0977 26.9677 20.8277 16.6977 13.7677 11.5977 9.9877 8.7577
1533.538 7.7877 7.0677 6.5977 6.2777 6.0577 5.8677 5.7477 5.7077 5.7977 5.9977
1552.827 6.2177 6.4977 6.8977 7.4677 8.2477 9.3277 10.7577 12.5977 14.9877 18.0577
1572.117 21.6677 25.1977 27.6277 27.8177 25.8477 23.3577 22.1677 23.0977 25.9277 30.4677
1591.407 36.6977 44.1977 52.1377 59.3677 64.2877 65.7277 63.6177 58.7877 52.5277 45.6577
1610.697 38.8777 32.6877 27.7777 24.4277 22.6077 22.3977 23.6977 26.4877 30.6777 35.9077
1629.986 40.8177 43.5277 42.6277 38.0377 31.6377 25.5677 20.6877 17.0977 14.3977 12.3377
1649.276 10.7677 9.5777 8.6277 7.8277 7.1677 6.5977 6.1277 5.7277 5.3577 5.0477
1668.566 4.7477 4.4677 4.2677 3.9877 3.7277 3.5377 3.3277 3.1577 2.9977 2.8577
1687.856 2.6877 2.5777 2.5077 2.3977 2.3477 2.2777 2.1777 2.0777 2.0177 1.9777
1707.146 1.9177 1.8477 1.7777 1.7777 1.7777 1.7477 1.7277 1.7177 1.7177 1.6777
1726.435 1.6277 1.6077 1.5977 1.5677 1.5277 1.5377 1.5577 1.5177 1.5477 1.5777
1745.725 1.5477 1.5977 1.6577 1.7077 1.7877 1.8577 1.9277 2.0177 2.0777 2.1177
1765.015 2.1977 2.1877 2.1277 2.0677 1.9177 1.7877 1.6677 1.5177 1.3977 1.3277
1784.305 1.2377 1.1977 1.1877 1.1777 1.1477 1.1277 1.1177 1.0877 1.0919 1.0627
1803.594 1.0261 1.0073 0.9851 1.0019 1.0068 1.0159 0.9879 0.9689 0.9715 0.9548
1822.884 0.949 0.9184 0.9368 0.9732 0.9766 0.9591 0.9343 0.9575 1.0194 1.0391
1842.174 1.0574 1.1277 1.1377 1.0865 1.0828 1.1277 1.1477 1.1477 1.1477 1.1477
1861.464 1.1877 1.2277 1.2777 1.3477 1.4077 1.4577 1.5077 1.6177 1.6877 1.7577
1880.754 1.8477 1.8877 1.9177 1.9877 2.0277 1.9877 1.9377 1.9077 1.8577 1.7877
1900.043 1.6977 1.6077 1.5477 1.4877 1.4277 1.4077 1.3677 1.3277 1.3477 1.3677
1919.333 1.3877 1.4377 1.4377 1.4877 1.5677 1.6077 1.6677 1.7477 1.7277 1.6877
1938.623 1.6777 1.6077 1.5477 1.4977 1.4177 1.3877 1.3777 1.3677 1.3577 1.2877
1957.913 1.2377 1.2577 1.2577 1.2277 1.2077 1.2277 1.2177 1.1877 1.1677 1.1777
1977.202 1.1877 1.1777 1.1777 1.1777 1.1677 1.1377 1.1177 1.1277 1.1477 1.1677
1996.492 1.1877 1.1977 1.1777 1.1877 1.2677 1.2777 1.2377 1.2277 1.3077 1.3477
2015.782 1.3777 1.4277 1.4377 1.3977 1.3177 1.2977 1.2877 1.2677 1.2677 1.2777
2035.072 1.2977 1.2877 1.3177 1.3077 1.3377 1.3677 1.3777 1.3977 1.3977 1.4077
2054.362 1.4077 1.3777 1.3277 1.3177 1.2877 1.2377 1.2177 1.2077 1.2377 1.2477
2073.651 1.2377 1.2677 1.2677 1.2477 1.2077 1.1477 1.1177 1.1077 1.0484 0.9851
2092.941 0.9847 0.9347 0.9081 0.9178 0.8753 0.8072 0.7872 0.806 0.807 0.778
2112.231 0.7362 0.6956 0.6674 0.6762 0.7321 0.7284 0.6903 0.689 0.6831 0.6882
2131.521 0.6574 0.6243 0.6148 0.6239 0.6432 0.6512 0.6086 0.566 0.5969 0.6116
2150.810 0.5663 0.5728 0.5744 0.5531 0.5541 0.5596 0.5554 0.5677 0.5633 0.5499
2170.100 0.5835 0.598 0.5945 0.5419 0.4866 0.5222 0.5314 0.4857 0.4379 0.4357
2189.390 0.4885 0.4429 0.4337 0.4436 0.4009 0.4213 0.4807 0.5004 0.4926 0.4544
2208.680 0.4714 0.5107 0.4879 0.4566 0.4353 0.4778 0.5247 0.5273 0.5046 0.4942
2227.970 0.5143 0.5221 0.5323 0.4977 0.4436 0.5043 0.5481 0.5406 0.5518 0.5414
2247.259 0.5264 0.5733 0.5868 0.5348 0.542 0.556 0.5509 0.5902 0.6277 0.6351
2266.549 0.6289 0.64 0.6624 0.6576 0.6529 0.6763 0.6653 0.6168 0.6879 0.7509
2285.839 0.6886 0.6824 0.7087 0.6935 0.6892 0.6857 0.6429 0.5995 0.6174 0.6694
2305.129 0.6628 0.626 0.6321 0.6244 0.6429 0.6664 0.6839 0.6921 0.6525 0.6661
2324.418 0.7204 0.7132 0.7483 0.7861 0.7674 0.7118 0.639 0.6558 0.6859 0.7034
2343.708 0.7189 0.7036 0.6953 0.7281 0.7303 0.7569 0.7612 0.6968 0.6821 0.6526
2362.998 0.6328 0.6461 0.6632 0.688 0.6918 0.7257 0.7505 0.7554 0.7909 0.8011
2382.288 0.7905 0.828 0.8467 0.8398 0.8829 0.8834 0.8836 0.8977 0.9102 0.9001
2401.578 0.8793 0.8811 0.8875 0.9285 0.9633 0.9634 0.9171 0.9384 0.9596 0.9237
2420.867 0.9113 0.885 0.8634 0.8861 0.8694 0.8514 0.8715 0.868 0.8809 0.9452
2440.157 1.0218 1.0283 1.0547 1.0753 1.0793 1.1077 1.1377 1.1577 1.2077 1.2377
2459.447 1.2077 1.1677 1.1877 1.2477 1.2777 1.2877 1.2677 1.3177 1.3277 1.2977
2478.737 1.3077 1.2377 1.1977 1.2077 1.1977 1.1677 1.2177 1.2277 1.1677 1.0896
2498.026 1.0513 1.0977 1.1777 1.1877 1.1177 1.1577 1.1777 1.1677 1.2377 1.2477
2517.316 1.2177 1.1777 1.1477 1.1977 1.2677 1.2977 1.3377 1.3877 1.4577 1.4777
2536.606 1.5077 1.5777 1.6077 1.6177 1.6077 1.6277 1.6377 1.5977 1.5577 1.4777
2555.896 1.4077 1.4277 1.4077 1.3277 1.2877 1.3177 1.3177 1.3077 1.2977 1.2877
2575.186 1.2877 1.2377 1.1977 1.2077 1.2077 1.1777 1.1377 1.1177 1.0961 1.0514
2594.475 1.0415 1.0147 0.9878 1.0469 1.0605 1.09 1.0839 1.0316 1.0606 1.0461
2613.765 1.0141 1.0281 1.0264 1.0164 1.026 1.0486 1.0622 1.0314 1.0246 1.0203
2633.055 0.929 0.9326 0.9933 0.9486 0.9621 1.0088 1.0149 1.0311 1.0786 1.0596
2652.345 1.0114 1.0461 1.0343 1.035 1.1077 1.1577 1.1077 1.0664 1.1377 1.1377
2671.634 1.0765 1.0825 1.1477 1.2077 1.2077 1.1977 1.2177 1.2077 1.1877 1.2077
2690.924 1.1377 1.1177 1.1577 1.1777 1.1677 1.1777 1.2477 1.2577 1.2277 1.2877
2710.214 1.3377 1.3177 1.3377 1.4277 1.4977 1.5577 1.5977 1.5877 1.6377 1.6777
2729.504 1.6377 1.6577 1.6977 1.6977 1.7377 1.7577 1.7877 1.8677 1.8877 1.8877
2748.794 1.8677 1.9277 1.9577 1.8677 1.9477 2.0277 2.0077 2.0477 2.0177 1.9977
2768.083 2.0377 2.0477 2.1677 2.3177 2.2777 2.2577 2.2877 2.2777 2.2977 2.2877
2787.373 2.3877 2.5177 2.5677 2.6777 2.7277 2.7277 2.8277 2.9877 3.1577 3.2377
2806.663 3.2477 3.2377 3.4177 3.6977 3.8277 3.9577 4.1877 4.3577 4.6177 4.9677
2825.953 5.2777 5.6177 5.9477 6.3077 6.7277 7.2377 7.9177 8.7977 9.6977 10.6877
2845.242 11.9277 13.3577 15.1777 17.4377 20.0377 22.8277 25.6777 28.5477 30.9177 32.3777
2864.532 32.8077 32.4477 31.5377 30.1977 28.8077 27.5977 26.6577 25.9777 25.6077 25.3677
2883.822 24.9377 24.3177 23.5877 22.9277 22.3777 22.0477 22.0877 22.4177 23.0377 23.9577
2903.112 25.0977 26.5077 28.0477 29.6677 31.5377 33.6677 36.1177 38.8277 41.9777 45.6777
2922.401 49.9177 54.7777 60.0977 65.4777 70.1877 73.4977 74.9277 74.2277 71.8077 68.1377
2941.691 63.4277 57.9477 52.1777 46.5877 41.4877 37.2877 34.1377 32.1077 31.1277 30.9977
2960.981 31.4077 31.9977 32.5977 32.8977 32.6277 31.6477 29.9477 27.9377 26.1377 24.8277
2980.271 24.0377 23.5277 23.1677 22.6677 22.0577 21.2977 20.2977 19.2477 18.0177 16.7077
2999.561 15.4677 14.3077 13.2077 12.3077 11.6677 11.0677 10.6177 10.4477 10.4677 10.7777
3018.850 11.5277 12.5277 13.8277 15.2277 16.1177 16.1477 15.1477 13.7977 12.6677 11.6677
3038.140 10.6477 9.7477 8.9177 8.1577 7.6077 7.1577 6.8177 6.7177 6.6477 6.5077
3057.430 6.4577 6.3377 6.3377 6.4077 6.5977 6.9477 7.4377 8.1977 8.7877 9.0777
3076.720 9.1277 8.6277 7.8777 7.2777 6.7877 6.2577 5.7977 5.4277 5.1477 4.8977
3096.009 4.6077 4.3577 4.0977 3.9277 3.7577 3.5377 3.4077 3.2877 3.1477 2.9877
3115.299 2.9077 2.8077 2.5477 2.2477 1.9777 1.8477 1.7677 1.7577 1.6377 1.4377
3134.589 1.3677 1.3477 1.3477 1.1977 1.1577 1.2577 1.2077 1.1177 1.0811 1.0773
3153.879 1.0536 1.0064 0.9895 1.0254 1.0178 0.9338 0.8703 0.8081 0.804 0.8135
3173.169 0.8599 0.9673 0.937 0.8189 0.8061 0.8716 0.8646 0.8501 0.8622 0.8416
3192.458 0.8519 0.8603 0.8738 0.8978 0.8775 0.9249 0.9025 0.8574 0.924 0.9478
3211.748 0.9032 0.778 0.719 0.7899 0.8062 0.7488 0.7925 0.8173 0.8099 0.8527
3231.038 0.8422 0.9001 0.9057 0.8109 0.77 0.8346 0.855 0.8007 0.8487 0.9032
3250.328 0.8789 0.9092 0.9432 0.8319 0.7574 0.6773 0.6613 0.7017 0.675 0.6162
3269.617 0.5918 0.554 0.4357 0.4651 0.4905 0.5301 0.5522 0.4538 0.4011 0.3721
3288.907 0.3957 0.4296 0.3818 0.3146 0.3088 0.3111 0.2704 0.2675 0.2841 0.3095
3308.197 0.3436 0.3743 0.4068 0.3613 0.2861 0.2515 0.2701 0.3018 0.2687 0.3078
3327.487 0.2716 0.225 0.3709 0.394 0.3621 0.3032 0.2252 0.2301 0.2365 0.2529
3346.777 0.2613 0.1905 0.2657 0.344 0.2913 0.2918 0.2851 0.2976 0.2726 0.2101
3366.066 0.2008 0.2692 0.2821 0.2729 0.2467 0.2284 0.19334 0.2414 0.3034 0.3132
3385.356 0.3231 0.2345 0.14876 0.2151 0.2337 0.2584 0.3714 0.2671 0.18801 0.2302
3404.646 0.2102 0.2168 0.2005 0.15457 0.2101 0.2565 0.233 0.12475 0.12553 0.2247
3423.936 0.2888 0.3038 0.3119 0.3163 0.2663 0.18685 0.17571 0.2483 0.2263 0.204
3443.225 0.2689 0.3013 0.2136 0.17948 0.2601 0.16131 0.11906 0.17186 0.15184 0.105657
3462.515 0.078 0.2046 0.2485 0.2431 0.26 0.2625 0.2512 0.2426 0.2187 0.16735
3481.805 0.13914 0.18599 0.14495 0.11575 0.2125 0.2293 0.19296 0.2509 0.322 0.2657
3501.095 0.2294 0.2505 0.259 0.229 0.09494 0 0.096835 0.17644 0.1788 0.1978
3520.385 0.2389 0.16684 0.1605 0.18484 0.17997 0.2246 0.2137 0.13919 0.0499 0.0686
3539.674 0.16442 0.2551 0.2255 0.1744 0.2409 0.2337 0.19018 0.219 0.205 0.14995
3558.964 0.13676 0.18178 0.2353 0.2446 0.3083 0.2933 0.2069 0.304 0.2615 0.2014
3578.254 0.2259 0.2099 0.2373 0.19569 0.15462 0.1907 0.2501 0.2745 0.2756 0.2196
3597.544 0.18705 0.1703 0.17167 0.2446 0.2127 0.2841 0.3293 0.221 0.17588 0.13463
3616.833 0.16868 0.2909 0.3209 0.2411 0.2484 0.2966 0.3172 0.3564 0.3384 0.3137
3636.123 0.3266 0.3303 0.2689 0.2592 0.2346 0.18368 0.2532 0.2774 0.2578 0.2388
3655.413 0.2463 0.3805 0.4106 0.2891 0.2986 0.3055 0.3166 0.3107 0.2052 0.15553
3674.703 0.3139 0.4152 0.3865 0.3988 0.3885 0.3793 0.3907 0.3806 0.325 0.3644
3693.993 0.3587 0.2856 0.3522 0.393 0.3187 0.2892 0.2712 0.3167 0.3633 0.3314
3713.282 0.255 0.2412 0.2727 0.2348 0.2024 0.2671 0.2951 0.3278 0.407 0.3889
3732.572 0.3237 0.3013 0.3728 0.3816 0.2547 0.17788 0.3102 0.4386 0.4473 0.439
3751.862 0.4247 0.3551 0.2882 0.3406 0.3878 0.3191 0.3123 0.364 0.3615 0.2983
3771.152 0.2129 0.2268 0.3119 0.3065 0.263 0.276 0.3735 0.4346 0.3735 0.3275
3790.441 0.305 0.2992 0.3234 0.3727 0.3806 0.2856 0.2273 0.3007 0.392 0.365
3809.731 0.3195 0.3644 0.401 0.3118 0.2609 0.3562 0.4727 0.4252 0.3398 0.4147
3829.021 0.3453 0.2738 0.3931 0.3492 0.259 0.3042 0.3032 0.2297 0.2658 0.3132
3848.311 0.2918 0.3356 0.2834 0.215 0.313 0.408 0.3284 0.261 0.3605 0.3982
3867.601 0.3632 0.3549 0.3229 0.2967 0.2684 0.3063 0.287 0.3429 0.4945 0.539
3886.890 0.4697 0.3394 0.3106 0.3707 0.4025 0.3174 0.3468 0.3284 0.2514 0.3803
3906.180 0.4353 0.3638 0.3102 0.2221 0.0523 0.0386 0.16701 0.2018 0.2133 0.2542
3925.470 0.2675 0.3268 0.3783 0.3009 0.3147 0.4639 0.4928 0.3889 0.3798 0.3815
3944.760 0.3675 0.4043 0.3912 0.3235 0.2713 0.2491 0.358 0.4515 0.4898 0.4927
3964.049 0.4699 0.4596 0.3563 0.3543 0.4005 0.4883 0.5648 0.4412 0.3787 0.3609
3983.339 0.3713 0.3973 0.4263 0.4008 0.37 0.4246 0.393 0.3417 0.3218 0.4416
##END=
