##TITLE=p-Hexyloxybenzylidene p-octylaniline
##JCAMP-DX=4.24
##DATA TYPE=INFRARED SPECTRUM
##ORIGIN=EPA-IR VAPOR PHASE LIBRARY
##OWNER=SRD/NIST
Collection (C) 2018 copyright by the U.S. Secretary of Commerce
on behalf of the United States of America. All rights reserved.
##CAS REGISTRY NO=39777-28-1
##MOLFORM=C 27 H 39 N O
##$NIST SOURCE=MSDC-IR
##STATE=gas
##XUNITS=1/CM
##YUNITS=ABSORBANCE
##XFACTOR=1.
##YFACTOR=0.001
##DELTAX=1.92898
##FIRSTX=549.8
##LASTX=4000.7
##FIRSTY=1.3035
##MAXX=4000.7
##MINX=549.759
##MAXY=0.0302635
##MINY=0
##NPOINTS=1790
##XYDATA=(X++(Y..Y))
549.759 1.3035 1.4535 1.4135 1.4235 1.6335 1.5935 1.3335 1.3435 1.3735 1.1935
569.049 1.2235 1.1035 0.7642 0.6287 0.58 0.3483 0.2706 0.3533 0.4374 0.6119
588.339 0.5774 0.4219 0.3132 0.3729 0.5005 0.5674 0.6632 0.6419 0.5908 0.7566
607.628 0.8983 0.8874 0.8652 0.8772 0.8847 0.7845 0.7246 0.7074 0.6199 0.5076
626.918 0.486 0.5624 0.5211 0.4085 0.4579 0.5442 0.608 0.6362 0.4843 0.3226
646.208 0.12766 0.0439 0.14658 0.2637 0.2527 0.089329 0.0526 0.15352 0.226 0.1846
665.498 0.09855 0.0368 0.09611 0.085357 0.0131 0.07593 0.15203 0.13826 0.07699 0.082902
684.787 0.14528 0.2144 0.2597 0.2784 0.2698 0.2352 0.2797 0.3647 0.3713 0.412
704.077 0.5381 0.6458 0.6931 0.7402 0.792 0.8109 0.9036 0.927 0.862 0.8968
723.367 0.8983 0.9097 0.8498 0.7758 0.6912 0.6461 0.7439 0.7517 0.7327 0.7222
742.657 0.6187 0.499 0.5447 0.6845 0.6787 0.6665 0.6727 0.6343 0.5462 0.5073
761.947 0.5167 0.5488 0.6524 0.6243 0.4858 0.4724 0.6424 0.7394 0.7028 0.7883
781.236 0.8783 0.8392 0.9153 0.9445 0.9121 1.0154 0.9636 1.027 1.2335 1.2635
800.526 1.4435 1.6035 1.7335 1.8935 1.9435 2.0735 2.2035 2.3135 2.5035 2.6635
819.816 2.7835 3.1135 3.4735 3.7735 4.0435 4.3135 4.5635 4.7535 4.7535 4.5635
839.106 4.2335 3.9435 3.6235 3.2835 2.9535 2.6235 2.3435 2.0835 1.9835 1.8635
858.395 1.7235 1.6635 1.6835 1.7135 1.6435 1.5935 1.5835 1.7635 1.9835 2.1835
877.685 2.3735 2.6335 3.0135 3.3135 3.5635 3.5235 3.2035 2.8135 2.4135 2.0135
896.975 1.7335 1.4635 1.2635 1.2535 1.1735 1.0748 1.0285 0.9094 0.8405 0.8508
916.265 0.9005 0.9348 0.9481 0.9422 0.8467 0.878 1.0657 1.1635 1.2835 1.4235
935.555 1.4235 1.3735 1.3935 1.4035 1.2835 1.1135 1.1235 1.1835 1.1535 1.1435
954.844 1.1235 1.1935 1.2535 1.2035 1.2835 1.3035 1.2935 1.3635 1.3935 1.4235
974.134 1.3435 1.2435 1.2735 1.2835 1.2435 1.1335 1.1135 1.1835 1.2435 1.3735
993.424 1.4535 1.5735 1.7735 1.9735 2.1235 2.3535 2.6835 3.1335 3.5135 3.9535
1012.714 4.4735 4.9735 4.9535 4.5335 4.3235 4.1435 4.0835 4.0435 3.8335 3.7535
1032.003 3.7135 3.3535 3.1535 3.0135 2.7735 2.8135 2.8635 2.6735 2.5235 2.4935
1051.293 2.4435 2.4035 2.3435 2.1335 1.9935 1.7935 1.7035 1.8135 1.7035 1.5335
1070.583 1.3535 1.1835 1.2235 1.2835 1.3535 1.6135 1.5235 1.1535 0.9791 1.0807
1089.873 1.1835 1.2235 1.3835 1.4935 1.5735 1.6835 1.5435 1.4335 1.5935 1.8335
1109.163 1.8035 1.6135 1.5635 1.6035 1.6335 1.5135 1.5035 1.3635 1.3035 1.3035
1128.452 1.3735 1.5035 1.4035 1.4235 1.3635 1.2635 1.5135 1.6135 1.6235 2.0235
1147.742 2.5335 3.1535 3.9435 4.9635 6.9835 10.2935 15.2535 21.4035 25.3035 24.2135
1167.032 19.0835 13.2735 8.9535 6.2235 4.6535 3.7735 3.2135 2.8335 2.8735 3.1935
1186.322 3.7135 4.5035 5.2735 5.6435 5.7235 5.6435 5.3335 5.1735 5.2135 5.3335
1205.611 5.5635 5.8635 6.1135 6.4535 6.8835 7.2335 7.6035 8.1735 8.9435 9.8435
1224.901 10.6435 11.5535 12.6235 13.8935 15.2535 16.4835 17.7235 18.9235 20.0835 20.8935
1244.191 21.2435 21.0235 20.2135 18.8935 17.1235 15.2435 13.3335 11.4235 9.8535 8.5135
1263.481 7.3335 6.4735 5.9935 5.6835 5.3335 5.0535 4.8835 4.8235 4.7735 4.8335
1282.771 4.9835 5.1635 5.3635 5.4835 5.6835 5.8835 6.1135 6.4235 6.8235 7.3235
1302.060 7.5835 7.3735 6.7935 6.0835 5.4435 4.8335 4.2535 3.7835 3.3835 3.0735
1321.350 2.8635 2.6935 2.5135 2.3835 2.2835 2.2335 2.2335 2.2135 2.1835 2.1935
1340.640 2.2235 2.2035 2.1935 2.2035 2.2035 2.1735 2.1435 2.1135 2.1235 2.1135
1359.930 2.1135 2.1135 2.0935 2.0935 2.0835 2.0835 2.0535 2.0435 2.0835 2.1735
1379.219 2.3135 2.4435 2.6035 2.7335 2.7635 2.6835 2.4835 2.2435 2.0335 1.8735
1398.509 1.7235 1.6035 1.5635 1.5535 1.6035 1.7035 1.8535 2.1135 2.4435 2.8135
1417.799 3.1635 3.2935 3.0735 2.6435 2.2235 1.9235 1.7635 1.7335 1.7335 1.7635
1437.089 1.8335 1.9535 2.0835 2.2335 2.4035 2.6035 2.8135 2.9735 3.0935 3.2835
1456.378 3.4735 3.6135 3.7835 3.9435 4.0935 4.2935 4.6235 5.0435 5.3535 5.4635
1475.668 5.2835 4.8435 4.3235 3.8835 3.5735 3.4535 3.5335 3.7435 4.0935 4.6535
1494.958 5.3935 6.4135 7.8035 9.7535 12.3635 15.6935 19.5835 22.8635 23.8835 21.8035
1514.248 17.5435 13.0335 9.5335 7.1935 5.6135 4.5535 3.7735 3.1935 2.7435 2.3935
1533.538 2.1335 1.9135 1.7835 1.6735 1.5835 1.5635 1.5835 1.5935 1.6235 1.6335
1552.827 1.6735 1.7635 1.8935 2.1135 2.3735 2.7035 3.1435 3.7035 4.4135 5.3135
1572.117 6.3035 7.1535 7.5435 7.2635 6.6135 6.1135 6.0535 6.4735 7.3835 8.8135
1591.407 10.7135 12.9335 15.2635 17.3535 18.6735 18.8535 17.8335 16.0335 13.9735 11.9035
1610.697 9.9735 8.3235 7.0635 6.2135 5.7935 5.7935 6.1935 6.9835 8.1235 9.4935
1629.986 10.8035 11.5735 11.2435 9.8435 8.0935 6.5035 5.2735 4.3635 3.6535 3.1635
1649.276 2.7635 2.4335 2.2135 2.0335 1.8535 1.6535 1.5135 1.4435 1.3435 1.2435
1668.566 1.2135 1.1435 1.0574 1.0308 0.9645 0.9188 0.9081 0.8875 0.8321 0.7683
1687.856 0.7548 0.6934 0.664 0.6811 0.6584 0.6168 0.5697 0.5285 0.5359 0.5365
1707.146 0.488 0.4714 0.4725 0.4677 0.4757 0.5196 0.5119 0.4963 0.4981 0.4737
1726.435 0.4839 0.4698 0.4561 0.4592 0.4497 0.4397 0.4298 0.4406 0.4441 0.472
1745.725 0.4809 0.4644 0.4844 0.5089 0.5055 0.5208 0.5537 0.5525 0.5754 0.6069
1765.015 0.5938 0.57 0.5566 0.5499 0.527 0.4826 0.4415 0.4231 0.4124 0.3985
1784.305 0.3966 0.3705 0.3316 0.3129 0.3212 0.3482 0.3484 0.3374 0.3502 0.3311
1803.594 0.3078 0.3064 0.3088 0.2985 0.2765 0.2683 0.2667 0.2456 0.2266 0.2324
1822.884 0.2434 0.2392 0.2199 0.2525 0.2828 0.2601 0.259 0.292 0.2975 0.2766
1842.174 0.3049 0.3116 0.2961 0.3196 0.3181 0.3143 0.3414 0.3547 0.3269 0.3154
1861.464 0.3259 0.3353 0.3416 0.3245 0.3442 0.3784 0.4024 0.4122 0.41 0.4315
1880.754 0.4617 0.5176 0.5811 0.5946 0.5736 0.547 0.5193 0.5134 0.5069 0.4738
1900.043 0.4097 0.4096 0.4317 0.4164 0.3989 0.3758 0.3664 0.3708 0.3748 0.3605
1919.333 0.3397 0.3627 0.3985 0.3956 0.4257 0.4396 0.4043 0.3979 0.3879 0.3884
1938.623 0.4138 0.3954 0.3484 0.3511 0.3859 0.3757 0.3386 0.3318 0.3417 0.3441
1957.913 0.3262 0.3174 0.3205 0.3275 0.3275 0.3315 0.3258 0.3028 0.3311 0.353
1977.202 0.3418 0.339 0.3395 0.3154 0.3254 0.3372 0.3222 0.3499 0.3778 0.3653
1996.492 0.3571 0.3492 0.3559 0.388 0.3824 0.3844 0.3913 0.4077 0.457 0.4588
2015.782 0.442 0.4486 0.4507 0.4663 0.4469 0.4244 0.4492 0.4628 0.4598 0.4657
2035.072 0.4571 0.4385 0.4541 0.4799 0.4653 0.4578 0.4543 0.4459 0.4439 0.4449
2054.362 0.4671 0.4571 0.4302 0.4186 0.429 0.41 0.3908 0.3776 0.3695 0.3687
2073.651 0.3376 0.3446 0.379 0.3602 0.3403 0.3449 0.3564 0.3498 0.3502 0.3529
2092.941 0.3299 0.3361 0.3211 0.3115 0.3145 0.3142 0.2999 0.2729 0.2683 0.2588
2112.231 0.2323 0.2254 0.2495 0.2456 0.2074 0.2111 0.2346 0.2234 0.2112 0.2186
2131.521 0.2275 0.2305 0.2072 0.2114 0.2544 0.236 0.2086 0.2404 0.273 0.2349
2150.810 0.17557 0.1838 0.2095 0.2064 0.17901 0.16581 0.1888 0.1885 0.17852 0.1841
2170.100 0.2137 0.2219 0.2079 0.2113 0.2279 0.2314 0.1943 0.17138 0.2073 0.2054
2189.390 0.17747 0.15515 0.15372 0.2076 0.2258 0.2188 0.17993 0.17376 0.194 0.18136
2208.680 0.1931 0.1976 0.1854 0.1794 0.1892 0.17189 0.14494 0.1639 0.17037 0.15536
2227.970 0.16223 0.16519 0.1897 0.2013 0.2067 0.2218 0.2221 0.2165 0.1921 0.1869
2247.259 0.17206 0.2062 0.2282 0.2151 0.2683 0.2654 0.2294 0.2417 0.2242 0.2329
2266.549 0.2658 0.2583 0.2593 0.2656 0.266 0.2751 0.261 0.244 0.2299 0.1909
2285.839 0.208 0.2116 0.2147 0.2409 0.2304 0.2066 0.2274 0.209 0.17804 0.2036
2305.129 0.2223 0.2511 0.2497 0.2589 0.2929 0.2608 0.2383 0.2685 0.2568 0.2832
2324.418 0.3002 0.2845 0.249 0.2535 0.2685 0.2728 0.3018 0.288 0.2681 0.281
2343.708 0.2942 0.2444 0.2384 0.2779 0.2593 0.2521 0.2939 0.2758 0.2548 0.293
2362.998 0.2931 0.2591 0.2423 0.2717 0.2598 0.2492 0.2884 0.2979 0.3292 0.3071
2382.288 0.2663 0.2695 0.2799 0.2912 0.2957 0.2951 0.2915 0.3198 0.3386 0.3461
2401.578 0.3357 0.3151 0.2933 0.3077 0.3332 0.316 0.3275 0.3316 0.3112 0.2888
2420.867 0.2686 0.2856 0.2966 0.3157 0.3347 0.304 0.3059 0.3271 0.3342 0.3274
2440.157 0.296 0.3024 0.3335 0.3388 0.3416 0.3898 0.4102 0.3872 0.3818 0.3883
2459.447 0.4011 0.3881 0.3898 0.3776 0.3836 0.4247 0.4323 0.4108 0.3826 0.3793
2478.737 0.3656 0.3892 0.4354 0.4281 0.3914 0.388 0.4282 0.4591 0.4487 0.405
2498.026 0.3784 0.3858 0.3945 0.3963 0.4108 0.4137 0.386 0.4127 0.4432 0.4131
2517.316 0.4063 0.4423 0.462 0.4528 0.4586 0.4405 0.4526 0.4724 0.4683 0.5206
2536.606 0.552 0.5386 0.5305 0.5513 0.5482 0.5195 0.5164 0.5111 0.4858 0.4852
2555.896 0.4645 0.4663 0.5101 0.5041 0.5187 0.5353 0.4882 0.4946 0.5476 0.5167
2575.186 0.4396 0.4015 0.4232 0.4631 0.4717 0.4184 0.3792 0.3681 0.394 0.4094
2594.475 0.4008 0.4418 0.4546 0.4531 0.4206 0.383 0.3978 0.4087 0.4269 0.4514
2613.765 0.4275 0.372 0.3519 0.3776 0.4132 0.4252 0.426 0.4355 0.4464 0.3945
2633.055 0.3518 0.3688 0.4076 0.4702 0.4905 0.4599 0.4375 0.4544 0.4503 0.4273
2652.345 0.481 0.5283 0.4634 0.4526 0.5186 0.549 0.5044 0.4693 0.4725 0.4869
2671.634 0.5061 0.5021 0.5035 0.4943 0.5346 0.5785 0.5145 0.4756 0.4964 0.5211
2690.924 0.5137 0.4885 0.4564 0.4669 0.5254 0.5262 0.5228 0.5533 0.5443 0.5141
2710.214 0.5362 0.4882 0.4575 0.5108 0.5555 0.6046 0.6106 0.6158 0.6618 0.6361
2729.504 0.59 0.6246 0.6531 0.6937 0.7066 0.7147 0.7862 0.8082 0.8007 0.8044
2748.794 0.8173 0.8034 0.7954 0.8059 0.7968 0.7825 0.7824 0.7896 0.7757 0.7788
2768.083 0.793 0.7972 0.8076 0.812 0.7959 0.7799 0.8155 0.8671 0.8528 0.8081
2787.373 0.8445 0.879 0.8813 0.9505 1.0396 1.1435 1.1835 1.1235 1.1535 1.2235
2806.663 1.2135 1.2735 1.3435 1.4035 1.4535 1.5035 1.5635 1.6135 1.7335 1.8735
2825.953 1.9535 2.0935 2.2635 2.4035 2.5635 2.8335 3.1035 3.3235 3.6335 4.0335
2845.242 4.5435 5.1835 5.8335 6.6335 7.6335 8.7535 9.8935 11.0535 11.9835 12.5435
2864.532 12.7935 12.7135 12.3835 11.9635 11.5435 11.1135 10.7535 10.4535 10.2135 10.0635
2883.822 9.8335 9.4935 9.1535 8.8235 8.6035 8.5235 8.5035 8.5735 8.8435 9.2235
2903.112 9.7335 10.3335 10.9635 11.7435 12.6535 13.5435 14.5635 15.7935 17.0935 18.6035
2922.401 20.3535 22.2635 24.4135 26.5935 28.4235 29.7035 30.2635 30.0235 29.1135 27.6935
2941.691 25.9835 24.0935 22.1635 20.3035 18.6035 17.2035 16.1535 15.4335 14.9835 14.8235
2960.981 14.8035 14.8835 14.9535 14.8535 14.4535 13.7035 12.6135 11.1835 9.7935 8.6035
2980.271 7.4835 6.5335 5.7835 5.1635 4.7335 4.3935 4.0435 3.8335 3.6635 3.4435
2999.561 3.3035 3.1735 3.0535 2.9735 2.8735 2.7735 2.6735 2.7135 2.8735 2.9735
3018.850 3.1435 3.4635 3.8135 4.1135 4.3435 4.4035 4.1635 3.7435 3.4335 3.2435
3038.140 2.9935 2.7535 2.5335 2.2735 2.0935 1.9735 1.9135 1.9035 1.9335 1.9135
3057.430 1.8535 1.8435 1.8535 1.9035 1.9735 2.0835 2.1635 2.2635 2.3835 2.4935
3076.720 2.4735 2.2935 2.1135 1.9635 1.8035 1.7035 1.5535 1.4435 1.4035 1.2835
3096.009 1.2435 1.2735 1.2935 1.1735 1.0102 0.9748 0.9358 0.9467 0.9409 0.8842
3115.299 0.8144 0.7626 0.7764 0.7157 0.6641 0.684 0.6229 0.5578 0.5046 0.4542
3134.589 0.4675 0.5365 0.5444 0.4395 0.4539 0.4609 0.4319 0.4611 0.4539 0.4048
3153.879 0.4026 0.3946 0.337 0.3389 0.3523 0.3327 0.3335 0.3604 0.3285 0.2597
3173.169 0.2516 0.3525 0.3706 0.2954 0.2848 0.3094 0.2946 0.2794 0.3431 0.4144
3192.458 0.4127 0.378 0.3614 0.2975 0.2747 0.2967 0.2855 0.2436 0.2393 0.303
3211.748 0.3044 0.2911 0.3234 0.2662 0.2358 0.2539 0.2384 0.2794 0.3011 0.3533
3231.038 0.3814 0.3879 0.3743 0.3524 0.3989 0.3917 0.3135 0.2391 0.21 0.2161
3250.328 0.2613 0.3271 0.3463 0.2932 0.2766 0.3413 0.3192 0.2882 0.2883 0.2421
3269.617 0.1836 0.1991 0.2381 0.2292 0.1956 0.2083 0.2063 0.2332 0.2052 0.09626
3288.907 0.1837 0.2657 0.2447 0.2398 0.2077 0.1547 0.1966 0.1944 0.15046 0.13688
3308.197 0.16408 0.2407 0.2536 0.2269 0.17898 0.14484 0.10363 0.0558 0.07683 0.15639
3327.487 0.1906 0.1989 0.1971 0.11091 0.085359 0.12532 0.18313 0.17532 0.09528 0.14136
3346.777 0.2105 0.2056 0.1871 0.2139 0.2147 0.16905 0.13967 0.089787 0.0608 0.092524
3366.066 0.12847 0.1958 0.17595 0.12134 0.1556 0.13714 0.15275 0.1939 0.2186 0.2374
3385.356 0.2899 0.268 0.16048 0.15556 0.1719 0.13168 0.14339 0.1932 0.2082 0.14922
3404.646 0.079 0.07634 0.0835879 0.10755 0.11525 0.10095 0.12463 0.13153 0.09556 0.12933
3423.936 0.13928 0.1152 0.15379 0.17065 0.2299 0.2815 0.2587 0.2424 0.1958 0.1955
3443.225 0.2246 0.2033 0.17885 0.15936 0.14088 0.1231 0.18044 0.2055 0.10348 0.088299
3462.515 0.11392 0.088216 0.13248 0.12761 0.0679 0.091976 0.11225 0.14596 0.11788 0.12008
3481.805 0.17169 0.1677 0.14413 0.16628 0.14384 0.16711 0.1959 0.088281 0.0678 0.0268
3501.095 0.085207 0.16812 0.10196 0.07493 0.16596 0.2368 0.2221 0.15035 0.1271 0.184
3520.385 0.16178 0.12219 0.1932 0.1983 0.11213 0.10978 0.11792 0.11162 0.10119 0.092982
3539.674 0.085779 0.0604 0.09792 0.17272 0.17732 0.14636 0.10054 0.0936 0.0991 0.0057
3558.964 0 0.0411 0.082777 0.11208 0.0708 0.09639 0.14887 0.17954 0.14566 0.1578
3578.254 0.2023 0.12434 0.0505 0.0782 0.13282 0.1446 0.14698 0.2072 0.2429 0.2188
3597.544 0.11143 0.0414 0.0074 0.0019 0.11241 0.1877 0.2327 0.2327 0.2283 0.16874
3616.833 0.11822 0.16365 0.17026 0.16018 0.16057 0.14996 0.14523 0.17108 0.15331 0.13884
3636.123 0.15612 0.15704 0.254 0.2138 0.0619 0.085938 0.10034 0.1404 0.2305 0.1973
3655.413 0.11492 0.1931 0.293 0.241 0.14317 0.1507 0.18131 0.218 0.2718 0.2671
3674.703 0.253 0.1881 0.11898 0.12864 0.17928 0.2079 0.18147 0.16917 0.1367 0.13342
3693.993 0.16595 0.1922 0.16801 0.18339 0.2079 0.14361 0.11591 0.12103 0.07958 0.0198
3713.282 0.0296 0.11333 0.17618 0.2139 0.2513 0.2182 0.1967 0.17412 0.2137 0.2218
3732.572 0.11926 0.0557 0.0321 0.0326 0.11751 0.2221 0.2829 0.2217 0.10547 0.0602
3751.862 0.0641 0.083256 0.16681 0.2275 0.2106 0.2162 0.13182 0.13658 0.2409 0.2238
3771.152 0.2662 0.2108 0.11636 0.1372 0.13054 0.14006 0.11865 0.12989 0.13813 0.14178
3790.441 0.2012 0.16596 0.14127 0.14363 0.12517 0.10705 0.13145 0.18181 0.1895 0.13949
3809.731 0.16156 0.18191 0.12768 0.13877 0.16539 0.15953 0.17665 0.194 0.14268 0.0776
3829.021 0.091843 0.248 0.2194 0.17698 0.1924 0.11751 0.11538 0.10684 0.13538 0.17242
3848.311 0.1955 0.2273 0.2129 0.2287 0.2006 0.12867 0.17455 0.14852 0.10826 0.17
3867.601 0.12524 0.0699 0.087829 0.1145 0.13587 0.088948 0.10545 0.14435 0.2261 0.2962
3886.890 0.2319 0.15164 0.10295 0.13139 0.14342 0.1916 0.2046 0.2232 0.2212 0.197
3906.180 0.2478 0.2561 0.216 0.15253 0.1709 0.15015 0.0776 0.14552 0.2284 0.2041
3925.470 0.2329 0.2386 0.14766 0.112 0.07651 0.0645 0.0513 0.0331 0.082638 0.11206
3944.760 0.16087 0.2072 0.1925 0.2522 0.2811 0.2459 0.15604 0.17227 0.2696 0.2165
3964.049 0.2483 0.2506 0.15375 0.1889 0.199 0.17836 0.199 0.2166 0.2646 0.2296
3983.339 0.2425 0.3128 0.3071 0.2629 0.1883 0.1442 0.2098 0.2112 0.1864 0.2284
##END=
