##TITLE=4-Styrylpyridazine
##JCAMP-DX=4.24
##DATA TYPE=INFRARED SPECTRUM
##ORIGIN=EPA-IR VAPOR PHASE LIBRARY
##OWNER=SRD/NIST
Collection (C) 2018 copyright by the U.S. Secretary of Commerce
on behalf of the United States of America. All rights reserved.
##CAS REGISTRY NO=39816-19-8
##MOLFORM=C 12 H 10 N 2
##$NIST SOURCE=MSDC-IR
##STATE=gas
##XUNITS=1/CM
##YUNITS=ABSORBANCE
##XFACTOR=1.
##YFACTOR=0.001
##DELTAX=1.92898
##FIRSTX=549.8
##LASTX=4000.7
##FIRSTY=3.71
##MAXX=4000.7
##MINX=549.759
##MAXY=0.03261
##MINY=0
##NPOINTS=1790
##XYDATA=(X++(Y..Y))
549.759 3.71 2.0885 2.1226 2.3349 2.5538 2.77 2.0007 3.36 3.9 2.74
569.049 1.9016 1.261 0.565 0.14 1.61439 2.1276 2.2991 2.73 2.93 2.4945
588.339 0.984 0.693 1.328 1.9741 1.7762 1.164 1.21 1.7414 1.411 0.784
607.628 1.176 1.8332 2.1634 1.7545 1.65803 1.406 1.027 1.368 0.715 0.912
626.918 1.9523 2.1007 2.3772 2.2456 2.1342 2.58 2.8 2.71 2.2699 2.3911
646.208 2.57 2.1304 2.1844 2.2831 2.429 2.99 3.6 4 4.64 5.4
665.498 6.28 7.19 8.09 8.87 9.85 10.74 10.8 11.01 11.61 11.72
684.787 11.98 12.59 12.47 11.71 11.79 12.02 11.06 10.39 10.43 9.39
704.077 7.95 8.59 8.62 7.03 6.08 6.04 6.24 5.99 5.84 6.32
723.367 7.14 7.88 8.61 9.27 10.72 12.05 12.39 12.9 12.99 12.79
742.657 12.38 11.92 11.73 10.96 9.75 9.02 8.4 7.97 7.16 5.78
761.947 5.2 5.06 4.43 3.91 3.93 4.27 3.49 2.1496 2.2727 3.05
781.236 3.15 3.03 3.06 2.9 3.1 2.71 2.191 3.18 3.58 3.48
800.526 3.18 3.04 3.96 4.61 4.79 5.03 5.52 6.47 6.53 6.51
819.816 6.58 4.86 3.79 4.5 6.01 6.28 5.77 4.84 3.96 4.07
839.106 3.89 3.42 3.29 3.72 3.94 3.64 3.76 3.68 3.81 4.32
858.395 4.15 4.38 4.93 4.58 4.15 4.18 4.29 4.58 4.47 4.41
877.685 4.09 3.71 3.59 3.48 3.66 3.71 3.64 3.5 3.58 3.62
896.975 3.1 2.6 2.2878 1.9249 2.3932 2.82 3.14 3.48 3.17 2.89
916.265 2.478 3.06 3.88 4.04 4.29 3.86 3.67 4.15 4.65 4.65
935.555 4.91 5.37 5.42 6.2 7.24 8.05 9.39 10.73 11.94 13.31
954.844 13.81 14.64 16.31 16.53 15.63 14.91 14.75 14 12.37 12
974.134 12.47 12.43 12.73 13.55 13.81 12.84 11.42 9.9 8.13 7.35
993.424 6.14 4.52 3.87 3.38 2.8 2.4693 2.4778 2.91 2.5134 1.64782
1012.714 2.549 2.72 2.4503 3.5 3.1 2.59 3.25 4.4 4.52 4.25
1032.003 4.65 4.23 3.83 3.27 4.02 5.6 5.77 5.5 4.92 4.05
1051.293 3.48 4.03 4.48 4.07 3.91 4.03 4.06 3.39 2.1806 2.87
1070.583 5.13 5.36 4.03 3.95 3.43 3.03 4.88 5.03 3.19 2.4242
1089.873 3.38 3.73 2.2623 2.2693 2.74 2.4408 2.89 2.1342 1.068 2.4405
1109.163 2.99 2.0223 0.07 0.55 3.66 3.56 1.5282 1.029 1.8433 1.233
1128.452 1.395 2.7 2.0667 0.959 1.6756 2.78 2.92 3.01 3.27 2.87
1147.742 2.2423 2.1548 2.1369 2.2282 2.59 2.3746 2.5344 2.4485 2.79 2.93
1167.032 1.4601 2.2745 3.57 3.44 2.4567 2.1151 2.3583 1.9035 2.0611 2.76
1186.322 3.31 2.1492 1.547 2.1355 2.4899 2.0567 1.5256 1.221 2.2372 3.95
1205.611 1.8239 0 0.821 0.65 2.1934 2.94 3.28 4.2 3.8 3.3
1224.901 1.7763 1.437 2.4786 2.85 2.3558 2.1838 1.7654 1.57785 2.2814 3.12
1244.191 4.22 3.67 3.38 3.37 2.0831 2.5197 3.23 2.85 2.97 2.77
1263.481 2.79 3.37 3.11 2.68 2.532 3.07 3.84 3.96 3.96 4.05
1282.771 3.99 4.26 4.16 3.84 3.62 3.75 3.8 3.56 3.79 3.72
1302.060 3.42 3.27 3.36 3.58 3.37 3.31 3.57 3.41 3.29 3.62
1321.350 3.76 3.66 3.55 3.47 3.76 3.86 3.69 3.58 3.57 3.76
1340.640 3.69 3.7 4.08 4.41 4.64 4.8 4.98 5.24 5.61 6.05
1359.930 6.48 6.31 5.95 6.09 5.86 5.2 4.51 4.04 3.87 3.69
1379.219 3.45 3.3 3.15 3.01 2.97 2.89 2.68 2.5362 2.5331 2.5369
1398.509 2.4864 2.59 2.4892 2.2043 2.1192 2.1771 2.2235 2.2657 2.3003 2.1426
1417.799 2.2488 2.4663 2.5222 2.58 2.58 2.77 2.85 3.1 3.47 3.44
1437.089 3.48 3.47 3.54 3.86 4.17 4.52 4.75 4.72 4.66 4.36
1456.378 4.02 3.77 3.43 3.05 2.93 3 2.95 2.74 2.64 2.72
1475.668 2.81 2.95 3.21 3.42 3.86 4.56 5.02 5.72 6.3 6.48
1494.958 6.51 6.39 5.64 4.31 3.59 3.08 3.01 3.1 2.82 2.89
1514.248 2.87 2.81 2.82 2.69 2.74 2.77 2.7 2.77 3.03 3.29
1533.538 3.26 3.12 2.96 3.2 3.47 3.65 3.91 4.05 4.25 4.63
1552.827 5.22 5.99 6.81 8.3 10.16 12.31 15.05 18.76 23.18 27.03
1572.117 30.6 32.61 32.58 31.14 27.74 23.54 19.49 15.44 12.13 10.1
1591.407 9.17 8.22 7.48 7.2 6.94 6.53 6.21 6.02 5.62 5.14
1610.697 4.66 4.29 4.35 4.62 4.83 5.12 5.44 5.99 6.69 7.32
1629.986 8.11 8.99 9.43 9.51 9.42 8.88 8.02 6.95 5.97 5.21
1649.276 4.37 4.03 4.13 3.83 3.44 3.38 3.33 3.17 3.17 3.25
1668.566 3.16 2.69 2.71 2.79 2.4821 2.57 2.68 2.4664 2.5418 2.98
1687.856 2.9 2.67 2.6 2.58 2.71 2.5381 2.1697 2.0145 2.2063 2.4873
1707.146 2.3495 2.3144 2.3909 2.2268 2.3942 2.5473 2.539 2.61 2.63 2.75
1726.435 2.58 2.4564 2.87 3.17 3.11 2.68 2.5558 2.78 2.75 2.63
1745.725 2.74 2.82 2.5589 2.4734 2.491 2.3506 2.4759 2.92 2.88 2.7
1765.015 3.03 3.15 2.96 2.95 3.05 3.01 3.02 3.04 3.03 3.04
1784.305 3.21 3.39 3.39 3.34 3.27 3.36 3.28 3.09 2.97 2.72
1803.594 2.73 3.03 2.98 2.75 2.87 3.16 3.19 2.96 2.86 3.1
1822.884 3.22 3.08 2.93 2.68 2.63 2.63 2.5134 2.63 2.74 2.65
1842.174 2.5543 2.58 2.5396 2.4034 2.4241 2.531 2.3991 2.3294 2.4611 2.4254
1861.464 2.3215 2.5188 2.62 2.5256 2.81 2.9 2.69 2.6 2.75 2.79
1880.754 2.58 2.57 2.4225 2.3469 2.7 2.71 2.57 2.61 2.3494 2.2574
1900.043 2.3545 2.1643 2.0776 2.2693 2.3314 2.3202 2.5028 2.4918 2.2791 2.4936
1919.333 2.82 2.82 2.76 2.92 2.96 2.95 3.16 3.13 3.02 3.24
1938.623 3.35 3.2 3.15 3.18 3.18 3.1 3.13 3.13 3.02 3.05
1957.913 3.09 3.14 2.93 2.66 2.5173 2.4018 2.3648 2.0667 2.0994 2.1183
1977.202 1.9437 2.128 1.9346 1.7445 1.9856 2.2183 2.0694 1.8129 1.7365 1.7335
1996.492 1.7484 1.9544 1.9843 1.63553 1.7547 1.7446 1.6965 1.9348 2.0334 1.8578
2015.782 1.7836 1.9597 1.9465 1.8565 1.893 2.0329 2.0057 1.8681 1.8936 1.9433
2035.072 2.0665 2 1.8867 1.9025 1.8012 1.8157 1.893 1.8932 1.9761 1.8327
2054.362 1.63711 1.8888 2.0679 1.9544 1.8391 1.798 1.7758 1.7045 1.7619 1.9255
2073.651 1.8375 1.7201 1.8396 2.1316 2.0408 2.0758 2.2808 2.1197 1.9847 1.8518
2092.941 1.785 2.0492 2.1264 1.7173 1.68 1.9723 1.9937 1.8974 1.8508 2.0027
2112.231 2.0576 1.885 1.8531 1.8669 1.8694 1.9958 2.1556 2.1124 2.0317 2.3443
2131.521 2.3213 1.9062 1.8714 2.0642 1.9848 1.9721 1.9597 1.8006 1.9475 2.062
2150.810 2.1411 1.8849 1.7679 1.7054 1.60243 1.76 1.63639 1.5835 1.393 1.4931
2170.100 1.9195 1.7928 1.841 2.2259 2.1321 1.8878 2.0423 2.2082 2.1229 2.0729
2189.390 2.0867 1.9936 2.097 2.1383 1.9631 1.8831 1.9173 1.9565 1.9132 2.0036
2208.680 1.8033 1.6932 2.0109 2.0452 1.773 1.6818 1.9012 1.976 2.1165 2.0635
2227.970 1.8062 1.74 1.7548 1.9042 1.9354 2.0286 2.2638 2.2813 2.1524 1.9815
2247.259 2.1326 2.362 2.2972 2.1087 1.9223 1.811 1.749 1.8607 2.0378 2.1906
2266.549 2.3767 2.2011 1.9678 1.8445 1.62203 1.6658 1.63961 1.9239 2.187 2.0165
2285.839 1.8844 1.9988 2.0704 1.901 1.6648 1.57269 1.7596 1.8866 1.6891 1.7197
2305.129 1.918 1.9021 1.9766 2.0703 2.1283 1.9467 1.6775 1.7978 1.9043 1.5457
2324.418 1.411 1.5178 1.7131 2.0955 1.9498 1.6862 1.9231 1.9776 1.8393 1.9395
2343.708 1.9359 2.0696 2.3168 2.2959 2.1406 1.9043 1.7699 1.59575 1.5278 1.7795
2362.998 2.0071 1.917 1.7079 1.7299 1.7868 1.8241 1.8839 1.8252 1.8671 1.7553
2382.288 1.725 1.59034 1.36 1.5463 1.60507 1.4929 1.7409 1.8743 1.6686 1.5567
2401.578 1.8267 2.051 1.9892 2.1129 1.8748 1.64797 1.7176 1.6716 1.7867 1.64507
2420.867 1.274 1.4746 2.0398 2.2057 2.0243 1.8635 1.64508 1.5498 1.4884 1.4645
2440.157 1.5107 1.57246 1.7459 1.7741 1.8788 1.9464 1.8322 1.9677 1.8654 1.55519
2459.447 1.58375 1.7119 1.8139 1.9171 1.9661 1.8322 1.436 1.43 1.55771 1.5108
2478.737 1.7399 1.9821 1.9323 1.8129 1.59294 1.6852 1.61124 1.4718 1.393 1.177
2498.026 1.278 1.497 1.5308 1.5236 1.62533 1.61023 1.7727 1.7267 1.8068 1.7486
2517.316 1.428 1.59377 1.7988 1.8134 1.844 2.0127 2.0302 2.0746 2.1163 1.857
2536.606 1.5225 1.317 1.406 1.6756 1.8091 1.4868 1.5294 1.61851 1.60591 1.64606
2555.896 1.5354 1.5393 1.6648 1.725 1.4878 1.6958 1.7808 1.63034 1.7346 1.8921
2575.186 1.8652 1.9321 2.0897 1.7639 1.8561 1.857 1.7598 1.8813 1.8089 1.9125
2594.475 1.9101 1.6997 1.6857 1.6892 1.65691 1.41 1.424 1.62688 1.8215 1.8771
2613.765 1.5761 1.7862 2.1752 2.3256 2.2198 1.59174 1.415 1.7203 1.7599 1.58669
2633.055 1.63263 1.7303 1.56271 1.57214 1.4979 1.5462 1.6773 1.405 1.305 1.317
2652.345 1.244 1.5312 1.7297 1.60504 1.8144 1.8585 1.431 1.424 1.59731 1.9258
2671.634 1.8977 1.6977 1.7294 1.60361 1.7315 1.453 1.354 1.62314 1.194 1.389
2690.924 1.7229 1.7969 2.0374 1.7779 1.60143 1.57145 1.353 1.362 1.64734 1.9132
2710.214 1.6669 1.398 1.58458 1.7561 1.7069 1.59514 1.7521 1.59909 1.233 1.5453
2729.504 1.58443 1.4719 1.64201 1.8615 1.6796 1.408 1.8318 1.6398 1.55548 2.0474
2748.794 1.9963 1.6775 1.344 1.357 1.426 1.293 1.357 1.453 1.394 1.288
2768.083 1.353 1.354 1.56325 1.9209 1.8896 1.5905 1.56293 1.7293 1.435 1.244
2787.373 1.291 1.6644 1.99 2.0574 1.9604 1.4755 1.225 1.418 1.4749 1.375
2806.663 1.546 1.7 1.4726 1.436 1.7944 2.0053 1.9681 1.9097 1.5408 1.328
2825.953 1.6898 1.63859 1.7187 2.1406 2.0122 1.57953 1.60952 1.9626 2.0936 1.9257
2845.242 1.958 1.8543 1.357 1.394 1.63799 1.8017 2.0836 2.3301 2.4576 1.9696
2864.532 1.699 1.8687 1.8959 1.9153 1.8149 2.2655 2.62 2.1709 1.7175 1.9454
2883.822 2.2564 2.4436 2.529 2.2653 2.1197 2.2735 2.1267 2.1384 2.58 2.1887
2903.112 2.3049 2.75 2.476 2.3697 2.2569 2.1697 1.9596 1.8658 2.4126 2.8
2922.401 2.58 2.3742 2.3375 2.494 2.4756 2.3694 2.3759 2.0566 1.9272 2.0934
2941.691 2.3432 2.4909 2.4988 2.67 2.84 2.95 2.4518 2.4707 2.83 2.59
2960.981 2.7 2.8 3.11 3.19 2.81 2.57 2.67 2.63 2.97 3.14
2980.271 2.79 2.552 2.74 3.22 2.84 3.05 3.49 3.14 3.13 3.44
2999.561 3.88 4.01 4.35 4.22 3.85 4.31 4.81 5.4 5.92 6.23
3018.850 6.67 7.48 8.49 9.78 11.55 13.14 14.49 15.74 16.9 17.37
3038.140 17.76 17.67 16.52 15.24 14.36 13.47 12.33 12.03 11.8 11.82
3057.430 12.46 13.46 14.4 15.04 16.53 18.14 19.3 19.72 19.32 18.66
3076.720 16.74 14.75 13.6 12.15 11.42 11.11 10.69 10.12 9.32 8.99
3096.009 8.03 6.97 6.65 6.44 6.26 5.42 4.88 4.83 4.5 4.43
3115.299 3.94 3.35 2.77 2.82 3.01 2.69 2.79 3.07 3.25 2.5509
3134.589 2.0065 2.2298 1.9424 1.8769 2.1129 2.1978 2.1502 2.1549 2.1856 2.3643
3153.879 2.72 2.4956 2.2033 1.9185 1.65994 1.414 1.17 1.333 1.57904 1.60671
3173.169 1.7752 2.3223 2.2325 1.8127 1.9535 2.1433 2.0221 2.0984 1.9911 1.5172
3192.458 0.922 1.26 2.088 2.2733 1.7806 1.019 1.038 1.379 1.272 0.981
3211.748 1.203 1.292 1.66 1.816 1.7588 1.8818 1.4 1.431 1.8276 1.7463
3231.038 1.338 1.186 1.305 1.232 1.4758 1.7762 1.5234 0.918 0.797 1.044
3250.328 1.176 1.4615 1.462 1.381 1.186 0.941 1.049 1.6867 2.041 1.9232
3269.617 1.8733 1.7073 1.252 1.297 1.5259 1.5196 1.7274 2.0963 2.0581 1.64799
3288.907 1.7369 1.8043 1.7455 1.62512 1.56357 1.56389 1.6694 1.326 1.5157 1.9784
3308.197 1.8006 1.8466 1.6874 1.434 1.7804 2.3857 2.0891 1.348 1.63781 2.0845
3327.487 1.7737 1.5282 1.63844 1.59624 1.133 1.166 1.403 1.074 1.139 1.186
3346.777 1.288 1.5526 1.60205 1.5292 1.59364 1.9912 1.8115 1.414 1.151 1.437
3366.066 1.8795 1.422 1.323 1.62586 1.347 0.718 0.643 0.879 1.06 1.391
3385.356 1.7398 1.416 0.931 1.087 1.35 2.0478 1.9241 1.58494 1.9906 1.8575
3404.646 1.7387 1.59985 1.33 1.61295 1.7692 1.56278 1.161 0.913 1.074 1.6652
3423.936 1.41 0.959 1.32 1.433 1.9657 2.3297 1.8787 1.4762 1.222 1.313
3443.225 1.4746 0.96 0.942 1.4699 1.65993 1.118 1.028 1.7785 1.28 1.172
3462.515 1.829 1.9461 1.8463 1.6968 1.4926 1.58232 1.59165 1.59824 1.413 0.854
3481.805 0.95 1.235 1.367 1.4942 1.8752 1.7978 1.433 0.95 0.807 0.861
3501.095 0.823 1.4934 1.9079 2.2816 1.9733 1.65328 1.7184 1.56268 1.203 1.147
3520.385 1.373 1.423 1.5275 1.204 1.025 1.174 1.402 1.163 1.365 1.7488
3539.674 1.7944 1.7635 1.7055 1.8481 1.5369 1.209 1.101 0.905 1.049 1.7152
3558.964 1.9706 1.046 0.712 1.209 1.4948 1.433 1.023 0.894 0.888 1.024
3578.254 1.408 1.7966 1.457 0.917 0.883 1.5164 1.7731 1.5097 1.6813 1.6627
3597.544 1.045 1.307 1.9831 1.27 1.202 1.766 1.7322 1.9538 1.8987 1.8674
3616.833 2.0153 1.5378 1.438 1.244 1.295 1.7632 1.56487 1.56518 1.41 1.61088
3636.123 2.1524 2.66 2.5173 1.9403 1.61504 1.5245 1.5387 1.226 1.62138 1.9416
3655.413 1.7848 1.8079 2.1823 2.0161 1.707 1.58308 1.57981 1.257 1.237 1.8987
3674.703 1.64417 1.373 1.069 1.241 1.8504 1.335 1.225 1.5289 1.61753 1.7452
3693.993 1.57337 1.8564 1.9637 1.7113 1.9041 1.55904 0.977 0.798 1.163 1.9604
3713.282 2.0159 1.7702 1.8161 2.0338 1.94 1.9912 1.9875 2.1908 2.1343 1.58643
3732.572 1.4903 1.4924 1.038 0.951 1.6847 1.8976 1.7445 2.1164 2.0048 1.6766
3751.862 1.777 2.1938 2.4498 2.154 1.6734 1.5042 1.9766 1.8553 1.6834 1.59432
3771.152 1.226 1.6717 2.3215 2.269 1.7574 0.748 0.871 1.9587 2.0654 1.7628
3790.441 1.7442 1.7854 1.63978 1.4856 1.319 1.321 1.63465 1.7619 1.61665 1.304
3809.731 1.5111 1.8029 1.272 1.041 1.7986 2.0571 2.1295 2.0486 1.59324 1.7048
3829.021 2.0625 1.7125 1.404 1.398 1.325 0.955 1.362 1.9122 1.264 1.5706
3848.311 1.7502 1.5061 1.7144 1.04 0.43 0.49 1.096 1.4611 1.25 1.385
3867.601 0.845 0.29 1.048 1.345 1.232 1.56549 2.1537 2.2365 1.9919 1.9618
3886.890 1.59551 1.9973 1.9864 1.5122 1.63743 1.383 1.335 1.24 1.5275 1.7523
3906.180 1.5193 1.60871 1.6801 2.0162 1.8143 1.7184 1.6755 1.7628 2.186 2.1292
3925.470 1.801 1.9682 2.2199 2.2569 2.5095 2.2933 1.7098 1.7904 1.63001 1.316
3944.760 1.9617 2.4949 1.9059 1.232 1.098 0.55 0.753 2.0273 1.9493 1.4772
3964.049 1.7528 1.6821 1.56183 0.968 1.5043 2.1926 1.6884 1.961 2.4875 2.1489
3983.339 1.65064 1.414 1.58581 1.60919 2.0049 2.0466 1.5393 1.229 1.308 1.458
##END=
