##TITLE=5-Phenyl-o-anisidine
##JCAMP-DX=4.24
##DATA TYPE=INFRARED SPECTRUM
##ORIGIN=EPA-IR VAPOR PHASE LIBRARY
##OWNER=SRD/NIST
Collection (C) 2018 copyright by the U.S. Secretary of Commerce
on behalf of the United States of America. All rights reserved.
##CAS REGISTRY NO=39811-17-1
##MOLFORM=C 13 H 13 N O
##$NIST SOURCE=MSDC-IR
##STATE=gas
##XUNITS=1/CM
##YUNITS=ABSORBANCE
##XFACTOR=1.
##YFACTOR=0.001
##DELTAX=1.92898
##FIRSTX=549.8
##LASTX=4000.7
##FIRSTY=13.07
##MAXX=4000.7
##MINX=549.759
##MAXY=0.15624
##MINY=0.0001752
##NPOINTS=1790
##XYDATA=(X++(Y..Y))
549.759 13.07 13.13 13.22 13.49 13.62 14.25 15.22 15.79 16.24 16.45
569.049 16.99 17.68 17.85 17.78 17.82 18.28 18.59 18.53 18.89 20.03
588.339 21.23 22.85 24.73 26.13 27.43 27.91 27.31 26.24 24.31 21.65
607.628 19.44 18.05 17.16 16.41 15.68 15.57 15.69 15.59 15.39 15.25
626.918 15.45 15.6 15.59 15.92 16.49 16.69 16.88 17.17 17.18 17.29
646.208 17.44 17.63 17.92 18.11 18.44 18.94 19.3 19.81 20.43 20.9
665.498 21.27 21.64 22.09 22.48 22.73 23.27 24.23 25.18 26.75 28.96
684.787 31.58 34.9 38.34 41.52 44.59 47.16 48.31 47.74 46.22 43.62
704.077 40.41 37.04 33.39 30.09 27.37 25.31 23.65 22.46 21.82 21.42
723.367 21.28 21.6 22.23 22.89 23.85 25 26.27 28.26 30.91 33.94
742.657 37.44 41.62 46.37 51.18 55.69 59.48 62.14 63.42 62.84 60.48
761.947 56.63 51.84 46.73 41.24 35.99 31.37 27.22 23.91 21.68 20.07
781.236 18.82 17.98 17.72 17.63 17.72 18.51 19.45 20.36 21.37 22.24
800.526 22.8 22.94 22.79 22.46 21.55 20.38 19.11 17.52 16.18 14.99
819.816 13.69 12.64 12 11.37 10.81 10.36 9.97 9.76 9.77 9.82
839.106 9.96 10.43 11.03 11.77 12.64 13.95 15.53 16.94 18.3 19.55
858.395 20.56 21.49 21.57 20.91 19.66 18.16 16.98 15.5 14.1 12.69
877.685 11.62 11.06 10.48 10.05 9.91 10.05 10.28 10.31 10.75 11.23
896.975 11.12 11.03 10.86 10.44 10.01 9.56 9.04 8.49 7.97 7.47
916.265 7.02 6.53 6.23 5.94 5.56 5.53 5.59 5.58 5.58 5.43
935.555 5.36 5.36 5.25 5.28 5.47 5.62 5.54 5.42 5.57 5.83
954.844 5.99 5.91 6.15 6.38 6.38 6.51 6.67 6.85 7.01 7.17
974.134 7.38 7.67 7.82 8.12 8.45 8.89 9.37 9.62 10.09 10.7
993.424 11.26 11.85 12.6 13.58 14.67 15.86 17.16 18.95 21.4 24.04
1012.714 26.59 28.95 30.53 31.04 30.76 29.92 28.5 26.98 25.38 24.19
1032.003 23.82 23.88 24.57 25.79 27.54 29.77 32.31 34.39 35.86 36.43
1051.293 35.71 33.76 30.96 27.94 24.91 21.96 19.7 17.95 16.32 15.26
1070.583 14.51 13.83 13.42 12.97 12.36 11.9 11.86 12.34 12.65 12.98
1089.873 13.21 13.33 13.55 13.54 13.58 13.23 12.6 12.5 12.35 12.11
1109.163 11.51 10.88 10.81 10.44 10.29 10.44 10.05 9.94 10.58 11.02
1128.452 11.83 12.67 13.62 15.43 17.18 19.61 22.84 26.04 29.11 32.05
1147.742 34.31 35.17 34.76 33.51 31.73 29.54 27.45 26.42 26.65 27.78
1167.032 29.91 33.36 37.78 42.66 47.62 51.22 53.06 53.76 53.11 51.2
1186.322 48.46 46.36 45.64 46.62 48.86 52.88 58.51 64.69 71.69 78.3
1205.611 82.71 83.24 80.86 76.35 69.82 62.03 54.68 49.73 47.38 47.43
1224.901 50.01 54.83 61.4 69.38 78.34 88.48 100.34 113.88 128.18 141.86
1244.191 152.18 156.24 153.06 142.14 124.89 103.55 81.74 63.68 50.58 41.59
1263.481 35.28 31 28.18 26.26 25.11 24.48 24.54 25.39 26.6 28.07
1282.771 29.79 31.25 31.95 32.12 31.94 31.38 30.66 30.3 30.51 31.35
1302.060 33.13 35.71 38.75 42.14 45.16 47.16 47.74 46.59 43.75 39.68
1321.350 35 30.36 26.29 22.85 20.04 17.73 15.71 13.98 12.56 11.39
1340.640 10.34 9.43 8.73 8.24 7.86 7.54 7.25 7.04 6.89 6.71
1359.930 6.51 6.38 6.31 6.22 6.08 5.93 5.82 5.78 5.74 5.67
1379.219 5.66 5.66 5.62 5.64 5.71 5.83 6.05 6.34 6.72 7.22
1398.509 7.8 8.4 9.25 10.31 11.53 13 14.67 16.53 18.45 20.35
1417.799 22.03 23.48 24.49 24.87 24.63 23.89 22.77 21.41 20.05 19.05
1437.089 18.78 19.18 20.22 21.62 22.78 23.67 24.41 24.74 24.57 24.31
1456.378 24.32 24.89 26.11 27.96 30.64 34.03 37.64 41.22 44.95 49.39
1475.668 54.76 62.09 72.52 86.62 103.38 119.94 132.62 139.07 138.55 131.06
1494.958 117.26 99.65 82.97 70.06 61.84 58.15 58.54 62.52 69.09 77.07
1514.248 85 91.34 94.77 94.5 90.47 83.67 74.72 65.08 55.97 47.9
1533.538 41.01 35.35 31.01 27.45 24.66 22.59 21.12 19.98 19.11 18.46
1552.827 17.94 17.66 17.59 17.79 18.1 18.59 19.41 20.31 21.31 22.32
1572.117 23.14 23.84 24.48 25.16 25.8 26.5 27.39 28.68 30.41 32.69
1591.407 35.53 38.94 42.87 47.35 52.2 57.07 61.8 66.04 69.57 72.37
1610.697 74.31 75.36 75.5 74.64 72.9 70.32 66.65 61.95 56.47 50.38
1629.986 44.15 38.25 32.87 28.05 23.99 20.67 17.97 15.82 13.97 12.6
1649.276 11.58 10.69 9.98 9.37 8.82 8.39 8 7.68 7.38 7.08
1668.566 6.79 6.5 6.23 6 5.8 5.51 5.19 4.9 4.6 4.41
1687.856 4.31 4.22 4.2 4.24 4.26 4.29 4.38 4.54 4.65 4.73
1707.146 4.84 4.99 5.13 5.19 5.23 5.23 5.22 5.25 5.27 5.18
1726.435 4.93 4.73 4.64 4.57 4.44 4.26 4.13 4.09 4.05 4.01
1745.725 3.91 3.78 3.66 3.53 3.44 3.33 3.21 3.16 3.11 3.08
1765.015 3.07 3.09 3.12 3.15 3.18 3.19 3.24 3.31 3.39 3.53
1784.305 3.71 3.93 4.22 4.57 4.78 4.83 4.82 4.71 4.47 4.22
1803.594 4.02 3.86 3.81 3.77 3.76 3.82 3.84 3.84 3.81 3.77
1822.884 3.67 3.57 3.51 3.35 3.28 3.27 3.2 3.16 3.09 2.97
1842.174 2.97 3 2.95 2.91 2.9 2.94 2.93 2.9 2.94 3.01
1861.464 3.09 3.15 3.22 3.29 3.38 3.42 3.57 3.73 3.75 3.78
1880.754 3.81 3.83 3.73 3.63 3.48 3.29 3.15 2.95 2.79 2.72
1900.043 2.67 2.64 2.7 2.69 2.64 2.63 2.66 2.75 2.73 2.76
1919.333 2.82 2.86 2.99 3.17 3.35 3.54 3.74 3.97 4.11 4.17
1938.623 4.28 4.32 4.38 4.53 4.61 4.64 4.63 4.57 4.35 4.01
1957.913 3.67 3.29 2.93 2.67 2.54 2.44 2.36 2.33 2.3 2.34
1977.202 2.37 2.38 2.45 2.54 2.62 2.71 2.8 2.87 2.94 2.99
1996.492 3.05 3.07 3.11 3.18 3.18 3.12 3.09 3.07 2.96 2.89
2015.782 2.8 2.68 2.64 2.56 2.47 2.44 2.48 2.5 2.48 2.46
2035.072 2.45 2.44 2.41 2.43 2.46 2.47 2.5 2.51 2.52 2.53
2054.362 2.56 2.56 2.57 2.62 2.64 2.61 2.57 2.57 2.58 2.6
2073.651 2.54 2.48 2.5 2.46 2.36 2.29 2.28 2.24 2.14 2.05
2092.941 1.98 1.98 1.99 1.94 1.95 1.94 1.86 1.82 1.8 1.76
2112.231 1.71 1.68 1.59 1.5 1.47 1.45 1.44 1.42 1.37 1.32
2131.521 1.36 1.38 1.3 1.28 1.26 1.28 1.31 1.28 1.3 1.26
2150.810 1.21 1.21 1.14 1.15 1.18 1.17 1.17 1.16 1.21 1.21
2170.100 1.12 1.12 1.17 1.2 1.26 1.21 1.13 1.16 1.25 1.28
2189.390 1.28 1.29 1.23 1.21 1.27 1.24 1.24 1.29 1.3 1.3
2208.680 1.33 1.34 1.32 1.32 1.32 1.34 1.37 1.39 1.35 1.34
2227.970 1.39 1.39 1.39 1.39 1.4 1.43 1.51 1.52 1.39 1.34
2247.259 1.44 1.51 1.54 1.56 1.54 1.55 1.58 1.58 1.54 1.58
2266.549 1.62 1.6 1.63 1.63 1.64 1.65 1.6 1.54 1.47 1.44
2285.839 1.46 1.46 1.4 1.28 1.22 1.27 1.29 1.22 1.16 1.22
2305.129 1.28 1.37 1.4 1.32 1.38 1.4 1.39 1.33 1.23 1.21
2324.418 1.19 1.19 1.22 1.2 1.15 1.16 1.16 1.17 1.16 1.13
2343.708 1.09 1.12 1.16 1.12 1.08 1.08 1.09 1.08 1.07 1.05
2362.998 1.01 0.9672 0.9627 0.9502 0.9001 0.9157 0.9476 0.9285 0.907 0.8864
2382.288 0.8118 0.8067 0.8511 0.7993 0.8378 0.8205 0.7737 0.7845 0.7914 0.7962
2401.578 0.8302 0.8429 0.7776 0.7861 0.842 0.9049 0.9236 0.8913 0.8837 0.995
2420.867 1.01 0.9528 0.9973 0.9268 0.9058 0.9577 0.9229 0.8984 0.8976 0.9448
2440.157 0.983 0.982 0.9488 0.927 0.9423 0.9364 0.9266 0.973 1.07 1.07
2459.447 1.13 1.21 1.14 1.11 1.21 1.29 1.31 1.36 1.42 1.5
2478.737 1.53 1.59 1.63 1.56 1.6 1.7 1.79 1.77 1.75 1.86
2498.026 1.91 1.94 2 2 2.02 2.02 1.97 1.96 1.98 2.01
2517.316 2.11 2.1 1.99 2.04 2.08 2.01 2 1.95 1.85 1.86
2536.606 1.86 1.75 1.64 1.61 1.53 1.46 1.45 1.44 1.34 1.4
2555.896 1.4 1.28 1.33 1.3 1.32 1.36 1.28 1.25 1.3 1.34
2575.186 1.27 1.18 1.2 1.29 1.3 1.27 1.32 1.4 1.42 1.43
2594.475 1.47 1.45 1.51 1.54 1.54 1.53 1.44 1.5 1.56 1.56
2613.765 1.53 1.42 1.4 1.39 1.4 1.39 1.34 1.33 1.36 1.34
2633.055 1.24 1.25 1.29 1.24 1.22 1.22 1.23 1.22 1.09 1.01
2652.345 1.07 1.07 0.9962 0.9904 0.9836 0.9278 0.9171 0.9457 0.8756 0.8529
2671.634 0.8067 0.7661 0.8459 0.8361 0.8518 0.8646 0.848 0.8468 0.7531 0.7808
2690.924 0.8298 0.8768 1.04 0.9941 0.9156 1.05 1.08 1.04 1.01 0.9848
2710.214 1.08 1.09 1.09 1.22 1.32 1.3 1.26 1.3 1.38 1.46
2729.504 1.51 1.53 1.47 1.32 1.27 1.31 1.28 1.27 1.2 1.17
2748.794 1.2 1.18 1.23 1.28 1.34 1.34 1.27 1.26 1.26 1.25
2768.083 1.28 1.27 1.31 1.34 1.38 1.53 1.58 1.62 1.69 1.74
2787.373 1.84 1.95 1.98 2.07 2.25 2.38 2.51 2.63 2.82 3.2
2806.663 3.42 3.57 3.94 4.14 4.38 4.75 5.01 5.32 5.78 6.32
2825.953 7 7.8 8.84 10.33 12.23 14.77 17.67 20.29 22.26 23.12
2845.242 22.93 21.78 19.61 17.08 14.74 12.69 11.12 9.98 9.11 8.45
2864.532 7.97 7.64 7.33 7.17 7.07 6.97 7.01 6.97 6.91 7.01
2883.822 7.15 7.3 7.47 7.69 8.06 8.52 9.03 9.6 10.2 10.78
2903.112 11.56 12.55 13.44 14.27 15.27 16.16 16.85 17.32 17.43 17.47
2922.401 17.53 17.51 17.47 17.67 18.12 18.79 19.92 21.4 23.32 25.68
2941.691 27.97 29.88 31.04 31.46 31.26 30.41 28.99 27.24 25.75 24.34
2960.981 22.7 21.16 19.64 18.19 16.88 15.63 14.56 13.68 13.09 12.8
2980.271 12.53 12.47 12.76 13.26 14.16 15.3 16.75 18.79 21.26 23.83
2999.561 26.41 28.75 29.98 29.99 28.88 26.74 24.28 21.95 20.29 19.66
3018.850 19.94 21.01 22.63 24.56 26.78 29.17 31.22 32.88 34.13 34.6
3038.140 34.32 33.23 31.55 30.02 28.58 27.23 26.48 26.36 26.65 27.64
3057.430 29.4 31.91 35.37 39.37 42.75 44.43 44.48 43.25 40.6 36.5
3076.720 32.27 29.15 27.14 25.65 24.21 22.8 21.41 19.88 18.27 16.84
3096.009 15.47 14.15 13.02 11.88 10.91 10.14 9.21 8.39 7.76 7.19
3115.299 6.55 5.81 5.35 4.96 4.58 4.23 3.88 3.57 3.32 3.25
3134.589 3.09 2.9 2.79 2.53 2.31 2.35 2.43 2.32 2.27 2.21
3153.879 2.1 2.11 2.12 2.06 1.96 1.88 1.75 1.65 1.63 1.61
3173.169 1.65 1.59 1.52 1.52 1.51 1.51 1.55 1.7 1.59 1.4
3192.458 1.48 1.63 1.63 1.44 1.45 1.44 1.33 1.35 1.35 1.27
3211.748 1.21 1.15 1.08 1.09 1.11 0.955 0.8789 0.8691 0.7532 0.6765
3231.038 0.6801 0.7106 0.5961 0.5846 0.6428 0.6441 0.651 0.5814 0.5745 0.6344
3250.328 0.5619 0.4325 0.4373 0.4889 0.447 0.4793 0.484 0.4932 0.4801 0.4561
3269.617 0.6172 0.6078 0.3563 0.3698 0.495 0.457 0.4176 0.3863 0.4334 0.4072
3288.907 0.4061 0.4579 0.4406 0.399 0.328 0.2314 0.2538 0.3267 0.2295 0.2366
3308.197 0.2692 0.2193 0.2891 0.3694 0.3741 0.4128 0.3652 0.232 0.1752 0.2831
3327.487 0.2917 0.2312 0.3132 0.3967 0.4961 0.6084 0.5623 0.4025 0.4845 0.5975
3346.777 0.5555 0.5613 0.5951 0.6224 0.707 0.6442 0.569 0.6609 0.7665 0.9102
3366.066 0.9199 0.8851 0.941 1.06 1.31 1.43 1.66 1.99 2.15 2.42
3385.356 2.82 3.36 3.99 4.6 5.46 6.76 8.27 9.86 11.55 13.07
3404.646 14.47 15.57 15.81 15.55 14.76 13.27 11.41 9.75 8.22 6.65
3423.936 5.67 4.69 3.81 3.23 2.73 2.31 1.98 1.91 1.84 1.7
3443.225 1.62 1.58 1.47 1.41 1.48 1.55 1.64 1.76 1.88 2
3462.515 2.07 2.18 2.41 2.71 3 3.32 3.81 4.26 4.72 5.37
3481.805 6.06 6.86 7.75 8.87 10.2 11.43 12.57 13.47 14.09 14.32
3501.095 14.13 13.69 12.86 11.67 10.41 9.24 8.18 7.13 6.06 5.18
3520.385 4.53 3.9 3.3 2.79 2.39 2.15 1.97 1.74 1.6 1.47
3539.674 1.3 1.27 1.28 1.13 1.04 1.07 1 0.9846 0.9273 0.8509
3558.964 0.822 0.78 0.6965 0.615 0.5853 0.6179 0.5577 0.6087 0.8393 0.7867
3578.254 0.6843 0.5978 0.3831 0.3254 0.5148 0.5305 0.5473 0.5357 0.5849 0.6984
3597.544 0.5398 0.4308 0.5345 0.5098 0.5307 0.6977 0.5967 0.5464 0.5865 0.4898
3616.833 0.5412 0.6303 0.4666 0.4519 0.6062 0.5617 0.5443 0.64 0.5809 0.6047
3636.123 0.716 0.7014 0.6258 0.5903 0.6147 0.6948 0.7265 0.6725 0.6849 0.7909
3655.413 0.8214 0.7338 0.7961 0.8368 0.6774 0.6667 0.6765 0.6281 0.5844 0.4832
3674.703 0.5274 0.6297 0.6431 0.5946 0.6151 0.6721 0.6198 0.6448 0.7449 0.6331
3693.993 0.4829 0.5734 0.6475 0.7298 0.7526 0.631 0.659 0.7617 0.6645 0.5474
3713.282 0.6683 0.6869 0.5442 0.5621 0.6444 0.6645 0.7582 0.7039 0.6207 0.547
3732.572 0.5055 0.5531 0.48 0.4785 0.5735 0.6491 0.7072 0.614 0.468 0.593
3751.862 0.6596 0.6426 0.7041 0.6953 0.5847 0.6353 0.761 0.6934 0.6421 0.6773
3771.152 0.8353 0.762 0.5038 0.466 0.4852 0.5564 0.6389 0.6628 0.6807 0.6808
3790.441 0.7003 0.7804 0.767 0.5971 0.5566 0.5048 0.5089 0.5583 0.5955 0.618
3809.731 0.5643 0.5626 0.6141 0.606 0.6056 0.5957 0.5223 0.4729 0.2834 0.4054
3829.021 0.6059 0.5108 0.4303 0.5105 0.6107 0.6651 0.6813 0.6058 0.6216 0.7395
3848.311 0.8227 0.7453 0.7516 0.7404 0.7436 0.8926 0.8907 0.8399 0.9178 0.9871
3867.601 0.7275 0.5777 0.7259 0.7255 0.7011 0.7566 0.8318 0.8603 0.8565 0.9368
3886.890 0.8912 0.7797 0.7148 0.5686 0.6627 0.8025 0.6713 0.7027 0.8909 0.9634
3906.180 0.8119 0.6763 0.6785 0.7836 0.8501 0.8555 0.843 0.7466 0.7229 0.7088
3925.470 0.7383 0.7471 0.7778 0.913 0.9333 0.9186 0.8569 0.9422 1.09 0.9779
3944.760 1.02 1.02 1.04 1.12 1.08 1.05 1.09 1.2 1.04 1
3964.049 1.26 1.36 1.24 1.23 1.29 1.21 1.29 1.2 1.03 0.9666
3983.339 1.01 1.04 0.9821 1.02 1 0.9223 1.07 1.09 1.05 1.14
##END=
