##TITLE=2,4-Dimethylphenylisothiocyanate
##JCAMP-DX=4.24
##DATA TYPE=INFRARED SPECTRUM
##ORIGIN=EPA-IR VAPOR PHASE LIBRARY
##OWNER=SRD/NIST
Collection (C) 2018 copyright by the U.S. Secretary of Commerce
on behalf of the United States of America. All rights reserved.
##CAS REGISTRY NO=39842-01-8
##MOLFORM=C 9 H 9 N S
##$NIST SOURCE=MSDC-IR
##STATE=gas
##XUNITS=1/CM
##YUNITS=ABSORBANCE
##XFACTOR=1.
##YFACTOR=0.001
##DELTAX=1.92898
##FIRSTX=549.8
##LASTX=4000.7
##FIRSTY=9.442
##MAXX=4000.7
##MINX=549.759
##MAXY=0.369352
##MINY=0
##NPOINTS=1790
##XYDATA=(X++(Y..Y))
549.759 9.442 9.092 8.742 8.872 8.882 8.522 8.292 7.932 7.892 7.852
569.049 7.452 7.052 6.662 6.362 6.622 6.882 7.052 7.512 7.822 7.902
588.339 7.692 7.512 7.542 7.212 6.582 6.002 5.472 4.892 4.332 3.972
607.628 3.562 3.112 2.742 2.422 2.152 2.122 2.002 1.672 1.2223 1.0131
626.918 1.132 1.0113 0.6873 0.65658 0.8037 0.7772 0.6986 0.7268 0.65049 0.5143
646.208 0.463 0.405 0.5288 0.7224 0.975 1.1973 1.3799 1.772 1.982 1.982
665.498 2.052 2.042 2.072 1.942 1.772 1.802 1.682 1.642 1.662 1.652
684.787 1.762 1.972 2.072 1.852 1.752 1.912 1.962 1.782 1.602 1.4791
704.077 1.3743 1.4631 1.5173 1.4447 1.662 2.222 3.002 4.082 4.762 4.712
723.367 4.692 4.842 4.712 4.032 2.862 1.862 1.4152 1.4218 1.5461 1.732
742.657 1.942 2.042 2.022 1.992 2.012 1.942 1.872 1.852 1.852 1.852
761.947 1.922 1.952 1.922 2.082 2.192 2.162 2.422 2.702 2.762 2.882
781.236 2.952 3.202 3.552 4.052 4.972 5.952 7.382 9.572 11.782 14.042
800.526 16.662 19.322 21.762 23.952 26.492 29.742 31.172 28.432 24.402 21.622
819.816 19.322 16.982 14.402 11.582 9.122 7.032 5.302 4.282 3.802 3.632
839.106 3.662 3.782 4.142 4.682 5.202 5.612 6.092 6.722 7.512 8.422
858.395 9.332 10.292 11.852 13.872 15.682 17.462 19.252 20.772 21.522 21.242
877.685 20.632 20.052 19.082 18.082 17.012 16.222 15.862 15.612 15.382 15.352
896.975 15.432 15.512 15.502 15.212 14.742 14.022 13.242 12.272 11.302 10.452
916.265 9.422 8.472 7.712 6.952 6.382 6.012 5.832 6.132 6.782 7.912
935.555 9.632 11.712 14.292 17.412 20.552 23.582 26.192 27.782 28.702 28.652
954.844 27.172 24.792 21.922 18.802 15.842 13.152 10.852 9.132 7.672 6.522
974.134 5.782 5.132 4.642 4.252 3.972 3.772 3.492 3.322 3.292 3.122
993.424 2.872 3.022 3.102 2.952 3.022 3.062 3.122 3.172 3.112 3.192
1012.714 3.172 2.832 2.732 2.612 2.342 2.262 2.212 2.182 2.142 2.082
1032.003 2.172 2.302 2.512 2.622 2.702 2.832 2.722 2.582 2.722 2.632
1051.293 2.362 2.482 2.502 2.252 2.282 2.432 2.032 1.812 1.762 1.485
1070.583 1.4444 1.398 1.2054 1.242 1.2113 1.3141 1.3843 1.1495 0.7992 1.0548
1089.873 1.2723 0.8613 1.0456 0.9423 0.7764 1.0363 1.3566 1.4962 1.4514 1.2706
1109.163 1.2323 1.5442 1.902 2.192 2.422 2.732 3.322 3.502 3.432 3.422
1128.452 3.282 3.212 3.162 3.342 3.432 3.092 3.102 3.292 3.162 3.152
1147.742 3.082 2.782 2.472 2.362 2.402 2.202 1.802 2.062 2.072 1.652
1167.032 1.5726 1.3937 1.3128 1.1583 0.8672 0.7546 0.6964 0.9825 1.2129 1.1238
1186.322 0.8761 0.7619 1.0516 0.9378 0.8608 1.3197 1.3581 1.3178 1.5798 1.592
1205.611 1.932 2.492 2.852 3.442 3.982 4.922 6.792 8.832 10.742 12.222
1224.901 13.292 14.102 14.252 13.832 12.402 10.292 8.042 6.022 4.772 4.182
1244.191 3.882 3.692 3.812 3.942 4.002 4.152 4.142 4.062 3.952 3.692
1263.481 3.312 3.012 2.822 2.772 2.892 2.972 3.162 3.212 3.202 3.162
1282.771 3.082 3.002 2.842 2.672 2.502 2.302 2.222 2.232 2.132 2.092
1302.060 2.162 2.242 2.242 2.222 2.252 2.252 2.262 2.222 2.182 2.182
1321.350 2.142 2.122 2.152 2.122 2.092 2.132 2.092 2.032 2.012 1.982
1340.640 1.992 1.982 1.992 2.012 2.002 2.032 2.112 2.182 2.262 2.312
1359.930 2.302 2.372 2.482 2.582 2.722 2.902 3.042 3.152 3.342 3.562
1379.219 3.812 4.032 4.192 4.312 4.372 4.432 4.482 4.432 4.322 4.222
1398.509 4.242 4.312 4.432 4.642 4.882 5.132 5.442 5.712 5.872 6.102
1417.799 6.352 6.492 6.562 6.612 6.612 6.602 6.622 6.672 6.722 6.872
1437.089 7.092 7.282 7.512 7.742 7.932 8.142 8.332 8.472 8.582 8.622
1456.378 8.692 8.702 8.802 9.062 9.432 10.012 10.852 12.022 13.622 15.792
1475.668 18.582 21.902 25.482 29.112 32.532 35.652 38.762 42.142 45.462 47.912
1494.958 48.842 48.302 46.642 44.092 40.422 35.432 29.392 23.522 18.862 15.552
1514.248 13.392 11.932 10.792 9.912 9.212 8.542 8.132 7.752 7.402 7.242
1533.538 7.082 6.902 6.792 6.692 6.562 6.482 6.352 6.182 6.052 5.942
1552.827 5.732 5.622 5.552 5.422 5.372 5.332 5.342 5.412 5.562 5.732
1572.117 5.832 5.972 6.182 6.272 6.272 6.312 6.332 6.342 6.452 6.492
1591.407 6.482 6.462 6.442 6.552 6.742 6.972 7.132 7.132 7.162 7.172
1610.697 6.982 6.732 6.472 6.042 5.652 5.192 4.692 4.232 3.852 3.532
1629.986 3.252 3.052 2.812 2.552 2.392 2.322 2.212 2.122 2.142 2.112
1649.276 2.032 1.972 1.892 1.822 1.732 1.732 1.772 1.702 1.642 1.592
1668.566 1.5219 1.5192 1.5791 1.582 1.632 1.692 1.652 1.662 1.662 1.642
1687.856 1.672 1.702 1.662 1.612 1.5642 1.582 1.612 1.582 1.602 1.682
1707.146 1.792 1.872 1.892 1.932 1.962 1.962 2.022 2.182 2.372 2.482
1726.435 2.622 2.772 2.892 3.052 3.212 3.372 3.492 3.572 3.622 3.682
1745.725 3.722 3.712 3.682 3.582 3.502 3.422 3.302 3.222 3.162 3.112
1765.015 3.072 3.062 3.002 2.992 2.992 2.952 2.972 2.962 2.922 2.952
1784.305 2.992 2.952 2.952 2.962 2.932 2.932 2.942 2.902 2.862 2.892
1803.594 2.902 2.952 3.092 3.162 3.192 3.172 3.212 3.282 3.342 3.392
1822.884 3.332 3.322 3.332 3.312 3.372 3.432 3.492 3.542 3.542 3.522
1842.174 3.522 3.572 3.582 3.552 3.572 3.632 3.662 3.712 3.792 3.952
1861.464 4.152 4.272 4.372 4.502 4.712 4.982 5.212 5.482 5.752 5.962
1880.754 6.202 6.332 6.412 6.582 6.712 6.832 6.932 7.072 7.162 7.262
1900.043 7.402 7.472 7.522 7.632 7.742 7.802 7.902 8.032 8.192 8.472
1919.333 8.732 9.002 9.412 9.852 10.262 10.762 11.412 12.112 12.772 13.522
1938.623 14.352 15.262 16.242 17.232 18.352 19.532 20.782 22.122 23.522 25.052
1957.913 26.642 28.342 30.172 32.062 34.062 36.182 38.372 40.692 43.142 45.682
1977.202 48.332 51.152 54.152 57.232 60.422 63.912 67.592 71.422 75.462 79.702
1996.492 84.152 88.762 93.612 98.742 104.092 109.732 115.642 121.942 128.722 135.722
2015.782 143.032 150.692 158.602 166.852 175.312 184.122 193.292 202.682 212.352 222.502
2035.072 233.152 244.372 256.112 268.312 281.072 294.222 307.672 321.082 333.992 346.062
2054.362 356.412 364.182 368.492 369.352 367.202 362.282 355.262 346.832 337.982 329.492
2073.651 321.722 315.122 309.692 305.142 301.192 297.342 293.192 288.292 282.392 275.622
2092.941 268.282 260.562 252.652 244.952 237.512 230.352 223.552 216.652 209.562 202.452
2112.231 195.182 187.642 179.852 172.172 164.902 158.032 151.612 145.822 140.682 136.032
2131.521 131.802 128.012 124.642 121.582 118.642 115.862 113.232 110.522 107.662 104.582
2150.810 101.192 97.442 93.262 88.782 84.132 79.282 74.382 69.522 64.792 60.232
2170.100 55.902 51.892 48.252 44.872 41.752 38.982 36.482 34.242 32.252 30.462
2189.390 28.942 27.692 26.772 26.002 25.282 24.702 24.172 23.562 22.852 22.092
2208.680 21.132 19.962 18.862 17.752 16.472 15.222 14.062 12.942 11.962 11.082
2227.970 10.322 9.612 8.962 8.402 7.882 7.372 6.992 6.622 6.172 5.902
2247.259 5.652 5.332 5.012 4.722 4.412 4.202 3.992 3.702 3.532 3.372
2266.549 3.222 3.142 3.012 2.822 2.652 2.492 2.462 2.452 2.282 2.132
2285.839 1.992 2.022 2.092 2.052 1.972 1.932 1.882 1.812 1.852 1.822
2305.129 1.772 1.812 1.812 1.842 1.832 1.822 1.832 1.832 1.802 1.782
2324.418 1.832 1.862 1.822 1.782 1.792 1.842 1.932 2.042 2.092 2.142
2343.708 2.192 2.292 2.332 2.392 2.512 2.542 2.582 2.612 2.652 2.642
2362.998 2.662 2.822 2.902 2.872 2.872 2.972 3.052 3.072 3.112 3.162
2382.288 3.122 3.042 2.962 2.902 2.902 2.882 2.852 2.812 2.872 2.902
2401.578 2.982 3.082 3.102 3.202 3.352 3.412 3.492 3.632 3.702 3.752
2420.867 3.872 3.972 4.062 4.072 4.012 4.012 4.012 3.962 3.902 3.842
2440.157 3.772 3.702 3.562 3.492 3.492 3.392 3.342 3.282 3.192 3.162
2459.447 3.122 3.172 3.212 3.192 3.282 3.382 3.412 3.532 3.672 3.782
2478.737 3.862 3.882 3.862 3.902 3.922 3.892 3.862 3.822 3.792 3.782
2498.026 3.732 3.732 3.712 3.712 3.722 3.682 3.722 3.782 3.742 3.662
2517.316 3.632 3.722 3.722 3.572 3.572 3.582 3.512 3.482 3.472 3.462
2536.606 3.402 3.362 3.332 3.322 3.352 3.282 3.272 3.192 3.112 3.192
2555.896 3.182 3.082 2.942 2.902 2.912 2.792 2.592 2.492 2.542 2.462
2575.186 2.312 2.272 2.212 2.112 2.052 2.022 1.962 1.862 1.792 1.742
2594.475 1.682 1.622 1.5797 1.5065 1.5082 1.5521 1.592 1.4916 1.3643 1.3687
2613.765 1.3615 1.3418 1.293 1.2585 1.2379 1.2586 1.2593 1.2521 1.3127 1.3755
2633.055 1.3713 1.3842 1.4329 1.4818 1.547 1.602 1.592 1.592 1.752 1.762
2652.345 1.802 2.012 2.102 2.092 2.132 2.212 2.292 2.552 2.692 2.732
2671.634 2.942 3.082 3.182 3.392 3.642 3.772 3.992 4.252 4.482 4.712
2690.924 5.032 5.432 5.572 5.802 6.132 6.272 6.542 6.712 6.662 6.592
2710.214 6.472 6.262 6.062 5.872 5.502 5.152 4.972 4.672 4.362 3.992
2729.504 3.582 3.322 3.202 3.192 3.162 3.122 3.142 3.222 3.172 3.072
2748.794 2.962 2.842 2.742 2.652 2.562 2.362 2.212 2.062 1.902 1.882
2768.083 1.882 1.812 1.752 1.752 1.682 1.602 1.5706 1.5594 1.5053 1.5475
2787.373 1.602 1.4808 1.4947 1.5434 1.506 1.4976 1.582 1.622 1.522 1.5814
2806.663 1.672 1.692 1.662 1.662 1.772 1.802 1.792 1.892 1.992 2.112
2825.953 2.152 2.142 2.272 2.372 2.582 2.772 2.892 3.082 3.252 3.452
2845.242 3.742 3.942 4.162 4.592 5.052 5.552 6.172 6.642 7.262 8.082
2864.532 8.942 9.792 10.422 11.172 11.772 12.052 12.202 12.252 12.102 11.832
2883.822 11.572 11.202 10.952 10.682 10.262 10.162 10.132 10.112 10.172 10.272
2903.112 10.552 10.852 11.102 11.562 12.182 12.832 13.602 14.662 15.952 17.562
2922.401 19.542 21.472 23.462 25.462 26.892 27.672 27.922 27.412 26.462 25.162
2941.691 23.242 21.152 19.212 17.512 16.102 14.952 14.102 13.482 13.032 12.622
2960.981 12.472 12.252 11.902 11.752 11.672 11.512 11.392 11.442 11.672 11.952
2980.271 12.212 12.512 12.772 12.922 13.062 13.172 13.262 13.262 13.192 13.172
2999.561 13.312 13.582 13.882 14.222 14.592 15.152 15.892 16.782 17.792 18.812
3018.850 19.922 20.732 21.182 21.232 20.742 20.172 19.322 18.192 17.112 16.082
3038.140 15.322 15.022 14.662 14.302 14.052 13.602 13.102 12.672 12.192 11.582
3057.430 10.962 10.462 9.972 9.442 9.112 8.742 8.292 7.932 7.522 7.072
3076.720 6.662 6.252 5.822 5.402 5.042 4.772 4.472 4.152 3.952 3.772
3096.009 3.612 3.492 3.402 3.312 3.242 3.212 3.072 2.922 2.882 2.812
3115.299 2.722 2.642 2.462 2.262 1.972 1.692 1.5567 1.4852 1.3846 1.2659
3134.589 1.2339 1.1496 1.1037 1.0833 0.9368 0.8889 0.7051 0.64349 0.63519 0.5662
3153.879 0.65663 0.5529 0.424 0.5061 0.583553 0.587901 0.5163 0.5153 0.4861 0.4848
3173.169 0.452 0.365 0.4874 0.456 0.371 0.453 0.438 0.412 0.394 0.373
3192.458 0.325 0.262 0.349 0.377 0.298 0.198 0.177 0.203 0.137 0.133
3211.748 0.216 0.193 0.06 0.049 0.266 0.337 0.273 0.198 0.105 0.038
3231.038 0.079 0.115 0.207 0.346 0.242 0.237 0.352 0.186 0.165 0.187
3250.328 0.099 0.157 0.152 0.175 0.173 0.135 0.141 0.238 0.187 0.165
3269.617 0.181 0.101 0.174 0.297 0.303 0.19 0.181 0.219 0.155 0.197
3288.907 0.31 0.33 0.287 0.202 0.241 0.265 0.181 0.275 0.26 0.156
3308.197 0.278 0.292 0.276 0.38 0.377 0.204 0.139 0.162 0.221 0.254
3327.487 0.3 0.321 0.246 0.394 0.426 0.309 0.388 0.291 0.276 0.455
3346.777 0.318 0.198 0.186 0.159 0.285 0.205 0.117 0.259 0.208 0.054
3366.066 0.095 0.261 0.33 0.313 0.208 0.149 0.262 0.365 0.234 0.016
3385.356 0.043 0.186 0.307 0.336 0.349 0.41 0.321 0.19 0.151 0.148
3404.646 0.201 0.291 0.229 0.157 0.143 0.016 0.044 0.193 0.159 0.242
3423.936 0.31 0.221 0.239 0.276 0.325 0.313 0.261 0.3 0.362 0.3
3443.225 0.201 0.233 0.223 0.322 0.292 0.058 0 0.239 0.382 0.234
3462.515 0.293 0.344 0.309 0.35 0.269 0.168 0.268 0.292 0.221 0.303
3481.805 0.253 0.193 0.284 0.451 0.464 0.258 0.203 0.29 0.419 0.384
3501.095 0.351 0.326 0.235 0.392 0.383 0.273 0.273 0.145 0.122 0.096
3520.385 0.237 0.368 0.303 0.215 0.16 0.254 0.274 0.228 0.227 0.316
3539.674 0.367 0.349 0.296 0.114 0.288 0.428 0.159 0.114 0.093 0.052
3558.964 0.154 0.24 0.235 0.336 0.431 0.32 0.261 0.233 0.288 0.335
3578.254 0.334 0.394 0.38 0.293 0.188 0.189 0.278 0.244 0.223 0.329
3597.544 0.321 0.372 0.33 0.164 0.301 0.31 0.232 0.35 0.394 0.4864
3616.833 0.5295 0.383 0.278 0.15 0.095 0.272 0.44 0.412 0.175 0.105
3636.123 0.21 0.257 0.331 0.262 0.167 0.262 0.227 0.119 0.179 0.109
3655.413 0.065 0.133 0.147 0.355 0.402 0.337 0.436 0.38 0.257 0.287
3674.703 0.244 0.171 0.207 0.262 0.34 0.262 0.219 0.226 0.301 0.314
3693.993 0.23 0.325 0.373 0.452 0.308 0.202 0.451 0.5451 0.448 0.34
3713.282 0.25 0.227 0.323 0.392 0.277 0.268 0.347 0.243 0.167 0.175
3732.572 0.211 0.196 0.152 0.19 0.334 0.443 0.435 0.5034 0.378 0.246
3751.862 0.238 0.181 0.201 0.277 0.321 0.45 0.5392 0.413 0.442 0.4937
3771.152 0.478 0.391 0.272 0.307 0.242 0.188 0.297 0.226 0.17 0.21
3790.441 0.235 0.169 0.119 0.178 0.279 0.374 0.351 0.344 0.367 0.344
3809.731 0.438 0.57235 0.4917 0.416 0.531 0.5528 0.5505 0.581154 0.369 0.411
3829.021 0.5334 0.475 0.4881 0.57483 0.59511 0.403 0.28 0.212 0.196 0.244
3848.311 0.262 0.365 0.4837 0.60304 0.6338 0.5351 0.5622 0.5514 0.5277 0.5637
3867.601 0.429 0.36 0.422 0.482 0.63896 0.7983 0.9141 0.8276 0.67961 0.63866
3886.890 0.6874 0.7102 0.7319 0.8595 0.9461 0.8532 0.702 0.7233 0.5449 0.5263
3906.180 0.8059 0.7627 0.67317 0.723 0.6894 0.7084 0.7072 0.7346 0.7643 0.57694
3925.470 0.6858 0.8572 0.76 0.8187 0.837 0.7285 0.6931 0.7965 0.8362 0.9308
3944.760 0.9573 0.8949 1.0465 1.0427 1.2076 1.1462 1.0605 1.2422 1.0694 1.0638
3964.049 1.2435 1.1541 1.134 1.2687 1.0019 0.9181 1.0659 1.0541 1.0782 1.1619
3983.339 1.2488 1.2044 1.0719 1.0591 1.2127 1.3725 1.3306 1.3415 1.4807 1.505
##END=
