##TITLE=p-Pentyloxyaniline
##JCAMP-DX=4.24
##DATA TYPE=INFRARED SPECTRUM
##ORIGIN=EPA-IR VAPOR PHASE LIBRARY
##OWNER=SRD/NIST
Collection (C) 2018 copyright by the U.S. Secretary of Commerce
on behalf of the United States of America. All rights reserved.
##CAS REGISTRY NO=39905-50-5
##MOLFORM=C 11 H 17 N O
##$NIST SOURCE=MSDC-IR
##STATE=gas
##XUNITS=1/CM
##YUNITS=ABSORBANCE
##XFACTOR=1.
##YFACTOR=0.001
##DELTAX=1.92898
##FIRSTX=549.8
##LASTX=4000.7
##FIRSTY=4.031
##MAXX=4000.7
##MINX=549.759
##MAXY=0.080311
##MINY=0
##NPOINTS=1790
##XYDATA=(X++(Y..Y))
549.759 4.031 3.751 3.531 3.521 3.521 3.681 3.521 3.391 3.421 3.471
569.049 3.531 3.121 3.041 3.201 3.191 3.141 2.901 2.741 2.771 3.041
588.339 3.061 3.011 3.161 3.191 3.091 3.031 3.051 3.201 3.421 3.341
607.628 3.351 3.571 3.571 3.741 3.981 4.071 4.111 3.961 3.921 4.131
626.918 4.491 4.881 5.061 5.111 5.541 6.021 6.291 6.751 7.561 8.201
646.208 8.691 9.141 9.261 9.471 9.491 9.311 9.191 8.731 8.221 7.931
665.498 7.441 6.931 6.771 6.771 6.661 6.421 6.361 6.261 6.191 6.291
684.787 6.161 6.181 6.251 6.171 6.291 6.231 6.191 6.201 6.181 6.331
704.077 6.331 6.241 6.301 6.291 6.251 6.161 6.081 6.121 6.121 6.121
723.367 6.141 5.951 5.651 5.441 5.341 5.291 5.181 5.071 4.991 4.951
742.657 4.711 4.321 4.261 4.501 4.531 4.411 4.261 4.081 3.951 3.911
761.947 3.851 3.671 3.731 3.831 3.721 3.461 3.441 3.671 3.761 3.891
781.236 3.901 3.801 3.971 4.281 4.591 4.701 4.641 4.881 5.271 5.651
800.526 6.091 6.561 7.201 7.971 8.671 9.371 10.201 11.061 11.591 11.831
819.816 11.901 11.661 11.201 10.521 9.771 9.011 8.251 7.431 6.751 6.301
839.106 5.851 5.501 5.061 4.681 4.361 4.051 3.831 3.631 3.441 3.181
858.395 3.091 2.981 2.731 2.751 2.731 2.441 2.421 2.551 2.481 2.411
877.685 2.081 2.041 2.311 2.331 2.501 2.581 2.621 2.751 2.761 2.771
896.975 2.761 2.871 2.851 2.881 2.961 2.831 2.741 2.771 2.831 2.781
916.265 2.701 2.581 2.611 2.591 2.351 2.241 2.191 2.211 2.011 1.911
935.555 1.941 1.831 1.851 1.681 1.631 1.761 1.851 1.851 1.671 1.701
954.844 1.761 1.961 2.351 2.421 2.321 2.241 2.241 2.431 2.531 2.801
974.134 3.111 3.251 3.521 3.941 4.341 4.671 5.071 5.321 5.541 6.031
993.424 6.441 6.631 6.951 7.201 7.561 7.841 8.111 8.351 8.271 8.661
1012.714 9.011 8.791 8.551 8.611 9.041 9.451 9.701 9.951 10.461 11.071
1032.003 11.361 11.691 11.971 11.991 11.871 11.721 11.711 11.291 10.801 10.611
1051.293 10.151 9.421 8.571 7.611 7.031 6.711 6.351 6.261 6.101 5.921
1070.583 5.971 6.161 6.211 6.371 6.321 6.061 6.271 6.051 5.541 4.881
1089.873 4.311 4.261 4.001 3.781 3.751 3.741 3.901 3.651 3.371 3.561
1109.163 3.501 3.901 4.201 4.451 4.731 4.491 4.471 4.071 3.821 3.991
1128.452 3.901 3.401 2.911 2.941 2.791 2.471 2.261 2.231 2.041 1.871
1147.742 2.061 2.081 2.021 2.061 2.511 2.941 3.361 3.861 4.371 4.521
1167.032 4.511 4.521 4.521 4.261 3.861 3.771 3.651 3.721 4.071 4.241
1186.322 4.621 5.601 6.471 7.251 8.151 9.121 10.171 11.331 13.031 14.671
1205.611 15.721 16.941 18.531 20.091 21.721 23.841 26.591 29.711 33.141 36.871
1224.901 41.201 45.811 50.411 54.571 57.771 59.831 60.031 58.341 54.971 50.121
1244.191 44.251 38.221 32.821 28.591 25.421 22.781 20.911 19.631 18.201 16.631
1263.481 15.161 13.881 12.781 11.651 10.261 9.221 8.661 8.221 7.961 7.731
1282.771 7.551 7.411 7.271 7.181 7.011 6.831 6.651 6.431 6.191 5.931
1302.060 5.721 5.491 5.211 4.881 4.551 4.381 4.261 4.111 3.961 3.821
1321.350 3.711 3.631 3.511 3.341 3.211 3.091 2.921 2.771 2.681 2.581
1340.640 2.511 2.421 2.331 2.281 2.231 2.201 2.201 2.221 2.211 2.161
1359.930 2.161 2.181 2.241 2.351 2.481 2.701 3.011 3.421 3.891 4.421
1379.219 4.991 5.471 5.891 6.141 6.161 5.951 5.581 5.061 4.561 4.071
1398.509 3.581 3.201 2.931 2.691 2.501 2.421 2.391 2.331 2.351 2.421
1417.799 2.471 2.491 2.471 2.531 2.581 2.661 2.731 2.851 3.011 3.151
1437.089 3.251 3.371 3.541 3.661 3.801 3.991 4.231 4.421 4.611 4.921
1456.378 5.231 5.561 5.961 6.421 7.031 7.771 8.611 9.541 10.381 10.881
1475.668 11.121 11.061 10.631 10.091 9.661 9.421 9.631 10.461 11.881 13.971
1494.958 17.181 21.911 28.271 36.611 46.981 58.441 69.721 77.691 80.311 78.041
1514.248 71.591 61.341 48.531 36.441 26.521 20.131 15.761 12.501 10.071 8.201
1533.538 6.801 5.751 4.891 4.171 3.671 3.331 3.091 2.901 2.651 2.541
1552.827 2.461 2.361 2.351 2.261 2.141 2.061 2.001 1.971 1.971 1.911
1572.117 1.991 2.151 2.141 2.191 2.331 2.451 2.521 2.651 2.821 2.851
1591.407 2.911 3.231 3.461 3.631 3.941 4.371 4.971 5.711 6.451 7.141
1610.697 7.881 8.411 8.861 9.111 9.111 9.071 8.841 8.581 8.271 7.681
1629.986 7.051 6.441 5.731 5.031 4.441 3.931 3.401 3.041 2.761 2.471
1649.276 2.281 2.051 1.861 1.781 1.691 1.591 1.511 1.451 1.381 1.341
1668.566 1.281 1.231 1.161 1.0613 1.0148 1.0431 1.0419 1.023 1.0028 0.9832
1687.856 0.9741 0.9391 0.8876 0.8804 0.8865 0.8489 0.8159 0.864 0.9604 0.993
1707.146 1.0013 1.0301 1.0318 1.0264 1.0601 1.0835 1.121 1.131 1.0929 1.131
1726.435 1.171 1.151 1.0549 0.9964 1.0274 0.9713 0.9521 1.0011 0.9866 0.9327
1745.725 0.9294 0.9433 0.879 0.8518 0.8067 0.8005 0.8348 0.7657 0.7222 0.7246
1765.015 0.7092 0.6824 0.6994 0.7446 0.7445 0.7128 0.7016 0.7116 0.7259 0.7395
1784.305 0.7395 0.753 0.7711 0.827 0.8634 0.7184 0.7201 0.8222 0.808 0.8359
1803.594 0.8859 0.9255 0.9564 0.9457 0.97 1.0051 1.0097 1.0321 1.0097 0.997
1822.884 1.0038 1.0681 1.0626 0.9997 1.0423 1.1071 1.201 1.251 1.211 1.241
1842.174 1.301 1.321 1.271 1.221 1.281 1.271 1.221 1.251 1.241 1.181
1861.464 1.121 1.0603 0.9993 0.9703 0.9153 0.8868 0.8832 0.8286 0.8232 0.8087
1880.754 0.7691 0.7272 0.7035 0.7085 0.7474 0.8425 0.8483 0.7386 0.7294 0.8039
1900.043 0.8227 0.7816 0.7885 0.7737 0.7374 0.7744 0.7903 0.7182 0.7007 0.7872
1919.333 0.8429 0.8716 0.8243 0.8439 0.8948 0.8747 0.8535 0.813 0.7675 0.723
1938.623 0.7012 0.786 0.8153 0.7732 0.8002 0.7964 0.7769 0.8042 0.8547 0.8841
1957.913 0.9148 0.9337 0.9252 0.9269 0.9432 0.9321 0.9409 0.9281 0.8859 0.8705
1977.202 0.9084 0.9391 0.8699 0.8607 0.8948 0.884 0.9493 1.0041 0.9255 0.8294
1996.492 0.8204 0.8712 0.8853 0.8645 0.8704 0.9039 0.9026 0.8839 0.8127 0.772
2015.782 0.8217 0.8639 0.8797 0.922 0.9522 0.9088 0.9154 0.8571 0.8417 0.9176
2035.072 0.9241 0.9334 0.9244 0.9747 0.9601 0.8774 0.8509 0.8817 0.9054 0.8828
2054.362 0.887 0.8584 0.8324 0.8752 0.8986 0.8973 0.8723 0.8652 0.9104 0.9015
2073.651 0.8835 0.8303 0.7965 0.7994 0.8005 0.7547 0.7316 0.7862 0.7341 0.7058
2092.941 0.741 0.6884 0.5939 0.592 0.6559 0.6537 0.6086 0.6021 0.6117 0.6102
2112.231 0.6029 0.5398 0.4951 0.523 0.5122 0.5234 0.5256 0.5048 0.5165 0.4931
2131.521 0.4747 0.4946 0.4785 0.4177 0.4118 0.405 0.4104 0.422 0.4017 0.3868
2150.810 0.4085 0.4549 0.451 0.4305 0.475 0.4701 0.4447 0.4665 0.4285 0.3951
2170.100 0.4116 0.4604 0.4322 0.4074 0.4312 0.3811 0.3645 0.3529 0.3319 0.4016
2189.390 0.4335 0.3966 0.3729 0.3883 0.3841 0.3411 0.357 0.3718 0.3211 0.3619
2208.680 0.4152 0.4223 0.3763 0.3438 0.4767 0.5389 0.4298 0.4058 0.4277 0.419
2227.970 0.3923 0.3579 0.4145 0.4242 0.4134 0.4398 0.4452 0.4292 0.4019 0.4061
2247.259 0.452 0.4203 0.3358 0.3964 0.5023 0.5127 0.5073 0.4736 0.441 0.4604
2266.549 0.5178 0.5524 0.5226 0.5147 0.4951 0.5622 0.6196 0.6204 0.5851 0.5012
2285.839 0.4759 0.5215 0.5513 0.5037 0.4772 0.4283 0.4047 0.5176 0.6229 0.5805
2305.129 0.5435 0.5652 0.5593 0.5423 0.5821 0.6123 0.5823 0.5712 0.5839 0.5985
2324.418 0.5596 0.4746 0.4901 0.5444 0.5863 0.6335 0.6409 0.633 0.6333 0.6117
2343.708 0.5695 0.546 0.5943 0.6128 0.6428 0.746 0.7197 0.6657 0.6764 0.641
2362.998 0.6098 0.6492 0.6584 0.6099 0.5715 0.5526 0.6 0.6101 0.4698 0.4324
2382.288 0.492 0.4494 0.3969 0.4332 0.4652 0.5304 0.5876 0.5343 0.5712 0.5965
2401.578 0.5417 0.5545 0.5666 0.5166 0.4468 0.454 0.4636 0.463 0.5134 0.4877
2420.867 0.4639 0.514 0.4952 0.4801 0.5011 0.5062 0.4908 0.5115 0.5385 0.5037
2440.157 0.5092 0.5502 0.5499 0.5085 0.4815 0.4986 0.4802 0.5128 0.5854 0.5701
2459.447 0.6232 0.6634 0.642 0.655 0.6746 0.6298 0.6234 0.581 0.4895 0.4936
2478.737 0.4854 0.572 0.6455 0.6064 0.6141 0.5988 0.5426 0.4757 0.498 0.5569
2498.026 0.5209 0.5182 0.5435 0.5602 0.5685 0.6132 0.6448 0.6543 0.6399 0.5501
2517.316 0.5187 0.5746 0.5534 0.4944 0.5355 0.5543 0.5375 0.592 0.5605 0.4666
2536.606 0.48 0.4692 0.4244 0.4706 0.4521 0.4039 0.4556 0.4448 0.3883 0.3626
2555.896 0.3667 0.3491 0.3167 0.323 0.3713 0.4145 0.3778 0.3854 0.455 0.4304
2575.186 0.4227 0.5138 0.5187 0.4877 0.517 0.5633 0.5361 0.4905 0.4665 0.4157
2594.475 0.4543 0.5186 0.487 0.4546 0.4605 0.4444 0.4689 0.5119 0.5265 0.4917
2613.765 0.4489 0.4495 0.4265 0.431 0.5673 0.5816 0.4164 0.3758 0.4302 0.4908
2633.055 0.5088 0.4834 0.4951 0.5396 0.4554 0.4302 0.5028 0.4953 0.4702 0.479
2652.345 0.5914 0.6053 0.5468 0.5235 0.5164 0.5638 0.6426 0.6758 0.6689 0.6766
2671.634 0.7123 0.6785 0.5972 0.65 0.6732 0.7126 0.683 0.5926 0.7176 0.7729
2690.924 0.7232 0.7186 0.738 0.7314 0.6847 0.6576 0.639 0.6755 0.7009 0.7328
2710.214 0.7215 0.5829 0.5628 0.658 0.73 0.7762 0.813 0.7869 0.8273 0.8432
2729.504 0.8183 0.9057 0.9872 1.0208 1.0307 0.9728 0.979 1.029 1.0684 1.111
2748.794 1.0619 1.0899 1.121 1.0492 1.0024 1.0002 0.9967 0.9711 1.0129 0.9869
2768.083 0.9365 1.0009 1.0073 1.0052 1.0093 1.0176 0.9727 0.9721 1.04 1.0378
2787.373 0.9966 1.0783 1.121 1.111 1.161 1.131 1.141 1.181 1.181 1.201
2806.663 1.231 1.261 1.331 1.481 1.631 1.711 1.691 1.701 1.821 2.001
2825.953 2.171 2.301 2.541 2.721 2.821 3.011 3.271 3.541 3.841 4.161
2845.242 4.451 4.901 5.471 6.011 6.551 7.271 8.021 8.761 9.521 10.211
2864.532 11.041 11.911 12.571 13.081 13.411 13.621 13.761 14.011 14.231 14.161
2883.822 14.001 13.831 13.561 13.111 12.681 12.501 12.471 12.361 12.411 12.701
2903.112 13.041 13.381 13.641 13.981 14.531 15.121 15.671 16.291 16.921 17.611
2922.401 18.491 19.421 20.401 21.481 22.531 23.521 24.501 25.371 25.971 26.351
2941.691 26.461 26.451 26.291 25.951 25.401 24.741 24.151 23.661 23.401 23.411
2960.981 23.471 23.501 23.501 23.221 22.511 21.311 19.741 17.851 15.691 13.501
2980.271 11.611 10.061 8.841 7.821 7.021 6.431 5.981 5.651 5.461 5.381
2999.561 5.271 5.391 5.561 5.701 5.751 5.781 5.891 5.871 5.831 5.821
3018.850 5.701 5.581 5.591 5.671 5.951 6.141 6.321 6.741 7.281 7.791
3038.140 7.971 7.911 7.631 7.181 6.391 5.411 4.681 3.991 3.411 3.181
3057.430 3.101 2.941 2.811 2.791 2.751 2.771 2.821 2.751 2.711 2.641
3076.720 2.561 2.511 2.421 2.341 2.171 2.061 1.991 1.951 1.911 1.931
3096.009 2.071 2.011 1.801 1.841 1.851 1.741 1.761 1.631 1.481 1.421
3115.299 1.351 1.211 1.191 1.171 1.0497 1.0487 1.121 1.141 0.9657 0.6663
3134.589 0.6883 0.854 0.8623 0.8319 0.6332 0.4889 0.5811 0.5637 0.5401 0.4323
3153.879 0.3721 0.5336 0.5925 0.6053 0.5436 0.5072 0.4586 0.3562 0.3675 0.359
3173.169 0.4115 0.5575 0.5119 0.3878 0.3859 0.3691 0.3824 0.4925 0.4836 0.4896
3192.458 0.5111 0.4094 0.3615 0.4656 0.4702 0.3479 0.4459 0.5106 0.4295 0.5689
3211.748 0.6871 0.6386 0.6122 0.6188 0.5406 0.3254 0.3156 0.4561 0.5728 0.5488
3231.038 0.3829 0.3539 0.3976 0.4226 0.5066 0.4683 0.3576 0.4156 0.408 0.3865
3250.328 0.4246 0.3427 0.3744 0.4676 0.352 0.2475 0.3607 0.4434 0.411 0.3752
3269.617 0.3712 0.3978 0.4382 0.4328 0.3803 0.3809 0.4536 0.3722 0.2642 0.2991
3288.907 0.2705 0.3032 0.353 0.3385 0.3037 0.2879 0.2587 0.297 0.4069 0.3939
3308.197 0.3173 0.2719 0.2827 0.3704 0.3028 0.2898 0.374 0.3457 0.3505 0.3301
3327.487 0.3385 0.3401 0.14548 0 0.13264 0.3612 0.3926 0.2916 0.2637 0.2679
3346.777 0.2803 0.3289 0.2739 0.2911 0.4489 0.3543 0.4261 0.5109 0.4683 0.5503
3366.066 0.481 0.3704 0.437 0.4972 0.5857 0.6878 0.6378 0.755 0.7755 0.7055
3385.356 0.8786 1.0967 1.141 1.0483 1.201 1.431 1.571 1.691 1.741 1.731
3404.646 1.811 1.681 1.351 1.241 1.121 0.9545 0.6977 0.5524 0.6279 0.6148
3423.936 0.6058 0.6347 0.6254 0.6333 0.7221 0.708 0.6379 0.6365 0.6741 0.6968
3443.225 0.6939 0.727 0.6084 0.6025 0.7273 0.7475 0.769 0.8139 0.7853 0.7404
3462.515 0.8594 1.0689 1.151 1.221 1.261 1.211 1.271 1.291 1.391 1.421
3481.805 1.261 1.241 1.251 1.181 1.151 1.181 1.251 1.121 0.8318 0.6781
3501.095 0.6356 0.5967 0.508 0.4484 0.497 0.4689 0.4341 0.49 0.4877 0.5047
3520.385 0.4766 0.3585 0.2638 0.4053 0.3609 0.2508 0.3285 0.3382 0.4525 0.3984
3539.674 0.2913 0.3466 0.3921 0.3255 0.3068 0.2824 0.2459 0.2637 0.2289 0.233
3558.964 0.3921 0.4119 0.2981 0.3947 0.462 0.4275 0.3994 0.3093 0.2989 0.2922
3578.254 0.2946 0.2497 0.251 0.4589 0.4704 0.2797 0.17998 0.3297 0.3148 0.2222
3597.544 0.4447 0.4571 0.3441 0.3278 0.3674 0.4702 0.4133 0.3213 0.3351 0.3665
3616.833 0.3018 0.223 0.3623 0.4757 0.3756 0.4378 0.426 0.2937 0.2392 0.2853
3636.123 0.2805 0.12255 0.0334 0.1462 0.3945 0.4285 0.19416 0.0723 0.3521 0.5687
3655.413 0.458 0.2139 0.2237 0.5013 0.373 0.2219 0.2972 0.3048 0.3555 0.2841
3674.703 0.2674 0.3961 0.3403 0.4054 0.4593 0.3212 0.3978 0.5699 0.4626 0.309
3693.993 0.2747 0.2601 0.3138 0.3361 0.3039 0.371 0.4065 0.2331 0.19876 0.2934
3713.282 0.4077 0.432 0.4468 0.4613 0.3261 0.28 0.3329 0.3614 0.3324 0.2899
3732.572 0.3385 0.3765 0.2952 0.3011 0.2755 0.2754 0.4186 0.3714 0.2299 0.3603
3751.862 0.5007 0.3271 0.3207 0.4257 0.4268 0.3591 0.3797 0.4283 0.3994 0.4381
3771.152 0.4326 0.4915 0.4212 0.3419 0.3749 0.32 0.3366 0.3015 0.2651 0.2853
3790.441 0.3785 0.3449 0.2406 0.3273 0.4148 0.4015 0.3179 0.358 0.4718 0.39
3809.731 0.2282 0.14256 0.16047 0.2941 0.3967 0.4865 0.4096 0.2695 0.2729 0.3874
3829.021 0.454 0.4567 0.4984 0.4532 0.4186 0.3875 0.2322 0.3828 0.5102 0.2355
3848.311 0.17929 0.19132 0.0699 0.16929 0.3875 0.3202 0.2456 0.2291 0.2314 0.4105
3867.601 0.4965 0.4614 0.5331 0.5733 0.4003 0.3213 0.3969 0.4797 0.663 0.7493
3886.890 0.4776 0.4929 0.6938 0.6739 0.6037 0.5674 0.486 0.399 0.3029 0.288
3906.180 0.4326 0.5377 0.5176 0.472 0.5163 0.5686 0.4681 0.3003 0.3444 0.4545
3925.470 0.4547 0.4032 0.433 0.4984 0.5702 0.5119 0.3064 0.38 0.4904 0.3857
3944.760 0.2742 0.3839 0.4395 0.3827 0.4172 0.4946 0.6173 0.4962 0.5544 0.5914
3964.049 0.3613 0.4508 0.5587 0.5176 0.4155 0.4585 0.4617 0.289 0.385 0.3868
3983.339 0.2771 0.2652 0.3584 0.4859 0.5069 0.4379 0.3937 0.3512 0.4115 0.4375
##END=
