##TITLE=p-Decyloxyaniline
##JCAMP-DX=4.24
##DATA TYPE=INFRARED SPECTRUM
##ORIGIN=EPA-IR VAPOR PHASE LIBRARY
##OWNER=SRD/NIST
Collection (C) 2018 copyright by the U.S. Secretary of Commerce
on behalf of the United States of America. All rights reserved.
##CAS REGISTRY NO=39905-47-0
##MOLFORM=C 16 H 27 N O
##$NIST SOURCE=MSDC-IR
##STATE=gas
##XUNITS=1/CM
##YUNITS=ABSORBANCE
##XFACTOR=1.
##YFACTOR=0.001
##DELTAX=1.92898
##FIRSTX=549.8
##LASTX=4000.7
##FIRSTY=6.655
##MAXX=4000.7
##MINX=549.759
##MAXY=0.167565
##MINY=0
##NPOINTS=1790
##XYDATA=(X++(Y..Y))
549.759 6.655 6.605 6.575 6.885 6.725 6.255 6.335 6.315 6.045 6.005
569.049 5.885 5.745 5.485 5.155 5.215 5.205 5.145 5.155 5.315 5.405
588.339 5.625 5.815 5.595 5.555 5.775 5.825 5.765 5.805 5.875 6.175
607.628 6.355 6.395 6.555 6.765 6.935 7.195 7.315 7.385 7.885 8.265
626.918 8.405 8.855 9.465 10.075 10.795 11.535 12.445 13.455 14.465 15.665
646.208 16.765 17.445 18.055 18.405 18.465 18.175 17.415 16.525 15.785 15.025
665.498 14.175 13.735 13.175 12.645 12.595 12.335 12.055 12.135 12.285 12.295
684.787 12.245 12.095 12.115 12.215 12.195 12.335 12.445 12.455 12.325 12.275
704.077 12.555 12.695 12.835 12.955 13.035 13.165 13.115 12.995 12.905 12.595
723.367 12.245 12.035 11.915 11.695 11.425 11.395 11.195 10.775 10.375 10.175
742.657 9.905 9.305 8.895 8.925 8.745 8.545 8.505 8.475 8.515 8.335
761.947 8.175 8.045 7.825 7.645 7.475 7.495 7.255 6.855 6.865 6.985
781.236 7.065 6.995 7.145 7.715 8.115 8.575 9.115 9.285 9.535 10.115
800.526 10.955 12.005 13.265 14.705 16.345 18.425 20.475 22.545 24.185 24.765
819.816 24.635 23.475 21.965 20.495 18.775 17.035 15.605 14.375 13.275 12.325
839.106 11.395 10.485 9.695 9.285 8.715 8.055 7.645 7.195 6.815 6.505
858.395 6.245 6.055 5.795 5.615 5.495 5.345 5.235 5.075 5.005 4.895
877.685 4.825 4.715 4.605 4.675 4.605 4.695 4.775 4.695 4.675 4.625
896.975 4.565 4.455 4.395 4.485 4.515 4.645 4.495 4.265 4.475 4.445
916.265 4.325 4.305 4.245 4.405 4.525 4.425 4.455 4.585 4.765 4.975
935.555 5.085 5.235 5.305 5.325 5.405 5.485 5.605 5.625 5.545 5.505
954.844 5.605 5.565 5.595 5.735 5.745 5.665 5.705 5.945 5.985 6.005
974.134 6.215 6.485 6.745 7.155 7.655 7.965 8.235 8.775 9.265 9.775
993.424 10.355 10.895 11.425 12.045 12.555 13.085 13.845 14.595 15.355 15.805
1012.714 16.295 16.865 17.315 17.715 18.065 18.525 19.145 19.635 19.945 20.255
1032.003 20.475 20.645 20.895 20.835 20.705 20.675 20.535 20.575 20.495 20.115
1051.293 19.715 19.235 18.425 17.615 17.075 16.185 15.435 15.315 14.925 14.125
1070.583 13.435 12.915 13.045 13.215 12.355 11.595 11.025 10.535 9.865 9.015
1089.873 8.495 7.955 7.505 6.985 6.715 6.805 6.725 6.575 6.365 6.455
1109.163 6.645 6.935 7.455 7.505 7.795 8.285 8.255 8.145 7.905 7.295
1128.452 6.845 6.515 6.075 5.725 5.155 4.455 4.375 4.445 4.475 4.435
1147.742 4.135 4.265 4.375 4.415 4.565 5.215 6.415 7.445 8.595 9.455
1167.032 9.745 9.535 9.065 8.485 7.735 7.475 7.545 7.675 8.325 8.935
1186.322 9.835 11.485 12.905 14.415 16.175 17.855 19.915 22.285 24.245 26.035
1205.611 28.495 31.555 35.155 38.955 43.055 48.795 54.715 60.585 67.865 75.315
1224.901 83.055 91.645 100.415 108.665 115.495 120.035 120.835 117.295 109.335 97.775
1244.191 84.705 72.325 62.045 54.255 48.395 44.055 40.985 38.805 36.705 34.405
1263.481 31.705 28.615 25.685 22.935 20.675 18.935 17.755 16.965 16.175 15.595
1282.771 15.265 15.025 14.675 14.405 14.265 14.015 13.705 13.325 12.935 12.545
1302.060 12.135 11.645 11.095 10.545 9.995 9.535 9.105 8.785 8.555 8.355
1321.350 8.155 7.935 7.735 7.475 7.265 6.975 6.715 6.525 6.345 6.255
1340.640 6.235 6.335 6.395 6.405 6.485 6.455 6.425 6.445 6.395 6.355
1359.930 6.225 6.075 6.115 6.235 6.395 6.695 7.065 7.575 8.375 9.325
1379.219 10.375 11.505 12.365 12.725 12.545 11.925 10.985 9.775 8.595 7.605
1398.509 6.845 6.195 5.635 5.275 5.075 4.895 4.765 4.795 4.875 4.835
1417.799 4.795 4.955 5.145 5.245 5.485 5.795 6.115 6.575 7.085 7.505
1437.089 8.015 8.645 9.245 9.825 10.485 11.245 12.045 12.915 13.805 14.655
1456.378 15.515 16.485 17.405 18.195 19.085 20.235 21.635 23.205 24.645 25.435
1475.668 25.225 24.125 22.455 20.655 19.285 18.725 19.245 20.825 23.725 28.235
1494.958 34.825 44.285 57.015 73.595 94.085 117.065 141.445 160.725 167.565 160.005
1514.248 139.915 112.795 85.795 64.915 48.845 38.015 30.055 24.075 19.595 16.135
1533.538 13.395 11.225 9.765 8.535 7.495 6.695 6.065 5.655 5.295 5.055
1552.827 4.795 4.535 4.425 4.275 4.095 4.005 3.865 3.785 3.845 3.895
1572.117 3.965 4.045 4.195 4.385 4.525 4.735 4.975 5.185 5.445 5.695
1591.407 5.935 6.225 6.565 7.045 7.635 8.455 9.565 10.895 12.485 14.235
1610.697 15.825 17.015 17.655 17.935 18.045 17.845 17.415 16.855 16.185 15.165
1629.986 13.855 12.525 11.135 9.645 8.445 7.455 6.475 5.705 5.135 4.605
1649.276 4.205 3.865 3.455 3.135 2.935 2.805 2.685 2.525 2.325 2.145
1668.566 2.085 2.015 1.855 1.735 1.685 1.665 1.675 1.615 1.545 1.495
1687.856 1.485 1.505 1.465 1.455 1.425 1.445 1.455 1.405 1.415 1.435
1707.146 1.485 1.495 1.535 1.645 1.685 1.655 1.705 1.805 1.815 1.825
1726.435 1.795 1.705 1.625 1.545 1.435 1.385 1.435 1.475 1.365 1.285
1745.725 1.245 1.195 1.195 1.215 1.215 1.155 1.135 1.125 1.115 1.105
1765.015 1.075 0.9893 0.9918 1.075 1.085 1.045 1.0336 1.115 1.155 1.145
1784.305 1.115 1.145 1.175 1.095 1.125 1.215 1.235 1.265 1.295 1.325
1803.594 1.365 1.385 1.385 1.415 1.495 1.515 1.535 1.535 1.565 1.595
1822.884 1.605 1.625 1.695 1.755 1.815 1.885 1.945 2.005 2.055 2.055
1842.174 2.035 2.055 2.055 2.035 2.085 2.105 2.035 1.945 1.855 1.795
1861.464 1.775 1.755 1.665 1.525 1.425 1.375 1.335 1.315 1.265 1.165
1880.754 1.095 1.135 1.145 1.105 1.115 1.115 1.095 1.075 1.085 1.105
1900.043 1.125 1.145 1.135 1.125 1.215 1.255 1.245 1.275 1.235 1.195
1919.333 1.185 1.175 1.215 1.255 1.225 1.205 1.225 1.225 1.215 1.265
1938.623 1.255 1.195 1.235 1.305 1.275 1.295 1.325 1.385 1.405 1.355
1957.913 1.395 1.395 1.405 1.405 1.455 1.445 1.365 1.425 1.455 1.435
1977.202 1.425 1.435 1.455 1.525 1.535 1.425 1.415 1.465 1.435 1.465
1996.492 1.425 1.425 1.475 1.485 1.485 1.505 1.505 1.455 1.465 1.505
2015.782 1.505 1.505 1.525 1.515 1.515 1.465 1.385 1.405 1.495 1.505
2035.072 1.475 1.485 1.515 1.515 1.445 1.425 1.515 1.515 1.485 1.505
2054.362 1.465 1.435 1.465 1.515 1.485 1.395 1.365 1.435 1.465 1.475
2073.651 1.465 1.435 1.395 1.305 1.315 1.325 1.275 1.295 1.275 1.145
2092.941 1.125 1.095 1.045 1.055 1.0054 0.9256 0.8438 0.7707 0.7603 0.7927
2112.231 0.8266 0.7916 0.7202 0.6753 0.6514 0.6666 0.632 0.6691 0.6621 0.6284
2131.521 0.6677 0.6484 0.5998 0.5606 0.5699 0.5547 0.5321 0.543 0.583 0.5755
2150.810 0.5685 0.5529 0.4928 0.5048 0.5595 0.5575 0.5138 0.5294 0.5587 0.5451
2170.100 0.6045 0.6796 0.6286 0.5631 0.5612 0.59 0.6022 0.5748 0.5738 0.613
2189.390 0.6069 0.548 0.5125 0.5557 0.5376 0.4918 0.5391 0.5175 0.551 0.5837
2208.680 0.5585 0.5435 0.507 0.5131 0.5506 0.5559 0.5327 0.5381 0.5609 0.6254
2227.970 0.5988 0.6161 0.6516 0.6341 0.7058 0.6972 0.6999 0.722 0.7047 0.7159
2247.259 0.7259 0.7534 0.7853 0.7896 0.7792 0.7581 0.7628 0.8212 0.8632 0.8679
2266.549 0.8901 0.8653 0.9047 0.9549 0.9241 0.9375 0.9717 0.9988 1.0348 0.9928
2285.839 0.9329 0.9648 0.8973 0.8293 0.788 0.7977 0.8412 0.7804 0.7676 0.7878
2305.129 0.8139 0.8413 0.8145 0.8048 0.8244 0.8581 0.9026 0.9077 0.8586 0.8595
2324.418 0.8905 0.8805 0.9135 0.9173 0.9097 0.9131 0.9343 0.9845 1.0278 1.0271
2343.708 0.9928 1.045 1.045 1.035 1.0324 1.024 1.035 1.0178 1.0228 0.9776
2362.998 0.9071 0.8923 0.8808 0.864 0.8311 0.7725 0.7459 0.7784 0.7889 0.8075
2382.288 0.8386 0.759 0.748 0.8398 0.8415 0.8044 0.825 0.8053 0.7926 0.8304
2401.578 0.876 0.9255 0.8696 0.8588 0.8924 0.8419 0.802 0.8162 0.8144 0.7508
2420.867 0.7267 0.7893 0.8099 0.7438 0.7194 0.749 0.7739 0.74 0.7705 0.8076
2440.157 0.7825 0.8676 0.9028 0.8706 0.8509 0.8792 0.9282 0.8848 0.9055 0.9432
2459.447 0.9822 1.045 1.065 1.025 0.9898 0.9323 0.9396 0.9894 0.9898 0.994
2478.737 0.9131 0.8753 0.8558 0.828 0.781 0.7533 0.7699 0.7931 0.8478 0.8152
2498.026 0.7942 0.8353 0.8431 0.8769 0.9618 1.0112 1.055 1.045 1.0192 1.075
2517.316 1.065 1.045 1.135 1.145 1.145 1.105 1.0026 1.055 1.0174 0.9416
2536.606 0.9402 0.9483 0.9442 0.8941 0.8759 0.8823 0.8725 0.8451 0.7675 0.7745
2555.896 0.8985 0.9097 0.8315 0.7429 0.8013 0.9168 0.9283 0.9453 1.0001 0.99
2575.186 0.8503 0.805 0.9367 0.9699 0.9514 1.045 1.0295 1.045 1.115 1.075
2594.475 0.9972 0.9689 1.045 1.095 1.085 1.075 1.055 1.045 1.075 1.055
2613.765 1.115 1.185 1.165 1.135 1.115 1.205 1.235 1.195 1.175 1.215
2633.055 1.245 1.215 1.205 1.215 1.185 1.215 1.325 1.395 1.425 1.475
2652.345 1.435 1.435 1.545 1.575 1.555 1.505 1.625 1.695 1.705 1.805
2671.634 1.825 1.795 1.825 1.885 1.865 1.845 1.865 1.905 1.965 1.965
2690.924 1.925 1.905 1.905 1.935 1.965 1.975 1.965 1.955 1.955 1.985
2710.214 2.005 2.005 2.025 1.975 1.895 1.995 2.085 2.025 2.035 2.165
2729.504 2.285 2.335 2.355 2.415 2.485 2.515 2.605 2.715 2.755 2.795
2748.794 2.805 2.825 2.795 2.725 2.745 2.735 2.685 2.625 2.655 2.655
2768.083 2.655 2.805 2.825 2.775 2.835 2.895 2.995 3.075 3.115 3.075
2787.373 3.085 3.245 3.475 3.665 3.785 3.875 3.915 4.055 4.285 4.475
2806.663 4.655 4.815 5.045 5.325 5.645 5.845 6.115 6.535 6.975 7.325
2825.953 7.605 8.205 8.855 9.535 10.385 11.215 12.245 13.565 15.135 17.015
2845.242 19.295 22.135 25.505 29.565 34.315 39.495 44.905 49.925 53.905 56.545
2864.532 57.735 57.595 56.415 54.555 52.225 49.885 47.785 45.925 44.425 43.205
2883.822 41.975 40.655 39.575 38.785 38.255 38.355 39.175 40.565 42.555 45.195
2903.112 48.235 51.525 55.275 59.325 63.585 68.105 73.025 78.815 85.775 93.645
2922.401 102.475 112.235 122.075 130.955 137.845 141.895 142.705 140.555 135.995 129.775
2941.691 122.475 114.545 106.375 98.165 90.355 83.255 77.025 71.815 67.665 64.475
2960.981 62.145 60.355 58.485 55.945 52.635 48.615 43.815 38.575 33.505 29.075
2980.271 25.385 22.405 19.925 17.835 16.315 15.095 14.145 13.365 12.805 12.565
2999.561 12.435 12.485 12.585 12.685 12.845 13.005 13.075 12.945 12.615 12.415
3018.850 12.355 12.215 12.155 12.305 12.545 12.925 13.655 14.555 15.555 16.395
3038.140 16.905 16.865 16.005 14.525 12.745 10.905 9.325 8.225 7.425 6.845
3057.430 6.455 6.245 6.105 6.005 5.885 5.745 5.705 5.695 5.515 5.365
3076.720 5.235 5.055 4.835 4.505 4.345 4.225 4.065 4.055 4.025 3.905
3096.009 3.775 3.725 3.705 3.565 3.375 3.345 3.265 3.035 2.875 2.885
3115.299 2.755 2.525 2.475 2.305 2.105 2.055 1.975 1.895 1.805 1.665
3134.589 1.635 1.625 1.435 1.305 1.245 1.215 1.205 1.115 0.9699 0.9689
3153.879 0.9447 0.8667 0.8841 0.7903 0.8224 0.9986 1.0308 0.9766 0.9014 0.8586
3173.169 0.809 0.7688 0.7682 0.7886 0.7733 0.7697 0.7289 0.7051 0.8345 0.8062
3192.458 0.6803 0.6999 0.8368 0.919 0.9655 0.9861 1.0101 1.045 1.0003 0.8541
3211.748 0.7199 0.7924 0.9037 0.8775 0.8215 0.7021 0.6633 0.5658 0.4958 0.6201
3231.038 0.6974 0.7813 0.6991 0.6841 0.6758 0.5521 0.4584 0.4323 0.5416 0.5731
3250.328 0.5486 0.469 0.4723 0.5404 0.5663 0.5793 0.6488 0.8315 0.7947 0.5992
3269.617 0.5009 0.5203 0.5367 0.443 0.3376 0.3786 0.3735 0.281 0.274 0.3403
3288.907 0.4415 0.4658 0.3921 0.4072 0.3825 0.2968 0.3401 0.3926 0.5029 0.4458
3308.197 0.2516 0.157 0.1739 0.1762 0.1661 0.2977 0.2526 0.22 0.2663 0.2211
3327.487 0.11519 0.1902 0.2938 0.1972 0.216 0.2723 0.2951 0.3495 0.3435 0.1642
3346.777 0.1424 0.3322 0.3451 0.3045 0.2972 0.3746 0.3909 0.2766 0.4355 0.6226
3366.066 0.6995 0.6887 0.659 0.7193 0.7271 0.7521 0.8916 1.0302 1.175 1.275
3385.356 1.455 1.735 1.885 2.085 2.445 2.765 3.005 3.225 3.395 3.385
3404.646 3.175 2.895 2.415 2.075 1.925 1.575 1.305 1.175 0.9461 0.8562
3423.936 0.8913 0.7543 0.716 0.7532 0.773 0.7776 0.7871 0.929 0.9283 0.9555
3443.225 1.115 1.125 1.075 1.075 1.055 1.205 1.315 1.315 1.475 1.635
3462.515 1.755 1.855 1.885 1.935 1.965 2.015 2.255 2.425 2.405 2.485
3481.805 2.455 2.325 2.315 2.285 1.955 1.645 1.605 1.605 1.515 1.335
3501.095 1.245 1.0294 0.8859 0.9009 0.8713 0.7718 0.7174 0.6544 0.5056 0.4354
3520.385 0.4056 0.367 0.2953 0.2047 0.2413 0.4114 0.3686 0.3765 0.4706 0.3793
3539.674 0.3306 0.4099 0.319 0.2314 0.2241 0.2419 0.2336 0.12928 0.1749 0.1744
3558.964 0.040041 0.10006 0.2011 0.1371 0.1464 0.1757 0.2385 0.3377 0.4851 0.4839
3578.254 0.1917 0.06535 0.1453 0.3211 0.2734 0.1677 0.3733 0.3523 0.1712 0.10424
3597.544 0.2109 0.2124 0.2026 0.2818 0.2099 0.1905 0.2057 0.1751 0.3287 0.435
3616.833 0.3121 0.2039 0.1867 0.2341 0.2247 0.14 0.09601 0.1688 0 0.07881
3636.123 0.3895 0.4438 0.3894 0.362 0.2615 0.165 0.2531 0.2517 0.2676 0.2337
3655.413 0.2553 0.3824 0.3835 0.3532 0.2826 0.1977 0.2078 0.2666 0.4245 0.4132
3674.703 0.3965 0.5362 0.4967 0.4827 0.4024 0.4007 0.5052 0.5715 0.6645 0.5076
3693.993 0.4066 0.4961 0.4968 0.3959 0.3981 0.4053 0.3239 0.3446 0.3984 0.4687
3713.282 0.4395 0.2684 0.3014 0.4656 0.3586 0.1843 0.1836 0.2884 0.3208 0.3378
3732.572 0.3087 0.311 0.4702 0.4762 0.4609 0.5521 0.4364 0.458 0.4619 0.3252
3751.862 0.3768 0.3796 0.3305 0.3272 0.3662 0.3955 0.4177 0.3844 0.3983 0.3527
3771.152 0.322 0.3696 0.3651 0.2825 0.2932 0.4263 0.3865 0.3892 0.499 0.5443
3790.441 0.4596 0.3212 0.3158 0.2665 0.2489 0.3844 0.4914 0.4304 0.394 0.4119
3809.731 0.3881 0.2752 0.2092 0.2513 0.2404 0.3497 0.4165 0.463 0.5792 0.4822
3829.021 0.3492 0.432 0.5816 0.4055 0.1743 0.2973 0.4944 0.5191 0.4762 0.5548
3848.311 0.5922 0.5816 0.4121 0.4241 0.6382 0.6678 0.7047 0.6237 0.641 0.6018
3867.601 0.4561 0.4026 0.4248 0.5513 0.5925 0.6024 0.6546 0.6567 0.6176 0.593
3886.890 0.5491 0.6238 0.7639 0.7833 0.7557 0.8504 0.6795 0.3739 0.5182 0.5783
3906.180 0.6074 0.711 0.5156 0.4197 0.3829 0.4658 0.6237 0.5433 0.4373 0.3795
3925.470 0.5255 0.6549 0.6289 0.6044 0.5682 0.5593 0.5813 0.7235 0.6933 0.6079
3944.760 0.6449 0.565 0.542 0.5362 0.5972 0.5641 0.4839 0.4263 0.5033 0.6074
3964.049 0.6807 0.7103 0.6157 0.6586 0.6251 0.5714 0.5135 0.5971 0.6482 0.7531
3983.339 0.718 0.5963 0.8687 0.8607 0.6182 0.612 0.5442 0.5523 0.6656 0.722
##END=
