##TITLE=(2-Methylpentyl)benzene
##JCAMP-DX=4.24
##DATA TYPE=INFRARED SPECTRUM
##ORIGIN=NIST Mass Spectrometry Data Center
##OWNER=NIST Standard Reference Data Program
Collection (C) 2018 copyright by the U.S. Secretary of Commerce
on behalf of the United States of America. All rights reserved.
##CAS REGISTRY NO=39916-61-5
##MOLFORM=C 12 H 18
##$NIST SOURCE=MSDC-IR
##SPECTROMETER/DATA SYSTEM=HP-GC/MS/IRD
##STATE=gas
##XUNITS=1/CM
##YUNITS=ABSORBANCE
##XFACTOR=1.0
##YFACTOR=0.000003200
##DELTAX=4.0
##FIRSTX=550.0
##LASTX=3846.0
##FIRSTY=0.000477
##MAXX=3846
##MINX=550
##MAXY=0.032
##MINY=0
##NPOINTS=825
##XYDATA=(X++(Y..Y))
550.0 149 91 35 5 8 54 84 87 119 172
590.0 210 257 244 174 145 127 125 135 129 107
630.0 89 95 105 100 83 102 166 224 275 338
670.0 426 534 693 1006 1550 2300 3010 3338 3155 2614
710.0 2080 1801 1813 2045 2367 2617 2636 2380 1965 1496
750.0 1091 815 623 465 340 267 229 210 185 165
790.0 156 168 164 151 146 128 124 134 190 186
830.0 133 125 114 106 103 99 83 77 77 85
870.0 92 91 108 122 135 164 185 208 247 276
910.0 266 248 237 202 171 159 173 191 201 219
950.0 211 192 160 121 96 84 74 61 65 72
990.0 66 64 73 85 109 129 149 209 325 444
1030.0 484 436 320 228 210 228 248 271 283 271
1070.0 241 222 216 208 211 232 261 290 300 305
1110.0 317 299 259 226 192 175 184 214 261 321
1150.0 362 354 302 226 165 129 109 96 101 120
1190.0 129 145 160 154 133 114 99 91 99 109
1230.0 123 137 158 177 173 168 157 150 150 150
1270.0 153 154 171 191 206 211 207 209 209 216
1310.0 229 237 247 261 274 298 319 340 367 405
1350.0 442 468 488 521 576 678 829 977 1041 994
1390.0 846 647 479 375 320 302 305 323 351 397
1430.0 476 602 782 1009 1275 1529 1716 1800 1779 1665
1470.0 1498 1300 1122 1052 1145 1349 1486 1420 1158 783
1510.0 472 325 257 229 218 207 189 172 160 150
1550.0 140 136 143 147 159 190 220 267 348 456
1590.0 571 675 758 771 694 553 384 253 186 146
1630.0 118 108 107 103 95 86 84 77 75 72
1670.0 59 60 63 53 49 55 61 63 68 68
1710.0 62 61 66 74 76 81 87 91 93 93
1750.0 91 79 71 69 65 68 73 91 119 151
1790.0 189 211 210 180 131 105 92 73 59 54
1830.0 54 58 56 54 64 79 94 110 122 130
1870.0 140 140 130 121 106 80 63 54 45 43
1910.0 47 61 80 105 137 166 186 199 198 188
1950.0 175 140 95 55 34 29 22 20 16 16
1990.0 16 8 10 11 8 8 5 11 16 10
2030.0 9 10 7 8 7 8 10 10 3 2
2070.0 2 2 4 5 7 9 5 6 11 4
2110.0 0 0 0 2 8 10 12 12 10 11
2150.0 5 1 10 17 15 14 15 14 20 20
2190.0 15 16 15 12 16 17 14 12 6 9
2230.0 11 12 14 9 9 9 10 10 6 10
2270.0 6 0 6 9 5 7 9 8 14 24
2310.0 31 39 41 34 24 21 29 31 32 31
2350.0 32 38 32 28 27 27 31 29 22 23
2390.0 25 25 27 24 19 26 26 16 12 18
2430.0 18 16 17 12 11 9 6 10 10 3
2470.0 9 12 14 15 14 12 12 16 20 21
2510.0 21 19 17 17 17 20 22 27 33 31
2550.0 27 33 43 44 46 46 47 51 55 62
2590.0 70 69 72 75 77 84 87 87 90 87
2630.0 90 93 87 82 85 82 75 86 93 89
2670.0 93 98 101 100 104 108 108 101 104 116
2710.0 117 115 129 151 162 175 190 197 205 202
2750.0 194 179 174 182 185 194 216 235 256 285
2790.0 302 321 347 368 399 443 483 525 591 676
2830.0 772 922 1141 1441 1818 2234 2597 2850 3021 3223
2870.0 3559 4031 4500 4767 4784 4630 4498 4580 4907 5439
2910.0 6113 6872 7625 8246 8645 8790 8645 8219 7614 7039
2950.0 6777 7095 8028 9200 10000 9803 8444 6424 4413 2925
2990.0 2089 1677 1469 1375 1356 1403 1547 1834 2264 2752
3030.0 3105 3134 2814 2270 1781 1537 1530 1750 2167 2580
3070.0 2744 2637 2293 1912 1685 1492 1276 1063 884 744
3110.0 634 528 426 345 283 236 207 201 194 179
3150.0 171 172 163 150 150 145 140 127 116 107
3190.0 105 105 89 84 72 63 64 60 53 51
3230.0 40 39 43 40 38 36 41 36 30 34
3270.0 36 32 31 27 22 28 28 32 35 25
3310.0 19 17 19 27 31 30 34 36 29 12
3350.0 20 25 20 15 21 41 36 30 33 32
3390.0 38 36 30 32 21 21 21 12 19 24
3430.0 22 24 22 18 24 20 12 11 9 14
3470.0 14 13 17 15 22 23 20 29 38 29
3510.0 5 0 4 18 23 18 27 18 14 24
3550.0 18 15 14 15 20 18 27 39 30 23
3590.0 29 16 5 18 27 23 29 34 36 59
3630.0 54 37 40 48 57 55 50 59 65 51
3670.0 39 44 58 53 50 50 39 24 38 48
3710.0 45 50 43 35 44 38 39 61 66 55
3750.0 53 58 54 48 40 40 49 49 49 46
3790.0 43 47 47 57 59 43 33 39 50 47
3830.0 56 68 56 44 47
##END=
