##TITLE=p-Bromophenyl butyl ether
##JCAMP-DX=4.24
##DATA TYPE=INFRARED SPECTRUM
##ORIGIN=EPA-IR VAPOR PHASE LIBRARY
##OWNER=SRD/NIST
Collection (C) 2018 copyright by the U.S. Secretary of Commerce
on behalf of the United States of America. All rights reserved.
##CAS REGISTRY NO=39969-57-8
##MOLFORM=C 10 H 13 Br O
##$NIST SOURCE=MSDC-IR
##STATE=gas
##XUNITS=1/CM
##YUNITS=ABSORBANCE
##XFACTOR=1.
##YFACTOR=0.001
##DELTAX=1.92898
##FIRSTX=549.8
##LASTX=4000.7
##FIRSTY=1.306
##MAXX=4000.7
##MINX=549.759
##MAXY=0.105596
##MINY=0
##NPOINTS=1790
##XYDATA=(X++(Y..Y))
549.759 1.306 1.2571 1.2186 1.202 1.366 1.436 1.1273 1.1306 1.2311 1.0816
569.049 0.9308 0.9767 1.286 1.566 1.436 1.2422 1.506 1.806 1.946 2.056
588.339 2.376 2.756 3.136 3.926 4.566 4.826 4.896 5.046 5.086 5.056
607.628 5.046 4.746 4.566 4.526 4.606 4.656 4.856 5.426 6.126 6.476
626.918 6.786 7.506 8.266 8.936 9.816 10.126 9.766 9.136 8.256 7.076
646.208 5.716 4.636 3.596 2.516 1.806 1.786 1.856 1.626 1.556 1.396
665.498 1.296 1.316 1.346 1.376 1.1832 1.0412 0.9742 0.9343 1.0492 1.1895
684.787 1.0155 0.9774 1.1537 1.0196 0.9419 1.107 1.286 1.2564 1.266 1.336
704.077 1.1747 1.1812 1.1472 0.9595 0.9523 0.9302 0.9585 1.2648 1.2325 1.1205
723.367 1.0452 0.9597 1.2632 1.476 1.446 1.2379 1.316 1.456 1.516 1.546
742.657 1.706 1.746 1.496 1.486 1.516 1.566 1.506 1.456 1.446 1.456
761.947 1.536 1.576 1.586 1.766 1.836 1.786 1.846 2.096 2.466 2.626
781.236 2.876 3.146 3.116 3.386 3.926 4.126 4.386 4.826 5.286 5.766
800.526 6.246 6.936 7.586 8.436 9.606 10.926 12.716 14.686 16.056 17.326
819.816 18.636 19.206 19.366 18.716 17.506 16.356 14.896 13.306 11.686 10.066
839.106 8.656 7.276 6.216 5.616 5.056 4.506 4.056 3.616 3.216 3.066
858.395 2.956 2.846 2.576 2.406 2.576 2.666 2.776 2.786 2.746 2.746
877.685 2.616 2.576 2.486 2.266 2.156 2.016 1.756 1.706 1.756 1.826
896.975 1.806 1.716 1.826 1.886 1.746 1.796 1.836 1.586 1.386 1.396
916.265 1.496 1.576 1.786 1.726 1.646 1.666 1.596 1.606 1.576 1.726
935.555 1.836 2.026 2.316 2.536 2.766 2.856 3.216 3.656 4.096 4.316
954.844 4.466 5.076 5.476 5.716 6.386 6.926 7.316 7.766 8.076 8.476
974.134 8.546 8.326 8.306 8.056 7.846 7.916 8.016 8.126 8.476 9.326
993.424 10.456 12.006 14.096 16.936 20.266 22.696 23.726 23.676 22.426 20.226
1012.714 18.136 16.926 16.526 16.426 16.716 17.476 17.646 17.416 17.216 16.806
1032.003 16.226 15.256 14.316 13.506 12.526 11.456 10.256 9.576 8.996 8.486
1051.293 8.746 9.156 9.986 11.166 12.426 14.266 16.856 19.756 22.586 25.316
1070.583 26.826 27.006 25.856 22.736 18.356 13.986 10.856 9.116 8.256 7.466
1089.873 6.776 6.686 6.426 5.986 5.996 6.326 6.586 6.656 6.526 6.496
1109.163 6.346 6.386 5.876 5.236 5.556 5.236 4.546 4.446 4.116 3.826
1128.452 3.606 3.756 4.066 3.746 3.436 3.346 3.516 3.766 3.946 3.876
1147.742 3.676 3.836 4.466 4.866 5.156 6.246 8.156 11.176 15.536 20.386
1167.032 23.706 24.496 23.636 20.666 15.966 11.426 8.236 6.726 6.136 5.696
1186.322 5.566 5.996 6.386 6.646 7.846 9.066 10.236 11.916 13.896 15.746
1205.611 17.696 20.356 23.356 27.186 31.866 36.816 42.166 47.886 53.246 58.676
1224.901 63.676 67.856 72.876 78.656 84.666 90.596 95.396 97.886 97.016 91.916
1244.191 83.686 73.556 62.946 53.446 45.506 39.976 36.126 33.776 32.296 31.026
1263.481 30.726 31.356 32.566 34.076 35.486 36.896 37.976 38.026 37.066 35.036
1282.771 32.096 28.466 24.856 21.756 19.176 17.366 16.136 15.266 14.716 14.206
1302.060 13.846 13.316 12.446 11.596 10.726 9.786 8.776 7.896 7.196 6.546
1321.350 6.096 5.796 5.506 5.216 4.946 4.716 4.526 4.306 4.136 4.076
1340.640 3.886 3.706 3.736 3.696 3.566 3.446 3.386 3.366 3.356 3.296
1359.930 3.286 3.396 3.446 3.526 3.716 3.976 4.366 4.836 5.426 6.206
1379.219 7.136 8.106 9.006 9.496 9.526 9.216 8.606 7.796 6.946 6.216
1398.509 5.606 5.146 4.746 4.406 4.206 4.066 4.026 4.046 4.116 4.236
1417.799 4.416 4.646 4.836 4.966 5.136 5.286 5.396 5.596 5.846 6.056
1437.089 6.346 6.606 6.816 7.006 7.266 7.706 8.286 8.846 9.496 10.366
1456.378 11.476 12.916 14.726 17.286 20.726 25.286 30.516 35.916 41.196 46.266
1475.668 50.686 55.176 61.086 69.916 81.576 94.016 103.276 105.596 100.166 87.886
1494.958 70.206 51.046 36.006 26.046 19.816 15.876 13.156 11.226 9.866 8.806
1514.248 8.036 7.356 6.716 6.126 5.506 5.086 4.646 4.246 3.956 3.716
1533.538 3.516 3.296 3.106 2.946 2.896 2.966 3.036 3.086 3.186 3.306
1552.827 3.476 3.676 3.856 4.086 4.636 5.256 5.986 6.896 7.976 9.406
1572.117 10.896 12.216 13.526 14.746 15.816 16.686 17.226 17.626 17.886 17.776
1591.407 17.216 16.306 15.016 13.296 11.546 9.846 8.196 6.696 5.536 4.716
1610.697 4.046 3.706 3.476 3.086 2.896 2.806 2.596 2.416 2.366 2.276
1629.986 2.186 2.066 1.926 1.876 1.866 1.846 1.756 1.676 1.576 1.416
1649.276 1.426 1.296 1.1983 1.346 1.346 1.316 1.2547 1.1474 1.1002 1.0785
1668.566 1.0067 0.9909 1.0113 0.9563 0.9287 0.9658 1.0021 0.9909 0.9069 0.9578
1687.856 1.0528 0.9832 0.898 0.8704 0.8498 0.9051 0.8486 0.8008 0.8847 0.8969
1707.146 0.9261 0.9464 0.9832 1.0339 1.0045 0.9551 1.0059 1.1206 1.0807 0.9875
1726.435 1.0755 1.1849 1.2218 1.2179 1.2255 1.306 1.396 1.416 1.436 1.426
1745.725 1.326 1.2363 1.1475 1.0856 1.0222 0.9679 0.9173 0.8717 0.8552 0.8227
1765.015 0.8236 0.8289 0.7805 0.6906 0.6661 0.6967 0.7637 0.8048 0.7746 0.7728
1784.305 0.7092 0.7337 0.7886 0.7494 0.7924 0.8959 0.9287 0.8692 0.9169 0.9242
1803.594 0.8522 0.838 0.8374 0.901 0.9058 0.8551 0.858 0.8918 0.94 0.9906
1822.884 0.982 0.9247 0.9514 0.9797 1.0178 1.0165 1.0568 1.1133 1.0586 1.1566
1842.174 1.316 1.356 1.326 1.336 1.416 1.496 1.556 1.626 1.716 1.766
1861.464 1.816 1.926 1.956 1.876 1.856 1.926 1.926 1.776 1.686 1.716
1880.754 1.676 1.546 1.436 1.366 1.306 1.306 1.276 1.1736 1.162 1.1319
1900.043 1.0717 1.0527 0.9977 0.9288 0.9101 0.9312 0.8815 0.8436 0.8422 0.8194
1919.333 0.843 0.8865 0.8611 0.8303 0.8396 0.828 0.801 0.7827 0.7838 0.8334
1938.623 0.827 0.823 0.8349 0.8044 0.8305 0.8379 0.8333 0.8309 0.8819 0.9175
1957.913 0.876 0.8913 0.8621 0.8368 0.893 0.8764 0.8334 0.8749 0.9293 0.9668
1977.202 0.9677 0.9494 0.9626 1.0242 1.0739 1.0481 1.1161 1.1729 1.1783 1.1992
1996.492 1.1804 1.183 1.2273 1.2341 1.261 1.316 1.336 1.306 1.306 1.396
2015.782 1.376 1.386 1.436 1.446 1.456 1.406 1.416 1.506 1.496 1.456
2035.072 1.506 1.496 1.506 1.486 1.476 1.476 1.456 1.496 1.456 1.386
2054.362 1.356 1.286 1.286 1.376 1.306 1.2546 1.296 1.276 1.2225 1.1443
2073.651 1.0852 1.0852 1.0993 1.1209 1.129 1.0477 0.9977 0.9813 0.9137 0.869
2092.941 0.8344 0.8536 0.8731 0.8288 0.7613 0.8038 0.871 0.7863 0.7024 0.7051
2112.231 0.6939 0.7149 0.6903 0.6751 0.6513 0.5775 0.5805 0.5924 0.5778 0.5085
2131.521 0.5062 0.5794 0.5477 0.5138 0.4767 0.4947 0.583 0.6533 0.6499 0.5789
2150.810 0.5824 0.53 0.5256 0.599 0.6 0.5465 0.5504 0.5891 0.5499 0.5667
2170.100 0.5882 0.6003 0.6177 0.5605 0.5399 0.6028 0.5748 0.5735 0.6047 0.6033
2189.390 0.6011 0.5346 0.5784 0.6382 0.6222 0.616 0.5573 0.5613 0.6155 0.6165
2208.680 0.5937 0.6041 0.6119 0.5767 0.6211 0.6316 0.6473 0.628 0.5905 0.5519
2227.970 0.6013 0.6334 0.5805 0.643 0.6384 0.5797 0.5451 0.564 0.6064 0.5587
2247.259 0.5514 0.5985 0.7071 0.7524 0.7375 0.7252 0.6638 0.7254 0.7679 0.722
2266.549 0.7096 0.7208 0.7638 0.8522 0.8509 0.7808 0.8285 0.8747 0.8051 0.7639
2285.839 0.7692 0.7504 0.7522 0.7643 0.7046 0.7671 0.8075 0.7369 0.7725 0.8127
2305.129 0.8129 0.7132 0.6748 0.7349 0.683 0.6287 0.6028 0.6025 0.7092 0.6659
2324.418 0.602 0.6552 0.665 0.6694 0.6191 0.5651 0.6302 0.6878 0.6898 0.7205
2343.708 0.6731 0.593 0.5916 0.5934 0.5656 0.6229 0.7136 0.6588 0.6267 0.6717
2362.998 0.6665 0.6993 0.7914 0.8566 0.8515 0.9285 0.9427 0.8511 0.8721 0.8673
2382.288 0.798 0.8505 0.9357 1.0048 1.0247 1.0228 0.951 0.8406 0.8976 0.9449
2401.578 0.9495 0.9705 0.9694 0.9796 1.0119 1.0353 1.0084 0.958 0.9191 0.837
2420.867 0.8638 0.9601 0.8875 0.8959 0.9618 0.8956 0.8348 0.7903 0.8665 0.9075
2440.157 0.902 0.9564 1.0226 1.0513 1.0162 0.9833 1.0362 1.041 0.9879 0.9945
2459.447 1.0018 1.04 1.0528 1.042 1.0739 1.0534 1.0881 1.1734 1.0915 1.1107
2478.737 1.0968 1.0418 1.0704 1.0121 1.0199 1.0723 1.0852 1.0701 1.1062 1.1606
2498.026 1.1839 1.2188 1.1707 1.1262 1.2204 1.266 1.258 1.2437 1.1941 1.185
2517.316 1.1515 1.1104 1.1705 1.2149 1.1679 1.1692 1.1636 1.133 1.1416 1.0731
2536.606 1.0353 1.0881 1.0851 1.0598 0.984 0.9888 0.979 0.9036 0.911 0.8913
2555.896 0.8313 0.8438 0.9352 0.9562 0.8899 0.9309 0.9184 0.838 0.8298 0.7695
2575.186 0.7381 0.7483 0.7572 0.7752 0.7615 0.7766 0.8527 0.7472 0.6545 0.7387
2594.475 0.7742 0.7508 0.7353 0.7688 0.8017 0.7266 0.6636 0.6899 0.7615 0.7788
2613.765 0.7285 0.7129 0.6648 0.5895 0.5503 0.6146 0.6355 0.6408 0.6454 0.5828
2633.055 0.5851 0.6596 0.7437 0.8015 0.799 0.7052 0.783 0.7807 0.7275 0.7516
2652.345 0.7441 0.82 0.7695 0.7313 0.749 0.7281 0.7771 0.7862 0.854 0.9564
2671.634 0.9832 0.8755 0.7926 0.8219 0.9044 0.9347 0.8701 0.8179 0.8134 0.8532
2690.924 0.9327 0.9474 0.9573 1.0132 0.9673 0.975 0.9363 0.9254 1.0286 1.0718
2710.214 1.0224 0.9837 1.0314 1.0701 1.1026 1.1833 1.2312 1.2391 1.247 1.2614
2729.504 1.356 1.376 1.356 1.356 1.386 1.496 1.526 1.616 1.646 1.606
2748.794 1.696 1.656 1.576 1.596 1.646 1.716 1.626 1.656 1.676 1.596
2768.083 1.536 1.536 1.446 1.336 1.356 1.416 1.586 1.636 1.646 1.666
2787.373 1.636 1.646 1.666 1.816 1.936 1.936 1.986 2.136 2.086 2.026
2806.663 2.156 2.256 2.326 2.416 2.486 2.456 2.566 2.816 2.876 2.886
2825.953 2.946 2.966 3.126 3.386 3.556 3.656 3.836 4.146 4.416 4.676
2845.242 5.086 5.416 5.786 6.336 6.926 7.416 7.796 8.306 8.946 9.606
2864.532 10.396 11.256 12.186 13.286 14.356 15.396 16.516 17.556 18.566 19.556
2883.822 20.056 20.186 20.096 19.506 18.746 18.046 17.516 17.146 16.946 16.896
2903.112 16.976 17.316 17.776 18.326 19.066 19.736 20.256 20.826 21.316 21.766
2922.401 22.356 22.926 23.576 24.416 25.316 26.296 27.656 29.006 30.316 31.716
2941.691 32.866 33.726 34.156 34.176 33.966 33.526 33.176 33.166 33.526 34.236
2960.981 35.196 36.346 37.436 38.276 38.636 38.096 36.686 34.206 30.916 27.346
2980.271 23.696 20.326 17.576 15.286 13.336 11.626 10.076 9.026 8.076 7.206
2999.561 6.556 5.976 5.516 5.166 4.766 4.456 4.396 4.116 3.906 3.936
3018.850 3.806 3.636 3.476 3.516 3.456 3.396 3.586 3.716 3.866 4.066
3038.140 4.256 4.276 4.246 4.146 3.946 3.776 3.536 3.316 3.086 2.826
3057.430 2.736 2.736 2.646 2.706 2.866 3.036 3.156 3.246 3.446 3.696
3076.720 3.956 4.006 3.936 4.026 3.986 3.816 3.926 3.976 3.966 4.156
3096.009 4.176 3.976 3.796 3.586 3.126 2.686 2.466 2.116 1.766 1.586
3115.299 1.546 1.516 1.366 1.2001 1.0692 1.1103 1.09 0.9845 0.9497 0.9927
3134.589 0.9739 0.8206 0.7016 0.6988 0.8526 0.8311 0.8337 0.9395 0.8507 0.7905
3153.879 0.8006 0.7867 0.8185 0.7219 0.6577 0.8108 0.8363 0.8305 0.8174 0.7256
3173.169 0.6439 0.6968 0.685 0.6297 0.6009 0.4493 0.4179 0.587 0.6069 0.567
3192.458 0.5443 0.35361 0.4862 0.6476 0.5629 0.5482 0.5769 0.7588 0.7396 0.6995
3211.748 0.6658 0.423 0.4148 0.5134 0.5104 0.5135 0.5247 0.4196 0.33507 0.4066
3231.038 0.4503 0.36006 0.4809 0.4915 0.4078 0.4643 0.469 0.4481 0.36418 0.30943
3250.328 0.34532 0.4115 0.2557 0.30625 0.432 0.4139 0.5313 0.5819 0.4118 0.2271
3269.617 0.2063 0.28944 0.4259 0.4497 0.5604 0.4858 0.1799 0.083 0.2398 0.33608
3288.907 0.28057 0.29145 0.25608 0.28948 0.3035 0.2535 0.274916 0.33216 0.266244 0.31015
3308.197 0.397 0.25693 0.26139 0.29539 0.28762 0.33425 0.31818 0.4048 0.3978 0.31246
3327.487 0.4365 0.5478 0.5279 0.5285 0.4812 0.35579 0.2534 0.266901 0.30435 0.2159
3346.777 0.2338 0.3678 0.2734 0.1749 0.31336 0.35381 0.1904 0.097 0.029 0
3366.066 0.097 0.2026 0.3729 0.36152 0.4587 0.5187 0.3841 0.4129 0.4561 0.4373
3385.356 0.4025 0.4202 0.4165 0.33501 0.270662 0.156 0.142 0.29816 0.35225 0.267315
3404.646 0.2057 0.2537 0.29831 0.3777 0.4539 0.3972 0.31007 0.3688 0.36212 0.35419
3423.936 0.4023 0.34794 0.32745 0.3907 0.4998 0.3934 0.267094 0.28654 0.096 0.017
3443.225 0.157 0.2245 0.28333 0.28524 0.35963 0.469 0.33498 0.167 0.1843 0.1986
3462.515 0.1685 0.1674 0.113 0.154 0.1787 0.134 0.1914 0.105 0.122 0.36156
3481.805 0.4837 0.4624 0.3926 0.38 0.3841 0.34537 0.31555 0.3161 0.36556 0.35566
3501.095 0.101 0.032 0.182 0.107 0.044 0.25826 0.3934 0.3868 0.4297 0.3891
3520.385 0.29086 0.35636 0.4403 0.30324 0.2177 0.32206 0.32718 0.30981 0.30168 0.28768
3539.674 0.4044 0.4898 0.5467 0.4661 0.3665 0.31598 0.32746 0.33154 0.26315 0.1671
3558.964 0.107 0.1702 0.27679 0.4906 0.4187 0.3726 0.31374 0.121 0.156 0.1801
3578.254 0.132 0.2353 0.27967 0.266084 0.33094 0.28479 0.2468 0.1745 0.275677 0.4103
3597.544 0.3826 0.3861 0.33368 0.32671 0.3416 0.2472 0.136 0.165 0.139 0.086
3616.833 0.1895 0.143 0.066 0.1824 0.268375 0.157 0.111 0.159 0.2295 0.34039
3636.123 0.1968 0.08 0.122 0.085 0.081 0.1756 0.34676 0.4052 0.4532 0.5858
3655.413 0.5589 0.4662 0.36139 0.31749 0.336 0.3283 0.4623 0.36496 0.31563 0.4503
3674.703 0.32765 0.33944 0.4851 0.49 0.4693 0.5342 0.5243 0.4309 0.368 0.29765
3693.993 0.2464 0.2022 0.1863 0.30894 0.4227 0.36507 0.4674 0.4686 0.28511 0.274596
3713.282 0.33794 0.4854 0.4981 0.4054 0.4276 0.5098 0.4645 0.4614 0.4763 0.4092
3732.572 0.4235 0.479 0.6086 0.5803 0.4517 0.4136 0.2875 0.270678 0.3753 0.34157
3751.862 0.36475 0.36457 0.28606 0.27649 0.3786 0.4532 0.4731 0.411 0.29697 0.34315
3771.152 0.4449 0.4609 0.4958 0.4629 0.4808 0.5021 0.373 0.33863 0.4495 0.412
3790.441 0.29428 0.28119 0.158 0.2202 0.2373 0.131 0.122 0.33975 0.4993 0.4484
3809.731 0.4451 0.36213 0.28158 0.2416 0.30051 0.25839 0.149 0.2305 0.4833 0.6421
3829.021 0.5341 0.36536 0.3342 0.3806 0.3841 0.32911 0.33122 0.28513 0.2254 0.32754
3848.311 0.4248 0.34351 0.1749 0.2304 0.4115 0.5435 0.5927 0.3707 0.30943 0.5315
3867.601 0.5337 0.4426 0.32535 0.2393 0.29598 0.3915 0.32453 0.4281 0.6234 0.6139
3886.890 0.5255 0.4054 0.4382 0.5142 0.4141 0.35659 0.3941 0.35791 0.3712 0.26182
3906.180 0.30187 0.4203 0.4718 0.4205 0.34053 0.35398 0.397 0.5762 0.6743 0.6087
3925.470 0.489 0.5027 0.4591 0.3676 0.5177 0.6639 0.5515 0.4694 0.35572 0.30988
3944.760 0.28188 0.2523 0.3864 0.32649 0.33075 0.31789 0.28327 0.4489 0.6076 0.4927
3964.049 0.30679 0.35565 0.3742 0.5401 0.6601 0.4442 0.35201 0.3927 0.34718 0.4414
3983.339 0.5229 0.4 0.29051 0.33517 0.5097 0.5571 0.6049 0.5989 0.3908 0.4738
##END=
