##TITLE=3,5-Dichlorobenzylamine
##JCAMP-DX=4.24
##DATA TYPE=INFRARED SPECTRUM
##ORIGIN=EPA-IR VAPOR PHASE LIBRARY
##OWNER=SRD/NIST
Collection (C) 2018 copyright by the U.S. Secretary of Commerce
on behalf of the United States of America. All rights reserved.
##CAS REGISTRY NO=39989-43-0
##MOLFORM=C 7 H 7 Cl 2 N
##$NIST SOURCE=MSDC-IR
##STATE=gas
##XUNITS=1/CM
##YUNITS=ABSORBANCE
##XFACTOR=1.
##YFACTOR=0.001
##DELTAX=1.92898
##FIRSTX=549.8
##LASTX=4000.7
##FIRSTY=2.655
##MAXX=4000.7
##MINX=549.759
##MAXY=0.080315
##MINY=0
##NPOINTS=1790
##XYDATA=(X++(Y..Y))
549.759 2.655 3.095 3.365 2.965 2.515 3.845 4.115 3.035 3.505 3.705
569.049 3.515 4.695 5.215 4.285 3.555 4.785 5.975 6.275 6.535 6.795
588.339 6.955 5.795 5.355 6.205 6.505 6.915 7.635 7.875 7.925 7.865
607.628 8.085 8.255 8.045 7.585 7.365 7.015 6.455 6.495 6.565 6.905
626.918 7.035 6.855 7.035 7.205 6.885 6.945 6.975 7.285 7.235 6.485
646.208 6.625 6.675 6.865 6.905 6.825 7.355 8.215 8.845 9.515 10.525
665.498 11.615 12.675 13.515 14.635 15.985 17.805 19.885 20.475 19.935 19.495
684.787 18.535 17.425 16.295 15.235 14.365 13.675 13.155 12.995 12.545 11.995
704.077 11.965 12.335 13.185 13.295 13.355 13.405 13.465 14.175 14.635 15.185
723.367 15.455 15.495 16.325 17.085 17.105 18.025 19.135 19.585 20.245 20.725
742.657 21.225 21.595 22.145 22.725 23.315 24.575 25.615 26.405 27.385 28.145
761.947 29.035 30.015 30.815 32.005 32.815 32.705 32.745 32.915 33.715 35.625
781.236 37.315 39.245 42.785 47.715 52.645 57.565 63.315 67.775 69.795 70.325
800.526 69.505 66.665 61.495 54.435 46.065 38.085 31.755 27.645 25.605 24.475
819.816 22.955 21.705 21.595 22.365 22.655 21.855 21.395 20.975 21.105 21.675
839.106 22.195 23.125 24.725 26.395 28.105 29.815 31.395 33.025 33.315 31.945
858.395 30.455 29.315 27.275 23.685 20.355 17.925 15.825 14.395 13.325 12.445
877.685 11.885 12.065 12.255 12.065 11.875 11.655 11.225 10.935 10.435 9.235
896.975 8.345 7.875 7.185 6.405 5.905 5.605 5.175 4.945 4.555 4.395
916.265 4.615 4.215 4.205 4.445 3.975 3.295 3.435 3.975 3.825 3.195
935.555 2.905 3.075 3.085 3.015 3.115 3.765 3.565 2.665 2.985 3.245
954.844 3.155 3.265 2.885 2.925 3.185 2.905 3.105 3.365 3.175 2.895
974.134 2.615 2.515 2.725 2.585 2.625 3.115 3.605 3.495 3.475 3.835
993.424 3.565 3.325 3.315 3.045 3.415 4.255 3.715 2.935 3.305 3.945
1012.714 4.595 4.795 4.545 3.955 4.455 4.765 4.765 5.675 5.195 4.805
1032.003 5.085 5.025 4.475 4.465 5.045 5.545 5.485 5.435 5.705 5.415
1051.293 5.995 7.085 6.705 5.925 5.515 5.345 5.205 5.205 5.745 5.365
1070.583 4.725 4.555 4.205 3.725 3.185 4.555 6.445 7.535 8.165 9.265
1089.873 11.775 12.845 13.875 15.165 14.605 15.135 16.685 17.025 15.565 13.905
1109.163 12.685 10.475 9.655 9.915 8.505 7.655 7.905 7.345 5.985 5.065
1128.452 5.535 4.915 3.605 3.935 3.865 2.735 3.085 3.005 2.575 3.595
1147.742 4.125 3.905 3.785 3.105 2.205 2.745 4.075 3.765 3.235 3.765
1167.032 4.645 5.285 5.685 6.125 5.985 6.275 5.955 6.565 8.405 9.115
1186.322 9.745 11.135 12.625 13.235 14.835 17.785 19.245 19.895 21.865 23.895
1205.611 23.485 22.015 20.205 19.305 19.725 18.865 17.255 15.125 14.075 13.225
1224.901 11.455 10.645 11.265 11.245 9.405 8.565 8.145 7.065 6.055 6.515
1244.191 6.285 5.295 4.875 4.265 3.865 3.325 3.285 3.135 2.575 2.565
1263.481 1.895 1.4852 2.495 2.365 2.175 2.425 2.525 2.745 2.525 2.385
1282.771 2.265 2.235 2.495 2.415 2.495 2.635 2.665 2.855 2.715 2.325
1302.060 2.245 2.505 2.645 2.575 2.815 2.885 2.835 3.215 3.535 3.715
1321.350 3.925 4.325 4.645 4.915 5.265 5.595 5.935 6.305 6.485 6.795
1340.640 7.265 7.565 7.815 7.945 8.285 8.675 9.035 9.565 10.155 10.715
1359.930 11.555 12.605 13.555 14.425 15.245 16.165 17.305 18.305 19.055 19.705
1379.219 20.215 20.745 20.935 20.705 20.345 19.775 18.935 17.865 16.675 15.385
1398.509 14.125 13.235 12.655 12.295 12.465 13.005 14.035 15.705 18.005 21.025
1417.799 24.495 28.615 33.015 37.395 41.535 44.505 46.405 47.045 45.805 43.005
1437.089 39.355 35.155 30.515 25.555 20.415 15.945 12.705 10.585 9.095 8.095
1456.378 7.375 6.945 6.595 6.215 6.095 5.955 5.775 5.625 5.235 4.935
1475.668 4.835 4.525 4.315 4.265 4.305 4.375 4.225 4.115 4.085 3.865
1494.958 3.785 3.785 3.755 3.745 3.755 3.825 3.715 3.715 3.845 3.955
1514.248 3.985 4.105 4.325 4.285 4.375 4.455 4.535 4.895 5.205 5.245
1533.538 5.575 6.235 6.625 7.345 8.425 9.615 11.315 13.645 16.485 20.075
1552.827 24.635 30.165 36.365 43.105 50.535 58.085 65.265 71.825 76.725 79.565
1572.117 80.315 78.505 74.705 69.275 62.465 55.095 48.555 43.525 39.865 36.975
1591.407 34.005 30.875 27.705 24.665 22.245 20.105 18.095 16.625 15.465 14.825
1610.697 14.475 14.205 14.205 14.085 14.135 13.845 13.295 13.215 12.725 11.825
1629.986 11.045 10.235 9.385 8.575 8.065 7.645 7.085 6.795 6.315 5.675
1649.276 5.495 5.225 4.855 4.615 4.325 4.235 4.035 3.865 3.845 3.525
1668.566 2.965 2.855 3.135 3.055 2.945 2.705 2.395 2.485 2.585 2.575
1687.856 2.555 2.425 2.435 2.535 2.635 2.625 2.545 2.485 2.385 2.705
1707.146 3.115 3.315 3.505 3.705 3.815 4.055 4.215 4.125 4.055 4.055
1726.435 4.145 3.965 3.775 3.575 3.325 3.185 3.195 3.295 3.215 2.975
1745.725 2.805 2.935 3.205 3.145 3.195 3.415 3.285 3.235 3.165 3.115
1765.015 3.225 3.245 3.055 2.615 2.465 2.505 2.485 2.465 2.365 2.235
1784.305 2.165 2.075 2.125 2.215 2.135 2.085 2.065 2.085 1.955 1.935
1803.594 1.985 1.995 1.915 1.975 2.065 1.795 1.7399 1.845 1.895 1.935
1822.884 1.815 1.7569 1.6877 1.6067 1.7424 1.825 1.6324 1.5262 1.5085 1.5221
1842.174 1.6068 1.611 1.5011 1.5145 1.6536 1.805 1.835 1.6002 1.3944 1.5179
1861.464 1.575 1.4606 1.4215 1.3021 1.1988 1.1445 1.2563 1.4414 1.4034 1.267
1880.754 1.2877 1.3737 1.4319 1.4812 1.5239 1.5292 1.5093 1.5347 1.5531 1.5112
1900.043 1.5878 1.5853 1.7297 1.7159 1.5336 1.6152 1.4939 1.4143 1.4782 1.3951
1919.333 1.3055 1.2984 1.1926 1.1372 1.1465 1.2629 1.4105 1.2235 1.0957 1.3123
1938.623 1.464 1.3436 1.2687 1.3109 1.3117 1.1222 0.9469 1.0116 1.1249 1.3819
1957.913 1.5584 1.3425 1.2684 1.2334 1.1782 1.2814 1.2662 1.0986 1.0667 1.2216
1977.202 1.3885 1.4493 1.375 1.3999 1.4233 1.3552 1.3195 1.3107 1.2838 1.1878
1996.492 1.1559 1.2004 1.2202 1.1198 1.1538 1.3742 1.3619 1.2825 1.1577 1.1451
2015.782 1.1528 1.1307 1.2375 1.2693 1.1434 1.1032 1.229 1.2563 1.3257 1.2441
2035.072 1.213 1.2589 1.2193 1.26 1.116 0.9444 0.9461 1.053 0.9248 0.9108
2054.362 1.1316 1.2329 1.151 0.9196 1.0256 1.131 0.9086 0.9656 1.1327 1.1821
2073.651 1.1712 1.1076 1.1676 1.2322 1.3213 1.4212 1.3412 1.0956 1.0277 1.0603
2092.941 1.0714 0.9801 0.9873 1.1833 1.2633 1.2152 1.1445 1.1123 1.1138 1.0905
2112.231 0.9416 0.9967 1.0549 1.1734 1.2559 1.0367 1.0276 1.0272 0.9346 1.022
2131.521 1.0603 1.0346 1.0164 1.0812 1.0756 1.1984 1.2525 1.1153 1.1305 1.1142
2150.810 1.085 1.1789 1.2696 1.1703 1.146 1.2858 1.273 1.1238 1.1201 1.0826
2170.100 1.0104 1.0858 1.2468 1.2391 1.1825 1.2849 1.1898 0.9872 1.0539 1.1102
2189.390 1.2034 1.2465 1.1462 1.1445 1.0517 1.0388 1.022 0.9495 1.0154 1.103
2208.680 1.2599 1.2481 1.1401 1.0484 1.1166 1.1347 1.1448 1.1775 1.0263 1.0927
2227.970 1.1292 1.1273 1.2408 1.2144 1.1443 1.1084 0.9484 0.9235 1.0468 1.0355
2247.259 1.0157 1.0442 1.0329 1.2096 1.2944 1.1922 1.3024 1.2201 1.0575 0.9889
2266.549 1.1196 1.1508 0.9453 1.1114 1.3331 1.4498 1.3229 1.0513 1.1002 1.1342
2285.839 1.0766 1.105 1.1481 1.1865 1.1542 1.0313 0.9331 1.1244 1.3449 1.4375
2305.129 1.2907 1.0632 1.0434 1.2373 1.2684 1.2262 1.1112 0.84245 1.026 1.449
2324.418 1.3636 1.0134 1.0511 1.2569 1.0914 1.058 1.1241 1.0976 1.0363 0.9757
2343.708 1.0636 0.9534 0.9915 0.9442 0.81591 0.8946 1.111 1.2103 1.1473 1.1131
2362.998 1.3125 1.4401 1.2739 1.0758 0.94 1.0307 1.2049 1.4121 1.5996 1.5423
2382.288 1.5236 1.5487 1.5316 1.5812 1.5264 1.3615 1.306 1.2429 1.3157 1.3211
2401.578 1.0502 0.87706 1.1448 1.257 1.12 1.1954 1.2905 1.1562 0.87341 0.9639
2420.867 1.001 1.0735 1.0742 1.1595 1.243 1.2821 1.327 1.0605 0.8262 0.9537
2440.157 1.3598 1.3238 1.065 0.8949 1.2715 1.4409 1.0805 1.0147 1.0919 1.2244
2459.447 1.3666 1.3361 1.1685 1.1003 1.1158 1.1618 1.0248 1.012 1.2345 1.1596
2478.737 1.192 1.209 1.1799 1.2086 1.0026 0.86429 0.8921 1.3121 1.4838 1.3265
2498.026 1.2552 1.0591 1.0031 1.0855 0.972 1.104 1.1507 1.0082 1.0135 0.9954
2517.316 1.0572 0.83093 0.80415 1.022 1.0148 1.0168 0.9494 0.8874 1.0062 1.0682
2536.606 0.9368 0.9247 1.0658 1.1957 1.1657 1.2695 1.33 1.1359 1.1745 1.0236
2555.896 1.0276 1.2697 1.2323 1.0075 0.9171 1.2064 1.244 1.1795 1.0937 1.1044
2575.186 1.1605 1.1517 1.0358 0.7676 0.8876 1.0721 1.1522 1.2958 1.1327 1.1194
2594.475 1.3076 1.2982 1.2333 1.1114 1.1202 1.1416 1.3334 1.463 1.4009 1.3829
2613.765 1.487 1.502 1.502 1.3475 1.3064 1.5798 1.5595 1.3732 1.4001 1.5016
2633.055 1.3024 0.9976 0.9559 1.1537 1.2881 1.2292 1.14 1.2985 1.6094 1.6031
2652.345 1.4261 1.4882 1.4999 1.3828 1.3004 1.3434 1.4043 1.3934 1.6604 1.6643
2671.634 1.3654 1.6095 1.965 1.7591 1.3378 1.5502 1.915 1.865 1.7613 1.7199
2690.924 1.7148 1.7166 1.5763 1.5557 1.7183 1.7665 1.7174 1.805 1.825 1.6908
2710.214 1.583 1.6774 1.885 1.7603 1.885 2.105 1.6976 1.4589 1.64 1.7112
2729.504 1.6784 1.815 1.895 2.105 2.235 1.795 1.865 2.185 2.015 2.105
2748.794 2.325 2.065 2.035 1.975 1.855 1.795 2.085 2.325 2.065 2.095
2768.083 1.995 1.815 1.6682 1.845 2.175 2.205 2.495 2.555 2.365 2.155
2787.373 1.915 2.005 2.025 2.205 2.395 2.205 2.085 2.515 2.835 2.715
2806.663 2.965 3.225 3.135 3.275 3.405 3.295 3.525 3.855 4.135 4.015
2825.953 3.995 4.505 4.805 5.075 5.225 5.245 5.445 5.815 6.335 6.715
2845.242 7.115 7.705 8.215 8.355 8.655 8.825 8.865 9.445 9.895 10.025
2864.532 10.135 10.205 10.215 10.255 10.225 10.035 10.145 9.755 9.055 9.155
2883.822 9.205 9.155 8.935 9.075 9.495 9.275 8.905 9.345 10.145 10.065
2903.112 9.865 9.775 9.815 9.785 9.495 9.705 9.745 9.655 9.485 9.455
2922.401 9.445 9.295 9.315 9.085 8.595 8.285 8.345 8.485 8.685 8.855
2941.691 8.915 8.815 8.575 8.615 8.715 8.285 7.745 7.105 6.495 5.995
2960.981 5.685 5.485 5.095 4.555 3.975 4.265 4.205 3.365 3.105 3.205
2980.271 3.025 2.905 2.905 2.425 2.265 2.285 2.095 1.805 1.795 2.235
2999.561 2.185 1.6699 1.5151 1.7358 1.7577 1.1744 1.1256 1.4243 1.6057 1.7153
3018.850 1.5136 1.805 1.4928 1.4317 1.905 1.965 1.865 1.5547 1.5216 1.4215
3038.140 1.34 1.6484 1.4694 1.0369 1.3186 1.7077 1.6473 2.145 2.465 2.585
3057.430 3.015 3.125 3.085 3.115 3.235 2.985 2.675 2.455 2.165 2.005
3076.720 1.985 1.7359 1.6079 1.6383 1.7037 1.6545 1.747 1.5353 1.2463 1.3492
3096.009 1.0386 0.9816 1.1472 1.1593 1.0323 0.7367 0.641 0.85586 0.9809 1.0766
3115.299 1.1719 1.1248 1.3977 1.5323 1.6541 1.935 1.4354 0.7496 0.80851 0.88131
3134.589 0.9495 1.2507 1.2512 1.2051 1.3566 1.1335 0.8471 0.9419 0.9279 1.2021
3153.879 1.2871 0.8978 0.547 0.361 0.506 0.625 0.7043 1.1221 1.4347 1.1929
3173.169 1.1027 1.2628 1.1628 0.923 0.9903 0.8972 0.614 0.9784 1.3542 1.3166
3192.458 1.4022 1.4697 0.9614 0.593 1.0583 1.6661 1.3104 1.0727 1.6516 1.5043
3211.748 0.9567 0.7042 0.557 0.87534 1.0917 0.936 0.6966 0.596 0.483 0.514
3231.038 0.81081 1.0559 1.5384 1.4736 1.0948 1.1575 1.2891 1.0746 1.2147 1.4158
3250.328 1.2696 1.2448 1.4131 1.0712 0.7432 1.2906 1.5598 1.2537 1.3801 1.3704
3269.617 1.1176 1.1882 0.6872 0.526 0.7132 0.602 0.87102 0.9327 0.8928 0.87867
3288.907 0.85136 0.80889 0.9437 1.0247 1.1535 1.2677 0.83751 0.82038 1.1995 1.1177
3308.197 0.785507 0.82809 0.77641 0.512 0.7157 1.1176 1.2157 1.406 1.5687 1.1561
3327.487 0.9544 1.0929 0.9608 1.109 1.1853 1.4075 1.825 1.975 1.6308 1.2888
3346.777 1.509 1.6218 1.5153 1.6871 1.785 1.7569 1.805 1.4872 1.4551 1.3057
3366.066 1.2954 1.4159 1.3401 1.2212 1.3597 1.845 1.4603 1.463 1.6477 1.1151
3385.356 0.87432 1.032 0.9684 1.2834 1.965 1.6837 0.9726 1.1186 1.7556 1.6443
3404.646 1.438 1.6736 1.3132 0.9547 1.3762 1.5102 1.2315 1.3046 1.442 1.6809
3423.936 1.4104 1.3234 1.4338 1.4549 1.805 1.6116 1.656 1.335 1.0464 1.3376
3443.225 1.4384 1.4578 0.9492 0.83487 1.0232 1.017 1.0864 0.624 0.527 0.486
3462.515 0.621 1.0008 0.553 0.489 0.757 1.0183 1.1681 1.2417 1.6762 1.6264
3481.805 1.1681 0.9914 1.3122 1.542 1.0177 0.88194 0.8988 0.532 0.649 0.85194
3501.095 0.84286 0.87995 0.80275 0.571 1.0035 1.2379 0.80721 0.86488 1.4309 1.6447
3520.385 1.5227 1.3674 0.9693 0.9093 1.0307 0.9154 0.515 0.263 0.631 0.7003
3539.674 0.495 0.7369 0.9797 1.0449 1.0305 0.77873 0.297 0.495 0.7658 0.21
3558.964 0.198 0.7005 0.9291 0.518 0 0.385 1.0044 1.1066 1.2366 1.2831
3578.254 1.1851 0.9561 0.85403 0.82789 0.7025 1.0951 1.4713 1.5339 1.1955 0.9582
3597.544 0.9362 0.79934 0.9773 1.2928 1.5427 1.3527 0.9775 0.7058 0.568 0.637
3616.833 0.647 0.9741 1.1703 1.2028 1.2465 0.8984 0.6968 0.9472 1.4679 1.3047
3636.123 0.9325 1.3987 1.7636 1.521 0.9071 0.605 0.9099 1.4097 1.3963 0.9455
3655.413 1.0564 1.3104 1.3155 1.3279 1.2225 1.4248 1.446 1.2114 1.1097 1.2423
3674.703 1.3468 0.9372 1.0441 1.2003 1.0794 0.9734 0.7506 0.7291 0.618 0.79994
3693.993 1.1768 0.87674 0.77672 1.1313 0.9405 0.815 0.9166 0.9023 0.655 0.84761
3713.282 1.2297 1.3372 1.4509 0.9573 0.985 1.3909 0.9317 1.0787 1.5459 1.1703
3732.572 0.67 0.391 0.385 0.6958 1.05 1.0868 0.87439 0.7083 0.83238 0.9874
3751.862 1.1013 1.3182 1.2773 1.0229 0.658 0.579 1.1284 1.5281 0.9985 0.8067
3771.152 1.1246 0.7378 0.9361 1.1791 0.83544 0.651 0.77985 0.902 0.7202 1.0381
3790.441 0.88036 0.363 0.595 0.7376 0.81442 1.0489 1.1003 1.0528 0.519 0.166
3809.731 0.53 0.622 0.634 1.0704 0.8496 0.8642 1.6069 1.6109 1.5274 1.4081
3829.021 1.1612 0.9762 0.97 1.3277 1.0415 0.549 0.7112 0.958 1.0822 0.88319
3848.311 0.6945 0.576 0.86114 1.2614 0.9724 1.1081 1.101 1.0544 1.0136 0.43
3867.601 1.0164 1.6007 1.1139 1.1266 0.8718 0.80491 1.4925 1.3849 0.7767 0.9568
3886.890 1.4953 1.2636 0.8904 0.80716 0.87715 0.9083 0.9259 1.0077 0.49 0.348
3906.180 0.787848 0.9112 1.0775 1.1474 1.3567 1.4824 1.3062 1.1884 1.0934 0.8005
3925.470 0.790908 1.0107 0.83292 0.9332 0.596 0.325 0.786604 0.9207 1.2612 1.4708
3944.760 1.039 0.636 0.447 0.241 0.512 1.3548 1.5231 0.9685 0.84178 0.81542
3964.049 0.575 0.651 0.84331 1.2271 0.702 0.492 1.2425 1.2339 1.4248 1.5396
3983.339 0.9644 1.0062 1.5866 1.4687 1.1605 1.0898 1.02 1.1791 1.3823 1.6603
##END=
