##TITLE=5-Chloro-2,4-dimethoxyphenyl isothiocyanate
##JCAMP-DX=4.24
##DATA TYPE=INFRARED SPECTRUM
##ORIGIN=EPA-IR VAPOR PHASE LIBRARY
##OWNER=SRD/NIST
Collection (C) 2018 copyright by the U.S. Secretary of Commerce
on behalf of the United States of America. All rights reserved.
##CAS REGISTRY NO=40046-27-3
##MOLFORM=C 9 H 8 Cl N O 2 S
##$NIST SOURCE=MSDC-IR
##STATE=gas
##XUNITS=1/CM
##YUNITS=ABSORBANCE
##XFACTOR=1.
##YFACTOR=0.001
##DELTAX=1.92898
##FIRSTX=549.8
##LASTX=4000.7
##FIRSTY=6.218
##MAXX=4000.7
##MINX=549.759
##MAXY=0.449368
##MINY=0
##NPOINTS=1790
##XYDATA=(X++(Y..Y))
549.759 6.218 6.468 6.118 5.538 4.998 4.868 5.018 5.228 5.408 5.058
569.049 4.868 4.998 5.178 5.268 5.428 5.558 5.888 5.938 5.968 5.998
588.339 5.908 6.258 6.408 6.538 6.718 6.728 7.078 7.468 7.688 7.938
607.628 8.358 8.898 9.228 9.678 10.718 11.858 13.408 15.228 16.868 18.678
626.918 20.158 21.108 21.348 21.008 20.368 19.488 18.278 16.948 16.028 15.408
646.208 14.938 14.698 14.388 14.158 14.058 13.968 14.188 14.438 14.658 14.948
665.498 15.218 15.318 15.378 15.408 15.358 15.528 15.608 15.448 15.368 15.538
684.787 15.838 16.228 16.748 17.518 18.268 19.028 20.138 21.358 22.678 24.158
704.077 25.818 27.358 29.198 31.318 33.138 35.088 36.908 38.478 39.728 40.388
723.367 40.498 39.828 38.358 36.338 33.808 30.888 27.888 24.978 22.308 19.918
742.657 17.668 15.588 13.868 12.458 10.968 9.618 8.468 7.458 6.748 5.968
761.947 5.368 5.078 4.838 4.578 4.108 3.788 3.748 3.648 3.378 3.168
781.236 3.118 3.058 3.058 3.128 3.038 2.818 2.738 2.888 3.078 3.268
800.526 3.538 3.838 4.308 4.648 4.828 5.128 5.168 5.348 5.638 5.718
819.816 6.008 6.208 6.308 6.578 6.978 7.248 7.348 7.518 7.558 7.578
839.106 7.438 6.978 6.708 6.518 6.228 5.918 5.598 5.438 5.458 5.478
858.395 5.598 6.198 7.498 9.298 11.908 15.218 18.938 22.898 27.148 31.138
877.685 33.858 33.798 30.608 26.898 23.458 20.128 17.218 14.838 13.258 12.338
896.975 11.818 11.578 11.318 11.158 11.358 11.708 12.118 12.338 12.388 12.578
916.265 12.498 12.338 12.258 11.938 11.628 11.248 10.788 10.128 9.508 9.128
935.555 8.648 8.218 8.018 7.878 7.618 7.428 7.288 7.488 7.698 7.718
954.844 7.918 7.998 8.218 8.588 9.248 9.958 10.598 11.588 12.698 14.228
974.134 16.168 18.208 20.488 22.918 25.408 27.788 29.918 31.468 32.348 32.388
993.424 31.718 30.688 29.328 27.688 26.148 24.898 24.238 24.558 25.438 27.168
1012.714 29.748 32.808 36.838 41.438 46.358 51.318 55.798 59.628 62.538 64.158
1032.003 63.968 62.308 59.368 55.118 50.558 45.488 40.208 35.738 32.128 29.378
1051.293 27.398 26.618 26.928 27.708 29.378 31.858 33.738 34.578 35.028 34.708
1070.583 33.018 30.248 27.388 24.178 20.848 18.048 15.708 13.728 12.158 10.868
1089.873 9.848 9.378 8.658 8.258 7.818 7.558 7.518 7.218 7.188 6.958
1109.163 6.508 6.678 7.068 7.248 7.548 7.588 7.798 8.338 8.688 9.078
1128.452 9.708 10.638 11.308 12.238 13.868 15.478 17.178 19.358 22.338 25.698
1147.742 29.758 34.738 40.238 46.228 52.558 58.678 64.348 68.888 72.008 73.758
1167.032 73.098 70.468 66.948 62.348 57.578 53.468 50.198 47.878 46.388 46.498
1186.322 47.938 50.518 55.268 61.788 70.338 80.898 93.858 109.498 126.438 143.108
1205.611 157.408 166.998 170.008 166.798 158.198 144.918 129.298 114.258 100.398 88.018
1224.901 77.478 68.858 62.208 56.978 52.988 50.408 48.718 47.238 45.788 44.288
1244.191 42.818 41.328 39.648 38.158 36.658 34.888 33.128 31.398 30.048 28.408
1263.481 26.348 24.918 23.618 22.278 21.288 20.308 19.688 19.308 18.978 19.058
1282.771 19.208 19.588 20.178 21.098 22.458 23.958 25.928 28.608 31.878 35.798
1302.060 40.588 46.278 52.808 60.358 68.608 77.088 85.398 92.598 97.878 100.518
1321.350 99.788 95.498 87.998 78.168 67.038 55.688 45.228 36.348 29.318 24.098
1340.640 20.288 17.518 15.608 14.268 13.278 12.688 12.478 12.478 12.678 13.228
1359.930 14.188 15.598 17.628 20.608 24.778 30.288 37.378 46.028 55.908 66.098
1379.219 75.328 82.368 86.208 86.208 82.268 74.808 64.848 53.958 43.648 35.088
1398.509 28.558 23.738 20.448 18.248 16.828 15.888 15.348 15.108 15.158 15.448
1417.799 15.998 16.828 17.988 19.628 21.928 25.038 29.138 34.238 40.348 46.818
1437.089 52.828 57.068 58.778 58.208 55.868 52.408 49.228 47.948 49.308 53.128
1456.378 58.798 65.438 72.098 77.968 81.848 83.338 82.998 81.948 81.088 81.238
1475.668 83.188 87.878 96.128 108.138 123.478 141.248 160.068 177.648 191.858 200.548
1494.958 202.118 196.518 184.428 167.608 148.418 129.218 111.128 95.378 82.238 70.998
1514.248 61.708 53.958 47.378 41.948 37.328 33.398 30.098 27.468 25.298 23.538
1533.538 22.118 20.928 20.118 19.588 19.128 18.898 18.878 18.988 19.348 19.888
1552.827 20.588 21.418 22.408 23.388 24.318 25.148 25.738 26.168 26.278 25.908
1572.117 25.228 24.358 23.258 22.078 20.968 19.948 19.248 18.818 18.608 18.758
1591.407 19.118 19.518 19.948 20.198 19.978 19.228 18.038 16.398 14.698 13.068
1610.697 11.488 10.188 9.178 8.368 7.758 7.298 6.958 6.618 6.318 6.188
1629.986 6.028 5.838 5.678 5.518 5.318 5.148 4.968 4.848 4.758 4.598
1649.276 4.478 4.378 4.268 4.228 4.158 4.028 3.948 3.908 3.858 3.798
1668.566 3.668 3.618 3.588 3.578 3.518 3.438 3.438 3.458 3.458 3.418
1687.856 3.338 3.198 3.148 3.228 3.238 3.138 3.118 3.178 3.218 3.198
1707.146 3.238 3.338 3.358 3.388 3.438 3.428 3.398 3.468 3.508 3.478
1726.435 3.488 3.508 3.588 3.648 3.668 3.748 3.858 3.878 3.938 4.088
1745.725 4.158 4.198 4.268 4.298 4.258 4.138 3.968 3.788 3.628 3.488
1765.015 3.388 3.278 3.198 3.148 3.188 3.248 3.278 3.248 3.298 3.488
1784.305 3.528 3.498 3.568 3.618 3.618 3.608 3.648 3.718 3.778 3.848
1803.594 3.878 3.908 3.958 3.978 3.978 3.978 3.938 3.958 4.018 4.058
1822.884 4.138 4.238 4.288 4.308 4.288 4.308 4.368 4.438 4.508 4.538
1842.174 4.578 4.668 4.748 4.788 4.828 4.928 5.058 5.178 5.288 5.488
1861.464 5.708 5.908 6.098 6.318 6.608 6.868 7.178 7.528 7.848 8.108
1880.754 8.438 8.838 9.178 9.498 9.848 10.248 10.608 10.888 11.238 11.668
1900.043 12.088 12.528 12.958 13.368 13.868 14.448 15.068 15.738 16.428 17.258
1919.333 18.128 19.018 20.048 21.138 22.318 23.478 24.778 26.258 27.818 29.478
1938.623 31.198 33.018 34.978 37.098 39.328 41.708 44.278 46.938 49.768 52.838
1957.913 56.178 59.698 63.478 67.628 72.078 76.858 81.938 87.468 93.318 99.328
1977.202 105.608 112.218 118.908 125.468 131.948 138.358 144.688 150.888 156.958 163.108
1996.492 169.468 175.918 182.708 189.988 197.928 206.698 216.428 227.528 240.278 254.838
2015.782 271.568 290.698 312.308 336.158 361.238 386.488 410.268 430.058 443.588 449.368
2035.072 446.628 436.308 420.028 399.778 377.598 355.138 333.708 313.948 296.078 279.688
2054.362 264.718 251.218 238.808 227.468 217.298 208.128 200.188 193.728 188.798 185.608
2073.651 184.328 185.228 188.438 193.928 201.448 210.728 221.378 232.708 244.038 254.648
2092.941 263.688 270.598 274.848 276.168 274.368 269.498 261.838 251.658 239.648 226.228
2112.231 212.078 197.838 183.838 170.618 158.528 147.658 137.968 129.718 122.618 116.438
2131.521 111.228 106.638 102.568 98.918 95.598 92.478 89.428 86.418 83.378 80.298
2150.810 77.138 73.848 70.328 66.598 62.758 58.888 55.108 51.438 47.898 44.598
2170.100 41.588 38.828 36.388 34.328 32.538 31.038 29.768 28.608 27.608 26.938
2189.390 26.408 25.918 25.628 25.448 25.258 25.058 24.798 24.508 24.168 23.608
2208.680 22.978 22.198 21.198 20.138 19.058 17.988 16.858 15.738 14.718 13.798
2227.970 12.978 12.118 11.378 10.838 10.208 9.628 9.098 8.588 8.168 7.688
2247.259 7.228 6.878 6.548 6.228 5.898 5.588 5.308 5.038 4.808 4.608
2266.549 4.408 4.308 4.268 4.168 4.028 3.928 3.868 3.758 3.668 3.648
2285.839 3.648 3.648 3.598 3.628 3.718 3.678 3.628 3.588 3.588 3.638
2305.129 3.578 3.498 3.438 3.368 3.338 3.308 3.338 3.308 3.228 3.148
2324.418 3.108 3.078 3.038 2.998 2.948 2.918 2.918 2.948 2.958 2.938
2343.708 2.968 3.038 3.018 3.008 3.038 3.148 3.318 3.418 3.488 3.628
2362.998 3.768 3.888 3.958 3.968 3.998 4.038 4.038 4.008 4.078 4.088
2382.288 3.958 3.948 3.968 3.918 3.938 3.918 3.838 3.838 3.828 3.788
2401.578 3.798 3.798 3.808 3.738 3.748 3.878 3.978 4.008 4.008 4.028
2420.867 4.148 4.218 4.178 4.138 4.148 4.128 4.018 3.928 3.808 3.738
2440.157 3.698 3.618 3.558 3.448 3.478 3.568 3.518 3.498 3.478 3.488
2459.447 3.558 3.398 3.378 3.468 3.438 3.438 3.408 3.448 3.458 3.428
2478.737 3.508 3.508 3.518 3.588 3.628 3.638 3.638 3.688 3.768 3.808
2498.026 3.848 3.948 4.038 4.128 4.228 4.318 4.488 4.728 4.888 5.018
2517.316 5.178 5.338 5.508 5.638 5.848 6.008 6.118 6.278 6.388 6.418
2536.606 6.368 6.288 6.138 6.028 5.958 5.838 5.718 5.558 5.408 5.248
2555.896 5.098 4.988 4.908 4.798 4.708 4.678 4.548 4.458 4.418 4.378
2575.186 4.358 4.328 4.288 4.278 4.268 4.328 4.478 4.458 4.428 4.488
2594.475 4.498 4.418 4.328 4.228 4.088 4.038 3.998 3.888 3.838 3.798
2613.765 3.748 3.768 3.788 3.798 3.818 3.728 3.668 3.638 3.658 3.638
2633.055 3.538 3.568 3.618 3.528 3.408 3.378 3.458 3.468 3.388 3.358
2652.345 3.328 3.278 3.338 3.428 3.418 3.378 3.418 3.398 3.368 3.308
2671.634 3.328 3.368 3.288 3.318 3.278 3.268 3.338 3.268 3.308 3.448
2690.924 3.528 3.528 3.468 3.468 3.568 3.508 3.468 3.558 3.578 3.658
2710.214 3.728 3.668 3.598 3.678 3.688 3.608 3.578 3.658 3.688 3.588
2729.504 3.688 3.838 3.848 3.948 3.998 3.888 3.888 4.018 4.168 4.288
2748.794 4.328 4.458 4.508 4.448 4.528 4.588 4.578 4.618 4.658 4.608
2768.083 4.578 4.558 4.488 4.418 4.468 4.448 4.418 4.448 4.438 4.418
2787.373 4.358 4.398 4.458 4.518 4.638 4.708 4.728 4.818 4.988 5.158
2806.663 5.348 5.588 5.918 6.168 6.518 7.028 7.458 7.998 8.698 9.358
2825.953 10.118 11.128 12.128 13.038 14.038 15.078 16.028 16.808 17.538 18.398
2845.242 19.328 20.348 21.478 22.478 23.398 23.918 23.708 22.928 21.758 20.298
2864.532 18.608 17.008 15.728 14.668 13.818 13.388 13.138 13.038 13.118 13.358
2883.822 13.828 14.358 14.808 15.178 15.518 15.708 15.718 15.768 15.738 15.678
2903.112 15.748 15.918 16.118 16.418 16.928 17.528 18.218 18.898 19.468 19.938
2922.401 20.458 21.168 21.918 22.708 23.808 25.438 27.708 30.498 33.858 37.868
2941.691 41.888 45.368 47.918 49.138 49.058 47.848 45.658 42.848 40.098 37.808
2960.981 36.128 34.998 33.988 32.698 31.118 29.198 27.028 24.858 22.778 21.038
2980.271 19.568 18.268 17.228 16.418 15.898 15.698 15.738 15.848 16.028 16.458
2999.561 17.218 18.418 19.848 21.568 23.618 25.728 27.888 29.488 29.948 29.098
3018.850 27.248 24.618 21.428 18.208 15.408 13.278 11.588 10.288 9.368 8.688
3038.140 8.158 7.668 7.068 6.548 6.218 6.068 5.888 5.658 5.418 5.108
3057.430 4.868 4.758 4.798 4.778 4.478 4.288 4.288 4.168 4.118 4.228
3076.720 4.358 4.428 4.178 4.048 4.138 3.948 3.838 3.828 3.738 3.638
3096.009 3.478 3.248 2.998 2.778 2.778 2.708 2.668 2.718 2.548 2.338
3115.299 2.278 2.248 2.198 2.198 2.238 2.148 1.968 1.798 1.728 1.648
3134.589 1.6 1.618 1.5378 1.5301 1.444 1.3949 1.3081 1.2483 1.3393 1.3241
3153.879 1.3864 1.3304 1.1121 1.0316 1.1635 1.2466 1.1889 1.1429 1.0493 0.9275
3173.169 0.9448 1.0315 0.9843 0.8456 0.70211 0.7045 0.8053 0.8214 0.7283 0.59922
3192.458 0.64294 0.66276 0.5714 0.5374 0.64466 0.7132 0.5969 0.5521 0.5529 0.5665
3211.748 0.5514 0.452 0.364 0.309 0.362 0.363 0.36 0.396 0.308 0.312
3231.038 0.363 0.244 0.241 0.291 0.27 0.294 0.249 0.267 0.325 0.247
3250.328 0.138 0.193 0.204 0.149 0.261 0.361 0.237 0.28 0.298 0.086
3269.617 0 0.133 0.286 0.257 0.25 0.228 0.168 0.072 0.011 0.121
3288.907 0.215 0.194 0.145 0.028 0.126 0.218 0.219 0.394 0.374 0.23
3308.197 0.165 0.241 0.395 0.434 0.305 0.198 0.202 0.183 0.199 0.326
3327.487 0.286 0.206 0.29 0.325 0.391 0.269 0.209 0.308 0.279 0.344
3346.777 0.4 0.316 0.306 0.171 0.024 0.11 0.183 0.24 0.213 0.214
3366.066 0.322 0.346 0.212 0.227 0.382 0.258 0.186 0.135 0.103 0.276
3385.356 0.263 0.234 0.289 0.25 0.341 0.504 0.478 0.382 0.294 0.182
3404.646 0.045 0.179 0.324 0.315 0.444 0.411 0.279 0.326 0.315 0.314
3423.936 0.363 0.248 0.097 0.113 0.199 0.24 0.211 0.262 0.325 0.338
3443.225 0.357 0.29 0.176 0.194 0.216 0.225 0.311 0.282 0.229 0.322
3462.515 0.316 0.278 0.329 0.327 0.476 0.62207 0.4 0.266 0.394 0.389
3481.805 0.364 0.352 0.437 0.395 0.321 0.446 0.353 0.228 0.365 0.375
3501.095 0.302 0.365 0.352 0.319 0.356 0.283 0.192 0.264 0.457 0.471
3520.385 0.267 0.215 0.311 0.281 0.197 0.188 0.149 0.255 0.469 0.435
3539.674 0.345 0.31 0.242 0.336 0.319 0.228 0.33 0.39 0.315 0.375
3558.964 0.448 0.271 0.164 0.274 0.334 0.322 0.316 0.309 0.281 0.304
3578.254 0.304 0.318 0.358 0.352 0.336 0.315 0.29 0.28 0.381 0.5721
3597.544 0.613816 0.439 0.36 0.442 0.479 0.368 0.426 0.44 0.327 0.308
3616.833 0.321 0.411 0.452 0.402 0.284 0.303 0.389 0.44 0.402 0.5085
3636.123 0.66631 0.448 0.335 0.329 0.352 0.328 0.271 0.434 0.428 0.426
3655.413 0.483 0.611086 0.5806 0.309 0.305 0.318 0.452 0.5661 0.422 0.5567
3674.703 0.7397 0.5872 0.469 0.501 0.435 0.372 0.299 0.346 0.477 0.384
3693.993 0.214 0.269 0.505 0.62479 0.5271 0.472 0.5939 0.6933 0.5758 0.487
3713.282 0.5823 0.5278 0.461 0.453 0.432 0.432 0.417 0.504 0.60241 0.62196
3732.572 0.65878 0.5737 0.5906 0.69137 0.5772 0.5587 0.7347 0.63662 0.487 0.5595
3751.862 0.512 0.465 0.5423 0.7295 0.7344 0.491 0.49 0.6435 0.60399 0.5197
3771.152 0.5836 0.587 0.473 0.613713 0.63734 0.60441 0.8312 0.7303 0.5539 0.5392
3790.441 0.5096 0.5762 0.7658 0.761 0.70553 0.8704 0.796 0.7567 0.7892 0.61849
3809.731 0.5815 0.7153 0.65219 0.5226 0.5777 0.60415 0.64731 0.7728 0.7967 0.6255
3829.021 0.5673 0.7927 0.9979 0.9917 0.9358 0.836 0.9093 0.9083 0.7364 0.7969
3848.311 0.8852 0.8891 0.7752 0.9169 1.0294 0.8621 0.7905 0.8219 0.9451 1.0484
3867.601 1.0591 0.8897 0.8441 0.9202 0.9359 1.0268 1.0289 0.9101 0.987 0.9662
3886.890 0.978 1.1321 1.1566 1.1694 1.1397 1.2301 1.1895 1.1465 1.2815 1.3119
3906.180 1.2407 1.1368 1.1836 1.3101 1.3259 1.3928 1.3287 1.2684 1.3997 1.3704
3925.470 1.3739 1.4762 1.4081 1.303 1.3395 1.4193 1.456 1.5259 1.5524 1.4723
3944.760 1.5894 1.648 1.5116 1.573 1.718 1.618 1.5491 1.698 1.818 1.778
3964.049 1.658 1.708 1.918 1.898 1.738 1.698 1.868 1.948 1.818 1.828
3983.339 1.908 2.018 2.178 2.168 2.078 2.038 2.048 2.068 2.098 2.208
##END=
