##TITLE=3,5-Dimethylphenyl isothiocyanate
##JCAMP-DX=4.24
##DATA TYPE=INFRARED SPECTRUM
##ORIGIN=EPA-IR VAPOR PHASE LIBRARY
##OWNER=SRD/NIST
Collection (C) 2018 copyright by the U.S. Secretary of Commerce
on behalf of the United States of America. All rights reserved.
##CAS REGISTRY NO=40046-30-8
##MOLFORM=C 9 H 9 N S
##$NIST SOURCE=MSDC-IR
##STATE=gas
##XUNITS=1/CM
##YUNITS=ABSORBANCE
##XFACTOR=1.
##YFACTOR=0.001
##DELTAX=1.92898
##FIRSTX=549.8
##LASTX=4000.7
##FIRSTY=9.365
##MAXX=4000.7
##MINX=549.759
##MAXY=0.430615
##MINY=0
##NPOINTS=1790
##XYDATA=(X++(Y..Y))
549.759 9.365 8.575 8.145 8.285 8.955 9.505 9.835 9.955 10.045 10.045
569.049 9.725 9.215 9.005 8.815 8.445 8.215 8.125 7.945 7.835 7.915
588.339 8.155 8.635 9.265 9.865 10.375 10.805 10.865 10.715 10.355 9.465
607.628 8.395 7.485 6.525 5.505 4.655 3.855 3.435 2.925 2.475 2.635
626.918 2.695 2.525 2.275 2.275 2.455 2.475 2.465 2.175 1.865 1.765
646.208 1.645 1.395 1.302 1.332 1.1936 1.1966 1.415 1.965 2.655 3.445
665.498 4.815 6.505 8.145 9.515 10.925 13.405 17.475 18.385 14.495 11.515
684.787 10.505 9.345 7.915 6.365 4.965 3.995 3.155 2.445 2.065 1.975
704.077 1.705 1.475 1.415 1.2988 1.1374 1.0387 1.1775 1.395 1.485 1.475
723.367 1.715 2.045 2.335 2.485 2.545 2.665 2.775 3.015 3.195 3.245
742.657 3.395 3.535 3.495 3.385 3.585 3.855 3.845 3.795 3.815 3.975
761.947 4.135 4.455 5.105 5.865 7.225 9.575 12.475 16.275 21.235 26.975
781.236 32.995 39.095 44.955 50.105 53.695 54.995 53.575 49.335 43.665 37.185
800.526 29.945 22.845 16.795 12.115 8.715 6.545 4.995 3.895 3.625 3.625
819.816 3.665 4.025 4.895 6.275 8.145 10.705 14.095 17.875 21.645 25.295
839.106 29.135 34.365 41.475 44.115 36.865 29.025 25.595 22.355 18.495 14.535
858.395 10.855 7.945 6.005 4.715 3.845 3.455 3.505 3.675 3.825 4.065
877.685 4.575 5.025 5.385 6.165 6.925 6.915 6.325 5.825 5.485 5.035
896.975 4.625 4.235 4.145 4.135 4.175 4.275 4.205 4.375 4.435 4.445
916.265 4.355 4.005 3.865 3.675 3.525 3.565 3.335 3.155 3.325 3.685
935.555 3.995 4.255 4.515 4.805 5.185 5.295 5.445 5.785 6.035 6.245
954.844 6.445 6.625 6.905 7.205 7.295 7.305 7.245 6.865 6.365 5.765
974.134 5.215 4.605 3.815 3.315 3.145 3.005 2.915 3.135 3.325 3.505
993.424 3.745 4.035 4.075 3.935 3.785 3.335 2.835 2.455 2.295 2.095
1012.714 2.105 2.265 2.225 2.175 2.275 2.415 2.675 3.065 3.405 3.915
1032.003 4.395 4.595 4.685 4.825 4.975 5.145 4.945 4.425 4.145 4.005
1051.293 3.585 3.125 2.935 2.875 2.645 2.545 2.495 2.185 2.025 1.985
1070.583 2.235 2.115 1.675 1.495 1.455 1.565 1.3548 1.0432 1.0832 0.9211
1089.873 0.5238 0.8073 1.0519 0.6847 0.6446 0.7544 0.5366 0.45356 0.6331 0.8088
1109.163 0.9738 1.1273 1.0832 0.8417 0.922 0.9442 1.0084 1.0291 0.9639 1.1068
1128.452 1.1357 1.1228 0.9255 0.8521 0.9235 0.6774 0.7009 0.8337 0.6531 0.5349
1147.742 0.5101 0.6461 0.7815 0.8209 0.9916 1.2713 1.2688 1.254 1.425 1.475
1167.032 1.485 1.385 1.2075 1.2642 1.2124 0.9759 0.9885 0.8556 0.6367 0.6327
1186.322 0.6109 0.9059 1.1296 0.9621 0.8926 1.0458 1.0353 1.248 1.495 1.515
1205.611 1.815 1.745 1.455 1.3331 1.3428 1.0329 0.887 1.2798 1.3518 1.3593
1224.901 1.595 1.2953 1.2075 1.545 1.395 1.2979 1.555 1.795 1.935 2.005
1244.191 1.975 2.095 2.315 2.465 2.645 2.705 2.695 2.715 2.625 2.585
1263.481 2.445 2.235 2.235 2.015 1.955 2.175 2.155 2.065 2.095 2.305
1282.771 2.465 2.705 3.165 3.725 4.515 5.535 6.735 8.115 9.535 10.725
1302.060 11.495 11.845 11.665 10.915 9.845 8.545 7.055 5.685 4.665 3.915
1321.350 3.475 3.245 3.025 2.865 2.755 2.655 2.545 2.515 2.475 2.425
1340.640 2.395 2.385 2.495 2.585 2.645 2.775 2.925 3.065 3.245 3.385
1359.930 3.455 3.565 3.775 4.055 4.335 4.725 5.185 5.635 6.005 6.365
1379.219 6.605 6.675 6.685 6.665 6.625 6.555 6.535 6.595 6.635 6.655
1398.509 6.615 6.465 6.325 6.075 5.745 5.465 5.345 5.295 5.355 5.495
1417.799 5.745 6.235 6.835 7.675 8.765 10.075 11.655 13.415 15.085 16.575
1437.089 17.925 19.025 19.895 20.495 20.665 20.415 19.935 19.395 18.805 18.085
1456.378 17.155 16.105 15.135 14.325 13.685 13.215 13.015 13.075 13.405 13.885
1475.668 14.295 14.685 15.035 15.225 15.355 15.445 15.355 15.025 14.555 14.155
1494.958 13.895 13.785 13.885 14.085 14.215 14.245 14.205 14.065 13.855 13.595
1514.248 13.565 13.655 13.855 14.245 14.715 15.225 15.725 16.255 16.675 16.995
1533.538 17.215 17.245 17.175 16.895 16.525 16.225 15.985 15.915 15.975 16.205
1552.827 16.615 17.175 17.925 18.865 19.955 21.135 22.525 24.025 25.645 27.355
1572.117 29.195 31.345 33.685 36.495 39.855 44.005 49.215 55.805 63.885 73.385
1591.407 84.195 95.885 107.415 117.465 124.825 128.055 126.085 118.585 106.285 90.985
1610.697 75.235 61.035 49.035 38.925 30.785 24.645 20.095 16.705 14.085 12.075
1629.986 10.515 9.195 8.095 7.215 6.455 5.745 5.125 4.645 4.265 3.935
1649.276 3.595 3.305 3.165 3.035 2.895 2.805 2.675 2.585 2.635 2.695
1668.566 2.645 2.585 2.645 2.695 2.735 2.805 2.765 2.765 2.845 2.875
1687.856 2.895 2.925 3.005 3.075 3.125 3.255 3.325 3.365 3.445 3.535
1707.146 3.575 3.535 3.545 3.545 3.585 3.715 3.825 3.895 3.965 4.085
1726.435 4.265 4.325 4.345 4.365 4.335 4.345 4.365 4.405 4.445 4.465
1745.725 4.475 4.445 4.335 4.195 4.085 3.975 3.905 3.915 3.995 4.145
1765.015 4.205 4.285 4.355 4.155 3.935 3.765 3.485 3.155 2.865 2.615
1784.305 2.445 2.365 2.315 2.335 2.305 2.295 2.305 2.265 2.255 2.265
1803.594 2.235 2.195 2.235 2.295 2.385 2.455 2.495 2.625 2.785 2.915
1822.884 3.025 3.085 3.195 3.315 3.385 3.435 3.475 3.505 3.525 3.555
1842.174 3.555 3.455 3.395 3.415 3.435 3.475 3.545 3.715 3.875 3.985
1861.464 4.105 4.295 4.525 4.705 4.895 5.075 5.245 5.495 5.685 5.865
1880.754 6.155 6.415 6.625 6.845 7.065 7.245 7.485 7.725 7.945 8.205
1900.043 8.505 8.905 9.325 9.675 10.085 10.585 11.125 11.735 12.405 13.185
1919.333 14.095 15.085 16.195 17.385 18.675 20.055 21.555 23.235 25.055 26.995
1938.623 29.005 31.245 33.665 36.175 38.815 41.545 44.375 47.275 50.225 53.105
1957.913 56.005 58.935 61.915 65.055 68.455 72.105 76.115 80.565 85.375 90.555
1977.202 96.105 101.945 108.055 114.535 121.235 128.145 135.245 142.625 150.375 158.275
1996.492 166.375 174.875 183.665 192.615 201.735 210.845 219.905 229.055 238.145 247.045
2015.782 255.745 264.325 272.825 281.105 289.295 297.645 306.325 315.555 325.395 336.145
2035.072 347.905 360.675 374.575 389.015 403.155 415.855 425.585 430.615 428.935 419.905
2054.362 404.315 383.495 359.145 332.935 306.735 282.045 259.735 240.595 224.865 212.625
2073.651 204.005 198.925 197.315 199.025 203.735 211.135 220.695 231.835 244.015 256.625
2092.941 268.795 279.905 289.285 296.195 300.195 300.795 297.615 290.455 279.475 265.155
2112.231 248.325 229.715 210.365 191.455 173.765 157.805 143.945 132.305 122.785 115.245
2131.521 109.385 104.795 101.155 98.305 96.045 94.055 92.175 90.385 88.585 86.695
2150.810 84.635 82.385 79.715 76.545 73.025 69.175 65.075 60.725 56.235 51.835
2170.100 47.525 43.365 39.485 36.015 32.845 30.105 27.775 25.855 24.435 23.435
2189.390 22.845 22.585 22.685 22.875 22.945 22.985 22.935 22.695 22.185 21.445
2208.680 20.465 19.265 18.055 16.895 15.765 14.695 13.695 12.785 12.045 11.275
2227.970 10.565 10.005 9.445 8.885 8.375 7.805 7.295 6.835 6.395 5.965
2247.259 5.585 5.335 5.135 4.935 4.825 4.765 4.665 4.585 4.565 4.545
2266.549 4.535 4.505 4.425 4.315 4.195 4.065 3.845 3.675 3.525 3.305
2285.839 3.135 3.005 2.915 2.865 2.835 2.775 2.745 2.795 2.835 2.835
2305.129 2.835 2.915 2.985 3.045 3.165 3.375 3.635 3.945 4.305 4.755
2324.418 5.275 5.825 6.325 6.775 7.185 7.395 7.325 7.035 6.665 6.105
2343.708 5.425 4.785 4.255 3.795 3.505 3.335 3.155 2.965 2.815 2.785
2362.998 2.675 2.505 2.425 2.405 2.395 2.295 2.155 2.065 2.055 2.105
2382.288 2.075 2.055 2.045 1.965 1.935 1.945 1.975 1.985 1.995 2.035
2401.578 2.035 2.115 2.265 2.335 2.385 2.465 2.575 2.635 2.685 2.805
2420.867 2.955 3.065 3.185 3.325 3.535 3.705 3.885 4.065 4.165 4.395
2440.157 4.565 4.685 4.795 4.865 4.955 5.025 5.145 5.225 5.285 5.335
2459.447 5.405 5.485 5.555 5.625 5.595 5.545 5.415 5.265 5.075 4.805
2478.737 4.585 4.405 4.215 4.045 3.935 3.905 3.905 3.925 3.995 4.015
2498.026 3.975 4.025 4.125 4.145 4.115 4.135 4.175 4.165 4.095 3.975
2517.316 3.895 3.845 3.745 3.635 3.595 3.565 3.535 3.455 3.395 3.475
2536.606 3.585 3.645 3.695 3.695 3.815 3.975 4.015 4.145 4.285 4.385
2555.896 4.525 4.635 4.685 4.755 4.855 4.865 4.845 4.915 4.985 5.015
2575.186 5.095 5.155 5.245 5.365 5.335 5.385 5.505 5.585 5.755 5.875
2594.475 5.955 5.985 6.055 6.155 6.205 6.165 6.065 5.955 5.745 5.475
2613.765 5.155 4.835 4.545 4.115 3.695 3.375 3.055 2.755 2.545 2.395
2633.055 2.145 1.965 1.895 1.775 1.735 1.615 1.465 1.435 1.455 1.515
2652.345 1.505 1.455 1.435 1.385 1.2941 1.2459 1.2321 1.2684 1.325 1.2652
2671.634 1.24 1.206 1.1766 1.1474 1.1006 1.1652 1.1937 1.1806 1.163 1.1573
2690.924 1.1513 1.1731 1.1984 1.1392 1.0718 1.0429 1.0419 1.0504 1.0963 1.0921
2710.214 1.0582 1.0397 1.0337 1.0748 1.0711 1.1064 1.1094 1.0885 1.1744 1.3004
2729.504 1.425 1.465 1.615 1.935 2.115 2.185 2.335 2.485 2.545 2.655
2748.794 2.675 2.545 2.395 2.225 2.075 2.025 1.965 1.815 1.845 1.845
2768.083 1.775 1.765 1.745 1.795 1.835 1.945 1.955 1.925 2.105 2.105
2787.373 2.075 2.275 2.405 2.405 2.545 2.765 2.895 2.935 3.075 3.285
2806.663 3.445 3.605 3.795 3.925 4.055 4.325 4.485 4.715 5.035 5.305
2825.953 5.515 5.675 5.985 6.325 6.575 6.795 7.075 7.375 7.595 7.885
2845.242 8.205 8.435 8.655 8.935 9.245 9.545 9.935 10.365 10.875 11.605
2864.532 12.415 13.155 13.875 14.585 15.185 15.515 15.655 15.675 15.455 14.945
2883.822 14.305 13.815 13.365 12.805 12.445 12.315 12.325 12.435 12.665 13.135
2903.112 13.695 14.395 15.075 15.865 16.995 18.155 19.515 21.205 23.125 25.225
2922.401 27.675 30.115 32.345 34.225 35.445 36.035 35.925 35.145 33.725 31.735
2941.691 29.395 26.835 24.425 22.305 20.315 18.575 17.055 15.815 14.855 13.885
2960.981 12.985 12.305 11.775 11.225 10.655 10.165 9.755 9.445 9.295 9.175
2980.271 9.125 9.225 9.415 9.715 10.175 10.685 11.125 11.565 11.915 12.135
2999.561 12.375 12.715 12.835 13.045 13.415 13.845 14.505 15.225 16.095 16.935
3018.850 17.585 18.255 18.765 19.105 19.215 19.095 18.845 18.455 17.985 17.475
3038.140 17.075 16.705 16.405 16.045 15.705 15.395 15.105 14.875 14.545 14.165
3057.430 13.575 12.705 11.735 10.825 9.895 8.975 8.175 7.345 6.595 5.905
3076.720 5.445 5.245 4.825 4.295 4.055 4.005 3.865 3.685 3.505 3.415
3096.009 3.235 2.825 2.515 2.365 2.325 2.225 1.995 1.815 1.825 1.825
3115.299 1.715 1.675 1.595 1.465 1.3495 1.2818 1.2738 1.2481 1.2253 1.1131
3134.589 0.9379 0.7903 0.6799 0.6916 0.7613 0.666 0.5327 0.5406 0.6231 0.5584
3153.879 0.5131 0.6351 0.7179 0.5964 0.4793 0.5748 0.5182 0.38027 0.4762 0.4991
3173.169 0.366032 0.3484 0.40945 0.44911 0.4791 0.4715 0.3349 0.258 0.3025 0.341
3192.458 0.367481 0.367852 0.3521 0.3314 0.2801 0.148 0.152 0.2668 0.2985 0.2726
3211.748 0.3127 0.3363 0.2895 0.264 0.25 0.245 0.161 0.214 0.258 0.2777
3231.038 0.2903 0.2695 0.236 0.253 0.324 0.3235 0.256 0.253 0.2947 0.2812
3250.328 0.3107 0.3223 0.3058 0.4221 0.44486 0.3034 0.216 0.209 0.234 0.194
3269.617 0.183 0.185 0.192 0.22 0.192 0.135 0.134 0.15 0.2685 0.328
3288.907 0.2658 0.3103 0.3032 0.3053 0.3336 0.265 0.3343 0.2661 0.187 0.205
3308.197 0.098 0.138 0.115 0.071 0.102 0.081 0 0.039 0.141 0.2
3327.487 0.233 0.213 0.244 0.199 0.213 0.219 0.092 0.113 0.166 0.19
3346.777 0.22 0.154 0.193 0.122 0.132 0.3082 0.246 0.181 0.27 0.2881
3366.066 0.204 0.2715 0.2909 0.248 0.219 0.147 0.218 0.3548 0.2942 0.033
3385.356 0.024 0.205 0.231 0.23 0.182 0.175 0.254 0.2652 0.3133 0.40128
3404.646 0.44875 0.332 0.197 0.2 0.3045 0.36744 0.35541 0.43993 0.39276 0.3519
3423.936 0.3437 0.223 0.173 0.248 0.251 0.23 0.3433 0.44833 0.398 0.3342
3443.225 0.3538 0.3484 0.3194 0.37586 0.45939 0.43171 0.45221 0.5402 0.4889 0.4176
3462.515 0.41902 0.3168 0.2801 0.43554 0.37881 0.2911 0.37533 0.257 0.162 0.242
3481.805 0.3542 0.45466 0.5786 0.5754 0.45173 0.39104 0.38561 0.36267 0.3082 0.263
3501.095 0.3039 0.39925 0.45912 0.2666 0.227 0.3027 0.35573 0.42611 0.3452 0.38022
3520.385 0.3398 0.41917 0.4858 0.40704 0.2813 0.07 0.073 0.258 0.3313 0.37616
3539.674 0.45254 0.37867 0.3235 0.36207 0.267 0.2915 0.3411 0.3093 0.3193 0.322
3558.964 0.262 0.208 0.175 0.2783 0.44728 0.40584 0.3155 0.3124 0.42176 0.5143
3578.254 0.5579 0.45521 0.41217 0.43122 0.43841 0.4648 0.42105 0.40276 0.374994 0.3273
3597.544 0.3082 0.365637 0.3515 0.246 0.3136 0.3369 0.154 0.2709 0.40692 0.37811
3616.833 0.3315 0.231 0.25 0.3148 0.259 0.246 0.38144 0.38207 0.258 0.247
3636.123 0.335 0.266 0.231 0.2798 0.2922 0.304 0.35555 0.316 0.3412 0.3308
3655.413 0.245 0.214 0.064 0.073 0.122 0.205 0.3383 0.3056 0.204 0.226
3674.703 0.3368 0.207 0.042 0.173 0.3284 0.263 0.141 0.128 0.2928 0.37626
3693.993 0.184 0.148 0.2797 0.2673 0.188 0.119 0.092 0.161 0.23 0.3127
3713.282 0.4238 0.4655 0.37932 0.3067 0.2995 0.3294 0.235 0.113 0.247 0.41058
3732.572 0.44829 0.3512 0.3048 0.364744 0.3415 0.41087 0.42133 0.38689 0.41332 0.38853
3751.862 0.44431 0.587 0.6119 0.5085 0.4963 0.4704 0.41619 0.43891 0.43782 0.3341
3771.152 0.3355 0.43 0.5008 0.5213 0.5487 0.5714 0.45804 0.4914 0.5047 0.2765
3790.441 0.178 0.24 0.2772 0.37672 0.3861 0.4861 0.5711 0.5025 0.5676 0.5875
3809.731 0.45 0.3302 0.3758 0.46182 0.5295 0.4949 0.45792 0.44999 0.5375 0.6182
3829.021 0.5796 0.5634 0.5025 0.5888 0.678 0.6114 0.5716 0.5235 0.5344 0.6453
3848.311 0.643 0.6622 0.6904 0.5823 0.5889 0.6609 0.7462 0.7682 0.703 0.6462
3867.601 0.6726 0.6624 0.6454 0.6967 0.7496 0.8555 0.8075 0.8105 0.8933 0.8787
3886.890 0.8959 0.98 1.0098 0.9762 1.013 1.065 1.1135 1.1964 1.2083 1.0946
3906.180 0.9748 0.8969 0.9636 1.1931 1.2946 1.1194 0.9422 0.9932 1.0005 1.0461
3925.470 1.0012 0.871 0.9952 1.0204 1.0314 1.1597 1.1547 1.1171 1.2072 1.2572
3944.760 1.2843 1.3113 1.3183 1.214 1.209 1.3566 1.3615 1.2854 1.375 1.455
3964.049 1.485 1.535 1.605 1.725 1.715 1.645 1.705 1.695 1.585 1.785
3983.339 2.015 1.955 1.835 1.825 1.925 2.035 2.005 1.915 2.055 2.195
##END=
