##TITLE=2-Isopropylaniline
##JCAMP-DX=4.24
##DATA TYPE=INFRARED SPECTRUM
##ORIGIN=EPA-IR VAPOR PHASE LIBRARY
##OWNER=SRD/NIST
Collection (C) 2018 copyright by the U.S. Secretary of Commerce
on behalf of the United States of America. All rights reserved.
##CAS REGISTRY NO=40085-42-5
##MOLFORM=C 9 H 13 N
##$NIST SOURCE=MSDC-IR
##STATE=gas
##XUNITS=1/CM
##YUNITS=ABSORBANCE
##XFACTOR=1.
##YFACTOR=0.001
##DELTAX=1.92934
##FIRSTX=549.9
##LASTX=3999.5
##FIRSTY=7.564
##MAXX=3999.53
##MINX=549.863
##MAXY=0.069764
##MINY=0
##NPOINTS=1789
##XYDATA=(X++(Y..Y))
549.863 7.564 7.674 7.774 7.764 7.874 8.044 8.244 8.264 8.164 8.334
569.156 8.554 8.744 8.774 8.674 8.754 8.714 8.774 8.914 8.904 8.964
588.450 8.984 9.034 9.114 9.184 9.244 9.254 9.304 9.344 9.474 9.634
607.743 9.684 9.744 9.914 10.034 10.164 10.284 10.334 10.434 10.714 10.924
627.037 10.944 10.984 11.154 11.414 11.484 11.444 11.374 11.494 11.674 11.654
646.330 11.704 11.794 11.774 11.774 11.864 11.894 11.944 11.914 11.804 11.754
665.624 11.554 11.484 11.534 11.424 11.244 11.064 10.904 10.714 10.584 10.494
684.917 10.284 10.124 10.044 9.934 9.774 9.684 9.614 9.524 9.454 9.454
704.210 9.504 9.604 9.744 9.904 10.254 10.774 11.544 12.644 14.204 16.254
723.504 18.874 22.054 25.574 29.284 32.914 36.504 40.224 44.634 50.484 57.234
742.797 59.104 53.264 46.444 42.014 38.684 35.464 31.804 27.924 24.074 20.504
762.091 17.394 14.914 13.074 11.784 10.844 10.134 9.674 9.324 9.034 8.784
781.384 8.504 8.284 8.154 7.984 7.804 7.654 7.544 7.464 7.374 7.344
800.678 7.324 7.314 7.294 7.264 7.224 7.204 7.114 6.994 6.944 6.904
819.971 6.754 6.534 6.364 6.114 5.794 5.534 5.294 5.074 4.914 4.804
839.264 4.714 4.764 4.924 5.094 5.154 5.134 5.124 5.104 5.054 4.974
858.558 4.914 4.794 4.644 4.524 4.414 4.304 4.244 4.264 4.264 4.234
877.851 4.254 4.244 4.224 4.234 4.194 4.094 4.034 3.954 3.824 3.734
897.145 3.634 3.504 3.394 3.314 3.244 3.234 3.264 3.294 3.354 3.494
916.438 3.634 3.694 3.774 3.954 4.184 4.474 4.704 4.554 4.224 4.044
935.732 3.974 3.954 3.884 3.724 3.614 3.504 3.394 3.344 3.294 3.184
955.025 3.104 3.124 3.154 3.084 3.004 2.974 2.964 2.914 2.854 2.824
974.318 2.854 2.884 2.834 2.804 2.824 2.844 2.834 2.814 2.784 2.804
993.612 2.834 2.844 2.854 2.834 2.834 2.834 2.884 2.984 3.064 3.124
1012.905 3.264 3.464 3.804 4.354 5.044 5.894 6.774 7.514 8.124 8.604
1032.199 9.124 9.474 9.414 9.384 9.404 9.104 8.424 7.644 6.934 6.394
1051.492 6.094 5.834 5.704 5.704 5.694 5.774 5.884 5.964 6.094 6.234
1070.786 6.384 6.474 6.574 6.704 6.724 6.734 6.724 6.754 6.724 6.684
1090.079 6.714 6.684 6.644 6.634 6.664 6.634 6.594 6.604 6.594 6.564
1109.372 6.524 6.424 6.304 6.294 6.234 6.104 5.994 5.834 5.634 5.444
1128.666 5.264 5.024 4.824 4.704 4.594 4.544 4.584 4.754 5.024 5.354
1147.959 5.824 6.334 6.734 6.854 6.734 6.724 6.844 6.774 6.374 5.924
1167.253 5.444 4.904 4.314 3.724 3.264 2.904 2.664 2.564 2.494 2.424
1186.546 2.464 2.494 2.494 2.494 2.534 2.604 2.684 2.744 2.744 2.774
1205.840 2.824 2.924 3.014 3.024 3.084 3.204 3.284 3.424 3.584 3.734
1225.133 3.994 4.264 4.644 5.214 5.864 6.684 7.664 8.794 9.974 11.244
1244.426 12.474 13.624 14.634 15.344 15.784 15.914 15.864 15.734 15.494 14.994
1263.720 14.364 13.824 13.394 13.304 13.694 14.574 15.874 17.374 18.954 20.504
1283.013 21.724 22.494 22.954 23.064 22.774 22.054 20.924 19.284 17.194 15.034
1302.307 13.034 11.334 9.984 8.904 7.974 7.204 6.614 6.044 5.514 5.054
1321.600 4.614 4.274 3.924 3.614 3.434 3.284 3.174 3.164 3.274 3.424
1340.894 3.614 3.934 4.254 4.634 5.054 5.454 5.864 6.264 6.634 6.914
1360.187 7.144 7.354 7.454 7.614 8.114 8.444 7.934 7.224 6.944 6.944
1379.480 7.024 7.044 6.964 6.814 6.614 6.394 6.164 5.944 5.794 5.594
1398.774 5.174 4.724 4.424 4.164 3.964 3.904 3.974 4.034 4.094 4.214
1418.067 4.384 4.624 4.894 5.194 5.614 6.094 6.654 7.334 8.204 9.274
1437.361 10.524 11.974 13.644 15.384 17.134 18.754 20.124 21.124 21.694 21.864
1456.654 21.774 21.784 21.654 20.954 19.684 18.304 17.164 16.334 15.984 16.184
1475.948 16.954 18.244 20.004 22.184 24.624 27.134 29.464 31.334 32.504 32.894
1495.241 32.594 31.784 30.564 28.914 26.644 23.654 20.034 16.604 13.754 11.374
1514.534 9.484 8.034 6.954 6.224 5.684 5.294 4.994 4.714 4.474 4.264
1533.828 4.174 4.154 4.064 4.014 4.014 4.004 4.054 4.154 4.224 4.334
1553.121 4.534 4.764 5.024 5.334 5.734 6.214 6.754 7.294 7.854 8.494
1572.415 9.144 9.734 10.254 10.714 11.114 11.454 11.744 12.024 12.164 12.274
1591.708 12.454 12.704 13.204 13.944 14.884 16.284 18.084 20.294 22.804 25.624
1611.002 28.704 31.874 34.804 37.544 39.824 41.284 41.924 41.864 41.164 39.894
1630.295 37.984 35.334 32.134 28.514 24.934 21.554 18.464 15.754 13.384 11.514
1649.588 10.014 8.814 7.874 7.174 6.604 6.174 5.824 5.474 5.194 4.954
1668.882 4.704 4.474 4.274 4.004 3.824 3.684 3.484 3.254 3.074 3.054
1688.175 3.004 2.884 2.814 2.744 2.714 2.654 2.484 2.394 2.354 2.264
1707.469 2.194 2.144 2.094 2.024 1.8909 1.8478 1.8522 1.8334 1.7784 1.7192
1726.762 1.7498 1.7121 1.6739 1.6673 1.6369 1.6437 1.6128 1.6329 1.7002 1.7128
1746.056 1.7435 1.7841 1.836 1.9232 2.004 2.054 2.124 2.284 2.374 2.374
1765.349 2.394 2.384 2.374 2.364 2.314 2.294 2.254 2.144 2.054 2.024
1784.642 1.9778 1.9336 1.9166 1.86 1.8345 1.8741 1.9365 1.9102 1.8272 1.8142
1803.936 1.8539 1.8532 1.7793 1.7129 1.6542 1.5932 1.546 1.4808 1.4135 1.3393
1823.229 1.3292 1.3761 1.3992 1.3921 1.3896 1.3779 1.4188 1.4898 1.538 1.5665
1842.523 1.5847 1.6186 1.6719 1.6951 1.6893 1.7551 1.7879 1.766 1.7691 1.8161
1861.816 1.82 1.7972 1.8495 1.9549 2.064 2.194 2.384 2.554 2.674 2.774
1881.110 2.824 2.824 2.824 2.744 2.634 2.614 2.504 2.334 2.184 2.044
1900.403 1.9695 1.9386 1.9296 2.014 2.084 2.154 2.224 2.244 2.264 2.234
1919.696 2.174 2.134 2.034 1.8843 1.7542 1.6053 1.444 1.3073 1.213 1.1254
1938.990 1.03696 1.02179 1.00777 0.984772 0.985472 0.99604 0.9676 0.9209 0.9043 0.9189
1958.283 0.9302 0.9418 0.9655 0.985383 0.972 0.9561 0.9477 0.9488 0.97995 0.9649
1977.577 0.9393 0.9411 0.9467 0.9348 0.9534 0.97973 0.98877 0.9721 0.9385 0.9464
1996.870 0.969 0.97471 0.9425 0.9028 0.9281 0.9127 0.8843 0.9173 0.9251 0.9002
2016.164 0.869 0.9046 0.8988 0.862 0.8997 0.9304 0.927 0.9291 0.9595 0.9597
2035.457 0.884 0.828 0.866 0.9314 0.9602 0.9618 0.9581 0.9052 0.9037 0.9284
2054.750 0.9046 0.8972 0.8923 0.8999 0.9406 0.9726 0.9599 0.9144 0.9183 0.9554
2074.044 0.9581 0.9634 0.9698 0.9599 0.9458 0.9475 0.9443 0.9444 0.9294 0.94
2093.337 0.9526 0.9225 0.9382 0.9517 0.9327 0.9264 0.9362 0.9549 0.9626 0.9516
2112.631 0.9354 0.9245 0.9551 0.9676 0.9429 0.9269 0.9164 0.8961 0.866 0.875
2131.924 0.877 0.856 0.866 0.867 0.862 0.845 0.835 0.834 0.838 0.826
2151.218 0.775 0.764 0.786 0.761 0.738 0.733 0.735 0.755 0.746 0.786
2170.511 0.82 0.773 0.752 0.773 0.783 0.79 0.78 0.781 0.783 0.769
2189.804 0.776 0.798 0.798 0.784 0.766 0.769 0.825 0.846 0.827 0.8
2209.098 0.812 0.787 0.751 0.765 0.795 0.807 0.809 0.809 0.757 0.747
2228.391 0.757 0.777 0.849 0.863 0.818 0.809 0.826 0.817 0.807 0.818
2247.685 0.804 0.824 0.824 0.799 0.821 0.822 0.83 0.85 0.848 0.845
2266.978 0.839 0.84 0.875 0.876 0.848 0.856 0.86 0.847 0.848 0.871
2286.272 0.865 0.854 0.867 0.88 0.851 0.801 0.813 0.847 0.875 0.882
2305.565 0.8874 0.9289 0.9423 0.9583 0.985577 0.99729 1.00617 1.02999 1.01457 0.97611
2324.858 0.9718 0.9605 0.9517 0.8939 0.868 0.853 0.821 0.85 0.81 0.752
2344.152 0.764 0.789 0.812 0.799 0.773 0.762 0.741 0.711 0.697 0.703
2363.445 0.733 0.773 0.763 0.756 0.791 0.801 0.803 0.82 0.81 0.851
2382.739 0.871 0.833 0.873 0.9229 0.9305 0.92 0.9037 0.8936 0.8914 0.867
2402.032 0.861 0.87 0.883 0.915 0.9333 0.9332 0.9002 0.89 0.9214 0.8973
2421.326 0.855 0.867 0.9115 0.9346 0.903 0.8929 0.9281 0.9262 0.9098 0.9143
2440.619 0.929 0.9581 0.9415 0.9412 0.9472 0.9481 0.9724 0.9691 0.9684 0.9526
2459.912 0.9372 0.9448 0.9702 0.97783 0.9669 0.97861 0.987179 0.9636 0.9728 1.03055
2479.206 1.00921 0.959 0.9494 0.9434 0.9425 0.9559 0.9475 0.936 0.9451 0.9367
2498.499 0.9199 0.9513 0.9514 0.912 0.9138 0.8897 0.853 0.854 0.854 0.873
2517.793 0.849 0.853 0.871 0.866 0.843 0.79 0.802 0.817 0.812 0.769
2537.086 0.76 0.778 0.803 0.851 0.861 0.838 0.855 0.876 0.856 0.8847
2556.380 0.9173 0.9131 0.9169 0.9104 0.9505 1.03034 1.04353 1.02506 1.06413 1.1084
2575.673 1.1197 1.1298 1.1411 1.1454 1.1432 1.1614 1.2154 1.2255 1.2052 1.2326
2594.966 1.2367 1.2474 1.2568 1.2094 1.1966 1.1952 1.2231 1.2072 1.1102 1.1174
2614.260 1.1114 1.06296 1.06289 1.04212 1.01948 1.01966 1.03214 0.993167 0.9661 0.967
2633.553 0.9618 1.00372 1.05028 1.07496 1.07297 1.02178 1.02519 1.07562 1.05719 1.08269
2652.847 1.0855 1.04782 1.1007 1.1478 1.1601 1.1257 1.03718 0.99521 1.01718 1.03541
2672.140 1.0055 0.993851 1.01835 1.00402 1.00787 1.05894 1.06297 1.08027 1.07316 0.97519
2691.434 0.987659 1.04507 1.05769 1.1076 1.1391 1.1528 1.1167 1.05542 1.07945 1.1625
2710.727 1.2144 1.2461 1.2464 1.2218 1.3018 1.3781 1.3761 1.4222 1.4875 1.4591
2730.020 1.4156 1.4872 1.5818 1.6116 1.5613 1.5706 1.5263 1.4152 1.4027 1.3891
2749.314 1.3499 1.3543 1.3922 1.4193 1.4774 1.5526 1.5205 1.4371 1.4557 1.4514
2768.607 1.4522 1.5128 1.5549 1.5835 1.5593 1.5292 1.5479 1.5596 1.5308 1.5169
2787.901 1.4905 1.5113 1.6198 1.6132 1.6699 1.7547 1.7293 1.8055 1.9392 2.004
2807.194 2.064 2.154 2.224 2.224 2.284 2.424 2.504 2.504 2.554 2.564
2826.488 2.554 2.654 2.784 2.824 2.884 3.054 3.214 3.374 3.594 3.814
2845.781 4.084 4.414 4.594 4.924 5.414 5.934 6.674 7.424 8.154 9.074
2865.074 10.274 11.674 13.084 14.564 16.074 17.464 18.794 19.964 20.804 21.384
2884.368 21.664 21.814 21.724 21.444 21.114 20.714 20.344 20.074 19.874 19.574
2903.661 19.384 19.344 19.274 19.364 19.414 19.494 19.884 20.224 20.464 20.954
2922.955 21.664 22.504 23.534 24.664 25.704 26.834 27.904 28.694 29.404 29.954
2942.248 30.274 30.624 31.264 32.244 33.774 36.114 39.334 43.614 48.724 54.214
2961.542 59.204 63.314 66.694 68.924 69.764 69.084 66.854 63.034 57.164 49.764
2980.835 42.104 35.084 29.074 23.964 19.784 16.524 14.004 12.084 10.854 10.064
3000.128 9.464 9.284 9.454 9.764 10.334 11.194 12.234 13.364 14.564 15.884
3019.422 17.034 17.904 18.634 19.134 19.484 19.584 19.454 19.104 18.464 17.654
3038.715 16.724 15.854 15.034 14.264 13.764 13.554 13.524 13.764 14.224 14.684
3058.009 15.394 16.384 17.314 18.074 18.644 19.174 19.684 19.904 19.684 19.114
3077.302 18.424 17.484 16.394 15.184 13.834 12.644 11.484 10.354 9.224 8.094
3096.596 7.134 6.314 5.634 5.164 4.774 4.434 4.094 3.744 3.644 3.444
3115.889 3.114 2.964 2.774 2.514 2.274 2.054 1.9469 1.8831 1.8086 1.696
3135.182 1.5173 1.515 1.5161 1.4234 1.345 1.3639 1.3764 1.3262 1.3368 1.4095
3154.476 1.4656 1.4534 1.422 1.3501 1.4353 1.5077 1.5079 1.5351 1.5072 1.477
3173.769 1.3069 1.1477 1.1682 1.0795 1.03438 1.04896 1.1346 1.1824 0.9662 0.9305
3193.063 1.08216 1.1117 1.1313 1.06956 0.991403 1.04098 1.02609 0.9676 0.99688 0.99526
3212.356 1.00475 1.1147 1.07614 1.07375 1.05185 0.99706 1.1067 1.0856 0.98304 0.986924
3231.650 1.00062 0.97554 1.01586 0.8984 0.835 0.889 0.754 0.747 0.715 0.607
3250.943 0.578 0.59 0.72 0.767 0.786 0.663 0.452 0.478 0.487 0.539
3270.236 0.598 0.344 0.242 0.368 0.357 0.353 0.349 0.275 0.134 0.196
3289.530 0.289 0.25 0.217 0.217 0.197 0.171 0.202 0.177 0.092 0.119
3308.823 0.1 0.066 0.084 0 0.119 0.235 0.229 0.11 0.104 0.132
3328.117 0.058 0.146 0.137 0.066 0.114 0.034 0.063 0.122 0.125 0.284
3347.410 0.276 0.258 0.249 0.183 0.266 0.311 0.334 0.314 0.295 0.421
3366.704 0.418 0.422 0.49 0.508 0.508 0.542 0.661 0.844 0.9481 1.0825
3385.997 1.3003 1.5945 1.7997 1.8708 2.204 2.624 2.884 3.194 3.544 3.804
3405.290 3.864 3.814 3.884 3.864 3.684 3.544 3.274 2.944 2.604 2.244
3424.584 1.9145 1.6191 1.5153 1.3474 1.1081 0.9271 0.98646 1.00531 0.9095 0.9377
3443.877 0.834 0.8919 1.0249 0.9326 0.97523 1.02332 0.9521 1.07889 1.1875 1.3752
3463.171 1.6117 1.7673 2.074 2.344 2.724 3.304 3.794 4.124 4.544 5.114
3482.464 5.504 5.804 6.164 6.284 6.364 6.314 6.054 5.864 5.534 5.044
3501.758 4.514 3.994 3.394 2.984 2.724 2.414 2.124 1.7953 1.5877 1.3905
3521.051 1.1998 1.1009 1.04382 0.9693 0.8914 0.81 0.686 0.656 0.712 0.715
3540.344 0.691 0.724 0.736 0.635 0.526 0.542 0.502 0.44 0.564 0.661
3559.638 0.661 0.517 0.43 0.45 0.404 0.462 0.528 0.525 0.407 0.358
3578.931 0.328 0.347 0.392 0.294 0.25 0.27 0.296 0.295 0.385 0.337
3598.225 0.249 0.346 0.417 0.41 0.385 0.386 0.412 0.447 0.479 0.538
3617.518 0.504 0.447 0.509 0.484 0.38 0.336 0.291 0.303 0.376 0.426
3636.812 0.485 0.471 0.347 0.285 0.319 0.364 0.274 0.305 0.352 0.306
3656.105 0.447 0.45 0.383 0.465 0.48 0.43 0.483 0.452 0.378 0.392
3675.398 0.255 0.236 0.417 0.485 0.493 0.492 0.469 0.422 0.468 0.523
3694.692 0.424 0.396 0.486 0.467 0.356 0.381 0.448 0.478 0.477 0.445
3713.985 0.449 0.45 0.414 0.475 0.653 0.637 0.498 0.467 0.477 0.475
3733.279 0.47 0.472 0.424 0.477 0.542 0.434 0.307 0.345 0.389 0.356
3752.572 0.406 0.491 0.465 0.482 0.578 0.586 0.559 0.509 0.505 0.527
3771.866 0.483 0.433 0.456 0.489 0.494 0.508 0.515 0.573 0.573 0.496
3791.159 0.558 0.598 0.487 0.465 0.592 0.632 0.61 0.514 0.487 0.568
3810.452 0.595 0.609 0.559 0.564 0.573 0.55 0.57 0.521 0.553 0.619
3829.746 0.673 0.653 0.556 0.503 0.516 0.512 0.504 0.603 0.656 0.714
3849.039 0.75 0.766 0.789 0.722 0.7 0.674 0.666 0.745 0.756 0.722
3868.333 0.691 0.693 0.713 0.649 0.708 0.782 0.772 0.769 0.797 0.815
3887.626 0.696 0.722 0.8901 0.8937 0.819 0.715 0.715 0.807 0.821 0.9022
3906.920 0.9108 0.909 0.811 0.732 0.769 0.729 0.77 0.778 0.772 0.759
3926.213 0.8 0.85 0.757 0.677 0.694 0.73 0.767 0.856 0.755 0.771
3945.506 0.8877 0.843 0.845 0.781 0.79 0.873 0.88 0.852 0.781 0.829
3964.800 0.9184 0.9542 0.898 0.86 0.839 0.774 0.827 0.8905 0.872 0.799
3984.093 0.859 0.874 0.844 0.878 0.9291 0.8913 0.844 0.877 0.9137
##END=
