##TITLE=3,5-Bis(trifluoromethyl)benzaldehyde
##JCAMP-DX=4.24
##DATA TYPE=INFRARED SPECTRUM
##ORIGIN=EPA-IR VAPOR PHASE LIBRARY
##OWNER=SRD/NIST
Collection (C) 2018 copyright by the U.S. Secretary of Commerce
on behalf of the United States of America. All rights reserved.
##CAS REGISTRY NO=401-95-6
##MOLFORM=C 9 H 4 F 6 O
##$NIST SOURCE=MSDC-IR
##STATE=gas
##XUNITS=1/CM
##YUNITS=ABSORBANCE
##XFACTOR=1.
##YFACTOR=0.001
##DELTAX=1.92898
##FIRSTX=549.8
##LASTX=4000.7
##FIRSTY=1.3968
##MAXX=4000.7
##MINX=549.759
##MAXY=0.916458
##MINY=0
##NPOINTS=1790
##XYDATA=(X++(Y..Y))
549.759 1.3968 1.3307 0.992 0.7722 0.7231 0.7169 1.1779 1.458 1.878 2.008
569.049 1.648 1.738 2.248 2.408 2.268 2.548 3.458 4.108 4.368 5.018
588.339 6.128 7.218 8.388 9.538 10.488 11.108 10.678 10.138 9.428 8.128
607.628 6.798 5.478 4.518 4.228 3.738 3.088 2.918 2.568 2.178 2.368
626.918 2.528 2.278 2.348 2.588 2.098 2.098 2.688 3.198 3.268 3.658
646.208 4.468 5.088 5.938 6.918 8.078 9.358 11.558 14.138 16.848 20.568
665.498 25.128 30.868 38.558 49.298 64.188 83.038 103.218 120.038 132.478 138.628
684.787 135.568 123.988 107.148 89.878 74.638 63.048 56.878 56.778 60.838 59.538
704.077 49.518 40.378 34.048 27.468 20.958 15.028 10.818 8.018 6.178 5.128
723.367 4.458 4.068 3.508 2.958 2.698 3.108 4.008 4.518 5.028 5.248
742.657 5.418 5.568 4.838 3.808 3.188 2.768 2.248 2.098 1.908 1.718
761.947 1.878 1.958 2.068 2.078 1.848 1.758 1.958 1.988 2.078 2.138
781.236 2.068 2.428 2.658 2.608 2.668 2.708 2.418 2.168 2.268 2.278
800.526 2.258 2.428 2.318 2.238 2.908 3.098 2.578 2.558 2.968 3.248
819.816 3.128 3.178 3.658 4.008 4.678 5.508 6.828 9.558 13.648 19.068
839.106 24.598 29.728 33.688 35.968 37.038 35.678 31.928 27.088 22.418 18.328
858.395 14.058 10.278 7.298 5.148 4.078 3.578 3.338 3.198 3.638 4.668
877.685 5.308 6.528 8.818 11.608 15.938 21.748 28.588 36.118 43.968 51.718
896.975 56.878 55.908 49.068 41.228 34.438 28.298 23.168 19.378 17.528 17.218
916.265 17.978 19.538 21.638 22.378 19.868 15.978 13.118 10.768 8.248 6.238
935.555 4.658 3.608 3.028 2.708 2.508 2.388 2.328 2.218 2.058 2.278
954.844 2.478 2.398 2.328 2.348 2.638 2.508 2.168 2.088 2.078 2.118
974.134 2.278 2.288 2.098 2.248 2.548 2.918 3.508 4.478 5.788 6.518
993.424 7.398 8.788 9.598 10.268 10.228 9.308 8.358 7.528 6.868 6.198
1012.714 5.168 4.158 3.938 4.038 4.068 3.908 3.628 3.578 3.968 4.108
1032.003 4.078 3.778 3.658 4.098 4.718 5.208 5.058 5.088 5.088 5.498
1051.293 5.338 4.598 4.898 5.098 4.858 4.408 4.398 4.858 5.188 5.208
1070.583 5.578 6.258 6.778 7.508 7.258 6.708 6.988 7.608 8.078 9.318
1089.873 10.398 11.508 13.298 15.058 18.348 23.318 29.628 37.298 44.198 48.548
1109.163 52.308 54.468 52.038 46.128 40.518 37.578 35.748 36.218 38.278 39.748
1128.452 43.268 48.268 55.488 66.718 82.948 104.158 131.498 170.238 220.478 284.498
1147.742 363.748 453.798 556.688 664.788 763.758 843.378 880.328 855.278 789.348 725.548
1167.032 671.668 626.808 602.178 603.278 620.958 648.788 680.808 700.818 707.938 699.338
1186.322 669.538 623.438 558.848 481.388 401.988 325.298 252.748 189.818 143.458 113.518
1205.611 94.498 81.208 72.868 66.628 61.528 56.638 52.198 49.648 47.848 46.158
1224.901 44.888 43.748 42.688 41.388 41.158 40.828 40.088 40.468 40.718 41.338
1244.191 41.998 42.688 44.358 47.248 52.328 59.828 70.638 86.208 106.508 131.778
1263.481 160.408 193.158 237.158 302.838 398.298 525.208 670.488 800.608 886.048 916.458
1282.771 886.448 798.268 649.558 464.268 304.158 198.928 137.298 99.598 74.708 57.708
1302.060 46.008 37.978 32.258 27.948 24.668 22.078 20.078 18.428 16.938 15.808
1321.350 14.978 14.528 14.218 13.968 13.868 13.928 14.368 14.958 15.778 17.218
1340.640 19.068 21.388 24.478 28.598 34.358 42.258 52.938 67.208 85.218 105.968
1359.930 126.208 141.328 147.918 146.078 137.298 121.398 98.608 73.258 51.208 35.268
1379.219 24.948 18.718 15.288 13.858 13.568 13.618 13.938 14.388 14.628 14.468
1398.509 13.878 12.808 11.528 10.398 9.468 8.668 8.058 7.618 7.318 7.048
1417.799 6.938 7.008 7.058 7.098 7.208 7.238 7.228 7.128 6.998 6.988
1437.089 6.868 6.738 6.788 7.028 7.438 7.958 8.478 8.988 9.648 10.418
1456.378 11.158 11.838 12.248 12.028 11.418 10.568 9.448 8.258 6.998 5.948
1475.668 5.298 4.808 4.458 4.348 4.178 3.858 3.758 3.788 3.818 3.798
1494.958 3.838 3.808 3.718 3.778 3.738 3.668 3.578 3.678 3.788 3.618
1514.248 3.448 3.438 3.348 3.238 3.078 2.998 3.048 2.938 2.898 2.848
1533.538 2.758 2.838 2.878 2.758 2.738 2.838 3.038 3.188 3.408 3.608
1552.827 3.738 3.938 4.048 4.078 4.048 3.978 3.878 3.748 3.658 3.758
1572.117 3.988 4.048 4.258 4.768 5.228 5.818 6.478 7.228 8.228 9.318
1591.407 10.108 10.948 12.118 13.508 15.208 17.158 19.558 22.508 26.128 30.228
1610.697 34.378 38.108 40.868 42.558 42.258 39.548 35.148 29.678 24.328 19.928
1629.986 16.548 14.048 12.418 11.488 10.858 10.348 9.978 9.708 9.588 9.708
1649.276 9.908 10.068 10.088 9.718 9.188 8.908 8.558 8.028 7.418 6.738
1668.566 6.188 5.738 5.308 5.138 5.118 5.228 5.698 6.318 7.048 7.708
1687.856 8.338 8.878 9.218 9.398 9.288 9.188 9.718 10.818 12.388 14.668
1707.146 17.488 21.528 27.958 38.018 54.508 81.808 124.268 180.358 240.148 283.958
1726.435 303.968 307.818 294.078 250.548 179.608 112.678 68.218 42.398 28.268 20.508
1745.725 16.128 13.388 11.728 10.488 9.468 8.738 8.308 7.808 7.348 6.948
1765.015 6.448 6.108 5.848 5.418 5.128 4.888 4.778 4.798 4.728 4.678
1784.305 4.758 4.808 4.868 5.098 5.328 5.568 5.788 6.088 6.288 6.308
1803.594 6.118 5.658 5.228 5.068 5.108 5.278 5.458 5.888 6.478 6.978
1822.884 7.498 8.098 8.778 9.308 9.928 10.468 10.848 11.078 11.008 10.698
1842.174 10.168 9.598 8.938 8.308 7.818 7.458 7.308 7.128 6.778 6.428
1861.464 5.998 5.568 5.128 4.538 3.868 3.488 3.218 2.868 2.578 2.278
1880.754 2.068 2.068 2.128 2.138 2.088 2.018 2.098 2.178 2.078 2.088
1900.043 2.188 2.168 2.178 2.118 2.078 2.098 2.148 2.158 2.198 2.278
1919.333 2.278 2.438 2.518 2.368 2.428 2.588 2.618 2.568 2.378 2.188
1938.623 2.068 1.898 1.768 1.758 1.698 1.588 1.498 1.4091 1.3783 1.2881
1957.913 1.2198 1.1799 1.0816 1.1644 1.1656 1.1265 1.1039 1.0381 1.1174 1.2657
1977.202 1.2247 1.1402 1.1987 1.3354 1.3807 1.3825 1.558 1.748 1.758 1.738
1996.492 1.818 1.938 1.968 1.948 1.818 1.738 1.728 1.738 1.728 1.728
2015.782 1.868 1.968 2.028 2.048 2.068 2.088 1.988 1.848 1.688 1.598
2035.072 1.458 1.2878 1.1324 1.137 1.1522 0.9672 1.0086 1.0047 1.0076 1.024
2054.362 0.9625 1.0342 1.0733 1.0243 1.0166 1.0978 1.0143 0.97 1.0889 1.1907
2073.651 1.294 1.2867 1.3073 1.438 1.588 1.558 1.498 1.508 1.508 1.548
2092.941 1.678 1.628 1.508 1.598 1.608 1.548 1.558 1.468 1.418 1.438
2112.231 1.3296 1.3633 1.3898 1.3401 1.1845 1.0821 1.1694 1.1785 1.1379 1.0706
2131.521 1.0121 0.9889 0.9434 0.9228 0.8845 0.9018 0.8732 0.7892 0.7656 0.7343
2150.810 0.6734 0.7303 0.824 0.7804 0.8162 0.9367 0.8546 0.7515 0.6878 0.7251
2170.100 0.7469 0.6431 0.7367 0.7968 0.7873 0.8702 1.0707 1.2558 1.2305 1.1533
2189.390 1.2508 1.2703 1.2794 1.3997 1.558 1.718 1.668 1.758 1.888 1.868
2208.680 2.008 2.118 1.928 1.828 1.728 1.578 1.668 1.698 1.528 1.528
2227.970 1.578 1.518 1.458 1.438 1.548 1.588 1.618 1.738 1.928 2.018
2247.259 2.048 2.118 2.258 2.208 2.118 2.258 2.298 2.388 2.428 2.448
2266.549 2.588 2.638 2.698 2.818 2.998 3.218 3.328 3.478 3.658 3.778
2285.839 3.748 3.638 3.648 3.668 3.728 3.698 3.708 3.688 3.578 3.548
2305.129 3.478 3.338 3.208 3.158 2.938 2.868 2.978 2.948 2.628 2.468
2324.418 2.738 2.788 2.588 2.588 2.608 2.688 2.728 2.638 2.648 2.578
2343.708 2.628 2.718 2.768 2.828 2.868 3.008 2.938 2.778 2.818 2.778
2362.998 2.758 2.688 2.618 2.668 2.568 2.658 2.738 2.408 2.288 2.408
2382.288 2.348 2.228 2.118 1.978 1.818 1.748 1.678 1.381 1.2168 1.17
2401.578 1.1542 1.2327 1.2293 1.2037 1.0884 1.1996 1.1888 1.0675 1.2523 1.3487
2420.867 1.2991 1.2612 1.1921 1.1387 1.3094 1.3871 1.438 1.538 1.488 1.568
2440.157 1.568 1.568 1.598 1.418 1.3263 1.2785 1.2666 1.2321 1.3062 1.428
2459.447 1.302 1.2317 1.2134 1.2495 1.2921 1.1203 1.0941 1.0298 0.8827 0.9057
2478.737 0.8578 0.8696 0.8518 0.7852 0.6795 0.6319 0.6912 0.5964 0.6453 0.6951
2498.026 0.7112 0.688 0.6483 0.7562 0.7646 0.8291 0.8144 0.788 0.9324 0.9306
2517.316 0.872 0.8727 0.9167 1.0387 1.1183 1.1079 0.9956 1 1.1434 1.2801
2536.606 1.2818 1.3103 1.3638 1.4154 1.558 1.558 1.508 1.498 1.538 1.498
2555.896 1.538 1.508 1.558 1.658 1.578 1.438 1.2393 1.0764 1.0132 1.0855
2575.186 1.101 0.9876 0.9997 1.0598 1.1383 1.1421 1.1049 1.2271 1.1879 1.1894
2594.475 1.2163 1.2068 1.2633 1.2951 1.448 1.538 1.528 1.618 1.668 1.718
2613.765 1.658 1.708 1.818 1.848 1.948 2.038 2.238 2.418 2.388 2.308
2633.055 2.438 2.548 2.528 2.538 2.468 2.508 2.568 2.478 2.448 2.258
2652.345 2.048 1.958 1.738 1.758 1.928 1.918 1.898 1.968 2.078 2.188
2671.634 2.028 2.098 2.408 2.438 2.368 2.438 2.658 2.888 2.978 3.118
2690.924 3.318 3.508 3.848 4.448 5.398 6.428 7.578 9.028 10.888 13.258
2710.214 16.028 18.788 21.078 22.828 23.658 23.518 22.648 21.068 19.468 17.778
2729.504 16.158 15.068 14.378 13.768 13.218 12.638 11.688 10.748 9.898 9.188
2748.794 8.758 8.338 8.088 8.018 8.138 8.258 8.348 8.778 9.178 9.388
2768.083 9.658 9.848 9.858 9.628 9.338 9.088 8.878 8.668 8.508 8.478
2787.373 8.478 8.708 9.218 10.088 11.278 12.808 15.318 19.068 24.058 30.388
2806.663 37.978 46.078 52.868 57.118 58.358 56.898 52.868 46.558 39.288 32.658
2825.953 27.418 23.388 19.978 17.388 15.478 13.858 12.688 11.988 11.418 10.938
2845.242 10.858 10.798 10.648 10.608 10.378 10.028 9.438 8.588 7.938 7.248
2864.532 6.288 5.388 4.728 4.128 3.738 3.458 3.218 2.988 2.768 2.638
2883.822 2.518 2.488 2.388 2.228 2.208 2.108 1.978 2.048 1.978 1.938
2903.112 1.888 1.908 1.908 1.778 1.678 1.808 2.098 2.248 2.328 2.368
2922.401 2.438 2.608 2.608 2.278 2.088 1.998 1.888 1.948 1.958 1.828
2941.691 1.858 1.838 1.708 1.668 1.718 1.728 1.738 1.628 1.4031 1.448
2960.981 1.488 1.628 1.708 1.658 1.628 1.588 1.628 1.648 1.838 1.718
2980.271 1.598 1.758 1.698 1.668 1.568 1.508 1.568 1.458 1.237 1.2976
2999.561 1.4051 1.2753 1.3119 1.4058 1.4054 1.3585 1.328 1.438 1.468 1.365
3018.850 1.1449 1.0738 1.2768 1.2246 1.0905 1.1111 1.2555 1.3363 1.2658 1.3312
3038.140 1.2511 1.1572 1.2474 1.448 1.678 1.688 1.3829 1.2024 1.3347 1.498
3057.430 1.648 1.688 1.678 1.788 1.978 2.238 2.578 2.698 2.738 3.038
3076.720 3.308 3.638 4.258 4.508 4.668 4.798 4.838 4.788 4.618 4.338
3096.009 3.798 3.448 3.028 2.488 2.378 2.228 1.988 1.938 1.668 1.3282
3115.299 1.177 1.1991 1.0369 0.8504 0.8569 0.6537 0.5423 0.5947 0.6386 0.7142
3134.589 0.6313 0.7945 0.9452 0.6382 0.5199 0.6161 0.49459 0.44248 0.49864 0.3357
3153.879 0.3246 0.6547 0.5902 0.49199 0.7055 0.8734 0.7674 0.48423 0.3531 0.3969
3173.169 0.6439 0.74 0.6574 0.50716 0.51284 0.7295 0.6679 0.43052 0.3477 0.5481
3192.458 0.6257 0.51471 0.6199 0.46482 0.238 0.3947 0.48106 0.5548 0.7471 0.7787
3211.748 0.7201 0.5618 0.45109 0.51129 0.6128 0.7167 0.603 0.5638 0.6826 0.6261
3231.038 0.437 0.271 0.197 0.255 0.3495 0.49516 0.5904 0.5687 0.3934 0.50079
3250.328 0.558 0.43313 0.31 0.274 0.45589 0.6496 0.5507 0.292 0.42993 0.43913
3269.617 0.255 0.309 0.51677 0.5434 0.5883 0.5984 0.44892 0.43535 0.46152 0.6068
3288.907 0.7028 0.6048 0.46531 0.3636 0.50913 0.424776 0.279 0.51234 0.49072 0.49975
3308.197 0.6479 0.44916 0.305 0.3664 0.5529 0.5206 0.51385 0.7876 0.6914 0.48854
3327.487 0.6673 0.9093 0.7855 0.5803 0.5726 0.49735 0.3916 0.5831 0.8099 0.8369
3346.777 0.856 0.7353 0.6277 0.7611 0.6843 0.428 0.6265 0.8255 0.7774 0.745
3366.066 0.6412 0.48483 0.50521 0.5681 0.7301 0.8118 0.7815 0.8345 0.7535 0.7023
3385.356 0.6338 0.7442 0.8076 0.7304 0.8003 0.7805 0.7043 0.8087 0.8034 0.8977
3404.646 1.0421 0.8796 0.9413 1.0486 0.9901 1.3564 1.4139 1.3142 1.758 1.998
3423.936 2.408 3.378 4.278 4.998 5.758 6.418 6.948 7.208 6.758 6.058
3443.225 5.048 3.738 2.728 2.158 1.738 1.304 1.0451 0.9091 0.7702 0.8492
3462.515 0.8034 0.47934 0.7371 1.0704 0.9166 0.8188 0.7855 0.5862 0.312 0.3198
3481.805 0.6197 0.5892 0.3841 0.5719 0.7806 0.8054 0.8975 0.7456 0.5612 0.317
3501.095 0.251 0.49524 0.6995 0.7241 0.5754 0.666 0.8515 0.6875 0.5267 0.6432
3520.385 0.6195 0.45891 0.3451 0.3881 0.3979 0.41609 0.5635 0.5961 0.5324 0.5554
3539.674 0.5197 0.51201 0.5853 0.426086 0.6247 0.6767 0.3611 0.6137 0.6945 0.3977
3558.964 0.43053 0.47045 0.5648 0.6852 0.3932 0.3666 0.426946 0.3783 0.3947 0.48219
3578.254 0.51738 0.5864 0.8974 0.8615 0.6182 0.381 0 0.176 0.49842 0.47747
3597.544 0.3506 0.304 0.405 0.5181 0.51425 0.3331 0.44871 0.3926 0.302 0.44303
3616.833 0.421039 0.5319 0.6088 0.425755 0.366 0.5536 0.47173 0.4958 0.6928 0.5742
3636.123 0.3781 0.137 0.112 0.5192 0.6812 0.48365 0.5511 0.7446 0.6558 0.50809
3655.413 0.5922 0.5911 0.44286 0.5357 0.6009 0.5346 0.5009 0.252 0.215 0.279
3674.703 0.50046 0.6551 0.322 0.283 0.5983 0.7395 0.5744 0.3997 0.5141 0.6768
3693.993 0.51045 0.5958 0.6218 0.277 0.3934 0.44377 0.425662 0.593 0.6344 0.298
3713.282 0.035 0.318 0.44973 0.48094 0.50168 0.5847 0.621 0.6548 0.8005 0.655
3732.572 0.50412 0.50934 0.6268 0.6711 0.7536 0.6814 0.6529 0.8006 0.5582 0.3783
3751.862 0.43396 0.5607 0.51682 0.4068 0.3651 0.4051 0.5523 0.43317 0.225 0.3888
3771.152 0.6904 0.5641 0.44693 0.6716 0.43424 0.29 0.5639 0.5732 0.3925 0.5373
3790.441 0.48804 0.3858 0.6605 0.7249 0.6822 0.49525 0.5446 0.6156 0.44048 0.301
3809.731 0.3896 0.6292 0.5526 0.4058 0.362 0.379 0.3 0.185 0.211 0.212
3829.021 0.322 0.4061 0.3249 0.4041 0.44218 0.43921 0.5506 0.45955 0.5739 0.6682
3848.311 0.5982 0.47695 0.44546 0.5563 0.6104 0.7077 0.5646 0.373 0.281 0.3334
3867.601 0.45448 0.3972 0.3667 0.4002 0.41671 0.43163 0.3501 0.3486 0.4087 0.43258
3886.890 0.5702 0.6253 0.51518 0.616 0.624 0.5698 0.5814 0.5374 0.49544 0.48002
3906.180 0.5565 0.49523 0.5588 0.7266 0.6371 0.5226 0.49911 0.4474 0.3561 0.238
3925.470 0.41259 0.46524 0.50717 0.3752 0.068 0.315 0.6078 0.40894 0.155 0.223
3944.760 0.3834 0.45118 0.212 0.22 0.43185 0.47791 0.3781 0.4003 0.45237 0.43319
3964.049 0.3361 0.168 0.427607 0.45911 0.48763 0.8025 0.7479 0.49037 0.46798 0.6151
3983.339 0.49337 0.229 0.3657 0.6066 0.8349 0.6749 0.44901 0.6578 0.541 0.425299
##END=
