##TITLE=3-Fluorobenzotrifluoride
##JCAMP-DX=4.24
##DATA TYPE=INFRARED SPECTRUM
##ORIGIN=EPA-IR VAPOR PHASE LIBRARY
##OWNER=SRD/NIST
Collection (C) 2018 copyright by the U.S. Secretary of Commerce
on behalf of the United States of America. All rights reserved.
##CAS REGISTRY NO=401-80-9
##MOLFORM=C 7 H 4 F 4
##$NIST SOURCE=MSDC-IR
##STATE=gas
##XUNITS=1/CM
##YUNITS=ABSORBANCE
##XFACTOR=1.
##YFACTOR=0.001
##DELTAX=1.92934
##FIRSTX=549.9
##LASTX=3999.5
##FIRSTY=3.8603
##MAXX=3999.53
##MINX=549.863
##MAXY=0.55748
##MINY=0
##NPOINTS=1789
##XYDATA=(X++(Y..Y))
549.863 3.8603 3.7971 3.722 3.7265 3.6004 3.5188 3.5062 3.262 3.132 3.131
569.156 3.2 3.245 3.297 3.293 3.214 3.239 3.27 3.213 3.207 3.44973
588.450 3.5338 3.273 3.03 3.012 3.041 2.886 2.817 2.869 2.815 2.818
607.743 2.905 2.979 3.048 3.125 3.233 3.46581 3.7699 3.9089 3.9701 4.0988
627.037 4.255 4.55 5.09 5.48 5.43 5.32 5.53 6.12 7.37 9.68
646.330 13.46 18.16 21.76 21.7 21.31 23.12 21.22 19.95 20.29 17.09
665.624 12.6 9.16 7.54 7.23 7.84 9.23 11.19 13.76 16.78 20.17
684.917 23.5 26.37 28.56 30.82 35.38 46.22 54.33 45.82 34.94 31.05
704.210 28.96 26.96 24.18 20.81 17.2 13.92 11.07 8.75 7.02 5.76
723.504 4.85 4.43 4.4 4.8 5.77 7.88 11.67 17.73 24.9 30.52
742.797 31.59 32.61 35.44 33.61 34.05 34.69 28.2 19.54 12.89 9.52
762.091 8.53 8.84 9.93 11.83 14.43 17.66 21.48 25.61 29.8 33.88
781.384 37.9 42.26 47.93 55.48 62.48 62.23 52.93 44.01 39.65 36.6
800.678 33.09 28.77 24.14 19.67 15.49 11.95 9.28 7.34 5.93 4.93
819.971 4.3612 3.9586 3.7199 3.6281 3.49506 3.3397 3.251 3.283 3.262 3.292
839.264 3.352 3.40116 3.49574 3.5839 3.7751 4.0659 4.4 4.89 5.64 6.62
858.558 8.04 9.96 12.44 15.59 19.44 23.92 29.05 34.88 41.72 50.47
877.851 62.88 80.01 100.14 116.64 125.34 131.34 136.88 140.42 140.91 136.99
897.145 129.54 117.8 100.05 79.43 61.05 47.06 36.78 29.21 23.59 19.23
916.438 15.7 12.74 10.31 8.39 6.98 6.11 5.44 4.9 4.57 4.2975
935.732 4.0793 3.8982 3.7483 3.6453 3.5812 3.5853 3.5779 3.6018 3.6832 3.832
955.025 4.0267 4.1901 4.41 4.63 4.83 5.03 5.18 5.36 5.55 5.58
974.318 5.42 5.19 5.01 4.84 4.64 4.42 4.2286 4.1221 4.0431 4.1196
993.612 4.3977 4.78 5.22 5.63 5.91 6.28 6.72 6.92 7.22 7.38
1012.905 7.14 6.83 6.55 6.43 6.32 6.21 6.25 6.35 6.52 6.86
1032.199 7.44 8.35 9.67 11.52 14.04 17.64 22.9 30.14 39.18 48.88
1051.492 57.09 62.33 65.83 69.89 72.5 72.39 70.67 63.66 51.72 40.94
1070.786 34.86 33.52 35.52 39.42 43.54 46.38 47.69 48.26 47.57 45.87
1090.079 43.46 38.87 32.6 26.71 22.25 19.32 17.56 16.72 16.69 17.15
1109.372 18.1 19.49 21.45 24.25 27.81 32.12 37.28 43.82 52.07 62.31
1128.666 74.9 90.18 108.45 130.28 156.21 186.49 220.89 259.21 302.15 349.92
1147.959 399.04 440.94 463.33 458.48 432.31 402.04 377.35 355.26 335.61 321.21
1167.253 314.25 317.5 330.82 349.09 365.14 369.94 355.3 322.46 283.31 250.61
1186.546 226.11 203.21 177 148.66 123.36 105.28 94.06 87.31 83.8 82.75
1205.840 83.58 85.29 85.65 83.28 78.84 73.65 68.8 64.58 60.65 55.83
1225.133 49.09 41.98 36.47 32.7 30.17 28.49 27.16 25.8 24.49 23.58
1244.426 23.12 22.94 23.05 23.36 23.9 24.79 26.32 28.79 32.24 36.57
1263.720 41.84 48 54.67 61.24 66.49 69.07 69.09 68.58 68.49 68.47
1283.013 67.72 63.76 56.62 49.57 44.72 42.22 41.33 41.47 42.46 44.51
1302.307 47.92 53.13 60.57 71.09 85.94 107.1 137.48 180.09 236.62 305.45
1321.600 380.36 450.7 505.63 540.7 557.48 555.83 531.8 486.86 419.24 327.83
1340.894 231.57 151.04 94.25 60.34 42.17 32.54 27.01 23.35 20.6 18.55
1360.187 16.89 15.46 14.12 12.88 11.79 10.9 10.28 9.85 9.57 9.39
1379.480 9.3 9.26 9.21 9.13 9.15 9.29 9.5 9.8 10.14 10.52
1398.774 10.84 11.17 11.72 12.46 13.48 14.77 16.19 17.86 19.73 21.72
1418.067 23.61 25.13 26.17 27.07 28.13 29.33 30.84 32.62 34.92 38.35
1437.361 43.68 51.06 60.86 73.26 88 104.19 119.95 131.81 137.5 137.87
1456.654 136.56 133.89 128.25 118.49 99.35 73.83 52.77 39.97 33.59 30.58
1475.948 29.68 30.18 31.81 34.24 36.91 39.25 40.8 41.38 41.27 40.93
1495.241 40.35 39.14 37.09 34.03 30.18 26.04 21.96 18.52 15.98 13.99
1514.534 12.46 11.35 10.51 9.92 9.5 9.15 8.8 8.54 8.2 7.78
1533.828 7.39 6.98 6.6 6.22 5.82 5.43 5.2 5.1 5.07 5.08
1553.121 5.2 5.51 6.01 6.65 7.3 8.16 9.32 10.59 12.05 13.71
1572.415 15.43 17.35 19.6 21.96 24.47 27.27 30.03 32.72 35.42 37.94
1591.708 40.25 42.46 44.36 45.54 45.68 45.06 44.23 43.48 42.79 41.65
1611.002 39.5 36.48 33.19 30 27.13 24.63 22.32 20.14 18.13 16.25
1630.295 14.57 13.13 11.98 10.93 10.01 9.3 8.63 8.09 7.71 7.35
1649.588 7.02 6.78 6.41 5.96 5.71 5.47 5.28 5.2 5.12 5.09
1668.882 5.08 5.06 5.05 5.18 5.34 5.51 5.77 6.07 6.34 6.45
1688.175 6.42 6.32 6.12 5.91 5.61 5.21 4.81 4.2707 3.7959 3.45248
1707.469 3.128 2.901 2.838 2.813 2.829 2.862 2.816 2.808 2.844 2.855
1726.762 2.939 3.06 3.198 3.3574 3.49227 3.6449 3.8305 4.0895 4.44 4.8
1746.056 5.2 5.68 6.16 6.64 7.06 7.4 7.62 7.67 7.61 7.53
1765.349 7.35 7.11 6.75 6.28 5.79 5.28 4.87 4.55 4.2997 4.1428
1784.642 4.0708 4.0541 4.0671 4.0798 4.1374 4.2379 4.2602 4.2603 4.2528 4.1989
1803.936 4.162 4.091 3.9707 3.8386 3.6574 3.44282 3.242 3.093 3.002 2.887
1823.229 2.822 2.808 2.763 2.764 2.762 2.725 2.744 2.751 2.741 2.755
1842.523 2.764 2.805 2.88 2.985 3.068 3.211 3.42137 3.6742 3.9923 4.3681
1861.816 4.81 5.21 5.46 5.58 5.55 5.42 5.24 4.97 4.66 4.2906
1881.110 3.8632 3.47307 3.23 3.093 3.045 3.058 3.138 3.188 3.186 3.191
1900.403 3.174 3.168 3.177 3.191 3.17 3.194 3.29 3.3724 3.43335 3.5604
1919.696 3.6919 3.8098 3.9565 4.1011 4.2305 4.3682 4.53 4.65 4.77 4.82
1938.990 4.75 4.62 4.53 4.45 4.3172 4.1258 3.8894 3.6507 3.39047 3.098
1958.283 2.93 2.838 2.743 2.705 2.655 2.595 2.562 2.534 2.527 2.51
1977.577 2.482 2.46 2.405 2.36 2.32 2.28 2.27 2.24 2.21 2.2
1996.870 2.17 2.14 2.15 2.18 2.18 2.19 2.22 2.22 2.2 2.19
2016.164 2.25 2.32 2.35 2.38 2.413 2.426 2.475 2.524 2.516 2.555
2035.457 2.616 2.634 2.683 2.771 2.79 2.769 2.785 2.782 2.818 2.876
2054.750 2.857 2.888 2.973 3.027 3.107 3.201 3.3238 3.44349 3.5589 3.6425
2074.044 3.7182 3.7777 3.7385 3.6904 3.6897 3.6208 3.525 3.5103 3.49973 3.5105
2093.337 3.5626 3.611 3.7288 3.8742 3.9547 4.0397 4.1307 4.1232 4.0912 3.9964
2112.631 3.8552 3.6865 3.499 3.3315 3.12 2.926 2.75 2.584 2.472 2.38
2131.924 2.32 2.29 2.24 2.2 2.2 2.19 2.12 2.08 2.11 2.12
2151.218 2.12 2.1 2.1 2.12 2.15 2.16 2.2 2.2 2.14 2.16
2170.511 2.21 2.25 2.28 2.28 2.26 2.3 2.32 2.31 2.32 2.38
2189.804 2.4 2.39 2.464 2.568 2.626 2.665 2.731 2.806 2.871 2.917
2209.098 2.938 2.951 2.949 2.966 2.97 2.988 3.045 3.041 3.054 3.062
2228.391 3.046 3.029 3.034 3.073 3.03 2.992 2.998 2.96 2.946 2.958
2247.685 2.922 2.901 2.902 2.88 2.853 2.849 2.876 2.908 2.912 2.911
2266.978 2.883 2.892 2.959 2.958 2.947 2.988 3.05 3.1 3.117 3.099
2286.272 3.138 3.179 3.167 3.134 3.09 3.077 3.079 3.057 3.008 2.997
2305.565 3.005 2.991 3.029 3.088 3.165 3.228 3.254 3.314 3.3575 3.3701
2324.858 3.3735 3.40557 3.48975 3.5419 3.518 3.5137 3.5093 3.45228 3.42709 3.41612
2344.152 3.39964 3.42657 3.42707 3.3849 3.3892 3.43772 3.45316 3.4676 3.42151 3.3518
2363.445 3.3631 3.3674 3.3745 3.3564 3.3079 3.275 3.218 3.212 3.216 3.172
2382.739 3.147 3.088 3.083 3.094 3.025 2.971 2.929 2.858 2.814 2.786
2402.032 2.694 2.647 2.605 2.571 2.584 2.533 2.557 2.573 2.542 2.579
2421.326 2.601 2.6 2.607 2.608 2.606 2.559 2.473 2.409 2.32 2.28
2440.619 2.24 2.2 2.18 2.11 2.15 2.17 2.16 2.16 2.19 2.23
2459.912 2.28 2.39 2.443 2.477 2.578 2.664 2.741 2.848 2.951 3.096
2479.206 3.241 3.3535 3.46987 3.5371 3.554 3.5885 3.6032 3.5902 3.5552 3.46424
2498.499 3.3831 3.287 3.126 3.007 2.95 2.883 2.829 2.695 2.596 2.546
2517.793 2.466 2.412 2.39 2.38 2.33 2.25 2.23 2.29 2.3 2.32
2537.086 2.33 2.28 2.22 2.22 2.24 2.17 2.15 2.14 2.07 2.07
2556.380 2.08 2.04 2.02 1.98 1.95 1.96 1.97 1.99 2.01 2.05
2575.673 2.06 2.04 2.06 2.06 2.05 2.06 2.07 2.11 2.06 2.04
2594.966 2.08 2.08 2.03 2.01 2.08 2.17 2.23 2.22 2.2 2.23
2614.260 2.24 2.19 2.16 2.14 2.11 2.12 2.09 2.02 1.93 1.9
2633.553 1.94 1.96 1.91 1.94 2.03 2.13 2.22 2.22 2.26 2.35
2652.847 2.39 2.4 2.401 2.36 2.27 2.2 2.18 2.13 2.04 1.94
2672.140 1.83 1.67 1.57 1.55 1.5 1.43 1.4 1.45 1.49 1.43
2691.434 1.4 1.4 1.38 1.37 1.39 1.4 1.38 1.35 1.38 1.39
2710.727 1.38 1.38 1.41 1.39 1.34 1.36 1.35 1.33 1.33 1.34
2730.020 1.32 1.26 1.28 1.34 1.36 1.34 1.33 1.32 1.31 1.31
2749.314 1.33 1.3 1.22 1.21 1.26 1.27 1.3 1.32 1.32 1.31
2768.607 1.33 1.36 1.36 1.42 1.5 1.45 1.48 1.59 1.53 1.42
2787.901 1.42 1.39 1.38 1.36 1.29 1.16 1.09 1.08 1.14 1.18
2807.194 1.12 1.09 1.09 1.14 1.15 1.06 0.98 1.02 1.02 1.04
2826.488 1.01 0.96 1.02 1.03 0.88 0.86 0.97 0.87 0.79 0.8
2845.781 0.83 0.86 0.89 0.87 0.85 0.91 0.83 0.8 0.79 0.75
2865.074 0.79 0.88 0.88 0.83 0.88 0.88 0.82 0.84 0.89 0.84
2884.368 0.77 0.82 0.81 0.77 0.75 0.73 0.7 0.74 0.8 0.72
2903.661 0.62 0.69 0.78 0.76 0.7 0.62 0.61 0.66 0.7 0.8
2922.955 0.83 0.82 0.82 0.85 0.97 1.06 1.05 1.13 1.17 1.18
2942.248 1.3 1.33 1.3 1.2 1.09 1.04 1 0.96 0.95 0.94
2961.542 0.87 0.87 0.9 0.99 0.95 0.94 0.94 0.91 0.96 1.07
2980.835 1.11 0.87 0.72 0.68 0.67 0.76 0.7 0.63 0.66 0.57
3000.128 0.49 0.55 0.5 0.46 0.54 0.56 0.5 0.58 0.71 0.71
3019.422 0.7 0.63 0.63 0.72 0.74 0.79 0.92 1 1.18 1.38
3038.715 1.48 1.56 1.8 2.06 2.24 2.411 2.61 2.803 3.097 3.42198
3058.009 3.5752 3.7643 3.9958 4.1689 4.43 4.71 4.97 5.4 5.87 6.48
3077.302 7.07 7.64 8.28 8.59 8.68 8.68 8.6 8.38 7.95 7.44
3096.596 6.63 5.78 4.98 4.1909 3.6194 3.149 2.619 2.27 2.13 1.8
3115.889 1.48 1.32 1.22 1.07 0.98 0.77 0.56 0.65 0.6 0.58
3135.182 0.6 0.61 0.42 0.15 0.3 0.33 0.27 0.19 0.2 0.28
3154.476 0.29 0.29 0.3 0.29 0.21 0.08 0.08 0.12 0.13 0.22
3173.769 0.11 0.09 0.22 0.2 0.16 0.1 0.05 0 0.05 0.25
3193.063 0.35 0.39 0.46 0.35 0.19 0.18 0.38 0.48 0.5 0.42
3212.356 0.27 0.36 0.35 0.26 0.34 0.4 0.35 0.31 0.22 0.27
3231.650 0.26 0.25 0.34 0.31 0.28 0.23 0.25 0.3 0.23 0.2
3250.943 0.31 0.37 0.39 0.45 0.43 0.52 0.56 0.46 0.34 0.28
3270.236 0.39 0.42 0.43 0.4 0.37 0.48 0.51 0.44 0.38 0.3
3289.530 0.31 0.34 0.37 0.45 0.45 0.5 0.39 0.29 0.44 0.57
3308.823 0.5 0.4 0.46 0.51 0.55 0.52 0.56 0.65 0.62 0.6
3328.117 0.51 0.51 0.68 0.74 0.69 0.64 0.53 0.58 0.66 0.55
3347.410 0.71 0.82 0.73 0.58 0.53 0.68 0.67 0.66 0.7 0.69
3366.704 0.69 0.77 0.82 0.76 0.58 0.49 0.63 0.65 0.71 0.85
3385.997 0.84 0.83 0.84 0.8 0.79 0.81 0.76 0.72 0.76 0.87
3405.290 0.88 0.77 0.8 1 1.04 0.93 1 1.1 1 0.82
3424.584 0.88 0.93 0.99 1.04 1.03 1.05 0.99 0.94 1.04 1.08
3443.877 1.09 1.08 0.99 1 0.98 1.01 1 0.96 1.05 1.12
3463.171 1.13 0.99 0.93 1.03 1.08 1.11 1.16 1.08 1.03 1.04
3482.464 1.05 1.07 1.1 1.17 1.25 1.28 1.34 1.38 1.28 1.17
3501.758 1.19 1.15 1.04 1.16 1.2 1.23 1.22 1.16 1.26 1.33
3521.051 1.35 1.36 1.4 1.38 1.34 1.41 1.46 1.4 1.39 1.53
3540.344 1.56 1.43 1.39 1.35 1.36 1.41 1.44 1.35 1.34 1.4
3559.638 1.37 1.34 1.42 1.42 1.3 1.36 1.5 1.43 1.37 1.47
3578.931 1.42 1.45 1.55 1.57 1.5 1.5 1.66 1.63 1.5 1.62
3598.225 1.66 1.53 1.57 1.68 1.64 1.62 1.65 1.72 1.8 1.79
3617.518 1.7 1.63 1.67 1.72 1.72 1.66 1.68 1.71 1.69 1.71
3636.812 1.69 1.63 1.57 1.55 1.58 1.65 1.71 1.74 1.78 1.75
3656.105 1.58 1.64 1.7 1.63 1.65 1.68 1.69 1.59 1.6 1.77
3675.398 1.84 1.83 1.76 1.74 1.9 1.87 1.69 1.68 1.72 1.79
3694.692 1.77 1.74 1.82 1.84 1.83 1.88 1.94 1.98 1.98 1.99
3713.985 1.94 1.85 1.82 1.81 1.8 1.75 1.78 1.84 1.89 1.95
3733.279 1.9 1.89 1.94 2 1.99 1.91 1.87 1.89 1.94 1.97
3752.572 1.98 1.91 1.83 1.76 1.82 1.86 1.85 1.92 1.89 1.87
3771.866 1.87 1.83 1.79 1.81 1.83 1.85 1.91 1.86 1.77 1.83
3791.159 1.94 1.88 1.8 1.88 1.96 1.97 1.96 1.89 1.86 1.92
3810.452 2.02 2.08 2 1.94 1.94 2.04 1.97 1.78 1.77 1.85
3829.746 1.93 1.86 1.88 1.97 2.05 2.05 1.97 1.86 1.73 1.79
3849.039 1.94 1.93 1.92 1.87 1.77 1.64 1.53 1.58 1.72 1.91
3868.333 2.02 1.95 1.93 1.88 1.75 1.7 1.71 1.79 1.86 1.78
3887.626 1.85 1.9 1.77 1.82 1.91 1.98 1.98 1.96 1.95 1.93
3906.920 1.9 1.86 1.84 1.93 1.95 1.88 1.84 1.83 1.83 1.85
3926.213 1.86 1.87 1.86 1.79 1.78 1.85 1.82 1.83 1.94 1.95
3945.506 1.93 1.92 1.97 1.95 1.94 2 2.04 2.06 1.96 1.8
3964.800 1.73 1.84 1.93 1.9 1.96 1.92 1.9 1.95 1.96 1.93
3984.093 1.89 1.92 1.87 1.9 1.92 1.95 1.99 1.89 1.82
##END=
