##TITLE=o-Benzoyloxyacetophenone
##JCAMP-DX=4.24
##DATA TYPE=INFRARED SPECTRUM
##ORIGIN=EPA-IR VAPOR PHASE LIBRARY
##OWNER=SRD/NIST
Collection (C) 2018 copyright by the U.S. Secretary of Commerce
on behalf of the United States of America. All rights reserved.
##CAS REGISTRY NO=4010-33-7
##MOLFORM=C 15 H 12 O 3
##$NIST SOURCE=MSDC-IR
##STATE=gas
##XUNITS=1/CM
##YUNITS=ABSORBANCE
##XFACTOR=1.
##YFACTOR=0.001
##DELTAX=1.92898
##FIRSTX=549.8
##LASTX=4000.7
##FIRSTY=1.877
##MAXX=4000.7
##MINX=549.759
##MAXY=0.320067
##MINY=0
##NPOINTS=1790
##XYDATA=(X++(Y..Y))
549.759 1.877 1.837 2.087 2.187 2.297 2.707 3.027 3.267 3.807 4.437
569.049 5.127 5.857 6.797 7.537 8.477 9.497 10.157 11.227 12.747 14.437
588.339 16.537 19.067 21.607 23.537 24.567 24.457 23.107 20.817 17.917 14.837
607.628 12.237 10.147 8.697 7.737 6.667 5.707 5.067 4.707 3.947 3.207
626.918 3.047 3.087 3.057 2.807 2.777 2.897 3.057 3.127 3.147 3.607
646.208 3.957 3.947 4.077 4.537 4.927 5.277 5.737 6.257 7.027 8.137
665.498 9.877 12.517 16.217 20.527 24.497 27.207 28.497 28.457 27.117 25.067
684.787 23.977 24.647 27.167 31.757 38.607 47.917 59.197 71.367 82.107 89.577
704.077 92.287 89.647 81.977 70.217 57.027 44.917 35.117 27.927 22.927 19.337
723.367 17.057 15.737 14.887 14.517 14.467 14.987 16.107 18.227 22.047 27.577
742.657 34.947 43.447 52.247 61.087 67.727 67.887 61.507 52.467 42.927 33.857
761.947 25.857 19.507 14.967 11.827 9.917 8.677 7.787 7.237 6.967 6.787
781.236 6.567 6.417 6.367 6.727 6.917 6.957 7.037 6.847 6.627 6.247
800.526 5.917 5.597 5.307 5.497 5.997 6.337 6.427 6.897 7.737 8.337
819.816 8.887 9.447 10.037 10.527 10.917 11.617 12.237 12.687 13.227 13.367
839.106 13.087 12.317 11.117 9.747 8.227 6.917 5.867 5.217 4.807 4.507
858.395 4.387 4.357 4.497 4.837 5.187 5.607 6.277 6.757 7.217 7.527
877.685 7.437 7.057 6.657 6.287 5.827 5.547 5.137 4.617 4.197 4.127
896.975 4.387 4.257 3.987 3.957 4.027 4.117 4.097 3.987 3.937 4.057
916.265 4.117 4.367 4.817 5.007 5.217 5.817 6.487 7.267 8.177 9.217
935.555 10.267 11.247 12.317 13.377 14.507 15.517 16.607 17.757 18.887 19.877
954.844 20.357 20.377 20.037 19.437 18.497 17.277 16.007 14.567 13.367 12.317
974.134 11.417 10.927 10.497 10.077 10.037 10.277 10.627 11.037 11.427 12.097
993.424 12.827 13.987 15.427 16.747 18.417 20.237 22.317 25.367 29.127 34.287
1012.714 42.567 55.497 74.357 96.887 115.147 122.877 120.817 110.477 91.867 69.547
1032.003 53.117 46.397 45.967 48.557 53.437 60.477 70.897 86.647 107.967 134.077
1051.293 160.897 182.027 192.847 192.037 180.017 160.547 140.147 124.967 117.847 116.397
1070.583 116.667 113.977 106.667 95.927 81.997 67.427 54.777 44.707 37.177 32.607
1089.873 30.257 28.037 26.067 25.447 24.947 24.377 24.737 25.547 27.317 30.537
1109.163 35.347 41.437 48.397 55.267 59.857 61.107 59.367 55.187 49.167 42.457
1128.452 35.907 29.947 25.537 22.137 19.147 17.387 16.887 16.567 16.347 16.367
1147.742 17.237 19.537 22.817 26.897 30.267 32.227 33.797 34.867 35.357 36.597
1167.032 40.627 49.107 63.617 85.227 111.047 133.117 147.837 157.407 163.767 166.867
1186.322 171.407 186.077 210.737 238.847 263.737 280.827 288.047 285.567 276.087 261.247
1205.611 241.257 217.517 189.507 158.917 130.767 109.167 96.517 91.547 92.097 97.097
1224.901 105.477 116.137 128.087 140.057 151.367 161.267 169.317 175.947 181.717 188.497
1244.191 198.207 212.297 231.247 254.917 280.627 303.147 317.767 320.067 308.057 283.207
1263.481 249.567 213.657 181.047 155.147 136.787 124.947 117.807 113.727 111.267 108.327
1282.771 103.947 97.837 90.087 80.897 71.127 61.957 54.037 47.397 41.987 37.707
1302.060 34.397 32.177 30.677 29.667 28.977 28.097 26.877 25.377 23.547 21.477
1321.350 19.457 17.837 16.777 16.127 15.757 15.657 15.737 16.007 16.497 17.167
1340.640 18.187 19.547 21.167 23.247 25.917 29.317 33.367 37.747 41.817 44.687
1359.930 45.767 45.047 42.447 38.107 32.967 28.047 23.937 20.727 18.277 16.467
1379.219 15.097 14.077 13.267 12.517 11.847 11.427 11.057 10.617 10.307 10.157
1398.509 10.107 10.247 10.397 10.507 10.707 10.987 11.317 11.737 12.217 12.687
1417.799 13.237 14.037 14.947 15.837 16.927 18.147 19.597 21.467 24.057 27.627
1437.089 33.017 40.257 49.267 59.037 67.037 71.277 71.037 66.437 57.587 46.867
1456.378 36.757 29.127 24.507 21.707 20.527 20.587 21.907 24.567 28.677 34.177
1475.668 40.027 45.287 48.637 49.277 47.207 42.997 37.467 31.887 27.187 23.727
1494.958 21.007 18.747 16.857 15.117 13.747 12.757 11.807 10.977 10.357 9.767
1514.248 9.317 8.917 8.577 8.237 7.927 7.777 7.657 7.557 7.437 7.357
1533.538 7.387 7.477 7.657 7.747 7.767 7.877 8.037 8.257 8.337 8.477
1552.827 8.747 8.917 9.197 9.627 10.097 10.777 11.707 12.827 14.227 15.857
1572.117 17.487 18.937 20.167 20.977 21.327 21.327 21.207 21.327 22.077 23.737
1591.407 26.317 29.697 33.727 38.027 41.637 43.647 43.657 41.607 37.727 32.487
1610.697 27.037 22.097 18.267 15.457 13.437 12.227 11.317 10.637 10.237 9.897
1629.986 9.647 9.497 9.417 9.217 9.007 8.767 8.507 8.327 8.277 8.297
1649.276 8.367 8.547 8.917 9.407 10.117 10.857 11.567 12.457 13.457 14.567
1668.566 15.787 16.967 18.297 19.717 21.387 23.167 25.257 27.677 30.607 34.027
1687.856 38.067 43.147 49.377 56.737 66.187 77.527 89.517 103.177 115.217 126.137
1707.146 133.667 136.187 132.867 124.677 112.817 99.127 85.047 73.307 63.947 57.067
1726.435 52.197 48.837 46.737 45.827 45.817 46.687 48.807 52.497 57.867 65.667
1745.725 76.387 90.717 108.887 131.327 156.107 180.437 201.887 215.517 217.837 207.267
1765.015 185.367 156.737 126.547 100.137 77.657 60.707 48.457 39.497 33.007 28.127
1784.305 24.427 21.417 19.097 17.197 15.637 14.367 13.447 12.837 12.357 12.027
1803.594 12.027 12.027 12.037 12.077 12.017 11.817 11.467 10.897 10.247 9.537
1822.884 8.837 8.227 7.697 7.177 6.657 6.217 5.847 5.537 5.197 4.857
1842.174 4.587 4.387 4.267 4.167 4.057 3.957 3.837 3.687 3.607 3.587
1861.464 3.537 3.477 3.447 3.467 3.547 3.607 3.687 3.797 3.947 4.127
1880.754 4.217 4.277 4.397 4.477 4.607 4.777 4.897 5.037 5.217 5.467
1900.043 5.737 5.957 6.167 6.357 6.547 6.687 6.807 6.887 6.847 6.757
1919.333 6.667 6.417 6.087 5.777 5.437 5.157 4.917 4.717 4.597 4.587
1938.623 4.707 4.897 5.097 5.337 5.557 5.697 5.807 5.867 5.787 5.587
1957.913 5.337 5.087 4.857 4.587 4.357 4.167 3.967 3.747 3.567 3.367
1977.202 3.127 2.927 2.687 2.467 2.397 2.397 2.437 2.407 2.427 2.487
1996.492 2.437 2.417 2.457 2.537 2.597 2.657 2.737 2.807 2.907 3.077
2015.782 3.197 3.237 3.357 3.417 3.397 3.397 3.367 3.297 3.217 3.127
2035.072 2.997 2.867 2.747 2.627 2.527 2.417 2.277 2.227 2.157 2.097
2054.362 2.147 2.167 2.177 2.187 2.227 2.347 2.427 2.467 2.497 2.557
2073.651 2.577 2.537 2.467 2.387 2.417 2.467 2.477 2.347 2.297 2.377
2092.941 2.377 2.377 2.307 2.247 2.257 2.187 2.087 2.107 2.087 2.027
2112.231 1.987 1.887 1.807 1.707 1.657 1.627 1.627 1.637 1.557 1.487
2131.521 1.457 1.397 1.397 1.427 1.347 1.2894 1.2585 1.2194 1.1729 1.1274
2150.810 1.0954 1.0667 1.0603 1.0891 1.0739 1.0362 1.0321 1.0312 1.0272 0.9733
2170.100 0.9812 0.9753 0.9933 1.0325 1.0217 1.0351 1.0035 0.9833 1.0286 1.0461
2189.390 1.0323 1.0396 1.0479 1.0095 0.9413 0.9413 1.0005 1.0065 0.9323 0.8476
2208.680 0.8969 0.9755 0.9302 0.9051 0.9122 0.9422 0.9583 0.9987 0.9626 0.9499
2227.970 1.0271 1.043 1.022 1.0206 1.0282 1.023 1.0026 0.9727 1.0036 1.0602
2247.259 1.0822 1.1558 1.1873 1.1363 1.1796 1.1913 1.2304 1.297 1.317 1.347
2266.549 1.447 1.567 1.637 1.667 1.707 1.747 1.817 1.847 1.807 1.787
2285.839 1.777 1.767 1.737 1.687 1.697 1.787 1.857 1.807 1.837 1.947
2305.129 2.047 2.167 2.267 2.327 2.417 2.537 2.657 2.757 2.737 2.707
2324.418 2.577 2.347 2.217 2.047 1.927 1.877 1.827 1.817 1.737 1.667
2343.708 1.687 1.707 1.677 1.607 1.537 1.447 1.407 1.417 1.387 1.447
2362.998 1.507 1.487 1.437 1.457 1.527 1.577 1.667 1.687 1.747 1.787
2382.288 1.767 1.767 1.797 1.837 1.787 1.777 1.747 1.687 1.777 1.837
2401.578 1.907 1.897 1.757 1.667 1.647 1.627 1.537 1.507 1.497 1.417
2420.867 1.337 1.2905 1.2584 1.2453 1.2634 1.2544 1.1746 1.1906 1.1901 1.1592
2440.157 1.163 1.1461 1.1382 1.0668 0.9973 1.0178 0.9908 1.012 1.0365 0.9962
2459.447 1.0016 0.9723 0.9499 0.9728 1.0477 1.1345 1.137 1.0891 1.1262 1.1764
2478.737 1.1803 1.2082 1.2191 1.2833 1.337 1.2908 1.357 1.387 1.2297 1.2242
2498.026 1.2828 1.2622 1.2518 1.2102 1.1884 1.1874 1.1846 1.2123 1.1648 1.1327
2517.316 1.1088 1.0296 1.0711 1.1038 1.008 0.923 0.9465 1.0021 1.0149 1.0513
2536.606 1.0489 0.994 1.0084 1.0259 0.9609 0.9412 0.9898 1.0077 1.0062 1.0365
2555.896 1.0393 1.0264 1.0959 1.1254 1.1486 1.1052 1.0916 1.1648 1.1695 1.1548
2575.186 1.0913 1.0996 1.2109 1.247 1.1874 1.1991 1.1699 1.1178 1.1882 1.201
2594.475 1.2218 1.2497 1.2173 1.1313 1.1331 1.2068 1.1397 1.0463 0.9699 0.9253
2613.765 0.9085 0.9215 0.9727 0.9934 0.9586 0.9611 0.9703 0.9755 1.0464 1.0346
2633.055 0.9637 0.9852 0.9447 0.8822 0.883 0.8899 0.9506 1.0006 0.919 0.8299
2652.345 0.8861 0.8835 0.8182 0.8436 0.8271 0.7933 0.8019 0.7993 0.7902 0.7819
2671.634 0.7388 0.6827 0.6731 0.6712 0.7067 0.646 0.6778 0.7166 0.6378 0.6335
2690.924 0.635 0.7024 0.7605 0.7094 0.6652 0.6661 0.6402 0.6237 0.6443 0.6835
2710.214 0.7174 0.7026 0.6931 0.7014 0.6877 0.7074 0.759 0.7828 0.7277 0.7176
2729.504 0.7542 0.8034 0.849 0.833 0.8776 0.9289 0.8999 0.8868 0.9604 1.0044
2748.794 0.9536 0.95 0.9491 0.9287 0.8986 0.8934 0.9689 0.9227 0.8545 0.8574
2768.083 0.9109 0.9657 0.8987 0.8278 0.7857 0.8036 0.8623 0.8082 0.7951 0.8644
2787.373 0.7971 0.6752 0.6956 0.7304 0.742 0.7935 0.737 0.7635 0.8422 0.7193
2806.663 0.6899 0.7699 0.8434 0.9114 0.937 0.9502 0.9726 1.0607 1.1242 1.1707
2825.953 1.1467 1.1883 1.317 1.397 1.527 1.647 1.687 1.657 1.677 1.737
2845.242 1.787 1.827 1.927 1.927 1.867 1.867 1.877 1.947 2.007 1.957
2864.532 1.817 1.807 1.827 1.857 1.877 1.747 1.657 1.657 1.627 1.597
2883.822 1.667 1.727 1.657 1.657 1.667 1.617 1.627 1.567 1.567 1.667
2903.112 1.697 1.687 1.727 1.637 1.587 1.667 1.807 1.947 2.017 2.197
2922.401 2.287 2.367 2.567 2.757 3.007 3.297 3.447 3.517 3.537 3.467
2941.691 3.207 2.947 2.917 2.867 2.787 2.677 2.597 2.587 2.587 2.567
2960.981 2.497 2.607 2.757 2.847 2.937 3.077 3.267 3.487 3.587 3.697
2980.271 3.797 3.857 3.977 4.047 4.257 4.427 4.427 4.557 4.947 5.317
2999.561 5.657 6.047 6.527 7.057 7.397 7.837 8.217 8.427 8.547 8.447
3018.850 8.337 8.437 8.667 8.887 9.257 9.907 10.737 11.617 12.307 12.947
3038.140 13.647 14.127 14.487 14.667 14.587 14.457 14.277 14.287 14.657 15.197
3057.430 16.117 17.667 19.797 22.417 25.367 28.467 31.587 34.907 38.307 41.447
3076.720 43.637 44.207 42.997 39.867 35.097 29.747 24.857 20.747 17.717 15.857
3096.009 14.617 13.607 12.637 11.657 10.597 9.447 8.467 7.647 6.867 6.157
3115.299 5.367 4.607 4.077 3.587 3.207 2.987 2.727 2.527 2.537 2.427
3134.589 2.207 2.277 2.297 2.177 2.057 2.177 2.297 2.177 2.127 2.137
3153.879 1.987 2.037 2.117 1.997 1.867 1.817 1.877 1.777 1.727 1.727
3173.169 1.557 1.487 1.357 1.1721 1.0829 1.0441 1.0605 0.9799 0.9542 0.9803
3192.458 0.9284 0.76 0.7397 0.8265 0.9127 0.9175 0.7361 0.569 0.6317 0.8593
3211.748 0.7565 0.5365 0.5319 0.5266 0.5588 0.5499 0.5879 0.6107 0.5948 0.6265
3231.038 0.5856 0.5707 0.5848 0.6337 0.6198 0.5122 0.5463 0.5108 0.38361 0.4915
3250.328 0.5033 0.5281 0.6084 0.4792 0.442 0.5123 0.563 0.5012 0.4273 0.4195
3269.617 0.4806 0.5 0.31179 0.31885 0.35212 0.35353 0.36558 0.2548 0.31259 0.4027
3288.907 0.35801 0.33727 0.3987 0.36862 0.2668 0.2577 0.2494 0.2899 0.2845 0.31972
3308.197 0.4579 0.4183 0.35905 0.4773 0.461 0.306022 0.2258 0.2125 0.36443 0.4907
3327.487 0.415 0.4725 0.5806 0.44 0.4175 0.4413 0.32063 0.492 0.7801 0.7295
3346.777 0.7137 0.7821 0.7819 0.8388 0.993 1.0505 1.0208 1.0183 1.0765 1.1903
3366.066 1.1382 1.232 1.387 1.417 1.327 1.235 1.427 1.617 1.687 1.677
3385.356 1.877 2.067 2.107 2.177 2.187 2.227 2.127 2.137 2.117 1.977
3404.646 1.897 1.847 1.937 1.857 1.687 1.397 1.2293 1.2402 1.1068 1.0979
3423.936 1.0875 0.9771 0.8747 0.9075 0.8623 0.6781 0.6498 0.6121 0.5503 0.5451
3443.225 0.5266 0.5125 0.6278 0.6253 0.6311 0.723 0.6307 0.6345 0.6494 0.547
3462.515 0.6401 0.7628 0.8315 0.8467 0.7317 0.7167 0.8926 0.9389 0.8403 0.9341
3481.805 1.0931 1.1131 1.0709 1.1639 1.2521 1.2369 1.547 1.907 1.977 1.827
3501.095 1.807 1.877 1.687 1.577 1.647 1.647 1.377 1.1923 1.1574 1.0297
3520.385 1.0051 0.8759 0.8184 0.8973 0.7877 0.7691 0.7337 0.5966 0.5172 0.7019
3539.674 0.7753 0.5115 0.4257 0.4086 0.3712 0.4093 0.4105 0.30703 0.2552 0.2838
3558.964 0.41 0.5228 0.4669 0.37075 0.2247 0.2623 0.37343 0.28943 0.296545 0.37347
3578.254 0.35506 0.36426 0.4017 0.38113 0.2729 0.33532 0.4552 0.4095 0.35634 0.32203
3597.544 0.304998 0.36038 0.39257 0.33582 0.099 0 0.183 0.34639 0.34881 0.2664
3616.833 0.2736 0.300552 0.36856 0.449 0.39683 0.188 0.109 0.2493 0.4122 0.4183
3636.123 0.4084 0.38244 0.2589 0.35232 0.4652 0.306 0.2251 0.37718 0.3378 0.158
3655.413 0.2356 0.4651 0.4877 0.4635 0.4093 0.3981 0.4267 0.4482 0.5188 0.5026
3674.703 0.4896 0.4044 0.34189 0.36323 0.4403 0.4518 0.34061 0.4146 0.4571 0.36967
3693.993 0.36603 0.4746 0.4123 0.30877 0.36332 0.4978 0.5438 0.4424 0.412 0.4058
3713.282 0.4294 0.36538 0.2762 0.2604 0.2463 0.259 0.2532 0.2722 0.4037 0.4167
3732.572 0.30998 0.2485 0.2701 0.36987 0.472 0.36258 0.132 0.2617 0.4472 0.30829
3751.862 0.268 0.39602 0.4205 0.4612 0.4606 0.4623 0.5652 0.5823 0.5274 0.4263
3771.152 0.2779 0.2122 0.39358 0.4321 0.38597 0.4226 0.221 0.2714 0.39464 0.306064
3790.441 0.2492 0.3507 0.4794 0.4554 0.5299 0.574 0.5154 0.5176 0.5006 0.4671
3809.731 0.4505 0.4401 0.4324 0.31521 0.35658 0.39118 0.34787 0.4715 0.5016 0.4212
3829.021 0.34718 0.34062 0.303935 0.2544 0.2716 0.246 0.2626 0.2847 0.36314 0.4587
3848.311 0.4051 0.35882 0.2867 0.32639 0.33813 0.2501 0.4075 0.39032 0.36408 0.4053
3867.601 0.34728 0.4075 0.5244 0.5083 0.34007 0.2486 0.2239 0.35695 0.4778 0.4597
3886.890 0.46 0.491 0.4842 0.4483 0.5858 0.6554 0.5715 0.6351 0.5915 0.4955
3906.180 0.4906 0.4584 0.606 0.6856 0.5617 0.5128 0.497 0.6039 0.5554 0.38207
3925.470 0.3977 0.5797 0.6105 0.31102 0.2268 0.299119 0.38155 0.4746 0.4109 0.31079
3944.760 0.33804 0.4382 0.495 0.5474 0.4488 0.36243 0.297033 0.2701 0.192 0.132
3964.049 0.2102 0.303458 0.3993 0.4659 0.4485 0.33859 0.3395 0.32752 0.31048 0.36314
3983.339 0.4927 0.4043 0.4573 0.6284 0.4079 0.33819 0.492 0.6615 0.5455 0.35189
##END=
