##TITLE=N,N'-Diisopropylethyelendiamine
##JCAMP-DX=4.24
##DATA TYPE=INFRARED SPECTRUM
##ORIGIN=EPA-IR VAPOR PHASE LIBRARY
##OWNER=SRD/NIST
Collection (C) 2018 copyright by the U.S. Secretary of Commerce
on behalf of the United States of America. All rights reserved.
##CAS REGISTRY NO=4013-94-9
##MOLFORM=C 8 H 20 N 2
##$NIST SOURCE=MSDC-IR
##STATE=gas
##XUNITS=1/CM
##YUNITS=ABSORBANCE
##XFACTOR=1.
##YFACTOR=0.001
##DELTAX=1.92898
##FIRSTX=549.8
##LASTX=4000.7
##FIRSTY=5.027
##MAXX=4000.7
##MINX=549.759
##MAXY=0.214887
##MINY=0
##NPOINTS=1790
##XYDATA=(X++(Y..Y))
549.759 5.027 5.097 5.507 5.457 5.457 5.277 5.217 5.387 5.317 5.537
569.049 5.847 5.607 5.507 5.547 5.487 5.337 5.527 5.827 5.697 5.847
588.339 5.927 5.987 6.237 6.377 6.497 6.657 6.817 7.027 7.097 7.347
607.628 7.637 7.747 8.027 8.247 8.367 8.667 8.947 9.107 9.487 10.047
626.918 10.557 10.847 11.207 11.657 12.037 12.717 13.207 13.707 14.047 14.447
646.208 15.287 15.837 16.327 16.837 17.347 17.857 18.427 19.087 19.767 20.457
665.498 21.077 21.587 22.207 22.817 23.107 23.567 24.177 24.527 24.877 25.477
684.787 25.927 26.117 26.247 26.227 26.277 26.387 26.567 26.717 26.757 26.867
704.077 26.937 26.697 26.417 26.217 25.917 25.577 25.237 24.817 24.347 23.947
723.367 23.567 23.107 22.487 21.867 21.357 20.777 20.127 19.557 18.817 18.227
742.657 17.657 17.037 16.387 15.617 14.967 14.427 13.927 13.267 12.657 12.127
761.947 11.667 11.067 10.287 9.697 9.237 8.897 8.487 8.007 7.717 7.307
781.236 6.957 6.857 6.507 6.037 5.957 5.997 5.747 5.597 5.397 5.167
800.526 5.117 5.107 5.017 4.837 4.837 4.927 5.127 5.337 5.497 5.667
819.816 5.787 6.027 6.177 6.067 6.287 6.497 6.617 6.767 6.527 6.387
839.106 6.377 6.297 6.197 5.967 5.687 5.497 5.307 5.107 5.027 4.947
858.395 4.867 4.837 4.897 4.857 4.737 4.707 4.737 4.787 4.647 4.717
877.685 5.117 5.257 5.247 5.247 5.277 5.357 5.397 5.327 5.307 5.397
896.975 5.387 5.327 5.267 5.037 4.857 4.967 5.067 5.087 4.917 4.777
916.265 4.817 4.867 4.977 4.977 4.857 4.817 4.877 4.987 4.897 4.867
935.555 4.857 4.757 4.727 4.877 5.007 4.887 4.787 4.817 4.897 4.897
954.844 4.927 4.937 4.867 4.847 4.817 4.917 5.047 5.077 5.297 5.507
974.134 5.657 5.797 5.787 5.777 5.897 5.937 6.007 5.957 5.787 5.677
993.424 5.397 5.177 4.937 4.627 4.357 4.017 3.797 3.797 3.667 3.557
1012.714 3.737 3.707 3.657 3.847 4.077 4.067 3.977 4.037 4.167 4.557
1032.003 4.827 5.077 5.427 5.577 6.127 6.747 7.177 7.377 7.777 8.447
1051.293 8.767 9.227 9.807 10.517 11.227 11.997 12.977 13.997 15.227 16.767
1070.583 18.217 19.827 22.067 24.247 26.307 27.787 28.917 29.907 30.527 31.067
1089.873 31.087 30.677 29.897 29.547 29.537 29.457 29.477 29.917 30.417 30.937
1109.163 31.387 31.997 33.137 33.567 33.687 34.067 34.247 34.107 33.947 33.827
1128.452 33.167 32.167 31.487 30.837 30.297 29.947 29.487 29.727 30.267 30.967
1147.742 32.297 33.877 36.257 39.347 43.107 47.367 52.107 57.597 63.137 68.147
1167.032 72.157 74.917 76.347 76.087 74.067 70.487 65.727 60.197 54.277 48.547
1186.322 43.167 38.157 33.667 29.617 25.787 22.597 20.507 18.597 16.727 15.257
1205.611 14.147 13.257 12.497 12.157 11.657 11.057 10.807 11.027 11.287 11.417
1224.901 11.607 11.697 11.767 11.967 12.067 11.927 11.967 11.847 11.687 11.397
1244.191 11.117 11.087 11.157 11.097 10.787 10.577 10.807 10.867 10.687 10.657
1263.481 10.477 10.317 10.167 10.167 10.087 9.987 10.067 10.187 10.297 10.607
1282.771 10.897 11.207 11.597 11.937 12.417 12.867 13.317 13.837 14.347 14.947
1302.060 15.757 16.717 17.897 19.447 21.267 23.297 25.597 28.137 30.617 32.877
1321.350 34.977 36.907 38.587 39.857 40.787 41.487 41.897 41.917 41.477 40.687
1340.640 39.487 37.907 36.257 34.737 33.497 32.697 32.497 32.877 33.727 35.027
1359.930 36.497 37.977 39.487 41.027 42.697 44.627 47.037 50.227 53.967 57.247
1379.219 58.917 58.617 56.737 53.957 50.247 44.817 37.927 31.157 25.657 21.587
1398.509 18.707 16.617 15.057 13.997 13.297 12.837 12.647 12.647 12.817 13.167
1417.799 13.697 14.457 15.407 16.577 18.027 19.817 21.967 24.407 27.067 29.757
1437.089 32.397 34.877 37.057 38.887 40.347 41.357 42.037 42.587 43.137 43.817
1456.378 44.907 46.357 48.067 50.037 51.957 53.617 54.677 54.967 54.327 52.637
1475.668 49.887 46.157 41.777 36.977 32.187 27.687 23.687 20.277 17.477 15.247
1494.958 13.437 11.917 10.667 9.637 8.777 8.097 7.437 6.807 6.327 5.887
1514.248 5.487 5.127 4.847 4.577 4.197 3.907 3.727 3.557 3.407 3.257
1533.538 3.107 2.937 2.807 2.727 2.627 2.497 2.377 2.297 2.297 2.227
1552.827 2.147 2.117 2.097 2.077 2.047 1.987 1.927 1.937 1.917 1.877
1572.117 1.887 1.947 1.947 1.857 1.787 1.857 1.927 1.947 1.917 1.857
1591.407 1.877 1.867 1.817 1.847 1.857 1.847 1.847 1.857 1.857 1.847
1610.697 1.827 1.767 1.767 1.777 1.777 1.787 1.777 1.797 1.767 1.737
1629.986 1.757 1.727 1.697 1.727 1.727 1.737 1.817 1.817 1.747 1.767
1649.276 1.767 1.747 1.777 1.747 1.757 1.797 1.787 1.787 1.757 1.737
1668.566 1.777 1.777 1.747 1.767 1.767 1.677 1.677 1.727 1.697 1.617
1687.856 1.627 1.677 1.627 1.607 1.667 1.667 1.647 1.657 1.627 1.627
1707.146 1.677 1.647 1.597 1.627 1.597 1.517 1.497 1.497 1.507 1.487
1726.435 1.487 1.477 1.447 1.447 1.457 1.447 1.447 1.457 1.447 1.437
1745.725 1.437 1.437 1.427 1.437 1.427 1.397 1.437 1.437 1.427 1.397
1765.015 1.367 1.397 1.427 1.447 1.377 1.377 1.407 1.357 1.357 1.367
1784.305 1.447 1.447 1.447 1.467 1.437 1.407 1.357 1.377 1.397 1.417
1803.594 1.427 1.427 1.467 1.487 1.467 1.437 1.407 1.377 1.377 1.377
1822.884 1.357 1.367 1.377 1.407 1.427 1.397 1.387 1.387 1.417 1.437
1842.174 1.437 1.457 1.417 1.407 1.447 1.437 1.427 1.397 1.387 1.357
1861.464 1.307 1.307 1.317 1.307 1.287 1.287 1.297 1.297 1.267 1.267
1880.754 1.267 1.217 1.207 1.207 1.227 1.207 1.104 1.1104 1.1115 1.0892
1900.043 1.1021 1.0813 1.0604 1.0082 0.9613 0.9462 0.9222 0.9237 0.8994 0.9027
1919.333 0.8772 0.824 0.8424 0.845 0.8702 0.8789 0.8195 0.7802 0.7843 0.7838
1938.623 0.7445 0.7418 0.7455 0.692 0.671 0.7126 0.7749 0.7551 0.7446 0.7603
1957.913 0.7424 0.7089 0.7272 0.7745 0.7384 0.721 0.7335 0.6628 0.6158 0.6889
1977.202 0.7468 0.7904 0.7737 0.7407 0.7417 0.7378 0.7497 0.7503 0.72 0.7199
1996.492 0.7493 0.7206 0.725 0.776 0.7212 0.6555 0.679 0.6864 0.6673 0.6741
2015.782 0.6392 0.6365 0.6774 0.6736 0.6981 0.705 0.6975 0.7088 0.6977 0.694
2035.072 0.678 0.662 0.6886 0.6947 0.721 0.7264 0.6581 0.6267 0.6523 0.7084
2054.362 0.6847 0.6472 0.6441 0.6299 0.6673 0.6565 0.6423 0.6247 0.6235 0.6488
2073.651 0.6447 0.5735 0.5173 0.5666 0.5323 0.4964 0.5101 0.5124 0.5271 0.5513
2092.941 0.5396 0.5453 0.5792 0.5538 0.5711 0.5929 0.576 0.58 0.5815 0.5507
2112.231 0.5613 0.5814 0.5741 0.5998 0.5926 0.5481 0.5896 0.6299 0.6295 0.6372
2131.521 0.6001 0.5874 0.5962 0.6311 0.6505 0.5804 0.5857 0.6079 0.6303 0.7133
2150.810 0.6918 0.6776 0.7059 0.6918 0.6752 0.6405 0.661 0.7292 0.7341 0.7286
2170.100 0.7474 0.776 0.7745 0.7377 0.7438 0.7736 0.8623 0.8799 0.8005 0.7476
2189.390 0.7363 0.7803 0.7862 0.794 0.79 0.7786 0.8552 0.9043 0.8612 0.812
2208.680 0.8512 0.8609 0.8069 0.8496 0.8157 0.7248 0.7344 0.7539 0.7175 0.715
2227.970 0.7601 0.7908 0.7765 0.7589 0.789 0.818 0.7747 0.7244 0.7617 0.8039
2247.259 0.8273 0.8245 0.7747 0.7736 0.8146 0.8087 0.8061 0.7664 0.7586 0.8188
2266.549 0.8013 0.7972 0.8239 0.7947 0.7805 0.7785 0.8045 0.8534 0.834 0.8295
2285.839 0.8328 0.8194 0.8297 0.814 0.8037 0.8363 0.8452 0.8445 0.8642 0.8725
2305.129 0.8647 0.87 0.8538 0.8117 0.7935 0.792 0.7797 0.8094 0.8413 0.8196
2324.418 0.7755 0.7795 0.786 0.7894 0.8058 0.7616 0.8067 0.841 0.7938 0.7841
2343.708 0.7721 0.7345 0.7293 0.7621 0.7523 0.74 0.7959 0.7726 0.7764 0.8464
2362.998 0.8092 0.776 0.8106 0.8112 0.8333 0.8809 0.8428 0.8088 0.8333 0.8965
2382.288 0.9057 0.8697 0.858 0.8205 0.8292 0.8915 0.8571 0.8262 0.7799 0.7401
2401.578 0.7929 0.8269 0.8513 0.8442 0.8044 0.7791 0.836 0.8405 0.8242 0.8872
2420.867 0.9048 0.8723 0.8906 0.8673 0.8053 0.8055 0.8138 0.8278 0.8865 0.9005
2440.157 0.8606 0.9446 0.9327 0.8597 0.8679 0.8643 0.9194 0.9629 0.9995 1.0355
2459.447 1.0475 1.08 1.0473 0.9761 0.9539 0.9767 1.0931 1.137 1.0624 1.0335
2478.737 1.1251 1.227 1.157 1.0703 1.137 1.247 1.247 1.227 1.287 1.327
2498.026 1.297 1.317 1.377 1.357 1.277 1.327 1.397 1.417 1.487 1.507
2517.316 1.557 1.577 1.507 1.517 1.537 1.567 1.597 1.597 1.667 1.717
2536.606 1.727 1.717 1.757 1.917 1.957 1.947 1.967 2.017 2.177 2.207
2555.896 2.127 2.287 2.357 2.397 2.567 2.637 2.737 2.907 2.957 3.057
2575.186 3.287 3.467 3.627 3.787 4.007 4.167 4.257 4.537 4.787 4.927
2594.475 5.177 5.397 5.647 5.917 6.147 6.417 6.667 6.827 7.007 7.227
2613.765 7.357 7.467 7.627 7.647 7.487 7.467 7.517 7.257 7.047 6.957
2633.055 6.717 6.477 6.337 6.197 6.087 6.077 6.007 5.957 5.967 5.977
2652.345 6.017 5.977 5.947 6.017 6.107 6.177 6.307 6.437 6.497 6.517
2671.634 6.597 6.777 6.877 6.997 7.127 7.217 7.257 7.367 7.437 7.487
2690.924 7.677 7.837 8.007 8.197 8.257 8.327 8.557 8.757 8.907 9.057
2710.214 9.117 9.257 9.487 9.637 9.757 9.807 9.947 10.117 10.247 10.327
2729.504 10.367 10.447 10.537 10.677 10.857 11.037 11.137 11.317 11.617 11.867
2748.794 12.157 12.587 13.037 13.527 14.107 14.627 15.277 16.147 17.077 18.167
2768.083 19.297 20.407 21.667 23.027 24.507 26.067 27.607 29.137 30.677 32.207
2787.373 33.607 35.107 36.607 38.047 39.557 40.897 42.297 43.727 45.127 46.667
2806.663 48.307 49.957 51.557 53.217 55.017 56.857 58.687 60.487 62.097 63.517
2825.953 64.887 66.037 66.907 67.567 67.847 67.687 67.187 66.447 65.437 64.257
2845.242 62.947 61.457 60.027 58.697 57.417 56.447 55.877 55.507 55.577 56.217
2864.532 57.257 58.747 60.577 62.567 64.487 66.427 68.217 69.757 70.897 71.707
2883.822 72.447 72.927 73.327 73.887 74.437 75.127 76.067 76.947 77.897 78.917
2903.112 79.757 80.557 81.417 82.317 83.017 83.727 84.677 85.867 87.267 88.937
2922.401 90.947 93.077 95.247 97.607 99.987 102.197 104.297 105.827 107.017 107.997
2941.691 108.547 108.927 109.577 111.087 113.677 117.867 124.067 132.487 143.297 155.877
2960.981 169.507 183.287 196.147 206.717 213.427 214.887 210.797 201.607 187.797 170.557
2980.271 150.877 130.007 109.847 91.667 75.837 62.647 52.197 43.927 37.387 32.277
2999.561 28.097 24.687 22.047 19.827 17.817 16.047 14.567 13.237 11.987 10.947
3018.850 10.007 9.217 8.557 7.867 7.257 6.687 6.277 5.947 5.557 5.417
3038.140 5.287 5.047 5.027 4.947 4.727 4.557 4.447 4.407 4.297 4.197
3057.430 4.177 4.167 4.217 4.157 4.097 4.197 4.137 4.047 4.107 4.117
3076.720 4.147 4.157 4.087 4.037 3.967 3.927 3.867 3.757 3.707 3.817
3096.009 3.897 3.907 3.937 3.827 3.727 3.687 3.677 3.677 3.527 3.377
3115.299 3.307 3.297 3.227 3.137 2.987 2.957 3.037 3.037 3.017 3.027
3134.589 2.967 2.887 2.897 2.847 2.887 2.977 3.007 2.987 2.887 2.887
3153.879 2.867 2.907 2.957 2.867 2.937 2.947 2.997 3.117 3.067 3.107
3173.169 3.197 3.177 3.077 3.007 3.067 3.067 2.947 2.807 2.857 2.867
3192.458 2.787 2.857 2.807 2.727 2.697 2.547 2.407 2.407 2.397 2.237
3211.748 2.197 2.217 2.087 2.047 2.007 1.797 1.647 1.607 1.567 1.517
3231.038 1.497 1.407 1.387 1.337 1.217 1.0795 0.9959 1.0614 1.167 1.197
3250.328 1.0761 0.879 0.8715 0.9528 0.842 0.809 0.909 0.9793 0.86 0.7797
3269.617 0.8824 0.9487 1.0049 0.8942 0.7035 0.8164 0.9007 0.986 1.1176 1.0166
3288.907 1.0516 1.1204 1.1006 1.0982 1.0688 1.177 1.217 1.297 1.417 1.427
3308.197 1.507 1.547 1.517 1.517 1.957 2.297 2.527 2.787 2.837 3.067
3327.487 3.407 3.627 3.747 4.047 4.177 4.077 3.987 3.867 3.597 3.307
3346.777 3.127 2.937 2.667 2.377 2.267 2.097 1.957 1.987 1.897 1.837
3366.066 1.797 1.677 1.717 1.607 1.297 1.207 1.297 1.297 1.267 1.297
3385.356 1.307 1.247 1.177 1.157 0.9909 0.9866 1.098 1.0882 1.0005 0.9643
3404.646 0.9682 0.89 0.9382 0.868 0.842 0.8183 0.8486 0.9031 0.7989 0.7313
3423.936 0.727 0.7284 0.6014 0.5575 0.5806 0.5765 0.6632 0.7111 0.7183 0.7281
3443.225 0.7685 0.8054 0.7461 0.7112 0.6388 0.6747 0.6852 0.6119 0.6547 0.7855
3462.515 0.729 0.6424 0.7044 0.6117 0.5745 0.6009 0.5703 0.4768 0.5196 0.6445
3481.805 0.5603 0.5324 0.5684 0.5231 0.575 0.5241 0.3699 0.4452 0.587 0.666
3501.095 0.5801 0.4922 0.4762 0.4599 0.4642 0.3846 0.3233 0.4382 0.5804 0.6368
3520.385 0.4266 0.17764 0.18436 0.2543 0.3367 0.4013 0.4113 0.4393 0.5038 0.4915
3539.674 0.4336 0.3749 0.4022 0.4144 0.4482 0.4288 0.37 0.4047 0.3676 0.3463
3558.964 0.3828 0.3431 0.2591 0.22535 0.20552 0.1939 0.2709 0.341 0.3198 0.298
3578.254 0.2891 0.3363 0.2966 0.21664 0.2988 0.2571 0.22128 0.2283 0.2401 0.22633
3597.544 0.0499 0.0512 0.0956 0.1102 0.0724 0 0.14633 0.19544 0.0827 0.0827
3616.833 0.18226 0.4017 0.4118 0.268 0.16202 0.0627 0.20633 0.22271 0.17011 0.135219
3636.123 0.0531 0.133688 0.14349 0.22548 0.15627 0.13913 0.338 0.2997 0.15861 0.18028
3655.413 0.20415 0.18805 0.17312 0.13763 0.21561 0.21817 0.20157 0.2583 0.2919 0.3251
3674.703 0.2832 0.3387 0.4319 0.2794 0.12176 0.0994 0.089 0.0874 0.1041 0.1039
3693.993 0.17702 0.2277 0.18436 0.15646 0.18182 0.0958 0.127769 0.303 0.17645 0.1034
3713.282 0.2653 0.3112 0.3055 0.3175 0.3148 0.3603 0.3381 0.22453 0.2539 0.3539
3732.572 0.3945 0.46 0.3998 0.414 0.4244 0.3888 0.4138 0.3391 0.2522 0.3012
3751.862 0.3755 0.3444 0.2615 0.18408 0.2766 0.3497 0.3382 0.2859 0.3334 0.4165
3771.152 0.3774 0.3451 0.2361 0.2701 0.3915 0.3558 0.3598 0.4502 0.4839 0.3705
3790.441 0.2683 0.2571 0.3215 0.4853 0.5556 0.3818 0.3534 0.4531 0.4923 0.5319
3809.731 0.5697 0.5594 0.4603 0.4356 0.5478 0.5853 0.5537 0.5005 0.4751 0.4941
3829.021 0.446 0.5022 0.5676 0.5534 0.562 0.5617 0.4642 0.4658 0.5048 0.5652
3848.311 0.7193 0.6372 0.3945 0.3686 0.4582 0.4647 0.4478 0.3776 0.21424 0.2788
3867.601 0.3651 0.5625 0.8191 0.7679 0.7832 0.7994 0.7465 0.6653 0.6801 0.6558
3886.890 0.635 0.7416 0.7399 0.6062 0.6302 0.8143 0.7508 0.5902 0.5355 0.6896
3906.180 0.9197 0.7865 0.6418 0.6457 0.6164 0.5647 0.4201 0.3112 0.2695 0.351
3925.470 0.5815 0.6691 0.7033 0.7124 0.6092 0.583 0.5224 0.4198 0.3835 0.5307
3944.760 0.7569 0.8745 0.7783 0.6386 0.6815 0.7101 0.8149 0.7334 0.4741 0.4734
3964.049 0.5323 0.537 0.5576 0.5657 0.5105 0.4769 0.5356 0.6498 0.6851 0.6309
3983.339 0.5962 0.6365 0.775 0.7503 0.6646 0.7149 0.7927 1.0035 1.0508 0.9469
##END=
