##TITLE=4-Bromo-3-fluorobenzotrifluoride
##JCAMP-DX=4.24
##DATA TYPE=INFRARED SPECTRUM
##ORIGIN=EPA-IR VAPOR PHASE LIBRARY
##OWNER=SRD/NIST
Collection (C) 2018 copyright by the U.S. Secretary of Commerce
on behalf of the United States of America. All rights reserved.
##CAS REGISTRY NO=40161-54-4
##MOLFORM=C 7 H 3 Br F 4
##$NIST SOURCE=MSDC-IR
##STATE=gas
##XUNITS=1/CM
##YUNITS=ABSORBANCE
##XFACTOR=1.
##YFACTOR=0.001
##DELTAX=1.92898
##FIRSTX=549.8
##LASTX=4000.7
##FIRSTY=16.268
##MAXX=4000.7
##MINX=549.759
##MAXY=0.450848
##MINY=0
##NPOINTS=1790
##XYDATA=(X++(Y..Y))
549.759 16.268 15.778 14.318 13.248 10.788 7.628 5.928 4.838 3.528 3.018
569.049 2.618 2.088 2.548 1.878 1.1843 1.578 1.998 2.458 2.818 2.998
588.339 3.618 4.908 5.318 5.518 5.088 4.438 3.788 2.898 2.628 2.008
607.628 1.768 1.748 1.478 1.2267 1.518 1.788 2.098 2.538 2.388 2.378
626.918 1.998 1.768 2.138 2.748 3.658 4.288 5.698 7.458 7.508 7.948
646.208 9.558 10.578 10.428 9.068 7.418 6.628 6.308 5.508 5.088 4.128
665.498 3.198 2.808 2.898 3.318 2.778 2.058 2.298 2.558 2.258 2.208
684.787 2.038 1.888 2.198 2.598 2.808 3.158 4.128 4.708 5.098 5.348
704.077 5.508 6.218 6.758 6.968 6.798 6.048 5.408 5.028 4.458 3.918
723.367 3.388 3.108 2.818 2.828 3.548 4.878 7.078 12.248 21.948 34.768
742.657 44.078 45.608 45.508 46.038 38.798 23.868 12.358 7.018 4.858 3.978
761.947 3.768 3.548 2.598 2.478 2.758 2.868 2.908 2.668 2.428 2.458
781.236 2.258 1.658 1.668 1.698 1.808 2.548 3.098 3.328 3.498 4.438
800.526 6.428 8.418 10.348 12.958 16.348 19.848 22.538 25.138 27.878 30.588
819.816 33.638 33.748 28.918 24.948 22.978 20.708 16.938 12.628 10.148 8.268
839.106 6.258 4.898 4.558 4.258 3.618 3.028 2.908 3.258 3.588 3.888
858.395 4.788 6.428 7.888 9.548 12.398 15.638 19.678 24.538 28.938 32.478
877.685 36.288 41.118 46.478 47.418 42.008 38.908 38.598 37.598 36.408 35.678
896.975 36.328 38.208 41.898 46.878 52.548 58.618 63.748 65.588 63.308 59.148
916.265 53.078 43.268 31.998 23.218 18.258 15.478 12.688 10.788 9.938 8.678
935.555 7.288 6.208 5.688 5.228 4.478 4.098 3.888 3.678 3.658 3.178
954.844 2.928 3.188 3.218 3.218 3.128 3.328 3.918 4.338 4.068 3.448
974.134 3.088 2.898 3.098 3.118 3.638 3.508 2.648 2.838 2.818 2.458
993.424 2.288 2.558 2.668 2.468 2.068 2.668 3.018 2.188 2.128 2.478
1012.714 2.908 3.458 3.908 4.408 5.418 6.138 6.238 6.508 7.358 9.118
1032.003 12.178 15.138 18.108 22.108 25.058 26.208 26.048 24.308 22.668 19.968
1051.293 17.138 16.348 17.978 22.298 28.178 37.498 53.328 75.738 103.118 129.738
1070.583 148.308 159.978 164.718 157.508 135.838 108.348 84.778 66.248 53.008 43.588
1089.873 36.768 32.538 30.408 29.918 30.698 30.908 29.858 30.488 30.898 29.728
1109.163 28.568 25.868 23.988 24.698 25.838 28.028 30.998 35.398 41.088 50.138
1128.452 62.988 79.268 98.188 118.478 141.828 167.308 194.238 220.378 245.868 269.638
1147.742 289.848 308.798 327.028 339.198 338.548 322.888 296.898 270.198 245.788 223.148
1167.032 209.158 209.028 222.468 243.028 263.538 274.198 267.018 246.838 219.198 190.818
1186.322 165.728 139.168 111.328 89.588 73.978 61.108 50.538 43.368 38.748 35.608
1205.611 33.198 32.508 34.588 37.398 44.808 57.268 70.778 87.458 104.008 113.358
1224.901 113.958 107.518 96.048 77.888 56.718 40.238 31.368 28.288 29.028 33.588
1244.191 40.558 45.558 45.288 43.198 41.468 37.918 31.068 24.978 22.048 21.748
1263.481 23.178 24.248 24.218 24.378 24.678 24.768 24.708 23.938 23.508 23.618
1282.771 23.758 24.298 24.588 24.858 25.018 24.678 24.198 23.468 23.178 23.618
1302.060 24.978 27.428 31.298 37.198 46.498 60.758 81.048 109.708 148.958 198.918
1321.350 257.688 320.628 379.268 424.788 450.778 450.848 420.858 364.748 295.908 225.768
1340.640 159.378 105.878 70.208 49.198 36.988 29.718 25.738 23.738 22.658 22.398
1359.930 21.958 20.868 19.768 18.318 16.468 14.608 12.968 11.968 11.448 11.328
1379.219 11.658 12.288 12.978 14.118 15.688 17.508 19.968 23.108 26.768 30.558
1398.509 34.058 37.568 41.498 46.378 52.028 58.598 67.068 77.748 90.358 105.368
1417.799 121.048 136.558 146.988 150.838 148.718 141.568 127.808 107.548 84.738 65.398
1437.089 50.138 39.208 31.278 25.508 21.308 18.338 16.398 15.408 14.948 14.788
1456.378 14.998 15.228 15.338 15.488 15.798 16.278 16.548 16.918 18.078 19.928
1475.668 21.928 24.348 27.418 31.178 35.408 39.748 43.098 44.318 43.598 41.868
1494.958 39.018 34.368 27.918 21.538 16.868 13.278 10.338 8.478 7.028 5.838
1514.248 4.848 4.178 3.888 3.678 3.578 3.598 3.788 3.908 4.018 4.148
1533.538 4.278 4.308 4.048 3.508 3.548 4.058 4.428 4.828 5.148 5.518
1552.827 5.818 6.278 6.628 7.398 8.698 9.658 10.688 11.928 13.308 14.598
1572.117 16.298 17.858 19.148 20.158 20.708 21.018 20.938 20.628 20.278 19.658
1591.407 19.028 18.888 18.808 18.688 19.538 21.128 22.428 23.298 23.608 23.418
1610.697 22.248 20.128 17.808 14.398 11.528 10.288 8.998 8.348 8.188 7.858
1629.986 7.828 7.768 7.518 7.258 7.078 6.648 5.998 5.768 5.408 4.798
1649.276 4.338 3.518 3.198 3.388 3.268 3.198 3.158 3.208 2.958 2.818
1668.566 2.558 2.328 2.418 2.308 2.458 2.438 2.388 2.388 2.008 1.908
1687.856 2.158 2.238 2.048 1.818 1.808 2.068 1.948 1.818 1.928 1.938
1707.146 2.048 2.188 2.318 2.408 2.258 2.028 2.118 2.088 2.008 1.938
1726.435 1.748 1.838 1.958 2.018 2.258 2.458 2.618 2.718 2.768 3.058
1745.725 3.498 3.998 4.688 5.168 5.548 6.178 6.978 7.458 7.678 7.698
1765.015 7.468 7.098 6.378 5.558 4.698 3.988 3.338 2.928 2.668 2.338
1784.305 2.168 2.068 1.998 2.058 2.098 2.028 1.878 1.918 1.888 1.708
1803.594 1.678 1.758 1.828 1.848 1.908 1.808 1.858 1.958 1.968 2.088
1822.884 2.068 1.988 2.078 2.068 1.988 2.108 2.178 2.098 2.148 2.028
1842.174 1.928 1.758 1.588 1.708 1.788 1.708 1.588 1.568 1.568 1.558
1861.464 1.478 1.3083 1.2422 1.398 1.478 1.478 1.578 1.848 1.968 2.008
1880.754 2.238 2.578 2.848 3.048 3.328 3.778 4.168 4.198 4.148 4.068
1900.043 3.898 3.668 3.518 3.448 3.018 2.648 2.538 2.338 2.078 2.038
1919.333 2.188 2.248 2.088 1.928 1.908 1.708 1.558 1.608 1.548 1.348
1938.623 1.408 1.498 1.358 1.2955 1.388 1.378 1.2204 1.1844 1.1526 1.2381
1957.913 1.2066 1.1258 1.2995 1.2893 1.2312 1.2747 1.2807 1.2326 1.398 1.408
1977.202 1.1999 1.1106 1.0858 1.1051 1.0598 1.0816 0.9901 1.032 1.168 1.1779
1996.492 1.328 1.2424 1.0875 1.2202 1.2723 1.2187 1.2253 1.1041 1.0129 1.1177
2015.782 1.1629 1.1519 1.1747 1.2052 1.2362 1.1318 1.0236 1.1452 1.2573 1.247
2035.072 1.1818 1.1272 1.1238 1.141 1.255 1.289 1.2506 1.2831 1.2223 1.1645
2054.362 1.348 1.528 1.648 1.598 1.548 1.708 1.848 1.968 2.088 2.198
2073.651 2.258 2.308 2.308 2.128 2.008 1.878 1.748 1.728 1.728 1.608
2092.941 1.3172 1.2282 1.2693 1.388 1.448 1.378 1.2049 1.1132 1.1751 1.2353
2112.231 1.2267 1.458 1.608 1.588 1.678 1.688 1.828 1.838 1.898 2.008
2131.521 2.068 1.978 2.028 2.108 1.928 1.908 1.808 1.328 1.2285 1.448
2150.810 1.418 1.2487 1.1406 1.2067 1.378 1.3161 1.087 1.1228 1.1644 1.458
2170.100 1.538 1.338 1.408 1.398 1.2058 1.1735 1.306 1.2756 1.2808 1.2736
2189.390 1.0935 1.1121 1.2134 1.234 1.3049 1.418 1.408 1.318 1.488 1.568
2208.680 1.638 1.758 1.638 1.648 1.568 1.698 2.038 1.948 1.588 1.658
2227.970 1.808 1.748 1.838 2.018 1.998 1.948 2.108 2.118 2.168 2.008
2247.259 1.758 1.898 1.798 1.618 1.628 1.708 1.768 1.728 1.558 1.528
2266.549 1.808 1.928 1.768 1.698 1.848 1.948 1.918 2.128 2.208 2.128
2285.839 2.038 1.988 2.058 2.168 2.348 2.398 2.448 2.558 2.558 2.378
2305.129 2.308 2.268 2.258 2.228 2.178 2.338 2.448 2.338 2.308 2.228
2324.418 1.928 1.988 2.228 2.038 1.948 1.918 1.828 1.908 2.018 2.058
2343.708 1.868 1.678 1.678 1.848 1.898 1.888 1.768 1.728 1.788 1.568
2362.998 1.658 1.888 1.928 1.818 1.648 1.628 1.538 1.568 1.628 1.548
2382.288 1.578 1.508 1.488 1.448 1.358 1.378 1.368 1.338 1.1239 1.0695
2401.578 1.1663 1.358 1.688 1.588 1.458 1.728 1.578 1.2851 1.3096 1.328
2420.867 1.378 1.2725 1.3016 1.1501 0.8755 1.0544 1.0266 1.0392 1.051 0.8457
2440.157 0.814 0.9048 1.1664 1.2139 1.2534 1.3092 1.368 1.338 1.528 1.808
2459.447 1.738 1.738 1.688 1.798 1.808 1.768 2.108 2.218 1.868 1.598
2478.737 1.518 1.688 1.988 1.978 1.778 1.748 1.608 1.348 1.378 1.578
2498.026 1.678 1.778 1.918 2.108 2.138 2.288 2.158 1.978 2.288 2.308
2517.316 2.098 1.928 1.688 1.628 1.708 1.488 1.408 1.578 1.548 1.408
2536.606 1.2929 1.3061 1.2334 1.2597 1.408 1.608 1.568 1.568 1.388 1.338
2555.896 1.708 1.428 1.358 1.618 1.468 1.508 1.948 1.988 1.808 1.678
2575.186 1.678 1.778 1.988 1.958 1.688 1.558 1.488 1.598 1.568 1.438
2594.475 1.0326 0.8292 1.111 1.1273 1.0777 1.0039 0.9279 0.9197 0.7326 0.843
2613.765 0.9902 1.1476 1.2904 1.0242 0.8227 0.912 0.9651 0.9674 0.8433 0.6936
2633.055 0.6848 0.6722 0.8152 1.1578 1.2504 1.2004 1.3121 1.2347 1.338 1.618
2652.345 1.828 1.748 1.828 1.968 1.318 1.1262 1.518 1.578 1.428 1.0637
2671.634 0.8699 0.9487 0.9278 0.9876 1.1709 0.8765 0.5997 0.8638 0.9396 0.9592
2690.924 1.1334 0.8698 0.6842 1.0743 1.1476 0.9595 0.8247 0.8217 0.9835 1.3021
2710.214 1.2532 0.8951 0.9134 0.9836 0.8784 0.8387 0.698 0.7081 0.8737 1.0018
2729.504 1.1248 1.1303 1.348 1.2585 1.358 1.1456 1.1048 1.478 1.3155 1.378
2748.794 1.418 1.498 1.378 1.0818 0.8603 0.8986 0.9663 0.9177 0.8454 0.6742
2768.083 0.8101 0.7814 0.6393 0.7251 1.1134 1.2191 0.8603 0.94 0.9225 0.781
2787.373 0.5593 0.7233 1.0418 1.0443 0.866 0.7861 1.338 1.2798 0.9198 1.0153
2806.663 1.1878 1.578 1.348 0.8542 1.2137 1.2049 0.7067 0.8849 1.1875 1.1978
2825.953 1.0711 0.9297 0.9797 1.1745 1.378 1.1399 0.9649 0.9913 0.9539 0.8039
2845.242 0.5984 0.4925 0.7269 1.0233 1.0758 1.1353 1.179 1.0416 0.9974 0.9322
2864.532 0.8972 0.7864 0.9228 1.368 1.1342 0.8523 0.9276 0.9833 0.9434 1.0041
2883.822 1.528 1.658 0.8102 0.8018 1.1273 0.8479 0.6467 0.648 0.8735 1.3006
2903.112 1.388 1.0532 1.1847 1.0745 0.8293 0.7907 0.9958 1.0359 1.1448 1.2566
2922.401 1.1566 1.388 1.358 1.698 1.728 1.548 1.648 1.678 1.358 1.1119
2941.691 1.1278 1.0524 1.0024 0.7536 0.6577 1.0654 1.398 1.2397 0.9068 0.7808
2960.981 0.7608 1.0161 1.358 1.0191 0.3726 0.319835 0.7196 1.0104 1.0512 1.1924
2980.271 1.2709 1.318 1.188 1.0236 1.1101 1.0114 0.893 0.8832 0.7669 0.6645
2999.561 0.8329 0.667 1.0437 1.1979 0.8009 0.8048 0.5977 0.8268 1.2519 1.0073
3018.850 0.9511 1.0733 1.1102 1.2143 1.348 1.338 1.2573 1.1908 0.9379 0.9429
3038.140 0.9976 1.2853 1.648 1.2989 1.2229 1.668 1.808 1.488 1.2734 1.518
3057.430 1.648 1.688 1.868 1.998 1.888 1.658 1.558 1.768 1.878 1.948
3076.720 2.248 2.628 3.008 3.378 3.438 3.198 3.138 3.078 2.558 1.868
3096.009 1.438 1.278 0.9494 1.0322 1.518 1.758 1.928 1.458 0.9153 1.1145
3115.299 1.0941 0.8994 0.8324 0.8318 0.8065 0.6884 0.6957 0.6169 0.5737 0.6817
3134.589 0.36804 0 0.2641 0.6442 0.8402 0.8585 0.9439 1.1082 1.1312 0.9134
3153.879 0.8123 1.142 1.358 1.0678 0.7267 0.8517 0.9341 0.9653 1.0497 0.8723
3173.169 1.0477 1.498 1.1453 0.765 0.9902 0.7737 0.37447 0.37651 0.7765 1.1892
3192.458 1.498 1.558 1.1935 0.9974 1.328 1.428 1.328 0.8606 0.6443 1.2273
3211.748 1.2042 0.9419 1.165 1.648 1.438 0.8574 1.0749 1.458 1.1468 0.9111
3231.038 1.0958 1.2052 1.2672 0.8043 0.7486 1.0118 0.6644 0.6152 0.9815 1.0435
3250.328 0.9957 1.122 1.1127 1.0429 1.0711 1.1551 1.2721 1.508 1.518 1.3043
3269.617 1.1948 1.1018 0.924 0.7564 0.8069 1.0043 1.0799 1.0212 1.0987 1.1048
3288.907 0.7844 0.6584 0.9008 0.9402 1.1352 1.2195 1.232 1.438 1.428 1.1061
3308.197 0.6857 0.8851 1.0984 1.488 1.468 1.0486 1.0721 0.9814 1.0834 0.9315
3327.487 0.6822 0.9693 1.2431 1.1618 1.1286 1.1412 1.1802 1.3162 1.1606 1.223
3346.777 1.318 1.1256 0.5918 0.6693 0.6153 0.3072 0.5954 0.2456 0.6024 1.0776
3366.066 0.6723 0.665 0.823 0.8522 1.1051 1.1771 1.103 1.172 1.016 1.0178
3385.356 1.418 1.768 1.408 0.5958 0.6573 1.1478 1.2667 1.2012 1.0553 1.1857
3404.646 0.9647 0.797 0.8073 0.6113 0.8096 0.9579 0.8722 1.0017 1.1325 1.0744
3423.936 1.368 1.518 1.2834 1.1555 0.8872 0.9785 1.0264 0.9884 0.9324 1.0931
3443.225 1.618 1.368 1.1142 1.1942 0.9463 0.6142 0.6423 0.9361 1.2646 0.8135
3462.515 0.40233 0.6309 0.8184 0.9405 0.7006 0.158 0.4795 0.9949 0.7905 0.8132
3481.805 1.0492 0.6944 0.4976 1.0006 0.7462 0.34337 0.8719 1.2521 0.7767 0.6985
3501.095 1.1981 1.448 1.2606 1.348 1.798 1.368 0.9497 1.1734 1.2485 1.0441
3520.385 0.8903 0.7322 1.186 1.508 1.1986 1.408 1.428 1.398 1.668 1.488
3539.674 0.9098 0.7978 0.6851 0.7428 1.1692 0.981 0.762 0.69 0.9178 1.358
3558.964 1.0947 1.0483 1.1277 1.2893 0.9583 0.831 1.2902 1.448 1.348 1.2556
3578.254 1.418 1.428 1.222 0.6674 1.0634 1.408 0.8882 0.9996 0.9107 0.8281
3597.544 1.1315 1.518 1.658 1.1247 0.6469 0.7801 1.1736 0.8051 0.6461 0.983
3616.833 1.2529 1.558 1.578 1.3034 0.8454 0.9231 1.0273 0.8946 1.0731 1.0406
3636.123 0.9664 1.1559 1.488 1.448 1.2467 1.2431 0.8768 0.7657 1.0121 1.3112
3655.413 1.2393 0.9137 0.9837 0.9452 1.1862 1.528 1.1891 0.5794 0.33652 0.103
3674.703 0.2232 0.7904 0.7812 0.872 0.8563 0.7305 0.4812 0.119 0.5212 0.9108
3693.993 0.5612 0.39905 0.7621 0.724 0.5224 0.578 1.1618 1.2523 0.9164 1.1344
3713.282 0.6948 0.591 0.9183 0.8182 0.8537 1.1201 0.8785 0.6962 1.0116 1.0045
3732.572 1.189 1.478 1.2907 1.1101 0.9784 0.5125 0.4428 0.7017 0.7119 0.9075
3751.862 0.8419 1.0206 1.518 1.418 1.368 1.1721 0.941 0.6641 0.40679 0.887
3771.152 0.8488 0.6604 1.328 1.678 1.568 1.588 1.438 1.458 1.2477 0.7102
3790.441 1.0079 1.788 1.768 0.9851 0.5735 0.2329 0.2552 0.7629 0.6901 0.9221
3809.731 1.221 1.0898 0.8049 0.9675 1.588 1.0756 0.2409 0.4372 0.6882 0.7063
3829.021 0.7716 0.6698 0.6423 0.38185 0.038 0.33747 0.8036 0.9354 0.4665 0.5164
3848.311 0.8613 0.8881 0.6652 0.6315 0.8695 0.8839 1.2791 1.578 1.1263 0.9262
3867.601 1.658 1.518 0.8611 1.1673 1.12 0.8385 0.9215 0.7314 0.8136 0.6641
3886.890 0.6309 0.8209 0.6482 0.785 0.6759 1.023 1.528 1.428 1.2035 0.9723
3906.180 1.2366 1.458 1.2593 0.8394 0.9503 1.0784 1.2134 1.358 1.418 1.488
3925.470 1.1411 0.9917 1.2105 1.2438 0.9272 0.4218 0.195 0.8604 1.1013 0.7175
3944.760 0.8593 0.7188 0.31261 0.606 1.1129 1.284 0.9049 1.1519 1.0029 0.6475
3964.049 0.8907 0.7112 0.5423 0.8203 1.438 1.368 0.9188 0.7938 1.1213 1.2671
3983.339 1.1332 1.328 1.688 1.338 0.9126 1.568 1.978 1.378 0.8883 1.056
##END=
