##TITLE=3-Amino-4-nitrobenzotrifluoride
##JCAMP-DX=4.24
##DATA TYPE=INFRARED SPECTRUM
##ORIGIN=EPA-IR VAPOR PHASE LIBRARY
##OWNER=SRD/NIST
Collection (C) 2018 copyright by the U.S. Secretary of Commerce
on behalf of the United States of America. All rights reserved.
##CAS REGISTRY NO=402-14-2
##MOLFORM=C 7 H 5 F 3 N 2 O 2
##$NIST SOURCE=MSDC-IR
##STATE=gas
##XUNITS=1/CM
##YUNITS=ABSORBANCE
##XFACTOR=1.
##YFACTOR=0.001
##DELTAX=1.92898
##FIRSTX=549.8
##LASTX=4000.7
##FIRSTY=7.581
##MAXX=4000.7
##MINX=549.759
##MAXY=0.251991
##MINY=0
##NPOINTS=1790
##XYDATA=(X++(Y..Y))
549.759 7.581 7.931 9.091 8.961 8.571 9.101 9.291 10.031 10.601 10.951
569.049 11.121 11.011 10.811 10.211 9.811 9.291 9.471 9.121 8.781 9.361
588.339 8.971 8.131 8.331 9.191 9.681 9.961 10.011 9.751 9.331 9.511
607.628 9.731 9.781 9.591 9.381 9.001 8.831 9.031 8.871 9.141 8.901
626.918 9.051 8.961 8.411 8.531 8.491 8.411 8.471 8.551 8.981 9.041
646.208 8.321 8.281 9.031 9.411 9.231 9.551 10.641 10.811 10.471 10.731
665.498 10.771 10.661 10.451 10.431 10.661 11.311 11.661 11.661 12.331 13.011
684.787 13.601 14.391 15.181 16.351 17.821 18.841 20.491 22.031 21.631 20.431
704.077 19.301 18.801 17.901 16.681 15.681 14.851 14.091 13.231 12.981 12.781
723.367 12.171 11.131 10.691 10.631 10.541 11.081 11.231 11.271 13.131 16.451
742.657 20.251 24.551 28.321 29.701 30.141 30.071 28.751 25.651 22.121 19.791
761.947 17.221 14.951 13.841 13.311 13.111 11.951 10.221 9.111 8.701 8.561
781.236 8.001 7.451 7.461 7.321 7.041 6.981 6.961 7.281 7.951 7.811
800.526 8.341 9.701 10.531 11.621 12.681 14.181 15.801 17.131 19.301 22.081
819.816 24.711 25.771 24.831 24.471 24.301 24.981 26.771 29.241 32.001 33.171
839.106 33.551 33.181 32.041 29.721 25.971 22.671 20.331 18.751 18.841 20.211
858.395 21.371 22.941 25.011 26.791 28.861 30.681 30.971 29.521 27.141 25.161
877.685 23.271 20.891 18.931 17.261 15.701 14.781 13.831 13.221 13.061 12.581
896.975 11.961 12.031 12.231 12.381 12.971 13.901 14.871 15.811 17.491 20.041
916.265 23.071 27.111 32.311 37.871 43.621 48.891 52.801 54.381 53.771 51.091
935.555 46.071 39.361 31.811 25.041 20.141 16.401 12.961 9.921 8.131 6.981
954.844 6.291 6.311 6.091 5.711 5.321 4.871 4.631 4.681 5.141 5.191
974.134 4.801 4.831 5.121 5.231 4.881 4.991 5.571 5.591 5.241 4.861
993.424 4.811 5.631 5.521 4.911 5.251 5.811 6.011 5.651 5.631 6.081
1012.714 5.601 5.201 5.811 6.011 6.741 7.821 8.711 9.791 11.121 12.961
1032.003 14.111 14.971 16.121 17.651 18.861 20.141 21.461 21.641 21.041 19.541
1051.293 18.181 16.571 14.901 13.931 12.351 11.071 10.361 10.191 9.581 8.091
1070.583 7.701 7.671 8.421 9.141 9.681 11.081 13.091 16.131 20.131 24.361
1089.873 27.391 28.961 30.581 30.411 30.061 30.371 28.051 23.901 20.151 18.431
1109.163 18.121 16.991 15.941 16.241 17.251 18.191 17.921 19.421 21.441 24.191
1128.452 28.371 32.651 37.961 44.861 54.651 66.031 79.431 95.711 114.281 135.391
1147.742 158.501 182.421 206.141 225.871 235.541 233.081 222.301 205.211 182.301 157.861
1167.032 137.521 126.371 125.341 133.841 149.331 166.691 182.061 191.341 188.661 174.461
1186.322 156.741 140.081 123.041 103.991 85.471 67.991 53.931 43.901 36.461 31.271
1205.611 26.261 23.381 21.801 19.681 19.151 19.431 20.381 20.361 20.671 22.191
1224.901 23.691 26.341 30.621 36.961 44.131 55.101 69.691 89.141 115.271 143.751
1244.191 173.411 198.281 212.431 214.681 206.791 189.051 161.541 129.881 100.591 78.391
1263.481 63.161 52.871 46.161 41.121 36.561 32.661 29.471 27.141 25.521 24.791
1282.771 24.911 25.941 27.051 27.901 28.871 29.171 29.151 29.131 29.261 29.941
1302.060 31.371 32.811 34.031 35.051 35.771 36.471 37.031 38.101 40.331 44.611
1321.350 52.301 65.151 84.111 109.351 140.461 174.891 207.771 233.511 248.871 251.991
1340.640 242.701 221.821 192.561 160.931 132.821 111.011 94.141 80.101 67.571 56.111
1359.930 45.921 36.951 29.741 24.481 20.611 18.101 16.361 14.761 13.761 13.241
1379.219 12.741 12.401 12.051 11.881 11.881 11.731 11.641 11.731 11.931 12.151
1398.509 12.351 12.561 12.791 12.751 12.521 12.361 12.171 12.211 12.361 12.791
1417.799 13.811 15.641 18.001 21.381 26.251 32.521 40.301 48.491 56.111 61.781
1437.089 64.811 64.861 61.461 54.771 45.951 36.831 28.971 23.011 18.701 15.761
1456.378 13.721 12.381 11.671 11.561 11.911 12.351 13.111 14.111 15.471 17.191
1475.668 19.171 21.441 23.781 26.311 29.021 31.831 34.321 36.381 38.331 40.041
1494.958 41.571 43.261 45.421 47.981 51.071 55.471 61.591 69.091 77.981 88.611
1514.248 100.061 111.751 122.831 131.041 136.671 139.371 138.271 134.171 127.081 116.631
1533.538 103.621 89.771 76.711 64.051 53.221 44.381 37.201 31.681 27.681 24.811
1552.827 22.481 20.681 20.111 20.251 20.431 20.551 21.331 22.451 23.831 25.441
1572.117 27.141 29.141 31.411 33.981 36.481 39.011 41.951 45.371 48.651 51.061
1591.407 52.981 54.701 55.771 55.941 55.521 54.761 53.671 52.471 51.341 50.871
1610.697 51.141 52.261 54.521 58.621 64.131 70.121 76.691 83.401 89.041 93.161
1629.986 95.171 95.141 92.931 88.501 82.821 75.861 67.381 58.991 51.011 43.691
1649.276 37.431 32.331 27.491 23.561 20.251 17.231 14.991 12.981 11.321 9.891
1668.566 9.011 8.181 7.391 6.941 6.401 5.791 5.521 5.541 5.201 4.771
1687.856 4.391 4.321 4.261 3.971 3.841 3.951 3.971 3.881 3.801 3.761
1707.146 3.881 3.951 3.951 3.961 3.931 3.711 3.661 3.701 3.701 3.641
1726.435 3.291 3.311 3.441 3.251 3.051 3.021 3.091 2.911 2.671 2.501
1745.725 2.451 2.471 2.371 2.281 2.271 2.311 2.401 2.581 2.751 3.031
1765.015 3.271 3.451 3.761 3.921 3.951 3.901 3.861 3.691 3.401 3.051
1784.305 2.781 2.721 2.441 2.261 2.151 1.971 2.061 2.161 2.061 1.971
1803.594 2.141 2.011 1.791 1.921 1.961 1.881 1.881 1.851 1.851 1.821
1822.884 1.761 1.711 1.531 1.481 1.541 1.541 1.511 1.591 1.561 1.501
1842.174 1.3936 1.4192 1.3725 1.3813 1.581 1.471 1.481 1.531 1.461 1.431
1861.464 1.491 1.651 1.691 1.581 1.561 1.621 1.641 1.741 1.831 1.801
1880.754 1.841 1.901 1.901 1.931 1.771 1.921 2.471 2.651 2.611 2.571
1900.043 2.501 2.571 2.681 2.671 2.541 2.501 2.571 2.501 2.331 2.251
1919.333 2.021 1.781 1.611 1.601 1.801 1.651 1.481 1.561 1.581 1.461
1938.623 1.3683 1.2887 1.2168 1.1958 1.122 1.0078 0.9398 1.158 1.3408 1.1422
1957.913 1.14 1.2894 1.1984 1.148 1.1465 1.0839 1.1426 1.1508 1.0634 1.1266
1977.202 1.0727 0.9559 0.9702 1.1154 1.1823 1.1263 1.0698 1.1495 1.2537 1.3823
1996.492 1.451 1.3732 1.3581 1.2664 1.2716 1.2946 1.1857 1.1604 1.2022 1.158
2015.782 1.1882 1.2369 1.1634 1.1823 1.1354 1.1396 1.1394 0.9966 0.969 0.9069
2035.072 1.0922 1.1934 1.0851 1.2172 1.3609 1.3269 1.2397 1.242 1.3686 1.501
2054.362 1.451 1.3815 1.511 1.601 1.4 1.431 1.591 1.511 1.441 1.461
2073.651 1.541 1.671 1.741 1.771 1.771 1.661 1.631 1.771 1.861 1.851
2092.941 1.881 1.781 1.671 1.531 1.4278 1.511 1.451 1.2477 1.2109 1.3263
2112.231 1.2932 1.4126 1.471 1.2623 1.2775 1.451 1.521 1.441 1.2461 1.1738
2131.521 1.1424 1.0982 1.1621 1.2691 1.3737 1.3067 1.1406 1.086 1.3337 1.621
2150.810 1.671 1.641 1.471 1.4031 1.4141 1.3632 1.3788 1.3728 1.521 1.681
2170.100 1.741 1.791 1.811 1.761 1.651 1.621 1.701 1.881 1.821 1.481
2189.390 1.3497 1.531 1.681 1.681 1.601 1.601 1.491 1.501 1.671 1.4289
2208.680 1.3496 1.451 1.3795 1.3627 1.481 1.511 1.631 1.851 1.681 1.541
2227.970 1.491 1.511 1.491 1.461 1.661 1.871 1.831 1.681 1.621 1.521
2247.259 1.501 1.491 1.591 1.621 1.551 1.511 1.601 1.761 1.821 1.901
2266.549 1.721 1.601 1.851 2.001 1.941 1.851 1.821 1.851 1.741 1.631
2285.839 1.811 1.931 1.901 1.861 1.761 1.901 2.001 1.861 1.851 1.821
2305.129 1.831 1.921 1.961 1.771 1.651 1.681 1.781 1.751 1.751 1.981
2324.418 1.781 1.661 1.841 2.041 2.211 2.141 2.131 2.071 1.901 2.241
2343.708 2.461 2.431 2.301 2.161 2.261 2.231 2.141 2.181 2.261 2.281
2362.998 2.341 2.271 2.221 2.291 2.281 2.291 2.241 2.011 2.111 2.211
2382.288 2.151 2.221 1.961 1.821 1.881 1.721 1.761 1.851 1.821 1.861
2401.578 1.651 1.711 1.941 1.791 1.821 1.691 1.561 1.461 1.501 1.701
2420.867 1.691 1.671 1.591 1.581 1.601 1.591 1.711 1.861 1.801 1.821
2440.157 1.891 1.701 1.721 1.771 1.601 1.881 2.081 1.761 1.751 1.781
2459.447 1.581 1.781 1.811 1.661 1.741 1.751 1.861 1.851 1.681 1.681
2478.737 1.791 1.751 1.681 1.571 1.3682 1.3189 1.3774 1.3711 1.451 1.481
2498.026 1.341 1.3025 1.4253 1.4196 1.3884 1.481 1.481 1.3955 1.2881 1.3365
2517.316 1.471 1.481 1.551 1.491 1.41 1.491 1.2884 1.2038 1.481 1.4198
2536.606 1.2637 1.4015 1.4048 1.531 1.681 1.631 1.551 1.3933 1.441 1.501
2555.896 1.3767 1.3329 1.591 1.731 1.501 1.491 1.3958 1.3252 1.691 1.661
2575.186 1.471 1.681 1.451 1.2155 1.521 1.441 1.3616 1.551 1.641 1.641
2594.475 1.671 1.581 1.4052 1.701 1.681 1.741 2.011 1.761 1.641 1.711
2613.765 1.561 1.361 1.471 1.471 1.521 1.601 1.571 1.701 1.751 1.431
2633.055 1.2574 1.4149 1.4212 1.561 1.701 1.511 1.431 1.691 1.821 1.651
2652.345 1.671 1.801 1.801 1.841 1.911 1.871 1.751 1.831 1.891 1.951
2671.634 2.101 2.171 1.931 1.681 1.641 1.941 2.291 2.131 1.911 1.891
2690.924 1.921 2.031 1.681 1.441 1.661 1.891 1.941 1.521 1.3508 1.2856
2710.214 1.3989 1.681 1.631 1.2891 1.2836 1.471 1.441 1.531 1.621 1.621
2729.504 1.3045 1.3197 1.561 1.324 1.3461 1.491 1.2972 1.3996 1.571 1.412
2748.794 1.3734 1.641 1.561 1.531 1.681 1.481 1.601 1.601 1.353 1.441
2768.083 1.551 1.481 1.551 1.751 1.731 1.681 1.691 1.791 1.711 1.771
2787.373 1.901 1.881 1.861 1.831 1.831 1.771 1.701 1.881 1.941 1.751
2806.663 2.051 2.101 1.521 1.571 2.031 2.051 2.061 2.171 2.231 2.211
2825.953 2.001 2.061 2.151 2.051 1.901 2.011 2.591 2.611 2.521 2.671
2845.242 2.501 2.531 2.631 2.691 2.701 2.711 2.641 2.071 2.241 2.361
2864.532 2.041 2.201 2.241 2.271 2.021 1.701 1.841 1.771 1.971 1.971
2883.822 1.621 1.911 2.031 1.581 1.571 1.541 1.395 1.771 1.981 1.781
2903.112 1.621 1.4179 1.091 0.9627 1.1999 1.451 1.531 1.881 2.061 1.821
2922.401 1.851 2.151 2.131 2.091 2.041 1.761 2.101 2.601 2.211 1.941
2941.691 2.171 2.111 2.201 2.581 2.251 1.761 2.041 2.371 2.331 2.101
2960.981 1.901 1.781 1.871 1.951 1.741 1.591 1.551 1.741 1.881 1.451
2980.271 1.384 1.621 1.581 1.3132 1.1903 1.3116 1.0976 1.1308 1.3252 1.1281
2999.561 1.1329 1.3651 1.3094 1.1818 1.0586 0.8616 1.0018 1.244 1.3118 1.441
3018.850 1.541 1.491 1.571 1.751 1.791 1.461 1.2316 1.431 1.451 1.691
3038.140 1.821 1.881 1.921 1.881 2.241 2.551 2.881 3.181 3.211 2.971
3057.430 2.681 2.691 3.111 3.251 3.221 3.451 3.401 3.021 2.741 2.891
3076.720 2.911 2.871 2.821 2.511 2.261 2.331 2.361 2.281 2.351 2.191
3096.009 2.021 2.171 2.371 2.191 2.231 2.481 2.001 1.671 1.631 1.661
3115.299 1.691 1.671 1.541 1.2893 1.451 1.4215 1.3245 1.491 1.591 1.1364
3134.589 0.8875 1.2875 1.2429 0.9676 1.0006 1.2106 1.3869 1.2993 1.0493 1.1313
3153.879 1.2723 1.0178 0.7891 1.0239 1.2399 1.324 1.1359 1.2543 1.511 1.601
3173.169 1.781 1.561 1.1237 1.3201 1.481 1.531 1.831 1.491 1.0805 1.0324
3192.458 1.287 1.3841 1.2837 1.491 1.511 1.389 1.3149 1.3862 1.441 1.3786
3211.748 1.471 0.959 0.7438 1.152 1.2115 1.0659 1.1124 1.0299 1.2903 1.571
3231.038 1.1707 1.0656 1.0427 0.9172 0.9743 0.9156 1.092 1.0369 1.1367 0.9746
3250.328 0.7724 1.1915 0.9842 0.837 0.8186 0.8607 0.9457 0.6491 0.5966 0.7737
3269.617 0.439512 0.3782 0.5815 0.5533 0.44871 0.3502 0.327 0.3378 0.9211 1.0489
3288.907 0.5933 0.5325 0.9302 1.1042 0.9338 0.8366 1.0286 0.8764 0.48119 0.8193
3308.197 0.8169 0.8914 1.461 1.312 0.8748 0.8763 0.899 1.0971 1.1363 0.6509
3327.487 0.47524 0.69 0.5674 0.324 0.246 0.9267 1.601 1.541 1.751 1.292
3346.777 0.8638 0.9178 1.05 1.0086 0.6451 0.7015 1.0286 1.1841 1.0583 1.2005
3366.066 1.561 1.581 1.681 1.991 2.131 2.571 3.561 4.261 4.511 5.521
3385.356 6.531 7.721 9.241 10.501 12.381 15.271 18.271 21.371 25.211 28.811
3404.646 32.551 36.261 39.001 40.871 41.851 41.001 38.361 34.511 29.921 25.401
3423.936 20.781 16.341 12.711 10.351 8.501 6.611 5.621 4.701 3.761 3.491
3443.225 3.241 2.891 2.811 2.791 2.621 2.541 2.121 2.141 2.551 2.181
3462.515 1.861 2.301 2.941 2.881 2.511 2.821 3.081 3.151 3.621 3.661
3481.805 3.691 4.051 4.461 5.391 6.141 6.061 6.301 6.921 7.361 7.801
3501.095 8.431 9.311 10.471 11.811 12.831 14.261 15.871 17.591 19.441 20.561
3520.385 21.651 23.181 24.301 24.951 25.351 25.241 24.891 24.081 22.641 21.091
3539.674 20.061 18.691 16.261 13.921 12.181 10.501 8.421 6.771 5.401 4.361
3558.964 3.991 3.531 3.091 2.601 2.581 2.211 2.021 2.091 1.4307 1.0869
3578.254 1.0565 0.9965 0.6227 0.809 1.0654 0.7762 0.5564 0.165 0.3785 0.7467
3597.544 0.7131 0.8104 0.8346 0.86 0.7974 0.7655 0.8959 0.7901 0.626 0.8349
3616.833 1.1528 0.9756 0.8329 0.8122 0.5639 0.440875 0.247 0.166 0.7547 1.113
3636.123 0.864 0.8115 0.9032 0.8923 0.294 0 0.3502 0.789 1.0158 0.7987
3655.413 1.083 1.451 1.3617 1.042 1.1027 0.9628 0.571 0.6838 0.895 1.0141
3674.703 0.6616 0.6256 1.1787 1.0192 0.48796 0.615 0.9001 0.49531 0.168 0.5329
3693.993 0.9622 0.6333 0.3759 0.5374 0.4051 0.309 0.3893 1.2563 1.4045 0.5634
3713.282 0.7917 0.8519 0.6259 0.6486 0.51968 0.7036 0.7813 0.9893 1.3786 1.541
3732.572 1.3895 1.0502 0.8901 0.8175 0.9428 0.9681 0.45282 0.5606 1.0024 0.8087
3751.862 0.5958 0.6425 0.7556 0.7385 0.9123 1.0902 1.1256 1.1668 1.0096 0.9725
3771.152 0.9169 0.47018 0.115 0.4036 0.8628 1.1493 0.9673 0.5883 0.5495 0.6784
3790.441 0.46662 0.195 0.6437 0.8451 0.50409 0.293 0.4102 0.858 1.3417 1.561
3809.731 1.601 0.941 0.4191 0.51942 0.7138 0.9249 0.5934 0.253 0.49971 0.45681
3829.021 0.126 0.52153 1.3651 1.601 1.571 1.3938 1.0882 1.0548 0.898 0.6672
3848.311 0.51452 0.51461 0.7521 1.0568 1.043 0.6587 0.44217 0.659 0.9764 0.9574
3867.601 0.9782 1.1502 0.9035 0.5946 0.7895 0.8387 0.6525 0.8142 1.0746 1.0151
3886.890 1.3039 1.2112 0.887 1.1959 1.3707 1.2071 0.9325 1.1056 0.8238 0.9308
3906.180 0.8638 0.6457 0.3916 0.244 0.8421 0.5445 0.49758 1.06 1.1354 0.7769
3925.470 0.7155 1.0014 0.8258 0.8221 1.1139 0.7382 0.44812 0.6537 0.945 0.8196
3944.760 0.52289 0.6581 0.7877 1.0777 1.1705 0.7353 0.9949 1.0314 0.9269 1.2618
3964.049 0.8837 0.8533 0.8473 0.42954 0.8004 1.2474 1.1967 1.3279 1.671 1.451
3983.339 0.7971 0.3455 0.6831 1.2671 1.1628 1.1632 1.3356 1.2648 1.591 1.721
##END=
