##TITLE=3-(Trifluoromethyl)phenol
##JCAMP-DX=4.24
##DATA TYPE=INFRARED SPECTRUM
##ORIGIN=EPA-IR VAPOR PHASE LIBRARY
##OWNER=SRD/NIST
Collection (C) 2018 copyright by the U.S. Secretary of Commerce
on behalf of the United States of America. All rights reserved.
##CAS REGISTRY NO=402-45-9
##MOLFORM=C 7 H 5 F 3 O
##$NIST SOURCE=MSDC-IR
##STATE=gas
##XUNITS=1/CM
##YUNITS=ABSORBANCE
##XFACTOR=1.
##YFACTOR=0.001
##DELTAX=1.92898
##FIRSTX=549.8
##LASTX=4000.7
##FIRSTY=16.5394
##MAXX=4000.7
##MINX=549.759
##MAXY=1.13813
##MINY=0
##NPOINTS=1790
##XYDATA=(X++(Y..Y))
549.759 16.5394 18.0994 19.2194 20.3594 21.3894 22.1694 23.1894 24.2794 25.1894 25.8194
569.049 26.2194 26.4894 26.8694 27.7394 29.1094 31.3994 34.0994 37.7694 43.1394 52.6494
588.339 70.3294 98.3794 131.429 155.839 160.999 160.739 161.879 158.769 159.549 145.889
607.628 110.189 73.8494 48.9194 35.8294 29.6894 26.3594 24.5894 22.8394 20.4594 19.0394
626.918 18.3694 18.2294 18.3994 18.2894 17.8294 16.9894 16.1294 15.2994 14.1894 12.6794
646.208 10.9094 9.2694 7.7094 6.2994 5.4894 5.0794 4.5494 3.9894 3.5894 3.4994
665.498 3.2194 2.7694 2.5494 2.4994 2.4794 2.5494 2.5994 2.5394 2.4694 2.2094
684.787 2.1094 2.3294 2.4594 2.4994 2.6194 2.7294 2.7994 2.8094 2.9194 2.9094
704.077 2.5994 2.6994 2.8594 2.9794 3.2094 3.2694 3.3594 3.5794 3.9794 4.4094
723.367 4.8394 5.3394 5.9694 6.3994 6.3194 6.3294 6.4694 6.4594 6.2294 5.9094
742.657 5.6694 5.3694 4.9594 4.5594 4.4594 4.2894 4.1694 4.2094 4.2394 4.3294
761.947 4.3394 4.3194 4.3894 4.7294 4.8694 4.9994 5.3194 5.8694 6.6094 7.2594
781.236 8.0294 9.0894 10.3294 11.9494 13.9194 15.9994 18.2594 20.9694 23.8094 26.6594
800.526 29.6294 33.1394 38.1294 43.5694 48.2294 52.5294 57.7794 64.3794 71.8994 80.1394
819.816 89.0794 98.1094 107.189 117.189 128.079 138.279 146.289 153.949 163.729 169.789
839.106 158.329 138.799 126.569 117.309 107.519 96.9494 85.5394 74.5194 64.2894 55.0194
858.395 46.9494 39.2094 31.9094 26.1894 21.9394 18.5794 15.8694 13.6094 11.7594 10.4494
877.685 9.4994 8.7294 8.0394 7.7494 7.6394 7.3094 7.1594 6.9794 6.9994 7.3694
896.975 7.5094 7.3994 7.4594 7.7194 7.8094 7.8394 7.8094 7.8694 8.0594 8.0394
916.265 8.0494 8.3494 8.5294 8.6194 8.7694 8.8894 8.8294 8.7194 8.7394 8.8994
935.555 9.1194 9.3194 9.1794 8.5394 7.9494 7.5694 7.3294 7.1194 6.9194 6.7694
954.844 6.5294 6.1094 5.6694 5.3494 5.2194 5.0694 4.9094 4.6094 4.4294 4.6594
974.134 4.8194 4.7094 4.5294 4.7194 4.9394 4.9894 5.1594 5.3294 5.5594 5.7194
993.424 6.3094 7.1294 8.0794 9.8794 12.6694 17.1794 24.4594 33.7494 42.1094 46.9194
1012.714 48.2894 49.3594 49.8394 49.2994 47.5994 41.2994 32.6394 25.3794 20.3594 17.7594
1032.003 16.2394 15.4494 15.4694 15.8794 16.2194 17.1394 19.1194 21.7394 25.8294 32.1594
1051.293 41.8694 56.6994 79.8994 115.139 164.709 225.979 287.729 336.199 366.259 385.779
1070.583 398.219 403.359 391.019 333.409 246.129 170.429 123.799 102.199 96.1894 99.6894
1089.873 110.089 126.019 144.129 160.639 171.749 177.999 184.729 196.939 213.749 227.609
1109.163 231.969 231.239 231.899 236.929 246.849 261.689 282.219 307.569 337.699 372.679
1128.452 412.239 457.749 510.549 573.669 644.469 714.899 781.309 829.569 847.289 844.309
1147.742 840.479 842.049 834.469 814.609 790.029 770.869 763.189 764.739 771.889 767.209
1167.032 746.939 727.329 713.519 703.059 692.579 684.989 683.109 682.579 672.649 640.849
1186.322 595.249 553.899 523.669 497.859 453.679 384.209 306.309 238.399 188.099 153.389
1205.611 129.849 112.399 98.1594 86.0694 76.5094 69.0194 63.4794 60.2994 58.1194 57.0994
1224.901 57.3794 58.4394 60.3094 62.0794 63.8494 65.9894 67.7294 69.3994 71.4094 74.0794
1244.191 77.9394 83.2994 91.4994 104.029 122.769 149.899 185.279 226.949 270.439 308.799
1263.481 334.919 345.659 344.349 335.679 317.089 287.109 244.029 189.789 140.359 108.339
1282.771 92.9894 87.6194 87.3794 89.4194 91.9194 95.1394 100.619 109.659 123.349 144.009
1302.060 174.719 218.909 280.149 359.969 457.399 568.869 688.459 809.949 927.629 1032.22
1321.350 1108.11 1138.13 1117.92 1055.66 961.839 847.669 715.239 566.069 416.279 292.979
1340.640 210.389 165.209 145.829 141.219 142.239 142.679 140.449 136.579 130.959 123.889
1359.930 113.069 95.2294 74.7794 58.2794 47.3694 40.5294 35.8194 32.1694 29.1794 26.7194
1379.219 24.6194 22.6394 20.2994 17.8194 15.8194 14.4694 13.7894 13.6194 13.8394 14.2494
1398.509 14.8294 15.6494 16.4994 17.3194 18.1694 19.1294 20.2594 21.5194 22.7394 23.9994
1417.799 25.3494 26.9294 28.7094 30.6094 32.5194 34.2594 35.7394 37.1094 38.5894 39.9694
1437.089 40.8794 40.7294 39.3894 37.4694 35.4894 33.5094 31.0594 27.8094 24.1394 20.9094
1456.378 18.2494 15.8094 13.6794 11.8994 10.5394 9.5094 8.7894 8.2094 7.8494 7.7294
1475.668 7.7694 7.8294 7.9494 8.1094 8.3494 8.6794 9.0494 9.5594 10.2094 10.8594
1494.958 11.7794 13.1694 14.9594 17.1594 20.1794 24.4994 30.9494 39.9494 51.6094 66.2894
1514.248 82.1794 96.8994 108.059 114.069 116.379 116.159 112.739 104.929 91.8294 74.7894
1533.538 57.9894 45.0194 36.5594 30.8494 26.9294 23.9494 21.2594 18.7494 16.7294 15.1694
1552.827 14.1494 13.6394 13.4594 13.6794 14.0094 14.3994 14.9894 15.6994 16.6694 17.7194
1572.117 18.8894 20.4194 22.2894 24.4894 27.4194 31.4294 36.5294 43.5194 52.8094 64.7894
1591.407 79.6794 97.2394 116.539 136.619 156.699 175.999 193.389 207.839 217.419 221.389
1610.697 221.049 218.559 214.809 208.729 199.969 189.639 178.299 166.179 152.909 138.409
1629.986 123.499 108.759 94.5194 80.8694 68.9094 59.0394 50.3294 42.4894 35.2394 28.9894
1649.276 24.2894 21.2394 19.1094 17.6794 16.9394 16.8394 17.2194 17.8194 18.4694 19.0594
1668.566 19.2694 19.0794 18.6194 17.9894 16.9394 15.5194 13.7094 11.8594 10.2494 8.8694
1687.856 7.9694 7.4894 7.0894 6.7394 6.5094 6.2694 6.0494 5.8194 5.6394 5.4994
1707.146 5.2594 4.9794 4.7494 4.5394 4.3694 4.2994 4.2794 4.2594 4.3294 4.5094
1726.435 4.7294 5.0594 5.3894 5.6794 5.9594 6.2594 6.5994 6.8894 6.9994 7.0994
1745.725 7.2094 7.3594 7.6094 7.7994 8.1094 8.5594 8.9494 9.0794 9.1194 9.0094
1765.015 8.7094 8.3094 7.7494 7.0394 6.2194 5.4894 4.9694 4.5994 4.2794 4.0194
1784.305 3.9294 3.8694 3.7694 3.6894 3.5894 3.4594 3.1794 2.8994 2.6894 2.4694
1803.594 2.3394 2.3194 2.2894 2.3194 2.4294 2.5294 2.6094 2.6894 2.7394 2.7794
1822.884 2.7894 2.7194 2.6694 2.5994 2.4194 2.2894 2.2194 2.1594 2.0994 2.1894
1842.174 2.3294 2.4494 2.6394 2.8394 3.1494 3.4694 3.7794 4.2294 4.6494 5.0894
1861.464 5.5894 6.0694 6.4894 6.9294 7.3394 7.7994 8.1494 8.3394 8.6494 9.0194
1880.754 9.3894 9.7794 10.1494 10.4494 10.7194 10.8094 10.6894 10.5994 10.4994 10.4194
1900.043 10.3194 10.2194 10.0194 9.5594 8.9594 8.3694 7.8394 7.4094 6.9794 6.5494
1919.333 6.1394 5.6694 5.1794 4.7294 4.2594 3.8194 3.4694 3.0994 2.8094 2.5994
1938.623 2.3794 2.1694 2.0394 1.9494 1.8394 1.6994 1.6394 1.5994 1.5594 1.4994
1957.913 1.4994 1.5494 1.5494 1.5894 1.6494 1.6794 1.7094 1.7994 1.8694 1.8394
1977.202 1.8494 1.8394 1.8194 1.8994 1.9594 1.9394 1.9894 2.0594 2.1294 2.2894
1996.492 2.3794 2.4694 2.6494 2.7994 3.0294 3.2094 3.3294 3.4894 3.5394 3.5694
2015.782 3.6494 3.5894 3.4694 3.4294 3.2694 3.0394 2.7894 2.4894 2.2194 1.9394
2035.072 1.8094 1.5894 1.4294 1.3494 1.2794 1.2894 1.2694 1.2994 1.3494 1.4994
2054.362 1.7094 1.9394 2.1394 2.3894 2.6994 2.9794 3.2994 3.7294 4.1194 4.3794
2073.651 4.5394 4.6394 4.6594 4.5994 4.5594 4.4394 4.2694 4.1394 4.0994 4.1194
2092.941 4.1594 4.3194 4.5094 4.5494 4.4794 4.4094 4.3194 4.0594 3.6194 3.1994
2112.231 2.8094 2.4594 2.1294 1.9094 1.7494 1.6194 1.5794 1.4694 1.3994 1.3594
2131.521 1.2894 1.3194 1.3294 1.2394 1.1894 1.2694 1.3294 1.2694 1.2394 1.2894
2150.810 1.3494 1.4494 1.5594 1.6594 1.7194 1.7094 1.6994 1.6994 1.6694 1.6394
2170.100 1.5694 1.5894 1.5494 1.4494 1.5094 1.5694 1.6394 1.6794 1.7494 1.8994
2189.390 2.0194 2.0894 2.1494 2.2594 2.3294 2.4394 2.5594 2.6394 2.7494 2.8094
2208.680 2.8394 2.8494 2.8694 2.7794 2.6694 2.6994 2.6494 2.5794 2.6194 2.6594
2227.970 2.6294 2.6794 2.7494 2.8394 2.9694 3.0694 3.1494 3.1294 3.2094 3.3794
2247.259 3.4394 3.5494 3.7994 3.9394 4.0594 4.3294 4.5894 4.7694 4.9594 5.1894
2266.549 5.2694 5.3494 5.4094 5.3394 5.1594 5.0094 4.8494 4.5894 4.3294 4.0994
2285.839 3.8994 3.7494 3.7294 3.7294 3.6694 3.6594 3.6494 3.6894 3.7394 3.8294
2305.129 3.8994 3.8994 3.9894 3.9994 3.9894 4.1794 4.2894 4.3094 4.3894 4.4494
2324.418 4.4594 4.3594 4.3694 4.4094 4.3194 4.2594 4.2594 4.1694 4.0094 3.9294
2343.708 3.7894 3.6794 3.6294 3.4594 3.3594 3.2694 3.1394 3.0594 2.9594 2.8294
2362.998 2.7294 2.6694 2.5994 2.5694 2.4394 2.3994 2.3694 2.2694 2.1994 2.1794
2382.288 2.1394 2.0694 2.0894 2.1094 2.0994 2.1394 2.1694 2.2794 2.3494 2.2994
2401.578 2.3394 2.4594 2.5294 2.6294 2.7794 2.9594 3.1094 3.2994 3.5594 3.7894
2420.867 4.1194 4.3994 4.6694 4.9894 5.2594 5.4994 5.8094 6.0494 6.2494 6.5494
2440.157 6.8394 7.0494 7.1994 7.3494 7.5194 7.5794 7.4494 7.2794 7.0894 6.7694
2459.447 6.3994 6.0294 5.5294 4.9594 4.4294 3.9894 3.6894 3.4994 3.2794 3.1094
2478.737 3.0594 2.9194 2.7694 2.7694 2.8094 2.7994 2.8094 2.7894 2.6894 2.7394
2498.026 2.7794 2.6894 2.7094 2.7594 2.8394 2.9794 3.1094 3.2594 3.3894 3.5294
2517.316 3.7094 3.9194 4.0294 4.0694 4.2094 4.3394 4.3194 4.1094 3.8994 3.6394
2536.606 3.3394 2.8794 2.4294 2.0294 1.7594 1.5894 1.3094 1.1594 1.0994 1.0994
2555.896 1.1094 1.0694 0.9965 1.0405 1.0313 0.9672 1.0318 1.0594 1.0594 1.0994
2575.186 1.1794 1.2094 1.2594 1.3094 1.3694 1.4794 1.5594 1.6094 1.7294 1.9294
2594.475 2.0494 2.1294 2.2594 2.3094 2.2894 2.3894 2.4794 2.4894 2.6194 2.7194
2613.765 2.7594 2.8694 2.9294 3.0094 3.1094 3.1894 3.2694 3.3194 3.4294 3.6194
2633.055 3.7394 3.7994 3.8694 3.8894 3.9494 4.0194 3.9894 3.9694 3.8894 3.7594
2652.345 3.5694 3.3094 3.0194 2.7494 2.6194 2.4194 2.1594 2.0494 1.8994 1.7994
2671.634 1.6294 1.4394 1.3594 1.2994 1.3194 1.2194 1.1194 1.1394 1.0366 0.9274
2690.924 0.8573 0.779 0.8785 0.9425 0.8773 0.9078 0.8931 0.8518 0.8686 0.9111
2710.214 0.8453 0.7226 0.7032 0.6535 0.6185 0.4969 0.4161 0.4925 0.4811 0.4488
2729.504 0.454 0.3787 0.364 0.4491 0.3356 0.3319 0.4373 0.398 0.4402 0.4908
2748.794 0.5097 0.5038 0.5128 0.5278 0.4245 0.5299 0.7302 0.7907 0.8196 0.8321
2768.083 0.897 0.9972 1.1494 1.1094 1.1294 1.1794 1.1494 1.2794 1.4294 1.3594
2787.373 1.2494 1.1994 1.0794 0.956 0.8357 0.773 0.7541 0.7633 0.5679 0.475
2806.663 0.4967 0.5246 0.5024 0.54 0.6804 0.7001 0.6953 0.7262 0.7071 0.6949
2825.953 0.8605 0.9253 0.9127 1.0331 1.2494 1.2794 1.3394 1.4594 1.3594 1.2694
2845.242 1.2694 1.2294 1.1394 1.1594 1.2294 1.0794 0.8611 0.6427 0.5211 0.5852
2864.532 0.5135 0.2884 0.2231 0.2927 0.3028 0.3618 0.3916 0.2784 0.2634 0.4182
2883.822 0.4454 0.3591 0.37 0.4182 0.4415 0.4229 0.4164 0.4774 0.5429 0.6623
2903.112 0.6632 0.6904 0.866 0.8941 0.8678 1.0894 1.3394 1.4694 1.7894 2.0394
2922.401 2.0794 2.2194 2.3094 2.4194 2.6594 2.7294 2.6894 2.7094 2.6594 2.6494
2941.691 2.8294 2.7694 2.5994 2.5394 2.5394 2.4394 2.2094 2.0394 1.9094 1.7094
2960.981 1.5994 1.4394 1.1394 1.009 0.8915 0.8274 0.7678 0.7507 0.7229 0.7045
2980.271 0.7525 0.7064 0.7465 0.7891 0.9113 1.0454 1.1594 1.2394 1.3594 1.6394
2999.561 1.9894 2.3694 2.8894 3.4794 3.9894 4.6294 5.4894 6.7994 8.1694 9.4694
3018.850 10.8994 12.2594 13.6194 14.7594 15.6094 16.1994 16.6194 16.8794 16.8894 16.9294
3038.140 17.1294 17.4794 17.8394 18.2694 18.5394 18.6494 18.6894 18.3194 17.6994 16.9394
3057.430 15.8494 14.5994 13.2494 12.0194 10.9594 10.0194 9.5694 9.4294 9.3694 9.5694
3076.720 9.9394 10.1794 10.3594 10.3794 10.1694 10.0094 9.7194 9.1994 8.5694 7.7894
3096.009 7.0394 6.3094 5.5594 4.8494 4.3394 4.0094 3.7294 3.5594 3.3394 3.0594
3115.299 2.9594 2.8894 2.8694 2.8994 2.8194 2.8894 2.8494 2.7594 2.7194 2.5794
3134.589 2.3794 2.2794 2.2294 2.0894 1.9794 1.8394 1.8494 1.8594 1.7294 1.5194
3153.879 1.2794 1.2294 1.0464 0.7896 0.776 0.5385 0.2028 0.2912 0.4168 0.3561
3173.169 0.3554 0.3322 0.2967 0.2847 0.3496 0.429 0.4687 0.6361 0.8301 0.7369
3192.458 0.7148 0.9083 1.012 1.0313 1.0894 1.1094 1.2094 1.2194 1.0463 0.9901
3211.748 0.9284 0.9203 0.9798 0.8843 0.7671 0.8025 0.8338 0.9411 0.9702 0.8778
3231.038 0.879 0.7615 0.8328 0.8256 0.7572 0.7639 0.7069 0.604 0.4758 0.5831
3250.328 0.5329 0.4727 0.4499 0.4355 0.4036 0.4678 0.3991 0.2588 0.3835 0.3138
3269.617 0.15633 0.242 0.2988 0.1872 0.2154 0.3568 0.4456 0.4582 0.4509 0.4717
3288.907 0.4772 0.4562 0.4719 0.4047 0.4032 0.6486 0.8637 0.9857 1.0694 1.0794
3308.197 1.2594 1.4894 1.5794 1.6094 1.6694 1.7694 1.9294 2.1594 2.3094 2.2594
3327.487 2.1994 2.2494 2.2394 2.2794 2.2694 2.1794 2.2094 2.2494 2.3194 2.2894
3346.777 2.1494 2.3594 2.5394 2.3294 2.1194 1.9294 1.9194 2.0794 2.0294 1.9494
3366.066 1.9494 1.7594 1.5394 1.5594 1.6794 1.7194 1.5494 1.6594 1.6594 1.5094
3385.356 1.6194 1.7594 1.7094 1.6394 1.5594 1.4594 1.4294 1.3794 1.3894 1.1894
3404.646 1.0794 1.1494 1.1294 1.1994 1.2994 1.2794 1.2794 1.1694 1.0317 1.0994
3423.936 1.1694 1.1494 1.0694 1.0056 1.035 0.9737 0.8383 0.7163 0.6438 0.5793
3443.225 0.4797 0.569 0.5883 0.6616 0.8192 0.8772 0.8668 0.7954 0.842 0.7654
3462.515 0.727 0.7821 0.8319 0.9372 0.7472 0.5945 0.6534 0.65 0.6649 0.6323
3481.805 0.7093 0.7944 0.7033 0.5109 0.4361 0.4418 0.528 0.5788 0.5288 0.423
3501.095 0.3183 0.3001 0.2395 0.2646 0.3272 0.1687 0.13334 0.2548 0.1948 0.2272
3520.385 0.3109 0.1695 0.062082 0.07755 0 0.0381 0.2998 0.3698 0.3704 0.5134
3539.674 0.4834 0.5668 0.6577 0.6017 0.7263 0.8271 0.7649 0.7246 0.7731 0.7593
3558.964 0.8446 0.8008 0.722 0.8473 0.9462 0.8743 0.7867 0.8011 0.7933 0.855
3578.254 0.848 0.9591 1.1194 1.0694 1.0694 1.2194 1.3494 1.4894 1.6694 1.8394
3597.544 1.9494 1.9994 2.2194 2.6194 2.9194 3.2694 3.9594 4.7294 5.6594 6.7694
3616.833 8.0894 10.0294 12.5394 15.6994 19.7394 24.8294 31.7994 41.2894 53.3694 69.6494
3636.123 90.6494 116.679 147.069 178.359 204.059 218.009 217.999 211.259 203.599 191.009
3655.413 172.669 143.599 106.549 73.2994 50.2194 36.1594 27.5094 21.5194 17.0494 13.9094
3674.703 11.2094 8.9694 7.2694 5.9494 4.9294 4.0394 3.5194 3.2194 2.8194 2.4994
3693.993 2.2094 1.8794 1.8294 1.7694 1.5394 1.4394 1.4594 1.3294 1.2594 1.3294
3713.282 1.1594 1.0369 1.1694 1.2994 1.2594 1.0694 0.9469 1.0794 1.0994 1.0794
3732.572 1.1594 1.1194 1.0894 1.0994 1.056 1.0894 1.2994 1.2494 1.1294 1.1094
3751.862 1.0794 0.9916 0.8312 0.7395 0.7366 0.7515 0.7748 0.7507 0.64 0.6077
3771.152 0.5429 0.5398 0.6159 0.6308 0.4607 0.4672 0.5789 0.6023 0.7489 0.7563
3790.441 0.6358 0.7617 0.9348 0.9947 0.9873 0.9067 0.9039 0.9394 0.9585 0.799
3809.731 0.7882 0.941 0.9669 0.8776 0.8156 0.9676 1.1594 1.2394 1.1794 1.1394
3829.021 1.1094 0.9896 1.0532 1.0794 0.9636 0.9683 0.8684 0.7862 0.9026 1.1894
3848.311 1.0994 0.9812 1.1594 1.2994 1.3094 1.2094 1.2594 1.2894 1.3394 1.5394
3867.601 1.6494 1.5194 1.4294 1.5694 1.6094 1.7394 1.7694 1.5594 1.4694 1.3894
3886.890 1.6194 1.7694 1.7694 1.7694 1.6794 1.7294 1.8394 1.8694 1.9594 1.8694
3906.180 1.8794 1.7794 1.5194 1.6294 1.7194 1.7494 1.5394 1.4294 1.6194 1.7094
3925.470 1.6694 1.7594 1.9594 1.9694 1.8394 1.7794 1.9594 2.1494 2.1594 2.0194
3944.760 1.9294 1.9794 2.0094 1.9894 1.8694 1.7294 1.7494 1.8094 1.7894 1.5294
3964.049 1.4994 1.6494 1.7094 1.8194 1.9294 1.9194 2.0594 2.0094 1.6694 1.4694
3983.339 1.2894 1.2994 1.3194 1.1394 0.9915 0.8359 0.8248 0.7781 0.6353 0.5631
##END=
