##TITLE=3-(Trifluoromethyl)benzyl bromide
##JCAMP-DX=4.24
##DATA TYPE=INFRARED SPECTRUM
##ORIGIN=EPA-IR VAPOR PHASE LIBRARY
##OWNER=SRD/NIST
Collection (C) 2018 copyright by the U.S. Secretary of Commerce
on behalf of the United States of America. All rights reserved.
##CAS REGISTRY NO=402-23-3
##MOLFORM=C 8 H 6 Br F 3
##$NIST SOURCE=MSDC-IR
##STATE=gas
##XUNITS=1/CM
##YUNITS=ABSORBANCE
##XFACTOR=1.
##YFACTOR=0.001
##DELTAX=1.92898
##FIRSTX=549.8
##LASTX=4000.7
##FIRSTY=13.17
##MAXX=4000.7
##MINX=549.759
##MAXY=0.41018
##MINY=0
##NPOINTS=1790
##XYDATA=(X++(Y..Y))
549.759 13.17 13.17 12.5 10.94 9.27 7.53 6.11 6.23 7.09 7.66
569.049 8.72 10.68 11.95 11.77 13.23 15.41 15.83 16.21 16.91 17.24
588.339 17.85 19.53 21.16 22.38 23.02 22.41 21.36 19.11 16.48 14.88
607.628 13.35 11.31 9.98 9.6 8.65 7.93 7.51 6.6 6.51 6.61
626.918 5.85 5.52 5.88 5.84 5.71 6.5 8.14 9.71 11.19 13.1
646.208 14.76 16.67 19.13 22.88 27.07 31.39 36.46 40.04 42.11 42.57
665.498 39.59 33.21 27.33 23.15 19.61 17.26 15.64 14.92 15.36 16.83
684.787 19.44 22.76 27.28 32.8 38.1 43.69 49.09 51.4 49.07 43.76
704.077 37.85 31.79 25.7 20.17 15.69 12.03 9.02 6.86 6.07 5.38
723.367 4.74 4.68 4.47 4.27 4.08 4.38 4.47 4.53 5.56 7.04
742.657 7.93 8.42 8.58 8.56 8.59 8.25 6.61 5.2 4.75 4.02
761.947 3.5 3.83 4.3 4.84 5.22 4.7 4.74 5.97 7.67 9.44
781.236 11.87 14.27 16.78 19.96 23.34 26.69 29.49 31.45 31.18 29.58
800.526 27.1 24.02 20.85 16.64 12.69 9.57 7.76 6.27 4.65 4.07
819.816 3.62 3.14 3.14 3.57 3.07 3.18 3.1 2.62 2.84 2.33
839.106 2.28 2.43 2.1674 2.53 2.72 2.72 2.84 2.72 3.21 3.44
858.395 2.91 3.01 3.61 3.99 4.16 4.8 5.53 5.94 6.79 7.65
877.685 9.19 11.32 12.81 14.17 16.16 17.69 18.41 18.84 19.4 19.63
896.975 19.33 19.73 20.89 21.7 21.78 22.11 21.39 19.33 17.28 15.06
916.265 13.05 11.05 9.22 8 6.84 5.72 4.9 4.61 4.22 4.05
935.555 4.12 3.62 2.49 1.9756 2.53 2.37 2.42 2.39 2.43 2.44
954.844 1.8968 2.1058 2.55 2.64 2.44 2.48 2.93 2.69 2.1902 2.61
974.134 3.15 3.52 3.82 3.85 3.91 3.77 3.47 3.21 3.43 4.03
993.424 4.5 4.58 4.21 4.09 4.24 4.41 4.59 4.61 4.09 3.77
1012.714 4.29 5.1 4.29 3.32 3.39 4.08 5.25 4.83 4.43 5
1032.003 5.5 5.51 5.86 5.96 5.77 5.72 6.15 6.9 7.93 8.85
1051.293 9.17 10.48 11.99 14.46 19.07 25.28 32.22 40.26 51.84 65.61
1070.583 78.3 89.19 96.85 101.58 102.53 100.19 94.91 85.14 74.16 66.06
1089.873 57.66 48.56 40.75 33.42 27.92 23.96 23.57 23.13 21.97 24.59
1109.163 26.82 26.43 26.99 29.89 33.3 37.27 41 46.09 53.64 63.89
1128.452 77.45 95.76 119.59 145.73 174.64 207.14 243.23 278.16 307.26 330.92
1147.742 343.75 343.73 332.15 305.02 273.16 243.14 215.99 195.13 183.37 183.38
1167.032 191.06 203.18 217.38 233.4 254.29 272.77 277.29 271.32 258.23 236.98
1186.322 209.52 178.31 150.15 128.3 111.57 100.53 90.7 78.31 69.26 65.38
1205.611 60.97 58.13 61.6 69.74 81.48 97.93 116.92 135.32 146.26 146.77
1224.901 139.53 125.43 105.17 83.25 63.95 48.9 38.78 31.96 27.54 23.55
1244.191 21.05 20.69 19.85 18.47 17.43 16.13 15.82 16.05 15.95 16.3
1263.481 16.55 17.46 17.64 17.46 17.53 17.96 18.87 18.75 18.36 18.99
1282.771 20.22 21.02 22.22 24.2 26.21 28.55 31.28 34.39 37.57 40.9
1302.060 44.5 48.67 54.39 61.87 71.52 84.15 100.77 122.7 151.35 188.65
1321.350 234.92 287.37 340.4 384.42 409.5 410.18 385.64 339.64 277.84 210.47
1340.640 151 108.18 80.32 61.54 48.29 38.48 30.84 24.83 20.24 16.64
1359.930 13.76 11.61 9.88 8.63 7.67 6.8 6.21 5.88 5.52 5.21
1379.219 5.14 5.21 5.27 5.5 5.63 5.44 5.55 5.85 6.1 6.3
1398.509 6.56 7.12 7.74 8.22 8.74 9.21 9.4 9.4 9.23 8.93
1417.799 8.76 8.63 8.64 9.04 9.54 10.01 10.68 11.6 12.88 14.85
1437.089 17.21 19.98 23.32 26.94 30.25 32.26 33 32.36 30 26.27
1456.378 21.92 17.98 14.58 12.03 10.27 9.09 8.5 7.83 7.14 6.56
1475.668 6.23 6.29 6.45 6.7 6.99 7.27 7.68 7.92 8.36 8.38
1494.958 7.96 7.6 6.85 5.77 4.77 3.96 3.33 3.07 2.95 2.91
1514.248 2.61 2.35 2.5 2.49 2.3 2.0989 2.1597 2.0971 2.0611 2.1359
1533.538 2.0406 2.2 2.44 2.36 2.4 2.62 2.51 2.37 2.32 2.1542
1552.827 2.26 2.35 2.37 2.3 2.23 2.36 2.41 2.31 2.26 2.53
1572.117 2.66 2.77 3.04 3.07 3.14 3.44 3.58 3.86 4.19 4.49
1591.407 4.91 4.89 4.97 5.45 5.41 5.1 4.77 4.36 4.26 4.11
1610.697 4.08 4.18 4.23 3.96 3.66 3.51 3.25 3.37 3.43 3.51
1629.986 3.43 3.3 3.27 3.19 2.94 2.84 2.84 2.51 2.41 2.42
1649.276 2.4 2.49 2.44 2.32 2.54 2.63 2.86 3.22 3.57 3.8
1668.566 3.83 3.98 3.75 3.6 3.61 3.48 3.34 3.06 2.76 2.59
1687.856 2.3 2.1336 2.34 2.37 2.24 2.1648 2.1878 2.49 2.87 3.06
1707.146 3.46 3.91 4.3 4.6 4.66 4.36 3.97 3.6 3.25 3
1726.435 2.57 2.31 2.28 2.31 2.1417 2.0591 2.22 2.1895 2.0905 2.2
1745.725 2.3 2.38 2.41 2.36 2.4 2.5 2.48 2.58 2.77 2.82
1765.015 2.95 2.92 2.95 3 2.78 2.74 2.76 2.77 2.85 2.77
1784.305 2.59 2.58 2.63 2.7 2.81 2.93 2.93 2.94 3.01 3.17
1803.594 3.21 3.15 3.11 3.19 3.17 2.93 3.01 2.87 2.6 2.94
1822.884 3.02 2.78 2.68 2.71 2.79 2.69 2.83 2.83 2.75 2.63
1842.174 2.39 2.47 2.41 2.28 2.1934 2.0073 1.7529 1.5544 1.5759 1.606
1861.464 1.5625 1.5151 1.6407 1.7807 1.8573 1.8549 2.094 2.38 2.5 2.55
1880.754 2.8 3.33 3.76 4.22 4.6 4.81 4.87 4.6 4.38 4
1900.043 3.33 2.9 2.39 2.0141 2.0781 2.0396 1.9538 1.9481 1.9018 1.9295
1919.333 2.1011 2.0814 2.017 2.0201 1.8829 2.0133 2.0684 2.0114 2.1316 2.41
1938.623 2.46 2.47 2.64 2.88 3.1 3.1 3.23 3.23 3.21 3.11
1957.913 2.73 2.54 2.195 1.8477 1.6417 1.5271 1.702 1.8308 1.8414 1.7973
1977.202 1.6693 1.5841 1.7201 1.5946 1.4588 1.7076 1.7476 1.5295 1.3676 1.26918
1996.492 1.1189 1.1537 1.23551 1.1139 1.1715 1.25585 1.22051 1.29655 1.22942 1.29891
2015.782 1.3997 1.22786 1.3329 1.5482 1.5311 1.5171 1.5637 1.3118 1.26938 1.667
2035.072 1.6121 1.28984 1.3918 1.6718 1.6095 1.5355 1.5437 1.4209 1.4254 1.5164
2054.362 1.649 1.6196 1.5004 1.6764 1.7889 1.844 1.8609 1.827 1.9517 1.9958
2073.651 2.0051 2.1957 2.1134 1.8519 1.8044 1.7786 1.671 1.4606 1.3922 1.3365
2092.941 1.26055 1.1038 1.037 1.1609 1.28596 1.3895 1.4213 1.28366 1.1345 1.22205
2112.231 1.1782 0.953 0.865 0.882 1.1005 1.25161 1.27283 1.063 0.905 1.066
2131.521 1.1438 1.097 1.03 1.009 1.047 1.1519 1.035 1.20716 1.5106 1.5443
2150.810 1.4096 1.314 1.26061 1.27128 1.4624 1.3413 1.21625 1.3128 1.4021 1.19745
2170.100 1.1263 1.21681 0.993 1.097 1.19011 1.23231 1.5703 1.5547 1.4931 1.6452
2189.390 1.6133 1.5015 1.6111 1.5931 1.4826 1.6278 1.7834 1.7057 1.6097 1.854
2208.680 2.0262 2.0771 2.1886 2.26 2.1544 2.0552 2.0835 1.9374 1.9437 2.0435
2227.970 1.9937 1.903 1.8183 1.8605 1.9944 1.8068 1.8151 1.7747 1.6691 1.961
2247.259 1.8154 1.7868 2.0366 2.0041 2.0744 2.1116 2.0943 2.21 2.1735 2.1406
2266.549 2.1082 1.9666 2.1713 2.1987 2.0289 2.0994 2.22 2.27 2.1848 2.25
2285.839 2.52 2.61 2.56 2.63 2.65 2.57 2.46 2.31 2.109 2.101
2305.129 2.0491 1.8315 1.8254 1.9978 2.1723 2.0729 1.9895 2.0469 1.9484 1.7641
2324.418 1.7009 2.0078 2.24 2.066 1.9555 1.8383 1.9329 2.4 2.54 2.3
2343.708 2.21 2.26 2.0863 2.0528 2.41 2.39 1.9847 1.9809 1.9668 1.7183
2362.998 1.4641 1.4398 1.5596 1.5339 1.6107 1.5824 1.3961 1.3144 1.25484 1.28866
2382.288 1.48 1.5982 1.6129 1.5131 1.4517 1.4593 1.5095 1.5731 1.4949 1.5684
2401.578 1.7448 1.6419 1.5445 1.5148 1.554 1.5318 1.6271 1.6246 1.3561 1.3601
2420.867 1.6417 1.9313 1.6942 1.4769 1.451 1.27611 1.4344 1.4249 1.018 1.075
2440.157 1.27979 1.095 0.999 0.902 1.05 1.42 1.331 1.1527 1.23208 1.24848
2459.447 1.27923 1.3124 1.4226 1.5782 1.3114 1.182 1.4169 1.5841 1.5158 1.4646
2478.737 1.6778 1.6923 1.5674 1.6603 1.7035 1.5313 1.3411 1.3423 1.4968 1.6127
2498.026 1.4873 1.423 1.4535 1.3272 1.4619 1.4537 1.27187 1.4743 1.6098 1.4039
2517.316 1.1321 1.02 1.018 1.159 1.3557 1.19338 1.009 1.20228 1.58 1.5432
2536.606 1.21256 1 1.1319 1.3293 0.852 0.644 1.27901 1.4009 1.1299 1.26816
2555.896 1.2625 1.22272 1.25334 1.27766 1.24895 1.27808 1.1784 0.968 1.06 1.043
2575.186 0.925 1.046 1.21268 1.29868 1.19045 0.933 0.994 1.1415 1.3668 1.4615
2594.475 1.3686 1.25759 1.032 1.1571 1.08 0.888 1.094 1.21148 1.23787 1.3889
2613.765 1.1263 0.917 0.92 0.723 0.835 0.88 0.907 0.998 0.965 1.23081
2633.055 1.21441 1.2397 1.4229 1.22737 1.404 1.7593 1.8195 1.6551 1.6231 1.6915
2652.345 1.9415 2.072 1.8013 1.5782 1.7316 2.0928 2.1015 1.8883 1.92 1.9833
2671.634 1.5803 1.1479 1.092 1.074 0.933 1.049 1.098 1.001 1.012 1.3216
2690.924 1.4255 1.1238 0.832 0.637 0.891 0.717 0.552 0.968 1.08 1.049
2710.214 0.992 0.858 0.997 1.039 0.903 0.855 0.806 1.093 1.5618 1.6378
2729.504 1.24361 0.698 0.818 1.1671 0.981 0.717 0.857 0.87 0.74 0.877
2748.794 1.1328 0.949 0.655 0.746 0.881 0.972 0.875 0.808 0.902 1.175
2768.083 1.4002 1.3559 1.27283 1.25831 1.084 0.863 0.807 0.87 0.776 0.619
2787.373 0.968 0.862 0.804 1.1728 1.087 1.019 0.725 0.696 1.1305 1.049
2806.663 0.951 1.003 1.113 0.94 0.955 1.5099 1.4815 1.25293 1.25103 1.3283
2825.953 1.3152 1.3309 0.948 0.568 0.862 1.4344 1.3812 1.24605 1.3932 1.23723
2845.242 1.3656 1.4214 1.27815 1.4424 1.6235 1.4623 1.4729 2.0002 2.1319 1.9919
2864.532 2.1569 2.1945 2.0284 1.9649 1.9255 1.9932 1.6792 1.4686 1.5289 1.3749
2883.822 1.5768 1.5575 1.3148 1.029 1.008 1.3831 1.5514 1.3085 1.21481 1.3513
2903.112 1.23581 0.978 1.3411 1.54 0.879 0.952 1.5207 1.7738 1.6256 1.5837
2922.401 1.6191 1.4365 1.4789 1.7696 2.0915 2.1969 2.47 2.82 2.57 2.0199
2941.691 2.1537 2.61 2.95 2.89 2.95 3.3 3.46 4.05 4.15 3.75
2960.981 3.99 4.26 4.49 4.88 5.52 6.22 6.44 7.51 8.58 8.85
2980.271 9 8.83 8.28 7.73 7.04 6.07 5.37 4.87 4.54 4.21
2999.561 3.47 3.12 3.34 3.16 3.31 3.16 3.1 3.59 3.86 4.46
3018.850 4.89 5.21 5.7 5.76 5.65 5.41 5.03 4.85 4.9 4.83
3038.140 5.2 6.01 6.21 6.25 6.87 7.66 7.67 7.55 7.7 7.8
3057.430 7.79 8.09 8.51 8.58 8.61 8.91 9.33 9.3 9.79 9.75
3076.720 9.27 9.37 8.95 8.34 7.93 7.99 7.98 6.99 6.3 5.75
3096.009 4.82 4.44 4.06 3.92 3.67 3.09 2.79 3.16 3.65 3.7
3115.299 3.51 3.05 2.88 2.39 2.0788 2.1986 2.1095 1.4496 0.965 1.1506
3134.589 1.3719 1.6455 1.4124 1.1065 0.769 0.884 1.24522 1.01 0.852 0.904
3153.879 1.20365 1.1617 1.048 1.1517 1.067 1.054 0.926 1.24451 1.4507 1.3947
3173.169 1.4938 1.3968 1.1476 1.1765 1.4212 1.19602 1.1747 1.3851 1.1861 1.045
3192.458 1.1765 1.29415 1.3026 1.1044 0.819 1.054 1.4643 1.4248 1.19333 0.763
3211.748 0.28 0.37 0.47 0.725 1.23494 1.5011 1.3722 0.968 1.20175 1.4275
3231.038 1.23494 0.646 0.436 0.715 0.723 1.015 1.3514 1.6525 1.5372 0.989
3250.328 0.965 1.014 0.757 0.834 0.61 0.972 1.4447 1.21471 0.979 0.204
3269.617 0.343 1.1625 1.27529 1.3076 0.971 0.817 0.827 0.79 1.008 1.26395
3288.907 1.5655 1.22181 0.871 1.006 0.957 0.911 0.868 0.799 1.5395 1.9777
3308.197 1.5049 1.5402 1.551 1.25545 0.938 0.591 0.953 1.115 1.3075 1.6427
3327.487 1.4006 1.1576 1.5623 1.5797 0.839 1.1551 1.3555 0.439 0.287 0.706
3346.777 0.619 0.462 1.041 1.7326 1.5779 1.3788 1.5345 1.662 1.5021 1.1886
3366.066 1.19258 1.28818 1.25678 1.29437 0.769 0.784 1.1368 1.3621 1.308 1.3553
3385.356 1.5335 0.778 0.642 0.997 1.4494 1.21167 1.023 1.29386 1.4351 1.3711
3404.646 0.754 0.806 1.3748 1.332 0.892 0.857 1.1247 0.802 0.5 0.895
3423.936 0.952 0.492 0.619 0.943 1.1382 0.707 0.377 0.799 1.132 1.4961
3443.225 1.926 1.5763 0.943 0.917 1.137 1.7921 1.7192 1.1185 1.09 1.3329
3462.515 1.3729 0.879 0.458 0.767 0.537 0.605 1.027 0.763 0.727 0.914
3481.805 0.864 0.598 0.33 0 0.11 0.36 0.714 1.19548 1.22236 1.20083
3501.095 1.3728 1.534 1.3381 1.1111 0.784 0.629 0.612 0.708 1.2824 1.1511
3520.385 0.576 0.313 0.626 1.3873 1.6356 1.525 1.128 1.3896 1.7743 1.27216
3539.674 1.3252 1.1496 0.424 0.923 0.958 0.414 0.362 0.677 1.20089 1.27118
3558.964 0.978 0.789 1.29652 1.051 0.541 0.634 0.626 0.741 1.038 1.1479
3578.254 1.108 1.1066 0.881 0.643 0.79 1.049 1.28476 1.29766 0.981 0.651
3597.544 0.582 0.861 0.942 0.704 0.437 0.852 1.451 1.3473 1.4912 1.3838
3616.833 0.465 0.31 0.407 0.354 0.528 0.817 1.3335 1.1389 0.829 0.435
3636.123 0.3 1.21984 1.3668 1.013 0.96 0.812 1.24058 1.5174 1.4407 1.4102
3655.413 1.4994 1.8283 1.4942 1.1721 1.4645 1.21138 1.1407 1.25948 1.20992 1.4389
3674.703 1.4305 1.01 0.567 0.669 0.771 0.86 1.1211 0.934 0.9 1.3427
3693.993 1.3321 1.26047 1.4336 1.2961 1.1765 0.869 0.827 1.4408 1.7241 1.5498
3713.282 1.1668 0.849 0.492 0.444 0.933 1.026 1.1882 1.095 0.956 1.23077
3732.572 1.098 0.936 1.3321 1.4521 0.979 0.846 1.4766 1.4525 0.633 1.048
3751.862 1.562 1.3257 1.3838 1.5176 1.5155 1.1307 0.585 0.958 1.1127 0.783
3771.152 0.856 1.4605 2.04 1.5275 1.23381 1.071 1.085 0.861 0.244 0.676
3790.441 1.29727 1.25375 0.71 0.338 0.414 0.919 1.5763 1.7957 1.082 0.519
3809.731 0.958 1.3382 1.25062 1.19694 1.3731 1.003 0.767 1.5001 1.7687 1.29688
3829.021 0.857 1.005 1.4788 2.1057 1.8554 1.614 1.3475 0.383 0.613 1.6858
3848.311 1.4729 0.966 0.91 0.415 0.836 1.19977 1.5613 1.574 0.888 0.859
3867.601 1.3229 1.19653 0.96 0.604 0.288 0.595 1.1338 1.3043 1.4445 1.19585
3886.890 1.067 1.317 0.969 0.983 1.3446 1.28285 0.922 0.822 0.87 0.996
3906.180 0.658 0.689 1.25725 1.3864 1.1258 1.1616 1.4453 1.4064 1.23225 1.5412
3925.470 1.6917 1.3801 1.047 0.739 0.917 1.3048 1.085 0.643 0.518 0.628
3944.760 0.686 1.079 1.7761 1.6799 1.19372 1.059 1.7587 1.9794 1.21178 1.05
3964.049 1.083 0.263 0.301 0.708 0.634 0.717 0.903 1.084 0.631 0.54
3983.339 1.1188 1.25886 0.961 1.1537 1.1023 0.5 0.52 0.542 0.486 0.775
##END=
