##TITLE=7-Phenylheptanoic acid
##JCAMP-DX=4.24
##DATA TYPE=INFRARED SPECTRUM
##ORIGIN=EPA-IR VAPOR PHASE LIBRARY
##OWNER=SRD/NIST
Collection (C) 2018 copyright by the U.S. Secretary of Commerce
on behalf of the United States of America. All rights reserved.
##CAS REGISTRY NO=40228-90-8
##MOLFORM=C 13 H 18 O 2
##$NIST SOURCE=MSDC-IR
##STATE=gas
##XUNITS=1/CM
##YUNITS=ABSORBANCE
##XFACTOR=1.
##YFACTOR=0.001
##DELTAX=1.92898
##FIRSTX=549.8
##LASTX=4000.7
##FIRSTY=5.468
##MAXX=4000.7
##MINX=549.759
##MAXY=0.031698
##MINY=0
##NPOINTS=1790
##XYDATA=(X++(Y..Y))
549.759 5.468 5.688 5.378 5.218 5.598 5.878 5.538 5.398 5.608 5.678
569.049 5.398 5.818 6.208 6.108 6.128 5.838 5.298 5.428 5.408 5.798
588.339 6.178 5.868 6.228 6.448 6.398 6.208 6.448 6.388 6.188 6.658
607.628 6.238 6.018 6.318 5.798 5.708 6.078 5.688 4.998 5.208 5.968
626.918 5.928 5.298 4.968 5.128 5.178 4.898 4.798 4.598 4.228 4.108
646.208 3.928 3.828 3.488 3.408 3.838 3.988 3.638 3.318 3.328 3.438
665.498 3.328 3.288 3.568 3.598 3.688 3.978 3.948 4.148 4.808 5.088
684.787 5.068 5.328 6.018 7.318 8.258 8.368 8.938 9.198 8.618 8.388
704.077 8.148 7.348 6.818 6.418 6.158 6.148 6.088 5.978 5.798 5.698
723.367 5.998 6.248 6.178 6.568 6.748 6.858 7.238 6.968 6.798 6.738
742.657 6.368 5.938 5.628 5.598 5.208 4.558 4.098 3.638 3.488 3.198
761.947 2.828 2.468 2.008 2.088 2.198 1.978 1.738 1.868 2.018 1.888
781.236 1.798 2.018 1.968 1.6509 1.3756 1.4852 1.678 1.532 1.336 1.0486
800.526 1.0148 1.0823 0.995 1.1987 1.4286 1.2355 1.0759 1.1985 1.4563 1.698
819.816 1.788 1.2452 1.2641 1.708 1.5422 1.678 1.5214 0.8928 0.69515 1.1829
839.106 1.5503 1.708 1.688 1.888 1.948 1.5564 1.708 1.668 1.4157 1.3082
858.395 1.0236 1.0231 1.4459 1.5425 1.4059 1.6102 1.3977 0.9002 0.9346 1.0495
877.685 1.297 1.2797 1.2786 1.4306 1.1738 1.0665 1.2819 1.678 1.748 1.6108
896.975 1.532 1.3608 1.1738 1.3687 1.768 1.4785 1.206 1.4071 1.3752 1.4665
916.265 1.453 1.408 1.445 1.6329 1.878 1.668 1.5859 1.3369 1.4334 1.5626
935.555 1.4589 1.2866 0.8413 1.0256 1.3653 1.3386 1.241 0.9319 0.9205 1.1373
954.844 1.0859 1.2602 1.1048 1.034 1.4451 1.828 1.938 1.778 1.3238 1.0357
974.134 1.3829 1.818 1.708 1.5288 1.6541 1.2751 1.5088 1.948 2.028 2.208
993.424 2.078 1.898 1.938 2.048 2.418 2.328 2.288 2.498 2.228 2.358
1012.714 2.648 3.008 3.558 3.468 2.848 2.398 2.628 3.138 3.408 3.698
1032.003 3.638 3.818 3.878 3.558 3.638 4.548 4.528 4.288 4.968 5.238
1051.293 5.238 5.178 5.718 6.248 6.398 6.118 5.598 6.448 6.968 6.388
1070.583 6.848 7.868 7.858 7.258 7.838 8.518 8.668 8.618 8.818 9.208
1089.873 9.518 9.978 10.198 10.558 11.088 11.548 11.608 11.868 12.808 13.848
1109.163 15.108 15.868 15.938 16.408 17.548 18.938 18.168 17.508 17.408 16.328
1128.452 16.248 15.588 14.338 13.368 13.018 13.068 12.678 12.008 11.078 10.698
1147.742 10.688 10.318 10.008 9.828 9.788 9.698 9.318 9.418 9.418 9.258
1167.032 8.998 7.808 7.278 7.118 7.318 7.468 6.828 7.138 7.048 6.258
1186.322 6.508 6.878 6.298 5.938 6.218 6.118 6.278 6.618 6.378 5.398
1205.611 5.388 5.808 4.388 3.968 5.338 5.778 4.838 4.238 4.268 4.818
1224.901 4.458 4.338 4.818 4.468 3.588 3.498 4.628 3.848 3.158 3.158
1244.191 2.968 3.118 3.458 3.918 3.838 3.238 3.528 3.958 3.798 3.988
1263.481 4.028 3.988 3.708 3.558 3.668 3.588 3.948 4.208 4.258 3.828
1282.771 3.218 3.638 4.008 3.778 3.428 3.558 3.718 3.628 3.438 3.268
1302.060 3.188 3.118 3.168 3.308 3.258 3.078 3.068 3.058 3.108 3.258
1321.350 3.328 3.258 3.278 3.458 3.598 3.698 3.558 3.528 3.728 3.958
1340.640 4.068 4.048 4.198 4.358 4.448 4.548 4.668 4.728 4.828 5.108
1359.930 5.088 4.908 5.028 5.158 5.288 5.248 5.338 5.578 5.568 5.418
1379.219 5.298 5.338 5.188 4.928 4.748 4.588 4.328 4.118 3.908 3.808
1398.509 3.678 3.248 2.998 2.868 2.878 2.788 2.688 2.648 2.578 2.548
1417.799 2.478 2.678 2.848 2.888 3.008 3.068 3.038 3.098 3.228 3.248
1437.089 3.278 3.508 3.588 3.788 4.128 4.238 4.418 4.508 4.628 4.808
1456.378 4.888 4.798 4.698 4.668 4.338 3.938 3.578 3.288 3.058 2.868
1475.668 2.678 2.458 2.318 2.268 2.358 2.488 2.628 3.088 3.548 3.948
1494.958 4.228 4.288 4.068 3.648 3.158 2.528 2.108 1.788 1.5149 1.2139
1514.248 1.1669 1.3703 1.423 1.2291 1.0702 1.0649 1.2107 1.3698 1.2429 1.1827
1533.538 1.1881 1.1308 1.1873 1.1455 1.0715 1.1355 1.0585 1.1265 1.1815 1.1513
1552.827 1.0979 0.9279 0.896 1.1444 1.2856 1.1498 1.1367 1.0374 1.115 1.1987
1572.117 1.2572 1.4774 1.2976 1.1577 1.4365 1.728 1.688 1.698 1.928 1.948
1591.407 2.028 2.158 2.368 2.638 2.528 2.328 2.408 2.508 2.408 2.138
1610.697 1.868 1.688 1.6498 1.5592 1.1975 1.0751 1.2626 1.2394 1.0239 1.0907
1629.986 1.1564 1.1011 1.2054 1.0636 1.1049 1.144 1.0837 1.1445 1.2089 1.0919
1649.276 0.9954 1.2096 1.2652 1.1744 1.1325 1.1128 1.0212 0.974 1.1119 1.183
1668.566 1.1717 1.1416 1.0628 1.115 1.1576 1.0466 0.9414 1.1694 1.1987 1.0987
1687.856 1.2458 1.3011 1.27 1.2444 1.4106 1.6213 1.738 1.848 2.068 2.148
1707.146 1.958 2.008 2.218 2.358 2.568 2.688 2.778 3.048 3.368 3.618
1726.435 3.988 4.268 4.598 5.058 5.548 6.308 6.958 7.458 8.078 8.828
1745.725 9.658 10.558 11.448 12.418 13.518 14.568 15.678 16.998 18.558 20.238
1765.015 22.028 23.988 26.118 28.158 29.868 31.118 31.698 31.348 30.188 28.508
1784.305 26.568 24.428 22.318 20.378 18.728 17.228 15.678 14.248 12.878 11.678
1803.594 10.578 9.498 8.408 7.468 6.708 5.918 5.328 4.758 4.258 3.828
1822.884 3.378 3.088 2.858 2.578 2.338 2.108 1.948 1.888 1.778 1.678
1842.174 1.698 1.668 1.5531 1.5592 1.5704 1.5392 1.524 1.5037 1.4779 1.5094
1861.464 1.519 1.4136 1.3791 1.3485 1.2279 1.3117 1.3255 1.2222 1.2052 1.27
1880.754 1.2189 1.1517 1.2461 1.1693 1.0381 1.0004 1.0309 1.1381 1.1723 1.2386
1900.043 1.2104 1.0775 1.0951 1.0953 1.0383 1.1297 1.1464 1.0475 1.1802 1.2708
1919.333 1.1012 1.052 1.1565 1.2678 1.2979 1.1669 1.202 1.3871 1.4239 1.3573
1938.623 1.3674 1.4336 1.4043 1.2628 1.3254 1.4158 1.3506 1.263 1.0215 0.9824
1957.913 1.1791 1.053 0.9166 0.8838 0.8249 0.8279 0.7821 0.8226 0.8492 0.8025
1977.202 0.8416 0.9636 1.0343 1.091 0.9303 0.7856 0.8737 0.8264 0.8715 1.0637
1996.492 1.041 0.8493 0.7902 0.8308 0.8321 0.8218 0.8881 0.8391 0.813 0.9576
2015.782 1.0291 0.9141 0.74235 0.74694 0.9155 0.8227 0.67821 0.73523 0.8233 0.902
2035.072 0.8805 0.8326 0.68798 0.72453 0.96 0.9773 0.8486 0.7653 0.8795 0.9394
2054.362 0.7983 0.71841 0.72343 0.7697 0.8173 0.9043 0.8577 0.8131 0.8378 0.812
2073.651 0.8899 0.9929 0.9278 0.8355 0.9072 0.8472 0.7703 0.9086 0.8818 0.8437
2092.941 0.8976 0.7935 0.847 0.9321 0.8449 0.8882 0.9926 0.9741 0.9851 0.9793
2112.231 0.8905 0.8935 0.8971 0.8802 0.8741 0.7939 0.70288 0.5943 0.557 0.5864
2131.521 0.6167 0.74539 0.9253 0.9691 0.9516 0.8943 0.8239 0.8066 0.8735 0.7837
2150.810 0.69303 0.67969 0.69265 0.7826 0.7648 0.7854 0.7919 0.5916 0.476 0.6324
2170.100 0.833 0.8935 0.7772 0.8269 0.86 0.7855 0.6989 0.71578 0.9783 0.9167
2189.390 0.69684 0.7676 0.8524 0.75685 0.74654 0.8475 0.8257 0.8047 0.889 0.8781
2208.680 0.8004 0.7828 0.71193 0.70615 0.67848 0.6121 0.6066 0.68141 0.8836 0.8255
2227.970 0.73806 0.8753 0.8683 0.72592 0.69192 0.8494 1.0071 1.1025 0.9702 0.913
2247.259 1.0402 0.8779 0.66922 0.67206 0.659332 0.71133 0.8607 0.9946 0.9583 0.809
2266.549 0.73241 0.8604 0.9007 0.75123 0.614 0.6212 0.73767 0.70015 0.7595 0.73218
2285.839 0.71544 0.9013 0.8761 0.7685 0.8413 0.8841 0.659084 0.604 0.7767 0.9191
2305.129 0.9904 0.9657 0.9473 0.969 0.926 0.8439 0.9291 0.9745 0.8919 0.7987
2324.418 0.8407 0.8419 0.7881 0.7556 0.6196 0.5709 0.75061 0.73285 0.7698 1.0308
2343.708 1.0491 1.0219 0.9193 0.9279 1.1057 0.9374 0.68117 0.6305 0.7875 1.0738
2362.998 0.9965 0.8111 0.6424 0.5909 0.72014 0.6172 0.65584 0.70984 0.8106 0.8479
2382.288 0.72484 0.8711 0.8154 0.73285 0.8141 0.828 1.0005 0.9874 0.8454 0.8269
2401.578 0.8473 0.8242 0.8372 0.8168 0.6902 0.6475 0.667376 0.71405 0.8019 0.873
2420.867 0.9044 1.047 1.0173 0.837 0.74658 0.837 0.849 0.7626 0.8078 0.657056
2440.157 0.6337 0.74001 0.77 0.8824 0.9611 0.9519 0.7884 0.5921 0.5912 0.68095
2459.447 0.6408 0.658791 0.6396 0.7431 0.9258 0.8996 0.848 0.894 0.8693 0.8005
2478.737 0.73651 0.6022 0.464 0.5757 0.73915 0.73764 0.7845 0.67784 0.6038 0.65222
2498.026 0.69863 0.8391 0.7149 0.667312 0.9969 1.0787 0.8562 0.74027 0.7882 0.772
2517.316 0.75067 0.8427 0.8324 0.8214 0.8957 0.9457 0.9122 0.8926 0.9407 0.8077
2536.606 0.802 0.9616 0.9158 0.888 0.9036 0.9233 0.9966 0.8694 0.7627 0.75041
2555.896 0.69174 0.72295 0.661161 0.435 0.27 0.364 0.544 0.5708 0.5861 0.71666
2575.186 0.7796 0.8769 0.8937 0.75761 0.70029 0.73281 0.9895 1.0516 0.9658 0.9304
2594.475 0.9075 0.926 0.71452 0.552 0.6349 0.7877 0.8762 1.0231 1.2341 1.0274
2613.765 0.70644 0.6366 0.72131 0.75435 0.69038 0.7936 0.9471 0.788 0.73313 0.7711
2633.055 0.75091 0.8183 0.9029 1.0085 0.8781 0.8284 0.9219 0.8882 0.8934 0.8839
2652.345 0.8663 0.8546 0.8821 0.9134 0.8149 0.72145 0.69777 0.6222 0.67854 0.67977
2671.634 0.7602 0.8065 0.7994 0.9428 0.906 0.8217 0.6471 0.7484 0.9171 0.9408
2690.924 0.9136 0.76 0.8362 0.9522 0.8498 1.0002 1.1033 0.9343 0.9297 0.781
2710.214 0.6031 0.72683 0.8989 1.0725 1.0728 0.9254 0.8655 0.8675 0.9226 0.7501
2729.504 0.6423 0.7941 1.0045 1.1815 1.1177 0.8901 0.8069 0.8516 0.8339 1.0613
2748.794 1.1719 0.9501 0.776 0.6962 0.8325 0.9819 1.0916 1.1411 0.9387 0.9621
2768.083 1.0519 0.9128 0.9182 0.9764 0.7837 0.5632 0.8531 1.3543 1.2824 0.9228
2787.373 1.048 1.1432 1.15 1.2726 1.3725 1.4119 1.3874 1.526 1.4991 1.4867
2806.663 1.444 1.2472 1.1864 1.1674 1.1761 1.3402 1.2774 1.2546 1.4753 1.6071
2825.953 1.678 1.6256 1.5616 1.748 2.058 2.268 2.338 2.468 2.608 2.888
2845.242 3.188 3.678 4.148 4.588 5.308 6.168 7.088 7.868 8.538 8.978
2864.532 9.478 9.748 9.398 9.008 8.878 8.408 7.548 6.808 6.328 5.948
2883.822 5.588 5.448 5.438 5.168 4.968 4.968 5.268 5.428 5.538 5.778
2903.112 5.938 6.708 7.328 7.998 8.818 9.258 10.188 11.548 12.898 13.968
2922.401 15.208 16.738 18.108 19.578 21.018 22.448 23.748 24.488 24.928 24.878
2941.691 24.018 22.828 21.258 19.668 18.018 16.268 14.658 12.898 11.508 10.268
2960.981 9.158 8.408 7.558 6.758 6.028 5.318 5.158 4.898 4.278 3.908
2980.271 3.858 3.758 3.608 3.418 3.188 3.188 2.978 2.958 2.988 2.768
2999.561 2.678 2.628 2.978 3.148 2.888 2.998 3.008 2.888 3.358 3.648
3018.850 3.908 4.348 4.938 5.468 6.008 6.508 6.678 7.318 7.048 6.378
3038.140 5.958 5.318 4.688 3.908 3.548 3.478 3.498 3.458 3.488 3.518
3057.430 3.868 4.408 4.728 5.238 5.628 5.918 6.218 6.498 6.208 5.658
3076.720 5.148 4.438 3.898 3.978 3.988 3.898 3.588 3.078 3.068 3.218
3096.009 2.858 2.558 2.488 2.258 2.208 1.948 1.668 1.728 1.858 1.838
3115.299 1.808 1.6112 1.5851 1.5059 0.9008 0.6046 0.512 0.618 0.8864 1.0107
3134.589 1.0801 0.931 0.8034 0.8841 1.1244 1.1152 1.0009 0.9564 1.0714 1.0733
3153.879 1.1388 0.9743 0.536 0.371 0.349 0.66864 1.0536 0.8919 0.70526 0.9243
3173.169 0.8218 0.6002 0.768 0.9608 0.6445 0.49 0.6339 0.7416 0.70088 0.74918
3192.458 0.496 0.243 0.660243 0.8448 0.69374 0.522 0.486 0.68622 0.70732 0.5623
3211.748 0.5907 0.8828 0.69774 0.504 0.69131 0.6752 0.67906 0.529 0.8048 0.8567
3231.038 0.418 0.422 0.258 0.534 0.661735 0.6329 0.8082 0.7549 0.73851 0.65674
3250.328 0.66885 0.8424 0.7946 0.70754 0.75146 0.48 0.496 0.402 0.508 0.8028
3269.617 1.0296 0.9513 0.6466 0.385 0.172 0.321 0.452 0.43 0.408 0.73112
3288.907 0.9572 0.9465 1.0246 0.75272 0.398 0.342 0.366 0.539 0.6185 0.532
3308.197 0.73846 0.65585 0.512 0.71282 0.72291 0.554 0.151 0 0.178 0.416
3327.487 0.204 0.048 0.343 0.7956 0.7907 0.521 0.6399 0.557 0.556 0.6741
3346.777 0.5942 0.65562 1.0278 1.059 0.7893 0.72646 0.442 0.404 0.6157 0.8033
3366.066 0.6405 0.447 0.73718 0.9914 1.1308 1.0912 1.2099 0.9013 0.361 0.341
3385.356 0.70723 1.0419 0.7604 0.559 0.5995 0.8289 1.0906 0.8623 0.8798 0.602
3404.646 0.45 0.7683 0.8271 0.67919 0.514 0.7201 0.554 0.244 0.307 0.6291
3423.936 1.0358 0.9908 1.1241 1.1005 0.8887 1.009 1.0246 0.8027 0.69942 0.5686
3443.225 0.519 0.855 0.8473 0.9274 1.0781 0.8075 0.495 0.6242 0.8002 0.6103
3462.515 0.5823 0.75192 0.8449 0.9487 0.9774 0.7663 0.8167 0.9971 0.9426 0.9231
3481.805 1.0866 1.1423 1.0543 1.0251 0.8878 0.6366 0.5878 1.0071 1.1036 0.9922
3501.095 0.645 0.356 0.8614 1.188 1.1194 1.2534 1.6171 1.3246 1.0566 1.1503
3520.385 1.123 1.1416 1.1322 0.9575 0.8973 1.0144 1.0761 1.4207 1.5563 1.4031
3539.674 1.4604 1.644 1.658 1.1471 1.2098 1.768 2.078 2.318 2.448 2.788
3558.964 3.338 4.148 5.108 5.948 7.228 8.918 10.838 12.788 13.488 13.428
3578.254 12.488 10.318 8.368 6.528 5.288 4.528 3.458 2.858 2.368 1.898
3597.544 1.848 1.958 1.988 1.698 1.738 1.6064 1.0426 0.8219 1.2597 1.4209
3616.833 1.0569 1.1173 1.0527 1.0628 1.0098 0.9806 0.8579 0.68072 0.9277 0.9904
3636.123 0.6053 0.65696 0.9819 0.7998 0.33 0.451 0.557 0.6165 1.0158 0.7747
3655.413 0.71207 0.74875 0.542 0.361 0.137 0.278 0.499 0.371 0.517 0.8361
3674.703 0.9458 0.7649 0.664555 0.8579 0.8028 0.674 0.905 1.0133 0.8376 0.9231
3693.993 0.8302 0.703 1.1015 1.2796 0.8771 0.64934 0.515 0.473 0.474 0.5621
3713.282 0.837 0.8041 0.5778 0.72374 1.0419 0.9561 0.9002 0.7829 0.69328 0.474
3732.572 0.41 0.6174 0.8135 1.2542 0.9764 0.5738 0.6011 0.8924 0.7937 0.529
3751.862 0.68579 0.467 0.329 0.475 0.74545 0.9028 0.75194 0.5623 0.538 0.658087
3771.152 0.6115 0.476 0.614 0.769 1.0564 1.2916 0.8476 0.6498 0.447 0.195
3790.441 0.474 0.65462 0.8466 0.65391 0.235 0.236 0.401 0.297 0.277 0.5582
3809.731 0.493 0.401 0.299 0.289 0.74158 0.777 0.7748 1.1854 1.412 1.2497
3829.021 1.2681 1.3287 1.0106 0.516 0.422 0.8021 0.7285 0.8095 0.9951 0.74178
3848.311 0.72377 0.71398 0.5634 0.366 0.6307 0.8921 0.9252 1.0053 0.54 0.2
3867.601 0.499 0.72092 0.8898 1.0075 0.794 0.68272 0.6238 0.496 0.6329 1.1513
3886.890 1.1696 0.9408 0.891 0.8964 1.0035 0.72702 0.7627 0.8452 0.73619 0.6137
3906.180 0.482 0.512 0.5928 0.72928 0.6367 0.67164 0.70293 0.7645 0.5958 0.71161
3925.470 1.0967 1.1679 1.0148 0.75015 0.548 0.39 0.187 0.178 0.6102 0.71069
3944.760 0.6012 1.0427 1.1594 1.359 1.3508 0.9638 0.9378 0.9022 0.9067 0.68769
3964.049 0.376 0.483 0.553 0.517 0.9439 1.1588 0.9443 1.1249 1.0892 0.6324
3983.339 0.5608 0.446 0.6241 0.74265 0.7713 1.0982 1.2609 0.8778 0.66449 0.386
##END=
