##TITLE=Ethyl 3-methylpyrazole-5-carboxylate
##JCAMP-DX=4.24
##DATA TYPE=INFRARED SPECTRUM
##ORIGIN=EPA-IR VAPOR PHASE LIBRARY
##OWNER=SRD/NIST
Collection (C) 2018 copyright by the U.S. Secretary of Commerce
on behalf of the United States of America. All rights reserved.
##CAS REGISTRY NO=4027-57-0
##MOLFORM=C 7 H 10 N 2 O 2
##$NIST SOURCE=MSDC-IR
##STATE=gas
##XUNITS=1/CM
##YUNITS=ABSORBANCE
##XFACTOR=1.
##YFACTOR=0.001
##DELTAX=1.92898
##FIRSTX=549.8
##LASTX=4000.7
##FIRSTY=14.902
##MAXX=4000.7
##MINX=549.759
##MAXY=0.117372
##MINY=0
##NPOINTS=1790
##XYDATA=(X++(Y..Y))
549.759 14.902 14.802 14.292 13.852 13.382 12.242 10.882 10.082 9.232 8.082
569.049 7.382 6.482 5.432 4.822 4.402 4.052 3.552 3.012 2.662 2.312
588.339 2.322 2.652 2.532 2.102 2.012 2.252 2.352 2.402 2.292 2.052
607.628 2.092 2.032 2.092 1.982 2.032 2.522 2.232 1.862 2.292 2.642
626.918 2.922 3.412 3.402 3.542 4.222 4.542 4.262 3.702 3.172 3.182
646.208 3.752 3.562 3.102 2.862 2.552 3.352 3.672 3.882 4.222 4.142
665.498 4.562 4.762 5.402 6.042 5.882 5.712 5.672 5.642 5.352 4.802
684.787 4.422 4.052 3.422 3.032 2.862 2.732 2.622 2.192 2.042 2.212
704.077 1.862 1.5146 1.3811 1.6323 1.922 1.6795 1.4846 1.5318 1.842 1.922
723.367 1.7621 1.7823 1.7869 1.992 2.272 2.462 2.492 2.582 2.882 3.032
742.657 3.352 4.172 4.832 5.692 6.752 7.912 9.702 11.202 12.632 14.632
761.947 16.532 18.522 20.242 21.282 22.452 23.102 22.142 20.482 19.172 17.712
781.236 15.972 14.042 12.112 10.302 9.202 8.452 7.282 6.242 5.782 5.922
800.526 5.832 5.892 6.252 6.682 7.432 7.822 7.972 9.002 9.732 9.842
819.816 10.742 11.392 11.162 10.802 10.542 9.622 8.532 7.982 7.872 7.632
839.106 6.952 6.022 5.452 5.212 4.652 4.282 4.212 4.112 4.112 4.022
858.395 3.762 4.282 4.782 4.542 4.262 3.712 3.732 3.862 3.572 3.382
877.685 3.172 3.192 2.892 2.502 2.382 2.452 2.632 2.552 2.272 2.212
896.975 2.252 2.112 2.062 2.002 1.882 1.842 1.962 2.362 2.412 2.092
916.265 2.192 2.312 2.262 2.372 2.502 2.092 2.272 2.622 2.252 2.412
935.555 2.872 3.282 2.982 2.472 2.872 3.402 3.662 3.742 4.002 4.862
954.844 5.312 5.822 6.592 7.492 8.312 8.972 10.312 11.682 12.642 14.342
974.134 16.002 17.332 19.222 20.832 21.692 21.822 21.832 22.022 21.642 20.832
993.424 19.482 17.852 16.812 16.112 15.732 15.372 15.542 15.882 16.282 17.372
1012.714 19.312 22.142 25.112 28.982 33.212 37.612 43.102 47.642 50.192 51.042
1032.003 50.242 47.992 44.132 39.032 33.772 27.632 22.092 18.612 16.112 13.822
1051.293 12.302 11.422 11.482 12.262 12.622 13.412 14.332 14.652 15.322 15.972
1070.583 17.362 18.262 18.652 20.032 20.462 22.312 24.952 26.192 29.232 31.592
1089.873 32.762 36.382 40.572 44.842 47.792 49.392 50.702 50.772 49.872 47.642
1109.163 43.792 39.022 33.652 30.302 27.922 25.622 23.722 21.522 20.972 21.672
1128.452 21.072 19.322 18.062 16.992 15.822 15.272 15.252 15.422 16.292 17.022
1147.742 18.302 20.012 22.312 26.032 29.432 32.942 37.042 39.822 41.702 42.832
1167.032 42.342 41.642 39.972 36.982 33.202 28.972 25.722 24.332 24.302 25.402
1186.322 27.312 29.002 31.532 36.672 43.152 50.402 60.482 71.402 81.392 91.432
1205.611 100.712 108.602 114.692 117.372 116.522 112.492 107.362 101.072 92.592 83.362
1224.901 75.022 67.952 59.532 49.522 40.762 33.412 27.752 23.482 19.542 16.402
1244.191 14.122 12.812 12.132 11.802 11.732 11.822 12.712 14.182 16.142 19.402
1263.481 23.252 27.882 32.962 37.982 43.612 48.712 52.072 54.202 55.862 57.182
1282.771 58.052 58.542 59.952 63.002 66.802 70.742 74.212 76.712 77.442 76.282
1302.060 73.722 69.052 62.392 54.822 47.722 41.342 35.782 31.192 27.202 23.812
1321.350 21.092 19.072 17.362 16.072 15.282 14.702 14.272 14.022 13.802 13.602
1340.640 13.552 13.372 13.032 12.702 12.452 12.162 11.942 11.822 11.742 11.872
1359.930 12.022 12.592 13.682 15.202 17.392 20.262 23.502 26.572 29.552 32.422
1379.219 35.052 37.072 38.182 38.032 37.002 35.752 34.332 32.562 30.442 28.522
1398.509 26.942 25.392 23.942 22.542 20.912 19.182 17.582 16.142 14.982 14.002
1417.799 13.292 12.872 12.722 12.702 12.962 13.342 13.802 14.412 15.052 15.652
1437.089 16.572 17.832 19.182 20.632 22.592 25.192 28.392 32.112 36.342 40.502
1456.378 44.742 48.752 51.442 52.962 52.882 51.232 48.452 44.762 40.002 34.232
1475.668 29.002 24.422 20.692 17.562 15.172 13.282 11.692 10.442 9.302 8.492
1494.958 7.862 7.282 6.982 6.812 6.482 6.192 6.002 5.662 5.352 5.322
1514.248 5.242 5.042 5.092 5.072 5.092 5.122 5.362 5.542 5.612 5.762
1533.538 5.922 6.182 6.342 6.682 6.972 7.312 7.692 8.002 8.432 9.022
1552.827 9.522 10.052 10.352 10.672 11.092 11.102 10.972 10.612 9.972 9.322
1572.117 8.702 8.042 7.252 6.542 6.062 5.432 4.822 4.252 3.772 3.692
1591.407 3.732 3.582 3.402 3.272 3.042 2.862 2.872 2.982 3.002 2.832
1610.697 2.762 2.872 3.132 3.092 2.952 3.072 3.272 3.322 3.422 3.602
1629.986 3.512 3.592 3.652 3.732 3.862 3.942 4.032 3.902 3.952 3.982
1649.276 3.782 3.782 3.782 3.672 3.712 3.552 3.332 3.362 3.342 3.392
1668.566 3.502 3.542 3.492 3.562 3.722 3.842 4.072 4.232 4.412 4.712
1687.856 5.142 5.462 5.852 6.412 6.952 7.312 8.002 9.202 10.402 11.672
1707.146 13.152 15.362 18.192 21.432 25.542 30.682 36.942 43.862 52.092 61.222
1726.435 70.662 79.582 86.822 91.612 94.712 97.222 98.942 99.082 96.702 92.022
1745.725 86.562 81.362 76.572 71.682 66.672 62.522 59.342 56.042 50.602 43.372
1765.015 36.222 30.082 25.082 20.962 17.112 13.982 11.602 9.782 8.332 7.232
1784.305 6.422 5.682 5.212 4.892 4.622 4.522 4.442 4.302 4.092 3.872
1803.594 3.862 3.852 3.942 3.902 3.662 3.552 3.502 3.462 3.252 3.052
1822.884 2.912 2.822 2.892 2.822 2.682 2.612 2.522 2.352 2.282 2.312
1842.174 2.232 2.132 2.062 2.082 2.132 2.162 2.122 2.042 1.842 1.822
1861.464 1.922 1.892 1.942 1.902 1.852 1.822 1.902 1.922 1.972 2.032
1880.754 2.022 2.012 1.942 1.972 2.052 2.082 2.032 2.072 2.102 2.032
1900.043 1.882 1.7794 1.7357 1.6211 1.5628 1.5243 1.4315 1.4088 1.4572 1.4242
1919.333 1.2917 1.2221 1.2079 1.1975 1.2276 1.2341 1.2357 1.1221 1.0436 1.1564
1938.623 1.1556 1.2185 1.3198 1.277 1.2579 1.1787 1.1136 1.3473 1.5347 1.4135
1957.913 1.2874 1.3176 1.5051 1.509 1.4594 1.5102 1.5117 1.5005 1.4539 1.4393
1977.202 1.4406 1.4253 1.4927 1.5055 1.3592 1.299 1.3113 1.2363 1.1579 1.1503
1996.492 1.1583 1.191 1.227 1.2593 1.1378 1.0251 1.1095 1.0825 1.154 1.1274
2015.782 1.0465 1.0518 1.0683 1.068 1.0258 1.0597 1.0766 1.1912 1.1606 1.1308
2035.072 1.2336 1.2186 1.1913 1.2449 1.258 1.207 1.2237 1.2805 1.234 1.3169
2054.362 1.4688 1.4159 1.4454 1.4949 1.4208 1.5326 1.713 1.6763 1.5357 1.4874
2073.651 1.4969 1.5727 1.6247 1.6153 1.6346 1.4803 1.4979 1.5711 1.3847 1.3832
2092.941 1.4032 1.3359 1.3358 1.2698 1.2994 1.2831 1.2122 1.1173 1.0306 1.0792
2112.231 1.0968 1.0688 1.1581 1.2194 1.2224 1.2358 1.1615 1.194 1.2981 1.3253
2131.521 1.2443 1.2657 1.2983 1.1644 1.1202 1.1992 1.0932 1.0782 1.1082 1.1518
2150.810 1.34 1.4363 1.3409 1.151 1.0794 1.0506 0.9704 1.0429 1.0523 1.0228
2170.100 0.8984 0.7812 0.9327 1.0501 1.0992 1.0682 1.0598 1.0471 0.9997 1.0322
2189.390 1.0268 0.9827 1.1007 1.1165 1.1253 1.2761 1.2039 1.1609 1.2105 1.1604
2208.680 1.2585 1.3384 1.379 1.2679 1.0496 1.0558 1.0986 0.9936 0.86135 0.9378
2227.970 0.9595 0.89187 1.0949 1.2326 1.2613 1.219 1.2661 1.3119 1.2193 1.2927
2247.259 1.352 1.1902 1.0233 0.9023 0.9006 1.0771 1.1603 1.1615 1.1229 1.1405
2266.549 1.1571 1.1378 1.2346 1.1836 1.0788 1.0421 1.1149 1.2037 1.1765 1.111
2285.839 1.0725 1.0808 1.1743 1.1661 1.0954 1.2888 1.3152 1.2212 1.307 1.3024
2305.129 1.2447 1.2559 1.1817 1.1243 1.1874 1.2884 1.2329 1.1743 1.3398 1.5186
2324.418 1.3666 1.3185 1.4249 1.4505 1.3874 1.2345 1.2758 1.3287 1.2289 1.0789
2343.708 1.0319 1.1377 1.2017 1.1696 1.1514 1.1529 1.1347 1.1273 1.214 1.285
2362.998 1.1061 1.1257 1.1707 1.0829 1.259 1.2668 1.2082 1.2168 1.151 1.3242
2382.288 1.4787 1.3006 1.2747 1.3094 1.2209 1.1258 1.109 1.2164 1.3704 1.3713
2401.578 1.1279 1.0703 1.1993 1.2314 1.2311 1.2816 1.2423 1.2017 1.3136 1.3564
2420.867 1.4552 1.5731 1.5011 1.5528 1.6638 1.6507 1.4692 1.3495 1.4165 1.4461
2440.157 1.4489 1.2512 1.2891 1.2842 1.0978 1.136 1.1447 1.2051 1.2176 1.2601
2459.447 1.3049 1.1849 1.2372 1.3903 1.119 0.9682 1.0271 1.062 1.3368 1.1633
2478.737 0.908 1.0523 1.1329 1.1766 1.2164 1.3454 1.2691 1.1643 1.1773 1.0884
2498.026 1.1065 1.1062 1.0522 1.0197 1.0774 1.0738 1.057 1.0957 0.9675 0.86393
2517.316 1.0308 1.0305 0.8873 1.0869 1.1839 1.0222 1.0819 1.1767 1.1455 1.1417
2536.606 1.1282 1.1728 1.1933 1.2799 1.3139 1.1892 1.1293 1.3388 1.3141 1.1416
2555.896 1.1928 1.3275 1.5713 1.5678 1.2677 1.219 1.3026 1.1238 1.1649 1.1517
2575.186 1.0708 1.2388 1.2149 1.2073 1.1508 1.1224 1.1613 1.0971 1.2012 1.0455
2594.475 0.9474 1.2142 1.2615 0.9 0.9009 1.2561 1.2596 1.2397 1.2697 1.2663
2613.765 1.2678 1.1257 1.0357 1.0743 1.2558 1.4967 1.432 1.1976 1.0044 1.0599
2633.055 1.1526 1.0381 1.0111 1.0441 1.1452 1.217 1.1388 0.9974 0.82974 0.9211
2652.345 0.9708 0.9354 1.09 1.0306 1.0125 1.0966 0.8981 1.0149 1.1579 1.0493
2671.634 1.2031 1.0982 0.9072 1.125 1.3057 1.2945 1.2802 0.9766 0.7737 0.83848
2690.924 0.86342 0.84659 0.86527 0.9341 1.0147 1.1724 1.2626 1.0547 1.0303 1.168
2710.214 1.2111 1.3833 1.2 0.9863 1.0861 1.1105 1.1465 1.2988 1.3101 1.3182
2729.504 1.4817 1.6094 1.5449 1.5699 1.5775 1.6138 1.6573 1.5861 1.5904 1.4881
2748.794 1.425 1.4887 1.5494 1.6469 1.7399 1.7372 1.6127 1.5153 1.4264 1.2805
2768.083 1.3788 1.4776 1.6108 1.5692 1.6291 1.822 1.5497 1.3911 1.5593 1.4732
2787.373 1.1747 1.5898 1.7321 1.3793 1.5468 1.992 2.222 2.052 1.822 1.7644
2806.663 1.982 2.172 2.372 2.462 2.292 2.462 2.702 2.742 2.782 2.922
2825.953 3.052 3.012 2.962 2.742 2.602 2.772 2.832 2.982 3.042 3.012
2845.242 3.032 2.902 2.862 2.842 2.952 3.192 3.482 3.562 3.442 3.522
2864.532 3.682 3.942 4.412 4.942 5.212 5.292 5.732 6.142 6.452 7.142
2883.822 7.672 7.962 8.092 7.972 7.942 8.112 8.192 8.192 8.322 8.412
2903.112 8.282 8.042 8.062 8.752 9.312 9.312 9.342 9.302 9.242 9.732
2922.401 10.222 10.612 11.202 11.972 13.252 14.562 15.872 17.402 18.772 19.812
2941.691 20.412 20.682 20.432 19.972 19.232 18.042 16.762 15.322 14.232 13.482
2960.981 13.102 13.182 13.482 13.902 14.222 14.802 15.722 16.822 18.212 19.752
2980.271 21.412 22.682 23.292 23.582 23.562 23.112 22.342 21.422 20.132 18.502
2999.561 16.612 15.012 14.042 13.312 12.442 11.712 11.032 10.352 9.752 8.972
3018.850 8.462 8.092 7.782 7.422 6.532 5.952 5.842 5.392 5.062 4.972
3038.140 4.802 4.872 4.622 3.992 4.092 4.012 3.782 3.742 3.392 3.472
3057.430 3.322 3.072 3.052 2.862 3.062 3.012 2.812 2.862 2.792 2.632
3076.720 2.682 2.642 2.612 2.482 2.372 2.282 2.172 2.132 2.072 1.922
3096.009 1.812 1.922 2.032 2.022 1.952 1.982 2.162 2.042 1.7714 1.982
3115.299 1.862 1.7345 1.902 1.862 1.5847 1.429 1.2782 1.1195 1.3509 1.3526
3134.589 1.4399 1.4927 1.3367 1.3464 1.4213 1.4987 1.3323 1.351 1.7386 1.6304
3153.879 1.2766 1.3237 1.2132 1.2287 1.1719 1.0989 1.1948 1.092 1.167 1.0634
3173.169 1.1305 1.356 1.1737 0.9155 0.536 0.7057 0.9149 0.679 0.604 0.667
3192.458 0.7136 0.8475 1.0592 0.9714 1.0387 1.1301 1.0892 1.1992 1.2488 1.2499
3211.748 1.2593 1.2014 1.0497 1.0422 1.1234 0.9688 0.683 0.7014 0.9322 0.84962
3231.038 1.0369 1.015 0.7163 0.7025 0.759 0.915 0.9168 0.9806 1.0742 1.0551
3250.328 0.87244 0.82825 0.85067 0.799297 0.587 0.4 0.548 0.687 0.791474 0.87569
3269.617 0.9486 0.9568 1.0232 1.096 1.0831 0.7679 0.87197 1.3203 1.1843 0.83782
3288.907 0.7515 0.80951 1.0766 1.2762 1.1131 0.9726 1.0715 1.2287 1.1302 1.1816
3308.197 1.128 0.9665 0.84871 1.0747 1.0367 0.7552 0.7279 0.529 0.80801 0.9646
3327.487 0.9431 0.9941 0.82651 0.7021 0.684 0.7383 0.81048 0.86153 0.9972 0.9466
3346.777 0.86324 0.7632 0.81017 0.80735 0.544 0.473 0.462 0.7758 0.9126 1.0714
3366.066 1.0907 0.7272 0.9636 1.0318 1.0982 1.5113 1.2891 1.0391 1.0164 0.893
3385.356 1.1239 1.144 0.9499 1.0257 1.092 0.88114 0.87843 0.7665 0.636 0.7655
3404.646 0.645 0.582 0.657 1.0757 0.8066 0.533 1.0947 1.4518 1.611 1.645
3423.936 1.1865 0.7317 0.8314 1.5072 2.012 1.842 2.032 1.972 2.072 2.642
3443.225 2.972 3.092 3.032 3.192 3.592 3.912 4.322 4.782 5.082 5.802
3462.515 6.942 7.982 8.962 10.262 11.952 14.032 16.052 18.482 21.562 24.442
3481.805 27.662 31.622 35.482 38.492 40.182 40.392 39.582 39.682 40.662 40.752
3501.095 38.932 35.732 31.762 27.232 23.452 20.862 18.552 15.732 12.472 9.642
3520.385 7.702 5.862 4.642 4.192 3.582 2.862 2.372 1.982 1.982 1.922
3539.674 1.5167 1.4657 1.5681 1.5036 1.3502 1.0796 0.9718 1.1455 1.1684 1.0393
3558.964 0.88139 0.86904 1.097 1.0199 0.8613 1.0034 1.0464 1.2448 1.2603 0.639
3578.254 0.483 0.9915 0.9307 0.7472 0.9451 1.0235 1.0178 0.9131 0.83368 0.9316
3597.544 0.78287 0.603 0.55 0.464 0.632 0.602 0.495 0.83506 1.1323 0.9019
3616.833 0.392 0.476 0.7773 0.832 0.87033 0.675 0.7252 0.7041 0.152 0.188
3636.123 0.545 0.423 0.302 0.407 0.43 0.344 0.333 0.542 0.63 0.9102
3655.413 0.78787 0.523 0.7708 0.656 0.629 0.764 0.495 0.269 0.228 0.195
3674.703 0.532 0.7549 0.572 0.449 0.174 0.123 0.503 0.626 0.648 0.84529
3693.993 0.7271 0.467 0.82094 0.686 0.194 0.389 0.443 0.533 0.7797 0.84211
3713.282 0.654 0.635 0.7711 0.524 0.518 0.8995 1.0747 0.9838 0.7595 0.608
3732.572 0.341 0.351 0.358 0.413 0.7396 0.7071 0.7718 1.0328 0.82244 0.83839
3751.862 0.9215 0.454 0.624 1.0811 1.0254 0.83897 0.86801 0.86995 0.7569 0.609
3771.152 0.556 0.7265 0.752 0.80192 0.7809 0.584 0.637 0.642 0.7435 0.82218
3790.441 0.7549 0.538 0.599 0.7659 0.441 0.368 0.166 0 0.382 0.7175
3809.731 0.684 0.633 0.7043 0.408 0.063 0.537 0.83799 0.511 0.668 0.9966
3829.021 1.0359 1.2093 1.1016 1.0376 1.3919 1.3913 1.2511 1.3667 1.111 0.693
3848.311 0.645 0.433 0.338 0.604 0.79082 0.8401 0.9752 0.7448 0.527 0.65
3867.601 0.673 0.82285 0.88185 0.83896 0.774 0.512 0.66 0.78789 0.6982 0.75
3886.890 0.4 0.466 0.657 0.632 0.642 0.42 0.553 0.662 0.656 0.82185
3906.180 1.0496 1.1421 1.0233 0.80683 0.682 0.7288 0.7185 0.474 0.339 0.669
3925.470 0.7665 0.531 0.394 0.523 0.801319 0.9057 0.724 0.603 0.7376 0.572
3944.760 0.684 0.518 0.324 0.414 0.48 0.9119 0.529 0.333 0.7246 0.614
3964.049 0.56 0.63 0.81303 1.1924 1.1688 0.88032 0.9222 0.85999 0.9943 1.0742
3983.339 0.7594 0.80251 1.189 1.3052 1.1561 1.2639 1.1094 0.87985 0.704 0.7097
##END=
