##TITLE=2-Iodomesitylene
##JCAMP-DX=4.24
##DATA TYPE=INFRARED SPECTRUM
##ORIGIN=EPA-IR VAPOR PHASE LIBRARY
##OWNER=SRD/NIST
Collection (C) 2018 copyright by the U.S. Secretary of Commerce
on behalf of the United States of America. All rights reserved.
##CAS REGISTRY NO=4028-63-1
##MOLFORM=C 9 H 11 I
##$NIST SOURCE=MSDC-IR
##STATE=gas
##XUNITS=1/CM
##YUNITS=ABSORBANCE
##XFACTOR=1.
##YFACTOR=0.001
##DELTAX=1.92898
##FIRSTX=549.8
##LASTX=4000.7
##FIRSTY=12.166
##MAXX=4000.7
##MINX=549.759
##MAXY=0.078706
##MINY=0
##NPOINTS=1790
##XYDATA=(X++(Y..Y))
549.759 12.166 11.656 10.766 9.716 8.566 7.016 5.196 3.666 2.596 1.856
569.049 1.3707 1.1746 1.233 1.2288 1.2748 1.416 1.0137 0.7723 0.794 0.6897
588.339 0.5734 0.49149 0.7284 1.0009 0.8169 0.566 0.47685 0.43558 0.6225 0.7318
607.628 0.7028 0.8415 1.1326 1.2117 1.456 1.986 2.216 2.196 2.256 2.396
626.918 2.386 2.006 1.436 0.9814 0.6059 0.7003 0.8723 0.6876 0.5287 0.5533
646.208 0.5288 0.50191 0.6198 0.6992 0.5614 0.42661 0.44923 0.6201 0.6654 0.5508
665.498 0.40405 0.269 0.50572 0.7272 0.9205 1.3726 1.746 2.056 2.456 3.016
684.787 3.636 4.196 4.626 5.416 6.606 6.506 5.246 4.426 4.186 3.926
704.077 3.436 3.056 2.706 2.126 1.716 1.596 1.496 1.3357 1.1429 1.1761
723.367 1.1986 1.1173 1.0498 0.9627 0.8756 0.8596 0.8162 0.9685 0.9638 0.7152
742.657 0.8746 0.8656 0.747 0.9394 1.3369 1.666 2.006 2.486 2.796 3.056
761.947 3.136 3.156 3.096 2.846 2.456 2.046 1.736 1.546 1.426 1.536
781.236 1.656 1.536 1.586 1.516 1.3868 1.536 1.546 1.476 1.486 1.3852
800.526 1.426 1.3806 1.3367 1.506 1.656 1.556 1.506 1.756 2.006 2.176
819.816 2.406 2.686 3.356 4.576 6.106 8.426 11.096 14.226 17.776 21.386
839.106 24.756 28.076 32.376 37.626 38.526 32.006 25.766 22.616 19.716 16.416
858.395 12.876 9.556 6.896 5.196 4.086 3.226 2.806 2.606 2.306 2.226
877.685 2.216 2.106 2.036 2.136 2.206 2.126 2.056 2.176 2.316 2.246
896.975 2.186 2.216 2.216 2.346 2.396 2.346 2.506 2.666 2.666 2.686
916.265 2.896 3.126 3.196 3.286 3.536 3.936 4.406 4.946 5.666 6.746
935.555 8.136 9.646 11.216 12.716 13.846 14.136 13.826 13.206 11.946 10.316
954.844 8.556 6.816 5.456 4.596 4.066 3.796 3.786 3.676 3.676 3.806
974.134 4.036 4.506 5.206 6.386 8.106 10.266 12.886 16.416 21.046 27.566
993.424 36.406 47.206 58.816 68.656 74.956 78.186 78.706 75.756 68.706 57.636
1012.714 45.366 35.586 30.056 27.876 27.146 26.436 25.066 23.226 21.306 19.766
1032.003 17.646 15.406 13.456 11.416 10.096 9.216 8.496 7.696 7.006 6.586
1051.293 5.696 4.826 4.536 4.426 4.286 4.106 3.706 3.406 3.286 3.176
1070.583 3.256 3.406 3.546 3.706 4.016 4.226 3.786 3.366 3.396 3.326
1089.873 2.766 2.246 2.216 2.236 2.306 2.176 1.916 1.766 1.786 1.926
1109.163 2.096 2.146 2.236 2.316 2.076 2.076 2.126 2.276 2.466 2.246
1128.452 2.016 1.786 1.986 2.236 2.276 2.236 2.056 1.976 2.146 2.266
1147.742 2.136 1.946 1.876 2.296 2.576 2.446 2.506 2.866 3.376 4.056
1167.032 4.726 5.556 6.636 7.636 7.996 7.696 7.546 7.406 6.446 4.916
1186.322 3.816 2.786 2.156 2.136 2.046 2.346 2.356 2.096 2.206 2.256
1205.611 2.456 2.516 2.196 2.086 2.096 2.516 2.836 2.546 2.106 1.996
1224.901 2.166 2.196 2.046 2.036 2.136 2.136 2.256 2.336 2.216 2.206
1244.191 2.206 2.176 2.326 2.416 2.526 2.476 2.316 2.666 2.916 2.736
1263.481 2.606 2.526 2.516 2.686 2.736 2.896 3.076 3.186 3.646 4.316
1282.771 5.166 6.276 7.876 9.436 10.576 11.376 11.666 11.356 10.586 9.466
1302.060 7.976 6.266 4.796 3.806 3.306 3.076 2.966 2.966 2.956 2.956
1321.350 2.886 2.926 3.036 3.096 3.126 3.106 3.086 3.066 3.046 3.036
1340.640 3.026 3.076 3.126 3.166 3.236 3.356 3.506 3.716 3.946 4.156
1359.930 4.426 4.746 5.176 5.776 6.576 7.666 9.096 11.076 13.566 16.006
1379.219 17.706 18.456 18.846 19.616 19.866 18.506 16.336 14.406 13.116 12.586
1398.509 12.836 13.636 14.756 15.916 17.046 18.086 18.966 19.696 20.196 20.566
1417.799 20.896 21.226 21.716 22.486 23.526 24.686 25.956 27.426 29.016 30.766
1437.089 32.626 34.376 36.116 37.966 39.906 41.606 42.906 44.156 45.466 46.786
1456.378 48.136 49.526 50.626 51.136 50.856 49.566 47.426 44.646 41.406 37.706
1475.668 33.556 29.496 26.126 23.456 21.446 19.926 18.716 17.646 16.606 15.646
1494.958 14.836 14.116 13.506 13.036 12.626 12.316 12.086 11.996 11.996 12.006
1514.248 11.976 12.016 12.106 12.136 12.066 12.026 12.036 11.956 11.856 11.686
1533.538 11.506 11.406 11.356 11.446 11.626 11.846 12.116 12.406 12.776 13.126
1552.827 13.396 13.666 13.886 14.006 13.916 13.686 13.536 13.326 12.956 12.576
1572.117 12.186 11.846 11.566 11.166 10.816 10.556 10.256 9.946 9.696 9.346
1591.407 8.916 8.496 7.966 7.306 6.606 5.876 5.216 4.666 4.226 3.916
1610.697 3.666 3.446 3.246 2.966 2.776 2.726 2.636 2.506 2.376 2.306
1629.986 2.316 2.286 2.176 2.066 2.006 1.956 1.936 1.936 1.926 1.896
1649.276 1.866 1.856 1.886 1.916 1.926 1.936 1.916 1.856 1.816 1.836
1668.566 1.826 1.796 1.726 1.606 1.476 1.406 1.416 1.486 1.576 1.586
1687.856 1.636 1.746 1.776 1.796 1.956 2.246 2.526 2.816 3.196 3.576
1707.146 3.966 4.306 4.526 4.576 4.576 4.406 4.166 4.026 3.766 3.376
1726.435 2.996 2.686 2.496 2.406 2.336 2.366 2.356 2.276 2.246 2.306
1745.725 2.326 2.186 2.006 1.866 1.666 1.456 1.289 1.1682 1.0532 1.0205
1765.015 1.0142 0.9695 0.9618 0.9008 0.8505 0.8637 0.8715 0.8446 0.8143 0.8642
1784.305 0.9182 0.8229 0.7875 0.8374 0.8669 0.8855 0.8345 0.8248 0.8394 0.8368
1803.594 0.8059 0.7827 0.7455 0.6852 0.6376 0.6441 0.6775 0.6577 0.6453 0.6317
1822.884 0.6367 0.697 0.7081 0.6651 0.6836 0.7156 0.6989 0.7341 0.7694 0.7708
1842.174 0.747 0.7557 0.768 0.7447 0.7644 0.797 0.8377 0.8354 0.8423 0.9311
1861.464 0.9557 0.9474 0.9792 1.0415 1.1067 1.1028 1.1364 1.2158 1.2917 1.3228
1880.754 1.3287 1.3316 1.3792 1.446 1.446 1.416 1.3899 1.3761 1.3885 1.3764
1900.043 1.3058 1.3001 1.3164 1.2919 1.2579 1.2473 1.2413 1.184 1.2015 1.2971
1919.333 1.2362 1.1607 1.1977 1.1825 1.1469 1.1452 1.1511 1.119 1.0832 1.0962
1938.623 1.095 1.0769 1.0783 1.0979 1.1191 1.1265 1.1345 1.1907 1.2322 1.2231
1957.913 1.2218 1.2053 1.1738 1.1476 1.1479 1.0842 0.9951 0.9389 0.9332 0.937
1977.202 0.8953 0.8644 0.8243 0.7812 0.7964 0.8086 0.8038 0.8221 0.8227 0.7972
1996.492 0.8029 0.8433 0.9021 0.9346 0.9158 0.8879 0.8798 0.8596 0.8134 0.807
2015.782 0.7762 0.7492 0.7456 0.7297 0.7335 0.7231 0.7233 0.7301 0.7044 0.6639
2035.072 0.6637 0.6678 0.6346 0.6844 0.6895 0.6026 0.571 0.5849 0.6297 0.6906
2054.362 0.6671 0.6094 0.6108 0.6157 0.6282 0.6152 0.5584 0.5354 0.5875 0.6293
2073.651 0.6004 0.5717 0.5546 0.5565 0.5851 0.5185 0.44981 0.5255 0.597 0.6015
2092.941 0.6288 0.6365 0.5943 0.6104 0.6232 0.5557 0.5623 0.5807 0.6358 0.6333
2112.231 0.537 0.5226 0.48961 0.50111 0.5563 0.5596 0.516 0.5378 0.6073 0.6212
2131.521 0.5599 0.5095 0.5479 0.587 0.6252 0.6004 0.6124 0.6625 0.5966 0.5729
2150.810 0.6071 0.6311 0.5967 0.548 0.5065 0.4688 0.5346 0.553 0.5657 0.5501
2170.100 0.49657 0.5189 0.5895 0.6567 0.6049 0.5473 0.5524 0.6204 0.6635 0.6166
2189.390 0.628 0.6025 0.5204 0.49845 0.5316 0.5777 0.5842 0.5784 0.5932 0.5934
2208.680 0.5699 0.5584 0.5738 0.6111 0.6189 0.611 0.551 0.5482 0.6071 0.6221
2227.970 0.6015 0.6036 0.628 0.6066 0.5575 0.48967 0.49283 0.5437 0.50565 0.48995
2247.259 0.5636 0.6138 0.6085 0.5745 0.6125 0.618 0.6238 0.6712 0.6251 0.5651
2266.549 0.46346 0.45442 0.6033 0.5973 0.5904 0.6852 0.6465 0.606 0.6543 0.5978
2285.839 0.5096 0.6146 0.7059 0.6428 0.6424 0.659 0.7087 0.7365 0.7257 0.7988
2305.129 0.8324 0.8364 0.8732 0.8955 0.9212 0.987 0.9409 0.8459 0.8014 0.8252
2324.418 0.8875 0.7961 0.8125 0.891 0.8005 0.7379 0.7728 0.8636 0.8043 0.7331
2343.708 0.7377 0.6646 0.6276 0.6607 0.7008 0.7583 0.7638 0.7322 0.801 0.8862
2362.998 0.8277 0.825 0.875 0.8049 0.7931 0.8205 0.8342 0.8909 0.9703 1.0762
2382.288 1.107 1.0839 1.1289 1.1932 1.1936 1.2091 1.2352 1.268 1.3771 1.446
2401.578 1.536 1.636 1.636 1.636 1.646 1.656 1.686 1.616 1.466 1.406
2420.867 1.3519 1.276 1.2728 1.2975 1.2126 1.1572 1.1998 1.1508 1.0356 0.9614
2440.157 0.9258 0.843 0.8347 0.9099 1.0019 1.0663 1.0897 0.997 1.0121 1.0974
2459.447 1.0327 1.0376 0.9917 0.9993 1.0684 1.0927 1.1088 1.1369 1.1762 1.1116
2478.737 1.0244 1.0715 1.0576 1.0421 1.1016 1.0473 1.0329 1.0214 0.9813 0.9769
2498.026 0.954 0.9526 0.8945 0.8722 0.9104 0.9232 0.8808 0.8128 0.7921 0.7255
2517.316 0.6959 0.7626 0.8448 0.9135 0.8458 0.7356 0.8036 0.8483 0.787 0.8533
2536.606 0.8844 0.8676 0.8775 0.7758 0.7465 0.771 0.774 0.8813 0.9596 0.9442
2555.896 0.9093 0.8433 0.8514 0.919 0.9673 0.9552 0.9232 0.8998 0.8126 0.8482
2575.186 0.9516 0.9841 0.9637 0.9673 0.9988 0.942 0.9428 1.0496 1.1519 1.1719
2594.475 1.1375 1.0217 0.9692 1.0544 1.0596 0.9845 0.9824 1.0269 0.9926 0.9207
2613.765 0.8217 0.7568 0.8025 0.8753 0.8936 0.8807 0.8315 0.75 0.6666 0.6209
2633.055 0.6829 0.7486 0.82 0.8661 0.879 0.9454 0.8507 0.8545 0.9032 0.8399
2652.345 0.8693 0.9178 0.9252 0.8657 0.8341 0.8615 1.0044 1.1195 1.1212 1.1026
2671.634 1.1468 1.2169 1.1896 1.2102 1.2309 1.1657 1.0713 0.9637 0.9144 0.9355
2690.924 0.9636 0.9751 0.9735 0.9989 1.0075 1.0322 1.1117 1.0953 1.1469 1.1437
2710.214 1.145 1.2152 1.1975 1.22 1.2433 1.2765 1.3521 1.456 1.546 1.706
2729.504 1.946 2.246 2.576 2.956 3.436 3.836 4.166 4.376 4.476 4.476
2748.794 4.256 3.986 3.596 3.056 2.716 2.456 2.146 1.906 1.816 1.766
2768.083 1.716 1.676 1.606 1.636 1.806 1.846 1.796 1.756 1.766 1.946
2787.373 2.066 2.126 2.176 2.226 2.336 2.466 2.516 2.666 2.806 2.766
2806.663 2.886 3.086 3.196 3.286 3.446 3.646 3.856 4.046 4.246 4.576
2825.953 4.876 5.166 5.516 5.926 6.326 6.826 7.336 7.866 8.546 9.176
2845.242 9.946 10.926 11.926 13.006 14.256 15.576 17.086 18.706 20.376 22.266
2864.532 23.986 25.356 26.346 26.896 26.986 26.566 25.886 24.936 23.746 22.636
2883.822 21.696 21.046 20.556 20.336 20.436 20.616 21.056 21.546 22.106 22.996
2903.112 24.076 25.386 26.856 28.626 30.756 33.256 36.306 39.926 44.116 48.646
2922.401 53.726 59.316 64.636 69.066 72.026 72.866 72.106 70.326 67.266 62.766
2941.691 57.296 51.756 46.846 42.916 39.956 38.046 36.976 36.436 36.386 36.686
2960.981 36.866 36.796 36.836 37.026 37.416 38.296 39.586 41.066 42.766 44.296
2980.271 45.526 46.136 46.126 45.766 44.866 43.476 41.516 39.186 36.916 34.946
2999.561 33.246 31.716 30.506 29.696 29.396 29.676 30.376 31.456 32.966 35.016
3018.850 37.566 40.246 42.816 44.936 46.146 46.516 46.236 45.026 42.806 40.036
3038.140 36.966 33.826 30.706 27.666 25.006 22.516 20.526 18.756 16.966 15.446
3057.430 14.156 12.906 11.736 10.766 9.856 8.966 8.276 7.776 7.306 6.916
3076.720 6.606 6.286 6.106 5.976 5.736 5.626 5.446 5.226 5.136 4.976
3096.009 4.806 4.686 4.496 4.466 4.446 4.226 4.066 4.026 3.926 3.806
3115.299 3.626 3.386 3.176 3.086 3.026 2.896 2.786 2.656 2.526 2.486
3134.589 2.336 2.086 1.986 1.976 1.916 1.816 1.766 1.676 1.586 1.546
3153.879 1.476 1.566 1.616 1.496 1.3671 1.3144 1.3488 1.2241 1.123 1.1822
3173.169 1.1798 1.1573 1.1511 1.1808 1.1306 1.0788 1.0189 0.9744 0.902 0.8298
3192.458 0.9051 0.9144 0.9271 0.8201 0.8578 0.969 0.824 0.6919 0.6402 0.6718
3211.748 0.6798 0.6047 0.5768 0.6232 0.6337 0.6602 0.7691 0.6816 0.6216 0.7615
3231.038 0.7162 0.6466 0.6683 0.6851 0.7472 0.7318 0.6518 0.6061 0.5471 0.6206
3250.328 0.7412 0.6646 0.554 0.5439 0.6601 0.6709 0.5354 0.47234 0.44319 0.5872
3269.617 0.7137 0.6159 0.5618 0.6164 0.6334 0.6712 0.7103 0.6018 0.6961 0.6863
3288.907 0.5502 0.5579 0.5974 0.6152 0.6551 0.6868 0.6483 0.6257 0.6001 0.6074
3308.197 0.531 0.43782 0.49011 0.5627 0.5339 0.5706 0.6305 0.6825 0.6725 0.6231
3327.487 0.5533 0.4408 0.5214 0.48919 0.3879 0.3713 0.3405 0.39907 0.414811 0.41881
3346.777 0.5627 0.548 0.3579 0.3631 0.3418 0.411198 0.5191 0.42418 0.3408 0.268
3366.066 0.3373 0.44321 0.45459 0.3795 0.3771 0.47199 0.44021 0.40394 0.413553 0.4031
3385.356 0.39923 0.3174 0.143 0.196 0.3547 0.48456 0.49982 0.46448 0.5502 0.5505
3404.646 0.47825 0.5413 0.50126 0.363 0.3749 0.43395 0.3954 0.407842 0.5163 0.44272
3423.936 0.39757 0.45123 0.5203 0.5181 0.45691 0.5338 0.48613 0.46587 0.5347 0.45828
3443.225 0.49497 0.5145 0.47092 0.407201 0.46841 0.5672 0.43232 0.3195 0.405152 0.49235
3462.515 0.5733 0.6312 0.6133 0.5653 0.43839 0.47597 0.5213 0.5412 0.6 0.6413
3481.805 0.5155 0.3829 0.5087 0.5077 0.43699 0.5075 0.5108 0.43261 0.45076 0.46375
3501.095 0.45978 0.50005 0.484 0.3811 0.44329 0.5766 0.5969 0.5277 0.47526 0.507
3520.385 0.44046 0.46109 0.5248 0.5147 0.39669 0.365 0.50578 0.5589 0.4889 0.46951
3539.674 0.50448 0.3776 0.3065 0.45687 0.5769 0.5597 0.5724 0.562 0.5092 0.413107
3558.964 0.41802 0.5336 0.5196 0.5291 0.47144 0.45103 0.5807 0.5082 0.48745 0.527
3578.254 0.5251 0.5728 0.601 0.6399 0.50363 0.43525 0.43292 0.3481 0.3622 0.579
3597.544 0.6478 0.39882 0.3732 0.48781 0.385 0.3318 0.3275 0.302 0.279 0.215
3616.833 0.287 0.3716 0.3718 0.3119 0.296 0.3694 0.3877 0.286 0.275 0.262
3636.123 0.112 0.131 0.12 0.154 0.408622 0.49967 0.392 0.412987 0.43428 0.3291
3655.413 0.3887 0.3525 0.45642 0.46604 0.232 0.3077 0.173 0 0.113 0.253
3674.703 0.3455 0.302 0.288 0.292 0.249 0.3147 0.3603 0.3066 0.42597 0.43522
3693.993 0.42568 0.5514 0.42128 0.3582 0.296 0.225 0.3834 0.410576 0.297 0.248
3713.282 0.3196 0.289 0.2 0.3513 0.3594 0.274 0.3307 0.3551 0.3762 0.49621
3732.572 0.4488 0.202 0.304 0.293 0.182 0.3247 0.3552 0.306 0.3573 0.3809
3751.862 0.3743 0.3609 0.281 0.24 0.3531 0.5315 0.45581 0.40122 0.3879 0.238
3771.152 0.3133 0.48272 0.44008 0.381 0.3474 0.3838 0.43455 0.3363 0.3397 0.406974
3790.441 0.415652 0.3203 0.3376 0.48219 0.43803 0.50111 0.5831 0.6252 0.47759 0.42323
3809.731 0.5937 0.586 0.4521 0.3415 0.5184 0.5862 0.6385 0.7119 0.7361 0.5129
3829.021 0.3628 0.48194 0.48235 0.5729 0.7077 0.5546 0.295 0.3401 0.40328 0.41832
3848.311 0.42334 0.5436 0.5131 0.43466 0.5592 0.552 0.5862 0.6187 0.7527 0.6932
3867.601 0.3843 0.411676 0.5349 0.6864 0.8054 0.6839 0.6359 0.774 0.7792 0.688
3886.890 0.8041 0.8341 0.6114 0.45154 0.5592 0.7232 0.7115 0.6537 0.6341 0.6699
3906.180 0.6888 0.7595 0.845 0.749 0.6506 0.7613 0.7712 0.7058 0.6968 0.7229
3925.470 0.7692 0.7954 0.7066 0.6817 0.8899 0.8461 0.8272 0.9629 1.0023 0.9783
3944.760 1.0553 1.0555 1.0163 1.0802 1.0942 1.1561 1.1495 1.0027 1.002 0.9838
3964.049 0.853 0.9609 0.9837 0.931 1.0464 1.1185 1.0765 1.0304 0.9663 0.8163
3983.339 0.8607 0.9815 0.9915 0.9028 0.6801 0.5935 0.6184 0.7044 0.7554 0.7093
##END=
