##TITLE=1-(4-Fluorophenyl)ethylamine
##JCAMP-DX=4.24
##DATA TYPE=INFRARED SPECTRUM
##ORIGIN=EPA-IR VAPOR PHASE LIBRARY
##OWNER=SRD/NIST
Collection (C) 2018 copyright by the U.S. Secretary of Commerce
on behalf of the United States of America. All rights reserved.
##CAS REGISTRY NO=403-40-7
##MOLFORM=C 8 H 10 F N
##$NIST SOURCE=MSDC-IR
##STATE=gas
##XUNITS=1/CM
##YUNITS=ABSORBANCE
##XFACTOR=1.
##YFACTOR=0.001
##DELTAX=1.92934
##FIRSTX=549.9
##LASTX=3999.5
##FIRSTY=3.936
##MAXX=3999.53
##MINX=549.863
##MAXY=0.021826
##MINY=0
##NPOINTS=1789
##XYDATA=(X++(Y..Y))
549.863 3.936 3.896 3.826 3.606 3.456 3.306 3.096 2.986 2.746 2.426
569.156 2.176 2.146 2.126 1.906 1.716 1.626 1.546 1.4041 1.3561 1.3519
588.450 1.2744 1.2007 1.185 1.1993 1.1478 1.1271 1.1398 1.1228 1.1213 1.1081
607.743 1.089 1.0384 1.0213 1.055 1.1469 1.1724 1.1208 1.1386 1.1592 1.1672
627.037 1.2042 1.2164 1.2245 1.2634 1.2762 1.2869 1.3061 1.3041 1.2903 1.2898
646.330 1.3098 1.3674 1.4229 1.4415 1.4308 1.423 1.496 1.576 1.606 1.676
665.624 1.856 2.006 2.076 2.146 2.196 2.326 2.556 2.746 2.816 2.936
684.917 3.116 3.296 3.456 3.636 3.666 3.726 3.816 3.786 3.756 3.706
704.210 3.586 3.396 3.236 3.066 2.846 2.636 2.526 2.456 2.376 2.346
723.504 2.346 2.326 2.346 2.376 2.406 2.426 2.466 2.526 2.596 2.636
742.797 2.686 2.766 2.796 2.846 2.916 3.006 3.106 3.156 3.206 3.316
762.091 3.416 3.506 3.626 3.706 3.776 3.876 3.986 4.166 4.366 4.466
781.384 4.576 4.686 4.796 4.926 5.046 5.256 5.376 5.456 5.556 5.676
800.678 5.786 5.956 6.146 6.316 6.556 6.806 7.106 7.426 7.776 8.216
819.971 8.736 9.346 9.936 10.516 11.156 11.746 12.286 12.776 12.866 12.306
839.264 11.406 10.516 9.656 8.726 7.696 6.666 5.736 4.886 4.136 3.536
858.558 3.056 2.686 2.436 2.266 2.146 2.076 1.976 1.846 1.786 1.776
877.851 1.756 1.716 1.646 1.586 1.596 1.546 1.476 1.496 1.466 1.4364
897.145 1.4181 1.4113 1.4041 1.3645 1.3336 1.2898 1.2582 1.2495 1.2558 1.2204
916.438 1.1399 1.0985 1.0619 1.0113 0.9886 0.9888 0.9346 0.8892 0.9457 0.9371
935.732 0.892 0.8913 0.8497 0.8233 0.8244 0.824 0.8273 0.871 0.8679 0.8519
955.025 0.8897 0.8841 0.8324 0.807 0.8082 0.7958 0.8106 0.8176 0.7909 0.7809
974.318 0.7692 0.755 0.7562 0.7539 0.7573 0.7655 0.7844 0.8504 0.8737 0.8786
993.612 0.9211 0.9734 1.022 1.1415 1.293 1.4582 1.706 1.956 2.106 2.136
1012.905 2.146 2.146 2.106 2.066 2.046 1.916 1.736 1.586 1.546 1.496
1032.199 1.4052 1.418 1.4245 1.3938 1.3845 1.3375 1.3365 1.4002 1.4228 1.4199
1051.492 1.4338 1.476 1.486 1.4462 1.4565 1.476 1.486 1.566 1.596 1.616
1070.786 1.696 1.796 1.856 1.876 1.976 2.116 2.256 2.366 2.446 2.506
1090.079 2.556 2.676 2.756 2.766 2.726 2.656 2.596 2.516 2.396 2.286
1109.372 2.206 2.066 1.876 1.716 1.586 1.4233 1.3156 1.224 1.119 1.0974
1128.666 1.0642 0.978 0.9065 0.9466 0.9651 0.9954 1.1632 1.3385 1.636 2.136
1147.959 2.836 3.696 4.336 4.666 4.846 4.946 4.976 4.966 4.836 4.336
1167.253 3.586 2.866 2.246 1.836 1.616 1.516 1.486 1.3399 1.2445 1.2213
1186.546 1.1485 1.1208 1.1328 1.0972 1.046 1.1357 1.2901 1.4225 1.656 1.996
1205.840 2.416 2.976 3.456 3.896 4.726 5.686 6.736 8.206 10.186 12.476
1225.133 14.996 17.556 19.596 20.956 21.626 21.826 21.606 20.836 19.246 16.716
1244.426 13.496 10.286 7.786 5.976 4.856 4.146 3.616 3.216 2.916 2.726
1263.720 2.556 2.416 2.316 2.286 2.246 2.146 2.096 2.096 2.066 2.046
1283.013 2.066 2.156 2.246 2.256 2.286 2.326 2.356 2.326 2.306 2.316
1302.307 2.256 2.146 2.026 1.996 1.996 1.986 2.036 2.056 2.096 2.186
1321.600 2.276 2.366 2.406 2.456 2.506 2.536 2.576 2.596 2.576 2.576
1340.894 2.596 2.566 2.556 2.616 2.646 2.686 2.746 2.786 2.836 2.906
1360.187 2.976 3.056 3.096 3.136 3.216 3.236 3.266 3.266 3.216 3.116
1379.480 3.006 2.856 2.676 2.516 2.366 2.186 2.026 1.946 1.866 1.786
1398.774 1.726 1.686 1.656 1.646 1.636 1.626 1.646 1.636 1.636 1.626
1418.067 1.586 1.556 1.536 1.516 1.476 1.4348 1.4201 1.4135 1.4236 1.476
1437.361 1.496 1.496 1.546 1.596 1.646 1.696 1.746 1.796 1.836 1.896
1456.654 1.926 1.956 1.986 2.006 2.026 2.056 2.086 2.106 2.116 2.156
1475.948 2.196 2.226 2.316 2.426 2.586 2.846 3.246 3.816 4.506 5.446
1495.241 6.746 8.376 10.386 12.756 15.196 17.306 18.836 19.616 19.646 19.126
1514.534 18.166 16.776 14.836 12.276 9.306 6.756 4.866 3.586 2.826 2.376
1533.828 2.046 1.836 1.706 1.586 1.4639 1.4283 1.4158 1.354 1.356 1.3584
1553.121 1.3361 1.3579 1.3936 1.3655 1.3436 1.3878 1.4501 1.496 1.526 1.606
1572.415 1.696 1.786 1.956 2.156 2.376 2.676 3.026 3.436 3.936 4.466
1591.708 5.086 5.786 6.476 7.076 7.526 7.846 7.956 7.856 7.546 7.056
1611.002 6.496 5.926 5.436 4.966 4.596 4.316 4.056 3.836 3.606 3.396
1630.295 3.196 3.046 2.886 2.726 2.566 2.386 2.246 2.136 2.006 1.846
1649.588 1.736 1.576 1.4245 1.3866 1.3271 1.2627 1.1829 1.0666 1.0382 1.0182
1668.882 0.9512 0.9179 0.862 0.8461 0.8682 0.8407 0.8095 0.7851 0.7702 0.7755
1688.175 0.7742 0.7537 0.7284 0.6823 0.6952 0.7192 0.6811 0.6857 0.6991 0.6779
1707.469 0.664 0.6543 0.6588 0.663 0.6315 0.6178 0.6242 0.6168 0.6028 0.5848
1726.762 0.56505 0.5671 0.5726 0.55758 0.5802 0.608 0.6063 0.6191 0.646 0.6833
1746.056 0.7297 0.7755 0.8241 0.8533 0.8358 0.7994 0.7861 0.7717 0.7275 0.7102
1765.349 0.6929 0.6672 0.6368 0.56205 0.50112 0.47796 0.451 0.4383 0.45704 0.4366
1784.642 0.4003 0.4119 0.4151 0.4078 0.4017 0.389 0.3973 0.3964 0.4102 0.4024
1803.936 0.3887 0.407 0.4173 0.4156 0.4038 0.421 0.4301 0.4055 0.3862 0.3982
1823.229 0.42 0.4482 0.4561 0.4539 0.473914 0.49481 0.49739 0.46092 0.46209 0.47812
1842.523 0.46289 0.48062 0.49313 0.51156 0.54197 0.55053 0.569 0.6082 0.6428 0.6718
1861.816 0.7194 0.754 0.7737 0.789 0.8264 0.8617 0.8828 0.915 0.941 0.9332
1881.110 0.9058 0.8926 0.8855 0.8574 0.8303 0.8348 0.7922 0.7371 0.7164 0.6829
1900.403 0.658 0.6614 0.6372 0.623 0.594 0.54577 0.55499 0.5548 0.54974 0.55746
1919.696 0.54469 0.51705 0.51721 0.51623 0.51064 0.51127 0.50554 0.50849 0.51745 0.49485
1938.990 0.47619 0.471365 0.48145 0.53096 0.50924 0.4432 0.4464 0.467973 0.45651 0.4555
1958.283 0.4513 0.4304 0.4158 0.4226 0.45 0.4187 0.3903 0.4115 0.42 0.4386
1977.577 0.45867 0.470233 0.467159 0.467045 0.467652 0.4525 0.465937 0.48407 0.45625 0.4401
1996.870 0.4289 0.431 0.4403 0.4346 0.4401 0.4217 0.4258 0.4268 0.4323 0.456
2016.164 0.466043 0.47646 0.46054 0.4499 0.45724 0.467007 0.45801 0.46518 0.48199 0.474505
2035.457 0.47668 0.50506 0.50756 0.50008 0.52277 0.52482 0.52222 0.5324 0.5612 0.5692
2054.750 0.53927 0.52378 0.53488 0.5662 0.53572 0.50631 0.52526 0.5166 0.49876 0.48966
2074.044 0.49097 0.48417 0.472047 0.4505 0.4395 0.4482 0.46324 0.49052 0.473292 0.4387
2093.337 0.4451 0.474925 0.471151 0.4379 0.4242 0.424 0.4431 0.4278 0.393 0.3923
2112.631 0.409 0.3984 0.356 0.3697 0.3939 0.4029 0.4013 0.386 0.3821 0.391
2131.924 0.4091 0.3978 0.3867 0.39 0.3959 0.4038 0.4007 0.3994 0.4111 0.4113
2151.218 0.4039 0.3845 0.3726 0.3769 0.3773 0.3806 0.3898 0.3937 0.3914 0.3961
2170.511 0.3938 0.4055 0.4002 0.3886 0.396 0.4002 0.4253 0.4362 0.4274 0.4198
2189.804 0.4068 0.3987 0.4003 0.3974 0.3817 0.3969 0.4286 0.4254 0.4263 0.4435
2209.098 0.432 0.4319 0.4447 0.43 0.413 0.4091 0.4024 0.3854 0.4058 0.4443
2228.391 0.455 0.4528 0.4549 0.46091 0.46213 0.472977 0.47718 0.4669 0.48107 0.49984
2247.685 0.50927 0.51424 0.54351 0.55258 0.533 0.53057 0.52918 0.52382 0.55384 0.5722
2266.978 0.535 0.51955 0.51332 0.49933 0.51937 0.52213 0.52022 0.52398 0.49517 0.468113
2286.272 0.48544 0.50812 0.48997 0.50609 0.52735 0.50876 0.50462 0.49558 0.48172 0.48498
2305.565 0.50435 0.52117 0.49024 0.468761 0.47984 0.49978 0.50158 0.47929 0.50646 0.52848
2324.858 0.49476 0.47606 0.4557 0.468471 0.48609 0.470903 0.45719 0.4379 0.4436 0.46456
2344.152 0.470239 0.46114 0.46495 0.48069 0.4487 0.434 0.45693 0.4441 0.4261 0.4163
2363.445 0.4341 0.469552 0.48656 0.48022 0.48015 0.49838 0.49127 0.47097 0.47693 0.47636
2382.739 0.46111 0.471312 0.49371 0.49111 0.50185 0.49516 0.4541 0.470318 0.50738 0.48297
2402.032 0.43 0.4282 0.4457 0.469452 0.50386 0.4777 0.474974 0.50387 0.53 0.52552
2421.326 0.473235 0.449 0.4379 0.4445 0.470407 0.469721 0.48625 0.50912 0.49855 0.51755
2440.619 0.50753 0.50173 0.52305 0.54393 0.5279 0.4991 0.50296 0.51809 0.5455 0.531
2459.912 0.54119 0.53278 0.52352 0.5698 0.5699 0.53699 0.50702 0.4942 0.50117 0.48546
2479.206 0.48782 0.51894 0.50807 0.46321 0.4514 0.47787 0.4872 0.4535 0.45681 0.4544
2498.499 0.4113 0.4163 0.4127 0.406 0.4136 0.3995 0.3794 0.3858 0.4166 0.45764
2517.793 0.4544 0.417 0.412 0.443 0.4356 0.428 0.4447 0.4522 0.46063 0.4556
2537.086 0.453 0.4529 0.4267 0.4304 0.4573 0.448 0.45841 0.50062 0.51359 0.49443
2556.380 0.485 0.50996 0.53115 0.50132 0.46251 0.466267 0.50312 0.49574 0.47685 0.5238
2575.673 0.5774 0.5726 0.54554 0.5341 0.5384 0.52985 0.50343 0.49633 0.49554 0.48874
2594.966 0.469334 0.470374 0.48929 0.48159 0.48324 0.52518 0.52274 0.4518 0.4492 0.49317
2614.260 0.49913 0.472097 0.47855 0.51015 0.54848 0.56463 0.5254 0.47928 0.47909 0.52517
2633.553 0.54248 0.53167 0.51081 0.48138 0.466434 0.475396 0.47736 0.4473 0.446 0.468153
2652.847 0.471067 0.4446 0.4268 0.45672 0.48621 0.48118 0.46344 0.466879 0.4442 0.4244
2672.140 0.4478 0.431 0.4195 0.4499 0.466473 0.4307 0.4322 0.47864 0.469708 0.471636
2691.434 0.52762 0.51002 0.46157 0.465417 0.49057 0.52598 0.51122 0.48945 0.49187 0.50866
2710.727 0.50383 0.52816 0.5771 0.61 0.6049 0.55659 0.55963 0.52673 0.51822 0.51082
2730.020 0.48218 0.54599 0.56205 0.54788 0.5826 0.55735 0.51328 0.55731 0.55593 0.52467
2749.314 0.53407 0.5407 0.50265 0.49469 0.5018 0.52579 0.5675 0.54088 0.55627 0.585
2768.607 0.6099 0.5993 0.5672 0.6032 0.621 0.5864 0.5918 0.599 0.6158 0.6769
2787.901 0.6709 0.6443 0.6376 0.6317 0.6663 0.6858 0.6895 0.725 0.7325 0.7319
2807.194 0.7459 0.7629 0.7516 0.7656 0.8398 0.8799 0.879 0.8994 0.9474 0.9664
2826.488 1.0229 1.0845 1.0961 1.0985 1.0784 1.1298 1.2894 1.3983 1.506 1.546
2845.781 1.626 1.786 1.816 1.846 1.946 2.046 2.186 2.346 2.416 2.466
2865.074 2.536 2.596 2.666 2.766 2.816 2.836 2.846 2.836 2.866 2.886
2884.368 2.836 2.756 2.706 2.666 2.646 2.596 2.566 2.566 2.586 2.576
2903.661 2.486 2.466 2.496 2.486 2.416 2.416 2.416 2.406 2.486 2.536
2922.955 2.556 2.636 2.766 2.866 2.896 2.916 2.976 2.976 2.906 2.856
2942.248 2.756 2.666 2.626 2.626 2.676 2.786 2.996 3.336 3.816 4.386
2961.542 5.076 5.766 6.246 6.616 6.906 7.066 7.176 7.076 6.636 6.096
2980.835 5.606 5.166 4.716 4.246 3.846 3.466 3.106 2.766 2.396 2.076
3000.128 1.886 1.766 1.586 1.3695 1.291 1.3084 1.2678 1.2582 1.2841 1.277
3019.422 1.2774 1.2237 1.2286 1.3332 1.3717 1.4391 1.526 1.686 1.756 1.776
3038.715 1.896 1.896 1.926 2.026 2.066 2.006 1.866 1.696 1.576 1.516
3058.009 1.466 1.4595 1.476 1.4142 1.3079 1.2672 1.2869 1.3984 1.486 1.382
3077.302 1.2969 1.299 1.2867 1.2169 1.2019 1.1698 1.0929 0.9974 0.9243 0.8861
3096.596 0.8533 0.8415 0.8293 0.7809 0.793 0.808 0.689 0.7096 0.8017 0.7186
3115.889 0.581 0.5958 0.6773 0.695 0.6254 0.5912 0.5719 0.53909 0.51016 0.48837
3135.182 0.45625 0.4015 0.371 0.352 0.353 0.339 0.3912 0.358 0.239 0.226
3154.476 0.231 0.295 0.4033 0.323 0.242 0.252 0.309 0.36 0.333 0.294
3173.769 0.246 0.309 0.332 0.289 0.285 0.313 0.35 0.31 0.335 0.308
3193.063 0.153 0.177 0.29 0.279 0.267 0.334 0.28 0.252 0.356 0.323
3212.356 0.308 0.303 0.2 0.204 0.169 0.18 0.298 0.251 0.207 0.214
3231.650 0.17 0.211 0.176 0.124 0.223 0.256 0.221 0.133 0.043 0.105
3250.943 0.166 0.23 0.338 0.294 0.143 0.094 0.172 0.227 0.232 0.18
3270.236 0.16 0.169 0.155 0.121 0.129 0.133 0.074 0.081 0.156 0.13
3289.530 0.052 0.072 0.12 0.142 0.171 0.203 0.177 0.198 0.215 0.087
3308.823 0.059 0.126 0.084 0.066 0.184 0.272 0.231 0.182 0.219 0.308
3328.117 0.276 0.267 0.308 0.4043 0.369 0.285 0.349 0.295 0.199 0.252
3347.410 0.279 0.157 0.176 0.236 0.237 0.204 0.085 0.096 0.155 0.141
3366.704 0.188 0.237 0.191 0.174 0.163 0.175 0.209 0.2 0.143 0.166
3385.997 0.214 0.221 0.208 0.185 0.215 0.161 0.135 0.2 0.178 0.141
3405.290 0.174 0.24 0.33 0.314 0.317 0.214 0.203 0.304 0.291 0.3766
3424.584 0.26 0.05 0 0.116 0.27 0.212 0.213 0.243 0.154 0.101
3443.877 0.09 0.103 0.108 0.142 0.154 0.117 0.07 0.12 0.186 0.201
3463.171 0.201 0.153 0.193 0.244 0.264 0.163 0.068 0.102 0.113 0.122
3482.464 0.184 0.224 0.222 0.233 0.266 0.305 0.242 0.221 0.194 0.115
3501.758 0.124 0.145 0.194 0.224 0.24 0.218 0.149 0.159 0.17 0.223
3521.051 0.249 0.209 0.136 0.108 0.13 0.073 0.125 0.212 0.168 0.069
3540.344 0.035 0.07 0.15 0.192 0.197 0.199 0.184 0.087 0.039 0.101
3559.638 0.113 0.196 0.263 0.243 0.274 0.294 0.219 0.158 0.155 0.215
3578.931 0.239 0.202 0.206 0.139 0.135 0.07 0.072 0.179 0.168 0.169
3598.225 0.158 0.138 0.14 0.209 0.237 0.24 0.276 0.234 0.186 0.172
3617.518 0.165 0.198 0.181 0.194 0.239 0.194 0.152 0.173 0.181 0.143
3636.812 0.147 0.103 0.036 0.083 0.114 0.173 0.221 0.189 0.181 0.176
3656.105 0.154 0.159 0.25 0.3 0.248 0.215 0.182 0.16 0.13 0.127
3675.398 0.16 0.145 0.179 0.24 0.298 0.255 0.196 0.162 0.191 0.222
3694.692 0.25 0.263 0.214 0.204 0.14 0.182 0.241 0.152 0.099 0.097
3713.985 0.073 0.122 0.15 0.189 0.255 0.242 0.21 0.212 0.248 0.234
3733.279 0.184 0.169 0.192 0.244 0.271 0.255 0.196 0.103 0.129 0.206
3752.572 0.203 0.166 0.112 0.108 0.113 0.16 0.192 0.214 0.269 0.226
3771.866 0.193 0.247 0.255 0.228 0.27 0.276 0.233 0.261 0.251 0.14
3791.159 0.145 0.178 0.137 0.153 0.162 0.111 0.065 0.051 0.076 0.154
3810.452 0.182 0.134 0.195 0.279 0.265 0.239 0.213 0.239 0.267 0.247
3829.746 0.239 0.216 0.233 0.242 0.199 0.2 0.23 0.238 0.17 0.192
3849.039 0.27 0.218 0.201 0.188 0.227 0.3 0.337 0.289 0.214 0.255
3868.333 0.244 0.273 0.352 0.291 0.234 0.295 0.309 0.301 0.31 0.313
3887.626 0.321 0.324 0.306 0.235 0.158 0.198 0.231 0.202 0.168 0.195
3906.920 0.288 0.336 0.353 0.342 0.354 0.309 0.28 0.277 0.227 0.171
3926.213 0.181 0.197 0.18 0.29 0.338 0.31 0.304 0.296 0.339 0.25
3945.506 0.159 0.201 0.213 0.227 0.239 0.294 0.3 0.276 0.222 0.237
3964.800 0.241 0.116 0.126 0.18 0.192 0.209 0.222 0.161 0.136 0.203
3984.093 0.256 0.274 0.237 0.27 0.308 0.265 0.204 0.182 0.241
##END=
