##TITLE=3-Ethyl-1-pentene
##JCAMP-DX=4.24
##DATA TYPE=INFRARED SPECTRUM
##ORIGIN=NIST Mass Spectrometry Data Center
##OWNER=NIST Standard Reference Data Program
Collection (C) 2018 copyright by the U.S. Secretary of Commerce
on behalf of the United States of America. All rights reserved.
##CAS REGISTRY NO=4038-04-4
##MOLFORM=C 7 H 14
##$NIST SOURCE=MSDC-IR
##SPECTROMETER/DATA SYSTEM=HP-GC/MS/IRD
##STATE=gas
##XUNITS=1/CM
##YUNITS=ABSORBANCE
##XFACTOR=1.0
##YFACTOR=0.000004200
##DELTAX=4.0
##FIRSTX=550.0
##LASTX=3846.0
##FIRSTY=0.000399
##MAXX=3846
##MINX=550
##MAXY=0.042
##MINY=0
##NPOINTS=825
##XYDATA=(X++(Y..Y))
550.0 95 83 78 62 40 9 9 28 27 34
590.0 23 22 38 43 42 55 70 58 66 89
630.0 103 131 164 183 223 285 366 443 481 513
670.0 524 481 405 334 261 185 144 116 99 92
710.0 85 92 110 112 114 120 129 163 200 234
750.0 261 284 300 303 307 304 307 295 249 227
790.0 210 178 150 126 114 113 117 125 159 177
830.0 191 210 217 222 228 235 235 238 251 254
870.0 266 292 325 398 518 716 1069 1589 2207 2668
910.0 2977 3139 3007 2727 2163 1465 973 705 562 480
950.0 433 396 372 366 392 446 540 693 888 1065
990.0 1194 1295 1318 1273 1136 918 726 606 541 491
1030.0 462 451 429 397 378 348 309 260 226 218
1070.0 211 197 185 187 198 203 207 203 195 179
1110.0 167 170 156 136 139 143 136 146 155 147
1150.0 135 128 127 125 115 109 102 90 82 70
1190.0 60 57 50 54 63 63 61 62 70 82
1230.0 88 98 110 114 127 142 147 146 144 153
1270.0 173 184 199 222 246 271 282 287 291 290
1310.0 294 301 302 300 306 313 321 327 315 305
1350.0 309 304 310 354 425 518 613 702 805 846
1390.0 793 729 660 589 560 574 603 637 661 658
1430.0 651 671 716 789 910 1067 1217 1326 1335 1288
1470.0 1223 1085 905 723 570 443 342 277 229 196
1510.0 176 159 154 148 139 139 139 138 139 147
1550.0 154 157 160 164 170 183 187 183 178 174
1590.0 169 164 170 181 210 253 313 402 512 634
1630.0 743 814 842 826 756 639 489 360 263 195
1670.0 158 134 116 97 81 66 62 62 57 49
1710.0 43 43 42 41 35 32 38 38 33 33
1750.0 36 35 32 36 35 28 29 36 43 41
1790.0 43 49 55 65 84 115 155 202 241 260
1830.0 272 266 245 212 159 111 83 64 51 41
1870.0 32 31 28 23 27 22 20 25 20 22
1910.0 26 23 24 22 16 14 10 10 15 17
1950.0 16 17 21 24 28 35 37 33 34 35
1990.0 28 20 25 26 18 18 23 19 15 16
2030.0 15 14 15 16 17 19 19 19 18 19
2070.0 21 22 20 16 10 5 6 13 12 7
2110.0 8 9 5 9 6 1 2 5 11 12
2150.0 10 5 4 3 0 8 9 7 9 6
2190.0 4 7 13 12 10 7 5 3 5 6
2230.0 8 11 16 18 12 8 7 5 9 12
2270.0 17 20 20 21 24 27 25 23 27 32
2310.0 34 30 23 20 23 26 28 32 27 23
2350.0 30 37 34 36 45 47 41 43 42 39
2390.0 42 41 35 34 36 34 31 30 34 33
2430.0 28 27 26 24 22 25 33 33 31 35
2470.0 36 37 36 38 41 39 37 38 35 30
2510.0 33 35 33 30 35 38 39 41 43 48
2550.0 50 55 62 61 66 71 70 73 79 87
2590.0 86 86 83 74 75 73 67 66 64 69
2630.0 75 83 86 83 81 78 87 99 101 104
2670.0 109 110 107 110 114 104 104 112 115 112
2710.0 114 124 132 144 158 175 189 201 218 231
2750.0 239 246 244 241 251 257 263 275 281 290
2790.0 311 332 343 358 378 397 417 445 481 528
2830.0 599 698 831 1021 1294 1647 2062 2519 3012 3549
2870.0 4116 4625 4916 5001 4931 4715 4490 4280 4145 4206
2910.0 4515 5067 5805 6634 7357 7817 8017 8013 7844 7588
2950.0 7456 7652 8154 9004 9917 10000 9426 8728 7733 6361
2990.0 4905 3717 2903 2372 1997 1699 1457 1263 1098 963
3030.0 872 817 786 780 794 828 886 972 1099 1264
3070.0 1452 1618 1753 1857 1739 1505 1320 1097 827 601
3110.0 460 369 318 295 285 277 261 249 248 239
3150.0 233 222 211 222 221 204 193 180 166 159
3190.0 138 120 107 102 99 94 91 79 73 75
3230.0 70 64 63 54 55 61 58 58 60 60
3270.0 60 51 43 45 43 48 50 43 50 58
3310.0 49 31 36 49 49 48 44 39 40 40
3350.0 33 30 32 31 32 34 30 35 38 30
3390.0 35 39 38 37 35 39 33 23 22 30
3430.0 34 28 24 20 24 28 23 15 15 22
3470.0 23 16 8 6 10 13 22 25 25 25
3510.0 7 4 11 9 14 14 13 20 23 25
3550.0 25 27 23 18 24 19 11 13 12 15
3590.0 24 32 26 24 23 28 36 37 43 44
3630.0 36 22 19 29 36 29 20 22 29 30
3670.0 33 41 47 43 35 37 40 29 17 22
3710.0 32 34 33 34 37 38 49 56 44 41
3750.0 39 31 31 34 37 27 19 24 26 28
3790.0 26 24 28 34 29 29 37 40 35 24
3830.0 28 38 32 27 24
##END=
