##TITLE=4-Chloro-3-nitrophenyl isocyanate
##JCAMP-DX=4.24
##DATA TYPE=INFRARED SPECTRUM
##ORIGIN=EPA-IR VAPOR PHASE LIBRARY
##OWNER=SRD/NIST
Collection (C) 2018 copyright by the U.S. Secretary of Commerce
on behalf of the United States of America. All rights reserved.
##CAS REGISTRY NO=40397-96-4
##MOLFORM=C 7 H 3 Cl N 2 O 3
##$NIST SOURCE=MSDC-IR
##STATE=gas
##XUNITS=1/CM
##YUNITS=ABSORBANCE
##XFACTOR=1.
##YFACTOR=0.001
##DELTAX=1.92898
##FIRSTX=549.8
##LASTX=4000.7
##FIRSTY=1.471
##MAXX=4000.7
##MINX=549.759
##MAXY=0.296341
##MINY=0
##NPOINTS=1790
##XYDATA=(X++(Y..Y))
549.759 1.471 1.591 1.691 1.891 2.321 3.041 3.641 3.981 4.391 4.991
569.049 5.081 5.021 5.011 5.221 5.431 5.431 5.501 5.451 5.461 5.611
588.339 5.551 5.361 5.301 5.251 5.361 5.131 4.821 4.771 4.591 4.291
607.628 4.081 4.041 3.781 3.621 3.451 3.351 3.411 3.221 3.161 3.061
626.918 3.111 3.001 2.801 2.631 2.401 2.341 2.481 2.361 2.131 2.171
646.208 2.131 2.131 2.201 2.271 2.171 2.131 2.261 2.391 2.581 2.781
665.498 2.971 3.401 3.991 4.311 4.601 4.901 4.931 4.871 4.931 4.821
684.787 4.531 4.131 3.741 3.711 3.641 3.251 2.981 2.961 2.831 2.611
704.077 2.361 2.281 2.171 1.941 1.851 1.781 1.651 1.511 1.341 1.105
723.367 1.0175 1.281 1.401 1.1758 1.1182 1.191 1.1751 1.1228 1.1316 1.1513
742.657 1.137 1.401 1.431 1.271 1.361 1.311 1.271 1.351 1.471 1.471
761.947 1.341 1.421 1.531 1.731 1.961 2.051 2.221 2.571 3.141 3.781
781.236 4.541 5.931 7.701 9.421 11.031 12.211 12.521 12.401 12.241 11.381
800.526 9.731 8.101 6.791 6.091 6.011 6.141 6.651 7.371 8.271 9.381
819.816 10.261 10.461 10.151 9.261 7.961 6.681 5.451 4.471 3.561 2.591
839.106 1.921 1.501 1.371 1.311 1.0451 1.0167 1.0192 1.0348 0.9526 0.9852
858.395 1.211 1.261 1.461 1.821 2.141 2.571 3.291 3.891 4.411 5.091
877.685 5.611 5.921 6.071 5.991 5.661 5.191 4.531 3.811 3.261 2.851
896.975 2.461 2.161 2.011 1.961 1.951 2.091 1.881 1.591 1.541 1.451
916.265 1.421 1.201 0.6808 0.5046 0.6417 0.5949 0.3561 0.25837 0.3037 0.2885
935.555 0.26354 0.25231 0.25206 0.1687 0.067 0 0.19392 0.4349 0.3076 0.17191
954.844 0.20802 0.1551 0.122 0.22479 0.3277 0.4442 0.3397 0.25562 0.3906 0.4763
974.134 0.4574 0.426 0.4461 0.4965 0.5274 0.4133 0.384 0.5059 0.4251 0.3375
993.424 0.5357 0.6405 0.5427 0.5881 0.5761 0.4834 0.5478 0.5583 0.4409 0.4263
1012.714 0.4669 0.4468 0.498 0.6272 0.7269 0.7071 0.8986 1.191 1.351 1.241
1032.003 1.261 1.641 1.951 2.291 3.161 4.111 4.861 5.671 6.101 6.301
1051.293 6.251 5.831 5.171 4.271 3.301 2.601 1.911 1.481 1.371 1.341
1070.583 1.401 1.371 1.431 1.421 1.501 1.561 1.341 1.511 1.741 1.961
1089.873 1.961 2.311 3.081 3.351 3.971 5.221 6.651 8.351 10.301 12.251
1109.163 14.531 15.981 16.491 16.701 16.271 14.761 12.641 10.321 8.061 6.441
1128.452 5.541 4.871 4.581 4.841 4.731 4.421 4.241 4.111 4.171 4.041
1147.742 3.751 3.631 3.731 3.981 3.971 3.911 3.911 3.771 3.731 3.911
1167.032 3.931 3.931 3.911 4.011 4.141 3.811 3.461 3.501 3.561 3.151
1186.322 2.911 2.841 2.811 2.971 2.801 2.311 1.981 2.161 1.951 1.571
1205.611 1.681 1.751 1.621 1.311 1.341 1.391 1.371 1.471 1.371 1.053
1224.901 0.9409 1.0258 1.0329 1.321 1.441 1.421 1.711 1.991 2.521 3.001
1244.191 3.431 4.161 4.481 4.381 4.211 4.001 3.741 3.451 3.231 3.021
1263.481 2.871 2.711 2.601 2.561 2.431 2.311 2.151 2.101 2.011 1.951
1282.771 2.091 2.161 2.151 2.201 2.391 2.581 2.631 2.711 2.931 3.051
1302.060 3.111 3.281 3.381 3.431 3.511 3.551 3.611 3.731 3.891 4.031
1321.350 4.141 4.281 4.521 4.891 5.301 5.861 6.601 7.431 8.601 10.051
1340.640 11.641 13.511 15.701 18.161 20.781 23.371 25.591 27.091 27.771 27.571
1359.930 26.431 24.401 21.551 18.181 14.761 11.681 9.231 7.371 6.031 5.061
1379.219 4.331 3.841 3.541 3.311 3.121 3.001 2.931 2.931 2.961 3.001
1398.509 3.061 3.121 3.201 3.261 3.251 3.171 3.091 2.961 2.761 2.571
1417.799 2.461 2.431 2.371 2.371 2.391 2.451 2.551 2.661 2.801 2.951
1437.089 3.071 3.181 3.311 3.441 3.531 3.651 3.741 3.811 3.901 4.001
1456.378 4.171 4.351 4.511 4.691 4.951 5.281 5.631 6.021 6.531 7.191
1475.668 7.771 8.351 9.111 9.861 10.601 11.461 12.341 13.131 14.041 15.051
1494.958 16.051 16.981 17.761 18.501 19.161 19.691 20.201 20.581 20.941 21.481
1514.248 22.081 22.681 23.271 23.861 24.481 25.001 25.521 26.101 26.661 27.241
1533.538 27.931 28.741 29.681 30.811 32.131 33.691 35.691 38.021 40.551 43.161
1552.827 45.781 48.251 50.181 51.501 51.921 51.261 49.471 46.771 43.521 40.091
1572.117 36.811 33.831 31.051 28.471 26.241 24.411 22.821 21.301 19.881 18.431
1591.407 17.071 15.951 15.091 14.481 14.221 14.171 14.181 14.111 13.831 13.181
1610.697 12.141 10.801 9.281 7.661 6.171 4.981 4.061 3.451 2.971 2.661
1629.986 2.441 2.291 2.151 2.061 2.061 2.001 1.971 1.941 1.851 1.731
1649.276 1.621 1.541 1.441 1.321 1.191 1.1406 1.066 0.8755 0.8434 0.7826
1668.566 0.7128 0.7722 0.7584 0.7308 0.701 0.6749 0.713 0.6745 0.6151 0.6301
1687.856 0.6921 0.7229 0.6334 0.615 0.6655 0.7156 0.7554 0.7397 0.7577 0.7838
1707.146 0.7594 0.745 0.747 0.6652 0.5742 0.6225 0.6631 0.598 0.5749 0.5465
1726.435 0.5424 0.5761 0.5773 0.5938 0.5964 0.5853 0.5589 0.5431 0.5868 0.6243
1745.725 0.6474 0.6745 0.7403 0.7892 0.7567 0.7677 0.7837 0.8301 0.8315 0.7855
1765.015 0.7921 0.8175 0.8035 0.7587 0.7711 0.7606 0.6519 0.5353 0.503 0.5127
1784.305 0.5238 0.4989 0.4397 0.4517 0.4786 0.4316 0.4142 0.46 0.4802 0.4411
1803.594 0.4216 0.4814 0.536 0.4831 0.4197 0.4235 0.4249 0.4046 0.4035 0.3923
1822.884 0.3933 0.4112 0.4164 0.4223 0.4662 0.4788 0.4325 0.4281 0.4671 0.4469
1842.174 0.4234 0.4092 0.351 0.3172 0.3642 0.3863 0.3575 0.3457 0.3333 0.3789
1861.464 0.3769 0.3371 0.3166 0.27658 0.3526 0.4493 0.4273 0.4696 0.4881 0.4773
1880.754 0.5561 0.6187 0.6382 0.6707 0.7741 0.8572 0.8953 0.9119 0.8887 0.8512
1900.043 0.8481 0.816 0.8255 0.862 0.7737 0.702 0.6435 0.5034 0.4555 0.4562
1919.333 0.4099 0.4551 0.4386 0.3969 0.4084 0.4395 0.446 0.4493 0.4145 0.3713
1938.623 0.3865 0.3917 0.3812 0.3823 0.383 0.4089 0.4095 0.3504 0.3794 0.4349
1957.913 0.4427 0.3955 0.3796 0.4269 0.414 0.4194 0.4658 0.434 0.3894 0.4101
1977.202 0.3702 0.3523 0.4069 0.4183 0.3696 0.3427 0.3987 0.4297 0.4352 0.4315
1996.492 0.3986 0.3581 0.3543 0.3824 0.3684 0.3521 0.381 0.4466 0.465 0.4202
2015.782 0.4035 0.4096 0.4509 0.48 0.4864 0.4487 0.4493 0.5048 0.5327 0.5151
2035.072 0.5474 0.5677 0.523 0.5108 0.4971 0.5221 0.5801 0.5998 0.6266 0.6448
2054.362 0.6787 0.7388 0.7281 0.71 0.7415 0.7764 0.7811 0.7767 0.8109 0.8928
2073.651 0.9161 0.9266 0.999 1.0578 1.0492 1.0652 1.1198 1.191 1.331 1.391
2092.941 1.441 1.471 1.481 1.621 1.721 1.791 1.851 1.881 1.911 1.991
2112.231 2.091 2.181 2.261 2.321 2.411 2.451 2.511 2.601 2.681 2.801
2131.521 2.871 2.941 3.071 3.211 3.331 3.381 3.521 3.751 3.991 4.201
2150.810 4.401 4.661 4.931 5.231 5.571 5.911 6.311 6.721 7.141 7.641
2170.100 8.161 8.731 9.331 9.871 10.541 11.251 11.901 12.611 13.331 14.121
2189.390 14.881 15.611 16.381 17.191 18.021 18.841 19.721 20.531 21.481 22.591
2208.680 23.611 24.701 25.851 26.931 27.971 29.041 30.241 31.371 32.551 33.871
2227.970 35.261 36.711 38.131 39.561 41.181 43.051 45.241 48.001 51.521 55.931
2247.259 61.511 68.471 77.001 87.511 100.441 116.191 135.171 157.761 183.781 212.461
2266.549 241.781 268.011 287.121 296.341 294.831 283.311 263.051 236.041 206.011 176.721
2285.839 150.691 129.261 112.171 98.651 87.941 79.361 72.421 66.501 61.311 56.621
2305.129 52.211 48.131 44.401 40.931 37.771 34.951 32.621 30.661 28.971 27.691
2324.418 26.761 26.091 25.671 25.461 25.281 25.051 24.911 24.851 24.881 24.991
2343.708 25.161 25.531 25.991 26.221 26.261 25.891 24.911 23.551 21.841 19.801
2362.998 17.701 15.621 13.711 12.041 10.651 9.481 8.491 7.631 6.931 6.421
2382.288 5.951 5.541 5.171 4.951 4.781 4.571 4.441 4.441 4.391 4.201
2401.578 4.081 4.031 4.021 4.031 3.971 3.921 3.901 3.831 3.721 3.611
2420.867 3.581 3.521 3.391 3.251 3.071 2.961 2.861 2.691 2.571 2.411
2440.157 2.241 2.101 1.961 1.801 1.661 1.601 1.481 1.391 1.341 1.281
2459.447 1.241 1.1448 1.1136 1.106 1.0542 1.0169 0.9636 0.9077 0.9125 0.9254
2478.737 0.7932 0.7648 0.7507 0.7111 0.6865 0.7033 0.7636 0.7199 0.6847 0.6417
2498.026 0.632 0.7129 0.7534 0.7031 0.686 0.6438 0.6946 0.7798 0.7535 0.7486
2517.316 0.8053 0.754 0.6606 0.6209 0.6163 0.6221 0.5968 0.6014 0.5578 0.5647
2536.606 0.5561 0.5002 0.549 0.5923 0.5508 0.5359 0.4998 0.4732 0.5438 0.5832
2555.896 0.5363 0.4914 0.4749 0.4592 0.4394 0.4067 0.4251 0.4744 0.4924 0.5088
2575.186 0.5268 0.4982 0.4396 0.4764 0.5676 0.5805 0.5195 0.4498 0.4275 0.4745
2594.475 0.6242 0.6327 0.5414 0.5971 0.6518 0.6467 0.7086 0.712 0.7062 0.7761
2613.765 0.8585 0.8989 0.8638 0.9151 0.8979 0.8917 0.9845 0.8936 0.7722 0.8009
2633.055 0.8264 0.8099 0.7925 0.7374 0.7412 0.7305 0.6316 0.6393 0.7246 0.7622
2652.345 0.7351 0.6863 0.6737 0.6764 0.6596 0.7356 0.7717 0.6985 0.7907 0.9011
2671.634 0.8172 0.7171 0.6993 0.6665 0.6281 0.6213 0.6049 0.638 0.6653 0.6905
2690.924 0.7131 0.7596 0.7478 0.6473 0.5793 0.599 0.6474 0.6221 0.6947 0.7755
2710.214 0.7034 0.635 0.6137 0.5578 0.5189 0.4735 0.4672 0.5173 0.4572 0.3699
2729.504 0.433 0.4968 0.5088 0.5091 0.4605 0.4282 0.3988 0.4553 0.5109 0.4845
2748.794 0.4202 0.3815 0.3579 0.3085 0.361 0.3834 0.3525 0.3519 0.4027 0.4715
2768.083 0.4629 0.4245 0.3864 0.367 0.3689 0.3169 0.3163 0.4223 0.4223 0.356
2787.373 0.4034 0.5424 0.5413 0.4303 0.4284 0.4544 0.5305 0.5762 0.6109 0.6562
2806.663 0.6312 0.5657 0.5321 0.5659 0.592 0.6347 0.6111 0.5965 0.538 0.3994
2825.953 0.4216 0.4747 0.525 0.5824 0.603 0.5184 0.5751 0.7306 0.6778 0.6085
2845.242 0.5858 0.6499 0.6702 0.6343 0.7027 0.636 0.6063 0.6652 0.7143 0.7975
2864.532 0.8063 0.7897 0.7248 0.7474 0.8213 0.796 0.7775 0.9009 0.939 0.8632
2883.822 0.8615 0.9308 0.9851 1.0455 1.0552 1.0253 0.9866 0.9623 1.1319 1.231
2903.112 1.221 1.251 1.241 1.301 1.381 1.351 1.261 1.281 1.281 1.1505
2922.401 1.191 1.191 1.201 1.251 1.311 1.451 1.271 1.0909 1.0444 1.0147
2941.691 1.1353 1.221 1.191 1.1543 1.1228 1.1118 1.1591 1.154 1.1637 1.201
2960.981 1.1161 1.0178 0.9532 0.8397 0.8192 0.835 0.7165 0.648 0.6252 0.6074
2980.271 0.641 0.643 0.6432 0.5248 0.3888 0.4565 0.5656 0.5489 0.469 0.3987
2999.561 0.3983 0.3977 0.3364 0.341 0.3813 0.4214 0.4578 0.4346 0.3031 0.23889
3018.850 0.3473 0.3654 0.27033 0.3898 0.417 0.2925 0.3551 0.4696 0.5027 0.5523
3038.140 0.615 0.6226 0.5477 0.5143 0.5686 0.6174 0.6252 0.6698 0.8468 0.9059
3057.430 0.922 0.9848 1.0198 1.0794 1.1269 1.241 1.361 1.431 1.371 1.321
3076.720 1.371 1.391 1.331 1.251 1.241 1.261 1.231 1.1265 0.9697 0.8573
3096.009 0.8275 0.8257 0.7803 0.7589 0.728 0.6904 0.613 0.453 0.4369 0.4391
3115.299 0.3617 0.3933 0.4322 0.4265 0.4559 0.3776 0.3601 0.3835 0.316 0.2954
3134.589 0.2977 0.3031 0.3316 0.2949 0.24846 0.22246 0.27039 0.448 0.4056 0.3493
3153.879 0.4024 0.3723 0.3879 0.404 0.4518 0.5478 0.5306 0.4954 0.6415 0.725
3173.169 0.8312 0.7603 0.6615 0.7174 0.6855 0.6388 0.629 0.7006 0.6639 0.6225
3192.458 0.5608 0.5108 0.6252 0.5789 0.2944 0.25441 0.3448 0.3141 0.322 0.29
3211.748 0.185698 0.1669 0.188956 0.187222 0.17244 0.22217 0.20325 0.03 0.018 0.24108
3231.038 0.2713 0.23333 0.24033 0.1493 0.1075 0.1653 0.17202 0.149 0.20104 0.26363
3250.328 0.3322 0.3159 0.2959 0.189322 0.1136 0.20964 0.3107 0.2906 0.21093 0.1541
3269.617 0.1016 0.078 0.1389 0.1389 0.19289 0.2894 0.1874 0.126 0.145 0.2872
3288.907 0.27529 0.20788 0.24112 0.2917 0.2957 0.1302 0.17908 0.3002 0.24645 0.23298
3308.197 0.20923 0.19493 0.3231 0.4653 0.5414 0.5136 0.3931 0.36 0.314 0.3974
3327.487 0.4538 0.3674 0.3754 0.3353 0.4037 0.4467 0.3844 0.3547 0.3651 0.2823
3346.777 0.2453 0.4677 0.4467 0.2713 0.3768 0.4122 0.4077 0.5514 0.7075 0.6133
3366.066 0.5845 0.7244 0.7977 0.7597 0.668 0.7446 0.8168 0.8593 0.9368 0.9497
3385.356 0.9847 1.0252 1.1067 1.119 1.0415 0.9156 0.7345 0.7366 0.863 0.9052
3404.646 0.9613 1.0301 0.8406 0.8296 0.8777 0.8889 1.1077 1.1177 0.9272 0.9353
3423.936 1.1613 1.281 1.1683 1.1531 1.371 1.391 1.421 1.541 1.451 1.311
3443.225 1.191 1.1301 1.0657 1.0185 0.9518 0.8786 0.8612 0.8304 0.7568 0.6901
3462.515 0.7336 0.7445 0.6607 0.6563 0.6289 0.699 0.6025 0.456 0.5356 0.502
3481.805 0.4312 0.3745 0.5002 0.4818 0.3634 0.4432 0.5147 0.4652 0.4791 0.4597
3501.095 0.3714 0.4265 0.4276 0.4222 0.4622 0.4496 0.4349 0.4588 0.4967 0.338
3520.385 0.27867 0.491 0.5608 0.5308 0.4327 0.3322 0.3289 0.3424 0.2867 0.3486
3539.674 0.3218 0.284 0.4647 0.4766 0.3612 0.313 0.3375 0.2946 0.19017 0.187837
3558.964 0.20889 0.20532 0.2932 0.2911 0.23455 0.3366 0.4149 0.3635 0.3107 0.3616
3578.254 0.4615 0.5323 0.3938 0.24043 0.24593 0.3448 0.4887 0.419 0.4462 0.5634
3597.544 0.6004 0.6046 0.517 0.4035 0.4083 0.422 0.3925 0.5617 0.6919 0.6615
3616.833 0.611 0.5535 0.561 0.5776 0.5379 0.6153 0.7738 0.8509 0.8514 0.7488
3636.123 0.6171 0.725 0.8502 0.9257 0.9325 0.8032 0.7275 0.7843 0.9162 0.9204
3655.413 0.8021 0.7665 0.8288 0.9309 0.9319 0.8349 0.8983 1.1037 1.0822 1.0321
3674.703 1.1215 1.1782 1.201 1.0842 0.9979 1.0861 1.062 1.1042 1.133 1.1213
3693.993 1.281 1.231 1.211 1.251 1.371 1.471 1.371 1.241 1.241 1.231
3713.282 1.1012 1.0081 0.9494 0.9908 1.0387 0.9368 0.8597 0.8219 0.808 0.8509
3732.572 0.8117 0.7378 0.7293 0.7388 0.7548 0.7973 0.7247 0.7593 0.8275 0.8777
3751.862 0.8031 0.6715 0.8121 0.9093 0.8174 0.8003 0.8311 0.9139 0.9218 0.8942
3771.152 0.8961 0.9253 0.9135 0.9313 0.9597 0.9635 1.122 0.9923 0.8638 0.8194
3790.441 0.7003 0.6569 0.6849 0.7434 0.7083 0.7898 0.8142 0.6021 0.6533 0.6557
3809.731 0.5641 0.6953 0.7618 0.6781 0.5469 0.4491 0.5453 0.6099 0.5504 0.6093
3829.021 0.5188 0.4536 0.4722 0.3659 0.3477 0.4095 0.3363 0.3491 0.4976 0.6353
3848.311 0.6954 0.6038 0.5065 0.486 0.5338 0.4561 0.22142 0.3115 0.4246 0.3136
3867.601 0.3309 0.3473 0.28087 0.4158 0.4707 0.3345 0.4428 0.4394 0.3636 0.4315
3886.890 0.4128 0.4325 0.3893 0.1956 0.2922 0.4908 0.5618 0.4724 0.22213 0.21198
3906.180 0.22514 0.19783 0.2915 0.3751 0.3108 0.25265 0.2584 0.17424 0.17899 0.23589
3925.470 0.27936 0.27555 0.3829 0.3834 0.25084 0.184921 0.183108 0.3036 0.3362 0.303
3944.760 0.3118 0.344 0.20015 0.1701 0.23781 0.155 0.19733 0.3395 0.3304 0.25667
3964.049 0.25055 0.3176 0.4535 0.3793 0.3098 0.306 0.3138 0.289 0.24648 0.1567
3983.339 0.1326 0.2573 0.3334 0.4768 0.4214 0.27507 0.21852 0.27101 0.3833 0.25787
##END=
