##TITLE=3-Fluorophenyl isothiocyanate
##JCAMP-DX=4.24
##DATA TYPE=INFRARED SPECTRUM
##ORIGIN=EPA-IR VAPOR PHASE LIBRARY
##OWNER=SRD/NIST
Collection (C) 2018 copyright by the U.S. Secretary of Commerce
on behalf of the United States of America. All rights reserved.
##CAS REGISTRY NO=404-72-8
##MOLFORM=C 7 H 4 F N S
##$NIST SOURCE=MSDC-IR
##STATE=gas
##XUNITS=1/CM
##YUNITS=ABSORBANCE
##XFACTOR=1.
##YFACTOR=0.001
##DELTAX=1.92898
##FIRSTX=549.8
##LASTX=4000.7
##FIRSTY=29.004
##MAXX=4000.7
##MINX=549.759
##MAXY=0.716284
##MINY=0
##NPOINTS=1790
##XYDATA=(X++(Y..Y))
549.759 29.004 28.564 27.554 26.554 25.714 25.004 23.914 22.904 21.954 21.004
569.049 19.744 18.644 17.634 16.484 15.384 14.094 12.844 12.024 11.084 10.194
588.339 9.344 8.644 7.994 7.314 6.984 6.534 6.044 5.834 5.824 5.724
607.628 5.724 5.984 5.964 5.824 5.844 5.864 6.134 6.644 6.914 7.224
626.918 7.964 8.624 9.124 9.314 9.104 8.894 8.614 8.244 7.714 7.094
646.208 6.724 6.454 6.604 7.174 8.024 9.424 11.244 13.294 15.554 17.934
665.498 19.794 21.504 24.084 28.924 33.754 31.594 26.244 23.814 22.474 20.924
684.787 18.774 16.264 13.884 11.864 9.874 7.924 6.444 5.134 4.094 3.344
704.077 2.724 2.414 2.094 1.804 1.7354 1.804 1.774 1.814 2.224 2.684
723.367 2.724 2.944 3.274 3.284 3.354 3.504 3.544 3.614 3.914 4.354
742.657 4.894 5.774 6.764 7.784 9.384 11.374 13.704 16.754 20.494 24.594
761.947 29.004 33.564 37.834 41.844 46.254 51.934 59.114 62.944 57.164 48.044
781.236 43.004 39.704 35.854 31.304 26.444 21.774 17.904 15.474 14.314 14.154
800.526 15.164 17.294 19.844 22.614 25.674 28.924 32.374 36.094 40.564 45.724
819.816 51.594 58.454 66.204 73.734 80.184 85.764 90.064 92.344 92.014 89.314
839.106 85.224 80.364 75.064 69.674 64.564 60.474 57.534 55.354 53.984 53.784
858.395 56.194 60.454 60.784 53.724 45.144 39.894 36.534 32.664 28.174 23.794
877.685 19.614 16.244 13.434 11.404 10.254 9.604 9.484 9.754 10.184 10.704
896.975 11.394 12.094 12.824 13.334 13.594 13.754 13.604 13.294 12.754 12.084
916.265 11.464 10.794 10.154 9.604 9.254 8.974 8.424 7.804 7.444 6.964
935.555 6.344 5.784 5.324 4.974 4.764 4.484 4.374 4.424 4.174 3.974
954.844 4.014 4.134 4.074 4.264 4.544 4.704 4.994 5.374 5.914 6.644
974.134 7.574 8.744 9.854 10.794 11.764 12.514 12.964 13.134 13.284 13.494
993.424 13.404 12.944 12.404 11.634 10.584 9.764 8.884 8.114 7.564 6.554
1012.714 5.284 4.164 3.384 2.944 2.924 2.624 2.524 2.824 2.524 2.514
1032.003 2.804 2.634 2.434 2.354 2.274 2.364 2.274 2.034 1.934 1.864
1051.293 1.954 2.284 2.804 3.544 4.414 4.864 5.224 6.064 6.774 7.164
1070.583 7.084 6.534 6.524 6.854 6.444 5.634 4.414 3.434 3.154 2.844
1089.873 2.174 1.764 1.944 1.834 1.834 2.074 2.514 2.634 2.334 2.864
1109.163 3.014 2.774 3.194 3.634 3.594 4.104 5.034 5.764 6.454 7.484
1128.452 9.414 11.674 14.734 19.454 26.354 35.134 43.374 48.784 50.534 50.034
1147.742 49.834 50.074 47.454 40.864 33.964 29.754 29.424 32.434 36.864 40.474
1167.032 41.644 40.674 39.494 39.474 38.144 33.144 25.854 19.004 14.594 12.014
1186.322 10.054 8.304 6.764 5.844 5.004 4.344 4.214 4.164 4.044 3.894
1205.611 3.904 3.894 4.004 4.024 4.114 4.404 4.164 4.224 4.344 4.294
1224.901 4.094 3.824 3.614 3.274 3.404 3.564 3.694 4.134 4.614 5.344
1244.191 6.194 7.104 8.794 11.164 14.034 17.424 21.124 24.614 27.904 30.894
1263.481 33.484 36.044 38.694 41.324 43.884 46.504 49.154 51.444 52.734 53.014
1282.771 52.454 51.114 48.774 44.954 39.964 34.784 29.894 25.344 21.104 17.454
1302.060 14.474 11.994 9.984 8.394 7.104 6.144 5.574 5.124 4.724 4.484
1321.350 4.374 4.304 4.284 4.274 4.244 4.094 3.834 3.684 3.554 3.364
1340.640 3.164 2.914 2.694 2.504 2.364 2.324 2.274 2.214 2.154 2.104
1359.930 2.014 1.904 1.854 1.814 1.7377 1.707 1.6603 1.562 1.556 1.5563
1379.219 1.5226 1.5374 1.5462 1.5647 1.6529 1.794 1.944 2.134 2.434 2.744
1398.509 3.014 3.304 3.594 3.824 4.034 4.144 4.144 4.244 4.504 4.794
1417.799 5.034 5.414 6.014 6.974 8.264 9.834 11.894 14.474 17.694 21.504
1437.089 25.894 30.484 34.684 38.064 40.204 41.134 41.154 40.184 37.914 34.394
1456.378 30.054 25.544 21.974 19.804 19.094 19.784 21.904 25.784 32.064 41.404
1475.668 54.354 71.064 89.714 106.874 118.154 122.214 121.394 117.414 109.324 94.794
1494.958 73.974 52.194 35.284 24.954 19.714 17.194 15.984 15.314 15.154 15.394
1514.248 15.674 15.904 16.084 16.074 16.004 15.874 15.574 15.044 14.444 13.914
1533.538 13.734 14.134 14.994 16.314 18.024 19.904 21.704 23.234 24.284 25.114
1552.827 25.954 26.604 27.204 27.814 28.744 30.494 33.404 37.364 42.414 48.614
1572.117 56.134 64.974 75.254 86.744 98.824 111.004 122.454 132.944 142.564 151.904
1591.407 160.764 168.994 177.044 185.634 194.754 203.484 210.484 214.934 215.934 212.044
1610.697 202.824 189.004 172.204 153.134 132.874 112.664 93.424 76.394 62.024 50.334
1629.986 40.884 33.324 27.374 22.714 19.134 16.344 14.124 12.464 11.074 9.924
1649.276 9.004 8.324 7.814 7.334 6.974 6.694 6.544 6.324 6.024 5.784
1668.566 5.544 5.264 4.934 4.574 4.304 4.244 4.184 4.144 4.104 4.064
1687.856 4.064 4.004 3.984 3.974 3.894 3.834 3.864 3.864 3.924 4.014
1707.146 4.194 4.404 4.564 4.764 4.944 5.074 5.134 5.194 5.274 5.324
1726.435 5.284 5.194 5.184 5.124 4.994 4.904 4.884 4.874 4.944 5.064
1745.725 5.214 5.434 5.764 6.054 6.254 6.464 6.624 6.644 6.534 6.334
1765.015 6.014 5.664 5.204 4.824 4.434 4.024 3.704 3.514 3.424 3.264
1784.305 3.164 3.214 3.204 3.164 3.234 3.294 3.384 3.474 3.634 3.854
1803.594 4.034 4.234 4.494 4.824 5.184 5.594 6.034 6.494 6.964 7.404
1822.884 7.774 8.094 8.334 8.464 8.594 8.794 8.984 9.194 9.314 9.314
1842.174 9.204 8.984 8.664 8.274 7.884 7.434 7.004 6.704 6.464 6.344
1861.464 6.384 6.414 6.474 6.574 6.644 6.774 6.934 7.134 7.384 7.664
1880.754 7.984 8.374 8.874 9.414 9.914 10.514 11.174 11.844 12.644 13.464
1900.043 14.364 15.314 16.324 17.554 18.934 20.424 22.024 23.874 25.894 27.884
1919.333 29.944 32.054 34.134 36.224 38.414 40.694 43.144 45.764 48.474 51.424
1938.623 54.784 58.594 62.844 67.524 72.544 77.894 83.614 89.824 96.444 103.374
1957.913 110.774 118.604 126.604 134.734 142.884 150.994 158.804 166.174 173.274 180.124
1977.202 187.024 194.284 202.054 210.624 220.074 230.444 241.674 253.564 265.614 277.444
1996.492 288.984 300.004 310.564 320.884 331.134 341.494 352.354 363.954 376.424 389.754
2015.782 404.174 420.274 438.094 457.944 480.454 506.244 535.594 568.304 603.954 641.004
2035.072 675.514 702.224 716.284 715.354 699.514 669.954 630.084 583.524 533.054 482.274
2054.362 433.904 389.844 351.564 319.334 293.024 272.514 257.524 247.594 242.254 241.394
2073.651 244.504 250.844 259.934 271.124 283.574 296.714 310.184 323.304 335.564 346.224
2092.941 354.354 359.404 360.144 356.334 348.184 335.804 320.064 301.914 282.284 262.054
2112.231 242.174 223.204 205.694 189.824 175.614 163.224 152.624 143.784 136.524 130.694
2131.521 125.954 121.974 118.634 115.704 112.774 109.914 107.154 104.474 102.044 100.174
2150.810 98.814 97.704 96.664 95.264 93.304 90.634 87.034 82.604 77.424 71.554
2170.100 65.484 59.614 53.964 48.584 43.764 39.624 35.914 32.614 29.704 27.084
2189.390 24.914 23.134 21.494 20.074 18.944 17.894 16.884 15.984 15.174 14.524
2208.680 13.884 13.154 12.444 11.784 11.214 10.704 10.174 9.624 9.294 9.004
2227.970 8.594 8.184 7.854 7.654 7.534 7.424 7.244 7.134 7.044 7.034
2247.259 7.004 6.994 7.084 7.324 7.724 8.074 8.464 8.984 9.574 10.134
2266.549 10.714 11.214 11.574 11.764 11.684 11.354 10.834 10.284 9.634 8.884
2285.839 8.214 7.554 6.894 6.374 5.934 5.574 5.304 5.004 4.724 4.514
2305.129 4.424 4.364 4.344 4.284 4.214 4.214 4.264 4.164 3.974 3.904
2324.418 3.844 3.754 3.704 3.754 3.654 3.644 3.724 3.634 3.484 3.304
2343.708 3.114 2.954 2.744 2.574 2.414 2.294 2.254 2.144 2.114 2.204
2362.998 2.214 2.204 2.304 2.334 2.344 2.464 2.544 2.604 2.664 2.734
2382.288 2.874 3.004 3.044 3.124 3.304 3.454 3.634 3.844 4.074 4.304
2401.578 4.564 4.804 5.124 5.564 6.034 6.604 7.214 7.844 8.494 9.114
2420.867 9.644 10.164 10.514 10.694 10.714 10.504 10.314 10.084 9.764 9.454
2440.157 9.294 9.184 9.004 8.854 8.804 8.754 8.504 8.194 7.814 7.284
2459.447 6.774 6.234 5.704 5.334 5.094 4.814 4.624 4.624 4.554 4.444
2478.737 4.444 4.454 4.414 4.444 4.524 4.604 4.674 4.704 4.714 4.794
2498.026 4.754 4.624 4.624 4.634 4.604 4.634 4.714 4.694 4.624 4.594
2517.316 4.674 4.724 4.814 4.964 5.124 5.204 5.274 5.494 5.624 5.734
2536.606 5.904 6.044 6.204 6.294 6.414 6.624 6.814 6.984 7.144 7.344
2555.896 7.544 7.774 7.984 8.164 8.404 8.634 8.904 9.254 9.574 9.874
2575.186 10.154 10.464 10.734 10.824 10.894 10.804 10.314 9.754 9.084 8.304
2594.475 7.564 6.714 5.824 4.954 4.354 3.914 3.434 3.064 2.854 2.664
2613.765 2.484 2.444 2.404 2.284 2.214 2.224 2.214 2.164 2.184 2.214
2633.055 2.234 2.234 2.244 2.314 2.344 2.384 2.384 2.394 2.414 2.434
2652.345 2.444 2.454 2.454 2.444 2.454 2.454 2.464 2.504 2.474 2.444
2671.634 2.454 2.494 2.614 2.624 2.584 2.684 2.814 2.914 2.924 3.044
2690.924 3.214 3.334 3.464 3.604 3.714 3.814 4.034 4.194 4.254 4.374
2710.214 4.534 4.604 4.694 4.954 5.124 5.294 5.454 5.534 5.714 5.844
2729.504 5.904 5.864 5.724 5.664 5.634 5.414 5.114 4.814 4.444 4.174
2748.794 3.854 3.474 3.184 3.004 2.804 2.564 2.574 2.604 2.524 2.494
2768.083 2.474 2.494 2.484 2.504 2.524 2.564 2.564 2.504 2.524 2.464
2787.373 2.494 2.584 2.574 2.584 2.574 2.594 2.614 2.604 2.454 2.404
2806.663 2.444 2.434 2.454 2.404 2.384 2.344 2.254 2.264 2.234 2.194
2825.953 2.274 2.284 2.254 2.294 2.304 2.394 2.544 2.624 2.694 2.754
2845.242 2.734 2.654 2.674 2.764 2.934 3.034 3.044 3.174 3.314 3.314
2864.532 3.354 3.394 3.294 3.304 3.394 3.344 3.264 3.274 3.344 3.364
2883.822 3.194 3.054 3.034 3.034 2.984 2.854 2.694 2.594 2.584 2.494
2903.112 2.424 2.384 2.244 2.354 2.414 2.244 2.164 2.224 2.254 2.334
2922.401 2.394 2.494 2.684 2.764 2.814 2.844 2.964 2.984 2.994 3.054
2941.691 3.154 3.194 3.024 3.034 3.074 2.934 2.844 2.844 2.844 2.784
2960.981 2.604 2.434 2.444 2.464 2.424 2.304 2.194 2.134 2.064 2.004
2980.271 1.924 1.984 1.964 1.914 1.974 1.884 1.894 1.954 1.834 1.874
2999.561 1.934 1.854 1.824 1.914 2.004 2.014 2.144 2.234 2.144 2.064
3018.850 2.214 2.294 2.364 2.574 2.764 2.844 2.884 2.994 3.194 3.414
3038.140 3.544 3.654 3.734 3.884 3.994 4.124 4.274 4.184 3.964 3.994
3057.430 4.084 4.104 4.224 4.344 4.514 4.794 5.134 5.484 5.914 6.344
3076.720 6.664 7.054 7.484 7.734 7.774 7.704 7.514 7.144 6.564 5.914
3096.009 5.384 4.854 4.334 3.814 3.424 3.004 2.734 2.624 2.384 2.234
3115.299 2.024 1.814 1.794 1.5707 1.2898 1.0308 0.82123 0.81462 0.7678 0.81692
3134.589 0.8093 0.6981 0.583 0.553 0.467 0.358 0.397 0.407 0.461 0.459
3153.879 0.36 0.33 0.399 0.37 0.212 0.221 0.296 0.366 0.469 0.319
3173.169 0.217 0.303 0.391 0.378 0.315 0.306 0.244 0.26 0.286 0.291
3192.458 0.283 0.321 0.348 0.275 0.272 0.321 0.378 0.462 0.332 0.136
3211.748 0.194 0.271 0.234 0.273 0.33 0.311 0.388 0.334 0.202 0.245
3231.038 0.182 0.133 0.196 0.197 0.108 0.206 0.345 0.221 0.257 0.261
3250.328 0.116 0.222 0.324 0.272 0.163 0.094 0.129 0.106 0.061 0.203
3269.617 0.271 0.108 0.097 0.274 0.32 0.138 0.119 0.217 0.118 0.06
3288.907 0.163 0.209 0.221 0.19 0.026 0.114 0.299 0.173 0.119 0.182
3308.197 0.133 0.093 0.181 0.259 0.21 0.121 0 0.07 0.316 0.333
3327.487 0.235 0.285 0.371 0.409 0.388 0.345 0.312 0.314 0.321 0.298
3346.777 0.236 0.181 0.274 0.343 0.361 0.296 0.272 0.32 0.266 0.278
3366.066 0.208 0.138 0.138 0.268 0.326 0.226 0.225 0.218 0.157 0.154
3385.356 0.204 0.314 0.464 0.33 0.17 0.288 0.375 0.312 0.341 0.503
3404.646 0.413 0.223 0.247 0.366 0.342 0.365 0.445 0.336 0.336 0.349
3423.936 0.276 0.224 0.244 0.414 0.437 0.155 0.117 0.246 0.252 0.263
3443.225 0.258 0.263 0.359 0.585 0.559 0.375 0.416 0.43 0.346 0.394
3462.515 0.368 0.245 0.277 0.332 0.318 0.312 0.347 0.408 0.502 0.476
3481.805 0.367 0.249 0.262 0.427 0.343 0.334 0.431 0.427 0.389 0.283
3501.095 0.165 0.358 0.511 0.433 0.339 0.324 0.511 0.46 0.329 0.245
3520.385 0.245 0.467 0.481 0.455 0.424 0.483 0.498 0.422 0.471 0.428
3539.674 0.394 0.363 0.4 0.511 0.515 0.587 0.541 0.463 0.425 0.363
3558.964 0.391 0.395 0.458 0.404 0.374 0.406 0.452 0.406 0.384 0.571
3578.254 0.753486 0.73 0.502 0.547 0.6775 0.594 0.6623 0.7242 0.648 0.502
3597.544 0.556 0.6568 0.558 0.52 0.435 0.46 0.487 0.471 0.605 0.602
3616.833 0.561 0.564 0.579 0.505 0.487 0.591 0.582 0.516 0.539 0.589
3636.123 0.474 0.424 0.5 0.51 0.404 0.515 0.64 0.46 0.488 0.608
3655.413 0.504 0.484 0.369 0.472 0.627 0.52 0.454 0.357 0.332 0.296
3674.703 0.319 0.407 0.297 0.376 0.64 0.492 0.447 0.636 0.537 0.578
3693.993 0.754909 0.639 0.434 0.396 0.316 0.262 0.275 0.289 0.433 0.478
3713.282 0.614 0.6756 0.611 0.583 0.498 0.454 0.602 0.611 0.517 0.605
3732.572 0.604 0.621 0.6689 0.6 0.568 0.6553 0.754286 0.6794 0.621 0.618
3751.862 0.494 0.553 0.7324 0.756556 0.74937 0.75021 0.634 0.573 0.7373 0.8723
3771.152 0.9047 0.9578 0.81441 0.6817 0.6815 0.556 0.484 0.627 0.7154 0.6813
3790.441 0.83035 0.82627 0.633 0.7046 0.8845 0.9374 0.8879 0.83702 0.7768 0.82868
3809.731 0.84885 0.596 0.649 0.77819 0.76718 0.81255 0.75497 0.77116 0.79303 0.8711
3829.021 0.9171 0.79166 0.688 0.6816 0.82639 0.9204 0.7528 0.6802 0.7655 0.82366
3848.311 0.9421 1.0151 0.9788 0.9054 0.82028 0.74717 0.6956 0.9488 1.1113 1.0267
3867.601 1.1082 1.1505 1.0483 1.0726 1.139 1.158 1.1558 1.0433 1.1324 1.2642
3886.890 1.1894 1.1998 1.3336 1.3928 1.3016 1.3186 1.4087 1.3477 1.3972 1.3332
3906.180 1.3705 1.3352 1.1479 1.4055 1.567 1.4894 1.4502 1.492 1.5682 1.5756
3925.470 1.5644 1.6243 1.7309 1.804 1.874 1.894 1.984 2.034 1.874 1.774
3944.760 1.834 1.854 1.944 1.954 1.774 1.774 1.914 2.124 2.194 2.094
3964.049 2.134 2.114 2.154 2.214 2.104 2.164 2.224 2.324 2.324 2.204
3983.339 2.234 2.184 2.154 2.294 2.504 2.534 2.494 2.544 2.494 2.224
##END=
