##TITLE=2-Iodophenylacetonitrile
##JCAMP-DX=4.24
##DATA TYPE=INFRARED SPECTRUM
##ORIGIN=EPA-IR VAPOR PHASE LIBRARY
##OWNER=SRD/NIST
Collection (C) 2018 copyright by the U.S. Secretary of Commerce
on behalf of the United States of America. All rights reserved.
##CAS REGISTRY NO=40400-15-5
##MOLFORM=C 8 H 6 I N
##$NIST SOURCE=MSDC-IR
##STATE=gas
##XUNITS=1/CM
##YUNITS=ABSORBANCE
##XFACTOR=1.
##YFACTOR=0.001
##DELTAX=1.92898
##FIRSTX=549.8
##LASTX=4000.7
##FIRSTY=2.359
##MAXX=4000.7
##MINX=549.759
##MAXY=0.03305
##MINY=0
##NPOINTS=1790
##XYDATA=(X++(Y..Y))
549.759 2.359 3.2023 3.4512 3.239 2.8042 1.984 2.494 2.9559 2.71665 3.89
569.049 4.5 2.9257 2.9902 3.0887 3.0725 3.74 3.99 3.1877 3.3998 3.9
588.339 2.65893 2.119 2.9814 3.5289 3.3457 3.77 3.69 3.69 4.25 3.97
607.628 3.7 4.17 4.55 4.03 3.2851 3.2311 3.64 3.88 4.44 4.64
626.918 3.3332 2.9442 3.1815 2.9138 2.9133 3.3533 4.25 4.75 4.62 4.41
646.208 5.04 5.77 6.36 6.73 6.94 7.14 7.69 7.92 7.24 6.89
665.498 6.22 5.7 5.6 4.75 3.73 2.9779 2.8038 3.0586 3.5599 3.86
684.787 3.95 3.6035 2.67141 2.5763 2.7685 3.0232 3.3445 3.2399 3.4894 3.69
704.077 3.94 4.43 4.01 3.0862 2.9647 3.0371 3.4192 4.26 4.46 4.86
723.367 5.4 5.89 6.11 7.37 10.17 12.83 15.92 19 21.02 24.36
742.657 30.11 33.05 28.77 22.31 19.41 17.89 15.06 12.19 9.47 7.06
761.947 5.56 4.64 4.19 3.75 3.0854 3.1938 3.83 3.69 3.68 3.67
781.236 2.41 2.463 3.3828 3.3051 2.9515 3.2683 4.05 3.67 3.4822 3.198
800.526 3.2541 3.81 3.73 3.75 4.04 4.04 3.68 3.383 2.368 0.81
819.816 0 1.16 3.2158 3.3889 2.6008 2.42 2.9349 3.1989 3.3264 3.4985
839.106 3.2829 3.4199 3.2158 3.0486 3.1937 2.7074 2.52 2.8921 2.9686 2.736
858.395 2.422 2.528 2.9888 3.0005 3.0703 3.4049 3.2569 2.5856 2.5498 3.2104
877.685 3.3579 3.72 3.77 2.9232 2.7461 2.9338 3.0668 3.1908 2.9792 3.1096
896.975 3.66 3.67 3.0144 2.441 2.318 2.5963 3.0006 3.1437 2.8642 2.5968
916.265 2.7866 3.2694 3.4977 3.1724 2.72319 2.826 2.8865 3.2243 3.6172 3.76
935.555 3.82 3.4984 3.252 3.86 4.27 3.66 3.9 4.23 3.69 3.4762
954.844 3.1878 3.0228 3.2733 2.9215 3.0522 3.4651 3.1796 2.989 2.947 3.1169
974.134 3.5728 3.71 3.4297 3.3792 3.1459 2.7766 2.71749 3.2658 3.68 3.83
993.424 4.22 4.47 4.87 5.52 6.14 7.3 9.17 11.45 14.34 16.23
1012.714 18.34 20.48 21.04 21.26 19.03 15.29 13.21 9.62 6.63 5.88
1032.003 5.22 4.1 3.81 3.79 3.1166 3.6193 5.31 6.84 6.42 5.68
1051.293 5.57 5.37 4.21 3.5391 3.89 4.78 4.57 2.291 2.088 3.88
1070.583 3.455 1.716 0.73 1.2 1.747 1.808 2.367 3.1242 4.79 5.49
1089.873 4 3.5234 3.81 3.4246 1.883 2.67181 4.28 3.1655 4.6 5.28
1109.163 4.22 3.9 2.772 2.8368 3.143 3.0615 2.27 1.37 2.63053 2.9106
1128.452 2.478 2.522 2.243 1.07 1.727 1.927 1.997 3.5001 4.05 4.02
1147.742 3.08 2.026 0.43 1.36 2.7549 3.0914 3.2914 2.7469 1.972 1.35
1167.032 1.26 1.52 2.118 2.779 2.71773 3.4794 4.37 2.601 1.92 2.62754
1186.322 2.347 2.7601 3.4558 3.5687 4.17 5.08 4.33 2.8476 3.2299 3.5384
1205.611 4.17 3.89 2.025 3.2403 4.23 3.66 3.89 3.3346 1.23 0.3
1224.901 2.007 2.9864 2.8798 2.053 2.074 3.5084 2.9733 2.05 3.3915 3.78
1244.191 2.108 2.64872 4.2 3.1892 3.2135 3.86 3.89 3.74 2.68143 2.63375
1263.481 2.485 2.416 3.3108 3.1655 2.5973 2.71471 2.918 3.1586 2.9009 2.7577
1282.771 2.8383 2.9964 3.3231 2.935 2.62279 2.67515 2.851 3.0643 2.8138 2.9395
1302.060 3.421 3.1318 2.9882 3.044 3.0934 3.2719 3.39 3.71 3.4465 3.2657
1321.350 3.3579 3.1101 3.1236 3.0087 2.8151 2.907 2.7962 2.7929 3.1488 2.9851
1340.640 2.8918 3.2164 3.2518 3.1455 3.2104 3.2283 2.8967 2.8723 2.9755 3.0045
1359.930 3.2854 3.2911 3.0982 2.8996 2.9872 3.2673 3.1146 2.9661 3.0321 3.0491
1379.219 2.8375 2.8229 2.871 3.0802 3.5343 3.63 3.7 3.6231 3.65 3.98
1398.509 4.27 4.38 4.53 4.77 5.08 5.27 5.5 6.03 6.6 6.75
1417.799 7.15 8.03 8.29 8.36 8.94 9.6 10.38 11.41 12.25 13.03
1437.089 13.41 13.2 12.76 12.02 10.87 9.76 8.58 7.73 7.5 7.36
1456.378 7.59 8.37 9.16 9.88 10.63 11.3 11.86 12.04 11.82 11.16
1475.668 10.58 10.07 9.41 8.38 7.09 5.83 4.85 4.39 3.94 3.77
1494.958 3.86 3.78 3.4353 3.0187 3.0003 3.0898 2.8145 2.9177 3.1037 2.8859
1514.248 2.8013 2.8058 2.9457 2.9766 2.7946 2.7764 2.69419 2.8187 3.2857 3.2727
1533.538 2.9001 2.72546 2.64214 2.63118 2.68448 3.2829 3.81 3.5 3.2275 3.4291
1552.827 3.89 4.35 4.79 5.05 5.42 5.82 6.23 6.45 5.91 5.65
1572.117 5.8 5.72 5.5 5.7 5.67 5.45 5.57 5.33 5.33 5.52
1591.407 5.4 5.08 4.35 3.8 4 4.04 3.3714 3.0313 3.2508 3.1611
1610.697 2.9296 2.8318 3.0014 3.0421 2.7966 2.9626 3.0527 2.947 2.9977 3.0289
1629.986 3.0575 3.0751 2.9523 2.8149 2.9505 2.9719 3.0328 3.1854 3.1455 3.0828
1649.276 2.7432 2.6099 2.7912 2.9025 2.9333 3.0259 2.8501 2.7689 2.9766 3.1227
1668.566 2.9408 2.70389 2.8184 3.1204 3.3589 3.0153 2.8554 3.0152 3.0337 3.1574
1687.856 3.401 3.2832 3.0941 3.3799 3.6016 3.2175 2.8997 3.0668 3.2231 3.0215
1707.146 2.8967 2.8553 2.6147 2.66847 2.9324 2.8115 2.7455 2.8598 2.8499 2.71985
1726.435 2.8294 2.969 2.8187 2.749 2.9132 3.0072 2.66519 2.485 2.66084 2.70993
1745.725 2.6752 2.65303 2.5682 2.6154 2.7631 2.843 2.7839 2.68133 2.858 3.1314
1765.015 3.023 2.9419 3.1051 3.1966 3.052 3.0444 3.0253 3.0445 3.2353 2.9804
1784.305 2.8739 2.8823 2.8095 2.9262 3.0498 3.3016 3.2659 3.017 3.1376 3.2985
1803.594 3.1614 3.2012 3.3578 3.1739 3.025 3.2243 3.3357 3.2127 3.1395 3.2392
1822.884 3.1455 2.8363 2.7971 2.9434 3.1369 3.1829 3.2735 3.2186 3.0193 3.0101
1842.174 2.9171 2.894 3.0011 2.8891 2.72753 2.8237 2.8761 2.9521 3.1081 3.1181
1861.464 2.9728 2.8549 2.9851 3.0109 2.8694 2.9002 3.0031 2.9512 2.7726 2.7941
1880.754 2.8722 2.8655 2.9393 3.009 2.922 2.7649 2.5709 2.68709 3.1704 3.1645
1900.043 2.9876 3.086 3.2144 3.1483 3.1525 3.0814 3.0041 3.3159 3.4349 3.2027
1919.333 3.2659 3.4615 3.4922 3.4695 3.2266 3.2143 3.251 3.0228 3.0056 3.2351
1938.623 3.3942 3.4009 3.2004 3.2781 3.3543 3.3498 3.3553 3.0863 2.9784 3.0581
1957.913 2.9849 2.9816 2.9183 2.9122 3.101 2.985 2.8313 2.7732 2.7807 2.8733
1977.202 2.8365 2.7852 2.8355 2.8119 2.8432 2.9161 2.9787 2.9274 2.7843 2.8503
1996.492 2.8598 2.473 2.44 2.71426 2.64832 2.5354 2.576 2.7498 2.68477 2.65962
2015.782 2.7433 2.70543 2.69834 2.7998 3.1094 3.1513 3.1182 3.0145 2.8571 2.8386
2035.072 2.8825 2.9391 2.918 2.8119 2.7771 2.7824 2.65678 2.69802 2.7328 2.5593
2054.362 2.5593 2.9389 2.8366 2.505 2.7444 2.71331 2.5755 2.67277 2.71383 2.7783
2073.651 2.7962 2.8824 2.7549 2.65958 2.69109 2.7705 2.8596 2.69357 2.456 2.362
2092.941 2.5797 2.8023 2.64735 2.355 2.347 2.5545 2.73 2.7755 2.8624 2.893
2112.231 2.67191 2.70948 2.8373 2.7303 2.70025 2.63992 2.7507 2.9803 3.1 3.0454
2131.521 2.65388 2.5528 2.8442 3.0187 2.9988 2.899 2.7355 2.68731 2.9792 3.1146
2150.810 3.0056 2.7969 2.72537 2.7419 2.764 2.72995 2.69859 2.8097 2.768 2.7764
2170.100 2.8277 2.8303 2.5981 2.64087 2.9133 2.9674 2.8159 2.8999 3.1945 2.9394
2189.390 2.8166 2.848 2.8163 2.7772 2.8529 2.72302 2.71314 2.8911 2.7825 2.5813
2208.680 2.49 2.6052 2.6068 2.71921 2.8822 2.70912 2.69157 2.8174 2.66171 2.63773
2227.970 2.64314 2.64143 2.70428 2.7775 2.8595 3.1092 3.3009 3.0631 2.9234 2.9284
2247.259 3.0674 3.1887 3.2224 3.2396 3.2105 3.278 3.23 2.8855 2.7601 2.8982
2266.549 2.776 2.8111 2.9204 2.7963 2.7798 2.71081 2.7477 2.8381 2.8282 2.8877
2285.839 2.8122 2.5318 2.6089 3.0024 3.0141 2.9151 2.68861 2.65815 2.5956 2.508
2305.129 2.879 2.813 2.422 2.525 2.7342 2.72532 2.64599 2.72487 2.9529 2.8712
2324.418 2.8929 3.0455 3.028 2.9015 2.7978 2.8775 2.8855 2.831 2.8926 2.8127
2343.708 2.66297 2.63391 2.297 2.65069 3.0186 2.8149 2.7895 2.51 2.433 2.7661
2362.998 3.0491 2.8629 2.69134 2.71554 2.66988 2.7409 2.8219 2.8189 2.895 2.9538
2382.288 2.9111 2.9375 2.9664 2.99 2.8176 2.7376 2.9356 2.8113 2.63064 2.64002
2401.578 2.7354 2.77 2.71013 2.66005 2.9202 3.0295 2.785 2.9408 3.175 2.8776
2420.867 2.7907 2.8224 2.6386 2.5384 2.7745 2.9562 2.8999 2.9355 2.9026 2.9619
2440.157 2.9882 2.9933 3.1206 3.1855 3.0881 3.1881 3.0794 2.7568 2.443 2.331
2459.447 2.5601 2.8715 3.0015 3.0945 3.0327 3.0247 3.0161 2.7333 2.7623 2.65844
2478.737 2.69473 2.7424 2.489 2.501 2.6044 2.7517 2.66749 2.5391 2.9331 2.9544
2498.026 3.0251 3.2287 2.7469 2.5328 2.7536 2.9491 3.006 3.0519 3.1453 2.8898
2517.316 2.66601 2.7412 2.71615 2.7347 2.8843 3.01 3.0657 3.0326 2.8263 2.7423
2536.606 2.63826 2.6043 2.5932 2.71812 3.066 2.8436 2.71035 2.7314 2.5675 2.61
2555.896 2.8676 3.0959 3.0847 3.2699 3.2536 3.1976 3.0738 2.7517 2.6223 2.5633
2575.186 3.0298 3.288 2.8186 2.444 2.5478 2.9189 2.8382 2.7756 3.053 3.0256
2594.475 3.0754 3.2931 3.79 3.64 3.4725 3.4561 3.2692 3.3965 3.173 3.207
2613.765 3.4012 3.1508 2.8897 2.931 2.8376 2.72196 2.72168 2.7444 2.9106 2.9272
2633.055 2.8201 2.8108 2.71056 2.471 2.62802 2.964 3.1359 3.3089 2.9557 2.68229
2652.345 2.5652 2.7741 3.0219 2.62986 2.65323 2.9861 2.9131 2.5516 2.406 2.5787
2671.634 2.9276 3.2702 3.1703 3.0157 3.0992 3.1081 2.8812 2.819 2.8515 2.795
2690.924 2.68051 2.605 2.8781 2.7707 2.231 2.459 2.8961 2.516 2.333 2.526
2710.214 2.6199 2.7815 2.69166 2.515 2.6133 2.7843 3.0337 2.9699 2.5509 2.853
2729.504 3.1558 2.8384 2.8539 2.64455 2.5671 3.2054 3.2208 2.9177 2.67015 2.513
2748.794 2.7704 2.63181 2.513 2.8104 2.8398 2.314 2.05 2.264 2.45 2.65585
2768.083 2.7871 2.7554 2.9742 2.7754 2.5408 2.7686 2.7347 3.0116 3.1359 2.7559
2787.373 2.496 2.5311 2.8055 2.7762 2.5403 2.70911 2.498 2.5511 2.8451 2.498
2806.663 2.475 2.7831 2.8064 2.62101 2.64664 2.66752 2.7314 2.9386 3.2284 3.1613
2825.953 2.8861 2.8662 2.7758 2.9069 2.8614 2.563 2.7906 2.9452 2.63309 3.0268
2845.242 3.1457 2.8612 3.1809 3.0148 2.411 2 1.948 2.216 2.5411 2.5966
2864.532 2.367 2.64226 3.1872 2.8902 2.7656 3.1677 2.7927 2.69956 3.1111 3.196
2883.822 3.1286 2.9362 3.281 3.414 2.7843 2.499 2.71132 2.7554 2.8504 2.7958
2903.112 2.70955 3.1575 3.0524 2.5779 2.64662 2.347 2.64102 3.5296 3.2966 3.173
2922.401 3.2721 3.1502 3.2853 3.4953 3.82 3.97 3.66 3.3852 3.189 3.83
2941.691 4.27 3.69 3.1506 3.072 2.9876 2.72395 2.9635 3.156 3.3842 3.5011
2960.981 3.6021 3.1732 2.7928 2.9433 3.2104 3.4791 3.4594 3.4179 3.3329 3.2464
2980.271 2.9043 2.67029 2.69966 2.5889 2.7554 3.069 2.865 2.71443 2.9705 3.2779
2999.561 3.0499 2.8004 2.9306 3.4883 3.85 3.44 3.5541 3.98 3.87 3.72
3018.850 3.67 3.77 3.75 3.446 3.3906 3.4827 3.4577 3.2269 3.0715 3.36
3038.140 3.2667 3.545 3.68 3.2859 3.75 3.91 4.03 4.67 4.51 4.77
3057.430 5.68 5.9 6.08 6.94 8.11 8.6 8.52 8.69 9.18 9.32
3076.720 8.91 8.32 7.81 7.31 6.75 5.21 4.54 4.54 3.93 3.92
3096.009 4 3.4683 3.4007 3.75 3.3947 3.2523 3.3321 3.0226 2.889 3.1095
3115.299 2.787 1.9 1.646 2.6023 3.3953 3.1337 2.7801 2.9833 3.4741 3.5149
3134.589 2.66559 2.5987 2.9113 2.8051 2.8155 2.5977 2.8175 2.6261 2.498 2.8097
3153.879 3.4589 3.78 3.2859 3.4509 3.567 3.2476 2.9465 3.2352 3.0137 2.6496
3173.169 2.9351 2.7882 2.70776 2.7698 2.5978 2.5497 2.526 2.69373 2.491 2.372
3192.458 2.63175 2.8595 3.0002 3.0204 2.8114 2.342 2.5315 3.1262 3.2114 3.1618
3211.748 3.3938 2.8675 2.019 2.026 2.316 2.23 2.125 2.372 2.7404 2.9675
3231.038 2.494 2.272 2.65609 2.385 2.7857 2.9823 2.8646 2.8763 2.46 2.441
3250.328 2.7678 3.281 3.0347 2.5489 2.478 2.9366 3.0677 2.8663 3.0393 2.7785
3269.617 2.391 2.69385 2.48 2.094 2.2 2.107 2.43 2.5509 2.411 2.109
3288.907 2.335 2.5853 2.68842 2.748 2.445 2.9623 2.9758 2.323 2.086 2.36
3308.197 2.529 2.6541 2.8452 3.2214 3.5626 3.71 3.0618 1.778 1.722 2.732
3327.487 3.2716 3.3718 3.4772 2.6991 2.7994 3.1286 2.766 2.357 2.087 2.12
3346.777 1.942 1.982 2.278 2.5491 2.7782 3.0156 2.6287 2.307 2.181 1.929
3366.066 2.493 2.9318 2.9195 2.71574 2.377 2.195 2.382 2.8004 2.72818 2.6193
3385.356 2.72199 3.288 3.2227 2.504 2.241 2.16 2.5621 2.518 2.5777 3.0072
3404.646 3.1252 2.5918 1.824 2.117 2.8762 3.3215 2.9839 2.392 2.63065 2.8711
3423.936 2.9079 2.5516 2.477 2.9052 2.8965 2.914 2.69098 2.8761 2.7605 2.5937
3443.225 2.9013 3.0288 2.5874 2.421 2.8506 2.849 2.496 2.184 1.838 1.983
3462.515 2.5534 2.68255 2.70355 2.72053 2.8015 2.5695 2.435 2.452 2.8415 3.1104
3481.805 3.0037 2.9908 2.71019 2.771 3.2318 2.6014 1.84 2.054 2.426 2.67267
3501.095 2.65355 3.0209 3.0764 3.0526 3.3402 3.2725 2.9127 2.465 2.461 2.529
3520.385 2.76 2.407 2.03 2.5384 2.68816 2.7391 2.8802 3.0012 3.1983 3.4028
3539.674 3.3362 3.1492 3.1192 2.5392 1.995 2.517 3.1468 2.518 2.13 2.524
3558.964 2.211 2.365 3.3435 3.3826 3.0911 2.67768 2.273 2.7961 2.8441 2.72177
3578.254 3.2213 3.1738 2.8779 2.5751 2.148 2.207 2.63574 2.62725 2.39 2.253
3597.544 2.074 2.236 2.65907 2.9126 2.5717 2.849 2.9729 2.517 2.508 2.374
3616.833 2.105 2.266 2.493 3.0741 2.9018 2.295 2.9103 2.8677 2.70742 2.64565
3636.123 2.6182 3.1645 3.1393 2.63504 2.242 2.273 2.8644 3.2052 2.9015 2.71789
3655.413 2.5843 2.187 2.245 2.29 2.508 2.7372 2.451 2.7964 3.1975 2.7881
3674.703 2.5846 3.3276 2.9907 2.305 2.323 2.5803 3.0949 2.8502 2.498 2.377
3693.993 2.415 2.484 2.326 1.69 1.44 1.925 2.389 2.225 2.096 1.786
3713.282 2.075 3.2065 3.0235 3.0902 3.297 2.7709 2.9826 2.9104 2.201 2.137
3732.572 2.26 1.877 2.077 2.446 2.466 2.9505 2.9931 2.9378 3.1136 2.9181
3751.862 2.425 2.106 1.992 2.072 2.7574 3.0707 3.1749 2.8576 2.5866 2.7921
3771.152 2.5631 2.67694 2.7844 3.0338 3.1485 2.67778 2.214 1.844 2.287 2.8623
3790.441 2.64985 2.5631 2.348 1.999 2.033 2.459 2.9722 3.5527 3.64 2.8557
3809.731 2.7551 3.0637 2.6136 2.71795 2.964 2.7806 2.5879 2.7399 2.9686 3.2414
3829.021 2.9632 2.337 2.081 1.81 2.14 2.46 2.68065 2.6903 2.70946 2.7983
3848.311 2.5841 2.8996 2.9823 2.017 2.048 2.441 2.8729 2.71134 2.334 2.8603
3867.601 3.68 3.67 2.69753 2.7717 3.1676 2.7636 2.69564 3.2948 3.5934 3.2583
3886.890 2.7397 2.556 2.5952 2.369 2.496 3.0932 3.3322 3.4733 3.2397 2.9925
3906.180 3.0985 3.3038 3.1387 2.5515 2.396 3.1724 3.3393 1.81 1.31 1.807
3925.470 2.5841 2.8573 2.161 2.165 1.924 2.246 2.8986 2.5865 2.8586 2.9072
3944.760 2.299 2.489 3.0773 2.64676 2.67565 3.4169 3.1153 2.45 2.095 1.915
3964.049 1.977 2.202 2.195 2.70441 3.0104 2.68816 2.27 2.216 2.70993 2.482
3983.339 2.315 2.486 2.723 3.017 3.5194 3.5612 2.524 2.073 2.7735 3.1671
##END=
