##TITLE=1,4-Phenylene diisothiocyanate
##JCAMP-DX=4.24
##DATA TYPE=INFRARED SPECTRUM
##ORIGIN=EPA-IR VAPOR PHASE LIBRARY
##OWNER=SRD/NIST
Collection (C) 2018 copyright by the U.S. Secretary of Commerce
on behalf of the United States of America. All rights reserved.
##CAS REGISTRY NO=4044-65-9
##MOLFORM=C 8 H 4 N 2 S 2
##$NIST SOURCE=MSDC-IR
##STATE=gas
##XUNITS=1/CM
##YUNITS=ABSORBANCE
##XFACTOR=1.
##YFACTOR=0.001
##DELTAX=1.92898
##FIRSTX=549.8
##LASTX=4000.7
##FIRSTY=3.858
##MAXX=4000.7
##MINX=549.759
##MAXY=0.983218
##MINY=0
##NPOINTS=1790
##XYDATA=(X++(Y..Y))
549.759 3.858 3.838 3.668 3.828 4.138 4.528 4.558 4.358 4.318 4.128
569.049 3.768 3.518 3.448 3.378 3.148 3.068 2.978 3.218 3.328 3.248
588.339 3.358 3.588 3.598 3.328 3.248 3.258 3.178 3.008 3.028 2.988
607.628 3.118 3.208 3.038 3.148 3.378 3.518 3.488 3.598 3.648 3.708
626.918 3.628 3.478 3.638 3.758 3.638 3.508 3.488 3.418 3.478 3.528
646.208 3.448 3.608 3.838 3.888 3.928 3.918 3.808 3.658 3.558 3.658
665.498 3.698 3.928 4.168 4.108 4.048 3.948 3.818 3.678 3.418 3.068
684.787 2.758 2.438 2.108 1.958 1.898 1.558 1.3002 1.1003 0.8733 0.8522
704.077 0.8633 1.0101 1.0511 0.9848 1.072 1.1845 1.408 1.538 1.598 1.738
723.367 1.808 1.918 2.128 2.348 2.678 2.878 2.708 2.518 2.268 1.948
742.657 1.748 1.528 1.2943 1.1289 0.9986 0.9642 1.0754 1.1144 1.1003 1.1508
761.947 1.283 1.538 1.918 2.368 2.668 3.008 3.328 3.358 3.368 3.398
781.236 3.218 2.978 2.698 2.418 2.498 2.728 2.898 3.138 3.438 3.908
800.526 4.468 5.098 5.958 6.928 8.138 9.808 12.008 14.478 17.198 20.388
819.816 23.768 27.388 31.158 34.888 38.728 42.748 46.888 50.568 51.208 47.618
839.106 43.228 39.798 36.548 33.228 29.868 26.628 23.648 20.948 18.528 16.378
858.395 14.198 12.098 10.278 8.798 7.578 6.638 6.128 5.878 6.028 6.478
877.685 7.018 8.048 9.588 11.268 13.128 15.128 16.858 18.148 19.218 20.128
896.975 20.908 21.688 22.818 24.008 25.088 26.078 26.718 27.238 27.788 28.138
916.265 28.468 29.038 29.968 31.338 32.958 35.048 37.798 41.228 45.368 50.098
935.555 55.028 59.308 62.368 64.258 64.608 63.198 60.638 57.248 53.568 49.748
954.844 45.648 41.688 37.748 33.898 30.368 27.018 23.968 21.228 18.748 16.448
974.134 14.478 12.978 11.408 10.008 9.048 8.098 7.338 6.578 5.918 5.478
993.424 4.838 4.338 3.928 3.548 3.448 3.258 3.078 2.888 2.748 2.748
1012.714 2.708 2.538 2.398 2.268 1.728 1.438 1.2459 0.8753 0.8764 0.8387
1032.003 0.628 0.6691 0.7622 0.7234 0.5799 0.2897 0.114 0.317 0.6814 0.8315
1051.293 0.7529 0.39367 0.4901 0.6357 0.6236 0.8914 0.7661 0.7925 0.966 1.0054
1070.583 1.1685 1.508 1.888 2.008 2.528 3.058 3.368 3.938 4.188 4.608
1089.873 5.388 5.928 6.408 6.898 7.198 7.158 7.068 6.868 6.198 5.478
1109.163 4.998 4.598 4.358 4.078 3.738 3.438 2.798 2.128 1.868 1.698
1128.452 1.398 1.2495 1.2107 1.0171 0.9004 0.9298 0.8718 0.6738 0.5508 0.7794
1147.742 0.872 0.8205 0.7909 0.9841 1.1918 1.0735 1.0584 1.089 0.9736 1.0061
1167.032 1.1772 1.3049 1.3629 1.2513 1.408 1.778 2.028 2.128 2.268 2.578
1186.322 2.878 2.908 2.788 2.768 2.698 2.428 2.388 2.588 2.768 3.158
1205.611 3.358 3.788 4.298 4.288 4.258 4.518 4.698 5.108 5.788 6.058
1224.901 6.708 7.758 8.898 10.468 12.488 14.838 17.818 21.608 25.998 31.118
1244.191 36.078 40.208 43.108 43.818 42.048 38.298 33.588 28.628 24.228 20.508
1263.481 17.648 15.538 13.288 11.198 9.628 8.438 7.498 6.628 5.928 5.458
1282.771 5.198 4.928 4.668 4.528 4.498 4.468 4.298 4.228 4.208 4.068
1302.060 3.858 3.668 3.488 3.348 3.138 3.038 3.028 2.958 2.898 2.828
1321.350 2.808 2.738 2.638 2.548 2.468 2.348 2.148 2.028 1.928 1.798
1340.640 1.618 1.468 1.3866 1.254 1.1339 1.0864 1.0732 1.0373 0.9403 0.9251
1359.930 0.9228 0.8536 0.8641 0.8862 0.8906 0.9034 0.8741 0.8043 0.8169 0.9054
1379.219 0.9345 0.9796 1.0353 1.05 1.1431 1.2509 1.2552 1.2747 1.3644 1.398
1398.509 1.468 1.588 1.628 1.698 1.788 1.848 1.948 2.118 2.288 2.468
1417.799 2.688 2.918 3.128 3.378 3.768 4.338 5.268 6.578 8.378 10.378
1437.089 12.198 13.348 13.448 12.698 11.278 9.388 7.568 6.198 5.348 4.908
1456.378 4.678 4.498 4.388 4.388 4.478 4.688 5.058 5.528 6.198 7.138
1475.668 8.418 10.288 12.858 16.748 22.718 31.718 45.288 65.028 92.568 127.428
1494.958 166.418 202.418 222.128 218.718 195.618 159.068 111.578 67.428 39.748 26.308
1514.248 20.388 17.288 15.318 13.838 12.748 11.848 11.168 10.598 10.088 9.768
1533.538 9.638 9.618 9.678 9.738 9.778 9.958 10.108 10.308 10.598 10.938
1552.827 11.328 11.718 12.108 12.468 12.818 13.208 13.618 13.888 14.078 14.208
1572.117 14.108 13.848 13.448 12.908 12.378 11.808 11.118 10.458 9.838 9.198
1591.407 8.568 7.948 7.338 6.798 6.308 5.868 5.428 4.988 4.678 4.458
1610.697 4.328 4.208 4.168 4.228 4.308 4.438 4.568 4.688 4.738 4.778
1629.986 4.778 4.658 4.608 4.568 4.488 4.408 4.418 4.398 4.318 4.318
1649.276 4.248 4.118 3.918 3.708 3.548 3.388 3.318 3.218 3.118 3.038
1668.566 3.008 2.998 2.978 3.028 3.068 3.108 3.138 3.168 3.188 3.208
1687.856 3.178 3.168 3.208 3.248 3.228 3.208 3.128 3.108 3.158 3.178
1707.146 3.198 3.128 3.108 3.198 3.298 3.338 3.418 3.548 3.678 3.748
1726.435 3.808 3.978 4.108 4.178 4.328 4.448 4.518 4.648 4.778 4.848
1745.725 4.918 4.978 5.048 5.098 5.118 5.108 5.078 5.018 4.978 4.908
1765.015 4.798 4.718 4.638 4.628 4.688 4.778 4.858 4.958 5.088 5.218
1784.305 5.338 5.548 5.758 5.898 6.088 6.268 6.378 6.448 6.508 6.548
1803.594 6.538 6.528 6.568 6.618 6.638 6.718 6.838 6.968 7.138 7.348
1822.884 7.638 7.948 8.258 8.658 9.088 9.498 9.978 10.578 11.148 11.738
1842.174 12.458 13.168 13.878 14.718 15.538 16.258 17.028 17.688 18.268 18.778
1861.464 19.248 19.738 20.118 20.398 20.698 21.048 21.418 21.828 22.318 22.848
1880.754 23.378 23.948 24.528 25.078 25.618 26.168 26.718 27.268 27.878 28.558
1900.043 29.348 30.258 31.278 32.498 33.938 35.548 37.348 39.398 41.708 44.258
1919.333 47.008 49.938 53.138 56.658 60.438 64.378 68.588 73.128 77.958 83.148
1938.623 88.768 94.778 101.188 108.068 115.448 123.388 131.828 140.778 150.268 160.298
1957.913 170.828 181.938 193.648 205.938 218.978 232.758 247.318 262.798 279.038 296.178
1977.202 314.188 332.948 352.388 372.468 393.388 415.308 438.278 462.618 488.678 516.568
1996.492 546.248 577.688 610.968 645.808 682.008 719.338 757.778 797.048 836.178 873.758
2015.782 908.408 938.558 962.168 977.458 983.218 979.548 966.828 945.478 916.238 880.118
2035.072 838.738 794.128 747.478 701.108 656.878 615.788 578.778 546.438 518.518 494.758
2054.362 474.858 458.478 444.978 433.388 423.288 414.408 406.308 398.668 391.578 385.418
2073.651 380.448 376.918 375.008 374.708 376.138 379.368 384.218 390.278 396.888 403.118
2092.941 407.438 408.318 404.488 395.058 379.888 359.818 336.028 310.088 283.698 258.208
2112.231 234.488 213.148 194.528 178.738 165.418 154.318 145.118 137.468 131.158 125.988
2131.521 121.848 118.508 115.878 113.918 112.428 111.278 110.358 109.458 108.558 107.598
2150.810 106.538 105.278 103.728 101.918 99.748 97.238 94.428 91.238 87.708 83.988
2170.100 80.138 76.248 72.508 69.038 65.928 63.148 60.698 58.568 56.658 54.948
2189.390 53.318 51.628 49.958 48.258 46.408 44.438 42.408 40.348 38.268 36.278
2208.680 34.378 32.518 30.748 29.078 27.468 25.938 24.508 23.148 21.768 20.518
2227.970 19.408 18.408 17.418 16.468 15.668 14.838 13.938 13.078 12.238 11.428
2247.259 10.658 9.968 9.378 8.808 8.348 7.958 7.608 7.328 7.038 6.768
2266.549 6.558 6.348 6.168 5.978 5.808 5.748 5.698 5.668 5.608 5.528
2285.839 5.478 5.418 5.418 5.448 5.508 5.518 5.528 5.598 5.618 5.688
2305.129 5.808 5.838 5.838 5.888 5.888 5.888 5.958 6.018 6.088 6.048
2324.418 6.038 6.118 6.088 5.988 5.938 5.878 5.798 5.778 5.668 5.528
2343.708 5.448 5.378 5.278 5.208 5.208 5.168 5.018 4.928 4.938 4.968
2362.998 4.968 4.898 4.898 4.928 4.908 4.868 4.798 4.748 4.718 4.638
2382.288 4.508 4.448 4.418 4.328 4.228 4.258 4.238 4.098 4.068 4.058
2401.578 4.038 4.078 4.158 4.208 4.298 4.418 4.418 4.418 4.458 4.448
2420.867 4.318 4.208 4.138 4.048 4.058 4.088 4.048 3.978 3.978 3.978
2440.157 3.948 3.928 3.948 3.968 3.888 3.808 3.838 3.808 3.808 3.838
2459.447 3.848 3.958 4.078 4.188 4.308 4.408 4.498 4.588 4.728 4.898
2478.737 5.118 5.338 5.498 5.738 6.128 6.428 6.658 6.938 7.188 7.488
2498.026 7.798 8.028 8.178 8.298 8.338 8.318 8.318 8.318 8.238 8.128
2517.316 8.058 8.038 7.968 7.858 7.848 7.808 7.628 7.508 7.388 7.188
2536.606 7.108 7.038 6.968 6.948 6.938 6.868 6.848 6.938 6.978 6.978
2555.896 6.958 6.888 6.908 7.018 7.068 7.118 7.158 7.188 7.248 7.288
2575.186 7.458 7.628 7.618 7.668 7.828 7.918 7.958 8.118 8.308 8.418
2594.475 8.488 8.558 8.728 8.828 8.898 9.048 9.128 9.288 9.498 9.638
2613.765 9.698 9.778 9.968 10.058 9.968 9.918 9.938 9.828 9.698 9.598
2633.055 9.488 9.328 9.138 8.978 8.788 8.618 8.398 8.188 8.058 7.908
2652.345 7.798 7.688 7.538 7.368 7.228 7.088 6.918 6.768 6.618 6.468
2671.634 6.338 6.208 6.088 5.998 5.898 5.758 5.648 5.568 5.478 5.408
2690.924 5.328 5.298 5.278 5.148 5.018 4.988 4.988 4.958 4.848 4.858
2710.214 4.958 4.928 4.878 4.938 4.968 4.928 4.938 5.028 5.048 4.988
2729.504 4.978 5.008 5.118 5.218 5.258 5.278 5.418 5.648 5.768 5.908
2748.794 6.078 6.208 6.378 6.418 6.428 6.578 6.558 6.478 6.518 6.378
2768.083 6.248 6.078 5.768 5.588 5.388 5.078 4.788 4.548 4.348 4.108
2787.373 3.858 3.678 3.528 3.408 3.348 3.268 3.158 3.088 2.978 2.918
2806.663 2.868 2.768 2.668 2.638 2.648 2.618 2.528 2.508 2.458 2.288
2825.953 2.358 2.428 2.278 2.068 1.968 2.038 1.938 1.878 1.918 1.798
2845.242 1.688 1.738 1.708 1.638 1.638 1.558 1.498 1.458 1.3697 1.3248
2864.532 1.3573 1.3248 1.3359 1.3063 1.3331 1.448 1.468 1.478 1.538 1.568
2883.822 1.598 1.618 1.548 1.538 1.618 1.688 1.698 1.758 1.748 1.748
2903.112 1.858 1.878 1.888 1.948 2.018 2.148 2.178 2.118 2.268 2.418
2922.401 2.468 2.508 2.618 2.648 2.658 2.788 2.858 2.978 3.068 3.148
2941.691 3.248 3.318 3.508 3.688 3.828 4.008 4.058 4.218 4.398 4.498
2960.981 4.628 4.718 4.908 5.048 5.008 4.958 4.848 4.868 4.938 4.788
2980.271 4.638 4.588 4.478 4.318 4.248 4.158 3.918 3.688 3.568 3.508
2999.561 3.408 3.298 3.208 3.028 2.918 2.908 2.828 2.758 2.818 2.878
3018.850 2.938 3.028 3.018 3.098 3.138 3.178 3.428 3.668 4.008 4.328
3038.140 4.558 4.898 5.298 5.768 6.098 6.388 6.518 6.378 5.998 5.508
3057.430 4.898 4.298 3.878 3.458 3.198 2.978 2.728 2.638 2.588 2.428
3076.720 2.348 2.268 2.248 2.398 2.458 2.398 2.328 2.378 2.488 2.528
3096.009 2.448 2.438 2.608 2.798 2.858 2.858 2.918 2.828 2.668 2.628
3115.299 2.478 2.278 1.978 1.678 1.508 1.2651 1.1307 0.952 0.8496 0.798
3134.589 0.6531 0.6575 0.5988 0.5085 0.43058 0.3567 0.38542 0.40467 0.43098 0.3632
3153.879 0.263 0.257 0.258 0.283 0.276 0.273 0.276 0.3177 0.3302 0.278
3173.169 0.235 0.181 0.199 0.227 0.193 0.257 0.248 0.118 0.055 0.15
3192.458 0.245 0.151 0.042 0 0.064 0.186 0.181 0.174 0.186 0.165
3211.748 0.104 0.112 0.085 0.137 0.134 0.093 0.131 0.098 0.067 0.037
3231.038 0.202 0.2984 0.239 0.235 0.13 0.051 0.115 0.193 0.155 0.151
3250.328 0.3336 0.2905 0.19 0.247 0.217 0.18 0.127 0.069 0.153 0.183
3269.617 0.13 0.109 0.162 0.178 0.119 0.134 0.112 0.097 0.168 0.201
3288.907 0.101 0.093 0.138 0.186 0.274 0.253 0.163 0.093 0.179 0.23
3308.197 0.251 0.174 0.133 0.201 0.109 0.089 0.12 0.18 0.22 0.25
3327.487 0.157 0.188 0.3067 0.232 0.3529 0.40057 0.40663 0.2922 0.178 0.274
3346.777 0.311 0.3379 0.3729 0.3417 0.3751 0.41489 0.44618 0.43467 0.3102 0.285
3366.066 0.163 0.108 0.162 0.151 0.166 0.239 0.277 0.223 0.245 0.198
3385.356 0.151 0.193 0.268 0.44062 0.38524 0.285 0.229 0.195 0.3585 0.42374
3404.646 0.39124 0.281 0.208 0.226 0.281 0.3374 0.2942 0.343 0.38632 0.3072
3423.936 0.273 0.273 0.3142 0.47085 0.4887 0.3726 0.26 0.176 0.2975 0.364
3443.225 0.3168 0.2933 0.258 0.3318 0.3608 0.3616 0.5006 0.5079 0.3396 0.251
3462.515 0.235 0.213 0.181 0.252 0.3491 0.393708 0.41398 0.3427 0.275 0.229
3481.805 0.263 0.3207 0.263 0.231 0.23 0.222 0.37 0.46778 0.3741 0.271
3501.095 0.38552 0.40964 0.3425 0.3557 0.28 0.3504 0.38195 0.2988 0.3764 0.39526
3520.385 0.288 0.39949 0.45716 0.3802 0.3562 0.4098 0.4788 0.43255 0.42453 0.41421
3539.674 0.3368 0.34 0.390489 0.44985 0.40666 0.274 0.40461 0.492 0.3808 0.3694
3558.964 0.3612 0.394737 0.42792 0.3368 0.3124 0.3474 0.38624 0.41116 0.42944 0.4954
3578.254 0.5564 0.5518 0.41265 0.4075 0.48598 0.45989 0.42991 0.42797 0.46257 0.4885
3597.544 0.6053 0.599 0.5194 0.5123 0.46067 0.41385 0.38272 0.43703 0.48298 0.40662
3616.833 0.43085 0.5673 0.5589 0.41091 0.3309 0.387758 0.4897 0.38047 0.3551 0.491
3636.123 0.4922 0.4989 0.43219 0.3769 0.416 0.3696 0.37993 0.5126 0.5639 0.5388
3655.413 0.5117 0.5643 0.5845 0.5927 0.5624 0.5172 0.565 0.5305 0.5207 0.40081
3674.703 0.3401 0.48558 0.599 0.6131 0.6902 0.6479 0.5588 0.6286 0.6028 0.5921
3693.993 0.4862 0.5104 0.6518 0.6501 0.6489 0.5625 0.5129 0.5605 0.6239 0.6675
3713.282 0.6826 0.7256 0.6299 0.6031 0.6775 0.6784 0.6929 0.7152 0.8076 0.7776
3732.572 0.6864 0.7706 0.7139 0.6567 0.5998 0.6237 0.7903 0.7423 0.6323 0.5715
3751.862 0.58 0.6655 0.7276 0.6378 0.4905 0.5645 0.6659 0.6658 0.68 0.735
3771.152 0.7345 0.7859 0.8759 0.9363 0.7586 0.7051 0.7118 0.6213 0.8013 0.8525
3790.441 0.8496 0.7511 0.641 0.6903 0.5972 0.7141 0.9249 0.8309 0.7163 0.7467
3809.731 0.871 0.8301 0.7701 0.7418 0.7418 0.8105 0.8726 0.947 0.9405 0.8929
3829.021 0.8748 0.9641 0.9585 0.8686 0.8783 0.9321 1.0807 1.1699 1.0139 0.9897
3848.311 1.1491 1.2835 1.1938 1.0627 1.0451 1.0682 1.2494 1.2608 1.2399 1.214
3867.601 1.1913 1.2307 1.1392 1.0795 1.2154 1.3303 1.2812 1.2525 1.3086 1.3688
3886.890 1.448 1.538 1.578 1.528 1.508 1.538 1.578 1.638 1.638 1.658
3906.180 1.678 1.718 1.608 1.498 1.788 1.888 1.778 1.968 2.088 1.968
3925.470 1.908 1.838 1.798 1.908 2.108 2.248 2.238 2.318 2.478 2.568
3944.760 2.398 2.308 2.318 2.408 2.438 2.408 2.508 2.658 2.648 2.548
3964.049 2.568 2.628 2.768 2.848 2.788 2.738 2.768 2.728 2.848 3.038
3983.339 3.118 3.048 3.118 3.228 3.128 3.138 3.298 3.238 3.158 3.138
##END=
