##TITLE=3-Methyl-4-cyclohexene-cis-1,2-dicarboxylic acid anhydride
##JCAMP-DX=4.24
##DATA TYPE=INFRARED SPECTRUM
##ORIGIN=EPA-IR VAPOR PHASE LIBRARY
##OWNER=SRD/NIST
Collection (C) 2018 copyright by the U.S. Secretary of Commerce
on behalf of the United States of America. All rights reserved.
##CAS REGISTRY NO=40469-16-7
##MOLFORM=C 9 H 12 O 4
##$NIST SOURCE=MSDC-IR
##STATE=gas
##XUNITS=1/CM
##YUNITS=ABSORBANCE
##XFACTOR=1.
##YFACTOR=0.001
##DELTAX=1.92898
##FIRSTX=549.8
##LASTX=4000.7
##FIRSTY=9.116
##MAXX=4000.7
##MINX=549.759
##MAXY=0.251816
##MINY=0
##NPOINTS=1790
##XYDATA=(X++(Y..Y))
549.759 9.116 10.096 10.916 11.236 11.206 11.516 11.296 10.526 9.786 8.626
569.049 7.396 6.056 4.876 3.836 2.786 2.186 1.936 1.716 1.636 1.656
588.339 1.546 1.216 1.0485 1.366 1.526 1.556 1.516 1.276 1.406 1.836
607.628 2.056 2.146 2.346 2.536 2.636 2.646 2.636 2.796 2.856 2.946
626.918 3.076 3.196 3.416 3.826 4.376 4.866 5.216 5.716 6.436 7.166
646.208 7.736 8.176 8.596 9.096 9.486 9.616 9.976 10.426 10.786 11.136
665.498 11.186 11.086 11.146 11.086 10.756 10.166 9.486 8.826 8.076 7.266
684.787 6.596 6.336 6.086 5.796 5.976 6.266 6.356 6.516 6.756 7.116
704.077 7.766 8.276 8.046 7.616 7.236 6.686 6.306 6.186 6.396 6.706
723.367 7.026 7.646 8.406 9.196 9.916 10.566 11.166 11.426 11.416 11.216
742.657 10.786 9.886 8.926 8.086 7.146 6.386 5.816 5.546 5.466 5.426
761.947 5.496 5.636 6.136 6.656 6.996 7.536 7.886 7.986 8.206 7.956
781.236 7.456 7.006 6.386 5.846 5.336 4.556 4.036 3.766 3.446 3.406
800.526 3.586 3.686 3.816 4.116 4.406 4.676 4.826 4.916 5.046 4.866
819.816 4.526 4.356 4.126 4.026 3.796 3.396 3.156 2.876 2.756 2.646
839.106 2.396 2.416 2.616 2.766 2.936 2.986 2.946 3.006 3.276 3.476
858.395 3.506 3.776 4.076 4.426 4.876 5.366 6.046 6.896 7.956 9.206
877.685 10.806 12.786 14.806 17.116 19.656 21.926 24.216 26.846 29.616 32.356
896.975 35.506 39.026 42.476 46.116 49.906 54.216 59.026 64.106 69.566 74.956
916.265 80.046 84.136 86.346 86.866 86.096 83.796 79.716 74.026 67.266 59.716
935.555 51.686 44.026 37.116 31.576 27.806 25.466 24.146 23.706 24.046 25.096
954.844 26.746 28.836 31.676 35.406 39.856 44.796 49.776 54.226 57.866 60.276
974.134 61.666 62.336 61.906 60.126 57.386 53.506 48.106 42.496 37.486 33.186
993.424 29.706 27.026 24.936 22.376 19.476 16.846 14.806 13.476 12.566 12.126
1012.714 11.746 11.656 12.096 12.536 13.086 14.076 15.266 16.796 18.316 19.576
1032.003 20.686 21.526 22.026 22.306 22.746 23.116 23.256 23.356 24.276 26.036
1051.293 28.636 31.556 34.446 38.066 41.506 44.106 46.196 47.806 47.966 46.666
1070.583 44.886 41.626 37.346 33.036 27.936 23.096 19.156 15.746 13.666 12.086
1089.873 10.386 9.536 8.706 8.516 8.746 8.476 8.476 8.426 8.806 9.176
1109.163 9.236 8.986 8.686 9.036 9.456 9.446 9.686 10.066 10.026 10.216
1128.452 10.216 9.776 9.656 9.216 8.506 7.866 7.146 6.976 7.046 6.546
1147.742 6.086 5.966 5.936 6.216 6.606 6.736 7.146 7.766 8.636 9.856
1167.032 11.126 12.886 14.966 17.606 20.396 23.296 26.326 28.636 30.886 33.106
1186.322 34.776 36.186 37.086 37.516 37.826 37.906 38.696 40.006 41.406 43.186
1205.611 44.466 45.606 46.366 46.716 47.036 46.716 45.786 44.926 43.566 41.926
1224.901 40.586 39.206 37.976 36.666 35.216 34.276 33.836 33.226 32.876 32.866
1244.191 32.636 32.166 31.366 30.316 29.066 27.516 25.576 23.546 21.556 19.426
1263.481 17.286 15.466 13.956 12.766 11.686 10.766 10.146 9.736 9.566 9.446
1282.771 9.346 9.246 9.286 9.456 9.626 9.866 9.996 10.096 10.136 10.066
1302.060 10.056 10.076 9.866 9.606 9.496 9.246 9.046 9.066 9.196 9.426
1321.350 9.706 9.976 10.226 10.416 10.536 10.526 10.416 10.156 9.706 9.176
1340.640 8.576 7.936 7.276 6.716 6.236 5.736 5.276 4.836 4.536 4.376
1359.930 4.166 4.056 4.076 4.156 4.296 4.496 4.776 5.046 5.266 5.386
1379.219 5.516 5.656 5.736 5.756 5.696 5.586 5.476 5.396 5.086 4.556
1398.509 4.196 3.986 3.746 3.446 3.146 2.846 2.696 2.656 2.616 2.576
1417.799 2.626 2.706 2.726 2.816 2.956 3.136 3.416 3.766 4.256 4.846
1437.089 5.626 6.436 7.226 8.036 8.836 9.606 10.306 10.776 10.956 11.036
1456.378 11.056 10.756 10.226 9.626 9.106 8.666 8.096 7.476 6.826 6.106
1475.668 5.526 4.976 4.426 3.856 3.336 2.996 2.716 2.456 2.246 2.076
1494.958 1.956 1.786 1.666 1.576 1.556 1.566 1.506 1.476 1.436 1.406
1514.248 1.396 1.416 1.376 1.356 1.426 1.386 1.426 1.486 1.496 1.476
1533.538 1.396 1.366 1.386 1.386 1.406 1.396 1.416 1.426 1.336 1.316
1552.827 1.386 1.416 1.456 1.446 1.396 1.416 1.416 1.366 1.356 1.406
1572.117 1.416 1.436 1.456 1.456 1.576 1.536 1.516 1.566 1.546 1.646
1591.407 1.726 1.726 1.716 1.766 1.796 1.796 1.856 1.906 1.986 2.096
1610.697 2.086 2.046 2.156 2.176 2.166 2.296 2.386 2.476 2.546 2.556
1629.986 2.516 2.586 2.666 2.666 2.666 2.716 2.796 2.846 2.846 2.806
1649.276 2.826 2.856 2.836 2.836 2.806 2.716 2.626 2.556 2.506 2.506
1668.566 2.516 2.556 2.526 2.566 2.726 2.816 2.966 3.136 3.246 3.256
1687.856 3.266 3.376 3.426 3.396 3.416 3.386 3.416 3.496 3.486 3.506
1707.146 3.586 3.616 3.666 3.806 3.936 4.116 4.356 4.606 4.836 5.026
1726.435 5.286 5.606 5.946 6.326 6.726 7.146 7.586 8.156 8.826 9.516
1745.725 10.366 11.366 12.556 14.016 15.566 17.366 19.616 22.136 24.976 28.126
1765.015 31.556 35.396 39.876 44.876 50.866 57.886 66.296 76.446 88.646 102.876
1784.305 118.916 136.466 154.506 172.636 190.676 208.166 223.786 236.746 246.166 251.506
1803.594 251.816 247.306 238.676 226.886 212.616 196.016 177.316 157.116 136.236 115.696
1822.884 96.826 80.426 66.996 56.566 48.406 42.416 38.096 35.006 32.896 31.446
1842.174 30.496 30.026 29.926 30.126 30.636 31.396 32.346 33.436 34.676 35.966
1861.464 37.256 38.506 39.556 40.236 40.556 40.476 39.916 38.876 37.346 35.376
1880.754 33.106 30.536 27.896 25.296 22.566 19.916 17.556 15.346 13.406 11.706
1900.043 10.176 8.926 7.916 7.006 6.266 5.686 5.186 4.756 4.396 4.116
1919.333 3.966 3.826 3.636 3.456 3.286 3.186 3.106 2.956 2.846 2.786
1938.623 2.716 2.626 2.506 2.506 2.486 2.416 2.426 2.326 2.196 2.156
1957.913 2.156 2.116 2.056 1.946 1.866 1.906 1.896 1.826 1.806 1.836
1977.202 1.836 1.826 1.846 1.886 1.926 1.896 1.896 1.916 1.886 1.946
1996.492 1.976 1.926 1.866 1.816 1.806 1.816 1.796 1.746 1.686 1.676
2015.782 1.626 1.556 1.536 1.496 1.436 1.376 1.326 1.246 1.176 1.136
2035.072 1.0943 1.0652 1.0392 1.026 1.0073 0.9726 0.9801 0.9648 0.9227 0.9609
2054.362 0.9597 0.945 0.9738 0.9553 0.9502 0.9446 0.9434 0.9362 0.8928 0.8893
2073.651 0.9125 0.9475 0.966 0.9402 0.9552 1.0006 1.0372 1.0909 1.156 1.206
2092.941 1.256 1.306 1.336 1.376 1.426 1.476 1.496 1.576 1.586 1.536
2112.231 1.586 1.636 1.636 1.626 1.616 1.656 1.676 1.606 1.636 1.656
2131.521 1.596 1.606 1.636 1.606 1.616 1.636 1.646 1.626 1.626 1.626
2150.810 1.616 1.666 1.616 1.566 1.606 1.606 1.596 1.646 1.646 1.606
2170.100 1.566 1.586 1.616 1.546 1.466 1.426 1.426 1.366 1.316 1.316
2189.390 1.326 1.366 1.346 1.346 1.306 1.226 1.186 1.186 1.186 1.176
2208.680 1.176 1.146 1.136 1.0891 1.0509 1.0357 1.0162 1.0135 1.024 1.0443
2227.970 1.0185 1.0157 1.0341 0.9794 0.9295 0.9468 0.9763 0.9555 0.9625 0.9951
2247.259 0.9515 0.8817 0.901 0.9898 1.0105 0.9522 0.9481 0.949 0.951 0.9631
2266.549 0.9154 0.8976 0.934 0.8837 0.8491 0.8923 0.9288 0.948 0.9576 0.9035
2285.839 0.8451 0.8734 0.8379 0.8315 0.8126 0.6728 0.6775 0.7783 0.8299 0.742
2305.129 0.6516 0.7053 0.7395 0.7057 0.6387 0.6719 0.6757 0.6404 0.6608 0.6693
2324.418 0.644 0.6002 0.5748 0.5845 0.5404 0.4828 0.5183 0.4833 0.5012 0.5365
2343.708 0.5284 0.4949 0.4712 0.5156 0.5015 0.5092 0.518 0.522 0.5364 0.5534
2362.998 0.5619 0.5438 0.539 0.4789 0.4386 0.4644 0.4315 0.4362 0.4727 0.4635
2382.288 0.47 0.4597 0.4998 0.5291 0.5054 0.5124 0.5081 0.4866 0.5178 0.5535
2401.578 0.5979 0.6273 0.5952 0.5611 0.6086 0.6568 0.7166 0.7756 0.7313 0.6958
2420.867 0.6493 0.6467 0.6172 0.5775 0.6257 0.6794 0.6043 0.4907 0.5346 0.5342
2440.157 0.5112 0.5649 0.5118 0.4537 0.4832 0.4521 0.4601 0.4863 0.4291 0.4448
2459.447 0.4554 0.4299 0.4173 0.4099 0.4255 0.387 0.4133 0.4547 0.4689 0.4314
2478.737 0.4084 0.4648 0.3731 0.3607 0.3956 0.3843 0.4194 0.4662 0.4842 0.4299
2498.026 0.4443 0.4605 0.4481 0.4277 0.5148 0.5624 0.4729 0.4586 0.3927 0.3802
2517.316 0.3715 0.363 0.4281 0.4439 0.3931 0.3504 0.342 0.3973 0.4344 0.3778
2536.606 0.3965 0.456 0.4178 0.3722 0.3551 0.3127 0.3172 0.3463 0.3593 0.3274
2555.896 0.3862 0.4644 0.4688 0.4821 0.4318 0.3173 0.31 0.3544 0.3777 0.4442
2575.186 0.468 0.3959 0.3736 0.3757 0.3949 0.4147 0.4525 0.5224 0.4413 0.4222
2594.475 0.515 0.5533 0.5309 0.4979 0.4855 0.4195 0.4077 0.4745 0.4897 0.4469
2613.765 0.3471 0.3887 0.4378 0.3852 0.3301 0.2959 0.3012 0.349 0.3979 0.3684
2633.055 0.3581 0.3571 0.4014 0.4084 0.3775 0.3967 0.4275 0.4275 0.4136 0.4285
2652.345 0.3851 0.3622 0.3866 0.3825 0.3519 0.3636 0.4159 0.3865 0.3786 0.4321
2671.634 0.3609 0.3391 0.4171 0.3599 0.3061 0.3567 0.321 0.255 0.2968 0.2739
2690.924 0.21087 0.2605 0.3657 0.4191 0.4202 0.3756 0.3011 0.2663 0.2779 0.2478
2710.214 0.2336 0.2604 0.20833 0.2634 0.3443 0.3563 0.4334 0.4449 0.3874 0.4052
2729.504 0.4225 0.4783 0.5111 0.4508 0.4919 0.4946 0.4852 0.5799 0.5549 0.4769
2748.794 0.5832 0.6625 0.707 0.7832 0.7664 0.7566 0.7785 0.8229 0.8105 0.7499
2768.083 0.7646 0.7641 0.7153 0.6229 0.6043 0.7113 0.6893 0.5684 0.6534 0.7902
2787.373 0.7357 0.6877 0.6788 0.6916 0.6499 0.5657 0.6017 0.664 0.7184 0.748
2806.663 0.7976 0.8128 0.771 0.8483 0.9525 0.9629 0.9899 1.0905 1.176 1.296
2825.953 1.366 1.516 1.706 1.816 1.996 2.226 2.496 2.936 3.546 4.156
2845.242 4.966 6.116 7.416 8.796 10.236 11.616 12.936 14.226 15.166 15.306
2864.532 14.766 13.966 13.066 12.146 11.186 10.076 9.176 8.596 8.136 8.056
2883.822 8.246 8.496 8.816 9.086 9.366 9.646 9.896 10.176 10.486 10.766
2903.112 10.936 11.126 11.316 11.476 11.726 11.946 11.986 11.936 12.046 12.316
2922.401 12.456 12.666 13.036 13.236 13.556 14.206 14.886 15.826 16.816 17.526
2941.691 18.066 18.686 19.166 18.996 18.326 17.676 17.256 16.686 16.096 15.746
2960.981 15.726 16.316 17.396 18.696 19.986 21.196 22.346 23.426 24.056 23.686
2980.271 22.636 21.466 20.216 18.636 16.676 14.696 12.966 11.526 10.286 8.876
2999.561 7.356 6.286 5.486 4.706 4.126 3.676 3.236 2.776 2.446 2.336
3018.850 2.336 2.286 2.456 2.856 3.176 3.656 4.436 5.376 6.636 8.146
3038.140 9.586 10.776 11.616 12.456 13.206 13.576 13.546 12.966 11.796 10.336
3057.430 8.896 7.586 6.576 5.806 5.056 4.306 3.686 3.196 2.896 2.586
3076.720 2.166 1.856 1.586 1.416 1.376 1.126 0.9662 0.8815 0.7878 0.7876
3096.009 0.6748 0.6339 0.5917 0.5211 0.6163 0.5739 0.5591 0.6254 0.6669 0.6825
3115.299 0.5147 0.4667 0.4498 0.3435 0.3623 0.5148 0.5191 0.5038 0.5015 0.4416
3134.589 0.4159 0.3828 0.3963 0.4454 0.3932 0.3364 0.3948 0.4208 0.5482 0.5317
3153.879 0.3923 0.4353 0.4001 0.3865 0.4516 0.386 0.3007 0.3548 0.5089 0.5549
3173.169 0.5474 0.4782 0.4036 0.4087 0.3567 0.2634 0.3445 0.4632 0.3785 0.3655
3192.458 0.4943 0.5285 0.3589 0.36 0.3995 0.3347 0.3245 0.2786 0.2892 0.3512
3211.748 0.3191 0.2961 0.2503 0.2557 0.35 0.3838 0.4413 0.4727 0.3447 0.2658
3231.038 0.3524 0.4072 0.4234 0.4207 0.4276 0.3607 0.2669 0.2809 0.2575 0.2589
3250.328 0.2832 0.241 0.2616 0.2974 0.373 0.3337 0.0983 0.087 0.18285 0.18097
3269.617 0.15917 0.14502 0.2661 0.3261 0.255 0.20469 0.16653 0.2587 0.20497 0.14849
3288.907 0.3272 0.3607 0.3036 0.19327 0.20213 0.2745 0.18296 0.16774 0.2556 0.248
3308.197 0.2632 0.16669 0.15159 0.2545 0.19889 0.15197 0.20963 0.3102 0.255 0.19335
3327.487 0.1353 0.1003 0.18 0.2761 0.3513 0.23 0.092 0.16646 0.1923 0.21258
3346.777 0.2386 0.1554 0.19691 0.19513 0.14072 0.21575 0.2734 0.2402 0.18408 0.20074
3366.066 0.15279 0.0339 0.0941 0.2537 0.308 0.2544 0.16979 0.123376 0.19952 0.2238
3385.356 0.12712 0.2335 0.2458 0.0961 0.12982 0.19701 0.19945 0.20292 0.17959 0.2275
3404.646 0.2789 0.1995 0.13742 0.13529 0.125577 0.19271 0.311 0.3124 0.169 0.0834
3423.936 0.11006 0.124938 0.1811 0.15836 0.0292 0.0671 0.1056 0.16157 0.331 0.3547
3443.225 0.2376 0.0689 0.0879 0.19299 0.1512 0.2014 0.2907 0.3576 0.328 0.2729
3462.515 0.3434 0.3213 0.233 0.268 0.3103 0.2823 0.1911 0.1043 0.1536 0.1474
3481.805 0.19813 0.3595 0.2639 0.0948 0.20164 0.2978 0.2912 0.4229 0.4462 0.2585
3501.095 0.2609 0.3718 0.3477 0.3168 0.4208 0.4043 0.2586 0.19358 0.2706 0.2833
3520.385 0.2464 0.18863 0.15422 0.16969 0.2496 0.4267 0.4396 0.4246 0.3376 0.2762
3539.674 0.2979 0.3498 0.5048 0.4813 0.4468 0.4572 0.3455 0.302 0.2973 0.4271
3558.964 0.5496 0.4914 0.6296 0.7528 0.6612 0.698 0.71 0.8996 1.0828 0.9594
3578.254 1.0156 1.0089 0.9992 1.0243 0.9574 1.156 1.0825 0.9807 1.206 1.336
3597.544 1.336 1.296 1.346 1.396 1.526 1.696 1.806 1.816 1.966 2.016
3616.833 1.956 1.966 2.006 2.216 2.286 2.346 2.656 2.716 2.676 2.786
3636.123 2.736 2.736 2.886 2.936 2.876 2.786 2.686 2.646 2.626 2.486
3655.413 2.446 2.576 2.426 2.096 2.046 2.086 1.946 1.816 1.866 1.816
3674.703 1.536 1.326 1.246 1.216 1.286 1.246 1.186 1.136 1.0525 0.9154
3693.993 0.8099 0.8855 0.8404 0.7022 0.709 0.7361 0.6881 0.7764 0.8293 0.7557
3713.282 0.802 0.8263 0.681 0.623 0.5895 0.5777 0.7054 0.6894 0.6486 0.6536
3732.572 0.6118 0.5579 0.5446 0.6181 0.6842 0.7753 0.7509 0.6266 0.5575 0.4973
3751.862 0.6004 0.6233 0.478 0.3663 0.3516 0.5107 0.5207 0.4344 0.3877 0.18331
3771.152 0.16627 0.3238 0.3322 0.3159 0.3314 0.2862 0.3629 0.3627 0.3689 0.4448
3790.441 0.3183 0.225 0.14494 0.1488 0.2838 0.3621 0.4624 0.4805 0.3043 0.334
3809.731 0.4256 0.4134 0.3021 0.2466 0.2729 0.2683 0.394 0.4355 0.3718 0.4248
3829.021 0.3897 0.3535 0.4769 0.4855 0.5843 0.5484 0.401 0.409 0.3364 0.3818
3848.311 0.4709 0.4364 0.4362 0.4188 0.4017 0.398 0.3808 0.3067 0.353 0.3925
3867.601 0.3386 0.4025 0.3885 0.3867 0.4403 0.4063 0.3547 0.3851 0.3696 0.3998
3886.890 0.5191 0.4197 0.3707 0.2531 0.0825 0.303 0.3729 0.4094 0.5487 0.47
3906.180 0.3306 0.3866 0.428 0.3217 0.2992 0.1709 0 0.16998 0.3536 0.2413
3925.470 0.2603 0.3474 0.4326 0.4373 0.3332 0.3691 0.4179 0.4309 0.4214 0.2931
3944.760 0.2845 0.3443 0.2834 0.2178 0.3113 0.3538 0.2887 0.2807 0.3012 0.3424
3964.049 0.324 0.348 0.4 0.3621 0.4222 0.4142 0.266 0.3096 0.3512 0.3048
3983.339 0.3218 0.4154 0.4181 0.4587 0.5895 0.5916 0.4523 0.4323 0.4389 0.3144
##END=
