##TITLE=Prowl
##JCAMP-DX=4.24
##DATA TYPE=INFRARED SPECTRUM
##ORIGIN=NIST Mass Spectrometry Data Center
##OWNER=NIST Standard Reference Data Program
Collection (C) 2018 copyright by the U.S. Secretary of Commerce
on behalf of the United States of America. All rights reserved.
##CAS REGISTRY NO=40487-42-1
##MOLFORM=C 13 H 19 N 3 O 4
##$NIST SOURCE=MSDC-IR
##SPECTROMETER/DATA SYSTEM=HP-GC/MS/IRD
##STATE=gas
##XUNITS=1/CM
##YUNITS=ABSORBANCE
##XFACTOR=1.0
##YFACTOR=0.000003900
##DELTAX=4.0
##FIRSTX=550.0
##LASTX=3846.0
##FIRSTY=0.000332
##MAXX=3846
##MINX=550
##MAXY=0.039
##MINY=0
##NPOINTS=825
##XYDATA=(X++(Y..Y))
550.0 85 20 17 47 44 21 0 17 27 25
590.0 36 77 120 135 118 129 130 134 144 149
630.0 168 202 244 286 312 309 293 270 261 260
670.0 257 259 258 238 222 217 208 197 193 200
710.0 222 225 226 218 217 243 306 379 489 669
750.0 902 1130 1204 1101 931 759 641 591 599 628
790.0 635 578 462 334 237 176 136 108 64 45
830.0 55 59 68 72 85 110 135 169 207 252
870.0 288 290 288 306 350 406 449 478 502 564
910.0 679 803 866 848 746 555 366 245 168 115
950.0 92 93 92 100 143 204 237 240 228 220
990.0 203 193 210 229 228 208 213 211 210 222
1030.0 222 232 219 214 225 243 283 341 445 608
1070.0 776 885 848 700 522 403 357 323 349 419
1110.0 486 557 632 696 752 764 750 702 606 499
1150.0 420 387 368 345 361 410 468 592 754 829
1190.0 752 593 450 386 400 447 542 625 702 867
1230.0 1054 1264 1519 1830 2222 2621 2988 3249 3297 3115
1270.0 2811 2494 2241 2060 1938 1840 1757 1694 1663 1666
1310.0 1701 1789 1957 2243 2652 3111 3442 3485 3270 2982
1350.0 2780 2681 2616 2535 2419 2269 2089 1920 1779 1642
1390.0 1502 1380 1312 1295 1294 1270 1222 1177 1184 1270
1430.0 1429 1628 1822 1999 2171 2366 2568 2783 3005 3239
1470.0 3502 3877 4427 5078 5620 5822 5609 5124 4591 4163
1510.0 3899 3822 3956 4377 5190 6489 8173 9646 10000 8951
1550.0 7178 5529 4395 3755 3417 3203 3000 2739 2425 2115
1590.0 1869 1726 1708 1818 2065 2427 2794 2976 2820 2369
1630.0 1822 1362 1032 809 652 534 455 397 344 301
1670.0 261 234 219 189 159 143 123 108 103 103
1710.0 93 79 71 65 63 63 54 49 51 51
1750.0 52 50 52 60 63 67 73 74 72 72
1790.0 64 50 40 34 30 24 19 15 19 22
1830.0 21 18 21 20 15 13 7 2 5 12
1870.0 14 16 14 12 11 10 8 5 11 12
1910.0 6 11 17 18 17 13 12 13 10 10
1950.0 10 14 13 11 13 13 12 13 10 8
1990.0 9 6 4 2 2 3 4 6 2 2
2030.0 7 3 0 2 5 8 9 7 4 1
2070.0 0 3 5 1 3 2 2 6 7 9
2110.0 6 4 5 4 2 1 2 4 5 8
2150.0 12 7 3 7 8 10 12 3 0 7
2190.0 8 7 5 10 15 11 9 11 14 11
2230.0 14 12 5 8 3 2 13 10 10 13
2270.0 6 5 6 9 10 8 6 4 5 10
2310.0 12 14 14 14 16 18 23 16 15 21
2350.0 13 10 20 21 18 16 19 23 24 25
2390.0 28 35 37 31 31 37 38 39 40 39
2430.0 39 42 44 42 45 51 51 49 50 53
2470.0 56 56 47 47 49 41 36 44 50 48
2510.0 48 49 49 47 45 48 49 49 50 52
2550.0 51 50 49 44 37 42 47 47 50 55
2590.0 57 52 51 48 46 46 42 46 50 40
2630.0 37 34 36 50 48 41 48 50 46 55
2670.0 64 58 59 71 76 78 79 79 76 84
2710.0 93 90 92 94 92 90 103 122 131 143
2750.0 153 154 151 142 142 139 131 133 137 137
2790.0 142 154 161 166 170 179 188 196 201 213
2830.0 241 271 297 323 362 423 500 607 735 846
2870.0 951 1049 1143 1266 1382 1410 1320 1183 1085 1061
2910.0 1098 1163 1268 1433 1655 1939 2248 2495 2599 2524
2950.0 2313 2087 1969 2049 2375 2912 3391 3420 2911 2192
2990.0 1582 1175 921 745 611 520 451 410 382 352
3030.0 329 315 296 286 287 281 272 266 262 251
3070.0 244 244 237 225 213 198 179 163 151 145
3110.0 140 130 135 124 109 105 109 107 102 110
3150.0 109 98 84 92 98 91 79 72 72 71
3190.0 67 74 68 56 48 43 47 53 57 48
3230.0 44 41 49 43 39 57 63 60 69 69
3270.0 70 75 82 81 86 105 121 125 135 162
3310.0 196 219 225 244 269 295 319 352 382 406
3350.0 449 500 555 582 585 584 551 493 434 384
3390.0 343 293 250 245 240 217 188 170 153 127
3430.0 109 96 89 77 67 57 48 60 68 63
3470.0 46 35 41 49 48 35 35 37 30 34
3510.0 30 26 34 30 21 31 31 30 31 28
3550.0 34 21 19 44 48 27 21 32 33 27
3590.0 21 21 35 24 8 20 27 15 10 9
3630.0 4 20 29 44 47 41 38 22 32 39
3670.0 28 20 16 6 0 7 21 29 37 43
3710.0 39 24 6 15 25 13 21 21 4 6
3750.0 24 33 36 36 31 39 36 35 44 50
3790.0 48 40 38 46 53 59 72 65 50 50
3830.0 47 54 58 34 23
##END=
