##TITLE=1-Acetoxy-4-fluorobenzene
##JCAMP-DX=4.24
##DATA TYPE=INFRARED SPECTRUM
##ORIGIN=EPA-IR VAPOR PHASE LIBRARY
##OWNER=SRD/NIST
Collection (C) 2018 copyright by the U.S. Secretary of Commerce
on behalf of the United States of America. All rights reserved.
##CAS REGISTRY NO=405-51-6
##MOLFORM=C 8 H 7 F O 2
##$NIST SOURCE=MSDC-IR
##STATE=gas
##XUNITS=1/CM
##YUNITS=ABSORBANCE
##XFACTOR=1.
##YFACTOR=0.001
##DELTAX=1.929
##FIRSTX=549.8
##LASTX=4000.8
##FIRSTY=1.739
##MAXX=4000.75
##MINX=549.766
##MAXY=0.293139
##MINY=0
##NPOINTS=1790
##XYDATA=(X++(Y..Y))
549.766 1.739 1.809 1.849 1.769 1.649 1.839 1.719 1.629 2.029 1.979
569.056 1.859 2.019 2.109 2.129 2.119 2.199 2.469 2.699 2.729 2.599
588.346 2.609 2.629 2.519 2.599 2.739 2.719 2.689 2.679 2.589 2.549
607.636 2.659 2.589 2.449 2.389 2.499 2.429 2.239 2.509 2.909 3.019
626.926 2.919 3.059 3.309 3.289 3.059 2.889 2.799 2.659 2.549 2.309
646.216 1.869 1.769 1.769 1.779 1.679 1.3976 1.2777 1.1573 1.1769 1.4196
665.506 1.499 1.2817 1.0116 0.992 1.1578 1.251 1.2589 1.479 1.569 1.3894
684.796 1.479 1.589 1.649 1.899 2.099 2.129 2.149 2.239 2.279 2.229
704.086 2.089 1.989 2.029 1.889 1.779 1.759 1.549 1.499 1.659 1.639
723.376 1.489 1.4464 1.599 1.739 1.779 2.009 2.259 2.349 2.519 2.729
742.666 2.939 3.289 3.709 4.149 4.989 6.319 8.089 10.369 12.919 15.279
761.956 16.899 17.459 17.469 17.219 16.389 14.529 11.529 8.359 5.939 4.519
781.246 3.929 3.779 3.699 3.589 3.569 3.739 3.989 4.169 4.449 4.819
800.536 5.509 6.409 7.419 8.549 10.109 11.769 13.499 15.639 17.309 18.609
819.826 19.479 20.259 21.089 21.419 21.309 21.129 20.909 20.859 21.019 21.049
839.116 20.859 20.839 20.959 20.769 20.609 20.269 19.869 19.339 18.399 17.379
858.406 16.259 15.269 14.259 13.219 12.309 11.559 11.029 10.709 10.549 10.319
877.696 10.319 10.609 11.059 11.689 12.499 13.549 15.059 17.119 19.519 22.259
896.986 25.079 27.329 28.549 28.919 28.509 27.219 25.239 22.609 19.459 16.359
916.276 13.699 11.609 10.139 9.329 8.929 8.619 8.379 8.029 7.559 7.189
935.566 6.639 5.889 5.129 4.349 3.609 3.049 2.779 2.619 2.409 2.269
954.856 2.159 2.029 2.009 2.119 2.299 2.409 2.559 2.769 3.019 3.409
974.146 3.779 4.119 4.569 5.119 5.689 6.279 6.929 7.609 8.399 9.449
993.436 10.779 12.449 14.509 16.959 19.609 22.279 24.719 26.519 27.399 26.969
1012.726 25.529 23.519 21.079 18.319 15.139 11.929 9.509 7.929 6.929 6.269
1032.016 5.789 5.499 5.299 5.199 5.199 5.189 5.419 5.619 5.689 6.009
1051.306 6.249 6.479 6.929 7.389 7.849 8.369 8.919 9.589 10.319 11.119
1070.596 11.969 12.719 13.379 14.039 14.619 14.919 15.019 14.899 14.509 13.999
1089.886 13.409 12.839 12.329 11.699 11.019 10.409 9.719 9.029 8.519 8.039
1109.176 7.649 7.419 7.179 7.179 7.329 7.379 7.419 7.409 7.559 7.759
1128.467 7.879 8.159 8.589 9.149 9.819 10.949 12.629 14.479 16.259 17.569
1147.757 18.509 19.729 21.399 23.399 25.559 28.199 32.009 37.479 44.889 54.449
1167.047 66.489 81.219 99.099 120.489 144.859 171.149 197.999 223.829 247.149 266.399
1186.337 280.739 289.629 293.139 292.669 289.419 284.009 276.749 268.499 259.629 249.659
1205.627 237.939 224.229 207.909 188.629 166.029 141.369 118.459 99.849 85.759 74.869
1224.917 65.459 56.819 48.919 42.069 36.579 32.289 29.009 26.509 24.609 23.099
1244.207 21.689 20.349 19.049 17.979 17.089 16.229 15.359 14.599 13.899 13.159
1263.497 12.399 11.599 10.869 10.259 9.709 9.169 8.649 8.069 7.569 7.179
1282.787 6.879 6.579 6.399 6.369 6.269 6.229 6.199 6.129 6.029 5.859
1302.077 5.749 5.709 5.539 5.379 5.219 5.069 4.889 4.659 4.419 4.199
1321.367 4.059 3.939 3.779 3.659 3.499 3.379 3.349 3.329 3.359 3.459
1340.657 3.609 3.869 4.229 4.669 5.329 6.129 7.139 8.519 10.399 12.879
1359.947 16.059 20.019 24.459 28.809 32.649 35.559 37.299 37.699 36.509 33.799
1379.237 29.889 25.319 20.569 16.519 13.419 11.169 9.729 8.769 8.119 7.599
1398.527 7.129 6.779 6.509 6.249 6.099 5.979 5.869 5.809 5.809 5.879
1417.817 5.979 6.059 6.099 6.189 6.309 6.489 6.809 7.159 7.429 7.629
1437.107 7.809 7.809 7.619 7.389 7.119 6.779 6.349 5.999 5.639 5.339
1456.397 5.249 5.209 5.169 5.219 5.329 5.449 5.649 5.879 6.209 6.619
1475.687 7.219 8.179 9.559 11.629 14.739 19.189 25.709 34.799 47.139 62.589
1494.977 80.839 101.319 120.619 136.189 145.899 149.099 146.299 138.619 126.439 109.209
1514.267 89.279 69.319 51.869 38.999 29.549 23.539 19.579 16.799 14.739 13.149
1533.557 11.869 10.639 9.519 8.489 7.419 6.499 5.749 5.099 4.679 4.379
1552.847 4.119 3.899 3.729 3.689 3.629 3.519 3.479 3.449 3.449 3.399
1572.137 3.349 3.469 3.689 3.899 4.079 4.239 4.409 4.669 4.849 5.019
1591.427 5.249 5.389 5.499 5.549 5.579 5.509 5.369 5.239 5.109 4.889
1610.717 4.649 4.379 4.169 4.079 3.999 3.939 3.919 3.909 3.879 3.859
1630.007 3.849 3.799 3.719 3.599 3.519 3.509 3.479 3.339 3.249 3.199
1649.297 3.099 3.099 3.099 3.089 3.109 3.169 3.239 3.289 3.419 3.519
1668.587 3.549 3.579 3.599 3.549 3.419 3.329 3.209 3.039 3.009 2.969
1687.877 2.949 3.039 3.079 3.049 3.129 3.249 3.279 3.289 3.369 3.469
1707.167 3.539 3.639 3.749 3.879 4.029 4.259 4.519 4.749 5.099 5.479
1726.457 5.799 6.249 6.769 7.269 7.819 8.419 9.089 9.839 10.719 11.709
1745.747 12.779 14.049 15.559 17.289 19.159 21.279 23.739 26.389 29.369 32.759
1765.037 36.499 40.619 45.149 49.789 54.769 59.739 64.449 68.819 72.789 76.219
1784.327 78.769 80.089 79.549 77.159 73.729 69.719 65.259 60.209 54.709 48.989
1803.617 43.319 37.809 32.609 28.019 24.059 20.719 17.899 15.469 13.519 11.899
1822.907 10.519 9.489 8.569 7.819 7.279 6.799 6.449 6.139 5.879 5.649
1842.197 5.379 5.189 5.049 5.009 4.959 4.849 4.849 4.899 4.949 4.989
1861.487 4.979 4.919 4.899 4.879 4.779 4.639 4.449 4.239 4.059 3.829
1880.777 3.519 3.179 2.909 2.699 2.499 2.289 2.129 1.989 1.889 1.799
1900.067 1.739 1.679 1.629 1.619 1.629 1.629 1.539 1.479 1.499 1.469
1919.357 1.3922 1.3563 1.3222 1.2609 1.2606 1.2997 1.3536 1.3921 1.3964 1.3933
1938.647 1.4054 1.479 1.519 1.529 1.529 1.519 1.499 1.509 1.529 1.519
1957.937 1.479 1.459 1.459 1.459 1.449 1.4086 1.4273 1.499 1.479 1.479
1977.227 1.509 1.539 1.619 1.649 1.679 1.749 1.839 1.889 1.929 2.039
1996.517 2.149 2.279 2.449 2.599 2.629 2.619 2.579 2.529 2.449 2.299
2015.807 2.189 2.079 1.999 1.959 1.899 1.789 1.819 1.909 1.869 1.839
2035.097 1.849 1.819 1.809 1.819 1.799 1.769 1.699 1.659 1.659 1.589
2054.387 1.509 1.479 1.4085 1.3164 1.2104 1.1665 1.1516 1.1094 1.1339 1.1261
2073.677 1.0828 1.0674 1.0512 0.9877 0.9866 1.0448 1.1071 1.1491 1.1154 1.0994
2092.967 1.165 1.2372 1.2795 1.3292 1.4015 1.4135 1.4052 1.3953 1.3624 1.2959
2112.257 1.1917 1.123 1.059 1.0259 0.98 0.8882 0.8454 0.8677 0.8629 0.8283
2131.547 0.7455 0.6911 0.6606 0.649 0.6792 0.6647 0.6212 0.5997 0.5835 0.53834
2150.837 0.5631 0.6064 0.6004 0.5849 0.54182 0.52718 0.51709 0.49297 0.53082 0.54777
2170.127 0.50932 0.48774 0.47384 0.46286 0.4628 0.46045 0.47267 0.4291 0.4211 0.46893
2189.417 0.53075 0.5201 0.44739 0.454417 0.47488 0.47899 0.47867 0.50659 0.4934 0.48726
2208.707 0.53338 0.52385 0.49747 0.48315 0.51003 0.50917 0.51211 0.52967 0.50568 0.46936
2227.997 0.4338 0.52681 0.5902 0.5898 0.6092 0.6204 0.6084 0.6144 0.6572 0.6379
2247.287 0.5781 0.54254 0.5525 0.5006 0.47381 0.52848 0.53362 0.54395 0.54835 0.54227
2266.577 0.5407 0.5603 0.6363 0.6189 0.5927 0.6119 0.5767 0.5551 0.5811 0.54472
2285.868 0.52826 0.5804 0.5316 0.46284 0.5092 0.54475 0.52508 0.52239 0.48769 0.51971
2305.158 0.551 0.52173 0.5512 0.5885 0.5959 0.6035 0.6424 0.6618 0.6597 0.6109
2324.448 0.5996 0.6708 0.6851 0.7313 0.7644 0.7153 0.6984 0.7511 0.8272 0.8544
2343.738 0.9113 0.9072 0.8793 0.9339 1.032 1.1242 1.0985 1.0656 1.1164 1.1235
2363.028 1.0704 1.1068 1.1842 1.1344 1.0773 1.0937 1.164 1.172 1.1512 1.1677
2382.318 1.1688 1.2158 1.214 1.1617 1.1183 1.0653 1.1116 1.1226 1.1374 1.1557
2401.608 1.1958 1.2336 1.143 1.1658 1.1929 1.1615 1.2083 1.2987 1.2708 1.2424
2420.898 1.2327 1.1843 1.1501 1.1787 1.1684 1.0745 1.0837 1.0691 0.9586 0.8851
2440.188 0.825 0.7726 0.7464 0.707 0.6329 0.5893 0.6282 0.6483 0.6919 0.7068
2459.478 0.634 0.6427 0.7206 0.7202 0.7099 0.6802 0.6536 0.6792 0.6581 0.6197
2478.768 0.6072 0.53479 0.53133 0.5832 0.5497 0.54386 0.47418 0.3887 0.3735 0.3676
2498.058 0.4011 0.3935 0.3717 0.3922 0.3865 0.401 0.3888 0.3685 0.303 0.255
2517.348 0.257 0.27 0.259 0.233 0.232 0.217 0.237 0.232 0.257 0.284
2536.638 0.246 0.29 0.299 0.302 0.346 0.282 0.266 0.317 0.347 0.3539
2555.928 0.4279 0.455141 0.4225 0.4297 0.47477 0.51756 0.44097 0.47959 0.51691 0.46579
2575.218 0.49301 0.50593 0.4302 0.3535 0.343 0.318 0.287 0.275 0.28 0.281
2594.508 0.246 0.234 0.223 0.207 0.191 0.197 0.186 0.179 0.217 0.158
2613.798 0.109 0.202 0.228 0.187 0.171 0.194 0.2 0.163 0.108 0.098
2633.088 0.171 0.197 0.148 0.069 0.082 0.145 0.169 0.192 0.194 0.224
2652.378 0.249 0.229 0.211 0.168 0.116 0.15 0.189 0.197 0.191 0.167
2671.668 0.244 0.269 0.18 0.211 0.254 0.237 0.247 0.267 0.288 0.324
2690.958 0.246 0.264 0.364 0.312 0.228 0.181 0.237 0.291 0.252 0.279
2710.248 0.317 0.27 0.249 0.236 0.269 0.264 0.234 0.214 0.256 0.3544
2729.538 0.3808 0.304 0.297 0.309 0.23 0.169 0.252 0.31 0.284 0.255
2748.828 0.218 0.225 0.204 0.163 0.156 0.212 0.278 0.291 0.256 0.292
2768.118 0.294 0.228 0.281 0.4041 0.338 0.252 0.26 0.314 0.27 0.202
2787.408 0.293 0.3539 0.339 0.311 0.324 0.344 0.324 0.213 0.127 0.22
2806.698 0.294 0.271 0.253 0.232 0.239 0.194 0.214 0.248 0.225 0.195
2825.988 0.225 0.246 0.211 0.293 0.238 0.192 0.324 0.348 0.234 0.288
2845.278 0.4197 0.46017 0.4086 0.34 0.341 0.3553 0.48499 0.5741 0.51494 0.574
2864.568 0.7178 0.5974 0.50061 0.52153 0.51155 0.49618 0.454758 0.53025 0.54644 0.47242
2883.858 0.46752 0.426 0.47229 0.52517 0.53474 0.5821 0.4169 0.29 0.3918 0.3655
2903.148 0.253 0.254 0.251 0.238 0.3628 0.4196 0.4446 0.4317 0.3554 0.44308
2922.438 0.50111 0.5119 0.4344 0.4283 0.52308 0.5877 0.5535 0.5859 0.8117 0.9367
2941.728 1.0682 1.3038 1.499 1.639 1.679 1.759 1.739 1.639 1.529 1.376
2961.018 1.299 1.257 1.174 1.0197 0.8936 0.7208 0.7374 0.8762 0.9062 0.9247
2980.308 0.9008 0.8855 0.9653 1.0253 0.8269 0.6404 0.764 0.921 1.007 0.9575
2999.598 0.7973 0.8246 0.9348 1.0643 1.1816 1.1676 1.12 1.1282 1.2215 1.3386
3018.888 1.519 1.639 1.689 1.849 1.919 1.819 1.809 1.909 1.859 1.809
3038.178 1.909 2.089 2.209 2.189 2.269 2.569 2.999 3.359 3.469 3.699
3057.468 3.939 3.979 3.889 3.749 3.749 3.609 3.309 2.949 2.659 2.449
3076.758 2.309 2.219 2.109 2.129 2.179 2.279 2.219 2.139 2.199 2.049
3096.048 1.929 1.829 1.719 1.679 1.679 1.719 1.639 1.519 1.4401 1.3693
3115.338 1.2742 1.2221 1.2634 1.1528 1.0997 1.016 0.9405 1.0224 1.0061 0.9379
3134.628 0.8487 0.7431 0.5888 0.51676 0.5908 0.5807 0.52006 0.52174 0.5602 0.457783
3153.918 0.319 0.3954 0.44307 0.4804 0.47752 0.431 0.308 0.27 0.331 0.314
3173.208 0.329 0.321 0.344 0.332 0.279 0.257 0.262 0.3677 0.357 0.232
3192.498 0.189 0.251 0.31 0.244 0.286 0.36 0.147 0.027 0.114 0.128
3211.788 0.067 0.05 0.154 0.159 0.209 0.273 0.182 0.143 0.12 0.057
3231.078 0.039 0.055 0.172 0.27 0.23 0.151 0.118 0.187 0.181 0.092
3250.368 0.086 0.227 0.317 0.193 0.071 0 0.17 0.272 0.138 0.068
3269.658 0.044 0.112 0.172 0.176 0.155 0.196 0.334 0.3843 0.206 0.095
3288.948 0.205 0.251 0.236 0.212 0.193 0.222 0.229 0.168 0.141 0.222
3308.238 0.075 0.11 0.327 0.232 0.193 0.217 0.146 0.094 0.137 0.012
3327.528 0.097 0.3 0.175 0.152 0.305 0.38 0.303 0.332 0.309 0.175
3346.818 0.245 0.347 0.3629 0.3786 0.4185 0.409 0.308 0.32 0.266 0.151
3366.108 0.224 0.206 0.253 0.341 0.218 0.282 0.343 0.288 0.313 0.28
3385.398 0.367 0.44785 0.3539 0.3538 0.3816 0.28 0.191 0.197 0.196 0.129
3404.688 0.172 0.344 0.3525 0.207 0.129 0.207 0.343 0.3637 0.266 0.317
3423.978 0.345 0.3718 0.54289 0.4178 0.4307 0.52488 0.50357 0.51077 0.44775 0.416
3443.269 0.3534 0.285 0.3492 0.458111 0.3546 0.34 0.48372 0.5805 0.575 0.50763
3462.559 0.54344 0.47939 0.3553 0.3576 0.5151 0.6358 0.5926 0.5927 0.6665 0.6025
3481.849 0.5633 0.6546 0.585 0.5605 0.702 0.7065 0.6558 0.6312 0.46105 0.437
3501.139 0.5713 0.50658 0.457463 0.5104 0.6696 0.8505 0.8334 0.8174 0.7796 0.8597
3520.429 0.815 0.7246 0.7633 0.7921 0.8857 0.842 0.8442 1.0444 1.1728 1.2152
3539.719 1.2128 1.3647 1.489 1.4307 1.4211 1.4432 1.4415 1.3043 1.3309 1.3467
3559.009 1.251 1.1999 1.1333 1.1624 1.1377 0.9509 0.8509 0.8513 0.8701 0.8624
3578.299 0.7786 0.6873 0.613 0.6492 0.7381 0.7091 0.6686 0.6388 0.48277 0.3523
3597.589 0.44273 0.5642 0.53955 0.5766 0.6903 0.562 0.4355 0.4374 0.52945 0.5611
3616.879 0.51587 0.5348 0.5925 0.49024 0.4197 0.52463 0.3943 0.303 0.47189 0.46302
3636.169 0.458909 0.6044 0.455586 0.324 0.51866 0.6056 0.52306 0.54609 0.44682 0.436
3655.459 0.5649 0.53762 0.51081 0.44279 0.47033 0.54805 0.5329 0.4347 0.52362 0.6386
3674.749 0.6314 0.7194 0.6053 0.4222 0.3777 0.43924 0.4205 0.451548 0.52427 0.53908
3694.039 0.6038 0.5806 0.5743 0.5979 0.6221 0.6074 0.5569 0.5707 0.6138 0.6633
3713.329 0.6045 0.5692 0.6083 0.6047 0.625 0.6711 0.5764 0.4384 0.3856 0.3743
3732.619 0.3835 0.54884 0.6827 0.54046 0.46245 0.50808 0.629 0.6386 0.6039 0.6067
3751.909 0.54488 0.44611 0.4298 0.5702 0.454834 0.228 0.178 0.291 0.5147 0.52058
3771.199 0.53613 0.5664 0.48698 0.44272 0.448262 0.3774 0.3557 0.44106 0.4107 0.4175
3790.489 0.452052 0.44449 0.48747 0.3788 0.248 0.309 0.274 0.293 0.313 0.307
3809.779 0.378 0.47592 0.49484 0.5829 0.6389 0.44413 0.331 0.4158 0.456662 0.49117
3829.069 0.4871 0.44716 0.5741 0.53851 0.52405 0.5723 0.44622 0.341 0.46025 0.6567
3848.359 0.5691 0.49073 0.54497 0.5874 0.589 0.5863 0.662 0.7092 0.6509 0.52309
3867.649 0.48123 0.5063 0.5749 0.6781 0.5915 0.44387 0.5576 0.6146 0.5741 0.51684
3886.939 0.53002 0.6045 0.6593 0.6012 0.52002 0.6298 0.5633 0.5959 0.6766 0.5335
3906.229 0.46088 0.53827 0.6068 0.6397 0.6361 0.6269 0.6412 0.6236 0.49541 0.4606
3925.519 0.6109 0.45923 0.44144 0.5633 0.4947 0.4284 0.322 0.455866 0.6787 0.7166
3944.809 0.6019 0.45955 0.5769 0.7961 0.7847 0.8575 0.8524 0.6595 0.6618 0.7396
3964.099 0.5556 0.424 0.53794 0.6491 0.7336 0.6089 0.4719 0.48839 0.6877 0.7999
3983.389 0.597 0.51089 0.50906 0.3959 0.373 0.3975 0.4773 0.51728 0.5603 0.6239
##END=
