##TITLE=4-Fluorophenylacetic acid
##JCAMP-DX=4.24
##DATA TYPE=INFRARED SPECTRUM
##ORIGIN=EPA-IR VAPOR PHASE LIBRARY
##OWNER=SRD/NIST
Collection (C) 2018 copyright by the U.S. Secretary of Commerce
on behalf of the United States of America. All rights reserved.
##CAS REGISTRY NO=405-50-5
##MOLFORM=C 8 H 7 F O 2
##$NIST SOURCE=MSDC-IR
##STATE=gas
##XUNITS=1/CM
##YUNITS=ABSORBANCE
##XFACTOR=1.
##YFACTOR=0.001
##DELTAX=1.92898
##FIRSTX=549.8
##LASTX=4000.7
##FIRSTY=27.052
##MAXX=4000.7
##MINX=549.759
##MAXY=0.099842
##MINY=0
##NPOINTS=1790
##XYDATA=(X++(Y..Y))
549.759 27.052 28.872 30.582 32.062 32.532 32.032 30.992 29.372 27.112 24.562
569.049 21.892 19.562 17.522 16.132 15.292 14.732 15.112 15.832 16.732 17.562
588.339 18.512 19.942 21.002 22.072 23.262 24.232 25.182 25.692 25.912 26.162
607.628 26.332 26.142 25.582 24.922 24.212 23.582 22.872 22.212 21.492 20.632
626.918 19.932 19.222 18.542 17.942 17.012 15.952 15.092 14.562 13.882 13.012
646.208 12.152 11.462 11.202 10.962 10.412 9.872 9.562 9.222 8.912 8.712
665.498 8.622 8.482 8.302 8.322 8.332 8.142 8.052 7.982 7.922 7.952
684.787 7.942 7.992 7.952 7.712 7.582 7.392 6.912 6.292 5.682 5.302
704.077 5.102 4.582 4.042 3.942 3.762 3.442 3.182 3.012 2.952 2.962
723.367 2.702 2.312 2.302 2.282 2.272 2.292 2.152 2.142 2.262 2.262
742.657 2.092 2.002 1.992 1.942 2.092 2.372 2.372 2.372 2.452 2.422
761.947 2.592 2.962 3.372 3.752 4.472 5.442 6.362 7.792 9.372 10.962
781.236 12.682 14.292 15.782 16.832 17.472 18.012 18.182 17.802 17.062 16.552
800.526 16.212 16.002 15.952 16.472 17.422 18.282 19.252 20.412 21.322 21.902
819.816 22.112 21.832 21.362 20.682 19.552 18.242 16.932 15.482 14.182 13.022
839.106 11.962 11.142 10.712 10.652 10.792 10.922 11.002 11.152 10.912 10.382
858.395 9.982 9.442 8.752 7.902 6.942 6.162 5.582 5.182 4.782 4.562
877.685 4.752 4.932 4.842 4.492 4.512 4.422 4.062 4.112 4.032 3.812
896.975 3.702 3.712 3.742 3.602 3.662 3.702 3.602 3.532 3.522 3.512
916.265 3.562 3.682 3.632 3.732 3.732 3.622 3.742 3.842 3.942 4.042
935.555 4.162 4.112 3.872 3.692 3.572 3.412 3.222 3.132 2.922 2.782
954.844 2.742 2.892 2.932 2.692 2.612 2.532 2.382 2.242 2.032 2.122
974.134 2.332 2.072 1.802 1.812 1.842 1.852 1.672 1.502 1.552 1.812
993.424 2.022 1.802 1.702 1.782 1.902 1.992 2.342 2.862 3.342 4.142
1012.714 4.782 5.002 5.072 5.052 5.122 5.082 4.642 4.062 3.302 2.902
1032.003 2.752 2.462 2.282 2.262 2.542 2.852 2.952 3.172 3.592 4.002
1051.293 4.062 4.462 5.212 5.742 6.122 6.672 7.362 8.152 9.062 9.862
1070.583 10.722 12.052 13.482 15.012 16.532 17.932 20.452 23.242 25.822 28.942
1089.873 32.482 36.612 40.832 45.382 51.012 57.562 64.632 71.982 79.482 86.472
1109.163 92.692 97.292 99.742 99.842 98.132 94.732 89.112 81.512 72.922 64.522
1128.452 56.942 50.972 45.952 41.982 39.172 36.332 33.952 31.812 29.992 28.682
1147.742 27.792 27.662 28.332 29.642 30.732 30.392 29.602 28.532 27.552 27.102
1167.032 24.902 21.362 18.472 16.462 15.082 14.272 14.102 14.282 14.282 14.132
1186.322 14.312 15.112 15.792 16.122 16.692 17.382 18.052 18.512 18.952 20.102
1205.611 21.142 21.862 22.812 23.662 24.882 26.812 28.682 30.922 33.802 37.952
1224.901 43.562 51.072 60.592 70.622 79.322 84.982 87.492 87.172 84.692 79.732
1244.191 70.762 57.692 43.302 31.832 24.362 19.792 17.032 15.272 13.862 12.382
1263.481 11.372 10.932 10.612 10.302 9.922 9.622 9.602 9.592 9.632 9.722
1282.771 9.592 9.602 9.592 9.492 9.602 9.602 9.422 9.282 9.292 9.202
1302.060 9.022 8.812 8.642 8.612 8.622 8.532 8.472 8.532 8.622 8.782
1321.350 8.982 9.282 9.682 10.092 10.522 11.052 11.612 12.172 12.812 13.352
1340.640 13.872 14.282 14.692 15.132 15.342 15.482 15.622 15.682 15.642 15.582
1359.930 15.532 15.342 14.922 14.422 13.812 13.072 12.282 11.402 10.542 9.712
1379.219 8.872 8.202 7.652 7.172 6.772 6.482 6.262 6.042 5.872 5.812
1398.509 5.762 5.672 5.652 5.692 5.792 5.862 5.922 6.172 6.412 6.542
1417.799 6.702 6.852 7.022 7.222 7.382 7.432 7.552 7.672 7.682 7.692
1437.089 7.642 7.582 7.432 7.092 6.702 6.322 5.952 5.562 5.142 4.762
1456.378 4.412 4.112 3.852 3.622 3.502 3.382 3.282 3.242 3.302 3.382
1475.668 3.472 3.582 3.802 4.142 4.512 5.082 5.912 7.052 8.792 11.202
1494.958 14.752 19.992 27.102 36.472 47.922 60.122 71.982 81.012 85.972 87.542
1514.248 85.922 81.242 73.052 61.692 48.142 36.302 27.102 20.392 15.692 12.372
1533.538 9.902 8.112 6.882 5.802 5.012 4.562 4.122 3.682 3.412 3.352
1552.827 3.282 3.242 3.232 3.272 3.362 3.302 3.262 3.292 3.322 3.292
1572.117 3.352 3.422 3.452 3.482 3.552 3.762 4.202 4.672 5.132 5.772
1591.407 6.572 7.542 8.772 10.152 11.552 12.992 14.452 15.722 16.442 16.592
1610.697 16.162 15.222 14.142 12.752 11.132 9.582 8.132 6.992 6.072 5.222
1629.986 4.472 3.912 3.472 3.142 2.872 2.592 2.392 2.272 2.212 2.092
1649.276 2.012 1.942 1.832 1.792 1.812 1.862 1.822 1.802 1.962 2.022
1668.566 2.002 2.002 1.982 2.052 2.132 2.262 2.402 2.492 2.572 2.662
1687.856 2.812 2.962 3.062 3.222 3.482 3.702 3.832 4.052 4.352 4.582
1707.146 4.762 5.012 5.312 5.652 6.082 6.642 7.242 7.782 8.462 9.212
1726.435 10.062 11.082 12.212 13.552 15.052 16.712 18.622 20.762 23.142 25.832
1745.725 28.742 31.942 35.332 38.902 42.582 46.282 50.172 54.132 58.152 62.312
1765.015 66.662 71.152 75.902 80.562 85.052 89.042 92.202 94.282 95.332 95.332
1784.305 94.052 91.582 87.822 83.112 77.902 72.572 67.302 61.982 56.662 51.342
1803.594 46.132 41.102 36.362 31.912 27.842 24.202 20.952 18.122 15.662 13.522
1822.884 11.822 10.382 9.042 7.992 7.132 6.322 5.622 5.082 4.642 4.212
1842.174 3.922 3.692 3.452 3.252 3.122 2.952 2.902 2.902 2.892 2.832
1861.464 2.802 2.902 2.962 2.962 2.942 2.982 3.032 3.112 3.142 3.072
1880.754 3.072 3.052 3.022 2.912 2.792 2.732 2.602 2.512 2.362 2.212
1900.043 2.052 1.892 1.852 1.712 1.562 1.442 1.3627 1.3636 1.3816 1.3341
1919.333 1.2729 1.2591 1.2145 1.2361 1.3423 1.3537 1.313 1.28 1.29 1.3077
1938.623 1.2838 1.2494 1.2242 1.2314 1.2211 1.2041 1.1479 1.0553 1.0802 1.1024
1957.913 1.0433 1.0182 1.0558 1.125 1.0846 1.0856 1.1185 1.0766 1.058 1.0596
1977.202 1.0953 1.1204 1.1412 1.1343 1.1361 1.179 1.1669 1.1702 1.1644 1.1154
1996.492 1.1219 1.1919 1.1877 1.186 1.2496 1.2587 1.2641 1.2681 1.2202 1.2288
2015.782 1.2632 1.2756 1.2727 1.2587 1.2194 1.1457 1.1044 1.0602 1.0103 1.0703
2035.072 1.1503 1.0872 1.0132 0.9864 0.9734 0.9557 0.9299 0.9193 0.8619 0.8484
2054.362 0.9051 0.9311 0.9547 0.8747 0.7709 0.8147 0.8442 0.8235 0.8183 0.8205
2073.651 0.8333 0.8601 0.8474 0.8178 0.8466 0.86 0.847 0.8448 0.8403 0.8164
2092.941 0.8233 0.7987 0.824 0.8521 0.7501 0.7133 0.705 0.6862 0.6941 0.6845
2112.231 0.6831 0.671 0.6673 0.6679 0.6725 0.7357 0.7399 0.7143 0.7448 0.7603
2131.521 0.7103 0.6431 0.5835 0.5679 0.6069 0.6215 0.5718 0.5754 0.65 0.6441
2150.810 0.6775 0.7316 0.6841 0.6217 0.6384 0.5609 0.5584 0.6885 0.6837 0.6609
2170.100 0.6248 0.6317 0.6874 0.6839 0.6788 0.6853 0.6768 0.6664 0.6686 0.6957
2189.390 0.6807 0.6811 0.7349 0.764 0.773 0.7707 0.8256 0.8509 0.8339 0.8566
2208.680 0.8927 0.9047 0.8569 0.8827 0.9329 0.8636 0.8615 0.8823 0.8882 0.9225
2227.970 0.9722 0.9515 0.8763 0.8456 0.7904 0.8137 0.8776 0.8923 0.8862 0.8625
2247.259 0.8865 0.9125 0.9025 0.8985 0.9463 0.9198 0.8574 0.8731 0.8523 0.8371
2266.549 0.7869 0.7382 0.736 0.759 0.7706 0.7664 0.7794 0.7338 0.6792 0.7263
2285.839 0.7569 0.777 0.8245 0.7351 0.6793 0.719 0.7392 0.7433 0.708 0.7604
2305.129 0.7545 0.7369 0.814 0.8002 0.7561 0.7569 0.7975 0.8314 0.8244 0.821
2324.418 0.815 0.8695 0.8961 0.829 0.8664 0.9223 0.8387 0.7536 0.7731 0.8067
2343.708 0.7734 0.7142 0.7474 0.7784 0.765 0.7791 0.8205 0.8402 0.8316 0.8025
2362.998 0.7855 0.8552 0.9417 0.9167 0.859 0.8237 0.853 0.9134 0.918 0.8579
2382.288 0.9098 0.984 0.9604 0.9621 0.9395 0.9722 0.9771 1.0077 1.0079 0.9815
2401.578 0.9958 0.8998 0.8708 0.829 0.7538 0.8373 0.8741 0.7672 0.6965 0.6929
2420.867 0.686 0.7459 0.7124 0.7365 0.8199 0.7652 0.7674 0.8091 0.7561 0.6988
2440.157 0.7348 0.8017 0.8384 0.8546 0.8802 0.8856 0.8977 0.9701 1.0629 1.0745
2459.447 1.0616 1.0867 1.1168 1.1967 1.2476 1.1938 1.0893 1.1071 1.1255 0.9585
2478.737 0.8602 0.8818 0.9333 0.8576 0.7439 0.7452 0.6138 0.5256 0.5833 0.583
2498.026 0.579 0.6286 0.6713 0.5925 0.5214 0.5771 0.6066 0.5978 0.5556 0.42212
2517.316 0.43494 0.5207 0.5086 0.46977 0.45601 0.5087 0.5549 0.5516 0.5373 0.5816
2536.606 0.6085 0.5856 0.5698 0.6312 0.6693 0.5781 0.5743 0.6572 0.6969 0.6395
2555.896 0.5154 0.5389 0.5503 0.5597 0.561 0.5342 0.6355 0.6366 0.6331 0.6711
2575.186 0.6425 0.6382 0.6166 0.5994 0.6048 0.5521 0.48056 0.5133 0.5162 0.4243
2594.475 0.44243 0.5304 0.5043 0.46691 0.5401 0.5617 0.536 0.5018 0.43492 0.44304
2613.765 0.43959 0.3478 0.3452 0.37788 0.381572 0.41649 0.45933 0.501 0.6294 0.6798
2633.055 0.5336 0.45092 0.4266 0.45001 0.5264 0.5506 0.5758 0.5473 0.47033 0.46364
2652.345 0.5466 0.5484 0.46884 0.40452 0.40956 0.46533 0.5214 0.5386 0.47658 0.46833
2671.634 0.4872 0.4992 0.47749 0.43225 0.43103 0.37907 0.43316 0.42559 0.3035 0.2956
2690.924 0.3515 0.47572 0.5117 0.42053 0.3601 0.39597 0.3442 0.3685 0.44291 0.37546
2710.214 0.37207 0.4351 0.41228 0.44911 0.5395 0.5392 0.5209 0.527 0.4971 0.44165
2729.504 0.4912 0.566 0.4886 0.41237 0.43174 0.42734 0.44783 0.48134 0.5146 0.5174
2748.794 0.4925 0.45819 0.40139 0.3703 0.3409 0.3307 0.37206 0.48185 0.46044 0.43836
2768.083 0.4908 0.43542 0.388226 0.3524 0.3704 0.336 0.42526 0.5579 0.41833 0.254
2787.373 0.3623 0.5504 0.4877 0.44765 0.5238 0.44016 0.3601 0.43631 0.47089 0.3702
2806.663 0.2838 0.3255 0.41616 0.46488 0.4893 0.43278 0.4865 0.4935 0.40364 0.47042
2825.953 0.4904 0.5213 0.5544 0.6185 0.5942 0.6249 0.6694 0.6432 0.7807 0.8284
2845.242 0.8373 0.8122 0.7388 0.8458 0.8219 0.6896 0.8336 0.9471 0.9734 1.032
2864.532 1.0062 0.9545 0.9766 1.0349 1.0292 0.95 0.8583 0.7566 0.7268 0.7057
2883.822 0.6835 0.8128 0.9497 1.0037 0.9082 0.8323 0.9256 0.9306 1.0175 1.223
2903.112 1.392 1.522 1.562 1.572 1.662 1.852 2.082 2.282 2.482 2.712
2922.401 2.852 2.952 3.062 3.182 3.402 3.522 3.422 3.582 3.842 3.782
2941.691 3.732 3.722 3.592 3.552 3.492 3.322 3.112 2.962 2.892 2.742
2960.981 2.622 2.482 2.322 2.362 2.372 2.222 2.182 2.252 2.222 2.212
2980.271 2.182 2.222 2.292 2.242 2.252 2.262 2.282 2.302 2.352 2.472
2999.561 2.602 2.722 2.722 2.772 2.872 2.882 2.882 2.832 2.762 2.762
3018.850 2.682 2.452 2.552 2.692 2.682 2.742 2.792 3.092 3.442 3.782
3038.140 4.132 4.622 5.202 5.632 5.962 6.112 6.092 6.092 5.942 5.512
3057.430 5.132 4.782 4.272 3.842 3.572 3.432 3.352 3.202 3.052 3.042
3076.720 3.152 3.082 3.032 3.072 2.932 2.752 2.432 2.142 1.962 1.662
3096.009 1.562 1.592 1.482 1.462 1.442 1.3067 1.2703 1.2357 1.2001 1.3357
3115.299 1.3185 1.2695 1.2758 1.2799 1.392 1.3182 1.2547 1.1807 1.0794 1.059
3134.589 1.0158 0.9217 0.8152 0.7129 0.6384 0.663 0.5675 0.47893 0.42931 0.387764
3153.879 0.3495 0.3564 0.37242 0.3181 0.248 0.229 0.3 0.37775 0.3227 0.173
3173.169 0.224 0.3273 0.4078 0.539 0.483 0.3176 0.22 0.171 0.241 0.3644
3192.458 0.4086 0.48151 0.44091 0.3203 0.3502 0.3504 0.3329 0.3465 0.239 0.207
3211.748 0.3323 0.2906 0.122 0.138 0.16 0.14 0.206 0.2852 0.3106 0.242
3231.038 0.197 0.275 0.267 0.204 0.16 0 0.073 0.274 0.2964 0.3209
3250.328 0.271 0.221 0.246 0.305 0.3291 0.144 0.134 0.229 0.205 0.217
3269.617 0.28 0.2998 0.3693 0.37434 0.279 0.2944 0.275 0.258 0.202 0.128
3288.907 0.195 0.207 0.204 0.209 0.162 0.175 0.256 0.254 0.197 0.235
3308.197 0.263 0.208 0.109 0.075 0.199 0.3366 0.268 0.222 0.3673 0.3928
3327.487 0.305 0.293 0.3216 0.209 0.171 0.228 0.211 0.268 0.216 0.116
3346.777 0.166 0.219 0.3535 0.44632 0.3533 0.3344 0.3199 0.3187 0.353 0.2851
3366.066 0.278 0.227 0.122 0.089 0.029 0.148 0.219 0.188 0.222 0.257
3385.356 0.3658 0.3246 0.256 0.3042 0.2899 0.286 0.3221 0.2999 0.239 0.238
3404.646 0.236 0.248 0.2874 0.3318 0.3171 0.199 0.37437 0.5131 0.44665 0.39753
3423.936 0.19 0.218 0.3584 0.41948 0.5475 0.5002 0.42827 0.46571 0.43869 0.37942
3443.225 0.40618 0.5371 0.4935 0.40703 0.3031 0.166 0.185 0.189 0.218 0.261
3462.515 0.42785 0.5463 0.5469 0.5652 0.504 0.43166 0.46162 0.42928 0.43915 0.5667
3481.805 0.4985 0.42277 0.487 0.45727 0.5151 0.679 0.6811 0.701 0.8885 0.8825
3501.095 0.7918 0.8857 0.9239 0.9404 1.012 1.0066 1.0009 1.1279 1.2876 1.3714
3520.385 1.3475 1.2962 1.462 1.782 1.912 2.092 2.302 2.472 2.692 2.932
3539.674 3.232 3.542 3.862 4.252 4.712 5.472 6.422 7.342 8.592 10.222
3558.964 12.432 15.612 20.022 25.652 32.032 37.872 41.702 43.462 43.932 43.152
3578.254 40.982 36.872 30.602 23.832 18.112 13.912 11.092 9.032 7.372 6.242
3597.544 5.322 4.442 3.762 3.232 2.812 2.472 2.152 1.972 1.772 1.502
3616.833 1.392 1.462 1.392 1.1014 0.9579 0.9077 0.9569 0.9456 0.8112 0.7433
3636.123 0.7841 0.9417 0.7648 0.47824 0.5488 0.7157 0.7612 0.569 0.43451 0.5356
3655.413 0.5228 0.42053 0.46586 0.601 0.5339 0.3417 0.41766 0.4957 0.37751 0.5166
3674.703 0.572 0.45761 0.40671 0.3035 0.41436 0.5198 0.5188 0.4932 0.5046 0.5223
3693.993 0.39466 0.3181 0.45495 0.5592 0.39512 0.2998 0.3612 0.3702 0.3044 0.3881
3713.282 0.498 0.5125 0.46697 0.3346 0.3596 0.44966 0.45543 0.37773 0.3213 0.3565
3732.572 0.43429 0.383245 0.3274 0.278 0.244 0.148 0.154 0.382515 0.46317 0.46881
3751.862 0.3458 0.3552 0.40806 0.244 0.2857 0.3626 0.3277 0.2937 0.322 0.4883
3771.152 0.4872 0.43216 0.39899 0.40177 0.37887 0.43335 0.44141 0.3182 0.274 0.2896
3790.441 0.3082 0.27 0.2846 0.3964 0.524 0.3064 0.193 0.285 0.124 0.16
3809.731 0.3332 0.3218 0.186 0.229 0.3009 0.2894 0.41665 0.388734 0.368 0.2848
3829.021 0.127 0.238 0.3697 0.3024 0.277 0.214 0.225 0.221 0.022 0.129
3848.311 0.3714 0.41039 0.42931 0.5213 0.5292 0.5508 0.52 0.41993 0.37772 0.41097
3867.601 0.44784 0.2931 0.228 0.3028 0.238 0.2887 0.3307 0.386994 0.41235 0.2987
3886.890 0.3448 0.40814 0.46349 0.3249 0.2862 0.233 0.3106 0.3271 0.221 0.275
3906.180 0.231 0.281 0.243 0.208 0.3257 0.3555 0.204 0.324 0.5924 0.4873
3925.470 0.3374 0.2945 0.198 0.209 0.2954 0.186 0.152 0.3646 0.37458 0.3604
3944.760 0.3303 0.2889 0.3389 0.3398 0.2 0.171 0.3307 0.2854 0.281 0.2861
3964.049 0.226 0.22 0.153 0.057 0.202 0.3581 0.3029 0.149 0.161 0.274
3983.339 0.3221 0.3281 0.259 0.226 0.193 0.143 0.034 0.166 0.3431 0.3676
##END=
