##TITLE=p-Fluorophenoxyacetic acid
##JCAMP-DX=4.24
##DATA TYPE=INFRARED SPECTRUM
##ORIGIN=EPA-IR VAPOR PHASE LIBRARY
##OWNER=SRD/NIST
Collection (C) 2018 copyright by the U.S. Secretary of Commerce
on behalf of the United States of America. All rights reserved.
##CAS REGISTRY NO=405-79-8
##MOLFORM=C 8 H 7 F O 3
##$NIST SOURCE=MSDC-IR
##STATE=gas
##XUNITS=1/CM
##YUNITS=ABSORBANCE
##XFACTOR=1.
##YFACTOR=0.001
##DELTAX=3.85796
##FIRSTX=501.5
##LASTX=4000.7
##FIRSTY=4.145
##MAXX=4000.7
##MINX=501.534
##MAXY=0.045705
##MINY=0
##NPOINTS=908
##XYDATA=(X++(Y..Y))
501.534 4.145 4.065 3.775 3.765 3.555 3.415 3.585 3.605 3.665 3.675
540.114 3.765 4.065 4.295 4.485 4.595 4.505 4.345 4.135 3.965 3.855
578.693 3.795 3.805 3.845 4.025 4.325 4.595 4.685 4.875 5.145 5.205
617.273 5.085 5.015 4.915 4.695 4.495 4.195 3.795 3.345 3.085 2.985
655.852 2.905 2.775 2.675 2.765 2.605 2.315 2.185 2.045 1.875 1.765
694.432 1.725 1.745 1.815 1.835 1.925 2.145 2.545 3.205 4.125 4.915
733.011 5.365 5.385 4.895 4.195 3.645 3.315 3.125 3.215 3.595 3.915
771.591 3.995 3.695 3.065 2.395 1.905 1.665 1.635 1.675 1.845 2.215
810.170 2.785 3.625 4.675 5.755 6.765 7.445 7.435 6.915 6.155 5.275
848.750 4.465 3.825 3.275 2.845 2.465 2.185 2.025 1.875 1.745 1.605
887.330 1.475 1.365 1.3002 1.1893 1.0714 1.0064 0.9512 0.9139 0.9167 0.8817
925.909 0.8425 0.8623 0.8623 0.8618 0.8285 0.8032 0.7445 0.7707 0.8778 0.9221
964.489 0.9436 0.9673 1.013 1.0404 1.0618 1.1524 1.2498 1.325 1.435 1.695
1003.068 2.035 2.255 2.385 2.445 2.485 2.635 2.875 3.265 3.885 4.705
1041.648 5.575 6.535 7.565 8.655 9.675 10.545 11.395 12.125 12.555 12.505
1080.227 11.885 10.765 9.395 8.235 7.385 6.825 6.715 7.115 8.085 9.505
1118.807 11.005 12.225 12.655 12.225 11.325 10.445 9.965 9.815 9.825 9.855
1157.387 9.735 9.485 9.285 9.135 9.185 9.525 10.465 11.995 13.735 15.695
1195.966 17.495 18.885 20.145 21.615 23.795 26.625 29.025 29.285 26.605 21.765
1234.546 16.415 12.205 9.605 7.995 6.845 6.085 5.595 5.205 4.905 4.685
1273.125 4.595 4.555 4.505 4.605 4.635 4.505 4.365 4.255 4.155 4.135
1311.705 4.205 4.365 4.625 4.925 5.255 5.575 5.835 5.935 5.835 5.585
1350.284 5.255 4.905 4.545 4.195 3.845 3.535 3.305 3.125 2.965 2.835
1388.864 2.715 2.625 2.505 2.405 2.315 2.185 2.125 2.105 2.085 2.105
1427.443 2.125 2.185 2.315 2.525 2.795 2.975 2.955 2.745 2.415 2.165
1466.023 2.085 2.125 2.285 2.625 3.215 4.345 6.735 11.595 20.775 33.905
1504.603 44.095 45.705 38.535 25.055 13.095 7.445 5.135 3.775 2.805 2.125
1543.182 1.695 1.395 1.1881 1.0487 0.9443 0.8784 0.8451 0.8371 0.8028 0.757
1581.762 0.7247 0.6601 0.5605 0.5175 0.4814 0.39191 0.310002 0.2137 0.122 0.168
1620.341 0.33174 0.501 0.6484 0.7349 0.7724 0.7817 0.7609 0.7257 0.6927 0.7
1658.921 0.7096 0.6875 0.6809 0.6926 0.7072 0.7324 0.7636 0.8099 0.86 0.8991
1697.500 0.946 1.0094 1.0739 1.172 1.3025 1.435 1.605 1.825 2.055 2.295
1736.080 2.575 2.935 3.395 3.945 4.615 5.345 6.225 7.355 8.825 10.875
1774.659 13.315 15.315 16.415 16.565 16.045 15.905 16.635 17.775 18.605 18.395
1813.239 16.895 14.405 11.495 8.785 6.735 5.335 4.365 3.665 3.145 2.795
1851.819 2.475 2.195 1.945 1.735 1.545 1.385 1.251 1.1327 1.0253 0.9167
1890.398 0.8132 0.7375 0.6959 0.6534 0.622 0.6114 0.6001 0.5887 0.5688 0.5649
1928.978 0.5862 0.5718 0.5466 0.5502 0.5571 0.5678 0.5561 0.557 0.5798 0.5933
1967.557 0.5897 0.5799 0.5792 0.5757 0.5635 0.5283 0.5158 0.5308 0.5375 0.5364
2006.137 0.5505 0.5799 0.5675 0.5543 0.5587 0.5509 0.5366 0.5347 0.5735 0.5884
2044.716 0.5864 0.5914 0.5851 0.5557 0.5264 0.5254 0.5166 0.5116 0.4959 0.4756
2083.296 0.4721 0.4725 0.4837 0.4657 0.4403 0.424 0.4116 0.4145 0.4186 0.4358
2121.875 0.4363 0.411 0.4059 0.4252 0.4274 0.4233 0.4067 0.39167 0.39276 0.38165
2160.455 0.38117 0.38784 0.37108 0.377 0.36838 0.33974 0.35668 0.35904 0.3469 0.33877
2199.035 0.33626 0.33548 0.31859 0.32007 0.32103 0.32059 0.31759 0.3216 0.36786 0.3999
2237.614 0.4067 0.38111 0.36601 0.37114 0.38127 0.4166 0.4079 0.40151 0.4201 0.4303
2276.194 0.4444 0.4688 0.5051 0.5364 0.598 0.6669 0.7282 0.8204 0.8998 0.9527
2314.773 1.02 1.1336 1.1865 1.2014 1.2305 1.1976 1.1686 1.1573 1.1039 1.0836
2353.353 1.226 1.405 1.465 1.425 1.365 1.2338 1.0159 0.8032 0.6203 0.4743
2391.932 0.4071 0.37623 0.34286 0.33281 0.32615 0.313301 0.33728 0.36554 0.37213 0.36682
2430.512 0.36059 0.37132 0.37951 0.40366 0.4252 0.4248 0.437 0.4567 0.4739 0.4575
2469.092 0.4225 0.4033 0.4075 0.415 0.4064 0.3832 0.3856 0.36681 0.31873 0.3344
2507.671 0.36054 0.34709 0.338 0.34035 0.34609 0.3423 0.32116 0.306833 0.304828 0.304105
2546.251 0.31048 0.309875 0.306626 0.31813 0.30285 0.2867 0.2708 0.2459 0.2226 0.2192
2584.830 0.2359 0.2516 0.2568 0.2317 0.2268 0.2433 0.2315 0.2485 0.2635 0.2432
2623.410 0.2207 0.197 0.196 0.2094 0.2138 0.2365 0.2312 0.2065 0.2353 0.2276
2661.989 0.2151 0.176 0.183 0.2223 0.2092 0.226 0.214 0.2198 0.2191 0.2188
2700.569 0.2668 0.2386 0.2202 0.2574 0.2395 0.191 0.176 0.186 0.199 0.191
2739.148 0.197 0.2128 0.2223 0.2383 0.2233 0.2395 0.26 0.2531 0.2508 0.2618
2777.728 0.2711 0.2514 0.2255 0.2338 0.2502 0.247 0.2415 0.2362 0.2442 0.2437
2816.308 0.2316 0.282 0.313849 0.29659 0.32123 0.35478 0.38765 0.4197 0.4401 0.4987
2854.887 0.5205 0.5281 0.627 0.701 0.7122 0.6954 0.673 0.6675 0.672 0.6537
2893.467 0.6207 0.6672 0.7415 0.7874 0.884 0.9898 1.1152 1.315 1.515 1.665
2932.046 1.735 1.775 1.775 1.675 1.575 1.475 1.335 1.2646 1.234 1.2401
2970.626 1.1999 1.0631 0.9205 0.7942 0.6943 0.619 0.5546 0.5214 0.498 0.4921
3009.205 0.4778 0.4416 0.4496 0.4305 0.39219 0.38941 0.4069 0.4528 0.5453 0.6198
3047.785 0.7724 0.9837 1.1615 1.2844 1.2336 1.0538 0.8648 0.7261 0.6535 0.5758
3086.364 0.4957 0.4844 0.4772 0.4269 0.36508 0.37849 0.39387 0.39891 0.39901 0.37817
3124.944 0.37206 0.34353 0.30226 0.2692 0.236 0.194 0.185 0.158 0.137 0.13
3163.524 0.106 0.127 0.155 0.19 0.19 0.175 0.201 0.2171 0.173 0.131
3202.103 0.087 0.077 0.135 0.176 0.197 0.123 0.095 0.131 0.127 0.107
3240.683 0.091 0.101 0.125 0.106 0.085 0.152 0.149 0.124 0.15 0.162
3279.262 0.16 0.169 0.195 0.141 0.117 0.159 0.133 0.142 0.189 0.135
3317.842 0.107 0.151 0.136 0.099 0.118 0.131 0.096 0.091 0.142 0.167
3356.421 0.145 0.04 0 0.078 0.156 0.171 0.098 0.06 0.125 0.193
3395.001 0.188 0.168 0.109 0.117 0.135 0.153 0.193 0.165 0.146 0.144
3433.580 0.169 0.188 0.203 0.185 0.122 0.13 0.2168 0.2505 0.249 0.2834
3472.160 0.311482 0.306377 0.312778 0.36656 0.4056 0.4287 0.5134 0.6632 0.7827 0.8656
3510.740 1.0749 1.365 1.665 2.055 2.485 2.765 2.845 2.665 2.375 2.205
3549.319 2.125 2.215 2.615 3.345 4.605 6.475 8.085 8.695 7.935 6.245
3587.899 4.375 2.845 1.935 1.405 1.0533 0.857 0.7245 0.6414 0.5792 0.4741
3626.478 0.448 0.4541 0.34992 0.2868 0.2657 0.2613 0.308393 0.306408 0.2361 0.211
3665.058 0.206 0.164 0.119 0.137 0.192 0.2276 0.2288 0.177 0.135 0.142
3703.637 0.2059 0.2269 0.197 0.171 0.127 0.09 0.14 0.197 0.2376 0.2182
3742.217 0.167 0.178 0.121 0.088 0.112 0.115 0.154 0.175 0.186 0.132
3780.797 0.051 0.043 0.055 0.122 0.119 0.124 0.152 0.102 0.139 0.181
3819.376 0.124 0.12 0.157 0.166 0.154 0.134 0.19 0.181 0.126 0.122
3857.956 0.149 0.132 0.099 0.089 0.077 0.132 0.147 0.158 0.121 0.057
3896.535 0.071 0.042 0.034 0.05 0.076 0.141 0.166 0.142 0.112 0.136
3935.115 0.113 0.092 0.163 0.183 0.16 0.145 0.128 0.178 0.245 0.2151
3973.694 0.152 0.14 0.183 0.2477 0.2392 0.2112 0.139 0.096
##END=
