##TITLE=2-Acetoxyisobutyryl chloride
##JCAMP-DX=4.24
##DATA TYPE=INFRARED SPECTRUM
##ORIGIN=EPA-IR VAPOR PHASE LIBRARY
##OWNER=SRD/NIST
Collection (C) 2018 copyright by the U.S. Secretary of Commerce
on behalf of the United States of America. All rights reserved.
##CAS REGISTRY NO=40635-66-3
##MOLFORM=C 6 H 9 Cl O 3
##$NIST SOURCE=MSDC-IR
##STATE=gas
##XUNITS=1/CM
##YUNITS=ABSORBANCE
##XFACTOR=1.
##YFACTOR=0.001
##DELTAX=1.92898
##FIRSTX=549.8
##LASTX=4000.7
##FIRSTY=1.5159
##MAXX=4000.7
##MINX=549.759
##MAXY=0.03753
##MINY=0
##NPOINTS=1790
##XYDATA=(X++(Y..Y))
549.759 1.5159 0.673 1.2183 1.6896 1.29668 1.33211 1.7225 0.936 0.899 1.7532
569.049 2.48 2.2099 1.33151 1.9764 2.78 3.06 3.17 2.64 2.96 3.63
588.339 3.75 3.4 3.22 3.12 2.55 2.94 3.4 3.09 2.87 3.54
607.628 4.07 3.69 3.5 3.09 2.38 1.9276 2.2022 2.74 2.62 2.0114
626.918 2.037 2.34 1.9983 2.0471 2.4 3.1 3.77 3.96 3.97 3.7
646.208 3.06 3.52 4.36 4.34 4.43 4.95 5.12 4.33 4.1 3.64
665.498 3.14 3.05 2.45 2.6 2.46 1.7661 2.0025 2.2607 1.8928 2.13
684.787 2.69 2.65 2.34 2.33 2.34 2.79 3.01 2.68 2.67 2.76
704.077 2.66 2.2404 2.0216 2.3 2.42 1.6441 1.37716 1.8151 1.765 1.5978
723.367 1.6835 1.8097 1.953 1.7219 1.613 1.8434 1.7553 1.7336 2.1058 1.617
742.657 1.36379 1.6533 1.6303 2.1856 2.9 3.18 3.19 3.5 4.04 4.68
761.947 5.05 5.26 5.58 5.78 6.41 6.77 6.23 5.92 5.72 5.55
781.236 5.7 5.53 5.04 4.88 4.79 4.48 4.61 4.99 4.91 4.72
800.526 5.06 5.75 6.12 6.96 8.21 8.5 8.29 8.92 8.16 6.52
819.816 6.49 7.79 8.94 8.1 7.64 7.61 7.06 6.78 6.62 6.11
839.106 5.92 5.56 4.83 4.87 4.72 4.45 4.17 4.24 4.31 4.44
858.395 5.15 5.48 6.32 7.5 8.06 8.49 8.85 9.01 10.16 11.04
877.685 10.62 10.43 10.16 9.58 9.44 9.21 8.36 7.76 7.44 6.62
896.975 6.02 5.69 5.04 4.87 5.01 5.66 5.89 5.85 6.33 6.76
916.265 7.48 7.81 8.39 8.57 8.55 9.53 10.1 10.43 10.96 11.63
935.555 12.02 12.32 12.69 12.51 12.57 13.18 13.8 13.95 13.75 13.89
954.844 13.84 13.79 13.96 13.97 13.83 12.79 11.68 11.82 12.16 11.78
974.134 11.56 11.69 11.14 10.47 10.73 10.69 10.14 10.15 10.23 10.65
993.424 11.62 12.14 12.21 12.47 12.94 13.76 14.73 15.05 15.27 15.28
1012.714 15.06 14.86 14.38 14.34 14.01 13.34 12.77 11.73 10.22 9.44
1032.003 8.93 8.25 8.9 9.65 10.1 10.14 10.11 10.32 11.14 11.78
1051.293 11.21 11.65 12.5 12.31 11.91 11.34 10.89 10.84 10.2 8.77
1070.583 7.7 8.04 7.47 6.36 6.58 5.77 4.4 3.63 3.6 3.25
1089.873 1.4605 0.925 2.49 2.79 2.94 4 3.21 2.61 2.73 1.9748
1109.163 2.73 2.7 1.9485 2.54 3.03 3.11 2.37 2.5 3.54 3.34
1128.452 3.25 2.99 2.85 4.2 5.46 7.21 8.28 9.32 10.83 12.48
1147.742 13.59 16.33 19.82 21.54 24.1 26.02 27.77 29.39 29.95 30.09
1167.032 30.09 30.23 30.19 29.72 28.29 26.46 25.5 24.69 24.59 24.09
1186.322 22.92 21.97 20.79 20.9 19.76 18.03 17.08 15.37 14.47 13.38
1205.611 12.15 12.6 13 12.15 12.41 13.55 14.85 16.82 18.6 20.37
1224.901 20.9 22.11 24.64 26.8 29.42 29.78 30.67 32.79 32.21 30.19
1244.191 28.33 27.01 25.09 22.67 20.01 17.43 14.81 12.43 10.93 10.27
1263.481 10.33 9.93 8.96 9.23 10.23 10.14 10.08 10.64 10.83 11.05
1282.771 10.47 9.85 10.53 10.47 9.85 9.71 9.41 8.97 8.56 8.22
1302.060 7.62 6.97 6.74 6.18 5.64 5.35 5.02 4.76 4.51 4.26
1321.350 4.05 3.76 3.55 3.39 3.28 3.22 2.99 2.79 2.92 3.11
1340.640 3.28 3.54 3.56 3.88 4.09 4.23 4.94 5.73 6.43 7.27
1359.930 8.34 9.46 10.34 11.34 12.45 13.54 14.65 15.13 14.98 14.64
1379.219 14.15 13.56 12.95 12.11 11.16 10.26 9.31 8.55 8.1 7.43
1398.509 6.5 5.78 5.01 4.41 3.89 3.42 3.35 3.19 2.94 2.71
1417.799 2.7 2.96 2.97 2.88 3.06 3.11 3.1 3.2 3.19 3.3
1437.089 3.52 3.63 3.6 3.58 3.52 3.51 3.71 3.75 3.64 3.78
1456.378 3.87 3.84 4.07 4.34 4.43 4.35 4.19 4.17 4.15 3.95
1475.668 3.68 3.48 3.07 2.8 2.71 2.54 2.29 2.111 1.9468 1.7337
1494.958 1.6629 1.7379 1.8829 1.754 1.699 1.6815 1.6357 1.7649 1.7604 1.7544
1514.248 1.6871 1.8692 2.1599 2.0922 1.9332 1.8553 2.0678 2.1751 2.0283 2.2777
1533.538 2.41 2.47 2.92 3.36 3.57 3.68 3.73 3.76 3.87 3.89
1552.827 3.77 3.69 3.89 4.01 3.97 3.9 3.85 3.98 3.88 3.69
1572.117 3.34 3.01 3.15 3.01 2.73 2.46 2.46 2.46 2.1526 1.8336
1591.407 1.709 1.5079 1.2454 1.298 1.4205 1.8326 1.9451 1.7612 1.9033 1.8899
1610.697 1.5395 1.5039 1.6159 1.5861 1.7785 1.9098 1.7368 1.9969 2.2068 2.0356
1629.986 2.35 2.51 2.3 2.55 2.72 2.61 2.66 2.62 2.63 2.76
1649.276 2.95 2.97 3.23 3.51 3.55 3.97 4.25 4.23 4.55 4.76
1668.566 4.99 5.53 6.24 7.26 8.46 9.63 10.87 12.53 14.42 16.42
1687.856 18.72 20.94 22.98 24.73 26.49 28.12 29.21 29.92 30.15 30.21
1707.146 29.41 28.12 26.63 24.78 22.63 20.25 18.06 16.19 14.38 12.73
1726.435 11.23 10.01 9.17 8.43 7.88 7.62 7.53 7.71 7.96 8.6
1745.725 9.42 10.49 12.01 14.16 16.74 19.45 22.68 25.59 28.34 30.95
1765.015 33.59 36.15 37.53 36.65 33.55 30.66 28.25 25.71 23.38 21.07
1784.305 18.95 17.42 16.57 16.34 16.86 17.73 18.64 19.73 20.97 22.35
1803.594 23.41 24.22 24.88 25.29 25.3 24.67 23.9 23.06 22.3 21.69
1822.884 20.77 20.03 19.55 19.48 19.9 20.57 21.44 22.38 23.07 23.45
1842.174 23.95 24.17 24.22 24.21 23.46 22.43 21.42 19.98 17.96 15.72
1861.464 13.37 10.94 8.86 7.26 6.23 5.57 5.08 4.76 4.41 4.16
1880.754 3.94 3.87 3.8 3.69 3.54 3.5 3.48 3.23 3.24 3.31
1900.043 3.23 3.27 3.14 2.86 2.85 2.73 2.59 2.68 2.55 2.35
1919.333 2.49 2.39 2.1096 2.1925 2.1247 1.9968 1.9794 2.0061 2.2458 2.2002
1938.623 2.065 2.0788 1.971 1.8115 1.8798 1.8296 1.7668 1.6491 1.6936 1.8526
1957.913 1.8788 1.7972 1.7152 1.8955 1.8118 1.6955 1.7116 1.6034 1.5723 1.6057
1977.202 1.5852 1.6242 1.6403 1.5497 1.5086 1.6735 1.6267 1.5833 1.6737 1.6814
1996.492 1.7087 1.5014 1.30938 1.4672 1.6081 1.5398 1.4262 1.4551 1.4378 1.5684
2015.782 1.6522 1.4755 1.4184 1.33898 1.29759 1.4465 1.6688 1.693 1.5387 1.5236
2035.072 1.606 1.7055 1.5299 1.4683 1.691 1.7481 1.8605 1.7889 1.5202 1.4355
2054.362 1.4169 1.4496 1.5175 1.7083 1.9308 1.9423 1.9096 1.7353 1.7083 1.7708
2073.651 1.7918 1.8206 1.7024 1.7442 1.8305 1.7656 1.7093 1.65 1.5912 1.7262
2092.941 1.7006 1.6425 1.9035 1.8032 1.6096 1.6631 1.7513 1.839 1.8778 1.7085
2112.231 1.5405 1.5477 1.5385 1.7446 1.7214 1.5582 1.4234 1.4919 1.6134 1.5438
2131.521 1.5009 1.5476 1.6884 1.6866 1.6473 1.4535 1.5255 1.5749 1.36611 1.37561
2150.810 1.33119 1.4451 1.4003 1.4515 1.694 1.5835 1.38151 1.5063 1.5862 1.464
2170.100 1.5874 1.5312 1.5853 1.7592 1.7373 1.6752 1.6129 1.609 1.6552 1.5148
2189.390 1.5861 1.6607 1.5626 1.5853 1.6356 1.5218 1.5208 1.9119 1.9177 1.6859
2208.680 1.7031 1.7423 1.744 1.7358 1.7329 1.6196 1.5352 1.3065 1.183 1.4704
2227.970 1.607 1.5889 1.5317 1.36005 1.37195 1.6592 1.743 1.7181 1.7631 1.8771
2247.259 1.9817 1.8357 1.7615 1.7685 1.7845 1.7446 1.6535 1.8751 1.7472 1.36707
2266.549 1.4503 1.6649 1.6123 1.5039 1.6159 1.587 1.5756 1.7471 1.6581 1.5817
2285.839 1.5009 1.641 1.895 1.6953 1.6453 1.689 1.5743 1.55 1.6491 1.7198
2305.129 1.5392 1.4831 1.6507 1.5567 1.4816 1.643 1.7072 1.7167 1.8242 1.8217
2324.418 1.7764 1.7437 1.8132 1.9489 1.8209 1.7334 1.8116 1.9652 2.1099 2.0987
2343.708 2.0519 1.9044 1.9801 1.9632 1.8241 1.8799 1.7766 1.9385 2.0168 1.6631
2362.998 1.5 1.7281 1.705 1.537 1.6743 1.4189 1.1942 1.5203 1.8278 1.7742
2382.288 1.5481 1.5842 1.8431 1.8095 1.7346 1.5219 1.077 1.29095 1.5223 1.4451
2401.578 1.34352 1.3937 1.8559 1.8878 1.6319 1.6921 1.686 1.5785 1.5817 1.6172
2420.867 1.6229 1.6211 1.5318 1.4119 1.36386 1.4131 1.4907 1.6328 1.9832 2.0922
2440.157 1.8317 1.6383 1.5719 1.36661 1.2787 1.4101 1.4999 1.6315 1.8491 1.7058
2459.447 1.6497 2.0812 2.0194 1.6847 1.5425 1.5795 1.7844 1.8407 1.5984 1.5975
2478.737 1.6259 1.5878 1.5283 1.4296 1.3965 1.4006 1.6339 1.6702 1.5855 1.5801
2498.026 1.7542 1.8569 1.7822 1.5824 1.4525 1.5175 1.5423 1.5824 1.6156 1.6677
2517.316 1.7368 1.8203 1.7386 1.4996 1.6499 1.7889 1.6967 1.5694 1.5561 1.7303
2536.606 1.8017 1.5556 1.6007 2.0685 1.9044 1.4122 1.29705 1.35568 1.1966 1.33607
2555.896 1.7455 1.8522 1.8371 1.7626 1.9771 1.7859 1.30446 1.5164 1.5875 1.5308
2575.186 1.7006 1.8292 1.7717 1.8039 1.7139 1.6298 1.6871 1.6026 1.6393 2.0048
2594.475 2.2899 2.0987 1.8965 1.6969 1.7721 1.8592 1.4548 1.36419 1.5781 1.5872
2613.765 1.6216 1.5777 1.6353 1.7272 1.5705 1.4683 1.5377 1.6914 1.6231 1.53
2633.055 1.2956 1.30546 1.6675 1.7978 1.8959 1.9051 1.8465 1.8209 1.7382 1.626
2652.345 1.8976 2.101 1.8664 1.34139 1.35003 1.7365 1.5823 1.4539 1.7042 1.6678
2671.634 1.4811 1.7575 1.7049 1.6158 1.9771 1.8381 1.7316 1.8078 1.6291 1.6565
2690.924 1.5378 1.4872 1.5615 1.5681 1.7697 1.8024 2.1642 2.2356 1.6837 1.6833
2710.214 1.8769 1.9943 2.001 1.739 1.7757 1.9041 1.7834 1.7371 1.6925 1.596
2729.504 1.7893 1.8546 1.35859 1.34374 1.6048 1.634 1.6838 1.4365 1.5839 2.025
2748.794 1.98 1.7665 1.6949 1.7217 1.30398 1.118 1.34599 1.125 0.969 1.2688
2768.083 1.5031 1.5966 1.7718 1.829 1.9827 2.31 2.48 1.9255 1.19 1.36511
2787.373 1.9284 1.9477 1.714 1.8129 1.7603 1.5554 1.4772 1.279 1.4071 1.6436
2806.663 1.6326 1.734 1.7817 1.6373 1.8169 1.8728 1.8285 2.182 2 1.6752
2825.953 1.7475 1.6867 1.7849 2.1267 2.0742 2.07 2.0467 1.8198 2.0095 2.31
2845.242 2.1391 2.1822 2.34 1.8835 1.9949 2.34 1.9996 1.7572 2.093 2.55
2864.532 2.2801 2.0042 2.03 2.2705 2.64 2.31 2.1714 2.52 2.67 2.9
2883.822 2.7 2.34 2.47 2.43 2.3 2.2804 2.67 2.93 2.61 2.53
2903.112 2.76 2.6 2.44 2.71 2.73 2.62 2.59 2.8 3.04 2.75
2922.401 2.32 3 3.31 2.83 3.72 4.39 3.92 4.26 4.6 4.33
2941.691 4.85 5.21 5.21 5.43 5.74 5.46 4.78 4.97 5.27 5.06
2960.981 4.71 4.15 3.74 3.51 3.41 3.53 3.14 2.85 3.6 4.28
2980.271 4.17 4.33 4.52 5.15 5.84 6.35 7.42 7.96 8.26 8.64
2999.561 8.66 8.22 7.83 7.71 7.28 6.61 5.8 5.25 4.59 3.8
3018.850 4.02 4.06 3.46 3.2 2.99 2.97 3.08 2.9 2.74 2.48
3038.140 2.1747 2.133 2.5 2.82 2.78 2.89 2.78 2.2578 2.0625 2.0095
3057.430 2.1076 2.2029 2.0788 2.2503 2.39 2.39 2.1815 1.9855 2.45 2.79
3076.720 2.47 2.1573 1.6316 1.6612 1.9389 1.8766 1.9714 2.2033 2.2588 1.9764
3096.009 1.4178 1.5191 2.0622 2.32 2.1662 1.7957 1.4306 1.5023 2.084 1.8598
3115.299 1.89 2.35 2.0898 1.151 1.073 1.973 2.3 2.1257 2.3 2.34
3134.589 2.2858 2.1164 1.8352 1.8588 2.0067 2.2364 1.932 1.8539 2.54 2.33
3153.879 1.7577 1.7554 1.7927 2.1028 1.8149 1.451 1.6595 2.1282 2.33 1.8179
3173.169 1.486 2.1604 2.42 1.7792 1.7835 1.8262 1.5761 1.6876 1.5925 1.5004
3192.458 1.5208 1.896 2.2201 1.9232 1.6794 1.5974 1.7642 1.7026 1.9935 2.1242
3211.748 1.7811 1.8569 1.4781 1.5306 1.7231 1.7028 1.9615 1.6503 1.6191 1.7209
3231.038 1.4465 1.7975 1.9388 1.8099 2.004 1.8956 1.5953 1.3669 1.5694 1.4081
3250.328 1.2499 1.6556 1.5581 1.4582 2.0296 2.0144 1.403 1.2417 1.8923 2.1442
3269.617 1.6077 1.5441 1.503 1.4308 1.8987 2.094 1.8258 1.569 1.4832 1.5643
3288.907 1.4973 1.5102 1.8995 2.0876 2.1939 1.9466 1.33734 1.6196 1.8904 1.4056
3308.197 1.3957 1.6298 1.9689 1.5561 1.37173 1.9497 1.7777 1.4692 1.217 1.4219
3327.487 1.9663 1.7341 1.5423 1.603 1.094 1.218 1.261 1.183 1.4488 1.34088
3346.777 1.29507 1.5005 1.2539 0.998 1.182 1.37528 1.8814 1.9082 1.7626 1.7901
3366.066 1.5681 1.4142 1.2114 1.187 1.2792 1.539 1.4346 1.38513 1.5698 1.31159
3385.356 1.5854 1.6563 1.098 1.078 1.29853 1.30779 1.132 1.348 1.8441 1.093
3404.646 0.98 1.3933 1.4152 1.646 1.187 1.136 1.8221 1.7031 1.4688 1.4758
3423.936 1.2301 1.171 1.38495 1.119 0.635 0.863 1.08 1.117 0.965 0.701
3443.225 1.124 1.35929 1.074 1.37024 1.5274 1.36234 1.075 0.775 1.148 1.28035
3462.515 1.105 1.37657 1.4919 1.4267 1.4783 1.8023 1.798 1.5083 1.4123 1.2223
3481.805 1.01 1.015 0.966 0.957 1.2349 1.148 1.5461 2.1436 2.098 1.9262
3501.095 2.2126 2.32 2.0518 1.978 1.691 1.35048 1.5053 2.0632 1.5832 1.30958
3520.385 1.7826 1.8588 1.7315 1.4769 1.442 1.4034 1.4342 1.5292 1.5778 1.5753
3539.674 1.4547 1.5828 1.758 1.30735 1.172 1.6719 1.6103 1.2789 1.30631 1.30136
3558.964 1.5601 1.9306 1.8482 1.7381 1.4973 1.6219 1.38924 1.5939 1.8137 1.6133
3578.254 1.8449 1.4756 0.997 1.504 1.8938 1.9156 1.9983 1.7654 1.724 1.5108
3597.544 1.37148 1.37023 1.2282 1.38689 1.8556 2.29 2.43 1.8249 1.5024 1.6523
3616.833 1.9793 1.7999 1.4583 1.6408 1.33272 0.934 0.917 0.98 1.2659 1.28818
3636.123 1.044 0.746 0.856 1.196 1.175 1.28199 1.29548 1.071 1.2017 1.524
3655.413 1.4333 1.4225 0.979 0.857 1.2577 1.4799 1.7537 1.7151 1.2716 1.163
3674.703 1.6586 1.8093 1.3958 1.018 0.998 1.093 1.28372 0.997 1.074 1.8424
3693.993 1.7357 1.34478 1.36641 1.4958 1.515 1.4803 1.506 1.30272 1.37434 1.778
3713.282 1.7571 1.2113 0.98 1.182 0.967 1.29264 1.4556 0.886 0.518 0.906
3732.572 1.6029 2.0539 2.0387 1.8065 1.7841 1.429 0.847 1.013 1.3976 0.899
3751.862 0.657 1.2195 1.177 0.876 1.5262 1.4207 0.986 1.4323 1.6284 1.35083
3771.152 1.3934 1.2495 0.807 1.4985 1.6911 1.145 0.503 0.26 0.79 0.879
3790.441 1.4366 1.7233 1.5334 1.6923 1.4934 1.023 0.589 0.371 0.867 1.2172
3809.731 0.819 0.845 1.152 1.6456 1.9348 1.7222 1.094 1.30211 1.9298 1.4939
3829.021 0.974 1.043 1.46 1.5474 1.142 0.822 0.845 0.663 0.92 1.2049
3848.311 0.964 0.533 0.329 0.503 0.996 1.37881 1.462 1.141 0.484 1.01
3867.601 1.4261 1.051 1.123 1.2401 1.163 1.116 1.33168 1.29416 0.833 1.035
3886.890 1.34381 1.028 0.764 0.886 0.378 0 0.395 0.742 1.502 1.32642
3906.180 1.167 1.6521 1.6055 1.7978 1.7592 1.168 1.35462 1.4616 1.5631 1.8193
3925.470 0.829 0.522 0.994 0.922 0.76 1.052 1.112 0.543 0.907 1.6827
3944.760 1.9361 2.0677 1.4193 0.999 1.34412 1.5595 1.2072 0.713 1.128 1.6569
3964.049 1.183 0.637 1.057 1.041 0.684 0.818 0.946 1.078 1.3605 1.681
3983.339 1.7476 2.238 2.2827 1.6243 1.2238 1.30338 0.871 0.372 1.2447 1.5905
##END=
