##TITLE=4-Propylcyclohexanone
##JCAMP-DX=4.24
##DATA TYPE=INFRARED SPECTRUM
##ORIGIN=EPA-IR VAPOR PHASE LIBRARY
##OWNER=SRD/NIST
Collection (C) 2018 copyright by the U.S. Secretary of Commerce
on behalf of the United States of America. All rights reserved.
##CAS REGISTRY NO=40649-36-3
##MOLFORM=C 9 H 16 O
##$NIST SOURCE=MSDC-IR
##STATE=gas
##XUNITS=1/CM
##YUNITS=ABSORBANCE
##XFACTOR=1.
##YFACTOR=0.001
##DELTAX=1.92898
##FIRSTX=549.8
##LASTX=4000.7
##FIRSTY=0.35569
##MAXX=4000.7
##MINX=549.759
##MAXY=0.125091
##MINY=0
##NPOINTS=1790
##XYDATA=(X++(Y..Y))
549.759 0.35569 0.5111 0.654 0.4606 0.36621 0.5106 0.35402 0.22 0.198 0.117
569.049 0.181 0.2149 0.310774 0.34674 0.2654 0.145 0 0.166 0.32873 0.2312
588.339 0.067 0.2418 0.2184 0.2243 0.2496 0.132 0.185 0.2632 0.2382 0.16
607.628 0.4045 0.2312 0.014 0.2674 0.29395 0.204 0.2298 0.38464 0.4572 0.32611
626.918 0.31792 0.4144 0.4897 0.4489 0.4482 0.35275 0.085 0.042 0.2112 0.2904
646.208 0.2075 0.132 0.2452 0.29385 0.36716 0.4142 0.196 0.113 0.184 0.38445
665.498 0.5583 0.7786 0.812 0.6819 0.5934 0.5532 0.6623 0.6728 0.785 0.7861
684.787 0.7291 0.7727 0.6618 0.5556 0.4865 0.5712 0.6801 0.5617 0.5647 0.6551
704.077 0.5449 0.5725 0.691 0.7178 0.8236 0.8851 1.1742 1.411 1.451 1.751
723.367 1.931 2.071 2.371 2.651 2.891 3.071 3.241 3.521 3.781 3.751
742.657 3.621 3.421 3.301 3.231 2.941 2.551 2.301 2.221 2.111 1.851
761.947 1.611 1.461 1.2779 1.0992 0.9252 0.8054 0.8889 0.919 0.9702 1.0176
781.236 0.858 1.0364 1.0672 1.0309 1.0586 0.8813 0.9495 1.0874 0.994 0.9216
800.526 1.0093 0.9448 0.8952 1.028 1.2258 1.2512 1.431 1.621 1.671 1.661
819.816 1.541 1.571 1.501 1.401 1.341 1.381 1.351 1.0576 0.8318 0.9104
839.106 1.0756 1.1356 1.0223 0.8846 0.8877 0.8989 1.0804 1.311 1.2114 1.1205
858.395 1.331 1.391 1.431 1.601 1.741 1.901 2.011 2.121 2.371 2.451
877.685 2.651 2.841 2.581 2.451 2.401 2.281 2.251 2.191 2.081 2.111
896.975 2.091 1.711 1.431 1.421 1.311 1.2326 1.2771 1.481 1.511 1.431
916.265 1.401 1.421 1.591 1.601 1.751 1.941 2.101 2.501 2.751 3.031
935.555 3.351 3.501 3.801 4.081 4.161 4.161 4.121 4.181 4.001 3.781
954.844 3.601 3.111 3.031 2.831 2.341 2.081 1.751 1.371 1.2931 1.2861
974.134 1.2635 1.0964 0.8894 0.9729 1.1144 1.1656 1.0144 0.9653 0.9775 1.0531
993.424 1.2212 1.321 1.361 1.541 1.641 1.661 1.681 1.731 1.751 1.651
1012.714 1.581 1.421 1.361 1.1247 1.0427 1.391 1.531 1.421 1.411 1.1823
1032.003 0.9634 1.341 1.311 1.0539 1.321 1.321 1.2088 1.411 1.761 2.011
1051.293 2.051 2.191 2.331 2.481 2.401 2.261 2.351 2.701 3.131 3.301
1070.583 3.551 3.601 3.421 3.111 3.051 3.301 2.971 2.521 2.481 2.331
1089.873 2.361 2.841 3.051 2.941 3.291 4.011 4.211 4.521 4.781 5.021
1109.163 5.641 6.421 7.031 7.441 7.651 8.111 8.161 7.841 7.761 7.181
1128.452 6.881 6.881 6.511 5.741 5.281 5.061 4.801 4.401 4.261 4.341
1147.742 4.571 5.041 5.321 5.871 6.411 7.091 8.121 8.941 9.491 10.001
1167.032 10.321 10.181 9.901 9.791 9.531 8.991 8.421 7.991 7.591 6.911
1186.322 6.051 5.491 4.961 4.701 4.731 4.181 3.691 3.701 3.401 3.541
1205.611 3.971 3.691 3.471 3.671 3.941 3.951 4.101 4.251 4.531 5.121
1224.901 5.531 5.951 6.271 6.461 6.461 6.391 6.431 6.491 6.391 6.131
1244.191 6.001 5.801 5.231 4.911 4.701 4.261 3.891 3.511 3.261 3.211
1263.481 3.011 2.791 2.571 2.361 2.421 2.441 2.351 2.301 2.391 2.541
1282.771 2.591 2.641 2.701 2.871 3.201 3.461 3.731 4.001 4.221 4.441
1302.060 4.701 5.031 5.411 5.761 6.051 6.361 6.751 7.091 7.401 7.701
1321.350 7.931 8.141 8.211 8.131 8.031 7.911 7.701 7.481 7.171 6.781
1340.640 6.341 5.941 5.571 5.141 4.761 4.411 4.131 3.851 3.631 3.491
1359.930 3.331 3.251 3.261 3.221 3.171 3.111 3.181 3.371 3.511 3.641
1379.219 3.791 3.791 3.791 3.851 3.831 3.821 3.771 3.671 3.581 3.571
1398.509 3.601 3.701 3.891 4.171 4.521 5.001 5.561 6.151 6.881 7.591
1417.799 8.251 8.981 9.621 10.091 10.571 11.091 11.541 11.821 11.941 11.901
1437.089 11.781 11.671 11.611 11.601 11.661 11.771 11.841 11.811 11.921 12.171
1456.378 12.361 12.381 12.211 11.951 11.581 11.021 10.351 9.611 8.871 8.071
1475.668 7.261 6.501 5.791 5.081 4.441 3.921 3.461 3.051 2.691 2.461
1494.958 2.301 2.051 1.841 1.691 1.581 1.521 1.401 1.301 1.2855 1.2315
1514.248 1.2384 1.1914 1.1221 1.1861 1.2163 1.1558 1.1138 1.1152 1.1292 1.1004
1533.538 1.126 1.1248 1.0526 0.9873 0.9675 1.0089 0.9978 0.9814 0.9941 1.004
1552.827 0.9468 0.9534 0.9835 0.9808 1.0026 0.9327 0.8947 0.9666 0.983 0.9149
1572.117 0.9505 1.0477 1.0438 1.0132 1.0438 1.0218 0.954 0.9339 0.9569 0.9626
1591.407 0.9538 0.9408 0.9864 0.9777 0.9177 0.945 0.9862 0.9387 0.8542 0.8815
1610.697 0.9227 0.9571 0.9951 1.0303 1.1405 1.1823 1.183 1.2597 1.341 1.401
1629.986 1.461 1.521 1.631 1.711 1.711 1.811 1.931 1.981 2.121 2.291
1649.276 2.461 2.651 2.791 2.921 3.101 3.191 3.281 3.481 3.681 3.841
1668.566 4.041 4.271 4.501 4.781 5.191 5.551 5.871 6.331 6.851 7.251
1687.856 7.731 8.191 8.601 9.081 9.641 10.141 10.701 11.431 12.211 13.361
1707.146 14.821 16.691 19.261 22.621 27.281 33.691 42.571 53.631 67.391 82.961
1726.435 98.361 111.241 119.981 124.241 125.091 122.991 116.901 105.191 89.031 71.141
1745.725 55.231 42.891 33.861 27.181 22.301 18.631 15.751 13.521 11.691 10.181
1765.015 8.981 8.001 7.181 6.551 5.981 5.511 5.101 4.711 4.391 4.151
1784.305 3.931 3.721 3.541 3.351 3.221 3.071 2.891 2.771 2.661 2.541
1803.594 2.481 2.411 2.321 2.241 2.221 2.171 2.051 2.011 1.941 1.811
1822.884 1.741 1.691 1.571 1.441 1.371 1.321 1.2521 1.1678 1.1038 1.0294
1842.174 1.0061 1.0144 0.953 0.9202 0.9044 0.8936 0.8768 0.8331 0.8516 0.8852
1861.464 0.8621 0.8296 0.8306 0.8789 0.8542 0.7923 0.7611 0.7617 0.7701 0.7372
1880.754 0.6559 0.6374 0.7176 0.7537 0.7331 0.696 0.6897 0.6849 0.6485 0.6523
1900.043 0.687 0.699 0.6836 0.6822 0.7737 0.8127 0.755 0.7374 0.772 0.7513
1919.333 0.7276 0.7243 0.7256 0.6925 0.6485 0.6406 0.6591 0.6373 0.5979 0.5587
1938.623 0.5122 0.5511 0.5855 0.5742 0.5521 0.5294 0.5129 0.5348 0.5717 0.6017
1957.913 0.5816 0.5427 0.5446 0.5662 0.5191 0.4925 0.514 0.5031 0.525 0.5867
1977.202 0.5696 0.5535 0.6082 0.5829 0.548 0.5642 0.5662 0.5533 0.5807 0.6066
1996.492 0.5548 0.5143 0.5495 0.6156 0.635 0.5713 0.5324 0.5847 0.5971 0.5345
2015.782 0.5063 0.4897 0.4965 0.561 0.6005 0.5779 0.566 0.5797 0.5818 0.6035
2035.072 0.6424 0.606 0.5442 0.5523 0.6068 0.6535 0.6778 0.6762 0.6826 0.6829
2054.362 0.6888 0.6939 0.6494 0.6476 0.6935 0.7153 0.6773 0.6519 0.6648 0.6239
2073.651 0.6106 0.657 0.6885 0.6405 0.5908 0.5723 0.5611 0.5758 0.5555 0.5304
2092.941 0.5105 0.491 0.4929 0.4664 0.4609 0.4729 0.4593 0.4613 0.5052 0.5046
2112.231 0.5011 0.508 0.5265 0.5398 0.5256 0.5056 0.4815 0.4742 0.4648 0.4981
2131.521 0.5327 0.5117 0.5043 0.5323 0.5699 0.5988 0.5818 0.5916 0.5668 0.5581
2150.810 0.5794 0.5763 0.5931 0.5935 0.5515 0.5309 0.548 0.594 0.6148 0.5979
2170.100 0.6213 0.64 0.6309 0.5963 0.5351 0.4974 0.533 0.5888 0.607 0.6178
2189.390 0.6123 0.5802 0.5849 0.5589 0.5555 0.6232 0.6722 0.6587 0.6333 0.6227
2208.680 0.6071 0.5761 0.5586 0.572 0.5561 0.5572 0.5924 0.6611 0.6453 0.6317
2227.970 0.6475 0.5958 0.5882 0.6198 0.6259 0.6664 0.6985 0.6453 0.6179 0.6001
2247.259 0.583 0.6035 0.6306 0.6194 0.646 0.6743 0.6178 0.6192 0.6306 0.6047
2266.549 0.5702 0.5433 0.5648 0.5708 0.5402 0.5236 0.5229 0.5147 0.5088 0.5281
2285.839 0.5576 0.5184 0.4715 0.5196 0.5684 0.4842 0.4725 0.587 0.5921 0.5629
2305.129 0.5524 0.603 0.6419 0.6182 0.5982 0.5896 0.6265 0.6033 0.5604 0.6329
2324.418 0.6339 0.5581 0.5918 0.5625 0.5483 0.6063 0.609 0.6019 0.5859 0.5928
2343.708 0.6048 0.6143 0.5997 0.615 0.5918 0.5627 0.6068 0.6414 0.6243 0.5829
2362.998 0.6221 0.6181 0.5421 0.5761 0.6276 0.6678 0.6927 0.6299 0.6197 0.5836
2382.288 0.5532 0.597 0.6074 0.6061 0.6726 0.757 0.7034 0.6359 0.6714 0.7455
2401.578 0.7689 0.69 0.6417 0.7197 0.722 0.7384 0.7401 0.571 0.5239 0.553
2420.867 0.5946 0.6104 0.5834 0.5927 0.6045 0.5556 0.5332 0.6296 0.6937 0.6734
2440.157 0.6315 0.5627 0.4924 0.5014 0.5697 0.621 0.5874 0.574 0.5722 0.5763
2459.447 0.5545 0.4802 0.4805 0.5133 0.5477 0.565 0.5418 0.5051 0.4884 0.4882
2478.737 0.5001 0.5303 0.5288 0.5091 0.5611 0.6191 0.6354 0.6344 0.5988 0.567
2498.026 0.5743 0.5935 0.5759 0.5767 0.5856 0.5412 0.5795 0.6317 0.6446 0.5864
2517.316 0.5771 0.5701 0.5458 0.5522 0.5741 0.6145 0.5704 0.5934 0.6535 0.6869
2536.606 0.7192 0.676 0.6802 0.7972 0.7749 0.7348 0.7951 0.8001 0.7376 0.6943
2555.896 0.7283 0.8382 0.818 0.7508 0.7334 0.7332 0.8094 0.8881 0.9632 0.9387
2575.186 0.8215 0.716 0.7593 0.8346 0.8374 0.8661 0.8549 0.8545 0.9297 0.9556
2594.475 0.9761 0.9292 0.94 0.9872 0.9426 0.9684 0.9788 0.952 0.9659 0.9959
2613.765 1.0264 1.0677 1.0588 1.0437 1.1445 1.2225 1.2098 1.2255 1.2061 1.1988
2633.055 1.2214 1.2281 1.1988 1.209 1.2366 1.2542 1.301 1.311 1.2857 1.2251
2652.345 1.2453 1.321 1.391 1.431 1.361 1.411 1.501 1.421 1.351 1.371
2671.634 1.461 1.531 1.511 1.491 1.511 1.511 1.451 1.481 1.521 1.501
2690.924 1.501 1.481 1.451 1.461 1.441 1.441 1.511 1.541 1.541 1.521
2710.214 1.511 1.531 1.521 1.531 1.541 1.541 1.561 1.521 1.521 1.491
2729.504 1.481 1.531 1.591 1.701 1.731 1.811 1.821 1.811 1.901 1.891
2748.794 1.821 1.891 1.941 1.871 1.871 1.871 1.821 1.841 1.851 1.821
2768.083 1.861 1.931 1.931 1.971 2.091 2.141 2.221 2.221 2.191 2.351
2787.373 2.461 2.581 2.691 2.771 2.891 2.931 2.991 3.151 3.261 3.321
2806.663 3.411 3.591 3.781 3.891 4.091 4.351 4.641 4.961 5.211 5.531
2825.953 5.991 6.451 6.901 7.451 8.071 8.741 9.581 10.421 11.381 12.681
2845.242 14.081 15.661 17.421 19.331 21.481 23.951 26.521 29.001 31.361 33.411
2864.532 35.411 37.201 38.591 39.611 40.121 40.381 40.501 40.321 39.881 39.251
2883.822 38.401 37.581 37.041 36.611 36.341 36.281 36.611 37.391 38.601 40.201
2903.112 41.971 44.091 46.511 49.161 51.791 54.271 56.881 59.651 62.611 65.821
2922.401 69.381 73.101 76.861 80.541 83.471 85.631 87.101 87.671 87.301 85.921
2941.691 83.911 81.431 78.181 74.601 71.341 68.461 66.161 64.741 64.321 64.931
2960.981 66.501 68.481 69.861 70.211 69.131 66.801 63.661 59.361 53.721 47.121
2980.271 39.961 33.211 27.501 22.861 19.201 16.211 13.861 11.911 10.331 9.201
2999.561 8.361 7.631 7.051 6.541 6.001 5.731 5.561 5.301 5.001 4.731
3018.850 4.671 4.581 4.291 4.091 4.051 3.931 3.781 3.661 3.561 3.491
3038.140 3.371 3.171 3.031 2.921 2.771 2.671 2.611 2.571 2.551 2.491
3057.430 2.381 2.291 2.241 2.181 2.191 2.111 1.971 2.001 2.001 1.921
3076.720 1.821 1.831 1.831 1.771 1.781 1.691 1.591 1.561 1.601 1.641
3096.009 1.531 1.421 1.471 1.501 1.431 1.531 1.581 1.441 1.391 1.381
3115.299 1.2841 1.2513 1.2704 1.2365 1.2079 1.1978 1.2181 1.2501 1.2755 1.1928
3134.589 1.1119 1.1536 1.0946 1.0762 1.0061 1.0162 1.0522 0.9581 1.0241 1.0282
3153.879 1.0035 0.9708 0.9746 0.9355 0.8029 0.7789 0.7805 0.8596 0.8793 0.9081
3173.169 0.9936 0.9473 0.8553 0.8734 0.8707 0.7974 0.8529 0.9463 0.9784 1.0167
3192.458 0.9125 0.776 0.8236 0.8117 0.716 0.7176 0.7156 0.686 0.6137 0.5596
3211.748 0.7169 0.7559 0.6421 0.5422 0.6274 0.5934 0.6404 0.7229 0.532 0.5149
3231.038 0.6084 0.6936 0.637 0.56 0.5178 0.4683 0.4907 0.4804 0.4848 0.5134
3250.328 0.428 0.4226 0.5299 0.5502 0.5213 0.5401 0.5976 0.5847 0.5511 0.5733
3269.617 0.5693 0.5078 0.4496 0.4128 0.4318 0.4052 0.37456 0.38616 0.307847 0.39803
3288.907 0.4987 0.4581 0.4547 0.5483 0.6436 0.5663 0.4718 0.5244 0.5336 0.5576
3308.197 0.5524 0.4043 0.4669 0.5524 0.501 0.4898 0.5592 0.5433 0.5201 0.6251
3327.487 0.5377 0.4503 0.4914 0.592 0.6325 0.5719 0.4511 0.4686 0.4901 0.5029
3346.777 0.5633 0.5242 0.559 0.4578 0.5282 0.7542 0.7219 0.6369 0.6725 0.7155
3366.066 0.6505 0.4601 0.4063 0.566 0.6791 0.6538 0.6664 0.6776 0.7547 0.7487
3385.356 0.7592 0.8097 0.7817 0.7747 0.6299 0.6069 0.7015 0.6584 0.6327 0.769
3404.646 0.8432 0.8602 0.7494 0.7107 0.7128 0.7475 0.9232 0.823 0.7862 0.9983
3423.936 1.1003 1.1559 1.311 1.341 1.421 1.641 1.751 1.741 1.861 1.951
3443.225 1.901 2.051 2.211 2.311 2.271 2.201 2.091 1.891 1.781 1.701
3462.515 1.731 1.601 1.2335 1.011 0.9677 0.8137 0.732 0.8041 0.6773 0.6633
3481.805 0.801 0.7604 0.6468 0.5769 0.6843 0.6834 0.5746 0.6118 0.5144 0.4321
3501.095 0.4114 0.37075 0.4834 0.38163 0.32595 0.307286 0.172 0.26 0.4407 0.4244
3520.385 0.35402 0.4332 0.39185 0.38355 0.39156 0.3315 0.4025 0.39585 0.2737 0.2858
3539.674 0.452 0.4746 0.4699 0.4551 0.3414 0.2701 0.31636 0.36477 0.32401 0.3484
3558.964 0.3827 0.4238 0.36633 0.3328 0.33104 0.2352 0.2655 0.4198 0.4605 0.446
3578.254 0.4987 0.5276 0.5132 0.4962 0.5603 0.5524 0.37717 0.29284 0.4635 0.5314
3597.544 0.4104 0.38275 0.4379 0.5648 0.5586 0.4356 0.39762 0.31921 0.310869 0.38619
3616.833 0.4828 0.422 0.4063 0.502 0.4528 0.5593 0.5981 0.5509 0.5027 0.527
3636.123 0.519 0.39388 0.305385 0.33474 0.5093 0.6116 0.6029 0.6555 0.6919 0.6036
3655.413 0.5399 0.4266 0.39716 0.4103 0.5205 0.5944 0.4896 0.5267 0.6234 0.5729
3674.703 0.5306 0.5437 0.4716 0.6344 0.6908 0.4664 0.4137 0.4171 0.37227 0.39043
3693.993 0.484 0.5666 0.4849 0.5114 0.5376 0.39856 0.4126 0.548 0.5564 0.4265
3713.282 0.4052 0.5147 0.5283 0.5166 0.5214 0.34167 0.2568 0.38552 0.39223 0.4455
3732.572 0.5847 0.592 0.4995 0.4154 0.4553 0.5514 0.5627 0.54 0.5418 0.6295
3751.862 0.6239 0.6074 0.6412 0.5884 0.4577 0.36921 0.4905 0.6178 0.6297 0.6262
3771.152 0.5155 0.3571 0.435 0.464 0.4272 0.4548 0.4658 0.4336 0.5447 0.6696
3790.441 0.703 0.7409 0.5331 0.4958 0.705 0.7055 0.6328 0.6003 0.5778 0.5724
3809.731 0.7899 0.7689 0.4216 0.4398 0.4492 0.4084 0.427 0.36627 0.39712 0.34319
3829.021 0.421 0.6026 0.6282 0.5613 0.4339 0.4906 0.5327 0.35892 0.38846 0.5123
3848.311 0.4388 0.39195 0.5995 0.7638 0.6001 0.513 0.4259 0.37214 0.5599 0.6205
3867.601 0.5517 0.491 0.5206 0.5674 0.5189 0.36921 0.4505 0.549 0.4674 0.4891
3886.890 0.38936 0.5058 0.6965 0.5249 0.4939 0.5333 0.4942 0.6056 0.6851 0.6354
3906.180 0.5596 0.6043 0.6237 0.6437 0.6394 0.5804 0.5849 0.5642 0.6271 0.5649
3925.470 0.4265 0.5511 0.802 0.8613 0.6903 0.6012 0.6767 0.783 0.7229 0.6548
3944.760 0.6751 0.6936 0.5465 0.5727 0.7419 0.759 0.7642 0.6304 0.5653 0.5873
3964.049 0.5681 0.5821 0.7034 0.7085 0.7025 0.8029 0.6763 0.6576 0.8326 0.776
3983.339 0.7032 0.7938 0.7491 0.61 0.5402 0.5351 0.6034 0.7135 0.7095 0.5292
##END=
