##TITLE=2-Fluoro-6-methylpyridine
##JCAMP-DX=4.24
##DATA TYPE=INFRARED SPECTRUM
##ORIGIN=EPA-IR VAPOR PHASE LIBRARY
##OWNER=SRD/NIST
Collection (C) 2018 copyright by the U.S. Secretary of Commerce
on behalf of the United States of America. All rights reserved.
##CAS REGISTRY NO=407-22-7
##MOLFORM=C 6 H 6 F N
##$NIST SOURCE=MSDC-IR
##STATE=gas
##XUNITS=1/CM
##YUNITS=ABSORBANCE
##XFACTOR=1.
##YFACTOR=0.001
##DELTAX=1.929
##FIRSTX=549.8
##LASTX=4000.8
##FIRSTY=3.244
##MAXX=4000.75
##MINX=549.766
##MAXY=0.061304
##MINY=0
##NPOINTS=1790
##XYDATA=(X++(Y..Y))
549.766 3.244 3.694 3.834 3.154 2.804 2.834 2.684 2.294 1.904 1.384
569.056 1.0155 0.62324 0.5271 0.7558 0.676 0.64283 0.6548 0.62104 0.5201 0.288
588.346 0.2 0.4705 0.377 0.206 0.305 0.4665 0.560899 0.4908 0.5394 0.5432
607.636 0.448 0.4788 0.5239 0.5288 0.4848 0.4799 0.59288 0.58285 0.6766 0.7652
626.926 0.8056 0.7446 0.57049 0.449 0.368 0.407 0.56797 0.7095 0.60991 0.407
646.216 0.304 0.447 0.554065 0.58075 0.553418 0.57494 0.58665 0.4648 0.5193 0.63479
665.506 0.64744 0.63536 0.64008 0.4987 0.447 0.4619 0.451 0.561823 0.59747 0.65061
684.796 0.6339 0.5772 0.6907 0.7291 0.7676 1.057 1.2963 1.3888 1.614 1.914
704.086 2.284 2.804 3.204 3.704 4.374 4.954 5.394 5.714 5.814 5.764
723.376 6.024 7.004 7.344 6.614 6.004 5.664 5.154 4.634 4.204 3.704
742.666 3.274 2.934 2.704 2.434 2.294 2.324 2.404 2.634 3.044 3.734
761.956 4.684 5.734 6.844 8.164 9.604 10.944 12.124 13.314 14.634 16.424
781.246 18.354 20.964 25.584 32.084 33.414 24.714 17.294 15.674 14.994 14.274
800.536 13.464 12.644 11.364 9.694 8.034 6.604 5.224 3.654 2.674 2.194
819.826 1.764 1.4044 1.1591 1.0296 0.9776 0.9564 0.8362 0.63339 0.6359 0.7063
839.116 0.7285 0.7613 0.6879 0.60888 0.63323 0.71 0.7164 0.7302 0.7943 0.854
858.406 0.8669 0.8008 0.7077 0.7868 0.809 0.7538 0.8999 1.0112 0.9513 0.8369
877.696 0.7244 0.7543 0.8126 0.8111 0.7673 0.6955 0.7216 0.7938 0.8563 0.8499
896.986 0.7669 0.7909 0.8504 0.9514 1.084 1.1741 1.3113 1.4384 1.564 1.914
916.276 2.314 2.754 3.464 4.174 4.794 5.454 5.924 6.104 6.224 6.254
935.566 6.334 6.314 6.064 6.034 6.134 5.954 5.394 4.564 3.724 3.064
954.856 2.664 2.434 2.384 2.544 2.754 2.964 3.234 3.614 4.134 4.734
974.146 5.404 5.914 6.224 6.574 6.764 6.764 6.934 7.144 7.004 6.714
993.436 6.774 6.904 6.644 6.094 5.494 5.014 4.804 4.794 4.744 4.764
1012.726 4.784 4.704 4.614 4.474 4.314 4.104 3.954 3.864 3.784 3.634
1032.016 3.464 3.234 2.934 2.684 2.534 2.434 2.314 2.214 2.224 2.284
1051.306 2.304 2.294 2.344 2.384 2.334 2.394 2.494 2.504 2.564 2.804
1070.596 2.974 3.134 3.224 3.154 3.044 2.944 2.824 2.894 3.044 3.054
1089.886 2.984 2.794 2.574 2.364 2.064 1.824 1.724 1.554 1.413 1.3361
1109.176 1.225 1.1955 1.1154 0.9752 0.9823 0.9776 1.0357 1.077 1.1184 1.2193
1128.467 1.2901 1.4805 1.754 2.044 2.234 2.264 2.224 2.224 2.384 2.494
1147.757 2.264 2.054 2.064 2.094 2.004 1.744 1.5418 1.2744 1.1054 1.0266
1167.047 0.9124 0.8466 0.7711 0.7986 0.8537 0.8505 0.823 0.8988 0.8824 0.8212
1186.337 0.9518 0.9788 1.008 1.0474 1.0094 1.1395 1.3649 1.564 2.024 2.664
1205.627 3.464 4.714 6.254 8.014 10.064 12.304 14.434 16.194 17.284 17.744
1224.917 17.984 18.724 19.724 19.474 18.714 18.984 19.054 17.984 16.104 13.884
1244.207 12.124 10.994 10.484 10.494 10.854 11.434 12.214 13.114 13.834 14.474
1263.497 15.134 15.824 16.634 17.744 19.044 20.354 22.064 24.314 26.904 29.174
1282.787 30.494 30.634 29.674 28.264 27.424 27.014 26.514 26.944 27.324 25.844
1302.077 22.714 18.654 14.554 11.134 8.604 6.814 5.644 4.824 4.174 3.684
1321.367 3.384 3.094 2.864 2.624 2.324 2.134 1.934 1.704 1.564 1.4585
1340.657 1.3809 1.367 1.3341 1.3146 1.3494 1.3613 1.3779 1.4501 1.574 1.674
1359.947 1.784 1.884 1.954 2.124 2.374 2.654 2.974 3.174 3.324 3.434
1379.237 3.454 3.484 3.644 3.784 3.784 3.714 3.584 3.424 3.324 3.284
1398.527 3.274 3.354 3.454 3.664 3.974 4.404 5.004 5.714 6.734 8.034
1417.817 9.594 11.444 13.304 15.134 17.204 19.534 22.384 25.744 29.884 34.834
1437.107 40.674 46.304 51.294 55.204 57.804 59.444 60.474 61.114 61.304 60.874
1456.397 58.564 54.954 52.314 49.664 45.564 40.004 34.334 29.294 24.874 20.924
1475.687 17.874 15.444 13.814 12.684 11.794 11.204 10.814 10.474 10.024 9.444
1494.977 8.904 8.504 8.174 7.784 7.464 7.144 6.734 6.414 6.364 6.434
1514.267 6.584 6.804 7.004 7.204 7.514 7.764 8.054 8.464 8.894 9.354
1533.557 9.864 10.414 10.924 11.424 11.894 12.274 12.664 13.134 13.644 14.224
1552.847 14.864 15.554 16.414 17.624 18.934 20.284 21.864 23.474 25.274 27.404
1572.137 29.614 31.854 34.334 36.634 38.584 40.704 42.974 45.114 46.914 48.704
1591.427 50.584 51.984 52.004 50.414 47.664 44.424 41.284 38.604 36.444 34.594
1610.717 32.814 30.724 27.984 24.254 20.094 16.584 13.944 11.984 10.454 8.964
1630.007 7.474 6.284 5.254 4.304 3.554 3.044 2.634 2.354 2.164 1.994
1649.297 1.834 1.724 1.634 1.4869 1.39 1.3443 1.241 1.188 1.171 1.1506
1668.587 1.1581 1.0756 0.9965 0.9594 0.9317 0.8794 0.8729 0.892 0.8799 0.8672
1687.877 0.8758 0.8692 0.8401 0.8567 0.8493 0.8699 0.9151 0.8793 0.8719 0.854
1707.167 0.8312 0.8207 0.8375 0.8916 0.9669 0.9793 0.9617 1.0074 1.0051 1.0351
1726.457 1.085 1.099 1.1708 1.2538 1.2434 1.232 1.24 1.285 1.2536 1.1978
1745.747 1.1272 1.0917 1.1054 1.0353 1.0435 1.0364 1.0126 0.9556 0.8619 0.8483
1765.037 0.8417 0.77 0.7217 0.7667 0.8025 0.837 0.8005 0.7333 0.7371 0.7334
1784.327 0.7226 0.6749 0.6681 0.65382 0.64548 0.6866 0.64193 0.59269 0.57024 0.57656
1803.617 0.57157 0.5143 0.5763 0.63538 0.57517 0.59231 0.59258 0.5435 0.55135 0.58161
1822.907 0.60622 0.62043 0.6598 0.7662 0.8852 0.9395 0.9827 1.0609 1.0927 1.0738
1842.197 1.0783 1.0941 1.1236 1.0868 1.0304 1.0575 1.0514 1.0177 0.9809 0.9045
1861.487 0.8335 0.748 0.6761 0.64747 0.62776 0.59426 0.561814 0.564 0.57641 0.55892
1880.777 0.55134 0.56328 0.557837 0.5407 0.5366 0.5427 0.5379 0.5431 0.54912 0.60794
1900.067 0.6496 0.64012 0.62344 0.61933 0.667 0.7475 0.7694 0.7021 0.7152 0.7869
1919.357 0.7917 0.799 0.8156 0.8696 0.9714 1.0316 1.0408 1.0651 1.1565 1.2687
1938.647 1.3675 1.4016 1.4012 1.4698 1.4997 1.4795 1.4612 1.4222 1.4037 1.385
1957.937 1.4291 1.4091 1.2747 1.1409 1.031 0.9647 0.904 0.8441 0.753 0.6785
1977.227 0.6797 0.65159 0.679 0.7131 0.7027 0.6951 0.62808 0.6569 0.7232 0.7243
1996.517 0.6958 0.7049 0.7349 0.7054 0.7153 0.7561 0.7805 0.7666 0.7647 0.7576
2015.807 0.7496 0.7749 0.7687 0.7569 0.7133 0.654 0.6842 0.6866 0.63459 0.60511
2035.097 0.58104 0.5839 0.58482 0.556748 0.5147 0.5019 0.5378 0.5344 0.5124 0.5167
2054.387 0.5008 0.5227 0.5176 0.4904 0.482 0.4705 0.5131 0.556132 0.5228 0.4966
2073.677 0.4975 0.5214 0.5273 0.4967 0.5106 0.5237 0.5389 0.58581 0.61786 0.58882
2092.967 0.56076 0.5367 0.57013 0.63039 0.59733 0.5484 0.5293 0.5417 0.5239 0.4911
2112.257 0.553552 0.60072 0.56845 0.5353 0.4803 0.454 0.445 0.4567 0.4836 0.4855
2131.547 0.5346 0.561289 0.558496 0.5249 0.4858 0.5135 0.57574 0.58095 0.59556 0.66
2150.837 0.65074 0.62658 0.6682 0.6875 0.7195 0.7899 0.8049 0.8131 0.7956 0.7901
2170.127 0.8387 0.8641 0.8675 0.8102 0.7841 0.7994 0.7717 0.7678 0.7502 0.7159
2189.417 0.7014 0.6904 0.6699 0.64791 0.60231 0.57994 0.62334 0.6617 0.7377 0.7962
2208.707 0.7683 0.7251 0.6936 0.6829 0.719 0.7796 0.7589 0.73 0.7451 0.7852
2227.997 0.7645 0.6965 0.6564 0.6916 0.7261 0.7202 0.6835 0.60441 0.62033 0.6416
2247.287 0.60722 0.62678 0.60878 0.58287 0.62711 0.64388 0.6677 0.62229 0.59709 0.64147
2266.577 0.6606 0.663 0.6867 0.6959 0.64087 0.6669 0.7226 0.7255 0.7899 0.862
2285.868 0.88 0.8947 0.9345 0.9417 0.9322 0.9496 0.95 0.9588 0.9657 0.9843
2305.158 0.996 0.9596 0.9854 0.9879 0.9266 0.8882 0.8794 0.9141 0.9278 0.8716
2324.448 0.8167 0.8083 0.8282 0.8177 0.708 0.691 0.7237 0.64734 0.64805 0.6582
2343.738 0.61978 0.60764 0.5258 0.5492 0.56614 0.5383 0.555531 0.553389 0.561163 0.59881
2363.028 0.62731 0.6833 0.6838 0.61759 0.61089 0.672 0.7195 0.7312 0.7392 0.6645
2382.318 0.6663 0.7281 0.727 0.7002 0.6564 0.6416 0.6683 0.7013 0.6655 0.60809
2401.608 0.62602 0.64453 0.6609 0.62442 0.59975 0.62486 0.64503 0.684 0.64822 0.63676
2420.898 0.62327 0.56937 0.65001 0.6966 0.7072 0.7028 0.7182 0.7542 0.7056 0.6964
2440.188 0.7349 0.7771 0.8109 0.8606 0.8367 0.7724 0.7591 0.6963 0.6612 0.6573
2459.478 0.6959 0.7013 0.62089 0.60859 0.59536 0.5404 0.5122 0.5357 0.555784 0.5058
2478.768 0.5134 0.5265 0.5208 0.5262 0.5338 0.562883 0.57598 0.5922 0.57972 0.61416
2498.058 0.6563 0.59512 0.57581 0.64051 0.6775 0.7056 0.6783 0.6641 0.7144 0.7004
2517.348 0.704 0.7263 0.6738 0.724 0.7927 0.7462 0.7225 0.68 0.6654 0.7423
2536.638 0.6778 0.60867 0.6881 0.6747 0.61248 0.63309 0.6559 0.61987 0.62548 0.7017
2555.928 0.714 0.6715 0.6888 0.7141 0.65135 0.55255 0.6032 0.694 0.6601 0.6556
2575.218 0.7402 0.7508 0.6998 0.59472 0.57304 0.6672 0.62721 0.59053 0.57837 0.59805
2594.508 0.6884 0.6916 0.6922 0.63164 0.58699 0.58451 0.56668 0.57931 0.57944 0.59507
2613.798 0.5435 0.4861 0.4845 0.4776 0.4839 0.4606 0.423 0.377 0.414 0.5195
2633.088 0.4988 0.4953 0.4623 0.437 0.4912 0.5114 0.56653 0.58189 0.562721 0.4732
2652.378 0.433 0.563876 0.57393 0.60934 0.69 0.65316 0.61108 0.61306 0.67 0.65351
2671.668 0.559222 0.5434 0.64502 0.62195 0.58252 0.59076 0.59333 0.6592 0.6845 0.6637
2690.958 0.64779 0.6039 0.59859 0.682 0.64411 0.59745 0.59548 0.61358 0.61297 0.5127
2710.248 0.4826 0.5319 0.5086 0.4662 0.5227 0.64525 0.6809 0.61093 0.5311 0.4947
2729.538 0.5357 0.559679 0.561083 0.61283 0.62417 0.62338 0.64885 0.60819 0.61659 0.6654
2748.828 0.6693 0.63652 0.59053 0.57441 0.5496 0.5274 0.54573 0.5366 0.4706 0.4793
2768.118 0.4794 0.4546 0.404 0.344 0.401 0.4614 0.4554 0.444 0.5012 0.54983
2787.408 0.5494 0.560022 0.54992 0.5157 0.5226 0.5167 0.5233 0.502 0.452 0.5192
2806.698 0.60288 0.59524 0.57129 0.57514 0.57212 0.60253 0.6709 0.6667 0.61963 0.6821
2825.988 0.8348 0.8055 0.7697 0.7995 0.7753 0.7879 0.8862 0.8791 0.9008 1.0037
2845.278 1.0312 1.0854 1.1156 1.2528 1.3531 1.3916 1.5014 1.584 1.614 1.704
2864.568 1.804 1.754 1.664 1.604 1.554 1.584 1.5527 1.4945 1.5301 1.574
2883.858 1.5196 1.4511 1.4429 1.4372 1.4731 1.4886 1.5462 1.644 1.674 1.684
2903.148 1.714 1.844 1.954 2.094 2.304 2.514 2.714 2.994 3.214 3.444
2922.438 3.864 4.174 4.434 4.704 4.964 5.154 5.154 5.204 5.234 5.144
2941.728 5.024 4.864 4.704 4.474 4.214 3.954 3.564 3.164 2.874 2.714
2961.018 2.534 2.374 2.284 2.214 2.284 2.434 2.554 2.754 2.894 2.854
2980.308 2.854 2.924 2.914 2.914 2.924 3.024 3.064 2.954 2.874 2.864
2999.598 2.804 2.684 2.684 2.654 2.504 2.394 2.294 2.234 2.154 2.234
3018.888 2.334 2.384 2.554 2.644 2.704 2.734 2.874 3.044 3.074 3.154
3038.178 3.264 3.274 3.224 3.194 3.154 3.154 3.194 3.234 3.294 3.354
3057.468 3.394 3.584 3.824 4.124 4.524 4.754 4.874 4.954 5.054 5.234
3076.758 5.294 5.294 5.324 5.334 5.394 5.274 4.994 4.554 4.164 3.884
3096.048 3.534 3.234 2.854 2.564 2.324 1.994 1.814 1.5526 1.2762 1.1326
3115.338 1.0365 0.9633 0.7939 0.58543 0.5385 0.61707 0.65123 0.6913 0.6878 0.6633
3134.628 0.5817 0.5209 0.5181 0.451 0.4751 0.4631 0.421 0.4877 0.507 0.4666
3153.918 0.4854 0.379 0.329 0.4737 0.5234 0.4802 0.421 0.38 0.297 0.319
3173.208 0.405 0.324 0.294 0.34 0.304 0.286 0.311 0.434 0.4687 0.408
3192.498 0.373 0.318 0.253 0.22 0.251 0.265 0.229 0.191 0.185 0.187
3211.788 0.228 0.318 0.29 0.184 0.209 0.321 0.401 0.351 0.204 0.209
3231.078 0.278 0.211 0.203 0.277 0.234 0.191 0.261 0.261 0.187 0.189
3250.368 0.181 0.112 0.066 0.112 0.158 0.078 0.148 0.266 0.211 0.184
3269.658 0.113 0.158 0.237 0.172 0.117 0.091 0.204 0.275 0.228 0.147
3288.948 0.136 0.242 0.218 0.224 0.254 0.252 0.303 0.27 0.19 0.179
3308.238 0.247 0.203 0.205 0.193 0.164 0.32 0.378 0.335 0.341 0.353
3327.528 0.213 0.229 0.332 0.33 0.348 0.287 0.269 0.275 0.283 0.244
3346.818 0.23 0.269 0.212 0.151 0.197 0.282 0.267 0.136 0.233 0.318
3366.108 0.239 0.206 0.121 0.214 0.329 0.407 0.367 0.252 0.29 0.322
3385.398 0.21 0.132 0.2 0.2 0.146 0.116 0.08 0.066 0.16 0.212
3404.688 0.222 0.213 0.151 0.128 0.148 0.081 0 0.09 0.195 0.341
3423.978 0.416 0.288 0.18 0.122 0.197 0.239 0.253 0.248 0.234 0.252
3443.269 0.195 0.26 0.317 0.37 0.318 0.222 0.204 0.266 0.279 0.317
3462.559 0.275 0.179 0.262 0.257 0.197 0.211 0.172 0.164 0.254 0.157
3481.849 0.085 0.125 0.216 0.317 0.26 0.254 0.268 0.201 0.189 0.172
3501.139 0.166 0.264 0.333 0.339 0.451 0.31 0.117 0.211 0.299 0.311
3520.429 0.27 0.228 0.174 0.063 0.069 0.216 0.284 0.276 0.31 0.289
3539.719 0.147 0.104 0.187 0.214 0.204 0.343 0.381 0.285 0.254 0.34
3559.009 0.363 0.229 0.279 0.253 0.232 0.376 0.428 0.389 0.306 0.235
3578.299 0.212 0.164 0.242 0.426 0.4558 0.369 0.331 0.325 0.255 0.24
3597.589 0.321 0.246 0.197 0.27 0.305 0.311 0.31 0.422 0.32 0.11
3616.879 0.188 0.32 0.396 0.337 0.314 0.389 0.366 0.314 0.252 0.264
3636.169 0.283 0.287 0.27 0.261 0.389 0.393 0.388 0.5073 0.312 0.212
3655.459 0.308 0.31 0.299 0.193 0.201 0.287 0.362 0.312 0.222 0.234
3674.749 0.314 0.432 0.406 0.363 0.277 0.268 0.299 0.297 0.314 0.287
3694.039 0.229 0.305 0.364 0.311 0.228 0.057 0.073 0.284 0.312 0.31
3713.329 0.357 0.286 0.26 0.342 0.431 0.354 0.334 0.294 0.31 0.345
3732.619 0.28 0.294 0.243 0.267 0.296 0.306 0.44 0.404 0.329 0.369
3751.909 0.304 0.264 0.429 0.413 0.333 0.366 0.369 0.308 0.272 0.338
3771.199 0.391 0.294 0.298 0.373 0.289 0.395 0.334 0.246 0.281 0.268
3790.489 0.261 0.304 0.387 0.336 0.275 0.435 0.562506 0.5126 0.4992 0.301
3809.779 0.108 0.151 0.273 0.333 0.309 0.32 0.384 0.387 0.37 0.354
3829.069 0.254 0.251 0.258 0.286 0.37 0.309 0.251 0.258 0.24 0.219
3848.359 0.234 0.221 0.205 0.353 0.386 0.324 0.377 0.372 0.333 0.342
3867.649 0.35 0.366 0.227 0.299 0.4903 0.35 0.339 0.329 0.279 0.277
3886.939 0.297 0.523 0.4982 0.367 0.303 0.113 0.146 0.241 0.195 0.216
3906.229 0.243 0.359 0.33 0.157 0.212 0.222 0.099 0.094 0.22 0.291
3925.519 0.258 0.255 0.344 0.316 0.305 0.386 0.325 0.246 0.313 0.301
3944.809 0.15 0.133 0.073 0.1 0.274 0.336 0.345 0.324 0.303 0.243
3964.099 0.248 0.351 0.457 0.5123 0.461 0.4758 0.445 0.43 0.372 0.194
3983.389 0.138 0.271 0.319 0.4591 0.5261 0.384 0.311 0.33 0.424 0.42
##END=
