##TITLE=4-(Trifluoromethoxy)bromobenzene
##JCAMP-DX=4.24
##DATA TYPE=INFRARED SPECTRUM
##ORIGIN=EPA-IR VAPOR PHASE LIBRARY
##OWNER=SRD/NIST
Collection (C) 2018 copyright by the U.S. Secretary of Commerce
on behalf of the United States of America. All rights reserved.
##CAS REGISTRY NO=407-14-7
##MOLFORM=C 7 H 4 Br F 3 O
##$NIST SOURCE=MSDC-IR
##STATE=gas
##XUNITS=1/CM
##YUNITS=ABSORBANCE
##XFACTOR=1.
##YFACTOR=0.001
##DELTAX=1.92898
##FIRSTX=549.8
##LASTX=4000.7
##FIRSTY=4.066
##MAXX=4000.7
##MINX=549.759
##MAXY=0.714746
##MINY=0
##NPOINTS=1790
##XYDATA=(X++(Y..Y))
549.759 4.066 3.776 3.016 2.356 2.026 2.236 2.276 2.046 2.186 1.806
569.049 1.936 2.396 2.456 2.226 1.0853 1.0532 1.0872 0.7887 0.6218 0.7248
588.339 1.656 2.256 1.836 1.876 2.256 1.258 1.3203 1.826 1.796 2.146
607.628 2.166 2.496 2.566 3.316 4.066 3.626 3.316 3.486 3.686 3.476
626.918 3.296 3.756 3.896 3.926 4.476 5.016 5.236 5.326 5.576 5.526
646.208 5.836 7.166 7.776 7.646 8.166 8.496 9.126 9.556 9.676 9.396
665.498 8.946 8.936 9.186 9.026 8.416 8.366 7.886 7.066 6.276 5.376
684.787 4.796 4.386 3.856 3.406 3.496 3.746 4.286 4.376 3.916 3.806
704.077 3.476 3.546 4.516 4.946 5.146 6.346 7.526 8.786 9.326 9.126
723.367 8.326 7.256 6.556 5.886 5.266 4.516 3.836 3.706 3.926 3.696
742.657 3.576 3.466 3.466 3.406 2.886 2.506 2.666 2.666 2.336 2.386
761.947 2.206 2.506 2.956 2.666 2.686 2.586 2.656 2.876 2.786 3.496
781.236 4.316 4.866 5.376 5.646 6.676 7.836 8.406 9.676 11.496 12.656
800.526 13.546 14.526 15.356 15.956 16.686 17.106 17.486 18.186 19.006 19.726
819.816 19.596 21.146 22.786 22.146 23.036 23.826 24.066 24.636 24.566 24.886
839.106 24.676 23.856 22.996 22.166 20.396 18.236 16.396 14.306 12.126 10.686
858.395 9.216 7.816 6.606 5.446 4.646 4.236 4.286 3.386 2.896 2.556
877.685 1.936 2.506 3.356 3.436 2.576 2.326 2.526 2.536 2.616 2.556
896.975 2.786 3.026 2.996 3.256 3.606 3.856 4.776 5.926 7.366 10.016
916.265 13.816 17.196 19.376 20.386 20.246 19.056 16.686 13.356 10.256 8.436
935.555 7.456 6.936 6.256 5.466 4.786 4.436 4.346 4.036 4.216 4.676
954.844 4.656 4.466 4.556 4.416 4.116 4.616 5.436 5.466 4.966 4.856
974.134 5.196 5.436 5.206 5.086 5.426 5.856 6.006 5.516 5.226 5.756
993.424 5.996 5.836 6.596 7.736 9.286 12.206 16.816 26.316 42.636 61.856
1012.714 73.786 74.546 72.666 65.826 45.566 24.016 13.626 8.796 6.126 5.556
1032.003 4.816 4.856 4.916 4.766 5.356 5.126 5.196 6.046 6.846 7.636
1051.293 9.116 11.216 13.816 18.116 24.166 32.056 42.716 53.876 63.816 72.506
1070.583 76.696 75.866 70.256 62.976 55.256 46.036 38.246 32.996 29.786 25.556
1089.873 20.826 19.026 17.526 16.366 16.026 16.646 16.596 14.696 14.266 14.406
1109.163 13.646 13.656 13.916 12.736 11.836 11.506 11.546 12.986 13.116 12.436
1128.452 12.496 13.026 13.676 15.126 17.486 19.066 20.526 23.466 26.456 29.346
1147.742 31.996 35.916 41.716 47.076 53.346 60.716 69.396 79.636 91.306 102.406
1167.032 113.656 126.986 141.476 156.906 173.356 192.676 215.526 238.226 258.906 276.956
1186.322 292.556 307.016 314.266 310.716 303.076 291.496 277.686 268.516 266.976 272.686
1205.611 287.476 309.966 337.656 370.156 403.816 439.396 469.296 490.836 499.396 493.246
1224.901 478.416 451.046 413.506 374.646 337.796 304.116 275.716 254.346 241.736 236.066
1244.191 239.426 251.896 271.926 300.096 334.726 375.116 420.716 471.536 524.466 577.546
1263.481 626.716 668.816 700.556 714.746 711.326 687.396 641.736 577.986 503.236 423.636
1282.771 345.666 276.976 220.976 177.726 144.916 119.196 98.756 82.866 70.756 61.396
1302.060 54.206 48.816 44.376 40.356 36.976 34.366 31.906 29.586 27.596 25.986
1321.350 24.666 23.316 22.146 21.176 20.036 18.946 18.036 17.216 16.166 15.226
1340.640 14.396 13.476 12.746 12.006 11.316 10.616 10.026 9.506 8.936 8.366
1359.930 7.656 7.106 6.586 6.236 6.056 5.626 5.336 5.266 5.046 4.936
1379.219 4.906 4.976 5.286 5.476 5.776 5.926 6.096 6.476 6.666 6.776
1398.509 6.866 7.046 7.276 7.286 7.276 7.256 7.226 7.386 7.616 7.586
1417.799 7.576 7.946 8.496 9.116 9.656 9.896 9.946 9.786 9.236 8.776
1437.089 8.266 7.726 7.446 7.326 7.486 7.796 8.216 8.826 9.656 10.346
1456.378 11.236 12.476 13.726 15.196 17.136 19.676 22.726 26.606 31.656 38.446
1475.668 47.456 59.746 76.006 97.226 123.076 149.776 170.476 178.376 172.186 155.166
1494.958 127.656 93.246 62.476 41.266 29.116 22.276 18.126 15.576 13.696 11.976
1514.248 10.876 10.286 9.606 8.886 8.136 7.606 7.026 6.306 5.746 5.416
1533.538 5.026 4.866 4.786 4.396 4.206 4.166 3.926 3.716 3.576 3.546
1552.827 3.856 3.836 3.836 4.206 4.076 4.136 4.546 4.816 5.066 5.236
1572.117 5.666 5.806 5.776 6.146 6.376 6.526 6.626 6.526 6.456 6.246
1591.407 6.106 6.086 5.906 5.636 5.596 5.756 5.766 5.516 5.446 5.766
1610.697 5.886 5.776 5.796 5.856 5.696 5.836 6.276 6.416 6.216 6.466
1629.986 6.816 6.686 6.676 6.806 6.856 6.826 6.656 6.396 5.946 5.366
1649.276 5.126 5.006 4.646 4.446 4.466 4.166 3.806 3.666 3.636 3.546
1668.566 3.316 3.036 2.666 2.436 2.396 2.476 2.156 2.026 2.256 2.296
1687.856 2.416 2.406 2.336 2.156 2.056 2.076 1.996 2.106 2.246 2.406
1707.146 2.466 2.596 2.766 2.566 2.416 2.436 2.406 2.446 2.576 2.546
1726.435 2.456 2.606 2.736 2.596 2.876 3.186 3.006 2.946 3.206 3.496
1745.725 3.746 4.026 4.286 4.516 4.666 4.816 5.006 5.066 4.766 4.356
1765.015 3.946 3.656 3.286 2.896 2.636 2.386 2.296 2.256 2.306 2.326
1784.305 2.286 2.236 2.046 1.966 2.066 2.186 2.266 2.186 2.096 2.126
1803.594 2.216 2.166 2.136 2.206 2.276 2.306 2.336 2.366 2.376 2.306
1822.884 2.026 1.846 1.886 1.836 1.716 1.716 1.776 1.856 1.766 1.776
1842.174 1.886 1.796 1.856 1.796 1.876 2.136 2.126 2.216 2.416 2.536
1861.464 2.656 2.926 3.156 3.366 3.696 4.096 4.406 4.716 5.116 5.416
1880.754 5.526 5.516 5.506 5.416 5.326 5.126 4.856 4.626 4.226 3.856
1900.043 3.546 3.186 2.796 2.536 2.386 2.166 1.986 1.866 1.746 1.686
1919.333 1.686 1.776 1.836 1.896 1.906 1.896 1.936 1.966 1.886 1.726
1938.623 1.816 1.876 1.726 1.646 1.596 1.666 1.676 1.616 1.746 1.826
1957.913 1.706 1.696 1.746 1.816 1.906 1.976 1.836 1.776 2.006 2.016
1977.202 1.946 1.936 1.936 2.116 2.196 2.186 2.326 2.436 2.466 2.356
1996.492 2.366 2.496 2.496 2.476 2.856 3.066 3.086 3.256 3.346 3.586
2015.782 3.656 3.646 3.616 3.296 3.046 3.186 3.276 3.006 2.756 2.776
2035.072 2.756 2.696 2.676 2.586 2.556 2.616 2.736 2.806 2.836 2.846
2054.362 2.926 3.136 3.296 3.316 3.206 3.176 3.156 3.076 3.126 3.096
2073.651 2.806 2.626 2.696 2.566 2.476 2.506 2.516 2.366 2.206 2.156
2092.941 2.116 2.236 2.306 2.316 2.316 2.316 2.356 2.356 2.366 2.266
2112.231 2.226 2.206 2.026 2.176 2.236 2.266 2.276 2.186 2.386 2.556
2131.521 2.656 2.766 2.766 2.696 2.616 2.616 2.576 2.606 2.706 2.546
2150.810 2.526 2.496 2.106 1.966 1.986 1.916 1.796 1.796 1.916 1.956
2170.100 2.146 2.096 2.046 2.296 2.466 2.556 2.586 2.396 2.236 2.336
2189.390 2.276 2.156 1.986 1.696 1.596 1.546 1.2793 1.1612 1.3162 1.446
2208.680 1.412 1.2757 1.265 1.2483 1.3544 1.3762 1.1674 0.9573 0.7841 0.8368
2227.970 1.138 1.0082 0.923 1.1434 1.1094 1.0497 0.95 0.8555 1.1466 1.335
2247.259 1.2107 1.486 1.766 1.586 1.466 1.496 1.3822 1.3889 1.4073 1.3114
2266.549 1.4058 1.456 1.476 1.476 1.516 1.666 1.496 1.4123 1.646 1.676
2285.839 1.626 1.526 1.4206 1.436 1.636 1.746 1.576 1.4174 1.476 1.586
2305.129 1.576 1.486 1.596 1.676 1.313 1.2754 1.3527 1.1869 1.0619 1.183
2324.418 1.4084 1.0974 1.1878 1.3901 1.351 1.2561 1.2662 1.566 1.536 1.446
2343.708 1.3865 1.436 1.516 1.636 1.766 1.676 1.576 1.556 1.676 1.726
2362.998 1.456 1.476 1.976 2.296 2.376 2.226 2.096 2.316 2.536 2.456
2382.288 2.356 2.316 2.356 2.586 2.546 2.416 2.496 2.696 2.866 2.786
2401.578 2.606 2.836 3.016 2.936 2.926 3.136 3.376 3.426 3.516 3.486
2420.867 3.316 3.226 3.506 3.646 3.626 3.926 4.166 4.276 4.446 4.636
2440.157 4.836 5.066 5.146 5.086 5.106 4.996 4.756 4.426 4.186 3.936
2459.447 3.866 3.846 3.646 3.426 3.306 3.316 3.236 3.396 3.706 3.766
2478.737 3.646 3.616 3.486 3.666 3.966 4.006 4.236 4.146 3.966 3.886
2498.026 3.866 3.746 3.516 3.516 3.556 3.336 3.046 3.066 3.066 2.776
2517.316 2.376 2.506 2.946 3.006 2.666 2.306 2.186 2.116 1.886 1.686
2536.606 1.816 1.986 1.966 1.846 1.886 1.876 1.946 1.956 1.876 1.766
2555.896 1.606 1.716 1.506 1.2558 1.3833 1.636 1.866 1.696 1.446 1.2904
2575.186 1.0825 1.0746 0.9765 0.9096 1.0593 1.2245 1.1553 1.0881 0.9925 1.1002
2594.475 1.2753 1.2329 1.1243 0.8627 1.0629 1.2077 1.1303 0.9425 0.7356 1.0298
2613.765 1.2984 1.223 1.0803 0.9622 0.698 0.695 1.1562 1.4197 1.1598 0.969
2633.055 0.9955 0.8982 0.9233 0.9563 0.8188 0.9256 1.1196 1.1694 1.1693 1.0736
2652.345 0.9236 0.9012 1.2163 1.3408 1.0531 0.7655 0.433088 0.7481 1.1767 0.8699
2671.634 0.7024 0.9458 0.7348 0.5437 0.9109 0.6244 0.4031 0.6282 0.6102 0.7837
2690.924 0.8426 1.0627 1.2819 1.1579 0.9982 1.0327 1.1869 1.0423 0.8519 0.8099
2710.214 0.7555 0.8913 1.0048 1.1098 1.0139 0.7531 0.7252 0.6424 0.7678 1.0255
2729.504 1.1283 0.8259 0.7432 0.8832 0.9747 1.2222 0.9673 0.7656 0.7636 0.7025
2748.794 0.9533 1.0968 0.9892 0.972 1.0431 0.9536 0.7235 0.6782 0.9267 1.0701
2768.083 0.981 1.1149 1.2399 0.9599 0.7999 1.0922 1.1753 1.1457 1.0394 0.9775
2787.373 1.1959 0.942 0.7108 0.9403 1.1497 1.0539 1.0401 0.8158 0.8878 1.235
2806.663 1.328 1.3437 1.2969 1.2057 1.0978 1.3455 1.536 1.466 1.4008 1.3192
2825.953 1.4193 1.726 1.676 1.656 1.776 1.786 1.896 1.946 1.756 1.526
2845.242 1.1714 0.9069 1.0229 1.0562 0.9874 0.9521 1.0303 1.1039 1.0147 0.8463
2864.532 0.8376 0.8351 0.7841 0.7606 0.777 0.7929 0.6423 0.5919 0.5829 0.6362
2883.822 0.608 0.3924 0.581 0.9363 1.0223 0.8828 0.5162 0.6647 0.7511 0.8431
2903.112 1.0463 0.9654 0.7597 0.432631 0.4536 0.5947 0.6588 0.6565 0.7633 0.9222
2922.401 1.1194 1.0442 0.9734 1.1666 0.8107 0.434359 0.50272 0.430892 0.46143 0.7669
2941.691 0.6723 0.7057 0.913 0.774 0.7477 0.51759 0.28 0.50531 0.608 0.782
2960.981 1.1117 1.0537 0.9279 0.9147 0.9966 0.787 1.1029 1.666 1.2527 0.7079
2980.271 0.658 1.0655 1.2613 1.2501 1.0559 0.88 0.9634 0.7537 0.7345 1.109
2999.561 1.3472 1.3941 1.516 1.2964 0.8397 0.8366 0.6982 0.6552 0.8245 0.7689
3018.850 1.2258 1.456 0.9606 0.7023 0.7136 0.7018 0.7511 1.0058 0.9136 1.0777
3038.140 1.3208 1.696 2.056 1.616 1.2787 1.1464 0.8664 1.0036 1.446 1.566
3057.430 1.516 1.3407 1.2483 1.3364 1.456 1.4107 1.4189 1.546 1.726 1.776
3076.720 1.876 2.076 2.056 2.016 2.226 2.606 2.626 2.566 2.756 2.466
3096.009 2.156 1.996 2.076 2.446 2.376 2.036 1.776 1.456 1.1177 1.3925
3115.299 2.076 2.196 1.886 1.636 0.9237 0.7156 1.1243 0.73 0.8023 0.8565
3134.589 0.4112 0.5488 0.7379 0.6865 0.5814 0.46577 0.5977 0.50694 0.6515 1.1638
3153.879 0.9415 1.0636 0.9726 0.839 1.1327 1.446 1.666 1.586 1.3058 0.8592
3173.169 0.7599 0.7901 0.628 0.6097 1.0959 1.2339 0.7403 0.6608 1.0029 0.7698
3192.458 0.6485 0.5965 0.6379 0.7424 0.808 0.9937 1.1885 0.9096 0.8497 1.359
3211.748 1.1041 0.291 0.50028 1.1917 0.9198 0.9484 1.1897 1.1764 1.2567 1.003
3231.038 0.5444 0.50963 0.7521 0.807 0.5586 0.7665 1.2322 1.1308 0.8547 1.2942
3250.328 1.0893 0.9018 1.277 0.8537 0.5727 0.52465 0.9948 0.9933 0.48071 0.534
3269.617 0.3579 0.291 0.5609 0.9135 0.8858 0.7168 0.6402 0.3288 0.188 0.3801
3288.907 0.7194 0.6587 0.47111 0.3269 0.47169 0.9395 1.1667 1.1046 0.9723 0.50186
3308.197 0.6776 0.9797 0.9463 0.8912 0.5927 0.45807 0.7319 1.1675 1.2028 1.2232
3327.487 1.0094 0.8752 0.8824 0.8931 0.9878 0.8073 0.45193 0.432006 0.24 0.7955
3346.777 1.516 0.8353 0.41955 1.0339 1.2796 0.7771 0.47481 0.6317 0.829 0.6912
3366.066 0.7996 1.2066 1.2997 0.9849 0.7588 0.7904 0.48743 0.217 0.326 0.243
3385.356 0.3 0.8024 0.8457 0.286 0.109 0.6597 1.0091 0.6595 0.6937 0.8444
3404.646 0.3503 0.3354 0.9742 1.2253 0.9459 0.9918 1.0344 0.52014 0.5617 0.9132
3423.936 1.0247 1.2238 1.506 1.466 1.417 1.1156 0.5869 0.696 1.0141 0.6117
3443.225 0.316 1.0549 1.2106 0.9687 1.1431 1.0648 1.212 1.2646 0.6834 0.6955
3462.515 1.073 1.1988 0.8734 0.6573 0.9414 0.7797 0.727 0.8837 1.2451 1.1535
3481.805 0.7475 0.894 0.8475 1.132 0.9193 0.7098 1.014 0.8335 0.42865 0.3763
3501.095 0.6685 0.6637 0.5608 0.315 0.384 0.128 0 0.6828 1.0974 1.1017
3520.385 1.0629 0.7396 1.1257 1.516 1.2247 1.1565 1.0513 0.9449 1.2631 1.566
3539.674 1.2264 1.0908 0.7838 0.5936 0.7686 0.5384 0.5379 0.663 0.3348 0.794
3558.964 1.2077 1.0173 1.4242 1.3165 0.9067 1.148 1.1234 0.8041 0.7535 0.8127
3578.254 1.0112 1.0893 0.7646 0.6934 1.0123 1.063 0.9821 0.7656 0.45679 0.7301
3597.544 1.2992 1.279 1.0191 1.0055 0.7675 0.9663 1.426 1.1287 1.0993 1.466
3616.833 1.2046 1.2116 1.0444 0.5941 0.6265 0.6184 1.0695 1.626 1.1114 0.6493
3636.123 0.6212 0.8708 0.7852 0.7734 1.0021 1.1171 1.0893 0.5943 0.7565 0.7655
3655.413 0.261 0.3269 0.6237 0.8322 0.9697 1.008 1.108 1.1321 1.158 1.1997
3674.703 0.9284 0.427461 0.45013 0.7013 0.8407 0.904 0.9833 1.1563 0.6633 0.45882
3693.993 0.8293 0.6581 0.703 1.1153 1.057 1.1917 1.2649 0.7843 1.0063 1.526
3713.282 1.4042 1.1429 1.3079 1.2138 0.9525 0.6618 0.8954 1.636 1.736 1.2281
3732.572 0.7994 0.7714 0.8289 1.0015 1.3246 1.1827 0.9668 0.9093 0.45618 0.617
3751.862 1.0432 0.9173 0.722 0.6037 0.7817 1.1684 1.1641 0.7251 0.5482 0.49269
3771.152 0.42351 0.5687 0.429825 0.4664 1.1923 1.486 1.3477 1.0795 0.7997 0.9372
3790.441 0.654 0.48011 0.6526 1.0151 1.1588 0.8599 0.6028 0.6175 0.5325 0.567
3809.731 0.5581 0.5751 0.8487 0.5792 0.7971 1.3076 1.0197 0.5849 0.8981 1.3902
3829.021 1.2561 1.0201 0.6216 0.48492 0.41662 0.38 0.7247 0.6949 0.9121 1.107
3848.311 1.3237 1.3954 1.0977 0.6993 0.614 1.0196 0.9599 0.6711 1.0293 1.3774
3867.601 1.576 1.0301 0.224 0.7846 1.2142 0.9575 0.5702 0.5521 0.781 0.595
3886.890 0.5573 0.8357 0.8831 0.5866 0.6499 0.8472 0.5633 0.6969 0.7375 0.6521
3906.180 0.8114 0.9881 0.8279 0.5423 0.8072 0.9283 0.6971 0.46143 0.7566 0.9053
3925.470 0.8647 0.7972 0.48454 0.46201 0.9331 1.039 0.7159 0.7193 0.7744 0.5604
3944.760 0.51822 0.9976 1.0232 1.0302 1.1814 1.2478 1.496 1.3031 0.682 0.8088
3964.049 1.0621 0.3909 0.425789 0.43453 0.6581 1.372 1.1494 0.9648 0.6889 0.5681
3983.339 0.9483 1.0206 0.7756 0.7584 1.2061 1.216 1.436 1.2604 0.9588 1.1712
##END=
