##TITLE=trans-1,2-Dibenzoylethylene
##JCAMP-DX=4.24
##DATA TYPE=INFRARED SPECTRUM
##ORIGIN=EPA-IR VAPOR PHASE LIBRARY
##OWNER=SRD/NIST
Collection (C) 2018 copyright by the U.S. Secretary of Commerce
on behalf of the United States of America. All rights reserved.
##CAS REGISTRY NO=4070-75-1
##MOLFORM=C 16 H 12 O 2
##$NIST SOURCE=MSDC-IR
##STATE=gas
##XUNITS=1/CM
##YUNITS=ABSORBANCE
##XFACTOR=1.
##YFACTOR=0.001
##DELTAX=3.85796
##FIRSTX=501.5
##LASTX=4000.7
##FIRSTY=1.0854
##MAXX=4000.7
##MINX=501.534
##MAXY=0.099598
##MINY=0
##NPOINTS=908
##XYDATA=(X++(Y..Y))
501.534 1.0854 1.1342 1.1658 1.4134 1.628 2.008 2.248 2.258 2.278 2.298
540.114 2.298 2.238 2.218 2.288 2.388 2.608 3.048 3.828 5.198 7.568
578.693 11.158 14.918 16.218 14.318 11.548 9.518 8.378 7.978 7.948 8.138
617.273 8.268 8.138 8.288 9.138 10.728 12.578 13.478 12.578 10.568 8.898
655.852 8.008 7.878 8.348 9.158 10.348 12.068 14.528 17.738 21.318 25.098
694.432 29.788 35.568 41.158 43.988 40.678 32.758 24.378 17.738 13.828 11.918
733.011 10.958 10.268 9.548 8.938 8.728 8.828 9.178 9.268 8.698 7.678
771.591 6.778 6.428 6.348 6.238 5.968 5.548 4.878 4.098 3.378 2.848
810.170 2.558 2.348 2.138 2.008 2.008 2.068 2.238 2.498 2.748 2.878
848.750 2.818 2.598 2.438 2.368 2.278 2.268 2.278 2.278 2.298 2.308
887.330 2.318 2.418 2.518 2.518 2.508 2.518 2.638 2.838 3.128 3.528
925.909 3.858 4.008 4.028 4.078 4.318 4.808 5.488 6.498 7.958 9.848
964.489 11.888 13.598 14.698 15.028 14.568 13.608 12.908 13.038 14.258 17.098
1003.068 22.268 30.548 41.988 51.318 49.318 35.758 22.928 18.048 16.638 14.128
1041.648 11.178 9.548 8.938 8.628 8.428 8.338 8.198 7.838 7.158 6.158
1080.227 5.098 4.258 3.778 3.478 3.338 3.388 3.368 3.188 2.998 2.888
1118.807 2.768 2.668 2.638 2.718 2.778 2.878 3.098 3.488 4.108 4.878
1157.387 5.788 6.708 8.188 11.328 18.138 28.448 35.538 35.048 32.528 31.378
1195.966 27.598 21.828 17.638 15.378 14.848 15.788 17.818 20.208 22.268 23.818
1234.546 25.108 26.518 28.458 31.688 36.818 43.818 51.958 59.158 62.178 60.468
1273.125 57.148 56.248 60.468 71.178 86.978 99.598 98.418 82.878 64.448 54.048
1311.705 55.798 64.858 67.628 56.198 39.438 28.428 22.798 18.028 13.168 9.468
1350.284 7.288 6.018 5.308 5.028 4.988 4.938 4.888 4.878 4.818 4.618
1388.864 4.308 3.988 3.708 3.488 3.338 3.268 3.198 3.148 3.208 3.358
1427.443 3.678 4.338 5.688 8.538 13.578 18.658 18.738 13.278 7.418 4.678
1466.023 3.618 3.148 2.908 2.768 2.738 2.868 3.208 3.488 3.388 3.128
1504.603 2.998 2.958 2.958 2.898 2.808 2.788 2.828 2.858 2.868 2.908
1543.182 3.008 3.108 3.208 3.338 3.588 4.098 4.868 6.028 7.558 9.178
1581.762 10.318 10.868 11.538 13.128 14.998 15.438 14.028 12.258 11.248 10.448
1620.341 9.338 8.278 7.788 7.898 8.428 9.318 10.578 12.428 15.088 19.248
1658.921 25.458 35.308 49.678 67.218 82.278 88.008 82.318 68.908 54.348 41.568
1697.500 31.308 23.568 17.838 13.528 10.398 8.238 6.728 5.628 4.788 4.138
1736.080 3.648 3.298 3.048 2.868 2.758 2.708 2.688 2.678 2.578 2.438
1774.659 2.278 2.068 1.878 1.778 1.818 2.038 2.398 2.828 3.178 3.218
1813.239 2.888 2.418 2.048 1.808 1.628 1.498 1.3842 1.3262 1.2933 1.2746
1851.819 1.2399 1.1932 1.1588 1.1195 1.1151 1.1437 1.1717 1.2513 1.3855 1.558
1890.398 1.788 1.978 2.068 2.118 2.118 2.068 1.918 1.658 1.4029 1.2198
1928.978 1.1262 1.1071 1.1551 1.2973 1.508 1.768 2.038 2.188 2.208 2.228
1967.557 2.268 2.188 1.888 1.478 1.1894 1.0635 1.0037 0.978 0.9534 0.8972
2006.137 0.838 0.7801 0.7105 0.673 0.6507 0.6193 0.5903 0.54767 0.52671 0.5266
2044.716 0.52664 0.51944 0.52125 0.52659 0.51005 0.48081 0.457422 0.4318 0.4034 0.3951
2083.296 0.389 0.3841 0.3816 0.372 0.3668 0.3533 0.324 0.318 0.333 0.338
2121.875 0.335 0.328 0.326 0.321 0.332 0.322 0.299 0.324 0.332 0.351
2160.455 0.3639 0.3873 0.4225 0.4093 0.3894 0.3648 0.346 0.3513 0.3595 0.3497
2199.035 0.3609 0.3541 0.336 0.3584 0.3772 0.3819 0.3947 0.4039 0.3982 0.3948
2237.614 0.3872 0.4091 0.4341 0.4362 0.47681 0.50035 0.49157 0.50075 0.51289 0.5539
2276.194 0.5957 0.6013 0.6121 0.6001 0.5563 0.50812 0.49953 0.5497 0.6008 0.6945
2314.773 0.848 0.9705 0.9647 0.8376 0.7418 0.7277 0.7464 0.7459 0.69 0.6085
2353.353 0.53137 0.49126 0.46611 0.46217 0.4738 0.46103 0.44166 0.452482 0.48176 0.47745
2391.932 0.47632 0.50913 0.53811 0.5595 0.5767 0.5791 0.5886 0.6007 0.6111 0.5757
2430.512 0.51689 0.4898 0.46916 0.451037 0.4296 0.4192 0.3948 0.3621 0.3535 0.3575
2469.092 0.347 0.334 0.322 0.321 0.333 0.334 0.333 0.315 0.316 0.325
2507.671 0.332 0.361 0.381 0.3818 0.3685 0.3575 0.3686 0.3805 0.3899 0.4007
2546.251 0.3842 0.3617 0.3723 0.3849 0.3902 0.3827 0.3785 0.4092 0.44426 0.46756
2584.830 0.47549 0.4766 0.50267 0.54306 0.548 0.50531 0.44598 0.44412 0.46212 0.454491
2623.410 0.456783 0.48234 0.49261 0.450496 0.3859 0.356 0.339 0.322 0.324 0.321
2661.989 0.324 0.311 0.315 0.3515 0.3865 0.3802 0.3603 0.3592 0.3483 0.327
2700.569 0.336 0.3661 0.3601 0.32 0.301 0.318 0.324 0.339 0.3785 0.3912
2739.148 0.3517 0.333 0.305 0.309 0.3561 0.379 0.383 0.3962 0.4172 0.449315
2777.728 0.52353 0.54481 0.50293 0.5021 0.4791 0.431 0.4127 0.3961 0.4018 0.4259
2816.308 0.455829 0.44521 0.44662 0.48557 0.49668 0.50001 0.5436 0.54689 0.5482 0.58
2854.887 0.5741 0.6268 0.6655 0.7208 0.7793 0.7509 0.7391 0.7261 0.6872 0.7043
2893.467 0.7242 0.7128 0.6957 0.6859 0.6753 0.6713 0.6526 0.6219 0.6275 0.6
2932.046 0.5875 0.6014 0.597 0.54583 0.452314 0.4107 0.4375 0.46834 0.48846 0.51127
2970.626 0.5547 0.5843 0.629 0.6772 0.7217 0.8098 0.9163 1.0465 1.2139 1.458
3009.205 1.698 2.028 2.588 3.348 4.428 5.788 7.268 8.618 9.378 9.268
3047.785 8.678 8.678 9.628 11.218 13.358 16.438 19.778 20.528 17.708 14.498
3086.364 13.388 12.828 11.278 9.208 7.448 6.038 4.628 3.348 2.438 1.868
3124.944 1.4295 1.0989 0.9458 0.8674 0.822 0.8065 0.8144 0.8561 0.8667 0.8322
3163.524 0.7716 0.6662 0.5664 0.47982 0.395 0.3893 0.3775 0.329 0.306 0.294
3202.103 0.277 0.268 0.265 0.274 0.271 0.227 0.248 0.236 0.251 0.29
3240.683 0.265 0.266 0.288 0.303 0.309 0.306 0.327 0.3945 0.3753 0.3511
3279.262 0.4183 0.50294 0.5839 0.578 0.5683 0.5571 0.5146 0.5744 0.6484 0.6891
3317.842 0.7292 0.7882 0.8773 1.0075 1.1613 1.2555 1.2645 1.2735 1.3517 1.3873
3356.421 1.3094 1.2046 1.0206 0.8696 0.7639 0.5738 0.47599 0.4313 0.4013 0.3667
3395.001 0.267 0.195 0.166 0.232 0.238 0.182 0.23 0.259 0.263 0.207
3433.580 0.117 0.141 0.159 0.099 0.075 0.101 0.138 0.157 0.131 0.098
3472.160 0.126 0.186 0.176 0.136 0.126 0.15 0.177 0.126 0.069 0.093
3510.740 0.104 0.107 0.178 0.14 0.047 0.032 0.039 0.097 0.13 0.115
3549.319 0.121 0.09 0.052 0.099 0.106 0.119 0.163 0.194 0.179 0.096
3587.899 0.057 0.067 0.074 0.097 0.115 0.066 0.053 0.087 0.076 0.11
3626.478 0.14 0.087 0.102 0.132 0.121 0.201 0.245 0.217 0.198 0.193
3665.058 0.2 0.185 0.189 0.232 0.231 0.179 0.184 0.234 0.251 0.265
3703.637 0.311 0.305 0.23 0.218 0.247 0.233 0.155 0.119 0.161 0.238
3742.217 0.203 0.147 0.159 0.163 0.167 0.169 0.223 0.216 0.172 0.196
3780.797 0.227 0.169 0.153 0.172 0.147 0.171 0.189 0.159 0.099 0.047
3819.376 0.101 0.21 0.225 0.138 0.095 0.108 0.122 0.067 0.005 0.081
3857.956 0.076 0 0.061 0.103 0.08 0.124 0.211 0.181 0.091 0.153
3896.535 0.242 0.215 0.187 0.127 0.096 0.138 0.142 0.163 0.218 0.197
3935.115 0.155 0.138 0.114 0.114 0.205 0.219 0.153 0.167 0.143 0.107
3973.694 0.125 0.144 0.2 0.218 0.191 0.208 0.21 0.25
##END=
