##TITLE=3-Cyclopentyl-1-propyne
##JCAMP-DX=4.24
##DATA TYPE=INFRARED SPECTRUM
##ORIGIN=EPA-IR VAPOR PHASE LIBRARY
##OWNER=SRD/NIST
Collection (C) 2018 copyright by the U.S. Secretary of Commerce
on behalf of the United States of America. All rights reserved.
##CAS REGISTRY NO=40702-18-9
##MOLFORM=C 8 H 12
##$NIST SOURCE=MSDC-IR
##STATE=gas
##XUNITS=1/CM
##YUNITS=ABSORBANCE
##XFACTOR=1.
##YFACTOR=0.001
##DELTAX=1.92898
##FIRSTX=549.8
##LASTX=4000.7
##FIRSTY=1.8634
##MAXX=4000.7
##MINX=549.759
##MAXY=0.20719
##MINY=0
##NPOINTS=1790
##XYDATA=(X++(Y..Y))
549.759 1.8634 2.76 2.63 2.98 3.2 3.52 4.38 3.9 3.54 3.11
569.049 2.0392 2.38 4.27 5.25 4.54 3.86 4.25 3.84 3.79 4.97
588.339 4.86 4.94 5.85 6.44 7.99 9.46 9.88 11.55 13.62 15.87
607.628 19.63 23.74 28.17 34.06 39.68 46.14 55.51 65.67 78.65 96.64
626.918 118.4 143.87 163.61 176.89 172.24 151.1 133.58 115.84 97.49 81.28
646.208 68.14 56.43 45.82 36.92 29.49 23.51 19.64 15.89 12.72 10.74
665.498 8.63 7.29 6.49 6.02 5.63 5.16 4.57 4.16 3.7 2.8
684.787 2.75 3.17 3.28 2.86 2.69 3.26 3.5 3.14 2.92 2.89
704.077 2.67 2.76 2.63 2.55 2.2 2.0569 2.45 2.67 2.46 2.34
723.367 2.84 2.54 2.38 2.63 2.017 1.5637 1.7591 2.1674 2.21 1.9743
742.657 2.27 2.32 2.1025 2.47 2.42 1.7494 2.1325 2.67 2.35 2.28
761.947 2.52 2.4 2.35 2.65 2.79 2.45 2.1088 2.32 2.57 2.1477
781.236 1.968 2.68 2.95 2.89 3.16 2.61 2.62 2.62 2.29 2.94
800.526 2.93 2.48 2.0394 2.22 2.32 1.8582 2.1373 2.75 2.55 2.118
819.816 2.65 2.39 1.6818 2.52 2.41 2.44 2.91 2.5 2.42 2.27
839.106 2.78 3.34 2.88 2.51 2.32 2.1258 2.26 2.66 3.02 2.42
858.395 2.37 2.58 2.36 2.59 2.9 3.21 3.25 3.36 3.17 3.02
877.685 3.42 3.64 3.79 4.17 4.08 3.62 3.77 3.94 4.47 4.8
896.975 4.28 4.1 4.25 3.95 3.66 3.64 3.71 3.7 3.93 3.8
916.265 3.42 3.28 3.06 3.17 3.33 3.26 3.08 2.98 3.19 3.14
935.555 2.91 2.89 3.22 3.23 2.91 2.73 3.09 3.33 2.76 2.25
954.844 2.1787 2.81 2.95 2.64 2.52 2.62 1.7534 1.5032 2.21 2.27
974.134 2.1486 2.32 2.48 2.5 2.1453 1.8075 1.8289 1.25803 1.7157 2.52
993.424 1.8636 1.25215 1.1048 1.5234 1.8638 1.6642 1.487 1.1285 1.1112 1.042
1012.714 1.1173 1.1692 0.882 0.607 0.887 1.5852 2.1298 1.9057 1.8074 1.4043
1032.003 0.826 0.562 0.463 0.915 1.8393 2.63 2.35 2.23 2.25 2.1071
1051.293 1.439 1.1277 1.3499 1.031 1.19712 1.20849 1.4425 1.5457 0.231 0
1070.583 1.064 1.6806 0.605 0.779 1.5744 0.878 0.635 1.3835 0.987 0.696
1089.873 1.4518 0.921 1.4141 1.8056 1.4023 1.8479 2.38 2.0059 2.65 2.91
1109.163 2.48 2.1135 2.27 1.7173 0.953 2.26 2.61 1.6622 0.945 2.33
1128.452 3.89 2.9 1.8568 2.33 2.23 2.32 2.66 2.97 3.82 4.38
1147.742 3.78 4.06 5.58 4.55 3.71 2.82 2.37 3.77 3.58 3.85
1167.032 4.02 3.42 3.34 3.06 2.65 2.29 2.21 2.96 3.7 3.21
1186.322 3.67 4.23 3.85 3.95 3.59 4.35 5.54 5.62 5.6 5.12
1205.611 4.45 4.66 5.65 5.99 5.7 5.3 6.31 7.92 9.75 11.53
1224.901 12.8 13.59 17.26 20.43 23.77 29.14 32.92 37.27 40.24 41.61
1244.191 41.98 41 39.92 40 41.18 39.95 35.68 31.81 27.98 23.17
1263.481 18.89 15.55 13.11 11.65 10.96 10.88 10.45 9.88 9.79 9.62
1282.771 9.29 8.97 9.09 9.11 8.78 8.62 8.28 7.98 8.02 8.04
1302.060 7.77 7.55 7.47 7.64 8.01 8.1 8.3 8.43 8.2 8.05
1321.350 7.92 7.89 7.89 7.54 7.26 7.12 6.94 6.83 6.58 6.32
1340.640 6.48 6.62 6.55 6.73 7.05 7.24 7.35 7.46 7.54 7.29
1359.930 7.16 6.93 6.42 6.21 5.65 5.04 4.66 4.32 3.98 3.78
1379.219 3.49 3.13 3.07 3.05 3.09 3.16 3.16 3.2 3.25 3.27
1398.509 3.5 3.66 3.81 4.13 4.26 4.63 5.18 5.6 5.89 6.12
1417.799 6.65 7.69 8.67 9.55 10.55 11.35 12.14 12.91 13.67 14.35
1437.089 14.54 14.51 14.76 15.06 15.1 14.88 14.51 14.28 14 13.6
1456.378 13.21 12.75 12.22 11.93 11.6 11.21 10.87 10.32 9.74 9.25
1475.668 9.08 9.01 8.6 7.94 7.51 7.21 6.59 6.14 5.84 5.29
1494.958 4.74 4.36 4.1 3.78 3.49 3.1 3.03 3.16 3.04 2.75
1514.248 2.44 2.35 2.46 2.42 2.1518 1.7918 1.8563 2.0869 2.0633 1.9086
1533.538 1.713 1.5153 1.4636 1.7716 1.8417 1.7774 1.9036 1.7205 1.7048 1.8584
1552.827 1.6497 1.6615 1.7269 1.6952 1.9255 1.9309 1.6277 1.6242 1.699 1.7486
1572.117 1.7121 1.6441 1.7849 1.5127 1.358 1.7293 1.719 1.6251 1.6487 1.5117
1591.407 1.8997 2.22 2.0851 1.6974 1.6222 1.8851 1.9461 1.8755 1.5695 1.6075
1610.697 1.8715 1.8441 1.6876 1.6119 1.6127 1.5463 1.5629 1.6551 1.688 1.6134
1629.986 1.6952 1.7384 1.791 1.7975 1.5598 1.593 1.7381 1.9127 2.099 2.0087
1649.276 1.7373 1.623 1.6455 1.5703 1.3641 1.5039 1.6834 1.8192 1.793 1.506
1668.566 1.6328 1.766 1.572 1.6632 1.5796 1.4218 1.5565 1.5099 1.6621 1.808
1687.856 1.6926 1.3655 1.3409 1.474 1.503 1.7018 1.8385 1.7276 1.6915 1.7427
1707.146 1.6905 1.6694 1.5925 1.5897 1.5402 1.4736 1.7247 1.7329 1.6013 1.7442
1726.435 1.6582 1.5724 1.6029 1.5736 1.6913 1.5929 1.469 1.6685 1.7513 1.5956
1745.725 1.5663 1.7243 1.7506 1.7093 1.6668 1.576 1.5605 1.6274 1.6808 1.735
1765.015 1.6284 1.7013 1.7388 1.6929 1.7357 1.6728 1.7298 1.7598 1.7693 1.6485
1784.305 1.5412 1.7115 1.6293 1.3307 1.4178 1.551 1.5209 1.5678 1.5895 1.3953
1803.594 1.4256 1.6273 1.4861 1.3013 1.3664 1.4529 1.4109 1.3338 1.4115 1.3399
1822.884 1.19642 1.3832 1.4062 1.26347 1.3346 1.4174 1.28719 1.20748 1.26379 1.23552
1842.174 1.22337 1.3971 1.4589 1.20704 1.1401 1.3958 1.4644 1.3276 1.3386 1.4336
1861.464 1.3352 1.3003 1.3892 1.21881 1.3213 1.3908 1.26039 1.25369 1.25293 1.3133
1880.754 1.3795 1.5163 1.6546 1.5899 1.3861 1.4527 1.5046 1.4996 1.4893 1.5634
1900.043 1.6201 1.4383 1.3436 1.3317 1.28659 1.29914 1.4056 1.28363 1.071 1.1
1919.333 1.22461 1.4052 1.3804 1.20994 1.332 1.4142 1.3548 1.4515 1.304 1.1112
1938.623 1.1145 1.149 1.1726 1.078 1.1718 1.4493 1.4265 1.20044 1.29279 1.3338
1957.913 1.3581 1.3727 1.19144 1.4593 1.5899 1.4473 1.3339 1.23609 1.4009 1.4142
1977.202 1.3646 1.3206 1.21981 1.3435 1.4108 1.3384 1.3045 1.3514 1.4409 1.5294
1996.492 1.349 1.19918 1.29184 1.4011 1.5144 1.4001 1.25289 1.3101 1.29841 1.1357
2015.782 1.23786 1.27808 1.3129 1.4679 1.3288 1.3384 1.4885 1.3522 1.19442 1.3274
2035.072 1.5044 1.5012 1.4635 1.3304 1.4116 1.5373 1.5584 1.6456 1.6244 1.6354
2054.362 1.5974 1.5738 1.5367 1.5309 1.4881 1.5151 1.4832 1.3877 1.668 1.9669
2073.651 2.0103 2.1213 2.1062 2.0593 2.53 2.84 2.89 3.14 3.39 3.63
2092.941 3.95 4.31 4.84 5.39 6.01 6.5 7.12 7.93 8.57 9.13
2112.231 9.52 9.72 9.69 9.63 9.42 9.08 8.5 7.81 7.13 6.28
2131.521 5.38 4.62 3.98 3.21 2.67 2.32 2.0068 1.9137 1.6483 1.6187
2150.810 1.7821 1.652 1.7327 1.7111 1.6573 1.7307 1.6408 1.556 1.6952 1.7337
2170.100 1.5538 1.4425 1.8338 1.9232 1.711 1.8584 1.8724 1.6457 1.5326 1.7587
2189.390 1.9498 2.0687 1.9225 1.8365 1.8339 1.6753 1.6964 1.7286 1.8051 1.903
2208.680 1.6913 1.6349 1.8279 1.7111 1.6824 1.9702 1.8951 1.7891 1.8451 1.6354
2227.970 1.4636 1.4979 1.7518 1.9142 1.8138 1.8204 1.9796 1.9886 1.9574 1.8411
2247.259 1.6911 1.8043 1.8232 1.7159 1.7738 1.7212 1.5249 1.6968 1.7922 1.6869
2266.549 1.7365 1.7988 1.9921 1.9875 1.8319 1.9427 2.0177 1.7357 1.5283 1.7007
2285.839 1.7586 1.6735 2.0062 2.1342 1.8391 1.631 1.7247 1.7624 1.6278 1.5706
2305.129 1.552 1.6518 1.7508 2.0071 1.9779 1.9493 1.8912 1.7128 1.91 1.8454
2324.418 1.5721 1.5391 1.6031 1.7472 1.8524 1.6702 1.6102 1.5657 1.351 1.6004
2343.708 1.9035 1.8086 1.6804 1.6572 1.5892 1.5415 1.5096 1.7391 1.8198 1.8173
2362.998 1.8722 1.8188 1.712 1.7002 1.9843 2.0416 1.7011 1.3978 1.5745 1.5473
2382.288 1.5924 1.7627 1.6007 1.6271 1.7111 1.7955 1.519 1.3351 1.6326 1.5942
2401.578 1.29792 1.22825 1.4814 1.7154 1.6105 1.5325 1.3756 1.29374 1.3927 1.4807
2420.867 1.3324 1.18 1.23844 1.3239 1.3595 1.2326 1.27951 1.23836 1.26168 1.3401
2440.157 1.3334 1.23835 1.077 1.23958 1.6509 1.6736 1.4602 1.5967 1.5644 1.3456
2459.447 1.3542 1.1703 1.24436 1.4548 1.3375 1.3063 1.1886 1.1287 1.1856 1.1533
2478.737 1.28781 1.3894 1.3623 1.4678 1.4157 1.4927 1.5768 1.3465 1.2298 1.23502
2498.026 1.3835 1.6152 1.5861 1.3502 1.4327 1.5756 1.3556 1.20765 1.25883 1.5269
2517.316 1.645 1.4857 1.3016 1.4654 1.727 1.4821 1.4516 1.4614 1.20656 1.4377
2536.606 1.7192 1.6446 1.5357 1.5621 1.5719 1.3704 1.26771 1.26811 1.3544 1.6279
2555.896 1.6939 1.8652 1.9082 1.9279 2.0273 1.9401 1.9053 1.6445 1.676 2.0442
2575.186 2.017 2.0489 2.0902 1.9415 2.0992 2.3 2.1768 1.8588 2.0076 2.24
2594.475 2.3 2.31 2.1574 2.23 2.29 2.1502 2.4 2.51 2.43 2.42
2613.765 2.3 2.1976 2.0435 1.9375 1.7723 1.755 1.7953 2.0483 2.33 2.33
2633.055 2.062 1.8707 2.0648 1.9965 1.8982 1.9389 1.6435 1.6579 1.8733 1.9527
2652.345 2.0305 2.0511 2.2 2.1285 2.31 2.1677 1.6356 2.0275 2.6 2.35
2671.634 1.9635 2.35 2.33 1.8716 1.8558 1.9974 2.38 2.59 2.48 2.1646
2690.924 2.5 2.95 3.05 3.22 2.91 2.73 2.82 2.64 2.43 2.78
2710.214 2.66 2.21 2.41 2.45 2.42 2.49 2.58 2.62 2.55 2.1812
2729.504 2.37 2.72 2.67 2.65 2.47 2.31 2.43 2.68 2.77 3
2748.794 2.91 2.76 2.67 2.61 2.66 2.33 2.51 2.7 2.8 3.14
2768.083 2.85 2.71 3.11 3.42 3.34 3.35 3.26 3.26 3.41 3.41
2787.373 3.95 4.28 4.12 4.03 3.91 4.03 4.6 4.78 4.88 5.12
2806.663 5.36 5.66 5.71 5.91 6.41 6.79 7.07 7.79 8.52 9.46
2825.953 10.4 11.25 12.22 13.27 14.47 15.77 17.03 18.26 19.63 20.64
2845.242 21.78 23.84 25.75 27.71 30.3 32.63 35.61 38.83 42.38 46.72
2864.532 50.51 54.55 58.53 62.17 65.94 69.26 71.73 72.95 73.49 73.89
2883.822 73.09 72.02 71.09 69.9 68.67 67.18 66.09 65.57 65.78 67.32
2903.112 69.9 73.07 76.78 80.92 85.5 90.3 94.97 99.12 103.46 107.21
2922.401 110.7 114.62 118.27 121.98 125.8 129.11 132.35 136.94 142.2 146.81
2941.691 152.4 159.22 166.39 173.41 180.01 186.2 191.88 197.09 201.53 205.3
2960.981 207.19 204.72 196.09 182.79 168.1 154.48 141.55 128.28 115.17 102.26
2980.271 89.92 78.6 68.53 59.53 51.19 44.39 38.94 34.06 30.13 27.1
2999.561 24.38 22.06 20.19 18.48 17.19 15.91 14.23 13.31 12.44 11.51
3018.850 10.76 10 9.59 9.17 8.76 7.92 6.92 6.46 6.25 6.1
3038.140 6 5.5 5.5 5.26 4.81 4.77 4.37 3.92 4 4.29
3057.430 4.3 3.95 3.83 4.12 4.13 4.2 4.17 3.12 2.63 2.89
3076.720 2.5 2.62 2.96 2.61 2.22 2.26 2.23 2.59 2.7 2.67
3096.009 2.79 2.78 2.86 2.42 2.69 2.68 2.27 2.38 2.35 2.37
3115.299 2.34 2.0918 2.25 2.49 1.9278 1.7436 1.8069 1.8229 1.7729 1.3506
3134.589 1.3522 1.7697 1.9931 1.5701 1.5535 1.9332 1.803 1.6488 1.846 1.6824
3153.879 1.4033 1.369 1.6187 2.0749 1.791 1.19778 1.04 1.5065 1.4527 1.064
3173.169 1.3048 1.6926 1.5918 1.6285 1.7103 1.8487 2.22 2.1558 1.5651 1.4771
3192.458 1.9727 2.1605 1.8892 1.21481 0.852 1.086 1.4186 1.8325 1.854 1.9038
3211.748 1.6299 1.4836 1.5162 1.23192 1.3731 1.5558 1.5451 1.6585 1.7751 1.4229
3231.038 1.5618 2.0646 2.51 1.9823 2.1163 2.78 2.46 2.57 2.86 2.99
3250.328 2.55 1.9865 2.77 3.29 2.95 3.22 3.28 3.51 3.64 3.69
3269.617 4.43 5.03 5.94 6.57 6.91 7.72 8.22 8.77 9.9 10.83
3288.907 11.14 12.41 14.46 16.74 19.3 21.66 23.16 24.07 25.24 27.22
3308.197 29.61 32.13 36.85 43.59 49.99 55.02 58.88 59.88 58.62 57.1
3327.487 56.63 55.26 54.23 56.1 54.44 47.04 37.36 28.06 21.45 17.76
3346.777 14.7 12.28 10.82 9.28 8.4 7.58 6.67 5.95 5.07 4.6
3366.066 3.96 3.15 3.03 2.92 2.58 2.34 2.184 2.41 2.59 2.45
3385.356 2.3 2.0964 1.8638 1.9622 2.0179 1.7486 2.0246 2.23 1.9622 1.8702
3404.646 1.7425 2.24 2.52 1.6737 1.3118 1.7856 1.9452 1.993 1.4571 0.94
3423.936 1.24879 1.4514 1.4165 1.6944 1.7794 1.357 1.3065 1.528 1.3558 1.5037
3443.225 2.0349 1.5374 1.061 1.2203 1.5676 1.8819 1.9411 1.4113 1.1011 1.5468
3462.515 2.0839 2.29 1.8499 1.3668 1.2344 1.549 1.3754 1.028 1.009 1.4789
3481.805 1.567 1.19217 1.5126 1.6279 1.348 1.029 1.1262 1.3925 1.3392 1.3204
3501.095 1.29433 1.1345 1.3127 1.5281 1.9128 1.5167 1.19374 1.5701 1.5077 1.4499
3520.385 1.6391 1.5794 1.6434 1.6019 1.3708 1.6081 1.4526 1.1857 1.072 1.4197
3539.674 1.7121 1.3917 1.49 1.5597 1.5856 1.7131 1.20459 0.594 0.849 1.8293
3558.964 1.3993 0.804 1.3632 1.5732 1.8319 1.8043 2.0999 2.1189 1.077 0.426
3578.254 0.781 1.7547 2.1275 1.9396 1.8673 1.515 1.1027 1.26571 1.5326 1.5741
3597.544 1.25108 0.779 0.964 1.26773 1.1124 1.1199 1.26823 1.1502 1.1758 0.934
3616.833 0.819 1.022 0.899 1.1606 1.3599 1.3233 1.2592 1.5688 1.5237 1.1609
3636.123 1.25703 0.704 0.553 1.27915 1.5202 1.9456 1.9812 1.4048 1.075 0.921
3655.413 1.4076 1.5005 1.5606 1.5 1.28422 1.3946 0.897 1 1.475 1.7093
3674.703 1.9383 2.0007 1.94 1.7529 1.3479 1.20886 1.3532 1.1198 1.19729 1.22932
3693.993 1.27248 1.5439 1.3324 1.4907 1.8219 1.22716 1.1347 0.923 0.514 1.1411
3713.282 1.1086 1.19449 1.5253 1.7159 1.5889 1.24417 1.3123 1.24565 1.4163 1.28283
3732.572 0.928 0.908 1.1926 1.322 1.3949 1.5475 1.5606 1.3791 1.1326 0.851
3751.862 0.805 0.834 0.827 1.107 1.046 1.084 1.20627 1.3142 1.5887 1.6688
3771.152 1.4676 1.6305 2.1588 2.0704 1.9139 1.712 1.4339 1.4814 1.5191 1.4526
3790.441 1.7611 1.9927 1.8046 2.0142 1.8472 1.3997 1.5192 1.4917 1.25978 1.3513
3809.731 1.8046 1.8916 1.8125 1.7591 1.5437 1.6914 1.5895 1.008 0.824 0.71
3829.021 1.19864 1.7879 1.6239 1.7587 1.9687 1.828 1.5606 1.3153 0.811 0.613
3848.311 1.4012 1.7541 1.5194 1.8187 2.0231 1.8914 2.1222 2.1575 1.702 1.5165
3867.601 1.679 1.9417 1.6817 1.479 1.28011 0.897 1.1377 1.3774 1.8619 2.26
3886.890 1.9229 1.9656 2.1173 1.4994 1.012 1.26902 1.5923 1.5497 1.5927 2.0241
3906.180 1.847 1.6082 1.503 1.3576 2.0539 2.28 2.0274 2.1297 1.8356 1.6626
3925.470 2.28 2.45 2.34 2.4 2.54 2.49 2.3 2.5 2.54 2.32
3944.760 1.9331 1.9132 1.7042 1.21585 1.3609 1.4285 1.21695 1.002 0.805 1.27583
3964.049 1.4328 0.709 0.835 1.25258 1.4753 1.7507 1.3003 0.848 1.5035 2.38
3983.339 2.73 2.1798 1.1213 1.3493 1.4759 1.064 1.3766 1.5196 0.981 0.908
##END=
