##TITLE=1-Methanesulfonylimidazole
##JCAMP-DX=4.24
##DATA TYPE=INFRARED SPECTRUM
##ORIGIN=EPA-IR VAPOR PHASE LIBRARY
##OWNER=SRD/NIST
Collection (C) 2018 copyright by the U.S. Secretary of Commerce
on behalf of the United States of America. All rights reserved.
##CAS REGISTRY NO=40736-26-3
##MOLFORM=C 4 H 6 N 2 O 2 S
##$NIST SOURCE=MSDC-IR
##STATE=gas
##XUNITS=1/CM
##YUNITS=ABSORBANCE
##XFACTOR=1.
##YFACTOR=0.001
##DELTAX=1.92898
##FIRSTX=549.8
##LASTX=4000.7
##FIRSTY=26.643
##MAXX=4000.7
##MINX=549.759
##MAXY=0.081203
##MINY=0
##NPOINTS=1790
##XYDATA=(X++(Y..Y))
549.759 26.643 33.573 38.363 40.133 40.413 42.533 45.293 42.833 38.843 38.323
569.049 35.813 28.913 20.343 12.593 7.523 4.713 3.233 2.653 2.403 2.193
588.339 2.373 2.803 3.153 3.633 4.033 4.363 4.713 5.113 5.533 5.913
607.628 6.033 5.883 5.483 5.023 4.643 4.303 3.953 3.543 3.393 3.163
626.918 3.183 3.593 3.933 4.393 4.903 5.243 5.533 6.233 7.183 8.163
646.208 8.693 8.033 7.333 6.973 6.583 6.123 5.313 4.583 3.843 3.303
665.498 3.043 2.533 1.973 1.583 1.493 1.493 1.1663 0.9027 0.7876 0.6027
684.787 0.6219 0.7075 0.7453 0.7357 0.728 0.6572 0.7317 0.9903 1.0162 1.1377
704.077 1.343 1.683 2.133 2.293 2.623 3.253 3.883 4.453 5.253 6.013
723.367 6.553 7.303 8.163 9.023 9.923 10.583 10.733 11.093 11.863 12.823
742.657 14.043 15.613 17.573 19.663 22.043 24.753 27.253 29.463 31.203 32.503
761.947 33.103 32.583 31.303 29.433 26.833 23.833 20.413 16.863 13.533 10.543
781.236 8.183 6.223 4.713 3.763 3.053 2.523 2.383 2.343 2.253 2.383
800.526 2.563 2.833 3.203 3.683 4.173 4.743 5.423 5.873 6.293 6.823
819.816 7.373 8.053 8.813 8.933 8.023 7.193 6.683 6.073 5.493 4.673
839.106 3.913 3.493 2.953 2.363 2.183 1.913 1.453 1.413 1.373 1.21
858.395 1.1563 1.1339 1.343 1.353 1.2272 1.323 1.1758 1.2195 1.613 1.993
877.685 2.303 2.573 2.993 3.403 3.333 3.423 3.743 3.693 3.473 3.413
896.975 3.153 2.833 2.643 2.433 2.293 2.093 1.823 1.793 1.753 1.713
916.265 1.753 1.613 1.443 1.423 1.523 1.543 1.533 1.613 1.703 1.853
935.555 2.213 2.693 3.593 4.963 6.803 8.883 11.323 14.083 15.793 16.413
954.844 16.813 17.993 18.233 16.463 15.823 15.643 13.773 10.893 7.993 5.813
974.134 4.143 3.273 3.063 2.883 3.263 3.503 3.663 4.113 4.443 4.723
993.424 4.863 5.103 5.353 5.153 4.823 4.583 4.473 4.233 3.783 3.273
1012.714 2.723 2.493 2.383 2.503 2.913 3.453 4.213 5.263 7.083 9.503
1032.003 13.213 18.653 25.333 32.913 39.913 44.073 45.513 46.103 48.713 50.233
1051.293 45.933 44.013 44.593 39.733 30.253 20.513 13.303 8.723 6.143 4.543
1070.583 3.933 3.793 3.693 4.183 4.753 5.593 6.543 7.463 8.403 9.023
1089.873 9.783 10.513 10.613 10.423 10.053 9.383 8.323 7.923 7.483 6.433
1109.163 5.923 4.913 4.363 4.333 3.943 3.873 4.393 4.883 5.163 6.263
1128.452 7.653 9.343 11.383 14.043 17.943 21.693 25.553 29.713 33.063 35.393
1147.742 36.843 37.963 38.863 38.713 37.223 35.003 31.983 27.943 23.853 20.643
1167.032 19.223 20.333 23.353 28.133 34.933 43.073 52.063 60.993 68.453 74.173
1186.322 78.143 80.543 81.203 77.913 72.063 67.423 62.573 54.163 42.673 31.943
1205.611 23.093 16.823 12.863 10.023 8.323 6.723 5.513 4.663 4.023 3.873
1224.901 3.813 4.223 4.343 4.123 4.433 4.803 5.233 5.543 5.503 5.733
1244.191 6.113 6.303 6.463 6.623 6.523 6.223 6.083 5.943 5.803 5.293
1263.481 4.823 4.413 3.923 3.623 3.373 3.223 2.893 2.513 2.333 2.093
1282.771 1.733 1.513 1.533 1.483 1.403 1.493 1.493 1.443 1.453 1.563
1302.060 1.693 1.813 2.013 2.243 2.563 3.043 3.503 4.073 4.663 5.153
1321.350 5.743 6.413 6.993 7.623 8.283 8.763 8.953 8.903 8.843 8.683
1340.640 8.463 8.163 7.723 7.233 6.723 6.173 5.683 5.303 5.063 4.883
1359.930 4.753 4.783 5.143 5.883 6.983 8.403 10.133 12.233 14.743 17.683
1379.219 21.043 24.893 29.063 33.513 38.313 43.153 47.743 51.813 55.153 57.473
1398.509 58.223 57.333 55.363 53.343 51.573 48.543 43.643 38.023 32.593 27.513
1417.799 22.953 19.053 15.843 13.183 11.103 9.783 8.903 8.233 7.713 7.513
1437.089 7.543 7.623 7.853 8.183 8.503 8.723 8.883 9.133 9.473 9.823
1456.378 10.263 10.753 11.193 11.583 11.933 12.153 12.183 12.073 11.893 11.743
1475.668 11.443 10.703 9.853 9.133 8.333 7.193 5.993 4.993 4.223 3.773
1494.958 3.503 3.423 3.453 3.463 3.473 3.653 3.943 4.243 4.573 4.913
1514.248 5.073 5.103 5.153 5.203 5.273 4.943 4.613 4.423 3.983 3.423
1533.538 2.803 2.213 1.843 1.663 1.573 1.493 1.443 1.383 1.353 1.453
1552.827 1.483 1.403 1.373 1.413 1.413 1.373 1.363 1.333 1.283 1.1189
1572.117 1.0923 1.2005 1.1468 1.1757 1.303 1.333 1.413 1.633 1.833 2.083
1591.407 2.333 2.443 2.503 2.503 2.413 2.413 2.393 2.333 2.253 2.023
1610.697 1.843 1.653 1.403 1.2466 1.0974 1.0955 1.0734 1.0608 1.1431 1.2729
1629.986 1.393 1.463 1.563 1.613 1.703 1.803 1.863 1.923 1.903 1.833
1649.276 1.813 1.803 1.693 1.533 1.423 1.303 1.1226 0.9622 0.865 0.8565
1668.566 0.9176 0.9333 0.9414 1.0091 1.0525 1.0184 1.1083 1.1947 1.189 1.283
1687.856 1.433 1.493 1.503 1.523 1.503 1.383 1.2313 1.2493 1.2308 1.0436
1707.146 0.9183 0.8674 0.9037 0.9461 0.9723 0.9711 0.897 0.8821 1.022 1.0899
1726.435 1.0788 1.1154 1.0635 1.0354 1.058 1.065 1.0251 0.9475 0.9284 0.8451
1745.725 0.7687 0.765 0.6838 0.5512 0.4675 0.46 0.37136 0.2852 0.32575 0.385
1765.015 0.4218 0.411 0.3989 0.3935 0.36236 0.26347 0.2486 0.32544 0.30772 0.32351
1784.305 0.3549 0.31918 0.33323 0.34157 0.28973 0.31638 0.32925 0.276816 0.27049 0.34205
1803.594 0.4008 0.3787 0.3749 0.31509 0.273159 0.30399 0.31797 0.31955 0.30585 0.35812
1822.884 0.36629 0.3217 0.31828 0.32482 0.32173 0.32848 0.34699 0.35633 0.34449 0.4022
1842.174 0.4422 0.4035 0.3843 0.34039 0.3857 0.374 0.30253 0.32485 0.33232 0.28855
1861.464 0.28381 0.33179 0.30435 0.26882 0.2502 0.2199 0.2483 0.277298 0.276033 0.26925
1880.754 0.278039 0.34596 0.35426 0.29529 0.30158 0.33581 0.29536 0.2304 0.3064 0.4039
1900.043 0.382 0.35889 0.33807 0.31359 0.30661 0.3182 0.3941 0.465 0.4206 0.33081
1919.333 0.30933 0.29156 0.26773 0.32227 0.34888 0.28492 0.31968 0.3931 0.34939 0.37281
1938.623 0.3869 0.3761 0.3857 0.35689 0.3762 0.32512 0.2869 0.34752 0.4064 0.4149
1957.913 0.3942 0.31547 0.31291 0.3946 0.3738 0.34024 0.33463 0.33778 0.3846 0.36641
1977.202 0.31724 0.36857 0.4219 0.36492 0.2529 0.280522 0.32053 0.29762 0.27109 0.2216
1996.492 0.1815 0.202 0.2522 0.280548 0.30635 0.30733 0.34936 0.36043 0.36023 0.35715
2015.782 0.33163 0.3433 0.3344 0.3304 0.3285 0.3785 0.4091 0.4204 0.5216 0.5118
2035.072 0.467 0.4623 0.4877 0.5506 0.5758 0.5694 0.5607 0.5504 0.5289 0.538
2054.362 0.5046 0.4601 0.4612 0.4814 0.4609 0.4017 0.3895 0.4299 0.4274 0.409
2073.651 0.4252 0.4071 0.4673 0.4985 0.4572 0.548 0.6144 0.6051 0.5922 0.565
2092.941 0.567 0.5377 0.5069 0.4967 0.519 0.4939 0.4324 0.419 0.4209 0.35506
2112.231 0.33296 0.37134 0.4461 0.5019 0.4981 0.4756 0.4645 0.5101 0.54 0.5449
2131.521 0.5803 0.6027 0.559 0.5675 0.6245 0.6988 0.712 0.73 0.7118 0.6619
2150.810 0.6376 0.6572 0.6775 0.6181 0.5278 0.5673 0.6069 0.526 0.481 0.4431
2170.100 0.4554 0.4212 0.35675 0.4182 0.4528 0.5138 0.5504 0.476 0.4726 0.4156
2189.390 0.4629 0.5895 0.5352 0.4588 0.4622 0.4714 0.4952 0.5412 0.4701 0.4002
2208.680 0.36915 0.31865 0.3866 0.4619 0.3951 0.32324 0.3759 0.4489 0.4312 0.4065
2227.970 0.4275 0.4333 0.4012 0.35679 0.34757 0.4374 0.478 0.4092 0.3925 0.4064
2247.259 0.4481 0.4925 0.485 0.4495 0.4387 0.4956 0.4913 0.4422 0.37057 0.35522
2266.549 0.4095 0.4937 0.5224 0.5174 0.5371 0.5032 0.5937 0.6217 0.5185 0.5791
2285.839 0.6916 0.6964 0.7 0.7343 0.6716 0.604 0.6335 0.7027 0.7275 0.7041
2305.129 0.6546 0.604 0.5332 0.525 0.4975 0.5341 0.6302 0.5827 0.5699 0.5667
2324.418 0.5732 0.5091 0.542 0.6655 0.7365 0.7545 0.7405 0.7781 0.7306 0.7109
2343.708 0.6747 0.6757 0.7439 0.7585 0.7334 0.6731 0.659 0.66 0.6325 0.5519
2362.998 0.5804 0.6272 0.6201 0.6218 0.5942 0.5923 0.5867 0.512 0.4691 0.5175
2382.288 0.4976 0.4073 0.44 0.5319 0.4987 0.4614 0.4482 0.5231 0.4988 0.3978
2401.578 0.4614 0.4887 0.4191 0.36823 0.35508 0.4072 0.4935 0.4263 0.4068 0.4738
2420.867 0.5205 0.5382 0.4667 0.4612 0.4619 0.4757 0.5386 0.5154 0.4346 0.32974
2440.157 0.3629 0.4802 0.5243 0.5251 0.5322 0.5271 0.4968 0.5416 0.5736 0.5665
2459.447 0.6224 0.6517 0.6405 0.6653 0.7201 0.7041 0.6134 0.5828 0.7013 0.8001
2478.737 0.7876 0.7578 0.6611 0.632 0.6485 0.7039 0.7742 0.775 0.7272 0.7253
2498.026 0.8184 0.8377 0.7841 0.7346 0.7775 0.858 0.7725 0.6873 0.7133 0.7588
2517.316 0.7567 0.707 0.7114 0.7411 0.6756 0.6091 0.6045 0.5319 0.5527 0.54
2536.606 0.4364 0.491 0.5101 0.5201 0.5455 0.5691 0.5809 0.5867 0.5807 0.6241
2555.896 0.7317 0.7072 0.7275 0.8128 0.7626 0.7428 0.7677 0.7403 0.7152 0.7169
2575.186 0.6908 0.6664 0.6862 0.7113 0.7126 0.7208 0.7843 0.7511 0.6563 0.6293
2594.475 0.7294 0.7198 0.6176 0.5587 0.5346 0.515 0.534 0.5494 0.5604 0.5511
2613.765 0.547 0.623 0.6496 0.6319 0.5734 0.4984 0.5322 0.6098 0.599 0.4578
2633.055 0.33794 0.3865 0.465 0.4947 0.4486 0.534 0.5875 0.4487 0.4922 0.5154
2652.345 0.4104 0.4336 0.4681 0.5118 0.4838 0.4788 0.5362 0.4703 0.4063 0.4498
2671.634 0.5468 0.5386 0.4515 0.4277 0.4638 0.413 0.3669 0.4742 0.5458 0.5288
2690.924 0.4423 0.34415 0.33137 0.34408 0.4362 0.4923 0.4863 0.4795 0.4653 0.4977
2710.214 0.4149 0.30649 0.272421 0.34318 0.4637 0.4124 0.34065 0.35847 0.35402 0.4799
2729.504 0.5223 0.3906 0.35422 0.31803 0.3767 0.5226 0.4589 0.34559 0.33959 0.4406
2748.794 0.4477 0.33143 0.3747 0.4276 0.35441 0.30887 0.33165 0.3877 0.3761 0.34335
2768.083 0.31666 0.377 0.4201 0.455 0.5206 0.3811 0.34041 0.4617 0.5408 0.5098
2787.373 0.463 0.558 0.594 0.5111 0.5365 0.4972 0.36017 0.34352 0.4783 0.4447
2806.663 0.4102 0.4354 0.3873 0.32065 0.26782 0.28724 0.34167 0.3945 0.35783 0.30216
2825.953 0.31506 0.35634 0.36015 0.4125 0.34397 0.32089 0.4199 0.4413 0.4669 0.406
2845.242 0.35054 0.35546 0.33411 0.3023 0.3891 0.4909 0.4583 0.4507 0.3899 0.282217
2864.532 0.274084 0.26549 0.2408 0.29716 0.33703 0.35635 0.32363 0.34137 0.5066 0.5365
2883.822 0.4581 0.4999 0.5351 0.5722 0.6062 0.4717 0.4957 0.6129 0.539 0.5522
2903.112 0.5861 0.5109 0.5429 0.6478 0.5775 0.4538 0.4338 0.4838 0.5017 0.5001
2922.401 0.5215 0.5193 0.5758 0.6418 0.5396 0.4362 0.4259 0.463 0.4986 0.4273
2941.691 0.3927 0.4052 0.3829 0.3835 0.35536 0.29638 0.4026 0.5258 0.5647 0.5357
2960.981 0.5543 0.5978 0.538 0.3895 0.33057 0.3844 0.3245 0.1853 0.2065 0.412
2980.271 0.452 0.4135 0.4271 0.45 0.4522 0.3806 0.31338 0.32689 0.3872 0.5147
2999.561 0.4516 0.3906 0.4542 0.4346 0.4671 0.4536 0.5093 0.5573 0.5097 0.4528
3018.850 0.4699 0.5607 0.5276 0.4167 0.375 0.4273 0.4481 0.5078 0.6287 0.6195
3038.140 0.5516 0.4744 0.33437 0.28967 0.35611 0.34732 0.36454 0.34752 0.4208 0.4965
3057.430 0.4494 0.4824 0.5752 0.4663 0.35455 0.2498 0.30429 0.5096 0.4123 0.3845
3076.720 0.4286 0.4218 0.3968 0.35573 0.36822 0.4094 0.3989 0.35467 0.2467 0.32063
3096.009 0.3944 0.2579 0.31483 0.36365 0.35528 0.35082 0.4561 0.5911 0.6265 0.8245
3115.299 1.0271 1.1994 1.2506 1.283 1.533 1.803 1.903 1.983 2.123 2.073
3134.589 2.053 2.043 1.973 2.013 2.073 1.943 1.903 2.003 1.923 1.913
3153.879 1.903 1.813 1.823 1.863 1.753 1.463 1.333 1.383 1.1875 1.0331
3173.169 0.9583 0.7699 0.5357 0.375 0.36346 0.5159 0.5964 0.5457 0.501 0.3977
3192.458 0.30359 0.2629 0.36764 0.35014 0.36145 0.4984 0.5741 0.4199 0.4306 0.5783
3211.748 0.36705 0.35303 0.4937 0.4933 0.5289 0.5147 0.5187 0.4438 0.34277 0.3904
3231.038 0.3473 0.2054 0.2055 0.2056 0.2273 0.30222 0.31323 0.26493 0.34914 0.4746
3250.328 0.274662 0.157 0.1777 0.13 0.28044 0.36882 0.2105 0.152 0.1836 0.2395
3269.617 0.4029 0.3302 0.133 0.048 0.091 0.3183 0.4057 0.26429 0.2079 0.276541
3288.907 0.34562 0.32434 0.2038 0.2257 0.2569 0.2584 0.35153 0.34546 0.1916 0.29481
3308.197 0.3791 0.30827 0.3982 0.29633 0.2241 0.33573 0.4234 0.3784 0.26698 0.3163
3327.487 0.32039 0.2569 0.2288 0.31792 0.4281 0.3435 0.4412 0.5176 0.5173 0.35323
3346.777 0.157 0.36334 0.4352 0.3341 0.2215 0.195 0.2195 0.26871 0.31512 0.275246
3366.066 0.282668 0.452 0.5482 0.4513 0.36159 0.29925 0.1829 0.136 0.2573 0.2398
3385.356 0.13 0.155 0.141 0.129 0.17 0.35815 0.32996 0.2468 0.2269 0.08
3404.646 0.092 0.272431 0.35015 0.3882 0.5507 0.3976 0.223 0.2134 0.1899 0.374
3423.936 0.4596 0.4044 0.31455 0.2118 0.34772 0.4583 0.4452 0.36981 0.2113 0.057
3443.225 0.112 0.2569 0.168 0.055 0.103 0.1988 0.263 0.26622 0.30367 0.37145
3462.515 0.3273 0.29688 0.37096 0.2553 0.115 0.27038 0.4043 0.3429 0.2253 0.167
3481.805 0.26546 0.3925 0.4218 0.29857 0.31351 0.4298 0.36387 0.254 0.30858 0.31567
3501.095 0.31881 0.277909 0.280553 0.35622 0.327 0.3926 0.4502 0.3364 0.1884 0.26331
3520.385 0.26535 0.31884 0.2455 0.102 0.2598 0.4904 0.4147 0.2522 0.3196 0.31406
3539.674 0.30195 0.29115 0.27071 0.34684 0.35014 0.34418 0.2686 0.128 0.141 0.087
3558.964 0.053 0.156 0.127 0 0.078 0.095 0.152 0.32162 0.279666 0.159
3578.254 0.1735 0.36118 0.34226 0.2115 0.1833 0.101 0.1962 0.2409 0.30764 0.4288
3597.544 0.29948 0.28808 0.35462 0.1914 0.143 0.32186 0.30581 0.2493 0.2308 0.1948
3616.833 0.2543 0.28764 0.108 0.039 0.09 0.118 0.280641 0.28795 0.2445 0.33422
3636.123 0.34055 0.35501 0.37026 0.27199 0.275253 0.29875 0.1885 0.2082 0.28972 0.33147
3655.413 0.3813 0.3911 0.4462 0.44 0.4915 0.5099 0.37122 0.2112 0.2063 0.2425
3674.703 0.177 0.2525 0.2859 0.4034 0.4559 0.28502 0.2692 0.30408 0.34415 0.34257
3693.993 0.1826 0.076 0.1999 0.3959 0.4751 0.5997 0.5023 0.34141 0.35953 0.3768
3713.282 0.4461 0.4256 0.34494 0.35376 0.6228 0.4998 0.34595 0.4771 0.33729 0.34864
3732.572 0.31783 0.065 0.12 0.2245 0.1942 0.27485 0.1875 0.16 0.26515 0.34242
3751.862 0.3984 0.32341 0.32521 0.30185 0.35086 0.282488 0.2598 0.36483 0.2604 0.2159
3771.152 0.32236 0.393 0.2162 0.134 0.2465 0.36552 0.30819 0.2394 0.3968 0.36902
3790.441 0.28828 0.34714 0.1899 0.019 0.167 0.3766 0.4208 0.3846 0.1981 0.2011
3809.731 0.35492 0.29532 0.1918 0.2628 0.30662 0.079 0.085 0.29389 0.35692 0.4524
3829.021 0.2399 0.141 0.26939 0.145 0.162 0.28791 0.34837 0.3381 0.2218 0.097
3848.311 0.111 0.103 0.2041 0.279597 0.2108 0.2538 0.2511 0.139 0.1775 0.158
3867.601 0.115 0.29515 0.33719 0.2318 0.1852 0.172 0.281879 0.27647 0.087 0.121
3886.890 0.28946 0.3872 0.3995 0.36787 0.33126 0.2301 0.3128 0.33465 0.252 0.4495
3906.180 0.35247 0.2465 0.2507 0.1842 0.2388 0.4563 0.5292 0.31197 0.2333 0.2458
3925.470 0.2174 0.35825 0.3933 0.3816 0.4315 0.35795 0.282573 0.32034 0.37202 0.34462
3944.760 0.5323 0.5279 0.26739 0.34365 0.3744 0.2594 0.4207 0.5509 0.4673 0.33711
3964.049 0.4616 0.5025 0.4298 0.499 0.4903 0.4148 0.4134 0.280391 0.2588 0.2603
3983.339 0.143 0.2565 0.34059 0.3918 0.31481 0.2138 0.278198 0.3974 0.282036 0.2077
##END=
