##TITLE=1,2-Dodecanedioyldihydrazide
##JCAMP-DX=4.24
##DATA TYPE=INFRARED SPECTRUM
##ORIGIN=EPA-IR VAPOR PHASE LIBRARY
##OWNER=SRD/NIST
Collection (C) 2018 copyright by the U.S. Secretary of Commerce
on behalf of the United States of America. All rights reserved.
##CAS REGISTRY NO=4080-98-2
##MOLFORM=C 12 H 26 N 4 O 2
##$NIST SOURCE=MSDC-IR
##STATE=gas
##XUNITS=1/CM
##YUNITS=ABSORBANCE
##XFACTOR=1.
##YFACTOR=0.001
##DELTAX=1.92898
##FIRSTX=549.8
##LASTX=4000.7
##FIRSTY=1.314
##MAXX=4000.7
##MINX=549.759
##MAXY=0.016634
##MINY=0
##NPOINTS=1790
##XYDATA=(X++(Y..Y))
549.759 1.314 1.0892 1.1236 1.2489 1.2014 1.0008 0.8995 1.1898 1.334 1.444
569.049 1.504 1.2158 0.9353 1.0323 1.2893 1.414 1.404 1.1511 1.0926 1.163
588.339 1.0589 1.0534 1.0998 1.0236 1.0499 1.2586 1.1827 1.0759 1.0299 0.9914
607.628 1.1169 1.1438 1.0867 1.0807 1.0642 0.9261 0.8249 1.1423 1.434 1.1727
626.918 0.8656 0.8727 0.8625 0.8059 0.7553 0.7305 0.8944 0.8403 0.6681 0.7464
646.208 0.8801 0.9944 1.0056 1.0204 1.0591 1.0251 0.8918 0.8674 0.8234 1.0143
665.498 0.9532 0.5942 0.5901 0.7913 0.9382 0.915 0.8486 0.763 0.929 0.9489
684.787 0.9043 0.8401 0.804 0.9494 0.8637 0.789 0.8598 0.855 0.9637 1.0069
704.077 0.945 0.9761 1.0427 0.9999 0.9303 0.8621 0.9682 1.0758 0.9563 0.7598
723.367 0.659 0.792 1.0579 1.2264 1.1703 1.1474 1.1483 1.1491 1.0612 0.9283
742.657 0.9962 1.1912 1.1666 1.0841 0.9674 0.7672 0.9405 1.1108 1.0602 1.1233
761.947 1.1629 1.2171 1.2899 1.1586 1.187 1.1747 0.9007 0.9603 1.1375 1.138
781.236 0.9113 0.8643 1.1136 1.0715 0.9872 0.9084 0.8659 0.9606 0.9901 0.8592
800.526 0.8843 1.0704 0.9857 0.9678 1.0793 0.9638 0.9012 1.0912 1.1933 1.2248
819.816 1.2207 1.073 1.1271 1.2214 1.1677 1.2711 1.364 1.434 1.524 1.554
839.106 1.504 1.474 1.624 1.694 1.684 1.624 1.544 1.454 1.424 1.554
858.395 1.664 1.624 1.474 1.424 1.514 1.654 1.644 1.614 1.404 1.354
877.685 1.424 1.434 1.664 1.734 1.724 1.744 1.674 1.604 1.574 1.504
896.975 1.344 1.484 1.744 1.594 1.484 1.564 1.584 1.574 1.554 1.404
916.265 1.374 1.444 1.364 1.494 1.574 1.424 1.454 1.454 1.474 1.554
935.555 1.514 1.464 1.464 1.524 1.534 1.504 1.544 1.644 1.554 1.314
954.844 1.1995 1.374 1.524 1.514 1.704 1.784 1.744 1.894 1.864 1.844
974.134 1.854 1.754 1.974 2.154 2.064 1.914 1.884 1.854 1.854 2.014
993.424 2.064 2.144 2.204 2.164 1.974 1.874 2.034 2.214 2.264 2.224
1012.714 2.194 1.974 1.944 2.104 2.054 1.734 1.934 2.144 1.854 1.714
1032.003 1.574 1.534 1.624 1.574 1.484 1.594 1.664 1.534 1.474 1.324
1051.293 1.2289 1.2474 1.524 1.744 1.534 1.314 1.1717 1.2914 1.314 1.364
1070.583 1.504 1.334 1.2203 1.334 1.384 1.484 1.904 2.304 2.234 1.944
1089.873 1.674 1.704 1.884 2.014 2.054 2.084 2.084 2.004 2.244 2.324
1109.163 2.134 2.144 2.254 2.474 2.694 2.554 2.604 2.594 2.544 2.554
1128.452 2.464 2.834 3.134 3.194 3.204 3.324 3.784 4.064 4.154 4.224
1147.742 4.394 4.684 5.084 5.244 5.414 5.704 5.934 6.274 6.544 6.464
1167.032 6.104 6.384 6.544 6.164 6.324 6.464 6.674 6.704 6.444 6.274
1186.322 6.054 5.984 6.004 5.994 5.844 5.954 6.424 6.354 6.094 6.324
1205.611 6.024 5.614 5.904 6.504 6.494 6.184 6.064 6.024 6.054 5.954
1224.901 5.644 5.834 5.974 5.894 5.944 5.984 6.214 6.414 6.434 6.254
1244.191 6.084 5.974 5.924 5.924 5.824 5.534 5.264 5.034 5.094 4.984
1263.481 4.704 4.514 4.474 4.434 4.244 4.234 4.154 3.964 3.754 3.494
1282.771 3.334 3.294 3.284 3.194 3.134 3.074 2.994 2.884 2.814 2.844
1302.060 2.894 2.934 2.844 2.764 2.704 2.624 2.664 2.734 2.674 2.604
1321.350 2.634 2.684 2.604 2.494 2.534 2.564 2.574 2.594 2.594 2.594
1340.640 2.714 2.834 2.914 2.994 3.054 3.114 3.114 3.164 3.174 3.084
1359.930 3.024 2.884 2.794 2.754 2.674 2.554 2.404 2.224 2.124 1.994
1379.219 1.884 1.814 1.704 1.584 1.494 1.494 1.504 1.454 1.404 1.444
1398.509 1.424 1.504 1.654 1.714 1.814 1.954 2.014 2.124 2.284 2.454
1417.799 2.624 2.834 3.154 3.504 3.894 4.304 4.764 5.274 5.824 6.244
1437.089 6.674 7.114 7.304 7.334 7.364 7.284 7.214 7.204 7.154 7.004
1456.378 6.774 6.694 6.594 6.324 5.944 5.594 5.254 4.814 4.374 3.974
1475.668 3.654 3.374 3.084 2.824 2.684 2.524 2.344 2.224 2.044 1.964
1494.958 1.844 1.654 1.604 1.554 1.564 1.424 1.2336 1.2069 1.175 1.1623
1514.248 1.1835 1.1128 1.0929 0.9639 0.8622 1.0055 1.0064 0.9651 0.9687 0.8801
1533.538 0.884 0.979 0.8729 0.7287 0.7307 0.7527 0.754 0.806 0.7931 0.7367
1552.827 0.7496 0.8039 0.7946 0.6349 0.6325 0.7253 0.7704 0.8077 0.8052 0.7793
1572.117 0.7609 0.7278 0.7707 0.8742 0.8793 0.9011 0.8333 0.8241 0.9066 0.9756
1591.407 1.0294 1.0046 0.9822 0.9254 0.9981 1.0609 1.1306 1.304 1.344 1.334
1610.697 1.414 1.594 1.584 1.514 1.714 1.884 1.954 2.074 2.164 2.274
1629.986 2.394 2.424 2.414 2.464 2.544 2.534 2.404 2.234 2.094 1.984
1649.276 1.924 1.784 1.594 1.624 1.674 1.674 1.694 1.694 1.694 1.744
1668.566 1.814 1.884 1.994 2.074 2.184 2.314 2.554 2.754 2.934 3.274
1687.856 3.604 4.004 4.454 4.784 5.194 5.794 6.224 6.804 7.454 8.004
1707.146 8.514 8.894 9.094 9.054 8.814 8.464 8.234 8.004 7.614 7.274
1726.435 7.024 6.894 6.764 6.694 6.684 6.794 6.954 7.134 7.434 7.764
1745.725 8.034 8.334 8.724 9.184 9.754 10.214 10.444 10.394 10.034 9.494
1765.015 8.754 7.874 7.114 6.494 5.894 5.334 4.794 4.284 3.774 3.334
1784.305 2.944 2.614 2.324 2.014 1.754 1.574 1.444 1.324 1.1392 0.9977
1803.594 1.0029 0.9628 0.9134 0.8699 0.7802 0.7611 0.7126 0.6632 0.6745 0.7167
1822.884 0.672 0.5841 0.5879 0.5655 0.5723 0.5789 0.628 0.5957 0.5292 0.6162
1842.174 0.6368 0.5606 0.5589 0.6062 0.5652 0.535 0.5425 0.5272 0.5759 0.5844
1861.464 0.4733 0.46 0.5137 0.4541 0.4527 0.5296 0.5345 0.5378 0.5749 0.5733
1880.754 0.5516 0.5259 0.5072 0.5472 0.5605 0.5213 0.5241 0.4969 0.4811 0.5418
1900.043 0.5372 0.5042 0.5356 0.5922 0.5568 0.531 0.5921 0.5964 0.5615 0.5514
1919.333 0.5503 0.5616 0.5231 0.4835 0.5212 0.5098 0.5031 0.506 0.4986 0.522
1938.623 0.5633 0.5703 0.482 0.4145 0.4694 0.5422 0.5813 0.5495 0.4973 0.5051
1957.913 0.5364 0.566 0.5351 0.5387 0.5415 0.4973 0.5007 0.5024 0.5047 0.5693
1977.202 0.5569 0.5448 0.5585 0.5208 0.5669 0.5919 0.5834 0.5501 0.5097 0.4892
1996.492 0.5009 0.6069 0.5968 0.4941 0.493 0.4975 0.4747 0.4904 0.5489 0.5728
2015.782 0.5823 0.5806 0.5484 0.5717 0.5879 0.5521 0.5476 0.567 0.5729 0.582
2035.072 0.5416 0.5216 0.5639 0.5758 0.5689 0.599 0.6003 0.5629 0.5045 0.5188
2054.362 0.5693 0.5478 0.5624 0.532 0.4885 0.5033 0.5299 0.5247 0.5161 0.5651
2073.651 0.5705 0.552 0.5558 0.5079 0.5185 0.564 0.4766 0.4576 0.5488 0.5914
2092.941 0.5666 0.4666 0.4407 0.4793 0.5278 0.5228 0.5025 0.496 0.4799 0.4963
2112.231 0.4978 0.4858 0.4912 0.5194 0.5142 0.5013 0.4399 0.4343 0.565 0.5876
2131.521 0.526 0.4448 0.3993 0.4162 0.4349 0.462 0.5152 0.5131 0.4633 0.4344
2150.810 0.414 0.4453 0.4448 0.448 0.4788 0.4709 0.4369 0.4661 0.4453 0.4374
2170.100 0.493 0.5006 0.4958 0.471 0.4346 0.4427 0.476 0.4852 0.4913 0.4801
2189.390 0.47 0.4279 0.4212 0.4668 0.4376 0.36785 0.3579 0.38473 0.4194 0.4422
2208.680 0.446 0.483 0.4818 0.4246 0.3702 0.37721 0.35857 0.35361 0.4315 0.4608
2227.970 0.4521 0.4788 0.4638 0.39059 0.37514 0.446 0.4686 0.4653 0.5034 0.5037
2247.259 0.5124 0.4607 0.4494 0.4921 0.5009 0.5213 0.4522 0.4029 0.4923 0.531
2266.549 0.4301 0.36661 0.417 0.4332 0.39055 0.4074 0.4796 0.4567 0.4399 0.4424
2285.839 0.36472 0.37569 0.4289 0.38985 0.33297 0.36802 0.437 0.4626 0.4609 0.4696
2305.129 0.4191 0.34399 0.3975 0.4774 0.4998 0.5104 0.5134 0.4905 0.4631 0.4543
2324.418 0.3986 0.36096 0.38374 0.36574 0.41 0.4389 0.4025 0.4101 0.4373 0.5021
2343.708 0.4805 0.4071 0.4377 0.4669 0.4292 0.4553 0.4612 0.4393 0.4307 0.3998
2362.998 0.4296 0.36825 0.2388 0.303123 0.4345 0.38505 0.33611 0.37205 0.37672 0.4076
2382.288 0.4262 0.377 0.445 0.4993 0.3923 0.37388 0.4176 0.4347 0.4452 0.4524
2401.578 0.4573 0.4759 0.5315 0.5157 0.4694 0.4644 0.4493 0.4058 0.31687 0.34035
2420.867 0.37322 0.34587 0.4 0.4106 0.4345 0.456 0.4255 0.4132 0.37968 0.4279
2440.157 0.4259 0.38395 0.4534 0.4881 0.4855 0.4859 0.4396 0.4387 0.5103 0.5295
2459.447 0.4806 0.4645 0.4389 0.4301 0.4312 0.4273 0.5243 0.5419 0.4932 0.4398
2478.737 0.404 0.4366 0.402 0.37856 0.4466 0.4687 0.4809 0.5039 0.4521 0.4349
2498.026 0.4378 0.421 0.4577 0.49 0.4561 0.4455 0.4761 0.4407 0.4562 0.4924
2517.316 0.36974 0.37024 0.4216 0.4121 0.4244 0.4255 0.5343 0.5409 0.4798 0.4628
2536.606 0.4766 0.4991 0.426 0.3979 0.4266 0.4204 0.4507 0.4867 0.4736 0.4148
2555.896 0.38419 0.36852 0.37961 0.4429 0.4512 0.4123 0.39186 0.39052 0.4287 0.4767
2575.186 0.5089 0.4733 0.3978 0.4453 0.5213 0.5067 0.4089 0.35949 0.4746 0.5265
2594.475 0.482 0.4557 0.4242 0.4385 0.513 0.5132 0.4977 0.5246 0.4931 0.5089
2613.765 0.5009 0.5101 0.5489 0.5462 0.546 0.539 0.5153 0.4275 0.3721 0.422
2633.055 0.4332 0.36974 0.4299 0.4763 0.4626 0.5521 0.5941 0.5134 0.4579 0.5108
2652.345 0.6187 0.6229 0.6162 0.6938 0.7018 0.645 0.6501 0.5903 0.5211 0.6107
2671.634 0.6322 0.5959 0.5646 0.5341 0.6019 0.6689 0.6071 0.5829 0.6256 0.6446
2690.924 0.5913 0.4753 0.4357 0.461 0.5109 0.5539 0.5991 0.697 0.7292 0.6574
2710.214 0.5915 0.5321 0.538 0.611 0.5886 0.5234 0.5336 0.5262 0.5427 0.5974
2729.504 0.5638 0.5487 0.5862 0.629 0.6496 0.5407 0.456 0.5078 0.5494 0.5683
2748.794 0.5793 0.5989 0.6297 0.5561 0.5727 0.5644 0.5133 0.5509 0.6116 0.6037
2768.083 0.5129 0.5225 0.5222 0.566 0.5849 0.5356 0.5457 0.6397 0.6888 0.6685
2787.373 0.6891 0.7579 0.7532 0.7898 0.816 0.6844 0.7068 0.8332 0.835 0.7415
2806.663 0.8334 0.9435 0.8664 0.8825 1.0375 1.1363 1.0891 1.0816 1.1163 1.1735
2825.953 1.304 1.384 1.424 1.464 1.494 1.524 1.644 1.764 1.904 2.124
2845.242 2.394 2.624 2.944 3.404 3.924 4.544 5.204 5.734 6.104 6.504
2864.532 6.664 6.504 6.214 5.864 5.424 4.924 4.614 4.354 4.044 3.724
2883.822 3.494 3.404 3.314 3.344 3.354 3.414 3.624 3.804 4.054 4.294
2903.112 4.674 5.204 5.614 6.074 6.654 7.314 8.014 8.744 9.434 10.294
2922.401 11.414 12.424 13.554 14.834 15.774 16.374 16.634 16.624 16.294 15.644
2941.691 14.844 14.004 13.174 12.194 11.234 10.424 9.854 9.374 8.834 8.304
2960.981 7.734 7.034 6.234 5.514 4.894 4.404 3.954 3.494 3.234 3.014
2980.271 2.754 2.554 2.414 2.304 2.144 2.184 2.174 2.044 1.944 1.884
2999.561 1.874 1.774 1.624 1.564 1.504 1.494 1.444 1.282 1.2343 1.2913
3018.850 1.2509 1.1096 1.0702 1.0588 1.0991 1.148 1.2537 1.2451 1.144 1.0604
3038.140 0.9388 0.9477 0.8979 0.8068 0.7781 0.812 0.7681 0.6882 0.7322 0.7456
3057.430 0.7874 0.786 0.7836 0.7726 0.6351 0.6199 0.6678 0.5715 0.4885 0.5813
3076.720 0.7057 0.7236 0.6358 0.5971 0.5509 0.5555 0.5579 0.4928 0.5352 0.6273
3096.009 0.5908 0.6166 0.7041 0.6203 0.5532 0.4237 0.34708 0.4744 0.5498 0.4885
3115.299 0.5343 0.5552 0.4882 0.5517 0.5669 0.446 0.35801 0.466 0.5107 0.4725
3134.589 0.5269 0.46 0.37764 0.5171 0.5621 0.4335 0.3346 0.448 0.4928 0.36815
3153.879 0.30819 0.36524 0.477 0.4915 0.4533 0.3951 0.4662 0.5741 0.4617 0.4051
3173.169 0.5016 0.6083 0.6773 0.5325 0.4272 0.4802 0.4821 0.4613 0.526 0.4838
3192.458 0.4139 0.5172 0.516 0.4537 0.4885 0.5991 0.6821 0.6873 0.6085 0.4394
3211.748 0.34084 0.37394 0.4683 0.5367 0.504 0.38284 0.37771 0.4399 0.5588 0.6859
3231.038 0.6216 0.5152 0.4855 0.5053 0.39313 0.38923 0.4568 0.4493 0.4135 0.299581
3250.328 0.30738 0.35883 0.29091 0.3611 0.5065 0.5412 0.5398 0.4581 0.507 0.4684
3269.617 0.296084 0.2721 0.4154 0.541 0.4774 0.37764 0.4564 0.5006 0.30468 0.2451
3288.907 0.35449 0.3638 0.35731 0.4868 0.6265 0.5893 0.4259 0.4108 0.5039 0.5422
3308.197 0.38592 0.33874 0.3989 0.38055 0.36584 0.2721 0.36646 0.36299 0.37348 0.4077
3327.487 0.3989 0.485 0.6383 0.6747 0.5077 0.5403 0.5114 0.38427 0.4318 0.3945
3346.777 0.31816 0.4488 0.6072 0.7353 0.6409 0.4617 0.434 0.463 0.5307 0.4784
3366.066 0.36936 0.4885 0.4686 0.4547 0.5381 0.3992 0.4355 0.4967 0.5035 0.5411
3385.356 0.5988 0.6196 0.4873 0.4969 0.6022 0.6316 0.6613 0.6868 0.5517 0.4393
3404.646 0.5214 0.612 0.7031 0.7537 0.77 0.7414 0.6738 0.6436 0.6487 0.6215
3423.936 0.6986 0.7735 0.8422 1.0309 0.893 0.7741 0.9298 1.0366 0.9859 0.9794
3443.225 1.0402 1.0187 1.1898 1.294 1.304 1.344 1.384 1.344 1.314 1.354
3462.515 1.364 1.444 1.534 1.494 1.464 1.514 1.384 1.2631 1.304 1.364
3481.805 1.2736 1.2442 1.2285 1.1789 1.023 0.8681 0.772 0.7559 0.7685 0.7944
3501.095 0.8611 0.7225 0.6762 0.6317 0.4879 0.5261 0.5348 0.4366 0.3997 0.4691
3520.385 0.4941 0.4783 0.5264 0.5423 0.4858 0.35411 0.2664 0.33623 0.4664 0.5313
3539.674 0.6536 0.5283 0.2348 0.2098 0.2837 0.2317 0.136 0.172 0.2399 0.37562
3558.964 0.4572 0.33993 0.2526 0.12 0.102 0.34526 0.411 0.4141 0.4762 0.4525
3578.254 0.4303 0.2695 0.172 0.19 0.37487 0.4815 0.4628 0.5851 0.4981 0.4008
3597.544 0.4256 0.2676 0.141 0.35307 0.4053 0.37548 0.4785 0.4537 0.39096 0.4436
3616.833 0.35698 0.157 0.2727 0.4384 0.4276 0.2575 0.2144 0.4142 0.4088 0.2609
3636.123 0.2694 0.2095 0.2438 0.404 0.38761 0.32522 0.267 0.154 0.146 0.303626
3655.413 0.37418 0.3963 0.4733 0.4945 0.34209 0.2085 0.31504 0.28525 0.156 0.131
3674.703 0.029 0.2003 0.4738 0.514 0.4944 0.3953 0.29158 0.35687 0.37672 0.227
3693.993 0.3428 0.34565 0.069 0 0.2562 0.302422 0.2339 0.31512 0.2057 0.2197
3713.282 0.31251 0.4028 0.4767 0.4951 0.4218 0.35062 0.4442 0.3473 0.2386 0.194
3732.572 0.2502 0.3969 0.34789 0.33576 0.4461 0.4447 0.2723 0.179 0.2619 0.31109
3751.862 0.33802 0.4943 0.4378 0.2315 0.165 0.174 0.188 0.2329 0.33485 0.4037
3771.152 0.4248 0.33028 0.29936 0.303022 0.300863 0.295336 0.35112 0.4372 0.4343 0.37077
3790.441 0.37749 0.5426 0.4976 0.416 0.466 0.4045 0.33782 0.5338 0.573 0.4205
3809.731 0.36937 0.35815 0.31033 0.32237 0.447 0.2219 0.112 0.2767 0.34528 0.4549
3829.021 0.4671 0.4376 0.446 0.4486 0.36456 0.36051 0.4726 0.4395 0.31381 0.29278
3848.311 0.33717 0.302259 0.107 0.068 0.35784 0.414 0.34995 0.37467 0.3311 0.2507
3867.601 0.1972 0.219 0.2308 0.31876 0.34637 0.2467 0.31136 0.32467 0.3929 0.4983
3886.890 0.402 0.37755 0.38503 0.34222 0.35163 0.3515 0.298395 0.189 0.169 0.2751
3906.180 0.2754 0.33823 0.298368 0.2358 0.119 0.09 0.297165 0.4014 0.5083 0.5534
3925.470 0.5365 0.4448 0.3466 0.32807 0.37014 0.36258 0.3942 0.6084 0.4846 0.3604
3944.760 0.2778 0.194 0.2688 0.293269 0.4135 0.4064 0.31979 0.2668 0.32416 0.4566
3964.049 0.4628 0.4223 0.4953 0.484 0.4592 0.5367 0.4222 0.35886 0.33137 0.33989
3983.339 0.5099 0.5938 0.545 0.36479 0.37913 0.4686 0.4181 0.4615 0.4091 0.33771
##END=
