##TITLE=2-(Isopropylthio)ethanol
##JCAMP-DX=4.24
##DATA TYPE=INFRARED SPECTRUM
##ORIGIN=EPA-IR VAPOR PHASE LIBRARY
##OWNER=SRD/NIST
Collection (C) 2018 copyright by the U.S. Secretary of Commerce
on behalf of the United States of America. All rights reserved.
##CAS REGISTRY NO=40811-49-2
##MOLFORM=C 5 H 12 O S
##$NIST SOURCE=MSDC-IR
##STATE=gas
##XUNITS=1/CM
##YUNITS=ABSORBANCE
##XFACTOR=1.
##YFACTOR=0.001
##DELTAX=1.92934
##FIRSTX=549.9
##LASTX=3999.5
##FIRSTY=1.99
##MAXX=3999.53
##MINX=549.863
##MAXY=0.09626
##MINY=0
##NPOINTS=1789
##XYDATA=(X++(Y..Y))
549.863 1.99 2 2 1.9 2.16 2.27 2 1.81 1.76 1.61
569.156 1.6 1.82 1.94 2.04 2.04 1.82 1.78 2.02 2.14 2.03
588.450 1.93 1.93 2 2.08 2.06 2.04 2.13 2.14 2.17 2.2
607.743 2.18 2.15 2.17 2.18 2.21 2.35 2.42 2.53 2.57 2.59
627.037 2.64 2.72 2.91 2.97 2.97 3.05 3.07 3 2.9 2.78
646.330 2.69 2.55 2.5 2.52 2.49 2.43 2.38 2.32 2.32 2.32
665.624 2.2 2.25 2.41 2.54 2.67 2.63 2.53 2.57 2.56 2.52
684.917 2.39 2.22 2.14 2.04 1.98 1.88 1.73 1.69 1.6 1.54
704.210 1.51 1.46 1.3714 1.3538 1.41 1.42 1.3499 1.2524 1.3037 1.42
723.504 1.46 1.4 1.46 1.56 1.6 1.63 1.69 1.85 1.98 2.01
742.797 2.06 2.2 2.33 2.42 2.51 2.71 2.89 2.98 3.11 3.18
762.091 3.18 3.26 3.33 3.27 3.16 3.05 2.96 2.82 2.51 2.23
781.384 2.15 2.03 1.8 1.67 1.68 1.59 1.57 1.67 1.57 1.49
800.678 1.59 1.66 1.69 1.71 1.76 1.81 1.84 1.92 2.02 2.1
819.971 2.06 2.04 2.1 2.03 2.08 2.08 2.06 2.06 2.03 2.04
839.264 2.04 2.02 1.95 1.98 1.92 1.82 1.88 1.92 1.93 1.94
858.558 1.92 1.95 1.94 2.03 2.25 2.32 2.37 2.51 2.57 2.66
877.851 2.72 2.73 2.82 2.85 2.9 2.95 2.99 2.97 3 3.12
897.145 3.21 3.37 3.54 3.73 4.05 4.43 4.87 5.39 5.93 6.46
916.438 7.1 7.77 8.33 8.82 9.27 9.71 9.97 10.07 10.16 10.14
935.732 10.01 9.67 9.31 8.96 8.57 8.18 7.82 7.54 7.26 7.08
955.025 6.9 6.85 6.85 6.83 6.86 7 7.33 7.67 8.04 8.43
974.318 8.84 9.39 10.05 10.69 11.31 11.97 12.76 13.57 14.41 15.35
993.612 16.34 17.39 18.5 19.68 20.96 22.33 23.73 25.15 26.65 28.23
1012.905 29.9 31.75 33.82 35.98 38.28 40.86 43.57 46.29 48.93 51.49
1032.199 53.75 55.59 57.06 58.24 59.12 59.56 59.63 59.46 59 58.27
1051.492 57.51 56.92 56.38 55.87 55.33 54.45 53.15 51.49 49.41 46.94
1070.786 44.18 41.15 37.78 34.29 30.78 27.19 23.8 20.8 18.29 16.24
1090.079 14.56 13.14 12.03 11.27 10.65 10.06 9.68 9.42 9.16 8.94
1109.372 8.74 8.6 8.54 8.49 8.35 8.26 8.21 8.26 8.2 8.23
1128.666 8.42 8.67 9.06 9.45 9.96 10.55 11.35 12.36 13.47 14.53
1147.959 15.47 16.16 16.75 17.3 17.63 17.9 18.07 17.96 17.79 17.43
1167.253 16.89 16.31 15.62 15.01 14.58 14.21 13.88 13.62 13.11 12.49
1186.546 12 11.33 10.75 10.23 9.69 9.53 9.26 9.19 9.23 8.69
1205.840 8.59 8.88 9.09 9.43 9.92 10.3 10.67 11.23 11.88 13.04
1225.133 14.32 15.5 16.76 18.08 19.51 20.91 22.21 23.35 24.25 24.88
1244.426 25.37 25.8 25.89 25.66 25.01 24.26 23.38 22.04 20.57 19.3
1263.720 18.26 17.48 16.95 16.48 16.09 15.57 14.97 14.47 14.13 13.71
1283.013 13.19 12.78 12.45 12.15 11.86 11.57 11.24 10.92 10.71 10.49
1302.307 10.23 9.99 9.85 9.73 9.54 9.41 9.36 9.3 9.27 9.34
1321.600 9.41 9.43 9.55 9.72 9.95 10.2 10.36 10.48 10.61 10.77
1340.894 10.94 11.08 11.23 11.51 11.82 12.17 12.7 13.29 14.03 14.97
1360.187 16.06 17.22 18.52 19.96 21.36 22.74 24.29 26.09 27.91 29.49
1379.480 30.65 31.38 31.72 31.79 31.53 30.73 29.67 28.53 27.17 25.55
1398.774 23.61 21.63 19.84 18.28 16.99 16.02 15.32 14.75 14.32 13.97
1418.067 13.58 13.35 13.24 13.02 12.82 12.7 12.61 12.56 12.55 12.6
1437.361 12.7 12.92 13.22 13.56 13.88 14.17 14.5 14.85 15.22 15.49
1456.654 15.64 15.7 15.68 15.58 15.3 14.89 14.44 13.84 13.19 12.56
1475.948 11.81 10.98 10.07 9.13 8.21 7.41 6.67 5.97 5.42 4.87
1495.241 4.35 3.93 3.62 3.37 3.12 2.83 2.6 2.42 2.23 2.14
1514.534 2.06 1.9 1.73 1.62 1.55 1.48 1.3633 1.2793 1.1587 1.0727
1533.828 1.0386 0.9912 0.906 0.8004 0.7976 0.8042 0.7646 0.7409 0.707 0.6938
1553.121 0.6918 0.6083 0.5579 0.42285 0.390379 0.5366 0.5733 0.5389 0.5419 0.5407
1572.415 0.4799 0.43867 0.43511 0.43738 0.47414 0.5171 0.5367 0.5134 0.42609 0.40872
1591.708 0.44184 0.44252 0.45164 0.48037 0.4989 0.43955 0.364 0.4145 0.45214 0.47939
1611.002 0.46661 0.42764 0.45645 0.39732 0.43558 0.5109 0.47068 0.43907 0.43083 0.45529
1630.295 0.48068 0.4846 0.41062 0.41135 0.5207 0.5119 0.47187 0.43147 0.390034 0.40323
1649.588 0.4549 0.44557 0.4118 0.46891 0.5253 0.5133 0.5262 0.5482 0.597 0.6022
1668.882 0.5324 0.5394 0.5456 0.5104 0.5294 0.5741 0.4961 0.40409 0.43536 0.48686
1688.175 0.5136 0.5374 0.5893 0.5133 0.3776 0.3351 0.252 0.241 0.3002 0.2926
1707.469 0.3252 0.3023 0.229 0.175 0.14 0.139 0.139 0.209 0.251 0.251
1726.762 0.213 0.158 0.16 0.131 0.096 0.138 0.143 0.155 0.163 0.104
1746.056 0.134 0.161 0.099 0.064 0.155 0.158 0.075 0.067 0.095 0.098
1765.349 0.036 0.037 0.1 0.072 0.016 0.007 0.008 0.019 0.041 0.066
1784.642 0.047 0.007 0.002 0 0.022 0.078 0.114 0.097 0.008 0.019
1803.936 0.082 0.089 0.08 0.077 0.074 0.077 0.107 0.172 0.163 0.108
1823.229 0.111 0.114 0.116 0.127 0.166 0.164 0.154 0.185 0.173 0.143
1842.523 0.141 0.131 0.138 0.183 0.21 0.2 0.215 0.272 0.3091 0.3065
1861.816 0.276 0.262 0.265 0.256 0.312 0.3576 0.3368 0.3132 0.297 0.2944
1881.110 0.3068 0.3105 0.3588 0.3447 0.251 0.235 0.243 0.267 0.262 0.222
1900.403 0.202 0.19 0.173 0.179 0.195 0.166 0.139 0.119 0.087 0.083
1919.696 0.047 0.037 0.076 0.1 0.115 0.091 0.052 0.05 0.061 0.054
1938.990 0.093 0.092 0.064 0.099 0.098 0.098 0.13 0.154 0.169 0.153
1958.283 0.119 0.12 0.156 0.143 0.122 0.178 0.191 0.186 0.221 0.263
1977.577 0.275 0.254 0.26 0.261 0.237 0.212 0.288 0.361 0.3219 0.28
1996.870 0.275 0.3372 0.3783 0.396576 0.40711 0.38816 0.44274 0.5073 0.5284 0.5251
2016.164 0.5232 0.5362 0.54 0.494 0.5153 0.5519 0.5682 0.5716 0.5638 0.6337
2035.457 0.6549 0.6036 0.5458 0.5112 0.5125 0.5203 0.5382 0.5485 0.5007 0.5334
2054.750 0.5303 0.45086 0.46941 0.40548 0.353 0.397022 0.3678 0.3173 0.3346 0.3475
2074.044 0.3373 0.288 0.3007 0.3241 0.3078 0.3031 0.29 0.27 0.275 0.273
2093.337 0.268 0.3466 0.3132 0.276 0.267 0.279 0.269 0.3058 0.3718 0.3533
2112.631 0.3645 0.334 0.3106 0.312 0.298 0.3068 0.3317 0.346 0.3132 0.247
2131.924 0.219 0.244 0.239 0.174 0.177 0.241 0.259 0.214 0.208 0.193
2151.218 0.166 0.196 0.159 0.14 0.177 0.19 0.209 0.166 0.161 0.233
2170.511 0.234 0.256 0.28 0.237 0.232 0.237 0.26 0.272 0.235 0.267
2189.804 0.3181 0.3029 0.3026 0.3095 0.3279 0.3255 0.328 0.3182 0.3044 0.391656
2209.098 0.41782 0.38058 0.38849 0.41676 0.45157 0.4464 0.40493 0.43319 0.4925 0.48216
2228.391 0.47191 0.4962 0.48634 0.5178 0.5756 0.6006 0.6056 0.6447 0.6364 0.6215
2247.685 0.6587 0.6563 0.6845 0.6642 0.5997 0.5906 0.6032 0.5831 0.5548 0.5222
2266.978 0.5195 0.5508 0.5326 0.5469 0.538 0.47576 0.46973 0.46415 0.47955 0.5036
2286.272 0.47756 0.48776 0.517 0.4988 0.5149 0.5671 0.5732 0.5589 0.5398 0.5477
2305.565 0.46793 0.42667 0.46126 0.4586 0.503 0.4983 0.47528 0.44704 0.4383 0.41683
2324.858 0.41439 0.40979 0.38695 0.3744 0.343 0.3223 0.3513 0.41536 0.40541 0.3752
2344.152 0.3797 0.3775 0.3772 0.3663 0.392359 0.3865 0.3307 0.3506 0.395176 0.40243
2363.445 0.3765 0.40832 0.47388 0.5166 0.5055 0.46602 0.48052 0.48179 0.5378 0.5683
2382.739 0.511 0.5284 0.582 0.5956 0.5679 0.519 0.5107 0.5088 0.518 0.604
2402.032 0.599 0.5659 0.5665 0.5449 0.5412 0.5338 0.5447 0.5667 0.5784 0.6214
2421.326 0.6122 0.5661 0.5453 0.5134 0.5897 0.6035 0.5673 0.6297 0.6453 0.6291
2440.619 0.6403 0.6399 0.661 0.6907 0.6807 0.6934 0.701 0.6765 0.6983 0.7061
2459.912 0.646 0.6677 0.691 0.6936 0.6916 0.7079 0.7495 0.7393 0.6901 0.6452
2479.206 0.6347 0.6608 0.7132 0.7329 0.7821 0.7295 0.6189 0.6208 0.6274 0.5904
2498.499 0.6037 0.5917 0.5631 0.6148 0.593 0.5265 0.5036 0.4924 0.5295 0.6001
2517.793 0.5941 0.5741 0.5997 0.595 0.5597 0.5535 0.5661 0.5748 0.5986 0.5616
2537.086 0.552 0.587 0.6468 0.6317 0.5503 0.5894 0.6251 0.6119 0.5856 0.5912
2556.380 0.5762 0.5558 0.5611 0.546 0.5694 0.6411 0.6626 0.6581 0.6733 0.6961
2575.673 0.7455 0.7086 0.7127 0.7377 0.7295 0.6865 0.7 0.7987 0.8561 0.8817
2594.966 0.8414 0.8816 0.9107 0.9569 0.9784 0.986 1.0022 0.9981 1.0498 1.0606
2614.260 1.0544 1.0394 1.0533 1.089 1.0591 1.0343 1.0105 0.9564 0.9679 1.0184
2633.553 1.0354 0.9478 0.9105 0.9793 1.0127 1.0695 1.0965 1.11 1.1038 1.1099
2652.847 1.1088 1.0863 1.0953 1.0897 1.1221 1.1927 1.212 1.2068 1.2245 1.2495
2672.140 1.2657 1.2566 1.2816 1.2814 1.3212 1.43 1.48 1.44 1.45 1.5
2691.434 1.53 1.53 1.52 1.57 1.61 1.66 1.73 1.7 1.75 1.85
2710.727 1.92 2.04 2.19 2.3 2.38 2.43 2.45 2.58 2.68 2.68
2730.020 2.7 2.8 2.9 2.86 2.81 2.81 2.86 2.89 2.94 2.95
2749.314 2.87 2.87 2.96 3.02 3.02 3.04 3.07 3.09 3.09 3.05
2768.607 3.07 3.09 3.03 3.02 3.07 3.09 3.02 3.04 3.09 3.16
2787.901 3.18 3.25 3.34 3.45 3.63 3.79 4.03 4.23 4.47 4.67
2807.194 4.82 5.07 5.32 5.52 5.59 5.73 6.03 6.28 6.48 6.75
2826.488 6.96 7.08 7.46 7.91 8.33 8.81 9.26 9.79 10.31 10.89
2845.781 11.6 12.44 13.58 14.89 16.19 17.77 19.84 22.24 24.86 27.85
2865.074 31.21 34.65 37.93 41.01 43.48 45.34 46.84 47.82 48.47 48.55
2884.368 48.07 47.29 46.2 44.95 43.78 42.92 42.38 42.27 42.5 43.34
2903.661 44.6 46.11 48.12 50.41 52.94 55.73 58.67 61.95 65.37 68.76
2922.955 72.02 75.08 77.78 79.87 81.23 81.74 81.54 80.66 79.3 77.87
2942.248 76.28 74.67 73.38 72.71 72.89 73.98 76.12 79.09 82.34 85.4
2961.542 88.29 90.96 93.62 95.61 96.26 95.53 93.35 89.5 84.24 78.42
2980.835 72.47 66.44 60.3 54.35 48.36 42.02 35.94 30.57 25.87 21.95
3000.128 18.75 16.2 14.02 12.16 10.69 9.5 8.53 7.66 6.88 6.24
3019.422 5.78 5.16 4.67 4.58 4.35 4.11 3.88 3.51 3.26 3.07
3038.715 2.9 2.77 2.55 2.46 2.4 2.31 2.27 2.14 2.03 2.1
3058.009 2.06 1.99 1.89 1.65 1.65 1.64 1.65 1.74 1.66 1.58
3077.302 1.54 1.5 1.56 1.58 1.49 1.44 1.5 1.54 1.51 1.48
3096.596 1.43 1.376 1.3154 1.2821 1.2678 1.3826 1.3799 1.224 1.3271 1.3885
3115.889 1.2901 1.1481 0.9913 1.017 1.1753 1.2561 1.1055 1.0634 1.2279 1.2704
3135.182 1.2769 1.3425 1.3187 1.2454 1.1998 1.0911 1.1779 1.2069 1.0107 0.9254
3154.476 1.0315 1.0615 1.0517 0.9956 1.0435 1.2394 1.254 1.1902 1.1236 1.1766
3173.769 1.246 1.102 1.1476 1.3206 1.43 1.44 1.3191 1.2513 1.1807 1.2349
3193.063 1.3834 1.53 1.49 1.2573 1.2595 1.2887 1.0802 1.0598 1.0429 0.9734
3212.356 0.9178 0.8316 0.84 0.7567 0.7149 0.7363 0.7114 0.7354 0.5807 0.5247
3231.650 0.392631 0.3336 0.41162 0.3104 0.267 0.233 0.226 0.26 0.3072 0.192
3250.943 0.2925 0.5241 0.48411 0.43159 0.38598 0.3419 0.48597 0.4919 0.46538 0.5995
3270.236 0.5198 0.41993 0.268 0.158 0.14 0.254 0.47932 0.3375 0.154 0.125
3289.530 0.217 0.38434 0.397817 0.3376 0.3492 0.504 0.5221 0.3221 0.3255 0.288
3308.823 0.225 0.288 0.333 0.264 0.199 0.245 0.276 0.3728 0.268 0.217
3328.117 0.3324 0.3404 0.26 0.258 0.251 0.231 0.3379 0.265 0.181 0.098
3347.410 0.057 0.045 0.053 0.219 0.218 0.139 0.209 0.3515 0.3732 0.2919
3366.704 0.233 0.3217 0.3288 0.226 0.3184 0.3284 0.3772 0.5945 0.5168 0.281
3385.997 0.39024 0.5 0.3659 0.40735 0.5029 0.4956 0.6007 0.7237 0.7252 0.7053
3405.290 0.6877 0.6517 0.6539 0.7138 0.7333 0.5703 0.46046 0.5364 0.6708 0.5929
3424.584 0.44337 0.5833 0.64 0.5658 0.6256 0.46762 0.42465 0.6638 0.6619 0.616
3443.877 0.5883 0.6801 0.7993 0.7183 0.7197 0.7196 0.6926 0.8545 0.8755 0.8619
3463.171 0.9588 0.9897 0.9615 0.9457 0.9222 0.8239 0.7811 0.8716 0.7871 0.6513
3482.464 0.7844 0.8737 0.9559 1.0557 1.0441 1.0391 1.2155 1.2642 1.2863 1.2953
3501.758 1.2124 1.3357 1.3493 1.3563 1.43 1.48 1.45 1.3398 1.45 1.43
3521.051 1.2674 1.44 1.6 1.56 1.61 1.58 1.61 1.76 1.89 2.11
3540.344 2.32 2.46 2.69 2.95 3.29 3.63 3.89 4.25 4.52 4.78
3559.638 4.99 5.03 5.19 5.49 5.72 5.83 5.85 5.91 6 6.05
3578.931 6.09 6.12 6.04 5.98 6 5.94 5.92 5.86 5.66 5.56
3598.225 5.35 5.11 4.97 4.89 4.78 4.47 4.36 4.15 3.95 4.02
3617.518 3.93 3.76 3.47 3.46 3.56 3.38 3.23 3.28 3.56 3.63
3636.812 3.63 3.8 3.98 4.35 4.84 5.15 5.66 6.42 7.1 7.74
3656.105 8.45 9.05 9.43 9.89 10.14 10.1 9.99 9.8 9.35 8.41
3675.398 7.48 6.78 6.1 5.4 4.77 4.15 3.6 3.07 2.67 2.42
3694.692 2.13 2.02 1.9 1.77 1.84 1.7 1.47 1.3717 1.2642 1.2014
3713.985 1.1618 1.2062 1.13 1.0966 0.9722 0.9146 1.0377 0.9872 0.9353 0.9924
3733.279 1.0384 0.987 0.9711 0.909 0.8254 0.7848 0.6804 0.6196 0.6431 0.7888
3752.572 0.7619 0.6023 0.5559 0.7098 0.8277 0.7446 0.7047 0.5766 0.46515 0.41983
3771.866 0.4916 0.5687 0.5818 0.515 0.3835 0.48754 0.4904 0.48489 0.5661 0.494
3791.159 0.45858 0.4323 0.3201 0.259 0.40737 0.5336 0.4946 0.5155 0.5868 0.5789
3810.452 0.48471 0.3217 0.41038 0.47048 0.47478 0.5718 0.5227 0.581 0.47351 0.395111
3829.746 0.5022 0.5603 0.5547 0.5263 0.5529 0.6415 0.6846 0.5866 0.5786 0.6082
3849.039 0.5979 0.4742 0.43905 0.47228 0.45054 0.6055 0.679 0.6978 0.6834 0.686
3868.333 0.7034 0.6375 0.7048 0.6739 0.6252 0.6741 0.6396 0.6363 0.5997 0.47819
3887.626 0.5257 0.6976 0.7184 0.5626 0.41415 0.41383 0.5128 0.5215 0.5064 0.4983
3906.920 0.5163 0.5195 0.43312 0.272 0.3279 0.5463 0.6213 0.5024 0.47936 0.5786
3926.213 0.48738 0.42796 0.41909 0.44999 0.5663 0.5857 0.5218 0.5544 0.4962 0.38149
3945.506 0.40961 0.43501 0.40048 0.48096 0.5344 0.5379 0.6436 0.6708 0.5517 0.5468
3964.800 0.5925 0.5824 0.5888 0.5128 0.5074 0.497 0.45347 0.579 0.5802 0.394271
3984.093 0.3757 0.44277 0.46381 0.5037 0.43669 0.3549 0.48783 0.5001 0.3446
##END=
