##TITLE=N,N-Bis(4-chlorobenzyl)hydroxylamine
##JCAMP-DX=4.24
##DATA TYPE=INFRARED SPECTRUM
##ORIGIN=EPA-IR VAPOR PHASE LIBRARY
##OWNER=SRD/NIST
Collection (C) 2018 copyright by the U.S. Secretary of Commerce
on behalf of the United States of America. All rights reserved.
##CAS REGISTRY NO=40861-08-3
##MOLFORM=C 14 H 13 Cl 2 N O
##$NIST SOURCE=MSDC-IR
##STATE=gas
##XUNITS=1/CM
##YUNITS=ABSORBANCE
##XFACTOR=1.
##YFACTOR=0.001
##DELTAX=1.92898
##FIRSTX=549.8
##LASTX=4000.7
##FIRSTY=4.393
##MAXX=4000.7
##MINX=549.759
##MAXY=0.058403
##MINY=0
##NPOINTS=1790
##XYDATA=(X++(Y..Y))
549.759 4.393 3.863 4.013 4.173 3.963 3.703 3.473 3.783 3.663 3.213
569.049 3.033 2.953 3.013 3.453 3.913 3.603 3.843 4.203 3.753 3.723
588.339 3.023 2.973 4.273 4.173 3.523 3.713 4.143 4.863 5.103 4.653
607.628 4.633 4.893 4.973 4.613 4.203 4.653 5.633 5.353 4.983 5.443
626.918 5.573 5.593 5.503 5.583 5.753 5.673 5.523 5.323 5.543 5.863
646.208 5.463 4.913 4.943 4.633 4.113 4.403 4.813 4.793 4.853 4.903
665.498 4.743 4.943 5.003 4.793 4.523 4.453 4.923 5.223 5.153 4.823
684.787 4.643 4.903 4.813 5.123 5.783 6.003 5.973 5.753 5.713 5.873
704.077 5.733 5.623 5.623 5.413 5.733 5.983 5.833 5.833 5.673 5.693
723.367 5.643 5.883 6.123 6.063 6.263 6.453 6.323 6.043 6.293 6.003
742.657 5.353 5.563 5.703 5.463 5.263 4.943 4.903 4.483 4.113 4.583
761.947 4.833 4.783 4.603 4.563 4.853 5.113 5.263 5.233 5.823 6.733
781.236 7.493 8.253 9.513 10.953 12.193 13.613 14.883 15.793 16.933 18.183
800.526 18.823 19.333 19.983 20.813 21.803 22.963 23.463 23.483 23.033 22.393
819.816 22.213 21.453 21.183 21.703 21.723 21.573 21.783 21.863 21.083 19.653
839.106 18.233 16.613 14.463 12.613 11.043 9.853 8.653 7.593 7.033 6.613
858.395 5.943 5.403 4.943 4.253 3.903 3.903 3.843 3.393 2.923 2.983
877.685 3.013 2.633 2.433 2.853 3.123 2.353 2.253 2.633 2.483 2.263
896.975 2.223 2.253 2.133 2.463 2.533 2.393 2.263 1.883 2.073 2.563
916.265 2.293 1.913 2.173 2.363 2.583 2.453 2.383 2.673 2.743 2.703
935.555 2.983 3.303 3.273 2.973 2.563 3.023 3.333 3.443 3.763 3.513
954.844 3.183 3.253 3.353 3.213 3.163 3.093 3.003 2.633 2.513 2.483
974.134 2.583 3.073 3.243 3.183 3.293 3.263 2.833 3.273 3.563 3.513
993.424 3.693 3.493 3.993 4.463 4.833 5.973 7.673 10.043 14.463 21.603
1012.714 29.093 33.503 33.043 27.933 19.533 12.033 8.073 6.043 4.943 4.663
1032.003 3.993 3.233 3.063 3.543 3.663 2.973 2.983 3.373 3.593 3.553
1051.293 3.393 3.503 3.803 4.113 4.443 4.243 4.133 5.183 6.313 6.843
1070.583 8.253 9.623 9.803 10.873 14.493 18.013 20.043 25.723 32.843 39.883
1089.873 47.983 53.883 57.313 58.403 55.673 50.563 44.513 38.523 34.493 32.133
1109.163 30.563 29.193 27.223 24.423 22.323 20.283 17.743 15.523 13.893 12.793
1128.452 11.323 9.253 8.063 7.853 7.243 5.923 5.263 4.653 3.933 4.653
1147.742 4.393 3.893 4.113 3.903 3.443 2.973 3.133 3.033 2.823 3.183
1167.032 3.523 3.583 3.743 3.993 3.663 3.843 3.803 3.643 4.093 3.533
1186.322 3.703 4.273 3.723 3.463 4.673 5.393 5.363 5.503 5.523 5.563
1205.611 4.733 3.793 3.933 5.203 4.813 4.643 5.603 4.703 4.633 4.563
1224.901 4.403 4.983 4.723 4.693 5.163 4.613 3.573 3.543 3.563 3.023
1244.191 3.293 3.503 3.063 2.783 2.803 3.043 3.063 2.693 2.263 2.253
1263.481 2.763 3.193 3.163 3.043 3.123 3.733 3.533 3.433 4.153 4.313
1282.771 4.123 4.143 4.373 4.343 4.553 4.813 5.053 5.493 5.543 5.183
1302.060 4.803 4.403 4.233 4.313 4.393 4.503 4.683 4.833 5.083 5.453
1321.350 5.843 6.373 6.703 6.933 7.303 7.633 7.763 7.943 8.053 8.003
1340.640 7.913 7.843 7.993 8.163 8.323 8.473 8.623 8.743 8.833 8.793
1359.930 8.443 7.833 7.223 6.703 6.253 5.883 5.523 5.213 5.073 4.943
1379.219 4.663 4.413 4.353 4.263 4.253 4.333 4.393 4.703 5.053 5.383
1398.509 5.833 6.393 6.903 7.323 7.613 7.593 7.173 6.683 6.183 5.653
1417.799 5.333 5.183 5.163 5.003 5.023 5.503 5.853 6.223 6.793 7.373
1437.089 8.273 9.373 10.473 11.743 13.173 14.523 15.753 16.693 17.053 17.043
1456.378 16.813 16.253 15.653 14.963 14.233 13.793 13.683 13.763 13.893 14.363
1475.668 15.733 18.083 21.173 25.163 30.423 37.233 45.233 52.713 57.323 56.823
1494.958 50.863 41.063 30.393 21.423 15.273 11.503 8.973 7.043 5.703 4.953
1514.248 4.383 3.873 3.383 3.093 2.813 2.453 2.463 2.363 2.293 2.193
1533.538 2.043 1.933 1.843 1.893 1.673 1.663 1.883 1.893 1.803 1.823
1552.827 1.993 1.933 1.943 2.063 2.003 1.993 2.243 2.563 2.753 2.903
1572.117 3.043 3.183 3.173 3.423 3.743 3.923 4.193 4.643 5.393 6.203
1591.407 7.063 7.993 8.473 8.473 8.163 7.343 6.313 5.323 4.293 3.693
1610.697 3.483 3.153 2.933 2.983 3.013 2.983 2.893 2.783 2.863 2.993
1629.986 3.103 3.143 3.243 3.483 3.833 4.293 4.813 5.633 6.503 7.043
1649.276 7.113 6.703 5.973 5.013 4.033 3.283 2.813 2.503 2.243 1.973
1668.566 1.703 1.653 1.633 1.343 1.214 1.2308 1.272 1.2557 1.1777 1.1366
1687.856 1.0022 1.0786 1.277 1.0573 1.0429 1.1968 1.0946 1.0224 0.9583 1.0725
1707.146 1.1885 1.1596 1.0576 1.0696 1.092 1.1177 1.1538 1.0608 1.013 0.9577
1726.435 1.1323 1.2447 1.1567 1.3082 1.373 1.403 1.413 1.2739 1.3135 1.383
1745.725 1.3287 1.403 1.483 1.433 1.593 1.673 1.563 1.563 1.613 1.753
1765.015 1.783 1.783 1.973 2.113 2.193 2.323 2.423 2.253 1.913 1.833
1784.305 1.703 1.443 1.3264 1.1539 1.0769 1.0618 1.0786 0.9777 0.7245 0.8036
1803.594 0.9325 0.8245 0.8567 0.8466 0.7554 0.8365 0.854 0.7932 0.7339 0.7057
1822.884 0.7289 0.7907 0.827 0.7971 0.7668 0.793 0.7724 0.7977 0.8162 0.7181
1842.174 0.7637 0.8721 0.8704 0.901 0.9359 0.8613 0.8387 0.9329 1.0309 1.0823
1861.464 1.209 1.363 1.363 1.393 1.513 1.633 1.773 1.893 1.903 1.893
1880.754 2.113 2.193 2.213 2.363 2.553 2.553 2.493 2.593 2.423 2.303
1900.043 2.233 1.993 1.813 1.643 1.453 1.363 1.363 1.3231 1.1588 1.1332
1919.333 1.1325 1.0263 1.0264 1.0862 1.0729 0.9945 0.9727 0.9082 0.8908 0.9027
1938.623 0.8323 0.8339 0.7934 0.7875 0.8282 0.7583 0.7232 0.7919 0.8396 0.821
1957.913 0.7653 0.7432 0.7411 0.6775 0.6529 0.5526 0.41305 0.38578 0.4627 0.6235
1977.202 0.5325 0.36004 0.5095 0.66 0.5888 0.5273 0.5233 0.5876 0.7166 0.7421
1996.492 0.6274 0.5938 0.628 0.5911 0.6472 0.6158 0.529 0.5533 0.4983 0.4763
2015.782 0.5358 0.4721 0.36555 0.4544 0.5613 0.614 0.6264 0.5722 0.5421 0.5095
2035.072 0.5355 0.4667 0.40356 0.4407 0.5391 0.5442 0.42926 0.5172 0.5529 0.5185
2054.362 0.5779 0.6677 0.7263 0.6548 0.5452 0.5466 0.5383 0.5259 0.6151 0.5265
2073.651 0.5768 0.7149 0.6093 0.6126 0.578 0.557 0.616 0.5896 0.6448 0.6474
2092.941 0.6471 0.6489 0.467 0.40972 0.5578 0.6241 0.5503 0.4928 0.4874 0.5821
2112.231 0.6607 0.6004 0.5913 0.6033 0.574 0.6033 0.34771 0.2983 0.5188 0.5163
2131.521 0.5159 0.40779 0.443 0.606 0.6412 0.4723 0.40838 0.6689 0.721 0.6573
2150.810 0.6605 0.6311 0.683 0.6257 0.5176 0.5772 0.6319 0.5542 0.5534 0.4801
2170.100 0.5421 0.5826 0.41976 0.5701 0.6498 0.5491 0.5368 0.549 0.5348 0.5493
2189.390 0.5757 0.6176 0.4688 0.40962 0.40484 0.2959 0.341671 0.36851 0.42729 0.555
2208.680 0.62 0.6437 0.6964 0.6279 0.5255 0.6669 0.6802 0.6429 0.7557 0.7263
2227.970 0.6508 0.594 0.5465 0.5625 0.6116 0.5305 0.4935 0.5134 0.6107 0.7718
2247.259 0.7046 0.5527 0.5899 0.5982 0.579 0.6274 0.6812 0.6387 0.5473 0.5576
2266.549 0.4528 0.39933 0.5744 0.7303 0.7918 0.8894 0.8885 0.8223 0.7264 0.6251
2285.839 0.6835 0.8636 0.9157 0.8562 0.8746 0.8451 0.7105 0.6086 0.7386 0.7539
2305.129 0.6621 0.7223 0.6559 0.4359 0.39181 0.6604 0.7481 0.6173 0.6294 0.5992
2324.418 0.4919 0.4782 0.5256 0.5745 0.5919 0.6161 0.672 0.6234 0.5644 0.6869
2343.708 0.6394 0.5505 0.6114 0.5196 0.4241 0.5114 0.5032 0.4416 0.4832 0.4686
2362.998 0.41471 0.2721 0.3933 0.6402 0.5244 0.36175 0.38217 0.5214 0.5528 0.5621
2382.288 0.6003 0.5209 0.5551 0.5635 0.6057 0.5643 0.4578 0.4966 0.5106 0.6577
2401.578 0.7185 0.7061 0.7811 0.7693 0.5674 0.5018 0.625 0.5027 0.4476 0.6814
2420.867 0.7197 0.5208 0.5129 0.4793 0.4555 0.634 0.729 0.6562 0.4871 0.4778
2440.157 0.5362 0.565 0.5448 0.5219 0.4867 0.4311 0.5104 0.5614 0.4987 0.5738
2459.447 0.4908 0.5418 0.7169 0.6171 0.5853 0.42864 0.35213 0.4492 0.4918 0.4735
2478.737 0.543 0.5925 0.42247 0.35495 0.489 0.594 0.5179 0.4841 0.5188 0.5281
2498.026 0.6247 0.5975 0.4776 0.4909 0.5508 0.5133 0.454 0.5973 0.7498 0.6179
2517.316 0.38877 0.38773 0.6269 0.7412 0.7758 0.738 0.6268 0.761 0.826 0.747
2536.606 0.8741 0.98 0.8253 0.5406 0.4714 0.5737 0.5191 0.509 0.5465 0.6231
2555.896 0.8271 0.7888 0.6292 0.7427 0.8225 0.7173 0.5472 0.5217 0.5682 0.6451
2575.186 0.6876 0.6943 0.775 0.7018 0.6964 0.765 0.7997 0.7112 0.6439 0.7544
2594.475 0.6563 0.6416 0.7615 0.8181 0.8584 0.8733 0.8152 0.778 0.6701 0.42808
2613.765 0.5038 0.6944 0.7418 0.677 0.7849 0.8002 0.6233 0.7432 0.8218 0.7436
2633.055 0.7325 0.7458 0.7464 0.7129 0.6495 0.6796 0.7983 0.7086 0.6262 0.7159
2652.345 0.9001 1.0344 1.0244 1.0993 1.1895 1.0793 0.8405 0.8087 0.8196 0.8024
2671.634 0.8591 0.9053 1.0822 1.2435 1.2455 1.1212 1.0911 1.17 1.1681 1.2903
2690.924 1.423 1.3203 1.0524 1.1315 1.2816 1.1787 1.2658 1.383 1.413 1.3144
2710.214 1.2807 1.3277 1.373 1.423 1.423 1.2791 1.2399 1.423 1.493 1.653
2729.504 1.723 1.673 1.743 1.793 1.733 1.753 1.663 1.543 1.743 1.893
2748.794 1.713 1.623 1.943 1.983 1.893 1.933 2.093 2.323 2.293 2.273
2768.083 2.443 2.443 2.503 2.803 2.893 3.013 3.443 3.743 3.813 3.683
2787.373 3.813 4.303 4.533 4.683 4.953 5.133 5.423 5.843 6.373 6.913
2806.663 7.363 7.983 8.593 9.043 9.733 10.613 11.023 11.453 12.123 12.763
2825.953 13.453 14.123 14.393 14.333 14.333 14.173 13.863 13.503 13.013 12.423
2845.242 11.813 10.953 10.313 9.893 9.263 8.793 8.573 8.363 7.903 7.513
2864.532 7.373 7.273 7.153 7.053 6.913 6.973 6.873 6.833 7.143 7.403
2883.822 7.593 7.463 7.423 7.713 7.883 7.833 7.823 7.913 7.873 7.743
2903.112 7.713 7.753 7.623 7.633 7.753 7.713 7.893 7.913 8.223 8.843
2922.401 9.393 9.923 10.213 10.343 10.343 10.053 9.533 8.903 8.153 7.493
2941.691 6.893 6.203 5.553 4.993 4.453 4.083 3.493 2.903 2.933 3.163
2960.981 3.053 2.473 2.273 2.453 2.293 2.153 2.093 2.323 2.403 2.263
2980.271 2.333 2.423 2.383 2.263 2.053 1.903 1.983 2.153 2.233 2.123
2999.561 1.913 2.093 2.413 2.453 2.393 2.433 2.733 2.833 3.133 3.603
3018.850 4.183 4.943 5.633 6.283 6.873 7.483 7.923 8.133 8.223 7.613
3038.140 6.873 6.463 6.283 6.023 5.733 5.493 5.193 5.013 4.543 3.983
3057.430 3.633 3.453 3.143 3.053 3.013 3.043 3.223 3.423 3.873 4.003
3076.720 4.193 4.503 4.683 4.923 5.343 5.753 5.583 5.353 5.283 4.983
3096.009 4.643 4.133 3.613 3.543 3.373 2.913 2.353 1.843 1.833 1.723
3115.299 1.543 1.413 0.9126 0.69 0.9149 1.0288 0.8324 0.5782 0.4924 0.5078
3134.589 0.5166 0.6193 0.7286 0.6818 0.4356 0.2488 0.214 0.2854 0.4336 0.536
3153.879 0.6288 0.791 0.7951 0.6955 0.5134 0.3286 0.4551 0.468 0.5338 0.8032
3173.169 0.7565 0.6392 0.6252 0.6659 0.6711 0.6476 0.7583 0.8746 0.8292 0.5896
3192.458 0.4755 0.5584 0.5048 0.5755 0.6735 0.5181 0.4621 0.39476 0.333595 0.3037
3211.748 0.36924 0.4412 0.306 0.121 0.21 0.39489 0.42957 0.5136 0.7169 0.5448
3231.038 0.337358 0.5194 0.5992 0.205 0.187 0.4869 0.5153 0.548 0.34642 0.31
3250.328 0.38404 0.4532 0.5063 0.38466 0.4648 0.5823 0.2793 0.2525 0.2518 0.162
3269.617 0.37971 0.35606 0.2562 0.37515 0.42858 0.40229 0.4622 0.35533 0.166 0.5739
3288.907 0.9001 0.5581 0.3148 0.33116 0.19 0.193 0.2872 0.41948 0.5746 0.37965
3308.197 0.38137 0.6336 0.6418 0.4678 0.4987 0.557 0.6363 0.6232 0.5284 0.2871
3327.487 0.147 0.215 0.019 0.2751 0.6296 0.627 0.6091 0.4747 0.468 0.4623
3346.777 0.39259 0.5454 0.42568 0.42122 0.6098 0.7066 0.8171 0.672 0.4374 0.157
3366.066 0.055 0.191 0.335484 0.5996 0.6695 0.6081 0.6098 0.5212 0.62 0.6159
3385.356 0.5666 0.8047 0.6629 0.37383 0.39949 0.5578 0.4372 0.3207 0.5447 0.5713
3404.646 0.5814 0.5075 0.568 0.7448 0.8736 0.9277 0.8724 0.6159 0.3651 0.4926
3423.936 0.43066 0.4877 0.5038 0.5134 0.689 0.433 0.42691 0.6384 0.35554 0.42518
3443.225 0.7725 0.6715 0.44 0.37125 0.256 0.2609 0.42178 0.5402 0.6484 0.4453
3462.515 0.36136 0.5029 0.6416 0.4434 0.2803 0.32448 0.2457 0.4706 0.5724 0.11
3481.805 0.073 0.342239 0.2584 0.5102 0.5909 0.4656 0.4844 0.2553 0.2965 0.4866
3501.095 0.5228 0.37263 0 0.046 0.3055 0.5466 0.5528 0.546 0.4836 0.288
3520.385 0.338211 0.41804 0.537 0.4679 0.2698 0.128 0.3009 0.5366 0.4579 0.40061
3539.674 0.34967 0.39207 0.5272 0.6336 0.6773 0.338557 0.226 0.5775 0.5043 0.159
3558.964 0.03 0.122 0.413 0.5426 0.4502 0.4566 0.5067 0.5144 0.4835 0.5339
3578.254 0.5246 0.5207 0.40431 0.2846 0.6445 0.6346 0.42085 0.4737 0.40211 0.3094
3597.544 0.4613 0.5595 0.33516 0.4993 0.6196 0.4665 0.5839 0.42336 0.41436 0.5534
3616.833 0.5113 0.6573 0.4833 0.2724 0.4528 0.9169 1.0755 0.7126 0.7379 0.7386
3636.123 0.34303 0.2428 0.37413 0.7161 1.0184 0.7856 0.42648 0.4553 0.5488 0.5821
3655.413 0.5345 0.5682 0.40484 0.2795 0.38681 0.5629 0.5284 0.6075 0.7296 0.36631
3674.703 0.5687 0.8095 0.6251 0.594 0.5533 0.2794 0.38664 0.4335 0.186 0.42589
3693.993 0.7006 0.5663 0.6742 0.8315 0.5131 0.6754 0.7797 0.5577 0.682 0.6502
3713.282 0.3878 0.5944 0.7187 0.602 0.6925 0.6362 0.7229 0.6739 0.6523 0.6984
3732.572 0.7658 0.5496 0.37696 0.39449 0.5191 0.8609 0.7292 0.41356 0.5703 0.8714
3751.862 0.8055 0.5795 0.34356 0.169 0 0.009 0.4871 0.6689 0.7922 0.8228
3771.152 0.5357 0.5843 0.5943 0.34948 0.6479 0.7058 0.37025 0.749 0.8034 0.6941
3790.441 0.7382 0.6762 0.5232 0.5855 0.6938 0.8344 0.8002 0.35229 0.3062 0.6362
3809.731 0.8888 0.9352 0.7937 0.7671 0.7281 0.2901 0.015 0.066 0.199 0.2873
3829.021 0.339801 0.5738 0.6039 0.4741 0.41249 0.201 0.197 0.5615 0.6671 0.4552
3848.311 0.509 0.5974 0.36409 0.2873 0.5388 0.5029 0.4843 0.438 0.4685 0.7486
3867.601 0.6617 0.7351 0.6413 0.4 0.3033 0.5955 0.6195 0.2969 0.41946 0.4346
3886.890 0.7662 0.7863 0.5998 0.5528 0.5027 0.5668 0.4703 0.43239 0.4847 0.8244
3906.180 0.7357 0.41722 0.4395 0.5297 0.6834 0.6698 0.5276 0.4698 0.38096 0.6153
3925.470 0.6679 0.4869 0.5934 0.9992 0.9167 0.6053 0.5622 0.4824 0.4399 0.212
3944.760 0.342821 0.36265 0.6077 0.8458 0.5067 0.6808 0.9996 0.888 0.7927 0.5726
3964.049 0.471 0.4926 0.5876 0.5867 0.5487 0.6161 0.5628 0.5364 0.4503 0.368
3983.339 0.35441 0.2456 0.5133 0.7084 0.5754 0.8752 0.9552 0.6187 0.337108 0.4609
##END=
