##TITLE=cis-2-Buten-1-ol
##JCAMP-DX=4.24
##DATA TYPE=INFRARED SPECTRUM
##ORIGIN=NIST Mass Spectrometry Data Center
##OWNER=NIST Standard Reference Data Program
Collection (C) 2018 copyright by the U.S. Secretary of Commerce
on behalf of the United States of America. All rights reserved.
##CAS REGISTRY NO=4088-60-2
##MOLFORM=C 4 H 8 O
##$NIST SOURCE=MSDC-IR
##SPECTROMETER/DATA SYSTEM=HP-GC/MS/IRD
##STATE=gas
##XUNITS=1/CM
##YUNITS=ABSORBANCE
##XFACTOR=1.0
##YFACTOR=0.000001400
##DELTAX=4.0
##FIRSTX=550.0
##LASTX=3846.0
##FIRSTY=0.000490
##MAXX=3846
##MINX=550
##MAXY=0.014
##MINY=0
##NPOINTS=825
##XYDATA=(X++(Y..Y))
550.0 350 451 366 422 342 340 371 350 383 403
590.0 378 413 399 368 372 375 446 512 519 587
630.0 670 734 826 918 1030 1143 1244 1362 1506 1657
670.0 1824 1990 2165 2322 2448 2515 2495 2423 2334 2231
710.0 2053 1823 1650 1485 1285 1070 940 814 649 535
750.0 420 331 285 233 169 131 117 90 61 47
790.0 61 84 75 66 58 55 49 70 70 57
830.0 80 121 190 240 263 293 360 446 512 567
870.0 658 742 800 849 916 995 1060 1099 1110 1183
910.0 1266 1361 1477 1640 1870 2193 2575 3001 3458 3925
950.0 4370 4752 5019 5215 5399 5465 5448 5444 5462 5521
990.0 5620 5770 6044 6441 6977 7677 8429 9153 9723 10000
1030.0 9984 9682 9161 8522 7717 6721 5686 4754 3962 3335
1070.0 2861 2484 2158 1905 1707 1536 1403 1297 1226 1170
1110.0 1111 1058 1021 1030 1047 1056 1056 1059 1051 1054
1150.0 1115 1155 1176 1243 1270 1335 1408 1443 1495 1552
1190.0 1603 1639 1653 1659 1669 1672 1677 1686 1696 1689
1230.0 1655 1618 1581 1559 1537 1515 1531 1507 1457 1423
1270.0 1400 1363 1329 1309 1289 1281 1278 1277 1288 1297
1310.0 1320 1358 1422 1508 1640 1814 2009 2227 2458 2677
1350.0 2867 3017 3132 3192 3252 3278 3258 3166 3028 2892
1390.0 2799 2759 2653 2447 2218 2019 1867 1766 1684 1628
1430.0 1561 1474 1415 1372 1323 1268 1251 1225 1163 1095
1470.0 1052 1007 926 855 803 718 642 576 528 524
1510.0 490 451 449 454 441 424 437 465 453 414
1550.0 402 400 407 377 341 334 315 294 297 291
1590.0 271 266 282 293 282 292 334 369 400 440
1630.0 497 582 658 736 802 842 839 817 802 783
1670.0 744 660 551 469 383 313 297 289 262 241
1710.0 217 214 200 159 141 143 149 133 113 94
1750.0 81 66 62 62 48 47 36 27 13 18
1790.0 33 21 16 8 16 23 14 15 8 0
1830.0 9 21 23 31 44 47 35 27 22 38
1870.0 53 41 31 37 44 44 50 43 56 74
1910.0 75 81 92 84 89 103 110 112 111 107
1950.0 110 118 117 122 138 142 150 151 169 188
1990.0 189 201 207 199 191 180 165 153 154 159
2030.0 150 143 130 110 108 116 125 125 115 108
2070.0 106 108 111 107 103 87 76 79 83 80
2110.0 64 58 72 65 63 68 62 56 57 66
2150.0 71 57 47 53 52 48 54 60 60 62
2190.0 63 57 53 48 50 50 57 64 61 57
2230.0 57 62 63 57 63 72 63 64 71 73
2270.0 79 92 95 87 89 98 85 70 76 93
2310.0 102 101 101 101 113 133 130 135 129 112
2350.0 122 127 139 152 153 150 130 122 125 123
2390.0 117 113 122 124 117 113 117 114 100 110
2430.0 125 118 109 129 141 127 122 112 117 134
2470.0 125 130 138 127 112 122 143 130 125 142
2510.0 133 121 117 119 124 122 110 111 128 105
2550.0 99 129 136 120 118 126 122 114 122 129
2590.0 132 142 130 117 127 124 123 145 170 161
2630.0 140 136 141 158 150 140 142 142 151 158
2670.0 163 167 193 199 189 200 212 216 218 231
2710.0 244 282 311 328 351 369 375 394 429 439
2750.0 441 460 485 495 516 537 547 574 591 603
2790.0 645 705 758 826 898 968 1057 1171 1305 1451
2830.0 1621 1821 2037 2282 2556 2868 3219 3583 3923 4239
2870.0 4518 4771 5009 5201 5363 5471 5569 5667 5772 5900
2910.0 6080 6291 6500 6623 6674 6675 6615 6512 6360 6102
2950.0 5749 5333 4940 4625 4382 4189 4031 3862 3731 3634
2990.0 3583 3578 3655 3793 3972 4214 4515 4766 4911 4962
3030.0 4960 4977 4926 4715 4325 3816 3274 2771 2355 1980
3070.0 1637 1367 1171 1025 886 747 645 562 486 422
3110.0 371 334 286 228 197 191 202 210 194 168
3150.0 155 130 115 111 82 73 69 70 91 114
3190.0 109 91 80 86 96 67 54 82 114 95
3230.0 67 80 87 59 47 68 83 85 106 110
3270.0 99 98 97 100 74 57 87 107 108 84
3310.0 75 91 116 99 84 77 57 63 55 55
3350.0 62 81 114 105 83 83 83 82 87 124
3390.0 145 127 118 142 150 120 128 153 156 146
3430.0 141 152 150 139 139 148 158 171 152 159
3470.0 184 187 186 182 176 154 158 183 196 211
3510.0 202 173 164 170 178 182 173 163 170 185
3550.0 185 168 151 156 164 154 163 192 217 243
3590.0 243 247 271 317 378 414 507 618 696 784
3630.0 909 1034 1197 1389 1588 1771 1889 1917 1900 1885
3670.0 1843 1755 1616 1372 1125 913 748 616 490 417
3710.0 394 364 296 247 256 230 216 203 179 197
3750.0 208 180 146 149 146 147 152 159 133 138
3790.0 182 191 181 167 146 141 175 220 202 175
3830.0 166 181 221 218 190
##END=
