##TITLE=2-Fluoro-5-(trifluoromethyl)benzonitrile
##JCAMP-DX=4.24
##DATA TYPE=INFRARED SPECTRUM
##ORIGIN=EPA-IR VAPOR PHASE LIBRARY
##OWNER=SRD/NIST
Collection (C) 2018 copyright by the U.S. Secretary of Commerce
on behalf of the United States of America. All rights reserved.
##CAS REGISTRY NO=4088-84-0
##MOLFORM=C 8 H 3 F 4 N
##$NIST SOURCE=MSDC-IR
##STATE=gas
##XUNITS=1/CM
##YUNITS=ABSORBANCE
##XFACTOR=1.
##YFACTOR=0.001
##DELTAX=1.92898
##FIRSTX=549.8
##LASTX=4000.7
##FIRSTY=2.011
##MAXX=4000.7
##MINX=549.759
##MAXY=0.392491
##MINY=0
##NPOINTS=1790
##XYDATA=(X++(Y..Y))
549.759 2.011 2.061 2.661 3.171 3.181 2.721 2.061 1.651 1.881 1.361
569.049 1.0376 1.1634 0.9177 1.511 2.211 2.331 2.821 3.271 4.661 6.501
588.339 8.101 10.841 13.111 13.811 13.841 13.681 12.911 11.021 8.931 7.171
607.628 6.151 5.601 5.201 5.081 4.761 4.671 5.141 5.761 6.681 8.581
626.918 12.641 18.091 23.591 26.931 28.671 29.731 29.901 29.241 25.691 20.311
646.208 15.931 13.431 11.051 8.751 7.431 6.521 5.631 4.411 3.571 3.351
665.498 3.171 2.571 2.381 2.491 2.371 1.901 1.351 1.391 1.711 1.991
684.787 1.921 1.751 1.831 1.881 1.711 1.801 1.781 1.951 2.131 2.071
704.077 2.481 2.781 2.771 2.991 3.391 4.671 6.161 7.901 11.501 16.811
723.367 22.691 27.121 29.261 30.481 29.851 27.931 25.301 19.651 13.561 9.361
742.657 6.531 5.161 4.571 3.691 3.331 3.321 3.411 3.771 4.151 4.551
761.947 5.611 8.021 10.311 11.841 13.191 14.181 14.271 13.181 11.721 10.041
781.236 8.431 6.721 4.651 3.431 2.851 2.221 1.821 2.381 2.281 1.871
800.526 2.001 1.881 1.861 2.211 2.931 3.601 4.711 6.101 8.091 10.941
819.816 15.231 19.771 23.941 28.471 31.621 36.221 43.251 50.231 50.781 42.561
839.106 34.611 30.471 27.091 23.171 18.671 13.851 10.271 7.911 6.641 5.961
858.395 5.531 5.331 5.161 4.811 4.581 4.771 4.621 4.201 3.961 4.031
877.685 4.581 5.091 5.571 6.931 7.891 8.691 10.271 11.311 11.951 13.501
896.975 15.301 16.841 18.211 19.481 21.041 23.401 26.111 26.021 22.101 18.321
916.265 16.271 14.181 11.971 10.141 8.151 6.041 4.661 3.811 3.401 2.901
935.555 2.431 2.511 2.341 1.811 1.681 1.851 1.761 1.741 2.081 2.251
954.844 1.971 2.101 2.541 2.411 2.051 1.841 2.331 2.731 2.331 2.141
974.134 2.091 1.901 1.501 1.721 1.971 1.731 1.681 1.641 1.571 1.591
993.424 1.831 1.791 1.891 1.601 1.361 1.721 1.721 1.601 1.931 2.661
1012.714 2.561 2.301 3.111 3.241 3.121 3.611 3.261 2.931 3.191 3.681
1032.003 3.781 3.531 3.141 3.251 3.501 3.741 4.301 4.591 4.601 5.461
1051.293 7.671 9.141 11.011 14.681 19.851 25.881 32.631 40.411 46.961 51.521
1070.583 53.951 53.921 52.091 47.831 41.071 33.361 26.281 20.321 16.211 13.581
1089.873 11.911 11.621 11.791 11.781 12.981 15.741 18.171 21.271 25.491 31.041
1109.163 39.461 49.801 62.591 76.991 88.201 94.581 97.941 99.481 100.661 98.161
1128.452 89.261 79.291 72.671 72.371 77.721 87.141 99.921 117.071 139.591 164.371
1147.742 190.331 220.981 255.341 284.951 304.281 308.331 298.781 285.141 274.471 266.011
1167.032 256.071 246.001 242.661 248.341 256.971 263.431 262.441 251.011 233.541 211.911
1186.322 185.681 159.631 135.031 112.611 92.001 72.581 57.721 47.111 39.341 34.011
1205.611 28.981 25.161 24.061 23.971 24.321 24.791 24.931 24.111 22.811 21.281
1224.901 20.121 18.011 15.321 14.361 14.471 13.501 13.881 14.271 14.741 16.201
1244.191 17.651 20.211 21.641 21.991 22.741 23.771 25.451 27.321 29.481 33.281
1263.481 39.181 49.831 67.071 90.051 111.851 123.951 127.981 128.371 122.991 113.691
1282.771 95.961 69.051 47.561 36.011 30.211 27.401 25.991 25.581 25.651 25.991
1302.060 27.081 28.951 32.251 37.681 46.151 58.891 77.291 102.771 137.591 182.921
1321.350 236.821 293.701 343.321 377.041 392.491 390.841 371.251 330.891 270.881 202.101
1340.640 140.901 97.761 69.881 50.871 37.821 29.781 25.541 23.531 22.701 22.441
1359.930 22.561 22.981 23.621 24.061 23.751 22.831 21.441 19.591 17.271 14.961
1379.219 12.901 11.051 9.601 8.931 8.701 8.741 9.231 9.791 10.431 11.191
1398.509 12.141 12.921 13.571 14.301 14.971 15.701 16.161 16.271 16.241 16.041
1417.799 15.641 14.761 13.621 12.651 11.531 10.141 8.831 7.711 6.631 5.931
1437.089 5.471 5.011 4.651 4.451 4.211 4.121 4.131 3.881 3.851 3.861
1456.378 3.821 3.991 4.101 4.091 4.111 4.261 4.461 4.521 4.491 4.661
1475.668 5.091 5.531 6.061 6.781 7.911 9.281 10.851 13.031 16.041 19.551
1494.958 23.821 29.441 35.691 42.591 49.741 55.991 60.511 62.031 60.701 56.631
1514.248 50.591 42.871 33.451 24.441 16.811 11.981 9.151 7.751 7.121 6.781
1533.538 6.161 5.681 5.541 5.321 5.121 5.141 5.061 5.021 5.271 5.721
1552.827 6.001 6.361 6.491 6.221 6.341 6.201 6.031 6.041 5.791 5.961
1572.117 6.751 7.561 8.611 10.351 12.131 14.101 16.051 17.701 19.731 21.531
1591.407 22.751 23.581 23.781 23.661 23.331 22.891 22.171 21.461 21.001 21.241
1610.697 22.221 23.331 24.471 25.281 25.771 26.251 26.261 25.911 25.091 23.781
1629.986 23.011 22.431 21.621 20.531 19.021 17.421 15.611 13.391 10.941 9.031
1649.276 7.381 5.951 4.891 4.481 4.471 4.471 4.501 4.601 4.731 4.741
1668.566 4.561 4.211 4.001 3.891 3.491 2.971 2.521 2.141 1.891 1.741
1687.856 1.611 1.571 1.631 1.691 1.711 1.581 1.2555 1.2882 1.561 1.441
1707.146 1.301 1.341 1.331 1.361 1.391 1.411 1.421 1.321 1.441 1.511
1726.435 1.411 1.2638 1.1955 1.1917 1.2591 1.1082 0.887 1.1325 1.301 1.2548
1745.725 1.1984 1.1694 1.2053 1.175 1.2123 1.301 1.411 1.2809 1.1294 1.321
1765.015 1.391 1.391 1.451 1.531 1.641 1.851 2.201 2.501 2.751 3.031
1784.305 3.311 3.521 3.651 3.631 3.431 3.261 3.251 3.111 2.931 2.881
1803.594 2.971 3.151 3.321 3.491 3.551 3.641 3.671 3.621 3.371 2.941
1822.884 2.601 2.291 2.001 1.721 1.621 1.471 1.311 1.248 1.1991 1.2321
1842.174 1.0794 1.1165 1.401 1.411 1.2222 1.1855 1.2145 1.311 1.391 1.471
1861.464 1.501 1.551 1.621 1.641 1.601 1.571 1.641 1.641 1.601 1.541
1880.754 1.481 1.541 1.641 1.701 1.771 1.791 1.921 2.101 2.161 2.221
1900.043 2.501 2.821 3.081 3.491 3.891 4.081 4.251 4.421 4.241 4.031
1919.333 3.691 3.411 3.221 2.751 2.421 2.041 1.701 1.561 1.491 1.501
1938.623 1.321 1.2321 1.291 1.391 1.2831 1.1351 1.0382 0.9788 1.0305 0.8952
1957.913 0.8395 0.9368 0.984 0.9603 1.0356 1.0796 0.9776 0.9744 0.9386 0.8969
1977.202 0.9041 0.8176 0.8443 0.9003 0.8518 0.849 0.9659 0.9925 1.0826 1.0987
1996.492 1.0763 1.1697 1.1553 1.2368 1.381 1.2371 1.1874 1.371 1.301 1.361
2015.782 1.421 1.371 1.391 1.421 1.531 1.561 1.331 1.2755 1.501 1.581
2035.072 1.541 1.461 1.451 1.531 1.611 1.671 1.641 1.761 1.771 1.761
2054.362 1.801 1.731 1.671 1.511 1.451 1.601 1.611 1.501 1.511 1.441
2073.651 1.341 1.2504 1.1109 1.1308 1.2051 1.2795 1.341 1.1566 1.1435 1.491
2092.941 1.461 1.2294 1.2705 1.1697 1.1285 1.2725 1.341 1.1813 1.0806 1.0708
2112.231 1.1579 1.1971 1.0835 1.1473 1.148 1.0012 0.9683 1.0184 1.0311 1.054
2131.521 0.9855 0.9856 0.9615 0.8845 0.9636 1.0399 0.8184 0.7957 1.0499 1.1064
2150.810 1.0596 1.0404 1.0657 1.1717 1.331 1.291 1.1137 1.1594 1.351 1.461
2170.100 1.471 1.371 1.311 1.2706 1.2346 1.1508 1.1029 1.1043 1.1424 1.2796
2189.390 1.2367 1.2412 1.2019 1.1331 1.1222 1.1404 1.401 1.561 1.441 1.371
2208.680 1.471 1.381 1.471 1.691 1.791 1.841 2.001 2.151 2.241 2.431
2227.970 2.301 2.231 2.701 2.901 2.801 2.871 3.041 3.181 3.021 3.031
2247.259 3.031 2.521 2.191 2.161 2.051 1.781 1.801 1.841 1.861 1.821
2266.549 1.731 1.741 1.761 1.741 1.771 1.921 1.951 2.071 2.191 2.261
2285.839 2.221 2.221 2.201 2.181 2.371 2.331 2.161 2.091 2.091 2.191
2305.129 1.951 1.781 1.831 1.721 1.941 2.021 1.831 1.791 1.921 2.021
2324.418 1.911 1.911 1.901 1.911 1.981 2.161 2.121 1.881 1.871 1.971
2343.708 1.781 1.631 1.821 1.911 1.901 1.891 1.831 1.861 1.871 1.641
2362.998 1.611 1.711 1.821 1.801 1.601 1.601 1.681 1.701 1.641 1.471
2382.288 1.501 1.511 1.381 1.531 1.631 1.621 1.571 1.501 1.441 1.331
2401.578 1.2673 1.194 1.1242 1.1298 1.2092 1.0498 0.9436 1.2009 1.351 1.1966
2420.867 1.291 1.411 1.2868 1.421 1.421 1.1148 1.0083 1.1711 1.2727 1.1804
2440.157 1.311 1.611 1.561 1.331 1.2753 1.321 1.2719 1.1772 1.2589 1.421
2459.447 1.381 1.1247 1.0109 1.1632 1.351 1.361 1.1438 1.0966 1.1493 1.2751
2478.737 1.471 1.441 1.351 1.2546 1.411 1.701 1.731 1.581 1.531 1.651
2498.026 1.821 1.801 1.801 2.011 1.801 1.711 1.911 1.961 1.951 1.841
2517.316 1.781 1.801 1.651 1.561 1.661 1.721 1.611 1.511 1.461 1.311
2536.606 1.331 1.451 1.411 1.1667 1.2434 1.591 1.371 1.381 1.391 1.1158
2555.896 1.0846 1.0445 1.1099 1.341 1.411 1.2765 1.301 1.341 1.351 1.401
2575.186 1.391 1.2307 1.0387 1.022 1.2904 1.531 1.391 1.1726 1.2295 1.491
2594.475 1.581 1.651 1.491 1.371 1.561 1.621 1.591 1.481 1.381 1.421
2613.765 1.671 1.591 1.2255 1.0637 1.1157 1.381 1.661 1.601 1.461 1.471
2633.055 1.501 1.471 1.351 1.2357 1.311 1.351 1.2139 1.1045 1.1154 1.391
2652.345 1.471 1.431 1.451 1.511 1.2872 1.0709 1.1489 1.2425 1.311 1.1553
2671.634 1.0763 0.9261 0.7905 0.8414 0.9346 1.0999 0.9208 0.867 0.9609 1.0387
2690.924 1.2772 1.1512 0.976 0.8472 0.908 0.8448 0.6504 0.8487 1.1099 1.2266
2710.214 1.1152 0.9731 0.9171 0.7885 0.7412 0.8565 1.0535 1.106 0.8955 0.84
2729.504 1.0593 1.1149 0.94 0.7665 0.7748 0.8659 0.8962 0.9374 0.9067 0.8455
2748.794 0.8451 0.7246 0.6667 0.9249 1.2424 1.321 1.351 1.2389 1.0607 1.0548
2768.083 1.1401 1.0539 0.9729 1.2057 1.351 1.351 1.481 1.611 1.491 1.411
2787.373 1.461 1.391 1.2036 0.9578 1.0867 1.2624 1.2371 1.351 1.301 1.361
2806.663 1.331 1.1162 1.1253 1.321 1.2492 0.9147 1.0279 1.341 1.2479 1.0184
2825.953 1.0158 1.0571 0.9942 0.912 0.9065 0.7505 0.5338 0.9466 1.1566 0.7028
2845.242 0.5613 0.7057 0.8328 0.8331 0.6836 0.9342 0.9376 0.8873 1.2246 1.0253
2864.532 0.9954 1.2479 0.8186 0.8461 1.1603 1.1423 1.311 1.1507 0.9245 0.7496
2883.822 0.6795 0.8662 0.9589 0.9978 0.8729 0.979 1.0777 1.1124 1.247 1.1026
2903.112 1.1387 1.341 1.1832 0.7571 0.7415 0.9629 1.0375 0.9787 0.9095 0.9443
2922.401 0.9187 0.8496 0.961 1.1336 1.2363 1 0.8473 1.017 0.9781 1.1552
2941.691 1.2555 1.2085 1.0159 0.9127 1.1532 1.24 1.321 0.9411 0.7108 1.1315
2960.981 1.351 1.0612 0.7771 1.0216 1.1261 0.8315 0.9698 1.2574 1.1255 0.9404
2980.271 1.049 0.9991 0.6985 0.7203 1.0505 1.2665 1.0885 1.0977 1.0178 1.0038
2999.561 1.1536 1.1506 1.2836 1.173 1.1077 1.2282 1.381 1.1998 0.914 1.0046
3018.850 1.1431 0.9731 0.9166 1.168 1.0177 1.0193 0.947 0.8578 0.9215 0.8279
3038.140 1.0722 1.341 1.1692 0.7525 0.6595 0.852 0.8676 0.6137 0.6197 1.0002
3057.430 1.263 1.291 1.301 0.9884 0.7909 1.2111 1.401 0.946 0.9284 1.321
3076.720 1.531 1.591 1.691 1.831 1.891 1.951 2.001 2.281 2.121 1.961
3096.009 1.971 1.531 1.581 1.471 1.1708 1.301 1.481 1.431 1.2199 1.0281
3115.299 0.9266 1.0272 1.1512 1.2471 1.2692 1.1906 1.0768 0.996 0.9554 1.0101
3134.589 1.0691 1.0055 1.152 1.2683 1.1093 0.9261 0.6436 0.646 0.6968 0.7505
3153.879 0.8688 0.9608 0.8213 0.4971 0.5502 0.6119 0.5446 0.6441 0.8939 1.0448
3173.169 0.8848 0.7946 0.9105 0.821 0.7968 0.7351 0.33572 0.5648 1.1905 1.0727
3192.458 0.945 1.1421 1.0036 1.2566 1.691 1.246 0.6609 0.6521 0.6517 0.34425
3211.748 0.6256 0.9982 1.0233 1.2048 1.301 1.491 1.601 1.1654 1.1012 1.551
3231.038 1.1997 0.8878 0.9329 0.7793 0.725 0.7827 1.1475 1.561 1.2678 0.7114
3250.328 0.5551 0.4025 0.4281 0.9175 1.301 1.0621 0.7524 0.7167 0.7628 0.8357
3269.617 0.8402 0.6672 0.8445 0.7981 0.6189 1.0125 0.9388 0.5443 0.5365 1.0008
3288.907 1.1251 0.9949 1.1231 1.0362 0.7472 0.7003 0.8154 0.8112 0.6898 0.433
3308.197 0.4314 0.646 0.9823 1.1447 1.0503 0.832 0.7345 1.0062 1.291 1.1935
3327.487 1.026 1.0268 0.922 0.6674 0.6891 1.1422 1.0429 0.7181 0.5191 0.6749
3346.777 1.1205 1.1334 0.7112 0.5857 0.8448 0.8614 0.9161 1.0984 1.105 0.4975
3366.066 0 0.612 1.109 1.1928 1.1008 0.7507 0.8478 0.9562 0.8373 0.9722
3385.356 1.351 1.341 0.9927 0.8467 1.0356 1.481 1.801 1.381 0.9591 1.1359
3404.646 1.481 1.581 1.301 1.0589 0.9954 1.301 1.851 1.741 1.421 1.411
3423.936 1.2444 1.2374 1.0267 1.1295 1.391 0.9805 1.1126 1.0928 0.4517 0.6406
3443.225 1.0681 1.123 1.1047 0.9031 0.8823 1.0069 1.2295 1.28 0.9722 1.301
3462.515 1.581 1.1604 0.8111 0.4205 0.5253 0.8741 0.9638 1.0824 1.2722 1.2476
3481.805 1.0185 1.1071 1.1403 0.8791 1.0033 1.0693 1.0152 1.0376 0.4758 0.4029
3501.095 0.8825 0.8816 0.8319 0.8977 0.7902 0.9416 0.8317 0.4334 0.6727 0.9609
3520.385 1.2071 1.361 1.2098 1.1016 1.2395 1.351 1.2346 1.1352 0.9734 0.969
3539.674 1.0278 1.0469 1.1323 1.0939 1.381 1.371 0.623 0.4795 0.9962 1.1974
3558.964 1.1015 1.371 1.501 1.411 1.321 1.381 1.165 0.8209 1.1091 1.2624
3578.254 0.9717 0.7941 0.8068 0.5173 0.6855 0.8578 0.7229 0.9654 1.1034 1.0695
3597.544 1.1166 0.9894 0.9007 0.7758 0.6243 0.501 0.38116 0.4215 0.6514 0.9865
3616.833 0.9845 0.91 0.677 0.8337 1.311 1.711 1.541 1.194 1.0905 0.5576
3636.123 0.5722 0.7651 0.8694 1.341 1.441 1.491 1.391 1.351 1.2699 0.8641
3655.413 0.8266 0.7743 0.5007 0.5713 0.9482 0.8579 0.7295 0.6285 0.7921 1.311
3674.703 1.401 1.351 1.301 0.9403 0.9923 1.2366 0.9572 0.8978 1.132 1.2495
3693.993 1.2861 1.311 1.0739 0.9498 0.7998 0.5393 0.8122 1.1958 1.351 1.461
3713.282 1.411 0.9434 1.0061 1.0129 0.8543 1.0723 0.8235 0.8626 1.0893 0.9651
3732.572 1.0715 1.431 1.461 1.2582 1.321 1.2052 1.0609 1.0867 0.7666 1.0602
3751.862 1.471 1.2782 1.1213 1.0527 1.1619 1.311 1.2279 1.2083 1.541 1.391
3771.152 1.2551 1.361 0.9812 0.7512 0.7963 0.7395 0.6062 0.8069 1.0716 0.6146
3790.441 0.2373 0.8055 0.989 0.7901 1.0348 1.079 1.0349 1.1167 0.6309 0.709
3809.731 0.9754 0.8134 1.1553 1.1105 0.9805 0.8657 0.6126 0.9789 1.411 1.441
3829.021 1.2801 0.918 0.687 0.988 0.951 0.614 0.5643 0.7655 1.0839 0.8904
3848.311 0.6207 0.8853 1.2614 1.331 1.0564 0.5034 0.36122 0.4769 0.7091 1.0458
3867.601 1.1372 1.2247 1.0257 0.4522 0.6465 0.8548 0.9179 1.301 1.103 0.9573
3886.890 0.8877 0.9251 1.1515 1.0661 0.9659 0.6483 0.4391 0.5077 0.7871 0.6214
3906.180 0.30888 0.9471 1.571 1.421 1.0009 0.6315 0.8353 0.977 0.6503 1.0591
3925.470 1.1581 0.9965 1.2892 1.481 1.361 0.852 0.8648 1.2708 1.461 1.531
3944.760 1.541 1.421 1.2105 1.0194 1.0241 1.0152 0.951 0.7205 0.8837 1.621
3964.049 1.741 1.711 1.591 1.401 1.381 1.2816 1.561 1.881 2.101 1.691
3983.339 1.2463 1.2115 1.0709 1.0456 0.6927 0.8528 0.9572 0.6951 0.9381 1.1881
##END=
