##TITLE=3-Acetyl-2-methyl-5-phenylthiophene
##JCAMP-DX=4.24
##DATA TYPE=INFRARED SPECTRUM
##ORIGIN=EPA-IR VAPOR PHASE LIBRARY
##OWNER=SRD/NIST
Collection (C) 2018 copyright by the U.S. Secretary of Commerce
on behalf of the United States of America. All rights reserved.
##CAS REGISTRY NO=40932-63-6
##MOLFORM=C 13 H 12 O S
##$NIST SOURCE=MSDC-IR
##STATE=gas
##XUNITS=1/CM
##YUNITS=ABSORBANCE
##XFACTOR=1.
##YFACTOR=0.001
##DELTAX=1.929
##FIRSTX=549.8
##LASTX=4000.8
##FIRSTY=2.771
##MAXX=4000.75
##MINX=549.766
##MAXY=0.142231
##MINY=0
##NPOINTS=1790
##XYDATA=(X++(Y..Y))
549.766 2.771 2.921 3.301 3.741 4.581 5.541 6.421 7.131 7.801 8.061
569.056 8.031 8.221 7.951 7.641 7.801 8.421 9.861 11.971 14.891 17.811
588.346 19.811 20.781 20.571 19.381 17.161 14.231 11.451 9.071 7.241 6.341
607.636 6.151 6.111 5.961 5.911 6.211 6.091 5.721 5.621 5.441 5.111
626.926 4.731 4.361 3.891 3.511 3.261 3.021 2.871 2.551 2.311 2.341
646.216 2.301 2.461 2.731 2.981 3.231 3.341 3.731 4.401 4.841 5.281
665.506 5.751 6.281 6.881 7.521 8.161 8.991 10.111 11.321 12.811 14.501
684.796 16.311 18.191 19.951 20.451 19.551 18.541 17.481 16.181 14.921 13.751
704.086 12.831 12.091 11.491 11.121 10.821 10.491 10.061 9.571 8.991 8.321
723.376 7.661 7.011 6.621 6.551 6.651 6.851 7.171 7.661 8.561 9.961
742.666 11.671 13.891 16.661 19.631 22.581 25.281 27.801 29.101 27.461 23.891
761.956 20.411 17.281 14.311 11.711 9.471 7.731 6.631 5.951 5.461 4.851
781.246 4.351 4.031 3.711 3.351 3.061 2.741 2.471 2.311 2.231 2.131
800.536 1.951 2.001 2.081 2.071 2.201 2.541 3.151 3.941 4.741 5.501
819.826 6.341 7.251 7.991 8.571 9.141 9.721 10.101 10.281 10.381 9.781
839.116 8.561 7.381 6.421 5.591 4.821 4.131 3.661 3.411 3.271 3.231
858.406 3.151 3.081 2.961 2.771 2.621 2.441 2.291 2.221 2.101 1.901
877.696 1.781 1.671 1.641 1.661 1.691 1.701 1.641 1.691 1.721 1.751
896.986 1.911 2.101 2.251 2.321 2.371 2.371 2.311 2.251 2.301 2.261
916.276 2.261 2.391 2.561 2.811 3.011 3.241 3.571 3.921 4.371 4.961
935.566 5.611 6.341 7.151 8.051 9.061 10.091 11.191 12.461 13.641 14.631
954.856 15.431 15.671 15.431 14.821 13.761 12.341 10.761 9.301 8.021 6.831
974.146 5.931 5.331 4.761 4.391 4.161 3.911 3.721 3.521 3.371 3.391
993.436 3.371 3.331 3.381 3.411 3.361 3.391 3.471 3.511 3.461 3.451
1012.726 3.591 3.781 3.971 4.211 4.541 4.931 5.511 6.141 6.521 6.721
1032.016 6.701 6.471 6.041 5.341 4.621 4.001 3.581 3.321 3.081 2.921
1051.306 2.991 3.101 3.121 3.171 3.301 3.451 3.571 3.701 3.771 3.701
1070.596 3.681 3.591 3.471 3.331 3.181 2.971 2.771 2.681 2.601 2.551
1089.886 2.591 2.591 2.521 2.501 2.461 2.461 2.531 2.531 2.421 2.371
1109.176 2.321 2.251 2.201 2.131 2.161 2.071 2.051 2.201 2.281 2.291
1128.467 2.281 2.401 2.561 2.651 2.771 2.951 3.251 3.501 3.681 3.981
1147.757 4.301 4.651 4.991 5.411 5.831 6.161 6.541 7.101 7.721 8.361
1167.047 9.081 9.621 9.991 10.311 10.561 10.781 11.001 11.131 11.311 11.631
1186.337 11.901 12.171 12.511 12.761 13.051 13.671 14.671 16.171 18.411 21.521
1205.627 25.721 31.381 38.681 47.631 58.151 69.751 81.351 91.511 99.011 102.471
1224.917 101.011 94.971 84.981 72.261 58.931 46.821 36.761 29.101 23.541 19.571
1244.207 16.531 14.131 12.121 10.381 9.021 7.991 7.401 7.091 6.901 6.821
1263.497 6.961 7.181 7.291 7.281 7.171 6.941 6.541 6.151 5.711 5.171
1282.787 4.801 4.621 4.461 4.371 4.371 4.491 4.631 4.651 4.711 4.771
1302.077 4.721 4.681 4.631 4.511 4.431 4.381 4.441 4.541 4.571 4.661
1321.367 4.781 4.911 5.051 5.231 5.461 5.661 5.971 6.361 6.821 7.511
1340.657 8.321 9.331 10.621 12.121 13.891 15.941 18.331 20.911 23.581 26.331
1359.947 29.021 31.451 33.381 34.431 34.471 33.641 31.981 29.461 26.371 23.251
1379.237 20.211 17.351 14.891 12.941 11.471 10.331 9.471 8.951 8.681 8.501
1398.527 8.371 8.321 8.221 8.121 8.051 8.021 8.091 8.201 8.391 8.711
1417.817 9.191 9.781 10.481 11.241 12.021 12.741 13.311 13.751 14.201 14.561
1437.107 14.851 15.181 15.761 16.541 17.311 18.321 19.801 21.621 23.941 26.731
1456.397 30.211 34.191 37.711 40.631 42.281 42.351 40.791 37.631 33.101 27.961
1475.687 23.281 19.361 16.561 14.781 13.951 13.801 14.141 14.761 15.451 15.981
1494.977 16.231 16.271 16.021 15.341 14.451 13.481 12.391 11.461 10.801 10.271
1514.267 9.971 9.861 9.911 10.141 10.471 10.911 11.651 12.601 13.761 15.291
1533.557 17.101 19.081 20.931 22.551 23.741 24.061 23.381 21.901 19.691 17.051
1552.847 14.501 12.051 10.091 8.511 7.471 6.821 6.361 6.161 6.081 6.061
1572.137 6.151 6.331 6.631 7.161 7.791 8.471 9.321 10.331 11.521 12.821
1591.427 14.111 15.371 16.481 17.241 17.441 16.981 15.841 14.201 12.271 10.221
1610.717 8.461 7.141 6.241 5.671 5.311 5.071 4.891 4.691 4.601 4.661
1630.007 4.791 4.971 5.191 5.521 5.921 6.381 6.871 7.401 8.121 8.911
1649.297 9.771 10.551 11.521 12.591 13.501 14.241 14.751 15.091 15.381 15.671
1668.587 16.211 17.001 18.261 20.161 23.151 27.281 33.551 42.061 54.921 72.771
1687.877 93.461 116.011 133.781 142.231 140.231 129.611 109.461 81.521 58.191 39.861
1707.167 28.301 21.261 16.911 14.101 12.381 11.171 10.451 10.061 9.851 9.791
1726.457 9.901 10.011 10.111 10.061 9.901 9.451 8.751 7.891 7.011 6.201
1745.747 5.431 4.661 4.071 3.571 3.181 2.921 2.761 2.621 2.521 2.451
1765.037 2.411 2.421 2.401 2.381 2.391 2.441 2.541 2.651 2.721 2.741
1784.327 2.781 2.801 2.811 2.771 2.631 2.531 2.461 2.331 2.221 2.191
1803.617 2.201 2.211 2.251 2.261 2.191 2.121 2.031 1.911 1.841 1.801
1822.907 1.721 1.681 1.661 1.631 1.661 1.671 1.681 1.721 1.751 1.701
1842.197 1.661 1.661 1.641 1.671 1.731 1.791 1.791 1.781 1.841 1.961
1861.487 2.011 2.001 2.041 2.051 2.061 2.031 2.031 2.121 2.231 2.331
1880.777 2.331 2.251 2.131 1.971 1.741 1.4829 1.3273 1.2409 1.2084 1.1862
1900.067 1.1579 1.1515 1.1464 1.1434 1.2044 1.2525 1.2887 1.3035 1.3389 1.3913
1919.357 1.4021 1.4194 1.4841 1.621 1.721 1.811 1.881 1.961 2.051 2.061
1938.647 2.081 2.121 2.081 2.111 2.211 2.311 2.421 2.471 2.451 2.341
1957.937 2.231 2.061 1.801 1.548 1.3051 1.1775 1.1066 1.0334 0.9842 0.9735
1977.227 0.9928 0.9839 0.9608 0.9389 0.8968 0.9034 0.8946 0.8282 0.8301 0.8613
1996.517 0.8568 0.8674 0.8215 0.7877 0.8466 0.7994 0.7481 0.7348 0.7375 0.7213
2015.807 0.6879 0.7352 0.7365 0.7642 0.7849 0.7255 0.728 0.7737 0.7936 0.7862
2035.097 0.7789 0.791 0.8039 0.7923 0.8234 0.8248 0.8205 0.835 0.837 0.8523
2054.387 0.8362 0.8203 0.8481 0.8759 0.8392 0.8164 0.8053 0.7823 0.78 0.7398
2073.677 0.7162 0.7397 0.6968 0.7142 0.7666 0.719 0.6663 0.6639 0.6765 0.6662
2092.967 0.64118 0.6842 0.7024 0.6551 0.67 0.6958 0.6791 0.6538 0.64362 0.62129
2112.257 0.6065 0.64705 0.686 0.6706 0.63089 0.6472 0.6886 0.6534 0.62365 0.63836
2131.547 0.61901 0.64106 0.6696 0.62739 0.59318 0.5949 0.63593 0.6996 0.7213 0.6783
2150.837 0.6903 0.7385 0.7425 0.7655 0.7678 0.7705 0.8176 0.8088 0.7877 0.8078
2170.127 0.7908 0.8082 0.8599 0.8295 0.8041 0.8448 0.8456 0.8385 0.8422 0.7883
2189.417 0.8015 0.8244 0.7762 0.7663 0.7848 0.7752 0.7481 0.7481 0.7193 0.7255
2208.707 0.7198 0.6655 0.6525 0.6567 0.716 0.719 0.7076 0.7039 0.681 0.675
2227.997 0.64458 0.63443 0.6882 0.6951 0.7412 0.8123 0.7724 0.7905 0.8212 0.8262
2247.287 0.8455 0.8821 0.8852 0.7826 0.7634 0.8069 0.8416 0.8534 0.8048 0.7828
2266.577 0.7843 0.7858 0.8042 0.8255 0.859 0.9021 0.9292 0.9064 0.8629 0.9079
2285.868 0.9579 0.9558 0.9629 0.9798 0.9937 1.019 1.0512 1.0464 1.0625 1.1181
2305.158 1.2038 1.255 1.2683 1.3259 1.3407 1.302 1.305 1.2689 1.1612 1.0953
2324.448 1.0906 1.0326 0.944 0.9261 0.8552 0.7883 0.8551 0.9034 0.9156 0.8825
2343.738 0.8726 0.94 0.9389 0.9238 0.8826 0.833 0.8087 0.7525 0.74 0.7731
2363.028 0.8036 0.8179 0.7984 0.8132 0.8034 0.8362 0.8884 0.89 0.9098 0.9068
2382.318 0.9083 0.8967 0.8516 0.8594 0.8567 0.8512 0.917 0.9924 0.94 0.8599
2401.608 0.8827 0.8934 0.9122 0.9199 0.9234 0.954 0.9494 0.9123 0.8761 0.8714
2420.898 0.8169 0.8026 0.891 0.902 0.846 0.8646 0.8762 0.824 0.8448 0.8334
2440.188 0.8151 0.8719 0.9273 0.9215 0.8812 0.8854 0.8556 0.7617 0.794 0.8433
2459.478 0.7884 0.748 0.6872 0.666 0.7066 0.7165 0.7567 0.7573 0.6732 0.6547
2478.768 0.64195 0.62685 0.6765 0.6808 0.7061 0.7135 0.7126 0.7595 0.7667 0.6669
2498.058 0.63524 0.6582 0.6667 0.6898 0.6524 0.7112 0.7888 0.8106 0.7833 0.799
2517.348 0.8397 0.8304 0.8274 0.8494 0.8464 0.8579 0.8959 0.9154 0.9416 0.9386
2536.638 0.9042 0.9256 0.9349 0.8856 0.8592 0.9044 0.9133 0.8645 0.8109 0.7753
2555.928 0.7792 0.7699 0.8317 0.8504 0.8444 0.883 0.8689 0.8413 0.7812 0.7865
2575.218 0.8382 0.7908 0.7468 0.766 0.8301 0.8505 0.793 0.7787 0.7963 0.82
2594.508 0.8767 0.9014 0.8809 0.8471 0.8334 0.8405 0.8807 0.8456 0.7655 0.7261
2613.798 0.7864 0.7686 0.7445 0.8572 0.8254 0.7745 0.7895 0.8091 0.8268 0.83
2633.088 0.7809 0.7546 0.77 0.7092 0.6858 0.6805 0.6866 0.7236 0.6987 0.6658
2652.378 0.58672 0.62494 0.6793 0.65065 0.6681 0.705 0.6803 0.6671 0.6801 0.58101
2671.668 0.56951 0.65015 0.6671 0.6526 0.6825 0.7427 0.7359 0.7007 0.7489 0.7846
2690.958 0.6511 0.61026 0.6954 0.7457 0.7722 0.7582 0.734 0.6979 0.6687 0.60935
2710.248 0.6752 0.7933 0.8325 0.8111 0.7803 0.8048 0.797 0.8168 0.765 0.7507
2729.538 0.8418 0.8811 0.9074 0.901 0.9278 1.054 1.0678 0.9912 1.0521 1.1335
2748.828 1.1706 1.158 1.0815 1.0616 1.0464 0.9574 0.9757 0.9093 0.8188 0.8639
2768.118 0.8927 0.8625 0.7977 0.8217 0.8296 0.8057 0.824 0.839 0.8172 0.7696
2787.408 0.8122 0.7923 0.7291 0.781 0.8417 0.8515 0.8732 0.9377 0.9878 0.9355
2806.698 0.9144 0.8906 0.9164 0.9946 1.0409 1.1276 1.1539 1.2357 1.3154 1.3782
2825.988 1.3665 1.3435 1.4678 1.571 1.671 1.681 1.801 1.921 1.981 2.171
2845.278 2.311 2.391 2.511 2.721 2.871 2.961 3.081 3.201 3.361 3.501
2864.568 3.591 3.571 3.581 3.671 3.711 3.651 3.611 3.641 3.591 3.481
2883.858 3.481 3.561 3.481 3.411 3.441 3.401 3.401 3.461 3.461 3.451
2903.148 3.471 3.611 3.751 3.901 4.221 4.471 4.851 5.391 6.041 6.761
2922.438 7.521 8.621 9.861 11.071 12.231 13.091 13.521 13.491 13.181 12.451
2941.728 11.351 10.161 8.921 7.881 7.001 6.251 5.691 5.341 5.281 5.221
2961.018 5.171 5.221 5.341 5.501 5.631 5.761 5.891 5.981 6.081 6.041
2980.308 5.921 5.831 5.761 5.561 5.391 5.321 5.341 5.361 5.411 5.691
2999.598 6.041 6.421 6.861 7.321 7.801 8.221 8.561 8.921 9.121 9.161
3018.888 9.261 9.471 9.671 9.951 10.531 11.241 11.801 12.171 12.181 11.921
3038.178 11.511 10.711 9.861 9.141 8.521 8.291 8.351 8.661 9.171 9.861
3057.468 11.021 12.641 14.741 17.101 19.431 21.451 22.621 22.791 22.021 20.531
3076.758 18.421 16.091 14.191 13.131 12.461 11.931 11.571 11.071 10.561 9.951
3096.048 9.301 8.791 8.241 7.591 6.981 6.291 5.661 5.101 4.381 3.821
3115.338 3.411 3.041 2.741 2.561 2.231 1.861 1.841 1.781 1.621 1.4331
3134.628 1.3652 1.4254 1.327 1.2716 1.2538 1.1752 1.1634 1.1349 1.0553 1.0137
3153.918 1.016 0.9145 1.0173 1.0607 0.8741 0.7284 0.6919 0.7122 0.7192 0.6839
3173.208 0.6609 0.6919 0.62237 0.58215 0.62066 0.60614 0.4912 0.552467 0.7068 0.6648
3192.498 0.5776 0.4741 0.4557 0.4604 0.4727 0.5255 0.45 0.405 0.402 0.333
3211.788 0.42 0.483 0.357 0.353 0.394 0.42 0.332 0.357 0.341 0.348
3231.078 0.54129 0.5318 0.471 0.4839 0.438 0.444 0.5155 0.405 0.405 0.413
3250.368 0.367 0.364 0.398 0.438 0.461 0.54978 0.57277 0.493 0.351 0.308
3269.658 0.483 0.5002 0.336 0.343 0.377 0.385 0.341 0.321 0.4566 0.5265
3288.948 0.4568 0.4561 0.5066 0.5079 0.4729 0.438 0.448 0.463 0.438 0.386
3308.238 0.407 0.389 0.436 0.54474 0.54945 0.5118 0.5105 0.447 0.32 0.4573
3327.528 0.5365 0.4939 0.57484 0.7109 0.751 0.7163 0.8277 0.9167 0.8528 0.7692
3346.818 0.8795 0.9976 0.9959 1.131 1.2221 1.2478 1.4083 1.591 1.661 1.741
3366.108 1.881 1.841 1.741 1.761 1.811 1.771 1.5119 1.2861 1.2386 1.0794
3385.398 1.0034 0.9675 0.7984 0.64845 0.64356 0.61906 0.57016 0.4883 0.4855 0.54735
3404.688 0.433 0.436 0.5363 0.4933 0.407 0.355 0.367 0.423 0.366 0.231
3423.978 0.31 0.4941 0.404 0.394 0.377 0.407 0.5001 0.405 0.395 0.365
3443.269 0.279 0.371 0.405 0.292 0.412 0.415 0.307 0.307 0.194 0.17
3462.559 0.266 0.309 0.392 0.385 0.392 0.4882 0.5179 0.4927 0.444 0.435
3481.849 0.405 0.35 0.295 0.273 0.32 0.4726 0.5378 0.413 0.366 0.442
3501.139 0.417 0.386 0.35 0.267 0.337 0.401 0.336 0.211 0.262 0.445
3520.429 0.335 0.376 0.57694 0.508 0.365 0.255 0.378 0.4913 0.443 0.335
3539.719 0.263 0.402 0.417 0.401 0.47 0.372 0.256 0.308 0.418 0.447
3559.009 0.31 0.31 0.368 0.287 0.241 0.202 0.253 0.241 0.197 0.227
3578.299 0.313 0.357 0.26 0.193 0.333 0.388 0.308 0.292 0.32 0.349
3597.589 0.409 0.428 0.447 0.4929 0.431 0.393 0.301 0.289 0.345 0.396
3616.879 0.411 0.377 0.4712 0.438 0.396 0.391 0.32 0.426 0.554135 0.48
3636.169 0.334 0.394 0.5307 0.44 0.387 0.398 0.392 0.38 0.398 0.425
3655.459 0.42 0.5233 0.6771 0.7195 0.6779 0.61151 0.4937 0.405 0.251 0.251
3674.749 0.354 0.451 0.4871 0.429 0.411 0.396 0.332 0.368 0.5109 0.5333
3694.039 0.5185 0.58312 0.6842 0.59577 0.4703 0.449 0.406 0.402 0.4561 0.426
3713.329 0.321 0.364 0.5277 0.446 0.381 0.257 0 0.214 0.533 0.426
3732.619 0.413 0.6358 0.5168 0.4854 0.5018 0.401 0.289 0.311 0.335 0.192
3751.909 0.246 0.301 0.288 0.392 0.43 0.5327 0.60318 0.4986 0.501 0.553807
3771.199 0.5211 0.432 0.436 0.394 0.4641 0.64569 0.7342 0.60837 0.4878 0.4842
3790.489 0.4581 0.4993 0.4991 0.5098 0.5089 0.372 0.254 0.322 0.404 0.369
3809.779 0.347 0.407 0.407 0.423 0.368 0.262 0.2 0.152 0.22 0.263
3829.069 0.32 0.432 0.342 0.197 0.224 0.38 0.4748 0.418 0.426 0.367
3848.359 0.341 0.4782 0.4643 0.359 0.311 0.272 0.325 0.38 0.43 0.425
3867.649 0.397 0.43 0.54269 0.56797 0.444 0.4666 0.4595 0.431 0.5645 0.57887
3886.939 0.372 0.301 0.323 0.435 0.58709 0.462 0.341 0.4519 0.4763 0.436
3906.229 0.4675 0.59148 0.59222 0.5152 0.61152 0.57406 0.451 0.48 0.4939 0.56804
3925.519 0.5346 0.412 0.4743 0.4528 0.444 0.419 0.4958 0.647 0.60501 0.5864
3944.809 0.4922 0.347 0.408 0.59877 0.7505 0.7482 0.61917 0.54709 0.60543 0.59262
3964.099 0.57034 0.47 0.479 0.554657 0.447 0.449 0.4861 0.5248 0.63848 0.61576
3983.389 0.5383 0.559324 0.4981 0.438 0.6544 0.7423 0.57157 0.38 0.366 0.57124
##END=
