##TITLE=Tris(2-aminoethyl)amine
##JCAMP-DX=4.24
##DATA TYPE=INFRARED SPECTRUM
##ORIGIN=EPA-IR VAPOR PHASE LIBRARY
##OWNER=SRD/NIST
Collection (C) 2018 copyright by the U.S. Secretary of Commerce
on behalf of the United States of America. All rights reserved.
##CAS REGISTRY NO=4097-89-6
##MOLFORM=C 6 H 18 N 4
##$NIST SOURCE=MSDC-IR
##STATE=gas
##XUNITS=1/CM
##YUNITS=ABSORBANCE
##XFACTOR=1.
##YFACTOR=0.001
##DELTAX=1.929
##FIRSTX=549.8
##LASTX=4000.8
##FIRSTY=3.08
##MAXX=4000.75
##MINX=549.766
##MAXY=0.01477
##MINY=0.000793
##NPOINTS=1790
##XYDATA=(X++(Y..Y))
549.766 3.08 3.03 3.01 2.92 3.21 3.26 2.85 2.71 3.02 3.29
569.056 3.21 3.16 3.21 3.09 2.89 3.02 3.23 3.24 3.1 2.99
588.346 3.01 2.91 2.93 3.17 2.99 2.87 2.92 2.97 3.07 2.82
607.636 2.93 3.01 2.75 2.82 2.77 2.82 3.04 3.06 2.92 2.93
626.926 2.97 2.85 2.81 2.91 3.18 3.12 2.93 3.07 3.25 3.27
646.216 3.2 3.26 3.28 3.26 3.31 3.24 3.24 3.33 3.2 3.2
665.506 3.3 3.32 3.47 3.44 3.51 3.52 3.37 3.48 3.74 3.94
684.796 3.93 3.77 3.81 3.97 4.09 4.22 4.43 4.61 4.66 4.64
704.086 4.7 4.74 4.93 5.14 5.22 5.52 5.77 5.88 6.21 6.47
723.376 6.63 6.78 6.9 7.27 7.6 7.69 7.86 8.18 8.49 8.75
742.666 9.1 9.62 10.08 10.32 10.63 11.08 11.31 11.48 11.71 11.8
761.956 11.73 11.77 11.83 11.6 11.46 11.26 10.92 10.77 10.69 10.47
781.246 10.17 9.99 9.79 9.75 9.61 9.32 9.06 8.99 9.09 8.89
800.536 8.7 8.59 8.48 8.4 8.1 7.97 7.88 7.42 7.02 6.79
819.826 6.69 6.56 6.4 6.31 6.11 5.73 5.56 5.54 5.35 5.04
839.116 4.85 4.8 4.64 4.63 4.73 4.73 4.62 4.66 4.63 4.48
858.406 4.49 4.46 4.43 4.48 4.58 4.61 4.47 4.39 4.27 4.16
877.696 4.12 3.99 3.94 3.9 3.83 3.93 3.82 3.68 3.66 3.45
896.986 3.32 3.32 3.19 3.14 3.18 3.23 3.2 3.19 3.34 3.27
916.276 3.22 3.23 3.29 3.35 3.34 3.55 3.85 4.05 3.88 3.45
935.566 3.23 3.11 2.97 2.9 2.91 3.05 3.05 3.04 3.14 3.2
954.856 3.23 3.29 3.45 3.7 4.05 4.35 4.29 3.58 3.11 3.17
974.146 3.22 3.23 3.28 3.34 3.4 3.48 3.54 3.62 3.69 3.84
993.436 3.95 3.96 4.01 4.12 4.23 4.32 4.42 4.6 4.72 4.9
1012.726 5.01 5.02 5.21 5.32 5.45 5.52 5.62 5.85 6 6.16
1032.016 6.51 6.71 6.67 6.76 6.91 7.01 7.13 7.42 7.42 7.21
1051.306 7.3 7.42 7.22 7.01 6.91 6.7 6.66 6.69 6.42 6.06
1070.596 5.93 5.95 5.98 5.76 5.5 5.44 5.53 5.81 5.65 5.35
1089.886 5.3 5.21 5.27 5.3 5.05 4.85 4.98 5.13 4.83 4.58
1109.176 4.48 4.27 4.15 4.12 4.08 3.82 3.94 3.94 3.56 3.44
1128.467 3.24 3.09 3.09 3.1 3.03 3 3.07 2.92 2.73 2.74
1147.757 2.68 2.58 2.58 2.52 2.55 2.76 2.73 2.37 2.28 2.32
1167.047 2.26 2.36 2.5 2.59 2.66 2.73 2.53 2.36 2.44 2.51
1186.337 2.54 2.65 2.76 2.68 2.79 2.87 2.72 2.7 2.65 2.54
1205.627 2.58 2.8 3.03 3.19 3.13 2.93 2.83 2.86 2.89 2.92
1224.917 2.88 2.87 3.02 3.02 2.89 2.81 2.82 2.88 2.86 2.89
1244.207 2.89 2.89 2.96 3 2.95 2.92 3.02 3.13 3.21 3.23
1263.497 3.29 3.36 3.47 3.63 3.56 3.46 3.53 3.57 3.55 3.57
1282.787 3.54 3.47 3.51 3.56 3.45 3.41 3.47 3.49 3.5 3.43
1302.077 3.44 3.48 3.45 3.47 3.54 3.51 3.43 3.4 3.44 3.52
1321.367 3.6 3.64 3.63 3.69 3.7 3.71 3.8 3.97 4.14 4.29
1340.657 4.36 4.36 4.4 4.52 4.6 4.57 4.59 4.63 4.61 4.56
1359.947 4.56 4.51 4.37 4.11 3.91 3.82 3.68 3.54 3.37 3.29
1379.237 3.16 2.96 2.89 2.86 2.85 2.72 2.53 2.53 2.6 2.55
1398.527 2.49 2.42 2.41 2.41 2.34 2.27 2.18 2.2 2.28 2.39
1417.817 2.47 2.41 2.32 2.38 2.42 2.34 2.32 2.38 2.5 2.69
1437.107 2.85 2.86 2.93 3.01 3.13 3.29 3.39 3.52 3.68 3.83
1456.397 4.06 4.1 4.04 4 3.95 3.9 3.8 3.75 3.66 3.53
1475.687 3.4 3.26 3.1 2.98 2.85 2.72 2.67 2.7 2.55 2.39
1494.977 2.41 2.46 2.47 2.36 2.29 2.33 2.51 2.55 2.41 2.32
1514.267 2.34 2.4 2.32 2.31 2.25 2.1 2.2 2.26 2.18 2.22
1533.557 2.23 2.17 2.18 2.16 2.17 2.28 2.31 2.25 2.32 2.34
1552.847 2.31 2.4 2.42 2.41 2.29 2.29 2.38 2.34 2.32 2.38
1572.137 2.49 2.62 2.6 2.56 2.65 2.72 2.81 2.95 3.05 3.12
1591.427 3.23 3.37 3.5 3.59 3.74 3.95 4.12 4.27 4.41 4.57
1610.717 4.7 4.85 4.99 5.06 5.19 5.28 5.28 5.23 5.15 4.98
1630.007 4.8 4.63 4.4 4.15 3.89 3.7 3.58 3.4 3.23 3.08
1649.297 2.91 2.83 2.73 2.64 2.49 2.3 2.26 2.25 2.12 2.07
1668.587 2.09 2.02 2 2.06 2 1.97 1.99 1.87 1.78 1.79
1687.877 1.77 1.66 1.63 1.64 1.59 1.59 1.57 1.54 1.58 1.55
1707.167 1.46 1.46 1.46 1.53 1.61 1.57 1.55 1.45 1.38 1.38
1726.457 1.37 1.41 1.43 1.44 1.41 1.26 1.24 1.26 1.27 1.27
1745.747 1.24 1.28 1.32 1.36 1.2 1.14 1.14 1.12 1.21 1.23
1765.037 1.16 1.23 1.22 1.06 1.09 1.11 1.05 1.06 1.03 1.04
1784.327 1.15 1.12 1.06 1.09 1.05 1.05 1.1 1.08 1.19 1.29
1803.617 1.2 1.16 1.15 1.08 1.08 1.13 1.15 1.2 1.16 1.08
1822.907 1.09 1.17 1.22 1.2 1.16 1.18 1.19 1.19 1.24 1.21
1842.197 1.2 1.22 1.18 1.19 1.18 1.09 1.05 1.14 1.19 1.2
1861.487 1.12 1.04 1.05 1.09 1.12 1.13 1.14 1.08 1.08 1.16
1880.777 1.09 1.08 1.13 1.14 1.16 1.11 1.05 1.06 1.09 1.09
1900.067 1.06 1.04 1.05 1.09 1.05 1.02 1.03 0.9846 0.9929 1.05
1919.357 1.08 1.13 1.15 1.03 0.9685 1 1.02 1.04 1.02 1.01
1938.647 1.01 1.03 1.06 1.06 0.991 0.9746 1.01 1.05 1.08 1.08
1957.937 1.04 0.9917 0.9701 0.9533 1.02 1.04 0.99 1.04 1.12 1.11
1977.227 1.01 1.01 1 1 1.01 0.9834 0.9954 0.9877 0.9597 0.9568
1996.517 0.9671 0.9899 0.9986 0.9848 0.9633 0.9341 0.9339 0.9439 0.9893 0.9844
2015.807 0.9473 0.952 0.9953 1 0.9697 0.9079 0.9037 0.997 0.9697 0.9246
2035.097 0.9569 0.9563 0.9855 1.04 1.02 1.01 1.04 0.9866 0.9429 0.9592
2054.387 0.9747 0.9596 0.9675 0.9432 0.93 0.9634 0.9161 0.9209 0.9646 0.9694
2073.677 0.9644 0.9284 0.9197 0.9536 0.9682 0.9739 0.9543 0.9227 0.91 0.9008
2092.967 0.9247 0.9497 0.9375 0.9353 0.8994 0.9003 0.9684 0.9767 0.8916 0.8395
2112.257 0.9307 0.9361 0.9 0.9335 0.9267 0.9477 0.9778 0.9345 0.8876 0.8985
2131.547 0.8856 0.8671 0.8762 0.8683 0.8851 0.9079 0.922 0.9718 0.9535 0.918
2150.837 0.9367 0.9273 0.9132 0.9251 0.8928 0.9066 0.9508 0.9027 0.8918 0.9078
2170.127 0.9367 0.969 0.9423 0.9275 0.97 0.9562 0.9695 0.9531 0.915 0.899
2189.417 0.8507 0.8674 0.8721 0.8786 0.9557 0.9949 0.9644 0.9811 0.9841 0.9622
2208.707 0.9604 0.9316 0.9018 0.9138 0.9485 0.9228 0.8699 0.892 0.9575 0.9863
2227.997 0.9402 0.9363 0.9884 0.9653 0.9389 0.9667 1.01 0.9288 0.8546 0.9339
2247.287 0.9898 1 0.9703 0.9613 0.9662 0.9423 0.8944 0.9148 0.9864 0.9904
2266.577 1.02 1.05 1.01 0.978 0.9355 0.9476 1 0.9994 0.9948 0.9902
2285.868 0.988 0.9495 0.8844 0.9011 1.01 1.02 0.9718 0.9839 0.9588 1
2305.158 1.05 0.9786 0.9186 0.9684 1.02 1.01 1.01 1.04 1.06 1.06
2324.448 1.04 0.9999 1.01 1.08 1.07 0.9615 0.9077 0.9228 0.927 1.01
2343.738 1.05 1.03 1.03 1 0.924 0.9467 1 0.9969 0.9572 0.9746
2363.028 1.02 0.9979 1.02 1.01 1 1.05 1.07 1.06 1.04 1.01
2382.318 0.9822 0.9153 0.8554 0.9004 0.9372 0.9323 0.9087 0.8549 0.8202 0.796
2401.608 0.859 0.9063 0.8433 0.8069 0.8695 0.9309 0.8776 0.8883 0.958 0.9534
2420.898 0.9263 0.9091 0.9442 1.04 1.08 1.01 0.9511 0.9716 0.9237 0.915
2440.188 0.9215 0.8211 0.793 0.8617 0.9404 0.9211 0.8889 0.8657 0.8856 0.8958
2459.478 0.9241 0.9644 0.9505 0.9535 0.9725 0.9276 0.8809 0.9845 1.01 0.9601
2478.768 0.9772 0.9097 0.9012 0.9776 0.9593 0.9957 1.04 0.9421 0.9201 1.06
2498.058 1.05 0.9017 0.8468 0.9106 0.9541 0.9848 0.9723 0.9218 0.9938 1.1
2517.348 1.09 1.02 1.02 0.9826 0.9371 0.9844 0.9869 0.9497 1.01 1.05
2536.638 1.08 1.1 1.06 1.01 1.04 1.12 1.12 1.09 1.06 1.05
2555.928 1.02 1 1.06 1.04 1.03 1.03 0.9783 1.01 1.09 1.12
2575.218 1.09 1.08 1.07 1.06 1.11 1.13 1.16 1.21 1.25 1.27
2594.508 1.15 1.02 1.15 1.29 1.27 1.22 1.21 1.24 1.28 1.31
2613.798 1.34 1.36 1.37 1.34 1.26 1.39 1.43 1.4 1.39 1.38
2633.088 1.47 1.45 1.45 1.5 1.5 1.5 1.53 1.55 1.55 1.59
2652.378 1.62 1.65 1.68 1.69 1.78 1.91 1.83 1.72 1.77 1.75
2671.668 1.76 1.85 1.9 1.94 1.99 2.02 2.03 2.1 2.08 2.19
2690.958 2.25 2.15 2.15 2.18 2.27 2.34 2.29 2.36 2.49 2.57
2710.248 2.59 2.59 2.67 2.67 2.68 2.7 2.7 2.8 2.88 2.82
2729.538 2.83 2.92 3.06 3.1 3.03 3.07 3.1 3.12 3.18 3.17
2748.828 3.29 3.41 3.34 3.36 3.48 3.54 3.59 3.66 3.71 3.82
2768.118 3.93 4.02 4.16 4.34 4.49 4.72 5.05 5.32 5.6 5.87
2787.408 6.23 6.7 7.15 7.57 8.09 8.62 9.05 9.49 9.83 10.22
2806.698 10.62 10.85 10.94 11 10.96 10.86 10.85 10.72 10.4 10.17
2825.988 10.02 9.8 9.5 9.19 8.99 8.93 8.99 8.97 8.93 8.97
2845.278 9.07 9.2 9.36 9.52 9.69 9.9 10.04 10.17 10.31 10.42
2864.568 10.49 10.59 10.6 10.58 10.52 10.46 10.36 10.25 10.28 10.27
2883.858 10.08 9.98 9.93 9.86 9.94 10.03 9.95 9.95 10.08 10.22
2903.148 10.38 10.53 10.6 10.81 11.04 11.18 11.36 11.47 11.69 11.96
2922.438 12.11 12.27 12.52 12.71 12.92 13.27 13.61 13.87 14.19 14.46
2941.728 14.6 14.76 14.77 14.55 14.26 13.96 13.45 12.85 12.28 11.51
2961.018 10.57 9.73 9.01 8.09 7.22 6.6 5.91 5.36 4.92 4.39
2980.308 4.06 3.78 3.43 3.34 3.21 2.98 2.89 2.73 2.52 2.4
2999.598 2.4 2.44 2.36 2.28 2.25 2.31 2.34 2.18 2.08 1.98
3018.888 1.92 1.88 1.72 1.69 1.84 1.79 1.71 1.72 1.7 1.66
3038.178 1.66 1.76 1.71 1.67 1.62 1.56 1.58 1.52 1.57 1.58
3057.468 1.53 1.51 1.51 1.43 1.49 1.71 1.77 1.69 1.49 1.33
3076.758 1.44 1.57 1.44 1.38 1.44 1.46 1.45 1.47 1.6 1.46
3096.048 1.42 1.56 1.53 1.52 1.45 1.47 1.47 1.42 1.49 1.5
3115.338 1.45 1.41 1.41 1.49 1.52 1.43 1.45 1.46 1.49 1.47
3134.628 1.45 1.45 1.37 1.49 1.51 1.46 1.5 1.53 1.51 1.43
3153.918 1.44 1.59 1.59 1.5 1.45 1.41 1.43 1.38 1.38 1.49
3173.208 1.59 1.55 1.61 1.65 1.67 1.76 1.65 1.53 1.62 1.67
3192.498 1.51 1.44 1.41 1.47 1.63 1.6 1.57 1.56 1.55 1.52
3211.788 1.55 1.64 1.57 1.57 1.68 1.58 1.58 1.84 1.84 1.7
3231.078 1.73 1.79 1.65 1.47 1.4 1.48 1.68 1.7 1.64 1.5
3250.368 1.52 1.62 1.6 1.74 1.78 1.69 1.73 1.77 1.84 1.78
3269.658 1.58 1.7 1.76 1.74 1.83 1.81 1.67 1.82 1.84 1.73
3288.948 1.89 1.93 1.9 1.87 1.78 1.7 1.72 1.72 1.75 1.7
3308.238 1.72 1.94 1.92 1.83 1.8 1.8 1.9 1.95 1.99 2.02
3327.528 2.12 2.23 2.28 2.4 2.47 2.27 2.19 2.24 2.32 2.38
3346.818 2.32 2.38 2.3 2.18 2.13 2.13 2.03 1.9 1.94 2.04
3366.108 1.94 1.72 1.76 1.93 1.84 1.74 1.86 1.77 1.68 1.81
3385.398 1.93 1.89 1.87 1.88 1.82 1.94 2.03 2.01 1.99 1.98
3404.688 1.99 2.07 2.08 2.11 2.17 1.99 2 2.16 2.14 2.03
3423.978 1.95 1.85 1.82 1.89 1.88 1.94 2.07 1.99 1.96 2.06
3443.269 2.01 1.79 1.73 1.86 1.94 1.88 1.7 1.69 1.73 1.71
3462.559 1.75 1.83 1.71 1.57 1.67 1.78 1.83 1.68 1.66 1.84
3481.849 1.78 1.68 1.63 1.78 1.92 1.77 1.72 1.76 1.86 1.84
3501.139 1.73 1.77 1.74 1.81 1.99 1.9 1.77 1.71 1.75 1.88
3520.429 1.89 1.85 1.85 1.81 1.89 1.88 1.76 1.73 1.74 1.7
3539.719 1.69 1.74 1.73 1.84 1.74 1.58 1.69 1.83 1.89 1.83
3559.009 1.75 1.76 1.76 1.84 1.95 1.82 1.65 1.63 1.68 1.61
3578.299 1.52 1.65 1.74 1.8 1.88 1.78 1.57 1.56 1.67 1.76
3597.589 1.71 1.75 1.77 1.64 1.67 1.71 1.68 1.61 1.71 1.6
3616.879 1.48 1.57 1.62 1.65 1.62 1.63 1.72 1.62 1.61 1.71
3636.169 1.65 1.49 1.39 1.6 1.71 1.75 1.9 1.92 1.85 1.83
3655.459 1.83 1.61 1.52 1.64 1.67 1.63 1.56 1.69 1.74 1.72
3674.749 1.75 1.7 1.62 1.44 1.54 1.79 1.79 1.73 1.77 1.74
3694.039 1.63 1.65 1.66 1.65 1.74 1.74 1.72 1.77 1.86 1.87
3713.329 1.63 1.44 1.51 1.6 1.62 1.62 1.68 1.68 1.6 1.71
3732.619 1.79 1.8 1.87 1.62 1.5 1.73 1.89 1.82 1.75 1.71
3751.909 1.62 1.66 1.81 2 1.94 1.75 1.65 1.66 1.72 1.76
3771.199 1.87 1.73 1.46 1.4 1.42 1.45 1.47 1.56 1.64 1.71
3790.489 1.73 1.51 1.4 1.45 1.63 1.67 1.66 1.64 1.53 1.48
3809.779 1.53 1.64 1.66 1.74 1.69 1.56 1.56 1.57 1.6 1.6
3829.069 1.62 1.69 1.71 1.56 1.44 1.53 1.53 1.46 1.51 1.61
3848.359 1.63 1.74 1.83 1.67 1.56 1.61 1.77 1.86 1.9 1.79
3867.649 1.71 1.77 1.78 1.75 1.69 1.88 1.98 1.76 1.53 1.7
3886.939 1.96 1.74 1.55 1.69 1.74 1.75 1.83 1.7 1.63 1.6
3906.229 1.53 1.52 1.54 1.72 1.68 1.63 1.72 1.94 1.93 1.75
3925.519 1.78 1.79 1.74 1.72 1.79 1.76 1.66 1.62 1.62 1.61
3944.809 1.86 1.99 1.75 1.67 1.67 1.81 1.81 1.65 1.74 1.87
3964.099 1.77 1.6 1.71 1.77 1.82 1.84 1.75 1.69 1.66 1.66
3983.389 1.68 1.63 1.6 1.65 1.78 1.72 1.37 1.36 1.58 1.77
##END=
