##TITLE=1,10-Dibromodecane
##JCAMP-DX=4.24
##DATA TYPE=INFRARED SPECTRUM
##ORIGIN=NIST Mass Spectrometry Data Center
##OWNER=NIST Standard Reference Data Program
Collection (C) 2018 copyright by the U.S. Secretary of Commerce
on behalf of the United States of America. All rights reserved.
##CAS REGISTRY NO=4101-68-2
##MOLFORM=C 10 H 20 Br 2
##$NIST SOURCE=MSDC-IR
##SPECTROMETER/DATA SYSTEM=HP-GC/MS/IRD
##STATE=gas
##XUNITS=1/CM
##YUNITS=ABSORBANCE
##XFACTOR=1.0
##YFACTOR=0.000003800
##DELTAX=4.0
##FIRSTX=550.0
##LASTX=3846.0
##FIRSTY=0.001151
##MAXX=3846
##MINX=550
##MAXY=0.038
##MINY=0
##NPOINTS=825
##XYDATA=(X++(Y..Y))
550.0 303 260 274 396 500 534 480 351 227 124
590.0 57 51 20 0 13 10 19 49 89 125
630.0 181 273 392 521 632 698 675 522 328 199
670.0 127 97 81 58 55 75 84 100 137 170
710.0 193 235 275 299 306 306 301 290 289 273
750.0 251 228 198 183 176 149 131 136 124 117
790.0 125 128 139 142 135 138 133 119 110 95
830.0 85 100 107 88 86 97 97 99 97 98
870.0 104 102 108 112 110 110 100 94 93 89
910.0 94 97 87 82 91 87 79 89 91 82
950.0 80 84 85 74 70 86 93 82 80 93
990.0 91 82 84 88 90 90 93 101 103 101
1030.0 99 91 90 87 91 94 85 75 69 60
1070.0 51 48 50 45 50 49 37 36 27 17
1110.0 27 26 17 24 26 32 41 46 47 49
1150.0 59 69 81 87 92 97 107 124 156 190
1190.0 236 296 369 457 556 677 808 931 1030 1095
1230.0 1114 1125 1145 1187 1266 1361 1430 1452 1431 1381
1270.0 1324 1247 1147 1036 928 842 778 726 669 599
1310.0 533 474 417 368 335 324 329 350 391 429
1350.0 467 478 450 402 349 299 247 199 153 120
1390.0 109 105 107 120 136 158 181 214 274 369
1430.0 499 660 853 1022 1070 1055 1067 1080 1035 900
1470.0 709 510 368 272 204 157 126 102 79 54
1510.0 56 62 40 29 42 48 37 16 11 22
1550.0 28 22 2 14 25 27 24 18 25 23
1590.0 24 24 24 29 32 33 22 15 21 24
1630.0 23 12 17 21 15 4 0 21 28 22
1670.0 19 18 21 8 1 19 14 0 2 12
1710.0 24 17 10 26 30 17 4 11 23 24
1750.0 21 17 12 12 16 13 14 22 24 27
1790.0 23 20 24 21 23 23 20 19 21 17
1830.0 11 14 18 11 8 16 21 20 17 13
1870.0 12 15 14 11 11 11 14 19 17 18
1910.0 19 12 9 18 20 11 14 15 12 17
1950.0 14 12 16 19 19 17 21 22 19 17
1990.0 19 21 21 21 20 19 24 25 31 24
2030.0 23 31 29 29 24 23 24 23 24 23
2070.0 23 22 23 24 24 21 11 14 21 13
2110.0 12 14 15 11 10 13 12 10 11 10
2150.0 8 11 15 11 10 9 11 15 14 13
2190.0 8 11 15 12 8 8 5 0 5 6
2230.0 10 14 18 15 8 7 14 21 20 15
2270.0 16 17 14 15 21 18 11 13 14 12
2310.0 12 11 12 11 8 7 9 4 2 6
2350.0 11 13 6 2 7 9 16 21 21 21
2390.0 17 19 21 24 24 18 15 18 24 26
2430.0 30 26 18 17 25 27 23 21 20 23
2470.0 26 27 28 31 34 31 27 33 37 32
2510.0 36 41 42 47 46 44 50 51 46 42
2550.0 41 46 49 42 40 44 39 42 53 57
2590.0 55 52 52 56 63 66 72 81 83 78
2630.0 77 87 95 101 104 101 107 115 114 115
2670.0 125 133 139 144 141 144 150 139 128 125
2710.0 125 122 121 127 123 120 125 119 113 117
2750.0 130 139 139 138 144 150 159 170 187 207
2790.0 229 245 256 280 307 328 359 406 461 531
2830.0 618 728 886 1116 1415 1841 2436 3153 3753 3929
2870.0 3614 3064 2557 2220 2056 2046 2159 2344 2589 2910
2910.0 3341 3943 4799 6002 7499 8943 9878 10000 9223 7789
2950.0 6150 4694 3649 3063 2820 2666 2359 1928 1523 1209
2990.0 995 870 813 817 895 1014 1050 904 671 496
3030.0 397 338 287 248 221 197 177 169 159 146
3070.0 132 128 124 112 113 109 99 94 103 98
3110.0 91 94 86 83 83 81 83 88 84 84
3150.0 92 83 69 66 68 70 63 65 66 61
3190.0 58 60 61 52 52 51 56 62 58 55
3230.0 62 66 57 46 46 57 56 48 40 41
3270.0 47 54 55 43 43 46 37 39 47 39
3310.0 35 44 44 45 45 38 40 33 24 29
3350.0 35 34 38 40 41 40 33 28 28 33
3390.0 29 27 28 25 31 33 35 31 33 33
3430.0 35 46 44 35 24 20 26 20 16 19
3470.0 17 23 28 34 26 14 14 13 21 23
3510.0 12 17 26 30 29 25 23 24 26 23
3550.0 28 35 29 17 19 23 22 21 21 23
3590.0 21 17 16 24 22 13 3 5 29 26
3630.0 12 13 23 27 20 31 41 39 36 26
3670.0 18 4 2 12 7 10 26 32 31 33
3710.0 27 35 38 31 33 19 3 17 17 5
3750.0 0 10 20 26 26 26 39 36 35 39
3790.0 30 18 16 24 29 31 28 16 13 21
3830.0 42 39 12 21 33
##END=
