##TITLE=3,3-Dimethyloctane
##JCAMP-DX=4.24
##DATA TYPE=INFRARED SPECTRUM
##ORIGIN=NIST Mass Spectrometry Data Center
##OWNER=NIST Standard Reference Data Program
Collection (C) 2018 copyright by the U.S. Secretary of Commerce
on behalf of the United States of America. All rights reserved.
##CAS REGISTRY NO=4110-44-5
##MOLFORM=C 10 H 22
##$NIST SOURCE=MSDC-IR
##SPECTROMETER/DATA SYSTEM=HP-GC/MS/IRD
##STATE=gas
##XUNITS=1/CM
##YUNITS=ABSORBANCE
##XFACTOR=1.0
##YFACTOR=0.000002800
##DELTAX=4.0
##FIRSTX=550.0
##LASTX=3846.0
##FIRSTY=0.000000
##MAXX=3846
##MINX=550
##MAXY=0.028
##MINY=0
##NPOINTS=825
##XYDATA=(X++(Y..Y))
550.0 0 0 6 22 22 11 6 3 0 16
590.0 46 41 36 53 67 44 25 26 20 24
630.0 23 54 56 28 27 22 22 42 56 48
670.0 47 54 51 54 60 78 82 69 73 88
710.0 103 106 110 121 139 143 133 118 107 100
750.0 91 98 104 110 115 133 151 155 156 160
790.0 144 116 78 64 72 65 64 45 14 32
830.0 63 70 72 72 75 73 71 77 71 78
870.0 88 85 82 78 88 82 80 83 73 74
910.0 81 98 96 89 87 87 86 81 80 84
950.0 88 93 98 103 94 91 100 97 97 110
990.0 133 146 154 185 205 218 228 213 184 155
1030.0 141 127 113 111 103 101 108 114 105 96
1070.0 91 81 76 74 69 72 76 85 89 86
1110.0 81 68 61 55 43 38 55 70 69 66
1150.0 68 76 86 99 116 141 155 167 183 204
1190.0 205 192 190 198 205 210 200 188 174 157
1230.0 145 136 127 122 118 105 104 104 97 108
1270.0 116 116 130 145 151 160 177 192 194 188
1310.0 191 194 192 190 196 209 233 254 274 303
1350.0 340 401 496 603 717 813 858 897 919 897
1390.0 812 682 527 391 296 239 220 215 225 243
1430.0 263 308 379 473 583 714 877 1068 1235 1340
1470.0 1342 1235 1053 839 635 464 345 266 217 185
1510.0 154 139 128 113 99 94 88 89 92 72
1550.0 67 79 84 76 65 65 62 56 56 65
1590.0 67 54 50 49 49 53 53 49 45 42
1630.0 41 42 41 40 39 31 32 38 42 42
1670.0 37 38 35 34 39 36 36 33 26 28
1710.0 24 19 17 18 22 20 20 20 16 15
1750.0 15 13 11 19 20 14 16 17 13 15
1790.0 22 23 18 14 17 21 17 23 23 21
1830.0 19 13 14 19 22 19 13 15 12 8
1870.0 16 17 15 8 10 12 12 15 13 14
1910.0 18 14 11 13 16 12 11 8 5 10
1950.0 11 13 9 2 7 10 9 14 17 13
1990.0 9 8 11 11 11 9 6 8 14 10
2030.0 10 13 11 15 19 13 7 4 0 1
2070.0 12 20 10 5 6 7 9 4 1 5
2110.0 8 6 8 2 3 6 8 13 14 13
2150.0 10 9 10 11 13 4 4 11 9 11
2190.0 14 14 9 4 5 7 4 8 10 11
2230.0 5 3 8 10 14 16 5 1 10 14
2270.0 10 12 8 9 15 16 16 14 12 8
2310.0 10 17 20 21 24 22 18 25 29 21
2350.0 23 31 31 32 32 29 27 20 17 19
2390.0 26 29 25 23 23 23 25 24 19 19
2430.0 20 23 27 16 16 16 18 23 24 24
2470.0 19 21 27 25 18 18 25 29 30 26
2510.0 24 23 27 31 27 25 27 27 24 31
2550.0 38 39 37 38 39 42 43 50 52 51
2590.0 53 52 57 61 66 64 65 71 74 75
2630.0 82 87 82 88 98 100 100 106 117 119
2670.0 118 119 122 119 110 110 109 111 120 122
2710.0 125 139 152 157 161 167 180 191 188 185
2750.0 191 189 191 198 200 206 223 232 235 256
2790.0 284 310 334 357 386 419 460 503 554 627
2830.0 713 822 987 1209 1499 1872 2291 2704 3070 3361
2870.0 3564 3739 3887 3988 4042 4043 4052 4151 4384 4728
2910.0 5128 5539 5971 6479 7083 7725 8275 8560 8512 8284
2950.0 8133 8291 8846 9623 10000 9498 8189 6340 4509 3140
2990.0 2237 1668 1300 1055 894 781 686 610 544 494
3030.0 454 412 369 341 332 324 315 307 292 286
3070.0 278 263 251 245 241 231 220 211 195 184
3110.0 180 180 171 159 157 151 153 141 132 137
3150.0 129 115 119 123 131 142 142 139 126 120
3190.0 119 117 119 115 116 110 92 80 74 78
3230.0 76 69 65 62 66 58 46 49 51 47
3270.0 35 27 39 38 30 27 24 28 28 33
3310.0 37 33 43 36 20 22 33 35 32 39
3350.0 39 27 29 32 28 32 30 35 46 44
3390.0 40 37 26 23 23 12 13 19 19 24
3430.0 19 5 12 30 28 21 23 24 26 18
3470.0 9 14 15 20 18 16 28 25 18 17
3510.0 14 14 17 13 9 16 17 5 1 7
3550.0 24 32 24 18 18 19 24 20 16 9
3590.0 5 9 14 14 2 9 24 18 7 15
3630.0 22 16 24 17 19 14 15 23 18 27
3670.0 31 29 28 29 32 25 24 27 27 26
3710.0 33 32 26 30 25 26 22 15 29 35
3750.0 24 12 18 28 26 27 37 42 34 32
3790.0 20 15 26 35 34 32 36 42 32 15
3830.0 25 37 32 31 37
##END=
