##TITLE=2-Decyn-1-ol
##JCAMP-DX=4.24
##DATA TYPE=INFRARED SPECTRUM
##ORIGIN=NIST Mass Spectrometry Data Center
##OWNER=NIST Standard Reference Data Program
Collection (C) 2018 copyright by the U.S. Secretary of Commerce
on behalf of the United States of America. All rights reserved.
##CAS REGISTRY NO=4117-14-0
##MOLFORM=C 10 H 18 O
##$NIST SOURCE=MSDC-IR
##SPECTROMETER/DATA SYSTEM=HP-GC/MS/IRD
##STATE=gas
##XUNITS=1/CM
##YUNITS=ABSORBANCE
##XFACTOR=1.0
##YFACTOR=0.000003900
##DELTAX=4.0
##FIRSTX=550.0
##LASTX=3846.0
##FIRSTY=0.000484
##MAXX=3846
##MINX=550
##MAXY=0.039
##MINY=0
##NPOINTS=825
##XYDATA=(X++(Y..Y))
550.0 124 78 54 76 70 55 46 26 34 37
590.0 23 22 24 30 20 34 39 28 22 2
630.0 1 7 12 26 33 30 28 35 35 17
670.0 20 46 48 49 73 91 106 122 149 193
710.0 221 224 216 197 191 187 167 152 131 114
750.0 112 95 88 96 92 102 118 104 101 104
790.0 97 104 88 69 78 77 74 81 75 67
830.0 74 81 87 89 85 88 93 88 82 85
870.0 84 85 96 113 115 119 131 142 148 161
910.0 169 179 200 223 247 260 289 334 378 421
950.0 475 553 640 743 864 1006 1159 1330 1525 1729
990.0 1964 2229 2496 2763 3009 3143 3094 2853 2480 2080
1030.0 1741 1457 1224 1029 863 731 626 537 468 411
1070.0 362 332 312 294 284 281 283 296 323 354
1110.0 381 401 429 486 588 712 826 854 756 597
1150.0 457 359 306 274 242 227 223 231 226 212
1190.0 220 230 237 245 256 277 292 301 304 308
1230.0 319 342 364 379 396 413 435 455 463 469
1270.0 478 485 499 516 531 537 535 536 544 564
1310.0 592 627 680 759 835 883 915 935 955 1005
1350.0 1074 1151 1232 1332 1442 1556 1671 1787 1874 1913
1390.0 1883 1778 1616 1422 1224 1035 872 754 674 643
1430.0 663 714 775 812 827 845 877 904 896 842
1470.0 751 625 494 387 310 254 209 176 157 146
1510.0 126 108 100 94 89 84 77 75 73 64
1550.0 57 58 58 46 39 40 42 45 38 35
1590.0 36 33 33 37 36 33 29 25 25 26
1630.0 25 25 22 18 19 22 22 18 18 19
1670.0 19 16 15 17 19 21 25 21 17 15
1710.0 13 11 12 12 9 10 10 6 5 2
1750.0 3 3 3 8 13 11 5 3 2 2
1790.0 3 4 4 1 5 10 2 2 5 5
1830.0 8 8 5 5 7 8 4 0 2 6
1870.0 3 0 3 7 6 5 11 10 3 1
1910.0 5 9 9 10 11 11 11 12 14 15
1950.0 16 18 22 23 23 25 26 29 31 32
1990.0 34 39 43 42 41 41 38 38 36 38
2030.0 36 28 29 33 30 26 24 25 22 17
2070.0 15 15 12 6 6 9 9 9 9 4
2110.0 4 10 13 13 12 15 19 18 14 14
2150.0 19 21 21 26 27 29 39 48 54 68
2190.0 87 109 139 167 197 233 269 295 290 262
2230.0 222 175 140 126 113 102 100 99 107 119
2270.0 134 161 182 190 192 175 144 108 76 52
2310.0 37 34 28 18 19 18 18 14 11 10
2350.0 8 10 13 14 14 15 16 15 19 19
2390.0 11 11 10 7 3 0 4 8 7 9
2430.0 12 5 6 11 9 10 10 11 15 14
2470.0 9 8 9 11 13 10 11 19 17 9
2510.0 10 16 17 16 20 21 16 22 27 22
2550.0 21 25 28 29 30 36 40 39 40 41
2590.0 44 39 36 39 44 49 46 49 62 65
2630.0 61 63 72 87 86 86 92 95 95 98
2670.0 98 99 103 108 109 106 99 99 107 108
2710.0 107 107 109 109 116 130 140 146 154 157
2750.0 157 164 164 169 178 185 200 215 223 239
2790.0 265 285 307 331 359 396 436 485 550 615
2830.0 703 833 996 1218 1527 1941 2445 2975 3440 3730
2870.0 3818 3752 3638 3509 3352 3190 3084 3127 3350 3725
2910.0 4238 4877 5670 6661 7794 8882 9681 10000 9692 8755
2950.0 7473 6268 5437 4993 4713 4294 3637 2835 2113 1604
2990.0 1262 1024 850 718 609 524 461 403 363 338
3030.0 310 285 263 235 214 196 182 177 168 157
3070.0 151 138 132 127 120 107 101 100 96 92
3110.0 90 88 75 70 69 70 65 59 62 58
3150.0 52 45 43 50 51 49 42 42 42 38
3190.0 44 39 28 21 29 36 31 32 30 23
3230.0 21 16 16 20 16 12 12 14 17 13
3270.0 9 5 5 7 12 14 19 18 10 11
3310.0 9 8 6 0 6 13 10 12 11 10
3350.0 11 18 17 12 18 18 12 11 19 17
3390.0 12 17 16 13 19 15 14 19 17 24
3430.0 31 23 21 19 9 12 15 13 16 29
3470.0 33 24 27 36 36 30 27 18 17 32
3510.0 29 35 42 36 34 28 26 31 39 40
3550.0 31 27 37 40 36 44 38 32 41 50
3590.0 60 67 73 85 99 110 124 154 181 206
3630.0 232 271 316 340 365 401 418 430 436 423
3670.0 402 376 342 313 278 227 187 161 140 128
3710.0 106 90 87 74 58 58 70 66 57 53
3750.0 53 57 52 52 50 47 56 65 71 65
3790.0 61 61 63 65 66 65 60 52 46 52
3830.0 57 56 55 57 52
##END=
