##TITLE=Dichloromethanesulphonyl chloride
##JCAMP-DX=4.24
##DATA TYPE=INFRARED SPECTRUM
##ORIGIN=EPA-IR VAPOR PHASE LIBRARY
##OWNER=SRD/NIST
Collection (C) 2018 copyright by the U.S. Secretary of Commerce
on behalf of the United States of America. All rights reserved.
##CAS REGISTRY NO=41197-29-9
##MOLFORM=C H Cl 3 O 2 S
##$NIST SOURCE=MSDC-IR
##STATE=gas
##XUNITS=1/CM
##YUNITS=ABSORBANCE
##XFACTOR=1.
##YFACTOR=0.001
##DELTAX=1.92934
##FIRSTX=549.9
##LASTX=3999.5
##FIRSTY=10.944
##MAXX=3999.53
##MINX=549.863
##MAXY=0.037904
##MINY=0
##NPOINTS=1789
##XYDATA=(X++(Y..Y))
549.863 10.944 12.334 14.054 16.364 19.434 21.964 23.184 24.734 27.624 31.034
569.156 33.714 35.754 37.224 37.904 37.694 36.654 35.034 32.874 29.604 25.694
588.450 21.974 18.094 14.124 10.554 7.844 6.064 4.874 4.124 3.654 3.364
607.743 3.084 2.904 2.874 2.914 2.854 2.744 2.684 2.684 2.654 2.534
627.037 2.444 2.364 2.214 2.074 1.934 1.7234 1.6161 1.5528 1.478 1.4404
646.330 1.4888 1.609 1.7134 1.7835 2.024 2.234 2.394 2.614 2.884 3.304
665.624 3.824 4.494 5.004 5.464 5.994 6.384 7.004 7.524 7.874 8.344
684.917 8.644 8.934 9.274 9.394 9.394 9.304 9.154 8.884 8.384 7.794
704.210 7.124 6.294 5.424 4.724 4.194 3.694 3.314 3.104 2.874 2.704
723.504 2.694 2.744 2.854 2.894 2.884 2.904 2.894 2.974 3.054 3.084
742.797 3.204 3.404 3.704 4.094 4.474 4.894 5.414 5.994 6.554 7.114
762.091 7.654 8.084 8.434 8.564 8.554 8.444 8.154 7.764 7.194 6.524
781.384 6.094 5.904 5.774 5.814 6.034 6.454 7.034 7.814 8.784 9.944
800.678 11.264 12.654 14.084 15.374 16.444 17.214 17.694 17.964 17.814 17.394
819.971 16.674 15.484 13.974 12.274 10.664 9.204 7.784 6.584 5.604 4.714
839.264 3.944 3.344 2.924 2.664 2.384 2.144 1.984 1.8246 1.7811 1.7057
858.558 1.5884 1.5221 1.4662 1.3906 1.3234 1.2913 1.2465 1.2573 1.2435 1.2247
877.851 1.1868 1.1471 1.1355 1.0945 1.1161 1.1076 1.1069 1.1494 1.1033 1.0829
897.145 1.1054 1.1346 1.1323 1.1025 1.0609 1.0394 1.0427 1.0529 1.1045 1.0629
916.438 1.0498 1.0644 1.0743 1.1604 1.1788 1.0945 1.1107 1.1554 1.0997 1.056
935.732 1.0555 1.094 1.1435 1.1138 1.1011 1.1385 1.1686 1.1823 1.2011 1.1877
955.025 1.1869 1.2046 1.1416 1.1626 1.1564 1.0783 1.0278 1.0073 0.98239 0.91532
974.318 0.8637 0.92506 0.95859 0.95199 0.94059 0.897937 0.8604 0.8321 0.8813 0.92018
993.612 0.92138 0.94586 0.96078 0.91643 0.88657 0.9123 0.90579 0.94452 0.98356 0.91408
1012.905 0.897041 0.93501 0.95077 0.96572 0.95188 0.9409 0.96044 0.94246 0.93808 0.91671
1032.199 0.8763 0.91245 0.93047 0.901462 0.8904 0.9281 0.95008 0.9213 0.92798 1.0006
1051.492 1.0079 0.97427 1.016 1.0512 1.0275 1.0109 1.0194 1.024 1.0137 1.0108
1070.786 1.0117 1.028 1.0242 1.0311 1.1299 1.2349 1.2402 1.1829 1.2219 1.2997
1090.079 1.3068 1.2948 1.3006 1.3298 1.3571 1.4127 1.4227 1.3943 1.4556 1.5857
1109.372 1.6707 1.7034 1.7725 1.8589 1.964 2.084 2.154 2.254 2.494 2.734
1128.666 3.014 3.384 3.874 4.564 5.404 6.354 7.394 8.474 9.584 10.564
1147.959 11.424 12.404 13.514 14.314 13.754 12.624 12.544 12.574 11.954 11.144
1167.253 10.404 9.814 9.524 9.644 10.034 10.574 11.284 12.184 13.194 14.254
1186.546 15.474 16.754 17.964 19.094 19.964 20.384 20.484 20.484 20.284 19.744
1205.840 18.764 17.274 15.654 14.514 13.984 13.904 13.684 12.204 9.874 8.334
1225.133 7.494 6.524 5.454 4.454 3.654 3.044 2.494 2.134 2.014 1.8834
1244.426 1.7598 1.6947 1.6349 1.5412 1.5053 1.4925 1.4189 1.3814 1.3462 1.3148
1263.720 1.266 1.2672 1.2915 1.2637 1.1989 1.1641 1.154 1.1257 1.1317 1.1719
1283.013 1.1476 1.0999 1.1699 1.2585 1.2757 1.255 1.2807 1.3678 1.4386 1.4821
1302.307 1.5772 1.7762 1.944 2.114 2.374 2.634 2.914 3.284 3.694 4.114
1321.600 4.524 4.984 5.474 5.914 6.404 6.844 7.224 7.614 7.944 8.214
1340.894 8.354 8.344 8.214 8.004 7.774 7.604 7.584 7.924 8.334 8.674
1360.187 8.424 6.444 5.194 6.004 7.364 8.684 9.694 10.404 10.694 10.754
1379.480 10.614 10.304 10.004 9.744 9.604 9.704 10.134 10.994 12.384 14.264
1398.774 16.584 19.344 22.174 25.054 27.974 30.984 33.544 34.934 35.244 35.224
1418.067 35.704 36.004 33.954 28.664 22.454 18.274 15.554 13.054 10.414 7.904
1437.361 5.644 3.974 2.854 2.174 1.8039 1.5994 1.5239 1.4135 1.3209 1.334
1456.654 1.3743 1.3253 1.2794 1.2852 1.2825 1.2698 1.2245 1.2293 1.2643 1.202
1475.948 1.1199 1.1236 1.1233 1.1257 1.1201 1.0661 1.0556 1.0648 1.0428 1.0238
1495.241 1.0584 1.0654 1.0423 0.9942 0.98466 1.0685 1.0699 0.99271 0.94094 0.9616
1514.534 1.0185 1.0636 1.0216 1.0465 1.0954 1.0208 1.02 1.044 1.0161 1.0356
1533.828 1.0628 1.086 1.1755 1.2292 1.1755 1.1243 1.0834 1.0427 1.085 1.094
1553.121 1.0359 1.057 1.1251 1.2126 1.1619 1.063 1.0586 1.0831 1.0724 1.0401
1572.415 1.0709 1.1017 1.1132 1.0942 1.1112 1.0904 1.0138 0.98418 1.0482 1.0843
1591.708 1.0563 1.0556 1.0544 1.0448 1.047 1.0782 1.079 1.0742 1.1155 1.0845
1611.002 1.033 1.0421 1.0406 1.0505 1.0255 1.0461 1.1223 1.0938 1.0514 1.0593
1630.295 1.0022 0.97205 1.0368 1.0444 0.96876 0.92258 0.91488 1.009 1.0772 1.0546
1649.588 1.038 1.1326 1.1982 1.0471 0.97791 0.9988 0.99029 1.0189 1.0465 1.025
1668.882 1.0551 1.0956 1.0109 0.93675 0.97711 0.9963 1.0143 1.0342 1.0735 1.03
1688.175 0.94068 0.943 0.97447 1.0447 1.0777 1.0438 1.0669 1.069 1.0137 1.0145
1707.469 1.0306 1.0203 0.98545 0.96659 0.97665 1.0392 1.0655 0.95867 0.94026 0.96067
1726.762 0.91026 0.95817 1.0117 1.0007 1.0333 0.97856 1.0184 1.0433 0.95242 0.94121
1746.056 0.96146 0.9948 0.97332 0.95327 0.93897 0.94174 0.98257 1.0019 1.0475 1.0202
1765.349 0.94677 0.96055 0.96416 0.96251 0.96709 0.93435 0.94935 0.9952 0.94822 0.91382
1784.642 0.99101 1.009 0.97029 1.0059 1.0018 0.98493 1.0503 1.0359 0.96984 0.94567
1803.936 0.97934 0.99255 0.921 0.9822 1.0343 1.0009 0.9877 0.98756 0.9883 0.96623
1823.229 0.96786 0.99352 1.0395 1.0433 1.0374 1.0613 1.0618 1.0038 0.95442 0.96202
1842.523 1.036 1.0613 0.9956 0.96697 0.95516 0.93636 0.9393 0.97363 0.9697 0.96275
1861.816 0.99092 0.9897 0.9531 0.896602 0.90717 0.89163 0.8805 0.8833 0.8527 0.8545
1881.110 0.8448 0.893776 0.94948 0.9446 0.94757 0.91727 0.8782 0.92806 0.91649 0.895038
1900.403 0.91364 0.90898 0.88561 0.8625 0.90481 0.94423 0.89049 0.8589 0.903249 0.90848
1919.696 0.8762 0.8744 0.89065 0.8804 0.897132 0.9453 0.94316 0.92956 0.91068 0.8833
1938.990 0.8698 0.92435 0.97492 0.93932 0.92577 0.8811 0.903819 0.93267 0.899414 0.88527
1958.283 0.8758 0.8827 0.8584 0.8655 0.8821 0.88592 0.90784 0.89095 0.895038 0.898886
1977.577 0.8727 0.901046 0.91019 0.901109 0.897841 0.900783 0.92643 0.9164 0.8622 0.8414
1996.870 0.8405 0.8237 0.8539 0.8746 0.8662 0.8558 0.8528 0.88966 0.8728 0.8416
2016.164 0.8433 0.8691 0.88477 0.8673 0.8635 0.8353 0.8272 0.8321 0.8533 0.8619
2035.457 0.8707 0.8818 0.8578 0.8497 0.8183 0.8287 0.8714 0.88744 0.898485 0.8729
2054.750 0.8491 0.8596 0.88702 0.89014 0.92117 0.93717 0.8767 0.8696 0.8786 0.8703
2074.044 0.8684 0.855 0.8124 0.8028 0.8556 0.895769 0.93585 0.903421 0.8728 0.8837
2093.337 0.894275 0.8786 0.854 0.8627 0.8527 0.8369 0.8435 0.88708 0.8748 0.8601
2112.631 0.8698 0.8419 0.8437 0.8563 0.8252 0.7995 0.79 0.792 0.782 0.767
2131.924 0.7978 0.8379 0.864 0.8359 0.8294 0.852 0.88997 0.897727 0.8574 0.8302
2151.218 0.792 0.786 0.8183 0.8112 0.784 0.774 0.772 0.78 0.785 0.791
2170.511 0.764 0.8084 0.8582 0.8408 0.8488 0.8322 0.823 0.8447 0.8757 0.8551
2189.804 0.8095 0.8377 0.8311 0.8118 0.8392 0.8612 0.8709 0.8408 0.8235 0.8556
2209.098 0.8182 0.779 0.8044 0.8071 0.8172 0.8064 0.8256 0.837 0.77 0.765
2228.391 0.8052 0.8209 0.8044 0.8 0.8569 0.8537 0.787 0.778 0.765 0.758
2247.685 0.8007 0.8193 0.8197 0.811 0.8107 0.8281 0.8217 0.8183 0.8613 0.8621
2266.978 0.8618 0.8533 0.8201 0.7987 0.773 0.767 0.768 0.7986 0.789 0.8206
2286.272 0.8414 0.8162 0.8432 0.8561 0.8644 0.8828 0.8721 0.8675 0.89131 0.90483
2305.565 0.93667 0.94468 0.901045 0.91235 0.94964 0.95639 0.97177 1.0001 0.998 0.95044
2324.858 0.9295 0.96652 1.0195 1.0523 1.0699 1.0663 1.0544 1.0363 0.9978 0.99028
2344.152 1.0096 1.0074 1.0312 1.0573 1.0894 1.1098 1.1334 1.1412 1.1339 1.1612
2363.445 1.1437 1.1138 1.0635 1.02 1.0063 1.007 0.97874 0.954 0.96172 0.95126
2382.739 0.94126 0.89714 0.8709 0.88643 0.90174 0.90526 0.8401 0.791 0.8152 0.8378
2402.032 0.8093 0.8337 0.857 0.8187 0.8228 0.79 0.8246 0.8573 0.8199 0.8086
2421.326 0.778 0.756 0.761 0.761 0.771 0.763 0.767 0.772 0.765 0.8106
2440.619 0.793 0.77 0.8049 0.8325 0.8135 0.77 0.734 0.735 0.786 0.793
2459.912 0.781 0.8204 0.8192 0.7963 0.8178 0.8235 0.7998 0.8302 0.8469 0.8181
2479.206 0.812 0.8272 0.8182 0.791 0.8075 0.8362 0.8651 0.8263 0.8274 0.8497
2498.499 0.79 0.727 0.728 0.782 0.8041 0.8111 0.8195 0.8767 0.88513 0.8517
2517.793 0.8299 0.782 0.741 0.737 0.728 0.707 0.686 0.678 0.727 0.738
2537.086 0.696 0.697 0.71 0.72 0.718 0.745 0.773 0.735 0.726 0.707
2556.380 0.699 0.729 0.725 0.711 0.719 0.682 0.662 0.755 0.757 0.66
2575.673 0.622 0.597 0.671 0.758 0.76 0.735 0.748 0.757 0.771 0.8022
2594.966 0.771 0.758 0.786 0.766 0.756 0.8137 0.789 0.752 0.752 0.751
2614.260 0.723 0.706 0.731 0.656 0.61 0.69 0.684 0.652 0.679 0.663
2633.553 0.631 0.634 0.639 0.609 0.584 0.606 0.581 0.547 0.553 0.561
2652.847 0.584 0.536 0.549 0.564 0.569 0.514 0.427 0.478 0.518 0.527
2672.140 0.512 0.5 0.606 0.638 0.527 0.514 0.538 0.483 0.463 0.502
2691.434 0.518 0.533 0.508 0.47 0.508 0.607 0.674 0.535 0.447 0.503
2710.727 0.477 0.426 0.44 0.45 0.48 0.531 0.495 0.49 0.587 0.581
2730.020 0.415 0.41 0.386 0.36 0.405 0.368 0.331 0.353 0.422 0.434
2749.314 0.504 0.597 0.566 0.441 0.383 0.399 0.351 0.349 0.401 0.423
2768.607 0.385 0.339 0.426 0.628 0.605 0.431 0.394 0.456 0.474 0.415
2787.901 0.385 0.343 0.346 0.342 0.398 0.532 0.569 0.497 0.424 0.365
2807.194 0.353 0.386 0.439 0.441 0.388 0.466 0.559 0.577 0.48 0.32
2826.488 0.285 0.359 0.414 0.395 0.306 0.278 0.331 0.37 0.44 0.388
2845.781 0.324 0.293 0.203 0.242 0.284 0.221 0.247 0.282 0.361 0.496
2865.074 0.488 0.34 0.309 0.303 0.219 0.256 0.296 0.226 0.201 0.259
2884.368 0.213 0.224 0.27 0.337 0.296 0.203 0.23 0.232 0.318 0.35
2903.661 0.319 0.305 0.236 0.208 0.227 0.189 0.149 0.161 0.164 0.232
2922.955 0.336 0.402 0.332 0.229 0.31 0.339 0.243 0.244 0.299 0.317
2942.248 0.336 0.479 0.399 0.228 0.309 0.36 0.32 0.237 0.271 0.471
2961.542 0.777 0.8312 0.732 0.741 0.731 0.8403 1.0407 1.1826 1.2292 1.2084
2980.835 1.2015 1.1104 0.9222 0.8411 0.8396 0.8449 0.8687 0.95407 1.2309 1.3139
3000.128 1.1531 1.1631 1.2215 1.126 0.9995 0.95738 0.97115 1.038 0.90088 0.664
3019.422 0.471 0.345 0.238 0.236 0.334 0.38 0.318 0.236 0.232 0.198
3038.715 0.237 0.303 0.287 0.196 0.251 0.277 0.162 0.1 0.137 0.151
3058.009 0.223 0.252 0.154 0.16 0.16 0.194 0.128 0.086 0.231 0.251
3077.302 0.163 0.087 0.131 0.295 0.355 0.257 0.203 0.121 0.055 0.234
3096.596 0.274 0.166 0.111 0.05 0.087 0.134 0.121 0.177 0.178 0.115
3115.889 0.113 0.047 0.004 0.017 0.114 0.188 0.182 0.147 0.033 0.134
3135.182 0.261 0.213 0.236 0.164 0.053 0.113 0.148 0.232 0.312 0.245
3154.476 0.236 0.244 0.219 0.258 0.121 0 0.113 0.164 0.09 0.017
3173.769 0.192 0.276 0.199 0.254 0.29 0.241 0.166 0.111 0.117 0.18
3193.063 0.276 0.301 0.304 0.36 0.246 0.103 0.178 0.225 0.255 0.273
3212.356 0.195 0.208 0.197 0.231 0.345 0.442 0.493 0.482 0.35 0.313
3231.650 0.304 0.145 0.231 0.364 0.321 0.304 0.259 0.283 0.367 0.324
3250.943 0.305 0.195 0.278 0.405 0.355 0.322 0.36 0.384 0.212 0.269
3270.236 0.392 0.396 0.35 0.367 0.539 0.501 0.339 0.358 0.409 0.39
3289.530 0.432 0.404 0.484 0.516 0.335 0.286 0.267 0.319 0.32 0.373
3308.823 0.603 0.585 0.459 0.298 0.289 0.508 0.577 0.526 0.535 0.521
3328.117 0.538 0.505 0.412 0.433 0.458 0.363 0.284 0.419 0.525 0.43
3347.410 0.386 0.477 0.508 0.482 0.512 0.584 0.625 0.618 0.456 0.362
3366.704 0.448 0.496 0.418 0.43 0.56 0.534 0.559 0.661 0.752 0.8024
3385.997 0.734 0.532 0.454 0.405 0.348 0.611 0.702 0.53 0.606 0.587
3405.290 0.393 0.48 0.664 0.636 0.478 0.492 0.467 0.316 0.454 0.61
3424.584 0.526 0.503 0.592 0.542 0.565 0.658 0.63 0.588 0.469 0.448
3443.877 0.573 0.519 0.52 0.594 0.604 0.635 0.569 0.512 0.578 0.549
3463.171 0.569 0.514 0.399 0.537 0.669 0.8059 0.568 0.406 0.545 0.61
3482.464 0.64 0.643 0.608 0.486 0.493 0.508 0.513 0.62 0.605 0.493
3501.758 0.646 0.766 0.6 0.573 0.647 0.684 0.725 0.675 0.661 0.8262
3521.051 0.624 0.395 0.545 0.701 0.731 0.593 0.617 0.594 0.564 0.699
3540.344 0.604 0.499 0.584 0.642 0.679 0.622 0.467 0.548 0.629 0.593
3559.638 0.709 0.7953 0.737 0.787 0.786 0.602 0.534 0.691 0.8026 0.8058
3578.931 0.8041 0.761 0.759 0.716 0.667 0.672 0.745 0.753 0.671 0.626
3598.225 0.685 0.776 0.789 0.783 0.762 0.689 0.692 0.644 0.67 0.7942
3617.518 0.792 0.688 0.653 0.7 0.734 0.8506 0.8371 0.64 0.618 0.647
3636.812 0.626 0.639 0.629 0.748 0.8213 0.8344 0.764 0.768 0.747 0.698
3656.105 0.832 0.782 0.675 0.635 0.619 0.614 0.638 0.765 0.902371 0.8548
3675.398 0.788 0.71 0.631 0.729 0.817 0.8001 0.754 0.696 0.632 0.633
3694.692 0.637 0.663 0.729 0.774 0.778 0.751 0.756 0.703 0.681 0.789
3713.985 0.76 0.651 0.716 0.774 0.783 0.8412 0.792 0.665 0.677 0.706
3733.279 0.642 0.674 0.78 0.8066 0.742 0.723 0.759 0.792 0.718 0.698
3752.572 0.764 0.75 0.693 0.614 0.606 0.637 0.757 0.8021 0.8376 0.792
3771.866 0.683 0.758 0.745 0.8198 0.759 0.644 0.76 0.726 0.768 0.728
3791.159 0.62 0.649 0.663 0.667 0.6 0.642 0.739 0.726 0.747 0.728
3810.452 0.659 0.635 0.652 0.763 0.679 0.607 0.636 0.654 0.661 0.664
3829.746 0.689 0.584 0.606 0.587 0.491 0.532 0.578 0.604 0.582 0.586
3849.039 0.643 0.646 0.732 0.79 0.739 0.745 0.767 0.762 0.8067 0.764
3868.333 0.67 0.648 0.616 0.657 0.647 0.605 0.579 0.601 0.722 0.714
3887.626 0.608 0.57 0.621 0.716 0.689 0.651 0.662 0.719 0.759 0.683
3906.920 0.651 0.639 0.666 0.655 0.63 0.692 0.723 0.737 0.676 0.637
3926.213 0.58 0.507 0.607 0.638 0.495 0.461 0.593 0.568 0.451 0.446
3945.506 0.598 0.725 0.661 0.664 0.742 0.723 0.648 0.714 0.776 0.631
3964.800 0.576 0.595 0.563 0.604 0.699 0.742 0.735 0.662 0.539 0.599
3984.093 0.612 0.553 0.636 0.757 0.772 0.667 0.657 0.724 0.685
##END=
