##TITLE=N-Propionylimidazole
##JCAMP-DX=4.24
##DATA TYPE=INFRARED SPECTRUM
##ORIGIN=EPA-IR VAPOR PHASE LIBRARY
##OWNER=SRD/NIST
Collection (C) 2018 copyright by the U.S. Secretary of Commerce
on behalf of the United States of America. All rights reserved.
##CAS REGISTRY NO=4122-52-5
##MOLFORM=C 6 H 8 N 2 O
##$NIST SOURCE=MSDC-IR
##STATE=gas
##XUNITS=1/CM
##YUNITS=ABSORBANCE
##XFACTOR=1.
##YFACTOR=0.001
##DELTAX=1.929
##FIRSTX=549.8
##LASTX=4000.8
##FIRSTY=1.5662
##MAXX=4000.75
##MINX=549.766
##MAXY=0.134085
##MINY=0
##NPOINTS=1790
##XYDATA=(X++(Y..Y))
549.766 1.5662 1.6555 1.4162 1.5031 1.4836 1.3861 1.5243 1.3413 1.2949 1.4937
569.056 1.865 2.025 1.965 2.205 2.505 2.855 3.205 3.555 4.005 4.655
588.346 5.445 6.125 6.795 7.575 8.435 9.125 9.685 10.305 10.825 11.125
607.636 11.295 11.025 10.685 10.585 10.255 9.655 9.105 8.725 8.645 8.775
626.926 8.945 9.265 9.725 10.225 10.695 11.355 12.155 13.325 15.015 17.195
646.216 17.995 15.685 13.245 12.335 11.915 11.345 10.415 9.445 8.475 7.505
665.506 6.495 5.435 4.665 4.285 3.765 3.435 3.395 3.255 3.205 3.265
684.796 3.455 3.835 4.225 4.765 5.485 6.155 6.835 7.695 8.675 9.505
704.086 10.395 11.705 13.735 16.365 17.475 16.445 15.555 15.425 15.635 15.855
723.376 15.845 15.645 15.135 14.535 13.945 13.275 12.645 12.175 11.865 11.625
742.666 11.605 11.955 12.595 13.205 13.445 12.585 10.845 9.505 8.795 8.155
761.956 7.575 7.035 6.395 5.855 5.315 4.795 4.445 4.215 4.065 4.065
781.246 4.405 4.875 5.415 6.135 6.955 7.785 8.545 9.265 9.975 10.775
800.536 11.635 12.885 14.945 17.525 17.755 15.075 13.225 12.645 12.165 11.715
819.826 11.335 10.875 10.355 9.795 9.275 8.905 8.595 8.355 8.305 8.605
839.116 9.085 9.495 9.085 7.885 7.055 6.605 6.225 5.965 5.615 5.275
858.406 4.915 4.455 4.185 4.025 3.945 3.985 4.005 4.085 4.175 4.385
877.696 4.875 5.565 6.355 7.135 7.645 7.805 7.895 8.255 8.455 8.505
896.986 8.735 8.885 8.845 8.815 9.125 9.975 11.805 14.865 19.165 24.665
916.276 30.955 37.265 42.775 46.785 49.225 50.305 50.085 49.195 48.305 46.255
935.566 41.915 35.825 28.475 20.945 14.805 10.595 7.975 6.365 5.315 4.615
954.856 4.175 3.865 3.745 3.675 3.615 3.635 3.765 4.045 4.455 4.995
974.146 5.745 6.665 7.685 8.915 10.195 11.375 12.525 13.515 14.355 15.085
993.436 15.505 15.575 15.475 15.245 14.745 14.045 13.255 12.375 11.375 10.345
1012.726 9.525 9.025 8.835 8.845 9.105 9.675 10.355 10.945 11.465 11.965
1032.016 12.385 12.835 13.415 14.245 15.355 16.555 17.825 19.295 21.175 23.525
1051.306 26.205 28.875 31.105 32.395 32.955 33.425 33.505 33.075 32.425 31.025
1070.596 28.595 25.875 23.595 22.005 21.275 21.435 22.535 24.455 26.775 28.925
1089.886 30.195 30.295 30.025 30.505 31.025 31.205 31.535 30.655 28.155 24.925
1109.176 21.595 18.675 16.345 14.665 13.375 12.255 11.165 9.795 8.205 6.655
1128.467 5.395 4.575 4.095 3.805 3.645 3.535 3.445 3.325 3.205 3.295
1147.757 3.205 2.995 3.025 3.195 3.305 3.285 3.335 3.455 3.595 3.735
1167.047 3.995 4.255 4.475 4.835 5.305 5.785 6.295 6.965 7.825 8.805
1186.337 9.975 11.465 13.365 15.895 19.125 23.265 28.495 34.955 42.845 52.105
1205.627 62.615 73.825 84.975 95.435 104.625 112.505 119.725 126.055 130.715 133.685
1224.917 134.035 130.955 125.345 117.865 109.595 101.445 93.375 85.315 77.135 69.275
1244.207 61.085 52.115 43.835 37.885 35.165 35.655 38.685 43.255 48.045 51.775
1263.497 54.385 56.865 60.275 63.985 67.425 70.585 71.655 69.975 67.295 65.185
1282.787 64.045 63.405 62.745 61.655 60.095 57.975 55.005 51.355 47.215 42.945
1302.077 38.755 34.845 31.635 29.265 27.555 26.365 25.585 25.065 24.635 24.205
1321.367 23.705 23.065 22.365 21.575 20.645 19.555 18.295 16.995 15.685 14.485
1340.657 13.495 12.795 12.535 12.625 13.165 14.255 15.985 18.585 22.265 26.945
1359.947 32.575 39.115 46.365 54.025 61.965 69.995 77.515 84.155 89.445 92.795
1379.237 94.055 93.075 89.935 85.305 79.215 71.535 62.715 53.375 43.805 34.965
1398.527 27.805 22.355 18.755 16.345 14.745 13.675 12.915 12.375 11.975 11.645
1417.817 11.465 11.365 11.365 11.515 11.845 12.315 13.065 14.085 15.255 16.525
1437.107 17.905 19.215 20.595 21.985 23.375 24.835 26.635 28.765 31.415 34.795
1456.397 39.235 44.485 49.665 54.635 58.905 62.255 64.515 65.905 66.205 65.395
1475.687 63.735 60.915 56.595 50.975 44.505 37.755 31.465 26.495 23.065 20.955
1494.977 19.595 18.445 17.325 16.195 15.265 14.575 13.925 13.385 12.995 12.615
1514.267 12.235 11.935 11.725 11.525 11.225 10.865 10.505 10.165 9.755 9.315
1533.557 8.955 8.405 7.615 6.695 5.975 5.635 5.595 5.635 5.685 5.745
1552.847 5.745 5.775 5.785 5.835 5.885 5.895 5.935 5.945 5.865 5.715
1572.137 5.585 5.515 5.425 5.265 5.155 5.135 5.145 5.055 4.845 4.645
1591.427 4.525 4.565 4.735 4.915 5.155 5.515 5.925 6.335 6.745 7.095
1610.717 7.365 7.595 7.755 7.775 7.665 7.455 7.155 6.735 6.285 5.845
1630.007 5.325 4.765 4.285 3.875 3.565 3.355 3.245 3.145 3.035 3.015
1649.297 3.015 2.995 3.005 3.065 3.175 3.285 3.405 3.595 3.805 4.065
1668.587 4.335 4.605 4.815 4.965 5.105 5.205 5.275 5.355 5.465 5.525
1687.877 5.595 5.715 5.895 6.115 6.355 6.725 7.105 7.455 7.765 8.095
1707.167 8.485 9.015 9.675 10.465 11.365 12.425 13.865 15.595 17.935 20.995
1726.457 24.775 29.485 35.315 42.305 51.415 62.005 73.775 87.675 101.665 114.795
1745.747 125.085 131.415 133.825 134.085 133.865 133.615 132.065 127.555 118.655 105.045
1765.037 88.245 70.755 55.085 42.945 33.295 26.085 20.655 16.435 13.165 10.745
1784.327 8.975 7.625 6.595 5.795 5.245 4.815 4.475 4.175 3.965 3.805
1803.617 3.695 3.595 3.505 3.415 3.365 3.335 3.295 3.265 3.255 3.215
1822.907 3.125 3.095 3.075 2.965 2.835 2.785 2.765 2.685 2.585 2.535
1842.197 2.475 2.405 2.325 2.255 2.225 2.195 2.135 2.105 2.035 1.985
1861.487 1.935 1.845 1.8114 1.8065 1.8111 1.8077 1.7817 1.7582 1.7622 1.7728
1880.777 1.7422 1.7146 1.7147 1.7311 1.7302 1.7139 1.6753 1.6047 1.5711 1.565
1900.067 1.5174 1.4707 1.4379 1.4073 1.3891 1.3448 1.3231 1.2727 1.2122 1.2425
1919.357 1.2902 1.286 1.2487 1.2138 1.2231 1.2469 1.2169 1.2475 1.3075 1.2872
1938.647 1.2595 1.2476 1.2655 1.267 1.2642 1.3085 1.3398 1.3333 1.3347 1.345
1957.937 1.3694 1.3777 1.3697 1.4125 1.4081 1.3696 1.3725 1.367 1.342 1.3178
1977.227 1.2911 1.2703 1.2654 1.2251 1.2046 1.181 1.1469 1.1398 1.0626 1.0251
1996.517 0.9757 0.90072 0.90333 0.9393 0.9344 0.87373 0.84995 0.82009 0.82167 0.86031
2015.807 0.84979 0.85037 0.83616 0.8061 0.8131 0.8022 0.81 0.8122 0.7993 0.7889
2035.097 0.7986 0.825576 0.84938 0.84458 0.819 0.828299 0.89268 0.9289 0.89308 0.87338
2054.387 0.8681 0.90758 0.9507 0.92453 0.90474 0.90589 0.90875 0.90762 0.91624 0.92226
2073.677 0.91743 0.90384 0.841 0.83646 0.87306 0.87961 0.87093 0.86111 0.91463 0.9617
2092.967 0.9566 0.9966 1.053 1.0723 1.1069 1.2048 1.2557 1.2724 1.2858 1.3121
2112.257 1.3804 1.4194 1.4719 1.4733 1.4181 1.4288 1.4267 1.4021 1.4309 1.469
2131.547 1.472 1.5024 1.5235 1.5447 1.5786 1.5409 1.4957 1.4637 1.4301 1.3609
2150.837 1.296 1.238 1.1735 1.0957 1.0248 1.0081 0.9398 0.87695 0.91046 0.88975
2170.127 0.829979 0.826155 0.8104 0.7991 0.8035 0.7856 0.8031 0.82187 0.84453 0.825119
2189.417 0.7591 0.7408 0.747 0.7729 0.7563 0.718 0.695 0.704 0.706 0.693
2208.707 0.681 0.654 0.63 0.594 0.6 0.641 0.656 0.644 0.626 0.585
2227.997 0.59 0.601 0.639 0.705 0.697 0.664 0.633 0.66 0.7275 0.7405
2247.287 0.694 0.705 0.703 0.713 0.7779 0.7701 0.7641 0.768 0.8084 0.86173
2266.577 0.86658 0.87993 0.92148 0.9504 0.9317 0.9497 0.9936 0.9495 0.9731 1.0473
2285.868 1.0466 1.0168 0.9926 1.0167 1.0309 1.0027 1.011 1.0158 0.9663 0.9862
2305.158 1.0318 0.9936 0.963 0.9907 0.9828 0.962 0.979 0.9739 0.9757 0.9868
2324.448 0.9718 0.9704 0.9815 0.9905 0.9309 0.88437 0.90624 0.9422 0.9581 0.9458
2343.738 0.9435 0.9405 0.9419 0.9636 0.9738 0.9561 0.9714 1.0291 1.0725 1.0531
2363.028 1.0778 1.1213 1.1228 1.1159 1.0695 1.065 1.0608 1.0661 1.1052 1.0698
2382.318 1.0021 0.9699 0.9644 0.9315 0.9281 0.9045 0.84873 0.8184 0.832634 0.86491
2401.608 0.86115 0.8538 0.8566 0.89186 0.86146 0.7966 0.85989 0.91247 0.83741 0.84465
2420.898 0.8916 0.84221 0.81581 0.87334 0.9324 0.91267 0.87702 0.88281 0.89318 0.84658
2440.188 0.81711 0.86066 0.84648 0.8185 0.85888 0.87446 0.81 0.82823 0.83919 0.795
2459.478 0.87142 0.88362 0.8128 0.8013 0.824397 0.86677 0.86245 0.8067 0.7872 0.7848
2478.768 0.82039 0.88701 0.875 0.83105 0.833876 0.8785 0.9316 0.9657 0.9624 0.9781
2498.058 0.9895 0.9836 1.0322 1.0661 1.0214 0.9819 1.0137 1.0613 1.0619 1.0194
2517.348 0.9907 0.9863 0.9978 0.9576 0.9865 1.0915 1.0471 1.0574 1.1296 1.0895
2536.638 1.1165 1.1413 1.1352 1.1929 1.2545 1.3184 1.2955 1.2249 1.2536 1.28
2555.928 1.2828 1.3184 1.3124 1.3191 1.308 1.2949 1.3687 1.3924 1.3592 1.3506
2575.218 1.3267 1.3423 1.352 1.3346 1.2889 1.2667 1.2627 1.2265 1.2141 1.193
2594.508 1.2142 1.1702 1.1067 1.0776 1.0261 0.9497 0.91258 0.91413 0.9622 0.9884
2613.798 0.91986 0.85016 0.833356 0.84642 0.8124 0.7816 0.7842 0.7697 0.7722 0.8102
2633.088 0.81648 0.7576 0.672 0.655 0.686 0.679 0.679 0.681 0.645 0.648
2652.378 0.669 0.675 0.663 0.654 0.633 0.658 0.7626 0.8006 0.7466 0.695
2671.668 0.7434 0.7903 0.7668 0.713 0.7813 0.86765 0.8441 0.87762 0.90006 0.90571
2690.958 0.87639 0.8178 0.831037 0.82028 0.713 0.648 0.675 0.67 0.663 0.683
2710.248 0.647 0.692 0.7395 0.684 0.635 0.589 0.581 0.647 0.678 0.642
2729.538 0.694 0.82132 0.8401 0.8067 0.8115 0.84901 0.89382 0.90883 0.90832 0.91215
2748.828 0.9825 0.9819 0.9771 1.0761 1.1054 1.0484 0.9837 1.0189 1.0729 1.0468
2768.118 0.9798 0.9328 0.974 0.987 0.89858 0.8224 0.87478 0.90851 0.88297 0.9275
2787.408 0.921 0.85097 0.832981 0.8525 0.86636 0.87129 0.86135 0.9283 0.948 0.89713
2806.698 0.9767 1.0266 1.0097 1.0364 1.1013 1.1392 1.1129 1.0986 1.1736 1.2009
2825.988 1.1492 1.2134 1.3095 1.3329 1.3885 1.3802 1.4601 1.5763 1.5662 1.5818
2845.278 1.5206 1.4492 1.5173 1.5261 1.4644 1.5057 1.6009 1.7037 1.8007 1.835
2864.568 1.845 1.885 2.005 2.155 2.355 2.585 2.845 3.145 3.505 3.945
2883.858 4.335 4.795 5.195 5.385 5.535 5.775 5.885 5.975 6.065 6.025
2903.148 5.925 5.775 5.645 5.575 5.675 5.785 5.945 6.365 6.875 7.265
2922.438 7.645 8.105 8.465 8.685 8.995 9.375 9.655 9.825 10.085 10.525
2941.728 11.205 11.915 12.515 13.105 13.555 13.635 13.515 13.505 13.395 13.115
2961.018 12.845 12.335 11.405 10.325 9.435 8.925 8.815 9.105 9.655 10.375
2980.308 11.325 12.415 13.585 14.725 15.585 15.975 16.145 16.235 16.405 16.615
2999.598 16.445 15.505 14.035 12.555 11.265 10.075 8.845 7.755 6.925 6.235
3018.888 5.535 4.875 4.315 3.945 3.665 3.295 3.005 2.845 2.675 2.545
3038.178 2.475 2.375 2.215 2.155 2.145 2.065 1.915 1.7931 1.732 1.6095
3057.468 1.5254 1.4028 1.3402 1.3981 1.3522 1.2053 1.1201 1.1975 1.1453 1.0429
3076.758 1.0599 0.9896 0.9559 1.0355 1.0312 0.9772 0.9731 0.87195 0.81913 0.92243
3096.048 0.9616 0.9537 1.019 1.0172 1.0509 1.2223 1.3148 1.4051 1.6484 1.915
3115.338 2.055 2.275 2.615 2.975 3.305 3.545 3.715 3.695 3.575 3.625
3134.628 3.775 3.945 3.935 3.685 3.425 3.155 2.835 2.625 2.515 2.435
3153.918 2.485 2.675 2.875 2.965 2.925 2.815 2.765 2.665 2.565 2.545
3173.208 2.385 2.175 1.985 1.718 1.3891 1.0487 0.85605 0.705 0.584 0.518
3192.498 0.473 0.418 0.319 0.253 0.252 0.29 0.236 0.201 0.203 0.207
3211.788 0.222 0.106 0.064 0.168 0.246 0.263 0.212 0.159 0.123 0.092
3231.078 0.087 0.168 0.215 0.098 0.041 0.05 0.036 0.007 0.038 0.067
3250.368 0.122 0.161 0.149 0.175 0.22 0.231 0.218 0.144 0.099 0.173
3269.658 0.186 0.177 0.163 0.127 0.19 0.296 0.264 0.241 0.225 0.242
3288.948 0.307 0.212 0.213 0.273 0.295 0.266 0.121 0.165 0.198 0.111
3308.238 0.095 0.098 0.043 0.025 0.151 0.276 0.266 0.231 0.2 0.118
3327.528 0.121 0.102 0.062 0.053 0.091 0.174 0.202 0.142 0.09 0.234
3346.818 0.272 0.147 0.152 0.144 0.059 0.074 0.085 0.035 0.073 0.108
3366.108 0.065 0.065 0.105 0.09 0 0.035 0.189 0.146 0.161 0.23
3385.398 0.201 0.225 0.196 0.134 0.075 0.111 0.137 0.08 0.105 0.133
3404.688 0.17 0.276 0.307 0.297 0.231 0.187 0.218 0.193 0.196 0.195
3423.978 0.255 0.328 0.295 0.294 0.251 0.261 0.373 0.348 0.246 0.314
3443.269 0.375 0.413 0.428 0.453 0.554 0.574 0.616 0.7563 0.7782 0.83157
3462.559 1.0485 1.165 1.2585 1.3723 1.5081 1.641 1.7603 2.005 2.205 2.225
3481.849 2.225 2.245 2.245 2.215 2.175 2.115 1.965 1.8008 1.7819 1.6651
3501.139 1.438 1.298 1.1871 1.0597 0.84907 0.7468 0.684 0.58 0.593 0.658
3520.429 0.639 0.461 0.479 0.597 0.597 0.577 0.485 0.408 0.323 0.351
3539.719 0.433 0.347 0.359 0.39 0.381 0.381 0.282 0.29 0.307 0.374
3559.009 0.4 0.331 0.285 0.223 0.213 0.291 0.311 0.241 0.273 0.27
3578.299 0.253 0.238 0.319 0.377 0.356 0.372 0.342 0.211 0.204 0.271
3597.589 0.243 0.275 0.197 0.257 0.34 0.316 0.39 0.421 0.349 0.327
3616.879 0.379 0.277 0.24 0.247 0.236 0.291 0.363 0.322 0.312 0.289
3636.169 0.302 0.235 0.1 0.276 0.323 0.237 0.216 0.221 0.327 0.384
3655.459 0.267 0.264 0.342 0.335 0.308 0.233 0.202 0.279 0.307 0.333
3674.749 0.298 0.214 0.286 0.325 0.341 0.321 0.315 0.328 0.374 0.422
3694.039 0.361 0.329 0.241 0.154 0.211 0.265 0.281 0.348 0.349 0.361
3713.329 0.295 0.241 0.197 0.152 0.204 0.267 0.264 0.282 0.373 0.276
3732.619 0.16 0.181 0.34 0.335 0.273 0.357 0.362 0.233 0.195 0.3
3751.909 0.357 0.28 0.211 0.192 0.195 0.2 0.169 0.266 0.414 0.327
3771.199 0.226 0.286 0.303 0.289 0.223 0.178 0.253 0.341 0.382 0.355
3790.489 0.265 0.323 0.395 0.306 0.301 0.374 0.301 0.227 0.275 0.239
3809.779 0.252 0.385 0.346 0.289 0.304 0.237 0.237 0.313 0.387 0.397
3829.069 0.326 0.3 0.366 0.347 0.232 0.237 0.282 0.309 0.329 0.304
3848.359 0.248 0.109 0.134 0.236 0.262 0.222 0.164 0.158 0.19 0.231
3867.649 0.181 0.178 0.155 0.193 0.19 0.199 0.236 0.281 0.342 0.299
3886.939 0.383 0.401 0.396 0.412 0.342 0.255 0.282 0.293 0.268 0.351
3906.229 0.395 0.402 0.303 0.225 0.372 0.462 0.388 0.441 0.441 0.297
3925.519 0.222 0.181 0.29 0.379 0.363 0.303 0.218 0.312 0.395 0.391
3944.809 0.365 0.407 0.407 0.336 0.392 0.433 0.36 0.317 0.353 0.439
3964.099 0.433 0.31 0.22 0.23 0.274 0.263 0.302 0.358 0.369 0.401
3983.389 0.411 0.416 0.407 0.337 0.354 0.493 0.533 0.409 0.368 0.452
##END=
