##TITLE=2-Iodo-4-Nitrotoluene
##JCAMP-DX=4.24
##DATA TYPE=INFRARED SPECTRUM
##ORIGIN=EPA-IR VAPOR PHASE LIBRARY
##OWNER=SRD/NIST
Collection (C) 2018 copyright by the U.S. Secretary of Commerce
on behalf of the United States of America. All rights reserved.
##CAS REGISTRY NO=41252-97-5
##MOLFORM=C 7 H 6 I N O 2
##$NIST SOURCE=MSDC-IR
##STATE=gas
##XUNITS=1/CM
##YUNITS=ABSORBANCE
##XFACTOR=1.
##YFACTOR=0.001
##DELTAX=1.92898
##FIRSTX=549.8
##LASTX=4000.7
##FIRSTY=0.5943
##MAXX=4000.7
##MINX=549.759
##MAXY=0.222704
##MINY=0
##NPOINTS=1790
##XYDATA=(X++(Y..Y))
549.759 0.5943 0.4363 0.4463 0.6094 0.3905 0.31159 0.4842 0.7535 0.9478 0.9137
569.049 0.7656 0.7031 0.4543 0.2041 0.4633 0.5397 0.3664 0.4401 0.5462 0.12
588.339 0.1733 0.25519 0.26031 0.7403 0.8334 0.6995 0.7491 0.8208 0.8947 1.0448
607.628 1.2292 1.444 1.574 1.704 1.914 2.444 3.574 5.164 7.474 9.924
626.918 11.164 11.384 11.354 10.874 9.354 6.934 4.724 3.394 2.664 2.414
646.208 2.384 2.894 3.784 4.864 6.784 9.864 13.994 18.874 23.514 26.554
665.498 27.744 27.504 25.694 21.874 16.074 10.684 7.474 5.784 4.834 4.144
684.787 3.574 3.204 3.174 3.294 3.264 3.114 3.214 3.284 3.234 3.294
704.077 3.324 3.464 3.584 3.804 3.824 3.694 3.864 4.134 4.584 5.714
723.367 7.634 10.134 12.994 15.934 18.994 23.074 28.874 31.614 27.964 23.064
742.657 19.964 17.204 13.744 10.184 7.144 4.914 3.344 2.424 2.154 1.984
761.947 1.924 1.834 1.834 1.964 2.114 2.364 2.844 3.784 5.464 8.184
781.236 12.404 18.394 25.194 30.574 33.124 33.574 32.424 29.094 23.194 16.264
800.526 10.714 7.384 5.764 5.134 5.034 5.614 6.874 8.654 10.784 12.794
819.816 14.774 16.694 18.534 19.214 17.374 14.584 12.284 10.434 8.634 6.964
839.106 5.764 5.074 4.794 4.874 5.174 5.544 6.124 7.004 7.824 8.404
858.395 9.114 10.134 11.524 13.364 15.734 17.564 18.574 19.084 19.194 19.044
877.685 17.754 15.484 13.254 11.484 10.374 9.964 10.074 10.654 11.334 12.054
896.975 12.644 12.714 12.414 11.414 9.744 8.084 6.574 5.244 4.174 3.424
916.265 2.854 2.234 1.944 1.744 1.694 1.804 1.744 1.654 1.664 1.594
935.555 1.644 1.784 1.684 1.504 1.474 1.574 1.494 1.364 1.454 1.514
954.844 1.444 1.584 1.674 1.764 1.844 1.794 1.804 1.934 2.104 1.994
974.134 1.854 1.964 1.934 2.154 2.454 2.574 2.874 3.324 3.714 4.164
993.424 4.544 4.564 4.464 4.384 4.074 3.584 3.214 3.044 2.954 3.244
1012.714 3.694 4.124 4.924 6.324 8.354 10.784 13.824 17.424 21.074 23.664
1032.003 24.384 24.534 24.354 22.254 18.084 13.534 9.954 7.354 5.844 4.674
1051.293 3.634 3.014 2.654 2.294 2.264 2.404 2.354 2.044 1.954 1.854
1070.583 1.614 1.824 1.914 2.004 2.104 1.954 1.744 2.104 2.124 2.194
1089.873 3.064 3.534 4.274 5.504 6.654 8.174 10.324 12.924 15.864 19.234
1109.163 22.774 26.124 28.284 28.354 27.344 25.594 21.904 17.414 13.864 11.084
1128.452 8.944 7.644 6.744 6.404 6.404 5.914 5.684 5.654 5.354 4.824
1147.742 3.634 2.754 2.344 2.084 1.834 1.494 1.834 1.834 1.654 1.824
1167.032 1.814 2.004 2.084 2.104 2.074 2.204 2.314 2.064 2.304 2.514
1186.322 2.324 2.174 2.134 2.194 2.224 2.544 2.804 2.794 3.144 3.494
1205.611 3.474 3.314 3.244 3.104 2.634 2.314 2.584 2.814 2.894 2.814
1224.901 2.964 3.094 3.024 3.284 3.304 3.134 3.174 3.424 3.744 4.104
1244.191 4.344 4.374 4.854 5.414 6.144 7.374 8.984 11.174 13.454 15.694
1263.481 16.994 17.304 17.374 16.544 14.474 11.904 9.694 8.234 7.214 6.194
1282.771 5.424 4.914 4.554 4.244 4.024 4.034 4.204 4.314 4.274 4.274
1302.060 4.374 4.454 4.514 4.604 4.794 5.134 5.724 6.594 7.684 9.104
1321.350 10.974 13.414 16.504 20.464 25.654 32.704 42.324 55.354 72.864 95.754
1340.640 124.084 155.954 186.704 210.104 222.214 222.704 211.974 188.804 153.884 115.124
1359.930 82.304 58.774 43.044 32.944 26.474 22.414 20.044 18.734 18.154 18.154
1379.219 18.504 18.774 18.714 18.164 17.484 16.784 15.514 13.724 12.024 10.734
1398.509 9.764 9.134 8.754 8.534 8.584 8.724 8.924 9.154 9.284 9.334
1417.799 9.234 9.004 8.704 8.334 8.044 7.884 7.924 8.194 8.534 9.004
1437.089 9.694 10.524 11.534 12.824 14.414 16.344 18.594 21.094 23.794 26.614
1456.378 29.314 31.534 33.074 33.954 34.184 33.804 33.064 32.264 31.364 30.274
1475.668 29.014 27.574 25.914 24.084 22.114 20.154 18.664 17.874 17.704 17.964
1494.958 18.314 18.424 18.214 17.794 17.454 17.344 17.604 18.354 19.764 22.024
1514.248 25.414 30.314 36.934 45.564 56.824 70.524 87.124 106.544 128.174 150.934
1533.538 172.854 191.094 202.144 204.364 198.034 184.424 164.704 140.104 113.214 88.124
1552.827 68.574 54.464 44.854 38.264 33.784 31.024 29.444 28.714 28.644 29.154
1572.117 30.164 31.524 33.104 34.644 35.814 36.504 36.624 35.894 34.234 31.814
1591.407 28.864 25.664 22.374 19.104 16.304 13.944 11.984 10.554 9.454 8.584
1610.697 8.014 7.624 7.284 7.124 7.044 6.944 6.814 6.664 6.524 6.444
1629.986 6.424 6.534 6.604 6.574 6.554 6.394 6.154 5.934 5.644 5.274
1649.276 4.914 4.524 4.114 3.764 3.474 3.254 3.104 2.924 2.704 2.574
1668.566 2.434 2.324 2.234 2.124 1.994 1.974 1.924 1.794 1.794 1.794
1687.856 1.794 1.844 1.824 1.794 1.824 1.844 1.894 1.894 1.804 1.774
1707.146 1.734 1.644 1.564 1.474 1.354 1.284 1.254 1.2319 1.254 1.254
1726.435 1.2104 1.0956 1.0486 1.0894 1.0373 0.9743 0.9751 1.0047 1.0145 0.9755
1745.725 0.9946 1.0595 1.0192 0.9622 0.9617 0.9617 1.0545 1.1701 1.274 1.454
1765.015 1.654 1.854 2.034 2.184 2.424 2.634 2.734 2.794 2.794 2.724
1784.305 2.624 2.534 2.444 2.364 2.334 2.294 2.204 2.094 2.004 1.854
1803.594 1.644 1.454 1.314 1.1689 1.0292 0.8503 0.7429 0.6915 0.5998 0.5946
1822.884 0.5659 0.5613 0.5173 0.4576 0.525 0.5087 0.4554 0.4419 0.4702 0.5207
1842.174 0.5437 0.5085 0.5057 0.5758 0.5629 0.5787 0.6588 0.6484 0.699 0.7027
1861.464 0.6455 0.6855 0.7079 0.7064 0.6712 0.6571 0.6466 0.6376 0.6465 0.6711
1880.754 0.717 0.7912 0.891 0.9906 1.1288 1.2295 1.304 1.484 1.714 1.964
1900.043 2.194 2.324 2.504 2.604 2.604 2.564 2.424 2.224 1.964 1.734
1919.333 1.504 1.2095 0.9314 0.7697 0.7271 0.6796 0.6177 0.6084 0.5495 0.465
1938.623 0.4608 0.4594 0.4562 0.4277 0.4568 0.4846 0.4254 0.369 0.32877 0.3671
1957.913 0.4544 0.4587 0.3983 0.4323 0.4565 0.45 0.4926 0.5402 0.6109 0.6634
1977.202 0.7206 0.7485 0.7276 0.7389 0.7746 0.7852 0.7751 0.7487 0.751 0.7687
1996.492 0.7657 0.697 0.5629 0.5327 0.5337 0.5039 0.5074 0.4597 0.4257 0.4348
2015.782 0.407 0.4013 0.4274 0.4256 0.3916 0.3704 0.3719 0.3611 0.3592 0.3581
2035.072 0.3911 0.41 0.34266 0.3516 0.3913 0.34393 0.2949 0.33067 0.4095 0.4322
2054.362 0.4241 0.4572 0.4847 0.4915 0.5449 0.5463 0.4995 0.5175 0.5189 0.471
2073.651 0.4202 0.4048 0.4148 0.4227 0.4364 0.4399 0.4284 0.4129 0.3534 0.3522
2092.941 0.3712 0.30328 0.224 0.2245 0.29849 0.27395 0.2319 0.2628 0.24538 0.251211
2112.231 0.3001 0.2945 0.3511 0.3742 0.30662 0.32054 0.29092 0.251453 0.25428 0.243842
2131.521 0.27557 0.30395 0.32875 0.349 0.3679 0.33019 0.28472 0.28526 0.23941 0.2273
2150.810 0.28417 0.3435 0.33387 0.31935 0.3611 0.32889 0.29846 0.354 0.31747 0.29155
2170.100 0.32771 0.34286 0.34016 0.29293 0.28995 0.27956 0.28499 0.30904 0.27689 0.31328
2189.390 0.3806 0.3449 0.28996 0.3528 0.4531 0.4321 0.4127 0.4321 0.473 0.5179
2208.680 0.51 0.4544 0.4779 0.5187 0.4732 0.5059 0.5628 0.5362 0.4321 0.4302
2227.970 0.5379 0.5068 0.4568 0.4031 0.3568 0.4146 0.4323 0.4043 0.379 0.3652
2247.259 0.31369 0.3807 0.4657 0.4388 0.4617 0.4601 0.4758 0.4914 0.4592 0.427
2266.549 0.3908 0.4247 0.4997 0.5148 0.5402 0.5544 0.5199 0.5125 0.5018 0.4753
2285.839 0.4611 0.4646 0.4048 0.3962 0.4705 0.4786 0.4418 0.4367 0.4271 0.3641
2305.129 0.3871 0.3842 0.33505 0.3639 0.364 0.32073 0.3538 0.31315 0.26711 0.358
2324.418 0.4262 0.4334 0.3703 0.33688 0.31027 0.32184 0.3912 0.3994 0.3765 0.3537
2343.708 0.3657 0.3972 0.4234 0.4128 0.3872 0.3533 0.3893 0.4648 0.437 0.442
2362.998 0.4981 0.5412 0.58 0.5942 0.6033 0.6823 0.6847 0.6561 0.736 0.7693
2382.288 0.7149 0.731 0.6838 0.6503 0.7283 0.7333 0.7707 0.8613 0.8925 0.8899
2401.578 0.9256 0.9301 0.9226 0.8876 0.9267 1.0407 1.0156 0.9479 0.8502 0.7287
2420.867 0.749 0.7357 0.6371 0.5883 0.5574 0.5274 0.5466 0.6287 0.7253 0.7123
2440.157 0.6794 0.757 0.8531 0.9604 1.015 1.0919 1.244 1.274 1.294 1.374
2459.447 1.374 1.334 1.254 1.254 1.284 1.2026 1.0518 0.9524 0.9203 0.8942
2478.737 0.8 0.694 0.6665 0.623 0.5975 0.6401 0.6336 0.5071 0.4974 0.6064
2498.026 0.6356 0.5906 0.4478 0.3917 0.4858 0.5673 0.5959 0.5744 0.5901 0.5403
2517.316 0.4606 0.4731 0.4382 0.3656 0.4559 0.4819 0.3963 0.4548 0.5425 0.5553
2536.606 0.6081 0.6657 0.7116 0.7454 0.7413 0.8387 0.9623 1.0115 1.0748 1.0348
2555.896 0.9945 0.9882 0.8897 0.8598 0.8493 0.7667 0.7568 0.8387 0.8072 0.7783
2575.186 0.8313 0.8319 0.8235 0.8117 0.7841 0.8026 0.8095 0.7583 0.7674 0.7811
2594.475 0.693 0.6342 0.5838 0.6089 0.6835 0.5972 0.5873 0.6179 0.6043 0.7
2613.765 0.6743 0.615 0.6252 0.6222 0.5954 0.5628 0.6099 0.5762 0.5543 0.4959
2633.055 0.4427 0.505 0.5223 0.5051 0.4761 0.485 0.4571 0.388 0.3779 0.4274
2652.345 0.5172 0.5154 0.4651 0.4562 0.5005 0.5477 0.6624 0.7641 0.7747 0.8171
2671.634 0.9008 0.9957 0.9642 1.0411 1.2347 1.344 1.484 1.664 1.634 1.634
2690.924 1.714 1.744 1.724 1.614 1.514 1.484 1.454 1.394 1.324 1.1635
2710.214 1.1259 1.1168 1.0222 0.9034 0.8065 0.784 0.8149 0.8225 0.8312 0.7798
2729.504 0.7053 0.7541 0.7451 0.6909 0.6403 0.698 0.8234 0.8076 0.7788 0.9201
2748.794 0.9467 0.8027 0.723 0.7577 0.7869 0.7341 0.6299 0.5424 0.5288 0.5424
2768.083 0.5133 0.494 0.4299 0.4182 0.4676 0.4665 0.4513 0.4606 0.5076 0.6007
2787.373 0.6869 0.6729 0.7296 0.7971 0.7814 0.8098 0.8678 0.8643 0.871 0.9721
2806.663 1.0306 1.0128 1.0982 1.1464 1.0511 0.9833 1.1343 1.344 1.344 1.314
2825.953 1.394 1.524 1.594 1.604 1.574 1.654 1.754 1.954 2.084 2.124
2845.242 2.274 2.384 2.474 2.644 2.934 3.164 3.314 3.554 3.904 4.144
2864.532 4.374 4.754 5.024 5.324 5.624 5.764 5.854 5.894 5.774 5.484
2883.822 5.214 4.904 4.574 4.184 3.814 3.594 3.394 3.274 3.184 3.164
2903.112 3.134 3.124 3.184 3.144 3.224 3.464 3.624 3.884 4.294 4.704
2922.401 5.324 6.084 6.834 7.664 8.454 9.114 9.504 9.454 9.264 8.904
2941.691 8.154 7.304 6.634 6.094 5.574 5.244 5.134 5.064 5.094 5.314
2960.981 5.564 5.804 5.954 5.934 5.954 6.004 6.004 6.074 6.164 6.334
2980.271 6.574 6.964 7.334 7.554 7.784 7.894 7.754 7.524 7.224 6.804
2999.561 6.234 5.664 5.054 4.594 4.204 3.834 3.634 3.534 3.404 3.344
3018.850 3.484 3.464 3.364 3.514 3.544 3.494 3.544 3.514 3.444 3.364
3038.140 3.374 3.364 3.444 3.634 3.804 3.964 4.244 4.734 5.224 5.624
3057.430 6.234 6.854 7.414 7.864 8.094 8.214 8.294 8.154 7.664 7.054
3076.720 6.404 5.824 5.324 4.884 4.454 4.154 4.224 4.344 4.364 4.394
3096.009 4.504 4.524 4.254 4.004 3.664 3.204 2.854 2.414 1.964 1.694
3115.299 1.524 1.294 1.0422 0.9219 0.9449 0.8869 0.7853 0.7967 0.7102 0.6606
3134.589 0.6505 0.5816 0.5437 0.5228 0.3973 0.26165 0.3695 0.4434 0.399 0.5656
3153.879 0.6492 0.598 0.6408 0.5072 0.4622 0.5131 0.4716 0.6166 0.8174 0.9304
3173.169 0.9302 0.8943 0.9151 0.7975 0.7632 0.7948 0.6605 0.6141 0.76 0.802
3192.458 0.6652 0.5448 0.5785 0.5642 0.5218 0.5165 0.3526 0.3944 0.30476 0.1843
3211.748 0.29381 0.1716 0.045 0.23839 0.3447 0.32493 0.4012 0.4616 0.3717 0.1943
3231.038 0.2263 0.32981 0.1894 0.127 0.249095 0.29307 0.1571 0.122 0.23584 0.32718
3250.328 0.26724 0.2077 0.30916 0.2692 0.1883 0.2279 0.32866 0.287 0.2895 0.34327
3269.617 0.2809 0.30312 0.2873 0.245213 0.31688 0.2128 0.24806 0.3669 0.3451 0.3921
3288.907 0.3929 0.28666 0.2228 0.27093 0.30703 0.29824 0.1968 0.101 0.173 0.2632
3308.197 0.30832 0.252198 0.2248 0.32724 0.31355 0.2165 0.137 0.1902 0.2076 0.1495
3327.487 0.058 0.169 0.251392 0.1515 0.2036 0.14 0.1993 0.3761 0.27006 0.1986
3346.777 0.27493 0.2257 0.114 0.133 0.28689 0.23854 0.042 0.077 0.1649 0.081
3366.066 0.111 0.27345 0.32616 0.2124 0.099 0.133 0.132 0.053 0.101 0.259
3385.356 0.32794 0.30635 0.209 0.26141 0.32191 0.25574 0.3504 0.4801 0.4099 0.3708
3404.646 0.3774 0.29124 0.223 0.1565 0.023 0.026 0.248761 0.2761 0.142 0.1459
3423.936 0.1892 0.2114 0.28907 0.28662 0.2871 0.2269 0.1555 0.2195 0.1666 0.092
3443.225 0.053 0.058 0.1 0.161 0.252051 0.3682 0.3527 0.249278 0.356 0.4532
3462.515 0.4143 0.3656 0.30455 0.3444 0.4134 0.3888 0.27349 0.1711 0.2234 0.23491
3481.805 0.1503 0.1462 0.2129 0.2401 0.2299 0.2204 0.2177 0.116 0.107 0.1572
3501.095 0.139 0.127 0.1987 0.30666 0.3783 0.31704 0.1629 0.081 0.203 0.4194
3520.385 0.4058 0.3377 0.138 0.023 0.1762 0.27062 0.27672 0.243296 0.1821 0.104
3539.674 0.1986 0.28899 0.23769 0.1825 0.097 0.122 0.2064 0.1639 0.1811 0.30712
3558.964 0.253133 0.1998 0.2201 0.26475 0.28211 0.2076 0.3659 0.4527 0.27221 0.26342
3578.254 0.26018 0.108 0.073 0.078 0 0.061 0.1943 0.1788 0.1858 0.29565
3597.544 0.30925 0.31718 0.34242 0.2404 0.1685 0.1537 0.136 0.2189 0.2275 0.147
3616.833 0.1906 0.26546 0.23527 0.2051 0.1922 0.187 0.2806 0.23774 0.1448 0.1612
3636.123 0.074 0.095 0.1823 0.2275 0.1892 0.089 0.131 0.2012 0.29195 0.2232
3655.413 0.247487 0.28494 0.31677 0.32216 0.28519 0.4015 0.30354 0.129 0.066 0.118
3674.703 0.1778 0.253045 0.3866 0.4206 0.27757 0.169 0.26991 0.3861 0.4029 0.3812
3693.993 0.32388 0.3487 0.3584 0.31593 0.26675 0.27061 0.3646 0.25956 0.1729 0.1809
3713.282 0.1891 0.2675 0.30771 0.3658 0.32577 0.29804 0.4379 0.4257 0.26808 0.243348
3732.572 0.29723 0.33499 0.3726 0.3877 0.3938 0.4212 0.3549 0.28456 0.34205 0.34227
3751.862 0.3913 0.4709 0.4582 0.3657 0.31729 0.31967 0.2331 0.3597 0.5665 0.4653
3771.152 0.28767 0.2699 0.3036 0.32008 0.244271 0.128 0.192 0.27484 0.31055 0.3447
3790.441 0.28534 0.1989 0.23736 0.250504 0.25256 0.2052 0.095 0.24437 0.4455 0.3551
3809.731 0.1762 0.24283 0.4272 0.4028 0.24271 0.27836 0.25581 0.171 0.183 0.248843
3829.021 0.28581 0.2154 0.246734 0.2128 0.27716 0.4157 0.29906 0.23678 0.32288 0.3846
3848.311 0.2332 0.18 0.2323 0.229 0.29656 0.25509 0.3053 0.359 0.29117 0.28335
3867.601 0.4386 0.6369 0.465 0.26864 0.3745 0.5375 0.5572 0.5264 0.3937 0.4247
3886.890 0.5499 0.5364 0.5221 0.5219 0.4736 0.25804 0.28574 0.405 0.3709 0.3823
3906.180 0.3678 0.4084 0.4924 0.5339 0.5352 0.3717 0.2001 0.1803 0.227 0.3786
3925.470 0.3592 0.418 0.4676 0.31556 0.249685 0.26536 0.28424 0.34225 0.4138 0.3733
3944.760 0.4737 0.4912 0.446 0.5238 0.4258 0.29882 0.349 0.33197 0.345 0.3441
3964.049 0.29854 0.3814 0.4261 0.4665 0.412 0.3465 0.4249 0.4985 0.422 0.3658
3983.339 0.4301 0.4252 0.3719 0.25742 0.1915 0.236 0.29646 0.30716 0.3076 0.23555
##END=
