##TITLE=1,1,2,2-Tetramethylcyclopropane
##JCAMP-DX=4.24
##DATA TYPE=INFRARED SPECTRUM
##ORIGIN=NIST Mass Spectrometry Data Center
##OWNER=NIST Standard Reference Data Program
Collection (C) 2018 copyright by the U.S. Secretary of Commerce
on behalf of the United States of America. All rights reserved.
##CAS REGISTRY NO=4127-47-3
##MOLFORM=C 7 H 14
##$NIST SOURCE=MSDC-IR
##SPECTROMETER/DATA SYSTEM=HP-GC/MS/IRD
##STATE=gas
##XUNITS=1/CM
##YUNITS=ABSORBANCE
##XFACTOR=1.0
##YFACTOR=0.000003900
##DELTAX=4.0
##FIRSTX=550.0
##LASTX=3846.0
##FIRSTY=0.000113
##MAXX=3846
##MINX=550
##MAXY=0.039
##MINY=0
##NPOINTS=825
##XYDATA=(X++(Y..Y))
550.0 29 42 70 37 18 17 3 1 14 57
590.0 85 60 61 77 73 60 63 62 66 59
630.0 58 83 86 99 113 103 101 101 90 82
670.0 77 72 74 90 86 71 58 56 66 71
710.0 79 75 66 62 64 69 80 65 47 57
750.0 55 71 83 78 79 79 80 78 78 87
790.0 86 66 84 97 85 102 112 111 133 157
830.0 190 231 266 289 314 346 364 333 266 224
870.0 201 174 147 118 103 94 88 100 107 118
910.0 136 169 237 339 454 546 619 695 703 672
950.0 649 569 456 356 286 242 214 196 184 162
990.0 148 160 184 213 252 309 341 342 355 344
1030.0 310 289 246 195 161 132 112 112 130 130
1070.0 118 129 145 177 216 242 288 351 418 492
1110.0 568 619 654 677 669 638 571 494 417 339
1150.0 280 231 198 172 171 182 193 234 292 345
1190.0 397 455 501 508 487 444 376 307 239 186
1230.0 154 138 118 102 103 105 112 114 119 122
1270.0 131 147 159 163 168 178 183 178 172 165
1310.0 160 159 156 156 163 164 166 172 181 197
1350.0 225 275 353 474 649 838 1010 1154 1256 1283
1390.0 1209 1140 933 651 489 400 364 369 415 516
1430.0 676 872 1102 1360 1631 1868 1990 2015 1959 1871
1470.0 1775 1592 1372 1175 986 811 668 550 457 379
1510.0 319 274 235 198 176 168 156 137 126 124
1550.0 123 115 109 114 112 113 116 118 125 132
1590.0 133 135 146 147 153 158 155 159 165 167
1630.0 160 148 143 137 129 119 117 115 106 104
1670.0 102 99 95 90 85 84 78 74 73 74
1710.0 76 63 54 58 61 56 47 44 46 50
1750.0 54 57 60 67 69 68 76 81 80 85
1790.0 79 70 66 61 61 64 61 56 56 54
1830.0 53 57 55 51 50 51 52 51 53 56
1870.0 52 54 57 57 56 57 61 63 64 63
1910.0 55 50 49 47 45 43 47 52 49 50
1950.0 54 60 71 73 66 60 59 62 58 54
1990.0 49 47 53 56 58 65 77 87 95 104
2030.0 108 112 122 124 116 104 91 76 62 52
2070.0 50 45 40 37 33 29 31 32 26 26
2110.0 29 22 21 28 28 31 35 34 34 37
2150.0 33 30 31 28 26 26 24 18 16 22
2190.0 26 28 31 29 28 30 31 29 29 29
2230.0 25 29 31 29 26 24 24 25 28 27
2270.0 22 19 17 21 19 14 19 23 23 27
2310.0 31 30 26 18 12 7 13 16 10 13
2350.0 21 20 14 17 22 25 21 16 17 21
2390.0 30 35 38 40 34 27 23 19 19 18
2430.0 18 23 25 22 23 25 24 28 28 21
2470.0 25 30 34 30 30 33 29 23 20 20
2510.0 24 29 23 16 15 14 13 13 8 1
2550.0 6 11 9 7 15 23 27 25 29 35
2590.0 33 34 23 19 26 27 28 28 29 28
2630.0 26 22 21 29 30 36 45 53 55 46
2670.0 46 52 56 58 59 58 66 81 92 100
2710.0 115 130 159 205 255 312 374 436 473 488
2750.0 481 468 440 387 351 337 329 327 338 348
2790.0 362 375 399 442 484 532 591 657 737 816
2830.0 881 949 1030 1123 1242 1429 1736 2219 2911 3737
2870.0 4516 5229 5889 6314 6488 6579 6545 6394 6285 6302
2910.0 6503 6865 7318 7849 8502 9197 9692 9915 10000 9907
2950.0 9393 8476 7574 6921 6496 6339 6429 6694 7003 7234
2990.0 7514 7187 6019 4948 4058 3151 2324 1691 1308 1172
3030.0 1227 1407 1625 1800 1953 2030 1987 1848 1638 1399
3070.0 1102 836 668 585 553 531 517 520 520 523
3110.0 521 492 474 462 440 418 386 348 318 291
3150.0 266 228 197 183 164 149 133 100 85 79
3190.0 70 65 55 50 56 61 60 54 51 57
3230.0 56 62 58 44 49 62 57 55 50 43
3270.0 50 43 37 46 49 53 37 28 39 44
3310.0 43 45 43 46 56 61 56 55 55 50
3350.0 58 62 55 54 52 42 43 54 51 39
3390.0 50 52 31 19 21 32 30 27 44 54
3430.0 39 17 15 31 30 24 24 25 27 29
3470.0 25 21 23 27 21 15 19 31 29 20
3510.0 29 33 31 30 24 18 18 22 21 20
3550.0 18 18 19 17 10 11 23 37 36 20
3590.0 13 23 32 41 38 27 30 31 32 27
3630.0 18 18 23 28 17 15 14 14 11 0
3670.0 2 5 7 21 26 29 30 26 24 14
3710.0 11 11 16 23 25 24 19 13 1 6
3750.0 14 15 25 26 28 31 35 40 42 35
3790.0 32 36 37 37 35 35 36 41 57 67
3830.0 59 58 64 66 68
##END=
