##TITLE=p-Cyanobenzylidene p-octyloxyaniline
##JCAMP-DX=4.24
##DATA TYPE=INFRARED SPECTRUM
##ORIGIN=EPA-IR VAPOR PHASE LIBRARY
##OWNER=SRD/NIST
Collection (C) 2018 copyright by the U.S. Secretary of Commerce
on behalf of the United States of America. All rights reserved.
##CAS REGISTRY NO=41335-35-7
##MOLFORM=C 22 H 26 N 2 O
##$NIST SOURCE=MSDC-IR
##STATE=gas
##XUNITS=1/CM
##YUNITS=ABSORBANCE
##XFACTOR=1.
##YFACTOR=0.001
##DELTAX=1.92898
##FIRSTX=549.8
##LASTX=4000.7
##FIRSTY=3.162
##MAXX=4000.7
##MINX=549.759
##MAXY=0.024822
##MINY=0
##NPOINTS=1790
##XYDATA=(X++(Y..Y))
549.759 3.162 3.402 3.482 3.692 3.352 2.782 2.262 2.032 2.092 1.782
569.049 1.472 1.372 1.172 1.142 1.292 1.122 0.7774 0.8175 0.8495 0.7678
588.339 0.9117 0.9883 0.7364 0.7048 0.9086 0.7684 0.8399 0.891 0.6347 0.4858
607.628 0.5351 0.6538 0.6454 0.4319 0.3787 0.399 0.4937 0.465 0.4327 0.6267
626.918 0.5222 0.3668 0.3994 0.5412 0.3855 0.12438 0.2547 0.3793 0.3537 0.424
646.208 0.3123 0.12714 0.1916 0.3806 0.4543 0.3282 0.2321 0.2904 0.2635 0.2277
665.498 0.2902 0.2887 0.3595 0.3544 0.1687 0.2266 0.5182 0.5781 0.3974 0.3387
684.787 0.3021 0.305 0.4416 0.4403 0.4559 0.5132 0.5525 0.6622 0.6873 0.7191
704.077 0.8386 0.7983 0.6606 0.8175 0.9248 0.9012 0.9455 1.0051 1.122 1.0616
723.367 0.9639 0.8814 0.8658 0.9738 1.0255 0.9929 0.8788 0.8265 0.803 0.8447
742.657 0.9208 0.8375 0.7759 0.7191 0.6417 0.875 1.0604 0.8811 0.7607 0.9196
761.947 1.0251 1.092 1.172 1.122 1.112 1.312 1.382 1.282 1.392 1.412
781.236 1.412 1.372 1.412 1.392 1.492 1.612 1.542 1.742 1.652 1.662
800.526 2.002 1.932 1.652 1.742 1.912 1.962 2.192 2.482 2.662 2.892
819.816 3.282 3.712 4.142 4.752 5.342 5.792 6.212 6.642 6.852 6.712
839.106 6.482 6.302 5.952 5.452 4.832 4.232 3.902 3.582 3.192 2.702
858.395 2.372 2.322 2.172 2.082 2.092 1.982 1.822 1.812 2.192 2.402
877.685 2.512 2.632 2.532 2.252 2.022 1.892 1.582 1.532 1.572 1.422
896.975 1.362 1.292 1.172 1.172 1.152 1.172 1.272 1.232 1.182 1.252
916.265 1.0564 0.8861 1.142 1.302 1.222 1.142 1.0465 0.9746 1.112 1.182
935.555 1.162 1.192 1.292 1.352 1.382 1.372 1.362 1.292 1.352 1.542
954.844 1.482 1.492 1.722 1.882 1.872 2.012 2.062 2.002 2.022 2.122
974.134 2.162 2.152 2.332 2.382 2.362 2.342 2.222 2.432 2.412 2.252
993.424 2.382 2.432 2.402 2.382 2.572 2.692 2.852 3.002 3.012 3.262
1012.714 3.472 3.682 4.082 4.582 4.762 4.362 4.022 4.122 4.202 4.352
1032.003 4.712 4.712 4.742 4.672 4.362 4.242 4.142 3.912 3.512 3.462
1051.293 3.472 3.142 2.702 2.462 2.412 2.622 2.522 2.042 2.182 2.232
1070.583 1.882 1.542 1.482 1.612 1.542 1.742 1.672 1.342 1.472 1.652
1089.873 1.612 1.452 1.652 1.762 1.482 1.762 2.082 1.962 1.672 1.622
1109.163 1.632 1.252 1.182 1.292 1.0108 1.112 1.182 1.222 1.0078 0.9969
1128.452 1.0465 0.9256 1.202 1.082 1.172 1.132 1.262 1.182 0.8644 1.132
1147.742 1.302 1.402 1.802 2.072 2.532 3.632 4.792 5.392 4.892 4.182
1167.032 3.982 4.322 4.692 4.172 3.122 2.712 2.932 2.972 3.522 4.612
1186.322 5.622 6.282 6.162 5.512 4.872 4.412 4.182 3.982 3.982 4.472
1205.611 4.902 5.282 5.832 6.242 6.452 7.402 8.382 9.332 11.042 12.572
1224.901 13.822 15.512 17.132 18.272 19.702 21.282 22.292 22.992 23.292 22.812
1244.191 21.872 20.342 18.202 15.942 13.732 11.742 10.222 9.042 8.092 7.312
1263.481 6.882 6.812 6.912 6.982 7.122 7.312 7.612 7.952 8.022 8.032
1282.771 7.962 7.802 7.442 6.922 6.552 6.242 5.842 5.462 5.262 5.252
1302.060 5.262 5.182 5.042 4.702 4.152 3.552 3.042 2.762 2.572 2.352
1321.350 2.152 1.992 1.932 1.912 1.832 1.772 1.762 1.732 1.712 1.722
1340.640 1.752 1.792 1.822 1.872 1.902 1.932 2.032 2.152 2.282 2.352
1359.930 2.342 2.322 2.252 2.112 2.022 2.002 1.942 1.892 1.952 2.142
1379.219 2.312 2.412 2.552 2.642 2.712 2.652 2.452 2.232 2.072 1.932
1398.509 1.762 1.652 1.582 1.582 1.582 1.572 1.552 1.502 1.452 1.412
1417.799 1.392 1.362 1.342 1.352 1.312 1.302 1.352 1.402 1.422 1.512
1437.089 1.632 1.712 1.802 1.912 2.102 2.262 2.402 2.602 2.772 2.962
1456.378 3.222 3.432 3.602 3.772 4.082 4.502 5.082 5.812 6.422 6.722
1475.668 6.572 6.032 5.382 4.922 4.812 5.022 5.622 6.632 8.132 10.332
1494.958 13.362 17.072 20.832 23.722 24.822 23.902 21.382 17.732 13.522 9.682
1514.248 6.882 5.102 4.022 3.382 2.902 2.552 2.352 2.182 2.002 1.842
1533.538 1.712 1.612 1.542 1.522 1.502 1.462 1.452 1.442 1.432 1.502
1552.827 1.592 1.642 1.752 1.922 2.082 2.182 2.292 2.382 2.482 2.612
1572.117 2.722 2.872 3.062 3.192 3.152 3.122 3.292 3.532 3.812 4.222
1591.407 4.612 4.832 4.852 4.762 4.462 3.912 3.452 3.082 2.782 2.622
1610.697 2.612 2.782 3.082 3.482 4.042 4.812 5.822 6.992 7.932 8.252
1629.986 7.982 7.112 5.882 4.762 3.892 3.212 2.762 2.432 2.182 2.022
1649.276 1.842 1.722 1.592 1.472 1.392 1.292 1.242 1.242 1.192 1.092
1668.566 1.0462 1.0281 0.9998 0.9421 0.8838 0.8993 0.9241 0.8634 0.7972 0.7798
1687.856 0.7882 0.817 0.7556 0.6818 0.6744 0.7055 0.7047 0.6483 0.6456 0.6116
1707.146 0.6352 0.656 0.6254 0.6457 0.6313 0.5988 0.5721 0.5537 0.5902 0.6178
1726.435 0.5877 0.5789 0.6205 0.6728 0.661 0.6375 0.6362 0.6506 0.6449 0.6554
1745.725 0.6549 0.5942 0.6276 0.6311 0.5381 0.5213 0.5356 0.4985 0.531 0.5732
1765.015 0.5085 0.4366 0.4856 0.5113 0.4879 0.519 0.5426 0.5928 0.602 0.5773
1784.305 0.5571 0.5584 0.5871 0.5805 0.5843 0.5678 0.5397 0.5638 0.5755 0.6237
1803.594 0.6463 0.6288 0.5805 0.5623 0.5875 0.5133 0.4795 0.4958 0.495 0.4969
1822.884 0.4994 0.4985 0.4345 0.4559 0.4916 0.4525 0.4767 0.5138 0.5173 0.5158
1842.174 0.5076 0.4705 0.4661 0.4884 0.5244 0.5417 0.5409 0.5334 0.5118 0.4916
1861.464 0.5359 0.6005 0.642 0.6729 0.6885 0.6766 0.6201 0.6008 0.5978 0.5908
1880.754 0.6096 0.6021 0.5791 0.6225 0.6971 0.6841 0.6445 0.6432 0.6522 0.6412
1900.043 0.6344 0.6529 0.6396 0.6345 0.6848 0.748 0.7481 0.6819 0.6572 0.6692
1919.333 0.6488 0.5959 0.5833 0.6292 0.6464 0.633 0.6036 0.6146 0.5941 0.5852
1938.623 0.5972 0.6046 0.6431 0.6169 0.564 0.5483 0.5301 0.4862 0.4811 0.5252
1957.913 0.5375 0.5246 0.5086 0.4901 0.5348 0.5598 0.5107 0.4899 0.4925 0.5245
1977.202 0.6022 0.5676 0.5409 0.5381 0.5418 0.5552 0.5427 0.5302 0.5046 0.5685
1996.492 0.5719 0.5843 0.6017 0.529 0.5457 0.5779 0.5992 0.5875 0.5989 0.6298
2015.782 0.6217 0.6522 0.6372 0.5858 0.6026 0.5837 0.5413 0.592 0.5557 0.4811
2035.072 0.5096 0.5607 0.5833 0.5748 0.5407 0.5204 0.5679 0.5918 0.5623 0.5569
2054.362 0.5173 0.5023 0.5444 0.5635 0.5753 0.5945 0.5903 0.5732 0.5775 0.5679
2073.651 0.5269 0.4849 0.4919 0.5246 0.5384 0.5696 0.5592 0.4886 0.4844 0.4844
2092.941 0.4656 0.505 0.5323 0.503 0.4248 0.4018 0.4088 0.4009 0.358 0.3519
2112.231 0.4018 0.4707 0.5151 0.4608 0.386 0.3634 0.363 0.3718 0.3894 0.3922
2131.521 0.3914 0.3955 0.4087 0.3951 0.3947 0.3674 0.3623 0.3643 0.3256 0.3508
2150.810 0.3678 0.3462 0.3627 0.3794 0.3823 0.3502 0.3519 0.4144 0.4061 0.3666
2170.100 0.39 0.4096 0.4079 0.3858 0.3322 0.3659 0.3814 0.3518 0.3382 0.3399
2189.390 0.3381 0.3233 0.3547 0.3874 0.3687 0.3683 0.3989 0.4269 0.4686 0.5338
2208.680 0.5424 0.5178 0.5233 0.5372 0.6098 0.6482 0.7358 0.9573 1.192 1.522
2227.970 1.992 2.392 2.602 2.492 2.012 1.432 1.0108 0.796 0.658 0.582
2247.259 0.5938 0.5229 0.446 0.4278 0.4728 0.5117 0.4975 0.4388 0.3549 0.3042
2266.549 0.3531 0.4128 0.4449 0.425 0.3784 0.3844 0.3859 0.4505 0.4473 0.3997
2285.839 0.4381 0.4803 0.4913 0.4981 0.506 0.44 0.4206 0.4732 0.4501 0.4108
2305.129 0.4202 0.4271 0.3959 0.4062 0.4646 0.4463 0.3835 0.3769 0.4088 0.4157
2324.418 0.3984 0.4408 0.4912 0.4897 0.5016 0.475 0.4279 0.465 0.4655 0.4359
2343.708 0.4961 0.5505 0.5651 0.5463 0.4837 0.4447 0.4287 0.4025 0.3885 0.3837
2362.998 0.3931 0.4493 0.531 0.535 0.4945 0.4869 0.4732 0.4767 0.4867 0.4742
2382.288 0.396 0.3738 0.4012 0.4123 0.4621 0.5383 0.5439 0.5072 0.4388 0.3911
2401.578 0.4046 0.4119 0.4647 0.4991 0.4648 0.4774 0.4574 0.3753 0.389 0.4214
2420.867 0.5117 0.5422 0.4914 0.4381 0.4298 0.4749 0.4973 0.5324 0.5322 0.5179
2440.157 0.4764 0.4599 0.4763 0.4944 0.5773 0.5764 0.5698 0.532 0.429 0.4508
2459.447 0.4659 0.4682 0.5484 0.6007 0.5961 0.5619 0.5465 0.5145 0.485 0.5236
2478.737 0.5285 0.4946 0.5177 0.5726 0.5807 0.5163 0.4646 0.4972 0.479 0.4937
2498.026 0.4821 0.4447 0.5297 0.5811 0.5285 0.4854 0.4951 0.5659 0.635 0.6064
2517.316 0.5937 0.6478 0.6717 0.589 0.6002 0.6768 0.6666 0.6666 0.6502 0.6328
2536.606 0.5862 0.4753 0.5322 0.5888 0.5101 0.4759 0.4981 0.5404 0.5492 0.5246
2555.896 0.5091 0.5517 0.5729 0.5247 0.5075 0.5293 0.5611 0.5657 0.5835 0.5187
2575.186 0.4566 0.4279 0.4585 0.458 0.422 0.4798 0.5193 0.5565 0.5421 0.5389
2594.475 0.5492 0.5307 0.5033 0.4796 0.5412 0.5633 0.5299 0.5149 0.4136 0.4045
2613.765 0.4412 0.492 0.5372 0.4786 0.4753 0.5232 0.5374 0.5497 0.519 0.5027
2633.055 0.4778 0.4532 0.4739 0.4396 0.3472 0.3134 0.3699 0.4469 0.5228 0.5277
2652.345 0.5081 0.4811 0.4946 0.538 0.5123 0.4836 0.4841 0.4767 0.5637 0.6688
2671.634 0.5986 0.4863 0.5299 0.5236 0.4752 0.548 0.6024 0.6755 0.6996 0.6894
2690.924 0.5884 0.5039 0.6013 0.64 0.6091 0.5722 0.508 0.5522 0.6077 0.5857
2710.214 0.5602 0.5758 0.6583 0.7451 0.7788 0.7355 0.7497 0.7173 0.6431 0.643
2729.504 0.5776 0.6076 0.7359 0.7044 0.7011 0.7334 0.6976 0.6861 0.741 0.8659
2748.794 0.8655 0.7952 0.801 0.8074 0.8107 0.7647 0.7451 0.7602 0.7526 0.7646
2768.083 0.7703 0.7376 0.7513 0.7547 0.6785 0.6849 0.7462 0.7968 0.8504 0.8509
2787.373 0.8007 0.7912 0.8256 0.8882 0.8871 0.9221 1.005 0.9746 0.9617 0.9402
2806.663 0.9124 0.9722 1.082 1.142 1.202 1.252 1.292 1.402 1.382 1.392
2825.953 1.562 1.642 1.612 1.762 1.942 2.022 2.172 2.332 2.512 2.822
2845.242 3.032 3.202 3.702 4.232 4.722 5.412 6.192 6.912 7.502 7.942
2864.532 8.252 8.422 8.462 8.422 8.462 8.402 8.312 8.242 8.092 7.922
2883.822 7.672 7.402 7.112 6.822 6.602 6.472 6.342 6.282 6.382 6.532
2903.112 6.762 7.072 7.532 8.022 8.602 9.252 9.802 10.552 11.322 12.032
2922.401 12.992 14.102 15.082 16.032 17.072 17.782 18.102 18.142 17.852 17.312
2941.691 16.682 15.952 15.152 14.352 13.512 12.722 11.952 11.282 10.832 10.562
2960.981 10.422 10.322 10.102 9.802 9.462 8.962 8.212 7.332 6.532 5.652
2980.271 4.872 4.292 3.862 3.552 3.182 2.912 2.772 2.612 2.452 2.272
2999.561 2.042 1.922 1.902 1.802 1.712 1.642 1.522 1.542 1.462 1.362
3018.850 1.372 1.362 1.392 1.442 1.472 1.512 1.722 1.962 2.112 2.182
3038.140 2.362 2.582 2.682 2.632 2.342 2.082 1.912 1.762 1.602 1.482
3057.430 1.422 1.332 1.312 1.382 1.432 1.502 1.642 1.802 1.902 1.922
3076.720 1.902 1.752 1.622 1.552 1.452 1.492 1.672 1.702 1.592 1.552
3096.009 1.562 1.542 1.412 1.282 1.222 1.162 1.062 1.172 1.282 1.062
3115.299 0.9569 0.9503 0.8752 0.8873 0.8561 0.7631 0.7147 0.6294 0.6076 0.6074
3134.589 0.4926 0.4979 0.5611 0.5958 0.6083 0.5832 0.5107 0.4537 0.5014 0.5519
3153.879 0.6277 0.6127 0.5834 0.5375 0.4525 0.4403 0.5037 0.583 0.6126 0.5923
3173.169 0.5782 0.5871 0.5186 0.5716 0.5766 0.4613 0.4328 0.4564 0.5413 0.4238
3192.458 0.3206 0.4675 0.5883 0.6667 0.5886 0.5326 0.5228 0.5271 0.6192 0.7087
3211.748 0.6338 0.5113 0.5546 0.5355 0.482 0.5369 0.5698 0.432 0.4065 0.4802
3231.038 0.4773 0.3643 0.3018 0.277 0.2363 0.3344 0.3254 0.3095 0.3707 0.3275
3250.328 0.2576 0.2173 0.2656 0.3447 0.3543 0.3678 0.4002 0.4091 0.3825 0.3543
3269.617 0.31 0.2646 0.2901 0.3047 0.2244 0.2143 0.2724 0.2749 0.2346 0.1891
3288.907 0.1719 0.2033 0.236 0.1671 0.1986 0.2382 0.2636 0.3046 0.21 0.15333
3308.197 0.238 0.2374 0.13636 0.2047 0.3733 0.3714 0.3064 0.2717 0.1711 0.2468
3327.487 0.3479 0.4055 0.3306 0.29 0.3459 0.2785 0.2805 0.2703 0.2058 0.3832
3346.777 0.5286 0.3837 0.3405 0.325 0.2506 0.1879 0.2291 0.2857 0.3271 0.3585
3366.066 0.2502 0.2018 0.2692 0.2232 0.2427 0.2562 0.1885 0.2533 0.294 0.3863
3385.356 0.3993 0.2679 0.2514 0.2153 0.1569 0.1656 0.2395 0.3197 0.2644 0.2503
3404.646 0.3409 0.3321 0.302 0.2839 0.3078 0.3683 0.426 0.3716 0.2582 0.2982
3423.936 0.357 0.3889 0.3604 0.2602 0.2167 0.1904 0.2316 0.2651 0.2351 0.1872
3443.225 0.2182 0.3358 0.2845 0.1962 0.2277 0.2265 0.2505 0.3543 0.3062 0.14281
3462.515 0.069971 0.12072 0.09567 0.08107 0.027 0 0.1258 0.2501 0.2381 0.3056
3481.805 0.3167 0.2419 0.2661 0.2635 0.1726 0.15036 0.1881 0.1806 0.3027 0.3163
3501.095 0.225 0.13209 0.1913 0.331 0.3133 0.2461 0.3275 0.3197 0.12016 0.12572
3520.385 0.2664 0.2119 0.171 0.3119 0.3334 0.3849 0.3758 0.2339 0.3032 0.2759
3539.674 0.2238 0.3631 0.3247 0.2708 0.3451 0.3729 0.3693 0.4118 0.3847 0.296
3558.964 0.2475 0.2815 0.3033 0.2309 0.3155 0.3605 0.285 0.2195 0.2284 0.3904
3578.254 0.3611 0.1714 0.066715 0.2279 0.3945 0.3163 0.2734 0.2974 0.3815 0.3424
3597.544 0.2193 0.2515 0.3141 0.3013 0.3118 0.3211 0.2589 0.3397 0.369 0.2327
3616.833 0.1519 0.1674 0.2201 0.239 0.374 0.356 0.2642 0.3385 0.3774 0.338
3636.123 0.2527 0.2481 0.3339 0.4143 0.3965 0.2848 0.2769 0.34 0.2899 0.2392
3655.413 0.2383 0.2351 0.2116 0.2615 0.2519 0.2488 0.3123 0.1951 0.178 0.3024
3674.703 0.291 0.2524 0.2711 0.2771 0.3884 0.4409 0.4443 0.4409 0.3804 0.39
3693.993 0.3117 0.2241 0.2607 0.325 0.2434 0.1806 0.2579 0.2895 0.241 0.2456
3713.282 0.3116 0.3253 0.3188 0.3403 0.3236 0.3272 0.3072 0.2545 0.3362 0.3798
3732.572 0.2083 0.14281 0.3159 0.3111 0.248 0.276 0.2545 0.15873 0.1975 0.1824
3751.862 0.11664 0.2483 0.2509 0.2019 0.2823 0.3267 0.308 0.344 0.2728 0.13969
3771.152 0.2002 0.2431 0.16159 0.1624 0.2249 0.2741 0.1694 0.1311 0.228 0.2091
3790.441 0.08595 0.14944 0.2816 0.2399 0.2286 0.1652 0.15411 0.2217 0.15608 0.15339
3809.731 0.2322 0.3176 0.4259 0.4335 0.38 0.2596 0.2942 0.3684 0.3031 0.2832
3829.021 0.3124 0.268 0.2163 0.2466 0.3727 0.3888 0.2244 0.1913 0.183 0.1709
3848.311 0.3651 0.4249 0.3504 0.3569 0.2483 0.24 0.2709 0.2682 0.4124 0.4557
3867.601 0.3928 0.2823 0.2608 0.3508 0.2926 0.1949 0.1844 0.2192 0.188 0.1774
3886.890 0.3083 0.3587 0.3148 0.2763 0.2026 0.2583 0.3195 0.3612 0.3345 0.3481
3906.180 0.2813 0.09315 0.09862 0.2353 0.3983 0.4135 0.3999 0.3314 0.2637 0.2099
3925.470 0.12352 0.1839 0.2596 0.3683 0.1919 0.065219 0.2246 0.2363 0.3033 0.3767
3944.760 0.3488 0.2655 0.3 0.3386 0.3201 0.2529 0.1171 0.0234 0.14141 0.2539
3964.049 0.2764 0.3963 0.3517 0.2604 0.3358 0.3961 0.4033 0.3648 0.2682 0.2572
3983.339 0.3359 0.4147 0.4534 0.3339 0.2802 0.3631 0.3836 0.3435 0.2476 0.2567
##END=
