##TITLE=Metamitron
##JCAMP-DX=4.24
##DATA TYPE=INFRARED SPECTRUM
##ORIGIN=NIST Mass Spectrometry Data Center
##OWNER=NIST Standard Reference Data Program
Collection (C) 2018 copyright by the U.S. Secretary of Commerce
on behalf of the United States of America. All rights reserved.
##CAS REGISTRY NO=41394-05-2
##MOLFORM=C 10 H 10 N 4 O
##$NIST SOURCE=MSDC-IR
##SPECTROMETER/DATA SYSTEM=HP-GC/MS/IRD
##STATE=gas
##XUNITS=1/CM
##YUNITS=ABSORBANCE
##XFACTOR=1.0
##YFACTOR=0.000002600
##DELTAX=4.0
##FIRSTX=550.0
##LASTX=3846.0
##FIRSTY=0.001942
##MAXX=3846
##MINX=550
##MAXY=0.026
##MINY=0
##NPOINTS=825
##XYDATA=(X++(Y..Y))
550.0 747 393 143 126 61 25 36 43 13 21
590.0 56 79 95 160 331 600 880 1094 1019 775
630.0 531 336 239 207 221 292 428 689 1085 1409
670.0 1529 1476 1443 1588 1913 2078 1812 1458 1100 801
710.0 593 445 393 374 374 381 443 576 723 901
750.0 1034 927 702 515 362 275 264 287 337 427
790.0 557 723 858 799 600 408 250 160 149 151
830.0 150 163 166 189 208 225 274 341 436 589
870.0 884 1403 1985 2302 2146 1551 921 577 414 327
910.0 301 299 302 314 298 281 270 270 287 312
950.0 370 452 585 782 984 1173 1374 1599 1807 1866
990.0 1741 1472 1171 1010 1074 1430 2028 2479 2420 1821
1030.0 1088 727 625 562 524 504 508 542 597 656
1070.0 714 742 776 782 733 723 689 596 493 402
1110.0 349 316 315 294 277 279 264 279 311 378
1150.0 483 574 649 746 796 771 686 629 653 653
1190.0 641 624 634 749 948 1155 1296 1334 1262 1130
1230.0 993 858 788 729 660 650 651 623 598 567
1270.0 573 617 714 898 1180 1534 1847 2025 2022 1874
1310.0 1708 1650 1763 1922 1948 1832 1741 1721 1629 1366
1350.0 988 714 589 550 554 567 589 625 681 767
1390.0 912 1114 1352 1604 1791 1869 1827 1724 1663 1709
1430.0 1851 2014 2110 2092 1921 1642 1342 1092 932 823
1470.0 754 716 737 801 904 1045 1169 1208 1161 1097
1510.0 1133 1308 1599 2059 2768 3840 5339 7094 8553 8929
1550.0 7905 5961 3988 2613 1864 1460 1261 1184 1190 1233
1590.0 1318 1432 1540 1659 1805 1989 2225 2518 2833 3111
1630.0 3252 3185 2927 2547 2147 1832 1675 1701 1867 2217
1670.0 2840 3865 5404 7332 9156 10000 9533 7867 5675 3887
1710.0 2705 1962 1492 1187 964 788 663 592 542 497
1750.0 457 429 399 367 338 311 292 267 238 228
1790.0 236 258 288 301 295 264 219 188 163 143
1830.0 131 119 117 111 103 106 108 108 107 102
1870.0 96 98 103 115 130 133 136 144 145 136
1910.0 117 87 65 60 61 67 87 110 124 139
1950.0 161 166 158 149 123 91 71 55 48 47
1990.0 41 36 40 39 41 46 50 51 52 60
2030.0 68 65 65 68 66 69 79 67 58 58
2070.0 52 49 48 39 34 34 31 28 31 31
2110.0 25 22 27 30 20 8 9 16 25 31
2150.0 29 29 35 34 31 33 34 32 30 25
2190.0 14 10 10 11 16 14 19 13 6 1
2230.0 5 2 0 3 3 6 11 13 17 25
2270.0 24 24 28 36 48 41 30 34 37 34
2310.0 41 48 46 44 34 29 28 34 36 36
2350.0 35 28 22 24 20 23 38 39 34 37
2390.0 43 50 50 39 35 47 48 41 37 34
2430.0 44 48 40 40 43 41 35 27 27 22
2470.0 13 18 20 17 23 26 25 29 28 29
2510.0 34 35 35 40 47 32 22 38 43 40
2550.0 32 31 46 56 57 58 59 53 53 51
2590.0 51 47 49 59 66 60 54 52 51 51
2630.0 47 41 29 28 26 25 30 32 24 15
2670.0 11 11 17 22 20 24 36 39 42 49
2710.0 42 37 40 35 33 37 39 43 43 35
2750.0 39 51 53 43 37 36 47 50 48 45
2790.0 51 62 68 68 70 70 55 51 69 83
2830.0 73 73 80 74 72 81 87 97 101 92
2870.0 106 99 90 89 78 74 73 77 98 99
2910.0 101 115 122 120 123 154 205 277 346 366
2950.0 327 255 196 171 167 189 242 272 273 266
2990.0 255 235 220 211 221 247 285 341 381 422
3030.0 460 497 546 618 718 822 945 1107 1277 1412
3070.0 1494 1502 1410 1233 1000 779 639 567 518 437
3110.0 361 304 248 219 200 174 152 132 118 121
3150.0 139 150 154 140 125 130 133 140 163 174
3190.0 185 225 243 252 267 260 252 264 261 246
3230.0 247 228 207 197 192 211 193 180 188 178
3270.0 178 175 175 186 176 159 150 143 135 118
3310.0 110 139 161 200 240 266 301 294 268 223
3350.0 199 192 175 185 198 186 171 159 135 113
3390.0 97 101 99 90 78 71 96 103 107 109
3430.0 119 111 103 84 83 105 108 105 102 101
3470.0 89 83 85 70 64 59 65 58 30 31
3510.0 42 37 43 48 36 36 30 33 30 15
3550.0 15 25 32 19 8 15 16 17 28 28
3590.0 28 35 30 39 53 44 23 11 21 12
3630.0 9 36 29 35 36 24 36 43 52 46
3670.0 46 38 17 31 42 32 45 41 34 41
3710.0 33 42 44 28 39 53 42 39 36 31
3750.0 33 39 51 48 49 55 58 67 61 61
3790.0 47 25 12 11 30 39 50 56 61 73
3830.0 66 54 58 64 56
##END=
