##TITLE=2-Amino-N-methylbenzamide
##JCAMP-DX=4.24
##DATA TYPE=INFRARED SPECTRUM
##ORIGIN=EPA-IR VAPOR PHASE LIBRARY
##OWNER=SRD/NIST
Collection (C) 2018 copyright by the U.S. Secretary of Commerce
on behalf of the United States of America. All rights reserved.
##CAS REGISTRY NO=4141-08-6
##MOLFORM=C 8 H 10 N 2 O
##$NIST SOURCE=MSDC-IR
##STATE=gas
##XUNITS=1/CM
##YUNITS=ABSORBANCE
##XFACTOR=1.
##YFACTOR=0.001
##DELTAX=3.85796
##FIRSTX=551.7
##LASTX=4000.7
##FIRSTY=11.6
##MAXX=4000.7
##MINX=551.688
##MAXY=0.07784
##MINY=0.00102
##NPOINTS=895
##XYDATA=(X++(Y..Y))
551.688 11.6 11.61 11.5 11.38 11.18 10.91 10.69 10.66 10.68 10.67
590.268 10.65 10.66 10.6 10.45 10.32 10.13 9.93 9.74 9.6 9.56
628.847 9.47 9.35 9.34 9.4 9.66 10.36 11.48 12.83 13.9 14.53
667.427 14.46 13.53 12.43 11.91 12.04 12.57 13.24 14.09 14.9 14.61
706.006 13.56 12.68 12.15 12.22 13.3 15.73 19.33 23.37 28.46 33.39
744.586 32.47 27.75 23.69 19.4 15.38 12.55 10.86 9.79 9.1 8.72
783.165 8.42 8.22 8.23 8.3 8.42 8.57 8.64 8.69 8.76 8.78
821.745 8.83 8.99 9.28 9.68 10.08 10.43 10.5 10.08 9.47 8.71
860.324 7.88 7.26 6.93 6.8 6.79 6.9 6.97 7.01 7.06 7.01
898.904 6.95 6.91 6.86 6.86 6.89 6.93 6.98 7.08 7.19 7.11
937.484 6.93 6.79 6.6 6.43 6.37 6.35 6.32 6.29 6.26 6.34
976.063 6.59 7.03 7.72 8.67 9.59 10.07 9.87 9.13 7.97 6.7
1014.643 5.96 5.77 5.8 5.98 6.18 6.28 6.38 6.31 6.05 5.79
1053.222 5.48 5.22 5.05 4.84 4.57 4.39 4.25 4.14 4.15 4.19
1091.802 4.33 4.56 4.73 4.81 4.99 5.37 5.86 6.44 7.32 8.54
1130.381 9.9 11.25 12.56 13.77 15.19 17.2 19.66 21.47 21.88 20.91
1168.961 18.16 14.13 10.4 8.17 7.21 6.8 6.71 6.73 6.84 7.09
1207.540 7.38 7.83 8.49 9.4 10.76 12.73 15.54 19.34 24.24 30.14
1246.120 36.7 42.97 47.47 49.14 47.86 44.59 40.85 37.82 35.68 33.55
1284.699 30.52 26.23 21.59 18.19 16.59 16.38 17 17.62 17.57 16.78
1323.279 15.15 12.77 10.47 8.87 7.91 7.38 7.09 6.95 6.85 6.73
1361.859 6.61 6.5 6.41 6.34 6.3 6.35 6.47 6.65 6.92 7.42
1400.438 8.25 9.53 11.32 13.22 14.35 14.7 14.73 14.16 13.47 13.8
1439.018 15.36 17.8 20.44 22.62 24.65 26.76 28.54 31.02 34.77 39.66
1477.597 44.9 49.88 54.49 58.98 63.7 68.55 72.61 74.5 73.46 69.18
1516.177 62.25 54.23 46.73 40.72 36.12 32.7 30.23 28.57 27.76 27.54
1554.756 27.58 27.55 27.4 27.32 27.62 28.81 31.52 35.77 41.05 46.1
1593.336 50.25 53.93 56.94 59.03 60.47 60.22 57.99 54.15 47.71 39.52
1631.915 32.44 27.37 24.34 23.04 23.05 24.15 26.46 30.41 37.23 47.41
1670.495 60.43 72.05 77.34 77.84 73.6 62.02 47.6 35.71 27.49 22.17
1709.075 18.59 15.99 13.79 11.71 9.87 8.29 7.03 6 5.26 4.73
1747.654 4.37 4.09 3.88 3.76 3.72 3.73 3.72 3.69 3.61 3.48
1786.234 3.36 3.3 3.28 3.27 3.25 3.23 3.19 3.12 3.03 2.92
1824.813 2.84 2.78 2.71 2.65 2.62 2.63 2.64 2.63 2.63 2.6
1863.393 2.58 2.53 2.51 2.52 2.57 2.68 2.78 2.8 2.78 2.71
1901.972 2.61 2.56 2.6 2.73 2.9 2.97 2.89 2.75 2.51 2.23
1940.552 2.04 1.94 1.89 1.86 1.84 1.82 1.81 1.82 1.79 1.78
1979.131 1.79 1.81 1.85 1.85 1.83 1.81 1.79 1.75 1.73 1.72
2017.711 1.69 1.64 1.6 1.57 1.55 1.53 1.5 1.46 1.45 1.46
2056.291 1.46 1.44 1.44 1.43 1.41 1.41 1.4 1.37 1.37 1.37
2094.870 1.37 1.39 1.39 1.4 1.42 1.45 1.46 1.46 1.49 1.5
2133.450 1.47 1.45 1.42 1.41 1.39 1.37 1.35 1.36 1.36 1.34
2172.029 1.31 1.29 1.27 1.25 1.23 1.22 1.21 1.2 1.19 1.2
2210.609 1.2 1.2 1.23 1.25 1.25 1.27 1.26 1.24 1.23 1.23
2249.188 1.23 1.23 1.21 1.21 1.22 1.22 1.22 1.24 1.26 1.28
2287.768 1.28 1.29 1.31 1.33 1.33 1.32 1.32 1.34 1.35 1.35
2326.347 1.36 1.33 1.3 1.29 1.29 1.28 1.28 1.27 1.24 1.23
2364.927 1.24 1.22 1.21 1.22 1.22 1.22 1.23 1.24 1.26 1.26
2403.507 1.26 1.28 1.29 1.29 1.28 1.26 1.24 1.23 1.21 1.22
2442.086 1.21 1.2 1.21 1.25 1.28 1.3 1.32 1.34 1.34 1.34
2480.666 1.34 1.32 1.31 1.32 1.31 1.31 1.32 1.33 1.32 1.33
2519.245 1.33 1.34 1.33 1.32 1.32 1.32 1.32 1.29 1.28 1.28
2557.825 1.27 1.28 1.3 1.32 1.35 1.34 1.36 1.37 1.36 1.35
2596.404 1.36 1.36 1.35 1.34 1.35 1.38 1.44 1.48 1.51 1.53
2634.984 1.56 1.59 1.59 1.56 1.52 1.48 1.44 1.4 1.36 1.31
2673.563 1.29 1.26 1.23 1.2 1.21 1.25 1.27 1.3 1.32 1.31
2712.143 1.31 1.29 1.25 1.24 1.27 1.3 1.32 1.39 1.45 1.48
2750.722 1.51 1.58 1.63 1.66 1.68 1.71 1.77 1.8 1.81 1.85
2789.302 1.91 1.98 2.14 2.39 2.75 3.2 3.58 3.76 3.72 3.52
2827.882 3.19 2.89 2.73 2.71 2.77 2.85 2.97 3.15 3.38 3.69
2866.461 4.03 4.42 4.89 5.35 5.84 6.37 6.88 7.42 8.02 8.63
2905.041 9.22 9.77 10.22 10.54 10.77 11.01 11.27 11.65 12.15 12.7
2943.620 13.18 13.51 13.55 13.16 12.37 11.26 9.96 8.65 7.54 6.71
2982.200 6.13 5.72 5.5 5.43 5.44 5.58 5.89 6.38 7.15 8.24
3020.779 9.41 10.36 10.98 11.23 11.01 10.53 10.11 10.01 10.25 10.67
3059.359 11.18 11.61 11.83 11.76 11.47 10.96 10.2 9.23 8 6.65
3097.938 5.44 4.51 3.88 3.45 3.11 2.83 2.6 2.42 2.29 2.14
3136.518 2.03 1.96 1.88 1.84 1.84 1.89 1.92 1.91 1.93 1.93
3175.098 1.91 1.87 1.8 1.75 1.72 1.68 1.62 1.63 1.66 1.65
3213.677 1.66 1.68 1.7 1.73 1.73 1.72 1.74 1.79 1.83 1.83
3252.257 1.89 1.98 2.04 2.15 2.26 2.33 2.43 2.53 2.63 2.78
3290.836 2.97 3.18 3.47 3.8 4.07 4.26 4.38 4.42 4.44 4.55
3329.416 4.81 5.38 6.28 7.53 9.35 12.02 15.56 19.47 22.82 24.75
3367.995 24.75 22.71 19.2 15.31 11.88 9.19 7.17 5.67 4.63 3.92
3406.575 3.44 3.17 3.02 2.89 2.89 2.97 3 3.12 3.27 3.35
3445.154 3.48 3.67 3.88 4.15 4.53 5.04 5.73 6.67 8.02 9.75
3483.734 11.82 14.17 16.53 18.49 19.7 19.74 18.39 15.93 12.89 9.85
3522.314 7.27 5.38 4.13 3.34 2.85 2.52 2.27 2.1 1.99 1.89
3560.893 1.79 1.69 1.58 1.5 1.45 1.42 1.38 1.34 1.35 1.36
3599.473 1.31 1.27 1.28 1.28 1.26 1.22 1.23 1.23 1.23 1.23
3638.052 1.23 1.21 1.22 1.24 1.19 1.19 1.21 1.19 1.2 1.2
3676.632 1.18 1.18 1.2 1.23 1.23 1.21 1.21 1.19 1.11 1.09
3715.211 1.12 1.08 1.11 1.14 1.12 1.14 1.11 1.09 1.1 1.07
3753.791 1.02 1.02 1.03 1.05 1.05 1.04 1.03 1.03 1.08 1.08
3792.370 1.05 1.07 1.11 1.11 1.1 1.12 1.13 1.1 1.13 1.12
3830.950 1.06 1.04 1.09 1.1 1.08 1.1 1.11 1.09 1.09 1.14
3869.530 1.15 1.13 1.17 1.22 1.21 1.18 1.15 1.19 1.23 1.29
3908.109 1.27 1.21 1.25 1.28 1.28 1.29 1.28 1.27 1.2 1.18
3946.689 1.22 1.21 1.2 1.19 1.17 1.12 1.08 1.1 1.13 1.16
3985.268 1.16 1.12 1.12 1.16 1.18
##END=
