##TITLE=Diethyl n-hexadecylmalonate
##JCAMP-DX=4.24
##DATA TYPE=INFRARED SPECTRUM
##ORIGIN=EPA-IR VAPOR PHASE LIBRARY
##OWNER=SRD/NIST
Collection (C) 2018 copyright by the U.S. Secretary of Commerce
on behalf of the United States of America. All rights reserved.
##CAS REGISTRY NO=41433-81-2
##MOLFORM=C 23 H 44 O 4
##$NIST SOURCE=MSDC-IR
##STATE=gas
##XUNITS=1/CM
##YUNITS=ABSORBANCE
##XFACTOR=1.
##YFACTOR=0.001
##DELTAX=1.92934
##FIRSTX=549.9
##LASTX=3999.5
##FIRSTY=2.4474
##MAXX=3999.53
##MINX=549.863
##MAXY=0.31463
##MINY=0
##NPOINTS=1789
##XYDATA=(X++(Y..Y))
549.863 2.4474 2.3955 2.3067 2.3736 2.4182 2.3266 2.3618 2.3386 2.1451 2.1045
569.156 2.15823 2.19541 2.21348 2.16734 2.25558 2.22015 2.15506 2.3035 2.3524 2.4363
588.450 2.4517 2.4439 2.4428 2.4241 2.4113 2.3298 2.23865 2.18662 2.25951 2.2971
607.743 2.2641 2.19615 2.041 2.029 2.0985 2.011 1.95 1.876 1.751 1.701
627.037 1.635 1.585 1.648 1.621 1.545 1.562 1.552 1.506 1.545 1.612
646.330 1.643 1.639 1.689 1.758 1.777 1.826 1.902 1.999 2.1135 2.1319
665.624 2.3115 2.7474 2.6793 2.4269 2.5042 2.586 2.6577 2.7654 2.808 2.8845
684.917 2.9697 3.0367 3.19 3.31 3.41 3.56 3.71 3.9 4.09 4.3
704.210 4.52 4.74 4.98 5.25 5.53 5.69 5.82 5.96 5.99 5.95
723.504 5.86 5.74 5.57 5.41 5.29 5.16 5.02 4.89 4.8 4.77
742.797 4.69 4.61 4.55 4.48 4.44 4.42 4.39 4.34 4.3 4.31
762.091 4.32 4.34 4.39 4.37 4.38 4.36 4.3 4.3 4.31 4.36
781.384 4.34 4.23 4.14 4.05 3.98 3.98 3.94 3.88 3.84 3.79
800.678 3.76 3.72 3.7 3.67 3.63 3.59 3.55 3.56 3.58 3.56
819.971 3.53 3.56 3.61 3.64 3.7 3.83 3.92 3.92 4 4.22
839.264 4.43 4.69 5.01 5.33 5.65 6.08 6.6 7.13 7.61 8.02
858.558 8.38 8.6 8.63 8.56 8.32 7.93 7.47 6.9 6.31 5.78
877.851 5.32 4.91 4.52 4.22 3.98 3.82 3.67 3.51 3.43 3.43
897.145 3.38 3.31 3.29 3.31 3.35 3.38 3.36 3.34 3.35 3.39
916.438 3.46 3.5 3.55 3.6 3.67 3.73 3.79 3.84 3.92 4.04
935.732 4.11 4.16 4.3 4.42 4.5 4.57 4.6 4.69 4.74 4.74
955.025 4.73 4.73 4.72 4.7 4.7 4.63 4.6 4.6 4.6 4.6
974.318 4.63 4.67 4.78 4.87 4.97 5.14 5.31 5.56 5.86 6.23
993.612 6.67 7.14 7.72 8.44 9.31 10.28 11.36 12.64 14.12 15.78
1012.905 17.59 19.65 21.9 24.27 26.86 29.66 32.53 35.36 38.07 40.44
1032.199 42.35 43.73 44.56 44.8 44.48 43.79 42.8 41.59 40.25 38.75
1051.492 37.14 35.54 34.01 32.5 31.03 29.7 28.56 27.56 26.68 25.94
1070.786 25.37 25.03 24.93 25.01 25.31 25.84 26.57 27.58 28.86 30.42
1090.079 32.18 34.1 36.03 37.75 39.14 40.03 40.49 40.69 40.75 40.94
1109.372 41.46 42.35 43.55 45.11 46.95 48.94 51.06 53.33 55.83 58.65
1128.666 61.95 65.81 70.15 74.85 79.63 84.24 88.35 91.66 93.9 95.05
1147.959 95.2 94.48 93.23 91.64 89.9 88.21 86.54 84.99 83.62 82.37
1167.253 81.27 80.33 79.54 78.81 78.08 77.4 76.67 75.92 75.18 74.45
1186.546 73.75 73.04 72.45 71.94 71.45 71.06 70.73 70.56 70.5 70.49
1205.840 70.58 70.81 71.1 71.5 71.96 72.45 72.97 73.46 73.98 74.46
1225.133 74.84 75.16 75.35 75.49 75.59 75.56 75.46 75.3 75.07 74.75
1244.426 74.35 73.9 73.31 72.61 71.82 70.84 69.75 68.5 67.09 65.61
1263.720 63.98 62.26 60.55 58.88 57.23 55.6 54.06 52.61 51.25 49.95
1283.013 48.7 47.57 46.54 45.65 44.88 44.22 43.71 43.32 43.03 42.68
1302.307 42.27 41.73 40.99 40.06 38.97 37.75 36.55 35.49 34.58 33.84
1321.600 33.36 33.12 33.05 33.14 33.3 33.38 33.31 33.02 32.48 31.65
1340.894 30.57 29.32 28.04 26.82 25.61 24.52 23.58 22.78 22.24 22.13
1360.187 22.58 23.76 25.71 28.09 30.35 31.62 31.25 29.4 26.81 24.13
1379.480 21.73 19.77 18.18 16.84 15.71 14.81 14.05 13.47 13.01 12.52
1398.774 12.04 11.64 11.27 10.9 10.56 10.24 9.99 9.8 9.63 9.52
1418.067 9.48 9.48 9.55 9.68 9.9 10.26 10.75 11.37 12.15 13.13
1437.361 14.42 15.91 17.59 19.42 21.32 23.15 24.82 26.26 27.53 28.73
1456.654 29.92 30.99 31.67 31.85 31.48 30.55 29.11 27.15 24.79 22.27
1475.948 19.87 17.62 15.58 13.72 12.14 10.79 9.6 8.6 7.75 7.05
1495.241 6.5 6.02 5.63 5.27 4.9 4.58 4.34 4.16 3.95 3.76
1514.534 3.58 3.44 3.34 3.26 3.17 3.0383 2.9471 2.883 2.8606 2.8136
1533.828 2.7367 2.6675 2.6464 2.6128 2.4803 2.4117 2.3964 2.3561 2.3228 2.3318
1553.121 2.2928 2.21615 2.20858 2.17578 2.1114 2.0681 2.0621 2.056 2.012 1.975
1572.415 1.981 1.947 1.908 1.917 1.878 1.859 1.891 1.903 1.884 1.862
1591.708 1.883 1.902 1.899 1.874 1.868 1.877 1.868 1.849 1.862 1.885
1611.002 1.907 1.901 1.873 1.913 1.935 1.902 1.891 1.937 2.012 2.045
1630.295 2.054 2.058 2.086 2.1434 2.138 2.18095 2.269 2.3187 2.3539 2.388
1649.588 2.4625 2.5107 2.5595 2.6454 2.6993 2.7696 2.8947 3.0066 3.1303 3.26
1668.882 3.39 3.55 3.69 3.87 4.1 4.3 4.53 4.83 5.17 5.47
1688.175 5.8 6.2 6.68 7.19 7.76 8.4 9.11 9.94 10.84 11.84
1707.469 12.9 14.02 15.21 16.52 17.95 19.64 21.63 23.97 26.91 30.43
1726.762 34.7 39.88 46.12 53.62 63.05 74.06 86.86 101.97 117.94 133.52
1746.056 146.18 153.56 154.41 149.62 141.86 133.73 126.86 122.07 118.47 114.8
1765.349 109.38 101.05 90.03 77.85 65.57 54.85 45.9 38.59 32.74 28.1
1784.642 24.35 21.28 18.85 16.81 15.03 13.57 12.36 11.27 10.33 9.52
1803.936 8.78 8.14 7.57 7.05 6.57 6.11 5.69 5.3 4.97 4.69
1823.229 4.44 4.18 3.93 3.71 3.51 3.34 3.16 3.0534 2.9414 2.7704
1842.523 2.6307 2.5406 2.4427 2.3643 2.3111 2.2531 2.19251 2.1314 2.0829 2.022
1861.816 1.988 1.99 1.972 1.935 1.938 1.913 1.906 1.927 1.901 1.905
1881.110 1.913 1.923 1.922 1.891 1.876 1.895 1.901 1.861 1.842 1.821
1900.403 1.772 1.74 1.715 1.665 1.655 1.612 1.526 1.501 1.489 1.461
1919.696 1.405 1.385 1.343 1.301 1.287 1.267 1.265 1.237 1.225 1.195
1938.990 1.176 1.16 1.13 1.13 1.14 1.14 1.12 1.13 1.14 1.13
1958.283 1.14 1.15 1.14 1.12 1.14 1.14 1.12 1.1 1.12 1.15
1977.577 1.13 1.15 1.165 1.15 1.15 1.167 1.17 1.179 1.176 1.16
1996.870 1.188 1.211 1.219 1.231 1.257 1.27 1.292 1.289 1.277 1.289
2016.164 1.307 1.344 1.337 1.328 1.35 1.356 1.353 1.344 1.344 1.352
2035.457 1.363 1.383 1.363 1.339 1.347 1.352 1.346 1.334 1.311 1.308
2054.750 1.3 1.286 1.295 1.3 1.288 1.32 1.348 1.325 1.312 1.325
2074.044 1.343 1.376 1.384 1.368 1.364 1.38 1.41 1.421 1.434 1.472
2093.337 1.531 1.579 1.654 1.753 1.852 1.982 2.1139 2.2882 2.4911 2.7376
2112.631 3.0643 3.43 3.83 4.26 4.73 5.23 5.65 5.97 6.12 6.07
2131.924 5.86 5.44 4.87 4.26 3.67 3.1502 2.6818 2.2693 1.948 1.706
2151.218 1.505 1.352 1.237 1.167 1.1 1.04 0.99 0.94 0.9 0.86
2170.511 0.87 0.87 0.82 0.78 0.78 0.79 0.77 0.74 0.74 0.73
2189.804 0.73 0.74 0.72 0.69 0.71 0.73 0.73 0.73 0.73 0.72
2209.098 0.73 0.74 0.72 0.71 0.68 0.69 0.72 0.72 0.72 0.72
2228.391 0.72 0.74 0.72 0.69 0.71 0.71 0.68 0.68 0.7 0.72
2247.685 0.74 0.73 0.71 0.72 0.73 0.71 0.73 0.74 0.74 0.75
2266.978 0.75 0.75 0.78 0.78 0.78 0.8 0.79 0.83 0.84 0.85
2286.272 0.87 0.9 0.91 0.94 0.99 1.01 1.03 1.09 1.12 1.15
2305.565 1.192 1.238 1.291 1.319 1.356 1.399 1.437 1.486 1.495 1.482
2324.858 1.485 1.473 1.453 1.43 1.442 1.412 1.406 1.427 1.387 1.388
2344.152 1.371 1.31 1.243 1.259 1.348 1.442 1.542 1.584 1.623 1.656
2363.445 1.655 1.669 1.653 1.602 1.535 1.426 1.31 1.269 1.181 1.02
2382.739 0.91 0.87 0.81 0.77 0.78 0.75 0.72 0.71 0.72 0.68
2402.032 0.67 0.7 0.71 0.72 0.75 0.76 0.75 0.72 0.71 0.71
2421.326 0.7 0.66 0.67 0.7 0.69 0.68 0.64 0.62 0.65 0.64
2440.619 0.64 0.6 0.59 0.57 0.55 0.57 0.57 0.55 0.55 0.55
2459.912 0.54 0.52 0.52 0.53 0.53 0.55 0.53 0.5 0.48 0.48
2479.206 0.48 0.47 0.49 0.46 0.44 0.47 0.49 0.49 0.46 0.47
2498.499 0.49 0.5 0.55 0.61 0.6 0.55 0.54 0.6 0.58 0.59
2517.793 0.6 0.63 0.66 0.66 0.68 0.67 0.65 0.65 0.66 0.69
2537.086 0.74 0.74 0.71 0.68 0.68 0.72 0.75 0.72 0.68 0.67
2556.380 0.71 0.74 0.76 0.73 0.69 0.67 0.71 0.77 0.72 0.73
2575.673 0.81 0.84 0.84 0.81 0.81 0.87 0.91 0.9 0.93 1.01
2594.966 1.01 0.99 1.08 1.12 1.09 1.06 1.06 1.11 1.15 1.164
2614.260 1.188 1.23 1.272 1.292 1.295 1.329 1.354 1.388 1.413 1.402
2633.553 1.401 1.419 1.457 1.518 1.571 1.621 1.615 1.621 1.657 1.688
2652.847 1.756 1.774 1.806 1.853 1.864 1.907 1.981 2.0609 2.095 2.0851
2672.140 2.16336 2.25685 2.2672 2.2822 2.3208 2.3318 2.3656 2.3592 2.3264 2.3459
2691.434 2.3317 2.2687 2.21943 2.16131 2.1141 2.0968 2.045 2.026 2.0652 2.015
2710.727 1.97 2.019 2.031 2.0616 2.1111 2.1157 2.18053 2.23669 2.23945 2.26
2730.020 2.2951 2.3533 2.4128 2.4731 2.4729 2.461 2.537 2.5875 2.5822 2.5932
2749.314 2.6508 2.7382 2.7809 2.8337 2.9318 2.9921 3.0607 3.1317 3.19 3.32
2768.607 3.42 3.51 3.62 3.8 3.95 4.06 4.16 4.35 4.57 4.7
2787.901 4.82 5.05 5.33 5.56 5.78 6.02 6.31 6.63 6.93 7.2
2807.194 7.51 7.94 8.39 8.81 9.32 9.87 10.46 11.11 11.81 12.5
2826.488 13.23 14.09 14.99 15.97 17.13 18.59 20.34 22.54 25.31 28.69
2845.781 33.09 38.82 46.11 55.32 66.61 79.53 92.7 103.98 111.19 113.16
2865.074 110.38 104.27 96.47 88.28 80.61 74.08 68.86 64.99 62.15 60.03
2884.368 58.51 57.31 56.46 56.15 56.63 58.21 60.82 64.38 69.07 74.68
2903.661 81.18 88.56 96.68 105.48 114.89 125.28 137.31 151.74 169.08 189.96
2922.955 214.65 242.27 270.45 294.68 310.28 314.63 307.5 291.33 269.64 245.36
2942.248 220.66 197.08 175.09 155.19 138 124.06 113.41 105.62 100.44 97.33
2961.542 95.49 94.08 92.4 90.07 86.79 82.54 77.88 73.59 70.28 68.54
2980.835 68.03 67.7 66.75 64.26 60.18 55.2 50.08 45.4 41.42 37.95
3000.128 34.9 32.17 29.65 27.33 25.03 22.92 21 19.2 17.54 15.96
3019.422 14.62 13.47 12.41 11.45 10.58 9.84 9.2 8.55 7.88 7.37
3038.715 7 6.53 6.1 5.79 5.54 5.16 4.8 4.63 4.43 4.2
3058.009 3.99 3.86 3.73 3.53 3.38 3.25 3.0611 2.9615 2.884 2.7566
3077.302 2.5829 2.5531 2.5608 2.4858 2.489 2.3773 2.16404 2.1055 2.131 2.0609
3096.596 1.949 1.929 1.943 1.927 1.871 1.782 1.658 1.642 1.644 1.55
3115.889 1.624 1.723 1.592 1.45 1.432 1.416 1.439 1.415 1.428 1.509
3135.182 1.452 1.325 1.25 1.226 1.206 1.165 1.162 1.11 1 1.02
3154.476 1.163 1.227 1.1 1 0.99 0.96 0.93 0.89 0.81 0.81
3173.769 0.88 0.85 0.78 0.76 0.75 0.71 0.66 0.66 0.62 0.54
3193.063 0.58 0.6 0.62 0.62 0.57 0.55 0.5 0.51 0.45 0.46
3212.356 0.5 0.44 0.46 0.42 0.35 0.35 0.29 0.16 0.19 0.26
3231.650 0.25 0.23 0.19 0.21 0.25 0.21 0.18 0.21 0.16 0.15
3250.943 0.13 0.02 0.04 0.09 0.01 0.06 0.15 0.1 0.18 0.23
3270.236 0.16 0.11 0.09 0.15 0.15 0.14 0.14 0.2 0.16 0
3289.530 0.08 0.14 0.08 0.1 0.12 0.12 0.16 0.11 0.11 0.19
3308.823 0.15 0.14 0.23 0.2 0.1 0.08 0.03 0.09 0.3 0.35
3328.117 0.3 0.28 0.2 0.14 0.28 0.35 0.24 0.18 0.2 0.21
3347.410 0.22 0.31 0.3 0.25 0.34 0.44 0.44 0.46 0.41 0.25
3366.704 0.3 0.39 0.37 0.45 0.47 0.44 0.5 0.49 0.52 0.62
3385.997 0.51 0.46 0.46 0.46 0.56 0.55 0.58 0.58 0.56 0.6
3405.290 0.51 0.48 0.57 0.51 0.45 0.51 0.55 0.61 0.64 0.52
3424.584 0.51 0.66 0.62 0.57 0.71 0.75 0.72 0.74 0.73 0.79
3443.877 0.8 0.79 0.76 0.75 0.84 0.87 0.97 1.03 1.01 1.04
3463.171 1.06 1.209 1.246 1.15 1.205 1.317 1.394 1.571 1.729 1.763
3482.464 1.764 1.724 1.761 1.79 1.825 1.966 1.963 1.854 1.713 1.62
3501.758 1.563 1.383 1.3 1.233 1.16 1.199 1.15 1.02 0.91 0.95
3521.051 1.03 0.99 0.93 0.89 0.82 0.79 0.76 0.72 0.69 0.64
3540.344 0.71 0.75 0.7 0.58 0.51 0.53 0.56 0.6 0.58 0.59
3559.638 0.63 0.63 0.57 0.63 0.66 0.51 0.45 0.53 0.57 0.55
3578.931 0.57 0.65 0.61 0.55 0.52 0.45 0.48 0.59 0.53 0.42
3598.225 0.55 0.64 0.64 0.63 0.65 0.72 0.69 0.74 0.75 0.64
3617.518 0.6 0.63 0.67 0.77 0.73 0.69 0.79 0.86 0.79 0.8
3636.812 0.82 0.82 0.79 0.73 0.73 0.68 0.8 0.77 0.75 0.77
3656.105 0.71 0.7 0.65 0.71 0.8 0.77 0.75 0.81 0.75 0.7
3675.398 0.68 0.73 0.78 0.72 0.78 0.84 0.8 0.83 0.82 0.75
3694.692 0.72 0.72 0.74 0.72 0.65 0.69 0.75 0.74 0.78 0.75
3713.985 0.71 0.75 0.78 0.74 0.69 0.71 0.75 0.8 0.81 0.8
3733.279 0.79 0.77 0.77 0.78 0.74 0.68 0.69 0.78 0.76 0.7
3752.572 0.74 0.8 0.86 0.81 0.7 0.71 0.79 0.77 0.71 0.74
3771.866 0.76 0.76 0.8 0.79 0.76 0.81 0.84 0.82 0.8 0.77
3791.159 0.81 0.81 0.82 0.86 0.9 0.94 0.99 0.93 0.82 0.82
3810.452 0.82 0.83 0.82 0.88 0.86 0.76 0.8 0.84 0.83 0.77
3829.746 0.74 0.78 0.84 0.82 0.75 0.73 0.77 0.83 0.84 0.82
3849.039 0.81 0.83 0.84 0.83 0.84 0.85 0.83 0.79 0.82 0.88
3868.333 0.86 0.85 0.85 0.87 0.88 0.76 0.74 0.81 0.83 0.86
3887.626 0.82 0.79 0.82 0.78 0.72 0.7 0.71 0.74 0.72 0.75
3906.920 0.79 0.78 0.82 0.82 0.8 0.79 0.79 0.81 0.82 0.84
3926.213 0.88 0.85 0.78 0.74 0.77 0.83 0.81 0.84 0.82 0.83
3945.506 0.95 0.95 0.85 0.8 0.82 0.89 0.93 0.93 0.91 0.91
3964.800 0.94 0.94 0.92 0.91 0.92 0.95 1.07 1.06 0.98 1.02
3984.093 1.11 1.14 1.1 1.06 1.03 1.06 1.04 1.02 1.05
##END=
