##TITLE=N,N-Dimethyl-4-nitro-3(trifluoromethyl)aniline
##JCAMP-DX=4.24
##DATA TYPE=INFRARED SPECTRUM
##ORIGIN=EPA-IR VAPOR PHASE LIBRARY
##OWNER=SRD/NIST
Collection (C) 2018 copyright by the U.S. Secretary of Commerce
on behalf of the United States of America. All rights reserved.
##CAS REGISTRY NO=41512-62-3
##MOLFORM=C 9 H 9 F 3 N 2 O 2
##$NIST SOURCE=MSDC-IR
##STATE=gas
##XUNITS=1/CM
##YUNITS=ABSORBANCE
##XFACTOR=1.
##YFACTOR=0.001
##DELTAX=1.92898
##FIRSTX=549.8
##LASTX=4000.7
##FIRSTY=2.945
##MAXX=4000.7
##MINX=549.759
##MAXY=0.275045
##MINY=0
##NPOINTS=1790
##XYDATA=(X++(Y..Y))
549.759 2.945 2.885 3.055 2.975 3.045 3.255 3.375 3.695 4.375 4.935
569.049 5.605 5.955 6.385 7.255 7.885 8.645 9.105 9.145 9.035 8.675
588.339 8.035 7.275 6.565 5.845 5.195 4.835 4.595 4.145 3.905 3.765
607.628 3.775 4.005 4.265 4.605 5.165 5.995 7.155 8.635 10.125 11.405
626.918 11.875 11.835 11.465 10.815 9.695 8.235 7.105 6.265 5.725 5.565
646.208 5.645 5.815 6.255 6.915 7.815 9.185 10.335 10.695 10.725 10.535
665.498 9.575 7.955 6.295 4.935 3.945 3.415 3.145 2.895 2.815 2.635
684.787 2.545 2.635 2.625 2.825 2.865 3.055 3.345 3.435 3.755 4.345
704.077 4.845 5.125 5.565 5.825 5.885 5.845 5.565 5.195 4.985 4.885
723.367 5.135 5.955 7.115 8.745 10.525 11.755 12.395 12.595 12.555 11.955
742.657 10.615 9.445 8.845 8.665 8.555 8.775 9.005 8.525 7.705 6.935
761.947 6.175 5.415 4.855 4.435 4.105 3.835 3.745 3.615 3.275 3.215
781.236 3.485 3.615 3.695 3.805 4.005 4.085 4.235 4.745 5.255 6.035
800.526 7.115 8.515 10.875 14.455 19.305 24.825 29.865 33.835 36.725 38.425
819.816 37.875 33.825 27.975 22.355 17.675 14.085 11.085 8.875 7.305 6.375
839.106 5.965 5.805 6.005 6.515 7.295 8.395 10.165 12.615 15.725 19.405
858.395 23.855 28.245 31.355 32.405 31.285 28.565 24.825 20.455 15.745 11.895
877.685 9.175 7.295 6.075 5.105 4.595 4.195 3.665 3.405 3.225 2.945
896.975 2.755 2.755 2.805 2.755 2.735 2.815 2.805 2.955 3.075 3.085
916.265 3.125 3.175 3.395 3.605 3.745 3.865 4.045 4.355 4.775 5.265
935.555 5.895 6.725 7.735 8.845 10.265 12.285 14.625 17.305 20.755 25.345
954.844 30.815 36.395 41.485 45.285 46.895 46.015 42.945 37.995 31.955 25.705
974.134 20.195 15.825 12.845 10.895 9.275 8.275 7.695 7.055 6.705 6.475
993.424 6.265 6.125 5.795 5.895 6.285 6.505 6.855 7.405 7.745 8.235
1012.714 9.215 10.215 11.275 13.125 15.975 19.715 24.935 31.915 40.615 50.555
1032.003 59.815 66.085 68.315 67.205 62.805 55.015 45.145 35.365 27.785 22.905
1051.293 20.105 18.425 17.315 17.155 17.235 17.105 17.135 17.215 17.435 17.295
1070.583 16.725 16.155 15.635 15.385 15.275 15.065 14.795 14.605 14.755 15.325
1089.873 15.795 15.755 15.525 16.065 16.865 17.325 18.155 19.125 20.265 22.015
1109.163 24.265 26.775 29.735 33.965 39.295 45.045 51.615 58.585 65.625 72.125
1128.452 76.855 79.635 80.965 81.345 80.555 80.155 81.845 85.575 91.605 100.365
1147.742 111.605 123.395 134.665 144.455 151.645 155.775 157.205 157.245 157.235 157.585
1167.032 158.735 160.115 160.355 159.975 157.995 153.875 148.985 144.035 140.335 139.855
1186.322 142.205 146.705 152.085 155.635 155.295 150.425 141.615 129.335 115.045 100.615
1205.611 87.215 76.235 68.285 62.995 59.475 57.145 55.595 54.985 54.595 54.455
1224.901 54.655 54.055 52.795 51.005 48.865 46.635 44.045 41.625 39.375 37.195
1244.191 35.695 34.955 34.685 34.885 35.755 37.215 39.455 42.445 46.785 52.735
1263.481 60.125 69.695 81.295 94.795 109.285 122.845 133.715 139.925 140.645 136.475
1282.771 127.995 116.655 105.015 95.625 89.725 87.105 86.535 86.585 86.505 85.935
1302.060 84.755 82.735 80.085 77.355 74.925 72.945 71.385 70.085 68.975 68.115
1321.350 67.655 67.895 69.125 71.745 76.115 82.645 91.815 104.025 119.645 139.085
1340.640 162.455 188.615 215.865 241.385 261.485 273.205 275.045 266.905 249.915 226.785
1359.930 201.345 177.285 156.685 139.915 125.665 112.845 100.815 89.275 78.465 68.805
1379.219 60.405 53.655 48.335 44.265 41.095 38.655 36.795 35.275 34.115 33.275
1398.509 32.755 32.635 33.015 34.025 35.955 39.075 43.265 48.175 52.905 56.685
1417.799 59.395 61.345 62.495 62.765 62.345 61.725 60.965 59.635 57.055 53.125
1437.089 47.915 42.475 37.475 33.285 30.025 27.575 25.785 24.475 23.605 23.095
1456.378 22.815 22.855 23.215 23.655 24.185 24.955 25.845 26.705 27.655 28.725
1475.668 29.905 31.245 32.715 34.395 36.275 38.525 41.205 44.235 47.815 51.915
1494.958 56.425 61.515 66.845 72.105 76.955 80.985 84.275 86.655 87.795 87.965
1514.248 87.335 86.185 84.785 83.515 82.675 82.505 83.355 85.725 89.785 95.735
1533.538 103.785 113.725 124.275 135.565 146.095 153.855 157.945 157.755 152.935 144.265
1552.827 133.455 121.105 109.685 99.045 89.945 83.445 78.465 74.955 72.835 71.905
1572.117 72.195 73.595 76.295 79.995 84.365 89.485 94.675 99.405 102.965 104.855
1591.407 104.915 103.485 101.085 98.765 97.695 98.825 102.305 107.605 113.515 118.685
1610.697 121.565 121.105 116.995 108.915 97.965 85.465 72.305 60.025 49.745 41.385
1629.986 34.805 29.905 26.215 23.215 20.745 18.765 17.015 15.455 14.015 12.815
1649.276 11.825 11.025 10.195 9.495 9.015 8.615 8.235 7.835 7.545 7.305
1668.566 7.055 6.855 6.665 6.415 6.145 6.005 5.835 5.615 5.425 5.305
1687.856 5.105 4.935 4.845 4.625 4.435 4.415 4.325 4.245 4.165 4.115
1707.146 4.085 3.975 3.965 3.965 4.025 4.105 4.105 4.125 4.105 4.085
1726.435 4.015 3.855 3.695 3.515 3.325 3.245 3.085 2.975 2.925 2.885
1745.725 2.835 2.775 2.775 2.795 2.835 2.845 2.775 2.785 2.845 2.885
1765.015 2.915 2.865 2.805 2.785 2.745 2.655 2.515 2.395 2.345 2.255
1784.305 2.195 2.145 2.105 2.055 2.005 2.025 2.005 1.985 2.015 2.025
1803.594 2.035 2.065 2.045 1.985 1.985 2.005 1.955 1.885 1.835 1.775
1822.884 1.745 1.695 1.675 1.595 1.515 1.575 1.485 1.445 1.485 1.445
1842.174 1.425 1.4018 1.435 1.545 1.565 1.535 1.545 1.565 1.605 1.655
1861.464 1.685 1.725 1.775 1.805 1.835 1.895 1.905 2.005 2.095 2.195
1880.754 2.355 2.525 2.625 2.655 2.715 2.785 2.795 2.735 2.685 2.675
1900.043 2.645 2.575 2.465 2.375 2.315 2.245 2.185 2.185 2.225 2.185
1919.333 2.155 2.195 2.265 2.305 2.305 2.265 2.245 2.185 2.115 2.015
1938.623 1.925 1.845 1.785 1.745 1.645 1.635 1.605 1.505 1.4165 1.3949
1957.913 1.445 1.4244 1.4067 1.4147 1.435 1.485 1.525 1.595 1.595 1.575
1977.202 1.605 1.595 1.645 1.745 1.795 1.805 1.765 1.715 1.745 1.745
1996.492 1.675 1.615 1.545 1.445 1.3864 1.3499 1.3481 1.3217 1.2719 1.2412
2015.782 1.1767 1.1698 1.1334 1.0535 1.0633 1.1196 1.1001 1.0813 1.0285 0.908
2035.072 0.9434 0.9988 0.9421 0.9295 0.9489 0.9283 0.8726 0.8815 0.9111 0.9139
2054.362 0.9298 0.8615 0.8821 0.9438 0.9942 1.0166 0.9478 0.9567 1.0166 1.0824
2073.651 1.0612 1.1048 1.2653 1.2928 1.3 1.3819 1.465 1.485 1.525 1.655
2092.941 1.735 1.705 1.665 1.675 1.685 1.635 1.635 1.605 1.515 1.535
2112.231 1.565 1.495 1.4236 1.4056 1.3898 1.3825 1.3493 1.3442 1.3661 1.2932
2131.521 1.2353 1.2747 1.2987 1.3062 1.3045 1.2851 1.2486 1.2534 1.2623 1.2764
2150.810 1.2422 1.2027 1.254 1.3087 1.361 1.3457 1.3238 1.3391 1.3245 1.3032
2170.100 1.3122 1.2481 1.2475 1.2988 1.2796 1.2615 1.2597 1.2504 1.232 1.2565
2189.390 1.2187 1.208 1.1787 1.1483 1.1693 1.127 1.1187 1.1386 1.1661 1.1866
2208.680 1.1851 1.1286 1.0991 1.1155 1.1308 1.1239 1.1081 1.1153 1.1152 1.1502
2227.970 1.1904 1.2039 1.1965 1.193 1.1683 1.1254 1.099 1.09 1.099 1.1347
2247.259 1.2021 1.2407 1.1747 1.1348 1.129 1.1244 1.052 1.0337 1.094 1.1201
2266.549 1.1275 1.0671 1.1065 1.2033 1.2364 1.2062 1.1665 1.1612 1.1432 1.1006
2285.839 1.1231 1.1512 1.1553 1.1808 1.2223 1.2191 1.2312 1.2449 1.229 1.2874
2305.129 1.3026 1.3149 1.3638 1.3423 1.373 1.475 1.545 1.575 1.555 1.555
2324.418 1.625 1.695 1.685 1.665 1.635 1.645 1.725 1.755 1.725 1.675
2343.708 1.685 1.695 1.695 1.655 1.635 1.665 1.645 1.655 1.685 1.685
2362.998 1.675 1.645 1.645 1.635 1.655 1.685 1.705 1.735 1.725 1.755
2382.288 1.695 1.625 1.605 1.605 1.645 1.665 1.595 1.585 1.565 1.515
2401.578 1.545 1.555 1.525 1.4248 1.33 1.3478 1.3825 1.3822 1.4214 1.425
2420.867 1.4206 1.3721 1.3516 1.475 1.515 1.455 1.455 1.445 1.425 1.475
2440.157 1.525 1.515 1.555 1.625 1.605 1.575 1.615 1.625 1.595 1.585
2459.447 1.595 1.645 1.665 1.715 1.725 1.715 1.725 1.675 1.645 1.665
2478.737 1.685 1.675 1.585 1.495 1.505 1.545 1.485 1.4073 1.3275 1.2666
2498.026 1.2974 1.3924 1.4186 1.3571 1.3517 1.3193 1.3073 1.3658 1.4172 1.435
2517.316 1.505 1.585 1.635 1.655 1.605 1.625 1.735 1.735 1.755 1.865
2536.606 1.955 2.015 2.055 2.045 2.005 1.995 2.035 2.055 1.935 1.875
2555.896 1.985 1.925 1.825 1.895 1.975 2.025 1.965 1.875 1.885 1.905
2575.186 1.925 1.985 2.005 1.995 1.995 1.995 2.035 2.095 2.175 2.195
2594.475 2.225 2.275 2.315 2.375 2.485 2.655 2.675 2.675 2.805 2.945
2613.765 3.015 3.055 3.125 3.145 3.215 3.255 3.215 3.245 3.265 3.295
2633.055 3.355 3.255 3.225 3.195 3.075 3.025 2.975 2.875 2.695 2.555
2652.345 2.455 2.365 2.415 2.365 2.245 2.275 2.265 2.165 2.125 2.145
2671.634 2.195 2.265 2.285 2.165 2.125 2.125 2.155 2.195 2.195 2.195
2690.924 2.205 2.255 2.315 2.355 2.355 2.405 2.465 2.565 2.595 2.595
2710.214 2.685 2.725 2.705 2.745 2.865 2.915 2.945 3.015 3.025 3.025
2729.504 3.025 2.995 3.055 3.125 3.155 3.135 3.105 3.155 3.205 3.235
2748.794 3.245 3.335 3.375 3.455 3.605 3.685 3.845 4.065 4.175 4.285
2768.083 4.465 4.735 5.075 5.425 5.775 6.125 6.505 6.915 7.305 7.715
2787.373 8.145 8.605 9.255 9.995 10.765 11.555 12.365 13.335 14.555 15.855
2806.663 17.165 18.355 19.495 20.635 21.595 22.285 22.585 22.515 22.115 21.635
2825.953 21.005 20.225 19.495 18.745 18.035 17.395 16.965 16.745 16.735 16.855
2845.242 16.925 17.215 17.675 18.185 18.685 19.175 19.665 20.145 20.625 21.035
2864.532 21.425 21.915 22.385 22.855 23.335 23.705 23.955 24.245 24.525 24.685
2883.822 24.815 24.965 25.245 25.505 25.675 25.875 26.165 26.345 26.375 26.495
2903.112 26.635 26.645 26.585 26.425 26.325 26.235 26.005 25.915 25.925 25.965
2922.401 26.075 26.255 26.485 26.685 26.915 27.245 27.565 27.815 28.055 28.285
2941.691 28.305 28.055 27.865 27.575 27.145 26.595 25.925 25.165 24.355 23.525
2960.981 22.595 21.695 20.885 20.045 19.325 18.715 18.075 17.585 17.155 16.815
2980.271 16.575 16.295 16.045 15.895 15.895 15.835 15.745 15.755 15.665 15.445
2999.561 15.115 14.725 14.325 13.885 13.265 12.645 12.065 11.435 10.865 10.215
3018.850 9.525 9.005 8.465 7.895 7.445 7.005 6.595 6.205 5.995 5.835
3038.140 5.595 5.415 5.205 4.975 4.695 4.605 4.625 4.475 4.375 4.285
3057.430 4.265 4.295 4.155 4.105 4.025 3.885 3.865 3.855 3.795 3.715
3076.720 3.765 3.725 3.755 3.855 3.905 4.155 4.475 4.625 4.745 5.035
3096.009 5.185 5.235 5.225 4.955 4.495 4.025 3.625 3.225 2.775 2.525
3115.299 2.445 2.245 2.055 1.975 2.015 1.965 1.935 1.905 1.865 1.845
3134.589 1.835 1.845 1.785 1.715 1.505 1.4182 1.3887 1.2625 1.1765 1.1835
3153.879 1.2322 1.2302 1.156 1.1137 1.1784 1.1633 1.2186 1.2333 1.1449 1.1849
3173.169 1.1869 1.0548 1.0319 1.0908 1.0964 1.0995 1.063 1.044 1.0163 0.9973
3192.458 1.0133 0.9944 0.9813 1.0421 0.997 0.9123 0.9997 1.0061 0.9198 0.8063
3211.748 0.8401 0.893 0.8309 0.8234 0.7999 0.7978 0.7798 0.6218 0.5563 0.6363
3231.038 0.6081 0.44711 0.3907 0.5354 0.6629 0.6348 0.48018 0.47323 0.5524 0.5337
3250.328 0.5027 0.49224 0.428727 0.3476 0.3699 0.4086 0.375 0.362 0.306 0.238
3269.617 0.3325 0.4012 0.324 0.184 0.24 0.3905 0.4024 0.3875 0.316 0.256
3288.907 0.3618 0.4527 0.3752 0.3716 0.306 0.225 0.3625 0.41549 0.4083 0.3873
3308.197 0.252 0.2 0.325 0.3717 0.3565 0.276 0.141 0.255 0.283 0.197
3327.487 0.266 0.286 0.214 0.259 0.317 0.281 0.273 0.249 0.179 0.2
3346.777 0.267 0.308 0.26 0.221 0.131 0.124 0.4116 0.428915 0.29 0.311
3366.066 0.246 0.219 0.3415 0.3507 0.3308 0.276 0.247 0.323 0.255 0.201
3385.356 0.263 0.225 0.146 0.136 0.169 0.125 0.205 0.3621 0.3951 0.42002
3404.646 0.317 0.268 0.251 0.168 0.178 0.145 0.2 0.294 0.254 0.177
3423.936 0.198 0.251 0.3368 0.427055 0.291 0.082 0.095 0.264 0.269 0.16
3443.225 0.145 0.191 0.234 0.22 0.154 0.225 0.265 0.271 0.3388 0.304
3462.515 0.304 0.302 0.214 0.21 0.236 0.212 0.207 0.209 0.3455 0.27
3481.805 0.205 0.217 0.185 0.282 0.286 0.3764 0.41 0.3671 0.31 0.192
3501.095 0.184 0.219 0.205 0.307 0.293 0.258 0.44822 0.3655 0.217 0.3473
3520.385 0.339 0.278 0.247 0.23 0.271 0.3422 0.353 0.24 0.302 0.44391
3539.674 0.3573 0.266 0.295 0.212 0.166 0.269 0.3311 0.3277 0.29 0.253
3558.964 0.293 0.307 0.3373 0.277 0.146 0.104 0.069 0.145 0.172 0.245
3578.254 0.3753 0.322 0.3405 0.3711 0.308 0.257 0.292 0.214 0.158 0.151
3597.544 0.195 0.319 0.319 0.277 0.2 0.102 0.195 0.372 0.3833 0.324
3616.833 0.3755 0.3531 0.284 0.318 0.308 0.315 0.324 0.172 0.105 0.149
3636.123 0.15 0.26 0.241 0.145 0.126 0.079 0.137 0.317 0.303 0.262
3655.413 0.279 0.228 0.22 0.227 0.234 0.237 0.246 0.183 0.244 0.3468
3674.703 0.27 0.248 0.296 0.308 0.219 0.227 0.311 0.288 0.318 0.46733
3693.993 0.3663 0.175 0.199 0.249 0.211 0.191 0.203 0.297 0.31 0.165
3713.282 0.192 0.339 0.4133 0.39 0.279 0.182 0.244 0.4371 0.42977 0.239
3732.572 0.233 0.243 0.233 0.16 0.153 0.208 0.23 0.3802 0.44245 0.3453
3751.862 0.227 0.299 0.38 0.3536 0.247 0.253 0.238 0.163 0.253 0.265
3771.152 0.273 0.244 0.166 0.157 0.203 0.43681 0.5241 0.3976 0.3289 0.27
3790.441 0.3478 0.45475 0.48597 0.3937 0.3585 0.3938 0.3452 0.295 0.231 0.181
3809.731 0.149 0.147 0.22 0.3408 0.4064 0.3796 0.271 0.169 0.026 0
3829.021 0.175 0.289 0.262 0.3347 0.3358 0.3453 0.3438 0.122 0.087 0.24
3848.311 0.4046 0.288 0.133 0.219 0.294 0.265 0.212 0.25 0.233 0.136
3867.601 0.117 0.122 0.265 0.50772 0.5434 0.5714 0.52096 0.4079 0.43519 0.3509
3886.890 0.41701 0.4052 0.296 0.425544 0.5542 0.6189 0.5914 0.4443 0.50609 0.5415
3906.180 0.45743 0.5556 0.50121 0.355 0.277 0.3939 0.3791 0.3705 0.5431 0.5297
3925.470 0.49295 0.49639 0.5526 0.4878 0.3281 0.272 0.3945 0.50371 0.48363 0.3551
3944.760 0.315 0.257 0.196 0.318 0.41927 0.41504 0.3483 0.3317 0.41889 0.51939
3964.049 0.6529 0.5701 0.4028 0.433772 0.3913 0.49214 0.5324 0.46017 0.536 0.6301
3983.339 0.6859 0.562 0.4147 0.51854 0.6207 0.51174 0.47648 0.53 0.5647 0.6896
##END=
