##TITLE=4-Methylbutyrophenone
##JCAMP-DX=4.24
##DATA TYPE=INFRARED SPECTRUM
##ORIGIN=EPA-IR VAPOR PHASE LIBRARY
##OWNER=SRD/NIST
Collection (C) 2018 copyright by the U.S. Secretary of Commerce
on behalf of the United States of America. All rights reserved.
##CAS REGISTRY NO=4160-52-5
##MOLFORM=C 11 H 14 O
##$NIST SOURCE=MSDC-IR
##STATE=gas
##XUNITS=1/CM
##YUNITS=ABSORBANCE
##XFACTOR=1.
##YFACTOR=0.001
##DELTAX=1.929
##FIRSTX=549.8
##LASTX=4000.8
##FIRSTY=4.76
##MAXX=4000.75
##MINX=549.766
##MAXY=0.11318
##MINY=0
##NPOINTS=1790
##XYDATA=(X++(Y..Y))
549.766 4.76 5.32 5.89 6.19 6.57 7.02 7.11 6.98 7.02 7.28
569.056 7.44 7.76 8.25 8.75 9.04 8.71 8.36 8.2 7.77 7.15
588.346 6.48 5.92 5.42 4.91 4.54 4.28 3.98 3.65 3.47 3.34
607.636 3.11 3.02 2.74 2.28 2.16 2.24 2.17 2.07 2.24 2.23
626.926 2.02 2.08 2.1 2.17 2.42 2.49 2.45 2.49 2.74 2.72
646.216 2.42 2.37 2.45 2.4 2.38 2.32 2.38 2.41 2.33 2.2
665.506 2.09 2.11 2.14 2.21 2.18 2.19 2.25 2.2 2.1 2.15
684.796 2.2 2.18 2.4 2.46 2.3 2.35 2.57 2.65 2.6 2.63
704.086 2.75 2.87 3 3.09 3.37 3.53 3.64 3.79 3.84 4.26
723.376 4.66 4.91 5.11 5.24 5.62 6.02 6.17 6.33 6.7 7.01
742.666 7.38 7.74 7.97 8.33 8.75 9.13 9.36 9.54 9.6 9.55
761.956 9.34 8.95 8.64 8.33 8.03 8 8.13 8.32 8.85 9.45
781.246 10.2 11.02 11.9 12.96 14.23 15.62 16.84 18.02 19.22 20.41
800.536 21.4 22 22.39 22.47 22.03 21.32 20.53 19.63 18.67 17.6
819.826 16.44 15.33 14.24 13.32 12.51 11.63 10.84 10.24 9.64 9.05
839.116 8.48 7.7 6.9 6.3 5.8 5.32 4.87 4.45 4.21 4.08
858.406 3.92 3.85 3.66 3.59 3.69 3.65 3.58 3.55 3.59 3.68
877.696 3.86 4.06 4.28 4.83 5.47 6.08 6.8 7.48 8.03 8.15
896.986 7.84 7.42 6.94 6.25 5.53 4.8 4.21 3.76 3.36 3.16
916.276 3.01 2.83 2.73 2.83 2.82 2.62 2.61 2.69 2.81 2.93
935.566 3.06 3.22 3.31 3.45 3.53 3.6 3.76 3.95 4.17 4.54
954.856 4.98 5.42 5.96 6.71 7.62 8.71 10.1 11.73 13.46 15.2
974.146 16.78 18.14 19.45 20.57 21.46 22.32 23.11 23.75 24.53 25.36
993.436 25.88 26.16 26.03 25.16 23.68 21.82 19.65 17.33 15.03 12.86
1012.726 10.96 9.32 8.04 7.15 6.47 5.99 5.63 5.35 5.2 5.27
1032.016 5.43 5.65 6.07 6.43 6.7 7 7.21 7.34 7.32 7.06
1051.306 6.74 6.37 6 5.67 5.3 4.95 4.77 4.6 4.43 4.3
1070.596 4.19 4.21 4.3 4.24 4.21 4.26 4.32 4.47 4.6 4.66
1089.886 4.78 4.9 4.99 5.07 5.09 5.23 5.35 5.39 5.43 5.46
1109.176 5.59 5.76 5.83 5.9 5.97 5.84 5.65 5.49 5.27 5.06
1128.467 4.73 4.25 3.96 3.84 3.75 3.69 3.6 3.59 3.69 3.83
1147.757 3.94 4.06 4.3 4.73 5.17 5.7 6.33 7.16 8.28 9.69
1167.047 11.83 14.94 19.66 26.3 34.1 41.17 45.05 46.23 46.61 46.2
1186.337 43.76 38.84 33.36 30.14 30.13 32.03 34.66 37.28 39.26 40.4
1205.627 40.95 41 40.47 39.41 38.13 36.87 35.7 34.59 33.08 31.02
1224.917 28.4 25.73 23.43 21.59 20.28 19.39 18.79 18.54 18.62 18.79
1244.207 19.1 19.54 20.12 20.98 22.04 23.43 25.04 26.8 28.73 31.03
1263.497 33.51 35.8 37.63 38.72 39.18 38.83 37.65 35.91 33.86 31.79
1282.787 29.9 28.35 27.08 26.13 25.28 24.5 23.85 23.18 22.23 21.09
1302.077 20.08 19.31 18.84 18.51 18.15 17.88 17.76 17.64 17.29 16.64
1321.367 15.64 14.45 13.56 12.97 12.57 12.46 12.53 12.8 13.42 14.2
1340.657 15.11 16.26 17.49 18.68 19.88 21.05 21.96 22.54 22.84 22.71
1359.947 22.2 21.46 20.32 18.88 17.35 15.83 14.5 13.35 12.42 11.71
1379.237 11.08 10.73 10.58 10.48 10.47 10.58 10.8 11.11 11.58 12.15
1398.527 12.78 13.55 14.36 15.05 15.63 16.04 16.18 16.02 15.68 15.18
1417.817 14.49 13.68 12.95 12.35 11.88 11.48 11.21 11.12 11.11 11.15
1437.107 11.37 11.66 11.97 12.32 12.54 12.74 13 13.19 13.26 13.23
1456.397 13.15 13.13 13.09 12.97 12.77 12.53 12.19 11.68 11.09 10.61
1475.687 10.05 9.41 8.84 8.22 7.68 7.27 6.93 6.59 6.34 6.13
1494.977 5.93 5.83 5.76 5.63 5.51 5.35 5.11 5 4.96 4.88
1514.267 4.74 4.52 4.36 4.3 4.28 4.28 4.24 4.17 4.15 4.16
1533.557 4.1 4.12 4.11 4.06 4.23 4.45 4.61 4.78 4.92 5.07
1552.847 5.25 5.42 5.6 5.84 6.25 6.83 7.37 7.79 8.13 8.52
1572.137 8.85 8.94 8.98 9.04 9.06 9.12 9.32 9.78 10.6 11.9
1591.427 13.67 15.89 18.63 21.8 25.25 28.78 31.99 34.62 36.28 36.74
1610.717 36.01 34.02 30.98 27.14 23.21 19.62 16.42 13.83 11.97 10.53
1630.007 9.47 8.73 8.1 7.64 7.44 7.27 7.07 6.95 6.88 6.9
1649.297 7.06 7.15 7.36 7.83 8.27 8.73 9.2 9.77 10.53 11.45
1668.587 12.65 14.19 16.23 18.83 22.4 26.77 32.41 39.27 47.95 58.35
1687.877 69.37 81.2 92.59 102.09 109.2 113.18 112.77 108.74 102.07 92.09
1707.167 79.51 65.78 52.68 41.64 32.82 25.88 20.41 16.49 13.62 11.45
1726.457 9.92 8.71 7.79 7.05 6.47 6.14 5.79 5.4 5.15 4.97
1745.747 4.74 4.42 4.18 3.98 3.78 3.66 3.51 3.33 3.18 3.04
1765.037 2.97 2.92 2.83 2.69 2.6 2.62 2.69 2.65 2.63 2.69
1784.327 2.74 2.76 2.83 2.88 2.9 2.96 3.01 3.04 3.06 3.11
1803.617 3.08 3 2.83 2.65 2.5 2.3 2.11 1.98 1.89 1.83
1822.907 1.73 1.62 1.56 1.51 1.51 1.5 1.47 1.52 1.54 1.54
1842.197 1.54 1.434 1.4318 1.49 1.49 1.54 1.58 1.51 1.48 1.5
1861.487 1.53 1.58 1.56 1.58 1.63 1.62 1.65 1.72 1.78 1.87
1880.777 1.92 1.95 2.03 2.17 2.25 2.25 2.28 2.31 2.36 2.35
1900.067 2.31 2.34 2.35 2.35 2.39 2.4 2.36 2.36 2.3 2.25
1919.357 2.23 2.16 2.11 2.08 2.07 2.02 1.91 1.84 1.85 1.86
1938.647 1.84 1.81 1.75 1.74 1.7 1.6 1.51 1.47 1.48 1.51
1957.937 1.46 1.3918 1.3566 1.3489 1.3283 1.3532 1.3902 1.3238 1.3093 1.2886
1977.227 1.2361 1.2633 1.3098 1.2979 1.3228 1.3045 1.2558 1.2623 1.2589 1.2423
1996.517 1.294 1.284 1.1636 1.1181 1.1325 1.1282 1.1059 1.0861 1.1019 1.0603
2015.807 1.0253 1.0721 1.1073 1.1017 1.0527 1.016 1.0345 1.0414 0.9914 1.0466
2035.097 1.1329 1.0957 1.059 1.0424 1.053 1.0749 1.0244 1.0084 0.9703 0.9338
2054.387 0.9701 1.0284 1.0295 0.9406 0.9506 1.0217 1.002 0.9781 0.9509 0.9622
2073.677 0.9874 0.9942 1.0743 1.0781 1.014 1.0196 1.0113 0.966 0.9933 0.968
2092.967 0.9411 1.0017 1.0045 0.9949 1.0293 1.0525 1.0169 0.9455 0.9291 1.007
2112.257 1.0752 1.0428 0.9854 0.9756 0.9928 0.9816 0.9798 0.9726 0.9643 1.0135
2131.547 0.9966 0.8951 0.8737 0.8878 0.8878 0.9168 0.9161 0.9009 0.882 0.883
2150.837 0.9629 1.0019 1.0043 0.9967 0.9629 0.968 0.9067 0.8617 0.9508 1.0342
2170.127 1.0698 1.0939 1.0808 1.0309 0.9833 0.9661 0.9502 0.9511 1.0432 1.0635
2189.417 0.974 1.0079 1.0438 1.0215 1.081 1.0742 1.0258 0.9821 0.9715 0.9805
2208.707 0.9716 1.0904 1.0883 1.0246 1.0624 1.0239 0.9944 1.0138 0.9843 0.9586
2227.997 0.9406 0.9283 0.9975 1.0772 1.0592 1.0863 1.0917 1.0045 0.9653 1.0265
2247.287 1.073 1.0807 1.1247 1.0914 1.06 1.0911 1.1186 1.14 1.1489 1.1213
2266.577 1.1316 1.1219 1.0765 1.1537 1.2421 1.1987 1.1739 1.1767 1.1641 1.2361
2285.868 1.2559 1.2334 1.2274 1.2409 1.3477 1.3889 1.34 1.3586 1.3765 1.4387
2305.158 1.5 1.44 1.47 1.45 1.3609 1.3293 1.3256 1.3078 1.2624 1.3013
2324.448 1.3031 1.1977 1.0961 1.1092 1.1339 1.0526 1.1024 1.141 1.0746 1.1061
2343.738 1.1551 1.2012 1.2445 1.2138 1.0755 1.009 1.0464 1.0254 1.0644 1.1644
2363.028 1.1011 0.9802 1.0291 1.1523 1.1399 1.0635 1.1109 1.1679 1.2273 1.3035
2382.318 1.3043 1.2662 1.2166 1.1851 1.2626 1.2807 1.2607 1.3128 1.3608 1.4084
2401.608 1.3654 1.3673 1.3882 1.3601 1.3659 1.3822 1.3773 1.3969 1.4324 1.46
2420.898 1.48 1.435 1.4246 1.4324 1.4083 1.3708 1.2852 1.2397 1.2602 1.2355
2440.188 1.1685 1.1491 1.1512 1.1625 1.2025 1.2597 1.3107 1.2245 1.1394 1.1617
2459.478 1.1068 1.1209 1.1479 1.1328 1.1578 1.2058 1.1655 1.0963 1.1401 1.1301
2478.768 1.1167 1.1391 1.093 1.083 1.122 1.1246 1.1294 1.1708 1.169 1.1568
2498.058 1.1299 1.1112 1.1788 1.1518 1.1329 1.1398 1.1068 1.1225 1.089 1.1113
2517.348 1.1807 1.197 1.227 1.218 1.1773 1.2171 1.2552 1.1883 1.2826 1.3973
2536.638 1.2883 1.1797 1.1703 1.2001 1.2048 1.2094 1.2141 1.2412 1.206 1.1815
2555.928 1.2496 1.2818 1.3551 1.3743 1.35 1.345 1.3553 1.4195 1.4034 1.3751
2575.218 1.49 1.58 1.56 1.59 1.6 1.52 1.47 1.4123 1.3902 1.3742
2594.508 1.3545 1.3517 1.3937 1.4067 1.312 1.2793 1.2833 1.2866 1.2586 1.2587
2613.798 1.2763 1.2219 1.2503 1.3276 1.2407 1.2302 1.3023 1.2062 1.1017 1.0983
2633.088 1.1107 1.1707 1.2055 1.2123 1.2446 1.2037 1.0867 1.0265 1.1124 1.1826
2652.378 1.2001 1.2553 1.2717 1.2884 1.3063 1.2185 1.2342 1.4042 1.53 1.46
2671.668 1.3614 1.4392 1.45 1.47 1.51 1.45 1.3678 1.3614 1.47 1.4336
2690.958 1.3785 1.4361 1.48 1.53 1.46 1.45 1.53 1.51 1.4299 1.3974
2710.248 1.51 1.6 1.6 1.61 1.53 1.47 1.53 1.71 1.78 1.75
2729.538 1.87 1.93 2.05 2.21 2.26 2.24 2.28 2.33 2.37 2.38
2748.828 2.34 2.25 2.19 2.15 2.07 2.11 2.18 2.19 2.02 1.89
2768.118 1.93 1.99 2.01 1.97 2.03 2.17 2.31 2.36 2.34 2.45
2787.408 2.51 2.56 2.64 2.66 2.74 2.72 2.74 2.84 2.96 3.19
2806.698 3.29 3.27 3.34 3.57 3.78 3.86 3.94 4.07 4.03 4.01
2825.988 4.21 4.34 4.41 4.62 4.83 4.95 5.21 5.48 5.64 5.86
2845.278 6.21 6.65 7.01 7.44 8.03 8.69 9.34 10.1 11.13 12.33
2864.568 13.76 15.24 16.79 18.52 20.35 22.22 23.95 25.63 26.87 27.6
2883.858 27.92 27.92 27.64 27.14 26.43 25.67 25.15 24.89 24.82 24.82
2903.148 25 25.3 25.55 26.02 26.59 27.07 27.7 28.47 29.4 30.76
2922.438 32.48 34.38 36.63 38.92 41.07 43.04 44.58 45.62 46.15 46.05
2941.728 45.27 43.99 42.63 41.46 40.36 39.49 39.04 39.28 40.4 42.19
2961.018 44.73 48.09 51.54 54.56 56.7 57.57 57.22 55.83 52.96 48.97
2980.308 44.55 39.99 35.98 32.39 29.23 26.53 24.23 22.44 21.02 19.81
2999.598 18.85 18.08 17.46 16.92 16.39 16.03 15.72 15.43 15.35 15.48
3018.888 15.84 16.55 17.46 18.63 20.1 21.59 22.63 23.04 23.17 23.06
3038.178 22.18 20.73 19.11 17.58 16.37 15.38 14.74 14.12 13.55 13.16
3057.468 12.79 12.51 12.31 12.02 11.71 11.53 11.25 10.94 10.68 10.5
3076.758 10.36 10.07 9.83 9.85 9.75 9.46 9.29 9.06 8.6 8.18
3096.048 7.59 6.92 6.58 6.03 5.25 4.79 4.55 4.39 4.18 3.96
3115.338 3.84 3.78 3.63 3.42 3.15 2.93 2.84 2.79 2.73 2.4
3134.628 2.11 2.05 2.07 2 1.85 1.74 1.65 1.59 1.47 1.3759
3153.918 1.4235 1.56 1.3999 1.2795 1.3846 1.3126 1.2023 1.244 1.2594 1.1046
3173.208 1.0107 0.9332 0.8053 0.8475 0.9666 0.9288 0.9666 1.0268 0.9799 1.0031
3192.498 0.8942 0.771 0.7927 0.7987 0.7891 0.7669 0.82 0.8723 0.8197 0.7659
3211.788 0.7857 0.8084 0.7018 0.7406 0.6754 0.5504 0.51277 0.53038 0.7062 0.7595
3231.078 0.7169 0.6651 0.585 0.4525 0.51513 0.6705 0.6038 0.4177 0.4278 0.46006
3250.368 0.48991 0.5619 0.43129 0.48739 0.6306 0.52743 0.441395 0.46335 0.53809 0.6184
3269.658 0.5832 0.4163 0.442004 0.5448 0.5648 0.739 0.6821 0.45153 0.46191 0.48777
3288.948 0.5762 0.51373 0.278 0.194 0.242 0.43121 0.4614 0.43715 0.53491 0.5521
3308.238 0.48217 0.4644 0.49139 0.53178 0.53945 0.43573 0.338 0.313 0.362 0.3755
3327.528 0.43582 0.51536 0.567 0.6777 0.7862 0.7316 0.7312 0.7308 0.8045 0.9364
3346.818 0.8852 0.9202 1.009 1.0185 1.1681 1.3568 1.3593 1.47 1.44 1.5
3366.108 1.85 1.97 1.96 1.96 2.03 2.09 1.98 1.94 1.87 1.73
3385.398 1.65 1.58 1.44 1.4048 1.3989 1.2262 1.0099 0.852 0.8216 0.72
3404.688 0.726 0.6862 0.5444 0.643 0.52141 0.3941 0.4732 0.51021 0.5711 0.5752
3423.978 0.4652 0.339 0.278 0.294 0.3729 0.3402 0.4134 0.48606 0.53589 0.48566
3443.269 0.26 0.296 0.357 0.288 0.264 0.266 0.32 0.332 0.3443 0.4208
3462.559 0.3624 0.3837 0.4019 0.281 0.34 0.3822 0.289 0.281 0.338 0.263
3481.849 0.129 0.113 0.209 0.255 0.256 0.315 0.3753 0.3683 0.331 0.261
3501.139 0.226 0.267 0.259 0.229 0.234 0.261 0.179 0.041 0.038 0.165
3520.429 0.297 0.3756 0.3428 0.27 0.111 0 0.031 0.242 0.4253 0.3879
3539.719 0.341 0.337 0.51527 0.45164 0.222 0.2 0.143 0.127 0.268 0.3961
3559.009 0.43027 0.329 0.319 0.46372 0.5077 0.49362 0.325 0.152 0.234 0.265
3578.299 0.248 0.231 0.183 0.313 0.364 0.304 0.331 0.267 0.295 0.4246
3597.589 0.281 0.184 0.173 0.154 0.194 0.232 0.268 0.3414 0.421 0.322
3616.879 0.247 0.158 0.194 0.33 0.311 0.303 0.3 0.26 0.251 0.332
3636.169 0.232 0.163 0.217 0.192 0.247 0.3773 0.3749 0.268 0.4197 0.47883
3655.459 0.440343 0.4866 0.45203 0.231 0.121 0.3484 0.43793 0.47824 0.3469 0.28
3674.749 0.4208 0.314 0.4233 0.5466 0.4228 0.3461 0.298 0.171 0.192 0.3929
3694.039 0.4226 0.267 0.418 0.6252 0.46153 0.3 0.282 0.164 0.034 0.073
3713.329 0.221 0.45011 0.5411 0.5644 0.43574 0.25 0.237 0.278 0.261 0.224
3732.619 0.142 0.035 0.042 0.248 0.49994 0.3448 0.127 0.203 0.128 0.007
3751.909 0.056 0.105 0.227 0.252 0.153 0.201 0.214 0.181 0.3778 0.50098
3771.199 0.444972 0.31 0.223 0.195 0.166 0.313 0.3405 0.3497 0.52958 0.4273
3790.489 0.318 0.47718 0.445711 0.3577 0.27 0.149 0.234 0.4203 0.299 0.3952
3809.779 0.6278 0.47074 0.3851 0.399 0.46043 0.43515 0.3835 0.3545 0.353 0.3893
3829.069 0.307 0.244 0.3883 0.46677 0.335 0.301 0.3941 0.47308 0.46089 0.334
3848.359 0.234 0.27 0.292 0.3629 0.3516 0.245 0.269 0.302 0.418 0.50619
3867.649 0.396 0.265 0.199 0.288 0.48818 0.6085 0.613 0.571 0.5515 0.47523
3886.939 0.3495 0.4005 0.3924 0.43728 0.47983 0.3874 0.46868 0.3543 0.252 0.3
3906.229 0.445752 0.6227 0.6899 0.6957 0.319 0.222 0.399 0.443105 0.5439 0.5964
3925.519 0.6018 0.5844 0.43429 0.43314 0.46854 0.4049 0.50207 0.51249 0.6134 0.602
3944.809 0.288 0.306 0.49052 0.45238 0.3421 0.43455 0.50316 0.50906 0.5659 0.6313
3964.099 0.7226 0.5764 0.6304 0.7436 0.7495 0.6444 0.4077 0.6247 0.6608 0.47801
3983.389 0.4027 0.50918 0.5635 0.449383 0.627 0.6021 0.604 0.6465 0.47016 0.4032
##END=
