##TITLE=3-Nitro-4-chlorobenzanilide
##JCAMP-DX=4.24
##DATA TYPE=INFRARED SPECTRUM
##ORIGIN=EPA-IR VAPOR PHASE LIBRARY
##OWNER=SRD/NIST
Collection (C) 2018 copyright by the U.S. Secretary of Commerce
on behalf of the United States of America. All rights reserved.
##CAS REGISTRY NO=41614-16-8
##MOLFORM=C 13 H 9 Cl N 2 O 3
##$NIST SOURCE=MSDC-IR
##STATE=gas
##XUNITS=1/CM
##YUNITS=ABSORBANCE
##XFACTOR=1.
##YFACTOR=0.001
##DELTAX=1.92898
##FIRSTX=549.8
##LASTX=4000.7
##FIRSTY=4.72
##MAXX=4000.7
##MINX=549.759
##MAXY=0.04781
##MINY=0
##NPOINTS=1790
##XYDATA=(X++(Y..Y))
549.759 4.72 4.31 4.34 4.52 4.33 4.2 4.26 4.32 4.2 4.07
569.049 4.37 4.25 4.25 4.41 4.18 3.55 3.54 3.8 3.34 3.42
588.339 3.39 3.46 3.36 2.94 2.95 3.06 3.15 2.78 2.67 3
607.628 3.2 3.2 2.95 3.09 3.29 3.05 2.93 2.96 3.07 2.97
626.918 2.67 2.4816 2.51 2.69 2.82 3 2.99 2.87 2.96 2.72
646.208 2.6 2.58 2.76 3.22 3.24 3.32 3.91 4.51 5.1 5.61
665.498 5.83 5.77 5.7 5.48 5.3 5.62 5.81 5.97 6.1 6.32
684.787 6.67 6.71 6.8 7.05 6.91 6.53 6.32 6.29 6.02 5.43
704.077 5.14 4.96 4.63 4.53 4.53 4.39 4.23 4.49 4.65 4.5
723.367 4.57 4.92 5.55 5.97 6.26 6.92 7.39 8.31 9.57 10.65
742.657 12.28 13.72 14.62 15.17 15.33 15.15 14.13 12.72 11.56 10.17
761.947 8.7 7.53 6.37 5.42 4.9 4.58 4.41 4.11 3.69 3.59
781.236 3.68 3.88 3.71 3.54 3.72 3.52 3.44 3.56 3.37 3.25
800.526 3.38 3.48 3.53 3.59 3.58 3.7 3.85 4.12 4.37 4.72
819.816 4.99 5.06 5.13 5.19 5.06 4.64 4.74 4.88 4.69 4.62
839.106 4.93 4.9 4.7 4.69 4.27 3.73 3.41 3.61 3.84 3.59
858.395 3.4 3.62 3.75 3.36 3.25 3.55 3.36 3.38 3.6 3.33
877.685 3.1 3.15 3.11 2.87 2.9 3.24 3.64 3.64 3.51 3.68
896.975 3.58 3.74 4.01 3.95 4.03 4.15 4.17 4.08 4.3 4.63
916.265 4.46 4.32 4.56 4.68 4.53 4.09 3.91 4.07 4.01 3.71
935.555 3.42 3.26 2.96 2.4459 2.2236 2.4829 2.4995 2.3708 2.3542 2.4324
954.844 2.4912 2.217 2.1611 2.1299 2.0651 2.0595 2.0895 2.2397 2.2057 2.0971
974.134 2.0012 2.0221 1.9436 1.8214 1.8264 1.8667 1.9668 2.0718 2.1942 2.3649
993.424 2.4417 2.454 2.4365 2.3118 2.2733 2.4904 2.2889 2.1949 2.57 2.74
1012.714 2.6 2.3392 2.4731 2.89 3.43 3.32 2.94 3.05 3.85 4.38
1032.003 4.27 4.36 4.68 5.05 6.22 7.81 9.28 11.08 12.55 13.37
1051.293 13.3 12.01 9.79 7.72 6.04 4.94 4.84 4.73 4.53 4.69
1070.583 4.65 4.77 4.81 4.78 4.51 4.39 4.92 5.16 5.63 6.14
1089.873 5.74 6.43 7.86 8.31 8.94 8.88 8.34 7.93 7.72 7.44
1109.163 7.15 6.69 5.33 5.17 5.5 5.2 4.71 4.37 4.43 4.24
1128.452 4.23 3.9 3.59 3.71 3.87 3.88 3.77 3.75 3.88 4.05
1147.742 3.92 4.34 4.79 4.82 4.59 4.46 4.1 3.83 3.98 4.1
1167.032 3.97 4.07 4.43 4.23 4.48 4.7 4.64 4.87 4.71 5.21
1186.322 5.58 5.31 5.63 5.8 6.17 6.42 6.8 7.57 7.68 7.79
1205.611 8.59 9.21 9.55 10.1 10.89 11.56 12.35 13.91 15.41 16.5
1224.901 18.09 20.28 21.79 22.36 22.26 22 21.79 21.06 20.16 19.58
1244.191 18.88 17.86 16.73 15.36 14.04 13.12 12.35 11.56 11.11 10.86
1263.481 10.4 10.49 10.8 10.62 10.28 10.16 10.2 10.64 11.18 11.51
1282.771 11.72 12.2 12.77 13.01 13.05 13.26 13.66 14.33 15.4 16.7
1302.060 18.31 19.86 21 21.83 22.19 22.05 21.8 21.57 21.21 20.6
1321.350 19.71 18.46 17.03 15.71 14.84 14.33 13.93 13.98 14.35 14.8
1340.640 15.36 15.98 16.69 17.52 18.25 18.93 19.43 19.51 19.14 18.28
1359.930 17.01 15.38 13.59 11.93 10.45 9.22 8.23 7.39 6.81 6.4
1379.219 6.03 5.85 5.7 5.44 5.26 5.2 5.17 5.09 5.1 5.17
1398.509 5.24 5.29 5.25 5.36 5.52 5.57 5.71 5.99 6.42 6.92
1417.799 7.45 8.33 9.71 11.35 13.37 15.99 19.41 23.31 27.49 31.11
1437.089 33.29 33.38 31 26.81 21.99 17.6 14.31 11.92 10.3 9.43
1456.378 8.83 8.53 8.63 8.89 9.29 10.03 11 11.97 12.96 13.82
1475.668 14.21 14.07 13.67 13.09 12.53 12.33 12.7 13.73 15.43 17.92
1494.958 21.44 25.94 30.18 33.31 35.22 36.18 36.97 38.57 40.97 43.47
1514.248 45.71 47.33 47.81 47.09 45.08 42.32 38.92 35.09 31.51 28.47
1533.538 25.95 24.1 23.04 22.33 22.18 22.65 23.4 24.51 25.76 27.1
1552.827 28.05 28.37 28.18 27.2 25.67 24.06 22.31 20.54 18.84 17.42
1572.117 16.35 15.4 14.77 14.54 14.51 14.54 14.7 15.13 15.9 16.87
1591.407 18.22 19.94 21.84 23.71 25.17 25.84 25.56 24.24 21.76 18.8
1610.697 15.9 13.28 11.11 9.27 8.04 7.08 6.29 5.75 5.27 4.99
1629.986 4.79 4.51 4.26 4.04 4.03 4.11 4.09 4.15 4.12 4.08
1649.276 4.18 4.15 4.02 4.04 4.17 4.28 4.43 4.51 4.59 4.72
1668.566 4.7 4.73 4.97 5.12 5.22 5.49 5.79 6.18 6.69 7.21
1687.856 7.87 8.76 9.9 11.36 13.24 15.61 18.33 21.71 24.73 27.83
1707.146 30.64 32.38 32.87 32.24 30.47 27.65 24.08 20.52 17.21 14.63
1726.435 12.59 10.97 9.7 8.52 7.78 7.25 6.71 6.28 5.82 5.37
1745.725 4.93 4.58 4.38 4.22 3.93 3.7 3.67 3.67 3.51 3.46
1765.015 3.38 3.24 3.29 3.29 3.23 3.25 3.2 3.07 2.98 2.84
1784.305 2.69 2.66 2.63 2.65 2.62 2.54 2.4855 2.4514 2.3545 2.2451
1803.594 2.311 2.3715 2.3304 2.3231 2.2843 2.2791 2.239 2.0913 2.0861 2.1489
1822.884 2.1506 2.0787 2.0651 2.108 2.0847 1.9751 2.0396 2.1449 2.1047 2.1232
1842.174 2.0947 1.9417 1.9634 2.0638 2.0722 2.0061 2.0634 2.1528 2.1213 2.1151
1861.464 2.0585 2.0311 2.0086 2.0799 2.0773 2.002 2.0277 1.977 1.8527 1.816
1880.754 1.8929 1.9271 1.8547 1.7763 1.7921 1.8393 1.8285 1.8105 1.8311 1.8213
1900.043 1.8043 1.7565 1.6975 1.746 1.8263 1.819 1.8284 1.887 1.8322 1.7735
1919.333 1.7532 1.7726 1.7991 1.8034 1.8443 1.8833 1.9306 1.9408 1.9538 1.9923
1938.623 1.9939 1.8853 1.8295 1.8326 1.8026 1.8128 1.8308 1.8246 1.7842 1.7774
1957.913 1.7218 1.6433 1.54898 1.56594 1.59011 1.4426 1.385 1.49782 1.4641 1.394
1977.202 1.4441 1.4546 1.4572 1.4174 1.365 1.4313 1.459 1.4238 1.52158 1.52789
1996.492 1.4562 1.321 1.346 1.5151 1.52955 1.4454 1.4534 1.4773 1.4858 1.51641
2015.782 1.4666 1.4485 1.4509 1.395 1.367 1.4477 1.4688 1.374 1.4127 1.391
2035.072 1.35 1.391 1.4106 1.4673 1.4212 1.4362 1.4747 1.384 1.326 1.394
2054.362 1.4201 1.343 1.373 1.344 1.294 1.359 1.356 1.381 1.305 1.295
2073.651 1.349 1.326 1.341 1.365 1.4185 1.4311 1.4126 1.4249 1.343 1.347
2092.941 1.396 1.353 1.363 1.284 1.279 1.303 1.309 1.395 1.376 1.326
2112.231 1.271 1.208 1.224 1.255 1.261 1.276 1.34 1.359 1.272 1.304
2131.521 1.351 1.277 1.235 1.279 1.375 1.356 1.244 1.229 1.244 1.232
2150.810 1.235 1.214 1.291 1.314 1.246 1.209 1.33 1.349 1.243 1.313
2170.100 1.311 1.297 1.299 1.222 1.229 1.272 1.272 1.217 1.251 1.341
2189.390 1.324 1.4113 1.4119 1.287 1.212 1.221 1.176 1.152 1.307 1.349
2208.680 1.303 1.206 1.109 1.175 1.219 1.19 1.238 1.128 1.001 1.047
2227.970 1.092 1.133 1.087 1.091 1.181 1.187 1.159 1.151 1.182 1.161
2247.259 1.125 1.145 1.204 1.158 1.049 1.156 1.147 1.118 1.201 1.148
2266.549 1.093 1.11 1.082 1.082 1.106 1.048 1.1 1.18 1.099 0.986
2285.839 1.056 1.168 1.109 1.03 1.061 1.186 1.161 1.219 1.273 1.147
2305.129 1.133 1.153 1.183 1.226 1.312 1.266 1.274 1.204 1.008 1.101
2324.418 1.164 0.993 0.977 1.074 1.106 1.082 1.036 1.072 1.04 1.085
2343.708 1.184 1.124 1.043 1.093 1.11 1.172 1.272 1.16 1.017 1.062
2362.998 1.118 1.096 1.171 1.132 1.061 1.138 1.156 1.127 1.123 1.11
2382.288 1.123 1.101 1.162 1.263 1.239 1.263 1.295 1.267 1.272 1.202
2401.578 1.138 1.153 1.125 1.113 1.146 1.085 0.99 0.999 1.092 1.194
2420.867 1.196 1.063 1.061 1.123 1.098 1.177 1.174 1.124 1.12 1.183
2440.157 1.263 1.175 1.074 1.072 1.121 1.208 1.22 1.23 1.229 1.14
2459.447 1.114 1.254 1.395 1.285 1.088 1.119 1.067 1.019 1.111 1.155
2478.737 1.213 1.122 0.997 1.017 1.097 1.108 1.001 1.004 1.048 1.062
2498.026 1.147 1.176 1.181 1.024 0.977 1.089 1.13 1.126 1.065 1.023
2517.316 0.847 0.823 1.016 1.143 1.141 1.04 1.105 1.085 1.126 1.284
2536.606 1.243 1.113 1.069 1.101 1.06 1.152 1.201 1.084 1.124 1.081
2555.896 0.974 0.953 1.062 1.138 1.013 0.954 0.985 1.094 1.104 1.083
2575.186 1.03 1.04 1.022 0.869 0.789 0.798 0.907 0.999 0.946 0.957
2594.475 1.028 0.998 1.055 1.072 0.965 1.018 1.107 1.102 1.075 1.072
2613.765 1.099 1.086 1.042 1.049 1.042 1.126 1.055 0.925 1.08 1.094
2633.055 0.993 0.936 0.847 0.773 0.963 1.088 1.057 0.987 0.999 1.021
2652.345 0.931 0.917 0.895 0.852 0.943 0.918 0.838 0.937 0.91 0.935
2671.634 0.967 0.812 0.814 0.911 0.799 0.871 1.037 1.051 0.947 0.824
2690.924 0.914 1.056 0.965 0.857 0.97 1.137 1.04 0.793 0.811 0.815
2710.214 0.862 0.96 0.818 0.873 1.07 1.096 0.977 0.898 0.841 0.673
2729.504 0.722 0.909 0.971 0.971 0.782 0.681 0.818 0.944 1.115 1.037
2748.794 0.914 0.928 0.878 0.809 0.809 0.861 0.918 1.053 1.053 0.873
2768.083 0.805 0.864 0.767 0.671 0.787 0.706 0.676 0.82 0.729 0.646
2787.373 0.608 0.59 0.65 0.697 0.724 0.604 0.611 0.82 0.969 0.908
2806.663 0.797 0.754 0.683 0.764 0.811 0.754 0.739 0.835 0.972 0.949
2825.953 0.936 0.878 0.767 0.829 0.829 0.943 0.905 0.771 0.764 0.71
2845.242 0.579 0.583 0.839 0.96 0.844 0.742 0.82 0.989 1.183 1.045
2864.532 0.89 0.922 1.065 1.129 1.055 1.132 1.005 0.789 0.846 0.824
2883.822 0.816 1.006 1.26 1.192 0.993 0.91 1.018 1.235 1.179 0.999
2903.112 0.939 1.034 0.981 0.963 1.059 1.102 1.134 1.143 1.194 1.129
2922.401 1.025 1.074 1.153 1.004 0.877 1.016 1.015 0.884 0.888 0.776
2941.691 0.794 0.978 0.89 0.743 0.761 0.687 0.534 0.725 0.698 0.592
2960.981 0.795 0.867 0.838 0.747 0.681 0.642 0.638 0.928 1.128 0.965
2980.271 0.833 0.938 1.112 1.039 0.917 0.975 1.089 1.042 0.806 0.753
2999.561 0.929 1.135 1.171 0.975 1.02 1.235 1.336 1.426 1.4891 1.57102
3018.850 1.7989 2.1588 2.363 2.4226 2.4901 2.78 3 2.98 3.09 3.2
3038.140 2.98 2.64 2.72 2.58 2.3138 2.4275 2.4667 2.4518 2.6 2.75
3057.430 2.97 3.13 3.44 3.87 4.17 4.55 4.79 4.98 4.75 4.57
3076.720 4.52 4.37 4.21 3.89 3.67 3.26 3.01 3.1 2.91 2.74
3096.009 2.58 2.1906 2.1728 2.59 2.4608 2.1946 2.2196 1.988 1.722 1.56901
3115.299 1.378 1.341 1.461 1.296 1.112 1.171 1.192 1.213 1.068 0.918
3134.589 0.756 0.578 0.743 0.858 0.747 0.686 0.902 1.032 1.018 1.029
3153.879 1.078 1.119 1.013 0.922 0.697 0.516 0.59 0.725 0.748 0.777
3173.169 0.9 0.815 0.825 0.859 0.694 0.823 0.852 0.795 0.758 0.643
3192.458 0.575 0.649 0.759 0.595 0.593 0.855 0.829 0.551 0.599 0.682
3211.748 0.679 0.755 0.737 0.697 0.724 0.784 0.898 0.747 0.758 0.942
3231.038 0.917 0.796 0.57 0.705 0.798 0.848 0.934 0.71 0.686 0.762
3250.328 0.708 0.654 0.59 0.695 0.753 0.733 0.801 0.911 0.782 0.725
3269.617 0.957 0.904 0.624 0.857 1.153 0.979 0.756 0.596 0.44 0.568
3288.907 0.731 0.741 0.799 0.746 0.739 0.805 0.888 0.886 0.94 0.843
3308.197 0.706 0.818 0.911 0.835 0.766 0.678 0.756 0.734 0.748 1.062
3327.487 1.129 1.094 1.098 0.969 0.896 0.944 1.032 0.975 0.828 0.715
3346.777 0.716 0.824 0.746 0.808 0.803 0.717 0.836 0.833 0.901 0.879
3366.066 0.76 0.893 0.91 0.742 0.736 0.887 1.008 1.067 1.054 0.936
3385.356 1.058 1.327 1.53723 1.6156 1.51614 1.4265 1.4253 1.50804 1.56925 1.8101
3404.646 2.1891 2.0503 1.8647 2.0843 2.0268 1.7008 1.57568 1.59936 1.6277 1.6415
3423.936 1.4035 1.335 1.54403 1.4826 1.349 1.4317 1.489 1.4573 1.4819 1.56236
3443.225 1.8331 2.062 2.1435 2.1505 2.0925 2.2757 2.72 2.88 2.68 2.81
3462.515 2.94 2.94 3.07 2.91 2.4856 2.2613 2.0438 1.8418 1.4613 1.227
3481.805 1.4316 1.259 0.983 1.154 1.364 1.265 0.969 0.872 1.101 1.03
3501.095 0.706 0.839 0.802 0.82 1.089 0.959 0.984 0.887 0.994 1.212
3520.385 1.139 1.299 0.92 0.752 0.897 0.889 0.79 0.772 0.932 0.792
3539.674 0.938 1.005 1.078 1.136 1.002 1.099 1.121 1.044 1.014 0.883
3558.964 0.814 0.926 1.183 1.12 0.774 0.508 0.627 0.913 0.964 1.03
3578.254 1.065 1.089 1.288 1.174 0.759 1.014 1.223 1.053 1.09 0.956
3597.544 0.896 0.825 0.828 1.024 0.991 0.84 0.879 0.842 0.683 0.805
3616.833 1.01 1.186 1.047 0.769 0.673 0.607 0.671 0.678 0.737 1.159
3636.123 1.129 1.064 1.15 1.032 0.934 0.955 0.915 0.829 0.98 1.069
3655.413 0.872 0.819 1.075 1.008 0.918 1.035 1.218 1.14 1.08 1.079
3674.703 0.663 0.6 0.685 0.57 0.598 0.677 0.634 0.642 0.983 0.949
3693.993 0.939 1.052 0.588 0.566 0.827 0.882 0.829 0.864 1.048 0.859
3713.282 0.68 0.67 0.616 0.656 1.048 1.05 0.784 0.922 0.741 0.43
3732.572 0.664 0.818 0.814 0.836 0.684 0.763 0.774 0.731 0.739 0.812
3751.862 0.674 0.539 0.573 0.524 0.528 0.539 0.755 0.993 0.759 0.5
3771.152 0.658 0.869 0.922 0.719 0.77 0.802 0.671 0.819 0.958 1.045
3790.441 1.317 0.979 0.633 0.618 0.652 0.589 0.35 0.786 0.864 0.694
3809.731 0.819 1.108 1.158 0.795 0.556 0.591 0.882 0.906 0.644 0.755
3829.021 1.026 0.67 0.825 1.049 0.567 0.611 0.719 0.624 0.595 0.739
3848.311 0.723 0.555 0.581 0.806 0.932 0.97 0.845 0.808 0.985 0.984
3867.601 0.685 0.44 0.767 0.936 0.999 1.043 0.907 0.985 0.936 0.602
3886.890 0.806 0.825 0.515 0.601 0.804 0.871 0.751 0.772 0.562 0.1
3906.180 0.3 0.733 0.819 0.835 0.684 0.36 0.625 0.88 0.674 0.972
3925.470 0.948 0.628 0.576 0.601 0.45 0.4 0.567 0.573 0.48 0.47
3944.760 0.564 0.26 0.42 0.46 0.24 0.555 0.35 0 0.38 0.571
3964.049 0.573 0.46 0.43 0.49 0.46 0.746 1.144 1.118 0.714 0.744
3983.339 0.621 0.46 0.575 0.567 0.668 0.785 0.725 0.669 0.62 0.549
##END=
