##TITLE=1,4-Diformylpiperazine
##JCAMP-DX=4.24
##DATA TYPE=INFRARED SPECTRUM
##ORIGIN=EPA-IR VAPOR PHASE LIBRARY
##OWNER=SRD/NIST
Collection (C) 2018 copyright by the U.S. Secretary of Commerce
on behalf of the United States of America. All rights reserved.
##CAS REGISTRY NO=4164-39-0
##MOLFORM=C 6 H 10 N 2 O 2
##$NIST SOURCE=MSDC-IR
##STATE=gas
##XUNITS=1/CM
##YUNITS=ABSORBANCE
##XFACTOR=1.
##YFACTOR=0.001
##DELTAX=1.92934
##FIRSTX=549.9
##LASTX=3999.5
##FIRSTY=5.46
##MAXX=3999.53
##MINX=549.863
##MAXY=0.66599
##MINY=0
##NPOINTS=1789
##XYDATA=(X++(Y..Y))
549.863 5.46 6.12 6.74 7.4 8.02 8.53 8.8 8.85 8.8 8.6
569.156 8.22 7.58 6.87 6.21 5.57 4.91 4.41 3.97 3.6259 3.345
588.450 3.0933 2.9505 2.77713 2.59 2.439 2.392 2.335 2.279 2.195 2.164
607.743 2.194 2.187 2.183 2.21 2.283 2.408 2.462 2.463 2.506 2.593
627.037 2.7316 2.83641 2.9435 3.0097 3.0274 3.1315 3.3028 3.5069 3.7 4
646.330 4.44 4.94 5.37 5.76 6.19 6.45 6.63 6.71 6.62 6.38
665.624 6.11 5.77 5.19 4.64 4.17 3.7144 3.253 2.82231 2.459 2.221
684.917 2.008 1.803 1.68 1.64 1.58 1.51 1.46 1.42 1.42 1.4
704.210 1.39 1.42 1.41 1.34 1.37 1.37 1.33 1.31 1.3 1.27
723.504 1.27 1.29 1.29 1.33 1.35 1.34 1.38 1.44 1.48 1.54
742.797 1.57 1.6 1.68 1.72 1.72 1.71 1.68 1.67 1.68 1.68
762.091 1.71 1.7 1.7 1.71 1.66 1.67 1.7 1.7 1.71 1.68
781.384 1.64 1.59 1.59 1.65 1.7 1.7 1.75 1.819 1.908 2.163
800.678 2.482 2.9283 3.6289 4.63 6.04 7.8 9.69 11.38 12.51 13.26
819.971 13.74 13.87 14.03 13.81 12.59 10.71 8.83 7.3 6.11 5.31
839.264 4.89 4.77 4.8 4.79 4.7 4.57 4.5 4.35 4.09 3.84
858.558 3.4931 3.0579 2.613 2.237 2.024 1.876 1.76 1.73 1.7 1.67
877.851 1.68 1.68 1.7 1.79 1.844 1.862 1.949 1.972 1.973 1.989
897.145 2.005 2.008 2.007 1.99 1.955 1.966 1.991 2.019 2.001 1.934
916.438 1.926 2.014 2.074 2.114 2.222 2.349 2.424 2.432 2.445 2.53
935.732 2.59 2.645 2.7559 2.847 2.9313 3.0995 3.316 3.5775 3.89 4.23
955.025 4.56 4.87 5.2 5.54 5.9 6.25 6.65 7.14 7.72 8.44
974.318 9.42 10.84 12.89 15.74 19.5 24.22 29.8 36.01 42.65 49.78
993.612 57.68 66.46 75.36 82.33 85.06 83.36 79.99 75.6 69.47 62.76
1012.905 54.08 42.73 31.23 21.93 15.57 11.56 9.11 7.7 6.85 6.27
1032.199 5.88 5.62 5.49 5.42 5.36 5.3 5.39 5.6 5.84 6.15
1051.492 6.53 6.88 7.11 7.3 7.48 7.71 7.95 8.11 8.11 7.95
1070.786 7.72 7.45 7.19 6.89 6.63 6.38 6.11 5.88 5.65 5.46
1090.079 5.26 5.08 4.94 4.81 4.73 4.74 4.83 4.93 5.06 5.23
1109.372 5.42 5.56 5.75 5.97 6.14 6.44 6.7 6.92 7.24 7.62
1128.666 8.01 8.45 9.07 9.77 10.51 11.44 12.5 13.76 15.5 17.59
1147.959 20.2 23.62 28.03 33.59 40.24 47.86 56.2 64.87 73.41 81.52
1167.253 89.02 95.18 98.95 99.45 96.41 91.17 85.76 81.34 77.94 75.8
1186.546 75.72 77.7 80.48 82.2 81.9 80.18 77.85 74.9 71.05 65.26
1205.840 56.65 46.68 37.37 29.86 24.56 21.1 18.97 17.7 16.97 16.47
1225.133 16.28 16.59 17.17 18.15 19.68 21.88 24.71 27.92 31.34 34.41
1244.426 36.81 38.41 39.19 39.27 38.72 37.52 35.92 34.19 32.56 31.61
1263.720 31.76 33.18 35.64 38.54 40.91 42.2 42.53 42.41 42.33 42.03
1283.013 40.71 37.89 33.84 29.33 24.95 21.07 17.84 15.19 13.05 11.27
1302.307 9.8 8.7 8.01 7.52 7.21 7.02 6.92 6.94 7.02 7.22
1321.600 7.44 7.7 8.01 8.35 8.76 9.19 9.71 10.34 11 11.7
1340.894 12.5 13.35 14.26 15.18 16.06 16.8 17.37 17.94 18.75 19.81
1360.187 20.86 21.85 22.91 24.13 25.72 27.77 30.36 33.69 38.07 43.78
1379.480 51.22 60.6 71.74 83.41 93.97 101.76 106.1 108.26 110.31 111.97
1398.774 113.17 113.83 111.88 108.48 106.39 106.78 108.96 111.4 112.92 112.91
1418.067 111.12 107.46 102.15 95.23 87.19 78.96 70.87 63.22 56.03 49.68
1437.361 44.29 40.27 37.34 34.99 32.98 31.35 30.16 29.29 28.44 27.45
1456.654 26.07 24.17 22.16 20.34 18.74 17.16 15.6 14.13 12.77 11.54
1475.948 10.48 9.55 8.79 8.19 7.73 7.37 7.06 6.76 6.44 6.18
1495.241 5.94 5.68 5.41 5.19 5.04 4.94 4.79 4.6 4.56 4.52
1514.534 4.39 4.33 4.3 4.22 4.12 4.03 3.94 3.83 3.742 3.6864
1533.828 3.6089 3.4872 3.4474 3.4615 3.452 3.429 3.3934 3.4198 3.4538 3.4968
1553.121 3.5774 3.6409 3.7182 3.7673 3.81 3.83 3.83 3.84 3.86 3.89
1572.415 3.85 3.81 3.8 3.7151 3.638 3.6333 3.6541 3.6671 3.6958 3.7737
1591.708 3.9 4.09 4.26 4.46 4.75 5.07 5.44 5.86 6.35 6.91
1611.002 7.52 8.14 8.81 9.54 10.14 10.6 11.04 11.29 11.37 11.28
1630.295 11.06 10.82 10.49 10.08 9.67 9.34 9.22 9.25 9.38 9.55
1649.588 9.8 10.2 10.71 11.27 12.15 13.35 14.93 16.91 19.16 21.46
1668.882 23.59 25.38 27.07 28.73 30.42 32.21 34.19 36.47 40.01 45.11
1688.175 52.66 63.76 79.58 102.21 137.92 189.59 262.18 361.01 464.1 559.84
1707.469 622.66 653.73 665.99 665.38 652.74 623.79 559.04 458.69 341.54 239.03
1726.762 164.97 117.03 86.76 67.46 53.77 43.94 37.01 31.81 28.1 25.55
1746.056 23.84 22.67 21.88 21.23 20.56 19.84 18.9 17.73 16.45 15.16
1765.349 13.99 12.92 12.03 11.33 10.73 10.22 9.81 9.46 9.15 8.85
1784.642 8.55 8.26 7.97 7.69 7.43 7.15 6.92 6.71 6.53 6.34
1803.936 6.2 6.06 5.93 5.8 5.67 5.55 5.45 5.34 5.24 5.1
1823.229 4.91 4.75 4.56 4.41 4.28 4.09 3.97 3.87 3.8 3.75
1842.523 3.6909 3.6954 3.7085 3.7102 3.7476 3.81 3.89 3.96 4 4.03
1861.816 3.96 3.88 3.79 3.6293 3.4965 3.3874 3.2203 3.0455 2.9238 2.82466
1881.110 2.784 2.7449 2.7265 2.7465 2.77269 2.80586 2.83824 2.87003 2.86708 2.87113
1900.403 2.87101 2.8289 2.80251 2.7589 2.694 2.617 2.54 2.501 2.431 2.37
1919.696 2.402 2.4 2.369 2.419 2.452 2.438 2.443 2.456 2.46 2.473
1938.990 2.502 2.49 2.505 2.558 2.58 2.616 2.632 2.6895 2.77909 2.8121
1958.283 2.87156 2.9349 2.9618 2.9624 2.98 3.003 3.0294 3.0574 3.051 3.0573
1977.577 3.0551 3.0334 3.0232 3.0498 3.0942 3.1652 3.2462 3.3253 3.4116 3.4962
1996.870 3.5844 3.6856 3.7347 3.7444 3.7468 3.7143 3.6454 3.549 3.4702 3.3849
2016.164 3.2864 3.1977 3.1452 3.0644 2.9622 2.9111 2.8822 2.83012 2.79868 2.78492
2035.457 2.7684 2.7484 2.715 2.675 2.646 2.629 2.598 2.586 2.577 2.564
2054.750 2.58 2.62 2.654 2.6867 2.7317 2.7694 2.80199 2.82381 2.81002 2.80264
2074.044 2.79129 2.78858 2.81299 2.83176 2.84218 2.83521 2.80989 2.79133 2.7547 2.6989
2093.337 2.661 2.619 2.53 2.413 2.335 2.249 2.169 2.109 2.028 1.959
2112.631 1.928 1.912 1.919 1.925 1.901 1.899 1.927 1.925 1.896 1.904
2131.924 1.939 1.926 1.888 1.852 1.842 1.862 1.82 1.794 1.812 1.818
2151.218 1.831 1.835 1.828 1.793 1.786 1.818 1.848 1.871 1.884 1.89
2170.511 1.907 1.9 1.9 1.931 1.974 2.005 2.043 2.067 2.099 2.122
2189.804 2.125 2.2 2.275 2.301 2.329 2.332 2.35 2.413 2.443 2.446
2209.098 2.427 2.437 2.444 2.433 2.459 2.445 2.424 2.436 2.43 2.406
2228.391 2.397 2.403 2.376 2.355 2.338 2.318 2.292 2.277 2.278 2.272
2247.685 2.256 2.213 2.185 2.19 2.188 2.146 2.17 2.22 2.245 2.267
2266.978 2.295 2.322 2.302 2.292 2.321 2.349 2.285 2.214 2.214 2.175
2286.272 2.134 2.101 2.022 1.964 1.942 1.925 1.907 1.88 1.851 1.822
2305.565 1.795 1.77 1.786 1.814 1.839 1.833 1.805 1.805 1.828 1.876
2324.858 1.893 1.89 1.914 1.944 1.974 1.984 1.996 2.046 2.06 2.075
2344.152 2.143 2.168 2.204 2.241 2.292 2.366 2.417 2.483 2.58 2.644
2363.445 2.6834 2.7505 2.80246 2.83593 2.84417 2.86391 2.87756 2.87371 2.86407 2.82162
2382.739 2.77723 2.7307 2.6902 2.656 2.614 2.579 2.536 2.504 2.475 2.442
2402.032 2.416 2.432 2.478 2.486 2.511 2.55 2.553 2.557 2.546 2.538
2421.326 2.572 2.587 2.526 2.45 2.4 2.365 2.336 2.272 2.222 2.182
2440.619 2.136 2.102 2.112 2.122 2.135 2.167 2.13 2.095 2.097 2.083
2459.912 2.1 2.067 2.002 1.957 1.92 1.954 1.957 1.901 1.864 1.83
2479.206 1.81 1.796 1.805 1.815 1.822 1.814 1.789 1.798 1.806 1.843
2498.499 1.842 1.847 1.866 1.834 1.844 1.866 1.85 1.851 1.897 1.94
2517.793 1.98 2.007 2.062 2.114 2.119 2.128 2.117 2.115 2.142 2.181
2537.086 2.197 2.161 2.139 2.141 2.112 2.082 2.111 2.115 2.09 2.089
2556.380 2.128 2.185 2.195 2.168 2.15 2.163 2.132 2.146 2.164 2.122
2575.673 2.116 2.119 2.146 2.179 2.177 2.162 2.152 2.142 2.146 2.174
2594.966 2.181 2.174 2.186 2.212 2.22 2.187 2.214 2.244 2.199 2.176
2614.260 2.193 2.192 2.163 2.13 2.12 2.161 2.131 2.073 2.021 2.046
2633.553 2.103 2.113 2.16 2.195 2.257 2.303 2.313 2.346 2.409 2.508
2652.847 2.592 2.6841 2.78467 2.8859 3.0011 3.1049 3.2164 3.3386 3.4736 3.5713
2672.140 3.6936 3.82 3.81 3.8 3.81 3.78 3.7083 3.617 3.5595 3.5093
2691.434 3.466 3.4218 3.3828 3.3399 3.3526 3.4971 3.6023 3.6848 3.82 3.95
2710.727 4.09 4.19 4.28 4.4 4.51 4.61 4.78 4.98 5.16 5.37
2730.020 5.57 5.9 6.35 6.89 7.47 8.14 8.92 9.84 10.87 11.94
2749.314 13.04 14.22 15.24 16.02 16.53 16.78 16.95 16.98 16.86 16.47
2768.607 15.83 15.02 14.08 13.19 12.33 11.52 10.8 10.28 9.96 9.69
2787.901 9.46 9.32 9.31 9.39 9.51 9.64 9.73 9.9 10.19 10.41
2807.194 10.62 10.95 11.34 11.82 12.45 13.3 14.36 15.59 17.2 19.23
2826.488 21.62 24.38 27.53 31.09 34.88 38.95 43.35 47.79 51.97 55.73
2845.781 58.86 61.13 62.7 63.7 64.21 64.13 63.34 61.72 59.43 56.65
2865.074 53.51 50.38 47.38 44.51 41.85 39.31 36.9 34.73 32.74 30.97
2884.368 29.41 28.1 27.09 26.45 26.01 25.71 25.72 25.92 26.18 26.55
2903.661 26.95 27.33 27.87 28.47 29.09 29.8 30.53 31.2 31.78 32.22
2922.955 32.41 32.26 31.81 30.92 29.62 28.15 26.58 25.08 23.64 22.36
2942.248 21.34 20.72 20.5 20.7 21.5 22.86 24.71 26.83 28.89 30.32
2961.542 30.86 30.8 30.46 29.99 29.21 27.84 25.49 22.55 19.61 16.95
2980.835 14.78 13.09 11.82 10.9 10.12 9.47 8.92 8.29 7.72 7.29
3000.128 6.99 6.56 5.88 5.15 4.34 3.7379 3.2773 2.83841 2.472 2.069
3019.422 1.78 1.63 1.46 1.24 1.09 1.12 1.14 1.12 1.19 1.13
3038.715 1.04 0.94 0.9 0.92 0.91 0.91 0.92 0.93 0.9 0.89
3058.009 0.89 0.87 0.9 0.97 1.03 1.02 1.05 1.12 1.1 1.11
3077.302 1.17 1.26 1.3 1.25 1.29 1.36 1.36 1.44 1.59 1.64
3096.596 1.67 1.73 1.78 1.89 2.036 2.066 2.02 2.051 2.087 2.137
3115.889 2.158 2.072 1.99 2.013 2.084 2.001 1.852 1.828 1.75 1.56
3135.182 1.47 1.38 1.32 1.24 1.13 1 0.98 0.96 0.86 0.75
3154.476 0.62 0.61 0.63 0.64 0.6 0.5 0.44 0.43 0.47 0.44
3173.769 0.36 0.38 0.35 0.35 0.22 0.1 0.16 0.18 0.18 0.13
3193.063 0.15 0.14 0.1 0.13 0.23 0.27 0.09 0.02 0.12 0.13
3212.356 0.06 0.03 0.07 0.01 0 0.05 0.13 0.18 0.13 0.12
3231.650 0.11 0.13 0.15 0.15 0.1 0.06 0.12 0.19 0.24 0.22
3250.943 0.2 0.2 0.18 0.19 0.21 0.17 0.13 0.17 0.19 0.22
3270.236 0.17 0.15 0.1 0.14 0.19 0.14 0.23 0.3 0.23 0.13
3289.530 0.11 0.17 0.1 0.13 0.26 0.28 0.26 0.28 0.37 0.33
3308.823 0.34 0.34 0.32 0.33 0.35 0.37 0.42 0.47 0.37 0.29
3328.117 0.36 0.48 0.46 0.53 0.64 0.55 0.4 0.38 0.5 0.54
3347.410 0.49 0.48 0.52 0.56 0.59 0.52 0.4 0.52 0.69 0.63
3366.704 0.56 0.59 0.67 0.75 0.87 0.94 0.94 1.01 1.12 1.19
3385.997 1.44 1.785 1.974 2.184 2.45 2.907 3.5661 4.22 4.77 5.51
3405.290 6.09 6.3 6.54 6.67 6.65 6.53 6.14 5.43 4.77 4.02
3424.584 3.1346 2.549 2.046 1.6 1.32 1.11 0.99 0.94 0.81 0.76
3443.877 0.77 0.78 0.78 0.74 0.73 0.66 0.55 0.51 0.51 0.54
3463.171 0.51 0.41 0.49 0.63 0.67 0.61 0.53 0.59 0.6 0.5
3482.464 0.5 0.46 0.41 0.55 0.58 0.55 0.63 0.56 0.55 0.56
3501.758 0.53 0.49 0.5 0.46 0.51 0.67 0.69 0.77 0.69 0.47
3521.051 0.48 0.55 0.63 0.61 0.58 0.67 0.72 0.75 0.73 0.64
3540.344 0.64 0.69 0.7 0.73 0.78 0.74 0.73 0.72 0.76 0.75
3559.638 0.67 0.74 0.82 0.83 0.8 0.78 0.75 0.8 0.86 0.85
3578.931 0.78 0.73 0.8 0.8 0.81 0.82 0.76 0.8 0.81 0.78
3598.225 0.78 0.83 0.91 0.93 0.88 0.92 1 1.01 0.94 0.9
3617.518 0.9 0.83 0.86 0.89 0.89 0.92 0.97 0.95 0.94 0.95
3636.812 0.95 1.03 1.05 1 1.06 1.12 1.06 0.99 0.99 1.06
3656.105 1.04 1.08 1.09 1.07 1.15 1.09 1.07 1.11 1.09 1.13
3675.398 1.12 1.1 1.06 1.05 1.09 1.12 1.12 1.1 1.05 1.04
3694.692 1.14 1.17 1.07 1.03 1.08 1.11 1.14 1.14 1.11 1.16
3713.985 1.14 1.18 1.23 1.28 1.3 1.21 1.18 1.17 1.2 1.17
3733.279 1.13 1.2 1.2 1.17 1.15 1.17 1.21 1.24 1.24 1.2
3752.572 1.15 1.12 1.12 1.19 1.29 1.29 1.3 1.26 1.2 1.19
3771.866 1.2 1.21 1.21 1.23 1.19 1.19 1.26 1.24 1.21 1.24
3791.159 1.17 1.13 1.29 1.29 1.18 1.13 1.13 1.22 1.29 1.32
3810.452 1.24 1.19 1.26 1.32 1.3 1.28 1.29 1.27 1.3 1.31
3829.746 1.28 1.23 1.2 1.23 1.31 1.37 1.4 1.38 1.41 1.4
3849.039 1.35 1.41 1.37 1.27 1.22 1.22 1.31 1.37 1.32 1.25
3868.333 1.31 1.35 1.34 1.33 1.29 1.22 1.16 1.14 1.25 1.36
3887.626 1.35 1.34 1.31 1.29 1.3 1.27 1.24 1.26 1.32 1.34
3906.920 1.31 1.34 1.37 1.4 1.39 1.43 1.47 1.37 1.32 1.38
3926.213 1.44 1.39 1.4 1.52 1.48 1.45 1.52 1.53 1.44 1.44
3945.506 1.58 1.59 1.59 1.58 1.58 1.58 1.55 1.57 1.59 1.65
3964.800 1.64 1.6 1.63 1.68 1.68 1.62 1.64 1.73 1.7 1.67
3984.093 1.67 1.58 1.59 1.71 1.74 1.71 1.69 1.68 1.69
##END=
