##TITLE=Nitrobenzene-d5
##JCAMP-DX=4.24
##DATA TYPE=INFRARED SPECTRUM
##ORIGIN=NIST Mass Spectrometry Data Center
##OWNER=NIST Standard Reference Data Program
Collection (C) 2018 copyright by the U.S. Secretary of Commerce
on behalf of the United States of America. All rights reserved.
##CAS REGISTRY NO=4165-60-0
##MOLFORM=C 6 D 5 N O 2
##$NIST SOURCE=MSDC-IR
##SPECTROMETER/DATA SYSTEM=HP-GC/MS/IRD
##STATE=gas
##XUNITS=1/CM
##YUNITS=ABSORBANCE
##XFACTOR=1.0
##YFACTOR=0.000002800
##DELTAX=4.0
##FIRSTX=550.0
##LASTX=3846.0
##FIRSTY=0.002649
##MAXX=3846
##MINX=550
##MAXY=0.028
##MINY=0
##NPOINTS=825
##XYDATA=(X++(Y..Y))
550.0 946 1501 874 573 322 220 161 154 163 162
590.0 205 287 359 451 568 567 489 439 392 324
630.0 272 265 336 547 803 846 795 792 641 382
670.0 188 101 87 104 108 119 144 185 212 220
710.0 304 332 266 234 208 172 154 126 106 109
750.0 119 126 120 122 117 98 96 83 75 96
790.0 122 178 250 319 422 464 416 402 447 542
830.0 851 1603 2651 3172 3275 3227 2963 2171 1217 807
870.0 678 612 549 443 266 126 84 81 81 75
910.0 66 60 59 66 67 74 90 108 114 110
950.0 106 107 97 88 90 89 100 105 101 100
990.0 95 101 111 124 129 118 110 123 127 119
1030.0 120 120 110 97 98 102 101 89 87 106
1070.0 125 123 113 110 112 106 96 93 77 55
1110.0 45 43 31 20 23 30 43 51 45 47
1150.0 40 31 34 27 29 39 47 50 45 37
1190.0 31 25 13 6 11 14 23 34 33 46
1230.0 50 38 44 56 82 109 132 153 191 257
1270.0 344 450 562 651 697 712 729 730 734 791
1310.0 925 1137 1456 1979 2811 4056 5601 6865 7371 7391
1350.0 7321 6742 5685 4930 4493 3850 2786 1788 1123 737
1390.0 546 450 393 351 329 320 314 317 316 316
1430.0 331 356 368 372 398 443 496 541 587 638
1470.0 667 692 749 844 905 937 1003 1132 1355 1772
1510.0 2474 3518 4983 6807 8564 9616 9866 10000 9715 8167
1550.0 6128 4552 3422 2747 2547 2670 2975 3369 3687 3846
1590.0 3777 3519 3135 2594 2007 1558 1204 913 713 586
1630.0 509 454 391 332 286 241 200 162 134 117
1670.0 110 99 92 92 85 78 69 61 53 52
1710.0 56 61 74 77 74 82 86 79 74 69
1750.0 58 41 35 39 46 51 42 40 48 49
1790.0 43 32 27 24 27 29 28 25 28 30
1830.0 29 32 35 44 45 38 34 37 36 31
1870.0 27 25 22 19 21 21 18 18 21 19
1910.0 22 22 21 22 24 30 35 32 28 26
1950.0 21 16 17 9 2 5 9 14 16 15
1990.0 13 15 15 10 10 12 15 19 18 16
2030.0 14 13 7 6 8 14 15 6 10 15
2070.0 17 16 7 5 11 10 7 9 9 12
2110.0 13 13 19 19 20 25 29 27 29 34
2150.0 36 32 27 26 25 21 13 13 17 15
2190.0 14 11 7 11 16 17 17 14 14 17
2230.0 21 25 25 24 26 32 45 75 119 184
2270.0 276 380 464 512 563 612 605 582 553 493
2310.0 446 396 325 227 131 90 68 55 60 51
2350.0 44 45 48 46 52 66 70 65 62 62
2390.0 58 52 51 50 54 58 65 69 67 70
2430.0 79 88 85 73 60 48 39 29 17 13
2470.0 16 13 9 8 6 8 5 5 17 16
2510.0 10 8 9 16 27 21 14 21 25 28
2550.0 25 18 14 4 12 24 22 19 26 29
2590.0 26 26 27 28 25 30 38 43 50 60
2630.0 62 57 56 59 54 47 48 44 48 60
2670.0 69 73 74 69 64 65 67 65 55 49
2710.0 42 32 28 26 20 18 15 9 15 21
2750.0 18 26 27 21 27 25 13 19 32 32
2790.0 38 39 36 40 36 40 50 52 55 65
2830.0 79 83 90 104 116 133 157 172 192 217
2870.0 232 231 229 227 219 202 182 167 165 168
2910.0 164 152 141 133 123 110 105 91 80 84
2950.0 75 52 48 48 35 34 28 20 25 19
2990.0 15 12 9 19 22 22 24 16 7 11
3030.0 14 13 12 18 20 14 22 33 31 21
3070.0 15 23 21 15 25 38 39 28 23 29
3110.0 34 34 22 16 20 23 18 18 12 15
3150.0 18 23 31 24 21 12 14 15 11 13
3190.0 12 11 7 19 23 21 28 28 37 41
3230.0 43 51 53 51 55 48 32 22 30 32
3270.0 25 17 15 19 16 22 32 23 16 9
3310.0 7 27 33 21 14 19 14 17 26 16
3350.0 15 22 37 47 37 20 2 11 33 41
3390.0 46 37 15 5 13 18 15 13 16 7
3430.0 2 0 9 15 12 18 19 12 7 10
3470.0 16 27 22 15 26 38 30 14 10 11
3510.0 17 12 4 5 14 17 16 18 20 10
3550.0 18 29 18 11 23 33 20 7 10 23
3590.0 22 18 17 22 21 17 28 41 34 42
3630.0 45 26 26 26 16 7 3 3 13 14
3670.0 17 20 28 29 23 37 39 29 27 24
3710.0 15 11 13 20 29 30 41 37 44 57
3750.0 44 38 31 23 15 18 24 29 30 28
3790.0 29 12 15 28 37 51 46 39 43 33
3830.0 27 16 18 32 33
##END=
