##TITLE=Aniline-d5
##JCAMP-DX=4.24
##DATA TYPE=INFRARED SPECTRUM
##ORIGIN=NIST Mass Spectrometry Data Center
##OWNER=NIST Standard Reference Data Program
Collection (C) 2018 copyright by the U.S. Secretary of Commerce
on behalf of the United States of America. All rights reserved.
##CAS REGISTRY NO=4165-61-1
##MOLFORM=C 6 H 2 D 5 N
##$NIST SOURCE=MSDC-IR
##SPECTROMETER/DATA SYSTEM=HP-GC/MS/IRD
##STATE=gas
##XUNITS=1/CM
##YUNITS=ABSORBANCE
##XFACTOR=1.0
##YFACTOR=0.000001500
##DELTAX=4.0
##FIRSTX=550.0
##LASTX=3846.0
##FIRSTY=0.003495
##MAXX=3846
##MINX=550
##MAXY=0.015
##MINY=0
##NPOINTS=825
##XYDATA=(X++(Y..Y))
550.0 2330 3646 2877 3027 2552 2117 1788 1501 1362 1354
590.0 1339 1257 1254 1295 1367 1487 1715 1965 2022 2013
630.0 2173 2469 2960 3690 4561 5250 5696 5926 5917 5863
670.0 5490 4681 3826 3148 2691 2436 2302 2185 2039 1973
710.0 2008 2033 2028 2094 2205 2272 2317 2404 2496 2532
750.0 2464 2345 2188 1894 1587 1343 1167 1047 988 950
790.0 910 957 1018 1094 1308 1468 1358 1206 1267 1326
830.0 1203 970 719 560 483 414 357 320 288 279
870.0 302 360 353 302 316 332 293 205 179 191
910.0 163 142 134 112 104 117 111 120 206 275
950.0 269 281 326 363 361 327 287 273 286 270
990.0 231 208 187 164 177 177 160 148 145 152
1030.0 194 235 277 332 346 397 503 622 731 815
1070.0 836 802 797 781 712 559 382 286 222 141
1110.0 69 63 110 99 52 67 78 49 59 75
1150.0 98 124 191 324 496 736 1107 1563 2033 2456
1190.0 2726 2839 2785 2588 2262 1748 1175 717 454 338
1230.0 299 277 273 270 255 241 192 130 129 185
1270.0 281 428 605 766 855 845 844 908 875 658
1310.0 419 243 116 46 18 0 51 143 226 334
1350.0 469 629 811 1043 1381 1915 2730 3917 5390 6881
1390.0 8077 8771 9011 8809 8108 6960 5487 3929 2639 1803
1430.0 1305 1007 801 642 551 524 525 509 476 469
1470.0 464 455 415 375 329 294 287 282 273 286
1510.0 283 275 306 365 461 599 783 1052 1463 2051
1550.0 2988 4372 6209 8045 9270 9935 10000 9231 8084 6804
1590.0 5400 4413 4170 4569 5305 6113 6895 7471 7638 7495
1630.0 6961 5982 4934 3929 2931 2218 1764 1463 1243 1083
1670.0 929 732 529 420 344 263 240 245 224 193
1710.0 167 168 170 136 114 107 106 97 79 72
1750.0 71 56 48 59 68 82 92 87 86 86
1790.0 93 96 107 115 116 127 126 125 130 141
1830.0 143 128 131 150 156 156 149 128 110 103
1870.0 106 94 71 58 49 45 56 72 74 77
1910.0 76 67 67 66 61 55 44 42 55 63
1950.0 60 55 54 59 64 66 72 92 96 90
1990.0 97 107 122 115 103 110 100 99 117 122
2030.0 134 146 158 166 161 157 149 144 146 136
2070.0 135 135 115 103 101 101 108 106 103 118
2110.0 128 130 125 125 138 136 135 129 121 121
2150.0 111 103 109 117 115 110 111 115 122 128
2190.0 128 132 128 142 172 199 246 321 427 561
2230.0 729 927 1136 1339 1551 1793 2048 2347 2691 3049
2270.0 3343 3382 3206 3200 3312 3062 2516 1973 1527 1203
2310.0 887 600 420 322 276 269 256 235 215 202
2350.0 192 206 223 233 247 262 271 276 294 306
2390.0 312 313 313 301 267 233 212 200 188 165
2430.0 149 140 137 128 110 105 100 101 100 80
2470.0 88 101 95 100 98 98 114 106 107 102
2510.0 96 100 92 95 109 116 122 130 131 136
2550.0 145 149 155 159 176 215 226 234 249 254
2590.0 280 284 267 247 212 184 160 136 122 114
2630.0 115 114 108 103 115 133 122 126 129 110
2670.0 121 132 137 136 127 135 144 137 129 140
2710.0 160 146 121 136 154 162 172 178 173 168
2750.0 171 155 142 133 148 167 161 158 152 158
2790.0 156 139 150 182 181 162 176 200 199 191
2830.0 205 201 200 221 218 207 210 212 220 210
2870.0 181 177 181 158 138 136 126 145 138 115
2910.0 129 115 108 119 108 88 106 124 132 140
2950.0 143 151 135 141 163 170 166 151 167 171
2990.0 147 149 173 186 181 173 180 190 206 205
3030.0 213 235 235 242 245 258 291 287 250 219
3070.0 190 181 204 193 173 165 145 174 189 168
3110.0 166 174 178 168 167 173 160 154 155 172
3150.0 185 152 142 162 166 169 153 156 157 157
3190.0 187 219 230 254 286 297 328 340 347 377
3230.0 389 391 380 349 316 291 245 201 217 219
3270.0 188 163 144 135 138 145 138 141 141 121
3310.0 125 132 129 114 101 115 113 118 132 125
3350.0 125 143 167 183 192 234 277 325 421 543
3390.0 676 832 961 1019 1122 1206 1179 1120 963 831
3430.0 751 614 471 418 410 368 378 426 467 547
3470.0 674 781 839 927 967 946 1002 1049 948 783
3510.0 709 675 561 434 347 259 229 211 171 163
3550.0 193 180 139 132 151 141 112 110 112 117
3590.0 122 164 198 165 158 169 150 145 156 158
3630.0 143 131 146 126 120 176 175 166 158 147
3670.0 151 165 185 177 159 162 142 110 102 139
3710.0 206 196 164 177 157 166 209 196 158 174
3750.0 190 157 138 155 164 150 156 179 161 152
3790.0 173 160 138 167 208 215 242 250 215 232
3830.0 261 246 256 261 252
##END=
