##TITLE=2,3-Dimethyl-3-hexanol
##JCAMP-DX=4.24
##DATA TYPE=INFRARED SPECTRUM
##ORIGIN=NIST Mass Spectrometry Data Center
##OWNER=NIST Standard Reference Data Program
Collection (C) 2018 copyright by the U.S. Secretary of Commerce
on behalf of the United States of America. All rights reserved.
##CAS REGISTRY NO=4166-46-5
##MOLFORM=C 8 H 18 O
##$NIST SOURCE=MSDC-IR
##SPECTROMETER/DATA SYSTEM=HP-GC/MS/IRD
##STATE=gas
##XUNITS=1/CM
##YUNITS=ABSORBANCE
##XFACTOR=1.0
##YFACTOR=0.000003400
##DELTAX=4.0
##FIRSTX=550.0
##LASTX=3846.0
##FIRSTY=0.000401
##MAXX=3846
##MINX=550
##MAXY=0.034
##MINY=0
##NPOINTS=825
##XYDATA=(X++(Y..Y))
550.0 118 84 75 76 87 76 49 56 88 104
590.0 80 70 59 61 61 34 26 37 28 34
630.0 39 14 1 9 14 30 41 34 33 26
670.0 40 54 44 46 50 40 43 50 45 53
710.0 61 66 81 92 105 104 93 89 88 84
750.0 80 76 64 58 55 54 46 51 66 68
790.0 70 81 79 69 84 93 97 121 137 164
830.0 219 263 302 330 338 325 294 266 250 240
870.0 245 265 288 327 389 464 530 593 660 723
910.0 781 835 881 912 909 871 795 698 591 498
950.0 431 363 307 279 264 266 287 330 387 462
990.0 553 639 704 751 771 756 723 675 635 610
1030.0 603 613 635 663 686 704 723 753 786 815
1070.0 852 888 894 894 883 866 843 811 795 795
1110.0 807 845 920 1011 1108 1208 1304 1384 1449 1491
1150.0 1517 1532 1531 1496 1448 1371 1256 1141 1029 916
1190.0 819 742 686 641 606 589 572 569 579 603
1230.0 628 635 644 656 675 679 681 697 709 725
1270.0 739 748 759 768 763 755 739 716 696 672
1310.0 643 616 592 569 552 545 549 565 595 645
1350.0 713 807 953 1150 1382 1627 1836 1966 1977 1854
1390.0 1643 1373 1095 846 646 517 439 399 395 416
1430.0 454 512 594 702 833 964 1096 1219 1305 1323
1470.0 1280 1168 1005 821 642 486 371 293 236 192
1510.0 167 154 139 123 114 109 98 87 83 81
1550.0 76 68 55 61 67 60 52 53 58 55
1590.0 52 46 47 53 54 53 46 41 42 42
1630.0 44 41 45 48 45 40 35 39 41 41
1670.0 37 36 39 32 30 31 23 16 21 22
1710.0 15 10 9 14 14 10 6 8 10 12
1750.0 8 7 12 10 8 7 8 12 12 8
1790.0 3 10 15 14 9 9 12 12 10 11
1830.0 9 8 10 10 11 11 11 12 11 12
1870.0 11 11 13 12 8 10 13 7 3 6
1910.0 4 6 6 7 6 6 5 4 5 7
1950.0 11 11 9 10 6 2 4 10 7 2
1990.0 7 9 7 3 1 6 5 5 10 9
2030.0 6 11 9 6 8 8 9 9 7 7
2070.0 11 10 7 7 6 3 2 5 7 5
2110.0 7 5 3 4 9 7 5 7 8 9
2150.0 3 0 3 7 10 10 8 8 7 6
2190.0 8 14 16 10 6 9 9 4 3 8
2230.0 9 4 2 2 4 7 13 11 3 6
2270.0 11 17 18 16 12 7 10 14 13 12
2310.0 13 15 13 11 10 8 9 10 12 14
2350.0 15 13 8 7 10 13 17 22 24 24
2390.0 21 20 25 30 30 32 28 25 22 21
2430.0 19 12 10 10 7 5 8 11 12 17
2470.0 17 11 7 9 13 14 11 10 11 14
2510.0 16 16 18 16 18 21 17 17 17 19
2550.0 27 30 25 27 27 33 39 41 45 46
2590.0 51 57 59 65 68 68 71 69 64 63
2630.0 66 72 71 67 65 66 68 64 62 62
2670.0 64 68 66 68 70 73 80 84 81 84
2710.0 93 103 112 119 132 147 159 170 177 181
2750.0 177 169 169 168 169 173 174 183 192 195
2790.0 204 223 238 254 277 307 339 369 402 440
2830.0 483 540 612 705 814 941 1092 1271 1494 1799
2870.0 2217 2729 3225 3618 3847 3912 3830 3679 3570 3546
2910.0 3603 3720 3880 4095 4389 4765 5195 5601 5938 6225
2950.0 6553 7064 7849 8790 9615 10000 9752 8917 7687 6332
2990.0 5029 3861 2903 2153 1607 1227 978 812 698 618
3030.0 562 517 467 429 403 379 354 329 309 292
3070.0 282 273 259 252 241 224 218 209 197 189
3110.0 185 180 172 161 156 162 157 143 142 151
3150.0 151 140 133 136 139 136 131 123 123 123
3190.0 117 109 102 99 95 85 71 64 53 48
3230.0 54 51 42 36 37 32 30 28 25 24
3270.0 25 28 25 18 14 17 17 15 17 21
3310.0 22 18 15 19 20 19 22 19 12 23
3350.0 37 32 18 20 22 23 28 25 19 23
3390.0 27 31 26 23 23 24 32 33 36 33
3430.0 34 28 28 36 39 42 38 32 27 22
3470.0 19 16 13 17 16 21 27 24 25 26
3510.0 22 18 14 9 9 12 17 10 2 14
3550.0 12 7 12 14 13 21 26 18 20 25
3590.0 28 28 33 39 41 53 68 92 144 201
3630.0 264 339 398 438 443 398 340 272 190 126
3670.0 91 64 40 30 29 24 19 15 16 19
3710.0 15 18 20 14 18 21 11 5 0 0
3750.0 5 14 15 12 13 13 12 18 26 20
3790.0 19 19 16 22 36 37 25 29 39 33
3830.0 31 32 22 26 27
##END=
