##TITLE=p-Octyloxybenzylidene p-cyanoaniline
##JCAMP-DX=4.24
##DATA TYPE=INFRARED SPECTRUM
##ORIGIN=EPA-IR VAPOR PHASE LIBRARY
##OWNER=SRD/NIST
Collection (C) 2018 copyright by the U.S. Secretary of Commerce
on behalf of the United States of America. All rights reserved.
##CAS REGISTRY NO=41682-73-9
##MOLFORM=C 22 H 26 N 2 O
##$NIST SOURCE=MSDC-IR
##STATE=gas
##XUNITS=1/CM
##YUNITS=ABSORBANCE
##XFACTOR=1.
##YFACTOR=0.001
##DELTAX=1.92898
##FIRSTX=549.8
##LASTX=4000.7
##FIRSTY=3.462
##MAXX=4000.7
##MINX=549.759
##MAXY=0.049152
##MINY=0
##NPOINTS=1790
##XYDATA=(X++(Y..Y))
549.759 3.462 3.292 3.212 3.222 3.082 2.982 3.042 2.792 2.632 2.482
569.049 2.072 1.892 1.832 1.862 1.732 1.822 1.862 1.702 1.782 1.892
588.339 1.882 1.992 1.972 1.912 2.102 2.282 2.182 1.872 1.782 1.682
607.628 1.522 1.272 1.128 1.1653 1.0222 0.8294 0.8268 0.736 0.6033 0.6391
626.918 0.6041 0.4665 0.5199 0.8107 0.9862 0.9542 0.7971 0.8105 0.8538 0.8462
646.208 0.9717 0.9362 0.824 0.7372 0.5547 0.5411 0.5676 0.5623 0.61 0.6248
665.498 0.5955 0.4253 0.37 0.4731 0.5353 0.6496 0.6073 0.5603 0.6258 0.7603
684.787 0.7848 0.7905 0.7356 0.6133 0.8973 1.222 1.0979 0.9987 1.1659 1.232
704.077 1.272 1.362 1.452 1.512 1.452 1.472 1.602 1.532 1.402 1.312
723.367 1.272 1.232 1.0876 1.0122 1.0962 1.1474 1.085 0.9895 1.0324 1.1191
742.657 1.0862 0.9907 0.8148 0.7724 0.7951 0.8591 0.8958 0.9564 0.9821 0.8451
761.947 0.8354 0.8669 0.8202 0.7952 0.9109 1.0023 1.0002 0.9069 0.8025 0.8156
781.236 0.9794 1.1086 1.0508 1.0825 1.0847 1.0526 1.212 1.312 1.412 1.572
800.526 1.792 1.912 1.852 1.922 2.072 2.222 2.482 2.722 3.012 3.322
819.816 3.662 4.132 4.622 5.232 6.132 6.972 7.732 8.432 8.792 8.952
839.106 8.812 8.292 7.432 6.612 6.102 5.492 4.852 4.382 3.842 3.502
858.395 3.392 3.232 3.062 2.942 2.772 2.672 2.792 2.812 2.912 3.292
877.685 3.512 3.852 4.652 5.462 5.942 6.122 5.932 5.292 4.572 3.892
896.975 3.252 2.742 2.412 2.212 2.132 2.122 1.952 1.802 1.702 1.502
916.265 1.262 1.292 1.352 1.242 1.1677 1.252 1.302 1.212 1.1869 1.212
935.555 1.292 1.352 1.372 1.332 1.372 1.402 1.392 1.492 1.592 1.512
954.844 1.532 1.792 1.952 2.092 2.182 2.222 2.462 2.622 2.652 2.882
974.134 2.992 2.962 3.072 3.052 2.982 2.852 2.802 3.012 3.122 3.192
993.424 3.242 3.152 3.122 3.222 3.352 3.532 3.822 3.972 4.082 4.382
1012.714 4.682 5.122 5.362 5.202 5.132 5.342 5.342 5.302 5.482 5.612
1032.003 5.612 5.472 5.272 5.012 4.762 4.672 4.452 4.092 4.012 3.942
1051.293 3.682 3.222 3.082 3.382 3.282 3.152 3.152 2.882 2.582 2.342
1070.583 2.412 2.252 1.932 2.202 2.222 1.742 1.492 1.842 2.002 1.632
1089.873 1.692 1.922 1.892 2.052 1.862 1.672 2.042 2.512 3.072 3.332
1109.163 3.172 2.762 2.812 2.732 2.252 1.922 1.872 2.102 2.032 2.042
1128.452 2.172 2.162 2.302 2.502 2.552 2.822 3.152 3.532 3.882 4.402
1147.742 5.122 5.922 7.772 10.952 15.882 23.662 34.652 45.512 49.152 43.002
1167.032 31.842 21.612 14.552 10.352 7.962 6.502 5.662 5.342 5.302 5.772
1186.322 6.742 7.792 9.222 10.472 11.072 10.822 9.852 8.692 7.752 7.312
1205.611 7.212 7.492 7.982 8.652 9.422 9.732 9.902 10.412 11.062 11.792
1224.901 12.622 13.972 15.402 16.632 18.332 20.082 21.432 22.692 23.832 24.832
1244.191 26.152 27.472 28.502 28.762 28.182 27.002 25.102 22.642 19.842 17.042
1263.481 14.672 12.582 10.762 9.382 8.422 7.812 7.322 7.052 6.892 6.872
1282.771 6.972 7.202 7.652 8.102 8.562 9.042 9.382 9.772 10.412 11.222
1302.060 11.922 12.122 11.552 10.432 9.212 8.032 6.962 6.062 5.372 4.852
1321.350 4.432 4.032 3.712 3.502 3.312 3.162 3.052 2.952 2.892 2.872
1340.640 2.842 2.782 2.732 2.682 2.662 2.602 2.562 2.542 2.582 2.602
1359.930 2.552 2.552 2.572 2.612 2.652 2.662 2.692 2.742 2.792 2.892
1379.219 3.022 3.182 3.342 3.492 3.592 3.562 3.392 3.172 2.962 2.772
1398.509 2.592 2.482 2.412 2.382 2.432 2.562 2.792 3.092 3.532 4.112
1417.799 4.762 5.352 5.542 5.202 4.472 3.672 3.082 2.662 2.472 2.412
1437.089 2.362 2.362 2.342 2.362 2.442 2.582 2.772 2.872 3.002 3.192
1456.378 3.352 3.532 3.742 3.982 4.242 4.662 5.212 5.782 6.302 6.602
1475.668 6.492 5.962 5.392 5.092 5.072 5.412 6.022 6.802 7.702 8.552
1494.958 9.212 9.742 10.542 12.032 14.482 17.962 22.582 27.222 29.842 28.962
1514.248 24.712 18.962 13.832 10.382 8.072 6.582 5.482 4.672 4.102 3.642
1533.538 3.322 3.142 2.952 2.812 2.792 2.912 3.062 3.132 3.262 3.482
1552.827 3.722 4.032 4.412 4.902 5.652 6.572 7.682 9.112 10.942 13.152
1572.117 15.522 17.382 18.152 17.762 16.932 16.952 18.462 21.472 26.132 32.102
1591.407 38.582 44.472 48.072 47.862 43.662 36.942 30.072 24.512 20.362 17.282
1610.697 14.872 12.792 11.152 9.922 9.272 9.232 9.562 10.442 12.112 14.512
1629.986 17.302 20.052 21.722 21.442 19.322 16.252 13.102 10.582 8.672 7.222
1649.276 6.242 5.492 4.832 4.342 3.992 3.652 3.362 3.142 2.972 2.852
1668.566 2.692 2.492 2.342 2.222 2.092 2.002 1.902 1.822 1.642 1.532
1687.856 1.502 1.422 1.382 1.292 1.232 1.222 1.1967 1.186 1.1597 1.0689
1707.146 1.0881 1.1002 1.074 1.0612 1.0632 1.0505 0.9989 1.0373 1.0699 1.0448
1726.435 1.0299 1.05 1.0477 1.0141 0.9963 1.0156 0.9703 0.9604 0.995 1.0031
1745.725 0.9713 0.9708 0.9592 0.8924 0.9538 1.0755 1.0841 1.0294 1.0025 1.0182
1765.015 1.0482 1.0495 1.0589 1.0369 1.038 1.0549 1.0515 1.0053 0.9342 0.8956
1784.305 0.8575 0.8332 0.7883 0.7214 0.7469 0.7533 0.7399 0.7102 0.6359 0.6228
1803.594 0.634 0.6011 0.5462 0.5663 0.6104 0.6144 0.6355 0.6164 0.6123 0.6366
1822.884 0.5872 0.5196 0.5106 0.5925 0.5782 0.4998 0.5251 0.5371 0.5448 0.5623
1842.174 0.5679 0.6021 0.6272 0.6076 0.585 0.6066 0.6386 0.6708 0.6833 0.6611
1861.464 0.6835 0.6643 0.6259 0.6519 0.712 0.74 0.7392 0.7884 0.8137 0.8263
1880.754 0.8514 0.8998 0.9129 0.9332 0.9521 0.9546 0.9935 0.9805 0.9753 1.0132
1900.043 0.9845 0.9631 0.9523 0.8986 0.8724 0.8655 0.8359 0.8363 0.8583 0.8086
1919.333 0.7907 0.7936 0.7611 0.7561 0.77 0.7839 0.7686 0.7525 0.7595 0.8045
1938.623 0.8469 0.8022 0.803 0.8169 0.7741 0.7762 0.7595 0.7759 0.7598 0.684
1957.913 0.692 0.7108 0.7298 0.7218 0.7452 0.744 0.6967 0.6952 0.6603 0.6479
1977.202 0.6616 0.6564 0.646 0.6612 0.6752 0.6947 0.6974 0.6902 0.6919 0.7382
1996.492 0.7973 0.7883 0.7882 0.7853 0.7894 0.8167 0.817 0.8358 0.8988 0.9566
2015.782 0.9554 0.937 0.9454 0.8821 0.8072 0.7943 0.8594 0.8926 0.8458 0.8545
2035.072 0.8285 0.7854 0.8378 0.8787 0.8496 0.8624 0.8984 0.8747 0.8545 0.853
2054.362 0.839 0.8247 0.8002 0.784 0.7936 0.7692 0.7255 0.7124 0.7058 0.7105
2073.651 0.7292 0.7691 0.7456 0.7324 0.7721 0.7804 0.7904 0.7569 0.7244 0.7263
2092.941 0.6962 0.6743 0.632 0.5893 0.6145 0.6107 0.5933 0.5933 0.5752 0.5474
2112.231 0.5027 0.501 0.4744 0.5063 0.5639 0.536 0.5448 0.5308 0.5233 0.5247
2131.521 0.497 0.4668 0.4707 0.4597 0.472 0.4909 0.4873 0.4872 0.4707 0.4548
2150.810 0.4299 0.4105 0.3669 0.394 0.4318 0.3938 0.4395 0.5101 0.5088 0.458
2170.100 0.4363 0.4635 0.4863 0.5282 0.5247 0.5333 0.5408 0.5031 0.4712 0.4373
2189.390 0.4623 0.4983 0.4759 0.4756 0.5126 0.5268 0.5512 0.5725 0.586 0.5839
2208.680 0.604 0.6755 0.7852 0.8823 0.9847 1.222 1.522 1.902 2.552 3.462
2227.970 4.432 5.172 5.362 4.682 3.422 2.262 1.512 1.0734 0.8392 0.736
2247.259 0.6668 0.6094 0.5326 0.545 0.5812 0.5197 0.4727 0.4579 0.4536 0.4673
2266.549 0.4389 0.4235 0.4787 0.5411 0.4867 0.4126 0.4414 0.4718 0.4472 0.4756
2285.839 0.5201 0.4999 0.4664 0.4715 0.501 0.5335 0.5738 0.516 0.4681 0.4781
2305.129 0.4713 0.4973 0.5397 0.4937 0.4798 0.5308 0.4999 0.5067 0.5745 0.5247
2324.418 0.4573 0.5329 0.6333 0.6088 0.5541 0.5189 0.4589 0.4215 0.4398 0.4688
2343.708 0.4779 0.4697 0.4468 0.4745 0.501 0.5206 0.4878 0.4301 0.4406 0.4357
2362.998 0.4772 0.4724 0.4635 0.4722 0.4731 0.5367 0.5655 0.5747 0.6037 0.6192
2382.288 0.5991 0.6374 0.6629 0.6799 0.6599 0.6198 0.6417 0.6278 0.5749 0.6014
2401.578 0.5969 0.5617 0.6022 0.6519 0.6292 0.6012 0.6008 0.5816 0.6406 0.6684
2420.867 0.6128 0.6257 0.6395 0.6116 0.6135 0.5913 0.5612 0.5748 0.628 0.6621
2440.157 0.7085 0.7158 0.7032 0.7032 0.6883 0.6755 0.6868 0.7116 0.7518 0.7722
2459.447 0.772 0.7991 0.8156 0.8066 0.7166 0.7041 0.7818 0.7672 0.7532 0.784
2478.737 0.8123 0.7718 0.7626 0.7864 0.7333 0.7315 0.7568 0.775 0.7668 0.7201
2498.026 0.7491 0.7885 0.7798 0.7718 0.7865 0.7973 0.7884 0.7932 0.8045 0.7926
2517.316 0.7907 0.8089 0.8685 0.8759 0.85 0.8977 0.926 0.9393 0.8948 0.9387
2536.606 1.0256 1.0165 1.0309 1.0226 0.9938 0.9792 0.9627 0.9597 0.9395 0.8994
2555.896 0.9027 0.9024 0.9075 0.8774 0.877 0.8964 0.8418 0.8204 0.7868 0.7743
2575.186 0.7822 0.722 0.713 0.7729 0.7598 0.6783 0.659 0.7103 0.6858 0.6228
2594.475 0.6558 0.7279 0.7698 0.689 0.6333 0.6755 0.6171 0.6039 0.6063 0.5787
2613.765 0.5874 0.5995 0.5944 0.5588 0.5564 0.5882 0.5841 0.5682 0.5459 0.5397
2633.055 0.5849 0.5334 0.5333 0.5413 0.4616 0.4759 0.5394 0.5244 0.5401 0.59
2652.345 0.6098 0.6024 0.5286 0.5371 0.539 0.5433 0.5585 0.5266 0.5112 0.5313
2671.634 0.5504 0.6178 0.6504 0.6494 0.6169 0.5601 0.5692 0.559 0.5786 0.6203
2690.924 0.6379 0.6219 0.5591 0.5264 0.5793 0.6657 0.7092 0.6865 0.6492 0.5872
2710.214 0.629 0.6861 0.6118 0.6092 0.6297 0.587 0.6256 0.6826 0.7062 0.7339
2729.504 0.7284 0.7418 0.7619 0.826 0.8141 0.7797 0.869 0.9225 0.9561 0.9409
2748.794 0.9896 1.0135 1.0589 1.0753 1.0184 1.0032 1.0105 1.0217 0.9229 0.9523
2768.083 0.9376 0.7897 0.7837 0.8768 0.9527 0.9555 0.9384 0.9077 0.9337 1.0516
2787.373 1.0498 1.0151 1.0739 1.1635 1.1818 1.1455 1.1414 1.1731 1.1804 1.1718
2806.663 1.242 1.312 1.312 1.272 1.292 1.362 1.452 1.482 1.522 1.662
2825.953 1.772 1.912 2.092 2.142 2.172 2.312 2.442 2.572 2.862 3.202
2845.242 3.512 3.922 4.512 5.162 5.782 6.452 7.202 8.002 8.712 9.122
2864.532 9.382 9.492 9.432 9.342 9.162 8.972 8.872 8.762 8.652 8.512
2883.822 8.242 8.042 7.882 7.572 7.372 7.212 7.012 6.982 7.052 7.262
2903.112 7.562 7.922 8.402 8.942 9.492 10.172 11.102 12.042 12.802 13.592
2922.401 14.722 15.992 17.252 18.522 19.582 20.442 20.962 21.112 20.922 20.302
2941.691 19.482 18.722 17.842 16.792 15.712 14.742 13.962 13.252 12.662 12.242
2960.981 12.092 11.942 11.732 11.592 11.272 10.652 9.702 8.662 7.622 6.642
2980.271 5.802 5.102 4.462 3.952 3.662 3.402 3.062 2.862 2.852 2.622
2999.561 2.382 2.342 2.322 2.242 2.192 2.272 2.132 1.832 1.702 1.772
3018.850 1.782 1.682 1.632 1.682 1.792 1.842 1.912 2.172 2.422 2.542
3038.140 2.602 2.662 2.632 2.552 2.392 2.112 1.852 1.682 1.602 1.452
3057.430 1.382 1.382 1.282 1.342 1.452 1.542 1.692 1.862 2.002 2.152
3076.720 2.292 2.272 2.172 2.082 1.872 1.692 1.722 1.702 1.622 1.612
3096.009 1.652 1.622 1.512 1.392 1.252 1.282 1.262 1.1366 1.1272 1.0827
3115.299 0.9924 0.8918 0.8354 0.8597 0.8707 0.8221 0.7535 0.7173 0.6822 0.7185
3134.589 0.6506 0.5767 0.5689 0.5701 0.6046 0.5677 0.5096 0.5414 0.5295 0.4437
3153.879 0.4135 0.4957 0.457 0.3556 0.3959 0.3979 0.3907 0.4301 0.4888 0.4855
3173.169 0.4399 0.4785 0.5376 0.531 0.4862 0.5065 0.5313 0.446 0.4352 0.509
3192.458 0.5525 0.4752 0.4757 0.511 0.524 0.5355 0.4444 0.3886 0.3799 0.3791
3211.748 0.3127 0.29944 0.25342 0.27208 0.3214 0.3492 0.4723 0.4122 0.3696 0.5077
3231.038 0.6485 0.5273 0.3624 0.3816 0.306 0.3058 0.3771 0.3925 0.3661 0.3702
3250.328 0.3731 0.489 0.5911 0.5492 0.4932 0.3852 0.3892 0.4334 0.3702 0.3609
3269.617 0.4694 0.3704 0.3293 0.3952 0.3943 0.3954 0.3644 0.3571 0.21621 0.22076
3288.907 0.29662 0.24268 0.29564 0.22992 0.095 0.1687 0.29973 0.3157 0.28358 0.23662
3308.197 0.19874 0.22989 0.28309 0.3124 0.25819 0.1666 0.1896 0.29246 0.3129 0.26586
3327.487 0.22092 0.23462 0.27526 0.30059 0.28008 0.22911 0.27047 0.3783 0.4741 0.5079
3346.777 0.403 0.3066 0.327 0.3387 0.3287 0.30089 0.3232 0.3688 0.28777 0.1798
3366.066 0.20159 0.19877 0.1239 0.1688 0.2601 0.3353 0.4293 0.3885 0.3257 0.3445
3385.356 0.3491 0.3474 0.3487 0.23647 0.1506 0.19568 0.3656 0.4 0.26016 0.27074
3404.646 0.28239 0.24307 0.19627 0.23184 0.3124 0.3724 0.28244 0.19521 0.30061 0.305
3423.936 0.25412 0.2668 0.3117 0.4117 0.3614 0.1669 0.1367 0.1917 0.1793 0.26907
3443.225 0.25026 0.1589 0.26062 0.3537 0.26345 0.23104 0.29981 0.25833 0.25385 0.24562
3462.515 0.1296 0.1218 0.29274 0.26753 0.14 0.22824 0.25003 0.1826 0.24867 0.27806
3481.805 0.1674 0.1645 0.25823 0.29614 0.25927 0.19491 0.19341 0.1165 0.091 0.1851
3501.095 0.2934 0.28703 0.1786 0.1566 0.1909 0.3035 0.307 0.28636 0.318 0.27726
3520.385 0.29677 0.29105 0.22447 0.1633 0.1759 0.209218 0.20648 0.205042 0.21399 0.23864
3539.674 0.2606 0.29428 0.3068 0.28852 0.23303 0.1919 0.1358 0.064 0.092 0.1583
3558.964 0.27665 0.26906 0.138 0.1701 0.1885 0.1661 0.088 0.1388 0.27971 0.3033
3578.254 0.29632 0.204068 0.25528 0.4385 0.4149 0.25314 0.25181 0.3637 0.3974 0.2681
3597.544 0.1773 0.169 0.1677 0.22033 0.1608 0.1352 0.21698 0.206186 0.1837 0.1901
3616.833 0.2398 0.28593 0.211438 0.1513 0.1531 0.1673 0.21895 0.3071 0.3079 0.24779
3636.123 0.28897 0.3164 0.3045 0.2676 0.22504 0.26732 0.28866 0.29981 0.2729 0.2517
3655.413 0.25534 0.2423 0.26214 0.26055 0.3172 0.3383 0.24149 0.211387 0.26533 0.1822
3674.703 0.1872 0.22834 0.1918 0.23772 0.1683 0.1625 0.23067 0.19489 0.21216 0.20088
3693.993 0.19865 0.3566 0.3934 0.3366 0.27951 0.1386 0.089 0.1546 0.1917 0.3143
3713.282 0.4101 0.29567 0.26871 0.25788 0.201008 0.23291 0.1633 0.1214 0.19569 0.27314
3732.572 0.211512 0.1175 0.1657 0.19447 0.22761 0.28168 0.19746 0.1373 0.204272 0.26777
3751.862 0.27898 0.21362 0.187 0.21854 0.3198 0.28421 0.2227 0.22389 0.28619 0.22208
3771.152 0.1868 0.28129 0.3208 0.3165 0.3369 0.3752 0.211455 0.19567 0.3812 0.3491
3790.441 0.2144 0.206913 0.1514 0.205997 0.3378 0.3305 0.3198 0.26922 0.1479 0.1092
3809.731 0.1831 0.27719 0.25193 0.26013 0.28844 0.3249 0.4174 0.3715 0.27309 0.27635
3829.021 0.28129 0.19765 0.22508 0.23678 0.1067 0.085 0.1552 0.27695 0.408 0.2985
3848.311 0.1256 0.083 0.1277 0.24991 0.26371 0.209252 0.164 0.207138 0.24578 0.1366
3867.601 0.05 0.104 0.24374 0.28827 0.28992 0.3123 0.3239 0.29149 0.3117 0.3185
3886.890 0.23773 0.1647 0.205453 0.3402 0.3644 0.3668 0.389 0.28452 0.23267 0.29528
3906.180 0.3052 0.21783 0.201396 0.3415 0.3089 0.24754 0.29264 0.3406 0.4272 0.3805
3925.470 0.2696 0.23296 0.21338 0.093 0 0.025 0.1531 0.223 0.22561 0.27003
3944.760 0.19634 0.1822 0.28368 0.3096 0.26804 0.3256 0.3453 0.24224 0.1396 0.1867
3964.049 0.27742 0.24558 0.25392 0.203854 0.068 0.206671 0.30082 0.1509 0.067 0.082
3983.339 0.3025 0.3713 0.179 0.1562 0.1809 0.23836 0.27854 0.24559 0.26568 0.1722
##END=
