##TITLE=(1,1-Diethylpropyl)benzene
##JCAMP-DX=4.24
##DATA TYPE=INFRARED SPECTRUM
##ORIGIN=NIST Mass Spectrometry Data Center
##OWNER=NIST Standard Reference Data Program
Collection (C) 2018 copyright by the U.S. Secretary of Commerce
on behalf of the United States of America. All rights reserved.
##CAS REGISTRY NO=4170-84-7
##MOLFORM=C 13 H 20
##$NIST SOURCE=MSDC-IR
##SPECTROMETER/DATA SYSTEM=HP-GC/MS/IRD
##STATE=gas
##XUNITS=1/CM
##YUNITS=ABSORBANCE
##XFACTOR=1.0
##YFACTOR=0.000003300
##DELTAX=4.0
##FIRSTX=550.0
##LASTX=3846.0
##FIRSTY=0.001271
##MAXX=3846
##MINX=550
##MAXY=0.033
##MINY=0
##NPOINTS=825
##XYDATA=(X++(Y..Y))
550.0 385 362 361 396 412 417 356 282 202 114
590.0 68 41 18 25 42 28 17 17 0 8
630.0 13 22 45 53 75 113 147 181 239 303
670.0 362 456 611 905 1406 2095 2794 3177 2982 2336
710.0 1600 994 623 473 421 423 531 775 1154 1681
750.0 2183 2378 2174 1701 1170 754 492 343 274 248
790.0 233 254 266 246 213 165 128 103 89 76
830.0 68 56 47 56 74 91 95 108 147 204
870.0 270 344 401 414 405 386 360 319 283 272
910.0 274 286 301 306 284 243 187 134 95 62
950.0 46 49 49 44 51 57 55 63 75 94
990.0 125 164 208 267 333 380 421 460 516 593
1030.0 642 642 586 461 323 213 150 136 139 149
1070.0 163 171 160 144 113 85 68 59 58 64
1110.0 60 37 25 25 17 25 42 49 66 74
1150.0 66 55 57 66 61 66 81 85 88 104
1190.0 124 150 178 178 149 113 85 55 36 37
1230.0 33 31 33 33 33 31 32 34 53 83
1270.0 104 118 145 175 216 271 318 364 406 421
1310.0 390 338 296 292 337 392 459 522 496 432
1350.0 378 343 354 395 440 578 807 1020 1147 1124
1390.0 927 677 460 310 242 203 213 268 276 286
1430.0 365 518 681 840 1052 1268 1538 1800 1953 1994
1470.0 1901 1684 1406 1229 1237 1360 1431 1378 1173 912
1510.0 631 423 349 315 272 249 241 247 256 222
1550.0 189 199 226 195 184 228 284 357 413 487
1590.0 572 639 668 635 539 414 301 225 173 141
1630.0 123 133 130 124 137 156 161 125 111 116
1670.0 120 120 112 132 125 87 97 124 113 87
1710.0 80 112 126 95 88 120 133 96 82 94
1750.0 111 97 91 95 107 117 111 120 161 195
1790.0 222 231 213 190 140 107 92 79 72 71
1830.0 66 61 63 88 103 96 98 108 117 127
1870.0 123 105 96 85 74 75 78 70 57 57
1910.0 57 58 67 78 95 129 161 180 190 174
1950.0 147 123 99 70 48 35 25 22 18 16
1990.0 26 26 14 7 11 15 14 17 15 17
2030.0 15 10 13 18 17 11 10 14 19 24
2070.0 22 16 8 5 9 15 10 6 6 6
2110.0 7 4 1 4 6 10 14 13 9 5
2150.0 7 6 5 12 13 9 10 10 8 11
2190.0 13 11 6 3 1 5 9 6 10 14
2230.0 16 11 11 13 10 5 11 19 21 21
2270.0 26 24 18 16 13 15 24 30 34 36
2310.0 42 46 38 33 33 26 19 21 27 39
2350.0 47 42 32 25 32 43 50 50 50 57
2390.0 58 56 54 52 50 44 44 47 39 34
2430.0 37 32 35 35 27 29 33 34 37 33
2470.0 26 31 36 31 29 29 30 32 36 39
2510.0 37 40 42 39 45 51 41 37 38 40
2550.0 41 41 53 52 44 48 58 60 63 75
2590.0 81 79 80 84 81 71 70 81 83 81
2630.0 92 97 98 104 108 110 105 99 97 93
2670.0 94 98 95 96 96 97 96 96 98 97
2710.0 101 106 120 132 137 152 167 187 210 223
2750.0 231 223 209 208 206 206 217 224 232 240
2790.0 249 265 283 301 311 322 347 381 411 449
2830.0 491 529 576 634 702 790 928 1112 1371 1714
2870.0 2122 2634 3245 3878 4382 4589 4456 4083 3670 3405
2910.0 3346 3522 3963 4734 5808 6965 7953 8590 8761 8499
2950.0 7978 7433 7198 7565 8561 9643 10000 9310 7771 5895
2990.0 4228 3047 2283 1823 1567 1438 1413 1457 1548 1669
3030.0 1771 1827 1816 1746 1679 1706 1902 2219 2506 2596
3070.0 2436 2127 1836 1688 1665 1682 1612 1428 1205 988
3110.0 821 695 583 489 421 378 339 299 278 267
3150.0 248 232 214 191 175 170 160 149 133 117
3190.0 111 109 96 89 82 78 75 77 82 67
3230.0 63 64 57 56 56 57 52 49 55 55
3270.0 48 43 46 47 42 38 30 28 32 37
3310.0 39 34 28 26 22 28 29 24 24 21
3350.0 29 33 28 19 19 31 31 19 17 21
3390.0 25 25 22 14 14 22 20 26 27 15
3430.0 26 25 14 7 18 21 18 26 26 19
3470.0 12 16 24 21 22 23 14 15 25 29
3510.0 21 16 24 44 47 18 16 11 15 37
3550.0 17 3 0 15 57 37 4 9 11 43
3590.0 50 28 15 4 21 35 28 33 21 48
3630.0 68 19 9 19 57 65 35 27 14 28
3670.0 50 54 43 23 37 42 29 29 23 21
3710.0 43 47 27 35 47 37 69 62 62 77
3750.0 60 41 18 15 12 16 8 6 9 5
3790.0 1 1 11 25 20 8 21 30 22 9
3830.0 9 18 22 21 5
##END=
