##TITLE=2,4,6-Trimethylbenzyl alcohol
##JCAMP-DX=4.24
##DATA TYPE=INFRARED SPECTRUM
##ORIGIN=EPA-IR VAPOR PHASE LIBRARY
##OWNER=SRD/NIST
Collection (C) 2018 copyright by the U.S. Secretary of Commerce
on behalf of the United States of America. All rights reserved.
##CAS REGISTRY NO=4170-90-5
##MOLFORM=C 10 H 14 O
##$NIST SOURCE=MSDC-IR
##STATE=gas
##XUNITS=1/CM
##YUNITS=ABSORBANCE
##XFACTOR=1.
##YFACTOR=0.001
##DELTAX=1.92934
##FIRSTX=549.9
##LASTX=3999.5
##FIRSTY=1.1878
##MAXX=3999.53
##MINX=549.863
##MAXY=0.020005
##MINY=0
##NPOINTS=1789
##XYDATA=(X++(Y..Y))
549.863 1.1878 1.315 1.265 1.375 1.375 1.245 1.285 1.212 1.2388 1.545
569.156 1.645 1.605 1.545 1.605 1.665 1.755 1.965 2.055 2.085 2.005
588.450 1.775 1.555 1.535 1.535 1.305 1.1025 1.0607 0.9541 0.9402 0.9623
607.743 0.7926 0.7605 0.7503 0.6772 0.6242 0.5524 0.5384 0.5198 0.5255 0.6098
627.037 0.6796 0.6646 0.6141 0.5886 0.592 0.5134 0.4654 0.4799 0.4937 0.5043
646.330 0.4441 0.391 0.4431 0.4307 0.3652 0.3776 0.34339 0.3558 0.3817 0.3911
665.624 0.3634 0.31338 0.364 0.4006 0.374 0.3878 0.3797 0.4058 0.4991 0.4575
684.917 0.4309 0.4964 0.5383 0.6093 0.7417 0.8197 0.9753 1.1095 1.2019 1.365
704.210 1.495 1.635 1.755 1.875 2.015 1.995 1.745 1.495 1.415 1.305
723.504 1.1198 0.9944 0.8714 0.7182 0.6028 0.6067 0.6043 0.5488 0.5315 0.5864
742.797 0.6182 0.5994 0.6187 0.6298 0.641 0.7354 0.7874 0.8992 1.0792 1.2297
762.091 1.355 1.575 1.895 2.035 2.165 2.355 2.495 2.555 2.505 2.355
781.384 2.245 2.075 1.855 1.655 1.395 1.1832 0.9758 0.8775 0.8081 0.7242
800.678 0.7247 0.6863 0.6338 0.6452 0.5939 0.6152 0.6716 0.6806 0.7146 0.7151
819.971 0.7202 0.7881 0.8708 0.9726 1.1677 1.395 1.745 2.235 2.745 3.285
839.264 3.865 4.455 4.995 5.665 6.675 7.635 7.255 5.715 4.685 4.185
858.558 3.775 3.345 2.745 2.135 1.655 1.255 1.0263 0.902 0.8079 0.8209
877.851 0.7867 0.7327 0.7315 0.7182 0.7355 0.7462 0.7842 0.839 0.8244 0.8215
897.145 0.8323 0.8437 0.8616 0.859 0.9261 0.9333 0.9303 1.0276 1.1287 1.2056
916.438 1.265 1.305 1.375 1.475 1.525 1.585 1.655 1.725 1.805 1.875
935.732 1.975 2.055 2.125 2.205 2.285 2.355 2.425 2.495 2.615 2.745
955.025 2.855 3.015 3.185 3.395 3.675 4.025 4.465 4.965 5.565 6.255
974.318 7.015 7.905 8.945 10.165 11.475 12.855 14.305 15.755 17.125 18.345
993.612 19.285 19.855 20.005 19.685 18.905 17.675 16.185 14.585 12.925 11.325
1012.905 9.895 8.665 7.695 6.835 6.105 5.585 5.205 4.885 4.655 4.405
1032.199 4.075 3.845 3.675 3.455 3.245 3.035 2.825 2.685 2.485 2.285
1051.492 2.145 2.015 1.955 1.915 1.845 1.785 1.725 1.685 1.655 1.625
1070.786 1.595 1.545 1.495 1.445 1.375 1.325 1.325 1.295 1.2342 1.1719
1090.079 1.1242 1.0604 1.03 1.0583 1.0394 0.9812 0.9568 0.9992 0.9753 0.9758
1109.372 0.9854 0.9285 0.9612 1.0375 1.0837 1.1503 1.2168 1.255 1.315 1.425
1128.666 1.555 1.665 1.765 1.835 1.875 1.965 2.025 1.995 1.945 1.915
1147.959 1.855 1.755 1.715 1.645 1.575 1.565 1.565 1.535 1.555 1.585
1167.253 1.575 1.545 1.595 1.685 1.685 1.755 1.795 1.815 1.915 2.005
1186.546 2.055 1.995 2.035 2.135 2.095 2.165 2.275 2.385 2.505 2.505
1205.840 2.475 2.525 2.605 2.635 2.555 2.555 2.615 2.595 2.615 2.545
1225.133 2.435 2.385 2.395 2.465 2.405 2.295 2.285 2.225 2.205 2.225
1244.426 2.235 2.265 2.265 2.245 2.255 2.225 2.275 2.375 2.325 2.295
1263.720 2.295 2.285 2.255 2.245 2.255 2.185 2.185 2.235 2.225 2.295
1283.013 2.345 2.335 2.355 2.345 2.275 2.255 2.245 2.265 2.265 2.195
1302.307 2.095 1.995 1.915 1.845 1.775 1.715 1.665 1.625 1.605 1.625
1321.600 1.605 1.615 1.645 1.625 1.645 1.705 1.705 1.735 1.805 1.865
1340.894 1.965 2.065 2.105 2.215 2.375 2.525 2.675 2.855 2.995 3.175
1360.187 3.435 3.695 3.955 4.265 4.675 5.065 5.465 5.845 6.135 6.415
1379.480 6.655 6.785 6.845 6.895 6.855 6.665 6.315 5.945 5.615 5.265
1398.774 4.915 4.595 4.275 3.995 3.755 3.515 3.375 3.285 3.185 3.205
1418.067 3.275 3.325 3.435 3.555 3.695 3.845 4.005 4.115 4.205 4.285
1437.361 4.355 4.505 4.585 4.575 4.565 4.565 4.575 4.515 4.495 4.485
1456.654 4.345 4.235 4.215 4.185 4.095 4.125 4.235 4.235 4.235 4.295
1475.948 4.355 4.435 4.515 4.495 4.445 4.385 4.235 4.035 3.785 3.565
1495.241 3.325 3.095 2.985 2.865 2.725 2.525 2.365 2.445 2.415 2.355
1514.534 2.315 2.265 2.255 2.185 2.185 2.235 2.235 2.225 2.245 2.235
1533.828 2.215 2.255 2.205 2.105 2.145 2.205 2.245 2.305 2.375 2.405
1553.121 2.375 2.405 2.455 2.505 2.635 2.785 2.865 2.905 2.955 3.045
1572.415 3.125 3.145 3.185 3.245 3.235 3.195 3.155 3.125 3.075 3.045
1591.708 3.085 3.245 3.485 3.815 4.295 4.825 5.425 6.025 6.525 6.835
1611.002 6.925 6.835 6.455 5.885 5.275 4.535 3.665 2.865 2.165 1.595
1630.295 1.1982 0.9025 0.7215 0.6254 0.568 0.4537 0.3842 0.32051 0.2342 0.25963
1649.588 0.26823 0.1499 0.066 0.106 0.1754 0.2309 0.2309 0.1963 0.1992 0.1627
1668.882 0.114 0.143 0.158 0.1784 0.2216 0.2223 0.2162 0.1688 0.095 0.1457
1688.175 0.2275 0.24396 0.250083 0.25957 0.26096 0.31499 0.30805 0.29824 0.3667 0.4205
1707.469 0.4806 0.5423 0.6053 0.6612 0.6817 0.6588 0.6879 0.7794 0.7873 0.7197
1726.762 0.6902 0.6358 0.5567 0.4627 0.3659 0.33084 0.30617 0.2734 0.28797 0.32197
1746.056 0.33983 0.3563 0.33219 0.3581 0.3745 0.3588 0.3599 0.30431 0.28073 0.27271
1765.349 0.1909 0.129 0.113 0.083 0.076 0.112 0.095 0.071 0.08 0.086
1784.642 0.112 0.11 0.098 0.06 0.026 0.077 0.088 0.052 0.037 0.046
1803.936 0.063 0.055 0.066 0.093 0.077 0.073 0.052 0.021 0.023 0.02
1823.229 0.028 0.02 0.04 0.05 0.062 0.066 0.006 0 0.047 0.083
1842.523 0.051 0.021 0.028 0.015 0.028 0.04 0.051 0.044 0.04 0.087
1861.816 0.092 0.076 0.097 0.096 0.07 0.083 0.105 0.094 0.125 0.124
1881.110 0.124 0.1458 0.131 0.1528 0.1602 0.14 0.1572 0.1797 0.1465 0.1514
1900.403 0.1781 0.125 0.103 0.124 0.098 0.124 0.193 0.1899 0.145 0.121
1919.696 0.14 0.1586 0.12 0.119 0.1535 0.1581 0.1763 0.1639 0.1459 0.1608
1938.990 0.1576 0.1589 0.1722 0.1845 0.1857 0.195 0.2124 0.2129 0.2078 0.2084
1958.283 0.2111 0.2263 0.25836 0.247223 0.2144 0.2197 0.26469 0.27304 0.246858 0.26165
1977.577 0.28607 0.26792 0.25701 0.28748 0.28514 0.27618 0.27921 0.246121 0.2255 0.24214
1996.870 0.2217 0.1811 0.204 0.2004 0.1584 0.1585 0.138 0.117 0.131 0.144
2016.164 0.133 0.136 0.1783 0.1706 0.1458 0.15 0.154 0.142 0.141 0.1461
2035.457 0.129 0.093 0.09 0.101 0.07 0.09 0.138 0.14 0.135 0.126
2054.750 0.083 0.088 0.114 0.118 0.135 0.1598 0.176 0.154 0.117 0.12
2074.044 0.142 0.143 0.1616 0.173 0.1806 0.1683 0.1629 0.1715 0.1771 0.1697
2093.337 0.1556 0.1583 0.18 0.1989 0.1715 0.1725 0.1766 0.1591 0.1624 0.1584
2112.631 0.144 0.12 0.1549 0.1666 0.139 0.1546 0.1545 0.1537 0.1508 0.1588
2131.924 0.1543 0.1477 0.1599 0.139 0.131 0.1599 0.1716 0.2101 0.221 0.1863
2151.218 0.1682 0.1772 0.192 0.1903 0.197 0.1834 0.1488 0.1621 0.2234 0.24914
2170.511 0.2188 0.2293 0.27783 0.27059 0.2234 0.1991 0.186 0.1731 0.1834 0.1881
2189.804 0.1928 0.2111 0.1784 0.1762 0.1906 0.1782 0.1948 0.2075 0.2059 0.1561
2209.098 0.135 0.1485 0.1682 0.1733 0.1897 0.1964 0.1627 0.1733 0.1726 0.1713
2228.391 0.1698 0.1605 0.1683 0.1603 0.1748 0.1855 0.1508 0.1509 0.1831 0.2007
2247.685 0.2001 0.1876 0.1718 0.1505 0.1456 0.2154 0.27943 0.2296 0.1835 0.1855
2266.978 0.1939 0.2258 0.251312 0.2179 0.2015 0.2044 0.1947 0.185 0.1852 0.1941
2286.272 0.2162 0.245776 0.2253 0.1854 0.1795 0.1965 0.2079 0.1807 0.1665 0.1925
2305.565 0.1868 0.1921 0.1833 0.1574 0.176 0.2002 0.2108 0.2072 0.1805 0.1502
2324.858 0.137 0.1712 0.2033 0.2087 0.1859 0.1634 0.1525 0.1682 0.2145 0.2139
2344.152 0.2099 0.228 0.229 0.2112 0.2228 0.2238 0.1826 0.1567 0.185 0.1975
2363.445 0.2039 0.1926 0.157 0.1874 0.2104 0.2152 0.253174 0.28762 0.28255 0.29407
2382.739 0.3245 0.3463 0.33262 0.28631 0.27764 0.34018 0.3717 0.32774 0.30128 0.2982
2402.032 0.3033 0.31872 0.30231 0.2887 0.32719 0.353 0.33073 0.31761 0.31301 0.32198
2421.326 0.34428 0.33958 0.33134 0.3463 0.3222 0.31056 0.3758 0.3818 0.33417 0.33526
2440.619 0.3591 0.32759 0.32493 0.3959 0.4211 0.4215 0.4132 0.3565 0.33832 0.3509
2459.912 0.372 0.3833 0.3689 0.3829 0.3797 0.34479 0.33251 0.3671 0.4096 0.4007
2479.206 0.3467 0.3601 0.4192 0.399 0.3591 0.3718 0.3941 0.3948 0.3973 0.3732
2498.499 0.3663 0.3746 0.3845 0.4298 0.4098 0.3617 0.34324 0.34379 0.3857 0.3797
2517.793 0.34369 0.34023 0.31338 0.32664 0.32439 0.33559 0.3565 0.346 0.3758 0.3502
2537.086 0.3301 0.30728 0.26166 0.28772 0.32401 0.31989 0.3608 0.3905 0.3644 0.3644
2556.380 0.34135 0.3519 0.3506 0.33398 0.3477 0.32896 0.31531 0.29557 0.32326 0.3684
2575.673 0.3835 0.3452 0.3513 0.3705 0.32877 0.3496 0.3636 0.3799 0.3873 0.32226
2594.966 0.3603 0.4172 0.4007 0.368 0.31397 0.33477 0.3694 0.33113 0.32313 0.3595
2614.260 0.4017 0.3718 0.3162 0.33297 0.4136 0.4481 0.3927 0.3575 0.3731 0.3876
2633.553 0.3763 0.3946 0.4183 0.4025 0.397 0.4265 0.4451 0.4369 0.405 0.3921
2652.847 0.4143 0.4756 0.4638 0.4906 0.5319 0.5146 0.5095 0.4888 0.4934 0.5067
2672.140 0.5658 0.585 0.4905 0.4912 0.5225 0.5396 0.5733 0.5182 0.4673 0.5378
2691.434 0.5502 0.5224 0.5462 0.583 0.6056 0.5842 0.5919 0.5924 0.6763 0.7124
2710.727 0.6596 0.7355 0.7333 0.6817 0.7323 0.7531 0.8365 0.8728 0.8359 0.8605
2730.020 0.9247 1.0314 1.1089 1.1288 1.1418 1.2308 1.275 1.2405 1.275 1.275
2749.314 1.2374 1.1778 1.1014 1.0349 0.9771 0.983 0.9948 1.0086 0.995 0.9473
2768.607 0.9477 0.9631 0.96 0.9967 0.9978 0.9374 0.8801 0.9198 0.9993 1.0218
2787.901 1.0794 1.128 1.1285 1.1376 1.0837 1.051 1.135 1.1675 1.167 1.275
2807.194 1.265 1.265 1.365 1.465 1.525 1.515 1.625 1.815 1.865 1.815
2826.488 1.895 1.985 2.115 2.175 2.175 2.345 2.495 2.645 2.785 2.945
2845.781 3.215 3.535 3.815 4.095 4.475 4.895 5.385 5.915 6.405 6.875
2865.074 7.455 8.015 8.405 8.685 8.965 9.235 9.425 9.505 9.375 9.275
2884.368 9.245 9.185 9.105 9.005 8.995 9.095 9.165 9.205 9.455 9.805
2903.661 10.205 10.745 11.345 11.975 12.575 13.405 14.345 15.215 16.215 17.205
2922.955 17.965 18.495 19.025 19.425 19.575 19.545 19.205 18.655 18.175 17.535
2942.248 16.725 16.025 15.455 14.805 14.255 13.965 13.745 13.575 13.305 13.035
2961.542 12.845 12.625 12.425 12.305 12.135 12.055 11.855 11.525 11.375 11.275
2980.835 11.155 11.015 10.815 10.675 10.495 10.385 10.335 10.225 10.175 10.035
3000.128 10.085 10.285 10.405 10.405 10.445 10.505 10.445 10.425 10.385 10.285
3019.422 10.105 9.805 9.445 9.055 8.695 8.455 8.205 7.885 7.475 7.155
3038.715 6.845 6.495 6.285 6.025 5.655 5.285 4.895 4.635 4.455 4.205
3058.009 3.945 3.695 3.415 3.215 3.115 3.095 2.945 2.715 2.535 2.485
3077.302 2.545 2.415 2.275 2.165 2.085 2.065 2.065 2.055 1.965 1.775
3096.596 1.565 1.595 1.615 1.435 1.305 1.2144 1.187 1.218 1.275 1.335
3115.889 1.1818 1.1264 1.0974 1.0181 1.0081 1.0465 1.0028 0.9475 1.01 0.8647
3135.182 0.8308 0.9102 0.8916 0.9484 0.8944 0.8657 0.9427 0.7746 0.7846 0.8085
3154.476 0.6004 0.5807 0.6292 0.6292 0.6789 0.6792 0.5804 0.6257 0.7506 0.7499
3173.769 0.636 0.6121 0.6016 0.6373 0.7107 0.595 0.5902 0.5006 0.6247 0.7162
3193.063 0.5855 0.5587 0.5617 0.6745 0.6534 0.6275 0.6913 0.6229 0.4243 0.29555
3212.356 0.3684 0.5845 0.6624 0.6678 0.5886 0.4918 0.5406 0.555 0.5758 0.5182
3231.650 0.4317 0.4182 0.4378 0.4067 0.34282 0.31987 0.3007 0.4022 0.4524 0.4885
3250.943 0.53 0.4783 0.508 0.512 0.424 0.4394 0.5049 0.5084 0.4728 0.5087
3270.236 0.4964 0.4205 0.3509 0.30142 0.26521 0.29894 0.3608 0.3738 0.4594 0.4892
3289.530 0.435 0.3783 0.5388 0.5282 0.3462 0.4236 0.464 0.5697 0.5938 0.4601
3308.823 0.4458 0.4037 0.4043 0.5269 0.6083 0.5609 0.5371 0.5316 0.4681 0.398
3328.117 0.31428 0.3678 0.3937 0.3723 0.4358 0.4515 0.3734 0.32525 0.3515 0.3744
3347.410 0.34246 0.3716 0.3609 0.3841 0.4987 0.4818 0.3855 0.3698 0.3538 0.4488
3366.704 0.4923 0.30526 0.26787 0.27831 0.3388 0.3541 0.3516 0.4682 0.4973 0.5716
3385.997 0.4784 0.34245 0.4954 0.5015 0.33164 0.30655 0.4037 0.4539 0.4155 0.4064
3405.290 0.33851 0.32887 0.383 0.32075 0.4225 0.5112 0.4942 0.4968 0.4226 0.30305
3424.584 0.25892 0.31428 0.3898 0.4341 0.5355 0.53 0.4627 0.5061 0.3667 0.33475
3443.877 0.4638 0.4831 0.5327 0.5489 0.4315 0.4417 0.5964 0.5093 0.4717 0.5543
3463.171 0.6023 0.6704 0.5957 0.514 0.444 0.4754 0.5238 0.4394 0.4119 0.4494
3482.464 0.5299 0.5837 0.4335 0.29404 0.3622 0.4274 0.4543 0.504 0.5441 0.4847
3501.758 0.403 0.4089 0.5034 0.4457 0.3777 0.4626 0.4474 0.4283 0.3671 0.29912
3521.051 0.34378 0.4341 0.5338 0.5337 0.4747 0.3683 0.29992 0.4852 0.6575 0.5949
3540.344 0.4438 0.3502 0.4521 0.5264 0.4133 0.4403 0.5157 0.5703 0.4933 0.4213
3559.638 0.4085 0.4212 0.5282 0.5026 0.5369 0.4727 0.3133 0.31499 0.4594 0.4445
3578.931 0.4109 0.4708 0.5012 0.5655 0.5279 0.5518 0.5888 0.4824 0.4575 0.4552
3598.225 0.3974 0.4757 0.5086 0.4435 0.502 0.5557 0.4964 0.5559 0.5947 0.5337
3617.518 0.5552 0.6548 0.6668 0.6497 0.6805 0.714 0.8119 0.922 1.1688 1.505
3636.812 1.785 2.055 2.215 2.475 2.905 3.355 3.775 3.945 3.665 3.335
3656.105 3.075 2.695 2.315 2.085 1.885 1.565 1.206 0.9024 0.6781 0.6561
3675.398 0.5552 0.455 0.6206 0.5888 0.5512 0.5631 0.509 0.4615 0.4306 0.4323
3694.692 0.3851 0.417 0.5696 0.6407 0.5153 0.4591 0.5348 0.5296 0.4874 0.4911
3713.985 0.5719 0.5545 0.5619 0.5582 0.4686 0.5025 0.5233 0.5297 0.4823 0.4544
3733.279 0.6062 0.5937 0.4598 0.4008 0.3619 0.4147 0.3948 0.3848 0.4077 0.4771
3752.572 0.4977 0.4348 0.4534 0.5383 0.4739 0.4159 0.4181 0.4 0.4419 0.4944
3771.866 0.5028 0.4094 0.4287 0.4388 0.4486 0.5278 0.5144 0.4606 0.4443 0.5204
3791.159 0.5286 0.4493 0.4125 0.3861 0.3452 0.3987 0.4441 0.4761 0.5081 0.517
3810.452 0.515 0.5384 0.5753 0.4964 0.5952 0.6089 0.4898 0.5871 0.5656 0.4322
3829.746 0.3798 0.3789 0.3949 0.4001 0.5302 0.5727 0.5242 0.4961 0.4697 0.4501
3849.039 0.3915 0.475 0.6189 0.6093 0.5526 0.5709 0.4973 0.4215 0.4105 0.4619
3868.333 0.5871 0.5956 0.5826 0.5711 0.5383 0.4819 0.5239 0.5774 0.5161 0.4828
3887.626 0.4892 0.6437 0.6504 0.5911 0.6064 0.5292 0.5781 0.668 0.5994 0.5925
3906.920 0.5689 0.5554 0.5934 0.6424 0.7017 0.633 0.5789 0.5341 0.596 0.6085
3926.213 0.5808 0.4729 0.3508 0.4379 0.4964 0.5484 0.5773 0.5272 0.4939 0.4615
3945.506 0.5678 0.6393 0.5864 0.5382 0.4538 0.3946 0.4379 0.55 0.6413 0.6648
3964.800 0.6473 0.6504 0.568 0.5236 0.6086 0.6361 0.5925 0.5072 0.4442 0.4551
3984.093 0.4764 0.5335 0.5221 0.4916 0.4901 0.4872 0.5407 0.5075 0.4942
##END=
