##TITLE=2-Phenoxybutyryl chloride
##JCAMP-DX=4.24
##DATA TYPE=INFRARED SPECTRUM
##ORIGIN=EPA-IR VAPOR PHASE LIBRARY
##OWNER=SRD/NIST
Collection (C) 2018 copyright by the U.S. Secretary of Commerce
on behalf of the United States of America. All rights reserved.
##CAS REGISTRY NO=41717-60-6
##MOLFORM=C 10 H 11 Cl O 2
##$NIST SOURCE=MSDC-IR
##STATE=gas
##XUNITS=1/CM
##YUNITS=ABSORBANCE
##XFACTOR=1.
##YFACTOR=0.001
##DELTAX=1.92934
##FIRSTX=549.9
##LASTX=3999.5
##FIRSTY=8.06
##MAXX=3999.53
##MINX=549.863
##MAXY=0.1259
##MINY=0
##NPOINTS=1789
##XYDATA=(X++(Y..Y))
549.863 8.06 8.08 8.31 8.41 8.32 8.44 8.61 8.62 8.6 8.38
569.156 8.32 8.28 8.25 8.26 8.18 8.11 8.17 8.41 8.5 8.37
588.450 8.34 8.43 8.44 8.4 8.38 8.45 8.45 8.46 8.54 8.77
607.743 9 8.92 8.88 8.88 8.74 8.56 8.29 7.99 7.76 7.57
627.037 7.38 7.22 7.16 7.1 7.03 7 7.02 7.07 7.12 7.08
646.330 6.94 6.94 7 6.94 6.89 6.86 6.8 6.86 7.05 7.28
665.624 7.54 7.86 8.41 8.94 9.57 10.49 11.63 12.94 14.37 15.79
684.917 17.08 17.97 18.35 18.26 17.6 16.57 15.36 14.26 13.33 12.53
704.210 11.96 11.64 11.4 11.25 11.22 11.16 11.11 11.2 11.37 11.51
723.504 11.76 12.24 12.95 13.85 15.13 16.84 18.96 21.49 24.42 27.76
742.797 31.36 34.9 38.13 40.77 42.39 42.77 42.24 40.92 38.97 36.76
762.091 34.63 32.71 31.05 29.61 28.49 27.69 27 26.37 25.9 25.54
781.384 25.12 24.72 24.42 24.16 24.05 24 24.08 24.36 24.64 24.84
800.678 24.92 24.82 24.52 23.94 23.12 22.13 21.12 20.41 19.74 18.77
819.971 17.85 17.35 17.13 17.03 17.16 17.57 18.06 18.5 18.92 19.18
839.264 19.12 18.7 18.08 17.21 16.15 15.16 14.25 13.48 12.9 12.57
858.558 12.51 12.59 12.74 12.99 13.34 13.78 14.17 14.51 14.93 15.31
877.851 15.64 15.91 16.04 16.18 16.3 16.37 16.42 16.47 16.53 16.6
897.145 16.64 16.57 16.38 16.04 15.73 15.33 14.82 14.44 14.08 13.7
916.438 13.37 13.19 13.27 13.48 13.86 14.43 15.16 15.95 16.76 17.44
935.732 17.91 18.22 18.31 18.22 18.08 17.9 17.87 18.03 18.3 18.71
955.025 19.2 19.63 20.03 20.31 20.41 20.29 19.96 19.57 19.09 18.65
974.318 18.36 18.23 18.35 18.64 19.03 19.45 19.84 20.12 20.2 20.11
993.612 19.87 19.46 18.94 18.43 17.91 17.36 16.85 16.47 16.25 16.11
1012.905 16.07 16.28 16.84 17.56 18.27 18.95 19.49 19.77 19.78 19.56
1032.199 19.1 18.45 17.85 17.43 17.22 17.28 17.63 18.19 18.92 19.75
1051.492 20.57 21.32 21.87 22.23 22.44 22.34 22.08 21.68 21.22 20.76
1070.786 20.2 19.65 19.08 18.37 17.72 17.02 16.14 15.36 14.63 13.84
1090.079 13.22 12.69 12.33 12.03 11.76 11.71 11.73 11.66 11.68 11.75
1109.372 11.76 11.79 11.79 11.74 11.61 11.53 11.57 11.56 11.6 11.66
1128.666 11.76 11.98 12.04 12.06 12.15 12.09 11.73 11.44 11.22 11.02
1147.959 10.97 11.05 11.06 11.06 11.29 11.65 12.33 13.27 14.37 15.49
1167.253 16.34 17.05 17.36 17.2 16.54 15.35 13.9 12.67 11.72 10.99
1186.546 10.75 10.67 11.01 12.09 13.61 15.28 17.57 20.6 24.04 28.65
1205.840 34.51 40.88 47.65 55.08 63.14 71.29 79.87 88.91 98.1 107.06
1225.133 115.51 122.42 125.9 125.52 121.15 113.06 101.49 87.46 72.57 58.6
1244.426 47.16 38.83 33.21 29.54 27.02 25.04 23.51 22.18 21.06 20.02
1263.720 18.9 17.83 16.89 16.1 15.55 15.13 14.88 14.7 14.33 13.93
1283.013 13.51 12.99 12.49 12.05 11.68 11.3 10.87 10.45 10.02 9.58
1302.307 9.12 8.63 8.12 7.72 7.38 7.16 7.06 6.94 6.85 6.8
1321.600 6.83 6.87 6.93 7.1 7.32 7.61 7.99 8.39 8.81 9.24
1340.894 9.59 9.78 9.8 9.68 9.43 8.98 8.4 7.8 7.21 6.67
1360.187 6.24 5.88 5.48 5.24 5.07 4.96 4.94 4.95 4.97 5.1
1379.480 5.26 5.44 5.71 5.97 6.23 6.41 6.48 6.49 6.32 5.99
1398.774 5.62 5.21 4.81 4.44 4.1 3.79 3.57 3.46 3.3907 3.3642
1418.067 3.3764 3.398 3.49 3.61 3.7 3.84 4.04 4.3 4.63 5.06
1437.361 5.51 5.95 6.45 6.91 7.32 7.79 8.26 8.66 9.15 9.75
1456.654 10.41 11.12 11.82 12.51 13.23 14.03 14.86 15.75 16.9 18.43
1475.948 20.47 23.4 27.46 32.98 40.14 48.59 57.33 64.83 69.61 71.14
1495.241 69.29 64.24 56.6 46.89 36.41 27.03 19.69 14.78 11.66 9.59
1514.534 8.25 7.3 6.56 6.06 5.67 5.27 4.99 4.81 4.64 4.5
1533.828 4.39 4.3 4.27 4.27 4.28 4.34 4.46 4.62 4.76 4.92
1553.121 5.13 5.37 5.71 6.11 6.58 7.15 7.84 8.65 9.66 10.94
1572.415 12.41 14.16 16.37 18.98 21.95 25.33 29 32.83 36.53 39.89
1591.708 42.64 44.4 44.72 43.42 40.66 36.79 32.3 27.56 22.92 18.71
1611.002 15.21 12.48 10.42 8.86 7.7 6.88 6.24 5.7 5.31 4.9
1630.295 4.57 4.35 4.11 3.93 3.78 3.66 3.56 3.52 3.49 3.41
1649.588 3.41 3.43 3.41 3.47 3.51 3.57 3.68 3.74 3.74 3.74
1668.882 3.75 3.76 3.73 3.71 3.66 3.59 3.61 3.58 3.55 3.59
1688.175 3.61 3.6 3.58 3.63 3.63 3.63 3.64 3.69 3.75 3.79
1707.469 3.81 3.81 3.84 3.89 3.96 4.02 4.1 4.24 4.36 4.49
1726.762 4.64 4.84 5.05 5.25 5.52 5.79 6.09 6.45 6.84 7.32
1746.056 7.84 8.37 8.89 9.43 10.03 10.71 11.43 12.28 13.24 14.26
1765.349 15.49 17 18.86 20.98 23.62 26.76 30.39 34.59 39.19 43.97
1784.642 48.73 53.09 56.81 59.7 61 60.16 57.79 54.83 51.7 48.56
1803.936 45.75 43.76 42.64 42.45 43.19 44.54 46.15 47.68 48.82 49.32
1823.229 48.95 47.53 45.32 42.54 39.41 36.17 32.94 30.01 27.38 25.1
1842.523 23.13 21.38 19.88 18.58 17.45 16.43 15.47 14.58 13.79 13.08
1861.816 12.41 11.77 11.2 10.64 10.05 9.5 9.02 8.53 8.01 7.52
1881.110 7.07 6.66 6.31 5.96 5.7 5.5 5.27 5.06 4.95 4.87
1900.403 4.74 4.66 4.65 4.63 4.62 4.64 4.66 4.68 4.73 4.76
1919.696 4.78 4.82 4.79 4.71 4.64 4.55 4.42 4.31 4.22 4.16
1938.990 4.14 4.09 4 3.94 3.87 3.73 3.58 3.44 3.2368 3.1
1958.283 3.0402 3.0055 2.9491 2.9279 2.9025 2.864 2.8564 2.8354 2.8252 2.7951
1977.577 2.7921 2.778 2.7311 2.7448 2.7468 2.7433 2.7938 2.7993 2.7649 2.7529
1996.870 2.79 2.8066 2.7641 2.7462 2.7452 2.715 2.6731 2.655 2.679 2.6964
2016.164 2.6998 2.7035 2.6816 2.6752 2.6433 2.6294 2.67 2.6859 2.7135 2.754
2035.457 2.7942 2.8206 2.8367 2.8674 2.8703 2.9128 2.9356 2.9575 3.0044 2.9651
2054.750 3.0262 3.0017 2.9951 3.0551 3.0309 3.0465 2.9577 2.9698 2.9408 2.9361
2074.044 2.9073 2.8377 2.841 2.7545 2.7786 2.7284 2.7438 2.6734 2.6794 2.6745
2093.337 2.6281 2.6886 2.6595 2.7209 2.6369 2.6272 2.5932 2.6521 2.615 2.5737
2112.631 2.5982 2.6015 2.602 2.5809 2.5712 2.514 2.5156 2.4926 2.5024 2.44672
2131.924 2.42628 2.3678 2.3297 2.27 2.195 2.205 2.219 2.217 2.226 2.231
2151.218 2.264 2.3211 2.3258 2.3076 2.3161 2.3576 2.39378 2.44406 2.4715 2.44059
2170.511 2.45886 2.46566 2.46339 2.47323 2.45089 2.44704 2.5005 2.5353 2.5297 2.5408
2189.804 2.5122 2.49202 2.5192 2.47178 2.42553 2.43353 2.4335 2.42791 2.388 2.373
2209.098 2.3654 2.3321 2.294 2.264 2.283 2.284 2.277 2.27 2.273 2.255
2228.391 2.245 2.267 2.22 2.193 2.197 2.19 2.23 2.246 2.218 2.205
2247.685 2.216 2.241 2.262 2.266 2.25 2.23 2.205 2.18 2.188 2.243
2266.978 2.263 2.249 2.231 2.196 2.17 2.164 2.135 2.108 2.119 2.116
2286.272 2.091 2.118 2.136 2.112 2.128 2.113 2.121 2.17 2.196 2.236
2305.565 2.27 2.3185 2.3621 2.3798 2.3707 2.3649 2.3632 2.371 2.42145 2.41044
2324.858 2.3941 2.3814 2.3816 2.41246 2.3863 2.3595 2.3801 2.3572 2.297 2.285
2344.152 2.295 2.273 2.282 2.292 2.293 2.29 2.277 2.268 2.216 2.239
2363.445 2.3037 2.3157 2.344 2.3662 2.3259 2.3266 2.3225 2.299 2.3003 2.273
2382.739 2.251 2.268 2.242 2.22 2.3142 2.3565 2.315 2.315 2.3346 2.3476
2402.032 2.3819 2.41037 2.3783 2.352 2.3553 2.3807 2.41279 2.43362 2.4484 2.5157
2421.326 2.5952 2.5844 2.6116 2.6389 2.6464 2.6987 2.7525 2.7711 2.7891 2.8068
2440.619 2.7838 2.7476 2.7425 2.7671 2.7716 2.7224 2.6594 2.6504 2.6553 2.6044
2459.912 2.5253 2.48486 2.45934 2.41428 2.3704 2.305 2.261 2.242 2.208 2.195
2479.206 2.152 2.157 2.157 2.144 2.173 2.189 2.166 2.159 2.16 2.152
2498.499 2.189 2.211 2.196 2.181 2.199 2.214 2.175 2.16 2.203 2.239
2517.793 2.217 2.193 2.214 2.181 2.153 2.123 2.115 2.127 2.099 2.132
2537.086 2.166 2.133 2.109 2.087 2.065 2.069 2.087 2.096 2.063 2.019
2556.380 2.02 2.057 2.09 2.069 2.028 2.021 2.062 2.048 2.011 2.038
2575.673 2.046 2.055 2.087 2.087 2.01 1.947 1.932 1.98 2.028 2.015
2594.966 1.998 1.97 1.957 1.944 1.934 1.928 1.93 1.966 1.994 1.972
2614.260 1.97 1.952 1.903 1.963 2.036 1.963 1.895 1.883 1.881 1.874
2633.553 1.871 1.859 1.905 1.893 1.797 1.803 1.829 1.874 1.867 1.836
2652.847 1.824 1.783 1.776 1.803 1.81 1.819 1.895 1.914 1.815 1.833
2672.140 1.897 1.898 1.948 1.98 1.924 1.86 1.883 1.947 1.962 2.002
2691.434 2.033 1.978 1.904 1.887 1.918 1.981 2.01 1.95 1.93 1.879
2710.727 1.884 1.923 1.897 1.92 1.919 1.944 1.967 2.034 2.124 2.111
2730.020 2.077 2.01 1.924 1.914 1.927 1.924 1.932 1.897 1.911 2.024
2749.314 2.157 2.234 2.193 2.13 2.066 2.095 2.194 2.246 2.186 2.102
2768.607 2.118 2.121 2.174 2.3253 2.3298 2.156 2.083 2.153 2.195 2.145
2787.901 2.159 2.199 2.143 2.168 2.234 2.255 2.185 2.088 2.088 2.102
2807.194 2.127 2.18 2.212 2.176 2.166 2.146 2.288 2.39072 2.3207 2.229
2826.488 2.117 2.167 2.259 2.277 2.234 2.271 2.3782 2.43137 2.6087 2.7987
2845.781 2.7092 2.6782 2.8643 2.9039 2.9089 3.0983 3.2511 3.41 3.65 3.94
2865.074 4.25 4.35 4.4 4.56 4.77 5.07 5.44 5.74 6.12 6.67
2884.368 7.21 7.8 8.25 8.55 8.68 8.67 8.62 8.42 8.12 7.85
2903.661 7.62 7.43 7.26 7.23 7.44 7.75 8.13 8.34 8.54 8.81
2922.955 9.19 9.55 9.74 9.93 10.22 10.7 11.3 12.04 12.84 13.7
2942.248 14.49 15.19 15.66 15.68 15.5 15.21 14.77 14.37 14.03 13.66
2961.542 13.43 13.33 13.33 13.66 14.47 15.62 17.09 18.64 20.25 21.63
2980.835 22.34 22.44 22.19 21.58 20.57 19.25 17.7 15.97 14.13 12.28
3000.128 10.47 8.91 7.64 6.72 6.11 5.75 5.66 5.6 5.52 5.47
3019.422 5.63 5.83 5.96 6.27 6.6 7.01 7.57 8.15 8.72 9.53
3038.715 10.3 10.84 11.38 11.69 11.69 11.51 11.24 10.85 10.48 10.16
3058.009 9.81 9.68 9.83 10.13 10.49 10.95 11.62 12.2 12.7 13.22
3077.302 13.66 13.8 13.56 13.15 12.57 11.78 10.82 9.91 9.21 8.77
3096.596 8.36 8.04 7.9 7.54 6.99 6.39 5.9 5.31 4.63 4.01
3115.889 3.3728 2.8719 2.5716 2.265 2.053 1.934 1.698 1.602 1.568 1.546
3135.182 1.44 1.27 1.17 1.24 1.31 1.21 1.08 1.03 1.15 1.09
3154.476 0.96 1 0.9 0.7 0.79 0.92 0.89 0.85 0.87 0.73
3173.769 0.71 0.87 0.92 0.87 0.74 0.69 0.64 0.58 0.5 0.47
3193.063 0.51 0.48 0.41 0.42 0.54 0.49 0.39 0.51 0.56 0.6
3212.356 0.55 0.43 0.45 0.39 0.44 0.38 0.19 0.23 0.41 0.56
3231.650 0.46 0.3 0.32 0.35 0.25 0.23 0.34 0.36 0.24 0.2
3250.943 0.23 0.22 0.31 0.28 0.19 0.23 0.26 0.14 0.25 0.48
3270.236 0.28 0.16 0.19 0.17 0.29 0.34 0.34 0.43 0.35 0.18
3289.530 0.32 0.34 0.31 0.33 0.31 0.32 0.26 0.24 0.17 0.19
3308.823 0.23 0.15 0.2 0.36 0.37 0.35 0.3 0.23 0.3 0.18
3328.117 0.18 0.34 0.3 0.26 0.32 0.31 0.24 0.3 0.27 0.27
3347.410 0.27 0.11 0.15 0.15 0 0.08 0.17 0.18 0.22 0.24
3366.704 0.26 0.13 0.09 0.32 0.46 0.29 0.13 0.1 0.13 0.26
3385.997 0.33 0.33 0.19 0.15 0.22 0.16 0.12 0.2 0.25 0.14
3405.290 0.23 0.31 0.24 0.36 0.3 0.12 0.09 0.12 0.33 0.37
3424.584 0.29 0.19 0.12 0.08 0.17 0.24 0.18 0.13 0.06 0.05
3443.877 0.11 0.24 0.37 0.4 0.36 0.35 0.42 0.37 0.22 0.16
3463.171 0.17 0.28 0.28 0.25 0.26 0.18 0.23 0.38 0.33 0.24
3482.464 0.29 0.42 0.41 0.3 0.31 0.43 0.4 0.35 0.48 0.48
3501.758 0.4 0.45 0.58 0.57 0.48 0.57 0.66 0.6 0.54 0.62
3521.051 0.65 0.71 0.75 0.65 0.74 0.85 0.76 0.81 0.97 0.99
3540.344 0.96 1 1.14 1.17 1.12 1.17 1.19 1.24 1.46 1.537
3559.638 1.37 1.23 1.439 1.506 1.35 1.28 1.25 1.22 1.17 1.11
3578.931 1.12 1.13 1.08 1.03 0.96 0.97 1.06 1.14 1.14 1.12
3598.225 1.26 1.3 1.22 1.26 1.27 1.31 1.3 1.29 1.37 1.35
3617.518 1.3 1.33 1.463 1.453 1.37 1.3 1.23 1.22 1.29 1.29
3636.812 1.17 1.21 1.25 1.21 1.25 1.23 1.21 1.34 1.26 1.15
3656.105 1.11 1.16 1.16 1.04 1.13 1.19 1.08 1.09 1.18 1.19
3675.398 1.19 1.21 1.15 1.09 0.98 0.9 0.97 1.03 0.99 1
3694.692 1.09 1.1 1.01 0.95 1.06 1.11 1.06 1.11 1.12 1.07
3713.985 1.12 1.1 1 1.03 0.97 0.9 0.94 1.06 1.09 0.94
3733.279 0.92 1.02 1.08 0.99 0.92 1.01 1.05 1.04 0.96 0.96
3752.572 1.05 0.99 0.94 1.02 1.17 1.09 0.99 0.96 0.96 1.11
3771.866 1.13 0.97 0.81 0.79 0.95 1.06 1.07 1.1 1.1 1.06
3791.159 1.11 1.1 1.04 1.1 1.06 0.98 1 1.01 1.02 1.12
3810.452 1.24 1.14 1.04 1.09 1.19 1.25 1.23 1.14 1.03 0.93
3829.746 0.98 1.13 1.15 1.05 1.03 1.09 1.1 1.16 1.18 1.1
3849.039 1.12 1.2 1.14 1.09 1.12 1.16 1.27 1.29 1.28 1.23
3868.333 1.05 1.12 1.2 1.23 1.29 1.2 1.13 1.16 1.2 1.22
3887.626 1.24 1.18 1.14 1.19 1.2 1.23 1.25 1.22 1.29 1.38
3906.920 1.37 1.3 1.32 1.34 1.21 1.22 1.26 1.24 1.32 1.37
3926.213 1.28 1.13 1.22 1.34 1.37 1.406 1.34 1.27 1.23 1.16
3945.506 1.13 1.21 1.26 1.21 1.24 1.36 1.32 1.24 1.2 1.2
3964.800 1.36 1.407 1.33 1.27 1.35 1.3 1.38 1.44 1.2 1.18
3984.093 1.26 1.36 1.421 1.466 1.457 1.38 1.38 1.402 1.404
##END=
