##TITLE=4-Di-n-butylamino-1-butanol
##JCAMP-DX=4.24
##DATA TYPE=INFRARED SPECTRUM
##ORIGIN=EPA-IR VAPOR PHASE LIBRARY
##OWNER=SRD/NIST
Collection (C) 2018 copyright by the U.S. Secretary of Commerce
on behalf of the United States of America. All rights reserved.
##CAS REGISTRY NO=41788-34-5
##MOLFORM=C 12 H 27 N O
##$NIST SOURCE=MSDC-IR
##STATE=gas
##XUNITS=1/CM
##YUNITS=ABSORBANCE
##XFACTOR=1.
##YFACTOR=0.001
##DELTAX=3.85796
##FIRSTX=501.5
##LASTX=4000.7
##FIRSTY=1.84
##MAXX=4000.7
##MINX=501.534
##MAXY=0.0932
##MINY=0.0001738
##NPOINTS=908
##XYDATA=(X++(Y..Y))
501.534 1.84 1.71 1.55 1.51 1.52 1.54 1.54 1.51 1.45 1.32
540.114 1.24 1.3 1.26 1.36 1.46 1.33 1.26 1.24 1.24 1.22
578.693 1.2 1.04 0.8587 0.865 0.8155 0.6955 0.6569 0.6221 0.5967 0.6293
617.273 0.6327 0.6121 0.5472 0.4932 0.6323 0.705 0.6504 0.6757 0.5811 0.6155
655.852 0.7103 0.6697 0.6688 0.663 0.6645 0.6621 0.6371 0.6287 0.6602 0.6995
694.432 0.7892 0.9775 1.05 1.16 1.33 1.48 1.63 1.74 1.87 2.04
733.011 2.18 2.3 2.43 2.45 2.37 2.25 2.09 1.9 1.82 1.78
771.591 1.73 1.78 1.87 1.92 2.01 2.03 2.05 2.02 2.03 2.11
810.170 2.09 2.1 2.1 2.06 2.02 1.98 1.9 1.85 1.87 1.84
848.750 1.8 1.81 1.83 1.83 1.92 2.05 2.13 2.3 2.5 2.63
887.330 2.78 2.93 3.1 3.38 3.62 3.75 3.78 3.82 3.89 3.89
925.909 4.04 4.34 4.67 4.99 5.26 5.5 5.63 5.57 5.46 5.34
964.489 5.28 5.43 5.61 5.83 6.11 6.38 6.64 6.92 7.24 7.45
1003.068 7.75 8.2 8.79 9.82 11.21 12.86 14.73 16.54 18.04 19.47
1041.648 20.82 21.99 22.91 23.45 23.5 23.14 22.7 22.41 22.19 21.69
1080.227 20.78 19.62 18.16 16.38 14.58 12.79 11.11 9.79 8.76 7.98
1118.807 7.37 6.86 6.46 6.19 6.07 6.11 6.29 6.6 6.92 7.24
1157.387 7.59 8.11 8.71 9.21 9.37 9.18 8.64 7.82 7.11 6.6
1195.966 6.26 5.99 5.77 5.65 5.6 5.56 5.6 5.79 6.09 6.4
1234.546 6.77 7.16 7.39 7.51 7.57 7.61 7.65 7.73 7.7 7.6
1273.125 7.46 7.12 6.85 6.74 6.75 6.95 7.24 7.54 7.77 7.8
1311.705 7.65 7.41 7.2 7.11 7.22 7.52 7.94 8.38 8.73 9.07
1350.284 9.54 10.24 11.1 11.87 12.38 12.66 12.83 12.87 12.56 11.68
1388.864 10.28 8.76 7.43 6.38 5.62 5.09 4.73 4.52 4.42 4.47
1427.443 4.7 5.13 5.77 6.55 7.38 8.34 9.47 10.71 11.94 12.84
1466.023 13.01 12.19 10.5 8.44 6.52 5 3.91 3.18 2.72 2.38
1504.603 2.11 1.88 1.69 1.54 1.42 1.31 1.21 1.13 1.05 0.9756
1543.182 0.9178 0.8506 0.7968 0.7419 0.6851 0.6546 0.6487 0.6176 0.5965 0.5997
1581.762 0.5732 0.5549 0.5419 0.5159 0.4958 0.4843 0.4904 0.4763 0.461 0.4613
1620.341 0.4562 0.4533 0.4361 0.4504 0.4779 0.4754 0.5074 0.5227 0.5255 0.5071
1658.921 0.4505 0.4178 0.3777 0.3345 0.3057 0.2875 0.2898 0.2887 0.2796 0.2718
1697.500 0.2538 0.2433 0.2293 0.2107 0.2331 0.2489 0.2162 0.2011 0.2062 0.1894
1736.080 0.2018 0.2153 0.203 0.1978 0.1856 0.1738 0.1751 0.1759 0.1759 0.1865
1774.659 0.198 0.2121 0.1999 0.2024 0.2048 0.2081 0.2188 0.2097 0.2136 0.2092
1813.239 0.2003 0.216 0.2209 0.2038 0.2002 0.2061 0.2101 0.2127 0.2138 0.2125
1851.819 0.212 0.2201 0.2187 0.2264 0.2343 0.2264 0.2163 0.2331 0.2646 0.2565
1890.398 0.2455 0.251 0.2439 0.2337 0.244 0.2422 0.2508 0.2594 0.2407 0.2113
1928.978 0.2199 0.2454 0.2199 0.2233 0.2486 0.2467 0.2429 0.2381 0.2442 0.237
1967.557 0.235 0.2518 0.2689 0.2758 0.252 0.2423 0.2695 0.2809 0.2673 0.2809
2006.137 0.3034 0.3179 0.3218 0.3316 0.3632 0.3672 0.3606 0.3639 0.3803 0.406
2044.716 0.3835 0.3625 0.3631 0.3631 0.3695 0.3724 0.3513 0.3239 0.2981 0.2877
2083.296 0.2948 0.2962 0.2819 0.2667 0.2716 0.268 0.2677 0.2572 0.2507 0.2372
2121.875 0.2397 0.2653 0.2686 0.2538 0.2441 0.2691 0.2684 0.2356 0.2366 0.2395
2160.455 0.2481 0.2651 0.2764 0.2819 0.2725 0.2845 0.2818 0.2605 0.2705 0.2675
2199.035 0.2522 0.2284 0.2182 0.2457 0.256 0.2236 0.2217 0.236 0.2516 0.2678
2237.614 0.262 0.2621 0.2742 0.288 0.2841 0.28 0.2976 0.3255 0.3098 0.297
2276.194 0.3129 0.3177 0.3298 0.3372 0.325 0.3443 0.3604 0.3664 0.3909 0.41
2314.773 0.419 0.4309 0.4392 0.4306 0.4507 0.4541 0.4308 0.4465 0.4468 0.457
2353.353 0.4856 0.5185 0.5396 0.5101 0.4705 0.4496 0.4318 0.4243 0.4243 0.4004
2391.932 0.3884 0.3863 0.3876 0.4057 0.4135 0.417 0.4351 0.4279 0.3998 0.3736
2430.512 0.3696 0.4017 0.4044 0.3964 0.4025 0.4096 0.4001 0.3679 0.3523 0.3525
2469.092 0.3422 0.3552 0.3852 0.3742 0.3744 0.4053 0.4226 0.426 0.4542 0.4648
2507.671 0.4702 0.5248 0.5674 0.5778 0.5953 0.6277 0.6603 0.6818 0.7006 0.719
2546.251 0.7438 0.7944 0.8428 0.8739 0.9232 0.9506 0.9707 1.01 1.06 1.11
2584.830 1.15 1.23 1.31 1.34 1.39 1.44 1.51 1.58 1.61 1.68
2623.410 1.74 1.78 1.86 1.95 2.06 2.16 2.24 2.36 2.49 2.66
2661.989 2.86 3.04 3.19 3.41 3.62 3.77 3.91 4.06 4.25 4.45
2700.569 4.66 4.93 5.22 5.53 5.85 6.2 6.51 6.83 7.2 7.57
2739.148 7.9 8.2 8.46 8.72 9.08 9.54 10.07 10.69 11.45 12.29
2777.728 13.31 14.58 16.25 18.5 21.34 24.55 27.45 29.33 29.87 29.19
2816.308 27.74 25.95 24.15 22.58 21.37 20.69 20.55 20.96 21.95 23.68
2854.887 26.35 29.97 34.37 38.93 42.61 44.92 46.06 46.02 44.67 42.45
2893.467 40.67 40.49 41.97 44.64 47.98 51.75 55.79 60.45 66.21 73.15
2932.046 80.99 88.42 93.06 93.2 89.32 84.07 80.58 80.19 81.1 78.6
2970.626 69.13 54.52 39.78 28.75 21.87 17.53 14.54 12.33 10.61 9.27
3009.205 8.16 7.27 6.51 5.84 5.31 4.82 4.39 4.01 3.68 3.4
3047.785 3.16 2.93 2.69 2.5 2.38 2.28 2.17 2.09 2.02 1.95
3086.364 1.9 1.84 1.73 1.66 1.65 1.6 1.54 1.47 1.38 1.33
3124.944 1.35 1.33 1.32 1.28 1.22 1.25 1.26 1.24 1.19 1.19
3163.524 1.17 1.16 1.16 1.19 1.19 1.17 1.18 1.17 1.21 1.22
3202.103 1.23 1.25 1.25 1.23 1.24 1.26 1.25 1.27 1.28 1.33
3240.683 1.35 1.33 1.33 1.31 1.3 1.34 1.34 1.26 1.26 1.32
3279.262 1.27 1.24 1.25 1.21 1.18 1.15 1.11 1.1 1.11 1.08
3317.842 1.07 1.07 1.06 1.04 1.02 0.9988 0.9705 0.9989 1.01 0.9373
3356.421 0.9289 0.952 0.9268 0.9047 0.9069 0.8923 0.827 0.8274 0.833 0.7568
3395.001 0.7727 0.8012 0.7793 0.7516 0.7533 0.7543 0.7307 0.7423 0.7221 0.682
3433.580 0.6588 0.6333 0.6197 0.6249 0.6208 0.6311 0.6452 0.6175 0.6132 0.6122
3472.160 0.594 0.5708 0.582 0.5908 0.5277 0.5211 0.5446 0.4852 0.4731 0.4408
3510.740 0.4223 0.4557 0.428 0.4085 0.3683 0.3254 0.3183 0.3559 0.3697 0.3145
3549.319 0.3005 0.3017 0.3076 0.3269 0.327 0.2629 0.2595 0.3166 0.3315 0.3173
3587.899 0.3521 0.3902 0.3688 0.413 0.396 0.4335 0.5235 0.5567 0.5776 0.6134
3626.478 0.7224 0.8751 0.9969 1.12 1.4 1.76 2.16 2.7 3.26 3.76
3665.058 4.08 4.1 3.77 3.2 2.54 1.86 1.4 1.11 0.9317 0.7864
3703.637 0.6577 0.5644 0.4818 0.4758 0.4952 0.4533 0.3878 0.3953 0.3694 0.341
3742.217 0.3279 0.3246 0.2964 0.2922 0.3258 0.2764 0.2573 0.2684 0.2913 0.2881
3780.797 0.2143 0.1911 0.2667 0.2895 0.2717 0.316 0.3263 0.268 0.2617 0.3032
3819.376 0.3843 0.3968 0.3268 0.3374 0.3535 0.3444 0.4083 0.417 0.379 0.4176
3857.956 0.4329 0.3675 0.3778 0.4261 0.3644 0.3271 0.355 0.4048 0.3842 0.3246
3896.535 0.2971 0.289 0.2498 0.2449 0.2673 0.1977 0.195 0.2665 0.2707 0.2798
3935.115 0.2671 0.2741 0.278 0.2496 0.296 0.2788 0.2388 0.218 0.2708 0.3265
3973.694 0.2937 0.2894 0.2932 0.3123 0.3378 0.3515 0.2719 0.2414
##END=
