##TITLE=L-Leucine-4-nitroanilide
##JCAMP-DX=4.24
##DATA TYPE=INFRARED SPECTRUM
##ORIGIN=EPA-IR VAPOR PHASE LIBRARY
##OWNER=SRD/NIST
Collection (C) 2018 copyright by the U.S. Secretary of Commerce
on behalf of the United States of America. All rights reserved.
##CAS REGISTRY NO=4178-93-2
##MOLFORM=C 12 H 17 N 3 O 3
##$NIST SOURCE=MSDC-IR
##STATE=gas
##XUNITS=1/CM
##YUNITS=ABSORBANCE
##XFACTOR=1.
##YFACTOR=0.001
##DELTAX=1.92898
##FIRSTX=549.8
##LASTX=4000.7
##FIRSTY=5.27
##MAXX=4000.7
##MINX=549.759
##MAXY=0.27538
##MINY=0
##NPOINTS=1790
##XYDATA=(X++(Y..Y))
549.759 5.27 5.53 5.36 4.78 4.97 5.28 4.89 4.43 4.42 4.48
569.049 4.62 4.36 4.81 4.93 5.01 5.21 4.82 4.86 4.86 4.62
588.339 4.89 6.02 6.5 6.22 6.48 6.31 5.75 5.8 5.73 5.74
607.628 5.64 5.45 5.67 5.68 5.88 6.09 6.34 6.72 6.81 6.79
626.918 6.71 7.01 7.38 7.35 7.28 7.56 7.8 7.8 7.66 7.5
646.208 7.35 7.21 7.4 7.8 8.25 8.16 8.09 8.76 9.24 9.51
665.498 9.96 10.24 10.54 10.85 11.59 12.79 13.84 14.68 15.43 16.21
684.787 17.26 17.88 17.69 17.43 16.97 16.66 16.4 15.75 15.28 14.86
704.077 14.35 14.15 14.02 13.6 12.98 12.75 12.8 12.87 12.59 12.16
723.367 12.32 12.69 12.87 12.93 13.1 13.57 14.05 14.58 15.61 17.22
742.657 18.55 19.56 20.69 21.32 21.46 20.42 18.78 17.57 15.86 14.25
761.947 13.31 12.67 12.49 12.56 12.54 12.55 12.61 12.99 13.55 14.18
781.236 14.72 15.12 15.63 16.33 16.87 17.58 18.95 20.58 22.11 23.32
800.526 24.66 26.09 27.6 29.08 30.17 30.58 30.73 31.1 31.35 31.77
819.816 32.16 32.14 31.58 30.58 29.11 27.04 25.51 24.73 24.36 25.03
839.106 26.46 28.1 30.28 32.43 34.51 36.63 38.09 38.79 39.5 40.5
858.395 41.3 41.41 40.01 37.88 34.81 31.1 27.66 24.71 22.76 21.09
877.685 19.53 18.2 17.07 16.17 15.22 14.09 13.22 12.9 12.19 11.41
896.975 10.7 10.02 9.56 9.14 8.97 8.43 7.89 8.02 8.07 7.72
916.265 7.23 7.04 7.13 6.65 6.26 6.16 6.2 6.06 6.08 6.29
935.555 5.92 5.76 6.01 5.91 5.82 5.79 5.65 6.14 6.33 6.1
954.844 6.04 5.92 5.61 5.41 5.46 5.27 5.24 5.19 4.91 4.7
974.134 4.77 4.87 4.58 4.54 4.63 4.57 4.81 4.9 4.73 4.74
993.424 4.62 4.51 4.8 5.09 5.14 5.02 4.92 5.44 6.2 6.13
1012.714 5.68 5.73 5.85 5.58 5.2 4.82 4.31 4.41 5.01 5.46
1032.003 5.25 5.14 5.01 4.82 5.48 5.53 5.56 6.03 6.23 6.11
1051.293 7.01 7.99 7.87 8.19 8.81 9.3 9.91 9.8 9.63 9.97
1070.583 9.57 9.21 10.15 11.05 11.49 11.93 11.6 11.65 13.17 13.81
1089.873 13.65 14.56 15.21 15.68 16.7 18.29 19.86 22.54 25.5 29.38
1109.163 34.09 36.49 36.65 34.89 33.24 30.9 28.66 26.7 25.43 25.9
1128.452 26.91 27.07 26.33 25.86 25.3 24.79 23.78 22.6 22 21.66
1147.742 22.04 22.1 21.26 21.16 22.09 23.01 23.28 24.29 25.97 27.89
1167.032 30.14 31.92 32.94 33.54 32.66 30.38 28.5 25.63 22.65 20.91
1186.322 19.63 18 16.53 15.38 14.18 13.81 14.4 14.86 13.98 13.24
1205.611 12.66 12.33 13.02 12.53 12.23 12.86 12.5 12.68 13.81 14.19
1224.901 14.98 16.78 18.17 19.85 21.69 24.24 26.98 30.42 34.42 36.82
1244.191 37.6 36.86 34.76 31.27 27.55 24.26 21.16 19.02 17.31 15.76
1263.481 14.74 14.13 13.88 13.58 13.93 14.46 14.54 15.52 16.84 18.18
1282.771 20.34 23.32 27.12 32.25 38.88 47.35 57.39 67.36 74.63 76.46
1302.060 72.34 63.96 53.73 45.11 39.76 36.9 35.72 35.73 36.74 38.64
1321.350 41.14 43.65 46.09 48.62 51.89 57.02 65.16 77.57 95.05 118.36
1340.640 147.47 179.27 207.51 223.92 222.83 204.35 174.03 141.03 113.22 93.23
1359.930 79.52 69.93 62.85 57.25 52.57 48.43 44.69 41.14 37.94 35.13
1379.219 32.8 31.23 30.34 30.3 31.14 32.53 34.46 36.99 40.08 44.06
1398.509 49.1 54.96 60.58 64.14 64.13 59.92 52.13 42.59 33.46 26.47
1417.799 22 19.21 17.55 16.61 16.1 15.94 16.1 16.45 16.83 17.26
1437.089 17.81 18.47 18.96 19.46 20.25 21.03 21.7 22.61 23.94 25.44
1456.378 27.15 29.15 31.34 33.8 36.56 39.35 42.2 44.95 47.41 49.79
1475.668 52.07 54.74 58.22 62.53 67.7 73.71 80.62 88.61 98.06 109.45
1494.958 123.22 140.08 160.09 182.6 205.91 228.33 248.44 263.96 273.26 275.38
1514.248 269.84 256.73 237.37 214.96 191.42 169.93 152.26 139.37 131.65 128.82
1533.538 130.05 134.18 139.93 145.38 147.26 143.93 135.03 121.67 106.35 91.36
1552.827 78.54 68.11 60.2 54.01 49.1 45.5 42.72 40.39 38.56 37.26
1572.117 36.53 36.47 36.88 37.71 39.42 42.33 46.23 51.54 58.69 67.54
1591.407 77.67 88.37 97.97 104.11 105.21 100.98 92.52 82.53 73.55 66.56
1610.697 60.84 55.05 49.01 42.81 37.09 32.4 28.82 26.26 24.38 22.92
1629.986 21.57 20.37 19.36 18.45 17.41 16.36 15.42 14.55 13.76 12.97
1649.276 12.25 11.76 11.34 10.88 10.58 10.39 10.29 10.22 10.06 10.03
1668.566 10 10.01 10.24 10.39 10.51 10.72 11.02 11.39 11.86 12.38
1687.856 13.04 13.73 14.43 15.53 16.82 18.36 20.41 23.02 26.14 30.01
1707.146 34.81 40.7 47.51 55.02 62.85 70.41 76.79 81.12 83.08 82.2
1726.435 78.46 72.34 64.82 56.66 48.22 40.59 34.1 28.8 24.52 20.96
1745.725 18.28 16.23 14.57 13.23 12.2 11.37 10.53 9.87 9.41 8.8
1765.015 8.23 7.85 7.48 7.16 6.79 6.41 6.19 6.02 5.69 5.23
1784.305 4.92 4.74 4.5 4.24 4.06 3.87 3.74 3.6 3.38 3.25
1803.594 3.22 3.14 3.11 3.04 2.89 2.86 2.84 2.71 2.55 2.6
1822.884 2.56 2.47 2.43 2.33 2.2 2.1 2.11 2.21 2.25 2.21
1842.174 2.05 1.87 1.91 1.98 1.97 1.95 1.88 1.87 1.85 1.82
1861.464 1.84 1.78 1.81 1.79 1.69 1.75 1.84 1.88 1.89 1.9
1880.754 2.01 2.14 2.17 2.18 2.19 2.29 2.33 2.39 2.54 2.39
1900.043 2.29 2.26 2.14 2 1.91 1.95 1.94 1.93 1.98 1.99
1919.333 1.91 1.82 1.78 1.77 1.71 1.71 1.81 1.72 1.55 1.48
1938.623 1.51 1.52 1.4 1.23 1.25 1.31 1.24 1.1382 1.19 1.29
1957.913 1.22 1.17 1.082 1.1012 1.1427 1.0479 1.0466 1.0599 1.071 1.0375
1977.202 1.1277 1.26 1.1352 0.9449 0.8959 0.9437 0.9922 1.0138 0.9835 0.9246
1996.492 0.9277 0.9225 0.9398 1.0712 1.0576 0.9884 1.0048 0.9843 0.9368 0.8812
2015.782 0.8624 0.9117 0.9666 1.0457 1.0307 0.9694 1.075 1.0941 0.9906 0.9814
2035.072 0.8886 0.8774 0.9957 0.9153 0.8367 0.9086 0.8794 0.8562 0.9169 0.9666
2054.362 1.0166 1.0025 1.0172 1.0053 0.9895 1.0153 0.9993 1.0258 1.0435 0.9531
2073.651 0.9381 0.9684 0.9538 0.9661 0.9847 1.0572 1.0228 1.018 1.1255 1.0951
2092.941 1.0218 1.0434 1.1039 1.133 1.1353 1.1345 1.17 1.18 1.1507 1.0983
2112.231 1.112 1.17 1.1269 1.17 1.16 1.1401 1.1417 1.0909 1.1174 0.9973
2131.521 0.9705 1.0507 0.9821 0.927 0.949 0.9805 0.9664 0.9117 0.8783 0.8786
2150.810 0.8351 0.8596 0.903 0.8406 0.9109 1.0955 1.097 1.0495 0.9659 0.8919
2170.100 0.9715 0.9307 0.7441 0.6605 0.7313 0.7722 0.7761 0.8757 0.991 0.9879
2189.390 0.8873 0.8647 0.8689 0.9148 0.9624 0.9946 0.9586 0.8639 0.8831 0.9505
2208.680 1.101 1.0738 0.9942 1.1034 1.1456 1.0878 0.9665 0.9292 1.082 1.0389
2227.970 0.9272 0.9755 0.9493 0.8444 0.7557 0.778 0.7729 0.7982 0.9053 0.9424
2247.259 0.7953 0.6366 0.6997 0.7576 0.7569 0.7364 0.8021 0.7988 0.7666 0.8227
2266.549 0.6768 0.6017 0.6941 0.6719 0.7327 0.7933 0.773 0.7756 0.7914 0.9781
2285.839 0.9941 0.9091 0.864 0.7877 0.8376 0.898 1.0324 1.0627 0.9627 0.9862
2305.129 0.9159 0.8504 0.924 0.9139 0.9144 0.906 0.9127 0.9362 0.9713 0.9798
2324.418 0.9879 0.914 0.8125 0.8723 0.8757 0.9436 1.0154 1.0557 0.9256 0.768
2343.708 0.7703 0.8306 0.8425 0.8176 0.9401 1.1461 1.25 1.18 1.0151 1.0678
2362.998 1.1129 1.1043 1.0114 0.8418 0.9971 1.1412 1.1344 1.1452 1.19 1.102
2382.288 1.0602 1.18 1.17 1.1024 1.0655 1.0487 1.0461 1.0016 1.0373 1.1298
2401.578 1.22 1.26 1.25 1.24 1.17 1.05 1.1106 1.19 1.23 1.2
2420.867 1.1178 1.0803 1.125 1.27 1.29 1.21 1.26 1.36 1.39 1.4
2440.157 1.5 1.56 1.57 1.65 1.83 2.05 2.04 2.03 2.07 2.12
2459.447 2.14 2.17 2.1 2.02 1.96 1.76 1.58 1.41 1.51 1.62
2478.737 1.49 1.45 1.47 1.48 1.35 1.2 1.18 1.094 1.09 1.1567
2498.026 1.24 1.24 1.19 1.083 0.9214 0.9962 1.15 1.117 1.1314 1.31
2517.316 1.34 1.22 1.25 1.42 1.42 1.42 1.54 1.51 1.58 1.71
2536.606 1.8 1.79 1.76 1.87 1.82 1.81 1.96 1.95 1.89 1.85
2555.896 1.74 1.66 1.51 1.57 1.7 1.49 1.35 1.36 1.54 1.54
2575.186 1.36 1.43 1.58 1.56 1.52 1.46 1.47 1.48 1.37 1.51
2594.475 1.6 1.62 1.65 1.64 1.64 1.7 1.68 1.67 1.62 1.5
2613.765 1.76 1.83 1.63 1.65 1.7 1.7 1.68 1.65 1.59 1.53
2633.055 1.58 1.64 1.73 1.75 1.59 1.53 1.49 1.47 1.52 1.56
2652.345 1.5 1.43 1.45 1.48 1.49 1.3 1.28 1.28 1.1116 1.25
2671.634 1.44 1.49 1.39 1.3 1.36 1.48 1.54 1.55 1.55 1.6
2690.924 1.55 1.55 1.66 1.72 1.79 1.79 1.89 2.09 2.22 2.11
2710.214 2 1.98 1.99 2.1 2.03 1.88 1.9 1.97 2 2.04
2729.504 1.96 1.93 2 2.06 2.09 1.99 1.98 2 1.93 1.99
2748.794 2.11 1.91 1.95 2.1 1.93 1.86 1.95 1.94 1.87 1.84
2768.083 1.75 1.56 1.54 1.9 2.04 1.92 1.92 2 2.06 2.14
2787.373 2.13 2.01 1.91 2.05 2.17 2.28 2.46 2.34 2.37 2.5
2806.663 2.46 2.43 2.51 2.69 2.9 3.03 2.88 2.97 3.26 3.52
2825.953 3.79 3.86 3.96 4.18 4.53 4.82 5.11 5.7 6 6.37
2845.242 7.21 7.87 8.26 8.79 9.37 9.81 10.2 10.44 10.73 11.04
2864.532 11.57 12.5 13.55 14.79 16.21 18.11 20.38 22.27 23.65 24.47
2883.822 24.59 24.1 23.42 22.94 22.57 22.36 22.38 22.58 23.06 23.69
2903.112 24.36 25.16 25.94 26.78 27.67 28.27 28.63 28.96 29.49 29.97
2922.401 29.95 29.71 29.83 30.02 30.24 30.53 30.68 30.97 31.35 31.51
2941.691 31.59 31.84 32.07 32.02 31.99 32.7 34.42 36.91 40.39 44.74
2960.981 49.66 55.36 61.07 65.46 66.16 62.42 55.12 45.04 35.12 27.68
2980.271 22.51 18.6 15.79 13.79 11.83 10.39 9.46 8.36 7.54 6.89
2999.561 6.17 5.72 5.41 5.19 4.92 4.52 4.24 3.9 3.61 3.36
3018.850 3.18 3.27 3.14 3.07 3.25 3.31 3.33 3.26 3.4 3.8
3038.140 4.19 4.32 4.45 4.66 4.56 4.28 3.87 3.58 3.39 3.34
3057.430 3.33 3.08 3.04 3.25 3.37 3.51 3.88 4.21 4.46 4.84
3076.720 4.85 4.56 4.43 4.18 3.77 3.31 2.96 2.71 2.61 2.78
3096.009 2.67 2.68 2.85 2.6 2.34 2.29 2.41 2.44 2.4 2.52
3115.299 2.69 2.95 3.03 2.81 2.86 3.04 2.96 3.06 3.24 2.94
3134.589 2.52 2.35 2.41 2.41 2.34 2.31 2.15 1.89 1.81 1.89
3153.879 1.8 2.05 2.07 1.93 1.98 1.88 1.7 1.79 2.11 2.2
3173.169 2.18 2.17 2.33 2.3 2.05 2.12 2.3 2.46 2.52 2.43
3192.458 2.46 2.56 2.35 2.32 2.37 2.18 2.01 2.13 2.21 2.23
3211.748 2.16 2.11 2.17 2.11 2.19 2.06 1.77 1.81 1.83 1.77
3231.038 1.79 1.88 2.08 2.16 2 1.98 2.21 2.25 2.25 2.21
3250.328 2.21 2.03 2.13 2.26 2.23 2.26 2.08 2.13 2.31 2.55
3269.617 2.8 2.71 2.72 3.01 3 3.06 2.99 2.97 2.99 2.99
3288.907 3.26 3.4 3.43 3.41 3.54 3.68 4.07 4.39 4.49 4.6
3308.197 4.94 5.51 6 6.34 6.89 7.43 8.09 9.04 9.9 10.81
3327.487 11.77 12.87 14.51 16.12 17.77 20.17 22.69 25.12 27.19 28.77
3346.777 30.35 31.44 31.9 32.29 32.31 31.93 31 29.78 28.53 27.03
3366.066 25.35 23.36 21.47 19.68 17.83 16.23 14.7 13.4 12.38 11.4
3385.356 10.32 9.45 8.94 8.45 7.72 7.1 6.84 6.46 5.94 5.77
3404.646 5.81 5.81 5.62 5.63 5.65 5.36 5.25 5.33 5.52 5.41
3423.936 5.19 5.09 4.83 4.53 4.47 4.12 3.69 3.62 3.39 3.55
3443.225 3.58 3.59 3.81 3.77 3.74 3.56 3.51 3.34 2.94 2.84
3462.515 2.73 2.28 1.81 1.61 1.62 1.52 1.28 0.9721 0.859 1.005
3481.805 1.16 1.22 1.26 1.1068 0.8085 0.8538 1.16 1.21 0.95 0.9003
3501.095 0.9405 0.9438 0.889 0.7366 0.518 0.5163 0.6894 0.6958 0.6476 0.7152
3520.385 0.6415 0.5367 0.6111 0.5818 0.6337 0.6434 0.5586 0.5103 0.7093 0.8235
3539.674 0.5961 0.4944 0.5434 0.7135 0.5225 0.4467 0.7081 0.5884 0.5138 0.4833
3558.964 0.284 0.3313 0.6539 0.5217 0.2635 0.4711 0.5888 0.5896 0.8679 0.835
3578.254 0.6743 0.6305 0.5251 0.7143 0.5372 0.5081 0.6996 0.5721 0.4477 0.5722
3597.544 0.6057 0.4236 0.4164 0.402 0.3136 0.337 0.2932 0.2713 0.339 0.4034
3616.833 0.3312 0.4369 0.6707 0.4819 0.4616 0.5991 0.3997 0.4403 0.5632 0.4115
3636.123 0.3724 0.4242 0.3237 0.4406 0.563 0.3948 0.4514 0.4575 0.4299 0.3226
3655.413 0.3585 0.5509 0.5819 0.4769 0.21683 0.19347 0.3042 0.4235 0.6003 0.4945
3674.703 0.2614 0.3913 0.5114 0.3395 0.4038 0.5116 0.4035 0.23179 0.4673 0.5283
3693.993 0.20053 0.3478 0.4276 0.2198 0.1438 0.1456 0.3495 0.5688 0.634 0.4568
3713.282 0.2742 0.3217 0.3891 0.3541 0.5314 0.8509 0.6056 0.2729 0.3633 0.23939
3732.572 0.2725 0.5149 0.5401 0.6199 0.7303 0.7335 0.4722 0.4965 0.5341 0.4786
3751.862 0.5423 0.5771 0.496 0.2925 0.3959 0.4475 0.4869 0.6223 0.5356 0.3268
3771.152 0.1335 0.4136 0.6759 0.575 0.3795 0.3601 0.5685 0.7674 0.5871 0.3509
3790.441 0.4274 0.2876 0.5016 0.6339 0.373 0.4038 0.524 0.6691 0.3372 0.1411
3809.731 0.386 0.4223 0.3618 0.31 0.404 0.5093 0.4569 0.4152 0.4788 0.4797
3829.021 0.5116 0.6316 0.63 0.4433 0.3364 0.309 0.24292 0.0826 0 0.1494
3848.311 0.2728 0.25708 0.4343 0.6753 0.6333 0.3616 0.5156 0.7815 0.703 0.4877
3867.601 0.4845 0.7306 0.6561 0.5097 0.37 0.3945 0.3898 0.4123 0.4712 0.271
3886.890 0.24544 0.4808 0.5619 0.2827 0.24849 0.3755 0.4041 0.5455 0.4011 0.3778
3906.180 0.25873 0.028 0.4348 0.7219 0.4829 0.4195 0.5755 0.4643 0.507 0.5685
3925.470 0.3825 0.4747 0.4746 0.4913 0.6409 0.5142 0.3885 0.2696 0.3738 0.4547
3944.760 0.372 0.55 0.6941 0.5032 0.3297 0.3415 0.22511 0.1229 0.3931 0.7893
3964.049 0.6299 0.406 0.4421 0.7068 0.8765 0.7889 0.6299 0.3476 0.3474 0.7183
3983.339 0.759 0.4317 0.323 0.3123 0.2829 0.1024 0.3049 0.8279 0.7982 0.4509
##END=
