##TITLE=Tricyclazole
##JCAMP-DX=4.24
##DATA TYPE=INFRARED SPECTRUM
##ORIGIN=NIST Mass Spectrometry Data Center
##OWNER=NIST Standard Reference Data Program
Collection (C) 2018 copyright by the U.S. Secretary of Commerce
on behalf of the United States of America. All rights reserved.
##CAS REGISTRY NO=41814-78-2
##MOLFORM=C 9 H 7 N 3 S
##$NIST SOURCE=MSDC-IR
##SPECTROMETER/DATA SYSTEM=HP-GC/MS/IRD
##STATE=gas
##XUNITS=1/CM
##YUNITS=ABSORBANCE
##XFACTOR=1.0
##YFACTOR=0.000003000
##DELTAX=4.0
##FIRSTX=550.0
##LASTX=3846.0
##FIRSTY=0.002058
##MAXX=3846
##MINX=550
##MAXY=0.03
##MINY=0
##NPOINTS=825
##XYDATA=(X++(Y..Y))
550.0 686 477 185 65 44 56 66 64 92 87
590.0 74 46 45 60 43 38 45 60 95 166
630.0 252 383 435 326 234 154 77 53 44 38
670.0 38 48 55 60 59 45 41 49 52 71
710.0 148 290 440 630 874 722 472 404 361 496
750.0 844 1264 1938 2516 2203 1781 1512 1021 619 405
790.0 255 157 110 89 64 56 57 35 32 38
830.0 26 15 12 13 25 53 74 77 119 207
870.0 335 421 435 387 258 140 86 70 68 76
910.0 75 76 81 80 106 162 300 574 819 880
950.0 816 587 320 222 223 245 249 231 211 182
990.0 141 123 136 113 82 72 58 42 42 46
1030.0 60 93 87 53 60 88 104 124 138 126
1070.0 90 98 164 215 221 198 151 99 68 81
1110.0 91 66 85 133 210 366 505 538 508 422
1150.0 333 316 321 321 305 320 399 566 795 954
1190.0 1004 1001 1011 1120 1230 1222 1042 660 321 201
1230.0 168 126 153 219 265 315 332 286 215 171
1270.0 136 112 115 152 216 323 484 661 814 863
1310.0 812 659 435 262 173 128 112 118 171 284
1350.0 442 610 720 747 662 494 361 309 294 284
1390.0 288 282 292 365 478 601 743 915 1075 1163
1430.0 1163 1061 901 835 922 1133 1449 1917 2547 3363
1470.0 4279 5421 7098 8973 10000 9661 7897 5023 2541 1329
1510.0 858 661 556 499 471 476 497 528 545 526
1550.0 474 402 332 282 258 244 229 206 194 180
1590.0 170 169 169 156 125 102 97 97 99 105
1630.0 117 133 152 165 162 152 123 93 78 75
1670.0 74 69 78 86 83 84 73 64 56 48
1710.0 47 43 48 58 53 42 44 59 64 66
1750.0 75 89 111 128 125 105 85 70 47 38
1790.0 28 21 25 18 25 33 32 37 46 55
1830.0 72 90 100 97 85 68 50 41 38 31
1870.0 31 37 42 46 53 59 73 91 117 152
1910.0 170 168 156 130 102 79 64 52 37 29
1950.0 29 29 34 34 31 24 19 25 32 24
1990.0 19 24 29 28 28 31 30 26 27 25
2030.0 15 17 20 19 25 24 24 26 25 21
2070.0 19 22 22 21 31 32 21 17 18 18
2110.0 22 22 22 26 24 21 19 19 21 22
2150.0 22 22 16 11 17 22 22 20 13 21
2190.0 28 29 33 33 32 31 27 25 29 28
2230.0 21 17 23 21 21 30 32 31 23 22
2270.0 24 22 19 18 14 14 22 24 24 23
2310.0 17 17 28 36 37 40 38 38 36 30
2350.0 26 27 24 16 14 11 16 18 16 25
2390.0 29 21 19 24 26 18 22 30 37 42
2430.0 40 34 30 36 46 53 56 57 61 60
2470.0 52 39 35 42 40 40 44 44 38 29
2510.0 29 30 29 28 23 24 29 30 30 26
2550.0 33 37 37 43 40 37 34 36 41 43
2590.0 42 42 46 51 47 45 45 42 39 37
2630.0 25 8 10 20 17 21 28 28 35 31
2670.0 32 43 38 28 26 31 38 41 35 22
2710.0 17 21 19 26 33 32 44 47 48 49
2750.0 41 42 38 28 20 12 12 24 22 16
2790.0 25 34 34 24 17 24 30 22 23 34
2830.0 36 43 53 59 58 66 90 109 126 152
2870.0 182 207 227 222 202 194 185 178 175 176
2910.0 184 194 211 245 286 353 423 461 481 484
2950.0 468 446 429 412 376 352 346 360 395 429
2990.0 431 394 334 258 198 165 158 156 171 200
3030.0 220 225 229 249 266 292 343 405 467 507
3070.0 525 518 488 440 381 318 237 172 135 110
3110.0 95 85 75 70 69 74 65 60 54 45
3150.0 41 40 40 40 49 42 37 52 52 44
3190.0 27 30 42 32 21 22 27 15 15 11
3230.0 1 6 15 22 28 34 35 31 30 30
3270.0 26 14 12 34 39 26 30 36 31 37
3310.0 22 15 33 36 24 20 23 25 26 26
3350.0 23 9 8 26 38 32 31 27 14 1
3390.0 8 34 31 24 26 46 58 40 29 20
3430.0 18 17 15 13 15 19 24 35 36 27
3470.0 27 26 13 4 15 25 35 34 21 20
3510.0 14 23 37 37 29 30 16 0 8 19
3550.0 30 22 21 26 22 36 48 59 53 34
3590.0 32 31 39 47 36 25 24 18 26 39
3630.0 40 32 29 42 48 44 45 52 38 29
3670.0 20 11 21 25 34 56 61 59 41 33
3710.0 47 50 47 46 47 46 42 46 37 25
3750.0 32 37 45 57 49 48 53 44 36 30
3790.0 35 40 45 53 51 51 52 55 60 50
3830.0 38 40 45 45 47
##END=
