##TITLE=1,5-Dimethyl-1,4-cyclohexadiene
##JCAMP-DX=4.24
##DATA TYPE=INFRARED SPECTRUM
##ORIGIN=NIST Mass Spectrometry Data Center
##OWNER=NIST Standard Reference Data Program
Collection (C) 2018 copyright by the U.S. Secretary of Commerce
on behalf of the United States of America. All rights reserved.
##CAS REGISTRY NO=4190-06-1
##MOLFORM=C 8 H 12
##$NIST SOURCE=MSDC-IR
##SPECTROMETER/DATA SYSTEM=HP-GC/MS/IRD
##STATE=gas
##XUNITS=1/CM
##YUNITS=ABSORBANCE
##XFACTOR=1.0
##YFACTOR=0.000000900
##DELTAX=4.0
##FIRSTX=550.0
##LASTX=3846.0
##FIRSTY=0.000222
##MAXX=3846
##MINX=550
##MAXY=0.009
##MINY=0
##NPOINTS=825
##XYDATA=(X++(Y..Y))
550.0 247 310 212 47 0 19 227 341 289 236
590.0 86 157 313 324 235 223 251 227 300 313
630.0 214 208 218 274 295 227 261 283 186 158
670.0 228 198 238 338 323 230 247 346 302 299
710.0 306 232 285 394 430 512 624 734 934 1116
750.0 1323 1648 1802 1654 1477 1387 1336 1210 938 776
790.0 656 505 452 426 374 329 280 310 397 354
830.0 288 315 371 398 359 313 278 254 307 372
870.0 389 399 441 527 551 594 664 734 825 948
910.0 1059 1153 1208 1240 1283 1210 1146 1265 1433 1521
950.0 1542 1609 1768 1904 1657 1275 1106 996 839 713
990.0 624 556 527 514 508 478 451 480 540 551
1030.0 528 550 659 752 733 710 740 742 613 483
1070.0 439 359 263 266 292 314 360 368 343 357
1110.0 444 560 592 639 660 587 516 388 334 291
1150.0 211 226 259 234 211 236 250 282 323 309
1190.0 274 301 305 289 291 329 322 308 357 320
1230.0 228 211 215 207 220 193 224 242 231 267
1270.0 305 330 325 336 351 339 321 329 343 332
1310.0 316 310 330 315 321 340 344 357 359 382
1350.0 413 433 502 616 751 959 1251 1508 1683 1812
1390.0 1846 1711 1403 1072 843 783 845 942 1088 1283
1430.0 1488 1699 1896 2109 2311 2286 2141 2032 1823 1494
1470.0 1197 979 804 641 544 511 462 404 378 356
1510.0 337 308 286 290 293 289 278 247 254 241
1550.0 224 241 231 233 243 268 266 248 299 343
1590.0 355 368 395 397 371 377 383 390 395 394
1630.0 413 419 409 404 398 363 328 331 318 319
1670.0 328 315 317 344 401 441 438 440 455 448
1710.0 435 369 318 293 250 237 222 203 178 176
1750.0 186 190 182 154 141 126 128 117 99 101
1790.0 88 92 103 123 128 107 95 114 121 100
1830.0 112 136 113 111 131 152 162 170 140 124
1870.0 142 139 133 117 115 113 127 165 150 119
1910.0 93 87 89 90 97 96 109 103 85 70
1950.0 79 106 119 102 88 106 114 102 76 60
1990.0 58 73 79 80 97 96 94 104 95 87
2030.0 111 104 108 129 109 95 111 109 96 85
2070.0 81 94 84 55 56 68 83 94 81 58
2110.0 56 54 34 44 54 54 70 73 43 23
2150.0 61 86 54 46 42 42 61 64 63 61
2190.0 48 45 58 71 59 48 61 39 29 66
2230.0 79 53 29 44 50 36 51 48 26 75
2270.0 82 50 65 58 38 41 37 10 9 13
2310.0 0 16 56 88 59 12 8 23 49 64
2350.0 60 35 21 18 34 47 48 30 29 32
2390.0 45 72 57 54 65 90 115 101 93 80
2430.0 69 95 97 105 113 92 82 86 77 52
2470.0 42 41 60 62 51 76 96 106 123 151
2510.0 139 96 95 116 109 81 103 138 133 113
2550.0 112 142 150 130 118 94 105 113 99 103
2590.0 106 133 163 150 162 175 143 127 143 166
2630.0 203 255 260 266 293 308 307 299 316 305
2670.0 305 283 255 258 263 302 261 207 234 268
2710.0 313 370 402 462 568 668 726 759 786 806
2750.0 812 778 740 700 675 739 804 816 871 1007
2790.0 1122 1330 1585 1908 2446 3161 3976 4741 5302 5910
2830.0 6485 6674 6782 7134 7691 8048 8216 8533 9298 10000
2870.0 9761 9214 8950 8818 8414 7674 6755 6241 6134 5973
2910.0 5921 6075 6351 6578 6731 6816 6966 6926 6034 5141
2950.0 4839 4779 5017 5669 6242 6296 6187 6039 5815 5180
2990.0 4313 3797 3545 3399 3305 3228 3160 3175 3286 3403
3030.0 3420 3326 3127 2779 2341 1942 1595 1354 1189 1048
3070.0 982 948 894 832 799 776 715 650 634 596
3110.0 578 565 521 504 452 365 307 295 274 231
3150.0 229 222 204 201 217 215 193 207 197 222
3190.0 212 185 225 243 185 169 217 189 171 175
3230.0 216 217 193 167 136 156 183 170 156 199
3270.0 197 172 164 150 129 158 183 154 161 142
3310.0 134 167 153 185 228 170 177 188 220 220
3350.0 164 167 205 165 125 123 87 83 110 143
3390.0 123 119 125 72 113 187 208 192 140 107
3430.0 83 99 116 121 108 118 135 149 151 113
3470.0 108 144 152 129 99 146 198 163 147 109
3510.0 72 85 108 156 170 170 168 137 178 160
3550.0 190 259 159 20 6 59 123 118 78 112
3590.0 119 129 129 109 138 214 252 226 146 82
3630.0 137 127 90 119 104 103 85 37 85 198
3670.0 235 160 143 190 224 209 169 159 177 147
3710.0 106 100 147 208 194 151 163 183 176 203
3750.0 194 213 162 116 171 199 222 233 226 194
3790.0 194 195 173 187 153 96 96 167 225 224
3830.0 220 275 250 226 254
##END=
