##TITLE=5-Hexadecanone
##JCAMP-DX=4.24
##DATA TYPE=INFRARED SPECTRUM
##ORIGIN=EPA-IR VAPOR PHASE LIBRARY
##OWNER=SRD/NIST
Collection (C) 2018 copyright by the U.S. Secretary of Commerce
on behalf of the United States of America. All rights reserved.
##CAS REGISTRY NO=41903-81-5
##MOLFORM=C 16 H 32 O
##$NIST SOURCE=MSDC-IR
##STATE=gas
##XUNITS=1/CM
##YUNITS=ABSORBANCE
##XFACTOR=1.
##YFACTOR=0.001
##DELTAX=1.92934
##FIRSTX=549.9
##LASTX=3999.5
##FIRSTY=1.3575
##MAXX=3999.53
##MINX=549.863
##MAXY=0.285153
##MINY=0
##NPOINTS=1789
##XYDATA=(X++(Y..Y))
549.863 1.3575 1.1644 1.0671 1.107 1.0405 0.9223 0.87659 0.83607 0.8927 0.85029
569.156 0.80602 0.84245 0.77535 0.7054 0.571 0.563 0.637 0.655 0.628 0.6917
588.450 0.637 0.532 0.636 0.63 0.6872 0.632 0.589 0.733 0.726 0.7414
607.743 0.7396 0.7561 0.86739 0.9449 0.9808 0.9083 0.9487 1.0711 1.0527 1.0157
627.037 0.9971 1.0078 0.9828 0.9649 0.9753 0.969 0.9506 0.9064 0.83465 0.77508
646.330 0.7047 0.659 0.621 0.554 0.61 0.7265 0.7056 0.603 0.559 0.562
665.624 0.57 0.558 0.566 0.599 0.6 0.585 0.664 0.679 0.6951 0.80388
684.917 0.8746 0.9494 1.1291 1.2206 1.2829 1.4476 1.6339 1.873 2.103 2.333
704.210 2.573 2.873 3.213 3.513 3.833 4.113 4.303 4.483 4.633 4.683
723.504 4.643 4.653 4.713 4.703 4.633 4.643 4.553 4.433 4.393 4.303
742.797 4.233 4.133 3.983 3.863 3.763 3.653 3.573 3.453 3.283 3.183
762.091 3.163 3.133 3.053 2.933 2.883 2.833 2.733 2.683 2.533 2.363
781.384 2.253 2.133 2.053 2.003 1.913 1.7801 1.7127 1.6656 1.5895 1.5347
800.678 1.4816 1.4185 1.375 1.361 1.3024 1.1962 1.18 1.2067 1.1833 1.2007
819.971 1.1814 1.1175 1.1448 1.1718 1.148 1.0683 1.0497 1.1478 1.1425 1.0839
839.264 1.0631 1.0782 1.1171 1.139 1.1764 1.1733 1.1388 1.1289 1.149 1.1577
858.558 1.149 1.1706 1.2125 1.2306 1.2958 1.377 1.405 1.4245 1.4589 1.49
877.851 1.5378 1.5759 1.5647 1.6335 1.6481 1.6717 1.7319 1.7656 1.7808 1.7622
897.145 1.7811 1.793 1.813 1.823 1.843 1.883 1.883 1.863 1.883 1.933
916.438 1.953 1.943 1.953 1.993 2.043 2.043 2.093 2.143 2.163 2.163
935.732 2.143 2.163 2.203 2.293 2.323 2.313 2.313 2.383 2.433 2.433
955.025 2.483 2.543 2.623 2.663 2.693 2.773 2.833 2.873 2.933 3.023
974.318 3.113 3.193 3.253 3.323 3.373 3.443 3.523 3.593 3.653 3.713
993.612 3.813 3.903 3.993 4.103 4.233 4.393 4.553 4.723 4.933 5.223
1012.905 5.553 5.903 6.263 6.733 7.273 7.803 8.323 8.823 9.353 9.863
1032.199 10.283 10.583 10.853 10.993 11.013 10.953 10.783 10.563 10.283 9.933
1051.492 9.633 9.403 9.173 8.993 8.873 8.763 8.663 8.613 8.553 8.523
1070.786 8.493 8.423 8.333 8.313 8.243 8.153 7.973 7.793 7.653 7.493
1090.079 7.303 7.113 6.963 6.863 6.843 6.843 6.843 6.943 7.133 7.453
1109.372 7.813 8.263 8.753 9.243 9.773 10.343 10.973 11.463 11.923 12.343
1128.666 12.593 12.733 12.703 12.493 12.273 12.003 11.643 11.323 11.053 10.753
1147.959 10.443 10.253 10.053 9.843 9.623 9.463 9.313 9.133 8.953 8.833
1167.253 8.743 8.593 8.513 8.373 8.163 8.023 7.923 7.773 7.643 7.463
1186.546 7.313 7.223 7.133 7.093 7.013 7.023 7.083 7.113 7.133 7.203
1205.840 7.343 7.473 7.543 7.613 7.643 7.673 7.663 7.623 7.643 7.773
1225.133 7.833 7.753 7.753 7.833 7.873 7.923 8.013 8.103 8.093 8.103
1244.426 8.213 8.223 8.333 8.473 8.543 8.673 8.723 8.683 8.653 8.663
1263.720 8.593 8.523 8.513 8.433 8.373 8.363 8.433 8.523 8.553 8.703
1283.013 8.923 9.013 9.113 9.263 9.393 9.593 9.793 9.933 10.123 10.333
1302.307 10.533 10.723 10.853 10.903 10.923 10.973 11.023 11.073 11.183 11.333
1321.600 11.563 11.873 12.253 12.683 13.143 13.713 14.383 15.123 15.933 16.813
1340.894 17.713 18.613 19.493 20.343 21.143 21.783 22.313 22.663 22.753 22.633
1360.187 22.253 21.703 20.933 19.923 18.793 17.603 16.363 15.253 14.363 13.683
1379.480 13.243 12.933 12.593 12.143 11.553 10.873 10.183 9.583 9.173 8.923
1398.774 8.803 8.783 8.843 9.113 9.483 9.893 10.403 10.853 11.213 11.523
1418.067 11.773 11.903 11.933 12.003 12.083 12.213 12.383 12.663 13.013 13.493
1437.361 14.163 14.963 15.883 16.933 18.123 19.353 20.663 22.013 23.413 24.603
1456.654 25.563 26.313 26.553 26.303 25.583 24.393 22.903 21.123 19.003 16.823
1475.948 14.773 12.843 11.163 9.743 8.573 7.583 6.753 6.023 5.463 4.993
1495.241 4.563 4.183 3.843 3.573 3.303 3.023 2.843 2.683 2.503 2.373
1514.534 2.283 2.183 2.093 2.023 1.903 1.793 1.7048 1.6522 1.6085 1.5343
1533.828 1.4525 1.4292 1.3606 1.234 1.1814 1.1995 1.1903 1.153 1.1621 1.182
1553.121 1.1359 1.0679 0.9905 0.9316 0.9505 0.9544 0.9387 0.9383 0.9098 0.85627
1572.415 0.9087 0.9153 0.83741 0.87051 0.899 0.87619 0.87667 0.8899 0.8887 0.8419
1591.708 0.82795 0.85852 0.8191 0.77505 0.80949 0.85021 0.87551 0.9017 0.8941 0.9169
1611.002 0.9182 0.9283 0.9637 0.9411 0.9849 1.0263 1.0253 1.0188 1.0056 1.0869
1630.295 1.1719 1.1493 1.1109 1.1043 1.2105 1.3184 1.3512 1.4113 1.4851 1.5198
1649.588 1.566 1.5916 1.6698 1.833 1.953 2.083 2.223 2.433 2.663 2.813
1668.882 3.003 3.243 3.513 3.873 4.263 4.683 5.143 5.543 6.073 6.753
1688.175 7.443 8.173 9.113 10.263 11.653 13.283 15.233 17.733 20.523 23.893
1707.469 27.813 32.223 37.223 42.733 48.453 54.223 59.683 64.133 67.123 68.123
1726.762 66.713 63.063 57.553 50.853 43.573 36.773 30.773 25.503 21.153 17.603
1746.056 14.813 12.533 10.693 9.143 7.903 6.913 6.053 5.333 4.753 4.243
1765.349 3.803 3.503 3.213 2.863 2.593 2.433 2.233 2.063 1.953 1.813
1784.642 1.6674 1.5429 1.4089 1.2661 1.2172 1.1952 1.0828 0.9986 0.9595 0.9284
1803.936 0.8964 0.85485 0.84322 0.787215 0.7299 0.6986 0.661 0.648 0.629 0.587
1823.229 0.544 0.517 0.468 0.445 0.457 0.455 0.463 0.45 0.391 0.373
1842.523 0.369 0.352 0.351 0.346 0.342 0.319 0.288 0.259 0.267 0.266
1861.816 0.257 0.262 0.223 0.221 0.226 0.209 0.21 0.197 0.186 0.186
1881.110 0.176 0.174 0.204 0.173 0.126 0.131 0.143 0.12 0.11 0.106
1900.403 0.095 0.102 0.09 0.079 0.084 0.086 0.07 0.089 0.112 0.079
1919.696 0.059 0.088 0.094 0.099 0.098 0.076 0.076 0.055 0.009 0
1938.990 0.031 0.055 0.062 0.053 0.035 0.037 0.054 0.065 0.083 0.084
1958.283 0.052 0.038 0.056 0.079 0.09 0.054 0.053 0.081 0.078 0.087
1977.577 0.098 0.098 0.079 0.057 0.039 0.012 0.027 0.067 0.101 0.106
1996.870 0.089 0.082 0.065 0.099 0.151 0.159 0.171 0.185 0.214 0.234
2016.164 0.199 0.211 0.222 0.233 0.274 0.312 0.335 0.346 0.329 0.322
2035.457 0.351 0.327 0.305 0.348 0.382 0.365 0.319 0.298 0.322 0.31
2054.750 0.321 0.299 0.281 0.317 0.301 0.285 0.273 0.229 0.218 0.25
2074.044 0.229 0.216 0.24 0.23 0.178 0.182 0.229 0.235 0.25 0.217
2093.337 0.166 0.182 0.184 0.186 0.18 0.174 0.213 0.211 0.192 0.22
2112.631 0.223 0.227 0.223 0.202 0.189 0.205 0.235 0.262 0.295 0.301
2131.924 0.261 0.232 0.224 0.207 0.205 0.226 0.237 0.24 0.277 0.284
2151.218 0.278 0.269 0.251 0.282 0.302 0.295 0.294 0.281 0.291 0.283
2170.511 0.258 0.277 0.306 0.328 0.353 0.339 0.296 0.293 0.314 0.299
2189.804 0.307 0.329 0.317 0.324 0.341 0.298 0.256 0.282 0.302 0.29
2209.098 0.306 0.331 0.288 0.26 0.29 0.309 0.326 0.298 0.26 0.294
2228.391 0.331 0.327 0.262 0.247 0.247 0.219 0.245 0.265 0.268 0.272
2247.685 0.251 0.27 0.299 0.281 0.295 0.291 0.263 0.24 0.257 0.289
2266.978 0.273 0.262 0.25 0.26 0.304 0.321 0.299 0.279 0.3 0.345
2286.272 0.333 0.285 0.273 0.283 0.326 0.33 0.322 0.341 0.318 0.292
2305.565 0.32 0.332 0.302 0.299 0.309 0.343 0.352 0.332 0.339 0.339
2324.858 0.309 0.298 0.289 0.267 0.265 0.255 0.261 0.267 0.254 0.274
2344.152 0.317 0.358 0.363 0.349 0.328 0.328 0.346 0.331 0.309 0.327
2363.445 0.331 0.308 0.321 0.361 0.394 0.372 0.372 0.376 0.365 0.373
2382.739 0.36 0.361 0.363 0.356 0.379 0.376 0.374 0.415 0.412 0.402
2402.032 0.426 0.415 0.379 0.371 0.397 0.397 0.403 0.407 0.362 0.353
2421.326 0.383 0.426 0.423 0.372 0.353 0.355 0.36 0.374 0.36 0.357
2440.619 0.329 0.308 0.338 0.358 0.357 0.307 0.295 0.33 0.374 0.373
2459.912 0.328 0.305 0.295 0.302 0.304 0.345 0.34 0.302 0.298 0.323
2479.206 0.345 0.344 0.346 0.329 0.345 0.37 0.38 0.382 0.383 0.393
2498.499 0.431 0.444 0.44 0.415 0.426 0.467 0.469 0.479 0.455 0.46
2517.793 0.544 0.584 0.565 0.575 0.61 0.611 0.616 0.667 0.6973 0.672
2537.086 0.648 0.661 0.701 0.7286 0.73 0.7561 0.79502 0.7448 0.7011 0.7274
2556.380 0.7785 0.80363 0.785026 0.80475 0.81711 0.83763 0.84685 0.86181 0.9013 0.9231
2575.673 0.9587 0.9715 0.988 1.0029 0.9932 1.0041 1.0476 1.0845 1.0896 1.0677
2594.966 1.0795 1.1252 1.1626 1.2005 1.2314 1.2564 1.2631 1.2767 1.3133 1.3345
2614.260 1.3164 1.3379 1.3723 1.3929 1.4418 1.5453 1.5654 1.5375 1.6035 1.5911
2633.553 1.6163 1.726 1.7653 1.813 1.873 1.853 1.903 2.003 2.043 2.083
2652.847 2.113 2.163 2.243 2.273 2.313 2.413 2.473 2.533 2.593 2.633
2672.140 2.683 2.733 2.793 2.813 2.793 2.773 2.753 2.793 2.763 2.733
2691.434 2.713 2.653 2.653 2.623 2.513 2.413 2.433 2.453 2.403 2.443
2710.727 2.483 2.433 2.533 2.593 2.583 2.643 2.663 2.663 2.723 2.773
2730.020 2.823 2.943 3.083 3.203 3.303 3.323 3.453 3.553 3.583 3.643
2749.314 3.643 3.733 3.813 3.763 3.743 3.813 3.783 3.853 4.043 4.113
2768.607 4.163 4.213 4.293 4.443 4.653 4.823 4.953 5.083 5.323 5.603
2787.901 5.853 6.203 6.533 6.853 7.143 7.443 7.773 8.123 8.513 8.953
2807.194 9.453 9.853 10.333 10.883 11.363 11.813 12.363 13.033 13.773 14.593
2826.488 15.443 16.373 17.333 18.513 19.883 21.413 23.283 25.553 28.413 31.903
2845.781 36.163 41.383 47.723 55.363 64.423 74.433 84.393 93.243 99.943 103.993
2865.074 105.393 104.353 101.613 97.923 93.973 90.263 87.163 84.873 83.393 82.353
2884.368 81.253 80.103 79.103 78.393 78.293 79.073 80.653 83.023 86.203 90.193
2903.661 95.053 100.783 107.453 114.943 123.263 132.803 143.913 156.903 172.013 189.333
2922.955 208.783 229.343 249.463 266.963 279.243 285.153 284.463 277.873 266.573 252.043
2942.248 235.943 219.223 202.733 187.343 173.753 162.463 153.673 147.393 143.363 141.123
2961.542 140.033 139.303 137.913 134.773 129.133 120.733 109.843 97.543 85.153 73.783
2980.835 64.003 55.733 48.803 43.073 38.293 34.183 30.683 27.723 25.213 23.133
3000.128 21.233 19.473 18.063 16.833 15.613 14.593 13.693 12.953 12.253 11.503
3019.422 10.903 10.373 9.803 9.263 8.963 8.683 8.343 8.023 7.643 7.283
3038.715 7.083 6.823 6.413 6.143 5.973 5.813 5.583 5.373 5.243 5.073
3058.009 4.893 4.763 4.573 4.403 4.343 4.243 4.113 3.993 3.923 3.833
3077.302 3.673 3.593 3.523 3.483 3.443 3.363 3.293 3.203 3.133 3.073
3096.596 3.013 2.963 2.913 2.823 2.783 2.733 2.703 2.693 2.613 2.573
3115.889 2.473 2.373 2.293 2.143 2.033 2.073 2.253 2.313 2.113 1.853
3135.182 1.883 2.013 2.043 1.993 1.843 1.933 2.023 1.893 1.873 1.963
3154.476 1.933 1.863 1.843 1.873 1.853 1.7714 1.7696 1.7803 1.7574 1.6741
3173.769 1.7107 1.7204 1.7026 1.6994 1.5947 1.5705 1.5924 1.5491 1.5424 1.5337
3193.063 1.4943 1.4448 1.4272 1.434 1.3879 1.3363 1.2988 1.2642 1.2243 1.2963
3212.356 1.2603 1.1064 1.0601 1.0615 1.0577 1.0903 1.0857 0.9403 0.8873 0.893
3231.650 0.81823 0.87962 0.9338 0.9091 0.9626 0.948 0.8708 0.82722 0.81731 0.79438
3250.943 0.87959 0.9453 0.7583 0.7304 0.792027 0.79586 0.80232 0.77343 0.83203 0.784217
3270.236 0.7568 0.7639 0.7248 0.699 0.7579 0.8381 0.83002 0.85867 0.9176 0.84143
3289.530 0.6934 0.7491 0.8161 0.81822 0.86053 0.7155 0.617 0.7063 0.79315 0.7666
3308.823 0.641 0.665 0.7311 0.663 0.654 0.7291 0.790806 0.86164 0.785267 0.745
3328.117 0.9413 1.0203 0.8964 0.85119 0.82243 0.79743 0.7564 0.787042 0.9534 0.9973
3347.410 1.0102 0.9466 0.77985 0.80438 0.9545 0.9253 0.83262 0.8917 0.88136 0.85284
3366.704 0.790685 0.79072 0.8965 0.9109 0.923 0.8866 0.932 0.9972 1.0385 1.0846
3385.997 1.0474 1.0758 1.0374 0.9818 1.1685 1.2425 1.1681 1.1422 1.1793 1.294
3405.290 1.3285 1.3474 1.3215 1.2259 1.2841 1.4116 1.4096 1.5721 1.7658 1.7523
3424.584 1.803 1.7374 1.684 1.7202 1.6698 1.7085 1.823 1.6449 1.4358 1.4347
3443.877 1.3919 1.4626 1.478 1.2366 1.0404 0.9918 0.9643 0.87637 0.86142 0.78067
3463.171 0.61 0.649 0.654 0.673 0.64 0.578 0.595 0.579 0.595 0.571
3482.464 0.557 0.601 0.571 0.566 0.472 0.487 0.575 0.479 0.475 0.377
3501.758 0.445 0.554 0.5 0.546 0.446 0.386 0.429 0.345 0.299 0.389
3521.051 0.56 0.594 0.435 0.424 0.436 0.451 0.498 0.499 0.548 0.463
3540.344 0.42 0.44 0.414 0.434 0.411 0.345 0.336 0.367 0.361 0.419
3559.638 0.408 0.41 0.466 0.395 0.345 0.39 0.427 0.341 0.297 0.31
3578.931 0.344 0.459 0.47 0.382 0.34 0.348 0.349 0.417 0.46 0.402
3598.225 0.415 0.473 0.403 0.464 0.556 0.445 0.451 0.505 0.563 0.634
3617.518 0.7007 0.647 0.551 0.582 0.55 0.532 0.57 0.645 0.6982 0.623
3636.812 0.577 0.621 0.657 0.594 0.547 0.641 0.6929 0.623 0.605 0.603
3656.105 0.589 0.611 0.609 0.623 0.573 0.557 0.492 0.401 0.453 0.484
3675.398 0.449 0.417 0.502 0.572 0.621 0.628 0.563 0.533 0.548 0.668
3694.692 0.6932 0.583 0.578 0.569 0.681 0.6997 0.588 0.566 0.492 0.481
3713.985 0.517 0.529 0.487 0.489 0.563 0.48 0.489 0.626 0.55 0.488
3733.279 0.546 0.579 0.544 0.511 0.586 0.607 0.463 0.454 0.551 0.63
3752.572 0.562 0.434 0.504 0.539 0.504 0.526 0.565 0.541 0.503 0.492
3771.866 0.528 0.579 0.536 0.562 0.58 0.563 0.606 0.642 0.626 0.609
3791.159 0.633 0.611 0.566 0.551 0.604 0.673 0.6 0.619 0.666 0.7006
3810.452 0.657 0.61 0.658 0.64 0.567 0.488 0.553 0.65 0.57 0.47
3829.746 0.471 0.549 0.647 0.6868 0.645 0.626 0.64 0.653 0.674 0.6996
3849.039 0.655 0.614 0.638 0.6902 0.677 0.626 0.6887 0.7182 0.7014 0.628
3868.333 0.643 0.6906 0.676 0.608 0.569 0.572 0.532 0.558 0.619 0.594
3887.626 0.637 0.628 0.534 0.572 0.589 0.517 0.562 0.622 0.541 0.526
3906.920 0.593 0.674 0.7153 0.649 0.623 0.621 0.676 0.7492 0.713 0.68
3926.213 0.623 0.632 0.652 0.7387 0.788643 0.7051 0.668 0.626 0.597 0.604
3945.506 0.635 0.673 0.697 0.726 0.80378 0.78059 0.7127 0.7049 0.7043 0.7186
3964.800 0.82274 0.79634 0.7583 0.83436 0.82325 0.77489 0.791479 0.9403 0.9523 0.891
3984.093 0.82551 0.87816 0.9547 0.9315 0.9772 0.9348 0.84135 0.79638 0.87676
##END=
