##TITLE=3,4-Dimethyl-o-phenylenediamine
##JCAMP-DX=4.24
##DATA TYPE=INFRARED SPECTRUM
##ORIGIN=EPA-IR VAPOR PHASE LIBRARY
##OWNER=SRD/NIST
Collection (C) 2018 copyright by the U.S. Secretary of Commerce
on behalf of the United States of America. All rights reserved.
##CAS REGISTRY NO=41927-01-9
##MOLFORM=C 8 H 12 N 2
##$NIST SOURCE=MSDC-IR
##STATE=gas
##XUNITS=1/CM
##YUNITS=ABSORBANCE
##XFACTOR=1.
##YFACTOR=0.001
##DELTAX=1.92898
##FIRSTX=549.8
##LASTX=4000.7
##FIRSTY=24.2364
##MAXX=4000.7
##MINX=549.759
##MAXY=0.0848364
##MINY=0
##NPOINTS=1790
##XYDATA=(X++(Y..Y))
549.759 24.2364 24.3364 24.8264 25.6964 26.4364 26.6664 28.4264 29.7664 29.8564 31.2464
569.049 32.6264 33.5364 33.7664 34.2864 35.2064 35.4564 35.0364 34.2364 33.3364 32.9064
588.339 32.9564 32.7064 32.4564 32.5064 32.3864 32.4064 32.7264 32.8264 33.1564 33.4064
607.628 33.7164 34.3464 35.0264 35.4164 36.0564 36.2464 35.9564 36.5364 37.5164 38.2664
626.918 38.8364 39.6364 40.0364 40.3464 40.7664 41.5064 42.2764 42.8064 43.0764 43.0864
646.208 43.2064 43.4664 44.3764 44.4964 44.3364 45.0564 46.0264 46.8864 47.8764 48.8964
665.498 50.1564 51.8664 53.1164 54.0764 55.2364 56.8264 58.2264 59.3964 60.1364 60.4164
684.787 61.1164 61.4064 60.9264 60.2164 59.2964 58.4364 57.1664 55.5364 53.9864 52.0964
704.077 50.3364 48.4364 46.4564 45.0164 43.0764 40.9364 39.4664 38.0964 36.9864 36.1164
723.367 35.1564 34.3664 33.6564 33.4664 33.3264 32.9264 32.9864 33.0564 33.0464 33.6964
742.657 34.1764 34.0264 34.3764 35.1264 35.2164 35.0964 34.7264 34.3964 34.2664 33.8264
761.947 33.5264 33.1864 32.9464 32.8564 33.6664 35.1164 36.6064 38.4664 40.3464 42.8964
781.236 45.1564 47.3564 50.6064 54.1264 57.8664 61.1764 62.1764 60.2864 57.0564 53.6764
800.526 50.3964 47.4964 44.5564 41.3964 38.5264 35.5464 32.4064 29.6864 27.7364 26.0064
819.816 24.2764 23.2164 22.3764 21.0964 20.6564 20.2064 19.3064 18.7564 18.3564 18.3964
839.106 18.2664 17.7264 17.3264 16.9764 16.7464 16.7364 16.6464 16.7264 16.6464 16.6964
858.395 16.9464 16.5464 16.2364 15.9964 15.8264 15.9264 15.5164 15.1664 14.9464 14.5764
877.685 14.0864 13.7664 13.6364 13.1964 12.7864 12.7264 12.4264 12.1764 12.6764 12.6764
896.975 12.1064 11.8064 11.9364 12.0564 11.7964 11.9964 11.9964 11.6364 11.7264 11.8064
916.265 12.0364 11.9364 11.6064 11.5964 11.1864 11.3464 11.6564 11.4564 11.4264 11.1964
935.555 11.1464 11.5364 11.5264 11.4864 11.8164 11.9164 11.9064 12.1064 12.2364 12.2964
954.844 12.5064 12.4264 12.3564 12.3264 12.4064 12.3864 12.2664 12.2064 12.1664 12.2464
974.134 12.3464 12.1464 11.7264 11.6964 11.8464 11.9664 11.9664 12.0264 12.0064 11.9164
993.424 11.8964 12.0864 12.2264 12.0864 12.1364 12.0364 12.2664 12.0164 11.2664 11.2664
1012.714 10.9064 10.5964 10.8864 10.9764 11.0964 11.5364 11.6964 11.4864 11.6764 11.4464
1032.003 10.8464 11.2064 11.3764 11.1564 11.0964 11.6264 11.3964 11.3164 12.1264 12.0864
1051.293 12.6264 13.1964 13.2764 13.9864 14.9064 15.4164 15.7264 16.0764 16.3864 16.8764
1070.583 17.5264 17.6064 18.1164 18.4864 18.2464 18.7064 19.0564 19.2064 19.1164 19.2864
1089.873 19.0164 17.7164 17.5864 17.5364 17.3364 16.4664 15.7264 15.7164 14.8264 13.8164
1109.163 13.3064 13.4864 13.9164 13.3064 12.6764 13.0464 13.6164 13.4164 12.3364 12.0064
1128.452 12.2064 11.8864 11.2664 11.8464 12.6164 13.1964 13.2864 13.6964 14.5864 14.4264
1147.742 14.1964 14.4364 14.9864 15.5964 15.6764 15.5964 15.8864 17.1764 18.1264 18.4564
1167.032 19.0464 19.9564 20.6964 20.3664 19.3464 18.4764 18.0064 17.1864 15.2964 13.5464
1186.322 12.4364 10.7464 9.7264 9.1464 8.9464 9.3264 9.5864 9.1864 8.3064 8.1264
1205.611 7.7164 7.7164 8.4864 8.7164 9.1264 9.8064 10.6864 11.3664 11.2064 11.3264
1224.901 12.7664 13.9764 15.4464 17.5164 17.7364 18.6564 20.3664 20.6464 20.9064 20.8064
1244.191 20.7064 21.7764 22.5664 22.7764 22.4164 22.2464 22.2064 20.9864 20.6864 21.2564
1263.481 21.6864 22.6564 24.3964 26.0564 27.8264 29.8364 32.7264 36.2764 39.7964 44.1264
1282.771 48.3264 51.6264 54.2464 56.1064 57.0264 57.0164 56.0164 54.0164 50.9364 46.9464
1302.060 42.1864 36.8764 31.9864 27.7864 24.2564 21.5964 19.3164 17.3264 15.8364 14.5664
1321.350 13.3464 12.2164 11.2664 10.4164 9.6564 8.9964 8.5564 8.1064 7.6764 7.3964
1340.640 7.0464 6.7964 6.7564 6.6464 6.5364 6.6264 6.6164 6.4864 6.4664 6.4864
1359.930 6.4564 6.5364 6.6064 6.6464 6.6964 6.8064 6.9364 6.8864 6.8664 6.9864
1379.219 7.1364 7.1864 7.2564 7.3164 7.2964 7.3564 7.4364 7.4564 7.5764 7.6164
1398.509 7.5864 7.6464 7.8364 8.0864 8.2664 8.5564 8.9664 9.4064 9.8464 10.4064
1417.799 11.1964 11.9564 12.6564 13.5764 14.7464 16.0864 17.5364 19.0164 20.6164 22.3864
1437.089 24.2564 26.0964 27.9464 29.8264 31.7564 33.5964 35.3264 36.8364 38.2064 39.6264
1456.378 40.9064 42.0864 43.1664 44.0564 44.9664 46.0664 47.2564 48.4464 49.9164 51.9664
1475.668 54.2264 56.7864 59.7864 63.2664 67.1064 71.2564 75.5664 79.5064 82.6564 84.4764
1494.958 84.8364 83.7764 81.3664 77.7564 73.3164 67.9864 61.6864 54.9564 48.2664 41.7364
1514.248 35.7364 30.8664 27.1664 24.1364 21.6464 19.8864 18.6064 17.5664 16.6164 15.9164
1533.538 15.3764 14.8764 14.5364 14.2464 14.0664 13.9164 13.7864 13.7964 13.7464 13.7364
1552.827 13.9864 14.2264 14.2764 14.5464 15.1664 15.7164 16.3064 16.9064 17.4964 18.2464
1572.117 19.0764 19.9964 20.9264 22.0064 23.1064 24.2064 25.7164 27.3564 28.9564 31.0264
1591.407 33.1264 35.2564 37.8164 40.7964 44.1164 47.4964 51.0664 54.6064 58.1064 61.8464
1610.697 65.3664 68.1564 70.2564 71.6264 72.1764 71.7764 70.3664 68.2764 65.4064 61.6564
1629.986 57.3964 52.8964 48.3964 43.8564 39.4064 35.3164 31.8564 28.7764 25.6564 22.9664
1649.276 20.8564 18.9364 17.0764 15.7264 14.4964 13.2464 12.1064 11.2364 10.5164 9.7964
1668.566 9.1964 8.6864 8.2964 7.9264 7.6664 7.2864 6.9064 6.8264 6.6364 6.4264
1687.856 6.3664 6.2464 6.1964 6.1264 5.9764 5.8864 5.9064 5.8564 5.6564 5.5164
1707.146 5.4664 5.3064 5.1064 5.0264 4.9864 4.9164 4.9464 4.8464 4.6564 4.6664
1726.435 4.6864 4.7064 4.7564 4.7364 4.6964 4.5964 4.6364 4.7864 4.6864 4.6164
1745.725 4.6164 4.5764 4.6064 4.5064 4.4864 4.4764 4.3264 4.2664 4.3964 4.3964
1765.015 4.2464 4.1764 4.1264 4.0264 3.9964 3.9264 3.9564 3.9564 3.8364 3.8364
1784.305 3.8564 3.8464 3.9664 4.0164 3.9264 4.0164 4.0564 4.1764 4.3464 4.4664
1803.594 4.6264 4.8464 5.0764 5.2164 5.3664 5.5064 5.5764 5.6264 5.5764 5.5164
1822.884 5.4264 5.3564 5.1864 4.8064 4.5064 4.3064 3.9964 3.7064 3.4364 3.2364
1842.174 3.1564 2.9764 2.8164 2.7264 2.5264 2.4364 2.4264 2.3864 2.3764 2.3964
1861.464 2.2964 2.1564 2.1264 2.1364 2.1764 2.1364 2.1164 2.1364 2.1664 2.1164
1880.754 2.0664 2.0164 1.9864 2.0664 1.9764 1.9264 2.0264 2.0164 2.0264 2.0964
1900.043 2.0064 1.9464 2.0164 1.9864 2.0764 2.1364 2.0764 2.0764 2.1364 2.1564
1919.333 2.0964 2.0964 2.1664 2.1764 2.1664 2.1864 2.2564 2.3364 2.2764 2.2064
1938.623 2.1964 2.1764 2.1964 2.1264 2.0364 2.0364 2.0264 2.0564 2.0964 2.1064
1957.913 2.1364 2.0564 1.9964 1.9064 1.8064 1.8364 1.6964 1.7564 1.7664 1.6764
1977.202 1.7264 1.6464 1.6064 1.6664 1.5964 1.5264 1.5664 1.5464 1.5264 1.4464
1996.492 1.3464 1.3264 1.3464 1.3964 1.4364 1.3664 1.2864 1.2664 1.3064 1.3864
2015.782 1.3264 1.2264 1.2064 1.2664 1.3464 1.3764 1.3664 1.3464 1.3964 1.4064
2035.072 1.4164 1.3564 1.2064 1.1964 1.2364 1.2264 1.3064 1.3564 1.3064 1.3264
2054.362 1.3264 1.2864 1.2864 1.2864 1.3464 1.3464 1.2964 1.2064 1.1864 1.2464
2073.651 1.3764 1.4164 1.3664 1.3164 1.2964 1.3864 1.4264 1.3864 1.2864 1.3364
2092.941 1.3664 1.3064 1.4164 1.5464 1.4464 1.2864 1.3264 1.4264 1.3964 1.3864
2112.231 1.3964 1.4064 1.3464 1.2764 1.2464 1.2764 1.3164 1.3964 1.4664 1.3964
2131.521 1.4164 1.4264 1.3464 1.2564 1.2364 1.3264 1.4064 1.3464 1.3064 1.3264
2150.810 1.3164 1.3664 1.4064 1.3764 1.3164 1.3264 1.3164 1.3264 1.3864 1.2164
2170.100 1.1064 1.1264 1.1364 1.1964 1.2264 1.1764 1.0239 0.9032 0.9383 1.0133
2189.390 0.9401 0.8388 0.925 0.8977 0.8108 0.7775 0.6884 0.6672 0.7471 0.8844
2208.680 0.9006 0.9364 1.0664 1.0964 1.1764 1.1964 1.0664 1.0262 1.0864 1.0964
2227.970 0.9476 0.941 1.0764 1.0464 1.0664 1.0364 0.9415 1.0464 1.0964 1.0764
2247.259 1.1764 1.1464 1.1164 1.1964 1.1164 1.1364 1.2164 1.1464 1.1064 1.0764
2266.549 1.2664 1.3264 1.0764 1.0964 1.1564 1.0864 1.0764 1.2264 1.2064 0.997
2285.839 1.0264 1.1164 1.1564 1.1164 1.1064 1.0564 1.0964 1.1364 1.1364 1.1764
2305.129 1.0564 1.1264 1.2564 1.1264 1.1264 1.2764 1.1864 1.1464 1.2564 1.2564
2324.418 1.1164 1.0264 1.0028 1.0264 1.0464 0.9454 0.9522 1.0464 1.0264 0.9691
2343.708 0.9794 0.9894 1.0264 1.0564 1.001 0.9705 1.0664 1.0364 0.9052 0.8519
2362.998 0.782 0.8075 0.8633 0.8294 0.7433 0.7354 0.7592 0.8127 0.8572 0.9454
2382.288 0.9652 0.9424 0.9786 0.9083 0.7027 0.747 0.8983 0.8653 0.7916 0.7993
2401.578 0.8352 0.7735 0.7289 0.6888 0.7676 0.7901 0.8553 1.0234 0.9566 0.8395
2420.867 0.7774 0.7815 0.7766 0.7768 0.9442 0.959 0.8905 0.9482 1.1064 1.2064
2440.157 1.0464 0.9493 1.1164 1.0102 0.8979 1.0964 1.0964 1.0167 1.0764 1.0264
2459.447 0.9369 1.0964 1.0964 1.0364 1.0864 1.0664 1.0072 0.8706 0.9718 0.9482
2478.737 0.8721 1.007 1.0464 1.0364 0.9809 0.922 0.8366 0.7766 0.7957 0.8198
2498.026 0.8343 0.7851 0.8041 0.8667 0.8209 0.8648 0.9659 0.8737 0.7355 0.6235
2517.316 0.6044 0.652 0.715 0.7247 0.6719 0.7486 0.8138 0.7404 0.7843 0.8148
2536.606 0.9104 0.8903 0.7568 0.8706 0.891 0.8313 0.946 1.0664 0.925 0.835
2555.896 0.9759 1.2664 1.1364 0.8823 0.8883 0.8642 0.9934 1.0564 0.9445 0.9489
2575.186 0.9678 0.951 0.9179 0.9745 1.0964 1.1264 1.1464 1.2464 1.2964 1.1464
2594.475 1.0664 1.1764 1.1264 1.2264 1.2964 1.1364 1.2164 1.3664 1.3564 1.2464
2613.765 1.3464 1.2664 1.1164 1.2564 1.1364 0.9454 1.0564 1.1564 1.2064 1.1864
2633.055 1.0764 1.1364 1.0464 0.8448 0.8516 0.9227 1.0964 1.1164 0.9269 0.9004
2652.345 0.8816 0.7698 0.5988 0.7006 1.0564 1.0564 0.8596 0.8008 0.7972 0.8717
2671.634 0.929 0.7802 0.7434 0.9079 0.8861 0.8022 0.9454 1.0664 1.0364 0.9678
2690.924 0.9494 1.0664 1.2064 1.2064 1.2164 1.2164 1.1664 1.2564 1.3764 1.2964
2710.214 1.2464 1.2664 1.3664 1.6364 1.7264 1.8064 1.8464 1.9764 2.1964 2.2664
2729.504 2.5564 2.8564 3.0964 3.1764 3.1564 3.2064 3.3764 3.4864 3.3464 3.2964
2748.794 3.2164 2.9464 2.6564 2.4464 2.2664 2.2364 2.3464 2.2664 2.2364 2.2064
2768.083 2.1664 2.2864 2.2064 2.1664 2.2464 2.1964 2.1764 2.2064 2.0164 2.0864
2787.373 2.2364 2.2364 2.1764 2.1064 2.3664 2.5964 2.5464 2.5064 2.5864 2.6864
2806.663 2.8464 2.9464 3.1564 3.3564 3.4464 3.6964 3.8664 3.9164 4.1764 4.4264
2825.953 4.5564 4.8464 5.2964 5.6764 5.8764 6.0864 6.5264 7.1664 7.8064 8.4564
2845.242 9.2264 10.1964 11.3064 12.4664 14.0264 15.6364 17.2664 19.5364 21.8364 24.0864
2864.532 26.3464 28.3864 30.1464 31.5664 32.8864 33.6764 33.8964 33.7964 33.4764 32.9364
2883.822 31.9564 31.0064 30.2464 29.1864 28.4964 28.0064 27.6464 27.6964 27.7364 28.0464
2903.112 28.5964 29.3964 30.6464 32.1264 33.8564 35.8664 37.7964 39.9064 42.1864 44.4364
2922.401 46.2864 47.5564 48.9264 49.8664 49.8264 49.6064 48.9264 47.4764 46.1964 44.9464
2941.691 42.9064 40.5164 38.6364 36.9964 34.8764 32.6464 30.8364 29.1564 27.8964 26.8364
2960.981 26.2064 26.0964 25.6064 25.1164 24.9664 24.6364 24.1864 23.5964 23.0864 22.6464
2980.271 22.0064 21.2864 20.5664 19.9764 19.1764 18.3964 17.9564 17.7764 17.6464 17.8064
2999.561 18.3264 18.7664 19.3164 20.2364 21.5064 22.9964 24.5764 25.9664 27.4264 28.8964
3018.850 30.0364 30.9964 31.6964 32.1864 32.5564 32.9464 33.0664 32.8464 32.3164 31.7864
3038.140 31.0964 30.2164 29.4864 28.7264 27.9964 27.0364 25.7564 24.4264 23.0064 21.6764
3057.430 20.2864 18.8564 17.6764 16.3864 15.2964 14.6064 13.5364 12.3564 11.6764 11.1864
3076.720 10.4464 9.6764 9.1264 8.6664 8.1464 7.7864 7.3564 6.8364 6.2964 5.6364
3096.009 5.3064 5.0064 4.6964 4.5364 4.3964 4.2964 3.9664 3.5964 3.3864 3.1864
3115.299 2.9664 2.9164 2.8864 2.6664 2.6964 2.5564 2.1864 2.1464 2.0264 1.9064
3134.589 1.9564 1.7964 1.7064 1.8464 1.9664 1.9264 1.6664 1.8264 1.9164 1.7064
3153.879 1.5364 1.4364 1.6664 1.6564 1.6364 1.6864 1.6864 1.6364 1.4164 1.1964
3173.169 1.3364 1.4464 1.3564 1.3564 1.5564 1.7064 1.2964 1.3464 1.6964 1.5264
3192.458 1.2164 1.1964 1.3464 1.1464 0.9675 1.0564 1.1764 1.3564 1.3964 1.4064
3211.748 1.5764 1.4564 1.3164 1.2464 1.2464 1.4564 1.3864 1.3264 1.2564 1.2864
3231.038 1.2464 1.0964 1.2264 1.1364 1.0364 1.0119 1.0039 1.0464 1.1164 1.1464
3250.328 1.0964 1.0764 1.0564 1.0056 0.9116 0.7191 0.6945 0.7519 0.545 0.6221
3269.617 0.9085 0.9037 1.0264 1.2564 1.0964 0.7178 0.6623 0.8358 0.8252 0.9568
3288.907 1.0124 0.8913 0.7095 0.5281 0.6691 0.7916 0.8912 1.0764 0.8903 0.6348
3308.197 0.8666 1.0764 1.1564 1.0864 0.9139 1.0108 1.1164 1.1164 1.1364 1.0864
3327.487 1.0127 1.2364 1.4564 1.2364 1.2464 1.5664 1.6164 1.9664 2.4764 2.6564
3346.777 3.1864 3.7364 3.7564 3.9964 4.6864 5.2964 5.6664 5.9664 6.3764 6.7964
3366.066 7.2964 7.5164 7.5364 7.4264 7.3264 7.3064 7.1564 6.9464 6.4264 5.9664
3385.356 5.5764 4.9764 4.5464 3.9564 3.6064 3.5464 3.2064 3.0864 3.0264 2.8164
3404.646 2.8364 2.8964 2.7364 2.8164 2.9064 2.7764 2.8564 3.0464 3.2564 3.5064
3423.936 3.8164 4.3364 4.5364 4.8164 5.4264 5.9664 6.5164 7.0464 7.5264 7.9264
3443.225 8.0964 8.3864 8.7164 8.8464 9.2864 9.6364 10.1364 10.5664 10.9064 11.5564
3462.515 12.0164 12.1664 12.4264 12.5664 12.5764 12.6864 12.3164 11.7864 11.2164 10.7964
3481.805 10.0364 8.8764 8.1764 7.7164 7.1064 6.5364 5.8164 5.4064 5.2864 4.8464
3501.095 4.4064 4.1864 4.0464 3.8564 3.6864 3.3964 3.1664 2.8964 2.7264 2.9164
3520.385 2.8264 2.5164 2.2864 1.9264 1.8464 2.0364 1.9064 1.7364 1.9164 1.8364
3539.674 1.6464 1.6564 1.7564 1.7164 1.5564 1.6164 1.5364 1.2764 1.0964 1.2164
3558.964 1.5464 1.3764 1.0464 1.3064 1.3364 0.8876 0.5749 0.59 1.1064 1.0964
3578.254 0.7212 0.663 0.6522 0.7236 0.7482 0.709 0.9217 1.2164 0.9949 0.62
3597.544 0.6775 0.9039 0.9697 0.8328 0.6861 0.6092 0.5598 0.6206 0.6282 0.6307
3616.833 0.8132 0.8451 0.8142 0.8148 0.8001 0.887 0.8067 0.7925 0.716 0.6804
3636.123 0.7274 0.6044 0.4482 0.2982 0.454 0.5306 0.5848 0.5958 0.3957 0.4901
3655.413 0.6379 0.6041 0.6449 0.6021 0.4833 0.3481 0.12257 0.3036 0.4933 0.6698
3674.703 0.6532 0.4901 0.5434 0.3456 0.4577 0.6385 0.4157 0.563 0.9576 1.0241
3693.993 0.8913 0.6965 0.4781 0.4007 0.4678 0.3699 0.4316 0.5814 0.2011 0.09157
3713.282 0.1668 0.2692 0.4116 0.1819 0.05239 0.1463 0.2307 0.1496 0.2291 0.5823
3732.572 0.5504 0.5085 0.4444 0.05379 0 0.3435 0.4082 0.2598 0.2984 0.3533
3751.862 0.3811 0.3206 0.3506 0.4641 0.5034 0.4155 0.316 0.4373 0.6904 0.6908
3771.152 0.6183 0.607 0.3967 0.482 0.6379 0.7019 0.4943 0.2555 0.4358 0.5189
3790.441 0.5094 0.3127 0.2718 0.3596 0.473 0.4388 0.5002 0.601 0.274 0.3785
3809.731 0.5864 0.5049 0.5482 0.6667 0.6559 0.459 0.6306 0.6568 0.4743 0.3926
3829.021 0.387 0.5765 0.643 0.4839 0.3812 0.5002 0.5129 0.4835 0.5974 0.4935
3848.311 0.542 0.6521 0.4144 0.3726 0.6622 0.9575 0.8493 0.5244 0.413 0.4261
3867.601 0.4958 0.5649 0.8665 1.1564 0.8941 0.8768 1.0964 0.9695 0.9305 0.7087
3886.890 0.233 0.263 0.8258 1.0764 0.9491 0.9156 0.8658 0.7746 0.689 0.549
3906.180 0.4489 0.7266 0.9522 0.864 0.8257 1.0264 1.0207 0.7269 0.6011 1.0212
3925.470 1.1164 0.8214 0.6583 0.6394 0.7733 0.9579 0.8465 0.5604 0.6355 0.4972
3944.760 0.5169 0.5734 0.4271 0.5434 0.5605 0.4952 0.7725 0.766 0.5192 0.6725
3964.049 0.7454 0.5475 0.5437 0.775 0.9737 1.0153 1.1164 0.944 0.4567 0.5949
3983.339 0.7216 0.6047 1.0141 1.2464 1.0964 0.9603 0.8588 0.9254 0.7672 0.7805
##END=
