##TITLE=Dimethyl acetylmethylphosphonate
##JCAMP-DX=4.24
##DATA TYPE=INFRARED SPECTRUM
##ORIGIN=EPA-IR VAPOR PHASE LIBRARY
##OWNER=SRD/NIST
Collection (C) 2018 copyright by the U.S. Secretary of Commerce
on behalf of the United States of America. All rights reserved.
##CAS REGISTRY NO=4202-14-6
##MOLFORM=C 5 H 11 O 4 P
##$NIST SOURCE=MSDC-IR
##STATE=gas
##XUNITS=1/CM
##YUNITS=ABSORBANCE
##XFACTOR=1.
##YFACTOR=0.001
##DELTAX=1.92934
##FIRSTX=549.9
##LASTX=3999.5
##FIRSTY=6.59
##MAXX=3999.53
##MINX=549.863
##MAXY=0.14769
##MINY=0
##NPOINTS=1789
##XYDATA=(X++(Y..Y))
549.863 6.59 6.18 5.72 5.51 5.44 5.31 5.25 5.12 5.09 5.18
569.156 5.35 5.66 6.04 6.51 7.06 7.62 8.23 8.78 9.2 9.49
588.450 9.66 9.67 9.56 9.18 8.55 7.96 7.3 6.54 5.78 5.09
607.743 4.54 4.15 3.72 3.36 3.14 2.89 2.779 2.7274 2.6272 2.4941
627.037 2.3894 2.367 2.3486 2.3057 2.2488 2.1874 2.1194 2.1513 2.142 2.125
646.330 2.0978 2.0795 2.0819 2.0798 2.1195 2.1334 2.093 2.094 2.1082 2.0471
665.624 2.0572 2.1237 2.1868 2.1933 2.2524 2.2691 2.2118 2.302 2.4416 2.5298
684.917 2.5922 2.6307 2.7553 2.96 3.16 3.31 3.47 3.66 3.82 3.97
704.210 4.09 4.18 4.32 4.5 4.64 4.82 5.03 5.1 5.28 5.45
723.504 5.47 5.43 5.28 5.14 5.06 4.93 4.71 4.55 4.53 4.51
742.797 4.44 4.59 4.9 5.2 5.61 6.14 6.83 7.68 8.62 9.63
762.091 10.71 11.79 12.83 13.78 14.53 15.13 15.57 15.82 15.92 15.89
781.384 15.9 16.01 16.25 16.79 17.61 18.68 19.99 21.43 23.03 24.75
800.678 26.58 28.43 30.27 32.09 33.81 35.38 36.84 38.11 38.99 39.56
819.971 39.91 39.99 39.75 39.2 38.37 37.23 35.88 34.46 33.09 31.81
839.264 30.82 29.92 29.1 28.38 27.62 26.79 25.84 24.75 23.48 22.02
858.558 20.44 18.82 17.14 15.47 13.83 12.3 10.94 9.73 8.61 7.72
877.851 7.01 6.4 5.9 5.5 5.23 4.95 4.65 4.42 4.25 4.12
897.145 4 3.9 3.79 3.72 3.7 3.65 3.64 3.64 3.67 3.74
916.438 3.79 3.85 3.9 4.01 4.12 4.19 4.31 4.42 4.54 4.65
935.732 4.69 4.79 4.97 5.17 5.39 5.65 5.99 6.42 6.9 7.42
955.025 8.03 8.72 9.48 10.27 11.06 11.8 12.42 12.96 13.41 13.73
974.318 13.88 13.9 13.85 13.64 13.39 13.22 13.06 12.93 13 13.2
993.612 13.51 13.99 14.69 15.55 16.56 17.81 19.29 20.99 22.94 25.21
1012.905 27.9 31.09 34.87 39.36 44.74 51.06 58.41 66.9 76.44 86.78
1032.199 97.73 108.81 119.34 128.78 136.61 142.48 146.11 147.69 147.43 145.41
1051.492 141.84 137.14 131.82 126.37 121.17 116.46 112.11 107.8 103.22 97.99
1070.786 91.99 85.31 78.11 70.48 62.82 55.67 49.35 43.98 39.55 35.96
1090.079 33.07 30.73 28.86 27.31 26.06 25.07 24.18 23.38 22.71 22.21
1109.372 21.75 21.28 20.85 20.45 20.07 19.65 19.23 18.76 18.22 17.69
1128.666 17.14 16.53 15.93 15.37 14.8 14.24 13.74 13.2 12.74 12.4
1147.959 12.12 11.92 11.78 11.69 11.7 11.77 11.94 12.21 12.52 12.92
1167.253 13.46 14.09 14.78 15.59 16.45 17.29 18.13 18.96 19.75 20.53
1186.546 21.28 21.96 22.57 23.21 23.84 24.46 25.06 25.67 26.37 27.17
1205.840 28.08 29.06 30.14 31.31 32.53 33.7 34.74 35.53 36.01 36.15
1225.133 35.83 35.1 34.02 32.55 30.82 28.9 26.96 25.16 23.48 22.05
1244.426 20.97 20.29 19.93 19.97 20.45 21.35 22.78 24.76 27.25 30.23
1263.720 33.65 37.47 41.53 45.76 50.17 54.47 58.38 61.55 63.74 64.87
1283.013 65.13 64.61 63.46 61.53 58.61 54.89 50.81 46.66 42.36 37.96
1302.307 33.64 29.51 25.72 22.42 19.54 16.97 14.8 12.97 11.42 10.19
1321.600 9.23 8.51 7.99 7.58 7.3 7.17 7.12 7.15 7.28 7.43
1340.894 7.65 8 8.46 9.02 9.68 10.46 11.36 12.3 13.29 14.21
1360.187 14.98 15.59 15.97 16.08 15.94 15.5 14.8 13.9 12.91 11.96
1379.480 11.11 10.44 10 9.73 9.57 9.5 9.52 9.57 9.58 9.58
1398.774 9.54 9.44 9.25 8.97 8.66 8.35 8.01 7.68 7.39 7.16
1418.067 6.97 6.82 6.74 6.62 6.53 6.43 6.36 6.33 6.33 6.35
1437.361 6.4 6.46 6.52 6.59 6.69 6.83 6.96 7.04 7.13 7.15
1456.654 7.08 6.95 6.85 6.79 6.64 6.43 6.27 6.15 6.02 5.84
1475.948 5.66 5.47 5.28 5.07 4.87 4.7 4.54 4.36 4.21 4.04
1495.241 3.95 3.92 3.84 3.75 3.68 3.65 3.61 3.59 3.56 3.51
1514.534 3.53 3.58 3.61 3.64 3.63 3.66 3.72 3.74 3.77 3.78
1533.828 3.76 3.76 3.8 3.84 3.84 3.78 3.74 3.73 3.71 3.66
1553.121 3.62 3.59 3.57 3.49 3.39 3.38 3.32 3.24 3.21 3.18
1572.415 3.17 3.17 3.12 3.03 3 3 2.94 2.92 2.92 2.91
1591.708 2.91 2.92 2.97 3.04 3.11 3.14 3.17 3.28 3.38 3.5
1611.002 3.63 3.76 3.92 4.08 4.19 4.28 4.38 4.43 4.41 4.4
1630.295 4.4 4.32 4.18 4.06 3.89 3.7 3.53 3.38 3.27 3.17
1649.588 3.11 3.1 3.07 2.99 2.99 3 3 3.04 3.13 3.22
1668.882 3.33 3.43 3.56 3.76 3.93 4.11 4.35 4.67 5.06 5.38
1688.175 5.71 6.16 6.64 7.17 7.86 8.54 9.34 10.36 11.49 12.84
1707.469 14.44 16.35 18.5 21.05 23.94 27.16 30.54 33.74 36.87 39.61
1726.762 41.7 43.12 43.75 43.5 42.33 40.49 38.02 34.93 31.64 28.31
1746.056 25.21 22.45 20.13 18.05 16.29 14.81 13.47 12.27 11.16 10.13
1765.349 9.25 8.41 7.64 7.02 6.42 5.88 5.38 5 4.74 4.44
1784.642 4.12 3.89 3.73 3.6 3.46 3.33 3.25 3.15 3.04 2.99
1803.936 2.95 2.8782 2.8464 2.8165 2.7679 2.757 2.7461 2.7362 2.7334 2.6887
1823.229 2.6331 2.6074 2.6075 2.6147 2.5723 2.4928 2.4708 2.494 2.4693 2.4174
1842.523 2.3753 2.3716 2.3865 2.3729 2.3474 2.2942 2.2687 2.2539 2.2425 2.2339
1861.816 2.2243 2.212 2.1609 2.1528 2.1525 2.1365 2.1314 2.1027 2.09 2.1233
1881.110 2.1147 2.0717 2.0601 2.0795 2.0652 2.0032 1.97775 1.97358 1.92111 1.88434
1900.403 1.87733 1.8639 1.8251 1.77 1.767 1.754 1.744 1.71 1.637 1.626
1919.696 1.649 1.631 1.579 1.583 1.596 1.561 1.525 1.478 1.463 1.454
1938.990 1.41 1.405 1.385 1.354 1.345 1.337 1.321 1.315 1.331 1.313
1958.283 1.325 1.344 1.322 1.275 1.268 1.277 1.262 1.289 1.304 1.279
1977.577 1.269 1.282 1.262 1.281 1.327 1.311 1.295 1.308 1.319 1.289
1996.870 1.266 1.249 1.238 1.234 1.256 1.293 1.254 1.219 1.205 1.194
2016.164 1.193 1.196 1.188 1.176 1.196 1.192 1.179 1.146 1.101 1.109
2035.457 1.133 1.128 1.122 1.112 1.092 1.114 1.109 1.114 1.129 1.126
2054.750 1.149 1.164 1.168 1.177 1.179 1.193 1.211 1.229 1.237 1.213
2074.044 1.232 1.256 1.25 1.258 1.282 1.289 1.279 1.287 1.301 1.287
2093.337 1.277 1.297 1.297 1.267 1.228 1.216 1.228 1.228 1.22 1.21
2112.631 1.2 1.192 1.182 1.157 1.131 1.137 1.13 1.104 1.107 1.124
2131.924 1.129 1.118 1.104 1.074 1.07 1.049 1.022 1.019 0.996 0.998
2151.218 1.01 0.998 0.994 0.998 0.982 0.978 0.968 0.97 0.982 0.941
2170.511 0.934 0.959 0.967 0.97 0.969 0.973 0.96 0.961 0.985 0.984
2189.804 0.963 0.962 0.97 0.956 0.94 0.954 0.964 0.938 0.928 0.947
2209.098 0.958 0.927 0.917 0.922 0.929 0.95 0.932 0.92 0.921 0.907
2228.391 0.89 0.89 0.905 0.9 0.914 0.937 0.918 0.939 0.947 0.916
2247.685 0.9 0.899 0.908 0.88 0.86 0.87 0.87 0.85 0.82 0.86
2266.978 0.87 0.88 0.884 0.86 0.85 0.84 0.87 0.88 0.88 0.88
2286.272 0.86 0.86 0.86 0.86 0.84 0.84 0.84 0.83 0.84 0.86
2305.565 0.86 0.86 0.86 0.884 0.883 0.84 0.85 0.86 0.886 0.88
2324.858 0.87 0.914 0.922 0.933 0.929 0.916 0.929 0.934 0.914 0.892
2344.152 0.883 0.88 0.89 0.91 0.886 0.86 0.898 0.909 0.884 0.87
2363.445 0.881 0.85 0.84 0.84 0.82 0.82 0.8 0.8 0.78 0.79
2382.739 0.83 0.83 0.83 0.8 0.79 0.81 0.82 0.85 0.85 0.83
2402.032 0.8 0.8 0.81 0.8 0.81 0.8 0.78 0.82 0.8 0.76
2421.326 0.79 0.81 0.8 0.79 0.77 0.78 0.77 0.77 0.78 0.77
2440.619 0.8 0.78 0.76 0.76 0.76 0.76 0.77 0.78 0.78 0.78
2459.912 0.76 0.75 0.77 0.76 0.74 0.74 0.73 0.72 0.74 0.74
2479.206 0.73 0.73 0.76 0.77 0.78 0.79 0.79 0.82 0.78 0.76
2498.499 0.79 0.76 0.74 0.79 0.78 0.73 0.76 0.73 0.72 0.77
2517.793 0.81 0.76 0.75 0.78 0.78 0.76 0.74 0.76 0.79 0.81
2537.086 0.81 0.79 0.8 0.82 0.82 0.81 0.81 0.79 0.81 0.8
2556.380 0.78 0.81 0.82 0.8 0.8 0.83 0.84 0.84 0.84 0.85
2575.673 0.84 0.84 0.84 0.83 0.79 0.78 0.81 0.81 0.82 0.85
2594.966 0.85 0.86 0.87 0.84 0.84 0.79 0.8 0.83 0.79 0.75
2614.260 0.77 0.81 0.83 0.85 0.83 0.77 0.78 0.8 0.75 0.72
2633.553 0.73 0.75 0.74 0.7 0.77 0.8 0.77 0.76 0.78 0.82
2652.847 0.78 0.75 0.77 0.75 0.72 0.73 0.72 0.74 0.74 0.7
2672.140 0.69 0.69 0.69 0.69 0.7 0.7 0.65 0.63 0.69 0.72
2691.434 0.67 0.66 0.68 0.66 0.65 0.71 0.74 0.72 0.7 0.68
2710.727 0.7 0.69 0.65 0.63 0.59 0.62 0.65 0.65 0.67 0.62
2730.020 0.6 0.61 0.61 0.65 0.62 0.61 0.65 0.62 0.59 0.61
2749.314 0.63 0.65 0.65 0.64 0.62 0.61 0.6 0.65 0.71 0.73
2768.607 0.72 0.75 0.76 0.73 0.74 0.75 0.73 0.74 0.79 0.8
2787.901 0.8 0.81 0.81 0.86 0.92 0.934 0.913 0.945 1.02 1.039
2807.194 1.093 1.14 1.189 1.284 1.322 1.342 1.432 1.473 1.531 1.658
2826.488 1.7835 1.95987 2.1031 2.2159 2.3188 2.4786 2.7842 3.14 3.51 3.97
2845.781 4.54 5.3 6.13 7 7.84 8.61 9.21 9.58 9.72 9.6
2865.074 9.32 8.86 8.16 7.31 6.43 5.64 5.05 4.55 4.17 3.98
2884.368 3.78 3.63 3.64 3.68 3.64 3.72 3.81 3.94 4.07 4.17
2903.661 4.33 4.59 4.81 5.04 5.35 5.59 5.88 6.14 6.36 6.55
2922.955 6.76 7.03 7.16 7.19 7.4 7.57 7.74 8.03 8.28 8.68
2942.248 9.43 10.4 11.6 13.11 14.97 17.15 19.38 21.39 23.04 24.28
2961.542 25.11 25.3 24.86 24.01 22.69 21.02 18.94 16.75 14.8 13.1
2980.835 11.77 10.84 10.12 9.66 9.37 9.14 9 8.84 8.74 8.78
3000.128 8.8 8.89 9.07 9.19 9.26 9.26 9.19 9.05 8.9 8.76
3019.422 8.54 8.3 7.99 7.69 7.31 6.89 6.53 6.19 5.85 5.51
3038.715 5.2 4.89 4.66 4.42 4.3 4.32 4.15 3.92 3.86 3.92
3058.009 3.9 3.81 3.81 3.75 3.74 3.8 3.66 3.55 3.57 3.62
3077.302 3.57 3.39 3.31 3.37 3.17 2.97 2.95 2.91 2.8133 2.6811
3096.596 2.6685 2.5843 2.3907 2.2114 2.119 2.1127 1.97096 1.8223 1.742 1.67
3115.889 1.639 1.553 1.461 1.461 1.478 1.369 1.227 1.186 1.157 1.167
3135.182 1.125 0.943 0.87 0.884 0.901 0.87 0.88 0.84 0.74 0.74
3154.476 0.76 0.68 0.57 0.64 0.68 0.54 0.41 0.43 0.52 0.58
3173.769 0.55 0.48 0.42 0.43 0.39 0.31 0.35 0.4 0.38 0.35
3193.063 0.27 0.37 0.43 0.29 0.27 0.2 0.22 0.27 0.32 0.37
3212.356 0.26 0.29 0.28 0.25 0.32 0.3 0.27 0.23 0.29 0.32
3231.650 0.31 0.29 0.23 0.21 0.24 0.25 0.25 0.32 0.23 0.09
3250.943 0.09 0.08 0.11 0.05 0 0.07 0.21 0.3 0.23 0.2
3270.236 0.2 0.12 0.07 0.17 0.25 0.29 0.32 0.33 0.31 0.16
3289.530 0.07 0.13 0.22 0.22 0.18 0.25 0.27 0.32 0.37 0.33
3308.823 0.32 0.22 0.17 0.23 0.27 0.31 0.29 0.16 0.13 0.24
3328.117 0.38 0.43 0.32 0.21 0.2 0.23 0.24 0.28 0.34 0.22
3347.410 0.23 0.32 0.37 0.38 0.31 0.34 0.4 0.44 0.35 0.37
3366.704 0.45 0.45 0.42 0.29 0.3 0.38 0.3 0.25 0.27 0.33
3385.997 0.37 0.3 0.44 0.52 0.55 0.68 0.62 0.65 0.59 0.43
3405.290 0.5 0.63 0.59 0.59 0.69 0.68 0.72 0.82 0.85 0.85
3424.584 0.897 0.975 1.054 1.081 1.044 1.154 1.261 1.28 1.295 1.242
3443.877 1.307 1.342 1.288 1.272 1.286 1.232 1.177 1.154 0.995 0.85
3463.171 0.84 0.8 0.78 0.83 0.79 0.74 0.82 0.935 0.936 0.939
3482.464 0.85 0.81 0.81 0.76 0.75 0.66 0.67 0.69 0.55 0.54
3501.758 0.63 0.61 0.62 0.7 0.64 0.56 0.76 0.887 0.76 0.74
3521.051 0.7 0.63 0.59 0.72 0.8 0.66 0.62 0.53 0.53 0.65
3540.344 0.68 0.65 0.63 0.61 0.61 0.66 0.75 0.78 0.73 0.65
3559.638 0.62 0.7 0.66 0.62 0.73 0.82 0.76 0.71 0.77 0.84
3578.931 0.79 0.75 0.78 0.7 0.73 0.76 0.7 0.72 0.76 0.76
3598.225 0.75 0.79 0.65 0.63 0.82 0.75 0.74 0.78 0.72 0.73
3617.518 0.84 0.88 0.88 0.84 0.75 0.66 0.68 0.79 0.76 0.75
3636.812 0.76 0.71 0.77 0.86 0.895 0.894 0.79 0.81 0.887 0.84
3656.105 0.87 0.893 0.907 0.84 0.78 0.908 0.927 0.8 0.77 0.83
3675.398 0.83 0.77 0.72 0.75 0.82 0.919 1.044 0.975 0.86 0.884
3694.692 0.903 0.84 0.83 0.895 0.88 0.81 0.76 0.84 0.992 1.024
3713.985 0.975 0.92 0.87 0.83 0.77 0.76 0.8 0.74 0.77 0.86
3733.279 0.86 0.908 0.93 0.906 0.976 0.943 0.908 1.018 1.014 0.918
3752.572 0.85 0.82 0.898 1.01 1.089 1.051 0.881 0.86 0.888 0.87
3771.866 0.83 0.84 0.893 0.894 0.931 0.984 0.988 1.016 0.969 0.934
3791.159 0.984 0.892 0.897 0.932 0.952 1.022 0.998 0.994 0.964 0.926
3810.452 0.993 1.005 0.898 0.954 0.969 0.922 0.934 0.915 0.87 0.82
3829.746 0.82 0.903 1.023 0.998 0.956 0.972 0.941 0.955 0.996 0.943
3849.039 0.88 0.994 1.037 0.885 0.92 0.969 0.932 0.927 0.921 0.905
3868.333 0.914 0.944 0.913 0.881 0.923 0.981 1.015 1.044 1.004 0.95
3887.626 1.008 1.041 1.03 1.093 1.106 1.062 1.072 1.039 1.002 0.937
3906.920 0.955 1.071 1.067 1.014 0.992 0.992 1.03 1.08 1.045 0.981
3926.213 0.979 0.913 0.84 0.908 0.953 0.922 0.932 0.92 0.941 0.971
3945.506 1.001 1.105 1.103 1.018 1.001 1.001 1.022 1.065 1.07 1.007
3964.800 0.98 1.061 1.126 1.112 1.053 1.076 1.101 1.085 1.07 1.02
3984.093 1.006 0.955 0.997 1.17 1.188 1.136 1.173 1.238 1.219
##END=
