##TITLE=4-(tert-Butyl)benzonitrile
##JCAMP-DX=4.24
##DATA TYPE=INFRARED SPECTRUM
##ORIGIN=EPA-IR VAPOR PHASE LIBRARY
##OWNER=SRD/NIST
Collection (C) 2018 copyright by the U.S. Secretary of Commerce
on behalf of the United States of America. All rights reserved.
##CAS REGISTRY NO=4210-32-6
##MOLFORM=C 11 H 13 N
##$NIST SOURCE=MSDC-IR
##STATE=gas
##XUNITS=1/CM
##YUNITS=ABSORBANCE
##XFACTOR=1.
##YFACTOR=0.001
##DELTAX=1.92898
##FIRSTX=549.8
##LASTX=4000.7
##FIRSTY=10.657
##MAXX=4000.7
##MINX=549.759
##MAXY=0.151367
##MINY=0
##NPOINTS=1790
##XYDATA=(X++(Y..Y))
549.759 10.657 12.857 14.197 16.207 19.117 20.877 22.147 24.067 26.217 26.667
569.049 24.517 22.467 20.717 18.867 16.837 15.127 12.857 10.247 8.587 7.467
588.339 6.007 4.187 3.277 3.087 2.477 1.3184 0.4831 1.0422 1.1848 0.405
607.628 0.815 1.5125 1.4184 0.7051 0.9136 1.737 1.807 1.607 1.567 1.3298
626.918 0.8663 0.87 1.2569 1.5193 1.3373 1.0041 0.8812 1.2043 1.627 2.007
646.208 2.017 1.001 0.9286 1.2283 0.8308 1.053 1.577 1.887 1.917 1.947
665.498 2.147 2.157 2.247 2.207 2.207 2.297 2.357 2.367 1.807 1.627
684.787 1.817 1.697 1.3991 1.1723 1.4544 1.5125 1.0284 0.7293 0.8049 1.0561
704.077 1.0199 1.0279 0.9561 1.0752 0.9786 0.546698 0.6486 0.9001 1.1335 0.907
723.367 1.3181 1.767 1.567 1.977 2.067 2.107 2.627 2.437 2.397 2.597
742.657 2.537 2.917 3.167 2.537 1.807 1.677 1.987 2.347 2.007 1.777
761.947 2.197 2.517 2.817 3.207 3.417 3.107 2.867 3.007 3.067 2.747
781.236 2.277 1.947 1.807 2.207 2.777 2.817 2.757 3.197 3.277 3.697
800.526 4.377 4.577 5.467 6.177 6.777 7.387 8.087 9.777 11.147 13.157
819.816 15.387 18.117 21.187 23.307 27.267 31.387 34.597 38.117 40.997 40.977
839.106 37.757 34.497 31.567 28.187 24.927 21.147 17.407 14.777 11.957 9.267
858.395 7.507 5.927 4.507 3.647 3.277 2.617 2.477 2.517 1.847 1.637
877.685 1.1826 1.0221 1.647 1.5214 1.2846 1.607 1.587 1.382 1.4167 1.3939
896.975 1.4155 1.4165 1.4481 1.717 1.837 2.117 1.937 1.907 2.017 2.067
916.265 2.657 2.417 2.167 2.747 2.917 2.867 2.507 2.247 2.247 1.817
935.555 1.707 1.797 1.817 1.797 1.797 1.817 1.567 1.2178 0.8869 0.8008
954.844 0.8535 1.1268 1.2223 1.2393 1.2552 1.2628 1.4139 1.2442 1.1001 1.2539
974.134 1.23 0.8465 0.63212 0.6839 0.6394 0.61094 1.1074 1.797 1.917 1.857
993.424 2.037 1.867 1.847 2.197 2.837 3.617 4.237 5.337 6.607 8.137
1012.714 9.457 10.577 11.247 11.057 10.847 10.557 9.657 7.897 6.257 4.227
1032.003 3.347 2.947 2.467 2.307 2.047 1.957 1.817 2.077 2.307 2.577
1051.293 3.037 3.187 2.187 1.5147 1.1967 0.733 1.1625 1.3731 1.4956 1.647
1070.583 1.657 1.0017 0.4783 0.7892 0.9128 1.3924 1.617 1.967 2.577 3.397
1089.873 4.517 5.787 7.877 11.437 14.377 14.687 15.967 17.517 16.947 16.197
1109.163 14.977 13.057 9.437 6.677 6.007 4.927 4.977 4.467 3.267 2.917
1128.452 3.657 4.747 4.187 2.917 2.987 4.197 3.267 1.957 1.647 2.377
1147.742 2.847 2.417 2.727 3.047 2.877 1.877 1.957 2.757 2.727 2.157
1167.032 1.677 1.707 2.387 2.657 2.347 2.567 2.837 2.737 2.577 2.777
1186.322 3.697 4.617 4.737 5.697 6.767 6.577 7.637 7.337 6.137 6.367
1205.611 5.677 4.917 4.197 3.947 3.677 4.057 4.807 4.837 4.837 4.687
1224.901 4.137 3.577 4.967 5.017 4.047 4.627 4.717 5.087 5.767 6.027
1244.191 5.737 6.017 7.227 8.197 9.357 10.997 12.767 15.057 17.537 19.237
1263.481 19.937 20.037 20.057 19.357 17.547 15.017 12.907 10.727 8.397 6.937
1282.771 5.637 4.637 4.337 3.697 2.887 2.607 2.287 1.887 1.797 1.887
1302.060 1.877 1.737 1.687 1.787 1.797 1.727 1.737 1.697 1.657 1.577
1321.350 1.5045 1.687 1.847 1.847 1.887 1.827 1.727 1.877 2.067 2.377
1340.640 2.777 2.967 3.257 3.907 4.647 5.397 6.377 7.637 9.137 10.587
1359.930 12.087 13.887 15.517 16.947 18.247 19.147 19.567 19.607 19.287 18.617
1379.219 17.667 16.777 16.067 15.197 14.677 14.507 14.497 14.867 15.247 15.497
1398.509 15.607 15.227 14.527 13.727 12.647 11.457 10.327 9.187 8.197 7.387
1417.799 6.787 6.367 5.847 5.257 4.787 4.497 4.167 4.117 4.187 4.127
1437.089 4.197 4.437 5.057 5.547 5.897 6.517 7.227 8.087 8.947 9.917
1456.378 11.057 12.077 12.967 13.817 14.717 15.567 16.147 16.487 16.677 16.957
1475.668 17.277 17.437 17.637 17.607 17.457 17.567 17.837 18.557 20.027 21.907
1494.958 24.367 27.297 29.897 31.437 31.427 30.367 28.847 26.587 23.487 19.917
1514.248 16.517 14.097 12.367 10.897 9.727 8.727 7.717 6.617 5.527 4.547
1533.538 3.617 3.127 3.067 3.007 2.687 2.437 2.307 2.227 2.477 2.357
1552.827 2.077 1.957 1.707 1.897 2.007 1.747 1.647 1.717 1.687 1.5344
1572.117 1.4581 1.597 1.697 1.697 1.927 2.007 2.167 2.717 3.437 4.327
1591.407 4.877 5.907 7.707 9.377 10.977 12.757 14.477 15.797 16.737 16.947
1610.697 16.357 15.217 13.857 11.847 9.747 7.747 5.877 4.557 3.747 3.207
1629.986 2.667 2.467 2.477 2.537 2.297 2.067 2.217 2.417 2.677 2.867
1649.276 2.827 2.967 3.077 3.187 3.367 3.467 3.497 3.507 3.457 3.427
1668.566 3.527 3.397 3.267 3.117 2.877 2.747 2.457 1.987 1.697 1.5243
1687.856 1.476 1.4228 1.3204 1.2154 1.1472 1.1706 0.9364 1.0433 1.1792 1.0568
1707.146 1.2417 1.2642 1.1601 1.1955 1.2335 1.1403 1.128 1.0535 1.0338 1.2616
1726.435 1.0951 1.0493 1.3484 1.4158 1.3637 1.2349 1.0927 1.0853 1.2499 1.2119
1745.725 1.0416 1.0791 1.1932 1.2209 1.2293 1.2616 1.2813 1.4275 1.4482 1.3891
1765.015 1.537 1.697 1.757 1.987 2.317 2.557 2.797 3.147 3.457 3.557
1784.305 3.607 3.597 3.427 3.207 3.157 2.917 2.517 2.257 1.907 1.647
1803.594 1.577 1.4481 1.3739 1.2136 1.1894 1.3948 1.3795 1.2328 1.167 1.1802
1822.884 1.1384 1.0437 1.0635 1.0576 1.0514 1.0734 1.0192 1.0284 1.037 0.8361
1842.174 0.7804 0.8862 0.9045 1.0114 1.053 1.0641 1.1015 0.9909 1.0476 0.9426
1861.464 0.9272 0.9417 0.8491 1.0241 1.1429 1.1744 1.2319 1.3569 1.3994 1.3909
1880.754 1.4042 1.567 1.697 1.657 1.797 2.137 2.287 2.407 2.617 2.707
1900.043 2.897 3.127 3.117 3.177 3.257 3.307 3.497 3.587 3.457 3.197
1919.333 3.167 3.207 2.997 2.747 2.527 2.157 1.717 1.4827 1.3545 1.3845
1938.623 1.3195 1.2441 1.2409 1.131 1.1333 1.2862 1.1927 1.1248 1.1289 1.0256
1957.913 0.9168 0.6943 0.7361 0.8286 0.7222 0.7819 0.7965 0.7547 0.755 0.7736
1977.202 0.7129 0.6661 0.7139 0.8043 0.8216 0.8039 0.8746 0.8756 0.7061 0.661
1996.492 0.8385 0.7455 0.5217 0.57141 0.7697 0.7052 0.52913 0.511 0.7742 1.0281
2015.782 1.0378 0.9804 0.8627 0.8307 0.8038 0.8005 0.9608 0.9249 0.7354 0.8494
2035.072 0.9637 0.8868 0.8873 0.8818 0.9415 1.0264 1.0086 0.8099 0.6478 0.7323
2054.362 0.7999 0.8804 0.9599 1.0074 0.8922 0.7169 0.659 0.6708 0.6716 0.7822
2073.651 0.8593 0.7965 0.7533 0.7449 0.8185 0.8125 0.7116 0.7418 0.9273 0.9575
2092.941 0.7782 0.6942 0.8053 0.7757 0.687 0.5163 0.393 0.415 0.59347 0.7323
2112.231 0.7787 0.7744 0.7416 0.7927 0.8043 0.7388 0.6511 0.62829 0.56871 0.4668
2131.521 0.408 0.383 0.4975 0.61934 0.6734 0.7197 0.7033 0.7408 0.7162 0.7168
2150.810 0.8267 0.8048 0.8228 0.8843 0.8154 0.7602 0.7321 0.7731 0.8938 0.8826
2170.100 0.9459 0.9406 0.7586 0.8816 0.9747 1.0079 1.125 1.1439 1.2439 1.3355
2189.390 1.2506 1.0773 1.0521 1.1375 1.1602 1.1915 1.4343 1.567 1.547 1.647
2208.680 1.957 2.457 3.217 4.077 4.977 6.637 8.687 10.747 13.307 16.037
2227.970 18.437 20.347 21.297 21.167 19.997 17.957 15.227 11.877 8.447 5.437
2247.259 3.327 2.187 1.557 1.3516 1.2757 1.2976 1.2785 1.1713 1.1744 1.2174
2266.549 1.2881 1.1434 0.9929 1.1669 1.1908 0.9253 0.8236 0.9287 0.9927 0.9876
2285.839 1.1843 1.3429 1.4331 1.4365 1.3127 1.226 1.0543 0.9409 0.9957 1.1564
2305.129 1.2218 1.1488 1.1417 1.1509 1.1671 1.1076 1.0521 0.9905 0.9817 1.1834
2324.418 1.1417 0.8785 0.8512 0.7007 0.5243 0.7535 1.0827 1.0199 0.9369 1.1802
2343.708 1.2165 0.9624 0.8163 1.0906 1.2123 1.1271 1.1301 1.1315 1.2058 1.4414
2362.998 1.5021 1.3695 1.3349 1.2634 1.4188 1.4519 1.3554 1.3936 1.3313 1.1824
2382.288 1.0379 1.1909 1.3991 1.3371 1.2328 1.2109 1.2286 1.0699 1.0175 1.0321
2401.578 1.0988 1.315 1.2298 1.2322 1.2495 1.29 1.5 1.3819 1.2872 1.3772
2420.867 1.2375 1.1653 1.1689 1.0411 0.9543 1.0275 1.3679 1.446 1.1537 0.9877
2440.157 0.9565 0.8322 0.7961 0.9505 0.855 0.8392 1.0278 1.068 0.9753 0.8257
2459.447 0.6879 0.7857 1.095 1.2303 1.0968 0.8024 0.8284 1.1282 1.2937 1.2995
2478.737 1.0034 0.7412 0.9154 0.981 0.6513 0.55348 0.6553 0.8303 1.0072 0.9278
2498.026 1.0228 1.2504 1.0126 0.7673 0.946 0.9491 0.9249 1.222 1.1872 0.9986
2517.316 1.0994 1.1481 1.2779 1.2398 0.974 0.8347 0.8418 0.9667 1.0222 1.038
2536.606 1.1116 1.2408 1.4226 1.4653 1.342 1.3581 1.587 1.667 1.687 1.577
2555.896 1.523 1.627 1.3151 1.1976 1.2268 1.2684 1.547 1.567 1.3465 1.2306
2575.186 1.0962 1.0902 1.2469 1.1477 1.1264 1.1808 1.1489 1.0674 1.0341 0.8211
2594.475 0.7679 1.0829 1.1057 1.0328 1.0053 0.9405 0.9875 1.0726 1.0837 1.1116
2613.765 1.2175 1.0532 0.8003 0.8695 1.1376 1.267 1.1348 1.1802 1.2876 1.3015
2633.055 1.2517 1.2382 1.0381 0.7867 0.8366 0.6376 0.56307 0.9556 1.1954 1.0241
2652.345 1.0544 1.1309 1.0524 1.1421 1.0297 0.9457 1.0138 1.0183 1.3367 1.4498
2671.634 1.0759 1.1105 1.3182 1.2028 0.9572 1.0004 1.0886 1.2018 1.2779 1.1093
2690.924 1.2639 1.2649 0.9026 0.8793 1.0909 1.0377 1.0625 1.424 1.667 1.647
2710.214 1.567 1.567 1.4877 1.637 2.047 1.917 1.737 1.677 1.5054 1.687
2729.504 1.697 1.787 2.217 2.147 1.967 1.887 1.857 1.927 1.777 1.647
2748.794 1.837 1.807 1.657 1.657 1.637 1.707 1.537 1.687 1.837 1.857
2768.083 2.017 2.067 1.807 1.727 1.987 2.007 2.167 2.167 1.927 2.027
2787.373 2.367 2.457 2.317 2.257 2.217 2.247 2.397 2.337 2.197 2.627
2806.663 3.077 2.757 2.497 2.517 2.567 2.787 2.867 2.807 2.827 2.857
2825.953 3.037 3.297 3.227 3.107 3.507 3.657 3.647 3.877 4.287 4.647
2845.242 4.747 5.047 5.497 6.007 6.717 7.357 8.157 9.347 10.327 11.467
2864.532 13.107 15.027 16.887 18.767 20.567 22.297 23.807 24.737 25.817 26.587
2883.822 26.737 26.747 26.777 26.677 26.367 26.247 26.017 25.777 25.567 25.287
2903.112 26.107 27.397 28.667 30.587 31.947 33.027 33.887 34.327 34.707 34.517
2922.401 33.497 32.667 32.167 31.767 31.297 31.187 31.597 32.317 33.027 34.157
2941.691 35.687 37.307 40.017 42.967 46.947 52.607 59.247 66.747 75.427 85.387
2960.981 96.467 109.717 123.817 136.947 147.017 151.367 150.767 145.547 135.917 121.937
2980.271 104.697 86.597 69.707 55.927 45.297 37.257 30.817 25.597 21.557 17.847
2999.561 15.277 13.207 11.097 9.837 8.837 7.917 6.817 6.467 6.277 5.477
3018.850 4.977 4.737 4.547 4.397 4.937 5.647 5.827 5.857 5.967 6.167
3038.140 6.847 7.897 8.257 8.897 9.427 9.357 9.237 8.867 8.507 7.837
3057.430 7.187 6.627 6.177 5.837 5.627 5.677 5.747 5.717 5.947 6.217
3076.720 6.537 6.667 6.927 7.457 7.857 8.277 8.467 8.547 8.737 9.127
3096.009 9.377 9.217 8.757 8.347 8.287 8.217 7.557 7.007 6.447 5.887
3115.299 5.617 4.837 4.427 4.697 4.417 4.057 4.017 3.517 3.187 3.427
3134.589 3.567 3.047 2.507 2.357 2.327 2.277 2.047 1.827 1.997 2.257
3153.879 2.167 1.937 1.747 1.857 1.807 1.647 1.567 1.737 2.037 1.907
3173.169 1.717 1.3897 1.2981 1.4872 1.5279 1.4775 1.917 2.287 2.087 2.077
3192.458 2.107 2.087 2.127 2.117 2.017 2.097 2.097 2.217 2.227 2.027
3211.748 2.017 1.827 1.627 2.137 2.407 2.067 1.817 1.837 1.877 1.617
3231.038 1.547 1.837 2.047 2.127 1.897 1.787 1.947 1.777 1.777 2.317
3250.328 2.277 1.522 1.2138 1.2605 1.577 1.827 1.687 1.2869 1.4595 1.727
3269.617 1.717 1.817 1.677 1.3108 1.1916 1.2486 0.986 1.2098 1.2497 1.262
3288.907 1.4253 1.2224 1.3046 1.787 1.707 1.1817 1.2471 1.647 1.987 1.5092
3308.197 0.8803 0.9851 1.1412 1.009 0.808 0.962 1.587 1.577 1.2914 0.8086
3327.487 0.7383 1.1992 1.0121 0.792 0.6622 0.653 0.8083 0.9668 1.1671 0.925
3346.777 0.6644 1.0659 1.4351 1.2937 1.3524 1.4466 1.0209 0.7692 0.8844 1.2767
3366.066 1.3114 1.4139 1.4201 1.0884 1.1148 0.882 0.164 0.4568 1.3123 1.3844
3385.356 1.1066 1.1615 1.1504 1.0527 1.4979 1.637 1.2211 1.1871 1.1098 1.0782
3404.646 1.4388 1.707 2.047 2.097 1.4554 1.1386 1.4804 1.607 1.897 1.747
3423.936 1.3023 1.4275 1.777 1.797 1.1702 1.1272 1.4847 1.4846 1.1738 1.0115
3443.225 1.3678 1.837 1.547 1.0562 1.0757 1.0109 0.8637 0.60479 0.8072 1.2847
3462.515 1.0362 0.394 0.307 0.5894 0.545522 0.8823 1.0637 0.63174 0.6084 0.6482
3481.805 0.7043 0.8031 0.63389 0.326 0.167 0.339 0.297 0.229 0.351 0.6697
3501.095 0.9537 0.537841 0.417 0.9809 0.9619 1.14 1.174 0.4778 0.4445 0.7453
3520.385 1.1897 1.3196 0.9739 1.0714 1.1954 1.0389 0.9346 0.8306 0.723 0.444
3539.674 0.088 0.374 0.6813 0.307 0.4685 0.9082 0.8306 0.7782 0.6603 0.9795
3558.964 1.0463 0.6477 0.7357 0.9378 0.8089 0.58449 0.126 0.114 0.9704 1.0556
3578.254 0.8326 0.59711 0.412 0.61432 0.7996 0.57948 0.58941 0.9179 0.59831 0.244
3597.544 0.22 0.52923 0.6482 0.7316 0.5181 0.366 0.7525 0.62482 0.4971 0.537706
3616.833 0.7895 0.9434 0.4465 0.7017 0.6477 0.005 0.228 0.152 0.6958 1.2263
3636.123 1.172 1.078 1.0876 1.2135 0.9624 0.9413 0.6943 0.52861 0.5054 1.0433
3655.413 1.5169 1.2372 1.1958 0.8125 0.277 0.4591 0.9567 0.9959 0.8888 1.0255
3674.703 1.0149 0.8063 0.8792 0.543152 0.423 0.8642 0.7117 0.7945 1.4921 1.529
3693.993 0.9095 1.1768 1.3792 0.9718 0.6354 0.4971 0.7628 0.6575 0.6834 0.9093
3713.282 0.7697 0.9417 1.2785 0.8883 0.54955 0.717 0.894 1.1141 1.1292 1.1744
3732.572 1.1884 1.1971 1.0089 0.7841 0.7191 0.392 0.264 0.8837 0.8681 0.222
3751.862 0.283 0.7711 0.486 0.375 0.63541 0.58652 0.2 0 0.5038 0.57409
3771.152 0.4429 0.737 0.8656 0.55679 0.9536 0.9348 0.9172 1.0587 0.58939 0.545921
3790.441 0.5252 0.23 0.60064 0.8188 0.458 0.4956 0.697 1.2024 1.0852 0.366
3809.731 0.55524 1.3168 1.4687 1.637 1.977 1.4454 1.0547 1.0292 1.1137 1.296
3829.021 0.9449 0.6831 1.0628 1.0835 0.6823 0.6901 0.8968 1.0387 1.4277 1.3377
3848.311 0.836 0.7866 1.0121 1.0482 1.0946 1.1319 1.3545 1.2409 1.026 1.3127
3867.601 1.2442 0.6488 0.9609 0.8847 0.123 0.887 1.577 1.687 1.587 1.0738
3886.890 0.4469 0.154 0.7489 1.2448 1.4437 1.657 1.637 1.867 1.707 1.4983
3906.180 1.677 1.2901 1.1285 1.2856 1.2173 1.1029 0.7237 0.7034 0.7325 0.9111
3925.470 1.3556 1.3008 0.9232 0.6549 0.7833 1.1328 1.2728 1.1697 1.0459 1.3444
3944.760 1.557 1.3077 1.1183 0.9981 1.0547 0.9359 0.9328 1.159 1.088 1.1735
3964.049 1.0167 0.9774 1.3981 1.3327 1.1474 1.2548 1.587 1.817 1.4603 1.0513
3983.339 0.8657 0.9345 1.1202 1.1551 1.2166 1.5092 1.389 1.163 1.4699 1.5087
##END=
