##TITLE=2-Nitrothiophene-4-carbonitrile
##JCAMP-DX=4.24
##DATA TYPE=INFRARED SPECTRUM
##ORIGIN=EPA-IR VAPOR PHASE LIBRARY
##OWNER=SRD/NIST
Collection (C) 2018 copyright by the U.S. Secretary of Commerce
on behalf of the United States of America. All rights reserved.
##CAS REGISTRY NO=42137-24-6
##MOLFORM=C 5 H 2 N 2 O 2 S
##$NIST SOURCE=MSDC-IR
##STATE=gas
##XUNITS=1/CM
##YUNITS=ABSORBANCE
##XFACTOR=1.
##YFACTOR=0.001
##DELTAX=1.92898
##FIRSTX=549.8
##LASTX=4000.7
##FIRSTY=1.6724
##MAXX=4000.7
##MINX=549.759
##MAXY=0.093026
##MINY=0
##NPOINTS=1790
##XYDATA=(X++(Y..Y))
549.759 1.6724 1.6418 1.3024 1.7463 1.976 1.417 0.8929 0.625 1.1929 1.0367
569.049 0.91081 1.0837 0.372 0.435 1.5095 2.686 2.186 2.046 2.476 1.986
588.339 1.8416 1.8951 2.526 2.836 2.596 2.996 3.956 4.746 5.696 6.976
607.628 7.656 8.546 9.516 9.476 9.966 11.456 11.516 10.676 9.076 7.526
626.918 7.076 6.416 5.846 5.166 4.406 3.426 2.856 2.336 2.086 2.306
646.208 2.106 2.536 2.596 2.266 2.086 1.926 2.156 2.366 2.456 2.226
665.498 2.286 2.116 1.3547 1.1274 1.356 1.8939 2.096 1.926 1.926 1.4406
684.787 1.0879 1.3339 1.3845 1.3104 1.4958 2.026 2.146 2.296 3.006 3.996
704.077 5.386 7.136 8.326 8.396 8.826 9.466 9.926 10.556 10.396 9.806
723.367 9.176 7.806 6.186 5.496 5.436 5.506 4.976 3.656 2.926 3.216
742.657 2.896 2.216 2.296 2.396 2.446 2.426 2.496 2.366 2.316 2.526
761.947 2.776 2.976 2.986 3.836 4.916 6.026 7.626 9.196 10.736 12.276
781.236 13.496 14.856 17.496 21.126 25.186 26.086 21.276 17.746 17.996 19.216
800.526 21.876 26.086 30.486 33.366 32.386 30.286 28.666 26.676 27.566 27.436
819.816 22.386 15.106 9.326 6.286 4.566 3.726 3.266 2.916 3.046 3.136
839.106 2.936 3.026 3.576 4.286 4.766 5.456 6.676 7.836 9.046 10.596
858.395 12.866 14.816 16.066 17.196 17.586 17.826 18.486 18.616 17.256 15.266
877.685 13.436 11.586 9.696 7.726 6.006 5.186 4.326 3.336 2.816 1.8548
896.975 1.4149 1.831 1.7783 1.1312 1.1412 1.3198 1.0247 1.0984 1.6686 2.056
916.265 1.8471 1.8035 1.8025 1.5128 1.2065 1.2384 1.5943 1.8788 1.6346 1.399
935.555 1.7205 1.8039 1.996 2.016 1.5618 1.3313 1.4087 1.5905 1.5642 1.168
954.844 0.75 0.702 0.92834 0.96536 1.00301 0.8768 1.0989 1.6184 1.6499 1.4299
974.134 0.97915 1.3071 1.3304 1.1846 1.6123 1.8525 1.5416 1.4272 1.3644 1.1945
993.424 0.92913 0.513 1.1568 1.4293 1.1818 1.057 1.1141 1.7629 1.7812 1.621
1012.714 1.8452 1.6514 1.6118 1.6297 1.5067 1.5405 1.6359 1.8378 1.956 1.936
1032.003 1.6895 1.5551 2.006 2.216 2.856 3.426 3.756 3.916 4.756 6.846
1051.293 8.546 10.416 11.656 12.196 12.326 12.146 12.136 12.586 12.946 11.656
1070.583 10.026 9.146 8.426 8.686 8.216 6.686 6.236 5.506 4.336 4.016
1089.873 4.136 3.926 3.716 3.036 1.6871 1.7278 2.516 1.2543 1.1244 2.946
1109.163 2.556 2.196 3.396 3.296 2.836 1.7834 1.3894 1.2658 0.775 1.0779
1128.452 1.2699 0.798 0.9029 2.736 2.696 1.6217 1.3285 2.176 3.006 2.056
1147.742 0.765 2.036 3.246 2.476 2.676 2.446 2.596 2.766 2.456 2.846
1167.032 2.636 3.036 4.376 4.636 4.176 4.006 4.406 4.736 4.996 6.006
1186.322 7.136 9.256 11.606 12.926 13.666 12.486 12.296 13.226 13.236 12.836
1205.611 11.916 10.376 9.016 7.026 5.026 3.546 2.786 4.146 4.496 4.346
1224.901 3.556 2.106 2.546 2.316 2.596 3.566 3.546 3.256 2.956 2.956
1244.191 3.246 3.736 3.656 3.216 2.916 3.636 3.986 3.366 3.426 3.436
1263.481 3.396 3.596 3.776 3.616 2.906 2.906 3.146 3.116 3.046 3.586
1282.771 3.876 4.166 4.356 4.166 4.936 5.676 6.166 6.986 7.776 8.496
1302.060 9.216 9.936 10.756 11.526 12.596 13.896 15.336 17.236 19.956 23.416
1321.350 27.796 33.306 39.876 47.296 55.266 63.706 72.066 79.506 85.936 90.666
1340.640 93.026 92.986 90.596 86.106 79.736 72.496 64.856 56.976 49.816 44.226
1359.930 39.846 36.196 33.286 31.016 29.336 27.416 24.206 20.076 15.866 11.836
1379.219 8.796 7.306 6.416 5.646 5.076 4.826 4.636 4.676 5.066 5.516
1398.509 6.126 6.736 7.446 8.216 8.926 9.856 11.096 12.506 13.866 15.216
1417.799 16.446 17.426 18.346 19.216 19.656 19.596 19.276 18.636 17.526 16.406
1437.089 15.216 13.936 12.616 11.396 10.436 9.706 9.046 8.326 7.686 7.306
1456.378 6.896 6.436 6.036 5.646 5.486 5.416 5.096 4.866 4.746 4.856
1475.668 5.116 5.146 5.176 5.336 5.576 5.966 6.196 6.446 7.156 7.916
1494.958 8.436 9.316 10.546 11.686 12.986 14.576 16.486 18.706 21.326 24.076
1514.248 26.776 29.446 32.356 35.276 38.306 40.956 42.986 44.596 46.256 48.306
1533.538 50.636 53.096 55.026 56.176 57.156 58.406 59.726 60.946 62.316 64.356
1552.827 66.496 68.106 68.756 68.506 66.996 64.536 61.606 58.696 55.596 51.566
1572.117 46.346 40.466 34.456 28.696 23.836 19.946 17.066 14.656 12.486 10.576
1591.407 8.906 7.636 6.886 6.526 6.316 5.966 5.686 5.536 5.166 5.106
1610.697 5.246 5.296 5.356 5.296 5.006 4.836 4.916 4.836 4.496 4.186
1629.986 4.126 3.906 3.416 3.236 3.256 3.196 3.216 3.056 2.596 2.256
1649.276 2.176 2.256 2.296 2.026 1.976 2.166 2.056 1.6995 1.5687 1.631
1668.566 1.8043 1.8972 1.8978 1.8311 1.7149 1.7426 1.7284 1.6991 1.5795 1.5651
1687.856 1.7739 1.8152 1.6585 1.6161 1.6852 1.8687 2.046 1.8741 1.757 1.976
1707.146 2.146 2.146 2.106 2.106 2.106 2.146 2.346 2.566 2.666 2.656
1726.435 2.776 2.886 2.766 2.756 2.806 2.816 2.816 2.626 2.466 2.516
1745.725 2.316 2.126 2.036 1.7654 1.6557 1.7376 1.592 1.5493 1.5582 1.458
1765.015 1.6244 1.5926 1.4925 1.6737 1.6892 1.5282 1.4875 1.5661 1.6016 1.4737
1784.305 1.4184 1.4658 1.3865 1.3699 1.4942 1.5648 1.5342 1.5213 1.5969 1.4444
1803.594 1.2484 1.31 1.234 1.0918 1.1589 1.1985 1.0989 1.0574 1.0858 1.1111
1822.884 1.0887 1.026 1.1399 1.1714 1.137 1.1557 1.0344 0.93703 1.0427 1.1724
1842.174 1.1714 1.0722 1.0268 0.9918 1.0573 1.1901 1.01122 0.98436 1.1377 1.1503
1861.464 1.0402 1.01127 1.1743 1.1359 1.0853 1.1195 1.1617 1.2364 1.1315 1.1376
1880.754 1.2595 1.1694 1.022 1.1508 1.2479 1.2577 1.2522 1.1825 1.1392 1.1169
1900.043 1.0521 1.01599 1.1856 1.1819 1.1003 1.1413 1.2794 1.2731 1.2525 1.2785
1919.333 1.0719 1.01382 1.0827 1.0731 1.1703 1.2408 1.1736 1.1777 1.062 0.9747
1938.623 1.01437 1.0688 1.1186 1.1028 1.00898 0.8591 0.95614 0.96646 0.925968 1.00994
1957.913 0.917733 0.758 0.769 0.761 0.747 0.8318 0.9388 0.99553 0.9815 0.9921
1977.202 0.917429 0.8326 0.8585 0.98848 1.0233 1.00396 0.8907 0.74 0.797 0.9027
1996.492 0.8 0.8411 0.96968 0.807 0.809 1.00461 1.0905 1.0772 1.018 1.0601
2015.782 1.1164 1.00896 0.8574 0.8891 0.97094 1.0421 1.2077 1.0823 0.96354 0.96937
2035.072 0.99948 1.1331 0.93462 0.794 1.00815 1.1071 1.01281 1.0188 1.0735 0.8982
2054.362 0.8287 0.8648 0.96328 1.1606 1.141 1.0902 0.9929 1.031 1.1358 1.0277
2073.651 0.9505 0.95041 0.8905 0.97511 1.1422 1.0225 1.0425 1.1722 0.98083 0.8586
2092.941 0.81 0.773 0.8304 0.856 1.1294 1.2033 1.0356 1.0441 1.1243 1.0614
2112.231 1.1049 1.1676 0.93161 0.873 1.01052 1.1072 0.97908 0.8945 1.1018 1.0826
2131.521 0.9676 0.98487 1.0132 1.1187 0.95246 0.639 0.727 0.8629 0.97633 0.917877
2150.810 0.795 0.9204 0.8888 0.8965 1.0568 0.98138 0.8241 0.787 0.811 0.8252
2170.100 0.72 0.782 0.769 0.8515 1.089 1.0628 0.98041 0.98488 0.91175 0.8897
2189.390 0.9053 0.95911 1.00417 0.8467 0.763 0.8897 1.0394 0.91106 0.813 0.97708
2208.680 1.0874 1.0716 1.1875 1.2706 1.2199 1.4108 1.4752 1.4957 1.8932 2.316
2227.970 2.726 3.146 3.396 3.806 4.236 4.496 4.526 4.316 4.276 4.146
2247.259 3.896 3.426 2.966 2.526 2.106 1.8122 1.5589 1.4951 1.259 1.1191
2266.549 1.2798 1.292 1.1607 1.119 1.00957 0.9611 0.99305 1.1368 1.2615 1.1233
2285.839 1.1356 1.2091 1.4362 1.3948 1.01499 1.0679 1.1991 1.2116 1.1579 1.0793
2305.129 1.0423 1.1472 1.2937 1.2934 1.1505 1.0561 1.2997 1.2969 1.1111 1.0452
2324.418 1.0753 1.1587 1.1322 1.0771 1.1318 1.3023 1.4705 1.4081 1.26 1.1808
2343.708 1.3252 1.4793 1.3867 1.3069 1.096 1.0974 1.1672 1.1659 1.1312 1.01384
2362.998 1.1118 1.2323 1.1897 1.0599 1.143 1.3503 1.3229 1.00915 1.0207 1.2075
2382.288 1.2268 1.2188 1.1092 1.2608 1.3164 1.2766 1.4254 1.4911 1.3164 1.1278
2401.578 1.3586 1.4431 1.3473 1.5736 1.6059 1.2992 1.2551 1.2048 1.1303 1.1665
2420.867 1.0273 0.8238 0.8169 1.0181 1.00396 0.94285 0.8991 0.9003 0.8921 0.8966
2440.157 0.97069 0.98884 0.8614 0.807 0.9058 0.9034 1.0504 1.0444 0.765 0.592
2459.447 0.749 0.9946 1.0984 1.1162 1.0863 1.2399 1.2406 0.97506 0.97425 1.0754
2478.737 0.95959 1.01392 1.1831 1.1316 1.0947 1.00682 0.8171 0.93114 1.0222 1.0217
2498.026 1.0635 1.125 1.1845 1.1463 1.1817 1.1414 1.072 1.0355 0.727 0.631
2517.316 0.9042 0.9775 0.9044 0.705 0.612 0.69 0.724 0.90697 1.1204 0.8292
2536.606 0.541 0.569 0.576 0.759 0.8414 0.91247 1.1323 1.1331 0.93462 0.8679
2555.896 0.879 0.894 1.0345 1.1362 1.1592 1.1591 1.0636 0.8897 0.8467 0.8497
2575.186 0.99296 1.00615 0.8829 1.0581 1.1022 0.8893 0.802 1.0971 1.3169 1.1511
2594.475 1.1962 1.2922 1.2709 1.2051 1.0603 1.1434 1.0442 1.0439 0.98703 0.794
2613.765 1.1346 1.3435 1.1809 1.0962 0.8274 0.8959 1.3231 1.3348 1.2156 1.0255
2633.055 0.8755 0.802 0.91032 1.1436 1.2147 1.3053 1.181 0.96489 0.94333 1.00133
2652.345 0.99288 1.1345 1.2957 1.395 1.3746 1.0795 0.95611 1.0951 1.4155 1.6773
2671.634 1.6055 1.3825 1.3684 1.395 1.2689 1.3118 1.4101 1.6928 1.7773 1.7511
2690.924 1.936 1.996 1.77 1.7116 1.7199 1.4876 1.3138 1.434 1.6589 1.6372
2710.214 1.6644 1.5321 1.5116 1.5222 1.3423 1.3384 1.3871 1.3942 1.4584 1.5302
2729.504 1.7226 1.6228 1.4292 1.481 1.4588 1.4243 1.3997 1.6252 1.4975 1.1438
2748.794 1.1222 1.2777 1.3714 1.2335 1.3522 1.3936 1.2905 1.1142 1.3016 1.4702
2768.083 1.2123 1.0505 1.2453 1.5923 1.3327 1.141 1.3817 1.3642 1.2016 1.1041
2787.373 1.0536 1.0525 0.98244 0.804 0.8609 0.8625 0.903 1.2946 1.2625 1.0702
2806.663 1.1713 1.1662 1.1441 1.1359 0.8882 0.8369 0.97442 1.0399 1.0358 1.1369
2825.953 1.4509 1.2442 1.1124 1.2927 1.4438 1.4246 1.4493 1.6936 1.5445 1.4496
2845.242 1.3977 1.376 1.5523 1.503 1.5604 1.8347 1.5544 1.7449 2.026 1.8169
2864.532 1.853 1.966 1.996 1.986 2.296 2.306 2.246 2.396 2.216 2.056
2883.822 2.016 2.186 2.266 1.8845 1.5063 1.6631 2.176 2.426 2.406 2.096
2903.112 1.926 2.016 1.8383 1.7406 1.8399 1.6431 1.4726 1.6597 1.7416 1.5512
2922.401 1.2892 1.2234 1.2274 1.1701 0.8888 0.94244 1.2183 0.93599 0.801 0.726
2941.691 0.8772 1.2906 1.3819 1.0403 0.94834 0.98416 0.95844 1.0534 1.0621 1.00522
2960.981 0.91236 1.0666 1.0402 0.739 0.757 0.752 0.591 0.8238 1.01216 1.00029
2980.271 1.0226 1.2196 1.4399 1.1246 0.8627 1.0499 1.2177 0.91033 0.8708 0.8991
2999.561 0.99553 0.94014 0.737 0.704 0.208 0.17 0.359 0.567 0.743 0.566
3018.850 0.592 0.802 0.95442 1.0367 0.99966 1.00632 0.746 0.65 0.771 0.96652
3038.140 1.3668 1.2633 1.1061 1.2629 1.3124 1.01495 0.94117 0.799 0.543 0.77
3057.430 0.96615 0.98819 1.0655 1.0692 0.81 0.682 0.695 0.8965 1.0886 0.8379
3076.720 0.812 0.93214 1.1118 0.95466 0.95304 1.4641 1.5211 1.7218 1.597 1.6009
3096.009 2.266 2.556 3.006 3.496 3.416 3.816 4.876 6.056 7.576 8.776
3115.299 9.016 8.846 8.546 8.406 8.956 8.826 7.616 6.636 5.526 4.226
3134.589 3.176 2.366 1.8524 1.639 1.6231 1.321 1.1174 1.0537 1.0404 0.95301
3153.879 0.693 0.712 0.8173 0.662 0.55 0.665 0.677 1.0486 1.01084 0.8747
3173.169 1.2101 1.2322 1.0687 1.1947 0.95332 1.0811 1.195 0.235 0.051 0.172
3192.458 0.43 1.2029 1.2492 0.9308 0.8406 0.8347 1.1042 1.1227 1.0406 1.0635
3211.748 0.663 0.631 0.508 0.376 0.522 0.54 0.516 0.317 0.398 0.705
3231.038 0.745 0.678 0.865 0.8399 0.791 0.677 0.749 1.1691 1.0739 0.744
3250.328 0.613 0.95172 1.1526 0.675 0.577 0.643 0.451 0.633 1.0804 1.4597
3269.617 0.92672 0.578 1.2126 1.0605 0.796 1.1973 1.1726 1.1126 0.8955 0.425
3288.907 0.749 0.76 0.212 0.258 0.529 0.712 0.746 0.788 0.8355 0.675
3308.197 0.816 0.94191 0.8707 0.8454 0.812 0.94306 1.1938 1.2249 0.585 0.313
3327.487 0.398 0.442 0.474 0.715 1.1001 0.8745 0.94803 0.921154 0.67 0.594
3346.777 0.355 0.244 0.537 1.1008 1.3784 1.1724 0.98248 0.666 0.807 0.93792
3366.066 0.647 0.678 0.8403 1.0491 1.157 0.95023 0.99688 1.0352 0.739 0.774
3385.356 0.8368 0.9063 1.1574 1.4446 1.4014 1.1522 1.00051 1.1034 0.95454 0.436
3404.646 0.673 0.921021 0.742 0.587 0.785 0.604 0.223 0.438 0.779 0.99772
3423.936 0.65 0.703 1.0321 1.079 0.675 0.297 0.8791 1.1082 0.8362 0.8772
3443.225 0.93543 0.835 0.594 0.676 0.92816 1.0543 1.1752 0.8779 0.303 0.641
3462.515 1.1066 0.92091 0.91485 0.97514 1.0443 1.0608 1.2178 1.2923 1.0539 0.9614
3481.805 0.635 0.536 0.788 0.646 0.499 0.389 0.437 0.405 0.655 0.8864
3501.095 0.603 0.93786 0.98755 0.751 1.0249 1.198 1.4431 1.3146 1.1558 0.9815
3520.385 0.561 0.8915 0.8848 0.8812 1.0226 0.99062 1.0561 0.8847 1.1167 1.1065
3539.674 1.1149 1.1673 0.672 1.0352 1.3795 0.96824 0.717 0.464 0.748 1.2393
3558.964 1.1237 1.023 1.0599 1.0343 1.1863 1.1798 0.99498 0.783 0.707 0.564
3578.254 0.629 0.772 0.708 1.0147 1.3905 1.1514 0.492 0.529 0.9022 0.689
3597.544 1.1631 1.4559 0.8611 0.706 0.685 0.713 0.771 0.920666 1.0814 1.3574
3616.833 1.3985 1.0977 0.8271 0.713 0.675 0.343 0.392 0.705 0.67 0.763
3636.123 0.898 0.8644 0.58 0.8451 1.4263 1.2873 0.738 0.622 0.654 0.8974
3655.413 1.2001 0.91088 0.807 1.0821 1.2148 1.3087 1.1373 1.2381 1.2438 1.1448
3674.703 1.3098 0.777 0.671 0.8173 0.758 0.8959 1.0414 1.1707 1.0855 0.8502
3693.993 0.9858 1.1946 0.8335 0.799 1.1351 0.786 0.361 0.629 0.802 1.2406
3713.282 1.3381 0.697 0.62 0.8503 0.8375 0.722 0.777 0.617 0.464 0.594
3732.572 1.0863 1.1603 0.96167 0.777 0.58 0.8317 0.96775 0.812 0.711 0.97162
3751.862 1.3629 1.3211 1.3534 1.0216 0.8376 1.2185 1.142 1.2362 1.1619 0.96418
3771.152 1.2679 1.1195 0.776 0.561 0.744 1.1952 1.0652 0.8903 1.1965 1.1861
3790.441 0.8691 0.8776 0.797 0.539 0.579 0.8534 1.0196 1.2649 1.4345 0.774
3809.731 0.686 0.96927 0.8193 1.0673 1.1896 1.2851 1.0388 0.313 0.062 0.367
3829.021 0.69 0.8271 0.97489 0.9802 0.747 0.608 0.505 0.805 0.90759 0.644
3848.311 0.749 0.675 0.748 1.121 1.1441 1.1254 0.96701 0.691 1.0597 1.499
3867.601 1.0379 0.98523 1.171 0.657 0.42 0.746 0.8 0.582 0.685 0.713
3886.890 0.578 0.693 0.8887 0.99129 0.8 0.686 0.585 0.128 0.042 0.422
3906.180 1.4501 1.5772 0.74 0.435 0.421 1.0367 0.693 0.067 0.702 0.8198
3925.470 0.683 0.583 0.458 0.676 1.1468 1.3995 1.206 0.95959 0.9017 0.801
3944.760 1.0693 1.2046 0.699 0.643 0.91131 0.99771 0.68 0.311 0.249 0.468
3964.049 0.439 0 0.124 0.56 0.96522 1.2272 1.1967 1.1342 1.1416 0.99923
3983.339 0.69 0.8633 0.584 0.138 0.785 1.3938 1.4119 0.98618 0.423 0.801
##END=
