##TITLE=4-Acetamido-9-fluorenone
##JCAMP-DX=4.24
##DATA TYPE=INFRARED SPECTRUM
##ORIGIN=EPA-IR VAPOR PHASE LIBRARY
##OWNER=SRD/NIST
Collection (C) 2018 copyright by the U.S. Secretary of Commerce
on behalf of the United States of America. All rights reserved.
##CAS REGISTRY NO=42135-35-3
##MOLFORM=C 15 H 11 N O 2
##$NIST SOURCE=MSDC-IR
##STATE=gas
##XUNITS=1/CM
##YUNITS=ABSORBANCE
##XFACTOR=1.
##YFACTOR=0.001
##DELTAX=1.92898
##FIRSTX=549.8
##LASTX=4000.7
##FIRSTY=4.45
##MAXX=4000.7
##MINX=549.759
##MAXY=0.06049
##MINY=0
##NPOINTS=1790
##XYDATA=(X++(Y..Y))
549.759 4.45 3.25 2.47 1.8854 1.9044 1.42709 0.584 0.908 1.7781 2.1824
569.049 2.64 1.9102 1.5923 2.84 2.3699 0.94 1.7181 2.96 2.42 1.7733
588.339 1.182 1.41641 2.2955 1.9562 1.6323 1.8992 1.9395 1.8295 1.6159 1.8749
607.628 2.62 2.41 1.8779 1.838 2.1104 2.39 2.0761 2.3097 2.3536 2.349
626.918 2.3711 2.52 2.72 2.0154 1.8401 1.9034 1.5976 1.5664 1.2995 0.775
646.208 0.885 1.3578 1.6857 1.7689 1.7586 1.7102 1.3574 1.8431 2.1696 1.6091
665.498 1.5539 2.2034 2.3286 1.8864 2.3112 2.85 2.54 2.45 2.8 2.97
684.787 2.388 1.8394 1.789 1.5215 1.38741 1.3796 1.7978 1.7256 1.237 1.158
704.077 1.4617 1.6837 1.8244 2.0391 2.3644 3.11 3.88 4.69 5.55 6.92
723.367 8.53 10.86 13.43 15.41 15.94 14.76 14.27 14.46 13.1 10.09
742.657 7.98 6.57 5.14 4.2 3.77 3.1 2.45 2.43 2.2716 2.1426
761.947 2.0915 2.46 2.88 3.01 2.93 2.85 3.06 3.17 2.74 2.3823
781.236 2.3507 2.0723 2.1422 2.0335 1.7824 1.7612 1.5397 1.5982 1.644 1.5589
800.526 1.42493 1.9086 2.3564 2.2651 2.48 2.55 2.56 2.2119 2.41 3.05
819.816 2.83 2.67 3.18 3.37 2.91 2.3597 1.9724 2.3769 2.2609 1.6936
839.106 1.8317 1.5968 1.6767 2.1117 1.8099 1.6159 1.7684 1.7154 1.7464 2.0724
858.395 2.0964 2.0243 2.4 2.44 2.45 2.61 2.2651 2.2022 2.2901 2.1416
877.685 2.48 2.94 3.37 3.73 3.38 3.17 3.27 3.21 3.18 3.49
896.975 4.14 4.6 4.76 4.79 4.74 4.72 4.57 4.09 4.18 4.36
916.265 4.2 3.98 3.78 3.52 3.18 3.22 3.07 2.73 2.63 2.56
935.555 2.64 2.52 2.41 2.46 2.2131 1.9912 1.8173 2.0525 2.56 2.65
954.844 2.1222 1.5923 2.0725 2.43 2.67 3.14 3.22 3.68 3.68 3.71
974.134 4.23 4.1 3.95 4.11 3.67 3.43 3.81 3.75 3.99 4.32
993.424 4.47 4.64 4.58 4.39 4.31 4.61 4.35 3.98 3.94 3.77
1012.714 3.5 2.87 2.76 3.08 2.75 2.3589 2.76 2.59 2.46 2.48
1032.003 2.0499 2.53 2.0934 2.0035 2.77 2.0044 1.6242 1.47979 1.3275 1.44006
1051.293 1.48436 1.8474 1.46474 1.8379 2.41 2.52 2.3205 2.2586 2.87 2.91
1070.583 2.99 3.75 3.41 1.5432 1.41821 3.37 2.59 1.083 3.18 4.03
1089.873 2.78 2.77 3.46 3.67 4.42 4.05 3.09 2.4 0.884 0
1109.163 0.613 2.0921 2.1926 1.174 0.833 0.866 0.981 0.864 0.888 1.5503
1128.452 1.061 1.286 2.1765 2.54 2.56 1.5101 1.219 1.236 1.5455 1.8513
1147.742 1.8618 2.46 2.53 2.0058 2.54 2.86 2.74 2.84 2.63 3.27
1167.032 3.37 3.34 3.27 2.85 2.98 2.78 2.83 2.69 2.43 2.3618
1186.322 2.66 3.69 3.83 4.16 5 5.63 5.85 5.1 5.62 5.84
1205.611 4.87 6.01 8.18 9.65 10.79 11.89 12.28 11.63 10.68 10.64
1224.901 12.25 12.19 9.85 8.89 8.38 8.19 9.3 10.27 10.52 10.58
1244.191 10.89 10.62 9.26 8.55 8.1 7.72 7.51 7.87 8.82 8.81
1263.481 9.04 10.35 11.24 12.28 13.75 14.34 14.71 15.02 15 14.48
1282.771 13.6 13.36 13.19 13.54 14.32 14.9 15.79 16.59 17 16.87
1302.060 16.5 15.67 14.13 12.31 10.53 8.9 7.53 6.48 5.52 4.79
1321.350 4.4 4.25 3.95 3.61 3.48 3.34 3.3 3.23 3.03 2.89
1340.640 2.95 3.06 3.06 3.11 3.21 3.4 3.81 4.17 4.63 5.19
1359.930 5.76 6.27 6.86 7.62 8.37 8.7 8.77 8.74 8.52 8.25
1379.219 7.95 7.71 7.29 6.94 6.87 6.9 6.97 7.08 7.35 7.92
1398.509 8.98 10.18 11.38 12.56 13.72 14.81 15.5 15.69 15.21 14.55
1417.799 13.66 12.2 10.71 9.47 8.38 7.48 6.58 6.07 5.95 5.97
1437.089 6.21 6.37 6.48 6.59 6.94 7.31 7.41 7.57 7.7 7.88
1456.378 8.33 8.79 9.28 9.83 10.31 10.69 11.09 11.54 11.93 12.63
1475.668 13.39 14.3 15.4 16.31 17.02 17.54 17.58 17.29 16.94 16.36
1494.958 15.87 15.43 14.85 14.19 13.42 12.62 11.47 10.68 10.1 9.25
1514.248 8.33 7.49 6.94 6.52 6 5.5 5.3 5.11 4.75 4.44
1533.538 4.39 4.24 4.02 4.07 3.85 3.51 3.2 3.17 3.2 2.81
1552.827 2.94 3.36 3.32 3.02 3.06 3.25 3.44 3.63 3.66 3.83
1572.117 3.91 3.9 4.14 4.44 4.71 5.24 5.9 6.6 7.36 8.24
1591.407 9.34 10.42 11.6 12.73 13.17 13.57 13.73 13.59 13.35 12.13
1610.697 10.74 9.71 8.52 7.09 6.02 5.33 4.58 4.14 3.78 3.44
1629.986 3.3 3.33 3.35 3.32 3.13 3.02 3.19 3.12 2.94 2.91
1649.276 2.74 2.73 2.98 2.83 2.61 2.71 3 3.09 3.06 3.15
1668.566 3.24 3.34 3.37 3.38 3.59 3.76 3.97 4.05 4.26 4.64
1687.856 4.84 5.16 5.41 5.68 6.1 6.68 7.7 8.57 9.39 10.97
1707.146 13.01 15.51 18.5 22.03 26.04 30.47 35.19 39.59 44.1 48.95
1726.435 53.72 57.67 60.01 60.49 58.45 53.95 47.42 38.42 29.63 22.55
1745.725 17.6 14.29 11.98 10.51 9.51 8.44 7.58 7.13 6.65 6.17
1765.015 5.75 5.37 5.07 4.77 4.47 4.33 4.09 3.83 3.57 3.34
1784.305 3.33 3.2 2.98 2.91 2.75 2.49 2.388 2.4 2.39 2.334
1803.594 2.1844 2.1055 2.1068 2.1157 2.2557 2.2702 2.1434 2.0681 2.055 2.0351
1822.884 2.046 2.0334 1.9276 1.9126 2.0096 1.805 1.6669 1.8741 1.9504 1.7958
1842.174 1.8502 1.8178 1.6946 1.7212 1.7431 1.7557 1.5887 1.5598 1.657 1.6571
1861.464 1.6216 1.6612 1.7058 1.7064 1.8075 1.7019 1.5927 1.7575 1.7487 1.7182
1880.754 1.6874 1.6171 1.7028 1.7998 1.7929 1.7408 1.778 1.7744 1.795 1.6944
1900.043 1.45485 1.39898 1.3315 1.3677 1.40768 1.503 1.6112 1.6075 1.6604 1.7509
1919.333 1.7915 1.7357 1.7343 1.8159 1.7736 1.6305 1.5508 1.5019 1.7055 1.8106
1938.623 1.7989 1.8911 1.94 1.8966 1.7936 1.7538 1.7617 1.6252 1.5647 1.6428
1957.913 1.748 1.8488 1.746 1.6187 1.46581 1.287 1.262 1.215 1.261 1.3409
1977.202 1.3504 1.4901 1.47868 1.242 1.176 1.2903 1.3599 1.342 1.3328 1.39512
1996.492 1.3529 1.42812 1.46697 1.41019 1.3355 1.233 1.28 1.3486 1.3578 1.243
2015.782 1.176 1.215 1.177 1.3171 1.3088 1.192 1.284 1.3444 1.5077 1.4989
2035.072 1.262 1.189 1.219 1.209 1.24 1.188 1.154 1.233 1.277 1.21
2054.362 1.2933 1.232 0.99 0.954 1.263 1.5187 1.2988 1.212 1.3318 1.263
2073.651 1.3011 1.49 1.3717 1.243 1.254 1.249 1.243 1.272 1.3569 1.39404
2092.941 1.25 1.152 1.3492 1.3069 1.284 1.3556 1.3733 1.3238 1.184 1.287
2112.231 1.44005 1.40505 1.4082 1.43667 1.40829 1.42842 1.259 1.183 1.38133 1.5771
2131.521 1.5325 1.46017 1.5054 1.4245 1.46666 1.5292 1.43116 1.4908 1.44368 1.3166
2150.810 1.2912 1.2 1.228 1.285 1.5149 1.6367 1.46696 1.3436 1.29 1.5041
2170.100 1.5743 1.3582 1.38662 1.4083 1.45639 1.5496 1.43716 1.44259 1.257 1.117
2189.390 1.134 1.165 1.3421 1.3734 1.3111 1.207 1.198 1.40713 1.48566 1.277
2208.680 1.213 1.246 1.076 1.046 1.162 1.196 1.265 1.3032 1.3717 1.3172
2227.970 1.097 1.192 1.3206 1.39397 1.5069 1.5109 1.3044 1.058 1.125 1.48038
2247.259 1.6323 1.43689 1.39195 1.43802 1.38731 1.3365 1.264 1.185 1.228 1.274
2266.549 1.278 1.122 1.108 1.12 0.965 1.107 1.3165 1.3352 1.3109 1.231
2285.839 1.157 1.3506 1.4996 1.39347 1.245 1.223 1.143 1.235 1.5989 1.7027
2305.129 1.5314 1.3122 1.3206 1.274 1.42859 1.5155 1.40247 1.44435 1.3144 1.3537
2324.418 1.5368 1.47958 1.264 1.215 1.232 1.176 1.315 1.2922 1.116 1.252
2343.708 1.41271 1.3354 1.3497 1.5053 1.374 1.38625 1.284 1.046 1.142 1.18
2362.998 1.139 1.223 1.279 1.257 1.3248 1.38745 1.39062 1.28 1.161 1.16
2382.288 1.3595 1.47327 1.191 1.184 1.3618 1.45918 1.3202 1.248 1.47675 1.46524
2401.578 1.3744 1.3554 1.214 1.112 1.02 1.124 1.222 1.232 1.41456 1.5166
2420.867 1.41684 1.225 1.258 1.196 1.054 1.234 1.40398 1.224 1.022 1.156
2440.157 1.3081 1.191 1.111 1.266 1.262 1.063 1.22 1.203 1.089 1.109
2459.447 0.963 1.022 1.187 1.099 1.017 0.935 1.06 1.274 1.3465 1.43742
2478.737 1.3615 1.173 1.077 0.898 0.887 1.225 1.40461 1.39511 1.13 0.839
2498.026 0.783 1.018 1.213 1.285 1.175 1.121 1.41399 1.319 1.258 1.281
2517.316 1.133 1.39771 1.6368 1.4183 1.257 1.203 0.987 1.2939 1.7558 1.5702
2536.606 1.39122 1.38049 1.4912 1.48621 1.46053 1.6723 1.6526 1.6303 1.5621 1.40023
2555.896 1.284 1.42589 1.6428 1.644 1.4822 1.38229 1.272 1.113 1.22 1.3223
2575.186 1.45371 1.5838 1.6181 1.3024 1.095 1.287 1.277 1.3109 1.5895 1.7705
2594.475 1.6579 1.5965 1.563 1.24 1.3139 1.2943 1.3154 1.3721 1.259 1.44004
2613.765 1.40529 1.45216 1.5354 1.5349 1.41815 1.213 1.3026 1.43977 1.48249 1.5041
2633.055 1.209 0.952 1.016 1.3105 1.283 1.3364 1.41519 1.156 1.221 1.239
2652.345 1.093 1.124 1.3019 1.3158 1.46135 1.5338 1.262 1.166 1.227 1.38674
2671.634 1.43064 1.146 1.108 1.187 1.307 1.44966 1.3426 1.191 1.27 1.48255
2690.924 1.6072 1.581 1.3073 1.042 1.13 1.47431 1.5771 1.5261 1.7888 1.7266
2710.214 1.3329 1.287 1.48065 1.41624 1.068 1.179 1.6166 1.6439 1.3464 1.263
2729.504 1.38964 1.5086 1.47792 1.3211 1.259 1.38383 1.3661 1.217 1.3289 1.38882
2748.794 1.46531 1.6422 1.257 0.891 1.182 1.103 0.927 1.238 1.115 1.065
2768.083 0.988 1.067 1.178 1.089 1.091 1.125 1.212 1.05 1.066 1.17
2787.373 1.272 1.113 1.103 1.273 1.42536 1.367 1.207 1.186 1.224 1.276
2806.663 1.083 1.091 1.241 1.268 1.245 1.356 1.222 1.075 1.014 1.241
2825.953 1.6143 1.3294 1.284 1.3641 1.181 0.981 0.725 1.021 1.38479 1.269
2845.242 1.251 0.972 0.924 1.256 0.954 1.178 1.4935 1.3209 1.3392 1.165
2864.532 1.229 1.3211 1.271 1.3444 1.39882 1.40997 1.3527 1.138 1.102 1.3508
2883.822 1.42644 1.3537 1.3327 1.5367 1.5817 1.22 1.125 1.48314 1.7859 1.8796
2903.112 2.0372 1.638 1.284 1.282 1.48768 1.9782 1.8903 1.8375 1.9368 1.8008
2922.401 1.9064 1.9119 1.6858 1.6603 1.8607 2.3867 2.55 2.291 1.8333 1.7133
2941.691 2.1173 1.9112 1.8704 1.8754 1.627 1.8513 1.9773 1.5645 1.6035 1.5441
2960.981 1.38503 1.589 1.6313 1.5871 1.3594 1.7317 2.0391 1.6008 1.45933 1.5101
2980.271 1.5774 1.7249 1.8916 2.0455 2.0858 1.8822 1.576 2.0703 2.1279 1.8391
2999.561 1.5923 0.844 0.928 1.43556 1.43314 1.7859 2.0473 1.8089 1.8888 2.1617
3018.850 2.2947 2.3624 2.3609 2.45 2.2431 2.1191 2.2077 2.2426 2.3042 2.3386
3038.140 2.9 3.02 2.72 2.68 2.75 3.16 3.2 2.9 2.88 2.97
3057.430 3.27 3.65 3.92 4 4.35 4.79 4.82 5.07 5.38 5.53
3076.720 5.78 6.03 5.57 4.97 4.94 4.65 4.26 3.74 3.44 3.15
3096.009 2.3895 1.9653 2.0796 2.0078 1.7605 1.6326 1.5901 1.8036 1.7328 1.2906
3115.299 1.113 1.005 0.881 0.63 0.654 1.084 1.189 1.3 1.39317 1.3618
3134.589 1.253 1.224 1.283 1.43205 1.6014 1.5679 1.5624 1.6634 1.6573 1.5266
3153.879 1.6863 2.0024 1.6714 1.18 1.023 1.274 1.6746 1.7182 1.717 1.6088
3173.169 1.45959 1.283 1.082 0.825 0.858 0.71 0.25 0.926 1.3431 1.24
3192.458 1.203 1.137 1.248 1.2977 1.47763 1.3659 1.076 1.229 1.286 1.2903
3211.748 1.6112 1.5755 1.289 1.199 0.902 0.77 0.93 0.864 0.732 0.916
3231.038 1.096 0.897 0.735 1.108 1.265 0.925 0.824 1.255 1.45366 1.143
3250.328 1.184 1.135 1.13 1.053 1.289 1.181 0.637 1.03 1.117 0.705
3269.617 1.038 1.2937 1.3391 1.081 0.9 1.2903 1.43791 1.263 1.099 1.3642
3288.907 1.5229 1.207 1.16 1.242 1.109 1.45653 1.5257 0.968 0.862 1.098
3308.197 1.001 0.851 0.923 0.899 1.197 1.287 0.922 0.777 0.981 1.088
3327.487 0.919 1.232 1.3476 1.45632 1.5655 1.5295 1.7974 2.1088 2.1294 1.4907
3346.777 1.3061 1.47962 1.3487 1.5294 1.6272 1.7408 1.45696 1.14 1.5615 1.48513
3366.066 1.206 1.249 1.141 1.187 1.014 1.086 1.084 0.907 0.991 0.952
3385.356 1.119 1.3595 1.6687 1.9121 1.6806 1.4011 1.8437 1.8492 2.1761 2.3499
3404.646 1.9309 1.9885 1.9798 1.8419 1.5881 1.8034 2.1408 2.196 2.2301 2.42
3423.936 2.2952 2.2878 2.43 2.3578 2.3506 2.56 2.44 2.278 2.62 2.67
3443.225 2.46 2.41 2.61 2.8 2.7 2.63 2.65 2.2595 2.0861 2.41
3462.515 2.49 2.52 2.54 2.63 2.59 2.1884 2.0617 2.0845 2.0273 1.9215
3481.805 2.1924 2.42 2.39 2.3768 2.2292 2.0933 2.0819 1.9524 1.7423 1.6405
3501.095 1.268 1.2987 1.271 1.158 1.169 1.176 1.46384 1.7113 1.5745 1.6141
3520.385 1.7728 1.6145 1.3728 1.3467 1.162 0.679 1.064 1.5787 1.6703 1.7072
3539.674 1.4254 1.05 1.3822 1.628 1.39058 1.073 0.834 1.118 1.38861 1.054
3558.964 0.998 1.48227 1.5473 1.3013 1.5229 1.5015 1.3372 1.2985 1.035 0.682
3578.254 0.744 0.844 1.061 1.234 0.701 0.732 0.816 0.855 0.452 0.414
3597.544 0.716 0.611 0.471 0.915 1.45436 1.39286 1.4358 1.229 1.3227 1.105
3616.833 0.815 0.478 0.31 0.753 1.182 1.2991 0.959 0.935 0.947 1.194
3636.123 1.5361 1.197 0.946 1.125 1.44862 1.42864 0.887 0.919 1.249 1.3228
3655.413 1.143 0.997 1.011 0.792 0.728 0.667 0.506 0.79 1.4986 1.6906
3674.703 1.5954 1.47999 1.179 0.962 0.775 0.932 1.243 1.147 1.046 0.7
3693.993 0.759 1.38158 1.303 1.266 1.44522 1.5865 1.263 0.882 0.966 1.3419
3713.282 1.254 1.079 1.42 1.5242 1.3858 1.222 1.7017 1.6386 1.13 1.212
3732.572 0.89 0.631 0.993 1.3208 1.206 1.271 1.3547 1.192 1.279 1.006
3751.862 0.473 0.35 0.823 1.117 0.702 0.29 0.754 0.97 0.687 1.02
3771.152 1.093 0.97 0.998 0.996 0.948 1.249 1.3677 1.106 1.02 0.931
3790.441 0.976 0.906 0.74 0.806 0.692 0.882 1.135 1.076 1.43207 1.42612
3809.731 1.08 1.3035 1.252 0.546 1.034 1.5049 1.125 0.874 0.838 0.927
3829.021 0.817 1.077 1.7773 1.6009 1.138 1.267 1.241 1.42981 1.3018 0.872
3848.311 1.057 1.286 1.5077 1.39374 0.81 1.03 1.41822 1.43612 1.5476 1.6394
3867.601 1.9566 1.9473 1.40221 0.964 1.189 1.44262 1.3252 1.219 0.983 1.209
3886.890 1.123 0.906 1.122 1.131 1.041 0.463 0.26 0.931 1.46808 1.192
3906.180 1.007 0.9 0.826 1.02 1.159 1.062 1.2 1.6442 1.3775 1.26
3925.470 1.3745 1.162 1.096 1.27 1.2997 1.3412 1.45736 1.107 1.065 1.43816
3944.760 1.122 1.031 0.994 0.832 1.186 1.39357 1.19 1.108 1.223 1.3981
3964.049 1.5656 1.4971 1.3232 1.019 1.204 1.537 1.5228 1.5323 1.208 0.994
3983.339 1.3738 1.6202 1.48416 1.3251 1.207 1.5006 1.9244 1.6454 1.3102 1.101
##END=
