##TITLE=N,N-Bis(2-chloroethl)-p-toluenesulphonamide
##JCAMP-DX=4.24
##DATA TYPE=INFRARED SPECTRUM
##ORIGIN=EPA-IR VAPOR PHASE LIBRARY
##OWNER=SRD/NIST
Collection (C) 2018 copyright by the U.S. Secretary of Commerce
on behalf of the United States of America. All rights reserved.
##CAS REGISTRY NO=42137-88-2
##MOLFORM=C 11 H 15 Cl 2 N O 2 S
##$NIST SOURCE=MSDC-IR
##STATE=gas
##XUNITS=1/CM
##YUNITS=ABSORBANCE
##XFACTOR=1.
##YFACTOR=0.001
##DELTAX=1.92934
##FIRSTX=549.9
##LASTX=3999.5
##FIRSTY=110.26
##MAXX=3999.53
##MINX=549.863
##MAXY=0.27232
##MINY=0
##NPOINTS=1789
##XYDATA=(X++(Y..Y))
549.863 110.26 118.96 121.7 118.18 109.44 97.57 84.6 72 60.31 49.78
569.156 40.6 33.03 27.03 22.42 18.96 16.25 14.13 12.62 11.51 10.61
588.450 9.86 9.31 8.86 8.49 8.18 8 7.79 7.64 7.57 7.52
607.743 7.69 7.9 8.09 8.35 8.77 9.37 10.09 10.93 12.12 13.77
627.037 15.69 18.08 21.25 25.22 29.92 35.24 41.03 46.82 51.9 55.7
646.330 57.49 56.72 53.76 49.37 44.55 40.25 37.11 35.26 34.47 34.38
665.624 34.6 34.7 34.5 34.22 33.97 33.97 34.39 35.08 36.06 37.45
684.917 39.6 43.09 48.39 55.71 64.06 71.8 77.11 78.91 77.65 75.23
704.210 74.49 77.75 85.79 97.4 109.21 117.39 119.46 114.78 104.72 91.64
723.504 78.06 65.63 54.81 45.77 38.74 33.81 30.64 29.01 28.76 29.61
742.797 31.43 34.04 37.5 41.84 46.93 52.75 59.2 65.98 72.53 78.12
762.091 82.01 83.69 83.05 80.12 75.37 69.48 63.1 56.85 51.18 46.45
781.384 42.73 40.08 38.46 37.74 37.74 38.28 38.82 39.17 39.51 39.91
800.678 40.77 42.67 45.86 50.21 54.85 58.51 59.88 57.82 53.1 47.34
819.971 41.45 36.44 32.72 30.02 28.16 26.94 26.19 25.78 25.61 25.64
839.264 25.86 26.29 26.93 27.66 28.56 29.7 30.84 32.06 33.5 34.89
858.558 36.08 37.28 38.5 39.6 40.65 41.74 42.78 43.52 43.82 43.67
877.851 42.99 41.81 40.28 38.42 36.39 34.33 32.24 30.25 28.41 26.81
897.145 25.64 24.87 24.59 24.87 25.5 26.48 27.71 28.97 30.05 30.76
916.438 31.04 30.81 30.15 29.27 28.3 27.43 26.72 26.3 26.31 26.59
935.732 27.17 28.16 29.38 30.8 32.51 34.38 36.3 38.17 39.79 40.93
955.025 41.32 40.75 39.21 36.85 33.93 30.78 27.77 25.18 23.04 21.26
974.318 19.98 19.15 18.7 18.58 18.74 19.18 19.76 20.46 21.2 21.88
993.612 22.42 22.69 22.69 22.48 22.05 21.54 21.15 20.9 20.83 21.13
1012.905 21.83 22.49 22.81 22.69 21.65 19.88 18.02 16.36 15.12 14.25
1032.199 13.56 13.05 12.74 12.56 12.53 12.62 12.73 12.87 13.05 13.24
1051.492 13.57 14.17 15.08 16.43 18.36 20.9 23.91 27.18 30.37 33.05
1070.786 34.92 35.94 36.32 36.6 37.59 40.18 45.11 52.59 62.26 72.99
1090.079 82.45 88.06 88.25 82.88 73.08 61.35 50.41 41.82 35.93 32.21
1109.372 30.08 29.13 28.97 29.27 29.84 30.69 31.7 32.79 34.18 35.88
1128.666 37.76 39.7 41.44 42.82 43.86 44.66 45.47 46.66 48.5 51.23
1147.959 55.39 61.57 70.88 84.68 104.6 132.19 166.99 205.49 241.36 266.29
1167.253 272.32 256.15 221.99 178.72 135.97 101.01 76.25 60.49 51.26 45.73
1186.546 41.86 38.9 36.29 34.06 32.36 31.11 30.51 30.43 30.54 30.95
1205.840 31.36 31.39 31.61 31.88 31.66 31.41 31.01 30.51 30.44 30.59
1225.133 30.66 30.41 29.78 28.79 27.58 26.24 24.65 23.07 21.65 20.41
1244.426 19.56 19.26 19.3 19.7 20.46 21.25 21.9 22.24 22.15 21.71
1263.720 21.03 20.15 19.28 18.5 17.93 17.62 17.33 17.05 16.87 16.7
1283.013 16.59 16.43 16.23 16.24 16.55 17.19 18.18 19.61 21.51 23.82
1302.307 26.33 28.6 30.15 30.67 30.3 29.34 28.2 27.35 26.99 27.18
1321.600 27.98 29.38 31.37 33.84 36.78 40.19 44 48.22 52.74 57.6
1340.894 62.97 68.9 75.53 82.89 90.69 98.44 105.65 112.08 117.71 122.79
1360.187 127.64 132.5 137.16 140.94 143.14 143.06 139.94 133.32 123.39 110.97
1379.480 96.87 82.51 68.93 57.11 47.23 39.47 33.68 29.44 26.49 24.56
1398.774 23.29 22.44 21.8 21.16 20.48 19.69 18.83 18.06 17.35 16.63
1418.067 16.09 15.77 15.66 15.74 16.03 16.46 17.1 17.99 19.08 20.36
1437.361 21.9 23.42 24.9 26.24 27.39 28.36 29.12 29.68 30.01 29.9
1456.654 29.05 27.38 24.99 22.09 19.18 16.62 14.66 13.22 12.23 11.56
1475.948 11.18 11.06 11.24 11.72 12.49 13.62 15.03 16.62 18.13 19.07
1495.241 19.23 18.55 17.15 15.31 13.41 11.75 10.33 9.29 8.61 8.1
1514.534 7.7 7.36 7.1 6.82 6.57 6.42 6.25 6.06 5.93 5.82
1533.828 5.72 5.66 5.57 5.42 5.31 5.26 5.23 5.22 5.18 5.13
1553.121 5.1 5.13 5.19 5.22 5.22 5.28 5.4 5.54 5.72 5.93
1572.415 6.14 6.48 6.86 7.29 7.86 8.56 9.46 10.51 11.75 13.23
1591.708 14.83 16.29 17.54 18.37 18.55 18.02 16.83 15.24 13.5 11.8
1611.002 10.29 9.05 8.07 7.26 6.68 6.23 5.88 5.59 5.31 5.1
1630.295 4.92 4.79 4.8 4.85 4.91 5.04 5.18 5.23 5.2 5.13
1649.588 4.98 4.71 4.38 4.13 3.88 3.59 3.3919 3.2351 3.0786 2.9651
1668.882 2.8913 2.836 2.7314 2.6568 2.6411 2.57312 2.4815 2.474 2.4658 2.4355
1688.175 2.395 2.353 2.314 2.317 2.317 2.238 2.229 2.228 2.215 2.22
1707.469 2.224 2.212 2.206 2.233 2.225 2.219 2.227 2.27 2.338 2.348
1726.762 2.337 2.36 2.404 2.4099 2.4557 2.50952 2.52196 2.59396 2.6477 2.6889
1746.056 2.7417 2.7864 2.8667 2.9601 3.001 3.0208 3.074 3.0475 2.9758 2.9076
1765.349 2.8006 2.7117 2.6768 2.6586 2.6401 2.6428 2.6656 2.7288 2.8225 2.8959
1784.642 2.9778 3.1475 3.3475 3.58 3.84 4.09 4.23 4.22 4.13 3.91
1803.936 3.58 3.2805 2.9963 2.7446 2.52801 2.392 2.272 2.141 2.084 2.093
1823.229 2.079 2.064 2.056 2.027 2.039 2.031 2.027 2.053 2.055 2.08
1842.523 2.095 2.081 2.137 2.185 2.228 2.238 2.269 2.321 2.312 2.3
1861.816 2.321 2.332 2.336 2.349 2.364 2.4013 2.4144 2.4121 2.4444 2.53486
1881.110 2.59015 2.6332 2.684 2.7322 2.8059 2.8476 2.9316 3.06 3.2085 3.3657
1900.403 3.56 3.81 4.02 4.21 4.38 4.5 4.54 4.54 4.36 4.08
1919.696 3.84 3.58 3.3425 3.1162 2.9119 2.7688 2.6651 2.5711 2.49913 2.4001
1938.990 2.327 2.289 2.212 2.177 2.167 2.133 2.087 2.05 2.04 2.059
1958.283 2.06 2.05 2.038 2.045 2.091 2.085 2.067 2.061 2.07 2.079
1977.577 2.05 2.004 2.012 2.003 1.98 1.947 1.913 1.905 1.882 1.865
1996.870 1.906 1.942 1.908 1.897 1.917 1.932 1.921 1.95 1.972 1.968
2016.164 1.977 1.94 1.905 1.921 1.943 1.921 1.911 1.911 1.903 1.887
2035.457 1.852 1.882 1.924 1.909 1.896 1.889 1.853 1.821 1.819 1.862
2054.750 1.894 1.88 1.882 1.89 1.89 1.869 1.877 1.928 1.911 1.869
2074.044 1.883 1.896 1.89 1.876 1.868 1.923 1.967 1.955 1.943 1.925
2093.337 1.923 1.936 1.913 1.96 2 1.963 1.961 1.99 2.029 2.035
2112.631 1.988 1.947 1.958 1.935 1.918 1.863 1.804 1.818 1.832 1.831
2131.924 1.837 1.84 1.861 1.879 1.876 1.903 1.893 1.86 1.878 1.89
2151.218 1.873 1.899 1.916 1.936 1.957 1.939 1.932 1.966 2.004 2.008
2170.511 2.014 2.056 2.096 2.117 2.14 2.145 2.149 2.171 2.157 2.126
2189.804 2.152 2.174 2.18 2.15 2.144 2.162 2.152 2.152 2.186 2.19
2209.098 2.116 2.05 2.03 2.013 1.987 1.994 2.012 1.987 1.964 1.995
2228.391 2.029 2.039 2.037 2.045 2.087 2.148 2.151 2.172 2.241 2.333
2247.685 2.4162 2.4752 2.51546 2.55444 2.6101 2.6142 2.56076 2.51 2.4827 2.393
2266.978 2.304 2.257 2.235 2.219 2.159 2.16 2.178 2.159 2.166 2.169
2286.272 2.17 2.199 2.23 2.242 2.273 2.326 2.39 2.4341 2.4616 2.4761
2305.565 2.4664 2.4116 2.345 2.3 2.259 2.255 2.265 2.253 2.284 2.286
2324.858 2.266 2.27 2.246 2.213 2.174 2.149 2.093 2.003 1.987 1.992
2344.152 1.963 1.947 1.925 1.903 1.915 1.908 1.888 1.9 1.901 1.927
2363.445 1.922 1.889 1.888 1.929 1.95 1.899 1.902 1.916 1.962 2.009
2382.739 2.006 2.042 2.076 2.071 2.081 2.11 2.121 2.105 2.107 2.107
2402.032 2.096 2.128 2.138 2.107 2.1 2.092 2.039 2.023 2.021 2.034
2421.326 2.027 2.009 2.008 1.965 1.974 1.986 1.966 1.969 1.972 1.99
2440.619 1.99 1.988 2.004 2.032 2.053 2.015 2.042 2.063 2.013 2.006
2459.912 1.987 1.95 1.96 1.969 1.972 1.961 1.915 1.921 1.903 1.851
2479.206 1.85 1.886 1.889 1.865 1.85 1.866 1.866 1.881 1.953 1.991
2498.499 1.977 1.969 2.054 2.12 2.18 2.252 2.244 2.251 2.269 2.252
2517.793 2.274 2.279 2.2 2.18 2.151 2.14 2.184 2.132 2.09 2.092
2537.086 2.096 2.051 2.044 2.057 1.969 1.908 1.901 1.896 1.918 1.912
2556.380 1.929 1.933 1.921 1.931 1.903 1.88 1.908 1.944 1.954 1.976
2575.673 1.994 2.014 2.069 2.091 2.1 2.124 2.146 2.123 2.116 2.137
2594.966 2.077 2.043 1.996 1.916 1.884 1.845 1.797 1.764 1.733 1.719
2614.260 1.732 1.668 1.61 1.615 1.593 1.56 1.542 1.516 1.46 1.47
2633.553 1.46 1.46 1.4 1.35 1.39 1.38 1.4 1.46 1.46 1.45
2652.847 1.517 1.53 1.49 1.47 1.48 1.515 1.536 1.546 1.541 1.566
2672.140 1.655 1.675 1.685 1.717 1.725 1.795 1.856 1.892 1.926 1.979
2691.434 2.01 1.999 2.022 2.035 2.077 2.126 2.172 2.235 2.275 2.225
2710.727 2.151 2.14 2.161 2.173 2.214 2.177 2.07 2.02 2.021 2.015
2730.020 1.99 2.007 2.038 2.079 2.147 2.246 2.314 2.341 2.354 2.351
2749.314 2.327 2.237 2.143 2.091 2.024 1.885 1.763 1.744 1.747 1.708
2768.607 1.671 1.666 1.592 1.554 1.611 1.605 1.617 1.671 1.643 1.664
2787.901 1.799 1.828 1.769 1.763 1.851 1.915 1.897 1.945 2.065 2.107
2807.194 2.116 2.229 2.328 2.375 2.4606 2.478 2.4661 2.54545 2.6254 2.706
2826.488 2.7952 2.8605 2.9744 3.1238 3.321 3.56 3.8 4.06 4.37 4.69
2845.781 5.09 5.56 6.03 6.64 7.29 7.92 8.59 9.42 10.24 11.01
2865.074 11.76 12.39 13.02 13.57 14.08 14.59 15.07 15.41 15.56 15.65
2884.368 15.48 15.14 14.82 14.42 14.03 13.74 13.48 13.28 13.25 13.26
2903.661 13.31 13.5 13.7 13.92 14.23 14.72 15.41 16.14 17 18.05
2922.955 19.41 21 22.7 24.63 26.64 28.54 30.15 31.19 31.48 31.13
2942.248 30.1 28.66 27.31 25.86 24.5 23.6 22.98 22.74 23.1 23.94
2961.542 25.2 26.91 28.64 29.84 30.35 30.08 29.16 27.76 25.93 24.18
2980.835 22.65 21.21 19.98 19.07 18.18 17.29 16.57 15.95 15.4 14.91
3000.128 14.49 14.22 13.97 13.64 13.46 13.37 13.27 13.19 13.24 13.28
3019.422 13.32 13.56 13.84 14.19 14.77 15.54 16.38 17.09 17.37 17.3
3038.715 16.86 16.1 15.42 15.1 15.03 14.87 14.48 13.9 13.03 12.02
3058.009 11.19 10.61 10.23 10.24 10.4 10.46 10.46 10.09 9.36 8.38
3077.302 7.48 6.78 6.21 5.92 5.87 5.85 5.69 5.49 5.18 4.71
3096.596 4.19 3.7 3.366 3.0768 2.7549 2.51343 2.332 2.159 1.863 1.684
3115.889 1.696 1.643 1.49 1.39 1.31 1.24 1.25 1.19 0.96 0.83
3135.182 0.9 0.88 0.74 0.68 0.81 0.84 0.72 0.62 0.61 0.57
3154.476 0.54 0.56 0.51 0.54 0.57 0.48 0.37 0.34 0.31 0.35
3173.769 0.36 0.38 0.35 0.17 0.17 0.19 0.23 0.22 0.2 0.17
3193.063 0.24 0.26 0.13 0.09 0.08 0.16 0.22 0.1 0.11 0.07
3212.356 0.04 0.11 0.05 0.05 0.02 0 0.14 0.19 0.14 0.19
3231.650 0.19 0.05 0.02 0.03 0.06 0.19 0.22 0.2 0.13 0.16
3250.943 0.22 0.12 0.19 0.26 0.22 0.2 0.17 0.17 0.09 0.04
3270.236 0.01 0.12 0.12 0.03 0.09 0.18 0.19 0.12 0.24 0.29
3289.530 0.27 0.23 0.18 0.27 0.22 0.11 0.12 0.11 0.12 0.1
3308.823 0.05 0.1 0.13 0.15 0.21 0.1 0.1 0.19 0.08 0.02
3328.117 0.02 0.04 0.15 0.24 0.27 0.24 0.21 0.19 0.25 0.22
3347.410 0.23 0.3 0.31 0.29 0.18 0.26 0.29 0.15 0.25 0.31
3366.704 0.32 0.29 0.27 0.4 0.4 0.38 0.43 0.42 0.48 0.52
3385.997 0.42 0.36 0.33 0.34 0.22 0.13 0.19 0.19 0.28 0.27
3405.290 0.22 0.33 0.43 0.43 0.51 0.43 0.28 0.35 0.37 0.37
3424.584 0.5 0.42 0.28 0.38 0.47 0.44 0.4 0.35 0.24 0.24
3443.877 0.33 0.33 0.44 0.44 0.24 0.26 0.39 0.43 0.49 0.52
3463.171 0.47 0.47 0.44 0.45 0.44 0.31 0.27 0.4 0.49 0.44
3482.464 0.46 0.5 0.58 0.62 0.6 0.65 0.66 0.67 0.61 0.54
3501.758 0.58 0.46 0.37 0.46 0.46 0.48 0.52 0.49 0.43 0.51
3521.051 0.55 0.59 0.71 0.59 0.51 0.56 0.53 0.53 0.55 0.56
3540.344 0.63 0.69 0.73 0.72 0.68 0.66 0.71 0.72 0.76 0.74
3559.638 0.72 0.7 0.68 0.7 0.76 0.71 0.56 0.61 0.62 0.6
3578.931 0.72 0.76 0.66 0.72 0.77 0.66 0.67 0.73 0.79 0.79
3598.225 0.8 0.86 0.75 0.76 0.84 0.88 0.86 0.79 0.76 0.74
3617.518 0.75 0.81 0.88 0.93 0.95 0.91 0.89 0.89 0.93 0.97
3636.812 1 1.03 0.99 1.01 0.98 1 1.09 1.06 1.04 1.03
3656.105 1.08 1.17 1.17 1.12 1.11 1.18 1.28 1.19 1.13 1.15
3675.398 1.1 1.14 1.17 1.09 1.13 1.12 1.08 1.11 1.11 1.12
3694.692 1.04 1.05 1.09 1.09 1.07 1.06 1.22 1.24 1.11 1.1
3713.985 1.07 1.05 1.12 1.19 1.13 1.15 1.22 1.21 1.2 1.19
3733.279 1.21 1.15 1.09 1.08 1.13 1.18 1.2 1.22 1.16 1.13
3752.572 1.2 1.24 1.14 1.14 1.18 1.19 1.2 1.13 1.06 1.06
3771.866 1.12 1.17 1.15 1.09 1.08 1.17 1.21 1.16 1.12 1.04
3791.159 0.98 1.1 1.18 1.18 1.17 1.11 1.14 1.24 1.24 1.12
3810.452 1.14 1.19 1.14 1.22 1.25 1.1 1.11 1.23 1.21 1.19
3829.746 1.13 1.05 1.14 1.25 1.26 1.24 1.17 1.09 1.15 1.21
3849.039 1.16 1.2 1.17 1.15 1.23 1.27 1.24 1.22 1.27 1.28
3868.333 1.21 1.16 1.22 1.28 1.37 1.35 1.32 1.29 1.23 1.28
3887.626 1.36 1.41 1.36 1.29 1.3 1.39 1.39 1.3 1.3 1.33
3906.920 1.28 1.25 1.3 1.28 1.23 1.23 1.26 1.23 1.18 1.29
3926.213 1.31 1.24 1.3 1.34 1.28 1.27 1.35 1.3 1.26 1.37
3945.506 1.36 1.33 1.43 1.45 1.4 1.38 1.34 1.34 1.22 1.15
3964.800 1.26 1.32 1.3 1.23 1.29 1.34 1.42 1.45 1.33 1.35
3984.093 1.47 1.42 1.28 1.31 1.35 1.35 1.32 1.41 1.49
##END=
