##TITLE=2-Propoxyethyl chloride
##JCAMP-DX=4.24
##DATA TYPE=INFRARED SPECTRUM
##ORIGIN=EPA-IR VAPOR PHASE LIBRARY
##OWNER=SRD/NIST
Collection (C) 2018 copyright by the U.S. Secretary of Commerce
on behalf of the United States of America. All rights reserved.
##CAS REGISTRY NO=42149-74-6
##MOLFORM=C 5 H 11 Cl O
##$NIST SOURCE=MSDC-IR
##STATE=gas
##XUNITS=1/CM
##YUNITS=ABSORBANCE
##XFACTOR=1.
##YFACTOR=0.001
##DELTAX=1.929
##FIRSTX=549.8
##LASTX=4000.8
##FIRSTY=1.1443
##MAXX=4000.75
##MINX=549.766
##MAXY=0.0382243
##MINY=0
##NPOINTS=1790
##XYDATA=(X++(Y..Y))
549.766 1.1443 0.933 1.2043 1.2643 0.7355 0.6319 0.7098 0.7129 0.7158 0.3898
569.056 0.4089 0.5454 0.6608 0.7069 0.546 0.5258 0.5351 0.4661 0.5875 0.6884
588.346 0.6999 0.8864 0.8908 0.6243 0.4763 0.587 0.7206 0.6447 0.5065 0.6283
607.636 0.6378 0.4633 0.2508 0.2475 0.4688 0.6469 0.7633 0.6749 0.5474 0.4814
626.926 0.5926 0.6591 0.6471 0.7203 0.8727 0.9985 0.8839 0.7815 0.9352 0.9309
646.216 0.8294 0.9305 1.1143 1.3243 1.4843 1.6543 1.8843 2.0543 2.2243 2.6043
665.506 3.0343 3.2643 3.4443 3.4843 3.5843 3.8243 4.0343 4.0943 3.9743 3.8743
684.796 3.7243 3.5143 3.3343 3.1343 2.8943 2.4843 2.1743 2.0143 1.9043 1.7043
704.086 1.4543 1.3143 1.2543 1.2543 1.2043 1.3043 1.4343 1.5143 1.5843 1.6343
723.376 1.6543 1.7943 1.9843 2.1143 2.4043 2.6143 2.8643 3.4043 3.8543 4.1843
742.666 4.5743 4.8943 5.1243 5.3343 5.5843 5.8343 5.9143 5.8143 5.7243 5.6743
761.956 5.6243 5.5143 5.2443 4.9243 4.6143 4.2843 3.8443 3.4043 3.0443 2.6643
781.246 2.3543 2.0743 1.7843 1.7643 1.6543 1.4143 1.2043 1.087 1.0915 1.0685
800.536 1.0167 1.0879 1.0943 0.9418 0.826 0.8283 1.1643 1.3843 1.2643 1.0572
819.826 0.9887 1.0426 0.9721 0.9635 1.072 1.1043 1.0943 1.0693 1.0416 1.1243
839.116 1.2743 1.2343 1.1243 1.0735 0.9998 0.9989 1.087 1.0715 0.9665 0.9382
858.406 0.945 0.9481 1.0094 1.1043 1.1043 1.0542 1.0445 1.0071 1.0023 1.1143
877.696 1.1943 1.1943 1.2443 1.3043 1.3543 1.4043 1.3843 1.3843 1.4543 1.4943
896.986 1.5243 1.5743 1.5643 1.5643 1.6643 1.7843 1.9443 2.0243 2.0643 2.1043
916.276 2.1343 2.1943 2.1943 2.2043 2.3043 2.4743 2.5643 2.6143 2.8543 3.0343
935.566 3.0243 3.0843 3.2443 3.4043 3.4743 3.5843 3.6743 3.8643 4.0043 3.9643
954.856 4.0543 4.1343 4.1143 4.0943 4.1543 4.2643 4.3143 4.3243 4.3143 4.2443
974.146 4.1943 4.1443 4.0843 4.0243 3.9443 3.7543 3.5143 3.2943 3.1243 2.9643
993.436 2.8843 2.7743 2.6543 2.6643 2.5643 2.4643 2.5243 2.4843 2.4943 2.5743
1012.726 2.5743 2.6543 2.7743 2.8643 2.9443 3.1343 3.3543 3.5643 3.9243 4.1843
1032.016 4.4343 4.7543 4.9843 5.2743 5.5443 5.7443 5.8943 6.0543 6.2243 6.2943
1051.306 6.2743 6.2243 6.0943 5.9543 5.9443 5.8443 5.8143 5.8743 6.0043 6.1843
1070.596 6.3643 6.7343 7.1943 7.7543 8.5143 9.2643 10.2343 11.4243 12.6843 14.1043
1089.886 15.6443 17.4243 19.3843 21.3943 23.4143 25.5043 27.6243 29.6143 31.4443 33.1443
1109.176 34.7143 35.9443 36.8943 37.6643 38.0643 38.2143 38.2243 37.9743 37.6143 37.0643
1128.467 36.2243 35.2143 34.0043 32.5543 30.8043 28.8343 26.5843 24.1643 21.8443 19.5743
1147.757 17.4843 15.6043 13.8743 12.3443 11.0943 10.0743 9.0843 8.3343 7.7743 7.2443
1167.047 6.7343 6.2043 5.7143 5.2943 5.0243 4.7343 4.4543 4.3243 4.2143 4.0643
1186.337 3.8843 3.9143 4.0243 4.1343 4.3143 4.3543 4.3843 4.5143 4.5543 4.5043
1205.627 4.4543 4.3043 4.2043 4.0743 3.8243 3.5243 3.3243 3.2743 3.0443 2.8343
1224.917 2.7343 2.6643 2.6843 2.7143 2.6743 2.6443 2.7643 2.9243 3.0643 3.3343
1244.207 3.6943 3.9843 4.1443 4.2943 4.4543 4.4643 4.4343 4.4143 4.3143 4.1943
1263.497 4.0243 3.8443 3.7243 3.6943 3.6843 3.6343 3.6343 3.7343 3.8243 3.9443
1282.787 4.2643 4.4643 4.6243 4.8343 4.9843 5.2643 5.4743 5.5143 5.5043 5.4643
1302.077 5.4743 5.4843 5.2843 5.0143 4.7543 4.4543 4.1443 3.8043 3.5043 3.2143
1321.367 2.9243 2.7443 2.6443 2.5343 2.4843 2.4243 2.4843 2.6843 2.7743 2.8343
1340.657 2.9943 3.1843 3.3143 3.4643 3.6943 3.9643 4.2543 4.5643 4.8643 5.1843
1359.947 5.6143 5.9643 6.1243 6.2043 6.2443 6.1443 6.0143 5.8443 5.6043 5.3343
1379.237 4.9043 4.4843 4.1743 3.8743 3.6443 3.4843 3.2943 3.0643 2.9343 2.7843
1398.527 2.5643 2.4543 2.3343 2.2843 2.2543 2.1443 2.0743 1.9743 1.9243 1.9443
1417.817 2.0143 2.1443 2.3243 2.4743 2.6843 2.9343 3.0643 3.2043 3.4343 3.6643
1437.107 3.8343 3.9343 4.0743 4.2043 4.2643 4.3543 4.4843 4.5843 4.7043 4.7643
1456.397 4.8043 4.8843 4.9343 4.9743 4.9343 4.8143 4.6843 4.5743 4.3543 4.1843
1475.687 4.1243 3.9243 3.6943 3.4443 3.2143 2.9943 2.6643 2.4543 2.2643 1.9843
1494.977 1.7843 1.6143 1.5143 1.3743 1.2643 1.1543 0.9904 0.9512 0.9282 0.8994
1514.267 0.7934 0.6787 0.6497 0.5818 0.5495 0.5944 0.5886 0.5227 0.5602 0.551
1533.557 0.453 0.4304 0.4128 0.329 0.2623 0.3114 0.4118 0.3867 0.3296 0.3977
1552.847 0.3846 0.3089 0.2725 0.2308 0.2654 0.2799 0.2547 0.2783 0.2902 0.2723
1572.137 0.2948 0.2761 0.2022 0.2209 0.2567 0.2933 0.2903 0.2269 0.2453 0.2727
1591.427 0.2707 0.2769 0.2625 0.2388 0.2572 0.299 0.2826 0.2659 0.2635 0.3163
1610.717 0.3167 0.2896 0.2814 0.2407 0.2495 0.2286 0.2423 0.2883 0.2476 0.225
1630.007 0.2428 0.2572 0.2169 0.18462 0.2203 0.2642 0.2955 0.219 0.11987 0.18374
1649.297 0.2635 0.14116 0.0548 0.18396 0.2201 0.2081 0.2321 0.2872 0.3274 0.2874
1668.587 0.2239 0.2433 0.2452 0.16067 0.15899 0.2296 0.2784 0.2474 0.17684 0.16924
1687.877 0.2268 0.2123 0.1946 0.18662 0.101982 0.12336 0.13068 0.127 0.2057 0.18508
1707.167 0.14824 0.15887 0.2452 0.2609 0.17521 0.11986 0.11828 0.1971 0.2254 0.14805
1726.457 0.12437 0.13541 0.16217 0.1951 0.15231 0.14863 0.16395 0.17138 0.17535 0.2029
1745.747 0.15653 0.10574 0.17683 0.2036 0.14826 0.13905 0.14429 0.08561 0.102544 0.12897
1765.037 0.100322 0.0705 0.0774 0.0826 0.0602 0.0678 0.10456 0.15188 0.15688 0.1666
1784.327 0.13952 0.1515 0.18768 0.15094 0.11803 0.14977 0.2062 0.1959 0.17554 0.18788
1803.617 0.2047 0.17641 0.19171 0.1954 0.1421 0.13156 0.17247 0.18111 0.129 0.16508
1822.907 0.16867 0.12623 0.15359 0.1471 0.16021 0.16131 0.12568 0.13621 0.17512 0.2379
1842.197 0.2243 0.2159 0.2198 0.15949 0.15328 0.1577 0.162 0.1774 0.2292 0.252
1861.487 0.2822 0.315 0.2807 0.2991 0.3284 0.3449 0.3323 0.2864 0.2841 0.345
1880.777 0.371 0.3614 0.3654 0.3338 0.2963 0.2884 0.2751 0.2569 0.2609 0.3014
1900.067 0.3323 0.3053 0.2614 0.2719 0.2803 0.2665 0.2825 0.2872 0.2917 0.2704
1919.357 0.2669 0.2748 0.2948 0.3177 0.2476 0.2321 0.2595 0.2561 0.2997 0.3462
1938.647 0.3394 0.2985 0.2611 0.2552 0.3122 0.3475 0.3304 0.3396 0.3246 0.3489
1957.937 0.3705 0.352 0.3792 0.3579 0.3483 0.3416 0.3327 0.3801 0.4097 0.3889
1977.227 0.3588 0.3566 0.333 0.2953 0.3094 0.356 0.3672 0.3416 0.3178 0.3102
1996.517 0.3259 0.3448 0.3389 0.2871 0.2955 0.3273 0.3201 0.3422 0.348 0.3499
2015.807 0.3362 0.2664 0.2436 0.2872 0.318 0.3508 0.3595 0.339 0.3648 0.3683
2035.097 0.3358 0.3612 0.3754 0.4176 0.4636 0.4464 0.4243 0.4427 0.4213 0.4042
2054.387 0.4446 0.4256 0.4056 0.4425 0.4713 0.4727 0.4653 0.4165 0.3998 0.454
2073.677 0.4343 0.4049 0.4049 0.3571 0.3322 0.371 0.4075 0.4386 0.4613 0.4322
2092.967 0.3886 0.398 0.4025 0.3939 0.4169 0.3956 0.3629 0.379 0.3666 0.2762
2112.257 0.2553 0.3053 0.3057 0.3656 0.3502 0.2961 0.3425 0.3316 0.3354 0.3622
2131.547 0.3359 0.3092 0.3159 0.2946 0.2922 0.3515 0.3792 0.346 0.3395 0.3501
2150.837 0.3438 0.3405 0.3436 0.2788 0.2068 0.2353 0.2482 0.2549 0.2705 0.2538
2170.127 0.2285 0.2365 0.2371 0.2734 0.3005 0.2443 0.2562 0.28 0.289 0.2702
2189.417 0.2373 0.2722 0.308 0.2996 0.2432 0.2497 0.3049 0.2815 0.287 0.311
2208.707 0.2756 0.273 0.2882 0.3079 0.2654 0.2292 0.2429 0.253 0.2786 0.2879
2227.997 0.2656 0.2511 0.2814 0.3049 0.3471 0.3694 0.3482 0.3114 0.2676 0.2217
2247.287 0.2286 0.2901 0.3034 0.2727 0.3137 0.3104 0.3059 0.3061 0.1972 0.18309
2266.577 0.253 0.2366 0.2338 0.2096 0.19327 0.2939 0.295 0.2589 0.2482 0.2674
2285.868 0.2342 0.12468 0.15194 0.2634 0.2998 0.2968 0.2933 0.2588 0.2299 0.2253
2305.158 0.2457 0.251 0.17635 0.18574 0.2311 0.2153 0.2644 0.2168 0.11717 0.17225
2324.448 0.2196 0.19041 0.2069 0.2733 0.2441 0.18311 0.18948 0.17275 0.17312 0.2071
2343.738 0.2055 0.2001 0.248 0.2632 0.2188 0.2041 0.2189 0.15805 0.14179 0.2037
2363.028 0.2171 0.18778 0.1534 0.19259 0.2194 0.3025 0.3016 0.2163 0.2966 0.3084
2382.318 0.2272 0.241 0.2508 0.2176 0.2625 0.2424 0.2259 0.2076 0.16723 0.18976
2401.608 0.2139 0.2538 0.2576 0.2074 0.19221 0.2595 0.2351 0.2287 0.2195 0.18483
2420.898 0.2384 0.249 0.1994 0.2002 0.2008 0.2046 0.2375 0.2187 0.17577 0.16912
2440.188 0.18048 0.207 0.2503 0.2443 0.2235 0.2114 0.2217 0.14323 0.12863 0.15465
2459.478 0.16582 0.2556 0.2165 0.1749 0.1966 0.18618 0.19364 0.18381 0.2472 0.2729
2478.768 0.2058 0.18816 0.2106 0.2377 0.2252 0.16936 0.15577 0.253 0.3141 0.2988
2498.058 0.2555 0.1981 0.1944 0.2455 0.2764 0.2741 0.218 0.2393 0.2575 0.18483
2517.348 0.2206 0.2975 0.2533 0.15995 0.2225 0.312 0.287 0.2667 0.2688 0.2376
2536.638 0.2422 0.2593 0.2264 0.2194 0.221 0.2349 0.2879 0.3071 0.314 0.314
2555.928 0.2956 0.2896 0.2824 0.3413 0.336 0.2417 0.3038 0.3532 0.3209 0.3791
2575.218 0.4017 0.3331 0.3396 0.3533 0.325 0.3454 0.3516 0.3936 0.3738 0.3153
2594.508 0.3171 0.3239 0.3937 0.3746 0.342 0.4346 0.4397 0.375 0.3681 0.4294
2613.798 0.4574 0.4022 0.3978 0.4292 0.4553 0.3924 0.3924 0.494 0.4966 0.4951
2633.088 0.445 0.4212 0.474 0.4322 0.4088 0.4738 0.5111 0.4919 0.4548 0.4959
2652.378 0.606 0.6613 0.5493 0.4471 0.4284 0.5083 0.6349 0.65 0.6887 0.7387
2671.668 0.7009 0.6739 0.7083 0.7052 0.7744 0.8454 0.8093 0.7938 0.8902 0.9368
2690.958 0.8671 0.8691 0.9624 1.0212 1.0278 1.0635 1.0565 1.1043 1.2043 1.2443
2710.248 1.2543 1.3043 1.3743 1.4343 1.4943 1.5243 1.5743 1.6643 1.6643 1.6743
2729.538 1.7043 1.7043 1.7643 1.8343 1.9343 1.8843 1.8643 1.9343 1.9043 1.9643
2748.828 1.9743 1.9443 1.9943 1.9843 2.0043 2.0143 1.9043 1.8743 1.8943 1.9643
2768.118 2.0043 2.0243 2.0843 2.1143 2.2043 2.2643 2.3143 2.4043 2.4143 2.4643
2787.408 2.5643 2.6143 2.6943 2.7343 2.8243 3.0043 3.1243 3.2143 3.2743 3.3043
2806.698 3.3543 3.4643 3.5143 3.5743 3.6843 3.8343 4.0343 4.2443 4.4343 4.6643
2825.988 5.0343 5.5143 5.9843 6.5243 7.0543 7.6543 8.2943 8.8643 9.5543 10.3043
2845.278 11.0743 11.9443 12.8543 13.6243 14.4443 15.2943 16.0543 16.8543 17.4943 18.0443
2864.568 18.5543 18.9843 19.4743 19.9143 20.2343 20.4043 20.5843 20.7843 20.9343 21.0243
2883.858 20.9043 20.7343 20.3943 19.8943 19.4143 18.9343 18.4643 17.9543 17.3143 16.6343
2903.148 16.1243 15.8243 15.6643 15.4743 15.3743 15.3243 15.3743 15.5943 15.8943 16.2243
2922.438 16.5243 17.0443 17.4743 17.7543 18.1943 18.7443 19.3543 19.9243 20.4343 20.8343
2941.728 21.3143 21.7643 22.0943 22.3143 22.5143 22.8243 23.0743 23.0943 23.0443 23.1543
2961.018 23.3143 23.4443 23.6543 23.8443 23.9043 23.9743 23.7543 23.3043 22.8243 22.0643
2980.308 21.0543 19.9643 18.6943 17.2143 15.7943 14.4643 13.0943 11.6943 10.5643 9.5943
2999.598 8.5843 7.7943 7.1543 6.6743 6.3643 5.9043 5.3643 4.9843 4.6543 4.3243
3018.888 4.1143 3.8343 3.4943 3.1943 2.8243 2.6643 2.6243 2.5543 2.3343 2.1543
3038.178 2.0743 1.9243 1.9243 1.7843 1.6043 1.5143 1.4843 1.4543 1.3443 1.2743
3057.468 1.2143 1.1643 1.0496 1.0571 1.2043 1.0857 0.8811 0.8884 0.9655 0.9913
3076.758 0.9586 0.9263 0.7762 0.8117 0.9444 0.9121 0.9294 0.9981 0.9985 0.9918
3096.048 0.9975 0.8333 0.762 0.8308 0.8028 0.8384 0.8463 0.7781 0.8128 0.8214
3115.338 0.7048 0.7117 0.6705 0.6054 0.6865 0.6239 0.515 0.4891 0.5708 0.6301
3134.628 0.671 0.72 0.6265 0.5216 0.5977 0.5651 0.4926 0.5672 0.5754 0.5962
3153.918 0.5664 0.6206 0.6042 0.5427 0.6244 0.6257 0.4928 0.3928 0.3711 0.3979
3173.208 0.3551 0.3439 0.3661 0.432 0.5333 0.5677 0.6306 0.556 0.4146 0.3709
3192.498 0.3208 0.3659 0.3742 0.347 0.5301 0.5201 0.375 0.4164 0.3356 0.23
3211.788 0.2206 0.305 0.402 0.3545 0.4608 0.492 0.3494 0.2896 0.1834 0.10865
3231.078 0.13375 0.267 0.4052 0.3872 0.371 0.2868 0.2585 0.198 0.2854 0.485
3250.368 0.4355 0.4285 0.4142 0.3344 0.17462 0.18287 0.3924 0.4532 0.4712 0.4295
3269.658 0.2626 0.2586 0.308 0.283 0.3089 0.2983 0.2461 0.2407 0.3615 0.2987
3288.948 0.11394 0.102866 0.2787 0.4303 0.3425 0.18937 0.11629 0.2706 0.2731 0.2038
3308.238 0.2747 0.11408 0.0222 0.12813 0.13241 0.0423 0.0815 0.2726 0.2149 0.18232
3327.528 0.2639 0.16932 0.1982 0.2187 0.2455 0.3223 0.3141 0.3086 0.2997 0.338
3346.818 0.3713 0.3594 0.3198 0.3292 0.3813 0.2614 0.25 0.3805 0.3743 0.2337
3366.108 0.1163 0.13928 0.2147 0.2114 0.2158 0.3109 0.3123 0.3065 0.3154 0.3058
3385.398 0.3025 0.2016 0.2219 0.2129 0.10729 0.16616 0.2306 0.2922 0.317 0.2931
3404.688 0.2102 0.18046 0.3242 0.4434 0.4447 0.3091 0.2125 0.3102 0.2906 0.15402
3423.978 0.0717 0.16517 0.3537 0.3793 0.2714 0.2209 0.2491 0.2466 0.2061 0.23
3443.269 0.2788 0.3394 0.3216 0.2907 0.3587 0.3113 0.2843 0.3587 0.4894 0.3759
3462.559 0.2418 0.3541 0.24 0.11248 0.244 0.3773 0.3903 0.3336 0.2689 0.2582
3481.849 0.17765 0.2123 0.278 0.2517 0.2803 0.2723 0.2699 0.3119 0.336 0.2411
3501.139 0.1933 0.3059 0.3477 0.3278 0.3343 0.2301 0.2039 0.2084 0.239 0.3119
3520.429 0.3734 0.3304 0.2349 0.3664 0.3676 0.2572 0.3597 0.4466 0.2912 0.18098
3539.719 0.3351 0.344 0.2533 0.2402 0.16923 0.12182 0.11051 0.12584 0.17911 0.15963
3559.009 0.14691 0.13276 0.10614 0.2331 0.2433 0.2211 0.2098 0.16126 0.2021 0.13612
3578.299 0.0558 0.14597 0.2184 0.2567 0.18987 0.2312 0.3494 0.2542 0.2241 0.222
3597.589 0.2388 0.11517 0.099746 0.3087 0.3138 0.3493 0.4014 0.2266 0.17304 0.1377
3616.879 0.19199 0.18081 0 0.0684 0.2597 0.3148 0.16933 0.0557 0.2511 0.3428
3636.169 0.2038 0.14914 0.11611 0.2792 0.3173 0.2219 0.2785 0.3382 0.2197 0.13966
3655.459 0.2205 0.2336 0.2773 0.2607 0.2415 0.4204 0.2933 0.0759 0.2018 0.2835
3674.749 0.276 0.2719 0.2612 0.2922 0.3627 0.2887 0.2411 0.17471 0.0382 0.09747
3694.039 0.14017 0.1895 0.289 0.3115 0.3895 0.3909 0.2701 0.3087 0.3107 0.2344
3713.329 0.2158 0.2298 0.2674 0.2342 0.243 0.213 0.256 0.4707 0.4531 0.2998
3732.619 0.3109 0.3886 0.4207 0.2721 0.0683 0.0656 0.100834 0.11924 0.13353 0.12236
3751.909 0.15226 0.13999 0.19073 0.3209 0.4205 0.4506 0.3562 0.2571 0.18812 0.2597
3771.199 0.3582 0.2751 0.236 0.2609 0.3025 0.2694 0.13303 0.2332 0.2843 0.3302
3790.489 0.4085 0.3328 0.3891 0.4046 0.18877 0.11124 0.2885 0.2513 0.3032 0.3265
3809.779 0.2157 0.256 0.3317 0.3601 0.3699 0.203 0.2151 0.3415 0.2409 0.2952
3829.069 0.3514 0.2685 0.15427 0.3013 0.3138 0.104195 0.2511 0.4059 0.2687 0.18031
3848.359 0.17808 0.14867 0.17319 0.09283 0.2419 0.3919 0.3221 0.3002 0.2081 0.2131
3867.649 0.2941 0.3146 0.347 0.4745 0.3503 0.15359 0.2083 0.2897 0.3174 0.341
3886.939 0.3175 0.3682 0.38 0.2401 0.2802 0.3363 0.3621 0.3904 0.33 0.2573
3906.229 0.2865 0.2679 0.18448 0.2112 0.4307 0.456 0.2072 0.1434 0.3406 0.4079
3925.519 0.296 0.3834 0.4587 0.395 0.3224 0.3562 0.4347 0.5044 0.4553 0.3752
3944.809 0.4257 0.3888 0.3472 0.2718 0.2589 0.2778 0.2587 0.4309 0.6815 0.6838
3964.099 0.4798 0.2823 0.3587 0.4193 0.2835 0.3733 0.5127 0.6166 0.5343 0.4633
3983.389 0.4234 0.3808 0.5025 0.4697 0.4054 0.4209 0.5387 0.587 0.5784 0.4832
##END=
