##TITLE=N-t-Octylacrylamide
##JCAMP-DX=4.24
##DATA TYPE=INFRARED SPECTRUM
##ORIGIN=EPA-IR VAPOR PHASE LIBRARY
##OWNER=SRD/NIST
Collection (C) 2018 copyright by the U.S. Secretary of Commerce
on behalf of the United States of America. All rights reserved.
##CAS REGISTRY NO=4223-03-4
##MOLFORM=C 11 H 21 N O
##$NIST SOURCE=MSDC-IR
##STATE=gas
##XUNITS=1/CM
##YUNITS=ABSORBANCE
##XFACTOR=1.
##YFACTOR=0.001
##DELTAX=1.92898
##FIRSTX=549.8
##LASTX=4000.7
##FIRSTY=4.25
##MAXX=4000.7
##MINX=549.759
##MAXY=0.13925
##MINY=0.00009384
##NPOINTS=1790
##XYDATA=(X++(Y..Y))
549.759 4.25 4.19 4.07 3.75 3.61 3.61 3.47 3.16 3.05 2.92
569.049 3.01 3.17 3.01 3.02 3.05 2.71 2.8 2.89 2.57 2.45
588.339 2.37 2.32 2.44 2.23 1.95 2.05 2.05 1.99 1.91 1.61
607.628 1.39 1.47 1.58 1.53 1.32 1.06 0.9596 0.9377 0.8427 0.8876
626.918 0.9964 0.9155 0.8988 0.9227 0.8692 0.8676 0.8051 0.7888 0.9183 0.9593
646.208 0.9578 0.805 0.6765 0.8067 0.9596 0.9513 1.09 1.23 1.01 1.22
665.498 1.63 1.81 1.9 2 2.39 2.63 2.64 2.7 2.43 2.12
684.787 2 1.79 1.49 1.21 1.05 0.9142 0.814 0.8007 0.7867 0.714
704.077 0.7426 0.7109 0.6004 0.6347 0.648 0.4769 0.4091 0.5076 0.561 0.6421
723.367 0.6952 0.7 0.7239 0.6987 0.6779 0.7924 1.01 0.9463 0.9044 0.8807
742.657 0.8334 0.9828 0.9565 0.9368 0.9555 0.8256 0.9245 1.23 1.37 1.67
761.947 1.72 1.44 1.53 1.77 2.01 2.3 2.78 3.31 3.71 4.32
781.236 5.06 5.85 6.79 7.85 8.87 9.97 10.79 11.13 11.03 10.45
800.526 9.72 8.75 7.66 6.59 5.63 4.81 4.07 3.65 3.53 3.43
819.816 3.29 3.07 3.07 3.12 3.06 3.03 3.09 3.33 3.49 3.46
839.106 3.59 3.79 3.84 3.92 4 4.12 4.41 4.8 5.12 5.22
858.395 5.22 5.16 5.15 5.24 5.11 4.83 4.69 4.64 4.72 4.88
877.685 4.81 4.8 4.85 4.82 4.88 4.78 4.83 5.02 5.09 5.17
896.975 5.17 5.33 5.6 5.75 5.93 6.2 6.47 6.64 6.79 7.18
916.265 7.7 8.24 8.78 9.5 10.47 11.31 12.15 12.97 13.66 14.13
935.555 14.21 14.15 14.03 13.77 13.57 13.67 13.99 14.48 15.05 15.74
954.844 16.55 17.35 18.13 18.91 19.64 20.56 21.58 22.15 22.32 22.16
974.134 21.48 20.19 18.57 16.74 14.9 13.37 12.17 11.29 10.47 9.59
993.424 8.84 8.41 7.76 7.07 6.61 6.17 5.68 5.29 5.21 5.08
1012.714 5 4.82 4.77 4.73 4.63 4.42 4.02 4.05 4.11 4.05
1032.003 4.17 4.23 4.3 4.29 4.23 4.23 4.21 4.21 4.01 4.01
1051.293 4.26 4.54 4.82 5.07 5.35 5.62 5.51 5.57 5.78 5.27
1070.583 4.92 4.75 4.25 3.71 3.39 3.42 3.21 2.84 2.88 2.58
1089.873 2.44 2.58 2.33 2.13 2.51 2.75 2.74 2.58 2.58 2.73
1109.163 2.79 3.12 3.12 3.5 3.97 4.05 4.63 5.56 5.78 5.92
1128.452 6.53 6.95 7.2 7.43 7.87 8.27 8.74 9.29 9.58 10.02
1147.742 10.39 10.47 10.82 10.95 10.24 9.56 9.36 9.27 8.87 8.5
1167.032 8.28 8.3 8.87 9.37 10.06 11.12 12.73 14.62 16.7 19.21
1186.322 22.17 25.68 29.24 32.7 36.04 39.11 41.69 43.64 44.51 44.84
1205.611 44.95 44.38 43.76 43.54 43.44 43.55 44.14 44.58 45.29 46.06
1224.901 46.39 46.73 47.31 47.53 47.29 46.99 46.17 44.84 43 40.7
1244.191 37.83 35.02 32.38 29.41 26.86 24.85 23.07 21.89 21.1 20.57
1263.481 20.16 19.73 19.45 19.1 18.59 17.89 16.95 15.9 14.96 13.94
1282.771 12.85 11.94 11.11 10.35 9.77 9.36 9.25 9.32 9.52 9.91
1302.060 10.25 10.48 10.58 10.67 10.78 10.75 10.65 10.61 10.65 10.74
1321.350 10.79 10.79 10.81 10.75 10.49 10.17 9.83 9.54 9.48 9.64
1340.640 10.11 10.85 11.84 12.86 13.88 14.88 15.81 16.83 17.96 19.32
1359.930 21.07 23.16 25.43 27.69 29.97 31.81 31.94 30.32 28.31 26.53
1379.219 25.16 24.36 24.16 24.63 25.66 26.95 28.43 29.91 31.02 31.47
1398.509 31.23 30.42 29.33 27.98 26.24 24.31 22.4 20.64 19.35 18.47
1417.799 17.94 17.87 18.12 18.64 19.34 20.15 21.19 22.43 23.82 25.26
1437.089 26.95 28.87 31.01 33.36 35.79 38.11 40.31 42.17 43.6 44.7
1456.378 45.47 46.06 46.51 47.15 48.15 49.63 51.71 54.44 57.88 62.02
1475.668 66.71 72.21 78.41 85.52 93.53 102.33 111.68 120.81 129.02 135.36
1494.958 138.94 139.25 135.9 129.01 119 107 93.5 80.28 68.61 58.44
1514.248 49.89 42.72 36.8 32.05 27.96 24.63 21.92 19.63 17.64 15.97
1533.538 14.6 13.36 12.35 11.49 10.71 9.97 9.3 8.72 8.23 7.84
1552.827 7.51 7.19 6.89 6.7 6.51 6.25 6.08 5.97 5.93 5.85
1572.117 5.76 5.71 5.64 5.59 5.61 5.58 5.58 5.5 5.49 5.59
1591.407 5.62 5.73 5.87 6 6.17 6.47 6.92 7.49 8.24 9.13
1610.697 10.09 11.13 12.3 13.38 14.32 15 15.3 15.27 15.07 14.71
1629.986 14.2 13.61 13.04 12.53 12.03 11.54 11.01 10.44 9.89 9.35
1649.276 8.88 8.61 8.41 8.36 8.48 8.66 8.87 9.2 9.81 10.49
1668.566 11.27 12.28 13.51 15.08 17.15 19.53 22.71 26.68 31.7 38.05
1687.856 45.5 54.53 64.94 76.01 87.44 98.44 107.07 113.42 115.07 110.94
1707.146 101.93 90.36 77.19 63.46 50.43 39.33 30.4 23.86 19.09 15.6
1726.435 13.1 11.28 9.88 8.8 8.05 7.38 6.83 6.42 6.06 5.81
1745.725 5.61 5.39 5.19 5.06 4.91 4.72 4.59 4.42 4.28 4.2
1765.015 4.06 3.94 3.81 3.57 3.35 3.18 3 2.85 2.66 2.47
1784.305 2.32 2.19 2.07 1.96 1.89 1.8 1.73 1.7 1.63 1.55
1803.594 1.5 1.47 1.51 1.45 1.35 1.37 1.34 1.3 1.31 1.35
1822.884 1.37 1.32 1.27 1.26 1.25 1.2 1.22 1.26 1.24 1.24
1842.174 1.22 1.21 1.21 1.17 1.16 1.18 1.26 1.35 1.39 1.38
1861.464 1.45 1.55 1.57 1.59 1.66 1.62 1.58 1.53 1.47 1.39
1880.754 1.28 1.22 1.19 1.17 1.13 1.1 1.11 1.12 1.17 1.22
1900.043 1.28 1.39 1.48 1.62 1.78 1.86 1.92 2.07 2.17 2.17
1919.333 2.16 2.09 2.08 2.04 1.89 1.75 1.65 1.54 1.42 1.27
1938.623 1.11 1 0.8925 0.7785 0.7257 0.7047 0.6764 0.6253 0.6008 0.5963
1957.913 0.6164 0.6241 0.5569 0.4918 0.534 0.5689 0.4831 0.4516 0.4132 0.4709
1977.202 0.571 0.5022 0.4363 0.4445 0.5487 0.5322 0.3851 0.3926 0.408 0.3565
1996.492 0.3812 0.4494 0.4255 0.3529 0.3713 0.3589 0.32 0.3412 0.3389 0.3594
2015.782 0.4313 0.4534 0.4029 0.3836 0.3414 0.3217 0.3718 0.3574 0.3371 0.3092
2035.072 0.3821 0.4232 0.3793 0.3461 0.3489 0.3789 0.3609 0.3632 0.3766 0.4001
2054.362 0.3658 0.3527 0.3573 0.3461 0.3807 0.3939 0.4118 0.433 0.4374 0.3814
2073.651 0.4088 0.4686 0.4758 0.4386 0.3739 0.3761 0.3914 0.4239 0.4829 0.5399
2092.941 0.4973 0.4205 0.4069 0.4305 0.4362 0.4471 0.4832 0.4651 0.4135 0.4241
2112.231 0.4085 0.3956 0.407 0.386 0.3831 0.365 0.384 0.4229 0.4013 0.3334
2131.521 0.2996 0.3575 0.3333 0.3131 0.3702 0.3263 0.2391 0.3151 0.3384 0.2772
2150.810 0.2891 0.2577 0.294 0.3027 0.2955 0.2771 0.2398 0.2766 0.3243 0.3616
2170.100 0.3734 0.2888 0.2537 0.2827 0.2837 0.2665 0.2885 0.2812 0.2468 0.2413
2189.390 0.2031 0.1929 0.2222 0.2119 0.1543 0.1901 0.191 0.1617 0.2036 0.2505
2208.680 0.2159 0.2019 0.2565 0.2415 0.1816 0.2028 0.1914 0.1993 0.2387 0.2999
2227.970 0.3388 0.2577 0.2673 0.2487 0.2042 0.201 0.185 0.1744 0.2265 0.2442
2247.259 0.208 0.2984 0.3611 0.2647 0.2093 0.2613 0.2684 0.2851 0.2494 0.214
2266.549 0.237 0.2511 0.3326 0.3444 0.2973 0.2471 0.2251 0.2771 0.3765 0.3676
2285.839 0.307 0.4119 0.4234 0.3366 0.3454 0.3607 0.3127 0.2961 0.3496 0.346
2305.129 0.2632 0.1871 0.2371 0.3302 0.3054 0.265 0.3223 0.3311 0.2872 0.3571
2324.418 0.3812 0.3955 0.3716 0.3068 0.3672 0.3834 0.411 0.431 0.4259 0.4265
2343.708 0.4218 0.5039 0.4757 0.435 0.5512 0.5758 0.4955 0.4314 0.4266 0.4955
2362.998 0.5202 0.4841 0.4919 0.4656 0.4207 0.4156 0.4338 0.4651 0.436 0.4231
2382.288 0.4961 0.5728 0.562 0.4997 0.4585 0.4204 0.3766 0.4108 0.5246 0.5277
2401.578 0.4636 0.4913 0.4744 0.4249 0.398 0.4041 0.4293 0.3472 0.3118 0.3416
2420.867 0.3416 0.3166 0.3237 0.3601 0.3502 0.3087 0.3012 0.2767 0.2045 0.14
2440.157 0.1612 0.2091 0.2049 0.2825 0.2793 0.2897 0.3262 0.2686 0.2821 0.2084
2459.447 0.2842 0.3666 0.2812 0.2726 0.2796 0.3629 0.3617 0.2864 0.2603 0.2926
2478.737 0.2289 0.1992 0.316 0.3341 0.2761 0.2247 0.2767 0.2958 0.3326 0.3297
2498.026 0.2505 0.3243 0.304 0.2211 0.265 0.3135 0.3798 0.3984 0.3339 0.319
2517.316 0.3024 0.2927 0.2718 0.2602 0.3141 0.31 0.3399 0.4508 0.4009 0.3228
2536.606 0.3365 0.3962 0.4614 0.3894 0.3314 0.3435 0.319 0.3495 0.4625 0.4005
2555.896 0.3475 0.4664 0.5124 0.5637 0.5685 0.4937 0.5194 0.4784 0.4365 0.4417
2575.186 0.4408 0.453 0.5371 0.6001 0.4919 0.4585 0.4615 0.4874 0.5604 0.5219
2594.475 0.4831 0.5878 0.6469 0.6112 0.5909 0.5131 0.5571 0.6908 0.71 0.7052
2613.765 0.6723 0.6601 0.6762 0.693 0.6543 0.6239 0.6757 0.7404 0.71 0.6866
2633.055 0.8137 0.8689 0.8447 0.7797 0.8294 0.8679 0.8605 0.9761 0.9389 0.9705
2652.345 1.06 1.04 1.02 0.9024 0.9963 1.14 1.1 1.12 1.27 1.34
2671.634 1.24 1.29 1.33 1.35 1.42 1.41 1.44 1.46 1.44 1.45
2690.924 1.42 1.46 1.45 1.5 1.52 1.49 1.53 1.55 1.64 1.64
2710.214 1.62 1.63 1.7 1.82 1.86 1.95 2.08 2.03 1.89 1.92
2729.504 1.93 1.91 1.94 1.84 1.8 1.84 1.83 1.76 1.65 1.64
2748.794 1.68 1.64 1.64 1.66 1.67 1.72 1.63 1.72 1.77 1.62
2768.083 1.69 1.8 1.86 1.84 1.87 1.95 1.97 2 2.09 2.19
2787.373 2.31 2.29 2.35 2.51 2.54 2.56 2.71 2.77 2.74 2.9
2806.663 3.21 3.41 3.42 3.54 3.62 3.73 3.94 4.13 4.27 4.35
2825.953 4.59 4.77 4.99 5.25 5.5 5.91 6.22 6.59 7.09 7.56
2845.242 8.09 8.62 9.13 9.68 10.27 11.06 12.11 13.29 14.73 16.44
2864.532 18.29 20.47 22.91 25.28 27.61 29.8 31.86 33.48 34.57 35.42
2883.822 36.16 36.79 37.32 37.97 38.51 39.19 40.2 41.4 42.52 43.62
2903.112 45.05 46.23 47.1 47.83 48.36 48.88 49.17 49.26 49.04 48.44
2922.401 48.06 47.95 47.87 48.13 48.46 49.13 50.47 52.12 54.08 56.38
2941.691 59.21 62.59 66.69 71.51 76.91 82.94 89.53 96.66 103.49 109.35
2960.981 113.66 115.75 115.51 113 108.51 102.06 94.26 86.27 78.49 71.4
2980.271 65.12 59.56 54.69 50.59 47.34 44.77 42.59 40.66 38.68 36.39
2999.561 34 31.44 28.99 26.5 24.07 21.81 19.6 17.72 16.03 14.73
3018.850 13.69 12.54 11.6 10.81 9.99 9 7.98 7.17 6.4 5.8
3038.140 5.3 4.83 4.5 4.15 3.93 3.99 4.07 4.11 4.12 4.03
3057.430 3.97 3.96 3.75 3.56 3.45 3.27 3.2 3.3 3.35 3.3
3076.720 3.39 3.66 3.96 4.35 4.92 5.52 6.02 6.41 6.51 6.32
3096.009 6.12 5.87 5.37 4.92 4.63 4.39 4.15 3.79 3.3 2.9
3115.299 2.58 2.22 2.01 1.85 1.51 1.38 1.5 1.56 1.64 1.65
3134.589 1.5 1.44 1.49 1.5 1.38 1.36 1.5 1.46 1.44 1.51
3153.879 1.45 1.42 1.5 1.43 1.4 1.51 1.56 1.59 1.46 1.46
3173.169 1.57 1.51 1.56 1.69 1.57 1.39 1.49 1.54 1.56 1.68
3192.458 1.74 1.62 1.47 1.6 1.65 1.46 1.38 1.37 1.55 1.6
3211.748 1.56 1.54 1.47 1.47 1.35 1.34 1.3 1.28 1.35 1.47
3231.038 1.39 1.24 1.26 1.28 1.28 1.33 1.3 1.17 1.27 1.4
3250.328 1.17 0.9396 1.07 1.07 1.09 1.2 1.04 1.01 1.12 1.03
3269.617 0.9356 0.953 0.9127 0.799 0.6651 0.7622 0.858 0.765 0.7106 0.8149
3288.907 0.8573 0.8895 0.841 0.8419 0.8544 0.6248 0.6938 0.8561 0.6824 0.536
3308.197 0.4929 0.555 0.7993 0.8792 1.01 1.13 1.07 0.9089 0.7047 0.5562
3327.487 0.6865 1 1.1 1.03 0.9878 0.8864 0.8423 0.8977 1.02 0.9894
3346.777 0.8542 0.9908 1.01 0.9567 0.9016 0.9169 0.9558 0.8729 1 1.17
3366.066 1.08 1.09 1.19 1.2 1.22 1.25 1.54 1.69 1.6 1.62
3385.356 1.8 2 2 2.08 2.17 2.09 1.94 1.79 1.64 1.51
3404.646 1.5 1.37 1.18 1.33 1.42 1.55 1.63 1.71 1.83 1.84
3423.936 2.01 2.26 2.39 2.5 2.83 3.18 3.48 3.93 4.6 5.19
3443.225 5.74 6.3 6.77 7.31 7.77 8.22 8.62 8.43 8.23 8.17
3462.515 8.07 7.84 7.41 7.13 7.02 6.72 6.28 5.98 5.41 4.87
3481.805 4.58 4.06 3.49 3.17 2.81 2.31 2.16 2.04 1.76 1.72
3501.095 1.74 1.52 1.34 1.27 1.19 1.17 1.12 1.07 0.8924 0.7697
3520.385 0.7707 0.7773 0.8105 0.7058 0.7373 0.7943 0.7669 0.8657 0.7884 0.7135
3539.674 0.8029 0.6768 0.6891 0.751 0.6615 0.6154 0.5794 0.5871 0.5594 0.5129
3558.964 0.5908 0.6271 0.4827 0.4636 0.5018 0.4693 0.2899 0.1884 0.2443 0.2572
3578.254 0.3144 0.3709 0.1349 0.1041 0.4453 0.437 0.2158 0.2151 0.2595 0.2149
3597.544 0.1102 0.1803 0.3258 0.2823 0.2859 0.3321 0.2581 0.2524 0.4525 0.5088
3616.833 0.4266 0.274 0.324 0.4994 0.5095 0.4119 0.3401 0.3393 0.261 0.3797
3636.123 0.5079 0.5075 0.3474 0.2959 0.3686 0.329 0.3842 0.5313 0.4653 0.2713
3655.413 0.261 0.341 0.4101 0.3375 0.3019 0.2182 0.2343 0.3685 0.4515 0.2568
3674.703 0.1854 0.4154 0.5493 0.4803 0.2964 0.3325 0.3872 0.4132 0.3934 0.2465
3693.993 0.149 0.2536 0.436 0.4719 0.3877 0.2516 0.2214 0.2062 0.2776 0.4654
3713.282 0.2402 0.21 0.309 0.2929 0.2938 0.1984 0.192 0.4232 0.6893 0.5725
3732.572 0.307 0.3094 0.3697 0.2974 0.3235 0.4481 0.4152 0.4166 0.4102 0.3859
3751.862 0.2796 0.187 0.3444 0.4068 0.2244 0.2994 0.2816 0.1876 0.2316 0.1301
3771.152 0.09384 0.1408 0.3299 0.3909 0.3333 0.2969 0.1886 0.1147 0.2643 0.2985
3790.441 0.3269 0.5824 0.8167 0.6418 0.333 0.3629 0.4991 0.5632 0.5437 0.535
3809.731 0.5791 0.4581 0.4214 0.4173 0.2646 0.3976 0.4424 0.2648 0.376 0.4105
3829.021 0.3031 0.3996 0.394 0.3552 0.464 0.5875 0.5578 0.3328 0.3588 0.6438
3848.311 0.639 0.6209 0.5347 0.4194 0.5603 0.6803 0.6703 0.3654 0.2566 0.4121
3867.601 0.4846 0.6991 0.7477 0.5915 0.6841 0.564 0.38 0.4239 0.5459 0.4875
3886.890 0.4539 0.5222 0.5543 0.7088 0.5794 0.4768 0.4756 0.4881 0.517 0.5413
3906.180 0.4711 0.3233 0.3613 0.2925 0.3847 0.5549 0.6187 0.7143 0.6341 0.4948
3925.470 0.3931 0.3883 0.4966 0.6029 0.5445 0.5468 0.6547 0.7982 0.9846 1.01
3944.760 0.768 0.5529 0.5529 0.5795 0.5182 0.4911 0.6508 0.6257 0.4967 0.3872
3964.049 0.3065 0.4882 0.5845 0.5337 0.4078 0.2787 0.2943 0.3025 0.5 0.7148
3983.339 0.5418 0.421 0.4686 0.4426 0.3413 0.5115 0.5616 0.5113 0.7446 0.785
##END=
