##TITLE=5-Chloro-1-indanone
##JCAMP-DX=4.24
##DATA TYPE=INFRARED SPECTRUM
##ORIGIN=EPA-IR VAPOR PHASE LIBRARY
##OWNER=SRD/NIST
Collection (C) 2018 copyright by the U.S. Secretary of Commerce
on behalf of the United States of America. All rights reserved.
##CAS REGISTRY NO=42348-86-7
##MOLFORM=C 9 H 7 Cl O
##$NIST SOURCE=MSDC-IR
##STATE=gas
##XUNITS=1/CM
##YUNITS=ABSORBANCE
##XFACTOR=1.
##YFACTOR=0.001
##DELTAX=1.92898
##FIRSTX=549.8
##LASTX=4000.7
##FIRSTY=4.777
##MAXX=4000.7
##MINX=549.759
##MAXY=0.419757
##MINY=0
##NPOINTS=1790
##XYDATA=(X++(Y..Y))
549.759 4.777 5.417 7.007 7.567 8.467 9.507 9.627 10.657 12.437 13.567
569.049 13.667 13.307 13.037 12.787 11.707 10.487 9.117 6.767 4.867 4.377
588.339 4.437 4.087 3.957 4.047 4.117 4.247 4.357 4.897 4.847 4.787
607.628 5.357 5.507 5.127 4.837 4.417 4.477 4.287 3.497 3.117 2.747
626.918 2.507 2.127 1.5661 1.2451 1.3281 1.1376 1.075 1.1478 1.0739 0.9591
646.208 0.8616 1.2775 1.3481 0.9453 0.506 0.601 0.9285 0.9444 1.0858 1.234
665.498 0.9125 1.0222 1.5451 1.4154 1.827 2.477 2.587 3.247 3.877 4.217
684.787 4.957 5.317 5.457 5.567 5.627 5.977 5.937 5.457 4.497 3.727
704.077 3.607 3.437 2.947 2.577 2.157 1.737 1.807 1.5201 1.1073 1.2999
723.367 1.6463 2.097 2.267 2.687 3.607 5.107 7.107 8.757 10.027 10.257
742.657 10.037 10.187 9.577 7.797 5.617 3.587 2.757 2.247 1.907 1.7016
761.947 1.2781 1.2974 1.4431 1.6696 1.777 1.967 2.067 2.307 2.587 2.817
781.236 2.937 2.957 3.267 3.827 4.547 5.537 6.877 8.717 10.817 12.977
800.526 15.697 18.317 21.077 24.467 28.277 31.157 32.357 31.847 30.737 30.607
819.816 30.837 30.317 29.187 28.007 26.837 26.677 27.847 27.797 24.097 20.127
839.106 18.117 16.607 15.327 13.757 12.807 12.767 13.917 17.067 22.237 30.557
858.395 42.677 56.947 70.677 80.807 86.407 89.477 91.377 90.827 81.417 63.947
877.685 47.087 34.337 26.097 20.967 17.117 14.287 12.497 10.807 9.277 8.577
896.975 8.037 7.447 6.977 6.507 6.447 6.057 5.237 4.857 4.587 4.357
916.265 4.197 4.007 3.567 3.207 3.157 3.207 3.107 3.187 3.117 2.787
935.555 3.137 3.327 3.117 3.047 3.167 3.137 3.197 3.097 2.747 3.137
954.844 3.477 3.557 3.577 3.227 3.137 3.297 3.347 3.417 3.247 3.017
974.134 2.807 3.037 3.537 3.807 4.317 4.687 4.837 5.067 5.137 5.517
993.424 6.007 6.487 7.147 8.567 10.557 12.397 14.227 16.297 19.197 22.897
1012.714 28.017 34.077 40.337 46.577 51.007 52.337 51.227 49.397 47.677 43.927
1032.003 37.367 29.797 23.417 19.127 15.997 14.327 14.027 14.517 16.077 18.627
1051.293 21.947 26.337 31.787 39.147 47.897 54.637 59.007 61.787 64.247 65.247
1070.583 63.277 59.037 51.657 43.477 36.587 31.467 27.257 22.877 19.747 17.367
1089.873 15.137 12.527 10.567 9.967 8.877 8.207 7.867 8.287 9.197 8.677
1109.163 7.927 8.367 8.727 9.307 9.607 8.997 9.467 8.757 7.257 6.697
1128.452 5.297 4.247 4.387 4.187 4.017 3.607 2.577 1.987 1.907 1.4943
1147.742 1.1118 1.4067 2.947 4.167 5.037 7.027 9.447 11.887 14.577 16.527
1167.032 16.697 16.947 18.537 19.257 18.497 16.847 16.137 17.617 19.977 22.957
1186.322 29.007 38.867 50.687 62.247 70.137 73.767 74.757 75.017 71.527 63.547
1205.611 50.247 34.897 23.257 15.507 11.707 10.347 10.117 10.237 11.347 12.897
1224.901 13.927 17.287 21.657 26.437 32.367 37.447 40.707 43.257 44.737 44.517
1244.191 43.887 41.807 38.057 34.357 32.767 34.227 37.007 37.777 36.797 35.827
1263.481 35.167 33.937 30.487 24.637 19.417 16.257 14.877 14.397 14.407 15.237
1282.771 16.057 17.247 18.417 19.977 22.737 26.607 32.327 40.207 50.117 61.267
1302.060 71.897 80.397 86.277 89.497 89.847 86.827 79.297 67.597 54.317 42.337
1321.350 32.967 25.637 19.567 14.637 11.227 9.117 7.747 6.837 6.337 5.977
1340.640 5.557 5.367 5.207 5.047 4.817 4.657 4.777 4.887 4.887 4.987
1359.930 5.287 5.757 6.317 6.647 6.987 7.137 7.107 7.407 7.557 7.577
1379.219 7.657 7.767 7.827 7.837 8.037 8.197 8.297 8.597 8.947 9.307
1398.509 9.747 10.307 11.147 12.257 13.527 15.177 17.137 18.837 19.767 20.107
1417.799 19.947 19.587 19.397 18.747 17.267 15.687 14.497 13.997 14.207 15.007
1437.089 16.367 18.097 20.117 21.757 22.407 21.977 21.387 21.557 22.307 22.337
1456.378 21.017 19.487 18.847 18.697 18.777 18.557 17.797 16.927 15.787 14.387
1475.668 13.057 11.367 9.537 8.077 6.917 6.057 5.587 5.397 5.027 4.777
1494.958 4.817 4.657 4.557 4.547 4.407 4.497 4.887 4.997 5.057 5.187
1514.248 5.157 5.087 4.907 4.707 4.507 4.377 4.217 4.017 3.737 3.747
1533.538 3.937 3.957 4.237 4.607 4.857 5.187 5.757 6.607 7.447 8.227
1552.827 9.527 10.907 12.437 14.517 16.927 19.917 23.937 29.117 35.297 42.687
1572.117 50.637 58.477 66.737 74.727 81.807 88.277 94.027 99.527 104.757 110.787
1591.407 117.977 126.297 135.507 143.147 146.807 145.427 139.367 129.927 118.007 103.427
1610.697 86.667 69.337 54.677 43.047 34.137 27.667 22.737 19.157 16.687 14.907
1629.986 13.167 11.527 10.647 10.037 9.337 8.857 8.687 8.657 8.727 8.837
1649.276 8.597 8.497 8.377 8.087 7.687 7.377 7.337 6.997 6.807 6.967
1668.566 7.047 6.977 6.977 7.157 7.447 7.777 8.247 8.847 9.737 10.847
1687.856 11.937 13.447 15.157 16.907 19.177 21.467 23.567 25.847 27.697 29.577
1707.146 31.767 34.007 36.507 39.677 43.987 50.277 59.327 71.017 87.727 110.687
1726.435 142.327 184.117 236.347 292.787 348.977 390.847 411.417 419.267 419.757 410.407
1745.725 380.357 324.257 257.147 196.077 149.937 117.097 91.987 73.567 59.417 48.557
1765.015 40.257 33.947 29.127 25.067 21.337 18.417 15.927 13.867 12.407 11.347
1784.305 10.537 9.737 9.027 8.567 8.017 7.527 7.157 6.807 6.487 6.247
1803.594 6.277 6.177 6.097 6.237 6.157 5.977 6.017 6.017 6.077 6.147
1822.884 6.107 6.047 5.917 5.877 5.797 5.527 5.317 5.107 4.847 4.557
1842.174 4.237 3.947 3.857 3.917 3.767 3.517 3.507 3.447 3.347 3.357
1861.464 3.357 3.297 3.127 3.147 3.217 3.097 2.977 2.817 2.647 2.597
1880.754 2.597 2.607 2.647 2.727 2.767 2.887 2.907 3.047 3.397 3.547
1900.043 3.677 3.877 4.067 4.237 4.337 4.317 4.327 4.297 4.267 4.247
1919.333 4.037 3.927 3.677 3.327 3.117 3.017 3.027 2.977 2.877 2.727
1938.623 2.497 2.447 2.417 2.307 2.327 2.277 2.187 2.117 1.987 1.957
1957.913 1.977 1.897 1.837 1.857 1.907 1.987 2.027 1.997 1.967 2.037
1977.202 2.027 1.917 1.967 1.977 1.867 1.857 1.927 1.887 1.817 1.717
1996.492 1.877 1.947 1.897 1.937 1.857 1.887 1.857 1.717 1.6432 1.5036
2015.782 1.4929 1.5455 1.5333 1.569 1.5355 1.4636 1.5004 1.6507 1.7033 1.777
2035.072 1.897 1.927 1.997 2.127 2.037 1.927 2.087 2.147 2.057 1.957
2054.362 1.877 1.777 1.747 1.6373 1.6502 1.654 1.5694 1.6142 1.4726 1.4322
2073.651 1.496 1.4542 1.347 1.1519 1.2626 1.3293 1.2137 1.2563 1.2102 1.2545
2092.941 1.1942 1.1501 1.3165 1.3379 1.4401 1.4009 1.255 1.2374 1.1918 1.2638
2112.231 1.2334 1.1612 1.2684 1.3294 1.1974 1.2487 1.3804 1.3315 1.3472 1.3584
2131.521 1.342 1.3702 1.2941 1.2681 1.3086 1.2436 1.3385 1.3379 1.2672 1.3477
2150.810 1.3051 1.3749 1.3731 1.212 1.1499 1.212 1.1724 1.142 1.2737 1.2726
2170.100 1.2766 1.2933 1.2512 1.2427 1.4121 1.6069 1.5022 1.4211 1.4355 1.3288
2189.390 1.2431 1.2936 1.34 1.358 1.4351 1.302 1.2315 1.3998 1.4754 1.5935
2208.680 1.7045 1.7033 1.6669 1.6319 1.5318 1.4906 1.5597 1.747 1.777 1.6536
2227.970 1.717 1.6856 1.6129 1.6618 1.6245 1.5326 1.6087 1.6481 1.6754 1.747
2247.259 1.797 1.797 1.917 1.947 1.837 1.757 1.6733 1.6367 1.787 1.867
2266.549 1.6937 1.5832 1.5265 1.6898 1.707 1.6942 1.777 1.6284 1.6355 1.6668
2285.839 1.6386 1.737 1.6288 1.5247 1.6595 1.6067 1.3522 1.4888 1.737 1.5939
2305.129 1.6235 1.747 1.717 1.777 1.797 1.767 1.717 1.817 2.077 2.127
2324.418 2.027 1.937 1.977 2.197 2.237 2.397 2.577 2.387 2.447 2.607
2343.708 2.497 2.397 2.397 2.297 2.357 2.537 2.337 2.187 2.117 1.887
2362.998 1.837 1.827 1.7055 1.767 1.747 1.4549 1.2665 1.3533 1.472 1.3928
2382.288 1.3711 1.4553 1.342 1.2466 1.3931 1.5674 1.518 1.4045 1.3399 1.3792
2401.578 1.4544 1.4158 1.4709 1.6299 1.707 1.6291 1.4755 1.3312 1.3777 1.3448
2420.867 1.2641 1.3358 1.3916 1.3508 1.2294 1.2236 1.3533 1.463 1.5324 1.4732
2440.157 1.3306 1.4357 1.5796 1.5402 1.3573 1.1508 1.1779 1.2291 1.3177 1.3719
2459.447 1.4443 1.6173 1.6118 1.6348 1.5886 1.4238 1.506 1.6386 1.6491 1.747
2478.737 1.797 1.717 1.5484 1.3717 1.4112 1.5237 1.5106 1.1151 0.8212 0.9521
2498.026 1.0822 1.1514 1.1697 1.0886 1.0896 1.2103 1.2823 1.204 1.0791 1.3052
2517.316 1.4429 1.4216 1.3945 1.3346 1.4174 1.39 1.393 1.3321 1.3375 1.3079
2536.606 1.4125 1.651 1.6427 1.767 1.827 1.787 1.767 1.5676 1.5466 1.847
2555.896 1.797 1.787 1.987 2.057 2.087 2.217 2.207 2.177 2.257 2.147
2575.186 2.027 1.937 1.787 1.6665 1.6524 1.495 1.3174 1.3759 1.5186 1.5086
2594.475 1.3623 1.4393 1.6177 1.717 1.6115 1.4538 1.4902 1.5276 1.5567 1.5276
2613.765 1.717 1.6444 1.5717 1.787 1.6694 1.4329 1.3302 1.3953 1.3801 1.5215
2633.055 1.5321 1.424 1.4195 1.3401 1.409 1.2943 1.1219 1.3308 1.6242 1.707
2652.345 1.6317 1.757 1.887 1.707 1.6768 1.6178 1.5495 1.6009 1.7043 1.767
2671.634 1.5778 1.6221 1.727 1.683 1.737 1.727 1.6957 1.6024 1.5918 1.6356
2690.924 1.737 1.837 1.7011 1.6918 1.7006 1.737 1.797 1.5794 1.4874 1.6537
2710.214 1.6406 1.6971 1.6338 1.5297 1.6157 1.3551 1.3168 1.5261 1.4446 1.3002
2729.504 1.3262 1.372 1.5918 1.7032 1.4166 1.2697 1.3182 1.4392 1.4249 1.5156
2748.794 1.6825 1.6578 1.867 1.987 1.6904 1.5228 1.6885 1.682 1.857 1.807
2768.083 1.5468 1.671 1.4302 1.2873 1.2073 1.2138 1.2918 1.1344 1.2053 1.2783
2787.373 1.2549 1.2798 1.3017 1.2832 1.3364 1.2302 1.0273 1.2201 1.4199 1.5856
2806.663 1.4954 1.6924 2.417 2.487 2.417 2.557 2.797 3.077 2.967 2.567
2825.953 2.307 2.397 2.557 2.567 2.457 2.517 2.997 3.487 3.767 3.987
2845.242 4.427 4.897 4.987 5.337 5.667 5.687 5.947 6.307 6.667 7.047
2864.532 7.147 7.087 7.497 8.027 8.137 8.057 7.807 7.627 7.557 7.397
2883.822 7.097 6.777 6.127 5.317 4.827 4.547 4.147 3.817 3.467 3.007
2903.112 3.217 3.257 3.287 3.637 3.967 4.597 5.007 5.607 6.607 7.937
2922.401 9.477 11.517 13.997 16.907 20.677 25.297 29.857 33.957 37.397 40.097
2941.691 42.127 43.357 42.737 38.867 34.127 29.687 25.117 21.407 18.777 16.637
2960.981 15.517 15.267 14.957 14.697 15.457 17.087 17.087 14.727 12.297 10.707
2980.271 9.637 8.787 7.857 6.327 4.977 4.147 3.377 2.727 2.277 2.127
2999.561 1.927 1.572 1.3803 1.5243 1.977 2.357 2.367 2.177 2.297 2.527
3018.850 2.607 3.127 3.267 3.287 3.587 3.817 4.027 4.417 4.677 4.357
3038.140 4.237 4.657 4.827 4.957 5.217 5.237 5.257 5.167 5.167 5.747
3057.430 6.747 6.957 6.857 7.007 6.937 6.667 6.477 6.527 6.737 6.797
3076.720 6.847 7.217 7.197 6.927 6.887 6.827 6.647 6.347 5.727 5.107
3096.009 4.437 3.597 3.247 2.837 2.467 2.347 1.927 1.4864 1.642 1.887
3115.299 1.5642 1.2313 1.2439 1.5047 1.797 1.957 2.037 1.877 1.887 2.017
3134.589 1.827 1.6906 1.3122 1.2122 1.2223 1.4257 1.4833 1.5032 1.5566 1.0739
3153.879 1.1181 1.2094 1.2887 1.2306 0.8097 0.8805 1.3115 1.5311 1.3724 1.0522
3173.169 0.9831 1.0675 1.0247 0.77276 1.0458 1.1567 1.0773 1.0718 0.9568 1.0586
3192.458 1.0068 1.219 1.4181 1.4735 1.2755 1.0028 0.8801 0.8721 0.6463 0.5
3211.748 0.73797 0.8433 0.9255 0.9404 0.9174 0.9763 0.9858 0.8298 0.6206 0.349
3231.038 0.152 0.202 0.498 0.505 0.56 0.757 0.72958 0.526 0.448 0.79205
3250.328 0.80011 0.6205 0.572 0.561 0.534 0.211 0.077 0.31 0.389 0.503
3269.617 0.558 0.79025 0.9551 0.8591 0.79568 0.8076 0.9608 0.71764 0.591 0.578
3288.907 0.526 0.6349 0.524 0.6567 0.73177 0.512 0.6507 0.407 0 0.11
3308.197 0.562 0.74497 0.8505 1.1535 1.0075 0.6347 0.392 0.607 0.578 0.396
3327.487 0.605 0.8713 1.0763 0.9078 0.9342 0.9966 0.534 0.546 0.569 0.416
3346.777 0.6944 0.8246 0.9077 1.2559 1.0951 0.512 0.479 0.74291 1.0144 0.8181
3366.066 0.536 0.6369 0.847 0.89 0.9838 1.1991 1.2286 1.0838 0.8523 0.9159
3385.356 0.8518 0.74474 0.8627 0.8236 1.1296 1.311 0.74487 0.582 0.9308 1.027
3404.646 0.72927 0.834 1.1688 1.0277 1.0919 1.2933 1.2207 1.251 1.2458 1.1505
3423.936 1.2118 1.4618 1.747 1.767 1.957 2.367 2.817 3.197 3.147 2.987
3443.225 3.337 3.527 3.627 4.227 4.537 4.777 5.557 6.377 6.717 6.817
3462.515 6.867 7.017 6.577 5.797 5.567 5.507 5.037 4.127 3.577 3.347
3481.805 2.637 2.017 2.217 1.947 1.5623 2.087 2.257 1.6943 1.3617 1.6459
3501.095 1.737 1.4078 1.3993 1.32 0.9467 0.9682 0.8483 0.872 0.601 0.483
3520.385 1.0267 1.3827 1.5134 1.2012 1.1087 1.1778 1.1531 1.2008 1.1086 0.8756
3539.674 1.0106 1.1633 1.1664 1.2061 0.8219 0.6279 0.79589 0.6879 0.532 0.80034
3558.964 0.9497 0.6832 0.74349 0.9448 0.9754 0.8381 0.512 0.561 0.463 0.465
3578.254 0.54 0.641 0.8842 0.6886 0.512 0.45 0.43 0.463 0.478 0.594
3597.544 0.76868 1.0003 0.8667 0.73228 0.897 0.6673 0.541 0.9857 1.069 0.895
3616.833 0.6236 0.588 0.8257 1.1174 1.6153 1.5983 1.2702 1.0322 0.78045 0.9128
3636.123 1.038 0.9481 0.945 0.569 0.474 0.75871 1.1682 0.8578 0.567 0.588
3655.413 0.73425 0.70589 0.228 0.244 0.361 0.6159 1.1405 1.138 0.7822 0.9423
3674.703 0.8925 0.6555 0.9143 0.8928 0.77679 0.8601 0.8479 1.0623 1.0405 0.9393
3693.993 0.75304 0.6572 0.397 0.264 0.8328 0.9866 0.8426 0.68 0.537 0.6228
3713.282 0.606 0.501 0.6361 0.78302 0.6476 0.672 0.7671 0.74519 0.6099 0.6889
3732.572 1.294 1.5118 1.1148 0.6355 0.6458 1.099 1.0817 0.575 0.6362 1.0051
3751.862 0.79919 0.6 0.6927 0.6229 0.564 0.6182 0.826 1.0505 0.8314 0.6398
3771.152 0.527 0.57 0.9424 0.9796 0.9387 0.6562 0.6784 0.8244 0.423 0.74598
3790.441 0.9284 0.593 0.581 0.6172 0.70357 0.76155 0.53 0.8994 0.9363 0.223
3809.731 0.299 0.8911 0.9042 0.563 0.74636 0.9386 1.1199 1.1287 0.8524 0.712642
3829.021 0.929 1.0858 1.0751 0.9559 0.76934 0.542 0.598 0.529 0.277 0.313
3848.311 0.73635 1.1411 0.8391 0.6125 0.458 0.8565 1.0904 0.9776 0.9267 0.7307
3867.601 0.79601 0.8697 1.0057 0.78121 0.607 0.69787 0.8505 1.0505 1.3662 1.356
3886.890 1.1054 0.9665 0.9827 1.2037 1.2395 1.4014 1.3343 1.1862 1.2849 1.1159
3906.180 1.2451 1.4183 1.2144 1.0861 0.9941 0.8925 0.73381 1.1398 1.5619 1.4529
3925.470 1.0955 0.8974 1.1448 1.4999 1.5607 1.3891 1.6308 1.727 1.5145 1.5171
3944.760 1.2541 0.9688 0.939 1.0062 1.3425 1.4575 1.3121 1.2875 1.1764 0.9821
3964.049 0.9541 0.9544 0.71935 0.435 0.446 0.469 0.714742 0.77672 0.70472 0.8708
3983.339 0.6696 0.602 0.476 0.6938 1.0049 0.707113 0.70289 0.8943 1.0189 1.038
##END=
