##TITLE=t-Butyl carbamate
##JCAMP-DX=4.24
##DATA TYPE=INFRARED SPECTRUM
##ORIGIN=EPA-IR VAPOR PHASE LIBRARY
##OWNER=SRD/NIST
Collection (C) 2018 copyright by the U.S. Secretary of Commerce
on behalf of the United States of America. All rights reserved.
##CAS REGISTRY NO=4248-19-5
##MOLFORM=C 5 H 11 N O 2
##$NIST SOURCE=MSDC-IR
##STATE=gas
##XUNITS=1/CM
##YUNITS=ABSORBANCE
##XFACTOR=1.
##YFACTOR=0.001
##DELTAX=1.929
##FIRSTX=549.8
##LASTX=4000.8
##FIRSTY=3.25
##MAXX=4000.75
##MINX=549.766
##MAXY=0.08309
##MINY=0
##NPOINTS=1790
##XYDATA=(X++(Y..Y))
549.766 3.25 3.38 3.29 2.91 2.79 2.76 2.59 2.17 1.78 1.87
569.056 2.28 1.97 1.4027 1.1363 1.1979 1.3013 1.2785 1.1534 1.0793 1.2731
588.346 1.4375 1.3403 1.2051 1.1935 1.0799 1.0288 0.8552 0.7017 0.7146 0.7974
607.636 0.8315 0.881 0.9601 0.884 0.9102 0.9234 0.7898 0.8551 0.8989 0.9408
626.926 1.1305 1.218 1.2686 1.204 1.0944 1.1177 1.1099 1.0464 1.1588 1.2976
646.216 1.2323 1.1829 1.183 1.0521 0.9142 1.0474 1.1217 1.0903 1.3412 1.47
665.506 1.63 2.57 2.52 1.84 1.76 1.66 1.67 1.71 1.82 1.97
684.796 2.03 2.17 2.37 2.44 2.54 2.46 2.37 2.53 2.71 2.83
704.086 2.96 3.13 3.26 3.36 3.65 4.01 4.1 4.31 4.59 4.56
723.376 4.47 4.56 4.69 4.58 4.38 4.43 4.54 4.34 4.05 3.89
742.666 3.79 3.73 3.82 3.89 3.98 4.22 4.46 4.89 5.28 5.62
761.956 6.03 6.49 6.8 6.97 7.22 7.3 7.42 7.55 7.5 7.46
781.246 7.19 6.74 6.47 6.32 6.14 5.76 5.42 5.33 5.3 5.24
800.536 5.1 5.01 5.04 4.92 4.8 4.78 4.82 4.95 5.02 5.06
819.826 4.97 4.99 5.1 5.2 5.26 5.15 5.31 5.55 5.43 5.42
839.116 5.57 5.65 5.7 5.68 5.64 5.55 5.48 5.39 5.07 4.78
858.406 4.59 4.34 4.25 4.04 3.81 3.57 3.28 3.12 2.9 2.69
877.696 2.46 2.31 2.36 2.4 2.39 2.47 2.45 2.39 2.24 1.99
896.986 1.9 2 2.07 2.09 2.2 2.35 2.34 2.23 2.28 2.37
916.276 2.37 2.41 2.51 2.51 2.55 2.62 2.73 2.74 2.49 2.21
935.566 2.18 2.14 2.05 2.1 1.98 1.82 1.78 1.88 2.03 1.94
954.856 1.87 2 2.08 2.24 2.48 2.65 2.81 2.49 2.22 2.43
974.146 2.71 3 3.36 3.74 4.11 4.56 5.12 5.84 6.72 7.68
993.436 8.71 9.87 11.04 12.2 13.39 14.63 15.75 16.49 16.98 17.47
1012.726 17.64 17.52 17.32 16.91 16.34 15.8 15.23 14.51 13.85 13.42
1032.016 13.03 12.73 12.39 12.02 11.67 11.3 10.93 10.59 9.95 9.13
1051.306 8.41 7.61 6.72 5.67 4.67 3.96 3.58 3.31 2.89 2.75
1070.596 2.88 3.04 3.43 3.74 4.09 4.92 5.94 7.14 8.41 9.65
1089.886 10.93 11.95 12.87 14.06 15.24 15.69 15.75 16 15.93 15.52
1109.176 14.77 13.68 12.58 11.35 10.06 8.92 8.05 7.19 6.3 5.75
1128.467 5.36 5.01 4.89 4.98 5.23 5.65 6.21 6.84 7.51 8.21
1147.757 9.02 10.18 11.56 12.98 14.47 16.29 18.09 19.81 21.85 23.87
1167.047 25.97 28.17 30.11 31.86 33.45 34.77 35.56 35.85 35.65 34.93
1186.337 33.99 32.56 30.69 28.56 26.23 23.72 21.04 18.59 16.5 14.58
1205.627 12.69 11.16 10.21 9.7 9.37 9.03 8.97 9 9.13 9.33
1224.917 9.62 10.09 10.54 10.99 11.62 12.35 12.99 13.62 14.23 14.74
1244.207 15.04 15.34 15.54 15.56 15.24 14.65 14.11 13.41 12.63 12.05
1263.497 11.49 10.77 10.16 9.72 9.25 8.71 8.31 8 7.62 7.28
1282.787 7.03 6.86 6.79 6.77 6.82 6.93 7.17 7.58 8.07 8.63
1302.077 9.44 10.44 11.64 13.11 14.88 17.12 19.9 23.32 27.44 32.3
1321.367 37.98 44.31 51.04 57.9 64.4 70.13 74.87 78.33 80.51 81.54
1340.657 81.24 79.32 75.92 71.44 66.24 60.21 53.11 45.51 38.32 32.44
1359.947 28.19 25.38 23.67 22.73 22.38 22.57 22.62 21.75 20.35 18.84
1379.237 17.58 16.72 15.91 15.02 14.01 12.89 11.66 10.65 9.86 9.03
1398.527 8.12 7.39 7 6.59 5.99 5.21 4.43 3.76 3.24 2.81
1417.817 2.49 2.33 2.19 2.09 2.08 2.06 2.06 2.07 2.17 2.35
1437.107 2.48 2.56 2.72 2.99 3.25 3.49 3.64 3.78 4 4.18
1456.397 4.36 4.48 4.56 4.7 4.86 4.98 4.96 4.87 4.8 4.69
1475.687 4.62 4.54 4.43 4.33 4.15 3.91 3.72 3.56 3.28 2.96
1494.977 2.69 2.47 2.34 2.19 2.01 1.9 1.83 1.72 1.64 1.56
1514.267 1.52 1.53 1.56 1.57 1.54 1.53 1.61 1.71 1.86 1.9
1533.557 1.94 2.08 2.18 2.32 2.48 2.64 2.79 2.99 3.23 3.61
1552.847 4.06 4.65 5.46 6.6 8.13 9.97 12.17 14.49 16.63 18.32
1572.137 19.61 20.78 22.44 23.73 23.58 23.36 23.58 23.36 22.33 20.58
1591.427 18.55 16.57 14.75 13.22 11.9 10.7 9.77 8.86 7.99 7.23
1610.717 6.44 5.71 5.16 4.66 4.18 3.73 3.39 3.24 3.02 2.82
1630.007 2.59 2.29 2.17 2.13 2.02 1.95 1.97 1.95 1.92 1.94
1649.297 1.97 1.9 1.8 1.84 1.92 1.94 1.93 1.95 1.95 2
1668.587 2.14 2.2 2.27 2.4 2.57 2.7 2.81 2.88 3 3.23
1687.877 3.33 3.4 3.5 3.61 3.7 3.69 3.74 3.91 4 4.09
1707.167 4.26 4.41 4.63 4.9 5.18 5.54 6.03 6.67 7.49 8.6
1726.457 10.02 11.88 14.34 17.29 21.06 25.47 30.5 36.32 42.6 49.47
1745.747 56.45 63.17 69.45 75.13 79.52 82.13 83.05 83.09 82.83 81.13
1765.037 76.59 70.17 63.05 55.69 48.07 40.74 33.81 27.46 21.97 17.43
1784.327 13.84 11.06 8.96 7.45 6.35 5.52 4.97 4.55 4.26 4.08
1803.617 3.89 3.76 3.71 3.7 3.7 3.73 3.71 3.69 3.75 3.81
1822.907 3.83 3.83 3.77 3.67 3.62 3.52 3.4 3.29 3.11 3
1842.197 2.86 2.7 2.59 2.46 2.32 2.18 2.11 2.03 1.99 1.92
1861.487 1.8 1.74 1.68 1.68 1.63 1.55 1.52 1.4166 1.3229 1.3386
1880.777 1.3338 1.3021 1.2741 1.2039 1.1332 1.1104 1.0807 1.0453 1.0159 0.975
1900.067 0.95 0.9242 0.9008 0.8581 0.8414 0.8433 0.7988 0.776 0.8099 0.8419
1919.357 0.8465 0.8223 0.798 0.8306 0.8724 0.8699 0.7928 0.7569 0.8495 0.9005
1938.647 0.9209 0.9251 0.9106 0.9206 0.9199 0.9441 0.9653 0.9369 0.8659 0.8105
1957.937 0.789 0.8234 0.813 0.749 0.7544 0.7905 0.7748 0.7469 0.739 0.7502
1977.227 0.7577 0.7698 0.7812 0.7839 0.7731 0.7778 0.8124 0.8296 0.771 0.7446
1996.517 0.8224 0.8215 0.8051 0.822 0.8098 0.7391 0.7055 0.7789 0.8158 0.7889
2015.807 0.7929 0.8355 0.7928 0.7375 0.7114 0.6805 0.7228 0.7314 0.7404 0.7222
2035.097 0.7214 0.6865 0.6381 0.6876 0.7072 0.685 0.6465 0.6286 0.6105 0.6245
2054.387 0.6457 0.6124 0.5947 0.6609 0.6702 0.6355 0.672 0.6479 0.6072 0.6057
2073.677 0.6045 0.6343 0.6625 0.6874 0.6089 0.54462 0.5529 0.5532 0.5684 0.6034
2092.967 0.6306 0.6232 0.6323 0.6471 0.6555 0.6219 0.6465 0.6766 0.6665 0.6836
2112.257 0.641 0.5949 0.6228 0.6301 0.5729 0.54535 0.5695 0.5729 0.583 0.5932
2131.547 0.5608 0.559 0.6051 0.6112 0.6182 0.6383 0.5829 0.5516 0.5742 0.5863
2150.837 0.6014 0.6469 0.6428 0.622 0.6004 0.5709 0.6015 0.5627 0.54363 0.5689
2170.127 0.5867 0.6136 0.6154 0.5989 0.6214 0.6441 0.6223 0.6104 0.5855 0.5758
2189.417 0.6033 0.5995 0.54876 0.5594 0.598 0.6188 0.5906 0.574 0.5827 0.52766
2208.707 0.52226 0.5868 0.6137 0.5956 0.5878 0.6437 0.6506 0.6322 0.6194 0.6024
2227.997 0.6725 0.7442 0.7665 0.752 0.79 0.8294 0.8137 0.7817 0.7997 0.8413
2247.287 0.8844 0.8905 0.9052 0.9742 0.934 0.8544 0.8243 0.8426 0.8602 0.8749
2266.577 0.9416 0.8806 0.8503 0.9483 1.0192 1.0986 1.1055 1.1051 1.1581 1.1838
2285.868 1.2678 1.3616 1.4434 1.49 1.51 1.53 1.56 1.7 1.86 1.92
2305.158 1.93 2.04 2.14 2.26 2.41 2.48 2.59 2.71 2.73 2.76
2324.448 2.83 2.82 2.83 2.85 2.84 2.79 2.67 2.71 2.74 2.66
2343.738 2.6 2.49 2.29 2.36 2.63 2.92 3.11 3.26 3.48 3.54
2363.028 3.56 3.57 3.46 3.33 3.18 2.96 2.68 2.38 2.02 1.64
2382.318 1.3766 1.1049 0.8673 0.8141 0.7723 0.6961 0.6204 0.5859 0.52676 0.51366
2401.608 0.50707 0.49495 0.5315 0.54232 0.5788 0.5733 0.50512 0.53511 0.5602 0.48215
2420.898 0.44313 0.451448 0.5631 0.6175 0.5932 0.5964 0.563 0.452536 0.4386 0.5565
2440.188 0.5571 0.5159 0.48399 0.44675 0.44448 0.46028 0.46202 0.44035 0.4387 0.4127
2459.478 0.3692 0.3575 0.3994 0.3959 0.3616 0.4322 0.48431 0.4256 0.4311 0.44103
2478.768 0.4373 0.51749 0.50203 0.3883 0.301 0.31 0.3975 0.46529 0.4212 0.3893
2498.058 0.4316 0.4235 0.324 0.263 0.28 0.275 0.283 0.316 0.3504 0.3947
2517.348 0.4081 0.3645 0.3778 0.3864 0.35 0.4124 0.413 0.3969 0.4303 0.4217
2536.638 0.3796 0.3734 0.3753 0.315 0.306 0.258 0.28 0.345 0.3653 0.433
2555.928 0.4295 0.450276 0.44741 0.4244 0.457759 0.4316 0.3528 0.307 0.323 0.4052
2575.218 0.455454 0.4147 0.3838 0.4129 0.4835 0.47527 0.4257 0.454774 0.50622 0.450345
2594.508 0.4135 0.4151 0.4059 0.47346 0.53044 0.52798 0.47425 0.47375 0.54914 0.52505
2613.798 0.45523 0.49651 0.5677 0.48522 0.438 0.44419 0.449554 0.54615 0.52294 0.46121
2633.088 0.47446 0.48915 0.50384 0.51112 0.49606 0.46635 0.4172 0.4253 0.457853 0.421
2652.378 0.3545 0.3881 0.46244 0.53364 0.5226 0.47859 0.53143 0.54504 0.5757 0.51618
2671.668 0.48988 0.456441 0.4259 0.48639 0.4099 0.3759 0.46375 0.49586 0.4085 0.3628
2690.958 0.435 0.4111 0.3667 0.4244 0.48191 0.455128 0.47379 0.47641 0.48659 0.50131
2710.248 0.52735 0.5124 0.438 0.3717 0.311 0.3844 0.52529 0.6212 0.58 0.53543
2729.538 0.51815 0.49115 0.4847 0.51118 0.49224 0.50506 0.5773 0.6089 0.6081 0.5572
2748.828 0.53296 0.49769 0.44327 0.54002 0.54854 0.457474 0.54298 0.5581 0.5088 0.5628
2768.118 0.6364 0.6624 0.6735 0.7174 0.6996 0.6132 0.53315 0.5432 0.6363 0.7329
2787.408 0.7098 0.6509 0.589 0.5892 0.6782 0.6737 0.6483 0.6636 0.6357 0.6577
2806.698 0.7082 0.7478 0.7372 0.7029 0.7592 0.8218 0.8114 0.8306 0.9895 0.983
2825.988 0.9504 1.037 1.0728 1.1021 1.0897 1.0561 1.1589 1.1972 1.1175 1.2108
2845.278 1.2573 1.2539 1.396 1.55 1.67 1.77 1.85 1.94 2.06 2.14
2864.568 2.29 2.48 2.52 2.58 2.77 2.96 3.13 3.2 3.28 3.48
2883.858 3.75 3.9 3.93 4.04 4.18 4.4 4.61 4.64 4.77 4.98
2903.148 5.08 5.24 5.39 5.52 5.67 5.84 6.05 6.17 6.37 6.69
2922.438 7 7.3 7.56 7.91 8.36 8.75 9.07 9.31 9.54 9.72
2941.728 9.82 9.94 9.79 9.48 9.36 9.34 9.36 9.45 9.54 9.72
2961.018 10.32 11.09 11.98 12.9 13.87 15.09 16.54 18.05 19.21 20.05
2980.308 20.75 21.38 21.91 21.61 20.2 18.64 17.4 16.2 14.95 13.51
2999.598 11.86 10.21 8.82 7.68 6.74 6.01 5.46 5 4.58 4.14
3018.888 3.7 3.36 2.98 2.52 2.17 1.9 1.71 1.46 1.1778 1.0995
3038.178 0.9615 0.813 0.7709 0.7248 0.641 0.678 0.7364 0.54388 0.6276 0.8689
3057.468 0.7991 0.7176 0.6964 0.8432 0.9107 0.8362 0.7667 0.7482 0.8053 0.8939
3076.758 0.9748 0.9176 0.9144 0.9199 0.9334 0.8955 0.8804 0.9978 1.0831 1.005
3096.048 0.9218 0.946 0.9093 0.9586 0.9672 0.8792 0.8964 0.8082 0.6193 0.6545
3115.338 0.6395 0.49286 0.49552 0.47764 0.51723 0.6695 0.7021 0.5817 0.53529 0.4342
3134.628 0.49329 0.7307 0.7555 0.6804 0.6536 0.586 0.51832 0.50642 0.52956 0.5529
3153.918 0.51928 0.6071 0.5736 0.607 0.6675 0.52908 0.44174 0.50129 0.6896 0.6371
3173.208 0.51603 0.52164 0.53257 0.4949 0.4201 0.52309 0.5956 0.46573 0.356 0.46429
3192.498 0.5533 0.554 0.44887 0.289 0.21 0.311 0.428 0.343 0.3992 0.4055
3211.788 0.3959 0.3834 0.349 0.3725 0.308 0.3878 0.4811 0.407 0.44639 0.48621
3231.078 0.449785 0.453011 0.3742 0.427 0.5738 0.5841 0.6362 0.5521 0.384 0.4003
3250.368 0.46204 0.435 0.3945 0.4199 0.22 0.119 0.227 0.278 0.295 0.337
3269.658 0.44512 0.4236 0.305 0.279 0.258 0.24 0.167 0.136 0.271 0.247
3288.948 0.182 0.267 0.207 0.156 0.222 0.208 0.305 0.306 0.092 0.098
3308.238 0.28 0.293 0.225 0.258 0.259 0.287 0.4161 0.3515 0.234 0.23
3327.528 0.224 0.252 0.228 0.191 0.246 0.314 0.358 0.3855 0.269 0.221
3346.818 0.327 0.272 0.277 0.335 0.258 0.228 0.176 0.095 0.221 0.3991
3366.108 0.34 0.188 0.091 0.094 0.235 0.3579 0.4151 0.328 0.252 0.306
3385.398 0.298 0.255 0.329 0.449967 0.4256 0.343 0.349 0.426 0.48888 0.52198
3404.688 0.5664 0.5989 0.6894 0.9199 1.0696 1.1846 1.3053 1.4008 1.53 1.8
3423.978 2.06 2.34 2.64 2.76 3.17 3.57 3.92 4.37 4.65 4.93
3443.269 5.22 5.5 5.84 5.98 6.12 6.55 6.74 6.67 6.64 6.4
3462.559 6.02 5.74 5.42 5.06 4.63 4.29 3.87 3.39 2.96 2.37
3481.849 1.95 1.6 1.4066 1.3217 1.241 1.1463 0.9449 0.8721 0.8951 0.9947
3501.139 1.0508 1.1318 1.3387 1.2914 1.2274 1.4099 1.68 1.79 1.76 1.75
3520.429 1.7 1.9 2.17 2.51 2.7 2.65 2.75 3.03 3.4 3.55
3539.719 3.7 3.91 4.12 4.3 4.26 4.35 4.68 4.95 5.03 5.09
3559.009 5.25 5.31 5.22 5.36 5.56 5.58 5.63 5.67 5.71 5.64
3578.299 5.65 5.7 5.27 4.94 4.86 4.45 3.99 3.77 3.39 2.81
3597.589 2.37 1.89 1.45 1.2429 0.8865 0.6487 0.6146 0.44312 0.45704 0.6408
3616.879 0.451715 0.4341 0.6231 0.48468 0.3861 0.45104 0.44038 0.312 0.227 0.347
3636.169 0.5711 0.4161 0.258 0.4027 0.48312 0.456389 0.3702 0.453203 0.459883 0.307
3655.459 0.3616 0.50831 0.457948 0.3907 0.3819 0.296 0.318 0.417 0.307 0.202
3674.749 0.31 0.3693 0.3709 0.3896 0.322 0.141 0.116 0.261 0.3967 0.3539
3694.039 0.252 0.328 0.256 0.143 0.255 0.324 0.33 0.342 0.3975 0.326
3713.329 0.217 0.267 0.208 0.191 0.313 0.284 0.26 0.347 0.334 0.258
3732.619 0.102 0.116 0.258 0.3557 0.44104 0.4366 0.46105 0.4019 0.238 0.236
3751.909 0.3796 0.3748 0.245 0.24 0.333 0.296 0.228 0.289 0.191 0.133
3771.199 0.258 0.293 0.261 0.163 0.165 0.006 0.013 0.168 0.114 0.185
3790.489 0.135 0.117 0.305 0.292 0.231 0.272 0.201 0.057 0.033 0.078
3809.779 0.214 0.295 0.331 0.285 0.231 0.234 0.165 0.174 0.263 0.316
3829.069 0.202 0.303 0.4258 0.3761 0.322 0.176 0.091 0.072 0.096 0.11
3848.359 0.138 0.24 0.205 0.217 0.248 0.285 0.317 0.129 0.183 0.275
3867.649 0.044 0 0.206 0.294 0.133 0.016 0.006 0.142 0.259 0.259
3886.939 0.309 0.25 0.277 0.261 0.172 0.251 0.175 0.199 0.336 0.306
3906.229 0.299 0.313 0.3831 0.44869 0.53792 0.47849 0.3751 0.377 0.21 0.211
3925.519 0.4273 0.343 0.272 0.4022 0.313 0.283 0.3979 0.45539 0.313 0.212
3944.809 0.316 0.329 0.294 0.4044 0.52399 0.4008 0.3764 0.4086 0.4184 0.51139
3964.099 0.52113 0.46224 0.4238 0.46321 0.578 0.4217 0.52133 0.51146 0.346 0.5592
3983.389 0.6005 0.7007 0.5265 0.4375 0.6778 0.6791 0.54012 0.3918 0.3738 0.3726
##END=
