##TITLE=12-Chloro-5-dodecyne
##JCAMP-DX=4.24
##DATA TYPE=INFRARED SPECTRUM
##ORIGIN=NIST Mass Spectrometry Data Center
##OWNER=NIST Standard Reference Data Program
Collection (C) 2018 copyright by the U.S. Secretary of Commerce
on behalf of the United States of America. All rights reserved.
##CAS REGISTRY NO=42513-36-0
##MOLFORM=C 12 H 21 Cl
##$NIST SOURCE=MSDC-IR
##SPECTROMETER/DATA SYSTEM=HP-GC/MS/IRD
##STATE=gas
##XUNITS=1/CM
##YUNITS=ABSORBANCE
##XFACTOR=1.0
##YFACTOR=0.000004400
##DELTAX=4.0
##FIRSTX=550.0
##LASTX=3846.0
##FIRSTY=0.002763
##MAXX=3846
##MINX=550
##MAXY=0.044
##MINY=0
##NPOINTS=825
##XYDATA=(X++(Y..Y))
550.0 628 253 16 64 35 30 22 19 28 41
590.0 24 7 18 27 27 38 54 58 62 87
630.0 103 111 142 183 239 305 377 460 491 445
670.0 345 244 205 190 182 176 181 206 227 258
710.0 299 349 420 502 591 690 765 785 763 694
750.0 596 509 441 378 319 278 240 214 191 185
790.0 180 170 154 140 145 137 132 125 112 116
830.0 113 111 105 107 111 111 112 116 116 106
870.0 94 92 94 97 95 94 95 94 105 110
910.0 110 110 117 131 133 131 132 131 131 126
950.0 130 131 130 126 124 125 123 114 107 114
990.0 118 117 114 105 94 87 85 76 73 85
1030.0 93 93 95 97 93 89 93 102 103 96
1070.0 99 102 103 99 92 90 97 105 105 92
1110.0 79 70 71 65 54 54 53 53 56 52
1150.0 48 57 62 64 63 62 61 67 72 79
1190.0 86 90 99 114 120 117 126 135 140 157
1230.0 174 196 219 247 275 300 324 344 369 404
1270.0 457 524 606 699 768 800 816 834 842 830
1310.0 823 843 901 992 1102 1164 1121 992 848 762
1350.0 726 687 632 570 497 426 384 349 328 311
1390.0 283 256 229 212 212 225 252 297 355 441
1430.0 592 807 1009 1122 1194 1230 1255 1214 1107 976
1470.0 827 671 510 388 311 255 219 186 162 171
1510.0 147 123 132 127 108 98 95 112 114 85
1550.0 75 88 110 83 58 54 59 59 46 40
1590.0 41 40 36 35 35 35 46 50 39 33
1630.0 33 49 44 34 44 65 65 35 28 34
1670.0 41 40 34 55 55 29 44 65 51 31
1710.0 26 36 45 28 17 31 46 35 23 24
1750.0 28 24 22 26 27 33 27 13 13 12
1790.0 21 22 18 17 9 11 15 12 13 16
1830.0 16 10 7 14 17 11 7 7 8 11
1870.0 14 6 3 4 6 7 4 2 3 4
1910.0 5 5 6 4 4 8 7 5 4 5
1950.0 5 1 1 3 4 0 3 8 7 3
1990.0 4 6 7 11 11 10 15 16 18 19
2030.0 17 19 21 19 15 19 20 17 16 13
2070.0 12 15 13 14 11 5 6 7 10 12
2110.0 13 13 9 16 14 10 9 10 9 7
2150.0 10 12 11 8 11 14 9 7 7 6
2190.0 8 10 7 8 10 15 16 14 18 16
2230.0 13 13 13 17 12 7 8 11 13 14
2270.0 13 14 16 16 16 15 15 18 19 16
2310.0 11 10 6 9 8 2 0 1 6 11
2350.0 10 8 7 2 3 10 12 11 13 19
2390.0 18 17 22 23 17 16 21 19 18 26
2430.0 24 21 18 16 12 13 14 10 10 11
2470.0 10 8 9 12 11 7 7 11 12 12
2510.0 16 22 26 31 30 28 27 26 24 27
2550.0 31 29 32 36 33 36 40 40 42 49
2590.0 59 59 56 54 51 47 49 53 62 68
2630.0 69 75 80 90 100 99 104 110 111 116
2670.0 117 114 116 120 118 115 104 101 103 100
2710.0 100 104 109 112 111 111 118 126 135 149
2750.0 155 155 153 159 169 176 177 185 194 202
2790.0 211 228 253 279 302 322 357 403 448 514
2830.0 594 706 873 1110 1425 1797 2188 2607 3032 3357
2870.0 3466 3352 3127 2916 2736 2605 2565 2649 2894 3271
2910.0 3754 4336 5022 5859 6901 8075 9171 9918 10000 9263
2950.0 7959 6697 5903 5491 5141 4613 3893 3113 2432 1968
2990.0 1691 1537 1401 1197 960 759 634 547 483 433
3030.0 383 341 308 281 256 235 220 204 186 173
3070.0 170 161 151 148 140 127 125 121 113 107
3110.0 103 97 94 92 88 84 77 76 77 78
3150.0 77 77 76 77 75 65 64 70 72 62
3190.0 55 57 62 69 57 46 49 40 43 42
3230.0 36 39 38 31 31 32 29 28 28 31
3270.0 30 28 33 39 34 26 26 29 29 22
3310.0 33 40 34 33 34 33 26 26 26 26
3350.0 31 33 30 23 22 23 18 20 22 15
3390.0 13 15 20 31 23 15 24 29 29 28
3430.0 32 29 30 29 30 35 25 17 19 19
3470.0 18 16 19 21 23 19 13 13 14 18
3510.0 15 10 13 15 14 14 15 15 18 17
3550.0 7 10 16 18 22 13 5 9 18 25
3590.0 29 28 33 33 32 42 41 38 39 46
3630.0 54 41 34 39 47 56 52 49 36 39
3670.0 55 66 57 37 50 59 45 46 40 34
3710.0 53 56 45 42 45 51 63 65 73 87
3750.0 80 72 52 40 41 38 41 43 42 50
3790.0 50 46 54 65 64 49 56 72 65 55
3830.0 55 60 60 56 56
##END=
