##TITLE=Triacetoxymethylsilane
##JCAMP-DX=4.24
##DATA TYPE=INFRARED SPECTRUM
##ORIGIN=EPA-IR VAPOR PHASE LIBRARY
##OWNER=SRD/NIST
Collection (C) 2018 copyright by the U.S. Secretary of Commerce
on behalf of the United States of America. All rights reserved.
##CAS REGISTRY NO=4253-34-3
##MOLFORM=C 7 H 12 O 6 Si
##$NIST SOURCE=MSDC-IR
##STATE=gas
##XUNITS=1/CM
##YUNITS=ABSORBANCE
##XFACTOR=1.
##YFACTOR=0.001
##DELTAX=1.92934
##FIRSTX=549.9
##LASTX=3999.5
##FIRSTY=0.92004
##MAXX=3999.53
##MINX=549.863
##MAXY=0.05513
##MINY=0
##NPOINTS=1789
##XYDATA=(X++(Y..Y))
549.863 0.92004 0.98988 1.0524 1.0677 1.0425 1.1549 1.0951 0.94164 1.1377 1.279
569.156 1.3799 1.4315 1.5694 1.7747 1.8637 1.98 2.15 2.19 2.3 2.48
588.450 2.66 2.85 2.76 2.76 2.8 2.67 2.52 2.32 2.23 2.25
607.743 2.21 2.24 2.24 2.25 2.42 2.61 2.78 2.91 2.99 3.07
627.037 3.13 3.12 3.04 2.83 2.57 2.34 2.1 1.94 1.9003 1.8899
646.330 1.8074 1.69 1.6112 1.6177 1.6538 1.5905 1.5774 1.6074 1.59 1.6017
665.624 1.6505 1.6404 1.6363 1.6175 1.623 1.7114 1.6398 1.5589 1.5554 1.4882
684.917 1.4219 1.4515 1.5497 1.5711 1.5316 1.5201 1.5606 1.6082 1.6347 1.6748
704.210 1.6678 1.6148 1.6244 1.6619 1.7586 1.9007 1.98 2.04 2.04 2.05
723.504 2.26 2.42 2.44 2.48 2.59 2.61 2.67 2.8 2.76 2.71
742.797 2.77 2.79 2.76 2.77 2.77 2.79 2.8 2.79 2.76 2.73
762.091 2.74 2.75 2.83 2.9 2.97 3.07 3.18 3.43 3.68 3.88
781.384 4.15 4.49 4.91 5.36 5.79 6.15 6.57 7.08 7.55 8.01
800.678 8.47 8.92 9.32 9.83 10.43 10.98 11.49 11.9 12.18 12.24
819.971 12.13 11.87 11.41 10.81 10.22 9.64 9.04 8.51 7.96 7.42
839.264 6.91 6.42 5.98 5.53 5.15 4.81 4.44 4.15 3.88 3.74
858.558 3.63 3.42 3.3 3.24 3.27 3.21 3.11 3.04 3.01 3.05
877.851 2.97 2.94 3 3.05 3.1 3.07 3.07 3.17 3.19 3.19
897.145 3.26 3.37 3.5 3.59 3.67 3.9 4.16 4.35 4.56 4.81
916.438 5.16 5.54 5.96 6.46 6.98 7.65 8.49 9.4 10.46 11.68
935.732 13.06 14.65 16.44 18.41 20.43 22.43 24.38 26.02 27.12 27.66
955.025 27.49 26.63 25.23 23.39 21.34 19.18 17.1 15.3 13.7 12.34
974.318 11.34 10.62 10.06 9.63 9.31 9.16 9.17 9.33 9.52 9.77
993.612 10.15 10.6 11.18 11.88 12.72 13.75 14.95 16.4 17.92 19.46
1012.905 20.87 22.03 22.91 23.3 23.24 22.74 21.76 20.38 18.76 17.12
1032.199 15.52 14 12.66 11.42 10.35 9.6 8.98 8.38 7.86 7.5
1051.492 7.21 6.85 6.51 6.23 6.01 5.82 5.67 5.57 5.47 5.41
1070.786 5.42 5.45 5.56 5.61 5.54 5.52 5.55 5.58 5.53 5.43
1090.079 5.31 5.16 5.01 4.85 4.76 4.64 4.42 4.23 4.03 3.89
1109.372 3.79 3.61 3.43 3.41 3.43 3.34 3.28 3.21 3.12 3.1
1128.666 3.11 3.1 3.17 3.26 3.29 3.33 3.29 3.35 3.54 3.74
1147.959 3.85 4.05 4.33 4.54 4.86 5.15 5.46 5.81 6.26 6.75
1167.253 7.48 8.36 9.23 10.26 11.44 12.85 14.42 16.21 18.3 20.65
1186.546 23.27 26.23 29.26 32.55 36.17 39.81 43.33 46.79 49.94 52.36
1205.840 53.96 54.86 55.13 54.54 53.12 50.83 48.1 45.26 41.57 38.1
1225.133 34.96 31.56 28.49 25.73 23.09 20.68 18.95 17.64 16.36 15.5
1244.426 14.97 14.52 14.2 14.01 13.84 13.61 13.41 13.14 12.78 12.36
1263.720 11.99 11.85 11.9 12.08 12.4 12.61 12.98 13.31 12.85 11.57
1283.013 10.19 8.95 7.73 6.53 5.44 4.65 4.08 3.58 3.24 3.09
1302.307 2.94 2.84 2.71 2.58 2.5 2.41 2.36 2.32 2.22 2.2
1321.600 2.23 2.22 2.2 2.18 2.22 2.28 2.29 2.31 2.33 2.34
1340.894 2.44 2.52 2.61 2.76 2.95 3.17 3.43 3.86 4.46 5.22
1360.187 6.13 7.37 9.03 10.94 12.81 14.47 15.81 16.48 16.35 15.49
1379.480 13.91 11.91 9.89 8.06 6.55 5.49 4.73 4.22 3.84 3.61
1398.774 3.48 3.41 3.36 3.31 3.28 3.24 3.18 3.13 3.15 3.02
1418.067 2.88 2.89 2.88 2.81 2.81 2.76 2.7 2.7 2.61 2.54
1437.361 2.53 2.47 2.42 2.4 2.28 2.11 2.02 2.01 1.8842 1.7653
1456.654 1.6622 1.5893 1.5819 1.5654 1.524 1.4243 1.3754 1.3564 1.2677 1.2709
1475.948 1.3258 1.3256 1.3074 1.2646 1.2523 1.2845 1.2627 1.1883 1.1913 1.2306
1495.241 1.2044 1.1978 1.2434 1.2118 1.1571 1.109 0.99009 0.97704 1.1342 1.2504
1514.534 1.1862 1.1468 1.1441 1.1059 1.1394 1.149 1.1726 1.2189 1.1914 1.1559
1533.828 1.1725 1.1922 1.1597 1.0862 1.1044 1.1732 1.1824 1.202 1.2378 1.2567
1553.121 1.25 1.2254 1.1512 1.0768 1.1809 1.2653 1.2635 1.2653 1.2403 1.2733
1572.415 1.3001 1.2605 1.2835 1.315 1.3483 1.3598 1.3622 1.3356 1.295 1.3011
1591.708 1.272 1.2772 1.3176 1.2993 1.295 1.3154 1.2495 1.2353 1.2617 1.3091
1611.002 1.3269 1.3062 1.2756 1.2557 1.344 1.3497 1.3245 1.3631 1.3718 1.4029
1630.295 1.4643 1.5054 1.4831 1.4628 1.5033 1.5332 1.5383 1.4792 1.3977 1.4049
1649.588 1.4114 1.2633 1.2229 1.35 1.4419 1.5209 1.5055 1.4371 1.4328 1.4464
1668.882 1.4385 1.4743 1.5486 1.5882 1.6048 1.5951 1.5806 1.5769 1.5947 1.6596
1688.175 1.7096 1.7736 1.8444 1.896 1.97 2.03 2.04 2.17 2.32 2.4
1707.469 2.55 2.74 2.89 3.02 3.14 3.31 3.54 3.82 4.08 4.3
1726.762 4.56 4.97 5.38 5.76 6.32 7.14 8.12 9.26 10.68 12.46
1746.056 14.56 16.96 19.49 22.22 24.95 27.41 29.6 31.32 32.38 32.88
1765.349 32.81 32.06 30.76 28.89 26.57 24.2 21.81 19.54 17.51 15.8
1784.642 14.37 13.15 12.17 11.35 10.65 10.03 9.47 8.96 8.5 7.99
1803.936 7.48 6.99 6.42 5.87 5.39 4.93 4.45 4.06 3.74 3.42
1823.229 3.17 2.93 2.69 2.51 2.4 2.31 2.17 2.03 1.95 1.9052
1842.523 1.8383 1.7513 1.7067 1.6848 1.6604 1.6439 1.6294 1.5889 1.5812 1.5101
1861.816 1.436 1.458 1.4406 1.363 1.3534 1.3899 1.3492 1.349 1.3518 1.3618
1881.110 1.3788 1.3207 1.3024 1.312 1.284 1.2645 1.2429 1.2558 1.2472 1.1567
1900.403 1.1218 1.1418 1.1112 1.1113 1.0964 1.0749 1.1047 1.109 1.1042 1.0554
1919.696 1.0552 1.0457 1.00113 0.9858 0.99324 1.01216 1.035 1.02062 1.00358 1.01748
1938.990 1.01574 1.0341 0.99347 0.95848 0.98618 1.0061 0.97974 0.95917 1.00723 1.0327
1958.283 0.99707 0.95286 0.94036 0.92549 0.9002 0.94974 0.97211 0.9167 0.9129 0.9221
1977.577 0.9107 0.9179 0.8885 0.8826 0.9018 0.901 0.9003 0.9103 0.8916 0.875
1996.870 0.9098 0.8981 0.8995 0.9003 0.8917 0.9182 0.9082 0.9155 0.9088 0.8855
2016.164 0.9132 0.886 0.8393 0.8522 0.8539 0.8447 0.8387 0.814 0.802 0.809
2035.457 0.8334 0.809 0.771 0.802 0.812 0.79 0.775 0.759 0.765 0.794
2054.750 0.804 0.782 0.749 0.747 0.739 0.707 0.741 0.739 0.714 0.776
2074.044 0.786 0.746 0.735 0.737 0.703 0.684 0.737 0.763 0.756 0.73
2093.337 0.692 0.681 0.707 0.737 0.743 0.744 0.717 0.716 0.753 0.737
2112.631 0.705 0.72 0.69 0.65 0.677 0.685 0.691 0.729 0.714 0.705
2131.924 0.735 0.745 0.731 0.713 0.729 0.725 0.724 0.714 0.717 0.75
2151.218 0.756 0.739 0.733 0.754 0.761 0.762 0.799 0.817 0.8338 0.822
2170.511 0.768 0.749 0.75 0.748 0.74 0.749 0.739 0.739 0.724 0.728
2189.804 0.767 0.775 0.784 0.776 0.755 0.743 0.711 0.685 0.728 0.786
2209.098 0.76 0.721 0.711 0.729 0.749 0.712 0.729 0.747 0.743 0.745
2228.391 0.728 0.71 0.69 0.677 0.683 0.666 0.687 0.681 0.651 0.657
2247.685 0.657 0.687 0.695 0.663 0.661 0.661 0.637 0.643 0.659 0.649
2266.978 0.667 0.661 0.661 0.726 0.728 0.669 0.633 0.635 0.66 0.68
2286.272 0.63 0.621 0.657 0.671 0.671 0.649 0.648 0.626 0.602 0.635
2305.565 0.683 0.689 0.649 0.64 0.655 0.659 0.661 0.69 0.72 0.677
2324.858 0.64 0.664 0.669 0.62 0.615 0.657 0.644 0.61 0.586 0.593
2344.152 0.59 0.577 0.605 0.603 0.603 0.598 0.58 0.581 0.578 0.568
2363.445 0.601 0.633 0.608 0.587 0.64 0.646 0.603 0.6 0.623 0.613
2382.739 0.579 0.612 0.631 0.602 0.589 0.589 0.595 0.584 0.625 0.661
2402.032 0.623 0.625 0.618 0.613 0.633 0.665 0.644 0.595 0.592 0.615
2421.326 0.638 0.602 0.588 0.619 0.646 0.628 0.595 0.604 0.627 0.617
2440.619 0.579 0.59 0.616 0.642 0.626 0.582 0.596 0.591 0.59 0.585
2459.912 0.609 0.617 0.582 0.565 0.561 0.577 0.569 0.548 0.548 0.55
2479.206 0.548 0.548 0.565 0.572 0.543 0.524 0.517 0.556 0.587 0.554
2498.499 0.531 0.489 0.487 0.505 0.493 0.501 0.526 0.538 0.514 0.456
2517.793 0.408 0.467 0.515 0.526 0.552 0.52 0.479 0.518 0.523 0.504
2537.086 0.481 0.436 0.461 0.478 0.456 0.463 0.436 0.439 0.483 0.461
2556.380 0.474 0.506 0.449 0.438 0.456 0.461 0.512 0.428 0.378 0.49
2575.673 0.478 0.431 0.455 0.482 0.49 0.492 0.505 0.48 0.444 0.456
2594.966 0.457 0.47 0.473 0.441 0.495 0.463 0.404 0.411 0.378 0.392
2614.260 0.398 0.357 0.42 0.45 0.366 0.376 0.416 0.432 0.429 0.337
2633.553 0.333 0.405 0.372 0.368 0.396 0.433 0.427 0.393 0.423 0.433
2652.847 0.409 0.397 0.398 0.429 0.421 0.392 0.417 0.376 0.346 0.396
2672.140 0.474 0.463 0.417 0.459 0.448 0.404 0.336 0.296 0.345 0.383
2691.434 0.396 0.357 0.352 0.357 0.332 0.403 0.428 0.381 0.401 0.438
2710.727 0.452 0.408 0.329 0.273 0.224 0.249 0.292 0.298 0.327 0.367
2730.020 0.391 0.344 0.325 0.309 0.302 0.316 0.293 0.333 0.317 0.306
2749.314 0.313 0.309 0.352 0.284 0.19 0.231 0.264 0.342 0.396 0.327
2768.607 0.256 0.25 0.283 0.251 0.219 0.253 0.325 0.342 0.281 0.318
2787.901 0.41 0.365 0.309 0.321 0.333 0.312 0.277 0.359 0.428 0.329
2807.194 0.234 0.221 0.251 0.294 0.309 0.324 0.336 0.278 0.239 0.239
2826.488 0.33 0.344 0.277 0.324 0.341 0.337 0.313 0.288 0.274 0.233
2845.781 0.257 0.329 0.412 0.44 0.387 0.328 0.309 0.292 0.233 0.201
2865.074 0.222 0.326 0.336 0.372 0.442 0.384 0.346 0.28 0.263 0.313
2884.368 0.317 0.399 0.422 0.287 0.32 0.311 0.299 0.364 0.36 0.396
2903.661 0.452 0.483 0.501 0.483 0.524 0.501 0.448 0.485 0.454 0.383
2922.955 0.385 0.478 0.522 0.481 0.442 0.46 0.443 0.534 0.69 0.672
2942.248 0.756 0.816 0.726 0.711 0.652 0.586 0.673 0.633 0.526 0.596
2961.542 0.65 0.6 0.565 0.603 0.565 0.578 0.658 0.725 0.747 0.751
2980.835 0.807 0.8378 0.794 0.741 0.749 0.8 0.708 0.667 0.8768 0.8809
3000.128 0.77 0.736 0.69 0.62 0.57 0.611 0.6 0.577 0.616 0.698
3019.422 0.8514 1.0014 0.94224 0.96066 1.059 0.97213 0.94166 0.9189 0.98047 0.94215
3038.715 0.731 0.684 0.66 0.612 0.598 0.495 0.475 0.549 0.534 0.514
3058.009 0.392 0.447 0.52 0.561 0.612 0.499 0.401 0.277 0.289 0.484
3077.302 0.567 0.423 0.386 0.417 0.44 0.437 0.374 0.505 0.553 0.387
3096.596 0.306 0.372 0.404 0.45 0.592 0.443 0.377 0.539 0.489 0.296
3115.889 0.243 0.342 0.405 0.427 0.387 0.416 0.352 0.291 0.336 0.317
3135.182 0.362 0.269 0.216 0.234 0.238 0.313 0.46 0.459 0.266 0.289
3154.476 0.248 0.276 0.281 0.282 0.357 0.341 0.22 0.129 0.259 0.264
3173.769 0.295 0.325 0.297 0.454 0.412 0.182 0.2 0.152 0.298 0.539
3193.063 0.397 0.277 0.256 0.316 0.295 0.259 0.338 0.478 0.363 0.225
3212.356 0.411 0.349 0.384 0.517 0.359 0.25 0.284 0.385 0.318 0.148
3231.650 0.036 0 0.175 0.348 0.411 0.387 0.286 0.257 0.229 0.25
3250.943 0.301 0.176 0.085 0.086 0.222 0.191 0.093 0.188 0.32 0.292
3270.236 0.233 0.372 0.365 0.214 0.22 0.281 0.273 0.211 0.164 0.221
3289.530 0.301 0.273 0.28 0.463 0.344 0.343 0.432 0.31 0.313 0.403
3308.823 0.435 0.394 0.429 0.466 0.657 0.718 0.384 0.304 0.498 0.548
3328.117 0.465 0.46 0.523 0.485 0.42 0.336 0.389 0.439 0.415 0.576
3347.410 0.513 0.379 0.399 0.391 0.451 0.439 0.307 0.367 0.414 0.341
3366.704 0.354 0.434 0.443 0.411 0.405 0.47 0.457 0.288 0.258 0.343
3385.997 0.436 0.491 0.464 0.535 0.517 0.337 0.345 0.391 0.499 0.561
3405.290 0.428 0.438 0.415 0.408 0.478 0.459 0.437 0.471 0.69 0.704
3424.584 0.567 0.553 0.554 0.452 0.542 0.514 0.425 0.661 0.695 0.597
3443.877 0.668 0.672 0.535 0.519 0.456 0.474 0.487 0.447 0.605 0.667
3463.171 0.719 0.741 0.684 0.603 0.655 0.719 0.668 0.679 0.585 0.603
3482.464 0.713 0.728 0.719 0.689 0.768 0.8847 0.92776 0.96202 0.95972 0.91
3501.758 0.772 0.8395 0.893 0.7 0.661 0.679 0.737 0.8812 0.9142 0.8581
3521.051 0.825 0.8939 0.827 0.744 0.768 0.796 0.72 0.597 0.672 0.713
3540.344 0.804 0.888 0.801 0.731 0.827 0.9118 0.932696 0.9055 0.782 0.713
3559.638 0.796 0.8541 0.801 0.778 0.8367 0.805 0.761 0.813 0.8902 0.8303
3578.931 0.705 0.763 0.679 0.544 0.587 0.619 0.699 0.755 0.686 0.695
3598.225 0.828 0.9046 0.81 0.714 0.676 0.676 0.588 0.593 0.726 0.618
3617.518 0.464 0.558 0.684 0.67 0.585 0.542 0.626 0.61 0.582 0.632
3636.812 0.612 0.596 0.582 0.606 0.575 0.449 0.513 0.65 0.609 0.605
3656.105 0.644 0.71 0.739 0.768 0.719 0.606 0.664 0.602 0.53 0.523
3675.398 0.438 0.55 0.727 0.766 0.667 0.543 0.593 0.615 0.62 0.706
3694.692 0.708 0.752 0.8591 0.734 0.603 0.664 0.768 0.8393 0.749 0.756
3713.985 0.76 0.627 0.588 0.622 0.694 0.64 0.625 0.722 0.659 0.633
3733.279 0.634 0.561 0.687 0.649 0.543 0.62 0.551 0.516 0.573 0.552
3752.572 0.518 0.546 0.56 0.564 0.608 0.637 0.658 0.702 0.699 0.537
3771.866 0.502 0.673 0.758 0.693 0.648 0.723 0.696 0.617 0.677 0.677
3791.159 0.642 0.668 0.643 0.576 0.426 0.384 0.522 0.581 0.632 0.639
3810.452 0.62 0.689 0.63 0.567 0.646 0.657 0.602 0.594 0.642 0.69
3829.746 0.677 0.702 0.663 0.567 0.551 0.535 0.54 0.609 0.65 0.59
3849.039 0.504 0.432 0.502 0.549 0.511 0.545 0.548 0.566 0.58 0.559
3868.333 0.577 0.566 0.505 0.536 0.625 0.648 0.553 0.461 0.428 0.473
3887.626 0.605 0.631 0.66 0.635 0.531 0.505 0.506 0.571 0.614 0.701
3906.920 0.748 0.675 0.623 0.684 0.711 0.559 0.488 0.52 0.606 0.638
3926.213 0.631 0.638 0.587 0.622 0.648 0.692 0.671 0.625 0.617 0.537
3945.506 0.442 0.486 0.671 0.744 0.656 0.687 0.765 0.681 0.621 0.533
3964.800 0.572 0.569 0.549 0.648 0.639 0.576 0.562 0.533 0.498 0.629
3984.093 0.674 0.553 0.609 0.734 0.721 0.683 0.591 0.532 0.546
##END=
