##TITLE=Bifenox
##JCAMP-DX=4.24
##DATA TYPE=INFRARED SPECTRUM
##ORIGIN=NIST Mass Spectrometry Data Center
##OWNER=NIST Standard Reference Data Program
Collection (C) 2018 copyright by the U.S. Secretary of Commerce
on behalf of the United States of America. All rights reserved.
##CAS REGISTRY NO=42576-02-3
##MOLFORM=C 14 H 9 Cl 2 N O 5
##$NIST SOURCE=MSDC-IR
##SPECTROMETER/DATA SYSTEM=HP-GC/MS/IRD
##STATE=gas
##XUNITS=1/CM
##YUNITS=ABSORBANCE
##XFACTOR=1.0
##YFACTOR=0.000011500
##DELTAX=4.0
##FIRSTX=550.0
##LASTX=3846.0
##FIRSTY=0.003715
##MAXX=3846
##MINX=550
##MAXY=0.115
##MINY=0
##NPOINTS=825
##XYDATA=(X++(Y..Y))
550.0 323 339 311 271 197 149 112 90 81 72
590.0 72 55 39 34 29 18 9 6 4 9
630.0 35 63 94 157 266 368 373 304 220 151
670.0 118 99 88 89 92 98 104 121 171 288
710.0 440 465 352 247 222 259 338 457 564 626
750.0 661 688 694 672 648 623 560 486 471 596
790.0 896 1173 1100 798 604 584 700 944 1254 1481
830.0 1536 1469 1318 1102 915 833 877 987 1038 1059
870.0 1074 923 675 538 496 460 411 367 366 429
910.0 580 767 818 652 409 238 155 123 116 107
950.0 99 106 129 173 249 389 620 969 1361 1524
990.0 1287 854 505 300 195 146 124 117 127 147
1030.0 180 239 330 463 672 1022 1589 2370 3026 2988
1070.0 2219 1398 959 806 822 1041 1611 2457 2869 2404
1110.0 1694 1331 1310 1507 1746 1750 1520 1317 1151 935
1150.0 740 630 586 580 619 701 837 1043 1311 1607
1190.0 1878 2078 2173 2136 1984 1825 1789 1920 2256 2867
1230.0 3729 4427 4583 4817 5796 6826 6901 6339 5987 6166
1270.0 6922 8145 9406 10000 9352 7640 5774 4486 3847 3581
1310.0 3412 3152 2753 2312 2003 1913 2045 2396 2980 3770
1350.0 4539 4790 4242 3280 2463 1975 1725 1593 1498 1409
1390.0 1297 1178 1134 1216 1432 1717 1922 1920 1782 1692
1430.0 1783 2277 3056 3158 2476 2007 2059 2495 3393 5048
1470.0 7351 8694 7306 4713 3045 2236 1774 1491 1290 1159
1510.0 1106 1147 1268 1471 1761 2161 2694 3377 4104 4519
1550.0 4365 3863 3425 3217 3180 3244 3319 3243 2996 2822
1590.0 2814 2704 2271 1689 1271 1085 1000 904 759 599
1630.0 471 390 335 295 266 244 225 212 203 194
1670.0 185 173 160 154 149 153 159 171 193 223
1710.0 262 317 387 475 604 788 1043 1366 1754 2238
1750.0 2895 3745 4456 4445 3703 2806 2085 1532 1108 795
1790.0 570 409 304 239 195 167 146 129 121 119
1830.0 115 111 106 97 92 89 89 89 88 89
1870.0 92 99 106 108 105 99 94 91 89 79
1910.0 64 50 40 35 30 27 26 24 26 28
1950.0 28 33 39 42 44 45 45 47 48 46
1990.0 43 40 37 34 29 27 26 27 30 32
2030.0 34 36 40 43 43 42 39 36 37 37
2070.0 38 42 42 41 43 49 55 59 65 73
2110.0 75 76 74 66 56 46 38 31 26 23
2150.0 18 14 10 9 7 9 9 7 7 5
2190.0 5 5 4 5 3 1 0 2 0 0
2230.0 1 0 0 0 0 2 4 4 5 6
2270.0 5 5 5 7 7 6 8 10 12 16
2310.0 18 17 17 17 18 19 19 16 13 13
2350.0 12 11 12 11 11 17 20 26 29 28
2390.0 28 27 27 31 33 35 40 40 44 48
2430.0 49 50 48 49 51 50 49 48 49 51
2470.0 51 52 51 49 49 49 50 49 46 44
2510.0 42 41 39 33 29 27 26 26 24 21
2550.0 20 21 18 18 16 18 20 23 25 27
2590.0 30 30 33 36 33 30 28 24 22 20
2630.0 16 14 14 14 14 16 15 15 17 20
2670.0 20 24 28 26 25 23 21 21 19 20
2710.0 19 18 18 16 15 16 14 11 9 8
2750.0 8 8 7 7 8 10 6 5 7 11
2790.0 15 16 16 21 22 28 35 40 47 54
2830.0 60 72 86 103 125 137 136 130 124 119
2870.0 111 107 110 118 126 137 146 152 155 158
2910.0 155 146 137 131 129 129 135 148 172 213
2950.0 289 438 695 948 918 622 355 222 167 142
2990.0 130 131 136 148 158 166 166 164 159 158
3030.0 161 162 154 139 127 114 105 102 104 113
3070.0 128 142 148 153 148 123 90 75 65 55
3110.0 52 47 43 37 32 26 24 23 20 16
3150.0 15 18 23 22 17 16 17 17 16 14
3190.0 17 20 18 20 18 13 15 15 14 9
3230.0 7 8 5 5 7 5 3 2 3 8
3270.0 11 9 9 11 12 9 7 11 14 12
3310.0 11 14 18 16 16 14 6 5 11 11
3350.0 8 9 10 10 13 14 14 17 16 15
3390.0 17 17 11 11 18 19 16 14 17 18
3430.0 19 18 16 22 20 18 20 22 25 29
3470.0 35 37 38 43 47 50 58 65 70 69
3510.0 64 56 51 46 44 42 38 33 29 27
3550.0 22 20 21 21 23 21 20 21 24 26
3590.0 26 25 24 23 23 24 26 22 22 23
3630.0 23 24 23 24 27 30 30 31 31 30
3670.0 28 26 25 25 27 28 29 31 31 30
3710.0 33 33 29 26 32 35 31 34 36 34
3750.0 39 42 38 34 32 33 31 29 34 36
3790.0 33 27 26 28 26 26 30 32 30 29
3830.0 29 26 29 33 29
##END=
