##TITLE=4-Undecanol
##JCAMP-DX=4.24
##DATA TYPE=INFRARED SPECTRUM
##ORIGIN=NIST Mass Spectrometry Data Center
##OWNER=NIST Standard Reference Data Program
Collection (C) 2018 copyright by the U.S. Secretary of Commerce
on behalf of the United States of America. All rights reserved.
##CAS REGISTRY NO=4272-06-4
##MOLFORM=C 11 H 24 O
##$NIST SOURCE=MSDC-IR
##SPECTROMETER/DATA SYSTEM=HP-GC/MS/IRD
##STATE=gas
##XUNITS=1/CM
##YUNITS=ABSORBANCE
##XFACTOR=1.0
##YFACTOR=0.000005200
##DELTAX=4.0
##FIRSTX=550.0
##LASTX=3846.0
##FIRSTY=0.002470
##MAXX=3846
##MINX=550
##MAXY=0.052
##MINY=0
##NPOINTS=825
##XYDATA=(X++(Y..Y))
550.0 475 224 39 72 55 48 32 14 24 30
590.0 33 35 33 37 40 44 45 44 42 39
630.0 51 54 34 36 32 25 35 39 36 49
670.0 73 70 49 56 73 78 77 83 92 98
710.0 123 148 155 163 165 160 164 171 168 171
750.0 164 151 152 148 141 139 139 142 138 123
790.0 119 121 122 131 138 144 162 175 183 196
830.0 211 231 249 257 260 255 249 242 235 231
870.0 224 226 236 239 247 263 276 273 275 274
910.0 267 257 251 251 254 252 258 275 291 302
950.0 318 338 357 385 425 477 543 618 701 784
990.0 847 875 871 836 782 738 709 686 676 664
1030.0 645 622 601 588 585 585 594 607 617 616
1070.0 605 599 595 593 592 587 591 601 611 629
1110.0 646 669 700 729 745 738 711 654 583 517
1150.0 461 423 397 383 385 396 405 412 424 437
1190.0 448 464 478 493 513 524 530 541 545 542
1230.0 537 536 545 546 551 556 561 566 563 556
1270.0 550 539 532 517 498 485 474 468 465 456
1310.0 444 438 436 441 452 468 487 511 547 584
1350.0 617 648 683 710 747 777 803 840 854 817
1390.0 746 661 588 540 495 458 420 379 388 425
1430.0 459 488 557 664 745 846 901 964 1036 1014
1470.0 898 735 616 501 389 309 259 229 202 134
1510.0 135 158 121 100 120 133 119 63 50 104
1550.0 121 77 11 67 117 108 96 105 140 142
1590.0 138 135 137 133 129 125 100 89 99 109
1630.0 116 80 88 103 77 25 22 95 111 99
1670.0 81 76 88 50 47 94 62 14 38 80
1710.0 95 69 50 93 111 77 43 63 81 77
1750.0 68 78 84 83 80 56 63 86 89 89
1790.0 73 72 84 88 96 93 95 100 95 82
1830.0 79 86 91 75 71 86 93 92 90 78
1870.0 74 84 88 91 86 83 84 85 87 85
1910.0 82 80 71 75 80 82 83 80 77 81
1950.0 82 78 78 78 75 76 77 77 76 76
1990.0 72 73 74 74 75 73 74 74 76 75
2030.0 76 77 75 76 75 72 70 70 71 71
2070.0 69 68 70 68 66 66 64 62 64 63
2110.0 62 61 58 61 59 55 55 59 58 53
2150.0 53 54 55 54 54 55 55 54 55 54
2190.0 53 53 53 51 48 47 48 46 46 47
2230.0 45 46 45 46 45 46 45 46 48 47
2270.0 44 42 41 42 44 45 43 42 42 41
2310.0 41 39 37 36 36 37 39 36 35 38
2350.0 37 33 33 37 36 34 34 35 38 35
2390.0 34 35 34 33 31 29 31 28 26 27
2430.0 25 26 27 26 25 25 27 25 18 16
2470.0 18 17 18 19 21 19 17 15 14 17
2510.0 21 25 25 25 28 32 33 31 30 32
2550.0 33 34 40 44 47 47 48 51 55 56
2590.0 58 62 62 64 67 70 73 75 81 87
2630.0 87 90 94 94 98 102 106 113 118 124
2670.0 128 131 131 133 135 136 137 132 130 137
2710.0 142 141 141 144 150 158 170 179 186 186
2750.0 187 196 198 198 203 214 228 238 251 269
2790.0 285 312 336 360 390 426 470 522 582 660
2830.0 759 885 1061 1301 1630 2060 2578 3110 3545 3800
2870.0 3872 3847 3800 3715 3560 3365 3242 3309 3575 4015
2910.0 4612 5356 6277 7386 8561 9536 10000 9800 8996 7844
2950.0 6695 5894 5609 5739 5896 5595 4726 3593 2609 1939
2990.0 1504 1215 1010 855 742 650 575 515 463 425
3030.0 387 357 336 306 280 261 244 228 214 202
3070.0 190 178 165 156 147 142 139 131 125 122
3110.0 115 107 106 105 102 98 95 91 86 84
3150.0 85 85 81 81 78 73 72 72 69 68
3190.0 68 66 65 64 61 49 44 36 33 38
3230.0 38 35 40 38 34 34 32 27 27 24
3270.0 25 32 30 30 24 17 25 34 31 29
3310.0 27 25 23 23 26 26 23 28 32 29
3350.0 30 30 27 28 32 33 27 26 29 34
3390.0 41 41 36 34 33 38 38 40 41 39
3430.0 40 38 36 42 36 36 39 34 30 27
3470.0 30 32 29 29 33 37 38 32 25 24
3510.0 28 24 21 19 21 28 29 28 24 12
3550.0 14 19 21 11 2 14 26 26 23 9
3590.0 13 26 33 42 34 28 37 50 82 79
3630.0 89 149 195 238 251 279 329 336 305 224
3670.0 127 71 71 77 36 14 43 48 40 30
3710.0 5 8 23 19 17 4 2 2 2 2
3750.0 2 2 11 20 22 28 38 33 33 41
3790.0 41 32 11 0 8 20 9 1 5 23
3830.0 24 4 2 6 27
##END=
