##TITLE=1-Bromoeicosane
##JCAMP-DX=4.24
##DATA TYPE=INFRARED SPECTRUM
##ORIGIN=EPA-IR VAPOR PHASE LIBRARY
##OWNER=SRD/NIST
Collection (C) 2018 copyright by the U.S. Secretary of Commerce
on behalf of the United States of America. All rights reserved.
##CAS REGISTRY NO=4276-49-7
##MOLFORM=C 20 H 41 Br
##$NIST SOURCE=MSDC-IR
##STATE=gas
##XUNITS=1/CM
##YUNITS=ABSORBANCE
##XFACTOR=1.
##YFACTOR=0.001
##DELTAX=1.92934
##FIRSTX=549.9
##LASTX=3999.5
##FIRSTY=1.20955
##MAXX=3999.53
##MINX=549.863
##MAXY=0.60516
##MINY=0
##NPOINTS=1789
##XYDATA=(X++(Y..Y))
549.863 1.20955 1.462 1.8202 2.0342 2.35 2.82 3.31 3.93 4.63 5.15
569.156 5.43 5.33 4.89 4.41 3.85 3.18 2.62 2.1038 1.6642 1.3608
588.450 1.076 0.932 0.921 0.778 0.634 0.563 0.519 0.493 0.53 0.544
607.743 0.537 0.515 0.517 0.667 0.772 0.85 0.971 1.17268 1.3787 1.5097
627.037 1.7612 2.0427 2.36 2.79 3.21 3.68 4.29 4.95 5.54 6.08
646.330 6.61 7.05 7.18 7.01 6.46 5.77 5.02 4.17 3.5 2.93
665.624 2.45 2.0774 1.8471 1.6202 1.4099 1.4497 1.5245 1.5088 1.5419 1.5759
684.917 1.6141 1.7319 1.9184 2.19 2.44 2.75 3.1 3.46 3.94 4.54
704.210 5.18 5.8 6.4 7.06 7.71 8.3 8.72 8.98 9.14 9.21
723.504 9.09 8.81 8.48 8.14 7.87 7.56 7.24 6.94 6.68 6.43
742.797 6.21 6 5.78 5.52 5.28 5.08 4.87 4.68 4.49 4.34
762.091 4.19 4.05 3.92 3.74 3.6 3.52 3.45 3.31 3.16 3.05
781.384 2.95 2.9 2.85 2.75 2.72 2.65 2.62 2.61 2.55 2.54
800.678 2.52 2.52 2.49 2.43 2.39 2.28 2.23 2.26 2.23 2.1439
819.971 2.085 2.094 2.0787 2.0208 2.0021 2.0102 1.9041 1.8411 1.8957 1.8956
839.264 1.8727 1.8947 1.8865 1.8894 1.9045 1.8915 1.8923 1.9007 1.862 1.8576
858.558 1.8601 1.8646 1.9293 1.9118 1.8921 1.9496 1.9454 1.9096 1.9099 1.9476
877.851 1.9743 1.94 1.9609 2.0033 1.9617 1.9364 1.9628 1.9917 1.9935 1.9973
897.145 2.0009 2.0053 1.9445 1.8827 1.8323 1.8018 1.8498 1.8622 1.7971 1.7941
916.438 1.8253 1.7793 1.7433 1.7087 1.7115 1.7068 1.672 1.6849 1.6885 1.6772
935.732 1.6616 1.6186 1.5998 1.6099 1.6256 1.6045 1.6111 1.6693 1.6623 1.6503
955.025 1.6445 1.6325 1.6414 1.6234 1.6049 1.6031 1.6034 1.5934 1.5966 1.6136
974.318 1.6087 1.6237 1.6528 1.6073 1.5369 1.5245 1.5377 1.5339 1.4769 1.4585
993.612 1.5245 1.5804 1.584 1.5573 1.5456 1.5653 1.5776 1.6031 1.64 1.6644
1012.905 1.6717 1.655 1.669 1.7339 1.7866 1.7807 1.7876 1.799 1.7696 1.7952
1032.199 1.8348 1.8421 1.8632 1.862 1.8625 1.8838 1.862 1.8283 1.8777 1.8784
1051.492 1.8757 1.91 1.8817 1.859 1.8773 1.9283 1.9289 1.897 1.8561 1.8292
1070.786 1.832 1.7946 1.7412 1.7164 1.694 1.6412 1.5957 1.565 1.5307 1.4192
1090.079 1.3108 1.3451 1.2843 1.1581 1.1348 1.058 1.035 1.0981 1.048 0.973
1109.372 0.974 1.029 1.014 0.951 0.915 0.856 0.838 0.868 0.876 0.808
1128.666 0.781 0.807 0.843 0.832 0.829 0.857 0.881 0.851 0.906 1.033
1147.959 0.991 0.971 1.1049 1.1282 1.20871 1.3419 1.3842 1.3921 1.4081 1.4912
1167.253 1.609 1.7005 1.7376 1.7714 1.8887 1.9437 1.8475 1.8227 2.0702 2.35
1186.546 2.47 2.61 2.86 3.14 3.27 3.55 3.91 4.35 4.81 5.39
1205.840 6.13 6.52 7.09 7.69 8.19 8.88 9.39 10 10.73 11.09
1225.133 11.19 11.38 11.62 11.73 11.82 12.13 12.45 12.79 13.13 13.49
1244.426 13.93 14.33 14.79 15.23 15.5 15.72 15.96 16.07 16.03 15.88
1263.720 15.67 15.36 15.07 14.8 14.48 14.1 13.76 13.5 13.24 13.02
1283.013 12.77 12.56 12.5 12.45 12.41 12.42 12.41 12.37 12.32 12.29
1302.307 12.27 12.13 11.91 11.6 11.18 10.75 10.28 9.82 9.41 9.04
1321.600 8.72 8.54 8.45 8.51 8.7 9.01 9.45 10.05 10.76 11.5
1340.894 12.27 13.08 13.92 14.77 15.54 16.11 16.38 16.23 15.74 15.1
1360.187 14.43 13.77 13.18 12.61 11.97 11.22 10.4 9.59 8.92 8.41
1379.480 8.02 7.71 7.38 6.99 6.46 5.93 5.51 5.17 4.91 4.71
1398.774 4.58 4.52 4.47 4.45 4.52 4.6 4.75 4.94 5.14 5.37
1418.067 5.7 6.07 6.52 7.14 7.87 8.72 9.86 11.23 12.8 14.58
1437.361 16.62 18.89 21.35 23.73 25.85 27.7 29.48 31.26 33.15 35.13
1456.654 37.09 38.69 39.38 39 37.58 35.27 32.27 28.7 24.82 21.04
1475.948 17.71 14.85 12.57 10.74 9.24 8.08 7.17 6.37 5.72 5.21
1495.241 4.76 4.36 4.05 3.73 3.49 3.29 3.06 2.89 2.72 2.55
1514.534 2.44 2.32 2.19 2.1009 1.996 1.9097 1.8399 1.7712 1.708 1.6471
1533.828 1.6028 1.504 1.4302 1.4275 1.4104 1.3585 1.3626 1.3754 1.3036 1.22861
1553.121 1.22593 1.156 1.0895 1.1347 1.1397 1.1185 1.066 1.032 1.026 0.994
1572.415 0.983 0.972 0.936 0.891 0.895 0.894 0.85 0.868 0.884 0.891
1591.708 0.892 0.827 0.8 0.829 0.803 0.812 0.833 0.776 0.777 0.806
1611.002 0.761 0.739 0.727 0.733 0.758 0.769 0.779 0.789 0.774 0.759
1630.295 0.772 0.757 0.746 0.732 0.718 0.705 0.725 0.746 0.699 0.68
1649.588 0.7 0.726 0.735 0.707 0.692 0.69 0.683 0.685 0.688 0.686
1668.882 0.694 0.682 0.679 0.659 0.614 0.622 0.613 0.609 0.624 0.622
1688.175 0.624 0.631 0.646 0.65 0.62 0.589 0.586 0.576 0.598 0.599
1707.469 0.562 0.563 0.57 0.541 0.537 0.545 0.537 0.527 0.498 0.471
1726.762 0.477 0.482 0.478 0.525 0.516 0.489 0.51 0.557 0.586 0.528
1746.056 0.495 0.48 0.48 0.482 0.459 0.488 0.51 0.492 0.542 0.561
1765.349 0.496 0.465 0.477 0.485 0.475 0.467 0.469 0.483 0.48 0.476
1784.642 0.448 0.419 0.456 0.479 0.461 0.451 0.458 0.437 0.413 0.413
1803.936 0.422 0.455 0.453 0.435 0.424 0.391 0.399 0.423 0.443 0.481
1823.229 0.486 0.446 0.438 0.433 0.409 0.41 0.408 0.431 0.446 0.44
1842.523 0.437 0.434 0.425 0.42 0.437 0.436 0.439 0.418 0.368 0.384
1861.816 0.391 0.371 0.406 0.382 0.335 0.356 0.401 0.379 0.37 0.42
1881.110 0.405 0.362 0.358 0.364 0.395 0.408 0.384 0.363 0.375 0.388
1900.403 0.41 0.393 0.379 0.396 0.42 0.445 0.424 0.418 0.379 0.387
1919.696 0.425 0.408 0.425 0.408 0.374 0.37 0.368 0.395 0.411 0.402
1938.990 0.419 0.437 0.407 0.395 0.403 0.394 0.414 0.441 0.434 0.432
1958.283 0.464 0.476 0.47 0.476 0.467 0.444 0.463 0.471 0.464 0.494
1977.577 0.524 0.525 0.505 0.542 0.57 0.515 0.531 0.533 0.512 0.542
1996.870 0.571 0.616 0.636 0.663 0.704 0.72 0.742 0.762 0.795 0.815
2016.164 0.795 0.836 0.905 0.92 0.951 1.005 1.024 1.009 1.006 1.036
2035.457 1.062 1.038 1.017 1.006 1.007 0.976 0.941 0.953 0.931 0.9
2054.750 0.876 0.87 0.851 0.832 0.837 0.823 0.788 0.786 0.776 0.774
2074.044 0.77 0.747 0.721 0.708 0.707 0.684 0.675 0.695 0.68 0.671
2093.337 0.667 0.641 0.65 0.671 0.678 0.657 0.629 0.637 0.674 0.673
2112.631 0.646 0.637 0.621 0.615 0.639 0.642 0.648 0.644 0.644 0.668
2131.924 0.679 0.691 0.699 0.704 0.704 0.709 0.7 0.707 0.71 0.713
2151.218 0.765 0.763 0.755 0.819 0.826 0.802 0.81 0.785 0.755 0.773
2170.511 0.806 0.796 0.813 0.804 0.775 0.812 0.811 0.822 0.838 0.826
2189.804 0.821 0.805 0.79 0.797 0.792 0.794 0.815 0.834 0.829 0.815
2209.098 0.83 0.811 0.786 0.775 0.767 0.801 0.825 0.792 0.783 0.807
2228.391 0.819 0.831 0.815 0.827 0.845 0.858 0.835 0.813 0.843 0.825
2247.685 0.834 0.862 0.842 0.839 0.852 0.841 0.834 0.853 0.875 0.863
2266.978 0.826 0.83 0.834 0.82 0.841 0.904 0.917 0.878 0.866 0.87
2286.272 0.881 0.898 0.902 0.87 0.869 0.891 0.897 0.886 0.882 0.919
2305.565 0.918 0.878 0.881 0.92 0.943 0.94 0.95 0.951 0.946 0.949
2324.858 0.968 0.969 0.947 0.951 0.901 0.886 0.954 0.958 0.938 0.94
2344.152 0.93 0.929 0.926 0.912 0.92 0.922 0.911 0.928 0.951 0.953
2363.445 0.942 0.94 0.96 0.987 0.992 0.958 0.967 0.98 0.981 0.951
2382.739 0.93 0.947 0.963 0.98 0.988 1.004 0.968 0.947 0.94 0.925
2402.032 0.953 0.962 0.983 1.023 1.02 1.016 0.997 0.962 0.963 0.935
2421.326 0.905 0.949 1.007 1.045 1.017 0.981 0.975 0.986 1.023 1.018
2440.619 0.979 0.966 0.99 0.995 0.981 0.976 0.949 0.94 0.931 0.966
2459.912 0.997 0.969 1.001 1.01 0.955 0.971 1.012 1.009 1.024 1.013
2479.206 1.012 0.997 1.036 1.1059 1.1067 1.1161 1.1429 1.17982 1.1533 1.1674
2498.499 1.2251 1.21894 1.2297 1.26036 1.2911 1.302 1.3393 1.3723 1.3785 1.4048
2517.793 1.4445 1.4694 1.4952 1.5099 1.5517 1.6013 1.6181 1.6415 1.6895 1.7182
2537.086 1.7199 1.7385 1.7554 1.7789 1.7684 1.7444 1.7344 1.7337 1.7466 1.7451
2556.380 1.7699 1.8036 1.8066 1.8188 1.8275 1.888 1.8855 1.8864 1.9957 2.0625
2575.673 2.0768 2.0833 2.0974 2.1059 2.1415 2.21 2.28 2.32 2.37 2.4
2594.966 2.45 2.49 2.53 2.58 2.63 2.67 2.71 2.79 2.84 2.87
2614.260 2.9 2.95 3 3.06 3.17 3.24 3.29 3.36 3.42 3.45
2633.553 3.54 3.62 3.64 3.7 3.75 3.82 3.92 4.02 4.09 4.19
2652.847 4.25 4.27 4.41 4.51 4.54 4.69 4.83 4.87 4.94 5.05
2672.140 5.13 5.23 5.31 5.37 5.43 5.43 5.48 5.48 5.45 5.47
2691.434 5.42 5.34 5.24 5.17 5.09 4.95 4.82 4.7 4.66 4.64
2710.727 4.63 4.61 4.58 4.55 4.55 4.6 4.6 4.62 4.69 4.71
2730.020 4.74 4.86 4.97 5.05 5.12 5.2 5.27 5.34 5.41 5.43
2749.314 5.47 5.58 5.72 5.8 5.85 5.9 6 6.07 6.14 6.28
2768.607 6.5 6.71 6.87 7.07 7.31 7.58 7.81 8.08 8.5 8.89
2787.901 9.25 9.63 10.1 10.54 10.94 11.42 11.94 12.51 13.03 13.6
2807.194 14.24 14.94 15.71 16.54 17.43 18.39 19.47 20.66 21.93 23.19
2826.488 24.63 26.33 28.18 30.33 32.84 35.8 39.42 43.87 49.54 56.56
2845.781 65.31 76.47 90.55 108.22 129.69 154.14 179.19 200.69 214.27 217.53
2865.074 210.94 197.61 180.95 163.51 147.28 133.35 122.09 113.52 107.27 102.66
2884.368 99.27 97.04 95.87 95.95 97.63 100.89 105.81 112.32 120.32 129.94
2903.661 141.09 153.7 167.78 183.28 200.43 220.04 243.31 271.33 305.7 347.63
2922.955 397.26 453.19 510.5 560.97 594.94 605.16 591.02 557.68 511.91 459.89
2942.248 406.61 355.18 307.77 265.92 230.22 200.81 177.5 159.67 146.55 137.29
2961.542 131.09 126.84 123.31 119.24 113.52 105.61 95.76 85.04 74.76 65.76
2980.835 58.04 51.44 45.93 41.31 37.42 34.12 31.44 29.22 27.3 25.73
3000.128 24.45 23.45 22.84 22.48 22.25 22.16 21.96 21.32 20.1 18.56
3019.422 17 15.45 14.18 13.1 12.13 11.43 10.82 10.27 9.7 9.15
3038.715 8.75 8.43 8.04 7.66 7.24 6.86 6.63 6.41 6.19 6.01
3058.009 5.82 5.49 5.2 5.05 4.93 4.79 4.58 4.48 4.37 4.18
3077.302 4.1 3.97 3.75 3.72 3.78 3.7 3.56 3.39 3.32 3.4
3096.596 3.31 3.23 3.16 3.04 2.97 2.91 2.95 2.88 2.74 2.66
3115.889 2.67 2.7 2.71 2.56 2.48 2.45 2.36 2.27 2.28 2.27
3135.182 2.23 2.21 2.19 2.1363 2.0966 2.25 2.28 2.22 2.1632 2.0515
3154.476 2.1663 2.31 2.27 2.19 2.0795 1.9602 1.9341 1.8863 1.8506 1.8357
3173.769 1.8301 1.8379 1.8027 1.7779 1.7508 1.6861 1.6926 1.773 1.6672 1.5335
3193.063 1.4753 1.4183 1.4978 1.547 1.4488 1.26788 1.17727 1.2744 1.3574 1.25983
3212.356 1.077 1.069 1.1428 1.1523 1.153 1.1295 1.044 1.001 1.039 0.977
3231.650 0.864 0.8 0.86 0.952 1.003 0.936 0.813 0.862 0.962 0.953
3250.943 0.84 0.79 0.902 0.969 0.866 0.786 0.737 0.66 0.637 0.64
3270.236 0.624 0.672 0.634 0.619 0.592 0.529 0.597 0.66 0.74 0.672
3289.530 0.684 0.724 0.619 0.578 0.578 0.576 0.615 0.639 0.569 0.6
3308.823 0.64 0.598 0.604 0.61 0.583 0.588 0.515 0.502 0.619 0.669
3328.117 0.67 0.636 0.675 0.665 0.59 0.517 0.552 0.635 0.558 0.474
3347.410 0.546 0.633 0.606 0.658 0.697 0.723 0.756 0.653 0.53 0.537
3366.704 0.582 0.592 0.605 0.692 0.748 0.621 0.511 0.577 0.642 0.555
3385.997 0.479 0.549 0.629 0.665 0.652 0.641 0.647 0.582 0.588 0.54
3405.290 0.45 0.441 0.528 0.562 0.557 0.526 0.473 0.539 0.55 0.527
3424.584 0.524 0.556 0.599 0.482 0.42 0.473 0.527 0.524 0.472 0.406
3443.877 0.386 0.433 0.391 0.371 0.381 0.402 0.468 0.417 0.344 0.273
3463.171 0.15 0.14 0.24 0.234 0.182 0.266 0.297 0.258 0.188 0.16
3482.464 0.222 0.12 0.11 0.198 0.14 0.186 0.14 0.1 0.229 0.16
3501.758 0.08 0.1 0.06 0.13 0.206 0.14 0.14 0.214 0.216 0.15
3521.051 0.15 0.12 0.09 0.17 0.221 0.17 0.17 0.2 0.188 0.192
3540.344 0.271 0.287 0.14 0.08 0 0.04 0.12 0.11 0.09 0.06
3559.638 0.03 0 0.05 0.18 0.15 0.09 0.16 0.16 0.17 0.16
3578.931 0.1 0.14 0.255 0.274 0.349 0.416 0.355 0.283 0.235 0.396
3598.225 0.474 0.383 0.323 0.304 0.374 0.501 0.565 0.534 0.569 0.619
3617.518 0.668 0.666 0.632 0.609 0.525 0.569 0.615 0.625 0.63 0.586
3636.812 0.641 0.678 0.681 0.743 0.742 0.717 0.698 0.629 0.623 0.691
3656.105 0.692 0.639 0.592 0.627 0.691 0.674 0.562 0.503 0.549 0.526
3675.398 0.525 0.556 0.601 0.638 0.609 0.559 0.564 0.606 0.582 0.499
3694.692 0.495 0.568 0.526 0.498 0.573 0.58 0.572 0.505 0.508 0.587
3713.985 0.623 0.609 0.579 0.574 0.551 0.645 0.654 0.538 0.536 0.601
3733.279 0.592 0.631 0.715 0.686 0.664 0.728 0.71 0.629 0.615 0.646
3752.572 0.607 0.572 0.633 0.657 0.641 0.63 0.644 0.616 0.608 0.632
3771.866 0.615 0.643 0.639 0.605 0.59 0.645 0.706 0.673 0.601 0.611
3791.159 0.6 0.643 0.725 0.695 0.692 0.706 0.642 0.624 0.626 0.613
3810.452 0.584 0.61 0.728 0.679 0.618 0.582 0.582 0.686 0.689 0.642
3829.746 0.683 0.742 0.725 0.652 0.608 0.621 0.64 0.645 0.627 0.615
3849.039 0.681 0.71 0.736 0.722 0.668 0.642 0.633 0.696 0.728 0.723
3868.333 0.672 0.723 0.751 0.713 0.727 0.709 0.754 0.762 0.727 0.747
3887.626 0.752 0.729 0.732 0.75 0.792 0.751 0.715 0.804 0.842 0.818
3906.920 0.82 0.86 0.821 0.738 0.74 0.778 0.776 0.811 0.848 0.836
3926.213 0.806 0.826 0.866 0.87 0.84 0.819 0.853 0.832 0.789 0.805
3945.506 0.768 0.798 0.901 0.868 0.841 0.879 0.857 0.872 0.969 0.947
3964.800 0.868 0.9 0.864 0.917 0.988 0.957 0.991 0.998 1.019 1.029
3984.093 1.039 1.1052 1.1143 1.051 1.075 1.051 1.012 1.015 1.024
##END=
