##TITLE=4-Chloroquinaldine
##JCAMP-DX=4.24
##DATA TYPE=INFRARED SPECTRUM
##ORIGIN=EPA-IR VAPOR PHASE LIBRARY
##OWNER=SRD/NIST
Collection (C) 2018 copyright by the U.S. Secretary of Commerce
on behalf of the United States of America. All rights reserved.
##CAS REGISTRY NO=4295-06-1
##MOLFORM=C 10 H 8 Cl N
##$NIST SOURCE=MSDC-IR
##STATE=gas
##XUNITS=1/CM
##YUNITS=ABSORBANCE
##XFACTOR=1.
##YFACTOR=0.001
##DELTAX=1.92898
##FIRSTX=549.8
##LASTX=4000.7
##FIRSTY=1.31483
##MAXX=4000.7
##MINX=549.759
##MAXY=0.09298
##MINY=0
##NPOINTS=1790
##XYDATA=(X++(Y..Y))
549.759 1.31483 1.3606 1.413 1.7449 1.5602 0.972 0.793 1.4432 1.4012 1.8646
569.049 2.47 1.9297 1.8015 1.9297 2.44 2.41 2.1937 1.9036 1.6972 1.5006
588.339 1.30153 1.4231 1.4382 1.6344 1.5807 1.005 1.097 1.4651 1.4687 1.4092
607.628 1.5517 2.0375 1.7932 1.7072 2.204 2.44 3.05 3.58 4.2 5.93
626.918 8.25 11.01 13.62 15.37 15.5 14.87 14.96 14.93 13.65 11.25
646.208 8.06 5.06 3.95 3.45 2.91 2.26 1.8796 2.27 2.36 2.11
665.498 2.0682 2.42 2.1848 2.0916 2.031 1.5688 1.4275 1.31913 1.3205 1.3837
684.787 1.4232 1.33511 1.6382 1.7667 1.3708 1.25192 1.33858 1.7772 2.1292 1.905
704.077 1.8066 1.9748 1.9876 1.914 1.9278 1.9282 1.7524 1.6438 1.821 1.6628
723.367 1.7172 2.4 2.85 3.28 3.98 4.86 6.4 8.1 10.19 13.59
742.657 18.41 25.18 32.85 39.51 44.8 49.2 58.21 76.49 92.98 79.34
761.947 50.9 41 39.23 34 26.7 19.12 12.6 8.45 6.09 4.56
781.236 3.97 3.74 3.5 3.14 3.39 3.63 3.11 2.89 3.28 3.46
800.526 3.3 2.8 2.76 2.96 3.29 3.88 4.29 4.94 6.21 7.73
819.816 9.74 12.66 16.13 19.14 20.96 22.46 23.81 24.81 25.09 24.11
839.106 22.62 20.63 18.42 17.28 16.85 16.25 16.03 16.66 18.3 21.58
858.395 24.99 22.64 16.97 14.53 13.24 11.79 10.24 8.3 6.78 5.35
877.685 4.66 4.66 4.14 4.01 4.13 4.11 4.53 4.95 5.27 5.94
896.975 7.09 8.77 10.7 13.14 16.19 19.04 21.38 22.95 23.77 24.03
916.265 23.9 22.54 20.27 17.77 14.61 11.66 9.5 8.05 6.98 6.28
935.555 5.64 5.18 4.93 4.71 4.43 4.19 4.33 4.23 4.7 5.23
954.844 5.29 5.06 4.83 5.78 6.51 6.74 7.41 8.06 8.21 8.31
974.134 8.18 8.21 8.44 7.73 6.66 5.36 4.53 4.9 4.83 4.37
993.424 4.19 4.43 5.1 5.06 4.84 5.1 5.54 5.93 6.49 7.04
1012.714 7.25 7.01 6.79 6.46 6.31 6.38 5.68 5.12 4.85 4.33
1032.003 3.75 3.06 2.39 2.58 2.77 2.1757 2.49 2.62 2.0058 2.0861
1051.293 2.84 3.28 3.11 2.47 1.4816 1.32258 2.28 2.47 2.35 2.45
1070.583 2.1158 2.2084 2.1928 1.8292 1.31574 1.8438 2.35 2.2453 1.9786 1.576
1089.873 1.6825 1.8828 1.7802 1.7118 2.93 3.32 2.28 2.1646 2.51 2.71
1109.163 3.1 2.58 1.7835 2.58 3.33 3.54 4.35 3.88 2.65 2.99
1128.452 4.04 4.11 4.32 4.95 5.64 6.48 6.86 7.65 8.52 8.91
1147.742 8.6 8.1 7.53 6.3 5.18 5.29 5.28 4.89 5.06 6.01
1167.032 7.17 8.01 9.03 9.73 9.84 9.41 9.57 8.91 8.05 7.57
1186.322 6.41 5.45 4.4 4.09 3.66 3.36 4.38 4.89 3.59 4.06
1205.611 5.11 4.93 4.53 5.25 6.55 6.57 7.17 7.68 6.8 5.94
1224.901 5.94 4.84 4.56 3.78 2.66 3.18 2.7 2.1938 2.43 2.79
1244.191 3.23 3.2 3.25 3.64 4.1 4 3.69 4.24 4.85 4.61
1263.481 4.33 4.32 4.5 4.89 5.46 6.24 6.87 7.37 8.24 9.54
1282.771 10.72 11.67 12.29 13.08 14.25 15.19 16 16.9 17.69 18.26
1302.060 18.98 19.92 21.03 21.83 21.9 21.39 20.63 19.64 18.42 17.02
1321.350 15.31 13.38 11.45 9.73 8.51 7.64 6.95 6.38 5.84 5.41
1340.640 5.23 5.25 5.24 5.38 5.58 5.61 5.76 6.02 6.36 6.61
1359.930 6.82 7.28 7.93 8.76 9.66 10.53 11.33 12.21 13.22 14.26
1379.219 15.38 16.34 17.36 18.69 20.02 21.37 23 25.25 28.39 31.75
1398.509 34.86 37.44 38.85 39.1 38.31 36.85 34.54 31.09 26.64 21.46
1417.799 16.66 12.77 10.03 8.38 7.42 7.08 7 6.81 6.72 6.66
1437.089 6.57 6.49 6.35 6.36 6.21 6.11 6.09 5.95 5.91 5.89
1456.378 5.97 6 6.21 6.66 7.29 8.07 8.91 10.32 12.37 14.95
1475.668 18.14 21.97 26.31 31.05 35.68 39.59 42.73 45.27 46.82 47.21
1494.958 46 43.13 39.61 35.78 31.92 28.17 24.44 21.06 18.27 15.96
1514.248 14.14 12.89 11.83 11.16 10.73 10.35 10.31 10.52 11.05 11.81
1533.538 12.86 14.35 16.27 18.59 21.16 23.92 26.51 28.92 30.99 32.23
1552.827 32.65 32.67 31.93 30.35 28.52 26.81 25.35 24.47 24.54 25.91
1572.117 28.11 31.02 35.44 40.85 46.88 53.38 59.18 63.9 67.15 68.55
1591.407 67.82 65.31 61.04 55.34 49.02 42.48 37.04 33.16 30.64 29.39
1610.697 28.79 28.49 28.5 28.08 26.88 25.28 23.2 21.02 18.84 16.35
1629.986 13.96 11.69 9.75 8.32 7.43 6.87 6.35 5.99 5.63 5.33
1649.276 4.91 4.44 4.27 4.12 3.75 3.46 3.29 3.11 3.05 2.98
1668.566 2.93 2.94 2.9 2.71 2.55 2.44 2.53 2.59 2.53 2.56
1687.856 2.61 2.67 2.69 2.8 3.12 3.59 4.03 4.57 5.04 5.44
1707.146 5.8 6.1 6.32 6.29 5.88 5.48 5.02 4.42 3.87 3.59
1726.435 3.28 2.9 2.52 2.4 2.47 2.38 2.44 2.39 2.28 2.32
1745.725 2.46 2.55 2.46 2.54 2.69 2.57 2.45 2.32 2.0729 1.9345
1765.015 1.8045 1.7179 1.6947 1.489 1.4238 1.6379 1.6758 1.5647 1.5271 1.5091
1784.305 1.5409 1.4873 1.4418 1.3966 1.4278 1.493 1.4432 1.596 1.8476 2.0402
1803.594 2.2284 2.41 2.57 2.81 3.07 3.17 3.2 3.19 3.18 3.19
1822.884 2.94 2.61 2.61 2.65 2.75 2.88 2.82 2.82 2.95 3.06
1842.174 2.98 2.75 2.55 2.36 2.1759 1.9892 1.767 1.6834 1.7603 1.791
1861.464 1.6612 1.5447 1.5572 1.5268 1.5269 1.5335 1.4774 1.4946 1.5198 1.6159
1880.754 1.7259 1.7269 1.7076 1.7091 1.8838 1.9357 1.9539 2.0794 2.0821 2.0418
1900.043 2.1171 2.34 2.41 2.38 2.39 2.36 2.3 2.25 2.45 2.67
1919.333 2.72 2.77 2.82 2.96 3.12 3.05 2.91 2.86 2.72 2.61
1938.623 2.46 2.43 2.67 2.8 2.82 3.01 3.21 3.23 3.14 2.97
1957.913 2.83 2.63 2.27 2.0009 1.9023 1.804 1.5835 1.4202 1.4355 1.4767
1977.202 1.4172 1.2843 1.30302 1.33375 1.2027 1.205 1.25812 1.26672 1.32048 1.34195
1996.492 1.33667 1.25362 1.2239 1.1974 1.138 1.1938 1.197 1.1806 1.28805 1.34263
2015.782 1.34501 1.419 1.389 1.2485 1.2138 1.2172 1.148 1.2367 1.4129 1.34304
2035.072 1.26088 1.3526 1.374 1.27758 1.32561 1.546 1.4543 1.4056 1.5728 1.5553
2054.362 1.47 1.3606 1.442 1.5974 1.407 1.1736 1.202 1.30432 1.24433 1.123
2073.651 1.2088 1.2267 1.2003 1.218 1.25229 1.30074 1.28095 1.36 1.30605 1.1816
2092.941 1.2319 1.1819 1.101 1.14 1.134 1.2292 1.31577 1.1964 1.27349 1.4098
2112.231 1.33888 1.3616 1.4793 1.5037 1.4699 1.5739 1.6306 1.638 1.6438 1.5516
2131.521 1.5157 1.4613 1.4666 1.4287 1.24984 1.115 1.231 1.3778 1.3911 1.4071
2150.810 1.3863 1.3638 1.3747 1.4561 1.4544 1.2221 1.2351 1.4007 1.34881 1.30759
2170.100 1.31438 1.25786 1.1991 1.27896 1.2324 1.085 1.238 1.2979 1.1841 1.149
2189.390 1.147 1.121 1.111 1.1737 1.175 1.145 1.24672 1.25054 1.1561 1.28792
2208.680 1.3672 1.34477 1.383 1.30008 1.1768 1.2057 1.2075 1.24356 1.3545 1.362
2227.970 1.24703 1.2078 1.1926 1.081 1.02 1.148 1.3564 1.4175 1.33421 1.3585
2247.259 1.3665 1.3515 1.3151 1.104 1.17 1.2393 1.1504 1.2122 1.3715 1.4077
2266.549 1.26087 1.129 1.1558 1.3557 1.4492 1.4391 1.5269 1.5836 1.5567 1.4402
2285.839 1.3509 1.33189 1.3807 1.4486 1.4812 1.5935 1.701 1.5858 1.4197 1.5065
2305.129 1.5696 1.5878 1.6287 1.607 1.3862 1.25612 1.354 1.3262 1.34373 1.446
2324.418 1.4895 1.4531 1.4383 1.409 1.3512 1.4477 1.5196 1.4675 1.5708 1.5908
2343.708 1.5798 1.4647 1.29671 1.5436 1.7412 1.6695 1.6334 1.6786 1.7684 1.8262
2362.998 1.7351 1.6015 1.5851 1.5309 1.4947 1.4439 1.34404 1.5254 1.7162 1.7072
2382.288 1.6956 1.711 1.5044 1.5247 1.527 1.33229 1.4784 1.4989 1.4669 1.4986
2401.578 1.3983 1.5973 1.678 1.4718 1.4551 1.4607 1.4123 1.25974 1.126 1.31828
2420.867 1.4596 1.33259 1.28819 1.30538 1.28476 1.4159 1.455 1.2071 1.1769 1.3603
2440.157 1.4708 1.4756 1.34586 1.28704 1.4201 1.429 1.32421 1.24531 1.138 1.25042
2459.447 1.4165 1.3527 1.4451 1.4117 1.33553 1.4151 1.4829 1.4869 1.30456 1.492
2478.737 1.8062 1.696 1.5446 1.5192 1.4338 1.3862 1.4176 1.4763 1.5273 1.4783
2498.026 1.4686 1.4215 1.30235 1.3943 1.4552 1.424 1.3581 1.3812 1.4259 1.30649
2517.316 1.3745 1.34901 1.2654 1.4204 1.47 1.3541 1.3101 1.33586 1.3804 1.3816
2536.606 1.33268 1.2273 1.202 1.3742 1.5117 1.5116 1.3853 1.099 0.941 1.1957
2555.896 1.29517 1.2073 1.31435 1.3696 1.33528 1.34779 1.3972 1.4443 1.432 1.2265
2575.186 1.1801 1.27287 1.3687 1.5103 1.563 1.7485 1.6033 1.24845 1.32617 1.5079
2594.475 1.5364 1.4947 1.524 1.5408 1.4776 1.4451 1.4462 1.4085 1.2165 1.2194
2613.765 1.222 1.049 1.1581 1.1867 1.096 0.967 0.866 1.026 1.33334 1.2498
2633.055 1.038 1.105 1.1503 1.2079 1.066 0.991 0.862 0.85 0.871 0.775
2652.345 0.915 1.2286 1.33295 1.2173 1.2332 1.26758 1.30217 1.1995 1.1562 1.145
2671.634 1.1898 1.29952 1.24179 0.974 0.878 1.022 1.147 1.3644 1.3762 1.354
2690.924 1.385 1.3572 1.30882 1.2144 1.32354 1.5459 1.4028 1.31074 1.488 1.4529
2710.214 1.4079 1.37 1.4191 1.4745 1.32231 1.26794 1.2388 1.1635 1.25502 1.31548
2729.504 1.3667 1.6686 1.768 1.4394 1.25638 1.24874 1.1839 1.2005 1.145 1.1666
2748.794 1.3903 1.32089 1.25742 1.2052 0.887 0.884 1.25147 1.4215 1.1655 0.939
2768.083 1.022 1.3154 1.4088 1.4635 1.3678 1.071 1.1907 1.3928 1.137 0.978
2787.373 1.4073 1.609 1.4749 1.26934 1.24176 1.3983 1.4301 1.509 1.3915 1.2166
2806.663 1.33554 1.3567 1.4824 1.5507 1.4971 1.4363 1.5561 1.7874 1.8069 1.7479
2825.953 1.5986 1.722 1.8197 1.9678 1.8145 1.6722 2.0978 2.48 2.55 2.67
2845.242 2.76 2.53 2.8 3.21 3.33 3.35 3.46 3.81 4.24 4.29
2864.532 4.03 3.99 4.15 4.23 3.9 3.65 3.66 3.47 3.17 3.27
2883.822 3.75 3.74 3.56 3.68 3.77 3.66 3.64 3.98 4.29 4.58
2903.112 4.6 4.34 4.57 5.21 5.57 5.57 5.96 6.52 7.29 8.13
2922.401 8.91 10.23 11.43 12.6 13.39 13.8 14.04 13.81 13.31 12.47
2941.691 11.32 10.36 9.6 8.55 7.79 7.33 6.95 6.71 6.32 6.01
2960.981 6.18 6.31 5.86 5.39 4.91 4.6 4.33 4.05 3.65 3.2
2980.271 3.26 3.21 3.25 3.34 3.18 3.26 3.06 2.89 3.17 3.27
2999.561 3.43 3.81 4.15 4.47 4.58 4.6 5 5.29 5.42 5.72
3018.850 5.88 5.77 5.86 6.25 6.39 6.52 6.62 6.89 7.35 7.27
3038.140 7.18 7.6 7.9 7.95 8.18 8.31 8.43 8.9 9.83 10.84
3057.430 11.89 13.35 14.92 16.71 18.24 19.43 20.91 21.75 21.47 21
3076.720 20.41 19.25 17.82 16.32 14.71 13.4 12.35 11.24 10.15 9.33
3096.009 8.73 7.75 7.02 6.25 5.65 5.46 4.87 4.23 3.99 3.94
3115.299 3.43 2.88 2.5 2.38 2.32 2.0888 2.1779 2.1711 2.0059 1.8446
3134.589 1.4635 1.5786 1.9453 1.8774 1.4885 1.2398 1.3995 1.6541 1.31603 1.059
3153.879 1.2197 1.4662 1.6393 1.4411 1.4318 1.4745 1.453 1.4325 1.4644 1.4696
3173.169 1.5319 1.606 1.6461 1.26286 1.087 1.5831 1.4556 1.23 1.079 1.056
3192.458 1.31743 1.4507 1.3965 1.051 0.801 0.761 0.944 0.981 1.2295 1.125
3211.748 0.621 1.012 1.198 0.867 0.872 0.779 0.801 1.2078 1.32245 1.28454
3231.038 1.30288 1.33678 1.24056 0.857 0.65 0.985 1.33294 1.137 0.801 0.705
3250.328 0.674 0.673 0.889 0.98 0.859 0.9 0.879 0.973 0.999 0.852
3269.617 0.863 0.705 0.734 0.798 0.653 0.712 0.799 1.035 1.037 0.885
3288.907 0.855 0.806 0.882 0.608 0.508 0.795 0.987 0.895 0.992 0.987
3308.197 0.752 0.758 0.85 0.961 1.1683 1.5257 1.1927 0.728 0.96 1.036
3327.487 0.929 1.074 1.129 1.145 1.34342 1.3763 1.2242 1.135 1.043 0.809
3346.777 0.637 0.952 1.144 0.864 0.268 0.463 0.776 0.948 1.1968 1.045
3366.066 0.73 0.65 0.904 0.777 0.584 0.67 0.891 1.1645 1.3615 1.047
3385.356 0.808 0.997 1.048 1.4023 1.28597 0.749 0.876 1.29614 1.3719 0.754
3404.646 0.791 1.08 0.978 1.129 1.024 0.681 1.032 1.4042 1.26644 1.30698
3423.936 1.26382 1.2098 1.05 0.943 1.2672 1.5175 1.4325 1.2077 0.823 0.501
3443.225 1.026 1.1 0.67 0.779 1.049 0.992 0.713 0.702 0.804 0.863
3462.515 0.76 0.806 1.048 1.093 0.814 0.924 1.27908 1.27836 1.113 0.966
3481.805 1.34703 1.3887 0.941 0.874 1.056 1.2224 0.928 0.724 1.082 1.26581
3501.095 1.114 1.035 1.063 1.097 1.078 0.972 1.117 1.2191 1.1621 1.085
3520.385 0.718 0.825 0.945 0.659 0.86 0.963 0.687 0.427 0.427 0.682
3539.674 1.125 1.3839 0.856 0.612 0.704 0.956 1.3866 1.33594 1.5774 1.28984
3558.964 0.724 0.811 0.846 0.756 0.835 1.115 1.084 1.069 1.1948 0.807
3578.254 0.801 1.1 1.096 1.03 0.939 0.95 1.062 1.124 0.888 0.365
3597.544 0.22 0.586 0.876 1.088 1.2979 0.98 0.518 0.649 0.904 1.127
3616.833 1.2236 1.238 1.32612 1.2054 0.872 0.705 0.795 0.923 0.997 0.836
3636.123 0.575 0.566 1.046 1.4206 1.29008 1.1 0.668 0.693 0.902 1.1839
3655.413 1.30248 0.967 1.025 1.1946 1.115 0.92 0.657 0.507 0.811 0.86
3674.703 0.712 1.05 1.157 0.944 0.789 0.774 1.059 1.072 0.466 0.284
3693.993 0.835 1.06 1.1515 1.24162 1.27898 1.1552 0.693 0.815 1.087 1.123
3713.282 0.875 0.76 0.897 0.694 0.566 0.647 0.631 0.976 1.5176 1.4111
3732.572 1.13 0.969 1.1653 1.1788 0.833 0.563 0.25 0.329 0.851 1.27785
3751.862 1.2199 0.762 0.632 1.102 1.29586 0.945 0.833 0.942 0.559 0.573
3771.152 0.768 0.631 0.768 0.97 1.24043 1.1787 0.735 0.844 1.1549 1.087
3790.441 0.881 0.947 1.365 1.4827 1.4067 1.5106 1.3504 1.1761 1.2279 1.1981
3809.731 1.141 1.4866 1.4316 1.112 1.4171 1.5797 1.1899 1.038 1.142 1.234
3829.021 1.1602 0.91 1.092 1.138 1.4394 1.6463 1.4341 1.3608 1.3677 1.33618
3848.311 0.968 0.87 1.30914 1.4374 0.811 0.812 1.023 0.753 1.117 0.962
3867.601 0.547 0.951 1.2306 1.1 0.998 0.596 0 0.04 0.545 1.025
3886.890 1.2254 1.3913 1.3857 1.103 0.645 0.46 1.083 1.4463 1.4445 1.2631
3906.180 0.896 0.82 1.2261 1.4009 0.901 0.845 1.31151 1.24846 1.004 1.05
3925.470 1.02 0.838 1.049 1.004 0.483 0.583 1.25198 1.5275 1.088 1.31173
3944.760 1.6756 1.5189 1.4762 1.14 0.536 0.48 0.619 0.949 1.29949 1.132
3964.049 0.949 0.585 0.743 1.28307 1.132 0.911 1.061 1.026 1.103 1.2833
3983.339 1.32199 1.3752 1.023 0.696 1.04 1.4258 1.5542 1.4951 1.1805 0.924
##END=
