##TITLE=2-Hydroxy-3-methoxyphenylacetonitrile
##JCAMP-DX=4.24
##DATA TYPE=INFRARED SPECTRUM
##ORIGIN=EPA-IR VAPOR PHASE LIBRARY
##OWNER=SRD/NIST
Collection (C) 2018 copyright by the U.S. Secretary of Commerce
on behalf of the United States of America. All rights reserved.
##CAS REGISTRY NO=42973-56-8
##MOLFORM=C 9 H 9 N O 2
##$NIST SOURCE=MSDC-IR
##STATE=gas
##XUNITS=1/CM
##YUNITS=ABSORBANCE
##XFACTOR=1.
##YFACTOR=0.001
##DELTAX=1.92898
##FIRSTX=549.8
##LASTX=4000.7
##FIRSTY=4.57
##MAXX=4000.7
##MINX=549.759
##MAXY=0.0942
##MINY=0
##NPOINTS=1790
##XYDATA=(X++(Y..Y))
549.759 4.57 4.5 4.26 4.06 3.9 3.7 3.33 3.17 3.05 2.72
569.049 2.27 1.61 1.47 1.28 0.9283 1.1082 1.37 1.39 1.33 1.42
588.339 1.28 0.9037 0.8333 1.0831 1.28 1.26 1.24 1.24 1.27 1.23
607.628 1.25 1.39 1.56 1.81 1.77 1.45 1.3 1.32 1.46 1.45
626.918 1.26 1.31 1.31 1.23 1.1659 1.1974 1.32 1.1875 1.1622 1.1695
646.208 1.0161 1.0346 1.0618 1.1384 1.38 1.51 1.5 1.31 1.2 1.23
665.498 1.29 1.47 1.51 1.55 1.67 1.69 1.72 1.93 2.18 2.37
684.787 2.57 2.82 3.14 3.5 3.86 4.33 4.96 5.45 5.9 6.5
704.077 6.98 7.57 8.2 8.88 9.88 11 12.38 13.85 15.52 17.37
723.367 19.24 21.36 23.34 24.45 24.94 24.59 23.24 21.62 20.04 18.56
742.657 16.92 15.22 13.72 12.68 12 11.37 11 10.86 10.97 11.23
761.947 11.52 11.73 11.97 12.14 12.01 12.02 11.96 11.42 10.72 10.01
781.236 9.26 8.4 7.49 6.72 5.93 5.05 4.39 4.09 3.73 3.29
800.526 3.04 3.04 2.88 2.95 3.23 3.36 3.56 4.02 4.6 5.22
819.816 5.99 6.61 7.29 7.8 7.96 8.11 8.32 8.41 8.17 7.62
839.106 7.11 6.5 6.04 5.76 5.46 5.24 5.13 5.2 5.09 4.95
858.395 5.26 5.71 5.9 6.07 6.21 6.32 6.53 6.84 7.08 7.22
877.685 7.21 7.17 7.11 6.81 6.51 6.33 6.14 5.77 5.4 5.28
896.975 5.17 4.88 4.75 4.74 4.58 4.46 4.47 4.48 4.5 4.51
916.265 4.56 4.62 4.67 4.82 4.87 4.9 5.05 5.14 5.44 5.8
935.555 6.04 6.62 7.15 7.68 8.23 8.47 8.82 8.99 8.97 8.93
954.844 8.61 8.24 7.8 7.35 6.87 6.28 5.76 5.25 4.71 4.37
974.134 4.01 3.72 3.58 3.36 3.15 3.13 3.1 3.05 3.01 2.95
993.424 3.15 3.22 3.28 3.41 3.5 3.58 3.58 3.61 3.97 4.43
1012.714 4.62 4.76 5.19 5.61 5.82 6.09 6.46 6.93 7.56 8.31
1032.003 9.12 10.03 10.69 11.4 12.63 14.07 15.6 17.09 18.66 20.6
1051.293 22.44 23.97 25.36 27.46 29.94 31.96 34.14 36.53 38.74 40.86
1070.583 43.14 44.81 45.82 46.47 46.23 45.41 43.92 41.39 38.31 34.93
1089.873 30.91 26.47 22.61 19.2 16.23 13.97 12.02 10.64 9.33 8.38
1109.163 7.8 6.94 6.5 6.18 5.41 4.81 4.82 4.59 4.36 4.28
1128.452 4.16 3.8 3.72 3.69 3.51 3.5 3.45 3.55 3.66 3.85
1147.742 3.98 4.04 4.35 5.18 5.96 6.77 7.65 8.6 9.5 10.16
1167.032 10.51 10.8 11.23 11.42 11.38 11.31 11.11 10.97 11.21 11.55
1186.322 11.84 12.34 13.04 13.95 15.07 15.91 17.05 19.02 21.3 23.74
1205.611 27.06 31.48 36.28 41.41 47.14 53.03 58.22 62.58 65.92 67.64
1224.901 67.65 65.91 62.59 57.68 52.18 46.5 40.47 35.37 31.5 28.58
1244.191 26.92 26.05 26.2 27.82 30.38 33.87 38.54 44.58 51.73 59.75
1263.481 68.3 76.56 83.95 89.5 92.97 94.2 92.7 88.81 82.68 74.49
1282.771 65.15 55.55 46.47 38.38 31.67 26.3 21.93 18.45 15.84 13.97
1302.060 12.59 11.43 10.51 9.86 9.4 9.08 8.82 8.7 8.62 8.63
1321.350 8.79 8.95 9.15 9.57 10.16 10.85 11.74 12.86 14.34 16.12
1340.640 18.11 20.33 22.73 24.98 26.78 27.97 28.29 27.78 26.6 24.82
1359.930 22.44 19.59 16.63 13.78 11.23 9.19 7.67 6.62 5.92 5.35
1379.219 4.89 4.54 4.26 4.08 3.85 3.67 3.63 3.58 3.57 3.64
1398.509 3.7 3.87 4.05 4.26 4.58 4.95 5.4 5.98 6.68 7.44
1417.799 8.33 9.26 10.01 10.62 11.29 12.01 12.85 13.79 14.87 16.25
1437.089 18.14 20.49 22.98 25.21 26.7 27.39 27.98 29 30.01 30.26
1456.378 30.11 30.61 32.1 34.67 38.48 43.7 50.22 57.77 65.88 73.79
1475.668 80.12 84.43 86.94 88.05 87.63 85.06 79.74 72.38 64.52 57.38
1494.958 51.14 45.38 39.91 34.76 29.99 25.66 21.78 18.44 15.71 13.43
1514.248 11.52 9.88 8.46 7.37 6.41 5.63 5.03 4.51 4.11 3.8
1533.538 3.55 3.33 3.18 3.12 3.01 2.86 2.83 2.84 2.79 2.76
1552.827 2.68 2.68 2.69 2.69 2.82 2.91 2.94 3 3.11 3.38
1572.117 3.63 3.86 4.38 5 5.61 6.28 7.05 7.96 8.9 9.84
1591.407 10.65 11.31 11.77 11.96 11.96 11.86 11.65 11.38 11.13 11.02
1610.697 11.1 11.35 11.62 11.92 12.16 12.17 11.89 11.39 10.73 9.87
1629.986 8.94 7.97 7.05 6.1 5.18 4.47 3.95 3.5 3 2.62
1649.276 2.41 2.19 1.96 1.82 1.73 1.64 1.52 1.39 1.35 1.36
1668.566 1.27 1.2 1.27 1.28 1.21 1.1688 1.1333 1.1287 1.1082 1.0828
1687.856 1.0503 1.0165 1.0076 1.0263 1.0117 0.9502 0.9807 1.0581 1.1299 1.22
1707.146 1.1925 1.0687 1.0714 1.1682 1.25 1.23 1.1932 1.22 1.23 1.23
1726.435 1.21 1.22 1.21 1.26 1.32 1.21 1.1041 1.1381 1.1565 1.1152
1745.725 1.0595 1.01 0.9674 0.8839 0.8864 0.8851 0.8715 0.8827 0.8636 0.8296
1765.015 0.8285 0.8554 0.886 0.8551 0.8334 0.8886 0.8812 0.8883 0.933 0.9402
1784.305 0.9353 0.9756 0.9923 0.9461 0.8929 0.9376 1.004 1.0443 1.0911 1.1629
1803.594 1.23 1.22 1.25 1.31 1.34 1.43 1.49 1.48 1.47 1.48
1822.884 1.45 1.39 1.31 1.23 1.1897 1.1743 1.1448 1.035 0.9384 0.9233
1842.174 0.8758 0.8473 0.8515 0.8034 0.7611 0.7576 0.7697 0.8102 0.7734 0.7752
1861.464 0.7774 0.779 0.8228 0.8356 0.86 0.9095 1.0185 1.1041 1.172 1.23
1880.754 1.25 1.3 1.37 1.44 1.52 1.56 1.56 1.59 1.68 1.63
1900.043 1.59 1.56 1.43 1.34 1.28 1.24 1.23 1.1519 1.0816 1.0259
1919.333 0.9671 0.9282 0.8992 0.9097 0.8807 0.815 0.8163 0.8757 0.8972 0.8729
1938.623 0.8723 0.8975 0.9105 0.9012 0.9383 0.9257 0.8573 0.8191 0.8268 0.835
1957.913 0.8878 0.8945 0.8589 0.8933 0.8905 0.9001 0.9447 0.9213 0.9242 0.9768
1977.202 0.9908 1.0056 0.9732 0.9386 0.9979 1.0658 1.0602 1.0524 1.0931 1.0826
1996.492 1.0219 1.0156 1.0369 1.0268 1.0061 0.9874 0.9891 1.0186 1.003 0.9853
2015.782 0.9097 0.9067 0.9931 1.0152 0.9902 0.9212 0.9125 0.9909 1.0148 0.999
2035.072 1.0088 0.9568 0.9602 0.9834 0.9683 0.9888 1.0054 1.0378 1.0142 0.9668
2054.362 0.9835 0.9367 0.9042 0.8965 0.8675 0.8465 0.8285 0.8161 0.8162 0.8459
2073.651 0.8191 0.7919 0.8211 0.8709 0.89 0.8552 0.8371 0.8826 0.9164 0.9277
2092.941 0.982 0.9749 0.9459 0.9399 0.9445 0.9644 0.9585 1.0107 1.0518 0.9954
2112.231 0.9162 0.9072 0.9463 0.9308 0.9114 0.9442 0.9807 0.9547 0.9289 0.9168
2131.521 0.9679 0.9611 0.9311 0.9552 0.9618 1.0051 1.0123 1.059 1.0857 1.0964
2150.810 1.1311 1.0823 1.0495 1.0567 1.0758 1.0541 1.0091 1.0303 1.0409 0.9374
2170.100 0.8519 0.8636 0.8702 0.8336 0.7778 0.764 0.7635 0.7777 0.7851 0.7739
2189.390 0.7777 0.7404 0.6907 0.7136 0.7137 0.7259 0.7267 0.682 0.719 0.7229
2208.680 0.6897 0.6939 0.6937 0.7004 0.662 0.7161 0.7997 0.7673 0.7816 0.7821
2227.970 0.7053 0.744 0.807 0.864 0.9297 0.91 0.9145 1.0554 1.26 1.43
2247.259 1.57 1.67 1.68 1.73 1.76 1.69 1.62 1.53 1.41 1.25
2266.549 1.1014 0.9701 0.8931 0.842 0.7516 0.7079 0.6731 0.6283 0.7002 0.7243
2285.839 0.6368 0.6449 0.7377 0.7027 0.6625 0.7093 0.6953 0.7421 0.8098 0.8097
2305.129 0.7739 0.7582 0.752 0.7384 0.7682 0.7438 0.7608 0.7825 0.7287 0.7296
2324.418 0.7593 0.7621 0.7619 0.7336 0.7332 0.7143 0.6907 0.7761 0.8097 0.7797
2343.708 0.7641 0.7537 0.7845 0.7765 0.7056 0.6715 0.6839 0.6784 0.6242 0.5977
2362.998 0.5925 0.6118 0.658 0.6473 0.6354 0.6635 0.6733 0.6307 0.5839 0.6106
2382.288 0.6709 0.696 0.6885 0.7157 0.7013 0.6393 0.6339 0.6429 0.6098 0.6128
2401.578 0.6654 0.671 0.686 0.7487 0.7729 0.8256 0.8563 0.8523 0.8791 0.8479
2420.867 0.8501 0.9223 0.9435 0.93 0.9166 0.8948 0.8949 0.8656 0.8628 0.86
2440.157 0.8576 0.8204 0.7353 0.726 0.7212 0.7387 0.7356 0.6858 0.6431 0.659
2459.447 0.7144 0.6858 0.6838 0.7231 0.7194 0.7378 0.8024 0.8123 0.8426 0.8837
2478.737 0.8363 0.875 0.9412 0.9589 0.9667 1.0299 1.0368 0.9811 1.0333 1.0378
2498.026 0.9948 0.9918 1.0477 1.0947 1.0947 1.0832 1.0527 0.9785 1.0033 1.0593
2517.316 1.0248 0.9383 0.9033 0.9543 0.953 0.9435 0.9612 0.9505 0.9265 0.976
2536.606 1.0245 1.0453 1.0949 1.0538 1.0635 1.1318 1.0978 1.0924 1.0034 0.8965
2555.896 0.8911 0.8984 0.8275 0.7752 0.8418 0.8157 0.7184 0.7247 0.7609 0.7901
2575.186 0.7972 0.7579 0.7737 0.7434 0.6663 0.6546 0.7101 0.7116 0.6348 0.7036
2594.475 0.7692 0.7544 0.784 0.8357 0.7729 0.7256 0.7007 0.6708 0.7649 0.8127
2613.765 0.824 0.8081 0.8419 0.8418 0.7591 0.7026 0.7287 0.7974 0.786 0.7839
2633.055 0.7341 0.7464 0.7672 0.6513 0.664 0.7068 0.6346 0.5937 0.6784 0.7505
2652.345 0.6568 0.5824 0.5929 0.5486 0.4854 0.4985 0.5754 0.5383 0.5196 0.5617
2671.634 0.5868 0.6074 0.5624 0.59 0.58 0.5814 0.583 0.5677 0.6232 0.626
2690.924 0.624 0.6502 0.6986 0.7759 0.7246 0.6224 0.6649 0.7785 0.7855 0.8058
2710.214 0.7992 0.6735 0.6638 0.6823 0.7139 0.6826 0.6318 0.6606 0.6691 0.6675
2729.504 0.714 0.7423 0.6545 0.637 0.7324 0.7665 0.7709 0.7595 0.7133 0.7265
2748.794 0.759 0.7674 0.8058 0.7606 0.6984 0.6938 0.628 0.6607 0.719 0.7061
2768.083 0.6907 0.6383 0.6042 0.6486 0.7163 0.7051 0.6339 0.619 0.8391 0.8839
2787.373 0.761 0.736 0.7764 0.9492 0.985 1.0138 1.1231 1.1989 1.4 1.47
2806.663 1.43 1.48 1.62 1.83 1.95 2.05 2.15 2.21 2.3 2.41
2825.953 2.52 2.75 3.01 3.19 3.52 4.04 4.63 5.36 6.2 7.11
2845.242 8.01 8.74 9.3 9.59 9.53 9.17 8.67 7.86 6.92 6
2864.532 5.26 4.71 4.3 4.08 3.87 3.7 3.6 3.61 3.56 3.46
2883.822 3.45 3.44 3.48 3.51 3.57 3.67 3.83 4.14 4.41 4.64
2903.112 4.98 5.41 5.78 6.18 6.66 7.02 7.27 7.47 7.64 7.83
2922.401 7.95 8 8.13 8.35 8.59 8.81 9.16 9.89 10.79 11.83
2941.691 13.05 14.51 16.02 17.14 17.84 18.17 18.26 18.13 17.57 16.57
2960.981 15.44 14.29 13.2 12.32 11.58 11 10.44 9.79 9.18 8.59
2980.271 7.89 7.32 6.94 6.56 6.38 6.31 6.26 6.36 6.63 7.06
2999.561 7.52 8.04 8.69 9.47 10.08 10.46 10.65 10.53 10.24 9.67
3018.850 9.04 8.22 7.13 6.23 5.48 4.9 4.56 4.39 4.28 4.21
3038.140 4.2 4.43 4.68 4.76 4.95 5.28 5.48 5.7 6 6.31
3057.430 6.64 6.86 7.08 7.22 7.38 7.43 7.32 7.18 7.01 6.94
3076.720 6.86 6.49 6.15 5.9 5.49 5.13 4.98 4.77 4.38 4.01
3096.009 3.72 3.56 3.46 3.23 2.94 2.68 2.47 2.34 2.15 2.02
3115.299 1.86 1.59 1.56 1.54 1.42 1.34 1.1953 1.0738 1.0626 1.1198
3134.589 1.0741 0.999 1.0812 1.0423 0.9193 0.9313 0.8419 0.6967 0.6841 0.6397
3153.879 0.7188 0.818 0.7014 0.6453 0.6795 0.676 0.673 0.7081 0.8166 0.8463
3173.169 0.7598 0.7383 0.6941 0.6166 0.6591 0.68 0.6278 0.597 0.6729 0.7487
3192.458 0.7211 0.7059 0.621 0.6864 0.7872 0.7499 0.6878 0.5994 0.5137 0.5252
3211.748 0.5524 0.6009 0.6868 0.6409 0.5878 0.65 0.6723 0.5739 0.6427 0.7106
3231.038 0.6335 0.5866 0.4982 0.4875 0.5304 0.6275 0.5803 0.5825 0.6994 0.6253
3250.328 0.6162 0.5678 0.5275 0.5874 0.595 0.5469 0.4758 0.5152 0.5475 0.3928
3269.617 0.29922 0.3171 0.3609 0.4209 0.4772 0.4625 0.27203 0.26419 0.415 0.4125
3288.907 0.21932 0.2139 0.4374 0.4348 0.27021 0.2778 0.3319 0.3365 0.3504 0.4004
3308.197 0.542 0.4793 0.3373 0.3462 0.3165 0.29564 0.3591 0.4537 0.4565 0.27265
3327.487 0.21826 0.1764 0.22303 0.3146 0.303 0.28362 0.21543 0.27988 0.3268 0.3168
3346.777 0.27762 0.29058 0.3538 0.3141 0.29969 0.392 0.5205 0.5151 0.4642 0.28056
3366.066 0.26995 0.23512 0.201098 0.26926 0.22864 0.2788 0.3016 0.27306 0.2369 0.3107
3385.356 0.4171 0.3955 0.3129 0.3067 0.24698 0.19152 0.1874 0.24543 0.24379 0.19889
3404.646 0.3004 0.3334 0.21934 0.1753 0.202525 0.27785 0.29858 0.23812 0.23845 0.26624
3423.936 0.3101 0.3775 0.381 0.28534 0.26494 0.2659 0.200021 0.1672 0.1103 0.1142
3443.225 0.22775 0.23446 0.22294 0.1812 0.204461 0.3291 0.26054 0.1649 0.24724 0.3267
3462.515 0.27029 0.3009 0.3531 0.3221 0.3454 0.3257 0.26454 0.3912 0.4228 0.3802
3481.805 0.4278 0.3645 0.309 0.3537 0.4214 0.4805 0.5705 0.4662 0.4398 0.5351
3501.095 0.5452 0.5395 0.4879 0.4964 0.5774 0.5672 0.5009 0.616 0.7951 0.7993
3520.385 0.7266 0.8035 0.8397 0.8488 1.0508 1.21 1.1739 1.179 1.42 1.73
3539.674 2.03 2.21 2.36 2.94 3.54 3.98 4.68 5.72 7.26 9.03
3558.964 11.2 14.37 18.46 23.23 28.83 35.03 41.15 46.74 51.47 55.16
3578.254 57.32 57.44 55.51 51.71 46.67 40.8 34.87 29.12 23.37 18.24
3597.544 14.11 10.97 8.49 6.77 5.74 4.88 4.11 3.46 2.99 2.62
3616.833 2.26 1.96 1.64 1.5 1.4 1.24 1.083 1.0104 1.1335 1.0401
3636.123 0.8652 0.7705 0.8017 0.8049 0.6838 0.6924 0.6652 0.6339 0.677 0.5817
3655.413 0.4731 0.5265 0.504 0.5128 0.5229 0.2772 0.206301 0.2514 0.26455 0.23597
3674.703 0.28509 0.4098 0.3625 0.3183 0.3768 0.4011 0.4253 0.3571 0.2484 0.23186
3693.993 0.27821 0.3552 0.4028 0.393 0.3831 0.3587 0.3322 0.4109 0.181 0.1047
3713.282 0.2694 0.3203 0.3559 0.29427 0.23844 0.1824 0.1612 0.26928 0.3803 0.29271
3732.572 0.1771 0.072 0.1562 0.3171 0.23636 0.204439 0.3141 0.3224 0.22424 0.206995
3751.862 0.26309 0.24443 0.044 0 0.093 0.19849 0.2861 0.27117 0.29123 0.21225
3771.152 0.061 0.1338 0.26537 0.23628 0.28096 0.3268 0.127 0.001 0.19299 0.26245
3790.441 0.26607 0.28598 0.1323 0.1469 0.25607 0.22118 0.19106 0.1376 0.065 0.157
3809.731 0.208347 0.202436 0.22165 0.22668 0.28573 0.206788 0.1699 0.26733 0.4161 0.498
3829.021 0.4342 0.3324 0.3742 0.363 0.434 0.5275 0.3491 0.25449 0.3064 0.4843
3848.311 0.6059 0.5803 0.5633 0.4974 0.3783 0.4038 0.6211 0.7717 0.6927 0.768
3867.601 0.7595 0.5516 0.6072 0.6585 0.5962 0.6494 0.6613 0.551 0.6191 0.6826
3886.890 0.5948 0.6537 0.6242 0.5717 0.607 0.6249 0.6719 0.6734 0.5943 0.5395
3906.180 0.5335 0.5666 0.6243 0.6321 0.5928 0.5976 0.6771 0.6082 0.4438 0.4803
3925.470 0.4143 0.38 0.492 0.5041 0.5389 0.5452 0.4906 0.4884 0.4112 0.3935
3944.760 0.5181 0.5492 0.4331 0.3665 0.3843 0.4338 0.3737 0.28036 0.3778 0.3713
3964.049 0.3358 0.4116 0.5405 0.407 0.25336 0.2954 0.335 0.3927 0.3084 0.23965
3983.339 0.3337 0.4133 0.5401 0.638 0.613 0.4904 0.5458 0.5238 0.464 0.4439
##END=
