##TITLE=2-Phenoxybenzhydrazide
##JCAMP-DX=4.24
##DATA TYPE=INFRARED SPECTRUM
##ORIGIN=EPA-IR VAPOR PHASE LIBRARY
##OWNER=SRD/NIST
Collection (C) 2018 copyright by the U.S. Secretary of Commerce
on behalf of the United States of America. All rights reserved.
##CAS REGISTRY NO=43038-37-5
##MOLFORM=C13 H12 N2 O2
##$NIST SOURCE=MSDC-IR
##STATE=gas
##XUNITS=1/CM
##YUNITS=ABSORBANCE
##XFACTOR=1.
##YFACTOR=0.001
##DELTAX=1.92898
##FIRSTX=549.8
##LASTX=4000.7
##FIRSTY=7.47
##MAXX=4000.7
##MINX=549.759
##MAXY=0.14191
##MINY=0.00002374
##NPOINTS=1790
##XYDATA=(X++(Y..Y))
549.759 7.47 7.4 7.19 6.97 6.65 6.19 6.01 6.02 5.89 6.04
569.049 6.25 5.91 5.6 5.61 5.63 5.19 5.09 5.25 5.09 4.86
588.339 4.6 4.58 4.43 4.3 4.13 4.06 4.18 4.14 4.01 3.82
607.628 3.7 3.65 3.58 3.4 3.35 3.51 3.31 3.06 3 3.09
626.918 3.14 3.03 3.21 3.28 3.18 3.05 3.02 3.19 3.45 3.78
646.208 3.99 4.16 4.47 4.98 5.63 6.17 6.45 6.69 6.9 6.96
665.498 6.58 6.28 6.39 6.44 6.59 6.89 7.42 8.5 10.22 12.32
684.787 14.54 16.53 17.46 17.75 17.88 16.98 15.4 13.58 12.14 11.1
704.077 10.05 9.18 8.57 8.18 7.92 7.75 7.58 7.45 7.29 7.3
723.367 7.66 8.12 8.29 8.74 9.7 10.97 12.92 15.33 18.68 23.4
742.657 28.78 34.36 39.48 43.53 44.99 42.62 38.12 32.89 27.52 22.7
761.947 18.82 16.27 14.58 13.63 13.1 12.74 12.65 12.63 12.67 12.72
781.236 12.75 12.6 12.29 12.14 12.11 12.14 11.93 11.62 11.49 11.09
800.526 10.4 9.73 9.02 8.16 7.38 6.71 6.25 6.08 5.73 5.31
819.816 5.17 5.17 5.14 4.83 4.63 4.78 5.08 5.27 5.49 6.25
839.106 7.22 8.09 9.17 10.75 12.67 14.42 16.03 17.1 17.27 16.99
858.395 15.96 14.44 13.03 11.81 11.04 10.31 9.85 9.73 9.76 10.03
877.685 10.3 10.54 10.82 11.25 11.45 11.32 11.09 10.64 9.99 9.48
896.975 9.2 8.88 8.55 8.77 9.07 9.13 9.49 10.02 10.73 11.66
916.265 12.81 14.09 15.6 17.5 19.73 21.9 24.07 26.65 29.22 31.43
935.555 33.35 34.77 35.28 34.97 33.52 31.27 28.32 24.93 21.65 18.37
954.844 15.52 13.23 11.43 9.9 8.41 7.56 7 6.37 5.86 5.39
974.134 5.16 4.86 4.58 4.57 4.44 4.09 3.94 3.92 3.68 3.47
993.424 3.34 3.36 3.47 3.18 3 3.21 3.31 3.61 3.74 3.7
1012.714 4.32 5.07 5.55 6.1 6.69 6.88 6.92 6.69 6.24 5.67
1032.003 5.36 5.27 4.79 4.75 4.62 4.05 3.74 3.38 2.91 2.93
1051.293 2.95 2.85 3.19 3.31 3.57 4.12 4.52 5.16 5.84 6.14
1070.583 6.46 6.85 7.27 7.66 7.42 7.73 8.48 9.75 10.84 11.22
1089.873 11.9 12.53 12.55 11.85 11.39 10.85 9.47 8.02 7.17 6.63
1109.163 5.97 4.99 4.62 4.42 4.1 3.68 2.86 2.88 3.11 3.04
1128.452 3.28 3.56 3.58 3.66 4.02 4.17 4.19 4.19 4.76 5.65
1147.742 6.61 7.97 9.76 11.81 13.9 15.87 17.27 18.25 18.48 18
1167.032 16.88 15.32 13.8 12.44 11.77 11.4 11.38 11.34 11.67 12.74
1186.322 13.67 14.88 16.39 17.72 19.35 21.3 23.35 26.06 29.58 33.57
1205.611 38.79 45.7 53.75 63.34 74.99 88.4 101.9 114.81 126.36 135.34
1224.901 140.72 141.91 138.78 132.08 123.02 112.6 101.83 90.57 79.63 69.71
1244.191 60.57 52.81 46.35 40.96 36.41 32.56 29.36 26.71 24.16 22.02
1263.481 20.91 19.98 19.23 19.1 19.39 20.18 21.3 22.92 25.1 27.82
1282.771 31.17 34.75 38.41 41.54 43.71 44.9 44.71 43.08 40.28 36.53
1302.060 32.37 28.2 24.35 21.18 18.51 16.28 14.52 13.17 12.21 11.48
1321.350 10.83 10.29 9.87 9.45 9 8.63 8.28 7.89 7.52 7.16
1340.640 6.79 6.43 6.12 5.76 5.45 5.31 5.18 5.05 5.01 4.93
1359.930 4.82 4.74 4.61 4.53 4.54 4.54 4.48 4.43 4.44 4.46
1379.219 4.54 4.61 4.59 4.56 4.58 4.63 4.7 4.79 4.87 4.92
1398.509 5.07 5.3 5.48 5.63 5.9 6.19 6.47 6.91 7.49 8.1
1417.799 8.83 9.76 10.83 12.01 13.46 15.11 17.15 19.51 22.28 25.39
1437.089 29.22 33.28 37.47 41.87 45.99 49.49 52.3 54.17 55.25 55.6
1456.378 55.41 55.08 54.97 55.3 56.54 58.94 62.35 66.87 72.29 78.28
1475.668 83.52 87.98 91.33 93.75 95.47 97.02 97.86 96.93 93.77 88.68
1494.958 81.32 71.81 61.39 51.28 43.16 37.5 33.24 29.92 27.42 25.24
1514.248 23.39 21.75 20.15 18.67 17.21 15.93 14.72 13.54 12.53 11.65
1533.538 10.91 10.23 9.69 9.21 8.72 8.33 8.13 8.09 8.11 8.2
1552.827 8.44 8.87 9.54 10.46 11.74 13.22 15.16 17.54 20.19 23.03
1572.117 25.54 27.41 28.84 29.85 30.72 31.71 33.06 35.29 38.27 41.56
1591.407 44.48 46.42 47.07 46.33 44.35 41.41 38.02 34.45 31.11 28.15
1610.697 25.46 23.32 21.95 21.26 21.2 21.55 22.18 22.96 23.88 24.77
1629.986 25.52 26.08 26.22 25.83 25.04 23.93 22.66 21.39 20.13 19.09
1649.276 18.33 17.82 17.59 17.59 17.81 18.16 18.78 19.84 21.26 23.03
1668.566 25.44 28.44 32.18 36.81 43.15 50.71 60.22 70.14 79.7 88.16
1687.856 92.82 93.92 90.22 82.51 71.25 59.74 50.65 42.44 37.43 33.27
1707.146 30.16 27.76 25.8 24.07 22.6 21.17 19.65 18.17 16.69 15.31
1726.435 13.92 12.44 11.08 9.97 8.9 7.87 7.05 6.26 5.68 5.18
1745.725 4.76 4.44 4.19 3.94 3.79 3.64 3.41 3.28 3.27 3.24
1765.015 3.23 3.22 3.19 3.12 3.06 2.94 2.76 2.6 2.46 2.35
1784.305 2.26 2.14 2.08 2.04 2 1.99 1.97 1.93 1.92 1.92
1803.594 1.9 1.9 1.94 1.99 2.03 2.06 2.13 2.16 2.13 2.17
1822.884 2.14 2.06 2.07 2.07 2.06 2.04 2.03 2.05 2.13 2.18
1842.174 2.12 2.14 2.14 2.1 2.1 2.11 2.02 1.88 1.8 1.75
1861.464 1.72 1.66 1.59 1.55 1.55 1.52 1.44 1.42 1.41 1.34
1880.754 1.32 1.29 1.31 1.35 1.32 1.3 1.29 1.33 1.36 1.44
1900.043 1.5 1.54 1.62 1.74 1.84 1.92 2.04 2.16 2.2 2.24
1919.333 2.42 2.64 2.82 2.93 3.06 3.08 2.97 2.86 2.79 2.62
1938.623 2.47 2.38 2.33 2.36 2.37 2.38 2.35 2.34 2.27 2.16
1957.913 2.02 1.91 1.87 1.77 1.64 1.57 1.56 1.54 1.5 1.45
1977.202 1.43 1.4 1.41 1.43 1.39 1.36 1.33 1.28 1.24 1.19
1996.492 1.19 1.21 1.26 1.29 1.28 1.3 1.38 1.45 1.55 1.66
2015.782 1.78 1.86 1.89 1.87 1.88 1.94 1.93 1.88 1.83 1.69
2035.072 1.61 1.53 1.48 1.43 1.32 1.31 1.29 1.19 1.14 1.09
2054.362 1.09 1.03 0.9033 0.8225 0.8248 0.8457 0.7544 0.7423 0.7471 0.6785
2073.651 0.6116 0.6055 0.6875 0.7129 0.7051 0.6685 0.6127 0.5712 0.5072 0.5472
2092.941 0.5361 0.4489 0.4078 0.4402 0.4333 0.3877 0.4446 0.405 0.3601 0.3915
2112.231 0.4082 0.4214 0.3961 0.3668 0.392 0.4168 0.3904 0.3762 0.3675 0.3726
2131.521 0.3784 0.3563 0.3291 0.3164 0.3928 0.3743 0.3482 0.4057 0.3842 0.3434
2150.810 0.2878 0.2285 0.2511 0.3131 0.287 0.2523 0.2666 0.2305 0.2423 0.2824
2170.100 0.3133 0.3272 0.2939 0.306 0.3226 0.2874 0.3139 0.3558 0.3302 0.2835
2189.390 0.2506 0.229 0.2023 0.1609 0.1949 0.2825 0.3088 0.3061 0.2823 0.2884
2208.680 0.3188 0.3025 0.3432 0.4439 0.4139 0.3123 0.2929 0.328 0.4114 0.4964
2227.970 0.5062 0.4068 0.3593 0.4195 0.4695 0.4914 0.4544 0.4366 0.4806 0.5329
2247.259 0.5227 0.5194 0.5009 0.3825 0.3941 0.5152 0.5495 0.5411 0.5077 0.456
2266.549 0.4039 0.3927 0.4416 0.5017 0.5363 0.5021 0.509 0.5601 0.4991 0.4318
2285.839 0.4961 0.5038 0.5018 0.595 0.5517 0.4915 0.4858 0.528 0.5558 0.5691
2305.129 0.6438 0.6568 0.6454 0.7774 0.9172 0.9281 0.9631 0.903 0.8755 0.9286
2324.418 0.899 0.8629 0.8853 0.9115 0.8717 0.8589 0.8056 0.7407 0.7912 0.7763
2343.708 0.8219 0.8873 0.8844 0.8587 0.7995 0.8423 0.8487 0.7898 0.7367 0.7732
2362.998 0.7394 0.635 0.7412 0.821 0.8431 0.9514 1.04 1.01 1.01 1.08
2382.288 1.16 1.29 1.32 1.34 1.36 1.37 1.35 1.36 1.4 1.31
2401.578 1.36 1.45 1.51 1.55 1.44 1.33 1.28 1.26 1.33 1.37
2420.867 1.28 1.21 1.24 1.25 1.16 0.9838 0.9417 1.06 1.03 0.9837
2440.157 0.9573 0.874 0.8609 0.8325 0.7687 0.7029 0.6978 0.7196 0.6867 0.7082
2459.447 0.7584 0.6964 0.5585 0.5636 0.5795 0.5748 0.557 0.6712 0.7625 0.6384
2478.737 0.6399 0.6471 0.6101 0.6421 0.5656 0.5945 0.5723 0.4867 0.5576 0.4817
2498.026 0.4264 0.5731 0.6141 0.6031 0.5594 0.4469 0.5364 0.61 0.5407 0.5778
2517.316 0.5642 0.4704 0.5243 0.495 0.47 0.5492 0.4912 0.5615 0.6767 0.5764
2536.606 0.5174 0.5447 0.5303 0.5168 0.5524 0.6032 0.5982 0.5763 0.5505 0.5374
2555.896 0.5486 0.512 0.5125 0.5498 0.6085 0.653 0.7064 0.728 0.6305 0.5506
2575.186 0.527 0.5923 0.6283 0.5751 0.566 0.5666 0.5673 0.5705 0.484 0.4535
2594.475 0.5003 0.437 0.4203 0.3956 0.4389 0.4379 0.3502 0.3607 0.3929 0.3844
2613.765 0.3733 0.4079 0.3923 0.4328 0.4172 0.3247 0.3321 0.3492 0.3712 0.3835
2633.055 0.3838 0.379 0.2939 0.2272 0.274 0.3786 0.355 0.1684 0.09944 0.1862
2652.345 0.2239 0.1823 0.2036 0.1795 0.1366 0.2559 0.2848 0.3151 0.275 0.1977
2671.634 0.2446 0.2176 0.347 0.4801 0.4351 0.4205 0.3801 0.3244 0.2629 0.2258
2690.924 0.2026 0.1783 0.2355 0.2782 0.2483 0.2005 0.1747 0.2322 0.269 0.306
2710.214 0.2651 0.284 0.2885 0.2977 0.3106 0.2581 0.3644 0.4754 0.5179 0.4755
2729.504 0.5223 0.5449 0.489 0.4588 0.4403 0.4375 0.4295 0.4888 0.5355 0.5334
2748.794 0.4858 0.414 0.3594 0.4279 0.4662 0.3385 0.3232 0.3852 0.3653 0.3537
2768.083 0.4088 0.4665 0.5345 0.5325 0.4131 0.4796 0.5344 0.4252 0.4901 0.4497
2787.373 0.3974 0.3985 0.3701 0.3695 0.3786 0.3951 0.3141 0.3353 0.3014 0.22
2806.663 0.2508 0.3003 0.3465 0.2887 0.3778 0.4288 0.3403 0.2981 0.288 0.4294
2825.953 0.4761 0.4693 0.407 0.3229 0.4136 0.4084 0.309 0.3487 0.4158 0.431
2845.242 0.4021 0.3618 0.4348 0.461 0.4455 0.5094 0.6774 0.613 0.4779 0.5311
2864.532 0.5611 0.6113 0.4997 0.4343 0.3958 0.4014 0.4996 0.427 0.4154 0.4084
2883.822 0.3046 0.4679 0.62 0.5531 0.4714 0.3944 0.4795 0.6067 0.5427 0.5198
2903.112 0.5442 0.4287 0.3639 0.381 0.3821 0.4636 0.4022 0.3895 0.4271 0.4142
2922.401 0.4971 0.4845 0.318 0.2937 0.4794 0.4908 0.4313 0.519 0.5616 0.5367
2941.691 0.5792 0.5578 0.5461 0.4805 0.42 0.4732 0.5335 0.5384 0.5153 0.4321
2960.981 0.3231 0.4244 0.4584 0.4207 0.5373 0.524 0.4619 0.4414 0.4697 0.5154
2980.271 0.5502 0.6544 0.7341 0.6422 0.623 0.7854 0.8544 0.8543 0.9227 0.9971
2999.561 1.12 1.2 1.24 1.42 1.43 1.42 1.64 2.05 2.31 2.39
3018.850 2.65 3.05 3.46 3.79 4.42 5.09 5.44 5.82 6.47 7.09
3038.140 7.53 7.91 8.15 8.39 8.52 8.43 8.34 8.3 8.19 8.16
3057.430 8.28 8.65 9.32 9.98 10.78 11.79 12.85 14.12 15.55 16.95
3076.720 18.22 18.93 19.15 18.89 17.81 16.15 14.16 12.02 10.18 8.73
3096.009 7.54 6.7 6.02 5.37 4.68 4.01 3.5 2.95 2.33 2.02
3115.299 1.79 1.6 1.52 1.39 1.11 0.989 1.11 1.01 0.9032 0.8628
3134.589 0.97 1.04 1.03 1.1 1.07 0.9166 0.7676 0.7858 0.8591 0.8925
3153.879 0.8642 0.7512 0.6795 0.6818 0.6464 0.6543 0.6502 0.6399 0.686 0.6418
3173.169 0.5883 0.7988 0.9547 0.7913 0.7889 0.9721 1.06 1.02 1.1 1.14
3192.458 1.04 1.14 1.24 1.1 1.09 1.06 0.9354 0.933 0.9321 0.9791
3211.748 1.14 1.11 0.8718 0.7674 0.8443 0.9229 0.8816 0.842 0.845 0.7378
3231.038 0.5592 0.6222 0.7444 0.6276 0.6238 0.7599 0.7311 0.6656 0.6968 0.6716
3250.328 0.6022 0.6338 0.6889 0.6789 0.5635 0.5415 0.6232 0.6183 0.7189 0.8683
3269.617 0.7685 0.6422 0.6102 0.5635 0.6908 0.7695 0.8069 0.7474 0.6324 0.6643
3288.907 0.6494 0.6563 0.7941 0.9305 0.9493 0.7709 0.7383 0.8788 0.8499 0.7347
3308.197 0.6993 0.7284 0.7064 0.7625 0.8199 0.7476 0.7942 0.9195 0.9144 0.8247
3327.487 0.7686 0.964 1.13 1.17 1.18 1.06 1.12 1.35 1.41 1.46
3346.777 1.45 1.43 1.43 1.3 1.36 1.49 1.54 1.55 1.42 1.34
3366.066 1.22 1.3 1.39 1.31 1.24 1.24 1.29 1.3 1.26 1.1
3385.356 1.1 1.11 1.22 1.36 1.22 1.28 1.44 1.5 1.55 1.58
3404.646 1.62 1.83 2.11 2.2 2.26 2.31 2.48 2.65 2.8 3.07
3423.936 3.31 3.65 3.92 4.41 5.06 5.63 6.18 6.82 7.81 8.9
3443.225 10.03 11.51 13.38 15.35 17.5 20.06 22.68 25.43 28.07 30.27
3462.515 31.69 31.89 31.13 29.31 26.66 23.4 19.91 16.91 14.31 11.93
3481.805 10.03 8.64 7.65 6.74 5.93 5.25 4.61 4.1 3.86 3.64
3501.095 3.05 2.74 2.69 2.59 2.32 2.07 2.11 2.02 1.73 1.52
3520.385 1.45 1.38 1.31 1.34 1.23 1.16 1.11 1 0.8554 0.7579
3539.674 0.8093 0.6239 0.5265 0.6964 0.7326 0.5442 0.455 0.6042 0.6166 0.5713
3558.964 0.5651 0.6231 0.6395 0.6031 0.5868 0.5244 0.4029 0.3415 0.4992 0.5872
3578.254 0.6331 0.603 0.583 0.5815 0.6541 0.6937 0.6274 0.5357 0.5532 0.6955
3597.544 0.7177 0.8187 0.8786 0.8167 0.8522 0.893 0.8497 0.7709 0.7817 0.7891
3616.833 0.7185 0.6038 0.4892 0.615 0.7483 0.6342 0.5055 0.6738 0.6014 0.4089
3636.123 0.4727 0.4361 0.3355 0.4031 0.4779 0.4323 0.2193 0.3102 0.5166 0.3047
3655.413 0.2359 0.4263 0.4721 0.4881 0.496 0.4645 0.4473 0.4495 0.5552 0.6296
3674.703 0.503 0.1886 0.2001 0.3752 0.4336 0.3257 0.2296 0.2466 0.1471 0.1331
3693.993 0.177 0.1662 0.2143 0.3187 0.3968 0.2947 0.28 0.3578 0.355 0.2822
3713.282 0.3258 0.3753 0.2983 0.4929 0.5207 0.3141 0.3626 0.2378 0.2081 0.3504
3732.572 0.3033 0.337 0.3676 0.4143 0.4305 0.3419 0.13 0.02374 0.08773 0.1314
3751.862 0.2039 0.1958 0.1321 0.1961 0.2414 0.15 0.1458 0.1509 0.1913 0.1736
3771.152 0.1835 0.332 0.2507 0.2262 0.2349 0.2151 0.3042 0.3658 0.4142 0.3503
3790.441 0.3105 0.3846 0.3231 0.3005 0.4549 0.4052 0.2819 0.2352 0.3071 0.3825
3809.731 0.2957 0.4229 0.4557 0.447 0.5308 0.4464 0.4515 0.5926 0.6506 0.5071
3829.021 0.3333 0.2695 0.2992 0.3095 0.3122 0.2957 0.3221 0.3106 0.2951 0.2884
3848.311 0.3517 0.3896 0.2892 0.3077 0.3416 0.3923 0.4455 0.4586 0.3175 0.1259
3867.601 0.1951 0.1841 0.2026 0.3061 0.3129 0.2616 0.2608 0.3515 0.41 0.2889
3886.890 0.3315 0.4462 0.2426 0.272 0.4098 0.5022 0.4874 0.5333 0.5546 0.4511
3906.180 0.4335 0.3958 0.2535 0.09543 0.06468 0.09598 0.1679 0.3088 0.4153 0.3663
3925.470 0.2336 0.3451 0.506 0.5773 0.565 0.332 0.1385 0.1358 0.2486 0.3391
3944.760 0.3944 0.3398 0.3582 0.5405 0.6529 0.6482 0.4838 0.348 0.5155 0.6605
3964.049 0.5504 0.4071 0.4661 0.4579 0.3741 0.398 0.3985 0.3925 0.329 0.3589
3983.339 0.4592 0.3836 0.3833 0.3113 0.2354 0.2904 0.1957 0.06902 0.07803 0.2109
##END=
