##TITLE=1-(4-Methoxyphenyl)-1-cyclopentanecarboxylic acid
##JCAMP-DX=4.24
##DATA TYPE=INFRARED SPECTRUM
##ORIGIN=EPA-IR VAPOR PHASE LIBRARY
##OWNER=SRD/NIST
Collection (C) 2018 copyright by the U.S. Secretary of Commerce
on behalf of the United States of America. All rights reserved.
##CAS REGISTRY NO=43050-28-8
##MOLFORM=C 13 H 16 O 3
##$NIST SOURCE=MSDC-IR
##STATE=gas
##XUNITS=1/CM
##YUNITS=ABSORBANCE
##XFACTOR=1.
##YFACTOR=0.001
##DELTAX=1.92934
##FIRSTX=549.9
##LASTX=3999.5
##FIRSTY=8.48
##MAXX=3999.53
##MINX=549.863
##MAXY=0.05983
##MINY=0
##NPOINTS=1789
##XYDATA=(X++(Y..Y))
549.863 8.48 8.72 8.86 8.92 9.1 9.27 9.54 9.88 10.22 10.77
569.156 11.28 11.76 12.36 12.99 13.68 14.27 14.55 14.83 15.08 14.99
588.450 14.52 13.99 13.35 12.48 11.79 11.15 10.32 9.62 9.06 8.54
607.743 8.18 7.69 7.2 6.9 6.66 6.55 6.33 6 5.78 5.6
627.037 5.47 5.35 5.2 5.16 5.13 4.98 4.88 4.86 4.79 4.75
646.330 4.82 4.86 4.85 4.85 5.01 5.26 5.39 5.45 5.53 5.67
665.624 5.81 6.06 6.07 5.71 5.35 5.04 4.71 4.44 4.3 4.12
684.917 3.86 3.64 3.57 3.6 3.53 3.44 3.41 3.46 3.47 3.46
704.210 3.52 3.44 3.42 3.47 3.42 3.43 3.48 3.46 3.49 3.48
723.504 3.42 3.38 3.34 3.26 3.1 2.93 2.86 2.77 2.67 2.58
742.797 2.48 2.48 2.5 2.54 2.63 2.61 2.59 2.63 2.62 2.66
762.091 2.71 2.78 2.88 2.92 2.94 2.97 3.07 3.24 3.48 3.76
781.384 3.99 4.33 4.84 5.45 6.11 6.65 6.91 7.05 7.03 6.79
800.678 6.41 6.03 5.67 5.37 5.27 5.29 5.42 5.85 6.41 6.82
819.971 7.32 8.09 8.85 9.43 9.86 9.98 9.76 9.3 8.57 7.73
839.264 6.83 5.97 5.26 4.68 4.21 3.86 3.63 3.4 3.18 3.06
858.558 2.98 2.81 2.65 2.61 2.56 2.52 2.45 2.37 2.29 2.23
877.851 2.19 2.1057 2.0489 2.0689 2.0398 2.0083 2.0925 2.12 2.16 2.19
897.145 2.18 2.21 2.21 2.12 2.0117 1.9476 1.887 1.881 1.8789 1.8002
916.438 1.7648 1.7655 1.7521 1.7713 1.8308 1.8821 1.9298 1.9752 2.0827 2.22
935.732 2.37 2.5 2.6 2.73 2.86 3.07 3.26 3.31 3.36 3.42
955.025 3.37 3.38 3.38 3.35 3.27 3.21 3.27 3.29 3.29 3.37
974.318 3.47 3.61 3.81 3.98 4.11 4.23 4.43 4.6 4.7 4.76
993.612 4.77 4.75 4.7 4.69 4.69 4.75 4.92 5.09 5.29 5.54
1012.905 5.83 6.17 6.54 6.97 7.51 8.21 9.1 10.18 11.45 12.83
1032.199 14.15 15.39 16.48 17.27 17.71 17.79 17.44 16.73 15.68 14.4
1051.492 13.14 12.01 11.03 10.25 9.75 9.54 9.49 9.58 9.98 10.57
1070.786 11.28 12.1 13.11 14.07 14.97 15.92 16.68 17.25 17.61 17.52
1090.079 17.15 16.72 16.21 15.61 15.07 14.7 14.6 14.81 15.22 15.8
1109.372 16.53 17.44 18.36 19.15 19.88 20.57 21.16 21.7 22.28 22.94
1128.666 23.48 23.95 24.47 24.81 25.08 25.18 25.01 24.61 23.87 22.86
1147.959 21.76 20.45 19.12 17.91 16.83 16.06 15.35 14.66 14.37 14.55
1167.253 15.1 16.09 17.68 20.1 22.98 25.8 28.25 29.68 29.58 28.08
1186.546 25.26 21.48 17.94 15.02 12.97 11.67 10.51 9.78 9.54 9.41
1205.840 9.34 9.32 9.21 9.31 9.55 9.97 10.52 10.99 11.55 12.45
1225.133 13.41 14.37 15.92 17.95 20 22.32 25.25 28.87 32.82 36.92
1244.426 41.06 44.92 47.77 49.05 48.55 46.25 42.81 38.58 34 29.88
1263.720 26.57 23.93 21.97 20.72 19.9 19.41 19.25 19.28 19.45 19.83
1283.013 20.22 20.47 20.59 20.51 20.18 19.43 18.35 17.16 15.93 14.69
1302.307 13.59 12.59 11.67 10.97 10.35 9.75 9.21 8.74 8.36 8
1321.600 7.67 7.3 7.07 6.92 6.68 6.42 6.22 6.01 5.76 5.57
1340.894 5.37 5.13 4.88 4.7 4.56 4.37 4.24 4.06 3.9 3.79
1360.187 3.67 3.56 3.4 3.28 3.15 3.03 2.97 2.89 2.79 2.7
1379.480 2.66 2.57 2.47 2.47 2.41 2.33 2.37 2.4 2.35 2.32
1398.774 2.29 2.31 2.39 2.43 2.51 2.6 2.7 2.75 2.77 2.85
1418.067 2.9 2.94 3.03 3.13 3.22 3.36 3.59 3.87 4.23 4.66
1437.361 5.22 5.94 6.71 7.39 7.92 8.28 8.56 8.76 8.86 9.03
1456.654 9.32 9.65 10 10.35 10.67 10.82 10.82 10.67 10.38 9.99
1475.948 9.58 9.2 8.84 8.62 8.55 8.66 8.93 9.31 9.98 10.96
1495.241 12.4 14.44 17.11 20.75 25.38 30.85 36.84 42.2 45.73 46.68
1514.534 44.87 40.68 34.66 27.72 21.02 15.84 12.15 9.65 7.95 6.75
1533.828 5.92 5.31 4.82 4.5 4.23 3.98 3.87 3.76 3.64 3.59
1553.121 3.53 3.44 3.41 3.43 3.47 3.49 3.54 3.6 3.75 3.96
1572.415 4.18 4.42 4.6 4.78 4.93 5.02 5.04 5.05 5.19 5.41
1591.708 5.72 6.23 6.83 7.52 8.33 9.11 9.9 10.59 11.08 11.36
1611.002 11.38 11.02 10.31 9.37 8.2 7.01 5.93 5.01 4.35 3.85
1630.295 3.44 3.15 2.95 2.75 2.63 2.49 2.36 2.27 2.17 2.14
1649.588 2.12 2.0689 2.017 1.9428 1.8987 1.8906 1.8676 1.8211 1.7539 1.7326
1668.882 1.766 1.7654 1.7399 1.7574 1.7473 1.7469 1.8004 1.8879 1.9437 1.9568
1688.175 1.9862 2.078 2.2 2.31 2.46 2.59 2.75 3 3.29 3.68
1707.469 4.07 4.45 4.89 5.37 5.82 6.22 6.55 6.8 7 7.16
1726.762 7.34 7.61 7.92 8.36 9.02 9.89 11.02 12.52 14.59 17.35
1746.056 20.88 25.39 30.94 37.54 44.52 51.1 56.44 59.52 59.83 57.1
1765.349 51.76 44.7 37.13 30.26 24.51 20.18 17.11 15.04 13.76 12.89
1784.642 12.17 11.45 10.68 9.9 9.04 8.19 7.52 6.92 6.36 5.85
1803.936 5.4 4.97 4.53 4.08 3.69 3.37 3.13 2.92 2.71 2.53
1823.229 2.38 2.3 2.23 2.14 2.1046 2.0433 1.9582 1.8997 1.8988 1.8677
1842.523 1.8396 1.8798 1.8576 1.8394 1.8449 1.8356 1.8324 1.8223 1.7769 1.7282
1861.816 1.7963 1.8404 1.8177 1.8522 1.8524 1.8601 1.9241 1.9493 1.901 1.8465
1881.110 1.8378 1.7773 1.6673 1.6162 1.6057 1.5552 1.5029 1.4867 1.4638 1.4281
1900.403 1.4116 1.3815 1.3388 1.3344 1.3249 1.2722 1.2181 1.2367 1.2627 1.2609
1919.696 1.2591 1.2446 1.19035 1.14202 1.17476 1.2184 1.19192 1.14722 1.14012 1.15134
1938.990 1.2138 1.2196 1.20632 1.2325 1.19288 1.15785 1.16882 1.1812 1.1901 1.19544
1958.283 1.2269 1.246 1.2439 1.2138 1.2184 1.2393 1.2334 1.2424 1.2449 1.2452
1977.577 1.2689 1.3045 1.3017 1.2977 1.2204 1.1428 1.15504 1.16488 1.14557 1.13159
1996.870 1.11722 1.10928 1.14814 1.17802 1.2101 1.2457 1.2455 1.20298 1.20827 1.2324
2016.164 1.2531 1.3274 1.3567 1.3487 1.3732 1.4128 1.4498 1.4803 1.5096 1.5491
2035.457 1.5819 1.6297 1.6784 1.6623 1.6866 1.7435 1.7373 1.766 1.7554 1.6669
2054.750 1.654 1.6658 1.6442 1.7017 1.7126 1.69 1.7126 1.7116 1.7355 1.7341
2074.044 1.7136 1.6772 1.6237 1.6155 1.5785 1.5453 1.539 1.4676 1.3968 1.3637
2093.337 1.2871 1.2591 1.2347 1.18312 1.18556 1.16108 1.14855 1.12073 1.10645 1.0933
2112.631 1.0689 1.0596 1.0315 1.0257 1.0132 1.007 0.986 0.951 0.919 0.896
2131.924 0.912 0.919 0.926 0.908 0.869 0.843 0.854 0.868 0.867 0.888
2151.218 0.896 0.897 0.871 0.851 0.846 0.852 0.882 0.914 0.893 0.884
2170.511 0.896 0.895 0.897 0.876 0.912 0.958 0.929 0.902 0.943 0.967
2189.804 0.951 0.95 0.971 0.955 0.924 0.932 0.951 0.956 0.955 0.954
2209.098 0.958 0.944 0.929 0.952 0.956 0.96 0.959 0.944 0.948 0.95
2228.391 0.96 0.953 0.946 0.95 0.916 0.908 0.948 0.964 0.969 0.989
2247.685 0.982 0.938 0.948 0.999 1.005 0.985 0.954 0.932 0.929 0.956
2266.978 0.994 1.007 1.0195 1.0432 1.0607 1.0729 1.0753 1.0841 1.0574 1.075
2286.272 1.12484 1.17523 1.18285 1.15804 1.18192 1.2168 1.2535 1.2648 1.276 1.2414
2305.565 1.20501 1.2473 1.3129 1.3081 1.2737 1.2914 1.3193 1.3375 1.3368 1.3206
2324.858 1.3191 1.3359 1.3446 1.2813 1.2521 1.284 1.2967 1.2778 1.20554 1.16844
2344.152 1.1877 1.1916 1.16073 1.14507 1.19091 1.2525 1.2906 1.3812 1.4041 1.3986
2363.445 1.4192 1.3955 1.3718 1.3773 1.3487 1.2635 1.2124 1.14912 1.0704 1.0433
2382.739 1.0456 0.966 0.917 0.905 0.897 0.912 0.929 0.967 0.938 0.951
2402.032 0.987 0.957 0.924 0.91 0.925 0.952 0.967 0.936 0.912 0.944
2421.326 0.964 0.955 0.946 0.956 0.943 0.936 0.951 0.933 0.918 0.905
2440.619 0.917 0.887 0.85 0.876 0.906 0.903 0.865 0.831 0.873 0.916
2459.912 0.87 0.808 0.813 0.83 0.818 0.845 0.877 0.894 0.885 0.88
2479.206 0.875 0.879 0.893 0.89 0.923 0.885 0.837 0.91 0.932 0.947
2498.499 0.943 0.903 0.91 0.919 0.896 0.9 0.939 0.935 0.928 0.911
2517.793 0.906 0.963 1.001 0.959 0.942 0.944 0.948 0.952 0.99 1.0398
2537.086 1.0219 1.0251 1.0639 1.0758 1.0357 1 0.986 0.976 0.998 0.951
2556.380 0.863 0.83 0.856 0.879 0.806 0.789 0.844 0.821 0.751 0.746
2575.673 0.764 0.809 0.824 0.73 0.756 0.806 0.784 0.772 0.718 0.696
2594.966 0.701 0.692 0.728 0.759 0.716 0.69 0.695 0.706 0.703 0.674
2614.260 0.669 0.626 0.649 0.645 0.606 0.68 0.706 0.704 0.682 0.674
2633.553 0.708 0.728 0.754 0.775 0.722 0.632 0.608 0.612 0.659 0.7
2652.847 0.694 0.629 0.627 0.683 0.685 0.664 0.592 0.613 0.638 0.557
2672.140 0.457 0.523 0.625 0.593 0.581 0.604 0.576 0.565 0.577 0.552
2691.434 0.549 0.581 0.638 0.606 0.599 0.554 0.517 0.581 0.584 0.586
2710.727 0.633 0.668 0.639 0.64 0.673 0.647 0.611 0.642 0.675 0.675
2730.020 0.635 0.68 0.774 0.767 0.751 0.722 0.682 0.713 0.781 0.791
2749.314 0.693 0.647 0.733 0.769 0.768 0.756 0.745 0.884 1.003 0.998
2768.607 0.978 0.918 0.866 0.892 0.933 0.892 0.889 0.949 0.997 1.0287
2787.901 1.0361 1.0326 1.0475 1.098 1.10748 1.13797 1.229 1.3274 1.4327 1.4334
2807.194 1.4303 1.5194 1.651 1.7909 1.8373 1.8883 2.092 2.27 2.34 2.46
2826.488 2.69 2.88 3.14 3.44 3.89 4.64 5.42 6.23 6.89 7.29
2845.781 7.42 7.21 6.68 6.06 5.42 5.03 4.76 4.63 4.68 4.71
2865.074 4.9 5.22 5.62 6.16 6.87 7.72 8.62 9.58 10.51 11.3
2884.368 11.77 11.9 11.86 11.49 10.86 10.12 9.33 8.81 8.45 8.2
2903.661 8.28 8.43 8.71 9.13 9.38 9.77 10.31 10.75 11.11 11.35
2922.955 11.66 12.09 12.45 12.83 13.28 13.89 14.68 15.54 16.51 17.55
2942.248 18.43 19.22 20.08 20.97 21.78 22.55 23.49 24.59 25.7 26.84
2961.542 27.78 28.42 28.88 28.72 28 27.02 25.75 24.38 23.11 22
2980.835 20.94 19.8 18.48 17.07 15.78 14.41 13.1 12 11.15 10.87
3000.128 10.88 10.79 10.82 10.89 10.61 9.99 9.06 8.04 6.95 5.98
3019.422 5.21 4.6 4.28 3.97 3.75 3.81 3.77 3.82 4.04 4.17
3038.715 4.39 4.47 4.53 4.71 4.67 4.46 4.33 4.17 3.96 3.68
3058.009 3.55 3.52 3.42 3.37 3.43 3.58 3.5 3.39 3.42 3.24
3077.302 3.08 3.06 2.91 2.77 2.77 2.59 2.46 2.49 2.42 2.39
3096.596 2.43 2.42 2.32 2.0666 1.8382 1.8132 1.8353 1.7468 1.6374 1.5483
3115.889 1.3792 1.20147 1.2202 1.2544 1.14744 0.953 0.87 0.994 0.882 0.747
3135.182 0.757 0.654 0.723 0.731 0.658 0.722 0.659 0.545 0.488 0.523
3154.476 0.587 0.574 0.366 0.221 0.294 0.356 0.304 0.334 0.422 0.266
3173.769 0.199 0.216 0.295 0.353 0.37 0.359 0.348 0.281 0.282 0.316
3193.063 0.225 0.195 0.225 0.363 0.337 0.204 0.03 0.121 0.18 0.189
3212.356 0.235 0.01 0.05 0.205 0.192 0.166 0.1 0.09 0.192 0.379
3231.650 0.34 0.158 0.246 0.303 0.258 0.301 0.299 0.267 0.237 0.307
3250.943 0.292 0.08 0 0 0.145 0.363 0.401 0.291 0.133 0.09
3270.236 0.203 0.304 0.342 0.325 0.247 0.172 0.245 0.264 0.187 0.155
3289.530 0.158 0.168 0.166 0.197 0.208 0.124 0.05 0.1 0.2 0.232
3308.823 0.265 0.315 0.206 0.112 0.147 0.225 0.295 0.33 0.283 0.128
3328.117 0.1 0.1 0.144 0.251 0.193 0.03 0.07 0.184 0.215 0.217
3347.410 0.275 0.246 0.273 0.363 0.207 0.199 0.31 0.209 0.178 0.198
3366.704 0.202 0.348 0.322 0.241 0.36 0.288 0.299 0.445 0.21 0.112
3385.997 0.16 0.249 0.286 0.251 0.294 0.17 0.113 0.05 0.167 0.124
3405.290 0.03 0.297 0.276 0.172 0.25 0.264 0.377 0.586 0.549 0.438
3424.584 0.408 0.436 0.531 0.451 0.215 0.192 0.224 0.303 0.405 0.596
3443.877 0.667 0.472 0.486 0.46 0.418 0.432 0.447 0.493 0.483 0.512
3463.171 0.437 0.524 0.777 0.685 0.501 0.601 0.798 0.681 0.55 0.654
3482.464 0.815 0.836 0.735 0.777 0.805 0.843 0.865 0.869 0.905 0.87
3501.758 0.932 0.894 0.895 1.0374 1.009 0.89 0.867 0.943 1.0141 1.0559
3521.051 1.0593 1.0834 1.1299 1.2474 1.3241 1.20868 1.15124 1.2756 1.3625 1.3668
3540.344 1.4621 1.5207 1.4631 1.6014 1.8905 2.0232 2.33 3.03 3.92 5.08
3559.638 6.83 9.12 12.01 15.15 18.03 20.46 21.85 22.05 21.1 18.98
3578.931 15.91 12.53 9.43 6.86 4.96 3.64 2.75 2.0813 1.6883 1.5003
3598.225 1.3591 1.20366 1.14072 1.2131 1.11214 0.998 0.897 0.806 0.839 0.83
3617.518 0.877 0.938 0.761 0.623 0.691 0.71 0.699 0.719 0.705 0.648
3636.812 0.61 0.53 0.522 0.682 0.626 0.526 0.554 0.558 0.547 0.531
3656.105 0.581 0.689 0.739 0.639 0.563 0.543 0.542 0.592 0.556 0.566
3675.398 0.55 0.456 0.505 0.598 0.824 0.837 0.654 0.612 0.546 0.586
3694.692 0.59 0.439 0.463 0.608 0.609 0.5 0.464 0.514 0.518 0.42
3713.985 0.472 0.498 0.485 0.505 0.407 0.319 0.368 0.489 0.523 0.592
3733.279 0.627 0.532 0.522 0.63 0.636 0.56 0.471 0.453 0.419 0.395
3752.572 0.545 0.568 0.516 0.552 0.568 0.509 0.503 0.587 0.498 0.527
3771.866 0.611 0.56 0.691 0.687 0.583 0.561 0.525 0.539 0.567 0.588
3791.159 0.559 0.559 0.6 0.509 0.404 0.419 0.529 0.632 0.614 0.648
3810.452 0.596 0.456 0.302 0.326 0.503 0.508 0.528 0.6 0.523 0.489
3829.746 0.606 0.689 0.787 0.737 0.666 0.648 0.626 0.627 0.654 0.578
3849.039 0.6 0.737 0.61 0.574 0.531 0.524 0.69 0.666 0.59 0.658
3868.333 0.657 0.617 0.591 0.573 0.565 0.578 0.55 0.539 0.692 0.751
3887.626 0.64 0.521 0.479 0.44 0.459 0.549 0.575 0.584 0.598 0.574
3906.920 0.618 0.641 0.524 0.535 0.605 0.591 0.613 0.647 0.648 0.55
3926.213 0.488 0.442 0.41 0.428 0.455 0.551 0.641 0.595 0.496 0.512
3945.506 0.538 0.575 0.511 0.53 0.637 0.552 0.547 0.593 0.582 0.573
3964.800 0.511 0.532 0.628 0.631 0.563 0.486 0.576 0.616 0.531 0.516
3984.093 0.579 0.634 0.54 0.44 0.503 0.557 0.546 0.579 0.503
##END=
