##TITLE=2-Acetyl-7-methoxybenzofuran
##JCAMP-DX=4.24
##DATA TYPE=INFRARED SPECTRUM
##ORIGIN=EPA-IR VAPOR PHASE LIBRARY
##OWNER=SRD/NIST
Collection (C) 2018 copyright by the U.S. Secretary of Commerce
on behalf of the United States of America. All rights reserved.
##CAS REGISTRY NO=43071-52-9
##MOLFORM=C 11 H 10 O 3
##$NIST SOURCE=MSDC-IR
##STATE=gas
##XUNITS=1/CM
##YUNITS=ABSORBANCE
##XFACTOR=1.
##YFACTOR=0.001
##DELTAX=3.85796
##FIRSTX=551.7
##LASTX=4000.7
##FIRSTY=3.46
##MAXX=4000.7
##MINX=551.688
##MAXY=0.1454
##MINY=0.0006428
##NPOINTS=895
##XYDATA=(X++(Y..Y))
551.688 3.46 3.19 3.05 3.1 3.32 3.76 4.47 5.18 5.55 5.87
590.268 6.11 6.39 6.91 7.55 8.13 8.32 7.97 7.37 7.07 7.01
628.847 6.84 6.47 5.84 5.16 4.75 4.75 4.98 4.96 4.55 4.15
667.427 3.76 3.33 2.99 2.8 2.76 2.89 3.21 3.93 5.18 6.96
706.006 8.98 11.43 14.48 18.97 24.85 32.1 40.02 37.25 27.01 19.1
744.586 11.86 7.04 4.89 4.22 4.3 4.93 5.99 7.29 8.07 7.91
783.165 6.88 5.51 4.4 3.65 3.35 3.64 4.62 6.37 8.65 11.74
821.745 14.6 16.63 19.08 22.36 23.86 21.9 19.79 19.05 18.57 17.43
860.324 14.91 11.07 7.53 5.43 4.37 3.9 3.77 4.1 5.1 7.35
898.904 11.63 18.06 22.82 24.05 23.14 18.37 12.93 9.83 8.26 7.43
937.484 6.83 6.99 8.04 9.9 12.3 15 17.77 20.34 22.29 23.61
976.063 24.15 23.16 20.66 17.41 13.86 10.93 9.11 8.24 8.11 8.4
1014.643 8.93 9.7 10.48 11.04 11.55 12.38 13.65 15.11 16.35 17.09
1053.222 16.96 16.53 16.96 18.89 22.67 27.88 32.96 35.99 36.38 34.75
1091.802 32.22 30.6 29.8 28.2 25.26 20.65 15.49 11.66 9.43 8.22
1130.381 7.77 7.8 8.17 9.34 11.45 14.79 20.19 28.46 40.06 55.07
1168.961 71.01 83.85 90.55 89.33 81.37 68.85 54.18 40.46 30.53 26.23
1207.540 26.79 30.2 34.29 36.56 35.35 30.81 24.54 19.06 16.4 16.9
1246.120 20.42 27.76 41 61.71 87.53 109.19 118.44 113.27 96.38 77.18
1284.699 62.39 52.28 45.34 40.4 36.78 34.85 35.39 38.26 41.82 43.51
1323.279 42.08 37.49 30.72 24.62 21.01 19.75 20.77 24.24 30.15 36.75
1361.859 41 41.24 36.53 28.35 20.55 15.04 11.65 9.66 8.57 8.12
1400.438 8.19 8.76 9.99 12.13 15.18 18.58 21.13 22.06 21.07 18.86
1439.018 16.8 15.54 14.85 14.64 14.81 15.46 16.57 18.02 20.16 24.15
1477.597 31.27 42.3 53.81 59.07 55.96 45.2 30.77 20.13 14.36 11.61
1516.177 10.19 9.56 9.46 9.9 10.96 12.88 15.88 20.52 27.43 38.21
1554.756 53.13 71.09 86.24 91.24 84.92 71.15 57.97 53.25 55.75 59.11
1593.336 58.33 52.63 43.4 34.26 28.23 24.75 22.07 19.28 16.31 13.34
1631.915 10.91 9.21 8.2 7.81 7.9 8.28 8.92 9.6 10.25 10.87
1670.495 11.59 12.43 13.73 16 20.31 28.61 45.88 77.66 117.88 144.72
1709.075 145.4 118.36 73.58 38.56 21.72 13.98 10.35 8.34 7.33 6.92
1747.654 6.96 7.18 7.37 7.23 6.61 5.7 4.83 4.13 3.66 3.39
1786.234 3.26 3.23 3.29 3.38 3.48 3.56 3.67 3.8 3.91 3.95
1824.813 3.85 3.57 3.16 2.75 2.38 2.15 2.04 1.99 1.99 2.01
1863.393 2.08 2.21 2.33 2.47 2.71 2.99 3.34 3.68 3.9 3.94
1901.972 3.74 3.34 2.91 2.5 2.17 1.99 1.94 1.94 1.95 1.94
1940.552 1.96 2 2.05 2.1 2.16 2.22 2.27 2.33 2.35 2.35
1979.131 2.31 2.21 2.07 1.93 1.81 1.71 1.65 1.61 1.62 1.65
2017.711 1.71 1.79 1.87 1.97 2.01 2.01 2 1.97 1.97 2.03
2056.291 2.13 2.22 2.29 2.3 2.27 2.19 2.07 1.91 1.75 1.59
2094.870 1.45 1.35 1.29 1.28 1.29 1.27 1.25 1.25 1.26 1.25
2133.450 1.22 1.2 1.16 1.15 1.16 1.16 1.16 1.15 1.16 1.21
2172.029 1.26 1.28 1.3 1.35 1.39 1.39 1.43 1.5 1.52 1.47
2210.609 1.4 1.35 1.27 1.19 1.18 1.19 1.21 1.29 1.37 1.45
2249.188 1.51 1.52 1.51 1.49 1.45 1.42 1.38 1.34 1.31 1.28
2287.768 1.25 1.24 1.25 1.27 1.25 1.24 1.23 1.22 1.23 1.26
2326.347 1.32 1.34 1.34 1.33 1.32 1.28 1.21 1.18 1.17 1.15
2364.927 1.14 1.17 1.2 1.21 1.23 1.24 1.22 1.18 1.16 1.15
2403.507 1.12 1.11 1.12 1.11 1.11 1.11 1.11 1.11 1.11 1.17
2442.086 1.22 1.27 1.34 1.38 1.42 1.45 1.45 1.47 1.5 1.49
2480.666 1.47 1.45 1.44 1.39 1.34 1.32 1.33 1.35 1.38 1.44
2519.245 1.52 1.64 1.75 1.79 1.82 1.79 1.7 1.61 1.48 1.38
2557.825 1.32 1.29 1.3 1.33 1.35 1.39 1.4 1.43 1.4 1.37
2596.404 1.38 1.34 1.3 1.34 1.38 1.44 1.5 1.53 1.57 1.59
2634.984 1.57 1.58 1.57 1.55 1.53 1.47 1.48 1.51 1.53 1.56
2673.563 1.57 1.6 1.63 1.6 1.57 1.59 1.53 1.43 1.39 1.33
2712.143 1.27 1.25 1.24 1.21 1.2 1.25 1.27 1.3 1.37 1.42
2750.722 1.43 1.46 1.47 1.46 1.5 1.56 1.64 1.77 1.85 1.92
2789.302 2.01 2.07 2.17 2.3 2.47 2.7 2.98 3.28 3.62 4.06
2827.882 4.66 5.52 6.83 8.72 10.76 12.07 12.18 11.06 9.16 7.38
2866.461 6.19 5.59 5.33 5.3 5.41 5.55 5.81 6.26 6.87 7.58
2905.041 8.32 9.06 9.71 10.17 10.45 10.8 11.41 12.44 14.09 16.44
2943.620 18.76 20.04 20.11 18.98 17.27 15.91 14.88 13.86 12.89 11.92
2982.200 11.04 10.42 10.1 10.26 11 12.3 13.98 15.51 16.18 15.66
3020.779 13.99 11.67 9.7 8.48 7.91 7.8 7.92 8.23 8.61 9.05
3059.359 9.65 10.66 12.28 14.3 15.88 16 14.65 12.09 9.1 6.88
3097.938 5.46 4.46 3.72 3.13 2.73 2.47 2.3 2.22 2.16 2.09
3136.518 1.98 1.92 1.83 1.67 1.56 1.45 1.38 1.31 1.23 1.17
3175.098 1.15 1.14 1.08 1.09 1.12 1.05 0.9883 0.9668 0.9244 0.9301
3213.677 0.928 0.8818 0.9023 0.9128 0.8809 0.8296 0.7877 0.7883 0.8045 0.8156
3252.257 0.8127 0.8131 0.7987 0.839 0.8872 0.8192 0.7607 0.7448 0.7144 0.7076
3290.836 0.7682 0.795 0.7751 0.7923 0.785 0.7713 0.7668 0.8173 0.8388 0.8103
3329.416 0.8162 0.8439 0.9075 0.8887 0.8179 0.8086 0.8833 0.9562 1.04 1.15
3367.995 1.21 1.34 1.64 1.97 2.39 2.9 3.24 3.38 3.23 2.8
3406.575 2.27 1.77 1.44 1.24 1.11 1.01 0.9607 0.9302 0.902 0.8431
3445.154 0.8431 0.8586 0.8522 0.8953 0.8341 0.7726 0.8223 0.9098 0.8815 0.8821
3483.734 0.9141 0.8759 0.8316 0.7743 0.7951 0.8378 0.8538 0.8095 0.7706 0.7656
3522.314 0.7511 0.7297 0.7146 0.6903 0.6935 0.6988 0.6428 0.6752 0.7229 0.6947
3560.893 0.7049 0.741 0.7372 0.6609 0.6485 0.6849 0.6895 0.7372 0.7696 0.7384
3599.473 0.7302 0.7088 0.6919 0.6857 0.7122 0.7538 0.7412 0.8147 0.8406 0.7547
3638.052 0.7055 0.6874 0.665 0.706 0.7936 0.8045 0.8008 0.8592 0.8744 0.8383
3676.632 0.816 0.7703 0.7676 0.8586 0.8969 0.8537 0.7781 0.7232 0.7167 0.7255
3715.211 0.7187 0.7479 0.7938 0.7813 0.7685 0.7599 0.734 0.7875 0.8306 0.7741
3753.791 0.79 0.7742 0.7151 0.7347 0.7323 0.6816 0.707 0.7406 0.7139 0.7564
3792.370 0.8067 0.8304 0.7901 0.7204 0.7257 0.7151 0.7346 0.7808 0.772 0.7383
3830.950 0.7495 0.7808 0.7601 0.7526 0.7574 0.816 0.8752 0.8494 0.8589 0.8287
3869.530 0.8605 0.9405 0.9442 0.908 0.9464 1.06 1.07 1.01 0.9516 0.9835
3908.109 1.1 1.16 1.14 1.14 1.12 1.13 1.14 1.13 1.08 1.07
3946.689 1.03 1.01 1.07 0.9721 0.9799 1.02 0.9794 0.9851 0.9419 0.9267
3985.268 0.9243 0.9083 0.9393 0.9365 0.915
##END=
