##TITLE=.gamma.-Chloro-2-butyrothienone
##JCAMP-DX=4.24
##DATA TYPE=INFRARED SPECTRUM
##ORIGIN=EPA-IR VAPOR PHASE LIBRARY
##OWNER=SRD/NIST
Collection (C) 2018 copyright by the U.S. Secretary of Commerce
on behalf of the United States of America. All rights reserved.
##CAS REGISTRY NO=43076-59-1
##MOLFORM=C 8 H 9 Cl O S
##$NIST SOURCE=MSDC-IR
##STATE=gas
##XUNITS=1/CM
##YUNITS=ABSORBANCE
##XFACTOR=1.
##YFACTOR=0.001
##DELTAX=1.929
##FIRSTX=549.8
##LASTX=4000.8
##FIRSTY=2.157
##MAXX=4000.75
##MINX=549.766
##MAXY=0.116367
##MINY=0
##NPOINTS=1790
##XYDATA=(X++(Y..Y))
549.766 2.157 2.387 2.487 2.687 3.127 3.587 4.007 4.147 4.327 4.567
569.056 4.897 5.347 5.427 5.497 5.747 5.957 6.117 6.057 6.057 6.317
588.346 6.457 6.317 6.417 6.357 5.977 5.947 5.727 5.387 5.207 4.997
607.636 5.007 4.817 4.607 4.527 4.327 4.097 4.057 4.177 4.327 4.417
626.926 4.317 4.197 4.377 4.717 5.027 5.257 5.537 5.887 6.257 6.727
646.216 7.107 7.497 7.977 8.467 9.137 9.857 10.197 10.297 10.257 9.917
665.506 9.497 9.057 8.577 8.287 7.717 7.337 7.087 6.797 6.867 7.107
684.796 7.527 8.077 8.667 9.607 11.527 13.887 16.247 19.737 24.817 31.127
704.086 38.227 45.807 53.847 62.217 68.567 72.027 73.637 69.137 61.277 54.497
723.376 47.277 39.927 33.137 27.607 23.217 19.877 17.557 15.867 14.687 13.947
742.666 13.397 12.967 12.597 12.077 11.637 11.337 10.967 10.487 9.907 9.287
761.956 8.797 8.447 8.117 7.797 7.797 7.997 8.127 8.477 9.027 9.587
781.246 10.107 10.627 11.147 11.697 12.147 12.497 12.837 12.957 13.237 13.647
800.536 13.917 14.087 14.147 14.037 13.807 13.547 13.157 12.957 12.727 12.427
819.826 12.177 12.157 12.257 12.377 12.637 12.957 13.347 13.667 13.977 14.127
839.116 14.297 14.617 15.067 15.867 16.807 17.857 19.007 20.137 20.847 20.747
858.406 20.097 19.167 17.787 15.957 13.787 11.867 10.357 9.017 8.007 7.147
877.696 6.377 5.737 5.207 4.937 4.627 4.237 4.127 4.017 3.997 4.107
896.986 4.287 4.477 4.707 5.177 5.697 6.057 6.557 7.127 7.657 8.237
916.276 8.647 9.157 9.977 10.917 11.757 12.617 13.327 13.757 13.927 13.947
935.566 13.887 13.647 13.397 13.257 13.247 13.207 13.087 12.727 12.247 11.727
954.856 11.177 10.687 10.367 10.247 9.987 9.747 9.747 9.787 9.677 9.647
974.146 9.737 9.817 9.747 9.677 9.667 9.517 9.297 8.997 8.657 8.307
993.436 7.937 7.737 7.587 7.487 7.417 7.317 7.207 7.087 7.127 7.277
1012.726 7.317 7.367 7.647 8.047 8.527 9.117 9.777 10.747 12.047 13.287
1032.016 14.427 15.357 16.017 16.477 16.897 17.197 17.347 17.557 17.897 18.177
1051.306 18.407 18.527 18.377 17.747 16.617 15.047 13.267 11.577 10.177 9.137
1070.596 8.337 7.917 8.177 8.947 9.837 10.357 10.297 10.077 9.617 8.497
1089.886 6.777 5.167 3.907 3.187 2.897 2.717 2.667 2.647 2.597 2.557
1109.176 2.617 2.807 3.007 3.157 3.267 3.427 3.787 4.127 4.527 5.017
1128.467 5.457 5.887 6.417 7.007 7.627 8.257 8.927 9.547 10.017 10.387
1147.757 10.637 10.857 11.017 11.147 11.107 11.157 11.307 11.417 11.547 11.767
1167.047 12.097 12.467 12.717 12.917 13.347 13.737 14.157 14.687 15.167 15.627
1186.337 16.147 16.827 17.597 18.247 18.977 19.767 20.527 21.167 21.967 22.657
1205.627 23.317 24.317 25.257 26.407 27.877 29.587 31.567 33.957 37.027 40.717
1224.917 45.007 50.507 57.387 64.387 69.717 72.267 72.767 72.157 69.337 63.377
1244.207 55.477 47.867 41.897 37.507 34.147 31.557 29.367 27.517 26.117 24.957
1263.497 23.917 23.027 22.327 21.647 20.957 20.267 19.507 18.947 18.727 18.887
1282.787 19.337 19.957 20.797 21.747 22.697 23.687 24.607 25.407 26.007 26.397
1302.077 26.637 26.607 26.337 25.817 25.137 24.407 23.537 22.397 21.157 19.877
1321.367 18.437 17.067 15.747 14.517 13.567 12.907 12.557 12.437 12.637 13.287
1340.657 14.257 15.537 17.357 19.667 22.327 25.137 27.587 29.507 31.047 32.117
1359.947 32.327 31.557 30.167 28.517 26.707 24.727 22.607 20.447 18.277 16.367
1379.237 14.717 13.417 12.537 11.947 11.627 11.667 12.037 12.747 13.847 15.547
1398.527 18.017 21.367 25.737 31.607 39.157 48.057 57.477 66.087 72.217 74.937
1417.817 74.137 70.087 63.357 54.487 44.987 36.947 30.937 26.727 23.777 21.597
1437.107 19.697 18.187 17.107 16.577 16.397 16.227 15.977 15.517 14.747 13.807
1456.397 12.727 11.417 10.097 8.837 7.777 6.917 6.197 5.647 5.147 4.757
1475.687 4.507 4.247 4.107 4.117 4.177 4.317 4.607 4.957 5.447 6.047
1494.977 6.907 8.067 9.447 11.277 13.697 16.777 20.787 25.157 29.187 32.327
1514.267 34.007 34.137 32.587 29.417 24.737 19.697 15.067 11.597 9.277 7.867
1533.557 6.987 6.477 6.197 6.097 6.287 6.447 6.577 6.627 6.527 6.287
1552.847 5.927 5.527 5.147 4.807 4.437 4.117 3.867 3.607 3.387 3.197
1572.137 3.067 2.987 2.917 2.837 2.767 2.707 2.677 2.707 2.717 2.667
1591.427 2.677 2.617 2.597 2.677 2.747 2.867 3.047 3.187 3.327 3.427
1610.717 3.567 3.767 3.927 4.027 4.117 4.187 4.287 4.377 4.427 4.557
1630.007 4.797 5.087 5.337 5.657 6.097 6.537 7.047 7.657 8.217 8.877
1649.297 9.667 10.517 11.687 13.027 14.607 16.567 18.997 22.017 25.837 30.637
1668.587 36.457 43.357 51.327 60.367 70.477 80.777 91.137 100.387 108.077 113.787
1687.877 116.367 115.617 111.397 104.227 94.327 83.227 71.637 59.307 48.657 38.957
1707.167 30.987 24.777 19.977 16.287 13.587 11.547 10.057 8.977 8.137 7.487
1726.457 7.027 6.647 6.277 5.997 5.747 5.377 5.097 4.827 4.577 4.357
1745.747 4.147 3.967 3.847 3.717 3.597 3.477 3.357 3.237 3.047 2.907
1765.037 2.797 2.657 2.517 2.387 2.337 2.267 2.227 2.217 2.207 2.237
1784.327 2.267 2.297 2.287 2.347 2.437 2.487 2.567 2.567 2.567 2.587
1803.617 2.567 2.547 2.497 2.417 2.317 2.207 2.187 2.207 2.167 2.127
1822.907 2.087 2.057 2.017 1.917 1.837 1.717 1.587 1.507 1.4565 1.444
1842.197 1.4018 1.3378 1.3102 1.2998 1.2874 1.2181 1.1449 1.1474 1.1871 1.2416
1861.487 1.2182 1.1369 1.1121 1.1493 1.1936 1.1449 1.0809 1.0694 1.0367 0.9917
1880.777 1.0335 1.1119 1.1226 1.1048 1.1161 1.1305 1.0932 1.0439 1.0303 1.0355
1900.067 1.052 1.0312 0.9978 1.0148 1.0119 0.9645 0.925 0.9079 0.9136 0.9058
1919.357 0.9377 0.9647 0.9266 0.9466 0.9432 0.9205 0.9327 0.924 0.8615 0.8385
1938.647 0.8953 0.8459 0.8347 0.858 0.8366 0.8447 0.8255 0.7992 0.7886 0.8189
1957.937 0.8161 0.8371 0.8622 0.8638 0.8543 0.7949 0.7908 0.8228 0.7547 0.7161
1977.227 0.7659 0.737 0.685 0.6771 0.693 0.681 0.738 0.7556 0.6885 0.6831
1996.517 0.6581 0.6235 0.6505 0.6828 0.6647 0.6712 0.7419 0.7605 0.7355 0.7189
2015.807 0.6894 0.649 0.673 0.7178 0.7144 0.7314 0.7324 0.6786 0.6129 0.6024
2035.097 0.6535 0.6779 0.6869 0.6683 0.67 0.6949 0.6426 0.6137 0.6217 0.6239
2054.387 0.6586 0.6814 0.7403 0.7435 0.7102 0.7707 0.8231 0.8271 0.76 0.7428
2073.677 0.8168 0.8919 0.8827 0.8384 0.8159 0.8511 0.8673 0.8602 0.9233 0.9639
2092.967 0.9484 0.9647 0.9707 0.9214 0.9294 0.9317 0.8456 0.8241 0.8369 0.8148
2112.257 0.8111 0.7891 0.7576 0.7493 0.7186 0.6889 0.738 0.7114 0.6672 0.6795
2131.547 0.6897 0.699 0.7026 0.749 0.745 0.6847 0.7657 0.8316 0.786 0.8226
2150.837 0.829 0.7756 0.806 0.8554 0.8737 0.9525 1.074 1.0709 1.0187 1.0165
2170.127 0.9899 0.9943 0.991 0.8874 0.8174 0.7684 0.7653 0.757 0.7046 0.7125
2189.417 0.6671 0.6386 0.6655 0.6791 0.6885 0.6956 0.6687 0.6514 0.6836 0.7238
2208.707 0.7395 0.7067 0.72 0.7698 0.7378 0.7177 0.7382 0.7363 0.7428 0.7326
2227.997 0.7095 0.7169 0.7205 0.7186 0.7247 0.6872 0.6529 0.7161 0.7533 0.7401
2247.287 0.7512 0.711 0.6638 0.6993 0.7502 0.7979 0.8519 0.8762 0.8947 0.8795
2266.577 0.9074 0.9533 0.9785 0.9658 0.9068 0.8803 0.8563 0.8912 0.902 0.8449
2285.868 0.7979 0.8321 0.9208 0.8676 0.7284 0.6633 0.6405 0.6528 0.7025 0.7082
2305.158 0.7302 0.7182 0.6966 0.7065 0.7244 0.7285 0.6713 0.6225 0.6155 0.6555
2324.448 0.7481 0.8028 0.7334 0.7192 0.73 0.7088 0.6587 0.6306 0.6856 0.7388
2343.738 0.7274 0.6952 0.687 0.6615 0.6646 0.6483 0.6201 0.6296 0.6914 0.7329
2363.028 0.6243 0.5427 0.5993 0.6831 0.7301 0.7139 0.677 0.6491 0.6673 0.6914
2382.318 0.7184 0.7284 0.7251 0.6865 0.7278 0.8057 0.7775 0.7793 0.8025 0.8245
2401.608 0.7805 0.72 0.7734 0.8117 0.8141 0.8269 0.803 0.7758 0.7316 0.7515
2420.898 0.8498 0.8643 0.8695 0.8709 0.859 0.9126 0.9197 0.9488 1.0356 1.0534
2440.188 0.9887 0.9218 0.9317 0.9926 0.9831 0.8989 0.935 1.0303 0.9698 0.9013
2459.478 1.0198 1.0769 0.9989 0.9278 0.9025 0.9366 0.8968 0.8466 0.8503 0.8095
2478.768 0.7702 0.7879 0.7657 0.7208 0.6787 0.7101 0.7331 0.7507 0.7607 0.7405
2498.058 0.7044 0.6625 0.7422 0.7621 0.7212 0.6856 0.6281 0.56958 0.51566 0.5965
2517.348 0.6454 0.57549 0.5601 0.53249 0.57241 0.58346 0.51281 0.52452 0.5228 0.48358
2536.638 0.48146 0.52725 0.54414 0.54127 0.58376 0.55311 0.52188 0.53726 0.55954 0.53048
2555.928 0.53246 0.6458 0.6512 0.6178 0.6057 0.6119 0.6875 0.7315 0.7528 0.7236
2575.218 0.6925 0.6892 0.7689 0.8615 0.7988 0.7776 0.7592 0.6531 0.6008 0.5837
2594.508 0.6818 0.7255 0.6692 0.6991 0.7083 0.7253 0.7341 0.7087 0.7743 0.8734
2613.798 0.7979 0.698 0.7504 0.8251 0.8371 0.7501 0.7277 0.7895 0.7857 0.7689
2633.088 0.7401 0.7212 0.7327 0.7652 0.7957 0.7845 0.7768 0.7537 0.7437 0.8451
2652.378 0.878 0.7945 0.7219 0.6784 0.7017 0.6728 0.6787 0.7002 0.6975 0.7107
2671.668 0.6309 0.5885 0.6747 0.7476 0.7752 0.7269 0.6403 0.6568 0.7283 0.7442
2690.958 0.764 0.7774 0.7862 0.8493 0.7658 0.8702 1.0573 1.0116 0.8886 0.7475
2710.248 0.7592 0.8463 0.7506 0.6687 0.7369 0.8277 0.8388 0.7909 0.8922 0.9645
2729.538 0.8344 0.7583 0.8669 0.9147 0.8901 0.864 0.8006 0.8265 0.9006 0.88
2748.828 0.8354 0.8747 0.8617 0.7094 0.6677 0.7123 0.7016 0.687 0.7298 0.8226
2768.118 0.8746 0.8164 0.8337 0.9356 0.8701 0.8035 0.7944 0.8466 0.975 1.0129
2787.408 0.9969 0.9479 0.9474 0.9729 0.9596 1.1966 1.3944 1.3114 1.2738 1.2613
2806.698 1.2896 1.3864 1.46 1.587 1.727 1.857 1.997 2.067 1.987 1.867
2825.988 1.847 1.877 1.917 1.907 1.857 1.897 2.017 2.017 2.177 2.427
2845.278 2.527 2.517 2.697 2.957 3.107 3.227 3.397 3.617 3.867 4.197
2864.568 4.457 4.637 4.787 4.927 4.997 5.117 5.347 5.567 5.727 5.757
2883.858 5.737 5.727 5.817 5.967 6.107 6.267 6.457 6.887 7.367 7.907
2903.148 8.467 8.887 9.277 9.697 10.137 10.547 11.037 11.367 11.607 12.027
2922.438 12.407 12.657 13.097 13.437 13.737 14.017 14.127 14.097 13.907 13.837
2941.728 13.927 14.067 14.257 14.507 15.067 15.797 16.467 17.177 17.737 18.267
2961.018 18.797 19.157 19.377 19.487 19.367 18.927 18.227 17.457 16.707 15.967
2980.308 15.017 13.827 12.847 12.017 11.297 10.817 10.437 10.207 10.187 10.007
2999.598 9.577 9.087 8.587 7.907 7.227 6.647 5.997 5.437 4.887 4.377
3018.888 3.947 3.437 2.967 2.577 2.237 2.007 1.847 1.667 1.577 1.4424
3038.178 1.3487 1.3666 1.2418 1.1845 1.1849 1.1182 0.9702 0.8943 0.9636 1.012
3057.468 1.0403 0.9666 1.0088 1.1163 1.1513 1.3565 1.627 1.907 2.337 2.697
3076.758 3.197 4.067 4.767 5.267 5.527 5.657 5.517 5.267 4.887 4.337
3096.048 3.857 3.417 3.147 2.917 2.647 2.517 2.417 2.287 2.257 2.177
3115.338 1.927 1.687 1.4818 1.3862 1.1292 0.8827 0.8963 0.6711 0.4613 0.4401
3134.628 0.278 0.195 0.283 0.199 0.251 0.347 0.377 0.368 0.278 0.4171
3153.918 0.4101 0.326 0.347 0.281 0.335 0.368 0.344 0.3995 0.4137 0.4301
3173.208 0.4206 0.382 0.371 0.287 0.175 0.023 0.052 0.158 0.202 0.269
3192.498 0.274 0.323 0.324 0.206 0.197 0.307 0.261 0.164 0.216 0.282
3211.788 0.325 0.256 0.106 0.12 0.14 0.144 0.232 0.226 0.163 0.241
3231.078 0.306 0.148 0.143 0.278 0.354 0.266 0.228 0.188 0.102 0.19
3250.368 0.05 0 0.068 0.163 0.302 0.346 0.363 0.301 0.357 0.51778
3269.658 0.4389 0.3964 0.4231 0.252 0.255 0.252 0.178 0.4166 0.4631 0.357
3288.948 0.296 0.307 0.4671 0.52991 0.6002 0.51184 0.4105 0.4191 0.4002 0.487509
3308.238 0.52133 0.55004 0.6175 0.56149 0.4656 0.4091 0.4418 0.58372 0.7216 0.7518
3327.528 0.6928 0.7199 0.874 1.0205 1.1318 1.1194 1.1924 1.2825 1.421 1.547
3346.818 1.537 1.667 1.747 1.797 1.777 1.697 1.587 1.567 1.617 1.597
3366.108 1.567 1.4189 1.2929 1.2613 1.1606 1.0462 1.0485 0.91 0.7441 0.6625
3385.398 0.6201 0.6999 0.57784 0.4658 0.311 0.235 0.4094 0.4365 0.3922 0.4082
3404.688 0.4428 0.382 0.3964 0.50338 0.3963 0.283 0.377 0.4026 0.361 0.32
3423.978 0.295 0.249 0.222 0.284 0.4133 0.488573 0.372 0.235 0.134 0.268
3443.269 0.50514 0.292 0.188 0.288 0.363 0.4036 0.298 0.349 0.4353 0.294
3462.559 0.174 0.186 0.326 0.328 0.215 0.26 0.385 0.267 0.131 0.244
3481.849 0.323 0.4188 0.332 0.041 0.086 0.323 0.34 0.339 0.38 0.321
3501.139 0.186 0.184 0.323 0.50307 0.57125 0.386 0.2 0.246 0.361 0.346
3520.429 0.319 0.394 0.4321 0.401 0.4309 0.4549 0.4197 0.4175 0.4818 0.4442
3539.719 0.345 0.4235 0.362 0.3959 0.51402 0.49762 0.4361 0.375 0.4162 0.312
3559.009 0.305 0.352 0.252 0.233 0.344 0.319 0.199 0.195 0.244 0.226
3578.299 0.255 0.382 0.353 0.311 0.4516 0.4639 0.38 0.359 0.255 0.221
3597.589 0.335 0.333 0.273 0.188 0.198 0.324 0.392 0.3963 0.335 0.379
3616.879 0.408 0.4736 0.54209 0.3917 0.356 0.4007 0.322 0.4159 0.356 0.317
3636.169 0.4378 0.4056 0.314 0.4068 0.331 0.297 0.4704 0.343 0.196 0.334
3655.459 0.4448 0.4251 0.54111 0.4081 0.294 0.5023 0.4489 0.386 0.4029 0.319
3674.749 0.3959 0.371 0.318 0.4206 0.371 0.235 0.235 0.309 0.327 0.3889
3694.039 0.329 0.337 0.4411 0.4649 0.6482 0.54422 0.336 0.351 0.366 0.267
3713.329 0.202 0.286 0.315 0.36 0.47776 0.52013 0.48392 0.3945 0.4074 0.5998
3732.619 0.7224 0.7661 0.7137 0.4391 0.362 0.53157 0.48086 0.358 0.50112 0.51346
3751.909 0.3 0.316 0.4268 0.488373 0.51838 0.5946 0.58046 0.56853 0.6544 0.5947
3771.199 0.48433 0.4387 0.4204 0.4238 0.51528 0.56075 0.52838 0.432 0.283 0.344
3790.489 0.4436 0.4004 0.361 0.243 0.274 0.48343 0.54238 0.4517 0.47794 0.58252
3809.779 0.6402 0.48399 0.379 0.50115 0.57003 0.57944 0.53295 0.49319 0.57653 0.6672
3829.069 0.7553 0.7433 0.7454 0.8682 0.9043 0.8112 0.6893 0.7005 0.7562 0.7333
3848.359 0.6171 0.495784 0.54419 0.6953 0.6236 0.50924 0.54512 0.57551 0.56348 0.6104
3867.649 0.5889 0.4499 0.338 0.321 0.4207 0.445 0.4637 0.4456 0.48374 0.6551
3886.939 0.489616 0.354 0.4548 0.348 0.354 0.4338 0.36 0.4231 0.6121 0.6895
3906.229 0.632 0.5896 0.495365 0.39 0.4399 0.5923 0.6695 0.6244 0.4644 0.4142
3925.519 0.58577 0.7435 0.7736 0.7741 0.6344 0.5929 0.9048 1.039 0.925 0.9573
3944.809 0.9292 0.8457 0.857 0.7757 0.7663 0.8898 0.9513 0.845 0.8928 0.9233
3964.099 0.9043 0.9152 0.8785 0.9309 0.7791 0.5954 0.6384 0.5879 0.4346 0.419
3983.389 0.48141 0.4217 0.4033 0.52242 0.646 0.52727 0.4481 0.4728 0.56243 0.7689
##END=
