##TITLE=Ethyl 2-amino-4-methylthiophene-3-carboxylate
##JCAMP-DX=4.24
##DATA TYPE=INFRARED SPECTRUM
##ORIGIN=EPA-IR VAPOR PHASE LIBRARY
##OWNER=SRD/NIST
Collection (C) 2018 copyright by the U.S. Secretary of Commerce
on behalf of the United States of America. All rights reserved.
##CAS REGISTRY NO=43088-42-2
##MOLFORM=C 8 H 11 N O 2 S
##$NIST SOURCE=MSDC-IR
##STATE=gas
##XUNITS=1/CM
##YUNITS=ABSORBANCE
##XFACTOR=1.
##YFACTOR=0.001
##DELTAX=1.92898
##FIRSTX=549.8
##LASTX=4000.7
##FIRSTY=17.33
##MAXX=4000.7
##MINX=549.759
##MAXY=0.1582
##MINY=0.0002133
##NPOINTS=1790
##XYDATA=(X++(Y..Y))
549.759 17.33 17.38 17.31 16.16 15.67 16.01 16.04 15.54 15.41 15.34
569.049 15.35 15.16 15.5 16.2 16.08 15.55 15.43 15.08 15.27 15.61
588.339 14.65 14.16 13.71 12.64 11.56 10.88 10.46 10 9.45 8.75
607.628 8.21 7.99 8.13 8.3 8.66 8.49 8.44 9.17 9.71 9.76
626.918 9.15 8.92 9.13 9.13 9.13 8.85 8.45 8.67 8.82 8.91
646.208 8.77 8.72 9.14 9.21 9.05 9.09 8.68 8.79 9.26 9.16
665.498 9.65 10.19 10.22 10.27 10.81 11.38 12.3 13.8 15.78 18.15
684.787 20.73 23.73 27.06 30.22 33.3 36.99 40.83 42.74 40.98 37
704.077 33.05 29.54 26.38 23.39 20.52 17.5 15.26 14.25 13.03 12.4
723.367 12.23 11.81 11.93 11.85 12.16 12.32 12.02 12.43 12.61 13.21
742.657 14.01 14.39 14.96 15.37 15.16 15.45 15.95 15.88 15.68 15.26
761.947 15.11 14.89 14.85 14.98 15.05 15.27 15.5 16.07 17.03 17.68
781.236 17.96 18.44 18.72 18.62 18.18 17.9 17.19 16.02 15.01 14.43
800.526 13.9 12.81 12.3 11.98 11.29 10.64 10.57 10.42 10.18 9.83
819.816 9.4 9.67 9.35 9.39 9.8 9.92 10.57 11.51 12.46 13.8
839.106 15.29 16.35 17.1 17.47 17.4 16.73 15.99 14.97 13.42 11.91
858.395 10.8 10.34 10.26 10.04 9.94 9.8 9.45 9.17 9.11 9.17
877.685 9.51 9.68 9.77 10.19 10.47 10.79 10.97 11 11 10.73
896.975 10.71 10.33 9.5 8.73 8.49 8.52 8.25 7.84 7.38 7.26
916.265 7.18 6.55 6.08 6.06 6.21 6.25 5.87 5.83 5.87 6.14
935.555 6.38 6.55 6.48 6.41 6.57 6.35 6.32 6.29 6.21 6.21
954.844 6.58 6.63 6.54 6.52 6.54 6.95 6.83 6.77 6.75 6.9
974.134 6.99 7.3 7.12 7.09 7.99 8.65 9.25 9.84 10.63 11.59
993.424 12.58 13.35 14.11 15.03 15.97 16.44 16.54 16.97 17.66 18.43
1012.714 19.39 20.26 21.45 23 23.85 24.15 24.61 24.98 25.3 25.46
1032.003 25.92 26.42 27.2 29.24 32.39 36.4 40.35 45.31 52.71 61
1051.293 69.63 77.91 84.25 87.75 88.08 85.6 80.32 71.97 61.87 51.2
1070.583 41.28 33.15 28.21 26.64 24.7 23.68 24.47 24.57 25.39 28.1
1089.873 30.6 33.03 36.62 41.27 47.3 53.44 60.27 68.56 76.76 87.17
1109.163 99.58 110.98 120.11 127.56 133.56 136.33 134.54 128.16 119.37 109.59
1128.452 97.75 84.08 71.57 60.77 51.15 44.59 39.94 34.68 30.83 28.75
1147.742 26.58 25.7 25.4 24.23 23.28 23.06 23.8 24.23 24.42 24.51
1167.032 24.33 24.92 25.77 25.62 24.92 24.27 23.71 23.26 22.36 21.06
1186.322 19.48 19.24 19.41 19.07 18.25 18.09 19.23 19.52 19.78 20.89
1205.611 22.56 24.76 26.24 27.34 28.98 31.37 34.11 34.23 33.98 34.82
1224.901 35.12 34.39 33.72 33.85 33.84 33.86 34.69 36.74 39.92 43.61
1244.191 47.97 53.13 60.28 68.96 78.28 89.63 102.04 114.24 126.74 138.76
1263.481 147.77 154.37 158.2 157.83 154.42 148.32 140.48 132.96 126.6 121.48
1282.771 118.25 117.02 117.47 118.95 120.58 121.91 122.03 120.08 116.05 109.79
1302.060 101.37 90.94 79.21 67.48 56.21 46.07 37.82 31.47 26.85 23.63
1321.350 21.31 19.9 18.92 18.18 17.68 17.03 16.46 15.91 15.33 14.69
1340.640 14.06 13.68 13.23 12.93 13.02 13.23 13.54 14.1 14.9 15.83
1359.930 17 18.34 19.84 21.96 24.8 28.36 32.71 37.95 43.79 49.91
1379.219 56.01 61.31 65.22 67.63 68.29 67.08 64.82 62.12 59.35 57.38
1398.509 56.73 57.46 59.21 61.47 63.77 65.64 66.8 66.8 65.1 61.74
1417.799 57.15 51.81 46.5 41.67 37.2 33.44 30.72 28.88 28 28
1437.089 28.56 29.51 30.94 32.35 33.29 33.97 34.53 34.95 35.33 35.78
1456.378 36.08 36.42 37.21 39.06 42.11 46.5 52.36 59.78 68.65 77.95
1475.668 86.37 92.59 95.7 95.83 93.18 87.59 78.97 68.11 56.84 47.18
1494.958 39.71 34.18 29.93 26.65 23.97 21.7 20.02 19.06 18.95 19.09
1514.248 19.51 20.5 21.81 23.79 26.42 29.74 33.78 38.43 43.45 48.35
1533.538 52.91 56.6 59.04 59.84 58.98 56.71 53.46 49.33 44.77 40.6
1552.827 37.29 34.99 33.87 33.77 34.29 35.92 38.33 41.51 45.92 51.21
1572.117 57.6 65.08 73.59 82.55 90.97 98.36 104.24 108.05 109.67 109.23
1591.407 106.49 101.35 93.96 85.51 76.89 68.17 59.98 52.59 46 40.07
1610.697 35.02 30.76 27.31 24.45 22.1 20.38 19.01 18 17.22 16.52
1629.986 15.98 15.66 15.54 15.63 15.7 15.77 16.01 16.17 16.37 16.82
1649.276 17.26 17.63 17.98 18.38 19.04 20.01 21.24 23.1 25.74 29.11
1668.566 33.78 39.94 47.79 57.43 69.27 82.29 95.56 108 118.27 125.91
1687.856 130.81 132.63 130.23 123.68 113.61 101.44 89.02 76.97 66.67 58.4
1707.146 52.47 48.7 47.11 47.6 50.05 54.12 59.16 63.81 67.24 68.95
1726.435 69.09 68.01 65.39 60.33 52.8 44.52 36.77 30.08 24.65 20.3
1745.725 17.01 14.6 12.79 11.47 10.52 9.62 8.94 8.35 7.87 7.54
1765.015 7.22 6.94 6.69 6.39 6.04 5.74 5.45 5.21 5.06 4.94
1784.305 4.72 4.5 4.37 4.23 4.27 4.11 3.8 3.73 3.68 3.51
1803.594 3.34 3.37 3.34 3.26 3.2 3.13 3.04 2.98 2.95 2.87
1822.884 2.82 2.67 2.55 2.58 2.55 2.49 2.51 2.45 2.39 2.36
1842.174 2.27 2.21 2.24 2.22 2.18 2.25 2.3 2.27 2.24 2.22
1861.464 2.13 2.05 1.98 1.95 2.09 2.14 2.01 2.02 2.16 2.11
1880.754 2 2.06 1.97 1.9 2.01 2.05 2.13 2.21 2.18 2.25
1900.043 2.41 2.43 2.37 2.33 2.37 2.4 2.31 2.28 2.35 2.33
1919.333 2.2 2.22 2.23 2.14 2.05 2.01 2.07 2.07 1.94 1.96
1938.623 2 1.87 1.86 1.96 1.99 1.98 1.97 2.11 2.2 2.26
1957.913 2.29 2.3 2.32 2.39 2.45 2.42 2.55 2.65 2.64 2.47
1977.202 2.44 2.52 2.45 2.4 2.39 2.42 2.51 2.4 2.25 2.19
1996.492 2.17 2.26 2.28 2.31 2.38 2.41 2.41 2.37 2.28 2.32
2015.782 2.3 2.25 2.12 1.95 1.88 1.82 1.76 1.74 1.78 1.82
2035.072 1.79 1.7 1.73 1.76 1.69 1.56 1.44 1.48 1.63 1.62
2054.362 1.57 1.67 1.73 1.73 1.79 1.85 1.92 2.04 2.09 2.04
2073.651 1.97 2 1.98 1.95 2.08 2.01 1.75 1.67 1.58 1.53
2092.941 1.62 1.65 1.61 1.51 1.52 1.6 1.58 1.63 1.64 1.63
2112.231 1.63 1.6 1.59 1.43 1.43 1.57 1.66 1.64 1.64 1.75
2131.521 1.72 1.56 1.51 1.61 1.76 1.7 1.46 1.33 1.4 1.46
2150.810 1.45 1.34 1.23 1.38 1.34 1.15 1.11 1.12 1.15 1.15
2170.100 1.12 1.1 0.9991 1.05 1.1 1.03 1.01 0.9686 0.9519 0.842
2189.390 0.8282 0.8649 0.8442 0.848 0.8063 0.7564 0.7863 0.7883 0.7803 0.8262
2208.680 0.781 0.7719 0.8009 0.7987 0.9147 1.02 0.9396 0.8111 0.8025 0.8435
2227.970 0.9141 0.9661 0.8221 0.8581 0.9621 0.949 0.9681 0.9476 1.02 1.06
2247.259 0.9277 0.8396 0.8861 0.94 0.9456 0.8931 0.8758 0.8804 0.8947 0.9035
2266.549 0.8766 0.8478 0.906 0.9951 1.02 1.13 1.05 0.8681 0.9468 1.05
2285.839 1.02 1.03 1.06 0.952 0.8439 0.7961 0.7898 0.8562 0.947 0.9452
2305.129 0.9243 0.9081 0.8702 0.8837 0.9642 0.9547 0.9137 0.9273 0.9218 1.02
2324.418 1.07 1.09 1.09 0.9971 0.9528 0.9237 0.9386 0.9467 0.9087 0.9603
2343.708 0.8808 0.8422 0.7946 0.8112 0.7915 0.7569 0.9033 0.7601 0.5981 0.6532
2362.998 0.6972 0.6745 0.6454 0.7671 0.8527 0.8076 0.8184 0.7991 0.7273 0.7861
2382.288 0.877 0.8124 0.689 0.7338 0.8274 0.8978 1.01 0.9431 0.8497 0.9172
2401.578 0.9302 0.8411 0.8972 0.9646 0.9652 1.02 1.11 1.04 0.8591 0.9139
2420.867 1.03 1.01 1 1.01 0.9992 0.9545 0.9874 0.9774 0.9472 0.9022
2440.157 0.727 0.658 0.7547 0.7231 0.6909 0.8223 0.8399 0.8722 0.9796 0.7381
2459.447 0.6136 0.8276 0.7947 0.7296 0.829 0.8679 0.7192 0.6053 0.7013 0.8018
2478.737 0.6028 0.5803 0.9432 0.8681 0.5853 0.5757 0.6121 0.6946 0.6985 0.6906
2498.026 0.6356 0.548 0.5886 0.5726 0.6015 0.6725 0.6104 0.5493 0.6252 0.7177
2517.316 0.7883 0.8017 0.7476 0.7404 0.7756 0.9235 1.03 0.9662 0.9815 1.05
2536.606 1.08 0.9822 0.8796 1.03 1.16 1.16 1.03 0.9151 0.8563 0.7468
2555.896 0.6883 0.7562 0.7829 0.6507 0.5969 0.6828 0.6765 0.7115 0.6773 0.6641
2575.186 0.8134 0.8609 0.6717 0.5723 0.7559 0.846 0.764 0.7828 0.9691 0.8603
2594.475 0.7097 0.6874 0.8153 0.8251 0.7977 1.07 1.06 0.7781 0.6609 0.6659
2613.765 0.6405 0.6641 0.7264 0.6979 0.7177 0.7173 0.7243 0.662 0.6011 0.7424
2633.055 0.8602 0.891 0.7225 0.588 0.8988 1.13 1.04 0.9469 0.9351 0.9806
2652.345 0.8531 0.7887 0.7837 0.7119 0.7712 0.7463 0.7433 0.8693 0.8865 1.07
2671.634 1.06 0.7688 0.8249 1.01 1.01 1.01 1.09 0.9625 0.9211 1.17
2690.924 1.21 1.02 0.9905 1.08 1.08 1.19 1.21 1.22 1.17 1.1
2710.214 1.24 1.25 1.24 1.26 1.24 1.29 1.21 1.28 1.26 1.13
2729.504 1.22 1.44 1.68 1.61 1.5 1.62 1.7 1.96 2.15 2.25
2748.794 2.38 2.24 2.17 1.99 1.78 1.67 1.8 1.89 1.7 1.65
2768.083 1.69 1.6 1.73 1.88 1.82 1.88 1.87 1.92 1.88 1.71
2787.373 1.83 1.85 1.75 1.78 1.9 1.92 1.98 2.05 2.2 2.28
2806.663 2.06 2.19 2.31 2.15 2.19 2.47 2.54 2.41 2.45 2.6
2825.953 2.72 2.81 2.82 2.77 2.73 2.75 2.92 3.09 3.14 3.12
2845.242 3.25 3.46 3.89 4.37 4.49 4.68 5.19 5.97 6.47 6.86
2864.532 7.29 7.57 8.09 8.32 8.54 8.98 9.23 9.49 9.81 9.93
2883.822 10.13 10.23 10.16 10.11 10.11 10.09 10.05 9.97 10.06 10.35
2903.112 10.42 10.93 11.69 12.09 12.64 13.23 13.89 14.71 15.65 16.64
2922.401 17.9 19.77 21.63 23.92 26.6 29.07 30.89 32.36 33.65 34.21
2941.691 34.12 33.54 32.05 29.85 27.53 25.59 24.37 23.32 22.9 23.5
2960.981 24.4 25.85 27.8 29.92 32.12 35 38.75 42.23 45.49 48.02
2980.271 49.19 49.85 49.67 48.16 45.64 42.11 37.79 33.49 29.62 26.12
2999.561 23.22 20.63 18.45 16.65 14.95 13.51 12.44 11.47 10.43 9.39
3018.850 8.42 7.63 6.97 6.12 5.66 5.5 5.19 4.91 4.57 4.1
3038.140 3.94 3.87 3.72 3.59 3.26 3.07 3.07 3.12 3.15 3.24
3057.430 3.22 3.07 3.07 3.02 2.92 2.75 2.71 2.99 2.96 2.49
3076.720 2.35 2.47 2.54 2.48 2.22 2.32 2.42 2.17 2.1 2.08
3096.009 2.07 2.33 2.51 2.47 2.69 2.84 2.85 2.82 2.69 2.55
3115.299 2.52 2.67 2.41 2.12 1.9 1.73 1.8 2.01 2.03 1.7
3134.589 1.68 1.51 1.13 1.26 1.66 1.94 1.92 1.87 1.86 1.91
3153.879 1.85 1.67 1.69 1.76 1.8 1.81 1.76 1.81 1.82 1.74
3173.169 1.58 1.49 1.54 1.67 1.75 1.65 1.4 1.3 1.32 1.15
3192.458 1.17 1.18 1.2 1.02 1.09 1.46 1.42 1.29 1.18 1.32
3211.748 1.59 1.44 1.13 1.27 1.48 1.45 1.52 1.55 1.46 1.22
3231.038 1.22 1.63 1.74 1.6 1.49 1.54 1.51 1.56 1.66 1.86
3250.328 2.05 2.09 2.33 2.36 2.4 2.69 2.84 2.67 2.51 2.38
3269.617 2.39 2.61 2.47 2.53 2.6 2.65 2.65 2.5 2.72 2.68
3288.907 2.48 2.51 2.41 2.49 2.46 2.55 2.8 2.79 2.8 3
3308.197 3.31 3.44 3.68 4.12 4.78 5.44 6.13 7.13 8.02 9.1
3327.487 10.87 12.85 15.11 17.49 19.79 22.16 24.67 26.78 28.17 29.04
3346.777 29.08 28.79 28.02 26.39 24.57 22.61 20.66 18.76 16.83 15.04
3366.066 13.6 12.12 10.65 9.5 8.38 7.48 6.78 6.43 6.15 6.18
3385.356 6.65 6.7 6.99 7.63 8.46 9.59 10.09 10.36 10.35 9.9
3404.646 9.58 8.96 7.93 6.71 5.62 4.75 4.17 3.57 2.96 2.91
3423.936 2.72 2.77 2.81 2.48 2.44 2.34 2.48 2.66 2.55 2.7
3443.225 2.89 2.82 2.84 2.95 3.13 3.4 3.61 3.92 4.28 4.54
3462.515 4.98 5.64 6.36 7.01 7.88 8.99 9.92 11.22 12.85 14.66
3481.805 16.37 18.04 19.78 21.8 23.92 25.32 26.57 27.48 27.32 26.99
3501.095 26.21 24.5 22.78 20.94 18.85 16.48 14.39 12.57 10.72 9.19
3520.385 7.83 6.76 6 5.2 4.46 3.9 3.66 3.37 3.04 2.77
3539.674 2.43 2.44 2.44 2.28 2.04 1.7 1.67 1.7 1.52 1.33
3558.964 1.15 1.01 1.14 1.34 1.23 0.9932 0.9847 0.9623 0.9483 0.964
3578.254 0.8565 0.7332 0.6165 0.6954 0.7761 0.908 1.1 1.06 0.8048 0.7959
3597.544 0.9818 1.06 0.9737 0.8283 0.8147 0.6332 0.5809 0.798 0.5209 0.5587
3616.833 1.24 1.15 0.7156 0.8153 0.7345 0.6796 1.04 1.08 0.7667 0.6656
3636.123 0.6926 0.7124 0.8513 0.9301 0.8038 0.5494 0.6024 0.7755 0.7186 0.7266
3655.413 0.739 0.6836 0.9651 1.11 0.7866 0.5003 0.408 0.5066 0.5404 0.582
3674.703 0.5381 0.5281 0.5704 0.5702 0.5621 0.5497 0.7518 0.506 0.4062 0.6915
3693.993 0.7271 0.6728 0.3826 0.5426 0.6527 0.5516 1.02 0.9774 0.6964 0.9268
3713.282 0.9298 0.8395 0.7186 0.6257 0.7567 0.8109 0.7857 0.7345 0.8022 0.8112
3732.572 0.5947 0.6097 0.5277 0.2672 0.3272 0.5248 0.6279 0.4662 0.55 0.8792
3751.862 0.8178 0.5976 0.5523 0.4805 0.7176 0.6782 0.4317 0.7487 0.7951 0.5562
3771.152 0.4172 0.4965 0.484 0.2279 0.2133 0.3333 0.5209 0.6836 0.7305 0.8044
3790.441 0.5368 0.3975 0.7016 0.6992 0.6237 0.5308 0.457 0.7264 0.8586 0.7216
3809.731 0.6544 0.5959 0.4656 0.5747 0.564 0.3588 0.3883 0.4826 0.7551 0.8227
3829.021 0.788 0.7715 0.5775 0.9062 0.9932 0.8778 0.6959 0.4955 0.668 0.4943
3848.311 0.3455 0.3991 0.4352 0.4672 0.5216 0.4705 0.3113 0.5516 0.7744 0.3591
3867.601 0.214 0.4733 0.274 0.3081 0.4913 0.3981 0.3678 0.3671 0.6541 0.7686
3886.890 0.5096 0.5924 0.7311 0.6447 0.6749 0.5621 0.3832 0.5173 0.6771 0.6345
3906.180 0.7265 0.5919 0.5621 0.509 0.3496 0.5855 0.6617 0.565 0.3906 0.5212
3925.470 0.78 0.5967 0.6205 0.7611 0.7302 0.893 0.8412 0.8333 0.7345 0.3339
3944.760 0.4828 0.7334 1.03 1.1 0.729 0.7436 1.03 1.02 0.651 0.3618
3964.049 0.393 0.3249 0.5078 1.01 1.08 0.9752 0.8313 0.9546 0.8558 0.5964
3983.339 0.5776 0.666 0.8131 0.5626 0.6793 1.01 1.02 0.7265 0.5994 0.5628
##END=
