##TITLE=2,3-Butadione
##JCAMP-DX=4.24
##DATA TYPE=INFRARED SPECTRUM
##ORIGIN=NIST Mass Spectrometry Data Center
##OWNER=NIST Standard Reference Data Program
Collection (C) 2018 copyright by the U.S. Secretary of Commerce
on behalf of the United States of America. All rights reserved.
##CAS REGISTRY NO=431-03-8
##MOLFORM=C 4 H 6 O 2
##$NIST SOURCE=MSDC-IR
##SPECTROMETER/DATA SYSTEM=HP-GC/MS/IRD
##STATE=gas
##XUNITS=1/CM
##YUNITS=ABSORBANCE
##XFACTOR=1.0
##YFACTOR=0.000007900
##DELTAX=4.0
##FIRSTX=550.0
##LASTX=3846.0
##FIRSTY=0.005901
##MAXX=3846
##MINX=550
##MAXY=0.079
##MINY=0
##NPOINTS=825
##XYDATA=(X++(Y..Y))
550.0 747 1138 609 418 300 252 202 173 156 133
590.0 125 113 106 100 94 90 82 73 58 49
630.0 47 33 18 11 10 12 15 23 20 13
670.0 10 1 0 7 12 6 9 12 10 7
710.0 4 8 10 11 11 4 9 6 10 21
750.0 14 16 22 18 16 19 25 25 24 32
790.0 35 32 25 32 42 36 42 39 43 48
830.0 45 48 53 55 57 65 71 77 86 96
870.0 117 153 208 287 387 500 625 741 827 894
910.0 940 970 970 923 837 735 656 611 589 567
950.0 541 512 475 438 399 354 311 275 239 213
990.0 193 176 163 151 149 152 159 169 183 195
1030.0 221 253 281 306 337 360 376 399 419 443
1070.0 472 520 618 797 1114 1611 2282 3014 3604 3923
1110.0 4157 4265 4067 3867 3500 2703 1783 1084 670 444
1150.0 325 245 190 157 134 118 110 107 99 93
1190.0 92 95 97 99 101 106 111 114 113 111
1230.0 110 110 107 106 116 118 117 127 133 135
1270.0 140 148 161 170 176 187 205 226 254 285
1310.0 322 377 452 547 676 871 1155 1553 2038 2509
1350.0 2811 2996 3132 3147 3131 2900 2322 1686 1228 970
1390.0 854 822 837 883 947 1015 1074 1118 1136 1126
1430.0 1077 1012 940 850 762 678 604 535 477 438
1470.0 409 384 366 352 347 342 338 338 342 350
1510.0 354 358 365 365 359 355 348 342 337 325
1550.0 314 304 294 281 274 274 268 256 247 241
1590.0 231 222 213 205 198 187 182 178 178 181
1630.0 186 195 205 222 248 283 329 385 450 527
1670.0 626 759 941 1126 1319 1643 2198 3033 4194 5659
1710.0 7305 8748 9444 9118 8897 9758 10000 8648 6702 4766
1750.0 3206 2161 1534 1193 1036 953 845 710 605 540
1790.0 482 417 354 303 263 230 202 171 139 114
1830.0 90 74 69 66 59 52 51 48 45 44
1870.0 44 45 47 45 44 47 46 44 45 41
1910.0 41 42 41 37 39 39 36 40 44 49
1950.0 53 57 56 58 59 58 58 54 49 46
1990.0 45 40 35 34 35 34 36 36 41 47
2030.0 46 45 46 42 36 31 28 28 26 24
2070.0 24 24 27 30 30 27 25 24 23 20
2110.0 18 16 14 16 17 17 13 11 13 16
2150.0 14 12 15 16 13 14 14 16 17 15
2190.0 13 10 10 9 8 8 10 10 10 9
2230.0 13 17 16 22 28 34 40 44 50 52
2270.0 55 57 56 56 51 44 40 35 35 33
2310.0 33 35 30 27 30 31 30 33 29 28
2350.0 33 34 35 40 42 42 40 39 40 41
2390.0 40 41 40 37 35 32 28 25 25 23
2430.0 19 18 20 20 18 18 21 27 29 32
2470.0 34 35 33 28 26 26 22 16 9 5
2510.0 3 6 8 3 0 5 7 2 0 0
2550.0 2 1 2 4 3 3 4 3 4 6
2590.0 9 10 11 13 18 21 23 26 27 31
2630.0 34 33 29 22 17 13 12 14 15 11
2670.0 13 11 9 13 15 12 10 10 15 22
2710.0 20 16 19 25 24 19 19 23 24 24
2750.0 23 22 20 16 17 19 24 22 23 24
2790.0 21 21 22 26 31 32 31 31 35 43
2830.0 49 57 54 47 52 54 57 59 57 56
2870.0 49 51 58 59 60 68 72 77 86 95
2910.0 108 120 136 154 175 194 211 221 228 239
2950.0 249 250 247 247 255 263 271 281 289 287
2990.0 286 297 315 332 357 366 363 364 352 328
3030.0 305 270 227 186 153 130 125 126 124 129
3070.0 132 136 144 143 136 132 127 125 125 111
3110.0 95 85 76 73 66 54 55 57 51 48
3150.0 50 53 49 41 37 33 30 31 30 27
3190.0 24 22 24 24 22 23 23 26 31 31
3230.0 32 26 21 21 18 18 18 14 14 17
3270.0 17 9 4 13 17 14 9 0 5 8
3310.0 8 14 13 15 21 19 15 17 21 22
3350.0 24 24 29 29 28 31 31 34 45 54
3390.0 60 69 84 101 129 156 189 236 269 280
3430.0 291 296 298 293 266 217 165 127 104 91
3470.0 80 77 72 61 56 53 43 34 33 37
3510.0 39 41 39 25 26 20 17 17 13 23
3550.0 25 17 19 25 21 15 19 28 22 21
3590.0 25 21 26 28 23 23 26 26 30 30
3630.0 24 19 14 13 21 19 11 11 15 17
3670.0 24 25 18 15 16 18 19 15 13 19
3710.0 21 11 8 19 15 15 19 19 25 29
3750.0 24 23 16 6 15 24 19 26 29 16
3790.0 14 17 17 19 24 27 27 20 22 29
3830.0 23 18 24 20 15
##END=
