##TITLE=Methyl trifluoroacetate
##JCAMP-DX=4.24
##DATA TYPE=INFRARED SPECTRUM
##ORIGIN=EPA-IR VAPOR PHASE LIBRARY
##OWNER=SRD/NIST
Collection (C) 2018 copyright by the U.S. Secretary of Commerce
on behalf of the United States of America. All rights reserved.
##CAS REGISTRY NO=431-47-0
##MOLFORM=C 3 H 3 F 3 O 2
##$NIST SOURCE=MSDC-IR
##STATE=gas
##XUNITS=1/CM
##YUNITS=ABSORBANCE
##XFACTOR=1.
##YFACTOR=0.001
##DELTAX=1.92898
##FIRSTX=549.8
##LASTX=4000.7
##FIRSTY=5.94
##MAXX=4000.7
##MINX=549.759
##MAXY=1.32977
##MINY=0
##NPOINTS=1790
##XYDATA=(X++(Y..Y))
549.759 5.94 4.96 3.71 4.05 4.04 4.01 3.67 3.36 3.97 3.58
569.049 3.46 3.52 4.68 4.53 4.35 5.58 5.07 5.11 5.61 5.62
588.339 6.06 6.36 6.57 6.15 5.28 5.45 5.86 5.63 5.45 4.63
607.628 3.73 3.64 3.67 3.79 3.88 3.69 2.99 2.2 2.13 2.26
626.918 1.89 1.58 1.42 1.48 2.11 2.76 2.87 2.85 3.58 4.46
646.208 4.17 3.83 4.43 4.33 3.9 4.27 4.47 4.62 4.39 4.21
665.498 3.75 3.11 3.38 3.67 4.1 3.68 3.06 2.94 3.07 3.53
684.787 3.5 3.22 3.24 3.31 3.13 3.12 3.6 4.26 4.89 5.78
704.077 6.59 7.79 10.0602 13.44 18.28 25.21 35.62 49.7 66.17 83.07
723.367 98.69 110.87 119.49 128.24 142.11 148.71 142.37 141.62 143.93 140.4
742.657 130.74 115.36 96.4 76.52 59.9 48.1 40.31 36.37 35.57 36.8
761.947 39.27 41.87 44.47 48.09 52.56 57.24 62.79 70.54 80.63 82.66
781.236 73.15 66.11 63.03 60.05 57.91 55.95 53.91 51.81 48.98 45.63
800.526 42.67 39.93 37.45 35.83 35.47 35.72 36.48 38.78 43.12 49.04
819.816 56.55 64.79 72.99 81.25 87.77 91.79 94.85 96.89 98.6 98.11
839.106 94.11 89.64 85.32 79.67 71.81 62.45 52.67 43.14 34.66 28.32
858.395 23.48 19.34 16.52 14.39 12.22 10.83 9.6787 8.44 7.6 6.63
877.685 5.88 5.61 5.63 5.25 4.76 4.58 4.43 4.08 4.48 4.67
896.975 4.45 5.28 5.58 5.54 5.59 5.37 5.67 6.05 5.81 5.5
916.265 5.65 5.9 6.13 6.52 7.12 7.77 8.15 8.846 9.61208 10.143
935.555 11.04 11.99 12.72 13.73 14.97 16.26 17.62 19.25 20.88 22.26
954.844 23.71 25.11 26.22 27.66 28.56 28.85 29.84 30.01 29.35 28.72
974.134 28.09 27.44 25.66 23.33 21.71 19.98 17.77 15.19 13.22 12.13
993.424 11.24 10.5255 10.1426 10.2429 10.3706 10.1814 9.7438 9.9463 10.1122 10.1822
1012.714 10.4679 10.92 11.42 11.18 11.02 11.45 11.92 12.34 12.84 13.25
1032.003 14.32 15.13 15.2 15.57 16.08 16.77 17.87 19.36 20.37 21.11
1051.293 21.75 22.94 24.12 24.8 25.44 26.15 27.25 28.35 29.71 31.31
1070.583 32.88 34.8 37.69 40.33 43.13 46.91 50.75 55.77 61.61 67.4
1089.873 74.03 81.2 89.93 99.03 109.11 120.88 134.39 149.82 165.71 185.33
1109.163 207.62 234.14 265.7 302.65 348.94 402.28 463.79 532.11 607.52 692.14
1128.452 780.94 864.91 946 1017.4 1071.74 1104.74 1140.23 1178.13 1207.91 1219.18
1147.742 1218.77 1228.25 1191.23 1176.26 1159.29 1128.88 1109.58 1077.52 1067.56 1072.4
1167.032 1094.5 1123.42 1167.3 1177.73 1194.75 1275.1 1262.38 1255.38 1273.74 1296.88
1186.322 1313.57 1325.32 1329.77 1284.81 1258.23 1224.91 1214.76 1195.36 1146.83 1108.63
1205.611 1081.16 1084.83 1096.15 1109.4 1109.7 1102.98 1135.05 1158.93 1164.75 1164.9
1224.901 1166.37 1151.17 1105.98 1071.67 1034.07 995.36 931.98 867.47 818.71 764.16
1244.191 694.47 620.67 546.93 469.46 395.17 329.88 274.54 230.35 195.47 167.19
1263.481 144.71 125.99 111.02 99 88.99 80.6 73.43 67.92 63.48 59.92
1282.771 56.98 54.43 53.12 52.31 51.53 51.42 51.85 52.67 54.01 56.1
1302.060 58.75 61.69 64.88 68.7 73.06 77.61 82.4 87.47 92.92 99.2
1321.350 106.4 114.35 122.9 132.26 142.62 153.82 166.12 179.72 194.29 209.49
1340.640 224.99 240.09 254.47 267.17 277.57 285.29 289.96 291.9 291.19 289.19
1359.930 286.06 281.66 275.66 267.64 256.51 241.72 224.05 204.02 181.91 159.46
1379.219 138.33 119.62 103.55 90.25 78.86 68.56 59.79 52.7 46.61 41.14
1398.509 36.82 33.18 30.48 28.67 27.31 26.63 26.4 26.41 26.74 27.56
1417.799 28.65 29.72 30.9 32.52 34.46 36.91 40.24 44.33 49.14 54.68
1437.089 60.4 65.09 69.02 72.04 75.68 80.36 80.46 79.1 80.94 80.93
1456.378 75.72 66.31 57.38 50.76 46.69 44.05 42.39 41.29 40.52 39.56
1475.668 38.29 36.85 35.34 33.67 31.86 30.28 28.81 27.34 25.45 23.78
1494.958 22.91 21.9 20.74 19.8 19.01 18.68 18.72 18.19 17.5 16.9
1514.248 16.48 16.43 16.29 16.54 16.46 16.05 16.26 16.49 16.78 17.39
1533.538 17.99 18.6 19.6 21.11 22.35 23.35 24.37 24.81 25.18 25.57
1552.827 25.84 26.12 26.26 26.56 26.22 25.53 24.92 23.97 22.74 21.19
1572.117 19.72 18.63 17.66 16.5 15.35 14.52 14.07 13.55 12.82 12.21
1591.407 11.84 11.51 11.21 10.86 10.54 10.1771 9.9959 9.9024 9.58636 9.365
1610.697 9.154 8.885 8.718 8.42 7.92 7.66 7.52 7.22 6.91 6.72
1629.986 6.58 6.49 6.48 6.57 6.38 6.09 6.08 6.25 6.23 6.18
1649.276 6.07 6.41 7.02 6.82 6.69 6.77 7.07 7.37 7.37 7.61
1668.566 7.88 7.96 8.32 8.777 9.024 9.336 9.7535 10.0876 10.72 11.16
1687.856 11.34 11.83 12.31 12.95 13.84 14.35 15.23 15.85 16.14 17.01
1707.146 17.71 18.43 19.36 20.39 21.29 22.11 22.83 23.21 23.63 24.31
1726.435 25.05 25.82 26.59 27.56 28.8 29.34 30.3 31.77 33.52 35.9
1745.725 38.51 41.87 46.06 51.08 56.98 64.19 73.19 83.4 95.79 110.15
1765.015 126.24 144.62 165.52 188.31 214.86 244.31 277.05 314.14 355.71 401.78
1784.305 451.33 503.97 555.74 606.38 652.93 693.22 726.99 752.96 770.67 784.84
1803.594 792.57 798.32 806.71 808.43 795.44 766.13 721.41 663.66 597.39 527.77
1822.884 459.19 393.78 333.55 280.51 232.98 192.66 158.54 129.8 105.62 85.2
1842.174 68.96 55.65 44.86 36.64 29.99 24.87 21.05 18.3 16.14 14.45
1861.464 13.06 11.82 10.96 10.2792 9.6724 9.069 8.579 8.12 7.71 7.56
1880.754 7.34 7.09 6.96 6.91 6.94 7.03 7.07 7.19 7.38 7.52
1900.043 7.64 7.79 8.04 8.34 8.728 9.028 9.21 9.57677 9.9243 10.1614
1919.333 10.2823 10.2649 10.3702 10.5128 10.66 10.73 10.85 10.92 10.91 10.83
1938.623 10.8 10.97 10.96 10.77 10.75 10.6 10.4395 10.3844 10.3005 10.0746
1957.913 9.8296 9.8164 9.8155 9.8665 10.0241 10.119 10.1593 10.218 10.2954 10.4335
1977.202 10.3419 10.1411 10.0951 10.0056 9.7643 9.54843 9.382 9.171 8.879 8.44
1996.492 8 7.6 7.51 7.42 7.13 7.08 6.99 6.9 7.07 7.12
2015.782 7.12 7.22 7.46 7.62 7.66 7.61 7.56 7.62 7.6 7.55
2035.072 7.61 7.56 7.55 7.58 7.34 7.13 7.03 7.08 7.1 6.84
2054.362 6.61 6.54 6.3 6.09 6.03 5.89 5.73 5.57 5.43 5.26
2073.651 5.26 5.23 5.16 5.13 4.96 4.91 4.88 4.7 4.7 4.76
2092.941 4.73 4.71 4.57 4.52 4.45 4.36 4.25 4.14 4.16 4.33
2112.231 4.42 4.42 4.47 4.38 4.36 4.42 4.55 4.65 4.63 4.59
2131.521 4.39 4.3 4.48 4.41 4.3 4.36 4.16 4.16 4.25 3.95
2150.810 3.76 3.75 3.77 3.96 3.96 3.89 3.93 3.9 3.88 3.98
2170.100 4.13 4.26 4.31 4.35 4.41 4.47 4.64 4.65 4.64 4.59
2189.390 4.42 4.4 4.34 4.23 4.2 4.24 4.11 3.86 3.81 3.82
2208.680 3.7 3.42 3.17 2.98 2.7 2.49 2.47 2.37 2.26 2.35
2227.970 2.32 2.08 2 1.93 1.97 1.96 1.95 2 1.95 1.98
2247.259 2.31 2.51 2.27 2.29 2.63 2.9 3.02 3.09 3.18 3.3
2266.549 3.41 3.56 3.81 3.94 4.11 4.45 4.6 4.79 5.14 5.41
2285.839 5.61 5.67 5.77 5.94 6.14 6.46 6.56 6.75 7.13 7.29
2305.129 7.36 7.66 7.81 7.96 8.36 8.888 9.131 9.09 9.311 9.368
2324.418 9.355 9.309 9.386 9.53168 9.325 9.114 8.904 8.7 8.647 8.47
2343.708 8.19 8.11 7.8 7.53 7.51 7.19 7.08 6.97 6.79 6.87
2362.998 6.76 6.6 6.6 6.63 6.4 6.12 6 5.94 5.95 5.81
2382.288 5.87 5.98 5.87 6.02 6.03 6.09 6.44 6.68 6.82 6.97
2401.578 6.9 6.86 6.92 7.01 7.11 7.03 6.84 6.58 6.67 6.76
2420.867 6.5 6.15 5.97 5.83 5.67 5.41 5.3 5.29 4.98 4.89
2440.157 4.71 4.63 4.86 5.09 4.96 4.77 4.8 4.95 5.12 5.07
2459.447 5.01 5.11 5.24 5.16 5.06 5.01 5.18 5.15 4.98 5.03
2478.737 5.03 5.01 5.09 5.02 5.14 5.3 5.09 4.96 5.03 5.1
2498.026 5.03 4.87 4.84 4.76 4.55 4.57 4.52 4.3 4.3 4.39
2517.316 4.18 3.86 3.78 4.04 3.93 3.88 4.13 3.97 4.27 4.78
2536.606 4.69 4.56 4.63 4.89 5.09 5.22 5.38 5.34 5.33 5.44
2555.896 5.57 5.6 5.41 5.37 5.48 5.24 5.12 5.32 5.39 5.3
2575.186 5.39 5.05 4.67 4.62 4.61 4.73 4.82 4.73 4.65 4.44
2594.475 4.13 4.21 4.21 3.83 3.68 3.79 3.75 3.54 3.27 3.45
2613.765 3.6 3.47 3.64 3.83 3.85 3.74 3.69 3.57 3.72 3.81
2633.055 3.61 3.76 3.98 3.93 3.83 3.78 3.54 3.57 3.46 3.39
2652.345 3.24 2.9 2.65 2.42 2.41 2.25 2.28 2.32 2.17 2.11
2671.634 2.15 2.16 2.11 2.06 2.07 1.83 1.63 1.74 1.88 1.75
2690.924 1.61 1.81 1.72 1.82 1.9 1.68 1.43 1.3 1.35 1.29
2710.214 1.3 1.34 1.27 1.24 1.27 1.23 1.25 1.23 1.12 1.13
2729.504 1.04 0.84 0.92 0.88 0.69 0.64 0.71 0.66 0.71 0.91
2748.794 0.97 1.04 1.1 1.07 0.93 0.84 0.91 0.95 1.01 1.02
2768.083 1.07 1.02 0.93 0.94 1.05 1.24 1.34 1.59 1.67 1.45
2787.373 1.24 1.37 1.6 1.23 0.93 0.96 1.11 1.43 1.37 1.36
2806.663 1.36 1.41 1.51 1.82 1.98 1.73 1.66 1.9 2.23 2.14
2825.953 2.34 2.78 3.03 3.03 3.22 3.69 4.32 5.36 6.19 6.73
2845.242 7.58 8.749 9.9901 11.83 13.57 15.03 16.49 18.01 19.28 20
2864.532 20.55 20.94 20.82 20.07 19.77 19.41 18.08 16.16 14.32 12.66
2883.822 10.95 9.56443 8.996 8.878 8.88 8.708 8.628 9.093 9.7462 10.61
2903.112 11.14 11.51 12.23 12.7 13.07 13.18 13.13 13.35 13.02 12.62
2922.401 12.76 12.75 12.5 12.67 12.9 12.87 12.99 13.38 13.7 14.49
2941.691 16 17.58 20.4 24.41 29.37 36.64 46.58 58.33 71.12 83.55
2960.981 92.58 96.22 96.47 100.3 109.41 106.97 96.61 95.1 95.41 90.65
2980.271 80.14 66.95 54.01 43.52 36.18 31.16 28.6 27.08 26.45 26.6
2999.561 26.83 27.12 27.56 28.07 28.51 29.21 30.17 31.17 32.02 32.21
3018.850 32.01 31.82 31.24 30.58 29.92 29.39 28.9 28.45 28.23 27.74
3038.140 27.23 26.57 25.5 24.83 24.13 23.15 22.43 21.67 21.03 20.44
3057.430 19.85 18.83 17.77 16.84 15.91 15.03 13.95 13.23 12.59 12.02
3076.720 11.46 10.94 10.4921 10.1886 10.1088 9.8141 9.7642 9.58729 9.24 9.413
3096.009 9.254 8.655 8.01 8.01 8.41 8.29 8.1 8.14 7.83 7.47
3115.299 7.27 7.51 7.58 7.27 7.32 7.13 7.02 6.92 6.84 6.88
3134.589 6.77 6.34 6.14 6.43 6.21 5.76 5.97 5.93 5.47 5.22
3153.879 5.03 4.9 4.82 4.51 4.36 4.14 3.88 4.11 3.83 3.39
3173.169 3.37 3.14 2.78 2.52 2.68 2.58 2.05 2.21 2.29 1.96
3192.458 1.83 2.02 1.9 1.19 1.17 1.37 1.64 1.82 1.32 1.35
3211.748 1.41 1.31 1.43 1.43 1.42 1.34 1.24 1.33 1.85 2
3231.038 2.02 1.74 1.58 1.8 1.85 2.28 2.63 2.42 2.08 1.75
3250.328 1.69 1.87 1.85 1.75 1.88 1.88 1.95 1.92 1.28 0.98
3269.617 1.04 0.82 0.8 0.82 0.6 0.57 0.56 0.81 1 0.85
3288.907 0.31 0.4 0.8 0.78 0.83 1 1.11 1.2 1.45 1.39
3308.197 0.67 0 0.27 0.48 0.32 0.23 0.39 0.84 0.81 0.72
3327.487 1.01 0.75 0.65 0.9 0.49 0.66 0.75 0.78 1.42 1.38
3346.777 1.01 1.05 1.4 1.38 1.14 1.38 1.24 0.48 0.29 0.46
3366.066 0.64 0.51 0.51 0.64 0.46 0.52 0.69 0.88 0.99 1.08
3385.356 1.23 1.22 0.96 0.84 0.8 0.78 0.99 1.16 0.99 0.6
3404.646 0.87 1.35 1.42 1.12 1.04 0.92 0.94 1.42 1.2 0.77
3423.936 0.85 0.84 0.92 1.11 0.95 0.77 0.82 0.89 1.07 1.06
3443.225 1.07 1.12 1.05 1.24 1.37 0.86 0.78 1.24 1.42 1.51
3462.515 1.16 1.29 1.43 1.24 1.63 2.15 2 1.45 1.28 1.08
3481.805 1.2 1.62 1.69 1.85 1.76 1.4 1.62 2 1.47 1.25
3501.095 1.43 1.71 2.19 2.06 2.13 2.33 1.99 1.93 1.8 1.73
3520.385 2.07 2.22 2.28 2.28 2.41 2.32 2.19 2.44 2.62 2.38
3539.674 2.53 3.02 3.75 4.39 4.33 3.87 4.15 4.69 4.75 4.96
3558.964 5.31 5.66 5.95 6.83 7.92 8.2 7.71 7.98 8.926 9.175
3578.254 9.258 9.56263 10.2598 10.4936 10.68 11.33 10.98 10.6 10.66 10.56
3597.544 10.0384 9.61888 9.4584 9.2 8.07 7.04 6.61 5.99 5.45 4.95
3616.833 4.68 4.12 3.72 3.35 3.29 3.6 3.45 2.52 2.03 2.19
3636.123 2.44 2.6 2.03 1.67 1.9 2.52 2.44 1.83 1.64 1.49
3655.413 1.39 1.21 1.47 1.51 1.47 1.62 1.13 0.94 1.54 2.01
3674.703 2.31 2.15 1.37 1.38 1.66 1.78 2.08 2.28 2.44 2.08
3693.993 1.54 1.27 1 1.22 1.19 1.17 1.23 1.08 1.36 1.31
3713.282 1.17 1.62 1.36 0.96 1.34 1.5 1.5 1.51 0.92 0.66
3732.572 1.25 1.92 1.74 1.12 1.6 2.08 2.27 1.82 1.32 1.4
3751.862 1.79 1.75 1.08 0.86 0.78 0.56 0.71 1.17 1.35 1.53
3771.152 1.13 0.56 1.03 1.27 1.08 0.96 0.88 1.33 1.6 1.24
3790.441 1.03 1.36 1.3 1.34 1.52 1.63 1.7 1.27 1.22 1.19
3809.731 1.03 0.95 0.85 0.97 0.8 1.13 1.79 1.26 1.04 1.19
3829.021 1.14 1.24 0.99 1.09 1.75 1.86 1.74 1.63 1.25 0.88
3848.311 0.93 1.05 1.04 1.46 1.62 1.04 1.14 1.46 1.53 2.06
3867.601 2.28 2.28 1.73 1.51 1.57 1.35 1.31 1.73 1.91 1.78
3886.890 1.8 1.38 1.07 0.66 0.91 1.79 1.94 1.72 1.61 1.58
3906.180 1.24 1.29 1.61 1.38 1.09 1.56 1.61 1.81 2.42 2.28
3925.470 1.8 1.78 1.88 2.11 2.38 2.46 2.37 1.85 1.9 2.65
3944.760 2.6 2.1 1.96 1.37 1.42 1.61 1.49 1.24 1.22 1.5
3964.049 1.79 1.82 1.3 1.2 1.35 1.32 1.73 2.17 2.3 2.14
3983.339 1.63 1.72 2.16 2.51 2.11 1.78 1.91 1.75 1.8 1.48
##END=
