##TITLE=Amiral
##JCAMP-DX=4.24
##DATA TYPE=INFRARED SPECTRUM
##ORIGIN=NIST Mass Spectrometry Data Center
##OWNER=NIST Standard Reference Data Program
Collection (C) 2018 copyright by the U.S. Secretary of Commerce
on behalf of the United States of America. All rights reserved.
##CAS REGISTRY NO=43121-43-3
##MOLFORM=C 14 H 16 Cl N 3 O 2
##$NIST SOURCE=MSDC-IR
##SPECTROMETER/DATA SYSTEM=HP-GC/MS/IRD
##STATE=gas
##XUNITS=1/CM
##YUNITS=ABSORBANCE
##XFACTOR=1.0
##YFACTOR=0.000005000
##DELTAX=4.0
##FIRSTX=550.0
##LASTX=3846.0
##FIRSTY=0.000620
##MAXX=3846
##MINX=550
##MAXY=0.05
##MINY=0
##NPOINTS=825
##XYDATA=(X++(Y..Y))
550.0 124 156 78 32 0 23 50 108 183 231
590.0 211 139 88 65 61 66 89 117 168 272
630.0 410 572 837 1151 1237 992 626 433 487 860
670.0 1382 1421 887 447 318 283 276 278 283 273
710.0 266 269 287 287 285 299 302 311 321 324
750.0 352 413 514 681 929 1164 1194 982 692 499
790.0 423 407 427 488 605 789 1092 1630 2301 2667
830.0 2419 1842 1363 1082 929 869 918 986 913 731
870.0 591 558 609 731 838 853 856 911 998 1040
910.0 966 821 675 566 532 550 588 634 744 973
950.0 1133 1030 838 804 924 1132 1401 1704 2010 2267
990.0 2405 2404 2336 2360 2618 2853 2622 2078 1717 1613
1030.0 1656 1852 2147 2455 2672 2750 2696 2568 2460 2369
1070.0 2262 2127 1969 1865 1915 2199 2616 2709 2204 1538
1110.0 1145 977 936 1051 1372 1777 1840 1420 914 632
1150.0 578 657 876 1268 1735 2063 2170 2271 2706 3628
1190.0 4672 5079 4544 3725 3484 4086 5308 6610 7092 6187
1230.0 4502 3039 2096 1529 1212 1050 1022 1138 1376 1743
1270.0 2187 2505 2413 1893 1260 821 603 502 453 424
1310.0 416 430 471 535 633 758 898 1017 1076 1049
1350.0 969 900 896 976 1111 1197 1137 939 722 605
1390.0 608 712 864 943 893 823 827 898 977 984
1430.0 893 747 629 591 613 674 750 882 1082 1395
1470.0 1882 2737 4152 6331 8864 10000 8503 5859 4045 2917
1510.0 1918 1270 949 789 685 608 535 442 339 262
1550.0 225 208 206 208 221 258 327 438 570 656
1590.0 655 583 465 328 224 167 147 138 136 140
1630.0 136 126 116 107 101 96 91 85 87 93
1670.0 98 107 115 130 155 182 223 278 345 432
1710.0 549 694 884 1120 1451 1940 2509 2822 2568 1937
1750.0 1335 950 732 604 516 421 315 218 151 115
1790.0 95 80 69 59 59 57 49 43 40 41
1830.0 41 39 44 52 56 60 64 68 74 86
1870.0 101 111 106 88 70 55 39 30 26 21
1910.0 15 9 10 7 5 7 5 2 7 13
1950.0 14 15 14 15 16 17 17 18 20 21
1990.0 21 25 25 21 20 25 27 26 34 41
2030.0 45 50 49 50 50 47 45 43 39 38
2070.0 37 36 33 30 29 29 30 28 26 28
2110.0 30 24 23 26 25 23 24 23 22 21
2150.0 15 9 10 12 12 5 1 3 4 6
2190.0 10 9 3 4 5 8 9 7 8 9
2230.0 11 13 13 10 12 13 11 13 10 9
2270.0 10 8 11 21 24 21 18 18 24 25
2310.0 25 31 34 33 34 25 25 26 20 18
2350.0 15 16 22 26 31 37 38 35 39 42
2390.0 44 51 56 58 56 45 40 45 49 46
2430.0 43 45 45 39 33 31 28 32 37 36
2470.0 33 29 25 21 23 30 29 27 26 22
2510.0 22 26 26 27 29 30 32 41 42 41
2550.0 48 52 53 47 43 46 49 53 51 49
2590.0 53 52 49 49 47 54 64 60 59 60
2630.0 54 55 55 48 46 49 49 43 37 34
2670.0 37 43 48 55 56 58 62 58 59 66
2710.0 63 57 53 54 64 66 59 56 56 57
2750.0 56 56 57 53 53 54 60 68 64 70
2790.0 78 85 90 92 91 94 101 106 108 115
2830.0 122 128 144 162 174 185 202 233 268 318
2870.0 391 477 563 624 633 613 587 575 594 629
2910.0 679 747 796 820 845 887 966 1072 1165 1234
2950.0 1285 1385 1586 1883 2236 2549 2691 2607 2368 2032
2990.0 1650 1266 942 707 531 402 318 260 224 199
3030.0 182 178 181 187 193 184 156 136 135 138
3070.0 142 147 151 157 158 160 171 177 169 149
3110.0 134 127 123 123 131 161 201 204 182 165
3150.0 154 152 133 102 85 75 76 78 72 77
3190.0 75 65 69 66 63 64 59 46 49 52
3230.0 48 44 45 40 24 27 33 37 38 32
3270.0 37 40 37 30 21 23 30 31 34 33
3310.0 29 27 19 20 30 29 28 31 45 49
3350.0 40 31 28 33 32 33 45 34 24 35
3390.0 34 30 28 18 20 23 27 26 25 32
3430.0 34 45 55 55 62 74 77 78 71 64
3470.0 57 47 44 50 46 38 35 29 33 31
3510.0 24 20 26 32 21 14 17 22 28 16
3550.0 0 14 21 17 17 23 40 32 14 18
3590.0 20 22 28 27 23 27 37 42 44 32
3630.0 22 31 39 35 27 9 4 25 38 37
3670.0 37 35 30 33 35 24 19 28 25 21
3710.0 29 41 41 41 49 46 34 33 37 34
3750.0 34 40 39 31 33 34 30 27 24 31
3790.0 45 45 42 51 49 50 41 40 49 57
3830.0 53 34 34 53 54
##END=
