##TITLE=2-Chloro-2-methylpentane
##JCAMP-DX=4.24
##DATA TYPE=INFRARED SPECTRUM
##ORIGIN=NIST Mass Spectrometry Data Center
##OWNER=NIST Standard Reference Data Program
Collection (C) 2018 copyright by the U.S. Secretary of Commerce
on behalf of the United States of America. All rights reserved.
##CAS REGISTRY NO=4325-48-8
##MOLFORM=C 6 H 13 Cl
##$NIST SOURCE=MSDC-IR
##SPECTROMETER/DATA SYSTEM=HP-GC/MS/IRD
##STATE=gas
##XUNITS=1/CM
##YUNITS=ABSORBANCE
##XFACTOR=1.0
##YFACTOR=0.000002400
##DELTAX=4.0
##FIRSTX=550.0
##LASTX=3846.0
##FIRSTY=0.001003
##MAXX=3846
##MINX=550
##MAXY=0.024
##MINY=0
##NPOINTS=825
##XYDATA=(X++(Y..Y))
550.0 418 525 667 856 1037 1202 1313 1298 1229 1072
590.0 815 617 475 360 286 261 298 332 376 412
630.0 436 479 467 376 271 187 117 83 69 36
670.0 44 17 0 34 25 24 40 65 31 24
710.0 56 47 72 116 167 235 281 299 310 326
750.0 314 271 242 200 156 136 142 182 227 256
790.0 309 372 402 415 432 463 497 488 468 449
830.0 389 318 237 154 121 103 92 96 107 109
870.0 91 92 101 118 143 171 196 205 193 185
910.0 184 159 114 89 92 70 62 95 111 140
950.0 180 212 235 231 218 190 151 126 109 86
990.0 63 52 56 69 61 57 73 84 88 98
1030.0 113 118 120 131 150 186 211 224 239 276
1070.0 335 372 402 417 419 426 432 462 517 626
1110.0 803 1056 1365 1667 1926 2115 2230 2244 2143 2023
1150.0 1920 1825 1701 1568 1450 1337 1217 1079 929 788
1190.0 671 590 564 593 665 778 882 923 893 823
1230.0 725 619 535 484 462 459 452 444 421 387
1270.0 359 329 296 274 273 288 289 280 268 247
1310.0 238 229 201 175 162 162 181 213 266 362
1350.0 496 681 921 1179 1426 1749 2003 1967 1914 1843
1390.0 1643 1381 1110 856 632 478 413 409 427 478
1430.0 581 722 877 1074 1297 1515 1691 1797 1832 1796
1470.0 1683 1506 1286 1060 818 604 447 332 270 232
1510.0 195 170 162 155 140 132 135 133 126 106
1550.0 91 96 110 98 79 72 75 75 69 64
1590.0 66 65 56 52 51 45 50 54 51 51
1630.0 50 51 55 63 60 54 45 38 44 47
1670.0 51 43 36 41 39 29 26 37 35 31
1710.0 26 25 30 28 22 22 19 10 14 29
1750.0 27 20 27 28 28 24 19 26 26 30
1790.0 33 30 34 32 25 22 21 16 13 21
1830.0 28 22 24 27 22 16 21 22 14 16
1870.0 15 15 29 28 20 24 22 15 20 31
1910.0 27 19 21 24 21 21 27 25 28 23
1950.0 12 19 20 16 18 24 26 21 19 10
1990.0 4 14 24 28 22 13 7 16 25 20
2030.0 23 22 24 30 25 27 33 26 15 14
2070.0 19 19 20 19 17 16 16 5 6 10
2110.0 7 18 17 15 23 18 14 15 22 29
2150.0 24 20 23 27 24 27 36 32 28 28
2190.0 23 22 25 23 22 27 27 18 15 13
2230.0 4 9 13 14 15 10 10 11 9 10
2270.0 11 19 30 32 27 14 5 13 18 24
2310.0 35 33 31 29 32 38 27 28 43 39
2350.0 30 27 34 44 40 37 44 47 40 36
2390.0 35 28 22 29 34 29 29 30 29 33
2430.0 33 31 30 31 28 24 23 15 25 31
2470.0 24 24 19 13 14 19 21 29 35 36
2510.0 29 26 36 35 31 34 41 53 55 49
2550.0 48 57 59 56 57 63 79 77 66 63
2590.0 62 68 69 56 60 68 73 74 74 70
2630.0 69 78 80 85 86 84 87 93 89 79
2670.0 78 80 86 92 89 87 99 105 105 119
2710.0 129 138 155 167 180 196 203 206 208 214
2750.0 223 222 214 198 192 204 199 195 199 202
2790.0 215 243 281 303 347 388 419 459 504 574
2830.0 661 756 857 966 1082 1199 1315 1464 1659 1936
2870.0 2330 2834 3286 3639 3910 4034 4024 3910 3820 3810
2910.0 3914 4115 4380 4787 5338 5879 6341 6683 6868 6903
2950.0 6866 6952 7286 7943 8816 9632 10000 9848 9273 8468
2990.0 7414 5967 4756 3686 2742 2024 1438 1047 819 698
3030.0 625 568 515 470 433 391 352 327 303 298
3070.0 308 300 280 279 268 249 238 227 212 182
3110.0 182 195 184 182 158 143 168 179 166 160
3150.0 155 156 155 141 140 150 163 156 144 144
3190.0 148 143 126 129 145 141 127 136 139 136
3230.0 121 117 131 127 130 132 121 98 81 82
3270.0 90 89 92 91 75 61 63 83 84 59
3310.0 46 64 78 61 56 57 52 53 50 43
3350.0 45 48 47 40 41 48 50 46 51 51
3390.0 48 42 39 35 21 33 53 40 23 18
3430.0 28 42 25 14 20 23 15 7 15 13
3470.0 28 41 25 22 28 28 30 36 34 21
3510.0 5 6 19 18 24 30 13 10 23 38
3550.0 25 17 30 30 26 22 17 30 26 22
3590.0 41 40 23 33 37 43 43 39 41 28
3630.0 22 34 54 50 44 43 46 49 33 37
3670.0 49 38 36 34 45 61 60 52 38 31
3710.0 35 44 43 37 39 53 47 45 51 57
3750.0 65 67 68 60 39 50 44 16 25 26
3790.0 26 42 61 79 88 83 74 64 66 65
3830.0 67 77 80 81 98
##END=
