##TITLE=1,2'-Binaphthyl
##JCAMP-DX=4.24
##DATA TYPE=INFRARED SPECTRUM
##ORIGIN=NIST Mass Spectrometry Data Center
##OWNER=NIST Standard Reference Data Program
Collection (C) 2018 copyright by the U.S. Secretary of Commerce
on behalf of the United States of America. All rights reserved.
##CAS REGISTRY NO=4325-74-0
##MOLFORM=C 20 H 14
##$NIST SOURCE=MSDC-IR
##SPECTROMETER/DATA SYSTEM=HP-GC/MS/IRD
##STATE=gas
##XUNITS=1/CM
##YUNITS=ABSORBANCE
##XFACTOR=1.0
##YFACTOR=0.000001300
##DELTAX=4.0
##FIRSTX=550.0
##LASTX=3846.0
##FIRSTY=0.000416
##MAXX=3846
##MINX=550
##MAXY=0.013
##MINY=0
##NPOINTS=825
##XYDATA=(X++(Y..Y))
550.0 320 481 541 631 613 507 417 320 176 71
590.0 100 168 186 201 198 232 288 365 413 347
630.0 254 171 142 170 245 308 420 545 626 740
670.0 762 599 319 195 221 210 223 246 272 333
710.0 400 501 616 732 998 1618 2780 4002 4284 3411
750.0 2188 1617 1795 2651 4145 5949 7150 6802 5723 5232
790.0 5368 5346 4563 3433 2741 2699 2838 2639 2020 1295
830.0 873 749 771 880 1233 1768 2121 1978 1436 969
870.0 766 677 592 561 658 913 1141 1092 849 642
910.0 526 442 396 389 388 521 890 1263 1314 984
950.0 677 578 522 500 446 381 325 285 270 275
990.0 294 295 319 382 519 762 1062 1163 962 675
1030.0 462 354 278 249 216 246 320 312 234 156
1070.0 139 106 70 91 100 107 148 229 317 335
1110.0 293 206 173 254 381 563 663 547 375 265
1150.0 230 281 338 356 218 48 28 23 0 4
1190.0 81 156 169 163 111 89 85 74 86 126
1230.0 197 235 238 219 257 337 332 318 359 384
1270.0 329 215 140 109 98 112 133 148 146 147
1310.0 170 193 243 315 336 338 350 368 395 427
1350.0 462 469 476 495 515 527 541 582 695 1013
1390.0 1639 2157 2011 1377 860 627 529 495 491 538
1430.0 564 558 525 465 408 354 337 323 312 331
1470.0 352 382 423 474 583 817 1209 1660 1896 1747
1510.0 1336 935 684 562 489 429 375 320 300 324
1550.0 363 408 448 479 540 674 833 984 1152 1332
1590.0 1430 1348 1111 849 643 514 467 487 558 652
1630.0 711 678 562 436 370 331 295 279 282 313
1670.0 352 392 451 508 526 504 492 451 390 352
1710.0 316 311 329 341 349 349 340 328 330 350
1750.0 370 395 420 440 442 428 412 383 376 404
1790.0 437 468 515 558 568 526 468 434 424 413
1830.0 379 328 275 237 240 264 270 286 311 308
1870.0 274 234 201 199 231 280 329 383 439 511
1910.0 591 668 696 662 613 567 543 555 544 460
1950.0 330 215 150 120 103 100 92 79 89 94
1990.0 80 86 95 91 82 83 89 87 93 87
2030.0 77 88 81 82 101 95 87 95 87 78
2070.0 78 82 88 80 68 71 73 74 81 72
2110.0 66 88 102 73 56 66 71 66 60 64
2150.0 61 45 45 54 42 50 66 63 64 64
2190.0 70 72 67 76 81 81 74 79 98 87
2230.0 82 100 106 94 83 88 98 103 91 88
2270.0 107 118 121 128 155 164 152 137 124 123
2310.0 115 128 135 117 106 114 116 105 118 130
2350.0 128 106 109 116 107 116 120 101 96 96
2390.0 85 109 127 122 122 112 116 116 109 112
2430.0 110 118 109 93 106 117 115 113 109 109
2470.0 104 116 110 94 104 129 138 118 131 153
2510.0 133 113 105 96 99 120 137 126 114 97
2550.0 94 131 145 131 115 98 101 115 116 110
2590.0 117 107 106 129 133 131 132 124 115 111
2630.0 127 142 120 115 116 111 121 116 104 109
2670.0 121 129 128 130 151 140 128 138 133 133
2710.0 129 136 172 178 148 138 155 147 137 133
2750.0 140 148 134 149 149 131 131 144 146 147
2790.0 168 174 167 168 173 142 118 146 165 183
2830.0 195 175 164 178 177 184 192 190 185 177
2870.0 178 187 192 194 196 205 228 247 246 246
2910.0 263 262 257 280 310 335 352 389 407 424
2950.0 457 468 483 493 505 512 498 532 589 607
2990.0 649 727 842 987 1161 1372 1565 1785 1941 2027
3030.0 2103 2284 2731 3557 4759 6170 7698 9218 10000 9116
3070.0 7118 5366 4364 3725 3101 2476 1932 1529 1220 941
3110.0 715 579 458 383 341 293 277 253 224 228
3150.0 243 256 254 229 189 184 193 186 192 194
3190.0 177 154 155 153 169 198 216 179 176 191
3230.0 148 143 142 171 190 165 146 153 157 159
3270.0 164 150 133 119 108 138 154 126 142 133
3310.0 131 142 121 111 96 110 127 101 87 123
3350.0 160 158 156 168 149 109 96 98 103 89
3390.0 76 77 82 104 123 144 143 84 73 88
3430.0 104 144 146 131 122 126 95 85 104 128
3470.0 131 123 110 85 104 133 100 73 106 133
3510.0 146 159 115 101 119 97 100 136 148 145
3550.0 144 144 161 145 126 91 64 81 129 155
3590.0 158 151 163 160 136 144 154 154 178 191
3630.0 169 152 120 140 152 153 169 161 174 168
3670.0 141 163 203 205 181 178 202 187 159 143
3710.0 132 162 168 166 174 158 177 192 200 201
3750.0 188 142 119 157 193 152 153 194 197 185
3790.0 137 127 144 147 162 182 197 182 170 192
3830.0 179 160 233 255 198
##END=
