##TITLE=2-Chloro-2-methylnonane
##JCAMP-DX=4.24
##DATA TYPE=INFRARED SPECTRUM
##ORIGIN=NIST Mass Spectrometry Data Center
##OWNER=NIST Standard Reference Data Program
Collection (C) 2018 copyright by the U.S. Secretary of Commerce
on behalf of the United States of America. All rights reserved.
##CAS REGISTRY NO=4325-50-2
##MOLFORM=C 10 H 21 Cl
##$NIST SOURCE=MSDC-IR
##SPECTROMETER/DATA SYSTEM=HP-GC/MS/IRD
##STATE=gas
##XUNITS=1/CM
##YUNITS=ABSORBANCE
##XFACTOR=1.0
##YFACTOR=0.000004300
##DELTAX=4.0
##FIRSTX=550.0
##LASTX=3846.0
##FIRSTY=0.001075
##MAXX=3846
##MINX=550
##MAXY=0.043
##MINY=0
##NPOINTS=825
##XYDATA=(X++(Y..Y))
550.0 250 220 212 312 404 504 623 705 670 576
590.0 462 353 271 191 139 140 161 189 216 243
630.0 276 299 259 187 132 79 61 38 6 4
670.0 10 22 34 36 43 49 44 53 83 103
710.0 134 179 207 206 203 206 201 194 190 188
750.0 181 170 164 165 170 170 167 171 170 169
790.0 181 188 191 208 221 221 232 227 221 225
830.0 210 201 213 206 183 157 139 135 125 117
870.0 116 118 127 142 149 155 160 142 122 111
910.0 105 93 82 87 94 91 97 104 98 99
950.0 102 100 100 99 95 98 89 70 61 52
990.0 48 46 42 40 44 48 39 33 42 38
1030.0 38 54 64 57 63 80 94 111 126 143
1070.0 173 212 258 307 344 380 429 469 509 555
1110.0 575 609 694 799 887 924 899 826 753 685
1150.0 614 561 514 463 426 406 389 389 409 444
1190.0 487 517 537 558 581 593 604 615 602 547
1230.0 472 395 332 288 262 245 240 247 245 236
1270.0 223 217 224 223 227 244 259 265 270 274
1310.0 267 262 257 245 243 248 260 295 334 378
1350.0 427 488 581 718 890 1050 1149 1144 1098 1059
1390.0 957 777 563 397 308 268 251 254 273 307
1430.0 355 429 541 685 857 1052 1233 1347 1372 1315
1470.0 1174 983 772 571 414 301 228 181 142 115
1510.0 102 90 78 67 55 47 42 33 34 39
1550.0 29 24 20 13 15 17 12 19 27 20
1590.0 18 25 27 30 33 31 28 32 39 42
1630.0 46 48 48 49 55 58 57 49 41 47
1670.0 51 47 43 38 32 35 38 38 36 33
1710.0 36 35 36 37 33 33 35 38 37 32
1750.0 30 29 30 30 33 38 39 34 30 27
1790.0 23 23 22 20 21 25 19 13 18 19
1830.0 12 11 17 21 17 12 14 11 13 15
1870.0 18 17 11 17 15 9 7 8 11 10
1910.0 9 9 8 10 12 9 3 5 5 7
1950.0 10 10 7 9 10 3 1 2 2 4
1990.0 3 0 2 5 8 14 17 11 11 14
2030.0 16 21 24 23 21 18 16 16 14 15
2070.0 15 13 11 11 11 11 12 12 11 8
2110.0 6 5 7 11 7 7 11 9 8 11
2150.0 14 11 9 15 16 14 16 13 13 14
2190.0 15 16 14 9 14 17 15 18 13 9
2230.0 14 17 14 11 11 13 15 11 11 13
2270.0 14 18 16 14 14 10 10 10 13 22
2310.0 22 20 19 20 23 17 15 11 5 10
2350.0 10 8 11 16 15 15 14 11 11 18
2390.0 21 19 19 16 14 16 14 14 12 12
2430.0 19 18 14 13 11 1 5 16 15 14
2470.0 15 15 18 17 17 20 22 18 19 24
2510.0 21 19 20 24 29 33 35 35 36 42
2550.0 44 50 48 45 45 39 39 47 54 60
2590.0 60 59 58 61 62 61 64 67 68 76
2630.0 85 85 83 83 84 87 99 99 97 105
2670.0 111 123 124 119 122 120 122 121 120 118
2710.0 117 125 129 139 147 153 165 178 182 178
2750.0 180 178 168 175 181 187 203 210 222 233
2790.0 253 275 303 336 368 407 457 513 574 640
2830.0 725 848 1013 1233 1531 1935 2449 2998 3461 3724
2870.0 3780 3710 3607 3499 3388 3290 3262 3377 3628 4011
2910.0 4533 5229 6145 7274 8459 9427 9965 10000 9580 8805
2950.0 7830 6904 6248 5974 5947 5904 5693 5217 4712 4246
2990.0 3773 3269 2600 1944 1383 996 786 645 553 491
3030.0 435 388 356 333 310 285 267 255 247 237
3070.0 241 247 235 224 212 192 171 167 167 155
3110.0 136 126 127 127 129 117 102 102 103 102
3150.0 103 102 99 92 88 84 87 97 98 92
3190.0 86 84 86 84 88 79 74 77 73 69
3230.0 72 73 72 73 69 60 60 59 49 44
3270.0 42 40 43 43 44 40 35 33 30 26
3310.0 22 30 30 28 30 23 24 30 34 33
3350.0 36 33 24 21 20 25 28 26 29 27
3390.0 28 28 22 26 20 15 17 20 23 13
3430.0 15 21 23 19 11 8 16 21 27 31
3470.0 24 19 17 12 13 15 18 17 7 5
3510.0 13 14 17 20 7 5 12 9 10 9
3550.0 8 12 17 18 24 26 7 2 11 4
3590.0 0 10 23 26 20 16 15 15 20 18
3630.0 22 25 21 21 25 27 14 12 7 1
3670.0 3 9 14 16 13 13 14 19 14 10
3710.0 15 21 28 21 15 16 24 29 23 11
3750.0 9 11 17 25 28 26 15 18 22 24
3790.0 30 23 10 6 16 21 18 30 29 19
3830.0 28 26 19 22 27
##END=
