##TITLE=o-Nitrobenzenesulfonyl fluoride
##JCAMP-DX=4.24
##DATA TYPE=INFRARED SPECTRUM
##ORIGIN=EPA-IR VAPOR PHASE LIBRARY
##OWNER=SRD/NIST
Collection (C) 2018 copyright by the U.S. Secretary of Commerce
on behalf of the United States of America. All rights reserved.
##CAS REGISTRY NO=433-98-7
##MOLFORM=C 6 H 4 F N O 4 S
##$NIST SOURCE=MSDC-IR
##STATE=gas
##XUNITS=1/CM
##YUNITS=ABSORBANCE
##XFACTOR=1.
##YFACTOR=0.001
##DELTAX=1.92898
##FIRSTX=549.8
##LASTX=4000.7
##FIRSTY=5.2
##MAXX=4000.7
##MINX=549.759
##MAXY=0.20233
##MINY=0
##NPOINTS=1790
##XYDATA=(X++(Y..Y))
549.759 5.2 3.7 2.12 0.99 0.52 0.72 1.31 1.84 2.05 2.5
569.049 3.2 4.31 4.54 5.21 7.85 11.53 17.01 27.22 44.16 68.87
588.339 96.76 117.45 125.41 136.72 146.14 133.65 121.85 109.47 83.17 53.67
607.628 31.05 18.1 11.77 8.636 6.89 5.68 4.62 4.26 4.34 4.06
626.918 3.84 3.95 3.88 3.87 4.21 4.65 5.42 6.7 8.38 10.95
646.208 14.12 16.93 19.23 20.65 21.76 21.9 20.6 19.28 17.24 14.21
665.498 10.87 8.082 6.65 5.74 5.27 5.08 4.9 5.07 5.09 5.13
684.787 5.48 5.86 6.01 6.39 6.93 6.84 6.98 7.52 7.89 8.463
704.077 8.9189 9.612 10.49 11.37 12.75 14.59 16.93 19.93 23.45 27.54
723.367 32.35 37.47 42.75 47.75 51.9 55.57 58.96 62.29 63.21 58.55
742.657 51.9 46.98 42.8 38.54 34.22 30.7 28.45 27.11 27.15 28.97
761.947 31.98 35.82 40.51 45.88 51.58 57.65 63.93 70.03 74.18 74.35
781.236 72.72 71.51 70.46 69.04 67.27 66.25 66.94 69.79 75.03 83.45
800.526 95.27 109.23 124.62 139.73 152.21 161.02 164.66 161.22 150.3 134.01
819.816 114.93 95.04 76.21 59.07 44.35 32.96 25.5 21.71 20.37 20.98
839.106 23.82 28.16 33 37.37 40.04 40.58 40.03 39.68 37.87 33.67
858.395 27.68 21.09 15.51 11.49 9.06322 7.65 6.6 5.91 5.51 5.46
877.685 5.26 4.81 4.59 4.37 4.19 4.14 3.92 3.67 3.54 3.63
896.975 3.55 3.39 3.45 3.27 3.3 3.47 3.34 3.24 3.09 2.84
916.265 2.81 2.66 2.64 2.69 2.65 2.6 2.44 2.4 2.45 2.49
935.555 2.43 2.33 2.15 2.1 2.29 2.54 2.84 2.89 2.86 3.12
954.844 3.43 3.53 3.6 3.66 3.43 3.03 2.85 2.69 2.62 2.66
974.134 2.45 2.39 2.42 2.3 2.21 2.18 2.12 2.01 2.03 2.25
993.424 2.33 2.05 2.05 2.11 1.86 1.98 2.09 2.12 2.2 2.12
1012.714 2.13 2.37 2.39 2.36 2.7 2.66 2.38 2.11 2.34 2.75
1032.003 2.64 2.78 2.97 2.94 2.98 3.22 3.56 4.14 5.1 5.8
1051.293 6.51 7.16 7.29 7.46 7.988 8.345 8.208 8.018 7.68 7.41
1070.583 6.84 5.96 5.29 4.86 4.58 4.46 4.48 4.45 4.44 4.63
1089.873 4.93 5.12 5.1 4.65 4.53 4.74 4.82 5.02 5.1 5.39
1109.163 5.96 6.28 7.01 7.77 8.841 10.3 11.41 12.8 13.82 14.74
1128.452 15.68 15.85 15.6 14.86 13.63 12.03 10.33 8.9151 7.78 6.89
1147.742 6.3 6.31 6.41 6.37 6.02 5.36 5.19 5.17 4.69 4.66
1167.032 4.83 4.65 4.72 4.66 4.68 5.05 5.46 5.81 6.27 7.26
1186.322 7.992 8.585 9.4422 10.02 10.56 11.4 12.52 14.46 17.22 20.68
1205.611 25.8 33.13 43.58 58.59 78.75 103.48 131.37 157.69 177.29 191.59
1224.901 202.33 201.09 181.46 157.29 134.26 105.9 75.88 51.89 36.08 26.48
1244.191 21.08 17.7 15.57 14.6 13.71 12.97 12.63 12.29 12.1 11.89
1263.481 11.83 12.08 12.32 12.23 12.13 12.5 12.89 13.22 13.79 14.37
1282.771 15.05 15.82 16.4 16.78 16.88 16.57 16.05 15.25 14.41 13.48
1302.060 12.46 11.76 11.24 10.89 10.77 10.91 11.13 11.31 11.62 12.01
1321.350 12.53 13.21 14.11 15.37 17.06 19.29 22.17 25.81 30.2 35.51
1340.640 41.68 48.57 56.12 63.93 71.52 78.24 83.24 85.99 86.15 83.64
1359.930 78.63 71.25 62.07 51.85 41.51 32.35 25.07 19.77 16.21 13.87
1379.219 12.38 11.35 10.61 10.19 9.9589 9.8765 9.8926 9.99 10.27 10.69
1398.509 11.15 11.82 12.84 14.15 15.71 17.7 20.3 23.48 27.21 31.76
1417.799 37.35 44.26 52.6 62.72 74.7 87.32 99.85 111.56 122.34 132
1437.089 141.66 151.08 159.36 165.1 167.1 165.53 161.09 154.6 145.03 131.24
1456.378 113.28 93.7 75.42 59.1 46.47 37.11 30.69 26.17 22.9 20.25
1475.668 18.16 16.38 14.92 13.59 12.41 11.57 11.01 10.63 10.53 10.58
1494.958 10.71 10.84 11.08 11.41 11.69 12.12 12.64 12.96 13.25 13.75
1514.248 14.37 15.04 15.76 16.64 17.75 18.81 20.09 21.61 23.41 25.61
1533.538 28.25 31.39 35.18 40.06 45.88 52.99 61.75 72.37 84.77 99.21
1552.827 114.45 130.67 145.96 159.87 172.11 180.59 183.68 178.95 166.44 150.73
1572.117 135.74 120.62 104.65 89.87 77.99 68.42 61.03 55.01 50.02 45.76
1591.407 42.1 38.7 35.43 32.1 28.85 25.89 23.26 21 19.04 17.23
1610.697 15.6 14.21 13.04 12.05 11.24 10.5 9.8953 9.3391 8.786 8.339
1629.986 7.9 7.44 7.12 6.78 6.4 6.06 5.72 5.52 5.38 5.22
1649.276 5.13 5 4.82 4.6 4.39 4.19 4.02 3.85 3.63 3.39
1668.566 3.19 3.07 2.92 2.77 2.65 2.55 2.52 2.54 2.64 2.67
1687.856 2.69 2.71 2.64 2.66 2.66 2.58 2.64 2.71 2.66 2.66
1707.146 2.7 2.69 2.76 2.81 2.81 2.9 2.88 2.79 2.71 2.72
1726.435 2.73 2.69 2.73 2.75 2.68 2.53 2.41 2.32 2.33 2.27
1745.725 2.1 2.07 2.04 2.08 2.12 1.98 1.88 1.9 1.82 1.89
1765.015 1.94 1.79 1.76 1.79 1.74 1.66 1.61 1.63 1.59 1.59
1784.305 1.64 1.6 1.53 1.56 1.66 1.66 1.61 1.62 1.72 1.7
1803.594 1.67 1.73 1.78 1.86 1.9 1.95 2.08 2.22 2.34 2.52
1822.884 2.73 2.93 3.05 3.16 3.2 3.2 3.2 3.13 2.99 2.81
1842.174 2.68 2.58 2.42 2.3 2.23 2.2 2.23 2.21 2.2 2.25
1861.464 2.24 2.23 2.25 2.21 2.18 2.1 1.99 1.93 1.83 1.79
1880.754 1.7 1.57 1.51 1.4 1.38 1.41 1.38 1.43 1.45 1.43
1900.043 1.46 1.51 1.54 1.6 1.59 1.61 1.7 1.74 1.78 1.8
1919.333 1.79 1.83 1.85 1.88 1.95 2.03 2.14 2.35 2.55 2.78
1938.623 3.01 3.16 3.3 3.41 3.46 3.35 3.16 2.94 2.76 2.63
1957.913 2.46 2.34 2.18 2.16 2.33 2.48 2.57 2.57 2.65 2.72
1977.202 2.57 2.48 2.44 2.25 2.01 1.87 1.7 1.49 1.37 1.32
1996.492 1.27 1.25 1.2 1.14 1.23 1.21 1.18 1.32 1.4 1.34
2015.782 1.34 1.31 1.21 1.18 1.29 1.31 1.22 1.23 1.3 1.32
2035.072 1.33 1.26 1.22 1.28 1.27 1.23 1.19 1.21 1.15 1.08
2054.362 1.1 1.1 1.16 1.15 1.11 1.15 1.16 1.1 1.08 1.11
2073.651 1.13 1.08 1.09 1.11 1.15 1.2 1.16 1.07 0.99 1.01
2092.941 1.04 1.02 1.12 1.13 1.12 1.13 1.13 1.25 1.23 1.21
2112.231 1.22 1.17 1.19 1.19 1.27 1.29 1.18 1.2 1.18 1.14
2131.521 1.21 1.27 1.32 1.3 1.26 1.22 1.25 1.29 1.24 1.18
2150.810 1.16 1.14 1.16 1.21 1.2 1.2 1.22 1.25 1.22 1.13
2170.100 1.22 1.33 1.35 1.33 1.22 1.3 1.4 1.3 1.28 1.29
2189.390 1.25 1.21 1.2 1.21 1.22 1.22 1.2 1.22 1.2 1.13
2208.680 1.14 1.15 1.14 1.16 1.12 1.18 1.18 1.05 1.04 1.05
2227.970 1.07 1.09 1.14 1.2 1.18 1.18 1.16 1.09 1.03 1.09
2247.259 1.11 1.1 1.16 1.13 1.11 1.12 1.1 1.1 1.13 1.13
2266.549 1.15 1.18 1.16 1.15 1.17 1.15 1.15 1.17 1.23 1.12
2285.839 1.09 1.18 1.12 1.21 1.36 1.34 1.33 1.33 1.3 1.34
2305.129 1.35 1.31 1.35 1.37 1.35 1.31 1.36 1.37 1.42 1.43
2324.418 1.44 1.6 1.49 1.35 1.42 1.54 1.58 1.62 1.64 1.63
2343.708 1.68 1.56 1.4 1.27 1.18 1.16 1.14 1.1 1.06 1.11
2362.998 1.13 1.14 1.12 1.05 1.04 1.05 1.03 1.07 1.18 1.13
2382.288 1.1 1.15 1.18 1.28 1.34 1.5 1.59 1.54 1.64 1.71
2401.578 1.67 1.62 1.6 1.6 1.63 1.7 1.66 1.57 1.56 1.55
2420.867 1.46 1.43 1.41 1.27 1.34 1.35 1.31 1.35 1.33 1.36
2440.157 1.38 1.36 1.42 1.42 1.35 1.24 1.17 1.26 1.17 0.96
2459.447 0.98 1.01 0.91 0.91 0.97 0.95 0.96 0.95 0.94 0.99
2478.737 1.13 1.12 1.01 0.98 0.94 0.96 0.92 0.95 0.95 0.92
2498.026 0.95 0.97 1.01 1.04 1.01 0.98 0.93 0.95 0.97 0.95
2517.316 0.87 0.88 0.96 0.88 0.85 0.89 0.78 0.75 0.87 0.89
2536.606 0.94 1.14 1.15 0.99 0.94 0.9 0.91 0.97 0.95 1.01
2555.896 1.1 1.05 0.93 0.84 0.92 1.01 1.02 0.94 0.98 1.2
2575.186 1.18 1.11 1.07 1.05 1.12 1.09 1.12 1.24 1.21 1.06
2594.475 1.13 1.27 1.41 1.42 1.3 1.31 1.18 1.13 1.34 1.44
2613.765 1.29 1.25 1.37 1.34 1.41 1.52 1.59 1.64 1.75 1.91
2633.055 1.9 1.91 1.93 2.09 2.27 2.38 2.44 2.53 2.5 2.61
2652.345 2.82 2.72 2.53 2.36 2.29 2.21 2.02 1.97 2.1 2.08
2671.634 2.03 1.9 1.72 1.74 1.8 1.8 1.76 1.78 1.89 1.91
2690.924 1.91 2.04 2.15 2.14 2.04 2.07 2.02 2.09 2.22 2.1
2710.214 2.13 2.02 1.78 1.8 1.84 1.66 1.52 1.46 1.47 1.47
2729.504 1.35 1.3 1.33 1.32 1.31 1.33 1.26 1.26 1.29 1.19
2748.794 1.15 1.13 1.2 1.14 0.97 0.91 0.95 0.93 0.92 0.87
2768.083 0.79 0.83 0.85 0.85 0.86 0.98 0.96 1.04 1.1 1.06
2787.373 0.92 0.86 0.87 0.87 1.03 1.11 1.11 1.11 1.07 0.87
2806.663 0.93 1.1 1.1 1.01 0.94 0.94 0.96 1.03 1.06 1.03
2825.953 0.99 1.08 1.18 1.14 0.97 1.05 1.29 1.22 1 1.04
2845.242 1.19 1.22 1.2 1.27 1.3 1.4 1.46 1.44 1.63 1.72
2864.532 1.75 1.68 1.58 1.73 1.79 1.88 2.14 2.18 2.16 2.22
2883.822 2.26 2.48 2.54 2.5 2.78 2.87 3.01 3.37 3.59 3.75
2903.112 3.75 3.75 3.97 3.93 3.85 3.89 3.64 3.44 3.39 3.06
2922.401 2.8 2.67 2.51 2.54 2.49 2.36 2.26 2.16 1.9 1.67
2941.691 1.6 1.48 1.53 1.76 1.68 1.45 1.24 1.07 1.23 1.27
2960.981 1.09 0.85 0.67 0.88 1.15 1.02 0.95 1.13 1.11 1.03
2980.271 1.02 0.81 0.77 1.08 1.18 1.21 1.22 1.07 1.18 1.28
2999.561 1.14 1.2 1.3 1.52 1.59 1.46 1.47 1.45 1.46 1.55
3018.850 1.48 1.3 1.42 1.57 1.66 1.63 1.65 1.88 1.96 1.99
3038.140 1.97 1.91 1.81 1.79 1.88 1.68 1.46 1.45 1.55 1.68
3057.430 1.7 1.71 1.79 1.99 2 1.97 2.34 2.84 3.21 3.62
3076.720 4.27 4.97 5.81 6.59 7.03 7.04 6.98 6.75 6.34 5.94
3096.009 5.11 4.46 4.18 3.81 3.28 2.97 2.86 2.44 2.18 2.02
3115.299 1.69 1.63 1.62 1.45 1.23 1.17 1.07 0.83 0.91 1.08
3134.589 1.01 0.97 0.87 1.01 1.28 1.13 0.99 1.04 1.17 1.34
3153.879 1.21 1.22 1.27 1.22 1.37 1.21 1.01 0.99 0.93 0.96
3173.169 1.04 0.82 0.78 0.94 0.87 0.88 0.83 0.75 0.63 0.65
3192.458 0.81 0.52 0.51 0.64 0.51 0.48 0.34 0.22 0.41 0.67
3211.748 0.74 0.73 0.6 0.61 0.52 0.41 0.52 0.58 0.49 0.47
3231.038 0.39 0.35 0.53 0.3 0.24 0.53 0.64 0.66 0.82 0.73
3250.328 0.4 0.48 0.62 0.42 0.33 0.41 0.38 0.45 0.55 0.68
3269.617 0.77 0.7 0.58 0.44 0.54 0.57 0.54 0.71 0.56 0.47
3288.907 0.46 0.24 0.4 0.6 0.42 0.46 0.63 0.51 0.48 0.63
3308.197 0.73 0.53 0.45 0.53 0.4 0.43 0.52 0.5 0.54 0.53
3327.487 0.57 0.61 0.61 0.3 0.29 0.43 0.32 0.34 0.47 0.65
3346.777 0.54 0.23 0.3 0.4 0.19 0.36 0.54 0.65 0.85 0.84
3366.066 0.54 0.54 0.6 0.63 0.73 0.61 0.54 0.39 0.57 0.67
3385.356 0.31 0.45 0.68 0.58 0.54 0.52 0.52 0.56 0.65 0.6
3404.646 0.65 0.62 0.35 0.31 0.38 0.44 0.48 0.54 0.57 0.51
3423.936 0.69 0.62 0.49 0.45 0.21 0.27 0.27 0.33 0.71 0.73
3443.225 0.49 0.46 0.43 0.4 0.44 0.44 0.25 0.48 0.72 0.42
3462.515 0.33 0.35 0.46 0.37 0.36 0.53 0.46 0.38 0.45 0.33
3481.805 0.36 0.68 0.74 0.63 0.48 0.33 0.31 0.42 0.28 0.34
3501.095 0.57 0.59 0.57 0.51 0.43 0.33 0.35 0.52 0.65 0.83
3520.385 0.67 0.57 0.67 0.79 0.77 0.6 0.67 0.64 0.53 0.59
3539.674 0.55 0.39 0.44 0.6 0.69 0.6 0.63 0.41 0 0.26
3558.964 0.42 0.45 0.58 0.57 0.68 0.67 0.65 0.58 0.44 0.4
3578.254 0.43 0.59 0.74 0.75 0.62 0.46 0.5 0.77 0.73 0.53
3597.544 0.43 0.54 0.7 0.52 0.43 0.48 0.47 0.44 0.33 0.26
3616.833 0.56 0.64 0.57 0.61 0.64 0.7 0.79 0.82 0.82 0.82
3636.123 0.62 0.61 0.68 0.37 0.36 0.45 0.21 0.28 0.56 0.93
3655.413 0.97 0.79 0.86 0.95 0.83 0.58 0.4 0.44 0.52 0.52
3674.703 0.89 0.97 0.83 0.73 0.67 0.91 0.88 0.7 0.74 0.71
3693.993 0.73 1.13 1.18 1.07 1 0.84 0.79 0.84 0.6 0.43
3713.282 0.54 0.64 0.62 0.63 0.81 0.82 0.71 0.81 0.9 0.89
3732.572 0.9 1.01 0.72 0.45 0.69 0.79 0.81 0.67 0.47 0.52
3751.862 0.66 0.67 0.68 0.76 0.85 0.69 0.61 0.67 0.81 0.66
3771.152 0.58 0.75 0.64 0.89 0.98 0.68 0.55 0.52 0.58 0.76
3790.441 0.71 0.68 0.76 0.83 0.71 0.73 0.93 0.8 0.87 0.64
3809.731 0.49 0.71 0.76 0.64 0.76 1.04 1 0.82 0.69 0.64
3829.021 0.37 0.26 0.27 0.48 0.58 0.49 0.61 0.57 0.43 0.2
3848.311 0.31 0.84 1.1 0.72 0.58 0.66 0.64 0.74 0.79 0.91
3867.601 0.84 0.75 0.99 1.2 1.02 0.94 0.75 0.78 0.97 0.7
3886.890 0.4 0.39 0.63 0.78 0.78 0.72 0.57 0.56 0.75 0.28
3906.180 0.04 0.29 0.26 0.34 0.33 0.47 0.56 0.61 0.56 0.48
3925.470 0.61 0.83 0.85 0.38 0.36 0.57 0.54 0.62 0.9 0.94
3944.760 1.07 1.11 0.78 0.95 0.96 0.48 0.22 0.37 0.57 0.76
3964.049 0.82 0.93 1.08 1.07 0.95 0.68 0.62 0.89 0.85 0.66
3983.339 0.75 0.67 0.61 0.42 0.45 0.68 0.65 0.66 0.91 0.91
##END=
