##TITLE=3-Benzylidine-2,4-pentanedione
##JCAMP-DX=4.24
##DATA TYPE=INFRARED SPECTRUM
##ORIGIN=NIST Mass Spectrometry Data Center
##OWNER=NIST Standard Reference Data Program
Collection (C) 2018 copyright by the U.S. Secretary of Commerce
on behalf of the United States of America. All rights reserved.
##CAS REGISTRY NO=4335-90-4
##MOLFORM=C 12 H 12 O 2
##$NIST SOURCE=MSDC-IR
##SPECTROMETER/DATA SYSTEM=HP-GC/MS/IRD
##STATE=gas
##XUNITS=1/CM
##YUNITS=ABSORBANCE
##XFACTOR=1.0
##YFACTOR=0.000018600
##DELTAX=4.0
##FIRSTX=550.0
##LASTX=3846.0
##FIRSTY=0.010955
##MAXX=3846
##MINX=550
##MAXY=0.186
##MINY=0
##NPOINTS=825
##XYDATA=(X++(Y..Y))
550.0 589 939 578 417 270 208 182 185 225 287
590.0 353 389 377 319 246 207 219 297 435 553
630.0 587 521 396 293 251 264 324 421 547 689
670.0 835 981 1164 1427 1782 2178 2436 2426 2172 1745
710.0 1281 908 651 494 426 424 471 575 751 1012
750.0 1333 1609 1665 1425 1031 646 364 201 113 67
790.0 39 23 13 8 3 8 19 25 33 35
830.0 30 25 28 29 33 45 65 94 138 203
870.0 282 363 437 490 512 507 479 431 386 366
910.0 377 420 490 569 646 708 759 792 796 774
950.0 755 775 857 988 1118 1173 1127 1002 861 750
990.0 679 649 653 660 647 614 593 613 678 739
1030.0 737 678 591 523 490 465 453 460 486 521
1070.0 546 544 515 466 417 382 369 372 378 381
1110.0 380 378 394 427 479 553 664 827 1074 1459
1150.0 2052 2886 3885 4760 5149 4911 4250 3636 3439 3697
1190.0 4156 4464 4460 4210 3950 3887 4073 4535 5234 5924
1230.0 6303 6212 5622 4656 3514 2429 1641 1205 990 883
1270.0 823 782 756 743 748 776 827 901 991 1081
1310.0 1152 1183 1172 1149 1147 1204 1332 1550 1878 2333
1350.0 2914 3574 4179 4532 4519 4180 3663 3164 2739 2343
1390.0 1961 1613 1333 1153 1058 1029 1047 1088 1134 1167
1430.0 1178 1176 1180 1192 1172 1086 938 760 626 546
1470.0 514 523 578 706 917 1125 1184 1060 826 618
1510.0 516 482 464 453 448 449 455 465 479 501
1550.0 532 579 650 756 891 1038 1154 1233 1318 1488
1590.0 1781 2138 2477 2760 2943 2980 2800 2406 1937 1521
1630.0 1238 1105 1070 1096 1161 1256 1396 1593 1894 2367
1670.0 3133 4336 5931 7427 8391 8603 8463 8679 9395 10000
1710.0 9957 9192 8002 6856 5777 4610 3461 2517 1873 1465
1750.0 1207 1023 891 789 706 639 577 524 481 443
1790.0 415 395 379 353 318 280 241 211 189 175
1830.0 167 163 162 163 166 169 170 171 170 167
1870.0 166 166 165 164 164 162 159 153 146 134
1910.0 123 115 107 102 103 109 118 131 149 164
1950.0 173 174 166 150 125 94 65 45 35 30
1990.0 28 25 22 21 20 20 20 21 20 20
2030.0 21 23 24 25 26 27 26 25 23 23
2070.0 20 17 14 12 9 8 7 7 6 5
2110.0 5 6 5 5 4 4 5 4 4 3
2150.0 3 4 3 2 3 5 4 5 6 6
2190.0 5 6 5 6 7 7 9 10 10 14
2230.0 17 18 19 21 21 20 18 17 15 13
2270.0 12 11 10 11 12 12 13 15 17 21
2310.0 28 37 41 40 33 27 26 26 28 30
2350.0 29 26 23 19 17 15 14 15 14 13
2390.0 12 11 9 7 6 4 3 4 4 3
2430.0 2 1 1 0 0 2 2 3 4 4
2470.0 3 4 3 2 2 4 7 8 11 15
2510.0 18 19 20 20 18 16 14 13 11 9
2550.0 8 9 6 7 9 9 9 8 10 13
2590.0 14 15 15 12 9 8 7 7 5 4
2630.0 4 5 5 4 5 5 4 6 7 9
2670.0 11 12 12 13 12 13 13 12 11 7
2710.0 4 4 3 4 5 5 7 8 7 9
2750.0 13 18 22 27 30 32 35 36 36 33
2790.0 33 35 37 38 39 42 48 52 56 62
2830.0 67 72 77 81 82 82 84 86 89 92
2870.0 95 97 102 113 123 132 141 147 157 171
2910.0 188 219 259 304 345 373 380 368 342 316
2950.0 300 295 304 324 354 385 415 436 445 446
2990.0 459 493 549 634 742 857 957 1039 1125 1224
3030.0 1306 1313 1224 1069 929 881 949 1144 1456 1798
3070.0 1981 1914 1649 1346 1150 1028 912 785 661 549
3110.0 447 358 282 222 182 155 137 127 124 119
3150.0 110 97 80 66 56 50 43 41 42 40
3190.0 37 36 34 31 31 33 31 28 27 28
3230.0 26 24 20 18 19 18 16 17 19 18
3270.0 17 17 21 23 23 23 23 26 31 34
3310.0 36 41 45 48 59 69 78 91 107 119
3350.0 122 119 116 110 105 107 114 121 133 147
3390.0 161 172 178 174 163 146 130 120 114 106
3430.0 98 89 84 72 57 45 38 35 31 26
3470.0 23 20 18 18 16 15 13 11 9 10
3510.0 8 5 5 7 5 4 7 5 3 3
3550.0 5 5 6 5 4 4 5 6 4 5
3590.0 5 5 5 5 6 6 6 6 9 10
3630.0 10 11 14 18 20 18 16 13 13 13
3670.0 13 12 9 10 12 12 15 17 16 16
3710.0 14 12 11 12 14 14 11 10 8 6
3750.0 1 4 5 5 5 2 4 4 3 4
3790.0 4 4 7 9 7 7 9 11 13 12
3830.0 9 11 12 12 14
##END=
