##TITLE=3-Methyl-1-hexyn-3-ol
##JCAMP-DX=4.24
##DATA TYPE=INFRARED SPECTRUM
##ORIGIN=NIST Mass Spectrometry Data Center
##OWNER=NIST Standard Reference Data Program
Collection (C) 2018 copyright by the U.S. Secretary of Commerce
on behalf of the United States of America. All rights reserved.
##CAS REGISTRY NO=4339-05-3
##MOLFORM=C 7 H 12 O
##$NIST SOURCE=MSDC-IR
##SPECTROMETER/DATA SYSTEM=HP-GC/MS/IRD
##STATE=gas
##XUNITS=1/CM
##YUNITS=ABSORBANCE
##XFACTOR=1.0
##YFACTOR=0.000001200
##DELTAX=4.0
##FIRSTX=550.0
##LASTX=3846.0
##FIRSTY=0.001439
##MAXX=3846
##MINX=550
##MAXY=0.012
##MINY=0
##NPOINTS=825
##XYDATA=(X++(Y..Y))
550.0 1199 1270 1257 1232 1079 966 897 779 627 625
590.0 672 772 791 810 938 1091 1568 2582 3730 5104
630.0 6634 7708 8528 8148 7017 6522 6464 5425 3889 2892
670.0 2050 1300 734 396 210 124 137 159 179 204
710.0 218 223 191 174 190 181 204 297 281 209
750.0 201 220 199 151 107 104 122 137 162 155
790.0 122 104 94 67 28 19 59 32 1 38
830.0 44 76 121 188 253 341 476 558 596 613
870.0 616 673 729 758 844 925 996 1084 1209 1358
910.0 1532 1725 1925 2136 2331 2418 2370 2258 2121 1943
950.0 1685 1394 1132 892 695 538 443 391 393 468
990.0 559 684 907 1195 1488 1798 2070 2203 2229 2205
1030.0 2158 2033 1910 1839 1799 1715 1601 1509 1425 1387
1070.0 1362 1324 1312 1353 1387 1419 1501 1644 1827 2029
1110.0 2278 2601 3000 3420 3779 4142 4416 4515 4517 4435
1150.0 4371 4320 4230 4065 3819 3546 3263 2988 2697 2436
1190.0 2215 2024 1896 1767 1670 1604 1542 1545 1590 1630
1230.0 1709 1868 2153 2580 3082 3563 3860 3903 3849 3717
1270.0 3451 3151 2929 2814 2732 2660 2609 2655 2734 2793
1310.0 2868 2979 3062 3083 3089 3054 2996 2933 2853 2754
1350.0 2652 2600 2567 2577 2619 2641 2612 2513 2296 2028
1390.0 1722 1376 1085 884 761 681 633 624 660 726
1430.0 824 968 1117 1258 1410 1536 1612 1628 1582 1491
1470.0 1366 1190 971 775 630 489 369 287 220 189
1510.0 180 184 175 137 118 102 86 95 92 79
1550.0 59 60 61 45 61 64 54 46 13 9
1590.0 25 29 25 18 19 31 44 56 48 36
1630.0 54 35 8 14 9 32 53 32 10 12
1670.0 22 38 36 24 30 22 26 41 52 45
1710.0 31 47 47 30 35 35 29 33 32 30
1750.0 21 23 34 30 6 0 26 32 23 32
1790.0 50 59 60 42 33 32 22 22 35 49
1830.0 42 33 40 31 23 28 29 33 38 41
1870.0 39 34 34 33 41 38 4 4 7 5
1910.0 21 24 23 30 35 38 34 34 43 33
1950.0 29 44 45 40 37 34 27 16 19 20
1990.0 6 8 9 7 13 25 21 11 22 21
2030.0 14 23 25 27 27 33 59 66 68 55
2070.0 36 45 47 44 43 36 41 46 43 58
2110.0 63 60 53 32 34 47 36 18 24 32
2150.0 21 13 17 23 17 5 14 24 35 35
2190.0 33 32 5 16 53 57 27 18 26 28
2230.0 35 38 37 30 39 55 53 43 41 48
2270.0 50 39 34 29 33 54 67 68 53 54
2310.0 47 29 39 36 35 40 40 43 40 44
2350.0 52 59 42 41 53 52 35 35 56 70
2390.0 68 70 78 62 56 71 82 60 53 66
2430.0 68 66 61 75 69 45 49 50 38 25
2470.0 31 46 53 50 46 48 41 46 56 60
2510.0 65 56 69 80 76 79 77 53 45 45
2550.0 39 37 41 50 67 71 59 68 90 97
2590.0 99 91 82 90 104 104 91 92 109 112
2630.0 105 109 113 108 123 123 101 97 98 125
2670.0 160 157 154 150 148 166 167 164 170 153
2710.0 147 175 190 204 208 197 230 286 278 236
2750.0 228 253 262 231 223 235 225 224 237 239
2790.0 255 284 297 309 358 413 451 497 545 584
2830.0 649 747 844 950 1097 1218 1345 1526 1772 2116
2870.0 2566 3101 3569 3854 3982 3957 3839 3652 3520 3555
2910.0 3790 4159 4621 5156 5790 6506 7170 7718 8141 8325
2950.0 8400 8531 8782 9211 9689 10000 9899 9434 8769 7944
2990.0 7055 6045 4944 3858 2864 2070 1518 1185 974 838
3030.0 760 688 633 585 533 483 438 420 424 396
3070.0 353 321 297 294 279 252 263 280 269 255
3110.0 247 230 202 159 165 202 194 187 184 190
3150.0 196 171 153 154 167 158 154 159 159 172
3190.0 168 150 138 128 106 92 118 113 123 121
3230.0 111 137 154 146 153 171 179 198 234 279
3270.0 365 495 628 766 957 1241 1561 1871 2222 2695
3310.0 3428 4219 4760 4854 4795 4612 3928 2836 1732 992
3350.0 585 438 369 271 233 197 122 94 104 118
3390.0 123 95 127 140 93 78 47 41 58 58
3430.0 59 35 41 65 81 71 51 75 83 84
3470.0 109 79 38 60 80 84 96 121 121 86
3510.0 57 69 69 43 53 70 70 77 65 60
3550.0 68 57 47 45 52 53 17 1 14 20
3590.0 20 36 67 92 123 156 246 373 597 963
3630.0 1339 1651 1970 2148 2005 1640 1274 920 595 378
3670.0 265 186 108 81 79 80 60 42 21 1
3710.0 8 31 32 60 51 4 17 44 42 57
3750.0 64 33 32 34 47 76 54 32 39 64
3790.0 78 36 33 70 79 88 72 46 16 4
3830.0 59 65 23 6 23
##END=
