##TITLE=2-Amino-6-fluorobenzoic acid
##JCAMP-DX=4.24
##DATA TYPE=INFRARED SPECTRUM
##ORIGIN=EPA-IR VAPOR PHASE LIBRARY
##OWNER=SRD/NIST
Collection (C) 2018 copyright by the U.S. Secretary of Commerce
on behalf of the United States of America. All rights reserved.
##CAS REGISTRY NO=434-76-4
##MOLFORM=C 7 H 6 F N O 2
##$NIST SOURCE=MSDC-IR
##STATE=gas
##XUNITS=1/CM
##YUNITS=ABSORBANCE
##XFACTOR=1.
##YFACTOR=0.001
##DELTAX=1.92898
##FIRSTX=549.8
##LASTX=4000.7
##FIRSTY=14.29
##MAXX=4000.7
##MINX=549.759
##MAXY=0.05275
##MINY=0
##NPOINTS=1790
##XYDATA=(X++(Y..Y))
549.759 14.29 14.54 14.47 14.8 14.59 15.33 16.66 16.56 16.99 17.07
569.049 16.66 17.63 18.18 17.89 18.4 19.12 18.68 18.36 17.81 16.9
588.339 16.7 16.16 14.76 13.33 12.54 11.56 10.88 10.39 9.52 8.92
607.628 8.47 8.23 8.04 7.95 7.81 7.46 7.16 6.84 6.25 6.55
626.918 6.93 6.65 6.49 6.06 6.25 6.31 5.78 5.34 5.73 6.16
646.208 5.58 5.77 6.34 6.59 6.77 6.46 6.28 6.4 6.69 6.85
665.498 6.95 7.48 7.48 7.47 7.7 7.81 8.33 8.7 9.15 9.77
684.787 10.48 11.51 13.15 14.97 16.23 17.08 18.94 21.54 23.63 23.57
704.077 21.49 19.14 17.68 17.04 15.52 13.32 11.55 10.05 8.59 8.09
723.367 7.6 7.39 7.31 6.82 6.84 6.46 5.98 5.88 5.87 5.86
742.657 5.97 6.05 6.26 7.12 7.58 7.45 7.53 7.91 8.52 9.03
761.947 9.53 9.57 8.87 8.51 7.77 7.32 7.46 7.27 7.28 6.53
781.236 6.22 7.06 7.46 7.84 8.72 9.68 10.47 11.3 12.67 13.61
800.526 14.13 15.27 16.05 15.88 15.99 15.83 14.17 11.93 11.07 10.28
819.816 10.1 10.58 10.17 8.6 6.05 5.29 5.16 4.91 5.16 4.86
839.106 4.59 4.72 4.36 4.07 4.35 4.65 4.83 4.78 4.71 4.59
858.395 4.8 5.34 4.96 4.77 5.23 4.94 4.63 4.6 4.22 4.75
877.685 5.18 4.18 3.79 4.15 4.17 4.11 4.1 4.06 3.82 3.76
896.975 3.96 4.4 4.3 3.7 3.81 3.84 4.22 4.35 4.25 4.29
916.265 4.18 4.65 4.9 4.43 4.21 4.28 4.15 4.03 3.93 4.17
935.555 3.88 3.55 4.04 4.06 3.79 4.14 4.12 3.64 3.58 3.69
954.844 4.07 4.12 4.19 4.09 3.99 4.39 4.6 4.86 5.11 4.97
974.134 4.99 5.44 5.43 5.45 5.84 6.09 6.65 7.45 7.49 8.65
993.424 9.82 9.64 10.23 10.45 10.7 10.54 9.75 9.53 9.45 9.38
1012.714 8.63 7.83 7.74 7.59 6.86 6.48 6.76 7.45 7.4 7.36
1032.003 8.05 9.54 10.17 9.63 10.1 10.19 10.43 11.25 11.76 11.47
1051.293 11.4 11.56 11.55 11.86 12.42 11.92 11.37 11.71 11.55 12.03
1070.583 12.15 12.96 13.97 14.31 15.54 17.62 20.88 22 23.41 25.71
1089.873 27.44 28.23 26.79 26.47 26.08 24.06 22.25 20.33 17.51 16.41
1109.163 14.78 12.31 10.64 9.94 9.77 11.83 14.27 13.9 14.83 15.46
1128.452 15.46 16.24 16.82 16.78 15.37 15.02 15.98 15.04 13.03 12.92
1147.742 12.81 11.87 12.61 12.51 11.69 12.76 13.32 12.46 13.17 15.04
1167.032 15.56 15.63 17.12 18.66 19.62 21.73 24.24 26.13 26.98 27.27
1186.322 26.34 24.66 24.6 24.29 22.54 20.43 18.4 16.95 14.71 12.18
1205.611 10.34 8.12 8.35 8.63 6.62 6.98 7.02 6.86 7.06 7.29
1224.901 7.76 7.44 6.44 5.99 6.7 6.71 7.59 8.48 7.61 7.18
1244.191 7.95 8.8 9.87 11.24 12.52 12.6 13.05 14.37 15.52 15.7
1263.481 16.19 17.18 17.94 18.94 18.67 18.24 18.24 18.01 17.71 17.39
1282.771 17.35 16.79 15.96 15.09 14.29 13.94 13.25 12.68 12.35 11.88
1302.060 11.46 11.11 10.84 10.65 10.64 11.11 11.91 12.85 13.82 14.98
1321.350 16.64 18.45 20.34 22.49 24.42 26.48 28.63 30.23 31.48 32.19
1340.640 32.48 32.31 31.72 30.99 30.11 28.95 27.42 25.99 24.75 23.8
1359.930 23 22.18 21.61 21.05 20.52 19.83 18.72 17.69 16.77 15.63
1379.219 14.4 13.63 12.86 12.16 11.51 10.88 10.44 10.01 9.71 9.35
1398.509 8.76 8.18 7.6 7.12 6.6 5.93 5.5 5.13 4.71 4.32
1417.799 4.15 4.09 3.98 3.93 3.85 3.86 4.06 4.13 4.07 4.05
1437.089 4.28 4.56 4.9 5.65 6.34 7.01 8.38 10.17 12.11 14.67
1456.378 17.83 21.2 24.69 28.23 31.77 34.89 36.69 37.31 37.02 35.57
1475.668 32.4 28.21 23.75 19.31 15.57 12.63 10.28 8.44 7.1 6.21
1494.958 5.68 5.32 5.15 4.99 4.88 4.81 4.85 4.97 4.72 4.68
1514.248 4.81 5.09 5.48 5.32 5.23 5.39 5.54 5.82 6.06 6.19
1533.538 6.56 7.03 7.23 7.44 8 8.8 9.61 10.21 10.87 11.79
1552.827 12.44 13.21 14.04 14.53 15.07 15.83 16.35 16.57 16.84 17.5
1572.117 18.18 18.71 19.83 21.18 22.41 24.29 26.63 29.05 31.73 34.66
1591.407 37.21 39.31 41.58 43.58 44.61 45.02 44.82 44.84 44.74 44.5
1610.697 44.54 44.86 45.79 47.27 48.93 50.01 50.65 50.4 49.26 47.85
1629.986 45.64 42.52 38.73 33.83 28.94 24.49 20.51 17.13 14.23 12.47
1649.276 11.1 9.68 8.8 8.19 7.38 6.9 6.65 6.15 6.09 5.98
1668.566 5.69 5.85 6.07 6.18 6.34 6.48 6.73 7.26 7.61 7.88
1687.856 8.3 8.86 9.35 9.84 10.63 11.77 13.41 15.58 17.99 21.22
1707.146 25.25 29.59 34.06 38.49 42.57 46.28 49.39 51.63 52.75 52.65
1726.435 51.87 50.42 47.98 45.11 41.73 38.86 36.29 33.79 32.16 30.83
1745.725 29.61 28.6 27.43 25.96 24.5 23.15 21.85 20.45 19.22 18.25
1765.015 17.33 16.31 15.34 14.49 13.76 13.28 12.47 11.39 10.25 9.04
1784.305 7.93 7.09 6.61 6.03 5.55 5.26 4.94 4.84 4.83 4.67
1803.594 4.58 4.51 4.28 4.11 3.88 3.67 3.5 3.32 3.1 2.83
1822.884 2.75 2.68 2.65 2.65 2.6 2.74 2.5 2.1109 2.1324 2.37
1842.174 2.46 2.41 2.34 2.27 2.29 2.27 2.21 2.1304 2.25 2.32
1861.464 2.27 2.38 2.43 2.33 2.22 2.18 2.34 2.33 2.0395 2.0951
1880.754 2.29 2.19 2.33 2.45 2.4 2.4 2.34 2.38 2.25 2.17
1900.043 2.26 2.166 2.23 2.36 2.44 2.65 2.63 2.64 2.59 2.47
1919.333 2.52 2.61 2.49 2.38 2.32 2.0539 2.0637 2.1455 2.1072 2.1626
1938.623 2.0829 2.028 1.9947 1.9076 1.8761 1.7954 2.0023 2.0511 1.7671 1.6933
1957.913 1.8324 1.9901 2.0896 2.26 2.24 2.0924 1.9023 1.7618 1.7648 1.8154
1977.202 1.8285 1.953 1.9915 2.0121 2.109 1.8961 1.8914 1.9274 1.836 1.9199
1996.492 2.0469 2.1134 1.972 1.986 2.0066 1.8214 1.8098 1.8964 1.8654 1.656
2015.782 1.5731 1.7418 1.7441 1.6868 1.7795 1.7971 1.6356 1.583 1.621 1.628
2035.072 1.5666 1.5213 1.7084 1.8234 1.8867 1.9676 1.8924 1.9147 1.9481 1.9006
2054.362 2.0171 1.9542 1.778 1.6276 1.7225 1.9127 1.8044 1.6407 1.4377 1.4106
2073.651 1.5123 1.6108 1.7322 1.8088 1.7665 1.6798 1.7822 1.8201 1.7233 1.6705
2092.941 1.6838 1.6856 1.717 1.7029 1.642 1.7585 1.872 1.7904 1.8118 1.8636
2112.231 1.8185 1.805 1.9379 1.7504 1.6094 1.7976 1.6927 1.6635 1.6971 1.7982
2131.521 1.8786 1.8246 1.7911 1.7668 1.8251 1.7395 1.5577 1.6759 1.8249 1.8404
2150.810 1.8527 1.8996 1.7017 1.6684 1.9564 2.053 1.9824 1.8665 1.9728 1.9192
2170.100 1.7898 1.9035 1.8524 1.848 2.1178 2.18 2.1197 1.9513 1.7636 1.8432
2189.390 1.7908 1.6284 1.6038 1.7569 1.761 1.591 1.591 1.7444 1.8773 1.8451
2208.680 1.6448 1.4933 1.56 1.7665 1.9412 1.9344 1.7996 1.7941 1.7663 1.765
2227.970 1.9314 1.8113 1.5699 1.4169 1.6056 1.7334 1.5091 1.4945 1.5991 1.6686
2247.259 1.6447 1.6721 1.8116 1.981 1.7719 1.4491 1.5624 1.7181 1.7478 1.7833
2266.549 1.685 1.6045 1.6474 1.6823 1.6728 1.6778 1.9439 1.9214 1.6737 1.9458
2285.839 2.22 1.9777 1.8136 1.8496 1.7608 1.9682 2.35 2.28 2.1531 2.091
2305.129 2.1551 2.1085 2.0666 2.1206 1.913 1.9221 2.0838 2.1672 2.072 2.0685
2324.418 2.0325 2.0681 2.1751 2.23 2.22 2.0698 1.9504 1.8385 1.8727 2.0269
2343.708 2.054 1.8544 1.6112 1.8602 2.19 2.31 2.32 2.22 2.29 2.34
2362.998 2.1759 2.1665 2.0667 1.9165 2.0559 2.2 2.21 1.9453 1.8586 2.0012
2382.288 2.1761 2.0707 1.8627 1.8907 1.9788 2.0303 2.069 1.9509 1.8611 1.9047
2401.578 1.8591 1.9041 1.7733 1.6001 1.7977 1.7539 1.7369 1.8147 1.8738 2.0689
2420.867 1.9465 1.6016 1.4917 1.6563 1.6467 1.7008 1.8299 1.7052 1.5646 1.6226
2440.157 1.697 1.8227 1.9292 1.7849 1.7996 1.7113 1.7882 1.815 1.6104 1.633
2459.447 1.4552 1.4305 1.5788 1.4499 1.3506 1.3284 1.3971 1.6716 1.5687 1.6014
2478.737 1.6062 1.3637 1.389 1.4308 1.5007 1.6045 1.6968 1.7484 1.9075 1.5685
2498.026 1.2922 1.5171 1.4659 1.4517 1.6315 1.6206 1.4987 1.7649 1.7803 1.5124
2517.316 1.5192 1.5413 1.6199 1.7834 1.8171 1.5658 1.557 1.8196 1.629 1.24327
2536.606 1.26341 1.4265 1.4474 1.3993 1.3008 1.3663 1.3782 1.3697 1.4638 1.6109
2555.896 1.7644 1.6605 1.5688 1.4938 1.26008 1.21851 1.5074 1.3853 1.3781 1.8226
2575.186 1.7095 1.5536 1.5992 1.3676 1.4219 1.6503 1.6403 1.6419 1.521 1.5651
2594.475 1.6016 1.4911 1.6899 1.6972 1.5892 1.6457 1.5788 1.4447 1.4001 1.5912
2613.765 1.6326 1.5216 1.5405 1.4864 1.4164 1.4336 1.723 2.1136 1.941 1.5481
2633.055 1.592 1.737 1.7675 1.7118 1.6919 1.6644 1.8199 1.7888 1.4331 1.5932
2652.345 1.7311 1.4021 1.2288 1.2644 1.27999 1.3148 1.071 1.022 1.23498 1.1202
2671.634 1.20648 1.21481 1.26658 1.3761 1.472 1.7288 1.7065 1.6301 1.5805 1.5605
2690.924 1.4949 1.4656 1.3483 1.4031 1.5604 1.4256 1.396 1.4517 1.5233 1.4495
2710.214 1.2833 1.3685 1.501 1.3916 1.4429 1.5508 1.7004 1.6575 1.4903 1.8981
2729.504 2.0873 1.8031 1.5237 1.387 1.27315 1.328 1.4356 1.2979 1.4841 1.8057
2748.794 1.648 1.6794 1.9032 1.8358 1.7428 1.7462 1.6578 1.9449 2.1706 2.0203
2768.083 1.8509 1.8573 1.8892 1.8123 1.9821 1.8218 1.8397 2.1043 1.8633 1.6602
2787.373 1.4997 1.0934 1.4106 1.7331 1.5948 1.642 1.359 1.1121 1.4978 1.945
2806.663 1.9761 1.6689 1.6082 1.6216 1.5774 1.7191 1.6942 1.9295 2.0852 1.8036
2825.953 1.3511 1.25373 1.4557 1.4917 1.3164 1.3156 1.3788 1.25192 1.042 1.1057
2845.242 1.5542 1.5915 1.4039 1.4629 1.7514 1.728 1.2953 1.3201 1.317 1.26216
2864.532 1.3018 1.19636 1.24905 1.4488 1.6624 1.8184 1.7537 1.7323 1.7059 1.6103
2883.822 1.603 1.3532 1.2175 1.6388 1.6986 1.5238 1.4949 1.5078 1.7267 1.7954
2903.112 1.6961 1.4919 1.6674 1.501 1.23107 1.3247 1.4367 1.6095 1.6671 1.7978
2922.401 1.4611 1.27439 1.4165 1.4533 1.5109 1.4996 1.4173 1.19801 1.1635 1.2874
2941.691 1.4366 1.5893 1.7908 1.6295 1.4502 1.2885 1.6632 1.7461 1.4194 1.5587
2960.981 1.7601 1.6213 1.5141 1.6134 1.5565 1.5773 1.677 1.6961 1.6936 1.7371
2980.271 1.6198 1.5427 1.59 1.2925 1.1002 1.3393 1.5078 1.6182 1.5427 1.7362
2999.561 1.8609 1.5878 1.4809 1.7905 2.34 2.1561 1.8612 2.22 2.1567 1.8222
3018.850 1.6975 1.986 2.26 2.22 2.43 2.37 2.35 2.7 2.9 3.19
3038.140 3.21 2.99 2.87 3.2 3.44 3.5 3.52 3.57 3.37 3.5
3057.430 3.77 3.8 3.79 3.32 3.71 4.02 4.19 4.02 3.83 3.89
3076.720 3.42 3.25 3.03 2.66 2.39 2.55 2.71 2.47 2.61 2.66
3096.009 2.67 2.64 2.34 2.3 2.45 2.21 1.7768 2.0185 1.983 1.6531
3115.299 1.6777 1.4235 1.5937 1.9191 1.7123 1.7623 1.9013 1.8264 1.7783 1.4895
3134.589 1.3317 1.6554 1.6941 1.4366 1.19873 1.4907 1.9473 1.8687 1.6068 1.5684
3153.879 1.4578 1.3763 1.5094 1.53 1.17995 0.858 1.144 1.3519 1.27552 1.19951
3173.169 1.6672 1.8612 1.5848 1.7472 1.9227 1.6824 1.3888 1.8271 1.9681 1.6127
3192.458 1.8382 1.936 1.6013 1.04 0.836 1.1295 1.4565 1.5186 1.6033 1.6725
3211.748 1.7087 1.9857 2.0257 1.5885 1.3279 1.3747 1.4454 1.18684 0.938 1.494
3231.038 1.8408 2.1464 2.41 1.8239 1.7194 1.8405 1.5685 1.5965 1.25168 1.043
3250.328 1.3886 1.397 1.3631 1.2915 1.3968 1.5883 1.7157 1.9787 1.4822 0.714
3269.617 0.793 1.4254 1.802 1.7946 1.7869 1.7783 1.8966 2.0078 1.5728 1.6071
3288.907 1.9609 1.8462 1.21449 1.2848 2.1199 1.9879 1.7848 2.25 2.48 2.52
3308.197 2.76 2.74 2.8 2.82 3.02 3.05 2.86 3.18 2.9 2.89
3327.487 3.32 3.36 3.16 3.36 3.53 3.23 3.52 3.74 3.55 3.59
3346.777 3.94 4.53 4.81 4.68 4.79 5.32 6.01 6.68 7.21 7.53
3366.066 7.94 8.05 7.93 8.73 9.72 10.33 10.68 10.95 11.62 12.06
3385.356 12.42 12.86 12.58 11.74 11.01 10.68 10.01 9.02 8.3 7.58
3404.646 7.09 6.52 5.85 4.93 4.27 3.92 3.27 3.22 3.57 3.33
3423.936 3.28 3.66 3.55 3.3 3.36 3.31 3.03 2.34 2.0409 2.33
3443.225 2.2 2.4 2.36 2.101 1.9604 2.35 2.87 2.39 2.36 2.22
3462.515 2.0079 2.5 2.88 2.72 2.74 3.31 3.51 3.14 2.97 3.23
3481.805 3.09 2.7 3.16 3.81 3.89 3.84 3.66 3.65 4.13 5.23
3501.095 5.98 6.29 6.87 7.76 8.69 9.26 9.69 9.96 10.37 11.32
3520.385 11.55 10.66 9.82 9.54 9.37 8.87 8.17 7.08 6.13 5.34
3539.674 4.63 4.39 4.18 3.66 3.67 3.51 3.37 4.43 5.94 7.45
3558.964 9 11.47 14.69 17.2 19.14 20.28 20.44 20.94 20.84 20.06
3578.254 19.05 17.34 15.15 12.93 11.06 9.9 9.39 9.62 9.71 9.39
3597.544 9.12 8.87 8.75 8.54 7.89 6.92 6.5 5.24 4.36 4.15
3616.833 3.31 2.64 2.5 2.71 2.25 1.7036 2.0189 1.7116 1.3332 1.7748
3636.123 1.7736 1.5743 1.7449 1.7857 1.3376 1.4663 1.5357 1.08 1.2099 1.7363
3655.413 1.5985 1.19682 0.875 0.889 0.94 0.946 1.25723 1.1394 0.987 1.073
3674.703 1.019 1.0836 1.5157 1.5434 1.3827 1.22158 0.93 0.777 1.043 1.20915
3693.993 0.739 1.1028 1.6441 1.9403 1.7375 1.043 1.4127 1.6673 1.1662 0.922
3713.282 1.1859 1.9215 1.8289 1.049 1.1233 1.0804 0.971 1.1026 0.804 0.738
3732.572 1.6275 1.8479 1.6085 1.074 0.81 1.1783 0.98 0.731 0.973 1.3583
3751.862 1.035 0.897 0.886 0.98 1.20392 0.758 0.778 1.19412 0.843 0.749
3771.152 1.0845 1.3854 1.7222 1.5605 1.1511 1.1173 1.4755 1.5292 1.091 0.993
3790.441 0.989 1.065 1.3434 1.6162 1.4414 1.042 1.1285 1.31 1.003 0.952
3809.731 1.4098 1.19604 0.724 0.536 0.783 1.21363 0.978 0.664 1.058 1.8033
3829.021 1.6246 1.038 0.92 1.073 1.049 0.927 1.18627 1.4461 1.7581 1.6047
3848.311 1.314 1.076 0.317 0.12 0.553 0.64 0.989 0.588 0.426 0.977
3867.601 1.051 1.1519 1.4437 1.7811 1.3906 1.3066 1.3353 1.051 1.18073 1.1374
3886.890 1.1192 1.26646 1.4846 1.8099 1.6356 1.21431 1.26506 1.5876 1.3357 1.2105
3906.180 1.4135 1.5104 1.502 1.1026 1.19098 1.23756 1.20322 0.926 0.931 1.24826
3925.470 0.859 0.72 0.727 0.94 1.3571 1.5279 1.4238 1.2884 1.7475 2.22
3944.760 1.5733 0.765 1.033 1.287 0.974 1.038 1.3205 1.4423 1.5589 1.8631
3964.049 1.6171 1.17322 1.0888 1.22311 1.032 0.847 0.859 1.1214 1.1569 0.803
3983.339 1.1313 0.993 0.853 0.842 0.408 0 0.442 1.1465 1.2978 1.21819
##END=
