##TITLE=Ethyl 2-butynoate
##JCAMP-DX=4.24
##DATA TYPE=INFRARED SPECTRUM
##ORIGIN=NIST Mass Spectrometry Data Center
##OWNER=NIST Standard Reference Data Program
Collection (C) 2018 copyright by the U.S. Secretary of Commerce
on behalf of the United States of America. All rights reserved.
##CAS REGISTRY NO=4341-76-8
##MOLFORM=C 6 H 8 O 2
##$NIST SOURCE=MSDC-IR
##SPECTROMETER/DATA SYSTEM=HP-GC/MS/IRD
##STATE=gas
##XUNITS=1/CM
##YUNITS=ABSORBANCE
##XFACTOR=1.0
##YFACTOR=0.000008700
##DELTAX=4.0
##FIRSTX=550.0
##LASTX=3846.0
##FIRSTY=0.000174
##MAXX=3846
##MINX=550
##MAXY=0.087
##MINY=0
##NPOINTS=825
##XYDATA=(X++(Y..Y))
550.0 20 24 30 51 64 62 53 39 16 2
590.0 3 10 9 0 2 4 4 5 2 2
630.0 5 14 19 17 19 25 29 30 29 26
670.0 24 29 35 28 24 25 25 26 25 21
710.0 19 24 31 43 59 88 122 163 208 246
750.0 300 333 320 303 290 261 225 190 162 143
790.0 126 113 108 104 105 109 114 124 132 139
830.0 148 155 153 142 136 126 115 110 106 98
870.0 87 77 70 59 48 39 36 36 37 40
910.0 45 48 47 45 40 40 39 38 36 33
950.0 31 37 45 46 50 57 67 77 84 95
990.0 110 123 134 144 154 163 168 170 176 188
1030.0 210 247 310 408 576 841 1213 1688 2211 2662
1070.0 2911 2892 2621 2157 1647 1269 1045 886 744 602
1110.0 455 331 258 220 198 186 182 179 186 198
1150.0 212 225 240 253 267 282 295 304 308 316
1190.0 339 376 427 506 624 793 1038 1376 1858 2560
1230.0 3567 4935 6606 8306 9566 10000 9498 8167 6197 4131
1270.0 2587 1686 1205 937 773 669 608 571 533 492
1310.0 452 414 375 335 308 289 263 241 232 228
1350.0 236 274 352 434 473 486 480 407 312 263
1390.0 242 231 234 239 231 226 237 233 210 200
1430.0 203 204 205 216 230 245 268 294 314 321
1470.0 318 309 288 253 219 198 184 169 153 142
1510.0 130 118 109 104 97 90 87 83 78 73
1550.0 71 74 74 69 68 67 69 65 58 53
1590.0 54 52 49 51 56 58 61 65 68 73
1630.0 79 84 90 95 101 106 109 109 112 118
1670.0 130 148 174 216 266 324 411 539 716 961
1710.0 1301 1743 2300 2930 3544 3938 3988 3955 3863 3378
1750.0 2637 1974 1436 990 662 442 297 213 163 130
1790.0 110 98 90 83 77 72 69 65 61 57
1830.0 52 47 43 41 39 36 33 30 29 29
1870.0 27 24 23 23 22 23 25 25 26 29
1910.0 31 33 37 44 49 50 52 51 45 40
1950.0 35 29 26 22 20 18 16 15 14 15
1990.0 15 14 15 14 16 17 19 21 25 27
2030.0 28 29 32 34 37 41 43 43 43 44
2070.0 46 46 45 43 42 42 44 45 41 39
2110.0 35 32 33 37 37 38 36 35 37 35
2150.0 34 34 35 39 41 45 53 64 79 99
2190.0 124 155 196 250 319 405 508 627 757 884
2230.0 993 1069 1099 1082 1027 937 831 728 632 537
2270.0 444 357 281 227 194 178 176 183 194 207
2310.0 217 220 216 203 181 154 124 96 73 54
2350.0 44 40 38 36 33 33 33 31 29 29
2390.0 26 24 22 21 20 20 22 19 18 22
2430.0 22 19 19 20 21 21 21 22 20 20
2470.0 21 21 22 21 20 19 18 18 16 14
2510.0 13 11 8 7 6 5 4 3 4 4
2550.0 3 6 6 5 5 3 5 6 1 0
2590.0 1 1 3 7 5 2 4 6 4 4
2630.0 3 2 2 1 2 3 4 6 3 0
2670.0 2 3 5 6 6 7 9 10 10 9
2710.0 10 13 16 14 16 21 24 26 27 27
2750.0 26 24 20 20 22 24 24 22 22 22
2790.0 24 25 24 30 31 32 34 36 37 40
2830.0 42 43 47 52 60 70 81 93 109 124
2870.0 138 152 164 176 179 184 190 193 198 213
2910.0 223 233 253 287 344 421 488 529 551 540
2950.0 489 441 414 400 420 464 540 644 725 763
2990.0 763 728 644 533 448 383 330 281 225 182
3030.0 150 127 108 97 94 83 73 63 56 55
3070.0 58 58 54 50 46 44 40 37 34 29
3110.0 28 26 24 22 21 16 14 14 15 15
3150.0 16 18 14 10 9 12 11 10 14 14
3190.0 13 12 11 9 5 5 10 9 4 7
3230.0 11 9 6 6 7 6 5 5 7 6
3270.0 3 4 7 4 5 8 8 6 4 5
3310.0 6 5 9 8 4 6 7 6 6 5
3350.0 8 10 5 1 1 3 3 6 10 9
3390.0 6 8 9 9 10 13 20 22 25 34
3430.0 37 42 49 53 55 58 58 57 52 45
3470.0 38 30 26 25 22 18 18 16 11 9
3510.0 9 13 14 13 10 6 4 5 6 7
3550.0 6 4 1 2 3 4 3 2 0 1
3590.0 4 4 2 4 7 6 5 7 5 5
3630.0 7 3 1 2 4 8 10 6 5 7
3670.0 8 7 6 6 8 10 8 7 7 6
3710.0 5 6 7 6 5 11 12 9 8 8
3750.0 11 7 5 8 6 8 9 10 6 3
3790.0 5 5 5 9 14 12 11 11 16 15
3830.0 9 10 12 14 12
##END=
