##TITLE=Indoxylbutyrate
##JCAMP-DX=4.24
##DATA TYPE=INFRARED SPECTRUM
##ORIGIN=EPA-IR VAPOR PHASE LIBRARY
##OWNER=SRD/NIST
Collection (C) 2018 copyright by the U.S. Secretary of Commerce
on behalf of the United States of America. All rights reserved.
##CAS REGISTRY NO=4346-15-0
##MOLFORM=C 12 H 13 N O 2
##$NIST SOURCE=MSDC-IR
##STATE=gas
##XUNITS=1/CM
##YUNITS=ABSORBANCE
##XFACTOR=1.
##YFACTOR=0.001
##DELTAX=1.92898
##FIRSTX=549.8
##LASTX=4000.7
##FIRSTY=2.448
##MAXX=4000.7
##MINX=549.759
##MAXY=0.054648
##MINY=0
##NPOINTS=1790
##XYDATA=(X++(Y..Y))
549.759 2.448 2.238 1.908 1.968 1.7038 2.528 2.998 2.088 1.898 3.108
569.049 3.608 3.308 3.058 2.448 2.478 2.318 2.228 2.138 1.3829 1.0697
588.339 1.1088 1.7496 2.158 2.078 1.978 1.3855 1.3653 1.2712 1.2742 1.4037
607.628 1.5733 1.245 0.89202 1.6507 1.5622 0.92195 1.005 1.4892 1.4706 1.5631
626.918 1.5414 1.2451 1.3602 1.2416 1.0345 1.1782 1.0318 1.3342 1.7011 1.0871
646.208 1.2632 1.7239 1.1848 0.93602 1.1049 1.7194 2.018 1.821 1.2915 1.0463
665.498 1.634 1.6918 1.7101 1.8487 1.6124 1.5422 1.6295 1.7848 2.438 2.518
684.787 2.398 2.828 3.078 2.758 2.848 3.088 2.888 2.988 3.018 3.578
704.077 3.968 3.708 3.578 3.988 4.908 5.278 5.628 7.548 9.868 11.538
723.367 15.298 19.468 23.298 27.908 32.138 36.118 38.448 36.678 32.608 28.848
742.657 25.328 21.668 17.618 14.928 13.048 11.268 9.998 9.898 9.548 8.788
761.947 9.038 8.868 7.938 7.608 7.498 7.538 7.618 7.658 7.798 7.858
781.236 8.068 8.318 8.418 8.208 8.428 8.928 8.708 8.208 8.178 8.108
800.526 7.588 7.148 6.968 6.888 7.018 7.028 6.978 6.928 6.848 6.678
819.816 6.608 6.058 5.688 5.768 4.768 3.928 3.768 3.618 3.058 2.768
839.106 3.388 3.508 3.398 3.768 3.898 3.488 2.498 1.978 2.278 2.958
858.395 3.348 3.518 3.628 3.378 3.258 3.258 3.768 3.988 4.108 4.028
877.685 4.478 5.248 5.728 5.908 6.238 6.238 5.808 5.458 5.128 5.138
896.975 5.068 5.078 4.948 4.798 4.928 5.548 6.148 6.818 7.228 6.608
916.265 6.188 6.088 5.258 4.698 4.798 4.838 4.368 3.398 2.958 2.638
935.555 2.358 2.778 2.998 2.578 2.238 2.208 2.098 2.108 1.958 1.7923
954.844 2.128 2.178 2.108 1.728 1.7299 2.368 2.038 1.3568 1.4842 1.878
974.134 2.038 1.8554 1.5826 1.5961 1.4749 1.6465 1.888 2.128 2.358 2.378
993.424 2.828 3.498 3.488 3.028 3.768 4.258 4.618 4.908 4.968 5.458
1012.714 5.158 5.188 4.828 4.448 4.798 4.228 3.828 4.268 4.818 5.028
1032.003 4.158 4.178 4.358 3.768 4.608 5.188 5.368 5.908 5.278 4.818
1051.293 5.918 6.548 7.788 8.628 7.938 8.378 9.208 9.458 10.078 10.778
1070.583 11.088 13.168 15.488 17.488 18.988 19.518 20.808 22.498 23.768 25.208
1089.873 25.988 25.848 25.748 25.288 24.138 22.368 21.198 21.018 20.458 19.128
1109.163 19.148 18.398 16.438 16.698 17.928 19.218 20.918 23.288 26.818 29.668
1128.452 31.828 32.208 31.758 33.058 34.908 35.288 36.038 37.868 39.478 41.958
1147.742 44.718 46.838 48.008 48.908 50.768 52.178 52.998 54.028 54.238 54.408
1167.032 54.648 54.578 53.208 51.718 49.548 46.168 44.398 43.938 42.708 40.438
1186.322 38.668 37.948 37.258 35.718 33.908 32.098 31.098 28.958 26.178 26.028
1205.611 26.188 26.328 29.358 32.968 36.308 41.088 45.348 47.468 47.648 46.658
1224.901 43.248 38.328 33.838 29.558 26.268 24.288 22.838 21.488 20.488 20.008
1244.191 19.958 19.288 18.508 17.658 16.248 15.748 15.198 14.308 12.948 11.248
1263.481 10.698 9.918 9.118 8.918 8.558 8.268 8.468 8.988 9.568 10.618
1282.771 12.258 14.818 16.988 18.438 19.458 19.358 19.008 17.758 16.098 14.338
1302.060 12.788 11.768 10.838 10.108 9.598 9.228 8.948 8.988 9.048 9.178
1321.350 9.408 9.828 10.578 11.208 11.958 12.868 13.808 15.298 17.238 19.368
1340.640 21.808 24.068 25.668 26.478 26.258 24.838 22.638 19.998 17.378 15.038
1359.930 12.878 11.068 10.018 9.578 9.008 8.488 8.128 7.748 7.338 6.848
1379.219 6.588 6.518 6.168 5.638 5.028 4.738 4.628 4.578 4.628 4.518
1398.509 4.418 4.398 4.518 4.618 4.608 4.688 4.908 5.088 5.188 5.208
1417.799 5.328 5.428 5.488 5.538 5.438 5.318 5.268 5.478 5.738 5.718
1437.089 5.698 6.108 6.598 7.238 8.268 9.518 10.998 12.398 13.608 14.358
1456.378 14.708 14.658 14.068 12.888 11.248 9.728 8.438 7.338 6.268 5.628
1475.668 5.468 5.278 5.048 4.808 4.718 4.708 4.798 5.028 5.118 5.098
1494.958 5.058 4.758 4.568 4.428 4.138 3.688 3.238 3.098 3.048 2.948
1514.248 2.828 3.108 3.338 3.328 3.228 3.178 3.268 3.568 3.858 3.878
1533.538 4.038 4.468 4.988 5.528 6.058 6.658 7.678 8.788 9.848 10.638
1552.827 11.228 11.818 12.238 12.348 11.778 11.008 10.318 9.438 8.308 7.438
1572.117 6.828 6.368 5.988 5.588 5.488 5.398 5.418 5.718 5.748 5.568
1591.407 5.538 5.328 4.758 3.878 3.308 3.328 3.048 2.908 3.388 3.568
1610.697 3.768 4.268 4.358 4.458 4.748 4.748 4.668 4.408 3.818 3.358
1629.986 3.098 2.858 2.508 2.118 2.208 2.378 2.418 2.438 2.358 2.248
1649.276 2.178 2.268 2.378 2.398 2.368 2.258 2.208 2.198 2.068 1.816
1668.566 1.7739 1.6732 1.6328 1.7706 1.6128 1.5641 1.5879 1.958 2.328 2.158
1687.856 1.8125 1.5733 1.8363 2.048 1.878 1.918 2.088 2.188 2.218 2.298
1707.146 2.588 2.818 2.868 3.088 3.578 3.768 3.588 3.558 3.818 4.318
1726.435 4.598 4.898 5.318 5.738 6.408 6.868 7.338 8.178 9.198 10.388
1745.725 11.738 13.208 15.048 17.398 19.968 22.688 25.688 28.938 31.888 34.308
1765.015 36.128 37.128 37.498 37.178 36.158 34.808 33.208 31.278 29.448 27.878
1784.305 26.218 24.588 22.978 21.208 19.398 17.738 16.098 14.338 12.448 10.858
1803.594 9.538 8.308 7.348 6.588 6.178 5.548 4.868 4.528 4.078 3.718
1822.884 3.458 3.138 2.948 2.788 2.848 2.838 2.698 2.618 2.538 2.528
1842.174 2.508 2.378 2.278 2.308 2.208 2.028 1.7398 1.6535 1.8524 1.908
1861.464 1.958 1.998 1.948 2.018 2.228 2.308 2.298 2.438 2.418 2.278
1880.754 2.228 2.348 2.208 2.028 1.898 1.7505 1.793 1.6054 1.4182 1.5191
1900.043 1.6308 1.5205 1.583 1.7476 1.6652 1.6166 1.7237 1.988 2.028 1.8066
1919.333 1.7223 1.5899 1.3785 1.32 1.4577 1.4142 1.2599 1.246 1.2103 1.2232
1938.623 1.3128 1.3685 1.3327 1.2537 1.3207 1.4371 1.2354 1.144 1.2898 1.1553
1957.913 1.1411 1.2026 1.285 1.4071 1.1316 1.2097 1.3885 1.304 1.279 1.3657
1977.202 1.277 1.1756 1.3082 1.1898 1.2768 1.3392 1.0303 0.86996 1.0336 1.1107
1996.492 1.0441 0.9994 1.0618 0.90149 0.95796 1.2354 1.0371 1.069 1.3803 1.4354
2015.782 1.3134 1.5063 1.4979 1.1607 1.0113 1.0239 1.1166 1.1161 1.2436 1.2699
2035.072 1.3148 1.3904 1.3123 1.2627 1.2909 1.2738 1.1348 1.1824 1.2053 1.2007
2054.362 1.21 1.2371 1.2372 1.1377 1.2295 1.3469 1.1446 1.0901 1.1566 1.1278
2073.651 1.0674 0.95769 1.0711 1.3329 1.3312 1.3901 1.2188 0.93538 1.2727 1.417
2092.941 1.2331 1.126 1.1354 1.3438 1.47 1.2423 1.1725 1.3052 1.3366 1.1266
2112.231 0.9817 1.1044 1.1713 1.2103 1.205 1.3048 1.2642 1.0553 1.0126 1.0885
2131.521 1.1424 0.9892 0.9901 1.0923 1.24 1.1756 1.0798 1.0797 0.88303 1.0179
2150.810 1.2617 1.166 1.05 1.0298 1.15 1.3169 1.1339 0.93301 1.0247 1.0702
2170.100 1.0758 1.2338 1.1801 0.9623 0.9872 0.86758 0.8186 1.042 1.1409 1.0801
2189.390 1.052 1.2153 1.2724 1.1495 1.1256 1.027 0.776 0.8393 0.94982 1.078
2208.680 1.158 1.0983 1.0094 0.8387 1.0037 1.1043 0.87475 0.87415 0.861146 0.8245
2227.970 1.0934 1.1701 1.013 1.2059 1.3541 1.338 1.3647 1.3456 1.4308 1.3693
2247.259 1.1538 0.9915 0.88389 1.023 1.1245 1.1466 1.2918 1.3573 1.4472 1.4157
2266.549 1.2167 1.1123 1.0045 1.0619 1.2965 1.3478 1.3027 1.2971 1.2814 1.4242
2285.839 1.3638 1.1669 1.1897 1.1293 1.1655 1.0656 0.87933 0.89691 0.94533 1.2355
2305.129 1.3091 1.0822 0.9825 1.0885 1.0778 0.863692 0.9614 1.2546 1.2832 1.177
2324.418 0.93695 0.7982 0.8764 1.0309 1.205 1.2217 1.2405 1.1756 1.2247 1.2484
2343.708 1.437 1.4697 0.9635 0.745 0.8929 0.84868 0.94232 1.131 1.2643 1.331
2362.998 1.1923 1.0808 1.0726 1.2387 1.2745 1.2544 1.2715 1.3783 1.4115 1.4907
2382.288 1.5161 1.1882 1.1715 1.0944 0.8245 0.9702 1.3054 1.2644 1.1266 1.1981
2401.578 1.0435 0.9812 0.7916 0.7633 1.1062 1.1704 1.0403 1.0215 1.005 0.8426
2420.867 0.753 0.728 1.032 1.2415 1.0612 0.85408 0.95265 1.2259 1.2503 1.0691
2440.157 0.94381 0.88657 1.1315 1.3299 1.1801 1.3418 1.4094 1.1498 1.1152 1.1973
2459.447 1.0515 1.0408 1.1874 1.1933 1.2232 1.0318 1.2381 1.4612 1.2241 1.2962
2478.737 1.3046 1.1597 0.87453 0.90572 0.9889 0.9597 1.1707 1.0622 1.1134 1.2391
2498.026 1.0841 1.3398 1.5329 1.2442 1.0617 1.0572 1.1748 1.3216 1.2428 1.0523
2517.316 1.0055 1.269 1.2381 1.0732 1.1088 0.731 0.666 1.0089 1.1847 1.1111
2536.606 0.94972 1.0149 0.88619 0.696 0.745 0.7771 0.9298 1.083 1.0139 1.0862
2555.896 1.265 1.3056 1.3206 1.2023 1.2008 1.5046 1.6391 1.5227 1.3622 1.2788
2575.186 1.0618 0.85556 0.8004 1.0408 1.2352 1.3231 1.26 1.1108 1.4138 1.6928
2594.475 1.5094 1.1308 0.92679 1.0222 1.2031 1.078 1.0367 1.3597 1.4991 1.2548
2613.765 1.3092 1.4164 1.1843 1.0209 1.2375 1.608 1.4881 1.167 1.0587 1.3532
2633.055 1.5893 1.5423 1.28 1.0669 1.3644 1.3892 1.3058 1.4495 1.1762 1.2549
2652.345 1.478 1.5177 1.5911 1.2532 0.9781 1.2814 1.489 1.5159 1.6381 1.4587
2671.634 1.3823 1.4479 1.4471 1.3845 1.4081 1.6092 1.5324 1.4318 1.5379 1.1456
2690.924 1.1505 1.2303 1.128 1.2078 1.3338 1.4015 1.4268 1.5582 1.3483 1.217
2710.214 1.2497 1.22 1.1189 1.0093 0.991 1.1252 1.2793 1.3066 1.484 1.5468
2729.504 1.3624 0.9671 0.754 0.94997 1.0487 1.072 1.0174 0.85382 0.9792 0.88491
2748.794 0.86715 1.1613 1.3017 1.6265 1.6509 1.4678 1.5158 1.4368 1.2613 1.1558
2768.083 1.3377 1.3787 1.1094 1.3148 1.4333 1.4132 1.6231 1.3745 1.1973 1.4741
2787.373 1.5378 1.6018 1.4689 1.3556 1.3455 1.3428 1.4609 1.5174 1.1894 1.3046
2806.663 1.908 1.6705 1.3511 1.3318 1.5245 1.868 1.5653 1.4464 1.4465 1.695
2825.953 2.058 1.998 2.098 2.278 2.248 1.928 1.878 1.978 1.968 1.958
2845.242 1.5928 1.5716 1.938 2.258 2.558 2.488 2.708 2.928 3.038 3.038
2864.532 3.118 3.248 3.618 4.288 4.588 4.938 5.218 5.808 6.518 6.968
2883.822 7.278 7.068 7.188 7.338 7.198 6.998 6.238 5.888 6.178 5.758
2903.112 5.368 5.548 5.508 5.608 5.518 5.528 5.828 5.628 5.778 6.158
2922.401 6.558 7.038 7.268 7.378 8.048 9.098 9.188 9.978 11.408 11.848
2941.691 12.098 12.618 12.968 13.008 13.218 12.948 12.428 12.508 12.708 12.548
2960.981 12.548 13.228 13.788 14.438 15.458 16.288 16.778 16.878 17.368 17.478
2980.271 16.608 15.358 13.998 12.888 11.618 10.238 9.258 8.478 7.588 6.718
2999.561 6.148 5.808 5.248 4.828 4.618 4.288 3.878 3.918 3.978 3.728
3018.850 3.808 3.908 3.668 3.448 3.748 4.038 4.408 4.908 5.058 5.258
3038.140 5.438 6.088 6.538 6.148 6.728 7.088 6.578 6.688 6.698 6.898
3057.430 7.478 7.978 8.638 9.368 9.858 10.368 10.858 10.918 10.388 9.608
3076.720 8.668 7.618 7.208 6.948 6.638 6.088 5.418 5.068 5.078 5.078
3096.009 4.628 3.868 3.278 3.028 2.768 2.508 2.528 2.808 2.648 2.238
3115.299 1.8357 1.878 1.928 1.4064 1.3485 1.7658 2.108 1.694 1.4853 1.6487
3134.589 1.6996 1.6977 1.2095 0.9837 0.9599 0.7796 1.0847 1.6521 1.5054 1.4272
3153.879 1.5423 1.264 1.3175 1.754 1.8259 1.4687 1.4915 1.5961 1.3318 1.3149
3173.169 1.2267 1.601 1.908 1.6709 1.5565 1.4929 1.4737 1.4925 1.703 1.7695
3192.458 1.5852 1.2371 0.95794 1.1916 1.408 1.4275 1.6479 1.6451 1.0612 0.641
3211.748 0.7668 0.7641 1.2601 1.7413 1.6475 1.311 0.736 0.8312 1.0292 0.579
3231.038 0.113 0.319 0.93599 0.467 0.32 1.1877 1.1905 0.589 0.681 1.3546
3250.328 1.7526 1.8326 1.5303 1.0719 0.777 0.8278 1.243 1.2958 1.292 0.829
3269.617 0.744 1.2151 0.9861 0.758 0.357 0.132 0.277 0.526 0.728 0.678
3288.907 0.491 0.579 0.9916 0.987 0.55 0.78 1.1245 1.2084 1.3338 1.33
3308.197 1.0859 1.0177 1.2879 1.0532 0.9944 1.0285 0.663 0.7964 0.88152 0.8189
3327.487 0.9882 0.93598 1.0736 1.0545 0.91413 1.2053 1.3927 1.3951 1.3751 0.9718
3346.777 0.599 1.1465 1.4539 1.614 1.8048 1.2767 0.91771 1.394 1.2424 0.664
3366.066 0.636 0.624 0.88979 1.1011 1.0276 0.9703 0.862955 0.531 0.548 0.7669
3385.356 1.0697 1.1363 0.699 0.206 0.036 0.05 0.505 0.993 0.544 0.392
3404.646 0.9699 1.1482 0.94801 0.8429 0.9662 1.028 0.93135 1.2288 1.3044 1.0575
3423.936 0.9864 0.604 0.538 0.93718 0.7843 1.244 1.6218 0.90044 0.605 0.711
3443.225 1.3922 1.7349 1.4976 1.8136 2.108 2.178 2.178 2.118 1.878 1.6068
3462.515 1.868 1.7942 1.918 2.258 1.8205 2.338 2.838 3.198 3.508 3.738
3481.805 4.278 4.508 4.928 5.578 6.588 6.948 7.408 8.018 8.428 9.128
3501.095 10.158 11.358 11.888 12.368 13.548 14.628 14.918 14.768 14.768 14.378
3520.385 13.318 11.818 10.138 8.168 6.578 5.888 5.148 4.318 3.618 3.328
3539.674 3.008 2.508 1.948 1.7755 1.62 1.7019 1.968 1.6973 1.7154 1.6025
3558.964 1.3408 1.3646 1.3233 1.289 1.0119 0.8221 0.89577 1.4641 2.008 1.702
3578.254 1.196 1.3175 1.2334 0.91682 0.831 0.714 1.0113 1.2185 0.7632 0.626
3597.544 0.634 0.639 0.8141 0.87459 0.89273 0.8018 1.1638 0.726 0.72 1.0221
3616.833 0.496 1.0923 1.6546 0.9753 0.427 0.90483 1.7037 1.69 1.2347 0.9085
3636.123 0.715 0.748 1.1878 1.7978 1.7098 1.2745 1.2876 1.1738 1.2636 1.4777
3655.413 1.182 1.0242 0.92685 0.515 0 0.506 0.93953 0.597 0.533 0.89828
3674.703 1.2444 1.1634 1.2017 1.0687 0.611 0.678 1.2278 1.1253 1.1508 1.1723
3693.993 0.49 0.589 0.705 0.9826 1.1962 0.7824 0.91437 0.95419 1.0772 0.91019
3713.282 0.082 0.7618 1.3134 0.682 1.0763 1.0318 0.615 0.694 0.665 0.90128
3732.572 0.754 0.41 0.636 0.694 0.863778 1.2077 1.2324 1.2725 1.0888 1.0736
3751.862 1.114 1.3172 1.3431 0.7581 0.627 1.175 1.5609 1.5962 1.3267 1.0139
3771.152 0.682 0.495 0.8384 1.0297 1.095 1.3579 0.666 0.317 0.88153 0.498
3790.441 0.263 0.755 0.709 0.744 0.7877 0.754 0.9832 0.389 0.308 0.44
3809.731 0.646 0.593 0.536 0.609 0.592 0.9921 1.2127 1.0051 0.88822 1.3302
3829.021 1.325 1.1792 1.1159 1.157 1.0703 1.1717 1.858 1.938 1.4547 1.2708
3848.311 1.2139 1.2204 1.1828 0.691 0.87355 1.0768 0.415 0.8292 1.1449 1.2088
3867.601 1.6257 1.4346 1.0653 0.9767 1.0609 0.643 0.675 0.485 0.255 0.534
3886.890 0.455 0.85508 1.3884 1.4537 1.2283 1.1223 1.0272 1.0972 1.2297 0.722
3906.180 0.7777 1.4553 1.2874 0.741 0.581 0.9769 1.4949 1.5468 1.2927 0.91709
3925.470 0.859405 1.1267 1.4368 1.1971 1.3222 1.938 1.5964 1.1897 0.9998 0.8997
3944.760 1.1414 1.3344 1.1657 1.044 1.0223 0.366 0.129 0.605 0.94201 1.2984
3964.049 1.3762 1.2042 1.4468 0.89604 0.59 1.0877 1.1812 1.5377 1.1644 0.88241
3983.339 1.1199 1.2955 1.898 1.928 1.0406 0.743 1.0611 1.1456 1.315 1.2408
##END=
