##TITLE=1-Cyclohexyl-2-propen-1-ol
##JCAMP-DX=4.24
##DATA TYPE=INFRARED SPECTRUM
##ORIGIN=NIST Mass Spectrometry Data Center
##OWNER=NIST Standard Reference Data Program
Collection (C) 2018 copyright by the U.S. Secretary of Commerce
on behalf of the United States of America. All rights reserved.
##CAS REGISTRY NO=4352-44-7
##MOLFORM=C 9 H 16 O
##$NIST SOURCE=MSDC-IR
##SPECTROMETER/DATA SYSTEM=HP-GC/MS/IRD
##STATE=gas
##XUNITS=1/CM
##YUNITS=ABSORBANCE
##XFACTOR=1.0
##YFACTOR=0.000004700
##DELTAX=4.0
##FIRSTX=550.0
##LASTX=3846.0
##FIRSTY=0.000536
##MAXX=3846
##MINX=550
##MAXY=0.047
##MINY=0
##NPOINTS=825
##XYDATA=(X++(Y..Y))
550.0 114 44 0 22 36 30 30 31 28 59
590.0 59 44 57 62 64 78 80 85 82 65
630.0 58 54 41 41 57 62 56 52 60 80
670.0 77 62 80 106 123 135 146 148 146 149
710.0 169 194 194 175 159 124 84 59 52 48
750.0 34 29 38 41 37 42 43 38 40 39
790.0 46 48 39 40 44 45 41 54 61 68
830.0 97 120 134 140 143 148 155 163 172 184
870.0 198 218 248 295 360 408 438 460 492 567
910.0 714 957 1237 1425 1449 1332 1077 779 564 460
950.0 435 470 551 665 796 922 1034 1147 1263 1382
990.0 1471 1514 1514 1472 1429 1416 1442 1459 1427 1344
1030.0 1206 1044 883 738 649 592 549 539 543 555
1070.0 568 587 609 633 653 655 663 668 662 652
1110.0 640 627 602 563 528 501 469 438 415 387
1150.0 355 323 304 289 283 281 286 296 302 308
1190.0 316 333 353 377 407 436 461 479 489 491
1230.0 493 502 508 519 537 554 570 574 571 562
1270.0 545 523 496 470 452 442 430 425 424 414
1310.0 405 402 399 396 394 395 401 411 422 431
1350.0 431 414 390 370 346 329 316 305 288 264
1390.0 247 239 245 272 311 365 426 479 511 523
1430.0 525 535 578 670 784 872 907 833 683 523
1470.0 369 256 177 126 101 87 73 62 52 49
1510.0 46 41 42 39 33 27 25 29 30 29
1550.0 22 19 26 24 18 19 22 18 17 19
1590.0 18 20 23 28 35 42 48 53 65 82
1630.0 97 118 134 130 121 110 82 51 34 26
1670.0 24 23 20 16 13 13 14 14 14 11
1710.0 10 12 10 9 6 6 8 8 9 10
1750.0 14 17 17 22 28 31 30 27 23 22
1790.0 17 11 13 15 15 16 18 17 20 28
1830.0 37 52 74 94 114 127 124 110 91 71
1870.0 51 35 25 17 16 15 14 15 16 21
1910.0 19 13 12 13 13 15 14 10 11 13
1950.0 12 16 18 18 23 26 27 25 23 22
1990.0 21 20 19 20 19 15 18 15 18 24
2030.0 23 20 17 16 19 21 20 16 11 10
2070.0 11 12 15 16 13 11 11 13 11 15
2110.0 16 14 12 11 14 10 10 15 15 16
2150.0 15 14 14 15 15 18 19 15 17 20
2190.0 19 19 20 17 13 15 15 17 18 18
2230.0 21 23 24 22 19 16 15 12 11 12
2270.0 11 12 10 11 12 11 14 14 11 11
2310.0 15 17 11 11 16 17 19 23 20 18
2350.0 22 25 26 30 31 26 24 24 22 21
2390.0 25 26 25 24 23 22 22 24 21 21
2430.0 24 27 22 18 20 17 19 20 18 19
2470.0 22 22 26 27 27 28 29 25 21 20
2510.0 20 22 23 23 24 24 25 27 28 31
2550.0 28 28 31 33 35 38 43 48 47 49
2590.0 56 60 62 66 68 69 73 73 73 76
2630.0 78 82 87 91 98 106 118 128 138 145
2670.0 144 140 131 127 116 106 103 94 92 94
2710.0 95 93 83 78 79 78 73 70 71 74
2750.0 80 89 89 90 93 95 110 126 139 162
2790.0 184 203 221 228 236 255 277 308 350 402
2830.0 480 603 792 1086 1531 2163 2925 3608 4007 4042
2870.0 3740 3213 2655 2211 1917 1773 1762 1884 2134 2528
2910.0 3088 3853 4874 6173 7696 9183 10000 9742 8694 7097
2950.0 5202 3462 2228 1495 1072 822 675 599 563 543
2990.0 525 497 454 415 385 369 356 334 311 284
3030.0 254 228 205 187 176 171 171 180 202 241
3070.0 300 371 450 524 568 560 490 388 278 186
3110.0 126 91 74 57 49 48 45 46 49 51
3150.0 48 47 46 44 37 34 32 28 28 33
3190.0 35 26 23 23 20 19 22 25 24 24
3230.0 23 20 22 22 18 19 20 13 10 16
3270.0 22 26 27 26 29 26 18 18 19 15
3310.0 18 23 18 19 15 13 22 22 22 30
3350.0 36 34 30 27 31 35 32 34 30 27
3390.0 38 41 34 29 33 37 33 36 47 50
3430.0 54 53 47 48 44 35 38 39 37 39
3470.0 37 38 37 34 31 28 25 22 29 28
3510.0 20 19 27 33 30 29 18 15 30 31
3550.0 34 36 34 34 33 38 42 42 40 39
3590.0 39 41 42 49 53 57 73 91 114 145
3630.0 185 247 343 455 528 548 519 438 338 248
3670.0 182 136 103 81 70 68 61 54 52 49
3710.0 48 50 45 36 32 34 38 40 49 50
3750.0 48 49 48 51 51 43 42 44 39 39
3790.0 43 52 54 49 46 43 43 53 50 47
3830.0 54 56 55 49 50
##END=
