##TITLE=DL-Mandelamide
##JCAMP-DX=4.24
##DATA TYPE=INFRARED SPECTRUM
##ORIGIN=EPA-IR VAPOR PHASE LIBRARY
##OWNER=SRD/NIST
Collection (C) 2018 copyright by the U.S. Secretary of Commerce
on behalf of the United States of America. All rights reserved.
##CAS REGISTRY NO=4358-86-5
##MOLFORM=C 8 H 9 N O 2
##$NIST SOURCE=MSDC-IR
##STATE=gas
##XUNITS=1/CM
##YUNITS=ABSORBANCE
##XFACTOR=1.
##YFACTOR=0.001
##DELTAX=1.92934
##FIRSTX=549.9
##LASTX=3999.5
##FIRSTY=3.754
##MAXX=3999.53
##MINX=549.863
##MAXY=0.044454
##MINY=0
##NPOINTS=1789
##XYDATA=(X++(Y..Y))
549.863 3.754 3.574 3.434 3.424 3.414 3.484 3.614 3.704 3.844 4.024
569.156 4.364 4.684 4.904 5.164 5.304 5.534 5.724 5.714 5.764 5.774
588.450 5.764 5.794 5.794 5.724 5.614 5.604 5.614 5.594 5.514 5.344
607.743 5.194 5.094 4.994 4.774 4.494 4.284 4.084 3.924 3.784 3.564
627.037 3.374 3.254 3.204 3.104 2.994 2.894 2.844 2.754 2.624 2.594
646.330 2.614 2.644 2.574 2.584 2.694 2.734 2.744 2.754 2.784 2.924
665.624 3.144 3.224 3.294 3.454 3.654 3.924 4.254 4.574 5.014 5.614
684.917 6.324 7.114 7.894 8.694 9.494 10.084 10.474 10.674 10.644 10.504
704.210 10.234 9.794 9.244 8.664 8.094 7.554 7.034 6.574 6.184 5.844
723.504 5.604 5.474 5.384 5.374 5.484 5.644 5.854 6.124 6.434 6.784
742.797 7.104 7.444 7.724 7.794 7.774 7.674 7.504 7.294 6.984 6.584
762.091 6.164 5.774 5.354 4.964 4.704 4.434 4.204 4.094 3.994 3.874
781.384 3.744 3.724 3.774 3.694 3.684 3.684 3.674 3.684 3.684 3.684
800.678 3.694 3.694 3.754 3.754 3.724 3.754 3.754 3.764 3.774 3.784
819.971 3.774 3.784 3.774 3.804 3.814 3.824 3.924 3.974 3.984 4.034
839.264 4.084 4.124 4.164 4.224 4.234 4.244 4.264 4.234 4.184 4.184
858.558 4.144 4.064 3.964 3.954 3.994 4.004 3.924 3.844 3.874 3.864
877.851 3.804 3.734 3.614 3.534 3.534 3.484 3.384 3.334 3.334 3.284
897.145 3.214 3.234 3.254 3.234 3.254 3.314 3.344 3.324 3.314 3.324
916.438 3.354 3.404 3.394 3.334 3.254 3.174 3.094 2.984 2.884 2.794
935.732 2.744 2.694 2.664 2.654 2.624 2.594 2.574 2.524 2.494 2.534
955.025 2.534 2.514 2.544 2.554 2.524 2.524 2.504 2.454 2.474 2.474
974.318 2.454 2.474 2.454 2.424 2.434 2.444 2.474 2.524 2.544 2.594
993.612 2.664 2.724 2.854 3.004 3.134 3.284 3.444 3.634 3.854 4.124
1012.905 4.434 4.784 5.204 5.644 6.094 6.464 6.684 6.814 6.934 7.024
1032.199 7.104 7.144 7.064 7.034 7.064 7.044 7.084 7.174 7.214 7.274
1051.492 7.354 7.414 7.494 7.604 7.664 7.644 7.584 7.554 7.564 7.494
1070.786 7.404 7.294 7.164 7.084 7.014 6.914 6.774 6.704 6.694 6.714
1090.079 6.684 6.604 6.484 6.324 6.214 6.134 5.994 5.844 5.674 5.464
1109.372 5.244 4.964 4.774 4.554 4.304 4.094 3.794 3.504 3.244 2.944
1128.666 2.684 2.584 2.444 2.274 2.264 2.274 2.254 2.244 2.204 2.194
1147.959 2.274 2.264 2.264 2.364 2.424 2.514 2.674 2.844 2.944 3.114
1167.253 3.354 3.654 3.974 4.324 4.644 5.124 5.564 5.824 6.214 6.654
1186.546 7.124 7.454 7.544 7.704 7.904 7.924 7.784 7.574 7.334 7.114
1205.840 6.764 6.344 6.114 6.124 6.014 5.674 5.604 5.384 5.114 4.974
1225.133 4.784 4.754 4.814 4.804 4.734 4.494 4.314 4.314 4.394 4.394
1244.426 4.284 4.364 4.454 4.624 4.894 5.024 5.094 5.394 5.744 5.954
1263.720 6.174 6.374 6.574 6.804 6.944 7.044 7.234 7.364 7.504 7.734
1283.013 7.994 8.224 8.454 8.664 8.934 9.294 9.624 9.994 10.354 10.714
1302.307 11.154 11.594 11.984 12.424 12.834 13.194 13.524 13.764 13.994 14.184
1321.600 14.234 14.184 14.104 13.974 13.774 13.514 13.134 12.764 12.394 11.944
1340.894 11.474 10.984 10.514 10.054 9.524 9.024 8.544 8.054 7.634 7.224
1360.187 6.774 6.394 6.104 5.834 5.594 5.354 5.104 4.884 4.714 4.564
1379.480 4.374 4.164 3.994 3.854 3.734 3.624 3.474 3.344 3.244 3.164
1398.774 3.124 3.074 3.014 2.934 2.854 2.744 2.644 2.534 2.454 2.384
1418.067 2.304 2.224 2.144 2.084 2.004 1.964 1.924 1.924 1.944 1.984
1437.361 2.064 2.174 2.334 2.464 2.554 2.684 2.844 2.934 2.954 2.924
1456.654 2.884 2.784 2.624 2.434 2.274 2.084 1.904 1.754 1.684 1.654
1475.948 1.624 1.604 1.684 1.874 2.094 2.334 2.624 2.854 2.984 3.094
1495.241 3.134 3.014 2.884 2.754 2.504 2.174 1.844 1.604 1.4578 1.357
1514.534 1.3015 1.282 1.2575 1.2759 1.3566 1.3971 1.4257 1.464 1.544 1.664
1533.828 1.754 1.874 2.034 2.184 2.294 2.454 2.704 2.994 3.354 3.774
1553.121 4.284 4.934 5.654 6.524 7.484 8.424 9.334 10.174 10.994 11.804
1572.415 12.474 12.974 13.384 13.664 13.824 13.924 13.984 13.884 13.614 13.254
1591.708 12.784 12.164 11.394 10.454 9.414 8.364 7.404 6.494 5.664 4.954
1611.002 4.344 3.854 3.494 3.174 2.884 2.674 2.484 2.404 2.354 2.294
1630.295 2.274 2.244 2.174 2.124 2.134 2.114 2.084 2.084 2.114 2.174
1649.588 2.224 2.264 2.344 2.444 2.544 2.634 2.744 2.924 3.134 3.374
1668.882 3.684 4.004 4.314 4.644 5.054 5.434 5.794 6.144 6.504 6.834
1688.175 7.114 7.414 7.784 8.124 8.554 9.124 9.834 10.774 11.854 13.284
1707.469 15.024 17.134 19.594 22.394 25.524 28.874 32.374 35.604 38.574 41.104
1726.762 42.994 44.144 44.454 43.854 42.344 40.234 37.614 34.434 31.144 27.824
1746.056 24.604 21.624 18.964 16.544 14.534 12.854 11.434 10.274 9.254 8.454
1765.349 7.804 7.204 6.644 6.134 5.654 5.264 4.914 4.584 4.284 4.024
1784.642 3.774 3.474 3.194 2.994 2.874 2.724 2.514 2.344 2.204 2.054
1803.936 1.894 1.754 1.664 1.524 1.3825 1.312 1.2441 1.1648 1.0962 1.0323
1823.229 1.0006 0.9509 0.906 0.8618 0.8331 0.8118 0.7844 0.775 0.7706 0.767
1842.523 0.7783 0.7731 0.7275 0.7135 0.7157 0.7019 0.6935 0.7121 0.6943 0.6679
1861.816 0.6631 0.6593 0.6648 0.6903 0.6949 0.6816 0.6908 0.7265 0.7476 0.7546
1881.110 0.767 0.7669 0.7609 0.7798 0.7869 0.759 0.7664 0.7544 0.7438 0.7315
1900.403 0.7115 0.6995 0.6867 0.6437 0.6111 0.6244 0.5946 0.5764 0.5793 0.5658
1919.696 0.5719 0.5736 0.5916 0.6397 0.6572 0.6524 0.696 0.758 0.7864 0.8182
1938.990 0.8225 0.8381 0.8853 0.9078 0.8993 0.8769 0.8927 0.9347 0.9277 0.8884
1958.283 0.8643 0.8718 0.8401 0.744 0.6876 0.7256 0.7002 0.6347 0.6124 0.5809
1977.577 0.54069 0.50884 0.49532 0.467822 0.466469 0.45652 0.4538 0.48922 0.49022 0.4525
1996.870 0.4256 0.4086 0.4335 0.4342 0.4112 0.4361 0.4353 0.3957 0.4262 0.45689
2016.164 0.4283 0.404 0.4191 0.4112 0.3784 0.3856 0.4099 0.416 0.406 0.3905
2035.457 0.3691 0.361 0.345 0.363 0.4042 0.3957 0.3885 0.409 0.4048 0.3772
2054.750 0.349 0.363 0.3704 0.4015 0.4195 0.4071 0.3827 0.3719 0.4088 0.4229
2074.044 0.4161 0.4339 0.4125 0.3842 0.373 0.355 0.331 0.311 0.327 0.344
2093.337 0.366 0.366 0.339 0.317 0.303 0.254 0.28 0.326 0.354 0.358
2112.631 0.33 0.323 0.323 0.331 0.316 0.318 0.343 0.356 0.35 0.35
2131.924 0.3697 0.388 0.3873 0.36 0.334 0.334 0.347 0.356 0.359 0.34
2151.218 0.332 0.356 0.358 0.352 0.3796 0.3681 0.3694 0.3809 0.3683 0.347
2170.511 0.333 0.338 0.344 0.357 0.349 0.363 0.354 0.35 0.355 0.345
2189.804 0.336 0.348 0.343 0.331 0.352 0.358 0.357 0.351 0.349 0.351
2209.098 0.353 0.3644 0.3774 0.3816 0.3751 0.3845 0.3904 0.366 0.3742 0.3903
2228.391 0.3682 0.3812 0.3877 0.36 0.333 0.327 0.361 0.353 0.355 0.4009
2247.685 0.3995 0.385 0.3867 0.3828 0.3753 0.3935 0.3906 0.353 0.353 0.352
2266.978 0.3652 0.399 0.4048 0.3714 0.3779 0.4031 0.3917 0.4148 0.4259 0.3719
2286.272 0.342 0.3655 0.354 0.3722 0.3735 0.311 0.301 0.327 0.341 0.338
2305.565 0.352 0.3776 0.3822 0.3758 0.36 0.358 0.3656 0.344 0.358 0.3891
2324.858 0.3739 0.3722 0.3867 0.3873 0.3918 0.3849 0.3797 0.356 0.3709 0.3748
2344.152 0.359 0.359 0.35 0.358 0.359 0.3738 0.3672 0.34 0.307 0.311
2363.445 0.326 0.265 0.237 0.291 0.32 0.315 0.288 0.301 0.337 0.322
2382.739 0.328 0.335 0.303 0.304 0.317 0.329 0.3712 0.3811 0.3847 0.361
2402.032 0.339 0.323 0.327 0.3682 0.3813 0.386 0.352 0.319 0.291 0.312
2421.326 0.334 0.313 0.335 0.344 0.344 0.354 0.342 0.336 0.329 0.336
2440.619 0.354 0.364 0.352 0.355 0.385 0.3852 0.367 0.3695 0.364 0.349
2459.912 0.344 0.3693 0.363 0.316 0.336 0.317 0.264 0.311 0.323 0.326
2479.206 0.3792 0.36 0.33 0.357 0.345 0.309 0.308 0.307 0.305 0.296
2498.499 0.297 0.302 0.308 0.289 0.268 0.26 0.265 0.298 0.32 0.303
2517.793 0.295 0.324 0.343 0.323 0.289 0.314 0.334 0.309 0.291 0.297
2537.086 0.286 0.261 0.258 0.252 0.251 0.265 0.295 0.28 0.236 0.259
2556.380 0.29 0.248 0.248 0.302 0.318 0.306 0.321 0.327 0.284 0.256
2575.673 0.294 0.328 0.312 0.265 0.265 0.306 0.309 0.298 0.313 0.315
2594.966 0.299 0.311 0.306 0.303 0.326 0.335 0.31 0.317 0.3826 0.3744
2614.260 0.297 0.314 0.324 0.319 0.323 0.314 0.302 0.294 0.3 0.317
2633.553 0.301 0.239 0.245 0.279 0.291 0.26 0.289 0.314 0.306 0.303
2652.847 0.285 0.27 0.254 0.293 0.306 0.263 0.269 0.324 0.326 0.255
2672.140 0.224 0.243 0.279 0.31 0.302 0.25 0.248 0.297 0.298 0.294
2691.434 0.265 0.261 0.247 0.226 0.284 0.281 0.27 0.283 0.252 0.197
2710.727 0.177 0.214 0.268 0.3 0.252 0.192 0.201 0.258 0.244 0.227
2730.020 0.213 0.215 0.218 0.181 0.205 0.206 0.193 0.235 0.271 0.291
2749.314 0.27 0.205 0.249 0.302 0.293 0.313 0.288 0.276 0.293 0.292
2768.607 0.318 0.326 0.308 0.348 0.358 0.306 0.353 0.4071 0.470457 0.49267
2787.901 0.45449 0.46221 0.4187 0.47987 0.56029 0.52099 0.501 0.53377 0.52592 0.49374
2807.194 0.51467 0.53141 0.53269 0.49669 0.53438 0.6004 0.6046 0.6081 0.6379 0.6884
2826.488 0.6836 0.6705 0.6425 0.6622 0.6632 0.6449 0.7427 0.8227 0.8155 0.8355
2845.781 0.9113 0.9965 1.0588 1.0894 1.1253 1.2607 1.4205 1.514 1.654 1.784
2865.074 1.854 1.954 2.064 2.134 2.164 2.194 2.164 2.134 2.064 1.974
2884.368 1.924 1.884 1.884 1.774 1.634 1.554 1.474 1.4462 1.504 1.584
2903.661 1.534 1.544 1.574 1.604 1.644 1.634 1.624 1.604 1.584 1.474
2922.955 1.432 1.4321 1.2907 1.0936 0.9837 0.998 0.9872 0.8634 0.8189 0.801
2942.248 0.7048 0.6589 0.6692 0.6585 0.6362 0.55664 0.471424 0.4482 0.3958 0.3677
2961.542 0.44 0.4426 0.3876 0.348 0.341 0.4023 0.4143 0.359 0.3797 0.4511
2980.835 0.4216 0.4334 0.3741 0.29 0.316 0.329 0.4332 0.5938 0.6485 0.5732
3000.128 0.55709 0.6561 0.7342 0.7712 0.8884 1.1802 1.2827 1.3714 1.644 1.844
3019.422 1.984 2.154 2.514 2.884 3.174 3.414 3.584 3.874 4.084 4.094
3038.715 4.094 3.964 3.754 3.664 3.534 3.354 3.184 3.044 2.994 3.074
3058.009 3.164 3.394 3.844 4.254 4.684 5.084 5.384 5.594 5.674 5.554
3077.302 5.444 5.234 4.884 4.604 4.254 3.884 3.584 3.204 2.874 2.684
3096.596 2.494 2.294 2.174 2.084 1.924 1.704 1.494 1.3606 1.2676 1.1177
3115.889 0.9626 0.8436 0.8302 0.6748 0.53302 0.51069 0.4428 0.45554 0.4404 0.314
3135.182 0.231 0.314 0.238 0.123 0.256 0.259 0.252 0.284 0.3729 0.344
3154.476 0.206 0.173 0.128 0.227 0.328 0.331 0.237 0.256 0.336 0.267
3173.769 0.287 0.3727 0.374 0.282 0.22 0.181 0.227 0.3857 0.4035 0.295
3193.063 0.269 0.323 0.246 0.236 0.277 0.239 0.244 0.221 0.125 0.16
3212.356 0.222 0.212 0.208 0.208 0.272 0.219 0.182 0.157 0.155 0.155
3231.650 0.193 0.251 0.19 0.172 0.216 0.194 0.173 0.157 0.127 0.208
3250.943 0.262 0.234 0.148 0.14 0.198 0.273 0.266 0.217 0.203 0.186
3270.236 0.127 0.056 0 0.082 0.115 0.073 0.123 0.147 0.138 0.137
3289.530 0.219 0.254 0.28 0.149 0.058 0.237 0.3791 0.352 0.338 0.352
3308.823 0.311 0.273 0.274 0.305 0.307 0.277 0.248 0.28 0.325 0.29
3328.117 0.191 0.209 0.2 0.201 0.278 0.276 0.338 0.3681 0.269 0.232
3347.410 0.248 0.263 0.354 0.3696 0.239 0.234 0.4141 0.4293 0.4064 0.50732
3366.704 0.50208 0.471444 0.464529 0.55913 0.6141 0.53189 0.52849 0.56352 0.6494 0.7904
3385.997 0.9069 1.0005 1.1931 1.3017 1.2788 1.364 1.524 1.744 1.954 2.064
3405.290 2.254 2.544 2.764 3.074 3.484 3.974 4.414 4.694 5.134 5.474
3424.584 5.694 5.794 5.754 5.794 5.554 5.304 5.124 4.654 4.244 3.714
3443.877 3.314 3.064 2.654 2.454 2.304 2.074 1.924 1.954 2.124 2.194
3463.171 2.324 2.584 2.764 2.874 3.134 3.464 3.824 4.194 4.524 4.884
3482.464 5.204 5.464 5.624 5.724 5.874 5.954 6.074 6.214 6.224 6.144
3501.758 6.114 6.144 6.084 6.024 6.094 6.224 6.254 6.434 6.634 6.584
3521.051 6.694 6.964 7.274 7.534 7.674 7.934 8.214 8.644 9.114 9.484
3540.344 9.874 10.204 10.234 10.154 9.914 9.424 8.804 8.054 7.214 6.314
3559.638 5.494 4.674 3.984 3.414 2.944 2.544 2.144 1.894 1.774 1.644
3578.931 1.504 1.3824 1.2827 1.2194 1.2619 1.3203 1.1562 0.9885 0.9099 0.8737
3598.225 0.9305 0.9118 0.9022 0.8169 0.7701 0.7784 0.7266 0.7427 0.7372 0.6947
3617.518 0.6944 0.7294 0.73 0.7552 0.8426 0.8697 0.8724 0.9717 1.1195 1.1934
3636.812 1.2676 1.4255 1.644 1.814 1.874 1.874 1.944 2.094 2.094 1.944
3656.105 1.824 1.804 1.714 1.564 1.3496 1.2017 1.1287 1.0228 0.965 0.8627
3675.398 0.8025 0.6525 0.51549 0.55902 0.49841 0.47571 0.49612 0.4242 0.3849 0.4479
3694.692 0.471732 0.451 0.473242 0.453 0.415 0.4449 0.49121 0.4209 0.3994 0.337
3713.985 0.3853 0.51282 0.4014 0.296 0.3833 0.3969 0.341 0.3926 0.4412 0.4273
3733.279 0.3697 0.438 0.48774 0.3997 0.318 0.249 0.351 0.4485 0.4199 0.4173
3752.572 0.4415 0.48225 0.4167 0.4028 0.4167 0.3655 0.3875 0.3705 0.313 0.3653
3771.866 0.3709 0.34 0.352 0.346 0.337 0.358 0.331 0.341 0.4057 0.4092
3791.159 0.4336 0.463722 0.49162 0.3926 0.4225 0.436 0.278 0.326 0.4108 0.4014
3810.452 0.315 0.294 0.3931 0.3977 0.298 0.322 0.326 0.3667 0.47403 0.4207
3829.746 0.3901 0.3897 0.4296 0.3958 0.349 0.311 0.354 0.473408 0.49125 0.48779
3849.039 0.4309 0.3716 0.269 0.232 0.326 0.3762 0.4258 0.4177 0.325 0.362
3868.333 0.4013 0.334 0.313 0.349 0.3688 0.3837 0.352 0.319 0.33 0.341
3887.626 0.3927 0.394 0.329 0.327 0.319 0.261 0.271 0.3906 0.47813 0.453
3906.920 0.4106 0.339 0.311 0.343 0.36 0.3985 0.4338 0.383 0.285 0.247
3926.213 0.22 0.247 0.342 0.4063 0.4058 0.3845 0.3985 0.3881 0.324 0.288
3945.506 0.278 0.305 0.4046 0.3901 0.3881 0.4417 0.388 0.316 0.276 0.338
3964.800 0.3848 0.329 0.3837 0.402 0.331 0.363 0.4377 0.4063 0.334 0.343
3984.093 0.286 0.293 0.361 0.356 0.341 0.304 0.331 0.332 0.262
##END=
