##TITLE=4-(2,2,6-Trimethylcyclohexyl)-2-butanol
##JCAMP-DX=4.24
##DATA TYPE=INFRARED SPECTRUM
##ORIGIN=NIST Mass Spectrometry Data Center
##OWNER=NIST Standard Reference Data Program
Collection (C) 2018 copyright by the U.S. Secretary of Commerce
on behalf of the United States of America. All rights reserved.
##CAS REGISTRY NO=4361-23-3
##MOLFORM=C 13 H 26 O
##SOURCE REFERENCE=No.113203 (NIST/EPA/NIH MS Database)
##$NIST SOURCE=MSDC-IR
##SPECTROMETER/DATA SYSTEM=HP-GC/MS/IRD
##STATE=gas
##XUNITS=1/CM
##YUNITS=ABSORBANCE
##XFACTOR=1.0
##YFACTOR=0.000001900
##DELTAX=4.0
##FIRSTX=550.0
##LASTX=3846.0
##FIRSTY=0.000500
##MAXX=3846
##MINX=550
##MAXY=0.019
##MINY=0
##NPOINTS=825
##XYDATA=(X++(Y..Y))
550.0 263 270 326 296 239 212 229 270 271 230
590.0 201 210 218 167 168 216 177 101 92 108
630.0 94 86 100 96 84 103 100 65 35 4
670.0 11 57 72 70 105 104 123 135 110 92
710.0 86 87 118 131 135 173 201 207 216 259
750.0 288 285 308 331 308 322 368 398 431 465
790.0 475 508 573 601 640 715 801 877 948 1005
830.0 1008 947 872 790 685 608 573 529 506 498
870.0 484 483 506 517 526 551 567 580 587 627
910.0 686 709 755 819 900 971 1084 1249 1410 1612
950.0 1823 2032 2240 2446 2674 2930 3245 3583 3938 4321
990.0 4695 5028 5245 5333 5201 4855 4435 3991 3547 3160
1030.0 2842 2570 2285 2051 1871 1669 1492 1352 1235 1176
1070.0 1138 1116 1124 1172 1229 1272 1305 1342 1370 1361
1110.0 1319 1216 1083 956 849 765 712 705 720 705
1150.0 711 737 757 798 817 845 891 933 994 1056
1190.0 1079 1135 1201 1236 1258 1283 1343 1365 1358 1321
1230.0 1283 1261 1183 1120 1061 1006 963 907 873 876
1270.0 871 843 820 793 779 789 797 792 805 832
1310.0 854 895 944 1004 1086 1156 1227 1304 1370 1446
1350.0 1522 1603 1721 1890 2118 2444 2823 3221 3540 3623
1390.0 3442 3062 2623 2215 1888 1639 1483 1401 1384 1425
1430.0 1522 1667 1805 1909 1978 1943 1834 1701 1533 1364
1470.0 1219 1098 984 874 749 645 567 508 473 444
1510.0 427 416 400 396 398 380 359 347 354 362
1550.0 357 352 345 332 325 321 309 300 283 263
1590.0 269 271 279 286 268 271 280 283 305 325
1630.0 347 386 437 481 543 652 806 974 1063 1047
1670.0 934 723 516 382 295 243 208 188 178 168
1710.0 148 118 103 91 88 88 74 72 85 99
1750.0 102 113 135 145 146 128 108 99 96 87
1790.0 71 68 74 74 63 56 66 71 64 52
1830.0 42 40 53 67 58 43 35 26 27 29
1870.0 25 30 33 30 23 22 24 30 32 31
1910.0 28 32 27 25 34 34 34 36 32 37
1950.0 38 43 57 67 70 67 72 82 79 64
1990.0 49 56 62 57 62 68 60 63 70 60
2030.0 50 51 54 48 44 44 46 41 36 39
2070.0 29 29 35 39 33 19 24 30 29 17
2110.0 14 24 21 29 34 22 17 25 33 42
2150.0 39 33 31 19 20 40 50 31 22 33
2190.0 28 29 28 27 36 23 18 15 6 13
2230.0 10 10 25 26 20 7 2 20 20 27
2270.0 32 31 30 29 30 25 20 25 32 35
2310.0 38 30 24 30 41 40 30 37 48 49
2350.0 40 47 46 34 44 52 55 58 48 38
2390.0 45 58 67 74 65 54 54 59 54 66
2430.0 82 68 75 78 73 73 56 47 54 61
2470.0 73 73 53 43 46 54 54 49 50 56
2510.0 53 44 41 32 41 60 67 81 81 75
2550.0 68 58 56 79 86 76 78 77 84 97
2590.0 89 87 85 74 71 67 73 74 76 91
2630.0 98 110 120 123 125 130 137 139 136 135
2670.0 140 150 164 161 154 165 178 176 183 196
2710.0 212 237 270 305 344 388 437 452 463 471
2750.0 459 449 419 403 408 423 450 472 491 521
2790.0 559 596 645 718 796 861 945 1048 1185 1354
2830.0 1550 1821 2149 2548 3043 3612 4205 4794 5319 5726
2870.0 5978 6083 6150 6252 6393 6553 6736 6954 7234 7601
2910.0 8060 8610 9211 9720 10000 9958 9590 9014 8331 7629
2950.0 6994 6490 6149 5966 5937 5957 5917 5786 5574 5273
2990.0 4903 4494 4052 3632 3249 2912 2666 2486 2326 2175
3030.0 2022 1885 1759 1619 1496 1408 1303 1177 1055 942
3070.0 870 763 675 629 591 540 479 451 421 385
3110.0 353 320 304 274 235 201 172 163 160 131
3150.0 118 120 97 84 101 120 116 86 63 61
3190.0 63 62 67 59 61 50 36 40 31 49
3230.0 79 67 76 68 22 27 40 18 15 42
3270.0 51 48 51 36 10 9 33 27 35 44
3310.0 20 21 37 24 22 33 40 44 59 54
3350.0 28 28 37 51 54 44 45 35 23 43
3390.0 59 34 35 51 54 59 51 45 46 60
3430.0 55 44 38 46 60 65 73 63 34 49
3470.0 66 36 21 39 52 38 46 55 24 11
3510.0 23 28 23 25 28 18 14 9 13 23
3550.0 23 23 5 0 17 43 42 46 36 35
3590.0 66 63 91 131 127 127 139 171 213 271
3630.0 325 386 494 577 654 764 856 847 769 716
3670.0 632 527 446 352 273 215 175 168 163 110
3710.0 89 100 83 84 83 64 69 59 42 65
3750.0 90 59 24 28 67 69 46 66 95 82
3790.0 65 54 47 35 43 75 54 21 13 24
3830.0 49 58 72 84 94
##END=
