##TITLE=n-Hexadecylmalonic acid
##JCAMP-DX=4.24
##DATA TYPE=INFRARED SPECTRUM
##ORIGIN=EPA-IR VAPOR PHASE LIBRARY
##OWNER=SRD/NIST
Collection (C) 2018 copyright by the U.S. Secretary of Commerce
on behalf of the United States of America. All rights reserved.
##CAS REGISTRY NO=4371-64-6
##MOLFORM=C 19 H 36 O 4
##$NIST SOURCE=MSDC-IR
##STATE=gas
##XUNITS=1/CM
##YUNITS=ABSORBANCE
##XFACTOR=1.
##YFACTOR=0.001
##DELTAX=1.92934
##FIRSTX=549.9
##LASTX=3999.5
##FIRSTY=3.766
##MAXX=3999.53
##MINX=549.863
##MAXY=0.086066
##MINY=0
##NPOINTS=1789
##XYDATA=(X++(Y..Y))
549.863 3.766 3.746 3.916 4.176 4.376 4.406 4.356 4.346 4.336 4.286
569.156 4.286 4.226 4.136 4.226 4.336 4.326 4.326 4.316 4.346 4.486
588.450 4.646 4.666 4.686 4.666 4.546 4.566 4.706 4.756 4.706 4.726
607.743 4.746 4.696 4.686 4.726 4.606 4.536 4.536 4.456 4.366 4.286
627.037 4.236 4.096 3.926 3.896 3.796 3.556 3.346 3.146 3.016 2.956
646.330 2.776 2.606 2.516 2.476 2.366 2.286 2.236 2.116 2.096 2.066
665.624 1.986 1.906 1.836 1.826 1.786 1.766 1.776 1.776 1.706 1.726
684.917 1.776 1.716 1.716 1.856 1.876 1.816 1.866 1.966 2.036 2.046
704.210 2.146 2.236 2.246 2.316 2.396 2.476 2.506 2.516 2.496 2.466
723.504 2.456 2.426 2.366 2.266 2.236 2.166 2.086 2.066 1.996 1.916
742.797 1.826 1.746 1.756 1.736 1.616 1.556 1.516 1.456 1.436 1.436
762.091 1.436 1.3875 1.3364 1.2559 1.2141 1.1823 1.1472 1.1207 1.0571 0.9904
781.384 0.9487 0.91 0.8876 0.8769 0.8397 0.8266 0.8075 0.7824 0.7774 0.7803
800.678 0.7972 0.7797 0.7438 0.7363 0.7482 0.7792 0.7981 0.8245 0.8808 0.8064
819.971 0.7025 0.726 0.7121 0.6873 0.7296 0.7743 0.7652 0.7629 0.7609 0.757
839.264 0.8075 0.8264 0.8047 0.8082 0.7989 0.7478 0.7217 0.7787 0.7929 0.75
858.558 0.8112 0.8441 0.8371 0.8688 0.8813 0.8611 0.8331 0.8113 0.8429 0.8531
877.851 0.8135 0.8241 0.8554 0.9027 0.8842 0.8738 0.8982 0.9199 0.8981 0.8232
897.145 0.8234 0.8736 0.9294 0.9138 0.8359 0.8223 0.8226 0.8141 0.8306 0.8507
916.438 0.832 0.8086 0.8197 0.8604 0.8639 0.7953 0.7954 0.8641 0.8546 0.7818
935.732 0.7974 0.8474 0.8011 0.8008 0.809 0.7654 0.7982 0.8365 0.8289 0.8449
955.025 0.875 0.8829 0.8697 0.8348 0.8592 0.9055 0.925 0.9135 0.9162 0.965
974.318 0.9926 0.9678 0.9476 0.9684 0.9645 1.0149 1.0432 1.0478 1.0927 1.1539
993.612 1.1975 1.1824 1.2584 1.3368 1.3611 1.4087 1.446 1.476 1.506 1.576
1012.905 1.656 1.686 1.716 1.746 1.756 1.806 1.906 2.006 2.046 2.096
1032.199 2.216 2.316 2.386 2.486 2.586 2.706 2.856 2.996 3.116 3.256
1051.492 3.416 3.586 3.756 3.936 4.116 4.286 4.496 4.756 5.036 5.316
1070.786 5.586 5.876 6.216 6.596 6.916 7.236 7.576 7.906 8.216 8.526
1090.079 8.876 9.206 9.576 9.926 10.256 10.646 11.006 11.336 11.636 11.916
1109.372 12.116 12.196 12.186 12.166 12.236 12.246 12.256 12.286 12.276 12.306
1128.666 12.256 12.206 12.006 11.636 11.296 10.916 10.476 10.046 9.596 9.256
1147.959 8.956 8.576 8.266 7.986 7.686 7.486 7.296 7.056 6.846 6.726
1167.253 6.606 6.426 6.306 6.146 5.936 5.756 5.566 5.436 5.296 5.086
1186.546 4.876 4.706 4.536 4.426 4.356 4.276 4.166 3.946 3.846 3.766
1205.840 3.656 3.616 3.556 3.496 3.316 3.156 3.116 3.056 2.996 2.936
1225.133 2.946 2.876 2.766 2.696 2.596 2.586 2.626 2.666 2.656 2.656
1244.426 2.656 2.626 2.566 2.566 2.676 2.766 2.756 2.726 2.786 2.776
1263.720 2.796 2.836 2.826 2.826 2.806 2.796 2.836 2.876 2.856 2.806
1283.013 2.836 2.876 2.836 2.866 2.866 2.896 2.926 2.956 3.016 3.016
1302.307 3.026 3.036 3.016 2.976 2.926 2.906 2.896 2.856 2.846 2.836
1321.600 2.816 2.856 2.916 2.966 3.016 3.086 3.206 3.336 3.496 3.686
1340.894 3.886 4.066 4.226 4.446 4.646 4.776 4.856 4.886 4.876 4.846
1360.187 4.866 4.886 4.916 4.956 4.966 4.946 4.906 4.866 4.866 4.856
1379.480 4.786 4.706 4.576 4.366 4.146 3.956 3.716 3.446 3.206 2.976
1398.774 2.796 2.616 2.466 2.376 2.286 2.216 2.186 2.136 2.086 2.086
1418.067 2.076 2.136 2.276 2.356 2.386 2.466 2.606 2.666 2.796 2.966
1437.361 3.086 3.286 3.526 3.826 4.136 4.426 4.786 5.196 5.516 5.766
1456.654 6.046 6.346 6.526 6.516 6.296 5.936 5.516 5.006 4.416 3.826
1475.948 3.346 2.956 2.586 2.246 1.976 1.786 1.606 1.406 1.2792 1.1938
1495.241 1.1087 1.0066 0.8911 0.8587 0.8885 0.8543 0.754 0.7177 0.7073 0.6467
1514.534 0.6013 0.5879 0.5738 0.48277 0.48667 0.5604 0.5376 0.48795 0.47896 0.48316
1533.828 0.47139 0.45445 0.418354 0.419188 0.41934 0.4028 0.4127 0.46289 0.46288 0.43602
1553.121 0.43738 0.46538 0.422507 0.3808 0.45156 0.50928 0.48567 0.424837 0.40713 0.3976
1572.415 0.42828 0.44337 0.3905 0.3929 0.44927 0.44096 0.4364 0.48432 0.51105 0.50298
1591.708 0.50763 0.49889 0.48749 0.50125 0.5524 0.6034 0.5824 0.5572 0.5591 0.5864
1611.002 0.6335 0.6653 0.64 0.6673 0.7198 0.6705 0.597 0.5761 0.5844 0.5749
1630.295 0.5631 0.557 0.4999 0.47222 0.50012 0.5226 0.49644 0.40683 0.3789 0.42644
1649.588 0.45443 0.40619 0.424604 0.49573 0.5204 0.5193 0.5215 0.49746 0.50506 0.5191
1668.882 0.5005 0.5447 0.5662 0.6015 0.6232 0.5875 0.6312 0.6739 0.6648 0.6964
1688.175 0.7294 0.7736 0.8124 0.8274 0.8559 0.9169 0.9593 1.0486 1.157 1.2187
1707.469 1.3478 1.476 1.526 1.616 1.786 1.926 2.166 2.446 2.706 3.036
1726.762 3.366 3.656 3.946 4.236 4.596 5.036 5.436 5.906 6.486 7.116
1746.056 7.806 8.536 9.306 10.136 11.046 12.016 13.056 14.206 15.476 16.826
1765.349 18.266 19.816 21.446 22.976 24.306 25.236 25.546 25.166 24.126 22.626
1784.642 20.886 19.106 17.446 15.856 14.406 13.116 11.956 10.846 9.786 8.806
1803.936 7.906 7.076 6.286 5.496 4.796 4.206 3.676 3.216 2.836 2.536
1823.229 2.216 1.936 1.776 1.616 1.486 1.3384 1.2049 1.1404 1.0521 0.9529
1842.523 0.881 0.837 0.8327 0.8212 0.778 0.7207 0.6935 0.6816 0.6323 0.5992
1861.816 0.588 0.5782 0.5846 0.5557 0.5226 0.5264 0.5237 0.51151 0.50795 0.48231
1881.110 0.47395 0.49453 0.46616 0.4336 0.44322 0.46058 0.47784 0.47173 0.464 0.47839
1900.403 0.48956 0.49368 0.44241 0.417195 0.44932 0.46452 0.4556 0.44253 0.45394 0.45607
1919.696 0.45358 0.44914 0.44098 0.43516 0.40922 0.4034 0.4047 0.3799 0.40755 0.42805
1938.990 0.40852 0.41249 0.416872 0.395 0.3724 0.3793 0.4099 0.40959 0.3834 0.3845
1958.283 0.3964 0.3768 0.3796 0.4045 0.3944 0.3787 0.3733 0.3954 0.3975 0.3898
1977.577 0.3904 0.3988 0.4046 0.3797 0.3775 0.41203 0.420695 0.421637 0.423855 0.40726
1996.870 0.40936 0.3827 0.3777 0.388 0.4038 0.416355 0.421927 0.45573 0.43879 0.43926
2016.164 0.4543 0.45028 0.45743 0.45141 0.42823 0.44699 0.46096 0.43599 0.419978 0.44235
2035.457 0.47494 0.47998 0.45299 0.46343 0.48021 0.43343 0.420838 0.42737 0.43171 0.44605
2054.750 0.43372 0.4031 0.4004 0.418076 0.41492 0.41347 0.4013 0.3757 0.3986 0.425603
2074.044 0.42774 0.416068 0.3932 0.3836 0.3904 0.3981 0.3785 0.3877 0.415123 0.41667
2093.337 0.41352 0.3857 0.3791 0.4023 0.393 0.3919 0.41214 0.3686 0.3695 0.3928
2112.631 0.3906 0.3822 0.3536 0.3709 0.40636 0.4102 0.4049 0.415839 0.41123 0.4047
2131.924 0.4031 0.3743 0.3666 0.384 0.3944 0.41125 0.42279 0.418877 0.3906 0.3932
2151.218 0.3932 0.41446 0.45424 0.47204 0.45935 0.44371 0.43533 0.44242 0.45708 0.41148
2170.511 0.40981 0.46183 0.46511 0.45723 0.44821 0.44544 0.43338 0.415741 0.44918 0.46759
2189.804 0.44873 0.43723 0.45024 0.44263 0.43512 0.45503 0.44663 0.4273 0.420323 0.43645
2209.098 0.46061 0.45994 0.44936 0.46737 0.47273 0.46508 0.49298 0.49013 0.46195 0.45297
2228.391 0.45015 0.44173 0.45659 0.46378 0.43564 0.43203 0.44395 0.46346 0.47281 0.45009
2247.685 0.47142 0.48774 0.43651 0.41142 0.43098 0.43526 0.44807 0.44013 0.42745 0.45106
2266.978 0.46365 0.4624 0.44059 0.43024 0.44108 0.43524 0.43027 0.41839 0.4043 0.402
2286.272 0.40649 0.425415 0.43958 0.43647 0.415456 0.4054 0.41052 0.41196 0.422136 0.43088
2305.565 0.422947 0.42707 0.4436 0.44637 0.44416 0.47058 0.47438 0.42633 0.40668 0.42021
2324.858 0.421685 0.3785 0.3617 0.3969 0.41387 0.413 0.3982 0.3881 0.3816 0.3785
2344.152 0.41364 0.43727 0.420843 0.419883 0.3953 0.3543 0.4026 0.45932 0.444 0.423446
2363.445 0.3705 0.3166 0.3267 0.3549 0.3594 0.3594 0.3865 0.41284 0.4224 0.42937
2382.739 0.42773 0.42998 0.45273 0.46513 0.47146 0.47706 0.4589 0.42542 0.43766 0.44712
2402.032 0.44889 0.46022 0.45109 0.42868 0.3898 0.40682 0.42229 0.4006 0.4015 0.4049
2421.326 0.4017 0.42726 0.43823 0.423721 0.40949 0.417402 0.418698 0.43168 0.415588 0.3889
2440.619 0.422125 0.42773 0.421286 0.44237 0.44349 0.45665 0.44579 0.41353 0.43753 0.423129
2459.912 0.421959 0.417431 0.357 0.3646 0.42252 0.41432 0.3851 0.3741 0.3789 0.40935
2479.206 0.43884 0.46545 0.44442 0.40762 0.42671 0.43707 0.43939 0.43821 0.43824 0.46041
2498.499 0.47247 0.4921 0.50644 0.49536 0.50899 0.51004 0.47555 0.43686 0.44087 0.45451
2517.793 0.49331 0.5403 0.5442 0.5203 0.47736 0.5164 0.5254 0.48649 0.48798 0.5143
2537.086 0.5305 0.5317 0.5355 0.5225 0.525 0.5404 0.5474 0.5201 0.49392 0.47794
2556.380 0.47574 0.544 0.5722 0.5289 0.5692 0.5765 0.5398 0.5696 0.5361 0.49511
2575.673 0.5514 0.5544 0.5353 0.5312 0.5523 0.5491 0.5266 0.5531 0.5551 0.5451
2594.966 0.529 0.569 0.5801 0.5948 0.6537 0.6377 0.6594 0.6707 0.6526 0.6831
2614.260 0.6996 0.7151 0.6998 0.6961 0.7284 0.7066 0.702 0.7027 0.7075 0.7407
2633.553 0.7438 0.7529 0.7774 0.7821 0.7872 0.8174 0.8005 0.8339 0.8398 0.8542
2652.847 0.9279 0.9103 0.9042 0.9247 0.923 0.9058 0.8791 0.9194 0.9797 0.9714
2672.140 0.9076 0.9203 0.9835 1.032 1.076 1.0486 1.0229 1.0492 1.0632 1.043
2691.434 1.0117 0.9568 0.9768 1.0102 0.9849 1.0074 0.9998 0.9436 0.9859 1.0338
2710.727 0.9651 0.9085 0.9051 0.9078 0.9231 0.9452 0.9322 0.9301 0.9727 0.956
2730.020 0.949 0.9464 0.9227 0.9248 0.933 0.9785 0.9904 1.0066 1.0539 1.0877
2749.314 1.0581 1.0268 1.0744 1.0177 0.965 0.9926 1.0367 1.0996 1.1231 1.1409
2768.607 1.16 1.2271 1.2634 1.2617 1.3133 1.3238 1.3169 1.3556 1.476 1.556
2787.901 1.596 1.596 1.646 1.776 1.806 1.846 1.986 2.136 2.126 2.206
2807.194 2.346 2.416 2.506 2.606 2.746 2.866 3.116 3.356 3.486 3.686
2826.488 3.836 4.056 4.326 4.636 5.036 5.486 5.976 6.566 7.376 8.386
2845.781 9.636 11.226 13.326 15.916 18.976 22.396 25.836 28.806 30.756 31.476
2865.074 30.926 29.286 27.216 24.996 22.736 20.816 19.296 18.056 17.016 16.276
2884.368 15.746 15.296 14.966 14.786 14.846 15.266 15.956 16.876 18.026 19.506
2903.661 21.226 22.986 25.116 27.666 30.336 33.286 36.836 41.016 46.066 52.066
2922.955 58.976 66.606 74.116 80.466 84.736 86.066 84.506 80.396 74.476 67.786
2942.248 60.966 54.216 47.846 42.286 37.516 33.386 29.986 27.356 25.346 23.766
2961.542 22.486 21.616 20.816 19.796 18.656 17.246 15.536 13.816 12.236 10.766
2980.835 9.566 8.576 7.836 7.106 6.436 5.956 5.506 5.066 4.576 4.216
3000.128 4.046 3.806 3.386 3.226 3.166 3.006 2.766 2.496 2.416 2.256
3019.422 2.146 2.116 2.026 1.986 1.956 1.836 1.706 1.636 1.556 1.466
3038.715 1.496 1.516 1.416 1.3613 1.341 1.2367 1.1551 1.1952 1.1963 1.0976
3058.009 1.1587 1.2132 1.0226 0.9442 0.9696 0.9717 1.0971 1.0449 0.8758 0.882
3077.302 0.7851 0.7694 0.7773 0.7424 0.7412 0.6368 0.6407 0.6734 0.7107 0.8476
3096.596 0.8036 0.6896 0.6648 0.5934 0.607 0.6695 0.5898 0.44151 0.40728 0.5281
3115.889 0.5473 0.5253 0.5792 0.5832 0.48116 0.316 0.3245 0.422317 0.49019 0.50461
3135.182 0.46117 0.47104 0.42909 0.3674 0.4048 0.416123 0.43983 0.43707 0.42711 0.44548
3154.476 0.4005 0.3862 0.41305 0.3801 0.3738 0.42652 0.4919 0.44407 0.3586 0.3475
3173.769 0.309 0.231 0.3269 0.43656 0.3635 0.315 0.3265 0.43685 0.50836 0.45281
3193.063 0.313 0.3296 0.3202 0.176 0.226 0.3334 0.281 0.273 0.306 0.3241
3212.356 0.281 0.243 0.211 0.107 0.201 0.182 0.164 0.22 0.2 0.206
3231.650 0.227 0.252 0.214 0.313 0.3161 0.253 0.208 0.107 0.168 0.197
3250.943 0.201 0.209 0.113 0.115 0.128 0.166 0.167 0.047 0.104 0.195
3270.236 0.239 0.258 0.216 0.151 0.117 0.123 0.099 0.093 0.214 0.257
3289.530 0.215 0.282 0.279 0.125 0.114 0.166 0.12 0.208 0.163 0.054
3308.823 0.138 0.219 0.3519 0.3641 0.3214 0.3206 0.265 0.202 0.143 0.254
3328.117 0.292 0.28 0.24 0.109 0.034 0.052 0.138 0.155 0.161 0.241
3347.410 0.311 0.221 0.145 0.226 0.308 0.203 0.162 0.29 0.3485 0.23
3366.704 0.139 0.201 0.215 0.183 0.236 0.3414 0.264 0.151 0.176 0.27
3385.997 0.276 0.285 0.3754 0.3422 0.3584 0.3583 0.2 0.176 0.208 0.179
3405.290 0.189 0.225 0.086 0 0.203 0.29 0.197 0.157 0.168 0.228
3424.584 0.306 0.293 0.215 0.227 0.212 0.18 0.18 0.16 0.218 0.218
3443.877 0.193 0.3287 0.202 0.048 0.238 0.244 0.164 0.179 0.155 0.133
3463.171 0.122 0.122 0.151 0.175 0.147 0.084 0.133 0.232 0.208 0.136
3482.464 0.18 0.267 0.211 0.178 0.314 0.3688 0.420415 0.50361 0.4326 0.3831
3501.758 0.228 0.213 0.294 0.299 0.3617 0.3509 0.3528 0.3561 0.383 0.48812
3521.051 0.5264 0.48464 0.5398 0.5425 0.5559 0.5741 0.517 0.5438 0.6401 0.7334
3540.344 0.8164 0.8821 0.8925 1.0623 1.2381 1.3445 1.446 1.586 1.956 2.266
3559.638 2.616 3.226 3.936 4.916 6.166 7.616 9.186 10.436 10.926 10.456
3578.931 9.176 7.516 5.876 4.526 3.546 2.816 2.296 1.866 1.546 1.3809
3598.225 1.1873 1.0549 0.921 0.789 0.6712 0.5807 0.5881 0.5684 0.5248 0.573
3617.518 0.5594 0.49784 0.37 0.3813 0.45508 0.399 0.3669 0.3957 0.41382 0.3311
3636.812 0.284 0.273 0.3267 0.312 0.287 0.3313 0.3523 0.3665 0.3627 0.321
3656.105 0.261 0.26 0.24 0.291 0.31 0.3501 0.3782 0.264 0.312 0.296
3675.398 0.212 0.235 0.308 0.351 0.3496 0.296 0.255 0.235 0.232 0.313
3694.692 0.4039 0.33 0.253 0.3 0.26 0.3355 0.3442 0.26 0.28 0.272
3713.985 0.208 0.316 0.40698 0.3273 0.249 0.181 0.223 0.3284 0.3457 0.3389
3733.279 0.292 0.124 0.134 0.286 0.305 0.296 0.25 0.214 0.2 0.15
3752.572 0.11 0.163 0.237 0.271 0.3629 0.3661 0.3194 0.283 0.233 0.271
3771.866 0.315 0.281 0.3674 0.298 0.216 0.283 0.274 0.306 0.271 0.236
3791.159 0.228 0.245 0.3587 0.3879 0.309 0.3564 0.3859 0.3367 0.3691 0.3499
3810.452 0.3193 0.292 0.259 0.247 0.287 0.246 0.215 0.3241 0.3846 0.3916
3829.746 0.3605 0.3569 0.3399 0.311 0.308 0.214 0.189 0.3326 0.416609 0.3805
3849.039 0.3 0.3266 0.3725 0.3464 0.311 0.3713 0.41067 0.3418 0.228 0.287
3868.333 0.3789 0.3362 0.29 0.28 0.309 0.293 0.288 0.3411 0.274 0.196
3887.626 0.3172 0.3188 0.279 0.279 0.29 0.3485 0.3458 0.301 0.267 0.199
3906.920 0.214 0.246 0.285 0.3552 0.3778 0.3371 0.253 0.3267 0.3927 0.3282
3926.213 0.271 0.295 0.29 0.24 0.271 0.3493 0.3368 0.309 0.3781 0.363
3945.506 0.311 0.256 0.3 0.3401 0.267 0.3404 0.422647 0.41494 0.3901 0.3888
3964.800 0.4042 0.3797 0.3514 0.281 0.257 0.31 0.3591 0.41927 0.3518 0.3
3984.093 0.297 0.254 0.28 0.3678 0.3992 0.3534 0.34 0.3773 0.45829
##END=
