##TITLE=Methyl hydrogen phthalate
##JCAMP-DX=4.24
##DATA TYPE=INFRARED SPECTRUM
##ORIGIN=EPA-IR VAPOR PHASE LIBRARY
##OWNER=SRD/NIST
Collection (C) 2018 copyright by the U.S. Secretary of Commerce
on behalf of the United States of America. All rights reserved.
##CAS REGISTRY NO=4376-18-5
##MOLFORM=C 9 H 8 O 4
##$NIST SOURCE=MSDC-IR
##STATE=gas
##XUNITS=1/CM
##YUNITS=ABSORBANCE
##XFACTOR=1.
##YFACTOR=0.001
##DELTAX=1.92898
##FIRSTX=549.8
##LASTX=4000.7
##FIRSTY=4.7165
##MAXX=4000.7
##MINX=549.759
##MAXY=0.0591565
##MINY=0
##NPOINTS=1790
##XYDATA=(X++(Y..Y))
549.759 4.7165 5.0965 4.9665 4.7665 5.0765 5.5165 5.5065 5.3165 5.3765 5.6465
569.049 5.3965 4.9665 4.7765 4.4265 4.1765 3.8165 3.4165 3.2865 3.2865 2.8465
588.339 2.1765 1.9665 1.8065 1.7565 1.6065 1.4365 1.4365 1.3565 1.4765 1.3165
607.628 1.018 1.1965 1.5565 1.6765 1.8965 2.4265 3.0465 3.8065 4.8765 5.9165
626.918 6.4265 6.5665 6.5565 6.8065 6.8865 6.3865 5.4965 4.3365 3.5865 2.9465
646.208 2.3465 2.1765 1.9765 1.8265 1.8265 1.9665 2.4465 2.8265 3.1765 3.4965
665.498 3.6465 3.9365 4.0965 4.0065 3.6365 3.2365 3.0465 2.7265 2.4665 2.3365
684.787 2.1965 2.1765 2.3565 2.5365 2.8665 3.2665 3.5465 4.0265 4.4565 4.7465
704.077 5.0865 5.9865 8.9765 10.3665 7.9865 6.8165 7.3265 7.7365 7.9365 7.9865
723.367 8.0665 8.1665 8.1665 8.1265 8.2965 8.4365 8.6965 8.9865 9.0165 9.1265
742.657 9.2065 9.0265 8.8165 8.5565 8.1065 7.8065 7.5265 7.1065 6.8965 6.8165
761.947 6.8165 6.6865 6.2865 6.1165 5.9765 5.6065 5.1765 4.8665 4.6865 4.5465
781.236 4.5065 4.3365 3.9665 3.7065 3.4865 2.9865 2.5565 2.4165 2.3165 2.1665
800.526 1.9265 1.7765 1.8265 1.6965 1.6365 1.7065 1.5465 1.6265 1.7665 1.7065
819.816 1.8565 2.0965 2.1365 2.2965 2.4965 2.4165 2.3465 2.2665 2.0665 1.8665
839.106 1.6765 1.6665 1.7165 1.5365 1.3465 1.3165 1.3065 1.2965 1.1865 1.2265
858.395 1.4265 1.4065 1.3565 1.4165 1.4465 1.5065 1.6365 1.9265 2.2865 2.4865
877.685 2.6365 2.9465 3.2065 3.6265 4.1665 4.6865 5.2765 6.1465 6.9565 7.4665
896.975 8.0065 8.3565 8.7865 9.2665 9.5965 9.8965 9.8965 9.5465 9.1365 8.7965
916.265 8.1665 7.4865 6.5965 5.5365 4.5965 3.6565 2.7965 2.0865 1.7865 1.6165
935.555 1.4565 1.4365 1.3565 1.2965 1.3365 1.5165 1.7665 1.8765 2.0365 2.2065
954.844 2.3665 2.5165 2.6265 2.7765 2.9665 3.0365 2.9665 2.9665 2.9465 2.7765
974.134 2.5765 2.4665 2.5165 2.4265 2.2365 1.9965 1.8965 1.9565 2.0865 2.1765
993.424 1.9665 2.0265 2.2165 2.2865 2.4665 2.5565 2.4965 2.3765 2.4465 2.5965
1012.714 2.6665 2.9065 3.0765 3.2265 3.2065 3.3965 3.8465 4.2965 5.1765 6.0765
1032.003 7.3465 7.6065 7.3665 7.7265 7.9765 8.5065 9.2565 10.4765 11.6365 12.6565
1051.293 13.7265 14.8465 16.0965 16.7965 17.2765 17.6765 17.3665 16.5465 15.3665 14.1565
1070.583 12.9965 11.7365 10.5065 9.7665 9.2065 8.9565 8.8365 8.9265 9.4765 10.1365
1089.873 10.8965 12.0465 13.5865 15.1665 16.9765 18.6365 19.6765 20.5065 20.9965 21.4965
1109.163 21.3465 20.7365 20.8965 20.4865 19.8265 19.3065 19.0965 19.1565 19.0665 19.2365
1128.452 19.6165 19.6065 19.1865 18.4565 17.5565 16.3565 14.7365 13.0665 11.5165 10.0465
1147.742 8.9265 8.2565 7.5565 7.2365 7.3765 7.3265 7.3865 7.7165 8.2565 8.8465
1167.032 9.3165 10.4665 11.6965 12.5765 13.9165 15.1665 16.0065 16.6065 16.8665 16.9065
1186.322 16.7265 16.1165 15.1865 14.3565 13.0565 11.4265 10.2465 9.0465 7.9765 7.5265
1205.611 7.1465 6.5865 6.2965 5.8965 5.6565 5.5365 5.5165 5.8465 5.7665 5.9265
1224.901 6.5165 6.7465 7.1765 8.1365 9.0565 9.8565 10.8665 12.0665 13.2265 14.5365
1244.191 16.2165 18.2065 20.3065 22.4965 24.6465 26.9465 29.2465 31.2965 33.1465 34.7165
1263.481 36.1765 37.0765 37.1565 36.8365 36.1165 35.3765 34.9265 34.4665 34.0365 33.8465
1282.771 33.6665 33.3565 33.2565 32.9865 32.2965 31.2265 29.7365 27.7165 25.4765 23.1765
1302.060 20.7465 18.4565 16.3165 14.4865 13.0865 12.0665 11.1865 10.5065 9.9965 9.5465
1321.350 9.2865 9.1265 9.0365 8.9765 8.9965 9.0465 9.0765 9.2065 9.4265 9.5665
1340.640 9.6065 9.6365 9.7065 9.6065 9.3965 9.2165 8.9965 8.6665 8.3165 8.0365
1359.930 7.7165 7.4565 7.2665 7.0065 6.7165 6.4765 6.1865 5.8565 5.4765 5.1365
1379.219 4.7865 4.4165 4.0965 3.8565 3.5765 3.2665 3.0665 2.8965 2.7865 2.6665
1398.509 2.5365 2.3965 2.3265 2.3065 2.3265 2.2365 2.1465 2.1665 2.2265 2.2465
1417.799 2.2565 2.4165 2.6765 2.9765 3.3765 3.9865 4.7365 5.4465 6.0065 6.4865
1437.089 6.8865 6.9165 6.7265 6.4065 5.8365 5.0965 4.4165 3.9165 3.6065 3.4465
1456.378 3.2365 2.9765 2.8765 2.7965 2.7665 2.7665 2.6565 2.5265 2.4965 2.5265
1475.668 2.5865 2.5865 2.5165 2.5265 2.5065 2.4565 2.4365 2.3765 2.2965 2.1665
1494.958 2.0165 1.9065 1.7765 1.6365 1.5765 1.4865 1.3965 1.4065 1.4065 1.3465
1514.248 1.3365 1.3265 1.2865 1.1865 1.1365 1.1865 1.1765 1.1365 1.1465 1.0765
1533.538 0.9981 1.0665 1.0497 0.9653 1.0577 1.0765 1.0765 1.1865 1.2065 1.1765
1552.827 1.2065 1.3065 1.2765 1.2965 1.5165 1.6365 1.7765 2.0365 2.1765 2.2765
1572.117 2.4565 2.5865 2.5865 2.6665 2.7665 2.7265 2.6965 2.6565 2.5565 2.4665
1591.407 2.4765 2.4765 2.4365 2.4165 2.4465 2.5265 2.4265 2.2465 2.2265 2.1565
1610.697 1.9665 1.7965 1.6165 1.4465 1.3865 1.2765 1.1965 1.1665 1.1665 1.2065
1629.986 1.1965 1.2165 1.1765 1.0623 1.0965 1.1265 1.0965 1.1765 1.2865 1.2265
1649.276 1.1865 1.1165 1.1865 1.3565 1.4065 1.4365 1.3865 1.4265 1.5065 1.4565
1668.566 1.4365 1.4665 1.5065 1.5865 1.6665 1.7565 1.8465 1.8465 1.8765 2.0565
1687.856 2.2065 2.3165 2.4865 2.5765 2.7065 2.9665 3.1765 3.5165 3.8665 4.1365
1707.146 4.4265 4.7365 5.0865 5.3665 5.6065 5.9065 6.3165 6.6865 7.1965 7.9465
1726.435 8.7265 9.8765 11.3365 12.7765 14.6665 16.8965 19.3165 22.3265 25.6265 29.2665
1745.725 33.0365 36.7665 40.5265 44.5565 48.6465 52.3365 55.3465 57.3965 58.6165 59.1565
1765.015 58.7865 57.2565 54.6165 51.4365 47.3165 42.4865 37.4565 32.7865 29.0565 26.2865
1784.305 24.3965 23.0965 22.3665 22.0865 21.9365 21.9065 21.9765 22.1665 22.5765 22.9965
1803.594 23.0965 22.7965 22.0265 20.7865 19.3265 17.8665 16.3865 14.8565 13.1165 11.2065
1822.884 9.4365 7.8765 6.6065 5.6865 4.9765 4.4265 4.0265 3.7265 3.5065 3.4165
1842.174 3.3765 3.3465 3.4865 3.6165 3.7865 4.0665 4.4965 5.0465 5.4665 5.8165
1861.464 6.0665 6.1765 6.2465 6.2565 6.1865 5.9565 5.7065 5.3265 4.7165 4.1365
1880.754 3.5865 3.1665 2.9165 2.6965 2.4665 2.2665 2.0865 1.9165 1.7365 1.5865
1900.043 1.4565 1.3365 1.2765 1.1865 1.0665 1.0657 1.0356 0.9946 1.0374 1.0387
1919.333 1.0428 1.0965 1.1365 1.1765 1.1665 1.1665 1.1865 1.1865 1.1865 1.2265
1938.623 1.1965 1.1265 1.1465 1.0765 0.994 0.9479 0.9369 0.9279 0.9408 0.9808
1957.913 0.9622 0.9392 0.9245 0.9291 0.9349 0.8704 0.8321 0.7924 0.7317 0.7703
1977.202 0.7742 0.7061 0.7047 0.7355 0.7127 0.6784 0.6742 0.6984 0.6958 0.6486
1996.492 0.6334 0.6553 0.7244 0.7446 0.6918 0.7231 0.6722 0.5858 0.6289 0.6545
2015.782 0.6118 0.6041 0.5783 0.5395 0.5619 0.535 0.4962 0.445 0.5069 0.5356
2035.072 0.4441 0.4025 0.3799 0.3573 0.3752 0.4209 0.4625 0.4486 0.4422 0.5133
2054.362 0.5374 0.5049 0.4634 0.5024 0.4968 0.4442 0.4904 0.5614 0.5871 0.5592
2073.651 0.5704 0.5762 0.5916 0.5689 0.5051 0.5699 0.5979 0.5767 0.5541 0.5157
2092.941 0.4996 0.5036 0.5082 0.5272 0.5589 0.5649 0.5353 0.4869 0.4979 0.5282
2112.231 0.5629 0.5255 0.4939 0.5037 0.4819 0.4606 0.4095 0.3694 0.4107 0.4797
2131.521 0.4399 0.4183 0.447 0.4388 0.4164 0.35 0.3751 0.4256 0.379 0.3651
2150.810 0.4013 0.4375 0.4222 0.4499 0.4433 0.404 0.4288 0.4509 0.4988 0.548
2170.100 0.5142 0.4586 0.3883 0.4242 0.4785 0.4084 0.3379 0.3285 0.3483 0.3171
2189.390 0.2864 0.2662 0.2176 0.1952 0.2561 0.2914 0.2612 0.2803 0.3131 0.309
2208.680 0.2999 0.3066 0.2887 0.2606 0.2976 0.3182 0.3721 0.3986 0.327 0.2951
2227.970 0.3238 0.3364 0.2898 0.2987 0.3363 0.2875 0.2715 0.3556 0.3351 0.2895
2247.259 0.3323 0.3464 0.3315 0.2715 0.2673 0.3465 0.3314 0.2513 0.2095 0.2419
2266.549 0.3349 0.3355 0.2836 0.2603 0.263 0.2851 0.2911 0.265 0.2627 0.3124
2285.839 0.3496 0.3367 0.3065 0.3403 0.3776 0.3629 0.3313 0.2693 0.306 0.333
2305.129 0.3845 0.3509 0.3377 0.4089 0.3651 0.3523 0.2758 0.2037 0.2848 0.3654
2324.418 0.379 0.4181 0.4268 0.3757 0.3707 0.3544 0.3109 0.3047 0.2626 0.3303
2343.708 0.3823 0.3993 0.4498 0.4332 0.3767 0.2985 0.345 0.3722 0.3607 0.3518
2362.998 0.3424 0.3477 0.33 0.3689 0.3673 0.3421 0.3875 0.4191 0.4157 0.4243
2382.288 0.4044 0.381 0.43 0.3863 0.3343 0.3509 0.3509 0.3524 0.2888 0.2603
2401.578 0.3154 0.3317 0.308 0.2704 0.284 0.3067 0.3747 0.4046 0.3091 0.2861
2420.867 0.2592 0.2855 0.293 0.2946 0.2948 0.2252 0.2294 0.2311 0.2319 0.2943
2440.157 0.2771 0.2276 0.2511 0.2561 0.2584 0.1942 0.1684 0.2171 0.2625 0.2785
2459.447 0.1867 0.14608 0.15833 0.1828 0.2419 0.2425 0.2067 0.2217 0.2963 0.2503
2478.737 0.1746 0.1926 0.1776 0.2407 0.2275 0.12209 0.15327 0.2459 0.3012 0.2721
2498.026 0.2125 0.1801 0.1721 0.1994 0.1667 0.16111 0.2745 0.319 0.2959 0.3001
2517.316 0.2511 0.234 0.2297 0.1717 0.223 0.2353 0.14187 0.12906 0.1879 0.2795
2536.606 0.2276 0.2066 0.3404 0.3715 0.3806 0.2882 0.2315 0.3577 0.3784 0.2688
2555.896 0.2121 0.2583 0.2912 0.2525 0.2382 0.2282 0.2418 0.3198 0.3668 0.3175
2575.186 0.2405 0.2256 0.2202 0.2355 0.2494 0.18 0.2326 0.3063 0.34 0.3943
2594.475 0.2843 0.15732 0.14338 0.2271 0.191 0.13822 0.1858 0.2575 0.3532 0.266
2613.765 0.167 0.2409 0.244 0.2086 0.1956 0.1784 0.1942 0.2612 0.314 0.2588
2633.055 0.2257 0.2369 0.2826 0.2513 0.2097 0.288 0.2985 0.2187 0.2975 0.3222
2652.345 0.2544 0.2858 0.2542 0.2256 0.2258 0.2456 0.2516 0.1881 0.2041 0.2305
2671.634 0.1994 0.2315 0.2262 0.12515 0.1755 0.2443 0.2402 0.2596 0.2887 0.2862
2690.924 0.2206 0.207 0.2768 0.2286 0.11384 0.1123 0.2149 0.2483 0.14187 0.13976
2710.214 0.2405 0.2735 0.2423 0.2621 0.2793 0.2023 0.15276 0.2087 0.2045 0.2253
2729.504 0.2544 0.15556 0.065743 0.11477 0.2153 0.2383 0.196 0.2154 0.2403 0.1868
2748.794 0.1698 0.15692 0.1944 0.2628 0.2776 0.3025 0.3376 0.2713 0.2702 0.3867
2768.083 0.4448 0.4322 0.383 0.4325 0.4959 0.4225 0.3144 0.2902 0.3423 0.4325
2787.373 0.4762 0.4928 0.4574 0.4137 0.3963 0.4716 0.4203 0.3463 0.4852 0.5919
2806.663 0.5897 0.6323 0.7559 0.736 0.7308 0.7834 0.7333 0.7943 0.804 0.7612
2825.953 0.8202 0.7965 0.7964 0.8381 0.9087 0.9715 1.1465 1.3465 1.4365 1.5865
2845.242 1.6665 1.6565 1.5765 1.5665 1.5665 1.4065 1.3465 1.3865 1.3365 1.2565
2864.532 1.2465 1.1565 1.0765 1.1065 1.0665 1.1365 1.2465 1.2965 1.2765 1.2965
2883.822 1.4465 1.3865 1.3065 1.3865 1.3865 1.4465 1.4865 1.5165 1.5665 1.6065
2903.112 1.6865 1.8265 1.8965 1.8865 1.8465 1.7765 1.9265 2.0065 1.9365 1.8565
2922.401 1.8565 1.8065 1.7765 1.8365 1.9365 1.9665 1.9965 2.0765 2.2165 2.2965
2941.691 2.3465 2.5865 2.9165 3.3765 4.0665 4.7065 5.3565 6.0165 6.3765 6.6565
2960.981 6.7465 6.6765 6.4565 5.9465 5.2765 4.4665 3.7565 3.1265 2.5365 2.3965
2980.271 2.4965 2.4565 2.4065 2.3765 2.2665 2.1865 2.1865 2.1865 2.1365 2.1065
2999.561 2.1465 2.2365 2.3765 2.3665 2.2865 2.3665 2.3365 2.2265 2.1665 2.1265
3018.850 2.0965 2.1065 2.1265 2.1265 2.1665 2.1565 2.1065 2.1165 2.1665 2.1265
3038.140 1.9965 1.9865 2.0265 1.9265 1.8465 1.8065 1.8765 1.9165 1.7765 1.8165
3057.430 1.9065 2.0165 2.0665 2.0665 2.2565 2.5365 2.8565 3.1065 3.3765 3.6465
3076.720 3.7565 3.7065 3.6765 3.6965 3.4765 3.1565 2.9665 2.6565 2.2965 2.0465
3096.009 1.8665 1.5865 1.3665 1.3565 1.2565 1.2065 1.1765 1.0765 1.1465 1.1065
3115.299 1.0092 0.9003 0.7564 0.8811 0.7925 0.6245 0.8336 0.8743 0.7866 0.8942
3134.589 0.8846 0.8137 0.7673 0.7249 0.7345 0.7508 0.6849 0.6126 0.6327 0.7096
3153.879 0.7579 0.8285 0.8441 0.7539 0.6894 0.7562 0.7234 0.6538 0.6536 0.5733
3173.169 0.5215 0.5275 0.5438 0.595 0.6415 0.6479 0.7026 0.6055 0.5367 0.6353
3192.458 0.5941 0.5243 0.5249 0.5148 0.4285 0.5345 0.7107 0.6678 0.5705 0.5276
3211.748 0.5998 0.6617 0.6294 0.5965 0.6484 0.7 0.6344 0.6711 0.8327 0.7334
3231.038 0.5664 0.5707 0.5441 0.5463 0.6179 0.6402 0.5823 0.5507 0.5564 0.5375
3250.328 0.5857 0.6507 0.6487 0.6447 0.6302 0.5547 0.5109 0.5408 0.5661 0.5792
3269.617 0.6597 0.5907 0.4869 0.5132 0.5091 0.5827 0.5645 0.4168 0.4725 0.5715
3288.907 0.5164 0.4765 0.5137 0.6366 0.6765 0.6297 0.6167 0.4477 0.4159 0.5214
3308.197 0.5126 0.518 0.5235 0.5915 0.5022 0.338 0.4589 0.5356 0.5093 0.4176
3327.487 0.3319 0.468 0.5326 0.4857 0.504 0.54 0.5446 0.474 0.3819 0.3836
3346.777 0.2552 0.204 0.3295 0.4013 0.4896 0.5374 0.525 0.5159 0.4948 0.499
3366.066 0.4998 0.4653 0.4677 0.5101 0.5929 0.4582 0.3806 0.3985 0.3644 0.3682
3385.356 0.4667 0.4175 0.336 0.3989 0.3251 0.4257 0.5844 0.5408 0.5075 0.4801
3404.646 0.3751 0.4613 0.4602 0.3805 0.3954 0.4294 0.4794 0.482 0.3921 0.2754
3423.936 0.3845 0.4724 0.4684 0.4729 0.4083 0.2288 0.2246 0.4324 0.5555 0.6696
3443.225 0.6082 0.4218 0.425 0.3681 0.3129 0.3079 0.3921 0.4917 0.4525 0.5497
3462.515 0.6482 0.619 0.5661 0.5136 0.5647 0.6215 0.6435 0.6697 0.6371 0.632
3481.805 0.7044 0.724 0.621 0.7016 0.8805 0.8947 0.8221 0.8071 0.7874 0.6566
3501.095 0.665 0.7991 0.8584 0.8672 0.9432 0.8685 0.8486 1.009 0.8325 0.6712
3520.385 0.7291 0.9087 0.9121 0.8223 0.8217 0.7145 0.7108 0.7146 0.7665 0.8459
3539.674 0.7987 0.7934 0.8615 0.8484 0.9764 1.0865 1.1265 1.3865 1.7365 2.1165
3558.964 2.6965 3.5565 4.7965 6.3665 8.1965 9.9565 11.3265 12.3665 12.8965 12.9765
3578.254 12.7765 12.0765 10.6765 8.9465 7.1465 5.5265 4.3065 3.3065 2.4865 1.9265
3597.544 1.6465 1.4865 1.2865 1.1865 1.0965 0.8778 0.7263 0.7083 0.6865 0.8571
3616.833 0.8939 0.8028 0.7988 0.6887 0.6975 0.783 0.8245 0.8713 0.7993 0.7301
3636.123 0.719 0.6993 0.7664 0.7441 0.8341 0.9673 0.9497 0.9588 0.8238 0.7805
3655.413 0.903 0.9129 0.7668 0.8432 0.9541 0.8034 0.7186 0.7136 0.5935 0.5841
3674.703 0.5784 0.5924 0.5919 0.5712 0.6126 0.6975 0.6474 0.5287 0.6509 0.6779
3693.993 0.6687 0.6272 0.5627 0.5785 0.519 0.41 0.5889 0.7882 0.6048 0.4463
3713.282 0.4838 0.5344 0.6149 0.5395 0.6416 0.7128 0.649 0.6901 0.6707 0.5782
3732.572 0.4428 0.4648 0.3487 0.3334 0.4871 0.5289 0.3021 0.2075 0.4307 0.4399
3751.862 0.326 0.3156 0.4049 0.35 0.4617 0.5797 0.4761 0.4097 0.2766 0.2681
3771.152 0.3001 0.3465 0.4255 0.4255 0.4173 0.3529 0.2963 0.3055 0.1792 0.1705
3790.441 0.12862 0.1885 0.4302 0.3576 0.2628 0.1905 0.2542 0.3149 0.2598 0.3622
3809.731 0.347 0.2023 0.171 0.3269 0.4531 0.3436 0.2359 0.2449 0.3458 0.4428
3829.021 0.3439 0.16002 0.2224 0.2881 0.2306 0.2647 0.274 0.2535 0.2316 0.3086
3848.311 0.2133 0.07971 0.12684 0.1861 0.3127 0.3323 0.2479 0.2387 0.2288 0.1939
3867.601 0.0613 0.037 0.2008 0.3922 0.4933 0.4086 0.3085 0.4274 0.516 0.4178
3886.890 0.3634 0.2911 0.3719 0.4724 0.2628 0.1571 0.3461 0.305 0.3094 0.4819
3906.180 0.4412 0.4232 0.4859 0.505 0.3509 0.2856 0.3811 0.3023 0.1964 0.2691
3925.470 0.4732 0.3846 0.191 0.3673 0.5042 0.3792 0.2991 0.2618 0.2523 0.3323
3944.760 0.3171 0.14536 0.1459 0.4255 0.4227 0.2533 0.1948 0.11026 0.2569 0.3047
3964.049 0.2461 0.1834 0.0204 0.10367 0.2863 0.2836 0.066139 0 0.12788 0.2347
3983.339 0.316 0.16439 0.1703 0.2968 0.2759 0.3503 0.3068 0.2845 0.2874 0.2889
##END=
