##TITLE=5-Methoxyindole-2-carboxylic acid
##JCAMP-DX=4.24
##DATA TYPE=INFRARED SPECTRUM
##ORIGIN=EPA-IR VAPOR PHASE LIBRARY
##OWNER=SRD/NIST
Collection (C) 2018 copyright by the U.S. Secretary of Commerce
on behalf of the United States of America. All rights reserved.
##CAS REGISTRY NO=4382-54-1
##MOLFORM=C 10 H 9 N O 3
##$NIST SOURCE=MSDC-IR
##STATE=gas
##XUNITS=1/CM
##YUNITS=ABSORBANCE
##XFACTOR=1.
##YFACTOR=0.001
##DELTAX=1.92898
##FIRSTX=549.8
##LASTX=4000.7
##FIRSTY=0.726
##MAXX=4000.7
##MINX=549.759
##MAXY=0.02537
##MINY=0
##NPOINTS=1790
##XYDATA=(X++(Y..Y))
549.759 0.726 0.7039 0.48535 0.347 0 0.036 0.53798 0.6621 0.6186 0.8953
569.049 1.1659 1.1779 0.9109 0.9854 1.49 1.3873 1.0592 1.2206 1.68 1.89
588.339 2.01 2.17 2.17 2.06 1.78 1.67 1.81 1.95 1.89 1.7
607.628 1.63 1.66 1.62 1.4548 1.46 1.2001 1.0854 1.2672 1.0944 0.9786
626.918 0.9977 0.9918 1.0119 1.1211 1.1041 1.1247 1.1635 1.1252 1.0449 0.9977
646.208 0.9204 0.9686 1.0599 0.9508 0.8509 0.7098 0.6579 0.7376 0.8951 1.0036
665.498 0.9794 0.8233 0.8253 1.0383 1.129 1.0986 1.0943 1.2163 1.4282 1.63
684.787 1.82 2.12 2.47 2.91 3.56 4.25 5.18 6.1 6.89 7.78
704.077 8.78 9.9 11.03 12.37 13.82 14.69 14.09 13.04 12.61 12.43
723.367 12.2 11.83 11.47 11.05 10.52 9.94 9.39 8.95 8.64 8.15
742.657 7.35 6.5 6.2 6.44 6.82 6.5 5.64 5.13 4.93 5.04
761.947 5.12 5.1 5.21 5.52 5.67 5.87 6.34 6.68 7.18 7.75
781.236 8.38 8.95 9.43 9.95 10.33 10.44 10.56 10.97 10.98 10.35
800.526 9.62 8.88 8.11 7.51 7.09 6.76 6.41 6.02 5.76 5.56
819.816 5.5 5.51 5.46 5.46 5.71 5.85 5.66 5.51 5.34 5.09
839.106 5.05 5.23 5.29 5.27 5.28 5.2 5.07 5.08 4.98 4.8
858.395 4.74 4.75 4.64 4.46 4 3.54 3.39 3.2 2.92 2.6
877.685 2.35 2.08 1.93 1.84 1.86 2.24 2.8 3.45 4.14 4.78
896.975 5.13 5.16 5.31 5.55 5.55 5.19 4.58 3.86 3.25 2.74
916.265 2.51 2.37 2.15 2.03 2 2.23 2.33 2.44 2.67 2.7
935.555 2.73 2.61 2.41 2.31 2.17 2.1 2.13 1.92 1.71 1.58
954.844 1.54 1.62 1.58 1.56 1.58 1.71 1.71 1.54 1.57 1.72
974.134 1.81 1.81 1.75 1.72 1.78 1.94 1.91 1.87 1.78 1.82
993.424 1.93 1.88 2.06 2.27 2.35 2.28 2.48 2.81 3.01 3.26
1012.714 3.59 4.11 4.88 5.47 5.75 6.38 7.2 7.7 8 8.22
1032.003 8.67 8.82 8.42 7.98 7.83 7.3 6.67 6.14 5.64 5.28
1051.293 4.79 4.44 4.12 3.92 4.19 4.32 3.98 4.11 4.12 3.84
1070.583 3.75 3.53 3.16 3.15 3.09 3.07 2.97 2.49 2.41 2.32
1089.873 2.32 2.61 2.87 2.75 2.54 2.61 2.94 3.09 3.13 3.44
1109.163 3.76 4.25 4.79 5.47 6.57 7.2 7.66 8.15 8.57 8.93
1128.452 9.14 9.43 9.79 10.05 10.76 12.33 14.02 15.73 17.56 19.91
1147.742 21.67 22.45 22.48 22 21.11 19.9 18.25 15.65 13 10.36
1167.032 8.03 6.22 5.01 4.35 3.82 3.61 3.46 3.25 3.16 3.13
1186.322 3.18 3.23 3.25 3 2.92 3.04 2.9 3.21 3.75 4.24
1205.611 5.39 7.28 9.66 12.26 14.79 17.57 20 21.79 22.9 23.02
1224.901 22.57 21.53 19.77 17.75 15.34 13.03 11.19 9.58 8.54 7.86
1244.191 7.47 7.38 7.07 6.32 5.49 4.77 4.19 3.93 3.92 4.28
1263.481 5.31 6.52 8.01 9.91 11.97 13.91 15.36 16.28 16.57 16.46
1282.771 15.91 14.77 13.11 11.01 8.81 6.85 5.47 4.7 4.3 4.26
1302.060 4.49 4.71 4.94 5.18 5.37 5.58 5.69 5.72 5.73 5.58
1321.350 5.32 5 4.69 4.45 4.22 4 3.77 3.49 3.32 3.21
1340.640 3.06 2.91 2.73 2.56 2.42 2.28 2.15 2.04 1.89 1.75
1359.930 1.62 1.51 1.4269 1.3328 1.3008 1.3008 1.3279 1.3718 1.3589 1.3666
1379.219 1.48 1.55 1.59 1.74 1.88 2.01 2.17 2.34 2.54 2.7
1398.509 2.87 3.08 3.18 3.23 3.31 3.35 3.4 3.5 3.6 3.62
1417.799 3.66 3.77 3.96 4.28 4.74 5.33 6.14 7.25 8.51 9.72
1437.089 10.85 11.85 12.69 13.43 14.2 14.79 14.88 14.58 14.23 14.03
1456.378 13.96 14.09 14.34 14.67 15.24 16.27 17.85 19.82 21.95 23.89
1475.668 25.07 25.37 24.89 23.82 22.26 20.14 17.4 14.28 11.18 8.57
1494.958 6.68 5.42 4.69 4.34 4.27 4.35 4.57 4.98 5.39 5.86
1514.248 6.22 6.3 6.21 6.1 5.94 5.6 5.21 4.69 4.07 3.59
1533.538 3.28 3.16 3.13 3.19 3.41 3.69 3.97 4.24 4.45 4.66
1552.827 4.74 4.75 4.82 4.78 4.83 4.89 4.86 4.89 4.97 5.15
1572.117 5.41 5.75 6.03 6.27 6.45 6.51 6.41 6.13 5.85 5.48
1591.407 5.02 4.51 3.92 3.51 3.19 2.9 2.8 2.79 2.84 2.99
1610.697 3.21 3.45 3.85 4.35 4.8 5.15 5.4 5.54 5.45 5.3
1629.986 5.02 4.58 4.14 3.66 3.15 2.69 2.39 2.22 1.98 1.82
1649.276 1.71 1.59 1.49 1.5 1.55 1.48 1.4315 1.47 1.57 1.65
1668.566 1.73 1.87 1.89 1.9 1.99 2.03 1.99 1.97 1.93 1.97
1687.856 1.99 1.89 1.76 1.7 1.71 1.64 1.57 1.5 1.445 1.46
1707.146 1.49 1.46 1.4192 1.4217 1.3496 1.2049 1.1297 1.1484 1.1274 1.0521
1726.435 0.9449 0.879 0.849 0.7963 0.8131 0.8391 0.7642 0.6675 0.6579 0.6911
1745.725 0.6776 0.7306 0.7587 0.6891 0.664 0.6172 0.5737 0.584 0.6132 0.6117
1765.015 0.6342 0.6365 0.6406 0.6288 0.6256 0.6357 0.5807 0.5963 0.6459 0.6111
1784.305 0.6318 0.6801 0.6723 0.6381 0.5713 0.6025 0.6674 0.6356 0.6301 0.6668
1803.594 0.6936 0.7364 0.747 0.7309 0.7477 0.7752 0.8142 0.8492 0.8828 0.9014
1822.884 0.8992 0.9198 0.9574 1.0133 1.0453 1.0369 1.0152 1.014 1.0003 0.9878
1842.174 0.9998 0.9548 0.911 0.9329 0.9771 0.9735 0.9333 0.8724 0.8392 0.8094
1861.464 0.7606 0.7636 0.7465 0.7383 0.7433 0.7367 0.745 0.7439 0.7705 0.7911
1880.754 0.7771 0.7669 0.7756 0.8114 0.8215 0.7861 0.7718 0.754 0.6774 0.6576
1900.043 0.6645 0.6569 0.6416 0.619 0.6286 0.6295 0.6128 0.6291 0.6371 0.6641
1919.333 0.7129 0.6962 0.68 0.6979 0.6751 0.6883 0.7009 0.6736 0.711 0.7364
1938.623 0.7083 0.7544 0.8089 0.7757 0.7379 0.7728 0.8574 0.883 0.8605 0.8186
1957.913 0.7807 0.7659 0.7333 0.7261 0.7553 0.7589 0.7204 0.6949 0.7011 0.7201
1977.202 0.7274 0.703 0.6584 0.6811 0.7697 0.7495 0.7149 0.6765 0.6749 0.7226
1996.492 0.7276 0.7587 0.7765 0.7879 0.7828 0.7829 0.8199 0.8151 0.8543 0.8495
2015.782 0.816 0.8703 0.8918 0.8556 0.8148 0.8014 0.7885 0.7874 0.8368 0.845
2035.072 0.8527 0.8992 0.8663 0.8037 0.8753 0.947 0.9469 0.927 0.9014 0.929
2054.362 0.9553 0.9645 0.9721 0.9726 1.007 1.0009 0.947 0.9306 0.9224 0.9057
2073.651 0.9231 0.886 0.7857 0.8099 0.837 0.8433 0.8193 0.7535 0.688 0.7004
2092.941 0.6916 0.658 0.6764 0.6916 0.717 0.7172 0.6726 0.6697 0.7209 0.7013
2112.231 0.6827 0.6899 0.6742 0.6967 0.7096 0.7031 0.7103 0.6903 0.7068 0.7224
2131.521 0.7269 0.7726 0.8066 0.7639 0.7654 0.8147 0.772 0.779 0.8274 0.7816
2150.810 0.7748 0.7731 0.7197 0.7347 0.8025 0.82 0.86 0.8827 0.8541 0.8535
2170.100 0.8544 0.8747 0.8738 0.8313 0.8383 0.892 0.9128 0.8547 0.868 0.9463
2189.390 0.9024 0.8529 0.8323 0.8666 0.9023 0.8501 0.8285 0.8951 0.8851 0.8231
2208.680 0.7776 0.7709 0.762 0.7932 0.8408 0.7442 0.6985 0.7575 0.7843 0.7054
2227.970 0.6596 0.7032 0.7166 0.7034 0.7467 0.7598 0.685 0.6537 0.6761 0.7067
2247.259 0.7236 0.7415 0.7083 0.71 0.749 0.7624 0.7908 0.8078 0.7939 0.7572
2266.549 0.7362 0.6519 0.6094 0.6811 0.7009 0.691 0.718 0.7273 0.7135 0.7562
2285.839 0.783 0.7427 0.7572 0.7866 0.7855 0.727 0.6844 0.7195 0.7289 0.7419
2305.129 0.7665 0.7357 0.7956 0.8418 0.8408 0.8173 0.7558 0.7912 0.7783 0.6759
2324.418 0.6227 0.6308 0.6463 0.6355 0.685 0.7127 0.6747 0.6889 0.7163 0.7479
2343.708 0.7524 0.7587 0.7928 0.7941 0.7385 0.7572 0.8016 0.7933 0.8157 0.7718
2362.998 0.7387 0.7306 0.7059 0.7298 0.8241 0.8202 0.7605 0.7858 0.7574 0.719
2382.288 0.7193 0.7509 0.7607 0.7307 0.7063 0.7406 0.6969 0.6387 0.7153 0.7933
2401.578 0.8538 0.8378 0.7718 0.7591 0.7217 0.7105 0.7211 0.7983 0.8355 0.7748
2420.867 0.7756 0.7762 0.769 0.7967 0.8184 0.7905 0.6964 0.6817 0.8053 0.8234
2440.157 0.8062 0.8376 0.8206 0.8287 0.8312 0.8361 0.8274 0.8408 0.9025 0.8623
2459.447 0.8155 0.8414 0.8159 0.7092 0.7637 0.859 0.8274 0.785 0.8023 0.8034
2478.737 0.7665 0.7721 0.8163 0.8307 0.8508 0.8581 0.8862 0.9265 0.8619 0.86
2498.026 0.8744 0.8059 0.7483 0.7925 0.8586 0.8022 0.774 0.893 0.9114 0.8153
2517.316 0.7758 0.7795 0.754 0.7681 0.8307 0.8426 0.9345 1.0095 0.9417 0.8424
2536.606 0.8142 0.8217 0.7993 0.8358 0.8657 0.9002 0.9182 0.8797 0.9094 0.939
2555.896 0.8461 0.8325 0.8621 0.801 0.8169 0.797 0.7978 0.8372 0.761 0.793
2575.186 0.868 0.8293 0.763 0.7364 0.7989 0.8597 0.7921 0.6913 0.7452 0.8617
2594.475 0.8533 0.8301 0.8692 0.9044 0.9645 0.9301 0.8816 0.8404 0.8008 0.8314
2613.765 0.8053 0.8337 0.8901 0.8295 0.8565 0.9227 0.9634 0.935 0.8711 0.9388
2633.055 0.945 0.8968 0.9121 0.8957 0.8898 0.9313 0.9771 0.9656 0.8339 0.7811
2652.345 0.7231 0.6753 0.7218 0.7576 0.8362 0.8722 0.858 0.8302 0.8217 0.75
2671.634 0.7126 0.8084 0.8558 0.849 0.834 0.8381 0.7907 0.7783 0.8574 0.8392
2690.924 0.731 0.6773 0.725 0.823 0.7622 0.6959 0.727 0.7271 0.7359 0.7461
2710.214 0.7831 0.7766 0.7305 0.6625 0.6023 0.5898 0.6413 0.7428 0.7475 0.7106
2729.504 0.7083 0.7849 0.7364 0.754 0.8284 0.7574 0.7654 0.7924 0.886 0.8718
2748.794 0.8542 0.8056 0.6988 0.6939 0.719 0.7249 0.7504 0.8189 0.8923 0.8469
2768.083 0.814 0.8825 0.8994 0.9686 0.9936 1.0281 1.03 1.0116 1.1402 1.155
2787.373 1.1345 1.2101 1.1894 1.266 1.4126 1.47 1.47 1.4266 1.3784 1.4212
2806.663 1.5 1.52 1.65 1.77 1.81 1.93 2.1 2.28 2.49 2.74
2825.953 3.09 3.52 3.94 4.22 4.52 4.81 4.92 5.01 5.01 5
2845.242 4.86 4.63 4.29 3.86 3.52 3.21 2.98 2.81 2.7 2.63
2864.532 2.44 2.48 2.61 2.51 2.42 2.41 2.57 2.67 2.6 2.78
2883.822 2.94 2.86 2.94 3.18 3.36 3.43 3.57 3.75 3.92 4.09
2903.112 4.31 4.49 4.48 4.61 4.8 4.79 4.89 4.91 4.89 4.93
2922.401 4.95 5.07 5.24 5.41 5.7 6.03 6.34 6.84 7.08 7.24
2941.691 7.46 7.52 7.53 7.43 7.36 7.28 6.96 6.52 5.99 5.5
2960.981 5.22 4.83 4.53 4.33 4.05 4.03 3.94 3.74 3.8 3.71
2980.271 3.72 3.87 4.01 4.22 4.51 4.96 5.56 6.02 6.48 6.98
2999.561 7.05 6.88 6.74 6.57 6.2 5.5 4.75 4.24 3.84 3.49
3018.850 3.28 3.22 3.26 3.36 3.42 3.46 3.62 3.7 3.65 3.63
3038.140 3.63 3.55 3.36 3.26 3.21 2.99 2.76 2.77 2.65 2.46
3057.430 2.62 2.78 2.85 2.87 2.89 2.95 2.97 2.97 2.96 2.89
3076.720 2.84 2.79 2.72 2.8 2.79 2.61 2.54 2.38 2.16 2.09
3096.009 2.12 2.11 2.11 1.97 1.81 1.88 1.87 1.83 1.88 1.94
3115.299 1.83 1.67 1.57 1.67 1.74 1.75 1.98 2.03 1.93 2.02
3134.589 2.01 2 1.98 1.88 1.89 1.77 1.54 1.3001 1.2021 1.0102
3153.879 0.8876 0.8654 0.8219 0.8414 0.6722 0.6478 0.8274 0.9305 0.9084 0.7729
3173.169 0.6782 0.6664 0.7259 0.6985 0.7952 0.8373 0.6893 0.811 0.8276 0.7552
3192.458 0.7288 0.6668 0.7113 0.6782 0.63 0.6206 0.6133 0.6269 0.5657 0.5748
3211.748 0.48745 0.463727 0.6111 0.6032 0.6845 0.6374 0.51091 0.6753 0.7172 0.6708
3231.038 0.5997 0.5924 0.678 0.6772 0.6259 0.5891 0.6559 0.6295 0.6079 0.7833
3250.328 0.7617 0.53709 0.4384 0.6398 0.6705 0.5089 0.52652 0.51044 0.51715 0.49493
3269.617 0.48106 0.55739 0.55225 0.49809 0.53975 0.5984 0.6582 0.7501 0.8507 0.7157
3288.907 0.467351 0.47361 0.5784 0.50086 0.4317 0.54848 0.5897 0.55182 0.4132 0.231
3308.197 0.321 0.464192 0.48469 0.49334 0.415 0.4468 0.3945 0.276 0.467288 0.55861
3327.487 0.6051 0.6751 0.7154 0.7122 0.6665 0.6508 0.54813 0.48817 0.45397 0.45808
3346.777 0.4027 0.3978 0.50756 0.460943 0.4463 0.5914 0.55872 0.51473 0.5964 0.4754
3366.066 0.4104 0.48306 0.53527 0.48179 0.49265 0.460301 0.48597 0.6611 0.6557 0.3999
3385.356 0.4005 0.5626 0.52057 0.48735 0.4993 0.6289 0.669 0.6443 0.5785 0.5187
3404.646 0.54366 0.6805 0.6704 0.4328 0.411 0.52477 0.52844 0.49973 0.488 0.45106
3423.936 0.424 0.49918 0.48681 0.5881 0.7171 0.6246 0.5687 0.53689 0.6459 0.7654
3443.225 0.8155 0.8373 0.8979 1.1846 1.2097 1.0955 1.1521 1.1742 1.0323 0.8903
3462.515 1.1085 1.3396 1.1331 1.1182 1.3297 1.51 1.7 1.82 1.94 2.12
3481.805 2.46 2.86 3.22 3.63 3.91 4.15 4.41 4.49 4.74 4.97
3501.095 5.07 5.39 5.62 5.8 6.3 6.92 7.69 8.64 9.59 10.01
3520.385 9.86 9.58 9.42 9.22 8.78 7.83 6.38 4.97 3.9 3.21
3539.674 2.61 2.09 1.74 1.4393 1.1156 0.9826 0.7453 0.6563 0.7405 0.6256
3558.964 0.6248 0.7045 0.7136 0.51141 0.349 0.47691 0.52983 0.53904 0.6588 0.5925
3578.254 0.6849 0.8484 0.6731 0.4303 0.3751 0.347 0.465035 0.609 0.53342 0.47129
3597.544 0.4072 0.34 0.4028 0.50331 0.54254 0.53393 0.3704 0.339 0.3711 0.347
3616.833 0.4276 0.4109 0.5768 0.5919 0.4059 0.49587 0.569 0.6286 0.6801 0.6206
3636.123 0.47591 0.273 0.268 0.4202 0.4505 0.436 0.4128 0.4111 0.465653 0.52118
3655.413 0.47982 0.268 0.279 0.48848 0.5834 0.5709 0.52456 0.45435 0.47082 0.342
3674.703 0.249 0.359 0.5105 0.5198 0.4245 0.32 0.4244 0.5697 0.49329 0.48903
3693.993 0.3964 0.335 0.49982 0.50672 0.354 0.319 0.4258 0.6162 0.6017 0.54039
3713.282 0.50034 0.48735 0.4405 0.358 0.52285 0.6076 0.52828 0.54508 0.5667 0.50644
3732.572 0.4284 0.4417 0.4515 0.3779 0.304 0.3771 0.5976 0.54134 0.341 0.4298
3751.862 0.465877 0.293 0.289 0.48698 0.49234 0.465406 0.5639 0.54757 0.4398 0.47537
3771.152 0.5998 0.6228 0.460859 0.3981 0.4322 0.3844 0.4599 0.4192 0.4341 0.53169
3790.441 0.45085 0.4346 0.4048 0.49342 0.53734 0.322 0.076 0.21 0.3982 0.283
3809.731 0.224 0.216 0.271 0.329 0.464023 0.54734 0.465459 0.48133 0.45564 0.43
3829.021 0.5211 0.53689 0.465022 0.4159 0.4336 0.29 0.295 0.5962 0.6855 0.52573
3848.311 0.51985 0.6003 0.45513 0.33 0.45543 0.6755 0.6224 0.4004 0.49752 0.6611
3867.601 0.674 0.55742 0.5477 0.6153 0.5854 0.49387 0.47004 0.6701 0.6309 0.49311
3886.890 0.3936 0.3961 0.5873 0.6291 0.6324 0.6252 0.5353 0.49713 0.53353 0.573
3906.180 0.4491 0.233 0.326 0.609 0.6321 0.7561 0.6221 0.48341 0.6079 0.4283
3925.470 0.349 0.4305 0.3749 0.4113 0.53291 0.6353 0.8085 0.7698 0.6723 0.4412
3944.760 0.344 0.5991 0.6378 0.52102 0.48033 0.314 0.324 0.4325 0.4059 0.3934
3964.049 0.4095 0.446 0.47166 0.6304 0.6505 0.50671 0.49803 0.6296 0.8289 0.6053
3983.339 0.31 0.401 0.50557 0.5898 0.5655 0.52595 0.6809 0.7055 0.53554 0.49434
##END=
