##TITLE=2-Methyl-1-phenyl-2-propen-1-ol
##JCAMP-DX=4.24
##DATA TYPE=INFRARED SPECTRUM
##ORIGIN=NIST Mass Spectrometry Data Center
##OWNER=NIST Standard Reference Data Program
Collection (C) 2018 copyright by the U.S. Secretary of Commerce
on behalf of the United States of America. All rights reserved.
##CAS REGISTRY NO=4383-08-8
##MOLFORM=C 10 H 12 O
##$NIST SOURCE=MSDC-IR
##SPECTROMETER/DATA SYSTEM=HP-GC/MS/IRD
##STATE=gas
##XUNITS=1/CM
##YUNITS=ABSORBANCE
##XFACTOR=1.0
##YFACTOR=0.000000800
##DELTAX=4.0
##FIRSTX=550.0
##LASTX=3846.0
##FIRSTY=0.001818
##MAXX=3846
##MINX=550
##MAXY=0.008
##MINY=0
##NPOINTS=825
##XYDATA=(X++(Y..Y))
550.0 2272 1455 939 1012 917 1008 1090 933 634 309
590.0 139 69 53 151 242 308 385 588 815 1124
630.0 1501 1673 1612 1453 1212 978 902 905 939 1027
670.0 1312 1773 2400 3296 4668 6431 8053 8831 8542 7497
710.0 6040 4827 4104 3826 4008 4434 4936 5238 5294 5152
750.0 4963 4742 4249 3581 2866 2097 1399 942 728 646
790.0 621 570 547 531 503 585 670 799 991 1245
830.0 1471 1566 1680 1717 1658 1620 1651 1663 1539 1387
870.0 1251 1227 1357 1700 2384 3634 5456 7273 8382 8462
910.0 7506 5734 3960 2681 1822 1348 1165 1144 1251 1504
950.0 1827 2069 2267 2412 2409 2321 2283 2338 2545 2926
990.0 3336 3753 4239 4813 5499 6371 7387 8389 9210 9710
1030.0 9994 10000 9655 9098 8402 7599 6673 5724 4851 4022
1070.0 3334 2848 2458 2113 1809 1536 1349 1239 1131 988
1110.0 922 903 863 783 723 734 750 807 909 1024
1150.0 1261 1628 1983 2446 2957 3357 3730 3914 3846 3705
1190.0 3598 3495 3433 3462 3483 3482 3533 3509 3437 3396
1230.0 3284 3182 3041 2901 2780 2633 2535 2517 2573 2650
1270.0 2746 2853 2892 2897 2887 2865 2845 2867 2905 2917
1310.0 2875 2830 2867 2906 2844 2805 2784 2777 2804 2809
1350.0 2840 2950 3102 3266 3419 3579 3643 3584 3354 2955
1390.0 2478 2138 1895 1726 1649 1620 1705 1826 1921 2049
1430.0 2244 2619 3131 3682 4180 4431 4414 4027 3413 2776
1470.0 2253 1954 1913 2132 2524 2754 2715 2417 1867 1306
1510.0 895 667 600 584 533 492 478 514 526 459
1550.0 420 429 457 447 472 504 539 558 608 786
1590.0 967 1134 1298 1332 1246 1078 923 846 790 827
1630.0 984 1200 1434 1677 1887 1982 1874 1570 1221 953
1670.0 684 481 389 317 256 170 148 159 188 173
1710.0 123 163 165 135 151 176 196 217 229 209
1750.0 195 189 195 186 187 204 183 198 276 373
1790.0 523 704 843 956 1003 961 854 747 631 475
1830.0 354 283 219 180 150 136 166 178 185 264
1870.0 335 372 411 427 442 430 363 270 211 135
1910.0 85 99 112 141 183 250 367 448 483 526
1950.0 526 475 417 345 265 181 136 87 65 96
1990.0 103 102 97 72 61 79 72 43 38 37
2030.0 20 53 79 91 119 113 76 75 94 110
2070.0 120 107 97 79 71 69 69 79 81 76
2110.0 64 65 68 67 68 84 79 57 57 61
2150.0 56 64 69 51 66 92 91 87 84 85
2190.0 86 79 63 66 68 51 48 40 70 82
2230.0 81 85 70 71 69 75 72 55 77 123
2270.0 115 100 121 114 104 88 84 111 122 126
2310.0 133 149 153 154 160 151 147 133 132 129
2350.0 112 134 120 97 125 144 125 129 145 118
2390.0 89 68 74 105 107 112 114 91 73 92
2430.0 101 95 113 113 94 73 58 57 79 85
2470.0 79 68 75 79 50 67 97 88 73 72
2510.0 82 84 91 122 144 154 146 116 132 124
2550.0 90 111 112 134 96 87 152 167 140 109
2590.0 150 182 186 189 177 137 107 97 112 133
2630.0 143 138 107 119 123 110 122 100 132 149
2670.0 113 141 164 155 147 125 111 152 174 179
2710.0 188 186 190 201 241 260 252 263 255 242
2750.0 242 223 188 182 228 241 216 238 274 283
2790.0 325 360 368 401 437 468 519 554 603 729
2830.0 859 934 1100 1409 1715 2052 2467 2898 3293 3653
2870.0 3883 4001 4066 4030 3891 3677 3440 3222 3054 2914
2910.0 2875 2985 3106 3212 3357 3379 3231 3023 2881 2787
2950.0 2730 2781 2835 2888 3068 3386 3896 4346 4553 4539
2990.0 4244 3781 3388 3044 2808 2768 2838 3134 3660 4361
3030.0 5030 5377 5329 4995 4525 4209 4293 4841 5816 6944
3070.0 7792 8225 8099 7400 6502 5683 4907 4109 3262 2471
3110.0 1855 1433 1057 779 616 507 399 340 284 245
3150.0 256 294 298 226 157 214 251 224 180 124
3190.0 130 102 50 69 96 119 144 123 117 103
3230.0 99 76 73 96 70 61 57 10 33 80
3270.0 59 12 0 38 91 94 86 57 100 105
3310.0 51 66 32 39 59 68 82 98 119 127
3350.0 74 81 80 51 91 122 137 128 120 141
3390.0 167 146 118 177 152 139 192 89 70 126
3430.0 108 139 197 188 165 173 159 98 115 154
3470.0 79 73 144 116 75 124 132 120 140 161
3510.0 154 124 64 71 140 118 105 139 120 153
3550.0 156 167 179 152 156 93 59 90 66 72
3590.0 173 250 272 251 312 481 517 501 602 928
3630.0 1423 1992 2641 3229 3556 3459 3102 2503 1731 1152
3670.0 823 617 446 364 369 290 220 203 246 303
3710.0 243 113 108 166 166 160 205 217 226 246
3750.0 239 227 218 146 96 105 109 170 165 190
3790.0 219 137 163 200 136 70 132 191 159 141
3830.0 175 209 188 116 82
##END=
