##TITLE=2-Hydroxy-3-methoxybenzyl alcohol
##JCAMP-DX=4.24
##DATA TYPE=INFRARED SPECTRUM
##ORIGIN=EPA-IR VAPOR PHASE LIBRARY
##OWNER=SRD/NIST
Collection (C) 2018 copyright by the U.S. Secretary of Commerce
on behalf of the United States of America. All rights reserved.
##CAS REGISTRY NO=4383-05-5
##MOLFORM=C 8 H 10 O 3
##$NIST SOURCE=MSDC-IR
##STATE=gas
##XUNITS=1/CM
##YUNITS=ABSORBANCE
##XFACTOR=1.
##YFACTOR=0.001
##DELTAX=1.92898
##FIRSTX=549.8
##LASTX=4000.7
##FIRSTY=8.19
##MAXX=4000.7
##MINX=549.759
##MAXY=0.14871
##MINY=0.0001958
##NPOINTS=1790
##XYDATA=(X++(Y..Y))
549.759 8.19 7.96 7.14 6.71 6.59 6.53 6.55 6.97 6.83 6.52
569.049 5.94 5.89 5.99 5.27 4.69 4.58 4.53 3.98 3.75 4.17
588.339 4.29 3.72 3.47 3.66 3.64 3.72 3.81 3.78 3.87 4.25
607.628 4.42 4.17 4.36 4.4 4.03 3.95 4.22 4.2 4.16 4.59
626.918 4.55 3.9 3.9 3.62 3.37 3.94 3.85 3.46 3.94 4.02
646.208 3.18 3.34 3.61 3.28 3.45 3.89 4.07 4.46 4.49 4
665.498 4.29 4.66 4.56 4.94 5.37 5.55 5.77 6.32 6.99 7.93
684.787 8.86 9.9 11.41 12.4 13.6 14.72 15.78 16.8 17.05 17.54
704.077 17.49 16.94 17.13 17.41 17.69 18.8 20.4 22.36 24.87 27.36
723.367 30.14 33.65 37.59 42 44.81 43.79 40.82 37.53 33.93 30.95
742.657 28.09 24.85 21.86 19.56 17.83 16.06 15.03 14.97 15.02 15.08
761.947 15.32 16.25 17.35 18.16 19.08 19.85 20.24 20.52 20.43 19.7
781.236 18.77 17.89 16.73 15.01 13.5 12.4 10.98 9.73 8.81 7.8
800.526 7.08 6.69 6.45 6.34 6.23 6.46 6.96 7.49 8.2 9.03
819.816 10.07 11.28 12.14 12.96 13.76 13.95 14.17 14.35 13.86 13.32
839.106 12.47 11.39 10.86 10.27 9.68 9.15 8.87 8.89 9.01 9.15
858.395 8.88 9.19 9.43 9.35 9.76 10.24 10.51 10.82 11.36 12.04
877.685 12.82 13.33 13.57 13.99 14.52 15.11 15.48 15.98 16.54 16.64
896.975 16.53 16.51 16.94 16.91 16.9 16.75 16.13 15.79 15.65 15.38
916.265 15.1 14.42 13.48 13.27 12.94 12.51 12.09 11.68 11.74 11.44
935.555 11.37 11.84 12.2 12.51 13.06 13.69 14.11 14.46 15.14 15.59
954.844 15.69 16.14 16.43 16.63 16.71 16.66 16.73 16.69 16.64 16.82
974.134 17.09 17.46 18.29 19.42 20.61 21.62 22.49 23.86 25.89 27.89
993.424 29.65 32.24 35.03 37.33 40.2 43.35 46.8 50.38 53.53 57.28
1012.714 61.56 65.36 69.12 72.71 76.14 79.2 81.25 82.31 81.4 80.08
1032.003 78.14 74.68 70.87 66.81 62.85 58.43 53.78 50.05 47.24 44.32
1051.293 41.91 40.09 39.22 38.9 38.55 38.97 39.87 40.99 42.34 43.93
1070.583 45.29 46.41 47.57 48.76 49.3 49.24 48.56 48.12 46.97 45.18
1089.873 43.71 40.48 37.17 33.8 30.44 27.72 25.06 21.99 19.12 18.06
1109.163 16.8 14.95 13.84 13.35 13.4 12.58 11.44 10.78 10.93 11.9
1128.452 11.44 10.6 10.73 10.6 9.62 9.77 10.28 10.3 11.76 12.93
1147.742 12.76 12.46 13.54 15.42 16.45 17.74 19.2 20.35 21.67 22.63
1167.032 23.67 24.67 25.76 27.7 28.71 28.87 29.12 30.5 32.67 33.87
1186.322 35.34 37.42 38.89 39.97 41.43 43.71 47.37 51.04 55.11 60.18
1205.611 66.43 73.61 81.05 89.64 97.33 103.31 107.74 110.93 112.36 111.76
1224.901 108.75 104 98.37 90.97 83.01 76.03 70.36 66 63.22 62.38
1244.191 63.81 66.56 71.14 77.91 86.25 95.59 105.98 117.08 127.33 136.17
1263.481 142.86 147.16 148.71 147.39 143.46 136.58 126.99 114.98 102.2 89.98
1282.771 78.55 68.54 59.88 52.58 46.29 40.96 36.62 32.6 29.29 26.76
1302.060 24.4 22.71 21.45 20.53 20.13 19.73 19.47 19.43 19.63 20.03
1321.350 20.73 21.7 22.7 23.92 25.44 27.15 29.13 31.64 34.55 37.65
1340.640 40.8 43.82 46.54 48.63 49.99 50.56 50.29 49.28 47.52 45.24
1359.930 42.56 39.56 36.6 34 31.86 30.4 29.42 28.86 28.69 28.7
1379.219 28.97 29.28 29.64 30.07 30.29 30.24 30.05 29.72 29.08 27.98
1398.509 26.69 25.25 23.83 22.43 20.92 19.6 18.54 17.62 16.99 16.63
1417.799 16.44 16.32 16.32 16.73 17.41 18.48 19.94 21.7 24.15 27.3
1437.089 30.95 34.82 38.77 42.03 44.22 45.71 47.64 50.61 53.6 55.87
1456.378 58.12 60.87 64.62 69.8 76.57 85.08 94.91 105.34 115.41 123.84
1475.668 129.79 133.36 134.77 134.27 130.96 123.6 112.3 98.98 85.72 73.74
1494.958 63.28 53.97 45.57 38.31 32.29 27.48 23.48 20.09 17.24 14.83
1514.248 12.97 11.53 10.45 9.69 8.81 8.09 7.64 7.11 6.63 6.35
1533.538 6.21 6.1 6.13 6.08 5.94 5.87 5.65 5.55 5.7 5.55
1552.827 5.47 5.65 5.86 6.18 6.1 5.87 6.05 6.36 6.68 7.09
1572.117 7.69 8.54 9.53 10.63 12.04 13.53 15.08 16.67 18.03 19.14
1591.407 19.63 19.75 19.84 19.41 18.67 17.92 17.11 16.16 15.3 15.03
1610.697 14.94 14.96 15.24 15.5 15.61 15.66 15.48 14.85 13.94 13.07
1629.986 12.11 10.77 9.52 8.43 7.16 6.08 5.37 4.91 4.59 4.32
1649.276 4.09 4.01 3.98 3.75 3.51 3.39 3.5 3.69 3.58 3.55
1668.566 3.66 3.55 3.39 3.48 3.43 3.25 3.16 3.08 3.14 2.97
1687.856 2.77 2.58 2.36 2.43 2.59 2.52 2.51 2.42 2.26 2.14
1707.146 1.95 2.07 2.26 2.26 2.21 2.38 2.4 2.18 2.1 2.06
1726.435 2.01 2.05 2.11 2.19 2.35 2.3 2.18 1.99 1.9 1.96
1745.725 1.96 1.92 1.94 2.02 1.92 1.85 1.77 1.67 1.71 1.66
1765.015 1.69 1.89 1.81 1.76 1.83 1.72 1.72 1.7 1.5 1.48
1784.305 1.54 1.53 1.52 1.59 1.67 1.69 1.78 1.77 1.84 2.03
1803.594 2.1 2.2 2.27 2.33 2.4 2.42 2.48 2.45 2.43 2.43
1822.884 2.35 2.32 2.12 1.91 1.92 1.91 1.85 1.83 1.82 1.69
1842.174 1.59 1.58 1.42 1.41 1.4 1.23 1.2 1.21 1.27 1.32
1861.464 1.36 1.4 1.44 1.58 1.68 1.67 1.77 2.02 2.13 2.19
1880.754 2.34 2.56 2.78 2.9 2.97 3.04 3.01 2.89 2.74 2.58
1900.043 2.51 2.4 2.14 1.98 1.99 1.95 1.9 1.77 1.64 1.74
1919.333 1.72 1.58 1.56 1.53 1.49 1.49 1.61 1.67 1.59 1.57
1938.623 1.62 1.61 1.59 1.75 1.9 1.89 1.92 2.02 2.08 2.21
1957.913 2.14 2.12 2.29 2.32 2.35 2.36 2.39 2.47 2.4 2.36
1977.202 2.37 2.37 2.35 2.29 2.28 2.29 2.28 2.17 2.14 2.11
1996.492 2 1.96 1.97 1.93 1.83 1.8 1.83 1.85 1.83 1.77
2015.782 1.75 1.76 1.74 1.63 1.67 1.71 1.74 1.88 1.88 1.9
2035.072 1.98 2.05 2.14 2.18 2.19 2.21 2.18 2.13 2.16 2.18
2054.362 2.18 2.22 2.09 2.01 2 1.87 1.81 1.69 1.57 1.55
2073.651 1.55 1.65 1.66 1.56 1.43 1.5 1.64 1.6 1.58 1.49
2092.941 1.44 1.49 1.49 1.4 1.5 1.62 1.59 1.43 1.28 1.44
2112.231 1.53 1.4 1.39 1.38 1.31 1.37 1.35 1.25 1.27 1.42
2131.521 1.46 1.44 1.45 1.44 1.44 1.5 1.61 1.62 1.54 1.47
2150.810 1.53 1.67 1.76 1.72 1.76 1.8 1.85 2.03 1.99 1.86
2170.100 1.87 2.01 2.05 1.98 1.84 1.72 1.77 1.66 1.54 1.44
2189.390 1.41 1.37 1.29 1.29 1.15 1.04 1.12 1.14 1.08 1.07
2208.680 1.01 0.9444 0.9472 1.01 0.9584 0.9706 0.8738 0.7618 0.9644 0.9945
2227.970 0.9581 0.931 0.8214 0.8798 0.9094 0.8442 0.8731 0.9257 0.9272 0.9067
2247.259 0.9336 0.9788 0.9292 0.8161 0.7891 0.8398 0.8786 0.8871 0.8657 0.9317
2266.549 0.8406 0.7959 0.9715 0.9119 0.8854 0.9495 0.8836 0.8682 1 0.9063
2285.839 0.7447 0.8546 0.9946 1.1 1.21 1.2 1.12 1.13 1.23 1.27
2305.129 1.23 1.17 1.21 1.22 1.07 1.06 1.28 1.27 1.2 1.23
2324.418 1.27 1.33 1.24 1.1 1.02 1.1 1.14 1.14 1.04 0.9744
2343.708 1.05 1.04 1.07 1.04 1.07 0.9852 0.9716 1.17 1.12 1.06
2362.998 1.19 1.13 1.08 1.14 1.07 1.18 1.21 1.08 1.12 1.14
2382.288 1.06 0.9099 1.03 1.19 1.11 0.987 1.03 1.22 1.19 1.17
2401.578 1.16 1.22 1.31 1.4 1.54 1.39 1.44 1.57 1.41 1.28
2420.867 1.3 1.4 1.5 1.56 1.53 1.5 1.57 1.57 1.45 1.49
2440.157 1.53 1.48 1.43 1.52 1.51 1.39 1.39 1.47 1.51 1.6
2459.447 1.6 1.43 1.49 1.48 1.42 1.38 1.29 1.48 1.65 1.7
2478.737 1.8 1.79 1.78 1.88 1.94 2.02 2.11 2.03 2.03 2.26
2498.026 2.16 2 2.03 2.06 2.04 1.99 2.13 2.11 1.85 1.86
2517.316 1.8 1.81 2.1 2.04 1.87 1.91 1.92 1.74 1.67 1.51
2536.606 1.43 1.61 1.68 1.52 1.21 1.55 1.7 1.47 1.35 1.26
2555.896 1.32 1.23 1.23 1.19 1.17 1.26 1.3 1.19 1.04 1.02
2575.186 1.06 1.08 1.18 1.21 1.01 1.07 1.25 1.16 1.08 1.07
2594.475 1.11 1.21 1.34 1.3 1.12 1.17 1.26 1.38 1.38 1.19
2613.765 1.16 1.17 1.01 1.09 1.24 1.26 1.16 1.13 1.25 1.22
2633.055 1.18 1.1 1.02 1.15 1.22 1.19 1.22 1.24 1.22 1.12
2652.345 1.09 1.02 0.9713 1.18 1.31 1.31 1.25 1.07 1.24 1.47
2671.634 1.39 1.4 1.4 1.45 1.52 1.47 1.5 1.47 1.47 1.59
2690.924 1.61 1.75 1.78 1.65 1.6 1.61 1.63 1.56 1.49 1.49
2710.214 1.46 1.44 1.5 1.56 1.62 1.57 1.5 1.54 1.52 1.41
2729.504 1.43 1.48 1.55 1.68 1.62 1.53 1.41 1.45 1.73 1.81
2748.794 1.8 1.68 1.53 1.69 1.88 1.89 1.86 1.87 2.06 2.12
2768.083 1.85 1.78 1.83 1.87 2.1 2.08 2.09 2.27 2.21 2.21
2787.373 2.43 2.66 2.8 2.78 2.88 3.06 3.29 3.46 3.6 3.8
2806.663 3.94 4.28 4.55 4.83 5.2 5.38 5.54 5.7 5.91 6.23
2825.953 6.75 7.44 8.08 8.89 10 11.43 13.07 14.75 16.52 18.21
2845.242 19.48 20.38 20.98 21.07 20.82 20.28 19.53 18.84 18.24 17.76
2864.532 17.33 17.18 17.42 17.75 18.12 18.56 19.42 20.12 20.42 20.54
2883.822 20.71 20.83 20.58 20.61 20.54 20.09 19.87 19.71 19.52 19.39
2903.112 19.26 19.44 19.73 19.95 20.12 20.25 20.86 21.53 21.77 21.86
2922.401 22.11 22.4 22.66 23.21 23.71 24.31 25.41 26.84 28.63 30.62
2941.691 32.63 34.9 36.79 38.05 39.08 39.63 39.83 39.34 38.31 37.04
2960.981 35.28 33.55 32.1 30.55 28.88 27.16 25.34 23.85 22.29 20.79
2980.271 19.55 18.12 16.84 16.12 15.63 15.27 15.29 15.56 16.21 17.24
2999.561 18.18 18.91 19.68 20.01 19.86 19.38 18.84 18.33 17.53 16.31
3018.850 14.78 13.27 11.93 10.63 9.87 9.45 9.22 9.48 9.58 9.7
3038.140 10.03 10.54 11.24 11.91 12.63 13.24 13.75 14.2 14.78 15.36
3057.430 15.68 16.11 16.52 16.67 16.46 16.18 15.73 15.18 14.69 14.2
3076.720 13.64 12.95 12.31 11.87 11.2 10.34 9.81 9.22 8.55 7.88
3096.009 7.25 6.57 5.84 5.27 4.88 4.54 4.1 3.7 3.29 3.06
3115.299 3.04 2.72 2.5 2.4 2.11 1.89 1.86 1.74 1.74 1.74
3134.589 1.73 1.55 1.33 1.43 1.48 1.33 0.951 0.9 0.9157 1.15
3153.879 1.27 1.02 0.9503 0.8836 0.859 0.9763 1.15 1.31 1.1 0.9987
3173.169 1.09 1.09 1.19 1.17 1.09 0.962 0.9487 0.9779 1.06 0.8547
3192.458 0.4404 0.6583 0.8076 0.7869 0.9336 0.7879 0.6218 0.8943 1.3 1
3211.748 0.5405 0.599 0.7906 1.01 0.9674 0.8614 1.06 1.26 1.13 0.9834
3231.038 1.04 1.04 1.11 1.1 0.898 0.9789 1.09 0.9693 1.04 1.07
3250.328 1.08 1.14 1.05 1.01 1.18 1.15 0.9694 0.9793 1 0.9478
3269.617 0.7218 0.5309 0.5774 0.7988 0.813 0.7242 0.8175 0.8121 0.7546 0.6381
3288.907 0.5205 0.4877 0.7144 0.8779 0.6344 0.6831 0.9002 0.8522 0.9467 0.9245
3308.197 0.8059 0.9046 1.09 1.02 0.6138 0.5105 0.6736 0.8518 0.9923 1.08
3327.487 0.8893 0.6015 0.7109 0.9545 0.8727 0.5087 0.3523 0.6031 0.9387 1.02
3346.777 0.8165 0.6219 0.6524 0.8159 0.898 0.7816 0.7871 1.01 0.9996 0.8192
3366.066 1.06 1.28 1.25 1.3 1.04 0.7548 0.8887 1.06 1 0.885
3385.356 1.03 1.28 1.29 1.36 1.45 1.29 1.19 1.44 1.57 1.48
3404.646 1.71 1.99 1.88 1.44 1.19 1.37 1.29 1.19 1.48 1.91
3423.936 1.99 1.87 1.72 1.62 1.99 2.11 1.98 2.06 2.06 1.94
3443.225 1.89 1.88 1.95 2.1 2.17 2.27 2.28 2.23 2.44 2.83
3462.515 3.19 3.13 3 3.24 3.6 3.78 3.93 4.39 4.73 4.85
3481.805 5.24 5.49 5.67 6 6.23 6.5 6.62 6.57 6.9 7.04
3501.095 6.79 6.75 6.4 6.19 6.57 6.64 6.26 6.14 6.08 5.69
3520.385 5.52 5.77 5.62 5.23 5.15 5.03 4.96 5.12 5.06 5.25
3539.674 5.67 5.87 6.39 7.08 7.62 8.6 9.98 11.42 13.49 16.62
3558.964 20.65 25.29 31.48 38.9 46.5 54 60.98 67.24 72.37 75.89
3578.254 77.5 76.95 74.29 69.33 62.88 56.06 48.58 40.99 33.89 27.34
3597.544 21.82 17.16 13.66 11.2 9.28 8.15 7.5 7.03 6.65 6.56
3616.833 6.48 6.55 6.7 6.92 7.33 8.06 9.08 9.74 10.21 10.87
3636.123 11.49 11.79 12.1 12.16 12.03 11.76 11.18 10.52 9.91 9.38
3655.413 9.05 8.83 8.26 7.73 7.4 7.12 6.97 6.77 6.49 6.4
3674.703 6.39 6.1 5.66 5.37 5.05 4.72 4.33 4.09 4.08 3.76
3693.993 3.4 2.98 2.75 2.73 2.43 2.14 2.11 2.25 2.16 2.05
3713.282 1.94 1.66 1.36 1.25 1.4 1.24 1.03 1.22 1.14 1.05
3732.572 1.21 1.2 1.09 0.9324 1.09 1.15 1.05 1 0.9915 1.06
3751.862 0.9564 0.7532 0.9326 1.31 1.18 1.06 0.8201 0.8761 1.09 0.7163
3771.152 0.2613 0.1958 0.588 0.5296 0.357 0.4849 0.7641 0.697 0.6901 0.8488
3790.441 0.722 0.7537 0.7869 0.4822 0.2132 0.6675 0.8328 0.6649 0.8447 0.866
3809.731 0.9052 0.8884 0.8453 0.9635 0.9791 0.9784 1.01 0.9481 0.9435 0.9132
3829.021 1.01 1.07 1.03 0.9539 0.9005 1 0.9749 0.8384 0.8316 0.9041
3848.311 0.8512 1.16 1.49 1.37 1.18 0.9462 0.9438 1.27 1.19 1.26
3867.601 1.49 1.31 1.31 1.3 1.27 1.24 1.27 1.42 1.42 1.31
3886.890 1.41 1.61 1.47 1.13 1.23 1.27 1.08 1.26 1.36 1.1
3906.180 1.17 1.3 1.07 0.8912 0.8212 1.11 1.09 0.872 0.9558 1.1
3925.470 1.13 1.27 1.08 0.7124 0.8241 0.8765 0.8433 0.667 0.7503 1.03
3944.760 0.9618 0.8478 0.6745 0.574 0.6054 0.8096 0.8945 0.8004 0.8852 0.8165
3964.049 0.6512 0.7296 0.4735 0.3442 0.7294 0.8203 0.6665 0.5282 0.4125 0.417
3983.339 0.6191 0.8558 0.7489 0.5585 0.8182 0.7643 0.439 0.3462 0.3398 0.4641
##END=
