##TITLE=3,5-Dimethoxy-4-hydroxyphenylacetic acid
##JCAMP-DX=4.24
##DATA TYPE=INFRARED SPECTRUM
##ORIGIN=EPA-IR VAPOR PHASE LIBRARY
##OWNER=SRD/NIST
Collection (C) 2018 copyright by the U.S. Secretary of Commerce
on behalf of the United States of America. All rights reserved.
##CAS REGISTRY NO=4385-56-2
##MOLFORM=C 10 H 12 O 5
##$NIST SOURCE=MSDC-IR
##STATE=gas
##XUNITS=1/CM
##YUNITS=ABSORBANCE
##XFACTOR=1.
##YFACTOR=0.001
##DELTAX=1.92898
##FIRSTX=549.8
##LASTX=4000.7
##FIRSTY=1.893
##MAXX=4000.7
##MINX=549.759
##MAXY=0.033863
##MINY=0
##NPOINTS=1790
##XYDATA=(X++(Y..Y))
549.759 1.893 2.093 2.053 1.843 2.043 2.363 2.613 2.733 2.533 2.643
569.049 3.233 3.393 3.193 3.363 3.933 4.273 4.673 4.953 5.213 5.873
588.339 6.803 7.313 7.733 8.073 7.983 8.083 7.993 7.783 7.673 7.353
607.628 6.783 6.503 6.253 5.963 6.003 6.013 5.723 5.383 5.303 5.313
626.918 5.153 4.893 4.873 4.923 4.583 4.383 4.443 4.433 4.183 3.743
646.208 3.703 3.643 3.443 3.383 3.193 2.983 2.953 2.783 2.443 2.323
665.498 2.233 2.143 1.993 1.743 1.693 1.543 1.423 1.523 1.593 1.573
684.787 1.553 1.473 1.463 1.413 1.1502 1.1975 1.3368 1.3691 1.443 1.2683
704.077 1.2326 1.3208 1.169 1.138 1.0876 1.0657 1.2515 1.2803 1.1604 1.0507
723.367 1.1073 1.1991 1.1932 1.2905 1.2357 1.1469 1.2955 1.443 1.533 1.3892
742.657 1.3156 1.3857 1.433 1.433 1.403 1.2809 1.1112 1.1469 1.21 1.2487
761.947 1.2594 1.1197 0.9716 1.0224 0.906 0.8036 0.9939 0.9216 0.7908 0.965
781.236 1.0015 0.928 1.0515 1.2327 1.453 1.613 1.833 2.103 2.273 2.343
800.526 2.503 2.783 2.953 2.983 2.793 2.553 2.533 2.313 2.143 2.373
819.816 2.323 2.353 2.483 2.443 2.303 2.193 2.223 2.253 2.123 1.883
839.106 1.763 1.603 1.463 1.3342 1.3499 1.393 1.3262 1.2565 1.1963 1.1515
858.395 1.403 1.533 1.413 1.393 1.3831 1.503 1.493 1.2765 1.3218 1.623
877.685 1.673 1.553 1.403 1.3914 1.443 1.3462 1.413 1.633 1.703 1.823
896.975 1.903 1.933 2.063 2.063 2.133 2.293 2.303 2.323 2.373 2.353
916.265 2.343 2.243 2.073 2.033 1.993 1.843 1.813 1.623 1.593 1.773
935.555 1.773 1.763 1.773 1.773 1.773 1.883 1.963 1.913 1.943 1.933
954.844 1.763 1.843 1.863 1.773 1.843 1.833 1.803 1.653 1.613 1.653
974.134 1.533 1.493 1.553 1.543 1.523 1.453 1.2751 1.1509 1.2247 1.463
993.424 1.553 1.443 1.3847 1.493 1.583 1.503 1.573 1.953 1.833 1.633
1012.714 1.533 1.603 1.883 2.053 2.233 2.283 2.183 2.033 2.343 2.903
1032.003 2.963 2.763 3.213 3.763 3.823 3.943 4.043 3.683 3.493 3.343
1051.293 3.383 3.693 3.553 3.633 3.683 3.843 4.073 4.243 4.823 5.263
1070.583 5.883 6.443 7.103 7.833 8.603 9.893 11.073 11.833 12.963 14.653
1089.873 16.073 17.283 18.813 20.683 22.533 24.333 26.413 28.353 30.113 31.863
1109.163 33.253 33.863 33.803 32.963 31.353 29.463 27.323 24.793 22.323 20.203
1128.452 18.353 16.783 15.263 13.893 12.633 11.623 10.753 9.853 9.093 8.373
1147.742 7.853 7.183 6.453 6.153 6.003 5.543 5.123 5.073 5.163 4.883
1167.032 4.553 4.603 4.663 4.733 4.863 5.083 5.213 5.503 5.903 6.223
1186.322 6.363 6.883 7.703 7.953 8.213 8.753 9.363 10.453 11.963 13.243
1205.611 14.713 16.843 19.153 21.163 23.263 25.303 26.583 26.753 25.993 24.513
1224.901 22.113 19.433 17.013 14.693 13.003 12.073 11.313 10.703 10.383 10.273
1244.191 10.083 9.653 9.083 8.453 7.713 7.083 6.673 6.373 6.013 5.673
1263.481 5.403 5.113 5.033 5.053 5.053 5.033 5.223 5.393 5.483 5.573
1282.771 5.793 6.193 6.563 6.793 6.963 7.253 7.553 7.893 8.413 9.003
1302.060 9.593 10.363 11.273 12.293 13.483 14.753 15.913 16.923 17.733 18.223
1321.350 18.193 17.523 16.433 15.163 13.803 12.393 11.013 9.933 9.053 8.233
1340.640 7.573 7.043 6.693 6.553 6.413 6.353 6.353 6.313 6.373 6.483
1359.930 6.533 6.523 6.413 6.223 5.963 5.683 5.333 4.863 4.463 4.053
1379.219 3.693 3.443 3.183 2.923 2.713 2.603 2.573 2.563 2.543 2.483
1398.509 2.443 2.563 2.633 2.663 2.793 2.963 3.203 3.433 3.733 4.103
1417.799 4.563 5.203 5.873 6.563 7.183 7.723 8.073 8.173 8.113 7.763
1437.089 7.243 6.813 6.373 5.993 5.813 5.813 5.993 6.473 7.113 7.683
1456.378 8.223 8.743 9.193 9.323 9.143 8.833 8.413 7.843 7.253 6.763
1475.668 6.283 5.783 5.433 5.163 5.083 5.283 5.563 6.003 6.743 7.663
1494.958 8.733 10.043 11.523 13.043 14.463 15.463 16.033 16.213 15.843 14.903
1514.248 13.513 11.793 10.053 8.483 7.073 5.943 4.903 4.063 3.413 2.893
1533.538 2.543 2.383 2.213 1.943 1.773 1.753 1.733 1.653 1.513 1.483
1552.827 1.593 1.633 1.663 1.563 1.603 1.773 1.863 1.913 1.923 2.053
1572.117 2.183 2.253 2.443 2.693 2.923 3.223 3.443 3.633 4.033 4.563
1591.407 5.153 5.773 6.353 7.053 7.773 8.383 8.993 9.483 9.733 9.823
1610.697 9.653 9.163 8.423 7.523 6.823 6.113 5.313 4.673 4.133 3.623
1629.986 3.183 2.863 2.493 2.163 2.043 1.953 1.803 1.643 1.503 1.493
1649.276 1.563 1.393 1.2542 1.337 1.2917 1.2731 1.2434 1.2304 1.2377 1.1881
1668.566 1.2124 1.1978 1.2375 1.1602 1.0867 1.1598 1.215 1.1446 0.9911 1.0788
1687.856 1.1769 1.186 1.1761 1.2021 1.2117 1.1961 1.1897 1.2174 1.2701 1.3528
1707.146 1.443 1.423 1.453 1.543 1.593 1.613 1.753 1.933 2.143 2.303
1726.435 2.353 2.513 2.773 2.933 3.193 3.593 3.953 4.373 4.853 5.323
1745.725 5.813 6.343 6.933 7.533 8.143 8.723 9.343 10.083 10.833 11.673
1765.015 12.563 13.433 14.323 15.143 15.773 16.123 16.323 16.273 15.933 15.523
1784.305 14.983 14.263 13.553 12.903 12.213 11.583 10.923 10.103 9.243 8.423
1803.594 7.563 6.723 5.943 5.203 4.513 3.933 3.453 3.053 2.703 2.393
1822.884 2.143 1.923 1.773 1.683 1.563 1.423 1.2843 1.213 1.1503 1.0513
1842.174 0.9887 0.957 0.8962 0.8402 0.864 0.8653 0.8074 0.7609 0.7748 0.724
1861.464 0.6894 0.7334 0.7056 0.6129 0.6153 0.6486 0.6592 0.6684 0.6475 0.6796
1880.754 0.6584 0.5798 0.5174 0.5154 0.5648 0.6039 0.6006 0.5627 0.5662 0.5012
1900.043 0.46141 0.46953 0.46707 0.5201 0.5583 0.5773 0.5336 0.48211 0.5258 0.5417
1919.333 0.5584 0.6211 0.5854 0.5649 0.6106 0.6237 0.6437 0.6533 0.6758 0.6841
1938.623 0.6597 0.6198 0.6629 0.7153 0.6953 0.7258 0.6625 0.6734 0.7337 0.6883
1957.913 0.6803 0.6697 0.6372 0.6557 0.6901 0.699 0.6926 0.6556 0.6515 0.6441
1977.202 0.6533 0.6765 0.6843 0.633 0.625 0.6904 0.6751 0.6339 0.6049 0.6042
1996.492 0.6544 0.6877 0.6719 0.6651 0.6452 0.6588 0.6322 0.5806 0.6612 0.6959
2015.782 0.6812 0.7074 0.6601 0.5898 0.5825 0.6192 0.6447 0.6332 0.6344 0.6723
2035.072 0.7039 0.7135 0.7074 0.6506 0.608 0.6491 0.6264 0.6653 0.7114 0.6373
2054.362 0.5931 0.677 0.6897 0.6295 0.667 0.6743 0.6561 0.6108 0.5904 0.5933
2073.651 0.6141 0.5923 0.6168 0.6504 0.621 0.6519 0.6647 0.6845 0.6682 0.5805
2092.941 0.5678 0.592 0.5738 0.5371 0.5767 0.6026 0.5261 0.5541 0.5758 0.5779
2112.231 0.6157 0.5659 0.5763 0.6017 0.6021 0.6595 0.6812 0.636 0.5978 0.5793
2131.521 0.6063 0.6056 0.5726 0.5827 0.5928 0.5741 0.5554 0.5844 0.624 0.6251
2150.810 0.6269 0.6288 0.6462 0.6328 0.6124 0.6546 0.6443 0.6085 0.61 0.5877
2170.100 0.5059 0.4939 0.6334 0.7041 0.6679 0.634 0.6599 0.6438 0.5607 0.5559
2189.390 0.5894 0.5771 0.5272 0.577 0.6627 0.6781 0.6862 0.6657 0.6646 0.7004
2208.680 0.6433 0.5829 0.6076 0.6484 0.6406 0.6459 0.6397 0.5749 0.5908 0.6587
2227.970 0.6706 0.6352 0.6496 0.6877 0.6326 0.5748 0.6443 0.699 0.5914 0.5046
2247.259 0.533 0.5148 0.5331 0.5295 0.46675 0.46594 0.5576 0.5904 0.6012 0.5882
2266.549 0.509 0.5559 0.5776 0.5204 0.5119 0.5682 0.5825 0.5376 0.46966 0.5217
2285.839 0.5563 0.5824 0.6182 0.5576 0.56 0.5385 0.546 0.5577 0.6199 0.6485
2305.129 0.6371 0.6549 0.6438 0.6361 0.6578 0.7733 0.7599 0.7217 0.7236 0.7708
2324.418 0.7592 0.7209 0.7219 0.6654 0.6898 0.7249 0.7195 0.6773 0.6827 0.6119
2343.708 0.5626 0.6391 0.6705 0.6699 0.7122 0.7555 0.7459 0.801 0.8269 0.7069
2362.998 0.6689 0.6865 0.7594 0.8472 0.798 0.7768 0.7707 0.7277 0.7028 0.6702
2382.288 0.5626 0.5109 0.5729 0.5952 0.5608 0.5608 0.5406 0.5023 0.5187 0.4978
2401.578 0.5451 0.6047 0.5503 0.543 0.5517 0.5016 0.48357 0.48665 0.4991 0.4989
2420.867 0.5069 0.45313 0.3458 0.41108 0.5161 0.5746 0.5685 0.5509 0.5476 0.546
2440.157 0.5325 0.5254 0.5425 0.6173 0.6424 0.5501 0.5437 0.526 0.5386 0.5196
2459.447 0.4847 0.5409 0.5588 0.547 0.4961 0.43188 0.46597 0.5104 0.5449 0.539
2478.737 0.46883 0.5049 0.5557 0.5359 0.5129 0.5309 0.58 0.5554 0.522 0.5718
2498.026 0.5972 0.6075 0.526 0.5034 0.5502 0.5408 0.5262 0.45183 0.48701 0.5559
2517.316 0.5546 0.5449 0.5432 0.5872 0.5961 0.5641 0.5659 0.6081 0.5882 0.6125
2536.606 0.6193 0.6039 0.5914 0.6256 0.6297 0.5058 0.5262 0.5626 0.5124 0.5537
2555.896 0.7078 0.6251 0.42116 0.44407 0.5302 0.5445 0.5498 0.551 0.5362 0.5335
2575.186 0.5192 0.5425 0.6146 0.5453 0.5093 0.5477 0.49123 0.4957 0.47659 0.4153
2594.475 0.49226 0.6262 0.6509 0.5991 0.46026 0.46877 0.5825 0.5301 0.47431 0.509
2613.765 0.48182 0.44748 0.5228 0.5742 0.6237 0.6334 0.6244 0.5566 0.41821 0.45858
2633.055 0.6543 0.6711 0.5309 0.5257 0.5847 0.5999 0.6128 0.6018 0.5949 0.6647
2652.345 0.6726 0.588 0.4948 0.5374 0.5377 0.49105 0.5946 0.5752 0.48702 0.5786
2671.634 0.5924 0.5391 0.6142 0.6173 0.6422 0.6149 0.5616 0.6402 0.5948 0.5618
2690.924 0.5793 0.5698 0.5656 0.5055 0.48355 0.5202 0.5228 0.46939 0.397791 0.38934
2710.214 0.48749 0.5923 0.5491 0.4986 0.5732 0.565 0.6014 0.7158 0.6921 0.5526
2729.504 0.5706 0.6384 0.5977 0.5669 0.5147 0.5106 0.5404 0.48031 0.40547 0.5049
2748.794 0.5824 0.5112 0.548 0.5858 0.5074 0.47553 0.46187 0.47213 0.5042 0.5263
2768.083 0.5932 0.6884 0.6794 0.616 0.6094 0.6422 0.5927 0.5271 0.5933 0.6286
2787.373 0.556 0.6196 0.7531 0.6928 0.6885 0.7778 0.8022 0.8115 0.8412 0.8355
2806.663 0.7996 0.9059 1.0177 1.0472 1.0397 1.0601 1.1011 1.0677 1.1936 1.413
2825.953 1.523 1.573 1.643 1.733 1.993 2.263 2.523 2.933 3.203 3.383
2845.242 3.563 3.733 3.833 3.813 3.743 3.553 3.143 2.843 2.673 2.543
2864.532 2.333 2.183 2.073 1.933 2.043 2.143 2.063 1.963 1.963 2.053
2883.822 2.103 2.063 2.123 2.283 2.193 2.143 2.263 2.373 2.383 2.393
2903.112 2.473 2.463 2.623 2.733 2.763 2.843 2.993 3.223 3.353 3.433
2922.401 3.603 3.683 3.723 3.923 4.113 4.313 4.483 4.833 5.343 5.683
2941.691 6.133 6.573 6.943 7.233 7.213 6.993 6.753 6.323 5.903 5.603
2960.981 5.363 5.193 4.973 4.693 4.513 4.423 4.173 3.903 3.653 3.583
2980.271 3.583 3.423 3.333 3.283 3.373 3.483 3.573 3.593 3.613 3.893
2999.561 4.063 4.263 4.503 4.643 4.693 4.603 4.433 4.153 3.883 3.493
3018.850 2.983 2.493 2.133 1.923 1.713 1.603 1.513 1.413 1.423 1.463
3038.140 1.483 1.413 1.2915 1.2179 1.2092 1.2185 1.1259 1.1694 1.2431 1.2555
3057.430 1.2898 1.2644 1.2369 1.3526 1.3491 1.2748 1.2763 1.3223 1.3141 1.1752
3076.720 1.0211 0.9412 1.0723 1.1506 1.0292 0.8874 0.9212 0.9205 0.8686 0.8681
3096.009 0.7959 0.7456 0.8011 0.7359 0.625 0.6285 0.6733 0.8526 0.8324 0.5624
3115.299 0.5171 0.7079 0.6946 0.5755 0.6128 0.6257 0.6129 0.6704 0.6218 0.5173
3134.589 0.4227 0.5426 0.674 0.5535 0.5447 0.5363 0.5157 0.5684 0.5584 0.4835
3153.879 0.401911 0.5297 0.6133 0.48363 0.44069 0.47779 0.562 0.47313 0.42441 0.43021
3173.169 0.3369 0.3013 0.33 0.3337 0.3023 0.2983 0.396842 0.45309 0.3155 0.275
3192.458 0.40927 0.4017 0.3037 0.402532 0.5074 0.519 0.5618 0.5828 0.47789 0.401742
3211.748 0.41855 0.43444 0.3649 0.3132 0.3583 0.44989 0.4957 0.48675 0.3623 0.3451
3231.038 0.4967 0.42921 0.39089 0.3507 0.45848 0.5505 0.45317 0.43439 0.40853 0.41678
3250.328 0.38586 0.43599 0.48852 0.41363 0.303 0.277 0.247 0.283 0.43204 0.5115
3269.617 0.5517 0.5887 0.6187 0.42908 0.327 0.3207 0.213 0.291 0.273 0.252
3288.907 0.3063 0.24 0.208 0.3164 0.399097 0.289 0.281 0.282 0.238 0.208
3308.197 0.072 0.095 0.209 0.222 0.281 0.3026 0.174 0.26 0.40423 0.4748
3327.487 0.4931 0.269 0.124 0.184 0.189 0.14 0.193 0.248 0.239 0.2932
3346.777 0.251 0.186 0.282 0.29 0.3315 0.3136 0.259 0.3391 0.3723 0.400361
3366.066 0.3172 0.229 0.258 0.253 0.16 0.065 0.245 0.3825 0.252 0.13
3385.356 0.144 0.214 0.272 0.3479 0.3691 0.3654 0.3408 0.259 0.197 0.253
3404.646 0.3383 0.3288 0.3791 0.3608 0.192 0.13 0.244 0.3061 0.289 0.3286
3423.936 0.294 0.22 0.32 0.3634 0.28 0.271 0.277 0.3681 0.227 0.107
3443.225 0.252 0.234 0.182 0.3016 0.3156 0.263 0.206 0.272 0.3894 0.3638
3462.515 0.3728 0.3629 0.38528 0.4936 0.44837 0.274 0.25 0.277 0.3437 0.3527
3481.805 0.3502 0.3347 0.282 0.402277 0.46259 0.3562 0.3497 0.3758 0.45954 0.6645
3501.095 0.708 0.5242 0.42026 0.46341 0.45693 0.5148 0.5411 0.5091 0.5055 0.5015
3520.385 0.5076 0.5723 0.7208 0.8059 0.8874 0.8513 0.9715 1.0902 0.9597 0.9503
3539.674 1.1443 1.413 1.533 1.683 1.863 1.953 2.203 2.613 3.013 3.403
3558.964 3.883 4.663 5.903 7.583 9.613 11.953 13.953 15.543 16.563 16.663
3578.254 16.093 14.783 13.053 11.413 10.083 8.753 7.463 6.323 5.243 4.293
3597.544 3.603 3.063 2.373 1.913 1.593 1.2806 1.1744 1.0939 0.8209 0.7241
3616.833 0.7168 0.4734 0.398257 0.5416 0.46105 0.264 0.219 0.3801 0.44647 0.43375
3636.123 0.47091 0.3303 0.3212 0.400658 0.277 0.229 0.208 0.148 0.3028 0.46883
3655.413 0.347 0.266 0.3157 0.259 0.285 0.245 0.206 0.181 0.127 0.133
3674.703 0.113 0.262 0.42051 0.3586 0.402082 0.39062 0.285 0.349 0.3543 0.45091
3693.993 0.44575 0.235 0.232 0.261 0.187 0.157 0.067 0.205 0.23 0.203
3713.282 0.41259 0.42641 0.45713 0.4941 0.40412 0.181 0.276 0.255 0.148 0.2954
3732.572 0.155 0.164 0.247 0.3226 0.3229 0.059 0 0.096 0.139 0.188
3751.862 0.3213 0.3791 0.231 0.164 0.231 0.3742 0.46077 0.45061 0.3316 0.281
3771.152 0.39694 0.40003 0.3731 0.326 0.199 0.097 0.068 0.128 0.19 0.278
3790.441 0.265 0.273 0.232 0.233 0.293 0.148 0.077 0.143 0.113 0.282
3809.731 0.398809 0.23 0.268 0.194 0.14 0.228 0.254 0.152 0.12 0.275
3829.021 0.3127 0.249 0.275 0.267 0.204 0.145 0.141 0.202 0.207 0.27
3848.311 0.352 0.3223 0.134 0.125 0.242 0.41406 0.5832 0.47456 0.284 0.23
3867.601 0.3142 0.264 0.206 0.242 0.19 0.14 0.141 0.186 0.261 0.327
3886.890 0.3064 0.175 0.129 0.112 0.234 0.3145 0.183 0.113 0.157 0.177
3906.180 0.281 0.3363 0.3156 0.233 0.118 0.131 0.241 0.251 0.229 0.278
3925.470 0.199 0.184 0.231 0.287 0.3467 0.288 0.185 0.199 0.3155 0.233
3944.760 0.182 0.3154 0.324 0.2942 0.246 0.285 0.213 0.181 0.2 0.233
3964.049 0.326 0.25 0.159 0.113 0.236 0.3485 0.3 0.3648 0.48406 0.5519
3983.339 0.42367 0.3092 0.3416 0.225 0.18 0.212 0.208 0.243 0.26 0.265
##END=
