##TITLE=2-Amino-3-methylbenzoic acid
##JCAMP-DX=4.24
##DATA TYPE=INFRARED SPECTRUM
##ORIGIN=NIST Mass Spectrometry Data Center
##OWNER=NIST Standard Reference Data Program
Collection (C) 2018 copyright by the U.S. Secretary of Commerce
on behalf of the United States of America. All rights reserved.
##CAS REGISTRY NO=4389-45-1
##MOLFORM=C 8 H 9 N O 2
##$NIST SOURCE=MSDC-IR
##SPECTROMETER/DATA SYSTEM=HP-GC/MS/IRD
##STATE=gas
##XUNITS=1/CM
##YUNITS=ABSORBANCE
##XFACTOR=1.0
##YFACTOR=0.000002100
##DELTAX=4.0
##FIRSTX=550.0
##LASTX=3846.0
##FIRSTY=0.002333
##MAXX=3846
##MINX=550
##MAXY=0.021
##MINY=0
##NPOINTS=825
##XYDATA=(X++(Y..Y))
550.0 1111 2029 1833 2071 2230 2277 2117 1818 1490 1234
590.0 1002 836 744 707 754 886 1094 1329 1501 1515
630.0 1392 1172 872 640 559 526 462 455 508 551
670.0 588 659 856 1246 1682 1939 1956 1784 1375 849
710.0 555 461 463 534 631 828 1243 1794 2298 3040
750.0 3692 3201 2372 1829 1269 806 533 398 310 264
790.0 243 247 262 273 273 287 296 300 291 284
830.0 310 321 320 297 244 199 171 147 116 90
870.0 90 91 64 54 65 74 69 57 59 70
910.0 70 67 42 33 45 28 35 48 43 53
950.0 54 55 47 52 82 81 87 112 133 165
990.0 216 259 294 327 364 377 376 380 398 438
1030.0 493 564 671 829 1085 1465 1961 2611 3399 4245
1070.0 5019 5590 5868 5801 5377 4714 3980 3274 2730 2383
1110.0 2167 2004 1863 1742 1668 1652 1753 1977 2376 3002
1150.0 3705 4191 4374 4510 4632 4409 4021 3733 3249 2498
1190.0 1998 1940 2114 2325 2425 2339 2016 1524 1082 830
1230.0 723 723 787 876 985 1111 1215 1271 1281 1245
1270.0 1199 1178 1200 1283 1389 1455 1459 1418 1335 1257
1310.0 1236 1274 1321 1307 1236 1147 1073 1093 1250 1489
1350.0 1724 1863 1840 1671 1412 1137 944 902 924 923
1390.0 882 769 575 390 285 258 281 355 487 710
1430.0 1043 1420 1760 1991 2144 2178 2114 2069 2034 1958
1470.0 1845 1628 1301 998 749 560 436 354 302 257
1510.0 212 188 180 188 201 220 252 294 329 388
1550.0 497 652 897 1231 1608 1971 2225 2337 2368 2357
1590.0 2356 2497 2811 3234 3707 4178 4541 4666 4522 4051
1630.0 3293 2491 1832 1358 1050 882 778 724 704 677
1670.0 661 660 673 720 811 963 1234 1681 2401 3552
1710.0 5229 7197 8851 9813 10000 9122 7369 5543 4158 3209
1750.0 2580 2114 1613 1102 735 551 469 455 466 464
1790.0 453 412 346 295 249 196 163 144 143 147
1830.0 135 128 116 99 91 91 98 111 134 146
1870.0 140 125 100 74 57 45 36 37 54 74
1910.0 81 78 71 59 42 28 22 19 23 28
1950.0 27 25 17 13 13 10 8 11 17 10
1990.0 0 2 8 4 4 6 1 4 9 10
2030.0 16 19 16 13 11 11 13 16 11 14
2070.0 23 25 25 22 23 26 27 29 26 18
2110.0 16 26 30 32 40 48 44 51 57 47
2150.0 43 41 36 40 35 29 40 45 39 41
2190.0 38 29 35 49 54 42 35 38 33 23
2230.0 26 34 40 43 34 26 26 31 40 46
2270.0 45 47 50 49 50 53 46 46 52 57
2310.0 59 65 75 81 76 72 79 75 67 67
2350.0 66 66 72 73 69 67 58 50 41 39
2390.0 39 34 35 39 38 51 60 58 51 42
2430.0 44 54 59 55 53 60 58 55 55 55
2470.0 56 54 47 41 38 38 40 45 33 30
2510.0 39 47 46 50 52 41 46 48 42 45
2550.0 43 36 44 51 44 36 35 42 47 52
2590.0 56 52 51 49 41 44 45 40 49 49
2630.0 49 60 66 65 59 61 47 32 39 44
2670.0 39 37 53 49 39 56 53 42 47 46
2710.0 50 53 48 49 53 62 82 107 113 99
2750.0 102 116 109 89 83 76 77 82 75 67
2790.0 72 69 61 68 75 79 80 86 102 104
2830.0 99 100 112 134 149 169 219 275 348 437
2870.0 512 539 548 543 510 483 468 465 470 481
2910.0 511 584 654 689 695 696 687 649 609 557
2950.0 487 434 389 346 335 380 444 478 494 476
2990.0 429 369 316 301 333 391 443 474 468 446
3030.0 431 411 422 457 473 467 435 397 370 343
3070.0 361 412 465 534 546 506 441 341 253 183
3110.0 139 101 74 76 72 72 60 58 65 74
3150.0 72 63 73 71 68 73 94 101 90 93
3190.0 89 87 90 81 69 76 69 62 69 44
3230.0 29 43 39 36 46 45 38 42 57 62
3270.0 58 68 87 79 78 97 96 116 135 132
3310.0 144 165 191 200 207 246 283 292 298 330
3350.0 359 388 463 618 875 1221 1573 1853 1995 1932
3390.0 1675 1318 983 705 509 384 336 318 307 320
3430.0 308 316 308 275 242 222 200 192 193 182
3470.0 193 212 245 279 333 407 492 601 732 890
3510.0 1083 1253 1343 1342 1260 1106 906 730 583 457
3550.0 364 335 397 547 832 1364 2260 3285 3838 3800
3590.0 3346 2415 1262 529 265 155 99 88 85 62
3630.0 62 80 74 43 30 23 28 40 25 21
3670.0 44 39 25 33 40 37 26 24 38 34
3710.0 22 23 12 2 27 40 39 36 38 38
3750.0 24 19 18 2 20 48 32 18 24 16
3790.0 11 5 9 25 25 25 26 20 15 25
3830.0 27 9 13 23 33
##END=
