##TITLE=N-Formylmorpholine
##JCAMP-DX=4.24
##DATA TYPE=INFRARED SPECTRUM
##ORIGIN=EPA-IR VAPOR PHASE LIBRARY
##OWNER=SRD/NIST
Collection (C) 2018 copyright by the U.S. Secretary of Commerce
on behalf of the United States of America. All rights reserved.
##CAS REGISTRY NO=4394-85-8
##MOLFORM=C 5 H 9 N O 2
##$NIST SOURCE=MSDC-IR
##STATE=gas
##XUNITS=1/CM
##YUNITS=ABSORBANCE
##XFACTOR=1.
##YFACTOR=0.001
##DELTAX=1.92898
##FIRSTX=549.8
##LASTX=4000.7
##FIRSTY=0.8886
##MAXX=4000.7
##MINX=549.759
##MAXY=0.251768
##MINY=0
##NPOINTS=1790
##XYDATA=(X++(Y..Y))
549.759 0.8886 0.8586 0.9756 1.368 1.318 0.8993 1.2431 1.708 1.808 1.988
569.049 2.538 3.358 4.158 4.898 5.478 6.028 6.528 6.928 7.278 8.058
588.339 9.038 9.338 9.178 8.838 8.368 7.748 6.768 5.608 4.788 4.298
607.628 3.768 3.058 2.708 2.648 2.238 1.948 1.698 1.268 0.9277 0.8541
626.918 1.0995 1.0812 0.9514 1.1582 1.418 1.398 1.348 1.508 1.698 1.848
646.208 2.158 2.478 2.608 2.738 2.708 2.668 2.918 3.218 2.978 2.708
665.498 2.738 2.408 2.258 2.088 1.748 1.648 1.598 1.388 1.053 0.8896
684.787 0.7892 0.7034 0.537 0.6273 0.5725 0.4205 0.4458 0.4058 0.29753 0.3886
704.077 0.4197 0.30947 0.4257 0.33722 0.30626 0.2348 0.044 0.137 0.28674 0.29958
723.367 0.29174 0.2016 0.1535 0.1714 0.229 0.28489 0.2284 0.203 0.096 0.2278
742.657 0.5405 0.4181 0.2064 0.1647 0.1874 0.27512 0.30459 0.1927 0.1964 0.33006
761.947 0.28963 0.2057 0.257527 0.4885 0.5964 0.4307 0.29699 0.428 0.5011 0.4214
781.236 0.4835 0.7593 1.0174 1.268 1.578 1.878 2.158 2.618 3.368 3.808
800.526 4.148 4.558 4.748 4.738 4.798 5.178 5.118 4.538 4.148 4.138
819.816 4.028 3.458 2.688 2.178 1.788 1.438 1.548 1.708 1.708 1.918
839.106 2.268 2.738 3.228 3.818 4.638 5.048 5.088 5.248 5.558 5.558
858.395 5.108 4.738 4.668 4.698 4.558 3.968 3.268 2.658 1.928 1.408
877.685 1.2352 1.042 0.9583 0.9979 0.8907 0.7414 0.73 0.8341 0.8142 0.6916
896.975 0.7841 0.8467 0.8101 1.0573 1.2098 1.288 1.338 1.578 2.008 2.138
916.265 2.408 2.958 3.228 3.208 3.118 3.078 3.038 3.088 3.218 3.298
935.555 3.158 3.118 3.008 2.678 2.368 2.018 1.888 1.938 1.978 1.758
954.844 1.748 1.798 1.338 1.338 1.478 1.388 1.358 1.418 1.698 1.878
974.134 1.878 2.128 2.558 3.088 3.788 4.748 6.148 7.828 10.148 12.998
993.424 16.158 19.078 21.538 23.648 25.178 26.598 28.578 29.838 29.998 31.088
1012.714 32.258 31.598 29.068 26.078 23.158 19.418 15.838 14.098 13.228 11.938
1032.003 10.328 8.618 6.858 5.718 5.578 5.218 4.928 4.618 4.268 4.528
1051.293 4.958 5.198 5.528 5.788 6.178 6.738 7.058 7.478 7.808 8.428
1070.583 8.828 8.638 8.618 8.728 8.768 9.068 9.948 10.548 10.578 11.068
1089.873 11.948 12.998 14.888 17.418 20.168 23.568 27.758 32.848 38.278 43.248
1109.163 47.828 52.248 55.818 57.568 58.418 58.318 56.138 52.978 50.098 48.128
1128.452 45.378 40.998 36.128 30.758 25.788 21.538 17.608 14.488 12.138 10.448
1147.742 8.948 7.828 7.468 7.458 7.438 7.668 7.988 8.438 9.358 10.678
1167.032 12.778 15.488 18.958 22.708 26.188 28.998 31.058 31.858 31.848 32.418
1186.322 32.818 32.118 31.378 31.338 30.868 28.678 25.418 22.148 19.288 17.298
1205.611 16.168 16.048 16.668 17.808 19.058 20.148 21.278 22.148 21.988 21.598
1224.901 21.258 20.768 19.878 18.908 18.698 18.718 18.128 16.608 14.638 12.948
1244.191 12.058 12.038 12.428 13.238 14.648 16.268 18.008 19.818 21.398 22.878
1263.481 24.168 25.438 26.618 26.798 26.188 25.618 25.338 25.258 25.048 24.098
1282.771 22.268 19.828 17.418 15.358 13.428 11.788 10.698 9.818 8.998 7.868
1302.060 6.808 6.348 5.898 5.378 4.948 4.568 4.348 4.298 4.308 4.358
1321.350 4.428 4.488 4.468 4.478 4.608 4.738 4.868 5.078 5.328 5.568
1340.640 5.798 5.988 6.258 6.708 7.248 7.868 8.548 9.108 9.458 9.648
1359.930 9.878 10.528 11.698 13.048 14.468 16.028 17.838 20.148 22.958 25.958
1379.219 28.858 31.268 32.908 34.068 35.358 36.908 37.898 37.888 38.058 38.718
1398.509 38.938 38.568 37.898 37.358 37.348 37.988 39.118 40.388 41.388 41.868
1417.799 41.908 41.668 40.838 39.208 37.328 35.528 33.328 30.788 27.898 24.778
1437.089 21.598 18.758 16.438 14.768 13.728 13.068 12.598 12.378 12.608 12.868
1456.378 12.308 11.518 11.268 11.128 10.968 10.298 9.088 8.068 7.318 6.648
1475.668 5.948 5.288 4.768 4.208 3.778 3.518 3.198 2.838 2.648 2.548
1494.958 2.408 2.278 2.198 2.218 2.238 2.198 2.168 2.188 2.208 2.168
1514.248 2.078 2.048 2.048 1.948 1.868 1.758 1.588 1.468 1.428 1.338
1533.538 1.1999 1.1681 1.1072 0.9208 0.8258 0.8849 0.9094 0.8041 0.8079 0.8493
1552.827 0.8305 0.791 0.7666 0.8392 0.8615 0.8699 0.8813 0.9448 1.0141 0.9947
1572.117 0.9378 0.9 0.9705 1.012 1.0648 1.116 1.1627 1.1787 1.258 1.368
1591.407 1.438 1.558 1.658 1.778 1.898 2.038 2.138 2.288 2.558 2.798
1610.697 2.968 3.068 3.188 3.288 3.368 3.408 3.438 3.448 3.498 3.538
1629.986 3.498 3.408 3.278 3.258 3.388 3.568 3.828 4.138 4.628 5.168
1649.276 5.728 6.328 6.998 7.688 8.348 9.018 9.668 10.228 10.728 11.228
1668.566 11.628 12.028 12.658 13.398 14.148 14.988 16.398 18.278 21.008 24.628
1687.856 29.668 37.148 48.108 63.078 84.458 111.618 141.958 176.898 204.738 224.208
1707.146 232.628 236.048 243.378 251.768 244.738 231.198 230.108 229.038 208.298 169.358
1726.435 124.128 84.118 54.208 35.198 23.398 16.408 12.408 9.718 8.068 6.828
1745.725 6.018 5.528 5.208 4.988 4.808 4.798 4.828 4.908 5.028 5.088
1765.015 5.078 5.048 5.048 5.048 5.038 4.878 4.628 4.338 3.998 3.758
1784.305 3.558 3.258 2.968 2.738 2.528 2.458 2.298 2.128 2.128 2.138
1803.594 2.128 2.158 2.128 2.098 2.158 2.188 2.248 2.288 2.228 2.198
1822.884 2.128 2.018 1.958 1.918 1.828 1.708 1.628 1.578 1.458 1.408
1842.174 1.338 1.2288 1.258 1.2174 1.1329 1.1176 1.0774 1.096 1.1422 1.089
1861.464 1.0511 1.0197 0.9829 0.9751 0.9285 0.9037 0.884 0.8385 0.7997 0.7868
1880.754 0.7888 0.7683 0.7845 0.8125 0.7941 0.7449 0.7502 0.8116 0.8613 0.9136
1900.043 0.9226 0.9513 1.0295 1.0942 1.1054 1.1238 1.1799 1.2173 1.288 1.328
1919.333 1.328 1.358 1.378 1.378 1.298 1.2006 1.1758 1.1759 1.1289 1.116
1938.623 1.1326 1.1488 1.1432 1.1439 1.1758 1.1971 1.1982 1.2247 1.318 1.428
1957.913 1.538 1.578 1.608 1.658 1.708 1.728 1.708 1.738 1.708 1.648
1977.202 1.658 1.698 1.738 1.708 1.648 1.598 1.568 1.578 1.538 1.458
1996.492 1.468 1.428 1.368 1.408 1.418 1.338 1.278 1.2111 1.1619 1.0586
2015.782 1.0404 1.0894 1.0886 1.1038 1.0821 1.042 0.9802 0.961 0.9853 0.9118
2035.072 0.8226 0.8299 0.869 0.943 0.9625 0.9222 0.9744 0.971 0.9392 0.931
2054.362 0.925 0.9244 0.8333 0.8364 0.899 0.8701 0.7662 0.6944 0.7636 0.8537
2073.651 0.8903 0.8429 0.8026 0.8309 0.8583 0.8879 0.8765 0.8058 0.7627 0.7646
2092.941 0.8005 0.8402 0.8697 0.8696 0.862 0.8761 0.9008 0.9031 0.9386 1.02
2112.231 1.003 0.9576 0.9394 0.9645 0.9625 0.9148 0.9209 0.8648 0.7486 0.7103
2131.521 0.7303 0.7206 0.6374 0.5462 0.508 0.5526 0.5623 0.5886 0.6139 0.5394
2150.810 0.492 0.4529 0.4741 0.5206 0.5203 0.4823 0.4378 0.4852 0.535 0.5463
2170.100 0.5903 0.623 0.6098 0.5976 0.5829 0.5319 0.5871 0.6218 0.616 0.6492
2189.390 0.6317 0.6268 0.6665 0.6721 0.6755 0.6509 0.717 0.8415 0.8319 0.8357
2208.680 0.831 0.8262 0.8591 0.8529 0.8839 0.8918 0.8651 0.8552 0.8405 0.9528
2227.970 1.0486 1.0173 0.9654 0.9041 0.9134 0.934 0.8756 0.7851 0.7534 0.8443
2247.259 0.8173 0.7572 0.7616 0.7064 0.7137 0.7088 0.6663 0.6525 0.6546 0.706
2266.549 0.7395 0.7235 0.7287 0.706 0.6877 0.676 0.6592 0.7378 0.7729 0.7323
2285.839 0.7209 0.7152 0.7141 0.7526 0.8354 0.9111 0.9027 0.8948 0.9071 0.8676
2305.129 0.9081 0.9677 0.884 0.7914 0.7501 0.7527 0.7327 0.6678 0.6853 0.7305
2324.418 0.6879 0.6238 0.6447 0.6048 0.5407 0.5236 0.502 0.4537 0.523 0.627
2343.708 0.5943 0.5839 0.5852 0.5748 0.6261 0.7198 0.7392 0.7259 0.8141 0.8637
2362.998 0.9116 0.9843 0.9335 0.9336 0.981 0.9978 0.9836 0.9258 0.935 0.9273
2382.288 0.8925 0.9257 0.9499 0.9643 0.8937 0.8479 0.8438 0.7575 0.7557 0.792
2401.578 0.8058 0.8361 0.8431 0.8039 0.7855 0.8125 0.8344 0.8023 0.7766 0.7874
2420.867 0.7467 0.6856 0.6608 0.7128 0.7257 0.7267 0.756 0.6964 0.7 0.7749
2440.157 0.7757 0.7471 0.7593 0.7525 0.7956 0.7616 0.779 0.8362 0.8095 0.7518
2459.447 0.6484 0.718 0.7694 0.7321 0.7362 0.7597 0.7255 0.6519 0.5623 0.527
2478.737 0.4738 0.3973 0.4348 0.4729 0.4984 0.4892 0.455 0.5182 0.5664 0.5004
2498.026 0.502 0.5639 0.6054 0.6141 0.6186 0.5644 0.5348 0.6355 0.6751 0.6368
2517.316 0.632 0.6017 0.6281 0.6871 0.619 0.5565 0.5946 0.6846 0.6893 0.6216
2536.606 0.6069 0.6121 0.6197 0.7097 0.7198 0.7173 0.6826 0.6175 0.6664 0.7136
2555.896 0.7492 0.8107 0.7834 0.737 0.7703 0.7478 0.7569 0.857 0.8939 0.8383
2575.186 0.8162 0.7982 0.8 0.7884 0.7465 0.7904 0.8073 0.7978 0.8156 0.8269
2594.475 0.8167 0.8005 0.8104 0.8475 0.8542 0.8301 0.8608 0.8825 0.792 0.7867
2613.765 0.8421 0.7878 0.7413 0.8274 0.9194 0.896 0.8463 0.8555 0.893 0.9497
2633.055 1.0067 0.9877 0.9836 1.0476 1.1007 1.1023 1.1829 1.2242 1.278 1.378
2652.345 1.348 1.418 1.548 1.658 1.748 1.798 1.908 1.928 1.948 2.108
2671.634 2.218 2.248 2.408 2.608 2.658 2.588 2.588 2.628 2.658 2.678
2690.924 2.668 2.618 2.538 2.578 2.648 2.648 2.698 2.768 2.768 2.778
2710.214 2.898 3.028 3.128 3.178 3.268 3.348 3.398 3.498 3.558 3.718
2729.504 4.058 4.378 4.668 5.068 5.538 5.998 6.418 6.768 7.108 7.538
2748.794 7.908 8.328 8.708 8.838 8.788 8.748 8.618 8.468 8.388 8.148
2768.083 7.878 7.608 7.108 6.668 6.278 5.928 5.598 5.348 5.338 5.288
2787.373 5.188 5.158 5.278 5.378 5.588 5.768 5.798 6.038 6.308 6.508
2806.663 6.838 7.288 7.818 8.268 8.738 9.458 10.278 11.318 12.468 13.728
2825.953 15.288 17.048 19.038 21.208 23.628 26.268 28.838 31.308 33.758 36.028
2845.242 38.218 40.458 42.938 45.448 47.608 49.158 50.098 50.778 50.928 50.238
2864.532 49.048 47.058 43.758 40.378 37.588 34.878 32.328 30.138 28.038 25.958
2883.822 24.178 22.758 21.668 20.838 20.398 20.258 20.368 20.718 21.308 22.028
2903.112 22.768 23.518 24.148 24.638 25.068 25.578 25.908 25.838 25.708 25.558
2922.401 25.178 24.488 23.788 23.348 22.658 21.558 20.368 19.418 18.788 18.348
2941.691 17.998 17.878 18.128 18.568 19.308 20.228 21.148 22.338 24.018 26.388
2960.981 29.328 32.648 36.038 38.488 39.558 39.528 38.828 37.998 37.188 36.878
2980.271 36.658 35.428 33.548 30.728 26.718 22.428 18.618 15.328 12.438 10.278
2999.561 8.478 6.788 5.528 4.488 3.608 3.048 2.508 2.048 1.708 1.528
3018.850 1.438 1.2398 1.1806 1.1072 0.9745 0.9209 0.9613 0.9268 0.8462 0.9389
3038.140 1.0049 0.9359 0.8545 0.8778 0.8555 0.8091 0.8898 0.9916 1.0202 0.9825
3057.430 0.8843 0.8443 0.8654 0.9033 0.9465 0.9076 0.9136 0.9743 0.8993 0.8814
3076.720 0.8372 0.7463 0.8429 0.925 0.9664 0.9619 1.0401 1.1002 0.9717 0.9786
3096.009 1.1146 1.1881 1.1823 1.298 1.408 1.448 1.428 1.348 1.398 1.308
3115.299 1.2444 1.231 1.1531 1.1628 1.0957 1.0725 1.0633 0.9877 1.0951 1.1702
3134.589 1.12 1.0291 0.9937 0.9828 0.9713 0.9958 0.8882 0.7671 0.7566 0.7241
3153.879 0.7002 0.7551 0.6276 0.4452 0.5856 0.7388 0.7146 0.659 0.6134 0.5295
3173.169 0.4802 0.6407 0.6321 0.5048 0.5423 0.5397 0.527 0.5278 0.5027 0.4738
3192.458 0.4978 0.4814 0.3869 0.374 0.4006 0.4309 0.4406 0.4948 0.6061 0.6477
3211.748 0.4893 0.27287 0.251571 0.3666 0.4603 0.5287 0.4538 0.3654 0.4781 0.4742
3231.038 0.4353 0.5863 0.6931 0.6354 0.5984 0.5466 0.4275 0.4042 0.42 0.4822
3250.328 0.419 0.34123 0.4374 0.4991 0.4114 0.33083 0.4511 0.5342 0.561 0.4515
3269.617 0.4279 0.5183 0.4926 0.4302 0.33769 0.29265 0.3996 0.4667 0.5041 0.5278
3288.907 0.4641 0.5427 0.5259 0.3935 0.27619 0.29244 0.4157 0.3989 0.4561 0.5427
3308.197 0.5297 0.4586 0.4173 0.382 0.4618 0.6521 0.5403 0.3269 0.3679 0.32422
3327.487 0.4668 0.5903 0.4595 0.6067 0.5831 0.6105 0.6041 0.4302 0.4239 0.3175
3346.777 0.28788 0.4926 0.6183 0.5959 0.601 0.5084 0.4323 0.5251 0.4597 0.5244
3366.066 0.6503 0.4901 0.5065 0.7842 0.8851 0.903 0.94 0.9681 1.0518 1.0848
3385.356 1.0697 1.2159 1.448 1.578 1.818 2.008 2.098 2.248 2.328 2.578
3404.646 2.858 2.838 2.768 2.638 2.538 2.518 2.498 2.368 1.958 1.578
3423.936 1.418 1.1684 1.052 0.9037 0.6941 0.6761 0.7162 0.7596 0.6988 0.6818
3443.225 0.9189 0.816 0.5286 0.5248 0.612 0.7334 0.731 0.5558 0.4538 0.606
3462.515 0.5462 0.3726 0.31876 0.2317 0.1546 0.3214 0.4667 0.4026 0.3867 0.4154
3481.805 0.352 0.31493 0.31834 0.375 0.4244 0.34625 0.3485 0.388 0.3597 0.4135
3501.095 0.4144 0.29573 0.28765 0.3722 0.33317 0.29822 0.32475 0.247763 0.2216 0.28524
3520.385 0.4 0.3985 0.30303 0.348 0.3682 0.27322 0.28026 0.33713 0.34158 0.2211
3539.674 0.2356 0.24452 0.2201 0.3594 0.33388 0.3894 0.4281 0.29516 0.33959 0.4229
3558.964 0.3969 0.3921 0.4133 0.33262 0.29241 0.328 0.26794 0.28239 0.32467 0.26348
3578.254 0.252634 0.30721 0.185 0.143 0.1629 0.1783 0.27099 0.4085 0.416 0.26137
3597.544 0.29987 0.4419 0.31783 0.2099 0.27998 0.1829 0.26798 0.33119 0.1855 0.27305
3616.833 0.4339 0.3954 0.248937 0.111 0.2071 0.33922 0.32294 0.2125 0.1509 0.127
3636.123 0.103 0.254819 0.29573 0.34096 0.3296 0.2137 0.1985 0.1636 0.1793 0.2072
3655.413 0.250728 0.28118 0.1766 0.14 0.1735 0.26738 0.34471 0.2213 0.094 0.101
3674.703 0.212 0.23874 0.1917 0.28648 0.4928 0.5349 0.4627 0.47 0.384 0.30067
3693.993 0.3777 0.409 0.34497 0.33775 0.3528 0.3492 0.4013 0.4587 0.4673 0.512
3713.282 0.4411 0.4144 0.4824 0.4745 0.33821 0.1752 0.29891 0.32661 0.2352 0.29294
3732.572 0.28421 0.3553 0.26153 0 0.122 0.253747 0.29345 0.4838 0.3625 0.250889
3751.862 0.33034 0.1989 0.141 0.251385 0.3646 0.4181 0.3624 0.33245 0.34454 0.26167
3771.152 0.32055 0.367 0.3557 0.29196 0.2852 0.4186 0.4009 0.255695 0.30271 0.3938
3790.441 0.30327 0.30062 0.25746 0.2315 0.3749 0.30342 0.134 0.1652 0.34403 0.513
3809.731 0.4945 0.4143 0.4394 0.4557 0.4028 0.3948 0.4187 0.257021 0.134 0.33181
3829.021 0.4927 0.478 0.367 0.32719 0.35 0.247701 0.2616 0.4495 0.4247 0.4178
3848.311 0.5754 0.4708 0.2936 0.33484 0.30437 0.27501 0.3819 0.4786 0.443 0.3674
3867.601 0.3732 0.27937 0.257056 0.27611 0.26855 0.29946 0.4276 0.4902 0.5487 0.5768
3886.890 0.4005 0.4896 0.5397 0.35 0.28157 0.2062 0.3088 0.4674 0.4257 0.33352
3906.180 0.29645 0.3977 0.4267 0.3959 0.4132 0.363 0.4447 0.641 0.5077 0.4212
3925.470 0.4572 0.4995 0.5187 0.4943 0.4291 0.3854 0.5343 0.5204 0.471 0.4219
3944.760 0.28944 0.3567 0.3853 0.4228 0.5917 0.6273 0.5812 0.5257 0.5698 0.7472
3964.049 0.671 0.6505 0.6873 0.7278 0.673 0.7464 0.8051 0.5918 0.4457 0.4411
3983.339 0.6737 0.5226 0.4954 0.7716 0.859 0.8186 0.684 0.5048 0.4986 0.6224
##END=
