##TITLE=4-Benzyloxybenzaldehyde
##JCAMP-DX=4.24
##DATA TYPE=INFRARED SPECTRUM
##ORIGIN=NIST Mass Spectrometry Data Center
##OWNER=NIST Standard Reference Data Program
Collection (C) 2018 copyright by the U.S. Secretary of Commerce
on behalf of the United States of America. All rights reserved.
##CAS REGISTRY NO=4397-53-9
##MOLFORM=C 14 H 12 O 2
##$NIST SOURCE=MSDC-IR
##SPECTROMETER/DATA SYSTEM=HP-GC/MS/IRD
##STATE=gas
##XUNITS=1/CM
##YUNITS=ABSORBANCE
##XFACTOR=1.0
##YFACTOR=0.000025300
##DELTAX=4.0
##FIRSTX=550.0
##LASTX=3846.0
##FIRSTY=0.002328
##MAXX=3846
##MINX=550
##MAXY=0.253
##MINY=0
##NPOINTS=825
##XYDATA=(X++(Y..Y))
550.0 92 77 0 7 3 13 31 57 103 171
590.0 254 321 367 397 403 395 406 481 555 511
630.0 362 256 270 363 462 507 475 381 281 228
670.0 240 302 394 508 657 835 956 952 872 804
710.0 782 816 923 1141 1418 1592 1549 1328 1080 860
750.0 666 503 370 271 210 179 176 195 216 234
790.0 263 319 407 518 646 803 999 1245 1494 1665
830.0 1719 1681 1623 1605 1623 1606 1526 1392 1183 896
870.0 609 408 301 245 214 201 204 226 249 251
910.0 229 203 172 145 122 110 106 104 108 120
950.0 140 165 199 244 304 381 479 596 727 876
990.0 1040 1221 1427 1640 1840 2029 2199 2305 2246 1970
1030.0 1578 1221 957 743 566 440 351 295 265 254
1070.0 256 261 262 253 243 248 280 332 383 406
1110.0 384 338 297 280 281 297 347 450 660 1107
1150.0 2230 4506 6711 6689 4489 2338 1397 1142 1100 1156
1190.0 1341 1742 2401 3232 4042 4742 5407 5956 6145 5953
1230.0 5682 5589 5695 5881 5993 5913 5584 5004 4234 3400
1270.0 2664 2127 1802 1662 1704 1915 2257 2596 2718 2530
1310.0 2162 1797 1490 1217 996 832 715 632 579 550
1350.0 529 512 507 533 609 732 904 1087 1181 1104
1390.0 902 682 519 429 390 379 396 453 527 548
1430.0 485 398 364 394 455 527 595 660 737 785
1470.0 732 591 478 472 571 808 1269 2082 3126 3755
1510.0 3396 2300 1298 776 551 446 395 371 369 388
1550.0 428 500 628 840 1170 1685 2386 3131 3648 3974
1590.0 4569 5756 7116 7657 6777 4961 3212 2015 1312 907
1630.0 668 525 438 387 357 340 335 343 372 422
1670.0 495 589 687 779 891 1060 1339 1785 2505 3715
1710.0 5801 8529 10000 8533 5299 2775 1556 952 626 438
1750.0 327 258 220 200 186 175 167 158 147 146
1790.0 156 174 180 168 144 119 101 89 80 73
1830.0 69 65 61 61 65 74 84 95 103 106
1870.0 108 110 113 118 120 119 113 105 96 83
1910.0 73 68 70 76 82 90 98 105 111 117
1950.0 123 130 133 127 114 101 95 94 95 97
1990.0 97 100 104 112 120 128 133 129 120 109
2030.0 99 93 87 82 79 75 71 68 65 62
2070.0 59 56 52 48 44 42 40 38 37 36
2110.0 35 32 29 25 22 18 16 15 15 14
2150.0 12 11 10 10 9 7 6 5 5 4
2190.0 3 4 3 6 8 9 10 9 10 11
2230.0 13 14 15 15 17 20 23 27 31 34
2270.0 34 32 32 29 27 25 24 22 22 24
2310.0 30 36 40 35 28 22 19 16 17 16
2350.0 17 18 20 22 24 25 26 26 27 27
2390.0 31 34 39 45 51 54 55 54 53 52
2430.0 53 54 57 59 65 69 70 71 69 66
2470.0 63 60 57 55 54 54 55 58 59 62
2510.0 65 67 65 62 64 67 73 78 84 90
2550.0 93 96 99 99 100 102 105 108 109 110
2590.0 109 105 100 95 92 87 80 74 71 68
2630.0 64 62 63 63 65 70 76 87 100 119
2670.0 145 179 224 271 319 362 408 475 576 714
2710.0 890 1093 1293 1434 1461 1364 1176 961 764 609
2750.0 495 420 376 356 357 378 422 492 595 715
2790.0 825 893 916 918 928 962 1004 1006 932 790
2830.0 637 509 417 352 306 276 256 253 267 292
2870.0 330 377 424 465 495 503 487 453 417 389
2910.0 374 371 377 386 402 422 440 452 459 466
2950.0 481 494 486 441 377 317 267 233 210 191
2990.0 182 184 196 217 248 291 346 420 524 663
3030.0 826 973 1035 983 855 728 656 651 713 851
3070.0 1030 1135 1071 892 732 645 598 552 494 430
3110.0 369 312 250 190 136 97 72 58 52 48
3150.0 45 45 45 43 39 35 32 30 27 26
3190.0 25 24 26 26 24 21 18 15 13 9
3230.0 6 4 5 5 4 2 2 3 2 3
3270.0 4 2 2 3 4 6 6 5 5 6
3310.0 7 6 8 8 10 9 10 11 10 11
3350.0 12 12 11 13 17 19 21 24 27 34
3390.0 44 54 66 84 104 122 132 129 110 89
3430.0 73 57 45 36 29 22 18 14 10 10
3470.0 10 9 9 8 7 7 9 7 4 3
3510.0 4 5 5 4 3 4 3 4 4 3
3550.0 4 7 6 6 5 4 6 7 7 6
3590.0 6 7 6 6 7 8 9 8 10 11
3630.0 11 12 14 14 12 13 15 17 17 16
3670.0 15 15 16 18 19 19 18 17 17 18
3710.0 17 17 16 14 13 14 14 15 13 12
3750.0 10 10 12 11 10 9 9 8 8 9
3790.0 10 12 12 13 15 14 14 15 14 13
3830.0 14 14 13 14 14
##END=
