##TITLE=2-Chloro-2-methylhexane
##JCAMP-DX=4.24
##DATA TYPE=INFRARED SPECTRUM
##ORIGIN=NIST Mass Spectrometry Data Center
##OWNER=NIST Standard Reference Data Program
Collection (C) 2018 copyright by the U.S. Secretary of Commerce
on behalf of the United States of America. All rights reserved.
##CAS REGISTRY NO=4398-65-6
##MOLFORM=C 7 H 15 Cl
##$NIST SOURCE=MSDC-IR
##SPECTROMETER/DATA SYSTEM=HP-GC/MS/IRD
##STATE=gas
##XUNITS=1/CM
##YUNITS=ABSORBANCE
##XFACTOR=1.0
##YFACTOR=0.000001100
##DELTAX=4.0
##FIRSTX=550.0
##LASTX=3846.0
##FIRSTY=0.000785
##MAXX=3846
##MINX=550
##MAXY=0.011
##MINY=0
##NPOINTS=825
##XYDATA=(X++(Y..Y))
550.0 714 554 515 738 819 994 1057 1011 1171 1096
590.0 815 588 452 436 367 287 314 394 506 536
630.0 554 550 505 444 327 168 98 142 154 156
670.0 82 2 55 31 73 155 112 77 100 147
710.0 166 197 219 266 316 294 301 366 422 429
750.0 378 317 328 314 270 245 250 286 321 326
790.0 312 357 350 277 329 422 411 399 402 422
830.0 483 496 423 360 368 349 275 207 209 246
870.0 252 265 322 378 408 394 403 410 349 286
910.0 274 265 240 259 293 297 240 208 233 270
950.0 282 287 274 238 250 247 211 220 191 163
990.0 169 167 157 156 197 201 148 118 129 130
1030.0 142 81 86 172 169 219 319 361 362 431
1070.0 541 638 682 690 699 699 692 695 678 690
1110.0 785 924 1148 1350 1565 1716 1745 1642 1523 1423
1150.0 1285 1183 1125 1063 945 861 823 747 657 584
1190.0 560 575 632 748 910 1044 1098 1058 1015 932
1230.0 825 737 635 576 559 512 456 429 404 378
1270.0 349 319 303 302 296 315 356 379 385 380
1310.0 363 349 352 362 368 404 466 544 571 564
1350.0 600 690 860 1105 1363 1679 1935 2010 1998 1922
1390.0 1723 1420 1135 824 591 488 443 452 465 506
1430.0 595 712 874 1062 1278 1541 1760 1860 1900 1874
1470.0 1734 1507 1239 955 722 559 425 326 270 222
1510.0 184 162 154 152 133 115 111 125 136 127
1550.0 119 114 112 97 81 70 76 71 77 99
1590.0 95 91 83 84 79 76 109 114 101 121
1630.0 139 146 144 165 174 178 209 194 162 156
1670.0 169 140 111 139 144 110 109 126 125 107
1710.0 93 87 90 113 111 85 84 105 101 80
1750.0 85 84 72 72 82 84 78 82 89 73
1790.0 65 63 63 69 70 67 67 78 86 98
1830.0 68 36 50 59 51 42 52 52 40 31
1870.0 40 55 38 23 30 40 43 29 27 45
1910.0 37 31 32 26 17 9 11 28 28 30
1950.0 31 6 12 32 17 11 19 12 17 11
1990.0 14 34 38 33 30 33 36 20 37 60
2030.0 45 21 24 49 60 46 42 51 57 34
2070.0 0 2 18 13 11 21 24 29 25 15
2110.0 23 29 19 13 17 36 54 48 21 31
2150.0 48 37 31 43 53 51 44 46 58 63
2190.0 61 57 55 33 28 28 34 37 34 37
2230.0 27 11 26 46 34 24 30 18 10 40
2270.0 40 18 12 16 32 42 49 43 31 18
2310.0 15 32 29 36 61 50 45 39 64 68
2350.0 46 45 61 57 40 57 53 51 57 54
2390.0 47 63 59 29 31 53 62 59 34 27
2430.0 54 63 47 65 78 46 68 86 74 63
2470.0 46 35 43 60 60 58 61 77 88 81
2510.0 85 88 79 90 84 55 77 103 103 126
2550.0 128 97 82 106 121 112 99 104 115 100
2590.0 104 98 97 122 138 133 139 132 147 180
2630.0 157 134 114 136 166 157 155 150 159 166
2670.0 182 190 157 160 168 180 207 209 186 207
2710.0 226 195 212 220 238 248 241 255 281 326
2750.0 315 270 274 319 318 311 322 313 319 350
2790.0 373 378 406 488 576 597 621 678 738 795
2830.0 897 1007 1132 1290 1474 1717 2027 2389 2802 3268
2870.0 3734 4159 4499 4627 4595 4526 4423 4291 4269 4407
2910.0 4641 4991 5528 6216 7024 7931 8884 9639 10000 9946
2950.0 9599 9174 8973 9219 9623 9919 9903 9442 8640 7645
2990.0 6597 5508 4460 3431 2576 1906 1413 1160 1016 911
3030.0 824 741 707 632 555 528 516 504 492 488
3070.0 480 476 482 490 493 458 383 396 433 396
3110.0 337 325 333 294 292 304 299 280 247 251
3150.0 232 220 212 243 296 266 216 249 293 297
3190.0 301 290 281 287 298 261 194 178 188 182
3230.0 193 282 309 232 204 167 140 157 141 139
3270.0 168 201 189 134 110 106 122 155 176 134
3310.0 90 138 141 130 163 155 114 130 208 169
3350.0 106 164 143 100 95 81 107 88 67 105
3390.0 114 110 111 100 117 122 132 157 125 87
3430.0 97 81 68 121 153 147 102 118 148 157
3470.0 150 122 96 92 109 101 100 55 47 45
3510.0 7 42 72 41 42 75 86 91 104 112
3550.0 101 48 43 61 45 51 87 108 92 107
3590.0 116 122 124 104 93 123 149 115 82 89
3630.0 107 85 63 66 92 93 102 91 41 70
3670.0 96 100 130 119 93 106 90 100 114 82
3710.0 106 162 139 119 97 66 119 123 70 92
3750.0 133 113 105 79 5 40 124 127 110 80
3790.0 37 27 75 118 59 31 99 124 72 67
3830.0 140 115 106 146 105
##END=
