##TITLE=2,3,4,5,6-Pentafluorobenzyl alcohol
##JCAMP-DX=4.24
##DATA TYPE=INFRARED SPECTRUM
##ORIGIN=EPA-IR VAPOR PHASE LIBRARY
##OWNER=SRD/NIST
Collection (C) 2018 copyright by the U.S. Secretary of Commerce
on behalf of the United States of America. All rights reserved.
##CAS REGISTRY NO=440-60-8
##MOLFORM=C 7 H 3 F 5 O
##$NIST SOURCE=MSDC-IR
##STATE=gas
##XUNITS=1/CM
##YUNITS=ABSORBANCE
##XFACTOR=1.
##YFACTOR=0.001
##DELTAX=1.92934
##FIRSTX=549.9
##LASTX=3999.5
##FIRSTY=14.46
##MAXX=3999.53
##MINX=549.863
##MAXY=0.96266
##MINY=0
##NPOINTS=1789
##XYDATA=(X++(Y..Y))
549.863 14.46 16.73 19.47 22.01 24.15 25.77 26.37 26.23 25.36 23.7
569.156 21.37 18.48 15.41 13.03 11.38 10.06 9.4 9.36 9.56 9.95
588.450 11.03 13.25 16.59 20.53 23.91 26.13 27.8 28.84 28.56 27.5
607.743 25.51 21.98 17.9 14.53 12.18 10.61 9.62 8.93 8.4 8.03
627.037 7.82 7.77 7.75 7.75 7.92 8.1 8.26 8.58 9.02 9.55
646.330 10.2 10.94 11.82 12.87 14 15.22 16.8 18.64 20.71 22.97
665.624 24.86 26.41 27.35 27.4 26.81 25.52 23.67 21.37 18.87 16.52
684.917 14.46 13 11.98 11.11 10.44 9.97 9.66 9.37 8.88 8.52
704.210 8.28 7.95 7.68 7.5 7.38 7.41 7.38 7.36 7.56 7.91
723.504 8.39 8.9 9.51 10.43 11.52 12.84 14.21 15.49 16.72 17.78
742.797 18.57 19.03 19.22 19.16 18.79 18.18 17.45 16.66 15.88 15.08
762.091 14.26 13.51 12.86 12.25 11.77 11.35 10.99 10.76 10.63 10.59
781.384 10.57 10.42 10.28 10.22 10.13 9.97 9.75 9.46 9.07 8.73
800.678 8.39 8.1 7.89 7.63 7.48 7.37 7.31 7.25 7.09 7
819.971 7.01 7 6.94 6.87 6.91 6.98 7.01 7.02 7.02 7.07
839.264 7.19 7.34 7.4 7.48 7.61 7.8 8.03 8.32 8.73 9.2
858.558 9.63 10.13 10.66 11.09 11.43 11.76 12.02 12.16 12.22 12.3
877.851 12.51 12.69 12.83 13.1 13.57 14.22 14.97 15.86 17.04 18.54
897.145 20.44 22.83 25.88 29.83 34.76 41.05 49.31 60.04 73.62 90.28
916.438 110.03 131.91 154.2 174.77 192.18 206.02 216.03 222.1 223.69 220.88
935.732 215.48 210.06 206.74 206.1 207.48 209.39 209.5 206.36 199.5 188.64
955.025 173.78 155.58 135.43 114.99 96.46 81.64 71.1 64.12 59.67 57.06
974.318 55.67 55.17 55.38 56.14 57.33 58.85 60.6 62.58 64.83 67.32
993.612 70.27 73.69 77.83 82.86 88.94 96.58 106.25 118.4 133.29 151.04
1012.905 171.54 193.85 216.85 239.48 260.17 277.74 291.26 300.17 304.23 303.17
1032.199 297 286.37 272.52 256.85 239.96 221.36 201.57 182.46 165.49 150.73
1051.492 137.76 126.26 115.99 106.78 98.5 90.98 83.93 77.22 70.88 65
1070.786 59.74 55.24 51.5 48.43 45.83 43.66 41.88 40.38 39.11 38.29
1090.079 37.95 38.1 38.99 40.6 43.21 47.24 53.02 61.26 72.7 88.39
1109.372 109.49 136.78 170.65 210.14 252.11 291.83 324.36 346.34 356.19 352.39
1128.666 333.67 301.26 258.53 211.25 167.72 133.77 109.38 91.6 78.25 67.87
1147.959 59.26 52.18 46.29 41.26 37.35 34.32 31.83 30 28.74 27.88
1167.253 27.39 27.36 27.77 28.52 29.72 31.34 33.27 35.45 37.9 40.53
1186.546 43.24 46.05 48.6 50.5 51.8 52.6 52.79 52.26 51.02 49.38
1205.840 47.47 45.11 42.82 40.71 38.71 37.04 35.55 34.22 33.07 32.08
1225.133 31.26 30.45 29.75 29.11 28.45 27.87 27.34 26.95 26.71 26.51
1244.426 26.42 26.5 26.81 27.42 28.23 29.07 30.05 31.22 32.49 33.72
1263.720 34.81 35.92 36.82 37.22 37.41 37.32 36.76 35.85 34.76 33.62
1283.013 32.73 32.27 32.35 33.16 35.07 38.53 43.63 50.6 59.43 69.26
1302.307 78.71 86.31 90.96 92.42 90.83 86.28 79.26 70.13 59.41 48.92
1321.600 40.71 35.31 32.12 30.28 29.3 28.85 28.67 28.81 29.2 29.81
1340.894 30.6 31.45 32.41 33.55 34.78 36.05 37.51 39.12 40.95 43.09
1360.187 45.55 48.51 52.1 56.27 60.91 66.02 71.46 76.89 81.95 86.28
1379.480 89.58 91.63 92.35 91.62 89.54 86.41 82.51 78.13 73.49 68.96
1398.774 64.72 60.77 57.22 53.96 51.16 48.84 46.99 45.71 44.88 44.33
1418.067 44.01 43.65 43.2 42.56 41.6 40.34 38.72 36.74 34.8 33.11
1437.361 31.53 30.23 29.21 28.36 27.72 27.27 27.08 27.14 27.48 28.18
1456.654 29.3 30.68 32.49 34.97 38.32 42.46 47.47 53.55 61.01 70.34
1475.948 81.92 97.33 117.85 145.82 183.05 231.74 294.21 370.9 461.31 558.87
1495.241 658.25 756.02 840.08 905.7 947.21 962.66 953.93 928.85 886.43 830.32
1514.534 770.82 712.02 657.19 605.12 549.84 493.19 427.67 354.5 278.81 209.34
1533.828 152.22 111.84 86.45 69.27 57.8 50.06 44.36 39.98 36.53 33.55
1553.121 31.14 29.09 27.39 25.92 24.52 23.48 22.77 22.28 22.03 21.84
1572.415 21.82 22.09 22.54 23 23.53 24.06 24.42 24.57 24.52 24.24
1591.708 23.76 23.07 22.21 21.34 20.48 19.75 19.13 18.53 17.97 17.45
1611.002 17.14 16.97 16.91 16.98 17.17 17.49 18.15 19.03 20.14 21.67
1630.295 23.63 26.21 29.67 34.27 39.9 46.62 54.48 62.61 70.46 76.88
1649.588 80.42 80.73 77.76 72.34 64.81 55.47 45.34 35.22 26.58 20.09
1668.882 15.64 12.71 10.84 9.64 8.75 8.17 7.81 7.48 7.24 7.04
1688.175 6.84 6.69 6.6355 6.6177 6.6201 6.6292 6.6188 6.68 6.82 6.94
1707.469 7.1 7.34 7.56 7.84 8.22 8.63 8.95 9.25 9.57 9.86
1726.762 10.04 10.15 10.26 10.37 10.48 10.52 10.59 10.63 10.56 10.55
1746.056 10.53 10.35 10.06 9.69 9.22 8.69 8.07 7.52 7.09 6.7
1765.349 6.3601 6.1409 5.9347 5.7892 5.68629 5.5606 5.522 5.438 5.325 5.316
1784.642 5.352 5.324 5.258 5.238 5.221 5.151 5.046 4.956 4.896 4.839
1803.936 4.808 4.798 4.753 4.683 4.655 4.64 4.61 4.56 4.44 4.4
1823.229 4.47 4.48 4.42 4.4 4.43 4.42 4.41 4.5 4.65 4.654
1842.523 4.662 4.792 4.918 4.916 4.87 4.831 4.755 4.64 4.54 4.38
1861.816 4.23 4.19 4.14 4.07 3.99 4 4.04 4.05 4.1 4.09
1881.110 4.11 4.21 4.26 4.28 4.33 4.4 4.46 4.48 4.5 4.56
1900.403 4.62 4.666 4.697 4.694 4.681 4.65 4.62 4.53 4.39 4.31
1919.696 4.19 4.05 3.96 3.86 3.79 3.78 3.77 3.74 3.71 3.66
1938.990 3.63 3.66 3.71 3.64 3.6 3.62 3.68 3.73 3.73 3.8
1958.283 3.83 3.87 3.96 3.99 4.04 4.12 4.16 4.18 4.24 4.3
1977.577 4.33 4.29 4.23 4.27 4.33 4.33 4.29 4.31 4.36 4.33
1996.870 4.3 4.25 4.17 4.18 4.22 4.18 4.17 4.17 4.18 4.21
2016.164 4.22 4.29 4.41 4.49 4.51 4.62 4.786 4.962 5.151 5.302
2035.457 5.491 5.68957 5.894 6.1653 6.4494 6.72 6.97 7.32 7.63 7.87
2054.750 8.12 8.3 8.34 8.42 8.51 8.51 8.45 8.3 8.19 8.04
2074.044 7.86 7.66 7.46 7.24 7.01 6.8 6.615 6.4399 6.1802 5.9264
2093.337 5.73107 5.488 5.259 5.107 4.917 4.737 4.62 4.49 4.36 4.26
2112.631 4.16 4.05 3.97 3.98 3.95 3.93 3.96 3.92 3.91 3.94
2131.924 4 4.04 4.06 4.12 4.18 4.25 4.32 4.39 4.45 4.47
2151.218 4.52 4.58 4.61 4.674 4.723 4.742 4.786 4.76 4.73 4.702
2170.511 4.64 4.61 4.57 4.52 4.46 4.37 4.27 4.24 4.21 4.1
2189.804 4.07 4.11 4.07 4.03 4.08 4.08 4.1 4.14 4.18 4.24
2209.098 4.26 4.28 4.3 4.26 4.26 4.24 4.22 4.21 4.22 4.22
2228.391 4.22 4.28 4.33 4.36 4.43 4.52 4.61 4.716 4.784 4.765
2247.685 4.704 4.661 4.58 4.48 4.39 4.25 4.12 4.04 3.91 3.74
2266.978 3.61 3.55 3.51 3.48 3.46 3.43 3.36 3.36 3.37 3.36
2286.272 3.37 3.36 3.34 3.37 3.38 3.38 3.38 3.41 3.44 3.48
2305.565 3.52 3.52 3.53 3.5 3.53 3.6 3.63 3.64 3.66 3.78
2324.858 3.88 3.94 4.05 4.17 4.31 4.46 4.58 4.721 4.815 4.893
2344.152 5.002 5.095 5.122 5.184 5.237 5.176 5.135 5.096 5.031 5.004
2363.445 5.024 5.036 5.007 4.996 4.971 4.969 5.01 5.03 5.009 4.988
2382.739 5.022 5.014 5.05 5.109 5.151 5.193 5.179 5.23 5.311 5.34
2402.032 5.393 5.451 5.536 5.5892 5.66348 5.8493 6.0585 6.3147 6.5527 6.8
2421.326 7.05 7.33 7.6 7.93 8.24 8.5 8.74 8.91 9.07 9.26
2440.619 9.39 9.49 9.57 9.53 9.45 9.28 9.06 8.84 8.56 8.21
2459.912 7.8 7.37 6.97 6.635 6.3016 5.9842 5.7342 5.511 5.293 5.061
2479.206 4.831 4.665 4.5 4.31 4.21 4.13 4.03 3.94 3.85 3.83
2498.499 3.87 3.9 3.9 3.86 3.84 3.84 3.8 3.85 3.93 3.94
2517.793 3.93 4.02 4.04 4.07 4.13 4.15 4.2 4.24 4.27 4.4
2537.086 4.47 4.44 4.52 4.58 4.55 4.51 4.42 4.38 4.37 4.29
2556.380 4.28 4.27 4.24 4.25 4.23 4.16 4.03 3.94 3.93 3.9
2575.673 3.89 3.82 3.76 3.84 3.85 3.82 3.83 3.84 3.87 3.9
2594.966 3.98 4.03 4.11 4.23 4.31 4.42 4.66 4.887 5.041 5.206
2614.260 5.412 5.7516 6.0736 6.3192 6.5468 6.86 7.18 7.49 7.73 7.97
2633.553 8.24 8.4 8.53 8.6 8.62 8.64 8.62 8.54 8.38 8.18
2652.847 7.92 7.59 7.29 6.87 6.5765 6.366 6.064 5.65185 5.231 4.975
2672.140 4.725 4.56 4.38 4.12 3.95 3.89 3.8 3.71 3.67 3.65
2691.434 3.56 3.47 3.45 3.43 3.36 3.27 3.25 3.25 3.13 3.04
2710.727 3 3.06 3.13 3.18 3.2 3.17 3.13 3.1 3.17 3.17
2730.020 3.16 3.19 3.16 3.04 3.03 3.14 3.07 2.99 2.89 2.78
2749.314 2.81 2.88 2.89 2.82 2.82 2.89 2.96 3.08 3.09 3.03
2768.607 3.04 3.13 3.2 3.22 3.27 3.27 3.15 3.1 3.15 3.08
2787.901 2.99 2.92 2.82 2.77 2.75 2.76 2.77 2.84 2.9 2.91
2807.194 2.96 3.06 3.11 3.03 2.96 3.03 3.2 3.35 3.5 3.59
2826.488 3.55 3.57 3.56 3.6 3.76 3.87 3.91 3.98 4.09 4.21
2845.781 4.36 4.38 4.5 4.63 4.859 5.144 5.418 5.7602 5.9233 6.147
2865.074 6.6038 7.16 7.64 8.16 8.69 9.26 10.04 10.95 11.89 12.82
2884.368 13.82 14.95 16.04 17.1 18.29 19.39 20.41 21.52 22.61 23.65
2903.661 24.61 25.51 26.29 26.67 26.8 26.58 25.82 24.64 23.3 21.93
2922.955 20.6 19.33 18 16.75 15.71 14.95 14.42 14.08 13.91 13.95
2942.248 14.06 14.43 15.12 15.81 16.52 17.41 18.35 19.2 19.99 20.66
2961.542 20.96 21.16 21.34 21.2 20.84 20.51 20.04 19.39 18.56 17.76
2980.835 17.12 16.42 15.79 15.03 14.49 14.1 13.48 12.89 12.26 11.7
3000.128 11.14 10.33 9.51 8.68 7.95 7.36 6.74 6.2374 5.8013 5.315
3019.422 4.781 4.31 4.1 3.86 3.58 3.37 3.14 2.8 2.57 2.6
3038.715 2.22 1.81 1.74 1.77 1.76 1.53 1.22 1.02 1.09 1.1
3058.009 0.93 0.75 0.73 0.68 0.6 0.61 0.55 0.46 0.41 0.48
3077.302 0.62 0.55 0.37 0.28 0.26 0.28 0.36 0.35 0.29 0.28
3096.596 0.23 0.28 0.46 0.56 0.6 0.52 0.32 0.29 0.25 0.26
3115.889 0.26 0.24 0.36 0.45 0.43 0.34 0.39 0.36 0.33 0.51
3135.182 0.57 0.71 0.8 0.72 0.57 0.43 0.48 0.62 0.73 0.47
3154.476 0.29 0.34 0.36 0.42 0.39 0.29 0.25 0.25 0.19 0.19
3173.769 0.27 0.23 0.12 0.12 0.06 0 0.07 0.06 0.15 0.13
3193.063 0.07 0.16 0.18 0.17 0.2 0.17 0.25 0.32 0.31 0.27
3212.356 0.29 0.42 0.38 0.29 0.33 0.36 0.39 0.4 0.32 0.43
3231.650 0.5 0.47 0.53 0.38 0.29 0.55 0.67 0.64 0.76 0.72
3250.943 0.64 0.66 0.5 0.4 0.67 0.9 0.77 0.65 0.57 0.55
3270.236 0.68 0.9 1 0.98 1.02 0.88 0.8 0.61 0.53 0.86
3289.530 1.03 0.82 0.75 0.91 0.9 0.83 0.86 0.88 0.95 1.03
3308.823 0.82 0.99 1.24 1.19 1.23 1.29 1.34 1.31 1.09 1.1
3328.117 1.31 1.27 1.28 1.45 1.54 1.49 1.46 1.64 1.79 1.62
3347.410 1.59 1.67 1.67 1.76 1.68 1.74 1.79 1.77 2 2.16
3366.704 2.11 2.02 2 2.01 2.12 2.26 2.31 2.32 2.36 2.23
3385.997 2.09 2.2 2.13 2.09 2.12 2.02 2.19 2.45 2.48 2.33
3405.290 2.5 2.71 2.61 2.55 2.63 2.72 2.69 2.58 2.58 2.66
3424.584 2.78 2.83 2.8 2.82 2.8 2.88 2.96 2.98 2.97 2.93
3443.877 3.02 3.14 3.09 3.03 2.99 2.93 3.1 3.15 3.1 3.17
3463.171 3.18 3.23 3.21 3.29 3.45 3.38 3.29 3.28 3.21 3.25
3482.464 3.48 3.58 3.55 3.47 3.49 3.55 3.51 3.4 3.33 3.37
3501.758 3.25 3.17 3.18 3.26 3.37 3.36 3.22 3.15 3.23 3.38
3521.051 3.46 3.44 3.33 3.31 3.36 3.49 3.5 3.35 3.3 3.35
3540.344 3.41 3.4 3.57 3.63 3.52 3.57 3.75 3.8 3.81 3.87
3559.638 3.96 4.03 4.05 4.04 4.05 4.09 4.08 4.01 4.14 4.2
3578.931 4.2 4.42 4.46 4.47 4.659 4.849 4.941 5.059 5.288 5.405
3598.225 5.65029 5.9635 6.2666 6.75 6.92 7.22 7.8 8.14 8.59 8.95
3617.518 9.2 9.5 9.71 9.92 10.26 10.44 10.7 11.39 11.89 12.5
3636.812 13.54 14.64 16.32 18.72 21.88 26 31.09 37.12 43.41 49.3
3656.105 54.58 58.64 60.74 59.85 56.1 50.9 45.14 38.94 32.52 26.75
3675.398 21.88 18.09 15.44 13.62 12.29 11.56 11.1 10.58 10.5 10.61
3694.692 10.81 11.07 11.15 11.26 11.22 10.97 10.57 10.21 9.86 9.31
3713.985 8.85 8.3 7.91 7.54 7.04 6.633 6.2293 5.8911 5.635 5.452
3733.279 5.347 5.277 5.162 4.961 4.737 4.711 4.655 4.53 4.39 4.25
3752.572 4.26 4.27 4.13 4.12 4.22 4.3 4.21 4.02 3.97 3.96
3771.866 4.14 4.23 4.08 3.96 4.04 4.06 4.11 4.2 4.09 4.1
3791.159 4.21 4.13 4.11 4.15 4.11 4.14 4.11 4 3.99 4.02
3810.452 4.09 4.22 4.3 4.27 4.25 4.24 4.2 4.24 4.26 4.26
3829.746 4.41 4.4 4.25 4.2 4.31 4.51 4.5 4.49 4.56 4.47
3849.039 4.44 4.53 4.62 4.6 4.45 4.47 4.61 4.46 4.35 4.4
3868.333 4.37 4.38 4.37 4.25 4.17 4.3 4.38 4.32 4.33 4.23
3887.626 4.15 4.12 4.1 4.18 4.13 4.06 4.03 3.91 3.86 3.79
3906.920 3.77 3.87 3.88 3.81 3.84 3.92 3.83 3.81 3.9 3.87
3926.213 3.95 4.07 4.04 4 3.99 3.91 3.85 3.91 3.97 3.96
3945.506 3.9 4.04 4.03 3.86 3.79 3.84 3.89 3.88 3.94 3.84
3964.800 3.75 3.76 3.7 3.64 3.65 3.64 3.61 3.61 3.58 3.56
3984.093 3.58 3.61 3.61 3.65 3.7 3.7 3.69 3.72 3.63
##END=
