##TITLE=2-Methylbutyl isothiocyanate
##JCAMP-DX=4.24
##DATA TYPE=INFRARED SPECTRUM
##ORIGIN=EPA-IR VAPOR PHASE LIBRARY
##OWNER=SRD/NIST
Collection (C) 2018 copyright by the U.S. Secretary of Commerce
on behalf of the United States of America. All rights reserved.
##CAS REGISTRY NO=4404-51-7
##MOLFORM=C 6 H 11 N S
##$NIST SOURCE=MSDC-IR
##STATE=gas
##XUNITS=1/CM
##YUNITS=ABSORBANCE
##XFACTOR=1.
##YFACTOR=0.001
##DELTAX=1.92898
##FIRSTX=549.8
##LASTX=4000.7
##FIRSTY=8.62
##MAXX=4000.7
##MINX=549.759
##MAXY=0.45244
##MINY=0
##NPOINTS=1790
##XYDATA=(X++(Y..Y))
549.759 8.62 8.3 7.9 7.68 7.47 7.72 7.49 7.07 6.87 6.71
569.049 6.62 6.39 6.01 6.11 6.15 5.91 5.86 5.83 5.81 5.46
588.339 5.4 5.66 5.57 5.45 5.29 5.3 5.31 5.41 5.33 5.06
607.628 5.08 4.84 4.66 4.51 4.18 4.03 4.02 4.1 3.87 3.64
626.918 3.57 3.4 3.13 2.93 3.13 3.12 2.87 2.74 2.76 2.94
646.208 2.9 2.97 3.27 3.3 3.19 3.46 3.82 4.01 4.3 4.68
665.498 5.11 5.43 5.86 6.38 6.77 7.22 7.82 8.61 9.12 9.56
684.787 10.2 11.02 11.75 12.15 12.59 13.11 13.59 13.84 14 14.21
704.077 14.3 14.2 13.96 13.94 13.9 13.62 13.24 12.78 12.31 11.9
723.367 11.29 10.52 9.76 8.86 7.88 7.11 6.65 6.03 5.33 4.92
742.657 4.66 4.56 4.55 4.61 4.6 4.93 5.43 5.77 6.1 6.06
761.947 6.32 6.57 6.47 6.46 6.47 6.33 5.89 5.41 4.97 4.61
781.236 4.47 4.22 3.77 3.55 3.68 3.66 3.2 2.8 2.75 2.74
800.526 2.62 2.64 2.77 2.75 2.52 2.46 2.44 2.16 1.86 1.87
819.816 2.12 2.1 1.84 1.7 1.75 1.7 1.6 1.4528 1.443 1.3046
839.106 1.1803 1.3583 1.3304 1.2053 1.2074 1.294 1.3779 1.2457 1.1843 1.2784
858.395 1.3736 1.4016 1.2318 1.3323 1.46 1.52 1.63 1.69 1.76 1.75
877.685 1.9 2.04 2.25 2.76 3.01 2.98 3.29 3.73 3.88 4.15
896.975 4.39 4.59 4.88 5.25 5.42 5.38 5.39 5.16 5.18 5.35
916.265 5.25 5.12 5.29 5.41 5.33 5.32 5.29 5.27 5.17 5.19
935.555 5.29 5.11 4.75 4.44 4.25 3.93 3.56 3.42 3.19 3.04
954.844 3.07 3.16 3.49 3.81 4.11 4.18 4.29 4.73 4.87 4.9
974.134 4.94 4.87 4.79 4.64 4.45 4.17 3.8 3.58 3.5 3.31
993.424 3.31 3.35 3.25 3.21 3.36 3.64 3.73 3.64 3.58 3.54
1012.714 3.48 3.55 3.71 3.88 3.86 3.88 3.76 3.5 3.35 3.45
1032.003 3.47 3.35 3.4 3.06 3.08 3.26 2.9 2.72 2.86 2.82
1051.293 2.77 2.93 3.35 3.56 3.55 3.34 3.05 2.99 3.03 3.04
1070.583 3.37 3.6 3.35 3.18 3.18 3.25 3.23 3.2 3.33 3.63
1089.873 3.54 3.86 4.2 4.25 4.65 4.58 4.76 5.28 5.34 5.24
1109.163 5.27 5.57 5.93 5.97 6.11 6.66 6.73 6.34 6.19 6.08
1128.452 5.61 5.61 5.65 5.26 5.13 4.93 4.69 4.36 4.39 4.65
1147.742 4.44 4.19 4.2 4.31 4.34 4.21 4.36 4.48 4.5 4.5
1167.032 4.19 4.04 4 3.92 3.83 3.83 3.77 3.54 3.54 3.27
1186.322 2.88 2.95 3.15 3.19 2.99 2.76 2.53 2.7 3.35 3.42
1205.611 3.17 3.23 3.33 3.77 3.98 3.87 3.88 3.91 3.69 4.1
1224.901 4.64 4.69 5.04 5.24 5.57 5.75 5.9 6.28 6.36 6.67
1244.191 6.68 6.57 6.75 6.71 6.73 6.46 6.31 6.34 6.3 6.31
1263.481 6.28 6.57 7.07 7.13 7.11 7.58 8.04 8.39 8.79 9.4
1282.771 10.06 10.73 11.66 12.86 13.98 15.02 15.97 16.81 17.47 17.9
1302.060 18.2 18.53 18.84 18.98 19.04 19.24 19.77 20.7 21.94 23.25
1321.350 24.68 26.39 28.26 30.1 31.79 33.44 35.38 37.78 40.51 43.13
1340.640 45.23 46.58 47.41 48.06 48.33 48.07 47.25 45.69 43.24 40.14
1359.930 36.88 33.6 30.29 27.13 24.35 22.21 20.73 19.95 20.02 20.82
1379.219 22.03 23.22 24.09 24.48 24.47 24.18 23.68 22.77 21.12 18.62
1398.509 15.83 13.27 11.2 9.67 8.57 7.75 7.16 6.76 6.49 6.4
1417.799 6.44 6.53 6.69 6.92 7.18 7.48 7.86 8.36 9.07 10.05
1437.089 11.46 13.44 16.09 19.48 23.71 28.58 33.5 37.75 41.06 43.58
1456.378 45.58 47.06 47.58 46.38 43.17 38.81 34.41 30.49 27.08 23.98
1475.668 21.18 18.56 16.17 14.05 12.21 10.57 9.13 7.96 7.05 6.37
1494.958 5.75 5.27 4.94 4.54 4.21 3.9 3.61 3.41 3.19 3.01
1514.248 2.88 2.69 2.5 2.35 2.29 2.25 2.17 2.11 2.05 2
1533.538 2.01 2.01 2.02 1.97 1.89 1.87 1.87 1.91 1.94 1.84
1552.827 1.83 1.87 1.89 1.97 1.93 1.8 1.84 1.84 1.81 1.82
1572.117 1.7 1.7 1.75 1.75 1.75 1.78 1.78 1.73 1.75 1.85
1591.407 1.9 1.83 1.7 1.65 1.7 1.77 1.74 1.7 1.77 1.69
1610.697 1.61 1.66 1.68 1.68 1.71 1.67 1.67 1.74 1.68 1.62
1629.986 1.7 1.73 1.69 1.68 1.61 1.61 1.64 1.67 1.68 1.72
1649.276 1.71 1.69 1.75 1.65 1.65 1.7 1.68 1.65 1.64 1.64
1668.566 1.63 1.7 1.66 1.61 1.59 1.54 1.55 1.59 1.59 1.52
1687.856 1.49 1.47 1.46 1.48 1.49 1.48 1.47 1.4544 1.4083 1.4491
1707.146 1.49 1.47 1.49 1.51 1.49 1.46 1.4038 1.3676 1.3986 1.3917
1726.435 1.3831 1.3024 1.2546 1.3227 1.3462 1.3088 1.3008 1.3135 1.2764 1.2238
1745.725 1.2597 1.306 1.2306 1.2275 1.3157 1.2655 1.2486 1.2423 1.2212 1.2693
1765.015 1.2893 1.285 1.2835 1.3339 1.3985 1.4024 1.4182 1.3779 1.3448 1.3859
1784.305 1.47 1.53 1.51 1.5 1.48 1.4553 1.48 1.53 1.53 1.52
1803.594 1.55 1.55 1.56 1.62 1.58 1.54 1.54 1.58 1.64 1.65
1822.884 1.67 1.72 1.76 1.75 1.76 1.77 1.82 1.91 1.91 1.92
1842.174 1.99 2.07 2.13 2.13 2.15 2.24 2.35 2.42 2.48 2.54
1861.464 2.63 2.74 2.84 2.94 3.04 3.22 3.34 3.43 3.56 3.7
1880.754 3.91 4.1 4.26 4.45 4.67 4.9 5.1 5.34 5.55 5.82
1900.043 6.1 6.4 6.68 6.96 7.28 7.58 7.96 8.4 8.76 9.16
1919.333 9.57 10.05 10.59 11.08 11.61 12.22 12.85 13.46 14.14 14.81
1938.623 15.55 16.39 17.24 18.13 19.05 20.01 21.03 22.17 23.28 24.47
1957.913 25.75 27.15 28.6 30.05 31.66 33.34 35.12 37.14 39.24 41.44
1977.202 43.82 46.33 49.02 51.8 54.75 57.97 61.32 64.84 68.6 72.61
1996.492 76.86 81.34 86.23 91.5 97.17 103.31 109.83 116.84 124.54 132.95
2015.782 141.94 151.61 162.11 173.4 185.52 198.46 212.2 226.71 241.93 257.85
2035.072 274.18 290.89 307.66 324.34 340.83 356.92 372.49 386.98 400.42 412.76
2054.362 423.44 432.61 440.34 446.19 450.15 452.23 452.44 450.96 447.49 442.07
2073.651 434.85 425.69 414.62 401.57 386.53 369.64 351.14 331.04 309.93 288.69
2092.941 267.74 247.54 228.42 210.75 194.9 180.99 168.92 158.57 150.01 143.02
2112.231 137.44 133.2 129.96 127.51 125.76 124.53 123.63 122.84 122.06 121.08
2131.521 119.74 117.98 115.81 113.31 110.39 107.14 103.69 100.09 96.43 92.85
2150.810 89.43 86.11 83.03 80.35 78.03 76.09 74.55 73.48 72.75 72.31
2170.100 72.12 72.1 72.28 72.52 72.71 72.83 72.97 72.94 72.62 72.19
2189.390 71.46 70.38 69.07 67.48 65.69 63.73 61.5 59.11 56.55 53.96
2208.680 51.33 48.67 46.06 43.48 41.06 38.75 36.53 34.56 32.79 31.14
2227.970 29.61 28.22 26.95 25.79 24.7 23.77 22.87 21.93 21.1 20.24
2247.259 19.37 18.54 17.66 16.79 15.98 15.23 14.58 13.84 13.08 12.38
2266.549 11.69 11.11 10.52 9.95 9.43 8.96 8.59 8.13 7.65 7.36
2285.839 7.06 6.71 6.42 6.18 5.92 5.67 5.43 5.22 5.02 4.85
2305.129 4.69 4.51 4.36 4.21 4.07 3.94 3.77 3.62 3.48 3.37
2324.418 3.32 3.31 3.18 3.01 3 3 2.95 2.92 2.86 2.75
2343.708 2.63 2.55 2.56 2.56 2.51 2.5 2.46 2.36 2.32 2.3
2362.998 2.31 2.32 2.33 2.35 2.34 2.28 2.17 2.2 2.24 2.19
2382.288 2.16 2.21 2.19 2.09 2.09 2.09 2.09 2.02 2 2.06
2401.578 2.06 2.08 2.09 2.12 2.14 2.1 2.02 1.98 1.99 1.97
2420.867 1.96 1.95 1.84 1.81 1.79 1.71 1.75 1.82 1.79 1.71
2440.157 1.7 1.67 1.59 1.59 1.64 1.62 1.57 1.6 1.64 1.7
2459.447 1.74 1.65 1.6 1.61 1.6 1.72 1.8 1.75 1.77 1.88
2478.737 1.87 1.76 1.8 1.9 1.94 1.89 1.86 1.89 1.9 1.93
2498.026 2.03 2 1.93 1.96 1.99 1.96 1.96 2.02 1.99 2
2517.316 2.11 2.13 2.08 2.13 2.15 2.16 2.13 2.16 2.19 2.15
2536.606 2.16 2.21 2.3 2.27 2.26 2.35 2.4 2.49 2.47 2.46
2555.896 2.56 2.67 2.71 2.7 2.75 2.81 2.86 2.94 3.03 3.06
2575.186 3.13 3.15 3.19 3.38 3.46 3.42 3.45 3.46 3.47 3.44
2594.475 3.37 3.43 3.43 3.39 3.34 3.27 3.16 3.01 2.9 2.91
2613.765 3 2.95 2.79 2.61 2.63 2.71 2.74 2.74 2.72 2.69
2633.055 2.61 2.66 2.69 2.7 2.64 2.56 2.66 2.79 2.74 2.66
2652.345 2.68 2.68 2.71 2.75 2.83 2.86 2.83 2.92 2.92 2.86
2671.634 2.9 2.84 2.75 2.77 2.79 2.88 2.96 2.99 3 2.99
2690.924 3 3.02 3.04 3.03 3.06 3.1 3.16 3.2 3.23 3.3
2710.214 3.39 3.4 3.43 3.53 3.59 3.67 3.76 3.84 3.95 4.09
2729.504 4.33 4.61 4.7 4.81 4.98 5.13 5.39 5.67 5.9 6.16
2748.794 6.31 6.35 6.57 6.82 6.93 7.02 7.04 7.06 7.29 7.38
2768.083 7.36 7.45 7.48 7.49 7.55 7.65 7.65 7.55 7.55 7.6
2787.373 7.57 7.55 7.48 7.29 7.16 7.15 7.13 7 6.86 6.83
2806.663 6.83 6.79 6.77 6.75 6.65 6.73 6.84 6.85 6.92 7.09
2825.953 7.23 7.33 7.42 7.71 8.03 8.24 8.45 8.67 9.13 9.6
2845.242 9.99 10.52 11.3 12.2 13.28 14.55 16 17.79 19.85 22.07
2864.532 24.47 27.25 30.3 33.44 36.73 40.06 43.41 46.96 50.4 53.23
2883.822 55.28 56.31 56.69 56.68 56.08 55.09 53.56 51.5 49.29 47.33
2903.112 45.81 44.72 44.35 44.64 45.19 46.3 48.24 50.41 53.03 56.18
2922.401 59.56 63.35 67.46 71.88 76.3 80.42 84.31 87.7 90.24 91.93
2941.691 92.54 92.08 90.91 89.19 87.62 86.23 84.97 84.19 84.05 85.02
2960.981 87.42 91.39 96.22 101.17 105.36 108.17 109.64 109.69 107.63 102.95
2980.271 96.16 87.48 77.44 67.11 57.27 48.15 39.93 32.98 27.23 22.82
2999.561 19.62 17.12 15.08 13.43 12.24 11.24 10.37 9.65 8.97 8.46
3018.850 7.77 7.15 6.81 6.46 6.16 5.81 5.52 5.3 5.09 4.84
3038.140 4.62 4.44 4.32 4.41 4.4 4.23 4.14 4.11 4.08 4.06
3057.430 4.05 3.96 3.9 3.83 3.83 3.84 3.72 3.62 3.56 3.58
3076.720 3.48 3.36 3.39 3.36 3.3 3.19 3.02 3.1 3.15 2.99
3096.009 2.84 2.89 2.85 2.8 2.84 2.78 2.69 2.66 2.59 2.46
3115.299 2.42 2.4 2.48 2.48 2.26 2.21 2.33 2.3 2.17 2.16
3134.589 2.18 2.13 1.95 1.74 1.84 1.95 1.98 1.91 1.96 1.91
3153.879 1.75 1.97 2.09 2.04 2.03 2.02 1.9 1.76 1.75 1.84
3173.169 1.95 1.88 1.73 1.61 1.62 1.6 1.56 1.53 1.4062 1.4463
3192.458 1.4352 1.3001 1.2008 1.2335 1.217 1.1512 1.1144 1.0582 1.0264 0.8962
3211.748 0.8481 0.8547 0.7751 0.7021 0.7005 0.7707 0.7829 0.7958 0.8232 0.7298
3231.038 0.6612 0.6962 0.6842 0.7212 0.6509 0.55889 0.4777 0.4227 0.587 0.6229
3250.328 0.582 0.4455 0.4028 0.4405 0.3988 0.4312 0.5671 0.669 0.4147 0.298
3269.617 0.3759 0.217 0.305 0.4072 0.4117 0.5365 0.45834 0.47834 0.52506 0.322
3288.907 0.352 0.52802 0.48661 0.4895 0.4341 0.31 0.288 0.4257 0.46919 0.463211
3308.197 0.51366 0.4499 0.3862 0.46288 0.53464 0.460688 0.336 0.3602 0.47313 0.3986
3327.487 0.4017 0.45733 0.44 0.409 0.4296 0.4442 0.326 0.319 0.262 0.3689
3346.777 0.48413 0.236 0.232 0.321 0.267 0.208 0.284 0.3921 0.49009 0.50647
3366.066 0.3907 0.4406 0.462706 0.349 0.345 0.295 0.162 0.27 0.4443 0.286
3385.356 0.29 0.428 0.333 0.359 0.345 0.287 0.333 0.315 0.209 0.174
3404.646 0.304 0.294 0.194 0.274 0.321 0.268 0.344 0.47212 0.48552 0.4206
3423.936 0.343 0.3787 0.45472 0.5157 0.343 0.075 0.051 0.172 0.246 0.212
3443.225 0.26 0.271 0.32 0.295 0.082 0.078 0.242 0.4103 0.49279 0.4263
3462.515 0.322 0.25 0.246 0.268 0.237 0.155 0.154 0.33 0.307 0.156
3481.805 0.284 0.324 0.289 0.26 0.306 0.26 0.241 0.3703 0.259 0.122
3501.095 0.065 0.035 0 0.194 0.4462 0.4479 0.19 0.099 0.158 0.213
3520.385 0.309 0.334 0.334 0.266 0.303 0.335 0.339 0.4089 0.4378 0.3923
3539.674 0.306 0.214 0.277 0.233 0.054 0.131 0.146 0.147 0.172 0.113
3558.964 0.137 0.223 0.292 0.3679 0.3717 0.332 0.216 0.08 0.119 0.229
3578.254 0.268 0.24 0.343 0.337 0.238 0.269 0.341 0.3662 0.3969 0.301
3597.544 0.194 0.179 0.137 0.225 0.228 0.222 0.245 0.191 0.223 0.219
3616.833 0.244 0.309 0.318 0.329 0.309 0.265 0.3688 0.3862 0.278 0.238
3636.123 0.162 0.178 0.167 0.222 0.34 0.351 0.332 0.318 0.3688 0.31
3655.413 0.226 0.231 0.142 0.105 0.235 0.304 0.269 0.307 0.333 0.305
3674.703 0.339 0.4359 0.5892 0.49835 0.356 0.3819 0.52585 0.6223 0.49598 0.4457
3693.993 0.4233 0.295 0.258 0.293 0.139 0.073 0.225 0.271 0.319 0.4045
3713.282 0.357 0.213 0.255 0.4006 0.4339 0.4028 0.297 0.282 0.254 0.32
3732.572 0.4154 0.3643 0.4229 0.4237 0.3605 0.462975 0.48662 0.4182 0.49553 0.4378
3751.862 0.343 0.4355 0.4328 0.459583 0.5986 0.614 0.3712 0.274 0.3808 0.344
3771.152 0.381 0.52121 0.4461 0.252 0.3761 0.4272 0.49541 0.52921 0.235 0.234
3790.441 0.307 0.324 0.5337 0.49298 0.353 0.318 0.306 0.312 0.3645 0.321
3809.731 0.245 0.3938 0.4452 0.468044 0.4378 0.46997 0.46638 0.341 0.296 0.339
3829.021 0.4004 0.47615 0.6339 0.632 0.45373 0.4103 0.5287 0.51941 0.50618 0.5334
3848.311 0.55855 0.6729 0.6446 0.48911 0.5673 0.6232 0.605 0.54309 0.50117 0.51792
3867.601 0.4353 0.4395 0.53577 0.6907 0.6767 0.6065 0.6212 0.5787 0.6826 0.8556
3886.890 0.8002 0.8007 0.7757 0.7112 0.8284 0.7974 0.7793 0.7654 0.7633 0.7148
3906.180 0.6636 0.6923 0.6337 0.7253 0.8857 0.845 0.7971 0.8403 0.8518 0.8927
3925.470 0.7608 0.7469 0.9178 0.9726 0.8879 0.7761 0.9196 0.9739 0.8678 0.9226
3944.760 0.9536 1.0804 1.0496 0.999 1.1411 1.1659 1.1631 1.0487 0.9133 0.8436
3964.049 0.8299 1.0252 1.2308 1.2124 1.226 1.3805 1.4592 1.3819 1.4011 1.2118
3983.339 1.1094 1.2328 1.1643 1.1169 1.3229 1.49 1.4475 1.3759 1.48 1.63
##END=
