##TITLE=Trimesoyl chloride
##JCAMP-DX=4.24
##DATA TYPE=INFRARED SPECTRUM
##ORIGIN=EPA-IR VAPOR PHASE LIBRARY
##OWNER=SRD/NIST
Collection (C) 2018 copyright by the U.S. Secretary of Commerce
on behalf of the United States of America. All rights reserved.
##CAS REGISTRY NO=4422-95-1
##MOLFORM=C 9 H 3 Cl 3 O 3
##$NIST SOURCE=MSDC-IR
##STATE=gas
##XUNITS=1/CM
##YUNITS=ABSORBANCE
##XFACTOR=1.
##YFACTOR=0.001
##DELTAX=1.92898
##FIRSTX=549.8
##LASTX=4000.7
##FIRSTY=7
##MAXX=4000.7
##MINX=549.759
##MAXY=0.48068
##MINY=0.00002627
##NPOINTS=1790
##XYDATA=(X++(Y..Y))
549.759 7 7.44 7.56 7.67 7.23 6.28 5.15 4.28 3.94 3.59
569.049 3.28 3.09 2.94 3.03 3.36 3.65 3.84 4.19 4.74 5.09
588.339 5.49 6.22 6.63 6.8 6.97 7.16 7.38 7.23 7.15 7.15
607.628 7.02 6.98 7.26 7.81 8.49 9.14 9.47 9.5 9.26 8.88
626.918 8.45 8 7.5 7.11 7.01 7.15 7.45 7.81 8.61 9.61
646.208 10.5 11.3 12.07 12.69 13.19 13.64 13.83 14.26 14.98 16.15
665.498 17.95 20.32 23.45 27.13 31.26 36.01 41.75 48.43 56.49 66.61
684.787 79.04 91.94 103.17 115.57 135.17 164.87 203.92 247.77 286.21 308.42
704.077 309.37 289.74 252.1 204.67 160.18 126.2 103.42 88.82 79.93 75.26
723.367 74.13 76.56 82.19 89.42 96.1 100.8 102.75 101.72 96.84 88.41
742.657 77.9 65.99 53.36 41.37 31.43 24.12 19.51 16.73 14.87 13.65
761.947 12.91 12.47 11.88 11.27 10.65 10.01 9.58 9.15 8.83 8.5
781.236 8.12 7.81 7.64 7.6 7.56 7.61 7.44 7.2 7.22 7.2
800.526 7.2 7.48 7.88 8.52 9.38 10.24 11.07 12.06 12.79 13.36
819.816 14.03 14.74 15.67 16.82 18.12 19.78 22.07 24.64 27.35 30.33
839.106 33.07 35.15 36.34 36.6 35.76 33.68 30.99 28.03 25.1 22.55
858.395 20.44 18.88 17.89 17.47 17.24 16.79 16.33 15.75 14.98 14.18
877.685 13.42 12.71 12.05 11.56 11.18 10.71 10.31 10.12 9.95 9.72
896.975 9.54 9.69 9.97 10.34 10.97 11.86 12.95 14.36 15.99 17.72
916.265 19.38 20.76 21.71 21.87 21.03 19.08 16.86 14.9 13.32 12.23
935.555 11.55 11.45 11.65 11.78 11.95 12.18 12.66 13.3 14.05 14.8
954.844 15.79 16.94 17.92 19.12 20.45 22.05 24.23 27.01 30.68 35.6
974.134 41.97 49.48 57.5 65.73 72.96 78.39 82.3 84.99 87.19 90.31
993.424 96.28 105.21 116.02 127.31 137.21 145.01 150.76 155.5 162.57 176.34
1012.714 200.04 233.77 272.16 305.31 322.42 317.32 288.4 239.75 182.17 128.68
1032.003 88.85 63.97 49.34 40.27 34.21 30.08 27.14 24.84 22.85 21.27
1051.293 20.1 18.86 17.58 16.52 15.49 14.81 14.54 14.14 13.73 13.64
1070.583 13.79 13.89 14.18 14.84 15.33 15.77 16.76 17.65 18.04 18.96
1089.873 20 20.54 21.1 21.66 22.2 22.82 23.48 24.46 26.27 28.53
1109.163 31.51 35.36 39.75 44.94 50.75 57.07 63.5 70.1 76.7 83.78
1128.452 92.2 102.33 114.59 129.46 146.99 166.29 186.44 205.91 222.98 236.56
1147.742 245.44 248.32 244.31 232.37 213.19 188.62 160.39 131.62 106.08 85.57
1167.032 70.28 59.2 50.47 43.19 37.28 32.35 28.41 25.42 22.87 20.58
1186.322 18.93 17.69 16.64 15.85 14.99 14.14 13.44 12.75 12.01 11.38
1205.611 10.79 10.1 9.46 8.82 8.25 7.76 7.41 6.98 6.83 6.86
1224.901 6.6 6.57 6.59 6.7 6.92 7.07 7.25 7.72 8.23 8.82
1244.191 9.43 9.89 10.37 10.67 10.98 11.48 11.79 11.98 12.32 12.73
1263.481 13.27 13.99 14.91 16.19 17.63 18.97 19.89 20.42 20.36 19.47
1282.771 17.87 15.74 13.53 11.58 10.12 9.08 8.46 8.16 8 8
1302.060 8.17 8.41 8.65 8.69 8.51 8.25 7.82 7.3 6.76 6.23
1321.350 5.76 5.35 5.05 4.77 4.5 4.28 4.05 3.82 3.64 3.47
1340.640 3.29 3.13 2.96 2.84 2.79 2.74 2.68 2.7 2.64 2.56
1359.930 2.56 2.56 2.57 2.56 2.55 2.54 2.54 2.55 2.58 2.59
1379.219 2.59 2.62 2.72 2.81 2.85 2.97 3.13 3.3 3.52 3.85
1398.509 4.27 4.68 5.13 5.68 6.2 6.67 7.12 7.6 8.2 8.97
1417.799 10.06 11.55 13.31 15.32 17.37 19.13 20.41 21.1 20.97 20.02
1437.089 18.22 15.82 13.14 10.42 8.02 6.14 4.77 3.9 3.33 2.94
1456.378 2.66 2.35 2.12 1.96 1.86 1.76 1.65 1.57 1.53 1.5
1475.668 1.49 1.46 1.49 1.53 1.58 1.63 1.63 1.7 1.71 1.72
1494.958 1.74 1.72 1.68 1.6 1.57 1.59 1.52 1.49 1.47 1.36
1514.248 1.27 1.28 1.3 1.31 1.33 1.38 1.42 1.41 1.53 1.56
1533.538 1.55 1.61 1.69 1.78 1.84 1.92 1.95 1.96 1.95 1.93
1552.827 1.96 1.95 2.01 2.12 2.22 2.29 2.49 2.78 3.16 3.69
1572.117 4.32 5.19 6.32 7.84 9.83 12.17 14.66 17.08 19.02 20.03
1591.407 19.67 17.96 15.34 12.49 10.01 7.96 6.48 5.46 4.6 3.99
1610.697 3.61 3.28 2.98 2.77 2.65 2.6 2.57 2.52 2.53 2.54
1629.986 2.44 2.34 2.31 2.29 2.27 2.26 2.37 2.5 2.57 2.59
1649.276 2.63 2.76 2.95 3.06 3.17 3.29 3.53 3.88 4.2 4.55
1668.566 4.98 5.42 5.86 6.38 6.92 7.39 7.76 8.12 8.49 8.72
1687.856 8.86 8.94 8.96 8.93 8.96 8.96 9.01 9.08 9.19 9.39
1707.146 9.64 10.01 10.39 10.82 11.3 11.86 12.52 13.18 13.89 14.61
1726.435 15.42 16.54 17.95 19.77 22.32 25.27 28.65 32.74 37.2 41.97
1745.725 46.94 52.01 56.78 61.26 65.63 69.69 74.19 79.65 87.09 97.86
1765.015 114.61 141.55 184.24 242.84 315.14 385.6 439.79 473.16 480.68 458.6
1784.305 412.12 357.4 305.14 255.1 205.37 159.43 123.14 97.7 82.48 74.84
1803.594 72.43 72.93 74.62 75.98 75.88 73.49 68.62 61.83 54.2 46.62
1822.884 39.8 34.05 29.58 26.22 23.6 21.56 19.91 18.5 17.29 16.25
1842.174 15.42 14.8 14.29 13.95 13.75 13.58 13.47 13.41 13.34 13.27
1861.464 13.17 12.99 12.86 12.66 12.32 11.99 11.68 11.26 10.75 10.19
1880.754 9.64 9.06 8.43 7.82 7.26 6.75 6.22 5.7 5.22 4.72
1900.043 4.26 3.86 3.52 3.25 3 2.71 2.52 2.37 2.19 2.08
1919.333 1.98 1.9 1.8 1.71 1.66 1.58 1.53 1.51 1.48 1.42
1938.623 1.41 1.37 1.3 1.26 1.25 1.29 1.34 1.4 1.48 1.55
1957.913 1.58 1.6 1.6 1.6 1.63 1.62 1.6 1.62 1.58 1.58
1977.202 1.61 1.6 1.6 1.61 1.61 1.58 1.61 1.69 1.68 1.7
1996.492 1.75 1.81 1.84 1.81 1.78 1.73 1.62 1.53 1.42 1.3
2015.782 1.19 1.11 1.06 0.9902 0.9362 0.9288 0.9024 0.8749 0.9218 0.9625
2035.072 0.9797 1 1.03 1.01 0.9244 0.8703 0.83 0.8005 0.7516 0.6817
2054.362 0.6262 0.5691 0.5689 0.5568 0.5557 0.5274 0.4953 0.481 0.4714 0.5099
2073.651 0.4846 0.4615 0.4878 0.4777 0.4351 0.4323 0.4494 0.4291 0.4158 0.4391
2092.941 0.4776 0.4893 0.4908 0.5283 0.5452 0.5312 0.5221 0.5171 0.4877 0.5342
2112.231 0.5921 0.597 0.6612 0.7078 0.682 0.6808 0.7221 0.7414 0.7773 0.8058
2131.521 0.8081 0.8108 0.7645 0.7613 0.8333 0.8315 0.8117 0.8439 0.8985 0.9391
2150.810 0.9054 0.8955 0.9038 0.8754 0.8784 0.8692 0.8476 0.8095 0.7457 0.7419
2170.100 0.7889 0.789 0.7268 0.688 0.7253 0.699 0.6381 0.5873 0.5345 0.4832
2189.390 0.4522 0.4919 0.4988 0.5233 0.5746 0.571 0.5918 0.5972 0.5367 0.5845
2208.680 0.658 0.6757 0.6659 0.635 0.6534 0.6992 0.756 0.7737 0.7667 0.7948
2227.970 0.8047 0.7907 0.7737 0.8177 0.8651 0.8792 0.8983 0.9242 0.9967 1.03
2247.259 0.9934 1.02 1.06 1.05 1 1.01 0.9726 0.9351 1.03 1.01
2266.549 0.9699 1 0.9945 1.02 1.04 1.03 0.981 0.9636 0.9462 0.9441
2285.839 0.9468 0.9122 0.9065 0.8676 0.7906 0.8053 0.7818 0.7124 0.7307 0.6996
2305.129 0.6414 0.5862 0.518 0.5551 0.5406 0.446 0.3867 0.3434 0.313 0.3352
2324.418 0.3382 0.2955 0.3211 0.3478 0.3444 0.2998 0.2919 0.2815 0.2846 0.296
2343.708 0.293 0.2606 0.2074 0.2443 0.2944 0.348 0.3046 0.2834 0.3148 0.3446
2362.998 0.3542 0.321 0.33 0.3561 0.3805 0.3809 0.3987 0.4577 0.4807 0.4846
2382.288 0.5179 0.5468 0.5986 0.7003 0.7774 0.7499 0.7581 0.8717 0.9598 1.05
2401.578 1.06 1.07 1.22 1.3 1.3 1.33 1.34 1.37 1.35 1.28
2420.867 1.26 1.21 1.19 1.15 1.05 1.01 1.04 0.9895 0.9087 0.9005
2440.157 0.7928 0.7118 0.708 0.6593 0.6157 0.6498 0.6713 0.5687 0.4934 0.5215
2459.447 0.4688 0.399 0.3794 0.3562 0.3683 0.4145 0.4364 0.3809 0.3339 0.2606
2478.737 0.2661 0.3402 0.3149 0.28 0.2947 0.2941 0.2613 0.2805 0.2891 0.2807
2498.026 0.2586 0.2058 0.1542 0.126 0.1119 0.1457 0.21 0.1664 0.1156 0.1978
2517.316 0.2362 0.1869 0.1931 0.2177 0.2042 0.1585 0.1017 0.1183 0.1765 0.2004
2536.606 0.1981 0.2117 0.2744 0.2742 0.2458 0.2395 0.2294 0.251 0.2649 0.2741
2555.896 0.2416 0.263 0.3178 0.3359 0.4017 0.4677 0.4934 0.464 0.4332 0.4861
2575.186 0.5377 0.5902 0.6919 0.705 0.7271 0.719 0.6923 0.7211 0.7286 0.7306
2594.475 0.6557 0.5894 0.4959 0.4725 0.5227 0.4749 0.4511 0.4794 0.4018 0.4
2613.765 0.4478 0.4387 0.4273 0.3652 0.3605 0.3243 0.3595 0.3849 0.3356 0.3576
2633.055 0.4331 0.3965 0.3287 0.3647 0.4152 0.3684 0.2543 0.2776 0.2786 0.2578
2652.345 0.3123 0.2896 0.2787 0.2232 0.1557 0.1955 0.216 0.2126 0.222 0.3468
2671.634 0.4547 0.4517 0.4571 0.4393 0.4121 0.393 0.4721 0.5688 0.5199 0.4298
2690.924 0.4301 0.5201 0.5379 0.4854 0.5564 0.6332 0.5976 0.5815 0.5755 0.5445
2710.214 0.5797 0.6078 0.5641 0.5425 0.5725 0.6201 0.5811 0.5913 0.6326 0.7283
2729.504 0.8679 0.9379 0.967 0.9396 0.9925 1.09 1.08 1.11 1.11 1
2748.794 0.951 0.8514 0.8051 0.7631 0.7083 0.7094 0.6414 0.6043 0.6361 0.6781
2768.083 0.6285 0.4806 0.502 0.6236 0.6557 0.5241 0.3225 0.3339 0.445 0.5071
2787.373 0.4432 0.4223 0.5131 0.5673 0.506 0.4882 0.5318 0.4827 0.5186 0.4874
2806.663 0.3885 0.3143 0.3056 0.3617 0.2981 0.3065 0.3585 0.3954 0.4963 0.5702
2825.953 0.5792 0.5645 0.5853 0.6181 0.7058 0.7445 0.7579 0.9233 1.13 1.21
2845.242 1.25 1.38 1.4 1.45 1.59 1.65 1.67 1.73 1.69 1.59
2864.532 1.63 1.53 1.37 1.37 1.3 1.15 1.06 0.9259 0.7515 0.6741
2883.822 0.6339 0.5814 0.6465 0.5784 0.4846 0.4979 0.5063 0.3944 0.3537 0.4044
2903.112 0.3968 0.3822 0.351 0.4545 0.4543 0.3436 0.4567 0.4679 0.4136 0.5017
2922.401 0.6086 0.6803 0.7317 0.6392 0.4933 0.4714 0.4451 0.4334 0.4544 0.432
2941.691 0.4414 0.4443 0.3671 0.325 0.3186 0.3107 0.3445 0.4374 0.3988 0.4022
2960.981 0.4262 0.4104 0.3679 0.3456 0.3395 0.2626 0.18 0.176 0.2626 0.3083
2980.271 0.3703 0.4382 0.4622 0.3579 0.3461 0.383 0.3059 0.2752 0.3303 0.4118
2999.561 0.3994 0.4191 0.4883 0.4819 0.4569 0.4942 0.579 0.5421 0.4703 0.5416
3018.850 0.5422 0.5778 0.6383 0.6698 0.5938 0.5693 0.5837 0.5555 0.5406 0.5957
3038.140 0.6254 0.5652 0.6409 0.6568 0.6416 0.6549 0.6898 0.6866 0.6593 0.7411
3057.430 0.8231 0.8587 1.01 1.12 1.24 1.55 2.05 2.56 3.15 3.94
3076.720 4.95 6.17 7.46 8.64 9.78 10.85 11.52 11.64 11.37 10.75
3096.009 9.55 8.21 6.87 5.42 4.26 3.17 2.23 1.65 1.22 0.9117
3115.299 0.7246 0.663 0.6353 0.5197 0.388 0.3224 0.4151 0.421 0.4105 0.483
3134.589 0.5054 0.5273 0.4787 0.436 0.3972 0.4037 0.4625 0.4275 0.3949 0.2236
3153.879 0.1641 0.3066 0.3482 0.3633 0.3472 0.3352 0.2722 0.3127 0.3388 0.3932
3173.169 0.4288 0.304 0.3082 0.445 0.5302 0.5065 0.5758 0.671 0.6425 0.5786
3192.458 0.5583 0.5441 0.5674 0.6318 0.5877 0.6003 0.6741 0.639 0.4561 0.2672
3211.748 0.296 0.4635 0.4734 0.283 0.2929 0.4075 0.3706 0.2665 0.2892 0.3325
3231.038 0.2148 0.1047 0.1199 0.1994 0.2214 0.2187 0.1978 0.1598 0.2371 0.2825
3250.328 0.182 0.1496 0.1496 0.1678 0.2769 0.3162 0.3986 0.3766 0.2881 0.3475
3269.617 0.3856 0.3579 0.2134 0.1761 0.2493 0.2783 0.2348 0.1802 0.2215 0.3314
3288.907 0.2982 0.1791 0.09678 0.1184 0.2515 0.3414 0.3608 0.1625 0.05031 0.1628
3308.197 0.3412 0.4647 0.3692 0.2298 0.2461 0.2896 0.1995 0.2059 0.2713 0.2064
3327.487 0.2928 0.3631 0.306 0.2467 0.2222 0.3366 0.4487 0.4041 0.2337 0.1438
3346.777 0.2956 0.3988 0.5426 0.597 0.5458 0.491 0.3668 0.4304 0.4303 0.5124
3366.066 0.6736 0.7301 0.7675 0.7692 0.571 0.4846 0.6701 0.679 0.5663 0.5038
3385.356 0.4586 0.5059 0.54 0.465 0.4566 0.4481 0.4207 0.3819 0.3502 0.4055
3404.646 0.4499 0.4929 0.4317 0.3146 0.2394 0.1926 0.1912 0.2168 0.3227 0.4823
3423.936 0.5845 0.4213 0.2851 0.2882 0.4128 0.5864 0.515 0.5421 0.5962 0.6035
3443.225 0.5355 0.4534 0.5744 0.5554 0.5134 0.6071 0.728 0.7554 0.5681 0.6291
3462.515 0.8118 0.8327 0.9068 0.9374 0.9276 0.9782 0.9691 0.9839 0.9588 0.9118
3481.805 1.08 1.12 1.11 1.24 1.34 1.32 1.36 1.57 1.69 1.68
3501.095 1.74 1.84 1.88 2 2.15 2.28 2.51 2.69 2.88 3.31
3520.385 3.78 4.23 4.79 5.3 5.95 6.68 7.04 7.18 7.17 6.96
3539.674 6.42 5.77 5.17 4.53 4.06 3.74 3.41 3.17 3.01 2.79
3558.964 2.7 2.6 2.55 2.64 2.5 2.33 2.27 2.18 2.13 2
3578.254 1.76 1.61 1.58 1.39 1.24 1.25 1.13 1.06 1.04 1.09
3597.544 0.9392 0.8054 0.8248 0.8144 0.8512 0.8343 0.8534 0.9043 0.9265 0.8027
3616.833 0.7847 0.841 0.7593 0.7566 0.8531 0.8059 0.6788 0.5913 0.5735 0.6004
3636.123 0.6651 0.6275 0.561 0.6442 0.6292 0.5722 0.6271 0.6991 0.6007 0.4389
3655.413 0.5041 0.5565 0.3752 0.3037 0.4505 0.4884 0.3466 0.3447 0.4427 0.4275
3674.703 0.274 0.1751 0.2648 0.3615 0.4185 0.448 0.3578 0.349 0.4057 0.4385
3693.993 0.393 0.3898 0.3911 0.4123 0.5189 0.4128 0.4221 0.5252 0.5907 0.6207
3713.282 0.4725 0.2871 0.2706 0.3625 0.4013 0.3525 0.3195 0.3636 0.456 0.4638
3732.572 0.3204 0.285 0.4037 0.4912 0.4366 0.2324 0.1888 0.4135 0.4003 0.2176
3751.862 0.3027 0.3443 0.2719 0.2533 0.1726 0.1945 0.3025 0.4337 0.5356 0.4963
3771.152 0.377 0.3874 0.3541 0.283 0.4211 0.4885 0.3445 0.2322 0.2401 0.1395
3790.441 0.1743 0.2171 0.2027 0.3398 0.3924 0.3825 0.292 0.272 0.3312 0.3202
3809.731 0.3826 0.2797 0.179 0.282 0.3035 0.2292 0.2492 0.1767 0.0437 0.1933
3829.021 0.349 0.3516 0.2941 0.2488 0.2501 0.03659 0.05822 0.2942 0.2273 0.2125
3848.311 0.2027 0.1541 0.2469 0.2985 0.1242 0.106 0.2017 0.2938 0.3641 0.3144
3867.601 0.3358 0.4191 0.4041 0.3755 0.3918 0.2489 0.2731 0.3797 0.2357 0.1848
3886.890 0.235 0.2597 0.3197 0.4243 0.4689 0.4591 0.3372 0.2386 0.3362 0.3781
3906.180 0.409 0.2024 0.02627 0.1068 0.2086 0.2674 0.3262 0.3544 0.1558 0.09766
3925.470 0.3058 0.3571 0.2044 0.271 0.4521 0.3992 0.3673 0.5148 0.5151 0.4337
3944.760 0.3652 0.386 0.3697 0.2555 0.2094 0.2112 0.3001 0.2781 0.282 0.374
3964.049 0.3536 0.2984 0.3781 0.4513 0.2578 0.1988 0.2444 0.2412 0.278 0.3421
3983.339 0.369 0.3502 0.316 0.2971 0.3081 0.2631 0.2487 0.2383 0.3396 0.4034
##END=
