##TITLE=2-Ethylcyclohexanone
##JCAMP-DX=4.24
##DATA TYPE=INFRARED SPECTRUM
##ORIGIN=NIST Mass Spectrometry Data Center
##OWNER=NIST Standard Reference Data Program
Collection (C) 2018 copyright by the U.S. Secretary of Commerce
on behalf of the United States of America. All rights reserved.
##CAS REGISTRY NO=4423-94-3
##MOLFORM=C 8 H 14 O
##$NIST SOURCE=MSDC-IR
##SPECTROMETER/DATA SYSTEM=HP-GC/MS/IRD
##STATE=gas
##XUNITS=1/CM
##YUNITS=ABSORBANCE
##XFACTOR=1.0
##YFACTOR=0.000003300
##DELTAX=4.0
##FIRSTX=550.0
##LASTX=3846.0
##FIRSTY=0.000228
##MAXX=3846
##MINX=550
##MAXY=0.033
##MINY=0
##NPOINTS=825
##XYDATA=(X++(Y..Y))
550.0 69 92 102 131 140 127 113 89 62 34
590.0 33 34 16 20 19 20 26 9 7 14
630.0 2 3 17 18 12 19 25 19 40 51
670.0 40 41 31 43 60 81 99 121 148 172
710.0 191 184 160 137 137 133 115 93 81 76
750.0 62 59 66 87 113 126 142 159 155 135
790.0 117 105 96 91 101 117 151 209 283 339
830.0 376 386 365 333 287 269 273 273 265 243
870.0 213 179 150 131 116 104 105 123 138 149
910.0 163 173 176 177 178 167 148 129 111 93
950.0 89 96 104 115 127 136 143 161 192 222
990.0 244 276 306 328 335 327 315 301 283 270
1030.0 260 250 259 300 364 416 449 461 455 426
1070.0 398 371 349 339 337 343 359 397 487 617
1110.0 765 914 1030 1095 1095 1040 942 833 726 632
1150.0 531 438 356 281 228 193 179 181 201 242
1190.0 318 418 518 604 672 705 680 615 550 494
1230.0 450 422 400 393 387 386 383 367 349 324
1270.0 305 303 299 299 312 328 354 394 447 501
1310.0 544 566 575 576 560 540 544 560 562 560
1350.0 551 547 551 544 535 529 506 487 478 458
1390.0 421 382 342 310 298 319 368 431 513 603
1430.0 698 796 900 1025 1166 1314 1384 1344 1264 1129
1470.0 950 762 594 450 327 245 194 156 128 107
1510.0 90 84 82 78 77 73 70 72 74 70
1550.0 66 65 65 70 75 77 67 65 71 70
1590.0 74 71 70 69 67 73 81 84 88 96
1630.0 105 115 127 141 153 169 187 212 239 266
1670.0 307 372 445 524 636 782 992 1320 1833 2619
1710.0 3717 5049 6397 7404 7821 7638 6839 5449 3820 2451
1750.0 1540 1001 697 518 410 340 290 255 228 214
1790.0 201 188 172 153 139 120 106 93 84 78
1830.0 74 69 63 57 52 51 54 51 44 41
1870.0 38 37 36 39 36 34 33 30 33 39
1910.0 35 36 34 29 28 29 30 28 23 24
1950.0 28 28 28 29 31 32 31 28 23 19
1990.0 19 21 19 16 15 14 19 24 21 21
2030.0 20 18 18 19 19 15 13 16 16 15
2070.0 11 9 12 11 11 12 9 8 13 16
2110.0 15 14 12 17 18 15 15 18 20 20
2150.0 19 15 12 16 18 15 13 14 17 24
2190.0 26 25 25 21 20 21 21 20 18 15
2230.0 13 11 12 13 13 11 12 13 13 11
2270.0 11 12 16 18 18 17 19 16 13 13
2310.0 12 15 14 12 13 14 12 8 10 16
2350.0 20 17 16 20 18 14 17 16 16 17
2390.0 17 17 18 21 21 20 12 4 8 13
2430.0 13 10 9 12 10 9 11 13 10 4
2470.0 4 6 5 6 10 12 11 4 0 0
2510.0 1 7 11 11 13 15 18 14 14 16
2550.0 14 16 20 17 15 16 19 22 18 17
2590.0 21 22 26 26 22 23 27 26 25 36
2630.0 42 39 41 49 59 65 69 75 86 92
2670.0 94 93 84 76 70 63 57 53 51 49
2710.0 52 53 53 55 65 74 83 92 92 93
2750.0 97 99 105 115 123 131 146 156 169 181
2790.0 196 213 221 234 245 254 272 294 326 368
2830.0 427 518 646 818 1067 1411 1864 2367 2909 3402
2870.0 3623 3658 3551 3308 3006 2690 2464 2345 2342 2459
2910.0 2708 3118 3748 4632 5728 6941 8255 9491 10000 9583
2950.0 8753 7796 6828 5994 5416 4958 4452 3859 3136 2366
2990.0 1722 1276 970 752 595 486 414 369 330 304
3030.0 278 247 233 227 216 205 192 179 165 158
3070.0 151 145 139 132 130 120 104 94 94 100
3110.0 89 77 74 73 74 72 69 67 66 62
3150.0 60 60 59 53 50 48 42 42 44 45
3190.0 42 42 39 32 28 31 33 30 30 25
3230.0 20 23 24 22 19 19 17 12 7 13
3270.0 24 24 21 13 5 9 9 9 5 0
3310.0 0 3 7 10 5 3 7 11 15 16
3350.0 17 17 18 13 10 12 12 17 22 30
3390.0 34 32 37 48 59 72 82 98 114 127
3430.0 139 145 142 123 104 85 70 62 53 44
3470.0 42 38 27 19 14 17 22 19 16 16
3510.0 12 15 23 16 10 14 14 14 17 15
3550.0 14 14 9 7 9 14 19 13 6 6
3590.0 13 19 19 20 19 16 13 6 6 11
3630.0 11 12 15 11 13 8 9 18 24 18
3670.0 11 16 16 15 16 18 21 20 18 24
3710.0 23 11 11 19 25 23 16 15 15 22
3750.0 32 29 29 31 32 29 20 18 22 23
3790.0 28 28 23 25 30 27 25 25 22 23
3830.0 23 26 20 13 17
##END=
