##TITLE=Nonyl isothiocyanate
##JCAMP-DX=4.24
##DATA TYPE=INFRARED SPECTRUM
##ORIGIN=EPA-IR VAPOR PHASE LIBRARY
##OWNER=SRD/NIST
Collection (C) 2018 copyright by the U.S. Secretary of Commerce
on behalf of the United States of America. All rights reserved.
##CAS REGISTRY NO=4430-43-7
##MOLFORM=C 10 H 19 N S
##$NIST SOURCE=MSDC-IR
##STATE=gas
##XUNITS=1/CM
##YUNITS=ABSORBANCE
##XFACTOR=1.
##YFACTOR=0.001
##DELTAX=1.92898
##FIRSTX=549.8
##LASTX=4000.7
##FIRSTY=6.207
##MAXX=4000.7
##MINX=549.759
##MAXY=0.218037
##MINY=0
##NPOINTS=1790
##XYDATA=(X++(Y..Y))
549.759 6.207 5.897 5.827 5.847 5.697 5.587 5.517 5.647 5.397 4.857
569.049 4.947 4.697 4.147 4.157 4.157 3.897 3.787 3.847 3.737 3.487
588.339 3.217 3.157 3.027 2.657 2.397 2.547 2.667 2.487 2.497 2.437
607.628 2.197 1.957 1.687 1.797 1.937 1.797 1.557 1.487 1.617 1.347
626.918 1.327 1.537 1.447 1.467 1.477 1.297 1.327 1.567 1.697 1.687
646.208 1.707 1.837 1.917 1.967 2.037 2.197 2.157 2.107 2.277 2.037
665.498 1.807 1.897 1.957 1.937 1.847 1.767 1.857 2.037 2.017 1.987
684.787 2.127 2.287 2.497 2.747 2.947 3.047 3.327 3.727 3.937 4.077
704.077 4.177 4.337 4.447 4.377 4.397 4.407 4.317 4.337 4.397 4.377
723.367 4.217 3.987 3.917 3.947 3.887 3.837 3.697 3.447 3.347 3.427
742.657 3.357 3.087 3.037 3.127 3.097 2.907 2.957 3.067 2.907 2.797
761.947 2.727 2.647 2.637 2.487 2.347 2.377 2.397 2.257 2.047 1.987
781.236 1.907 1.917 1.947 1.867 1.587 1.297 1.477 1.467 1.407 1.407
800.526 1.247 1.287 1.257 1.1647 1.2027 1.337 1.1729 1.0732 1.1864 1.2185
819.816 1.1646 1.1344 1.232 1.427 1.387 1.217 1.2349 1.247 1.2179 1.125
839.106 1.1476 1.2286 1.178 1.317 1.417 1.245 1.277 1.1303 1.1313 1.387
858.395 1.287 1.1409 1.1729 1.277 1.357 1.387 1.357 1.447 1.407 1.377
877.685 1.447 1.437 1.487 1.337 1.407 1.667 1.707 1.687 1.627 1.697
896.975 1.747 1.737 1.697 1.647 1.637 1.607 1.557 1.677 1.967 2.077
916.265 1.967 2.007 2.037 1.947 2.077 2.087 1.957 1.977 1.957 1.937
935.555 2.007 2.027 1.917 2.047 2.107 1.907 1.947 1.967 1.997 2.007
954.844 1.967 1.797 1.607 1.447 1.507 1.607 1.567 1.537 1.457 1.457
974.134 1.517 1.597 1.747 1.817 1.727 1.707 1.747 1.727 1.657 1.657
993.424 1.807 1.937 1.947 1.807 1.687 1.757 1.757 1.867 1.967 1.787
1012.714 1.817 1.867 1.687 1.467 1.497 1.827 1.997 1.817 1.877 1.977
1032.003 1.987 2.167 2.287 2.217 2.077 1.947 2.097 2.367 2.407 2.277
1051.293 1.997 1.927 2.397 2.657 2.637 2.647 2.237 2.127 2.377 2.227
1070.583 2.017 2.247 2.327 2.007 1.907 2.027 2.027 1.897 1.777 1.937
1089.873 2.127 2.137 2.227 2.307 1.957 1.687 1.677 1.887 2.207 2.297
1109.163 2.537 2.457 2.437 2.417 2.367 2.477 2.447 2.337 2.177 2.017
1128.452 2.067 2.167 2.117 2.297 2.117 1.817 1.807 1.727 1.757 1.737
1147.742 1.547 1.547 1.577 1.647 1.617 1.557 1.667 1.557 1.607 1.817
1167.032 1.947 1.987 1.807 1.997 1.937 1.747 2.137 2.327 2.297 2.227
1186.322 2.047 1.847 2.107 2.577 2.427 2.107 2.097 2.177 2.127 2.137
1205.611 2.407 2.417 2.207 2.457 2.427 2.067 2.407 2.597 2.447 2.527
1224.901 2.777 2.677 2.347 2.527 2.997 3.107 2.987 2.837 3.027 3.337
1244.191 3.187 3.147 3.427 3.527 3.457 3.517 3.587 3.707 3.807 3.897
1263.481 3.997 3.847 3.807 4.177 4.407 4.557 4.737 4.687 4.887 5.237
1282.771 5.327 5.467 5.627 5.817 6.197 6.497 6.797 7.187 7.577 7.957
1302.060 8.307 8.707 9.087 9.427 9.757 10.057 10.397 10.697 11.017 11.407
1321.350 11.907 12.457 13.147 14.147 15.367 16.907 18.697 20.737 23.037 25.507
1340.640 27.947 30.257 32.277 33.677 34.337 34.147 33.227 31.747 29.817 27.697
1359.930 25.547 23.567 21.817 20.207 18.637 17.037 15.477 13.957 12.517 11.327
1379.219 10.317 9.397 8.607 7.897 7.227 6.517 5.897 5.397 4.927 4.527
1398.509 4.277 4.037 3.807 3.677 3.597 3.517 3.487 3.437 3.437 3.447
1417.799 3.537 3.707 3.837 4.047 4.247 4.547 4.997 5.437 5.997 6.707
1437.089 7.567 8.547 9.667 10.937 12.387 13.987 15.687 17.497 19.507 21.697
1456.378 23.727 25.267 26.177 26.367 25.617 23.797 21.287 18.637 16.037 13.557
1475.668 11.357 9.517 8.007 6.867 5.957 5.187 4.597 4.077 3.627 3.317
1494.958 3.087 2.847 2.617 2.417 2.197 2.037 1.987 1.917 1.807 1.727
1514.248 1.697 1.597 1.517 1.517 1.477 1.387 1.317 1.277 1.2282 1.267
1533.538 1.277 1.1989 1.1943 1.1491 1.1022 1.068 1.005 0.9875 0.9357 0.8834
1552.827 0.942 0.9301 0.8554 0.8365 0.7784 0.7692 0.8254 0.8944 0.8828 0.8543
1572.117 0.8021 0.7089 0.7469 0.7445 0.6992 0.686 0.7007 0.6791 0.5917 0.6326
1591.407 0.6856 0.6571 0.6353 0.6563 0.6698 0.6767 0.7294 0.7349 0.6761 0.6554
1610.697 0.7272 0.6891 0.6512 0.713 0.6887 0.697 0.7223 0.653 0.6171 0.7135
1629.986 0.7234 0.6797 0.7408 0.7885 0.709 0.6189 0.6392 0.7423 0.7618 0.7233
1649.276 0.7388 0.7031 0.6444 0.6391 0.6373 0.6595 0.6182 0.6373 0.7344 0.7126
1668.566 0.6768 0.7038 0.74 0.6811 0.6423 0.6113 0.5715 0.6268 0.675 0.6436
1687.856 0.5877 0.594 0.6043 0.6157 0.627 0.6005 0.612 0.6422 0.6517 0.6362
1707.146 0.6271 0.5994 0.5854 0.6328 0.6193 0.5861 0.5798 0.6023 0.6378 0.6819
1726.435 0.6355 0.5905 0.6175 0.6351 0.6354 0.5924 0.604 0.5868 0.5781 0.6166
1745.725 0.6024 0.6045 0.6288 0.6541 0.6423 0.5982 0.6213 0.6306 0.6153 0.617
1765.015 0.6043 0.5995 0.6665 0.6448 0.5666 0.6036 0.5729 0.5474 0.6332 0.7166
1784.305 0.7073 0.6784 0.6619 0.6707 0.6909 0.6675 0.6895 0.7456 0.7484 0.7076
1803.594 0.7113 0.7688 0.802 0.7846 0.7994 0.8494 0.8507 0.8338 0.8778 0.8674
1822.884 0.8717 0.9203 0.9027 0.8967 0.9126 0.935 0.9956 1.0468 1.0285 1.048
1842.174 1.1165 1.1708 1.247 1.287 1.277 1.347 1.427 1.397 1.387 1.437
1861.464 1.497 1.527 1.577 1.697 1.797 1.857 1.927 1.997 2.067 2.167
1880.754 2.247 2.317 2.497 2.667 2.757 2.827 2.967 3.117 3.287 3.487
1900.043 3.677 3.817 3.957 4.157 4.317 4.457 4.667 4.877 5.107 5.357
1919.333 5.627 5.877 6.147 6.387 6.637 7.017 7.367 7.687 8.017 8.397
1938.623 8.807 9.177 9.587 10.077 10.537 11.047 11.607 12.147 12.697 13.387
1957.913 14.107 14.827 15.577 16.377 17.247 18.217 19.217 20.257 21.367 22.597
1977.202 23.967 25.337 26.787 28.397 30.097 31.907 33.857 35.917 38.137 40.587
1996.492 43.127 45.797 48.717 51.817 55.127 58.597 62.287 66.207 70.357 74.767
2015.782 79.407 84.337 89.677 95.247 101.037 107.177 113.617 120.387 127.467 134.817
2035.072 142.327 150.097 158.027 165.887 173.667 181.297 188.547 195.237 201.347 206.737
2054.362 211.197 214.617 216.917 218.037 217.947 216.517 213.777 209.837 204.837 198.867
2073.651 191.917 184.297 176.327 167.937 159.327 150.907 142.637 134.707 127.037 119.817
2092.941 113.207 106.947 101.167 95.917 91.057 86.637 82.617 78.937 75.527 72.307
2112.231 69.417 66.747 64.187 61.817 59.607 57.517 55.507 53.637 51.877 50.177
2131.521 48.607 47.117 45.677 44.407 43.207 42.087 41.097 40.187 39.327 38.527
2150.810 37.757 37.047 36.347 35.767 35.287 34.837 34.467 34.097 33.777 33.447
2170.100 33.147 32.887 32.587 32.337 32.147 31.947 31.767 31.547 31.227 30.897
2189.390 30.627 30.227 29.717 29.157 28.467 27.757 27.017 26.197 25.297 24.347
2208.680 23.387 22.497 21.587 20.587 19.667 18.827 17.947 17.057 16.207 15.407
2227.970 14.587 13.757 12.927 12.167 11.507 10.957 10.357 9.757 9.237 8.677
2247.259 8.267 7.877 7.447 7.117 6.827 6.547 6.297 5.937 5.617 5.427
2266.549 5.167 4.967 4.807 4.587 4.407 4.267 4.077 3.907 3.787 3.717
2285.839 3.567 3.367 3.247 3.177 3.077 2.947 2.867 2.817 2.737 2.637
2305.129 2.537 2.477 2.357 2.247 2.207 2.247 2.147 2.017 2.017 1.947
2324.418 1.847 1.797 1.727 1.637 1.617 1.587 1.497 1.487 1.487 1.427
2343.708 1.337 1.277 1.307 1.297 1.277 1.277 1.2256 1.1535 1.1505 1.1629
2362.998 1.1467 1.1418 1.1465 1.191 1.158 1.0935 1.0921 1.0742 1.0147 0.9988
2382.288 0.9571 0.9611 0.9755 0.9252 0.9322 0.9799 0.9968 0.9434 0.9086 0.9855
2401.578 0.9895 0.8662 0.8675 0.9589 0.9708 0.9298 0.8671 0.889 0.9505 0.8807
2420.867 0.8701 0.9547 0.9307 0.9051 0.9541 0.9719 0.9226 0.8633 0.8667 0.8687
2440.157 0.846 0.8291 0.8623 0.8919 0.8606 0.8127 0.7784 0.8268 0.8804 0.8194
2459.447 0.771 0.8201 0.9035 0.8675 0.7808 0.7884 0.7545 0.8043 0.8643 0.865
2478.737 0.8693 0.8261 0.8116 0.8672 0.904 0.865 0.8712 0.9466 0.9793 0.8931
2498.026 0.8645 0.8438 0.8519 0.9418 0.9592 1.0012 1.0413 1.0242 1.0146 1.0423
2517.316 1.0986 1.1063 1.0589 1.0699 1.105 1.1196 1.1738 1.2237 1.2182 1.2214
2536.606 1.2166 1.1642 1.1578 1.257 1.297 1.327 1.357 1.297 1.257 1.317
2555.896 1.367 1.347 1.437 1.427 1.437 1.467 1.427 1.517 1.537 1.427
2575.186 1.507 1.627 1.457 1.397 1.547 1.587 1.537 1.507 1.557 1.627
2594.475 1.577 1.477 1.437 1.397 1.417 1.467 1.507 1.537 1.497 1.497
2613.765 1.497 1.427 1.367 1.427 1.467 1.497 1.467 1.477 1.517 1.477
2633.055 1.507 1.537 1.587 1.597 1.547 1.617 1.607 1.607 1.657 1.767
2652.345 1.817 1.777 1.817 1.897 2.027 2.107 2.147 2.177 2.177 2.227
2671.634 2.327 2.467 2.587 2.567 2.647 2.767 2.797 2.817 2.817 2.947
2690.924 3.117 3.097 2.977 2.937 3.037 3.107 3.177 3.277 3.387 3.397
2710.214 3.427 3.727 3.817 3.797 3.837 3.897 4.047 4.237 4.427 4.507
2729.504 4.467 4.447 4.537 4.687 4.747 4.657 4.597 4.667 4.637 4.567
2748.794 4.557 4.547 4.467 4.437 4.347 4.217 4.227 4.137 4.007 3.997
2768.083 3.987 4.017 4.037 3.957 3.877 3.897 3.947 3.977 4.017 4.097
2787.373 4.237 4.307 4.367 4.557 4.747 4.777 4.807 4.987 5.037 5.077
2806.663 5.177 5.377 5.757 5.937 5.967 6.227 6.487 6.627 6.947 7.387
2825.953 7.697 8.057 8.457 8.887 9.617 10.327 11.007 12.077 13.367 14.777
2845.242 16.547 18.827 21.657 25.117 29.137 33.397 37.987 42.457 46.277 49.357
2864.532 51.367 52.237 52.067 51.007 49.467 47.807 46.267 45.087 44.237 43.447
2883.822 42.617 41.687 40.607 39.357 38.107 37.287 36.837 36.767 37.327 38.487
2903.112 40.147 42.407 45.137 48.417 52.317 56.807 62.027 68.187 75.167 83.127
2922.401 92.027 101.347 110.637 119.417 126.907 132.447 135.817 137.047 136.367 134.117
2941.691 130.507 125.667 120.167 114.477 108.737 102.937 97.347 92.087 87.117 82.497
2960.981 78.157 74.277 70.757 67.047 62.927 58.177 52.697 46.687 40.567 34.947
2980.271 30.077 25.997 22.687 20.037 17.907 15.997 14.397 13.087 12.027 11.097
2999.561 10.137 9.457 8.887 8.327 7.817 7.337 6.897 6.497 6.267 5.977
3018.850 5.657 5.407 5.047 4.807 4.647 4.447 4.347 4.217 3.987 3.787
3038.140 3.657 3.437 3.237 3.137 3.067 3.007 2.977 2.907 2.797 2.657
3057.430 2.587 2.567 2.367 2.247 2.187 2.237 2.217 2.047 1.997 1.967
3076.720 2.027 2.087 1.927 1.857 1.837 1.637 1.627 1.767 1.737 1.577
3096.009 1.547 1.497 1.547 1.607 1.447 1.347 1.327 1.287 1.1617 1.2259
3115.299 1.317 1.357 1.277 1.1896 1.1798 1.1268 1.1649 1.0992 1.042 1.1524
3134.589 1.1156 0.8941 0.7962 0.8611 0.9901 1.0342 1.069 1.1085 1.0395 1.0241
3153.879 1.0231 1.1106 1.0716 0.9031 0.9021 0.9591 0.8965 0.9423 1.0114 0.8485
3173.169 0.8032 0.7411 0.6902 0.8843 0.9135 0.745 0.7394 0.7516 0.6825 0.789
3192.458 0.8578 0.8906 0.8143 0.661 0.6039 0.6561 0.7036 0.5335 0.4123 0.419
3211.748 0.3913 0.4412 0.6123 0.4963 0.4185 0.406 0.33256 0.4582 0.4969 0.27068
3231.038 0.26743 0.5184 0.5227 0.3743 0.3715 0.4604 0.4492 0.3987 0.34384 0.4144
3250.328 0.4334 0.3981 0.4318 0.3639 0.249538 0.30313 0.36 0.3201 0.376 0.3825
3269.617 0.255144 0.30916 0.5328 0.4816 0.2098 0.108 0.1797 0.24306 0.2691 0.114
3288.907 0 0.125 0.2368 0.1715 0.1564 0.2303 0.161 0.116 0.28235 0.24044
3308.197 0.1712 0.245 0.27113 0.26595 0.32286 0.3587 0.29661 0.246244 0.24432 0.3829
3327.487 0.3986 0.28961 0.1901 0.2263 0.30279 0.32512 0.402 0.3842 0.32262 0.252657
3346.777 0.32141 0.256701 0.054 0.061 0.250029 0.3643 0.30192 0.30348 0.25934 0.1957
3366.066 0.2299 0.34603 0.3641 0.29795 0.31287 0.30187 0.24569 0.1869 0.299 0.4359
3385.356 0.3793 0.3922 0.381 0.2307 0.28301 0.5901 0.6339 0.4864 0.3989 0.229
3404.646 0.30974 0.3802 0.25952 0.32728 0.24327 0.1757 0.3922 0.445 0.4127 0.36
3423.936 0.29509 0.28534 0.33771 0.4452 0.386 0.3907 0.3595 0.3571 0.2894 0.1655
3443.225 0.26469 0.3649 0.27476 0.28752 0.402 0.2963 0.1633 0.1569 0.26702 0.3739
3462.515 0.4327 0.3832 0.31878 0.408 0.3788 0.33177 0.31222 0.26203 0.248951 0.175
3481.805 0.1919 0.2123 0.2089 0.25729 0.23758 0.097 0.161 0.246398 0.2051 0.1927
3501.095 0.24537 0.33224 0.3706 0.33161 0.1875 0.192 0.26263 0.29268 0.2015 0.146
3520.385 0.185 0.1818 0.31109 0.3677 0.32254 0.3631 0.2304 0.1659 0.2119 0.34085
3539.674 0.31838 0.187 0.3717 0.4373 0.2082 0.133 0.1712 0.26163 0.4066 0.33576
3558.964 0.2015 0.041 0.09 0.12 0.077 0.137 0.26617 0.31349 0.194 0.133
3578.254 0.1509 0.2241 0.28558 0.3525 0.4057 0.4641 0.3831 0.27673 0.31771 0.33996
3597.544 0.3758 0.31534 0.30995 0.34589 0.3777 0.4055 0.4469 0.4298 0.29389 0.28027
3616.833 0.3219 0.26719 0.3932 0.5019 0.3803 0.47 0.5169 0.5255 0.5588 0.4467
3636.123 0.31814 0.3865 0.4555 0.463 0.4908 0.4601 0.4321 0.462 0.4462 0.3687
3655.413 0.4161 0.5075 0.5387 0.5296 0.4834 0.4696 0.4711 0.5055 0.5991 0.4935
3674.703 0.403 0.4941 0.5829 0.524 0.458 0.5424 0.5233 0.4203 0.4295 0.4326
3693.993 0.28739 0.366 0.5504 0.473 0.4145 0.3965 0.4324 0.442 0.387 0.4329
3713.282 0.409 0.3402 0.4639 0.4782 0.3377 0.3759 0.5197 0.4042 0.3569 0.4306
3732.572 0.3488 0.3719 0.253123 0.25884 0.4204 0.4189 0.4048 0.30479 0.407 0.3505
3751.862 0.2065 0.31411 0.4222 0.5411 0.5056 0.32085 0.32468 0.5075 0.4062 0.3962
3771.152 0.5157 0.5072 0.6092 0.65 0.5825 0.6577 0.699 0.6962 0.6156 0.7123
3790.441 0.8414 0.5449 0.4223 0.5192 0.5243 0.4961 0.4304 0.4576 0.4587 0.3971
3809.731 0.3991 0.4047 0.34674 0.32731 0.32556 0.3746 0.5535 0.5602 0.4737 0.4659
3829.021 0.4469 0.4982 0.7336 0.7148 0.4316 0.488 0.6345 0.6092 0.5656 0.6237
3848.311 0.5921 0.587 0.6066 0.5437 0.6055 0.5867 0.4798 0.4882 0.6393 0.7458
3867.601 0.6566 0.4706 0.4606 0.6517 0.5545 0.5052 0.6875 0.6815 0.5523 0.4961
3886.890 0.5625 0.5853 0.4763 0.363 0.543 0.6796 0.628 0.6563 0.6692 0.6111
3906.180 0.5783 0.543 0.6385 0.7451 0.7545 0.7025 0.6298 0.7271 0.8131 0.818
3925.470 0.9035 0.7895 0.7628 0.8857 0.821 0.7942 0.8573 0.8524 0.8745 0.7459
3944.760 0.5803 0.743 0.9108 0.8317 0.6634 0.6924 0.86 0.8663 0.7383 0.6865
3964.049 0.7163 0.855 0.9111 0.9608 0.9588 0.9658 1.0457 1.0705 1.0392 0.9571
3983.339 0.9507 0.8938 0.923 1.1405 1.1778 0.988 0.9819 1.2422 1.267 1.1601
##END=
