##TITLE=3,4-Methylenedioxybenzyl isothiocyanate
##JCAMP-DX=4.24
##DATA TYPE=INFRARED SPECTRUM
##ORIGIN=EPA-IR VAPOR PHASE LIBRARY
##OWNER=SRD/NIST
Collection (C) 2018 copyright by the U.S. Secretary of Commerce
on behalf of the United States of America. All rights reserved.
##CAS REGISTRY NO=4430-47-1
##MOLFORM=C 9 H 7 N O 2 S
##$NIST SOURCE=MSDC-IR
##STATE=gas
##XUNITS=1/CM
##YUNITS=ABSORBANCE
##XFACTOR=1.
##YFACTOR=0.001
##DELTAX=1.92918
##FIRSTX=549.8
##LASTX=3999.2
##FIRSTY=11.54
##MAXX=3999.2
##MINX=549.817
##MAXY=0.29562
##MINY=0
##NPOINTS=1789
##XYDATA=(X++(Y..Y))
549.817 11.54 11.46 10.92 10.46 10.02 9.78 9.67 9.13 8.76 8.32
569.109 8.09 7.98 7.77 7.53 7.16 7.23 7.19 7.01 7.14 7.09
588.401 6.96 6.87 6.87 6.71 6.43 6.33 6.07 5.91 5.87 5.8
607.693 5.69 5.64 5.58 5.66 5.74 5.69 5.76 5.96 6.19 6.25
626.984 6.25 6.27 6.3 6.17 6.17 6.21 6.22 6.29 6.2 6.07
646.276 6.03 5.96 5.91 5.85 5.71 5.69 5.65 5.6 5.55 5.51
665.568 5.52 5.62 5.74 5.81 6.05 6.39 6.79 7.5 8.33 9.1
684.860 10.14 11.21 12.3 13.57 14.85 16.12 17.19 18.08 18.74 19.18
704.152 19.51 19.6 19.62 19.86 19.97 19.64 18.95 18.07 17.11 15.9
723.444 14.72 14.11 13.84 13.64 13.41 13.28 13.25 13.1 12.92 12.6
742.735 12.2 11.92 11.79 11.58 11.48 11.64 12 12.39 12.73 13.22
762.027 13.79 14.26 14.48 14.57 14.6 14.38 13.98 13.49 12.86 12.34
781.319 11.94 11.64 11.75 12.18 12.83 13.74 14.77 16 17.43 19.13
800.611 20.89 22.52 23.87 24.72 24.83 24.07 22.61 20.58 18.27 16.07
819.903 14.07 12.45 11.16 10.19 9.53 9.17 9.01 8.81 8.79 8.94
839.195 8.98 9.05 9.23 9.49 9.92 10.41 10.8 11.31 11.86 12.23
858.487 12.39 11.97 11.11 10.29 9.48 8.57 7.65 6.79 6.04 5.38
877.778 4.85 4.54 4.3 4.19 4.26 4.31 4.34 4.54 4.91 5.26
897.070 5.77 6.43 7.19 8.19 9.31 10.55 12.02 13.67 15.43 17.36
916.362 19.26 21.09 22.86 24.61 26.34 27.94 29.43 30.8 32.05 33.16
935.654 33.93 34.43 34.76 34.76 34.36 33.57 32.37 30.74 28.91 26.92
954.946 24.79 22.77 20.73 18.73 16.83 15.05 13.42 11.89 10.63 9.56
974.238 8.68 7.9 7.35 6.98 6.64 6.46 6.37 6.28 6.26 6.29
993.529 6.4 6.66 6.93 7.24 7.75 8.31 8.84 9.64 10.53 11.51
1012.821 12.76 14.25 16.01 18.05 20.45 23.16 26.29 29.88 33.82 38.28
1032.113 43.24 48.54 54.08 59.69 65.02 69.82 73.83 76.59 78.04 78.05
1051.405 76.63 73.97 70.09 65.36 60.11 54.41 48.55 42.86 37.57 32.79
1070.697 28.61 25.23 22.56 20.45 18.88 17.9 17.36 17.06 17.21 17.72
1089.989 18.4 19.17 19.94 20.66 21.25 21.56 21.68 21.63 21.47 21.25
1109.281 20.96 20.72 20.56 20.48 20.39 20.32 20.19 19.7 18.87 17.87
1128.572 16.71 15.34 13.91 12.55 11.41 10.53 9.68 8.96 8.43 7.91
1147.864 7.43 7.05 6.77 6.57 6.45 6.38 6.38 6.48 6.65 6.87
1167.156 7.16 7.6 8.25 9.05 10.07 11.54 13.69 16.54 20.32 24.98
1186.448 29.77 33.92 36.86 38.43 38.64 37.47 35.17 32.61 30.78 30.07
1205.740 30.4 31.53 33.3 35.62 38.49 41.88 45.7 49.85 54.26 58.95
1225.032 64.01 69.43 75.32 81.95 89.53 98.26 108.69 121.11 135.37 150.83
1244.323 165.99 178.59 186.25 187.47 181.76 169.43 151.77 130.84 108.98 88.74
1263.615 71.83 58.5 48.4 40.87 35.23 30.97 27.75 25.32 23.45 21.96
1282.907 20.82 20 19.38 19.01 18.89 19.01 19.38 19.93 20.71 21.8
1302.199 23.19 24.94 27.15 29.9 33.3 37.47 42.5 48.29 54.51 60.61
1321.491 65.95 69.89 71.96 71.84 69.68 65.87 61.06 56.05 51.24 47.04
1340.783 43.71 41.24 39.52 38.55 38.19 38.34 38.99 40.12 41.54 42.99
1360.075 44.13 44.59 44.09 42.49 39.78 36.29 32.35 28.25 24.43 21.27
1379.366 18.67 16.63 15.07 13.95 13.13 12.51 12.08 11.83 11.67 11.47
1398.658 11.33 11.28 11.22 11.08 11.06 11.38 11.91 12.57 13.53 14.76
1417.950 16.34 18.38 20.77 23.68 27.36 31.7 36.94 43.05 50.31 58.52
1437.242 68.52 78.47 87.75 95.79 101.65 105.52 106.95 104.91 98.36 89.44
1456.534 79.47 68.81 57.63 46.06 36.91 31.14 28.85 28.86 31.04 35.16
1475.826 41.29 50.27 62.38 78.71 98.95 121.7 143.88 160.22 167.27 165.04
1495.117 154.69 137.69 117.37 97.79 83.59 74.56 67.03 60.81 55.82 49.69
1514.409 41.57 32.7 25.53 20.96 17.64 15.4 13.68 12.34 11.3 10.41
1533.701 9.63 8.92 8.32 7.74 7.06 6.48 6.02 5.61 5.31 5.03
1552.993 4.84 4.73 4.6 4.55 4.47 4.42 4.46 4.5 4.55 4.55
1572.285 4.58 4.67 4.75 4.71 4.71 4.76 4.8 4.87 4.98 5.07
1591.577 5.2 5.38 5.57 5.83 6.08 6.3 6.46 6.57 6.64 6.67
1610.869 6.65 6.51 6.37 6.22 5.94 5.68 5.52 5.35 5.15 4.96
1630.160 4.79 4.63 4.38 4.13 3.9 3.66 3.45 3.28 3.12 2.936
1649.452 2.8705 2.8119 2.6746 2.6801 2.644 2.5337 2.5402 2.5551 2.4972 2.4638
1668.744 2.4645 2.4603 2.5433 2.6153 2.6124 2.6367 2.6943 2.7777 2.875 2.9507
1688.036 3.0099 3.14 3.24 3.32 3.44 3.56 3.7 3.89 3.99 4.1
1707.328 4.25 4.38 4.51 4.55 4.54 4.52 4.43 4.3 4.17 4.02
1726.620 3.89 3.75 3.61 3.49 3.36 3.28 3.23 3.2 3.17 3.16
1745.911 3.18 3.23 3.28 3.32 3.4 3.47 3.52 3.58 3.58 3.61
1765.203 3.66 3.63 3.6 3.54 3.44 3.33 3.22 3.16 3.0894 3.0408
1784.495 2.9683 2.887 2.8176 2.7502 2.7195 2.7338 2.7447 2.77 2.7815 2.7828
1803.787 2.8787 2.9924 3.0597 3.14 3.29 3.53 3.73 3.93 4.15 4.33
1823.079 4.56 4.77 4.95 5.09 5.27 5.42 5.5 5.56 5.6 5.65
1842.371 5.64 5.59 5.56 5.61 5.66 5.7 5.81 5.94 6.09 6.3
1861.663 6.5 6.67 6.79 6.89 7.02 7.11 7.15 7.14 7.17 7.21
1880.954 7.21 7.23 7.28 7.32 7.4 7.49 7.59 7.69 7.79 7.87
1900.246 8.01 8.23 8.44 8.64 8.86 9.13 9.42 9.75 10.16 10.53
1919.538 10.9 11.24 11.61 12.06 12.6 13.09 13.59 14.19 14.81 15.45
1938.830 16.13 16.86 17.68 18.58 19.55 20.59 21.71 22.9 24.23 25.65
1958.122 27.13 28.71 30.43 32.34 34.38 36.6 38.98 41.5 44.2 47.12
1977.414 50.28 53.69 57.33 61.19 65.31 69.73 74.43 79.41 84.75 90.34
1996.705 96.25 102.45 108.97 115.8 122.89 130.27 137.88 145.81 154.03 162.49
2015.997 171.08 179.79 188.59 197.41 206.22 214.91 223.44 231.73 239.71 247.4
2035.289 254.68 261.57 268.13 274.21 279.76 284.65 288.84 292.23 294.52 295.62
2054.581 295.51 294.18 291.48 287.65 283 277.5 271.2 264.2 256.48 247.96
2073.873 238.55 228.3 217.15 205.39 193.3 181.02 168.91 157.21 146.01 135.47
2093.165 125.5 116.25 107.74 99.89 92.68 86.04 79.95 74.39 69.37 64.9
2112.456 60.87 57.3 54.17 51.39 49.01 46.91 45.12 43.65 42.39 41.35
2131.748 40.58 40.01 39.58 39.33 39.28 39.32 39.48 39.83 40.27 40.81
2151.040 41.45 42.19 43.01 43.99 45.06 46.13 47.3 48.54 49.72 50.87
2170.332 51.91 52.68 53.2 53.4 53.18 52.59 51.58 50.17 48.48 46.66
2189.624 44.67 42.62 40.63 38.67 36.74 34.95 33.31 31.78 30.43 29.1
2208.916 27.81 26.6 25.37 24.17 22.94 21.7 20.5 19.38 18.38 17.41
2228.208 16.47 15.63 14.86 14.18 13.53 12.94 12.47 12.03 11.6 11.17
2247.499 10.79 10.43 10.09 9.82 9.54 9.28 8.99 8.7 8.42 8.15
2266.791 7.96 7.73 7.5 7.28 7.08 6.91 6.74 6.58 6.42 6.3
2286.083 6.2 6.07 5.95 5.89 5.79 5.71 5.69 5.58 5.43 5.34
2305.375 5.21 5.06 5 4.91 4.78 4.65 4.53 4.42 4.32 4.22
2324.667 4.06 3.87 3.73 3.67 3.57 3.47 3.39 3.31 3.26 3.22
2343.959 3.14 3.0898 2.9896 2.9447 2.9299 2.8843 2.8832 2.9117 2.8792 2.8361
2363.250 2.8819 2.9114 2.8693 2.7815 2.778 2.8111 2.7849 2.8157 2.8389 2.7825
2382.542 2.7039 2.6426 2.585 2.5229 2.4846 2.3861 2.2935 2.2697 2.203 2.15042
2401.834 2.14931 2.09567 2.0532 2.036 2.0082 1.973 1.943 1.965 1.937 1.908
2421.126 1.891 1.892 1.887 1.807 1.797 1.783 1.768 1.803 1.822 1.848
2440.418 1.82 1.813 1.787 1.781 1.808 1.797 1.819 1.834 1.852 1.84
2459.710 1.87 1.904 1.875 1.876 1.925 1.989 2.0348 2.0658 2.0192 1.983
2479.002 2.0337 2.08814 2.08611 2.10315 2.15241 2.203 2.2392 2.2351 2.2344 2.262
2498.293 2.3176 2.3408 2.3071 2.3171 2.348 2.378 2.4339 2.4216 2.3907 2.4025
2517.585 2.4125 2.4908 2.5498 2.5736 2.6188 2.648 2.6443 2.6984 2.7533 2.7891
2536.877 2.8485 2.8448 2.853 2.927 2.9735 2.9428 2.957 2.9837 3.0209 3.0563
2556.169 3.0548 3.09 3.13 3.072 3.0164 3.0002 2.9865 3.0465 3.13 3.11
2575.461 3.0818 3.09 3.0871 3.0241 2.945 2.9473 2.9642 2.9537 2.9296 2.9395
2594.753 2.9122 2.8968 2.926 2.8713 2.9209 3.0008 3.0139 3.11 3.15 3.12
2614.044 3.15 3.1 2.9814 2.9009 2.848 2.7748 2.6254 2.5181 2.4599 2.4316
2633.336 2.4142 2.3966 2.4101 2.4079 2.3935 2.4167 2.4503 2.4237 2.4517 2.491
2652.628 2.5112 2.5633 2.5605 2.6086 2.6877 2.7141 2.805 2.923 3.0513 3.1
2671.920 3.16 3.28 3.38 3.45 3.51 3.6 3.66 3.68 3.69 3.7
2691.212 3.77 3.79 3.82 3.82 3.8 3.83 3.75 3.66 3.67 3.67
2710.504 3.69 3.74 3.73 3.78 3.81 3.8 3.84 3.84 3.92 4.04
2729.796 4.04 4.06 4.14 4.24 4.34 4.41 4.47 4.63 4.78 4.89
2749.087 5.07 5.22 5.33 5.53 5.85 6.22 6.64 7.2 7.91 8.6
2768.379 9.41 10.33 11.23 11.96 12.37 12.35 11.92 11.2 10.25 9.23
2787.671 8.22 7.43 6.94 6.66 6.46 6.22 6.17 6.14 6.05 5.99
2806.963 5.97 6.03 6.08 6.07 6.06 6.12 6.15 6.21 6.39 6.53
2826.255 6.68 6.89 7.09 7.37 7.71 8.09 8.45 8.79 9.16 9.49
2845.547 9.91 10.38 10.87 11.45 12.13 12.99 13.92 15.02 16.33 17.7
2864.838 19.08 20.57 22.11 23.68 25.14 26.59 27.85 28.92 29.92 30.68
2884.130 31.24 31.49 31.44 31.14 30.6 29.86 29.11 28.43 27.85 27.37
2903.422 26.93 26.66 26.63 26.63 26.73 27 27.28 27.68 28.11 28.46
2922.714 28.92 29.34 29.74 30.17 30.27 30.13 30 29.82 29.65 29.37
2942.006 28.93 28.48 28.19 27.81 27.31 26.9 26.31 25.45 24.46 23.15
2961.298 21.64 20.16 18.63 17.16 15.75 14.43 13.27 12.24 11.31 10.49
2980.590 9.84 9.28 8.8 8.52 8.42 8.25 8.15 8.28 8.45 8.6
2999.881 8.67 8.77 8.92 9.04 9.31 9.71 10.13 10.58 11.1 11.53
3019.173 11.81 11.94 11.75 11.34 10.94 10.56 10.23 9.98 9.73 9.65
3038.465 9.63 9.5 9.26 8.95 8.66 8.23 7.66 7.18 6.75 6.25
3057.757 5.9 5.64 5.5 5.41 5.22 5.11 5.06 5.09 5.17 5.34
3077.049 5.45 5.31 5.06 4.86 4.55 4.15 3.72 3.37 3.12 2.8157
3096.341 2.6439 2.5169 2.3207 2.15854 2.12584 1.9969 1.789 1.801 1.822 1.652
3115.632 1.538 1.482 1.304 1.181 1.02 0.97 1.01 0.93 0.83 0.69
3134.924 0.62 0.61 0.58 0.49 0.37 0.37 0.43 0.46 0.38 0.39
3154.216 0.4 0.34 0.31 0.3 0.28 0.22 0.2 0.25 0.25 0.2
3173.508 0.29 0.33 0.14 0.12 0.12 0 0.05 0.15 0.11 0.12
3192.800 0.18 0.14 0.2 0.23 0.23 0.28 0.15 0.09 0.21 0.26
3212.092 0.2 0.17 0.11 0.13 0.26 0.3 0.26 0.22 0.27 0.36
3231.384 0.36 0.21 0.13 0.33 0.44 0.37 0.34 0.32 0.37 0.48
3250.675 0.42 0.35 0.35 0.39 0.39 0.37 0.45 0.34 0.31 0.34
3269.967 0.2 0.22 0.18 0.15 0.27 0.28 0.23 0.16 0.14 0.22
3289.259 0.33 0.35 0.26 0.28 0.24 0.21 0.28 0.35 0.29 0.2
3308.551 0.21 0.24 0.3 0.26 0.15 0.22 0.32 0.28 0.26 0.28
3327.843 0.31 0.23 0.19 0.22 0.3 0.28 0.21 0.18 0.18 0.29
3347.135 0.24 0.24 0.28 0.23 0.25 0.21 0.15 0.24 0.23 0.23
3366.426 0.31 0.33 0.25 0.22 0.27 0.34 0.36 0.3 0.28 0.28
3385.718 0.29 0.22 0.26 0.35 0.3 0.38 0.43 0.38 0.43 0.39
3405.010 0.36 0.34 0.29 0.3 0.42 0.41 0.35 0.38 0.38 0.32
3424.302 0.23 0.32 0.42 0.43 0.42 0.47 0.43 0.35 0.35 0.34
3443.594 0.32 0.36 0.48 0.45 0.36 0.36 0.39 0.43 0.48 0.51
3462.886 0.52 0.56 0.45 0.41 0.49 0.37 0.35 0.44 0.45 0.49
3482.178 0.52 0.44 0.43 0.53 0.5 0.54 0.59 0.56 0.62 0.59
3501.469 0.54 0.59 0.58 0.52 0.57 0.64 0.68 0.67 0.63 0.67
3520.761 0.62 0.54 0.57 0.57 0.6 0.68 0.73 0.61 0.51 0.67
3540.053 0.67 0.61 0.56 0.56 0.77 0.75 0.54 0.48 0.49 0.54
3559.345 0.55 0.5 0.54 0.58 0.55 0.53 0.57 0.68 0.72 0.64
3578.637 0.56 0.66 0.73 0.7 0.71 0.59 0.52 0.63 0.64 0.61
3597.929 0.64 0.6 0.6 0.65 0.7 0.68 0.64 0.61 0.7 0.87
3617.220 0.94 0.84 0.84 0.84 0.75 0.79 0.68 0.67 0.73 0.67
3636.512 0.72 0.8 0.68 0.58 0.71 0.71 0.64 0.65 0.67 0.67
3655.804 0.67 0.69 0.77 0.8 0.77 0.71 0.7 0.81 0.82 0.8
3675.096 0.79 0.87 0.91 0.84 0.84 0.83 0.84 0.84 0.77 0.71
3694.388 0.73 0.77 0.73 0.78 0.77 0.73 0.76 0.84 0.98 0.97
3713.680 0.82 0.78 0.76 0.78 0.87 0.78 0.77 0.8 0.8 0.9
3732.972 0.86 0.82 0.83 0.86 0.82 0.81 0.86 0.86 0.92 0.98
3752.263 0.86 0.77 0.9 0.87 0.89 1 0.93 0.89 0.93 0.99
3771.555 1 0.93 0.99 1.121 1.102 0.99 0.93 1.04 1.06 1.06
3790.847 1.06 1.04 1.07 1.02 0.99 1.06 1 1.01 1.02 0.97
3810.139 1.191 1.112 1 1.231 1.357 1.246 1.112 1.112 1.115 1.132
3829.431 1.161 1.153 1.252 1.301 1.195 1.171 1.124 1.146 1.14 0.99
3848.723 0.89 1 1.05 0.96 1 1.07 1.099 1.192 1.172 1.139
3868.014 1.333 1.257 1.167 1.238 1.283 1.319 1.287 1.286 1.269 1.195
3887.306 1.188 1.229 1.129 1.147 1.3 1.383 1.357 1.293 1.355 1.359
3906.598 1.325 1.381 1.415 1.405 1.392 1.342 1.371 1.405 1.494 1.557
3925.890 1.521 1.503 1.485 1.565 1.624 1.733 1.7 1.532 1.632 1.722
3945.182 1.698 1.784 1.885 1.911 1.748 1.658 1.772 1.769 1.75 1.733
3964.474 1.78 1.939 1.989 1.896 1.909 2.0058 1.943 1.869 1.847 1.959
3983.766 2.0364 1.892 1.837 1.899 2.0247 1.9907 1.889 1.939 2.0128
##END=
