##TITLE=1,4-Butane diisothiocyanate
##JCAMP-DX=4.24
##DATA TYPE=INFRARED SPECTRUM
##ORIGIN=EPA-IR VAPOR PHASE LIBRARY
##OWNER=SRD/NIST
Collection (C) 2018 copyright by the U.S. Secretary of Commerce
on behalf of the United States of America. All rights reserved.
##CAS REGISTRY NO=4430-51-7
##MOLFORM=C 6 H 8 N 2 S 2
##$NIST SOURCE=MSDC-IR
##STATE=gas
##XUNITS=1/CM
##YUNITS=ABSORBANCE
##XFACTOR=1.
##YFACTOR=0.001
##DELTAX=1.92898
##FIRSTX=549.8
##LASTX=4000.7
##FIRSTY=24.104
##MAXX=4000.7
##MINX=549.759
##MAXY=0.881544
##MINY=0
##NPOINTS=1790
##XYDATA=(X++(Y..Y))
549.759 24.104 23.254 22.954 22.904 22.644 21.964 21.304 20.874 20.124 19.364
569.049 18.884 18.284 17.764 17.434 16.884 16.124 15.354 14.794 14.264 13.784
588.339 13.444 12.844 12.244 11.824 11.424 10.844 10.334 9.994 9.454 9.044
607.628 8.694 8.274 7.884 7.434 7.064 6.804 6.504 6.334 6.224 6.134
626.918 6.044 5.854 5.594 5.624 5.604 5.614 5.734 5.734 5.784 5.744
646.208 5.884 6.014 6.134 6.224 6.204 6.344 6.484 6.504 6.514 6.544
665.498 6.584 6.714 6.714 6.374 6.044 5.944 5.714 5.524 5.474 5.374
684.787 5.404 5.404 5.504 5.644 6.004 6.434 6.724 7.024 7.394 7.874
704.077 8.064 8.124 8.244 8.214 8.204 8.234 7.994 7.594 7.304 7.014
723.367 6.754 6.494 6.114 5.744 5.664 5.654 5.404 5.464 5.684 5.734
742.657 5.874 6.144 6.474 6.784 7.034 7.364 7.794 8.194 8.504 8.864
761.947 9.544 10.204 10.964 11.884 12.634 13.514 14.494 15.334 15.934 16.164
781.236 15.954 15.364 14.584 13.654 12.624 11.514 10.274 9.114 8.184 7.314
800.526 6.634 6.254 6.004 5.714 5.244 5.134 5.184 5.134 5.024 5.014
819.816 5.094 5.204 5.414 5.574 5.594 5.654 5.764 5.804 5.824 5.904
839.106 5.974 5.934 5.884 5.654 5.434 5.394 5.224 5.154 4.984 4.864
858.395 5.004 4.874 4.814 4.954 4.994 4.954 4.924 4.964 5.204 5.314
877.685 5.234 5.234 5.204 5.214 5.334 5.334 5.164 5.174 5.274 5.144
896.975 5.244 5.274 5.264 5.444 5.544 5.554 5.524 5.734 5.904 5.954
916.265 5.964 6.134 6.284 6.374 6.644 6.974 7.294 7.584 7.894 8.024
935.555 8.074 8.274 8.334 8.184 8.004 7.794 7.614 7.474 7.314 7.204
954.844 7.224 7.334 7.194 7.144 7.294 7.414 7.474 7.444 7.494 7.454
974.134 7.404 7.344 7.244 7.034 6.774 6.464 6.244 6.144 5.984 5.794
993.424 5.654 5.504 5.244 5.124 5.074 5.024 4.934 4.814 4.794 4.774
1012.714 4.724 4.594 4.524 4.694 4.884 5.024 4.954 4.894 5.124 5.404
1032.003 5.494 5.644 6.034 6.024 5.924 6.094 6.244 6.404 6.344 6.424
1051.293 6.644 6.954 7.064 7.114 7.174 7.214 7.694 8.214 8.634 8.634
1070.583 8.344 8.634 8.794 8.534 8.674 8.594 8.494 8.574 8.354 8.284
1089.873 8.034 7.954 7.904 7.584 7.364 7.194 7.204 6.884 6.654 6.754
1109.163 6.674 7.084 7.434 7.134 6.954 7.144 7.654 7.604 7.414 7.604
1128.452 7.604 7.634 7.664 7.634 7.434 7.364 7.304 7.054 6.734 6.504
1147.742 6.434 6.584 6.674 6.354 6.184 6.234 6.254 6.264 6.074 6.134
1167.032 6.434 6.514 6.574 6.694 6.524 6.504 6.654 6.704 7.034 7.234
1186.322 7.414 7.744 7.954 8.024 7.924 7.964 8.024 8.014 8.044 7.924
1205.611 7.854 7.724 7.884 8.044 8.004 7.784 7.774 8.264 8.504 8.804
1224.901 8.824 8.814 9.144 9.564 9.724 9.744 9.964 9.984 10.064 10.164
1244.191 10.194 10.244 10.444 10.594 10.614 10.654 10.714 11.064 11.274 11.344
1263.481 11.454 11.724 11.844 11.974 12.414 12.714 13.124 13.574 13.984 14.614
1282.771 15.514 16.464 17.304 18.104 18.944 19.684 20.354 21.044 21.824 22.774
1302.060 24.054 25.674 27.684 30.064 32.614 35.254 37.804 40.154 42.254 44.264
1321.350 46.474 49.104 52.394 56.524 61.554 67.374 73.584 79.904 86.254 92.674
1340.640 99.384 106.334 113.284 119.644 124.304 126.304 125.594 122.404 116.894 109.604
1359.930 101.514 93.574 86.234 79.594 73.294 67.134 61.164 55.254 49.324 43.524
1379.219 38.024 33.034 28.624 24.834 21.594 18.904 16.804 15.104 13.644 12.484
1398.509 11.574 10.744 10.034 9.444 8.954 8.584 8.314 8.104 8.024 8.004
1417.799 8.074 8.204 8.474 8.834 9.284 9.884 10.654 11.674 12.954 14.414
1437.089 16.244 18.334 20.894 23.994 27.694 32.234 37.514 43.124 48.804 54.124
1456.378 58.534 61.144 61.244 59.604 56.544 51.554 44.644 37.054 30.324 24.794
1475.668 20.464 16.944 14.244 12.174 10.524 9.194 8.064 7.094 6.324 5.724
1494.958 5.174 4.754 4.434 4.114 3.904 3.764 3.584 3.414 3.274 3.154
1514.248 3.084 3.024 2.924 2.854 2.794 2.714 2.644 2.584 2.614 2.524
1533.538 2.384 2.354 2.294 2.204 2.124 2.104 2.034 1.974 2.004 1.964
1552.827 1.844 1.744 1.724 1.764 1.754 1.714 1.694 1.684 1.694 1.664
1572.117 1.614 1.614 1.634 1.594 1.544 1.564 1.604 1.624 1.594 1.574
1591.407 1.514 1.484 1.494 1.484 1.4356 1.4042 1.474 1.4236 1.4013 1.441
1610.697 1.3796 1.4411 1.524 1.514 1.464 1.4412 1.4317 1.4373 1.474 1.4632
1629.986 1.484 1.484 1.464 1.524 1.554 1.544 1.484 1.524 1.574 1.544
1649.276 1.544 1.544 1.534 1.574 1.594 1.544 1.584 1.644 1.644 1.634
1668.566 1.584 1.584 1.634 1.634 1.564 1.494 1.504 1.584 1.624 1.624
1687.856 1.584 1.594 1.594 1.544 1.544 1.564 1.564 1.554 1.624 1.644
1707.146 1.654 1.624 1.594 1.664 1.744 1.744 1.724 1.764 1.784 1.764
1726.435 1.794 1.834 1.844 1.814 1.804 1.864 1.914 1.944 1.924 1.874
1745.725 1.904 1.934 1.904 1.954 1.984 1.984 2.014 2.054 2.104 2.054
1765.015 2.044 2.124 2.124 2.084 2.114 2.184 2.184 2.204 2.194 2.154
1784.305 2.174 2.214 2.254 2.314 2.314 2.264 2.294 2.304 2.294 2.354
1803.594 2.454 2.494 2.504 2.554 2.594 2.624 2.664 2.724 2.794 2.844
1822.884 2.954 3.074 3.144 3.264 3.404 3.544 3.654 3.734 3.864 4.034
1842.174 4.194 4.414 4.644 4.794 5.024 5.314 5.534 5.804 6.124 6.434
1861.464 6.704 7.024 7.374 7.764 8.154 8.544 8.964 9.414 9.874 10.354
1880.754 10.884 11.374 11.914 12.524 13.144 13.804 14.504 15.224 15.984 16.764
1900.043 17.544 18.374 19.244 20.154 21.094 22.104 23.154 24.214 25.284 26.464
1919.333 27.744 29.004 30.324 31.754 33.234 34.784 36.414 38.134 39.934 41.854
1938.623 43.874 46.014 48.264 50.624 53.184 55.834 58.654 61.714 64.934 68.424
1957.913 72.174 76.134 80.284 84.754 89.614 94.844 100.474 106.494 112.874 119.784
1977.202 127.154 135.104 143.684 152.824 162.664 173.314 184.724 196.814 209.764 223.534
1996.492 238.254 254.004 270.804 288.694 307.524 327.614 348.934 371.294 394.944 419.844
2015.782 445.894 473.014 501.034 530.154 560.124 590.724 621.774 652.794 683.704 713.994
2035.072 743.034 770.864 796.574 819.594 839.494 855.744 868.484 877.124 881.544 881.534
2054.362 877.264 869.364 857.174 841.034 821.794 799.434 774.154 746.434 716.474 684.794
2073.651 652.084 618.884 585.524 552.694 520.984 490.534 461.534 434.264 408.794 385.454
2092.941 364.154 344.554 326.664 310.384 295.564 282.024 269.634 258.314 247.964 238.504
2112.231 229.714 221.494 213.864 206.724 200.064 193.794 187.914 182.394 177.234 172.364
2131.521 167.694 163.234 159.044 155.154 151.504 148.024 144.684 141.454 138.344 135.334
2150.810 132.504 129.734 126.994 124.394 121.774 119.194 116.714 114.344 112.124 110.024
2170.100 108.034 106.164 104.354 102.734 101.284 99.984 98.884 97.824 96.804 95.904
2189.390 95.134 94.364 93.574 92.794 92.014 91.084 90.034 88.874 87.514 86.054
2208.680 84.424 82.544 80.434 78.204 75.794 73.174 70.424 67.564 64.604 61.564
2227.970 58.494 55.404 52.324 49.324 46.394 43.624 40.984 38.424 36.074 33.954
2247.259 31.934 29.994 28.174 26.554 25.134 23.844 22.584 21.414 20.344 19.374
2266.549 18.484 17.654 16.874 16.124 15.434 14.834 14.284 13.774 13.204 12.694
2285.839 12.294 11.894 11.544 11.214 10.884 10.554 10.244 9.974 9.694 9.504
2305.129 9.234 8.874 8.634 8.434 8.134 7.824 7.514 7.264 7.054 6.834
2324.418 6.634 6.374 6.154 5.974 5.774 5.544 5.384 5.204 5.084 4.964
2343.708 4.764 4.584 4.394 4.264 4.114 3.984 3.924 3.874 3.744 3.604
2362.998 3.484 3.404 3.334 3.164 3.114 3.084 2.934 2.864 2.804 2.744
2382.288 2.774 2.744 2.674 2.644 2.574 2.544 2.504 2.464 2.474 2.454
2401.578 2.444 2.394 2.354 2.404 2.354 2.304 2.314 2.294 2.324 2.344
2420.867 2.294 2.324 2.344 2.304 2.254 2.294 2.314 2.294 2.314 2.304
2440.157 2.304 2.284 2.194 2.254 2.394 2.404 2.304 2.254 2.294 2.314
2459.447 2.344 2.384 2.414 2.404 2.404 2.424 2.474 2.504 2.464 2.494
2478.737 2.534 2.554 2.614 2.624 2.564 2.574 2.604 2.604 2.674 2.714
2498.026 2.684 2.624 2.614 2.704 2.794 2.794 2.804 2.854 2.904 2.964
2517.316 2.974 2.984 3.034 3.114 3.184 3.244 3.294 3.314 3.324 3.334
2536.606 3.374 3.464 3.504 3.564 3.654 3.724 3.784 3.794 3.764 3.834
2555.896 3.914 3.914 3.944 3.954 4.044 4.144 4.144 4.144 4.184 4.154
2575.186 4.084 4.024 3.954 3.854 3.784 3.784 3.734 3.694 3.614 3.464
2594.475 3.344 3.244 3.104 3.024 3.014 2.924 2.804 2.754 2.764 2.764
2613.765 2.714 2.594 2.474 2.474 2.504 2.474 2.514 2.524 2.444 2.444
2633.055 2.434 2.424 2.474 2.474 2.524 2.604 2.684 2.714 2.754 2.824
2652.345 2.974 3.174 3.264 3.404 3.564 3.704 3.804 3.974 4.244 4.544
2671.634 4.794 4.984 5.214 5.504 5.854 6.164 6.474 6.814 7.144 7.474
2690.924 7.774 8.084 8.444 8.774 9.034 9.314 9.704 10.064 10.374 10.754
2710.214 11.184 11.584 11.884 12.234 12.634 12.954 13.224 13.474 13.704 13.844
2729.504 13.934 13.914 13.894 13.814 13.654 13.484 13.244 12.934 12.594 12.264
2748.794 11.874 11.494 11.114 10.704 10.424 10.104 9.734 9.384 8.984 8.764
2768.083 8.594 8.304 8.054 7.744 7.494 7.354 7.174 7.034 6.864 6.634
2787.373 6.504 6.474 6.424 6.364 6.284 6.214 6.184 6.164 6.164 6.164
2806.663 6.194 6.194 6.154 6.124 6.064 5.984 5.944 5.904 5.894 5.854
2825.953 5.884 5.944 5.954 5.984 5.964 6.014 6.134 6.294 6.564 6.864
2845.242 7.144 7.524 8.064 8.794 9.594 10.424 11.464 12.684 13.984 15.404
2864.532 16.754 17.974 19.354 20.894 22.514 24.304 26.224 28.294 30.694 33.004
2883.822 34.954 36.424 37.334 37.624 36.984 35.614 33.794 31.804 29.684 27.524
2903.112 25.704 24.274 23.234 22.644 22.404 22.654 23.414 24.574 26.134 27.884
2922.401 29.814 31.794 33.664 35.544 37.484 39.604 41.904 44.344 47.394 51.264
2941.691 55.804 61.224 67.254 73.864 80.914 87.784 93.964 98.684 101.314 101.224
2960.981 98.314 92.844 84.964 75.464 65.374 55.634 46.894 39.454 33.194 28.014
2980.271 23.644 20.034 17.224 14.924 12.984 11.444 10.214 9.204 8.404 7.724
2999.561 7.194 6.604 6.164 5.854 5.454 5.154 4.914 4.754 4.554 4.314
3018.850 4.154 3.984 3.724 3.454 3.284 3.194 3.084 2.904 2.684 2.564
3038.140 2.514 2.304 2.134 2.074 2.084 2.004 1.944 1.924 1.844 1.734
3057.430 1.624 1.4215 1.3412 1.504 1.504 1.3905 1.3433 1.3497 1.4195 1.3912
3076.720 1.2999 1.3273 1.281 1.1611 1.1248 1.1931 1.0857 1.006 1.0092 0.9427
3096.009 0.966 0.9999 0.9872 0.9253 0.9383 0.8993 0.8375 0.8466 0.7555 0.7558
3115.299 0.8142 0.9293 0.8704 0.8372 0.7653 0.6574 0.6662 0.717 0.7985 0.7617
3134.589 0.7755 0.721 0.6103 0.52928 0.5681 0.5855 0.7048 0.7626 0.56276 0.5974
3153.879 0.7071 0.6478 0.6065 0.6227 0.6435 0.6621 0.6465 0.52659 0.48979 0.6381
3173.169 0.5917 0.46051 0.4125 0.3818 0.356 0.3916 0.4497 0.4318 0.308 0.286
3192.458 0.355 0.319 0.276 0.275 0.3816 0.4207 0.404 0.4262 0.4498 0.3962
3211.748 0.31 0.304 0.288 0.261 0.353 0.4041 0.259 0.144 0.17 0.302
3231.038 0.3808 0.36 0.316 0.169 0.126 0.151 0.171 0.136 0.114 0.209
3250.328 0.203 0.202 0.209 0.267 0.276 0.266 0.341 0.322 0.211 0.078
3269.617 0.044 0.015 0.029 0.135 0.133 0.087 0.109 0.193 0.278 0.194
3288.907 0.083 0.132 0.227 0.258 0.145 0.067 0.056 0.063 0.061 0.069
3308.197 0.208 0.266 0.1 0.068 0.117 0.132 0.2 0.277 0.217 0.015
3327.487 0 0.109 0.195 0.179 0.188 0.151 0.123 0.169 0.197 0.147
3346.777 0.106 0.112 0.086 0.181 0.248 0.27 0.179 0.14 0.165 0.076
3366.066 0.221 0.313 0.17 0.204 0.249 0.252 0.215 0.201 0.276 0.249
3385.356 0.274 0.3695 0.441 0.3985 0.3671 0.356 0.282 0.306 0.341 0.328
3404.646 0.352 0.267 0.116 0.137 0.27 0.324 0.3873 0.353 0.345 0.4599
3423.936 0.4306 0.294 0.278 0.302 0.255 0.201 0.249 0.271 0.202 0.263
3443.225 0.3675 0.3981 0.3716 0.327 0.344 0.348 0.233 0.281 0.347 0.338
3462.515 0.276 0.306 0.4494 0.353 0.312 0.4378 0.49743 0.4409 0.35 0.295
3481.805 0.347 0.468695 0.53344 0.5192 0.3751 0.284 0.299 0.3788 0.4031 0.4104
3501.095 0.375 0.283 0.351 0.351 0.297 0.4012 0.3774 0.3942 0.4259 0.284
3520.385 0.286 0.318 0.285 0.358 0.4276 0.349 0.231 0.178 0.302 0.3723
3539.674 0.303 0.302 0.296 0.4119 0.4969 0.48206 0.3957 0.337 0.3938 0.4
3558.964 0.4214 0.451 0.415 0.4435 0.4518 0.321 0.3801 0.4099 0.274 0.304
3578.254 0.3835 0.3998 0.315 0.284 0.312 0.347 0.268 0.214 0.31 0.3736
3597.544 0.3655 0.291 0.3841 0.50709 0.4521 0.362 0.4006 0.3976 0.4473 0.50409
3616.833 0.4276 0.51436 0.50008 0.52967 0.6258 0.50898 0.48974 0.51559 0.50256 0.4221
3636.123 0.263 0.249 0.336 0.374 0.3734 0.4262 0.5238 0.48099 0.4134 0.3781
3655.413 0.453 0.47868 0.317 0.363 0.470197 0.4015 0.326 0.291 0.317 0.4383
3674.703 0.4248 0.361 0.395 0.467483 0.362 0.3664 0.47487 0.401 0.4335 0.357
3693.993 0.344 0.247 0.26 0.4181 0.4399 0.4226 0.4017 0.4461 0.463565 0.4418
3713.282 0.357 0.3681 0.337 0.297 0.313 0.282 0.3869 0.53616 0.50979 0.47573
3732.572 0.49253 0.6077 0.56208 0.48958 0.5704 0.54708 0.6138 0.6154 0.51918 0.4525
3751.862 0.4286 0.4177 0.4046 0.53354 0.6574 0.627 0.54087 0.54573 0.5497 0.54576
3771.152 0.6445 0.6346 0.52009 0.4496 0.47865 0.6427 0.6361 0.6243 0.6832 0.6734
3790.441 0.6645 0.6246 0.7048 0.7401 0.672 0.52399 0.47683 0.6455 0.7705 0.8735
3809.731 0.8509 0.8709 0.9144 0.8292 0.7984 0.7793 0.8823 0.8667 0.7272 0.7095
3829.021 0.6733 0.7299 0.7296 0.7601 0.9488 0.9406 0.9009 0.9256 0.9047 0.8448
3848.311 0.9216 0.9877 0.842 0.8176 1.0492 1.0423 0.8808 0.8067 0.772 0.8723
3867.601 0.9592 1.0047 1.0592 1.0255 0.9465 1.0409 1.09 1.0153 1.034 1.0994
3886.890 1.2446 1.3431 1.2979 1.1679 0.9664 1.0078 1.1127 1.0904 1.1468 1.2446
3906.180 1.2477 1.2267 1.1979 1.1931 1.2348 1.1192 1.1842 1.3066 1.2979 1.3982
3925.470 1.484 1.504 1.534 1.544 1.494 1.4452 1.604 1.784 1.774 1.754
3944.760 1.774 1.814 1.884 1.924 1.944 1.964 1.904 1.904 1.944 2.104
3964.049 2.254 2.274 2.234 2.234 2.454 2.474 2.324 2.434 2.564 2.534
3983.339 2.544 2.554 2.654 2.924 3.014 2.994 3.034 3.094 3.154 3.204
##END=
