##TITLE=n-Undecanophenone
##JCAMP-DX=4.24
##DATA TYPE=INFRARED SPECTRUM
##ORIGIN=EPA-IR VAPOR PHASE LIBRARY
##OWNER=SRD/NIST
Collection (C) 2018 copyright by the U.S. Secretary of Commerce
on behalf of the United States of America. All rights reserved.
##CAS REGISTRY NO=4433-30-1
##MOLFORM=C 17 H 26 O
##$NIST SOURCE=MSDC-IR
##STATE=gas
##XUNITS=1/CM
##YUNITS=ABSORBANCE
##XFACTOR=1.
##YFACTOR=0.001
##DELTAX=1.92934
##FIRSTX=549.9
##LASTX=3999.5
##FIRSTY=1.8688
##MAXX=3999.53
##MINX=549.863
##MAXY=0.20886
##MINY=0
##NPOINTS=1789
##XYDATA=(X++(Y..Y))
549.863 1.8688 2.1891 2.62 2.81 3.01 3.53 4.07 4.62 5.12 5.52
569.156 5.83 5.82 5.77 5.65 5.26 4.85 4.58 4.43 4.38 4.34
588.450 4.38 4.47 4.55 4.91 5.37 5.69 5.89 5.66 5.16 4.82
607.743 4.4 3.87 3.45 3.18 3.02 2.88 2.66 2.4298 2.2204 2.0681
627.037 2.0543 2.1162 2.1765 2.3021 2.49 2.66 2.98 3.33 3.76 4.42
646.330 5 5.59 6.27 6.84 7.27 7.56 7.65 7.78 8.02 8.17
665.624 8.46 8.9 9.48 10.32 11.29 12.45 13.89 15.62 17.86 20.7
684.917 24.06 27.49 30.49 32.31 32.44 31.08 28.73 25.89 23.01 20.46
704.210 18.41 16.73 15.41 14.45 13.81 13.43 13.17 13.08 13.14 13.19
723.504 13.35 13.69 14.06 14.44 14.88 15.31 15.76 16.19 16.53 16.86
742.797 17.23 17.44 17.4 17.16 16.61 15.81 14.85 13.9 13.01 12.17
762.091 11.5 10.89 10.23 9.58 9.01 8.51 7.94 7.37 6.88 6.45
781.384 6.09 5.67 5.3 5 4.76 4.49 4.18 3.95 3.74 3.59
800.678 3.41 3.17 3.03 2.93 2.81 2.64 2.47 2.5 2.55 2.4013
819.971 2.2686 2.282 2.3589 2.3036 2.2162 2.2685 2.2753 2.2886 2.3893 2.45
839.264 2.47 2.49 2.47 2.46 2.4061 2.3161 2.3345 2.3502 2.3418 2.2679
858.558 2.2432 2.3263 2.3821 2.46 2.52 2.56 2.58 2.58 2.66 2.77
877.851 2.78 2.84 2.95 3.03 3.13 3.25 3.36 3.4 3.43 3.48
897.145 3.53 3.57 3.54 3.55 3.63 3.75 3.88 3.93 4.04 4.23
916.438 4.35 4.45 4.63 4.72 4.71 4.77 4.85 4.91 5.04 5.2
935.732 5.34 5.54 5.78 6.13 6.64 7.12 7.61 8.19 8.81 9.42
955.025 10 10.62 11.2 11.66 12.11 12.57 12.92 13.25 13.45 13.51
974.318 13.51 13.45 13.36 13.18 12.93 12.78 12.63 12.51 12.46 12.4
993.612 12.52 12.86 13.54 14.56 15.37 15.86 15.97 15.47 14.71 14
1012.905 13.34 12.67 11.94 11.22 10.45 9.61 8.77 7.83 6.92 6.17
1032.199 5.59 5.18 4.87 4.66 4.48 4.39 4.33 4.22 4.21 4.25
1051.492 4.29 4.37 4.44 4.45 4.52 4.65 4.75 4.8 4.81 4.81
1070.786 4.8 4.69 4.49 4.24 4.04 3.82 3.58 3.39 3.2 3.09
1090.079 3.06 3.05 3.09 3.12 3.05 3.03 3.09 3.14 3.15 3.25
1109.372 3.35 3.39 3.44 3.4 3.4 3.33 3.19 3.14 3.06 2.97
1128.666 2.9 2.92 2.93 3.03 3.25 3.34 3.34 3.48 3.82 4.13
1147.959 4.51 5.11 5.6 6.01 6.52 6.93 7.39 7.92 8.35 8.85
1167.253 9.57 10.68 12.18 14.16 16.88 20.07 22.54 23.39 22.61 20.45
1186.546 17.88 16.26 15.83 16.21 17.29 18.9 20.81 22.86 25.06 27.14
1205.840 29.06 30.68 31.92 32.75 33.07 33 32.7 32.01 31.11 30.24
1225.133 29.32 28.49 27.67 27.02 26.62 26.19 25.96 25.91 26.02 26.17
1244.426 26.18 26.21 26.21 26.42 26.78 27.17 27.7 28.28 28.92 29.49
1263.720 29.91 30.03 29.77 29.15 28.21 27.17 26.12 25.08 24.17 23.36
1283.013 22.61 21.92 21.33 20.8 20.27 19.78 19.17 18.54 18.01 17.49
1302.307 17.01 16.73 16.64 16.73 17.05 17.46 17.85 18.11 18.19 18.09
1321.600 17.89 17.64 17.33 17.02 16.78 16.69 16.72 16.94 17.28 17.68
1340.894 18.3 18.97 19.66 20.35 20.95 21.31 21.38 21.18 20.72 20.05
1360.187 19.27 18.43 17.56 16.66 15.72 14.8 13.85 12.93 12.11 11.4
1379.480 10.81 10.23 9.63 8.98 8.27 7.63 7.09 6.64 6.31 6.06
1398.774 5.92 5.96 6.05 6.13 6.32 6.6 6.89 7.17 7.46 7.6
1418.067 7.66 7.74 7.84 8 8.24 8.55 9.01 9.77 10.75 11.93
1437.361 13.58 15.66 18.14 20.96 23.84 26.29 27.68 27.87 27.14 25.92
1456.654 24.76 23.86 23.02 22.05 20.8 19.4 17.94 16.26 14.47 12.73
1475.948 11.16 9.74 8.56 7.6 6.83 6.22 5.76 5.4 5.05 4.74
1495.241 4.45 4.21 4.02 3.8 3.59 3.38 3.28 3.25 3.19 3.08
1514.534 2.95 2.95 3.01 2.96 2.87 2.89 2.91 2.91 2.89 2.82
1533.828 2.76 2.73 2.67 2.59 2.58 2.58 2.63 2.59 2.59 2.65
1553.121 2.73 2.84 2.9 2.99 3.22 3.48 3.75 4.09 4.46 4.9
1572.415 5.5 6.08 6.64 7.22 7.6 7.78 7.85 7.82 7.82 7.91
1591.708 8.1 8.4 8.74 8.94 8.9 8.56 7.97 7.27 6.54 5.85
1611.002 5.3 4.8 4.37 4.09 3.92 3.74 3.54 3.35 3.2 3.18
1630.295 3.2 3.15 3.14 3.23 3.35 3.48 3.62 3.75 3.94 4.22
1649.588 4.52 4.79 5.15 5.61 6.11 6.63 7.11 7.64 8.22 8.87
1668.882 9.75 10.78 12.03 13.66 15.79 18.34 21.64 25.76 31.22 37.97
1688.175 45.82 54.84 64.4 73.55 81.82 88.07 91.19 91.23 87.88 81.15
1707.469 71.78 61 50.15 40.43 32.39 25.85 20.73 16.99 14.11 11.87
1726.762 10.19 8.93 7.95 7.09 6.39 5.9 5.5 5.12 4.78 4.56
1746.056 4.38 4.13 3.96 3.82 3.69 3.58 3.47 3.33 3.2 3.13
1765.349 3.07 2.95 2.81 2.66 2.56 2.54 2.5 2.3961 2.2864 2.2083
1784.642 2.1476 2.1409 2.1682 2.1625 2.238 2.4098 2.58 2.74 2.9 3.06
1803.936 3.22 3.27 3.23 3.14 2.91 2.66 2.48 2.286 2.0744 1.9951
1823.229 1.9539 1.8493 1.7653 1.7109 1.6686 1.6037 1.5494 1.556 1.52204 1.45718
1842.523 1.43395 1.4156 1.43049 1.4071 1.3854 1.4279 1.46219 1.45811 1.43774 1.4198
1861.816 1.4182 1.427 1.43914 1.4826 1.5676 1.6014 1.5911 1.6471 1.7402 1.8543
1881.110 1.9208 1.9726 2.0658 2.1171 2.1521 2.1746 2.221 2.2811 2.2827 2.2458
1900.403 2.2343 2.2411 2.2099 2.1354 2.0839 2.0108 1.9321 1.8576 1.7826 1.6994
1919.696 1.6385 1.6176 1.5925 1.5635 1.53399 1.51228 1.4708 1.49211 1.5518 1.6381
1938.990 1.7141 1.769 1.8793 2.0327 2.1744 2.3051 2.4084 2.49 2.55 2.55
1958.283 2.55 2.51 2.44 2.4029 2.45 2.4007 2.26 2.111 1.9617 1.8197
1977.577 1.6688 1.50531 1.3966 1.3697 1.325 1.313 1.299 1.253 1.237 1.201
1996.870 1.175 1.195 1.166 1.139 1.138 1.136 1.18 1.205 1.225 1.211
2016.164 1.193 1.187 1.224 1.258 1.227 1.235 1.269 1.239 1.237 1.257
2035.457 1.235 1.226 1.216 1.209 1.203 1.207 1.205 1.171 1.181 1.204
2054.750 1.202 1.191 1.171 1.151 1.139 1.133 1.128 1.108 1.097 1.091
2074.044 1.067 1.032 1.036 1.052 1.058 1.051 1.02 1.039 1.022 1.016
2093.337 1.02 0.994 1.013 1.034 1.028 1.012 1.032 1.01 0.946 0.933
2112.631 0.967 1.004 1.032 1.061 1.058 1.022 1.046 1.04 0.987 0.984
2131.924 0.967 0.986 1.005 1.01 1.003 1.034 1.066 1.027 1.038 1.092
2151.218 1.093 1.102 1.087 1.038 1.012 1.024 1.025 1.002 1.038 1.076
2170.511 1.071 1.091 1.105 1.095 1.109 1.125 1.108 1.092 1.102 1.114
2189.804 1.121 1.086 1.068 1.097 1.085 1.054 1.077 1.062 1.06 1.081
2209.098 1.078 1.073 1.057 1.048 1.064 1.075 1.102 1.148 1.147 1.13
2228.391 1.154 1.139 1.144 1.152 1.139 1.147 1.129 1.148 1.175 1.166
2247.685 1.133 1.16 1.213 1.241 1.211 1.152 1.174 1.191 1.136 1.148
2266.978 1.199 1.196 1.225 1.255 1.265 1.283 1.282 1.302 1.319 1.296
2286.272 1.28 1.237 1.241 1.26 1.248 1.235 1.274 1.318 1.274 1.285
2305.565 1.34 1.3919 1.4099 1.43153 1.52741 1.6316 1.6917 1.6803 1.6058 1.542
2324.858 1.50824 1.47779 1.43458 1.4075 1.4225 1.4209 1.4095 1.382 1.3485 1.324
2344.152 1.3434 1.385 1.3445 1.323 1.3511 1.316 1.26 1.219 1.173 1.17
2363.445 1.185 1.205 1.224 1.241 1.276 1.279 1.3436 1.3809 1.312 1.287
2382.739 1.325 1.296 1.259 1.291 1.276 1.256 1.277 1.298 1.272 1.272
2402.032 1.289 1.304 1.319 1.29 1.284 1.294 1.294 1.334 1.3529 1.277
2421.326 1.25 1.287 1.309 1.287 1.204 1.221 1.252 1.222 1.244 1.236
2440.619 1.233 1.202 1.145 1.181 1.235 1.242 1.189 1.12 1.136 1.11
2459.912 1.072 1.106 1.173 1.177 1.135 1.181 1.175 1.123 1.13 1.161
2479.206 1.179 1.171 1.142 1.16 1.172 1.163 1.167 1.19 1.197 1.199
2498.499 1.226 1.229 1.261 1.286 1.224 1.219 1.274 1.289 1.295 1.278
2517.793 1.276 1.3 1.314 1.316 1.3595 1.351 1.317 1.3865 1.3898 1.302
2537.086 1.3527 1.44507 1.4011 1.4132 1.45564 1.4166 1.4097 1.45676 1.4962 1.43459
2556.380 1.43344 1.49974 1.48247 1.47539 1.50391 1.52338 1.53771 1.5406 1.5519 1.6006
2575.673 1.6064 1.6549 1.6775 1.6579 1.7521 1.7133 1.7042 1.7665 1.7167 1.7647
2594.966 1.842 1.8647 1.8496 1.8331 1.8674 1.9351 1.9306 1.9292 1.9207 1.8575
2614.260 1.8858 1.9921 2.0687 2.038 2.0171 2.0234 2.0342 2.0799 2.0409 2.0482
2633.553 2.082 2.1391 2.1709 2.1406 2.151 2.2024 2.2828 2.3195 2.341 2.3605
2652.847 2.4183 2.4213 2.4379 2.46 2.45 2.52 2.6 2.6 2.6 2.67
2672.140 2.76 2.82 2.78 2.71 2.77 2.82 2.79 2.81 2.86 2.85
2691.434 2.77 2.74 2.73 2.72 2.65 2.59 2.62 2.63 2.63 2.61
2710.727 2.62 2.59 2.53 2.46 2.5 2.57 2.63 2.7 2.69 2.68
2730.020 2.73 2.85 2.91 2.92 2.95 3 3.04 3.07 3.03 3.02
2749.314 3.11 3.19 3.19 3.23 3.27 3.28 3.32 3.37 3.47 3.5
2768.607 3.49 3.56 3.63 3.66 3.77 3.93 3.99 4.11 4.32 4.54
2787.901 4.64 4.89 5.17 5.32 5.55 5.74 5.95 6.18 6.39 6.73
2807.194 7.07 7.33 7.65 7.93 8.3 8.73 9.11 9.54 10.07 10.64
2826.488 11.16 11.73 12.38 13.15 14.12 15.25 16.6 18.25 20.29 22.86
2845.781 26.12 30.12 35.06 41.09 48.12 55.83 63.52 70.28 75.2 77.89
2865.074 78.33 76.75 73.59 69.71 65.71 61.81 58.44 55.85 53.89 52.35
2884.368 51.06 49.77 48.75 48.32 48.39 49.2 50.95 53.33 56.34 59.99
2903.661 64.05 68.7 73.82 79.34 85.66 92.91 101.28 110.99 122.47 135.73
2922.955 150.75 166.7 182.05 195.42 204.81 208.86 207.43 201.23 191.15 178.46
2942.248 164.57 150.43 136.73 124.12 113.11 104 96.92 91.74 88.17 86.08
2961.542 84.85 83.9 82.58 80.2 76.23 70.5 63.51 55.94 48.41 41.71
2980.835 36.12 31.57 27.99 24.95 22.35 20.21 18.4 16.84 15.61 14.44
3000.128 13.39 12.58 11.91 11.35 10.86 10.57 10.3 10.11 9.92 9.75
3019.422 9.8 10.04 10.4 10.64 10.91 11.31 11.65 11.91 12.18 12.31
3038.715 12.36 12.37 12.26 11.84 11.39 11.25 11.19 11.36 11.86 12.55
3058.009 13.39 14.44 15.71 17.12 18.55 20.09 21.54 22.28 21.97 20.82
3077.302 19.1 17.18 15.82 15.23 15.06 15.01 14.68 14.06 13.26 12.18
3096.596 11.02 9.85 8.89 8.1 7.35 6.75 6.06 5.38 4.75 4.23
3115.889 3.7 3.18 2.86 2.65 2.53 2.4013 2.1985 1.9652 1.9091 1.8801
3135.182 1.8178 1.7927 1.6598 1.6981 1.7201 1.7961 1.7592 1.7117 1.8859 1.878
3154.476 1.6898 1.50385 1.50422 1.47374 1.43195 1.3588 1.318 1.3805 1.308 1.182
3173.769 1.012 0.842 0.78 0.79 0.842 1.002 1.086 0.911 0.776 0.912
3193.063 0.941 0.756 0.811 0.8 0.61 0.652 0.625 0.555 0.512 0.469
3212.356 0.489 0.55 0.614 0.637 0.565 0.43 0.43 0.32 0.33 0.445
3231.650 0.32 0.3 0.28 0.2 0.29 0.35 0.29 0.31 0.469 0.52
3250.943 0.35 0.15 0.28 0.44 0.4 0.451 0.37 0.28 0.31 0.35
3270.236 0.3 0.19 0.14 0.14 0.2 0.21 0.27 0.33 0.24 0.16
3289.530 0.24 0.33 0.25 0.25 0.29 0.34 0.37 0.33 0.23 0.04
3308.823 0.08 0.18 0.22 0.17 0.24 0.33 0.17 0.13 0.32 0.43
3328.117 0.38 0.36 0.43 0.34 0.27 0.38 0.514 0.579 0.452 0.43
3347.410 0.43 0.4 0.508 0.566 0.615 0.653 0.758 0.821 0.825 0.974
3366.704 1.165 1.298 1.417 1.52704 1.6562 1.8433 1.8033 1.7064 1.6987 1.6493
3385.997 1.6319 1.5957 1.5414 1.34 1.172 1.238 1.143 0.985 0.819 0.599
3405.290 0.544 0.569 0.587 0.496 0.38 0.38 0.34 0.43 0.592 0.45
3424.584 0.32 0.39 0.31 0.26 0.3 0.29 0.26 0.21 0.27 0.458
3443.877 0.476 0.28 0.18 0.1 0.21 0.31 0.21 0.16 0.15 0.19
3463.171 0.15 0.08 0.05 0.16 0.32 0.33 0.33 0.28 0.29 0.31
3482.464 0.15 0.05 0.04 0.08 0.12 0.17 0.26 0.31 0.23 0.24
3501.758 0.25 0.12 0.03 0.12 0.25 0.19 0.11 0.06 0 0.12
3521.051 0.21 0.24 0.24 0.09 0.22 0.33 0.24 0.24 0.14 0.14
3540.344 0.25 0.27 0.17 0.14 0.16 0.05 0.08 0.25 0.37 0.29
3559.638 0.28 0.35 0.41 0.42 0.27 0.34 0.35 0.23 0.32 0.39
3578.931 0.33 0.34 0.35 0.31 0.3 0.36 0.43 0.4 0.4 0.521
3598.225 0.466 0.34 0.33 0.27 0.27 0.39 0.475 0.457 0.49 0.46
3617.518 0.497 0.658 0.655 0.595 0.654 0.637 0.601 0.616 0.649 0.645
3636.812 0.635 0.603 0.559 0.673 0.693 0.728 0.774 0.725 0.723 0.812
3656.105 0.922 0.894 0.791 0.745 0.665 0.673 0.757 0.626 0.572 0.69
3675.398 0.728 0.712 0.716 0.653 0.626 0.629 0.619 0.766 0.774 0.73
3694.692 0.792 0.768 0.82 0.831 0.667 0.675 0.818 0.897 0.829 0.786
3713.985 0.764 0.691 0.69 0.668 0.743 0.851 0.773 0.802 0.854 0.735
3733.279 0.686 0.729 0.744 0.549 0.446 0.495 0.472 0.482 0.49 0.464
3752.572 0.527 0.568 0.616 0.624 0.65 0.797 0.733 0.688 0.826 0.785
3771.866 0.701 0.724 0.666 0.654 0.696 0.695 0.714 0.772 0.725 0.644
3791.159 0.726 0.757 0.751 0.747 0.701 0.694 0.678 0.698 0.694 0.655
3810.452 0.672 0.652 0.61 0.698 0.757 0.759 0.753 0.718 0.679 0.735
3829.746 0.749 0.743 0.772 0.688 0.689 0.759 0.692 0.621 0.704 0.709
3849.039 0.624 0.634 0.579 0.514 0.616 0.708 0.706 0.718 0.748 0.745
3868.333 0.711 0.693 0.804 0.787 0.753 0.718 0.609 0.643 0.678 0.753
3887.626 0.737 0.754 0.756 0.65 0.782 0.847 0.809 0.808 0.774 0.771
3906.920 0.766 0.78 0.782 0.675 0.678 0.82 0.867 0.829 0.909 0.932
3926.213 0.866 0.909 0.889 0.856 0.873 0.908 0.858 0.836 0.937 0.903
3945.506 0.881 0.906 0.89 0.885 0.955 1 0.983 0.957 0.978 1.062
3964.800 1.016 0.963 0.844 0.902 1.028 1.086 1.058 1.056 1.118 1.053
3984.093 1.063 1.004 1.027 1.106 1.043 1.104 1.222 1.317 1.291
##END=
