##TITLE=3,4-Hexanedione
##JCAMP-DX=4.24
##DATA TYPE=INFRARED SPECTRUM
##ORIGIN=EPA-IR VAPOR PHASE LIBRARY
##OWNER=SRD/NIST
Collection (C) 2018 copyright by the U.S. Secretary of Commerce
on behalf of the United States of America. All rights reserved.
##CAS REGISTRY NO=4437-51-8
##MOLFORM=C 6 H 10 O 2
##$NIST SOURCE=MSDC-IR
##STATE=gas
##XUNITS=1/CM
##YUNITS=ABSORBANCE
##XFACTOR=1.
##YFACTOR=0.001
##DELTAX=1.92934
##FIRSTX=549.9
##LASTX=3999.5
##FIRSTY=10.25
##MAXX=3999.53
##MINX=549.863
##MAXY=0.16167
##MINY=0
##NPOINTS=1789
##XYDATA=(X++(Y..Y))
549.863 10.25 10.52 10.88 11.02 11.12 11.26 11.23 11.12 11.03 10.88
569.156 10.66 10.55 10.29 9.71 9.03 8.35 7.66 7.09 6.78 6.37
588.450 5.85 5.36 5.11 4.91 4.65 4.5 4.24 4.04 3.96 3.88
607.743 3.79 3.6 3.44 3.42 3.4 3.28 3.16 3.17 3.1 3
627.037 2.87 2.75 2.71 2.64 2.66 2.71 2.72 2.73 2.81 2.85
646.330 2.94 3.06 3.15 3.33 3.52 3.76 3.96 4.26 4.68 5.02
665.624 5.35 5.61 5.83 6.12 6.28 6.37 6.55 6.5 6.34 6.15
684.917 6.05 5.99 5.71 5.43 5.15 4.92 4.75 4.6 4.41 4.25
704.210 4.22 4.15 4.02 3.83 3.67 3.62 3.67 3.65 3.6 3.47
723.504 3.36 3.48 3.52 3.54 3.5 3.52 3.61 3.62 3.67 3.68
742.797 3.69 3.73 3.82 3.87 3.85 3.86 3.96 4.07 4.09 4.23
762.091 4.29 4.36 4.43 4.33 4.32 4.41 4.37 4.26 4.29 4.38
781.384 4.4 4.4 4.48 4.57 4.65 4.72 4.85 4.96 5.04 5.22
800.678 5.36 5.47 5.61 5.73 5.87 6.01 6.13 6.3 6.46 6.63
819.971 6.88 7.08 7.29 7.55 7.77 8.02 8.33 8.63 8.87 9.11
839.264 9.42 9.73 10.1 10.42 10.8 11.28 11.79 12.3 12.85 13.5
858.558 14.35 15.41 16.65 18.17 19.99 22.22 25.02 28.43 32.41 37.01
877.851 41.93 47.08 52.02 56.17 59.43 61.82 63.34 63.84 63.24 61.42
897.145 58.4 54.23 48.98 42.98 36.66 30.7 25.49 21.1 17.55 14.76
916.438 12.68 10.94 9.49 8.35 7.45 6.72 6.15 5.69 5.28 4.94
935.732 4.64 4.39 4.21 4.07 3.91 3.84 3.75 3.64 3.62 3.59
955.025 3.6 3.65 3.7 3.77 3.78 3.9 4.12 4.29 4.42 4.57
974.318 4.78 4.95 5.18 5.44 5.64 5.94 6.36 6.81 7.3 7.8
993.612 8.35 8.93 9.37 9.76 10.03 10.21 10.32 10.24 10.06 9.9
1012.905 9.64 9.15 8.64 8.1 7.6 7.22 6.95 6.75 6.59 6.5
1032.199 6.53 6.62 6.61 6.6 6.75 6.92 7.04 7.16 7.38 7.59
1051.492 7.82 8.1 8.37 8.69 9.07 9.56 10.15 10.81 11.58 12.52
1070.786 13.58 14.81 16.17 17.64 19.1 20.55 21.83 23.02 24.1 24.96
1090.079 25.74 26.31 26.56 26.28 25.75 24.98 23.99 23.06 21.94 20.76
1109.372 19.7 18.53 17.39 16.31 15.34 14.57 13.84 13.24 12.64 12.09
1128.666 11.62 11.05 10.58 10.02 9.41 8.8 8.09 7.61 7.1 6.59
1147.959 6.2 5.71 5.26 5.06 4.75 4.43 4.41 4.4 4.29 4.15
1167.253 4.06 3.95 3.96 4 4.01 4 3.89 4.05 4.24 4.31
1186.546 4.42 4.49 4.67 4.96 5 5.07 5.17 5.42 5.74 5.91
1205.840 6.3 6.75 6.94 6.87 6.94 6.87 6.88 6.78 6.62 6.6
1225.133 6.54 6.43 6.34 6.3 6.15 6.3 6.34 6.38 6.47 6.55
1244.426 6.77 6.78 6.75 6.94 7.02 7.07 7.32 7.52 7.58 7.55
1263.720 7.61 7.66 7.64 7.6 7.48 7.35 7.28 7.21 7.15 7
1283.013 6.95 7.1 7.2 7.22 7.4 7.69 7.98 8.3 8.66 9.1
1302.307 9.52 9.96 10.37 10.69 11.03 11.33 11.63 11.96 12.28 12.6
1321.600 12.91 13.15 13.38 13.66 13.96 14.24 14.41 14.52 14.65 14.77
1340.894 14.78 14.64 14.38 14.02 13.67 13.19 12.61 12.19 11.69 11.2
1360.187 10.85 10.56 10.37 10.31 10.34 10.46 10.74 11.16 11.69 12.28
1379.480 12.93 13.49 13.88 14.2 14.57 15.17 15.84 16.43 16.9 17.22
1398.774 17.49 17.78 18.16 18.58 18.97 19.24 19.4 19.58 19.75 19.93
1418.067 20.15 20.33 20.43 20.38 20.14 19.86 19.56 19.3 19.02 18.68
1437.361 18.44 18.29 18.08 17.92 17.91 18.06 18.33 18.76 19.44 20.25
1456.654 20.99 21.52 21.56 21.21 20.7 20.21 19.76 19.17 18.4 17.39
1475.948 16.21 14.96 13.57 12.24 11.1 10.12 9.31 8.58 7.99 7.51
1495.241 7.1 6.76 6.41 6.08 5.84 5.63 5.4 5.17 5 4.87
1514.534 4.74 4.63 4.52 4.31 4.15 4.08 4.02 3.95 3.84 3.78
1533.828 3.73 3.61 3.47 3.4 3.36 3.27 3.17 3.1 3.04 3.04
1553.121 3 2.94 2.96 2.93 2.92 2.93 2.87 2.8 2.8 2.84
1572.415 2.85 2.89 2.91 2.85 2.84 2.9 2.97 2.92 2.92 2.96
1591.708 2.96 3.03 3.08 3.18 3.3 3.31 3.33 3.31 3.31 3.34
1611.002 3.41 3.48 3.55 3.66 3.72 3.77 3.86 3.91 3.89 3.95
1630.295 4.09 4.24 4.4 4.55 4.73 4.9 5.02 5.24 5.48 5.72
1649.588 6.06 6.48 6.83 7.22 7.71 8.16 8.69 9.32 10.06 10.89
1668.882 11.76 12.68 13.66 14.78 16.05 17.37 18.91 20.8 23.13 25.65
1688.175 28.6 32.28 36.64 41.72 47.98 55.25 63.74 73.81 84.52 96.6
1707.469 109.23 122.13 134.59 145.64 154.26 159.58 161.67 161.59 160.3 158.41
1726.762 155.38 149.61 139.55 125.82 109.7 94.04 79.81 66.86 55.94 46.8
1746.056 39.3 33.19 28.36 24.56 21.6 19.23 17.32 15.77 14.33 13.09
1765.349 11.98 10.93 10.01 9.19 8.42 7.74 7.11 6.55 6.05 5.58
1784.642 5.17 4.83 4.55 4.27 4 3.78 3.62 3.49 3.28 3.11
1803.936 2.98 2.87 2.76 2.65 2.59 2.5 2.4 2.37 2.35 2.31
1823.229 2.26 2.22 2.1602 2.0979 2.069 2.0812 2.0495 1.9877 1.9224 1.9006
1842.523 1.9092 1.9303 1.9523 1.9198 1.8694 1.8466 1.8589 1.8905 1.8618 1.8448
1861.816 1.8697 1.8547 1.8274 1.7992 1.8262 1.8403 1.8284 1.824 1.805 1.7824
1881.110 1.7544 1.7248 1.717 1.7203 1.7453 1.7209 1.7055 1.7422 1.7176 1.7198
1900.403 1.7504 1.7314 1.6985 1.6562 1.6414 1.64 1.5689 1.5242 1.5375 1.5459
1919.696 1.4851 1.452 1.4942 1.5139 1.4937 1.4703 1.4289 1.4299 1.4575 1.425
1938.990 1.4365 1.4134 1.3754 1.3879 1.373 1.3769 1.3626 1.359 1.3565 1.3673
1958.283 1.3879 1.3022 1.27446 1.2881 1.2915 1.2851 1.24466 1.22635 1.2311 1.27812
1977.577 1.27723 1.21051 1.17162 1.1439 1.1339 1.1544 1.1659 1.19707 1.22731 1.2004
1996.870 1.18338 1.18352 1.1687 1.1513 1.1475 1.1561 1.1438 1.078 1.1029 1.1634
2016.164 1.1268 1.1206 1.1546 1.20956 1.22219 1.1698 1.1518 1.1458 1.1372 1.1236
2035.457 1.1467 1.20588 1.19741 1.19691 1.21806 1.22403 1.26402 1.2816 1.25911 1.25729
2054.750 1.26585 1.2706 1.22616 1.22383 1.24673 1.21207 1.20944 1.22964 1.24366 1.19268
2074.044 1.205 1.23435 1.21079 1.196 1.1509 1.1027 1.114 1.1258 1.074 1.085
2093.337 1.048 1.026 1.031 0.962 0.964 0.985 1.01 1.025 1.001 0.946
2112.631 0.903 0.915 0.893 0.859 0.863 0.886 0.858 0.828 0.851 0.887
2131.924 0.909 0.891 0.832 0.758 0.775 0.813 0.818 0.843 0.82 0.766
2151.218 0.753 0.801 0.858 0.846 0.807 0.804 0.819 0.841 0.876 0.906
2170.511 0.876 0.843 0.869 0.925 0.921 0.854 0.856 0.907 0.915 0.924
2189.804 0.93 0.903 0.91 0.934 0.912 0.929 0.943 0.893 0.918 0.95
2209.098 0.939 0.894 0.912 0.975 0.986 0.975 0.982 1.024 0.984 0.984
2228.391 1.004 1.001 1.028 1.056 1.074 1.0888 1.062 1.048 1.099 1.075
2247.685 1.0835 1.0928 1.0868 1.0878 0.997 0.948 0.989 0.947 0.913 0.963
2266.978 0.957 0.943 0.924 0.943 0.931 0.884 0.873 0.829 0.873 0.894
2286.272 0.837 0.799 0.782 0.8 0.805 0.787 0.785 0.8 0.758 0.756
2305.565 0.81 0.82 0.802 0.836 0.869 0.831 0.822 0.818 0.813 0.8
2324.858 0.789 0.824 0.847 0.86 0.857 0.846 0.821 0.839 0.923 0.938
2344.152 0.895 0.89 0.936 0.983 0.989 0.998 0.982 0.952 0.959 0.943
2363.445 0.938 0.943 0.975 0.984 0.957 0.937 0.914 0.938 0.967 0.961
2382.739 0.918 0.905 0.919 0.884 0.848 0.861 0.866 0.831 0.819 0.791
2402.032 0.775 0.793 0.745 0.728 0.718 0.714 0.698 0.656 0.654 0.65
2421.326 0.67 0.712 0.669 0.629 0.679 0.712 0.68 0.685 0.678 0.624
2440.619 0.645 0.663 0.64 0.615 0.665 0.687 0.676 0.699 0.679 0.702
2459.912 0.716 0.666 0.674 0.644 0.603 0.596 0.541 0.497 0.519 0.546
2479.206 0.525 0.537 0.515 0.526 0.54 0.468 0.439 0.486 0.468 0.386
2498.499 0.426 0.481 0.448 0.455 0.45 0.448 0.463 0.437 0.404 0.425
2517.793 0.432 0.408 0.405 0.365 0.355 0.402 0.387 0.375 0.372 0.336
2537.086 0.356 0.381 0.371 0.362 0.395 0.333 0.256 0.283 0.296 0.299
2556.380 0.272 0.227 0.267 0.319 0.34 0.316 0.225 0.17 0.182 0.16
2575.673 0.212 0.299 0.243 0.191 0.17 0.214 0.257 0.221 0.204 0.267
2594.966 0.273 0.247 0.319 0.348 0.301 0.249 0.234 0.251 0.225 0.231
2614.260 0.286 0.261 0.214 0.212 0.184 0.16 0.14 0.11 0.1 0.05
2633.553 0.11 0.17 0.16 0.13 0.07 0.05 0.09 0.14 0.14 0.07
2652.847 0.02 0 0.01 0.04 0.07 0.07 0.09 0.07 0.08 0.1
2672.140 0.06 0.09 0.14 0.15 0.15 0.16 0.17 0.16 0.221 0.207
2691.434 0.187 0.17 0.14 0.223 0.215 0.21 0.289 0.303 0.289 0.294
2710.727 0.318 0.298 0.304 0.398 0.406 0.362 0.391 0.418 0.449 0.469
2730.020 0.519 0.576 0.595 0.627 0.715 0.775 0.789 0.856 0.894 0.943
2749.314 1.026 1.069 1.053 1.072 1.1818 1.17689 1.1801 1.18914 1.1432 1.075
2768.607 1.079 1.1493 1.147 1.18636 1.24843 1.19668 1.1292 1.1524 1.20922 1.3109
2787.901 1.3408 1.4333 1.5161 1.4565 1.4757 1.7098 1.9183 1.9311 2.0311 2.1667
2807.194 2.18 2.22 2.26 2.39 2.52 2.56 2.64 2.68 2.68 2.79
2826.488 2.95 3.09 3.2 3.33 3.48 3.62 3.72 3.73 3.92 4.24
2845.781 4.4 4.59 4.88 5.07 5.35 5.65 5.98 6.4 6.78 7.18
2865.074 7.72 8.3 8.84 9.64 10.62 11.51 12.57 13.95 15.32 16.8
2884.368 18.51 19.86 20.93 21.95 22.8 23.53 24.04 24.4 24.52 24.55
2903.661 24.49 24.39 24.45 24.47 24.51 24.57 24.71 24.93 25.19 25.39
2922.955 25.6 26.02 26.39 26.64 27.11 27.83 29.04 30.92 33.19 36.01
2942.248 38.79 40.93 42.4 43.12 43.58 43.9 43.84 43.5 42.96 42.03
2961.542 40.41 38.34 36.48 35.44 35.49 36.59 38.58 41.38 44.77 48.28
2980.835 51.48 54.15 56.17 57.39 57.84 57.15 55.39 53.13 50.27 46.24
3000.128 41.59 36.77 31.98 27.93 24.41 21.5 19.26 17.23 15.58 14.21
3019.422 12.95 11.98 11.24 10.4 9.6 9.06 8.43 7.85 7.56 7.19
3038.715 6.68 6.21 5.83 5.58 5.36 4.98 4.7 4.57 4.23 3.91
3058.009 3.72 3.5 3.38 3.13 2.95 2.91 2.85 2.78 2.67 2.63
3077.302 2.41 2.35 2.5 2.36 2.19 2.29 2.28 2.19 2.33 2.26
3096.596 2.1682 2.0229 1.9158 1.9423 1.953 1.9209 1.9026 1.8729 1.7766 1.8273
3115.889 1.7334 1.6124 1.8305 1.8652 1.6374 1.6772 1.6807 1.646 1.6232 1.4665
3135.182 1.5363 1.6807 1.5861 1.4586 1.4757 1.5167 1.4628 1.5202 1.5222 1.5146
3154.476 1.6074 1.5142 1.5075 1.431 1.3385 1.3686 1.25217 1.20321 1.2972 1.2984
3173.769 1.18805 1.058 1.07 1.24356 1.19851 1.021 0.957 1.053 1.021 0.864
3193.063 0.767 0.677 0.571 0.485 0.487 0.534 0.508 0.45 0.568 0.731
3212.356 0.794 0.671 0.535 0.388 0.16 0.296 0.421 0.438 0.429 0.263
3231.650 0.309 0.564 0.554 0.476 0.514 0.567 0.64 0.492 0.39 0.376
3250.943 0.362 0.455 0.609 0.507 0.249 0.419 0.613 0.618 0.62 0.589
3270.236 0.713 0.712 0.507 0.507 0.65 0.668 0.612 0.571 0.681 0.709
3289.530 0.658 0.724 0.848 0.974 0.871 0.728 0.772 0.743 0.747 0.816
3308.823 0.747 0.701 0.829 0.824 0.668 0.633 0.718 0.776 0.749 0.802
3328.117 0.837 0.862 0.935 0.901 0.895 0.952 0.967 0.86 0.886 1.02
3347.410 1.079 1.1558 1.1007 1.047 1.058 0.917 0.849 0.901 0.987 1.1186
3366.704 1.18878 1.3718 1.2822 1.3024 1.5774 1.627 1.7402 1.7798 1.8214 1.6618
3385.997 1.5601 1.7958 2.1057 2.074 2.1637 2.41 2.45 2.85 3.18 3.4
3405.290 3.42 3.55 3.81 3.95 4.24 4.35 4.47 4.72 4.76 4.86
3424.584 4.91 4.74 4.39 4.05 4.04 3.94 3.9 3.94 3.69 3.49
3443.877 3.45 3.31 3.09 2.79 2.8 2.93 2.65 2.41 2.37 2.24
3463.171 2.157 2.2 2.0672 1.8966 1.9202 2.042 1.9731 1.772 1.7068 1.7564
3482.464 1.678 1.4982 1.5602 1.5172 1.5187 1.6334 1.5758 1.5012 1.521 1.5603
3501.758 1.4398 1.4923 1.6559 1.6344 1.4007 1.20201 1.0946 1.078 1.17433 1.24413
3521.051 1.25645 1.3674 1.3919 1.25892 1.3099 1.3943 1.2436 1.20438 1.065 1.014
3540.344 1.1627 1.25739 1.3667 1.23728 1.18171 1.1527 1.1159 1.1356 1.1572 1.26405
3559.638 1.4187 1.4243 1.21781 0.966 0.922 1.1588 1.3094 1.3353 1.319 1.23858
3578.931 1.08 0.992 1.1022 1.078 1.074 1.1321 1.1251 1.0961 0.982 0.901
3598.225 0.966 1.1523 1.1528 0.999 0.945 0.899 0.924 1.007 0.992 1.1446
3617.518 1.21386 1.0966 1.121 1.072 0.967 1.025 1.041 1.021 1.079 1.1572
3636.812 1.0843 0.987 0.992 0.893 0.875 0.874 0.986 1.0992 0.984 0.983
3656.105 0.895 0.783 0.85 0.947 0.992 1.028 1.1252 1.065 0.809 0.74
3675.398 0.818 0.92 1.046 0.972 0.946 1.029 1.029 0.945 0.866 0.801
3694.692 0.798 0.782 0.778 0.868 0.964 0.979 0.949 0.94 0.986 1.068
3713.985 1.069 1.031 1.008 1.041 0.976 0.902 0.916 0.941 1.015 1.031
3733.279 0.976 1.006 1.043 0.999 0.945 0.923 0.961 0.856 0.8 0.899
3752.572 0.862 0.923 0.936 0.97 1.021 0.891 0.804 0.83 0.976 0.888
3771.866 0.834 0.974 1.006 0.923 0.857 0.834 0.772 0.848 0.886 0.857
3791.159 0.883 0.837 0.789 0.799 0.869 0.929 0.871 0.866 0.849 0.739
3810.452 0.646 0.639 0.632 0.672 0.798 0.906 0.896 0.726 0.673 0.76
3829.746 0.824 0.84 0.83 0.786 0.772 0.782 0.763 0.704 0.736 0.79
3849.039 0.72 0.681 0.66 0.664 0.739 0.777 0.78 0.719 0.666 0.72
3868.333 0.745 0.791 0.825 0.696 0.708 0.782 0.634 0.591 0.639 0.72
3887.626 0.761 0.782 0.825 0.655 0.656 0.724 0.677 0.752 0.801 0.777
3906.920 0.763 0.801 0.795 0.84 0.878 0.789 0.855 0.883 0.815 0.81
3926.213 0.846 0.854 0.827 0.896 1.029 1.0951 1.041 0.832 0.768 0.934
3945.506 0.924 0.846 0.857 0.918 1.054 1.1339 1.077 0.99 0.903 0.861
3964.800 0.885 0.964 0.982 0.945 1.018 0.976 0.928 0.995 1.026 0.967
3984.093 0.974 1.043 1.031 1.038 1.029 0.964 0.999 1.052 1.1136
##END=
