##TITLE=1,2,4-Triphenyl-1,4-butanedione
##JCAMP-DX=4.24
##DATA TYPE=INFRARED SPECTRUM
##ORIGIN=EPA-IR VAPOR PHASE LIBRARY
##OWNER=SRD/NIST
Collection (C) 2018 copyright by the U.S. Secretary of Commerce
on behalf of the United States of America. All rights reserved.
##CAS REGISTRY NO=4441-01-4
##MOLFORM=C 22 H 18 O 2
##$NIST SOURCE=MSDC-IR
##STATE=gas
##XUNITS=1/CM
##YUNITS=ABSORBANCE
##XFACTOR=1.
##YFACTOR=0.001
##DELTAX=1.92898
##FIRSTX=549.8
##LASTX=4000.7
##FIRSTY=5.551
##MAXX=4000.7
##MINX=549.759
##MAXY=0.075531
##MINY=0
##NPOINTS=1790
##XYDATA=(X++(Y..Y))
549.759 5.551 5.661 5.711 5.971 6.331 6.531 6.301 6.721 7.011 6.831
569.049 6.631 6.551 6.921 7.161 7.151 7.141 7.251 7.171 7.011 6.851
588.339 6.561 6.311 6.081 5.701 5.071 4.891 4.481 4.001 3.801 3.281
607.628 3.131 3.041 2.761 2.721 2.531 2.251 2.171 1.971 1.741 1.561
626.918 1.621 1.631 1.671 1.791 1.911 1.991 2.061 2.351 2.731 3.161
646.208 3.331 3.591 4.081 4.551 5.091 5.511 5.901 6.421 7.081 7.561
665.498 7.981 8.631 9.141 9.501 10.121 10.971 12.021 13.231 14.711 16.941
684.787 19.751 22.731 25.741 29.041 32.501 35.901 38.131 37.711 34.931 30.321
704.077 24.811 20.021 16.401 13.781 11.901 10.701 9.991 9.331 8.831 8.671
723.367 8.741 9.051 9.571 10.111 10.821 11.551 12.371 13.251 14.231 15.301
742.657 16.331 17.411 18.071 18.131 17.451 16.001 14.461 12.931 11.221 9.541
761.947 8.281 7.371 6.571 6.041 5.761 5.431 5.131 5.021 4.781 4.641
781.236 4.461 4.121 3.811 3.511 3.311 3.251 3.101 2.951 2.931 2.911
800.526 2.581 2.231 2.101 1.891 1.711 1.501 1.471 1.561 1.471 1.541
819.816 1.581 1.381 1.361 1.193 1.1323 1.1107 0.8715 0.9467 1.1062 1.1444
839.106 1.2198 1.1588 1.1397 1.281 1.291 1.1949 1.1841 1.159 1.2295 1.441
858.395 1.601 1.631 1.641 1.611 1.601 1.671 1.691 1.961 2.141 2.091
877.685 2.071 1.911 1.731 1.741 1.771 1.901 2.001 1.681 1.661 1.951
896.975 1.981 1.931 2.061 2.401 2.641 2.681 2.801 2.991 3.151 3.461
916.265 3.941 4.301 4.331 4.271 4.321 4.431 4.761 5.041 4.991 5.201
935.555 5.781 6.501 7.151 7.741 8.601 9.301 9.681 9.901 9.711 9.151
954.844 8.551 7.791 7.031 6.711 6.691 6.711 6.781 7.001 7.251 7.591
974.134 8.041 8.411 8.831 9.161 9.541 10.351 11.261 12.381 13.711 14.911
993.424 15.871 16.361 16.901 17.551 17.721 17.621 17.061 15.721 13.941 11.931
1012.714 10.151 8.641 7.461 6.731 6.001 5.701 5.371 5.041 5.091 5.151
1032.003 5.051 4.401 3.851 3.421 2.601 2.201 2.021 1.831 1.981 2.111
1051.293 2.251 2.391 2.401 2.381 2.641 3.081 3.371 3.351 3.271 3.321
1070.583 3.261 3.161 3.181 3.091 2.941 2.901 2.811 2.671 2.221 1.821
1089.873 1.711 1.751 1.951 2.291 2.261 1.821 2.031 2.241 1.681 1.431
1109.163 1.791 1.811 1.641 1.781 1.581 1.481 1.821 2.021 1.811 1.461
1128.452 1.601 2.181 2.211 1.821 2.271 2.581 2.311 2.371 2.771 3.291
1147.742 3.831 4.171 4.471 5.221 5.641 5.971 6.511 6.841 7.341 7.831
1167.032 8.671 9.931 11.551 13.791 16.441 19.731 23.061 24.881 24.601 22.971
1186.322 20.431 18.121 16.931 16.701 17.281 17.721 18.051 18.381 18.251 17.461
1205.611 16.971 16.971 16.791 16.991 17.071 17.341 18.331 19.411 20.261 20.851
1224.901 21.441 21.821 21.941 21.911 21.781 21.581 21.261 21.351 21.741 22.101
1244.191 22.191 21.851 21.311 20.851 20.201 19.401 18.661 17.841 17.441 17.411
1263.481 17.331 17.241 17.241 17.381 17.801 18.491 19.131 19.891 20.991 21.721
1282.771 22.001 22.081 21.771 21.221 20.451 19.471 18.591 17.841 17.181 16.551
1302.060 15.931 15.401 14.961 14.811 15.051 15.531 16.111 16.541 16.691 16.481
1321.350 16.091 15.651 15.251 14.811 14.371 14.091 13.831 13.551 13.161 12.741
1340.640 12.381 12.081 11.871 11.611 11.381 11.201 11.021 10.911 10.701 10.401
1359.930 10.011 9.391 8.631 7.891 7.211 6.591 6.031 5.571 5.181 4.921
1379.219 4.721 4.431 4.191 4.031 3.881 3.741 3.651 3.631 3.661 3.801
1398.509 4.061 4.411 4.701 4.901 5.011 5.031 4.871 4.541 4.281 4.101
1417.799 3.851 3.701 3.641 3.621 3.681 3.731 3.761 3.911 4.191 4.591
1437.089 5.271 6.331 7.951 10.051 12.341 14.171 14.771 13.921 11.961 9.451
1456.378 7.121 5.521 4.481 3.681 3.221 2.991 2.791 2.651 2.631 2.721
1475.668 2.781 2.791 2.931 3.251 3.601 4.081 4.811 5.721 6.701 7.411
1494.958 7.691 7.411 6.541 5.371 4.271 3.441 2.871 2.441 2.141 2.011
1514.248 1.921 1.811 1.801 1.851 1.851 1.831 1.871 1.861 1.851 1.871
1533.538 1.901 1.981 1.941 1.901 1.901 1.821 1.851 1.911 1.931 1.891
1552.827 1.891 1.931 2.011 2.191 2.291 2.501 2.791 3.071 3.451 3.941
1572.117 4.601 5.331 6.181 7.131 7.861 8.251 8.291 8.111 7.911 7.951
1591.407 8.431 9.231 10.101 10.771 10.971 10.491 9.471 8.131 6.791 5.701
1610.697 4.841 4.241 3.801 3.481 3.241 3.001 2.881 2.721 2.571 2.461
1629.986 2.451 2.471 2.451 2.501 2.611 2.671 2.791 2.951 3.061 3.311
1649.276 3.611 3.941 4.331 4.681 5.041 5.461 5.871 6.311 6.821 7.391
1668.566 8.251 9.201 10.331 11.761 13.491 15.591 18.131 21.191 25.501 31.371
1687.856 39.021 49.001 60.081 69.791 75.531 75.211 68.841 58.591 47.981 38.051
1707.146 30.141 24.211 19.891 16.801 14.411 12.481 10.861 9.501 8.401 7.391
1726.435 6.431 5.701 5.181 4.751 4.351 4.001 3.721 3.511 3.321 3.171
1745.725 3.101 2.901 2.791 2.761 2.621 2.471 2.381 2.341 2.311 2.181
1765.015 2.031 2.011 1.991 1.951 1.951 1.961 1.891 1.801 1.741 1.681
1784.305 1.691 1.781 1.911 2.031 2.141 2.301 2.551 2.781 2.921 3.061
1803.594 3.091 3.011 2.881 2.611 2.351 2.121 1.901 1.731 1.551 1.441
1822.884 1.381 1.361 1.301 1.1512 1.069 1.038 1.0529 1.0257 1.0335 1.0291
1842.174 1.0006 1.0273 0.9967 0.9108 0.9023 0.9766 0.9886 1.0279 1.1145 1.1533
1861.464 1.1655 1.1919 1.2565 1.281 1.351 1.441 1.451 1.461 1.451 1.511
1880.754 1.671 1.741 1.741 1.791 1.821 1.811 1.811 1.771 1.751 1.741
1900.043 1.741 1.701 1.621 1.611 1.591 1.501 1.441 1.341 1.2414 1.2566
1919.333 1.2421 1.2066 1.1775 1.1232 1.1473 1.1682 1.2351 1.401 1.481 1.561
1938.623 1.681 1.781 1.861 1.941 2.051 2.151 2.221 2.301 2.371 2.331
1957.913 2.281 2.221 2.091 1.991 1.901 1.821 1.701 1.541 1.361 1.1782
1977.202 1.0898 1.0359 0.9657 0.9379 0.901 0.8087 0.7686 0.7611 0.7005 0.7001
1996.492 0.7344 0.7011 0.6957 0.6805 0.654 0.6504 0.6497 0.6918 0.6792 0.6078
2015.782 0.5531 0.5535 0.5524 0.5588 0.588 0.5768 0.5473 0.502 0.4759 0.4326
2035.072 0.4623 0.5782 0.6289 0.5546 0.5148 0.529 0.5336 0.5341 0.5014 0.5471
2054.362 0.604 0.5389 0.5081 0.5089 0.5331 0.5844 0.5128 0.474 0.4529 0.4927
2073.651 0.5775 0.5553 0.5254 0.4831 0.4652 0.4763 0.4981 0.5072 0.4635 0.4375
2092.941 0.4995 0.5515 0.51 0.4724 0.4294 0.4454 0.4536 0.4762 0.5426 0.5228
2112.231 0.5372 0.5731 0.5596 0.5427 0.5284 0.4965 0.3951 0.32896 0.33881 0.3909
2131.521 0.4372 0.4698 0.5319 0.5259 0.4661 0.4578 0.5108 0.5244 0.4647 0.4581
2150.810 0.4954 0.5185 0.5074 0.4744 0.5329 0.4998 0.4132 0.4221 0.4741 0.5108
2170.100 0.5284 0.574 0.6199 0.5645 0.488 0.4808 0.4612 0.4706 0.5036 0.4842
2189.390 0.4775 0.5092 0.4805 0.4489 0.4399 0.4539 0.4446 0.4605 0.4726 0.4232
2208.680 0.4606 0.5207 0.4944 0.4888 0.5588 0.5647 0.5075 0.5213 0.5378 0.5214
2227.970 0.5501 0.5453 0.5456 0.566 0.5351 0.5322 0.5386 0.4899 0.5148 0.5517
2247.259 0.5639 0.5964 0.5805 0.6256 0.6439 0.5901 0.5408 0.5411 0.6197 0.6231
2266.549 0.6533 0.6504 0.6254 0.675 0.6481 0.6203 0.586 0.5825 0.6556 0.6671
2285.839 0.6342 0.6029 0.6088 0.6276 0.6398 0.6616 0.6232 0.5753 0.5901 0.6647
2305.129 0.6731 0.6557 0.7079 0.78 0.8191 0.8839 0.9747 1.0168 0.9804 0.9475
2324.418 0.8469 0.7619 0.7569 0.6844 0.6965 0.7787 0.81 0.8799 0.9145 0.8281
2343.708 0.8024 0.7868 0.7309 0.688 0.6759 0.6874 0.6344 0.6698 0.7181 0.6677
2362.998 0.6703 0.6904 0.7067 0.7091 0.6383 0.5875 0.6232 0.6483 0.6797 0.6907
2382.288 0.6581 0.6502 0.6557 0.6264 0.626 0.6525 0.6731 0.6834 0.6841 0.6781
2401.578 0.6603 0.6248 0.6275 0.6403 0.6333 0.6889 0.6873 0.6607 0.658 0.6183
2420.867 0.681 0.7372 0.6612 0.5688 0.5218 0.597 0.61 0.5355 0.5554 0.5415
2440.157 0.5054 0.5764 0.5765 0.5033 0.4981 0.5265 0.6182 0.6634 0.6063 0.5574
2459.447 0.5533 0.5966 0.6053 0.5446 0.5503 0.5768 0.5336 0.5403 0.5454 0.4819
2478.737 0.5076 0.5441 0.5192 0.4951 0.4918 0.5394 0.5461 0.4864 0.4782 0.5534
2498.026 0.6065 0.6195 0.5761 0.4423 0.4819 0.6117 0.589 0.5356 0.5063 0.5441
2517.316 0.5435 0.5029 0.4774 0.5154 0.5787 0.5421 0.4964 0.4734 0.4297 0.4063
2536.606 0.4845 0.5741 0.5229 0.5057 0.5919 0.6281 0.5592 0.4834 0.478 0.5274
2555.896 0.545 0.5089 0.4642 0.4926 0.5655 0.5401 0.5383 0.6163 0.5552 0.4818
2575.186 0.5369 0.5434 0.5475 0.6202 0.6366 0.6567 0.6524 0.6375 0.6931 0.7196
2594.475 0.6731 0.6712 0.7196 0.7219 0.7344 0.7033 0.5982 0.5171 0.5526 0.5783
2613.765 0.4853 0.4712 0.5851 0.6326 0.6167 0.5692 0.5335 0.5452 0.529 0.5213
2633.055 0.5843 0.544 0.5224 0.5759 0.5936 0.6002 0.676 0.6584 0.4951 0.4101
2652.345 0.4281 0.4955 0.5255 0.5001 0.4797 0.5007 0.526 0.5302 0.5534 0.5746
2671.634 0.4963 0.3987 0.392 0.4718 0.4935 0.471 0.4971 0.5122 0.4418 0.3997
2690.924 0.496 0.5233 0.4775 0.4751 0.5199 0.5759 0.6142 0.573 0.4495 0.3814
2710.214 0.4343 0.4708 0.5414 0.5456 0.5324 0.5654 0.4694 0.4502 0.4749 0.5479
2729.504 0.5559 0.5228 0.5631 0.5711 0.5055 0.4658 0.486 0.5035 0.5594 0.5875
2748.794 0.5971 0.6281 0.6515 0.6063 0.5694 0.6243 0.671 0.639 0.638 0.6624
2768.083 0.5591 0.5053 0.5886 0.6551 0.622 0.607 0.6684 0.5984 0.5604 0.6177
2787.373 0.6588 0.6832 0.7074 0.7014 0.6053 0.593 0.6091 0.6204 0.7504 0.7604
2806.663 0.6611 0.6197 0.6684 0.7224 0.6633 0.678 0.733 0.7291 0.7761 0.7468
2825.953 0.6635 0.7039 0.6991 0.6858 0.7985 0.8917 0.9069 0.8192 0.7214 0.6923
2845.242 0.6714 0.7544 0.8525 0.8908 0.8849 0.9137 0.8795 0.8332 0.8912 0.9322
2864.532 0.9608 1.0097 1.1788 1.2626 1.2005 1.2518 1.2072 1.1794 1.291 1.281
2883.822 1.351 1.441 1.531 1.631 1.601 1.651 1.891 2.211 2.481 2.711
2903.112 3.001 3.351 3.851 4.481 4.931 5.131 5.101 4.791 4.441 4.111
2922.401 3.731 3.431 3.221 3.201 3.191 3.111 3.051 2.981 2.831 2.601
2941.691 2.491 2.531 2.491 2.371 2.281 2.211 2.111 1.971 1.991 2.081
2960.981 1.971 1.821 1.891 1.891 1.961 2.011 1.911 1.911 1.861 1.841
2980.271 1.891 1.931 1.921 1.971 2.061 2.031 2.091 2.181 2.261 2.301
2999.561 2.271 2.351 2.461 2.741 2.831 2.871 3.121 3.231 3.491 3.881
3018.850 4.431 5.131 5.931 6.881 7.951 9.061 10.121 10.831 11.141 11.211
3038.140 10.881 10.181 9.481 8.891 8.421 8.061 7.831 7.951 8.561 9.521
3057.430 10.631 12.121 14.011 16.201 18.661 21.161 23.301 24.671 24.471 22.461
3076.720 19.441 16.281 13.791 12.481 12.141 12.211 12.321 12.031 11.261 10.241
3096.009 9.061 8.131 7.321 6.591 6.031 5.411 4.991 4.591 3.991 3.271
3115.299 2.721 2.471 2.101 1.691 1.531 1.361 1.2346 1.2083 1.1243 1.0709
3134.589 1.1021 1.0742 1.0671 0.9997 0.8825 0.8885 1.0322 1.1523 1.1313 1.0834
3153.879 0.8576 0.835 1.0764 1.2056 1.1014 0.9088 0.9368 0.8367 0.7957 0.8273
3173.169 0.6695 0.5697 0.4646 0.4083 0.4768 0.4803 0.4932 0.5359 0.4964 0.4949
3192.458 0.4955 0.4205 0.4306 0.4643 0.4452 0.4299 0.4325 0.5063 0.4463 0.4618
3211.748 0.5017 0.3479 0.34838 0.4066 0.4299 0.5308 0.4846 0.35688 0.3823 0.4761
3231.038 0.5835 0.4826 0.4162 0.5001 0.34606 0.30997 0.35769 0.3773 0.4036 0.4246
3250.328 0.5938 0.4804 0.32116 0.3731 0.29286 0.31103 0.3943 0.2905 0.30297 0.4766
3269.617 0.5642 0.5289 0.36298 0.26 0.28514 0.2219 0.233 0.34863 0.3996 0.3828
3288.907 0.2579 0.129 0.148 0.31348 0.4264 0.5151 0.5654 0.4853 0.34938 0.4116
3308.197 0.4711 0.3824 0.33643 0.28945 0.29368 0.32111 0.28187 0.3854 0.5092 0.451
3327.487 0.4704 0.5348 0.5065 0.5693 0.722 0.7194 0.579 0.4044 0.4059 0.4181
3346.777 0.4013 0.5325 0.6266 0.7387 0.6434 0.5892 0.7353 0.7844 0.8844 1.0231
3366.066 1.1548 1.1463 1.0254 1.0678 1.1825 1.209 1.2299 1.311 1.1373 0.9312
3385.356 0.9357 0.8399 0.7745 0.6795 0.6526 0.8455 0.8827 0.7014 0.6213 0.6186
3404.646 0.5977 0.5767 0.6457 0.6615 0.5716 0.5321 0.34842 0.3757 0.5435 0.5099
3423.936 0.5753 0.5814 0.4421 0.4533 0.4674 0.36756 0.34347 0.3964 0.3823 0.32303
3443.225 0.33172 0.4095 0.4607 0.4374 0.36435 0.34805 0.32209 0.280365 0.3875 0.4782
3462.515 0.36819 0.36555 0.36098 0.29 0.35395 0.4423 0.5047 0.482 0.3775 0.3925
3481.805 0.4036 0.26605 0.2487 0.29754 0.35905 0.4202 0.4028 0.29961 0.36902 0.4253
3501.095 0.4282 0.4337 0.3999 0.30131 0.28157 0.4064 0.4275 0.4733 0.5234 0.442
3520.385 0.3822 0.4433 0.34337 0.2252 0.252 0.439 0.4726 0.3858 0.429 0.4239
3539.674 0.415 0.4284 0.4075 0.31342 0.279468 0.4278 0.5769 0.5448 0.4869 0.4764
3558.964 0.487 0.4823 0.3783 0.4287 0.3812 0.2456 0.3607 0.36035 0.31713 0.34111
3578.254 0.33419 0.30665 0.28281 0.278265 0.166 0.1756 0.255 0.069 0.061 0.2956
3597.544 0.3782 0.36425 0.4196 0.362 0.29978 0.33524 0.2595 0.31409 0.35357 0.278224
3616.833 0.32534 0.26453 0.1917 0.144 0.2219 0.3984 0.4628 0.5839 0.3747 0.28992
3636.123 0.3995 0.33479 0.32881 0.29345 0.35331 0.30258 0.29865 0.4898 0.5287 0.4103
3655.413 0.3787 0.472 0.5626 0.4883 0.4562 0.4971 0.375 0.4496 0.4788 0.3716
3674.703 0.36423 0.4025 0.5276 0.598 0.5747 0.5538 0.5633 0.5373 0.4627 0.5483
3693.993 0.6645 0.5849 0.4587 0.4795 0.5206 0.4309 0.3908 0.4444 0.5503 0.4908
3713.282 0.4007 0.4992 0.4549 0.35715 0.401 0.3928 0.3464 0.33156 0.4447 0.5655
3732.572 0.5576 0.4232 0.3513 0.4209 0.3829 0.4065 0.442 0.29574 0.275909 0.33602
3751.862 0.34535 0.31778 0.29378 0.30932 0.32104 0.29999 0.2443 0.36374 0.31368 0.3694
3771.152 0.5392 0.4913 0.5816 0.606 0.4066 0.167 0.167 0.2544 0.2088 0.2249
3790.441 0.2262 0.28423 0.4557 0.5931 0.5989 0.3717 0.31421 0.35892 0.3338 0.4284
3809.731 0.4176 0.4004 0.34603 0.2213 0.094 0.134 0.3896 0.4097 0.28382 0.2033
3829.021 0.2042 0.2239 0.2471 0.36475 0.3863 0.30964 0.29601 0.2951 0.33367 0.256
3848.311 0.2045 0.259 0.4184 0.4967 0.34521 0.2528 0.2422 0.2079 0 0.174
3867.601 0.4381 0.36131 0.4104 0.4449 0.4476 0.33004 0.2263 0.31699 0.3657 0.3391
3886.890 0.33272 0.3793 0.3882 0.34017 0.28744 0.26125 0.2201 0.26396 0.26193 0.2322
3906.180 0.277816 0.3718 0.372 0.2349 0.28537 0.34754 0.36412 0.3723 0.2581 0.2315
3925.470 0.154 0.128 0.224 0.2316 0.1981 0.30947 0.4102 0.32896 0.35313 0.4177
3944.760 0.4248 0.32232 0.3726 0.4045 0.32923 0.30781 0.30214 0.31371 0.29458 0.32978
3964.049 0.4034 0.29346 0.176 0.32191 0.3766 0.4387 0.35359 0.08 0.078 0.274375
3983.339 0.34677 0.30723 0.35388 0.4608 0.4595 0.3716 0.4033 0.4454 0.36545 0.2312
##END=
