##TITLE=Octadecylbenzene
##JCAMP-DX=4.24
##DATA TYPE=INFRARED SPECTRUM
##ORIGIN=NIST Mass Spectrometry Data Center
##OWNER=NIST Standard Reference Data Program
Collection (C) 2018 copyright by the U.S. Secretary of Commerce
on behalf of the United States of America. All rights reserved.
##CAS REGISTRY NO=4445-07-2
##MOLFORM=C 24 H 42
##$NIST SOURCE=MSDC-IR
##SPECTROMETER/DATA SYSTEM=HP-GC/MS/IRD
##STATE=gas
##XUNITS=1/CM
##YUNITS=ABSORBANCE
##XFACTOR=1.0
##YFACTOR=0.000004100
##DELTAX=4.0
##FIRSTX=550.0
##LASTX=3846.0
##FIRSTY=0.000156
##MAXX=3846
##MINX=550
##MAXY=0.041
##MINY=0
##NPOINTS=825
##XYDATA=(X++(Y..Y))
550.0 38 57 47 52 40 34 39 46 29 23
590.0 9 5 15 10 6 4 2 1 3 5
630.0 5 8 11 23 34 30 34 45 61 79
670.0 94 128 168 221 306 437 598 655 580 496
710.0 459 449 448 449 448 472 509 512 476 410
750.0 333 269 208 163 133 109 93 87 75 63
790.0 59 56 51 47 53 58 53 42 39 40
830.0 34 26 33 36 30 33 35 38 34 30
870.0 35 36 39 43 43 45 49 50 54 61
910.0 58 49 52 44 39 43 33 33 38 30
950.0 23 33 42 37 33 34 30 28 35 40
990.0 34 32 39 46 51 51 52 66 95 125
1030.0 138 118 82 67 55 50 61 64 61 66
1070.0 75 82 67 51 52 50 49 47 37 32
1110.0 36 35 32 30 23 23 19 15 24 17
1150.0 7 5 1 0 10 16 12 9 11 17
1190.0 28 27 23 25 23 16 14 18 22 20
1230.0 23 28 32 33 36 40 44 52 60 57
1270.0 59 66 72 84 98 108 118 134 146 150
1310.0 150 147 142 138 142 154 172 199 230 260
1350.0 283 285 265 242 224 200 172 152 142 125
1390.0 106 92 85 83 86 89 100 114 117 130
1430.0 162 213 288 384 493 594 678 725 721 654
1470.0 542 416 315 256 254 294 344 338 252 158
1510.0 106 79 65 59 53 51 49 42 39 41
1550.0 38 34 31 36 39 40 46 57 71 81
1590.0 99 125 149 162 154 119 77 50 39 35
1630.0 33 24 21 25 22 16 13 14 15 13
1670.0 10 10 10 3 4 5 2 0 1 6
1710.0 10 12 12 11 9 12 15 15 15 18
1750.0 18 14 10 12 12 6 8 18 25 32
1790.0 39 38 33 28 22 15 14 11 9 11
1830.0 9 10 11 12 12 14 19 19 21 24
1870.0 23 22 23 23 19 14 11 9 7 11
1910.0 12 16 19 21 24 29 34 35 31 29
1950.0 30 28 22 13 9 9 7 7 7 9
1990.0 6 2 6 7 4 7 11 15 18 15
2030.0 17 17 13 14 13 12 13 12 13 14
2070.0 14 13 6 4 8 7 5 4 6 8
2110.0 9 9 10 7 6 8 6 3 3 5
2150.0 9 12 9 5 7 7 6 8 9 9
2190.0 7 3 4 6 4 8 9 9 11 10
2230.0 14 11 7 8 10 10 9 7 8 9
2270.0 9 5 7 12 15 12 13 12 12 16
2310.0 17 19 14 9 6 4 7 10 8 8
2350.0 7 7 6 4 1 4 10 13 15 15
2390.0 14 9 6 9 7 0 1 6 7 8
2430.0 7 8 10 12 11 8 9 10 11 14
2470.0 14 15 13 8 13 16 17 15 17 22
2510.0 21 20 19 17 19 24 28 33 33 31
2550.0 29 28 30 28 33 34 36 39 39 40
2590.0 40 42 47 48 47 47 48 50 54 53
2630.0 57 60 63 67 71 70 70 78 81 81
2670.0 86 93 95 95 90 89 90 85 83 80
2710.0 78 77 78 81 87 89 91 100 102 103
2750.0 104 107 116 118 123 128 134 145 160 175
2790.0 194 213 233 254 278 308 337 370 409 452
2830.0 513 600 719 901 1200 1685 2406 3224 3691 3542
2870.0 3021 2474 2085 1861 1745 1720 1812 2025 2354 2806
2910.0 3372 4076 5058 6483 8262 9728 10000 8952 7219 5459
2950.0 4036 3066 2490 2173 1965 1734 1422 1110 868 710
2990.0 600 520 469 437 424 417 430 463 517 590
3030.0 653 648 567 463 389 345 334 363 422 503
3070.0 547 504 413 356 324 286 251 220 194 172
3110.0 150 133 107 83 80 73 67 60 51 51
3150.0 55 48 44 51 52 50 43 33 29 33
3190.0 40 39 34 31 26 21 19 24 26 25
3230.0 29 24 20 27 29 22 20 24 20 17
3270.0 20 20 22 28 25 18 13 15 17 16
3310.0 25 24 18 17 14 16 18 22 23 20
3350.0 19 22 29 22 13 14 22 26 18 23
3390.0 29 26 18 13 16 22 26 16 11 15
3430.0 13 20 26 17 11 14 14 17 16 15
3470.0 13 10 9 7 7 6 0 4 5 3
3510.0 10 11 9 9 12 13 6 8 11 13
3550.0 19 21 16 15 16 12 3 4 9 10
3590.0 17 12 9 24 33 31 22 10 12 21
3630.0 27 29 33 32 27 26 23 19 11 8
3670.0 11 13 15 18 24 27 27 18 14 16
3710.0 10 16 30 34 31 27 20 24 29 27
3750.0 20 21 29 31 27 26 26 29 31 38
3790.0 34 32 36 34 30 28 33 28 30 37
3830.0 39 31 26 28 30
##END=
