##TITLE=o-Fluorobenzamide
##JCAMP-DX=4.24
##DATA TYPE=INFRARED SPECTRUM
##ORIGIN=EPA-IR VAPOR PHASE LIBRARY
##OWNER=SRD/NIST
Collection (C) 2018 copyright by the U.S. Secretary of Commerce
on behalf of the United States of America. All rights reserved.
##CAS REGISTRY NO=445-28-3
##MOLFORM=C 7 H 6 F N O
##$NIST SOURCE=MSDC-IR
##STATE=gas
##XUNITS=1/CM
##YUNITS=ABSORBANCE
##XFACTOR=1.
##YFACTOR=0.001
##DELTAX=3.85796
##FIRSTX=501.5
##LASTX=4000.7
##FIRSTY=0
##MAXX=4000.7
##MINX=501.534
##MAXY=0.028607
##MINY=0
##NPOINTS=908
##XYDATA=(X++(Y..Y))
501.534 0 0.15042 0.14959 0.4249 0.7925 0.9052 1.317 1.787 2.057 2.567
540.114 2.957 2.927 2.707 2.297 1.917 1.577 1.0543 0.6852 0.5407 0.4583
578.693 0.3921 0.3282 0.3093 0.458 0.6912 0.9203 1.337 1.687 1.877 1.937
617.273 1.797 1.367 0.8645 0.5707 0.4675 0.4509 0.4236 0.4319 0.4892 0.5909
655.852 0.571 0.63 0.7035 0.7574 0.932 1.177 1.397 1.517 1.727 1.847
694.432 1.777 1.697 1.627 1.547 1.537 1.577 1.627 1.777 1.897 2.057
733.011 2.457 3.357 4.547 5.517 6.757 9.627 10.177 7.467 6.187 5.287
771.591 3.997 2.947 2.197 1.737 1.447 1.367 1.337 1.367 1.427 1.527
810.170 1.737 1.997 2.357 2.847 3.337 3.567 3.567 3.537 3.307 2.827
848.750 2.307 1.907 1.627 1.517 1.487 1.517 1.617 1.697 1.677 1.627
887.330 1.577 1.497 1.447 1.397 1.327 1.207 1.126 1.0784 1.0235 1.0093
925.909 0.9927 1.0323 1.1188 1.137 1.177 1.227 1.217 1.207 1.1186 0.9527
964.489 0.9253 0.9734 0.9821 0.9249 0.8708 0.8688 0.8551 0.8097 0.7912 0.8396
1003.068 0.8312 0.8674 0.9117 0.9575 1.157 1.257 1.207 1.217 1.217 1.147
1041.648 0.9378 0.6581 0.5392 0.5734 0.5721 0.5463 0.6334 0.7511 0.8752 1.0766
1080.227 1.237 1.387 1.617 1.707 1.497 1.427 1.357 1.1057 1.0434 1.0056
1118.807 0.9528 1.1347 1.427 1.467 1.397 1.337 1.197 1.1365 1.0756 0.9452
1157.387 0.7073 0.6246 0.6454 0.629 0.7482 0.8424 0.9689 1.177 1.577 2.167
1195.966 2.767 3.427 4.047 4.577 5.017 5.117 4.847 4.407 3.847 3.187
1234.546 2.547 2.087 1.857 1.757 1.657 1.657 1.687 1.657 1.637 1.617
1273.125 1.557 1.547 1.507 1.507 1.637 1.667 1.687 1.777 1.877 2.037
1311.705 2.307 2.717 3.277 4.017 5.027 6.347 8.027 10.067 12.317 14.367
1350.284 15.707 16.107 15.507 13.827 11.227 8.497 6.257 4.547 3.227 2.377
1388.864 1.887 1.557 1.357 1.237 1.1335 1.0781 1.0735 1.1171 1.157 1.237
1427.443 1.407 1.737 2.307 3.247 4.637 6.297 7.547 7.977 8.107 7.927
1466.023 6.667 5.117 4.507 4.557 4.617 4.497 4.237 3.727 2.967 2.207
1504.603 1.637 1.247 1.0238 0.8884 0.8061 0.7943 0.8317 0.8707 0.9142 1.0075
1543.182 1.177 1.407 1.707 2.087 2.527 3.097 3.887 5.017 6.527 8.447
1581.762 10.357 11.817 12.507 12.347 11.517 10.177 8.687 7.437 6.377 5.397
1620.341 4.457 3.527 2.687 2.127 1.847 1.717 1.647 1.597 1.587 1.647
1658.921 1.797 2.047 2.377 2.827 3.317 3.657 3.887 4.247 4.907 6.217
1697.500 8.687 12.847 18.697 24.697 27.707 28.157 28.607 26.327 20.007 13.457
1736.080 8.877 6.277 4.937 4.287 3.917 3.747 3.537 3.037 2.387 1.847
1774.659 1.457 1.132 0.8951 0.7605 0.7106 0.7138 0.7038 0.6972 0.7004 0.7332
1813.239 0.7414 0.7192 0.6816 0.6298 0.5966 0.5483 0.5179 0.5135 0.4792 0.4434
1851.819 0.4404 0.4432 0.4386 0.3975 0.3587 0.3654 0.3554 0.3394 0.3381 0.3582
1890.398 0.3859 0.3999 0.3999 0.4071 0.4496 0.4738 0.4932 0.5194 0.5578 0.5927
1928.978 0.6007 0.5972 0.5827 0.5452 0.5144 0.4928 0.468 0.4439 0.4164 0.3936
1967.557 0.3632 0.342 0.3149 0.2931 0.2947 0.3044 0.2979 0.2761 0.2799 0.284
2006.137 0.2639 0.275 0.2775 0.2705 0.2874 0.2759 0.2649 0.2829 0.2848 0.2755
2044.716 0.2836 0.2889 0.2901 0.2997 0.313 0.3007 0.3018 0.3077 0.2978 0.3007
2083.296 0.3112 0.3184 0.2947 0.2627 0.2542 0.2737 0.2732 0.2506 0.2628 0.2559
2121.875 0.22682 0.22449 0.2383 0.2471 0.243 0.2437 0.2519 0.2453 0.23563 0.23535
2160.455 0.22336 0.21592 0.23354 0.2456 0.267 0.2838 0.2636 0.2488 0.2529 0.2665
2199.035 0.2688 0.2651 0.2565 0.2388 0.23356 0.2599 0.2728 0.2808 0.2989 0.314
2237.614 0.2943 0.2753 0.2769 0.2648 0.254 0.2586 0.2653 0.25 0.2515 0.2679
2276.194 0.2632 0.2703 0.2872 0.2963 0.3226 0.3306 0.318 0.3189 0.3444 0.3602
2314.773 0.3558 0.3435 0.331 0.3306 0.3312 0.3313 0.3287 0.3077 0.2989 0.3031
2353.353 0.2931 0.2864 0.2932 0.2864 0.306 0.3232 0.2969 0.2943 0.2896 0.2688
2391.932 0.2848 0.3086 0.3129 0.2985 0.3013 0.3249 0.3148 0.3093 0.3349 0.3481
2430.512 0.3533 0.3548 0.3576 0.3736 0.3853 0.364 0.3407 0.3291 0.305 0.2805
2469.092 0.2711 0.2777 0.2664 0.2567 0.2573 0.2601 0.2889 0.2786 0.22494 0.21384
2507.671 0.22632 0.2501 0.2615 0.2459 0.2452 0.2429 0.2588 0.286 0.2764 0.2807
2546.251 0.2646 0.2589 0.2902 0.2985 0.2869 0.306 0.3147 0.2881 0.2709 0.2602
2584.830 0.2563 0.2687 0.2831 0.281 0.2632 0.242 0.2516 0.2491 0.2691 0.2833
2623.410 0.2407 0.2448 0.2624 0.2781 0.2819 0.2648 0.2561 0.2438 0.258 0.2834
2661.989 0.2969 0.3012 0.3115 0.3093 0.3087 0.2893 0.248 0.2851 0.324 0.2772
2700.569 0.2664 0.3139 0.3323 0.3159 0.3024 0.298 0.3047 0.3172 0.3185 0.2896
2739.148 0.272 0.3073 0.3318 0.321 0.3119 0.3011 0.2823 0.2788 0.3312 0.3242
2777.728 0.3303 0.3464 0.3289 0.3427 0.3215 0.3574 0.3748 0.3695 0.4093 0.4207
2816.308 0.3743 0.3439 0.3467 0.3808 0.3714 0.3113 0.3027 0.3095 0.299 0.3152
2854.887 0.2994 0.2628 0.2826 0.3143 0.3168 0.3136 0.327 0.3583 0.3439 0.306
2893.467 0.2952 0.3149 0.3684 0.3353 0.3104 0.2934 0.2722 0.287 0.2932 0.3308
2932.046 0.3217 0.3048 0.371 0.3668 0.3307 0.3386 0.3347 0.3294 0.3491 0.3347
2970.626 0.3086 0.2982 0.3009 0.311 0.2929 0.3264 0.3087 0.2906 0.3414 0.3975
3009.205 0.4312 0.4532 0.4607 0.4569 0.4888 0.5185 0.578 0.6118 0.6247 0.7049
3047.785 0.739 0.7598 0.8239 0.8593 0.9138 1.0514 1.247 1.427 1.587 1.707
3086.364 1.717 1.607 1.427 1.187 0.8653 0.5839 0.4725 0.452 0.4112 0.3897
3124.944 0.4068 0.4245 0.4356 0.4518 0.4112 0.3522 0.3781 0.4409 0.475 0.457
3163.524 0.4381 0.4058 0.3879 0.4 0.3727 0.3339 0.3757 0.4236 0.3846 0.3699
3202.103 0.3931 0.3636 0.3273 0.311 0.3373 0.3637 0.3358 0.3274 0.3425 0.3272
3240.683 0.3175 0.3046 0.3304 0.3539 0.289 0.2669 0.2909 0.2948 0.3008 0.3502
3279.262 0.3928 0.3895 0.3634 0.3493 0.3482 0.3814 0.4531 0.4454 0.4206 0.3889
3317.842 0.354 0.3641 0.3761 0.3718 0.3862 0.3732 0.3498 0.3932 0.418 0.4367
3356.421 0.4101 0.4397 0.4836 0.3973 0.3901 0.4896 0.5475 0.5608 0.5877 0.7381
3395.001 0.8334 0.9041 1.0048 1.1066 1.297 1.487 1.697 1.907 2.147 2.457
3433.580 2.827 3.137 3.227 3.017 2.717 2.377 1.827 1.307 0.9923 0.8044
3472.160 0.6639 0.5666 0.5127 0.4974 0.5499 0.6446 0.6551 0.7256 0.7867 0.8536
3510.740 0.9897 1.0393 1.0996 1.247 1.437 1.637 1.857 2.127 2.407 2.617
3549.319 2.857 3.197 3.677 4.087 4.227 4.067 3.637 3.097 2.367 1.557
3587.899 0.9565 0.658 0.5563 0.495 0.4597 0.4719 0.4212 0.3438 0.3648 0.38
3626.478 0.4297 0.479 0.4521 0.4065 0.3253 0.3367 0.3915 0.3544 0.362 0.4152
3665.058 0.4724 0.4822 0.4804 0.5003 0.443 0.3929 0.3949 0.399 0.3957 0.4132
3703.637 0.3951 0.3393 0.3651 0.3697 0.3465 0.3807 0.3482 0.3371 0.3906 0.4186
3742.217 0.4142 0.3648 0.3755 0.3439 0.2737 0.322 0.3701 0.3909 0.3195 0.2952
3780.797 0.3836 0.395 0.3645 0.3687 0.4117 0.3596 0.3366 0.3769 0.3878 0.3558
3819.376 0.2941 0.3049 0.3437 0.3152 0.2963 0.3693 0.4484 0.412 0.3281 0.3167
3857.956 0.364 0.4146 0.3996 0.3441 0.3529 0.3828 0.3618 0.2953 0.2684 0.3195
3896.535 0.4333 0.4947 0.4312 0.3825 0.3453 0.2858 0.2745 0.2919 0.2988 0.3584
3935.115 0.3784 0.3626 0.3417 0.3343 0.3889 0.3289 0.3005 0.291 0.3013 0.4288
3973.694 0.4321 0.3962 0.3752 0.3042 0.2656 0.2846 0.3379 0.3651
##END=
