##TITLE=2-Amino-5-chlorobenzotrifluoide
##JCAMP-DX=4.24
##DATA TYPE=INFRARED SPECTRUM
##ORIGIN=EPA-IR VAPOR PHASE LIBRARY
##OWNER=SRD/NIST
Collection (C) 2018 copyright by the U.S. Secretary of Commerce
on behalf of the United States of America. All rights reserved.
##CAS REGISTRY NO=445-03-4
##MOLFORM=C 7 H 5 Cl F 3 N
##$NIST SOURCE=MSDC-IR
##STATE=gas
##XUNITS=1/CM
##YUNITS=ABSORBANCE
##XFACTOR=1.
##YFACTOR=0.001
##DELTAX=1.92898
##FIRSTX=549.8
##LASTX=4000.7
##FIRSTY=8.39
##MAXX=4000.7
##MINX=549.759
##MAXY=0.41796
##MINY=0.0001805
##NPOINTS=1790
##XYDATA=(X++(Y..Y))
549.759 8.39 8.22 8.1 8.18 8.68 8.76 8.66 8.96 9.25 9.57
569.049 9.86 9.96 10.11 10.13 10.33 10.8 11.13 11.18 11.1 11.04
588.339 11.02 11.03 11.28 11.53 11.62 11.91 12.3 12.87 13.41 13.65
607.628 13.82 14.25 14.64 14.82 14.91 15.02 15.41 15.96 16.57 17.08
626.918 17.65 18.48 19.57 21.02 22.62 24.55 26.92 29.82 33.34 36.73
646.208 38.97 39.39 38.47 37.38 36.64 35.64 33.34 30.49 28.33 27.38
665.498 27.87 29.1 30.59 32.6 35.76 40.64 47.91 57.95 70.48 83.65
684.787 94.2 100.23 102.51 101.18 95.54 85.46 70.8 54.13 40.27 31.34
704.077 26.04 22.9 21.15 20.24 19.76 19.41 19.24 19.17 19.04 19.05
723.367 19.17 18.99 18.97 19.15 19.07 18.99 19.02 18.8 18.64 18.73
742.657 18.5 18.25 18.29 18.33 18.3 18.42 18.76 19.16 19.55 20.03
761.947 20.5 20.54 20.07 19.2 18.13 16.98 15.36 13.47 11.89 10.64
781.236 9.96 9.74 9.79 9.98 10.41 11.24 12.27 13.51 15.33 17.79
800.526 20.61 24.15 28.04 32.04 36.22 40.31 44.16 46.9 47.21 44.75
819.816 40.76 36.45 32.41 28.6 24.76 21.16 18.08 15.72 13.99 12.53
839.106 11.61 11.18 10.91 11.04 12.03 13.95 16.77 20.83 25.58 29.87
858.395 33.22 35.4 36.41 36.08 34.3 30.91 26.66 22.79 20.46 19.69
877.685 19.89 21.2 23.16 25.47 27.82 30.5 33.13 34.85 33.73 29.17
896.975 24.86 21.97 19.03 16.08 13.4 10.92 9.01 7.71 6.82 6.38
916.265 5.95 5.77 5.78 5.53 5.45 5.6 5.54 5.5 5.51 5.49
935.555 5.62 5.73 5.82 5.95 6.08 5.9 5.53 5.4 5.46 5.26
954.844 5.09 5.13 5.08 5.11 5.16 5.17 5.27 5.37 5.19 4.87
974.134 4.96 5.3 5.17 4.96 5.11 5.14 5.02 4.96 4.95 5.05
993.424 5.07 4.97 5.03 4.92 4.83 5.01 5.18 5.19 5.1 5.14
1012.714 5.24 5.53 5.73 5.9 6.01 6.19 6.87 7.73 8.52 9.79
1032.003 11.54 14.19 17.89 21.94 26.74 32.21 37.86 43.1 47.43 50.77
1051.293 53.14 54.58 54.52 53.21 51.27 49.45 48.32 48.84 51.2 53.91
1070.583 56.43 58.19 58.92 58.91 57.99 55.41 51.26 46.32 41.41 37.7
1089.873 35.56 34.65 35.29 37.04 39.77 43.76 49.05 55.65 63.96 73.81
1109.163 84.31 95.75 109.36 125.73 144.43 164.27 186.02 211.63 240.68 273.21
1128.452 308.64 343.05 372.95 395.1 409 417.67 417.96 403.95 371.79 324.55
1147.742 274.03 228.11 186.51 148.69 117.08 94.02 79.65 73.73 74.52 81.08
1167.032 92.06 104.38 114.55 119.19 118.41 113.62 106.05 96.21 83.61 69.54
1186.322 56.46 45.98 38.68 33.91 30.82 29.19 28.18 27.3 26.59 26.05
1205.611 25.14 24.14 23.72 23.24 22.68 22.19 22.24 22.58 23.21 24.14
1224.901 25.53 27.58 29.55 32.02 34.86 38.09 41.65 45.26 49.21 53.15
1244.191 57.12 61.13 64.9 68.03 70.36 71.73 72.38 72.56 72.03 70.82
1263.481 68.89 67.26 67.13 69.52 75.02 84.62 99.41 119.28 143.46 169.01
1282.771 191.97 208.97 218.19 220.61 217.3 209.03 196.41 181.06 166.84 157.04
1302.060 152.72 154.35 161.37 170.98 180.3 189.26 198.96 208.63 215.92 218.39
1321.350 214.54 203.92 186.4 162.75 135.3 107.7 83.42 64.35 50.38 40.34
1340.640 33 27.4 22.95 19.35 16.51 14.32 12.59 11.23 10.21 9.41
1359.930 8.8 8.36 7.93 7.53 7.31 7.17 7.1 7.24 7.43 7.64
1379.219 7.94 8.34 8.84 9.41 10.1 10.92 11.88 13.07 14.6 16.5
1398.509 18.92 22.02 25.83 30.71 36.69 44.08 53.15 63.94 76.11 89.12
1417.799 101.85 113.41 121.84 125.91 124.82 118.66 107.74 93.28 76.65 59.87
1437.089 44.28 32.43 24.76 20.31 17.88 16.63 16.22 16.39 17.02 17.97
1456.378 19.31 20.88 22.55 24.47 26.49 28.74 31.38 34.89 39.84 46.76
1475.668 56.09 68.77 84.97 104.7 126.3 147.29 164.86 177.03 183.78 185.4
1494.958 181.38 171.23 155.56 136.61 117.6 100.52 84.91 71.22 59.37 48.49
1514.248 39.14 31.41 25.25 20.74 17.24 14.71 12.9 11.61 10.64 9.98
1533.538 9.52 9.16 9.12 9.24 9.24 9.33 9.58 9.71 9.94 10.16
1552.827 10.31 10.57 10.92 11.34 11.82 12.51 13.49 14.66 15.98 17.32
1572.117 18.63 19.89 20.86 21.47 21.81 21.92 21.58 20.84 20.01 19.17
1591.407 18.43 18.18 18.3 18.91 20.31 22.27 24.64 27.25 29.8 32.3
1610.697 34.55 36.83 39.32 42.38 46.14 50.69 56.58 63.95 71.95 80.07
1629.986 87.32 92.65 95.43 95.42 92.57 87.18 79.57 70.62 60.98 51.56
1649.276 43.29 36.5 30.6 25.82 22.22 19.45 17.39 15.74 14.26 13.05
1668.566 12 11.05 10.3 9.62 8.97 8.27 7.58 7.03 6.63 6.13
1687.856 5.67 5.35 5.03 4.8 4.65 4.43 4.31 4.17 3.96 3.83
1707.146 3.78 3.75 3.66 3.67 3.73 3.81 3.84 3.81 3.8 3.77
1726.435 3.78 3.84 3.87 3.9 4.01 4.07 4.07 4.14 4.17 4.2
1745.725 4.26 4.3 4.36 4.39 4.32 4.3 4.36 4.44 4.57 4.7
1765.015 4.85 5.03 5.27 5.55 5.71 5.78 5.8 5.67 5.38 5.02
1784.305 4.65 4.26 3.83 3.37 2.95 2.62 2.34 2.14 2 1.89
1803.594 1.79 1.73 1.71 1.65 1.6 1.63 1.65 1.68 1.73 1.77
1822.884 1.87 2.01 2.07 2.08 2.1 2.13 2.14 2.07 1.97 1.94
1842.174 1.84 1.73 1.65 1.66 1.7 1.7 1.76 1.87 1.94 2.08
1861.464 2.32 2.56 2.81 3.12 3.5 3.79 4.16 4.52 4.71 4.82
1880.754 4.78 4.57 4.27 4.02 3.72 3.29 2.94 2.66 2.48 2.41
1900.043 2.36 2.28 2.24 2.18 2.09 2 1.92 1.88 1.82 1.69
1919.333 1.52 1.48 1.49 1.44 1.41 1.4 1.43 1.45 1.45 1.43
1938.623 1.43 1.42 1.4 1.42 1.43 1.43 1.43 1.41 1.46 1.47
1957.913 1.44 1.44 1.47 1.49 1.51 1.59 1.65 1.58 1.53 1.54
1977.202 1.54 1.6 1.55 1.52 1.53 1.52 1.56 1.55 1.48 1.4
1996.492 1.38 1.37 1.35 1.33 1.34 1.35 1.34 1.37 1.35 1.3
2015.782 1.3 1.3 1.34 1.41 1.42 1.49 1.53 1.52 1.51 1.53
2035.072 1.54 1.53 1.59 1.59 1.55 1.47 1.42 1.47 1.47 1.45
2054.362 1.5 1.5 1.5 1.59 1.62 1.57 1.49 1.45 1.49 1.53
2073.651 1.53 1.52 1.53 1.56 1.54 1.56 1.55 1.46 1.44 1.48
2092.941 1.45 1.41 1.27 1.26 1.29 1.18 1.15 1.19 1.19 1.16
2112.231 1.1 1.06 1.02 0.9784 0.9556 0.9721 0.9541 0.9261 0.8871 0.8337
2131.521 0.8916 0.918 0.9426 0.968 0.942 0.9711 1.05 1.04 1.01 1.06
2150.810 1.12 1.14 1.19 1.23 1.23 1.25 1.33 1.37 1.39 1.41
2170.100 1.35 1.38 1.39 1.36 1.4 1.41 1.43 1.45 1.47 1.46
2189.390 1.46 1.43 1.39 1.39 1.41 1.41 1.39 1.41 1.45 1.48
2208.680 1.55 1.61 1.65 1.63 1.66 1.77 1.82 1.9 1.91 1.89
2227.970 1.87 1.86 1.91 1.88 1.88 1.9 1.94 1.98 1.97 1.95
2247.259 1.9 1.87 1.88 1.84 1.81 1.84 1.77 1.66 1.61 1.54
2266.549 1.46 1.45 1.44 1.4 1.35 1.3 1.32 1.34 1.35 1.39
2285.839 1.39 1.41 1.46 1.43 1.35 1.35 1.35 1.38 1.41 1.44
2305.129 1.38 1.3 1.27 1.18 1.15 1.17 1.13 1.14 1.14 1.13
2324.418 1.18 1.12 1.08 1.14 1.17 1.29 1.34 1.38 1.45 1.44
2343.708 1.45 1.47 1.45 1.43 1.4 1.4 1.32 1.19 1.15 1.12
2362.998 1.06 1.03 0.98 0.9368 0.8726 0.8185 0.8069 0.8044 0.793 0.7665
2382.288 0.8018 0.7831 0.7215 0.6793 0.6903 0.7395 0.6821 0.6228 0.6191 0.6379
2401.578 0.617 0.6179 0.606 0.5717 0.5873 0.6406 0.7233 0.6997 0.6102 0.5464
2420.867 0.5731 0.6162 0.6023 0.586 0.6225 0.6286 0.615 0.5863 0.5975 0.7055
2440.157 0.7049 0.6547 0.6212 0.5364 0.5198 0.5938 0.6303 0.6426 0.6234 0.6338
2459.447 0.6335 0.5985 0.6255 0.6885 0.6989 0.6656 0.649 0.7005 0.7762 0.6997
2478.737 0.6324 0.7101 0.753 0.6771 0.6348 0.708 0.758 0.7072 0.6673 0.6843
2498.026 0.7239 0.7443 0.5919 0.4503 0.467 0.4551 0.3876 0.3885 0.4045 0.3293
2517.316 0.2888 0.3897 0.4973 0.4739 0.46 0.5638 0.5809 0.548 0.6376 0.7206
2536.606 0.7613 0.8301 0.8812 0.8512 0.853 0.8766 0.8413 0.7934 0.8434 0.8834
2555.896 0.8352 0.826 0.894 1 1 0.9657 1.01 1.1 1.13 1.12
2575.186 1.14 1.21 1.24 1.24 1.24 1.3 1.38 1.38 1.35 1.24
2594.475 1.15 1.11 1.1 0.9856 0.8259 0.7501 0.714 0.6907 0.6515 0.621
2613.765 0.552 0.4366 0.3853 0.4071 0.3915 0.331 0.3949 0.4167 0.4048 0.4497
2633.055 0.5033 0.5698 0.5577 0.4994 0.4455 0.4726 0.487 0.5146 0.5732 0.5532
2652.345 0.4939 0.4097 0.3702 0.4014 0.4415 0.4748 0.483 0.4771 0.4955 0.5198
2671.634 0.478 0.5 0.4917 0.4452 0.4499 0.419 0.4011 0.4012 0.3844 0.4243
2690.924 0.4768 0.4241 0.3624 0.3524 0.4334 0.4767 0.5244 0.614 0.6584 0.6748
2710.214 0.7079 0.6793 0.6862 0.7273 0.6231 0.541 0.6382 0.7113 0.7142 0.5982
2729.504 0.5533 0.6707 0.6292 0.5813 0.6303 0.6702 0.6791 0.7409 0.7233 0.658
2748.794 0.7198 0.7328 0.6558 0.5974 0.5167 0.5521 0.58 0.5623 0.5397 0.5017
2768.083 0.4531 0.3517 0.4087 0.5138 0.4796 0.5065 0.5713 0.5765 0.586 0.4938
2787.373 0.4823 0.5182 0.523 0.5598 0.5388 0.5134 0.5189 0.5017 0.4825 0.511
2806.663 0.4985 0.4666 0.4461 0.5156 0.5222 0.4865 0.6033 0.5961 0.4963 0.4659
2825.953 0.4866 0.5283 0.5201 0.5218 0.5706 0.5495 0.532 0.4875 0.454 0.517
2845.242 0.5187 0.4451 0.4416 0.4672 0.4809 0.5175 0.5129 0.5273 0.5536 0.6001
2864.532 0.5906 0.5401 0.6121 0.6749 0.7194 0.7685 0.7783 0.8032 0.8545 0.8443
2883.822 0.7528 0.7129 0.7998 0.8035 0.8395 1.05 1.1 1.03 1.03 1.03
2903.112 1.12 1.24 1.28 1.22 1.15 1.28 1.34 1.28 1.38 1.5
2922.401 1.48 1.37 1.36 1.3 1.17 1.19 1.24 1.13 0.9654 0.973
2941.691 0.9296 0.7762 0.6033 0.5427 0.533 0.4639 0.4004 0.3585 0.3944 0.4145
2960.981 0.3536 0.4375 0.5134 0.5204 0.6196 0.6504 0.6119 0.6382 0.6156 0.6615
2980.271 0.786 0.7365 0.743 0.7885 0.7288 0.7232 0.7824 0.8173 0.8656 0.8554
2999.561 0.8144 0.9148 1 1.01 1.05 1.17 1.32 1.48 1.71 1.96
3018.850 2.17 2.46 2.85 3.31 3.96 4.5 5.13 5.98 6.68 7.21
3038.140 7.61 7.91 7.96 7.71 7.37 6.89 6.25 5.44 4.69 4.09
3057.430 3.56 3.34 3.3 3.38 3.58 3.82 4.12 4.54 4.96 5.21
3076.720 5.38 5.38 5.23 4.98 4.62 4.31 3.78 3.1 2.48 1.96
3096.009 1.63 1.43 1.26 1.18 1.11 1.03 1.07 1.08 1.1 1.07
3115.299 1.05 0.9905 0.8699 0.8103 0.7434 0.6851 0.5491 0.4943 0.5234 0.2586
3134.589 0.1805 0.2491 0.2044 0.2821 0.2392 0.3211 0.4016 0.2751 0.2996 0.4374
3153.879 0.3763 0.3711 0.3946 0.3257 0.4581 0.5538 0.3744 0.3141 0.3465 0.3588
3173.169 0.3468 0.3392 0.386 0.5329 0.7954 0.7827 0.7656 0.8698 0.8755 0.825
3192.458 0.8099 0.8209 0.8869 0.9948 1.05 1.2 1.3 1.23 1.31 1.48
3211.748 1.51 1.53 1.68 1.85 2.01 2.13 2.23 2.28 2.19 2.17
3231.038 2.27 2.29 2.23 2.16 2.14 2.23 2.24 2.08 1.85 1.79
3250.328 1.77 1.67 1.57 1.54 1.57 1.44 1.32 1.32 1.25 1.21
3269.617 1.13 0.9109 0.822 0.8089 0.7913 0.7779 0.7012 0.6242 0.5618 0.511
3288.907 0.552 0.5939 0.4775 0.3847 0.455 0.4556 0.4679 0.4858 0.3848 0.3479
3308.197 0.373 0.3513 0.365 0.3498 0.2725 0.3399 0.4001 0.4374 0.4831 0.4899
3327.487 0.4733 0.4273 0.258 0.3132 0.4789 0.4151 0.3827 0.4037 0.3089 0.3606
3346.777 0.4613 0.4592 0.5062 0.4617 0.4636 0.5384 0.4617 0.4038 0.4903 0.4741
3366.066 0.4727 0.4795 0.5091 0.6911 0.8247 0.791 0.7935 0.9795 1.03 1.05
3385.356 1.35 1.6 1.64 1.79 2.02 2.21 2.49 2.88 3.27 3.72
3404.646 4.3 4.92 5.43 6.08 7.01 8.09 9.37 10.8 12.39 14.33
3423.936 16.7 19.17 21.77 24.68 27.64 30.38 32.72 34.68 36.12 36.64
3443.225 36.13 34.74 32.54 29.56 26.29 22.86 19.35 16.05 13.18 10.87
3462.515 9.06 7.5 6.35 5.65 5.14 4.66 4.24 4.02 3.89 3.97
3481.805 4.01 4.01 4.15 4.27 4.45 4.72 5.13 5.57 6.15 6.75
3501.095 7.33 8.11 9.03 10 11.19 12.61 14.07 15.61 17.22 18.74
3520.385 20.21 21.75 23.1 24.35 25.37 26.02 26.35 26.33 26.02 25.39
3539.674 24.51 23.1 21.38 19.61 17.51 15.35 13.37 11.59 9.94 8.44
3558.964 7.28 6.24 5.35 4.81 4.27 3.8 3.39 2.89 2.6 2.45
3578.254 2.3 2.12 1.95 1.76 1.78 1.78 1.64 1.59 1.43 1.31
3597.544 1.34 1.35 1.18 0.9382 0.9459 1.06 0.9819 0.9083 0.7819 0.7575
3616.833 0.6896 0.5631 0.5804 0.5773 0.6098 0.5921 0.3896 0.3287 0.3633 0.2874
3636.123 0.3907 0.5138 0.467 0.3015 0.3248 0.4306 0.4558 0.5281 0.4681 0.3832
3655.413 0.47 0.42 0.267 0.335 0.3644 0.409 0.5386 0.54 0.4098 0.3928
3674.703 0.5674 0.5949 0.5636 0.5935 0.5588 0.6171 0.744 0.8516 0.9215 0.7771
3693.993 0.7121 0.714 0.5836 0.5006 0.6054 0.6303 0.4447 0.5234 0.6087 0.6257
3713.282 0.7371 0.6175 0.5272 0.5283 0.5192 0.578 0.5843 0.6042 0.496 0.4192
3732.572 0.3802 0.2977 0.3755 0.4331 0.4129 0.4146 0.4743 0.6188 0.6146 0.5796
3751.862 0.7303 0.7495 0.8507 0.8352 0.6036 0.5943 0.5436 0.559 0.6203 0.5939
3771.152 0.4852 0.4763 0.6848 0.6711 0.5744 0.6356 0.6556 0.6004 0.5356 0.4919
3790.441 0.578 0.6248 0.5994 0.6161 0.645 0.6218 0.6037 0.7717 0.8489 0.6869
3809.731 0.5274 0.6037 0.7996 0.7671 0.6888 0.7015 0.7337 0.7552 0.8334 0.8615
3829.021 0.8879 0.8392 0.7685 0.7821 0.6814 0.737 0.8668 0.8714 0.7834 0.6682
3848.311 0.7635 1.03 1.15 1.14 1.13 1.11 1.09 1.14 1.19 1.2
3867.601 1.28 1.31 1.16 1.08 1.24 1.34 1.32 1.33 1.45 1.38
3886.890 1.19 1.17 1.26 1.18 1.14 1.3 1.49 1.59 1.41 1.22
3906.180 1.15 1.16 1.13 1.12 0.9858 0.8792 0.784 0.7388 0.8815 0.9661
3925.470 1.05 0.8957 0.785 0.8072 0.8808 0.9147 0.8784 0.9404 0.9322 0.9494
3944.760 1.06 1.08 0.981 0.9092 0.9358 0.9993 0.9271 0.8907 0.7525 0.6127
3964.049 0.7496 0.767 0.7377 0.832 0.7598 0.8259 0.878 0.7054 0.712 0.7755
3983.339 0.7158 0.6779 0.7223 0.6328 0.5023 0.5223 0.6256 0.6477 0.6147 0.5965
##END=
