##TITLE=5-Fluoro-2-methylbenzenesulphonyl chloride
##JCAMP-DX=4.24
##DATA TYPE=INFRARED SPECTRUM
##ORIGIN=EPA-IR VAPOR PHASE LIBRARY
##OWNER=SRD/NIST
Collection (C) 2018 copyright by the U.S. Secretary of Commerce
on behalf of the United States of America. All rights reserved.
##CAS REGISTRY NO=445-05-6
##MOLFORM=C 7 H 6 Cl F O 2 S
##$NIST SOURCE=MSDC-IR
##STATE=gas
##XUNITS=1/CM
##YUNITS=ABSORBANCE
##XFACTOR=1.
##YFACTOR=0.001
##DELTAX=1.92898
##FIRSTX=549.8
##LASTX=4000.7
##FIRSTY=48.22
##MAXX=4000.7
##MINX=549.759
##MAXY=0.08219
##MINY=0
##NPOINTS=1790
##XYDATA=(X++(Y..Y))
549.759 48.22 42.52 38.44 35.55 34.01 36.44 41.74 49.71 59.9 67.01
569.049 70.75 72.65 71.34 66.66 60.04 51.03 40.68 32.37 27.4 25.06
588.339 24.79 26.77 32.06 39.51 48.44 59.07 68.54 75.71 79.84 81.85
607.628 78.45 69.36 59.2 47.91 36.81 26.5 18.07 12.98 9.71 7.32
626.918 5.89 5.27 4.52 4.04 4.11 4.1 4.07 3.7 3.57 3.4
646.208 3.96 4.06 3.12 2.93 2.81 3.26 3.31 2.8 3.11 3.11
665.498 2.86 2.81 2.96 3.49 3.9 4.39 5.73 7.67 9.21 11.49
684.787 15.46 20.96 28.1 34.88 38.92 40.21 40.19 37.28 31.83 26.23
704.077 19.01 12.05 8.01 5.86 4.52 3.53 3.51 3.74 3.66 3.47
723.367 3.53 3.47 3.34 3.59 3.99 4.24 4.22 4.77 5.31 5.85
742.657 6.07 5.72 5.38 5.58 5.54 4.95 3.97 3.18 2.9 2.49
761.947 2.62 2.31 1.6798 1.5225 1.8961 2.29 2.133 2.0357 1.909 1.9062
781.236 1.9108 1.7445 1.8093 1.6873 1.8162 1.9471 2.18 2.65 2.92 3.13
800.526 3.5 4.23 5.33 6.54 7.6 9.29 11.34 13.57 15.38 16.94
819.816 18.26 17.13 14.66 12.58 10.88 9.24 7.25 5.32 3.97 3.33
839.106 3.35 3.11 2.18 1.4552 1.387 1.8729 2.23 2.25 2.53 2.38
858.395 2.41 3.01 3.26 3.59 3.81 4.57 5.33 5.86 7.22 8.68
877.685 9.92 11.05 12.11 12.77 13.1 13.57 13.34 12.53 12.43 11.96
896.975 11.04 10.5 10.19 9.83 9.38 8.79 7.73 7.09 6.71 6.27
916.265 5.7 4.71 3.92 3.33 3.25 2.89 2.5 2.51 1.9771 1.4689
935.555 1.4933 1.6589 1.8565 2.106 2.24 2.103 1.4439 1.7418 2.22 1.9733
954.844 1.85 1.517 1.7839 2.21 2.1309 1.9134 2.14 2.61 2.59 1.9183
974.134 1.5873 1.8238 1.735 1.9114 1.8611 1.7396 1.3862 1.3761 1.5258 1.5371
993.424 1.6839 1.4716 1.4965 1.6433 1.8158 1.3985 1.026 1.8748 1.7055 1.4257
1012.714 1.7725 1.8521 2.0445 1.6058 1.8326 2.46 2.74 3.15 3.91 3.45
1032.003 2.95 3.71 4.24 4.54 5.15 5.55 5.82 6.04 5.55 5.12
1051.293 5.5 4.74 3.76 4.17 3.89 3.27 3.24 3.54 3.48 2.69
1070.583 2.94 2.65 2.0131 2.75 2.66 2.84 2.21 1.6591 1.9146 1.9531
1089.873 1.6069 0.92 0 0.246 1.1154 1.5665 2.0021 2.1083 2.99 3.45
1109.163 3.35 2.81 2.1388 2.79 4.06 5.24 5.06 4.17 5.67 6.6
1128.452 7.25 9.89 10.2 10.54 13.27 13.4 12.56 12.55 12.47 12.56
1147.742 12.81 11.54 10.34 10.68 11.03 11.95 13.41 14.73 16.42 20.07
1167.032 25.24 30.25 35.74 43.59 52.2 59.34 65.83 72.2 77.15 80.53
1186.322 82.19 81.87 77.71 69.55 60.24 51.81 43.65 34.38 26.94 22.46
1205.611 18.58 16.08 15.67 14.76 14.17 15.04 15.33 16.81 20.02 23.76
1224.901 28.32 33.91 39.52 44.91 49.23 51.12 51.32 49.35 44.53 38.12
1244.191 30.58 23.13 16.93 12.73 10.72 9.65 10.03 11.17 12.25 14.1
1263.481 17.32 21.98 26.83 32.28 38.15 41.9 43.96 44.43 42.8 39.6
1282.771 34.72 28.54 22.77 18.07 13.82 10.57 8.75 7.41 6.46 6
1302.060 5.37 5.17 4.9 4.18 4 4.02 3.87 3.75 3.73 3.67
1321.350 3.65 3.69 3.52 3.27 3.32 3.5 3.57 3.6 3.68 3.9
1340.640 4.13 4.16 4.18 4.56 4.98 5.3 5.63 5.97 6.6 7.34
1359.930 8.18 9.35 10.84 12.72 15.07 17.88 21.06 24.44 28.66 33.56
1379.219 38.43 43.41 48.38 53.15 57.37 60.51 62.93 65.1 67.01 68.57
1398.509 69.81 70.27 69.12 66.26 62.12 57.23 51.13 43.55 35.53 28.25
1417.799 22.29 17.52 14.34 12.38 11.25 10.38 9.59 9.13 8.92 8.75
1437.089 8.35 8.26 8.39 8.36 8.64 9.1 9.5 9.74 9.98 10.41
1456.378 11.03 11.6 12.24 13 14.18 16.02 18.22 21.3 25.52 30.58
1475.668 36.57 43.28 49.47 55.3 60.38 64.1 66.36 67.16 66.21 63.24
1494.958 58.6 52.98 47.09 41.2 35.26 29.48 23.78 18.67 14.68 11.95
1514.248 9.97 8.22 6.84 6.04 5.61 5.09 4.74 4.3 3.91 3.91
1533.538 3.96 3.8 3.7 3.75 3.92 3.93 3.9 4.07 4.14 4.27
1552.827 4.48 4.62 4.72 4.63 4.62 5.14 5.49 5.4 5.38 5.7
1572.117 6.13 6.04 5.96 6.53 6.7 6.64 7.04 7.6 8.39 9.42
1591.407 10.47 11.88 13.78 15.76 17.44 18.77 19.77 20.25 20.01 18.88
1610.697 17.05 14.87 12.45 10.16 8.41 6.66 5.32 4.69 4.24 3.91
1629.986 3.66 3.66 3.79 3.63 3.36 3.21 3.28 3.27 3.11 2.84
1649.276 2.53 2.52 2.56 2.27 1.9746 1.9268 1.7866 1.7692 1.8591 1.8996
1668.566 1.7703 1.6851 1.7772 1.6594 1.6473 1.6349 1.4868 1.5412 1.4979 1.4661
1687.856 1.5256 1.4361 1.3723 1.4947 1.5721 1.5855 1.5931 1.4894 1.429 1.4537
1707.146 1.5815 1.6025 1.6259 1.5958 1.6287 1.6304 1.3839 1.2587 1.4335 1.4525
1726.435 1.15102 1.4172 1.8142 1.6725 1.5768 1.7909 1.8421 1.8505 1.761 1.8316
1745.725 2.15 2.18 2.14 2.17 2.36 2.56 2.53 2.72 3.11 3.33
1765.015 3.37 3.23 3.16 2.97 2.73 2.61 2.33 2.0725 2.1248 2.0226
1784.305 1.7097 1.5482 1.578 1.626 1.4524 1.3291 1.3367 1.4574 1.5313 1.4511
1803.594 1.5037 1.4877 1.2975 1.2964 1.3753 1.4302 1.5019 1.417 1.453 1.5756
1822.884 1.4062 1.4363 1.6825 1.6011 1.5412 1.4956 1.4428 1.3876 1.3382 1.2839
1842.174 1.17875 1.2634 1.288 1.4158 1.5403 1.4384 1.5734 1.5613 1.4883 1.5405
1861.464 1.4795 1.4391 1.3697 1.4472 1.4593 1.439 1.5103 1.5281 1.5892 1.6349
1880.754 1.7023 1.9105 2.0083 2.22 2.51 2.59 2.7 2.67 2.68 2.66
1900.043 2.41 2.16 2.0346 1.9616 1.846 1.7153 1.5985 1.6399 1.5997 1.609
1919.333 1.6555 1.5698 1.5149 1.5205 1.6638 1.741 1.7189 1.664 1.7462 1.8516
1938.623 1.862 1.7452 1.5752 1.5637 1.6164 1.6478 1.6124 1.6901 1.6201 1.519
1957.913 1.7901 2.0532 1.9078 1.635 1.7503 1.866 1.8325 1.7897 1.7685 1.7459
1977.202 1.6701 1.563 1.5257 1.587 1.6407 1.6741 1.5135 1.4236 1.5337 1.4089
1996.492 1.377 1.29 1.15189 1.2743 1.2641 1.2685 1.20022 1.16313 1.14615 1.1125
2015.782 1.22421 1.22407 1.13325 1.0455 1.0473 1.0586 1.05 1.0998 1.1204 1.1268
2035.072 1.2768 1.4714 1.5905 1.4882 1.4102 1.2813 1.16621 1.22987 1.13969 1.032
2054.362 1.0768 1.2774 1.3455 1.2088 1.15073 1.13636 1.0544 1.0915 1.23348 1.21963
2073.651 1.19816 1.4335 1.4737 1.4256 1.4911 1.3759 1.3211 1.3063 1.3872 1.4032
2092.941 1.3529 1.4262 1.3325 1.22712 1.2633 1.3866 1.4309 1.2576 1.1006 1.2445
2112.231 1.3459 1.3451 1.3706 1.474 1.3869 1.2883 1.3989 1.3894 1.5141 1.5215
2131.521 1.3821 1.4546 1.5076 1.421 1.47 1.6297 1.5492 1.38 1.3555 1.4268
2150.810 1.3439 1.20522 1.3159 1.3917 1.3317 1.5514 1.7217 1.7271 1.6104 1.4399
2170.100 1.4964 1.4069 1.2894 1.15084 1.15962 1.314 1.3248 1.3137 1.4693 1.4548
2189.390 1.024 1.0821 1.15819 1.033 1.1023 1.2648 1.3855 1.3559 1.3765 1.4023
2208.680 1.5358 1.4222 1.2455 1.13484 1.0736 1.2529 1.3035 1.1088 1.024 1.0865
2227.970 1.2674 1.2803 1.2978 1.4181 1.20263 1.126 1.3346 1.3203 0.965 0.963
2247.259 1.2437 1.2619 1.20472 1.1212 0.992 1.018 1.3134 1.4388 1.211 1.1245
2266.549 1.3254 1.3587 1.3638 1.5005 1.3904 1.23994 1.4033 1.4562 1.163 1.1036
2285.839 1.0881 1.14163 1.3182 1.0815 0.969 0.941 1.1231 1.2818 1.16123 1.2431
2305.129 1.20627 1.14473 1.1246 1.067 1.0963 1.2526 1.21194 1.21695 1.32 1.4511
2324.418 1.544 1.4646 1.356 1.16901 1.13665 1.4022 1.5616 1.23536 1.0848 1.3741
2343.708 1.5055 1.4344 1.3563 1.2418 1.2601 1.4668 1.5005 1.3481 1.2719 1.5175
2362.998 1.6942 1.4392 1.3294 1.4727 1.5267 1.4391 1.39 1.3346 1.4012 1.5651
2382.288 1.5719 1.5537 1.4604 1.4183 1.4855 1.6469 1.6195 1.4687 1.5609 1.389
2401.578 1.348 1.6203 1.7074 1.5343 1.442 1.6414 1.5945 1.5872 1.5933 1.5749
2420.867 1.4777 1.405 1.6036 1.5118 1.3626 1.2794 1.14459 1.0447 0.99 1.2903
2440.157 1.3549 1.20997 1.4412 1.3321 1.2955 1.4952 1.4896 1.6119 1.5524 1.3624
2459.447 1.4251 1.6135 1.5353 1.4856 1.6613 1.6159 1.4203 1.3061 1.2869 1.3969
2478.737 1.6243 1.6942 1.6755 1.7377 1.5986 1.4644 1.4953 1.4525 1.3407 1.4078
2498.026 1.7742 2.0134 1.8586 1.8504 1.9892 1.7969 1.8453 1.8998 1.8237 1.7614
2517.316 1.6416 1.5618 1.4686 1.4747 1.472 1.4213 1.3679 1.4034 1.434 1.4345
2536.606 1.4518 1.4445 1.6352 1.708 1.6253 1.6936 1.6419 1.6591 1.7995 1.8728
2555.896 1.7076 1.5471 1.5738 1.6474 1.6731 1.6692 1.6048 1.5595 1.7537 1.6288
2575.186 1.5628 1.7555 1.623 1.38 1.6491 1.8797 1.4974 1.21882 1.5554 1.5783
2594.475 1.397 1.4246 1.4822 1.6031 1.489 1.3957 1.23428 1.21685 1.618 1.5161
2613.765 1.15618 1.23849 1.318 1.3425 1.15127 1.2543 1.6327 1.4274 1.1917 1.2543
2633.055 1.2683 1.4588 1.6302 1.4254 1.2597 1.3 1.4631 1.4414 1.2693 1.2655
2652.345 1.1296 1.0831 1.19125 1.17907 1.19286 1.19403 1.3046 1.3677 1.2531 1.4194
2671.634 1.6058 1.5985 1.294 1.0659 1.17827 1.3101 1.3006 1.2838 1.3081 1.1104
2690.924 0.888 0.978 1.001 0.989 0.998 0.997 1.0942 1.1062 1.2451 1.243
2710.214 1.2714 1.481 1.2901 1.298 1.3777 1.4236 1.4431 1.14074 1.3918 1.6271
2729.504 1.3845 1.2822 1.16543 0.996 1.23605 1.4627 1.472 1.2918 1.17151 1.0899
2748.794 1.1057 1.28 1.4126 1.6797 1.6359 1.5559 1.3333 1.5343 1.9763 1.7076
2768.083 1.4799 1.4436 1.4286 1.7413 1.5635 1.20733 1.16558 1.2707 1.13832 0.877
2787.373 1.2514 1.3007 1.21362 1.297 1.17022 1.16264 1.13722 1.20316 1.1378 1.0548
2806.663 1.19216 1.0506 1.0952 1.3038 1.5773 1.6718 1.5519 1.6156 1.6077 1.2786
2825.953 0.87 1.1231 1.4899 1.6146 1.7035 1.7793 1.656 1.5558 1.601 1.733
2845.242 1.7529 1.449 1.5214 1.6202 1.9106 2.4 2.0611 1.8575 2.31 2.39
2864.532 2.0438 2.0613 2.19 2.31 2.49 2.35 2.62 2.95 2.96 2.81
2883.822 2.63 2.63 2.42 2.47 2.36 2.0244 2.2 2.52 2.66 2.45
2903.112 1.952 2.0007 2.16 1.9993 2.28 2.27 1.8902 2.1088 2.61 2.46
2922.401 2.15 2.47 2.77 2.91 2.76 3.01 3.62 3.86 4.17 4.61
2941.691 4.88 5.26 5.55 5.74 5.89 5.65 5.74 5.62 5.57 5.37
2960.981 4.84 4.48 4.12 3.85 3.88 3.79 3.48 3.25 3.32 3.86
2980.271 3.89 3.76 3.85 3.61 3.68 3.92 4.12 4.53 4.4 3.96
2999.561 3.96 3.67 3.21 3.12 3.01 2.5 2.53 2.71 2.3 2.0709
3018.850 2.0015 1.8416 1.8589 2.0373 1.9982 2.21 2.54 2.6 2.65 2.82
3038.140 2.83 2.76 2.97 3.3 3.14 3.28 3.41 3.11 2.94 2.98
3057.430 3.35 3.24 3.23 3.39 3.28 3.64 3.84 4.27 5.5 6.21
3076.720 6.24 6.58 6.98 7.26 7.29 6.77 6.14 5.92 5.45 4.6
3096.009 4.02 3.78 3.46 3.33 2.71 2.18 2.69 2.89 2.86 2.0628
3115.299 1.8374 1.9104 1.4885 1.441 1.4612 1.6722 1.8575 1.6191 1.8714 1.9255
3134.589 1.21821 1.2118 1.4573 1.5632 1.7221 2.0023 1.8891 1.5021 1.5293 1.5194
3153.879 1.4252 1.22142 1.003 1.23476 1.4065 1.4385 1.15422 0.741 1.17089 1.5385
3173.169 1.3042 1.041 1.14019 1.4055 1.5109 1.7108 1.4239 1.4086 1.7551 1.5397
3192.458 1.19143 1.2635 1.6022 1.4453 1.17159 0.954 0.785 1.13504 1.343 0.925
3211.748 0.723 0.788 1.0519 1.2668 0.913 0.66 0.888 1.1011 1.0554 1.13428
3231.038 1.2983 0.988 0.885 0.792 0.959 0.966 0.71 0.934 0.836 0.796
3250.328 1.0724 1.0525 1.0493 0.794 0.381 1.0707 1.6677 1.8753 1.8247 1.6198
3269.617 1.701 1.4204 0.962 1.1459 1.1552 0.76 0.917 0.719 0.569 0.762
3288.907 0.905 0.998 1.008 1.20833 1.23123 0.591 0.558 0.766 1.0573 1.3285
3308.197 0.867 1.14305 1.3136 1.0972 1.4037 1.7882 1.5674 1.3795 1.3815 1.1018
3327.487 1.14763 1.011 0.903 1.1527 1.0507 0.966 1.19841 1.1054 1.2561 1.6154
3346.777 1.4303 1.3356 1.16698 1.4809 1.7412 1.3894 1.2844 1.362 1.4103 1.6758
3366.066 1.6842 1.561 1.4829 1.3124 1.3651 1.4443 1.5667 1.2725 0.866 1.13534
3385.356 1.15146 0.688 1.1157 1.4907 0.995 0.904 1.21668 1.2559 1.3395 1.3527
3404.646 0.913 0.742 1.2471 1.2556 1.008 1.0759 0.849 0.735 0.826 0.86
3423.936 1.13932 0.768 0.281 0.834 1.3696 1.29 1.315 1.467 1.3547 1.244
3443.225 0.739 0.922 1.1193 0.837 1.17177 1.4545 1.5517 1.4386 1.2507 1.20104
3462.515 1.358 1.3654 1.0693 1.15634 1.4829 1.3595 0.987 1.093 1.1078 1.026
3481.805 0.952 0.99 1.3771 1.3193 1.18717 1.024 0.744 0.835 1.3176 1.4345
3501.095 1.5308 1.6028 1.14137 1.2847 1.22477 0.746 1.17231 1.6847 1.20857 1.19044
3520.385 1.6898 1.22008 0.91 1.022 1.14775 1.0966 0.699 0.847 1.2711 1.4566
3539.674 1.2831 1.14978 1.0771 0.936 1.001 1.013 0.97 1.3323 1.5504 1.5034
3558.964 1.7189 1.8301 1.6062 1.3954 1.2833 1.1904 1.2724 1.22827 1.2525 1.2676
3578.254 1.5025 1.5163 1.3976 1.5404 1.0632 1.1032 1.5021 1.5916 1.7302 1.6181
3597.544 1.6304 1.4731 1.4163 1.2986 1.2921 1.52 1.4099 1.7156 1.8872 1.5729
3616.833 1.1034 0.807 0.957 1.016 0.84 0.746 1.0865 1.3898 1.4444 1.16531
3636.123 1.4424 1.7911 1.4238 1.20756 0.899 0.985 1.2811 1.054 0.522 0.394
3655.413 0.947 1.4089 1.3983 1.5011 1.5199 1.16856 1.4712 1.5678 1.1172 1.3047
3674.703 1.5555 1.2576 1.1295 0.992 1.22662 1.5242 1.3699 1.3703 1.3685 1.5206
3693.993 1.3094 0.998 1.23175 1.5181 1.364 0.935 1.15532 1.3447 1.2664 1.2811
3713.282 0.915 0.774 0.775 1.15148 1.749 1.9365 1.7513 1.6393 1.3619 1.2761
3732.572 1.3037 1.2792 1.2402 1.2576 1.4095 1.23313 1.13904 1.2474 1.3042 1.2596
3751.862 1.01 0.959 1.2789 1.15832 1.347 1.5735 1.435 1.3563 1.13896 0.886
3771.152 0.681 1.0523 1.3994 1.4768 1.5118 1.2877 1.5843 1.512 1.0776 1.3565
3790.441 1.6663 1.4814 1.4811 1.4663 1.1007 1.20363 1.3539 1.22639 1.525 1.6306
3809.731 1.2425 1.0951 0.972 1.13199 1.5848 1.328 1.028 1.6304 1.3306 1.0465
3829.021 1.4174 1.15336 0.921 1.2773 1.3397 0.762 0.861 1.6482 1.6859 1.3512
3848.311 1.008 0.714 0.84 1.2737 1.0932 0.64 1.0538 1.43 1.309 1.794
3867.601 1.8266 1.14921 1.15559 1.2617 1.22878 1.0887 1.2418 1.22407 0.772 0.983
3886.890 1.3144 0.999 0.946 1.3891 1.35 1.0571 0.702 0.72 1.039 1.19241
3906.180 1.1223 0.628 0.787 1.4077 1.485 1.296 1.3583 1.4361 1.034 0.777
3925.470 1.5979 1.5894 1.0685 1.666 1.8836 1.026 0.806 1.18864 1.6456 1.368
3944.760 0.813 1.026 1.4744 1.4723 1.6067 1.7235 1.2608 1.22715 1.3142 1.36
3964.049 1.16336 1.3124 1.354 1.18355 1.19467 1.014 0.797 0.947 1.0936 0.873
3983.339 1.011 1.4513 1.5572 1.3944 1.4748 1.656 1.15267 1.0474 1.2861 1.3324
##END=
