##TITLE=2-Fluorophenyl methyl carbinol
##JCAMP-DX=4.24
##DATA TYPE=INFRARED SPECTRUM
##ORIGIN=EPA-IR VAPOR PHASE LIBRARY
##OWNER=SRD/NIST
Collection (C) 2018 copyright by the U.S. Secretary of Commerce
on behalf of the United States of America. All rights reserved.
##CAS REGISTRY NO=445-26-1
##MOLFORM=C 8 H 9 F O
##$NIST SOURCE=MSDC-IR
##STATE=gas
##XUNITS=1/CM
##YUNITS=ABSORBANCE
##XFACTOR=1.
##YFACTOR=0.001
##DELTAX=1.92898
##FIRSTX=549.8
##LASTX=4000.7
##FIRSTY=1.7734
##MAXX=4000.7
##MINX=549.759
##MAXY=0.02191
##MINY=0
##NPOINTS=1790
##XYDATA=(X++(Y..Y))
549.759 1.7734 1.09654 0.585 1.7731 2.52 1.6675 1.7427 1.8625 0.862 0.667
569.049 1.2409 1.5961 1.5792 1.653 1.1863 1.4288 1.4964 0.832 0.799 1.1786
588.339 2.18 2.48 2.13 1.8988 2.07 1.9722 0.925 0.925 1.934 2.2
607.628 1.7414 1.7845 2.18 1.8428 1.7434 2.31 1.7279 0.423 0.912 1.8704
626.918 1.7664 1.726 1.3271 1.4004 1.12307 0.845 1.7283 1.2879 1.02778 0.663
646.208 0.406 0.9403 0.9817 1.2426 1.1488 1.09956 0.9642 0.65 0.557 0.805
665.498 0.765 0.758 1.11204 0.592 0.613 1.2508 1.3063 1.2492 0.737 0.25
684.787 0.9599 1.636 1.4984 0.9465 0.55 1.07724 1.1801 1.04983 0.687 0.262
704.077 0.676 1.4345 1.8455 1.5976 1.2165 1.0194 1.2001 1.9701 2.6 2.42
723.367 2.12 2.32 2.7 3 3.63 4.8 5.88 6.32 7.75 9.28
742.657 10.46 11.58 12.51 14.35 16.8 20.03 21.91 19.17 14.88 13.44
761.947 13 11.04 9.55 8.85 7.3 5.28 3.74 3.08 2.85 2.26
781.236 2.51 2.49 1.4951 1.0104 1.2275 1.8496 2.06 1.9971 1.6451 1.5688
800.526 2.1 1.9767 1.9791 2.44 2.75 3.13 3.51 4.06 4.21 4.09
819.816 4.31 6.39 6.18 5.72 6.91 6.38 5.58 5.13 4.41 3.58
839.106 2.56 2.18 2.3 1.9234 1.8434 1.9788 2.41 2.19 1.563 1.3894
858.395 1.8265 1.8216 1.9587 2.0128 2.22 2.33 1.8291 2.0245 2.26 2.77
877.685 2.95 2.55 2.45 2.91 3.08 2.47 2.8 3.56 3.78 4.17
896.975 4.45 5 5.14 4.84 4.46 4.58 4.78 4.26 4.4 3.41
916.265 2.43 2.64 2.14 1.6901 1.8577 2.53 2.77 2.48 2.31 2.13
935.555 2.25 2.4 2.65 2.1 1.7555 1.6656 1.1629 1.769 1.8694 1.5438
954.844 1.9778 1.5119 1.136 1.5063 1.4851 1.8993 2.26 2.58 2.71 2.5
974.134 2.33 2.35 2.74 2.67 2.62 2.54 2.12 2.41 3.31 3.5
993.424 3.39 3.8 4.2 4.57 4.52 4.21 4.54 5.36 5.29 4.71
1012.714 5.08 5.35 5.19 4.63 4.67 4.87 5.53 5.71 4.84 6.26
1032.003 6.7 5.58 5.28 4.56 4.75 5.2 3.99 3.84 3.63 3.82
1051.293 3.65 3.25 4.23 5.91 7.23 6.43 6.64 8.72 9.58 9.88
1070.583 9.97 11.44 13.46 13.03 11.79 11.64 13.48 13.26 12.85 11.57
1089.873 10.42 11.15 10.75 9.66 8.18 7.75 8.35 8.08 7.3 6.73
1109.163 5.01 5.4 6.49 6.65 7.07 6.09 5.65 5.24 4.74 4.31
1128.452 2.62 1.4764 2.92 2.17 0.364 0.922 2.29 3.28 3.59 4.27
1147.742 4.34 3.23 2.8 2.69 2.44 2.86 3.35 4.22 4.62 4.1
1167.032 4.45 4.87 3.68 3.16 3.76 5.9 6.77 7.06 7 6.07
1186.322 6.71 7.38 7.04 6.31 6.83 7.14 8.13 7.76 8.31 10.06
1205.611 8.08 6.77 8.15 11.14 12.72 11.35 10.76 11.77 13.31 13.76
1224.901 13.18 11.67 11.92 13.22 12.96 13.64 13.33 12.1 11.4 11.06
1244.191 10.44 9.54 9.18 8.04 7.39 7.02 6.74 7.38 7.72 7.99
1263.481 8.78 8.92 8.19 8.75 8.95 7.9 7.98 8.23 7.68 7.2
1282.771 6.91 6.51 5.94 5.52 4.73 3.95 4.04 4.38 4.18 3.76
1302.060 3.62 3.64 3.72 3.58 3.4 3.28 3.21 3.16 2.95 2.94
1321.350 3.25 3.55 3.56 3.54 3.59 3.54 3.59 3.62 3.84 4.05
1340.640 4.25 4.55 4.67 4.78 4.99 5.14 5.33 5.45 5.26 5.24
1359.930 5.39 5.49 5.84 6.06 5.82 5.77 6.1 6.37 6.46 6.4
1379.219 6.36 6.34 6.17 5.96 5.6 5.37 5.3 5.11 4.74 4.18
1398.509 3.85 3.78 3.66 3.5 3.46 3.3 3.12 3.05 2.92 2.78
1417.799 2.69 2.92 2.89 2.65 2.79 3.16 3.44 3.65 4.02 4.53
1437.089 5 5.39 5.62 6.09 6.81 7.35 7.94 8.32 8.37 8.44
1456.378 8.6 8.67 8.45 8.31 8.02 7.46 7.37 7.34 7.53 8.31
1475.668 8.82 9.72 10.64 11.21 12.11 12.77 13.03 12.87 12.68 12.31
1494.958 11.69 11.06 10.17 8.94 7.38 6.39 5.57 4.36 3.52 3.05
1514.248 2.88 2.54 2.25 2.45 2.36 2.0133 1.9194 1.9065 1.7367 1.5716
1533.538 1.6593 1.7136 1.8316 1.9413 1.9042 1.655 1.497 1.6272 1.6716 1.7146
1552.827 1.8907 2.1 2.35 2.75 2.58 2.28 2.55 3 3.03 3.12
1572.117 3.42 3.7 4.1 4.07 4.12 4.55 4.61 4.36 4.41 4.65
1591.407 4.49 4.22 4.21 4.09 4.11 4.15 3.84 3.62 3.9 3.95
1610.697 3.54 3.51 3.58 3.45 3.35 3.02 2.46 2.24 1.9836 1.9573
1629.986 1.7948 1.418 1.3477 1.4834 1.4049 1.1443 1.3328 1.339 1.3191 1.2096
1649.276 0.911 0.903 0.906 0.904 1.1954 1.2796 0.9621 0.9547 0.954 0.872
1668.566 0.919 1.07292 1.1671 1.2525 1.11659 1.0174 1.12599 1.12482 1.2879 1.492
1687.856 1.62 1.3073 1.1569 1.132 1.429 1.8737 1.6766 1.3815 1.3431 1.5934
1707.146 1.5949 1.4419 1.1997 1.10334 1.189 1.3231 1.3464 1.11651 0.9797 0.9965
1726.435 1.1204 1.1596 1.11486 1.09882 1.2131 1.12806 0.9757 1.0073 1.06937 0.9948
1745.725 0.925 0.842 0.9817 1.167 0.9762 1.03167 1.0436 0.852 0.766 0.9565
1765.015 1.1405 1.06997 1.1652 1.10153 1.04642 1.3345 1.4743 1.5885 1.5682 1.4429
1784.305 1.4771 1.4405 1.4241 1.5718 1.518 1.5014 1.5447 1.4186 1.3984 1.3381
1803.594 1.3195 1.3335 1.1875 1.05807 1.1892 1.12904 0.896 0.918 0.9588 1.0006
1822.884 1.1481 1.06276 1.05427 1.1587 1.04851 0.887 0.91 1.222 1.4375 1.3462
1842.174 1.03293 0.96 0.9778 0.9639 0.919 0.888 1.05805 1.1361 1.12834 1.1834
1861.464 1.3788 1.1943 1.07088 1.10945 0.9824 0.869 0.905 1.0919 0.907 0.9591
1880.754 1.1652 1.12222 1.3205 1.472 1.2932 1.1668 1.448 1.6696 1.6217 1.7003
1900.043 1.9591 1.8926 1.78 1.7789 1.5774 1.7162 1.728 1.5625 1.3528 1.0007
1919.333 1.09749 1.2787 1.3134 1.4287 1.5246 1.2743 1.03384 1.2307 1.2098 0.928
1938.623 0.84 1.0709 1.5287 1.471 1.2669 1.364 1.2827 1.11553 1.08202 1.09931
1957.913 1.05256 1.1671 1.1498 1.08361 1.07007 0.9305 0.9574 1.10585 1.2081 1.07915
1977.202 0.865 0.763 0.841 0.9707 0.887 0.9724 0.89 0.836 1.1705 1.08183
1996.492 0.747 0.711 0.89 0.929 0.907 0.816 0.756 0.744 0.712 0.694
2015.782 0.712 0.8 0.742 0.805 0.9768 0.839 0.818 1.10381 1.09705 0.9369
2035.072 0.9462 1.1346 0.9848 0.9551 1.1647 1.2128 1.1616 0.865 0.848 0.9581
2054.362 0.9672 1.03128 0.9537 0.904 0.859 0.804 0.78 0.805 0.9413 0.764
2073.651 0.743 0.91 0.9539 0.99 1.0019 1.02286 0.9918 0.9455 0.912 1.1014
2092.941 1.1908 0.868 0.539 0.632 0.844 0.922 0.9354 0.905 0.9811 0.9414
2112.231 0.904 0.862 0.817 0.687 0.472 0.547 0.83 0.731 0.617 0.636
2131.521 0.762 0.928 0.905 0.918 0.783 0.703 0.785 0.95 0.792 0.66
2150.810 0.676 0.65 0.838 0.9748 0.874 0.9383 1.06937 1.03871 1.1643 1.3128
2170.100 1.10127 0.885 0.898 1.03479 0.9468 0.815 1.07209 1.06321 0.908 1.10426
2189.390 1.1691 0.9827 1.04118 1.1101 0.874 0.817 0.954 0.831 0.76 0.797
2208.680 0.629 0.71 0.9706 0.923 0.9785 1.262 1.4002 1.2884 0.926 0.741
2227.970 0.9971 1.11292 0.9993 0.795 0.929 0.9478 0.822 0.926 0.768 0.9319
2247.259 1.2126 1.02177 0.881 0.847 0.756 0.853 0.9461 1.08721 1.2848 1.3105
2266.549 1.1375 0.9985 0.806 0.759 0.735 0.669 0.888 0.86 0.9416 1.1307
2285.839 1.1312 1.05439 1.1992 1.2388 0.844 0.921 1.12215 1.07148 1.04669 0.85
2305.129 0.786 1.03239 0.833 0.539 0.777 0.849 0.784 0.9754 1.3321 1.4149
2324.418 1.2201 0.9971 1.06014 1.3035 1.2689 1.09694 1.09848 1.1675 0.9455 1.0791
2343.708 1.5594 1.3072 0.9319 1.11093 1.3116 1.253 1.11371 0.9825 0.874 1.08043
2362.998 0.9882 1.05969 1.3869 1.184 1.03388 0.9905 0.9795 0.926 0.876 0.995
2382.288 1.07062 1.03259 0.897 0.898 0.888 0.852 0.863 0.9493 1.4655 1.32
2401.578 0.855 0.917 0.796 0.761 1.03626 1.1629 1.1507 1.0156 0.9442 1.1973
2420.867 1.3804 1.3587 1.224 1.132 1.10188 0.891 0.9775 1.08259 1.06115 1.2707
2440.157 1.3644 1.1711 0.915 0.902 1.1457 1.3338 1.3086 1.3421 1.1347 0.912
2459.447 0.9333 0.8 0.797 1.2219 1.269 1.10528 1.2319 1.2228 1.208 1.3086
2478.737 1.2104 0.9808 0.767 1.0006 1.2578 1.2265 1.04205 0.949 1.3414 1.3154
2498.026 1.2087 1.2734 1.1808 0.82 0.878 1.133 1.1798 1.1331 0.71 0.814
2517.316 1.1661 1.04134 0.785 0.658 0.784 0.9453 0.578 0.413 0.809 0.865
2536.606 0.9491 0.745 0.64 1.0095 1.10963 1.0758 0.716 0.595 0.89 1.0063
2555.896 1.0377 1.0145 0.899 1.04143 1.11008 1.08458 1.0062 0.655 0.589 0.9733
2575.186 0.827 0.539 1.027 1.3282 0.958 0.798 0.719 0.632 0.599 0.614
2594.475 0.958 1.1681 1.1864 0.9692 0.899 1.2432 1.333 1.04492 0.844 0.871
2613.765 0.842 0.785 0.9409 1.2227 0.9808 0.869 1.02402 0.783 0.909 0.825
2633.055 0.543 0.83 1.2574 1.1444 0.855 1.09427 1.11686 1.09634 0.9678 0.749
2652.345 0.921 1.2424 1.1994 1.03597 0.712 0.505 1.3244 1.6828 1.564 1.3408
2671.634 0.715 0.902 1.0143 0.911 0.905 1.03071 1.3255 1.04336 0.724 0.914
2690.924 1.2614 1.3317 1.3258 1.4691 1.1744 0.711 0.586 0.796 1.2005 0.797
2710.214 0.885 1.6457 1.5071 1.3477 1.1567 0.728 0.903 0.918 0.821 0.918
2729.504 1.05398 1.03087 0.619 0.619 0.81 0.8 0.77 0.55 0.529 0.776
2748.794 0.834 0.842 0.917 0.728 0.556 1.1457 1.4444 1.1325 1.2521 1.001
2768.083 0.581 0.826 1.0425 1.2172 1.3181 1.1723 1.2436 1.4785 1.5115 1.3345
2787.373 1.04794 0.909 0.9463 0.9781 1.2084 1.0172 0.6 0.778 1.0111 1.03207
2806.663 0.734 0.9754 1.3447 0.9881 0.9752 1.2281 1.6598 1.3942 1.05675 0.9998
2825.953 1.08414 1.4251 1.1392 1.1733 1.3743 1.3217 1.3818 1.0047 0.727 1.0623
2845.242 1.3918 1.8157 1.5322 1.2034 1.4338 1.6077 1.7104 1.7309 2.17 2.23
2864.532 2.19 2.71 2.83 2.58 2.48 2.39 2.28 2.31 2.71 3.21
2883.822 2.76 2.47 3.05 3.1 2.97 3.42 3.64 3.3 3.1 3.68
2903.112 3.76 3.11 3.23 3.87 4.29 3.98 3.2 3.11 3.54 4.08
2922.401 3.92 4.07 4.17 4.26 4.58 4.36 4.79 4.75 4.31 4.38
2941.691 4.55 4.52 3.81 3.32 3.44 3.42 3.4 3.48 3.74 3.48
2960.981 3.35 3.74 3.66 4.13 4.97 5.33 5.57 6.41 7.51 7.65
2980.271 7.79 8.44 8.52 8.27 7.94 7.89 7.51 6.44 5.72 5.2
2999.561 4.82 4.35 3.63 3.39 3.12 2.66 2.48 1.7762 1.7313 2.14
3018.850 1.8211 1.6515 1.7983 1.5872 1.4453 2.19 2.39 2.0111 2.2 2.53
3038.140 2.65 2.98 2.77 2.6 3.34 3.27 2.96 3.21 3.28 3.33
3057.430 3.5 3.45 3.17 3.22 3.28 3.33 4.06 4.38 3.99 3.98
3076.720 4.36 4.34 4.32 3.99 3.33 3.65 3.8 3.23 3.29 3.3
3096.009 2.92 2.73 2.46 2.45 2.54 2.59 2.42 2.0188 2.29 2.23
3115.299 1.9441 1.4166 1.09535 1.7661 1.3484 0.727 0.793 1.1698 1.10167 0.312
3134.589 0.662 1.1345 0.88 0.9762 0.79 0.863 1.3237 1.6311 1.6456 1.1496
3153.879 1.4028 1.503 1.4107 1.8013 1.8047 1.5464 1.4442 1.3033 0.576 0.083
3173.169 0.775 1.11942 0.73 0.335 0.253 0.909 1.2182 1.1921 0.565 0.052
3192.458 0.562 0.725 0.542 0.591 1.12249 1.1614 0.9566 1.06697 1.2958 1.7482
3211.748 1.4795 0.893 0.723 0.53 0.473 0.615 0.319 0.505 0.985 0.64
3231.038 0.281 0.201 0.571 0.8 0.712 0.881 1.3864 1.4149 0.9584 0.806
3250.328 0.574 0.639 0.866 0.752 1.182 1.5086 1.2724 0.908 0.583 0.733
3269.617 0.894 1.0122 1.08984 1.291 1.4237 1.3957 0.861 0.864 0.818 0.432
3288.907 0.9706 1.05457 0.363 0.546 0.884 0.724 0.9364 1.1421 1.3922 1.5797
3308.197 1.02602 0.582 0.535 0.881 1.1953 0.9309 0.874 0.522 0.315 1.04453
3327.487 1.3219 0.776 0.337 0.488 0.9514 1.4192 1.5289 1.11094 1.0909 1.094
3346.777 0.61 0.39 0.715 0.677 0.882 1.08095 1.2651 1.4481 1.1415 1.1566
3366.066 1.1323 0.412 0.751 1.3668 0.71 0.859 1.7987 1.561 0.9433 1.2976
3385.356 1.6801 1.4144 0.78 0.789 1.3369 1.8545 0.919 0.094 0.573 0.9458
3404.646 1.238 0.727 0.446 0.508 0.084 0.053 0.699 1.12725 1.09296 1.2999
3423.936 1.3194 1.03858 0.544 0.543 0.523 0.438 1.0105 1.241 0.9466 0.717
3443.225 0.404 0.564 1.1755 1.3841 1.5639 1.3348 0.865 0.587 0.355 0.299
3462.515 0 0.507 0.907 0.294 0.507 0.575 0.815 1.0089 1.1689 1.2731
3481.805 0.791 0.653 0.9337 0.9505 0.214 0.355 1.1105 1.5272 1.5157 0.881
3501.095 0.441 0.342 0.631 0.762 1.5974 1.7896 0.644 0.756 0.948 0.925
3520.385 1.0041 1.04822 1.1026 1.4822 1.9701 1.0064 0.433 0.924 1.0109 0.746
3539.674 0.716 1.04574 1.03835 0.9629 1.07361 1.2369 1.3535 0.848 0.682 0.77
3558.964 0.596 0.746 0.639 0.707 0.636 0.795 1.2852 1.193 0.818 0.88
3578.254 1.3176 1.2095 0.7 0.238 0.433 0.953 0.9657 0.813 0.62 0.535
3597.544 1.1539 1.4847 1.08979 1.1434 1.07744 1.4665 1.7796 1.4826 1.05339 0.667
3616.833 1.4611 2.09 2.09 2.39 2.37 2.16 2.32 2.37 2.4 2.5
3636.123 3.59 4.18 3.77 4.08 4.23 4.77 5.12 4.74 4.59 5.04
3655.413 5.21 5.02 4.5 3.59 3.22 3.15 3.54 3.36 2.44 2.47
3674.703 2.53 2.32 2.05 1.3225 1.10313 1.2107 1.3156 1.8693 2.32 2.28
3693.993 2.36 1.9406 1.12529 1.3191 1.11172 0.409 0.9363 1.6739 1.9696 1.4691
3713.282 1.1616 1.08495 1.07892 1.4161 1.2483 1.04232 0.804 0.718 0.907 0.908
3732.572 0.693 0.375 0.668 0.733 0.9585 1.9041 1.8685 1.4242 0.9616 1.4247
3751.862 1.4919 0.633 0.693 0.822 0.625 0.56 1.1777 1.6113 1.5366 1.674
3771.152 1.5069 0.82 0.579 0.203 0.169 0.582 0.595 1.06487 1.41 1.1899
3790.441 0.871 0.752 1.2938 1.6272 1.6394 1.5462 1.5077 1.8945 1.582 0.854
3809.731 1.4626 1.8137 1.3653 1.4138 0.9655 0.703 1.04007 0.901 0.923 1.09721
3829.021 0.618 0.471 0.683 0.847 1.4482 1.836 1.5423 1.1723 1.6689 1.6875
3848.311 1.3959 1.6187 1.2389 1.4464 1.8341 1.9027 1.4492 0.777 1.1465 1.5567
3867.601 1.2281 0.56 1.10398 1.592 1.10184 1.3009 1.3177 1.1423 1.4275 1.5235
3886.890 1.1328 1.1585 1.4656 1.3364 1.3323 1.5043 1.4524 1.7579 1.6207 0.9611
3906.180 1.2281 1.4978 1.4913 1.6795 1.6298 1.3701 1.1617 1.0918 1.4659 1.6691
3925.470 1.2322 0.838 1.2393 1.1357 0.9617 1.3608 0.887 1.09939 1.4322 1.0075
3944.760 1.1384 1.3248 1.4846 1.6647 1.2808 0.906 0.751 0.55 0.429 0.843
3964.049 1.526 1.06903 0.753 0.725 0.503 0.805 0.9904 0.682 0.403 0.626
3983.339 0.574 0.495 0.808 0.775 0.925 1.2727 1.1585 1.09809 0.576 0.769
##END=
