##TITLE=2-Fluoroacetophenone
##JCAMP-DX=4.24
##DATA TYPE=INFRARED SPECTRUM
##ORIGIN=EPA-IR VAPOR PHASE LIBRARY
##OWNER=SRD/NIST
Collection (C) 2018 copyright by the U.S. Secretary of Commerce
on behalf of the United States of America. All rights reserved.
##CAS REGISTRY NO=445-27-2
##MOLFORM=C 8 H 7 F O
##$NIST SOURCE=MSDC-IR
##STATE=gas
##XUNITS=1/CM
##YUNITS=ABSORBANCE
##XFACTOR=1.
##YFACTOR=0.001
##DELTAX=1.92934
##FIRSTX=549.9
##LASTX=3999.5
##FIRSTY=7.62
##MAXX=3999.53
##MINX=549.863
##MAXY=0.12615
##MINY=0
##NPOINTS=1789
##XYDATA=(X++(Y..Y))
549.863 7.62 6.47 5.75 5.3 4.94 4.71 4.73 4.7 4.64 4.72
569.156 4.94 5.28 5.93 6.97 8.45 10.47 12.87 15.5 17.84 19.47
588.450 20.99 22.36 22.78 22.95 22.98 21.77 19.32 16.13 12.93 10.22
607.743 8.18 6.8 5.64 4.62 3.98 3.4 3.01 2.83 2.59 2.39
627.037 2.1844 2.0285 2.0277 2.0739 1.8658 1.7276 1.6808 1.6306 1.6371 1.5397
646.330 1.4345 1.27324 1.1542 1.1691 1.1703 1.038 0.952 0.921 0.941 1.045
665.624 1.042 1.011 1.012 1.077 1.1657 1.1905 1.3609 1.5563 1.6954 1.8902
684.917 2.1424 2.38 2.61 2.8 2.83 2.84 2.86 2.81 2.69 2.55
704.210 2.42 2.28 2.1063 1.9469 1.8549 1.8131 1.822 1.9292 2.0954 2.22
723.504 2.47 2.85 3.33 3.96 5.05 6.67 8.85 11.76 15.57 20.24
742.797 25.48 31.09 36.66 41.85 47.11 53.66 62.71 74.53 87.22 90.02
762.091 75.15 57.41 48.65 44.65 40.81 36.04 30.28 24.08 18.31 13.42
781.384 9.7 7.07 5.26 4.13 3.46 3.05 2.83 2.72 2.65 2.68
800.678 2.73 2.79 3.13 3.72 4.46 5.53 7.08 9.02 11.38 14.08
819.971 16.81 19 20.32 20.57 20.13 19.82 20 20.2 19.4 17.35
839.264 14.59 11.63 9.06 7.07 5.58 4.55 3.89 3.35 2.99 2.77
858.558 2.6 2.47 2.34 2.21 2.1164 2.0821 2.0165 1.9617 1.8987 1.8179
877.851 1.8117 1.8012 1.7245 1.629 1.5069 1.4522 1.422 1.4268 1.436 1.3575
897.145 1.3818 1.3266 1.18569 1.21766 1.27261 1.2946 1.3283 1.4304 1.5366 1.5193
916.438 1.5884 1.8185 2.0079 2.25 2.51 2.75 3.04 3.42 3.83 4.33
935.732 4.93 5.61 6.39 7.24 8.23 9.38 10.73 12.41 14.3 16.09
955.025 17.61 18.75 19.46 19.99 20.27 20.04 19.33 18.51 17.59 16.1
974.318 14.06 11.9 9.96 8.47 7.41 6.65 6.14 5.77 5.49 5.28
993.612 5.22 5.18 5.1 5.1 5.16 5.26 5.37 5.56 5.7 5.86
1012.905 6.18 6.44 6.72 7.09 7.49 7.92 8.19 8.28 8.24 8.07
1032.199 7.84 7.59 7.3 6.88 6.46 6.07 5.53 5.03 4.68 4.4
1051.492 4.26 4.24 4.25 4.37 4.63 4.82 4.99 5.14 5.19 5.2
1070.786 5.27 5.28 5.28 5.22 5.08 4.86 4.66 4.64 4.68 4.84
1090.079 5.22 5.81 6.7 7.87 9.36 11.36 13.63 16.08 18.31 19.91
1109.372 20.59 20.3 19.82 19.78 20.01 19.68 18.19 15.93 13.47 11.07
1128.666 9.05 7.68 6.71 6.03 5.59 5.48 6.09 7.09 8.18 9.1
1147.959 9.6 9.58 9.31 9.57 9.46 9.13 9.19 8.75 7.72 6.49
1167.253 5.45 4.79 4.33 4.22 4.27 4.43 4.79 5.16 5.49 5.95
1186.546 6.75 7.81 9.37 11.3 14.02 17.74 22.11 27.54 33.85 40.31
1205.840 46.6 52.43 56.81 60.8 65.49 70.49 75.51 78.84 80.03 79.69
1225.133 78.1 76.4 75.18 73.88 72.27 69.86 66.49 62.4 57.38 52.13
1244.426 47.13 42.09 37.09 32.39 28.47 25.62 23.86 23.48 24.52 27.04
1263.720 31.17 36.83 44.31 53.62 64.68 77.25 90.19 102.03 110.93 115.88
1283.013 118.03 118.57 116.5 109.75 100.47 90.33 76.32 58.63 41.78 29.08
1302.307 20.87 16 13.07 11.05 9.44 8.1 7.08 6.34 5.91 5.66
1321.600 5.5 5.47 5.51 5.67 5.84 6.17 6.55 6.95 7.5 8.19
1340.894 9.03 10.13 11.51 13.34 15.69 18.65 22.34 26.51 30.95 35.27
1360.187 38.73 40.85 42.07 42.87 42.69 41.68 40.28 37.6 33.13 27.61
1379.480 22.22 17.89 14.84 12.79 11.44 10.62 10.12 9.81 9.63 9.48
1398.774 9.34 9.31 9.33 9.4 9.59 9.86 10.2 10.61 11.11 11.69
1418.067 12.37 13.14 13.93 14.78 15.76 17.01 18.74 20.94 23.72 27.2
1437.361 31.63 36.8 42.4 47.93 52.75 56.21 58.01 58.6 58.92 59.27
1456.654 59.37 58.51 55.28 49.69 43.86 39.79 38.35 39.16 41.2 43.42
1475.948 44.99 45.7 45.73 45.68 46.01 45.92 44.25 41.01 36.8 32.31
1495.241 27.91 23.81 20.21 17.03 14.37 12.22 10.45 9.03 8 7.25
1514.534 6.57 6.04 5.63 5.29 5.1 4.9 4.72 4.59 4.49 4.5
1533.828 4.56 4.57 4.68 4.97 5.22 5.52 5.99 6.52 7.07 7.63
1553.121 8.27 8.96 9.68 10.51 11.41 12.28 13.24 14.24 15.18 16.19
1572.415 17.15 17.97 18.67 19.18 19.61 20.06 20.57 21.26 22.19 23.4
1591.708 25.05 27.37 30.47 34.41 38.79 42.92 46.31 48.63 49.86 50.03
1611.002 49.16 47.15 44.19 40.43 35.86 30.66 25.31 20.62 16.99 14.24
1630.295 12.18 10.59 9.35 8.43 7.79 7.35 7.03 6.86 6.86 6.88
1649.588 6.99 7.26 7.59 7.98 8.46 8.93 9.5 10.18 10.91 11.76
1668.882 12.82 14.04 15.42 16.99 18.87 20.91 23.14 25.79 29.4 34.25
1688.175 40.63 49.05 59.44 71.37 84.56 97.13 107.19 114.31 118.15 120.66
1707.469 123.43 126.15 126.14 120.73 109.78 95.46 80.61 67.54 56.6 47.83
1726.762 40.69 34.84 30.22 26.68 24.03 22.17 20.85 19.7 18.6 17.4
1746.056 16 14.54 13.15 11.82 10.61 9.46 8.4 7.47 6.65 5.96
1765.349 5.38 4.91 4.51 4.21 3.96 3.77 3.66 3.57 3.51 3.45
1784.642 3.42 3.45 3.49 3.55 3.66 3.75 3.78 3.85 3.95 3.95
1803.936 3.87 3.79 3.71 3.61 3.46 3.33 3.25 3.14 3.02 2.88
1823.229 2.77 2.68 2.59 2.55 2.46 2.4 2.37 2.23 2.1318 2.0734
1842.523 1.9477 1.8573 1.7771 1.6624 1.5863 1.4931 1.3974 1.3807 1.3422 1.3182
1861.816 1.3084 1.2918 1.3081 1.25465 1.23993 1.27447 1.27083 1.26759 1.27822 1.3094
1881.110 1.3233 1.3714 1.4187 1.4472 1.4799 1.5456 1.6559 1.7644 1.833 1.8965
1900.403 2.0384 2.1657 2.29 2.45 2.63 2.8 2.95 3.15 3.25 3.31
1919.696 3.42 3.51 3.53 3.53 3.53 3.48 3.38 3.26 3.18 3.08
1938.990 2.98 2.92 2.84 2.77 2.66 2.54 2.49 2.46 2.37 2.24
1958.283 2.1539 2.0338 1.8809 1.7718 1.6388 1.5653 1.5194 1.418 1.3584 1.3517
1977.577 1.3002 1.25634 1.23392 1.20036 1.20206 1.1747 1.1489 1.0977 1.036 1.004
1996.870 0.956 0.918 0.872 0.86 0.859 0.862 0.865 0.896 0.894 0.837
2016.164 0.846 0.854 0.879 0.93 0.991 1.045 1.096 1.1331 1.19076 1.25023
2035.457 1.3007 1.3917 1.4573 1.4846 1.5373 1.5753 1.6021 1.6622 1.6932 1.6856
2054.750 1.6408 1.5879 1.5631 1.5853 1.5345 1.4579 1.4268 1.3436 1.28704 1.23
2074.044 1.1183 1.023 0.944 0.859 0.816 0.783 0.746 0.735 0.701 0.676
2093.337 0.627 0.613 0.633 0.635 0.662 0.692 0.697 0.656 0.637 0.652
2112.631 0.662 0.625 0.573 0.594 0.645 0.657 0.615 0.573 0.577 0.555
2131.924 0.56 0.572 0.534 0.512 0.539 0.587 0.584 0.578 0.632 0.631
2151.218 0.623 0.624 0.587 0.608 0.619 0.612 0.622 0.629 0.653 0.688
2170.511 0.656 0.612 0.634 0.668 0.673 0.671 0.692 0.714 0.703 0.689
2189.804 0.701 0.685 0.685 0.674 0.638 0.602 0.585 0.599 0.623 0.634
2209.098 0.585 0.539 0.553 0.597 0.635 0.64 0.642 0.652 0.63 0.639
2228.391 0.686 0.629 0.596 0.62 0.629 0.648 0.668 0.702 0.705 0.712
2247.685 0.722 0.741 0.749 0.761 0.786 0.791 0.839 0.9 0.908 0.874
2266.978 0.908 0.949 0.953 0.976 0.958 0.967 1.013 1.001 0.951 0.926
2286.272 0.936 0.978 1.048 1.1057 1.1356 1.1746 1.21738 1.3185 1.4084 1.4112
2305.565 1.4122 1.4438 1.4775 1.4867 1.4608 1.4548 1.4779 1.4267 1.2949 1.22253
2324.858 1.20125 1.1363 1.0957 1.062 1.012 0.981 0.897 0.798 0.822 0.844
2344.152 0.811 0.752 0.744 0.749 0.761 0.796 0.779 0.759 0.744 0.775
2363.445 0.776 0.753 0.797 0.814 0.794 0.836 0.877 0.799 0.764 0.803
2382.739 0.807 0.802 0.787 0.77 0.781 0.834 0.794 0.786 0.856 0.86
2402.032 0.857 0.902 0.929 0.943 0.976 1.033 1.0963 1.1013 1.1215 1.108
2421.326 1.1298 1.24658 1.26778 1.24922 1.3068 1.3724 1.3834 1.3436 1.3253 1.27277
2440.619 1.22702 1.22628 1.117 1.077 1.079 0.969 0.874 0.839 0.804 0.778
2459.912 0.785 0.756 0.681 0.647 0.657 0.652 0.635 0.635 0.629 0.583
2479.206 0.565 0.564 0.573 0.603 0.628 0.619 0.567 0.592 0.602 0.568
2498.499 0.599 0.625 0.662 0.697 0.734 0.73 0.67 0.65 0.62 0.622
2517.793 0.667 0.688 0.651 0.612 0.597 0.561 0.544 0.572 0.583 0.585
2537.086 0.613 0.571 0.558 0.603 0.586 0.611 0.591 0.562 0.579 0.571
2556.380 0.59 0.584 0.568 0.61 0.654 0.67 0.698 0.735 0.702 0.645
2575.673 0.695 0.735 0.697 0.67 0.708 0.743 0.718 0.657 0.65 0.692
2594.966 0.689 0.622 0.612 0.64 0.579 0.475 0.491 0.546 0.533 0.504
2614.260 0.44 0.331 0.277 0.302 0.349 0.397 0.342 0.288 0.272 0.278
2633.553 0.271 0.253 0.261 0.289 0.341 0.397 0.463 0.429 0.423 0.458
2652.847 0.476 0.517 0.496 0.55 0.629 0.637 0.561 0.491 0.511 0.582
2672.140 0.623 0.591 0.505 0.452 0.438 0.448 0.496 0.376 0.313 0.35
2691.434 0.356 0.358 0.397 0.416 0.39 0.374 0.412 0.442 0.396 0.351
2710.727 0.319 0.33 0.332 0.37 0.426 0.471 0.481 0.444 0.421 0.445
2730.020 0.476 0.424 0.42 0.484 0.446 0.384 0.371 0.361 0.416 0.491
2749.314 0.449 0.364 0.345 0.363 0.41 0.361 0.278 0.332 0.353 0.279
2768.607 0.273 0.371 0.369 0.299 0.345 0.405 0.4 0.388 0.305 0.203
2787.901 0.23 0.296 0.234 0.227 0.24 0.18 0.209 0.283 0.286 0.17
2807.194 0.15 0.261 0.334 0.312 0.296 0.313 0.298 0.292 0.316 0.389
2826.488 0.371 0.348 0.444 0.527 0.502 0.456 0.512 0.577 0.542 0.563
2845.781 0.64 0.691 0.734 0.792 0.764 0.71 0.692 0.667 0.682 0.728
2865.074 0.742 0.676 0.667 0.757 0.823 0.793 0.76 0.708 0.78 0.734
2884.368 0.651 0.726 0.669 0.66 0.742 0.737 0.715 0.818 0.884 0.868
2903.661 0.841 0.814 0.965 1.004 0.857 0.85 0.926 0.953 0.93 1.005
2922.955 1.1033 1.23002 1.3782 1.4894 1.5829 1.7797 1.9757 2.015 2.0736 2.1347
2942.248 2.1392 2.1485 2.2 2.26 2.3 2.26 2.1736 2.0904 2.0583 2.0766
2961.542 2.0569 2.1552 2.22 2.35 2.48 2.61 2.84 2.79 2.76 2.9
2980.835 3.07 3.19 3.44 3.73 3.86 3.97 3.96 4.06 4.35 4.64
3000.128 4.97 5.33 5.73 6.13 6.45 6.66 6.78 6.92 7 6.99
3019.422 6.92 6.69 6.37 6.11 5.76 5.41 5.19 5.16 5.15 5.01
3038.715 5.12 5.26 5.22 5.19 5.32 5.4 5.38 5.28 5.38 5.67
3058.009 5.8 6.04 6.54 7.11 7.92 8.91 9.93 11.09 12.15 13.25
3077.302 14.36 15.01 15.43 15.46 15.04 14.47 13.78 12.93 11.84 10.66
3096.596 9.23 7.76 6.39 5.04 3.95 3.22 2.75 2.43 2.132 1.8717
3115.889 1.6951 1.5926 1.4959 1.3777 1.3198 1.20028 1.1517 1.076 0.968 0.956
3135.182 0.907 0.971 1.1076 1.0989 1.057 1.03 0.961 0.913 0.899 0.935
3154.476 0.981 0.969 0.889 0.817 0.701 0.705 0.901 0.851 0.573 0.448
3173.769 0.479 0.437 0.394 0.343 0.329 0.272 0.18 0.192 0.286 0.201
3193.063 0.14 0.354 0.224 0.09 0.17 0.12 0.16 0.11 0.01 0.18
3212.356 0.389 0.316 0.15 0.07 0.01 0.05 0.15 0.12 0.14 0.18
3231.650 0.12 0.12 0.09 0.04 0.14 0.1 0 0.04 0.03 0.08
3250.943 0.13 0.02 0.01 0.16 0.246 0.25 0.1 0.06 0.1 0.13
3270.236 0.13 0.09 0.258 0.229 0.14 0.17 0.19 0.239 0.21 0.195
3289.530 0.236 0.225 0.259 0.376 0.477 0.386 0.215 0.203 0.215 0.233
3308.823 0.196 0.287 0.386 0.398 0.433 0.275 0.312 0.426 0.508 0.419
3328.117 0.33 0.477 0.443 0.423 0.455 0.479 0.641 0.598 0.476 0.55
3347.410 0.681 0.68 0.479 0.428 0.583 0.694 0.712 0.828 0.864 0.883
3366.704 1.073 1.1565 1.1219 1.27017 1.4562 1.487 1.5942 1.7812 2.0394 2.3
3385.997 2.42 2.52 2.66 2.71 2.71 2.73 2.71 2.64 2.49 2.28
3405.290 2.1336 2.0162 1.8615 1.8699 1.7876 1.5095 1.3896 1.3391 1.28565 1.1769
3424.584 1.1375 1.1577 1.059 0.921 0.842 0.841 0.909 0.979 0.96 0.818
3443.877 0.836 0.824 0.694 0.676 0.691 0.661 0.669 0.743 0.648 0.568
3463.171 0.681 0.789 0.823 0.768 0.694 0.539 0.443 0.504 0.562 0.654
3482.464 0.759 0.726 0.552 0.601 0.629 0.539 0.516 0.621 0.686 0.696
3501.758 0.672 0.571 0.559 0.656 0.631 0.516 0.514 0.559 0.523 0.52
3521.051 0.598 0.588 0.513 0.581 0.618 0.5 0.596 0.69 0.646 0.59
3540.344 0.618 0.729 0.78 0.657 0.584 0.722 0.892 0.966 0.769 0.642
3559.638 0.676 0.688 0.738 0.695 0.723 0.786 0.809 0.727 0.544 0.549
3578.931 0.617 0.651 0.708 0.832 0.76 0.586 0.701 0.831 0.771 0.757
3598.225 0.78 0.811 0.664 0.565 0.671 0.707 0.673 0.629 0.715 0.748
3617.518 0.732 0.73 0.72 0.794 0.832 0.777 0.752 0.739 0.735 0.807
3636.812 0.808 0.807 0.859 0.817 0.705 0.626 0.63 0.707 0.743 0.799
3656.105 0.806 0.658 0.578 0.648 0.692 0.69 0.725 0.706 0.63 0.662
3675.398 0.742 0.775 0.807 0.847 0.789 0.755 0.779 0.837 0.867 0.725
3694.692 0.686 0.633 0.568 0.497 0.556 0.76 0.7 0.699 0.71 0.679
3713.985 0.744 0.605 0.529 0.658 0.669 0.634 0.649 0.619 0.595 0.642
3733.279 0.645 0.545 0.533 0.591 0.64 0.615 0.647 0.762 0.759 0.702
3752.572 0.725 0.751 0.747 0.774 0.784 0.79 0.768 0.68 0.648 0.717
3771.866 0.738 0.812 0.849 0.715 0.671 0.763 0.804 0.865 0.97 0.91
3791.159 0.771 0.703 0.779 0.718 0.637 0.742 0.757 0.727 0.716 0.744
3810.452 0.681 0.636 0.699 0.824 0.938 0.781 0.755 0.812 0.913 1.016
3829.746 0.905 0.784 0.715 0.762 0.81 0.829 0.815 0.798 0.793 0.772
3849.039 0.743 0.683 0.692 0.781 0.83 0.855 0.851 0.804 0.842 0.911
3868.333 0.937 0.887 0.809 0.845 0.844 0.856 0.907 0.916 0.962 1.031
3887.626 1.0979 1.1294 1.1638 1.2368 1.24613 1.1708 1.014 1.1285 1.1777 1.088
3906.920 1.1529 1.1733 1.1519 1.045 0.992 0.921 0.925 0.84 0.693 0.752
3926.213 0.701 0.606 0.653 0.643 0.65 0.791 0.813 0.74 0.786 0.769
3945.506 0.746 0.732 0.683 0.716 0.75 0.705 0.704 0.762 0.747 0.778
3964.800 0.844 0.842 0.804 0.828 0.811 0.812 0.823 0.801 0.834 0.75
3984.093 0.713 0.795 0.731 0.668 0.751 0.743 0.7 0.758 0.722
##END=
