##TITLE=Dicyclohexylmethanol
##JCAMP-DX=4.24
##DATA TYPE=INFRARED SPECTRUM
##ORIGIN=NIST Mass Spectrometry Data Center
##OWNER=NIST Standard Reference Data Program
Collection (C) 2018 copyright by the U.S. Secretary of Commerce
on behalf of the United States of America. All rights reserved.
##CAS REGISTRY NO=4453-82-1
##MOLFORM=C 13 H 24 O
##$NIST SOURCE=MSDC-IR
##SPECTROMETER/DATA SYSTEM=HP-GC/MS/IRD
##STATE=gas
##XUNITS=1/CM
##YUNITS=ABSORBANCE
##XFACTOR=1.0
##YFACTOR=0.000010100
##DELTAX=4.0
##FIRSTX=550.0
##LASTX=3846.0
##FIRSTY=0.000131
##MAXX=3846
##MINX=550
##MAXY=0.101
##MINY=0
##NPOINTS=825
##XYDATA=(X++(Y..Y))
550.0 13 9 10 20 24 29 41 48 43 25
590.0 17 16 14 13 7 8 12 14 15 10
630.0 5 6 12 15 8 8 16 23 39 55
670.0 62 66 64 61 48 34 24 15 11 11
710.0 7 2 5 9 9 5 4 3 2 5
750.0 9 10 14 15 14 20 23 25 23 19
790.0 20 21 19 17 15 16 17 24 31 36
830.0 42 52 77 102 108 99 86 82 90 105
870.0 117 124 136 160 191 215 214 191 156 124
910.0 103 88 83 83 90 100 97 88 80 76
950.0 88 107 138 193 275 367 443 478 470 432
990.0 380 331 290 266 252 247 237 224 211 205
1030.0 202 202 212 223 247 266 275 286 301 332
1070.0 370 389 390 386 385 395 410 412 389 342
1110.0 281 226 188 165 153 150 152 157 168 169
1150.0 166 160 152 150 158 168 175 187 203 216
1190.0 224 225 224 221 218 209 200 195 195 199
1230.0 207 220 236 254 270 289 322 357 373 357
1270.0 314 270 239 223 215 212 219 228 230 224
1310.0 209 187 171 161 157 164 174 184 201 223
1350.0 238 232 215 200 199 206 216 227 230 223
1390.0 210 194 176 156 141 130 123 118 113 113
1430.0 129 170 258 417 616 773 802 691 524 364
1470.0 246 166 113 84 69 60 51 46 44 42
1510.0 35 29 28 26 24 24 21 23 21 16
1550.0 15 18 19 14 12 13 16 15 11 11
1590.0 9 9 11 9 6 7 10 8 6 8
1630.0 7 8 7 7 7 9 11 7 5 6
1670.0 6 7 8 7 7 6 7 10 10 8
1710.0 6 8 8 4 4 5 7 5 5 7
1750.0 7 6 7 6 5 6 6 7 7 6
1790.0 7 7 6 4 5 4 5 4 2 3
1830.0 4 5 7 9 8 7 5 4 4 5
1870.0 4 4 4 3 3 5 6 6 3 6
1910.0 5 2 3 5 5 4 4 4 5 4
1950.0 5 7 6 5 4 6 7 6 5 4
1990.0 4 4 2 2 4 2 3 6 4 3
2030.0 4 5 6 5 4 3 4 5 4 3
2070.0 4 4 2 0 0 2 3 4 3 3
2110.0 2 2 4 4 4 3 4 6 6 7
2150.0 6 4 6 8 8 6 6 7 8 7
2190.0 9 10 10 9 8 9 8 8 9 11
2230.0 10 7 8 9 7 7 6 6 6 5
2270.0 3 4 4 3 6 7 7 6 5 4
2310.0 5 6 7 7 8 9 12 12 12 14
2350.0 15 15 16 17 17 16 14 15 15 13
2390.0 14 12 11 12 13 14 15 14 11 12
2430.0 13 10 8 11 10 7 9 8 9 10
2470.0 10 12 15 17 18 18 17 14 13 12
2510.0 13 12 13 18 18 19 21 20 19 18
2550.0 18 17 22 27 27 29 33 37 42 45
2590.0 46 48 52 54 56 57 58 62 63 63
2630.0 66 69 74 82 90 97 107 123 133 140
2670.0 137 127 119 111 100 94 93 88 86 85
2710.0 86 83 79 77 76 75 75 72 71 74
2750.0 76 76 75 81 87 94 107 119 134 146
2790.0 165 183 199 213 222 232 249 272 303 347
2830.0 408 495 638 872 1244 1805 2557 3302 3660 3437
2870.0 2786 2095 1628 1378 1284 1303 1413 1606 1886 2263
2910.0 2756 3427 4369 5692 7355 9002 10000 9728 8136 5872
2950.0 3791 2381 1569 1091 794 602 469 376 310 260
2990.0 221 188 160 136 119 107 92 81 72 65
3030.0 59 53 49 44 41 41 40 38 33 29
3070.0 29 30 31 32 26 24 27 26 24 21
3110.0 20 18 17 17 18 19 22 23 23 26
3150.0 27 28 26 23 21 18 17 15 12 12
3190.0 12 10 10 8 9 13 14 12 9 10
3230.0 10 11 13 10 10 12 11 8 6 5
3270.0 4 5 7 7 4 5 7 8 10 10
3310.0 7 7 7 7 7 8 13 13 12 11
3350.0 11 12 12 13 17 18 16 16 19 19
3390.0 18 17 17 17 16 18 19 17 16 21
3430.0 22 22 24 24 20 19 21 19 17 16
3470.0 16 14 11 5 4 10 15 16 17 18
3510.0 17 12 10 14 15 14 14 15 15 14
3550.0 18 15 11 14 15 14 12 11 10 7
3590.0 8 11 11 13 15 23 28 28 33 43
3630.0 57 69 78 87 101 120 144 166 174 168
3670.0 152 125 91 64 47 36 30 27 26 23
3710.0 21 23 24 23 24 25 20 19 23 24
3750.0 23 23 23 19 15 20 24 24 25 25
3790.0 25 25 28 28 24 22 27 32 32 28
3830.0 29 31 30 28 30
##END=
