##TITLE=Methoxymethyl diphenyl phosphine oxide
##JCAMP-DX=4.24
##DATA TYPE=INFRARED SPECTRUM
##ORIGIN=EPA-IR VAPOR PHASE LIBRARY
##OWNER=SRD/NIST
Collection (C) 2018 copyright by the U.S. Secretary of Commerce
on behalf of the United States of America. All rights reserved.
##CAS REGISTRY NO=4455-77-0
##MOLFORM=C 14 H 15 O 2 P
##$NIST SOURCE=MSDC-IR
##STATE=gas
##XUNITS=1/CM
##YUNITS=ABSORBANCE
##XFACTOR=1.
##YFACTOR=0.001
##DELTAX=1.929
##FIRSTX=549.8
##LASTX=4000.8
##FIRSTY=34.343
##MAXX=4000.75
##MINX=549.766
##MAXY=0.069473
##MINY=0
##NPOINTS=1790
##XYDATA=(X++(Y..Y))
549.766 34.343 30.203 25.003 19.263 14.273 10.583 8.103 6.193 4.933 4.363
569.056 3.723 3.103 2.653 2.533 2.363 2.113 1.883 1.563 1.503 1.403
588.346 1.293 1.263 1.1715 1.1787 1.213 1.134 1.1297 0.8924 0.79 0.8268
607.636 0.8559 0.9584 1.0231 1.0137 0.9138 1.0233 1.0501 0.931 0.8498 0.8027
626.926 0.8662 0.9821 0.8958 0.8995 0.9818 1.0971 1.233 1.233 1.223 1.263
646.216 1.343 1.553 1.693 1.893 2.323 2.513 2.793 3.313 3.883 4.523
665.506 5.343 6.223 6.953 7.693 8.653 9.673 10.643 11.763 13.243 15.293
684.796 18.163 21.513 24.883 28.043 30.613 32.333 33.013 32.803 32.323 32.353
704.086 33.183 34.653 36.193 37.093 37.113 36.023 33.993 31.743 29.663 28.123
723.376 27.193 26.863 26.693 26.273 25.773 25.213 24.863 24.653 24.543 24.253
742.666 23.493 22.353 20.593 18.313 15.853 13.623 11.753 10.083 8.833 7.973
761.956 7.433 7.243 7.173 7.183 7.323 7.513 7.843 8.193 8.513 8.803
781.246 8.923 8.853 8.673 8.393 7.963 7.303 6.493 5.863 5.323 4.753
800.536 4.243 3.833 3.563 3.313 3.113 2.943 2.853 2.953 2.973 2.763
819.826 2.663 2.733 2.783 2.813 2.913 3.013 3.163 3.443 3.793 4.343
839.116 5.113 5.993 7.193 8.723 10.593 12.633 14.553 16.183 17.543 18.503
858.406 18.893 18.923 18.583 17.903 16.823 15.333 13.573 11.683 9.723 7.903
877.696 6.473 5.313 4.413 3.773 3.263 2.933 2.723 2.533 2.393 2.373
896.986 2.323 2.253 2.333 2.373 2.463 2.683 2.923 3.113 3.313 3.633
916.276 3.823 3.903 4.053 4.163 4.123 4.083 4.053 4.093 4.213 4.333
935.566 4.473 4.743 5.063 5.223 5.263 5.323 5.293 5.113 4.933 4.783
954.856 4.553 4.163 3.813 3.503 3.183 2.993 2.763 2.493 2.353 2.283
974.146 2.123 2.023 2.073 2.023 1.953 1.963 2.013 2.173 2.353 2.613
993.436 2.923 3.173 3.313 3.293 3.103 2.833 2.533 2.213 2.093 2.073
1012.726 2.033 2.073 2.273 2.513 2.823 3.353 3.953 4.283 4.463 4.423
1032.016 4.093 3.693 3.143 2.653 2.393 2.363 2.493 2.683 2.873 3.093
1051.306 3.363 3.693 4.023 4.443 4.973 5.403 5.803 6.233 6.623 7.033
1070.596 7.453 7.863 8.503 9.353 10.383 11.643 13.263 15.423 18.003 21.173
1089.886 24.963 29.223 33.843 38.643 43.093 46.763 49.703 52.033 53.953 56.033
1109.176 58.743 62.083 65.623 68.393 69.473 68.333 64.653 58.673 51.193 43.253
1128.467 35.823 29.553 24.613 20.853 17.903 15.513 13.693 12.193 10.973 10.073
1147.757 9.353 8.833 8.543 8.283 8.073 8.013 8.053 8.093 8.253 8.553
1167.047 8.933 9.603 10.613 11.823 13.363 15.343 17.453 19.363 20.943 22.053
1186.337 22.293 21.983 21.213 19.983 19.213 19.033 19.563 20.913 22.913 25.963
1205.627 29.983 34.613 39.713 44.913 49.623 53.313 55.443 55.603 53.593 49.713
1224.917 44.403 38.653 33.193 28.203 24.233 21.133 18.613 16.603 14.773 13.263
1244.207 12.093 10.993 10.103 9.433 8.893 8.523 8.233 7.993 7.833 7.723
1263.497 7.623 7.543 7.483 7.363 7.203 6.943 6.583 6.143 5.683 5.323
1282.787 5.043 4.753 4.563 4.523 4.533 4.623 4.733 4.893 5.123 5.313
1302.077 5.533 5.703 5.873 6.053 6.173 6.173 6.033 5.763 5.433 5.033
1321.367 4.553 4.093 3.673 3.353 3.143 2.913 2.703 2.553 2.413 2.303
1340.657 2.133 1.953 1.843 1.713 1.673 1.673 1.683 1.693 1.723 1.803
1359.947 1.823 1.873 1.953 1.993 2.033 2.083 2.123 2.153 2.183 2.153
1379.237 2.113 2.123 2.103 2.093 2.073 2.023 2.043 2.083 2.163 2.253
1398.527 2.353 2.503 2.683 2.903 3.223 3.633 4.123 4.643 5.253 6.003
1417.817 6.753 7.503 8.373 9.333 10.383 11.593 12.983 14.413 15.693 16.663
1437.107 17.243 17.213 16.223 14.593 12.913 11.303 9.853 8.643 7.703 6.983
1456.397 6.423 5.923 5.563 5.333 5.133 4.993 4.843 4.753 4.673 4.613
1475.687 4.663 4.773 4.913 5.033 5.033 4.913 4.713 4.303 3.733 3.153
1494.977 2.643 2.263 2.033 1.803 1.573 1.493 1.493 1.423 1.353 1.283
1514.267 1.223 1.203 1.1547 1.1292 1.1431 1.213 1.233 1.203 1.213 1.203
1533.557 1.2026 1.263 1.253 1.1954 1.1976 1.203 1.1902 1.1733 1.1951 1.213
1552.847 1.1927 1.1151 1.1896 1.293 1.253 1.233 1.303 1.363 1.393 1.503
1572.137 1.593 1.653 1.743 1.813 1.923 2.033 2.183 2.353 2.493 2.523
1591.427 2.493 2.413 2.213 1.983 1.783 1.573 1.383 1.333 1.283 1.243
1610.717 1.243 1.2019 1.1488 1.1094 1.0658 1.0105 0.9571 0.8994 0.8606 0.8245
1630.007 0.8013 0.7832 0.7358 0.7354 0.7686 0.8296 0.8858 0.946 1.0031 1.0604
1649.297 1.1144 1.1178 1.1833 1.293 1.393 1.463 1.473 1.463 1.433 1.383
1668.587 1.273 1.213 1.1414 1.0554 0.9967 0.9712 0.8991 0.8473 0.8192 0.715
1687.877 0.6823 0.6615 0.6113 0.5958 0.5795 0.4996 0.4926 0.55 0.5381 0.5274
1707.167 0.5171 0.5105 0.5435 0.5498 0.55 0.5607 0.5807 0.5408 0.4804 0.5002
1726.457 0.5126 0.5464 0.5801 0.5757 0.5683 0.5486 0.5738 0.6085 0.6529 0.6919
1745.747 0.6792 0.6821 0.7217 0.7965 0.8211 0.8389 0.8949 0.9386 0.9554 0.9899
1765.037 1.0443 1.0731 1.0904 1.1088 1.1444 1.1441 1.1657 1.1746 1.0998 1.024
1784.327 0.9877 0.9651 0.9791 1.0325 1.0741 1.1643 1.333 1.443 1.533 1.763
1803.617 2.003 2.193 2.373 2.503 2.563 2.563 2.493 2.353 2.183 2.023
1822.907 1.833 1.703 1.573 1.433 1.353 1.323 1.233 1.1111 1.032 0.9613
1842.197 0.9077 0.8604 0.8008 0.7642 0.7578 0.7189 0.6804 0.6631 0.6924 0.7727
1861.487 0.8002 0.8115 0.8459 0.8733 0.9175 0.9417 0.9862 1.1112 1.223 1.303
1880.777 1.373 1.483 1.583 1.693 1.813 1.883 1.963 2.053 2.113 2.133
1900.067 2.143 2.083 1.953 1.843 1.753 1.603 1.393 1.253 1.1637 1.0419
1919.357 0.977 0.9319 0.8747 0.8508 0.8434 0.8495 0.85 0.8684 0.8811 0.8876
1938.647 0.9893 1.095 1.2012 1.333 1.463 1.613 1.783 1.923 2.043 2.133
1957.937 2.183 2.233 2.253 2.263 2.223 2.133 2.033 1.923 1.753 1.543
1977.227 1.363 1.223 1.0729 0.9742 0.9393 0.8658 0.8349 0.8583 0.8581 0.8454
1996.517 0.82 0.887 0.9598 0.951 0.9771 1.0279 1.0738 1.0918 1.1171 1.1475
2015.807 1.1095 1.0801 1.0918 1.0923 1.1103 1.1042 1.1136 1.1167 1.0551 1.0287
2035.097 1.0512 1.0604 1.0551 1.0692 1.0572 1.0444 1.0644 1.0811 1.0395 1.003
2054.387 1.0002 1.0249 1.0198 0.9866 0.9987 0.9877 0.9713 0.9392 0.9049 0.8719
2073.677 0.8621 0.8444 0.7612 0.738 0.7563 0.7409 0.7001 0.6931 0.6891 0.6765
2092.967 0.6885 0.6966 0.7109 0.6683 0.6384 0.6698 0.6518 0.611 0.6233 0.6314
2112.257 0.5989 0.5726 0.559 0.5758 0.6019 0.552 0.5116 0.5466 0.5712 0.5467
2131.547 0.5515 0.5832 0.5481 0.5208 0.5208 0.5172 0.5124 0.4763 0.4983 0.5034
2150.837 0.4725 0.4864 0.4626 0.4384 0.4589 0.4638 0.4328 0.4147 0.4446 0.4372
2170.127 0.4093 0.3986 0.3508 0.3683 0.3982 0.3731 0.3435 0.3603 0.4103 0.3906
2189.417 0.3731 0.3998 0.3851 0.3927 0.4702 0.4913 0.4657 0.5074 0.5529 0.5568
2208.707 0.5653 0.5908 0.631 0.6514 0.6339 0.6459 0.694 0.719 0.7013 0.603
2227.997 0.563 0.6065 0.5791 0.5045 0.4919 0.5069 0.5293 0.5149 0.4751 0.4539
2247.287 0.4153 0.4046 0.3949 0.4183 0.4365 0.4041 0.3924 0.3582 0.3556 0.4333
2266.577 0.4399 0.4248 0.4485 0.4768 0.4839 0.4832 0.4871 0.4978 0.4936 0.4297
2285.868 0.4357 0.4838 0.4996 0.4976 0.4839 0.4668 0.4733 0.531 0.5554 0.5241
2305.158 0.5417 0.5434 0.5677 0.6994 0.7885 0.8568 0.9144 0.8881 0.8469 0.8115
2324.448 0.7239 0.6253 0.5763 0.5542 0.603 0.6215 0.5647 0.5573 0.6146 0.6392
2343.738 0.6222 0.6408 0.5842 0.5512 0.5553 0.5559 0.5527 0.5352 0.5744 0.5714
2363.028 0.5158 0.486 0.4946 0.5306 0.5366 0.543 0.5179 0.5297 0.5395 0.4671
2382.318 0.4477 0.4392 0.4086 0.4052 0.4343 0.4604 0.4795 0.4745 0.4595 0.5064
2401.608 0.5636 0.5527 0.5271 0.5314 0.5475 0.5635 0.5644 0.5256 0.4871 0.4711
2420.898 0.4857 0.5319 0.5146 0.5022 0.5226 0.4923 0.4815 0.4496 0.4451 0.5163
2440.188 0.5147 0.443 0.3742 0.3684 0.3725 0.3448 0.3331 0.3123 0.311 0.3219
2459.478 0.3057 0.29758 0.3381 0.29378 0.28509 0.3425 0.3263 0.30262 0.3092 0.3265
2478.768 0.3288 0.357 0.3536 0.3423 0.28831 0.28953 0.337 0.319 0.28792 0.29809
2498.058 0.29424 0.24257 0.27251 0.3412 0.3634 0.3577 0.3527 0.3058 0.27945 0.3342
2517.348 0.3441 0.3263 0.3783 0.3956 0.3364 0.3382 0.3326 0.29664 0.334 0.3688
2536.638 0.3932 0.3886 0.3542 0.3552 0.3604 0.3512 0.3536 0.3268 0.325 0.3634
2555.928 0.3612 0.3787 0.3761 0.4295 0.5044 0.5283 0.504 0.4559 0.4849 0.5243
2575.218 0.5432 0.5732 0.5826 0.5376 0.5977 0.6475 0.705 0.7191 0.6787 0.6636
2594.508 0.6257 0.6607 0.6214 0.5963 0.6335 0.6519 0.6081 0.6073 0.6002 0.528
2613.798 0.5481 0.579 0.6068 0.6208 0.6067 0.5475 0.4673 0.4846 0.5261 0.5338
2633.088 0.5171 0.4536 0.4511 0.4663 0.4229 0.376 0.4036 0.4095 0.4153 0.4768
2652.378 0.4274 0.4048 0.417 0.4437 0.5013 0.5072 0.4795 0.4129 0.4347 0.491
2671.668 0.4947 0.5038 0.5431 0.5513 0.5789 0.6511 0.6763 0.6818 0.7271 0.7388
2690.958 0.6859 0.6993 0.7297 0.7844 0.7983 0.7908 0.8693 0.8385 0.7649 0.7088
2710.248 0.6869 0.7039 0.6407 0.6018 0.6257 0.6208 0.5988 0.5599 0.5303 0.5593
2729.538 0.593 0.5829 0.6308 0.7072 0.6731 0.6293 0.6729 0.7088 0.6806 0.6871
2748.828 0.7694 0.865 0.8597 0.8103 0.8643 0.8933 0.8938 0.9334 0.9659 0.9943
2768.118 1.0236 1.0832 1.1322 1.1485 1.1835 1.303 1.413 1.453 1.493 1.603
2787.408 1.683 1.783 2.023 2.203 2.323 2.523 2.763 3.013 3.283 3.593
2806.698 3.983 4.413 4.863 5.403 6.023 6.913 8.073 9.383 10.813 12.293
2825.988 13.623 14.503 14.873 14.653 13.813 12.583 11.113 9.643 8.453 7.483
2845.278 6.703 6.253 6.043 6.053 6.213 6.543 6.943 7.203 7.573 8.073
2864.568 8.513 8.943 9.333 9.653 9.913 10.133 10.273 10.403 10.533 10.653
2883.858 10.703 10.763 10.893 10.983 10.913 10.783 10.693 10.463 10.213 10.113
2903.148 10.143 10.233 10.343 10.463 10.583 10.623 10.593 10.593 10.623 10.803
2922.438 11.183 11.553 12.053 12.843 13.663 14.353 14.943 15.123 14.943 14.363
2941.728 13.353 12.133 10.833 9.593 8.523 7.713 7.053 6.583 6.363 6.153
2961.018 6.013 5.883 5.653 5.543 5.463 5.393 5.293 5.173 5.243 5.393
2980.308 5.583 5.853 6.293 6.853 7.453 8.093 8.753 9.203 9.493 9.523
2999.598 9.273 8.903 8.473 8.013 7.443 7.003 6.743 6.533 6.403 6.333
3018.888 6.293 6.273 6.253 6.293 6.263 6.213 6.093 5.843 5.693 5.603
3038.178 5.593 5.753 6.093 6.553 7.113 7.953 9.123 10.733 12.773 15.313
3057.468 18.373 21.813 25.253 27.943 29.373 29.433 27.993 25.513 22.653 19.713
3076.758 17.433 16.083 15.283 14.673 13.933 13.023 11.963 10.813 9.683 8.563
3096.048 7.523 6.683 5.823 4.883 4.263 3.753 3.223 2.753 2.413 2.163
3115.338 1.923 1.813 1.753 1.643 1.533 1.583 1.603 1.543 1.553 1.563
3134.628 1.563 1.643 1.683 1.693 1.733 1.783 1.803 1.783 1.763 1.653
3153.918 1.533 1.363 1.1427 1.0477 0.9415 0.7436 0.605 0.6532 0.6384 0.5654
3173.208 0.6056 0.5836 0.5695 0.4613 0.3484 0.3888 0.383 0.4045 0.3643 0.3808
3192.498 0.4469 0.4063 0.3609 0.3737 0.4004 0.3387 0.30072 0.29754 0.3238 0.3594
3211.788 0.3435 0.4095 0.3918 0.25636 0.26014 0.26146 0.26813 0.3066 0.3511 0.4042
3231.078 0.3959 0.3546 0.3311 0.3102 0.29019 0.23961 0.1418 0.1171 0.1849 0.208931
3250.368 0.26934 0.30254 0.24101 0.1367 0.1586 0.1688 0.1198 0.2346 0.19456 0.1277
3269.658 0.1819 0.25294 0.3578 0.3057 0.27859 0.29541 0.24134 0.1718 0.05 0.012
3288.948 0.094 0.1507 0.1503 0.19902 0.1579 0.1269 0.1656 0.22912 0.1981 0.1451
3308.238 0.2804 0.19816 0.052 0.1139 0.21807 0.1312 0.002 0.024 0.1329 0.1582
3327.528 0.1408 0.1434 0.1301 0.1919 0.209924 0.1085 0.1393 0.27587 0.22797 0.19452
3346.818 0.1633 0.1742 0.1377 0.1051 0.1131 0.102 0.08 0.024 0.09 0.1478
3366.108 0.047 0.015 0.1119 0.1214 0.1861 0.207957 0.1683 0.1716 0.1045 0.072
3385.398 0.1273 0.1856 0.1675 0.1287 0.1063 0.043 0.017 0.069 0.099 0.057
3404.688 0.088 0.1735 0.1603 0.1328 0.1858 0.2593 0.27649 0.29296 0.145 0.1057
3423.978 0.1879 0.21364 0.1766 0.1278 0.1475 0.1452 0.1234 0.1051 0.19785 0.1584
3443.269 0.1127 0.22008 0.3081 0.29559 0.21825 0.1769 0.1774 0.102 0.015 0
3462.559 0.026 0.097 0.1465 0.042 0.034 0.1108 0.036 0.056 0.1469 0.3056
3481.849 0.3565 0.26069 0.1793 0.099 0.033 0.07 0.067 0.011 0.1326 0.2218
3501.139 0.1752 0.1852 0.1688 0.1544 0.1628 0.20177 0.2423 0.082 0.023 0.094
3520.429 0.094 0.033 0.046 0.1218 0.1392 0.12 0.1447 0.088 0.011 0.072
3539.719 0.059 0.081 0.1778 0.103 0.092 0.2434 0.28624 0.3085 0.2731 0.1834
3559.009 0.1649 0.1847 0.24667 0.25667 0.27823 0.21532 0.1929 0.24825 0.2616 0.22425
3578.299 0.28171 0.3763 0.3116 0.314 0.329 0.21438 0.1597 0.1703 0.1818 0.1649
3597.589 0.23171 0.26933 0.1787 0.095 0.1285 0.27457 0.25367 0.27654 0.3073 0.24982
3616.879 0.22033 0.1622 0.2421 0.28057 0.19595 0.1551 0.1389 0.20086 0.2394 0.2474
3636.169 0.3755 0.3622 0.22377 0.21633 0.1504 0.1182 0.084 0.042 0.1357 0.29799
3655.459 0.3379 0.24003 0.1751 0.24773 0.3359 0.3345 0.24071 0.1304 0.1775 0.21611
3674.749 0.1316 0.1325 0.2319 0.26492 0.26598 0.1912 0.24612 0.4034 0.397 0.3926
3694.039 0.3141 0.3094 0.4307 0.4801 0.4755 0.4287 0.3477 0.3589 0.4173 0.4373
3713.329 0.4591 0.4442 0.3664 0.27468 0.24589 0.209406 0.23855 0.3532 0.4617 0.4137
3732.619 0.1575 0.19701 0.4858 0.5401 0.4052 0.25605 0.24071 0.346 0.3385 0.3881
3751.909 0.4159 0.4251 0.474 0.3686 0.3096 0.3623 0.3846 0.3525 0.3201 0.2929
3771.199 0.3329 0.3359 0.3195 0.3208 0.25589 0.2789 0.3919 0.4063 0.23699 0.1598
3790.489 0.26128 0.1879 0.25361 0.3455 0.3049 0.3743 0.358 0.3537 0.3735 0.3136
3809.779 0.3142 0.343 0.23302 0.1361 0.1464 0.1789 0.1691 0.23804 0.336 0.23712
3829.069 0.21648 0.3103 0.212954 0.1487 0.24053 0.2652 0.1688 0.1775 0.28945 0.3375
3848.359 0.3857 0.4224 0.4152 0.3164 0.203955 0.148 0.1519 0.1444 0.1189 0.1694
3867.649 0.22073 0.093 0.099 0.205395 0.1859 0.25862 0.27531 0.1844 0.1482 0.082
3886.939 0.101 0.25231 0.3088 0.27235 0.211237 0.1878 0.3507 0.4128 0.25968 0.24105
3906.229 0.1902 0.1202 0.1622 0.19864 0.2522 0.3246 0.2281 0.1612 0.25073 0.3783
3925.519 0.3632 0.3222 0.5015 0.5003 0.3575 0.4027 0.4191 0.3963 0.3479 0.29575
3944.809 0.27456 0.204153 0.24418 0.27462 0.3362 0.29866 0.1857 0.3074 0.3726 0.3318
3964.099 0.3402 0.3565 0.373 0.3988 0.4059 0.4731 0.4595 0.3175 0.3451 0.3728
3983.389 0.3241 0.3463 0.3478 0.3069 0.3742 0.5245 0.5771 0.5259 0.4691 0.4291
##END=
