##TITLE=2,4,5-Trifluorobenzoic acid
##JCAMP-DX=4.24
##DATA TYPE=INFRARED SPECTRUM
##ORIGIN=EPA-IR VAPOR PHASE LIBRARY
##OWNER=SRD/NIST
Collection (C) 2018 copyright by the U.S. Secretary of Commerce
on behalf of the United States of America. All rights reserved.
##CAS REGISTRY NO=446-17-3
##MOLFORM=C 7 H 3 F 3 O 2
##$NIST SOURCE=MSDC-IR
##STATE=gas
##XUNITS=1/CM
##YUNITS=ABSORBANCE
##XFACTOR=1.
##YFACTOR=0.001
##DELTAX=1.92898
##FIRSTX=549.8
##LASTX=4000.7
##FIRSTY=12.91
##MAXX=4000.7
##MINX=549.759
##MAXY=0.10685
##MINY=0
##NPOINTS=1790
##XYDATA=(X++(Y..Y))
549.759 12.91 14.65 15.41 16.4 17.59 18.33 18.72 19.52 20.74 22.04
569.049 23.64 23.9 23.49 22.18 20.96 20.92 21.78 22.8 22.35 22.32
588.339 23.19 22.78 21.96 21.52 20.96 19.29 17.64 15.75 13.66 12.4
607.628 11.22 10.84 10.74 10.22 9.34 9.08 9.13 8.71 8.31 8.2
626.918 8.13 7.4 6.88 7.41 8.15 8.15 8.74 10.17 11.02 11.66
646.208 12.16 12.84 12.59 11.55 11.96 11.89 10.24 8.97 8.22 7.23
665.498 6.35 6.28 6.07 5.4 5.5 5.83 5.67 6.1 7.23 8.32
684.787 9.44 10.89 12.12 13.18 15 17.75 19.77 21.17 22.38 22.56
704.077 22.69 22.4 21.11 19.12 16.92 14.11 11.27 9.6 8.46 7.1
723.367 5.61 5.09 5.33 5.32 5.9 7.18 7.73 7.95 8.48 9.12
742.657 9.4 9.43 9.1 7.68 5.9 4.39 3.88 4.05 4.57 4.99
761.947 4.55 5.19 6.48 6.95 7.34 8.34 9.43 10.47 12.17 13.38
781.236 12.75 11.27 10.28 9.53 8.55 7.69 7 6.79 6.62 6.66
800.526 7.03 7.61 8.2 8.58 9.43 10.26 11.1 11.86 13.07 13.74
819.816 14.38 16.16 17.79 18.49 20.19 22.43 24.1 25.81 27.33 28.59
839.106 29.53 30.55 31.16 30.07 28.95 28.69 28.88 28.89 26.39 22.23
858.395 18.81 17.05 15.33 13.8 12.08 10.03 9.15 8.45 7.6 7.1
877.685 7.18 7.87 8.16 8.59 9.63 10.42 11.7 13.24 14.4 14.99
896.975 14.89 14.39 13.36 12.98 12.24 10.69 9.66 8.56 7.3 6.29
916.265 5.28 4.3 3.85 3.66 3.28 2.76 2.51 2.2183 2.4141 2.77
935.555 2.78 2.69 2.4947 2.53 2.62 2.63 2.4194 2.4947 2.4972 2.3527
954.844 2.2581 2.0508 1.6838 1.631 1.9126 1.8885 2.0509 2.3989 2.62 2.6
974.134 2.5 2.56 2.2486 2.0571 2.0722 2.0423 2.78 2.67 1.8839 2.0255
993.424 1.6416 1.56362 2.1191 2.018 2.4033 2.96 2.81 2.92 3.51 3.63
1012.714 3.79 3.99 3.99 4.89 5.42 5.49 5.65 6.46 7.52 8.15
1032.003 9.31 9.77 10.73 12.56 12.71 12.53 13.51 13.77 12.69 12.68
1051.293 12.48 11.61 10.89 10.39 10.18 9.41 9.14 8.85 8.09 7.44
1070.583 7.72 8.3 7.85 7.23 7 6.47 6.48 5.89 6.33 8.39
1089.873 7.92 7.2 7.49 7.47 8.09 9.39 10.03 10.28 10.97 10.97
1109.163 10.57 12.27 14.52 15.11 16.6 19.71 23.53 27.05 32.14 38.14
1128.452 44.76 52.63 58.65 65.25 71.79 78.11 84.95 92.53 99.11 103.41
1147.742 106.4 106.85 106.37 105.5 104.85 100.98 92.41 83.51 75.91 68.07
1167.032 60.36 53.08 46.53 39.88 34.1 31.3 27.78 24.61 24.12 24.47
1186.322 23.89 23.85 24.43 24.77 27.51 30.32 32.23 35.51 39.19 40.94
1205.611 41.97 44.29 46.07 46.9 47.33 45.86 43.35 41 38.8 35.29
1224.901 29.82 24.7 20.1 16.41 13.85 11.17 9.67 9.5 9.09 8.27
1244.191 8.11 8.12 7.48 7.63 8 7.7 7.39 7.3 7.33 8.08
1263.481 9.44 9.88 10.12 10.87 12.5 14.03 15.87 17.52 18.62 19.75
1282.771 20 20.14 20.17 19.47 18.22 16.99 15.58 14.43 13.81 13.23
1302.060 12.88 12.7 12.56 12.68 12.98 13.31 13.89 14.89 16.1 17.57
1321.350 19.45 21.55 24.18 27.53 31.24 35.09 39.21 43.19 46.27 48.49
1340.640 49.89 50.04 49.17 47.3 44.65 42.14 40.04 38.32 37.49 37.83
1359.930 38.9 40.07 40.7 40.19 38.69 36.44 33.31 29.4 24.99 20.75
1379.219 17.03 14 11.68 9.92 8.61 8.07 7.86 7.5 7.48 7.57
1398.509 7.71 8.11 8.59 9.19 9.82 10.75 11.99 13.59 15.67 17.96
1417.799 20.38 23.3 26.8 30.54 34.74 39.4 44.22 48.83 53.07 56.17
1437.089 58.33 59.29 58.49 56.28 52.59 47.44 40.98 34.23 27.61 21.75
1456.378 16.88 13.19 10.9 9.71 8.99 8.31 8.16 8.2 8.13 8.08
1475.668 8.18 8.28 8.58 9.21 9.97 11.16 13.04 15.69 18.92 22.71
1494.958 27.35 32.88 38.69 44.67 51.25 58.29 66.03 74.12 81.43 88.1
1514.248 93.89 98.09 100.55 100.87 99.25 95.61 89.24 81.05 71.56 61.31
1533.538 51.34 41.97 33.53 26.12 20.03 15.25 11.92 9.84 8.6 7.68
1552.827 7.2 6.97 6.74 7.1 7.27 6.97 6.76 6.68 6.69 6.48
1572.117 6.22 6.29 6.31 6.09 6.25 6.3 6.36 6.74 7.08 7.64
1591.407 8.48 9.73 11.45 13.72 16.07 18.6 21.54 24.85 27.87 30.5
1610.697 33.12 35.25 36.8 38.14 38.61 38.16 37.16 35.61 33.68 31.54
1629.986 29.22 26.72 24 20.71 17.66 15.19 12.73 10.62 9.1 7.9
1649.276 7.12 6.47 6.01 5.59 5.17 4.94 4.63 4.36 4.49 4.44
1668.566 4.3 4.57 4.8 4.94 5.07 5.12 5.01 5.28 5.54 5.28
1687.856 5.31 5.45 5.65 6.04 6.12 6.12 6.4 6.55 6.53 6.8
1707.146 7.11 7.69 8.15 8.37 8.88 9.4 10.05 10.85 11.76 12.81
1726.435 13.89 14.65 15.49 17.2 19.33 22.08 25.79 30.25 35.83 42.74
1745.725 50.49 59.34 68.58 77.35 84.81 90.28 93.51 95.14 96.04 96.71
1765.015 96.54 94.96 93.43 92.29 90.17 87.36 84.81 82.41 78.86 72.98
1784.305 63.93 53.17 43.74 36.27 30.75 26.9 24.24 22.25 20.65 19.09
1803.594 17.57 16.19 14.91 13.77 12.53 11.25 10.15 8.93 7.74 6.84
1822.884 6.19 5.59 4.92 4.51 4.18 3.88 3.69 3.49 3.28 3.04
1842.174 2.97 2.88 2.75 2.72 2.6 2.53 2.55 2.418 2.2968 2.272
1861.464 2.3807 2.4515 2.57 2.61 2.52 2.4752 2.3505 2.4268 2.4313 2.4103
1880.754 2.3143 2.3459 2.4697 2.3036 2.2799 2.1842 2.057 2.0892 2.2004 2.117
1900.043 1.9173 1.9016 1.9306 1.96 1.9147 1.6617 1.4619 1.6362 1.8514 1.8138
1919.333 1.6894 1.6326 1.58154 1.37 1.471 1.7888 1.6865 1.6016 1.6396 1.6911
1938.623 1.8773 1.9104 1.7099 1.7279 1.7731 1.6055 1.58076 1.6039 1.4751 1.4779
1957.913 1.6252 1.635 1.4374 1.4304 1.4612 1.307 1.49952 1.59858 1.4629 1.58802
1977.202 1.6604 1.4675 1.37 1.56607 1.8674 1.8899 1.789 1.7139 1.6651 1.51615
1996.492 1.374 1.368 1.4151 1.51969 1.4728 1.423 1.4379 1.334 1.267 1.4823
2015.782 1.4762 1.38 1.341 1.281 1.395 1.359 1.379 1.4805 1.49591 1.4373
2035.072 1.332 1.234 1.338 1.4091 1.139 1.146 1.36 1.25 1.322 1.393
2054.362 1.211 1.3 1.367 1.332 1.324 1.251 1.4613 1.7069 1.4674 1.331
2073.651 1.53979 1.6437 1.7056 1.51756 1.49248 1.6584 1.51368 1.4038 1.332 1.403
2092.941 1.6953 1.7922 1.59677 1.465 1.397 1.232 1.325 1.4881 1.353 1.25
2112.231 1.357 1.4455 1.348 1.367 1.4892 1.52255 1.51129 1.4216 1.38 1.4087
2131.521 1.369 1.4348 1.50819 1.6083 1.57039 1.4602 1.4428 1.4696 1.50237 1.433
2150.810 1.4026 1.55387 1.58428 1.4591 1.55372 1.4566 1.28 1.363 1.59711 1.56499
2170.100 1.6433 1.6483 1.4513 1.379 1.415 1.4207 1.336 1.375 1.415 1.4582
2189.390 1.4251 1.49574 1.4514 1.355 1.35 1.358 1.301 1.315 1.4273 1.56869
2208.680 1.58508 1.387 1.4588 1.57782 1.50522 1.4238 1.367 1.299 1.305 1.429
2227.970 1.50927 1.4216 1.253 1.249 1.331 1.242 1.271 1.289 1.009 1.055
2247.259 1.345 1.4814 1.6482 1.6642 1.54685 1.4513 1.4292 1.53155 1.6718 1.7978
2266.549 1.6491 1.4601 1.52261 1.6162 1.7063 1.4261 1.24 1.4328 1.341 1.321
2285.839 1.291 1.189 1.292 1.6151 1.6509 1.4571 1.56464 1.374 1.222 1.358
2305.129 1.353 1.50062 1.56386 1.358 1.285 1.4567 1.4617 1.352 1.4454 1.7917
2324.418 1.9561 1.6889 1.6115 1.56835 1.53532 1.6835 1.7686 1.7857 1.8209 1.8613
2343.708 1.8354 1.8887 2.0214 2.1183 2.1669 2.2005 2.0179 2.1452 2.3543 2.0041
2362.998 1.9744 2.1625 2.0221 1.9036 1.7302 1.4603 1.391 1.626 1.9398 1.8577
2382.288 1.58229 1.56318 1.49245 1.308 1.338 1.272 1.17 1.303 1.304 1.232
2401.578 1.5346 1.4835 1.248 1.311 1.346 1.4369 1.455 1.4328 1.4429 1.52817
2420.867 1.697 1.7667 1.52366 1.4018 1.53101 1.4164 1.284 1.53951 1.59452 1.57633
2440.157 1.52202 1.388 1.267 1.134 1.292 1.4744 1.5575 1.57805 1.5871 1.813
2459.447 1.8497 1.51786 1.529 1.482 1.52488 1.8163 1.7079 1.297 1.126 1.51846
2478.737 1.7239 1.4205 1.308 1.3 1.436 1.7264 1.6475 1.577 1.7084 1.6522
2498.026 1.55604 1.344 1.198 1.349 1.345 1.50044 1.4039 1.303 1.344 1.191
2517.316 1.111 1.146 1.194 1.314 1.57308 1.4805 1.382 1.282 1.092 1.252
2536.606 1.4108 1.4689 1.4156 1.395 1.4535 1.58043 1.7675 1.623 1.57463 1.7216
2555.896 1.7756 1.6636 1.356 1.298 1.5056 1.602 1.256 1.157 1.51791 1.6966
2575.186 1.7881 1.4424 1.6689 1.96 1.851 1.859 1.6117 1.195 0.949 1.182
2594.475 1.31 1.319 1.272 1.165 1.297 1.50976 1.56992 1.4575 1.4854 1.4673
2613.765 1.328 1.311 1.51363 1.49291 1.4772 1.6242 1.57684 1.4607 1.4051 1.356
2633.055 1.381 1.5689 1.6221 1.7774 1.8146 1.51584 1.321 1.207 1.143 1.4083
2652.345 1.8137 1.5686 1.49292 1.7238 1.57466 1.6718 1.57911 1.198 1.359 1.383
2671.634 1.154 1.11 0.99 1.008 1.084 1.237 1.285 1.242 1.047 1.037
2690.924 1.331 1.195 0.96 1.102 1.096 0.994 1.081 1.107 0.863 0.824
2710.214 1.065 0.875 0.512 0.788 1.271 1.105 1.064 1.19 1.05 1.162
2729.504 1.258 1.326 1.329 1.144 0.938 0.891 1.108 1.284 1.263 1.292
2748.794 1.281 1.027 0.824 0.583 0.692 1.002 1.06 1.189 1.37 1.50802
2768.083 1.4523 1.275 1.302 1.4517 1.386 1.128 1.045 1.218 1.049 0.964
2787.373 1.295 1.372 1.092 0.899 1.249 1.172 1.038 1.323 1.112 1.029
2806.663 1.106 1.183 1.258 1.108 1.234 1.043 0.79 1.025 1.167 1.36
2825.953 1.4076 1.344 1.201 1.187 1.55505 1.53123 1.375 1.123 1.23 1.311
2845.242 1.039 1.258 1.323 1.376 1.08 1.094 1.17 0.886 1.056 1.203
2864.532 1.24 1.195 1.092 0.823 0.8 1.035 1.249 1.156 1.115 1.021
2883.822 1.136 1.212 0.912 0.994 1.15 1.057 1.158 1.54198 1.274 1.207
2903.112 1.29 0.915 0.714 0.869 1.104 0.914 0.931 1.388 1.386 0.969
2922.401 0.989 1.204 0.992 0.879 1.216 1.51595 1.131 0.913 1.288 1.333
2941.691 1.196 1.272 1.186 1.075 0.908 0.923 1.115 1.102 1.245 1.149
2960.981 1.094 1.131 1.246 1.4371 1.311 0.962 0.929 1.178 0.75 0.44
2980.271 0.717 0.853 1.041 1.385 1.4706 1.088 0.87 1.022 1.044 0.947
2999.561 0.752 0.716 0.847 0.913 1.364 1.6368 1.299 1.174 1.318 1.327
3018.850 1.387 1.325 1.4932 1.4793 1.098 1.158 1.353 1.59619 1.273 0.946
3038.140 1.348 1.4599 1.51939 1.7533 1.8337 1.7352 1.397 1.4492 1.6363 1.4425
3057.430 1.244 1.065 1.29 1.52562 1.4724 1.687 2.4059 2.93 3.04 3.54
3076.720 3.9 4.09 3.96 3.9 4.06 3.68 3.54 3.75 3.51 2.96
3096.009 2.4578 2.3265 1.9301 1.4362 1.51511 1.128 1.175 1.622 1.55893 1.309
3115.299 1.115 1.037 1.189 1.323 1.155 1.014 1.157 1.6984 1.7987 1.382
3134.589 1.176 1.173 1.133 0.893 0.964 1.076 1.39 1.7142 1.50981 1.4639
3153.879 1.027 0.623 0.64 0.832 1.075 1.059 1.011 1.278 1.118 1.164
3173.169 1.38 1.287 1.4 1.188 0.962 0.85 0.891 1.22 1.50019 1.6012
3192.458 1.6057 1.356 1.311 1.4439 1.337 1.229 1.23 0.844 0.552 0.997
3211.748 1.161 1.221 1.137 1.033 1.24 1.1 1.02 1.263 1.59251 1.304
3231.038 0.652 0.695 0.896 1.01 1.56758 1.7391 1.346 1.053 1.069 1.332
3250.328 1.188 1.032 1.127 0.952 0.529 0 0.29 0.848 0.915 1.009
3269.617 0.45 0.34 0.89 1.072 0.955 0.765 0.816 0.688 0.731 1.089
3288.907 1.035 0.668 0.48 0.624 0.982 0.917 0.59 0.82 1.075 0.95
3308.197 0.891 0.938 1.039 0.96 1.4269 1.083 0.21 0.573 0.582 0.46
3327.487 0.883 1.213 1.005 0.562 0.628 0.592 0.671 0.867 0.533 0.46
3346.777 0.581 0.666 0.752 0.65 1.15 1.4488 1.217 1.399 1.287 1.033
3366.066 0.95 1.351 1.347 0.577 0.624 0.636 0.38 0.596 1.114 1.348
3385.356 0.984 0.679 1.008 1.4792 1.4801 1.07 0.896 0.933 0.756 0.853
3404.646 0.869 1.033 1.51282 1.57247 1.49952 1.7187 1.382 1.107 1.186 1.4839
3423.936 1.52739 1.6742 1.6797 1.208 1.49426 1.6475 1.183 1.047 1.273 1.155
3443.225 0.802 0.802 1.277 0.991 0.757 1.195 1.158 0.934 1.055 1.348
3462.515 1.119 0.927 1.384 1.352 0.721 0.887 1.342 1.6761 1.6091 1.4455
3481.805 1.475 1.169 1.396 1.7398 1.936 1.9307 1.7894 2.0061 2.2275 2.2687
3501.095 2.1054 1.8875 1.4331 1.269 1.7538 1.7017 1.50033 1.6335 1.52564 1.38
3520.385 1.56844 1.8117 2.2053 2.2696 1.8275 1.7691 2.3015 2.58 2.58 2.93
3539.674 3.44 3.21 2.93 3.37 3.22 2.84 3.36 3.93 4.82 6.57
3558.964 9.03 13.08 18.46 24.85 32.25 39.47 44.4 47.42 49.45 50.03
3578.254 48.76 44.92 38.25 30.69 24.49 19.82 15.94 12.83 9.76 7.6
3597.544 6.77 5.83 5.05 4.71 4.52 4.53 4.87 4.79 4.48 4.28
3616.833 4.32 4.22 3.63 3.1 2.3706 2.1533 2.2155 1.9125 1.6105 1.4865
3636.123 1.8417 2.0531 1.5309 1.344 1.243 1.19 1.345 1.144 1.092 0.996
3655.413 1.285 1.275 1.388 1.709 1.256 1.323 1.7642 1.394 1.299 1.52947
3674.703 1.272 1.6736 1.7479 1.07 0.823 1.047 1.49524 1.7157 1.58652 1.059
3693.993 0.837 1.074 1.299 1.4791 1.078 0.993 1.349 1.283 1.191 0.625
3713.282 0.23 0.718 0.981 1.011 1.009 0.877 1.003 0.879 0.951 1.232
3732.572 0.925 0.893 1.298 1.259 1.036 1.088 1.55455 1.5406 1.4379 1.4785
3751.862 1.113 1.121 1.148 1.236 0.921 1.002 1.188 0.944 1.012 1.104
3771.152 0.996 0.9 1.171 0.908 0.765 0.924 0.875 0.619 0.63 0.846
3790.441 0.6 0.911 1.385 1.181 0.655 1.066 1.7648 1.6977 1.49 1.283
3809.731 0.968 0.653 0.867 0.838 0.86 1.39 1.31 1.313 1.52114 1.4814
3829.021 1.109 0.953 1.50854 1.49717 0.948 0.789 1.219 1.072 0.846 0.994
3848.311 0.641 1.188 1.9697 1.4355 0.604 0.709 0.776 0.46 0.773 1.245
3867.601 1.317 0.977 0.715 0.37 0.811 1.4803 1.4516 1.194 0.77 0.746
3886.890 0.695 0.746 0.889 0.47 0.23 0.5 1.169 1.064 0.681 0.732
3906.180 0.63 1.21 1.6986 1.4798 1.223 1.117 1.17 0.923 0.6 0.634
3925.470 0.89 1.001 0.931 0.829 0.66 0.761 1.077 1.01 0.917 1
3944.760 1.076 1.013 1.043 1.243 1.4059 1.365 1.044 1.107 1.072 0.791
3964.049 1.278 1.7547 1.5616 1.399 1.377 1.52202 1.361 0.665 0.612 1.029
3983.339 1.131 1.49875 1.7582 1.58383 0.812 0.576 0.837 0.933 1.52046 1.57316
##END=
