##TITLE=2-Fluorobenzyl bromide
##JCAMP-DX=4.24
##DATA TYPE=INFRARED SPECTRUM
##ORIGIN=EPA-IR VAPOR PHASE LIBRARY
##OWNER=SRD/NIST
Collection (C) 2018 copyright by the U.S. Secretary of Commerce
on behalf of the United States of America. All rights reserved.
##CAS REGISTRY NO=446-48-0
##MOLFORM=C 7 H 6 Br F
##$NIST SOURCE=MSDC-IR
##STATE=gas
##XUNITS=1/CM
##YUNITS=ABSORBANCE
##XFACTOR=1.
##YFACTOR=0.001
##DELTAX=1.92934
##FIRSTX=549.9
##LASTX=3999.5
##FIRSTY=12.67
##MAXX=3999.53
##MINX=549.863
##MAXY=0.27478
##MINY=0
##NPOINTS=1789
##XYDATA=(X++(Y..Y))
549.863 12.67 12.32 12.34 12.24 12.1 12.12 12.11 12.21 12.26 12.56
569.156 13.34 14.33 15.83 17.86 19.83 21.38 22.16 22.89 23.67 24.22
588.450 24.6 23.88 21.96 20.23 19.79 20.58 22.71 26.25 30.78 36.39
607.743 43.26 50.86 58.51 65.84 72.16 76.74 79.36 80.23 79.12 75.59
627.037 70.2 63.92 57.37 51.15 45.57 40.55 36.07 31.94 28.18 24.82
646.330 21.97 19.6 17.63 15.99 14.73 13.61 12.58 11.88 11.36 10.96
665.624 10.61 10.18 9.76 9.47 9.21 8.99 8.73 8.52 8.42 8.37
684.917 8.35 8.31 8.24 8.15 7.99 7.94 7.87 7.66 7.56 7.54
704.210 7.51 7.66 8.01 8.4 8.95 9.72 10.7 12.04 13.72 15.8
723.504 18.42 21.73 25.99 31.59 39.14 49.15 61.82 77.22 95.14 115.02
742.797 136.56 159.85 185.83 215.59 245.95 263.63 257.28 238.76 219.57 196.68
762.091 171.1 146.8 123.43 99.95 77.91 59.08 44.18 33.09 25.29 19.89
781.384 16.13 13.5 11.69 10.43 9.53 8.85 8.35 8 7.7 7.51
800.678 7.42 7.34 7.4 7.55 7.7 7.94 8.36 8.92 9.42 10.03
819.971 10.9 12.05 13.55 15.52 18.21 21.84 26.4 31.48 35.99 38.62
839.264 39.7 40.69 41.82 42.51 41.23 37.59 33.4 30.19 28.3 27.33
858.558 26.78 26.81 27.68 29.05 30.75 32.61 34.34 35.66 36.21 35.87
877.851 34.81 33.45 32.06 29.89 26.52 22.65 19.06 16.01 13.51 11.56
897.145 9.99 8.71 7.72 6.97 6.45 6.05 5.74 5.51 5.3 5.22
916.438 5.25 5.41 5.67 6.05 6.62 7.29 8.07 8.86 9.59 10.4
935.732 11.47 12.5 12.27 10.89 9.7 8.93 8.15 7.32 6.57 5.87
955.025 5.17 4.56 4.19 3.97 3.8092 3.6648 3.5953 3.5426 3.4793 3.4059
974.318 3.3077 3.2627 3.2236 3.1344 3.1062 3.1222 3.1157 3.175 3.208 3.2148
993.612 3.3077 3.3827 3.5291 3.7762 4.05 4.42 4.84 5.42 6.25 7.26
1012.905 8.44 9.87 11.52 13.34 15.24 17.08 18.54 19.36 19.68 19.57
1032.199 19 18.03 16.69 15.01 13.11 11.26 9.69 8.38 7.39 6.69
1051.492 6.22 5.96 5.85 5.93 6.24 6.79 7.57 8.73 10.35 12.38
1070.786 14.91 17.96 21.64 25.9 30.43 34.59 37.51 38.41 37.63 37.5
1090.079 38.64 38.31 35.29 30.71 25.82 21.46 17.88 15.03 12.77 11.24
1109.372 10.3 9.79 9.69 9.89 10.26 10.92 11.86 12.89 14.11 15.42
1128.666 16.75 18.02 19.17 19.98 20.12 19.84 19.81 20.22 20.41 20
1147.959 19.37 18.65 17.99 17.52 17.2 17.14 17.3 17.49 17.94 18.91
1167.253 20.47 22.47 24.77 27.48 30.6 33.76 36.93 40.32 43.88 47.33
1186.546 50.5 53.23 55.34 56.96 58.12 58.66 58.62 58.09 57.54 57.5
1205.840 58.36 61.01 66.29 74.74 86.9 103.21 123.28 145.31 167.16 187.23
1225.133 206.41 225.75 244.59 261.54 272.75 274.78 268.42 257.43 246.36 237.02
1244.426 226.1 207.57 179.33 146.75 116.49 91.6 71.9 56.49 44.84 36.48
1263.720 30.92 27.6 25.83 25.3 26.02 27.72 30.33 33.43 36.31 38.18
1283.013 38.57 37.81 36.4 34.45 31.95 28.3 23.59 19.23 15.97 13.75
1302.307 12.33 11.3 10.46 9.7 9.01 8.33 7.75 7.24 6.76 6.33
1321.600 5.96 5.68 5.43 5.13 4.85 4.67 4.49 4.35 4.22 4.08
1340.894 3.99 3.96 3.96 3.92 3.96 4.07 4.19 4.29 4.42 4.6
1360.187 4.83 5.04 5.24 5.45 5.64 5.74 5.82 5.94 6 6.06
1379.480 6.1 6.05 5.93 5.84 5.81 5.8 5.76 5.73 5.76 5.75
1398.774 5.8 5.93 6.09 6.33 6.69 7.15 7.67 8.21 8.82 9.52
1418.067 10.46 11.44 12.41 13.62 15.06 16.76 18.87 21.47 24.68 28.56
1437.361 33.29 38.43 44.12 50.42 57.48 64.74 71.41 77.21 81.79 85.07
1456.654 87.56 89.38 90.56 90.75 89.68 87.8 86.02 84.93 85.17 87.28
1475.948 91.78 99.04 108.49 119.75 131.84 143.94 155.37 165.28 172.74 176.51
1495.241 176.02 171.72 164.33 153.85 140.56 125.47 108.88 92.98 78.22 63.98
1514.534 51.56 41.18 32.94 26.65 21.58 17.89 15.17 13.24 11.88 10.92
1533.828 10.24 9.77 9.66 9.62 9.52 9.57 9.74 9.99 10.36 10.9
1553.121 11.56 12.32 13.27 14.55 16.03 17.73 19.94 22.67 26.01 30.04
1572.415 34.52 39.46 45.11 50.76 55.98 60.64 64.26 66.7 67.82 67.9
1591.708 67.21 65.51 62.11 57.09 51.56 46.74 43.4 41.69 41.17 41.33
1611.002 41.68 41.48 40.26 37.89 34.72 31.07 26.94 22.57 18.4 14.65
1630.295 11.62 9.58 8.33 7.45 6.81 6.33 5.96 5.71 5.49 5.21
1649.588 4.95 4.91 4.89 4.74 4.61 4.55 4.59 4.62 4.6 4.73
1668.882 4.88 5.04 5.37 5.79 6.27 6.87 7.55 8.2 8.77 9.08
1688.175 9.19 9.16 8.98 8.66 8.17 7.6 7.03 6.46 6.01 5.66
1707.469 5.49 5.36 5.16 5.02 4.93 4.84 4.72 4.58 4.48 4.35
1726.762 4.25 4.17 4.13 4.1 3.99 3.8391 3.833 3.86 3.7745 3.7276
1746.056 3.7303 3.7329 3.7623 3.8185 3.8331 3.9 4.04 4.21 4.46 4.71
1765.349 4.99 5.34 5.76 6.24 6.67 7.07 7.51 7.99 8.49 8.95
1784.642 9.32 9.61 9.73 9.64 9.4 8.99 8.52 8.03 7.5 6.88
1803.936 6.33 6 5.77 5.67 5.61 5.58 5.63 5.64 5.6 5.51
1823.229 5.42 5.29 5.15 4.95 4.67 4.42 4.13 3.86 3.6841 3.5633
1842.523 3.4169 3.2799 3.2149 3.1961 3.2189 3.2981 3.3686 3.4545 3.5904 3.7257
1861.816 3.89 4.17 4.5 4.74 4.88 4.97 5.04 5.08 5.05 4.95
1881.110 4.88 4.81 4.79 4.87 5.17 5.69 6.31 7.06 7.99 8.97
1900.403 9.83 10.45 10.79 10.9 10.75 10.35 9.79 9.12 8.39 7.62
1919.696 6.91 6.45 6.21 6.17 6.4 6.75 7.13 7.55 7.93 8.22
1938.990 8.37 8.25 7.94 7.53 6.99 6.45 5.83 5.22 4.7 4.25
1958.283 3.94 3.7478 3.609 3.5184 3.4768 3.4794 3.475 3.4619 3.4748 3.5193
1977.577 3.6128 3.7101 3.7773 3.8317 3.9 3.95 4.04 4.1 4.1 4.08
1996.870 4.08 4.08 4.01 3.93 3.8309 3.7365 3.5465 3.3616 3.2883 3.1877
2016.164 3.0391 2.9567 2.92168 2.90164 2.86909 2.798 2.754 2.729 2.728 2.7523
2035.457 2.719 2.711 2.737 2.705 2.702 2.747 2.7546 2.7602 2.7632 2.7519
2054.750 2.7889 2.8346 2.85143 2.88341 2.9591 3.0212 3.0902 3.1864 3.2518 3.3451
2074.044 3.4124 3.4384 3.4705 3.462 3.4024 3.3056 3.2477 3.1665 3.0549 2.9594
2093.337 2.90344 2.8255 2.703 2.681 2.68 2.686 2.677 2.682 2.731 2.712
2112.631 2.713 2.745 2.714 2.684 2.649 2.577 2.547 2.461 2.366 2.299
2131.924 2.269 2.244 2.155 2.114 2.147 2.115 2.043 2.049 2.053 2.03
2151.218 2.013 2.06 2.138 2.133 2.112 2.138 2.161 2.177 2.2 2.222
2170.511 2.232 2.229 2.192 2.18 2.223 2.224 2.252 2.288 2.278 2.303
2189.804 2.317 2.355 2.389 2.395 2.411 2.426 2.452 2.499 2.528 2.523
2209.098 2.522 2.568 2.641 2.662 2.688 2.73 2.7795 2.8203 2.88702 2.93571
2228.391 2.91571 2.93465 2.958 2.9801 3.018 3.0225 3.0109 3.0086 3.0092 3.0246
2247.685 3.0446 3.0642 3.0851 3.0583 3.0028 2.997 2.9788 2.92296 2.91274 2.90638
2266.978 2.90479 2.89462 2.89572 2.92286 2.91546 2.9313 3.0085 3.1093 3.176 3.2272
2286.272 3.312 3.3909 3.4421 3.4779 3.5449 3.6313 3.7068 3.7752 3.86 3.96
2305.565 4.06 4.11 4.14 4.17 4.19 4.22 4.21 4.13 4.04 4
2324.858 3.96 3.89 3.7983 3.7402 3.6743 3.5736 3.4838 3.4116 3.3407 3.2722
2344.152 3.2231 3.1257 3.0485 3.0266 3.0031 2.9719 2.9511 2.9544 2.9831 3.0005
2363.445 2.94979 2.9527 3.0181 3.0621 3.1087 3.1019 3.0684 3.0014 2.92309 2.86226
2382.739 2.8392 2.8165 2.727 2.671 2.671 2.687 2.681 2.675 2.703 2.741
2402.032 2.7643 2.8119 2.9426 3.1131 3.1921 3.2512 3.3629 3.4638 3.5929 3.6385
2421.326 3.6692 3.7224 3.6973 3.7035 3.6996 3.7095 3.7347 3.6357 3.6084 3.6043
2440.619 3.5328 3.4921 3.4612 3.4419 3.3941 3.3763 3.3708 3.3661 3.4273 3.5255
2459.912 3.5823 3.643 3.7547 3.7985 3.8153 3.88 3.89 3.87 3.8137 3.753
2479.206 3.6551 3.4913 3.3412 3.1761 3.0086 2.8323 2.596 2.379 2.23 2.127
2498.499 2.108 2.078 2.004 1.95 1.898 1.85 1.858 1.902 1.924 1.931
2517.793 1.948 1.97 1.989 1.968 1.948 2.01 2.035 2.045 2.029 2.016
2537.086 2.047 2.033 2.007 1.988 1.927 1.871 1.83 1.79 1.78 1.77
2556.380 1.78 1.76 1.78 1.79 1.81 1.938 2.001 2.025 2.111 2.151
2575.673 2.196 2.25 2.278 2.297 2.317 2.39 2.406 2.438 2.457 2.383
2594.966 2.38 2.443 2.373 2.265 2.205 2.143 2.094 2.024 1.983 1.986
2614.260 1.985 1.942 1.926 1.887 1.87 1.885 1.951 2.011 2.033 2.035
2633.553 2.018 2.083 2.149 2.159 2.147 2.136 2.071 1.992 2.002 1.977
2652.847 1.986 2.035 2.032 2.092 2.118 2.223 2.316 2.296 2.311 2.309
2672.140 2.24 2.169 2.132 2.101 2.007 1.909 1.8 1.7 1.77 1.82
2691.434 1.72 1.66 1.65 1.73 1.7 1.6 1.61 1.55 1.48 1.53
2710.727 1.52 1.43 1.41 1.42 1.43 1.43 1.47 1.48 1.4 1.32
2730.020 1.35 1.42 1.44 1.39 1.35 1.41 1.44 1.37 1.36 1.33
2749.314 1.29 1.32 1.33 1.31 1.24 1.18 1.2 1.2 1.2 1.17
2768.607 1.07 0.97 0.97 0.96 0.92 1.03 1.11 1.04 0.96 0.94
2787.901 0.97 0.96 0.91 0.9 0.9 0.85 0.82 0.85 0.84 0.78
2807.194 0.77 0.76 0.76 0.85 0.93 0.97 0.87 0.84 0.92 0.91
2826.488 0.91 0.93 0.98 1.04 1.04 1.14 1.29 1.28 1.32 1.41
2845.781 1.38 1.34 1.36 1.46 1.58 1.62 1.76 2.024 2.157 2.249
2865.074 2.473 2.647 2.692 2.7543 2.8091 2.7845 2.686 2.646 2.521 2.329
2884.368 2.221 2.133 2.056 1.914 1.73 1.53 1.44 1.37 1.35 1.29
2903.661 1.11 0.97 0.91 0.94 0.89 0.81 0.74 0.63 0.58 0.68
2922.955 0.73 0.66 0.54 0.58 0.7 0.75 0.88 1.02 1.14 1.26
2942.248 1.52 1.83 1.968 2.084 2.286 2.505 2.709 2.85201 3.0901 3.4965
2961.542 3.99 4.59 5.4 6.31 7.29 8.49 9.98 11.51 13.05 14.55
2980.835 16.03 17.41 18.67 19.89 20.43 20.05 18.73 16.88 15.21 13.77
3000.128 12.48 11.13 9.81 8.69 7.87 7.26 6.7 6.49 6.68 6.9
3019.422 7.16 7.74 8.55 9.63 10.83 12.16 13.92 15.98 18.31 20.48
3038.715 22.34 24.12 25.87 27.39 28.35 29.12 29.66 29.98 30.26 30.53
3058.009 30.85 31.21 31.62 31.93 32.26 32.92 34.08 35.55 37.35 38.94
3077.302 40.08 40.88 41.27 41.31 40.53 38.81 36.37 33.59 30.8 28.21
3096.596 25.79 23.2 20.5 17.79 15.04 12.51 10.36 8.69 7.34 6.27
3115.889 5.43 4.66 4.12 3.608 3.1566 2.7605 2.258 1.82 1.55 1.45
3135.182 1.27 1.01 0.77 0.81 0.86 0.75 0.64 0.64 0.79 0.8
3154.476 0.74 0.78 0.82 0.89 0.96 0.94 0.9 0.89 0.92 0.97
3173.769 0.93 0.94 0.82 0.65 0.66 0.57 0.56 0.56 0.4 0.29
3193.063 0.38 0.5 0.51 0.32 0.29 0.43 0.46 0.36 0.25 0.18
3212.356 0.21 0.17 0.14 0.29 0.27 0.18 0.11 0.06 0.02 0.11
3231.650 0.26 0.25 0.19 0.09 0.01 0.08 0.15 0.17 0.16 0.14
3250.943 0.19 0.17 0.02 0 0.03 0.14 0.26 0.14 0.08 0.1
3270.236 0.12 0.2 0.1 0.14 0.42 0.34 0.22 0.25 0.32 0.24
3289.530 0.14 0.26 0.4 0.48 0.37 0.41 0.34 0.22 0.47 0.48
3308.823 0.34 0.48 0.6 0.57 0.58 0.53 0.49 0.39 0.24 0.34
3328.117 0.46 0.56 0.71 0.67 0.51 0.47 0.56 0.66 0.67 0.6
3347.410 0.58 0.66 0.71 0.45 0.38 0.49 0.59 0.65 0.47 0.48
3366.704 0.67 0.62 0.68 0.68 0.62 0.56 0.59 0.67 0.63 0.61
3385.997 0.65 0.77 0.7 0.75 0.83 0.84 0.87 0.83 0.78 0.59
3405.290 0.58 0.76 0.82 0.82 0.83 0.81 0.8 0.68 0.59 0.7
3424.584 0.64 0.66 0.82 0.89 1 0.97 0.89 0.78 0.72 0.71
3443.877 0.72 0.9 0.9 0.83 0.88 0.98 1.03 1.05 1.08 1.09
3463.171 1.04 1 1.11 0.94 0.77 0.88 0.93 0.94 1.02 1.09
3482.464 1.14 1.19 1.21 1.33 1.42 1.31 1.23 1.23 1.23 1.11
3501.758 1.15 1.38 1.41 1.3 1.13 1.21 1.23 1.08 1.18 1.19
3521.051 1.25 1.32 1.27 1.27 1.26 1.22 1.19 1.17 1.23 1.39
3540.344 1.36 1.2 1.22 1.34 1.28 1.18 1.25 1.34 1.4 1.51
3559.638 1.47 1.48 1.42 1.24 1.3 1.46 1.5 1.54 1.57 1.58
3578.931 1.72 1.74 1.64 1.72 1.75 1.68 1.72 1.82 1.74 1.76
3598.225 1.905 1.877 1.864 2.038 2.121 1.968 2.102 2.264 2.198 2.238
3617.518 2.321 2.284 2.143 1.963 1.931 1.957 1.893 1.85 1.922 1.974
3636.812 1.931 1.82 1.76 1.76 1.81 1.8 1.81 1.857 1.81 1.81
3656.105 1.909 1.947 1.83 1.82 1.909 1.934 1.948 1.907 1.886 1.913
3675.398 1.852 1.76 1.72 1.68 1.65 1.68 1.67 1.73 1.78 1.77
3694.692 1.67 1.66 1.7 1.62 1.54 1.56 1.68 1.71 1.7 1.69
3713.985 1.71 1.73 1.75 1.75 1.65 1.61 1.54 1.56 1.66 1.7
3733.279 1.77 1.68 1.63 1.68 1.69 1.66 1.59 1.68 1.69 1.7
3752.572 1.77 1.68 1.64 1.66 1.71 1.66 1.65 1.8 1.78 1.74
3771.866 1.75 1.71 1.65 1.72 1.83 1.8 1.7 1.62 1.68 1.81
3791.159 1.82 1.78 1.924 2.035 1.948 1.885 1.974 2.031 1.892 1.868
3810.452 2.001 1.93 1.84 1.932 1.954 1.938 1.81 1.77 1.975 2.035
3829.746 1.965 1.933 1.896 1.877 1.961 1.97 1.973 2.1 2.069 2.002
3849.039 2.056 2.114 2.141 2.246 2.423 2.429 2.403 2.48 2.431 2.431
3868.333 2.499 2.529 2.483 2.432 2.44 2.386 2.358 2.316 2.393 2.538
3887.626 2.651 2.691 2.652 2.639 2.575 2.645 2.8073 2.92152 2.9924 3.0712
3906.920 3.0853 3.0154 3.0873 3.1879 3.1057 3.009 2.9691 2.93495 2.92265 2.84911
3926.213 2.84249 2.84612 2.739 2.716 2.748 2.61 2.577 2.605 2.545 2.419
3945.506 2.289 2.315 2.293 2.236 2.116 2.05 1.978 1.85 1.83 1.74
3964.800 1.78 1.876 1.78 1.73 1.69 1.74 1.79 1.69 1.63 1.54
3984.093 1.48 1.5 1.51 1.55 1.67 1.75 1.67 1.6 1.55
##END=
