##TITLE=2,4-Difluoronitrobenzene
##JCAMP-DX=4.24
##DATA TYPE=INFRARED SPECTRUM
##ORIGIN=EPA-IR VAPOR PHASE LIBRARY
##OWNER=SRD/NIST
Collection (C) 2018 copyright by the U.S. Secretary of Commerce
on behalf of the United States of America. All rights reserved.
##CAS REGISTRY NO=446-35-5
##MOLFORM=C 6 H 3 F 2 N O 2
##$NIST SOURCE=MSDC-IR
##STATE=gas
##XUNITS=1/CM
##YUNITS=ABSORBANCE
##XFACTOR=1.
##YFACTOR=0.001
##DELTAX=1.929
##FIRSTX=549.8
##LASTX=4000.8
##FIRSTY=2.71
##MAXX=4000.75
##MINX=549.766
##MAXY=0.22102
##MINY=0
##NPOINTS=1790
##XYDATA=(X++(Y..Y))
549.766 2.71 2.6 3.16 3.18 3.16 3.38 3.29 3.62 3.83 3.96
569.056 4.32 4.67 4.96 5.17 5.25 5.56 5.83 5.8 5.89 6.13
588.346 6.35 6.73 7.46 8.7 11.03 14.95 21.44 30.51 40.69 49.94
607.636 56.13 59.78 62.57 63.11 62.52 61.3 52.92 38.62 26.29 18.6
626.926 14.09 11.22 9.32 7.93 7 6.41 5.57 4.83 4.47 4.33
646.216 4.13 3.8 3.74 3.76 3.75 3.77 3.87 3.96 4.28 4.64
665.506 4.98 5.32 5.57 5.97 6.29 6.55 6.82 6.62 6.14 5.64
684.796 5.06 4.74 4.47 3.96 3.47 3.19 2.79 2.3387 2.1827 2.1111
704.086 1.9589 2.1115 2.2241 2.1754 2.3243 2.53 2.81 3.15 3.76 4.52
723.376 5.37 6.5 7.89 9.52 11.13 12.36 13.21 13.74 14.67 16.11
742.666 17.63 19.93 22.36 20.46 15.76 13.52 12.55 11.6 10.55 9.21
761.956 7.74 6.42 5.48 4.59 3.81 3.34 3.26 3.25 3.02 2.83
781.246 2.81 2.89 2.93 2.94 2.95 2.94 2.91 3.08 3.4 3.73
800.536 4.12 4.81 5.53 6.58 7.94 9.29 10.74 12.1 13.78 15.88
819.826 18.54 22.04 25.75 28.01 29.52 33.53 39.43 44.18 46.43 48.11
839.116 50.53 52.6 55.89 58.76 58.08 55.51 53.74 54.91 60.72 72.34
858.406 79.02 66.59 51.13 45.35 41.92 37.83 32.78 27.22 21.86 16.96
877.696 12.9 9.8 7.62 6.07 4.9 4.21 3.66 3.26 2.99 2.74
896.986 2.59 2.51 2.38 2.317 2.2988 2.3196 2.4 2.52 2.63 2.8
916.276 2.98 3.06 3.28 3.33 3.15 3.14 3.22 3.29 3.31 3.35
935.566 3.54 3.78 4.11 4.6 5.19 5.93 6.7 7.58 8.77 10.32
954.856 12.36 15.15 19.22 25.16 33.4 43.59 54.26 62.88 67.49 68.28
974.146 67.57 66.2 63.01 58.26 49.96 37.61 25.44 16.44 10.86 7.78
993.436 6.04 4.87 4.09 3.57 3.15 2.91 2.75 2.61 2.46 2.3497
1012.726 2.36 2.274 2.2606 2.3223 2.3015 2.3513 2.43 2.52 2.66 2.8
1032.016 2.94 2.97 2.98 3.13 3.21 3.3 3.39 3.43 3.42 3.52
1051.306 3.74 3.8 3.87 4.03 4.22 4.55 5.01 5.65 6.54 7.72
1070.596 9.36 11.53 14.52 18.48 23.61 29.75 35.96 40.93 43.7 44.72
1089.886 44.8 44.27 43.3 40.91 35.85 28.87 21.97 16.56 12.72 10.2
1109.176 8.77 7.97 7.75 8.13 9.03 10.4 12.29 14.89 18.11 21.86
1128.467 25.69 29.08 31.68 33.45 34.96 36.72 39.51 44.2 50.78 58.88
1147.757 67.79 75.59 80.18 82.04 82.79 82.34 80.41 75.82 65.32 49.65
1167.047 34.37 23.25 16.35 12.31 9.96 8.47 7.42 6.6 6.11 5.8
1186.337 5.58 5.34 5.19 5.11 5.03 4.92 4.67 4.56 4.38 4.1
1205.627 4.07 4.18 4.13 4.11 4.12 4.28 4.57 4.81 5.29 5.83
1224.917 6.25 6.8 7.51 8.24 8.95 9.58 10.04 10.4 10.71 10.92
1244.207 11.44 12.07 12.44 12.89 13.52 14.53 16.12 18.22 21.08 24.96
1263.497 29.95 36.47 44.89 55.4 67.89 81.65 95.54 108.27 118.55 125.63
1282.787 129.35 129.97 127.37 121.14 111.11 97.64 82.91 69.34 58.19 49.66
1302.077 43.23 38.33 34.57 31.63 29.25 27.4 25.96 24.98 24.67 25.21
1321.367 26.78 29.57 33.7 39.32 46.54 55.13 65.01 76.16 88.27 101.01
1340.657 113.89 126.36 138.04 148.33 156.33 160.84 161.11 156.89 148.28 136.23
1359.947 122.13 106.41 88.91 70.86 54.01 40.02 29.71 22.6 17.76 14.53
1379.237 12.36 11 10.18 9.6 9.33 9.3 9.34 9.46 9.63 9.86
1398.527 10.09 10.2 10.37 10.59 10.65 10.71 10.84 11.04 11.36 11.87
1417.817 12.64 13.66 14.75 15.96 17.23 18.29 19.15 19.89 20.52 21.17
1437.107 21.94 22.51 22.7 22.58 22.26 21.86 21.47 21.18 20.93 20.81
1456.397 20.98 21.26 21.94 23.41 25.58 28.22 31.04 33.8 36.17 38.25
1475.687 40.52 43.65 47.57 52.57 59.03 67.05 76.51 86.63 96.23 103.46
1494.977 107.52 108.7 107.41 103.8 98.18 90.88 81.11 70.95 62.71 56.8
1514.267 53.7 52.89 53.72 55.94 59.08 62.66 67.09 72.15 77.83 84.2
1533.557 91.3 98.93 106.67 114.88 122.49 128.92 134.09 137.85 140.55 142.61
1552.847 143.91 143.67 141.17 136.38 130.44 125.09 120.12 115.55 111.25 106.95
1572.137 102.96 99.77 97.27 95.5 94.72 94.95 96.16 98.57 102.29 107.55
1591.427 114.54 123.51 134.51 147.3 161.4 175.98 189.75 201.78 211.43 218.09
1610.717 221.02 219.37 212.7 200.56 184.67 169.03 156.36 147.35 139.88 131.77
1630.007 122.07 111.21 100.15 89.05 78.55 69.02 60.15 52.34 45.26 38.89
1649.297 33.47 29.13 25.21 22.01 19.58 17.62 16.17 15.02 14.03 13.31
1668.587 12.74 12.13 11.48 10.95 10.38 9.73 9.13 8.61 8.04 7.37
1687.877 6.83 6.42 6.04 5.79 5.58 5.46 5.52 5.52 5.53 5.61
1707.167 5.52 5.42 5.35 5.12 4.85 4.7 4.5 4.19 3.9 3.58
1726.457 3.24 3.05 2.95 2.93 2.88 2.84 2.97 3.1 3.09 3.15
1745.747 3.26 3.34 3.41 3.44 3.5 3.57 3.61 3.66 3.72 3.69
1765.037 3.59 3.53 3.48 3.44 3.34 3.12 2.83 2.63 2.52 2.38
1784.327 2.1878 2.0366 1.9616 1.9797 2.018 1.9585 1.8818 1.8179 1.8797 1.9148
1803.617 1.8399 1.8236 1.8372 1.8752 1.9375 1.9694 1.9434 1.9423 1.99 2.0059
1822.907 2.0286 2.0291 1.9795 1.9542 1.8912 1.8657 1.805 1.6945 1.6699 1.6224
1842.197 1.5775 1.5021 1.45311 1.5492 1.5562 1.5912 1.6916 1.6799 1.696 1.7834
1861.487 1.8862 2.012 2.1568 2.2725 2.42 2.58 2.72 2.93 3.15 3.34
1880.777 3.49 3.68 3.91 4.06 4.18 4.23 4.17 4.11 3.96 3.7
1900.067 3.42 3.14 2.88 2.64 2.3165 2.0617 1.8932 1.7656 1.7296 1.635
1919.357 1.5193 1.45001 1.41083 1.41624 1.44603 1.40782 1.39577 1.4919 1.5105 1.45097
1938.647 1.4652 1.5328 1.6183 1.6331 1.6716 1.7641 1.7076 1.674 1.6576 1.602
1957.937 1.5998 1.5715 1.5785 1.5475 1.45879 1.42032 1.43282 1.41881 1.38613 1.37899
1977.227 1.37691 1.35806 1.3248 1.3098 1.2716 1.2756 1.3023 1.2903 1.2704 1.2774
1996.517 1.293 1.36586 1.38155 1.36216 1.4621 1.4977 1.4862 1.4778 1.4983 1.6063
2015.807 1.6372 1.6084 1.624 1.7073 1.7189 1.6053 1.5626 1.5488 1.5155 1.5085
2035.097 1.4863 1.43759 1.42356 1.43274 1.44052 1.38823 1.39937 1.45713 1.4893 1.5334
2054.387 1.5415 1.538 1.5358 1.5659 1.54 1.534 1.5244 1.4954 1.4937 1.4855
2073.677 1.42488 1.276 1.215 1.213 1.206 1.22 1.228 1.257 1.2724 1.231
2092.967 1.2698 1.3016 1.3429 1.38648 1.36515 1.41898 1.44611 1.4149 1.45801 1.5212
2112.257 1.5462 1.5575 1.5249 1.5498 1.5654 1.5248 1.45626 1.43655 1.43398 1.40199
2131.547 1.37357 1.37654 1.35995 1.2856 1.3067 1.3327 1.2738 1.183 1.162 1.183
2150.837 1.136 1.112 1.129 1.115 1.08 1.102 1.161 1.121 1.101 1.136
2170.127 1.154 1.144 1.128 1.11 1.153 1.187 1.111 1.08 1.075 1.033
2189.417 1.003 0.986 0.996 1.023 1.039 1.012 1.034 1.093 1.115 1.124
2208.707 1.096 1.153 1.205 1.255 1.37206 1.42124 1.43364 1.4665 1.5077 1.5322
2227.997 1.5328 1.5682 1.5585 1.4896 1.4867 1.5606 1.5417 1.4687 1.5321 1.557
2247.287 1.5376 1.5642 1.5308 1.532 1.6229 1.6057 1.5807 1.6 1.6051 1.6243
2266.577 1.6455 1.6376 1.6153 1.6042 1.5672 1.5436 1.5612 1.5133 1.44807 1.44078
2285.868 1.45757 1.40741 1.3097 1.2725 1.252 1.2832 1.2956 1.2911 1.3102 1.2893
2305.158 1.225 1.222 1.2814 1.3052 1.2732 1.3009 1.36429 1.36063 1.36503 1.37742
2324.448 1.45563 1.5591 1.6347 1.6383 1.6361 1.6902 1.8211 1.933 1.9427 2.0099
2343.738 2.0611 2.1071 2.0939 2.0428 2.0978 2.0976 2.1443 2.1497 2.1096 2.0943
2363.028 2.1108 2.1745 2.2031 2.2324 2.2431 2.2894 2.2886 2.3196 2.2625 2.1986
2382.318 2.2405 2.2405 2.2806 2.2815 2.294 2.37 2.39 2.3105 2.2744 2.3242
2401.608 2.3302 2.37 2.39 2.2322 2.1514 2.2154 2.2245 2.1754 2.137 2.2102
2420.898 2.2326 2.1905 2.2719 2.43 2.55 2.64 2.79 2.91 2.95 2.91
2440.188 2.89 2.9 2.81 2.7 2.57 2.42 2.2873 2.1889 2.1505 2.04
2459.478 2.0029 2.0497 2.0258 2.027 1.9682 1.9121 1.9375 1.8941 1.7899 1.7832
2478.768 1.7173 1.572 1.5651 1.5695 1.5444 1.5453 1.4793 1.4658 1.41695 1.3093
2498.058 1.3057 1.2935 1.3292 1.39288 1.40531 1.45524 1.45599 1.3937 1.40421 1.44267
2517.348 1.4994 1.38588 1.3248 1.467 1.5358 1.5292 1.5367 1.4988 1.43108 1.35514
2536.638 1.2863 1.3494 1.35458 1.3147 1.3057 1.3029 1.25 1.2621 1.2659 1.2
2555.928 1.255 1.2967 1.3448 1.39857 1.4312 1.4943 1.5519 1.6036 1.7172 1.7937
2575.218 1.8312 1.8754 1.9234 2.0443 2.1299 2.2047 2.2291 2.2614 2.355 2.42
2594.508 2.42 2.4 2.2707 2.1034 2.0219 1.9426 1.8501 1.7738 1.6926 1.6328
2613.798 1.6259 1.5296 1.40022 1.40093 1.40902 1.45371 1.5704 1.6143 1.6025 1.6124
2633.088 1.6242 1.6079 1.587 1.5754 1.5897 1.6513 1.7178 1.6594 1.5659 1.5854
2652.378 1.5967 1.5066 1.5406 1.5911 1.5838 1.5969 1.6463 1.6491 1.6701 1.7179
2671.668 1.6723 1.7717 1.9752 2.0076 2.0751 2.1392 2.1313 2.2249 2.3123 2.46
2690.958 2.57 2.64 2.57 2.42 2.49 2.58 2.47 2.2785 2.2299 2.317
2710.248 2.338 2.2242 2.0707 1.9729 1.9765 1.8684 1.7713 1.8164 1.7703 1.706
2729.538 1.689 1.6997 1.7388 1.7933 1.7175 1.6754 1.683 1.6595 1.7162 1.7663
2748.828 1.7109 1.6457 1.6712 1.7241 1.7061 1.6867 1.6397 1.6698 1.7508 1.7184
2768.118 1.7209 1.6806 1.5928 1.5972 1.6546 1.6053 1.5782 1.6517 1.6494 1.626
2787.408 1.6273 1.5444 1.43944 1.4794 1.4678 1.3429 1.2965 1.209 1.127 1.146
2806.698 1.201 1.11 1.149 1.247 1.139 1.113 1.114 1.035 0.982 1.067
2825.988 1.157 1.128 1.168 1.2949 1.3255 1.248 1.35075 1.5428 1.5491 1.5323
2845.278 1.5725 1.5905 1.7255 1.9251 2.0673 2.1261 2.1322 2.2899 2.44 2.51
2864.568 2.71 2.82 2.9 2.99 3.06 3.14 3.29 3.52 3.57 3.48
2883.858 3.51 3.57 3.56 3.59 3.52 3.47 3.52 3.56 3.53 3.4
2903.148 3.37 3.32 3.25 3.23 3.07 2.9 2.83 2.67 2.49 2.3596
2922.438 2.2113 2.1498 2.0619 1.9421 1.7601 1.5874 1.5522 1.4927 1.2915 1.233
2941.728 1.2791 1.167 1.066 1.089 1.148 1.053 1.038 1.116 1.029 1.055
2961.018 1.169 1.056 0.86 0.851 0.861 0.887 0.864 0.713 0.752 0.836
2980.308 0.75 0.663 0.555 0.559 0.609 0.58 0.596 0.509 0.455 0.571
2999.598 0.5 0.4 0.361 0.29 0.33 0.35 0.404 0.367 0.35 0.435
3018.888 0.399 0.33 0.35 0.35 0.36 0.395 0.36 0.407 0.406 0.32
3038.178 0.34 0.485 0.481 0.571 0.737 0.649 0.797 0.96 0.878 0.991
3057.468 1.204 1.3003 1.38961 1.5563 1.7244 1.878 1.912 1.9082 2.0493 2.1386
3076.758 2.1792 2.2115 2.2823 2.49 2.65 2.79 3.04 3.23 3.37 3.46
3096.048 3.46 3.47 3.49 3.42 3.21 3.05 2.9 2.62 2.46 2.41
3115.338 2.2588 2.162 2.0339 1.8683 1.909 1.8338 1.6784 1.6028 1.4926 1.3474
3134.628 1.211 1.15 1.087 1.033 1.026 0.981 0.8 0.668 0.614 0.479
3153.918 0.35 0.35 0.469 0.371 0.28 0.27 0.15 0.19 0.26 0.23
3173.208 0.26 0.28 0.25 0.22 0.23 0.3 0.22 0.21 0.426 0.517
3192.498 0.446 0.34 0.33 0.396 0.34 0.27 0.36 0.35 0.27 0.373
3211.788 0.464 0.384 0.433 0.496 0.626 0.612 0.474 0.549 0.442 0.41
3231.078 0.507 0.51 0.436 0.572 0.774 0.651 0.557 0.529 0.555 0.687
3250.368 0.636 0.497 0.461 0.428 0.468 0.544 0.534 0.455 0.45 0.398
3269.658 0.28 0.21 0.25 0.33 0.416 0.449 0.394 0.22 0 0.01
3288.948 0.1 0.18 0.19 0.3 0.39 0.424 0.422 0.415 0.443 0.35
3308.238 0.35 0.28 0.25 0.27 0.18 0.27 0.388 0.32 0.27 0.18
3327.528 0.06 0.01 0.09 0.32 0.411 0.32 0.384 0.31 0.14 0.23
3346.818 0.28 0.417 0.624 0.663 0.551 0.46 0.417 0.33 0.27 0.381
3366.108 0.468 0.383 0.31 0.414 0.506 0.368 0.378 0.439 0.459 0.546
3385.398 0.5 0.38 0.31 0.35 0.396 0.32 0.23 0.35 0.486 0.453
3404.688 0.414 0.379 0.425 0.474 0.388 0.368 0.428 0.439 0.478 0.488
3423.978 0.411 0.478 0.568 0.548 0.481 0.381 0.32 0.36 0.441 0.398
3443.269 0.31 0.393 0.512 0.498 0.464 0.465 0.391 0.373 0.578 0.705
3462.559 0.603 0.502 0.522 0.52 0.574 0.498 0.27 0.373 0.555 0.486
3481.849 0.516 0.499 0.37 0.379 0.42 0.529 0.459 0.49 0.645 0.527
3501.139 0.599 0.704 0.643 0.641 0.67 0.599 0.55 0.689 0.659 0.682
3520.429 0.703 0.685 0.573 0.537 0.664 0.673 0.663 0.572 0.576 0.589
3539.719 0.55 0.598 0.561 0.641 0.815 0.764 0.664 0.629 0.687 0.603
3559.009 0.505 0.547 0.639 0.71 0.741 0.57 0.53 0.7 0.749 0.766
3578.299 0.803 0.834 0.715 0.639 0.656 0.723 0.627 0.65 0.838 0.84
3597.589 0.603 0.468 0.489 0.573 0.685 0.618 0.677 0.715 0.769 0.807
3616.879 0.687 0.675 0.749 0.629 0.625 0.695 0.707 0.745 0.762 0.656
3636.169 0.483 0.661 0.832 0.876 0.843 0.746 0.631 0.502 0.614 0.846
3655.459 0.803 0.696 0.699 0.677 0.723 0.748 0.695 0.74 0.757 0.699
3674.749 0.676 0.63 0.691 0.706 0.717 0.758 0.832 0.845 0.749 0.709
3694.039 0.614 0.738 0.873 0.893 1.03 1.005 0.993 0.96 0.894 0.864
3713.329 0.694 0.632 0.769 0.917 0.955 0.852 0.8 0.75 0.649 0.639
3732.619 0.692 0.679 0.567 0.53 0.557 0.616 0.79 0.923 0.937 0.867
3751.909 0.796 0.75 0.756 0.807 0.746 0.689 0.708 0.646 0.729 0.855
3771.199 0.769 0.761 0.742 0.71 0.725 0.717 0.774 0.853 0.813 0.714
3790.489 0.735 0.638 0.572 0.753 0.82 0.903 0.977 0.921 0.887 0.821
3809.779 0.769 0.671 0.718 0.916 0.996 0.976 0.857 0.78 0.793 0.795
3829.069 0.71 0.688 0.787 0.891 1.042 0.927 0.807 0.823 0.805 0.836
3848.359 0.812 0.833 0.867 0.687 0.625 0.701 0.704 0.867 0.866 0.774
3867.649 0.83 0.717 0.568 0.61 0.658 0.746 0.656 0.421 0.508 0.727
3886.939 0.813 0.821 0.817 0.755 0.696 0.674 0.765 0.719 0.65 0.653
3906.229 0.602 0.69 0.768 0.643 0.543 0.61 0.61 0.579 0.615 0.686
3925.519 0.716 0.882 0.918 0.727 0.702 0.753 0.77 0.912 0.868 0.705
3944.809 0.592 0.48 0.583 0.646 0.609 0.647 0.67 0.682 0.74 0.868
3964.099 0.822 0.57 0.548 0.625 0.461 0.29 0.541 0.763 0.582 0.54
3983.389 0.738 0.792 0.719 0.591 0.717 0.898 0.658 0.466 0.611 0.81
##END=
