##TITLE=2-Fluorobenzhydrazide
##JCAMP-DX=4.24
##DATA TYPE=INFRARED SPECTRUM
##ORIGIN=EPA-IR VAPOR PHASE LIBRARY
##OWNER=SRD/NIST
Collection (C) 2018 copyright by the U.S. Secretary of Commerce
on behalf of the United States of America. All rights reserved.
##CAS REGISTRY NO=446-24-2
##MOLFORM=C 7 H 7 F N 2 O
##$NIST SOURCE=MSDC-IR
##STATE=gas
##XUNITS=1/CM
##YUNITS=ABSORBANCE
##XFACTOR=1.
##YFACTOR=0.001
##DELTAX=1.92898
##FIRSTX=549.8
##LASTX=4000.7
##FIRSTY=10.1167
##MAXX=4000.7
##MINX=549.759
##MAXY=0.0935167
##MINY=0
##NPOINTS=1790
##XYDATA=(X++(Y..Y))
549.759 10.1167 9.7767 9.7667 9.1067 8.4567 7.7867 7.0367 6.3967 5.8867 5.3867
569.049 5.0867 4.8167 4.5467 4.4367 4.2567 4.0267 4.0267 4.1467 4.0367 3.8167
588.339 3.5167 3.6267 3.6567 3.4767 3.4467 3.5067 3.5967 3.8167 3.8567 3.7367
607.628 3.5667 3.4567 3.4767 3.5067 3.6667 3.7467 3.6867 3.5867 3.5367 3.5967
626.918 3.6067 3.4667 3.3767 3.3267 3.5367 3.6667 3.6467 4.0167 4.6867 5.4167
646.208 5.9267 6.3967 6.7967 7.2567 7.5467 7.6167 7.8967 7.8967 7.3167 6.5567
665.498 6.2067 5.9067 5.5067 5.3867 5.4267 5.5867 5.7167 5.8367 5.9967 6.0567
684.787 6.0667 6.0667 5.9367 5.6567 5.3667 5.2267 5.0267 4.5867 4.2867 4.0867
704.077 3.9067 3.7067 3.4967 3.3967 3.2767 3.3067 3.2867 3.1967 3.2467 3.3667
723.367 3.5267 3.6667 3.9267 4.7167 5.7967 6.9867 8.7867 11.1867 13.9667 17.1767
742.657 20.5667 23.7567 26.9367 30.8567 36.8167 44.2867 47.8567 43.5067 36.9867 33.2667
761.947 31.0967 28.9267 26.0867 23.0267 19.6867 16.5967 14.2167 12.3467 11.0367 10.0867
781.236 9.1967 8.5667 8.1867 7.5867 7.1067 7.0067 6.9467 6.8467 6.9567 7.3667
800.526 8.0067 8.7867 9.5167 9.9667 9.9867 9.8467 9.6767 9.5467 9.3967 8.8567
819.816 7.9867 6.9967 5.9867 5.1167 4.5067 4.2267 4.1167 3.7967 3.6467 3.6167
839.106 3.4967 3.5967 3.7667 3.8067 3.7367 3.6267 3.6767 3.9867 4.1467 4.1167
858.395 4.1667 4.4267 4.6567 4.7067 4.6167 4.5667 4.8467 5.0067 4.9767 5.0367
877.685 5.2667 5.4167 5.5667 5.6467 5.6167 5.5167 5.6767 6.1467 6.5067 6.8667
896.975 7.2167 7.6967 8.2467 8.8867 9.7867 10.8567 11.9867 13.4367 15.0367 16.8467
916.265 19.0667 21.5267 24.1967 27.3267 30.8467 34.3367 37.6467 40.7367 43.5067 45.5867
935.555 46.5867 46.4667 45.6667 43.8767 41.0467 37.5467 33.5667 29.3367 25.0967 21.4667
954.844 18.3067 15.5267 13.2967 11.5167 10.1367 9.0567 8.2167 7.5067 6.7567 6.1867
974.134 5.8067 5.3967 4.8567 4.3867 4.1467 3.9067 3.7267 3.8167 3.6467 3.3067
993.424 3.3267 3.2767 3.0567 2.9967 3.1067 3.0467 2.9467 3.0067 2.8367 2.9267
1012.714 3.1067 3.0867 3.4467 3.5767 3.5967 3.8667 4.1667 4.3867 4.4467 4.2767
1032.003 4.1167 4.1167 3.9567 3.3867 3.0367 2.9967 2.7767 2.6067 2.5067 2.3667
1051.293 2.2467 2.1767 2.1467 2.3467 2.5467 2.7067 2.8267 3.0267 3.2067 3.3267
1070.583 3.8167 4.4567 4.9167 5.4467 6.1967 7.1567 8.0067 9.1267 10.1267 10.3767
1089.873 10.9367 11.1567 11.1067 11.2567 11.4367 10.8667 9.5767 8.3167 7.8167 7.4267
1109.163 6.2767 5.7267 5.4067 4.6767 3.9467 3.5567 3.3067 3.2167 3.2867 3.0567
1128.452 2.9767 2.8467 2.6767 2.5567 2.4867 2.7667 3.0667 3.4567 3.9767 4.5467
1147.742 4.7167 4.5667 4.6167 4.6267 4.5867 4.3767 4.4267 4.5367 4.2167 3.8867
1167.032 3.8067 3.7367 3.5567 3.5967 3.7767 4.1567 4.3567 4.2967 4.3667 4.3967
1186.322 4.7667 5.3367 5.9867 7.2067 8.2167 8.9667 10.3667 12.3267 14.2867 16.2267
1205.611 18.3167 20.4067 22.3167 23.4967 24.4767 25.5167 26.2767 26.5467 26.0767 24.8167
1224.901 23.3367 21.5967 19.7867 18.0767 16.5167 15.2967 14.3067 13.6567 12.9267 12.0867
1244.191 11.6667 11.4967 11.1567 10.9767 10.7167 10.4467 10.1667 9.8467 9.6867 9.1867
1263.481 8.7667 8.9367 9.3767 9.9767 10.8267 11.8567 13.4267 15.7567 18.5267 21.9067
1282.771 26.1267 31.2167 36.9567 42.8067 48.1867 52.4367 55.3667 56.8667 56.9767 55.6967
1302.060 53.0367 48.8467 42.9467 36.0667 29.5467 24.2867 20.3567 17.4767 15.3067 13.5567
1321.350 12.0967 10.8867 9.8067 8.8067 7.9667 7.2967 6.8067 6.3667 5.9467 5.6567
1340.640 5.4167 5.1667 5.0567 4.9667 4.7967 4.6867 4.5767 4.4667 4.4167 4.3167
1359.930 4.2467 4.1967 4.0667 3.9467 3.8667 3.7367 3.6267 3.5567 3.5267 3.5267
1379.219 3.6067 3.7167 3.7867 3.9167 4.0767 4.1867 4.3367 4.5767 4.7667 4.8967
1398.509 5.0467 5.2267 5.4467 5.6967 6.0167 6.3067 6.6267 7.0067 7.4267 7.9567
1417.799 8.5667 9.3067 10.2067 11.2667 12.6167 14.2067 16.0767 18.2167 20.6367 23.3067
1437.089 26.1567 28.9767 31.8067 34.8067 38.0467 41.4167 44.8767 48.0667 50.7667 53.0867
1456.378 55.2767 57.4767 59.4067 60.7967 61.5767 61.8367 61.8367 62.0967 62.7467 63.5967
1475.668 64.1467 64.1067 63.4867 62.3267 61.0967 59.7967 58.0067 55.4467 52.0967 48.4567
1494.958 45.1067 42.3067 40.0167 38.0867 36.3767 34.5867 32.7967 31.1367 29.5467 28.0667
1514.248 26.7167 25.3367 23.8467 22.3567 20.8067 19.2367 17.6267 16.0567 14.5567 13.1267
1533.538 11.8367 10.7867 9.8867 9.1267 8.5067 7.9667 7.5167 7.1767 6.9867 6.8367
1552.827 6.7267 6.6667 6.7167 6.8367 6.9167 7.0767 7.3267 7.5967 7.9267 8.2667
1572.117 8.6167 8.8867 9.1667 9.4367 9.6767 9.8767 10.0367 10.3067 10.6067 11.0167
1591.407 11.5267 12.2067 13.1167 14.3467 16.0067 18.0367 20.3667 23.0467 25.7667 28.3967
1610.697 30.8167 32.6667 34.0167 34.8967 35.2767 35.3067 34.9167 34.1567 33.2167 32.3667
1629.986 31.7367 31.0067 30.1967 29.2367 28.1267 26.8967 25.5867 24.3567 22.9967 21.4667
1649.276 20.0167 18.7367 17.7067 17.0567 16.8367 17.0167 17.4467 17.9967 18.7767 19.9067
1668.566 21.3167 23.1567 25.6467 28.8267 32.9267 38.0767 44.5567 52.3067 61.5067 71.5667
1687.856 80.6867 87.2767 90.0867 90.2767 90.7967 92.8167 93.5167 90.0267 82.2967 72.0267
1707.146 61.4967 52.2167 44.5567 38.3967 33.5567 29.8267 27.0067 24.9567 23.4767 22.3567
1726.435 21.3567 20.3967 19.3667 18.0767 16.5167 14.7567 13.0967 11.4967 10.0767 8.8467
1745.725 7.7067 6.7267 5.8467 5.1067 4.5767 4.1467 3.8167 3.5967 3.3767 3.0967
1765.015 2.8967 2.7267 2.5567 2.4867 2.3867 2.2967 2.2367 2.1667 2.0667 2.0667
1784.305 2.0667 2.0467 2.1067 2.1367 2.1267 2.1767 2.2767 2.3367 2.3567 2.4167
1803.594 2.4467 2.4967 2.5867 2.6367 2.6167 2.5867 2.5467 2.4867 2.4467 2.3467
1822.884 2.2367 2.1467 2.0967 2.0167 1.8867 1.8567 1.8567 1.7767 1.6967 1.7067
1842.174 1.7167 1.6367 1.5367 1.4667 1.4067 1.3167 1.2467 1.2567 1.2167 1.0867
1861.464 1.0534 1.0767 1.0767 1.0681 1.0423 1.0011 0.9531 0.9205 0.9366 0.903
1880.754 0.8779 0.9311 0.9315 0.9674 1.0285 1.0199 1.0581 1.1267 1.1467 1.2267
1900.043 1.2967 1.3067 1.2867 1.3367 1.4167 1.4367 1.4567 1.4667 1.4767 1.5567
1919.333 1.6067 1.6567 1.7367 1.8467 1.9167 1.8767 1.8467 1.8267 1.7867 1.6867
1938.623 1.5867 1.4667 1.3667 1.3467 1.3267 1.3267 1.2867 1.2167 1.1667 1.1367
1957.913 1.1467 1.1167 1.0256 0.9353 0.8583 0.7879 0.7802 0.8015 0.7466 0.6583
1977.202 0.6282 0.5968 0.5648 0.5428 0.542 0.5219 0.5074 0.5227 0.5429 0.5398
1996.492 0.5764 0.5705 0.5404 0.5656 0.5733 0.5947 0.6301 0.6771 0.6825 0.6305
2015.782 0.6652 0.6992 0.7109 0.7194 0.7064 0.7706 0.7586 0.7251 0.7493 0.726
2035.072 0.6442 0.5616 0.5331 0.5137 0.4954 0.4711 0.4653 0.4789 0.435 0.4333
2054.362 0.4581 0.4167 0.4118 0.4138 0.419 0.4153 0.414 0.4084 0.3677 0.3569
2073.651 0.3886 0.3715 0.3365 0.3317 0.3279 0.352 0.3083 0.3076 0.3597 0.3471
2092.941 0.3424 0.3213 0.2773 0.2183 0.2347 0.2994 0.3299 0.3107 0.3429 0.3811
2112.231 0.3078 0.3085 0.3113 0.2694 0.2418 0.2782 0.3315 0.3059 0.2592 0.2241
2131.521 0.1937 0.2191 0.2708 0.2445 0.2499 0.2785 0.3001 0.2854 0.2996 0.3215
2150.810 0.2616 0.2311 0.2027 0.13943 0.14502 0.2119 0.2159 0.2253 0.1856 0.1965
2170.100 0.2848 0.3421 0.3217 0.2687 0.303 0.2803 0.2287 0.2332 0.2699 0.2766
2189.390 0.1963 0.17599 0.261 0.2924 0.254 0.2768 0.2423 0.2261 0.2395 0.2356
2208.680 0.3511 0.3269 0.2527 0.2815 0.2916 0.2712 0.2739 0.2598 0.2139 0.2247
2227.970 0.15679 0.14974 0.2403 0.2064 0.16727 0.2519 0.3219 0.3419 0.3534 0.3362
2247.259 0.3386 0.3651 0.3759 0.3662 0.4021 0.4472 0.4344 0.418 0.4331 0.4327
2266.549 0.4307 0.4385 0.4723 0.5397 0.5022 0.4454 0.4563 0.4247 0.3862 0.4068
2285.839 0.4361 0.3861 0.337 0.3806 0.3972 0.3767 0.4365 0.459 0.4451 0.4579
2305.129 0.4372 0.4851 0.5139 0.4864 0.4451 0.4428 0.4774 0.4575 0.4689 0.4932
2324.418 0.4882 0.4621 0.4528 0.4936 0.4864 0.4857 0.478 0.4264 0.4263 0.3958
2343.708 0.3829 0.3988 0.3949 0.3952 0.3948 0.349 0.3865 0.4537 0.3926 0.3308
2362.998 0.3156 0.3209 0.37 0.3769 0.3463 0.3402 0.3209 0.4175 0.5179 0.5081
2382.288 0.4813 0.4539 0.4734 0.4683 0.5021 0.5511 0.5181 0.5047 0.4161 0.3547
2401.578 0.3949 0.3966 0.3962 0.4101 0.3922 0.4344 0.5528 0.5582 0.4726 0.4783
2420.867 0.4817 0.5216 0.6143 0.5609 0.5113 0.5356 0.5053 0.4555 0.4138 0.4225
2440.157 0.4659 0.3868 0.3794 0.4303 0.3836 0.3682 0.3672 0.3035 0.3056 0.3282
2459.447 0.2478 0.278 0.3754 0.3241 0.2523 0.295 0.2969 0.2749 0.2445 0.1799
2478.737 0.1777 0.2298 0.3093 0.3473 0.3136 0.2785 0.2892 0.2755 0.2501 0.291
2498.026 0.341 0.4026 0.4243 0.3796 0.3362 0.2965 0.3394 0.3492 0.2822 0.2651
2517.316 0.3185 0.3629 0.4042 0.4124 0.325 0.3262 0.4215 0.3825 0.3372 0.3475
2536.606 0.3454 0.3681 0.3549 0.3152 0.349 0.3935 0.3263 0.3555 0.3571 0.3448
2555.896 0.3773 0.3674 0.3856 0.364 0.3528 0.3763 0.4434 0.5312 0.5353 0.5103
2575.186 0.5363 0.5327 0.5315 0.5153 0.5574 0.529 0.4619 0.5056 0.4993 0.454
2594.475 0.4341 0.3724 0.3121 0.2587 0.2735 0.309 0.2378 0.2313 0.247 0.1888
2613.765 0.17642 0.2073 0.2476 0.2689 0.279 0.281 0.2412 0.2086 0.15987 0.15952
2633.055 0.13582 0.12128 0.12998 0.2014 0.17318 0.0899 0.1383 0.15135 0.16724 0.1841
2652.345 0.16893 0.16446 0.1802 0.15816 0.1989 0.2322 0.07075 0.0538 0.13603 0.13932
2671.634 0.2162 0.2202 0.09588 0.12741 0.2068 0.16111 0.2453 0.2827 0.214 0.1796
2690.924 0.1779 0.1804 0.2671 0.3339 0.289 0.2518 0.2524 0.303 0.294 0.298
2710.214 0.281 0.2317 0.2926 0.2719 0.2253 0.3055 0.35 0.358 0.3669 0.3211
2729.504 0.3184 0.3801 0.3427 0.3428 0.4145 0.3906 0.3907 0.5006 0.5361 0.4855
2748.794 0.5137 0.4801 0.467 0.488 0.4361 0.45 0.4579 0.433 0.464 0.4259
2768.083 0.3994 0.4095 0.3946 0.4391 0.4696 0.5122 0.4698 0.4089 0.368 0.3374
2787.373 0.4388 0.5132 0.3817 0.2655 0.3523 0.3609 0.3127 0.3168 0.3177 0.2975
2806.663 0.2235 0.2014 0.2906 0.2916 0.2544 0.2865 0.2383 0.2654 0.2599 0.2496
2825.953 0.3154 0.2374 0.1992 0.2316 0.2696 0.3074 0.2938 0.2814 0.268 0.2313
2845.242 0.16432 0.1423 0.17369 0.1858 0.2124 0.2552 0.2284 0.2157 0.2284 0.2057
2864.532 0.2514 0.2599 0.2082 0.3329 0.3346 0.2572 0.2691 0.306 0.3811 0.2812
2883.822 0.2497 0.3864 0.364 0.2851 0.2444 0.2992 0.3285 0.2737 0.3715 0.3955
2903.112 0.3867 0.3862 0.3475 0.3827 0.3869 0.3252 0.2353 0.233 0.2414 0.3563
2922.401 0.3794 0.323 0.3369 0.2718 0.341 0.4455 0.3873 0.3662 0.4057 0.3694
2941.691 0.396 0.431 0.3116 0.2894 0.3845 0.3981 0.4704 0.4269 0.3257 0.3475
2960.981 0.2607 0.211 0.2268 0.2588 0.3003 0.2522 0.1874 0.17063 0.2668 0.2808
2980.271 0.2116 0.3091 0.437 0.4015 0.4248 0.4617 0.4878 0.6028 0.6318 0.6122
2999.561 0.6551 0.638 0.6943 0.8707 0.9068 0.9054 0.9113 0.8852 0.8187 0.8825
3018.850 1.0344 1.0015 0.9593 1.0264 1.0867 1.2167 1.3267 1.4267 1.5967 1.7167
3038.140 1.8667 2.0167 2.1867 2.3667 2.3167 2.2967 2.4267 2.5067 2.5967 2.6967
3057.430 2.8267 2.9767 3.0467 3.2567 3.6567 3.9667 4.3967 4.9767 5.5967 6.1367
3076.720 6.6767 7.1867 7.6067 7.8267 7.7867 7.7167 7.4067 6.7567 6.1067 5.5167
3096.009 4.9467 4.2567 3.4767 2.8467 2.2367 1.6567 1.2667 1.0967 1.0126 0.9194
3115.299 0.8071 0.7005 0.6889 0.6637 0.5198 0.3777 0.496 0.5804 0.4794 0.4597
3134.589 0.5521 0.5881 0.5072 0.4998 0.5542 0.5232 0.5097 0.5137 0.4947 0.516
3153.879 0.5147 0.538 0.5883 0.5753 0.71 0.7403 0.6173 0.6177 0.6438 0.6475
3173.169 0.6152 0.5963 0.6453 0.7424 0.6826 0.6295 0.7646 0.7778 0.7689 0.8514
3192.458 1.0724 1.1767 0.9676 0.9309 1.0199 1.0867 1.0765 1.1067 1.1567 1.1867
3211.748 1.2267 1.1467 1.1267 1.1167 1.0967 0.9569 0.858 0.9022 0.8191 0.7153
3231.038 0.6204 0.6191 0.7279 0.7029 0.6236 0.6388 0.6449 0.5464 0.4441 0.4447
3250.328 0.5273 0.4536 0.3644 0.4412 0.4771 0.4846 0.4101 0.3963 0.4083 0.3927
3269.617 0.3618 0.3848 0.3983 0.5519 0.7162 0.578 0.5401 0.484 0.4039 0.406
3288.907 0.4534 0.5436 0.5288 0.536 0.6051 0.6257 0.673 0.7313 0.6003 0.4992
3308.197 0.6302 0.7702 0.7146 0.6566 0.6558 0.5932 0.559 0.7384 0.8545 0.8115
3327.487 0.9206 0.9405 0.9524 0.9759 1.0614 1.1767 1.2967 1.4067 1.4267 1.4967
3346.777 1.4567 1.4367 1.3367 1.2867 1.2867 1.1967 1.3367 1.3967 1.1967 1.2167
3366.066 1.3467 1.3267 1.4267 1.4167 1.3367 1.3467 1.3067 1.3567 1.4267 1.2967
3385.356 1.1667 1.1767 1.1267 1.022 0.9877 0.9584 0.9157 0.8293 0.7524 0.9027
3404.646 0.9498 0.8834 1.0239 1.1967 1.2167 1.2067 1.2367 1.2367 1.2167 1.2667
3423.936 1.2767 1.3367 1.5467 1.5967 1.6567 1.7667 1.9567 2.1867 2.3967 2.7167
3443.225 2.9567 3.1967 3.5167 3.7867 4.0967 4.4967 4.9767 5.4467 5.8467 6.3467
3462.515 6.9567 7.6767 8.4967 9.4067 10.3667 11.3967 12.5067 13.7767 15.0767 16.3267
3481.805 17.5367 18.5467 19.2267 19.8667 20.2767 20.3367 20.1467 19.4367 18.5067 17.4267
3501.095 16.2667 14.8567 13.1867 11.6067 9.9967 8.5367 7.3067 6.3167 5.4267 4.6267
3520.385 3.8767 3.3067 2.9567 2.4567 2.2367 2.1667 1.9767 1.7867 1.5467 1.4867
3539.674 1.4767 1.3667 1.2167 1.1367 1.1667 1.1167 1.0767 0.9945 0.7698 0.6613
3558.964 0.6849 0.6573 0.6748 0.7332 0.7252 0.6306 0.5739 0.4919 0.4884 0.5073
3578.254 0.4919 0.5493 0.4349 0.413 0.4282 0.444 0.5269 0.4316 0.2883 0.2553
3597.544 0.4451 0.4762 0.513 0.6027 0.5948 0.6728 0.6322 0.5459 0.4542 0.4951
3616.833 0.5078 0.4522 0.4693 0.434 0.4385 0.5305 0.5788 0.5285 0.5198 0.5054
3636.123 0.5249 0.455 0.3432 0.4285 0.4741 0.558 0.5999 0.6535 0.6335 0.4424
3655.413 0.513 0.6132 0.5221 0.4506 0.4688 0.5226 0.5254 0.4618 0.4355 0.5237
3674.703 0.4365 0.3291 0.2671 0.3142 0.441 0.4322 0.4474 0.3612 0.2574 0.3411
3693.993 0.3457 0.3465 0.4905 0.4365 0.3512 0.468 0.3998 0.3678 0.4302 0.3443
3713.282 0.3786 0.3927 0.225 0.11782 0.13176 0.1859 0.3138 0.4119 0.3649 0.2299
3732.572 0.2392 0.3267 0.3512 0.3747 0.2693 0.2632 0.3717 0.2078 0.054 0.12613
3751.862 0.2336 0.2949 0.3056 0.246 0.2698 0.3026 0.2775 0.2036 0.1988 0.2956
3771.152 0.2936 0.3334 0.3271 0.13712 0.1862 0.3029 0.2897 0.1791 0.15575 0.2176
3790.441 0.1944 0.2111 0.10569 0.10813 0.2276 0.389 0.4869 0.3373 0.2389 0.3389
3809.731 0.3026 0.2323 0.2476 0.258 0.2436 0.17525 0.2576 0.2522 0.2738 0.3921
3829.021 0.3844 0.3387 0.3042 0.3772 0.5431 0.6305 0.4851 0.3238 0.307 0.3595
3848.311 0.4529 0.5325 0.5342 0.4511 0.3572 0.3615 0.4186 0.3996 0.2472 0.2101
3867.601 0.3007 0.2637 0.2892 0.4303 0.3474 0.2532 0.3712 0.5103 0.5906 0.4144
3886.890 0.4167 0.5385 0.4658 0.4362 0.2574 0.15559 0.2201 0.2275 0.251 0.2669
3906.180 0.2291 0.2394 0.2755 0.3189 0.3831 0.3427 0.2602 0.14209 0.2108 0.292
3925.470 0.2315 0.3599 0.4601 0.3217 0.3963 0.42 0.3143 0.3334 0.3235 0.447
3944.760 0.4259 0.2933 0.1853 0.0308 0.1074 0.2966 0.2197 0.06925 0.0524 0.195
3964.049 0.244 0.2161 0.3485 0.3262 0.2984 0.2325 0.2921 0.4509 0.3498 0.3374
3983.339 0.3109 0.2837 0.2257 0.1426 0.2445 0.2349 0.09486 0.06785 0 0.13951
##END=
