##TITLE=4-Chloro-2-fluorobenzoic acid
##JCAMP-DX=4.24
##DATA TYPE=INFRARED SPECTRUM
##ORIGIN=EPA-IR VAPOR PHASE LIBRARY
##OWNER=SRD/NIST
Collection (C) 2018 copyright by the U.S. Secretary of Commerce
on behalf of the United States of America. All rights reserved.
##CAS REGISTRY NO=446-30-0
##MOLFORM=C 7 H 4 Cl F O 2
##$NIST SOURCE=MSDC-IR
##STATE=gas
##XUNITS=1/CM
##YUNITS=ABSORBANCE
##XFACTOR=1.
##YFACTOR=0.001
##DELTAX=1.92898
##FIRSTX=549.8
##LASTX=4000.7
##FIRSTY=23.635
##MAXX=4000.7
##MINX=549.759
##MAXY=0.066735
##MINY=0
##NPOINTS=1790
##XYDATA=(X++(Y..Y))
549.759 23.635 23.875 23.505 22.525 21.005 19.055 17.335 15.475 14.025 13.225
569.049 12.215 11.055 10.305 9.695 9.325 9.335 8.915 8.125 7.745 7.635
588.339 7.485 7.535 7.625 7.115 6.305 6.235 6.175 5.735 5.325 5.015
607.628 4.755 4.425 4.005 3.645 3.565 3.255 2.715 2.625 2.695 2.585
626.918 2.395 2.335 2.325 2.255 2.285 2.275 2.145 2.145 2.015 1.795
646.208 1.925 1.895 1.745 1.805 1.955 2.055 2.275 2.515 2.855 3.335
665.498 3.995 4.985 5.605 6.075 6.775 7.315 7.925 7.945 7.475 7.365
684.787 7.305 7.285 7.365 7.355 7.185 6.775 6.085 5.415 4.975 4.455
704.077 3.945 3.375 2.835 2.615 2.365 2.025 1.735 1.675 1.575 1.515
723.367 1.955 2.365 2.715 3.525 4.505 5.605 6.795 7.595 7.835 8.135
742.657 8.385 8.095 7.625 6.785 5.585 4.995 5.155 5.635 6.515 7.475
761.947 8.165 8.835 9.785 10.575 11.105 11.675 11.325 10.165 9.235 8.385
781.236 7.465 6.675 5.865 5.035 4.405 3.845 3.285 2.855 2.525 2.445
800.526 2.495 2.185 2.245 2.445 2.415 2.405 2.375 2.545 2.565 2.535
819.816 2.755 3.265 3.785 4.045 4.015 4.065 4.195 4.175 4.015 3.745
839.106 3.715 3.825 3.875 4.085 4.355 4.665 5.425 6.185 6.785 7.475
858.395 8.295 9.505 10.795 10.875 9.135 7.585 6.905 6.325 5.665 5.075
877.685 4.435 3.775 3.475 3.265 3.495 4.085 4.925 6.315 8.325 11.105
896.975 14.875 19.665 24.765 28.975 31.615 32.605 32.505 31.295 28.485 24.025
916.265 18.165 12.475 8.325 6.045 4.725 3.635 3.115 2.765 2.385 2.095
935.555 1.915 1.775 1.695 1.635 1.605 1.675 1.525 1.475 1.615 1.535
954.844 1.425 1.295 1.195 1.365 1.315 1.1722 1.285 1.275 1.325 1.565
974.134 1.475 1.415 1.405 1.195 1.205 1.315 1.255 1.225 1.215 1.1735
993.424 1.195 1.265 1.405 1.445 1.505 1.375 1.315 1.435 1.625 1.745
1012.714 1.675 1.995 2.185 2.305 2.705 2.845 3.245 3.625 3.855 4.135
1032.003 4.505 4.755 5.175 5.785 6.385 7.365 8.145 9.185 11.025 12.815
1051.293 14.395 15.855 16.745 17.525 18.205 18.305 18.165 17.325 16.255 15.805
1070.583 15.375 15.755 17.165 18.665 19.805 20.705 22.145 24.055 26.155 28.655
1089.873 30.865 33.095 34.685 35.455 35.635 35.235 34.855 33.145 29.355 25.175
1109.163 22.205 20.835 21.075 22.025 22.415 22.155 21.985 21.865 21.125 19.565
1128.452 18.305 17.035 15.425 14.325 13.575 12.855 11.975 10.885 10.105 9.495
1147.742 9.045 8.795 8.305 8.145 8.095 8.405 9.475 10.635 12.185 14.205
1167.032 16.565 19.065 21.745 24.425 26.755 29.015 30.555 30.985 30.735 29.945
1186.322 28.495 26.835 24.965 22.475 20.455 18.385 16.605 15.555 14.455 13.425
1205.611 12.615 12.375 12.665 13.085 13.005 13.905 14.935 15.545 16.335 16.775
1224.901 16.845 16.495 16.265 16.025 15.565 14.555 13.225 11.915 10.715 9.745
1244.191 9.315 9.125 9.075 9.235 9.455 9.695 9.435 9.005 8.465 7.865
1263.481 7.425 6.855 6.295 6.075 5.965 6.065 6.415 6.495 6.465 6.835
1282.771 7.385 7.725 8.075 8.265 8.235 8.335 8.375 8.285 8.265 8.385
1302.060 8.635 9.105 9.595 10.115 10.865 11.685 12.605 13.685 14.845 15.935
1321.350 16.865 17.555 18.015 18.275 18.145 17.735 17.045 16.265 15.525 14.785
1340.640 14.205 13.845 13.665 13.655 13.685 13.685 13.565 13.325 12.965 12.325
1359.930 11.545 10.695 9.785 8.875 8.025 7.305 6.775 6.325 5.935 5.635
1379.219 5.425 5.435 5.515 5.705 6.115 6.675 7.445 8.395 9.505 10.805
1398.509 12.345 14.055 15.845 17.645 19.325 20.955 22.575 24.025 25.045 25.545
1417.799 25.435 24.755 23.705 22.225 20.195 17.885 15.475 13.235 11.275 9.615
1437.089 8.265 7.265 6.575 6.215 6.075 6.095 6.205 6.315 6.565 6.745
1456.378 6.705 6.755 6.835 6.835 6.905 6.995 7.185 7.515 7.915 8.595
1475.668 9.435 10.245 11.065 11.875 12.445 12.755 12.805 12.505 11.725 10.705
1494.958 9.745 8.675 7.385 6.015 4.775 3.755 3.035 2.595 2.235 1.995
1514.248 1.895 1.795 1.715 1.755 1.875 1.985 2.055 2.165 2.295 2.445
1533.538 2.585 2.785 3.005 3.185 3.475 3.825 4.185 4.535 4.915 5.315
1552.827 5.755 6.365 7.025 7.715 8.625 9.575 10.535 11.625 12.675 13.585
1572.117 14.395 14.995 15.375 15.635 15.835 15.915 15.735 15.625 15.745 16.355
1591.407 17.905 20.255 23.315 27.055 31.335 35.925 40.485 44.445 47.135 48.075
1610.697 47.085 44.425 40.375 34.995 28.975 22.885 17.135 12.555 9.195 6.875
1629.986 5.395 4.365 3.645 3.185 2.875 2.715 2.605 2.505 2.415 2.345
1649.276 2.325 2.275 2.125 2.115 2.155 2.095 1.995 1.935 1.905 1.885
1668.566 1.845 1.825 1.775 1.695 1.775 1.865 1.875 1.875 1.875 1.925
1687.856 2.045 2.155 2.275 2.395 2.455 2.595 2.745 2.995 3.225 3.445
1707.146 3.855 4.335 4.775 5.265 5.855 6.495 7.195 7.835 8.475 9.175
1726.435 9.895 10.695 11.665 12.795 14.255 16.225 18.775 22.105 26.135 31.125
1745.725 36.905 43.025 48.675 53.415 57.315 60.765 63.775 65.465 65.635 65.245
1765.015 65.355 66.135 66.735 65.935 63.315 60.285 58.135 55.995 51.715 44.345
1784.305 36.005 29.255 24.645 21.415 18.845 16.655 14.945 13.535 12.345 11.325
1803.594 10.375 9.425 8.545 7.715 6.905 6.125 5.405 4.725 4.105 3.625
1822.884 3.245 2.945 2.655 2.405 2.265 2.095 1.915 1.825 1.745 1.615
1842.174 1.475 1.355 1.285 1.265 1.265 1.195 1.1298 1.1169 1.0579 1.0496
1861.464 1.0963 1.0794 1.0248 1.045 1.0151 0.9915 1.0479 1.0251 0.9841 0.9568
1880.754 0.9803 0.9694 0.8988 0.9111 0.9491 0.9941 1.0031 1.0066 1.0248 1.0929
1900.043 1.205 1.265 1.335 1.385 1.405 1.435 1.465 1.485 1.455 1.445
1919.333 1.425 1.405 1.385 1.335 1.285 1.185 1.1174 1.1033 0.9901 0.9097
1938.623 0.9468 0.8751 0.8295 0.8941 0.9008 0.794 0.7041 0.7276 0.7123 0.7001
1957.913 0.6689 0.6389 0.6201 0.6424 0.685 0.6414 0.6487 0.629 0.6392 0.6428
1977.202 0.6013 0.5946 0.5893 0.5816 0.5275 0.5011 0.5232 0.5443 0.6061 0.5648
1996.492 0.5057 0.5755 0.6028 0.5174 0.464 0.4493 0.4396 0.4457 0.4786 0.4695
2015.782 0.4134 0.4493 0.5018 0.4598 0.4191 0.4933 0.5663 0.5583 0.5575 0.5406
2035.072 0.5171 0.5425 0.5202 0.4463 0.4361 0.5003 0.4958 0.4812 0.4814 0.4265
2054.362 0.4291 0.4702 0.5395 0.578 0.5716 0.5486 0.5671 0.6135 0.5983 0.639
2073.651 0.6425 0.5097 0.4446 0.4885 0.5152 0.5164 0.4914 0.4997 0.5266 0.5757
2092.941 0.5814 0.5194 0.4959 0.5011 0.516 0.5322 0.5635 0.581 0.5431 0.5381
2112.231 0.5616 0.5687 0.5887 0.6012 0.5906 0.6489 0.6975 0.666 0.6825 0.6795
2131.521 0.6708 0.6559 0.6274 0.668 0.6505 0.6201 0.6283 0.5847 0.5757 0.6017
2150.810 0.578 0.5391 0.5647 0.5536 0.5603 0.5856 0.5848 0.5933 0.5484 0.5123
2170.100 0.54 0.5368 0.4876 0.482 0.5208 0.5381 0.521 0.5354 0.5434 0.5035
2189.390 0.5415 0.4979 0.5016 0.6095 0.626 0.6252 0.5356 0.4879 0.4827 0.4631
2208.680 0.4794 0.5251 0.5818 0.5721 0.5398 0.5307 0.547 0.5865 0.5637 0.5774
2227.970 0.5788 0.5613 0.5868 0.5473 0.5378 0.5375 0.4944 0.5046 0.4872 0.5341
2247.259 0.5966 0.5304 0.5173 0.5361 0.5387 0.5879 0.6212 0.6248 0.5816 0.5129
2266.549 0.5337 0.512 0.4815 0.4926 0.4753 0.4902 0.4851 0.4511 0.4512 0.4676
2285.839 0.5026 0.5157 0.4645 0.5071 0.5701 0.5502 0.529 0.5549 0.5614 0.5494
2305.129 0.6261 0.6303 0.5949 0.5934 0.556 0.5978 0.6487 0.6302 0.6468 0.6496
2324.418 0.6198 0.5645 0.5101 0.5695 0.6054 0.5687 0.6001 0.6775 0.701 0.7084
2343.708 0.7706 0.799 0.7892 0.7704 0.7377 0.7402 0.7651 0.7535 0.7065 0.6269
2362.998 0.5493 0.5412 0.5504 0.5818 0.6268 0.6107 0.5581 0.5988 0.66 0.6009
2382.288 0.5399 0.5411 0.5509 0.6424 0.6788 0.6016 0.5978 0.6045 0.5999 0.5173
2401.578 0.4846 0.5258 0.4795 0.4954 0.5448 0.5221 0.5232 0.5509 0.5245 0.5476
2420.867 0.5345 0.5057 0.5914 0.613 0.5921 0.5849 0.5853 0.6032 0.5763 0.5132
2440.157 0.5238 0.5466 0.5112 0.5796 0.6117 0.5818 0.6036 0.5432 0.505 0.4956
2459.447 0.5178 0.6221 0.5981 0.5775 0.6319 0.5874 0.5638 0.5798 0.5117 0.4776
2478.737 0.5194 0.5801 0.5756 0.5127 0.5316 0.6081 0.5752 0.4618 0.5095 0.5803
2498.026 0.5657 0.5517 0.5635 0.542 0.51 0.578 0.5755 0.4849 0.4566 0.4949
2517.316 0.6121 0.62 0.5698 0.6032 0.6079 0.5636 0.5031 0.4839 0.547 0.5739
2536.606 0.4803 0.4821 0.5176 0.5106 0.5194 0.5564 0.5785 0.5682 0.5702 0.5098
2555.896 0.4666 0.4835 0.521 0.5373 0.5154 0.4497 0.4626 0.4748 0.447 0.5048
2575.186 0.5537 0.5394 0.482 0.4569 0.4665 0.4453 0.4248 0.4395 0.3943 0.3781
2594.475 0.499 0.4995 0.4557 0.4077 0.3064 0.326 0.349 0.4413 0.5021 0.4881
2613.765 0.441 0.3998 0.4254 0.4584 0.4332 0.2895 0.2863 0.3389 0.2821 0.2771
2633.055 0.3313 0.4101 0.409 0.3292 0.3912 0.4382 0.3856 0.3816 0.4405 0.4252
2652.345 0.3567 0.3631 0.305 0.25254 0.3445 0.4572 0.5023 0.5054 0.4739 0.4479
2671.634 0.3227 0.2897 0.3939 0.4138 0.4696 0.4981 0.4512 0.4807 0.4598 0.4565
2690.924 0.4814 0.5499 0.6284 0.6016 0.5816 0.5428 0.56 0.5446 0.444 0.4767
2710.214 0.5783 0.6007 0.5833 0.458 0.4216 0.4879 0.5168 0.5592 0.5134 0.4434
2729.504 0.4168 0.2963 0.22371 0.2945 0.3742 0.4009 0.3868 0.4435 0.4399 0.3873
2748.794 0.3019 0.25739 0.3602 0.3428 0.2788 0.3225 0.4045 0.3916 0.336 0.3432
2768.083 0.4119 0.3411 0.23678 0.26267 0.3014 0.3877 0.3114 0.180683 0.184769 0.23351
2787.373 0.19101 0.24724 0.4139 0.3783 0.3551 0.4003 0.364 0.2923 0.2815 0.3268
2806.663 0.3683 0.3487 0.2752 0.26126 0.315 0.3917 0.3612 0.23335 0.3014 0.4136
2825.953 0.3948 0.38 0.3051 0.26033 0.3908 0.4973 0.4741 0.4115 0.4159 0.4894
2845.242 0.4735 0.3304 0.18734 0.20301 0.22492 0.3549 0.4845 0.4624 0.4968 0.424
2864.532 0.3311 0.3716 0.4472 0.3031 0.19739 0.2753 0.3396 0.2815 0.22995 0.3198
2883.822 0.4146 0.401 0.3703 0.3844 0.351 0.3664 0.3155 0.24861 0.3039 0.3256
2903.112 0.317 0.3299 0.393 0.4558 0.4371 0.3496 0.3801 0.3597 0.2603 0.23268
2922.401 0.0887 0.1205 0.25175 0.23551 0.181127 0.1375 0.19475 0.3125 0.2986 0.2906
2941.691 0.3239 0.3214 0.3859 0.4009 0.4122 0.3827 0.3243 0.26756 0.2785 0.3771
2960.981 0.27415 0.177261 0.25528 0.3939 0.3697 0.2872 0.4281 0.4694 0.28 0.2856
2980.271 0.4881 0.5357 0.3354 0.308 0.374 0.3704 0.4118 0.4561 0.4129 0.2842
2999.561 0.4439 0.5346 0.4638 0.4584 0.3554 0.3167 0.3372 0.3559 0.4921 0.5516
3018.850 0.4518 0.3267 0.3247 0.3944 0.3959 0.4825 0.5544 0.4691 0.3888 0.365
3038.140 0.3866 0.3607 0.4163 0.5001 0.5809 0.6701 0.5977 0.5848 0.5381 0.4387
3057.430 0.4274 0.4268 0.3472 0.32 0.3189 0.301 0.3611 0.4559 0.5549 0.6686
3076.720 0.5797 0.4399 0.5173 0.5854 0.5644 0.696 0.7685 0.7828 0.967 1.0022
3096.009 0.8539 0.8401 0.8749 0.7844 0.6729 0.7086 0.6426 0.3919 0.479 0.5217
3115.299 0.5565 0.638 0.5628 0.498 0.5398 0.6144 0.5543 0.4312 0.4535 0.4215
3134.589 0.3801 0.5298 0.5015 0.3588 0.3125 0.3186 0.3038 0.3823 0.5047 0.4978
3153.879 0.4029 0.3562 0.4216 0.4435 0.4168 0.4563 0.3081 0.21938 0.2474 0.3588
3173.169 0.4372 0.3041 0.2335 0.26977 0.3359 0.3017 0.2791 0.176189 0.1862 0.2919
3192.458 0.3357 0.4537 0.369 0.3375 0.3895 0.3134 0.4036 0.4152 0.3568 0.4975
3211.748 0.5282 0.512 0.4324 0.3576 0.3973 0.4233 0.3782 0.3187 0.26709 0.24829
3231.038 0.22608 0.3021 0.3468 0.3666 0.5241 0.2913 0.06 0.19517 0.378 0.346
3250.328 0.3137 0.3126 0.174546 0.1296 0.2859 0.3139 0.3923 0.4645 0.27269 0.2899
3269.617 0.3719 0.2892 0.184346 0.2927 0.3826 0.27259 0.3027 0.2962 0.2961 0.2882
3288.907 0.2934 0.3452 0.3933 0.4524 0.2933 0.23094 0.27406 0.4144 0.4896 0.3938
3308.197 0.3436 0.3028 0.3764 0.3342 0.1383 0.1522 0.26309 0.3722 0.3072 0.21976
3327.487 0.3244 0.22506 0.3269 0.4891 0.3422 0.3095 0.3666 0.4233 0.4528 0.3717
3346.777 0.3592 0.3187 0.27386 0.4716 0.5642 0.5146 0.458 0.2962 0.2904 0.3599
3366.066 0.3964 0.426 0.3844 0.3949 0.3927 0.3144 0.26811 0.26636 0.182814 0.2783
3385.356 0.4147 0.3929 0.3465 0.2785 0.4121 0.4234 0.3286 0.4026 0.3827 0.415
3404.646 0.4808 0.4503 0.3697 0.24211 0.21282 0.3396 0.4604 0.4979 0.5384 0.4813
3423.936 0.4117 0.4318 0.3258 0.3499 0.364 0.332 0.4361 0.3278 0.25681 0.39
3443.225 0.4727 0.5113 0.4779 0.3764 0.2944 0.3694 0.3916 0.3393 0.4485 0.494
3462.515 0.3357 0.323 0.4566 0.4966 0.5521 0.5925 0.6103 0.514 0.5585 0.8316
3481.805 0.8244 0.6184 0.7406 0.9579 0.9712 0.9711 0.961 0.917 0.9173 0.9801
3501.095 0.9259 0.9301 0.9849 0.7861 0.7036 0.7892 0.8942 1.0177 0.9516 0.7726
3520.385 0.7 0.8286 1.0323 1.1456 1.0987 0.9783 0.973 1.0427 1.205 1.185
3539.674 1.1227 1.195 1.195 1.255 1.465 1.545 1.645 2.035 2.525 3.365
3558.964 4.655 6.735 10.185 14.825 20.375 25.485 28.855 30.815 31.915 32.405
3578.254 31.665 28.585 23.505 18.355 14.295 11.425 9.125 6.795 4.955 3.805
3597.544 3.065 2.805 2.725 2.865 3.085 3.125 3.125 2.965 2.925 2.735
3616.833 2.295 2.095 1.865 1.565 1.285 1.0624 0.9514 0.9394 0.8941 0.7027
3636.123 0.6339 0.6251 0.6628 0.7745 0.837 0.7775 0.6665 0.5989 0.6423 0.6242
3655.413 0.5473 0.566 0.682 0.7556 0.7054 0.6465 0.5923 0.443 0.3361 0.3432
3674.703 0.2794 0.2258 0.2981 0.2815 0.3926 0.6027 0.6565 0.4459 0.2882 0.3679
3693.993 0.4168 0.3959 0.3314 0.4249 0.3208 0.21317 0.23466 0.19493 0.2535 0.22151
3713.282 0.2583 0.2965 0.2848 0.3582 0.2818 0.26898 0.2777 0.19112 0.26053 0.3704
3732.572 0.3936 0.3855 0.3236 0.23022 0.25642 0.21865 0.1105 0.22047 0.3454 0.26538
3751.862 0.2494 0.2913 0.2847 0.3853 0.3486 0.25127 0.20983 0.26824 0.3162 0.3311
3771.152 0.3822 0.3524 0.2972 0.17561 0.1272 0.23465 0.3165 0.3037 0.32 0.3297
3790.441 0.2924 0.26359 0.23714 0.18925 0.177763 0.2886 0.23751 0.1971 0.26524 0.21689
3809.731 0.1576 0.1105 0.127 0.0774 0.1273 0.3011 0.2871 0.26451 0.3598 0.3631
3829.021 0.303 0.175898 0.1053 0.1726 0.175371 0.19083 0.20359 0.1959 0.17293 0.22438
3848.311 0.3089 0.3064 0.22429 0.1502 0.3136 0.3701 0.4399 0.4652 0.3201 0.3258
3867.601 0.19223 0.1535 0.24317 0.2929 0.24691 0.1295 0.1458 0.2746 0.2869 0.20619
3886.890 0.2849 0.3191 0.23961 0.21149 0.22526 0.21772 0.24829 0.3815 0.3156 0.057
3906.180 0.036 0.1176 0.163 0.1379 0.25859 0.3522 0.296 0.178904 0 0.041
3925.470 0.20146 0.3163 0.2942 0.24029 0.20876 0.26444 0.3823 0.312 0.1243 0.057
3944.760 0.037 0.1443 0.22579 0.0795 0.1271 0.4052 0.4346 0.27189 0.3112 0.2999
3964.049 0.1494 0.26663 0.3347 0.3449 0.3518 0.3527 0.3939 0.26809 0.1626 0.179787
3983.339 0.3394 0.4242 0.4806 0.3294 0.3015 0.3887 0.26978 0.23791 0.307 0.3614
##END=
