##TITLE=Chloroacetyl isocyanate
##JCAMP-DX=4.24
##DATA TYPE=INFRARED SPECTRUM
##ORIGIN=EPA-IR VAPOR PHASE LIBRARY
##OWNER=SRD/NIST
Collection (C) 2018 copyright by the U.S. Secretary of Commerce
on behalf of the United States of America. All rights reserved.
##CAS REGISTRY NO=4461-30-7
##MOLFORM=C 3 H 2 Cl N O 2
##$NIST SOURCE=MSDC-IR
##STATE=gas
##XUNITS=1/CM
##YUNITS=ABSORBANCE
##XFACTOR=1.
##YFACTOR=0.001
##DELTAX=1.929
##FIRSTX=549.8
##LASTX=4000.8
##FIRSTY=0.7082
##MAXX=4000.75
##MINX=549.766
##MAXY=0.056811
##MINY=0
##NPOINTS=1790
##XYDATA=(X++(Y..Y))
549.766 0.7082 0.5508 0.4548 0.5085 0.5261 0.33228 0.2562 0.3078 0.2991 0.4276
569.056 0.5031 0.5117 0.6251 0.6857 0.6758 0.7397 0.8144 0.8654 1.0088 1.2158
588.346 1.2312 1.2154 1.471 1.601 1.531 1.651 1.831 1.721 1.741 1.831
607.636 1.741 1.831 1.911 1.861 1.861 1.841 1.851 1.901 1.831 1.661
626.926 1.611 1.511 1.401 1.511 1.461 1.451 1.501 1.491 1.491 1.491
646.216 1.471 1.511 1.631 1.601 1.531 1.481 1.541 1.651 1.781 1.811
665.506 1.751 1.841 1.891 1.821 1.801 1.711 1.751 1.801 1.691 1.721
684.796 1.801 1.771 1.681 1.631 1.601 1.571 1.591 1.601 1.571 1.501
704.086 1.451 1.501 1.521 1.501 1.461 1.321 1.2724 1.3089 1.351 1.411
723.376 1.391 1.361 1.2877 1.1937 1.138 1.1869 1.243 1.1861 1.1871 1.2532
742.666 1.2391 1.1339 1.1125 1.1582 1.1622 1.2166 1.263 1.331 1.2573 1.1225
761.956 1.105 1.1209 1.2257 1.361 1.371 1.391 1.461 1.541 1.601 1.641
781.246 1.781 1.941 2.061 2.211 2.391 2.531 2.601 2.661 2.741 2.771
800.536 2.741 2.731 2.671 2.461 2.291 2.301 2.071 1.671 1.511 1.471
819.826 1.441 1.351 1.2798 1.115 1.0575 1.0298 0.8744 0.8409 0.7995 0.757
839.116 0.7575 0.6678 0.6358 0.6523 0.5859 0.5218 0.4817 0.4554 0.4256 0.3609
858.406 0.2737 0.252 0.2877 0.2444 0.161 0.146 0.116 0.062 0.068 0.103
877.696 0.189 0.225 0.174 0.125 0.112 0.144 0.135 0.113 0.13 0.153
896.986 0.143 0.107 0.07 0.109 0.141 0.086 0.122 0.2274 0.2521 0.178
916.276 0.121 0.126 0.171 0.216 0.2517 0.268 0.2379 0.2236 0.2256 0.217
935.566 0.2234 0.213 0.2271 0.218 0.173 0.186 0.191 0.2318 0.2815 0.2336
954.856 0.179 0.157 0.156 0.191 0.202 0.171 0.146 0.161 0.162 0.178
974.146 0.194 0.182 0.194 0.2276 0.22 0.2281 0.2623 0.2621 0.2833 0.2979
993.436 0.327529 0.33376 0.325424 0.34084 0.39404 0.4718 0.5441 0.6487 0.6807 0.6968
1012.726 0.72 0.7397 0.8365 0.9163 0.9014 0.9286 1.0123 1.0533 1.078 1.2047
1032.016 1.351 1.451 1.621 1.801 2.041 2.331 2.711 3.221 3.681 4.091
1051.306 4.491 4.861 5.151 5.321 5.421 5.491 5.491 5.421 5.211 4.811
1070.596 4.351 4.011 3.891 3.891 3.971 4.161 4.221 4.291 4.521 4.741
1089.886 5.031 5.291 5.421 5.511 5.591 5.691 5.681 5.531 5.311 5.051
1109.176 4.781 4.501 4.171 3.791 3.391 2.951 2.541 2.161 1.861 1.691
1128.467 1.511 1.361 1.2487 1.1755 1.1553 1.1358 1.0944 1.1535 1.2132 1.1889
1147.757 1.2 1.2248 1.312 1.3048 1.2683 1.3062 1.351 1.321 1.321 1.401
1167.047 1.411 1.471 1.591 1.551 1.491 1.531 1.531 1.501 1.501 1.551
1186.337 1.561 1.581 1.561 1.491 1.541 1.621 1.581 1.521 1.541 1.501
1205.627 1.451 1.461 1.451 1.411 1.431 1.451 1.391 1.431 1.521 1.481
1224.917 1.421 1.451 1.451 1.451 1.361 1.3034 1.341 1.2919 1.2669 1.2294
1244.207 1.1671 1.1737 1.0887 1.0589 1.0199 0.9609 0.9771 0.9613 0.916 0.8758
1263.497 0.8864 0.8816 0.8454 0.828 0.8302 0.8316 0.8259 0.7902 0.7528 0.7754
1282.787 0.7699 0.7308 0.6907 0.6975 0.7071 0.697 0.693 0.6505 0.6389 0.6767
1302.077 0.6981 0.7166 0.7436 0.7712 0.7565 0.6927 0.7167 0.7604 0.7701 0.7658
1321.367 0.7311 0.7513 0.7744 0.7589 0.7515 0.7873 0.825 0.8449 0.8964 0.9254
1340.657 0.9086 0.9327 0.9505 0.9552 0.9879 1.044 1.1062 1.1462 1.2203 1.2706
1359.947 1.341 1.441 1.531 1.621 1.691 1.831 1.991 2.151 2.301 2.441
1379.237 2.641 2.891 3.161 3.441 3.771 4.091 4.341 4.631 4.981 5.331
1398.527 5.741 6.151 6.551 7.021 7.451 7.761 7.941 8.031 8.091 8.161
1417.817 8.241 8.221 7.991 7.591 7.061 6.581 6.101 5.611 5.221 4.941
1437.107 4.611 4.231 3.871 3.531 3.261 3.031 2.791 2.601 2.421 2.281
1456.397 2.131 1.901 1.661 1.501 1.351 1.2343 1.124 1.0245 0.9716 0.8734
1475.687 0.7714 0.7086 0.7028 0.7031 0.5962 0.538 0.6071 0.6173 0.5501 0.5077
1494.977 0.5389 0.5389 0.5229 0.5197 0.4817 0.55 0.6241 0.5617 0.5039 0.4982
1514.267 0.498 0.5327 0.5306 0.5429 0.5571 0.4906 0.4527 0.4458 0.4364 0.4632
1533.557 0.4636 0.4264 0.4383 0.4645 0.5033 0.5107 0.4418 0.41077 0.4365 0.4062
1552.847 0.40042 0.4329 0.4565 0.5011 0.4243 0.36786 0.38709 0.40029 0.41856 0.36362
1572.137 0.327237 0.39024 0.426 0.36676 0.34045 0.34881 0.34379 0.31798 0.285 0.2737
1591.427 0.2937 0.2976 0.2549 0.198 0.177 0.196 0.2454 0.252 0.24 0.2631
1610.717 0.2721 0.274 0.2513 0.2344 0.221 0.212 0.2224 0.219 0.205 0.211
1630.007 0.2258 0.2268 0.2263 0.216 0.204 0.206 0.2 0.199 0.249 0.2656
1649.297 0.2482 0.2995 0.34745 0.2503 0.221 0.2632 0.2758 0.31 0.293 0.3036
1668.587 0.34922 0.37097 0.37188 0.39711 0.39608 0.39271 0.4381 0.4963 0.5543 0.5748
1687.877 0.611 0.655 0.6483 0.6978 0.8049 0.8497 0.9322 0.991 0.991 1.0676
1707.167 1.2036 1.331 1.451 1.631 1.891 2.171 2.471 2.811 3.241 3.751
1726.457 4.311 5.021 5.811 6.661 7.681 8.591 9.421 10.221 10.961 11.721
1745.747 12.431 13.091 13.591 13.821 13.741 13.561 13.361 13.071 12.681 12.161
1765.037 11.411 10.501 9.461 8.371 7.371 6.571 5.981 5.531 5.081 4.651
1784.327 4.231 3.811 3.451 3.211 2.981 2.671 2.421 2.191 1.971 1.781
1803.617 1.571 1.411 1.2759 1.1549 1.0285 0.9192 0.8263 0.7405 0.6857 0.6519
1822.907 0.641 0.6415 0.5868 0.5571 0.5324 0.4922 0.4963 0.4536 0.41664 0.428
1842.197 0.4413 0.4445 0.40878 0.39009 0.38606 0.38831 0.39093 0.3535 0.35916 0.35455
1861.487 0.34282 0.35599 0.36178 0.36702 0.33883 0.31237 0.3032 0.3064 0.3048 0.3014
1880.777 0.326328 0.327624 0.31914 0.2812 0.2524 0.2694 0.2831 0.2781 0.2707 0.2908
1900.067 0.2836 0.2634 0.2614 0.2764 0.2711 0.2515 0.2529 0.2445 0.209 0.2361
1919.357 0.2487 0.2223 0.2513 0.2519 0.2499 0.2445 0.219 0.2 0.182 0.203
1938.647 0.214 0.217 0.194 0.185 0.21 0.202 0.199 0.211 0.212 0.215
1957.937 0.19 0.154 0.192 0.236 0.2231 0.2537 0.2635 0.2299 0.2482 0.2249
1977.227 0.2248 0.2651 0.2277 0.18 0.22 0.2388 0.2337 0.2458 0.2338 0.2384
1996.517 0.2332 0.2245 0.2314 0.206 0.2246 0.2569 0.2652 0.2893 0.2595 0.2316
2015.807 0.2439 0.2599 0.2553 0.2609 0.2879 0.2881 0.2977 0.3017 0.2821 0.31463
2035.097 0.31511 0.2984 0.33537 0.33123 0.33838 0.33321 0.3038 0.31595 0.31233 0.2898
2054.387 0.31978 0.37676 0.39833 0.3941 0.40156 0.4269 0.41876 0.41342 0.4231 0.41508
2073.677 0.4214 0.40906 0.40126 0.4286 0.443 0.4679 0.4694 0.4467 0.4596 0.4777
2092.967 0.4971 0.4929 0.4811 0.5019 0.5063 0.5237 0.5544 0.5607 0.5449 0.5365
2112.257 0.5923 0.6487 0.6497 0.65 0.7094 0.7487 0.7549 0.7666 0.7954 0.8547
2131.547 0.8933 0.922 0.9519 1.0221 1.0972 1.1612 1.2225 1.2815 1.351 1.421
2150.837 1.491 1.571 1.701 1.831 1.971 2.111 2.291 2.501 2.681 2.841
2170.127 3.041 3.311 3.561 3.801 4.101 4.351 4.561 4.821 5.111 5.351
2189.417 5.591 5.851 6.081 6.331 6.571 6.771 7.021 7.311 7.641 8.041
2208.707 8.501 8.971 9.461 10.031 10.621 11.271 11.981 12.681 13.461 14.351
2227.997 15.311 16.331 17.451 18.831 20.481 22.401 24.621 27.191 30.161 33.511
2247.287 37.151 41.011 44.851 48.421 51.521 53.971 55.671 56.651 56.811 56.031
2266.577 54.281 51.571 47.941 43.611 38.891 34.131 29.591 25.391 21.591 18.291
2285.868 15.481 13.171 11.281 9.711 8.481 7.481 6.671 6.031 5.471 5.011
2305.158 4.651 4.331 4.051 3.811 3.611 3.431 3.291 3.171 3.081 2.951
2324.448 2.831 2.711 2.621 2.521 2.411 2.331 2.301 2.301 2.221 2.141
2343.738 2.131 2.111 2.011 1.971 1.981 1.951 1.951 1.911 1.851 1.821
2363.028 1.801 1.781 1.721 1.641 1.561 1.461 1.411 1.381 1.2687 1.1986
2382.318 1.1598 1.1085 1.0422 0.9742 0.9761 0.9738 0.8742 0.8054 0.7869 0.7837
2401.608 0.7989 0.7526 0.6666 0.609 0.5942 0.596 0.6149 0.5824 0.5267 0.5211
2420.898 0.5302 0.51 0.4772 0.4444 0.40502 0.3953 0.35698 0.37025 0.4317 0.39328
2440.188 0.34661 0.338 0.3432 0.33742 0.325606 0.34742 0.36405 0.34059 0.35295 0.36247
2459.478 0.35414 0.326043 0.2892 0.325648 0.33797 0.325224 0.36779 0.37133 0.34134 0.33694
2478.768 0.34838 0.34101 0.3041 0.2818 0.325624 0.33648 0.3241 0.35144 0.3571 0.326103
2498.058 0.2805 0.31714 0.36435 0.329635 0.3087 0.3052 0.2553 0.218 0.2288 0.2791
2517.348 0.31255 0.303 0.2951 0.323448 0.33989 0.329422 0.3001 0.284 0.272 0.3127
2536.638 0.3436 0.2976 0.3023 0.3028 0.2646 0.2547 0.279 0.3018 0.2953 0.2327
2555.928 0.2261 0.2901 0.33555 0.35389 0.3048 0.2688 0.2862 0.2982 0.2807 0.2626
2575.218 0.2823 0.268 0.231 0.2643 0.2803 0.2551 0.2712 0.3078 0.3002 0.291
2594.508 0.3116 0.31513 0.322738 0.3082 0.2828 0.28 0.2707 0.2511 0.2547 0.2532
2613.798 0.2516 0.2787 0.2834 0.2692 0.209 0.169 0.2409 0.2772 0.2825 0.2794
2633.088 0.2939 0.3046 0.2728 0.2725 0.232 0.218 0.2383 0.2463 0.2826 0.2786
2652.378 0.3075 0.2849 0.2808 0.31997 0.2832 0.2697 0.2273 0.2322 0.2439 0.191
2671.668 0.218 0.2809 0.2487 0.179 0.186 0.209 0.223 0.2748 0.31957 0.3158
2690.958 0.2884 0.2795 0.2548 0.2669 0.2871 0.2422 0.2467 0.3035 0.2943 0.213
2710.248 0.2 0.25 0.259 0.2487 0.2642 0.2663 0.2 0.186 0.2355 0.218
2729.538 0.217 0.2371 0.2225 0.215 0.188 0.214 0.2732 0.2566 0.211 0.195
2748.828 0.2374 0.2578 0.197 0.221 0.2511 0.196 0.189 0.2346 0.189 0.158
2768.118 0.201 0.21 0.243 0.2887 0.2448 0.214 0.203 0.173 0.198 0.2663
2787.408 0.2634 0.219 0.213 0.254 0.238 0.2212 0.2487 0.2476 0.2709 0.2
2806.698 0.16 0.176 0.218 0.2784 0.2585 0.2421 0.2561 0.2231 0.2286 0.2518
2825.988 0.2796 0.330497 0.298 0.2731 0.3167 0.2905 0.2281 0.157 0.127 0.213
2845.278 0.2329 0.238 0.2391 0.258 0.2607 0.2342 0.2498 0.212 0.187 0.198
2864.568 0.214 0.2382 0.2516 0.216 0.176 0.17 0.2288 0.2593 0.2335 0.2651
2883.858 0.2535 0.2289 0.212 0.209 0.2297 0.2445 0.31321 0.34904 0.34626 0.324804
2903.148 0.2452 0.2417 0.273 0.2238 0.2552 0.2503 0.24 0.2885 0.284 0.35154
2922.438 0.41487 0.323287 0.2337 0.2811 0.38887 0.35222 0.2995 0.31929 0.3 0.35978
2941.728 0.40985 0.4448 0.5231 0.5757 0.5453 0.5467 0.5913 0.5992 0.6372 0.6809
2961.018 0.7178 0.6953 0.6735 0.6704 0.6217 0.5609 0.5865 0.5944 0.4794 0.4479
2980.308 0.4328 0.37816 0.4543 0.4705 0.36319 0.33688 0.35595 0.327411 0.3023 0.31714
2999.598 0.33695 0.37824 0.41497 0.39838 0.35294 0.36985 0.36956 0.36873 0.37365 0.40645
3018.888 0.4281 0.38541 0.3092 0.3063 0.34178 0.3438 0.40736 0.4269 0.40599 0.33165
3038.178 0.36572 0.39727 0.3021 0.33574 0.31186 0.326421 0.41943 0.38799 0.323572 0.328581
3057.468 0.36001 0.3299 0.31606 0.31885 0.34224 0.36972 0.35116 0.2896 0.2711 0.2741
3076.758 0.2935 0.2811 0.236 0.2539 0.2794 0.2523 0.183 0.214 0.252 0.226
3096.048 0.2473 0.2229 0.128 0.161 0.173 0.111 0.132 0.127 0.153 0.121
3115.338 0.109 0.166 0.101 0.049 0.109 0.142 0.155 0.18 0.159 0.2
3134.628 0.18 0.111 0.161 0.178 0.176 0.201 0.22 0.15 0.109 0.157
3153.918 0.134 0.102 0.129 0.212 0.21 0.13 0.103 0.096 0.145 0.122
3173.208 0.044 0.092 0.2 0.2257 0.145 0.07 0.102 0.115 0.085 0.146
3192.498 0.129 0.102 0.096 0.054 0.084 0.084 0.043 0.01 0.012 0.096
3211.788 0.081 0.057 0.142 0.189 0.134 0.03 0.014 0.103 0.139 0.142
3231.078 0.121 0.042 0.012 0.046 0.059 0.005 0.038 0.088 0.119 0.19
3250.368 0.127 0.103 0.185 0.135 0.033 0.012 0.114 0.165 0.019 0
3269.658 0.089 0.117 0.153 0.17 0.142 0.154 0.181 0.122 0.116 0.158
3288.948 0.127 0.116 0.132 0.118 0.18 0.177 0.077 0.109 0.182 0.142
3308.238 0.129 0.029 0.038 0.139 0.071 0.107 0.151 0.111 0.138 0.187
3327.528 0.114 0.093 0.144 0.155 0.08 0.058 0.131 0.202 0.2267 0.208
3346.818 0.2453 0.2459 0.161 0.113 0.126 0.127 0.091 0.07 0.135 0.164
3366.108 0.218 0.15 0.093 0.167 0.175 0.182 0.179 0.15 0.155 0.2218
3385.398 0.2 0.158 0.123 0.125 0.181 0.15 0.102 0.113 0.156 0.156
3404.688 0.123 0.048 0.011 0.034 0.039 0.16 0.2941 0.214 0.049 0.118
3423.978 0.2367 0.215 0.2739 0.2733 0.193 0.156 0.208 0.2324 0.182 0.2602
3443.269 0.326562 0.330763 0.2927 0.2772 0.3055 0.199 0.184 0.2364 0.167 0.177
3462.559 0.2216 0.3131 0.34266 0.2772 0.2807 0.2861 0.293 0.325617 0.3059 0.33508
3481.849 0.38552 0.36297 0.41192 0.39344 0.31281 0.2955 0.2982 0.33757 0.34066 0.2921
3501.139 0.34148 0.322827 0.219 0.2731 0.296 0.2791 0.34329 0.3119 0.3095 0.2877
3520.429 0.2948 0.31164 0.2632 0.34464 0.36237 0.35115 0.3448 0.285 0.2452 0.2686
3539.719 0.2846 0.266 0.329375 0.322467 0.3049 0.35721 0.3007 0.35407 0.4584 0.37805
3559.009 0.325932 0.33195 0.39001 0.39937 0.31372 0.3544 0.37315 0.34391 0.3358 0.213
3578.299 0.198 0.37112 0.4011 0.3091 0.31882 0.34563 0.34518 0.38529 0.4362 0.4285
3597.589 0.41794 0.40719 0.37967 0.31249 0.39601 0.501 0.4557 0.3907 0.330562 0.33317
3616.879 0.31313 0.37695 0.35491 0.2775 0.2822 0.39116 0.5175 0.4766 0.41167 0.4606
3636.169 0.4947 0.41121 0.35638 0.4394 0.5029 0.4601 0.4848 0.5289 0.5155 0.5278
3655.459 0.5391 0.4943 0.4217 0.40901 0.5227 0.5168 0.4682 0.558 0.5833 0.4965
3674.749 0.40432 0.35184 0.34427 0.36505 0.37562 0.4666 0.6079 0.6069 0.4737 0.35139
3694.039 0.3391 0.41084 0.4233 0.36084 0.37978 0.35467 0.31436 0.32473 0.2618 0.31536
3713.329 0.37411 0.33502 0.36414 0.35762 0.3099 0.34127 0.34659 0.2751 0.2915 0.2864
3732.619 0.2229 0.219 0.2394 0.2774 0.2633 0.2631 0.2901 0.33411 0.34614 0.283
3751.909 0.327674 0.2639 0.168 0.197 0.2517 0.2533 0.2475 0.2661 0.204 0.201
3771.199 0.2 0.225 0.2479 0.2774 0.2645 0.2252 0.2656 0.2357 0.2239 0.2383
3790.489 0.209 0.203 0.184 0.185 0.2676 0.34813 0.3098 0.2459 0.211 0.158
3809.779 0.154 0.192 0.2433 0.3084 0.2665 0.189 0.196 0.151 0.159 0.145
3829.069 0.133 0.156 0.222 0.31859 0.2971 0.2282 0.2599 0.2716 0.2292 0.2538
3848.359 0.2223 0.2346 0.3027 0.2615 0.2304 0.2244 0.211 0.202 0.2308 0.195
3867.649 0.112 0.2473 0.2469 0.158 0.209 0.2638 0.2501 0.158 0.185 0.2628
3886.939 0.2245 0.2221 0.2972 0.2654 0.22 0.2373 0.251 0.2873 0.3065 0.308
3906.229 0.28 0.2729 0.219 0.139 0.121 0.161 0.217 0.193 0.161 0.21
3925.519 0.2374 0.172 0.13 0.173 0.2808 0.258 0.203 0.31432 0.2744 0.2257
3944.809 0.2452 0.209 0.25 0.159 0.117 0.151 0.154 0.18 0.206 0.2462
3964.099 0.2437 0.239 0.263 0.203 0.213 0.2316 0.133 0.125 0.215 0.34159
3983.389 0.31807 0.204 0.2464 0.283 0.196 0.164 0.212 0.167 0.189 0.2247
##END=
