##TITLE=3-(2,6-Dichlorophenyl)-5-methylisoxazole-4-carbonyl chloride
##JCAMP-DX=4.24
##DATA TYPE=INFRARED SPECTRUM
##ORIGIN=EPA-IR VAPOR PHASE LIBRARY
##OWNER=SRD/NIST
Collection (C) 2018 copyright by the U.S. Secretary of Commerce
on behalf of the United States of America. All rights reserved.
##CAS REGISTRY NO=4462-55-9
##MOLFORM=C 11 H 6 Cl 3 N O 2
##$NIST SOURCE=MSDC-IR
##STATE=gas
##XUNITS=1/CM
##YUNITS=ABSORBANCE
##XFACTOR=1.
##YFACTOR=0.001
##DELTAX=1.92934
##FIRSTX=549.9
##LASTX=3999.5
##FIRSTY=11.79
##MAXX=3999.53
##MINX=549.863
##MAXY=0.26022
##MINY=0
##NPOINTS=1789
##XYDATA=(X++(Y..Y))
549.863 11.79 10.01 8.22 6.83 5.83 5.02 4.36 4.1 4.18 4.25
569.156 4.22 4.33 4.38 4.48 4.56 4.35 4.09 3.99 3.98 3.81
588.450 3.7343 3.81 3.82 3.6976 3.5623 3.6193 3.6284 3.6364 3.6572 3.6036
607.743 3.6477 3.6402 3.6914 3.733 3.81 3.86 3.82 3.85 3.7313 3.5815
627.037 3.4943 3.4633 3.4979 3.4745 3.4577 3.5935 3.8 3.93 4.07 4.34
646.330 4.79 5.62 6.82 8.37 10.55 13.27 15.89 17.85 19.01 19.16
665.624 18.29 16.76 15.07 13.74 12.8 12.32 12.15 12.05 11.9 11.49
684.917 10.86 10.12 9.28 8.42 7.63 6.92 6.41 6 5.64 5.54
704.210 5.54 5.55 5.62 5.73 5.96 6.36 6.84 7.5 8.37 9.41
723.504 10.62 11.82 12.98 14.15 15.3 16.33 17.71 19.66 21.99 24.48
742.797 26.45 27.79 28.51 28.37 27.48 25.69 23.33 21.12 19.27 18.06
762.091 17.95 19.69 24.19 32.49 44.78 58.99 73.12 86.29 91.22 85.46
781.384 78.18 72.22 67.77 67.15 70.04 74.04 76.66 76.56 73.08 66.96
800.678 59.69 52.51 46.35 41.96 39.47 38.52 38.89 40.49 43.15 46.8
819.971 52.05 59.64 70.29 84.85 103.73 126.85 153.6 182.31 210.38 234.77
839.264 252.27 260.22 257.14 243.34 221.03 192.87 161.85 131.45 104.39 81.83
858.558 64.1 51.15 42.42 36.76 33.11 30.99 30.07 30.18 31.15 32.89
877.851 35.25 37.94 40.59 42.86 44.5 45.05 44.26 42.16 38.98 35.16
897.145 31.07 27.04 23.44 20.42 17.96 15.99 14.48 13.37 12.48 11.72
916.438 11.18 10.83 10.43 10.02 9.66 9.31 8.98 8.67 8.24 7.87
935.732 7.57 7.31 7.1 6.86 6.71 6.65 6.65 6.67 6.7 6.78
955.025 6.96 7.16 7.47 8.06 8.98 10.35 12.29 14.78 17.56 20.35
974.318 22.72 24.11 24.14 22.95 20.95 18.57 16.11 13.85 12.13 10.84
993.612 9.81 8.97 8.31 7.72 7.19 6.74 6.31 5.95 5.66 5.45
1012.905 5.32 5.23 5.1 5.02 4.99 4.88 4.72 4.62 4.61 4.65
1032.199 4.7 4.75 4.83 5.01 5.28 5.5 5.71 5.99 6.28 6.52
1051.492 6.82 7.2 7.6 8.07 8.55 8.84 8.86 8.5 7.86 7.06
1070.786 6.25 5.62 5.24 5.13 5.25 5.58 6.05 6.54 7.01 7.69
1090.079 8.59 9.52 10.37 10.95 10.97 10.41 9.48 8.35 7.06 6.06
1109.372 5.51 5.1 4.82 4.73 4.75 4.74 4.81 5.1 5.46 6.02
1128.666 7.04 8.62 10.97 14.31 18.63 23.6 28.73 32.9 35.37 35.51
1147.959 33.32 29.53 24.82 20.21 16.24 13.25 11.55 10.61 9.88 9.43
1167.253 9.12 8.74 8.37 8.05 7.94 8.23 8.92 9.98 11.82 14.72
1186.546 19 24.32 30.12 35.66 39.15 39.19 35.62 30.51 24.99 19.62
1205.840 15.43 12.6 11.31 11.05 11.43 12.38 14.04 15.99 17.69 19.48
1225.133 20.74 21.03 20.73 20.39 20.18 20.1 20.18 20.46 20.82 20.92
1244.426 20.52 19.57 18.29 16.9 15.41 14.03 12.98 12.3 12.11 12.35
1263.720 13.01 14.14 15.67 17.81 20.86 24.65 29.1 34.31 39.88 45.05
1283.013 49.17 51.51 51.71 49.71 45.52 39.81 33.52 27.36 21.94 17.61
1302.307 14.37 12.06 10.46 9.34 8.56 7.98 7.58 7.32 7.16 7.11
1321.600 7.02 6.98 7 6.98 6.97 6.99 7.04 7.14 7.26 7.42
1340.894 7.63 7.88 8.29 8.69 9.19 9.85 10.59 11.45 12.47 13.64
1360.187 15.07 16.87 19.06 21.91 25.69 30.29 35.54 40.98 45.81 49.65
1379.480 52.78 55.62 58.9 62.88 67.41 71.72 74.38 74.29 71.03 65.27
1398.774 58.23 51.33 45.8 41.75 39.02 37.37 36.45 35.92 35.77 36.2
1418.067 37.42 39.8 43.83 50.04 58.65 69.1 80.46 90.82 98.14 100.65
1437.361 97.51 89.87 79.4 68.01 57.45 48.58 41.71 36.62 32.67 29.68
1456.654 27.24 25.09 23.35 21.88 20.51 19.14 18 17.11 16.32 15.66
1475.948 15.25 14.98 14.95 15.16 15.59 16.32 17.28 18.48 19.77 21.01
1495.241 22.26 23.48 24.48 25.17 25.5 25.29 24.5 23.24 21.58 19.66
1514.534 17.81 16.19 14.94 14.2 13.75 13.48 13.49 13.74 14.1 14.64
1533.828 15.3 16.04 17.06 18.49 20.15 22.09 24.59 27.76 31.87 37.15
1553.121 43.58 51.49 60.23 69.62 78.59 85.54 90.06 92.14 92.6 92.7
1572.415 93.57 95.68 99.02 102.51 104.99 105.95 105.1 102.6 98.76 93.88
1591.708 88.08 81.53 74.45 66.76 58.82 51.01 43.53 36.78 30.88 25.86
1611.002 21.85 18.69 16.31 14.51 13.21 12.25 11.5 10.93 10.45 10.11
1630.295 9.91 9.79 9.71 9.66 9.66 9.65 9.65 9.63 9.59 9.62
1649.588 9.66 9.79 10.04 10.29 10.62 11.06 11.53 12.01 12.49 12.88
1668.882 13.21 13.43 13.64 13.86 14.04 14.18 14.2 14.13 13.9 13.49
1688.175 13.06 12.54 11.93 11.4 10.92 10.47 10.09 9.81 9.7 9.68
1707.469 9.82 10.09 10.53 11.14 11.85 12.59 13.41 14.27 15.14 15.93
1726.762 16.77 17.72 18.88 20.37 22.32 24.71 27.47 30.54 33.71 36.85
1746.056 39.94 43.06 46.48 50.91 56.97 65.57 78.02 94.96 117.36 144.19
1765.349 172.23 198.61 220.8 236.36 245.18 247.46 242.3 230.14 211.44 186.29
1784.642 156.06 124.02 94.76 71.67 55.73 45.72 39.61 35.53 32.56 30.09
1803.936 27.91 25.95 24.23 22.77 21.54 20.5 19.66 18.94 18.28 17.53
1823.229 16.61 15.59 14.51 13.36 12.21 11.16 10.22 9.4 8.71 8.14
1842.523 7.75 7.48 7.24 7.09 7.03 7 6.93 6.79 6.51 6.11
1861.816 5.68 5.26 4.86 4.51 4.23 4.02 3.85 3.6863 3.5841 3.5146
1881.110 3.4353 3.3548 3.2988 3.2657 3.2271 3.1739 3.13 3.1027 3.061 3.0004
1900.403 2.9626 2.9899 2.9895 2.9998 3.0735 3.1168 3.1854 3.3225 3.5641 3.84
1919.696 4.09 4.36 4.64 4.97 5.33 5.63 5.72 5.66 5.41 4.98
1938.990 4.52 4.06 3.6582 3.3676 3.2078 3.1339 3.0491 2.9951 2.9452 2.83043
1958.283 2.8094 2.79385 2.726 2.689 2.66 2.577 2.528 2.546 2.486 2.442
1977.577 2.453 2.406 2.387 2.388 2.367 2.314 2.295 2.307 2.263 2.23
1996.870 2.228 2.21 2.198 2.17 2.139 2.143 2.176 2.186 2.162 2.156
2016.164 2.202 2.266 2.266 2.303 2.342 2.312 2.347 2.361 2.325 2.325
2035.457 2.353 2.343 2.358 2.377 2.374 2.414 2.436 2.433 2.449 2.432
2054.750 2.372 2.375 2.419 2.401 2.361 2.345 2.328 2.323 2.32 2.302
2074.044 2.298 2.28 2.248 2.222 2.194 2.184 2.136 2.117 2.148 2.128
2093.337 2.111 2.109 2.111 2.099 2.082 2.076 2.099 2.104 2.109 2.127
2112.631 2.131 2.144 2.157 2.224 2.272 2.265 2.279 2.309 2.3 2.262
2131.924 2.267 2.259 2.203 2.15 2.117 2.077 2.075 2.073 2.054 2.032
2151.218 2.049 2.081 2.068 2.086 2.094 2.077 2.098 2.122 2.132 2.14
2170.511 2.168 2.204 2.186 2.127 2.079 2.064 2.085 2.081 2.022 2.008
2189.804 2.031 1.998 1.958 1.959 2.012 2.064 2.019 2.015 2.055 2.06
2209.098 2.055 2.104 2.161 2.156 2.144 2.155 2.148 2.131 2.137 2.17
2228.391 2.206 2.192 2.159 2.16 2.19 2.248 2.25 2.219 2.219 2.22
2247.685 2.248 2.253 2.275 2.314 2.341 2.337 2.3 2.273 2.231 2.186
2266.978 2.18 2.143 2.078 2.02 1.987 1.986 1.937 1.909 1.929 1.954
2286.272 1.945 1.915 1.924 1.95 2.022 2.093 2.1 2.124 2.185 2.228
2305.565 2.243 2.272 2.3 2.331 2.364 2.347 2.323 2.286 2.283 2.286
2324.858 2.241 2.226 2.201 2.188 2.202 2.191 2.171 2.164 2.091 2.085
2344.152 2.07 2.024 2.06 2.044 2.016 2.016 2.023 2.018 2.007 2
2363.445 1.999 1.986 1.943 1.905 1.907 1.923 1.923 1.908 1.878 1.903
2382.739 1.894 1.85 1.856 1.868 1.9 1.898 1.891 1.906 1.92 1.946
2402.032 1.952 1.946 1.978 1.99 2.032 2.093 2.142 2.184 2.178 2.214
2421.326 2.256 2.31 2.343 2.294 2.263 2.322 2.389 2.373 2.364 2.355
2440.619 2.36 2.351 2.319 2.314 2.321 2.316 2.336 2.322 2.257 2.204
2459.912 2.16 2.115 2.07 2.041 2.038 2.084 2.099 2.087 2.066 2.083
2479.206 2.102 2.111 2.085 2.032 2.033 2.068 2.038 1.96 1.935 1.959
2498.499 1.968 1.925 1.92 1.952 1.987 1.953 1.886 1.868 1.883 1.935
2517.793 1.966 1.922 1.902 1.899 1.93 1.924 1.893 1.859 1.813 1.838
2537.086 1.881 1.925 1.922 1.88 1.881 1.925 1.959 1.985 1.975 1.971
2556.380 1.957 1.975 2.002 1.98 2.034 2.019 1.984 1.984 1.965 1.946
2575.673 1.942 1.92 1.864 1.86 1.844 1.82 1.794 1.75 1.73 1.75
2594.966 1.78 1.77 1.76 1.76 1.76 1.7 1.69 1.74 1.797 1.806
2614.260 1.832 1.892 1.977 2.045 2.051 2.093 2.121 2.043 1.984 1.99
2633.553 1.968 1.936 1.903 1.847 1.817 1.884 1.942 1.964 1.994 2.03
2652.847 2.088 2.097 2.096 2.11 2.081 2.118 2.149 2.128 2.097 2.015
2672.140 1.969 1.937 1.921 1.94 1.83 1.73 1.7 1.69 1.68 1.6
2691.434 1.56 1.53 1.51 1.49 1.47 1.47 1.44 1.41 1.37 1.35
2710.727 1.37 1.27 1.19 1.23 1.31 1.32 1.32 1.35 1.49 1.5
2730.020 1.38 1.38 1.33 1.31 1.27 1.22 1.24 1.27 1.27 1.24
2749.314 1.32 1.4 1.32 1.22 1.19 1.15 1.07 1.05 1.06 1.09
2768.607 1.17 1.09 1.07 1.22 1.24 1.16 1.1 1.02 1 1.06
2787.901 1.13 1.12 1.12 1.1 1.14 1.3 1.36 1.33 1.22 1.12
2807.194 1.15 1.2 1.23 1.26 1.32 1.35 1.37 1.45 1.4 1.26
2826.488 1.29 1.3 1.35 1.38 1.36 1.31 1.25 1.29 1.31 1.37
2845.781 1.39 1.33 1.4 1.51 1.63 1.72 1.75 1.7 1.76 1.869
2865.074 1.74 1.65 1.64 1.53 1.5 1.41 1.28 1.34 1.37 1.28
2884.368 1.19 1.18 1.15 1.14 1.07 1.12 1.12 1.02 1.03 1.07
2903.661 1.12 1.2 1.22 1.14 1.11 1.07 1.17 1.28 1.35 1.4
2922.955 1.5 1.68 1.79 1.877 2.056 2.389 2.78568 3.21 3.6661 4.05
2942.248 4.31 4.49 4.45 4.19 3.93 3.6088 3.1789 2.87782 2.634 2.429
2961.542 2.41 2.421 2.295 2.151 2.184 2.208 2.155 2.23 2.433 2.645
2980.835 2.687 2.561 2.421 2.318 2.244 2.188 2.175 2.106 2.149 2.202
3000.128 2.202 2.216 2.1 2.138 2.094 2.05 2.11 2.011 1.965 1.935
3019.422 1.824 1.79 1.69 1.7 1.832 1.76 1.64 1.56 1.59 1.59
3038.715 1.59 1.72 1.796 1.828 1.879 2.031 2.344 2.635 2.9053 3.343
3058.009 4.07 4.81 5.45 6.09 6.55 6.76 6.62 6.04 5.36 4.73
3077.302 4.23 3.7734 3.3084 3.073 2.9471 2.7659 2.569 2.374 2.116 1.874
3096.596 1.64 1.44 1.38 1.32 1.24 1.2 1.16 1.11 1.15 1.28
3115.889 1.45 1.58 1.56 1.64 1.76 1.857 2.003 1.937 1.59 1.27
3135.182 1.08 0.87 0.72 0.6 0.53 0.51 0.42 0.34 0.38 0.37
3154.476 0.32 0.41 0.42 0.34 0.39 0.28 0.1 0.31 0.5 0.42
3173.769 0.34 0.36 0.34 0.29 0.32 0.19 0.09 0.25 0.31 0.18
3193.063 0.15 0.16 0.23 0.23 0.15 0.2 0.23 0.24 0.22 0.14
3212.356 0.17 0.29 0.18 0 0.06 0.22 0.3 0.41 0.48 0.49
3231.650 0.35 0.25 0.16 0.15 0.26 0.18 0.31 0.33 0.15 0.08
3250.943 0.15 0.21 0.16 0.14 0.2 0.39 0.37 0.32 0.47 0.43
3270.236 0.41 0.37 0.25 0.3 0.49 0.6 0.61 0.57 0.43 0.49
3289.530 0.6 0.36 0.36 0.41 0.45 0.53 0.42 0.34 0.34 0.44
3308.823 0.49 0.53 0.51 0.42 0.52 0.73 0.62 0.51 0.69 0.69
3328.117 0.55 0.62 0.73 0.79 0.68 0.63 0.73 0.75 0.79 0.74
3347.410 0.77 0.83 0.81 0.82 0.79 0.8 0.81 0.76 0.79 0.86
3366.704 0.9 0.87 0.88 0.81 0.7 0.82 0.8 0.84 0.98 0.84
3385.997 0.78 0.81 0.87 0.85 0.83 0.95 0.87 0.83 1.08 1.12
3405.290 0.96 1.03 1.02 0.79 0.79 1.03 1.07 0.99 1.04 1
3424.584 1.02 1.17 1.13 1.21 1.27 1.28 1.27 1.17 1.26 1.24
3443.877 1.25 1.5 1.57 1.51 1.53 1.51 1.52 1.72 1.839 1.72
3463.171 1.72 1.7 1.51 1.49 1.63 1.65 1.53 1.56 1.63 1.68
3482.464 1.792 1.77 1.804 1.826 1.825 1.842 1.834 1.893 1.913 2.031
3501.758 2.167 2.303 2.441 2.524 2.556 2.7767 2.8921 2.82128 2.9355 3.0223
3521.051 2.9827 2.9102 2.9308 2.87932 2.9946 3.0823 3.127 3.1983 3.1536 3.1386
3540.344 3.0821 2.9836 2.85436 2.652 2.502 2.462 2.322 2.237 2.161 2.038
3559.638 1.996 1.903 1.843 1.77 1.58 1.44 1.45 1.52 1.43 1.37
3578.931 1.47 1.49 1.46 1.45 1.54 1.56 1.53 1.61 1.61 1.56
3598.225 1.54 1.65 1.62 1.5 1.56 1.59 1.5 1.44 1.52 1.49
3617.518 1.43 1.53 1.47 1.46 1.55 1.54 1.52 1.54 1.51 1.41
3636.812 1.43 1.47 1.5 1.51 1.57 1.6 1.45 1.43 1.5 1.52
3656.105 1.54 1.62 1.63 1.67 1.71 1.74 1.69 1.58 1.53 1.47
3675.398 1.52 1.56 1.58 1.59 1.58 1.58 1.55 1.56 1.64 1.65
3694.692 1.55 1.52 1.53 1.55 1.6 1.67 1.63 1.63 1.66 1.58
3713.985 1.66 1.67 1.58 1.65 1.74 1.76 1.68 1.61 1.61 1.68
3733.279 1.76 1.75 1.77 1.883 1.883 1.77 1.7 1.76 1.806 1.74
3752.572 1.68 1.64 1.74 1.75 1.72 1.811 1.809 1.815 1.819 1.72
3771.866 1.62 1.64 1.7 1.69 1.67 1.67 1.67 1.69 1.84 1.969
3791.159 1.995 1.932 1.85 1.809 1.969 2.027 1.965 1.87 1.801 1.898
3810.452 1.942 1.911 1.91 1.822 1.798 1.819 1.76 1.807 1.942 1.968
3829.746 1.833 1.814 1.805 1.843 1.854 1.806 1.823 1.879 1.853 1.75
3849.039 1.76 1.69 1.69 1.796 1.79 1.73 1.74 1.78 1.76 1.74
3868.333 1.823 1.867 1.839 1.886 1.942 1.917 1.923 1.877 1.854 1.854
3887.626 1.835 1.88 1.842 1.817 1.76 1.809 1.885 1.847 1.801 1.74
3906.920 1.75 1.797 1.74 1.73 1.76 1.858 1.895 1.796 1.794 1.881
3926.213 1.83 1.78 1.867 1.813 1.76 1.79 1.77 1.814 1.843 1.879
3945.506 1.921 1.901 1.819 1.72 1.894 1.934 1.901 1.99 1.917 1.889
3964.800 1.913 1.78 1.75 1.8 1.74 1.74 1.79 1.77 1.74 1.74
3984.093 1.75 1.75 1.76 1.79 1.84 1.834 1.865 1.927 1.847
##END=
