##TITLE=2-Butylfuran
##JCAMP-DX=4.24
##DATA TYPE=INFRARED SPECTRUM
##ORIGIN=NIST Mass Spectrometry Data Center
##OWNER=NIST Standard Reference Data Program
Collection (C) 2018 copyright by the U.S. Secretary of Commerce
on behalf of the United States of America. All rights reserved.
##CAS REGISTRY NO=4466-24-4
##MOLFORM=C 8 H 12 O
##$NIST SOURCE=MSDC-IR
##SPECTROMETER/DATA SYSTEM=HP-GC/MS/IRD
##STATE=gas
##XUNITS=1/CM
##YUNITS=ABSORBANCE
##XFACTOR=1.0
##YFACTOR=0.000000800
##DELTAX=4.0
##FIRSTX=550.0
##LASTX=3846.0
##FIRSTY=0.000191
##MAXX=3846
##MINX=550
##MAXY=0.008
##MINY=0
##NPOINTS=825
##XYDATA=(X++(Y..Y))
550.0 239 53 0 76 81 32 53 153 299 472
590.0 605 754 790 684 616 509 385 228 167 249
630.0 237 209 106 32 136 119 63 89 111 165
670.0 218 254 328 369 501 756 896 1164 1629 2231
710.0 3039 4004 5023 5887 6274 5932 5152 4123 3157 2395
750.0 1900 1634 1423 1261 1169 1147 1259 1451 1651 1901
790.0 2001 1880 1664 1367 1021 779 612 486 379 245
830.0 242 266 191 178 117 80 107 120 140 209
870.0 312 442 625 757 855 952 902 824 832 882
910.0 916 980 1086 1088 1060 1068 1039 949 852 764
950.0 685 638 582 585 560 552 624 681 804 987
990.0 1245 1615 2015 2431 2698 2639 2440 2101 1627 1186
1030.0 821 604 539 442 353 352 386 455 491 568
1070.0 624 607 660 738 750 769 742 671 624 519
1110.0 392 375 361 338 473 690 1011 1618 2238 2496
1150.0 2564 2404 1946 1595 1453 1376 1382 1365 1329 1267
1190.0 1224 1152 1056 1003 981 924 845 810 839 812
1230.0 791 836 854 871 799 748 722 655 597 534
1270.0 484 460 467 484 488 493 510 537 557 557
1310.0 546 570 625 685 766 860 905 895 870 834
1350.0 809 778 749 716 713 761 808 846 879 895
1390.0 871 787 651 569 544 540 534 562 647 756
1430.0 932 1182 1443 1689 1887 1957 1940 1870 1724 1547
1470.0 1409 1319 1225 1212 1266 1419 1762 2190 2511 2630
1510.0 2530 2244 1813 1431 1182 964 799 700 632 569
1550.0 567 623 707 788 880 1013 1154 1254 1344 1439
1590.0 1484 1471 1353 1156 890 606 421 353 303 256
1630.0 268 282 275 273 275 292 282 236 217 179
1670.0 176 183 175 235 296 331 393 452 482 438
1710.0 315 226 176 127 91 82 90 94 96 102
1750.0 84 74 89 99 100 96 77 47 64 89
1790.0 85 74 76 69 42 59 68 64 77 74
1830.0 59 66 64 25 23 56 67 58 51 41
1870.0 64 71 52 65 73 53 55 67 48 32
1910.0 33 45 72 53 49 68 65 67 73 96
1950.0 80 50 41 39 36 29 49 74 70 28
1990.0 25 51 74 94 89 69 100 145 117 76
2030.0 70 65 71 63 70 80 73 74 93 107
2070.0 93 97 97 70 76 105 93 68 78 66
2110.0 45 53 52 48 57 65 66 71 69 71
2150.0 69 63 59 72 77 66 97 128 123 91
2190.0 51 55 92 95 56 71 105 94 64 54
2230.0 71 82 94 95 94 96 81 67 78 72
2270.0 58 89 86 61 46 55 62 52 37 45
2310.0 66 56 57 87 79 82 89 86 104 82
2350.0 50 47 64 93 105 86 56 51 76 72
2390.0 36 34 68 83 77 86 90 61 53 76
2430.0 72 51 45 46 17 32 68 55 49 55
2470.0 66 75 52 35 56 58 44 66 52 55
2510.0 75 77 92 78 75 70 62 89 78 75
2550.0 102 117 120 109 95 74 61 106 122 102
2590.0 116 122 143 148 124 143 146 97 110 120
2630.0 115 147 156 158 170 174 201 221 219 185
2670.0 137 135 172 161 134 138 141 138 137 168
2710.0 192 160 154 193 216 206 193 216 240 261
2750.0 285 263 237 240 254 257 272 308 277 298
2790.0 348 306 290 334 402 429 486 591 654 696
2830.0 776 909 1077 1291 1533 1756 2060 2481 2890 3322
2870.0 3804 4195 4392 4418 4277 4073 3830 3642 3710 3992
2910.0 4428 4978 5681 6537 7404 8260 9114 9770 10000 9876
2950.0 9570 9216 9031 9110 9078 8591 7651 6407 4963 3614
2990.0 2665 2054 1673 1392 1195 1043 923 821 765 748
3030.0 660 573 526 507 537 533 462 442 446 413
3070.0 377 371 400 409 415 364 339 452 475 481
3110.0 610 702 761 815 748 624 516 450 419 435
3150.0 455 437 454 459 398 307 186 172 170 143
3190.0 165 188 163 127 165 138 132 176 161 145
3230.0 119 97 111 89 109 110 73 111 120 105
3270.0 124 162 135 96 93 66 121 207 164 74
3310.0 70 119 170 174 153 101 65 95 96 96
3350.0 123 180 181 141 119 96 139 161 186 198
3390.0 164 166 141 108 100 108 132 113 96 102
3430.0 110 126 92 66 70 95 97 22 39 135
3470.0 122 108 81 45 104 134 98 109 151 110
3510.0 46 10 100 97 27 64 100 167 167 80
3550.0 37 16 62 161 158 139 167 185 164 151
3590.0 99 137 198 194 189 143 127 164 131 73
3630.0 155 149 146 201 245 247 188 157 114 119
3670.0 182 180 116 83 124 133 168 223 157 112
3710.0 137 171 194 208 211 177 177 178 154 193
3750.0 245 191 119 96 98 149 151 126 102 135
3790.0 181 197 210 236 212 159 162 172 134 154
3830.0 119 125 177 181 141
##END=
