##TITLE=2,3-Dimethoxyphenylacetonitrile
##JCAMP-DX=4.24
##DATA TYPE=INFRARED SPECTRUM
##ORIGIN=EPA-IR VAPOR PHASE LIBRARY
##OWNER=SRD/NIST
Collection (C) 2018 copyright by the U.S. Secretary of Commerce
on behalf of the United States of America. All rights reserved.
##CAS REGISTRY NO=4468-57-9
##MOLFORM=C 10 H 11 N O 2
##$NIST SOURCE=MSDC-IR
##STATE=gas
##XUNITS=1/CM
##YUNITS=ABSORBANCE
##XFACTOR=1.
##YFACTOR=0.001
##DELTAX=1.92898
##FIRSTX=549.8
##LASTX=4000.7
##FIRSTY=2.09
##MAXX=4000.7
##MINX=549.759
##MAXY=0.17103
##MINY=0
##NPOINTS=1790
##XYDATA=(X++(Y..Y))
549.759 2.09 1.9 1.67 1.78 1.76 1.74 1.75 1.78 2.08 2.16
569.049 2.18 2.31 2.01 2.08 2.19 1.95 1.74 1.93 1.83 1.5
588.339 1.56 1.63 1.49 1.52 1.68 1.53 1.65 1.97 1.98 1.96
607.628 2.12 2.47 2.68 2.81 2.86 2.83 2.94 2.97 3.14 3.16
626.918 3.04 3.23 3.35 3.12 2.91 2.81 2.53 2.17 2.19 2.2
646.208 1.95 1.82 1.73 1.63 1.6 1.54 1.39 1.45 1.6 1.69
665.498 1.92 2.02 1.99 1.85 1.97 2.26 2.39 2.69 3.19 3.5
684.787 3.87 4.29 4.73 5.44 6.02 6.78 7.5 7.88 8.4 8.95
704.077 9.12 9.23 9.34 9.29 9.06 8.61 8.26 8.06 7.97 7.98
723.367 8.47 9.35 10.49 12.6 15.4 18.69 22.56 26.79 31.21 35.83
742.657 40.54 43.39 43.29 41.35 37.96 34.17 30.58 26.89 23.66 20.84
761.947 18.58 17.18 16.75 17.03 17.57 18.22 18.9 19.59 20.14 20.43
781.236 20.19 19.49 18.56 17.6 16.68 15.77 15.05 14.32 13.86 13.74
800.526 13.72 13.82 13.81 13.67 13.45 13.03 12.41 11.71 10.72 9.7
819.816 8.65 7.53 6.58 5.61 4.81 4.07 3.52 3.09 2.68 2.6
839.106 2.49 2.26 2.33 2.44 2.41 2.39 2.4 2.45 2.46 2.49
858.395 2.53 2.73 2.93 3.18 3.66 4.17 4.52 4.83 5.14 5.58
877.685 6.12 6.44 6.69 6.85 6.99 7.06 6.89 6.64 6.24 5.77
896.975 5.29 5 4.79 4.58 4.58 4.66 4.66 4.74 4.67 4.64
916.265 4.66 4.66 4.84 4.8 4.79 4.83 4.76 4.8 4.89 5.13
935.555 5.25 5.24 5.45 5.77 5.99 6.21 6.59 6.98 7.27 7.54
954.844 7.98 8.21 8.13 8.17 8.29 8.33 8.35 8.41 8.54 8.68
974.134 8.7 8.81 9.39 10.17 11.18 12.45 13.91 15.71 18.33 21.62
993.424 25.21 29.51 34.6 40.14 46.01 52.04 57.52 62.13 65.57 67.41
1012.714 67.41 65.79 62.72 58.39 52.77 46.87 41.92 38.19 35.79 34.41
1032.003 33.77 34.2 35.53 37.23 39.06 40.9 42.72 44.33 45.4 46.1
1051.293 46.78 47.56 48.33 49.29 50.78 52.57 55.04 58.27 61.97 66.7
1070.583 71.86 77.02 82.65 87.86 91.79 93.97 93.85 91.87 87.66 81.11
1089.873 72.95 64.02 55.02 46.2 38.52 31.72 26.13 21.99 18.63 16.24
1109.163 14.43 12.66 11.27 10.42 9.56 8.67 8.09 7.65 7.51 7.43
1128.452 7.22 6.96 6.89 7.09 7.15 7.28 7.47 7.49 7.68 8.18
1147.742 8.6 9.39 10.53 11.7 13.16 14.59 16.1 18.01 19.99 21.83
1167.032 23.57 24.86 25.71 26.34 26.42 25.99 25.38 24.42 23.45 22.66
1186.322 21.88 21.47 21.29 21.51 22.04 22.75 23.84 25.25 27.14 29.29
1205.611 32.03 35.11 38.42 42.43 46.45 50.39 54.42 58.31 61.42 63.25
1224.901 63.94 63.76 62.62 60.7 58.35 55.55 52.91 51.03 49.93 49.47
1244.191 50 51.55 53.73 56.31 59.01 62.06 65.35 69.36 74.6 81.11
1263.481 89.13 98.44 109.36 121.31 133.02 143.49 152.02 157.81 159.98 158.53
1282.771 153.35 144.89 134.01 121.63 108.98 96.68 85.28 75.51 67.46 60.84
1302.060 55.75 51.76 48.55 45.9 43.36 40.92 38.45 35.82 33.05 30.25
1321.350 27.32 24.4 21.72 19.41 17.47 15.88 14.63 13.61 12.82 12.18
1340.640 11.61 11.17 10.72 10.2 9.73 9.28 8.9 8.49 8.07 7.67
1359.930 7.32 7.07 6.85 6.63 6.46 6.28 6.17 6.1 6.03 6.01
1379.219 6 6.07 6.19 6.29 6.34 6.49 6.76 7 7.29 7.66
1398.509 8.13 8.65 9.32 10.17 11.25 12.63 14.37 16.56 19.29 22.65
1417.799 26.54 30.97 35.6 40.52 45.73 50.59 54.53 56.91 57.77 57.75
1437.089 57.19 55.86 53.18 49.25 45.19 42.12 40.42 39.83 40.31 41.91
1456.378 45.1 50.29 57.41 66.84 78.62 92.54 107.54 122.7 137.03 150.34
1475.668 161.33 168.79 171.03 168.25 161 149.83 135.48 118.97 101.53 85.09
1494.958 70.42 57.85 47.98 40.37 34.47 29.95 26.36 23.42 21.11 19.24
1514.248 17.65 16.31 15.15 14.11 13.13 12.31 11.57 10.86 10.29 9.73
1533.538 9.26 8.87 8.53 8.25 8.04 7.84 7.65 7.64 7.69 7.65
1552.827 7.75 7.87 7.99 8.24 8.58 9.06 9.69 10.54 11.64 13.02
1572.117 14.74 16.88 19.45 22.4 25.69 29.17 32.41 35.14 37.29 38.69
1591.407 39.1 38.26 36.25 33.39 30.03 26.56 23.37 20.45 17.8 15.42
1610.697 13.27 11.48 10.18 9 7.95 7.3 6.72 6.15 5.64 5.2
1629.986 4.94 4.71 4.48 4.23 3.9 3.7 3.52 3.35 3.21 3.05
1649.276 2.94 2.89 2.83 2.74 2.63 2.53 2.51 2.52 2.54 2.46
1668.566 2.39 2.42 2.43 2.45 2.4 2.35 2.38 2.37 2.37 2.46
1687.856 2.47 2.42 2.39 2.34 2.3 2.3 2.34 2.3 2.26 2.2
1707.146 2.15 2.16 2.14 2.18 2.15 2.19 2.28 2.21 2.16 2.13
1726.435 2.06 2.04 2.01 1.91 1.86 1.85 1.81 1.73 1.71 1.72
1745.725 1.7 1.67 1.62 1.6 1.61 1.62 1.6 1.63 1.65 1.61
1765.015 1.58 1.59 1.63 1.64 1.65 1.65 1.64 1.62 1.61 1.64
1784.305 1.69 1.69 1.73 1.78 1.84 1.92 1.94 1.98 2.12 2.19
1803.594 2.27 2.4 2.49 2.57 2.71 2.82 2.88 2.93 2.94 2.95
1822.884 2.91 2.83 2.77 2.69 2.58 2.48 2.4 2.3 2.29 2.25
1842.174 2.11 2 1.98 1.91 1.86 1.81 1.7 1.63 1.58 1.51
1861.464 1.47 1.45 1.44 1.47 1.52 1.52 1.52 1.55 1.6 1.71
1880.754 1.78 1.85 2.03 2.14 2.19 2.32 2.42 2.54 2.74 2.82
1900.043 2.86 2.95 3.03 3.02 2.96 2.91 2.82 2.72 2.58 2.42
1919.333 2.26 2.16 2.07 1.96 1.9 1.81 1.75 1.74 1.69 1.63
1938.623 1.62 1.63 1.64 1.71 1.79 1.78 1.8 1.88 1.92 1.96
1957.913 2.08 2.2 2.23 2.27 2.33 2.4 2.48 2.54 2.6 2.71
1977.202 2.83 2.9 2.94 3.01 3.06 3.12 3.24 3.39 3.5 3.57
1996.492 3.67 3.78 3.83 3.92 4.04 4.11 4.16 4.23 4.29 4.31
2015.782 4.32 4.27 4.2 4.11 4.04 3.91 3.73 3.55 3.34 3.22
2035.072 3.07 2.84 2.66 2.48 2.34 2.22 2.08 1.97 1.85 1.74
2054.362 1.73 1.74 1.65 1.55 1.55 1.58 1.58 1.57 1.52 1.55
2073.651 1.56 1.54 1.56 1.53 1.48 1.52 1.56 1.52 1.52 1.54
2092.941 1.54 1.52 1.56 1.56 1.53 1.55 1.51 1.49 1.51 1.53
2112.231 1.5 1.43 1.42 1.45 1.47 1.42 1.37 1.41 1.45 1.5
2131.521 1.52 1.51 1.54 1.56 1.59 1.63 1.59 1.63 1.67 1.65
2150.810 1.7 1.71 1.69 1.71 1.7 1.66 1.61 1.59 1.62 1.62
2170.100 1.59 1.58 1.6 1.62 1.58 1.56 1.55 1.53 1.5 1.44
2189.390 1.42 1.39 1.38 1.38 1.34 1.22 1.1769 1.18 1.1562 1.1174
2208.680 1.0822 1.0857 1.1504 1.1287 1.0755 1.0878 1.1719 1.3 1.31 1.28
2227.970 1.34 1.38 1.43 1.55 1.75 1.92 2.02 2.27 2.56 2.8
2247.259 3.1 3.37 3.53 3.67 3.73 3.61 3.36 3.1 2.85 2.51
2266.549 2.15 1.94 1.81 1.71 1.58 1.45 1.45 1.46 1.4 1.41
2285.839 1.38 1.27 1.24 1.21 1.1565 1.19 1.18 1.1168 1.0787 1.0045
2305.129 0.9416 0.9529 0.9239 0.9105 0.8731 0.7928 0.7898 0.7845 0.7405 0.7486
2324.418 0.772 0.8216 0.8257 0.839 0.8412 0.8311 0.9251 0.9809 1.0051 1.0285
2343.708 1.0133 0.9971 0.9243 0.8355 0.8397 0.8362 0.8372 0.8557 0.8319 0.8371
2362.998 0.8817 0.8821 0.8623 0.8988 0.8853 0.8248 0.827 0.864 0.9306 0.9243
2382.288 0.9348 1.0116 1.0245 1.0085 1.0304 1.0482 1.029 0.9805 1.0017 1.0243
2401.578 1.0293 0.9745 0.9062 0.9901 0.9942 0.9272 0.863 0.8086 0.877 0.9277
2420.867 0.8948 0.9254 0.96 0.9423 0.9487 0.9835 0.9632 0.9724 0.9937 1.0092
2440.157 1.0717 1.0997 1.0993 1.1051 1.0903 1.1194 1.0783 1.0258 1.0342 1.0375
2459.447 1.0668 1.066 1.0583 1.0445 1.0607 1.0508 1.0639 1.1306 1.1679 1.154
2478.737 1.25 1.3 1.28 1.33 1.35 1.36 1.37 1.44 1.48 1.47
2498.026 1.5 1.53 1.51 1.51 1.47 1.5 1.57 1.58 1.54 1.56
2517.316 1.66 1.68 1.63 1.66 1.68 1.64 1.67 1.75 1.76 1.72
2536.606 1.78 1.83 1.87 1.85 1.86 1.96 1.95 1.97 2.08 2.12
2555.896 2.06 2.02 2.05 2.08 2.09 2.13 2.17 2.12 2.05 2.03
2575.186 1.99 1.92 1.86 1.78 1.75 1.69 1.62 1.63 1.68 1.63
2594.475 1.59 1.52 1.5 1.5 1.43 1.44 1.51 1.47 1.4 1.34
2613.765 1.32 1.27 1.22 1.1475 1.1442 1.19 1.1619 1.1191 1.0995 1.0839
2633.055 1.1077 1.1162 1.0744 1.1213 1.1284 1.083 1.034 0.9461 0.9515 0.9657
2652.345 0.9037 0.8656 0.8672 0.8752 0.7693 0.7708 0.8408 0.7807 0.8373 0.919
2671.634 0.8346 0.8066 0.895 0.9761 0.9351 0.8589 0.7847 0.7349 0.8355 0.8586
2690.924 0.8667 0.9617 0.9249 0.949 0.9821 1.0369 1.0835 1.0511 1.1263 1.1621
2710.214 1.0999 1.0642 1.0801 1.1324 1.1491 1.21 1.1797 1.1719 1.31 1.31
2729.504 1.27 1.33 1.3 1.26 1.36 1.35 1.35 1.4 1.51 1.58
2748.794 1.52 1.48 1.49 1.6 1.64 1.65 1.56 1.55 1.62 1.56
2768.083 1.56 1.68 1.75 1.78 1.88 1.96 2.07 2.12 2.06 2.16
2787.373 2.4 2.62 2.75 2.79 2.94 3.15 3.3 3.55 3.85 4.15
2806.663 4.55 5 5.49 6.01 6.58 7.22 8.11 9.1 10.1 11.31
2825.953 12.79 14.59 16.67 19.17 22.09 25.32 28.53 31.11 32.94 33.99
2845.242 33.88 32.72 30.89 28.4 25.35 22.16 19.4 17.18 15.5 14.35
2864.532 13.66 13.3 13.15 13.19 13.41 13.75 14.07 14.63 15.18 15.52
2883.822 16.04 16.74 17.45 17.98 18.5 18.97 19.36 19.84 20.38 20.83
2903.112 21.32 21.88 22.33 22.94 23.54 24.17 24.94 25.66 26.5 27.48
2922.401 28.5 29.82 31.35 33.09 35.52 38.51 41.95 45.96 50.18 54.42
2941.691 58.25 61.21 63.19 63.99 63.74 62.34 60.01 57.09 53.76 50.44
2960.981 47.44 44.92 42.78 40.75 38.78 37.03 35.49 34.21 33.16 32.03
2980.271 30.98 30.15 29.47 29.14 28.91 28.8 28.95 29.38 30.24 31.24
2999.561 32.21 33.42 34.41 34.91 34.77 33.97 32.76 31.08 29 26.76
3018.850 24.55 22.45 20.62 19.25 18.1 17.29 16.77 16.05 15.38 15.02
3038.140 14.88 14.73 14.56 14.56 14.58 14.57 14.6 14.51 14.62 14.75
3057.430 14.68 14.74 14.74 14.77 15 15.18 15.46 15.83 16.13 16.32
3076.720 16.41 16.56 16.61 16.29 15.81 15.29 14.46 13.43 12.38 11.24
3096.009 10.04 8.92 7.81 6.67 5.81 5.11 4.53 4.14 3.73 3.45
3115.299 3.28 3.06 2.86 2.68 2.59 2.41 2.29 2.21 2.13 2.1
3134.589 2.03 1.98 1.89 1.89 1.81 1.71 1.64 1.5 1.4 1.47
3153.879 1.51 1.49 1.56 1.53 1.51 1.45 1.33 1.37 1.48 1.36
3173.169 1.26 1.39 1.37 1.25 1.27 1.1675 1.0272 0.9944 1.0034 1.0053
3192.458 0.8876 0.9888 1.0744 0.9543 1.0486 1.1363 0.9944 0.8836 0.8604 0.8585
3211.748 0.783 0.7071 0.707 0.8376 0.8813 0.8103 0.8183 0.6653 0.603 0.6228
3231.038 0.537 0.4789 0.5093 0.4147 0.3647 0.4466 0.4274 0.4683 0.4539 0.4594
3250.328 0.4977 0.4809 0.4749 0.447 0.4738 0.4905 0.4953 0.4037 0.3109 0.4252
3269.617 0.4311 0.4231 0.4436 0.369 0.426 0.4842 0.3557 0.3465 0.3705 0.381
3288.907 0.3645 0.24131 0.20924 0.3454 0.4208 0.2932 0.25433 0.1337 0.212 0.4026
3308.197 0.388 0.3689 0.3321 0.3307 0.3653 0.322 0.295 0.25935 0.23742 0.3439
3327.487 0.3249 0.2815 0.3405 0.2863 0.26593 0.26792 0.26778 0.2651 0.20957 0.24913
3346.777 0.24388 0.3563 0.3802 0.27739 0.2937 0.3264 0.3327 0.4102 0.4356 0.3971
3366.066 0.462 0.4075 0.24492 0.0992 0.047 0.179519 0.26353 0.2917 0.3124 0.1583
3385.356 0.0916 0.21183 0.3103 0.3407 0.3273 0.3317 0.2984 0.1565 0.1588 0.202
3404.646 0.19195 0.2854 0.3313 0.2958 0.3255 0.180162 0.072 0.21929 0.24884 0.3124
3423.936 0.3005 0.185279 0.19603 0.1174 0.053 0.1045 0.1164 0.0911 0.17753 0.1371
3443.225 0.1167 0.2467 0.19591 0.20366 0.26308 0.20381 0.182572 0.1161 0.07 0.21297
3462.515 0.17655 0.17777 0.2402 0.17232 0.23718 0.123 0.028 0.1444 0.1489 0.0925
3481.805 0.135 0.042 0 0.19232 0.20189 0.0905 0.183465 0.2941 0.27152 0.3481
3501.095 0.3672 0.1983 0.18207 0.1062 0.052 0.155 0.053 0.0944 0.23753 0.27181
3520.385 0.25226 0.0955 0.1235 0.3914 0.4237 0.336 0.2681 0.186994 0.17702 0.1239
3539.674 0.1522 0.23535 0.23362 0.23481 0.2832 0.3557 0.3954 0.3737 0.3353 0.3366
3558.964 0.3995 0.4744 0.44 0.24672 0.3209 0.4515 0.3066 0.3639 0.3185 0.21036
3578.254 0.19667 0.17159 0.22829 0.3209 0.2841 0.1272 0.19163 0.2938 0.2873 0.348
3597.544 0.4421 0.35 0.2926 0.386 0.3656 0.19506 0.065 0.0987 0.2272 0.23056
3616.833 0.20301 0.26701 0.3388 0.25794 0.21756 0.289 0.2812 0.26508 0.2852 0.2905
3636.123 0.3211 0.4462 0.3744 0.29 0.24168 0.19057 0.3017 0.27769 0.26666 0.3664
3655.413 0.2916 0.19821 0.3184 0.2911 0.1098 0.1581 0.22568 0.25006 0.27042 0.27124
3674.703 0.3469 0.3439 0.26388 0.22386 0.3423 0.3352 0.20501 0.26507 0.3359 0.3702
3693.993 0.3549 0.3126 0.3408 0.3688 0.26777 0.133 0.041 0.087 0.21421 0.3277
3713.282 0.3123 0.2941 0.3674 0.23088 0.1649 0.3368 0.22322 0.21479 0.4041 0.26043
3732.572 0.17799 0.1679 0.1593 0.2843 0.25169 0.2939 0.3244 0.22584 0.2841 0.302
3751.862 0.3053 0.19406 0.1684 0.19648 0.1165 0.17329 0.1047 0.011 0.1483 0.25919
3771.152 0.369 0.4161 0.2807 0.21708 0.19699 0.1099 0.20842 0.3482 0.3194 0.25762
3790.441 0.22488 0.24607 0.286 0.3747 0.26611 0.1649 0.23971 0.4418 0.5043 0.3627
3809.731 0.27048 0.3577 0.5092 0.4094 0.3841 0.4303 0.4078 0.44 0.4942 0.5369
3829.021 0.6618 0.8086 0.6261 0.5359 0.6136 0.4678 0.5201 0.5949 0.583 0.625
3848.311 0.6329 0.624 0.6813 0.7981 0.7351 0.7026 0.723 0.6528 0.7538 0.8508
3867.601 0.6476 0.4521 0.5213 0.6865 0.7877 0.7982 0.8238 0.966 0.9636 0.8168
3886.890 0.6909 0.7181 0.6977 0.6345 0.8726 0.8152 0.7417 0.7204 0.538 0.703
3906.180 0.6594 0.5987 0.6811 0.6837 0.6905 0.5882 0.5005 0.4708 0.5452 0.7696
3925.470 0.8081 0.6623 0.7039 0.7061 0.6511 0.648 0.7317 0.6996 0.6521 0.625
3944.760 0.6511 0.7643 0.7617 0.7241 0.7087 0.7046 0.7103 0.8276 0.8474 0.7866
3964.049 0.7717 0.7711 0.8282 0.7826 0.7046 0.7441 0.6281 0.6151 0.7111 0.5695
3983.339 0.5906 0.5418 0.4268 0.5113 0.5937 0.6304 0.5613 0.5659 0.5651 0.5833
##END=
