##TITLE=Nylidrin
##JCAMP-DX=4.24
##DATA TYPE=INFRARED SPECTRUM
##ORIGIN=NIST Mass Spectrometry Data Center
##OWNER=NIST Standard Reference Data Program
Collection (C) 2018 copyright by the U.S. Secretary of Commerce
on behalf of the United States of America. All rights reserved.
##CAS REGISTRY NO=447-41-6
##MOLFORM=C 19 H 25 N O 2
##$NIST SOURCE=MSDC-IR
##SPECTROMETER/DATA SYSTEM=HP-GC/MS/IRD
##STATE=gas
##XUNITS=1/CM
##YUNITS=ABSORBANCE
##XFACTOR=1.0
##YFACTOR=0.000000400
##DELTAX=4.0
##FIRSTX=550.0
##LASTX=3846.0
##FIRSTY=0.000658
##MAXX=3846
##MINX=550
##MAXY=0.004
##MINY=0
##NPOINTS=825
##XYDATA=(X++(Y..Y))
550.0 1645 1061 1044 976 764 867 762 913 806 737
590.0 819 493 296 260 576 787 661 522 369 343
630.0 173 56 201 47 175 404 334 245 190 252
670.0 243 394 580 676 1040 1745 2370 2549 2059 1521
710.0 1461 1340 1192 1288 1445 1545 1653 1738 1604 1384
750.0 1256 1198 1347 1495 1325 1094 913 730 685 833
790.0 967 1065 1196 1382 1516 1526 1595 1570 1406 1656
830.0 1939 1793 1593 1445 1299 993 695 463 373 326
870.0 177 209 270 145 68 140 206 219 258 275
910.0 247 238 169 82 109 198 206 196 130 68
950.0 65 118 72 41 141 213 214 180 161 99
990.0 74 114 228 379 449 496 639 657 666 809
1030.0 841 775 639 553 525 564 682 688 628 684
1070.0 679 699 711 792 983 1136 1330 1426 1301 1199
1110.0 1186 1220 1315 1427 1627 1699 1679 1675 1720 2001
1150.0 2450 3253 4527 6314 8492 10000 9981 8851 7584 6472
1190.0 5380 4505 3763 3108 2708 2486 2332 2228 2273 2324
1230.0 2452 2580 2748 3218 4005 5212 6125 5836 4293 2650
1270.0 1852 1555 1314 1104 1049 1142 1153 1100 1126 1264
1310.0 1380 1554 1843 2133 2473 2802 2898 2726 2409 2055
1350.0 1778 1623 1575 1671 1938 2205 2344 2182 1816 1439
1390.0 1150 975 949 920 893 936 984 1170 1427 1730
1430.0 2126 2294 2282 2236 2223 2254 2168 1960 1750 1515
1470.0 1378 1256 1273 1519 1889 2443 3218 4095 5313 7379
1510.0 9081 8318 5678 3282 2022 1431 1111 961 865 791
1550.0 725 694 734 707 663 722 891 1007 1235 1568
1590.0 1902 2235 2426 2585 2655 2644 2611 2449 2128 1879
1630.0 1832 1911 2092 2582 3422 4571 5724 6136 5368 3884
1670.0 2552 1748 1260 944 733 583 535 477 424 390
1710.0 378 380 386 373 329 294 253 239 274 266
1750.0 275 263 212 212 216 212 240 219 147 172
1790.0 211 208 251 213 112 137 132 113 146 136
1830.0 115 136 161 161 201 227 257 290 255 242
1870.0 300 308 264 242 218 206 195 130 97 148
1910.0 130 122 127 148 158 146 177 219 239 271
1950.0 274 211 195 136 124 128 90 105 133 115
1990.0 73 79 109 120 95 130 139 119 114 108
2030.0 177 249 197 111 132 185 162 75 25 55
2070.0 82 72 124 146 128 140 154 113 105 167
2110.0 155 120 77 70 95 67 43 77 103 74
2150.0 74 115 65 27 81 105 69 44 83 116
2190.0 115 103 134 169 148 102 68 79 131 128
2230.0 94 102 78 58 78 104 144 143 111 127
2270.0 118 116 150 164 132 114 116 99 101 138
2310.0 192 175 152 159 158 190 185 181 184 172
2350.0 189 206 206 173 158 128 94 100 105 124
2390.0 141 128 137 143 119 114 171 187 151 167
2430.0 173 154 149 147 115 129 160 123 111 127
2470.0 69 88 127 61 74 101 91 114 165 177
2510.0 132 134 127 49 24 94 103 81 112 116
2550.0 114 80 55 66 75 47 84 122 82 93
2590.0 166 159 85 64 95 109 112 103 80 89
2630.0 40 39 92 68 97 151 134 101 97 83
2670.0 103 137 113 77 75 132 165 170 119 101
2710.0 149 123 122 128 130 122 73 111 150 144
2750.0 166 168 238 269 210 210 190 184 175 211
2790.0 286 268 268 300 316 340 356 425 475 495
2830.0 554 597 722 853 1030 1309 1570 1780 1973 2177
2870.0 2461 2603 2482 2229 2017 1956 2031 2133 2319 2617
2910.0 2965 3454 4081 4556 4877 5191 5395 5251 4842 4347
2950.0 3802 3307 3123 3288 3920 4794 4809 3851 2812 2066
2990.0 1720 1681 1605 1609 1811 2089 2283 2466 2791 3305
3030.0 3763 3722 3240 2637 2224 2009 1908 2025 2355 2685
3070.0 2754 2488 2051 1753 1530 1360 1214 1087 989 843
3110.0 792 721 605 459 298 183 127 230 266 212
3150.0 171 152 189 214 171 184 230 178 182 165
3190.0 139 225 126 55 110 145 195 192 127 108
3230.0 170 147 75 122 92 59 125 79 70 135
3270.0 100 121 122 85 137 184 231 249 159 98
3310.0 119 65 0 72 111 94 159 128 60 129
3350.0 148 112 111 105 141 139 113 132 166 136
3390.0 44 25 6 96 156 54 24 59 59 111
3430.0 130 122 128 38 68 104 86 48 38 104
3470.0 162 202 183 162 200 295 220 124 109 135
3510.0 152 88 92 182 207 166 167 173 163 112
3550.0 118 151 164 196 235 207 173 213 221 212
3590.0 254 271 255 316 339 310 266 337 416 504
3630.0 701 859 1301 2204 3466 4740 4835 3377 1878 1135
3670.0 737 551 502 449 370 394 322 245 200 165
3710.0 264 291 263 276 229 238 329 302 266 316
3750.0 364 376 314 296 278 286 273 222 265 251
3790.0 212 253 260 243 204 184 291 326 262 300
3830.0 376 340 328 362 254
##END=
