##TITLE=2-Trifluoromethylbenzonitrile
##JCAMP-DX=4.24
##DATA TYPE=INFRARED SPECTRUM
##ORIGIN=EPA-IR VAPOR PHASE LIBRARY
##OWNER=SRD/NIST
Collection (C) 2018 copyright by the U.S. Secretary of Commerce
on behalf of the United States of America. All rights reserved.
##CAS REGISTRY NO=447-60-9
##MOLFORM=C 8 H 4 F 3 N
##$NIST SOURCE=MSDC-IR
##STATE=gas
##XUNITS=1/CM
##YUNITS=ABSORBANCE
##XFACTOR=1.
##YFACTOR=0.001
##DELTAX=1.92934
##FIRSTX=549.9
##LASTX=3999.5
##FIRSTY=12.6
##MAXX=3999.53
##MINX=549.863
##MAXY=0.2595
##MINY=0
##NPOINTS=1789
##XYDATA=(X++(Y..Y))
549.863 12.6 10 8.94 8.28 7.64 6.85 5.99 5.19 4.5 3.98
569.156 3.72 3.63 3.4054 3.4003 3.66 3.88 4.05 4.49 4.86 5.11
588.450 5.49 5.84 6.41 7.34 7.67 6.78 5.99 5.74 5.52 5.24
607.743 4.94 4.56 4.19 3.88 3.61 3.4932 3.3989 3.3653 3.3655 3.3701
627.037 3.4141 3.4405 3.5187 3.68 3.93 4.47 5.27 6.7 9.14 12.2
646.330 14.9 16.03 16.28 19.01 19.6 17.06 17.05 16.46 13.47 9.66
665.624 6.72 5.14 4.12 3.4514 3.1852 3.1088 3.1071 3.0663 2.9932 3.0557
684.917 3.1167 3.0988 3.0995 3.1009 3.0063 2.9454 2.9736 2.9737 2.9218 2.9221
704.210 2.9374 2.9134 2.935 2.9127 2.9069 3.0326 3.196 3.3842 3.71 4.19
723.504 4.76 5.43 6.29 7.3 8.28 9.29 10.49 11.79 13.11 14.57
742.797 16.19 18.14 20.96 25.16 30.59 35.6 39.39 42.82 46 49.22
762.091 55.66 69.84 84.93 77.29 54.85 43.6 39.92 35.75 30.33 24.12
781.384 18.26 13.35 9.79 7.46 6.09 5.41 5.06 4.89 4.83 4.82
800.678 4.79 4.65 4.5 4.35 4.11 3.79 3.5115 3.2656 3.0662 2.9604
819.971 2.8785 2.7437 2.60535 2.629 2.61813 2.5467 2.5397 2.4671 2.453 2.5161
839.264 2.64621 2.7745 2.856 2.9748 3.0721 3.1576 3.2986 3.4398 3.56 3.61
858.558 3.63 3.68 3.68 3.63 3.62 3.62 3.5537 3.4534 3.3416 3.2406
877.851 3.1303 3.0168 2.8585 2.7188 2.65702 2.62993 2.6726 2.8136 2.9245 2.9846
897.145 3.0826 3.212 3.3717 3.4682 3.63 3.88 4.04 4.12 4.15 4.2
916.438 4.2 4.11 4.06 3.94 3.73 3.5578 3.4207 3.26 3.129 3.0585
935.732 2.9826 2.9068 2.9619 3.1099 3.339 3.67 4 4.37 4.73 5.12
955.025 5.79 6.72 7.27 6.74 5.68 5.18 5.05 4.8 4.38 3.95
974.318 3.62 3.2941 3.0805 2.9499 2.817 2.7894 2.7793 2.7677 2.8161 2.8287
993.612 2.8296 2.8727 2.9189 2.9744 3.0244 3.1269 3.3016 3.467 3.71 4.07
1012.905 4.67 5.6 6.97 9.03 11.9 15.76 20.57 26.1 31.72 36.1
1032.199 38.48 40.04 41.82 41.44 39.62 39.24 38.74 37.91 38.81 42.28
1051.492 47.11 51.5 55.13 58.63 60.72 60.2 58.31 54.08 46.09 36.29
1070.786 27.45 20.84 16.36 13.47 11.72 10.69 10.04 9.59 9.22 8.88
1090.079 8.57 8.46 8.69 9.26 10.3 11.95 14.42 18.03 22.99 29.19
1109.372 35.9 42.23 47.84 53.04 57.78 60.97 62.62 62.93 61.11 57.4
1128.666 53.43 50.76 50.24 52.04 55.71 61 68.35 77.81 89.41 103.12
1147.959 118.65 135.53 152.65 168.86 183.73 197.24 209.67 222.09 235.07 247.96
1167.253 257.59 259.5 253.37 245.46 240.84 235.92 225.58 210 192.7 177.03
1186.546 164.43 154.3 144.82 134.42 122.42 109.56 97.08 85.98 76.32 67.47
1205.840 58.77 50.13 41.76 34.17 27.93 23.09 19.63 17.15 15.24 13.87
1225.133 12.78 11.85 11.17 10.64 10.15 9.8 9.62 9.44 9.28 9.27
1244.426 9.41 9.8 10.47 11.53 13.16 15.63 19.15 23.6 28.78 34.06
1263.720 38.76 42.62 45.71 47.7 48.44 48.72 48.58 47.59 46.04 44.66
1283.013 44.18 44.92 46.65 49.05 51.79 54.67 57.81 61.63 66.93 74.83
1302.307 86.4 102.56 123.82 149.77 178.17 205.41 227.73 242.03 247.65 245.73
1321.600 235.26 214.48 187.26 156.14 120.36 85.28 58.08 40.66 30.61 24.84
1340.894 21.3 18.99 17.5 16.53 15.88 15.43 15.05 14.66 14.16 13.43
1360.187 12.55 11.54 10.36 9.24 8.25 7.36 6.65 6.07 5.53 5.21
1379.480 5.08 4.97 4.88 4.82 4.82 4.84 4.92 4.99 5.02 5.02
1398.774 4.94 4.83 4.69 4.57 4.44 4.27 4.13 3.95 3.74 3.5543
1418.067 3.5022 3.5219 3.5147 3.61 3.8 4.04 4.42 4.94 5.65 6.69
1437.361 8.04 9.67 11.62 13.6 15.32 16.44 16.94 16.99 16.83 16.71
1456.654 16.17 14.68 12.56 10.34 8.47 7.13 6.3 5.86 5.75 5.83
1475.948 6.06 6.41 6.88 7.5 8.2 8.89 9.41 9.76 9.89 9.81
1495.241 9.6 9.31 8.86 8.18 7.33 6.48 5.62 4.87 4.33 3.89
1514.534 3.6 3.4443 3.3567 3.355 3.3762 3.4079 3.4134 3.4419 3.5155 3.5238
1533.828 3.4666 3.3852 3.3521 3.3095 3.2332 3.1164 3.0072 2.9534 2.9874 3.0148
1553.121 3.0668 3.1993 3.3194 3.5158 3.77 4.09 4.54 5.19 6.02 6.93
1572.415 7.87 8.78 9.56 10.05 10.38 10.53 10.43 10.08 9.47 8.65
1591.708 7.83 7.14 6.68 6.45 6.32 6.23 6.11 5.86 5.58 5.26
1611.002 4.89 4.52 4.2 3.92 3.74 3.77 3.94 4.18 4.45 4.74
1630.295 5.09 5.46 5.82 6.15 6.3 6.39 6.44 6.31 6.07 5.74
1649.588 5.34 5.01 4.67 4.23 3.88 3.56 3.2959 3.0791 2.9162 2.837
1668.882 2.733 2.62425 2.5495 2.5154 2.5034 2.453 2.435 2.4928 2.5102 2.459
1688.175 2.411 2.438 2.451 2.452 2.5296 2.6064 2.6663 2.7125 2.7589 2.7924
1707.469 2.856 2.9598 3.0256 3.1323 3.2846 3.3542 3.3668 3.3783 3.3782 3.3552
1726.762 3.3582 3.3222 3.2484 3.1789 3.0516 2.9281 2.86 2.7787 2.7347 2.7567
1746.056 2.7466 2.7267 2.7544 2.7767 2.7362 2.6911 2.712 2.7534 2.737 2.6836
1765.349 2.64124 2.59772 2.57279 2.58845 2.5494 2.457 2.412 2.401 2.399 2.4
1784.642 2.401 2.45 2.4787 2.476 2.491 2.5049 2.5297 2.57764 2.58192 2.56823
1803.936 2.58356 2.56859 2.57586 2.63878 2.6957 2.7382 2.7807 2.8853 3.024 3.1579
1823.229 3.3391 3.5509 3.79 4.01 4.18 4.29 4.28 4.23 4.15 3.99
1842.523 3.8 3.58 3.3548 3.162 2.99 2.8818 2.856 2.8721 2.9315 2.9997
1861.816 3.0717 3.1255 3.11 3.1121 3.0784 2.9921 2.9086 2.7956 2.6708 2.58348
1881.110 2.5045 2.417 2.397 2.412 2.385 2.353 2.37 2.4685 2.5464 2.58177
1900.403 2.62061 2.6891 2.8044 2.891 2.9365 2.9776 3.014 3.0462 3.0574 3.031
1919.696 3.0767 3.0932 3.0511 3.0574 3.0999 3.1993 3.3382 3.5523 3.8 4.01
1938.990 4.18 4.32 4.37 4.33 4.26 4.14 4.01 3.84 3.57 3.3623
1958.283 3.1989 3.1104 3.1256 3.2145 3.3558 3.5014 3.63 3.7 3.75 3.74
1977.577 3.7 3.6 3.4205 3.2208 2.9708 2.7204 2.4997 2.332 2.233 2.183
1996.870 2.148 2.108 2.077 2.063 2.057 1.99 1.946 1.98 1.991 1.993
2016.164 1.975 1.96 1.961 1.969 1.973 1.992 1.986 1.982 1.988 1.958
2035.457 1.976 2.02 2.034 2.022 2.022 2.022 2.026 2.016 2.028 2.065
2054.750 2.07 2.054 2.067 2.077 2.048 2.062 2.077 2.044 2.029 1.997
2074.044 2 1.993 1.952 1.941 1.917 1.908 1.902 1.851 1.833 1.874
2093.337 1.882 1.864 1.846 1.825 1.884 1.945 1.913 1.921 1.976 2.043
2112.631 2.092 2.123 2.143 2.142 2.164 2.165 2.121 2.083 2.053 1.964
2131.924 1.897 1.856 1.816 1.775 1.745 1.746 1.737 1.75 1.776 1.774
2151.218 1.75 1.758 1.734 1.707 1.758 1.775 1.74 1.738 1.728 1.746
2170.511 1.783 1.784 1.779 1.797 1.808 1.814 1.807 1.829 1.857 1.87
2189.804 1.906 1.92 1.952 1.979 1.98 2.011 2.003 1.994 2.057 2.088
2209.098 2.081 2.096 2.13 2.157 2.199 2.294 2.412 2.5058 2.62738 2.7517
2228.391 2.8581 2.9521 3.0335 3.125 3.147 3.1175 3.1041 3.0583 2.9447 2.8266
2247.685 2.724 2.62496 2.56173 2.4796 2.403 2.341 2.32 2.318 2.285 2.249
2266.978 2.238 2.254 2.258 2.272 2.301 2.313 2.335 2.383 2.42 2.432
2286.272 2.452 2.4652 2.4793 2.4608 2.394 2.393 2.393 2.341 2.315 2.323
2305.565 2.297 2.276 2.273 2.303 2.3 2.281 2.359 2.407 2.419 2.416
2324.858 2.456 2.5127 2.5468 2.64816 2.7143 2.7207 2.7235 2.7651 2.7983 2.7861
2344.152 2.7811 2.7434 2.62552 2.5297 2.5074 2.5046 2.5062 2.44 2.418 2.424
2363.445 2.426 2.427 2.363 2.34 2.347 2.327 2.267 2.208 2.157 2.12
2382.739 2.117 2.077 2.037 2.021 1.967 1.91 1.875 1.835 1.793 1.78
2402.032 1.775 1.721 1.656 1.622 1.601 1.573 1.592 1.598 1.564 1.563
2421.326 1.577 1.56 1.578 1.614 1.576 1.56 1.583 1.575 1.561 1.566
2440.619 1.55 1.57 1.594 1.567 1.564 1.601 1.562 1.55 1.625 1.638
2459.912 1.624 1.626 1.673 1.715 1.686 1.656 1.673 1.722 1.782 1.828
2479.206 1.844 1.825 1.794 1.804 1.823 1.843 1.83 1.782 1.743 1.704
2498.499 1.677 1.677 1.65 1.576 1.54 1.56 1.563 1.54 1.53 1.51
2517.793 1.48 1.46 1.42 1.44 1.41 1.38 1.42 1.38 1.37 1.38
2537.086 1.35 1.36 1.36 1.37 1.37 1.34 1.34 1.36 1.35 1.38
2556.380 1.37 1.32 1.3 1.32 1.32 1.32 1.33 1.34 1.34 1.31
2575.673 1.31 1.33 1.33 1.3 1.28 1.31 1.31 1.3 1.29 1.28
2594.966 1.3 1.3 1.3 1.32 1.36 1.41 1.42 1.42 1.41 1.39
2614.260 1.45 1.5 1.44 1.39 1.35 1.34 1.33 1.32 1.32 1.27
2633.553 1.29 1.3 1.27 1.27 1.26 1.21 1.14 1.15 1.19 1.1
2652.847 1.02 1.08 1.04 1.04 1.08 1.04 1.03 1.03 0.99 0.91
2672.140 0.92 0.97 0.97 0.98 0.94 0.95 1 0.97 0.89 0.86
2691.434 0.89 0.91 0.95 0.99 0.98 0.96 0.92 0.85 0.82 0.84
2710.727 0.87 0.83 0.8 0.85 0.88 0.89 0.9 0.87 0.85 0.9
2730.020 0.86 0.8 0.8 0.82 0.8 0.76 0.76 0.74 0.78 0.78
2749.314 0.78 0.8 0.82 0.81 0.77 0.81 0.86 0.86 0.89 0.88
2768.607 0.85 0.85 0.88 0.92 0.87 0.79 0.8 0.86 0.87 0.83
2787.901 0.83 0.83 0.86 0.85 0.8 0.76 0.74 0.7 0.63 0.66
2807.194 0.63 0.56 0.64 0.62 0.53 0.53 0.49 0.44 0.42 0.47
2826.488 0.5 0.41 0.47 0.46 0.35 0.36 0.3 0.29 0.38 0.44
2845.781 0.43 0.37 0.32 0.29 0.25 0.31 0.37 0.3 0.25 0.27
2865.074 0.3 0.33 0.3 0.38 0.45 0.37 0.28 0.3 0.35 0.37
2884.368 0.35 0.35 0.37 0.37 0.41 0.44 0.46 0.57 0.66 0.65
2903.661 0.51 0.41 0.45 0.46 0.46 0.37 0.34 0.43 0.47 0.46
2922.955 0.41 0.39 0.33 0.25 0.24 0.18 0.12 0.14 0.08 0.09
2942.248 0.11 0.06 0.11 0.13 0.1 0.04 0 0.08 0.15 0.12
2961.542 0.07 0.07 0.16 0.13 0.07 0.06 0.12 0.22 0.19 0.09
2980.835 0.17 0.25 0.21 0.11 0.07 0.15 0.23 0.2 0.15 0.17
3000.128 0.34 0.45 0.48 0.52 0.52 0.54 0.61 0.69 0.74 0.75
3019.422 0.67 0.57 0.57 0.64 0.62 0.54 0.56 0.74 0.86 0.91
3038.715 0.96 1.04 1.11 1.16 1.28 1.41 1.42 1.41 1.54 1.655
3058.009 1.864 2.094 2.361 2.7403 3.0506 3.3557 3.76 4.31 4.87 5.52
3077.302 6.26 7 7.54 7.86 8.19 8.25 7.94 7.54 6.93 6.07
3096.596 5.14 4 2.9962 2.208 1.593 1.28 1.07 1.03 0.97 0.82
3115.889 0.74 0.69 0.67 0.72 0.67 0.59 0.59 0.48 0.41 0.48
3135.182 0.47 0.45 0.42 0.4 0.44 0.51 0.58 0.53 0.62 0.63
3154.476 0.55 0.66 0.68 0.68 0.65 0.57 0.51 0.6 0.73 0.7
3173.769 0.61 0.6 0.64 0.66 0.62 0.63 0.58 0.49 0.48 0.49
3193.063 0.59 0.48 0.28 0.34 0.47 0.49 0.55 0.53 0.44 0.42
3212.356 0.46 0.46 0.43 0.53 0.52 0.46 0.46 0.43 0.44 0.36
3231.650 0.39 0.46 0.41 0.41 0.61 0.68 0.52 0.49 0.5 0.57
3250.943 0.55 0.48 0.46 0.42 0.49 0.6 0.66 0.63 0.71 0.74
3270.236 0.72 0.8 0.77 0.76 0.81 0.72 0.68 0.68 0.66 0.7
3289.530 0.64 0.63 0.77 0.74 0.69 0.82 0.86 0.74 0.72 0.79
3308.823 0.82 0.8 0.82 0.8 0.88 0.95 0.95 0.98 0.9 0.93
3328.117 0.92 0.97 0.99 0.84 0.81 0.9 0.93 1 1.03 1.04
3347.410 1.14 1.18 1.21 1.11 1.11 1.27 1.24 1.2 1.14 1.14
3366.704 1.05 0.91 0.95 0.98 1.02 1.01 1.02 1.12 1.04 1.06
3385.997 1.12 1.17 1.25 1.19 1.18 1.2 1.28 1.39 1.29 1.18
3405.290 1.15 1.22 1.31 1.39 1.43 1.42 1.5 1.43 1.42 1.578
3424.584 1.562 1.54 1.54 1.42 1.45 1.56 1.52 1.5 1.48 1.4
3443.877 1.39 1.41 1.42 1.42 1.43 1.44 1.39 1.35 1.38 1.42
3463.171 1.49 1.4 1.3 1.36 1.4 1.49 1.46 1.45 1.45 1.4
3482.464 1.47 1.41 1.41 1.48 1.55 1.43 1.43 1.581 1.45 1.42
3501.758 1.51 1.63 1.659 1.576 1.585 1.622 1.636 1.576 1.5 1.44
3521.051 1.51 1.49 1.43 1.5 1.568 1.675 1.645 1.616 1.682 1.664
3540.344 1.643 1.618 1.666 1.676 1.652 1.73 1.632 1.55 1.76 1.844
3559.638 1.666 1.56 1.644 1.707 1.588 1.642 1.657 1.706 1.799 1.636
3578.931 1.52 1.54 1.609 1.599 1.602 1.604 1.64 1.708 1.672 1.722
3598.225 1.729 1.683 1.621 1.56 1.55 1.603 1.574 1.613 1.721 1.55
3617.518 1.48 1.52 1.52 1.608 1.579 1.62 1.683 1.656 1.675 1.722
3636.812 1.658 1.592 1.621 1.679 1.646 1.55 1.594 1.52 1.56 1.625
3656.105 1.64 1.715 1.674 1.653 1.642 1.582 1.584 1.587 1.629 1.727
3675.398 1.691 1.695 1.776 1.795 1.76 1.759 1.807 1.813 1.823 1.866
3694.692 1.891 1.843 1.775 1.719 1.67 1.687 1.679 1.699 1.714 1.743
3713.985 1.89 1.909 1.844 1.83 1.804 1.762 1.76 1.73 1.698 1.668
3733.279 1.664 1.699 1.685 1.7 1.778 1.765 1.747 1.774 1.724 1.64
3752.572 1.673 1.705 1.701 1.784 1.726 1.599 1.604 1.67 1.793 1.811
3771.866 1.707 1.679 1.608 1.53 1.628 1.693 1.597 1.55 1.54 1.55
3791.159 1.54 1.54 1.58 1.693 1.662 1.652 1.687 1.629 1.678 1.7
3810.452 1.698 1.733 1.714 1.731 1.727 1.667 1.647 1.573 1.611 1.728
3829.746 1.726 1.645 1.682 1.702 1.649 1.711 1.759 1.69 1.642 1.633
3849.039 1.605 1.623 1.616 1.687 1.728 1.617 1.55 1.56 1.648 1.737
3868.333 1.796 1.848 1.803 1.715 1.745 1.821 1.911 1.866 1.767 1.801
3887.626 1.926 1.93 1.829 1.765 1.735 1.77 1.67 1.609 1.642 1.627
3906.920 1.54 1.43 1.47 1.51 1.52 1.562 1.54 1.49 1.46 1.5
3926.213 1.5 1.51 1.49 1.47 1.45 1.44 1.44 1.46 1.5 1.5
3945.506 1.44 1.43 1.42 1.39 1.45 1.46 1.44 1.44 1.38 1.36
3964.800 1.44 1.51 1.44 1.43 1.46 1.39 1.41 1.32 1.18 1.28
3984.093 1.38 1.38 1.37 1.36 1.38 1.39 1.46 1.51 1.42
##END=
