##TITLE=N-Tritylaniline
##JCAMP-DX=4.24
##DATA TYPE=INFRARED SPECTRUM
##ORIGIN=EPA-IR VAPOR PHASE LIBRARY
##OWNER=SRD/NIST
Collection (C) 2018 copyright by the U.S. Secretary of Commerce
on behalf of the United States of America. All rights reserved.
##CAS REGISTRY NO=4471-22-1
##MOLFORM=C 25 H 21 N
##$NIST SOURCE=MSDC-IR
##STATE=gas
##XUNITS=1/CM
##YUNITS=ABSORBANCE
##XFACTOR=1.
##YFACTOR=0.001
##DELTAX=1.92898
##FIRSTX=549.8
##LASTX=4000.7
##FIRSTY=0.4699
##MAXX=4000.7
##MINX=549.759
##MAXY=0.010682
##MINY=0
##NPOINTS=1790
##XYDATA=(X++(Y..Y))
549.759 0.4699 0.5927 0.6413 0.5424 0.421 0.32525 0.29805 0.4147 0.3655 0.2254
569.049 0.1825 0.4517 0.5673 0.29499 0.30114 0.4874 0.809 0.9976 0.9112 1.1175
588.339 1.2242 1.0809 0.9364 1.0466 1.272 1.332 1.452 1.392 1.292 1.362
607.628 1.472 1.362 1.292 1.252 1.0454 0.9615 1.252 1.592 1.532 1.542
626.918 1.602 1.562 1.572 1.562 1.612 1.732 1.772 1.572 1.442 1.322
646.208 1.2328 1.282 1.532 1.642 1.532 1.602 1.732 1.662 1.452 1.372
665.498 1.492 1.692 1.672 1.792 2.042 2.252 2.422 2.502 2.872 3.382
684.787 3.782 4.372 5.102 5.812 6.502 7.322 8.122 8.812 9.432 9.452
704.077 8.812 7.622 6.422 5.502 4.582 3.772 3.172 2.662 2.502 2.552
723.367 2.302 2.092 2.082 2.232 2.322 2.442 2.882 3.362 3.862 4.522
742.657 5.122 5.682 5.972 5.682 5.142 4.592 4.162 3.672 3.242 3.302
761.947 3.402 3.112 2.752 2.402 2.002 1.702 1.532 1.422 1.075 0.989
781.236 1.0001 0.8189 0.9649 1.1012 0.9256 0.9108 0.8293 0.593 0.7357 0.8999
800.526 0.8607 0.7132 0.7698 0.8408 0.7701 0.7537 0.7548 0.7793 0.9016 0.8233
819.816 0.7407 0.7667 0.8265 0.8433 0.685 0.7995 0.8987 0.9035 0.7959 0.6485
839.106 0.7705 0.7681 0.6313 0.5713 0.688 0.8046 0.5644 0.4898 0.5866 0.6114
858.395 0.6556 0.5971 0.5607 0.6008 0.8326 0.9689 0.8258 0.7357 0.8188 0.8166
877.685 0.6625 0.634 0.6856 0.6593 0.7368 0.927 0.9908 1.1258 1.332 1.462
896.975 1.412 1.342 1.362 1.2395 1.1949 1.135 1.0117 0.8988 0.8592 0.905
916.265 0.8884 0.888 0.856 0.708 0.7583 0.8101 0.6417 0.6839 0.8114 0.8396
935.555 0.7806 0.5009 0.4164 0.6668 0.5953 0.5724 0.6178 0.4983 0.4801 0.5442
954.844 0.614 0.4628 0.4501 0.5576 0.6326 0.5626 0.5115 0.6641 0.7049 0.561
974.134 0.4551 0.5526 0.644 0.4347 0.25632 0.4013 0.5576 0.8502 0.7789 0.4759
993.424 0.6682 0.7412 0.662 0.8732 0.9402 0.8626 0.6523 0.688 0.969 1.2041
1012.714 1.1614 1.0035 1.1499 0.8399 0.6956 0.9962 1.412 1.922 2.162 1.992
1032.003 2.042 2.022 1.732 1.572 1.352 1.272 1.1178 1.1254 1.1722 1.1736
1051.293 1.0145 0.7494 0.5304 0.5158 0.6649 0.702 0.8634 0.9089 0.8679 0.6354
1070.583 0.31458 0.3857 0.6822 0.6884 0.7021 0.9403 1.342 1.372 1.0433 1.0314
1089.873 1.0549 0.8036 0.7461 1.1887 0.9791 0.5788 0.7821 0.9217 0.7274 0.5705
1109.163 0.7524 0.5864 0.248427 0.1573 0.33353 0.3636 0.048 0.2831 0.5857 0.6634
1128.452 0.438 0.1912 0.26217 0.26928 0.425 0.4482 0.27306 0.5667 0.9445 0.9066
1147.742 1.0411 1.442 1.662 1.532 1.382 1.292 1.292 1.422 1.1606 0.9402
1167.032 1.242 1.342 1.372 1.372 1.2043 1.542 1.792 1.812 2.262 2.152
1186.322 1.662 1.742 1.812 1.802 1.802 1.462 1.0745 1.442 1.702 1.352
1205.611 1.0099 0.7319 0.7751 0.7698 0.7006 0.8863 0.9189 0.8826 1.1055 1.1668
1224.901 1.196 1.1386 1.1262 1.262 1.492 1.742 1.752 1.872 2.392 2.742
1244.191 2.692 2.722 2.712 2.672 2.552 2.202 1.952 1.802 1.572 1.382
1263.481 1.502 1.642 1.572 1.762 1.982 2.002 2.272 2.352 2.272 2.302
1282.771 2.122 2.132 2.202 2.122 2.332 2.632 2.842 2.982 3.112 3.332
1302.060 3.482 3.482 3.412 3.292 3.102 2.772 2.602 2.532 2.362 2.192
1321.350 2.002 1.832 1.662 1.572 1.492 1.372 1.282 1.2347 1.223 1.1758
1340.640 1.112 1.0856 0.963 0.8112 0.7682 0.7358 0.7359 0.8078 0.8132 0.7118
1359.930 0.6329 0.6326 0.619 0.6039 0.6169 0.6549 0.6701 0.6802 0.7159 0.6937
1379.219 0.7073 0.7228 0.6743 0.6781 0.718 0.692 0.6421 0.6629 0.6768 0.7189
1398.509 0.734 0.6721 0.6984 0.8275 0.8819 0.829 0.8608 0.99 1.094 1.2066
1417.799 1.412 1.622 1.752 1.872 1.952 1.982 1.892 1.742 1.652 1.622
1437.089 1.762 1.962 2.222 2.532 2.762 2.842 2.662 2.392 2.082 1.812
1456.378 1.622 1.432 1.432 1.562 1.652 1.742 1.852 2.012 2.292 2.642
1475.668 2.972 3.382 3.812 4.292 5.022 5.922 6.822 7.852 8.952 9.882
1494.958 10.512 10.682 10.262 9.222 7.832 6.442 5.142 4.132 3.412 2.862
1514.248 2.412 2.092 1.812 1.592 1.502 1.422 1.292 1.2398 1.1944 1.1417
1533.538 1.1064 1.0155 0.9789 0.9546 0.9702 1.0341 1.0227 1.0613 1.0917 1.0676
1552.827 1.0099 1.0174 1.1187 1.159 1.1766 1.228 1.292 1.362 1.482 1.552
1572.117 1.622 1.752 1.912 2.122 2.312 2.602 3.042 3.492 3.932 4.482
1591.407 5.132 5.822 6.552 6.992 7.002 6.772 6.292 5.582 4.702 3.872
1610.697 3.282 2.822 2.462 2.162 1.962 1.842 1.662 1.552 1.442 1.352
1629.986 1.312 1.1779 1.0653 1.0102 0.9315 0.9025 0.8003 0.7619 0.7623 0.7025
1649.276 0.7224 0.7549 0.7276 0.6493 0.6218 0.6543 0.6567 0.6026 0.5861 0.6547
1668.566 0.7325 0.7108 0.6743 0.7148 0.7595 0.7886 0.7901 0.8131 0.834 0.7866
1687.856 0.693 0.5671 0.5297 0.5443 0.5439 0.5194 0.5165 0.5948 0.5986 0.6061
1707.146 0.6147 0.5727 0.5052 0.4851 0.5517 0.5776 0.5558 0.5302 0.4854 0.4803
1726.435 0.5125 0.5141 0.5376 0.5521 0.5163 0.4811 0.5047 0.5222 0.5231 0.5396
1745.725 0.5887 0.6309 0.5921 0.5448 0.5842 0.6358 0.6333 0.6642 0.676 0.6686
1765.015 0.6487 0.5994 0.5694 0.5642 0.5876 0.5987 0.5997 0.6446 0.6558 0.6304
1784.305 0.6251 0.6353 0.6352 0.604 0.6062 0.6596 0.6614 0.6904 0.7702 0.8119
1803.594 0.8633 0.8656 0.825 0.804 0.7571 0.7241 0.7286 0.7206 0.6699 0.6226
1822.884 0.5937 0.5458 0.5223 0.5068 0.5194 0.5391 0.5451 0.5377 0.558 0.5456
1842.174 0.4805 0.5009 0.5177 0.5051 0.5119 0.4943 0.4776 0.5209 0.543 0.5236
1861.464 0.5222 0.5087 0.5135 0.5757 0.6128 0.6054 0.632 0.6909 0.7384 0.6855
1880.754 0.6363 0.647 0.64 0.6207 0.6395 0.6144 0.5815 0.6044 0.6193 0.6789
1900.043 0.6729 0.6441 0.6531 0.6362 0.621 0.6234 0.6139 0.5836 0.6158 0.637
1919.333 0.5998 0.5683 0.6113 0.6575 0.6449 0.6117 0.5752 0.5955 0.6579 0.6917
1938.623 0.6845 0.7384 0.8295 0.8728 0.8345 0.7913 0.7636 0.7479 0.7111 0.6624
1957.913 0.6681 0.6662 0.642 0.5752 0.4958 0.4937 0.5021 0.4574 0.4051 0.406
1977.202 0.4114 0.4262 0.4727 0.4699 0.4458 0.4573 0.4671 0.415 0.413 0.4429
1996.492 0.4482 0.4431 0.4 0.4034 0.3644 0.3572 0.4431 0.4245 0.3561 0.32687
2015.782 0.34192 0.3994 0.4295 0.4055 0.4389 0.4439 0.4398 0.4232 0.4021 0.4571
2035.072 0.4746 0.4168 0.34039 0.3447 0.4015 0.4233 0.4378 0.4205 0.3846 0.4243
2054.362 0.4654 0.4515 0.4576 0.4998 0.5257 0.5093 0.4818 0.4443 0.4035 0.4073
2073.651 0.4159 0.4402 0.4423 0.4159 0.4243 0.4132 0.4076 0.4098 0.3757 0.3644
2092.941 0.3436 0.3197 0.31989 0.30234 0.28948 0.31083 0.4199 0.4238 0.3558 0.3895
2112.231 0.385 0.3463 0.3789 0.4238 0.4157 0.3704 0.3489 0.3853 0.3526 0.31656
2131.521 0.3466 0.3535 0.32803 0.2874 0.31785 0.3984 0.3735 0.32316 0.32781 0.3618
2150.810 0.4422 0.4597 0.3926 0.3814 0.3728 0.3765 0.3938 0.3847 0.4123 0.4467
2170.100 0.4789 0.4592 0.4119 0.4003 0.4347 0.4415 0.4245 0.4327 0.4147 0.4096
2189.390 0.4154 0.3931 0.416 0.4504 0.4387 0.3812 0.30967 0.32675 0.3924 0.4184
2208.680 0.3979 0.3759 0.31891 0.31831 0.3794 0.3913 0.4026 0.4179 0.3927 0.4209
2227.970 0.4269 0.4111 0.4229 0.4218 0.4173 0.4289 0.436 0.4582 0.5029 0.4489
2247.259 0.4137 0.4493 0.4542 0.4316 0.4465 0.4537 0.4738 0.5098 0.4868 0.4296
2266.549 0.388 0.3524 0.31719 0.3219 0.33747 0.361 0.386 0.4045 0.3855 0.3635
2285.839 0.3832 0.3543 0.4076 0.4655 0.4123 0.4554 0.5197 0.4421 0.4342 0.4808
2305.129 0.5284 0.5465 0.497 0.4099 0.4226 0.4792 0.4529 0.4004 0.4303 0.5044
2324.418 0.4038 0.3676 0.3851 0.402 0.4676 0.4099 0.3812 0.4243 0.4475 0.4171
2343.708 0.3536 0.4266 0.4608 0.4349 0.4295 0.3946 0.3772 0.4126 0.4404 0.4346
2362.998 0.3992 0.3596 0.38 0.4283 0.4365 0.3764 0.3781 0.4269 0.4495 0.474
2382.288 0.4912 0.4566 0.3755 0.3769 0.382 0.4292 0.4354 0.3988 0.4702 0.4316
2401.578 0.3642 0.3893 0.4939 0.5356 0.4694 0.4116 0.3937 0.4251 0.4862 0.5167
2420.867 0.5211 0.5 0.4726 0.4438 0.3824 0.3964 0.4387 0.3839 0.3854 0.4394
2440.157 0.5008 0.4984 0.4434 0.3866 0.3686 0.45 0.4181 0.3668 0.3711 0.3507
2459.447 0.3721 0.3608 0.33176 0.3929 0.419 0.4283 0.4666 0.4636 0.4316 0.4492
2478.737 0.4364 0.3777 0.33176 0.3848 0.4149 0.3839 0.3734 0.32491 0.3656 0.4279
2498.026 0.3928 0.3902 0.4194 0.4108 0.4586 0.4853 0.4384 0.3968 0.3644 0.3872
2517.316 0.4105 0.3929 0.3749 0.4004 0.4285 0.4155 0.4212 0.4743 0.4604 0.4408
2536.606 0.4563 0.455 0.488 0.5142 0.4788 0.4513 0.463 0.4699 0.5319 0.5081
2555.896 0.4675 0.3999 0.33413 0.4582 0.549 0.515 0.4847 0.488 0.4638 0.4769
2575.186 0.4684 0.3825 0.30329 0.34056 0.4037 0.447 0.4411 0.461 0.5027 0.4626
2594.475 0.3888 0.3435 0.3729 0.4151 0.4396 0.4005 0.3868 0.387 0.3748 0.33689
2613.765 0.30295 0.3601 0.3848 0.3843 0.4064 0.3982 0.372 0.3909 0.3826 0.35
2633.055 0.3695 0.3639 0.3714 0.4804 0.5208 0.5037 0.5098 0.4575 0.4441 0.4317
2652.345 0.3963 0.33825 0.32112 0.3761 0.4748 0.4916 0.4931 0.4705 0.436 0.453
2671.634 0.4202 0.4762 0.5679 0.538 0.4305 0.3983 0.404 0.3839 0.4349 0.4437
2690.924 0.3899 0.4373 0.3953 0.3331 0.3777 0.3663 0.33277 0.3417 0.27287 0.245093
2710.214 0.3688 0.4161 0.4227 0.4786 0.4398 0.382 0.3721 0.3625 0.3484 0.29237
2729.504 0.27009 0.27963 0.32066 0.30441 0.31755 0.4103 0.4464 0.5084 0.4673 0.3745
2748.794 0.4567 0.456 0.4242 0.4394 0.4259 0.4378 0.4454 0.5007 0.5487 0.5788
2768.083 0.4726 0.3889 0.4047 0.4114 0.3683 0.3706 0.4051 0.3708 0.3445 0.3647
2787.373 0.5241 0.5452 0.444 0.4432 0.5038 0.5106 0.45 0.4748 0.4578 0.3864
2806.663 0.4213 0.3766 0.3621 0.3691 0.32314 0.33179 0.3976 0.4648 0.4612 0.3959
2825.953 0.4002 0.4443 0.4186 0.3863 0.3721 0.5425 0.6577 0.5946 0.5352 0.4663
2845.242 0.4095 0.5004 0.5995 0.4886 0.4396 0.4572 0.4401 0.4246 0.4146 0.3642
2864.532 0.371 0.4346 0.4124 0.4483 0.5456 0.5228 0.5164 0.5528 0.4846 0.4043
2883.822 0.3948 0.4311 0.4738 0.4719 0.4619 0.4228 0.4312 0.5636 0.4302 0.34048
2903.112 0.3896 0.3866 0.4348 0.4958 0.5105 0.4294 0.4215 0.4373 0.4172 0.4099
2922.401 0.4527 0.4858 0.469 0.4777 0.471 0.511 0.5179 0.4919 0.5155 0.5172
2941.691 0.5683 0.5352 0.4794 0.5734 0.6062 0.5243 0.3518 0.3544 0.4313 0.3905
2960.981 0.3855 0.4196 0.4498 0.3606 0.33742 0.4899 0.5753 0.4882 0.406 0.3811
2980.271 0.5334 0.6353 0.5922 0.6216 0.6744 0.6927 0.637 0.6734 0.7547 0.7171
2999.561 0.6429 0.7556 0.9661 1.1387 1.282 1.332 1.462 1.612 1.792 2.032
3018.850 2.332 2.612 2.732 2.722 2.812 2.932 2.942 2.982 3.062 3.102
3038.140 3.022 2.852 2.792 2.712 2.652 2.712 2.952 3.312 3.692 4.232
3057.430 4.852 5.432 5.832 6.242 6.662 6.942 6.902 6.482 5.982 5.282
3076.720 4.702 4.212 3.712 3.502 3.322 3.172 3.152 3.032 2.802 2.532
3096.009 2.302 2.092 1.862 1.762 1.632 1.452 1.382 1.292 1.2214 1.1213
3115.299 1.0474 0.9342 0.7675 0.6888 0.5473 0.5854 0.5605 0.5294 0.5858 0.5293
3134.589 0.5073 0.4696 0.4577 0.5143 0.4817 0.3467 0.31004 0.3991 0.4128 0.3649
3153.879 0.3514 0.4819 0.6013 0.5311 0.4882 0.4361 0.4534 0.4498 0.4015 0.3508
3173.169 0.28161 0.3698 0.4383 0.4222 0.4412 0.4494 0.4282 0.4099 0.30843 0.25771
3192.458 0.356 0.4077 0.4151 0.3782 0.3892 0.4568 0.5682 0.5348 0.4053 0.3563
3211.748 0.3654 0.4437 0.367 0.28784 0.31864 0.3702 0.3713 0.25839 0.2027 0.27011
3231.038 0.29748 0.3127 0.30622 0.3393 0.3737 0.4483 0.5297 0.3712 0.244077 0.23935
3250.328 0.25548 0.3887 0.4227 0.3534 0.3474 0.4284 0.478 0.3738 0.4117 0.4528
3269.617 0.4013 0.4037 0.25113 0.1472 0.2125 0.29484 0.26916 0.168 0.28356 0.3296
3288.907 0.247415 0.25405 0.26796 0.196 0.2224 0.30519 0.28143 0.26025 0.29888 0.4358
3308.197 0.4407 0.3698 0.442 0.4362 0.3974 0.4235 0.4422 0.3832 0.31782 0.31205
3327.487 0.30818 0.411 0.3829 0.26694 0.4008 0.3698 0.2173 0.27801 0.26882 0.4523
3346.777 0.6078 0.4461 0.33863 0.29997 0.25263 0.245786 0.3697 0.4143 0.33283 0.125
3366.066 0.113 0.25744 0.29225 0.23869 0.139 0.29941 0.44 0.27259 0.2103 0.29948
3385.356 0.25268 0.27043 0.32975 0.4123 0.5014 0.4829 0.4351 0.3789 0.4309 0.44
3404.646 0.4102 0.4454 0.4681 0.3905 0.3823 0.4432 0.5193 0.542 0.5779 0.576
3423.936 0.4999 0.5575 0.669 0.7372 0.7303 0.8306 0.8838 0.729 0.6623 0.6865
3443.225 0.6826 0.6923 0.5965 0.5172 0.5124 0.5749 0.5252 0.4154 0.5078 0.5505
3462.515 0.4895 0.4136 0.3716 0.3679 0.4452 0.4626 0.4079 0.3919 0.3473 0.3633
3481.805 0.3659 0.3949 0.3759 0.2242 0.26294 0.3441 0.3838 0.4642 0.3648 0.3434
3501.095 0.3809 0.31387 0.28095 0.26773 0.29779 0.4174 0.5184 0.4546 0.3751 0.3918
3520.385 0.4673 0.6232 0.5614 0.4079 0.362 0.30402 0.3746 0.2723 0.083 0.25228
3539.674 0.3941 0.3636 0.4186 0.4032 0.28181 0.3627 0.3742 0.2316 0.24824 0.29871
3558.964 0.1912 0.243419 0.3934 0.33636 0.33428 0.3564 0.28922 0.3445 0.3676 0.3916
3578.254 0.3951 0.3972 0.5574 0.4844 0.3706 0.3586 0.33923 0.27124 0.27757 0.179
3597.544 0 0.127 0.3654 0.3761 0.32602 0.3863 0.4568 0.4611 0.4251 0.3857
3616.833 0.5085 0.557 0.3956 0.4437 0.5213 0.4474 0.3593 0.4255 0.4841 0.4841
3636.123 0.4826 0.4422 0.4104 0.27314 0.1545 0.28424 0.3854 0.4585 0.4025 0.348
3655.413 0.4903 0.5648 0.4754 0.467 0.4645 0.28548 0.27032 0.28241 0.3748 0.4695
3674.703 0.45 0.4707 0.4343 0.33161 0.30594 0.3655 0.431 0.3704 0.2143 0.23762
3693.993 0.4062 0.5023 0.4999 0.4371 0.437 0.4582 0.3469 0.1973 0.23315 0.4128
3713.282 0.4203 0.2313 0.2183 0.3628 0.4097 0.3796 0.32265 0.3699 0.3758 0.2749
3732.572 0.30008 0.29191 0.1768 0.1458 0.073 0.125 0.27584 0.25284 0.1893 0.1853
3751.862 0.26394 0.4259 0.4118 0.4273 0.4202 0.3565 0.4738 0.447 0.4042 0.3653
3771.152 0.28071 0.3041 0.29192 0.26597 0.26846 0.2225 0.24064 0.29525 0.2249 0.251112
3790.441 0.26768 0.2025 0.1555 0.250814 0.3791 0.2207 0.249705 0.416 0.31249 0.26697
3809.731 0.3603 0.395 0.3646 0.3592 0.244741 0.25442 0.4472 0.4665 0.4899 0.4463
3829.021 0.4338 0.4517 0.3524 0.30444 0.33837 0.3461 0.4336 0.4294 0.2137 0.247175
3848.311 0.26425 0.23903 0.28765 0.23339 0.245926 0.2996 0.28026 0.33505 0.4655 0.3775
3867.601 0.26807 0.372 0.4176 0.3523 0.3833 0.372 0.3467 0.31098 0.3101 0.4085
3886.890 0.4031 0.4145 0.4855 0.4533 0.409 0.4075 0.33767 0.245767 0.1766 0.136
3906.180 0.1813 0.085 0.1866 0.4509 0.5556 0.4711 0.3581 0.27511 0.25451 0.4369
3925.470 0.4879 0.25287 0.03 0.1533 0.22 0.14 0.242006 0.31256 0.268 0.229
3944.760 0.1648 0.27322 0.30145 0.27358 0.25539 0.26728 0.27977 0.199 0.1964 0.30443
3964.049 0.4178 0.446 0.4353 0.30875 0.241728 0.32829 0.4029 0.3557 0.4191 0.5143
3983.339 0.5401 0.4986 0.31187 0.2985 0.3827 0.243392 0.1947 0.27085 0.368 0.33303
##END=
