##TITLE=(-)-2-Aminoheptane
##JCAMP-DX=4.24
##DATA TYPE=INFRARED SPECTRUM
##ORIGIN=EPA-IR VAPOR PHASE LIBRARY
##OWNER=SRD/NIST
Collection (C) 2018 copyright by the U.S. Secretary of Commerce
on behalf of the United States of America. All rights reserved.
##CAS REGISTRY NO=44745-29-1
##MOLFORM=C 7 H 17 N
##$NIST SOURCE=MSDC-IR
##STATE=gas
##XUNITS=1/CM
##YUNITS=ABSORBANCE
##XFACTOR=1.
##YFACTOR=0.001
##DELTAX=1.92898
##FIRSTX=549.8
##LASTX=4000.7
##FIRSTY=6.134
##MAXX=4000.7
##MINX=549.759
##MAXY=0.223064
##MINY=0
##NPOINTS=1790
##XYDATA=(X++(Y..Y))
549.759 6.134 5.494 4.404 5.284 5.894 5.484 5.834 6.494 6.134 5.074
569.049 5.674 6.944 7.474 7.264 6.924 6.274 5.884 6.754 7.134 6.724
588.339 6.424 6.304 6.394 7.134 7.204 6.314 5.614 5.594 6.084 6.404
607.628 6.384 6.334 6.454 6.194 6.184 5.714 5.844 6.494 6.334 6.244
626.918 6.074 5.894 6.194 6.374 6.394 6.374 6.624 6.924 7.404 7.114
646.208 6.314 6.844 7.834 8.074 8.244 8.144 7.594 7.994 8.534 8.694
665.498 8.894 9.354 9.084 9.114 9.554 9.564 9.804 9.724 9.504 9.684
684.787 10.434 10.984 11.284 11.274 11.354 11.814 11.914 11.854 12.684 13.624
704.077 13.764 13.894 14.454 15.124 15.484 16.144 16.954 17.484 17.984 18.664
723.367 19.314 20.114 20.934 21.554 22.104 23.024 23.964 24.274 24.964 26.084
742.657 26.654 27.924 29.214 29.294 30.304 32.054 32.964 34.014 35.254 36.414
761.947 37.924 39.404 41.014 42.514 43.884 45.764 47.694 49.034 50.634 51.914
781.236 51.804 51.784 51.874 51.874 51.774 50.874 49.084 46.994 44.974 42.814
800.526 40.684 38.484 36.194 33.994 31.984 30.214 28.624 26.834 24.904 23.434
819.816 22.104 21.824 21.664 20.604 20.004 19.634 19.134 18.234 17.014 16.604
839.106 16.434 15.544 15.054 15.044 14.574 14.024 13.774 13.374 12.834 12.114
858.395 11.924 11.494 11.144 10.774 10.314 10.014 9.564 9.474 9.264 8.714
877.685 8.484 8.144 7.734 7.804 7.734 7.474 7.244 7.494 7.194 6.754
896.975 6.604 6.364 6.624 7.394 7.354 6.844 7.004 6.964 6.594 6.434
916.265 6.514 6.544 6.394 6.214 6.074 5.854 5.914 5.764 6.014 6.284
935.555 5.894 5.784 6.154 6.494 6.374 6.334 6.664 6.654 6.604 6.874
954.844 7.114 7.454 7.174 6.884 7.034 6.754 6.514 6.394 6.404 6.264
974.134 5.854 5.454 5.604 5.504 4.984 5.164 5.114 5.214 4.894 4.534
993.424 4.654 4.834 5.334 5.164 5.034 5.384 5.644 5.434 5.174 5.534
1012.714 5.684 5.414 5.534 6.144 6.304 5.774 5.904 6.734 7.244 6.984
1032.003 7.164 7.724 7.664 7.954 7.774 7.604 7.554 7.514 7.524 7.614
1051.293 7.664 8.064 7.994 6.834 6.574 7.234 7.604 8.394 8.954 7.924
1070.583 7.234 8.034 8.014 7.444 7.854 8.434 7.994 7.904 7.714 7.734
1089.873 7.944 7.704 8.144 7.924 8.674 8.324 7.954 8.724 7.464 7.804
1109.163 9.624 9.494 9.224 8.724 8.434 9.874 11.684 12.414 12.014 11.994
1128.452 12.004 11.944 13.184 13.874 13.214 14.084 15.984 17.074 17.464 16.944
1147.742 16.984 16.734 16.124 15.564 14.714 14.244 14.214 13.504 11.924 10.864
1167.032 10.624 10.644 9.534 8.534 8.664 8.954 9.074 8.344 8.214 9.064
1186.322 9.154 8.694 8.634 9.664 9.944 9.324 10.374 10.034 8.724 10.074
1205.611 11.484 11.194 10.204 9.034 8.644 8.944 8.914 8.774 8.714 9.264
1224.901 8.274 7.234 7.644 7.974 7.584 7.274 7.824 7.844 7.674 7.674
1244.191 7.404 7.734 7.614 7.214 6.234 5.464 5.644 5.434 5.904 6.034
1263.481 5.854 6.074 6.344 6.814 6.454 6.034 6.334 6.284 6.004 6.244
1282.771 6.224 6.174 6.634 6.764 6.514 6.514 6.914 6.964 7.034 7.304
1302.060 7.534 7.784 7.904 8.074 8.464 8.834 9.044 9.244 9.574 9.874
1321.350 10.264 10.894 11.334 11.734 12.424 13.084 13.834 14.734 15.294 15.914
1340.640 16.714 17.154 17.634 18.184 18.524 18.594 18.734 19.154 19.494 19.894
1359.930 20.624 21.574 22.464 23.504 24.614 25.814 27.024 28.024 28.724 29.104
1379.219 29.304 28.854 27.864 26.614 25.244 23.464 21.454 19.464 17.414 15.714
1398.509 14.364 13.274 12.044 10.984 10.344 9.774 9.294 8.914 8.694 8.454
1417.799 8.484 8.804 9.024 9.304 9.614 10.014 10.554 11.234 12.134 13.064
1437.089 14.054 14.864 16.044 17.464 18.774 20.204 21.564 22.934 24.294 25.354
1456.378 26.254 27.014 27.354 27.354 26.904 26.174 25.264 24.134 22.884 21.334
1475.668 19.844 18.374 16.674 15.054 13.734 12.694 11.854 10.924 9.974 9.054
1494.958 8.444 7.964 7.584 7.154 6.834 6.884 6.514 6.234 6.214 5.854
1514.248 5.694 5.574 5.384 5.474 5.674 5.554 5.374 5.274 5.074 5.244
1533.538 5.444 5.174 4.844 4.744 4.724 4.804 4.894 4.884 4.694 4.744
1552.827 5.254 5.484 5.264 5.364 5.534 5.344 5.534 5.724 5.824 6.124
1572.117 6.124 6.224 6.624 6.994 7.124 7.384 7.754 8.184 8.784 9.334
1591.407 9.804 10.364 11.114 11.724 12.244 13.254 14.614 15.564 16.524 17.444
1610.697 18.214 19.094 19.554 20.284 20.664 20.324 20.264 19.984 19.264 18.424
1629.986 17.564 16.634 15.374 14.124 12.894 11.954 11.114 9.904 9.014 8.454
1649.276 7.864 7.264 6.714 6.184 5.604 5.394 5.184 4.754 4.614 4.554
1668.566 4.444 4.234 4.004 3.864 3.794 3.754 3.394 3.224 3.194 3.074
1687.856 3.124 3.124 3.124 3.034 2.874 2.974 2.994 3.014 2.854 2.554
1707.146 2.484 2.294 2.264 2.344 2.534 2.634 2.324 2.204 2.344 2.424
1726.435 2.474 2.524 2.334 2.204 2.304 2.364 2.244 2.064 1.974 1.984
1745.725 2.254 2.284 2.304 2.394 2.194 1.884 1.694 1.694 1.654 1.654
1765.015 1.724 1.774 1.904 1.964 1.884 1.824 1.804 1.734 1.604 1.754
1784.305 1.874 1.834 1.934 1.904 1.744 1.774 1.974 1.854 1.624 1.694
1803.594 1.904 2.034 1.954 1.854 1.924 1.994 1.864 1.844 1.824 1.724
1822.884 1.844 1.894 1.924 1.854 1.654 1.684 1.734 1.814 1.814 1.844
1842.174 1.874 1.694 1.674 1.804 1.774 1.664 1.764 1.764 1.594 1.624
1861.464 1.634 1.664 1.684 1.674 1.714 1.614 1.514 1.624 1.594 1.514
1880.754 1.634 1.454 1.3019 1.3067 1.4101 1.714 1.754 1.534 1.514 1.514
1900.043 1.357 1.4254 1.554 1.439 1.524 1.544 1.494 1.504 1.3741 1.2875
1919.333 1.2426 1.2485 1.346 1.474 1.554 1.494 1.454 1.454 1.3516 1.42
1938.623 1.3983 1.0609 1.0998 1.2471 1.2084 1.2671 1.2231 1.1643 1.2187 1.1752
1957.913 1.02 1.0587 1.1592 1.2284 1.1042 1.1976 1.3284 1.0855 1.1465 1.3428
1977.202 1.2723 1.2985 1.1085 0.7782 0.9165 1.0775 1.1299 1.2408 1.2401 1.1054
1996.492 1.2296 1.3037 1.1236 1.0848 1.104 1.0303 1.1208 1.0578 1.1569 1.474
2015.782 1.3383 1.183 1.348 1.524 1.484 1.584 1.554 1.2769 1.3742 1.504
2035.072 1.4425 1.0998 1.0938 1.4056 1.3585 1.1775 1.0604 1.1745 1.2711 1.2914
2054.362 1.2505 1.3015 1.2697 1.26 1.2522 1.2615 1.3975 1.1901 1.0752 1.2135
2073.651 1.2641 1.1389 1.1473 1.1799 1.276 1.4228 1.3555 1.1979 0.9629 0.9638
2092.941 1.1936 1.3461 1.1802 1.0423 1.0814 1.0996 1.0812 1.0445 1.0587 1.1233
2112.231 1.2409 1.3611 1.474 1.321 1.2304 1.1281 1.0492 1.294 1.4173 1.2597
2131.521 1.1734 1.2453 1.0149 0.9055 0.9729 1.1031 1.2608 1.3749 1.385 1.4375
2150.810 1.614 1.454 1.3479 1.4199 1.2303 1.3176 1.634 1.574 1.416 1.2736
2170.100 1.2573 1.3053 1.3752 1.494 1.2983 1.0776 1.0874 1.2282 1.2624 1.3125
2189.390 1.3877 1.3536 1.3404 1.2752 1.3185 1.3766 1.4117 1.544 1.534 1.3864
2208.680 1.1523 1.1836 1.3774 1.2851 1.2413 1.0319 0.9033 1.1694 1.2862 1.3281
2227.970 1.1919 1.0929 1.0667 1.0251 1.0871 1.3685 1.4332 1.0923 1.0767 1.1438
2247.259 1.2058 1.2694 1.1743 1.2359 1.239 1.157 1.3154 1.317 1.1889 1.2946
2266.549 1.4107 1.504 1.504 1.3554 1.1862 1.0725 1.2029 1.2174 1.1643 1.3207
2285.839 1.544 1.484 1.3559 1.3601 1.3748 1.3627 1.3717 1.484 1.3548 1.1926
2305.129 1.504 1.624 1.594 1.654 1.514 1.534 1.474 1.524 1.514 1.2427
2324.418 1.2853 1.464 1.426 1.3331 1.1899 1.356 1.574 1.375 1.3072 1.2613
2343.708 1.2359 1.2624 1.3232 1.3151 1.1394 1.2496 1.4263 1.2627 1.3805 1.4072
2362.998 1.1934 1.2926 1.504 1.664 1.514 1.3269 1.294 1.1081 0.9351 1.0401
2382.288 1.3993 1.494 1.4021 1.299 1.2371 1.3973 1.4378 1.454 1.454 1.3616
2401.578 1.3676 1.454 1.484 1.444 1.504 1.664 1.544 1.494 1.694 1.594
2420.867 1.3791 1.444 1.474 1.494 1.574 1.3357 1.1237 1.1201 1.2671 1.444
2440.157 1.3743 0.9956 1.0984 1.4014 1.2469 1.2379 1.604 1.504 1.2777 1.3919
2459.447 1.454 1.4034 1.3329 1.474 1.444 1.4047 1.454 1.1849 1.1789 1.684
2478.737 1.904 1.614 1.4134 1.2772 1.1085 1.2733 1.524 1.3103 1.2568 1.574
2498.026 1.534 1.4381 1.3818 1.3695 1.3773 1.634 1.544 1.4396 1.724 1.694
2517.316 1.694 1.844 1.964 1.734 1.574 1.484 1.454 1.804 2.084 2.214
2536.606 2.134 1.804 1.614 1.624 1.794 2.024 2.224 2.244 2.054 2.314
2555.896 2.284 1.874 2.034 2.214 2.124 2.124 2.224 2.224 2.424 2.604
2575.186 2.874 2.944 2.684 2.744 2.804 2.724 2.734 2.844 2.774 2.844
2594.475 3.014 3.074 3.014 2.854 2.944 3.234 3.114 3.264 3.644 3.644
2613.765 3.574 3.484 3.344 3.394 3.544 3.504 3.654 3.954 4.214 4.154
2633.055 3.904 3.734 3.804 3.954 3.924 4.134 4.144 4.024 4.144 4.374
2652.345 4.344 4.034 4.514 4.794 4.614 4.724 4.694 4.764 4.714 4.864
2671.634 4.904 4.574 4.564 4.564 4.494 4.374 4.324 4.584 4.804 4.834
2690.924 4.654 4.664 4.854 4.814 4.874 4.824 4.434 4.654 4.904 4.734
2710.214 4.684 4.754 4.944 4.884 4.854 4.874 5.044 5.274 5.514 5.704
2729.504 5.814 5.804 5.814 6.034 5.904 6.014 6.294 6.234 6.264 6.084
2748.794 5.794 5.754 5.784 5.794 5.834 5.844 5.884 5.864 5.794 5.944
2768.083 6.034 5.984 6.134 6.474 6.834 7.154 7.504 7.724 7.854 8.054
2787.373 8.284 8.364 8.774 9.584 9.894 10.104 10.494 10.884 11.474 12.234
2806.663 12.874 12.814 13.294 14.494 15.314 16.074 16.844 18.014 19.364 20.604
2825.953 21.854 23.234 25.224 27.374 29.734 32.424 35.174 38.254 41.914 45.874
2845.242 49.784 54.194 58.804 63.354 68.014 72.694 77.334 81.154 84.384 87.604
2864.532 90.734 92.954 93.844 95.144 96.774 97.854 98.514 98.544 97.464 95.994
2883.822 94.754 93.974 93.644 92.884 91.974 92.034 93.074 94.684 97.694 102.364
2903.112 107.554 113.254 119.904 127.704 136.374 145.394 154.854 164.474 173.974 183.534
2922.401 193.554 202.294 209.764 215.964 220.194 222.794 223.064 220.844 216.964 211.024
2941.691 203.854 196.884 190.484 184.354 178.534 175.104 173.534 173.804 176.424 179.564
2960.981 182.664 185.584 185.834 182.824 178.014 170.674 160.294 148.354 134.844 120.294
2980.271 105.264 90.644 78.514 68.074 58.654 50.844 44.074 38.024 33.314 29.624
2999.561 26.004 23.414 21.564 19.684 18.354 16.944 16.094 15.484 14.364 13.654
3018.850 13.244 12.554 11.954 11.524 10.814 10.464 10.164 9.424 8.824 8.624
3038.140 8.184 7.934 7.984 7.684 7.474 7.354 7.304 6.944 6.904 6.864
3057.430 6.504 5.974 6.044 6.184 5.644 5.494 5.644 5.734 5.644 5.454
3076.720 5.264 5.124 5.264 5.494 5.464 5.374 5.234 5.204 4.994 4.524
3096.009 4.454 4.484 4.624 4.704 4.164 4.184 4.214 4.004 4.184 3.904
3115.299 3.594 3.674 3.554 3.674 3.914 3.884 3.514 3.314 3.034 2.824
3134.589 3.244 3.364 2.894 2.634 2.894 2.794 2.844 3.204 3.394 2.794
3153.879 2.514 2.664 2.674 3.274 3.404 2.884 3.164 3.574 3.334 3.144
3173.169 3.214 3.134 3.164 3.494 3.454 3.104 2.804 2.874 3.054 3.404
3192.458 3.464 3.114 2.934 2.794 2.574 2.834 2.814 2.464 2.414 2.604
3211.748 2.614 2.364 2.244 2.284 2.634 2.564 2.084 1.984 1.994 1.854
3231.038 1.584 1.3832 1.2844 1.3082 1.4201 1.3761 1.3417 1.604 1.864 1.784
3250.328 1.694 1.425 1.399 1.514 1.464 1.4002 1.0781 1.0905 0.9657 0.6422
3269.617 0.7287 1.321 1.514 1.1652 1.0528 1.0957 1.332 1.1948 0.9381 1.1848
3288.907 1.464 1.18 1.1643 1.3701 1.0171 1.2674 1.654 1.744 1.654 1.1106
3308.197 1.524 2.044 1.944 1.884 1.784 1.884 2.594 3.184 2.794 2.904
3327.487 3.284 3.644 3.454 2.754 2.884 2.744 2.584 2.804 2.744 2.394
3346.777 2.604 2.964 2.394 1.754 1.854 1.814 1.2712 1.3672 1.784 1.994
3366.066 2.324 2.134 1.564 1.4024 1.654 1.854 1.654 1.331 1.464 1.634
3385.356 1.514 1.664 1.514 1.1088 0.9022 1.0519 1.484 1.784 1.604 1.2439
3404.646 1.0043 1.2264 1.3665 1.078 0.9532 0.9816 1.0675 1.075 1.1385 1.604
3423.936 1.4224 0.9283 1.3613 1.684 1.714 1.1286 0.6828 0.7493 0.9139 0.6393
3443.225 0.7784 1.584 1.464 0.6387 0.6586 0.9038 0.6795 0.8782 0.8873 1.2867
3462.515 1.4344 1.247 1.1838 0.9032 0.5729 0.7141 1.2361 1.3131 0.993 1.0845
3481.805 1.3106 1.1752 1.1587 1.094 0.7607 0.6826 0.53053 0.235 0.8299 1.484
3501.095 1.1539 0.8017 0.7637 0.548 0.9372 1.0046 0.8241 0.974 1.2478 1.2258
3520.385 0.7498 0.148 0.091 0.6564 0.6487 0.8931 1.2863 1.0784 0.6437 0.285
3539.674 0.5504 0.89 1.0024 1.1113 0.7251 0.3864 0.51357 0.8491 1.3241 1.714
3558.964 2.164 1.684 1.0741 1.1971 1.3119 1.2018 0.757 0.6668 0.50854 0.586
3578.254 0.7789 0.6995 1.0643 1.0602 0.5826 0.7169 0.9882 0.9008 0.702 0.6717
3597.544 0.7702 1.2748 1.524 1.3221 1.1153 0.591 0.6357 0.9948 0.9471 0.6818
3616.833 0.6092 0.7807 1.0664 0.8261 0.7966 1.2595 1.2807 1.1894 1.05 1.0599
3636.123 1.1999 1.0007 0.6293 0.52362 0.4155 0.6399 0.9731 0.9198 1.0553 0.8665
3655.413 0.6675 1.2912 1.4316 1.4024 1.1982 0.5552 0.6886 0.816 1.1132 1.3067
3674.703 1.0628 1.0715 1.1905 0.9408 0.46218 0.293 0.4171 0.8114 1.2173 1.0296
3693.993 0.124 0 0.5776 1.1652 0.8328 0.55 0.9366 0.8187 0.6843 0.5609
3713.282 0.5473 0.7597 0.8164 1.0697 1.4287 1.1391 0.6723 0.7893 0.9165 0.8079
3732.572 0.7639 0.584 0.48867 0.4284 0.7119 1.254 1.794 1.426 0.6387 0.9353
3751.862 1.1687 1.4192 1.454 1.0904 1.0158 1.0217 1.4248 1.3443 0.9824 0.9352
3771.152 1.4224 1.0599 0.7971 1.1197 0.8385 0.7308 1.0479 1.624 1.3502 0.9969
3790.441 0.7683 0.252 0.371 0.46359 0.6573 1.1839 1.26 1.088 0.8373 0.8764
3809.731 0.9923 1.0637 1.005 0.7826 0.9039 1.181 1.053 0.8538 1.1615 1.474
3829.021 1.3793 0.9765 0.7215 1.3872 1.2487 0.51631 0.31 0.52793 1.0413 1.1742
3848.311 1.1274 0.963 0.8651 0.6051 0.8039 1.514 1.824 1.544 1.1738 1.1758
3867.601 1.252 1.0068 0.7033 0.842 1.1324 1.0295 0.774 0.8557 0.8819 0.67
3886.890 0.6706 0.9726 0.889 1.0527 1.674 1.904 1.574 1.2573 1.484 1.4172
3906.180 1.2456 1.1918 1.454 1.704 1.504 1.3414 0.7935 0.9088 1.554 1.454
3925.470 1.1171 0.7481 0.6663 0.9138 0.796 0.6195 0.52145 0.7809 0.8688 0.6934
3944.760 0.8407 1.0327 1.0563 0.8918 0.8925 1.0226 1.3768 1.3238 1.0426 0.9275
3964.049 0.8197 0.8793 0.9112 1.2551 1.754 1.844 1.3277 1.2025 1.318 1.0169
3983.339 1.3925 2.104 2.024 1.454 1.594 1.3066 1.3905 1.824 1.4061 1.2018
##END=
