##TITLE=4-Isopropylphenylacetic acid
##JCAMP-DX=4.24
##DATA TYPE=INFRARED SPECTRUM
##ORIGIN=EPA-IR VAPOR PHASE LIBRARY
##OWNER=SRD/NIST
Collection (C) 2018 copyright by the U.S. Secretary of Commerce
on behalf of the United States of America. All rights reserved.
##CAS REGISTRY NO=4476-28-2
##MOLFORM=C 11 H 14 O 2
##$NIST SOURCE=MSDC-IR
##STATE=gas
##XUNITS=1/CM
##YUNITS=ABSORBANCE
##XFACTOR=1.
##YFACTOR=0.001
##DELTAX=1.92898
##FIRSTX=549.8
##LASTX=4000.7
##FIRSTY=4.989
##MAXX=4000.7
##MINX=549.759
##MAXY=0.036049
##MINY=0
##NPOINTS=1790
##XYDATA=(X++(Y..Y))
549.759 4.989 4.809 5.549 6.279 5.719 6.239 7.139 7.149 7.939 9.079
569.049 8.559 8.379 8.209 7.429 7.889 8.299 8.279 7.589 6.799 7.169
588.339 7.629 7.349 7.299 7.989 8.359 8.599 9.189 9.749 10.179 9.959
607.628 10.089 10.359 9.849 9.769 9.569 9.409 9.559 9.449 9.249 8.509
626.918 8.259 7.809 7.629 7.499 7.069 7.559 7.239 6.729 6.949 6.489
646.208 5.979 6.099 5.899 5.789 5.929 5.839 5.669 5.899 6.619 6.669
665.498 6.399 6.589 6.739 6.829 6.509 5.649 5.449 5.609 5.209 4.689
684.787 4.129 3.639 3.429 3.269 3.239 2.539 2.079 2.469 2.479 2.309
704.077 1.919 2.059 2.119 1.979 2.759 3.109 2.959 2.749 2.369 1.8331
723.367 1.5398 1.8082 2.159 2.309 2.079 1.4836 1.155 1.5687 1.989 2.019
742.657 1.7605 1.2365 1.1573 1.5043 1.869 2.239 2.659 3.149 3.059 2.569
761.947 2.309 2.249 2.039 2.069 2.329 1.939 1.5271 1.7155 1.6587 1.788
781.236 1.8211 1.8102 2.179 2.099 1.889 2.009 2.329 2.959 3.309 3.839
800.526 4.829 5.199 5.049 5.479 5.969 6.139 6.349 5.989 5.759 5.199
819.816 4.669 4.729 4.129 3.239 3.079 3.039 2.549 2.649 2.789 2.639
839.106 2.759 3.049 2.869 2.399 2.539 2.749 2.519 2.449 2.529 2.319
858.395 2.029 1.879 1.979 2.059 1.899 2.139 2.549 1.802 1.7522 2.419
877.685 2.399 2.369 2.099 2.049 2.109 2.029 2.029 1.889 1.585 1.979
896.975 2.149 1.4304 1.768 2.159 1.813 1.486 1.4216 1.595 2.229 2.549
916.265 1.969 1.929 2.239 2.229 2.289 2.239 2.099 1.969 2.009 1.949
935.555 1.7173 1.899 2.109 2.089 2.029 2.259 2.229 2.099 2.089 1.6687
954.844 1.5491 1.5147 1.5421 1.959 1.6713 1.1758 1.1606 1.0727 1.1879 1.1988
974.134 1.1529 1.4158 1.3985 0.93293 1.0961 1.0412 0.701 0.8175 0.567 0.474
993.424 0.7802 0.515 0.61 0.9557 0.8365 0.94145 1.1952 0.93549 1.2358 1.4911
1012.714 1.8407 2.739 3.589 4.339 4.029 3.499 3.669 3.369 2.409 2.369
1032.003 1.7579 1.4047 1.3833 1.6984 2.479 2.499 3.059 3.349 3.199 4.169
1051.293 4.629 4.439 4.589 4.509 3.939 3.549 4.279 5.489 5.229 5.219
1070.583 6.509 6.769 6.419 7.399 8.919 9.129 9.409 10.579 11.729 13.189
1089.873 14.279 14.939 16.939 19.319 21.249 22.969 25.009 26.999 28.649 30.609
1109.163 32.689 33.699 33.279 32.819 32.289 30.589 27.169 24.149 22.739 20.959
1128.452 19.089 17.879 16.839 16.489 15.109 13.029 12.799 12.379 11.589 10.479
1147.742 9.749 9.809 8.639 7.419 6.889 6.619 6.649 6.399 5.919 5.769
1167.032 5.829 5.219 4.999 5.749 5.929 6.449 6.159 5.849 5.869 5.739
1186.322 6.189 6.989 7.489 7.749 8.489 9.489 9.549 9.249 9.969 9.639
1205.611 8.929 8.839 9.359 9.559 9.999 10.119 10.389 9.769 9.019 9.089
1224.901 8.789 8.759 8.369 6.569 6.419 7.519 6.639 6.169 6.139 5.949
1244.191 5.809 5.279 4.639 4.429 4.099 4.609 4.959 4.799 5.619 5.559
1263.481 5.679 5.829 5.649 5.949 5.749 5.959 5.939 5.459 5.269 5.279
1282.771 5.119 5.349 5.419 4.919 4.749 4.819 5.079 5.359 5.279 5.509
1302.060 5.979 5.809 5.749 5.899 5.759 5.379 5.179 5.269 5.209 5.309
1321.350 5.349 5.269 5.269 5.349 5.419 5.379 5.389 5.529 5.899 6.169
1340.640 6.269 6.539 6.839 6.989 7.019 7.079 7.299 7.659 7.979 8.079
1359.930 8.049 7.909 7.889 7.889 7.719 7.519 7.259 6.769 6.249 5.819
1379.219 5.599 5.609 5.409 4.909 4.719 4.579 4.349 4.119 3.869 3.849
1398.509 3.809 3.739 3.649 3.629 3.729 3.779 3.659 3.639 3.839 3.999
1417.799 4.139 4.199 4.149 4.209 4.209 4.159 4.089 4.019 3.899 3.829
1437.089 3.869 3.779 3.699 3.559 3.329 3.299 3.409 3.469 3.529 3.489
1456.378 3.529 3.719 3.709 3.609 3.769 3.769 3.449 3.539 3.709 3.499
1475.668 3.349 3.169 2.919 2.789 2.539 2.449 2.469 2.509 2.539 2.709
1494.958 2.849 2.769 3.079 3.509 4.009 4.699 5.419 6.309 7.199 7.839
1514.248 8.199 8.069 7.339 6.459 5.489 4.249 3.099 2.539 2.389 1.949
1533.538 1.5765 1.5412 1.4329 1.4319 1.6332 1.6349 1.2989 1.2302 1.3449 1.3252
1552.827 1.2339 1.2332 1.1039 1.0483 1.1121 1.1062 1.2802 1.2418 1.2321 1.311
1572.117 1.3021 1.1409 0.8361 0.9603 1.1124 1.1291 1.2272 1.1185 0.9914 1.0535
1591.407 1.2337 1.0065 0.9944 1.3236 1.2012 1.0671 1.0246 0.92233 1.0924 1.3661
1610.697 1.4167 1.3381 1.347 1.3671 1.4 1.445 1.4714 1.5805 1.4561 1.3626
1629.986 1.5103 1.4874 1.4414 1.6103 1.581 1.605 1.6233 1.5933 1.6708 1.6713
1649.276 1.5868 1.5122 1.5813 1.3905 1.3637 1.4302 1.3623 1.4562 1.4607 1.4732
1668.566 1.5425 1.5071 1.4508 1.4654 1.5015 1.5828 1.7023 1.7908 1.8282 1.899
1687.856 1.919 1.8083 1.6561 1.7743 2.019 2.119 2.329 2.439 2.529 2.589
1707.146 2.619 2.719 2.809 2.999 3.219 3.389 3.579 3.809 4.119 4.459
1726.435 4.899 5.449 5.739 6.089 6.849 7.529 8.239 9.189 10.089 11.049
1745.725 12.019 12.999 14.309 15.709 17.079 18.449 19.939 21.419 22.869 24.479
1765.015 26.209 27.899 29.659 31.409 33.159 34.529 35.399 36.039 36.049 35.519
1784.305 34.539 33.009 31.269 29.619 27.849 25.919 23.999 22.149 20.129 18.249
1803.594 16.609 14.769 12.999 11.529 10.169 8.869 7.779 6.949 6.229 5.339
1822.884 4.599 4.269 4.009 3.519 3.119 2.859 2.599 2.349 2.279 2.219
1842.174 1.999 2.009 1.959 1.7215 1.6931 1.7455 1.6477 1.6002 1.6296 1.6224
1861.464 1.5638 1.4557 1.2994 1.305 1.4177 1.4079 1.3082 1.3142 1.3474 1.3803
1880.754 1.3239 1.1223 1.2947 1.4872 1.4883 1.5682 1.6594 1.5428 1.4091 1.6384
1900.043 1.7802 1.6252 1.4473 1.2895 1.1519 1.2624 1.2994 1.252 1.3267 1.122
1919.333 1.0507 1.1712 1.1528 1.0851 0.90192 0.7531 0.87965 0.90589 0.85129 0.92713
1938.623 0.9498 1.0266 1.1018 0.9959 0.729 0.7902 0.94619 0.8759 1.0683 1.0981
1957.913 1.0183 1.0809 0.9599 1.1041 1.2251 1.1757 1.0909 0.9594 1.0911 1.0216
1977.202 0.94023 1.0651 1.2017 1.137 0.92551 0.9657 1.1456 1.0447 0.9565 0.9643
1996.492 0.9916 1.0015 0.89204 0.858289 0.8353 0.7921 0.738 0.91353 0.9859 0.88778
2015.782 1.0405 1.1316 0.9516 0.93304 0.8386 0.762 0.87763 0.9287 0.8278 0.623
2035.072 0.658 0.73 0.595 0.477 0.56 0.668 0.671 0.7493 0.736 0.693
2054.362 0.7989 0.7784 0.653 0.641 0.636 0.578 0.577 0.664 0.7873 0.719
2073.651 0.6 0.731 0.853807 0.683 0.702 0.87157 0.731 0.735 0.73 0.675
2092.941 0.828 0.7926 0.707 0.743 0.87701 0.7833 0.7858 0.93787 0.8119 0.648
2112.231 0.476 0.549 0.557 0.556 0.572 0.481 0.649 0.677 0.643 0.7891
2131.521 0.86865 0.8095 0.84307 0.7876 0.736 0.8358 0.804 0.91334 0.8782 0.709
2150.810 0.89267 0.8334 0.59 0.7591 0.90117 0.8222 0.69 0.7738 0.87059 0.8065
2170.100 0.89124 0.9828 0.978 0.9508 0.8073 0.8429 0.88012 0.7526 0.674 0.694
2189.390 0.9277 0.87807 0.93121 0.9797 0.7619 0.8189 1.0902 1.0084 0.74 0.701
2208.680 0.7629 0.86442 0.91875 0.8111 0.7712 0.674 0.446 0.63 0.668 0.555
2227.970 0.707 0.8159 0.605 0.467 0.413 0.532 0.68 0.704 0.771 0.7752
2247.259 0.743 0.636 0.599 0.465 0.56 0.621 0.687 0.728 0.749 0.712
2266.549 0.688 0.736 0.719 0.8022 0.88782 0.9995 0.853552 0.7666 0.814 0.91093
2285.839 0.7721 0.734 0.90592 0.733 0.632 0.665 0.8306 0.94557 0.7606 0.718
2305.129 0.8304 0.7753 0.733 0.717 0.603 0.7538 0.8308 0.728 0.86995 0.9538
2324.418 0.9638 0.85941 0.7725 0.84734 0.8104 0.8806 0.8119 0.7501 0.84236 0.852458
2343.708 0.711 0.631 0.92888 0.86634 0.709 0.8158 0.695 0.443 0.526 0.7827
2362.998 1.1311 1.3013 0.9688 0.8211 0.92222 0.8233 0.85681 0.86647 0.837 0.998
2382.288 0.9969 0.89427 0.852531 0.90437 0.88892 0.69 0.48 0.359 0.5 0.653
2401.578 0.632 0.8188 0.746 0.557 0.581 0.441 0.66 1.0479 0.84336 0.632
2420.867 0.7603 0.726 0.687 0.744 0.723 0.654 0.645 0.388 0.36 0.744
2440.157 0.669 0.663 0.629 0.546 0.597 0.591 0.602 0.672 0.642 0.529
2459.447 0.617 0.676 0.87209 1.0501 1.1518 1.2378 0.9666 0.9884 1.1764 0.89654
2478.737 0.718 0.85464 1.0058 0.93692 0.8326 0.514 0.483 0.693 0.7636 0.533
2498.026 0.318 0.576 0.7668 0.84333 0.689 0.7718 0.7843 0.675 0.51 0.482
2517.316 0.526 0.482 0.86413 0.86214 0.8276 0.9886 1.0082 0.9836 0.8011 0.473
2536.606 0.214 0.318 0.506 0.568 0.7704 0.9577 1.0232 1.0292 0.7564 0.614
2555.896 0.576 0.93045 1.0914 0.8804 0.72 0.8306 0.971 0.665 0.684 0.849027
2575.186 0.84971 0.9692 1.0021 0.84649 0.641 0.513 0.8096 0.89804 0.728 0.724
2594.475 0.706 0.85955 0.87715 0.87313 1.0361 1.1502 0.93941 0.714 0.739 0.7524
2613.765 0.746 0.48 0.72 1.1126 0.87558 0.741 0.8276 0.7756 0.718 1.1001
2633.055 1.2636 0.89793 0.7788 0.856366 0.88357 0.729 0.611 0.713 0.737 0.572
2652.345 0.493 0.654 0.7988 0.7833 0.732 0.67 0.677 0.642 0.747 0.8744
2671.634 0.63 0.47 0.683 0.61 0.586 0.88441 0.9639 0.90866 0.993 0.9782
2690.924 0.8332 0.91926 1.2211 1.0537 0.64 0.657 0.683 0.693 0.88813 1.0265
2710.214 0.93012 0.84578 0.8045 0.641 0.441 0.735 0.92217 0.86383 1.1372 1.1353
2729.504 0.90644 0.856334 0.91594 1.1133 1.0983 0.90526 0.8249 0.8062 0.8486 0.9984
2748.794 1.1562 0.87204 0.541 0.89752 1.0285 0.93137 0.671 0.524 0.7656 0.603
2768.083 0.519 0.92698 1.1399 0.88077 0.677 0.568 0.635 0.612 0.606 0.711
2787.373 0.632 0.62 0.603 0.575 0.651 0.659 0.662 0.685 0.659 0.738
2806.663 0.7647 0.91689 0.8218 0.631 0.453 0.63 1.1744 1.3146 1.2357 0.9196
2825.953 0.7623 1.0548 1.3657 1.2476 0.995 1.1791 1.1819 1.116 1.4271 1.5
2845.242 1.383 1.1915 1.5235 1.7111 1.4113 1.5382 1.859 2.059 2.339 2.859
2864.532 3.339 3.469 3.869 4.369 4.669 5.089 5.329 5.659 6.229 6.819
2883.822 7.009 6.899 7.039 7.119 6.869 6.799 6.839 6.669 6.629 6.439
2903.112 6.469 6.699 6.579 6.799 7.169 7.209 7.009 6.929 7.049 7.159
2922.401 7.399 7.829 7.649 7.449 8.069 8.939 9.409 9.639 9.829 10.079
2941.691 10.209 9.649 9.849 10.269 10.109 10.309 10.899 12.249 13.819 15.969
2960.981 18.889 21.489 23.649 25.409 26.719 26.719 25.049 22.379 19.159 16.049
2980.271 13.309 11.039 9.479 8.199 6.829 6.089 5.939 5.579 5.209 4.669
2999.561 4.349 4.529 4.529 4.299 4.039 3.959 3.929 4.089 4.229 4.399
3018.850 4.739 5.119 5.469 5.819 6.339 6.339 6.259 6.239 5.739 5.179
3038.140 4.539 4.029 3.809 3.959 4.449 4.469 4.179 3.799 3.589 3.569
3057.430 3.739 4.019 3.549 3.029 3.179 3.199 2.929 2.919 2.839 2.709
3076.720 2.699 2.699 2.509 2.389 2.769 2.839 2.459 2.409 2.669 2.589
3096.009 2.339 1.889 1.7931 1.919 1.8152 1.909 1.7409 1.4298 1.5387 1.7088
3115.299 1.5964 1.5789 1.8324 1.4236 1.0852 0.8297 0.721 1.4705 1.5007 1.2061
3134.589 1.532 1.1191 0.88504 1.19 0.89884 1.0679 1.1739 1.016 0.738 0.224
3153.879 0.672 1.3003 0.92332 0.739 0.7502 0.582 0.623 0.719 0.7571 0.698
3173.169 0.714 0.851396 0.92039 0.8266 1.0144 1.0414 1.1397 1.5368 1.4101 0.88453
3192.458 0.9995 1.2325 0.505 0.493 0.93919 0.713 0.93408 1.1862 0.853498 0.694
3211.748 1.1236 1.1195 0.9985 1.0738 0.556 0.511 1.027 1.1308 0.87477 0.90847
3231.038 1.0638 1.2375 1.0789 0.634 0.613 0.705 0.61 0.87617 1.0219 0.299
3250.328 0.303 0.9529 0.84022 0.373 0.522 0.442 0.178 0.624 0.471 0.281
3269.617 0.495 0.348 0.147 0.8162 1.0437 0.655 0.87484 1.1045 1.1074 0.669
3288.907 0.432 0.854268 0.87673 0.652 0.731 0.7735 0.546 0.601 0.850413 0.652
3308.197 0.639 0.87216 0.89089 0.84711 0.858223 0.91685 0.87594 0.7851 0.686 0.87887
3327.487 1.2024 1.0893 0.726 0.64 1.1757 1.4242 1.2038 1.1852 1.0012 0.657
3346.777 0.447 0.443 0.7601 0.715 0.514 0.453 0.713 0.533 0.165 0.32
3366.066 0.442 0.677 1.3233 1.3208 0.8009 0.534 0.642 0.741 0.9481 1.2245
3385.356 1.3377 1.1505 0.71 0.7949 0.459 0.351 0.92173 1.2791 0.983 0.345
3404.646 0.389 0.64 0.763 0.7877 0.409 0.601 0.456 0.223 0.54 0.88206
3423.936 0.851205 0.666 0.86126 0.86625 0.7883 0.84022 0.466 0.332 0.687 0.86032
3443.225 1.0326 1.1208 1.2872 1.2954 1.3063 1.1265 0.585 0.572 0.5 0.402
3462.515 0.491 0.394 0.8087 0.90011 0.655 0.727 0.745 0.86229 1.2607 1.3803
3481.805 1.0726 1.2522 1.0465 0.451 0.5 0.69 0.74 0.87647 1.1953 1.1474
3501.095 0.68 0.681 1.1 1.1216 1.0887 1.2705 1.1135 0.8227 0.88587 1.253
3520.385 1.3828 1.1198 0.7527 1.1707 1.4172 1.1836 1.3648 1.4461 1.7027 1.889
3539.674 1.8354 1.8319 2.009 2.239 2.689 2.959 3.019 3.319 3.759 4.299
3558.964 5.059 6.029 6.959 8.619 11.479 13.559 14.969 16.509 16.889 16.599
3578.254 15.469 13.179 10.439 8.209 6.539 5.109 4.139 3.399 3.489 3.239
3597.544 2.229 2.139 2.469 2.609 2.009 1.3524 0.9747 0.633 1.1422 1.1615
3616.833 1.3226 1.5668 1.3355 1.3703 1.1914 1.2411 1.5706 1.5161 1.0563 1.1122
3636.123 1.1581 0.7853 0.7628 0.89959 0.7557 0.672 0.799 0.7654 0.8081 0.693
3655.413 0.672 0.72 0.9802 1.0234 0.88467 0.713 0.353 0.679 0.9424 1.109
3674.703 1.6097 1.5528 1.1388 1.081 1.1585 1.1471 0.88739 0.655 0.621 0.627
3693.993 0.66 0.71 0.371 0.37 0.87085 0.9583 0.9538 1.0088 0.8088 0.603
3713.282 0.678 0.474 0.358 0.468 0.624 0.7738 0.733 0.438 0.266 0.301
3732.572 0.387 0.715 0.408 0.251 0.623 0.487 0.079 0.551 0.784 0.475
3751.862 0.626 0.7592 0.851074 0.34 0.194 0.243 0.356 0.51 0.041 0.009
3771.152 0.8019 1.4359 0.7873 0.531 0.91465 0.684 0.644 0.86575 0.9944 0.90055
3790.441 0.72 0.686 0.7491 0.92943 0.87387 0.253 0.277 0.747 0.557 0.528
3809.731 0.555 0.189 0.2 0.075 0.073 0.673 1.2368 1.2753 1.0254 0.8304
3829.021 0.552 0.537 0.731 0.741 0.8074 0.623 0.91031 1.1894 0.9565 1.3825
3848.311 1.098 0.8317 0.656 0.322 0.28 0 0.078 0.466 0.461 0.582
3867.601 0.9715 0.94347 0.659 0.8069 0.91515 0.762 0.432 0.293 0.646 0.581
3886.890 0.671 1.0621 1.12 1.3022 1.3784 0.7516 0.347 0.458 0.72 0.91018
3906.180 1.1335 1.2225 1.1188 0.88904 1.0726 1.048 0.849971 0.9872 0.432 0.131
3925.470 0.143 0.657 1.0247 0.7562 0.662 0.8315 0.821 0.454 0.288 0.209
3944.760 0.169 0.559 0.594 0.425 0.597 0.525 0.744 1.0069 0.9593 1.1144
3964.049 1.0422 1.1872 1.3272 0.94497 1.0039 0.89242 0.454 0.577 0.57 0.512
3983.339 1.0368 1.3772 1.2877 1.2119 0.722 0.461 1.2707 1.3361 0.84343 0.389
##END=
