##TITLE=4-Propyl-3-heptene
##JCAMP-DX=4.24
##DATA TYPE=INFRARED SPECTRUM
##ORIGIN=NIST Mass Spectrometry Data Center
##OWNER=NIST Standard Reference Data Program
Collection (C) 2018 copyright by the U.S. Secretary of Commerce
on behalf of the United States of America. All rights reserved.
##CAS REGISTRY NO=4485-13-6
##MOLFORM=C 10 H 20
##$NIST SOURCE=MSDC-IR
##SPECTROMETER/DATA SYSTEM=HP-GC/MS/IRD
##STATE=gas
##XUNITS=1/CM
##YUNITS=ABSORBANCE
##XFACTOR=1.0
##YFACTOR=0.000004900
##DELTAX=4.0
##FIRSTX=550.0
##LASTX=3846.0
##FIRSTY=0.000671
##MAXX=3846
##MINX=550
##MAXY=0.049
##MINY=0
##NPOINTS=825
##XYDATA=(X++(Y..Y))
550.0 137 86 65 71 63 69 85 86 76 77
590.0 75 68 68 68 55 61 62 48 46 44
630.0 44 34 23 19 10 13 16 7 8 15
670.0 16 11 4 6 13 20 14 1 9 24
710.0 20 26 45 47 61 82 98 110 111 114
750.0 115 123 130 135 142 155 173 182 182 175
790.0 163 148 135 125 121 129 130 138 156 163
830.0 175 201 225 256 292 317 328 324 310 285
870.0 263 247 237 226 221 220 221 214 191 164
910.0 140 118 100 93 88 81 71 57 45 34
950.0 23 18 15 15 11 9 9 10 10 13
990.0 12 18 29 37 47 52 61 74 81 84
1030.0 88 93 104 102 109 127 146 175 207 222
1070.0 222 210 189 177 170 162 156 140 128 124
1110.0 125 136 154 167 171 164 142 106 73 59
1150.0 50 44 46 43 47 57 66 87 104 112
1190.0 109 98 92 79 63 53 53 62 76 91
1230.0 108 122 128 134 136 144 155 161 168 169
1270.0 170 172 173 171 175 187 207 227 237 242
1310.0 237 223 201 186 187 202 216 220 214 201
1350.0 184 169 171 194 239 308 396 476 525 514
1390.0 444 361 297 261 247 245 246 255 282 319
1430.0 371 441 528 635 755 894 1038 1170 1234 1208
1470.0 1112 931 726 553 410 313 251 208 181 158
1510.0 141 127 111 101 92 84 77 67 61 56
1550.0 54 51 47 45 44 44 41 39 40 40
1590.0 39 41 43 47 47 50 53 53 55 57
1630.0 60 65 74 86 101 111 112 110 103 84
1670.0 65 51 42 38 37 38 38 37 35 33
1710.0 34 32 29 26 24 26 26 23 23 21
1750.0 15 13 11 13 13 8 4 6 6 5
1790.0 4 7 7 8 8 8 8 6 8 10
1830.0 7 5 7 6 3 6 6 6 5 5
1870.0 7 9 9 9 7 6 6 5 7 10
1910.0 12 12 13 13 11 10 8 8 7 8
1950.0 8 6 6 5 3 3 4 3 1 3
1990.0 4 3 2 2 3 5 5 6 7 10
2030.0 10 10 12 11 8 10 8 5 5 7
2070.0 8 6 4 5 6 7 8 5 4 5
2110.0 3 6 9 5 6 6 5 8 12 8
2150.0 2 4 7 7 7 8 9 10 9 10
2190.0 9 6 8 9 8 9 5 5 8 8
2230.0 8 9 9 12 12 10 9 7 6 9
2270.0 10 10 9 7 8 7 8 8 9 12
2310.0 8 7 8 9 8 9 9 10 9 9
2350.0 7 6 8 11 10 11 12 9 12 15
2390.0 16 16 14 17 19 15 15 12 9 8
2430.0 9 10 11 9 3 6 9 7 6 7
2470.0 8 7 4 4 0 2 7 10 10 10
2510.0 12 14 17 19 17 19 20 21 22 26
2550.0 32 33 30 32 32 32 34 34 33 33
2590.0 31 33 36 35 34 36 35 33 38 39
2630.0 38 40 41 40 40 46 53 56 60 66
2670.0 68 67 65 62 59 61 67 74 81 88
2710.0 93 97 105 112 130 151 161 169 177 178
2750.0 169 160 159 167 172 181 194 208 220 232
2790.0 256 283 303 323 354 388 423 475 535 605
2830.0 704 827 979 1169 1395 1659 1949 2238 2554 2934
2870.0 3424 3973 4414 4600 4518 4232 3882 3637 3584 3695
2910.0 3906 4166 4472 4867 5393 6060 6731 7168 7270 7120
2950.0 6974 7199 8012 9158 10000 9898 8747 7011 5223 3806
2990.0 2867 2262 1851 1557 1344 1181 1047 944 857 787
3030.0 732 681 629 575 519 458 404 361 324 296
3070.0 271 249 237 229 219 206 199 192 189 183
3110.0 170 162 157 153 147 141 138 135 128 123
3150.0 117 115 114 113 108 97 93 92 84 76
3190.0 73 68 60 54 46 37 36 34 29 25
3230.0 27 27 24 26 26 25 24 22 22 17
3270.0 16 21 14 6 10 14 15 16 16 16
3310.0 15 15 11 7 13 13 7 8 11 14
3350.0 13 11 10 9 9 7 0 3 9 9
3390.0 5 2 4 5 0 4 10 11 12 14
3430.0 14 4 1 10 12 11 9 9 4 2
3470.0 10 13 8 9 7 8 9 7 6 1
3510.0 4 11 15 13 10 12 7 5 8 13
3550.0 12 10 10 13 11 9 5 0 5 10
3590.0 10 14 13 8 7 12 18 20 17 9
3630.0 6 15 23 20 15 14 15 17 20 19
3670.0 18 22 25 25 28 27 29 31 27 23
3710.0 20 25 31 34 33 29 26 27 32 31
3750.0 36 32 24 26 28 27 29 35 36 33
3790.0 33 39 41 38 36 38 37 31 24 26
3830.0 30 29 26 29 32
##END=
