##TITLE=4-Methyl-3-heptene
##JCAMP-DX=4.24
##DATA TYPE=INFRARED SPECTRUM
##ORIGIN=NIST Mass Spectrometry Data Center
##OWNER=NIST Standard Reference Data Program
Collection (C) 2018 copyright by the U.S. Secretary of Commerce
on behalf of the United States of America. All rights reserved.
##CAS REGISTRY NO=4485-16-9
##MOLFORM=C 8 H 16
##$NIST SOURCE=MSDC-IR
##SPECTROMETER/DATA SYSTEM=HP-GC/MS/IRD
##STATE=gas
##XUNITS=1/CM
##YUNITS=ABSORBANCE
##XFACTOR=1.0
##YFACTOR=0.000002500
##DELTAX=4.0
##FIRSTX=550.0
##LASTX=3846.0
##FIRSTY=0.000198
##MAXX=3846
##MINX=550
##MAXY=0.025
##MINY=0
##NPOINTS=825
##XYDATA=(X++(Y..Y))
550.0 79 103 106 108 115 110 90 80 69 102
590.0 101 33 21 34 44 39 33 36 40 40
630.0 35 30 16 20 18 4 19 34 32 24
670.0 9 17 49 60 58 45 38 46 54 64
710.0 76 89 93 105 120 145 185 196 201 213
750.0 219 222 217 203 200 221 234 229 232 236
790.0 236 252 276 288 293 311 332 355 374 388
830.0 400 422 455 465 447 422 388 372 363 349
870.0 347 335 314 294 260 223 206 208 196 180
910.0 176 178 178 172 171 163 154 146 134 121
950.0 121 139 145 155 179 191 202 224 236 238
990.0 228 213 204 201 208 211 209 222 234 234
1030.0 235 233 226 226 219 227 245 259 277 286
1070.0 292 292 278 269 260 251 247 241 236 229
1110.0 227 246 279 309 323 307 250 194 140 97
1150.0 86 84 78 76 83 86 102 119 143 184
1190.0 222 243 259 266 242 208 172 130 105 90
1230.0 84 85 88 102 115 118 135 156 171 173
1270.0 174 177 187 199 216 258 312 360 387 401
1310.0 409 392 352 320 311 320 339 347 347 344
1350.0 338 337 364 420 497 604 726 838 913 947
1390.0 930 850 748 646 565 514 492 497 523 577
1430.0 644 728 821 919 1024 1127 1203 1259 1271 1215
1470.0 1121 991 849 707 576 486 415 360 316 281
1510.0 258 234 219 211 207 200 190 182 177 176
1550.0 168 154 144 145 146 138 126 125 125 121
1590.0 122 118 105 105 106 105 103 98 102 103
1630.0 102 106 110 117 129 146 162 173 174 174
1670.0 166 143 127 101 82 78 66 59 62 58
1710.0 47 42 41 40 39 34 28 24 19 16
1750.0 13 10 8 11 10 10 10 11 14 14
1790.0 20 18 16 14 13 18 19 21 21 18
1830.0 22 26 25 25 22 18 24 25 23 25
1870.0 24 22 17 20 23 24 17 16 24 30
1910.0 27 30 26 15 13 14 16 18 18 15
1950.0 14 11 8 7 2 3 4 6 9 10
1990.0 8 11 5 0 9 16 18 15 11 17
2030.0 21 15 18 20 19 19 12 8 10 11
2070.0 13 12 8 8 8 8 9 10 8 11
2110.0 15 11 7 12 14 11 15 20 15 14
2150.0 12 13 13 8 10 15 21 23 19 18
2190.0 15 15 16 14 14 13 10 11 13 8
2230.0 11 17 19 20 19 15 17 19 19 21
2270.0 22 23 22 22 22 22 22 21 21 19
2310.0 20 24 24 22 23 24 27 24 25 21
2350.0 20 23 27 24 24 27 31 33 33 34
2390.0 40 42 41 37 34 36 37 38 37 36
2430.0 34 36 34 30 28 29 31 31 29 25
2470.0 27 31 33 30 26 26 30 34 35 30
2510.0 33 43 43 43 49 49 49 54 54 58
2550.0 65 64 64 66 62 61 64 69 69 65
2590.0 56 58 65 57 63 73 68 70 78 82
2630.0 85 83 81 83 88 92 95 98 101 104
2670.0 106 106 105 106 107 111 117 119 124 139
2710.0 147 157 176 191 207 232 247 251 259 271
2750.0 273 273 275 268 269 280 294 308 322 341
2790.0 373 398 432 477 524 573 631 714 817 959
2830.0 1139 1343 1586 1855 2123 2400 2666 2948 3287 3694
2870.0 4195 4741 5166 5375 5435 5366 5190 5049 5047 5154
2910.0 5353 5621 5944 6329 6802 7346 7828 8064 8079 8001
2950.0 7923 8008 8494 9344 9980 10000 9459 8390 6918 5497
2990.0 4449 3701 3129 2690 2339 2034 1794 1617 1475 1349
3030.0 1232 1144 1066 977 900 832 769 710 650 592
3070.0 536 488 446 422 400 364 352 347 324 308
3110.0 300 295 286 271 254 244 229 220 216 211
3150.0 204 198 201 195 186 182 179 171 149 134
3190.0 129 115 107 108 106 89 76 72 77 79
3230.0 65 56 68 72 62 61 64 59 58 60
3270.0 58 55 48 48 58 56 51 53 53 48
3310.0 50 54 47 36 40 47 48 48 40 41
3350.0 45 34 30 38 41 43 52 50 48 44
3390.0 33 32 35 34 31 35 34 27 34 38
3430.0 32 32 27 24 24 20 31 43 36 31
3470.0 32 35 34 29 22 22 27 31 43 46
3510.0 33 19 20 31 29 32 33 25 26 23
3550.0 15 6 13 26 28 29 36 30 24 29
3590.0 32 30 19 9 10 15 24 27 32 34
3630.0 27 25 34 37 33 42 47 45 47 47
3670.0 39 38 48 48 46 41 41 40 40 41
3710.0 35 38 48 48 49 48 48 45 41 49
3750.0 45 42 46 46 46 51 57 61 66 65
3790.0 55 49 41 36 52 64 54 45 52 55
3830.0 60 61 58 58 44
##END=
