##TITLE=4-Benzyloxypropiophenone
##JCAMP-DX=4.24
##DATA TYPE=INFRARED SPECTRUM
##ORIGIN=NIST Mass Spectrometry Data Center
##OWNER=NIST Standard Reference Data Program
Collection (C) 2018 copyright by the U.S. Secretary of Commerce
on behalf of the United States of America. All rights reserved.
##CAS REGISTRY NO=4495-66-3
##MOLFORM=C 16 H 16 O 2
##$NIST SOURCE=MSDC-IR
##SPECTROMETER/DATA SYSTEM=HP-GC/MS/IRD
##STATE=gas
##XUNITS=1/CM
##YUNITS=ABSORBANCE
##XFACTOR=1.0
##YFACTOR=0.000005200
##DELTAX=4.0
##FIRSTX=550.0
##LASTX=3846.0
##FIRSTY=0.001586
##MAXX=3846
##MINX=550
##MAXY=0.052
##MINY=0
##NPOINTS=825
##XYDATA=(X++(Y..Y))
550.0 305 319 158 206 183 156 137 133 137 164
590.0 199 187 177 157 127 102 70 58 40 35
630.0 77 131 159 133 100 70 18 0 24 66
670.0 127 196 291 413 564 762 904 881 771 689
710.0 646 636 657 717 848 1000 1064 981 807 655
750.0 541 435 331 222 137 92 82 93 131 206
790.0 323 449 544 588 563 484 393 348 359 425
830.0 542 684 817 868 825 723 573 406 263 163
870.0 101 71 49 49 64 83 122 173 214 234
910.0 247 260 294 365 527 817 1195 1599 1925 2039
950.0 1808 1307 835 586 490 467 505 583 701 861
990.0 1055 1304 1630 1978 2275 2448 2481 2419 2266 1977
1030.0 1571 1225 982 753 569 442 354 293 255 249
1070.0 272 286 271 257 245 251 299 356 392 414
1110.0 417 403 372 328 298 303 323 350 411 541
1150.0 756 1129 1903 3500 5767 7067 6141 4080 2538 1844
1190.0 1677 1846 2347 3255 4712 6751 8862 10000 9490 7803
1230.0 6077 5028 4658 4671 4766 4766 4606 4238 3645 2998
1270.0 2510 2224 2086 2052 2084 2145 2198 2196 2154 2112
1310.0 2087 2049 1947 1793 1644 1556 1528 1555 1609 1644
1350.0 1609 1485 1315 1159 1079 1072 1140 1217 1151 903
1390.0 652 522 489 537 658 827 935 878 717 581
1430.0 518 514 563 652 746 836 907 989 1117 1210
1470.0 1117 863 672 626 696 911 1351 2051 2845 3199
1510.0 2732 1794 1047 677 509 425 387 358 357 393
1550.0 441 507 613 824 1109 1456 1816 2123 2414 2896
1590.0 3813 5196 6566 6965 5883 4027 2467 1526 1018 726
1630.0 554 443 391 373 364 368 393 438 482 546
1670.0 648 817 1096 1552 2326 3495 4862 5664 5098 3580
1710.0 2179 1336 857 593 440 335 267 230 201 171
1750.0 138 121 117 107 101 87 79 75 69 69
1790.0 73 84 96 91 79 60 48 41 29 16
1830.0 15 18 17 15 21 29 38 50 61 67
1870.0 70 76 77 77 79 69 60 55 51 47
1910.0 38 31 32 41 51 65 78 84 88 89
1950.0 90 95 95 86 74 61 52 49 48 45
1990.0 42 41 41 41 47 54 67 75 76 70
2030.0 68 62 54 51 50 46 40 40 38 36
2070.0 35 35 32 25 25 22 23 29 29 27
2110.0 25 25 16 13 10 4 6 5 2 4
2150.0 10 6 1 5 9 6 2 1 4 8
2190.0 8 7 7 4 1 5 11 11 15 16
2230.0 19 17 16 16 14 13 17 18 12 11
2270.0 14 17 22 22 20 21 26 31 34 39
2310.0 41 40 36 34 34 27 25 22 21 26
2350.0 27 23 15 11 11 17 22 31 38 43
2390.0 51 52 55 57 60 62 66 65 65 65
2430.0 61 61 60 58 56 61 63 57 56 59
2470.0 56 50 48 53 51 48 48 53 56 58
2510.0 63 66 69 68 68 74 80 80 78 84
2550.0 89 93 84 84 90 93 96 88 86 81
2590.0 76 76 70 57 48 51 53 48 39 30
2630.0 35 37 29 31 33 29 23 23 25 27
2670.0 31 36 32 30 33 34 36 42 51 55
2710.0 48 43 50 57 55 55 61 64 71 74
2750.0 68 71 69 63 74 75 69 70 70 77
2790.0 84 89 99 108 118 123 134 155 170 181
2830.0 186 189 198 202 206 225 248 287 344 410
2870.0 490 579 678 785 893 954 935 872 815 806
2910.0 855 931 986 992 967 962 998 1081 1237 1436
2950.0 1517 1392 1178 1022 947 951 1037 1168 1276 1277
2990.0 1158 974 804 666 574 530 525 547 604 699
3030.0 827 952 1041 1076 1045 975 894 864 912 1030
3070.0 1185 1258 1165 972 824 750 694 636 571 487
3110.0 426 371 303 233 175 143 134 118 103 91
3150.0 81 82 89 88 73 61 62 68 70 67
3190.0 63 64 60 48 44 52 50 48 37 30
3230.0 36 35 30 24 26 30 31 36 37 40
3270.0 37 35 25 23 33 24 15 16 23 30
3310.0 36 36 30 28 31 36 37 45 50 47
3350.0 49 51 54 69 74 84 101 109 98 88
3390.0 86 74 69 60 52 44 26 24 23 29
3430.0 34 36 33 28 22 26 40 34 30 33
3470.0 30 27 30 26 31 40 33 34 36 26
3510.0 18 23 28 28 24 25 32 31 35 38
3550.0 30 29 29 26 14 13 24 21 22 18
3590.0 16 29 28 20 23 24 26 28 31 27
3630.0 19 28 25 21 9 1 22 39 48 33
3670.0 21 24 24 26 27 28 38 53 47 43
3710.0 43 45 40 20 20 26 15 10 20 20
3750.0 11 3 7 16 29 47 49 38 37 30
3790.0 33 31 20 18 21 34 37 34 41 43
3830.0 37 28 24 23 29
##END=
