##TITLE=2-Adamantanone oxime
##JCAMP-DX=4.24
##DATA TYPE=INFRARED SPECTRUM
##ORIGIN=EPA-IR VAPOR PHASE LIBRARY
##OWNER=SRD/NIST
Collection (C) 2018 copyright by the U.S. Secretary of Commerce
on behalf of the United States of America. All rights reserved.
##CAS REGISTRY NO=4500-12-3
##MOLFORM=C 10 H 15 N O
##$NIST SOURCE=MSDC-IR
##STATE=gas
##XUNITS=1/CM
##YUNITS=ABSORBANCE
##XFACTOR=1.
##YFACTOR=0.001
##DELTAX=1.92898
##FIRSTX=549.8
##LASTX=4000.7
##FIRSTY=2.52
##MAXX=4000.7
##MINX=549.759
##MAXY=0.06707
##MINY=0
##NPOINTS=1790
##XYDATA=(X++(Y..Y))
549.759 2.52 2.54 2.53 3.24 3.66 3.53 3.39 3.1 2.78 2.64
569.049 2.6 2.61 2.81 2.51 2.27 2.39 2.74 2.64 2.24 2.74
588.339 3.04 2.64 2.34 2.27 3.03 3.61 3.22 2.95 2.5 2.65
607.628 3.28 3.28 3.26 3.18 3.06 3.31 2.85 2.34 2.72 3.03
626.918 3.39 2.97 2.27 2.67 3.11 3.15 3.18 3.04 3.03 3.37
646.208 3.46 3.36 3.43 3.49 3.55 3.33 3.14 3.09 2.94 2.95
665.498 2.77 2.99 3.33 3 2.85 3.02 2.74 2.59 2.88 3.16
684.787 3.24 2.96 2.93 2.9 3.06 2.96 2.88 3.14 2.84 2.57
704.077 2.65 2.57 2.57 2.94 3.1 3.1 2.94 2.81 2.7 2.54
723.367 2.49 2.62 2.87 3.01 2.91 2.96 2.76 2.2271 2.4 2.56
742.657 2.27 2.2132 2.2185 2.3 2.37 2.42 2.74 2.8 2.38 2.192
761.947 2.41 2.48 2.31 1.9951 1.9844 2.39 2.34 2.1549 2.1697 2.26
781.236 2.49 2.31 2.181 2.35 2.34 2.1052 2.0356 2.1948 2.0981 2.4
800.526 2.93 2.64 2.6 2.81 2.62 2.71 3.35 3.91 3.98 4.27
819.816 4.33 5.42 6.05 5.24 5.74 5.95 6.36 6.44 5.53 4.81
839.106 3.88 3.26 3.17 2.45 1.9771 2.32 2.35 2.0262 1.9693 2.2237
858.395 2.3 2.88 3.57 3.49 3.14 3.18 3.35 3.66 3.95 3.99
877.685 3.96 3.69 3.62 3.91 4.33 5.15 5.86 7.13 9.22 11.18
896.975 13.81 16.68 19.14 21.38 23.26 24.04 24.03 23.78 22.29 20.4
916.265 18.36 15.35 11.99 8.77 6.11 4.82 4.36 4.09 3.87 3.4
935.555 3.57 4.03 4.17 4.35 4.41 4.78 5.2 5.15 4.95 4.96
954.844 4.83 4.34 4.06 3.84 3.11 2.72 2.34 1.966 2.0487 2.37
974.134 2.38 2.23 2.54 2.38 2.4 2.1394 1.6114 1.884 2.1382 2.34
993.424 2.1651 2.31 2.54 2.29 2.26 2.0307 2.0201 2.0061 1.6662 1.123
1012.714 1.4369 2.0629 1.8327 2.2096 2.56 2.27 2.71 2.82 2.1042 2.1944
1032.003 2.32 2.0184 2.0685 1.828 2.34 2.81 2.1596 1.6194 1.6652 1.823
1051.293 1.7539 1.7785 1.8533 2.3 2.57 2.57 2.9 3.11 2.57 2.83
1070.583 3.96 3.99 3.77 3.72 3.62 3.88 3.71 4.62 5.79 5.5
1089.873 4.83 3.83 3.3 3.12 3.66 4.3 3.82 2.9 2.0054 1.3529
1109.163 1.515 0.665 0 0.695 0.43 0.455 1.1526 1.5669 2.1015 1.896
1128.452 1.4721 1.7775 1.4998 1.6208 2.0293 2.2122 1.46 0.928 1.8057 1.9268
1147.742 2.0566 1.9597 1.1769 1.5676 2.23 2.3 3.28 3.5 2.65 2.4
1167.032 2.1738 2.65 2.74 2.9 3.76 3.64 3.19 2.45 2.45 3.14
1186.322 2.67 2.51 2.52 2.27 3.26 3.99 3.75 3.89 3.3 3.34
1205.611 3.57 3.98 4.87 4.42 4.74 5.56 5.47 5.58 3.8 2.32
1224.901 3.21 3.51 3.42 4.17 4.9 4.85 4.87 4.37 4.42 5.1
1244.191 4.48 3.77 3.27 3.21 4.03 4.3 4.12 4.22 3.9 3.85
1263.481 4.52 4.96 5.49 5.78 5.89 6.36 6.99 7.17 6.78 6.48
1282.771 6.41 5.93 5.34 4.84 4.59 4.44 4.19 3.9 3.72 3.79
1302.060 3.8 3.83 3.99 4.01 4.18 4.44 4.64 4.88 5.07 5.05
1321.350 4.97 5.16 5.2 5.19 5.08 4.76 4.49 4.32 4.1 3.71
1340.640 3.57 3.35 3.08 2.97 2.92 3.06 3.08 3 3.1 3.08
1359.930 3.14 3.33 3.51 3.74 3.9 4.13 4.38 4.51 4.65 4.74
1379.219 4.59 4.42 4.12 3.76 3.69 3.48 3.05 2.74 2.42 2.2194
1398.509 2.1417 2.0441 2.083 2.1222 2.156 1.9967 1.9249 2.0243 1.9936 2.0355
1417.799 2.0581 2.1344 2.2064 2.177 2.1621 2.3 2.55 2.81 3.01 3.3
1437.089 3.79 4.17 4.47 4.96 5.42 5.88 6.45 6.78 6.82 6.77
1456.378 6.61 6.19 5.83 5.33 4.85 4.48 3.91 3.42 3.25 3.29
1475.668 3.24 2.89 2.61 2.43 2.153 2.0008 1.9179 1.961 1.9123 1.837
1494.958 1.9619 1.9272 1.7956 1.7794 1.6664 1.5902 1.6673 1.6891 1.7511 1.8449
1514.248 1.7816 1.7905 1.7875 1.7668 1.8272 1.8195 1.8557 1.8175 1.6446 1.7117
1533.538 1.9978 1.8586 1.618 1.6438 1.6627 1.8283 1.8476 1.7282 1.7787 1.7189
1552.827 1.7421 1.9217 1.8503 1.5211 1.4517 1.715 1.6085 1.5829 1.8518 1.9066
1572.117 1.8031 1.6512 1.7218 1.6865 1.6984 1.8378 1.8752 1.9054 1.7526 1.6182
1591.407 1.6578 1.7109 1.6929 1.7715 1.9546 1.7602 1.6081 1.6919 1.7253 1.7356
1610.697 1.7758 1.8251 1.8583 1.8511 1.6855 1.772 1.9549 2.1362 2.2224 2.0935
1629.986 2.1891 2.42 2.35 2.1813 2.2024 2.27 2.44 2.57 2.66 2.92
1649.276 3.16 3.1 3.06 3.15 3.37 3.43 3.22 3.18 3.13 2.94
1668.566 2.54 2.28 2.28 2.41 2.41 2.28 2.1233 2.0834 1.9566 1.8886
1687.856 1.9556 1.8926 1.989 1.9748 1.9014 1.8695 1.9274 2.0599 1.8596 1.8404
1707.146 1.8981 1.6496 1.756 2.0304 2.1408 2.1269 1.9916 1.8709 1.8765 1.9451
1726.435 1.8111 1.7743 1.882 1.8766 1.9293 1.9515 1.8873 1.8047 1.7105 1.775
1745.725 1.7693 1.6341 1.7202 1.9095 1.8173 1.6841 1.7528 1.7805 1.7566 1.8361
1765.015 1.9509 1.89 1.805 1.701 1.6008 1.8129 1.9583 1.8065 1.793 1.7684
1784.305 1.6275 1.7841 1.9373 1.8766 1.8112 1.8239 1.8172 1.7734 1.8993 1.9222
1803.594 1.8057 1.7699 1.6835 1.6733 1.846 1.956 1.796 1.6548 1.701 1.7889
1822.884 1.8693 1.8837 1.8306 1.8096 1.7133 1.5872 1.6044 1.6355 1.7145 1.7554
1842.174 1.7916 1.7744 1.7666 1.6969 1.6104 1.6397 1.7153 1.7953 1.7831 1.7783
1861.464 1.776 1.7167 1.5649 1.6048 1.6905 1.6807 1.5832 1.5948 1.6566 1.8061
1880.754 1.8974 1.7293 1.6747 1.6861 1.7129 1.6505 1.6441 1.6701 1.5525 1.6187
1900.043 1.8181 1.7621 1.6368 1.6549 1.8191 1.9015 1.7729 1.622 1.6307 1.6942
1919.333 1.6964 1.693 1.6701 1.7716 1.7817 1.7214 1.7128 1.6512 1.6123 1.663
1938.623 1.7672 1.7016 1.6029 1.6653 1.679 1.5715 1.5846 1.6738 1.7532 1.8823
1957.913 1.7914 1.7059 1.6435 1.4834 1.6678 1.8061 1.7945 1.8555 1.7037 1.6099
1977.202 1.7228 1.7309 1.6048 1.5709 1.6252 1.6826 1.6587 1.6225 1.5216 1.5163
1996.492 1.6769 1.8141 1.8139 1.7005 1.6999 1.7628 1.8045 1.7114 1.7348 1.7233
2015.782 1.5966 1.7039 1.8201 1.7768 1.5479 1.4359 1.5662 1.5484 1.6082 1.6164
2035.072 1.4774 1.3511 1.4939 1.6731 1.5567 1.541 1.5359 1.581 1.6299 1.7201
2054.362 1.711 1.5038 1.5428 1.6169 1.6406 1.6125 1.4609 1.4385 1.5535 1.6569
2073.651 1.5845 1.4838 1.537 1.5741 1.652 1.684 1.7531 1.7837 1.7222 1.6757
2092.941 1.6408 1.6494 1.634 1.6684 1.6337 1.6174 1.6708 1.6156 1.7075 1.828
2112.231 1.7153 1.5581 1.439 1.6017 1.6311 1.4434 1.441 1.5207 1.6829 1.8479
2131.521 1.794 1.5896 1.5306 1.615 1.6985 1.595 1.4646 1.5932 1.5525 1.4167
2150.810 1.5522 1.758 1.7201 1.6701 1.7851 1.6853 1.7677 1.8426 1.6534 1.5285
2170.100 1.4256 1.5704 1.6159 1.5578 1.6195 1.5401 1.5073 1.592 1.56 1.4168
2189.390 1.3655 1.4842 1.5948 1.6552 1.6529 1.5971 1.4809 1.4819 1.6571 1.7536
2208.680 1.7541 1.7172 1.5745 1.5451 1.582 1.5137 1.6816 1.7306 1.5745 1.51
2227.970 1.4696 1.469 1.4422 1.533 1.7013 1.7057 1.7425 1.7856 1.7112 1.6117
2247.259 1.6977 1.7241 1.6492 1.6819 1.6881 1.7877 1.7539 1.5886 1.5615 1.5228
2266.549 1.3834 1.3507 1.4425 1.5289 1.59 1.5936 1.6489 1.7098 1.6755 1.7073
2285.839 1.6516 1.6921 1.7617 1.6402 1.6152 1.5858 1.5965 1.7692 1.931 1.9546
2305.129 1.7324 1.6654 1.782 1.7079 1.6265 1.5721 1.5719 1.4883 1.4926 1.5614
2324.418 1.5928 1.6412 1.5156 1.4893 1.5111 1.30288 1.5292 1.8655 1.6992 1.6537
2343.708 1.6327 1.5344 1.5398 1.5654 1.5996 1.5391 1.4537 1.4393 1.4727 1.3873
2362.998 1.4528 1.7825 1.7692 1.621 1.6885 1.8813 1.9654 1.7731 1.7395 1.5828
2382.288 1.32014 1.4081 1.6234 1.6095 1.583 1.6129 1.6017 1.8403 1.7891 1.4501
2401.578 1.6188 1.8175 1.6786 1.5891 1.5029 1.4789 1.6239 1.7516 1.5233 1.4318
2420.867 1.5732 1.6434 1.614 1.4756 1.4391 1.5039 1.518 1.4553 1.3808 1.3015
2440.157 1.3437 1.4902 1.6191 1.7208 1.7016 1.6228 1.6222 1.6831 1.5314 1.4825
2459.447 1.6342 1.6046 1.6012 1.7575 1.8369 1.6766 1.6755 1.7392 1.6978 1.5286
2478.737 1.434 1.5713 1.4409 1.4148 1.7147 1.7793 1.7348 1.6791 1.5806 1.4851
2498.026 1.3688 1.4374 1.6161 1.5854 1.6067 1.6866 1.711 1.8464 1.7888 1.8099
2517.316 1.7835 1.7296 1.6275 1.5588 1.7265 1.677 1.6459 1.7356 1.6336 1.6567
2536.606 1.7479 1.7097 1.6732 1.5764 1.788 1.7996 1.8298 1.8665 1.9011 2.0923
2555.896 2.0132 2.1236 2.2221 2.0767 2.0567 2.1369 2.0907 1.956 1.8388 1.775
2575.186 1.8644 1.7683 1.7029 1.6743 1.4811 1.4143 1.5164 1.6948 1.6136 1.6861
2594.475 1.7492 1.7644 1.8949 1.8305 1.7998 1.8729 2.0638 2.0206 1.9428 1.9616
2613.765 1.806 1.7704 1.8899 2.1 2.1348 1.9404 1.9495 2.25 2.25 2.28
2633.055 2.51 2.39 2.46 2.41 2.24 2.5 2.52 2.35 2.4 2.33
2652.345 2.27 2.45 2.56 2.32 2.31 2.59 2.49 2.4 2.1963 1.9904
2671.634 1.9736 2.0059 1.9879 1.7785 1.7133 1.7905 1.8414 1.9606 1.6747 1.4281
2690.924 1.6279 1.6305 1.6064 1.7593 1.8261 1.6882 1.6215 1.8423 2.0228 1.9515
2710.214 1.9039 1.8458 1.6609 1.5034 1.5501 1.5741 1.4545 1.6317 1.7653 1.5618
2729.504 1.32923 1.5579 1.8661 1.7012 1.6482 1.7547 1.6708 1.7115 1.7096 1.3675
2748.794 1.4518 1.7284 1.5519 1.4979 1.9148 1.9282 1.5673 1.5816 1.5721 1.4009
2768.083 1.7541 1.871 1.5922 1.4043 1.415 1.8508 2.0066 1.6907 1.7997 1.9233
2787.373 1.7589 1.8433 1.743 1.8186 2.136 2.2073 2.1061 1.9697 1.8749 2.0007
2806.663 2.0341 2.0334 2.1768 1.9869 1.9608 2.1718 2.24 2.25 2.1921 2.1708
2825.953 2.25 2.2177 2.0657 2.47 3.1 3.23 3.17 3.4 4.1 4.93
2845.242 5.78 7.15 9.04 11.18 13.41 14.94 16.31 18.13 19.19 19.63
2864.532 19.35 18.29 16.88 14.81 12.77 11.26 9.9 8.44 7.1 6.26
2883.822 5.83 5.73 5.94 6.27 6.82 7.99 9.84 12.07 14.97 18.26
2903.112 22.07 26.44 30.92 36.35 42.41 48.28 53.29 57.84 61.54 63.33
2922.401 65.17 67.07 66.98 63.69 58.15 53.1 48.77 43.75 38.03 32.28
2941.691 27.49 23.82 20.59 17.96 15.51 13.17 11.23 9.62 8.31 7.1
2960.981 5.85 4.88 4.52 4.08 3.67 3.71 3.81 3.76 3.69 3.8
2980.271 4.02 4.22 3.88 4.09 4.37 4.07 3.79 3.43 3.07 2.79
2999.561 2.92 2.62 2.27 2.1668 1.9072 1.7829 1.9948 2.0479 1.8167 1.8834
3018.850 2.021 1.6996 1.4624 1.4766 1.5635 1.8292 1.657 1.6285 1.8142 1.6886
3038.140 1.6221 1.7479 1.94 1.8037 1.6469 1.5702 1.5803 1.7797 1.7748 1.6568
3057.430 1.8389 1.7559 1.5987 1.5335 1.5306 1.7652 1.7731 1.8455 1.9468 1.8288
3076.720 1.6164 1.3125 1.29679 1.3339 1.22289 1.32572 1.7783 1.8331 1.5858 1.5796
3096.009 1.7079 1.7544 1.7566 1.75 1.473 1.32798 1.7331 1.9533 1.9092 2.0976
3115.299 2.1043 1.885 1.688 1.7034 1.956 1.9931 1.6256 1.456 1.4044 1.5925
3134.589 1.6146 1.5688 1.5427 1.3686 1.28521 1.4176 1.5935 1.7339 1.8004 1.7358
3153.879 1.76 2.0565 2.1537 1.9696 1.6667 1.2493 1.1772 1.4351 1.7139 1.4967
3173.169 1.4523 1.5826 1.6448 1.8678 1.7216 1.495 1.647 1.5773 1.6827 2.0784
3192.458 1.6516 1.3987 1.6211 1.6579 1.4538 1.4249 1.4806 1.5219 1.514 1.7221
3211.748 1.8698 1.5895 1.7585 1.7475 1.4497 1.26709 1.5384 1.7518 1.6853 1.5456
3231.038 1.519 1.5458 1.28573 1.30998 1.2478 1.26753 1.6296 1.612 1.5969 1.4994
3250.328 1.26525 1.1326 1.23674 1.5696 1.6065 1.8419 1.8148 1.6473 2.074 2.1679
3269.617 1.9883 1.8247 1.5072 1.6624 1.9758 1.8642 1.8264 2.096 1.8804 1.6029
3288.907 1.7653 1.7592 1.8431 1.8131 1.5383 1.6544 1.992 1.7221 1.7502 2.1846
3308.197 2.1949 2.0536 1.7605 1.8536 2.0633 2.0783 2.006 1.5234 1.6261 2.0581
3327.487 1.715 1.5262 1.9308 1.8953 1.6349 1.7849 1.6239 1.4662 1.5885 1.6678
3346.777 1.5693 1.3278 1.3407 1.6826 1.7664 1.8468 1.9991 1.8076 1.5044 1.6518
3366.066 1.8921 1.8298 1.9264 1.7453 1.7244 1.6872 1.5931 1.673 1.4357 1.3731
3385.356 1.7268 2.0815 1.9057 1.7093 1.6031 1.5083 1.5754 1.5672 1.6047 1.4464
3404.646 1.5098 1.6781 1.5814 1.632 1.4607 1.5566 1.4949 1.3709 1.7729 1.7555
3423.936 1.6441 1.8105 1.7483 1.7267 1.7775 1.53 1.5957 1.5941 1.3922 1.4462
3443.225 1.457 1.5664 1.5522 1.3826 1.4852 1.7361 1.9605 1.5469 1.4295 1.7121
3462.515 1.4164 1.4577 1.5408 1.4172 1.5916 1.7169 1.6605 1.2624 0.981 1.047
3481.805 1.22651 1.7789 1.7449 1.5758 1.9345 1.8827 1.6006 1.6933 1.7735 1.6926
3501.095 1.4408 1.3894 1.6624 1.6624 1.6112 1.7713 1.8619 1.8858 2.1624 2.0644
3520.385 1.8978 1.7009 1.5734 1.651 1.64 1.7149 1.655 1.30566 1.078 1.26443
3539.674 1.076 1.2509 1.4638 1.568 1.9356 1.9648 1.801 1.3321 0.998 1.3877
3558.964 2.0077 1.8666 1.7998 2.0827 1.7863 1.5262 1.7157 1.7548 1.5606 1.5148
3578.254 1.6203 1.5691 1.7846 1.8711 1.6524 1.5651 1.4705 1.4229 1.4758 1.7255
3597.544 1.7076 1.6804 1.8625 1.7766 2.0182 2.34 2.1628 1.8462 1.8908 2.224
3616.833 2.37 2.64 2.8 2.73 2.99 3.78 4.78 5.41 6.19 7.67
3636.123 9.44 11.4 13.33 14.79 16.05 16.97 17.1 16.05 14.81 13.49
3655.413 12.01 10.15 7.74 5.79 4.32 3.75 3.18 2.32 2.1523 2.2042
3674.703 2.2202 2.1013 1.8169 1.8691 1.9618 2.1357 2.0418 1.6829 1.9641 2.1532
3693.993 1.7542 1.2178 1.4951 2.1528 2.194 2.0813 2.1349 2.0969 2.0719 1.8534
3713.282 1.8366 2.0734 1.9525 1.3825 1.32576 1.7958 1.6337 1.5442 1.5923 1.514
3732.572 1.7746 2.1662 2.0161 1.4379 1.5003 1.7548 1.7652 1.9342 1.9077 1.6097
3751.862 1.3495 1.23086 1.3626 1.6368 1.594 1.3736 1.4825 2.0739 2.0688 1.7238
3771.152 1.3872 1.4521 1.6085 1.3805 1.3862 1.5784 1.5654 1.31597 1.3966 1.6156
3790.441 1.7026 1.6469 1.5919 1.8697 2.0814 1.8991 1.6998 1.4715 1.6248 1.9731
3809.731 1.7527 1.6422 1.6253 1.3997 1.27291 1.4873 1.8773 1.8933 1.9942 1.7804
3829.021 1.1409 1.081 1.5826 1.6709 1.844 1.767 1.32231 1.30697 1.22788 1.3974
3848.311 1.4823 1.5908 1.4155 1.626 1.8129 1.778 1.7193 1.30921 1.6228 1.8482
3867.601 1.6534 1.5077 1.089 1.25139 1.7197 1.4826 1.24555 1.4469 1.8209 1.629
3886.890 1.4732 1.5565 1.6136 1.7358 1.7522 1.7893 1.9072 1.7203 1.5072 1.6885
3906.180 1.7078 1.6317 1.4033 1.3494 1.6849 1.8711 1.955 1.8625 1.5023 1.4874
3925.470 1.9376 2.2019 1.9958 1.5605 1.117 1.4934 2.35 2.1444 1.6174 1.5082
3944.760 1.6805 1.7442 1.335 1.32921 1.5114 1.6701 1.5686 1.1886 0.997 1.157
3964.049 1.6803 1.8409 1.7378 1.7274 1.6047 1.4793 1.6121 1.6362 1.32586 0.988
3983.339 1.1421 1.6065 1.5715 1.24664 1.482 1.30972 1.3335 1.7031 1.31258 1.1451
##END=
