##TITLE=5-Bromopentanoyl chloride
##JCAMP-DX=4.24
##DATA TYPE=INFRARED SPECTRUM
##ORIGIN=EPA-IR VAPOR PHASE LIBRARY
##OWNER=SRD/NIST
Collection (C) 2018 copyright by the U.S. Secretary of Commerce
on behalf of the United States of America. All rights reserved.
##CAS REGISTRY NO=4509-90-4
##MOLFORM=C 5 H 8 Br Cl O
##$NIST SOURCE=MSDC-IR
##STATE=gas
##XUNITS=1/CM
##YUNITS=ABSORBANCE
##XFACTOR=1.
##YFACTOR=0.001
##DELTAX=3.85796
##FIRSTX=501.5
##LASTX=4000.7
##FIRSTY=2.163
##MAXX=4000.7
##MINX=501.534
##MAXY=0.075413
##MINY=0
##NPOINTS=908
##XYDATA=(X++(Y..Y))
501.534 2.163 2.273 2.353 2.363 2.373 2.623 3.023 3.503 4.073 4.663
540.114 5.273 5.943 6.743 7.583 8.583 9.673 10.673 11.563 12.063 12.083
578.693 11.823 11.483 11.063 10.423 9.643 8.783 7.823 6.893 6.073 5.423
617.273 4.873 4.473 4.273 4.263 4.433 4.693 5.003 5.393 5.853 6.763
655.852 8.063 9.213 9.953 10.433 10.663 10.973 11.823 12.683 12.953 12.553
694.432 11.413 10.013 9.103 8.813 9.033 9.673 10.643 11.803 12.823 13.403
733.011 13.443 13.113 12.783 12.703 12.733 12.793 12.783 12.553 12.163 11.763
771.591 11.353 10.833 10.263 9.533 8.663 7.833 7.073 6.653 6.663 6.833
810.170 6.973 6.963 6.743 6.333 5.913 5.653 5.513 5.463 5.383 5.363
848.750 5.383 5.373 5.483 5.723 5.943 6.023 6.093 6.103 6.123 6.293
887.330 6.553 6.963 7.583 8.313 9.193 10.143 11.253 12.623 14.233 16.063
925.909 18.003 19.863 21.383 22.293 22.493 22.283 21.933 21.723 21.543 21.273
964.489 20.893 20.413 19.933 19.323 18.563 17.763 16.873 15.963 15.183 14.563
1003.068 14.023 13.523 13.113 12.813 12.483 12.033 11.513 10.903 10.243 9.903
1041.648 9.933 9.863 9.843 10.023 10.203 10.353 10.533 10.603 10.493 10.243
1080.227 9.753 9.033 8.103 7.123 6.083 5.203 4.603 4.103 3.843 3.683
1118.807 3.653 3.773 3.843 3.883 4.053 4.283 4.533 4.843 5.133 5.323
1157.387 5.243 5.003 4.683 4.343 4.083 3.783 3.563 3.493 3.363 3.273
1195.966 3.173 2.983 2.883 2.913 2.893 2.883 2.913 3.003 3.063 3.043
1234.546 3.263 3.573 3.833 4.143 4.353 4.503 4.703 4.943 5.243 5.733
1273.125 6.423 7.043 7.493 7.813 7.913 7.883 7.793 7.793 7.843 7.803
1311.705 7.753 7.593 7.253 6.773 6.253 5.733 5.283 4.943 4.653 4.423
1350.284 4.243 4.063 3.883 3.693 3.453 3.183 2.893 2.643 2.463 2.363
1388.864 2.343 2.453 2.663 2.973 3.383 3.833 4.233 4.563 4.803 5.013
1427.443 5.233 5.533 5.913 6.403 7.083 7.793 8.173 8.083 7.423 6.263
1466.023 4.973 3.853 2.943 2.213 1.663 1.253 0.95 0.7254 0.5665 0.4482
1504.603 0.3502 0.27947 0.227318 0.173 0.1359 0.092 0.052 0.035 0.014 0.016
1543.182 0.013 0.001 0 0.015 0.055 0.083 0.094 0.114 0.1247 0.1469
1581.762 0.163 0.1703 0.1931 0.226917 0.27116 0.30282 0.3113 0.3506 0.3903 0.4031
1620.341 0.4488 0.4934 0.5031 0.5309 0.5741 0.5794 0.6208 0.6564 0.6765 0.7172
1658.921 0.7479 0.7981 0.8603 0.9 0.9241 0.9767 1.0321 1.0679 1.0853 1.1357
1697.500 1.2069 1.263 1.363 1.463 1.603 1.813 2.013 2.223 2.483 2.803
1736.080 3.193 3.643 4.223 4.983 5.983 7.283 8.943 11.003 13.453 16.393
1774.659 20.063 24.593 30.273 37.413 45.773 54.963 63.943 71.273 75.413 75.223
1813.239 70.683 62.623 52.293 41.703 32.393 24.903 19.243 15.123 12.153 9.993
1851.819 8.403 7.223 6.333 5.643 5.093 4.603 4.203 3.863 3.553 3.273
1890.398 3.013 2.783 2.563 2.403 2.263 2.123 2.013 1.913 1.823 1.743
1928.978 1.683 1.633 1.563 1.503 1.453 1.383 1.353 1.303 1.253 1.2142
1967.557 1.1875 1.1524 1.1134 1.0902 1.065 1.0302 1.0124 1.0034 0.9865 0.9686
2006.137 0.9647 0.9751 0.9739 0.9788 0.9864 1.0067 1.0501 1.0872 1.1397 1.2065
2044.716 1.283 1.403 1.543 1.723 1.953 2.213 2.493 2.833 3.253 3.763
2083.296 4.393 5.233 6.323 7.703 9.483 11.853 14.953 18.853 23.463 28.163
2121.875 31.943 33.803 33.293 30.523 25.773 19.963 14.583 10.533 7.763 5.863
2160.455 4.523 3.583 2.933 2.453 2.073 1.763 1.573 1.423 1.283 1.2098
2199.035 1.1326 1.0642 1.0309 0.9943 0.9721 0.9626 0.96 0.9495 0.9314 0.9397
2237.614 0.9459 0.9425 0.9378 0.937 0.9238 0.877 0.8443 0.8009 0.7639 0.7723
2276.194 0.7761 0.7852 0.7855 0.775 0.7897 0.7874 0.7841 0.7772 0.75 0.7531
2314.773 0.7512 0.7443 0.7614 0.7501 0.7455 0.7347 0.7312 0.7411 0.7199 0.7189
2353.353 0.7564 0.7955 0.7935 0.7723 0.7581 0.7364 0.7126 0.6984 0.6543 0.6313
2391.932 0.6361 0.606 0.5834 0.583 0.5745 0.5661 0.5763 0.5779 0.5631 0.5554
2430.512 0.5631 0.5707 0.5637 0.5438 0.5501 0.5644 0.5418 0.5282 0.5258 0.5205
2469.092 0.5388 0.5228 0.5129 0.5271 0.5086 0.4975 0.5012 0.5301 0.5358 0.5165
2507.671 0.5369 0.5314 0.5214 0.5289 0.5282 0.5412 0.5472 0.5262 0.5055 0.4925
2546.251 0.4831 0.4533 0.4549 0.4949 0.486 0.4682 0.512 0.5167 0.4781 0.472
2584.830 0.4725 0.4771 0.4768 0.5288 0.5459 0.4813 0.4634 0.46 0.4716 0.5179
2623.410 0.6251 0.6195 0.5475 0.5734 0.5774 0.562 0.5986 0.7475 0.7187 0.6077
2661.989 0.6175 0.6413 0.6653 0.78 0.9033 0.7825 0.7353 0.7623 0.7447 0.7793
2700.569 1.0526 1.0605 0.8083 0.7698 0.8001 0.7761 1.0156 1.313 1.0526 0.8517
2739.148 0.8917 0.8706 1.0255 1.453 1.273 0.9186 0.9451 0.9334 1.0248 1.483
2777.728 1.423 1.0147 1.0116 0.9798 1.1227 1.643 1.573 1.1635 1.2212 1.253
2816.308 1.483 1.993 1.893 1.593 1.733 1.873 2.363 2.933 3.003 3.183
2854.887 3.553 3.983 4.613 5.013 5.243 5.623 5.923 6.093 6.133 6.033
2893.467 5.973 6.023 6.323 6.903 7.283 7.693 8.333 9.123 10.223 10.803
2932.046 11.283 12.153 13.343 14.943 15.873 16.693 17.773 18.953 19.733 18.933
2970.626 17.553 15.903 14.423 12.623 10.643 9.533 9.263 9.193 8.163 6.893
3009.205 5.873 4.973 3.843 2.853 2.473 2.373 2.073 1.703 1.623 1.733
3047.785 1.633 1.413 1.493 1.543 1.383 1.283 1.283 1.1539 0.997 0.9635
3086.364 0.9391 0.8382 0.8267 0.8093 0.7332 0.7526 0.7602 0.7403 0.7526 0.7798
3124.944 0.7944 0.7736 0.7444 0.6953 0.6809 0.6752 0.6717 0.7086 0.7368 0.6879
3163.524 0.6673 0.6917 0.6796 0.6942 0.7031 0.6822 0.6914 0.6519 0.6335 0.6557
3202.103 0.6477 0.6214 0.6082 0.6527 0.6839 0.6873 0.6968 0.715 0.7489 0.7293
3240.683 0.7188 0.7626 0.762 0.7031 0.7042 0.7031 0.6255 0.5865 0.5826 0.6226
3279.262 0.6695 0.6179 0.5962 0.6014 0.6212 0.6546 0.6191 0.5832 0.5608 0.5618
3317.842 0.5825 0.5769 0.5952 0.6276 0.5545 0.5147 0.6112 0.5683 0.5324 0.616
3356.421 0.6186 0.6063 0.6306 0.6452 0.6148 0.5866 0.594 0.588 0.5841 0.6014
3395.001 0.6341 0.6266 0.6102 0.5774 0.5536 0.5955 0.5947 0.5986 0.6166 0.6298
3433.580 0.6538 0.6517 0.6452 0.6404 0.6174 0.6433 0.686 0.6806 0.6561 0.6749
3472.160 0.7114 0.719 0.7426 0.758 0.7588 0.755 0.7455 0.7734 0.7864 0.7934
3510.740 0.8142 0.8291 0.8598 0.8502 0.8205 0.7808 0.7643 0.8242 0.8406 0.8728
3549.319 0.9572 1.0189 1.0812 1.1332 1.293 1.553 1.723 1.823 1.913 1.943
3587.899 1.893 1.883 1.893 1.813 1.693 1.573 1.423 1.283 1.218 1.1865
3626.478 1.1427 1.0428 0.9513 0.9206 0.8663 0.8234 0.8023 0.77 0.7268 0.6929
3665.058 0.7146 0.6897 0.6219 0.6022 0.6239 0.6409 0.6118 0.5984 0.6564 0.669
3703.637 0.5898 0.5554 0.5377 0.537 0.5391 0.5608 0.5971 0.5914 0.6014 0.6387
3742.217 0.6174 0.5636 0.5883 0.6096 0.5644 0.5031 0.4964 0.5268 0.5766 0.5888
3780.797 0.5469 0.5419 0.5418 0.554 0.5961 0.5868 0.5364 0.5467 0.6126 0.6047
3819.376 0.5471 0.5093 0.5028 0.5287 0.5528 0.55 0.5468 0.5175 0.4993 0.5374
3857.956 0.5703 0.5948 0.5852 0.5627 0.5364 0.5707 0.6102 0.5837 0.5844 0.6059
3896.535 0.6188 0.6297 0.5904 0.5729 0.5746 0.5595 0.5731 0.5817 0.6471 0.6544
3935.115 0.6216 0.618 0.6157 0.5996 0.5863 0.6377 0.6031 0.5493 0.6149 0.659
3973.694 0.6465 0.6788 0.6738 0.6492 0.7327 0.8137 0.7087 0.6317
##END=
