##TITLE=Phenylbenzyl ketone
##JCAMP-DX=4.24
##DATA TYPE=INFRARED SPECTRUM
##ORIGIN=EPA-IR VAPOR PHASE LIBRARY
##OWNER=SRD/NIST
Collection (C) 2018 copyright by the U.S. Secretary of Commerce
on behalf of the United States of America. All rights reserved.
##CAS REGISTRY NO=451-40-1
##MOLFORM=C 14 H 12 O
##$NIST SOURCE=MSDC-IR
##STATE=gas
##XUNITS=1/CM
##YUNITS=ABSORBANCE
##XFACTOR=1.
##YFACTOR=0.001
##DELTAX=3.85796
##FIRSTX=501.5
##LASTX=4000.7
##FIRSTY=0.8159
##MAXX=4000.7
##MINX=501.534
##MAXY=0.0493048
##MINY=0
##NPOINTS=908
##XYDATA=(X++(Y..Y))
501.534 0.8159 1.0347 1.2448 1.3648 1.6148 2.0848 2.5148 2.7448 2.7048 2.4948
540.114 2.2248 1.9448 1.9948 2.3248 2.9348 4.0148 5.0648 5.5248 5.3748 5.2948
578.693 6.0148 7.8448 10.5848 12.8848 13.1248 10.8548 7.3848 4.7948 3.5748 3.1848
617.273 3.1348 3.1048 2.8848 2.5048 2.1448 1.9548 1.9748 2.0848 2.3448 2.8548
655.852 3.8048 5.2348 6.9148 8.6848 10.6348 13.2148 16.9448 22.0248 27.9448 33.0048
694.432 34.7148 32.0948 26.7248 21.4048 18.7148 18.7748 19.3748 18.6048 16.2048 13.4848
733.011 11.9048 11.8948 13.0848 14.7148 15.7548 15.1648 12.9548 10.1148 7.8048 6.3048
771.591 5.2448 4.4148 3.6648 3.1048 2.6748 2.3248 2.0348 1.7248 1.4748 1.2448
810.170 1.0218 0.9076 0.9008 0.9203 0.9723 1.0316 1.0948 1.0948 1.0083 0.9005
848.750 0.7639 0.7346 0.7439 0.7086 0.7187 0.7286 0.7821 0.8327 0.8612 0.9443
887.330 1.0335 1.1748 1.3648 1.4548 1.4848 1.5848 1.7648 1.9648 2.1148 2.2748
925.909 2.4748 2.6148 2.5248 2.2648 1.9348 1.6848 1.6648 1.7048 1.8448 2.1748
964.489 2.6248 3.2048 4.0848 5.3848 7.1148 9.0548 10.5448 11.0948 10.9448 10.6048
1003.068 10.4948 10.6448 10.8948 11.1648 10.7148 9.4748 8.2848 7.3448 6.4948 5.3648
1041.648 4.0948 3.1448 2.6048 2.4848 2.6048 2.7848 2.9048 2.9848 2.9348 2.7048
1080.227 2.3748 2.0848 1.9248 1.8648 1.7848 1.6848 1.5448 1.4348 1.4448 1.4148
1118.807 1.3948 1.4948 1.6848 1.9348 2.2448 2.7648 3.4948 4.2148 5.0448 5.7548
1157.387 6.1748 6.3848 6.4848 7.1248 9.1148 12.0148 13.9248 14.2448 13.3548 12.4748
1195.966 12.3648 12.2348 11.8848 11.8548 12.0148 11.8048 11.1548 10.4348 10.0548 10.1448
1234.546 10.4048 10.7548 11.6248 13.2548 15.7848 19.1848 22.8048 25.8448 27.4448 27.1048
1273.125 24.9048 21.7948 18.8248 16.2348 14.0248 12.2948 11.0248 10.1848 9.8748 10.1548
1311.705 10.8648 11.6748 12.1948 12.2848 11.9848 11.3948 10.6048 9.4348 7.8448 6.1048
1350.284 4.5448 3.4948 2.9148 2.5848 2.4048 2.2748 2.1848 2.1048 1.9948 1.8448
1388.864 1.6948 1.5948 1.5848 1.6848 1.8648 2.1148 2.4248 2.7748 3.1748 3.6748
1427.443 4.3548 5.2248 6.3748 7.9748 9.8748 11.1348 10.8548 9.0648 6.5048 4.6248
1466.023 3.5148 2.8448 2.5648 2.6148 3.1648 4.4348 6.6848 9.0048 9.7848 8.5848
1504.603 5.9248 3.4448 2.3548 1.9148 1.7448 1.6848 1.6648 1.6548 1.6148 1.5548
1543.182 1.5148 1.5348 1.6248 1.7548 1.9548 2.2548 2.6948 3.3748 4.2348 5.1448
1581.762 5.9248 6.5448 7.1748 8.0148 8.8348 9.0648 8.3848 6.9248 5.2748 3.9248
1620.341 3.0648 2.5348 2.1948 2.0248 1.9948 2.0448 2.1748 2.4348 2.7748 3.2248
1658.921 3.7248 4.3648 5.2548 6.4848 8.2648 11.1848 16.1148 24.1148 34.1448 43.3748
1697.500 48.9648 49.3048 44.5248 36.6648 28.3048 20.5848 14.3948 10.1648 7.3848 5.6048
1736.080 4.4248 3.6548 3.1248 2.7648 2.4948 2.2848 2.1348 2.0048 1.8848 1.8148
1774.659 1.7748 1.7548 1.7648 1.8648 2.0648 2.2448 2.3648 2.3548 2.2348 1.9748
1813.239 1.6548 1.3848 1.1448 0.9733 0.8838 0.8099 0.7701 0.7651 0.7808 0.8371
1851.819 0.9142 0.994 1.0648 1.1448 1.1948 1.2248 1.2548 1.2948 1.3248 1.3048
1890.398 1.2948 1.2748 1.2348 1.2248 1.1648 1.1048 1.0848 1.0748 1.0948 1.1348
1928.978 1.2048 1.3348 1.4848 1.6148 1.7348 1.8648 1.9448 1.8948 1.7248 1.4948
1967.557 1.2748 1.0948 0.8923 0.6974 0.56 0.4661 0.413 0.3772 0.3545 0.3258
2006.137 0.3016 0.294 0.2828 0.282 0.2821 0.2767 0.2624 0.2412 0.2257 0.214
2044.716 0.2181 0.223 0.2111 0.1973 0.2002 0.212 0.202 0.1669 0.1474 0.1511
2083.296 0.1486 0.1487 0.13672 0.1217 0.10791 0.10388 0.08143 0.053599 0.06926 0.07835
2121.875 0.0784 0.06249 0.0585 0.07853 0.09613 0.08633 0.0688 0.08222 0.0828 0.08482
2160.455 0.1081 0.13238 0.13661 0.13478 0.14121 0.13612 0.12961 0.1251 0.12487 0.12953
2199.035 0.13401 0.13623 0.10741 0.10173 0.10494 0.08234 0.11032 0.12452 0.0965 0.09649
2237.614 0.1071 0.11641 0.12566 0.14032 0.148 0.1584 0.1715 0.1772 0.1926 0.1987
2276.194 0.2212 0.2337 0.2147 0.21 0.2211 0.229 0.2321 0.2584 0.3116 0.3973
2314.773 0.4748 0.4887 0.4678 0.4199 0.3661 0.3607 0.3772 0.3743 0.3302 0.2865
2353.353 0.2721 0.2344 0.1982 0.1938 0.196 0.2003 0.2134 0.1941 0.1624 0.1473
2391.932 0.14166 0.151 0.1565 0.1463 0.1702 0.1927 0.1686 0.1525 0.1545 0.1474
2430.512 0.12021 0.1005 0.11259 0.12411 0.11032 0.10157 0.10256 0.10354 0.09711 0.08295
2469.092 0.0758 0.053963 0.03765 0.046342 0.06526 0.07012 0.06795 0.07058 0.06292 0.07868
2507.671 0.06995 0.0795 0.11875 0.12044 0.13984 0.13913 0.1248 0.13169 0.12395 0.12075
2546.251 0.11238 0.08224 0.07272 0.09264 0.09444 0.08881 0.08973 0.09474 0.11742 0.151
2584.830 0.1615 0.189 0.2318 0.2494 0.2505 0.2375 0.2273 0.219 0.2113 0.2118
2623.410 0.2153 0.1923 0.1665 0.1709 0.1685 0.12742 0.09785 0.09987 0.08981 0.07665
2661.989 0.0635 0.05595 0.056 0.07087 0.08095 0.07058 0.07101 0.08535 0.13507 0.1567
2700.569 0.14228 0.14422 0.1448 0.14444 0.12441 0.10448 0.12199 0.14354 0.12979 0.12612
2739.148 0.1591 0.1727 0.1961 0.2036 0.1807 0.1805 0.185 0.1781 0.1859 0.221
2777.728 0.2404 0.2505 0.2396 0.2422 0.2699 0.2683 0.2911 0.3329 0.3265 0.3022
2816.308 0.3359 0.3588 0.3869 0.4433 0.4873 0.546 0.5882 0.6563 0.7387 0.7881
2854.887 0.8118 0.8396 0.8669 0.8798 0.9256 0.9875 1.0448 1.1248 1.2648 1.4648
2893.467 1.7348 2.0148 2.2648 2.4548 2.5748 2.6348 2.7548 2.9148 3.0848 3.2348
2932.046 3.2948 3.2648 3.1048 2.9148 2.7648 2.6748 2.6848 2.7548 2.8048 2.7148
2970.626 2.5748 2.3248 2.1048 1.9648 1.8548 1.8248 1.8548 2.0048 2.3448 2.8348
3009.205 3.4048 4.2048 5.3548 6.8848 8.9348 11.2948 13.3648 14.4148 14.0648 12.6548
3047.785 11.1648 10.4948 11.0548 12.9048 15.9548 19.6448 21.9248 21.5348 18.8748 15.5648
3086.364 13.5248 12.3848 11.0448 9.4048 7.7548 6.3248 5.0648 3.9048 2.8948 2.0548
3124.944 1.4748 1.1148 0.8952 0.7779 0.6649 0.5918 0.5996 0.6005 0.6113 0.6464
3163.524 0.6132 0.502 0.4141 0.3382 0.2842 0.2465 0.1778 0.13449 0.1505 0.1619
3202.103 0.1146 0.10989 0.13691 0.0993 0.10076 0.11881 0.10818 0.06757 0.0093 0.0195
3240.683 0.06495 0.09913 0.08322 0.051777 0.0148 0.0422 0.0639 0.05537 0.053507 0.0392
3279.262 0.0089 0.0094 0.07298 0.09084 0.08754 0.08952 0.06223 0.0306 0.03936 0.052898
3317.842 0.05882 0.08522 0.10611 0.09252 0.12741 0.1704 0.1615 0.1903 0.2373 0.281
3356.421 0.3157 0.4046 0.5709 0.6625 0.7363 0.8464 0.8682 0.8297 0.7662 0.605
3395.001 0.5003 0.5119 0.4985 0.4241 0.335 0.2653 0.2503 0.2161 0.1563 0.1675
3433.580 0.12555 0.07783 0.08263 0.08537 0.07855 0.06704 0.07829 0.09085 0.09098 0.06845
3472.160 0.07307 0.06106 0.0299 0.07048 0.14233 0.128 0.06351 0.048191 0.050773 0.03596
3510.740 0 0.0125 0.050724 0.10734 0.1053 0.0557 0.09401 0.10792 0.07363 0.10845
3549.319 0.12304 0.07474 0.06252 0.08763 0.09724 0.08273 0.054352 0.07174 0.06953 0.0266
3587.899 0.0169 0.03829 0.07504 0.1123 0.12301 0.09096 0.09242 0.06938 0.0324 0.08383
3626.478 0.11975 0.13206 0.1827 0.1927 0.1573 0.1584 0.2387 0.2358 0.2115 0.212
3665.058 0.13831 0.12772 0.162 0.1966 0.1669 0.1699 0.1925 0.1553 0.202 0.2157
3703.637 0.1689 0.1866 0.2303 0.2028 0.1486 0.11961 0.11409 0.12585 0.12594 0.12495
3742.217 0.13242 0.12443 0.11271 0.13396 0.1505 0.10723 0.1082 0.1475 0.1451 0.1837
3780.797 0.2074 0.1583 0.1473 0.1514 0.12505 0.11172 0.09918 0.10883 0.13615 0.1814
3819.376 0.1701 0.13488 0.14466 0.14145 0.1696 0.21 0.2064 0.13833 0.1148 0.1827
3857.956 0.2086 0.1597 0.08758 0.08741 0.165 0.2105 0.1791 0.1469 0.1605 0.1599
3896.535 0.14252 0.12357 0.12029 0.14042 0.1457 0.09989 0.09909 0.1544 0.11195 0.0693
3935.115 0.08053 0.07432 0.08749 0.11194 0.1525 0.1786 0.12768 0.08245 0.07489 0.1128
3973.694 0.08942 0.06868 0.11882 0.13551 0.1695 0.1971 0.1788 0.1748
##END=
