##TITLE=1H,1H-Pentafluoro-n-propyl methacrylate
##JCAMP-DX=4.24
##DATA TYPE=INFRARED SPECTRUM
##ORIGIN=EPA-IR VAPOR PHASE LIBRARY
##OWNER=SRD/NIST
Collection (C) 2018 copyright by the U.S. Secretary of Commerce
on behalf of the United States of America. All rights reserved.
##CAS REGISTRY NO=45115-53-5
##MOLFORM=C 7 H 7 F 5 O 2
##$NIST SOURCE=MSDC-IR
##STATE=gas
##XUNITS=1/CM
##YUNITS=ABSORBANCE
##XFACTOR=1.
##YFACTOR=0.001
##DELTAX=1.92898
##FIRSTX=549.8
##LASTX=4000.7
##FIRSTY=2.95
##MAXX=4000.7
##MINX=549.759
##MAXY=0.20267
##MINY=0
##NPOINTS=1790
##XYDATA=(X++(Y..Y))
549.759 2.95 1.6342 2.4362 3.65 3.37 2.73 1.7182 2.65 2.77 1.7694
569.049 1.9426 1.7089 2.79 3.73 3.28 3.93 3.77 4.07 4.72 4.48
588.339 3.89 4.1 4.75 4.34 3.94 4.13 3.96 3.73 3.57 3.13
607.628 3.19 3.37 3.31 3.53 3.57 3.84 4.26 4.61 5.83 6.2
626.918 6.18 6.22 6.77 6.95 6.81 6.61 6.61 6.99 6.65 6.89
646.208 7.55 8.26 8.59 8.93 9.49 10.14 10.08 9.44 9.24 8.92
665.498 7.97 7.91 7.32 5.89 4.87 4.15 4.17 3.78 3.53 3.1
684.787 2.64 2.64 2.75 2.84 2.73 2.77 2.73 2.66 2.74 3.11
704.077 3.55 3.65 3.86 4.77 5.52 6.6 7.31 7.97 8.86 8.88
723.367 8.63 8.26 7.54 6.63 5.69 3.96 3.42 3.34 2.72 2.1237
742.657 1.6281 1.9021 2.0699 1.8452 1.6686 1.201 0.934 0.949 1.291 1.911
761.947 2.3105 2.61 3.04 2.73 2.3478 2.81 2.76 2.88 3.38 3.64
781.236 3.05 2.85 3.1 3.26 3.2 3.09 3.53 3.91 3.8 4.24
800.526 5.13 5.44 6.07 6.73 6.72 6.7 6.68 6.38 5.64 5.03
819.816 4.43 4.72 5.68 5.15 4.23 3.97 4.02 4.32 4.63 4.21
839.106 4.33 4.35 3.95 4.16 4.73 5.15 5.04 4.79 4.65 4.93
858.395 4.93 4.31 4.22 4.09 3.61 3.79 4.37 4.39 4.28 4.12
877.685 3.87 4.24 4.47 4.27 4.33 4.36 4.04 3.96 3.89 3.87
896.975 3.34 3.08 3.37 3.53 3.95 4.24 3.92 4.01 4.9 4.9
916.265 4.99 5.31 5.44 5.83 6.66 8.26 9.79 10.9 12.11 13.97
935.555 15.63 17.59 18.99 19.65 20.72 21.52 21.85 21.07 20.05 18.89
954.844 17.21 16.19 15.39 13.92 12.92 12.47 11.34 10.61 9.96 9.01
974.134 8.6 8.49 8.22 8.07 8.09 7.78 8.11 8.49 8.48 8.48
993.424 8.36 8.61 8.55 8.88 10.18 10.54 10.75 12.56 14.54 16.15
1012.714 18.02 19.55 20.96 21.25 20.62 19.92 18.38 15.97 14.23 13.15
1032.003 11.71 11.08 11.12 9.85 9.66 9.86 8.46 8.68 10.45 11.27
1051.293 11.05 11.14 11.61 12.75 14.25 15.02 15.43 16.77 18.41 17.96
1070.583 16.72 15.64 13.92 13.55 14.77 13.54 11.52 13.26 15.21 16.56
1089.873 20.22 24.62 27.33 30.36 36.78 42.9 48.06 52.7 55.14 56.59
1109.163 55.91 53.91 53.34 51.32 49.19 48.57 50.72 55.84 59.88 65.96
1128.452 73.05 81.66 92.16 103.73 115.15 124.84 133.42 138.35 142.06 144.59
1147.742 144.48 140.91 134.57 125.54 114.54 105.82 96.62 86.01 77.39 70.46
1167.032 64.3 59.5 55.47 52.66 51.01 48.51 47.66 47.01 45.33 45.75
1186.322 46.34 47.76 51.12 55.98 63.96 72.2 83.05 97.96 113.76 132.87
1205.611 152.3 171.57 188.55 199.71 202.67 196.66 182.88 162.19 137.09 114.02
1224.901 95.21 77.29 64.2 54.71 46.93 41.88 37.24 33.44 31.59 29.13
1244.191 27.73 27.78 27.56 27.92 28.3 27.68 27.38 27.73 27.74 27.25
1263.481 26.32 25.69 24.63 23.78 23.55 23.86 23.93 23.86 25.38 27.23
1282.771 28.68 30.78 32.47 34.29 35.99 36.18 35.89 35.2 34.11 32.89
1302.060 31.39 30.03 29.34 29.36 29.71 30.26 30.49 30.26 29.26 27.25
1321.350 24.99 22.52 20.02 17.58 15.6 14.37 13.58 13.06 12.89 12.9
1340.640 13.22 13.86 14.25 14.3 14.19 14.14 13.54 12.93 12.45 11.89
1359.930 11.51 11.04 10.64 10.64 10.55 10.47 10.47 10.3 10.22 9.98
1379.219 9.91 10.08 10.11 10.01 10.14 10.2 10.42 10.89 11.25 11.56
1398.509 11.79 12.09 12.18 12.1 11.97 11.79 11.77 11.48 10.83 10.07
1417.799 9.58 8.99 8.14 7.77 7.64 7.48 7.2 6.8 6.8 7.13
1437.089 7.35 7.46 7.57 8.13 8.96 9.35 9.73 10.25 10.88 11.44
1456.378 11.77 12.12 12.22 11.97 11.21 10.48 9.63 8.64 7.82 6.96
1475.668 6.14 5.36 4.72 4.34 4.11 3.89 3.78 3.69 3.55 3.37
1494.958 3.24 3 2.9 3.05 2.89 2.79 2.89 2.74 2.5091 2.54
1514.248 2.5063 2.4642 2.62 2.82 2.74 2.5141 2.56 2.4543 2.4681 2.4537
1533.538 2.4805 2.74 2.77 2.68 2.69 2.82 2.64 2.2619 2.3337 2.4382
1552.827 2.4041 2.6 2.67 2.71 2.72 2.3445 2.3122 2.3225 2.2006 2.3761
1572.117 2.61 2.9 2.91 2.62 2.92 3.11 2.77 2.81 2.65 2.79
1591.407 3.21 3.22 3.11 2.85 2.68 2.73 3.01 3.28 3.35 3.29
1610.697 3.35 3.67 3.9 4.11 4.09 4.04 4.36 4.68 4.96 5.24
1629.986 5.5 5.57 5.75 6.19 6.53 6.39 6.12 5.89 5.4 4.82
1649.276 4.31 4.22 3.96 3.27 2.99 3 2.87 2.99 2.84 2.5069
1668.566 2.6 2.501 2.3375 2.3154 2.5151 2.58 2.58 2.78 2.77 2.75
1687.856 2.93 3.25 3.47 3.56 3.75 3.97 4.21 4.35 4.57 4.77
1707.146 4.86 5.14 5.55 5.82 5.89 6.33 6.84 7.12 7.78 8.7
1726.435 9.76 11.25 13.06 15.06 17.93 21.04 24.63 29.55 35.19 41.35
1745.725 48 54.73 60.31 65.03 68.1 68.83 67.46 64.15 58.91 52.66
1765.015 45.95 39.11 32.88 27.44 22.39 18.39 15.22 12.59 10.44 8.85
1784.305 7.74 6.89 6.31 5.7 5.13 4.8 4.62 4.57 4.44 4.24
1803.594 4.32 4.33 4.27 4.16 3.92 3.77 3.5 3.38 3.41 3.2
1822.884 2.99 2.91 2.64 2.56 2.3972 2.103 2.0766 2.1013 2.1013 2.0895
1842.174 2.0915 2.0951 2.0221 1.9862 1.9786 1.8502 1.7308 1.7812 1.8702 1.9661
1861.464 1.8718 1.6611 1.7823 2.0146 2.1211 2.1337 2.1125 2.0551 2.1671 2.4281
1880.754 2.53 2.4316 2.428 2.65 2.66 2.53 2.4063 2.3172 2.3877 2.4353
1900.043 2.4739 2.3613 2.0753 1.7377 1.7098 1.9698 1.9268 1.8847 1.9833 1.8871
1919.333 1.8573 1.888 1.752 1.6808 1.7056 1.7513 1.842 1.9468 1.9499 1.7621
1938.623 1.59301 1.7581 1.808 1.7171 1.7193 1.8917 1.8328 1.7071 1.7325 1.6524
1957.913 1.7558 1.8727 1.8765 1.8423 1.7594 1.53138 1.676 1.6761 1.6259 1.7989
1977.202 1.9609 2.0563 1.8954 1.8674 1.9712 1.9051 1.6926 1.8017 1.835 1.7407
1996.492 1.8347 1.6503 1.4842 1.6871 1.6723 1.385 1.4572 1.7068 1.6813 1.61924
2015.782 1.6708 1.57844 1.56216 1.6392 1.59066 1.57876 1.4779 1.4613 1.51909 1.5242
2035.072 1.4933 1.54083 1.7898 1.7098 1.4887 1.383 1.454 1.6307 1.7662 1.8144
2054.362 1.6375 1.6561 1.6481 1.60295 1.7423 1.6424 1.53722 1.51124 1.4232 1.362
2073.651 1.52265 1.781 1.61215 1.4243 1.605 1.7133 1.7149 1.7464 1.7619 1.7373
2092.941 1.789 1.8333 1.8054 1.8913 1.8852 1.9478 1.8867 1.8799 2.0025 1.9639
2112.231 1.8555 1.725 1.7553 1.56953 1.356 1.4823 1.4352 1.314 1.52771 1.55387
2131.521 1.357 1.38 1.4903 1.58334 1.60843 1.6316 1.6394 1.38 1.256 1.255
2150.810 1.25 1.4949 1.54717 1.5071 1.7691 1.8611 1.736 1.6695 1.6706 1.53529
2170.100 1.355 1.198 1.089 1.381 1.6255 1.54449 1.57988 1.4956 1.404 1.299
2189.390 1.193 1.42 1.4712 1.6386 1.845 1.6493 1.52072 1.58332 1.6552 1.55884
2208.680 1.411 1.56721 1.6237 1.4521 1.59053 1.5067 1.57178 1.9324 1.773 1.6695
2227.970 1.6976 1.8051 1.803 1.6599 1.53691 1.51375 1.37 1.235 1.318 1.318
2247.259 1.303 1.463 1.4741 1.53716 1.52168 1.388 1.4821 1.4832 1.325 1.222
2266.549 1.395 1.349 1.308 1.382 1.386 1.409 1.258 1.123 1.211 1.225
2285.839 1.261 1.402 1.335 1.207 1.243 1.401 1.4987 1.51878 1.52391 1.417
2305.129 1.38 1.416 1.333 1.308 1.4746 1.58469 1.51074 1.52662 1.682 1.54525
2324.418 1.314 1.4787 1.53744 1.418 1.341 1.358 1.6748 1.7853 1.7158 1.6963
2343.708 1.6526 1.5113 1.4949 1.5596 1.61801 1.6887 1.7184 1.7259 1.6381 1.54154
2362.998 1.4436 1.4739 1.228 1.345 1.879 1.8194 1.59206 1.5105 1.6015 1.4575
2382.288 1.424 1.55022 1.341 1.304 1.6915 1.931 1.8268 1.7899 1.9128 1.7529
2401.578 1.6293 1.7114 1.6991 1.7613 1.58395 1.4972 1.61564 1.623 1.662 1.8852
2420.867 2.015 2.0746 1.7978 1.392 1.399 1.6268 1.8941 1.7947 1.7139 1.6907
2440.157 1.4421 1.365 1.5036 1.7918 1.7252 1.7036 1.6636 1.4485 1.4848 1.393
2459.447 1.321 1.177 1.237 1.342 1.57676 1.6872 1.341 1.366 1.52777 1.57481
2478.737 1.4801 1.4982 1.7141 1.7301 1.59899 1.4826 1.397 1.334 1.173 1.002
2498.026 1.115 1.363 1.55561 1.375 0.994 1.09 1.176 1.057 0.962 0.914
2517.316 0.921 0.727 0.652 0.727 0.948 1.138 0.932 0.969 1.098 1.254
2536.606 1.353 1.058 1.004 1.079 1.007 1.4668 1.9054 1.7723 1.58837 1.282
2555.896 1.4439 1.55108 1.315 1.4978 1.57525 1.185 1.049 1.4421 1.6794 1.8198
2575.186 1.664 1.292 1.367 1.408 1.267 1.402 1.248 1.148 1.419 1.58487
2594.475 1.7181 1.6369 1.381 1.244 1.147 0.866 1.227 1.9131 1.7479 1.4231
2613.765 1.4341 1.268 1.042 1.131 1.159 0.991 1.061 1.268 1.188 1.061
2633.055 1.294 1.56007 1.5054 1.4974 1.417 1.091 1.026 1.06 1.355 1.6898
2652.345 1.4774 1.197 1.128 1.195 1.129 0.798 1.024 1.4 1.414 1.35
2671.634 1.157 1.27 1.356 1.098 1.179 1.6757 1.7542 1.4456 1.4825 1.296
2690.924 1.1 1.125 1.269 1.415 1.278 1.16 1.002 0.984 0.91 0.874
2710.214 1.138 1.4688 1.216 0.981 1.025 1.004 1.064 1.186 1.064 0.938
2729.504 1.136 1.118 1.279 1.4419 1.17 0.838 0.547 0.845 1.188 1.043
2748.794 0.938 0.945 1.332 1.53541 1.52564 1.4285 1.094 1.315 1.414 1.3
2768.083 1.51191 1.348 1.251 1.188 1.024 1.5066 1.6985 1.4453 1.8032 1.7115
2787.373 1.4517 1.51085 1.51835 1.6344 1.127 0.989 1.23 0.892 0.819 1.031
2806.663 1.4357 2.0093 1.7607 1.222 1.008 1.2 1.57249 1.6319 1.4868 1.396
2825.953 1.60177 1.56887 1.312 1.129 1.252 1.7222 1.878 2.0011 1.9043 1.4507
2845.242 1.61884 1.58229 1.295 1.7633 1.59495 1.14 1.4241 1.5877 1.9405 2.054
2864.532 1.9128 2.202 2.1608 2.0191 2.0031 1.7966 1.7969 2.0198 2.0368 1.8861
2883.822 2.3403 2.63 2.3483 2.3929 2.4406 2.81 3.25 3.14 3.05 3.13
2903.112 3.35 3.31 3.26 3.15 3.05 2.85 2.8 3.14 3.19 3.02
2922.401 3.05 3.29 2.93 3.07 3.5 4.01 4.46 4.52 5.36 6.05
2941.691 5.85 5.65 5.54 5.7 5.45 5.05 5.04 5.16 5.31 5.42
2960.981 6.16 7.1 7.8 8.67 9.45 9.95 10.31 10.52 10.41 9.97
2980.271 9.12 8.36 8.13 8.17 8.14 7.89 7.55 7.11 6.91 6.3
2999.561 5.79 5.83 5.7 5.4 5.06 4.86 4.68 4.29 4.13 3.79
3018.850 3.38 3.61 3.35 3 3.01 2.73 2.95 2.82 2.2845 2.2862
3038.140 2.1746 2.25 2.4191 2.55 2.61 2.4164 2.2404 2.0477 1.7778 1.8843
3057.430 2.1207 2.064 2.1456 1.7923 1.6206 1.6873 1.8892 1.8271 1.59253 1.7921
3076.720 1.395 1.172 1.101 1.202 1.6655 1.664 1.7336 1.7815 1.53164 1.5281
3096.009 1.7233 1.942 2.2265 2.1212 2.1987 2.421 2.4118 2.66 2.3422 1.8741
3115.299 2.0744 1.884 1.8218 1.9827 2.4355 2.4294 1.53657 1.8175 1.955 1.7516
3134.589 1.4949 0.793 1.127 1.7213 1.4632 1.241 1.11 1.296 1.4331 1.311
3153.879 1.52198 1.5075 1.51625 1.6734 1.22 0.799 0.629 0.662 0.99 0.863
3173.169 0.772 1.282 1.39 1.254 1.8493 1.9462 1.255 1.259 1.60018 1.6711
3192.458 1.4536 1.095 0.833 0.709 0.98 1.318 1.194 0.605 0.661 1.01
3211.748 0.866 0.644 0.34 0.602 1.161 1.061 1.383 1.7569 1.52565 1.51452
3231.038 1.335 1.242 1.5071 1.4209 1.171 0.661 0.898 1.327 0.957 1.043
3250.328 1.026 1.5097 1.60414 1.151 0.964 0.907 1.123 0.983 0.827 0.707
3269.617 1.171 1.5684 1.3 0.885 0.72 1.048 0.939 0.605 0.741 0.776
3288.907 0.848 0.842 1.4646 1.8702 1.122 0.46 0.746 1.354 1.408 1.59081
3308.197 1.275 0.981 1.4357 1.183 0.841 1.054 0.727 0.686 1.016 1.3
3327.487 1.6476 1.373 1.08 1.259 1.4792 1.4753 1.089 1.189 1.52007 1.4659
3346.777 1.57784 1.59004 1.345 1.028 0.97 1.353 1.60833 1.6717 0.877 0.25
3366.066 0.917 1.379 1.6801 1.5056 1.042 1.072 1.11 1.074 1.368 1.313
3385.356 1.106 1.291 1.325 0.95 1.172 1.6342 1.417 1.219 1.387 1.6464
3404.646 1.359 1.1 1.348 1.4862 1.388 1.076 1.331 1.58987 1.4822 1.631
3423.936 1.345 1.141 1.163 1.205 1.321 1.59788 1.184 1.185 1.7299 1.7395
3443.225 1.56515 1.117 1.059 0.97 0.691 0.538 0.548 0.79 1.201 1.341
3462.515 1.58632 1.8265 1.457 1.145 1.57481 1.60694 1.038 0.874 1.075 1.292
3481.805 0.915 1.038 1.393 1.345 1.7326 2.172 2.3821 1.9815 1.6372 1.7729
3501.095 1.61987 1.51796 1.51211 1.24 1.029 1.387 1.103 0.778 1.267 1.366
3520.385 2.0122 2.0792 1.407 1.293 0.696 0.48 0.807 1.046 0.952 0.86
3539.674 1.17 1.61163 1.8399 1.57919 1.08 1.093 1.232 1.014 1.033 0.875
3558.964 0.536 0.899 1.031 1.096 1.53264 1.6561 1.9252 1.304 0.786 1.016
3578.254 0.645 0.44 0.979 1.60016 1.269 0.785 1.038 1.21 1.252 1.17
3597.544 1.61526 2.4517 2.2328 1.294 0.788 0.863 1.122 1.56452 1.262 0.989
3616.833 1.27 1.59038 1.6745 1.53915 1.273 1.7345 2.0567 0.766 0 0.42
3636.123 0.868 1.034 0.981 0.978 1.357 0.675 0.39 0.887 1.52421 1.8323
3655.413 1.323 0.868 0.617 0.781 1.292 1.6543 1.098 0.745 1.047 1.7909
3674.703 1.9645 1.7525 1.653 1.396 1.347 1.159 1.053 1.149 1.4622 1.51519
3693.993 1.8899 1.53508 0.819 0.867 0.676 0.8 1.109 1.174 1.148 1.55153
3713.282 1.371 1.16 1.344 1.312 1.205 0.668 0.878 0.944 0.998 1.55422
3732.572 1.6537 1.264 0.823 0.976 1.195 1.36 1.406 1.55056 1.4918 1.239
3751.862 1.6764 1.8385 1.353 0.96 0.712 0.587 0.543 0.796 1.077 1.331
3771.152 1.013 0.984 0.777 0.19 0.899 0.914 1.327 1.8513 1.4756 1.222
3790.441 0.805 1.072 1.156 0.962 1.44 1.8494 1.6531 1.4204 1.56905 1.8346
3809.731 1.362 0.941 1.56826 1.8932 1.9164 1.7648 1.4524 1.4408 1.097 1.6699
3829.021 2.0589 1.4921 1.8707 2.1878 1.9309 1.233 1.094 1.8534 1.57936 0.959
3848.311 1.025 1.163 1.16 1.397 1.318 1.023 0.863 1.236 1.9008 1.406
3867.601 0.863 1.039 1.54584 1.7858 1.08 0.55 0.894 1.151 1.069 0.809
3886.890 0.654 0.873 0.773 0.652 0.742 0.691 0.926 1 1.138 1.57157
3906.180 1.7961 1.6738 1.076 1.051 1.4686 1.352 0.811 0.945 1.229 1.151
3925.470 1.393 1.061 0.535 0.678 1.15 1.08 0.539 0.4 1.024 1.282
3944.760 0.827 1.053 1.7257 2.0414 1.9312 1.241 1.217 1.214 0.885 0.962
3964.049 0.864 1.078 1.223 1.274 1.233 1.385 2.1423 2.0124 1.4765 1.162
3983.339 0.809 0.827 1.4816 1.9579 1.9732 1.51622 1.078 0.786 0.622 0.5
##END=
