##TITLE=2,3-Diaminopyridine
##JCAMP-DX=4.24
##DATA TYPE=INFRARED SPECTRUM
##ORIGIN=EPA-IR VAPOR PHASE LIBRARY
##OWNER=SRD/NIST
Collection (C) 2018 copyright by the U.S. Secretary of Commerce
on behalf of the United States of America. All rights reserved.
##CAS REGISTRY NO=452-58-4
##MOLFORM=C 5 H 7 N 3
##$NIST SOURCE=MSDC-IR
##STATE=gas
##XUNITS=1/CM
##YUNITS=ABSORBANCE
##XFACTOR=1.
##YFACTOR=0.001
##DELTAX=3.85796
##FIRSTX=501.5
##LASTX=4000.7
##FIRSTY=5.7252
##MAXX=4000.7
##MINX=501.534
##MAXY=0.0521952
##MINY=0
##NPOINTS=908
##XYDATA=(X++(Y..Y))
501.534 5.7252 5.9252 6.0352 6.2952 6.5552 6.8652 7.2952 7.6452 8.0052 8.4352
540.114 8.7552 9.1452 9.5252 9.6752 9.7452 9.6052 9.4352 9.4352 9.3852 9.3652
578.693 9.5552 9.7952 10.0952 10.4352 10.6552 11.0352 11.5152 11.8352 12.0752 12.3052
617.273 12.7352 13.2952 13.8352 14.3652 14.8952 15.4852 16.0052 16.3152 16.4152 16.3852
655.852 16.1952 15.7652 15.2552 14.7052 14.0652 13.4252 12.8452 12.2752 11.7352 11.2652
694.432 10.8352 10.4452 10.1052 9.7852 9.5052 9.3252 9.2252 9.2052 9.3752 9.7252
733.011 10.2552 10.8952 11.6752 12.7652 14.1252 15.3652 16.0652 16.3852 16.5552 16.5752
771.591 16.7452 17.3952 17.2252 15.3152 13.2952 12.0752 11.0352 9.9752 8.9652 8.1452
810.170 7.5352 7.0952 6.7552 6.4752 6.2752 6.1252 5.9852 5.8252 5.6052 5.4652
848.750 5.3652 5.2152 5.1052 5.0852 5.0252 4.9552 4.9152 4.8552 4.7752 4.6752
887.330 4.5952 4.4452 4.2452 4.0552 3.9252 3.8352 3.7152 3.5752 3.4852 3.4152
925.909 3.3352 3.3152 3.2752 3.2452 3.3252 3.4852 3.3752 3.1552 3.1052 3.0452
964.489 2.9652 2.8752 2.8052 2.7752 2.7252 2.7452 2.7952 2.7452 2.7252 2.7552
1003.068 2.7852 2.8352 2.8852 2.9252 3.1052 3.3252 3.4852 3.6452 3.7752 3.9152
1041.648 4.1252 4.3752 4.5952 4.8052 5.0152 5.1652 5.2852 5.4152 5.4652 5.4152
1080.227 5.3052 5.2152 5.1652 5.1152 5.0052 4.8752 4.7852 4.6252 4.4252 4.1652
1118.807 3.9452 3.8052 3.6452 3.5252 3.4552 3.2752 3.1152 3.0452 2.9652 2.8652
1157.387 2.7952 2.6952 2.6152 2.6552 2.7052 2.7252 2.8252 2.9552 3.1052 3.4052
1195.966 3.7752 4.2852 5.0352 6.0652 7.3952 8.8852 10.4152 11.7752 12.6352 12.9452
1234.546 12.7652 12.0352 10.8452 9.2552 7.5652 6.3152 5.7652 5.6452 5.6852 5.7952
1273.125 5.9952 6.3352 6.6252 6.7652 6.8752 7.0452 7.2052 7.3652 7.4252 7.3452
1311.705 7.0752 6.4652 5.6752 4.9952 4.4952 4.0652 3.6652 3.2652 2.8552 2.5052
1350.284 2.2252 1.9852 1.8252 1.7152 1.6252 1.5752 1.5552 1.5452 1.5552 1.5952
1388.864 1.6552 1.7352 1.8652 2.0152 2.2152 2.4952 2.8252 3.2552 3.8452 4.6952
1427.443 5.9752 7.9852 11.0852 15.6052 21.5752 28.6952 36.2452 43.4152 49.5052 52.1952
1466.023 50.7252 46.1052 39.4252 31.9752 24.0452 16.8052 11.5852 8.3952 6.5852 5.5352
1504.603 4.9252 4.5452 4.2952 4.0952 3.9352 3.8152 3.7252 3.7252 3.8052 3.9652
1543.182 4.2452 4.6152 5.0752 5.6152 6.2752 7.0652 7.9252 8.8952 10.0152 11.3352
1581.762 12.8052 14.5452 16.6552 19.3952 22.8252 26.5652 29.8952 32.1252 33.0852 32.8552
1620.341 31.4752 28.9352 25.2052 20.7252 16.1752 12.2852 9.2852 7.0752 5.5652 4.4952
1658.921 3.7752 3.2552 2.8852 2.6152 2.4052 2.2352 2.0752 1.9352 1.8152 1.6552
1697.500 1.5152 1.4252 1.3452 1.2652 1.2052 1.1452 1.1152 1.1152 1.1152 1.1152
1736.080 1.1052 1.1252 1.1352 1.1452 1.1752 1.2052 1.2252 1.2452 1.2652 1.2852
1774.659 1.3052 1.3352 1.3552 1.3652 1.3752 1.3952 1.4152 1.4152 1.4052 1.3852
1813.239 1.3552 1.3352 1.3052 1.2752 1.2752 1.3152 1.3652 1.4052 1.4052 1.3852
1851.819 1.3652 1.3252 1.2752 1.2152 1.1552 1.1252 1.1452 1.1652 1.1752 1.1652
1890.398 1.1252 1.0752 1.0105 0.9376 0.8353 0.7266 0.6438 0.5993 0.5601 0.5434
1928.978 0.5344 0.5099 0.4964 0.4868 0.4927 0.4977 0.4864 0.4882 0.4979 0.4828
1967.557 0.4793 0.4916 0.4945 0.5072 0.5077 0.5061 0.5094 0.4923 0.4816 0.4707
2006.137 0.4599 0.4525 0.4432 0.4487 0.4491 0.4555 0.4669 0.4651 0.4486 0.4378
2044.716 0.45 0.4629 0.4771 0.4827 0.4779 0.4775 0.4796 0.462 0.4327 0.4253
2083.296 0.4172 0.4167 0.4133 0.3984 0.3952 0.3895 0.3872 0.4099 0.4133 0.4095
2121.875 0.4254 0.4348 0.4543 0.4728 0.4861 0.4779 0.4584 0.4566 0.4475 0.4351
2160.455 0.4321 0.4353 0.4319 0.4233 0.4233 0.4393 0.4596 0.4675 0.4873 0.5364
2199.035 0.5944 0.6252 0.6409 0.6723 0.7051 0.7127 0.6913 0.6515 0.5982 0.5375
2237.614 0.4973 0.47 0.4318 0.421 0.4306 0.417 0.403 0.4015 0.3928 0.3822
2276.194 0.3724 0.3732 0.3673 0.3643 0.3528 0.3351 0.3396 0.3481 0.3427 0.344
2314.773 0.3431 0.3426 0.3716 0.4052 0.4423 0.4615 0.4832 0.4931 0.4922 0.4957
2353.353 0.4936 0.4769 0.4508 0.4324 0.437 0.4349 0.4014 0.3682 0.3369 0.3274
2391.932 0.3218 0.3076 0.3004 0.2963 0.2936 0.2907 0.2772 0.2698 0.2778 0.2745
2430.512 0.2745 0.2945 0.2978 0.2896 0.2928 0.2938 0.3056 0.3073 0.2753 0.2625
2469.092 0.2832 0.2911 0.3027 0.3212 0.3135 0.309 0.3188 0.34 0.3496 0.3358
2507.671 0.3189 0.3178 0.3296 0.3331 0.321 0.3189 0.3418 0.3472 0.3589 0.3805
2546.251 0.3923 0.424 0.4656 0.4842 0.4771 0.4775 0.4927 0.519 0.5351 0.5264
2584.830 0.5018 0.4988 0.4984 0.4764 0.4634 0.4404 0.4184 0.3993 0.368 0.336
2623.410 0.3274 0.3408 0.338 0.3035 0.2796 0.2795 0.266 0.2505 0.2388 0.2228
2661.989 0.2113 0.2082 0.2198 0.2115 0.2064 0.2041 0.1912 0.1832 0.158 0.1381
2700.569 0.1443 0.1492 0.1469 0.154 0.1635 0.1871 0.2077 0.2078 0.1905 0.1959
2739.148 0.1951 0.1703 0.1744 0.1683 0.1458 0.1334 0.10701 0.11456 0.1328 0.1338
2777.728 0.1434 0.1566 0.1883 0.1924 0.1876 0.1937 0.1834 0.1695 0.1673 0.1701
2816.308 0.1958 0.2389 0.2408 0.2056 0.2019 0.2438 0.2701 0.2899 0.281 0.2663
2854.887 0.2792 0.294 0.2992 0.3001 0.2921 0.3 0.3164 0.3114 0.3308 0.3295
2893.467 0.3056 0.3054 0.3162 0.3196 0.3435 0.3366 0.3213 0.324 0.3071 0.2856
2932.046 0.2723 0.2495 0.2116 0.1777 0.1744 0.1954 0.1813 0.1781 0.1964 0.2119
2970.626 0.2285 0.2382 0.2363 0.2602 0.3399 0.422 0.5142 0.674 0.9365 1.2852
3009.205 1.7552 2.3252 2.9252 3.6052 4.2552 4.8052 5.2752 5.7152 6.0452 6.2052
3047.785 6.2252 6.1752 6.0952 5.9852 5.8952 5.8552 5.8052 5.6352 5.2052 4.6352
3086.364 4.0352 3.4352 2.8352 2.1352 1.4352 0.9388 0.6314 0.4576 0.3561 0.2989
3124.944 0.2651 0.2428 0.2232 0.2021 0.2267 0.2486 0.2535 0.2895 0.3047 0.3167
3163.524 0.3446 0.367 0.3804 0.3684 0.3269 0.3267 0.3448 0.3475 0.3529 0.316
3202.103 0.2739 0.2469 0.2627 0.2794 0.289 0.3034 0.2778 0.2541 0.2458 0.2238
3240.683 0.1934 0.173 0.1527 0.1439 0.1362 0.1186 0.1105 0.10478 0.08621 0.0613
3279.262 0.06435 0.04162 0.05011 0.0685 0.06559 0.07801 0.09597 0.09954 0.0444 0.03729
3317.842 0.0688 0.07006 0.09651 0.1488 0.1844 0.2349 0.3251 0.4633 0.669 0.9521
3356.421 1.2952 1.6752 2.1452 2.6852 3.1652 3.5152 3.6752 3.6852 3.5852 3.3152
3395.001 2.8752 2.4152 1.9952 1.6452 1.4252 1.2852 1.2252 1.2452 1.3052 1.4552
3433.580 1.6852 2.0152 2.4352 2.8352 3.2452 3.7852 4.4552 5.1252 5.5652 5.6352
3472.160 5.6052 5.5452 5.2452 4.7252 3.9852 3.2352 2.6452 2.1352 1.7152 1.3952
3510.740 1.1652 0.9995 0.8576 0.7335 0.6306 0.5668 0.5142 0.4706 0.4398 0.4289
3549.319 0.4149 0.3744 0.3647 0.3591 0.3635 0.3665 0.2738 0.2569 0.3312 0.3371
3587.899 0.3266 0.3453 0.3718 0.3471 0.2947 0.2873 0.2935 0.2728 0.2543 0.2671
3626.478 0.2695 0.2276 0.2165 0.2568 0.2402 0.2042 0.2315 0.2744 0.2737 0.2516
3665.058 0.2521 0.2043 0.1806 0.2293 0.2843 0.3017 0.2741 0.2172 0.1795 0.152
3703.637 0.1389 0.1866 0.1862 0.1455 0.1304 0.11266 0.05744 0.03245 0.06809 0.04801
3742.217 0.03485 0.04386 0.03635 0.06801 0.06531 0.09539 0.09118 0 0.0034 0.07762
3780.797 0.1322 0.1496 0.08593 0.03804 0.11482 0.1726 0.1177 0.08894 0.1272 0.10233
3819.376 0.10518 0.1218 0.1171 0.1374 0.0862 0.03576 0.05752 0.09334 0.07882 0.08676
3857.956 0.1158 0.07698 0.07736 0.10256 0.08352 0.07819 0.10936 0.1364 0.1402 0.1425
3896.535 0.1457 0.1568 0.1792 0.1677 0.1423 0.143 0.1617 0.1823 0.1978 0.2057
3935.115 0.2024 0.2105 0.202 0.2105 0.2478 0.2348 0.2081 0.2384 0.259 0.2385
3973.694 0.2263 0.2185 0.2401 0.2645 0.2296 0.2504 0.2952 0.2777
##END=
