##TITLE=3-Fluoro-4-methoxyphenylacetic acid
##JCAMP-DX=4.24
##DATA TYPE=INFRARED SPECTRUM
##ORIGIN=EPA-IR VAPOR PHASE LIBRARY
##OWNER=SRD/NIST
Collection (C) 2018 copyright by the U.S. Secretary of Commerce
on behalf of the United States of America. All rights reserved.
##CAS REGISTRY NO=452-14-2
##MOLFORM=C 9 H 9 F O 3
##$NIST SOURCE=MSDC-IR
##STATE=gas
##XUNITS=1/CM
##YUNITS=ABSORBANCE
##XFACTOR=1.
##YFACTOR=0.001
##DELTAX=1.92898
##FIRSTX=549.8
##LASTX=4000.7
##FIRSTY=8.99
##MAXX=4000.7
##MINX=549.759
##MAXY=0.06682
##MINY=0
##NPOINTS=1790
##XYDATA=(X++(Y..Y))
549.759 8.99 10.07 11.19 12.27 13.31 14.25 15.04 15.85 16.24 16.77
569.049 17 16.65 16.35 15.85 15.55 15.16 14.62 13.99 13.27 12.89
588.339 12.31 11.5 10.87 10.57 10.51 10.4 10.37 10.34 10.34 10.66
607.628 11.33 11.82 12.1 12.67 13.18 13.6 14.06 14.35 14.58 14.9
626.918 14.94 14.77 14.59 14.11 13.75 13.37 12.85 12.21 11.73 11.41
646.208 10.74 10.08 9.83 9.44 8.83 8.28 7.84 7.35 6.84 6.6
665.498 6.3 6.28 6.13 5.72 5.71 5.78 5.79 5.86 6.01 6.35
684.787 6.56 6.47 6.11 5.77 5.57 5.18 4.66 4.34 4.06 3.76
704.077 3.44 3.03 2.87 2.84 2.73 2.53 2.45 2.42 2.16 2.12
723.367 2.28 2.4 2.5 2.5 2.56 2.7 3.11 3.43 3.67 4.07
742.657 4.52 5.15 5.72 6.29 6.76 7.01 7.1 7.29 7.38 6.98
761.947 6.51 6.15 5.81 5.69 5.61 5.43 5.37 5.49 5.51 5.56
781.236 5.91 6.25 6.34 6.42 6.41 6.25 6.34 6.32 6.18 6.28
800.526 6.17 6.02 6.1 6.34 6.55 6.52 6.39 6.28 6.36 6.28
819.816 6.03 5.76 5.19 4.74 4.47 4.08 3.69 3.43 3.34 3.32
839.106 3.09 2.89 3.03 3.16 3.17 3.35 3.59 3.72 3.78 3.99
858.395 4.16 4.05 3.94 3.94 3.79 3.73 3.71 3.55 3.53 3.5
877.685 3.37 3.32 3.5 3.49 3.21 3.26 3.32 3.08 2.97 2.84
896.975 2.79 3.01 3.01 2.97 2.92 2.68 2.68 2.67 2.75 2.9
916.265 2.98 3.04 3.15 3.29 3.32 3.37 3.54 3.73 3.73 3.71
935.555 3.61 3.49 3.61 3.75 3.69 3.87 4.07 4.4 4.94 5.48
954.844 6.02 6.44 6.86 7.13 7.18 7.09 6.65 6.12 5.6 5.02
974.134 4.51 4.02 3.75 3.78 3.84 3.61 3.59 3.78 4.06 4.27
993.424 4.41 4.74 5.15 5.6 5.96 6.61 7.41 8.46 9.55 10.44
1012.714 11.61 12.95 14.05 14.78 15.25 15.25 15.01 14.72 13.94 13.3
1032.003 12.72 11.84 11.27 10.82 10.19 9.63 9.07 8.34 7.49 6.89
1051.293 6.78 6.35 5.71 5.62 5.55 5.49 5.62 6.02 6.43 6.76
1070.583 7.34 8.11 9.18 10.11 10.68 11.59 13.27 14.66 16.09 17.94
1089.873 19.74 21.98 24.76 28.04 31.79 36.15 40.53 45.18 50.23 54.78
1109.163 58.29 60.37 60.94 60.67 59.26 56.96 54.2 51.34 49.06 46.89
1128.452 44.87 42.62 40.34 38.1 35.73 33.31 30.62 28 25.77 23.31
1147.742 20.76 18.81 16.96 15.11 13.73 12.95 12.23 11.59 10.92 10.24
1167.032 9.92 9.93 9.98 9.82 9.88 10.1 10.22 10.44 10.91 11
1186.322 10.98 11.21 11.51 12.16 12.6 12.63 12.84 13.44 14.15 14.77
1205.611 15.48 16.07 16.55 17.21 18.05 19.29 20.48 21.73 23.21 24.31
1224.901 24.78 24.91 24.79 23.86 22.62 21.13 19.53 17.9 16.45 15.57
1244.191 14.75 14.16 14.03 14.32 14.94 15.68 16.71 18.02 19.82 22.28
1263.481 25.49 29.49 34.06 38.97 44.1 49.27 53.68 57.28 59.84 60.72
1282.771 60.05 58.15 55.34 51.79 47.7 43.59 39.92 36.38 33.09 30.36
1302.060 28.03 25.98 24.22 22.58 21.02 19.68 18.4 17.05 15.8 14.72
1321.350 13.71 12.84 12.12 11.52 11.05 10.75 10.54 10.41 10.41 10.43
1340.640 10.46 10.51 10.54 10.52 10.51 10.45 10.43 10.37 10.14 9.96
1359.930 9.76 9.53 9.33 9.02 8.66 8.28 7.89 7.43 6.92 6.44
1379.219 6 5.66 5.32 4.99 4.68 4.48 4.36 4.27 4.16 4.1
1398.509 4.16 4.2 4.24 4.39 4.6 4.85 5.21 5.66 6.2 6.84
1417.799 7.53 8.31 9.26 10.32 11.34 12.25 13.04 13.78 14.42 14.82
1437.089 15.2 15.59 15.78 15.74 15.45 14.91 14.32 13.63 12.71 11.71
1456.378 10.78 10.13 9.76 9.53 9.35 9.17 8.92 8.54 8.13 7.75
1475.668 7.37 6.98 6.75 6.77 6.96 7.29 7.83 8.61 9.75 11.23
1494.958 13.2 15.8 18.97 23.06 28.07 34.03 40.99 48.23 55.11 61.01
1514.248 65.02 66.82 66.24 63.11 57.76 51.05 43.56 36.33 29.84 24.31
1533.538 19.75 16.12 13.49 11.43 9.82 8.66 7.68 6.96 6.54 6.15
1552.827 5.81 5.55 5.41 5.41 5.41 5.47 5.63 5.86 6.12 6.46
1572.117 6.99 7.46 7.92 8.44 8.82 9.13 9.4 9.42 9.09 8.64
1591.407 8.17 7.54 6.86 6.15 5.5 5.05 4.74 4.44 4.19 4.09
1610.697 4.09 4.18 4.27 4.29 4.46 4.63 4.59 4.46 4.23 3.92
1629.986 3.55 3.21 2.84 2.6 2.41 2.19 1.98 1.8 1.72 1.6
1649.276 1.51 1.53 1.54 1.55 1.56 1.48 1.47 1.45 1.41 1.51
1668.566 1.56 1.58 1.59 1.57 1.61 1.64 1.68 1.72 1.79 1.89
1687.856 1.89 1.95 2.01 2.11 2.27 2.4 2.52 2.55 2.66 2.84
1707.146 2.96 3.16 3.34 3.56 3.87 4.15 4.4 4.68 5.06 5.51
1726.435 5.96 6.44 7.03 7.73 8.59 9.52 10.48 11.59 12.86 14.3
1745.725 15.87 17.6 19.37 21.22 23.23 25.25 27.31 29.43 31.68 34.17
1765.015 36.82 39.51 42.39 45.36 48.19 50.56 52.34 53.47 53.86 53.43
1784.305 52.2 50.38 48.07 45.53 42.92 40.22 37.44 34.54 31.58 28.61
1803.594 25.65 22.79 20.05 17.47 15.19 13.19 11.41 9.9 8.6 7.5
1822.884 6.6 5.78 5.16 4.68 4.17 3.72 3.38 3.04 2.78 2.63
1842.174 2.47 2.36 2.21 2.09 2.01 1.89 1.81 1.77 1.75 1.69
1861.464 1.66 1.71 1.67 1.58 1.44 1.41 1.49 1.52 1.44 1.41
1880.754 1.38 1.282 1.2726 1.2673 1.2087 1.1873 1.1902 1.1423 1.0636 1.0475
1900.043 1.0654 0.9989 1.0036 0.9778 0.9232 0.9466 0.9364 0.8918 0.8793 0.8978
1919.333 0.8731 0.8528 0.8203 0.7397 0.7451 0.8068 0.854 0.8327 0.7717 0.7255
1938.623 0.735 0.7875 0.7178 0.7058 0.7748 0.7978 0.8061 0.7701 0.7475 0.7434
1957.913 0.736 0.8188 0.8777 0.833 0.8167 0.8501 0.8544 0.9257 0.9472 0.8601
1977.202 0.8525 0.8472 0.8901 0.9365 0.9583 0.9616 0.9529 0.9687 0.9715 0.9261
1996.492 0.8879 0.947 0.9845 0.9926 1.0465 1.0827 1.0864 1.1383 1.172 1.2227
2015.782 1.2604 1.2752 1.37 1.42 1.47 1.59 1.68 1.69 1.71 1.73
2035.072 1.66 1.64 1.64 1.53 1.44 1.41 1.41 1.33 1.2227 1.1922
2054.362 1.1944 1.2322 1.2329 1.201 1.1741 1.1416 1.1273 1.1177 1.1216 1.08
2073.651 1.0254 0.9396 0.8524 0.7972 0.7855 0.7499 0.7273 0.6996 0.6086 0.607
2092.941 0.604 0.5617 0.5303 0.511 0.5147 0.5621 0.5595 0.4768 0.4428 0.4674
2112.231 0.4702 0.462 0.5192 0.5629 0.5507 0.5184 0.5225 0.5526 0.5878 0.6003
2131.521 0.56 0.5045 0.4833 0.4848 0.4723 0.4512 0.4507 0.4638 0.4643 0.4992
2150.810 0.5199 0.5566 0.5697 0.5645 0.484 0.38499 0.4175 0.4304 0.4991 0.5554
2170.100 0.5594 0.5598 0.5157 0.4924 0.543 0.551 0.5489 0.6255 0.658 0.6376
2189.390 0.5482 0.514 0.5988 0.6398 0.6412 0.5902 0.5493 0.573 0.59 0.5974
2208.680 0.5866 0.5899 0.6363 0.6817 0.6062 0.5324 0.5547 0.5894 0.5817 0.5729
2227.970 0.653 0.6839 0.6731 0.6767 0.6973 0.7396 0.7102 0.7056 0.7289 0.7047
2247.259 0.7663 0.799 0.8005 0.8465 0.8518 0.8549 0.8125 0.7819 0.8393 0.8796
2266.549 0.9005 0.8935 0.9124 0.9042 0.844 0.7874 0.7434 0.7495 0.7185 0.7216
2285.839 0.7463 0.7122 0.7077 0.7006 0.6944 0.7594 0.7723 0.7299 0.7011 0.6769
2305.129 0.6587 0.6779 0.7273 0.7382 0.7055 0.6858 0.7185 0.7568 0.6631 0.6647
2324.418 0.7884 0.8011 0.7422 0.7132 0.7109 0.6903 0.7094 0.7097 0.7057 0.6963
2343.708 0.7308 0.7296 0.6268 0.6412 0.7147 0.7374 0.7954 0.8763 0.8458 0.7872
2362.998 0.8075 0.8498 0.8579 0.8614 0.7983 0.7475 0.7832 0.764 0.7083 0.7011
2382.288 0.6636 0.5727 0.5596 0.5973 0.6192 0.6458 0.65 0.6513 0.6833 0.6865
2401.578 0.6544 0.6024 0.5473 0.4874 0.5043 0.5988 0.5719 0.4711 0.4315 0.4464
2420.867 0.5074 0.5961 0.647 0.5887 0.4922 0.5443 0.5726 0.484 0.4887 0.5624
2440.157 0.6186 0.5718 0.4906 0.4847 0.5079 0.4477 0.39547 0.445 0.4836 0.5378
2459.447 0.503 0.4879 0.4888 0.453 0.4424 0.4346 0.4674 0.4352 0.4646 0.4638
2478.737 0.4525 0.47 0.4706 0.5172 0.5511 0.598 0.5627 0.5724 0.5684 0.5726
2498.026 0.6735 0.6561 0.5655 0.4748 0.5418 0.6417 0.589 0.54 0.5111 0.499
2517.316 0.5429 0.5687 0.634 0.6513 0.5606 0.5198 0.5014 0.5484 0.6098 0.6521
2536.606 0.7093 0.7129 0.7561 0.7999 0.8194 0.8383 0.7797 0.7749 0.8722 0.947
2555.896 0.8875 0.8856 0.9363 0.9055 0.906 0.85 0.7485 0.8462 0.982 0.9439
2575.186 0.8971 0.8525 0.8576 0.8443 0.7853 0.7393 0.728 0.7068 0.6471 0.6584
2594.475 0.6832 0.6659 0.7064 0.6771 0.5942 0.5672 0.5522 0.5321 0.4386 0.4901
2613.765 0.5446 0.4323 0.3939 0.35108 0.34886 0.4575 0.4076 0.3291 0.4088 0.438
2633.055 0.36931 0.3478 0.38523 0.4028 0.4768 0.4999 0.4687 0.4299 0.4095 0.4683
2652.345 0.4801 0.4192 0.37885 0.3672 0.32964 0.31404 0.2467 0.29762 0.39188 0.4065
2671.634 0.4374 0.4091 0.36246 0.33219 0.2835 0.2656 0.2503 0.309596 0.4098 0.38615
2690.924 0.37263 0.36282 0.36716 0.4352 0.4363 0.4065 0.4802 0.4891 0.4382 0.4
2710.214 0.4235 0.4667 0.4464 0.4124 0.35512 0.37742 0.4234 0.4785 0.5318 0.4791
2729.504 0.4066 0.4599 0.515 0.5081 0.4926 0.4749 0.4332 0.4155 0.475 0.5228
2748.794 0.4238 0.407 0.5155 0.4972 0.37046 0.34071 0.37727 0.4243 0.4712 0.4391
2768.083 0.4353 0.4664 0.5248 0.4695 0.4253 0.489 0.493 0.5004 0.5288 0.623
2787.373 0.7296 0.7423 0.7469 0.8414 0.9222 0.8061 0.8009 0.8466 0.8736 1.0068
2806.663 1.0908 1.1434 1.2127 1.2785 1.38 1.51 1.5 1.54 1.76 1.94
2825.953 2.07 2.19 2.34 2.68 2.98 3.39 3.97 4.57 5.23 5.79
2845.242 6.15 6.27 6.3 6.1 5.64 5.16 4.5 3.97 3.57 3.22
2864.532 3.09 2.87 2.8 2.73 2.62 2.64 2.62 2.58 2.62 2.58
2883.822 2.54 2.7 2.73 2.73 2.87 3.02 3.04 3.15 3.41 3.75
2903.112 4.05 4.23 4.4 4.69 5.09 5.29 5.45 5.75 6.01 6.09
2922.401 6.18 6.37 6.56 6.87 7.25 7.59 8.03 8.56 9.18 9.82
2941.691 10.34 10.73 10.87 10.87 10.69 10.3 10.02 9.68 9.32 9.08
2960.981 8.85 8.44 8.09 7.8 7.44 7.13 6.82 6.56 6.43 6.31
2980.271 6.08 5.83 5.71 5.58 5.43 5.38 5.36 5.38 5.52 5.61
2999.561 5.81 6.21 6.61 7 7.29 7.47 7.49 7.39 7.11 6.59
3018.850 6.13 5.63 4.97 4.44 4.11 3.84 3.72 3.69 3.62 3.56
3038.140 3.46 3.45 3.55 3.64 3.64 3.66 3.56 3.51 3.46 3.28
3057.430 3.22 3.17 3.04 2.93 2.84 2.81 2.75 2.61 2.56 2.5
3076.720 2.34 2.28 2.24 2.14 2.09 1.93 1.79 1.71 1.64 1.52
3096.009 1.51 1.56 1.45 1.2068 1.1708 1.2328 1.183 1.119 0.981 0.9759
3115.299 0.964 0.9222 0.9198 0.8338 0.724 0.7262 0.793 0.6839 0.5068 0.546
3134.589 0.6607 0.6817 0.5779 0.546 0.6277 0.5985 0.5682 0.543 0.5129 0.5322
3153.879 0.5875 0.6089 0.5279 0.4272 0.432 0.4033 0.37621 0.5498 0.5017 0.29538
3173.169 0.2927 0.35966 0.3823 0.32951 0.3599 0.36278 0.2892 0.2505 0.2635 0.2385
3192.458 0.2612 0.38124 0.4241 0.4828 0.4141 0.39099 0.4624 0.35772 0.2815 0.31712
3211.748 0.34446 0.33239 0.39631 0.38239 0.29687 0.2448 0.2512 0.178 0.116 0.077
3231.038 0.143 0.2867 0.2405 0.192 0.195 0.3119 0.39895 0.34052 0.2211 0.129
3250.328 0.077 0.029 0 0.066 0.2611 0.2497 0.187 0.2711 0.2068 0.143
3269.617 0.174 0.184 0.097 0.196 0.33695 0.2097 0.159 0.2231 0.2302 0.219
3288.907 0.192 0.309998 0.36728 0.2552 0.2669 0.31805 0.31005 0.33848 0.36025 0.2054
3308.197 0.101 0.2674 0.2805 0.175 0.2763 0.31739 0.2767 0.32216 0.2174 0.085
3327.487 0.144 0.2613 0.33497 0.3955 0.309629 0.159 0.2429 0.300433 0.2209 0.2048
3346.777 0.177 0.2028 0.29006 0.176 0.184 0.2806 0.32477 0.2538 0.106 0.108
3366.066 0.125 0.143 0.2004 0.31678 0.2175 0.107 0.2724 0.2798 0.2123 0.33819
3385.356 0.31151 0.2632 0.413 0.45 0.31901 0.131 0.028 0.141 0.2184 0.165
3404.646 0.2086 0.2568 0.2045 0.184 0.2238 0.2668 0.269 0.189 0.136 0.126
3423.936 0.2186 0.2667 0.2362 0.2291 0.2242 0.29271 0.2808 0.2127 0.2731 0.32592
3443.225 0.2844 0.31227 0.2531 0.146 0.092 0.1 0.2403 0.2157 0.157 0.165
3462.515 0.2184 0.2664 0.2694 0.32518 0.35168 0.2616 0.2234 0.4152 0.4975 0.37804
3481.805 0.2864 0.2717 0.4519 0.4661 0.36842 0.4311 0.4829 0.6243 0.6079 0.577
3501.095 0.6212 0.5876 0.6425 0.704 0.7167 0.7361 0.7152 0.7286 0.7943 0.872
3520.385 0.9292 1.0581 1.0258 0.8875 0.9683 1.1091 1.2295 1.39 1.59 1.75
3539.674 1.91 2.18 2.42 2.62 2.89 3.19 3.61 4.28 4.89 5.62
3558.964 6.7 8.24 10.35 13.19 17.11 21.26 24.43 26.09 26.53 25.94
3578.254 23.87 20.32 15.91 11.87 9.14 7.21 5.71 4.7 3.96 3.4
3597.544 2.96 2.56 2.18 1.79 1.54 1.51 1.37 1.2755 1.139 0.9167
3616.833 0.7312 0.6724 0.8129 0.8405 0.6604 0.5419 0.5066 0.5084 0.6138 0.6073
3636.123 0.4952 0.4699 0.5211 0.5244 0.4944 0.53 0.5936 0.5059 0.4627 0.4484
3655.413 0.37402 0.32229 0.222 0.29546 0.4991 0.4342 0.429 0.5584 0.52 0.39835
3674.703 0.32584 0.2803 0.279 0.2171 0.178 0.36803 0.38135 0.2272 0.2311 0.33158
3693.993 0.34513 0.34602 0.2553 0.2594 0.4323 0.39335 0.2594 0.2707 0.4925 0.4909
3713.282 0.2786 0.247 0.2848 0.29103 0.2673 0.183 0.2589 0.39073 0.34373 0.29305
3732.572 0.37499 0.37127 0.29799 0.39996 0.35271 0.32056 0.2309 0.136 0.2047 0.185
3751.862 0.2298 0.4077 0.4805 0.31887 0.36191 0.4347 0.32489 0.29245 0.234 0.2383
3771.152 0.2236 0.2613 0.4533 0.4947 0.4362 0.36445 0.39754 0.35079 0.2364 0.35087
3790.441 0.35044 0.2222 0.066 0.143 0.32046 0.2487 0.262 0.09 0.103 0.2511
3809.731 0.2266 0.35939 0.38499 0.3561 0.2861 0.2418 0.302802 0.164 0.105 0.221
3829.021 0.2991 0.36029 0.428 0.37937 0.35084 0.4106 0.459 0.4183 0.3436 0.37761
3848.311 0.4832 0.5527 0.35346 0.2014 0.2636 0.32715 0.29584 0.222 0.309744 0.39971
3867.601 0.33088 0.32097 0.3459 0.31477 0.309055 0.39727 0.36278 0.2728 0.2579 0.29019
3886.890 0.34059 0.2634 0.2601 0.302265 0.151 0.196 0.39305 0.37753 0.26 0.2341
3906.180 0.2284 0.35048 0.5274 0.5154 0.3829 0.4067 0.4881 0.35481 0.29849 0.36449
3925.470 0.37612 0.31123 0.2595 0.2502 0.2438 0.30733 0.303429 0.181 0.2233 0.4518
3944.760 0.441 0.37936 0.5259 0.4349 0.36671 0.4043 0.38484 0.3324 0.116 0.11
3964.049 0.2019 0.304791 0.4365 0.31193 0.2322 0.2896 0.4938 0.5326 0.4467 0.4546
3983.339 0.3968 0.307697 0.39077 0.5461 0.5276 0.537 0.5813 0.4699 0.31639 0.36042
##END=
