##TITLE=2-Chloro-4-fluortoluene
##JCAMP-DX=4.24
##DATA TYPE=INFRARED SPECTRUM
##ORIGIN=EPA-IR VAPOR PHASE LIBRARY
##OWNER=SRD/NIST
Collection (C) 2018 copyright by the U.S. Secretary of Commerce
on behalf of the United States of America. All rights reserved.
##CAS REGISTRY NO=452-73-3
##MOLFORM=C 7 H 6 Cl F
##$NIST SOURCE=MSDC-IR
##STATE=gas
##XUNITS=1/CM
##YUNITS=ABSORBANCE
##XFACTOR=1.
##YFACTOR=0.001
##DELTAX=1.92898
##FIRSTX=549.8
##LASTX=4000.7
##FIRSTY=0.9926
##MAXX=4000.7
##MINX=549.759
##MAXY=0.188277
##MINY=0
##NPOINTS=1790
##XYDATA=(X++(Y..Y))
549.759 0.9926 1.1912 1.647 1.767 2.077 2.807 3.537 3.777 3.987 4.087
569.049 4.437 5.467 7.787 10.017 7.667 4.757 4.457 4.137 3.697 3.287
588.339 2.857 2.147 1.567 1.387 1.1565 1.0157 0.9395 0.7712 0.5978 0.34922
607.628 0.215 0.317406 0.35526 0.40951 0.4413 0.212 0.096 0.088 0.083 0.317579
626.918 0.41404 0.091 0.142 0.37359 0.11 0.128 0.244 0.043 0 0.156
646.208 0.275 0.37408 0.38389 0.4203 0.522 0.577 0.6632 0.7431 0.8238 1.1232
665.498 1.497 2.007 2.697 3.367 4.057 4.637 5.547 6.867 7.987 9.237
684.787 10.427 10.577 9.447 8.437 9.037 9.867 9.507 8.197 6.627 5.257
704.077 4.287 3.627 3.057 2.707 2.477 2.277 2.097 1.897 2.147 2.507
723.367 2.977 3.937 5.577 8.407 12.117 16.397 20.157 21.777 21.827 22.977
742.657 23.947 21.867 21.287 22.017 19.307 14.397 9.617 6.217 4.477 3.627
761.947 3.227 3.177 3.177 3.097 3.167 3.317 3.497 3.657 4.057 4.597
781.236 5.337 6.667 8.477 10.627 13.007 15.507 18.237 20.797 23.537 27.177
800.526 32.427 39.427 44.997 43.327 34.307 27.687 25.627 23.927 21.877 19.517
819.816 16.747 13.807 10.957 8.387 6.597 5.587 5.117 4.977 5.067 5.677
839.106 6.937 8.887 11.717 15.227 18.847 22.217 25.167 27.927 31.047 36.087
858.395 44.807 57.407 64.107 52.187 39.107 37.567 38.847 39.577 39.027 37.607
877.685 35.967 34.447 33.057 31.887 31.167 31.037 31.597 33.907 38.867 46.577
896.975 56.307 65.987 73.617 78.257 80.407 81.847 81.887 78.987 75.007 68.647
916.265 57.157 42.467 28.857 18.917 12.907 9.657 7.907 6.907 6.157 5.647
935.555 5.317 5.017 4.587 4.177 3.897 3.717 3.677 3.587 3.497 3.357
954.844 3.247 3.337 3.557 3.877 4.147 4.277 4.577 4.917 5.197 5.497
974.134 5.767 6.077 6.357 6.897 7.747 8.457 9.217 10.137 11.087 11.837
993.424 12.227 12.407 12.367 12.137 11.597 11.237 11.067 10.537 9.957 9.047
1012.714 8.347 8.217 8.017 7.977 8.277 8.727 9.667 11.187 13.167 16.077
1032.003 20.377 26.087 32.247 37.827 41.927 43.727 44.417 45.677 46.557 45.307
1051.293 42.637 37.917 30.707 22.697 15.637 11.197 8.897 7.037 5.447 4.887
1070.583 4.737 4.177 3.547 3.097 2.667 2.267 2.247 2.637 2.817 2.487
1089.873 2.177 2.207 2.487 2.457 2.037 2.077 2.307 2.517 2.757 2.897
1109.163 2.807 2.767 2.997 3.197 3.337 3.307 3.197 3.127 3.207 3.527
1128.452 3.417 3.367 3.457 3.377 3.297 3.017 3.047 3.597 3.757 3.957
1147.742 4.387 4.297 4.627 4.967 5.177 5.687 6.277 6.957 7.757 9.297
1167.032 11.577 14.267 17.307 20.197 22.477 23.317 22.907 23.047 23.877 24.877
1186.322 24.997 23.147 19.737 15.727 12.407 10.347 9.337 8.357 7.577 6.967
1205.611 6.427 6.217 6.477 7.427 8.457 9.767 12.087 15.547 20.167 26.087
1224.901 33.277 41.487 50.137 57.937 63.617 66.777 68.027 68.637 69.497 70.197
1244.191 69.097 64.547 56.677 48.647 43.767 42.577 43.687 45.207 45.817 46.037
1263.481 46.917 48.207 49.757 51.047 49.607 44.567 37.927 31.907 27.707 25.097
1282.771 23.417 21.727 18.917 15.377 11.997 9.117 6.907 5.487 4.517 3.757
1302.060 3.227 2.807 2.607 2.567 2.487 2.417 2.377 2.337 2.347 2.327
1321.350 2.227 2.147 2.107 2.117 2.087 1.997 1.987 1.997 1.967 1.977
1340.640 2.017 2.057 2.107 2.167 2.277 2.497 2.677 2.907 3.267 3.717
1359.930 4.327 5.027 5.847 6.717 7.597 8.357 8.937 9.487 10.097 10.877
1379.219 11.827 12.717 13.297 13.697 14.247 14.527 14.547 14.477 13.897 12.847
1398.509 11.877 11.237 10.747 9.997 9.087 8.267 7.677 7.387 7.387 7.647
1417.799 8.207 9.097 10.397 12.097 14.017 15.987 17.767 19.107 19.987 20.587
1437.089 21.177 21.607 21.777 21.907 21.747 21.117 20.227 19.527 19.277 19.277
1456.378 19.497 19.977 20.667 21.317 21.997 23.077 24.807 27.767 32.517 39.587
1475.668 49.387 62.727 79.767 100.447 123.317 145.937 165.427 179.097 186.307 188.277
1494.958 185.867 179.207 168.217 154.227 135.867 111.157 83.137 59.647 44.057 34.447
1514.248 28.407 24.307 21.247 18.317 15.407 12.937 11.177 10.167 9.657 9.397
1533.538 9.277 9.267 9.287 9.287 9.357 9.447 9.667 10.047 10.557 11.377
1552.827 12.307 13.287 14.427 15.887 17.457 19.007 20.897 23.087 25.447 27.987
1572.117 30.677 33.387 35.977 38.487 40.837 43.037 45.267 47.997 51.327 55.167
1591.407 59.397 64.197 70.087 76.957 84.157 90.617 95.497 98.327 98.607 95.677
1610.697 89.207 80.177 70.227 59.387 48.347 38.647 30.317 23.157 17.397 13.197
1629.986 10.457 8.827 7.837 7.197 6.657 6.307 6.087 5.887 5.727 5.567
1649.276 5.357 5.177 4.887 4.507 4.147 3.757 3.437 3.167 2.907 2.677
1668.566 2.557 2.497 2.367 2.227 2.087 2.027 2.007 1.927 1.867 1.857
1687.856 1.887 1.947 2.027 2.117 2.237 2.377 2.577 2.727 2.907 3.217
1707.146 3.507 3.837 4.097 4.327 4.567 4.717 4.747 4.767 4.917 5.107
1726.435 5.257 5.217 4.967 4.677 4.337 4.017 3.727 3.387 3.107 2.737
1745.725 2.347 2.017 1.717 1.437 1.2274 1.1373 1.0534 0.995 0.9394 0.8338
1765.015 0.775 0.8 0.7655 0.7015 0.6973 0.6672 0.659 0.7026 0.7352 0.7283
1784.305 0.7415 0.7635 0.7732 0.8258 0.856 0.8284 0.7954 0.8145 0.8196 0.801
1803.594 0.7775 0.7668 0.7743 0.7558 0.7563 0.7333 0.6898 0.7144 0.6966 0.6446
1822.884 0.6616 0.7219 0.707 0.6802 0.7223 0.7861 0.8218 0.842 0.9566 1.0605
1842.174 1.1418 1.2727 1.497 1.717 1.907 2.197 2.507 2.837 3.237 3.557
1861.464 3.777 3.947 3.987 3.877 3.757 3.617 3.497 3.267 2.867 2.417
1880.754 2.037 1.707 1.377 1.1675 1.0167 0.9066 0.8418 0.7689 0.7454 0.6792
1900.043 0.6314 0.6421 0.6358 0.6251 0.6255 0.6202 0.6449 0.7113 0.7824 0.7793
1919.333 0.7757 0.8851 0.8988 0.8726 0.8757 0.8329 0.8096 0.8406 0.9167 0.9245
1938.623 0.9274 0.9555 0.92 0.9511 1.0295 1.0459 1.0721 1.0773 1.0734 1.1288
1957.913 1.1843 1.192 1.1898 1.1736 1.1784 1.2475 1.2773 1.327 1.357 1.337
1977.202 1.2932 1.2622 1.2428 1.1914 1.1716 1.0882 0.9435 0.8169 0.7368 0.6137
1996.492 0.578 0.5934 0.5021 0.473 0.5436 0.5808 0.5468 0.5462 0.582 0.5266
2015.782 0.5134 0.5864 0.592 0.5627 0.5161 0.5171 0.5097 0.5413 0.5443 0.4939
2035.072 0.5145 0.4949 0.5014 0.5381 0.4964 0.4655 0.4972 0.5082 0.5033 0.4905
2054.362 0.542 0.5953 0.5968 0.6507 0.6922 0.6648 0.6942 0.8001 0.8236 0.8405
2073.651 0.8765 0.9009 0.8996 0.9241 0.9316 0.9101 0.9001 0.8697 0.9121 0.9753
2092.941 0.9637 0.8345 0.7528 0.7142 0.6369 0.6233 0.6234 0.6585 0.6602 0.5997
2112.231 0.6137 0.6995 0.7642 0.8337 0.8762 0.9085 0.9839 1.0495 1.1113 1.1216
2131.521 1.1333 1.1699 1.1977 1.2231 1.2029 1.2129 1.2237 1.1689 1.0974 1.0827
2150.810 1.0426 0.9746 0.9108 0.8209 0.7979 0.7657 0.6898 0.7048 0.7425 0.7753
2170.100 0.8258 0.8208 0.8422 0.836 0.7872 0.7504 0.7301 0.7055 0.6137 0.5624
2189.390 0.5065 0.4396 0.4521 0.39187 0.3671 0.41501 0.4242 0.41565 0.35426 0.32904
2208.680 0.316796 0.316445 0.33395 0.33908 0.375 0.39895 0.38947 0.36751 0.36598 0.37814
2227.970 0.4311 0.4249 0.37354 0.40702 0.4216 0.40314 0.39324 0.38098 0.4254 0.5289
2247.259 0.5153 0.4954 0.549 0.5551 0.5 0.4923 0.5663 0.6073 0.6207 0.6107
2266.549 0.5888 0.5718 0.5745 0.5215 0.5075 0.5608 0.5816 0.5733 0.588 0.6153
2285.839 0.6754 0.7385 0.7416 0.7347 0.7291 0.7185 0.7344 0.7846 0.7584 0.7122
2305.129 0.7439 0.7826 0.801 0.8248 0.7717 0.6755 0.6912 0.7679 0.7955 0.7737
2324.418 0.6786 0.638 0.6634 0.6479 0.6911 0.6989 0.6344 0.5107 0.4722 0.544
2343.708 0.5087 0.4733 0.5107 0.5535 0.5736 0.5872 0.6241 0.5666 0.508 0.5978
2362.998 0.6025 0.5713 0.6167 0.6008 0.5809 0.6401 0.7089 0.7133 0.7466 0.8182
2382.288 0.8268 0.8605 0.9469 1.0401 1.0938 1.0919 1.1088 1.1402 1.1918 1.2457
2401.578 1.276 1.3025 1.2642 1.2229 1.1955 1.0777 1.0074 1.0073 1.0044 0.9947
2420.867 0.9543 0.9314 0.9079 0.9104 0.8515 0.7603 0.8169 0.8372 0.777 0.7745
2440.157 0.7355 0.7519 0.8405 0.8531 0.8777 0.9099 0.9217 0.8944 0.912 1.0031
2459.447 1.0121 0.9768 0.9899 0.9885 1.0211 1.1273 1.1283 1.0992 1.087 1.0981
2478.737 1.1865 1.2102 1.1589 1.2059 1.246 1.2047 1.2452 1.387 1.477 1.517
2498.026 1.487 1.467 1.527 1.547 1.557 1.547 1.477 1.367 1.2837 1.2397
2517.316 1.1463 1.1184 1.047 0.927 0.8661 0.7761 0.7579 0.8126 0.8539 0.8164
2536.606 0.7675 0.7516 0.7806 0.8355 0.7738 0.7359 0.7731 0.7991 0.7625 0.7019
2555.896 0.7195 0.6731 0.6127 0.6059 0.6052 0.6082 0.6073 0.5306 0.4975 0.5355
2575.186 0.5319 0.5197 0.4926 0.4675 0.4468 0.40224 0.4282 0.40991 0.4224 0.4673
2594.475 0.4218 0.39612 0.38918 0.4671 0.5124 0.4746 0.4876 0.5558 0.5845 0.6117
2613.765 0.6561 0.633 0.6131 0.7003 0.7423 0.7269 0.8127 0.8345 0.8114 0.8042
2633.055 0.7591 0.7748 0.7621 0.7252 0.7209 0.6713 0.6333 0.6052 0.5921 0.6359
2652.345 0.6711 0.6818 0.7394 0.7885 0.7394 0.7481 0.7624 0.7076 0.7573 0.7733
2671.634 0.7209 0.711 0.6992 0.673 0.6696 0.6117 0.5364 0.5343 0.5352 0.5339
2690.924 0.4768 0.4416 0.5027 0.5404 0.5039 0.5316 0.5768 0.5189 0.4559 0.4777
2710.214 0.5121 0.6149 0.6945 0.6027 0.6345 0.7892 0.8295 0.7888 0.8543 0.9628
2729.504 0.9562 1.0396 1.1701 1.1323 1.0686 1.1468 1.275 1.31 1.3164 1.437
2748.794 1.547 1.507 1.497 1.467 1.397 1.367 1.3052 1.2575 1.1884 0.9932
2768.083 0.8674 0.8188 0.8175 0.7955 0.7285 0.8075 0.8191 0.8086 0.8325 0.7479
2787.373 0.6939 0.6817 0.6713 0.6461 0.7239 0.7372 0.7687 0.8205 0.8475 0.8677
2806.663 0.7475 0.819 1.0085 1.0613 1.0217 1.0711 1.1958 1.2698 1.447 1.587
2825.953 1.497 1.557 1.757 1.847 1.987 2.157 2.287 2.477 2.607 2.687
2845.242 2.897 3.167 3.367 3.597 3.827 4.087 4.357 4.657 5.107 5.547
2864.532 5.847 6.107 6.537 6.957 7.097 7.057 7.127 7.217 7.167 7.097
2883.822 6.907 6.737 6.697 6.437 6.277 6.257 6.207 6.237 6.207 6.237
2903.112 6.267 6.347 6.437 6.477 6.757 7.167 7.437 7.807 8.527 9.517
2922.401 10.527 11.597 12.827 14.057 15.317 16.567 17.767 18.707 19.157 19.187
2941.691 18.997 18.557 17.887 17.217 16.367 15.387 14.277 13.287 12.507 11.947
2960.981 11.687 11.687 12.167 12.567 12.397 12.257 12.257 12.227 12.347 12.457
2980.271 12.517 12.487 12.277 12.017 11.707 11.287 10.887 10.497 9.917 9.207
2999.561 8.567 7.947 7.227 6.637 6.277 5.817 5.487 5.317 5.307 5.377
3018.850 5.407 5.777 6.197 6.557 7.227 8.027 8.807 9.537 10.107 10.537
3038.140 10.867 10.937 10.817 10.717 10.577 10.317 9.777 8.947 8.177 7.577
3057.430 7.127 6.777 6.607 6.547 6.637 6.857 7.087 7.397 7.637 7.727
3076.720 7.727 7.647 7.387 7.157 6.957 6.717 6.377 5.707 5.047 4.607
3096.009 4.167 3.757 3.347 3.067 2.827 2.647 2.557 2.357 2.207 2.137
3115.299 1.917 1.787 1.667 1.547 1.537 1.507 1.447 1.2674 1.1958 1.1036
3134.589 0.9225 0.8131 0.822 0.883 0.9376 0.8798 0.7019 0.6997 0.7517 0.6855
3153.879 0.7615 0.903 0.8526 0.7118 0.627 0.6486 0.6359 0.5784 0.7245 0.799
3173.169 0.7926 0.7863 0.6146 0.5658 0.6304 0.7077 0.7201 0.6422 0.5691 0.6122
3192.458 0.7645 0.7484 0.6581 0.6491 0.5563 0.4328 0.4895 0.5963 0.5545 0.3957
3211.748 0.39663 0.4453 0.4549 0.5027 0.47 0.49 0.5049 0.505 0.4457 0.34668
3231.038 0.3398 0.39863 0.36112 0.33478 0.41239 0.31129 0.3031 0.38037 0.36219 0.37714
3250.328 0.41346 0.31382 0.172 0.206 0.2396 0.31305 0.33146 0.35951 0.4695 0.482
3269.617 0.3984 0.325581 0.32792 0.3494 0.35569 0.2908 0.311 0.37273 0.37662 0.37505
3288.907 0.318982 0.33878 0.4168 0.2573 0.31396 0.37302 0.3062 0.35354 0.40501 0.39944
3308.197 0.191 0.16 0.30948 0.40722 0.4306 0.33505 0.217 0.167 0.2279 0.33908
3327.487 0.2923 0.279 0.33606 0.2285 0.211 0.38896 0.4298 0.30899 0.216 0.2405
3346.777 0.2558 0.40312 0.5048 0.37381 0.35319 0.37456 0.34337 0.33489 0.34773 0.36195
3366.066 0.4333 0.39155 0.31151 0.33564 0.262 0.3036 0.4317 0.4592 0.5133 0.4856
3385.356 0.225 0.18 0.38113 0.4596 0.38012 0.318599 0.4593 0.4874 0.4395 0.34071
3404.646 0.2242 0.185 0.217 0.2618 0.192 0.163 0.194 0.316353 0.40818 0.40068
3423.936 0.39879 0.2316 0.093 0.189 0.198 0.158 0.085 0.101 0.2645 0.2364
3443.225 0.2203 0.4254 0.38947 0.31218 0.4442 0.4473 0.2823 0.2891 0.41346 0.3687
3462.515 0.396 0.3031 0.2674 0.193 0.209 0.41472 0.34791 0.206 0.2466 0.37718
3481.805 0.2422 0.097 0.165 0.3473 0.5057 0.4861 0.2962 0.2257 0.2999 0.35076
3501.095 0.476 0.4633 0.2615 0.2801 0.39916 0.2436 0.055 0.167 0.2695 0.35282
3520.385 0.5099 0.40381 0.2914 0.186 0.2442 0.2594 0.205 0.2653 0.36728 0.4845
3539.674 0.33585 0.34145 0.3133 0.2635 0.3436 0.37044 0.3405 0.2703 0.2559 0.2965
3558.964 0.31125 0.31087 0.436 0.5686 0.477 0.2976 0.19 0.2317 0.35025 0.39632
3578.254 0.35097 0.3346 0.3 0.128 0.2231 0.4698 0.39141 0.2965 0.32732 0.2529
3597.544 0.117 0.127 0.172 0.196 0.38732 0.5197 0.4587 0.2913 0.2417 0.211
3616.833 0.2492 0.40015 0.4576 0.4578 0.4635 0.5095 0.438 0.2886 0.3839 0.34462
3636.123 0.152 0.2444 0.36815 0.4511 0.4744 0.302 0.2848 0.38447 0.317622 0.17
3655.413 0.12 0.2815 0.40099 0.4691 0.5026 0.37967 0.198 0.176 0.4223 0.5075
3674.703 0.33735 0.159 0.212 0.34964 0.36115 0.37395 0.2947 0.30852 0.34546 0.38562
3693.993 0.4882 0.40081 0.196 0.2253 0.3067 0.40092 0.449 0.40553 0.4301 0.38169
3713.282 0.492 0.6367 0.6228 0.5939 0.5762 0.5395 0.5497 0.5673 0.5915 0.6012
3732.572 0.6039 0.7151 0.8333 0.7847 0.6604 0.6188 0.6749 0.5269 0.37917 0.43
3751.862 0.37668 0.2986 0.2541 0.212 0.40314 0.4644 0.39991 0.5022 0.5042 0.4276
3771.152 0.40716 0.4973 0.5734 0.5532 0.4645 0.3742 0.3734 0.4868 0.6196 0.6673
3790.441 0.5752 0.6672 0.8303 0.5823 0.36172 0.39243 0.4424 0.5463 0.5102 0.4476
3809.731 0.4156 0.4556 0.6754 0.5719 0.442 0.5432 0.4555 0.39035 0.5851 0.7727
3829.021 0.691 0.643 0.7119 0.611 0.5065 0.6076 0.5818 0.489 0.528 0.5312
3848.311 0.5674 0.5998 0.5249 0.536 0.6312 0.4999 0.251 0.2364 0.2635 0.3028
3867.601 0.40358 0.2279 0.211 0.3031 0.3682 0.4411 0.2642 0.2868 0.37072 0.39691
3886.890 0.5717 0.5612 0.39942 0.38113 0.35486 0.41192 0.4701 0.41085 0.37149 0.2806
3906.180 0.4745 0.5643 0.5242 0.4521 0.2456 0.2479 0.41669 0.517 0.40563 0.31496
3925.470 0.36366 0.3967 0.40899 0.36018 0.30975 0.35551 0.5156 0.5913 0.33938 0.2736
3944.760 0.4599 0.5791 0.4252 0.2645 0.33661 0.40822 0.5107 0.595 0.7153 0.7027
3964.049 0.5233 0.5657 0.705 0.6638 0.4525 0.4856 0.6452 0.5641 0.5734 0.7259
3983.339 0.8595 0.7723 0.6062 0.6521 0.6136 0.5223 0.5903 0.5721 0.6438 0.7
##END=
