##TITLE=4-Methylcatechol
##JCAMP-DX=4.24
##DATA TYPE=INFRARED SPECTRUM
##ORIGIN=NIST Mass Spectrometry Data Center
##OWNER=NIST Standard Reference Data Program
Collection (C) 2018 copyright by the U.S. Secretary of Commerce
on behalf of the United States of America. All rights reserved.
##CAS REGISTRY NO=452-86-8
##MOLFORM=C 7 H 8 O 2
##$NIST SOURCE=MSDC-IR
##SPECTROMETER/DATA SYSTEM=HP-GC/MS/IRD
##STATE=gas
##XUNITS=1/CM
##YUNITS=ABSORBANCE
##XFACTOR=1.0
##YFACTOR=0.000002300
##DELTAX=4.0
##FIRSTX=550.0
##LASTX=3846.0
##FIRSTY=0.001056
##MAXX=3846
##MINX=550
##MAXY=0.023
##MINY=0
##NPOINTS=825
##XYDATA=(X++(Y..Y))
550.0 459 334 309 428 519 654 862 1043 1140 1175
590.0 1070 880 710 531 341 210 128 70 62 73
630.0 92 81 58 56 55 72 80 65 54 41
670.0 13 0 11 23 15 37 85 104 114 156
710.0 225 311 371 386 399 422 403 342 311 323
750.0 345 418 642 1052 1591 2143 2644 3055 3405 3703
790.0 3631 3198 2853 2684 2625 2242 1622 1271 1030 805
830.0 661 627 633 601 592 626 647 687 728 624
870.0 472 391 321 264 218 204 210 225 275 331
910.0 378 462 585 771 1013 1225 1326 1301 1252 1159
950.0 930 677 509 403 360 363 389 438 485 536
990.0 575 589 573 530 488 418 337 298 297 307
1030.0 314 311 336 376 404 439 487 502 533 580
1070.0 630 723 882 1154 1655 2454 3491 4385 4791 4920
1110.0 4896 4352 3327 2422 1988 1949 2123 2299 2539 3017
1150.0 3698 4547 5538 6435 6977 7161 6996 6512 5920 5452
1190.0 5122 4876 4715 4465 3996 3505 3155 2939 2824 2807
1230.0 2932 3284 4013 5226 6671 7761 8262 8436 8450 8167
1270.0 7877 8391 9345 9916 10000 9565 8282 6321 4760 4085
1310.0 3869 3706 3486 3222 2830 2298 1839 1566 1397 1291
1350.0 1291 1334 1349 1336 1293 1220 1076 917 802 718
1390.0 666 635 618 632 683 770 903 1078 1273 1472
1430.0 1654 1790 1857 1840 1734 1551 1356 1161 995 897
1470.0 880 922 1020 1213 1550 2042 2730 3700 5019 6563
1510.0 7972 8963 9497 9446 8612 7100 5455 4019 2763 1767
1550.0 1194 951 857 809 799 837 901 984 1115 1302
1590.0 1540 1801 2030 2182 2219 2145 1951 1679 1382 1126
1630.0 986 920 877 845 816 794 765 728 671 616
1670.0 596 583 574 557 521 452 365 300 258 234
1710.0 224 225 219 182 148 138 127 98 81 76
1750.0 79 77 82 90 94 100 85 73 76 63
1790.0 50 45 45 47 48 65 81 90 96 98
1830.0 102 110 110 114 120 123 124 128 128 119
1870.0 108 92 77 60 48 44 33 27 24 18
1910.0 21 27 26 19 16 14 20 25 28 29
1950.0 23 19 18 16 16 16 18 22 22 21
1990.0 21 18 18 21 25 33 42 55 57 69
2030.0 74 73 77 82 77 76 79 74 73 70
2070.0 62 52 44 41 37 33 27 23 21 20
2110.0 19 19 20 12 4 7 7 6 10 14
2150.0 13 4 1 2 6 15 15 12 20 23
2190.0 24 23 26 31 31 33 33 37 37 35
2230.0 32 27 22 23 26 29 37 36 37 48
2270.0 58 69 72 70 77 79 79 87 88 76
2310.0 67 77 82 74 68 66 63 64 76 80
2350.0 80 85 89 78 71 75 78 85 89 96
2390.0 98 98 103 105 99 104 110 107 105 100
2430.0 95 90 89 90 86 91 104 99 90 90
2470.0 92 90 87 83 78 80 80 83 88 88
2510.0 86 78 66 64 66 68 66 66 74 78
2550.0 82 74 67 65 62 60 44 45 46 26
2590.0 25 37 36 36 42 45 46 42 38 39
2630.0 33 23 23 22 21 23 21 17 10 6
2670.0 7 4 8 10 1 2 3 5 12 20
2710.0 25 32 36 41 55 64 78 96 104 104
2750.0 95 75 58 46 46 41 38 45 50 41
2790.0 30 34 42 54 62 67 87 103 112 122
2830.0 128 140 162 193 237 289 351 436 554 697
2870.0 854 967 1017 1007 966 900 823 770 768 804
2910.0 885 1034 1256 1542 1803 1949 1977 1888 1674 1373
2950.0 1070 858 733 647 597 581 563 559 584 621
2990.0 659 711 804 919 1020 1099 1173 1259 1352 1449
3030.0 1536 1617 1688 1718 1664 1554 1440 1295 1088 875
3070.0 713 597 505 432 373 303 244 208 179 151
3110.0 137 117 94 82 86 89 77 67 60 50
3150.0 38 19 9 11 15 15 10 19 34 24
3190.0 12 15 25 26 20 22 27 22 8 0
3230.0 15 27 23 31 22 6 20 33 28 15
3270.0 11 27 41 45 53 61 67 72 72 53
3310.0 42 38 17 13 23 27 25 32 31 23
3350.0 30 19 1 5 21 41 46 37 37 42
3390.0 38 32 25 29 42 49 52 68 85 100
3430.0 121 136 146 148 155 160 171 177 175 181
3470.0 193 202 198 195 192 181 174 172 166 146
3510.0 145 144 129 132 127 119 121 108 114 131
3550.0 149 173 187 224 305 416 589 894 1440 2324
3590.0 3534 4848 5966 6609 6587 5973 4946 3687 2467 1643
3630.0 1266 1180 1291 1558 1932 2395 2915 3316 3366 3143
3670.0 2906 2493 1790 1096 651 405 266 189 155 140
3710.0 129 114 111 118 116 113 122 132 130 128
3750.0 124 116 114 111 106 103 98 101 102 104
3790.0 104 98 105 115 114 102 101 105 93 82
3830.0 95 106 104 99 102
##END=
