##TITLE=7-Hexadecanone
##JCAMP-DX=4.24
##DATA TYPE=INFRARED SPECTRUM
##ORIGIN=EPA-IR VAPOR PHASE LIBRARY
##OWNER=SRD/NIST
Collection (C) 2018 copyright by the U.S. Secretary of Commerce
on behalf of the United States of America. All rights reserved.
##CAS REGISTRY NO=45206-91-5
##MOLFORM=C 16 H 32 O
##$NIST SOURCE=MSDC-IR
##STATE=gas
##XUNITS=1/CM
##YUNITS=ABSORBANCE
##XFACTOR=1.
##YFACTOR=0.001
##DELTAX=1.92934
##FIRSTX=549.9
##LASTX=3999.5
##FIRSTY=1.2208
##MAXX=3999.53
##MINX=549.863
##MAXY=0.280384
##MINY=0
##NPOINTS=1789
##XYDATA=(X++(Y..Y))
549.863 1.2208 1.1995 1.1604 1.1069 0.9974 0.8352 0.737 0.8519 0.8322 0.631
569.156 0.459 0.376 0.472 0.625 0.7911 0.68 0.629 0.602 0.47 0.567
588.450 0.65 0.665 0.567 0.488 0.58 0.651 0.758 0.86505 0.752 0.7931
607.743 0.9844 0.93762 0.89348 0.92644 0.95524 0.90582 0.9079 1.053 1.1281 1.0445
627.037 0.96445 1.0179 1.1186 1.1602 1.124 1.0886 1.0323 1.026 0.96479 0.74
646.330 0.673 0.657 0.618 0.725 0.7746 0.688 0.643 0.591 0.528 0.582
665.624 0.662 0.618 0.606 0.684 0.698 0.71 0.702 0.765 0.88592 0.97099
684.917 1.0027 1.1047 1.212 1.2982 1.4656 1.6009 1.7418 1.974 2.304 2.554
704.210 2.804 3.144 3.464 3.854 4.244 4.504 4.744 5.024 5.154 5.174
723.504 5.214 5.214 5.224 5.144 5.044 4.994 4.864 4.584 4.344 4.194
742.797 4.084 3.894 3.674 3.554 3.474 3.364 3.264 3.184 3.124 3.034
762.091 2.944 2.904 2.764 2.674 2.674 2.564 2.524 2.494 2.364 2.234
781.384 2.124 2.024 1.974 1.934 1.894 1.8165 1.7521 1.7509 1.6811 1.5996
800.678 1.6027 1.6005 1.6171 1.6149 1.5794 1.6108 1.629 1.6085 1.6363 1.6277
819.971 1.6147 1.6108 1.6063 1.607 1.6534 1.6863 1.7345 1.7611 1.6935 1.7319
839.264 1.8184 1.8184 1.8265 1.914 1.964 1.934 1.914 1.974 2.004 2.014
858.558 2.024 2.054 2.144 2.154 2.104 2.154 2.214 2.274 2.294 2.284
877.851 2.324 2.414 2.424 2.414 2.474 2.554 2.534 2.534 2.554 2.554
897.145 2.504 2.434 2.404 2.334 2.284 2.254 2.254 2.254 2.224 2.204
916.438 2.164 2.154 2.174 2.184 2.174 2.144 2.134 2.144 2.164 2.224
935.732 2.274 2.384 2.504 2.514 2.594 2.764 2.864 2.944 3.094 3.214
955.025 3.274 3.424 3.564 3.654 3.724 3.764 3.894 3.964 3.964 4.044
974.318 4.084 4.134 4.234 4.324 4.474 4.604 4.744 4.844 4.934 5.064
993.612 5.154 5.204 5.234 5.264 5.304 5.334 5.334 5.364 5.414 5.504
1012.905 5.574 5.684 5.854 6.054 6.244 6.464 6.724 6.944 7.114 7.254
1032.199 7.384 7.524 7.694 7.864 8.014 8.194 8.384 8.644 8.884 9.154
1051.492 9.474 9.754 10.144 10.514 10.804 11.074 11.344 11.624 11.864 12.044
1070.786 12.124 12.164 12.084 11.854 11.554 11.164 10.794 10.324 9.854 9.474
1090.079 9.044 8.634 8.264 7.984 7.774 7.664 7.654 7.614 7.684 7.904
1109.372 8.244 8.684 9.104 9.534 10.044 10.524 11.064 11.634 12.214 12.684
1128.666 12.934 13.224 13.344 13.194 12.984 12.704 12.374 12.014 11.574 11.114
1147.959 10.744 10.284 9.784 9.444 9.064 8.674 8.444 8.314 8.144 8.064
1167.253 8.104 8.154 8.194 8.324 8.534 8.574 8.704 8.804 8.914 9.204
1186.546 9.424 9.524 9.694 9.954 10.114 10.204 10.254 10.444 10.514 10.534
1205.840 10.724 10.404 9.994 10.064 10.114 9.934 9.564 9.354 9.194 8.974
1225.133 8.804 8.624 8.644 8.534 8.364 8.304 8.174 8.034 7.914 7.884
1244.426 7.874 7.924 7.924 7.894 7.984 8.064 8.194 8.334 8.504 8.764
1263.720 8.904 9.034 9.374 9.724 9.964 10.084 10.294 10.584 10.704 10.764
1283.013 10.734 10.684 10.744 10.874 10.974 10.974 11.044 11.194 11.354 11.524
1302.307 11.684 11.764 11.814 11.874 11.914 11.914 11.954 12.014 12.044 12.104
1321.600 12.274 12.494 12.754 13.154 13.634 14.134 14.724 15.484 16.374 17.264
1340.894 18.104 18.974 19.844 20.704 21.554 22.354 23.074 23.574 23.804 23.784
1360.187 23.534 22.994 22.174 21.174 20.014 18.734 17.454 16.314 15.324 14.534
1379.480 13.954 13.494 13.004 12.404 11.694 10.924 10.224 9.724 9.374 9.104
1398.774 9.034 9.074 9.274 9.594 10.014 10.504 11.064 11.644 12.104 12.474
1418.067 12.694 12.784 12.834 12.804 12.814 12.944 13.154 13.424 13.804 14.314
1437.361 14.924 15.624 16.534 17.614 18.814 20.104 21.524 22.964 24.444 25.774
1456.654 26.824 27.604 27.834 27.474 26.644 25.434 23.854 21.974 19.854 17.664
1475.948 15.584 13.604 11.934 10.494 9.264 8.224 7.354 6.614 5.984 5.474
1495.241 5.054 4.674 4.334 4.054 3.794 3.544 3.334 3.204 3.074 2.934
1514.534 2.784 2.614 2.474 2.374 2.284 2.224 2.174 2.114 2.034 1.934
1533.828 1.855 1.788 1.6951 1.5863 1.5857 1.6966 1.6725 1.5593 1.5467 1.506
1553.121 1.4553 1.4266 1.3035 1.2552 1.3639 1.3872 1.3113 1.2823 1.2662 1.2585
1572.415 1.307 1.2686 1.1652 1.2252 1.2861 1.2613 1.2466 1.2139 1.2129 1.1736
1591.708 1.1834 1.2413 1.2621 1.2426 1.2386 1.2659 1.2919 1.2869 1.2348 1.2434
1611.002 1.302 1.301 1.27 1.2671 1.3518 1.3784 1.367 1.3938 1.4153 1.466
1630.295 1.5262 1.5822 1.5674 1.567 1.6868 1.7722 1.8239 1.8365 1.8457 1.934
1649.588 2.004 2.014 2.114 2.324 2.504 2.694 2.804 2.904 3.114 3.344
1668.882 3.544 3.814 4.164 4.524 4.944 5.384 5.864 6.274 6.744 7.414
1688.175 8.114 8.844 9.714 10.754 12.064 13.584 15.434 17.914 20.664 24.054
1707.469 28.074 32.864 38.444 44.684 51.354 58.254 64.854 69.964 73.064 73.674
1726.762 71.384 66.474 59.584 51.714 43.184 35.664 29.424 24.074 20.004 16.714
1746.056 14.134 12.104 10.524 9.234 8.144 7.224 6.464 5.794 5.244 4.804
1765.349 4.404 4.084 3.744 3.394 3.124 2.934 2.744 2.574 2.404 2.204
1784.642 2.094 1.954 1.8395 1.7638 1.6607 1.5414 1.4405 1.4168 1.378 1.3318
1803.936 1.2789 1.2004 1.1543 1.1266 1.1093 1.0701 1.0573 0.9898 0.90914 0.95056
1823.229 0.96733 0.939 0.89414 0.8275 0.8105 0.765 0.746 0.759 0.744 0.752
1842.523 0.734 0.704 0.68 0.662 0.671 0.654 0.649 0.652 0.601 0.579
1861.816 0.578 0.543 0.526 0.555 0.551 0.472 0.468 0.473 0.48 0.513
1881.110 0.466 0.439 0.44 0.457 0.492 0.489 0.444 0.442 0.466 0.436
1900.403 0.412 0.388 0.392 0.432 0.408 0.379 0.367 0.385 0.416 0.398
1919.696 0.386 0.398 0.381 0.358 0.353 0.317 0.327 0.369 0.331 0.319
1938.990 0.33 0.329 0.352 0.355 0.329 0.306 0.304 0.335 0.365 0.38
1958.283 0.387 0.36 0.344 0.346 0.36 0.374 0.357 0.348 0.354 0.313
1977.577 0.311 0.353 0.328 0.314 0.306 0.319 0.328 0.288 0.296 0.343
1996.870 0.363 0.338 0.344 0.377 0.416 0.429 0.418 0.452 0.466 0.453
2016.164 0.474 0.477 0.455 0.494 0.555 0.592 0.572 0.591 0.602 0.582
2035.457 0.618 0.623 0.604 0.574 0.562 0.566 0.585 0.572 0.572 0.581
2054.750 0.547 0.536 0.511 0.489 0.5 0.492 0.506 0.463 0.424 0.489
2074.044 0.517 0.507 0.472 0.429 0.396 0.4 0.436 0.432 0.406 0.402
2093.337 0.41 0.416 0.412 0.404 0.41 0.412 0.429 0.411 0.375 0.359
2112.631 0.398 0.412 0.384 0.408 0.448 0.422 0.39 0.422 0.417 0.389
2131.924 0.386 0.409 0.391 0.388 0.438 0.445 0.447 0.443 0.434 0.454
2151.218 0.462 0.472 0.479 0.503 0.532 0.515 0.509 0.533 0.514 0.484
2170.511 0.438 0.445 0.485 0.486 0.502 0.484 0.466 0.484 0.505 0.489
2189.804 0.484 0.496 0.476 0.475 0.478 0.459 0.442 0.432 0.414 0.402
2209.098 0.399 0.425 0.437 0.441 0.457 0.438 0.412 0.427 0.457 0.453
2228.391 0.415 0.405 0.414 0.436 0.434 0.376 0.378 0.41 0.411 0.415
2247.685 0.44 0.431 0.413 0.396 0.393 0.393 0.399 0.439 0.446 0.446
2266.978 0.447 0.456 0.447 0.446 0.477 0.457 0.442 0.472 0.478 0.463
2286.272 0.432 0.422 0.442 0.435 0.432 0.46 0.493 0.489 0.466 0.468
2305.565 0.51 0.552 0.533 0.505 0.515 0.514 0.497 0.503 0.503 0.469
2324.858 0.49 0.524 0.515 0.474 0.419 0.397 0.397 0.365 0.35 0.368
2344.152 0.435 0.479 0.47 0.461 0.429 0.383 0.357 0.335 0.294 0.311
2363.445 0.351 0.393 0.413 0.452 0.464 0.454 0.485 0.528 0.513 0.502
2382.739 0.474 0.411 0.437 0.491 0.494 0.484 0.485 0.497 0.472 0.463
2402.032 0.474 0.482 0.492 0.509 0.503 0.46 0.46 0.456 0.438 0.434
2421.326 0.427 0.433 0.441 0.404 0.436 0.478 0.453 0.456 0.478 0.5
2440.619 0.46 0.379 0.361 0.393 0.399 0.406 0.411 0.425 0.447 0.445
2459.912 0.436 0.411 0.409 0.406 0.406 0.425 0.4 0.398 0.401 0.344
2479.206 0.355 0.438 0.49 0.446 0.395 0.397 0.428 0.44 0.422 0.421
2498.499 0.452 0.503 0.492 0.457 0.485 0.494 0.493 0.529 0.52 0.509
2517.793 0.529 0.56 0.576 0.596 0.624 0.68 0.713 0.676 0.678 0.721
2537.086 0.7831 0.8141 0.7749 0.73 0.722 0.805 0.85 0.8214 0.8035 0.7981
2556.380 0.8618 0.92188 0.8582 0.8253 0.89547 0.91085 0.91714 0.94021 0.9753 0.9939
2575.673 0.9893 1.017 1.0729 1.0574 1.0277 1.0495 1.04 1.0895 1.1607 1.1518
2594.966 1.123 1.1502 1.1845 1.2038 1.2229 1.2595 1.285 1.3138 1.3509 1.3578
2614.260 1.3989 1.4362 1.4291 1.4528 1.5361 1.6014 1.6546 1.6736 1.6473 1.7065
2633.553 1.7926 1.7943 1.7931 1.8623 1.914 1.964 2.004 2.024 2.074 2.064
2652.847 2.114 2.234 2.264 2.294 2.334 2.394 2.454 2.494 2.514 2.544
2672.140 2.644 2.714 2.744 2.824 2.894 2.884 2.824 2.774 2.714 2.694
2691.434 2.734 2.714 2.674 2.654 2.654 2.604 2.504 2.484 2.514 2.544
2710.727 2.534 2.524 2.604 2.664 2.634 2.644 2.694 2.764 2.774 2.744
2730.020 2.844 2.954 3.094 3.274 3.374 3.424 3.474 3.544 3.644 3.704
2749.314 3.734 3.744 3.774 3.784 3.784 3.804 3.834 3.844 3.864 3.984
2768.607 4.094 4.194 4.344 4.524 4.644 4.784 5.044 5.224 5.424 5.634
2787.901 5.844 6.194 6.474 6.834 7.294 7.604 7.974 8.384 8.744 9.224
2807.194 9.674 10.154 10.664 11.154 11.684 12.234 12.854 13.514 14.264 15.034
2826.488 15.864 16.864 18.034 19.314 20.734 22.394 24.444 26.934 29.834 33.414
2845.781 37.744 42.844 49.154 56.554 64.934 74.064 83.324 91.774 98.524 103.174
2865.074 105.484 105.624 104.144 101.484 98.364 95.224 92.384 90.164 88.524 87.234
2884.368 85.974 84.624 83.214 82.254 82.164 82.804 84.314 86.784 90.084 94.144
2903.661 98.994 104.744 111.534 119.194 127.724 137.364 148.444 161.164 175.524 191.764
2922.955 209.454 227.804 245.814 261.544 273.194 279.624 280.384 275.824 267.044 255.294
2942.248 241.534 226.884 212.124 198.104 185.444 174.644 166.194 159.954 155.654 152.924
2961.542 151.244 149.744 147.384 143.074 136.044 126.194 113.914 100.224 86.684 74.404
2980.835 64.044 55.424 48.154 42.264 37.484 33.544 30.254 27.414 25.014 22.894
3000.128 21.104 19.534 18.024 16.694 15.554 14.494 13.604 12.914 12.234 11.544
3019.422 10.914 10.374 9.764 9.344 9.014 8.604 8.034 7.604 7.344 6.964
3038.715 6.614 6.404 6.154 5.714 5.424 5.294 5.124 4.894 4.644 4.484
3058.009 4.484 4.304 4.054 4.004 3.844 3.684 3.564 3.464 3.444 3.334
3077.302 3.244 3.254 3.284 3.224 3.074 3.024 2.984 2.884 2.804 2.704
3096.596 2.594 2.614 2.654 2.544 2.444 2.384 2.314 2.184 2.134 2.194
3115.889 2.074 1.994 2.104 1.994 1.874 1.8738 1.8158 1.884 1.894 1.6743
3135.182 1.5132 1.5923 1.7313 1.672 1.5958 1.6494 1.6753 1.628 1.6438 1.6573
3154.476 1.6226 1.5502 1.4419 1.3578 1.3739 1.3467 1.4068 1.4788 1.3974 1.3235
3173.769 1.2648 1.2598 1.3043 1.3914 1.3108 1.2036 1.2379 1.1685 1.0244 0.93174
3193.063 0.95441 0.96797 0.93609 0.9954 0.9959 0.92686 0.86864 0.93572 0.9749 0.8934
3212.356 0.879443 0.7902 0.728 0.697 0.721 0.714 0.673 0.671 0.631 0.533
3231.650 0.399 0.451 0.457 0.504 0.593 0.611 0.514 0.432 0.512 0.456
3250.943 0.345 0.324 0.421 0.566 0.553 0.545 0.468 0.409 0.435 0.492
3270.236 0.514 0.45 0.384 0.278 0.236 0.221 0.342 0.412 0.381 0.303
3289.530 0.2 0.258 0.263 0.228 0.28 0.339 0.298 0.231 0.259 0.444
3308.823 0.598 0.474 0.379 0.36 0.447 0.461 0.43 0.475 0.461 0.437
3328.117 0.427 0.448 0.404 0.435 0.494 0.538 0.523 0.391 0.409 0.533
3347.410 0.508 0.429 0.566 0.63 0.582 0.657 0.583 0.516 0.515 0.492
3366.704 0.586 0.543 0.426 0.421 0.419 0.476 0.509 0.442 0.513 0.667
3385.997 0.66 0.65 0.652 0.579 0.58 0.672 0.7943 0.91383 0.8608 0.878432
3405.290 0.9921 1.0365 1.241 1.3806 1.2527 1.272 1.3195 1.3031 1.3792 1.487
3424.584 1.472 1.4429 1.5697 1.5074 1.474 1.4884 1.4088 1.3406 1.3932 1.3825
3443.877 1.1364 1.0024 0.93347 0.7964 0.74 0.705 0.761 0.7768 0.572 0.465
3463.171 0.366 0.252 0.285 0.46 0.502 0.34 0.257 0.317 0.373 0.383
3482.464 0.379 0.274 0.241 0.231 0.23 0.34 0.298 0.215 0.211 0.194
3501.758 0.264 0.279 0.317 0.315 0.179 0.217 0.319 0.281 0.152 0.161
3521.051 0.322 0.391 0.314 0.267 0.264 0.248 0.176 0.073 0.102 0.126
3540.344 0.047 0.045 0.064 0.063 0.094 0.025 0.01 0.089 0.082 0.085
3559.638 0.085 0 0.082 0.241 0.195 0.163 0.23 0.2 0.149 0.24
3578.931 0.236 0.129 0.088 0.148 0.244 0.183 0.098 0.122 0.262 0.352
3598.225 0.301 0.261 0.253 0.335 0.366 0.259 0.354 0.418 0.356 0.397
3617.518 0.408 0.479 0.444 0.371 0.399 0.402 0.352 0.304 0.348 0.328
3636.812 0.365 0.447 0.357 0.325 0.398 0.384 0.364 0.355 0.26 0.249
3656.105 0.362 0.358 0.402 0.437 0.366 0.363 0.368 0.38 0.448 0.452
3675.398 0.305 0.305 0.418 0.379 0.295 0.279 0.316 0.318 0.319 0.391
3694.692 0.448 0.442 0.382 0.363 0.295 0.33 0.453 0.416 0.342 0.234
3713.985 0.296 0.433 0.451 0.389 0.287 0.292 0.401 0.495 0.419 0.388
3733.279 0.432 0.406 0.429 0.43 0.387 0.262 0.135 0.199 0.177 0.127
3752.572 0.236 0.432 0.428 0.31 0.391 0.524 0.57 0.496 0.381 0.38
3771.866 0.372 0.315 0.338 0.435 0.485 0.496 0.517 0.552 0.547 0.467
3791.159 0.475 0.51 0.498 0.467 0.418 0.397 0.419 0.389 0.303 0.352
3810.452 0.506 0.517 0.438 0.37 0.429 0.454 0.338 0.261 0.412 0.469
3829.746 0.409 0.388 0.345 0.37 0.375 0.424 0.422 0.402 0.395 0.387
3849.039 0.41 0.415 0.542 0.53 0.479 0.554 0.554 0.497 0.451 0.581
3868.333 0.671 0.513 0.441 0.476 0.525 0.537 0.451 0.537 0.57 0.483
3887.626 0.524 0.541 0.502 0.528 0.57 0.597 0.571 0.474 0.51 0.523
3906.920 0.548 0.594 0.546 0.519 0.501 0.669 0.688 0.564 0.553 0.577
3926.213 0.56 0.533 0.485 0.463 0.523 0.562 0.582 0.514 0.579 0.71
3945.506 0.671 0.662 0.683 0.612 0.488 0.503 0.602 0.631 0.585 0.525
3964.800 0.527 0.626 0.67 0.562 0.688 0.754 0.708 0.764 0.739 0.729
3984.093 0.746 0.705 0.733 0.8348 0.7811 0.716 0.8005 0.8066 0.747
##END=
