##TITLE=5-Nitrothiophene-2-carboxaldehyde
##JCAMP-DX=4.24
##DATA TYPE=INFRARED SPECTRUM
##ORIGIN=EPA-IR VAPOR PHASE LIBRARY
##OWNER=SRD/NIST
Collection (C) 2018 copyright by the U.S. Secretary of Commerce
on behalf of the United States of America. All rights reserved.
##CAS REGISTRY NO=4521-33-9
##MOLFORM=C 5 H 3 N O 3 S
##$NIST SOURCE=MSDC-IR
##STATE=gas
##XUNITS=1/CM
##YUNITS=ABSORBANCE
##XFACTOR=1.
##YFACTOR=0.001
##DELTAX=1.929
##FIRSTX=549.8
##LASTX=4000.8
##FIRSTY=1.198
##MAXX=4000.75
##MINX=549.766
##MAXY=0.103366
##MINY=0
##NPOINTS=1790
##XYDATA=(X++(Y..Y))
549.766 1.198 1.2631 1.4234 1.4576 1.3055 1.3534 1.2986 1.2194 1.2594 1.231
569.056 0.9952 0.981 1.0699 0.89081 0.7646 0.651 0.83995 0.7715 0.638 0.654
588.346 0.654 0.9472 0.9432 0.7584 1.0028 1.1136 0.9277 0.84158 0.9707 1.158
607.636 1.2319 1.3751 1.581 1.5913 1.5928 1.816 1.996 1.966 2.006 2.166
626.926 2.106 2.236 2.356 2.116 2.046 2.136 2.186 2.006 1.916 1.976
646.216 2.176 2.706 3.266 3.876 4.566 5.426 6.496 7.566 8.646 9.406
665.506 9.736 9.796 9.626 9.326 8.836 7.776 6.296 4.936 3.826 3.156
684.796 2.686 2.146 1.8048 1.7091 1.6114 1.4639 1.3031 1.4439 1.765 1.826
704.086 1.886 2.186 2.646 3.186 3.826 4.596 5.386 5.906 6.346 6.886
723.376 7.926 9.746 11.546 10.826 8.246 7.186 7.056 6.816 6.446 5.806
742.666 5.166 4.586 4.236 4.106 3.836 3.776 4.036 4.516 5.216 5.856
761.956 6.346 6.396 6.106 6.186 6.266 6.286 6.186 5.496 4.686 4.316
781.246 4.526 5.006 5.706 6.736 8.156 9.796 11.566 13.516 15.596 17.746
800.536 19.736 21.756 24.356 27.836 32.636 38.036 41.686 41.016 37.946 36.406
819.826 34.726 33.496 32.226 27.306 20.126 13.976 10.016 7.596 6.056 4.866
839.116 3.936 3.166 2.586 2.096 1.6674 1.424 1.2152 1.0226 0.82882 0.7274
858.406 0.627 0.555 0.592 0.559 0.525 0.541 0.542 0.582 0.585 0.565
877.696 0.469 0.516 0.683 0.646 0.602 0.616 0.616 0.626 0.637 0.7419
896.986 0.7245 0.574 0.555 0.593 0.671 0.643 0.589 0.608 0.618 0.576
916.276 0.463 0.472 0.555 0.448 0.348 0.349 0.396 0.435 0.45 0.459
935.566 0.446 0.438 0.425 0.5 0.538 0.545 0.624 0.7322 0.7514 0.674
954.856 0.684 0.7276 0.7741 0.80499 0.81834 0.82242 0.88657 1.0368 1.1584 1.1396
974.146 1.0599 1.0643 1.1149 1.21 1.3074 1.2586 1.2482 1.3258 1.3335 1.3118
993.436 1.3106 1.3818 1.3757 1.43 1.6259 1.779 1.936 2.186 2.426 2.716
1012.726 3.166 3.526 3.776 4.076 4.366 4.676 5.116 5.656 5.886 5.546
1032.016 5.056 4.806 4.786 4.716 4.386 3.746 3.086 2.646 2.266 1.946
1051.306 1.7309 1.5426 1.3643 1.2769 1.2876 1.2999 1.3215 1.4506 1.6162 1.785
1070.596 1.896 2.036 2.296 2.506 2.706 2.926 3.106 3.436 3.896 4.436
1089.886 5.036 5.756 6.586 7.486 8.536 9.666 10.796 11.706 12.266 12.636
1109.176 12.676 12.216 11.436 10.346 9.146 7.966 6.766 5.676 4.836 4.476
1128.467 4.446 4.446 4.526 4.566 4.576 4.696 4.816 4.816 4.686 4.706
1147.757 4.846 4.966 5.226 5.546 5.896 6.336 6.856 7.366 7.946 8.786
1167.047 9.726 10.856 12.406 14.506 17.176 20.446 24.286 28.576 33.086 37.546
1186.337 41.656 44.556 45.946 45.856 44.186 41.436 37.956 33.416 27.836 21.956
1205.627 16.826 13.516 11.996 11.906 12.606 13.416 13.726 13.306 13.036 12.836
1224.917 12.286 11.436 9.756 7.546 5.786 4.596 3.856 3.266 2.876 2.696
1244.207 2.506 2.366 2.086 1.856 1.856 1.826 1.7824 1.7671 1.836 1.866
1263.497 1.886 1.986 2.166 2.356 2.586 2.906 3.206 3.566 3.846 4.046
1282.787 4.176 4.216 4.356 4.446 4.376 4.386 4.456 4.546 4.756 5.136
1302.077 5.636 6.316 7.176 8.286 9.686 11.336 13.356 15.826 18.716 22.266
1321.367 26.656 31.716 37.396 43.216 48.726 53.756 58.616 63.916 69.686 75.386
1340.657 79.766 81.656 81.326 79.816 77.766 74.876 70.526 64.176 55.076 44.246
1359.947 34.036 25.756 19.456 14.816 11.566 9.386 7.886 6.876 6.166 5.636
1379.237 5.266 4.976 4.656 4.336 4.206 4.206 4.116 4.016 3.916 3.746
1398.527 3.666 3.686 3.726 3.716 3.706 3.696 3.716 3.826 3.986 4.206
1417.817 4.456 4.766 4.996 5.246 5.446 5.616 5.916 6.136 6.206 6.186
1437.107 6.136 6.036 6.046 6.096 6.046 5.886 5.646 5.436 5.206 5.056
1456.397 5.016 4.916 4.786 4.706 4.616 4.446 4.346 4.386 4.486 4.546
1475.687 4.536 4.626 4.736 4.876 5.036 5.096 5.236 5.396 5.566 5.836
1494.977 6.306 6.896 7.616 8.606 9.876 11.536 13.706 16.356 19.646 23.606
1514.267 28.056 32.916 37.596 41.496 44.396 46.276 47.786 49.146 50.176 50.406
1533.557 49.636 48.296 47.386 47.466 48.206 48.996 49.316 48.996 48.266 47.696
1552.847 47.356 46.616 44.706 41.336 37.266 33.556 30.276 27.546 25.146 22.886
1572.137 20.796 18.936 17.216 15.596 14.346 13.286 12.096 10.776 9.496 8.356
1591.427 7.406 6.606 6.066 5.636 5.286 5.016 4.746 4.616 4.556 4.526
1610.717 4.526 4.476 4.486 4.496 4.356 4.226 4.136 4.036 3.896 3.816
1630.007 3.666 3.486 3.396 3.286 3.126 2.956 2.856 2.836 2.816 2.786
1649.297 2.766 2.866 2.956 2.916 2.956 3.086 3.306 3.526 3.736 3.976
1668.587 4.326 4.736 5.226 5.786 6.426 7.266 8.446 9.896 11.886 14.426
1687.877 17.656 22.156 28.336 36.506 47.696 61.136 75.186 88.716 97.796 102.726
1707.167 103.366 102.146 100.246 94.486 84.136 69.426 51.226 35.416 24.236 17.376
1726.457 13.236 10.516 8.626 7.286 6.166 5.206 4.506 3.886 3.406 2.996
1745.747 2.646 2.416 2.246 2.086 1.946 1.886 1.856 1.836 1.856 1.846
1765.037 1.826 1.866 1.866 1.846 1.826 1.751 1.7292 1.7428 1.7469 1.788
1784.327 1.826 1.886 1.966 2.016 2.056 2.086 2.106 2.086 2.076 2.076
1803.617 2.016 1.926 1.856 1.7862 1.6921 1.6068 1.5507 1.5095 1.4905 1.4822
1822.907 1.4571 1.5334 1.6562 1.7683 1.936 2.086 2.186 2.266 2.366 2.436
1842.197 2.466 2.486 2.436 2.336 2.246 2.186 2.216 2.136 2.006 1.946
1861.487 1.846 1.7207 1.6188 1.5406 1.4544 1.3798 1.2959 1.1946 1.1005 1.0812
1880.777 1.0269 0.967 0.9364 0.89141 0.83587 0.79658 0.7528 0.7437 0.7615 0.698
1900.067 0.664 0.676 0.641 0.6 0.626 0.642 0.621 0.627 0.627 0.656
1919.357 0.696 0.69 0.706 0.7249 0.7278 0.7741 0.814958 0.7901 0.7419 0.7252
1938.647 0.7113 0.644 0.611 0.581 0.569 0.596 0.609 0.619 0.584 0.584
1957.937 0.63 0.605 0.548 0.56 0.569 0.553 0.546 0.53 0.487 0.475
1977.227 0.495 0.474 0.445 0.414 0.377 0.39 0.417 0.385 0.373 0.347
1996.517 0.342 0.381 0.407 0.392 0.379 0.339 0.31 0.391 0.411 0.372
2015.807 0.346 0.35 0.406 0.431 0.393 0.38 0.377 0.379 0.448 0.5
2035.097 0.465 0.434 0.456 0.454 0.479 0.479 0.417 0.445 0.489 0.525
2054.387 0.542 0.512 0.545 0.529 0.478 0.471 0.484 0.468 0.418 0.456
2073.677 0.447 0.422 0.465 0.431 0.377 0.413 0.448 0.461 0.46 0.432
2092.967 0.43 0.427 0.403 0.4 0.42 0.383 0.38 0.406 0.38 0.389
2112.257 0.383 0.36 0.368 0.333 0.34 0.375 0.373 0.406 0.395 0.39
2131.547 0.417 0.429 0.478 0.481 0.463 0.446 0.443 0.48 0.444 0.416
2150.837 0.456 0.489 0.442 0.372 0.339 0.335 0.348 0.321 0.337 0.356
2170.127 0.31 0.292 0.301 0.291 0.304 0.323 0.313 0.287 0.26 0.289
2189.417 0.3 0.314 0.38 0.384 0.343 0.35 0.369 0.347 0.347 0.352
2208.707 0.346 0.326 0.356 0.409 0.404 0.37 0.384 0.418 0.399 0.341
2227.997 0.329 0.384 0.394 0.371 0.392 0.403 0.406 0.393 0.373 0.356
2247.287 0.318 0.361 0.372 0.353 0.388 0.301 0.234 0.27 0.289 0.293
2266.577 0.277 0.316 0.303 0.232 0.234 0.263 0.304 0.322 0.312 0.267
2285.868 0.274 0.328 0.308 0.327 0.296 0.24 0.265 0.3 0.31 0.258
2305.158 0.237 0.276 0.287 0.298 0.329 0.333 0.341 0.372 0.367 0.367
2324.448 0.395 0.453 0.509 0.489 0.463 0.52 0.57 0.561 0.523 0.523
2343.738 0.579 0.524 0.487 0.54 0.541 0.572 0.618 0.637 0.65 0.672
2363.028 0.682 0.605 0.58 0.623 0.598 0.569 0.541 0.553 0.578 0.551
2382.318 0.579 0.547 0.484 0.466 0.431 0.397 0.374 0.304 0.286 0.334
2401.608 0.343 0.347 0.365 0.376 0.307 0.308 0.343 0.336 0.373 0.387
2420.898 0.392 0.408 0.408 0.403 0.375 0.42 0.484 0.517 0.492 0.481
2440.188 0.567 0.58 0.598 0.613 0.563 0.58 0.608 0.607 0.588 0.556
2459.478 0.582 0.569 0.547 0.52 0.474 0.424 0.369 0.383 0.405 0.336
2478.768 0.301 0.346 0.359 0.351 0.377 0.417 0.42 0.414 0.395 0.389
2498.058 0.43 0.475 0.503 0.494 0.54 0.589 0.585 0.583 0.596 0.674
2517.348 0.7672 0.82182 0.80129 0.83855 0.9841 1.0656 1.0961 1.1169 1.1605 1.2283
2536.638 1.2339 1.1911 1.1689 1.1843 1.1892 1.1812 1.124 1.0535 1.0348 1.0195
2555.928 0.9393 0.84527 0.80208 0.7795 0.7484 0.674 0.602 0.535 0.555 0.571
2575.218 0.525 0.454 0.478 0.514 0.446 0.418 0.428 0.512 0.535 0.516
2594.508 0.523 0.581 0.605 0.56 0.568 0.578 0.556 0.594 0.668 0.692
2613.798 0.601 0.619 0.7405 0.692 0.702 0.7956 0.81873 0.81661 0.86212 0.87182
2633.088 0.88801 0.9386 0.9223 0.9704 1.0634 1.1484 1.1863 1.2223 1.38 1.4415
2652.378 1.3987 1.4447 1.5402 1.5879 1.581 1.575 1.5817 1.58 1.6287 1.6875
2671.668 1.6852 1.6042 1.5737 1.6579 1.826 1.886 1.876 1.996 2.136 2.176
2690.958 2.106 2.106 2.276 2.256 2.096 2.046 2.006 1.996 1.966 2.006
2710.248 2.056 2.036 2.176 2.336 2.426 2.606 2.776 2.916 3.056 3.206
2729.538 3.366 3.596 3.866 4.176 4.496 4.606 4.706 5.016 5.166 5.176
2748.828 5.236 5.196 5.056 4.886 4.686 4.386 4.076 3.766 3.546 3.396
2768.118 3.176 3.106 3.036 2.956 2.966 3.036 3.216 3.546 3.976 4.526
2787.408 5.166 5.906 6.796 7.746 8.686 9.456 10.116 10.506 10.586 10.736
2806.698 10.836 10.726 10.486 10.156 9.896 9.956 10.246 10.686 11.336 12.066
2825.988 12.676 13.136 13.446 13.506 13.236 12.766 12.176 11.426 10.496 9.346
2845.278 8.206 7.196 6.186 5.306 4.716 4.336 3.856 3.456 3.266 3.046
2864.568 2.836 2.716 2.586 2.446 2.356 2.196 2.146 2.116 2.006 1.946
2883.858 1.856 1.722 1.6406 1.6067 1.6056 1.5503 1.4795 1.4524 1.3721 1.2855
2903.148 1.2117 1.2097 1.2716 1.1769 1.0604 1.0545 1.0378 1.0097 0.88562 0.86272
2922.438 0.9141 0.86798 0.83893 0.7741 0.638 0.636 0.655 0.566 0.592 0.591
2941.728 0.471 0.504 0.616 0.528 0.494 0.512 0.471 0.509 0.598 0.598
2961.018 0.468 0.434 0.456 0.434 0.477 0.551 0.649 0.608 0.541 0.56
2980.308 0.541 0.523 0.536 0.567 0.497 0.375 0.319 0.398 0.488 0.403
2999.598 0.303 0.358 0.341 0.321 0.41 0.421 0.271 0.183 0.348 0.405
3018.888 0.317 0.303 0.308 0.283 0.31 0.334 0.415 0.421 0.324 0.407
3038.178 0.396 0.256 0.336 0.378 0.281 0.35 0.383 0.375 0.467 0.483
3057.468 0.307 0.324 0.448 0.438 0.467 0.497 0.528 0.524 0.564 0.591
3076.758 0.584 0.646 0.703 0.7345 0.7674 0.7771 0.7215 0.7468 0.88842 0.89214
3096.048 0.928 1.0008 0.90368 0.8599 0.923 1.0415 1.1598 1.1562 1.1736 1.1582
3115.338 1.2007 1.1554 0.9328 0.9916 1.1247 1.0102 0.84176 0.684 0.576 0.442
3134.628 0.319 0.378 0.414 0.503 0.493 0.316 0.301 0.308 0.254 0.213
3153.918 0.202 0.256 0.358 0.336 0.167 0.187 0.238 0.177 0.159 0.16
3173.208 0.161 0.073 0.027 0.091 0.022 0 0.174 0.174 0.113 0.124
3192.498 0.059 0.095 0.194 0.212 0.149 0.12 0.167 0.132 0.12 0.236
3211.788 0.218 0.082 0.128 0.174 0.147 0.193 0.064 0.017 0.164 0.126
3231.078 0.089 0.123 0.113 0.177 0.178 0.217 0.271 0.23 0.219 0.237
3250.368 0.226 0.274 0.317 0.206 0.197 0.313 0.245 0.126 0.28 0.336
3269.658 0.25 0.251 0.209 0.189 0.2 0.158 0.17 0.237 0.305 0.293
3288.948 0.206 0.144 0.124 0.163 0.278 0.27 0.162 0.167 0.172 0.209
3308.238 0.193 0.173 0.189 0.144 0.226 0.332 0.37 0.41 0.277 0.276
3327.528 0.329 0.219 0.226 0.302 0.372 0.303 0.271 0.365 0.407 0.453
3346.818 0.37 0.324 0.426 0.399 0.342 0.362 0.395 0.374 0.294 0.286
3366.108 0.419 0.469 0.488 0.6 0.7214 0.89981 1.0642 1.2481 1.3286 1.462
3385.398 1.7556 1.936 2.056 2.146 2.176 2.216 2.296 2.196 2.006 1.856
3404.688 1.5627 1.2495 1.0479 0.9723 0.815189 0.564 0.545 0.57 0.449 0.257
3423.978 0.128 0.144 0.244 0.336 0.285 0.223 0.235 0.217 0.149 0.15
3443.269 0.292 0.182 0.104 0.248 0.256 0.347 0.399 0.339 0.342 0.39
3462.559 0.343 0.214 0.327 0.419 0.416 0.526 0.461 0.348 0.374 0.342
3481.849 0.351 0.387 0.437 0.441 0.421 0.481 0.332 0.215 0.224 0.217
3501.139 0.26 0.294 0.204 0.239 0.383 0.375 0.418 0.435 0.385 0.389
3520.429 0.467 0.321 0.198 0.346 0.39 0.395 0.361 0.387 0.438 0.469
3539.719 0.481 0.384 0.308 0.423 0.466 0.357 0.384 0.362 0.296 0.354
3559.009 0.327 0.324 0.404 0.402 0.394 0.306 0.332 0.389 0.393 0.448
3578.299 0.45 0.427 0.368 0.314 0.247 0.279 0.412 0.398 0.327 0.286
3597.589 0.331 0.383 0.291 0.224 0.255 0.425 0.418 0.313 0.369 0.411
3616.879 0.416 0.432 0.384 0.268 0.318 0.551 0.549 0.339 0.369 0.54
3636.169 0.373 0.196 0.329 0.376 0.406 0.526 0.594 0.507 0.464 0.363
3655.459 0.309 0.453 0.471 0.302 0.352 0.396 0.205 0.19 0.219 0.371
3674.749 0.584 0.579 0.507 0.422 0.369 0.413 0.449 0.51 0.374 0.239
3694.039 0.293 0.26 0.264 0.407 0.366 0.267 0.368 0.429 0.385 0.364
3713.329 0.351 0.339 0.379 0.355 0.399 0.471 0.454 0.342 0.242 0.3
3732.619 0.357 0.362 0.328 0.358 0.441 0.534 0.608 0.528 0.434 0.458
3751.909 0.451 0.36 0.385 0.347 0.272 0.26 0.23 0.256 0.338 0.45
3771.199 0.354 0.329 0.413 0.371 0.441 0.577 0.47 0.247 0.266 0.358
3790.489 0.403 0.446 0.41 0.377 0.489 0.508 0.497 0.529 0.578 0.57
3809.779 0.434 0.405 0.59 0.555 0.299 0.279 0.351 0.415 0.44 0.456
3829.069 0.462 0.389 0.431 0.495 0.381 0.439 0.564 0.405 0.274 0.426
3848.359 0.7076 0.7688 0.627 0.604 0.465 0.417 0.421 0.376 0.476 0.51
3867.649 0.528 0.588 0.563 0.479 0.408 0.437 0.477 0.364 0.381 0.447
3886.939 0.399 0.415 0.381 0.32 0.414 0.44 0.408 0.303 0.208 0.282
3906.229 0.255 0.3 0.387 0.351 0.358 0.34 0.332 0.396 0.461 0.442
3925.519 0.316 0.41 0.393 0.299 0.364 0.336 0.359 0.396 0.292 0.214
3944.809 0.32 0.352 0.263 0.298 0.334 0.233 0.321 0.269 0.241 0.386
3964.099 0.382 0.457 0.404 0.303 0.277 0.246 0.385 0.394 0.382 0.511
3983.389 0.464 0.422 0.406 0.281 0.245 0.344 0.421 0.34 0.37 0.437
##END=
