##TITLE=o-Mercaptobenzyl alcohol
##JCAMP-DX=4.24
##DATA TYPE=INFRARED SPECTRUM
##ORIGIN=EPA-IR VAPOR PHASE LIBRARY
##OWNER=SRD/NIST
Collection (C) 2018 copyright by the U.S. Secretary of Commerce
on behalf of the United States of America. All rights reserved.
##CAS REGISTRY NO=4521-31-7
##MOLFORM=C 7 H 10 O S
##$NIST SOURCE=MSDC-IR
##STATE=gas
##XUNITS=1/CM
##YUNITS=ABSORBANCE
##XFACTOR=1.
##YFACTOR=0.001
##DELTAX=1.92898
##FIRSTX=549.8
##LASTX=4000.7
##FIRSTY=1.157
##MAXX=4000.7
##MINX=549.759
##MAXY=0.057827
##MINY=0
##NPOINTS=1790
##XYDATA=(X++(Y..Y))
549.759 1.157 1.367 1.437 1.247 1.287 1.517 1.397 1.257 1.477 1.547
569.049 1.287 1.347 1.617 1.697 1.887 2.197 2.457 2.727 3.217 3.607
588.339 4.007 4.447 4.857 5.257 5.717 6.407 6.937 6.907 6.787 6.437
607.628 5.917 5.567 5.087 4.507 3.817 3.247 2.757 2.287 2.117 2.027
626.918 1.857 1.717 1.757 1.897 1.737 1.647 1.627 1.707 1.627 1.267
646.208 1.367 1.487 1.507 1.527 1.507 1.727 2.047 2.057 2.117 2.387
665.498 2.477 2.737 3.157 3.427 3.617 3.687 3.787 3.907 3.997 4.187
684.787 4.127 3.967 3.947 3.747 3.517 3.397 3.397 3.317 3.137 3.337
704.077 3.517 3.727 4.087 4.517 5.347 6.057 6.707 7.807 9.047 10.697
723.367 13.137 15.957 18.757 21.767 25.437 28.967 31.987 34.927 38.057 42.607
742.657 49.197 55.697 57.827 52.077 41.957 34.897 31.267 28.217 24.947 21.257
761.947 17.437 13.597 10.387 8.057 6.127 4.677 3.947 3.377 2.887 2.687
781.236 2.557 2.467 2.367 2.417 2.537 2.607 2.707 2.757 2.837 2.857
800.526 2.977 3.087 3.077 3.357 3.397 3.137 3.177 3.397 3.347 3.267
819.816 3.317 3.287 3.127 2.897 2.707 2.687 2.487 2.227 2.247 2.297
839.106 2.227 2.247 2.337 2.147 2.127 2.367 2.307 2.207 2.287 2.357
858.395 2.337 2.287 2.277 2.247 2.257 2.237 2.197 2.397 2.557 2.357
877.685 2.237 2.307 2.297 2.357 2.547 2.507 2.567 2.697 2.747 2.837
896.975 2.997 3.187 3.207 3.367 3.647 3.827 3.867 4.037 4.397 4.697
916.265 4.897 5.217 5.687 6.107 6.467 6.827 7.067 7.427 7.887 8.027
935.555 8.227 8.607 8.817 8.887 8.797 8.787 8.917 8.877 8.757 8.787
954.844 8.757 8.837 8.997 9.167 9.277 9.357 9.437 9.527 9.727 9.957
974.134 10.387 10.767 11.117 11.617 12.137 13.067 14.387 15.647 16.907 18.367
993.424 20.317 22.297 24.097 26.157 28.377 30.507 32.627 34.957 36.927 38.317
1012.714 39.177 39.657 40.267 40.517 40.097 39.367 38.377 37.487 36.417 34.937
1032.003 33.537 32.107 30.707 29.187 27.517 25.947 24.097 22.247 20.857 19.657
1051.293 18.627 17.597 16.917 16.917 16.847 16.397 16.157 16.387 16.307 15.797
1070.583 15.757 15.527 14.527 13.417 12.167 11.027 10.127 9.287 8.087 6.507
1089.873 5.927 5.857 5.577 5.357 5.447 5.587 5.177 5.017 5.277 5.107
1109.163 4.707 4.797 5.297 5.627 5.627 5.737 6.417 6.757 6.547 6.557
1128.452 6.837 6.927 7.007 7.017 6.977 6.857 6.477 6.527 6.317 5.717
1147.742 5.817 6.067 5.817 5.957 6.247 6.697 7.147 7.357 7.697 7.977
1167.032 8.357 8.557 8.887 9.117 9.487 10.157 10.667 11.307 11.547 11.907
1186.322 12.287 12.647 13.287 13.297 13.347 13.647 13.637 13.527 12.937 12.697
1205.611 12.287 11.277 10.737 10.447 9.787 8.757 7.987 7.247 6.427 6.077
1224.901 5.807 5.547 5.407 5.377 5.257 5.207 5.417 5.267 5.427 5.567
1244.191 5.447 5.377 5.267 5.347 5.617 5.727 5.587 5.677 5.757 5.927
1263.481 6.207 6.367 6.307 6.477 6.807 6.817 6.997 7.037 6.847 6.877
1282.771 6.847 6.807 6.817 6.647 6.417 6.337 6.237 6.057 6.117 6.097
1302.060 5.847 5.757 5.727 5.647 5.657 5.657 5.637 5.677 5.707 5.697
1321.350 5.777 5.837 5.787 5.857 5.907 5.867 5.897 6.047 6.137 6.237
1340.640 6.407 6.487 6.557 6.697 6.857 7.107 7.517 7.867 8.257 8.717
1359.930 9.147 9.677 10.197 10.717 11.407 12.057 12.647 13.217 13.687 14.067
1379.219 14.417 14.657 14.727 14.627 14.417 14.077 13.507 12.907 12.287 11.617
1398.509 10.937 10.177 9.517 8.897 8.257 7.737 7.367 7.057 6.777 6.707
1417.799 6.777 6.877 7.007 7.317 7.807 8.527 9.487 10.547 11.667 12.737
1437.089 13.557 13.997 14.157 14.227 14.387 14.637 14.807 14.817 14.617 14.317
1456.378 14.177 14.037 14.087 14.367 14.677 15.007 15.227 15.267 14.997 14.407
1475.668 13.747 12.907 11.887 10.937 9.927 8.827 7.707 6.677 5.807 4.997
1494.958 4.347 3.787 3.257 2.827 2.517 2.267 2.067 1.827 1.547 1.387
1514.248 1.337 1.317 1.317 1.257 1.177 1.127 1.0768 1.046 1.0121 1.0345
1533.538 1.0881 1.0824 1.117 1.157 1.187 1.237 1.317 1.347 1.487 1.637
1552.827 1.787 1.967 2.177 2.487 2.657 2.917 3.337 3.597 3.777 4.057
1572.117 4.347 4.667 5.047 5.467 5.857 6.087 6.187 6.317 6.317 6.267
1591.407 6.257 6.027 5.677 5.397 5.047 4.547 3.907 3.337 2.897 2.547
1610.697 2.277 1.997 1.847 1.747 1.517 1.317 1.197 1.0927 1.0616 1.0012
1629.986 0.909 0.8543 0.8526 0.837 0.6935 0.6358 0.6765 0.7214 0.7323 0.7209
1649.276 0.7162 0.7628 0.7593 0.6763 0.7078 0.7771 0.8118 0.8067 0.7907 0.8648
1668.566 0.9501 1.0573 1.127 1.177 1.227 1.267 1.307 1.357 1.437 1.347
1687.856 1.277 1.237 1.197 1.247 1.247 1.187 1.287 1.297 1.267 1.357
1707.146 1.327 1.377 1.367 1.277 1.287 1.307 1.207 1.0677 0.9393 0.8195
1726.435 0.7616 0.7409 0.6945 0.7445 0.815 0.6788 0.5575 0.5856 0.5571 0.5145
1745.725 0.5684 0.6107 0.6678 0.6907 0.6072 0.5796 0.6179 0.6043 0.5359 0.4999
1765.015 0.5176 0.576 0.6543 0.6465 0.7702 0.8031 0.7349 0.7854 0.8406 0.9232
1784.305 1.0548 1.177 1.237 1.347 1.387 1.347 1.307 1.307 1.387 1.357
1803.594 1.267 1.267 1.197 1.1165 1.0802 1.0168 1.0329 1.1036 1.127 1.137
1822.884 1.117 1.127 1.137 1.187 1.237 1.187 1.177 1.167 1.0461 0.9298
1842.174 0.8916 0.8481 0.7735 0.7121 0.686 0.6664 0.6577 0.6754 0.6705 0.6414
1861.464 0.6319 0.666 0.7251 0.7927 0.8332 0.8037 0.7739 0.8017 0.8782 0.9614
1880.754 0.942 0.8615 0.8842 0.9746 1.0566 1.0424 1.1002 1.237 1.257 1.297
1900.043 1.437 1.537 1.607 1.667 1.717 1.727 1.707 1.637 1.557 1.507
1919.333 1.417 1.317 1.267 1.307 1.357 1.317 1.317 1.457 1.567 1.587
1938.623 1.637 1.677 1.627 1.517 1.497 1.507 1.437 1.347 1.137 1.048
1957.913 0.9977 0.8486 0.8082 0.7779 0.6677 0.6118 0.5668 0.4299 0.3817 0.5033
1977.202 0.6071 0.5711 0.5133 0.4543 0.4714 0.5102 0.5436 0.5584 0.5856 0.6217
1996.492 0.6263 0.6747 0.6455 0.5887 0.5785 0.5968 0.6151 0.6579 0.6951 0.7271
2015.782 0.7547 0.7216 0.6986 0.65 0.609 0.5991 0.5861 0.6177 0.6216 0.5902
2035.072 0.552 0.5182 0.4944 0.4885 0.4279 0.445 0.4941 0.4461 0.3923 0.4007
2054.362 0.3925 0.4312 0.4953 0.4154 0.3676 0.4055 0.3941 0.4166 0.4687 0.4328
2073.651 0.3997 0.3593 0.4058 0.422 0.3484 0.3575 0.3863 0.4155 0.4359 0.4288
2092.941 0.3829 0.3344 0.3949 0.4419 0.4165 0.3449 0.3456 0.3211 0.2864 0.3694
2112.231 0.3404 0.3154 0.3133 0.2696 0.3139 0.312 0.288 0.305 0.3401 0.3121
2131.521 0.2382 0.2509 0.2874 0.2422 0.21327 0.302 0.338 0.3106 0.2644 0.2604
2150.810 0.2987 0.2883 0.311 0.3224 0.3139 0.3334 0.3213 0.2567 0.2633 0.2748
2170.100 0.20555 0.2177 0.1998 0.1015 0.122998 0.27 0.308 0.2941 0.2614 0.2455
2189.390 0.3187 0.3045 0.2966 0.2625 0.2299 0.3193 0.358 0.3512 0.2897 0.2177
2208.680 0.3019 0.3692 0.3367 0.3515 0.3785 0.3617 0.3502 0.2878 0.2423 0.3301
2227.970 0.3479 0.2942 0.3458 0.4058 0.3698 0.3438 0.3758 0.3541 0.3425 0.3711
2247.259 0.4024 0.3921 0.3555 0.3796 0.3738 0.3778 0.3426 0.29 0.3304 0.3147
2266.549 0.3387 0.3861 0.3655 0.3881 0.3954 0.339 0.4036 0.4669 0.431 0.4877
2285.839 0.5159 0.5296 0.5493 0.4988 0.4899 0.5666 0.5244 0.4376 0.4922 0.5314
2305.129 0.5358 0.5812 0.648 0.6422 0.6445 0.6529 0.6375 0.6499 0.6618 0.6445
2324.418 0.6161 0.5688 0.5251 0.5143 0.5632 0.6557 0.6166 0.5127 0.4301 0.3853
2343.708 0.3905 0.4865 0.5466 0.5741 0.5637 0.4886 0.5598 0.5527 0.4863 0.4829
2362.998 0.4822 0.5107 0.489 0.5065 0.4863 0.4186 0.4382 0.4516 0.4115 0.3864
2382.288 0.3924 0.5008 0.5163 0.4012 0.4938 0.6135 0.5553 0.5546 0.5278 0.5103
2401.578 0.5889 0.5367 0.4604 0.3942 0.4433 0.5221 0.4881 0.4436 0.4591 0.5097
2420.867 0.5804 0.5971 0.5267 0.4827 0.4739 0.4893 0.4464 0.471 0.545 0.5636
2440.157 0.5265 0.4528 0.4488 0.5108 0.4729 0.4825 0.5725 0.5511 0.5245 0.5241
2459.447 0.5303 0.5317 0.5357 0.5151 0.5324 0.5495 0.6025 0.5862 0.4684 0.4406
2478.737 0.521 0.6114 0.5889 0.5598 0.5839 0.5955 0.6473 0.7484 0.7008 0.7079
2498.026 0.6317 0.6165 0.7234 0.6387 0.6561 0.6584 0.6271 0.6571 0.6374 0.6462
2517.316 0.6356 0.5881 0.6523 0.6775 0.5598 0.5305 0.6331 0.6373 0.5145 0.5291
2536.606 0.5893 0.6529 0.7055 0.6568 0.6738 0.705 0.7619 0.8297 0.8279 0.7682
2555.896 0.7691 0.893 0.9927 0.991 0.9744 1.0965 1.197 1.267 1.607 1.847
2575.186 2.097 2.397 2.517 2.697 2.687 2.667 2.747 2.627 2.557 2.467
2594.475 2.297 2.187 1.957 1.677 1.487 1.257 1.1141 1.0127 0.9442 0.9558
2613.765 0.9216 0.8563 0.7442 0.7595 0.9229 0.8672 0.7925 0.7694 0.7605 0.8785
2633.055 0.8946 0.8314 0.7936 0.85 0.9119 0.854 0.7725 0.8154 0.8685 0.8515
2652.345 0.8804 0.8357 0.7396 0.7025 0.8508 0.947 0.8468 0.8392 0.8282 0.885
2671.634 0.8346 0.8077 0.9178 0.8893 0.8421 0.787 0.8561 0.8977 0.8344 0.886
2690.924 0.8381 0.6935 0.7058 0.7993 0.8567 0.8231 0.7638 0.8288 0.8815 0.8292
2710.214 0.8247 0.8772 0.8273 0.7482 0.8149 0.8247 0.8785 1.0294 1.0406 0.9989
2729.504 0.948 0.9224 0.9362 0.9553 1.0048 0.9853 1.0018 1.1101 1.167 1.0854
2748.794 1.0104 1.0855 1.1078 1.0932 1.0681 0.977 0.98 1.147 1.197 1.157
2768.083 1.207 1.127 1.083 1.137 1.177 1.257 1.277 1.367 1.357 1.307
2787.373 1.347 1.317 1.357 1.407 1.397 1.397 1.457 1.527 1.537 1.587
2806.663 1.607 1.577 1.637 1.767 1.807 1.797 1.987 2.207 2.257 2.307
2825.953 2.437 2.457 2.537 2.687 2.757 2.887 3.057 3.207 3.337 3.557
2845.242 3.817 4.047 4.307 4.567 4.787 5.047 5.327 5.647 6.097 6.517
2864.532 6.847 7.307 7.967 8.437 8.817 9.337 9.977 10.587 11.097 11.397
2883.822 11.587 11.837 12.037 12.077 11.947 11.697 11.457 11.097 10.557 10.157
2903.112 9.797 9.587 9.397 9.057 8.817 8.697 8.617 8.647 8.757 8.807
2922.401 8.827 9.037 9.257 9.437 9.717 9.927 9.987 10.147 10.227 10.267
2941.691 10.407 10.377 10.267 10.107 9.937 9.807 9.707 9.507 9.127 8.797
2960.981 8.437 8.037 7.727 7.337 6.747 6.227 5.947 5.527 5.167 4.887
2980.271 4.597 4.237 3.767 3.587 3.477 3.357 3.267 3.197 3.347 3.487
2999.561 3.647 3.847 4.077 4.477 5.057 5.497 5.857 6.337 6.647 6.827
3018.850 6.917 6.827 6.767 6.657 6.357 6.017 5.747 5.307 4.807 4.417
3038.140 4.207 4.197 4.247 4.417 4.687 5.167 5.867 6.887 8.167 9.707
3057.430 11.657 13.737 15.727 17.797 19.747 20.987 21.647 21.977 22.047 21.627
3076.720 20.607 19.097 17.177 15.077 12.707 10.467 8.597 6.977 5.717 4.837
3096.009 4.127 3.477 2.897 2.577 2.307 1.847 1.607 1.477 1.307 1.237
3115.299 1.177 1.0697 1.207 1.217 1.0578 1.06 1.0549 1.127 1.277 1.277
3134.589 1.307 1.527 1.517 1.377 1.377 1.307 1.217 1.157 1.0473 0.8889
3153.879 0.7857 0.7826 0.6994 0.5616 0.5724 0.5602 0.4412 0.3366 0.2461 0.2386
3173.169 0.2553 0.278 0.3815 0.3872 0.3679 0.4238 0.5447 0.5523 0.4244 0.3948
3192.458 0.2895 0.18518 0.2282 0.2823 0.3985 0.4304 0.3438 0.2385 0.20511 0.19776
3211.748 0.17694 0.2598 0.299 0.3194 0.3201 0.2679 0.3492 0.21589 0.261 0.4895
3231.038 0.3584 0.3155 0.2732 0.2669 0.3719 0.3634 0.2885 0.2785 0.2291 0.232
3250.328 0.2214 0.15829 0.191 0.18065 0.2971 0.4479 0.3837 0.2312 0.21271 0.2977
3269.617 0.3069 0.2772 0.3471 0.3689 0.2983 0.16946 0.18771 0.3605 0.2932 0.1367
3288.907 0.19763 0.2937 0.4195 0.5206 0.4638 0.4826 0.4555 0.3961 0.4867 0.4721
3308.197 0.3714 0.5607 0.6251 0.4821 0.435 0.3952 0.3631 0.4471 0.4107 0.3528
3327.487 0.4497 0.3905 0.3575 0.3885 0.3331 0.3535 0.4658 0.4243 0.3432 0.3063
3346.777 0.3046 0.4256 0.4206 0.301 0.319 0.2897 0.365 0.5778 0.5191 0.4458
3366.066 0.4256 0.4219 0.4889 0.5751 0.4831 0.2772 0.2878 0.2615 0.2383 0.399
3385.356 0.4498 0.333 0.429 0.554 0.3968 0.3946 0.3936 0.3075 0.4895 0.6114
3404.646 0.6451 0.6233 0.533 0.4865 0.3352 0.4066 0.4891 0.3654 0.407 0.4477
3423.936 0.5665 0.5958 0.5151 0.6503 0.5563 0.5117 0.64 0.4969 0.5621 0.7674
3443.225 0.7471 0.6141 0.5423 0.5495 0.4991 0.5708 0.7144 0.6415 0.6003 0.5607
3462.515 0.6002 0.6076 0.639 0.6435 0.6462 0.7373 0.768 0.9025 0.7919 0.8138
3481.805 1.0466 0.8798 0.8346 0.9711 0.7993 0.7811 1.0376 1.053 0.8827 0.8402
3501.095 0.8755 1.0038 1.0058 0.8395 0.9382 1.0815 0.9268 0.9087 1.0898 1.117
3520.385 0.9962 0.9349 1.0322 0.9198 0.7898 0.8492 0.7242 0.8137 0.8724 0.7271
3539.674 0.7485 0.706 0.8333 0.9971 0.8822 0.7099 0.761 0.9676 1.207 1.287
3558.964 1.327 1.257 1.0941 1.0512 1.0517 1.287 1.327 1.297 1.297 1.187
3578.254 1.327 1.457 1.487 1.737 1.757 1.617 1.727 1.897 2.097 2.007
3597.544 1.987 2.267 2.277 2.407 2.597 2.547 2.547 2.857 3.117 3.107
3616.833 3.077 3.327 3.597 3.647 3.957 4.377 4.737 5.047 5.407 5.847
3636.123 6.337 6.947 7.437 7.947 8.527 8.837 8.877 8.867 8.747 8.637
3655.413 8.517 8.197 7.937 7.747 7.487 7.217 6.817 6.397 6.177 5.947
3674.703 5.847 5.557 4.977 4.477 4.227 4.067 3.767 3.527 3.257 2.907
3693.993 2.607 2.307 2.197 2.097 2.007 1.787 1.567 1.567 1.617 1.477
3713.282 1.357 1.307 1.157 1.157 1.0602 1.0793 1.177 1.0563 0.9603 1.0541
3732.572 0.9642 0.9813 1.257 1.137 0.9931 1.0976 1.0931 0.9697 0.9351 0.8554
3751.862 0.7083 0.8548 0.9694 0.7811 0.6932 0.6849 0.7276 0.8284 0.7913 0.7897
3771.152 0.7257 0.6138 0.6366 0.6657 0.7035 0.7393 0.664 0.4997 0.551 0.5719
3790.441 0.5013 0.383 0.4338 0.7584 0.7365 0.5607 0.5329 0.6308 0.844 0.8488
3809.731 0.8572 0.8844 0.8407 0.8516 0.8461 0.8042 0.6776 0.6546 0.6478 0.5167
3829.021 0.4781 0.552 0.7378 0.8461 0.6819 0.7112 0.7997 0.7334 0.7105 0.5559
3848.311 0.6606 0.8295 0.7113 0.6751 0.7904 0.8972 0.8464 0.7357 0.6985 0.848
3867.601 0.9065 0.8382 0.7935 0.698 0.7274 0.8021 0.7175 0.7847 0.8989 0.8462
3886.890 0.8804 0.98 1.026 0.8307 0.7048 0.6299 0.7121 0.9004 0.6971 0.5963
3906.180 0.6717 0.6373 0.5594 0.5011 0.5422 0.5486 0.4375 0.2679 0.3259 0.5986
3925.470 0.6663 0.6319 0.6421 0.5884 0.5784 0.6268 0.6401 0.6119 0.5383 0.5025
3944.760 0.5278 0.5049 0.4351 0.4441 0.4598 0.4425 0.3544 0.4221 0.5441 0.62
3964.049 0.6665 0.6571 0.7025 0.6278 0.5842 0.5725 0.4868 0.4941 0.4422 0.2973
3983.339 0.19184 0.0492 0 0.20699 0.4065 0.4054 0.4161 0.4439 0.4031 0.4954
##END=
