##TITLE=1,16-Dibromohexadecane
##JCAMP-DX=4.24
##DATA TYPE=INFRARED SPECTRUM
##ORIGIN=EPA-IR VAPOR PHASE LIBRARY
##OWNER=SRD/NIST
Collection (C) 2018 copyright by the U.S. Secretary of Commerce
on behalf of the United States of America. All rights reserved.
##CAS REGISTRY NO=45223-18-5
##MOLFORM=C 16 H 32 Br 2
##$NIST SOURCE=MSDC-IR
##STATE=gas
##XUNITS=1/CM
##YUNITS=ABSORBANCE
##XFACTOR=1.
##YFACTOR=0.001
##DELTAX=3.85796
##FIRSTX=501.5
##LASTX=4000.7
##FIRSTY=0.473
##MAXX=4000.7
##MINX=501.534
##MAXY=0.241427
##MINY=0
##NPOINTS=908
##XYDATA=(X++(Y..Y))
501.534 0.473 0.34491 0.4051 0.36237 0.39419 0.5559 0.7296 0.7549 0.8537 1.0281
540.114 1.209 1.647 2.147 2.607 3.517 4.787 6.077 7.117 7.327 6.427
578.693 4.917 3.527 2.567 1.917 1.477 1.2849 1.2478 1.2717 1.337 1.507
617.273 1.747 2.007 2.407 3.077 4.027 5.187 6.507 8.007 9.137 9.087
655.852 7.717 5.747 4.077 2.967 2.347 1.987 1.757 1.687 1.777 1.927
694.432 2.167 2.567 3.047 3.687 4.457 5.137 5.647 5.857 5.847 5.717
733.011 5.477 5.187 4.907 4.627 4.337 4.097 3.797 3.507 3.327 3.057
771.591 2.817 2.677 2.557 2.437 2.387 2.357 2.347 2.377 2.327 2.247
810.170 2.177 2.117 2.057 2.007 1.957 1.907 1.857 1.827 1.807 1.807
848.750 1.777 1.767 1.807 1.827 1.867 1.907 1.927 1.907 1.857 1.877
887.330 1.847 1.827 1.807 1.787 1.797 1.757 1.697 1.697 1.707 1.667
925.909 1.667 1.647 1.577 1.537 1.547 1.557 1.567 1.597 1.647 1.657
964.489 1.617 1.617 1.627 1.567 1.527 1.537 1.507 1.477 1.457 1.477
1003.068 1.487 1.517 1.537 1.567 1.617 1.687 1.757 1.707 1.677 1.707
1041.648 1.727 1.707 1.647 1.577 1.557 1.487 1.437 1.387 1.307 1.2565
1080.227 1.2033 1.1792 1.1407 1.1271 1.12 1.0567 1.0698 1.053 0.9675 0.9546
1118.807 0.9021 0.9028 0.9662 1.0211 1.089 1.1905 1.1683 1.0963 1.1371 1.234
1157.387 1.2892 1.307 1.377 1.477 1.617 1.757 1.957 2.237 2.577 3.087
1195.966 3.827 4.797 5.937 7.147 8.387 9.567 10.637 11.467 11.967 12.337
1234.546 12.877 13.607 14.507 15.467 16.367 16.987 17.167 16.797 16.057 15.177
1273.125 14.267 13.387 12.497 11.677 11.077 10.627 10.137 9.637 9.067 8.357
1311.705 7.577 6.817 6.137 5.607 5.337 5.397 5.757 6.377 7.197 8.087
1350.284 8.857 9.027 8.437 7.587 6.797 5.917 4.847 3.807 3.027 2.477
1388.864 2.147 1.957 1.907 1.987 2.127 2.327 2.637 3.037 3.657 4.597
1427.443 5.947 7.867 10.257 13.047 15.567 16.967 17.817 18.907 19.907 19.567
1466.023 17.307 13.787 9.977 7.007 5.077 3.827 3.007 2.457 2.057 1.767
1504.603 1.517 1.2753 1.212 1.1218 0.9898 0.9281 0.9065 0.8568 0.7771 0.6833
1543.182 0.6304 0.6166 0.5808 0.521 0.4642 0.4995 0.5172 0.4864 0.4773 0.4514
1581.762 0.4284 0.4196 0.4171 0.39185 0.37078 0.34563 0.33407 0.35414 0.32394 0.2679
1620.341 0.2566 0.2547 0.2793 0.29003 0.2395 0.2248 0.2102 0.173 0.11 0.122
1658.921 0.184 0.17 0.15 0.146 0.134 0.112 0.05 0.055 0.101 0.067
1697.500 0.007 0.009 0.061 0.082 0.049 0 0.031 0.088 0.092 0.039
1736.080 0.053 0.096 0.115 0.093 0.065 0.084 0.083 0.103 0.099 0.071
1774.659 0.077 0.103 0.113 0.116 0.109 0.124 0.152 0.14 0.15 0.159
1813.239 0.162 0.16 0.153 0.143 0.137 0.134 0.137 0.146 0.132 0.156
1851.819 0.188 0.187 0.181 0.169 0.156 0.157 0.183 0.194 0.195 0.2035
1890.398 0.191 0.194 0.2071 0.2103 0.215 0.2202 0.2249 0.2143 0.2355 0.2646
1928.978 0.2677 0.2616 0.2592 0.243 0.2515 0.2848 0.2854 0.2678 0.2764 0.30133
1967.557 0.32146 0.33673 0.34543 0.35073 0.34609 0.33834 0.33078 0.34626 0.37868 0.4077
2006.137 0.428 0.4567 0.5018 0.5227 0.5474 0.5691 0.577 0.6002 0.6042 0.5892
2044.716 0.5901 0.5955 0.573 0.5304 0.5155 0.5183 0.5098 0.4991 0.4909 0.4766
2083.296 0.4773 0.4817 0.4618 0.4483 0.4493 0.464 0.4581 0.4312 0.4319 0.4367
2121.875 0.4298 0.4364 0.4521 0.4596 0.4834 0.5028 0.4799 0.4741 0.5157 0.5197
2160.455 0.5252 0.5411 0.5292 0.5389 0.5293 0.5191 0.5304 0.5207 0.5151 0.5058
2199.035 0.5181 0.5358 0.5269 0.5365 0.5422 0.5378 0.526 0.5249 0.5335 0.5408
2237.614 0.5562 0.5522 0.5547 0.5529 0.5533 0.569 0.5637 0.5436 0.5369 0.5426
2276.194 0.5303 0.5298 0.5288 0.5177 0.5138 0.5211 0.5268 0.5263 0.5293 0.5278
2314.773 0.5122 0.5113 0.5158 0.5093 0.5088 0.5123 0.5179 0.5194 0.5242 0.5337
2353.353 0.5238 0.5056 0.4939 0.4839 0.4835 0.4816 0.5069 0.5456 0.5707 0.577
2391.932 0.5798 0.5833 0.5733 0.5824 0.5771 0.5518 0.5446 0.5403 0.5259 0.5385
2430.512 0.57 0.5648 0.5723 0.5822 0.5699 0.5592 0.5703 0.5938 0.5679 0.5663
2469.092 0.5884 0.5882 0.5857 0.6041 0.6101 0.6045 0.6395 0.6594 0.6571 0.652
2507.671 0.6799 0.7166 0.7319 0.757 0.7891 0.8054 0.8072 0.834 0.8707 0.8659
2546.251 0.8478 0.8441 0.8417 0.8723 0.8947 0.8956 0.9104 0.938 0.9788 1.022
2584.830 1.0576 1.1178 1.1674 1.1821 1.2086 1.2497 1.327 1.397 1.427 1.487
2623.410 1.557 1.637 1.667 1.707 1.787 1.847 1.917 1.997 2.077 2.157
2661.989 2.247 2.327 2.417 2.507 2.597 2.677 2.717 2.737 2.697 2.617
2700.569 2.507 2.417 2.347 2.307 2.277 2.237 2.247 2.297 2.297 2.297
2739.148 2.357 2.427 2.487 2.547 2.617 2.717 2.817 2.947 3.117 3.307
2777.728 3.497 3.717 4.027 4.417 4.827 5.237 5.697 6.247 6.837 7.517
2816.308 8.347 9.337 10.487 11.877 13.647 16.077 19.607 24.787 32.407 43.987
2854.887 61.087 80.887 92.897 89.547 75.947 61.247 50.147 43.347 40.197 40.067
2893.467 42.487 47.047 53.557 62.167 73.167 87.107 105.817 132.817 170.557 212.917
2932.046 241.427 240.317 213.047 173.637 133.807 100.077 74.877 58.107 48.367 43.347
2970.626 39.287 33.717 27.627 22.357 18.267 15.357 13.427 12.327 11.927 12.327
3009.205 13.417 13.987 12.637 9.987 7.617 6.117 5.157 4.457 3.887 3.407
3047.785 3.047 2.757 2.507 2.307 2.137 1.967 1.847 1.727 1.617 1.537
3086.364 1.417 1.307 1.2452 1.2381 1.1822 1.1031 1.0525 1.0463 1.0411 1.0117
3124.944 0.9918 0.9617 0.9077 0.8874 0.8679 0.8317 0.8259 0.8488 0.8179 0.7654
3163.524 0.759 0.7586 0.7495 0.7481 0.7169 0.6979 0.6993 0.6407 0.5809 0.5544
3202.103 0.5581 0.5606 0.5172 0.475 0.4615 0.4539 0.4409 0.4464 0.4856 0.4859
3240.683 0.439 0.37592 0.32919 0.30738 0.300943 0.306452 0.31028 0.300917 0.300491 0.28984
3279.262 0.2771 0.2773 0.2905 0.31571 0.2829 0.2465 0.2227 0.1976 0.2019 0.2439
3317.842 0.2372 0.2239 0.2542 0.2456 0.2226 0.2078 0.2167 0.2415 0.2269 0.2132
3356.421 0.2139 0.2152 0.2196 0.196 0.226 0.24 0.204 0.2176 0.2406 0.2477
3395.001 0.2244 0.2051 0.2006 0.192 0.2155 0.2479 0.2536 0.2448 0.216 0.168
3433.580 0.174 0.171 0.105 0.09 0.093 0.08 0.111 0.132 0.131 0.137
3472.160 0.135 0.103 0.081 0.054 0.051 0.101 0.123 0.14 0.122 0.086
3510.740 0.065 0.091 0.103 0.025 0.013 0.082 0.102 0.092 0.066 0.048
3549.319 0.079 0.12 0.101 0.102 0.072 0.058 0.116 0.13 0.168 0.127
3587.899 0.081 0.112 0.155 0.2611 0.29148 0.2708 0.33256 0.2879 0.2269 0.33066
3626.478 0.31614 0.2936 0.35877 0.37604 0.4057 0.37034 0.30974 0.30764 0.31663 0.31206
3665.058 0.305875 0.2799 0.2293 0.2732 0.33704 0.31464 0.2733 0.2849 0.31073 0.2861
3703.637 0.305273 0.2848 0.2226 0.2586 0.303775 0.2852 0.2848 0.296416 0.2552 0.2325
3742.217 0.181 0.2026 0.2589 0.2529 0.31215 0.35357 0.35454 0.34933 0.35795 0.4144
3780.797 0.4365 0.424 0.39177 0.4017 0.4214 0.4041 0.36499 0.296151 0.32245 0.31427
3819.376 0.299736 0.34064 0.36614 0.39158 0.35763 0.31073 0.32535 0.33466 0.3236 0.31156
3857.956 0.33837 0.37441 0.38661 0.33581 0.34081 0.4064 0.4119 0.4187 0.4167 0.4151
3896.535 0.39071 0.3597 0.37579 0.38514 0.3999 0.35942 0.37605 0.4348 0.37508 0.4058
3935.115 0.4902 0.4605 0.4482 0.4354 0.4299 0.4508 0.4335 0.4351 0.4645 0.4894
3973.694 0.4808 0.4895 0.5523 0.5471 0.5087 0.5865 0.591 0.547
##END=
