##TITLE=4-Fluoro-3-nitrobenzoic acid
##JCAMP-DX=4.24
##DATA TYPE=INFRARED SPECTRUM
##ORIGIN=EPA-IR VAPOR PHASE LIBRARY
##OWNER=SRD/NIST
Collection (C) 2018 copyright by the U.S. Secretary of Commerce
on behalf of the United States of America. All rights reserved.
##CAS REGISTRY NO=453-71-4
##MOLFORM=C 7 H 4 F N O 4
##$NIST SOURCE=MSDC-IR
##STATE=gas
##XUNITS=1/CM
##YUNITS=ABSORBANCE
##XFACTOR=1.
##YFACTOR=0.001
##DELTAX=1.92898
##FIRSTX=549.8
##LASTX=4000.7
##FIRSTY=6.28
##MAXX=4000.7
##MINX=549.759
##MAXY=0.09395
##MINY=0
##NPOINTS=1790
##XYDATA=(X++(Y..Y))
549.759 6.28 6.8 7.48 7.98 8.02 8.1 7.9 7.63 7.65 7.5
569.049 7.17 6.79 6.91 6.93 6.95 7.12 7.2 7.54 8.26 9.15
588.339 9.88 10.96 12.42 14.01 15.43 16.5 17.73 18.57 18.67 18.3
607.628 17.34 16.21 14.78 13.1 11.31 9.62 7.96 6.49 5.52 4.61
626.918 3.8 3.35 3.01 2.72 2.61 2.53 2.56 2.52 2.34 2.27
646.208 2.32 2.4 2.44 2.46 2.55 2.93 3.66 4.54 5.64 7.34
665.498 9.33 11.11 12.6 14 14.85 14.92 14.55 13.57 11.87 10.14
684.787 8.68 7.14 5.82 4.97 4.28 3.65 2.86 2.28 2.18 1.98
704.077 1.86 1.73 1.61 1.59 1.58 1.6 1.59 1.5 1.28 1.3
723.367 1.29 1.26 1.41 1.61 1.75 1.94 2.12 2.43 2.95 3.31
742.657 3.84 4.6 5.74 7.06 8.45 9.84 11.21 12.84 14.52 16.07
761.947 17.08 17.02 16 14.66 13.46 12.07 10.24 8.48 7.2 6.11
781.236 5.12 4.53 4.01 3.52 3.45 3.22 2.87 2.78 3.01 3.14
800.526 3.13 3.43 3.81 4.32 5.15 6.03 6.68 6.95 6.72 6.59
819.816 7.01 7.1 6.47 5.68 5.18 5.03 5.19 5.47 5.68 6.1
839.106 6.62 6.79 6.35 5.69 4.88 3.98 3.47 2.98 2.27 1.56
858.395 1.25 1.29 1.1381 0.8787 0.7898 0.9115 0.9332 0.8869 0.8534 0.754
877.685 0.7676 0.8444 1.0179 1.1605 1.18 1.31 1.55 1.69 1.73 2.12
896.975 2.84 3.3 3.61 4.07 4.59 5.14 5.32 5.26 5.37 5.19
916.265 4.85 4.64 4.34 3.8 3.31 3.07 2.7 2.29 2 1.72
935.555 1.52 1.33 1.28 1.119 0.8653 0.8164 0.8081 0.9618 1.0809 1.0693
954.844 0.9947 0.9672 1.0671 0.9198 0.6865 0.7211 0.842 0.83 0.786 0.7978
974.134 0.8645 0.7775 0.8659 1.037 0.8365 0.7882 0.8915 0.8739 1.0428 1.0272
993.424 0.8038 0.9697 1.0383 0.9084 0.8889 0.7761 0.7805 1.059 1.28 1.1596
1012.714 1.1284 1.35 1.32 1.39 1.58 1.49 1.38 1.58 1.56 1.59
1032.003 1.74 1.74 1.87 2.04 1.98 2.05 2.32 2.65 2.82 2.89
1051.293 3.1 3.44 3.85 4.03 4.34 4.75 5.62 6.68 7.27 7.78
1070.583 8.73 9.62 10.68 12.18 14.12 16.28 18.22 20.8 24.11 27.49
1089.873 30.87 33.74 35.7 37.47 38.83 39.69 40.31 40.11 38.93 37.62
1109.163 35.49 32.81 30.26 27.13 24 20.87 18.06 15.91 13.99 13.42
1128.452 13.64 14.33 14.98 14.67 14.22 13.66 13.02 12.27 11.38 10.06
1147.742 8.77 7.6 6.7 6.55 6.84 6.77 6.93 7.76 8.61 9.53
1167.032 10.71 12.02 13.42 15.42 18.31 21.4 23.82 25.9 27.7 28.65
1186.322 29.14 28.85 27.26 25.14 22.79 19.71 16.82 14.99 13.21 11.64
1205.611 10.24 8.96 7.85 7.09 6.97 6.48 5.93 5.63 5.47 5.38
1224.901 5.16 5.5 5.75 5.84 5.91 6.12 6.86 7.22 7.35 8.34
1244.191 9.48 10.04 10.42 11.07 12.08 13.13 14.09 15.26 16.78 18.75
1263.481 20.73 22.43 23.58 24.09 24.15 23.46 22.03 19.98 17.59 15.05
1282.771 12.89 11.46 10.63 10.33 10.37 10.43 10.59 10.9 11.1 11.35
1302.060 11.68 11.99 12.39 12.91 13.47 14.04 14.71 15.48 16.37 17.37
1321.350 18.37 19.45 20.68 21.99 23.49 25.26 27.21 29.41 31.9 34.54
1340.640 37.18 39.6 41.5 42.59 42.83 42.36 41.14 39.12 36.6 33.84
1359.930 31.08 28.6 26.5 24.81 23.31 21.81 20.38 18.91 17.27 15.55
1379.219 13.76 12.01 10.36 8.88 7.62 6.63 5.98 5.47 5.19 5.1
1398.509 5.07 5.09 5.14 5.29 5.47 5.62 5.76 5.81 5.73 5.55
1417.799 5.29 4.96 4.55 4.11 3.62 3.16 2.86 2.56 2.34 2.21
1437.089 2.08 2.03 2.07 2.04 1.98 1.98 1.94 1.94 1.96 1.89
1456.378 1.85 1.9 1.94 2.01 2.05 2.04 2.12 2.35 2.49 2.62
1475.668 2.8 3.01 3.28 3.64 4.01 4.48 5.08 5.72 6.52 7.4
1494.958 8.29 9.09 9.65 9.91 10.02 9.95 9.6 9.21 8.8 8.47
1514.248 8.46 8.62 8.92 9.49 10.25 11.02 11.79 12.66 13.56 14.5
1533.538 15.53 16.6 17.72 18.98 20.45 22.38 24.87 27.94 31.53 35.26
1552.827 38.4 40.55 41.3 40.84 39.38 37.16 33.89 29.68 25.66 22.43
1572.117 20.2 18.91 18.11 17.64 17.28 16.92 16.5 16.01 15.61 15.35
1591.407 15.27 15.45 15.94 16.76 17.87 19.27 20.91 22.66 24.34 26.02
1610.697 27.48 28.61 29.22 29.14 28.49 27.29 25.48 23.31 21.02 18.66
1629.986 16.44 14.31 12.48 10.85 9.36 8.13 6.93 5.94 5.17 4.46
1649.276 3.92 3.56 3.13 2.75 2.53 2.37 2.23 2.08 2.03 2.06
1668.566 2.01 2.04 2.03 1.86 1.87 1.9 1.86 1.88 1.77 1.66
1687.856 1.62 1.59 1.63 1.67 1.69 1.73 1.82 1.97 2.29 2.66
1707.146 3.03 3.38 3.68 4.13 4.72 5.18 5.38 5.37 5.18 5.03
1726.435 4.99 4.89 4.8 4.71 4.6 4.66 4.91 5.41 6.16 7.18
1745.725 8.68 10.82 13.78 18.1 24.2 32.55 43.82 57.32 71.51 83.65
1765.015 91.04 93.95 93.94 91.53 84.95 72.33 55.45 39.58 27.86 19.97
1784.305 14.64 10.98 8.61 6.94 5.78 4.99 4.46 4.16 3.94 3.81
1803.594 3.88 3.98 4.19 4.46 4.69 4.95 5.12 5.24 5.34 5.18
1822.884 4.75 4.2 3.7 3.24 2.86 2.56 2.26 1.96 1.68 1.52
1842.174 1.42 1.31 1.21 1.1108 1.1019 1.0904 1.0203 0.9598 0.8827 0.8169
1861.464 0.7896 0.7274 0.7253 0.7673 0.751 0.7618 0.7746 0.781 0.7059 0.6239
1880.754 0.6646 0.6717 0.6185 0.6539 0.7266 0.779 0.8082 0.7484 0.7288 0.8431
1900.043 0.9034 0.9192 0.9659 0.9533 0.959 1.0038 1.0004 0.9921 1.0193 1.0694
1919.333 1.0325 1.0177 1.0349 1.0204 1.0739 1.0974 1.0341 1.0212 1.0119 0.9317
1938.623 0.905 0.8665 0.7781 0.7563 0.7787 0.7658 0.7525 0.7043 0.6114 0.5974
1957.913 0.65 0.5894 0.5598 0.5938 0.6234 0.5581 0.5193 0.5973 0.5689 0.4971
1977.202 0.5022 0.5717 0.6064 0.5944 0.5932 0.5978 0.52 0.4967 0.5561 0.607
1996.492 0.6206 0.5831 0.5725 0.572 0.537 0.4934 0.5067 0.4555 0.3661 0.3562
2015.782 0.3464 0.358 0.3555 0.375 0.4442 0.4445 0.3598 0.3601 0.397 0.301
2035.072 0.22049 0.2834 0.273 0.2781 0.382 0.3488 0.3338 0.3093 0.3014 0.3091
2054.362 0.2854 0.3085 0.3572 0.4065 0.4114 0.3856 0.3645 0.4211 0.4394 0.3859
2073.651 0.3532 0.4206 0.4939 0.5076 0.5325 0.5561 0.6102 0.6247 0.6436 0.6704
2092.941 0.6161 0.5901 0.6023 0.5495 0.5137 0.4479 0.3356 0.4365 0.4525 0.3285
2112.231 0.347 0.3877 0.3885 0.3912 0.3577 0.3414 0.3487 0.33 0.2955 0.26971
2131.521 0.2944 0.3019 0.3132 0.3217 0.3057 0.3232 0.3938 0.4252 0.3708 0.4272
2150.810 0.4483 0.411 0.4575 0.4534 0.4206 0.4351 0.4826 0.4711 0.4985 0.4983
2170.100 0.4454 0.487 0.4431 0.393 0.406 0.4215 0.4103 0.3584 0.3535 0.3306
2189.390 0.3123 0.3321 0.3524 0.4029 0.3446 0.26932 0.3097 0.3193 0.3536 0.4109
2208.680 0.4227 0.4023 0.3808 0.3383 0.3461 0.4753 0.4805 0.4106 0.4332 0.416
2227.970 0.3897 0.3881 0.3928 0.413 0.4602 0.3999 0.334 0.3792 0.4165 0.3918
2247.259 0.3774 0.3268 0.3303 0.3639 0.3329 0.3375 0.3516 0.3761 0.3355 0.3407
2266.549 0.3533 0.3182 0.302 0.3176 0.4221 0.4604 0.4152 0.4192 0.4594 0.4151
2285.839 0.3751 0.4083 0.3318 0.24702 0.3197 0.369 0.3127 0.25276 0.24507 0.3119
2305.129 0.3465 0.3556 0.3419 0.3733 0.4393 0.3887 0.3004 0.3344 0.343 0.3503
2324.418 0.4362 0.4284 0.4762 0.5302 0.4858 0.4154 0.3452 0.3213 0.3383 0.3824
2343.708 0.4731 0.4595 0.4205 0.4272 0.387 0.4155 0.4434 0.4167 0.3904 0.3929
2362.998 0.4131 0.4271 0.4778 0.4519 0.5458 0.6352 0.4921 0.4022 0.4774 0.4956
2382.288 0.3815 0.3458 0.3595 0.3607 0.3715 0.3698 0.3486 0.3885 0.4123 0.3549
2401.578 0.3916 0.4294 0.3961 0.4436 0.4753 0.4757 0.4925 0.5076 0.433 0.406
2420.867 0.4806 0.5598 0.54 0.484 0.4688 0.4361 0.4185 0.4386 0.5463 0.5908
2440.157 0.5411 0.4447 0.4165 0.4625 0.4849 0.5262 0.5394 0.511 0.4832 0.5018
2459.447 0.5731 0.5439 0.4401 0.4247 0.4775 0.5554 0.5148 0.4028 0.4497 0.4639
2478.737 0.4517 0.4727 0.4336 0.4267 0.3993 0.3937 0.4302 0.4293 0.4058 0.4192
2498.026 0.4538 0.4416 0.4049 0.4053 0.4694 0.5204 0.4976 0.5173 0.5398 0.4846
2517.316 0.4744 0.5187 0.4922 0.456 0.4242 0.3704 0.4159 0.4869 0.4825 0.4972
2536.606 0.4284 0.3851 0.4807 0.4716 0.3586 0.4004 0.5151 0.4663 0.4354 0.4251
2555.896 0.3981 0.4352 0.5103 0.5127 0.4665 0.4776 0.4522 0.4269 0.4275 0.4076
2575.186 0.4254 0.4361 0.3744 0.313 0.362 0.4101 0.3872 0.4291 0.4934 0.5361
2594.475 0.5723 0.5243 0.4177 0.4206 0.4819 0.4644 0.4161 0.4205 0.4353 0.4222
2613.765 0.4422 0.3949 0.3636 0.3725 0.37 0.4564 0.4706 0.359 0.4081 0.4528
2633.055 0.426 0.4289 0.3535 0.3011 0.3505 0.3679 0.3959 0.4635 0.4537 0.4192
2652.345 0.4071 0.4324 0.4832 0.3972 0.3355 0.4382 0.4432 0.3988 0.382 0.371
2671.634 0.4454 0.4557 0.4351 0.4883 0.5002 0.4973 0.5301 0.5669 0.5727 0.6093
2690.924 0.603 0.6364 0.627 0.5822 0.6072 0.5398 0.544 0.5682 0.497 0.4844
2710.214 0.3918 0.3845 0.4475 0.3165 0.3491 0.412 0.4079 0.4407 0.3648 0.3535
2729.504 0.3461 0.3101 0.3464 0.3472 0.3007 0.3375 0.372 0.4226 0.4639 0.4335
2748.794 0.4442 0.4827 0.4804 0.5028 0.4571 0.4283 0.5471 0.5529 0.4991 0.5265
2768.083 0.5531 0.5015 0.4082 0.394 0.4282 0.4764 0.4759 0.5204 0.558 0.4397
2787.373 0.4017 0.4228 0.4146 0.4075 0.4814 0.5475 0.5618 0.6025 0.59 0.57
2806.663 0.4427 0.4092 0.4953 0.4618 0.5022 0.4487 0.3293 0.4535 0.6078 0.5543
2825.953 0.538 0.5964 0.5881 0.5941 0.6211 0.6494 0.618 0.5522 0.5156 0.5019
2845.242 0.5708 0.5787 0.5844 0.6197 0.6566 0.7372 0.7332 0.7402 0.74 0.8151
2864.532 0.9164 0.8752 0.8549 0.929 1.01 0.9592 0.8835 0.9454 1.0656 1.1173
2883.822 1.1203 1.1215 1.18 1.25 1.25 1.28 1.28 1.24 1.2 1.21
2903.112 1.21 1.2 1.22 1.22 1.0923 1.034 0.9723 0.8726 0.8456 0.8776
2922.401 0.9653 1.0098 0.9093 0.809 0.8893 0.9071 0.9036 0.9381 0.9562 0.8934
2941.691 0.825 0.8652 0.8993 0.8466 0.6881 0.5426 0.6813 0.8151 0.7825 0.8022
2960.981 0.8468 0.7674 0.7551 0.7946 0.7233 0.7303 0.7426 0.7805 0.9554 0.905
2980.271 0.8406 0.8914 0.819 0.7002 0.6482 0.5701 0.5368 0.6268 0.6448 0.6811
2999.561 0.6419 0.6375 0.5348 0.3928 0.4895 0.459 0.3721 0.3567 0.3565 0.4565
3018.850 0.4464 0.4117 0.4349 0.3947 0.3747 0.366 0.4324 0.4298 0.3382 0.3698
3038.140 0.4336 0.4517 0.4376 0.3426 0.4374 0.5324 0.3948 0.2973 0.2821 0.3612
3057.430 0.3759 0.3548 0.3727 0.4651 0.5978 0.6146 0.7142 0.8439 0.8425 0.9346
3076.720 1.0115 1.153 1.31 1.51 1.73 1.81 1.86 1.94 1.94 1.9
3096.009 1.85 1.7 1.58 1.39 1.1243 0.9811 0.9392 0.931 0.8572 0.829
3115.299 0.8184 0.7194 0.6166 0.5065 0.5636 0.632 0.5598 0.402 0.4536 0.5054
3134.589 0.5079 0.5934 0.5623 0.5147 0.4412 0.3791 0.3829 0.25871 0.25622 0.3926
3153.879 0.3853 0.408 0.3006 0.18593 0.2721 0.3648 0.4457 0.4711 0.26579 0.176673
3173.169 0.141 0.1 0.20075 0.24355 0.341 0.3635 0.388 0.3847 0.3035 0.3019
3192.458 0.20806 0.1571 0.20867 0.3075 0.22978 0.1391 0.3367 0.2731 0.2925 0.4173
3211.748 0.18282 0.1107 0.0744 0.03 0.0987 0.22222 0.361 0.3192 0.2788 0.24856
3231.038 0.2796 0.3057 0.2969 0.3049 0.2777 0.21903 0.18467 0.3996 0.4743 0.3091
3250.328 0.2178 0.19492 0.3163 0.24538 0.20815 0.18358 0.0993 0.1471 0.0781 0.1065
3269.617 0.22164 0.19234 0.19484 0.3075 0.3713 0.3587 0.3078 0.1485 0.1022 0.24822
3288.907 0.1481 0.1853 0.3062 0.176693 0.2015 0.23374 0.16574 0.006 0.056 0.3222
3308.197 0.16152 0.1397 0.3126 0.4414 0.5043 0.3015 0.16066 0.24102 0.23626 0.1516
3327.487 0.1208 0.0805 0.034 0.001 0.22485 0.24983 0.0894 0.122 0.21149 0.21776
3346.777 0.172889 0.0789 0.1364 0.3076 0.4082 0.4106 0.20621 0.173257 0.24422 0.24906
3366.066 0.3328 0.3721 0.3365 0.3092 0.24913 0.3097 0.3365 0.24149 0.2882 0.4158
3385.356 0.3307 0.0869 0.1072 0.2468 0.23504 0.3219 0.4148 0.4131 0.3082 0.1229
3404.646 0.1166 0.3401 0.4344 0.4191 0.4601 0.2963 0.20207 0.25201 0.26583 0.3538
3423.936 0.4064 0.23924 0.0904 0.0797 0.1242 0.086 0.1005 0.2725 0.22365 0.025
3443.225 0.16422 0.22538 0.21833 0.2793 0.24818 0.3033 0.3168 0.3693 0.19784 0.1166
3462.515 0.19346 0.16022 0.25357 0.23415 0.2103 0.26483 0.18817 0.25728 0.337 0.26525
3481.805 0.21634 0.22859 0.3058 0.4034 0.3013 0.3138 0.4229 0.4264 0.5173 0.4229
3501.095 0.4048 0.7157 0.9006 0.8772 0.8338 0.83 0.8352 0.9503 0.9515 0.9251
3520.385 1.0802 1.1181 1.0047 0.8609 0.8608 0.7186 0.583 0.6427 0.627 0.7307
3539.674 0.7475 0.6241 0.5678 0.4899 0.6274 0.8725 0.9301 0.9494 1.1466 1.41
3558.964 1.72 2.11 2.77 3.86 5.36 7.77 11.41 16.3 22.31 28.59
3578.254 33.74 36.32 36.7 35.78 33.24 29.18 23.37 16.43 10.37 6.23
3597.544 3.81 2.61 1.99 1.5 1.23 0.9876 0.8044 0.7853 0.7243 0.7108
3616.833 0.8081 0.7244 0.5187 0.4784 0.4802 0.459 0.4003 0.4565 0.5014 0.3458
3636.123 0.429 0.5648 0.615 0.5749 0.3893 0.3197 0.3572 0.4485 0.3251 0.2521
3655.413 0.3882 0.4134 0.24541 0.3262 0.3976 0.3392 0.3776 0.3453 0.3853 0.3228
3674.703 0.3097 0.3623 0.3778 0.4322 0.3074 0.2757 0.41 0.4395 0.4885 0.4361
3693.993 0.24215 0.26424 0.3016 0.3598 0.4788 0.4285 0.2739 0.23861 0.3753 0.3545
3713.282 0.2713 0.3455 0.2898 0.172115 0.18978 0.3116 0.4244 0.3065 0.1803 0.25832
3732.572 0.3804 0.365 0.2952 0.24803 0.1254 0.1548 0.23406 0.23284 0.2843 0.4483
3751.862 0.5436 0.4729 0.4312 0.3755 0.3171 0.20179 0.20679 0.19952 0.064 0.1041
3771.152 0.21001 0.18103 0.0937 0.0709 0.24508 0.3988 0.3016 0.0898 0.02 0
3790.441 0.0967 0.24267 0.3231 0.2819 0.19266 0.3463 0.2995 0.3529 0.4121 0.3122
3809.731 0.3414 0.3132 0.16697 0.049 0.16603 0.3064 0.26635 0.21411 0.3522 0.21897
3829.021 0.0959 0.19371 0.23775 0.3093 0.2818 0.22471 0.23872 0.169585 0.25564 0.4186
3848.311 0.23484 0.1275 0.1351 0.035 0.1588 0.348 0.3714 0.2849 0.3268 0.3902
3867.601 0.159 0.003 0.0952 0.20066 0.1516 0.23274 0.3432 0.2906 0.2723 0.176
3886.890 0.052 0.16577 0.2914 0.2936 0.3381 0.4777 0.4865 0.3806 0.3167 0.1315
3906.180 0.083 0.2203 0.3024 0.18787 0.19898 0.272 0.3269 0.3771 0.3269 0.16586
3925.470 0.0821 0.2334 0.22642 0.1266 0.19976 0.2855 0.16493 0.1516 0.19024 0.0922
3944.760 0.22141 0.4111 0.3012 0.21881 0.23412 0.3359 0.4067 0.23101 0.3321 0.4094
3964.049 0.21887 0.1272 0.05 0.027 0.1004 0.1437 0.0786 0.11 0.1552 0.23709
3983.339 0.3002 0.241 0.16454 0.042 0.023 0.16702 0.25386 0.16784 0.1411 0.26432
##END=
