##TITLE=2,2-Dimethylcyclopentanone
##JCAMP-DX=4.24
##DATA TYPE=INFRARED SPECTRUM
##ORIGIN=NIST Mass Spectrometry Data Center
##OWNER=NIST Standard Reference Data Program
Collection (C) 2018 copyright by the U.S. Secretary of Commerce
on behalf of the United States of America. All rights reserved.
##CAS REGISTRY NO=4541-32-6
##MOLFORM=C 7 H 12 O
##$NIST SOURCE=MSDC-IR
##SPECTROMETER/DATA SYSTEM=HP-GC/MS/IRD
##STATE=gas
##XUNITS=1/CM
##YUNITS=ABSORBANCE
##XFACTOR=1.0
##YFACTOR=0.000002100
##DELTAX=4.0
##FIRSTX=550.0
##LASTX=3846.0
##FIRSTY=0.000050
##MAXX=3846
##MINX=550
##MAXY=0.021
##MINY=0
##NPOINTS=825
##XYDATA=(X++(Y..Y))
550.0 24 46 86 98 109 90 85 56 48 44
590.0 22 27 12 0 27 31 22 53 48 42
630.0 49 55 51 24 22 27 33 35 49 68
670.0 82 81 70 74 62 50 48 29 23 21
710.0 17 19 21 12 7 11 9 14 0 3
750.0 8 11 34 55 78 126 177 229 296 354
790.0 388 414 411 384 345 279 198 156 134 111
830.0 103 82 65 66 57 45 50 51 53 52
870.0 55 75 80 84 99 117 127 141 158 176
910.0 186 195 227 243 258 262 257 272 290 302
950.0 292 278 250 218 181 147 130 120 125 140
990.0 167 197 216 249 266 275 304 326 348 362
1030.0 384 423 487 572 664 772 938 1186 1498 1826
1070.0 2089 2257 2327 2198 1935 1636 1278 911 620 449
1110.0 364 325 294 281 280 280 298 359 453 544
1150.0 637 724 787 787 714 652 565 444 361 317
1190.0 312 346 392 430 459 480 484 453 414 403
1230.0 390 371 373 396 438 475 502 521 515 503
1270.0 451 361 283 226 186 180 194 225 270 314
1310.0 356 383 398 386 343 298 259 229 212 240
1350.0 303 371 420 555 763 740 725 800 828 807
1390.0 706 665 676 661 657 670 719 730 679 628
1430.0 575 522 524 602 735 902 1092 1275 1356 1383
1470.0 1337 1213 1063 879 698 517 358 240 172 134
1510.0 107 94 81 69 66 51 48 48 44 48
1550.0 48 38 33 41 46 56 59 53 56 57
1590.0 67 59 55 58 63 68 63 63 76 75
1630.0 74 79 79 88 95 102 111 117 131 146
1670.0 163 189 205 231 264 293 322 362 415 477
1710.0 562 684 864 1158 1624 2382 3559 5100 6714 8062
1750.0 9160 10000 9757 8574 7238 5425 3403 1983 1218 846
1790.0 649 539 467 417 378 350 326 306 281 245
1830.0 208 184 166 147 131 115 107 102 95 92
1870.0 95 99 103 101 93 81 67 60 62 68
1910.0 68 67 66 65 68 66 62 64 63 62
1950.0 59 60 64 57 52 51 47 46 44 47
1990.0 48 39 39 36 27 26 28 31 32 31
2030.0 35 38 43 45 41 35 34 33 29 24
2070.0 16 12 12 14 14 10 13 15 17 26
2110.0 20 23 29 28 29 26 28 30 28 24
2150.0 33 39 36 35 27 19 23 32 32 29
2190.0 31 34 35 38 32 26 29 31 33 35
2230.0 38 39 43 45 47 44 34 33 41 43
2270.0 43 41 31 24 32 41 38 34 35 43
2310.0 40 29 34 41 30 21 22 20 19 21
2350.0 17 15 23 17 11 12 19 25 19 17
2390.0 25 25 22 21 22 23 30 40 36 27
2430.0 30 30 28 24 21 27 26 24 24 21
2470.0 23 28 26 19 16 17 19 24 19 12
2510.0 17 23 17 14 10 0 4 7 7 12
2550.0 16 21 26 29 30 26 30 27 20 28
2590.0 35 29 23 25 34 39 44 48 38 33
2630.0 36 36 35 28 28 34 25 25 36 42
2670.0 43 37 37 46 46 47 46 41 41 47
2710.0 53 57 62 71 85 97 93 82 88 96
2750.0 102 104 110 117 120 124 125 118 117 126
2790.0 140 148 156 180 205 221 234 253 273 284
2830.0 302 326 361 423 516 649 842 1107 1432 1767
2870.0 2094 2376 2592 2668 2657 2642 2597 2496 2402 2377
2910.0 2406 2477 2634 2861 3126 3418 3772 4142 4507 5016
2950.0 5740 6555 7346 8204 8645 8479 7980 6948 5558 4198
2990.0 3016 2008 1269 817 580 459 387 345 334 319
3030.0 299 276 255 242 214 190 178 166 151 136
3070.0 127 125 130 135 140 132 125 137 138 127
3110.0 126 129 117 110 113 101 96 107 103 105
3150.0 109 113 126 123 112 120 121 112 101 96
3190.0 85 80 83 65 66 85 76 63 53 56
3230.0 54 38 37 32 34 38 41 42 37 38
3270.0 54 54 29 21 30 28 35 43 37 42
3310.0 54 43 36 33 35 52 68 59 42 45
3350.0 41 34 34 34 20 11 17 18 16 7
3390.0 15 20 22 36 30 20 24 28 25 39
3430.0 50 43 51 53 48 56 64 63 79 108
3470.0 128 148 170 194 208 218 222 208 190 160
3510.0 113 81 83 95 76 50 46 47 49 50
3550.0 36 28 26 30 30 20 17 19 28 32
3590.0 30 32 9 0 14 14 19 31 30 40
3630.0 46 44 27 2 11 22 24 26 40 37
3670.0 22 15 8 20 27 20 22 13 8 10
3710.0 9 23 27 24 22 20 17 23 21 16
3750.0 18 12 6 21 21 8 17 23 25 27
3790.0 35 39 42 39 25 21 45 42 27 43
3830.0 53 37 20 18 23
##END=
