##TITLE=2,2,5,5,-Tetramethylcyclopentanone
##JCAMP-DX=4.24
##DATA TYPE=INFRARED SPECTRUM
##ORIGIN=NIST Mass Spectrometry Data Center
##OWNER=NIST Standard Reference Data Program
Collection (C) 2018 copyright by the U.S. Secretary of Commerce
on behalf of the United States of America. All rights reserved.
##CAS REGISTRY NO=4541-35-9
##MOLFORM=C 9 H 16 O
##$NIST SOURCE=MSDC-IR
##SPECTROMETER/DATA SYSTEM=HP-GC/MS/IRD
##STATE=gas
##XUNITS=1/CM
##YUNITS=ABSORBANCE
##XFACTOR=1.0
##YFACTOR=0.000004200
##DELTAX=4.0
##FIRSTX=550.0
##LASTX=3846.0
##FIRSTY=0.001197
##MAXX=3846
##MINX=550
##MAXY=0.042
##MINY=0
##NPOINTS=825
##XYDATA=(X++(Y..Y))
550.0 285 198 127 105 85 69 72 98 109 102
590.0 83 51 54 55 34 24 17 15 18 24
630.0 30 25 13 5 8 30 44 44 43 30
670.0 23 29 28 25 22 9 13 19 26 31
710.0 8 18 32 36 40 37 62 85 88 99
750.0 92 79 79 61 46 41 35 40 38 27
790.0 29 25 30 41 36 30 49 78 102 129
830.0 158 165 147 136 131 116 114 128 145 187
870.0 261 368 496 594 641 607 523 420 308 222
910.0 167 140 122 108 103 107 121 143 172 208
950.0 248 276 288 295 292 282 269 257 268 306
990.0 359 447 580 804 1213 1840 2536 3101 3466 3441
1030.0 3073 2483 1753 1178 831 629 488 377 320 309
1070.0 316 333 351 364 356 315 252 201 168 161
1110.0 174 184 208 237 252 244 228 204 175 146
1150.0 116 104 103 109 105 97 95 105 114 116
1190.0 133 154 173 215 284 371 465 556 626 676
1230.0 685 658 616 567 550 567 571 563 519 439
1270.0 340 243 173 139 128 123 130 151 188 245
1310.0 314 372 403 396 348 291 235 199 199 249
1350.0 358 524 707 920 1223 1365 1396 1478 1468 1353
1390.0 1135 929 680 416 279 233 224 227 234 256
1430.0 296 354 451 619 871 1210 1581 1956 2199 2231
1470.0 2071 1748 1404 1042 705 466 321 245 203 172
1510.0 154 143 127 112 103 98 89 82 79 75
1550.0 69 64 57 55 54 55 55 53 56 60
1590.0 65 69 73 76 73 76 78 73 75 89
1630.0 89 83 86 86 84 90 94 94 97 105
1670.0 114 126 146 174 199 228 261 296 330 365
1710.0 421 539 768 1193 1914 2939 4136 5296 6235 6576
1750.0 6039 5015 3811 2624 1791 1332 1078 904 766 649
1790.0 546 453 371 298 241 192 150 125 107 100
1830.0 94 85 81 79 70 64 65 58 48 44
1870.0 44 46 46 50 57 56 59 67 73 79
1910.0 79 76 72 65 52 43 42 36 31 27
1950.0 25 24 23 25 26 26 23 20 22 19
1990.0 18 18 14 16 20 17 15 16 19 19
2030.0 20 26 28 30 33 33 31 23 16 16
2070.0 15 14 10 9 9 10 12 16 14 11
2110.0 16 16 16 21 22 20 19 17 19 23
2150.0 22 22 18 14 10 9 7 5 9 10
2190.0 8 12 18 19 16 16 20 19 15 13
2230.0 8 9 11 18 19 21 18 15 19 24
2270.0 28 26 27 25 24 25 26 23 22 22
2310.0 18 17 18 20 18 16 12 7 12 16
2350.0 12 9 12 15 14 9 14 18 16 22
2390.0 24 22 25 28 25 30 32 23 16 14
2430.0 18 19 14 13 16 18 19 18 15 15
2470.0 16 15 15 16 13 13 13 10 11 11
2510.0 12 9 5 5 12 18 12 7 13 17
2550.0 14 20 23 26 26 22 18 16 16 15
2590.0 18 24 28 31 32 35 37 30 30 37
2630.0 37 33 31 24 21 26 25 22 26 28
2670.0 27 30 37 41 47 50 48 50 57 60
2710.0 65 72 76 79 84 87 90 88 90 90
2750.0 93 99 106 121 123 121 123 124 127 129
2790.0 130 138 149 158 175 197 211 231 248 267
2830.0 294 319 358 411 483 600 807 1176 1716 2353
2870.0 2979 3521 3767 3604 3293 2968 2666 2472 2392 2392
2910.0 2446 2556 2751 3063 3529 4158 4899 5708 6582 7464
2950.0 8451 9234 9600 10000 9769 8818 7857 6542 4910 3533
2990.0 2492 1643 1040 674 476 371 303 257 226 201
3030.0 179 159 152 148 138 131 123 124 127 126
3070.0 124 131 136 129 127 132 140 136 124 129
3110.0 137 129 124 122 114 109 110 114 118 123
3150.0 126 127 129 126 120 116 118 113 107 110
3190.0 100 89 78 62 54 48 48 46 41 37
3230.0 30 25 23 21 20 19 18 10 7 11
3270.0 11 16 10 3 12 14 17 18 21 25
3310.0 22 25 34 40 44 46 37 29 30 29
3350.0 35 26 13 10 3 3 5 8 11 8
3390.0 5 7 16 14 2 10 18 7 0 4
3430.0 2 5 11 22 32 43 58 74 97 121
3470.0 132 137 141 125 107 96 79 67 54 49
3510.0 57 60 48 33 27 26 12 14 18 19
3550.0 23 19 17 9 5 18 23 17 19 16
3590.0 12 14 16 22 14 18 20 12 12 6
3630.0 4 10 20 26 26 23 18 11 18 20
3670.0 12 12 17 25 28 17 8 16 22 19
3710.0 20 27 28 26 29 25 21 25 30 25
3750.0 23 24 20 19 31 39 25 16 19 22
3790.0 23 28 29 32 38 39 34 32 32 41
3830.0 44 37 42 38 38
##END=
