##TITLE=4-(n-Butoxy)phenylacetic acid
##JCAMP-DX=4.24
##DATA TYPE=INFRARED SPECTRUM
##ORIGIN=EPA-IR VAPOR PHASE LIBRARY
##OWNER=SRD/NIST
Collection (C) 2018 copyright by the U.S. Secretary of Commerce
on behalf of the United States of America. All rights reserved.
##CAS REGISTRY NO=4547-57-3
##MOLFORM=C 12 H 16 O 3
##$NIST SOURCE=MSDC-IR
##STATE=gas
##XUNITS=1/CM
##YUNITS=ABSORBANCE
##XFACTOR=1.
##YFACTOR=0.001
##DELTAX=1.92898
##FIRSTX=549.8
##LASTX=4000.7
##FIRSTY=11.121
##MAXX=4000.7
##MINX=549.759
##MAXY=0.120111
##MINY=0
##NPOINTS=1790
##XYDATA=(X++(Y..Y))
549.759 11.121 11.821 12.581 13.311 14.501 15.331 15.971 16.561 18.191 20.621
569.049 23.161 25.501 27.631 29.691 31.261 32.691 33.801 33.251 32.241 31.631
588.339 30.661 29.921 29.081 28.161 28.201 28.291 28.001 28.121 27.931 27.451
607.628 26.741 25.731 24.471 23.381 22.801 22.081 20.981 20.131 19.831 18.981
626.918 17.871 17.621 17.641 16.591 15.491 15.101 14.651 14.021 13.101 12.241
646.208 11.701 11.431 11.331 11.091 10.131 9.441 9.691 9.351 8.581 8.431
665.498 8.311 8.281 8.031 8.011 8.371 8.151 7.721 7.481 7.161 7.091
684.787 7.211 7.241 7.501 7.541 7.311 6.831 6.611 6.781 6.571 5.841
704.077 5.281 5.151 4.901 4.711 4.691 4.551 4.451 4.361 4.251 4.171
723.367 4.091 3.931 3.671 3.621 3.831 4.141 4.051 4.041 4.381 4.351
742.657 4.161 4.021 4.461 4.981 4.901 4.611 4.741 4.871 4.661 4.721
761.947 4.701 4.811 5.321 5.651 5.981 6.471 6.691 6.751 7.201 7.461
781.236 7.751 8.501 9.161 9.741 10.121 10.561 10.771 10.991 11.581 11.911
800.526 12.461 13.201 13.931 14.401 14.801 15.531 15.871 16.131 16.271 16.401
819.816 16.181 14.201 12.921 14.321 14.141 12.561 11.691 10.781 10.111 9.521
839.106 9.181 9.041 8.991 8.891 8.831 8.421 8.241 8.251 7.851 7.621
858.395 7.731 7.611 7.501 7.521 7.731 7.961 8.071 8.331 8.341 8.181
877.685 8.381 8.371 8.001 7.671 7.261 6.971 6.541 5.951 5.681 5.431
896.975 5.351 5.191 4.961 5.141 4.951 5.141 5.271 4.901 4.801 4.881
916.265 4.981 5.051 5.051 5.161 5.291 5.321 5.321 5.441 5.501 5.621
935.555 5.731 5.941 6.431 6.811 6.701 6.611 7.071 7.441 7.491 7.741
954.844 8.121 8.551 9.011 9.051 9.411 9.811 10.101 10.411 10.781 10.761
974.134 10.751 10.921 10.821 10.721 10.431 9.941 9.211 8.851 9.051 9.551
993.424 9.751 9.721 10.201 10.981 11.411 12.241 13.751 15.711 17.831 19.581
1012.714 21.331 22.141 22.261 22.351 22.581 23.051 23.021 22.771 22.481 22.091
1032.003 21.651 21.401 21.071 19.851 18.471 17.731 17.231 15.901 14.631 14.021
1051.293 13.681 14.401 15.851 16.581 17.431 19.181 21.161 22.741 23.891 25.021
1070.583 26.701 27.211 26.901 28.071 28.861 28.931 29.701 31.931 34.221 37.241
1089.873 40.651 43.051 47.121 52.671 58.431 64.931 70.301 76.271 83.331 89.721
1109.163 95.221 99.121 100.501 98.131 92.711 85.991 79.151 72.541 65.821 58.891
1128.452 53.351 49.031 45.101 41.951 39.581 37.171 34.131 31.571 29.811 27.941
1147.742 25.571 23.951 22.871 22.031 21.371 20.641 21.171 22.311 23.201 24.991
1167.032 28.761 34.141 39.811 44.421 47.411 48.251 45.751 40.601 34.691 28.991
1186.322 25.491 23.661 22.761 23.271 24.651 26.261 26.851 28.451 30.681 33.381
1205.611 36.001 38.651 42.251 45.521 49.981 53.301 56.201 60.671 64.691 67.201
1224.901 69.221 71.351 73.361 77.901 83.951 89.411 95.751 103.661 111.351 117.091
1244.191 120.111 119.111 114.221 105.711 94.931 83.701 73.211 63.721 56.061 50.521
1263.481 46.081 42.341 39.131 37.161 35.861 34.311 33.791 33.731 33.641 33.961
1282.771 34.161 34.401 34.901 35.011 34.211 33.361 32.681 31.551 30.331 29.301
1302.060 28.241 27.131 25.911 24.621 23.181 21.661 20.341 19.151 18.111 17.351
1321.350 16.921 16.741 16.391 16.191 16.191 16.181 16.281 16.461 16.751 16.991
1340.640 17.201 17.621 18.051 18.221 18.351 18.541 18.551 18.531 18.611 18.381
1359.930 17.961 17.481 16.931 16.391 15.851 15.351 14.971 14.731 14.621 14.791
1379.219 15.341 15.931 16.501 16.941 16.991 16.541 15.571 14.341 13.031 11.831
1398.509 10.681 9.701 9.031 8.521 8.171 8.031 7.961 8.031 8.171 8.351
1417.799 8.581 8.611 8.851 9.301 9.671 9.911 10.101 10.281 10.521 10.621
1437.089 10.701 10.881 10.801 10.651 10.501 10.331 10.181 10.321 10.651 10.851
1456.378 11.071 11.671 12.451 13.161 14.221 15.851 17.621 19.301 20.731 21.551
1475.668 21.711 21.141 19.771 17.911 16.281 15.041 14.331 14.581 15.781 18.011
1494.958 21.431 26.641 34.041 44.141 57.471 73.351 91.171 106.751 115.521 115.711
1514.248 107.101 91.531 72.251 53.991 38.861 29.231 22.651 18.081 14.921 12.591
1533.538 10.931 9.721 8.661 7.861 7.191 6.581 6.271 6.001 5.731 5.481
1552.827 5.411 5.461 5.301 5.351 5.571 5.731 5.771 5.821 6.081 6.411
1572.117 6.851 7.521 8.121 8.801 9.621 10.011 10.101 10.101 9.901 9.801
1591.407 9.981 10.431 11.321 12.411 13.731 15.641 18.011 20.581 23.101 25.541
1610.697 27.391 28.141 27.671 25.631 22.501 19.101 15.601 12.371 10.001 8.231
1629.986 6.861 6.191 5.501 4.801 4.571 4.181 3.931 3.811 3.551 3.421
1649.276 3.281 3.171 2.951 2.841 2.861 2.911 3.001 2.921 2.881 3.001
1668.566 3.011 2.931 2.901 2.921 2.961 3.061 3.131 2.951 3.041 3.401
1687.856 3.401 3.411 3.661 3.831 4.061 4.321 4.521 4.721 4.781 4.891
1707.146 5.281 5.721 6.101 6.381 6.801 7.401 8.041 8.591 9.411 10.451
1726.435 11.331 12.311 13.481 14.691 16.191 17.881 19.791 22.071 24.391 27.111
1745.725 30.001 33.061 36.461 39.971 43.531 46.961 50.471 53.961 57.471 61.211
1765.015 65.091 69.371 73.991 78.921 84.051 88.301 91.161 92.421 91.931 89.611
1784.305 86.081 81.951 77.531 73.001 68.271 63.631 59.011 54.301 49.701 45.091
1803.594 40.531 35.971 31.721 27.731 24.161 21.091 18.421 16.091 14.081 12.441
1822.884 10.941 9.591 8.451 7.631 6.891 6.181 5.641 5.181 4.891 4.561
1842.174 4.291 4.051 3.781 3.641 3.491 3.481 3.481 3.361 3.301 3.191
1861.464 3.111 3.281 3.291 3.181 3.251 3.161 3.051 3.041 3.151 3.241
1880.754 3.211 3.071 3.011 3.091 2.951 2.671 2.571 2.461 2.461 2.601
1900.043 2.601 2.491 2.321 2.211 2.111 2.071 1.931 1.801 1.801 1.791
1919.333 1.831 1.821 1.801 1.871 1.821 1.691 1.751 1.801 1.801 1.811
1938.623 1.731 1.741 1.791 1.791 1.821 1.881 1.941 1.951 1.981 2.051
1957.913 2.051 2.101 2.091 1.831 1.751 1.971 2.001 1.941 2.011 2.031
1977.202 2.051 2.031 2.071 2.171 2.181 2.131 2.081 2.131 2.191 2.241
1996.492 2.231 2.141 2.161 2.141 2.081 2.111 2.091 2.041 1.941 1.961
2015.782 2.091 2.091 2.211 2.291 2.121 2.061 2.271 2.411 2.311 2.251
2035.072 2.341 2.221 2.091 2.121 2.131 2.141 2.101 1.941 1.901 1.921
2054.362 1.971 2.031 1.971 1.841 1.701 1.761 1.871 1.831 1.771 1.841
2073.651 1.801 1.661 1.5492 1.571 1.661 1.641 1.5208 1.4665 1.5014 1.5085
2092.941 1.5387 1.5239 1.4921 1.4195 1.2379 1.1941 1.2674 1.2754 1.3067 1.3704
2112.231 1.3479 1.4258 1.449 1.3623 1.4191 1.4 1.3461 1.3896 1.4378 1.3324
2131.521 1.2103 1.14 1.2134 1.1052 0.9254 0.9487 0.8766 1.0143 1.1204 1.0127
2150.810 1.084 1.139 1.2623 1.3039 1.017 0.997 1.1616 1.0827 1.0676 1.1629
2170.100 1.1438 1.1626 1.171 1.1219 1.1923 1.2044 1.1684 1.1609 1.0304 0.9415
2189.390 1.0904 1.2465 1.1493 1.0329 1.0712 1.1601 1.2381 1.212 1.26 1.3475
2208.680 1.3004 1.2487 1.2414 1.2144 1.2671 1.3746 1.3387 1.2669 1.2306 1.241
2227.970 1.2773 1.2987 1.345 1.185 1.1999 1.2085 1.026 0.9388 1.0295 1.1451
2247.259 1.0484 1.0796 1.1593 1.2886 1.27 1.1313 1.1117 1.1491 1.0545 1.0048
2266.549 1.0963 0.9698 1.0529 1.2278 1.258 1.2374 1.1336 1.1504 1.2598 1.1924
2285.839 1.0685 1.3245 1.5038 1.3715 1.2307 1.3131 1.3457 1.2462 1.1665 1.0947
2305.129 1.3277 1.5443 1.551 1.641 1.651 1.4973 1.4306 1.4354 1.4215 1.5185
2324.418 1.591 1.5077 1.2358 1.2967 1.581 1.581 1.4385 1.5223 1.741 1.711
2343.708 1.4682 1.2574 1.4437 1.631 1.661 1.701 1.861 1.941 1.651 1.591
2362.998 1.701 1.681 1.671 1.621 1.4972 1.5131 1.641 1.571 1.3157 1.3582
2382.288 1.4024 1.3093 1.4004 1.4368 1.3998 1.3333 1.2145 1.3191 1.4456 1.4937
2401.578 1.4544 1.4496 1.581 1.561 1.475 1.4367 1.5033 1.4297 1.29 1.2511
2420.867 1.3813 1.453 1.3936 1.3754 1.3238 1.4051 1.3791 1.2675 1.1442 1.1426
2440.157 1.3128 1.2132 1.1503 1.1821 1.3829 1.671 1.5385 1.5046 1.621 1.631
2459.447 1.711 1.711 1.561 1.4707 1.661 1.781 1.761 1.691 1.671 1.621
2478.737 1.641 1.651 1.561 1.631 1.801 1.831 1.5054 1.3175 1.3612 1.4015
2498.026 1.2788 1.3002 1.4156 1.4264 1.611 1.5192 1.3492 1.3939 1.4763 1.561
2517.316 1.5093 1.3788 1.2772 1.319 1.4209 1.601 1.581 1.4634 1.5406 1.631
2536.606 1.741 1.591 1.3482 1.4366 1.5257 1.5246 1.4609 1.2454 1.3792 1.4678
2555.896 1.2874 1.1812 1.12 1.3009 1.3059 1.1423 1.1499 1.2715 1.0644 0.9101
2575.186 1.0765 1.0118 0.9221 1.031 1.0937 1.0233 1.0919 1.1854 1.1911 1.3188
2594.475 1.3912 1.276 1.1926 1.1147 1.1545 1.2514 1.117 1.074 1.0572 0.9574
2613.765 0.9767 1.0797 1.1301 1.0275 0.9125 0.886 0.8264 0.8224 0.9662 0.9416
2633.055 0.7836 0.9155 1.0491 0.9127 0.9548 1.0146 0.883 0.8918 1.0824 1.2001
2652.345 0.9948 1.0001 1.1141 0.8166 0.8085 0.9501 0.7056 0.8127 0.9345 0.8031
2671.634 0.9367 1.0605 1.0776 0.9852 0.9409 1.1031 1.1013 1.205 1.4292 1.2234
2690.924 0.9744 0.8705 1.1607 1.3633 1.1299 1.0084 0.9799 1.2759 1.3906 1.264
2710.214 1.2162 1.3039 1.4616 1.3492 1.2257 1.3609 1.591 1.601 1.851 2.121
2729.504 1.761 1.5086 1.691 1.721 1.731 1.871 1.861 1.891 2.051 1.981
2748.794 2.031 2.301 2.151 2.081 2.001 2.091 2.181 1.861 2.011 2.001
2768.083 1.751 1.811 1.821 1.851 2.081 2.091 1.941 1.811 1.781 1.881
2787.373 1.821 1.761 1.921 2.261 2.231 1.931 2.041 2.321 2.471 2.641
2806.663 2.881 2.921 2.621 2.661 2.791 2.971 3.141 3.161 3.471 3.651
2825.953 3.681 3.981 4.161 4.321 4.731 5.081 5.191 5.381 5.971 6.681
2845.242 7.111 7.601 8.161 8.521 9.121 10.081 10.891 11.561 12.441 13.321
2864.532 14.201 15.411 17.001 18.521 19.791 20.961 22.241 23.801 24.981 25.561
2883.822 26.341 26.511 26.081 25.331 24.541 23.691 23.081 22.821 22.821 23.361
2903.112 23.591 23.891 24.751 25.591 26.561 27.781 28.701 29.441 30.661 31.801
2922.401 32.621 33.371 34.041 35.051 36.451 38.091 39.661 41.301 43.311 45.221
2941.691 46.331 47.061 47.471 47.451 46.701 45.721 45.331 44.931 45.151 46.511
2960.981 47.721 48.691 49.601 50.111 50.121 49.141 46.751 43.161 39.091 34.581
2980.271 30.421 26.831 23.691 21.171 19.271 17.631 15.941 14.691 13.411 12.341
2999.561 11.851 11.391 10.841 10.251 9.581 9.131 8.891 8.881 8.821 8.321
3018.850 8.101 8.491 8.551 8.701 9.051 9.561 10.351 10.821 11.591 12.271
3038.140 12.771 13.061 12.551 11.511 10.281 9.091 8.041 7.431 6.761 6.061
3057.430 6.061 6.061 5.891 5.611 5.621 6.031 6.191 6.421 6.601 6.471
3076.720 6.021 5.581 5.361 5.031 4.711 4.601 4.651 4.611 4.761 4.861
3096.009 4.711 4.581 4.551 4.211 3.611 3.451 3.371 3.471 3.301 2.871
3115.299 2.581 2.421 2.571 2.701 2.311 2.071 2.021 2.021 1.971 1.841
3134.589 2.151 1.931 1.393 1.4326 1.4981 1.2403 1.0979 0.9032 0.9475 1.0327
3153.879 1.0121 1.2053 1.232 1.3876 1.331 0.8607 0.63096 0.8321 0.8216 0.6242
3173.169 1.0035 1.284 1.1948 1.0769 0.934 0.8028 0.7585 0.6611 0.7018 0.8276
3192.458 0.6787 0.7958 0.9211 0.9876 0.8742 0.58625 0.58808 0.57627 0.6805 0.6573
3211.748 0.5404 0.6783 0.5715 0.651 0.9105 0.61939 0.412 0.7215 0.7785 0.5173
3231.038 0.63658 0.6845 0.757 0.7359 0.60918 0.7122 0.7415 0.7159 0.819 0.7287
3250.328 0.6575 0.8266 0.676 0.64429 0.59561 0.341 0.5173 0.7091 0.6683 0.7398
3269.617 0.9703 0.9371 0.64476 0.7689 0.8868 0.7284 0.7264 0.7686 0.475 0.4846
3288.907 0.560963 0.262 0.078 0.04 0.345 0.7079 0.7375 0.395 0.367 0.62838
3308.197 0.414 0.273 0.167 0.18 0.6931 0.8517 0.5074 0.54243 0.4711 0.5324
3327.487 0.8882 0.8944 0.9184 0.842 1.0412 1.0034 0.551857 0.34 0.5174 0.5049
3346.777 0.4512 0.5032 0.363 0.4537 0.559427 0.363 0.294 0.56336 0.62189 0.5344
3366.066 0.633 0.857 0.9373 0.8131 0.8932 1.0968 0.8142 0.341 0.292 0.673
3385.356 0.62154 0.64122 0.9224 0.9629 0.8416 0.551729 0.56925 0.5039 0.215 0.214
3404.646 0.18 0.475 0.835 0.8745 0.8291 0.7728 0.550801 0 0.192 0.7258
3423.936 0.7913 0.7263 0.7213 0.54516 0.60315 0.8556 0.54192 0.158 0.079 0.313
3443.225 0.4615 0.7008 0.9374 1.1146 0.9789 0.5884 0.64166 0.439 0.244 0.267
3462.515 0.295 0.258 0.324 0.5202 0.54967 0.265 0.293 0.9467 1.1697 1.1186
3481.805 1.427 1.095 0.5274 0.6753 0.7706 0.60428 0.7366 0.8422 0.9213 1.201
3501.095 1.2379 1.1835 1.1788 1.3568 1.3322 1.3832 1.811 1.951 1.991 1.861
3520.385 1.771 2.231 2.401 2.221 2.641 2.691 2.491 2.851 2.821 2.481
3539.674 2.581 2.871 3.561 4.321 4.911 6.111 6.891 7.601 8.931 10.331
3558.964 11.851 14.061 16.861 20.211 25.221 31.731 38.391 43.391 44.821 43.021
3578.254 38.791 31.731 24.481 19.251 15.801 13.081 10.611 8.811 7.021 5.611
3597.544 5.231 4.621 3.731 3.151 2.751 2.581 2.201 1.811 1.741 1.791
3616.833 1.851 1.811 1.3484 1.1796 1.4979 1.601 1.571 1.3973 1.263 1.2047
3636.123 1.0627 1.2882 1.2916 1.2082 1.325 1.2098 1.2215 1.0643 0.43 0.407
3655.413 0.7068 0.6574 0.948 0.8979 0.8711 1.1386 1.1269 0.923 0.7883 0.9693
3674.703 0.7831 0.7568 1.0495 1.0347 0.9793 0.6843 0.57134 0.8225 0.9593 0.9687
3693.993 0.8963 0.8027 0.7678 0.91 0.891 0.6112 0.7048 1.0675 0.7809 0.7198
3713.282 0.9965 1.3843 1.2101 0.60222 0.6706 0.6785 0.42 0.285 0.322 0.396
3732.572 0.9125 0.8378 0.6242 0.6963 0.9242 1.0954 0.56486 0.401 0.556455 0.5178
3751.862 0.6935 0.7644 0.550579 0.54633 0.7468 0.8781 1.1584 1.0515 0.59603 0.6364
3771.152 0.64829 0.451 0.274 0.60969 0.9842 0.9177 0.7964 0.61846 0.60642 0.4909
3790.441 0.376 0.6862 0.7306 0.431 0.4872 0.4971 0.288 0.5046 0.8318 0.8909
3809.731 0.4723 0.5064 0.6492 0.458 0.64853 0.989 0.9046 0.6113 0.62205 0.54639
3829.021 0.7225 1.142 0.9449 0.56173 0.63545 0.556472 0.6706 0.63999 0.5401 0.7258
3848.311 0.62037 0.7562 0.8315 0.8385 0.9549 1.1248 1.0023 0.7921 0.6802 0.327
3867.601 0.403 0.6552 0.64259 0.63894 0.8691 0.8112 0.6607 0.8273 0.9738 0.7443
3886.890 0.7211 0.8052 0.7289 0.7521 0.322 0.125 0.6886 0.6766 0.55442 0.58955
3906.180 0.4543 0.5091 0.5001 0.7415 1.153 1.0767 0.8768 0.8967 0.365 0.54684
3925.470 0.8653 0.56721 0.54763 0.6546 0.7432 0.59208 0.64871 0.8174 0.8033 1.0088
3944.760 1.073 0.8891 1.0321 1.3105 1.1831 0.7787 0.7341 0.8963 1.018 0.8288
3964.049 0.5645 0.395 0.403 0.64506 0.99 1.2464 1.1638 0.8408 0.297 0.57395
3983.339 0.9222 0.9201 0.8842 0.7381 0.9194 1.3641 1.2789 0.7375 0.8511 0.9618
##END=
