##TITLE=2-Chloro-5-nitropyridine
##JCAMP-DX=4.24
##DATA TYPE=INFRARED SPECTRUM
##ORIGIN=NIST Mass Spectrometry Data Center
##OWNER=NIST Standard Reference Data Program
Collection (C) 2018 copyright by the U.S. Secretary of Commerce
on behalf of the United States of America. All rights reserved.
##CAS REGISTRY NO=4548-45-2
##MOLFORM=C 5 H 3 Cl N 2 O 2
##$NIST SOURCE=MSDC-IR
##SPECTROMETER/DATA SYSTEM=HP-GC/MS/IRD
##STATE=gas
##XUNITS=1/CM
##YUNITS=ABSORBANCE
##XFACTOR=1.0
##YFACTOR=0.000015300
##DELTAX=4.0
##FIRSTX=550.0
##LASTX=3846.0
##FIRSTY=0.002372
##MAXX=3846
##MINX=550
##MAXY=0.153
##MINY=0
##NPOINTS=825
##XYDATA=(X++(Y..Y))
550.0 155 205 82 49 27 21 13 9 4 0
590.0 2 6 18 34 48 73 104 117 108 107
630.0 92 60 35 16 7 8 12 21 29 29
670.0 26 20 13 12 23 40 62 83 105 144
710.0 153 135 141 159 198 280 403 558 721 902
750.0 1017 914 738 598 444 300 190 127 94 84
790.0 85 87 101 131 188 289 425 592 797 1026
830.0 1233 1442 1690 1937 2628 3718 4080 3869 3110 1591
870.0 560 269 183 147 131 122 113 99 89 88
910.0 96 113 138 170 207 248 289 330 344 313
950.0 269 232 194 164 145 135 122 111 108 120
990.0 150 197 270 361 454 529 547 530 493 418
1030.0 346 309 299 313 342 367 387 390 378 356
1070.0 331 315 318 367 490 735 1263 2235 3177 3625
1110.0 3773 3322 2739 3227 4618 5465 5517 4711 2578 944
1150.0 444 271 198 156 130 114 111 107 108 119
1190.0 137 161 185 208 229 246 274 319 377 446
1230.0 516 572 610 635 622 569 518 528 687 891
1270.0 928 896 729 435 278 240 226 230 251 299
1310.0 393 567 856 1294 1909 2746 3855 5360 7281 9086
1350.0 10000 9704 8106 5756 3867 2860 2445 2227 1950 1618
1390.0 1254 925 717 623 586 585 639 789 1040 1405
1430.0 1925 2606 3363 3883 3970 3653 2979 2159 1594 1194
1470.0 899 730 651 618 603 604 630 694 806 1003
1510.0 1319 1754 2310 2947 3561 4018 4284 4447 4456 4226
1550.0 3973 3940 4091 4356 4721 5103 5452 5928 6420 6826
1590.0 7067 6848 6198 5464 4570 3362 2227 1404 875 575
1630.0 428 369 350 353 363 370 366 350 322 281
1670.0 237 200 170 143 119 98 79 62 54 49
1710.0 46 44 45 46 45 42 38 37 36 38
1750.0 41 41 39 35 31 26 24 23 23 27
1790.0 32 41 49 56 59 54 44 33 23 19
1830.0 21 25 31 40 55 75 96 114 128 136
1870.0 140 145 146 140 126 107 84 65 50 39
1910.0 33 35 38 45 53 63 69 71 70 63
1950.0 57 48 40 33 26 21 18 16 16 18
1990.0 19 16 14 12 10 8 10 11 13 13
2030.0 11 8 6 3 2 3 2 3 4 4
2070.0 3 4 6 7 7 8 10 11 10 11
2110.0 12 12 11 9 11 13 15 16 17 16
2150.0 15 12 8 6 4 5 4 4 5 5
2190.0 6 7 8 9 10 9 8 8 9 12
2230.0 16 19 23 26 29 32 31 29 28 27
2270.0 24 23 24 23 20 16 12 10 11 12
2310.0 10 10 11 11 10 11 11 13 12 13
2350.0 15 14 14 15 18 23 29 30 31 32
2390.0 34 33 32 30 26 25 25 24 24 23
2430.0 26 30 36 44 51 57 64 69 75 80
2470.0 87 94 103 113 117 115 107 94 79 63
2510.0 51 39 29 21 13 8 5 4 3 3
2550.0 6 8 12 15 18 21 25 27 29 30
2590.0 32 34 35 34 32 29 23 16 11 7
2630.0 6 7 10 11 11 15 18 24 29 33
2670.0 41 50 54 59 67 68 67 64 59 51
2710.0 41 34 29 25 21 18 14 9 6 5
2750.0 4 2 0 1 2 3 6 5 4 4
2790.0 6 9 11 13 12 13 15 18 24 30
2830.0 38 45 50 59 67 74 83 93 100 108
2870.0 111 113 113 107 102 100 97 95 89 86
2910.0 84 79 76 73 70 68 66 65 62 56
2950.0 53 49 40 31 26 21 20 18 16 14
2990.0 11 13 16 16 13 12 10 8 5 4
3030.0 3 6 9 8 9 12 16 19 25 37
3070.0 53 73 94 111 119 122 117 108 94 77
3110.0 54 35 21 15 13 10 11 12 14 14
3150.0 16 19 22 24 22 20 21 22 26 27
3190.0 27 23 22 20 14 12 10 6 7 7
3230.0 3 3 6 7 6 5 4 4 3 2
3270.0 4 5 6 6 6 4 0 5 7 5
3310.0 5 6 9 8 5 5 7 8 7 5
3350.0 7 10 11 12 13 12 12 13 13 11
3390.0 11 13 14 13 13 14 13 13 13 15
3430.0 17 19 19 14 12 14 15 17 16 13
3470.0 10 10 11 12 15 18 16 13 11 11
3510.0 15 16 18 20 15 12 17 18 19 20
3550.0 18 19 20 20 21 21 19 17 18 17
3590.0 19 21 21 20 20 21 21 20 21 21
3630.0 23 24 23 22 19 18 22 25 25 24
3670.0 21 20 23 27 24 23 29 33 32 31
3710.0 31 29 27 30 31 29 26 23 24 23
3750.0 18 24 31 29 27 27 26 25 27 30
3790.0 29 30 29 28 27 27 30 31 31 30
3830.0 33 35 39 43 44
##END=
