##TITLE=4-Aminobenzotrifluoride
##JCAMP-DX=4.24
##DATA TYPE=INFRARED SPECTRUM
##ORIGIN=NIST Mass Spectrometry Data Center
##OWNER=NIST Standard Reference Data Program
Collection (C) 2018 copyright by the U.S. Secretary of Commerce
on behalf of the United States of America. All rights reserved.
##CAS REGISTRY NO=455-14-1
##MOLFORM=C 7 H 6 F 3 N
##$NIST SOURCE=MSDC-IR
##SPECTROMETER/DATA SYSTEM=HP-GC/MS/IRD
##STATE=gas
##XUNITS=1/CM
##YUNITS=ABSORBANCE
##XFACTOR=1.0
##YFACTOR=0.000008500
##DELTAX=4.0
##FIRSTX=550.0
##LASTX=3846.0
##FIRSTY=0.001692
##MAXX=3846
##MINX=550
##MAXY=0.085
##MINY=0
##NPOINTS=825
##XYDATA=(X++(Y..Y))
550.0 199 302 251 302 331 354 372 399 451 575
590.0 815 1094 1202 1147 958 608 318 207 168 165
630.0 185 215 254 294 329 354 377 405 460 557
670.0 657 720 733 690 600 515 457 403 352 308
710.0 277 253 242 231 215 205 190 182 177 177
750.0 200 229 253 262 245 210 193 192 179 181
790.0 201 228 274 348 468 612 761 898 1039 1200
830.0 1216 1095 963 808 641 472 325 221 151 111
870.0 84 65 52 40 30 26 26 25 25 27
910.0 30 32 28 25 28 33 34 48 51 42
950.0 46 49 48 44 41 35 22 14 13 17
990.0 20 26 48 130 270 368 402 389 286 169
1030.0 116 110 123 158 220 344 618 1233 2298 3303
1070.0 3790 3709 2704 1407 806 678 689 787 971 1252
1110.0 1654 2205 2926 3811 4818 5855 6769 6951 6169 5155
1150.0 4337 3971 4169 4508 4433 3909 3428 3158 2790 2271
1190.0 1748 1153 641 405 321 284 263 250 238 219
1230.0 202 191 193 203 233 287 370 486 668 947
1270.0 1361 1895 2448 2849 2969 2802 2453 2128 2132 2686
1310.0 3874 5618 7710 9535 10000 8855 6681 4079 2175 1443
1350.0 1277 1187 1033 800 532 328 228 182 146 115
1390.0 90 78 75 76 87 101 114 128 140 150
1430.0 156 153 141 130 113 95 74 58 44 36
1470.0 36 37 40 46 49 55 60 70 88 128
1510.0 211 349 530 681 743 697 546 361 230 170
1550.0 147 136 125 119 124 136 161 198 257 339
1590.0 449 605 807 1038 1295 1600 2005 2522 3038 3388
1630.0 3418 3061 2419 1725 1157 790 592 489 428 380
1670.0 329 288 253 213 179 154 135 122 108 97
1710.0 89 77 64 56 52 45 43 43 44 48
1750.0 56 62 65 60 48 33 22 13 10 6
1790.0 4 2 0 0 0 4 7 6 5 6
1830.0 9 10 11 13 13 17 20 27 36 43
1870.0 56 74 90 100 100 92 90 84 69 54
1910.0 44 39 36 32 29 27 30 31 29 26
1950.0 24 24 26 25 21 18 16 15 14 10
1990.0 10 9 12 14 13 18 23 26 25 26
2030.0 26 23 19 19 18 19 21 24 27 32
2070.0 34 37 42 41 32 25 24 25 25 25
2110.0 26 27 28 27 26 24 25 24 21 19
2150.0 18 14 12 15 20 19 17 19 20 25
2190.0 28 32 32 34 38 35 32 31 30 30
2230.0 30 31 32 32 30 31 32 33 35 35
2270.0 34 34 34 33 32 32 34 35 32 30
2310.0 32 34 32 31 29 31 29 28 25 25
2350.0 23 20 20 21 25 25 25 26 20 18
2390.0 19 20 21 20 18 18 20 21 20 22
2430.0 23 25 26 29 33 32 32 35 37 33
2470.0 27 23 22 23 22 19 19 18 16 19
2510.0 20 16 13 15 16 15 16 16 20 22
2550.0 23 26 27 26 25 25 25 24 27 30
2590.0 29 32 35 39 43 45 44 45 46 48
2630.0 51 57 63 64 59 55 48 44 36 27
2670.0 29 26 22 21 19 18 21 20 16 17
2710.0 17 20 21 21 18 18 19 17 14 17
2750.0 17 16 13 14 16 17 15 16 18 17
2790.0 15 19 21 16 17 23 22 21 21 20
2830.0 25 31 34 33 32 34 30 25 25 24
2870.0 22 22 22 24 26 27 34 40 42 43
2910.0 45 46 45 48 51 48 50 50 48 48
2950.0 43 33 32 37 37 36 33 33 34 37
2990.0 43 46 56 66 82 112 140 168 191 216
3030.0 247 274 298 321 336 335 318 279 224 181
3070.0 153 140 135 127 116 107 97 85 79 74
3110.0 72 66 55 55 63 61 55 50 50 46
3150.0 41 39 35 32 32 31 34 39 42 44
3190.0 40 38 43 46 50 59 66 69 67 61
3230.0 59 54 50 49 51 48 42 35 30 25
3270.0 25 25 23 21 21 23 23 25 26 23
3310.0 22 24 22 28 37 29 25 27 24 26
3350.0 31 29 31 36 39 39 37 42 51 63
3390.0 86 114 140 182 240 304 362 399 409 392
3430.0 364 319 265 218 162 110 79 66 66 68
3470.0 72 80 94 116 137 149 164 181 189 200
3510.0 207 200 189 181 163 140 128 106 83 65
3550.0 51 42 31 27 24 23 26 26 26 27
3590.0 23 15 11 17 19 19 20 22 22 18
3630.0 17 19 20 16 15 18 30 31 26 26
3670.0 19 19 22 24 28 29 28 25 19 21
3710.0 23 19 20 26 29 26 17 20 21 16
3750.0 21 24 25 27 27 26 26 30 33 28
3790.0 25 24 23 20 17 24 28 32 33 25
3830.0 29 38 49 58 58
##END=
