##TITLE=4-Trifluoromethylbenzoic acid
##JCAMP-DX=4.24
##DATA TYPE=INFRARED SPECTRUM
##ORIGIN=EPA-IR VAPOR PHASE LIBRARY
##OWNER=SRD/NIST
Collection (C) 2018 copyright by the U.S. Secretary of Commerce
on behalf of the United States of America. All rights reserved.
##CAS REGISTRY NO=455-24-3
##MOLFORM=C 8 H 5 F 3 O 2
##$NIST SOURCE=MSDC-IR
##STATE=gas
##XUNITS=1/CM
##YUNITS=ABSORBANCE
##XFACTOR=1.
##YFACTOR=0.001
##DELTAX=1.92898
##FIRSTX=549.8
##LASTX=4000.7
##FIRSTY=62.103
##MAXX=4000.7
##MINX=549.759
##MAXY=0.864253
##MINY=0
##NPOINTS=1790
##XYDATA=(X++(Y..Y))
549.759 62.103 65.553 68.173 70.963 73.173 74.433 74.933 74.413 72.813 69.973
569.049 66.113 61.483 56.703 52.463 48.443 44.283 40.593 36.613 32.603 29.703
588.339 27.473 25.503 23.863 22.563 21.133 19.713 18.673 17.653 16.583 15.653
607.628 14.723 13.633 12.803 12.213 11.683 11.223 10.603 10.083 9.743 9.713
626.918 10.113 10.673 11.583 12.483 13.603 15.243 17.673 21.513 27.913 38.353
646.208 49.843 54.833 53.673 53.073 53.633 48.923 36.653 24.113 16.223 12.533
665.498 10.823 10.003 9.783 10.123 10.493 11.193 12.303 13.473 15.333 17.863
684.787 20.913 24.873 29.793 35.493 41.603 47.893 54.563 61.383 68.153 75.253
704.077 82.793 88.943 90.843 89.883 88.933 87.243 84.103 79.883 74.713 69.423
723.367 64.743 60.633 58.963 62.733 74.633 94.103 111.263 117.063 116.893 116.913
742.657 113.933 95.073 64.403 40.573 28.223 23.523 22.493 23.523 26.173 29.913
761.947 34.633 39.923 45.153 50.523 55.763 61.123 67.463 73.383 74.423 70.273
781.236 66.613 64.373 61.413 56.833 51.133 45.203 39.353 34.273 30.053 26.763
800.526 23.923 21.373 19.423 17.523 15.483 13.773 12.293 10.923 9.803 9.063
819.816 8.483 8.113 8.043 8.053 8.303 8.823 9.423 10.543 12.243 14.413
839.106 16.903 19.553 23.003 26.933 31.113 35.643 40.343 44.943 48.873 52.643
858.395 57.073 62.053 64.623 60.493 52.503 46.973 43.203 38.783 33.303 27.423
877.685 22.143 17.643 13.883 10.913 8.723 7.153 6.323 5.873 5.623 5.673
896.975 5.783 5.713 5.753 6.073 6.293 6.123 5.933 6.073 6.143 6.083
916.265 6.063 6.103 6.063 5.833 5.713 5.463 5.063 4.693 4.503 4.223
935.555 3.883 3.813 3.733 3.733 3.643 3.553 3.703 3.963 3.843 3.503
954.844 3.723 3.953 3.903 4.043 4.183 4.043 4.043 4.523 4.883 4.793
974.134 4.703 4.813 5.063 4.983 4.673 4.583 4.923 5.313 5.623 6.063
993.424 6.553 7.583 8.733 9.903 11.903 15.353 21.243 30.843 47.743 75.813
1012.714 110.553 136.443 143.293 142.053 141.463 133.613 106.263 69.223 43.613 31.833
1032.003 27.493 25.673 24.773 24.873 25.773 27.173 28.833 31.153 34.803 40.453
1051.293 48.463 59.603 75.553 98.053 127.333 163.323 203.723 244.143 282.733 319.853
1070.583 357.903 397.753 438.803 483.013 527.733 561.963 572.233 560.133 535.293 494.473
1089.873 423.873 333.283 252.003 195.563 160.283 136.823 120.233 108.613 100.573 95.673
1109.163 92.683 91.413 92.493 95.103 99.813 104.833 109.363 114.803 121.943 131.303
1128.452 142.613 157.083 175.123 196.763 223.163 253.653 289.363 332.193 379.593 431.583
1147.742 489.623 548.063 598.663 632.903 645.053 640.053 628.533 613.973 595.853 582.103
1167.032 582.723 596.973 619.643 642.853 656.983 655.463 631.433 585.823 528.263 473.963
1186.322 428.773 385.053 339.533 297.083 261.813 229.863 196.913 164.633 137.213 116.383
1205.611 99.813 86.683 76.053 67.503 61.663 56.963 53.053 50.693 49.043 48.253
1224.901 48.663 49.633 50.593 52.043 54.183 55.793 57.223 58.683 59.523 60.273
1244.191 61.893 63.883 65.943 67.713 69.643 71.783 73.653 75.343 76.283 76.503
1263.481 75.943 74.923 72.993 70.743 69.223 67.623 66.353 66.003 66.303 67.653
1282.771 70.003 72.913 76.373 80.813 86.283 93.183 102.333 113.793 128.133 146.713
1302.060 171.073 203.283 244.943 297.683 362.653 440.343 530.443 627.803 721.193 797.533
1321.350 847.513 864.253 841.273 777.283 679.893 563.423 443.883 334.613 246.213 184.123
1340.640 145.553 123.563 111.093 103.933 99.913 97.863 97.363 98.333 100.763 104.393
1359.930 108.113 110.363 110.153 107.083 101.063 92.123 80.863 68.623 56.883 47.013
1379.219 39.483 34.283 30.953 28.983 28.133 28.123 29.103 31.153 34.043 37.833
1398.509 42.643 48.483 55.223 62.503 69.143 73.883 75.703 75.153 74.033 72.553
1417.799 68.693 61.153 52.173 44.113 37.483 31.913 27.003 23.043 19.703 17.003
1437.089 14.763 12.993 11.683 10.683 9.903 9.283 8.823 8.323 7.823 7.483
1456.378 7.183 6.823 6.493 6.313 6.123 5.903 5.843 5.873 5.883 5.893
1475.668 5.903 5.893 5.883 5.823 5.713 5.593 5.513 5.573 5.743 6.053
1494.958 6.543 7.203 8.363 10.163 12.293 14.843 17.843 20.563 22.413 23.193
1514.248 22.903 21.883 20.083 17.463 14.643 12.483 11.093 10.293 9.743 9.203
1533.538 8.733 8.393 8.113 7.783 7.423 7.223 7.203 7.223 7.353 7.583
1552.827 7.843 8.073 8.453 8.873 9.313 9.993 10.903 11.993 13.283 14.733
1572.117 16.233 17.613 18.883 20.003 20.693 20.913 20.723 20.043 18.723 16.963
1591.407 15.083 13.153 11.323 9.703 8.283 7.103 6.273 5.793 5.573 5.493
1610.697 5.513 5.563 5.653 5.853 5.983 5.973 5.973 5.883 5.783 5.633
1629.986 5.533 5.473 5.373 5.433 5.393 5.293 5.273 5.333 5.363 5.353
1649.276 5.453 5.513 5.483 5.463 5.403 5.443 5.543 5.553 5.503 5.513
1668.566 5.573 5.753 6.013 6.193 6.423 6.763 7.253 7.743 8.463 9.383
1687.856 10.343 11.433 12.633 13.863 15.123 16.433 17.693 18.963 20.113 21.333
1707.146 22.723 24.063 25.083 25.863 26.543 27.303 28.213 28.993 29.533 30.033
1726.435 30.773 31.953 33.483 35.533 38.963 44.163 51.463 61.603 74.583 91.103
1745.725 111.583 137.083 168.683 208.743 259.143 322.183 401.263 488.583 568.203 618.733
1765.015 633.253 630.093 620.043 583.603 497.953 390.973 298.273 230.173 180.423 141.713
1784.305 110.783 85.823 66.633 52.343 42.033 34.793 30.083 27.063 25.363 24.673
1803.594 24.783 25.533 26.633 27.723 28.773 29.563 29.973 29.943 29.553 28.863
1822.884 27.603 25.793 23.683 21.273 18.953 16.953 14.973 13.023 11.233 9.693
1842.174 8.303 7.173 6.293 5.503 4.903 4.463 4.163 4.013 3.833 3.653
1861.464 3.573 3.543 3.633 3.723 3.743 3.873 4.113 4.283 4.423 4.583
1880.754 4.683 4.833 4.893 4.803 4.773 4.643 4.513 4.443 4.313 4.293
1900.043 4.453 4.693 5.013 5.443 5.913 6.403 6.813 7.083 7.283 7.323
1919.333 7.333 7.353 7.483 7.653 7.793 7.973 8.123 8.283 8.343 8.233
1938.623 7.983 7.653 7.353 7.013 6.643 6.243 5.793 5.303 4.853 4.433
1957.913 4.063 3.873 3.793 3.703 3.483 3.323 3.253 3.123 3.043 3.023
1977.202 3.043 2.993 2.973 2.993 2.943 2.943 2.953 2.993 3.073 3.003
1996.492 2.893 2.813 2.733 2.583 2.473 2.383 2.273 2.183 2.073 1.973
2015.782 1.903 1.843 1.783 1.733 1.593 1.463 1.413 1.373 1.2832 1.2486
2035.072 1.2403 1.1601 1.145 1.1665 1.196 1.2346 1.3234 1.453 1.513 1.583
2054.362 1.693 1.793 1.853 1.913 2.003 2.053 1.973 1.853 1.823 1.763
2073.651 1.643 1.543 1.543 1.533 1.513 1.473 1.453 1.463 1.443 1.493
2092.941 1.553 1.533 1.563 1.603 1.623 1.733 1.783 1.833 1.923 1.963
2112.231 2.023 2.053 2.003 1.953 1.893 1.913 1.923 1.893 1.953 1.983
2131.521 1.983 2.033 2.073 2.083 2.063 2.103 2.243 2.333 2.443 2.563
2150.810 2.623 2.723 2.793 2.793 2.803 2.843 2.883 2.873 2.803 2.603
2170.100 2.473 2.353 2.213 2.173 2.113 1.993 1.873 1.753 1.603 1.563
2189.390 1.633 1.633 1.653 1.753 1.783 1.823 1.813 1.823 1.883 1.883
2208.680 1.983 2.073 2.133 2.223 2.283 2.383 2.493 2.543 2.553 2.533
2227.970 2.563 2.573 2.553 2.483 2.443 2.463 2.403 2.343 2.363 2.403
2247.259 2.393 2.323 2.303 2.383 2.393 2.403 2.433 2.353 2.293 2.433
2266.549 2.603 2.583 2.563 2.733 2.873 2.913 2.963 3.003 3.133 3.323
2285.839 3.473 3.623 3.783 3.803 3.823 3.913 3.903 3.873 3.733 3.563
2305.129 3.543 3.553 3.413 3.273 3.253 3.333 3.363 3.313 3.323 3.353
2324.418 3.343 3.303 3.283 3.323 3.303 3.323 3.433 3.413 3.413 3.523
2343.708 3.583 3.513 3.513 3.573 3.513 3.533 3.493 3.343 3.303 3.253
2362.998 3.213 3.213 3.133 2.983 2.873 2.793 2.583 2.423 2.463 2.483
2382.288 2.453 2.423 2.313 2.263 2.233 2.133 2.113 2.083 2.023 2.043
2401.578 2.073 2.083 2.113 2.053 1.893 1.823 1.823 1.883 1.973 1.953
2420.867 1.983 2.063 2.073 2.103 2.073 1.963 2.003 2.073 2.113 2.213
2440.157 2.173 2.013 1.853 1.853 1.873 1.823 1.763 1.743 1.773 1.763
2459.447 1.673 1.653 1.753 1.793 1.713 1.673 1.723 1.653 1.693 1.873
2478.737 1.893 1.933 1.923 1.873 1.803 1.803 1.853 1.753 1.703 1.713
2498.026 1.683 1.693 1.723 1.673 1.573 1.583 1.613 1.453 1.319 1.3104
2517.316 1.2146 1.1677 1.175 1.0981 1.12 1.087 1.0145 1.0626 1.0165 0.9322
2536.606 0.9475 0.9427 0.9566 0.9565 0.9618 0.9565 0.9739 1.0424 0.9447 0.9205
2555.896 0.9724 0.9561 0.8854 0.8747 0.9613 0.9341 0.8769 0.8513 0.8427 0.9263
2575.186 0.9033 0.8786 0.877 0.8025 0.8418 0.9506 0.9645 0.921 0.8718 0.8781
2594.475 0.9743 1.0695 0.9847 0.921 0.9186 0.9096 0.9655 0.958 0.9573 0.9151
2613.765 0.9436 1.0708 1.1298 1.1343 1.129 1.2301 1.373 1.493 1.623 1.713
2633.055 1.883 1.963 2.023 2.133 2.203 2.173 2.003 1.873 1.663 1.523
2652.345 1.443 1.3201 1.2054 1.0213 0.8734 0.8502 0.8478 0.814 0.7879 0.7794
2671.634 0.8241 0.9014 0.9088 0.8185 0.7736 0.7984 0.8198 0.8917 0.9414 0.9225
2690.924 0.9541 0.9254 0.867 0.8328 0.8062 0.8578 0.7968 0.7926 0.845 0.7438
2710.214 0.6723 0.686 0.6921 0.7578 0.875 0.7907 0.6357 0.5865 0.6376 0.6546
2729.504 0.7378 0.8242 0.6647 0.4967 0.4825 0.4935 0.4636 0.38477 0.334339 0.36824
2748.794 0.36636 0.40176 0.42108 0.40801 0.33419 0.2743 0.40284 0.4756 0.42205 0.491
2768.083 0.7266 0.8057 0.7158 0.6629 0.6298 0.7317 0.8481 0.8786 0.8923 0.8918
2787.373 0.94 1.0259 1.035 0.9535 0.8024 0.8701 0.9602 0.8843 1.0044 1.1208
2806.663 1.0448 0.9382 0.8971 1.005 1.0983 1.1193 1.0629 1.0976 1.2858 1.2512
2825.953 1.363 1.433 1.463 1.583 1.603 1.763 1.773 1.663 1.743 1.833
2845.242 1.853 1.943 1.973 1.933 1.843 1.783 1.733 1.613 1.523 1.443
2864.532 1.393 1.403 1.443 1.423 1.363 1.413 1.423 1.3185 1.333 1.2992
2883.822 1.2334 1.2099 1.065 0.9454 0.9161 1.0478 1.0907 0.8896 0.8907 1.0026
2903.112 0.9232 0.8725 0.9417 0.8957 0.8603 0.9501 1.1372 1.2633 1.2642 1.3091
2922.401 1.513 1.723 1.873 1.993 2.183 2.333 2.343 2.523 2.653 2.623
2941.691 2.583 2.553 2.453 2.193 1.953 1.803 1.563 1.3305 1.256 1.2341
2960.981 1.1196 0.9151 0.8627 0.8717 0.8534 0.9055 0.7291 0.7071 0.9295 0.8954
2980.271 0.8521 0.8798 0.9586 1.0547 1.1661 1.1829 1.0357 0.9837 1.0218 1.1237
2999.561 1.1983 1.1702 1.1703 1.1943 1.2574 1.3196 1.413 1.403 1.563 1.753
3018.850 1.583 1.593 1.673 1.543 1.443 1.403 1.2388 1.2301 1.2619 1.2538
3038.140 1.3148 1.3069 1.1789 1.0948 1.2389 1.2746 1.3108 1.383 1.433 1.623
3057.430 1.843 2.033 2.213 2.453 2.773 3.153 3.383 3.543 3.773 3.853
3076.720 4.003 4.203 4.253 4.263 4.383 4.423 4.413 4.413 4.233 3.973
3096.009 3.723 3.443 3.303 3.263 3.003 2.733 2.663 2.693 2.643 2.573
3115.299 2.493 2.373 2.373 2.333 2.203 2.143 2.033 1.883 1.843 1.863
3134.589 1.803 1.633 1.613 1.583 1.463 1.413 1.373 1.2579 1.1515 0.9634
3153.879 0.8239 0.9189 0.8654 0.6192 0.5167 0.41262 0.38382 0.5905 0.6853 0.5437
3173.169 0.39866 0.39373 0.5319 0.5446 0.5336 0.5908 0.57 0.4863 0.38537 0.40482
3192.458 0.4354 0.4749 0.41285 0.27 0.173 0.12 0.103 0.17 0.18 0.3185
3211.748 0.5107 0.4423 0.34376 0.4557 0.4889 0.35461 0.37456 0.5098 0.5217 0.42168
3231.038 0.41555 0.39769 0.41383 0.4713 0.36742 0.4278 0.467 0.38525 0.3764 0.42186
3250.328 0.38674 0.34471 0.3929 0.3119 0.214 0.196 0.36773 0.216 0.017 0.177
3269.617 0.2559 0.2871 0.2915 0.35929 0.4361 0.46 0.38533 0.39218 0.42715 0.4628
3288.907 0.4688 0.3223 0.196 0.219 0.42828 0.38222 0.2637 0.2369 0.16 0.205
3308.197 0.251 0.161 0.146 0.2581 0.36098 0.33139 0.219 0.199 0.36392 0.34818
3327.487 0.2589 0.38922 0.34642 0.2687 0.4356 0.574 0.4514 0.558 0.6318 0.5941
3346.777 0.7066 0.6745 0.4853 0.4572 0.5493 0.5235 0.5735 0.5453 0.4634 0.5736
3366.066 0.6185 0.4424 0.42388 0.5342 0.5238 0.6195 0.7766 0.7453 0.7638 0.7884
3385.356 0.8859 0.9677 0.9068 0.8217 0.7553 0.8074 0.7514 0.5673 0.6227 0.7188
3404.646 0.7138 0.6394 0.4336 0.41091 0.4199 0.4503 0.5622 0.5225 0.5941 0.5548
3423.936 0.5167 0.6176 0.5489 0.6201 0.7017 0.6018 0.6625 0.6876 0.5069 0.42774
3443.225 0.4815 0.4632 0.4451 0.4744 0.38659 0.442 0.5394 0.4857 0.34972 0.284
3462.515 0.3084 0.4744 0.5218 0.5075 0.7472 0.8723 0.9064 0.9495 0.9541 1.0291
3481.805 1.1874 1.483 1.723 1.783 1.843 2.013 2.303 2.643 3.073 3.743
3501.095 4.313 4.713 5.083 5.683 6.223 6.523 6.633 6.603 6.623 6.483
3520.385 6.143 5.593 5.053 4.513 4.103 3.713 3.313 3.063 2.773 2.603
3539.674 2.533 2.713 2.913 2.803 3.143 3.753 4.353 5.413 6.793 8.663
3558.964 11.133 14.673 19.843 27.443 38.523 54.653 77.823 110.073 151.213 196.703
3578.254 237.343 261.733 265.533 253.583 229.123 190.173 139.913 90.363 53.013 30.933
3597.544 19.423 13.463 9.933 7.693 6.173 5.013 4.443 4.013 3.423 2.943
3616.833 2.773 2.713 2.533 2.433 2.413 2.243 2.053 1.923 1.953 1.993
3636.123 2.053 2.033 1.993 1.983 1.953 1.953 1.893 2.023 2.153 2.013
3655.413 1.793 1.693 1.643 1.493 1.463 1.311 1.1094 1.1096 0.9825 0.9061
3674.703 0.7872 0.7489 0.9237 1.0624 1.0033 0.9274 0.9173 0.9033 1.0124 1.0426
3693.993 0.9654 1.0259 1.0452 1.0296 1.0989 1.1734 1.3214 1.343 1.2481 1.0608
3713.282 0.8772 0.8032 0.7763 0.7867 0.8912 0.8415 0.8387 0.7763 0.7572 0.8299
3732.572 0.6084 0.5866 0.8177 0.8565 0.6021 0.5366 0.631 0.7328 0.781 0.5818
3751.862 0.4411 0.4355 0.4653 0.5292 0.519 0.4494 0.481 0.5059 0.551 0.529
3771.152 0.4647 0.541 0.5119 0.5308 0.5844 0.611 0.5412 0.4572 0.6778 0.6429
3790.441 0.39647 0.34717 0.38984 0.35141 0.2395 0.164 0.128 0.3188 0.41057 0.39182
3809.731 0.32952 0.35582 0.4952 0.40239 0.2819 0.337838 0.456 0.42475 0.3288 0.3015
3829.021 0.2824 0.214 0.179 0.149 0.15 0.2508 0.231 0.3086 0.4677 0.42314
3848.311 0.39386 0.3201 0.2877 0.32929 0.231 0.089 0.212 0.39199 0.37519 0.39266
3867.601 0.123 0 0.2694 0.35327 0.2938 0.195 0.148 0.3069 0.3149 0.154
3886.890 0.109 0.182 0.2838 0.3289 0.3045 0.171 0.159 0.221 0.34422 0.4433
3906.180 0.41017 0.36025 0.217 0.204 0.2878 0.2346 0.184 0.2339 0.3745 0.39807
3925.470 0.36943 0.316 0.284 0.2361 0.2754 0.36087 0.42206 0.5172 0.362 0.286
3944.760 0.3121 0.2375 0.3122 0.482 0.4886 0.2781 0.22 0.2675 0.32698 0.39072
3964.049 0.3213 0.2962 0.2614 0.2901 0.37597 0.37624 0.211 0.165 0.2557 0.173
3983.339 0.203 0.2771 0.232 0.192 0.064 0.039 0.17 0.175 0.072 0.072
##END=
