##TITLE=3-Fluoropropiophenone
##JCAMP-DX=4.24
##DATA TYPE=INFRARED SPECTRUM
##ORIGIN=EPA-IR VAPOR PHASE LIBRARY
##OWNER=SRD/NIST
Collection (C) 2018 copyright by the U.S. Secretary of Commerce
on behalf of the United States of America. All rights reserved.
##CAS REGISTRY NO=455-67-4
##MOLFORM=C 9 H 9 F O
##$NIST SOURCE=MSDC-IR
##STATE=gas
##XUNITS=1/CM
##YUNITS=ABSORBANCE
##XFACTOR=1.
##YFACTOR=0.001
##DELTAX=1.92898
##FIRSTX=549.8
##LASTX=4000.7
##FIRSTY=6.514
##MAXX=4000.7
##MINX=549.759
##MAXY=0.219564
##MINY=0
##NPOINTS=1790
##XYDATA=(X++(Y..Y))
549.759 6.514 6.124 6.284 6.894 6.844 7.024 7.524 7.704 8.214 8.224
569.049 7.654 7.884 8.594 8.044 7.234 6.784 7.114 7.404 7.114 7.104
588.339 7.004 6.484 5.984 5.884 5.674 5.114 4.844 5.004 4.934 4.294
607.628 3.264 3.354 3.804 3.464 3.124 2.654 3.214 4.104 4.334 4.864
626.918 5.164 5.334 5.574 5.854 6.384 6.634 6.864 7.244 7.684 7.734
646.208 7.614 7.634 7.724 7.924 8.354 9.104 9.274 10.424 11.914 12.884
665.498 14.484 16.434 18.884 21.534 24.054 26.214 28.414 30.764 32.184 31.244
684.787 28.914 26.724 24.734 23.304 21.424 19.484 17.894 16.254 14.744 13.624
704.077 13.084 12.734 12.584 12.864 13.664 14.684 15.674 16.914 18.374 19.814
723.367 20.934 21.854 23.014 23.754 23.914 23.814 23.454 22.244 20.544 19.094
742.657 18.344 17.904 17.314 16.944 16.964 17.384 18.204 19.644 21.334 23.454
761.947 26.274 29.244 32.444 36.374 40.814 45.724 51.224 55.984 57.924 57.874
781.236 58.704 60.204 60.314 57.484 52.984 48.384 44.034 39.924 35.254 29.874
800.526 25.264 21.824 18.964 16.534 14.274 12.504 11.294 10.694 10.174 10.174
819.816 10.114 8.734 8.434 11.274 12.894 13.174 14.954 17.414 19.824 22.474
839.106 26.294 30.594 35.854 42.244 48.974 55.494 61.914 67.834 72.514 75.824
858.395 77.354 77.794 76.954 74.684 72.404 70.674 69.994 71.104 72.604 72.494
877.685 70.274 67.344 65.584 62.794 58.634 54.044 47.414 40.244 34.944 31.464
896.975 28.994 27.194 25.124 22.864 19.974 17.544 16.134 14.484 12.894 10.884
916.265 9.364 8.694 8.004 7.484 6.834 6.584 7.014 7.274 7.454 7.944
935.555 8.314 8.804 9.524 10.014 10.654 11.504 12.644 13.874 14.784 15.824
954.844 17.084 17.634 18.414 19.684 20.434 20.564 20.254 19.654 19.534 19.454
974.134 18.804 17.424 15.494 13.994 12.454 11.214 10.374 10.054 10.514 10.444
993.424 11.014 12.864 14.204 15.924 17.574 18.564 19.684 20.034 20.264 20.664
1012.714 20.344 19.664 18.854 17.774 16.954 15.744 14.034 13.424 12.944 12.094
1032.003 10.754 10.124 10.094 9.284 8.524 8.074 7.694 7.224 6.784 6.274
1051.293 6.244 6.704 7.494 8.264 9.084 10.514 10.774 10.744 11.904 12.514
1070.583 13.424 13.984 13.564 13.174 12.804 13.304 14.034 13.024 11.434 10.464
1089.873 10.954 12.084 11.424 11.054 11.174 9.824 8.944 9.364 8.814 8.714
1109.163 9.224 9.274 9.874 9.384 8.424 9.164 9.444 8.824 9.604 10.614
1128.452 10.584 10.954 12.274 13.194 14.584 17.054 20.114 23.434 27.234 32.484
1147.742 38.034 42.894 45.954 49.304 54.604 60.304 67.114 73.584 76.814 77.714
1167.032 78.674 79.874 80.614 81.534 80.514 76.134 69.664 62.724 56.014 50.114
1186.322 44.984 39.364 34.324 30.334 26.514 23.344 20.884 18.854 18.564 18.904
1205.611 18.114 18.574 19.334 19.914 21.634 23.124 25.274 28.444 31.664 35.994
1224.901 41.544 47.884 55.614 63.124 72.944 85.714 99.934 116.204 133.754 152.774
1244.191 171.294 187.244 199.814 209.734 216.774 219.564 217.784 213.204 206.644 197.534
1263.481 187.424 178.354 170.064 162.044 154.744 148.264 141.014 130.804 117.804 103.344
1282.771 89.844 78.534 68.814 60.644 53.904 48.444 44.734 42.554 41.364 41.074
1302.060 41.494 42.544 43.724 44.894 46.134 47.104 47.794 48.244 48.344 48.324
1321.350 48.204 47.694 46.994 46.454 45.944 45.734 45.694 45.794 46.234 47.084
1340.640 48.244 49.424 50.464 51.174 51.364 50.724 49.504 47.524 44.734 41.344
1359.930 37.654 33.804 30.144 27.034 24.534 22.654 21.234 20.474 20.194 20.204
1379.219 20.364 20.304 19.974 19.634 19.454 19.134 18.384 17.634 16.894 16.124
1398.509 15.864 15.854 16.024 16.734 17.674 18.824 20.554 22.664 25.124 28.514
1417.799 32.744 37.784 43.774 50.984 59.514 69.024 79.434 89.834 99.584 107.724
1437.089 113.874 117.984 118.934 116.244 110.244 101.464 91.004 80.224 70.174 62.314
1456.378 56.944 53.714 52.564 52.574 52.814 53.544 55.194 57.574 60.174 62.444
1475.668 64.214 65.454 65.834 65.194 63.654 61.214 58.164 54.574 50.184 45.124
1494.958 39.474 33.874 29.124 25.004 21.714 19.174 16.904 15.074 13.884 12.764
1514.248 11.774 11.434 11.214 10.884 10.374 10.124 10.014 9.954 9.974 9.794
1533.538 9.824 9.864 9.874 9.904 10.034 10.564 11.134 11.824 12.844 13.854
1552.827 15.124 17.094 19.094 21.294 24.184 27.334 31.174 35.684 41.034 47.614
1572.117 54.964 62.984 72.354 82.444 92.304 101.404 108.664 113.704 116.294 116.024
1591.407 113.454 108.904 101.994 93.184 82.764 72.114 62.624 54.404 47.284 41.134
1610.697 35.994 31.444 27.484 24.154 21.414 18.934 16.634 14.604 13.074 12.084
1629.986 11.394 10.734 10.204 9.754 9.524 9.484 9.294 9.194 9.454 9.934
1649.276 10.414 10.934 11.874 12.764 13.584 14.764 16.234 17.834 19.594 21.224
1668.566 23.084 25.184 27.314 29.974 33.004 36.174 40.104 45.134 51.684 59.754
1687.856 69.924 82.534 97.594 115.154 135.284 155.404 173.414 190.404 203.034 211.964
1707.146 214.954 211.504 201.724 186.364 166.914 144.634 121.254 100.274 81.934 66.914
1726.435 55.144 46.244 39.424 34.474 30.704 27.854 25.744 24.014 22.714 21.544
1745.725 20.154 18.684 17.274 15.784 14.344 13.014 11.704 10.324 9.434 8.794
1765.015 7.924 7.214 6.914 6.604 6.074 5.764 5.864 5.914 5.794 5.694
1784.305 5.534 5.654 5.804 5.634 5.624 5.584 5.384 5.194 5.054 4.754
1803.594 4.344 4.134 4.014 3.894 3.854 3.764 3.594 3.454 3.364 3.144
1822.884 3.074 3.044 2.984 2.984 2.924 2.794 2.684 2.884 3.034 3.054
1842.174 3.094 3.294 3.534 3.684 3.944 4.254 4.504 4.654 4.774 4.754
1861.464 4.604 4.554 4.414 4.164 4.014 3.994 3.984 3.914 3.784 3.644
1880.754 3.544 3.464 3.394 3.374 3.184 2.834 2.524 2.344 2.174 1.974
1900.043 1.954 1.924 1.884 1.994 2.114 2.124 2.204 2.314 2.424 2.644
1919.333 2.834 2.974 3.164 3.364 3.674 3.724 3.584 3.574 3.524 3.574
1938.623 3.454 3.424 3.384 3.054 2.914 2.794 2.744 2.604 2.454 2.454
1957.913 2.374 2.254 2.034 1.834 1.844 1.794 1.684 1.784 1.874 1.824
1977.202 1.804 1.834 1.824 1.764 1.694 1.554 1.494 1.534 1.434 1.474
1996.492 1.454 1.534 1.694 1.644 1.564 1.644 1.794 1.744 1.694 1.654
2015.782 1.514 1.514 1.604 1.634 1.534 1.594 1.654 1.494 1.504 1.614
2035.072 1.594 1.624 1.784 1.684 1.554 1.564 1.664 1.804 1.794 1.554
2054.362 1.309 1.2446 1.1859 1.3075 1.454 1.3044 1.334 1.384 1.2901 1.424
2073.651 1.484 1.434 1.374 1.299 1.2624 1.3145 1.404 1.344 1.2958 1.3202
2092.941 1.444 1.494 1.484 1.454 1.334 1.2447 1.2491 1.414 1.594 1.554
2112.231 1.344 1.394 1.514 1.524 1.484 1.424 1.474 1.384 1.2876 1.354
2131.521 1.454 1.524 1.714 1.704 1.614 1.654 1.574 1.524 1.364 1.2564
2150.810 1.2774 1.1626 1.1889 1.2016 1.1314 1.1859 1.0788 1.1694 1.28 1.1449
2170.100 1.121 1.0803 1.0243 1.1847 1.3118 1.2817 1.1182 0.905 1.0627 1.083
2189.390 1.0204 1.2698 1.2715 1.0555 0.8981 0.8336 0.8571 0.9276 1.2127 1.2295
2208.680 0.9343 0.9114 0.9799 1.0206 0.9975 0.9792 1.0885 1.0761 0.9201 0.9916
2227.970 1.1096 1.1721 1.1473 1.1401 1.0843 1.0243 1.0113 0.948 0.9805 0.8492
2247.259 0.9477 1.0451 0.931 1.0122 1.0623 1.0063 0.903 0.7951 0.8682 0.9732
2266.549 1.0086 1.1951 1.1748 1.1294 1.1307 1.0358 1.2118 1.2496 1.0658 1.0107
2285.839 1.092 1.2504 1.2842 1.3213 1.334 1.384 1.604 1.674 1.754 1.864
2305.129 1.754 1.704 1.824 1.864 2.154 2.434 2.304 2.244 2.334 2.424
2324.418 2.244 2.144 2.154 2.074 2.064 2.084 2.054 1.914 1.794 1.864
2343.708 1.874 1.924 1.824 1.624 1.714 1.784 1.644 1.584 1.734 1.824
2362.998 1.594 1.494 1.584 1.494 1.404 1.434 1.474 1.374 1.2889 1.364
2382.288 1.564 1.2953 1.1003 1.2881 1.3173 1.2789 1.1642 1.2069 1.354 1.2711
2401.578 1.307 1.374 1.241 1.2875 1.394 1.344 1.414 1.574 1.654 1.594
2420.867 1.404 1.614 1.764 1.644 1.704 1.674 1.794 2.014 1.864 1.824
2440.157 2.034 2.104 1.964 1.944 2.214 2.344 2.224 2.124 2.044 2.084
2459.447 2.174 2.094 1.724 1.584 1.694 1.544 1.454 1.504 1.684 1.634
2478.737 1.354 1.3125 1.464 1.544 1.644 1.614 1.604 1.724 1.734 1.774
2498.026 1.824 1.574 1.404 1.644 1.754 1.644 1.544 1.484 1.544 1.544
2517.316 1.714 1.834 1.454 1.2312 1.3134 1.434 1.514 1.564 1.724 1.714
2536.606 1.464 1.404 1.604 1.624 1.474 1.464 1.474 1.464 1.334 1.3108
2555.896 1.2927 1.334 1.394 1.1975 1.1698 1.2855 1.384 1.464 1.534 1.604
2575.186 1.484 1.384 1.554 1.714 1.624 1.594 1.664 1.674 1.694 1.554
2594.475 1.624 1.634 1.484 1.474 1.454 1.364 1.2574 1.2747 1.2023 1.3165
2613.765 1.434 1.1357 1.1833 1.404 1.434 1.3074 1.086 1.149 1.2293 1.1913
2633.055 1.0375 0.9855 1.0774 1.1641 1.354 1.344 1.1074 1.0077 1.0589 1.1325
2652.345 0.9497 0.8645 1.0358 1.0277 0.9275 0.9759 1.1929 1.2576 1.354 1.394
2671.634 1.434 1.614 1.574 1.454 1.454 1.3101 1.1081 1.185 1.2735 1.3004
2690.924 1.2781 1.354 1.494 1.2818 1.2412 1.454 1.414 1.464 1.614 1.514
2710.214 1.2451 1.344 1.424 1.354 1.594 1.524 1.364 1.464 1.404 1.464
2729.504 1.774 1.644 1.754 1.844 1.584 1.604 1.914 2.314 2.294 1.964
2748.794 1.844 2.124 2.264 2.204 2.264 2.334 2.304 2.424 2.184 1.984
2768.083 2.024 2.134 2.164 1.954 2.014 2.104 2.354 2.354 2.204 2.334
2787.373 2.214 2.134 1.974 2.114 2.244 2.194 2.444 2.484 2.544 2.524
2806.663 2.844 3.344 3.254 3.184 3.244 3.284 3.374 3.494 3.734 4.064
2825.953 4.394 4.314 4.424 4.414 4.274 4.584 4.824 4.864 5.124 5.404
2845.242 5.184 5.194 5.734 5.904 5.844 6.234 6.544 6.664 7.134 7.804
2864.532 8.384 8.954 9.444 10.034 10.714 11.504 12.514 13.804 15.034 16.284
2883.822 17.704 19.004 20.144 20.934 21.264 21.694 22.284 22.284 21.974 21.784
2903.112 22.214 23.504 24.874 25.974 27.274 28.524 29.704 30.814 30.744 30.404
2922.401 30.404 29.814 29.164 28.344 27.324 26.924 27.184 28.054 29.914 32.774
2941.691 36.524 40.264 43.354 45.194 45.804 45.904 45.494 43.954 41.024 37.564
2960.981 33.504 30.194 28.534 27.874 28.664 30.724 33.154 36.174 39.924 44.214
2980.271 48.504 52.464 55.134 55.994 55.774 54.644 53.144 50.314 45.264 39.554
2999.561 34.704 30.294 26.424 23.334 20.354 18.014 16.434 14.984 13.704 12.944
3018.850 12.384 11.694 10.954 10.534 10.384 10.354 10.474 10.324 10.484 11.004
3038.140 11.474 11.724 11.644 11.764 11.994 11.884 11.994 12.124 12.164 12.314
3057.430 12.114 12.244 12.654 13.184 14.164 15.474 16.734 18.474 20.654 22.194
3076.720 23.574 24.554 24.844 25.034 24.734 23.604 22.174 20.204 17.994 16.244
3096.009 14.444 12.694 11.084 9.884 8.674 7.514 6.954 6.194 5.914 5.704
3115.299 4.984 4.574 4.334 3.844 3.204 2.854 2.774 3.024 3.104 2.774
3134.589 2.224 1.794 2.164 2.744 2.524 2.274 2.304 2.034 1.814 1.644
3153.879 1.874 1.964 1.974 2.104 2.084 1.914 1.784 1.634 1.574 1.904
3173.169 1.784 1.404 1.374 1.724 1.614 1.754 1.584 1.2973 1.754 1.674
3192.458 1.0206 0.9991 1.3075 1.0207 0.5934 0.7128 0.6496 0.6767 1.0226 1.0688
3211.748 0.8927 0.8392 0.7551 0.6541 1.1333 1.384 1.1114 0.7669 0.4708 0.5266
3231.038 0.8514 0.7957 1.0651 0.9384 0.35501 0.6862 0.9905 1.0522 1.0957 0.9777
3250.328 0.9023 0.8856 0.8901 0.809 0.7064 0.4867 0.5421 0.7533 0.6962 0.8758
3269.617 1.0835 0.4705 0.2351 0.8475 1.1525 1.0525 0.8188 0.42207 0.114 0.519
3288.907 0.8243 1.0802 1.1844 0.7721 0.4834 0.5284 1.1448 1.1222 0.7681 0.593
3308.197 0.693 0.9875 0.8506 0.5586 0.5208 0.884 0.901 0.84 0.8254 0.8568
3327.487 1.0454 1.0632 0.649 0.9311 1.1258 0.9576 1.0385 0.7392 0.7971 0.9054
3346.777 0.8285 1.0757 1.1873 1.1054 1.089 0.9011 0.9755 1.116 1.3232 1.764
3366.066 1.904 1.884 2.184 2.404 2.594 2.804 3.034 3.004 3.254 3.734
3385.356 3.864 4.124 4.374 4.574 4.334 4.074 4.214 3.984 3.494 3.424
3404.646 3.414 3.284 3.284 2.954 2.454 2.184 1.884 1.664 1.324 1.2027
3423.936 1.302 1.434 1.444 1.3027 1.1482 1.1464 1.364 1.1729 0.8705 0.8708
3443.225 1.0482 0.8155 0.35967 0.33659 0.6671 0.6889 0.36471 0.2783 0.7166 0.9821
3462.515 0.9258 1.027 1.1244 1.0397 0.7121 0.765 0.9583 0.8758 0.8081 0.8014
3481.805 0.4258 0.36949 0.5557 0.6048 0.5872 0.33561 0.39808 0.6722 0.9066 0.7429
3501.095 0.34959 0.216 0.186 0.2785 0.2893 0.208 0.2728 0.5113 0.5079 0.174
3520.385 0.067 0.173 0.218 0.40814 0.5248 0.333506 0.5369 0.7167 0.6274 0.8316
3539.674 0.6519 0.175 0.37351 0.4372 0.36429 0.37464 0.4993 0.8172 0.6786 0.804
3558.964 1.2108 0.8484 0.2981 0.5005 0.6605 0.522 0.3016 0.2295 0.31779 0.129
3578.254 0.35724 0.6287 0.5565 0.8202 1.1753 0.9749 0.3 0.332519 0.6218 0.5199
3597.544 0.6196 0.8145 0.6732 0.5742 0.6455 0.2608 0.4676 0.5379 0.5452 0.8904
3616.833 0.6624 0.6458 0.6155 0.5755 0.7246 0.8514 0.9198 0.9909 1.2848 0.8652
3636.123 0.6886 1.0269 0.9687 0.741 0.186 0.2248 0.2522 0.6129 0.9067 0.5543
3655.413 0.2 0 0.4364 0.7124 0.4625 0.252 0.41071 0.6326 0.35348 0.2826
3674.703 0.434 0.4894 0.8069 0.6092 0.2853 0.208 0.4915 0.6976 0.9092 0.6985
3693.993 0.2906 0.456 0.6234 0.7791 0.815 0.8719 0.939 0.7401 0.6681 0.7759
3713.282 0.6642 0.5721 0.6531 0.32196 0.31926 0.8011 0.4642 0.4915 0.5756 0.4278
3732.572 0.5828 0.6962 0.9725 1.2762 1.0925 0.8222 0.8653 0.7514 0.9889 0.9554
3751.862 0.5527 0.8491 1.2615 1.2317 0.8716 0.7045 0.7981 0.773 0.9514 0.886
3771.152 0.7078 0.6255 0.6737 0.9848 1.0019 0.949 0.9747 0.915 0.7473 0.5609
3790.441 0.108 0.116 0.4557 0.4893 0.4759 0.4674 0.37861 0.5398 0.7654 0.6967
3809.731 0.7569 0.9572 0.9546 0.6241 0.164 0.324782 1.0132 1.0779 0.8313 0.9379
3829.021 0.9134 0.5352 0.38577 0.4583 0.6453 0.7821 0.8511 0.5688 0.2941 0.182
3848.311 0.2611 0.6089 0.34853 0.4402 0.7317 0.2764 0.058 0.7249 0.8097 0.332562
3867.601 0.2824 0.136 0.027 0.048 0.4516 0.7595 0.6577 0.7598 0.9511 0.6799
3886.890 0.6706 0.9069 1.0009 1.0002 0.8716 1.1992 1.2044 0.6913 0.6116 0.9054
3906.180 1.0769 0.8678 0.4418 0.6306 1.011 1.1818 1.0468 1.2395 1.614 0.9386
3925.470 0.5344 0.4498 0.475 0.6321 0.332981 0.6726 0.9831 0.9287 1.324 1.2558
3944.760 1.2001 1.1928 1.2844 1.1972 0.9492 0.8308 0.8974 1.0269 0.7869 0.8742
3964.049 1.424 1.564 1.2728 1.1946 1.644 1.544 1.2643 1.494 1.574 1.504
3983.339 1.1803 1.1954 1.1986 1.1623 0.8408 0.9087 1.354 0.8503 0.794 1.0043
##END=
