##TITLE=4-Trifluoromethylbenzaldehyde
##JCAMP-DX=4.24
##DATA TYPE=INFRARED SPECTRUM
##ORIGIN=EPA-IR VAPOR PHASE LIBRARY
##OWNER=SRD/NIST
Collection (C) 2018 copyright by the U.S. Secretary of Commerce
on behalf of the United States of America. All rights reserved.
##CAS REGISTRY NO=455-19-6
##MOLFORM=C 8 H 5 F 3 O
##$NIST SOURCE=MSDC-IR
##STATE=gas
##XUNITS=1/CM
##YUNITS=ABSORBANCE
##XFACTOR=1.
##YFACTOR=0.001
##DELTAX=1.92934
##FIRSTX=549.9
##LASTX=3999.5
##FIRSTY=3.0004
##MAXX=3999.53
##MINX=549.863
##MAXY=0.29434
##MINY=0
##NPOINTS=1789
##XYDATA=(X++(Y..Y))
549.863 3.0004 3.2414 3.1179 3.1169 3.1905 3.3495 3.509 3.5544 3.69 3.78
569.156 3.78 3.96 4.23 4.54 4.79 4.97 5.29 5.52 5.81 6.09
588.450 6.24 6.64 7.11 7.48 7.47 7.24 7.09 6.9 6.68 6.44
607.743 6.15 5.65 5.21 4.9 4.53 4.18 3.9 3.64 3.3994 3.2714
627.037 3.1286 2.9589 2.8961 2.73877 2.761 2.7993 2.5608 2.374 2.345 2.366
646.330 2.265 2.188 2.24 2.272 2.356 2.485 2.5758 2.65884 2.69603 2.7614
665.624 2.9413 3.1038 3.209 3.1526 2.9925 2.8954 2.9241 3.0217 2.9475 2.7794
684.917 2.6025 2.5441 2.524 2.471 2.532 2.5878 2.6172 2.68066 2.7896 2.9902
704.210 3.2108 3.4176 3.6144 3.85 4.19 4.55 4.83 5.04 5.22 5.41
723.504 5.61 5.82 5.94 5.86 5.84 5.96 5.98 6.03 6.26 6.59
742.797 7.18 8.25 10.27 13.75 18.73 24.38 28.67 30.37 30.82 30.97
762.091 30.26 26.99 20.71 14.29 9.88 7.31 5.83 4.99 4.48 4.16
781.384 4.03 4.04 4.19 4.48 4.94 5.53 6.11 6.68 7.34 7.96
800.678 8.6 9.25 9.93 10.72 11.66 13.05 14.94 17.35 20.4 24.02
819.971 28.44 33.8 40.14 47.41 54.98 62.14 68.1 70.27 67.23 62.82
839.264 59 53.71 47.03 40.28 34.16 29.4 25.86 22.64 19.6 16.79
858.558 14.18 11.87 9.87 8.13 6.7 5.54 4.58 3.85 3.3348 3.0213
877.851 2.7974 2.5844 2.416 2.341 2.321 2.266 2.259 2.229 2.177 2.222
897.145 2.232 2.228 2.248 2.257 2.261 2.235 2.143 2.108 2.105 2.028
916.438 1.923 1.86 1.866 1.876 1.85 1.815 1.839 1.865 1.879 1.89
935.732 1.948 2.058 2.171 2.28 2.387 2.529 2.67301 2.8273 2.9741 3.1638
955.025 3.4133 3.544 3.5038 3.4425 3.4596 3.4774 3.5008 3.5045 3.4359 3.3769
974.318 3.3873 3.4818 3.5676 3.65 3.74 3.8 3.91 4.02 4.05 4.09
993.612 4.15 4.26 4.51 4.8 5.24 6.06 7.64 10.59 15.16 20.65
1012.905 24.74 25.81 25.71 25.83 25.54 22.97 17.38 11.69 7.94 5.96
1032.199 5.07 4.69 4.6 4.63 4.81 5.32 6.24 7.65 9.83 13.26
1051.492 18.5 26.62 38.83 55.58 75.62 95.04 109.01 116.14 118.92 118.6
1070.786 111.91 93.99 68.72 46.65 32.78 25.5 21.7 19.53 18.18 17.37
1090.079 16.96 16.78 16.87 17.36 18.14 19.06 20.14 21.35 22.63 23.9
1109.372 25.18 26.43 27.56 28.55 29.54 30.79 32.43 34.59 37.38 40.97
1128.666 45.46 50.94 57.54 65.22 74.05 84.49 96.53 110.31 125.88 142.94
1147.959 161 178.76 193.77 203.31 206.46 205.65 204.49 203.71 202.65 201.77
1167.253 201.62 202.05 202.94 202.78 198.64 188.38 171.63 150.89 130.38 113.07
1186.546 99.38 88.07 78.42 71.16 66.85 64.35 61.98 59.35 56.67 53.4
1205.840 48.01 39.59 30.03 22.43 17.82 15.24 13.66 12.49 11.52 10.82
1225.133 10.19 9.56 9.13 8.86 8.69 8.58 8.46 8.37 8.32 8.21
1244.426 8.04 7.98 7.91 7.81 7.88 7.94 7.99 8.13 8.4 8.72
1263.720 8.95 9.14 9.3 9.41 9.45 9.43 9.47 9.65 10.08 10.69
1283.013 11.61 12.95 14.6 16.69 19.4 22.99 27.66 33.82 41.95 52.44
1302.307 65.4 80.08 95.53 113.29 136.18 164.33 195.89 226.36 253.15 275.76
1321.600 290.78 294.34 284.28 261.33 227.75 186.85 144.11 106.27 77.86 58.87
1340.894 46.31 37.6 31.14 26.27 22.52 19.52 17.14 15.28 13.96 13.08
1360.187 12.48 12.08 11.81 11.64 11.66 11.82 12.12 12.63 13.29 14
1379.480 14.61 14.84 14.7 14.45 14.24 13.99 13.39 12.42 11.46 10.75
1398.774 10.32 10.09 9.94 9.93 10.01 10.17 10.44 10.74 11.04 11.18
1418.067 11.06 10.85 10.71 10.68 10.61 10.32 9.74 9 8.2 7.4
1437.361 6.63 5.91 5.29 4.76 4.26 3.82 3.4704 3.2122 3.0349 2.8835
1456.654 2.7485 2.66816 2.5841 2.5813 2.5702 2.474 2.398 2.315 2.262 2.225
1475.948 2.188 2.214 2.226 2.238 2.339 2.443 2.575 2.7706 2.9626 3.274
1495.241 3.8 4.53 5.56 6.89 8.43 10.02 11.53 12.51 12.71 12.33
1514.534 11.6 10.43 8.73 6.71 4.85 3.74 3.0637 2.6834 2.506 2.388
1533.828 2.301 2.295 2.297 2.272 2.273 2.303 2.358 2.437 2.47 2.527
1553.121 2.63991 2.7454 2.8286 2.9096 3.0282 3.209 3.4568 3.71 4.02 4.37
1572.415 4.82 5.41 6.03 6.67 7.29 7.81 8.14 8.29 8.32 8.11
1591.708 7.66 7.09 6.45 5.82 5.37 5.07 4.84 4.74 4.72 4.75
1611.002 4.82 4.79 4.77 4.71 4.57 4.37 4.14 3.85 3.587 3.397
1630.295 3.2797 3.234 3.2293 3.3039 3.425 3.5403 3.7 3.9 4.14 4.39
1649.588 4.71 5.03 5.34 5.64 5.93 6.28 6.61 6.85 7.01 7.19
1668.882 7.34 7.48 7.62 7.72 7.85 8.02 8.3 8.64 8.94 9.22
1688.175 9.55 9.92 10.4 11 11.77 12.75 14.17 16.12 18.4 21.43
1707.469 25.11 29.86 36.5 46.15 60.36 80.64 106.45 131.62 150.72 160.15
1726.762 162.23 160.66 154.32 137.57 108.09 78.1 55.15 39.07 29.09 22.38
1746.056 17.67 14.07 11.3 9.15 7.58 6.4 5.49 4.83 4.38 4.01
1765.349 3.79 3.69 3.64 3.65 3.74 3.84 3.93 4.01 4.11 4.18
1784.642 4.17 4.1 4.09 4.08 4.06 4.09 4.07 3.99 4.02 4.05
1803.936 4.1 4.2 4.29 4.36 4.32 4.23 4.16 4.03 3.84 3.6061
1823.229 3.4009 3.2182 3.0463 2.8814 2.7469 2.68428 2.65865 2.63052 2.5734 2.522
1842.523 2.511 2.476 2.455 2.484 2.521 2.518 2.509 2.496 2.5 2.462
1861.816 2.416 2.386 2.34 2.366 2.403 2.407 2.403 2.425 2.419 2.408
1881.110 2.427 2.408 2.358 2.306 2.292 2.314 2.36 2.421 2.477 2.531
1900.403 2.6275 2.7557 2.8657 2.9897 3.0921 3.144 3.1909 3.2472 3.2921 3.3871
1919.696 3.5015 3.5514 3.5636 3.5395 3.5094 3.4532 3.3589 3.2606 3.1473 3.054
1938.990 2.9623 2.8301 2.69495 2.594 2.5613 2.534 2.484 2.497 2.498 2.464
1958.283 2.437 2.374 2.332 2.342 2.344 2.312 2.216 2.165 2.122 2.079
1977.577 2.085 2.086 2.053 2.049 2.051 2.037 2.04 2.03 2.027 2.003
1996.870 2.002 2.032 2.053 2.066 2.077 2.104 2.094 2.049 2.03 2.03
2016.164 2.037 2.067 2.085 2.118 2.206 2.237 2.235 2.229 2.185 2.138
2035.457 2.105 2.025 1.958 1.942 1.867 1.771 1.735 1.686 1.645 1.677
2054.750 1.695 1.675 1.685 1.689 1.72 1.76 1.772 1.833 1.898 1.938
2074.044 2.005 2.085 2.151 2.194 2.195 2.151 2.08 2.03 1.997 1.925
2093.337 1.834 1.734 1.662 1.63 1.59 1.6 1.63 1.58 1.54 1.56
2112.631 1.55 1.51 1.49 1.53 1.54 1.49 1.5 1.55 1.58 1.56
2131.924 1.54 1.56 1.55 1.52 1.54 1.56 1.55 1.55 1.56 1.56
2151.218 1.53 1.53 1.58 1.59 1.58 1.56 1.55 1.57 1.58 1.57
2170.511 1.59 1.54 1.55 1.61 1.58 1.56 1.58 1.61 1.6 1.61
2189.804 1.62 1.61 1.646 1.674 1.698 1.736 1.775 1.796 1.802 1.821
2209.098 1.857 1.928 1.95 1.98 2.009 1.963 1.992 2.089 2.054 1.963
2228.391 1.967 2.013 2.061 2.036 1.993 2.006 2.006 1.96 1.943 1.92
2247.685 1.886 1.882 1.897 1.885 1.874 1.885 1.909 1.928 1.943 2.03
2266.978 2.105 2.13 2.143 2.189 2.268 2.307 2.338 2.413 2.428 2.453
2286.272 2.476 2.455 2.433 2.375 2.343 2.328 2.31 2.266 2.228 2.202
2305.565 2.16 2.113 2.12 2.084 2.022 2.038 2.095 2.146 2.15 2.164
2324.858 2.189 2.161 2.121 2.178 2.227 2.23 2.256 2.294 2.312 2.333
2344.152 2.331 2.277 2.266 2.278 2.251 2.211 2.169 2.15 2.127 2.126
2363.445 2.135 2.151 2.142 2.137 2.186 2.191 2.183 2.161 2.088 2.003
2382.739 1.983 2.033 1.983 1.9 1.9 1.887 1.887 1.867 1.811 1.767
2402.032 1.726 1.727 1.721 1.706 1.706 1.689 1.66 1.62 1.6 1.58
2421.326 1.56 1.6 1.59 1.56 1.57 1.57 1.57 1.6 1.63 1.61
2440.619 1.61 1.62 1.6 1.59 1.6 1.64 1.63 1.57 1.53 1.56
2459.912 1.57 1.62 1.691 1.692 1.713 1.713 1.702 1.749 1.806 1.829
2479.206 1.864 1.872 1.855 1.886 1.88 1.848 1.849 1.851 1.807 1.81
2498.499 1.805 1.768 1.736 1.706 1.717 1.701 1.63 1.63 1.666 1.61
2517.793 1.55 1.52 1.54 1.55 1.53 1.51 1.49 1.5 1.5 1.48
2537.086 1.47 1.48 1.48 1.46 1.5 1.5 1.5 1.53 1.57 1.56
2556.380 1.52 1.56 1.63 1.706 1.717 1.721 1.746 1.758 1.789 1.758
2575.673 1.737 1.793 1.836 1.843 1.838 1.831 1.86 1.94 1.949 1.876
2594.966 1.888 1.968 1.993 1.979 1.94 1.887 1.865 1.895 1.975 1.979
2614.260 1.917 1.913 1.943 1.962 1.963 1.957 1.988 2.057 2.133 2.165
2633.553 2.163 2.19 2.242 2.277 2.257 2.219 2.172 2.161 2.135 2.084
2652.847 2.147 2.248 2.272 2.326 2.419 2.514 2.64047 2.7963 2.9164 3.0279
2672.140 3.2732 3.4846 3.67 3.88 4.12 4.37 4.59 4.83 4.95 5.13
2691.434 5.36 5.62 5.95 6.27 6.67 7.11 7.59 8.25 8.99 9.81
2710.727 10.78 11.85 13 14.1 15.15 16.12 16.85 17.49 17.97 18.15
2730.020 17.99 17.61 17.15 16.39 15.46 14.56 13.71 12.81 11.89 11.07
2749.314 10.32 9.64 9.03 8.49 8.09 7.79 7.53 7.45 7.44 7.45
2768.607 7.59 7.85 8.19 8.56 8.96 9.42 9.94 10.5 11.07 11.67
2787.901 12.23 12.75 13.31 13.94 14.55 15.12 15.74 16.32 16.98 17.8
2807.194 18.72 19.78 20.91 22 22.98 23.78 24.32 24.5 24.16 23.42
2826.488 22.41 21.2 19.76 18.01 16.14 14.42 12.81 11.25 9.93 8.81
2845.781 7.77 6.86 6.11 5.5 4.92 4.45 4.09 3.75 3.5306 3.3996
2865.074 3.2484 3.0524 2.8936 2.77 2.6703 2.5808 2.5466 2.46 2.28 2.156
2884.368 2.174 2.164 2.092 2.056 1.957 1.851 1.877 1.855 1.715 1.723
2903.661 1.846 1.866 1.886 1.831 1.776 1.819 1.765 1.823 1.904 1.94
2922.955 2.013 2.014 2.096 2.157 2.17 2.246 2.3 2.345 2.343 2.283
2942.248 2.251 2.198 2.245 2.224 2.011 1.846 1.772 1.722 1.64 1.57
2961.542 1.49 1.45 1.53 1.47 1.23 1.15 1.22 1.19 1.16 1.11
2980.835 1.07 0.99 0.96 1 1.04 1.13 1.08 0.98 0.98 0.98
3000.128 1.09 1.22 1.25 1.27 1.22 1.16 1.24 1.34 1.53 1.655
3019.422 1.694 1.902 1.998 2.063 2.202 2.306 2.43 2.5432 2.70271 2.9101
3038.715 3.1495 3.3049 3.2966 3.2611 3.315 3.3877 3.2545 3.1554 3.1277 3.0093
3058.009 2.8015 2.72488 2.69686 2.5607 2.477 2.445 2.51 2.384 2.174 2.103
3077.302 2.141 2.272 2.249 2.118 2.054 2.041 1.937 1.878 2.07 2.054
3096.596 1.887 1.93 1.935 1.881 1.955 1.945 1.827 1.818 1.734 1.59
3115.889 1.47 1.46 1.44 1.34 1.25 1.22 1.25 1.2 1.07 0.91
3135.182 0.98 1.06 0.95 0.86 0.76 0.67 0.61 0.58 0.59 0.44
3154.476 0.34 0.34 0.36 0.36 0.24 0.26 0.35 0.36 0.21 0.12
3173.769 0.3 0.4 0.31 0.22 0.21 0.25 0.21 0.19 0.32 0.33
3193.063 0.18 0.09 0.08 0.09 0.11 0.09 0.05 0.22 0.33 0.32
3212.356 0.33 0.23 0.14 0.19 0.24 0.14 0.19 0.33 0.24 0.25
3231.650 0.35 0.36 0.31 0.18 0.02 0.08 0.15 0.06 0.13 0.23
3250.943 0.27 0.27 0.15 0 0.04 0.22 0.29 0.15 0.02 0.07
3270.236 0.12 0.1 0.11 0.14 0.28 0.29 0.2 0.12 0.07 0.09
3289.530 0.24 0.38 0.35 0.32 0.14 0.19 0.37 0.38 0.29 0.24
3308.823 0.32 0.35 0.33 0.3 0.28 0.25 0.35 0.43 0.34 0.25
3328.117 0.22 0.22 0.28 0.47 0.4 0.26 0.26 0.26 0.29 0.29
3347.410 0.32 0.29 0.35 0.44 0.44 0.39 0.4 0.54 0.48 0.31
3366.704 0.32 0.45 0.52 0.48 0.54 0.58 0.5 0.43 0.58 0.62
3385.997 0.64 0.85 0.87 0.87 0.94 0.99 0.98 1.01 1.11 1.16
3405.290 1.16 1.14 1.08 1.12 1.28 1.45 1.58 1.695 1.797 1.929
3424.584 2.217 2.5512 2.66019 2.69167 2.842 2.8665 2.8166 2.72985 2.5439 2.367
3443.877 2.314 2.079 1.791 1.6 1.28 1.18 1.2 0.99 0.82 0.77
3463.171 0.74 0.73 0.75 0.71 0.61 0.53 0.57 0.54 0.55 0.6
3482.464 0.59 0.74 0.66 0.49 0.47 0.47 0.47 0.49 0.62 0.72
3501.758 0.71 0.65 0.67 0.66 0.64 0.68 0.72 0.66 0.57 0.62
3521.051 0.58 0.59 0.66 0.61 0.51 0.56 0.61 0.57 0.7 0.73
3540.344 0.7 0.79 0.87 0.87 0.87 0.86 0.79 0.82 0.83 0.71
3559.638 0.7 0.68 0.7 0.75 0.66 0.66 0.73 0.76 0.83 0.95
3578.931 1.04 0.96 0.78 0.83 0.98 1.07 1.07 0.9 0.76 0.8
3598.225 0.92 0.95 0.89 0.85 0.78 0.84 0.87 0.82 0.88 0.85
3617.518 0.82 0.84 0.83 0.93 1.09 1.03 0.89 1.02 1.03 0.95
3636.812 0.99 1.02 1.04 1.13 1.23 1.16 1.04 1.07 1.11 1.07
3656.105 1.14 1.21 1.22 1.16 1.15 1.22 1.22 1.19 1.17 1.26
3675.398 1.26 1.28 1.39 1.32 1.25 1.33 1.31 1.21 1.14 1.06
3694.692 1.17 1.27 1.19 1.15 1.25 1.29 1.26 1.22 1.13 1.09
3713.985 1.15 1.26 1.36 1.25 1.18 1.35 1.39 1.26 1.27 1.28
3733.279 1.18 1.11 1.11 1.26 1.35 1.36 1.32 1.21 1.23 1.23
3752.572 1.14 1.14 1.18 1.19 1.23 1.32 1.29 1.16 1.18 1.24
3771.866 1.11 1.09 1.14 1.22 1.31 1.24 1.19 1.23 1.24 1.21
3791.159 1.28 1.3 1.31 1.34 1.28 1.25 1.39 1.37 1.25 1.26
3810.452 1.26 1.24 1.19 1.25 1.29 1.26 1.27 1.25 1.32 1.35
3829.746 1.21 1.2 1.26 1.28 1.32 1.27 1.23 1.27 1.31 1.26
3849.039 1.25 1.27 1.21 1.22 1.26 1.24 1.26 1.35 1.4 1.41
3868.333 1.36 1.23 1.19 1.28 1.3 1.37 1.37 1.28 1.29 1.28
3887.626 1.3 1.27 1.28 1.33 1.29 1.3 1.32 1.37 1.43 1.45
3906.920 1.46 1.44 1.42 1.42 1.43 1.42 1.42 1.35 1.3 1.41
3926.213 1.49 1.45 1.35 1.35 1.28 1.28 1.36 1.32 1.32 1.42
3945.506 1.43 1.29 1.33 1.48 1.53 1.43 1.39 1.38 1.3 1.29
3964.800 1.34 1.31 1.32 1.34 1.3 1.46 1.51 1.33 1.33 1.43
3984.093 1.35 1.32 1.35 1.33 1.31 1.33 1.43 1.5 1.45
##END=
