##TITLE=Phenylthiotrimethylsilane
##JCAMP-DX=4.24
##DATA TYPE=INFRARED SPECTRUM
##ORIGIN=EPA-IR VAPOR PHASE LIBRARY
##OWNER=SRD/NIST
Collection (C) 2018 copyright by the U.S. Secretary of Commerce
on behalf of the United States of America. All rights reserved.
##CAS REGISTRY NO=4551-15-9
##MOLFORM=C 9 H 14 S Si
##$NIST SOURCE=MSDC-IR
##STATE=gas
##XUNITS=1/CM
##YUNITS=ABSORBANCE
##XFACTOR=1.
##YFACTOR=0.001
##DELTAX=1.92934
##FIRSTX=549.9
##LASTX=3999.5
##FIRSTY=1.2768
##MAXX=3999.53
##MINX=549.863
##MAXY=0.1574
##MINY=0
##NPOINTS=1789
##XYDATA=(X++(Y..Y))
549.863 1.2768 1.5246 1.6614 1.39942 1.37906 1.6392 1.6393 1.42972 1.4693 1.6223
569.156 1.5593 1.5512 1.8059 1.8303 1.6463 1.7131 1.7346 1.6569 1.7222 1.7683
588.450 1.7181 1.6866 1.7297 1.9105 2.019 2.0491 2.2885 2.66 3.03 3.54
607.743 4.25 5.35 6.95 9.15 12.13 15.83 19.83 23.67 26.87 28.94
627.037 29.71 29.23 27.5 24.7 21.14 17.18 13.63 10.94 9.09 7.88
646.330 7.1 6.7 6.5 6.36 6.4 6.62 6.79 7 7.35 7.83
665.624 8.36 8.91 9.61 10.6 11.85 13.5 15.57 17.95 20.85 24.16
684.917 27.81 31.74 35.72 39.58 42.78 44.57 44.93 44.13 42.27 39.85
704.210 37.07 33.32 28.85 24.85 21.83 19.79 18.64 18.08 17.95 18.31
723.504 19.21 20.7 22.94 26.12 30.03 34.19 37.76 40.39 42.11 42.18
742.797 40.79 38.68 35.84 32.93 30.75 29.34 28.52 28.01 27.46 26.81
762.091 25.99 24.87 23.47 21.92 20.27 18.64 17.07 15.66 14.45 13.47
781.384 12.72 12.18 11.87 11.72 11.83 12.07 12.44 13.04 13.71 14.51
800.678 15.52 16.71 18.2 20.04 22.27 25 28.17 31.94 36.46 41.49
819.971 47.08 53.23 59.93 67.29 75.29 84.03 93.65 104.19 115.53 127.28
839.264 138.54 148.14 154.71 157.4 155.79 149.89 140.63 129.31 117.33 105.77
858.558 95.11 85.35 76.77 69.3 62.69 56.94 51.87 47.37 43.38 39.82
877.851 36.69 33.88 31.47 29.43 27.58 25.96 24.54 23.31 22.21 21.27
897.145 20.4 19.61 18.9 18.28 17.61 16.89 16.17 15.34 14.44 13.48
916.438 12.49 11.53 10.66 9.91 9.24 8.6 8.03 7.51 7 6.55
935.732 6.2 5.87 5.53 5.22 4.9 4.59 4.35 4.15 3.91 3.71
955.025 3.47 3.24 3.14 3.01 2.86 2.8 2.74 2.69 2.69 2.7
974.318 2.69 2.66 2.67 2.65 2.66 2.61 2.47 2.44 2.45 2.54
993.612 2.64 2.75 2.93 3.01 3.04 3.12 3.2 3.33 3.51 3.76
1012.905 4.39 5.61 7.47 9.55 10.89 11.15 11.21 10.98 10.39 9.6
1032.199 7.62 5.17 3.5 2.71 2.43 2.317 2.3335 2.38 2.43 2.59
1051.492 2.81 3.08 3.38 3.72 4.08 4.4 4.69 4.98 5.35 5.75
1070.786 6.29 6.94 7.63 8.37 9.04 9.54 9.74 9.64 9.29 8.63
1090.079 7.7 6.74 5.86 5.18 4.8 4.6 4.53 4.4 4.34 4.43
1109.372 4.39 4.22 4.04 3.69 3.33 2.97 2.52 2.0804 1.7494 1.5523
1128.666 1.463 1.41158 1.42666 1.2994 1.18 1.2568 1.185 1.044 1.085 1.131
1147.959 1.171 1.204 1.303 1.4575 1.39016 1.2692 1.33644 1.3615 1.43432 1.6093
1167.253 1.5597 1.5868 1.6365 1.6815 1.7445 1.6969 1.5902 1.5909 1.6669 1.5443
1186.546 1.623 1.6539 1.37397 1.3131 1.3089 1.43231 1.5015 1.4563 1.4775 1.3259
1205.840 1.5191 1.7721 1.7913 1.8165 2.0536 2.59 3.05 3.18 3.64 4.66
1225.133 5.62 6.73 8.02 9.46 11.17 13.14 15.55 18.55 21.91 25.59
1244.426 29.97 34.79 39.46 43.62 46.85 48.78 49.46 48.56 46.37 43.39
1263.720 39.58 35.2 30.9 26.93 23.03 19.67 16.74 13.62 10.76 8.66
1283.013 7.28 6.46 5.89 5.48 5.1 4.85 4.79 4.8 4.78 4.76
1302.307 4.76 4.8 4.78 4.75 4.81 4.86 4.89 4.84 4.76 4.69
1321.600 4.54 4.39 4.25 4.04 3.82 3.6 3.37 3.11 2.92 2.76
1340.894 2.65 2.52 2.41 2.41 2.37 2.37 2.41 2.42 2.47 2.59
1360.187 2.67 2.71 2.78 2.9 3.02 3.2 3.31 3.4 3.55 3.69
1379.480 3.79 3.91 4.06 4.16 4.34 4.54 4.69 4.86 5.05 5.2
1398.774 5.38 5.55 5.69 5.76 5.82 5.82 5.73 5.72 5.72 5.67
1418.067 5.62 5.69 5.9 6.14 6.49 6.95 7.45 7.89 8.23 8.41
1437.361 8.49 8.51 8.39 8.08 7.68 7.33 7.09 6.99 7.14 7.51
1456.654 8.09 8.93 9.89 10.9 11.96 13.16 14.54 16.13 17.82 19.34
1475.948 20.22 20.29 19.76 18.78 17.32 15.3 12.72 9.95 7.6 5.92
1495.241 4.78 4.01 3.53 3.19 2.91 2.71 2.53 2.44 2.42 2.38
1514.534 2.3174 2.279 2.2941 2.35 2.37 2.38 2.34 2.3311 2.37 2.36
1533.828 2.3201 2.3205 2.2864 2.3358 2.4 2.39 2.45 2.56 2.68 2.84
1553.121 2.97 3.15 3.43 3.67 4.08 4.61 5.25 6.1 7.12 8.37
1572.415 9.92 11.55 13.18 14.53 15.35 15.55 15.02 13.9 12.41 10.71
1591.708 8.87 7.16 5.76 4.6 3.75 3.24 2.91 2.62 2.39 2.2532
1611.002 2.1621 1.9976 1.8866 1.8228 1.7865 1.7038 1.6423 1.6601 1.6513 1.6851
1630.295 1.7073 1.6592 1.6856 1.7437 1.7924 1.8658 1.9327 1.9453 1.9051 1.8906
1649.588 1.8246 1.7142 1.6434 1.5923 1.5522 1.5555 1.4879 1.39362 1.34172 1.2531
1668.882 1.195 1.225 1.2451 1.198 1.204 1.17 1.129 1.117 1.075 1.111
1688.175 1.177 1.145 1.164 1.223 1.226 1.231 1.227 1.2689 1.3055 1.35157
1707.469 1.41609 1.42858 1.3797 1.35512 1.36648 1.35312 1.35618 1.41346 1.4659 1.4529
1726.762 1.4889 1.5359 1.5386 1.5617 1.566 1.5819 1.5775 1.568 1.6059 1.6342
1746.056 1.6204 1.5347 1.4686 1.42746 1.37802 1.2977 1.2798 1.35213 1.36584 1.36889
1765.349 1.38285 1.41716 1.4823 1.5167 1.5266 1.5611 1.6436 1.7024 1.7233 1.8306
1784.642 1.9395 2.0282 2.1526 2.2425 2.313 2.3318 2.2914 2.2797 2.2457 2.1415
1803.936 2.0477 1.999 1.935 1.8503 1.761 1.6873 1.6411 1.5896 1.5276 1.4581
1823.229 1.36269 1.2894 1.2841 1.2721 1.235 1.212 1.238 1.2928 1.299 1.33363
1842.523 1.3648 1.40745 1.501 1.5495 1.6026 1.6825 1.8247 2.0063 2.1372 2.2273
1861.816 2.34 2.5 2.6 2.72 2.87 2.98 3.04 3.05 3.03 3.02
1881.110 3.01 2.88 2.74 2.64 2.5 2.3211 2.1553 1.9948 1.85 1.7221
1900.403 1.6314 1.586 1.5385 1.5343 1.5235 1.4859 1.4917 1.5548 1.6792 1.7622
1919.696 1.8173 1.8749 1.9789 2.1489 2.3156 2.46 2.6 2.73 2.84 2.97
1938.990 3.07 3.16 3.21 3.26 3.3 3.24 3.13 2.99 2.79 2.62
1958.283 2.53 2.38 2.1732 2.0215 1.8933 1.7901 1.7277 1.6368 1.5751 1.5428
1977.577 1.5002 1.4461 1.39443 1.39284 1.35501 1.3096 1.35514 1.38715 1.36301 1.36512
1996.870 1.35708 1.34077 1.34123 1.3107 1.3042 1.3045 1.3225 1.33758 1.305 1.301
2016.164 1.33224 1.3238 1.2671 1.2662 1.2992 1.3053 1.2772 1.229 1.196 1.179
2035.457 1.168 1.172 1.194 1.186 1.136 1.119 1.121 1.12 1.086 1.06
2054.750 1.073 1.057 1.073 1.117 1.142 1.117 1.043 1.04 1.101 1.104
2074.044 1.119 1.154 1.15 1.137 1.144 1.194 1.202 1.2 1.232 1.23
2093.337 1.22 1.218 1.204 1.2496 1.2931 1.2545 1.2817 1.33761 1.33823 1.34432
2112.631 1.3036 1.3058 1.33006 1.2842 1.2809 1.2577 1.227 1.217 1.206 1.216
2131.924 1.185 1.124 1.122 1.124 1.124 1.131 1.126 1.136 1.125 1.115
2151.218 1.1 1.082 1.081 1.084 1.063 1.057 1.044 1.018 1.021 1.058
2170.511 1.069 1.041 1.021 0.993 1.001 1.033 1.038 0.96 0.918 0.974
2189.804 0.971 0.972 1.008 0.983 0.959 0.986 0.975 0.96 0.945 0.943
2209.098 0.999 1.009 0.991 0.973 0.996 1.013 0.98 1.01 1.027 1.001
2228.391 1.007 0.999 0.992 1.017 1.015 1.014 1.019 1.028 1.065 1.081
2247.685 1.053 1.056 1.08 1.082 1.113 1.054 1.011 1.025 0.983 1.001
2266.978 1.063 1.085 1.055 1.058 1.053 1.032 1.018 1.008 1.03 1.012
2286.272 0.992 1.023 1.073 1.093 1.074 1.026 1.003 1.026 1.027 1.078
2305.565 1.137 1.123 1.129 1.166 1.192 1.181 1.162 1.131 1.101 1.093
2324.858 1.09 1.092 1.088 1.092 1.078 1.092 1.074 1.018 1.042 1.047
2344.152 1.023 1.041 1.019 0.942 0.894 0.895 0.898 0.904 0.931 0.943
2363.445 0.933 0.896 0.897 0.943 0.94 0.973 1.006 0.959 0.914 0.948
2382.739 0.973 0.981 0.958 0.938 0.96 0.959 0.996 1.032 0.995 0.956
2402.032 0.994 1.02 0.99 0.934 0.961 1.03 1.011 0.959 0.948 0.952
2421.326 0.958 0.975 0.951 0.929 0.945 0.902 0.895 0.913 0.89 0.858
2440.619 0.868 0.915 0.917 0.92 0.935 0.934 0.908 0.91 0.888 0.896
2459.912 0.953 0.959 0.947 0.95 0.947 0.915 0.901 0.924 0.965 1.015
2479.206 1.025 1.027 1.005 0.994 1.027 1.006 1.059 1.11 1.071 1.041
2498.499 1.049 1.112 1.087 1.015 1.035 1.034 0.993 0.99 0.97 0.943
2517.793 0.986 1.001 0.951 0.923 0.929 0.928 0.946 0.941 0.924 0.931
2537.086 0.921 0.945 0.976 0.964 0.917 0.896 0.9 0.867 0.871 0.944
2556.380 0.931 0.914 0.897 0.864 0.883 0.864 0.852 0.886 0.887 0.89
2575.673 0.946 0.943 0.954 1.007 0.994 0.924 0.885 0.858 0.897 0.956
2594.966 0.976 1.021 0.975 0.943 0.98 0.97 0.991 1.03 0.963 0.916
2614.260 0.922 0.969 0.969 0.9 0.925 0.944 0.966 0.98 0.913 0.796
2633.553 0.799 0.874 0.905 0.964 0.962 0.955 1.001 1.059 1.024 0.967
2652.847 0.965 0.989 1.008 1.074 1.088 1.029 1.013 0.968 0.947 1.009
2672.140 0.98 0.906 0.918 0.917 0.913 0.905 0.897 0.932 0.937 0.917
2691.434 0.914 0.908 0.896 0.87 0.835 0.823 0.865 0.888 0.87 0.868
2710.727 0.887 0.897 0.924 0.933 0.945 0.951 0.963 0.99 0.975 1
2730.020 1.091 1.088 1.012 1.031 1.096 1.083 1.077 1.096 1.122 1.167
2749.314 1.138 1.102 1.136 1.143 1.12 1.1 1.151 1.206 1.2497 1.35595
2768.607 1.42193 1.4989 1.5841 1.6197 1.6785 1.7614 1.8075 1.9114 2.0005 2.0476
2787.901 2.111 2.161 2.2205 2.2741 2.36 2.39 2.43 2.47 2.38 2.35
2807.194 2.4 2.39 2.36 2.37 2.35 2.39 2.44 2.39 2.38 2.48
2826.488 2.6 2.65 2.62 2.62 2.65 2.66 2.77 2.83 2.83 2.95
2845.781 3 3 3.05 3.08 3.17 3.2 3.2 3.26 3.31 3.39
2865.074 3.51 3.63 3.73 3.8 3.95 4.23 4.5 4.68 4.98 5.45
2884.368 6.01 6.51 7.21 8.13 9.01 9.84 10.75 11.73 12.59 13.23
2903.661 13.59 13.64 13.31 12.75 11.97 10.91 9.88 8.92 7.93 7.01
2922.955 6.3 5.85 5.5 5.24 5.21 5.13 5.19 5.54 6.01 6.58
2942.248 7.36 8.3 9.54 11.18 13.15 15.34 17.83 20.59 23.06 25.24
2961.542 26.94 27.93 28.28 27.93 26.85 25.22 23.33 21.31 19.26 17.33
2980.835 15.41 13.55 11.89 10.5 9.32 8.36 7.57 6.89 6.47 6.21
3000.128 6.14 6.1 6.06 6.09 6.26 6.36 6.39 6.52 6.7 6.93
3019.422 6.95 6.96 7.01 7.08 7.11 6.91 6.74 6.59 6.42 6.25
3038.715 6.15 6.28 6.65 7.04 7.5 8.32 9.18 10.15 11.63 13.52
3058.009 15.82 18.52 21.12 23.3 24.93 25.94 26.68 26.99 26.64 25.69
3077.302 24.26 22.78 21.51 20.2 18.6 16.9 15.16 13.2 11.24 9.51
3096.596 7.9 6.57 5.63 4.84 4.18 3.71 3.42 3.28 3.13 2.86
3115.889 2.73 2.73 2.66 2.7 2.73 2.54 2.38 2.51 2.49 2.3186
3135.182 2.2854 2.35 2.37 2.3108 2.1824 2.013 1.809 1.6166 1.4506 1.36391
3154.476 1.40159 1.2473 1.042 1.049 1.088 0.861 0.723 0.886 0.866 0.714
3173.769 0.749 0.821 0.913 0.865 0.726 0.746 0.723 0.635 0.54 0.656
3193.063 0.764 0.75 0.773 0.846 0.854 0.848 0.781 0.659 0.856 0.966
3212.356 0.814 0.762 0.672 0.521 0.476 0.402 0.417 0.63 0.629 0.497
3231.650 0.49 0.406 0.27 0.24 0.351 0.37 0.26 0.389 0.46 0.371
3250.943 0.474 0.459 0.391 0.371 0.24 0.3 0.32 0.21 0.363 0.34
3270.236 0.08 0.09 0.26 0.14 0.09 0.18 0.15 0.2 0.2 0.21
3289.530 0.27 0.2 0.22 0.26 0.25 0.3 0.27 0.3 0.3 0.16
3308.823 0.09 0.1 0.31 0.33 0.19 0.26 0.29 0.31 0.3 0.24
3328.117 0.2 0.21 0.17 0.16 0.11 0.1 0.31 0.43 0.32 0.2
3347.410 0.31 0.26 0.29 0.33 0.32 0.31 0.16 0.26 0.34 0.25
3366.704 0.26 0.367 0.33 0.1 0 0.21 0.31 0.25 0.23 0.37
3385.997 0.435 0.342 0.23 0.23 0.3 0.18 0.12 0.09 0.11 0.15
3405.290 0.12 0.15 0.15 0.21 0.352 0.371 0.27 0.2 0.23 0.348
3424.584 0.404 0.37 0.31 0.27 0.34 0.448 0.369 0.16 0.22 0.352
3443.877 0.352 0.28 0.27 0.34 0.351 0.377 0.37 0.31 0.31 0.36
3463.171 0.457 0.45 0.32 0.351 0.414 0.365 0.33 0.29 0.357 0.556
3482.464 0.53 0.47 0.525 0.546 0.599 0.568 0.483 0.475 0.484 0.47
3501.758 0.37 0.388 0.487 0.481 0.445 0.34 0.28 0.376 0.51 0.57
3521.051 0.517 0.393 0.439 0.468 0.511 0.592 0.619 0.544 0.414 0.507
3540.344 0.584 0.557 0.556 0.485 0.4 0.432 0.487 0.445 0.525 0.667
3559.638 0.736 0.75 0.604 0.555 0.571 0.549 0.593 0.678 0.769 0.736
3578.931 0.792 0.897 0.829 0.702 0.676 0.697 0.668 0.674 0.723 0.792
3598.225 0.743 0.684 0.696 0.708 0.75 0.818 0.754 0.745 0.88 0.973
3617.518 0.943 0.903 0.958 0.954 0.887 0.798 0.793 0.89 0.919 1.008
3636.812 0.998 0.899 1.027 1.195 1.237 1.2423 1.164 1.146 1.222 1.166
3656.105 1.108 1.186 1.182 1.096 1.079 1.061 1.065 1.142 1.17 1.227
3675.398 1.228 1.126 1.074 1.106 1.18 1.013 0.889 1.028 1.111 1.145
3694.692 1.14 1.039 0.973 1.003 1.185 1.199 1.086 1.052 1.074 1.134
3713.985 1.13 1.194 1.225 1.2408 1.35491 1.2978 1.2827 1.33233 1.34271 1.3139
3733.279 1.2699 1.2835 1.2558 1.2947 1.231 1.21 1.37478 1.4639 1.39328 1.37039
3752.572 1.4448 1.4759 1.36562 1.3204 1.3036 1.2601 1.327 1.269 1.21 1.2677
3771.866 1.225 1.202 1.215 1.196 1.219 1.166 1.037 1.005 1.037 1.039
3791.159 1.111 1.139 1.061 1.018 1.072 1.066 1.018 1.093 1.063 1.07
3810.452 1.107 1.043 1.069 1.077 1.017 0.966 1.009 0.971 0.942 0.9
3829.746 0.737 0.759 0.799 0.848 0.852 0.788 0.761 0.761 0.756 0.744
3849.039 0.84 0.826 0.732 0.662 0.696 0.77 0.786 0.78 0.698 0.691
3868.333 0.728 0.742 0.655 0.583 0.663 0.63 0.591 0.686 0.674 0.616
3887.626 0.73 0.728 0.565 0.59 0.694 0.66 0.704 0.754 0.73 0.698
3906.920 0.707 0.821 0.805 0.75 0.779 0.682 0.677 0.744 0.678 0.722
3926.213 0.843 0.833 0.807 0.788 0.712 0.709 0.754 0.798 0.829 0.841
3945.506 0.775 0.802 0.814 0.848 0.9 0.715 0.603 0.624 0.66 0.698
3964.800 0.752 0.898 0.796 0.678 0.737 0.663 0.697 0.8 0.733 0.621
3984.093 0.682 0.769 0.758 0.752 0.795 0.865 0.948 0.944 0.82
##END=
