##TITLE=cis-Bicyclo[4.3.0]nonane
##JCAMP-DX=4.24
##DATA TYPE=INFRARED SPECTRUM
##ORIGIN=NIST Mass Spectrometry Data Center
##OWNER=NIST Standard Reference Data Program
Collection (C) 2018 copyright by the U.S. Secretary of Commerce
on behalf of the United States of America. All rights reserved.
##CAS REGISTRY NO=4551-51-3
##MOLFORM=C 9 H 16
##$NIST SOURCE=MSDC-IR
##SPECTROMETER/DATA SYSTEM=HP-GC/MS/IRD
##STATE=gas
##XUNITS=1/CM
##YUNITS=ABSORBANCE
##XFACTOR=1.0
##YFACTOR=0.000002700
##DELTAX=4.0
##FIRSTX=550.0
##LASTX=3846.0
##FIRSTY=0.000797
##MAXX=3846
##MINX=550
##MAXY=0.027
##MINY=0
##NPOINTS=825
##XYDATA=(X++(Y..Y))
550.0 295 207 132 154 124 106 100 85 93 122
590.0 87 62 60 63 64 43 51 58 52 40
630.0 25 13 21 27 43 73 88 68 30 6
670.0 14 29 25 24 25 28 28 28 42 34
710.0 15 19 25 27 26 30 44 28 19 28
750.0 31 43 37 30 31 26 26 29 32 48
790.0 50 48 57 67 72 66 63 66 112 92
830.0 59 69 67 75 78 74 67 72 73 63
870.0 62 49 60 91 109 128 136 141 136 122
910.0 111 100 91 66 55 67 65 55 57 56
950.0 59 68 66 71 84 91 88 81 87 92
990.0 85 69 64 63 63 67 73 71 73 85
1030.0 89 91 98 110 118 115 117 130 125 114
1070.0 117 115 118 123 119 111 108 110 108 101
1110.0 104 114 108 115 125 119 121 122 122 126
1150.0 119 108 115 129 139 129 124 129 132 131
1190.0 140 150 140 137 143 138 145 155 152 155
1230.0 169 183 178 172 183 189 197 198 190 180
1270.0 178 183 191 194 178 174 187 196 198 185
1310.0 173 168 171 182 190 196 166 122 156 207
1350.0 218 229 220 193 215 213 184 179 174 145
1390.0 136 117 109 154 171 176 151 106 148 222
1430.0 268 288 376 529 608 686 678 679 735 711
1470.0 626 525 515 478 365 279 243 202 166 47
1510.0 19 78 55 45 85 111 111 71 34 74
1550.0 100 66 17 86 146 136 129 132 161 158
1590.0 154 156 157 159 157 151 133 119 120 125
1630.0 131 94 93 104 76 28 17 89 110 98
1670.0 80 76 79 35 34 89 58 0 17 66
1710.0 79 29 19 88 102 48 13 57 82 60
1750.0 26 55 72 75 67 45 70 86 71 75
1790.0 66 66 70 62 93 100 90 88 82 70
1830.0 71 83 87 62 58 89 102 96 92 77
1870.0 76 95 94 91 83 84 90 86 90 93
1910.0 88 84 76 82 97 94 88 87 76 81
1950.0 88 82 82 87 83 82 87 86 87 86
1990.0 76 77 80 81 79 81 77 75 79 82
2030.0 81 78 74 72 70 69 70 73 71 67
2070.0 68 70 72 71 69 71 68 69 76 77
2110.0 77 71 64 61 59 56 56 62 71 72
2150.0 65 59 61 62 57 53 56 58 57 56
2190.0 59 60 58 56 53 49 47 48 49 44
2230.0 47 47 43 44 45 47 48 48 41 35
2270.0 35 32 30 30 28 29 24 20 19 13
2310.0 5 9 13 6 6 12 21 28 26 22
2350.0 18 15 15 15 11 12 19 23 26 26
2390.0 29 39 34 30 36 33 34 39 37 39
2430.0 35 36 42 37 40 46 43 45 45 41
2470.0 40 48 52 52 50 48 53 48 45 50
2510.0 50 50 54 55 55 57 57 60 63 58
2550.0 69 77 72 76 79 77 77 80 85 88
2590.0 88 87 90 95 94 95 100 100 106 109
2630.0 111 118 126 132 139 153 167 167 170 177
2670.0 165 153 154 150 133 129 123 115 119 124
2710.0 127 132 136 131 128 129 122 122 129 132
2750.0 138 139 144 154 157 160 167 178 187 198
2790.0 198 204 234 253 264 272 294 328 347 363
2830.0 415 498 624 850 1220 1693 2209 2725 3145 3488
2870.0 3721 3743 3694 3589 3406 3258 3242 3386 3638 4101
2910.0 4846 5816 6925 7970 9032 9975 10000 9460 8946 8176
2950.0 7311 6642 6045 5059 3967 3077 2231 1518 1043 752
2990.0 597 513 456 405 371 346 309 288 270 260
3030.0 245 219 204 185 176 175 175 167 148 147
3070.0 150 151 154 145 137 136 128 129 126 118
3110.0 121 120 120 119 104 98 102 103 100 94
3150.0 87 83 88 88 85 83 84 94 97 94
3190.0 91 96 93 86 85 91 107 116 107 96
3230.0 83 83 90 88 86 82 87 95 104 108
3270.0 97 95 96 97 96 101 102 93 92 83
3310.0 82 87 93 94 87 81 83 86 87 88
3350.0 81 75 77 79 78 95 99 93 90 91
3390.0 95 87 90 92 92 94 84 78 74 78
3430.0 92 91 89 86 76 77 83 85 87 93
3470.0 94 91 81 80 89 88 97 87 64 80
3510.0 95 97 90 63 65 104 99 89 86 60
3550.0 76 89 89 68 7 36 92 84 71 27
3590.0 31 67 80 93 58 25 36 33 58 31
3630.0 3 64 92 92 43 25 71 95 111 83
3670.0 42 31 60 106 89 73 103 103 93 98
3710.0 70 65 88 61 52 60 6 43 39 3
3750.0 16 53 103 109 106 126 154 138 123 135
3790.0 143 131 120 101 104 130 110 90 103 114
3830.0 123 106 80 91 124
##END=
