##TITLE=5-Bromo-1-hexene
##JCAMP-DX=4.24
##DATA TYPE=INFRARED SPECTRUM
##ORIGIN=NIST Mass Spectrometry Data Center
##OWNER=NIST Standard Reference Data Program
Collection (C) 2018 copyright by the U.S. Secretary of Commerce
on behalf of the United States of America. All rights reserved.
##CAS REGISTRY NO=4558-27-4
##MOLFORM=C 6 H 11 Br
##$NIST SOURCE=MSDC-IR
##SPECTROMETER/DATA SYSTEM=HP-GC/MS/IRD
##STATE=gas
##XUNITS=1/CM
##YUNITS=ABSORBANCE
##XFACTOR=1.0
##YFACTOR=0.000001000
##DELTAX=4.0
##FIRSTX=550.0
##LASTX=3846.0
##FIRSTY=0.001803
##MAXX=3846
##MINX=550
##MAXY=0.01
##MINY=0
##NPOINTS=825
##XYDATA=(X++(Y..Y))
550.0 1803 1568 1390 1106 1000 1018 973 934 939 1044
590.0 991 956 1112 1298 1596 1786 1941 2134 2108 1968
630.0 1764 1587 1388 1202 1049 857 664 518 436 391
670.0 373 326 280 230 217 213 150 111 85 98
710.0 83 57 65 3 30 65 34 29 85 136
750.0 171 181 188 290 405 480 516 537 588 582
790.0 561 593 641 728 761 769 849 850 862 879
830.0 797 649 606 645 650 656 708 813 952 1098
870.0 1222 1337 1487 1687 1903 2159 2558 3156 4009 5125
910.0 6269 7056 7428 7167 6170 4987 3934 3161 2688 2334
950.0 2121 1992 1925 1926 1986 2130 2371 2739 3260 3775
990.0 4116 4222 4091 3718 3260 2848 2506 2166 1911 1779
1030.0 1674 1540 1416 1351 1291 1228 1187 1120 1097 1103
1070.0 1101 1117 1084 1034 1047 1119 1184 1254 1359 1502
1110.0 1706 1830 1859 1929 1979 1978 2040 2091 2072 2035
1150.0 2017 2008 2025 2127 2330 2616 2941 3258 3511 3678
1190.0 3710 3533 3194 2830 2568 2519 2639 2843 3093 3381
1230.0 3612 3667 3623 3560 3368 3070 2811 2541 2293 2052
1270.0 1818 1643 1500 1439 1476 1558 1613 1610 1509 1373
1310.0 1257 1133 1027 969 904 830 755 709 700 700
1350.0 765 853 932 1054 1251 1560 1958 2291 2460 2529
1390.0 2359 1913 1505 1281 1200 1241 1376 1556 1776 2035
1430.0 2383 2848 3367 3795 4090 4159 3930 3463 2937 2369
1470.0 1859 1400 1041 760 577 459 371 301 237 224
1510.0 249 245 235 228 225 225 227 234 245 261
1550.0 257 234 196 189 196 194 204 221 207 212
1590.0 245 246 283 356 419 516 659 833 1073 1449
1630.0 1968 2532 2963 3069 2839 2315 1566 1004 685 492
1670.0 386 316 258 219 199 181 166 153 123 95
1710.0 80 80 72 59 58 34 34 54 43 49
1750.0 65 41 39 60 72 62 56 66 73 75
1790.0 87 96 103 129 165 195 230 309 408 526
1830.0 646 720 724 656 556 450 348 264 206 154
1870.0 108 94 84 78 103 118 105 91 87 81
1910.0 74 54 41 47 45 51 48 47 51 57
1950.0 56 57 65 84 108 119 135 142 123 104
1990.0 90 93 83 37 22 42 38 35 43 29
2030.0 35 48 51 48 46 53 49 58 68 57
2070.0 41 38 39 19 6 18 24 24 27 28
2110.0 26 20 23 23 42 44 22 3 22 40
2150.0 47 54 34 21 32 26 26 50 42 30
2190.0 30 44 72 65 61 54 52 71 52 39
2230.0 44 54 77 85 81 76 65 55 68 77
2270.0 65 45 48 55 48 50 41 28 37 50
2310.0 38 30 33 25 12 32 42 4 13 22
2350.0 9 28 31 38 39 23 39 53 39 23
2390.0 12 16 17 17 38 39 22 26 12 5
2430.0 46 48 27 37 57 57 52 45 44 58
2470.0 41 41 67 46 41 61 65 46 40 49
2510.0 33 30 34 40 57 54 46 45 57 85
2550.0 80 65 79 62 55 75 80 80 86 73
2590.0 61 78 80 75 72 58 53 53 44 57
2630.0 73 61 54 73 87 101 106 80 69 113
2670.0 103 55 87 111 128 160 169 141 107 111
2710.0 155 184 172 168 184 212 253 282 270 243
2750.0 234 246 272 268 243 241 238 227 247 277
2790.0 290 330 372 409 463 485 542 653 789 957
2830.0 1153 1416 1715 2021 2314 2559 2758 2886 2989 3127
2870.0 3302 3421 3535 3681 3875 4140 4476 4862 5240 5655
2910.0 6159 6799 7573 8451 9179 9674 9949 9756 9095 8292
2950.0 7533 7017 6888 7107 7712 8634 9447 9865 10000 9860
2990.0 9439 8851 7831 6664 5489 4395 3524 2764 2174 1780
3030.0 1532 1367 1281 1264 1256 1286 1367 1490 1686 1945
3070.0 2292 2762 3437 4093 4362 4209 3753 2923 1937 1295
3110.0 965 743 600 542 488 414 405 406 379 342
3150.0 321 323 301 246 236 233 206 230 251 260
3190.0 274 262 258 252 227 213 237 231 185 163
3230.0 148 147 148 145 105 90 107 108 124 156
3270.0 158 107 75 74 57 65 76 69 39 35
3310.0 60 68 45 52 94 64 32 41 48 21
3350.0 0 31 42 25 33 25 28 42 57 95
3390.0 117 75 61 80 47 46 66 87 87 43
3430.0 45 86 73 67 83 87 74 67 57 69
3470.0 75 56 47 44 39 59 52 27 36 55
3510.0 62 35 25 40 55 36 13 17 68 77
3550.0 74 72 54 98 117 79 63 76 43 4
3590.0 27 89 98 77 91 99 97 102 111 100
3630.0 62 22 40 21 9 89 107 73 55 67
3670.0 77 98 97 44 34 42 97 129 91 65
3710.0 58 53 69 32 4 37 36 72 102 76
3750.0 58 59 58 51 54 88 95 93 101 91
3790.0 65 49 18 12 49 77 89 101 97 117
3830.0 146 155 135 122 142
##END=
