##TITLE=Phenyl trifluoromethyl sulphide
##JCAMP-DX=4.24
##DATA TYPE=INFRARED SPECTRUM
##ORIGIN=EPA-IR VAPOR PHASE LIBRARY
##OWNER=SRD/NIST
Collection (C) 2018 copyright by the U.S. Secretary of Commerce
on behalf of the United States of America. All rights reserved.
##CAS REGISTRY NO=456-56-4
##MOLFORM=C 7 H 5 F 3 S
##$NIST SOURCE=MSDC-IR
##STATE=gas
##XUNITS=1/CM
##YUNITS=ABSORBANCE
##XFACTOR=1.
##YFACTOR=0.001
##DELTAX=1.92898
##FIRSTX=549.8
##LASTX=4000.7
##FIRSTY=2.885
##MAXX=4000.7
##MINX=549.759
##MAXY=0.337645
##MINY=0
##NPOINTS=1790
##XYDATA=(X++(Y..Y))
549.759 2.885 3.645 4.075 4.145 3.605 3.545 3.895 4.215 5.045 5.105
569.049 4.125 3.145 3.345 3.055 2.355 2.345 2.315 2.755 2.615 2.355
588.339 2.245 1.985 2.075 1.965 1.615 1.745 1.385 1.18 1.465 1.505
607.628 1.405 1.565 1.825 1.3298 0.8309 1.465 2.365 1.435 0.8271 1.1023
626.918 0.9902 0.7835 1.0536 1.705 1.585 1.875 2.075 1.3033 1.2432 1.525
646.208 1.495 2.095 3.055 3.065 2.835 3.595 4.605 4.815 4.675 4.995
665.498 5.985 6.565 7.135 8.035 8.985 10.395 11.835 13.435 15.215 17.335
684.787 19.175 20.495 22.185 22.795 22.255 21.665 21.025 19.895 18.705 17.995
704.077 16.905 15.465 14.405 13.265 11.185 9.825 9.185 8.065 7.545 6.975
723.367 6.655 7.115 7.495 7.885 8.975 10.865 12.415 13.975 16.465 19.365
742.657 21.585 23.365 25.015 27.295 29.305 30.485 31.135 30.665 29.445 27.275
761.947 24.455 22.085 19.415 15.145 11.195 8.485 6.685 5.395 4.285 3.885
781.236 3.865 3.305 2.575 2.265 2.215 2.325 2.385 2.285 1.865 1.835
800.526 1.775 1.3629 1.555 2.005 2.355 2.085 1.2776 1.0044 1.1451 1.455
819.816 2.325 2.125 1.2442 1.945 1.895 1.3333 1.1633 1.1791 1.2625 0.6851
839.106 0.8641 0.8855 0.5836 0.8799 1.169 1.495 1.705 1.605 0.8512 0.6148
858.395 1.1533 1.595 1.385 1.0808 1.385 1.3365 1.495 1.465 1.3451 1.3373
877.685 1.695 2.035 1.735 1.685 1.755 1.565 0.8684 0.7073 0.9329 0.9829
896.975 1.1307 1.2475 1.575 1.395 1.102 1.3674 1.515 1.385 1.555 1.715
916.265 1.3103 1.1704 1.385 1.395 1.1938 1.1981 1.2369 1.405 1.755 1.735
935.555 1.385 1.375 1.1879 1.0287 1.3229 1.415 1.715 1.925 2.155 2.245
954.844 2.125 2.165 2.155 2.125 1.765 1.475 1.545 1.435 1.535 1.695
974.134 1.635 1.425 1.3104 1.3491 1.615 1.735 1.565 2.095 2.675 3.075
993.424 4.395 5.595 5.715 5.525 5.745 6.005 5.755 5.665 5.315 5.395
1012.714 5.915 6.695 8.965 11.475 12.825 13.365 13.735 13.365 13.115 13.025
1032.003 12.105 9.645 7.325 6.505 5.465 5.025 5.325 5.635 6.625 7.595
1051.293 8.445 9.445 9.805 11.155 13.415 15.465 17.905 21.185 25.305 28.395
1070.583 33.595 41.295 48.565 57.845 65.515 70.915 75.085 75.455 74.005 71.555
1089.873 67.305 60.875 54.355 52.845 55.695 59.695 67.195 79.055 94.075 112.375
1109.163 133.515 156.935 182.385 210.925 240.855 268.575 293.585 314.395 329.415 337.645
1128.452 334.465 321.295 306.775 290.565 269.865 248.605 228.165 212.155 199.975 190.285
1147.742 183.785 179.475 178.455 178.325 178.695 182.135 188.005 193.525 197.945 198.595
1167.032 192.045 180.705 165.155 146.545 127.655 108.375 89.785 72.995 58.885 48.515
1186.322 40.565 34.735 30.155 25.075 21.945 19.545 16.665 16.205 15.655 13.725
1205.611 13.065 12.665 12.535 12.055 12.445 11.705 10.065 10.395 9.935 8.525
1224.901 7.195 7.275 7.465 5.805 5.675 6.385 5.615 4.275 4.655 5.325
1244.191 4.195 4.285 4.665 4.705 4.635 4.255 4.035 3.695 3.505 3.775
1263.481 3.715 3.165 2.875 2.635 2.815 3.035 2.555 2.185 2.385 2.975
1282.771 3.005 2.595 2.515 2.815 3.285 3.345 3.125 3.325 3.585 3.535
1302.060 3.325 3.015 3.035 3.365 3.485 3.425 3.355 3.245 3.245 3.395
1321.350 3.505 3.565 3.585 3.455 3.165 3.125 3.165 3.035 2.805 2.545
1340.640 2.565 2.485 2.325 2.265 2.205 2.025 1.925 1.965 2.065 1.995
1359.930 1.895 1.945 1.875 1.865 1.845 1.835 1.895 2.025 2.095 2.005
1379.219 1.935 1.885 2.055 2.115 1.875 1.735 1.785 1.745 1.605 1.725
1398.509 1.725 1.675 1.805 1.925 1.975 2.005 2.105 2.215 2.395 2.445
1417.799 2.495 2.815 3.045 3.285 3.645 4.085 4.615 5.385 6.155 6.765
1437.089 7.445 7.955 8.095 7.885 7.665 7.645 7.285 6.645 5.855 4.955
1456.378 4.545 4.565 4.515 4.745 5.375 6.125 7.265 8.395 9.445 10.485
1475.668 11.225 11.775 11.995 11.815 11.265 10.225 8.825 7.355 6.105 4.965
1494.958 4.095 3.315 2.745 2.545 2.185 1.725 1.635 1.745 1.695 1.665
1514.248 1.565 1.605 1.715 1.575 1.555 1.565 1.425 1.595 1.565 1.385
1533.538 1.515 1.615 1.435 1.2326 1.1712 1.1284 1.3243 1.525 1.565 1.615
1552.827 1.495 1.2947 1.3535 1.535 1.565 1.815 2.105 2.255 2.555 2.735
1572.117 2.945 3.235 3.265 3.455 3.995 4.355 4.355 4.155 4.045 3.735
1591.407 3.215 2.975 2.635 2.155 2.075 2.065 1.495 1.415 1.645 1.665
1610.697 1.705 1.455 1.2836 1.2754 1.1848 1.425 1.715 1.655 1.555 1.475
1629.986 1.595 1.605 1.585 1.525 1.3589 1.3163 1.575 1.865 1.815 1.745
1649.276 1.725 1.695 1.465 1.645 2.085 2.155 2.265 2.275 2.005 1.845
1668.566 1.885 1.845 1.665 1.495 1.545 1.685 1.605 1.565 1.645 1.725
1687.856 1.635 1.3616 1.495 1.575 1.3312 1.1855 1.1321 1.2767 1.405 1.425
1707.146 1.455 1.425 1.395 1.475 1.505 1.575 1.645 1.725 1.785 1.875
1726.435 2.095 1.955 1.635 1.545 1.645 1.685 1.555 1.685 2.005 1.985
1745.725 1.885 1.895 1.845 1.825 1.975 2.035 1.875 1.775 1.685 1.645
1765.015 1.705 1.715 1.565 1.495 1.525 1.565 1.615 1.645 1.705 1.815
1784.305 1.935 1.955 2.015 2.155 2.175 2.225 2.365 2.445 2.435 2.475
1803.594 2.395 2.265 2.165 1.945 1.875 1.845 1.675 1.585 1.565 1.505
1822.884 1.565 1.565 1.465 1.3682 1.385 1.3679 1.2853 1.3001 1.2629 1.2618
1842.174 1.3731 1.445 1.465 1.575 1.675 1.735 1.805 1.905 1.865 1.925
1861.464 2.175 2.275 2.305 2.375 2.605 2.785 2.845 2.975 3.065 3.055
1880.754 3.195 3.235 3.255 3.315 3.135 2.985 2.955 2.895 2.745 2.665
1900.043 2.585 2.415 2.245 2.115 1.925 1.895 1.885 1.725 1.685 1.585
1919.333 1.515 1.625 1.635 1.565 1.735 1.875 1.815 1.665 1.685 1.935
1938.623 2.055 2.035 2.145 2.315 2.445 2.525 2.425 2.325 2.515 2.685
1957.913 2.555 2.335 2.335 2.295 2.125 2.115 1.915 1.655 1.595 1.465
1977.202 1.515 1.505 1.405 1.2975 1.2201 1.3025 1.0956 0.9776 1.0325 1.065
1996.492 1.0674 0.9424 0.8506 0.9009 1.014 1.0991 1.1471 1.1823 1.104 0.9999
2015.782 0.954 0.9009 1.0082 1.0882 0.9515 1.045 1.1778 0.9636 0.965 1.0142
2035.072 0.9326 0.869 0.7962 0.8699 0.8969 0.9967 0.9522 0.7651 0.8684 0.9031
2054.362 0.6829 0.6488 0.7939 0.8648 0.9765 0.9564 1.0174 0.9548 0.9266 1.0927
2073.651 0.9876 0.9647 0.963 1.0043 0.957 0.7229 0.8465 1.1041 1.0716 0.9746
2092.941 1.0369 1.0178 0.9464 0.9742 0.9761 1.0064 0.9467 1.0372 1.0956 1.0235
2112.231 0.9427 0.9023 0.8954 0.9052 0.8998 1.0775 1.1324 1.0659 1.1943 1.1201
2131.521 0.9176 0.7492 0.941 1.0505 1.0154 0.9184 0.9278 0.992 0.8804 0.9729
2150.810 1.1451 1.1844 1.0677 1.0139 0.9678 1 0.9916 0.908 0.9037 0.9142
2170.100 0.9466 1.0988 1.1903 1.1732 1.1684 0.9832 1.0132 1.1192 1.1512 1.1875
2189.390 1.1306 1.1537 1.2018 1.2501 1.2776 1.1702 1.1801 1.3748 1.2888 1.2494
2208.680 1.455 1.565 1.605 1.675 1.675 1.485 1.435 1.595 1.615 1.555
2227.970 1.785 1.845 1.665 1.685 1.855 2.145 2.145 1.845 1.935 2.205
2247.259 2.285 2.185 2.035 1.925 2.015 2.255 2.305 2.285 2.065 2.125
2266.549 2.285 2.175 2.255 2.385 2.425 2.375 2.305 2.295 2.345 2.495
2285.839 2.515 2.455 2.575 2.695 2.655 2.225 1.985 2.055 1.985 1.965
2305.129 2.085 2.075 2.125 2.245 2.305 2.335 2.195 2.045 2.085 1.975
2324.418 1.895 2.005 1.905 1.965 1.955 1.885 1.905 1.735 1.595 1.475
2343.708 1.575 1.795 1.635 1.3613 1.3691 1.475 1.395 1.3142 1.3516 1.2314
2362.998 1.07 1.2255 1.3457 1.2005 1.1328 1.201 1.1442 1.1484 1.0656 0.935
2382.288 1.021 1.2032 1.2602 1.2416 1.2236 1.1799 1.2319 1.3195 1.2492 1.1733
2401.578 1.0533 0.9417 0.9772 0.9385 1.0721 1.2092 1.0337 0.8788 1.0009 0.9961
2420.867 0.8758 0.9784 1.1741 1.1473 0.781 0.9073 1.2696 1.2156 1.0565 1.0443
2440.157 1.0762 0.9453 0.799 0.9471 1 1.1849 1.3363 0.9611 1.0691 1.0546
2459.447 0.8481 0.99 1.1082 1.0163 0.8768 0.8141 0.9103 1.1479 1.221 1.2792
2478.737 1.2186 0.9895 0.9859 1.1475 1.1855 0.9683 0.8597 0.792 0.5911 0.6048
2498.026 0.9978 1.2567 1.1574 1.0152 1 1.0464 0.8966 1.0581 1.0711 0.8536
2517.316 0.8455 0.9335 1.1241 0.9868 0.958 0.9131 0.7575 0.8991 0.8796 0.9067
2536.606 0.9034 0.8428 0.8724 0.9849 0.9694 0.926 0.9411 1.0103 1.2281 1.0749
2555.896 1.2165 1.545 1.405 1.0842 1.1065 1.0677 1.0758 1.1686 1.0622 1.0743
2575.186 1.0021 0.8735 0.992 1.2031 1.2732 1.2829 1.2549 1.0267 1.0635 1.1014
2594.475 1.1175 1.0509 0.8893 1.2372 1.445 1.575 1.445 1.1237 0.9983 1.0531
2613.765 1.1571 1.0942 0.988 0.9912 1.0445 1.1725 1.1578 1.0312 1.0052 0.8203
2633.055 0.7452 1.0502 1.2946 1.3103 1.0638 0.7284 0.7938 1.194 1.047 1.1148
2652.345 1.545 1.2786 1.187 1.144 1.2997 1.3397 0.9629 0.9002 1.1481 1.2081
2671.634 1.0795 1.1141 1.1367 1.3371 1.152 0.8429 0.7843 0.798 1.0427 1.1395
2690.924 0.9762 0.8375 0.9985 1.076 0.9222 1.0537 1.0018 1.0426 1.3373 1.3558
2710.214 1.0387 0.8112 0.9209 1.0815 0.8193 0.6724 0.817 0.8692 0.9191 0.7137
2729.504 0.8857 1.1582 0.9692 1.0174 1.2623 1.0593 0.6985 0.759 0.8313 0.7195
2748.794 0.7215 0.9846 1.1617 1.0935 0.9665 1.0279 1.1684 1.0167 0.9759 1.1141
2768.083 1.2515 1.2251 1.3704 1.1761 0.8252 0.8437 0.9021 1.0905 1.3431 1.2429
2787.373 0.9442 1.1402 1.1094 0.8387 0.6322 0.812 1.0333 1.0316 1.2609 1.298
2806.663 1.1965 1.0229 0.9806 1.2404 1.2525 1.2411 1.268 1.2546 1.395 1.2648
2825.953 1.127 1.2382 1.3381 1.2178 1.2266 1.3081 1.1372 0.9208 1.0419 1.0686
2845.242 1.2567 1.575 1.1916 1.1289 1.3404 1.0412 0.9363 1.395 1.635 1.395
2864.532 1.1249 0.9893 1.162 1.2795 1.0943 1.0991 1.1618 1.156 1.1197 1.069
2883.822 1.0612 1.0716 1.1117 1.2093 1.495 1.1924 0.9565 1.3072 1.2605 1.0172
2903.112 1.0457 1.1626 1.1393 0.8402 0.5769 0.7297 1.0154 1.1796 1.555 1.625
2922.401 1.1984 0.9386 1.0309 1.1591 1.2506 1.268 0.9019 0.6692 0.6998 0.8935
2941.691 1.2896 1.405 1.435 1.415 1.425 1.525 1.465 1.545 1.665 1.575
2960.981 1.435 1.2424 1.1022 1.2365 1.0313 0.9238 1.1393 1.2644 1.395 1.2665
2980.271 1.0933 1.0377 1.0964 1.3188 1.2444 1.2543 1.0965 1.1579 1.735 2.045
2999.561 2.175 1.935 1.875 2.255 2.475 2.545 2.505 2.655 2.755 3.205
3018.850 3.575 3.465 3.185 3.125 3.575 3.725 3.665 3.675 3.585 3.555
3038.140 3.645 3.545 3.335 3.405 3.585 3.995 4.385 4.895 5.485 6.125
3057.430 7.155 8.445 9.955 11.395 12.605 13.995 15.355 15.895 16.325 16.915
3076.720 16.965 15.935 14.895 14.135 13.235 12.365 11.715 11.045 10.105 9.245
3096.009 8.475 7.625 6.695 5.625 4.435 3.845 3.145 2.535 2.405 2.215
3115.299 2.245 1.985 1.715 1.525 1.3295 1.485 1.715 1.605 1.3718 1.276
3134.589 1.485 1.645 1.595 1.625 1.395 1.395 1.885 1.805 1.3321 1.3322
3153.879 1.535 1.475 1.1544 1.1856 1.3181 1.485 1.0876 0.8991 1.2175 1.1322
3173.169 1.505 1.585 1.0467 0.6373 0.7532 1.0746 1.0163 0.546 0.44161 1.1773
3192.458 1.485 1.465 1.2991 0.8048 0.6856 0.9231 1.375 1.2457 0.8743 1.0768
3211.748 0.8939 0.6918 1.2075 1.3502 0.8489 1.0647 1.405 1.0148 1.2618 1.311
3231.038 1.0287 0.9946 0.9289 0.8923 1.324 1.405 0.9045 1.0791 1.1168 0.9926
3250.328 0.5871 0.184 0.6619 1.2359 1.465 0.8842 0.774 1.0753 0.9724 0.9144
3269.617 0.8213 0.9036 0.8367 0.5604 0.8904 1.2881 1.2495 1.322 1.2765 1.3606
3288.907 1.363 1.3047 1.1667 1.2953 1.595 1.0791 0.9859 1.1762 1.0946 1.0214
3308.197 1.1801 1.745 1.695 1.505 1.415 1.221 1.2126 1.2899 0.8269 0.244
3327.487 0.2787 0.8824 1.485 1.405 0.9923 0.5428 0.5642 1.485 1.3748 1.0726
3346.777 1.2296 0.8833 1.034 0.9032 0.7169 0.8254 0.7593 0.7599 0.6131 0.5021
3366.066 0.273 0.3142 0.8529 1.3006 1.505 1.3411 0.9892 0.9834 1.2371 1.555
3385.356 1.675 1.465 1.415 1.3432 1.505 1.645 1.575 1.465 1.0908 0.6045
3404.646 0.7237 1.545 1.535 0.9848 0.9713 1.0936 1.1433 1.3634 1.575 1.3421
3423.936 1.385 1.2273 0.8547 1.045 1.2813 1.395 1.575 1.395 0.9598 0.6881
3443.225 0.8419 1.0941 1.0434 1.3671 1.545 1.3293 1.3618 1.805 2.015 1.865
3462.515 1.1817 0.9367 1.1133 1.0303 0.9249 0.7251 0.494 0.7903 1.445 1.1791
3481.805 0.6114 0.6191 1.0533 1.0828 0.8086 0.8823 1.2217 1.2467 1.3444 1.595
3501.095 1.226 1.2106 1.3239 1.1083 1.0919 1.0133 0.8499 0.7706 0.5891 1.1522
3520.385 1.545 1.3681 1.385 0.7706 0.6069 0.798 0.7507 0.5417 0.166 0.3451
3539.674 0.7544 1.1354 1.252 1.2198 0.7654 0.4737 0.9348 1.1464 1.0634 1.0342
3558.964 1.2405 1.1119 1.0507 1.1024 1.2082 1.144 0.5389 0.7514 1.3408 1.375
3578.254 1.1222 0.7694 0.6454 1.024 1.0368 0.9262 1.755 2.055 1.565 1.2727
3597.544 1.3274 1.0712 0.5867 0.6969 0.6691 0.7842 1.0682 0.7237 0.3518 0.6115
3616.833 1.0998 1.1387 1.285 1.2967 1.0538 0.886 0.6236 0.7939 1.1564 1.0676
3636.123 1.0046 1.1377 1.0429 1.0163 1.0813 1.1873 1.063 0.9133 1.0801 0.6454
3655.413 0.636 1.2159 0.6517 0.377094 0.6966 0.5671 0.4925 0.6797 0.7628 1.0935
3674.703 1.0289 0.9412 1.455 1.3111 1.0346 0.9089 0.8878 1.134 0.9952 0.7362
3693.993 1.0422 1.2876 1.2564 1.3711 1.3189 1.1687 1.1095 1.2145 1.1141 1.1282
3713.282 1.535 1.2247 0.7529 0.7831 1.0175 0.9911 0.8228 1.0792 0.9563 1.1881
3732.572 1.495 1.445 1.405 1.0741 1.2965 1.535 1.3153 0.9068 0.8884 1.0772
3751.862 0.9975 0.9837 1.365 1.465 1.1477 1.2422 1.2433 1.2577 1.3278 1.3472
3771.152 1.435 1.2867 1.0513 1.0003 1.1766 1.0932 1.0159 1.455 1.695 1.385
3790.441 1.085 0.9615 0.8327 1.0164 1.1173 0.9751 0.9252 0.8492 0.8164 0.6133
3809.731 1.1046 1.605 1.415 1.555 1.755 1.545 0.7125 0.45012 0.7606 1.0857
3829.021 1.3489 1.475 1.495 0.9573 0.5751 0.7154 1.1605 1.585 1.665 1.0927
3848.311 0.5409 0.3676 0.01 0.183 0.7484 0.7795 0.7037 1.1137 1.105 1.2918
3867.601 1.2926 0.5507 0.6291 0.8148 1.3206 1.625 1.3103 1.2566 1.445 1.0463
3886.890 1.0497 1.2781 0.758 0.381873 0.2837 1.0757 1.465 0.8486 0.6264 1.1942
3906.180 1.445 1.2511 1.395 1.049 0.517 0.5045 0.5674 0.902 1.0939 1.2375
3925.470 1.3298 1.0751 1.0495 1.1984 1.385 1.1612 0.8869 0.9438 0.8422 0.9983
3944.760 1.0767 0.9158 1.2716 1.2455 1.3583 0.948 0 0.04 0.5772 0.9712
3964.049 1.3302 1.3654 1.189 1.2708 0.5954 0.6142 1.1412 1.495 1.515 1.0273
3983.339 1.0491 1.1784 1.1917 1.0729 1.0088 1.1118 1.435 1.3008 1.3573 1.505
##END=
