##TITLE=3-Fluorobenzaldehyde
##JCAMP-DX=4.24
##DATA TYPE=INFRARED SPECTRUM
##ORIGIN=EPA-IR VAPOR PHASE LIBRARY
##OWNER=SRD/NIST
Collection (C) 2018 copyright by the U.S. Secretary of Commerce
on behalf of the United States of America. All rights reserved.
##CAS REGISTRY NO=456-48-4
##MOLFORM=C 7 H 5 F O
##$NIST SOURCE=MSDC-IR
##STATE=gas
##XUNITS=1/CM
##YUNITS=ABSORBANCE
##XFACTOR=1.
##YFACTOR=0.001
##DELTAX=1.92934
##FIRSTX=549.9
##LASTX=3999.5
##FIRSTY=1.055
##MAXX=3999.53
##MINX=549.863
##MAXY=0.09368
##MINY=0
##NPOINTS=1789
##XYDATA=(X++(Y..Y))
549.863 1.055 1.13 0.92 0.884 1.08 0.979 0.973 1.041 1.074 1.144
569.156 0.886 0.823 0.858 0.662 0.658 0.879 0.981 0.75 0.678 0.768
588.450 0.862 0.951 0.923 0.891 0.847 0.858 0.929 0.964 0.915 0.911
607.743 1.071 1.184 1.3046 1.47024 1.6316 1.8842 2.2566 2.73 3.29 3.85
627.037 4.39 4.84 5.18 5.53 5.64 5.68 5.71 5.77 5.74 5.64
646.330 5.65 5.57 5.44 5.4 5.62 6.03 6.46 6.97 7.47 7.86
665.624 8.17 8.54 9.18 10.19 12.31 15.52 14.9 11.27 9.53 8.76
684.917 8.26 7.74 7.13 6.41 5.58 4.77 4.03 3.43 2.92 2.44
704.210 2.1012 1.9 1.7606 1.6785 1.6685 1.7571 1.8317 1.907 2.0232 2.1055
723.504 2.2822 2.71 3.27 4.05 5.22 6.82 8.87 11.2 13.44 15.33
742.797 16.68 17.7 18.79 19.92 20.61 21.07 21.43 21.2 20.57 19.81
762.091 19.26 19.3 19.84 20.84 22.14 23.64 25.32 27.05 29.16 31.82
781.384 34.5 35.59 33.36 30.41 29.9 29.04 25.22 21.07 18.39 16.16
800.678 13.92 11.78 9.81 8.03 6.49 5.33 4.29 3.37 2.87 2.48
819.971 2.0966 1.832 1.6211 1.5148 1.5034 1.4251 1.3205 1.276 1.3169 1.3727
839.264 1.42832 1.4679 1.6022 1.8286 2.0446 2.3031 2.56 2.85 3.24 3.6
858.558 3.92 4.35 4.94 5.64 6.35 6.77 6.67 6.48 6.48 6.56
877.851 6.71 6.86 7.05 7.41 7.77 7.6 6.93 6.32 6.03 6.02
897.145 6.2 6.31 5.85 5.07 4.64 4.47 4.37 4.32 4.34 4.49
916.438 4.7 4.92 5.21 5.47 5.6 5.56 5.44 5.36 5.35 5.42
935.732 5.47 5.37 5.1 4.75 4.48 4.22 4.01 3.8 3.58 3.32
955.025 3.07 2.99 3 3.02 2.94 2.72 2.49 2.2152 2.0069 1.9399
974.318 1.9035 1.8675 1.8475 1.9015 1.9693 1.9685 2.022 2.1375 2.2597 2.44
993.612 2.57 2.64 2.67 2.64 2.49 2.303 2.2067 2.1723 2.1002 1.9029
1012.905 1.6859 1.508 1.3491 1.187 1.088 1.031 1.02 0.954 0.88 0.878
1032.199 0.846 0.815 0.828 0.805 0.778 0.857 0.862 0.865 0.939 0.985
1051.492 1.068 1.207 1.39429 1.5755 1.7203 1.8379 1.8809 1.9615 2.0347 2.0397
1070.786 2.0094 2.0149 2.0809 2.057 2.0176 1.8876 1.7733 1.7606 1.6536 1.6051
1090.079 1.6335 1.6399 1.7424 1.9321 2.1219 2.3208 2.64 3.16 3.89 4.76
1109.372 5.78 7.04 8.53 10.27 12.17 14.01 15.53 16.4 16.38 15.94
1128.666 15.78 16.07 16.47 16.39 15.3 13.33 10.96 8.87 7.45 6.5
1147.959 6.01 5.79 5.48 5.08 4.66 4.27 4.08 4 3.95 3.87
1167.253 3.61 3.08 2.44 1.9998 1.7083 1.3864 1.153 1.119 1.149 1.14
1186.546 1.191 1.198 1.264 1.264 1.282 1.42589 1.45398 1.7146 2.1722 2.56
1205.840 2.88 3.44 4.2 4.67 4.93 5.45 5.91 6.22 6.93 7.74
1225.133 8.66 9.91 11.55 13.52 15.91 18.97 22.54 26.72 31.44 36.5
1244.426 41.87 47.5 53.53 59.49 64.66 68.45 70.41 70.94 70.57 69.58
1263.720 68.27 66.59 63.14 55.75 45.63 36.95 31.51 28.02 25.35 23.1
1283.013 20.5 17.22 13.69 10.64 8.49 7.15 6.36 5.88 5.53 5.28
1302.307 5.06 4.87 4.73 4.59 4.39 4.07 3.73 3.48 3.24 2.96
1321.600 2.7 2.54 2.43 2.41 2.43 2.43 2.49 2.56 2.56 2.56
1340.894 2.58 2.54 2.51 2.53 2.5 2.47 2.42 2.3833 2.3939 2.46
1360.187 2.6 2.81 3.16 3.66 4.37 5.3 6.3 7.3 8.14 8.74
1379.480 9.3 9.99 10.62 10.86 10.71 10.36 9.91 9.32 8.53 7.62
1398.774 6.67 5.82 5.1 4.53 4.13 3.86 3.75 3.7 3.7 3.82
1418.067 4.03 4.33 4.71 5.28 6.04 6.95 8.05 9.29 10.7 12.33
1437.361 14.28 16.43 18.76 21.06 22.99 24.24 24.79 24.91 24.74 24.4
1456.654 23.77 22.89 21.62 19.62 17.12 14.92 13.76 13.65 14.52 16.02
1475.948 17.61 18.84 19.3 19.08 18.63 18.23 17.92 17.7 17.12 15.69
1495.241 13.49 10.92 8.64 6.92 5.72 4.88 4.36 4.04 3.87 3.77
1514.534 3.7 3.66 3.63 3.59 3.56 3.56 3.5 3.44 3.35 3.17
1533.828 2.99 2.75 2.56 2.46 2.3769 2.3893 2.44 2.48 2.58 2.71
1553.121 2.89 3.18 3.55 4.05 4.74 5.45 6.32 7.4 8.69 10.24
1572.415 12.05 14.14 16.5 18.98 21.48 23.95 26.17 28.09 29.68 30.87
1591.708 31.69 32.05 31.81 30.95 29.31 27.06 24.4 21.3 17.9 14.62
1611.002 11.96 10.03 8.75 7.78 6.88 6.03 5.27 4.6 4.03 3.58
1630.295 3.27 3.04 2.9 2.8 2.7 2.67 2.62 2.57 2.57 2.58
1649.588 2.56 2.53 2.55 2.61 2.72 2.84 2.94 3.07 3.31 3.66
1668.882 4.04 4.46 4.95 5.48 6.01 6.6 7.37 8.26 9.34 10.5
1688.175 11.65 12.92 14.29 15.75 17.38 19.17 21.28 23.85 26.73 30.35
1707.469 34.92 40.79 48.25 57.26 67.43 77.6 86.13 91.29 93.26 93.66
1726.762 93.68 93.47 92.68 89.67 81.69 69.05 54.67 40.77 29.4 20.72
1746.056 14.61 10.54 7.96 6.36 5.37 4.73 4.29 4.01 3.81 3.67
1765.349 3.57 3.45 3.36 3.3 3.26 3.18 3.09 2.98 2.88 2.77
1784.642 2.67 2.62 2.53 2.42 2.3899 2.3252 2.2591 2.1919 2.1305 2.0843
1803.936 2.0413 2.037 2.0599 2.0647 2.0671 2.1071 2.0708 2.0348 2.0579 2.0777
1823.229 2.0803 2.1118 2.1401 2.1151 2.0624 1.9974 1.9349 1.8352 1.7713 1.7526
1842.523 1.7265 1.6944 1.6919 1.6981 1.711 1.7692 1.7823 1.7998 1.8815 1.9814
1861.816 2.0384 2.0573 2.0851 2.081 2.0544 2.0685 2.0727 2.0278 1.9942 1.9512
1881.110 1.8962 1.8339 1.7672 1.6667 1.6045 1.5901 1.5743 1.5558 1.5502 1.5425
1900.403 1.5491 1.5806 1.5879 1.6205 1.6179 1.5928 1.6195 1.641 1.6901 1.7249
1919.696 1.7325 1.7587 1.8098 1.8863 1.9131 1.9022 1.9088 1.9165 1.9152 1.8786
1938.990 1.8413 1.8193 1.7805 1.7111 1.6303 1.5241 1.43167 1.3843 1.3385 1.3041
1958.283 1.244 1.196 1.146 1.121 1.109 1.084 1.084 1.074 1.084 1.099
1977.577 1.065 1.074 1.12 1.106 1.083 1.116 1.158 1.187 1.195 1.166
1996.870 1.202 1.236 1.234 1.24 1.224 1.173 1.131 1.124 1.123 1.136
2016.164 1.142 1.161 1.193 1.248 1.286 1.274 1.276 1.291 1.3398 1.3479
2035.457 1.3327 1.3424 1.3434 1.3321 1.3199 1.292 1.273 1.255 1.267 1.277
2054.750 1.244 1.253 1.256 1.236 1.209 1.219 1.23 1.203 1.18 1.177
2074.044 1.184 1.198 1.194 1.19 1.162 1.142 1.134 1.111 1.081 1.091
2093.337 1.105 1.053 1.018 0.993 0.959 0.957 0.984 0.973 0.958 0.979
2112.631 0.984 0.968 0.974 0.976 0.952 0.952 0.963 0.974 0.978 0.958
2131.924 0.958 0.971 0.961 0.947 0.957 0.974 0.958 0.946 0.928 0.907
2151.218 0.944 0.935 0.916 0.942 0.952 0.952 0.969 0.999 1.01 1.022
2170.511 1.059 1.087 1.074 1.063 1.129 1.182 1.132 1.107 1.122 1.146
2189.804 1.125 1.084 1.083 1.093 1.092 1.052 1.073 1.114 1.135 1.133
2209.098 1.117 1.124 1.08 1.044 1.053 1.069 1.062 1.05 1.098 1.119
2228.391 1.084 1.092 1.15 1.175 1.197 1.223 1.214 1.221 1.248 1.274
2247.685 1.249 1.232 1.263 1.249 1.217 1.204 1.198 1.2 1.183 1.131
2266.978 1.083 1.061 1.089 1.068 0.995 0.959 0.948 0.939 0.923 0.917
2286.272 0.897 0.89 0.917 0.936 0.933 0.884 0.874 0.92 0.914 0.908
2305.565 0.908 0.89 0.908 0.946 0.924 0.898 0.908 0.933 0.959 0.962
2324.858 0.988 0.991 0.946 0.942 0.961 0.912 0.89 0.933 0.963 0.924
2344.152 0.91 0.953 0.969 0.954 0.896 0.896 0.948 0.95 0.928 0.944
2363.445 0.941 0.953 1.002 1.012 0.994 0.968 0.976 1.018 1.041 1.044
2382.739 1.049 1.063 1.125 1.157 1.132 1.133 1.118 1.136 1.194 1.193
2402.032 1.163 1.152 1.15 1.16 1.132 1.084 1.061 1.055 1.051 1.019
2421.326 1.002 0.994 0.977 0.961 0.976 0.972 0.933 0.902 0.886 0.882
2440.619 0.891 0.894 0.867 0.906 0.91 0.865 0.875 0.872 0.852 0.853
2459.912 0.879 0.899 0.904 0.895 0.899 0.922 0.953 0.976 0.983 0.956
2479.206 0.924 0.969 0.997 1.012 1.034 1.057 1.063 1.065 1.101 1.131
2498.499 1.152 1.193 1.205 1.229 1.264 1.287 1.3078 1.3202 1.3381 1.3407
2517.793 1.3608 1.3434 1.3145 1.33 1.3429 1.287 1.27 1.235 1.166 1.148
2537.086 1.125 1.108 1.113 1.131 1.137 1.109 1.107 1.149 1.16 1.155
2556.380 1.138 1.118 1.108 1.119 1.107 1.111 1.132 1.133 1.185 1.197
2575.673 1.156 1.196 1.248 1.193 1.194 1.242 1.298 1.299 1.252 1.282
2594.966 1.284 1.272 1.3389 1.4299 1.44148 1.48309 1.5256 1.5098 1.5767 1.5963
2614.260 1.6193 1.6581 1.6174 1.5979 1.6125 1.6467 1.614 1.565 1.5648 1.5859
2633.553 1.5894 1.5346 1.48855 1.49185 1.49062 1.5024 1.558 1.5622 1.5246 1.5403
2652.847 1.5117 1.5064 1.5444 1.5647 1.5214 1.49315 1.524 1.5029 1.46689 1.49571
2672.140 1.5572 1.5865 1.6535 1.6725 1.6197 1.6609 1.8057 1.9607 2.1296 2.301
2691.434 2.55 2.94 3.43 4.03 4.78 5.74 6.87 8.24 9.93 11.72
2710.727 13.39 14.72 15.64 16.18 16.66 17.43 18.24 18.54 18.11 17.15
2730.020 15.81 14.32 12.8 11.19 9.65 8.22 6.96 5.91 5.05 4.39
2749.314 3.87 3.46 3.12 2.93 2.84 2.82 2.86 2.89 3 3.16
2768.607 3.41 3.76 4.19 4.69 5.36 6.11 6.97 8 9.04 9.99
2787.901 10.89 11.63 12.17 12.72 13.55 14.83 16.34 17.67 18.56 19.09
2807.194 19.36 19.34 19.2 19.1 18.97 18.81 18.4 17.64 16.65 15.51
2826.488 14.17 12.9 11.77 10.68 9.65 8.8 8.09 7.26 6.61 5.98
2845.781 5.28 4.65 3.98 3.42 3.04 2.79 2.53 2.2431 1.9954 1.9291
2865.074 1.8685 1.7162 1.6502 1.5782 1.5383 1.49726 1.5214 1.5371 1.48735 1.48226
2884.368 1.49482 1.5163 1.48667 1.43692 1.44217 1.509 1.49345 1.40582 1.41529 1.48921
2903.661 1.49408 1.46686 1.507 1.5558 1.5217 1.5081 1.6204 1.6293 1.49164 1.46357
2922.955 1.45111 1.39157 1.48371 1.42383 1.3 1.3498 1.255 1.158 1.113 1.077
2942.248 1.026 1.085 1.06 0.988 1.002 0.899 0.878 0.93 0.884 0.855
2961.542 0.809 0.761 0.741 0.729 0.772 0.783 0.849 0.852 0.78 0.816
2980.835 0.799 0.797 0.821 0.832 0.851 0.907 1.028 0.897 0.751 0.828
3000.128 0.986 1.051 1.052 1.1 1.064 1.085 1.099 1.107 1.127 1.131
3019.422 1.199 1.159 1.265 1.42341 1.5636 1.6343 1.7792 2.0232 2.0857 2.2042
3038.715 2.3351 2.46 2.59 2.76 2.87 2.99 3.09 3.2 3.34 3.44
3058.009 3.54 3.58 3.8 4.04 4.29 4.59 4.84 5.09 5.32 5.42
3077.302 5.44 5.35 5.3 5.25 5.12 4.85 4.48 4.24 3.87 3.36
3096.596 2.99 2.67 2.3789 2.0356 1.7665 1.6745 1.554 1.48298 1.40981 1.262
3115.889 1.067 0.925 0.909 0.744 0.56 0.502 0.555 0.552 0.463 0.33
3135.182 0.29 0.28 0.31 0.4 0.35 0.25 0.1 0.1 0.25 0.3
3154.476 0.3 0.31 0.28 0.26 0.2 0.24 0.29 0.37 0.33 0.25
3173.769 0.33 0.3 0.22 0.28 0.29 0.21 0.27 0.3 0.28 0.29
3193.063 0.14 0.1 0.16 0.22 0.21 0.24 0.35 0.24 0.08 0.03
3212.356 0.11 0.12 0.08 0.06 0.09 0.13 0.04 0 0.15 0.25
3231.650 0.13 0.17 0.25 0.17 0.12 0.1 0.04 0.08 0.26 0.29
3250.943 0.23 0.23 0.16 0.15 0.17 0.12 0.15 0.18 0.21 0.28
3270.236 0.11 0.04 0.04 0.21 0.31 0.2 0.16 0.14 0.06 0
3289.530 0.08 0.12 0.08 0.07 0.17 0.09 0.08 0.15 0.22 0.23
3308.823 0.21 0.34 0.33 0.36 0.412 0.28 0.19 0.17 0.16 0.17
3328.117 0.13 0.21 0.33 0.29 0.16 0.14 0.15 0.11 0.11 0.17
3347.410 0.26 0.31 0.3 0.435 0.32 0.05 0.11 0.15 0.2 0.29
3366.704 0.25 0.25 0.26 0.27 0.37 0.39 0.36 0.37 0.37 0.33
3385.997 0.29 0.424 0.545 0.507 0.64 0.667 0.669 0.762 0.994 1.141
3405.290 1.024 1.226 1.46195 1.39705 1.45093 1.7265 1.7142 1.6055 1.5747 1.6514
3424.584 1.8112 1.8303 1.9194 1.8384 1.5551 1.4874 1.53 1.3707 1.161 1.044
3443.877 0.893 0.866 0.867 0.822 0.886 0.812 0.628 0.625 0.651 0.537
3463.171 0.406 0.415 0.46 0.427 0.38 0.3 0.32 0.33 0.3 0.3
3482.464 0.31 0.34 0.26 0.3 0.35 0.29 0.26 0.21 0.3 0.39
3501.758 0.33 0.32 0.32 0.38 0.39 0.36 0.433 0.39 0.37 0.35
3521.051 0.26 0.4 0.415 0.3 0.39 0.37 0.34 0.432 0.47 0.447
3540.344 0.35 0.38 0.477 0.4 0.28 0.3 0.34 0.25 0.26 0.39
3559.638 0.444 0.37 0.35 0.37 0.34 0.36 0.481 0.513 0.425 0.38
3578.931 0.439 0.521 0.536 0.596 0.595 0.535 0.471 0.34 0.37 0.465
3598.225 0.45 0.429 0.519 0.514 0.51 0.533 0.419 0.39 0.442 0.475
3617.518 0.458 0.49 0.537 0.596 0.584 0.507 0.49 0.508 0.522 0.529
3636.812 0.486 0.442 0.548 0.681 0.614 0.533 0.581 0.606 0.627 0.687
3656.105 0.666 0.59 0.524 0.528 0.538 0.509 0.567 0.602 0.599 0.558
3675.398 0.538 0.711 0.785 0.636 0.579 0.623 0.589 0.536 0.524 0.602
3694.692 0.678 0.748 0.717 0.625 0.605 0.64 0.704 0.622 0.686 0.695
3713.985 0.546 0.596 0.657 0.601 0.502 0.538 0.623 0.552 0.554 0.676
3733.279 0.657 0.596 0.597 0.545 0.497 0.509 0.527 0.523 0.489 0.49
3752.572 0.591 0.687 0.762 0.785 0.755 0.67 0.622 0.705 0.7 0.65
3771.866 0.684 0.68 0.611 0.636 0.691 0.621 0.667 0.774 0.724 0.71
3791.159 0.71 0.721 0.758 0.765 0.761 0.717 0.659 0.641 0.572 0.519
3810.452 0.6 0.676 0.647 0.671 0.736 0.69 0.671 0.744 0.804 0.797
3829.746 0.745 0.707 0.696 0.723 0.661 0.67 0.733 0.651 0.681 0.719
3849.039 0.725 0.791 0.737 0.737 0.778 0.719 0.727 0.681 0.696 0.702
3868.333 0.651 0.654 0.613 0.635 0.67 0.697 0.706 0.67 0.678 0.725
3887.626 0.727 0.726 0.724 0.708 0.68 0.733 0.803 0.674 0.655 0.681
3906.920 0.568 0.587 0.609 0.607 0.66 0.644 0.638 0.633 0.653 0.693
3926.213 0.71 0.671 0.688 0.767 0.749 0.716 0.707 0.678 0.61 0.635
3945.506 0.741 0.787 0.806 0.755 0.747 0.776 0.735 0.687 0.695 0.681
3964.800 0.619 0.71 0.771 0.679 0.7 0.764 0.727 0.73 0.771 0.8
3984.093 0.848 0.858 0.878 0.91 0.889 0.832 0.761 0.82 0.855
##END=
