##TITLE=(+)-1-(4-Bromophenyl)ethylamine
##JCAMP-DX=4.24
##DATA TYPE=INFRARED SPECTRUM
##ORIGIN=EPA-IR VAPOR PHASE LIBRARY
##OWNER=SRD/NIST
Collection (C) 2018 copyright by the U.S. Secretary of Commerce
on behalf of the United States of America. All rights reserved.
##CAS REGISTRY NO=45791-36-4
##MOLFORM=C 8 H 10 Br N
##$NIST SOURCE=MSDC-IR
##STATE=gas
##XUNITS=1/CM
##YUNITS=ABSORBANCE
##XFACTOR=1.
##YFACTOR=0.001
##DELTAX=1.92898
##FIRSTX=549.8
##LASTX=4000.7
##FIRSTY=6.81
##MAXX=4000.7
##MINX=549.759
##MAXY=0.03229
##MINY=0
##NPOINTS=1790
##XYDATA=(X++(Y..Y))
549.759 6.81 6.06 5.23 5.14 5.6 5.57 4.68 4.58 4.68 4.5
569.049 4.81 4.28 3.84 4.44 4.63 4.5 5.34 5.38 4.62 4.96
588.339 5.76 5.39 5.32 5.54 5.11 6.11 6.85 7.11 7.54 8.04
607.628 8.53 8.2 8.84 9.04 8.03 7.47 7.06 6.86 6.6 5.82
626.918 5.71 6.25 6.18 5.86 5.77 5.78 5.67 5.17 5.25 5.57
646.208 5.13 5.05 5.07 4.93 4.62 4.39 3.77 3.1 3.93 4.84
665.498 4.92 4.54 3.89 3.83 4.48 4.11 4.27 5.21 5.11 5.39
684.787 5.36 5.5 5.75 5.72 5.74 5.75 5.69 5.97 5.72 5.48
704.077 6.28 6.91 7.37 7.6 7.95 8.37 8.7 8.92 9.25 9.58
723.367 9.65 9.48 9.2 9.14 9.45 9.91 10.26 10.67 11.06 11.96
742.657 12.5 12.36 13.11 13.79 14.41 15.18 15.69 16.3 16.43 16.88
761.947 17.64 17.81 18.02 18.04 18.03 17.65 17.09 17 17.16 17.7
781.236 17.93 17.9 17.84 17.92 18.8 19.27 19.22 19.97 20.49 20.27
800.526 20.84 21.37 21.89 22.41 23.48 25.08 25.68 25.81 26.58 26.91
819.816 27.23 27.5 27.02 26.89 25.54 23.77 22.79 21.27 19.08 16.96
839.106 15.21 13.65 12.33 11.26 9.99 8.61 7.89 7.25 7.3 7.6
858.395 6.35 5.4 5.41 5.01 4.54 4.72 5.23 5.51 5.12 4.94
877.685 4.49 4.08 4.37 4.63 4.65 4.92 4.63 4.25 4.96 5.37
896.975 4.86 4.45 4.81 5.06 5.28 5.05 4.73 4.53 4.24 4.15
916.265 4.08 3.92 3.68 3.92 3.78 3.77 3.52 2.96 2.63 2.66
935.555 2.75 2.49 2.52 2.78 2.93 3.28 3.63 3.5 3.48 3.36
954.844 2.95 2.91 2.85 2.73 3.28 3.69 3.5 3.03 2.75 3.13
974.134 3.12 3.04 2.86 3 3.81 3.88 2.87 2.61 4.26 5.1
993.424 5.8 6.91 7.95 10.35 14.09 18.12 22.53 26.69 28.96 29.1
1012.714 27.9 26.2 22.62 16.93 11.81 8.44 6.29 5.75 5.72 5.33
1032.003 5.58 5.43 5.35 5.91 5.61 5.26 5.57 5.58 5.29 5.96
1051.293 7.48 7.9 7.58 8.57 9.83 10.1 11.39 13.55 16.05 19.23
1070.583 22.41 24.28 23.86 23.21 23.02 21.72 18.99 17.03 16.44 14.78
1089.873 12.7 12.55 13.72 13.18 11.46 10.94 11.81 12.19 12.73 11.83
1109.163 9.99 9.33 8.29 6.63 5.73 6.51 6.89 5.46 5.34 6.28
1128.452 6.2 5.8 5.32 4.87 4.36 4.43 3.85 3.91 5.25 5.44
1147.742 4.7 3.51 3.03 3.9 3.3 2.54 2.65 3.26 3.91 3.85
1167.032 4.36 4.76 3.81 3.01 3.19 3.65 5.13 6.79 6.56 5.9
1186.322 5.89 5.49 5.66 5.54 4.38 4.01 4.58 5.17 5.08 5.78
1205.611 6.27 5.35 5.54 5.83 6.19 6.6 6.36 7.46 8.32 7.3
1224.901 6.51 6.81 6.42 6.39 6.81 6.15 5.63 5.53 5.84 6.2
1244.191 6.06 5.45 4.76 5.08 5.38 4.67 4.53 5.08 5.43 5.19
1263.481 5.12 4.98 4.7 5.05 5.27 5.4 5.01 4.15 4.34 4.83
1282.771 4.96 5.48 5.78 5.89 6.23 7.04 7.69 7.32 7.19 6.98
1302.060 6.38 6.15 5.9 5.75 5.71 5.85 5.91 5.99 6.41 6.83
1321.350 7.02 7.19 7.42 7.52 7.59 7.66 7.68 7.45 7.54 7.8
1340.640 7.57 7.4 7.51 7.69 7.97 8.46 8.74 8.71 9 9.31
1359.930 9.35 9.39 9.4 9.22 9.45 9.8 9.64 9.52 9.44 9.18
1379.219 8.88 8.97 9.1 8.9 8.68 8.51 8.45 8.52 8.6 8.61
1398.509 8.72 8.85 8.81 8.9 9.07 8.87 8.52 8.11 7.62 7.32
1417.799 6.78 6.04 5.59 5.35 5.14 4.89 4.81 4.71 4.68 4.78
1437.089 4.94 5.17 5.47 5.56 5.76 6.06 6.27 6.73 6.97 7.34
1456.378 7.75 7.89 8.13 8.37 8.72 9.12 9.33 9.3 9.81 11.33
1475.668 12.86 14.91 18.17 22.18 26.6 30.37 32.14 32.29 31.2 28.66
1494.958 24.51 19.25 14.05 10.1 7.79 6.21 5.27 4.81 4.32 4.06
1514.248 3.8 3.52 3.59 3.64 3.49 3.21 3.22 3.26 3.17 3.24
1533.538 3.29 3.22 3.19 3.23 3.09 3.11 3.16 3.25 3.39 3.23
1552.827 2.95 3.09 3.56 3.76 3.76 3.95 4.3 4.38 4.1 4.24
1572.117 4.74 5.01 5.35 5.71 6.27 6.87 7.22 7.91 8.65 9.08
1591.407 9.25 9.34 9.28 9.2 9.1 8.64 7.99 7.54 7.43 7.71
1610.697 7.72 7.97 8.32 8.51 8.8 8.93 9.2 9.05 8.91 8.86
1629.986 8.63 8.19 7.91 7.75 7.25 6.77 6.34 6.12 6.03 5.83
1649.276 5.6 5.41 5 4.41 3.98 3.88 3.86 3.81 3.68 3.35
1668.566 3.1 2.91 2.97 2.94 2.82 2.71 2.61 2.71 2.67 2.39
1687.856 2.2808 2.61 2.7 2.42 2.2885 2.2937 2.2634 2.2832 2.3016 2.302
1707.146 2.41 2.46 2.3394 2.1506 2.1632 2.3192 2.4 2.42 2.1917 1.9804
1726.435 2.0083 1.9939 1.8934 2.0108 2.0216 1.9216 1.9436 1.9379 2.1097 2.3037
1745.725 2.3041 2.3326 2.48 2.3584 2.3053 2.39 2.46 2.52 2.44 2.41
1765.015 2.52 2.58 2.48 2.54 2.63 2.59 2.42 2.39 2.49 2.52
1784.305 2.56 2.41 2.2344 2.0101 2.0114 2.0312 1.9737 2.0416 1.7393 1.6804
1803.594 1.8155 1.8191 1.9033 1.738 1.7898 1.9861 1.9517 1.931 1.7783 1.7925
1822.884 1.7882 1.6307 1.7309 1.8095 1.744 1.6393 1.784 1.8943 1.7744 1.7282
1842.174 1.6572 1.6655 1.7647 1.7593 1.7273 1.7225 1.8045 2.0943 2.2819 2.1419
1861.464 1.9451 1.7809 1.7445 1.8699 2.0418 2.213 2.42 2.41 2.36 2.53
1880.754 2.67 2.75 2.83 2.88 2.92 2.83 2.71 2.92 2.92 2.55
1900.043 2.62 2.76 2.65 2.6 2.45 2.2346 2.1072 1.9838 1.9635 2.0855
1919.333 2.0857 1.7012 1.5133 1.6381 1.7504 1.755 1.6064 1.6801 1.7066 1.6929
1938.623 1.6974 1.6338 1.7483 1.7868 1.6454 1.6502 1.5574 1.5527 1.6037 1.41027
1957.913 1.39852 1.44032 1.4997 1.5544 1.40185 1.38995 1.39537 1.39188 1.4883 1.44776
1977.202 1.3681 1.41917 1.2797 1.113 1.257 1.3343 1.2816 1.42167 1.4687 1.296
1996.492 1.249 1.104 1.01 1.09 1.161 1.2701 1.2656 1.191 1.35138 1.3052
2015.782 1.231 1.219 1.217 1.5752 1.6608 1.36026 1.2706 1.305 1.36325 1.3042
2035.072 1.228 1.45586 1.5309 1.5129 1.6949 1.6055 1.2635 1.126 1.198 1.106
2054.362 0.967 1.033 1.138 1.38106 1.5333 1.40679 1.192 1.165 1.178 1.259
2073.651 1.3351 1.2648 1.40846 1.549 1.43733 1.2722 1.3057 1.3112 1.243 1.2835
2092.941 1.40764 1.4669 1.222 1.059 1.127 0.968 1.014 1.236 1.2964 1.228
2112.231 1.145 1.3375 1.2882 1.236 1.232 1.216 1.2772 1.209 1.4591 1.5765
2131.521 1.2923 1.21 1.316 1.3391 1.3283 1.3167 1.17 1.162 1.3278 1.5165
2150.810 1.5309 1.248 1.205 1.235 1.095 1.237 1.37684 1.242 1.242 1.3098
2170.100 1.24 1.134 1.084 1.044 1.029 1.11 1.2653 1.35576 1.194 0.962
2189.390 1.02 1.225 1.181 1.235 1.45852 1.5331 1.5214 1.5057 1.39598 1.3049
2208.680 1.215 1.097 1.202 1.202 0.966 0.948 1.118 1.176 1.2935 1.187
2227.970 0.97 1.017 1.032 0.973 1.047 1.219 1.152 1.068 1.3171 1.3015
2247.259 1.219 1.3293 1.227 1.43624 1.6278 1.4891 1.36624 1.36226 1.38837 1.254
2266.549 1.199 1.3444 1.4975 1.4842 1.5031 1.6825 1.5955 1.6237 1.5377 1.2768
2285.839 1.40718 1.7033 1.6942 1.246 0.979 0.853 1.006 1.2694 1.3434 1.2833
2305.129 1.43583 1.5555 1.40818 1.3325 1.39484 1.3364 1.216 1.3444 1.185 0.984
2324.418 1.22 1.3601 1.39122 1.2843 1.212 1.5112 1.44728 1.2777 1.41966 1.5324
2343.708 1.6058 1.3569 1.144 1.38284 1.4953 1.5683 1.5072 1.3377 1.198 0.977
2362.998 1.057 1.161 1.36563 1.2688 0.952 0.987 1.081 1.39551 1.5198 1.2764
2382.288 1.016 0.986 1.098 1.05 1.258 1.7004 1.566 1.03 1.007 1.225
2401.578 1.032 1.075 1.2737 1.2642 1.2957 1.3197 1.42927 1.5382 1.4304 1.3296
2420.867 1.213 1.167 1.179 1.162 1.2801 1.253 1.147 1.107 0.979 0.847
2440.157 1.147 1.177 0.939 1.128 1.187 1.3138 1.4965 1.4248 1.2911 1.38134
2459.447 1.38739 1.139 1.2841 1.5945 1.5954 1.5124 1.3114 1.2797 1.38833 1.165
2478.737 1.228 1.4821 1.2803 1.038 1.2622 1.38161 1.211 1.241 1.44224 1.3398
2498.026 1.114 1.249 1.2644 1.3216 1.5719 1.7653 1.5735 1.136 1.205 1.5577
2517.316 1.5911 1.4877 1.5995 1.39975 1.135 1.2916 1.187 1.142 1.205 1.39085
2536.606 1.5732 1.4665 1.44134 1.42413 1.149 1.003 1.142 1.137 1.42297 1.6878
2555.896 1.7967 1.5446 1.4 1.5978 1.6039 1.6843 1.6956 1.8349 1.8376 1.6438
2575.186 1.7399 1.8382 1.8751 1.7526 1.7533 1.8707 1.7836 1.7121 1.4908 1.45041
2594.475 1.643 1.5872 1.5313 1.8418 1.8549 1.7279 1.7084 1.614 1.6703 1.719
2613.765 1.7075 1.7323 1.7663 1.6912 1.8197 1.8395 1.5041 1.711 1.8713 1.7521
2633.055 1.686 1.5368 1.4986 1.4719 1.5561 1.6069 1.3084 1.5449 1.792 1.7632
2652.345 1.6491 1.3049 1.2927 1.42357 1.42451 1.45565 1.485 1.4889 1.7317 1.8105
2671.634 1.6674 1.6166 1.5865 1.3249 1.44888 1.6698 1.7797 1.6139 1.8221 1.8972
2690.924 1.5332 1.3199 1.3152 1.5275 1.6307 1.7247 1.8401 1.7055 1.4681 1.7823
2710.214 1.8497 1.6902 1.234 1.111 1.6652 2.1213 2.2057 1.9883 1.7917 1.4834
2729.504 1.39621 1.7331 1.9238 1.9666 2.0047 1.5241 1.111 1.3454 1.6308 1.7515
2748.794 1.65 1.473 1.728 1.9468 2.1164 1.968 1.6938 1.8384 1.8822 1.9485
2768.083 2.0261 1.9584 2.1412 2.3384 2.2942 2.3283 2.2634 1.8456 1.7415 1.9721
2787.373 1.8268 1.7028 1.9523 2.1229 1.831 1.7486 1.91 2.0432 2.2036 2.1843
2806.663 2.3305 2.59 2.72 3.03 3.07 2.91 2.75 2.49 2.64 3.04
2825.953 3.45 3.39 3.16 3.13 3.4 3.81 4.18 4.8 5.24 5.54
2845.242 5.75 5.85 5.63 6.31 6.95 6.72 7.01 7.38 7.27 7.38
2864.532 7.87 8.05 8.12 8.53 9.08 9.22 9.2 9.25 8.97 8.51
2883.822 8.65 9.17 9.06 8.6 8.39 8.09 8.34 8.46 8.28 8.25
2903.112 7.97 7.81 7.71 7.78 8.07 7.91 7.58 7.49 7.51 7.85
2922.401 8.04 8.02 8.46 9.07 10.04 10.6 10.51 10.33 9.96 9.37
2941.691 8.7 8.18 7.87 7.77 7.69 7.67 8.57 9.46 10.43 12.48
2960.981 14.58 17.48 20.57 22.85 24.21 24.62 24.72 24.43 22.93 20.58
2980.271 18.39 16.51 15.04 14.14 13.1 11.66 10.43 9.06 7.39 6.36
2999.561 5.69 4.68 4.17 4.23 3.99 3.55 3.92 3.99 3.87 4.5
3018.850 4.78 5.2 5.87 6.14 6.1 5.9 5.93 5.52 5.02 5.45
3038.140 5.6 4.97 4.73 5 5.04 4.6 4.5 4.38 3.97 3.64
3057.430 3.53 3.52 3.71 3.67 3.63 4.08 3.95 4.05 4.4 4.56
3076.720 4.69 4.66 4.61 4.92 5.36 5.41 5.27 5.16 4.79 4.55
3096.009 4.28 3.85 3.33 3.05 2.75 2.49 2.59 2.0364 1.6091 1.8427
3115.299 1.5872 1.042 1.238 1.9866 2.0468 1.6673 1.45758 1.2628 1.9476 2.1865
3134.589 1.9107 1.6373 1.5162 1.9148 1.731 1.5352 1.3466 1.221 1.40648 1.6225
3153.879 1.5366 0.978 1.099 1.2901 1.40639 1.511 1.156 1.031 1.113 1.3043
3173.169 1.5906 1.8654 1.5333 1.5017 1.153 0.687 1.5449 1.7544 1.7012 1.8172
3192.458 2.0213 1.9996 1.3109 1.131 1.45217 1.981 1.8001 1.204 0.881 0.88
3211.748 1.102 1.2 1.43141 1.6627 1.8447 1.9684 2.0106 1.6987 1.049 0.793
3231.038 1.3016 1.3021 0.841 0.538 0.618 0.94 0.84 0.693 1.126 1.5592
3250.328 1.6404 1.7113 1.6044 1.43345 1.197 0.942 0.865 1.146 1.5212 1.40557
3269.617 1.152 1.086 0.992 1.026 0.896 0.868 1.147 1.3333 0.896 1.04
3288.907 1.4789 1.667 1.6376 1.112 0.989 1.44107 1.6607 1.062 0.966 1.44192
3308.197 1.693 1.5548 1.5511 1.6271 1.063 0.851 0.977 1.032 1.234 1.3333
3327.487 1.4919 1.6673 1.6416 1.4212 1.39347 1.4805 1.643 1.45746 1.9725 2.66
3346.777 1.8829 1.3061 1.251 1.5609 1.8898 1.6358 1.292 1.195 1.5915 1.6821
3366.066 0.975 1.228 1.6627 1.8535 2.57 2.1415 0.965 0.574 1.175 1.212
3385.356 0.824 0.919 1.3238 1.119 0.887 1.027 1.007 1.3404 1.43317 1.45528
3404.646 1.3282 1.40065 1.5912 1.4899 1.43893 1.4958 1.5906 1.2897 1.253 1.6505
3423.936 1.5181 1.5974 1.7207 1.5083 1.7169 1.44287 1.166 0.794 0.735 0.687
3443.225 0.736 1.7951 1.9943 1.5459 1.061 1.41152 1.4719 1.5358 1.5998 0.93
3462.515 1.40187 1.7803 1.2759 1.139 1.243 1.6713 1.7471 1.6373 1.7171 1.2731
3481.805 1.2673 1.8494 1.8266 1.6132 1.38124 1.211 0.936 0.561 0.786 1.2874
3501.095 1.37873 1.3199 1.162 0.974 1.003 1.028 1.018 1.01 1.3164 1.4765
3520.385 1.4943 1.3002 1.06 0.955 1.165 1.5012 1.8244 1.5953 1.5886 1.9862
3539.674 1.8064 1.7814 1.156 0.932 1.3215 1.038 0.807 0.667 0.967 1.7658
3558.964 2.0438 1.6758 1.5088 1.7382 2.2588 1.6918 0.546 0.913 1.669 1.784
3578.254 1.724 1.695 1.5721 0.936 0.902 1.5747 1.195 1.216 1.44544 1.35873
3597.544 1.208 0.633 0.88 1.5351 1.6693 1.16 0.96 1.6019 1.7071 1.7405
3616.833 1.4702 0.986 1.2865 1.202 0.88 1.3485 1.7678 1.063 1.031 1.794
3636.123 1.5147 1.022 1.137 1.141 1.37272 1.4611 1.2711 1.35205 1.3001 1.189
3655.413 1.227 1.19 1.256 1.259 1.115 1.1 1.6285 1.7853 2.0645 2.229
3674.703 1.888 1.41048 0.888 0.829 0.616 0.891 0.974 0.572 0.592 1.06
3693.993 0.91 0.964 0.86 0.759 1.4872 1.43622 1.2743 1.158 0.688 0.587
3713.282 0.805 0.572 0.537 0.733 0.872 0.778 1.01 1.2642 1.029 0.419
3732.572 0.31 1.24 1.6012 1.168 1.17 1.45552 1.4501 1.4539 0.926 0.608
3751.862 0.613 0.631 1.091 1.6123 2.0156 1.5367 0.419 0 0.29 1.281
3771.152 1.7912 1.4869 1.41078 1.5069 1.8332 2.2471 1.7273 1.061 1.214 1.45797
3790.441 1.39738 1.2943 1.6441 1.2848 0.941 1.137 1.197 1.177 1.206 1.526
3809.731 1.5582 1.5704 1.5271 1.5346 0.958 0.18 0.82 1.3501 1.099 0.889
3829.021 1.233 1.6377 1.9897 1.8515 1.195 1.5591 1.6905 1.237 1.214 1.6512
3848.311 1.4714 0.666 0.601 1.18 1.075 1.09 0.981 1.2987 2.45 2.63
3867.601 1.9864 1.4744 1.2822 1.8518 2.0736 1.4786 1.255 0.827 1.015 1.6165
3886.890 1.6287 1.5901 1.973 2.1465 1.3221 0.683 0.8 1.40236 1.4503 1.5889
3906.180 1.9243 1.3129 1.01 1.209 1.891 1.6671 0.829 0.831 1.082 1.3477
3925.470 1.205 1.004 1.166 1.2752 1.192 1.088 1.35623 1.198 1.2901 1.5948
3944.760 1.2982 0.844 0.671 1.118 1.43915 1.319 1.231 1.3224 0.931 0.894
3964.049 1.3099 1.06 0.871 0.835 0.94 1.6643 1.855 1.6164 1.5848 1.053
3983.339 0.895 0.912 1.2853 1.38742 0.703 0.592 0.375 0.21 0.569 0.992
##END=
