##TITLE=2-Amino-5-chloropyrimidine-4-carboxylic acid
##JCAMP-DX=4.24
##DATA TYPE=INFRARED SPECTRUM
##ORIGIN=NIST Mass Spectrometry Data Center
##OWNER=NIST Standard Reference Data Program
Collection (C) 2018 copyright by the U.S. Secretary of Commerce
on behalf of the United States of America. All rights reserved.
##CAS REGISTRY NO=45867-11-6
##MOLFORM=C 5 H 4 Cl N 3 O 2
##$NIST SOURCE=MSDC-IR
##SPECTROMETER/DATA SYSTEM=HP-GC/MS/IRD
##STATE=gas
##XUNITS=1/CM
##YUNITS=ABSORBANCE
##XFACTOR=1.0
##YFACTOR=0.000002500
##DELTAX=4.0
##FIRSTX=550.0
##LASTX=3846.0
##FIRSTY=0.001140
##MAXX=3846
##MINX=550
##MAXY=0.025
##MINY=0
##NPOINTS=825
##XYDATA=(X++(Y..Y))
550.0 456 574 345 366 322 336 306 268 234 226
590.0 223 211 218 215 232 252 271 301 294 307
630.0 328 317 335 393 443 476 542 646 788 938
670.0 1027 1042 999 868 643 435 314 225 165 163
710.0 163 179 226 249 285 361 435 499 562 571
750.0 544 502 458 435 420 435 490 522 539 575
790.0 623 668 654 614 608 581 532 486 436 369
830.0 306 289 276 257 233 212 194 200 213 206
870.0 192 183 187 174 148 136 137 147 137 149
910.0 169 203 233 250 280 322 374 366 307 273
950.0 241 194 153 118 81 50 46 42 22 20
990.0 27 31 60 120 192 270 344 371 377 375
1030.0 332 246 160 107 84 89 80 72 66 50
1070.0 62 84 72 42 39 52 64 70 77 76
1110.0 70 106 173 296 518 756 909 938 915 810
1150.0 542 334 297 313 368 423 453 477 513 544
1190.0 551 520 464 401 349 323 284 229 195 174
1230.0 171 163 148 146 136 125 110 99 91 79
1270.0 86 92 90 92 93 87 89 91 84 82
1310.0 83 75 68 68 64 62 74 90 106 112
1350.0 117 129 130 131 135 150 172 191 194 193
1390.0 202 213 229 258 304 364 462 608 835 1237
1430.0 1972 3207 5069 7265 9168 10000 9643 8397 6361 3784
1470.0 1811 891 555 414 333 280 250 249 256 273
1510.0 320 385 471 593 755 942 1111 1231 1305 1354
1550.0 1424 1457 1386 1323 1320 1317 1336 1433 1649 2055
1590.0 2841 4158 5854 7303 7921 7799 7101 5614 3745 2341
1630.0 1560 1117 846 653 486 352 247 191 157 137
1670.0 126 122 118 111 108 108 96 77 69 74
1710.0 78 71 65 67 69 60 49 46 48 43
1750.0 37 39 36 33 38 36 36 39 42 46
1790.0 47 52 53 45 43 49 48 50 43 38
1830.0 38 39 42 45 41 43 55 63 63 65
1870.0 70 79 91 92 92 88 85 83 79 72
1910.0 59 53 54 47 39 42 46 44 39 33
1950.0 32 38 32 27 31 34 35 41 44 42
1990.0 38 34 39 44 45 49 50 51 56 57
2030.0 52 54 53 40 35 36 34 33 32 33
2070.0 36 43 57 65 64 66 66 67 66 64
2110.0 64 61 55 55 50 39 36 37 41 45
2150.0 44 39 31 25 19 20 32 33 27 30
2190.0 30 23 29 34 32 35 37 41 43 47
2230.0 55 49 46 44 43 37 41 49 41 31
2270.0 35 38 41 49 51 45 46 49 45 45
2310.0 52 59 58 56 49 38 32 28 24 22
2350.0 22 16 18 17 17 25 27 25 22 21
2390.0 25 20 20 29 32 32 26 20 28 31
2430.0 38 48 46 52 41 36 48 63 62 65
2470.0 74 73 72 71 60 44 32 24 20 18
2510.0 25 24 13 9 9 10 21 28 30 23
2550.0 18 19 23 21 24 32 36 36 35 31
2590.0 29 27 25 25 20 25 32 25 24 28
2630.0 24 15 18 26 24 21 27 27 21 18
2670.0 18 21 28 35 33 32 43 48 42 51
2710.0 64 62 64 68 52 43 45 48 43 32
2750.0 36 32 18 19 27 29 36 42 33 22
2790.0 23 22 15 5 12 16 12 11 13 13
2830.0 12 9 12 16 7 2 4 5 14 7
2870.0 1 8 10 12 0 0 18 16 12 14
2910.0 16 20 23 23 27 28 20 31 43 41
2950.0 38 33 22 21 17 15 20 23 21 20
2990.0 35 41 42 40 49 68 73 75 87 106
3030.0 140 192 255 310 336 327 309 267 181 114
3070.0 76 44 39 47 47 44 51 46 50 51
3110.0 49 47 32 33 41 38 48 49 52 60
3150.0 58 65 79 72 63 73 76 78 68 53
3190.0 41 34 39 43 45 42 39 33 34 45
3230.0 55 52 42 34 28 31 29 32 45 45
3270.0 40 32 21 18 18 17 28 34 32 44
3310.0 43 29 34 41 42 51 53 50 42 33
3350.0 38 41 36 32 40 55 65 62 58 74
3390.0 89 92 98 127 162 210 287 381 509 641
3430.0 756 831 845 867 901 943 1015 1045 970 864
3470.0 701 460 252 157 138 133 130 127 134 171
3510.0 195 218 256 288 323 372 414 445 442 436
3550.0 449 446 445 466 500 515 499 466 427 402
3590.0 346 267 212 162 116 99 79 66 66 54
3630.0 46 52 52 46 50 58 52 33 35 48
3670.0 43 33 35 45 34 30 39 48 41 22
3710.0 29 39 33 44 45 33 42 52 32 10
3750.0 23 38 36 39 53 51 41 42 41 35
3790.0 26 28 24 20 28 28 21 13 24 32
3830.0 25 24 22 20 27
##END=
