##TITLE=3-(4-Fluorophenyl)propionic acid
##JCAMP-DX=4.24
##DATA TYPE=INFRARED SPECTRUM
##ORIGIN=EPA-IR VAPOR PHASE LIBRARY
##OWNER=SRD/NIST
Collection (C) 2018 copyright by the U.S. Secretary of Commerce
on behalf of the United States of America. All rights reserved.
##CAS REGISTRY NO=459-31-4
##MOLFORM=C 9 H 9 F O 2
##$NIST SOURCE=MSDC-IR
##STATE=gas
##XUNITS=1/CM
##YUNITS=ABSORBANCE
##XFACTOR=1.
##YFACTOR=0.001
##DELTAX=1.92898
##FIRSTX=549.8
##LASTX=4000.7
##FIRSTY=21.738
##MAXX=4000.7
##MINX=549.759
##MAXY=0.099008
##MINY=0
##NPOINTS=1790
##XYDATA=(X++(Y..Y))
549.759 21.738 22.388 22.438 22.368 22.438 22.278 21.658 21.168 20.688 19.938
569.049 19.088 18.358 17.988 17.548 17.128 16.848 16.898 16.938 16.678 16.418
588.339 16.258 16.228 16.038 15.818 15.558 15.328 15.378 15.618 15.788 15.918
607.628 16.068 16.308 16.378 16.138 15.908 15.638 15.458 15.368 15.048 14.708
626.918 14.488 14.058 13.378 12.758 12.228 11.468 10.818 10.308 9.638 9.198
646.208 8.898 8.338 7.898 7.598 7.118 6.738 6.688 6.488 6.028 5.918
665.498 5.948 5.698 5.518 5.538 5.468 5.388 5.288 5.048 4.868 4.938
684.787 4.978 4.808 4.638 4.538 4.628 4.758 4.818 5.088 5.238 5.318
704.077 5.568 5.628 5.648 5.658 5.728 6.048 6.378 6.728 7.408 8.438
723.367 8.858 8.908 8.908 8.608 8.318 7.638 6.648 5.898 5.288 4.818
742.657 4.438 4.108 3.988 4.008 3.938 4.118 4.478 4.758 5.098 5.578
761.947 6.128 6.608 6.828 6.778 6.658 6.158 5.568 5.288 5.038 4.428
781.236 3.938 3.838 3.738 3.928 4.128 4.068 4.168 4.598 5.008 5.418
800.526 6.188 7.038 7.868 8.998 10.098 11.468 13.318 15.098 17.008 19.168
819.816 21.298 23.658 26.058 27.778 28.978 29.658 29.708 29.158 27.738 25.778
839.106 23.758 21.458 19.008 16.718 14.078 11.748 9.818 8.018 6.708 5.538
858.395 4.768 4.398 4.018 3.628 3.288 3.038 2.788 2.838 2.968 2.918
877.685 2.818 2.828 2.978 2.898 2.738 2.648 2.778 2.748 2.688 2.698
896.975 2.728 2.698 2.688 2.688 2.648 2.748 2.638 2.538 2.538 2.668
916.265 2.878 2.858 2.808 3.048 3.178 3.078 3.108 3.068 3.058 3.258
935.555 3.398 3.438 3.518 3.568 3.738 3.998 4.128 4.088 3.888 3.978
954.844 4.278 4.098 3.798 3.808 3.938 3.828 3.618 3.638 3.708 3.688
974.134 3.458 3.388 3.318 3.228 3.538 3.748 3.748 3.748 3.908 4.048
993.424 3.958 3.918 4.148 4.528 4.768 5.038 5.338 5.988 6.838 7.568
1012.714 8.168 8.498 9.028 9.348 9.218 9.058 8.488 7.958 7.768 7.368
1032.003 7.028 7.148 7.258 6.808 6.478 6.438 6.378 6.278 5.898 5.698
1051.293 5.958 6.218 6.428 6.688 7.018 7.458 7.898 8.348 9.098 10.238
1070.583 11.148 12.058 13.788 15.688 17.128 19.148 21.858 24.088 25.868 27.568
1089.873 29.448 31.528 33.188 34.408 35.798 38.038 40.308 42.598 46.258 50.538
1109.163 55.678 61.178 66.458 71.798 76.008 78.738 79.958 79.188 76.768 72.638
1128.452 67.148 61.198 55.038 49.538 45.078 41.158 37.708 35.048 33.178 31.868
1147.742 30.988 30.598 31.258 33.168 34.558 33.828 32.558 31.698 30.368 27.418
1167.032 23.438 20.898 19.318 18.438 18.318 18.588 18.948 18.958 19.228 19.238
1186.322 18.918 19.018 19.118 18.988 18.858 18.788 18.788 18.808 18.838 19.108
1205.611 19.498 19.948 20.648 21.798 23.388 24.408 25.678 28.258 31.288 35.288
1224.901 41.488 49.768 59.578 70.098 78.998 84.068 85.338 83.588 78.268 68.978
1244.191 56.868 44.248 33.508 26.148 21.758 18.968 16.888 15.298 14.118 13.088
1263.481 12.598 12.008 11.338 10.868 10.508 10.338 10.208 10.028 9.678 9.448
1282.771 9.418 9.388 9.248 9.048 8.788 8.698 8.728 8.578 8.358 8.198
1302.060 8.128 8.118 8.058 7.868 7.688 7.538 7.468 7.468 7.378 7.348
1321.350 7.338 7.368 7.428 7.468 7.528 7.518 7.618 7.778 7.898 8.048
1340.640 8.218 8.438 8.628 8.818 9.018 9.358 9.798 10.198 10.608 11.098
1359.930 11.658 12.248 12.788 13.358 13.988 14.688 15.348 15.898 16.338 16.668
1379.219 16.818 16.728 16.448 16.028 15.428 14.558 13.638 12.778 11.918 11.108
1398.509 10.378 9.748 9.218 8.768 8.438 8.178 7.998 7.868 7.738 7.698
1417.799 7.778 7.918 8.048 8.168 8.238 8.218 8.228 8.218 8.118 7.988
1437.089 7.848 7.738 7.618 7.588 7.598 7.628 7.778 7.808 7.798 7.808
1456.378 7.588 7.248 6.798 6.318 5.838 5.328 4.918 4.658 4.518 4.358
1475.668 4.268 4.288 4.358 4.488 4.778 5.168 5.708 6.558 7.868 9.688
1494.958 12.308 16.328 22.098 30.088 40.568 53.098 66.888 78.778 85.778 87.678
1514.248 85.188 78.648 67.798 53.868 38.868 27.238 19.288 14.288 11.068 9.028
1533.538 7.618 6.468 5.548 4.778 4.168 3.698 3.438 3.168 2.808 2.648
1552.827 2.618 2.548 2.478 2.488 2.428 2.398 2.498 2.588 2.658 2.758
1572.117 2.938 3.148 3.378 3.658 4.038 4.558 5.128 5.778 6.528 7.328
1591.407 8.158 9.028 9.918 10.738 11.578 12.278 12.948 13.558 13.668 13.298
1610.697 12.758 12.018 10.988 9.788 8.628 7.548 6.668 6.038 5.478 5.008
1629.986 4.578 4.168 3.888 3.668 3.488 3.268 3.098 2.928 2.758 2.628
1649.276 2.398 2.188 2.088 1.978 1.888 1.778 1.708 1.748 1.738 1.698
1668.566 1.698 1.618 1.558 1.598 1.688 1.698 1.688 1.748 1.868 2.028
1687.856 2.028 2.068 2.228 2.368 2.508 2.718 2.948 3.128 3.378 3.658
1707.146 3.898 4.258 4.678 5.108 5.568 6.048 6.708 7.408 8.198 9.008
1726.435 9.818 10.878 12.028 13.238 14.728 16.388 18.068 19.858 21.798 23.908
1745.725 26.148 28.558 31.178 33.988 37.018 40.338 44.248 48.638 53.708 59.428
1765.015 65.688 72.518 79.608 86.198 91.968 96.228 98.628 99.008 97.158 93.268
1784.305 87.738 81.118 74.098 67.178 60.488 54.148 48.448 43.268 38.718 34.768
1803.594 31.298 28.228 25.428 22.818 20.458 18.198 16.168 14.308 12.628 11.148
1822.884 9.818 8.658 7.698 6.898 6.208 5.578 5.088 4.698 4.348 4.018
1842.174 3.718 3.478 3.278 3.118 3.028 2.968 2.918 2.888 2.878 2.878
1861.464 2.898 2.968 3.018 3.048 3.158 3.238 3.238 3.198 3.208 3.208
1880.754 3.138 3.068 2.938 2.778 2.568 2.408 2.248 2.098 2.018 1.868
1900.043 1.758 1.688 1.648 1.598 1.578 1.518 1.458 1.438 1.288 1.288
1919.333 1.358 1.278 1.2214 1.1577 1.1214 1.1596 1.1054 1.0699 1.085 1.0617
1938.623 1.0486 1.0532 1.0981 1.0624 0.996 0.9571 0.9136 0.9 0.9513 1.0315
1957.913 1.0366 0.9982 1.0046 0.9795 0.942 0.9784 0.9965 0.9749 0.9646 0.9732
1977.202 0.9409 0.883 0.8992 0.897 0.8979 0.9067 0.8981 0.9086 0.9269 0.9436
1996.492 1.0222 1.077 1.0216 0.9602 0.9016 0.8939 0.9146 0.8664 0.8286 0.8326
2015.782 0.8249 0.8254 0.7882 0.7453 0.799 0.7847 0.7655 0.8217 0.8304 0.7874
2035.072 0.7218 0.747 0.7614 0.7063 0.7448 0.7696 0.7766 0.7865 0.7536 0.7718
2054.362 0.8254 0.8316 0.8216 0.839 0.8535 0.8863 0.89 0.913 0.9933 0.926
2073.651 0.8621 0.9256 0.9173 0.9186 0.929 0.8602 0.7906 0.7397 0.6977 0.6885
2092.941 0.6614 0.6485 0.6598 0.6778 0.6715 0.6446 0.6428 0.6077 0.592 0.5818
2112.231 0.5453 0.5226 0.5184 0.5441 0.5212 0.5096 0.5528 0.6241 0.6482 0.578
2131.521 0.5057 0.5679 0.6492 0.6296 0.6071 0.6165 0.6771 0.6648 0.6187 0.6053
2150.810 0.6288 0.6488 0.6034 0.5645 0.5276 0.5565 0.6038 0.6261 0.5837 0.5616
2170.100 0.5597 0.546 0.5543 0.5793 0.5758 0.5432 0.6028 0.6216 0.5959 0.5603
2189.390 0.5863 0.5934 0.5964 0.6325 0.6446 0.6732 0.635 0.5639 0.534 0.5837
2208.680 0.6736 0.6988 0.7205 0.6573 0.6283 0.7311 0.8002 0.7519 0.7059 0.7464
2227.970 0.7779 0.7741 0.7532 0.814 0.8472 0.8362 0.862 0.9107 0.9052 0.881
2247.259 0.8454 0.859 0.9141 0.8962 0.8108 0.7886 0.801 0.7784 0.7679 0.7347
2266.549 0.7139 0.7624 0.7949 0.7366 0.7319 0.7396 0.7131 0.6889 0.6411 0.6426
2285.839 0.6333 0.6162 0.6487 0.6804 0.6839 0.6294 0.5973 0.6962 0.7283 0.6571
2305.129 0.7235 0.777 0.7037 0.666 0.6979 0.7274 0.7583 0.8014 0.804 0.7207
2324.418 0.6819 0.7546 0.7769 0.7563 0.793 0.8182 0.7485 0.6851 0.6651 0.7098
2343.708 0.8358 0.8191 0.7099 0.7502 0.8389 0.8423 0.7824 0.7401 0.7548 0.7717
2362.998 0.7616 0.6777 0.6505 0.7091 0.7423 0.7209 0.714 0.6955 0.6454 0.7126
2382.288 0.7548 0.7676 0.8622 0.8696 0.8897 0.9002 0.8922 0.9216 0.8869 0.7944
2401.578 0.7824 0.785 0.6531 0.6475 0.7147 0.7157 0.7177 0.7475 0.7345 0.7047
2420.867 0.6799 0.652 0.7086 0.6805 0.6539 0.7452 0.7443 0.7233 0.7779 0.8613
2440.157 0.8778 0.8451 0.8919 0.9059 0.9008 0.9156 0.9761 1.0625 1.1237 1.1262
2459.447 1.1098 1.1091 1.0325 1.0495 1.1317 1.057 0.933 0.9111 0.8694 0.8476
2478.737 0.8418 0.784 0.7407 0.6868 0.6315 0.5553 0.5496 0.5961 0.4991 0.4856
2498.026 0.5404 0.5418 0.5096 0.4986 0.5445 0.5255 0.5176 0.5641 0.5075 0.4605
2517.316 0.4712 0.5016 0.5316 0.4971 0.5185 0.5195 0.5163 0.4463 0.3918 0.4589
2536.606 0.4704 0.4708 0.4859 0.4629 0.4358 0.4892 0.5865 0.5305 0.4592 0.5309
2555.896 0.5491 0.5088 0.5655 0.5795 0.5378 0.5164 0.5798 0.6494 0.6306 0.6272
2575.186 0.6933 0.703 0.654 0.5839 0.5175 0.5491 0.5262 0.4389 0.4198 0.3979
2594.475 0.3998 0.5151 0.4879 0.4243 0.4479 0.4936 0.5214 0.4779 0.4713 0.4849
2613.765 0.4161 0.33139 0.3527 0.3773 0.3741 0.3547 0.3444 0.30248 0.31583 0.4072
2633.055 0.3579 0.31581 0.33428 0.4198 0.4579 0.4496 0.4197 0.4069 0.476 0.464
2652.345 0.4335 0.4658 0.4638 0.442 0.4761 0.4251 0.442 0.5346 0.5636 0.5993
2671.634 0.559 0.4507 0.4991 0.6885 0.6025 0.3787 0.394 0.4839 0.5221 0.5204
2690.924 0.4684 0.3916 0.3917 0.4359 0.4339 0.4306 0.5044 0.5541 0.5486 0.4642
2710.214 0.3538 0.4129 0.5009 0.4795 0.4932 0.4549 0.4266 0.5403 0.5902 0.5149
2729.504 0.4851 0.4715 0.4975 0.5943 0.576 0.5255 0.5422 0.578 0.5173 0.4633
2748.794 0.4747 0.5577 0.6546 0.5317 0.4213 0.4789 0.4544 0.4446 0.4708 0.4377
2768.083 0.4288 0.4476 0.4902 0.5054 0.5238 0.5653 0.5763 0.6403 0.6346 0.5723
2787.373 0.6263 0.6866 0.6587 0.6278 0.5586 0.581 0.6033 0.5969 0.5812 0.4494
2806.663 0.4535 0.5318 0.5481 0.5006 0.5062 0.5316 0.6445 0.7593 0.7144 0.6361
2825.953 0.6713 0.8538 0.895 0.8248 0.8767 0.959 1.0796 1.1457 1.0666 1.092
2845.242 1.268 1.298 1.248 1.468 1.568 1.638 1.968 2.068 2.158 2.328
2864.532 2.498 2.728 2.928 3.058 3.078 3.078 3.228 3.258 3.128 3.198
2883.822 3.158 3.048 3.058 2.978 2.898 2.818 2.658 2.618 2.638 2.638
2903.112 2.808 2.878 2.908 3.138 3.428 3.598 3.788 4.268 4.778 5.268
2922.401 5.858 6.438 7.008 7.738 8.428 9.038 9.598 10.068 10.398 10.448
2941.691 10.358 10.228 9.998 9.658 9.248 8.788 8.418 8.028 7.728 7.578
2960.981 7.308 7.158 7.038 6.878 6.698 6.488 6.138 5.788 5.638 5.368
2980.271 5.188 5.078 4.838 4.638 4.538 4.518 4.408 4.198 4.138 4.168
2999.561 4.088 4.038 4.028 4.058 4.008 3.778 3.658 3.608 3.478 3.358
3018.850 3.238 3.318 3.468 3.678 3.868 4.028 4.428 4.878 5.418 6.068
3038.140 6.778 7.318 7.598 7.848 7.868 7.548 7.118 6.408 5.748 5.228
3057.430 4.478 4.068 3.808 3.528 3.358 3.288 3.368 3.438 3.468 3.448
3076.720 3.508 3.388 3.108 3.048 2.958 2.618 2.288 2.058 1.928 1.798
3096.009 1.668 1.688 1.678 1.568 1.458 1.488 1.478 1.508 1.518 1.398
3115.299 1.378 1.388 1.448 1.348 1.318 1.408 1.348 1.1828 1.1345 1.1602
3134.589 1.0393 0.8948 0.8265 0.7606 0.7142 0.7168 0.6347 0.5638 0.5827 0.5446
3153.879 0.4558 0.41 0.392 0.4045 0.4247 0.4538 0.4152 0.31073 0.27624 0.4016
3173.169 0.3977 0.29771 0.238714 0.2019 0.3592 0.4711 0.3834 0.28716 0.3845 0.5171
3192.458 0.4896 0.4003 0.4077 0.3616 0.26162 0.3426 0.3706 0.28872 0.23501 0.1842
3211.748 0.2046 0.28695 0.2115 0.1981 0.2814 0.1639 0.106 0.1795 0.2188 0.1416
3231.038 0.1601 0.30129 0.3576 0.4187 0.4742 0.353 0.118 0.09 0.1965 0.237509
3250.328 0.238928 0.29528 0.28044 0.3483 0.447 0.4282 0.4445 0.4022 0.3479 0.2194
3269.617 0.152 0.1957 0.1942 0.1405 0.133 0.28239 0.33633 0.30678 0.26795 0.1509
3288.907 0.1497 0.1754 0.128 0.202 0.3427 0.29859 0.2107 0.098 0.096 0.2152
3308.197 0.25778 0.25981 0.26272 0.136 0.1714 0.29765 0.237428 0.1889 0.1394 0.07
3327.487 0.093 0.125 0.023 0.1696 0.3503 0.3417 0.32336 0.26901 0.2729 0.26982
3346.777 0.136 0.123 0.24926 0.1934 0.1784 0.26604 0.26949 0.2567 0.240029 0.27355
3366.066 0.3606 0.3438 0.2152 0.2803 0.32486 0.28545 0.3485 0.27817 0.1824 0.1908
3385.356 0.23446 0.23001 0.240564 0.32819 0.32975 0.27056 0.2097 0.1706 0.23504 0.3272
3404.646 0.30033 0.28328 0.27914 0.3435 0.5428 0.5435 0.3025 0.134 0.28411 0.4
3423.936 0.3667 0.3603 0.29599 0.28403 0.3069 0.29401 0.239043 0.26423 0.30647 0.4283
3443.225 0.4206 0.1858 0.238438 0.3974 0.32981 0.3749 0.4777 0.4429 0.3532 0.28081
3462.515 0.33034 0.33796 0.4166 0.4935 0.4357 0.4014 0.3708 0.3487 0.425 0.579
3481.805 0.5716 0.4964 0.5623 0.6059 0.636 0.6582 0.6729 0.6407 0.6669 0.7172
3501.095 0.7876 0.8003 0.7106 0.7722 0.9727 1.1738 1.248 1.378 1.448 1.478
3520.385 1.588 1.578 1.558 1.688 1.738 1.698 1.828 1.948 2.108 2.278
3539.674 2.448 2.708 2.918 3.298 3.698 3.928 4.348 5.128 6.108 7.348
3558.964 9.018 11.338 14.718 19.708 26.438 34.068 40.458 43.758 44.118 43.178
3578.254 40.868 35.568 27.628 19.808 13.988 10.228 7.858 6.098 4.958 4.208
3597.544 3.528 3.138 2.898 2.668 2.388 2.038 1.808 1.818 1.698 1.458
3616.833 1.338 1.298 1.418 1.348 1.1795 1.1826 1.1591 1.0769 1 0.9384
3636.123 0.9405 0.9076 0.7953 0.6866 0.5598 0.4066 0.49 0.6713 0.5938 0.493
3655.413 0.5792 0.5774 0.515 0.5071 0.4665 0.5186 0.5092 0.3751 0.241713 0.132
3674.703 0.30957 0.5026 0.3883 0.4632 0.5268 0.4706 0.4569 0.3944 0.28454 0.3887
3693.993 0.5342 0.504 0.4584 0.4935 0.6191 0.468 0.240871 0.2151 0.219 0.3759
3713.282 0.368 0.26951 0.3745 0.496 0.3664 0.2058 0.33686 0.358 0.4862 0.6304
3732.572 0.4953 0.3747 0.3875 0.3938 0.4082 0.5587 0.5867 0.5052 0.4711 0.4561
3751.862 0.4312 0.4301 0.4156 0.3059 0.29218 0.26522 0.3466 0.4179 0.26233 0.244962
3771.152 0.4164 0.4784 0.4205 0.33084 0.31702 0.4365 0.5858 0.4715 0.25401 0.22884
3790.441 0.25654 0.25096 0.2125 0.28224 0.33712 0.3405 0.3658 0.3524 0.4114 0.3743
3809.731 0.1683 0.1728 0.31546 0.28655 0.27695 0.3767 0.244577 0 0.027 0.28871
3829.021 0.4449 0.4419 0.5581 0.5185 0.33018 0.3899 0.32701 0.2147 0.26097 0.27512
3848.311 0.3427 0.3986 0.4967 0.4778 0.3445 0.3938 0.30969 0.3595 0.502 0.4897
3867.601 0.466 0.3758 0.1977 0.26044 0.4548 0.3742 0.382 0.4826 0.32958 0.25229
3886.890 0.3663 0.3945 0.4905 0.5319 0.32219 0.285 0.4962 0.5701 0.5199 0.25149
3906.180 0.237587 0.4235 0.3812 0.31385 0.29562 0.3707 0.389 0.4266 0.4233 0.30827
3925.470 0.26907 0.29822 0.3561 0.3707 0.31831 0.25832 0.2108 0.124 0.2128 0.32233
3944.760 0.2083 0.27569 0.41 0.2974 0.2757 0.407 0.5196 0.4394 0.3641 0.4517
3964.049 0.424 0.32484 0.3751 0.455 0.29704 0.2279 0.27466 0.23335 0.24014 0.2036
3983.339 0.3595 0.5766 0.4573 0.1994 0.1669 0.237685 0.28196 0.3554 0.3737 0.4322
##END=
