##TITLE=4-Fluorophenylacetone
##JCAMP-DX=4.24
##DATA TYPE=INFRARED SPECTRUM
##ORIGIN=EPA-IR VAPOR PHASE LIBRARY
##OWNER=SRD/NIST
Collection (C) 2018 copyright by the U.S. Secretary of Commerce
on behalf of the United States of America. All rights reserved.
##CAS REGISTRY NO=459-03-0
##MOLFORM=C 9 H 9 F O
##$NIST SOURCE=MSDC-IR
##STATE=gas
##XUNITS=1/CM
##YUNITS=ABSORBANCE
##XFACTOR=1.
##YFACTOR=0.001
##DELTAX=1.92898
##FIRSTX=549.8
##LASTX=4000.7
##FIRSTY=3.906
##MAXX=4000.7
##MINX=549.759
##MAXY=0.137266
##MINY=0
##NPOINTS=1790
##XYDATA=(X++(Y..Y))
549.759 3.906 4.356 4.216 2.846 3.426 3.636 2.806 2.876 3.916 4.466
569.049 3.906 3.296 3.806 4.906 5.706 6.526 6.836 7.406 8.096 7.986
588.339 8.116 8.066 7.876 7.656 7.876 7.666 6.596 5.916 5.356 5.226
607.628 4.496 4.026 4.436 3.686 2.716 2.186 1.956 1.856 1.686 2.206
626.918 2.246 1.736 1.546 1.636 1.616 1.1109 1.0058 0.874 1.0488 1.506
646.208 1.0922 1.0913 1.1408 0.8965 1.1862 0.9044 0.3285 0.8443 1.356 0.9056
665.498 0.5892 0.7689 0.808 0.7527 0.6992 0.6379 0.602 0.6113 0.7346 0.8723
684.787 0.8739 1.0062 1.0091 1.3004 1.836 1.986 1.756 1.876 2.156 1.876
704.077 1.636 1.536 1.2427 1.3243 1.646 1.676 1.426 1.1603 1.0875 1.426
723.367 1.726 1.656 1.966 1.826 1.486 1.706 2.026 2.716 3.396 4.026
742.657 5.096 5.636 6.236 7.366 8.206 8.966 9.686 9.936 10.296 10.646
761.947 10.476 10.656 10.716 10.856 11.426 11.876 12.456 12.756 13.416 14.096
781.236 14.106 14.036 14.216 14.196 13.956 13.576 12.766 12.136 12.056 12.206
800.526 11.756 11.286 11.156 11.326 11.946 12.506 13.466 14.836 16.646 18.176
819.816 19.576 21.426 23.196 25.286 27.466 29.126 30.366 31.536 32.286 32.566
839.106 32.856 32.676 32.176 31.186 29.316 26.806 24.096 21.766 19.396 16.676
858.395 13.736 11.506 9.796 8.146 7.346 6.626 5.436 5.106 4.886 4.566
877.685 4.706 4.426 4.216 3.846 3.866 3.786 3.496 3.906 3.836 3.746
896.975 3.636 2.786 2.626 2.846 2.556 2.526 2.586 2.436 2.516 2.236
916.265 2.136 2.506 2.846 2.996 2.546 2.406 2.676 2.516 2.206 2.536
935.555 2.856 2.666 2.406 2.566 2.686 2.486 2.436 2.236 2.156 2.086
954.844 1.636 2.026 2.716 3.126 3.356 3.166 3.206 3.696 4.096 4.246
974.134 4.286 4.066 4.036 4.166 4.076 4.326 4.636 4.256 3.836 3.706
993.424 3.926 4.146 3.936 4.116 4.566 4.966 4.916 5.906 7.276 7.596
1012.714 7.946 7.966 7.856 7.836 8.196 7.696 6.376 4.986 4.296 3.796
1032.003 3.696 3.556 3.656 3.676 3.026 3.436 3.036 2.316 3.306 3.596
1051.293 2.756 3.036 3.316 2.806 2.336 2.416 2.586 2.366 2.416 2.976
1070.583 3.306 2.086 2.666 4.076 3.706 3.866 3.886 3.856 4.446 5.886
1089.873 6.766 7.206 8.126 8.726 8.756 9.476 9.556 8.216 8.236 8.446
1109.163 8.546 8.296 6.336 5.946 6.986 8.596 9.366 9.426 9.856 10.536
1128.452 11.086 12.086 14.466 16.136 18.796 20.806 23.046 28.156 31.966 34.406
1147.742 38.216 43.376 49.236 53.636 54.026 50.976 48.276 46.036 43.026 37.866
1167.032 30.146 23.996 19.566 16.276 14.376 13.466 13.546 13.586 13.516 14.026
1186.322 14.456 14.016 13.866 14.616 15.016 15.646 17.106 18.386 20.176 23.456
1205.611 26.326 29.446 33.766 36.896 40.426 45.096 49.706 54.746 61.056 68.756
1224.901 77.586 87.766 100.496 114.076 126.046 132.616 133.716 131.726 125.796 116.436
1244.191 100.906 79.026 57.096 40.646 29.806 22.946 18.976 16.546 14.976 13.786
1263.481 12.826 11.836 11.606 12.016 11.816 11.246 11.226 11.716 11.806 11.886
1282.771 12.356 12.516 12.536 12.406 12.156 12.096 11.846 11.696 11.586 11.356
1302.060 11.336 11.256 11.316 11.346 11.426 11.576 11.616 11.596 11.636 11.636
1321.350 11.726 11.906 11.716 11.506 11.436 11.546 11.836 12.246 12.736 13.286
1340.640 14.246 15.556 17.016 18.856 21.036 23.556 26.126 28.376 30.246 31.496
1359.930 31.906 31.716 30.936 29.206 26.866 24.126 21.496 19.096 16.786 14.956
1379.219 13.356 12.146 11.106 10.116 9.456 9.036 8.886 8.736 8.496 8.416
1398.509 8.606 8.766 8.886 9.186 9.546 9.846 10.336 10.786 11.106 11.686
1417.799 12.216 12.566 12.736 13.036 13.366 13.546 13.716 13.916 13.906 13.636
1437.089 13.476 12.976 12.136 11.486 10.706 9.876 9.176 8.426 7.926 7.666
1456.378 7.186 6.796 6.676 6.576 6.506 6.206 5.996 5.996 6.076 6.356
1475.668 6.386 6.606 7.166 7.726 8.636 9.876 11.596 13.996 17.806 23.376
1494.958 31.196 42.176 56.596 74.326 93.446 111.006 125.066 133.916 137.266 135.586
1514.248 128.566 116.226 99.006 79.666 60.816 46.146 34.926 26.556 20.786 16.966
1533.538 14.296 12.356 10.906 9.696 8.946 8.076 7.486 7.226 6.786 6.356
1552.827 6.166 6.176 6.176 6.106 6.136 6.116 6.076 6.276 6.356 6.406
1572.117 6.256 5.966 6.086 6.316 6.556 6.986 7.716 8.676 9.546 10.586
1591.407 12.056 13.646 15.326 17.236 19.226 21.066 22.776 24.006 24.276 23.946
1610.697 22.926 21.186 19.126 16.916 14.456 12.156 10.226 8.806 7.776 7.006
1629.986 6.536 6.056 5.686 5.496 5.396 5.286 5.426 5.646 5.606 5.556
1649.276 5.416 5.446 5.586 5.486 5.326 5.406 5.406 5.376 5.486 5.736
1668.566 6.026 6.156 6.516 6.986 7.446 7.936 8.636 9.446 10.226 11.066
1687.856 12.006 12.816 13.646 15.016 16.746 18.356 20.096 22.376 24.676 27.316
1707.146 30.486 34.246 38.526 43.326 48.766 54.946 61.996 68.506 74.446 79.686
1726.435 83.666 86.106 86.726 85.866 83.546 79.736 74.826 69.186 63.596 58.336
1745.725 53.716 49.756 46.036 42.266 38.726 35.606 32.536 29.606 26.786 24.086
1765.015 21.466 19.106 17.056 15.086 13.306 11.716 10.346 9.326 8.336 7.396
1784.305 6.626 5.906 5.276 5.026 4.856 4.436 4.226 3.976 3.596 3.276
1803.594 3.116 3.086 3.016 2.786 2.646 2.466 2.246 2.286 2.236 2.106
1822.884 2.056 1.936 1.896 2.016 1.916 1.836 1.886 1.796 1.756 1.786
1842.174 1.976 1.976 1.836 1.936 1.996 2.116 2.256 2.226 2.376 2.686
1861.464 2.846 2.976 3.156 3.416 3.606 3.646 3.796 4.056 4.076 3.976
1880.754 3.956 3.866 3.886 3.876 3.586 3.326 3.196 2.916 2.586 2.326
1900.043 2.216 2.056 1.776 1.586 1.596 1.576 1.506 1.476 1.3113 1.3171
1919.333 1.366 1.486 1.446 1.396 1.406 1.346 1.416 1.446 1.426 1.406
1938.623 1.406 1.426 1.376 1.386 1.456 1.406 1.2502 1.1427 1.0746 1.1388
1957.913 1.296 1.2705 1.0455 1.1837 1.3472 1.1027 1.1969 1.416 1.396 1.335
1977.202 1.2936 1.2248 1.276 1.386 1.366 1.3348 1.426 1.536 1.606 1.666
1996.492 1.696 1.576 1.676 1.716 1.466 1.556 1.706 1.626 1.566 1.416
2015.782 1.396 1.406 1.2864 1.3553 1.356 1.3169 1.446 1.466 1.2663 1.1465
2035.072 1.2409 1.3143 1.2714 1.1267 1.1426 1.3348 1.3114 1.1804 1.1922 1.1869
2054.362 1.1135 1.1822 1.2559 1.2503 1.1959 1.1818 1.1914 1.3316 1.416 1.426
2073.651 1.436 1.3464 1.446 1.616 1.696 1.616 1.486 1.456 1.476 1.416
2092.941 1.466 1.416 1.2206 1.2362 1.271 1.0493 0.9958 1.1163 1.0922 1.1571
2112.231 1.2297 1.1351 1.1012 1.1336 1.0799 1.0842 1.095 0.9431 0.9762 1.096
2131.521 1.0427 1.0686 1.0658 1.0463 1.0466 1.0603 1.0688 0.9838 0.9838 0.9428
2150.810 0.9028 0.9989 1.0047 1.0277 0.9897 0.923 0.8897 1.0279 1.2107 1.0231
2170.100 0.8952 1.159 1.1079 0.8155 0.7744 0.8582 0.893 0.8216 0.8104 0.8405
2189.390 0.9007 0.7644 0.7152 0.8713 0.9112 1.034 0.983 1.0539 1.0446 0.8225
2208.680 0.7768 0.8727 0.877 0.7337 0.8281 0.7892 0.753 0.7379 0.7104 0.8626
2227.970 1.0635 1.1518 0.9326 0.7419 0.7468 0.8636 0.8693 0.8839 1.1357 1.3042
2247.259 1.1095 1.0103 1.1379 1.1565 1.2004 1.2247 1.0093 0.9175 1.0017 0.9269
2266.549 0.911 0.9863 0.9893 0.9962 0.8104 0.7732 1.0298 0.8998 0.8163 0.919
2285.839 1.0082 0.8805 0.6572 0.7042 0.7976 0.789 0.7235 0.7212 0.7252 0.6352
2305.129 0.5415 0.7662 0.9251 0.9171 1.1395 1.2001 0.9802 0.8745 0.8947 1.038
2324.418 1.1313 1.0418 0.9459 0.9969 1.1065 1.1218 0.9485 0.6705 0.8623 1.1716
2343.708 1.226 1.1303 0.9401 0.9064 1.1412 1.426 1.456 1.436 1.1716 1.0412
2362.998 1.1135 1.1037 1.1232 1.1062 0.8597 0.9021 1.2671 1.1388 1.0492 1.1886
2382.288 1.1676 1.0109 1.1591 1.476 1.496 1.396 1.376 1.28 0.9832 0.8944
2401.578 1.1036 1.1494 0.973 0.9293 1.0944 1.0474 1.0702 1.2179 1.0615 0.9472
2420.867 0.9832 0.9561 0.8839 0.8802 0.9659 0.9086 0.9794 1.2686 1.2073 1.09
2440.157 1.2405 1.2618 1.366 1.626 1.746 1.566 1.426 1.566 1.646 1.716
2459.447 1.726 1.836 1.736 1.576 1.546 1.706 1.836 1.646 1.546 1.366
2478.737 1.3381 1.436 1.366 1.1331 0.8502 0.8357 0.8247 0.7442 0.774 0.7945
2498.026 1.0308 1.0229 0.7693 0.8649 1.0235 0.8878 0.8613 1.0223 0.8477 0.7208
2517.316 0.8241 0.8172 0.8229 0.8551 0.7987 0.6692 0.6248 0.576 0.6422 0.8019
2536.606 0.8491 0.8424 0.8028 0.8965 0.8773 0.7292 0.798 0.948 1.1152 1.0763
2555.896 1.0557 1.1087 1.0092 1.1287 1.386 1.1299 0.7593 0.8107 1.128 1.2309
2575.186 1.1365 0.9677 0.7923 0.782 0.8125 0.7502 0.7988 0.9267 0.9755 0.9383
2594.475 0.7809 0.7463 0.7847 0.8271 0.709 0.6511 0.6547 0.7763 0.8582 0.8519
2613.765 0.7976 1.0365 1.0091 0.6779 0.6816 0.6907 0.6192 0.5345 0.6821 0.6801
2633.055 0.4385 0.5675 0.7908 0.7333 0.7829 0.844 0.9 0.8949 0.7155 0.7526
2652.345 0.8661 0.5665 0.5689 0.6745 0.5407 0.6438 0.9305 0.828 0.8823 1.2293
2671.634 0.8411 0.42737 0.462 0.6387 0.7708 0.727 0.6823 0.8507 0.9427 0.8661
2690.924 0.8816 0.9098 1.0654 1.0231 0.7911 0.9197 0.9754 0.8714 0.8729 0.735
2710.214 0.7421 0.7297 0.6579 0.9758 1.2025 1.2366 1.2811 1.346 1.0234 1.111
2729.504 1.2202 1.1067 1.2349 1.0735 1.0007 1.0951 1.1087 1.1097 1.0606 1.0555
2748.794 1.147 1.0452 0.916 0.808 0.8625 0.7666 0.5245 0.7906 0.7342 0.44398
2768.083 0.6833 0.8146 1.0274 1.3311 1.332 1.1441 0.8257 0.5135 0.8323 1.0371
2787.373 0.9233 0.8724 0.8273 0.9699 0.9137 0.7257 1.0411 1.2752 1.1527 1.0062
2806.663 0.9597 1.466 1.606 1.356 1.1396 1.0827 1.3113 1.1309 0.9798 1.586
2825.953 2.106 2.346 2.416 2.176 2.066 2.276 2.336 2.286 2.286 2.206
2845.242 2.326 2.286 1.996 2.086 2.366 2.246 2.226 2.556 2.606 2.736
2864.532 3.016 2.916 2.666 2.676 2.966 3.216 3.416 3.476 3.506 3.776
2883.822 4.116 4.496 4.756 5.156 5.266 5.316 5.806 6.326 6.606 6.806
2903.112 7.286 7.866 8.276 8.476 8.936 9.266 9.586 10.136 10.786 11.236
2922.401 11.656 11.976 12.106 12.006 11.686 11.416 10.876 10.386 9.646 8.936
2941.691 8.706 8.556 8.256 8.206 8.316 7.996 7.996 7.776 7.696 8.296
2960.981 8.356 7.996 7.816 7.956 7.986 7.496 7.006 6.646 6.456 6.166
2980.271 5.856 5.756 5.396 5.316 5.556 5.736 5.796 5.936 6.296 6.686
2999.561 7.036 7.116 7.566 8.366 8.726 8.796 8.926 8.916 8.796 8.746
3018.850 8.266 7.856 7.776 7.476 7.416 7.496 7.746 8.216 8.756 9.686
3038.140 10.636 11.506 12.356 12.766 12.856 12.556 12.036 11.316 10.526 9.716
3057.430 8.696 8.056 7.456 6.856 6.266 6.116 6.136 6.016 6.356 6.376
3076.720 6.266 6.366 5.986 5.536 5.436 5.316 5.096 4.876 4.626 4.366
3096.009 3.726 3.146 3.166 3.286 3.106 3.116 3.356 3.436 3.256 3.576
3115.299 3.656 3.266 3.196 2.806 2.346 2.456 2.726 2.356 1.976 2.046
3134.589 2.016 1.966 1.756 1.626 1.656 1.726 1.636 1.1462 1.0395 1.1438
3153.879 1.0141 0.7094 0.59 0.8084 1.2224 1.1809 0.5411 0.4944 0.7074 0.6384
3173.169 0.543 0.7092 0.6578 0.5118 0.7594 0.7187 0.41949 0.3163 0.5921 0.8499
3192.458 1.0941 1.11 0.8305 0.7486 0.5704 0.4098 0.5293 0.4748 0.45521 0.6582
3211.748 0.587 0.5731 0.8926 0.8923 0.9154 1.0698 0.9967 0.7763 0.6078 0.8466
3231.038 0.8754 0.8245 0.5993 0.119 0.203 0.3382 0.37854 0.44766 0.8681 0.9717
3250.328 0.6924 0.8185 0.7588 1.0336 1.0319 0.5351 0.5518 0.7666 0.8071 0.8845
3269.617 0.9312 0.854 0.815 0.7789 0.7727 0.8285 0.9611 0.6173 0.6136 0.523
3288.907 0.6387 0.6373 0.226 0.4719 0.40694 1.0812 1.3517 0.8047 0.7367 0.6854
3308.197 0.6445 0.538 0.5641 0.7109 0.851 0.38035 0.107 0.37457 0.179 0.34684
3327.487 0.6703 0.8131 0.8141 0.205 0.5339 0.9866 0.45235 0.44632 0.7979 0.7806
3346.777 0.5354 0.7923 0.7442 0.3016 0.215 0.134 0.41351 0.7986 0.6767 0.6028
3366.066 0.7827 0.9279 1.093 1.0651 0.923 0.7592 0.5768 0.8346 0.9202 0.7171
3385.356 1.0717 0.9032 0.43449 0.4789 0.696 0.947 1.1521 1.2496 1.416 1.33
3404.646 1.109 1.3283 1.1692 1.0374 1.3192 1.386 1.676 1.916 1.756 1.866
3423.936 1.986 1.826 1.906 1.826 1.946 2.276 2.036 2.106 2.486 2.456
3443.225 2.266 1.966 1.956 2.086 2.026 1.966 1.766 2.076 2.046 1.676
3462.515 2.086 2.076 1.826 1.676 1.396 1.2383 0.9012 0.7833 1.2804 1.396
3481.805 1.0593 1.0296 0.8955 0.8561 1.1431 1.406 1.366 1.0134 0.255 0.125
3501.095 0.4768 0.6852 1.1195 0.7006 0.3052 0.9271 1.231 0.8162 0.9788 1.0483
3520.385 0.9952 0.9829 0.6081 0.8596 1.1306 0.7489 0.6156 0.5928 0.4781 0.5526
3539.674 0.6972 0.8038 0.5362 0.4713 0.8256 0.802 0.41633 0.42388 0.43224 0.34869
3558.964 0.38871 0.46 0.6367 0.7316 0.4824 0.40222 0.6315 0.5498 0.4766 0.7453
3578.254 0.5419 0.2623 0.43586 0.7493 0.8693 0.65 0.5422 0.5778 0.5893 0.8243
3597.544 0.7711 0.6917 0.8467 0.6318 0.6717 0.6157 0.3021 0.45275 0.3042 0.157
3616.833 0.247 0.008 0.24 0.5364 0.3738 0.201 0.068 0.44002 0.9303 0.8867
3636.123 0.5561 0.849 1.2843 1.2673 0.8918 0.7787 1.2298 1.3526 1.3028 1.2926
3655.413 0.944 0.6305 0.7938 0.6594 0.8167 1.0502 0.97 0.9979 0.8078 0.7109
3674.703 0.8302 0.9099 0.9106 0.9818 0.9707 0.9465 0.8706 0.6748 0.5686 0.5477
3693.993 0.6836 0.8354 0.9313 0.5897 0.5669 0.949 0.8236 0.675 0.7462 0.4778
3713.282 0.5998 0.7567 0.39753 0.2672 0.5509 0.6175 0.7804 1.0654 0.8649 0.8201
3732.572 0.878 0.9543 0.9479 1.0184 1.123 0.7097 0.5023 0.9655 1.1444 0.8417
3751.862 0.5021 0.6864 0.9112 0.6259 0.45594 0.7933 0.8809 0.8769 1.0821 0.6642
3771.152 0.5815 1.0514 1.3417 1.0477 0.9206 0.9508 0.621 0.8301 0.7536 0.39024
3790.441 0.5731 0.4678 0.39278 0.718 0.8835 0.893 0.41026 0.2894 0.6348 1.0615
3809.731 0.9568 0.5319 0.679 0.7374 0.3227 0 0.7293 1.2988 0.7637 0.8129
3829.021 0.8863 0.5913 0.44584 0.359809 0.6691 0.7527 0.7089 0.628 0.254 0.222
3848.311 0.14 0.139 0.43776 0.5728 0.4873 0.465 0.6114 0.5931 0.237 0.6288
3867.601 1.0716 0.7719 0.41481 0.2818 0.37597 0.6215 0.868 0.8231 0.8654 0.8325
3886.890 1.0131 1.3517 1.0386 0.44906 0.6789 0.6988 0.8545 0.62 0.043 0.8846
3906.180 0.7515 0.19 0.38808 0.41483 0.603 0.815 0.6681 0.5243 0.6959 0.8617
3925.470 0.9814 0.973 1.2552 1.2068 0.9028 1.103 1.496 1.546 1.1032 0.44149
3944.760 0.213 0.39112 0.5573 0.6606 0.5475 0.186 0.43837 0.8773 0.6466 0.7948
3964.049 0.737 0.361399 0.37024 0.6496 0.7268 0.9889 0.9914 0.722 0.8599 1.0342
3983.339 0.9792 0.4657 0.202 0.6616 0.9551 0.8862 0.852 0.6751 0.512 0.6953
##END=
