##TITLE=p-Fluorocinnamic acid
##JCAMP-DX=4.24
##DATA TYPE=INFRARED SPECTRUM
##ORIGIN=EPA-IR VAPOR PHASE LIBRARY
##OWNER=SRD/NIST
Collection (C) 2018 copyright by the U.S. Secretary of Commerce
on behalf of the United States of America. All rights reserved.
##CAS REGISTRY NO=459-32-5
##MOLFORM=C 9 H 7 F O 2
##$NIST SOURCE=MSDC-IR
##STATE=gas
##XUNITS=1/CM
##YUNITS=ABSORBANCE
##XFACTOR=1.
##YFACTOR=0.001
##DELTAX=1.92898
##FIRSTX=549.8
##LASTX=4000.7
##FIRSTY=9.758
##MAXX=4000.7
##MINX=549.759
##MAXY=0.057288
##MINY=0
##NPOINTS=1790
##XYDATA=(X++(Y..Y))
549.759 9.758 10.058 10.368 10.658 10.608 10.498 10.328 10.048 9.848 9.588
569.049 9.518 9.138 8.588 8.338 8.108 7.778 6.908 6.238 5.738 4.948
588.339 4.608 4.208 3.668 3.248 2.798 2.408 2.338 2.338 2.388 2.418
607.628 2.188 2.188 2.428 2.798 3.108 3.378 3.778 4.058 4.298 4.468
626.918 4.478 4.438 4.608 4.868 5.068 5.268 5.328 5.288 5.198 4.828
646.208 4.148 3.168 2.318 1.828 1.358 1.1721 1.0151 0.7323 0.771 0.9948
665.498 1.0071 0.8631 0.7734 0.8037 0.9243 0.9317 0.972 1.0146 1.1155 1.2416
684.787 1.2286 1.2519 1.348 1.498 1.528 1.468 1.518 1.528 1.458 1.418
704.077 1.358 1.328 1.298 1.2028 1.288 1.338 1.1397 1.0987 1.0963 1.0647
723.367 0.9658 0.8866 1.0784 1.0886 0.8926 0.9956 1.1477 1.1865 1.1972 1.1771
742.657 1.0933 1.0321 0.9841 0.8934 0.9757 1.1169 1.0771 1.1371 1.298 1.348
761.947 1.448 1.548 1.648 1.788 1.848 2.018 2.368 2.848 3.308 3.488
781.236 3.438 3.448 3.468 3.138 2.738 2.528 2.268 2.008 1.898 1.798
800.526 2.018 2.458 2.678 2.928 3.468 3.998 4.608 5.528 6.638 7.778
819.816 8.728 9.888 11.048 11.848 12.688 13.688 13.848 12.868 11.828 10.878
839.106 9.998 9.048 8.028 7.158 6.498 6.058 5.768 5.488 5.088 4.748
858.395 4.318 3.818 3.268 2.818 2.668 2.408 1.978 1.878 1.928 1.888
877.685 1.868 1.938 2.028 1.998 2.038 2.158 2.178 2.218 2.308 2.478
896.975 2.668 2.598 2.578 2.458 2.408 2.348 2.068 2.078 2.208 2.028
916.265 1.878 1.848 1.738 1.718 1.798 1.858 1.978 2.198 2.328 2.458
935.555 2.768 3.068 3.218 3.338 3.478 3.558 3.368 3.008 2.718 2.548
954.844 2.528 2.718 3.038 3.218 3.498 3.958 4.388 4.898 5.418 5.778
974.134 6.008 6.358 6.718 6.798 6.628 6.238 5.748 5.218 4.798 4.448
993.424 3.818 3.258 2.848 2.398 2.118 1.988 2.008 2.078 2.128 2.128
1012.714 2.238 2.298 2.298 2.268 1.958 1.608 1.2833 1.1073 1.0561 1.0259
1032.003 0.8892 0.6004 0.8396 1.1564 1.2251 1.398 1.298 1.2074 1.1796 1.2611
1051.293 1.458 1.2322 1.2193 1.668 1.808 1.808 1.768 1.898 2.248 2.508
1070.583 2.828 3.328 3.648 3.778 3.918 4.548 5.708 6.338 6.848 7.598
1089.873 8.518 9.268 10.178 11.248 12.938 15.088 17.148 20.058 23.418 27.958
1109.163 33.918 40.688 47.718 52.968 54.738 53.878 52.008 48.408 41.458 33.008
1128.452 26.618 22.948 20.718 19.188 18.228 17.988 17.818 17.938 19.218 21.188
1147.742 23.918 27.038 29.808 31.968 33.278 32.808 30.538 27.088 22.948 18.338
1167.032 13.868 10.548 8.328 7.038 6.378 5.958 5.438 5.118 5.078 5.098
1186.322 5.148 5.228 5.088 4.908 5.028 5.108 5.068 4.738 4.308 4.158
1205.611 4.348 4.628 4.738 5.078 5.308 5.518 5.968 6.628 7.298 7.898
1224.901 9.018 10.888 13.638 17.678 23.028 29.218 35.408 40.098 42.118 41.738
1244.191 39.158 34.088 26.848 19.088 13.068 9.408 7.548 6.688 6.298 6.138
1263.481 5.848 5.628 5.728 5.688 5.578 5.598 5.528 5.508 5.648 5.798
1282.771 5.868 5.778 5.748 5.868 5.928 5.948 5.958 5.958 5.858 5.848
1302.060 6.008 6.108 6.108 6.078 5.928 5.718 5.548 5.328 5.028 4.738
1321.350 4.518 4.358 4.238 4.138 4.088 4.078 4.188 4.418 4.728 5.128
1340.640 5.738 6.508 7.458 8.588 9.758 10.908 11.918 12.768 13.478 13.858
1359.930 13.648 12.988 12.008 10.878 9.568 8.068 6.628 5.338 4.368 3.728
1379.219 3.248 2.888 2.648 2.468 2.298 2.208 2.158 2.118 2.178 2.268
1398.509 2.368 2.558 2.848 3.238 3.688 4.158 4.588 4.918 5.108 5.048
1417.799 4.758 4.398 3.958 3.398 2.928 2.588 2.308 2.178 2.058 1.978
1437.089 1.998 1.958 1.858 1.808 1.738 1.668 1.608 1.548 1.468 1.368
1456.378 1.298 1.298 1.308 1.2502 1.2481 1.249 1.219 1.1917 1.2245 1.2754
1475.668 1.288 1.378 1.518 1.628 1.768 1.978 2.258 2.618 3.158 3.978
1494.958 5.188 7.018 9.608 13.168 17.628 22.358 26.968 30.418 31.998 31.658
1514.248 29.508 25.888 21.088 16.028 11.408 8.158 5.968 4.658 3.758 3.048
1533.538 2.558 2.238 1.998 1.828 1.758 1.668 1.528 1.478 1.448 1.448
1552.827 1.408 1.388 1.398 1.348 1.358 1.448 1.498 1.518 1.638 1.818
1572.117 1.988 2.198 2.498 2.928 3.378 3.918 4.648 5.618 6.818 8.188
1591.407 9.728 11.248 12.628 13.758 14.428 14.508 14.048 13.128 11.928 10.648
1610.697 9.438 8.438 7.638 7.068 6.758 6.718 6.878 7.278 7.858 8.498
1629.986 9.218 9.988 10.798 11.738 12.758 13.768 14.778 15.508 15.738 15.338
1649.276 14.328 12.858 10.718 8.308 6.108 4.478 3.688 3.198 2.898 2.678
1668.566 2.528 2.498 2.438 2.358 2.318 2.228 2.138 2.138 2.118 2.118
1687.856 2.138 2.148 2.168 2.198 2.258 2.388 2.488 2.708 3.068 3.318
1707.146 3.598 3.928 4.258 4.608 5.018 5.478 5.928 6.308 6.898 7.738
1726.435 8.628 9.728 11.028 12.508 14.498 17.038 20.118 24.078 28.688 33.908
1745.725 39.288 44.468 49.028 52.948 56.018 57.288 56.158 53.168 49.238 45.168
1765.015 40.858 35.678 29.988 24.948 20.718 17.478 14.998 13.068 11.588 10.408
1784.305 9.498 8.798 8.348 7.978 7.618 7.278 6.888 6.408 5.858 5.328
1803.594 4.828 4.268 3.748 3.298 2.938 2.608 2.368 2.168 1.948 1.778
1822.884 1.678 1.618 1.538 1.458 1.418 1.398 1.328 1.288 1.2697 1.2654
1842.174 1.2367 1.2164 1.2627 1.2255 1.163 1.1206 1.0838 1.061 1.0244 1.0332
1861.464 1.0516 1.058 1.0975 1.0905 1.0811 1.1683 1.2381 1.298 1.408 1.498
1880.754 1.588 1.628 1.608 1.608 1.588 1.528 1.448 1.358 1.2607 1.1184
1900.043 1.0342 0.9723 0.8474 0.7633 0.7391 0.7137 0.697 0.6238 0.5799 0.6658
1919.333 0.6997 0.6458 0.5824 0.5762 0.6023 0.6424 0.6674 0.6548 0.7005 0.7555
1938.623 0.7879 0.7635 0.7292 0.7725 0.7906 0.7714 0.7394 0.7458 0.7705 0.7613
1957.913 0.76 0.7516 0.731 0.7249 0.7127 0.6983 0.6977 0.6437 0.5898 0.616
1977.202 0.6024 0.5573 0.509 0.5138 0.5453 0.5129 0.4761 0.4826 0.5019 0.5153
1996.492 0.5244 0.5354 0.5261 0.4889 0.5429 0.5948 0.6421 0.6819 0.71 0.7307
2015.782 0.7249 0.7426 0.7765 0.7814 0.7351 0.7174 0.7123 0.6997 0.684 0.6345
2035.072 0.6127 0.612 0.6091 0.6188 0.636 0.6875 0.7244 0.7442 0.7654 0.7803
2054.362 0.7582 0.7325 0.7701 0.7519 0.7013 0.6872 0.6742 0.6328 0.5878 0.5393
2073.651 0.5497 0.576 0.5538 0.5623 0.5832 0.5787 0.5237 0.5519 0.6015 0.588
2092.941 0.598 0.6082 0.6162 0.6124 0.5629 0.5413 0.5394 0.5157 0.5029 0.4715
2112.231 0.4916 0.5081 0.4335 0.37545 0.34782 0.35328 0.37971 0.4278 0.4198 0.34792
2131.521 0.36025 0.38444 0.412 0.4399 0.4257 0.4041 0.35114 0.36516 0.4166 0.3944
2150.810 0.3894 0.4242 0.4441 0.4265 0.4104 0.4494 0.4547 0.4009 0.396 0.38033
2170.100 0.3763 0.36256 0.35073 0.4101 0.4012 0.3941 0.3996 0.38461 0.3773 0.3997
2189.390 0.4576 0.4443 0.4376 0.4728 0.5018 0.4777 0.4614 0.4909 0.4853 0.4859
2208.680 0.4869 0.4653 0.4641 0.5157 0.5202 0.4715 0.5326 0.6091 0.595 0.5301
2227.970 0.484 0.5171 0.5589 0.5428 0.5503 0.5741 0.5556 0.5716 0.5566 0.5175
2247.259 0.5048 0.5289 0.529 0.4982 0.4785 0.4819 0.5021 0.4631 0.4329 0.4348
2266.549 0.4339 0.4513 0.4475 0.4177 0.3974 0.4395 0.46 0.4395 0.4384 0.4575
2285.839 0.4939 0.5336 0.5728 0.5168 0.5031 0.5695 0.5656 0.5426 0.5189 0.486
2305.129 0.4694 0.459 0.4477 0.4557 0.4585 0.4477 0.4073 0.3945 0.4265 0.439
2324.418 0.3503 0.28034 0.33831 0.33147 0.30863 0.34701 0.33399 0.33346 0.35447 0.30782
2343.708 0.32123 0.3873 0.3916 0.4166 0.4238 0.36724 0.3812 0.4326 0.4052 0.36906
2362.998 0.3964 0.3891 0.4006 0.4187 0.38391 0.4393 0.5094 0.4738 0.419 0.4582
2382.288 0.441 0.3982 0.443 0.4702 0.482 0.4627 0.4925 0.5241 0.5115 0.5322
2401.578 0.5598 0.5437 0.4793 0.4382 0.4332 0.4622 0.4678 0.4354 0.4531 0.4391
2420.867 0.4118 0.4222 0.42 0.4732 0.4898 0.4631 0.4725 0.468 0.4782 0.4937
2440.157 0.5399 0.5567 0.4772 0.4223 0.4865 0.5391 0.5516 0.5734 0.5879 0.6062
2459.447 0.6376 0.6633 0.6591 0.6503 0.6995 0.787 0.7803 0.7416 0.6979 0.6977
2478.737 0.7166 0.7009 0.679 0.6209 0.5922 0.5617 0.5392 0.5267 0.5038 0.4721
2498.026 0.423 0.4539 0.4879 0.44 0.4267 0.4937 0.4888 0.418 0.4141 0.4273
2517.316 0.4078 0.4221 0.4732 0.4585 0.4172 0.4411 0.4814 0.531 0.52 0.4472
2536.606 0.4706 0.4659 0.4441 0.4883 0.5205 0.4995 0.4881 0.5011 0.4814 0.4566
2555.896 0.4782 0.4703 0.4662 0.4895 0.4995 0.5545 0.5602 0.6025 0.6151 0.6268
2575.186 0.6752 0.5781 0.4764 0.5316 0.5513 0.5299 0.5816 0.5616 0.5233 0.4822
2594.475 0.4656 0.4795 0.4683 0.4316 0.38788 0.4012 0.4048 0.4182 0.3967 0.32554
2613.765 0.34222 0.3905 0.38278 0.33258 0.33866 0.37456 0.33439 0.33433 0.37597 0.4388
2633.055 0.467 0.38051 0.32409 0.34514 0.35534 0.35005 0.398 0.4466 0.3956 0.35955
2652.345 0.4118 0.3992 0.37051 0.32827 0.30473 0.37625 0.4016 0.36348 0.35415 0.35705
2671.634 0.32326 0.3295 0.38625 0.3881 0.33344 0.36869 0.3961 0.34105 0.31065 0.30603
2690.924 0.3864 0.46 0.4742 0.4709 0.4714 0.4289 0.4 0.4273 0.4063 0.404
2710.214 0.37002 0.34332 0.3569 0.3418 0.3995 0.4346 0.404 0.35988 0.37124 0.4262
2729.504 0.37618 0.3692 0.4107 0.4117 0.37323 0.37098 0.4521 0.4402 0.353 0.4128
2748.794 0.4293 0.36634 0.4465 0.4776 0.4049 0.38366 0.4409 0.4251 0.3884 0.473
2768.083 0.4755 0.4042 0.4643 0.5448 0.5193 0.4568 0.4606 0.4397 0.3881 0.36726
2787.373 0.4387 0.5031 0.4779 0.4611 0.4085 0.38147 0.38279 0.4145 0.4217 0.32568
2806.663 0.35602 0.4249 0.35621 0.37935 0.4061 0.33274 0.33654 0.4032 0.4396 0.446
2825.953 0.33874 0.31182 0.4724 0.4903 0.4177 0.4146 0.35499 0.37791 0.4855 0.4876
2845.242 0.4738 0.4815 0.4133 0.4162 0.4713 0.4774 0.4602 0.4132 0.4253 0.4375
2864.532 0.4437 0.4441 0.4602 0.445 0.4224 0.4294 0.4313 0.44 0.4153 0.4833
2883.822 0.4405 0.36595 0.4562 0.4307 0.33205 0.31345 0.38737 0.4146 0.3965 0.4076
2903.112 0.487 0.4424 0.35395 0.3799 0.37433 0.451 0.507 0.4573 0.4698 0.4784
2922.401 0.399 0.35798 0.4379 0.4979 0.5216 0.4914 0.4771 0.5533 0.5651 0.5174
2941.691 0.4939 0.4869 0.4924 0.4817 0.5261 0.5532 0.4193 0.4421 0.4504 0.4295
2960.981 0.432 0.34882 0.35112 0.4043 0.4589 0.4118 0.4067 0.3864 0.35119 0.4308
2980.271 0.4791 0.4956 0.549 0.5732 0.5682 0.6285 0.6505 0.6368 0.6623 0.6731
2999.561 0.7096 0.7145 0.6653 0.6607 0.7449 0.7892 0.7167 0.7614 0.7153 0.6345
3018.850 0.7225 0.6858 0.6776 0.7425 0.7455 0.7576 0.789 0.9434 1.0712 1.1959
3038.140 1.408 1.558 1.788 1.998 2.118 2.198 2.238 2.298 2.278 2.268
3057.430 2.168 1.938 1.748 1.668 1.658 1.588 1.538 1.548 1.598 1.628
3076.720 1.668 1.638 1.468 1.388 1.418 1.338 1.1574 1.0018 0.9668 0.9899
3096.009 0.9278 0.8669 0.8969 0.9261 0.8781 0.8223 0.8101 0.8138 0.8554 0.8287
3115.299 0.771 0.7593 0.6951 0.6852 0.7175 0.735 0.6931 0.6011 0.5941 0.5737
3134.589 0.5214 0.5009 0.4156 0.30044 0.294992 0.4214 0.531 0.4662 0.36818 0.32825
3153.879 0.32433 0.33273 0.36182 0.38682 0.38103 0.36196 0.36579 0.4375 0.4982 0.5082
3173.169 0.5039 0.4778 0.419 0.30222 0.288191 0.38207 0.3936 0.3896 0.3845 0.30575
3192.458 0.30772 0.33549 0.36269 0.4036 0.36427 0.37413 0.4631 0.4091 0.3496 0.31945
3211.748 0.2731 0.4159 0.4041 0.4076 0.4872 0.4432 0.3949 0.3956 0.38036 0.34579
3231.038 0.3989 0.5024 0.5341 0.3934 0.34235 0.3964 0.32407 0.34283 0.4285 0.296714
3250.328 0.213 0.2747 0.2249 0.13 0.199 0.30648 0.33255 0.34845 0.3597 0.3517
3269.617 0.2253 0.176 0.28675 0.32115 0.30987 0.2703 0.223 0.2476 0.27935 0.34163
3288.907 0.33151 0.34466 0.38341 0.35422 0.34204 0.29729 0.31875 0.37499 0.34241 0.2694
3308.197 0.31679 0.34877 0.3323 0.3291 0.294954 0.2502 0.28525 0.38314 0.30643 0.2173
3327.487 0.28462 0.2779 0.30924 0.3534 0.4192 0.536 0.392 0.176 0.171 0.171
3346.777 0.259 0.4223 0.32175 0.2215 0.2749 0.32055 0.359 0.38597 0.35922 0.4098
3366.066 0.37195 0.34531 0.33836 0.35854 0.35913 0.25 0.3223 0.36873 0.37074 0.38696
3385.356 0.34502 0.2555 0.34179 0.37613 0.33172 0.414 0.426 0.35967 0.37652 0.4679
3404.646 0.39 0.36647 0.4179 0.297981 0.31415 0.30006 0.27829 0.34717 0.34796 0.36157
3423.936 0.33776 0.34844 0.292087 0.27963 0.35033 0.2616 0.2331 0.3992 0.4216 0.30774
3443.225 0.3058 0.31932 0.36337 0.38521 0.3596 0.4147 0.4472 0.4397 0.5195 0.4838
3462.515 0.3927 0.4707 0.5156 0.4923 0.5191 0.5586 0.6071 0.6304 0.6591 0.7099
3481.805 0.7 0.6147 0.6439 0.765 0.7384 0.7134 0.7762 0.7402 0.6041 0.6344
3501.095 0.6739 0.6636 0.7511 0.8629 0.8386 0.6654 0.6834 0.8284 0.7721 0.6764
3520.385 0.6705 0.5736 0.4375 0.4739 0.462 0.5254 0.5503 0.5454 0.5137 0.4505
3539.674 0.5419 0.6118 0.6395 0.5682 0.4945 0.5321 0.5469 0.5817 0.6364 0.6926
3558.964 0.8068 0.994 1.338 1.668 2.328 3.458 5.208 7.878 11.458 15.768
3578.254 19.828 22.668 24.068 24.378 23.158 19.848 15.508 11.388 7.798 5.038
3597.544 3.178 2.068 1.438 1.013 0.8895 0.8413 0.7435 0.6718 0.6238 0.5605
3616.833 0.5345 0.5722 0.5398 0.512 0.4647 0.5706 0.5952 0.4797 0.5111 0.3931
3636.123 0.31444 0.4411 0.5407 0.5808 0.5481 0.4934 0.4439 0.4982 0.4835 0.36629
3655.413 0.4357 0.4761 0.38301 0.3894 0.4393 0.37428 0.3426 0.38404 0.4015 0.4096
3674.703 0.37447 0.37837 0.4447 0.4217 0.4119 0.37499 0.28647 0.33647 0.31711 0.32378
3693.993 0.4525 0.4979 0.4076 0.32679 0.3914 0.38291 0.32496 0.30214 0.37091 0.4791
3713.282 0.4655 0.36433 0.34058 0.4439 0.411 0.36227 0.35985 0.34061 0.28447 0.2545
3732.572 0.2189 0.143 0.1954 0.2265 0.2328 0.31252 0.297359 0.2178 0.119 0
3751.862 0.049 0.2253 0.2494 0.2632 0.3046 0.30657 0.28674 0.30185 0.32534 0.32652
3771.152 0.36017 0.36441 0.35478 0.31678 0.2428 0.2729 0.38389 0.3926 0.31923 0.35645
3790.441 0.37382 0.296423 0.28407 0.2221 0.2556 0.2466 0.173 0.2607 0.34151 0.34794
3809.731 0.34374 0.1904 0.14 0.28188 0.36458 0.29635 0.138 0.2503 0.31736 0.27904
3829.021 0.31902 0.2758 0.2256 0.1886 0.28679 0.35261 0.293025 0.28052 0.35777 0.37578
3848.311 0.35997 0.4607 0.4347 0.2677 0.36582 0.4416 0.34592 0.2754 0.288289 0.2772
3867.601 0.085 0.045 0.2249 0.2522 0.1975 0.3904 0.4198 0.2631 0.2085 0.2249
3886.890 0.2649 0.2696 0.3998 0.37274 0.2305 0.28576 0.32733 0.2738 0.292406 0.34233
3906.180 0.37671 0.36278 0.2678 0.2628 0.2748 0.2528 0.38783 0.4071 0.2278 0.172
3925.470 0.2197 0.31221 0.30266 0.2765 0.33391 0.2625 0.290648 0.33911 0.2106 0.1942
3944.760 0.28236 0.1987 0.044 0.111 0.29939 0.2729 0.156 0.27901 0.37602 0.32268
3964.049 0.292084 0.2244 0.1967 0.2524 0.28187 0.2395 0.2603 0.32138 0.29692 0.28477
3983.339 0.29925 0.2431 0.2009 0.32603 0.33294 0.2428 0.3029 0.37581 0.37951 0.297975
##END=
