##TITLE=2-Bromopyrimidine
##JCAMP-DX=4.24
##DATA TYPE=INFRARED SPECTRUM
##ORIGIN=EPA-IR VAPOR PHASE LIBRARY
##OWNER=SRD/NIST
Collection (C) 2018 copyright by the U.S. Secretary of Commerce
on behalf of the United States of America. All rights reserved.
##CAS REGISTRY NO=4595-60-2
##MOLFORM=C 4 H 3 Br N 2
##$NIST SOURCE=MSDC-IR
##STATE=gas
##XUNITS=1/CM
##YUNITS=ABSORBANCE
##XFACTOR=1.
##YFACTOR=0.001
##DELTAX=1.92898
##FIRSTX=549.8
##LASTX=4000.7
##FIRSTY=1.307
##MAXX=4000.7
##MINX=549.759
##MAXY=0.41204
##MINY=0
##NPOINTS=1790
##XYDATA=(X++(Y..Y))
549.759 1.307 1.043 1.101 0.27 0 1.143 1.756 0.979 0.38 0.891
569.049 1.284 1.47725 1.47106 1.062 1.223 1.675 2.0761 2.4416 2.407 2.7
588.339 2.82 2.96 3.44 3.9 4.98 5.9 6.69 7.85 8.74 9.53
607.628 10.84 12.58 14.33 16.48 17.92 17.58 15.6 12.54 11.36 14.06
626.918 17.64 18.42 17.25 14.8 12.38 10.19 8.46 7.92 7.26 6.48
646.208 5.65 4.72 4.41 4.1 3.91 4.15 4.04 3.87 3.24 2.74
665.498 2.88 3.06 2.67 2.0318 2.0568 2.1585 2.0856 1.9423 2.0441 1.8739
684.787 1.4562 1.6106 1.827 1.5189 1.138 1.298 1.572 1.3744 1.168 1.344
704.077 1.46926 1.803 1.8766 2.0245 2.75 3.64 5.66 9.21 14.58 22.84
723.367 33.33 44.31 53.59 58.27 59.52 61.69 66.46 70.27 74.8 77.66
742.657 69.27 52.81 36.67 25.66 19.83 17.57 17.15 17.09 17.38 17.68
761.947 18.13 19.99 23.42 26.34 23.56 18.92 18.85 20.01 20.83 21.96
781.236 23.06 24.22 25.33 26.11 26.34 26.79 27.79 30.18 34.66 41.81
800.526 43.24 34.85 30.43 28.85 26.34 25.23 23.68 21.77 19.79 17.59
819.816 15.09 12.6 10.71 8.84 7.09 5.82 4.75 4.09 3.5 3.22
839.106 3.34 3.06 2.5 2.387 2.3023 2.1126 1.8862 2.0935 2.459 2.358
858.395 2.3851 2.2643 2.3131 2.3151 1.9269 1.9743 2.3403 2.64 2.69 2.69
877.685 2.76 2.81 2.82 2.55 2.52 2.5 2.3529 2.57 2.85 3.37
896.975 3.77 4.23 4.67 4.69 4.23 3.79 4.03 4.07 4.25 4.71
916.265 4.85 4.69 4.43 3.92 3.41 3.32 3.52 3.76 3.85 3.66
935.555 3.02 2.8 2.82 2.61 2.6 2.68 2.8 2.3563 1.7246 1.6374
954.844 1.7124 1.8297 1.8713 1.7414 1.56877 1.345 1.228 1.088 1.4122 1.5187
974.134 0.922 0.991 1.268 1.279 0.947 1.099 1.49128 1.363 1.316 1.213
993.424 1.207 1.237 1.233 1.9874 2.2835 1.55011 1.55356 1.8295 1.4093 1.4363
1012.714 1.4418 1.276 1.7053 1.8424 1.9931 1.7877 1.4335 1.6686 1.225 1.162
1032.003 1.48673 1.141 1.257 1.733 2.1957 2.79 3.27 3.89 5.02 6.22
1051.293 7.95 9.5 10.35 11.31 12.69 13.27 12.69 12.37 12.01 11.51
1070.583 10.86 9.97 8.43 6.97 5.46 3.9 2.63 2.5 3.15 3.48
1089.873 2.96 2.467 3.36 4 3.29 2.51 3.29 3.37 2.3255 2.2577
1109.163 2.8 3.44 3.51 4.47 5.02 4.8 5.79 6.76 8.57 10.16
1128.452 10.94 13.41 15.65 18.01 21.83 28.23 38.34 53.7 77 109.76
1147.742 153.48 206.55 262.84 309.81 338.72 348.85 347.88 350.46 347.46 349.86
1167.032 353.19 302.34 209.33 122.94 65.48 35.65 21.7 14.4 10.7 8.3
1186.322 6.65 6.58 6.27 5.02 4.69 4.46 3.68 3.57 3.57 3.55
1205.611 2.88 2.48 3.79 4.75 3.26 2.6 3.9 4.14 3.64 3.48
1224.901 3.09 3.32 4.36 4.99 4.79 4.96 5.49 5.99 6.56 6.65
1244.191 6.68 7.37 7.96 8.67 9.56 9.46 8.98 8.05 7.33 7.67
1263.481 8.42 8.97 9.04 8.31 7.47 6.59 5.68 5.1 4.36 4.1
1282.771 4.07 3.83 3.54 3.35 3.15 2.96 3.07 3.07 2.9 2.68
1302.060 2.78 3.01 2.98 2.94 2.93 3.05 3.02 2.94 2.98 3.01
1321.350 2.97 2.9 3.01 3.09 3.21 3.43 3.74 4.01 4.33 4.87
1340.640 5.84 7.17 8.76 11.03 14.05 17.65 22.36 28.71 36.84 47.13
1359.930 60.19 77.06 98.87 127.41 164.78 211.52 266.37 324.3 374.96 406.09
1379.219 412.04 400.36 388.18 374.55 359.94 352.99 319.18 244.45 161.84 96.71
1398.509 55.59 33.65 23.55 19.16 17.36 16.75 16.63 16.68 16.73 16.7
1417.799 16.65 16.34 15.92 15.52 15.15 14.51 13.91 13.24 12.4 11.76
1437.089 11.23 10.69 10.02 9.28 8.77 8.31 7.75 7.17 6.48 5.63
1456.378 4.87 4.42 4.04 3.77 3.71 3.66 3.76 3.84 3.79 4.04
1475.668 4.34 4.77 5.53 6.2 6.65 6.96 7.41 7.87 8.21 8.56
1494.958 8.83 8.97 9.18 9.25 9.28 9.72 10.52 11.64 12.98 14.87
1514.248 17.33 20.12 23.39 27.23 32.03 37.99 44.99 53.03 62.22 72.7
1533.538 84.83 98.77 114.73 134.05 157.04 183.74 213.97 245.78 276.26 302.56
1552.827 320.07 325.77 318.84 300.87 275.12 243.54 206.57 163.79 119.46 82.42
1572.117 56.79 40.93 30.57 23.12 18.01 14.57 12.16 10.57 9.69 8.95
1591.407 8.36 8.05 7.72 7.34 6.84 6.43 6.11 5.68 5.23 4.92
1610.697 4.83 4.59 4.22 3.77 3.41 3.21 2.97 2.82 2.68 2.66
1629.986 2.71 2.59 2.53 2.5 2.4195 2.4538 2.372 2.1549 2.0479 2.0594
1649.276 2.0072 2.0347 2.2094 2.3418 2.3694 2.243 2.2064 2.2395 2.2441 2.2993
1668.566 2.293 2.3486 2.48 2.52 2.48 2.53 2.72 2.77 2.69 2.72
1687.856 2.91 2.98 2.89 2.93 3.18 3.35 3.44 3.64 3.83 3.91
1707.146 4.09 4.28 4.33 4.43 4.43 4.34 4.28 4.09 3.84 3.69
1726.435 3.37 2.98 2.77 2.58 2.311 2.1313 2.1998 2.2601 2.1098 2.1615
1745.725 2.3631 2.4667 2.391 2.4452 2.66 2.82 3.14 3.35 3.47 3.67
1765.015 3.88 4.25 4.47 4.43 4.5 4.69 4.68 4.58 4.54 4.31
1784.305 4 3.7 3.36 3 2.69 2.54 2.4034 2.3606 2.3081 2.1773
1803.594 2.1565 2.0087 1.9364 2.0417 2.1034 2.1041 2.0914 2.0443 1.9397 2.0164
1822.884 2.0451 2.0599 2.0551 1.9605 1.9936 1.9887 1.8673 1.8114 1.7271 1.7742
1842.174 1.8129 1.6103 1.47936 1.51863 1.5709 1.51883 1.5954 1.5928 1.54145 1.55913
1861.464 1.5743 1.6471 1.6169 1.6317 1.7339 1.8146 1.7807 1.8925 2.158 2.2359
1880.754 2.4303 2.69 2.84 3.08 3.27 3.45 3.56 3.62 3.69 3.55
1900.043 3.38 3.24 3.03 2.79 2.54 2.2666 2.0712 2.0811 2.1703 2.1783
1919.333 2.2715 2.2612 2.2468 2.454 2.65 2.82 3.08 3.24 3.39 3.63
1938.623 3.74 3.9 4.09 4.26 4.48 4.69 4.82 4.89 5.02 5.07
1957.913 5.12 5.01 4.77 4.6 4.31 4.11 3.87 3.56 3.27 2.89
1977.202 2.71 2.4603 2.2385 2.2137 2.1598 2.0311 1.883 1.9076 1.9505 1.8975
1996.492 1.9454 1.8697 1.7009 1.664 1.7642 1.7255 1.5952 1.6399 1.6664 1.6616
2015.782 1.6038 1.52915 1.53797 1.6561 1.6515 1.4506 1.3949 1.4809 1.6122 1.6775
2035.072 1.53547 1.48333 1.56151 1.6344 1.7216 1.7717 1.7988 1.8389 1.9224 1.8658
2054.362 1.7791 1.9109 1.9192 1.789 1.7662 1.8142 1.7339 1.5702 1.5783 1.52851
2073.651 1.4351 1.4404 1.47228 1.5817 1.5768 1.50787 1.6486 1.7004 1.6742 1.7294
2092.941 1.7404 1.7545 1.8328 1.8838 2.0126 2.1571 2.2043 2.2404 2.3899 2.52
2112.231 2.48 2.4658 2.55 2.63 2.56 2.3763 2.4617 2.67 2.67 2.58
2131.521 2.62 2.76 2.69 2.75 2.84 2.81 2.87 2.89 2.84 2.78
2150.810 2.68 2.6 2.62 2.6 2.53 2.61 2.66 2.62 2.4437 2.4165
2170.100 2.4467 2.3734 2.3953 2.4101 2.4056 2.4331 2.3349 2.1988 2.2632 2.3186
2189.390 2.3249 2.3854 2.325 2.3113 2.3887 2.4403 2.4485 2.3628 2.3026 2.247
2208.680 2.2123 2.2753 2.4448 2.63 2.66 2.81 3.1 3.26 3.39 3.53
2227.970 3.65 3.76 3.83 3.9 3.9 3.79 3.67 3.53 3.4 3.4
2247.259 3.37 3.11 2.77 2.56 2.4346 2.3402 2.3889 2.2908 2.1049 1.9794
2266.549 2.0061 2.0997 2.201 2.2249 2.2331 2.2863 2.3128 2.2515 2.0905 2.2298
2285.839 2.47 2.454 2.2537 2.1717 2.2003 2.0966 2.0567 2.0525 2.0151 1.9437
2305.129 1.9623 2.0099 2.0789 2.1119 2.1082 2.2404 2.2664 2.3625 2.4088 2.4269
2324.418 2.3202 2.2707 2.54 2.69 2.73 2.93 3.25 3.57 3.69 3.75
2343.708 3.95 4.22 4.38 4.58 4.9 5.2 5.41 5.44 5.54 5.57
2362.998 5.47 5.35 5.12 4.96 4.77 4.4 3.97 3.33 2.93 2.74
2382.288 2.3715 2.3022 2.3117 2.3963 2.68 2.75 2.86 3.01 3.15 3.31
2401.578 3.59 3.88 3.87 3.75 3.68 3.75 3.82 3.67 3.42 3.31
2420.867 3.18 2.87 2.58 2.4394 2.3654 2.3233 2.2702 2.0718 2.0806 2.055
2440.157 1.8272 1.9381 2.0509 2.1367 2.1575 2.1106 2.2066 2.3019 2.3152 2.1866
2459.447 2.1266 2.1998 2.1879 2.0456 2.0452 2.1425 2.1152 1.9444 1.7089 1.6553
2478.737 1.7344 1.7611 1.8407 1.7704 1.7459 1.9265 1.9927 2.0822 2.3235 2.2975
2498.026 2.276 2.47 2.53 2.66 2.78 2.71 2.77 3.04 3.22 3.3
2517.316 3.42 3.68 3.8 3.97 4.38 4.61 4.87 5.1 5.12 5.17
2536.606 5.2 5.08 4.86 4.6 4.17 3.67 3.37 3.14 2.76 2.51
2555.896 2.3852 2.3677 2.3211 2.2509 2.3933 2.5 2.49 2.49 2.55 2.58
2575.186 2.59 2.83 2.85 2.73 2.6 2.2671 2.1985 2.3629 2.3047 2.1006
2594.475 2.1899 2.4364 2.5 2.331 2.3117 2.3503 2.2237 2.3164 2.47 2.54
2613.765 2.48 2.4659 2.4383 2.3409 2.407 2.56 2.67 2.56 2.48 2.49
2633.055 2.52 2.53 2.3587 2.1832 2.2935 2.3744 2.2152 2.1585 2.0077 1.8564
2652.345 1.9129 1.8692 1.8658 1.9099 1.8661 1.9223 2.0411 2.0743 2.0011 1.8565
2671.634 1.7818 1.971 2.0449 2.0077 2.0646 2.17 2.2756 2.3034 2.4082 2.49
2690.924 2.68 2.79 2.66 2.53 2.57 2.73 2.91 3.06 3.11 2.82
2710.214 2.74 2.93 2.92 2.72 2.59 2.3143 2.0029 2.0196 1.8518 1.7746
2729.504 1.7117 1.6387 1.7157 1.6362 1.52842 1.6316 1.6126 1.52961 1.5949 1.56511
2748.794 1.53782 1.652 1.88 1.8599 1.53145 1.53925 1.7177 1.7065 1.6464 1.3914
2768.083 1.47155 1.5812 1.5955 1.6494 1.55188 1.49813 1.5501 1.6878 1.794 1.8014
2787.373 1.753 1.9065 1.9024 1.9008 2.0971 2.0788 2.0484 2.092 1.96 1.969
2806.663 1.9628 1.7964 1.934 1.9449 1.696 1.6445 1.7271 1.699 1.56176 1.4002
2825.953 1.331 1.352 1.6776 1.8816 1.55604 1.251 1.336 1.6403 1.7372 1.7054
2845.242 1.7077 1.4761 1.51802 1.6042 1.5007 1.52669 1.51708 1.50271 1.4124 1.48893
2864.532 1.50899 1.52832 1.4264 1.324 1.53689 1.5158 1.325 1.217 1.4214 1.52751
2883.822 1.3874 1.4002 1.50106 1.6115 1.6059 1.6326 1.50336 1.4387 1.7596 1.9227
2903.112 1.8856 2.0569 2.3462 2.365 2.4172 2.5 2.65 2.94 3.06 3.04
2922.401 2.95 3.22 3.32 3.12 3.19 3.28 3.48 3.77 3.67 3.49
2941.691 3.54 3.46 3.43 3.34 3.33 3.57 3.78 3.95 4.06 4.17
2960.981 4.2 4.14 4.01 3.88 3.79 3.54 3.34 3.2 3.01 2.82
2980.271 2.65 2.53 2.3844 2.22 2.0775 2.0953 1.8931 1.6334 1.6661 1.8715
2999.561 1.8273 1.6364 1.8077 1.9533 2.0558 2.2072 2.3781 2.9 3.35 3.51
3018.850 3.9 4.43 5.17 6.42 8.02 9.72 11.61 13.85 16.77 20.11
3038.140 23.09 25.59 27.19 27.88 28.3 28.53 28.14 27.56 26.46 24.65
3057.430 23.07 21.86 20.86 19.48 17.62 15.89 14.37 13.06 12.07 11.35
3076.720 10.17 9 8.39 7.72 7.19 6.64 6.29 6.59 7.09 7.53
3096.009 8.01 8.52 9.08 9.69 10.34 11.17 11.94 12.22 12.28 12.33
3115.299 12.3 12.05 11.54 10.69 9.49 8.54 7.52 6.28 5.31 4.49
3134.589 3.64 3.14 2.83 2.4559 2.2553 2.0409 1.8816 1.7657 1.6581 1.3961
3153.879 1.3759 1.53689 1.5808 1.6053 1.6188 1.7091 1.8173 1.8473 1.6638 1.8674
3173.169 1.7861 1.406 1.279 1.098 1.202 1.47117 1.55146 1.5963 1.6457 1.55739
3192.458 1.5774 1.7727 1.7928 1.7969 1.8294 1.4047 1.058 1.181 1.4381 1.53337
3211.748 1.295 1.141 1.365 1.4223 1.196 1.3945 1.55119 1.254 1.244 1.50598
3231.038 1.56464 1.6491 1.5946 1.361 1.197 1.164 1.258 1.4475 1.5912 1.50759
3250.328 1.369 1.26 1.352 1.53938 1.56181 1.6431 1.8105 1.4687 1.166 1.214
3269.617 1.3873 1.5862 1.4377 1.256 1.4061 1.6293 1.53287 1.4098 1.4136 1.235
3288.907 1.3929 1.521 1.437 1.5736 1.50785 1.358 1.51646 1.6085 1.46993 1.198
3308.197 1.325 1.49337 1.4155 1.6585 1.55572 1.336 1.5605 1.928 1.8608 1.7233
3327.487 1.7156 1.4576 1.349 1.305 1.245 1.198 1.238 1.142 1.116 1.4574
3346.777 1.48315 1.3952 1.3893 1.3972 1.248 1.233 1.336 1.288 1.3783 1.6188
3366.066 1.6334 1.431 1.4084 1.4 1.4166 1.5421 1.5961 1.3865 1.261 1.3808
3385.356 1.274 1.247 1.204 1.097 1.229 1.54249 1.6358 1.4344 1.327 1.3891
3404.646 1.3936 1.3785 1.4276 1.32 1.48751 1.6081 1.49898 1.363 1.238 1.278
3423.936 1.259 1.215 1.162 1.3779 1.52199 1.3867 1.4579 1.6663 1.7537 1.50654
3443.225 1.3889 1.54317 1.46138 1.192 1.48219 1.7364 1.47867 1.4546 1.4238 1.3939
3462.515 1.249 1.229 1.348 1.089 1.109 1.094 1.233 1.51802 1.206 1.144
3481.805 1.276 1.189 1.3734 1.6089 1.4344 1.13 1.342 1.52295 1.251 1.209
3501.095 1.53044 1.5841 1.4295 1.53285 1.6009 1.6917 1.7074 1.47414 1.3819 1.6667
3520.385 1.7067 1.6814 1.48662 1.321 1.4159 1.304 0.928 0.878 1.314 1.263
3539.674 1.251 1.296 1.114 1.07 1.3721 1.3731 1.211 1.229 1.315 1.45
3558.964 1.345 1.336 1.3901 1.284 1.083 1.3818 1.7586 1.4638 1.4106 1.50412
3578.254 1.327 1.331 1.297 1.245 1.309 1.271 1.277 1.4071 1.126 0.996
3597.544 1.217 1.252 1.267 1.246 1.332 1.331 1.321 1.242 1.076 1.239
3616.833 1.6211 1.7273 1.5327 1.208 1.14 1.3908 1.289 1.212 1.295 1.249
3636.123 1.279 1.163 1.198 1.18 1.102 1.265 1.4227 1.6696 1.6262 1.3793
3655.413 1.353 1.32 1.6207 1.9206 1.6515 1.344 1.351 1.48177 1.3971 1.294
3674.703 1.302 1.394 1.281 1.344 1.362 1.099 1.164 1.311 1.095 1.018
3693.993 1.238 1.4371 1.5659 1.4 1.368 1.4058 1.301 1.48784 1.47388 1.4297
3713.282 1.3867 1.175 1.289 1.353 1.333 1.351 1.252 1.136 1.293 1.4377
3732.572 1.3813 1.339 1.341 1.223 1.294 1.4572 1.309 1.212 1.024 1.118
3751.862 1.343 1.4147 1.6024 1.5261 1.54655 1.5828 1.49727 1.53615 1.3736 1.3957
3771.152 1.56556 1.46444 1.4534 1.49031 1.7908 1.8843 1.6665 1.7549 1.7519 1.52897
3790.441 1.51419 1.7156 1.6764 1.48739 1.3914 1.3979 1.47895 1.6016 1.5847 1.9172
3809.731 2.1618 1.7146 1.5729 1.49715 1.341 1.5225 1.50323 1.48477 1.55156 1.56118
3829.021 1.55414 1.4049 1.36 1.4561 1.7303 2.0034 1.7811 1.6026 1.8074 1.8267
3848.311 1.573 1.4554 1.282 1.109 1.361 1.53891 1.347 1.324 1.3954 1.157
3867.601 1.198 1.33 1.317 1.3834 1.257 0.988 1.14 1.139 1.222 1.6895
3886.890 1.6268 1.302 1.354 1.6325 1.6906 1.52503 1.205 1.178 1.4201 1.47289
3906.180 1.59 1.4523 1.078 1.146 1.4395 1.36 1.136 1.017 1.113 1.3986
3925.470 1.258 1.161 1.34 1.49956 1.4237 1.166 1.144 1.287 1.4072 1.355
3944.760 1.4215 1.333 1.3906 1.49493 1.255 1.252 1.282 1.4231 1.354 1.226
3964.049 1.53178 1.6364 1.353 1.323 1.316 1.146 1.011 0.998 1.46623 1.6568
3983.339 1.51718 1.48214 1.3986 1.329 1.224 1.221 1.49194 1.794 1.54935 1.333
##END=
