##TITLE=Ethylcyclopropane carboxylate
##JCAMP-DX=4.24
##DATA TYPE=INFRARED SPECTRUM
##ORIGIN=EPA-IR VAPOR PHASE LIBRARY
##OWNER=SRD/NIST
Collection (C) 2018 copyright by the U.S. Secretary of Commerce
on behalf of the United States of America. All rights reserved.
##CAS REGISTRY NO=4606-07-9
##MOLFORM=C 6 H 10 O 2
##$NIST SOURCE=MSDC-IR
##STATE=gas
##XUNITS=1/CM
##YUNITS=ABSORBANCE
##XFACTOR=1.
##YFACTOR=0.001
##DELTAX=3.85796
##FIRSTX=501.5
##LASTX=4000.7
##FIRSTY=1.199
##MAXX=4000.7
##MINX=501.534
##MAXY=0.223679
##MINY=0
##NPOINTS=908
##XYDATA=(X++(Y..Y))
501.534 1.199 1.1661 0.8485 0.7444 0.7152 0.6251 0.5536 0.5233 0.5808 0.588
540.114 0.464 0.5259 0.6311 0.5754 0.5344 0.6236 0.7405 0.6716 0.4597 0.4043
578.693 0.6356 0.8269 0.8591 0.7082 0.6561 0.7628 0.7104 0.7071 0.7012 0.6326
617.273 0.7593 0.9913 1.1053 1.239 1.429 1.539 1.789 2.039 2.089 2.109
655.852 2.069 1.919 1.729 1.489 1.279 1.1315 0.9743 0.8571 0.8044 0.8008
694.432 0.8013 0.7944 0.8148 0.8757 0.9417 1.0663 1.219 1.419 1.769 2.219
733.011 2.629 2.999 3.409 3.789 4.069 4.219 4.309 4.389 4.519 4.689
771.591 4.779 4.849 4.869 4.689 4.459 4.289 4.149 4.099 4.369 4.879
810.170 5.499 6.299 7.179 7.999 8.579 8.949 9.509 10.439 11.659 12.969
848.750 13.949 14.269 14.019 13.199 11.579 9.709 8.279 7.239 6.509 5.959
887.330 5.499 5.069 4.629 4.299 4.099 4.099 4.369 4.919 5.829 7.219
925.909 8.919 10.499 11.519 11.969 11.839 10.939 9.429 7.659 5.959 4.699
964.489 3.899 3.429 3.199 3.109 3.099 3.119 3.279 3.549 3.959 4.659
1003.068 5.579 6.819 8.609 10.969 14.079 17.849 21.379 23.759 24.869 24.959
1041.648 24.189 22.339 20.289 19.649 21.229 24.719 29.259 33.719 37.139 39.229
1080.227 40.139 40.199 39.659 38.839 37.419 35.389 33.349 30.269 25.699 21.449
1118.807 18.719 17.469 17.429 18.579 20.979 24.789 30.799 39.839 53.259 72.749
1157.387 98.939 130.949 164.769 194.859 216.079 223.679 214.959 191.729 160.309 127.469
1195.966 99.329 78.749 63.089 48.789 35.999 27.029 21.879 19.049 17.689 17.499
1234.546 18.389 20.799 25.059 31.259 39.019 46.469 51.279 52.219 49.789 44.649
1273.125 36.709 27.209 18.879 13.479 10.889 10.069 10.089 10.359 10.489 10.399
1311.705 10.119 9.559 8.879 8.339 8.219 8.739 10.019 12.129 15.119 19.059
1350.284 23.349 26.619 28.829 31.519 35.289 39.689 44.989 50.479 54.289 56.159
1388.864 56.289 52.629 46.059 40.749 37.089 33.609 29.869 25.989 21.939 18.179
1427.443 15.469 13.919 13.289 13.309 13.819 14.649 15.559 16.229 16.559 16.549
1466.023 16.069 15.069 13.719 12.209 10.599 9.039 7.679 6.579 5.699 5.009
1504.603 4.499 4.109 3.829 3.589 3.379 3.199 3.059 2.949 2.839 2.729
1543.182 2.609 2.479 2.339 2.249 2.189 2.129 2.069 2.059 2.099 2.109
1581.762 2.109 2.129 2.139 2.119 2.089 2.029 1.969 1.959 1.929 1.929
1620.341 1.989 2.079 2.209 2.369 2.529 2.649 2.759 2.859 2.919 2.989
1658.921 3.059 3.149 3.289 3.519 3.859 4.299 4.829 5.489 6.239 7.149
1697.500 8.319 9.799 11.819 14.739 18.869 24.839 33.139 44.109 58.119 74.849
1736.080 93.329 109.919 121.049 124.659 122.859 116.429 101.649 79.739 58.099 40.509
1774.659 27.439 18.559 13.039 9.819 7.979 6.909 6.219 5.699 5.239 4.799
1813.239 4.369 3.919 3.509 3.159 2.859 2.619 2.439 2.339 2.239 2.179
1851.819 2.129 2.109 2.119 2.159 2.179 2.169 2.189 2.199 2.199 2.149
1890.398 2.089 2.029 1.979 1.879 1.789 1.749 1.719 1.689 1.639 1.639
1928.978 1.629 1.589 1.579 1.599 1.629 1.669 1.709 1.719 1.709 1.659
1967.557 1.589 1.489 1.389 1.299 1.239 1.199 1.1782 1.1555 1.1645 1.209
2006.137 1.259 1.339 1.439 1.579 1.669 1.799 1.939 2.049 2.099 2.109
2044.716 2.069 1.979 1.869 1.759 1.669 1.619 1.609 1.619 1.649 1.649
2083.296 1.669 1.699 1.729 1.729 1.699 1.639 1.569 1.499 1.429 1.359
2121.875 1.299 1.229 1.1486 1.0701 0.9764 0.8816 0.8015 0.7242 0.6793 0.6675
2160.455 0.6452 0.6106 0.5769 0.5772 0.6024 0.6012 0.5868 0.5953 0.6053 0.6236
2199.035 0.6544 0.6404 0.6325 0.6708 0.6607 0.6427 0.6823 0.7142 0.7368 0.7395
2237.614 0.7316 0.7658 0.7692 0.7528 0.7333 0.7002 0.6877 0.6808 0.6753 0.6515
2276.194 0.6626 0.6753 0.6551 0.6802 0.6929 0.6681 0.6555 0.6576 0.6938 0.7346
2314.773 0.7526 0.7997 0.8715 0.9003 0.9485 1.0604 1.1078 1.087 1.0756 1.0526
2353.353 1.0064 0.9525 0.9097 0.8432 0.7648 0.7125 0.692 0.6811 0.6541 0.6497
2391.932 0.6191 0.589 0.5756 0.5275 0.5001 0.515 0.5115 0.486 0.4433 0.3981
2430.512 0.4105 0.4054 0.3793 0.407 0.4236 0.4165 0.4374 0.4737 0.4935 0.5226
2469.092 0.5264 0.5645 0.6206 0.6477 0.6712 0.6757 0.6665 0.6494 0.6146 0.5426
2507.671 0.4754 0.4428 0.4303 0.4459 0.4631 0.4342 0.4401 0.4449 0.4123 0.4037
2546.251 0.4168 0.4289 0.4237 0.3791 0.352 0.3575 0.3651 0.3899 0.4029 0.4008
2584.830 0.4198 0.4381 0.4583 0.4919 0.5204 0.5245 0.5279 0.5046 0.4855 0.4612
2623.410 0.4005 0.3669 0.3198 0.2894 0.24256 0.20956 0.22175 0.20083 0.20519 0.22875
2661.989 0.2232 0.22476 0.23679 0.24136 0.25592 0.24989 0.25662 0.26117 0.24708 0.23921
2700.569 0.24892 0.27417 0.3005 0.2902 0.27037 0.26917 0.2908 0.3444 0.3754 0.4434
2739.148 0.4849 0.4758 0.5013 0.5556 0.5932 0.6238 0.6111 0.6204 0.6567 0.6748
2777.728 0.7052 0.729 0.7388 0.7519 0.7922 0.8369 0.861 0.8891 0.9612 1.0345
2816.308 1.1056 1.1831 1.259 1.319 1.419 1.519 1.629 1.769 1.929 2.129
2854.887 2.329 2.569 2.909 3.369 3.899 4.579 5.279 5.819 6.259 6.719
2893.467 7.079 7.299 7.559 7.879 8.279 8.669 8.929 9.269 9.889 10.899
2932.046 12.389 14.119 15.519 16.379 16.979 17.329 17.329 17.269 17.869 19.519
2970.626 22.139 25.429 28.439 30.219 30.839 30.909 29.929 27.259 24.179 21.989
3009.205 20.789 20.249 19.989 19.779 19.279 18.259 16.519 14.049 11.379 8.999
3047.785 7.079 5.609 4.609 4.039 3.759 3.579 3.439 3.419 3.449 3.569
3086.364 3.859 4.409 5.319 6.229 6.699 6.669 6.499 6.029 4.939 3.649
3124.944 2.639 2.009 1.589 1.279 1.0656 0.9524 0.8954 0.8156 0.7477 0.651
3163.524 0.6272 0.6564 0.5913 0.5323 0.5299 0.5274 0.5245 0.5188 0.466 0.4532
3202.103 0.4635 0.4717 0.4486 0.4273 0.3982 0.3533 0.3319 0.3048 0.26874 0.22874
3240.683 0.21204 0.15 0.1127 0.1669 0.18585 0.1273 0.088 0.082 0.094 0.1209
3279.262 0.0985 0.08 0.0995 0.1302 0.121 0.076 0.042 0.038 0.071 0.095
3317.842 0.1115 0.1037 0.1013 0.115 0.055 0.081 0.17966 0.1742 0.1645 0.1614
3356.421 0.1499 0.1407 0.1366 0.1518 0.1308 0.134 0.20193 0.20472 0.18902 0.21241
3395.001 0.20396 0.189838 0.197812 0.2138 0.20578 0.1631 0.1448 0.19452 0.28719 0.2834
3433.580 0.2736 0.3813 0.4324 0.5065 0.6137 0.7307 0.844 0.9756 1.1262 1.259
3472.160 1.349 1.369 1.339 1.269 1.1563 1.0711 0.9646 0.8023 0.6816 0.5614
3510.740 0.4459 0.3932 0.4088 0.4046 0.3027 0.23605 0.28668 0.25351 0.18447 0.1671
3549.319 0.1669 0.18788 0.1262 0.063 0.096 0.1193 0.1583 0.1705 0.0911 0.048
3587.899 0.062 0.1045 0.1283 0.0968 0.08 0.073 0.1252 0.1553 0.1001 0.1391
3626.478 0.1227 0.051 0.076 0.082 0.071 0.079 0.098 0.0894 0 0.005
3665.058 0.063 0.083 0.1276 0.1187 0.11 0.0997 0.069 0.072 0.039 0.047
3703.637 0.18007 0.20221 0.1345 0.1048 0.1339 0.1636 0.1722 0.22343 0.21377 0.20217
3742.217 0.22643 0.23463 0.21311 0.1707 0.24621 0.2951 0.20764 0.20561 0.23113 0.26184
3780.797 0.26201 0.18516 0.21003 0.3058 0.28519 0.21787 0.22987 0.21774 0.1629 0.22054
3819.376 0.27383 0.20561 0.21417 0.26743 0.2776 0.2917 0.26689 0.23901 0.26619 0.3076
3857.956 0.26603 0.21641 0.26679 0.25969 0.22682 0.2042 0.196105 0.26794 0.317 0.3084
3896.535 0.3011 0.3018 0.3202 0.3223 0.3263 0.3249 0.2938 0.25758 0.20615 0.2387
3935.115 0.3306 0.3398 0.23054 0.193033 0.26003 0.3026 0.26301 0.23464 0.26925 0.24782
3973.694 0.2712 0.3102 0.2805 0.3122 0.3387 0.26035 0.22365 0.27132
##END=
