##TITLE=4,4,4-Trifluorobutanol
##JCAMP-DX=4.24
##DATA TYPE=INFRARED SPECTRUM
##ORIGIN=EPA-IR VAPOR PHASE LIBRARY
##OWNER=SRD/NIST
Collection (C) 2018 copyright by the U.S. Secretary of Commerce
on behalf of the United States of America. All rights reserved.
##CAS REGISTRY NO=461-18-7
##MOLFORM=C 4 H 7 F 3 O
##$NIST SOURCE=MSDC-IR
##STATE=gas
##XUNITS=1/CM
##YUNITS=ABSORBANCE
##XFACTOR=1.
##YFACTOR=0.001
##DELTAX=1.92898
##FIRSTX=549.8
##LASTX=4000.7
##FIRSTY=2.66
##MAXX=4000.7
##MINX=549.759
##MAXY=0.02217
##MINY=0
##NPOINTS=1790
##XYDATA=(X++(Y..Y))
549.759 2.66 2.48 2.93 2.38 2.34 1.7539 0.631 0.139 1.6302 3.82
569.049 3.14 1.7224 0.915 1.9052 1.7929 1.016 2.33 2.24 1.8616 2.51
588.339 2.41 2.34 1.7605 1.038 0.974 1.4804 1.8493 1.4464 1.6092 1.6872
607.628 1.4294 1.6419 1.5085 1.11668 1.3579 0.564 0.485 1.0455 1.3599 1.4616
626.918 1.16089 1.4262 1.6352 1.9258 1.5853 1.19857 1.918 2.046 1.8452 2.22
646.208 2.38 2.37 2.25 2.51 2.37 1.7225 1.6313 1.5665 1.7496 2.12
665.498 2.0169 1.9254 1.3798 1.09196 1.8198 1.9889 1.718 1.9636 1.6825 1.7731
684.787 1.8656 1.6691 1.3863 1.11727 1.3325 1.5765 1.7616 0.99 1.11286 1.418
704.077 1.15508 1.2643 1.6245 1.8616 1.8423 1.9743 1.791 1.5015 1.3125 1.10393
723.367 1.2545 1.1308 1.16898 1.5613 1.7741 1.863 1.4828 1.09633 0.889 0.784
742.657 1.2436 2.33 2.4 2.3 2.0542 1.3716 1.5546 1.3513 0.704 1.0568
761.947 1.6054 1.7008 1.4941 1.0224 1.2316 1.9525 2.18 2.18 1.9296 1.3934
781.236 1.12911 1.5518 1.9694 1.7859 1.5108 1.2359 1.71 2.0788 1.5904 1.5614
800.526 1.8766 2.14 1.7995 1.3449 1.4053 1.4941 1.5111 1.5913 2.33 2.51
819.816 2.97 3.59 2.58 2.54 2.91 2.83 2.28 1.9299 2.29 2.8
839.106 2.56 2.16 2.59 2.13 1.8072 2.11 2.25 1.8959 1.6519 1.5735
858.395 1.7343 1.7155 1.9055 1.8368 2.0618 2.36 1.8177 1.8749 1.7056 1.8421
877.685 2.0963 1.8079 1.7989 1.8953 1.6573 1.7406 2.6 2.47 2.2 2.0615
896.975 1.6431 1.733 1.335 1.3653 1.9594 1.8517 1.5399 1.7877 1.9586 1.4634
916.265 0.88 0.723 1.0497 1.2873 1.11053 1.7862 2.0709 1.3161 1.15564 1.3012
935.555 1.6574 1.8171 1.4234 1.2944 1.9847 2.44 2.34 1.8655 1.5345 1.5839
954.844 1.9275 2.25 1.9844 2.38 2.0984 1.2854 1.2027 1.6497 1.7432 1.4417
974.134 1.8787 2.43 2.81 3.19 2.68 2.0063 2.32 2.78 2.8 2.82
993.424 3.53 3.94 3.62 4.15 4.61 3.93 4.62 5.52 5.66 6.41
1012.714 7.19 7.35 6.92 7.56 9.2 9.87 9.69 9.44 10.67 11.75
1032.003 12.21 13.15 13.58 13.61 13.47 12.87 12.28 12.65 13.05 12.77
1051.293 12.14 12.26 13.12 12.4 10.72 11.19 11.27 9.82 8.94 9.03
1070.583 9.47 8.09 7.01 6.34 4.64 5.16 5.81 5.14 4.61 4.96
1089.873 6.02 5.08 3.97 4.12 4.18 5.14 5.24 4.38 6.3 6.73
1109.163 4.99 5.42 7.28 7.5 6.29 7.42 9.03 8.78 9.37 11.05
1128.452 11.99 13.15 12.74 11.6 13.1 15.35 16.6 15.56 15.6 17.12
1147.742 17.33 16.54 17.56 18.74 18.01 17.37 15.65 14.74 14.52 14.1
1167.032 13.27 11.54 12.12 11.36 10.33 9.71 8.14 9.17 8.58 7.38
1186.322 7.28 7.3 7.56 8.6 9 7.73 8.37 9.74 9.93 8.99
1205.611 8.36 9.2 9.88 10.34 10.4 9.88 9.62 8.69 8.54 9.55
1224.901 8.96 8.45 8.39 9.7 11.44 12.08 12.24 12.37 12.91 13.28
1244.191 15.46 16.81 17.35 19.5 21.24 22.05 22.17 21.88 21.04 20.92
1263.481 20.45 18.68 17.3 16.01 14.63 13.13 12.19 11.54 10.72 10.05
1282.771 9.11 8.62 8.57 8.58 8.49 8.3 7.9 7.48 7.21 7.12
1302.060 7.13 6.88 6.7 6.52 6.5 6.57 6.4 6.31 6.29 6.42
1321.350 6.72 6.9 6.89 7.15 7.3 6.98 6.8 6.84 7.08 6.83
1340.640 6.47 6.18 5.83 5.56 5.16 4.85 4.56 4.57 4.55 4.39
1359.930 4.48 4.67 4.66 4.8 5.12 5.43 5.85 6.05 6.17 6.36
1379.219 6.55 6.85 7.06 7.13 7 6.88 6.81 6.63 6.22 5.78
1398.509 5.5 5.21 4.99 4.47 3.73 3.35 3.34 3.09 2.84 2.77
1417.799 2.65 2.58 2.79 2.85 2.48 2.16 2.41 2.63 2.5 2.69
1437.089 2.75 2.73 2.93 3.25 3.35 3.29 3.4 3.47 3.31 3.31
1456.378 3.34 2.96 2.82 2.99 2.86 2.56 2.28 1.8832 1.649 1.8304
1475.668 2.15 2.36 2.32 2.0471 1.9523 1.9196 1.7549 1.6329 1.5867 1.7819
1494.958 1.7985 1.5045 1.3009 1.4165 1.5236 1.2485 1.16753 1.224 1.1438 1.13987
1514.248 1.5765 1.6539 1.2875 1.0842 1.12758 1.5127 1.6951 1.4878 1.3836 1.528
1533.538 1.7035 1.7972 1.5353 1.14973 1.4683 1.5133 1.2057 1.4863 1.5581 1.7074
1552.827 1.7765 1.5936 1.3776 1.5266 1.9334 1.4496 1.2729 1.5264 1.5346 1.6006
1572.117 1.4525 1.3432 1.3299 1.4525 1.6371 1.5572 1.5433 1.2802 1.2284 1.3901
1591.407 1.4219 1.5525 1.6187 1.4413 1.2532 1.2527 1.2094 1.4484 1.6719 1.5663
1610.697 1.3961 1.539 1.4809 1.4823 1.8169 1.5765 1.2753 1.4753 1.5649 1.4576
1629.986 1.512 1.6465 1.6749 1.9709 2.0157 1.5401 1.5996 1.7863 1.6826 1.6023
1649.276 1.4722 1.5762 1.626 1.5467 1.6133 1.7915 2.18 2.004 1.8812 1.986
1668.566 1.8034 1.929 1.8515 1.7824 1.8469 1.6932 1.7695 1.9547 1.7037 1.2212
1687.856 1.3223 1.7693 1.6616 1.6283 1.5794 1.6789 1.8979 1.5782 1.6706 2.0056
1707.146 1.8384 1.6275 1.8556 2.0135 1.9178 1.6736 1.4255 1.4873 1.639 1.6727
1726.435 1.7354 1.6607 1.8091 2.0386 1.7891 1.615 1.6628 1.7783 1.7218 1.5013
1745.725 1.3278 1.2386 1.2551 1.428 1.4598 1.4657 1.7038 1.7424 1.6009 1.6449
1765.015 1.5662 1.2744 1.6436 2.0633 1.7921 1.6088 1.6046 1.4897 1.5168 1.7313
1784.305 1.6959 1.7284 1.8506 1.5201 1.3558 1.523 1.6044 1.5576 1.5122 1.4736
1803.594 1.5865 1.6627 1.8047 1.9337 1.8205 1.6327 1.5976 1.587 1.6003 1.5942
1822.884 1.3532 1.17917 1.2721 1.4762 1.567 1.5481 1.4636 1.4462 1.4171 1.5393
1842.174 1.532 1.4731 1.571 1.5738 1.4464 1.5044 1.5412 1.4752 1.4817 1.5247
1861.464 1.5259 1.3989 1.5088 1.5792 1.5778 1.6568 1.6015 1.4874 1.4326 1.4836
1880.754 1.5939 1.508 1.3335 1.2675 1.18378 1.29 1.4456 1.4745 1.5713 1.4824
1900.043 1.4374 1.4158 1.2919 1.2972 1.6043 1.7452 1.6189 1.3764 1.2582 1.5103
1919.333 1.5736 1.671 1.7074 1.6023 1.5979 1.5834 1.3506 1.263 1.3364 1.4371
1938.623 1.4545 1.378 1.3963 1.2422 1.2618 1.4569 1.4573 1.4576 1.5773 1.7017
1957.913 1.8066 1.6605 1.2818 1.2908 1.587 1.7201 1.53 1.3755 1.5106 1.5162
1977.202 1.359 1.3994 1.7697 1.4664 1.0806 1.3124 1.6218 1.6874 1.4703 1.3607
1996.492 1.4863 1.5506 1.4953 1.4384 1.3568 1.4898 1.5836 1.5364 1.5504 1.6967
2015.782 1.7053 1.4463 1.309 1.3726 1.3872 1.3421 1.14311 1.17376 1.4007 1.4816
2035.072 1.3701 1.10301 1.257 1.3325 1.0074 0.902 1.1172 1.3807 1.4443 1.3416
2054.362 1.2836 1.3076 1.4569 1.4071 1.327 1.2977 1.17441 1.3622 1.5229 1.5797
2073.651 1.5441 1.3183 1.2452 1.401 1.6725 1.6162 1.4767 1.3793 1.3356 1.4647
2092.941 1.5248 1.52 1.3471 1.4357 1.6808 1.7354 1.6036 1.4797 1.568 1.4129
2112.231 1.4174 1.4863 1.19817 1.2402 1.3666 1.3283 1.2273 1.299 1.4369 1.2462
2131.521 1.2283 1.2038 1.14054 1.3243 1.5044 1.4921 1.4032 1.3848 1.3441 1.4384
2150.810 1.4202 1.4117 1.4586 1.16987 0.904 0.857 1.0538 1.2277 1.2046 1.3938
2170.100 1.6143 1.4921 1.434 1.6126 1.7003 1.5998 1.4186 1.45 1.2981 1.2946
2189.390 1.4799 1.3909 1.2698 1.2432 1.2134 1.2704 1.2793 1.3525 1.3902 1.4439
2208.680 1.5469 1.4477 1.3699 1.19191 1.19013 1.2684 1.11845 1.038 1.232 1.2534
2227.970 1.0143 1.12042 1.3569 1.3658 1.2179 1.16142 1.083 0.997 1.18951 1.4304
2247.259 1.5479 1.62 1.6352 1.4699 1.3856 1.0141 1.13427 1.4542 1.4917 1.5705
2266.549 1.672 1.417 1.2224 1.437 1.3942 1.2544 1.0865 1.4947 1.6526 1.2827
2285.839 1.2596 1.4227 1.3383 1.2907 1.3438 1.15926 1.2028 1.4681 1.4882 1.3928
2305.129 1.3104 1.2657 1.1644 1.3616 1.3204 1.13862 1.3298 1.3499 1.0455 1.10244
2324.418 1.3807 1.2105 1.2168 1.09166 1.2612 1.4602 1.3498 1.4884 1.3783 1.4659
2343.708 1.5021 1.4772 1.3956 1.3726 1.4562 1.2244 0.925 0.825 1.0321 1.0725
2362.998 0.835 1.0467 1.2384 1.0136 1.0544 1.0255 0.875 1.0042 1.4516 1.6638
2382.288 1.4665 1.065 1.0292 1.412 1.5612 1.4685 1.491 1.3801 1.12314 1.3164
2401.578 1.5849 1.3207 1.09107 1.337 1.3905 1.3608 1.3005 1.2758 1.3754 1.3763
2420.867 1.391 1.16841 1.3939 1.4052 0.887 1.0619 1.3338 1.6038 1.4699 1.2018
2440.157 1.3399 1.395 1.392 1.208 1.266 1.3476 1.2188 1.2245 1.19699 1.324
2459.447 1.4908 1.3084 1.2022 1.6766 1.9615 1.5021 1.16962 1.15308 1.18808 1.2117
2478.737 1.16313 0.995 0.791 1.1892 1.5654 1.3899 1.17832 1.13692 1.19952 1.0166
2498.026 0.877 1.077 1.2306 1.18304 1.18352 1.3319 1.19 1.2417 1.2667 1.0756
2517.316 1.2617 1.269 0.963 1.2671 1.766 1.4917 1.41 1.4691 1.3886 1.2016
2536.606 1.10298 1.0115 0.952 0.983 1.0369 1.18031 1.0938 1.13096 1.2393 1.12341
2555.896 0.959 0.854 0.733 0.906 1.19474 1.12265 1.14367 1.12247 1.19409 1.214
2575.186 1.2707 1.5326 1.5337 1.2904 0.966 1.18178 1.2935 1.10307 1.0602 1.0098
2594.475 1.10917 1.0803 1.0852 1.3294 1.4844 1.5165 1.2611 1.12814 1.2143 1.19276
2613.765 0.994 0.725 0.706 0.956 1.15578 1.2217 1.4241 1.5147 1.6034 1.476
2633.055 0.885 0.659 1.0133 1.2864 1.342 1.2868 1.4317 1.6082 1.19134 0.963
2652.345 1.2215 1.09711 1.3081 1.7332 1.7208 1.666 1.4994 1.3621 1.2142 1.2055
2671.634 1.4891 1.5462 1.4083 1.306 1.4232 1.6369 1.5401 1.2034 1.12117 1.5915
2690.924 1.6834 1.2055 1.18135 1.6489 1.6686 1.4721 1.4104 1.19754 1.4549 1.5879
2710.214 1.2675 1.3516 1.16696 1.09647 1.2334 1.2039 1.3832 1.4044 1.14891 1.2046
2729.504 1.401 1.4842 1.3794 1.2897 1.3408 1.2411 1.3339 1.3466 1.4742 1.3459
2748.794 1.2815 1.5069 1.278 1.3599 1.5613 1.2982 1.2308 1.3335 1.3791 1.12467
2768.083 0.96 1.2249 1.4299 1.6481 1.697 1.5351 1.2688 1.2817 1.1063 0.904
2787.373 1.3119 1.6315 1.6335 1.3177 1.10918 1.6072 1.7434 1.4197 1.5169 1.539
2806.663 1.593 1.6264 1.4571 1.2822 1.6562 1.6852 1.15856 1.399 1.818 1.9324
2825.953 1.7112 1.4426 1.3555 1.4872 1.6952 1.7417 1.4395 1.11855 1.4482 1.7283
2845.242 1.6344 1.4662 1.5786 1.8319 2.15 2.39 1.9083 1.7876 2.52 2.68
2864.532 2.29 2.0763 2.47 3 2.88 3.15 3.32 3.79 4.16 3.9
2883.822 4.01 4.03 3.97 3.95 3.64 3.45 3.65 3.3 3.29 3.64
2903.112 3.65 3.39 3.31 3.72 3.68 3.52 3.43 3.31 3.54 3.41
2922.401 2.88 2.73 3.03 3.14 3.13 3.01 3.37 3.85 3.71 3.78
2941.691 4.18 4.67 5.1 5.24 4.89 4.88 4.59 4.7 4.85 4.58
2960.981 4.73 4.9 5.01 4.91 4.68 4.04 3.92 4.45 4.54 4.31
2980.271 4.31 3.94 3.15 3.31 3.18 2.98 3.22 3.19 3 2.57
2999.561 2.22 2.44 2.52 2.3 2.16 2.18 2.26 1.5704 1.6142 1.7916
3018.850 1.5141 1.2623 0.916 0.993 1.5585 1.7832 1.5011 1.3899 1.363 0.915
3038.140 0.757 0.894 0.791 0.862 1.1806 1.5259 1.6756 1.7249 1.4312 1.2177
3057.430 1.2248 0.974 0.921 1.3655 1.5103 1.578 1.5857 1.4869 1.5516 1.2723
3076.720 1.5749 1.6532 1.18624 1.09435 1.3022 1.9324 1.5166 0.771 1.0119 1.4429
3096.009 1.5811 1.8752 1.6578 1.2994 1.4104 1.5405 1.6618 1.7663 1.3514 1.0811
3115.299 1.09809 0.969 1.2077 1.2617 1.3047 1.2852 1.17825 1.1762 1.14586 1.3249
3134.589 1.6664 1.3875 1.0837 1.0883 1.10923 1.4068 1.4622 0.775 0.819 1.6743
3153.879 1.7635 1.3147 0.769 0.81 0.763 0.896 1.6494 1.8017 1.6007 1.8058
3173.169 2.18 1.9503 1.8609 1.824 1.7488 1.7723 1.9286 1.9417 1.4658 1.3197
3192.458 1.0804 1.476 1.7405 1.6868 1.3833 1.12786 1.5868 1.5333 1.2197 1.0707
3211.748 0.995 0.895 1.17357 1.14031 0.998 1.2602 1.5455 1.3382 0.935 0.673
3231.038 0.433 0.885 1.4252 1.2782 1.1917 1.0726 1.2645 1.4694 1.16654 0.574
3250.328 0.32 0.822 1.3684 1.12153 1.10487 0.836 0.71 1.3632 1.4479 1.5268
3269.617 1.385 1.5162 1.866 1.5392 1.09396 0.983 0.831 0.855 1.1275 1.13443
3288.907 1.10323 0.791 0.628 1.3823 1.6195 0.956 1.0799 1.741 1.12283 0.859
3308.197 1.13208 0.991 1.0678 1.5107 1.498 1.411 1.5928 1.3822 1.0896 0.368
3327.487 0.207 0.89 1.293 1.3738 1.0333 0.915 1.361 1.0714 1.3563 1.8469
3346.777 1.28 0.983 0.99 1.3405 1.3573 1.4343 1.9086 1.6428 1.4145 1.4635
3366.066 1.61 1.4328 1.3074 1.3911 1.4208 1.5212 1.2803 1.18238 1.6293 2.0123
3385.356 1.6597 1.6971 1.6839 1.7447 1.9685 1.7083 1.4707 1.528 2.19 1.9953
3404.646 1.2788 1.0868 0.978 1.263 2.035 2.47 2.15 1.6314 1.7726 1.9234
3423.936 1.717 1.4299 1.2064 1.4154 1.4827 2.0406 2.33 2.0021 1.4496 1.10739
3443.225 0.979 0.722 1.13603 1.3283 1.2338 1.0652 1.2345 1.6693 1.4834 1.0644
3462.515 1.3757 1.6555 1.6182 1.7154 1.2519 1.12102 1.2941 1.554 1.8257 1.0162
3481.805 0.244 1.038 1.6231 1.456 1.2566 1.0341 1.4138 1.2379 0.898 1.7625
3501.095 1.8691 1.4473 1.4329 1.0496 1.18471 1.9479 1.4813 1.4076 1.9857 1.15621
3520.385 0.864 0.856 0.471 0.79 1.5164 1.5967 0.967 0.842 1.14262 1.6193
3539.674 1.4925 1.0149 1.3482 1.6447 1.5413 1.2647 1.028 0.776 0.894 1.1323
3558.964 1.4526 1.713 1.597 1.4776 1.6922 1.2636 0.79 0.943 0.738 0.722
3578.254 0.735 1.287 1.6821 2.17 2.48 1.6312 1.0691 0.966 1.0457 0.88
3597.544 0.694 0.968 1.017 1.049 1.17539 1.0654 0.819 0.259 0.46 0.964
3616.833 1.18115 1.5343 1.3825 1.7285 2.37 1.9423 1.2525 1.3882 2.29 2.23
3636.123 1.4231 1.5078 1.9882 2.46 2.92 2.64 2.0631 1.6428 1.6666 2.35
3655.413 3.03 2.86 2.75 3.09 3.06 3.29 3.54 3.28 3.2 2.99
3674.703 3.12 3.57 2.82 2.28 2.4 2.57 2.81 1.971 1.6058 2.26
3693.993 2.18 2.34 1.9292 1.331 1.5293 1.7441 1.7743 1.4842 1.2373 1.0843
3713.282 1.0901 1.6779 1.9668 1.571 1.6524 1.6449 1.3221 0.985 0.732 1.13903
3732.572 1.4563 1.3053 1.2911 1.11362 1.4906 1.8072 1.6152 1.804 1.9251 1.7423
3751.862 1.13719 1.4884 2.0185 1.8839 1.6885 1.4128 1.4307 1.0862 0.503 0.674
3771.152 1.2801 1.6565 1.3167 0.973 1.2228 1.6735 1.9148 1.5796 1.414 1.3396
3790.441 1.3271 2.0523 2.39 2.28 1.5039 0.748 0.949 1 1.11212 1.484
3809.731 1.3989 0.868 1.2169 1.5093 0.568 1.0458 1.7549 1.6716 1.4248 1.813
3829.021 2.45 1.6863 1.3786 1.2646 0.882 1.12754 1.0564 1.223 1.5425 0.61
3848.311 0 0.591 0.866 0.535 0.836 1.15984 0.656 0.802 1.7103 2.12
3867.601 1.942 1.2936 0.445 0.524 1.4086 1.5044 1.5632 1.6845 1.17865 1.17022
3886.890 1.19584 1.4638 1.4533 0.9 1.3826 1.8566 1.8506 1.9324 1.6535 1.3342
3906.180 1.7308 1.4053 1.11329 1.2292 1.7556 1.967 1.8246 1.2336 0.826 0.792
3925.470 0.941 1.5018 1.5435 1.5818 1.13295 1.0086 0.808 1.0252 1.7197 1.8631
3944.760 2.0993 1.7565 1.2939 1.604 1.264 0.61 0.609 0.697 1.4541 2.1
3964.049 1.5746 1.3499 1.611 1.4299 0.955 1.11123 1.688 1.3157 0.52 0.652
3983.339 1.2301 1.3448 1.4644 1.5762 1.4203 1.19136 1.3166 2.04 2.088 2.0639
##END=
