##TITLE=2-(t-Butylamino)ethanol
##JCAMP-DX=4.24
##DATA TYPE=INFRARED SPECTRUM
##ORIGIN=EPA-IR VAPOR PHASE LIBRARY
##OWNER=SRD/NIST
Collection (C) 2018 copyright by the U.S. Secretary of Commerce
on behalf of the United States of America. All rights reserved.
##CAS REGISTRY NO=4620-70-6
##MOLFORM=C 6 H 15 N O
##$NIST SOURCE=MSDC-IR
##STATE=gas
##XUNITS=1/CM
##YUNITS=ABSORBANCE
##XFACTOR=1.
##YFACTOR=0.001
##DELTAX=1.92898
##FIRSTX=549.8
##LASTX=4000.7
##FIRSTY=2.47
##MAXX=4000.7
##MINX=549.759
##MAXY=0.07698
##MINY=0.00007336
##NPOINTS=1790
##XYDATA=(X++(Y..Y))
549.759 2.47 2.47 2.22 2 2.1 2.08 2.16 2.32 2.19 2.01
569.049 1.89 1.97 2.1 2.01 2.02 2.07 2.09 2.2 2.03 1.98
588.339 2.16 2.07 2.23 2.62 2.6 2.31 2.23 2.48 2.52 2.48
607.628 2.46 2.55 2.64 2.75 2.88 2.87 2.92 2.99 2.77 2.78
626.918 3.12 3.07 3.08 3.26 3.35 3.48 3.69 3.81 3.95 3.95
646.208 3.84 4.15 4.46 4.63 4.71 4.74 4.9 5.17 5.48 5.61
665.498 5.59 5.69 6.11 6.31 6.44 6.79 7.13 7.25 7.42 7.53
684.787 7.68 8.09 8.25 8.4 8.37 8.37 8.54 8.55 8.62 8.59
704.077 8.48 8.42 8.19 8 7.85 7.5 7.07 6.75 6.44 6.02
723.367 5.75 5.45 5.05 4.89 4.67 4.36 4.05 3.77 3.69 3.64
742.657 3.47 3.45 3.41 3.26 3.47 3.57 3.45 3.48 3.57 3.51
761.947 3.45 3.67 3.64 3.23 3.12 3.22 3.08 2.8 2.59 2.53
781.236 2.53 2.14 2.09 2.24 2.04 2.01 1.9 1.73 1.84 1.74
800.526 1.51 1.57 1.69 1.79 1.85 2.03 1.95 1.84 1.85 1.67
819.816 1.55 1.69 1.8 1.82 1.79 1.76 1.74 1.59 1.72 1.77
839.106 1.75 1.81 1.83 2.01 2.28 2.48 2.51 2.46 2.39 2.65
858.395 2.96 3.09 3.21 3.27 3.48 3.66 3.69 3.86 4.12 4.31
877.685 4.48 4.59 4.6 4.58 4.63 4.72 4.71 4.71 4.55 4.41
896.975 4.39 4.29 4.14 3.9 3.75 3.68 3.43 3.3 3.33 3.13
916.265 3.05 2.98 2.92 2.89 2.86 3 2.97 2.78 2.74 2.81
935.555 2.95 3.01 3.2 3.57 3.57 3.69 3.93 3.94 3.91 3.91
954.844 4.02 4.05 4.14 4.18 4.17 4.16 4.06 4.06 4.04 4.09
974.134 4.1 3.84 3.69 3.77 3.76 3.71 3.85 4.02 4.09 4.11
993.424 4.36 4.89 5.26 5.54 5.89 6.46 7.33 8.19 8.82 9.54
1012.714 10.53 11.31 11.85 12.6 13.39 14.14 14.9 15.69 16.37 16.95
1032.003 17.62 18.37 19.09 19.58 20.19 21.07 21.95 22.57 23.16 23.45
1051.293 23.61 24.15 24.45 24.67 24.47 23.68 22.97 22.57 22.35 21.66
1070.583 20.86 19.61 18.2 17.03 15.65 14.33 13.34 12.12 10.84 10.22
1089.873 10.07 10.15 10 9.87 10.14 10.47 10.59 10.87 10.55 9.99
1109.163 10.49 10.98 10.36 9.63 9.09 8.87 8.72 7.71 6.93 6.61
1128.452 6.09 5.9 5.5 4.76 4.69 4.81 4.9 4.7 4.71 4.97
1147.742 4.54 4.35 4.28 4.5 4.61 4.45 4.77 4.73 4.85 5.24
1167.032 5.56 5.92 6.25 6.52 6.77 7.4 8.04 8.55 8.97 9.46
1186.322 10.2 10.67 11.08 11.91 12.75 13.58 14.47 15.32 16.38 17.57
1205.611 18.63 19.81 21.27 23.04 24.45 25.91 27.23 28 28.79 28.96
1224.901 28.66 28.03 27.03 25.79 24.36 22.58 20.71 19.01 17.25 15.78
1244.191 14.48 13.1 11.85 10.95 10.17 9.44 9.03 8.58 8 7.49
1263.481 6.87 6.54 6.39 5.99 5.64 5.56 5.37 5.19 5.07 4.91
1282.771 4.72 4.54 4.47 4.29 4.15 4 3.84 3.73 3.76 3.7
1302.060 3.51 3.43 3.44 3.51 3.45 3.45 3.54 3.57 3.64 3.72
1321.350 3.85 3.97 4.12 4.31 4.51 4.78 5.03 5.37 5.73 6.11
1340.640 6.59 7.15 7.78 8.5 9.39 10.38 11.37 12.42 13.55 14.69
1359.930 15.79 16.76 17.59 18.18 18.57 18.74 18.54 18.16 17.82 17.5
1379.219 17.32 17.3 17.3 17.18 16.92 16.66 16.46 16.04 15.48 15.16
1398.509 14.84 14.1 12.98 11.75 10.63 9.7 8.99 8.35 7.82 7.35
1417.799 6.88 6.53 6.32 6.14 6.06 6.14 6.31 6.48 6.76 7.15
1437.089 7.5 7.81 8.22 8.62 8.96 9.32 9.66 9.99 10.3 10.58
1456.378 10.79 10.94 11.04 11.23 11.4 11.47 11.59 11.73 11.87 11.98
1475.668 11.97 11.82 11.49 11.1 10.7 10.2 9.54 8.73 7.93 7.15
1494.958 6.22 5.3 4.57 3.85 3.27 2.94 2.64 2.29 1.99 1.81
1514.248 1.71 1.58 1.51 1.47 1.36 1.26 1.22 1.2 1.16 1.07
1533.538 0.9945 0.96 0.9089 0.9211 0.9069 0.7814 0.7423 0.7777 0.775 0.69
1552.827 0.6279 0.6366 0.645 0.5807 0.5376 0.6159 0.6364 0.6232 0.6133 0.5813
1572.117 0.5972 0.5828 0.5633 0.6254 0.6009 0.5208 0.5484 0.6025 0.6138 0.5286
1591.407 0.4908 0.5305 0.4927 0.5053 0.4892 0.4255 0.417 0.4148 0.4553 0.4903
1610.697 0.4789 0.4075 0.3861 0.3707 0.3628 0.444 0.4423 0.4996 0.5438 0.522
1629.986 0.4949 0.4525 0.4747 0.4676 0.3988 0.4336 0.4988 0.4088 0.3517 0.3718
1649.276 0.3749 0.4106 0.4151 0.4677 0.477 0.4339 0.4915 0.4293 0.3803 0.3964
1668.566 0.3736 0.412 0.3503 0.3141 0.3487 0.3344 0.3249 0.3309 0.3517 0.3129
1687.856 0.2872 0.3318 0.375 0.3882 0.3506 0.277 0.2499 0.3103 0.3738 0.3809
1707.146 0.3616 0.3441 0.3853 0.4412 0.4418 0.4021 0.3469 0.3574 0.3792 0.4098
1726.435 0.4337 0.3947 0.4236 0.3966 0.345 0.385 0.3567 0.3768 0.4123 0.3703
1745.725 0.4241 0.4463 0.3863 0.4173 0.3972 0.3548 0.4225 0.4271 0.3538 0.4
1765.015 0.4102 0.3663 0.4123 0.4031 0.3734 0.368 0.3431 0.3008 0.2822 0.3632
1784.305 0.4165 0.335 0.3251 0.3729 0.4293 0.4199 0.3727 0.3589 0.3128 0.3589
1803.594 0.3791 0.3893 0.3798 0.3544 0.3883 0.392 0.3965 0.3666 0.3257 0.2931
1822.884 0.2973 0.3258 0.3356 0.3055 0.2429 0.2449 0.2956 0.3102 0.2593 0.2567
1842.174 0.2801 0.3073 0.2857 0.2616 0.2964 0.2567 0.2532 0.256 0.2435 0.2348
1861.464 0.2436 0.2807 0.2999 0.3069 0.2426 0.1809 0.2318 0.2493 0.2227 0.168
1880.754 0.2216 0.302 0.2548 0.2874 0.2835 0.2285 0.2195 0.2413 0.3112 0.3658
1900.043 0.3492 0.3278 0.3155 0.3722 0.4125 0.3547 0.3191 0.343 0.389 0.3829
1919.333 0.3502 0.3241 0.3404 0.3618 0.3737 0.3869 0.3544 0.3485 0.4095 0.4203
1938.623 0.4026 0.4221 0.4089 0.4279 0.3883 0.3284 0.3241 0.3235 0.3545 0.386
1957.913 0.4163 0.4044 0.3668 0.3533 0.3217 0.3105 0.2625 0.252 0.3045 0.2637
1977.202 0.2216 0.2458 0.2587 0.2699 0.3046 0.3012 0.2477 0.2318 0.2467 0.2653
1996.492 0.2665 0.2664 0.2718 0.2849 0.3151 0.2472 0.1763 0.2282 0.2598 0.2378
2015.782 0.2658 0.2572 0.1845 0.1826 0.239 0.1726 0.1809 0.2698 0.2241 0.2047
2035.072 0.226 0.1886 0.1976 0.1973 0.2039 0.2259 0.2032 0.2057 0.1998 0.2087
2054.362 0.2033 0.2299 0.3 0.3021 0.3098 0.2766 0.2795 0.2632 0.2629 0.3456
2073.651 0.3222 0.2713 0.2299 0.2369 0.2788 0.2972 0.311 0.3292 0.3156 0.3593
2092.941 0.3433 0.2921 0.3331 0.2757 0.2797 0.3432 0.3539 0.3907 0.355 0.3429
2112.231 0.3258 0.283 0.2759 0.2413 0.2262 0.2026 0.2274 0.2904 0.3749 0.4454
2131.521 0.4034 0.3807 0.4047 0.3756 0.2963 0.2861 0.3456 0.2804 0.2973 0.3437
2150.810 0.2994 0.2822 0.262 0.2299 0.2202 0.2318 0.2749 0.365 0.3364 0.2856
2170.100 0.2989 0.3199 0.3415 0.3075 0.2771 0.2428 0.2593 0.2873 0.2824 0.2607
2189.390 0.2322 0.2567 0.2443 0.2071 0.2102 0.2509 0.2248 0.2188 0.2673 0.2159
2208.680 0.1465 0.1805 0.2156 0.2119 0.1658 0.1676 0.2641 0.3061 0.2543 0.2432
2227.970 0.2398 0.2243 0.2161 0.1972 0.2314 0.2104 0.2096 0.2526 0.2685 0.2555
2247.259 0.2713 0.291 0.2813 0.3348 0.3348 0.2816 0.2925 0.3126 0.3114 0.3416
2266.549 0.3515 0.3418 0.375 0.4153 0.3697 0.3236 0.3511 0.301 0.2841 0.3521
2285.839 0.4282 0.3926 0.3852 0.3931 0.3188 0.2903 0.2832 0.2849 0.2633 0.2701
2305.129 0.2826 0.2543 0.2465 0.27 0.2986 0.3278 0.2542 0.2352 0.284 0.301
2324.418 0.3203 0.3107 0.2839 0.2889 0.2914 0.2871 0.3068 0.356 0.403 0.4027
2343.708 0.3481 0.3188 0.3009 0.3037 0.3582 0.3306 0.2792 0.294 0.3192 0.2938
2362.998 0.2469 0.2573 0.3337 0.3744 0.3805 0.3293 0.3009 0.3336 0.3391 0.2996
2382.288 0.2975 0.3523 0.3988 0.374 0.3193 0.3351 0.3474 0.3051 0.3017 0.2934
2401.578 0.2658 0.2674 0.2431 0.2489 0.3015 0.3369 0.3434 0.2992 0.2921 0.3823
2420.867 0.3987 0.3987 0.4641 0.4817 0.3919 0.2989 0.2748 0.3072 0.3092 0.2707
2440.157 0.2522 0.2559 0.2532 0.2527 0.2965 0.3518 0.306 0.26 0.3266 0.314
2459.447 0.2546 0.2479 0.2243 0.2772 0.3315 0.3153 0.3324 0.3307 0.313 0.28
2478.737 0.2755 0.2946 0.2676 0.302 0.3692 0.3439 0.3508 0.3957 0.4246 0.4032
2498.026 0.348 0.336 0.3293 0.355 0.336 0.345 0.4506 0.4613 0.4799 0.4307
2517.316 0.3643 0.3911 0.3997 0.3906 0.3725 0.3464 0.3218 0.3458 0.3519 0.3715
2536.606 0.4375 0.4798 0.4825 0.488 0.4682 0.4512 0.511 0.5525 0.5511 0.5136
2555.896 0.4157 0.4004 0.5053 0.5382 0.5269 0.5248 0.5121 0.4886 0.4707 0.4751
2575.186 0.5483 0.6165 0.5589 0.4798 0.4664 0.5912 0.6616 0.6243 0.5854 0.5573
2594.475 0.539 0.5167 0.6071 0.6816 0.6265 0.6323 0.6597 0.6417 0.6086 0.6174
2613.765 0.7344 0.7419 0.6634 0.6651 0.6744 0.6609 0.6956 0.7956 0.8164 0.8254
2633.055 0.7923 0.8181 0.8329 0.7668 0.768 0.7964 0.8408 0.9011 1.02 1.04
2652.345 1.04 1.11 1.08 1.09 1.24 1.3 1.32 1.43 1.46 1.49
2671.634 1.57 1.61 1.62 1.69 1.73 1.77 1.81 1.86 1.89 1.84
2690.924 1.84 1.87 1.81 1.79 1.82 1.81 1.84 1.74 1.69 1.81
2710.214 1.91 1.93 1.89 1.84 1.83 1.81 1.88 2.03 1.96 1.95
2729.504 2.04 2.05 2.01 2.05 2.09 2.04 2.1 2.14 2.15 2.17
2748.794 2.22 2.25 2.25 2.25 2.29 2.39 2.45 2.4 2.47 2.62
2768.083 2.63 2.69 2.74 2.74 2.86 3.05 3.27 3.37 3.43 3.57
2787.373 3.77 3.97 4.05 4.24 4.49 4.73 4.91 5.1 5.43 5.66
2806.663 5.98 6.37 6.67 7.08 7.46 7.79 8.17 8.64 9.18 9.77
2825.953 10.33 10.94 11.66 12.48 13.41 14.12 14.79 15.45 16.19 17.07
2845.242 17.75 18.39 19.03 19.52 20.08 20.74 21.28 21.8 22.25 22.66
2864.532 23.22 23.76 24.23 24.73 25.21 25.57 26.01 26.33 26.49 26.71
2883.822 26.83 26.82 26.74 26.61 26.49 26.35 26.15 26.08 26.16 26.32
2903.112 26.6 26.85 27.25 27.75 28.26 28.96 29.7 30.51 31.32 32.07
2922.401 32.87 33.74 34.58 35.45 36.28 37.01 37.77 38.37 39.02 39.85
2941.691 40.68 41.69 42.99 44.42 46.2 48.29 50.77 53.86 57.35 61.11
2960.981 64.92 68.69 72.13 74.8 76.4 76.98 76.24 73.65 69.82 65.41
2980.271 59.98 53.43 46.69 40.09 33.62 27.57 22.29 17.93 14.5 11.88
2999.561 9.81 8.2 6.94 6.04 5.29 4.66 4.17 3.83 3.51 3.19
3018.850 2.97 2.81 2.69 2.51 2.35 2.18 2.09 1.98 1.8 1.74
3038.140 1.69 1.65 1.64 1.57 1.51 1.49 1.53 1.56 1.37 1.25
3057.430 1.19 1.08 1.17 1.19 1.24 1.17 1.03 1.07 1.16 1.18
3076.720 1.04 1.01 0.9763 0.9865 1.13 1.05 1 1.07 1.06 1.1
3096.009 1.11 1.07 1.07 1.02 0.9909 1.01 0.9637 0.8961 0.9413 0.9325
3115.299 0.8784 0.9352 1.06 1.05 0.9283 0.9088 0.9121 0.8742 0.8915 0.9025
3134.589 0.864 0.8783 0.9128 0.8095 0.6901 0.8314 0.9059 0.8912 0.8825 0.7539
3153.879 0.7749 0.8397 0.7612 0.7018 0.6822 0.7129 0.8298 0.9783 1.1 0.9983
3173.169 0.8765 0.9648 0.9026 0.8346 0.9614 0.9944 0.9581 0.933 0.9196 0.9269
3192.458 0.9397 0.9189 0.9049 0.9697 0.963 1.02 1.03 0.8782 0.7145 0.7778
3211.748 0.9384 0.9554 0.9705 1 0.9163 0.8203 0.8413 0.7787 0.7495 0.8092
3231.038 0.8181 0.7728 0.8415 0.9014 0.77 0.615 0.5126 0.4915 0.654 0.7001
3250.328 0.5678 0.6522 0.6456 0.39 0.4803 0.7473 0.6989 0.6124 0.6438 0.4538
3269.617 0.3102 0.4476 0.4633 0.4152 0.3509 0.3365 0.4804 0.4262 0.475 0.5746
3288.907 0.5014 0.5259 0.5648 0.5602 0.5352 0.5703 0.6696 0.5849 0.4456 0.5288
3308.197 0.6798 0.7664 0.7406 0.6737 0.6169 0.6538 0.7068 0.7679 0.7148 0.6045
3327.487 0.5734 0.5347 0.6446 0.7091 0.7483 0.8199 0.7485 0.7522 0.7728 0.8363
3346.777 0.9089 0.7615 0.7033 0.7319 0.6366 0.6394 0.7882 0.7626 0.7463 0.863
3366.066 0.9587 0.9943 0.8815 0.929 0.9033 0.7949 0.7821 0.721 0.7285 0.7403
3385.356 0.8302 0.9607 0.9477 0.9546 0.889 0.8407 0.7728 0.7819 0.812 0.7144
3404.646 0.7898 0.819 0.7542 0.8093 0.8602 0.8067 0.8342 0.8457 0.9135 1.03
3423.936 0.9831 0.9175 0.9256 0.8546 0.7903 0.8162 0.8662 0.9712 1.02 0.9555
3443.225 0.9078 0.9057 0.9675 1.04 1.04 1.08 1.22 1.19 1.03 1.03
3462.515 1.13 1.2 1.25 1.31 1.38 1.43 1.31 1.2 1.27 1.31
3481.805 1.26 1.27 1.24 1.15 1.14 1.17 1.12 1.05 1.07 1.07
3501.095 1.09 1.1 1.06 0.9956 1.06 1.15 1.08 1.01 1.11 1.12
3520.385 1.1 1.24 1.36 1.49 1.44 1.35 1.63 1.88 2.05 2.15
3539.674 2.3 2.59 2.93 3.22 3.45 3.53 3.7 4.04 4.14 4.13
3558.964 4.14 4.04 3.98 3.96 3.86 3.7 3.48 3.38 3.22 3.06
3578.254 3.05 2.89 2.61 2.48 2.32 2.18 2.23 2.05 1.79 1.81
3597.544 1.71 1.5 1.42 1.43 1.35 1.34 1.46 1.3 1.13 1.07
3616.833 1.14 1.25 1.28 1.24 1.22 1.27 1.25 1.18 1.22 1.35
3636.123 1.46 1.46 1.56 1.74 1.72 1.72 1.93 2.18 2.4 2.58
3655.413 2.73 2.94 2.97 3.08 3.25 3.33 3.5 3.59 3.5 3.46
3674.703 3.4 3.29 3.18 3 2.89 2.73 2.4 2.15 1.95 1.76
3693.993 1.69 1.52 1.29 1.13 0.9724 0.8661 0.8779 0.8532 0.9629 0.9928
3713.282 0.8409 0.7666 0.707 0.7156 0.7663 0.7289 0.6281 0.5352 0.55 0.6755
3732.572 0.6056 0.4122 0.3383 0.3246 0.2555 0.3233 0.4524 0.4119 0.3396 0.2727
3751.862 0.3238 0.3161 0.1809 0.2071 0.3024 0.3466 0.4145 0.3645 0.4261 0.5136
3771.152 0.4263 0.4038 0.3032 0.2262 0.3025 0.3324 0.3215 0.3062 0.3106 0.2707
3790.441 0.3645 0.4537 0.4993 0.517 0.3335 0.4262 0.4791 0.2316 0.1075 0.301
3809.731 0.3197 0.2196 0.1946 0.2174 0.3902 0.3933 0.3568 0.4072 0.3838 0.1563
3829.021 0.1944 0.2846 0.2087 0.3106 0.296 0.2751 0.347 0.3234 0.3268 0.3139
3848.311 0.2251 0.176 0.297 0.4829 0.4766 0.3507 0.3626 0.3467 0.2726 0.3136
3867.601 0.3609 0.4341 0.3785 0.333 0.3842 0.2245 0.1219 0.2884 0.3454 0.1908
3886.890 0.2472 0.4216 0.5926 0.6555 0.6598 0.6406 0.4127 0.2836 0.2689 0.2634
3906.180 0.2256 0.194 0.1454 0.1884 0.1714 0.1906 0.3443 0.3029 0.2101 0.374
3925.470 0.5654 0.4367 0.3351 0.3384 0.3373 0.4 0.4399 0.4715 0.5677 0.47
3944.760 0.3264 0.3841 0.4363 0.4017 0.3032 0.2617 0.2197 0.1447 0.2995 0.2711
3964.049 0.1428 0.3022 0.3235 0.3726 0.3732 0.2529 0.3561 0.4336 0.2768 0.07336
3983.339 0.3218 0.5662 0.3954 0.3577 0.385 0.2143 0.2821 0.4873 0.4326 0.3826
##END=
