##TITLE=4-Isopropylcyclohexanol
##JCAMP-DX=4.24
##DATA TYPE=INFRARED SPECTRUM
##ORIGIN=EPA-IR VAPOR PHASE LIBRARY
##OWNER=SRD/NIST
Collection (C) 2018 copyright by the U.S. Secretary of Commerce
on behalf of the United States of America. All rights reserved.
##CAS REGISTRY NO=4621-04-9
##MOLFORM=C 9 H 18 O
##$NIST SOURCE=MSDC-IR
##STATE=gas
##XUNITS=1/CM
##YUNITS=ABSORBANCE
##XFACTOR=1.
##YFACTOR=0.001
##DELTAX=1.92898
##FIRSTX=549.8
##LASTX=4000.7
##FIRSTY=0.2317
##MAXX=4000.7
##MINX=549.759
##MAXY=0.0637465
##MINY=0
##NPOINTS=1790
##XYDATA=(X++(Y..Y))
549.759 0.2317 0.2456 0.4672 0.2003 0.13685 0.09185 0.17712 0.5675 0.5427 0.5443
569.049 0.8771 1.0666 1.079 1.4865 1.4765 1.2765 1.4265 1.5165 1.4565 1.5165
588.339 1.4965 1.3565 1.3865 1.2965 1.3565 1.3965 1.3065 1.1465 1.1965 1.2465
607.628 1.0574 1.0345 0.8885 0.4903 0.3925 0.5661 0.4806 0.4273 0.4727 0.4752
626.918 0.4714 0.4196 0.3593 0.382 0.2963 0.3189 0.4574 0.4167 0.3403 0.4056
646.208 0.4505 0.4619 0.2622 0.14652 0.3043 0.2572 0.0725 0.006 0.13353 0.3057
665.498 0.4696 0.4175 0.369 0.3744 0.2149 0.3142 0.2416 0.095916 0.0444 0
684.787 0.0228 0.008 0.19079 0.3205 0.3282 0.34 0.3734 0.5026 0.4837 0.3224
704.077 0.3065 0.2752 0.3666 0.3878 0.2444 0.2022 0.18379 0.15646 0.2585 0.3876
723.367 0.3449 0.3356 0.3512 0.3418 0.4053 0.2992 0.0372 0.2321 0.4588 0.3625
742.657 0.18285 0.1999 0.4224 0.289 0.2044 0.3172 0.4978 0.5431 0.5314 0.5933
761.947 0.5396 0.5457 0.5137 0.4888 0.4889 0.539 0.5981 0.4503 0.497 0.5851
781.236 0.4218 0.3723 0.2135 0.2014 0.4708 0.4575 0.2673 0.2451 0.3 0.3211
800.526 0.2107 0.19042 0.3834 0.3334 0.13365 0.2522 0.4401 0.3889 0.3647 0.4397
819.816 0.5214 0.5124 0.4007 0.2699 0.4038 0.6401 0.6678 0.4945 0.4913 0.5786
839.106 0.5907 0.6662 0.8019 0.7696 0.6622 0.7752 0.8365 0.9652 0.9774 0.7733
858.395 0.5755 0.5162 0.5972 0.7412 0.7238 0.6825 0.7293 0.7416 0.9577 1.0009
877.685 0.8265 1.0105 1.1765 1.1465 1.2165 1.4565 1.6465 1.7365 1.8265 1.8365
896.975 1.9165 2.0365 2.1065 2.1065 2.1065 1.8565 1.6865 1.7765 1.7265 1.6165
916.265 1.5365 1.5465 1.6165 1.4865 1.4865 1.7865 1.8965 2.0365 2.1465 2.2365
935.555 2.5265 2.7565 2.8865 2.9565 3.2165 3.2365 2.9765 2.9565 3.0065 2.8165
954.844 2.5965 2.7265 2.8065 2.6065 2.6865 2.8465 2.6365 2.6465 2.7765 2.7665
974.134 2.8265 2.8165 2.8365 3.0765 3.1865 3.2765 3.1965 3.1965 3.3165 3.2565
993.424 3.2065 3.1665 3.2565 3.1465 2.9065 2.8965 2.9565 3.0865 3.2465 3.4165
1012.714 3.5365 3.5065 3.3965 3.5365 3.8365 4.0565 4.2865 4.6865 5.2165 5.9865
1032.003 6.9465 7.7665 9.1065 10.9765 13.1365 15.9665 18.9765 22.1565 24.8165 27.2665
1051.293 29.6665 30.9765 31.7565 32.0665 31.2565 29.5465 27.4165 25.2965 23.2565 20.9065
1070.583 19.2265 17.4465 15.5165 14.2165 13.2465 12.6565 11.8465 10.8265 10.2665 9.4665
1089.873 8.4965 7.9465 7.3365 6.2565 5.1065 4.4065 3.8565 3.3965 2.6565 2.3265
1109.163 2.8765 2.7865 2.4365 2.4565 2.3465 2.0765 2.1965 2.6765 2.6965 2.5565
1128.452 2.8565 2.9465 2.7165 2.9665 2.9865 3.0665 3.2565 3.2165 3.2365 3.0965
1147.742 3.0465 2.8765 2.9265 3.1065 2.7065 2.4965 2.5665 2.4665 2.5165 2.5965
1167.032 2.7565 2.8065 2.5465 2.4465 2.3265 2.5565 2.9765 3.1365 3.1065 3.2965
1186.322 3.5865 3.7065 3.3365 3.1065 3.5965 3.5765 3.2665 3.4265 3.5665 3.5365
1205.611 3.5765 3.3165 3.4965 3.4565 3.2765 3.6565 3.7865 3.6265 3.3365 3.4165
1224.901 3.4165 3.2165 3.4965 3.7565 3.6365 3.6165 3.6165 3.4865 3.3765 3.6765
1244.191 3.9865 3.9565 4.1265 4.2665 4.4765 4.6865 4.4565 4.2565 4.2465 4.2165
1263.481 4.2365 4.1265 3.9165 3.7365 3.5665 3.2865 3.2165 3.2265 3.2265 3.2065
1282.771 3.1265 3.1065 3.0665 3.0365 3.1565 3.2565 3.1265 2.9665 2.8565 2.7765
1302.060 2.7465 2.7465 2.6865 2.6265 2.6565 2.7265 2.7265 2.7365 2.7265 2.7265
1321.350 2.8265 2.8765 2.8565 2.8865 2.9365 2.9365 2.9465 2.9765 2.9965 3.0565
1340.640 3.1865 3.2965 3.4565 3.6265 3.8465 4.1865 4.5965 5.0365 5.5165 5.9565
1359.930 6.3865 6.8465 7.2565 7.5665 7.8265 8.0665 8.3465 8.5265 8.6665 8.7865
1379.219 8.8265 8.8365 8.8365 8.6865 8.3165 8.0065 7.6065 7.0265 6.5265 5.9065
1398.509 5.0865 4.3565 3.7765 3.3265 2.9565 2.6665 2.4765 2.3165 2.1865 2.0265
1417.799 1.9165 1.8965 1.9065 1.9865 2.0865 2.2165 2.3965 2.5565 2.8165 3.1765
1437.089 3.5865 4.0765 4.6465 5.3365 6.0065 6.5565 7.0465 7.4865 8.0665 8.5365
1456.378 8.4765 8.1865 8.0465 7.7965 7.3965 7.0565 6.7065 6.2865 5.8765 5.4465
1475.668 5.0265 4.5865 4.1365 3.7065 3.2665 2.8265 2.4465 2.1265 1.8665 1.6565
1494.958 1.4065 1.2365 1.1265 1.0565 0.9872 0.8865 0.8714 0.8677 0.7539 0.6834
1514.248 0.7045 0.6775 0.6972 0.6918 0.6395 0.6091 0.6269 0.6914 0.645 0.5281
1533.538 0.4431 0.4788 0.4372 0.4026 0.5303 0.5299 0.5125 0.5177 0.4158 0.3838
1552.827 0.3737 0.3777 0.3981 0.2847 0.2972 0.3517 0.3531 0.3182 0.3217 0.4116
1572.117 0.4113 0.3479 0.2693 0.3376 0.3734 0.3086 0.3779 0.4505 0.4432 0.4379
1591.407 0.4402 0.3796 0.3649 0.3789 0.3265 0.3045 0.3091 0.3054 0.2241 0.2127
1610.697 0.3065 0.3367 0.3018 0.2491 0.3184 0.349 0.3059 0.3308 0.3138 0.2855
1629.986 0.3614 0.3742 0.2592 0.2622 0.3632 0.3677 0.3748 0.3769 0.3166 0.2763
1649.276 0.2725 0.2348 0.2432 0.3264 0.3288 0.2649 0.2906 0.3233 0.2874 0.2831
1668.566 0.2867 0.3026 0.3212 0.2925 0.3067 0.3142 0.2199 0.17202 0.17859 0.2001
1687.856 0.232 0.2078 0.19365 0.2531 0.2473 0.2561 0.2565 0.2065 0.2477 0.2769
1707.146 0.2547 0.2414 0.15954 0.1355 0.2236 0.18592 0.1468 0.2152 0.2621 0.3056
1726.435 0.3059 0.2493 0.2237 0.2006 0.16362 0.15102 0.14434 0.13114 0.09225 0.0881
1745.725 0.1413 0.17008 0.16111 0.2145 0.2215 0.17108 0.17815 0.2028 0.16282 0.14587
1765.015 0.17086 0.17442 0.2082 0.18097 0.16139 0.19078 0.2082 0.2053 0.17773 0.15892
1784.305 0.16403 0.16306 0.15997 0.1994 0.2132 0.14789 0.16823 0.2144 0.1981 0.2158
1803.594 0.22 0.2078 0.2513 0.2224 0.191 0.2255 0.2522 0.2282 0.2104 0.2704
1822.884 0.2708 0.2242 0.2183 0.2123 0.2547 0.3128 0.2264 0.167 0.17011 0.2121
1842.174 0.2359 0.1976 0.2236 0.2425 0.2367 0.2735 0.2807 0.2479 0.2532 0.2504
1861.464 0.2196 0.19272 0.14629 0.11399 0.16008 0.2416 0.2484 0.2196 0.2136 0.2165
1880.754 0.2181 0.18267 0.2288 0.263 0.2233 0.2487 0.2101 0.2001 0.215 0.14226
1900.043 0.12845 0.18037 0.2283 0.2595 0.297 0.3189 0.2621 0.2031 0.2037 0.2165
1919.333 0.2786 0.3059 0.2505 0.211 0.2441 0.3105 0.2677 0.2349 0.2441 0.2412
1938.623 0.2195 0.1997 0.2049 0.1695 0.18939 0.16823 0.2186 0.2998 0.2419 0.2494
1957.913 0.2572 0.2069 0.2148 0.2386 0.2656 0.2809 0.3065 0.2959 0.263 0.2924
1977.202 0.2306 0.18116 0.2279 0.2883 0.2736 0.2501 0.306 0.2902 0.2215 0.18081
1996.492 0.2189 0.1897 0.2335 0.3185 0.2519 0.2651 0.3081 0.2978 0.2726 0.262
2015.782 0.272 0.3011 0.2659 0.24 0.2947 0.3276 0.3191 0.3057 0.3099 0.3158
2035.072 0.3155 0.3282 0.2316 0.2025 0.2411 0.2097 0.2746 0.2551 0.2042 0.2111
2054.362 0.2263 0.2442 0.2496 0.3024 0.3062 0.258 0.17893 0.14311 0.15604 0.1987
2073.651 0.19327 0.15106 0.18922 0.2114 0.2814 0.2836 0.2646 0.267 0.2194 0.2237
2092.941 0.2546 0.3091 0.3512 0.3801 0.3655 0.3333 0.2931 0.2608 0.2442 0.2269
2112.231 0.2872 0.3252 0.3548 0.346 0.3258 0.3999 0.3838 0.3456 0.3719 0.3784
2131.521 0.337 0.2602 0.2846 0.2457 0.229 0.2831 0.2515 0.19213 0.1989 0.3088
2150.810 0.362 0.3406 0.3271 0.3724 0.3276 0.19369 0.19159 0.2283 0.2405 0.2283
2170.100 0.2549 0.376 0.3762 0.2839 0.2639 0.291 0.3233 0.3169 0.292 0.2751
2189.390 0.3127 0.3205 0.301 0.3105 0.2928 0.3487 0.3529 0.3681 0.4327 0.4088
2208.680 0.3575 0.323 0.3173 0.3245 0.2918 0.3299 0.3879 0.3751 0.3925 0.4139
2227.970 0.384 0.35 0.3564 0.4212 0.4106 0.324 0.3612 0.3627 0.3501 0.4001
2247.259 0.3781 0.3135 0.3224 0.391 0.4178 0.3595 0.3049 0.3226 0.357 0.2945
2266.549 0.2275 0.311 0.3633 0.3289 0.3023 0.2918 0.3032 0.3578 0.3665 0.3159
2285.839 0.3751 0.4115 0.3275 0.278 0.2848 0.2866 0.2736 0.2981 0.3197 0.3176
2305.129 0.2883 0.2875 0.3534 0.373 0.3172 0.2757 0.3006 0.3176 0.3219 0.3494
2324.418 0.376 0.361 0.2949 0.2683 0.3003 0.3389 0.4114 0.4026 0.3161 0.323
2343.708 0.3134 0.3442 0.4012 0.4097 0.3579 0.328 0.4054 0.4253 0.3171 0.2621
2362.998 0.3342 0.3687 0.3448 0.3371 0.4013 0.4079 0.366 0.4297 0.4301 0.3898
2382.288 0.3885 0.4081 0.4434 0.4646 0.4676 0.3926 0.3747 0.4635 0.4841 0.4879
2401.578 0.5235 0.5243 0.5254 0.4801 0.4676 0.4968 0.5412 0.4838 0.3896 0.3927
2420.867 0.3369 0.3725 0.3843 0.3159 0.3696 0.4187 0.417 0.4385 0.4483 0.406
2440.157 0.442 0.4535 0.4084 0.4337 0.3567 0.2761 0.2979 0.2762 0.3311 0.4078
2459.447 0.3444 0.3164 0.3088 0.2935 0.3533 0.4092 0.4289 0.4531 0.4824 0.4796
2478.737 0.4352 0.4091 0.4037 0.3715 0.373 0.3987 0.4125 0.3887 0.339 0.3711
2498.026 0.4068 0.3675 0.4033 0.4333 0.4475 0.5045 0.5213 0.4785 0.4381 0.4752
2517.316 0.5321 0.4451 0.3686 0.3918 0.4141 0.4665 0.4521 0.4833 0.5228 0.5265
2536.606 0.5102 0.4461 0.4702 0.5489 0.5104 0.5085 0.5717 0.5168 0.4656 0.5136
2555.896 0.6021 0.6032 0.5369 0.5774 0.6439 0.6724 0.6899 0.7253 0.7585 0.7286
2575.186 0.8159 0.8339 0.7566 0.7287 0.7011 0.7291 0.7606 0.7279 0.7388 0.763
2594.475 0.7191 0.7392 0.8603 0.9223 0.8407 0.8372 0.8923 0.9854 0.964 0.8495
2613.765 0.9347 0.9613 0.9542 1.0094 0.9681 0.9579 1.0502 1.0766 1.0027 1.0457
2633.055 1.0965 1.0487 1.0344 0.9997 1.0405 1.1865 1.1865 1.0783 1.0617 1.0738
2652.345 1.1665 1.2565 1.1465 1.0917 1.1665 1.2065 1.1165 1.0639 1.1265 1.1565
2671.634 1.1565 1.1565 1.1965 1.2565 1.2365 1.1965 1.2265 1.2765 1.2265 1.1765
2690.924 1.1365 1.1165 1.1865 1.1665 1.1665 1.2265 1.1665 1.1765 1.2265 1.2065
2710.214 1.2065 1.2065 1.2165 1.1665 1.1765 1.2165 1.2065 1.2765 1.3865 1.3565
2729.504 1.3465 1.4165 1.4365 1.3565 1.2765 1.2865 1.3165 1.3265 1.2865 1.2965
2748.794 1.3565 1.4165 1.3765 1.3865 1.4765 1.4565 1.4065 1.4665 1.5665 1.6565
2768.083 1.6765 1.6265 1.6465 1.5765 1.5665 1.6465 1.7065 1.7065 1.7765 1.8365
2787.373 1.8965 1.9165 1.8165 1.9365 2.0265 2.0265 2.0765 2.0965 2.1565 2.2765
2806.663 2.3465 2.3765 2.4565 2.5565 2.6465 2.7265 2.8965 3.0365 3.1465 3.3865
2825.953 3.5965 3.8165 4.1165 4.4665 4.9265 5.4465 6.1765 7.1165 8.1765 9.4565
2845.242 10.9865 12.7165 14.8265 17.2065 19.6065 22.1865 24.8365 27.3165 29.4065 30.9065
2864.532 31.8265 32.5065 32.9465 32.9565 32.5965 31.9665 31.1865 30.1965 29.1565 28.0965
2883.822 26.8465 25.7565 24.8465 23.9265 23.1165 22.4565 21.9265 21.8465 22.0365 22.3365
2903.112 22.9765 23.8865 25.0265 26.3365 28.0365 29.9465 32.0465 34.7065 37.5965 40.6665
2922.401 43.9265 47.4665 51.1165 54.3365 57.2665 59.8265 61.8365 63.2165 63.7465 63.5965
2941.691 62.8365 61.5365 59.7365 57.5965 55.2465 52.7765 50.6465 49.3465 48.8365 48.5165
2960.981 47.8965 46.8065 45.3165 43.3865 41.2265 38.5865 35.1265 31.1065 26.9965 23.2165
2980.271 19.8965 17.3065 15.0965 12.9065 10.9665 9.2565 7.7765 6.6065 5.6665 4.8465
2999.561 4.1765 3.6765 3.2765 2.9165 2.7465 2.5065 2.2465 2.1165 1.9165 1.7965
3018.850 1.6665 1.6265 1.6865 1.5965 1.5665 1.6165 1.4965 1.4365 1.4065 1.3865
3038.140 1.3065 1.2165 1.2465 1.2265 1.2365 1.1665 1.0664 1.0163 1.0544 1.0039
3057.430 0.9242 0.8486 0.819 0.8618 0.978 1.0787 0.8639 0.8103 0.9807 0.9274
3076.720 0.7935 0.8208 0.8383 0.8477 1.0288 0.9386 0.8203 0.9007 0.8563 0.8507
3096.009 0.8883 0.8707 0.8884 0.897 0.9142 0.852 0.7567 0.8003 0.8205 0.8407
3115.299 0.8303 0.7918 0.7467 0.5609 0.6308 0.7169 0.6805 0.7284 0.8148 0.8376
3134.589 0.7073 0.8346 0.9185 0.8279 0.7862 0.8393 0.8652 0.9283 0.8981 0.9229
3153.879 0.9924 0.9541 0.9692 0.8582 0.751 0.7789 0.8134 0.7177 0.7245 0.6712
3173.169 0.6578 0.8263 0.7838 0.7011 0.7723 0.7336 0.5972 0.5578 0.5962 0.6318
3192.458 0.6972 0.7768 0.6775 0.5968 0.611 0.6405 0.6173 0.5066 0.4987 0.5023
3211.748 0.5508 0.6078 0.5115 0.5007 0.5088 0.4953 0.4433 0.3872 0.3882 0.3664
3231.038 0.242 0.3628 0.522 0.3166 0.2571 0.2886 0.3678 0.438 0.4325 0.4333
3250.328 0.3835 0.4182 0.3773 0.3651 0.3274 0.2406 0.2676 0.2038 0.1739 0.2763
3269.617 0.2517 0.2812 0.2871 0.17973 0.18873 0.16553 0.13151 0.2636 0.3596 0.19452
3288.907 0.1966 0.3721 0.3814 0.3179 0.2879 0.2476 0.3316 0.3488 0.2745 0.3371
3308.197 0.3306 0.3509 0.4263 0.3776 0.2515 0.2247 0.2692 0.18429 0.19389 0.29
3327.487 0.3949 0.4095 0.3288 0.2847 0.2265 0.2389 0.3242 0.4187 0.4123 0.34
3346.777 0.3343 0.3479 0.3006 0.18362 0.2652 0.3132 0.2599 0.2545 0.2578 0.2231
3366.066 0.17862 0.2471 0.3264 0.5183 0.6229 0.5055 0.3433 0.4246 0.5639 0.66
3385.356 0.6084 0.3923 0.2539 0.275 0.397 0.3716 0.3886 0.3771 0.3743 0.4377
3404.646 0.5395 0.5145 0.4051 0.4112 0.3082 0.3303 0.374 0.2703 0.2466 0.3259
3423.936 0.3692 0.4572 0.4865 0.3694 0.2986 0.3461 0.4032 0.4545 0.4743 0.4851
3443.225 0.5333 0.5024 0.5295 0.4251 0.257 0.4511 0.4026 0.325 0.4432 0.5454
3462.515 0.5656 0.3428 0.3845 0.518 0.503 0.344 0.2149 0.2918 0.303 0.237
3481.805 0.3021 0.3807 0.4503 0.5605 0.515 0.4341 0.3662 0.2723 0.18809 0.2451
3501.095 0.3889 0.3855 0.3884 0.3045 0.17663 0.105891 0.19102 0.322 0.3793 0.3794
3520.385 0.2854 0.2422 0.3413 0.3885 0.4393 0.4461 0.3821 0.5729 0.5676 0.3552
3539.674 0.2775 0.3932 0.3699 0.3677 0.4077 0.3897 0.4216 0.398 0.2974 0.2486
3558.964 0.3835 0.3954 0.3242 0.2951 0.3603 0.3132 0.2731 0.3523 0.35 0.2819
3578.254 0.2865 0.231 0.2057 0.2675 0.2475 0.2506 0.18357 0.18008 0.2433 0.3026
3597.544 0.3112 0.2206 0.3439 0.5789 0.5411 0.3931 0.5385 0.5918 0.5018 0.4819
3616.833 0.4508 0.4188 0.4572 0.6745 0.9387 0.9965 1.1065 1.3365 1.5865 1.8865
3636.123 2.1565 2.6765 3.2965 3.9065 4.3265 4.6765 4.9765 4.9465 4.7665 4.6465
3655.413 4.5265 4.1165 3.4765 2.7865 2.1265 1.6165 1.2465 1.0756 0.8415 0.7622
3674.703 0.6914 0.5626 0.4468 0.3695 0.3856 0.4202 0.6057 0.6251 0.4829 0.4296
3693.993 0.3741 0.2541 0.2621 0.4104 0.5489 0.5728 0.487 0.3376 0.3709 0.5078
3713.282 0.5057 0.4546 0.3541 0.2637 0.3809 0.5411 0.4917 0.4239 0.4462 0.4517
3732.572 0.3801 0.2941 0.2234 0.19212 0.236 0.2219 0.2356 0.15307 0.18487 0.446
3751.862 0.4259 0.3657 0.43 0.4727 0.4982 0.4058 0.3028 0.3303 0.3558 0.426
3771.152 0.4913 0.276 0.2112 0.4091 0.5055 0.5428 0.5328 0.48 0.4191 0.3434
3790.441 0.3638 0.3902 0.3325 0.3538 0.434 0.3752 0.3396 0.4804 0.5175 0.4285
3809.731 0.438 0.4275 0.4424 0.4008 0.3217 0.4507 0.4756 0.4195 0.4007 0.5406
3829.021 0.6104 0.4643 0.4141 0.4319 0.3899 0.4039 0.2474 0.13434 0.2018 0.0641
3848.311 0.18753 0.5149 0.5073 0.4158 0.544 0.466 0.3474 0.4938 0.4915 0.4798
3867.601 0.7007 0.6773 0.4309 0.5262 0.5297 0.3942 0.4336 0.381 0.2915 0.3434
3886.890 0.3724 0.4022 0.4909 0.5147 0.4386 0.4281 0.4677 0.3471 0.361 0.467
3906.180 0.3207 0.237 0.2354 0.1574 0.2807 0.4817 0.4806 0.306 0.2128 0.2511
3925.470 0.4612 0.5668 0.5045 0.4134 0.4342 0.5437 0.5292 0.4392 0.3859 0.5412
3944.760 0.5384 0.2921 0.3271 0.4739 0.3642 0.2807 0.3541 0.393 0.4117 0.411
3964.049 0.2603 0.1581 0.3058 0.3353 0.3039 0.3233 0.2822 0.228 0.2065 0.4522
3983.339 0.7812 0.7377 0.4589 0.2837 0.2563 0.3669 0.441 0.4518 0.3814 0.2607
##END=
