##TITLE=1-Nitropentane
##JCAMP-DX=4.24
##DATA TYPE=INFRARED SPECTRUM
##ORIGIN=EPA-IR VAPOR PHASE LIBRARY
##OWNER=SRD/NIST
Collection (C) 2018 copyright by the U.S. Secretary of Commerce
on behalf of the United States of America. All rights reserved.
##CAS REGISTRY NO=463-04-7
##MOLFORM=C 5 H 11 N O 2
##$NIST SOURCE=MSDC-IR
##STATE=gas
##XUNITS=1/CM
##YUNITS=ABSORBANCE
##XFACTOR=1.
##YFACTOR=0.001
##DELTAX=1.92898
##FIRSTX=549.8
##LASTX=4000.7
##FIRSTY=0.8501
##MAXX=4000.7
##MINX=549.759
##MAXY=0.16084
##MINY=0
##NPOINTS=1790
##XYDATA=(X++(Y..Y))
549.759 0.8501 0.9268 0.9225 0.8682 1.0148 1.0898 1.0333 1.1798 1.3298 1.5498
569.049 1.4198 1.1898 1.4198 1.6998 1.7098 1.8098 2.0598 2.4898 2.6998 2.9198
588.339 3.3498 3.4598 3.5298 3.8298 4.1898 4.4898 4.8398 4.9998 4.9298 5.0198
607.628 5.2798 5.4098 5.4498 5.5098 5.4398 5.3598 5.3598 5.4098 5.4198 5.2398
626.918 5.1298 5.1298 4.9098 4.6898 4.6598 4.6698 4.5898 4.3798 4.1698 4.1298
646.208 3.9298 3.7398 3.6198 3.3398 3.1998 3.1098 2.9098 2.7198 2.5298 2.2698
665.498 2.2798 2.2698 2.1098 2.1198 2.1198 2.0898 2.0998 2.0498 1.9798 2.0398
684.787 2.1598 2.1898 2.1798 2.2198 2.2698 2.5498 2.7398 2.7198 2.9298 3.1298
704.077 3.3598 3.7098 3.9698 4.1198 4.4198 4.8498 5.2398 5.4898 5.6098 5.8198
723.367 6.0198 6.1498 6.2398 6.2198 6.3798 6.5198 6.4898 6.5598 6.5998 6.4998
742.657 6.4098 6.2498 6.0098 5.6798 5.2998 5.0398 4.7998 4.4998 4.1898 3.9498
761.947 3.7298 3.4898 3.2498 3.0798 2.9398 2.9698 3.0598 2.9398 2.9698 3.0398
781.236 2.9398 2.7398 2.7098 2.7798 2.7598 2.7498 2.8098 2.8698 2.7698 2.6998
800.526 2.6198 2.5198 2.4498 2.3198 2.2398 2.2098 2.1698 2.0598 1.9598 1.8098
819.816 1.6598 1.6898 1.5498 1.3598 1.4398 1.5598 1.6298 1.7098 1.8198 1.9498
839.106 2.0398 2.1098 2.2598 2.4398 2.4398 2.3998 2.4698 2.6298 2.8298 2.9398
858.395 3.0798 3.2598 3.5198 3.8198 4.0798 4.3698 4.6198 4.9498 5.2998 5.4598
877.685 5.5298 5.5198 5.5198 5.5698 5.4198 5.0198 4.5598 4.2198 3.9298 3.6498
896.975 3.4498 3.3398 3.3198 3.3798 3.3698 3.2198 3.0898 3.0798 3.0598 2.9098
916.265 2.6998 2.4998 2.4198 2.1998 1.8898 1.6398 1.3498 1.1798 1.0998 0.991
935.555 0.9131 0.837 0.8344 0.7951 0.6491 0.6995 0.8596 0.8483 0.8175 0.8536
954.844 0.8349 0.8601 0.932 0.9407 0.8893 0.925 0.9785 1.0182 1.0798 1.0399
974.134 1.0109 1.1098 1.1098 1.0998 1.2998 1.5098 1.5398 1.3598 1.3898 1.6198
993.424 1.6098 1.5898 1.6098 1.5898 1.5398 1.4398 1.3998 1.3098 1.3798 1.4698
1012.714 1.3798 1.2998 1.2298 1.1898 1.1598 1.0798 1.0543 1.2198 1.1998 1.045
1032.003 1.1398 1.1498 0.9914 0.9616 0.9165 0.8339 0.8404 0.9924 1.0543 0.8861
1051.293 0.9428 0.9448 0.7651 0.8262 0.7859 0.7336 0.8603 0.9484 0.9074 0.7826
1070.583 0.8427 0.8104 0.7109 0.7356 0.7441 0.7886 0.8481 0.7346 0.6901 0.797
1089.873 0.9762 1.0534 1.1098 1.2498 1.5498 1.6398 1.6898 1.9698 2.0998 2.2898
1109.163 2.7098 3.1198 3.3798 3.4998 3.5298 3.7498 3.6198 3.4498 3.5198 3.4798
1128.452 3.4198 3.3398 3.3398 3.3698 3.2198 3.0898 2.9998 2.6498 2.5398 2.5398
1147.742 2.3498 2.2498 2.3198 2.3598 2.3398 2.1898 2.0998 2.2298 2.1398 2.1598
1167.032 2.3998 2.4598 2.4898 2.7598 3.0098 3.1298 3.4898 3.9398 4.1298 4.3598
1186.322 4.7698 5.1498 5.3898 5.6298 6.1098 6.2498 6.3798 6.6898 6.8698 6.8498
1205.611 6.7998 6.8698 6.9098 6.8198 6.5698 6.3698 6.2098 5.9298 5.7198 5.6498
1224.901 5.5698 5.4498 5.3698 5.4198 5.0298 4.8198 4.9498 4.8598 4.6698 4.4598
1244.191 4.3898 4.3198 4.1898 4.0998 4.1498 4.2798 4.2498 4.1998 4.1698 4.1398
1263.481 4.3698 4.5198 4.6098 4.6498 4.6498 4.7598 4.8898 5.0298 5.1198 5.2298
1282.771 5.2798 5.2798 5.3698 5.4798 5.4298 5.4298 5.5098 5.6198 5.7198 5.7698
1302.060 5.8898 6.0298 6.1598 6.2198 6.3498 6.5498 6.7698 7.0398 7.3298 7.6698
1321.350 8.0698 8.5198 9.0798 9.7198 10.4298 11.2698 12.1698 13.0898 14.0998 15.2098
1340.640 16.4298 17.7298 19.1298 20.5498 21.9498 23.4898 25.0998 26.8798 28.8398 30.9798
1359.930 33.2998 35.7498 38.3098 40.8598 43.4298 45.9398 48.2298 50.1998 51.5598 52.1298
1379.219 51.8598 50.7998 49.0298 46.5698 43.4098 39.5998 35.4298 31.1098 26.7798 22.7398
1398.509 19.3598 16.6498 14.6098 13.0598 11.9098 11.1098 10.6198 10.2898 10.1498 10.1698
1417.799 10.4298 10.8698 11.4798 12.3398 13.5298 15.0298 16.8998 18.9698 20.8698 22.2598
1437.089 23.2198 23.9198 24.5498 25.1798 25.6398 25.7698 25.1598 24.0198 22.7998 21.7698
1456.378 20.9898 20.3898 19.9398 19.4998 18.9998 18.3998 17.7198 16.9898 16.2198 15.4198
1475.668 14.5898 13.7598 12.9398 12.0998 11.3698 10.7598 10.2398 9.8298 9.4898 9.2198
1494.958 9.1298 9.1398 9.2198 9.3898 9.6598 10.1798 10.8798 11.6198 12.5598 13.7098
1514.248 15.0098 16.6298 18.5398 20.6898 23.3298 26.1898 29.4498 33.1898 37.3798 42.0498
1533.538 47.1898 52.7598 58.4598 64.8398 71.6198 78.6298 86.1298 94.0198 102 110.42
1552.827 118.55 126.79 134.52 141.8 148.59 153.74 157.42 159.7 160.72 160.84
1572.117 160.15 158.32 155 150.13 143.74 135.7 126.62 116.87 106.87 96.7498
1591.407 86.8198 77.2898 68.3398 60.0798 52.6098 45.8498 39.7998 34.2398 29.2198 24.8098
1610.697 21.0398 17.7898 15.1298 12.8898 10.9598 9.3898 8.1798 7.1498 6.2998 5.5998
1629.986 4.9798 4.4898 4.1298 3.7898 3.3798 3.0298 2.7698 2.5798 2.3998 2.2598
1649.276 2.1198 1.9998 1.8898 1.7598 1.6398 1.5198 1.4198 1.3498 1.3198 1.2798
1668.566 1.1898 1.1298 1.0798 1.0467 1.0051 0.9457 0.8969 0.8854 0.9196 0.8535
1687.856 0.7321 0.7357 0.7529 0.7473 0.7075 0.6569 0.6363 0.6127 0.6203 0.6011
1707.146 0.5579 0.5063 0.4767 0.513 0.5528 0.5319 0.477 0.4582 0.4313 0.3939
1726.435 0.4238 0.4335 0.4114 0.4259 0.4109 0.4046 0.3871 0.3495 0.3302 0.3056
1745.725 0.3411 0.3783 0.3718 0.3604 0.3327 0.2877 0.2833 0.334 0.3602 0.311
1765.015 0.2914 0.3162 0.3001 0.3116 0.3105 0.2941 0.2593 0.2717 0.3068 0.268
1784.305 0.2475 0.2518 0.2675 0.2397 0.2356 0.2324 0.225 0.2545 0.2645 0.2661
1803.594 0.2895 0.3096 0.3 0.2712 0.2351 0.2206 0.2335 0.2572 0.2538 0.2867
1822.884 0.3346 0.3067 0.2761 0.2596 0.2334 0.2186 0.2329 0.2203 0.2321 0.2753
1842.174 0.2725 0.2096 0.187 0.247 0.2506 0.2334 0.2194 0.2329 0.2167 0.1977
1861.464 0.1984 0.1932 0.2209 0.2182 0.1998 0.2112 0.24 0.2358 0.2033 0.1978
1880.754 0.213 0.2028 0.2033 0.2125 0.195 0.1984 0.2062 0.1962 0.1963 0.1972
1900.043 0.198 0.1813 0.1993 0.2069 0.1814 0.1952 0.2247 0.2132 0.1735 0.1947
1919.333 0.2154 0.16704 0.14963 0.15041 0.1703 0.2042 0.1786 0.15709 0.1895 0.2218
1938.623 0.2135 0.2199 0.2197 0.2022 0.2059 0.2135 0.1813 0.16144 0.1872 0.2477
1957.913 0.2743 0.2204 0.16061 0.1752 0.204 0.178 0.1747 0.1913 0.1952 0.2011
1977.202 0.2209 0.2281 0.2319 0.1981 0.16388 0.1749 0.1801 0.2036 0.2022 0.2178
1996.492 0.2505 0.2452 0.2064 0.1733 0.1885 0.1862 0.2253 0.252 0.2228 0.2482
2015.782 0.2504 0.2195 0.2318 0.23 0.2215 0.2784 0.3032 0.249 0.2543 0.2969
2035.072 0.3254 0.351 0.3784 0.3331 0.3089 0.3399 0.3107 0.2956 0.3182 0.3559
2054.362 0.3634 0.3561 0.3602 0.3245 0.2951 0.3235 0.3464 0.3317 0.3269 0.318
2073.651 0.326 0.3254 0.2936 0.3267 0.3468 0.3098 0.3091 0.2893 0.2387 0.2286
2092.941 0.2311 0.2586 0.2765 0.2682 0.2516 0.257 0.2718 0.2501 0.2399 0.2498
2112.231 0.2755 0.3094 0.3115 0.2793 0.3015 0.2891 0.2477 0.2622 0.2498 0.2484
2131.521 0.2477 0.2309 0.2583 0.2781 0.2672 0.2484 0.2319 0.2483 0.2787 0.2608
2150.810 0.2296 0.2439 0.2346 0.2516 0.2391 0.2001 0.2767 0.3092 0.2539 0.2452
2170.100 0.2515 0.2334 0.2425 0.2572 0.2505 0.2801 0.2924 0.2908 0.3071 0.2983
2189.390 0.3348 0.3779 0.3762 0.373 0.3088 0.277 0.2836 0.2798 0.3162 0.319
2208.680 0.2521 0.2438 0.3092 0.3331 0.3386 0.3702 0.377 0.3332 0.3381 0.3969
2227.970 0.3718 0.3397 0.3635 0.3461 0.3582 0.3747 0.3957 0.4362 0.3742 0.3288
2247.259 0.3495 0.3714 0.3945 0.3869 0.3997 0.3876 0.4126 0.4504 0.4367 0.4388
2266.549 0.4679 0.4771 0.4546 0.474 0.4689 0.4699 0.4696 0.4367 0.4494 0.4452
2285.839 0.4451 0.4443 0.4461 0.4227 0.3789 0.4092 0.4304 0.4155 0.3778 0.3059
2305.129 0.3086 0.3637 0.3844 0.3954 0.4135 0.4068 0.4063 0.4102 0.403 0.401
2324.418 0.4092 0.4216 0.4102 0.4198 0.4479 0.4384 0.4004 0.4578 0.4514 0.3775
2343.708 0.3858 0.3826 0.374 0.3864 0.4387 0.4618 0.4426 0.4697 0.5047 0.5048
2362.998 0.458 0.4065 0.4091 0.4433 0.4418 0.3946 0.3798 0.4472 0.4606 0.4328
2382.288 0.4911 0.5072 0.4912 0.4998 0.4766 0.5048 0.5686 0.5594 0.5289 0.5124
2401.578 0.5478 0.6028 0.6116 0.637 0.6749 0.6815 0.6625 0.6669 0.7042 0.7369
2420.867 0.7523 0.7585 0.7743 0.8103 0.8468 0.8454 0.8462 0.8919 0.8621 0.8261
2440.157 0.8272 0.8102 0.8303 0.898 0.9068 0.8856 0.8753 0.8571 0.8767 0.8548
2459.447 0.8363 0.8528 0.8244 0.8387 0.8283 0.7705 0.8106 0.8118 0.7537 0.7421
2478.737 0.7457 0.6986 0.6632 0.6657 0.6575 0.6175 0.5708 0.5498 0.5661 0.5959
2498.026 0.5914 0.5725 0.5436 0.4864 0.493 0.5372 0.5166 0.4722 0.4073 0.4037
2517.316 0.465 0.4921 0.4961 0.4828 0.4797 0.4625 0.4068 0.437 0.4839 0.474
2536.606 0.4804 0.4564 0.4293 0.4818 0.5193 0.5183 0.5841 0.5872 0.4762 0.5077
2555.896 0.5603 0.4853 0.5108 0.5634 0.5631 0.5288 0.5365 0.5735 0.5536 0.5718
2575.186 0.6332 0.6432 0.6141 0.6271 0.6984 0.7201 0.6568 0.6047 0.5997 0.5939
2594.475 0.5487 0.5409 0.602 0.589 0.5891 0.6562 0.634 0.6171 0.646 0.6378
2613.765 0.5737 0.581 0.5844 0.5928 0.6714 0.6667 0.6515 0.6782 0.6626 0.644
2633.055 0.6711 0.678 0.697 0.7308 0.7164 0.7918 0.8681 0.8386 0.8386 0.8409
2652.345 0.8729 0.9314 0.9338 0.9322 0.9445 0.9504 0.9988 1.0044 1.0446 1.1098
2671.634 1.0798 1.1398 1.2398 1.2398 1.1898 1.2398 1.2398 1.2698 1.2998 1.3098
2690.924 1.3498 1.3798 1.3798 1.3598 1.3998 1.4398 1.4198 1.5298 1.6498 1.6598
2710.214 1.6298 1.6998 1.7998 1.7898 1.8598 1.9198 1.9698 1.9998 2.1298 2.2698
2729.504 2.2898 2.2998 2.3698 2.4498 2.4398 2.5198 2.5798 2.5498 2.5998 2.6298
2748.794 2.6198 2.5498 2.4798 2.5098 2.5098 2.4398 2.3698 2.3298 2.2798 2.2598
2768.083 2.2898 2.2198 2.1798 2.1998 2.1898 2.2198 2.3598 2.3498 2.3198 2.3798
2787.373 2.4598 2.5198 2.5598 2.6798 2.7398 2.8198 2.9898 3.0698 3.1498 3.3198
2806.663 3.4398 3.4898 3.6198 3.7998 3.8998 4.0298 4.2098 4.3698 4.5598 4.7298
2825.953 4.9498 5.2298 5.5298 5.8698 6.2398 6.6998 7.1998 7.7598 8.4398 9.0898
2845.242 9.8898 10.9098 11.9898 13.1598 14.4898 15.9898 17.5498 19.1998 20.9698 22.7798
2864.532 24.5598 26.3098 27.9898 29.6098 31.0798 32.4898 33.8698 34.9998 35.8598 36.2398
2883.822 36.0798 35.6598 35.1798 34.6798 34.1998 33.4898 32.5698 31.7798 31.1198 30.7898
2903.112 30.8498 31.2298 32.0498 33.1798 34.5998 36.4798 38.4998 40.7398 43.3198 46.0998
2922.401 49.1098 52.1898 55.4598 58.7598 61.9898 65.1798 68.1098 70.7098 72.7898 74.3798
2941.691 75.3798 75.7898 75.8798 75.6498 75.3098 74.8498 74.3698 74.0198 73.9498 74.3798
2960.981 75.4398 76.9198 78.5898 80.1598 80.6598 79.6798 77.4598 74.5098 71.0398 66.9398
2980.271 62.1298 56.3598 49.8198 43.2598 37.2998 32.3498 28.3498 25.0398 22.3398 19.9798
2999.561 17.9898 16.4398 15.1498 14.0898 13.2198 12.4498 11.7398 11.1298 10.5798 10.0998
3018.850 9.6498 9.2298 8.7698 8.3098 7.8998 7.4798 7.1798 6.7898 6.3698 5.9998
3038.140 5.5698 5.2498 4.9198 4.6498 4.3898 4.1298 3.9498 3.7298 3.5298 3.3598
3057.430 3.1298 2.9598 2.8398 2.7298 2.5898 2.4598 2.4398 2.4798 2.4498 2.3498
3076.720 2.3298 2.2198 2.1598 2.1598 2.0998 2.0898 1.9998 1.9098 1.8898 1.8598
3096.009 1.8798 1.7798 1.6698 1.6598 1.6698 1.6498 1.5798 1.5398 1.5098 1.4998
3115.299 1.5598 1.4698 1.3998 1.4498 1.4298 1.3698 1.2698 1.2198 1.2798 1.2598
3134.589 1.2198 1.2298 1.1898 1.1798 1.1998 1.1698 1.1498 1.1498 1.1398 1.1898
3153.879 1.1598 1.031 0.9888 0.9455 0.9468 1.0072 0.9644 0.9144 0.9062 0.9147
3173.169 0.9181 0.9346 0.9502 0.8556 0.7765 0.7933 0.7911 0.8175 0.8488 0.7955
3192.458 0.739 0.7466 0.7817 0.784 0.7401 0.6826 0.614 0.5591 0.5895 0.5956
3211.748 0.6412 0.5933 0.5583 0.596 0.5609 0.4998 0.4841 0.455 0.3916 0.4306
3231.038 0.4672 0.4509 0.4114 0.3643 0.4063 0.3701 0.2556 0.3226 0.4119 0.3569
3250.328 0.3063 0.3119 0.2961 0.264 0.3121 0.3411 0.2992 0.3713 0.3465 0.2612
3269.617 0.3231 0.2639 0.2036 0.2695 0.2661 0.3096 0.2778 0.2118 0.3062 0.276
3288.907 0.2075 0.1961 0.1818 0.16302 0.1883 0.2229 0.1896 0.2065 0.16355 0.16222
3308.197 0.2079 0.16013 0.1858 0.2342 0.216 0.1935 0.1847 0.12577 0.079171 0.15793
3327.487 0.3071 0.3699 0.3572 0.3815 0.251 0.16032 0.2608 0.2342 0.2752 0.2844
3346.777 0.11264 0 0.0123 0.12518 0.2167 0.15507 0.14276 0.1987 0.1953 0.1954
3366.066 0.1904 0.2412 0.2664 0.247 0.2744 0.2226 0.1758 0.2208 0.13578 0.11574
3385.356 0.16214 0.2454 0.3135 0.2878 0.2708 0.3289 0.3547 0.2138 0.221 0.2503
3404.646 0.16368 0.11311 0.0271 0.10024 0.2319 0.2821 0.2262 0.06537 0.10943 0.2245
3423.936 0.15366 0.0537 0.15879 0.2937 0.2876 0.15376 0.09217 0.2085 0.1778 0.11951
3443.225 0.2032 0.1887 0.2387 0.2745 0.1736 0.16586 0.2128 0.2883 0.2711 0.16326
3462.515 0.13344 0.1765 0.1757 0.1906 0.264 0.2813 0.253 0.2188 0.3158 0.3348
3481.805 0.16731 0.10301 0.1827 0.2325 0.14445 0.0385 0.0236 0.15262 0.2208 0.12734
3501.095 0.11842 0.15899 0.15565 0.1775 0.12712 0.12166 0.1798 0.14623 0.09195 0.08511
3520.385 0.16769 0.2563 0.279 0.1812 0.11402 0.195 0.201 0.2189 0.2388 0.2127
3539.674 0.2573 0.2597 0.259 0.2447 0.1747 0.15487 0.255 0.2551 0.2174 0.283
3558.964 0.2837 0.2572 0.2431 0.2299 0.16503 0.074747 0.0417 0.0645 0.0886 0.2445
3578.254 0.2466 0.11323 0.15656 0.193 0.2032 0.2256 0.2219 0.2491 0.237 0.15579
3597.544 0.137 0.2229 0.3004 0.2347 0.1634 0.1458 0.21 0.2227 0.2071 0.2857
3616.833 0.2861 0.1712 0.14592 0.1832 0.2751 0.35 0.2433 0.2437 0.2719 0.3129
3636.123 0.2514 0.08867 0.133 0.1779 0.13691 0.16471 0.2688 0.3079 0.3166 0.342
3655.413 0.16565 0.11707 0.3345 0.3619 0.3716 0.321 0.3508 0.4156 0.3564 0.4361
3674.703 0.4944 0.5017 0.454 0.4523 0.447 0.4379 0.4122 0.4991 0.4997 0.3284
3693.993 0.3085 0.2889 0.3369 0.3926 0.3915 0.2953 0.2318 0.3386 0.2896 0.2499
3713.282 0.3631 0.3706 0.3053 0.3094 0.3525 0.203 0.2344 0.502 0.401 0.3076
3732.572 0.3737 0.3968 0.3855 0.2917 0.2939 0.2655 0.2962 0.2973 0.2538 0.2818
3751.862 0.2532 0.3636 0.4081 0.2668 0.2901 0.4103 0.3845 0.3115 0.2804 0.2545
3771.152 0.2028 0.2836 0.3311 0.3341 0.4145 0.4331 0.3829 0.3687 0.3546 0.2825
3790.441 0.3441 0.3556 0.3305 0.4658 0.4542 0.3778 0.4478 0.5303 0.489 0.4175
3809.731 0.4273 0.4408 0.3761 0.3399 0.3433 0.3055 0.3625 0.3486 0.3406 0.352
3829.021 0.3098 0.271 0.2275 0.1817 0.2066 0.3637 0.3584 0.2342 0.2198 0.2301
3848.311 0.2762 0.2639 0.2537 0.3005 0.2157 0.3003 0.4575 0.4059 0.3523 0.3308
3867.601 0.3698 0.5093 0.5083 0.3958 0.3587 0.3501 0.4449 0.4445 0.2618 0.2957
3886.890 0.4101 0.2692 0.2137 0.3987 0.4386 0.4761 0.5204 0.4036 0.2969 0.3116
3906.180 0.4433 0.4942 0.4763 0.4652 0.32 0.3574 0.4556 0.4183 0.4256 0.2947
3925.470 0.2651 0.425 0.4608 0.5257 0.5357 0.4535 0.4021 0.2838 0.2744 0.2902
3944.760 0.3561 0.4384 0.4306 0.4493 0.4179 0.3792 0.3614 0.3512 0.5465 0.6538
3964.049 0.4584 0.533 0.604 0.4396 0.3971 0.4626 0.5334 0.468 0.4501 0.5422
3983.339 0.4932 0.4744 0.6056 0.6338 0.5645 0.6101 0.6965 0.7419 0.6451 0.5864
##END=
