##TITLE=6-Methyl-5-hepten-2-ol
##JCAMP-DX=4.24
##DATA TYPE=INFRARED SPECTRUM
##ORIGIN=EPA-IR VAPOR PHASE LIBRARY
##OWNER=SRD/NIST
Collection (C) 2018 copyright by the U.S. Secretary of Commerce
on behalf of the United States of America. All rights reserved.
##CAS REGISTRY NO=4630-06-2
##MOLFORM=C 8 H 16 O
##$NIST SOURCE=MSDC-IR
##STATE=gas
##XUNITS=1/CM
##YUNITS=ABSORBANCE
##XFACTOR=1.
##YFACTOR=0.001
##DELTAX=1.92898
##FIRSTX=549.8
##LASTX=4000.7
##FIRSTY=1.49
##MAXX=4000.7
##MINX=549.759
##MAXY=0.06691
##MINY=0.0002418
##NPOINTS=1790
##XYDATA=(X++(Y..Y))
549.759 1.49 1.59 1.53 1.43 1.29 1.16 1.24 1.3 1.22 1.19
569.049 1.29 1.12 0.8632 0.8959 0.8245 0.7319 0.8692 0.9628 0.8796 0.7445
588.339 0.7043 0.5442 0.4485 0.5047 0.6581 0.8132 0.7466 0.6564 0.6954 0.7533
607.628 0.7522 0.7076 0.6913 0.674 0.6094 0.562 0.5988 0.6924 0.7201 0.7676
626.918 0.7476 0.5784 0.508 0.4752 0.5228 0.5784 0.5266 0.5287 0.57 0.5702
646.208 0.5428 0.5854 0.6014 0.5571 0.5022 0.4911 0.5455 0.552 0.425 0.382
665.498 0.4364 0.5552 0.6622 0.6095 0.5519 0.5594 0.5721 0.5135 0.4425 0.4998
684.787 0.5504 0.5441 0.5592 0.5682 0.5751 0.5841 0.6513 0.6421 0.6217 0.5888
704.077 0.5562 0.5434 0.5689 0.5941 0.603 0.6692 0.6745 0.6361 0.6186 0.7264
723.367 0.7696 0.8302 0.8748 0.8914 1.01 1.12 1.25 1.27 1.31 1.45
742.657 1.47 1.49 1.51 1.5 1.51 1.52 1.44 1.37 1.35 1.33
761.947 1.3 1.33 1.33 1.28 1.3 1.36 1.39 1.46 1.54 1.56
781.236 1.67 1.87 2 2.09 2.26 2.36 2.45 2.74 3.05 3.19
800.526 3.35 3.56 3.82 4.05 4.11 4.21 4.51 4.76 4.88 5.11
819.816 5.43 5.68 5.88 6.03 6.07 6.11 6.11 6.07 6 5.84
839.106 5.62 5.43 5.25 5.15 5.08 4.97 4.9 4.87 4.79 4.57
858.395 4.36 4.2 4.06 3.88 3.77 3.6 3.28 3.17 3.15 3.07
877.685 3.14 3.2 3.26 3.41 3.46 3.61 3.9 4.23 4.5 4.67
896.975 4.94 5.32 5.57 5.77 5.94 6.02 6 5.94 5.95 5.95
916.265 6 6.04 5.97 5.98 6.07 6.27 6.55 6.78 6.99 7.26
935.555 7.57 7.84 8.08 8.3 8.46 8.51 8.56 8.58 8.52 8.41
954.844 8.19 7.99 7.76 7.46 7.2 7.01 6.84 6.76 6.75 6.74
974.134 6.74 6.81 6.93 7 7.03 7.07 7.18 7.23 7.18 7.14
993.424 7.13 7.11 7.11 7.02 6.9 6.83 6.73 6.63 6.49 6.41
1012.714 6.34 6.31 6.36 6.44 6.54 6.62 6.72 6.83 6.92 7.12
1032.003 7.37 7.55 7.81 8.31 8.84 9.29 9.7 10.24 10.71 11.09
1051.293 11.62 12.03 12.33 12.81 13.24 13.37 13.46 13.68 13.94 14.23
1070.583 14.47 14.6 14.83 15.09 15.35 15.6 15.83 16.21 16.49 16.77
1089.873 17.2 17.59 17.93 18.3 18.62 18.94 19.38 19.62 19.66 19.67
1109.163 19.7 19.68 19.54 19.3 18.9 18.43 17.76 16.93 16.2 15.35
1128.452 14.34 13.45 12.59 11.78 10.99 10.22 9.61 9.06 8.7 8.33
1147.742 8 7.78 7.51 7.34 7.39 7.38 7.29 7.33 7.36 7.36
1167.032 7.34 7.32 7.38 7.39 7.4 7.39 7.26 7.23 7.29 7.21
1186.322 7 6.9 6.91 6.91 7 7.13 7.11 7.18 7.3 7.28
1205.611 7.27 7.46 7.72 7.94 8.1 8.18 8.34 8.56 8.76 8.88
1224.901 9.13 9.33 9.45 9.72 9.95 10.12 10.32 10.36 10.39 10.48
1244.191 10.59 10.56 10.43 10.27 10.01 9.77 9.5 9.23 9.05 8.72
1263.481 8.36 8.05 7.73 7.46 7.17 6.88 6.61 6.45 6.28 6.05
1282.771 5.84 5.7 5.61 5.56 5.43 5.33 5.33 5.34 5.41 5.47
1302.060 5.54 5.65 5.75 5.84 5.95 6.01 6.06 6.12 6.15 6.16
1321.350 6.16 6.17 6.18 6.24 6.34 6.42 6.54 6.72 6.97 7.24
1340.640 7.57 7.93 8.34 8.77 9.22 9.68 10.13 10.64 11.17 11.69
1359.930 12.29 12.97 13.75 14.66 15.67 16.73 17.82 18.88 19.83 20.59
1379.219 21.15 21.49 21.5 21.17 20.51 19.58 18.48 17.26 15.96 14.7
1398.509 13.52 12.38 11.37 10.47 9.69 9.06 8.49 8.07 7.77 7.53
1417.799 7.4 7.38 7.44 7.61 7.83 8.11 8.49 8.91 9.36 9.8
1437.089 10.27 10.72 11.07 11.39 11.66 11.85 11.96 11.99 11.95 11.81
1456.378 11.57 11.25 10.87 10.38 9.85 9.28 8.67 8.05 7.44 6.84
1475.668 6.3 5.78 5.3 4.88 4.51 4.16 3.87 3.61 3.35 3.14
1494.958 2.96 2.82 2.72 2.61 2.48 2.39 2.35 2.27 2.17 2.1
1514.248 2.04 2 1.97 1.94 1.89 1.86 1.84 1.83 1.79 1.75
1533.538 1.71 1.69 1.72 1.72 1.68 1.64 1.61 1.61 1.6 1.58
1552.827 1.58 1.54 1.53 1.53 1.5 1.49 1.47 1.42 1.39 1.37
1572.117 1.35 1.34 1.32 1.33 1.33 1.31 1.29 1.27 1.22 1.16
1591.407 1.15 1.15 1.14 1.13 1.15 1.15 1.11 1.09 1.12 1.11
1610.697 1.1 1.11 1.11 1.13 1.11 1.07 1.09 1.11 1.12 1.17
1629.986 1.15 1.16 1.18 1.19 1.22 1.18 1.15 1.16 1.2 1.24
1649.276 1.26 1.36 1.42 1.39 1.41 1.45 1.5 1.55 1.56 1.57
1668.566 1.58 1.56 1.51 1.47 1.39 1.25 1.14 1.06 0.979 0.8634
1687.856 0.7985 0.7674 0.7511 0.7467 0.7615 0.7112 0.6542 0.6317 0.603 0.5768
1707.146 0.5628 0.555 0.5278 0.5212 0.5064 0.5018 0.5174 0.5021 0.4785 0.4888
1726.435 0.4887 0.4526 0.4452 0.4403 0.4092 0.39 0.4026 0.3997 0.4102 0.4071
1745.725 0.3757 0.3771 0.3629 0.3678 0.372 0.3691 0.3904 0.4237 0.448 0.4586
1765.015 0.4527 0.442 0.4365 0.4306 0.4208 0.4167 0.4298 0.4141 0.4101 0.4244
1784.305 0.4392 0.4238 0.3805 0.3848 0.411 0.4059 0.3951 0.4065 0.4336 0.4239
1803.594 0.3982 0.4028 0.4043 0.3869 0.3802 0.3821 0.3756 0.3788 0.3737 0.3811
1822.884 0.3751 0.3607 0.3706 0.3863 0.3876 0.3506 0.3517 0.3872 0.3964 0.4001
1842.174 0.3931 0.383 0.3967 0.4236 0.4254 0.4034 0.3943 0.3764 0.3628 0.3935
1861.464 0.4231 0.4038 0.3975 0.4071 0.3973 0.3697 0.3684 0.3674 0.3529 0.3643
1880.754 0.3632 0.3927 0.3852 0.3407 0.3754 0.3896 0.3566 0.3645 0.3841 0.3719
1900.043 0.3703 0.3624 0.3381 0.3184 0.3224 0.3278 0.3417 0.3504 0.3475 0.3631
1919.333 0.3214 0.3043 0.3455 0.3578 0.3698 0.3739 0.3439 0.3524 0.3749 0.3566
1938.623 0.3393 0.3496 0.3604 0.3671 0.3841 0.3786 0.3683 0.368 0.364 0.3564
1957.913 0.3605 0.3438 0.3353 0.3676 0.3784 0.3751 0.3784 0.3734 0.3479 0.324
1977.202 0.3236 0.3161 0.3039 0.3118 0.3119 0.2971 0.3008 0.308 0.2851 0.2863
1996.492 0.298 0.2835 0.2754 0.3061 0.2935 0.2653 0.3003 0.3232 0.2907 0.2778
2015.782 0.2989 0.2897 0.2723 0.2861 0.2893 0.2664 0.298 0.3075 0.2851 0.2863
2035.072 0.2839 0.3036 0.3261 0.2912 0.2726 0.2704 0.2646 0.3002 0.3046 0.2775
2054.362 0.2723 0.2761 0.2663 0.2666 0.2643 0.2473 0.2541 0.2586 0.2598 0.254
2073.651 0.2487 0.2772 0.2678 0.2432 0.2532 0.2631 0.2762 0.2777 0.2534 0.2437
2092.941 0.2418 0.2456 0.2541 0.2501 0.2667 0.281 0.2652 0.2562 0.2529 0.2751
2112.231 0.2803 0.2757 0.2972 0.2957 0.2948 0.2852 0.288 0.3131 0.3261 0.3183
2131.521 0.2994 0.2968 0.2949 0.2923 0.2929 0.3148 0.348 0.3503 0.3332 0.3317
2150.810 0.3492 0.3519 0.3286 0.2979 0.314 0.3325 0.3492 0.3606 0.3441 0.3528
2170.100 0.357 0.337 0.3323 0.3188 0.3174 0.315 0.2992 0.3234 0.3415 0.3422
2189.390 0.3485 0.3577 0.354 0.32 0.3046 0.3418 0.3344 0.2968 0.3234 0.3382
2208.680 0.3235 0.3224 0.3226 0.317 0.3315 0.3432 0.3112 0.285 0.2984 0.3141
2227.970 0.2942 0.3083 0.3142 0.2859 0.2942 0.3186 0.3309 0.3176 0.3213 0.3455
2247.259 0.3299 0.2895 0.2959 0.31 0.2986 0.3203 0.3363 0.3109 0.3179 0.3333
2266.549 0.3263 0.334 0.327 0.2901 0.2896 0.3154 0.3229 0.3129 0.3202 0.3585
2285.839 0.3795 0.3787 0.353 0.3274 0.3498 0.3597 0.3697 0.4077 0.3896 0.3642
2305.129 0.411 0.4138 0.4226 0.4314 0.3721 0.3586 0.3705 0.3816 0.3969 0.4193
2324.418 0.4038 0.3667 0.3732 0.3963 0.394 0.3844 0.4233 0.4596 0.4199 0.3894
2343.708 0.4155 0.4236 0.3918 0.3797 0.3733 0.3894 0.4166 0.433 0.436 0.413
2362.998 0.437 0.4521 0.4501 0.4408 0.4451 0.453 0.4612 0.4816 0.4801 0.493
2382.288 0.4968 0.4727 0.4638 0.4758 0.4864 0.4881 0.4796 0.4946 0.4977 0.5214
2401.578 0.5547 0.545 0.5523 0.5653 0.5389 0.521 0.5481 0.557 0.5457 0.5621
2420.867 0.5808 0.5528 0.5214 0.5186 0.5131 0.5336 0.5497 0.5193 0.509 0.5326
2440.157 0.5403 0.5592 0.5529 0.5411 0.5387 0.5547 0.6119 0.5831 0.5402 0.517
2459.447 0.4848 0.5267 0.5705 0.5526 0.5408 0.5293 0.5117 0.543 0.5389 0.4969
2478.737 0.4992 0.5125 0.481 0.4949 0.5176 0.5094 0.5371 0.5357 0.5182 0.5128
2498.026 0.5033 0.4792 0.4845 0.5218 0.5084 0.5078 0.5312 0.4929 0.4962 0.5217
2517.316 0.5256 0.5309 0.5232 0.5304 0.5002 0.4899 0.5451 0.569 0.5592 0.5754
2536.606 0.5779 0.5587 0.575 0.563 0.5324 0.5531 0.5869 0.5994 0.5958 0.582
2555.896 0.5857 0.5998 0.5848 0.5881 0.6088 0.589 0.6205 0.6517 0.6368 0.6559
2575.186 0.6735 0.6931 0.7099 0.7158 0.7081 0.7102 0.7499 0.7684 0.7597 0.7629
2594.475 0.7596 0.7613 0.7696 0.8235 0.8826 0.883 0.8597 0.8465 0.8758 0.9189
2613.765 0.9397 0.9224 0.9338 0.9838 1 1.04 1.08 1.07 1.07 1.07
2633.055 1.07 1.11 1.17 1.21 1.16 1.15 1.2 1.22 1.21 1.23
2652.345 1.25 1.25 1.26 1.28 1.3 1.31 1.3 1.33 1.34 1.3
2671.634 1.27 1.29 1.32 1.32 1.32 1.31 1.32 1.34 1.35 1.35
2690.924 1.33 1.36 1.4 1.41 1.4 1.37 1.39 1.44 1.45 1.47
2710.214 1.51 1.55 1.65 1.69 1.7 1.79 1.89 2.04 2.16 2.24
2729.504 2.39 2.5 2.61 2.7 2.77 2.81 2.84 2.85 2.85 2.85
2748.794 2.72 2.59 2.55 2.5 2.46 2.43 2.43 2.45 2.46 2.49
2768.083 2.43 2.38 2.46 2.52 2.54 2.59 2.64 2.67 2.74 2.84
2787.373 2.91 3.02 3.11 3.19 3.3 3.48 3.66 3.78 3.94 4.12
2806.663 4.25 4.37 4.58 4.8 5 5.24 5.56 5.83 6.11 6.51
2825.953 6.91 7.29 7.76 8.39 9.02 9.8 10.67 11.59 12.67 13.86
2845.242 15 16.22 17.69 19.21 20.8 22.54 24.26 26.03 27.75 29.31
2864.532 30.74 32.01 33.04 33.82 34.49 35.02 35.36 35.58 35.75 35.86
2883.822 36.02 36.2 36.39 36.57 36.76 37.12 37.6 38.12 38.72 39.63
2903.112 40.81 42.23 44.01 46.05 48.38 50.93 53.71 56.61 59.33 61.81
2922.401 63.88 65.41 66.42 66.91 66.73 65.85 64.22 62.02 59.46 56.68
2941.691 53.92 51.27 48.67 46.28 44.36 42.99 42.16 41.88 42.11 42.84
2960.981 44.05 45.68 47.57 49.52 51.49 53.12 54.19 54.65 54.39 53.42
2980.271 51.76 49.44 46.58 43.28 39.69 36 32.4 29.1 26.14 23.43
2999.561 21.14 19.25 17.56 16.08 14.88 13.89 12.97 12.19 11.53 10.99
3018.850 10.53 10.09 9.7 9.36 9.01 8.73 8.49 8.21 7.92 7.71
3038.140 7.44 7.18 7.02 6.85 6.63 6.42 6.14 5.94 5.82 5.65
3057.430 5.45 5.17 4.95 4.77 4.52 4.34 4.19 3.99 3.8 3.65
3076.720 3.53 3.35 3.22 3.19 3.09 2.96 2.87 2.82 2.77 2.64
3096.009 2.57 2.49 2.37 2.26 2.18 2.19 2.18 2.13 2.08 2.04
3115.299 1.95 1.88 1.82 1.7 1.62 1.57 1.56 1.49 1.41 1.41
3134.589 1.42 1.37 1.29 1.27 1.28 1.21 1.06 1.03 1.07 1.13
3153.879 1.09 0.9863 0.9469 0.936 0.9799 0.9735 0.9185 0.9045 0.8526 0.7653
3173.169 0.7696 0.8019 0.8253 0.8075 0.7486 0.7763 0.7643 0.7485 0.7499 0.7686
3192.458 0.7741 0.7301 0.7139 0.6995 0.6749 0.6905 0.7409 0.7442 0.6989 0.7142
3211.748 0.7392 0.6248 0.5406 0.5447 0.6008 0.6384 0.6153 0.5528 0.5257 0.5136
3231.038 0.55 0.5605 0.4721 0.4822 0.5094 0.5614 0.5352 0.4223 0.4032 0.4316
3250.328 0.3854 0.4072 0.4541 0.4554 0.5272 0.492 0.4283 0.4469 0.4845 0.4789
3269.617 0.4444 0.4035 0.3672 0.3728 0.4087 0.4248 0.4547 0.4624 0.4807 0.5019
3288.907 0.4464 0.4503 0.4102 0.4143 0.5191 0.4732 0.417 0.4565 0.4329 0.3619
3308.197 0.3549 0.4046 0.4851 0.4463 0.4408 0.5239 0.5147 0.494 0.4925 0.4858
3327.487 0.4394 0.4433 0.4992 0.5435 0.5146 0.4854 0.4438 0.4172 0.4513 0.4363
3346.777 0.4522 0.4988 0.4157 0.4292 0.5764 0.5625 0.517 0.5224 0.4771 0.4869
3366.066 0.5964 0.5898 0.4646 0.5016 0.5681 0.5772 0.5804 0.5938 0.6447 0.5997
3385.356 0.583 0.5776 0.4998 0.5825 0.6257 0.5484 0.5623 0.6018 0.6043 0.5925
3404.646 0.6851 0.7573 0.6602 0.6517 0.7209 0.6817 0.6654 0.7152 0.6872 0.6075
3423.936 0.599 0.6544 0.7466 0.7464 0.7191 0.7137 0.6453 0.601 0.6162 0.6863
3443.225 0.6574 0.6517 0.6979 0.6439 0.6703 0.5963 0.4862 0.5817 0.6658 0.6156
3462.515 0.628 0.6242 0.631 0.6778 0.6804 0.6372 0.5211 0.5473 0.6006 0.589
3481.805 0.5578 0.5247 0.5363 0.4868 0.459 0.5829 0.5883 0.5171 0.4671 0.4575
3501.095 0.526 0.5968 0.6219 0.546 0.5115 0.4968 0.493 0.542 0.5376 0.5345
3520.385 0.4921 0.4971 0.5585 0.5288 0.5955 0.6592 0.5471 0.5253 0.5653 0.4867
3539.674 0.4827 0.515 0.5125 0.5921 0.6309 0.562 0.5959 0.7031 0.5909 0.5526
3558.964 0.5875 0.5804 0.6968 0.7178 0.6617 0.7044 0.7582 0.7341 0.7297 0.7802
3578.254 0.8881 1.07 1.16 1.15 1.25 1.34 1.51 1.68 1.72 1.86
3597.544 2.06 2.22 2.33 2.31 2.27 2.32 2.44 2.58 2.64 2.67
3616.833 2.67 2.68 2.76 2.76 2.83 3.01 3.16 3.3 3.46 3.69
3636.123 3.9 4.06 4.31 4.66 5.05 5.37 5.6 5.88 6.05 6.17
3655.413 6.13 5.95 5.74 5.39 4.92 4.41 4 3.57 3.01 2.61
3674.703 2.39 2.09 1.85 1.64 1.49 1.39 1.3 1.16 0.9348 0.7878
3693.993 0.8115 0.8652 0.8114 0.7045 0.6655 0.665 0.6241 0.6987 0.6827 0.597
3713.282 0.6079 0.581 0.5958 0.565 0.5436 0.5746 0.5564 0.5483 0.5184 0.4876
3732.572 0.4749 0.4619 0.5198 0.5895 0.5744 0.5425 0.633 0.5884 0.5156 0.5857
3751.862 0.5602 0.4732 0.5587 0.5916 0.5359 0.5436 0.4718 0.435 0.5393 0.5969
3771.152 0.5582 0.5896 0.5704 0.4826 0.4454 0.4289 0.4444 0.5712 0.6806 0.6645
3790.441 0.5911 0.5799 0.5544 0.6077 0.6545 0.6562 0.675 0.6533 0.6226 0.5505
3809.731 0.5827 0.6969 0.6915 0.7005 0.7368 0.6991 0.7089 0.702 0.6959 0.6998
3829.021 0.7154 0.7288 0.7073 0.6951 0.7318 0.7595 0.6918 0.721 0.7765 0.7822
3848.311 0.7711 0.7196 0.7345 0.7085 0.7204 0.7233 0.6623 0.7219 0.7621 0.7038
3867.601 0.6378 0.6257 0.6252 0.6556 0.7189 0.6829 0.6195 0.6129 0.6735 0.7185
3886.890 0.6947 0.6858 0.6031 0.4881 0.516 0.6031 0.6483 0.6522 0.611 0.5578
3906.180 0.4916 0.5468 0.6223 0.5975 0.5162 0.4939 0.5765 0.5961 0.5771 0.5741
3925.470 0.5701 0.5285 0.4895 0.5935 0.5873 0.3946 0.4519 0.5628 0.5245 0.5081
3944.760 0.5295 0.4772 0.4498 0.3976 0.3128 0.4236 0.5489 0.5725 0.4984 0.4229
3964.049 0.5562 0.7084 0.6215 0.5084 0.4909 0.4846 0.4736 0.4562 0.5053 0.547
3983.339 0.5292 0.5098 0.5003 0.5384 0.5089 0.5169 0.5914 0.6261 0.6136 0.4614
##END=
