##TITLE=Methyl cyclopentanecarboxylate
##JCAMP-DX=4.24
##DATA TYPE=INFRARED SPECTRUM
##ORIGIN=EPA-IR VAPOR PHASE LIBRARY
##OWNER=SRD/NIST
Collection (C) 2018 copyright by the U.S. Secretary of Commerce
on behalf of the United States of America. All rights reserved.
##CAS REGISTRY NO=4630-80-2
##MOLFORM=C 7 H 12 O 2
##$NIST SOURCE=MSDC-IR
##STATE=gas
##XUNITS=1/CM
##YUNITS=ABSORBANCE
##XFACTOR=1.
##YFACTOR=0.001
##DELTAX=1.929
##FIRSTX=549.8
##LASTX=4000.8
##FIRSTY=0.731
##MAXX=4000.75
##MINX=549.766
##MAXY=0.084206
##MINY=0
##NPOINTS=1790
##XYDATA=(X++(Y..Y))
549.766 0.731 0.772 1.0163 1.0404 0.7909 0.677 0.881585 0.93857 0.7839 0.8092
569.056 0.93379 1.0901 1.074 0.86846 0.89597 1.0215 0.8624 0.8497 0.8647 0.7929
588.346 0.8301 0.747 0.8235 0.9478 0.87471 0.721 0.8005 0.765 0.755 0.883244
607.636 0.96553 0.9991 0.8592 0.7851 0.92785 0.9934 0.90559 0.94859 1.0057 0.9819
626.926 0.90407 0.95877 1.1133 1.1737 1.0678 1.1251 1.3079 1.2414 1.2 1.2235
646.216 1.2942 1.2863 1.312 1.4543 1.4422 1.4352 1.46 1.3502 1.2649 1.3858
665.506 1.4623 1.445 1.3906 1.367 1.3932 1.4448 1.4382 1.4791 1.487 1.3994
684.796 1.4117 1.3579 1.3864 1.4474 1.4171 1.3861 1.3871 1.388 1.4314 1.5035
704.086 1.4827 1.5013 1.4236 1.2724 1.202 1.2114 1.2678 1.2863 1.2789 1.3278
723.376 1.4533 1.4757 1.4788 1.5257 1.4901 1.5575 1.7068 1.7523 1.946 2.106
742.666 2.066 2.156 2.336 2.476 2.536 2.616 2.686 2.776 3.026 3.116
761.956 3.016 3.076 3.036 2.986 3.016 3.116 3.056 2.926 2.896 2.916
781.246 2.956 2.926 2.866 2.786 2.766 2.706 2.676 2.726 2.716 2.636
800.536 2.636 2.656 2.746 2.736 2.716 2.836 2.796 2.726 2.856 2.996
819.826 3.006 3.056 3.116 3.136 3.176 3.196 3.266 3.236 3.186 3.206
839.116 3.246 3.226 3.206 3.126 3.006 2.856 2.786 2.726 2.596 2.556
858.406 2.536 2.406 2.376 2.396 2.326 2.326 2.426 2.556 2.636 2.746
877.696 2.826 2.966 3.056 3.186 3.406 3.676 3.956 4.076 4.206 4.366
896.986 4.536 4.696 4.836 4.886 4.896 4.956 4.936 4.816 4.736 4.656
916.276 4.616 4.546 4.366 4.156 3.886 3.666 3.486 3.276 3.146 2.946
935.566 2.676 2.536 2.486 2.366 2.236 2.196 2.206 2.226 2.116 2.056
954.856 2.006 1.886 1.8419 1.8454 1.7849 1.7374 1.7208 1.7796 1.8563 1.886
974.146 1.926 1.926 2.016 2.196 2.366 2.526 2.756 3.126 3.546 4.036
993.436 4.666 5.396 6.276 7.226 8.106 8.866 9.546 10.196 10.586 10.766
1012.726 10.846 10.816 10.696 10.406 10.046 9.816 9.666 9.566 9.666 9.976
1032.016 10.336 10.696 10.986 11.256 11.476 11.496 11.396 11.256 10.956 10.486
1051.306 9.906 9.246 8.646 8.196 7.886 7.616 7.386 7.316 7.376 7.476
1070.596 7.576 7.726 8.016 8.216 8.316 8.506 8.726 8.916 9.126 9.176
1089.886 9.256 9.426 9.546 9.626 9.726 9.926 10.146 10.496 10.856 11.136
1109.176 11.566 12.146 12.816 13.516 14.306 15.276 16.346 17.456 18.726 20.076
1128.467 21.496 23.116 24.866 26.916 29.206 31.586 34.336 37.416 40.656 44.116
1147.757 47.736 51.496 55.606 59.756 63.716 67.566 71.096 74.106 76.596 78.536
1167.047 79.826 80.416 80.496 80.146 79.326 78.276 77.126 75.996 74.936 74.096
1186.337 73.416 72.606 71.756 70.756 69.336 67.486 65.476 63.236 60.516 57.476
1205.627 54.216 50.706 47.016 43.416 40.236 37.506 35.156 33.186 31.556 30.266
1224.917 29.216 28.406 27.796 27.366 27.076 26.876 26.826 26.816 26.886 26.996
1244.207 27.086 27.336 27.606 27.696 27.666 27.536 27.296 26.946 26.416 25.746
1263.497 24.926 23.836 22.616 21.496 20.286 18.986 17.846 16.746 15.666 14.776
1282.787 14.056 13.486 13.026 12.696 12.446 12.306 12.336 12.396 12.486 12.676
1302.077 12.866 12.996 13.076 13.176 13.146 12.946 12.706 12.376 11.986 11.626
1321.367 11.286 10.806 10.346 9.946 9.576 9.426 9.456 9.596 9.826 10.216
1340.657 10.786 11.446 12.106 12.836 13.626 14.446 15.186 15.756 16.236 16.506
1359.947 16.516 16.326 15.996 15.526 14.916 14.186 13.286 12.316 11.366 10.396
1379.237 9.456 8.716 8.026 7.406 6.876 6.446 6.096 5.766 5.526 5.306
1398.527 5.116 4.956 4.826 4.776 4.796 4.806 4.806 4.806 4.976 5.246
1417.817 5.576 6.026 6.666 7.666 8.966 10.506 12.176 13.726 14.976 15.926
1437.107 16.856 17.446 17.696 17.966 17.716 16.536 14.896 13.386 12.216 11.426
1456.397 10.896 10.556 10.296 10.026 9.726 9.406 9.026 8.666 8.266 7.816
1475.687 7.456 7.106 6.716 6.336 6.016 5.686 5.356 5.056 4.786 4.516
1494.977 4.266 4.086 3.846 3.656 3.496 3.396 3.336 3.166 3.036 2.916
1514.267 2.806 2.776 2.726 2.656 2.586 2.506 2.406 2.326 2.306 2.266
1533.557 2.256 2.276 2.316 2.326 2.216 2.136 2.146 2.156 2.086 2.046
1552.847 2.076 2.036 2.016 2.026 2.006 1.976 1.896 1.8727 1.926 1.926
1572.137 1.916 1.906 1.852 1.7874 1.7921 1.7888 1.7499 1.683 1.6858 1.7353
1591.427 1.7312 1.7324 1.6947 1.6177 1.5819 1.6112 1.5737 1.5335 1.5416 1.4982
1610.717 1.4807 1.4793 1.4877 1.4267 1.3584 1.362 1.3674 1.3653 1.3504 1.3289
1630.007 1.3165 1.3543 1.3599 1.3294 1.3082 1.3243 1.3071 1.3222 1.3762 1.4014
1649.297 1.4519 1.4782 1.4808 1.4107 1.4378 1.5231 1.5108 1.5172 1.5502 1.5831
1668.587 1.6555 1.736 1.7941 1.8639 2.016 2.116 2.196 2.306 2.476 2.676
1687.877 2.856 3.056 3.306 3.656 4.096 4.506 5.006 5.606 6.166 6.896
1707.167 7.746 8.756 9.886 11.126 12.556 14.236 16.206 18.266 20.676 23.446
1726.457 26.576 30.086 34.066 38.406 43.456 48.716 53.926 59.506 64.776 69.696
1745.747 74.036 77.916 81.006 83.216 84.206 83.636 81.556 78.426 74.126 68.836
1765.037 63.026 56.716 50.246 44.216 38.306 32.976 28.186 23.936 20.266 17.146
1784.327 14.516 12.276 10.446 8.886 7.636 6.596 5.656 4.936 4.376 3.886
1803.617 3.536 3.206 2.936 2.686 2.476 2.356 2.226 2.076 1.996 1.916
1822.907 1.8117 1.7351 1.6957 1.639 1.5785 1.5456 1.5084 1.4156 1.3407 1.3484
1842.197 1.3376 1.2917 1.2313 1.2065 1.2119 1.154 1.1114 1.1064 1.0729 1.071
1861.487 1.0269 0.987 1.0294 1.0364 1.0352 1.0136 1.0256 1.0326 0.9856 0.92119
1880.777 0.8996 0.90996 0.885639 0.89077 0.90292 0.91421 0.93393 0.95112 0.9559 0.94642
1900.067 0.9546 0.96431 0.96547 1.0124 1.0454 1.0319 1.0278 1.0519 1.0787 1.0904
1919.357 1.0942 1.0694 1.0641 1.0734 1.1104 1.1396 1.1084 1.1064 1.1123 1.0757
1938.647 1.0625 1.0789 1.0739 1.0552 1.0159 0.9946 1.0207 1.036 1.038 1.0421
1957.937 1.0569 1.0524 1.0158 0.999 1.0079 1.0278 1.0513 1.0774 1.0906 1.0795
1977.227 1.0676 1.0453 1.0679 1.1265 1.163 1.1997 1.2301 1.2343 1.2317 1.2427
1996.517 1.271 1.3275 1.3692 1.3769 1.3643 1.3907 1.409 1.4081 1.3794 1.3519
2015.807 1.415 1.407 1.3799 1.3699 1.3502 1.3533 1.3179 1.3087 1.3249 1.3657
2035.097 1.4091 1.3955 1.3722 1.3834 1.4137 1.3915 1.389 1.3843 1.3673 1.3913
2054.387 1.373 1.3886 1.4103 1.3482 1.3156 1.3206 1.3482 1.3129 1.2662 1.3099
2073.677 1.3216 1.2917 1.2384 1.2365 1.2557 1.2152 1.1837 1.1918 1.2073 1.1867
2092.967 1.1602 1.1487 1.1351 1.0936 1.061 1.0612 1.0399 1.0335 1.0274 1.06
2112.257 1.1017 1.0662 0.9775 0.91011 0.91283 0.89089 0.876091 0.879111 0.882366 0.90173
2131.547 0.89796 0.877508 0.8572 0.8138 0.7823 0.8278 0.877339 0.8617 0.8279 0.8248
2150.837 0.8158 0.8208 0.8344 0.8109 0.7806 0.8101 0.7962 0.765 0.7782 0.7806
2170.127 0.7846 0.7874 0.7795 0.753 0.748 0.749 0.706 0.698 0.734 0.753
2189.417 0.736 0.7 0.696 0.715 0.715 0.698 0.681 0.695 0.693 0.683
2208.707 0.683 0.691 0.659 0.603 0.614 0.638 0.626 0.568 0.577 0.62
2227.997 0.615 0.609 0.62 0.606 0.589 0.576 0.552 0.605 0.677 0.649
2247.287 0.632 0.664 0.637 0.638 0.657 0.621 0.615 0.642 0.675 0.71
2266.577 0.682 0.646 0.627 0.631 0.685 0.644 0.599 0.613 0.608 0.565
2285.868 0.584 0.626 0.632 0.648 0.658 0.643 0.657 0.683 0.65 0.612
2305.158 0.597 0.662 0.662 0.623 0.644 0.661 0.657 0.657 0.706 0.718
2324.448 0.707 0.689 0.676 0.737 0.793 0.826 0.858 0.878166 0.91917 0.89142
2343.738 0.8335 0.8647 0.86835 0.8684 0.90693 0.89813 0.8558 0.8318 0.8271 0.8441
2363.028 0.8153 0.753 0.743 0.735 0.707 0.696 0.691 0.663 0.663 0.663
2382.318 0.683 0.744 0.685 0.616 0.606 0.587 0.608 0.655 0.701 0.646
2401.608 0.602 0.669 0.641 0.605 0.605 0.577 0.57 0.542 0.494 0.435
2420.898 0.446 0.502 0.477 0.419 0.419 0.422 0.425 0.463 0.481 0.47
2440.188 0.453 0.462 0.447 0.431 0.44 0.451 0.46 0.456 0.416 0.436
2459.478 0.456 0.397 0.399 0.428 0.49 0.541 0.511 0.492 0.45 0.41
2478.768 0.444 0.473 0.482 0.473 0.483 0.509 0.5 0.471 0.504 0.518
2498.058 0.499 0.552 0.534 0.483 0.478 0.431 0.426 0.468 0.514 0.494
2517.348 0.453 0.47 0.489 0.47 0.457 0.445 0.441 0.489 0.481 0.43
2536.638 0.422 0.425 0.495 0.523 0.497 0.493 0.428 0.433 0.52 0.56
2555.928 0.524 0.437 0.456 0.555 0.582 0.572 0.562 0.533 0.483 0.488
2575.218 0.591 0.619 0.613 0.679 0.656 0.627 0.653 0.657 0.629 0.589
2594.508 0.603 0.669 0.642 0.63 0.678 0.669 0.625 0.607 0.607 0.56
2613.798 0.529 0.571 0.555 0.552 0.558 0.54 0.589 0.595 0.567 0.566
2633.088 0.589 0.567 0.549 0.517 0.475 0.497 0.557 0.578 0.571 0.618
2652.378 0.628 0.543 0.511 0.559 0.547 0.527 0.567 0.557 0.529 0.504
2671.668 0.516 0.535 0.49 0.453 0.434 0.452 0.48 0.439 0.481 0.508
2690.958 0.471 0.495 0.501 0.453 0.415 0.423 0.474 0.497 0.491 0.556
2710.248 0.546 0.57 0.606 0.549 0.553 0.586 0.631 0.648 0.573 0.534
2729.538 0.607 0.653 0.639 0.664 0.712 0.702 0.659 0.628 0.685 0.721
2748.828 0.718 0.768 0.77 0.706 0.658 0.706 0.7962 0.883783 0.92068 0.91217
2768.118 0.91022 0.93097 0.983 0.90487 0.8469 0.93007 0.92455 0.89481 0.97489 1.1256
2787.408 1.1786 1.1312 1.1781 1.1907 1.2296 1.2885 1.3121 1.3421 1.4008 1.4042
2806.698 1.4076 1.5566 1.6288 1.6317 1.7634 1.966 2.106 2.256 2.336 2.496
2825.988 2.776 3.066 3.386 3.636 3.986 4.496 5.036 5.626 6.136 6.506
2845.278 6.866 7.276 7.716 8.146 8.586 8.986 9.396 9.906 10.406 11.126
2864.568 12.196 13.396 14.826 16.426 17.996 19.416 20.556 21.446 22.096 22.566
2883.858 22.826 22.896 22.686 22.186 21.476 20.596 19.836 19.136 18.556 18.316
2903.148 18.236 18.306 18.636 19.046 19.536 20.266 21.026 21.836 22.716 23.676
2922.438 24.746 25.856 26.916 28.086 29.466 30.876 32.326 34.066 36.066 38.236
2941.728 40.926 44.056 47.716 51.976 56.486 61.036 65.126 68.366 71.066 73.526
2961.018 75.336 76.296 76.646 76.046 73.976 70.696 66.816 62.676 58.406 54.086
2980.308 49.786 45.606 41.556 37.696 34.066 30.736 27.776 25.106 22.846 20.846
2999.598 19.106 17.616 16.286 15.206 14.176 13.216 12.406 11.596 10.926 10.406
3018.888 9.846 9.236 8.726 8.326 7.856 7.336 6.966 6.666 6.216 5.806
3038.178 5.526 5.246 4.836 4.506 4.166 3.826 3.536 3.326 3.236 3.056
3057.468 2.926 2.836 2.636 2.536 2.466 2.376 2.286 2.126 1.986 2.026
3076.758 2.126 2.066 1.956 1.906 1.906 1.916 1.916 1.906 1.8653 1.8231
3096.048 1.7509 1.6612 1.6941 1.7165 1.6337 1.5126 1.5255 1.5165 1.4169 1.3023
3115.338 1.2429 1.2617 1.17 1.049 1.0774 1.1258 1.0587 1.0652 1.0869 1.0381
3134.628 0.9784 0.92096 0.859 0.90793 0.92326 0.86631 0.8345 0.7827 0.717 0.662
3153.918 0.643 0.666 0.608 0.548 0.603 0.554 0.581 0.59 0.54 0.541
3173.208 0.579 0.608 0.58 0.538 0.451 0.43 0.433 0.411 0.406 0.414
3192.498 0.411 0.469 0.449 0.451 0.553 0.468 0.436 0.469 0.382 0.392
3211.788 0.418 0.372 0.337 0.299 0.334 0.388 0.332 0.315 0.31 0.322
3231.078 0.352 0.346 0.269 0.224 0.34 0.383 0.343 0.31 0.278 0.34
3250.368 0.369 0.257 0.146 0.096 0.16 0.241 0.258 0.346 0.326 0.283
3269.658 0.266 0.242 0.303 0.268 0.26 0.206 0.113 0.066 0.145 0.264
3288.948 0.252 0.172 0.203 0.269 0.222 0.148 0.031 0.042 0.165 0.156
3308.238 0.121 0.17 0.185 0.174 0.174 0.199 0.242 0.211 0.154 0.133
3327.528 0.139 0.155 0.171 0.163 0.163 0.225 0.243 0.26 0.247 0.219
3346.818 0.173 0.095 0.118 0.146 0.061 0.066 0.148 0.132 0.142 0.185
3366.108 0.22 0.193 0.103 0.126 0.101 0.186 0.219 0.058 0.17 0.273
3385.398 0.27 0.157 0.081 0.073 0.143 0.274 0.276 0.276 0.235 0.233
3404.688 0.275 0.245 0.172 0.061 0.051 0.12 0.11 0.175 0.214 0.153
3423.978 0.126 0.178 0.233 0.263 0.365 0.417 0.281 0.179 0.123 0.249
3443.269 0.41 0.377 0.361 0.417 0.469 0.376 0.43 0.532 0.48 0.471
3462.559 0.521 0.585 0.696 0.751 0.712 0.758 0.94666 1.0214 1.0036 0.96938
3481.849 0.96282 1.1441 1.2023 1.1259 1.1294 1.093 0.96446 0.882468 0.8601 0.8168
3501.139 0.8396 0.8335 0.8153 0.747 0.592 0.502 0.483 0.446 0.355 0.349
3520.429 0.312 0.288 0.384 0.369 0.358 0.382 0.356 0.297 0.221 0.178
3539.719 0.158 0.272 0.375 0.351 0.239 0.247 0.26 0.223 0.268 0.303
3559.009 0.299 0.259 0.246 0.264 0.224 0.186 0.197 0.175 0.312 0.256
3578.299 0.168 0.188 0.182 0.28 0.215 0.114 0.161 0.235 0.242 0.218
3597.589 0.215 0.252 0.242 0.216 0.222 0.195 0.17 0.192 0.187 0.117
3616.879 0.133 0.084 0.153 0.244 0.087 0.073 0.059 0.155 0.278 0.199
3636.169 0.228 0.232 0.181 0.211 0.302 0.27 0.167 0.143 0.155 0.244
3655.459 0.235 0.151 0.126 0.18 0.231 0.133 0.074 0.168 0.233 0.187
3674.749 0.122 0.161 0.217 0.125 0.033 0.15 0.173 0.092 0.157 0.195
3694.039 0.167 0.13 0 0.071 0.15 0.065 0.132 0.225 0.262 0.203
3713.329 0.187 0.226 0.242 0.232 0.249 0.222 0.202 0.27 0.228 0.179
3732.619 0.187 0.288 0.361 0.257 0.236 0.321 0.352 0.263 0.187 0.178
3751.909 0.164 0.233 0.318 0.233 0.167 0.246 0.208 0.224 0.222 0.187
3771.199 0.283 0.261 0.205 0.164 0.184 0.205 0.242 0.359 0.346 0.348
3790.489 0.283 0.262 0.367 0.357 0.386 0.383 0.329 0.3 0.269 0.324
3809.779 0.422 0.438 0.484 0.445 0.352 0.43 0.396 0.294 0.157 0.126
3829.069 0.303 0.427 0.382 0.285 0.286 0.141 0.152 0.193 0.18 0.34
3848.359 0.245 0.147 0.145 0.248 0.296 0.263 0.3 0.291 0.35 0.316
3867.649 0.343 0.351 0.442 0.469 0.245 0.332 0.441 0.298 0.318 0.392
3886.939 0.357 0.292 0.203 0.216 0.289 0.298 0.277 0.167 0.004 0.002
3906.229 0.08 0.162 0.154 0.231 0.35 0.296 0.273 0.203 0.153 0.232
3925.519 0.203 0.122 0.14 0.297 0.39 0.346 0.252 0.145 0.106 0.103
3944.809 0.159 0.25 0.3 0.316 0.338 0.267 0.254 0.297 0.347 0.368
3964.099 0.418 0.435 0.308 0.272 0.274 0.283 0.34 0.235 0.125 0.112
3983.389 0.21 0.342 0.256 0.224 0.216 0.262 0.375 0.321 0.217 0.255
##END=
