##TITLE=Bornylchloride
##JCAMP-DX=4.24
##DATA TYPE=INFRARED SPECTRUM
##ORIGIN=NIST Mass Spectrometry Data Center
##OWNER=NIST Standard Reference Data Program
Collection (C) 2018 copyright by the U.S. Secretary of Commerce
on behalf of the United States of America. All rights reserved.
##CAS REGISTRY NO=464-41-5
##MOLFORM=C 10 H 17 Cl
##$NIST SOURCE=MSDC-IR
##SPECTROMETER/DATA SYSTEM=HP-GC/MS/IRD
##STATE=gas
##XUNITS=1/CM
##YUNITS=ABSORBANCE
##XFACTOR=1.0
##YFACTOR=0.000001900
##DELTAX=4.0
##FIRSTX=550.0
##LASTX=3846.0
##FIRSTY=0.000279
##MAXX=3846
##MINX=550
##MAXY=0.019
##MINY=0
##NPOINTS=825
##XYDATA=(X++(Y..Y))
550.0 147 56 50 68 78 137 147 125 74 61
590.0 100 107 91 86 55 29 22 25 17 0
630.0 37 82 89 63 61 78 73 49 14 38
670.0 96 122 143 213 337 503 746 920 984 944
710.0 772 548 345 221 136 105 105 106 84 80
750.0 95 84 75 93 123 151 204 365 642 921
790.0 1107 1119 1025 785 451 260 206 165 140 163
830.0 168 166 190 184 235 376 478 531 539 456
870.0 322 192 118 99 124 184 273 409 568 677
910.0 734 788 822 844 908 959 964 968 934 837
950.0 680 496 346 236 181 142 121 151 176 182
990.0 187 174 145 131 113 61 77 84 67 88
1030.0 113 110 81 67 44 35 38 37 41 37
1070.0 63 99 102 96 103 133 201 280 343 367
1110.0 362 312 232 207 191 203 223 195 199 196
1150.0 149 102 84 94 105 103 106 125 150 215
1190.0 287 299 288 242 198 176 159 163 166 142
1230.0 119 129 126 117 134 178 239 307 388 456
1270.0 521 592 612 592 530 449 410 435 507 561
1310.0 556 474 359 263 205 179 163 147 137 146
1350.0 165 217 292 415 569 765 962 1097 1230 1286
1390.0 1266 1178 986 750 488 270 185 178 184 200
1430.0 241 304 403 560 765 1008 1242 1445 1555 1531
1470.0 1468 1381 1228 1081 932 735 557 406 284 218
1510.0 169 140 130 115 108 101 77 68 82 70
1550.0 60 61 72 82 66 50 58 60 40 38
1590.0 50 53 55 39 34 43 56 65 61 47
1630.0 39 47 51 56 60 73 75 47 35 42
1670.0 34 27 31 36 31 34 41 44 35 30
1710.0 27 11 14 26 23 9 0 8 22 22
1750.0 14 17 11 4 18 31 22 18 20 14
1790.0 10 6 12 10 7 13 13 12 21 18
1830.0 7 5 9 17 17 19 23 17 19 23
1870.0 34 26 9 12 19 11 6 1 5 12
1910.0 1 4 8 21 15 0 20 38 31 15
1950.0 3 5 14 18 26 29 29 20 15 11
1990.0 12 10 10 16 5 9 20 17 21 13
2030.0 7 21 19 20 25 17 13 14 10 10
2070.0 18 18 18 26 22 7 0 2 7 16
2110.0 16 16 17 26 30 18 16 19 22 13
2150.0 7 11 6 11 24 33 33 14 5 18
2190.0 20 12 10 12 17 24 18 7 15 20
2230.0 11 9 13 13 20 16 6 27 40 30
2270.0 31 33 31 30 34 33 32 39 40 27
2310.0 20 27 23 23 29 31 29 33 33 20
2350.0 16 16 27 43 46 43 26 27 30 20
2390.0 26 34 37 33 25 25 28 31 26 24
2430.0 27 25 26 26 13 14 25 30 38 33
2470.0 24 28 35 32 16 10 20 26 34 31
2510.0 29 34 34 29 20 25 40 28 1 7
2550.0 25 31 31 28 43 49 48 41 22 12
2590.0 13 23 38 35 22 40 35 15 24 32
2630.0 43 46 29 24 30 33 26 22 16 18
2670.0 20 20 28 33 39 44 45 53 62 57
2710.0 52 44 65 85 83 100 122 137 135 117
2750.0 115 93 84 123 132 106 127 161 151 135
2790.0 132 122 128 145 150 151 167 190 220 240
2830.0 257 287 314 331 356 411 496 637 829 1120
2870.0 1521 2012 2563 3081 3482 3718 3728 3567 3346 3144
2910.0 3008 3019 3194 3498 3934 4534 5315 6182 7156 8102
2950.0 8826 9406 9893 10000 9674 9140 8310 7389 6390 5446
2990.0 4570 3724 3030 2361 1727 1223 848 605 477 397
3030.0 350 312 296 301 297 280 254 253 261 258
3070.0 254 241 226 220 222 230 223 203 198 176
3110.0 173 172 150 152 159 183 193 162 143 147
3150.0 148 144 147 149 125 105 85 72 82 79
3190.0 73 76 64 54 50 61 89 82 42 36
3230.0 38 55 76 63 47 25 34 53 52 42
3270.0 32 46 50 28 34 44 56 83 82 71
3310.0 51 15 0 25 39 26 24 22 40 48
3350.0 47 58 61 67 73 62 64 58 38 34
3390.0 28 22 32 38 43 45 40 36 43 76
3430.0 77 69 61 58 82 55 45 75 40 14
3470.0 40 71 70 69 78 57 53 58 68 76
3510.0 76 76 60 42 45 58 56 51 55 74
3550.0 82 68 65 59 65 49 39 60 63 50
3590.0 69 81 71 78 84 73 51 63 69 62
3630.0 62 84 98 68 72 93 76 59 66 81
3670.0 85 86 84 86 103 84 75 104 113 113
3710.0 107 89 84 72 65 76 81 93 93 75
3750.0 111 101 63 77 81 74 86 99 80 67
3790.0 91 103 120 115 72 72 93 98 125 113
3830.0 99 119 100 88 83
##END=
