##TITLE=2,2,3-Trimethylbutane
##JCAMP-DX=4.24
##DATA TYPE=INFRARED SPECTRUM
##ORIGIN=NIST Mass Spectrometry Data Center
##OWNER=NIST Standard Reference Data Program
Collection (C) 2018 copyright by the U.S. Secretary of Commerce
on behalf of the United States of America. All rights reserved.
##CAS REGISTRY NO=464-06-2
##MOLFORM=C 7 H 16
##$NIST SOURCE=MSDC-IR
##SPECTROMETER/DATA SYSTEM=HP-GC/MS/IRD
##STATE=gas
##XUNITS=1/CM
##YUNITS=ABSORBANCE
##XFACTOR=1.0
##YFACTOR=0.000006600
##DELTAX=4.0
##FIRSTX=550.0
##LASTX=3846.0
##FIRSTY=0.000211
##MAXX=3846
##MINX=550
##MAXY=0.066
##MINY=0
##NPOINTS=825
##XYDATA=(X++(Y..Y))
550.0 32 22 7 20 31 19 16 22 23 10
590.0 9 19 28 20 21 19 22 33 36 39
630.0 32 30 35 27 23 33 35 33 35 33
670.0 26 27 38 30 27 34 38 35 25 28
710.0 33 24 20 25 27 29 23 20 23 24
750.0 23 17 13 15 18 20 17 14 17 24
790.0 31 25 22 32 39 42 53 55 55 66
830.0 61 50 47 46 39 33 30 24 26 30
870.0 31 30 28 31 40 37 37 46 52 57
910.0 65 70 71 75 72 64 65 63 53 48
950.0 45 46 50 51 53 52 53 55 59 67
990.0 73 84 92 92 91 91 89 86 77 70
1030.0 63 60 59 57 60 60 67 83 98 125
1070.0 158 192 236 284 313 325 333 322 290 248
1110.0 205 173 142 115 106 117 149 197 246 287
1150.0 314 333 339 320 285 240 207 179 166 186
1190.0 226 272 321 369 404 415 395 348 276 205
1230.0 162 134 122 117 106 95 84 77 64 56
1270.0 51 50 51 52 53 56 57 56 61 69
1310.0 77 88 97 102 109 119 135 159 204 283
1350.0 409 563 737 951 1278 1536 1595 1609 1662 1595
1390.0 1302 1055 844 615 420 306 264 239 223 229
1430.0 254 297 356 436 537 655 774 900 1042 1158
1470.0 1169 1132 1071 940 803 669 526 394 289 211
1510.0 155 126 106 92 85 78 69 63 60 59
1550.0 56 50 46 45 43 43 41 34 37 37
1590.0 36 34 33 33 33 31 30 31 30 30
1630.0 31 33 34 31 28 30 32 31 31 31
1670.0 30 30 31 28 24 26 26 24 23 25
1710.0 23 19 18 20 20 21 20 21 20 19
1750.0 21 22 22 21 19 18 16 15 15 18
1790.0 19 14 15 14 13 15 15 15 19 17
1830.0 16 19 19 17 17 17 15 14 14 13
1870.0 12 13 12 15 17 18 17 18 17 16
1910.0 19 18 16 18 17 13 13 15 12 12
1950.0 14 13 10 8 12 12 11 11 11 8
1990.0 6 7 7 10 12 9 10 11 12 11
2030.0 9 10 12 12 13 16 15 14 15 13
2070.0 11 11 9 8 7 4 1 1 1 2
2110.0 2 0 1 4 5 4 2 1 4 8
2150.0 9 7 5 3 4 6 7 9 8 6
2190.0 10 12 9 8 10 7 8 10 7 6
2230.0 11 12 10 8 6 6 9 9 11 10
2270.0 12 17 18 17 19 20 19 20 17 12
2310.0 11 13 11 8 12 14 12 15 14 16
2350.0 19 18 15 14 15 18 24 27 24 23
2390.0 25 25 24 25 30 33 31 27 24 24
2430.0 23 23 20 19 19 19 19 21 21 21
2470.0 23 24 22 20 20 19 18 20 23 22
2510.0 23 24 22 24 23 21 19 22 25 27
2550.0 29 31 35 36 37 40 41 42 43 48
2590.0 52 59 70 78 81 86 97 98 88 80
2630.0 76 73 72 70 62 61 57 57 58 62
2670.0 67 70 71 70 73 82 84 85 92 99
2710.0 108 117 126 133 141 151 153 148 146 146
2750.0 143 141 141 143 148 160 169 175 179 188
2790.0 197 206 214 223 238 248 259 275 290 317
2830.0 354 390 440 514 619 779 1013 1328 1706 2118
2870.0 2566 3095 3506 3604 3598 3562 3460 3337 3220 3129
2910.0 3086 3115 3213 3375 3596 3886 4257 4729 5328 6051
2950.0 6865 7692 8554 9520 10000 9753 9329 8488 7145 5656
2990.0 4276 3168 2288 1607 1129 818 628 517 447 398
3030.0 363 340 321 300 285 272 256 240 226 206
3070.0 194 184 175 164 157 157 155 157 156 151
3110.0 150 150 148 146 153 159 161 162 159 162
3150.0 162 160 162 160 160 161 162 167 161 153
3190.0 150 146 146 141 131 128 119 111 111 103
3230.0 95 94 87 79 70 63 63 61 58 53
3270.0 51 47 38 37 40 36 32 37 39 37
3310.0 42 45 44 44 46 44 44 40 44 50
3350.0 47 45 41 38 39 41 39 36 37 36
3390.0 33 34 41 44 41 39 34 29 33 34
3430.0 30 25 25 26 27 29 25 25 22 17
3470.0 15 16 19 21 29 30 25 22 20 19
3510.0 14 12 13 13 19 22 16 11 13 10
3550.0 13 19 13 17 19 12 7 6 9 13
3590.0 18 14 12 13 14 16 17 20 17 20
3630.0 24 22 19 17 16 16 19 19 21 17
3670.0 9 10 19 24 17 11 19 29 27 24
3710.0 21 22 30 35 33 23 18 23 24 20
3750.0 18 23 26 29 23 27 33 35 34 30
3790.0 36 39 39 37 36 37 35 39 42 39
3830.0 36 34 34 38 34
##END=
