##TITLE=3,4-Dichlorobenzoylacetonitrile
##JCAMP-DX=4.24
##DATA TYPE=INFRARED SPECTRUM
##ORIGIN=EPA-IR VAPOR PHASE LIBRARY
##OWNER=SRD/NIST
Collection (C) 2018 copyright by the U.S. Secretary of Commerce
on behalf of the United States of America. All rights reserved.
##CAS REGISTRY NO=4640-68-0
##MOLFORM=C 9 H 5 Cl 2 N O
##$NIST SOURCE=MSDC-IR
##STATE=gas
##XUNITS=1/CM
##YUNITS=ABSORBANCE
##XFACTOR=1.
##YFACTOR=0.001
##DELTAX=1.92898
##FIRSTX=549.8
##LASTX=4000.7
##FIRSTY=2.99
##MAXX=4000.7
##MINX=549.759
##MAXY=0.02026
##MINY=0
##NPOINTS=1790
##XYDATA=(X++(Y..Y))
549.759 2.99 2.69 2.62 2.35 2.8 2.89 2.3179 2.65 2.82 3.21
569.049 3.44 2.63 2.5 2.68 2.41 2.0815 2.38 2.8 2.65 2.38
588.339 2.2354 2.6 3.07 2.3438 2.96 4.33 3.44 2.37 2.1266 2.47
607.628 2.46 2.0057 1.9964 2.1063 1.9701 1.9647 2.54 2.2819 1.8358 2.5
626.918 2.61 2.2522 2.1728 1.8867 1.6857 1.695 1.8165 1.9168 1.736 2.2533
646.208 2.3484 1.8192 1.9941 2.1755 2.1404 1.5218 1.6528 2.51 2.57 2.46
665.498 2.38 2.44 2.94 3.35 4.03 4.79 5.81 6 4.68 3.68
684.787 3.73 3.42 3.05 3.14 2.85 2.45 2.86 3.07 3.07 3.08
704.077 2.65 2.67 2.67 2.69 2.7 2.92 3.15 3.05 2.9 2.89
723.367 2.95 3.29 3.64 3.54 3.5 3.67 3.63 2.98 3.07 3.25
742.657 2.95 3.05 3.3 3.06 2.69 2.86 3 2.61 2.49 2.76
761.947 2.69 3.13 3.58 3 2.3416 2.1443 2.1847 2.3467 2.7 2.48
781.236 2.43 3.11 3.15 3.03 3.01 2.78 2.3274 3 3.43 3.23
800.526 3.54 3.33 3.69 3.76 3.75 4.7 5.09 5.21 5.47 5.69
819.816 5.77 5.1 4.87 5.07 5.44 5.16 5.17 5.34 4.06 3.55
839.106 3.23 2.93 3.01 2.95 3.03 2.96 2.63 2.47 2.54 2.74
858.395 2.67 2.1394 2.55 2.83 2.3067 2.52 3.04 3.11 2.87 3.25
877.685 3.08 2.1596 2.1938 2.3066 2.0857 2.35 2.81 3.26 3.52 3.48
896.975 3.37 3.22 3.19 3.49 3.23 2.76 2.95 3.06 2.75 2.3096
916.265 2.45 2.61 2.9 3.06 3.19 3.2 3.13 3.78 3.87 3.75
935.555 3.49 3.45 3.43 3.22 2.91 2.65 2.5 2.3216 2.5 2.6
954.844 2.77 2.55 2.319 2.72 2.75 2.44 2.2215 2.56 3.06 2.44
974.134 2.37 2.62 2.3071 1.9138 2.2006 2.63 2.79 3.06 3.07 2.61
993.424 2.1748 2.47 3.41 4.25 4.31 4.1 3.53 3.43 3.51 3.69
1012.714 4.05 4.29 4.22 5.06 5.65 5.9 7.06 8.35 9.92 11.04
1032.003 12.33 13.34 14.71 14.8 13.21 12.03 10.1 8.35 7.86 6.65
1051.293 5.2 4.27 4.15 3.89 3.83 4.07 3.46 3.6 3.96 4.29
1070.583 4.85 4.13 2.3206 1.8652 2.64 3.28 2.45 2.0179 3.91 3.57
1089.873 1.39597 2.2828 2.86 2.238 3.73 4.06 3.2 2.2101 2.44 3.63
1109.163 3.07 2.57 4.53 6.32 4.61 3.29 5.34 5.97 6.23 5.95
1128.452 3.69 4.42 5.34 6.17 6.18 4.61 4.45 4.69 4.15 4.28
1147.742 5.38 5.66 5.63 5.21 4.37 3.81 4.13 3.47 2.84 3.55
1167.032 4.65 4.97 4.74 5.08 5.32 5.33 5.32 6.03 6.96 5.44
1186.322 4.86 4.87 4.48 5.82 4.88 4.23 6.01 6.05 5.06 5.03
1205.611 4.66 6.21 6.8 6.42 8.41 9.01 6.99 6.39 6.36 6.13
1224.901 5.76 6.95 8.29 7.58 7.81 8.42 9.38 11.06 11.57 10.77
1244.191 10.87 9.85 8.7 8.61 8.56 9.03 8.35 7.55 7.75 7.78
1263.481 7.75 7.95 9.08 10.42 10.64 10.92 11.55 11.13 9.86 8.97
1282.771 7.61 6.31 4.98 4.23 4.07 3.54 3.45 3.34 2.96 3.05
1302.060 3.4 3.38 3.43 3.5 3.53 3.76 3.83 4.08 4.43 4.35
1321.350 4.35 4.45 4.21 3.77 3.56 3.5 3.2 2.77 2.64 2.51
1340.640 2.52 2.57 2.2588 2.2355 2.37 2.3237 2.42 2.64 2.7 2.79
1359.930 3.03 3.39 3.8 4.17 4.64 5.36 5.77 5.89 6.27 6.81
1379.219 7.19 7.28 7.45 7.38 6.93 6.69 6.27 5.72 5.35 4.89
1398.509 4.23 3.85 3.74 3.65 3.69 3.68 3.81 4.16 4.25 4.33
1417.799 4.41 4.29 4.27 4.15 3.79 3.43 3.21 3.12 3.09 2.94
1437.089 2.77 2.73 2.8 2.9 3.06 3.08 3 3.22 3.55 3.65
1456.378 4.04 4.5 4.79 5.02 5.31 5.49 5.45 5.35 4.88 4.48
1475.668 4.28 4.06 3.96 3.45 2.84 2.77 2.65 2.54 2.41 2.1378
1494.958 2.1267 2.3042 2.1659 2.1029 2.1873 2.1842 2.35 2.47 2.2037 2.193
1514.248 2.3149 1.9269 2.1959 2.5 2.2891 2.2786 2.4 2.2057 2.2218 2.64
1533.538 2.76 3.12 3.28 3.21 3.43 3.91 4.52 4.82 4.91 4.94
1552.827 5.07 5.22 5.03 4.77 4.82 4.89 4.54 4.46 4.75 4.71
1572.117 4.88 5.09 5.37 6 6.34 6.46 6.37 6.31 6.08 5.8
1591.407 5.34 4.74 4.38 3.88 3.67 3.31 2.79 2.78 2.96 2.84
1610.697 2.67 2.82 2.53 2.39 2.75 2.54 2.47 2.67 2.42 2.2864
1629.986 2.3428 2.3016 2.255 2.1896 1.9382 1.9179 2.0252 2.0181 1.9275 1.5117
1649.276 1.5929 1.7226 1.7822 2.0778 2.1741 2.2128 2.0565 2.0563 2.53 2.5
1668.566 2.0603 1.9565 2.1557 2.3263 2.45 2.66 2.71 2.79 3.01 3.15
1687.856 3.37 3.63 4.24 4.98 5.27 6.02 7.13 8.24 9.75 11.85
1707.146 13.94 15.77 17.59 19 19.75 20.26 20.02 19.36 17.92 15.64
1726.435 13.54 11.42 9.6 7.98 6.24 5.6 5.07 4.39 4.16 3.92
1745.725 3.67 3.56 3.41 3.19 2.91 2.7 2.68 2.6 2.47 2.51
1765.015 2.49 2.2862 2.1433 2.0937 2.1112 2.0658 2.1245 2.2983 2.2114 2.0101
1784.305 1.9566 1.8684 1.893 1.89 1.8981 2.0001 1.8884 1.8471 1.8435 1.852
1803.594 1.8352 1.6512 1.6424 1.7087 1.8823 1.9213 1.7481 1.6333 1.694 1.7903
1822.884 1.878 1.8263 1.6542 1.7772 1.8825 1.832 1.7234 1.7473 1.9221 2.0623
1842.174 1.9923 1.7925 1.7788 1.6913 1.6736 1.7367 1.7384 1.8019 1.8263 1.6566
1861.464 1.6351 1.9188 1.947 1.9197 2.1895 2.2144 1.96 1.8828 1.8489 1.8122
1880.754 1.8446 2.0499 2.0892 1.9336 1.8349 1.6931 1.619 1.6515 1.6942 1.7701
1900.043 1.7609 1.6811 1.6849 1.7514 1.6257 1.6626 1.8083 1.8089 1.8851 1.9232
1919.333 1.9495 1.8726 1.8018 1.7356 1.7333 1.7384 1.7709 1.8731 1.7495 1.5062
1938.623 1.5349 1.7008 1.8901 1.9963 2.0367 1.831 1.6199 2.0047 2.1655 1.9206
1957.913 1.8594 1.8237 1.7571 1.7573 1.9525 2.061 1.8948 1.7377 1.7114 1.6283
1977.202 1.6378 1.6727 1.6773 1.5775 1.4873 1.5326 1.5729 1.7823 1.8583 1.7837
1996.492 1.8885 1.8655 1.7043 1.6563 1.6321 1.819 1.9051 1.8077 1.7902 1.8586
2015.782 1.7762 1.5226 1.5106 1.7283 1.9424 1.9104 1.6353 1.7103 1.7643 1.7506
2035.072 1.8376 1.7359 1.592 1.4942 1.6614 1.7815 1.7717 1.6548 1.6006 1.7728
2054.362 1.8909 2.0318 1.9862 1.9697 1.9128 1.9436 1.9661 1.76 1.6444 1.668
2073.651 1.6075 1.5622 1.6491 1.6475 1.7233 1.7825 1.7688 1.6133 1.4821 1.5124
2092.941 1.4989 1.6719 1.6737 1.6722 1.8307 1.6743 1.7448 1.8561 1.7837 1.7675
2112.231 1.5693 1.38778 1.5498 1.6221 1.7435 1.8277 1.733 1.6304 1.6377 1.5849
2131.521 1.5443 1.6825 1.6384 1.6865 1.5549 1.6082 1.8379 1.4503 1.2509 1.5704
2150.810 1.7855 1.7623 1.6635 1.6415 1.6595 1.7872 1.9149 1.9257 1.8107 1.6792
2170.100 1.4957 1.4623 1.4874 1.41404 1.40638 1.5443 1.6912 1.7338 1.8865 1.7967
2189.390 1.6853 1.6009 1.624 1.7474 1.6636 1.5489 1.5538 1.7114 1.9796 1.8955
2208.680 1.5484 1.6932 1.8181 1.8573 1.9207 1.4574 1.4795 1.7135 1.521 1.7875
2227.970 1.8836 1.7694 1.9511 1.7599 1.7329 1.8262 1.5911 1.4596 1.8159 1.8806
2247.259 1.5775 1.6633 1.6304 1.7564 1.8587 1.8039 1.8478 1.888 1.8982 1.715
2266.549 1.7562 1.7332 1.5252 1.7384 1.8646 1.9141 1.8182 1.6992 1.7382 1.7796
2285.839 1.9932 1.8569 1.6854 1.5845 1.5369 1.791 1.8447 1.9437 1.9733 1.7489
2305.129 1.8699 1.9019 1.5972 1.5399 1.528 1.36138 1.42865 1.5547 1.5413 1.4796
2324.418 1.39867 1.44222 1.5103 1.4949 1.5632 1.6092 1.4602 1.4396 1.34998 1.34684
2343.708 1.41305 1.5496 1.8504 1.7534 1.5646 1.5156 1.6403 1.702 1.525 1.4542
2362.998 1.6776 1.7946 1.8797 1.8092 1.5938 1.7706 1.8089 1.4801 1.3108 1.7073
2382.288 2.0139 1.8436 1.811 1.7566 1.59 1.4887 1.5341 1.659 1.8464 1.7682
2401.578 1.6983 1.8811 1.8057 1.7861 1.7824 1.8669 1.9768 1.9211 1.8494 1.8284
2420.867 1.7091 1.5634 1.6944 1.7765 1.6912 1.5847 1.463 1.36438 1.35289 1.6232
2440.157 1.746 1.569 1.543 1.7122 1.6421 1.757 1.964 1.9051 1.7438 1.8464
2459.447 1.9032 1.7156 1.8505 2.0035 1.9725 1.7809 1.7985 1.5984 1.4604 1.5005
2478.737 1.8283 2.1344 1.8848 1.8394 1.652 1.43179 1.3951 1.6713 2.0086 1.8793
2498.026 1.7387 1.7262 1.7392 1.7929 1.8674 1.7025 1.5419 1.5936 1.5854 1.6462
2517.316 1.8845 1.8243 1.5048 1.5091 1.7429 1.8671 2.0223 2.3414 2.0546 1.6975
2536.606 1.488 1.36963 1.4575 1.8281 2.0617 2.0492 1.9713 1.7286 1.7898 1.8934
2555.896 1.8767 1.6557 1.706 1.7444 1.5134 1.5655 1.8762 2.0991 2.2173 1.7149
2575.186 1.187 1.42237 1.7158 1.7271 1.6756 1.5413 1.42266 1.688 1.7802 1.634
2594.475 1.4525 1.4965 1.6391 1.6434 1.7319 1.6327 1.7051 1.7694 1.7171 1.7992
2613.765 1.6384 1.5592 1.7035 1.8511 1.7616 1.6004 1.5497 1.36757 1.099 1.131
2633.055 1.4823 1.43194 1.233 1.7023 1.9857 1.7104 1.3383 1.3103 1.6582 1.6405
2652.345 1.5411 1.4232 1.117 0.855 1.177 1.8018 1.914 1.5263 1.36605 1.586
2671.634 1.6743 1.7753 1.917 1.4575 0.976 1.40947 1.8869 1.6821 1.241 1.199
2690.924 1.4802 1.5084 1.5477 1.8374 1.9238 1.9415 1.6488 1.282 1.34703 1.4783
2710.214 1.6259 1.8074 1.7159 1.5447 1.5425 1.4845 1.3282 1.4527 1.41621 1.37406
2729.504 1.4734 1.574 1.9382 1.8375 1.7551 1.9943 2.1449 2.1846 2.1473 1.892
2748.794 1.5187 1.7997 2.0903 1.7159 1.6588 1.6925 1.5509 1.7097 1.8953 1.9732
2768.083 1.8811 1.5828 1.5328 1.40516 1.6284 2.0122 1.9434 1.7703 1.43983 1.293
2787.373 1.4555 1.7016 1.6414 1.5635 1.6455 1.7023 1.3364 1.064 1.512 1.41975
2806.663 1.19 1.2629 1.233 1.34657 1.618 1.8352 1.8103 1.886 1.6292 1.2597
2825.953 1.4533 1.7849 1.85 1.43577 0.994 0.941 1.3454 1.7172 1.5689 1.42027
2845.242 1.2617 1.3117 1.5799 1.5277 1.6735 1.718 1.37486 1.4954 1.5733 1.36829
2864.532 1.226 1.068 1.178 1.6583 2.0333 1.9007 1.5229 1.4733 1.44273 1.5105
2883.822 1.7092 1.6929 1.5121 1.6188 1.7929 1.6307 1.7522 1.9555 1.8876 1.44165
2903.112 1.38286 1.4797 1.4922 1.8466 1.8397 1.7803 1.7084 1.753 1.6678 1.5182
2922.401 1.7904 2.0822 2.1882 2.056 2.0205 1.8703 1.7388 1.7685 1.2571 0.926
2941.691 1.4624 1.994 1.8972 1.924 2.0511 1.6878 1.4587 1.4655 1.4092 1.242
2960.981 1.6363 1.9392 1.7015 1.6326 1.7762 1.5399 1.2978 1.6408 1.9218 2.0715
2980.271 1.7813 1.5106 1.6231 1.8576 2.0865 1.6613 1.3387 1.6282 1.41763 1.179
2999.561 1.35049 1.42499 1.5129 1.624 1.9581 1.9464 1.6286 1.4614 1.40743 1.4792
3018.850 1.212 1.026 1.5437 1.9086 1.249 1.159 1.921 1.8951 1.678 1.7754
3038.140 1.701 1.7516 1.5239 1.209 1.3172 1.165 1.171 1.6961 1.7132 1.865
3057.430 2.2898 1.999 2.0001 2.0408 1.5861 1.5576 1.8482 2.1637 2.45 2.1331
3076.720 2.1154 2.2769 1.6905 1.5597 1.40252 0.875 1.19 1.5497 1.5153 1.8859
3096.009 2.35 2.1859 2.1593 2.2647 1.6249 1.148 1.3097 1.8066 1.8968 1.7069
3115.299 1.6845 1.681 1.5212 1.7718 1.8388 1.196 1.234 1.40874 1.7389 2.0509
3134.589 1.8656 1.7494 1.5074 1.34766 1.36626 1.219 1.35445 1.059 1.08 1.9955
3153.879 1.9281 2.0163 1.8798 1.7139 2.2134 1.9607 1.2836 1.012 1.143 1.37091
3173.169 1.7308 1.9548 1.5976 1.2715 1.625 1.9242 1.7656 1.43739 1.8266 2.3283
3192.458 2.1392 1.9049 1.9995 2.1434 1.733 1.155 0.979 1.5506 1.7246 1.7859
3211.748 1.9201 1.5456 1.4857 1.6266 2.2422 2.1425 1.5005 1.037 1.242 1.9671
3231.038 1.8752 1.7716 1.908 1.43365 1.004 1.182 1.5266 1.41731 1.2537 1.5714
3250.328 1.5209 1.39722 1.519 1.3641 1.5037 1.5009 1.38222 1.41165 1.2932 1.5865
3269.617 1.7234 1.6182 1.42641 1.4718 1.5603 1.055 1.42701 1.9317 1.6151 1.5075
3288.907 1.7692 1.6297 1.39221 2.1184 2.51 2.45 2.1975 1.7638 1.7644 1.663
3308.197 1.7126 1.5619 1.243 1.4809 1.7078 1.6905 1.5355 1.5465 1.6319 1.8972
3327.487 1.6974 1.13 1.149 1.5175 1.43251 1.023 1.4684 1.8108 1.8126 1.7219
3346.777 1.5765 1.44212 1.4902 2.144 2.2948 1.9396 1.5514 1.2918 1.6134 1.7802
3366.066 1.2628 1.2609 1.9639 1.5215 1.066 1.4578 1.834 2.0341 1.8249 2.2692
3385.356 2.48 2.1601 2.42 2.91 2.0355 1.4991 1.5374 1.139 1.5301 1.7777
3404.646 1.8735 1.37774 1.7412 1.7539 1.4881 1.9691 1.6815 1.6161 1.6083 1.5993
3423.936 2.1487 2.2924 2.2179 2.54 1.96 1.5497 1.43491 1.5981 2.259 2.37
3443.225 1.7715 1.8014 1.9143 1.731 1.6702 1.5199 1.43041 1.176 1.121 1.6463
3462.515 1.944 1.6867 1.7734 1.6669 1.7372 2.2271 2.4 2.1838 1.6857 1.05
3481.805 0.791 0.95 1.4811 2.0077 1.6834 1.5067 1.476 1.44107 1.613 1.7198
3501.095 1.8008 1.5091 1.4616 1.7744 1.9223 1.7089 1.7037 2.0972 2.1871 2.1885
3520.385 1.7243 1.7238 1.9829 1.5923 1.92 2.2213 2.1079 2.022 1.9299 1.8859
3539.674 1.7148 1.6955 1.803 1.8175 2.2908 2.62 2.47 2.178 1.6054 1.504
3558.964 1.5823 1.8709 1.7591 1.7884 2.2501 1.9318 2.0843 2.0783 1.8571 1.8058
3578.254 1.6341 2.0105 2.2727 2.1891 2.57 2.0498 1.3188 1.6818 1.5684 0.96
3597.544 0.621 0.987 1.107 1.21 1.2593 1.4581 2.1548 1.9654 1.827 1.6209
3616.833 1.7098 1.8458 1.7193 1.6781 1.44709 1.7014 2.0908 2.0863 1.9728 1.9111
3636.123 1.7963 1.7095 1.4691 1.8556 2.0423 1.8442 2.2993 2.1322 1.7625 1.9379
3655.413 2.2001 2.0441 1.9678 1.9824 1.7911 1.8361 1.7311 1.212 1.38867 1.6984
3674.703 1.2936 1.052 1.44232 1.4697 1.5194 1.43219 1.121 1.6946 2.47 2.3241
3693.993 1.6214 1.43884 1.37525 1.43102 1.6294 1.8896 1.5275 0.957 1.2535 1.8795
3713.282 2.0029 1.7047 2.1324 2.0469 1.6226 2.1961 2.41 2.2813 1.8509 1.3219
3732.572 0.893 1.174 1.744 2.0631 2.0107 1.9279 1.6872 0.926 1.5548 2.1915
3751.862 1.5354 1.5753 1.7645 1.226 1.2726 1.4596 1.5803 2.1253 2.0612 1.8206
3771.152 2.53 2.2851 1.43489 1.234 1.38823 1.7449 1.7696 1.8302 1.7717 1.42551
3790.441 1.9974 2.2542 1.6324 1.5247 1.5569 1.568 1.105 0.776 1.157 1.6241
3809.731 1.36201 1.308 1.38985 1.2512 2.191 2.97 2.3187 1.7197 1.5684 1.6806
3829.021 1.7318 1.4768 1.9566 2.37 1.9775 1.25 1.114 1.7678 2.0655 1.5878
3848.311 1.44369 1.227 0.684 1.2834 2.0723 2.245 2.3257 2.0351 1.6128 1.5563
3867.601 2.1674 2.0004 1.6071 2.1158 1.9135 1.8569 1.6811 1.159 1.4842 1.9157
3886.890 2.0195 1.37811 1.212 1.9979 2.0432 1.09 0 0.22 1.174 1.732
3906.180 1.681 1.9198 2.0991 2.1018 1.915 1.5574 1.8001 2.0242 1.8197 1.42201
3925.470 1.4675 1.8851 1.8935 1.596 1.8225 1.6068 1.168 1.7937 1.6727 1.5991
3944.760 1.7904 0.753 0.676 1.236 1.2705 1.166 1.207 1.3363 1.125 0.917
3964.049 1.41934 1.126 0.967 1.5952 1.208 1.036 1.8444 2.44 2.3455 2.38
3983.339 2.47 1.2849 0.576 0.726 1.214 1.5503 1.5009 2.3266 2.66 2.1871
##END=
