##TITLE=4-Chlorobenzoylacetonitrile
##JCAMP-DX=4.24
##DATA TYPE=INFRARED SPECTRUM
##ORIGIN=EPA-IR VAPOR PHASE LIBRARY
##OWNER=SRD/NIST
Collection (C) 2018 copyright by the U.S. Secretary of Commerce
on behalf of the United States of America. All rights reserved.
##CAS REGISTRY NO=4640-66-8
##MOLFORM=C 9 H 6 Cl N O
##$NIST SOURCE=MSDC-IR
##STATE=gas
##XUNITS=1/CM
##YUNITS=ABSORBANCE
##XFACTOR=1.
##YFACTOR=0.001
##DELTAX=1.92934
##FIRSTX=549.9
##LASTX=3999.5
##FIRSTY=8.25
##MAXX=3999.53
##MINX=549.863
##MAXY=0.13635
##MINY=0
##NPOINTS=1789
##XYDATA=(X++(Y..Y))
549.863 8.25 7.6 7.25 6.95 6.82 6.69 6.58 6.69 6.67 6.77
569.156 6.74 6.53 6.68 6.71 6.68 6.75 6.76 6.93 7.13 7.17
588.450 7.21 7.28 7.23 6.91 6.54 6.06 5.56 5.14 4.68 4.29
607.743 3.96 3.71 3.59 3.61 3.68 3.71 3.9 4.24 4.55 4.79
627.037 4.91 4.98 5.1 5.19 5.1 5 4.87 4.74 4.63 4.4
646.330 4.34 4.4 4.29 4.23 4.33 4.43 4.57 4.74 4.94 5.18
665.624 5.51 5.91 6.24 6.58 6.84 6.93 6.82 6.53 6.21 5.81
684.917 5.38 4.94 4.56 4.27 3.97 3.71 3.53 3.47 3.48 3.46
704.210 3.54 3.65 3.83 4.08 4.31 4.58 4.91 5.28 5.7 6.19
723.504 6.68 7.03 7.25 7.42 7.54 7.66 7.72 7.63 7.51 7.52
742.797 7.65 8.02 8.65 9.44 10.49 12.01 13.98 16.2 18.36 20.16
762.091 21.2 21.32 20.69 19.45 17.69 15.7 13.89 12.35 11.19 10.44
781.384 9.95 9.68 9.58 9.61 9.77 10.01 10.23 10.65 11.23 11.88
800.678 12.71 13.65 14.68 15.83 17.02 18.13 19.52 20.97 22.09 23.09
819.971 23.98 24.9 26.03 27.22 28.38 29.52 30.55 30.92 29.85 27.36
839.264 24.58 21.91 19.11 16.32 13.71 11.41 9.47 7.97 6.89 6.14
858.558 5.61 5.14 4.7 4.46 4.26 4.06 4.03 4.03 3.95 3.89
877.851 3.88 3.82 3.76 3.87 4.02 4.17 4.39 4.67 4.96 5.3
897.145 5.77 6.29 6.85 7.47 8.26 9.18 10.14 11.18 12.29 13.36
916.438 14.31 15.13 15.77 16.14 16.13 15.72 14.96 13.92 12.64 11.28
935.732 9.93 8.7 7.68 6.89 6.4 6.02 5.67 5.38 5.18 5.02
955.025 4.81 4.56 4.37 4.18 4.05 3.99 3.97 4 4.06 4.2
974.318 4.37 4.56 4.87 5.24 5.67 6.36 7.25 8.37 9.97 12.07
993.612 14.84 18.51 23.2 29.07 36.1 44.3 52.92 59.57 61.75 60.09
1012.905 56.4 51 43.53 33.97 25.13 19.83 17.51 16.55 15.85 14.93
1032.199 13.65 12.06 10.39 8.95 7.88 7.16 6.69 6.41 6.27 6.28
1051.492 6.35 6.46 6.72 7.04 7.43 7.88 8.44 9.14 9.88 10.72
1070.786 11.53 12.51 13.7 15.15 17.11 19.91 24.09 30.43 39.86 52.93
1090.079 69.25 86 98.59 104.39 104.25 99.38 88.32 69.75 48.48 31.82
1109.372 21.93 16.59 13.44 11.43 10.04 8.94 8.03 7.2 6.48 5.9
1128.666 5.48 5.05 4.64 4.25 3.86 3.68 3.58 3.54 3.5 3.39
1147.959 3.45 3.6 3.8 4.14 4.71 5.41 6.26 7.53 9.45 12.11
1167.253 15.35 19.03 22.53 25.49 27.88 29.01 28.49 26.62 24.03 21.22
1186.546 18.54 16.64 15.78 15.76 16.83 18.85 21.15 23.74 26.77 29.57
1205.840 31.56 32.75 33.06 32.64 31.17 28.92 26.61 24.66 23.11 21.79
1225.133 20.87 20.36 20.16 20.38 20.91 21.59 22.62 23.99 25.67 28.09
1244.426 31.15 35.07 39.89 45.58 52.41 60.09 68.46 77.16 85.54 92.67
1263.720 97.26 98.67 96.32 90.18 81.22 70.43 59 48.09 38.79 31.72
1283.013 26.56 22.84 20.18 18.43 17.21 16.27 15.81 15.72 15.96 16.63
1302.307 17.51 18.55 19.68 20.92 22.19 23.25 24.04 24.5 24.68 24.62
1321.600 24.2 23.38 22.17 20.57 18.78 16.96 15.14 13.42 11.95 10.78
1340.894 9.92 9.35 8.92 8.52 8.16 7.81 7.43 7.03 6.66 6.29
1360.187 5.99 5.77 5.59 5.55 5.61 5.69 5.88 6.15 6.5 7.04
1379.480 7.73 8.59 9.78 11.21 12.85 14.66 16.45 18.1 19.55 20.71
1398.774 21.48 21.84 21.85 21.68 21.46 21.37 21.56 21.94 22.37 22.47
1418.067 21.97 21.02 19.62 17.69 15.47 13.19 11.18 9.56 8.29 7.35
1437.361 6.66 6.2 5.82 5.55 5.34 5.16 5.06 5.01 5 4.98
1456.654 4.9 4.98 5.13 5.23 5.37 5.58 5.9 6.33 6.94 7.93
1475.948 9.27 11 13.2 15.79 18.49 20.8 22.23 22.54 21.79 20.25
1495.241 17.89 14.81 11.64 9.01 7.16 5.92 5.06 4.58 4.3 4.03
1514.534 3.86 3.78 3.71 3.59 3.55 3.59 3.66 3.79 3.91 4.01
1533.828 4.1 4.3 4.51 4.69 5.02 5.44 5.99 6.69 7.46 8.44
1553.121 9.57 11.04 12.85 15.03 17.66 20.48 23.53 26.5 29.17 31.52
1572.415 33.56 35.18 36.67 38.29 40.33 43.44 47.73 53.05 59.03 65
1591.708 70.15 73.38 73.78 71.21 65.95 58.46 49.26 39.25 29.94 22.63
1611.002 17.63 14.49 12.64 11.57 11 10.64 10.35 10.05 9.7 9.35
1630.295 8.84 8.27 7.71 7.18 6.85 6.63 6.46 6.33 6.22 6.15
1649.588 6.17 6.29 6.44 6.67 6.97 7.25 7.55 7.91 8.33 8.77
1668.882 9.21 9.71 10.3 10.91 11.61 12.37 13.21 14.23 15.69 17.65
1688.175 20.09 23.27 27.43 32.73 39.66 48.2 58.38 70.64 83.72 97.55
1707.469 110.71 121.93 130.27 135.22 136.35 133.19 125.25 113.58 99.49 84.78
1726.762 70.54 57.57 46.5 37.65 30.62 25.32 21.34 18.22 15.83 13.99
1746.056 12.57 11.5 10.66 9.98 9.5 9.11 8.71 8.32 7.87 7.49
1765.349 7.2 6.85 6.43 5.99 5.65 5.39 5.16 4.99 4.88 4.78
1784.642 4.67 4.59 4.53 4.43 4.29 4.18 4.08 3.95 3.83 3.7
1803.936 3.55 3.43 3.31 3.19 3.12 3.07 2.98 2.91 2.89 2.85
1823.229 2.83 2.83 2.74 2.68 2.6568 2.6528 2.6247 2.5984 2.6031 2.6429
1842.523 2.6682 2.6681 2.74 2.82 2.87 2.9 2.9 2.88 2.87 2.89
1861.816 2.88 2.87 2.84 2.77 2.72 2.72 2.78 2.78 2.82 2.93
1881.110 3 3.04 3.11 3.19 3.24 3.34 3.39 3.37 3.36 3.35
1900.403 3.32 3.28 3.22 3.14 3.08 3.01 2.97 2.91 2.91 2.88
1919.696 2.79 2.83 2.84 2.83 2.85 2.85 2.9 2.95 2.96 2.9
1938.990 2.81 2.73 2.6248 2.4844 2.3648 2.2402 2.1273 2.0068 1.906 1.8458
1958.283 1.76763 1.72262 1.69172 1.67252 1.6639 1.6552 1.6403 1.616 1.5844 1.535
1977.577 1.54 1.5783 1.569 1.547 1.5732 1.5877 1.546 1.543 1.521 1.488
1996.870 1.492 1.529 1.554 1.5762 1.6414 1.6171 1.5869 1.6258 1.653 1.656
2016.164 1.67945 1.69223 1.69794 1.7351 1.73772 1.75022 1.7813 1.781 1.7738 1.75603
2035.457 1.70784 1.6427 1.6074 1.5922 1.566 1.512 1.48 1.474 1.444 1.422
2054.750 1.417 1.416 1.402 1.417 1.452 1.444 1.405 1.388 1.383 1.407
2074.044 1.409 1.397 1.428 1.481 1.499 1.501 1.523 1.495 1.502 1.511
2093.337 1.476 1.449 1.455 1.43 1.42 1.425 1.398 1.39 1.416 1.447
2112.631 1.414 1.392 1.413 1.432 1.464 1.495 1.462 1.415 1.406 1.394
2131.924 1.402 1.422 1.402 1.351 1.359 1.398 1.404 1.39 1.387 1.401
2151.218 1.411 1.414 1.388 1.369 1.367 1.373 1.388 1.378 1.366 1.37
2170.511 1.379 1.41 1.394 1.388 1.428 1.42 1.386 1.404 1.443 1.457
2189.804 1.478 1.496 1.516 1.554 1.6281 1.71255 1.8261 2.0206 2.2229 2.3983
2209.098 2.4944 2.4949 2.4246 2.3097 2.1683 1.9549 1.7872 1.74436 1.69519 1.6499
2228.391 1.6364 1.6447 1.6566 1.6647 1.70043 1.75776 1.8492 1.9189 2.0154 2.185
2247.685 2.3442 2.5185 2.71 2.88 3.01 3.04 3.03 3.01 2.92 2.76
2266.978 2.5632 2.3951 2.2603 2.1448 2.0458 1.9646 1.9339 1.9338 1.9251 1.9107
2286.272 1.9311 1.9661 1.9937 2.02 2.0396 2.0606 2.0493 2.0411 2.0498 2.0486
2305.565 2.045 2.0196 1.9886 1.9214 1.8847 1.8801 1.8536 1.8229 1.7769 1.7761
2324.858 1.8163 1.8169 1.8 1.8332 1.8128 1.74628 1.73296 1.7845 1.835 1.8231
2344.152 1.8199 1.8578 1.8939 1.8813 1.8643 1.8116 1.73534 1.72846 1.72152 1.70325
2363.445 1.70068 1.68059 1.67932 1.71181 1.66412 1.6409 1.67458 1.6449 1.6098 1.5902
2382.739 1.6014 1.66259 1.6437 1.633 1.68975 1.72884 1.72615 1.68446 1.70427 1.76891
2402.032 1.8058 1.8071 1.8293 1.8487 1.8537 1.8231 1.834 1.8421 1.7752 1.74182
2421.326 1.7721 1.7727 1.76396 1.76984 1.70842 1.651 1.6216 1.6511 1.6424 1.618
2440.619 1.66049 1.68889 1.67034 1.6294 1.6207 1.6136 1.5967 1.545 1.533 1.554
2459.912 1.516 1.49 1.515 1.536 1.533 1.528 1.523 1.553 1.542 1.546
2479.206 1.552 1.559 1.5904 1.5822 1.572 1.5852 1.6403 1.69116 1.74864 1.7944
2498.499 1.8268 1.8895 1.9205 1.927 1.9292 1.9463 2.0002 2.0675 2.104 2.1588
2517.793 2.2107 2.2514 2.3316 2.3727 2.4595 2.5456 2.5703 2.5732 2.6324 2.69
2537.086 2.71 2.77 2.76 2.69 2.7 2.7 2.68 2.7 2.6567 2.6497
2556.380 2.6488 2.612 2.583 2.5626 2.536 2.5102 2.4632 2.4221 2.4086 2.3811
2575.673 2.3251 2.2812 2.2625 2.2675 2.2281 2.158 2.1484 2.0654 2.0339 2.0144
2594.966 2.0089 2.0358 2.0914 2.1194 2.0042 1.9302 1.9245 1.8792 1.8243 1.8246
2614.260 1.8149 1.7716 1.70829 1.6574 1.67272 1.72725 1.69621 1.6277 1.5823 1.536
2633.553 1.523 1.548 1.5708 1.531 1.516 1.533 1.505 1.536 1.556 1.5984
2652.847 1.6362 1.6057 1.6359 1.6294 1.6022 1.564 1.559 1.576 1.5872 1.6126
2672.140 1.6315 1.6162 1.555 1.543 1.5773 1.5797 1.54 1.561 1.6317 1.6269
2691.434 1.5899 1.532 1.489 1.548 1.546 1.497 1.524 1.563 1.5929 1.534
2710.727 1.461 1.471 1.455 1.447 1.441 1.467 1.495 1.503 1.544 1.5931
2730.020 1.5955 1.541 1.525 1.527 1.546 1.5844 1.564 1.509 1.556 1.6536
2749.314 1.6197 1.6164 1.6686 1.67973 1.68522 1.67664 1.72272 1.71766 1.6657 1.6026
2768.607 1.566 1.5831 1.557 1.5802 1.6312 1.6308 1.6303 1.6192 1.5748 1.62
2787.901 1.6514 1.6375 1.5928 1.545 1.571 1.6228 1.5863 1.537 1.567 1.557
2807.194 1.542 1.515 1.505 1.525 1.536 1.538 1.538 1.489 1.475 1.504
2826.488 1.497 1.546 1.551 1.542 1.541 1.478 1.451 1.521 1.56 1.56
2845.781 1.5754 1.557 1.569 1.596 1.505 1.469 1.6049 1.67931 1.6507 1.6338
2865.074 1.5773 1.48 1.504 1.562 1.541 1.508 1.457 1.385 1.375 1.441
2884.368 1.362 1.295 1.348 1.336 1.339 1.253 1.241 1.297 1.273 1.294
2903.661 1.309 1.426 1.542 1.533 1.6067 1.66089 1.5987 1.6331 1.74644 1.8217
2922.955 1.9331 2.1429 2.3021 2.4322 2.6034 2.78 2.92 2.89 2.74 2.6337
2942.248 2.5443 2.3257 2.0543 1.9418 1.8217 1.6318 1.464 1.417 1.526 1.499
2961.542 1.434 1.391 1.337 1.397 1.432 1.389 1.417 1.417 1.461 1.534
2980.835 1.453 1.401 1.415 1.466 1.443 1.405 1.422 1.431 1.468 1.469
3000.128 1.502 1.404 1.293 1.268 1.308 1.322 1.248 1.287 1.463 1.6176
3019.422 1.5 1.4 1.478 1.542 1.6354 1.7843 1.879 1.904 2.0739 2.2709
3038.715 2.2999 2.3421 2.3749 2.384 2.4166 2.5017 2.5215 2.4258 2.4079 2.5498
3058.009 2.7 2.84 3.03 3.2 3.33 3.23 3.1 3.07 2.91 2.81
3077.302 2.77 2.72 2.81 2.95 3.12 3.37 3.74 3.96 4 3.97
3096.596 3.98 3.98 3.83 3.48 3.03 2.75 2.3933 1.9648 1.75446 1.566
3115.889 1.37 1.221 1.125 1.078 1.015 0.939 1.021 1.057 1.041 1.123
3135.182 1.036 1.016 0.918 0.818 0.941 0.942 0.807 0.723 0.701 0.736
3154.476 0.736 0.705 0.699 0.62 0.688 0.719 0.64 0.61 0.5 0.56
3173.769 0.731 0.733 0.72 0.715 0.798 0.851 0.803 0.87 0.856 0.721
3193.063 0.774 0.866 0.888 0.863 0.771 0.82 0.822 0.758 0.696 0.66
3212.356 0.65 0.61 0.51 0.4 0.48 0.58 0.5 0.39 0.44 0.48
3231.650 0.41 0.4 0.37 0.36 0.41 0.54 0.37 0 0.18 0.36
3250.943 0.22 0.18 0.31 0.4 0.49 0.44 0.35 0.42 0.37 0.27
3270.236 0.32 0.46 0.39 0.36 0.47 0.26 0.11 0.26 0.23 0.18
3289.530 0.28 0.43 0.4 0.28 0.34 0.34 0.22 0.3 0.31 0.27
3308.823 0.35 0.36 0.25 0.32 0.4 0.36 0.39 0.42 0.39 0.28
3328.117 0.32 0.41 0.44 0.31 0.3 0.36 0.39 0.28 0.16 0.29
3347.410 0.29 0.38 0.55 0.49 0.48 0.59 0.53 0.47 0.48 0.52
3366.704 0.5 0.46 0.47 0.52 0.696 0.871 0.847 0.837 0.857 0.951
3385.997 1.149 1.252 1.4 1.387 1.543 1.7931 1.9306 2.0463 2.0562 2.1137
3405.290 2.1875 2.2499 2.2965 2.2539 2.2372 2.1853 1.9257 1.68996 1.565 1.418
3424.584 1.256 1.162 1.254 1.435 1.285 0.917 0.805 0.798 0.758 0.758
3443.877 0.63 0.56 0.6 0.51 0.52 0.53 0.45 0.46 0.49 0.44
3463.171 0.38 0.36 0.44 0.45 0.33 0.37 0.45 0.52 0.52 0.32
3482.464 0.35 0.38 0.3 0.29 0.3 0.37 0.36 0.37 0.48 0.45
3501.758 0.42 0.47 0.41 0.35 0.41 0.38 0.31 0.41 0.43 0.38
3521.051 0.4 0.4 0.45 0.49 0.39 0.35 0.48 0.64 0.728 0.784
3540.344 1.005 1.267 1.446 1.6097 1.67533 1.6064 1.5713 1.45 1.297 1.145
3559.638 0.874 0.6 0.58 0.65 0.59 0.57 0.58 0.64 0.684 0.68
3578.931 0.817 0.944 0.847 0.764 0.756 0.747 0.706 0.51 0.51 0.56
3598.225 0.53 0.66 0.708 0.61 0.51 0.58 0.61 0.59 0.64 0.61
3617.518 0.54 0.727 0.844 0.785 0.81 0.8 0.762 0.724 0.773 0.739
3636.812 0.773 0.727 0.63 0.731 0.786 0.84 0.77 0.66 0.69 0.697
3656.105 0.731 0.783 0.837 0.739 0.73 0.813 0.83 0.817 0.66 0.63
3675.398 0.71 0.722 0.708 0.836 0.914 0.835 0.748 0.702 0.707 0.757
3694.692 0.825 0.766 0.759 0.819 0.774 0.717 0.713 0.757 0.83 0.901
3713.985 0.949 0.992 1.009 1.065 1.058 0.992 1.043 1.061 1.003 0.999
3733.279 1.01 1.008 0.983 0.954 0.96 0.979 0.881 0.707 0.698 0.752
3752.572 0.673 0.64 0.74 0.742 0.762 0.89 0.916 0.908 0.799 0.691
3771.866 0.789 0.844 0.784 0.863 0.916 0.93 0.973 0.969 0.98 0.977
3791.159 0.901 0.897 0.882 0.855 0.876 0.8 0.815 0.885 0.916 0.93
3810.452 0.906 0.888 0.906 0.954 0.994 0.975 0.979 1.064 0.966 0.832
3829.746 0.906 1.042 0.973 0.813 0.915 1.018 0.982 0.939 0.915 0.974
3849.039 1.01 0.923 0.99 1.127 1.123 1.035 1.009 1.013 0.963 0.961
3868.333 0.977 1.003 1.033 1.002 0.995 1.079 1.068 1.013 0.99 1.02
3887.626 1.062 1.034 1.059 1.083 0.984 0.888 0.929 0.964 0.993 1.03
3906.920 1.05 1.008 0.888 0.913 0.964 0.991 1.065 0.982 0.899 0.968
3926.213 0.957 0.902 0.905 0.945 0.968 0.957 1.045 1.099 1.028 1.024
3945.506 1.034 1.021 1.074 1.025 0.891 0.926 1.039 1.043 1.099 1.174
3964.800 1.206 1.152 1.06 1.094 1.128 1.15 1.086 1.05 1.101 1.128
3984.093 1.164 1.063 0.968 1.095 1.122 1.101 1.131 1.14 1.144
##END=
