##TITLE=2-Octen-4-one
##JCAMP-DX=4.24
##DATA TYPE=INFRARED SPECTRUM
##ORIGIN=NIST Mass Spectrometry Data Center
##OWNER=NIST Standard Reference Data Program
Collection (C) 2018 copyright by the U.S. Secretary of Commerce
on behalf of the United States of America. All rights reserved.
##CAS REGISTRY NO=4643-27-0
##MOLFORM=C 8 H 14 O
##$NIST SOURCE=MSDC-IR
##SPECTROMETER/DATA SYSTEM=HP-GC/MS/IRD
##STATE=gas
##XUNITS=1/CM
##YUNITS=ABSORBANCE
##XFACTOR=1.0
##YFACTOR=0.000002200
##DELTAX=4.0
##FIRSTX=550.0
##LASTX=3846.0
##FIRSTY=0.001082
##MAXX=3846
##MINX=550
##MAXY=0.022
##MINY=0
##NPOINTS=825
##XYDATA=(X++(Y..Y))
550.0 492 292 168 201 200 207 161 99 105 114
590.0 87 103 96 78 96 108 107 92 52 18
630.0 15 54 106 124 133 143 135 113 70 52
670.0 69 81 73 57 42 28 36 56 64 61
710.0 70 90 104 104 135 167 187 191 205 219
750.0 216 215 187 164 131 107 105 103 95 74
790.0 62 47 29 33 48 32 22 27 36 29
830.0 30 57 66 86 130 165 195 229 266 304
870.0 335 360 398 433 459 496 529 553 578 636
910.0 734 862 1034 1222 1425 1618 1770 1896 2024 2190
950.0 2421 2711 3026 3325 3495 3466 3194 2658 2053 1533
990.0 1106 806 634 544 511 518 564 643 752 909
1030.0 1097 1313 1553 1792 2005 2171 2241 2183 1996 1762
1070.0 1505 1256 1052 897 801 753 762 798 832 879
1110.0 939 1060 1222 1428 1685 1909 2049 2074 2000 1889
1150.0 1798 1783 1815 1875 1954 2063 2233 2426 2543 2566
1190.0 2474 2260 1995 1753 1576 1452 1361 1304 1276 1287
1230.0 1326 1402 1475 1533 1555 1542 1537 1528 1528 1609
1270.0 1750 1977 2309 2671 2955 3109 3088 2904 2659 2473
1310.0 2391 2389 2425 2448 2427 2359 2274 2214 2198 2207
1350.0 2214 2182 2078 1938 1779 1637 1552 1524 1499 1458
1390.0 1365 1194 1056 995 999 1041 1097 1160 1238 1339
1430.0 1469 1642 1881 2154 2404 2548 2574 2468 2239 1952
1470.0 1668 1401 1165 956 779 652 566 501 454 413
1510.0 380 360 341 324 308 293 291 286 277 258
1550.0 249 249 253 267 273 276 302 339 381 436
1590.0 510 619 756 954 1216 1572 2069 2746 3629 4728
1630.0 5919 6895 7340 7069 6090 4781 3626 2933 2706 2869
1670.0 3383 4218 5328 6593 7870 8895 9551 9767 9473 8715
1710.0 7617 6402 5170 3969 2899 2050 1442 1028 771 609
1750.0 494 408 349 305 267 245 225 196 182 173
1790.0 159 152 141 131 124 113 101 100 97 79
1830.0 72 66 60 58 53 50 51 42 37 42
1870.0 41 37 34 32 31 33 33 36 34 28
1910.0 21 20 18 12 16 12 7 5 1 0
1950.0 4 10 14 13 9 5 3 6 17 21
1990.0 26 45 60 64 68 69 56 54 52 39
2030.0 33 35 34 25 26 26 23 17 9 15
2070.0 25 21 22 24 20 10 11 19 17 15
2110.0 16 13 17 22 27 20 13 26 32 30
2150.0 27 25 24 22 29 26 25 28 25 26
2190.0 23 24 31 27 16 13 17 13 17 29
2230.0 34 28 25 29 29 29 34 42 39 36
2270.0 32 22 23 30 31 34 34 32 34 37
2310.0 37 36 44 62 67 67 67 62 64 60
2350.0 54 67 80 81 73 66 60 49 41 45
2390.0 56 65 59 50 51 49 44 45 48 44
2430.0 43 50 53 49 45 52 57 59 58 55
2470.0 55 53 60 65 61 61 63 63 59 61
2510.0 63 58 59 55 49 63 64 64 67 71
2550.0 77 80 76 68 78 88 88 87 89 84
2590.0 83 89 89 82 77 71 71 82 92 89
2630.0 83 88 105 111 104 116 123 122 129 128
2670.0 129 138 145 145 151 154 149 144 144 156
2710.0 167 166 166 176 194 219 253 284 305 320
2750.0 326 308 277 270 287 291 281 289 314 333
2790.0 355 399 437 470 513 565 617 666 717 789
2830.0 870 962 1088 1249 1465 1740 2118 2626 3185 3715
2870.0 4163 4522 4794 4913 4896 4820 4655 4516 4529 4700
2910.0 5028 5526 6246 7096 7849 8451 8911 9096 9067 9014
2950.0 8992 9068 9331 9747 10000 9697 8828 7514 5987 4652
2990.0 3655 2920 2410 2055 1815 1685 1612 1589 1650 1751
3030.0 1900 2035 2049 1960 1760 1459 1161 934 787 696
3070.0 620 563 535 523 488 456 448 436 432 410
3110.0 380 361 358 349 336 330 322 308 284 277
3150.0 269 230 199 200 200 181 163 155 160 176
3190.0 172 161 151 136 129 120 130 140 124 102
3230.0 94 98 89 92 93 96 105 95 89 95
3270.0 101 95 97 98 94 88 85 84 86 102
3310.0 99 96 117 128 140 145 136 142 151 149
3350.0 166 173 164 168 170 172 172 179 190 185
3390.0 183 197 195 199 196 172 154 131 104 100
3430.0 98 79 72 63 64 75 73 56 56 65
3470.0 71 70 50 32 33 51 67 60 44 23
3510.0 14 28 31 16 13 12 35 50 44 54
3550.0 54 58 59 45 42 41 35 38 42 41
3590.0 54 60 63 66 65 64 65 66 74 65
3630.0 49 55 61 71 74 72 69 58 60 76
3670.0 79 69 70 77 65 53 53 59 68 71
3710.0 66 69 78 70 67 64 63 71 77 87
3750.0 76 56 73 88 81 80 73 65 74 72
3790.0 59 81 80 68 80 86 93 82 71 70
3830.0 62 77 83 74 92
##END=
