##TITLE=Trimethylsilyl azide
##JCAMP-DX=4.24
##DATA TYPE=INFRARED SPECTRUM
##ORIGIN=EPA-IR VAPOR PHASE LIBRARY
##OWNER=SRD/NIST
Collection (C) 2018 copyright by the U.S. Secretary of Commerce
on behalf of the United States of America. All rights reserved.
##CAS REGISTRY NO=4648-54-8
##MOLFORM=C 3 H 9 N 3 Si
##$NIST SOURCE=MSDC-IR
##STATE=gas
##XUNITS=1/CM
##YUNITS=ABSORBANCE
##XFACTOR=1.
##YFACTOR=0.001
##DELTAX=1.92934
##FIRSTX=549.9
##LASTX=3999.5
##FIRSTY=17.69
##MAXX=3999.53
##MINX=549.863
##MAXY=0.70546
##MINY=0
##NPOINTS=1789
##XYDATA=(X++(Y..Y))
549.863 17.69 13.36 10.66 8.99 8.12 7.91 7.76 7.62 7.64 7.77
569.156 8.02 8.14 8.31 8.41 8.47 8.58 8.73 8.86 8.93 9.03
588.450 8.98 8.94 8.81 8.53 8.35 8.24 8.25 8.42 8.78 9.5
607.743 10.58 12.04 13.98 16.12 18.09 19.62 20.8 21.83 22.99 24.06
627.037 24.11 23.35 22.84 22.58 21.8 20.07 17.7 15.23 13 11.35
646.330 10.22 9.51 9.08 8.87 8.84 8.96 9.2 9.61 10.14 10.87
665.624 11.8 12.85 14.15 15.73 17.72 19.82 22.12 24.72 27.41 30.18
684.917 33.09 36.01 39.01 41.97 44.58 46.78 48.6 50.1 51.23 51.93
704.210 52.27 52.22 51.82 50.99 49.77 48.19 46.31 44.16 41.94 39.85
723.504 37.95 36.25 34.8 33.61 32.58 31.89 31.55 31.5 31.76 32.31
742.797 33.28 34.63 36.25 38.24 40.44 42.68 45.07 47.44 49.62 51.57
762.091 53.06 53.98 54.22 53.85 53.11 51.99 50.51 48.69 46.47 44.01
781.384 41.41 38.88 36.51 34.35 32.54 31.04 29.88 29.13 28.74 28.85
800.678 29.43 30.35 31.77 33.67 36.04 38.95 42.51 46.98 52.34 58.71
819.971 66.24 74.98 85.24 97.13 110.85 126.59 144.29 164.01 185.83 209.81
839.264 235.77 263.37 292.09 320.49 346.03 365.45 375.54 375.24 366.45 351.29
858.558 330.2 303.65 273.86 243.76 215.2 189.31 166.8 147.65 131.53 118.13
877.851 107.07 97.85 90.02 83.31 77.4 72.11 67.43 63.15 59.16 55.43
897.145 51.86 48.45 45.24 42.14 39.21 36.42 33.76 31.29 28.93 26.67
916.438 24.52 22.48 20.68 19.06 17.5 16.1 14.8 13.59 12.56 11.63
935.732 10.74 9.96 9.31 8.71 8.18 7.68 7.25 6.89 6.62 6.3469
955.025 6.0614 5.8237 5.642 5.49526 5.3325 5.212 5.116 5.005 4.875 4.789
974.318 4.716 4.607 4.523 4.469 4.442 4.37 4.28 4.22 4.19 4.14
993.612 4.08 3.99 3.92 3.9 3.81 3.7 3.63 3.58 3.55 3.47
1012.905 3.34 3.23 3.12 3.06 2.99 2.93 2.84 2.74 2.69 2.61
1032.199 2.49 2.39 2.27 2.14 2.09 1.98 1.79 1.6 1.45 1.32
1051.492 1.11 0.88 0.66 0.47 0.29 0.17 0.11 0.05 0 0.05
1070.786 0.19 0.33 0.54 0.8 1.05 1.3 1.59 1.8 1.94 2.11
1090.079 2.22 2.26 2.3 2.37 2.39 2.39 2.46 2.49 2.46 2.5
1109.372 2.56 2.57 2.59 2.65 2.65 2.68 2.73 2.76 2.86 2.9
1128.666 2.92 2.95 2.99 3.08 3.18 3.3 3.42 3.55 3.74 3.95
1147.959 4.14 4.32 4.469 4.642 4.794 4.903 5.024 5.083 5.092 5.084
1167.253 5.047 4.964 4.858 4.741 4.658 4.595 4.54 4.522 4.478 4.522
1186.546 4.652 4.762 4.904 5.011 5.173 5.44189 5.7135 5.9383 6.2542 6.69
1205.840 7.13 7.56 8.08 8.68 9.3 9.98 10.66 11.39 12.23 13.12
1225.133 14.2 15.54 17.2 19.12 21.45 24.32 27.86 32.09 37.01 42.8
1244.426 49.2 56.02 63.08 70.1 76.85 83.49 90.25 97.07 103.53 108.47
1263.720 110.24 107.88 102.95 98.09 94.26 89.76 83.53 77.2 71.45 66.07
1283.013 61.38 57.68 55.44 54.9 55.91 58.45 62.51 68.04 75.19 83.89
1302.307 94 105.17 116.72 128.14 139.21 150.02 160.31 168.91 174.46 176.46
1321.600 175.33 171.61 165.85 158.32 149.34 139.61 129.64 119.45 108.71 97.26
1340.894 85.44 74.02 63.58 54.55 46.94 40.69 35.67 31.7 28.54 25.94
1360.187 23.88 22.27 20.91 19.86 19.02 18.38 17.95 17.67 17.5 17.45
1379.480 17.46 17.47 17.59 17.78 17.96 18.18 18.42 18.67 18.98 19.35
1398.774 19.72 20.11 20.51 21 21.61 22.3 23.05 23.77 24.55 25.39
1418.067 26.14 26.92 27.48 27.87 28.13 28.12 27.86 27.46 26.92 26.16
1437.361 25.11 24.01 22.87 21.64 20.38 19.11 17.83 16.58 15.33 14.25
1456.654 13.22 12.24 11.44 10.7 10.02 9.43 8.94 8.47 7.98 7.59
1475.948 7.28 6.93 6.64 6.3677 6.111 5.8638 5.651 5.5146 5.3647 5.226
1495.241 5.098 5.005 4.935 4.895 4.859 4.758 4.701 4.714 4.721 4.737
1514.534 4.75 4.69 4.659 4.618 4.57 4.629 4.669 4.647 4.636 4.618
1533.828 4.585 4.58 4.545 4.471 4.469 4.518 4.496 4.508 4.553 4.505
1553.121 4.409 4.33 4.25 4.14 4.11 4.12 4.12 4.12 4.04 3.99
1572.415 3.98 3.92 3.87 3.86 3.83 3.8 3.78 3.78 3.79 3.75
1591.708 3.7 3.72 3.75 3.77 3.78 3.76 3.74 3.76 3.75 3.67
1611.002 3.67 3.69 3.63 3.58 3.57 3.54 3.49 3.45 3.41 3.36
1630.295 3.34 3.3 3.21 3.19 3.2 3.18 3.2 3.19 3.15 3.12
1649.588 3.12 3.01 2.96 3.06 3.07 3.04 3.03 3.04 3.07 3.08
1668.882 3 2.95 3 2.98 2.94 2.92 2.92 2.92 2.92 2.93
1688.175 2.93 2.93 2.91 2.87 2.84 2.86 2.85 2.87 2.87 2.88
1707.469 2.9 2.9 2.88 2.86 2.81 2.76 2.81 2.82 2.8 2.78
1726.762 2.75 2.74 2.78 2.78 2.79 2.85 2.84 2.81 2.82 2.8
1746.056 2.79 2.82 2.8 2.81 2.84 2.83 2.79 2.8 2.8 2.78
1765.349 2.78 2.81 2.84 2.86 2.89 2.91 2.91 2.89 2.91 2.96
1784.642 3.02 3.06 3.08 3.07 3.1 3.13 3.14 3.16 3.19 3.23
1803.936 3.23 3.19 3.19 3.21 3.17 3.12 3.13 3.12 3.12 3.09
1823.229 3.07 3.11 3.12 3.07 3.11 3.18 3.2 3.21 3.23 3.22
1842.523 3.23 3.28 3.3 3.34 3.38 3.45 3.5 3.5 3.57 3.61
1861.816 3.59 3.65 3.73 3.78 3.82 3.88 3.96 4.01 4.09 4.15
1881.110 4.18 4.24 4.28 4.28 4.25 4.22 4.2 4.17 4.16 4.12
1900.403 4.04 3.97 3.93 3.89 3.88 3.86 3.8 3.78 3.82 3.83
1919.696 3.84 3.9 3.96 4.04 4.11 4.19 4.32 4.405 4.491 4.623
1938.990 4.739 4.825 4.922 5.008 5.109 5.182 5.242 5.299 5.3247 5.3502
1958.283 5.39186 5.43907 5.45958 5.49772 5.5737 5.6163 5.6235 5.6213 5.6658 5.7462
1977.577 5.7929 5.9068 6.065 6.1814 6.3229 6.51 6.73 6.96 7.2 7.49
1996.870 7.81 8.11 8.4 8.73 9.11 9.46 9.78 10.07 10.36 10.63
2016.164 10.85 11.03 11.17 11.3 11.42 11.51 11.56 11.59 11.68 11.79
2035.457 11.9 12.08 12.3 12.55 12.81 13.07 13.39 13.76 14.14 14.55
2054.750 15.02 15.52 16.06 16.7 17.43 18.21 19.07 20.13 21.33 22.71
2074.044 24.26 26.06 28.19 30.53 33.08 35.96 39.15 42.67 46.59 50.91
2093.337 55.64 60.98 66.95 73.6 81.1 89.6 99.25 110.23 122.73 137.02
2112.631 153.36 172.04 193.47 217.97 245.94 277.84 314.02 354.85 400.41 450.22
2131.924 503.37 557.85 610.16 655.43 687.84 703.87 705.46 699.64 692.56 679.06
2151.218 647.74 606.66 569.4 527.29 466.76 389.51 308.77 238.23 184.58 147.3
2170.511 122.21 104.8 91.64 80.73 71.06 62.39 54.77 47.95 41.86 36.43
2189.804 31.67 27.65 24.28 21.52 19.34 17.55 16.04 14.85 13.92 13.17
2209.098 12.6 12.13 11.74 11.51 11.36 11.26 11.22 11.3 11.47 11.67
2228.391 11.93 12.29 12.74 13.24 13.77 14.3 14.83 15.34 15.7 16.01
2247.685 16.18 16.17 16.05 15.74 15.29 14.73 14.03 13.21 12.36 11.46
2266.978 10.49 9.55 8.64 7.76 7.02 6.47 6.0311 5.638 5.3004 5.011
2286.272 4.817 4.634 4.441 4.32 4.21 4.11 4.05 3.96 3.85 3.81
2305.565 3.77 3.71 3.71 3.69 3.61 3.53 3.49 3.48 3.43 3.38
2324.858 3.34 3.3 3.27 3.26 3.31 3.3 3.24 3.24 3.23 3.21
2344.152 3.23 3.24 3.26 3.25 3.2 3.17 3.19 3.18 3.13 3.13
2363.445 3.16 3.17 3.2 3.26 3.28 3.27 3.3 3.36 3.37 3.37
2382.739 3.36 3.33 3.33 3.33 3.33 3.33 3.31 3.28 3.26 3.23
2402.032 3.18 3.13 3.1 3.12 3.11 3.06 3.06 3.07 3.02 2.97
2421.326 2.98 3.01 3.01 3 2.99 2.95 2.95 2.95 2.94 2.92
2440.619 2.91 2.92 2.9 2.89 2.9 2.9 2.89 2.93 2.96 2.9
2459.912 2.89 2.92 2.95 2.96 2.98 3 3 3.04 3.06 3.09
2479.206 3.08 3.12 3.16 3.15 3.17 3.18 3.19 3.2 3.22 3.26
2498.499 3.35 3.41 3.4 3.41 3.43 3.47 3.52 3.57 3.59 3.63
2517.793 3.66 3.63 3.64 3.65 3.68 3.68 3.68 3.7 3.68 3.67
2537.086 3.69 3.66 3.67 3.69 3.65 3.63 3.67 3.69 3.71 3.75
2556.380 3.72 3.68 3.71 3.72 3.73 3.8 3.89 3.88 3.93 3.99
2575.673 4 4.07 4.22 4.32 4.32 4.33 4.416 4.532 4.59 4.701
2594.966 4.809 4.878 4.985 5.094 5.232 5.39143 5.5431 5.6852 5.8031 5.9019
2614.260 6.0137 6.1695 6.2827 6.3458 6.3709 6.3893 6.44 6.45 6.3804 6.2835
2633.553 6.1913 6.0398 5.9468 5.8955 5.7582 5.5659 5.42929 5.244 5.034 4.894
2652.847 4.782 4.618 4.502 4.423 4.26 4.14 4.13 4.13 4.05 3.99
2672.140 3.98 3.97 3.97 3.97 3.94 3.92 3.92 3.96 3.98 3.92
2691.434 3.9 3.95 3.93 3.89 3.89 3.9 3.92 3.88 3.88 3.88
2710.727 3.81 3.77 3.78 3.8 3.81 3.84 3.77 3.72 3.78 3.84
2730.020 3.79 3.73 3.75 3.78 3.79 3.77 3.67 3.6 3.62 3.6
2749.314 3.59 3.57 3.52 3.51 3.51 3.47 3.45 3.5 3.5 3.52
2768.607 3.52 3.57 3.66 3.63 3.66 3.7 3.7 3.78 3.9 3.99
2787.901 3.99 4.07 4.28 4.451 4.529 4.622 4.727 4.897 5.02 5.194
2807.194 5.3891 5.5073 5.6282 5.7556 5.8556 5.9186 6.1389 6.2968 6.41 6.47
2826.488 6.57 6.77 6.84 6.95 7.09 7.14 7.21 7.21 7.24 7.36
2845.781 7.38 7.31 7.26 7.18 7.15 7.04 6.88 6.75 6.61 6.54
2865.074 6.52 6.49 6.399 6.3713 6.41 6.3746 6.3347 6.3982 6.54 6.8
2884.368 7.1 7.44 7.79 8.13 8.57 9.07 9.58 10.06 10.49 10.93
2903.661 11.25 11.48 11.67 11.71 11.64 11.5 11.2 10.8 10.3 9.84
2922.955 9.42 9.03 8.75 8.53 8.47 8.4 8.55 8.98 9.65 10.68
2942.248 11.93 13.58 15.8 18.52 21.79 25.5 29.44 33.37 37.06 40.43
2961.542 43.43 46.05 48 49.14 49.32 48.41 46.72 44.35 41.09 36.92
2980.835 32.49 28.36 24.66 21.26 18.2 15.6 13.33 11.43 9.84 8.46
3000.128 7.52 6.91 6.1164 5.46094 5.122 4.801 4.517 4.26 4.14 4.07
3019.422 3.95 3.85 3.71 3.73 3.78 3.72 3.76 3.9 3.96 4.01
3038.715 4.15 4.29 4.476 4.538 4.59 4.774 4.815 4.925 4.966 4.937
3058.009 5.038 5.068 5.117 5.089 5.01 4.939 4.903 4.918 4.792 4.574
3077.302 4.553 4.549 4.427 4.33 4.27 4.25 4.21 4.03 3.92 3.87
3096.596 3.84 3.84 3.69 3.52 3.37 3.2 3.03 2.94 2.98 2.94
3115.889 2.8 2.6 2.54 2.56 2.46 2.24 2.04 1.88 1.74 1.68
3135.182 1.58 1.5 1.56 1.63 1.48 1.32 1.36 1.37 1.38 1.34
3154.476 1.18 1.12 1.12 1.11 1.15 1.17 1.14 1.23 1.3 1.26
3173.769 1.31 1.19 1.08 1.06 0.92 0.95 0.93 0.96 0.99 0.83
3193.063 0.84 0.9 0.88 0.85 0.91 1 1.01 0.85 0.72 0.84
3212.356 0.84 0.73 0.73 0.82 0.86 0.83 0.82 0.81 0.79 0.76
3231.650 0.9 1.01 0.97 0.97 0.97 0.99 1 0.98 0.99 1.03
3250.943 1.08 1.13 1.25 1.21 1.12 1.04 0.9 0.84 0.99 1.03
3270.236 0.83 0.92 0.98 0.84 0.83 0.92 0.94 0.88 0.95 1.04
3289.530 1.05 0.96 0.94 1.08 1.14 1.14 1.06 1.05 1.18 1.19
3308.823 1.14 1.24 1.41 1.4 1.44 1.52 1.56 1.56 1.6 1.66
3328.117 1.65 1.69 1.78 1.79 1.92 2.14 2.09 2.06 2.14 2.32
3347.410 2.41 2.39 2.41 2.41 2.53 2.64 2.71 2.78 2.81 2.85
3366.704 2.97 3.12 3.24 3.33 3.38 3.49 3.52 3.54 3.74 3.88
3385.997 3.93 4.1 4.2 4.2 4.44 4.73 4.875 5.015 5.262 5.48987
3405.290 5.7649 6.0517 6.17 6.52 7 7.19 7.49 7.91 8.3 8.75
3424.584 9.22 9.68 10.08 10.44 10.69 10.99 11.29 11.46 11.61 11.66
3443.877 11.5 11.34 11.12 10.62 10.26 9.93 9.48 9.05 8.65 8.22
3463.171 7.61 7.1 6.85 6.44 5.9856 5.5673 5.28 5.104 4.787 4.567
3482.464 4.37 4.18 4.04 3.88 3.76 3.7 3.49 3.22 3.27 3.44
3501.758 3.39 3.3 3.25 3.15 3.14 3.16 3.19 3.23 3.25 3.27
3521.051 3.27 3.22 3.31 3.43 3.42 3.43 3.51 3.6 3.62 3.61
3540.344 3.71 3.78 3.94 3.97 3.93 4.03 4.07 4.15 4.1 4.15
3559.638 4.27 4.21 4.11 4.07 4.12 4.13 4.01 3.92 3.99 4.08
3578.931 4 3.88 3.86 3.92 3.94 3.85 3.84 3.79 3.58 3.64
3598.225 3.75 3.63 3.67 3.7 3.65 3.61 3.65 3.65 3.56 3.51
3617.518 3.5 3.45 3.39 3.44 3.5 3.54 3.58 3.56 3.59 3.7
3636.812 3.75 3.73 3.69 3.65 3.74 3.84 3.83 3.84 3.87 3.95
3656.105 4 3.94 3.94 3.99 3.98 4.05 4.11 4.04 3.89 3.78
3675.398 3.78 3.73 3.72 3.77 3.81 3.8 3.72 3.67 3.68 3.67
3694.692 3.67 3.69 3.65 3.56 3.58 3.57 3.69 3.82 3.7 3.63
3713.985 3.66 3.75 3.76 3.78 3.9 3.95 4 4.04 3.92 3.93
3733.279 4.08 4.13 4.16 4.28 4.32 4.35 4.37 4.32 4.32 4.39
3752.572 4.468 4.569 4.583 4.539 4.521 4.513 4.451 4.35 4.36 4.35
3771.866 4.33 4.26 4.16 4.13 4.15 4.12 4.07 4.02 3.95 3.96
3791.159 3.97 3.94 3.87 3.86 3.95 4.04 3.98 3.94 3.94 3.88
3810.452 3.93 3.99 4.02 4.04 3.99 3.9 3.8 3.8 3.85 3.9
3829.746 3.84 3.74 3.67 3.48 3.46 3.61 3.66 3.63 3.58 3.49
3849.039 3.45 3.23 3.12 3.29 3.32 3.26 3.24 3.22 3.26 3.32
3868.333 3.23 3.29 3.32 3.26 3.26 3.25 3.21 3.17 3.24 3.29
3887.626 3.29 3.29 3.28 3.32 3.34 3.32 3.35 3.35 3.34 3.37
3906.920 3.39 3.34 3.36 3.38 3.23 3.19 3.29 3.29 3.25 3.3
3926.213 3.3 3.26 3.32 3.35 3.28 3.22 3.24 3.24 3.18 3.25
3945.506 3.29 3.27 3.31 3.32 3.22 3.23 3.28 3.29 3.35 3.31
3964.800 3.32 3.32 3.3 3.32 3.27 3.3 3.43 3.42 3.37 3.34
3984.093 3.27 3.24 3.27 3.34 3.34 3.34 3.37 3.28 3.25
##END=
