##TITLE=2,2,2-Triphenylacetophenone
##JCAMP-DX=4.24
##DATA TYPE=INFRARED SPECTRUM
##ORIGIN=NIST Mass Spectrometry Data Center
##OWNER=NIST Standard Reference Data Program
Collection (C) 2018 copyright by the U.S. Secretary of Commerce
on behalf of the United States of America. All rights reserved.
##CAS REGISTRY NO=466-37-5
##MOLFORM=C 26 H 20 O
##$NIST SOURCE=MSDC-IR
##SPECTROMETER/DATA SYSTEM=HP-GC/MS/IRD
##STATE=gas
##XUNITS=1/CM
##YUNITS=ABSORBANCE
##XFACTOR=1.0
##YFACTOR=0.000001200
##DELTAX=4.0
##FIRSTX=550.0
##LASTX=3846.0
##FIRSTY=0.000166
##MAXX=3846
##MINX=550
##MAXY=0.012
##MINY=0
##NPOINTS=825
##XYDATA=(X++(Y..Y))
550.0 138 93 5 31 21 57 81 103 126 195
590.0 363 669 1042 1137 865 652 785 1015 1257 1776
630.0 2632 2861 1981 1047 876 1358 1876 1746 1247 1042
670.0 1181 1529 2021 2656 3637 5333 7876 10000 9956 7758
710.0 5049 3102 2076 1623 1496 1777 2517 3405 3843 3625
750.0 2860 1989 1450 1172 979 897 962 987 795 522
790.0 337 240 204 200 192 203 231 268 364 589
830.0 1079 1647 1807 1346 742 417 247 168 124 80
870.0 39 9 16 8 0 6 14 81 122 132
910.0 150 174 195 152 101 79 107 147 139 100
950.0 62 57 67 98 134 162 213 282 352 487
990.0 717 956 1172 1321 1433 1483 1252 841 596 642
1030.0 938 1336 1387 935 437 197 146 105 82 105
1070.0 152 227 311 357 318 225 155 109 85 97
1110.0 89 66 35 48 70 73 129 198 242 289
1150.0 383 525 676 826 985 1211 1584 2236 3023 3341
1190.0 3154 3129 3523 4029 4296 4135 3534 2800 2160 1678
1230.0 1372 1214 1089 929 760 606 514 446 396 356
1270.0 305 259 214 189 171 139 115 104 111 123
1310.0 141 161 173 174 153 140 144 136 116 96
1350.0 72 63 61 68 84 101 114 129 126 116
1390.0 114 107 103 99 101 111 128 174 215 284
1430.0 415 661 1117 1666 1901 1547 999 673 576 598
1470.0 674 771 946 1253 1811 2671 3372 3203 2229 1254
1510.0 681 418 307 229 177 191 210 221 206 187
1550.0 190 198 219 252 329 477 662 839 966 1089
1590.0 1330 1599 1647 1383 972 623 428 330 268 249
1630.0 238 247 256 285 332 370 434 528 653 823
1670.0 1032 1263 1562 1971 2688 3766 4897 5184 4172 2724
1710.0 1667 1135 836 609 473 385 310 245 229 233
1750.0 234 222 207 204 205 199 198 194 195 216
1790.0 275 366 433 482 484 432 359 276 212 166
1830.0 129 100 86 86 92 99 99 116 156 191
1870.0 224 238 248 264 265 275 273 262 244 214
1910.0 192 171 159 158 158 197 258 329 401 458
1950.0 476 439 387 320 231 157 107 83 69 54
1990.0 51 36 22 21 13 21 32 24 13 19
2030.0 24 22 18 19 26 30 27 25 24 26
2070.0 27 13 5 9 14 17 20 20 17 17
2110.0 15 5 5 3 3 11 18 9 6 18
2150.0 19 11 13 22 19 27 27 17 17 31
2190.0 40 36 40 44 36 20 22 22 18 23
2230.0 30 28 27 28 26 19 14 19 25 23
2270.0 21 28 33 30 28 31 32 17 11 39
2310.0 60 85 111 96 77 69 66 83 89 80
2350.0 78 71 73 73 71 74 66 60 58 61
2390.0 58 43 36 46 50 42 36 40 49 59
2430.0 51 43 52 49 41 29 29 40 35 38
2470.0 41 25 18 19 30 24 16 27 32 33
2510.0 27 30 49 40 32 31 24 36 34 35
2550.0 37 27 40 35 18 26 29 38 50 53
2590.0 64 58 50 64 53 37 39 63 69 55
2630.0 38 36 47 39 35 36 40 36 35 36
2670.0 39 43 42 46 29 27 48 50 40 31
2710.0 31 33 35 43 37 37 44 42 57 57
2750.0 49 50 55 50 45 31 30 65 79 59
2790.0 48 63 68 60 66 69 65 61 60 61
2830.0 55 52 51 59 80 101 114 108 96 73
2870.0 59 83 109 106 88 95 99 72 73 100
2910.0 123 128 124 129 127 122 137 139 127 135
2950.0 141 134 142 156 161 161 168 196 206 221
2990.0 247 278 327 400 508 677 890 1187 1560 1893
3030.0 2148 2345 2403 2254 2082 2196 2780 3873 5303 6410
3070.0 6387 5238 3815 2940 2661 2576 2350 1902 1446 1138
3110.0 902 693 509 362 297 267 262 262 255 255
3150.0 250 256 279 265 210 163 137 110 109 121
3190.0 109 94 96 98 73 68 54 38 32 44
3230.0 71 65 59 57 44 17 30 52 52 57
3270.0 53 53 62 59 67 77 68 60 65 41
3310.0 38 78 89 75 93 112 103 107 104 95
3350.0 98 119 128 111 107 118 121 124 142 126
3390.0 118 148 157 123 100 94 89 116 114 86
3430.0 40 34 62 65 68 77 102 92 70 79
3470.0 97 99 105 108 92 89 83 65 85 95
3510.0 91 92 101 112 99 95 97 104 88 87
3550.0 66 50 64 82 110 112 96 89 107 125
3590.0 130 99 90 100 123 137 90 90 116 129
3630.0 145 143 140 107 124 176 154 117 128 140
3670.0 143 154 147 129 106 126 134 130 159 170
3710.0 155 115 99 136 119 119 144 118 146 171
3750.0 171 172 120 84 107 106 113 151 120 94
3790.0 93 120 157 134 106 136 160 137 133 143
3830.0 126 126 143 140 115
##END=
