##TITLE=3,4-Dimethylanisole
##JCAMP-DX=4.24
##DATA TYPE=INFRARED SPECTRUM
##ORIGIN=EPA-IR VAPOR PHASE LIBRARY
##OWNER=SRD/NIST
Collection (C) 2018 copyright by the U.S. Secretary of Commerce
on behalf of the United States of America. All rights reserved.
##CAS REGISTRY NO=4685-47-6
##MOLFORM=C 9 H 12 O
##$NIST SOURCE=MSDC-IR
##STATE=gas
##XUNITS=1/CM
##YUNITS=ABSORBANCE
##XFACTOR=1.
##YFACTOR=0.001
##DELTAX=1.92934
##FIRSTX=549.9
##LASTX=3999.5
##FIRSTY=4.38
##MAXX=3999.53
##MINX=549.863
##MAXY=0.12171
##MINY=0
##NPOINTS=1789
##XYDATA=(X++(Y..Y))
549.863 4.38 4.78 5.26 5.69 6.09 6.42 6.64 6.65 6.52 6.37
569.156 6.16 5.76 5.41 5.06 4.75 4.62 4.44 4.29 4.14 3.9
588.450 3.7 3.5 3.25 2.99 2.83 2.67 2.61 2.58 2.4541 2.3486
607.743 2.1474 2.0148 1.9025 1.848 1.8157 1.7443 1.7449 1.6631 1.52918 1.477
627.037 1.379 1.375 1.409 1.294 1.279 1.267 1.225 1.198 1.182 1.159
646.330 1.106 1.098 1.043 1.035 1.001 0.945 0.907 1.011 1.111 1.122
665.624 1.093 1.068 1.144 1.161 1.267 1.393 1.4596 1.60751 1.7934 2.1326
684.917 2.5102 2.9 3.34 3.76 4.37 5.21 6.37 7.89 9.39 10.62
704.210 11.53 12.32 13.02 13.38 13.24 12.8 12.22 11.34 10.29 9.01
723.504 7.33 5.62 4.26 3.36 2.77 2.4957 2.4119 2.3109 2.1652 2.1551
742.797 2.2126 2.1294 2.0821 2.1006 2.0547 1.9841 1.8995 1.8571 1.8974 1.9286
762.091 1.9962 2.1044 2.2148 2.4716 2.86 3.26 3.74 4.36 5.16 6.04
781.384 7.08 8.18 9.4 10.83 12.44 14.37 16.44 17.96 18.43 18.58
800.678 18.78 19.1 19.66 20.4 21.4 22.02 20.55 17.55 15.42 14.17
819.971 13.21 12.33 11.51 10.76 10.05 9.65 9.37 9.24 9.55 10.14
839.264 11.04 11.89 12.1 12 12.06 12.35 12.67 13.03 13.38 13.63
858.558 13.98 14.6 15.35 15.71 15.16 13.85 12.44 11.3 10.39 9.46
877.851 8.51 7.59 6.68 5.87 5.15 4.49 3.98 3.68 3.5 3.35
897.145 3.26 3.19 3.23 3.37 3.52 3.7 3.99 4.33 4.66 4.99
916.438 5.35 5.65 5.92 6.15 6.29 6.33 6.25 6.05 5.75 5.44
935.732 5.12 4.76 4.45 4.22 3.98 3.82 3.73 3.62 3.57 3.57
955.025 3.58 3.69 3.73 3.8 3.98 4.13 4.3 4.5 4.77 5.03
974.318 5.28 5.62 6.08 6.63 7.21 7.86 8.57 9.29 9.97 10.49
993.612 10.92 11.3 11.56 11.73 11.82 11.86 11.74 11.56 11.52 11.54
1012.905 11.77 12.25 12.92 13.83 14.97 16.37 18.05 20 22.35 25.21
1032.199 28.51 32.28 36.43 40.69 44.89 48.89 52.41 55.25 57.1 57.8
1051.492 57.38 55.76 53.05 49.58 45.53 40.93 35.97 31.15 26.58 22.5
1070.786 19.19 16.57 14.59 13.13 12.03 11.25 10.6 10.11 9.8 9.63
1090.079 9.69 10.04 10.67 11.69 13.12 15.09 17.54 20.34 23.31 26.34
1109.372 29.43 32.33 34.76 36.37 36.84 36.28 35.01 33.15 30.87 28.26
1128.666 25.54 22.85 20.47 18.97 18.41 18.44 19.03 20.35 22.31 24.97
1147.959 28.21 32.02 35.97 38.86 40.02 39.77 39.15 38.59 37.5 35.55
1167.253 32.4 27.68 22.39 17.93 14.9 13.04 12.13 12.04 12.49 13.62
1186.546 15.41 17.87 21.11 25.41 30.32 35.24 40 44.05 46.89 48.89
1205.840 50.21 49.93 48.37 45.93 42.38 37.91 33.09 29.27 26.72 24.79
1225.133 24.08 24.8 26.88 30.21 34.88 41.04 48.76 57.98 68.12 78.68
1244.426 88.71 97.32 104.19 108.84 111.15 111.15 108.82 103.81 96.19 86.95
1263.720 77.21 68.28 61.06 56.18 53.61 53.02 54.04 56.25 59.2 62.49
1283.013 65.67 68.53 71.01 72.86 74 74.08 72.81 70.4 67.31 64.05
1302.307 60.58 56.57 52.07 47.21 42.06 37.1 32.62 28.52 24.71 21.06
1321.600 17.7 14.83 12.45 10.62 9.29 8.32 7.62 7.08 6.71 6.42
1340.894 6.17 6.04 5.93 5.83 5.78 5.78 5.88 6.04 6.22 6.44
1360.187 6.71 6.98 7.31 7.64 8.02 8.5 8.89 9.12 9.24 9.34
1379.480 9.56 9.86 10.05 10.07 9.96 9.84 9.78 9.86 10.11 10.51
1398.774 11.05 11.77 12.7 13.84 15.1 16.33 17.51 18.54 19.34 19.95
1418.067 20.34 20.52 20.57 20.53 20.43 20.29 20.35 20.68 21.31 22.22
1437.361 23.3 24.46 25.64 26.72 27.8 28.97 30.37 32.05 33.76 35.24
1456.654 36.64 38.18 39.87 41.11 41.44 41.23 40.67 40.15 39.8 39.41
1475.948 39.29 39.44 39.93 41.23 43.96 48.64 55.38 64.28 75.27 87.22
1495.241 99.04 109.46 116.76 120.71 121.71 119.93 115.34 108.34 98.62 85.58
1514.534 71.2 57.63 46.42 38.06 31.55 26.91 23.52 20.99 19.15 17.78
1533.828 16.73 15.97 15.41 15 14.72 14.69 14.78 14.87 15.08 15.41
1553.121 15.88 16.5 17.18 17.92 18.81 19.84 20.99 22.23 23.52 24.87
1572.415 26.18 27.39 28.48 29.55 30.46 31.2 31.83 32.42 33.13 33.94
1591.708 35.01 36.57 38.74 41.41 44.35 47.49 50.42 52.81 54.45 55.21
1611.002 55.12 54.11 52.1 49.06 45.36 41.2 36.77 32.42 28.49 24.9
1630.295 21.61 18.76 16.29 14.18 12.56 11.31 10.28 9.43 8.69 8.06
1649.588 7.47 6.96 6.55 6.22 5.91 5.63 5.38 5.12 4.91 4.72
1668.882 4.55 4.45 4.33 4.14 3.98 3.86 3.73 3.59 3.42 3.25
1688.175 3.18 3.11 3.02 2.93 2.83 2.79 2.77 2.8 2.79 2.79
1707.469 2.87 2.92 2.96 3.02 3.03 3.09 3.18 3.26 3.28 3.25
1726.762 3.26 3.25 3.25 3.22 3.19 3.18 3.11 3.01 2.94 2.87
1746.056 2.77 2.68 2.61 2.473 2.3101 2.2227 2.1725 2.1395 2.0882 2.0483
1765.349 1.9993 1.9192 1.8485 1.7799 1.7283 1.7295 1.713 1.6513 1.6212 1.61472
1784.642 1.6339 1.59073 1.57501 1.6097 1.61401 1.6418 1.7044 1.737 1.7346 1.8091
1803.936 1.8911 1.9285 1.9877 2.0651 2.1397 2.2354 2.3217 2.3935 2.5018 2.69
1823.229 2.81 2.84 2.94 3.04 3.11 3.13 3.1 3.15 3.2 3.23
1842.523 3.22 3.17 3.12 3.11 3.11 3.14 3.19 3.23 3.25 3.27
1861.816 3.3 3.29 3.31 3.31 3.17 3.02 2.92 2.78 2.63 2.4989
1881.110 2.3215 2.1232 1.9948 1.8619 1.7165 1.6656 1.61022 1.55175 1.54418 1.54673
1900.403 1.53793 1.5028 1.52453 1.60822 1.6385 1.6692 1.7019 1.7337 1.7501 1.7423
1919.696 1.7753 1.7656 1.7447 1.7253 1.6796 1.6245 1.61125 1.6534 1.7148 1.7477
1938.990 1.7365 1.8091 1.9527 2.0294 2.1054 2.2225 2.3315 2.4342 2.5121 2.57
1958.283 2.6 2.65 2.72 2.76 2.75 2.69 2.62 2.57 2.55 2.4615
1977.577 2.3052 2.205 2.2231 2.1991 2.098 2.0706 2.099 2.1417 2.1152 2.0978
1996.870 2.1619 2.2173 2.2339 2.2548 2.2816 2.2818 2.3216 2.3151 2.2414 2.1884
2016.164 2.1304 2.107 2.0669 2.0182 2.0144 2.0162 2.0371 2.07 2.1064 2.1435
2035.457 2.155 2.1714 2.2103 2.2186 2.1637 2.1319 2.1147 2.0942 2.0537 1.9938
2054.750 1.9785 1.9831 1.9489 1.9099 1.9228 1.9059 1.8825 1.9201 1.9486 1.9778
2074.044 2.0104 2.0316 2.048 2.052 2.0594 2.0944 2.1344 2.1361 2.1472 2.1638
2093.337 2.1562 2.0966 2.0608 2.0557 2.0305 2.002 1.9419 1.8692 1.8443 1.841
2112.631 1.8239 1.7729 1.6961 1.623 1.60982 1.5978 1.54322 1.5015 1.4693 1.4666
2131.924 1.4334 1.385 1.343 1.337 1.366 1.358 1.339 1.363 1.384 1.41
2151.218 1.4346 1.4422 1.4924 1.52484 1.54381 1.59663 1.6442 1.6934 1.7566 1.7941
2170.511 1.868 1.8972 1.8256 1.7869 1.812 1.7865 1.7449 1.7398 1.7024 1.6391
2189.804 1.59527 1.5962 1.59186 1.57413 1.58852 1.6211 1.6243 1.6202 1.6408 1.6745
2209.098 1.6754 1.6573 1.6762 1.6705 1.58776 1.51734 1.4614 1.4 1.343 1.282
2228.391 1.238 1.186 1.165 1.15 1.098 1.112 1.12 1.101 1.074 1.014
2247.685 0.987 0.972 0.939 0.913 0.901 0.897 0.931 0.925 0.927 0.92
2266.978 0.92 0.966 0.925 0.921 0.957 0.954 0.984 1.02 1.039 1.062
2286.272 1.071 1.078 1.115 1.156 1.172 1.184 1.218 1.225 1.206 1.235
2305.565 1.263 1.273 1.305 1.274 1.313 1.351 1.309 1.291 1.271 1.263
2324.858 1.255 1.214 1.177 1.161 1.14 1.135 1.097 1.07 1.046 1.012
2344.152 1.012 0.994 0.978 0.97 0.941 0.908 0.896 0.923 0.914 0.873
2363.445 0.919 0.97 0.968 0.943 0.917 0.931 0.933 0.935 0.939 0.938
2382.739 0.967 0.986 0.956 0.953 0.958 0.968 1.022 1.046 1.094 1.127
2402.032 1.137 1.173 1.169 1.158 1.194 1.197 1.19 1.179 1.166 1.198
2421.326 1.244 1.266 1.234 1.238 1.28 1.291 1.275 1.23 1.186 1.224
2440.619 1.281 1.3 1.326 1.343 1.332 1.338 1.349 1.301 1.282 1.338
2459.912 1.354 1.333 1.304 1.263 1.243 1.269 1.244 1.183 1.184 1.205
2479.206 1.212 1.169 1.156 1.207 1.242 1.256 1.275 1.283 1.26 1.246
2498.499 1.238 1.214 1.248 1.241 1.175 1.168 1.189 1.191 1.224 1.266
2517.793 1.269 1.246 1.234 1.208 1.245 1.319 1.366 1.4316 1.415 1.418
2537.086 1.4984 1.5248 1.56093 1.60449 1.5849 1.59478 1.61813 1.61463 1.57277 1.5447
2556.380 1.487 1.4249 1.4312 1.389 1.359 1.347 1.277 1.258 1.267 1.202
2575.673 1.203 1.232 1.182 1.163 1.151 1.141 1.186 1.196 1.103 1.079
2594.966 1.081 1.06 1.022 1.019 1.068 1.029 0.997 1.006 0.984 0.956
2614.260 0.943 0.955 0.954 0.926 0.952 0.926 0.868 0.874 0.864 0.863
2633.553 0.867 0.86 0.881 0.9 0.929 0.933 0.92 0.947 0.95 0.894
2652.847 0.906 0.943 0.927 0.965 0.908 0.829 0.842 0.808 0.782 0.747
2672.140 0.721 0.738 0.706 0.731 0.79 0.865 0.909 0.877 0.935 0.994
2691.434 1.051 1.123 1.125 1.128 1.099 1.075 1.171 1.291 1.309 1.317
2710.727 1.373 1.4408 1.4635 1.4286 1.5037 1.61727 1.7322 1.8461 1.9358 2.037
2730.020 2.2051 2.4221 2.64 2.79 2.9 3.03 3.06 3.05 3 2.92
2749.314 2.82 2.68 2.54 2.4511 2.3743 2.3969 2.4251 2.4303 2.4755 2.53
2768.607 2.63 2.77 2.73 2.76 2.94 3.01 3.06 3.19 3.23 3.32
2787.901 3.46 3.54 3.74 4.04 4.3 4.47 4.64 4.93 5.19 5.46
2807.194 5.87 6.2 6.61 7.19 7.75 8.39 9.06 9.99 11.17 12.5
2826.488 14.15 16.06 18.23 20.48 22.77 24.71 26.21 27.45 28.24 28.85
2845.781 29.08 28.85 28.41 27.71 26.88 26.18 25.9 26.01 26.57 27.48
2865.074 28.58 29.87 31.1 32.25 33.3 34.11 34.62 34.9 35.11 35.1
2884.368 34.93 34.72 34.57 34.41 34.24 34.32 34.58 35.03 35.77 36.83
2903.661 38.04 39.45 41.09 42.85 44.76 46.85 49.18 51.44 53.81 56.53
2922.955 59.49 62.81 66.34 69.71 72.75 75.39 77.71 79.58 80.65 80.83
2942.248 80.14 78.64 76.62 74.34 71.96 69.44 66.84 64.04 60.76 57.39
2961.542 54.41 51.91 49.79 48.02 46.45 44.94 43.51 42.2 41.02 39.95
2980.835 39.22 38.67 38.03 37.45 37.46 38.06 39.02 40.29 41.92 43.45
3000.128 44.26 44.59 44.49 43.98 43.36 42.31 40.92 39.51 37.85 36.3
3019.422 35.3 34.69 34.28 33.96 33.49 32.64 31.55 30.31 28.73 26.97
3038.715 25.1 23.02 21.19 19.76 18.66 17.8 17.26 17 16.77 16.81
3058.009 16.91 16.97 17.09 17.27 17.28 17.16 17.11 16.9 16.42 15.96
3077.302 15.42 14.76 14.22 13.56 12.91 12.2 11.37 10.66 10 9.51
3096.596 9.01 8.39 7.85 7.36 6.92 6.54 6.18 5.93 5.8 5.54
3115.889 5.32 5.2 4.94 4.68 4.44 4.2 4.03 3.92 3.7 3.49
3135.182 3.29 2.94 2.67 2.3749 2.0098 1.8919 1.79 1.7224 1.6857 1.4948
3154.476 1.4283 1.378 1.28 1.248 1.375 1.395 1.103 0.881 0.878 0.905
3173.769 0.742 0.569 0.6 0.845 0.876 0.651 0.554 0.622 0.605 0.662
3193.063 0.629 0.47 0.5 0.545 0.538 0.5 0.43 0.38 0.35 0.34
3212.356 0.4 0.33 0.23 0.25 0.23 0.27 0.34 0.19 0.04 0.06
3231.650 0.15 0.26 0.24 0.24 0.24 0.2 0.13 0.15 0.2 0.09
3250.943 0.08 0.09 0.08 0.04 0.14 0.2 0.18 0.17 0.19 0.15
3270.236 0 0.12 0.24 0.29 0.33 0.26 0.23 0.22 0.27 0.38
3289.530 0.37 0.25 0.12 0.15 0.37 0.38 0.26 0.16 0 0.15
3308.823 0.23 0.24 0.32 0.23 0.19 0.13 0.15 0.13 0.21 0.37
3328.117 0.39 0.4 0.28 0.13 0.23 0.31 0.3 0.27 0.17 0.22
3347.410 0.34 0.2 0.08 0.3 0.29 0.31 0.43 0.33 0.24 0.3
3366.704 0.38 0.46 0.5 0.35 0.35 0.43 0.49 0.5 0.29 0.31
3385.997 0.38 0.46 0.521 0.36 0.32 0.39 0.36 0.37 0.34 0.34
3405.290 0.49 0.35 0.27 0.49 0.51 0.51 0.46 0.44 0.529 0.45
3424.584 0.33 0.4 0.42 0.27 0.16 0.34 0.592 0.64 0.56 0.39
3443.877 0.4 0.43 0.44 0.48 0.41 0.46 0.44 0.38 0.48 0.51
3463.171 0.46 0.44 0.49 0.43 0.37 0.5 0.572 0.61 0.614 0.623
3482.464 0.626 0.586 0.598 0.614 0.663 0.639 0.574 0.633 0.575 0.558
3501.758 0.567 0.41 0.48 0.539 0.45 0.47 0.524 0.538 0.576 0.686
3521.051 0.666 0.549 0.612 0.725 0.553 0.45 0.5 0.575 0.564 0.644
3540.344 0.794 0.7 0.51 0.51 0.618 0.579 0.48 0.47 0.586 0.675
3559.638 0.573 0.49 0.588 0.583 0.549 0.555 0.533 0.535 0.547 0.633
3578.931 0.643 0.581 0.546 0.546 0.535 0.45 0.48 0.525 0.553 0.5
3598.225 0.46 0.547 0.535 0.685 0.701 0.525 0.583 0.571 0.51 0.49
3617.518 0.48 0.557 0.658 0.613 0.556 0.49 0.47 0.568 0.524 0.41
3636.812 0.38 0.526 0.617 0.63 0.554 0.4 0.45 0.639 0.689 0.586
3656.105 0.523 0.534 0.527 0.51 0.547 0.579 0.61 0.536 0.44 0.611
3675.398 0.73 0.665 0.564 0.47 0.51 0.547 0.542 0.55 0.54 0.51
3694.692 0.559 0.675 0.714 0.654 0.592 0.613 0.635 0.664 0.702 0.642
3713.985 0.6 0.593 0.568 0.706 0.77 0.757 0.719 0.684 0.73 0.74
3733.279 0.753 0.788 0.825 0.86 0.86 0.772 0.77 0.686 0.53 0.615
3752.572 0.722 0.64 0.622 0.691 0.685 0.661 0.63 0.641 0.651 0.766
3771.866 0.851 0.77 0.682 0.639 0.598 0.64 0.741 0.697 0.687 0.716
3791.159 0.647 0.665 0.687 0.683 0.619 0.631 0.738 0.729 0.714 0.68
3810.452 0.643 0.567 0.577 0.666 0.659 0.58 0.62 0.687 0.706 0.664
3829.746 0.625 0.759 0.742 0.582 0.635 0.665 0.57 0.694 0.721 0.639
3849.039 0.703 0.663 0.643 0.691 0.716 0.611 0.527 0.593 0.602 0.642
3868.333 0.724 0.753 0.764 0.772 0.809 0.816 0.832 0.82 0.882 0.954
3887.626 0.862 0.778 0.821 0.839 0.771 0.83 0.873 0.845 0.746 0.725
3906.920 0.798 0.841 0.834 0.849 0.887 0.86 0.813 0.773 0.784 0.76
3926.213 0.852 0.896 0.796 0.77 0.789 0.809 0.802 0.874 0.937 0.872
3945.506 0.921 0.932 0.844 0.836 0.952 1.018 0.916 0.795 0.78 0.898
3964.800 0.916 0.976 1.018 1.003 1.016 1.009 1.013 1.007 1.036 0.974
3984.093 0.938 1.004 1.054 1.12 1.062 0.972 1.053 1.09 1.047
##END=
