##TITLE=2,4,4-Trimethylcyclopentanone
##JCAMP-DX=4.24
##DATA TYPE=INFRARED SPECTRUM
##ORIGIN=NIST Mass Spectrometry Data Center
##OWNER=NIST Standard Reference Data Program
Collection (C) 2018 copyright by the U.S. Secretary of Commerce
on behalf of the United States of America. All rights reserved.
##CAS REGISTRY NO=4694-12-6
##MOLFORM=C 8 H 14 O
##$NIST SOURCE=MSDC-IR
##SPECTROMETER/DATA SYSTEM=HP-GC/MS/IRD
##STATE=gas
##XUNITS=1/CM
##YUNITS=ABSORBANCE
##XFACTOR=1.0
##YFACTOR=0.000003400
##DELTAX=4.0
##FIRSTX=550.0
##LASTX=3846.0
##FIRSTY=0.000371
##MAXX=3846
##MINX=550
##MAXY=0.034
##MINY=0
##NPOINTS=825
##XYDATA=(X++(Y..Y))
550.0 109 120 129 122 132 121 79 57 69 72
590.0 68 74 78 85 82 73 62 60 62 60
630.0 53 38 22 10 17 7 8 32 28 14
670.0 7 2 9 14 5 20 42 47 54 74
710.0 95 124 158 167 180 199 182 153 138 118
750.0 90 70 59 36 30 44 48 44 43 48
790.0 45 24 7 19 23 21 34 26 20 26
830.0 30 35 42 53 67 83 109 129 146 174
870.0 190 193 202 202 202 216 234 242 233 229
910.0 208 189 168 140 129 121 115 126 154 179
950.0 204 222 220 205 180 156 134 126 129 133
990.0 138 141 151 172 200 229 257 271 272 270
1030.0 252 241 246 252 252 254 267 279 302 338
1070.0 369 392 397 386 377 368 370 399 450 503
1110.0 572 664 750 828 909 989 1031 1044 1029 978
1150.0 908 836 771 729 717 753 817 871 909 901
1190.0 827 715 578 444 359 320 310 322 346 382
1230.0 422 454 483 522 560 599 619 609 568 528
1270.0 498 478 499 575 677 750 771 729 630 508
1310.0 398 320 270 239 210 186 171 165 166 182
1350.0 222 295 401 534 668 856 1008 1008 987 955
1390.0 873 760 681 642 627 639 641 624 582 528
1430.0 488 479 517 609 737 885 1026 1142 1213 1192
1470.0 1089 937 770 601 442 323 239 184 147 125
1510.0 113 106 95 88 80 69 66 64 56 52
1550.0 54 55 53 55 54 52 58 56 58 56
1590.0 57 69 71 68 78 78 73 74 80 83
1630.0 87 91 94 95 97 99 106 117 130 136
1670.0 146 161 185 212 242 287 334 385 451 526
1710.0 598 691 813 974 1224 1627 2277 3303 4807 6675
1750.0 8416 9588 10000 9557 8260 6071 3764 2226 1386 934
1790.0 696 564 485 425 383 343 308 272 232 199
1830.0 172 149 131 117 109 104 91 83 75 69
1870.0 69 66 65 65 64 59 52 48 46 41
1910.0 41 38 40 35 27 30 31 28 26 24
1950.0 23 31 31 26 31 32 36 41 35 29
1990.0 32 33 34 38 35 29 32 36 37 35
2030.0 29 32 31 25 22 24 24 23 27 23
2070.0 13 11 16 18 18 17 18 20 23 20
2110.0 18 14 13 11 13 14 12 12 11 17
2150.0 26 23 21 25 25 23 20 15 14 16
2190.0 13 11 11 12 13 9 11 12 8 13
2230.0 14 10 11 9 4 1 7 12 9 12
2270.0 18 15 15 14 16 21 22 19 17 17
2310.0 20 22 23 23 22 21 22 20 24 22
2350.0 24 25 24 28 34 32 24 26 27 23
2390.0 27 29 30 25 22 22 21 21 20 20
2430.0 17 12 9 13 16 16 13 17 26 22
2470.0 15 19 22 16 18 17 13 14 17 14
2510.0 9 7 7 11 16 12 9 12 16 18
2550.0 18 19 18 18 20 23 18 16 23 22
2590.0 25 33 32 30 30 30 32 32 31 34
2630.0 35 29 29 31 37 41 41 40 42 42
2670.0 39 38 44 45 42 39 40 48 52 54
2710.0 61 69 81 90 102 118 130 140 144 139
2750.0 128 115 109 108 113 117 115 121 126 131
2790.0 137 144 165 181 196 218 242 260 285 315
2830.0 351 399 455 542 669 830 1035 1289 1586 1916
2870.0 2237 2523 2725 2807 2830 2811 2739 2672 2625 2602
2910.0 2621 2695 2859 3129 3492 3925 4385 4818 5213 5666
2950.0 6316 7118 7827 8077 7741 7019 5829 4350 3116 2245
2990.0 1606 1163 825 580 450 372 321 285 261 232
3030.0 197 178 172 163 150 149 148 139 135 136
3070.0 127 121 128 129 129 128 120 124 121 114
3110.0 112 107 105 109 106 100 92 92 99 98
3150.0 99 103 102 102 110 114 115 110 106 109
3190.0 103 104 102 85 82 81 70 66 63 60
3230.0 53 49 54 52 44 41 37 39 47 46
3270.0 37 31 30 37 40 34 37 49 58 48
3310.0 43 42 29 27 25 22 25 33 34 26
3350.0 23 33 36 27 23 23 26 28 21 15
3390.0 11 10 14 17 18 14 22 29 21 17
3430.0 25 42 46 41 36 37 31 34 53 68
3470.0 83 101 133 164 179 188 201 202 190 163
3510.0 135 119 106 85 64 56 52 43 35 32
3550.0 27 32 40 33 18 9 6 7 1 6
3590.0 15 7 0 6 16 24 24 23 17 17
3630.0 18 17 16 7 16 23 23 17 8 9
3670.0 12 6 4 14 19 20 26 22 11 11
3710.0 22 26 19 15 20 27 29 22 14 19
3750.0 30 32 27 30 29 23 9 7 20 26
3790.0 27 25 28 35 34 31 39 41 38 36
3830.0 32 31 36 42 41
##END=
