##TITLE=Chlorfenvinphos
##JCAMP-DX=4.24
##DATA TYPE=INFRARED SPECTRUM
##ORIGIN=NIST Mass Spectrometry Data Center
##OWNER=NIST Standard Reference Data Program
Collection (C) 2018 copyright by the U.S. Secretary of Commerce
on behalf of the United States of America. All rights reserved.
##CAS REGISTRY NO=470-90-6
##MOLFORM=C 12 H 14 Cl 3 O 4 P
##$NIST SOURCE=MSDC-IR
##SPECTROMETER/DATA SYSTEM=HP-GC/MS/IRD
##STATE=gas
##XUNITS=1/CM
##YUNITS=ABSORBANCE
##XFACTOR=1.0
##YFACTOR=0.000035800
##DELTAX=4.0
##FIRSTX=550.0
##LASTX=3846.0
##FIRSTY=0.017757
##MAXX=3846
##MINX=550
##MAXY=0.358
##MINY=0
##NPOINTS=825
##XYDATA=(X++(Y..Y))
550.0 496 328 230 240 268 306 306 245 150 73
590.0 31 11 5 3 7 12 28 61 114 188
630.0 269 342 387 378 307 215 149 114 102 100
670.0 98 98 109 124 148 175 201 224 239 249
710.0 260 267 260 241 222 210 214 236 277 340
750.0 422 503 566 604 640 734 954 1318 1721 1916
790.0 1781 1457 1171 1004 950 987 1094 1148 1019 773
830.0 595 577 735 1123 1724 2195 2079 1490 1011 837
870.0 711 511 357 297 283 294 321 369 446 561
910.0 717 906 1082 1180 1176 1129 1128 1230 1450 1770
950.0 2122 2390 2483 2424 2312 2203 2088 1940 1751 1543
990.0 1365 1263 1261 1372 1613 2033 2706 3751 5266 7154
1030.0 8961 10000 9905 8931 7615 6398 5541 5110 4947 4735
1070.0 4260 3612 3046 2707 2535 2384 2189 2032 1960 1842
1110.0 1556 1210 952 806 728 698 704 733 752 725
1150.0 667 618 584 560 536 509 477 440 397 354
1190.0 313 276 248 233 233 262 339 491 667 709
1230.0 564 387 293 274 294 337 376 400 430 489
1270.0 595 765 1022 1396 1882 2426 2929 3234 3205 2909
1310.0 2556 2211 1819 1400 1033 760 575 458 387 347
1350.0 326 327 354 418 531 679 773 737 633 559
1390.0 533 529 500 425 333 264 227 209 207 218
1430.0 242 274 304 319 322 332 377 485 650 833
1470.0 958 946 789 576 410 311 249 204 170 145
1510.0 127 119 118 119 121 128 147 185 253 334
1550.0 383 365 320 308 351 447 616 885 1190 1302
1590.0 1057 646 367 254 219 217 233 258 289 320
1630.0 349 371 391 401 386 340 272 203 149 114
1670.0 92 73 59 50 44 41 39 39 39 38
1710.0 39 40 44 50 61 71 74 64 49 42
1750.0 40 40 41 44 45 46 45 43 41 41
1790.0 43 46 48 49 52 51 51 52 52 51
1830.0 50 48 48 46 45 44 44 43 42 43
1870.0 43 44 44 46 47 47 48 46 41 33
1910.0 27 21 17 14 13 10 8 7 6 6
1950.0 5 3 3 2 1 1 1 1 0 0
1990.0 1 1 0 1 2 1 1 1 0 0
2030.0 0 2 1 0 1 1 0 1 3 2
2070.0 1 3 4 3 4 3 3 4 3 4
2110.0 5 6 5 5 4 3 4 3 2 2
2150.0 3 3 3 4 3 4 4 3 4 4
2190.0 4 3 2 3 4 3 2 2 3 2
2230.0 2 3 2 2 3 4 5 6 5 6
2270.0 5 6 7 6 7 8 7 7 8 7
2310.0 9 11 12 13 14 15 16 14 14 13
2350.0 11 11 10 10 9 8 9 9 8 9
2390.0 8 7 7 6 5 6 5 6 5 5
2430.0 6 5 6 5 7 6 7 6 6 7
2470.0 6 7 6 6 7 8 9 8 7 8
2510.0 8 7 7 6 4 3 4 3 3 3
2550.0 2 4 3 5 4 4 5 6 6 6
2590.0 7 8 7 7 8 8 7 6 7 6
2630.0 5 6 5 5 5 5 6 6 5 5
2670.0 6 7 9 8 9 8 9 8 9 10
2710.0 10 11 11 13 16 18 20 21 20 19
2750.0 19 20 20 21 23 26 30 32 33 33
2790.0 32 31 30 29 28 29 32 33 35 39
2830.0 42 45 48 50 54 60 67 75 85 100
2870.0 121 146 173 193 200 201 203 218 243 275
2910.0 313 348 372 384 397 433 514 622 689 660
2950.0 565 480 438 440 477 536 618 733 881 1010
2990.0 1032 951 841 726 604 498 417 352 296 250
3030.0 208 175 149 128 111 97 89 82 80 82
3070.0 86 89 93 101 113 133 175 239 270 233
3110.0 164 111 75 55 45 39 34 31 29 28
3150.0 27 25 23 22 21 22 20 19 20 18
3190.0 17 16 15 14 15 15 14 14 14 13
3230.0 12 11 12 13 12 11 10 9 10 8
3270.0 7 8 8 7 7 7 6 7 5 4
3310.0 4 2 4 5 4 5 4 4 5 4
3350.0 3 3 4 3 3 4 5 5 4 4
3390.0 3 2 3 3 3 4 2 3 3 3
3430.0 4 3 4 6 4 5 5 6 7 7
3470.0 6 5 4 4 6 6 4 4 4 3
3510.0 2 3 4 3 4 3 5 3 1 3
3550.0 5 7 6 4 5 6 5 4 3 3
3590.0 5 5 4 5 4 3 4 3 4 5
3630.0 4 4 5 5 4 2 3 2 3 4
3670.0 4 5 4 4 5 5 6 6 5 6
3710.0 7 6 5 6 7 6 5 6 7 8
3750.0 10 9 10 9 10 9 8 7 8 8
3790.0 7 8 7 8 8 7 7 6 6 7
3830.0 7 8 9 7 6
##END=
