##TITLE=3-Bromo-1,2-propanediol
##JCAMP-DX=4.24
##DATA TYPE=INFRARED SPECTRUM
##ORIGIN=EPA-IR VAPOR PHASE LIBRARY
##OWNER=SRD/NIST
Collection (C) 2018 copyright by the U.S. Secretary of Commerce
on behalf of the United States of America. All rights reserved.
##CAS REGISTRY NO=4704-77-2
##MOLFORM=C 3 H 7 Br O 2
##$NIST SOURCE=MSDC-IR
##STATE=gas
##XUNITS=1/CM
##YUNITS=ABSORBANCE
##XFACTOR=1.
##YFACTOR=0.001
##DELTAX=1.92898
##FIRSTX=549.8
##LASTX=4000.7
##FIRSTY=3.2212
##MAXX=4000.7
##MINX=549.759
##MAXY=0.0318212
##MINY=0
##NPOINTS=1790
##XYDATA=(X++(Y..Y))
549.759 3.2212 3.3412 3.4312 3.3312 3.2512 3.2112 3.1512 3.0412 2.9012 2.8412
569.049 2.8312 2.9412 3.0312 3.3112 3.3112 3.3412 3.4512 3.3912 3.4012 3.4512
588.339 3.5512 3.6612 3.5812 3.2612 3.0812 3.0012 2.7712 2.5112 2.2912 2.3212
607.628 2.4112 2.2912 2.3012 2.5212 2.5312 2.6212 2.7012 2.7212 2.7912 2.6912
626.918 2.5812 2.6412 2.6712 2.5412 2.4912 2.5012 2.5112 2.5512 2.6512 2.7412
646.208 3.0112 3.3812 3.6012 3.7512 4.0012 4.3512 4.6712 4.9512 5.3112 5.7012
665.498 6.0612 6.3512 6.5412 6.8212 6.9912 6.9312 6.8212 6.5912 6.1812 5.9712
684.787 5.8512 5.6512 5.4712 5.1012 4.6612 4.2112 3.7312 3.3312 3.1012 2.9112
704.077 2.5612 2.3612 2.3412 2.3012 2.2012 2.1512 1.9812 1.8312 1.9012 1.8912
723.367 1.8212 1.7412 1.6312 1.6712 1.6712 1.5612 1.7512 1.7212 1.4112 1.3212
742.657 1.2712 1.1612 1.1312 1.2512 1.3812 1.4012 1.5012 1.4212 1.3312 1.3112
761.947 1.2112 1.0912 1.0912 1.1112 1.0712 1.2412 1.2112 1.2612 1.3312 1.2312
781.236 1.2812 1.2912 1.2612 1.4312 1.5312 1.5812 1.6912 1.8412 2.0212 1.9112
800.526 2.1012 2.2212 2.1612 2.2112 2.2712 2.4712 2.6112 2.6412 2.5812 2.6512
819.816 2.8112 2.7512 2.4412 2.3912 2.5412 2.5212 2.3912 2.3912 2.5512 2.6012
839.106 2.4112 2.4112 2.5612 2.5212 2.5812 2.5712 2.5112 2.7612 3.0412 3.0712
858.395 3.2412 3.3612 3.3312 3.4112 3.4712 3.7612 4.0912 4.2012 4.2812 4.4812
877.685 4.5712 4.6012 4.5512 4.4812 4.4812 4.4512 4.5112 4.6212 4.6112 4.5912
896.975 4.5112 4.4312 4.4012 4.2912 4.3212 4.4912 4.4612 4.3812 4.4412 4.5812
916.265 4.5712 4.5212 4.4012 4.3212 4.4712 4.4012 4.2512 4.1712 4.1112 4.0312
935.555 4.0112 3.8412 3.5112 3.3412 3.2512 3.1012 3.1312 3.1712 3.1312 3.1812
954.844 3.1412 3.0912 3.2412 3.3712 3.4312 3.5112 3.6812 3.9512 4.0412 4.1512
974.134 4.5412 4.8112 5.0012 5.3512 5.7212 5.9912 6.3312 6.8412 7.4412 8.0512
993.424 8.5312 9.1612 10.0212 10.6112 11.1312 11.9412 12.5812 13.3212 14.1312 14.6912
1012.714 15.4212 16.2812 17.0112 17.9012 18.9912 19.6512 20.2412 21.3012 22.1012 22.4512
1032.003 22.8612 23.3812 23.9512 24.5412 25.3212 26.1512 26.6112 27.2312 28.4312 29.6612
1051.293 30.4512 31.1712 31.4312 31.5212 31.8212 31.3912 30.7612 30.2012 29.2812 27.9012
1070.583 26.5312 25.1912 23.8612 22.5712 20.9312 19.8212 19.3512 18.6812 17.6612 16.8412
1089.873 16.3212 15.5112 14.9112 14.6412 13.9712 13.2112 12.8612 11.9012 11.1712 11.2412
1109.163 11.0112 10.5212 9.9312 9.0512 8.4812 8.1612 7.6312 7.2412 6.9912 7.0012
1128.452 7.0212 7.1312 7.0312 6.6212 6.2112 6.0812 6.2812 6.5512 6.5112 6.4312
1147.742 6.6412 6.7312 6.7612 6.7212 6.7712 6.9412 6.8612 6.8112 6.9712 7.1512
1167.032 7.2712 7.1912 7.0612 6.9712 7.1012 7.3012 7.3912 7.5512 7.4812 7.5612
1186.322 7.8312 7.8812 7.9412 7.7312 7.7812 8.1712 8.2812 8.2512 8.5812 9.2312
1205.611 9.7312 9.9412 10.2912 10.8512 11.1912 11.6012 12.0012 12.0412 12.1912 12.3912
1224.901 12.0812 11.6812 11.6712 11.7612 11.6112 11.1612 11.0212 10.8812 10.6912 10.9812
1244.191 11.2512 11.1912 11.2012 11.2912 11.3212 11.6912 11.9412 11.8912 11.8512 11.7312
1263.481 11.4912 11.3312 11.1412 10.8212 10.4212 9.9312 9.6012 9.2312 8.8012 8.4212
1282.771 8.0412 7.7312 7.4612 7.1412 6.8412 6.5312 6.2812 6.2012 6.1312 6.0212
1302.060 5.9312 5.9212 5.8912 5.8612 5.8812 5.8812 5.9112 6.0012 6.0512 6.1512
1321.350 6.2812 6.3612 6.5012 6.6512 6.8112 6.9412 7.0812 7.2512 7.4212 7.5612
1340.640 7.6512 7.6912 7.8212 7.9912 8.0512 8.1412 8.2112 8.2912 8.4012 8.4712
1359.930 8.5312 8.5912 8.7112 8.8012 8.8412 8.9412 9.0312 9.0912 9.1312 9.1612
1379.219 9.1412 9.0812 8.9412 8.8012 8.6512 8.4912 8.2712 7.9612 7.7112 7.4712
1398.509 7.2212 6.9812 6.7312 6.5012 6.3012 6.1112 5.9812 5.9312 5.9012 5.9212
1417.799 6.0612 6.2012 6.2712 6.3112 6.3812 6.4412 6.3712 6.3012 6.2312 6.1112
1437.089 5.9712 5.7412 5.3412 4.9512 4.5912 4.2212 4.0012 3.8612 3.6912 3.5512
1456.378 3.4612 3.4112 3.3812 3.3412 3.3012 3.2612 3.1912 3.1712 3.0912 2.8812
1475.668 2.6612 2.4912 2.3112 2.1612 1.9912 1.8112 1.6912 1.5312 1.4312 1.3312
1494.958 1.2112 1.1712 1.1612 1.1312 1.0612 1.0312 1.0112 0.9767 0.954 0.9529
1514.248 0.9039 0.844 0.8783 0.9008 0.8839 0.8732 0.8892 0.8479 0.8196 0.8265
1533.538 0.7816 0.7224 0.7297 0.7655 0.7667 0.766 0.7132 0.7022 0.766 0.7257
1552.827 0.6459 0.6648 0.6767 0.5977 0.5655 0.5676 0.542 0.5082 0.5081 0.5645
1572.117 0.5487 0.4958 0.467 0.483 0.4913 0.4637 0.484 0.4772 0.5169 0.5107
1591.407 0.4709 0.52 0.5237 0.5022 0.4405 0.3681 0.3237 0.3493 0.3528 0.3346
1610.697 0.3835 0.3999 0.3754 0.3749 0.3418 0.3291 0.3732 0.3641 0.29 0.2266
1629.986 0.2781 0.3272 0.313 0.3382 0.3458 0.3483 0.338 0.2961 0.3092 0.2532
1649.276 0.1941 0.2645 0.3068 0.2724 0.2405 0.2678 0.3105 0.3135 0.2766 0.2027
1668.566 0.2196 0.2797 0.2794 0.2618 0.2481 0.2269 0.2331 0.2976 0.3086 0.2478
1687.856 0.2705 0.3228 0.3007 0.2734 0.2908 0.3027 0.2719 0.2844 0.318 0.3456
1707.146 0.316 0.2743 0.3205 0.3808 0.3698 0.2978 0.2785 0.2837 0.2895 0.3087
1726.435 0.2791 0.2483 0.2584 0.2995 0.3165 0.2496 0.2216 0.2448 0.2419 0.2053
1745.725 0.1807 0.1498 0.1477 0.1353 0.1118 0.155 0.1273 0.0837 0.1009 0.0838
1765.015 0.09597 0.1208 0.1626 0.2016 0.1615 0.1261 0.151 0.1774 0.1608 0.1603
1784.305 0.1452 0.1534 0.1844 0.1797 0.2146 0.2286 0.1998 0.1871 0.163 0.1741
1803.594 0.1973 0.2058 0.2343 0.2582 0.2543 0.212 0.2125 0.225 0.2178 0.2071
1822.884 0.1915 0.2093 0.2063 0.1966 0.2024 0.1979 0.1701 0.1738 0.1791 0.151
1842.174 0.1799 0.2197 0.2052 0.2022 0.2568 0.275 0.2047 0.1844 0.1905 0.1956
1861.464 0.1861 0.1683 0.2147 0.2268 0.2189 0.2279 0.2229 0.258 0.2873 0.274
1880.754 0.2617 0.2687 0.2614 0.2594 0.2662 0.2931 0.3092 0.2694 0.2625 0.2891
1900.043 0.3296 0.3201 0.2735 0.2648 0.2665 0.221 0.2182 0.2899 0.3134 0.2909
1919.333 0.2187 0.2294 0.34 0.3483 0.3043 0.29 0.2505 0.2798 0.3042 0.2205
1938.623 0.2196 0.3005 0.3129 0.2906 0.3216 0.2876 0.2821 0.295 0.2705 0.2859
1957.913 0.2304 0.2077 0.2458 0.2206 0.1948 0.2343 0.2484 0.2401 0.2454 0.2751
1977.202 0.2948 0.2635 0.2104 0.2102 0.2915 0.3095 0.258 0.2424 0.2321 0.2303
1996.492 0.2245 0.1938 0.1924 0.2238 0.2702 0.2835 0.2644 0.2914 0.2611 0.2168
2015.782 0.2278 0.2656 0.3085 0.2996 0.3191 0.3015 0.2607 0.259 0.2888 0.3192
2035.072 0.3367 0.3758 0.3945 0.3324 0.3256 0.3043 0.2837 0.3206 0.3595 0.3935
2054.362 0.3698 0.3645 0.3728 0.3998 0.4266 0.4699 0.4389 0.3719 0.3825 0.4185
2073.651 0.4149 0.4028 0.4628 0.4933 0.4914 0.5408 0.4811 0.449 0.4622 0.4721
2092.941 0.5062 0.4664 0.458 0.4274 0.4582 0.5109 0.48 0.4356 0.4275 0.4824
2112.231 0.4824 0.4766 0.4804 0.4623 0.4461 0.3819 0.3332 0.3495 0.4009 0.3578
2131.521 0.3417 0.3979 0.3244 0.2768 0.3058 0.316 0.2861 0.2853 0.2877 0.2445
2150.810 0.2659 0.2844 0.2941 0.2845 0.2765 0.3064 0.3135 0.2867 0.2546 0.2643
2170.100 0.3274 0.3862 0.3789 0.335 0.3034 0.3172 0.337 0.2773 0.2477 0.2606
2189.390 0.2952 0.3319 0.3096 0.2752 0.2385 0.2473 0.2906 0.335 0.3329 0.3229
2208.680 0.3968 0.4542 0.3568 0.2859 0.3336 0.3217 0.342 0.3255 0.2632 0.2662
2227.970 0.2805 0.3433 0.3418 0.3114 0.3592 0.3394 0.3294 0.3336 0.3727 0.4203
2247.259 0.3628 0.3581 0.3881 0.3914 0.3739 0.3255 0.316 0.323 0.3135 0.3045
2266.549 0.2825 0.2772 0.3009 0.3346 0.3647 0.3391 0.2766 0.2559 0.2959 0.3276
2285.839 0.2984 0.2756 0.3292 0.3718 0.3537 0.3636 0.3092 0.2747 0.2947 0.3012
2305.129 0.3102 0.3068 0.3265 0.3488 0.3216 0.3364 0.3337 0.3219 0.3384 0.3042
2324.418 0.2923 0.3417 0.3998 0.3517 0.2589 0.2705 0.2901 0.3354 0.3549 0.2812
2343.708 0.2971 0.271 0.2786 0.388 0.4425 0.3454 0.2855 0.3198 0.3116 0.3253
2362.998 0.3633 0.3462 0.3084 0.3466 0.3397 0.3418 0.3679 0.3647 0.4066 0.3996
2382.288 0.3897 0.372 0.3415 0.3563 0.3185 0.3124 0.3594 0.4056 0.4101 0.3932
2401.578 0.3849 0.3906 0.4271 0.4266 0.3916 0.3916 0.4159 0.4 0.3799 0.3796
2420.867 0.3919 0.4294 0.4375 0.4366 0.4034 0.4156 0.4236 0.3723 0.3408 0.3432
2440.157 0.3149 0.3065 0.333 0.3352 0.3657 0.4019 0.4327 0.4004 0.3688 0.3463
2459.447 0.3609 0.3067 0.3039 0.3863 0.3681 0.363 0.3509 0.348 0.3225 0.333
2478.737 0.4055 0.3809 0.3543 0.376 0.4066 0.3669 0.3094 0.3083 0.283 0.2849
2498.026 0.3331 0.3287 0.3227 0.4222 0.4347 0.4013 0.3896 0.3431 0.3334 0.2733
2517.316 0.2287 0.2879 0.3212 0.2607 0.2983 0.3452 0.2587 0.2192 0.237 0.2915
2536.606 0.3227 0.311 0.275 0.2412 0.2761 0.2719 0.2497 0.2695 0.2699 0.2623
2555.896 0.3021 0.2575 0.2551 0.2794 0.245 0.3036 0.2925 0.3003 0.3671 0.3529
2575.186 0.2657 0.2411 0.2925 0.3697 0.3242 0.2458 0.2885 0.2237 0.2111 0.2734
2594.475 0.2797 0.2738 0.2657 0.2605 0.3017 0.3293 0.2861 0.3104 0.3208 0.2704
2613.765 0.2621 0.3362 0.3939 0.3941 0.3887 0.3253 0.3079 0.3568 0.4177 0.4561
2633.055 0.4095 0.3795 0.4499 0.493 0.4677 0.4537 0.4597 0.4861 0.4648 0.4693
2652.345 0.5501 0.5103 0.4362 0.4425 0.4773 0.5455 0.5594 0.5245 0.4612 0.5154
2671.634 0.5219 0.4706 0.5058 0.508 0.5325 0.5906 0.5312 0.5003 0.5401 0.5282
2690.924 0.5501 0.5443 0.5684 0.59 0.5814 0.6256 0.6918 0.6723 0.6117 0.5777
2710.214 0.5855 0.5609 0.5882 0.6459 0.7034 0.6894 0.6286 0.7152 0.7114 0.6666
2729.504 0.7038 0.6853 0.6172 0.6724 0.7873 0.8247 0.7315 0.7018 0.7794 0.8556
2748.794 0.9052 0.8386 0.7743 0.8615 0.9301 0.8896 0.8596 0.851 0.7875 0.772
2768.083 0.8989 0.9276 0.9472 0.9376 0.8902 0.8673 0.9 0.8846 0.8759 0.9362
2787.373 0.9334 1.0077 0.9938 0.9551 1.0412 1.1112 1.2312 1.2412 1.1512 1.2112
2806.663 1.2212 1.1712 1.1212 1.1712 1.3012 1.2512 1.2512 1.3212 1.3512 1.4412
2825.953 1.5312 1.5512 1.5212 1.6412 1.7412 1.7712 1.9312 2.0612 2.0912 2.1312
2845.242 2.1912 2.3912 2.6512 2.7912 2.8412 3.0512 3.2612 3.4112 3.6412 3.9312
2864.532 4.2712 4.6612 5.0912 5.5012 5.8212 6.1912 6.7212 7.2112 7.7212 8.2012
2883.822 8.5712 8.8812 9.0912 9.3412 9.4812 9.5312 9.5512 9.4312 9.3012 9.1612
2903.112 9.0012 8.8012 8.6312 8.5112 8.3912 8.2312 8.2112 8.1712 8.1312 8.3812
2922.401 8.6212 8.7612 9.0512 9.2912 9.4912 9.8512 10.1312 10.4312 10.6712 10.7812
2941.691 11.0112 11.1912 11.2912 11.2812 11.3012 11.2512 11.1212 11.0112 10.9012 10.8412
2960.981 10.6512 10.3812 10.0312 9.6112 9.2412 8.8912 8.4512 7.9912 7.4912 6.9312
2980.271 6.3412 5.8812 5.3812 4.7412 4.1312 3.6312 3.2312 2.8612 2.4712 2.1212
2999.561 1.9012 1.7712 1.7012 1.5712 1.4712 1.3912 1.3212 1.2812 1.2712 1.2812
3018.850 1.2312 1.0912 1.1312 1.2912 1.3312 1.2012 1.1512 1.2312 1.1112 0.9311
3038.140 0.7958 0.6821 0.6477 0.6464 0.6694 0.6322 0.5697 0.6094 0.5007 0.4933
3057.430 0.5077 0.4453 0.3492 0.2077 0.1264 0.1961 0.3321 0.3385 0.2943 0.2533
3076.720 0.2604 0.3531 0.3415 0.2382 0.2305 0.1809 0.1829 0.117 0.10275 0.2769
3096.009 0.1345 0.00851 0.1303 0.1516 0.1417 0.144 0.10489 0.125 0.1497 0.1137
3115.299 0.1849 0.2565 0.2388 0.2058 0.2249 0.2537 0.3298 0.3602 0.2667 0.3172
3134.589 0.3871 0.3108 0.2335 0.2347 0.1854 0.02979 0 0.05144 0.10879 0.1364
3153.879 0.10453 0.09781 0.198 0.2338 0.2352 0.2165 0.1627 0.2189 0.2347 0.1389
3173.169 0.1696 0.3367 0.3057 0.3421 0.3045 0.3365 0.3394 0.1965 0.2452 0.2423
3192.458 0.1223 0.08914 0.1718 0.2104 0.2515 0.2766 0.1971 0.10551 0.1318 0.1989
3211.748 0.1855 0.195 0.1877 0.1899 0.1744 0.1323 0.3057 0.4305 0.3044 0.3089
3231.038 0.2954 0.1109 0.1662 0.279 0.3146 0.3836 0.3306 0.2576 0.2376 0.2406
3250.328 0.3729 0.3785 0.2203 0.1892 0.266 0.2756 0.2933 0.3798 0.3201 0.3262
3269.617 0.3805 0.377 0.4202 0.4883 0.4784 0.4256 0.4626 0.4231 0.4775 0.5233
3288.907 0.3725 0.3375 0.435 0.4564 0.4154 0.3522 0.3019 0.4009 0.4691 0.463
3308.197 0.4161 0.3859 0.5188 0.4661 0.2739 0.2662 0.3191 0.391 0.4358 0.4731
3327.487 0.4605 0.3767 0.3724 0.3586 0.3777 0.3572 0.2833 0.3086 0.448 0.4618
3346.777 0.3755 0.3282 0.2608 0.195 0.2356 0.3639 0.3622 0.3432 0.2994 0.2786
3366.066 0.3795 0.465 0.4322 0.4489 0.5672 0.5698 0.5508 0.5018 0.4152 0.3551
3385.356 0.4266 0.5457 0.544 0.4085 0.3778 0.5195 0.5446 0.4383 0.347 0.2931
3404.646 0.2832 0.3767 0.4312 0.3813 0.33 0.5627 0.7391 0.5614 0.4711 0.5013
3423.936 0.5355 0.5443 0.4922 0.4537 0.5126 0.5553 0.5134 0.4979 0.5577 0.7291
3443.225 0.7812 0.6701 0.5916 0.5798 0.5905 0.5762 0.657 0.717 0.586 0.4223
3462.515 0.4241 0.4337 0.6524 0.7309 0.5606 0.5561 0.5061 0.5203 0.4986 0.5135
3481.805 0.5504 0.5315 0.6552 0.7538 0.8169 0.7915 0.7668 0.797 0.8942 0.9503
3501.095 0.9173 0.9481 0.9247 0.9387 0.9419 0.8826 0.9478 0.9874 1.0212 1.0812
3520.385 1.0612 1.1112 1.0412 0.983 1.1812 1.2712 1.2012 1.1412 1.2312 1.3412
3539.674 1.2712 1.2812 1.4112 1.4312 1.2812 1.2812 1.3112 1.3812 1.4512 1.3512
3558.964 1.4412 1.6412 1.7512 1.9212 2.0612 2.0812 2.1812 2.4212 2.6612 2.9312
3578.254 3.2212 3.4412 3.7412 4.0012 4.2412 4.6612 5.1512 5.6312 6.0612 6.5112
3597.544 7.0412 7.6612 8.3212 8.7612 9.2112 9.8512 10.2512 10.5612 10.9512 11.2212
3616.833 11.3112 11.2112 11.2012 11.1012 10.8512 10.6612 10.3512 9.8712 9.5112 9.1712
3636.123 8.7812 8.5212 8.2312 7.8312 7.4712 7.2612 6.9612 6.7312 6.7312 6.7812
3655.413 6.7412 6.6012 6.3812 6.2512 6.2412 6.3112 6.3412 6.2912 6.2012 6.0612
3674.703 5.9112 5.7712 5.7112 5.4912 5.2012 5.0312 4.7812 4.4612 4.1412 3.6512
3693.993 3.4012 3.1712 2.8712 2.7212 2.4812 2.3612 2.2112 2.0612 1.9212 1.8112
3713.282 1.7412 1.6412 1.5412 1.4612 1.3912 1.4512 1.4612 1.4012 1.3412 1.2412
3732.572 1.1212 1.1512 1.2412 1.0412 1.0212 1.1212 1.0212 1.0812 1.1312 1.0712
3751.862 0.9457 0.8795 0.9775 1.0043 0.916 0.9102 1.0032 0.9388 0.7795 0.7318
3771.152 0.7761 0.7818 0.7723 0.7668 0.8275 0.729 0.6356 0.7976 0.922 0.8382
3790.441 0.7837 0.8091 0.6402 0.728 0.8814 0.8017 0.8144 0.7478 0.6234 0.6858
3809.731 0.774 0.7731 0.8002 0.7033 0.5532 0.5299 0.5212 0.5604 0.6619 0.6949
3829.021 0.6945 0.691 0.5187 0.4085 0.415 0.421 0.6083 0.7424 0.6628 0.6032
3848.311 0.5689 0.6234 0.6976 0.6712 0.5627 0.501 0.5443 0.5919 0.6183 0.6779
3867.601 0.6894 0.6471 0.6396 0.6539 0.6238 0.6416 0.6427 0.555 0.6185 0.6324
3886.890 0.5355 0.4875 0.5678 0.6997 0.7637 0.6502 0.6399 0.6868 0.5534 0.5665
3906.180 0.6801 0.7798 0.6912 0.5839 0.6585 0.6742 0.6335 0.5474 0.5924 0.6053
3925.470 0.5869 0.6229 0.6336 0.7028 0.7253 0.6786 0.6279 0.6994 0.8101 0.7542
3944.760 0.6522 0.6522 0.6168 0.5275 0.6372 0.7204 0.5947 0.5009 0.4897 0.4776
3964.049 0.3854 0.4602 0.4711 0.4638 0.5149 0.3313 0.402 0.4573 0.381 0.4543
3983.339 0.4676 0.5161 0.5278 0.5274 0.4664 0.5192 0.5848 0.5288 0.4171 0.3543
##END=
