##TITLE=5-Isopropyl-m-xylene
##JCAMP-DX=4.24
##DATA TYPE=INFRARED SPECTRUM
##ORIGIN=NIST Mass Spectrometry Data Center
##OWNER=NIST Standard Reference Data Program
Collection (C) 2018 copyright by the U.S. Secretary of Commerce
on behalf of the United States of America. All rights reserved.
##CAS REGISTRY NO=4706-89-2
##MOLFORM=C 11 H 16
##$NIST SOURCE=MSDC-IR
##SPECTROMETER/DATA SYSTEM=HP-GC/MS/IRD
##STATE=gas
##XUNITS=1/CM
##YUNITS=ABSORBANCE
##XFACTOR=1.0
##YFACTOR=0.000002300
##DELTAX=4.0
##FIRSTX=550.0
##LASTX=3846.0
##FIRSTY=0.000175
##MAXX=3846
##MINX=550
##MAXY=0.023
##MINY=0
##NPOINTS=825
##XYDATA=(X++(Y..Y))
550.0 76 28 21 3 38 21 16 32 49 84
590.0 64 28 33 35 58 92 63 34 37 41
630.0 89 102 62 60 83 84 76 84 80 83
670.0 110 120 146 246 444 728 1026 1464 1740 1459
710.0 1073 754 469 293 192 129 101 96 99 81
750.0 64 71 89 94 78 57 57 71 66 81
790.0 95 80 74 100 113 139 188 241 326 504
830.0 844 1312 1792 2401 2461 1793 1303 895 510 331
870.0 270 230 229 258 255 239 230 227 228 247
910.0 304 395 483 524 546 539 504 456 423 369
950.0 309 261 222 208 201 221 259 303 342 378
990.0 408 403 376 355 327 271 236 217 211 236
1030.0 242 245 280 318 337 345 339 317 311 328
1070.0 359 400 436 465 444 406 370 329 285 243
1110.0 220 211 208 190 164 155 142 104 92 103
1150.0 93 100 114 115 139 211 314 400 420 380
1190.0 311 216 125 90 70 59 62 59 60 54
1230.0 61 81 115 143 168 214 241 241 227 199
1270.0 187 187 194 210 227 246 276 309 342 379
1310.0 439 516 581 634 677 700 685 656 614 567
1350.0 562 604 673 752 883 961 956 1007 1043 1005
1390.0 912 789 660 569 521 517 525 547 605 688
1430.0 798 949 1151 1363 1557 1742 1866 1920 1928 1873
1470.0 1767 1634 1503 1364 1245 1150 1080 1025 974 917
1510.0 861 813 781 775 776 793 808 792 753 707
1550.0 654 640 655 686 744 825 928 1090 1319 1675
1590.0 2198 2891 3628 4074 3908 3146 2172 1349 843 559
1630.0 395 302 241 213 190 171 162 147 132 114
1670.0 104 104 95 94 97 105 111 116 139 164
1710.0 192 230 262 279 287 269 227 202 203 226
1750.0 261 287 280 256 218 174 132 96 77 62
1790.0 56 53 41 36 44 45 44 41 32 36
1830.0 43 38 41 46 36 40 54 43 37 49
1870.0 51 51 66 68 59 57 53 54 60 60
1910.0 55 58 66 66 62 58 54 54 51 41
1950.0 37 43 40 32 33 36 36 40 33 28
1990.0 35 31 25 23 27 29 15 15 21 20
2030.0 18 9 15 24 17 12 12 14 14 19
2070.0 16 11 15 15 6 2 8 13 9 0
2110.0 10 13 11 16 15 12 11 17 19 8
2150.0 4 8 1 1 13 12 7 9 8 8
2190.0 19 25 25 26 28 29 34 41 33 24
2230.0 22 23 25 20 25 30 20 19 18 20
2270.0 13 6 16 30 31 26 26 24 28 36
2310.0 36 33 31 29 25 21 22 20 19 25
2350.0 35 38 33 29 35 46 53 59 52 45
2390.0 41 40 42 53 55 55 72 67 61 56
2430.0 42 47 59 56 48 54 47 39 50 65
2470.0 60 48 42 47 48 47 41 43 54 51
2510.0 41 43 50 48 47 48 44 34 33 39
2550.0 45 46 49 66 64 57 51 49 62 73
2590.0 73 80 92 90 78 73 75 78 67 62
2630.0 70 63 59 69 75 84 86 78 78 58
2670.0 54 62 55 48 69 94 84 81 91 100
2710.0 116 132 157 183 217 253 282 303 309 304
2750.0 283 247 222 226 218 205 208 211 226 230
2790.0 239 275 307 324 334 358 377 406 466 519
2830.0 571 644 739 861 1029 1236 1494 1826 2243 2729
2870.0 3240 3696 4017 4101 4020 3927 3913 4018 4175 4336
2910.0 4517 4799 5256 5855 6433 6836 6966 6734 6223 5716
2950.0 5532 6046 7374 8876 9890 10000 8736 6666 4882 3704
2990.0 3071 2812 2748 2818 2993 3306 3677 3980 4097 3952
3030.0 3570 3058 2566 2176 1863 1605 1401 1216 1055 910
3070.0 781 697 636 579 518 458 396 347 332 320
3110.0 293 266 260 243 205 200 193 189 203 180
3150.0 148 152 162 156 147 153 164 160 154 161
3190.0 164 157 150 141 150 150 127 111 103 114
3230.0 122 106 97 89 85 71 62 62 69 80
3270.0 91 89 80 100 94 77 77 73 82 72
3310.0 60 53 55 59 61 64 48 56 66 53
3350.0 54 60 54 36 45 63 68 69 52 30
3390.0 37 56 53 53 63 67 50 37 37 49
3430.0 50 33 31 41 56 45 21 28 39 32
3470.0 40 40 36 37 36 43 41 53 63 62
3510.0 53 48 58 51 39 34 56 80 63 38
3550.0 27 44 56 53 60 67 44 32 30 15
3590.0 14 12 5 18 34 37 49 43 53 63
3630.0 32 26 41 32 9 26 34 23 8 14
3670.0 29 37 41 49 52 55 40 37 55 44
3710.0 43 73 74 62 61 63 52 22 33 40
3750.0 43 56 60 42 37 52 47 68 92 70
3790.0 63 53 50 59 70 76 74 76 81 100
3830.0 91 76 78 77 71
##END=
