##TITLE=.alpha.-Fenchene
##JCAMP-DX=4.24
##DATA TYPE=INFRARED SPECTRUM
##ORIGIN=NIST Mass Spectrometry Data Center
##OWNER=NIST Standard Reference Data Program
Collection (C) 2018 copyright by the U.S. Secretary of Commerce
on behalf of the United States of America. All rights reserved.
##CAS REGISTRY NO=471-84-1
##MOLFORM=C 10 H 16
##$NIST SOURCE=MSDC-IR
##SPECTROMETER/DATA SYSTEM=HP-GC/MS/IRD
##STATE=gas
##XUNITS=1/CM
##YUNITS=ABSORBANCE
##XFACTOR=1.0
##YFACTOR=0.000003500
##DELTAX=4.0
##FIRSTX=550.0
##LASTX=3846.0
##FIRSTY=0.000252
##MAXX=3846
##MINX=550
##MAXY=0.035
##MINY=0
##NPOINTS=825
##XYDATA=(X++(Y..Y))
550.0 72 123 130 159 180 153 131 107 93 85
590.0 27 7 46 58 61 49 47 51 26 27
630.0 32 35 34 30 38 42 39 22 18 31
670.0 19 0 10 19 31 31 9 18 33 30
710.0 35 56 76 97 108 107 83 63 49 48
750.0 58 63 78 99 117 117 120 126 102 68
790.0 52 46 36 42 56 67 84 91 92 104
830.0 114 127 155 178 195 227 292 423 676 1027
870.0 1350 1667 1916 1838 1558 1227 815 471 266 173
910.0 150 152 176 194 205 203 172 138 123 109
950.0 104 98 95 98 86 85 88 74 58 63
990.0 72 69 75 77 68 56 41 27 19 18
1030.0 18 15 25 41 59 67 54 45 42 42
1070.0 46 51 83 108 114 119 116 103 101 89
1110.0 86 100 110 126 134 153 165 159 177 181
1150.0 164 148 142 140 123 117 160 215 265 307
1190.0 336 343 316 267 207 165 150 140 150 157
1230.0 151 142 126 110 104 113 120 129 146 159
1270.0 167 152 134 134 135 143 160 184 202 204
1310.0 199 175 139 115 91 72 64 67 74 87
1350.0 113 147 197 272 343 429 524 587 648 691
1390.0 701 631 547 467 349 262 226 218 236 269
1430.0 327 420 542 661 747 853 918 849 784 749
1470.0 705 676 637 590 527 438 341 250 178 125
1510.0 93 75 62 58 61 62 59 59 60 60
1550.0 59 59 61 59 57 62 68 63 63 70
1590.0 71 76 86 95 104 112 121 135 153 182
1630.0 217 268 338 440 585 742 883 980 1004 940
1670.0 794 616 440 294 198 155 125 99 84 76
1710.0 68 63 52 51 59 55 57 61 68 84
1750.0 108 132 152 170 173 158 130 102 75 53
1790.0 45 35 31 28 26 28 25 23 23 23
1830.0 21 17 19 22 20 20 19 17 17 18
1870.0 16 19 22 19 20 18 17 19 17 12
1910.0 12 11 14 19 18 18 15 16 15 15
1950.0 16 18 17 10 11 15 14 11 12 13
1990.0 15 19 19 18 19 15 14 12 15 17
2030.0 11 10 13 14 10 13 21 21 22 21
2070.0 18 24 28 24 24 21 17 19 18 13
2110.0 16 25 29 23 25 27 22 17 20 24
2150.0 20 18 21 23 21 21 22 22 20 17
2190.0 15 15 17 16 14 13 14 20 21 20
2230.0 20 26 22 15 16 17 21 15 9 9
2270.0 11 13 13 17 15 10 14 18 16 19
2310.0 26 16 10 17 5 5 16 10 5 8
2350.0 8 10 10 4 5 8 4 5 10 11
2390.0 6 7 13 17 18 17 19 21 16 11
2430.0 9 6 11 16 9 0 4 8 10 19
2470.0 22 18 11 4 2 2 13 23 20 18
2510.0 13 15 13 7 6 9 17 21 23 19
2550.0 14 23 21 12 16 25 17 15 18 19
2590.0 19 17 25 30 28 22 22 21 11 9
2630.0 14 16 21 15 11 24 29 30 29 28
2670.0 28 30 24 24 41 49 47 36 32 34
2710.0 34 38 43 47 59 79 92 97 104 97
2750.0 83 79 79 95 95 89 102 107 106 107
2790.0 111 106 98 110 130 142 151 173 191 210
2830.0 243 269 305 352 416 524 664 828 1032 1288
2870.0 1607 1978 2359 2681 2918 3002 2916 2780 2650 2578
2910.0 2622 2800 3107 3520 4114 4893 5797 6803 7773 8851
2950.0 9644 9868 10000 9491 8653 7498 6295 5414 4412 3733
2990.0 3351 2940 2466 1935 1396 977 693 515 413 368
3030.0 328 302 298 300 317 354 429 550 700 784
3070.0 883 1078 950 716 625 477 336 243 209 183
3110.0 169 165 156 157 152 136 133 126 120 127
3150.0 132 124 107 104 108 106 84 69 66 54
3190.0 44 39 52 64 55 30 32 45 37 33
3230.0 45 67 69 57 43 40 40 36 44 35
3270.0 27 37 36 33 29 24 31 35 40 45
3310.0 44 41 40 33 31 50 49 50 40 32
3350.0 38 40 44 52 54 55 59 42 41 57
3390.0 47 38 38 42 42 37 32 38 37 24
3430.0 32 41 49 55 47 39 35 15 27 47
3470.0 49 44 32 37 43 39 33 38 31 32
3510.0 43 36 36 52 47 32 34 39 32 26
3550.0 30 35 46 60 62 57 56 52 46 31
3590.0 27 36 34 21 15 15 27 39 29 26
3630.0 30 33 40 43 31 25 17 29 36 22
3670.0 25 18 4 3 23 26 31 34 12 15
3710.0 37 43 39 32 38 36 37 43 54 57
3750.0 45 37 37 51 63 50 46 57 55 58
3790.0 63 53 48 51 64 81 84 82 73 69
3830.0 71 61 46 36 29
##END=
