##TITLE=Diethyl biphenyl-4,4'-dicarboxylate
##JCAMP-DX=4.24
##DATA TYPE=INFRARED SPECTRUM
##ORIGIN=EPA-IR VAPOR PHASE LIBRARY
##OWNER=SRD/NIST
Collection (C) 2018 copyright by the U.S. Secretary of Commerce
on behalf of the United States of America. All rights reserved.
##CAS REGISTRY NO=47230-38-6
##MOLFORM=C 18 H 18 O 4
##$NIST SOURCE=MSDC-IR
##STATE=gas
##XUNITS=1/CM
##YUNITS=ABSORBANCE
##XFACTOR=1.
##YFACTOR=0.001
##DELTAX=1.92898
##FIRSTX=549.8
##LASTX=4000.7
##FIRSTY=2.777
##MAXX=4000.7
##MINX=549.759
##MAXY=0.601947
##MINY=0
##NPOINTS=1790
##XYDATA=(X++(Y..Y))
549.759 2.777 2.657 2.677 2.657 2.227 1.967 1.807 1.767 1.617 1.247
569.049 1.497 1.767 1.457 1.447 1.547 1.667 1.507 1.0735 1.029 0.9941
588.339 1.2091 1.347 1.0012 0.7373 0.8315 1.1902 1.267 1.0758 1.0089 1.0146
607.628 1.0285 0.9438 0.9718 1.0507 1.0338 1.0396 0.8924 0.7903 1.1218 1.2153
626.918 1.507 1.827 1.597 1.537 1.717 1.867 1.767 1.467 1.2128 1.14
646.208 1.237 1.387 1.427 1.387 1.217 1.237 1.337 1.317 1.477 1.607
665.498 1.807 2.237 2.507 2.957 3.937 4.857 5.157 4.877 4.407 4.207
684.787 4.637 5.307 6.417 7.747 8.767 10.137 11.467 12.567 13.777 14.477
704.077 14.527 14.147 13.307 12.287 11.367 10.007 8.647 7.797 7.107 6.507
723.367 5.837 5.607 5.447 5.217 5.227 5.397 5.807 6.257 7.077 8.357
742.657 9.667 11.517 14.487 18.287 23.027 28.737 34.277 39.757 44.327 46.477
761.947 46.187 43.827 40.007 35.117 30.297 26.167 22.567 19.837 18.157 16.727
781.236 15.687 14.927 13.817 12.617 11.887 11.277 10.537 9.977 9.707 9.607
800.526 9.417 9.137 8.997 8.787 8.437 8.127 7.877 7.647 7.447 7.367
819.816 7.447 7.767 8.547 9.217 9.507 10.287 11.687 13.497 15.717 18.177
839.106 21.187 24.547 27.677 30.267 31.927 31.897 30.237 27.357 23.637 20.197
858.395 17.337 15.137 13.437 12.367 12.007 11.977 11.917 11.587 10.927 9.877
877.685 8.557 7.227 6.367 5.767 5.187 4.747 4.327 4.067 3.857 3.737
896.975 3.567 3.467 3.687 3.557 3.217 3.287 3.497 3.367 3.147 3.267
916.265 3.237 3.317 3.387 3.287 3.287 3.277 3.377 3.477 3.427 3.357
935.555 3.537 3.797 3.867 3.727 3.657 3.867 3.957 3.917 3.857 3.967
954.844 4.157 4.177 4.167 4.237 4.337 4.697 5.117 5.247 5.227 5.237
974.134 5.597 5.817 5.897 6.007 6.207 6.737 7.467 8.307 9.257 10.837
993.424 12.977 15.637 19.647 25.547 34.037 45.747 55.817 58.157 51.757 40.377
1012.714 31.367 27.267 26.467 27.997 31.377 36.197 42.467 49.147 53.067 52.007
1032.003 46.307 37.497 29.247 22.867 18.167 15.427 13.587 12.597 12.107 11.667
1051.293 11.837 12.157 12.307 12.907 13.747 15.027 16.167 17.097 18.677 21.017
1070.583 24.007 27.007 30.467 35.057 40.857 48.397 57.297 67.947 81.767 100.267
1089.873 122.607 150.777 185.197 222.607 263.577 304.597 340.567 366.147 376.147 362.267
1109.163 322.757 271.357 223.067 184.937 156.587 134.167 113.467 94.567 78.197 65.027
1128.452 54.967 47.627 42.367 37.897 33.467 30.367 28.577 26.397 24.567 23.297
1147.742 22.767 23.067 22.767 23.467 24.257 24.387 25.127 26.357 28.297 30.827
1167.032 33.177 36.237 40.927 47.117 55.907 67.227 77.897 82.457 77.367 65.447
1186.322 53.457 44.727 38.847 34.437 31.197 29.297 28.187 27.967 27.887 27.637
1205.611 27.387 26.077 26.337 28.547 30.417 32.177 34.047 36.497 41.147 47.327
1224.901 54.687 64.387 76.007 88.437 98.577 105.097 108.057 107.137 103.937 102.217
1244.191 104.977 112.707 127.047 148.877 178.157 217.277 268.687 330.437 398.327 468.067
1263.481 532.067 579.447 601.947 594.957 555.337 492.307 419.907 350.147 289.717 239.887
1282.771 199.997 168.567 143.467 122.987 105.637 90.907 78.917 69.657 62.587 57.127
1302.060 53.137 50.477 48.997 48.157 47.247 45.427 42.157 37.597 32.677 28.417
1321.350 24.897 22.177 20.237 18.597 17.237 16.207 15.387 14.827 14.387 14.057
1340.640 13.937 13.957 14.107 14.527 15.247 16.127 17.137 18.367 19.997 22.057
1359.930 24.657 28.467 34.267 42.237 50.437 54.847 52.907 45.547 37.057 31.017
1379.219 27.537 25.637 24.707 24.637 25.157 26.167 27.687 29.277 30.487 31.017
1398.509 30.427 28.927 27.047 25.087 23.507 22.567 22.277 22.437 22.547 22.187
1417.799 21.017 19.127 17.127 15.377 14.227 13.557 13.087 12.857 12.877 13.087
1437.089 13.437 13.767 14.177 14.677 15.157 15.667 16.137 16.517 16.897 17.177
1456.378 17.317 17.537 18.007 18.677 19.577 20.737 21.747 22.447 22.497 21.907
1475.668 20.947 19.537 17.897 16.367 14.937 13.707 12.797 12.087 11.507 10.887
1494.958 10.207 9.587 9.037 8.587 8.217 7.737 7.327 7.107 6.857 6.697
1514.248 6.617 6.437 6.387 6.327 6.227 6.157 6.077 5.947 5.937 5.937
1533.538 5.857 5.867 5.937 6.027 6.127 6.227 6.377 6.687 7.137 7.547
1552.827 8.107 8.857 9.557 9.997 10.057 9.777 9.297 9.037 8.997 9.187
1572.117 9.527 9.817 9.907 9.647 9.387 9.347 9.747 10.727 12.277 14.367
1591.407 17.097 20.797 25.487 31.327 38.377 46.327 54.097 59.947 62.177 59.347
1610.697 52.067 42.707 33.767 26.507 21.227 17.557 15.017 13.367 12.277 11.477
1629.986 10.677 9.897 9.117 8.337 7.887 7.647 7.357 7.037 6.857 6.787
1649.276 6.687 6.607 6.517 6.517 6.547 6.617 6.777 6.987 7.167 7.437
1668.566 7.737 8.097 8.557 8.997 9.587 10.237 10.917 11.547 12.227 13.097
1687.856 14.017 15.087 16.437 17.937 19.277 20.077 20.747 21.477 22.317 23.627
1707.146 25.417 27.517 30.187 33.497 37.767 43.327 50.837 60.637 74.107 92.177
1726.435 116.147 147.727 188.497 237.727 295.927 350.097 380.147 375.347 338.347 284.777
1745.725 231.517 185.567 147.447 116.257 91.907 73.527 59.317 48.797 40.757 34.507
1765.015 29.827 26.287 23.497 21.377 19.697 18.357 17.187 16.307 15.557 14.807
1784.305 14.187 13.687 13.277 12.937 12.637 12.407 12.247 12.097 11.917 11.607
1803.594 11.227 10.567 9.527 8.427 7.357 6.417 5.757 5.317 4.957 4.677
1822.884 4.497 4.207 3.967 3.857 3.687 3.487 3.317 3.167 3.097 3.107
1842.174 2.997 2.837 2.737 2.757 2.877 2.867 2.797 2.837 2.857 2.857
1861.464 2.897 2.777 2.727 2.797 2.837 2.857 2.847 2.847 2.857 2.967
1880.754 3.087 3.067 3.107 2.997 2.897 2.937 2.957 3.037 3.037 2.977
1900.043 2.977 3.077 3.137 3.207 3.317 3.427 3.627 3.857 4.127 4.467
1919.333 4.727 4.947 5.147 5.217 5.267 5.257 5.187 5.057 4.817 4.537
1938.623 4.367 4.197 3.977 3.857 3.767 3.697 3.637 3.567 3.507 3.467
1957.913 3.387 3.367 3.297 3.237 3.277 3.267 3.187 3.107 3.047 3.017
1977.202 2.927 2.737 2.617 2.607 2.507 2.367 2.327 2.197 2.037 1.957
1996.492 1.887 1.837 1.687 1.597 1.627 1.627 1.577 1.587 1.627 1.617
2015.782 1.597 1.647 1.727 1.647 1.627 1.627 1.597 1.607 1.557 1.617
2035.072 1.647 1.597 1.557 1.537 1.637 1.707 1.717 1.717 1.637 1.517
2054.362 1.527 1.657 1.717 1.707 1.637 1.577 1.607 1.677 1.747 1.757
2073.651 1.657 1.607 1.647 1.677 1.677 1.707 1.687 1.717 1.777 1.797
2092.941 1.857 1.897 1.957 2.037 2.037 2.087 2.147 2.167 2.187 2.307
2112.231 2.537 2.617 2.567 2.487 2.437 2.487 2.497 2.367 2.297 2.187
2131.521 2.057 2.007 1.927 1.887 1.737 1.607 1.557 1.497 1.417 1.357
2150.810 1.307 1.257 1.1993 1.192 1.237 1.2094 1.1164 1.0147 0.9679 0.9394
2170.100 0.935 0.8916 0.8845 0.9029 0.9083 0.9569 1.0101 0.978 0.8979 0.9265
2189.390 0.9808 1.0222 1.0997 1.1235 1.1292 1.1367 1.1251 1.1145 1.0587 1.0998
2208.680 1.1006 1.0458 1.042 1.1302 1.217 1.1367 1.1538 1.237 1.237 1.227
2227.970 1.297 1.337 1.267 1.237 1.237 1.2026 1.1058 1.0982 1.1628 1.0634
2247.259 1.0244 1.1312 1.0725 1.1231 1.1877 1.1249 1.1795 1.1411 1.1507 1.227
2266.549 1.267 1.297 1.277 1.387 1.487 1.407 1.457 1.517 1.447 1.497
2285.839 1.557 1.527 1.477 1.427 1.377 1.357 1.297 1.257 1.277 1.267
2305.129 1.247 1.16 1.1181 1.109 1.1176 1.1186 1.003 0.9924 1.077 1.0052
2324.418 0.8671 0.9665 1.0472 1.0166 1.0847 1.091 1.0438 1.123 1.247 1.327
2343.708 1.297 1.1995 1.247 1.267 1.377 1.457 1.447 1.547 1.597 1.547
2362.998 1.557 1.537 1.547 1.787 1.947 1.877 1.797 1.767 1.707 1.687
2382.288 1.677 1.757 1.747 1.657 1.577 1.517 1.567 1.567 1.417 1.357
2401.578 1.427 1.377 1.357 1.357 1.257 1.2102 1.317 1.347 1.227 1.2139
2420.867 1.257 1.1292 0.9763 1.1127 1.1343 1.0605 1.1239 1.0529 1.0089 0.9848
2440.157 1.0178 1.0038 0.9496 0.9352 0.9989 1.1001 1.0167 0.9673 0.9854 1.1056
2459.447 1.1081 1.0122 1.0557 1.0675 1.0702 0.9887 0.8467 0.9584 1.059 0.896
2478.737 0.8468 0.8424 0.8165 0.8299 0.8857 0.9972 0.9592 0.9123 0.9466 1.034
2498.026 1.0865 1.0312 1.055 1.016 1.0617 1.1055 1.0656 1.1313 1.2145 1.212
2517.316 1.2048 1.327 1.427 1.407 1.357 1.397 1.397 1.457 1.657 1.697
2536.606 1.747 1.897 1.977 1.977 1.897 1.897 1.897 1.737 1.717 1.657
2555.896 1.347 1.227 1.307 1.287 1.217 1.247 1.277 1.1946 1.1336 1.1567
2575.186 1.1747 1.1715 1.1002 1.0894 1.1291 1.1849 1.1889 1.1209 1.1942 1.237
2594.475 1.1238 1.0252 1.0255 1.0871 1.1477 1.0608 1.0425 1.0448 1.0407 1.217
2613.765 1.237 1.227 1.327 1.297 1.257 1.136 1.0052 1.0354 1.0122 0.9351
2633.055 0.8395 0.7718 0.8227 0.7645 0.6222 0.5367 0.5627 0.7833 0.7966 0.6537
2652.345 0.6018 0.6005 0.5547 0.4951 0.6021 0.7 0.7006 0.723 0.6945 0.6798
2671.634 0.7614 0.7352 0.6244 0.5994 0.5417 0.5097 0.5139 0.5944 0.7332 0.6819
2690.924 0.7226 0.7984 0.7888 0.7952 0.7573 0.7486 0.6762 0.6961 0.7252 0.6697
2710.214 0.6881 0.6786 0.7436 0.8552 0.8684 0.9048 0.9917 1.0572 1.1772 1.217
2729.504 1.1191 1.0225 1.0522 1.0536 1.0543 1.0866 1.1236 1.121 1.1428 1.2071
2748.794 1.257 1.397 1.307 1.287 1.397 1.467 1.487 1.437 1.587 1.737
2768.083 1.707 1.667 1.737 1.807 1.797 1.757 1.737 1.777 1.887 1.897
2787.373 1.767 1.727 1.667 1.547 1.577 1.767 1.857 1.777 1.747 1.717
2806.663 1.807 1.907 1.977 2.027 2.037 2.187 2.367 2.437 2.437 2.567
2825.953 2.597 2.607 2.757 2.847 2.847 2.827 2.917 3.047 3.187 3.337
2845.242 3.427 3.427 3.557 3.797 4.027 4.117 4.297 4.657 4.897 5.157
2864.532 5.467 5.817 6.407 6.987 7.377 7.947 8.567 9.207 9.997 10.837
2883.822 11.497 11.967 12.127 11.697 11.287 11.047 10.817 10.867 11.047 11.437
2903.112 11.857 12.357 13.187 13.967 14.577 14.967 15.137 15.137 14.857 14.497
2922.401 14.227 14.087 14.357 14.887 15.627 16.687 18.037 19.907 22.397 25.147
2941.691 27.387 28.957 29.457 28.527 26.667 24.687 23.057 22.087 21.987 22.407
2960.981 23.197 24.357 25.727 27.227 28.927 30.607 32.507 34.907 37.957 42.317
2980.271 48.327 55.037 60.377 61.707 58.347 52.027 45.157 39.577 35.697 32.747
2999.561 30.427 28.527 26.507 24.617 22.787 20.937 19.227 17.597 15.877 14.377
3018.850 13.217 12.117 11.167 10.327 9.647 9.327 9.277 9.317 9.677 10.167
3038.140 10.837 11.927 12.937 13.367 13.247 12.617 11.537 10.607 9.977 9.617
3057.430 9.297 8.697 8.147 7.827 7.477 7.117 7.037 7.237 7.447 7.697
3076.720 7.907 7.987 7.877 7.747 7.817 8.087 8.407 8.637 8.687 8.617
3096.009 8.327 7.777 7.257 6.757 6.127 5.527 5.077 4.517 4.097 3.807
3115.299 3.677 3.507 3.307 3.287 3.137 2.997 3.077 2.957 2.747 2.667
3134.589 2.587 2.437 2.357 2.297 2.147 1.967 1.707 1.487 1.467 1.477
3153.879 1.427 1.397 1.277 1.1155 1.137 1.317 1.397 1.447 1.347 1.247
3173.169 1.257 1.1855 1.0902 0.9721 1.0121 1.1656 1.1719 1.0477 0.9346 1.0441
3192.458 1.0204 0.9455 1.0779 0.9189 0.778 0.864 1.1004 1.1288 1.0325 1.2026
3211.748 1.2 1.0302 1.0458 0.9584 0.9435 0.9355 0.8307 0.9954 1.1414 0.9082
3231.038 0.7315 0.7571 0.7381 0.7322 0.6917 0.713 0.7148 0.6376 0.6551 0.7283
3250.328 0.7091 0.6002 0.53 0.5953 0.6053 0.6018 0.5295 0.4471 0.4891 0.6014
3269.617 0.5093 0.3675 0.4819 0.6393 0.5694 0.5039 0.5402 0.5827 0.5973 0.4743
3288.907 0.6274 0.6966 0.4503 0.3751 0.4759 0.4544 0.3734 0.4312 0.6003 0.6283
3308.197 0.496 0.468 0.5407 0.6009 0.667 0.6574 0.528 0.6032 0.7949 0.5572
3327.487 0.3811 0.601 0.5617 0.4138 0.5766 0.7996 0.8337 0.9039 0.9375 0.8877
3346.777 0.9453 0.9564 0.9617 1.0627 1.0553 0.8676 0.7328 0.6399 0.6426 0.7117
3366.066 0.6747 0.6583 0.6033 0.4111 0.4281 0.6224 0.6353 0.4522 0.28274 0.31063
3385.356 0.4777 0.5446 0.4445 0.3842 0.4472 0.4916 0.4709 0.4787 0.5607 0.7203
3404.646 0.7361 0.6822 0.6263 0.5738 0.5196 0.3964 0.3703 0.3673 0.28459 0.5661
3423.936 0.7367 0.6498 0.7406 0.7868 0.8033 0.7891 0.8793 0.9473 1.0316 1.287
3443.225 1.557 1.847 2.127 2.307 2.657 3.007 3.117 3.317 3.467 3.247
3462.515 3.007 2.807 2.437 2.177 1.947 1.687 1.627 1.557 1.337 1.1841
3481.805 1.0561 1.1233 1.1731 1.0058 0.9421 0.9541 0.9486 0.8021 0.7781 0.8804
3501.095 0.6801 0.611 0.6523 0.651 0.5911 0.4978 0.5354 0.4299 0.3649 0.5214
3520.385 0.4748 0.4079 0.3613 0.24038 0.4164 0.5812 0.5667 0.5735 0.5313 0.5221
3539.674 0.4889 0.23532 0.3228 0.386 0.2471 0.3176 0.4114 0.4438 0.4201 0.3498
3558.964 0.3594 0.3845 0.28221 0.3767 0.3547 0.113 0.1968 0.4538 0.409 0.226366
3578.254 0.1594 0.1908 0.2569 0.3422 0.4819 0.4222 0.26304 0.31231 0.4456 0.3247
3597.544 0.3949 0.4767 0.4126 0.4633 0.3483 0.3223 0.3218 0.3329 0.3604 0.388
3616.833 0.3902 0.26367 0.31169 0.3469 0.28981 0.30528 0.25634 0.396 0.4284 0.4384
3636.123 0.4642 0.28921 0.281 0.29967 0.325 0.4134 0.326 0.1319 0.029 0.1589
3655.413 0.3634 0.3462 0.4169 0.4269 0.4675 0.5682 0.551 0.4968 0.4851 0.3807
3674.703 0.4562 0.6637 0.563 0.5072 0.3827 0.3284 0.6047 0.7385 0.53 0.4301
3693.993 0.5136 0.6278 0.6068 0.5078 0.5097 0.3957 0.4183 0.4711 0.4627 0.4261
3713.282 0.3546 0.5686 0.6126 0.6305 0.781 0.7761 0.6807 0.4908 0.5049 0.6635
3732.572 0.5307 0.4182 0.3733 0.4965 0.6189 0.5317 0.4621 0.3593 0.406 0.4371
3751.862 0.4058 0.4993 0.6176 0.5503 0.5155 0.5261 0.4228 0.4807 0.4932 0.4499
3771.152 0.5742 0.5646 0.533 0.5665 0.6377 0.6069 0.507 0.4306 0.3442 0.3752
3790.441 0.4381 0.3233 0.2031 0.071 0.218513 0.4439 0.4704 0.5073 0.3773 0.3718
3809.731 0.3413 0.469 0.7184 0.7251 0.637 0.5185 0.5695 0.5336 0.4692 0.5184
3829.021 0.4877 0.4832 0.4276 0.3997 0.5654 0.653 0.5867 0.4573 0.3627 0.3657
3848.311 0.3182 0.2951 0.31204 0.29968 0.3206 0.098 0 0.4126 0.5795 0.5117
3867.601 0.5239 0.4485 0.4959 0.534 0.5103 0.5179 0.4548 0.3842 0.3444 0.3769
3886.890 0.28152 0.3541 0.602 0.471 0.3497 0.5179 0.5319 0.3651 0.446 0.6906
3906.180 0.5741 0.26783 0.26643 0.4277 0.24202 0.1452 0.4031 0.4225 0.4205 0.519
3925.470 0.4206 0.219661 0.30754 0.4681 0.504 0.5272 0.5842 0.5253 0.431 0.5917
3944.760 0.6419 0.4485 0.1512 0.08 0.27172 0.4448 0.508 0.5426 0.5312 0.4497
3964.049 0.4578 0.4976 0.5087 0.39 0.3605 0.4057 0.4194 0.3747 0.4235 0.602
3983.339 0.4923 0.5949 0.5196 0.3247 0.4222 0.3641 0.5787 0.718 0.5219 0.5912
##END=
