##TITLE=1,3,5,5-Tetramethyl-1,3-cyclohexadiene
##JCAMP-DX=4.24
##DATA TYPE=INFRARED SPECTRUM
##ORIGIN=NIST Mass Spectrometry Data Center
##OWNER=NIST Standard Reference Data Program
Collection (C) 2018 copyright by the U.S. Secretary of Commerce
on behalf of the United States of America. All rights reserved.
##CAS REGISTRY NO=4724-89-4
##MOLFORM=C 10 H 16
##$NIST SOURCE=MSDC-IR
##SPECTROMETER/DATA SYSTEM=HP-GC/MS/IRD
##STATE=gas
##XUNITS=1/CM
##YUNITS=ABSORBANCE
##XFACTOR=1.0
##YFACTOR=0.000003000
##DELTAX=4.0
##FIRSTX=550.0
##LASTX=3846.0
##FIRSTY=0.000897
##MAXX=3846
##MINX=550
##MAXY=0.03
##MINY=0
##NPOINTS=825
##XYDATA=(X++(Y..Y))
550.0 299 301 348 426 483 530 531 465 398 319
590.0 221 150 82 71 81 57 60 66 43 30
630.0 30 44 76 76 70 70 56 43 43 38
670.0 34 22 23 26 4 17 31 12 19 24
710.0 21 32 44 41 12 7 29 50 48 35
750.0 19 26 37 30 47 87 107 133 201 293
790.0 496 842 1190 1397 1897 2135 1620 1274 1046 777
830.0 623 579 485 361 304 249 208 204 211 224
870.0 220 190 179 167 154 152 153 162 192 239
910.0 280 313 326 303 258 209 189 175 168 169
950.0 161 149 134 108 97 87 80 90 107 128
990.0 177 252 303 328 354 359 326 290 267 265
1030.0 246 211 173 128 102 88 63 45 48 36
1070.0 22 16 12 16 20 29 36 49 64 76
1110.0 103 130 149 178 225 277 353 427 465 474
1150.0 442 392 305 215 168 142 132 126 123 127
1190.0 125 130 151 187 215 256 312 369 417 435
1230.0 424 401 354 302 258 224 215 226 257 317
1270.0 377 417 433 416 368 305 242 205 185 169
1310.0 164 185 214 241 296 402 542 678 831 1011
1350.0 1195 1319 1480 1694 1569 1430 1436 1361 1278 1177
1390.0 1006 752 546 438 426 483 576 704 857 1007
1430.0 1150 1298 1476 1657 1757 1799 1787 1728 1648 1515
1470.0 1328 1116 906 708 518 368 267 209 177 151
1510.0 133 127 116 108 106 107 112 110 107 122
1550.0 136 139 145 157 173 202 232 265 313 365
1590.0 429 498 548 554 531 494 437 367 308 272
1630.0 254 257 283 322 403 535 695 829 900 881
1670.0 776 612 411 258 181 146 131 115 104 91
1710.0 80 78 76 73 71 67 58 51 51 52
1750.0 47 41 38 41 40 28 27 38 43 42
1790.0 40 40 40 41 36 38 39 41 42 40
1830.0 43 47 42 38 42 37 32 30 32 34
1870.0 28 23 23 28 30 25 16 17 27 31
1910.0 29 21 18 19 18 23 30 30 26 25
1950.0 22 17 17 14 13 14 14 11 10 5
1990.0 1 2 7 16 16 11 11 13 16 19
2030.0 21 20 17 20 18 18 21 12 9 12
2070.0 14 15 8 6 12 8 4 12 14 11
2110.0 11 12 8 8 8 8 8 6 8 18
2150.0 24 15 10 15 13 11 11 9 15 19
2190.0 11 3 4 2 0 3 7 13 20 15
2230.0 1 3 6 12 19 20 22 24 30 30
2270.0 17 21 28 29 30 26 28 27 19 18
2310.0 23 28 26 19 16 23 26 24 23 15
2350.0 11 17 32 35 32 27 26 35 32 26
2390.0 27 25 19 25 31 24 17 16 16 18
2430.0 10 9 11 10 12 17 18 9 17 22
2470.0 26 32 33 24 21 26 31 33 30 22
2510.0 17 16 17 18 15 11 7 5 9 10
2550.0 14 9 6 13 18 20 13 14 15 12
2590.0 21 29 31 33 35 42 42 32 30 25
2630.0 18 15 11 7 9 10 18 23 22 23
2670.0 33 44 47 57 69 90 100 106 123 134
2710.0 154 179 191 217 251 276 295 297 277 248
2750.0 221 198 184 177 181 192 214 233 252 298
2790.0 360 435 543 700 900 1132 1368 1578 1642 1560
2830.0 1478 1429 1472 1681 2091 2677 3441 4293 4915 5274
2870.0 5489 5405 5112 4828 4627 4558 4724 5159 5744 6334
2910.0 6849 7237 7452 7425 7299 7188 6958 6630 6562 6811
2950.0 7393 8267 9234 10000 9686 8446 6997 5502 4177 3242
2990.0 2727 2493 2425 2448 2489 2510 2467 2337 2139 1900
3030.0 1620 1350 1152 1010 884 778 696 633 595 559
3070.0 518 479 456 433 400 365 344 316 278 243
3110.0 217 199 194 191 166 146 141 139 119 103
3150.0 105 108 101 97 103 100 94 89 92 112
3190.0 122 121 124 119 122 115 110 105 91 95
3230.0 91 77 71 77 75 62 47 45 37 28
3270.0 36 45 48 42 40 50 63 68 45 41
3310.0 52 37 27 31 40 38 35 42 36 30
3350.0 32 28 22 32 45 30 16 27 35 29
3390.0 22 11 20 33 40 42 35 45 39 24
3430.0 39 39 29 49 44 35 47 42 32 31
3470.0 29 26 32 42 47 35 43 54 42 36
3510.0 29 32 29 24 36 47 34 18 23 28
3550.0 29 35 16 3 9 10 36 48 31 36
3590.0 39 27 20 27 43 43 24 23 41 50
3630.0 39 39 38 27 22 26 29 28 39 26
3670.0 14 14 26 50 56 39 37 51 58 49
3710.0 45 42 21 18 30 36 53 54 39 33
3750.0 34 47 44 40 57 52 43 41 49 60
3790.0 62 72 71 53 46 44 49 53 56 53
3830.0 38 32 41 51 61
##END=
