##TITLE=Pinane(endo,exo)
##JCAMP-DX=4.24
##DATA TYPE=INFRARED SPECTRUM
##ORIGIN=NIST Mass Spectrometry Data Center
##OWNER=NIST Standard Reference Data Program
Collection (C) 2018 copyright by the U.S. Secretary of Commerce
on behalf of the United States of America. All rights reserved.
##CAS REGISTRY NO=473-55-2
##MOLFORM=C 10 H 18
##$NIST SOURCE=MSDC-IR
##SPECTROMETER/DATA SYSTEM=HP-GC/MS/IRD
##STATE=gas
##XUNITS=1/CM
##YUNITS=ABSORBANCE
##XFACTOR=1.0
##YFACTOR=0.000003800
##DELTAX=4.0
##FIRSTX=550.0
##LASTX=3846.0
##FIRSTY=0.000205
##MAXX=3846
##MINX=550
##MAXY=0.038
##MINY=0
##NPOINTS=825
##XYDATA=(X++(Y..Y))
550.0 54 35 8 8 3 2 26 54 64 26
590.0 8 36 51 64 70 63 80 82 63 63
630.0 68 60 59 55 31 18 29 44 33 11
670.0 16 21 24 28 21 7 11 42 40 18
710.0 24 27 21 29 38 40 32 29 40 45
750.0 45 48 45 49 43 34 42 45 45 44
790.0 48 52 48 43 45 47 55 61 50 40
830.0 44 54 69 86 99 108 116 121 116 109
870.0 103 95 84 68 57 49 53 58 58 58
910.0 61 70 77 71 81 107 119 117 120 122
950.0 129 127 110 104 111 107 106 113 123 130
990.0 135 141 148 149 139 136 131 133 130 129
1030.0 135 129 113 101 78 65 60 51 47 45
1070.0 52 51 46 53 60 53 51 78 97 105
1110.0 120 121 114 115 108 92 82 87 83 98
1150.0 123 142 158 149 139 127 109 100 107 121
1190.0 124 127 143 152 166 192 218 236 241 238
1230.0 220 207 186 160 146 129 120 125 124 118
1270.0 120 125 126 120 120 116 106 100 99 93
1310.0 92 97 102 112 131 157 183 215 244 266
1350.0 300 339 394 471 609 765 858 951 972 935
1390.0 818 624 475 330 218 162 136 132 140 155
1430.0 184 224 288 376 482 605 738 884 1017 1127
1470.0 1211 1179 1040 885 711 542 401 292 215 169
1510.0 135 110 98 88 79 74 71 73 72 67
1550.0 63 59 60 57 49 47 52 51 47 50
1590.0 50 50 48 45 43 42 47 47 46 45
1630.0 42 48 52 47 46 48 46 44 41 35
1670.0 35 36 35 35 34 29 30 33 27 22
1710.0 18 16 20 18 15 14 16 16 17 20
1750.0 19 15 15 17 12 9 13 16 14 17
1790.0 19 14 13 14 17 17 14 13 12 15
1830.0 13 9 12 19 17 10 7 6 6 6
1870.0 6 7 6 6 4 7 11 5 2 7
1910.0 11 13 12 11 8 5 6 9 9 6
1950.0 5 7 6 4 4 6 5 4 4 4
1990.0 9 12 10 9 9 8 8 12 14 17
2030.0 16 11 7 5 4 6 10 11 13 12
2070.0 8 11 14 11 16 19 15 14 12 11
2110.0 13 8 7 11 10 12 12 8 8 7
2150.0 8 8 5 5 8 8 6 5 5 5
2190.0 9 10 7 5 10 12 8 8 13 13
2230.0 10 6 2 4 9 7 0 2 5 3
2270.0 1 1 6 6 4 6 10 11 5 2
2310.0 10 10 6 9 12 15 13 13 13 12
2350.0 14 13 15 17 19 19 15 12 12 13
2390.0 14 15 14 15 17 15 12 12 10 11
2430.0 14 17 19 16 13 18 18 17 19 18
2470.0 15 16 20 22 21 21 19 19 24 23
2510.0 23 23 25 25 22 27 31 28 30 32
2550.0 31 36 36 34 39 42 45 48 42 46
2590.0 53 56 61 63 65 64 65 73 79 80
2630.0 86 94 96 107 119 121 120 106 98 95
2670.0 86 85 78 76 83 87 90 86 85 96
2710.0 105 107 114 127 142 150 154 149 141 141
2750.0 142 140 145 153 162 168 174 183 195 201
2790.0 212 226 238 256 272 289 315 346 374 405
2830.0 442 480 534 611 720 904 1202 1667 2316 3140
2870.0 4083 4998 5686 5981 6156 6383 6754 7313 8245 9586
2910.0 10000 9858 9714 9128 8556 8299 8345 8654 9142 9106
2950.0 8608 8028 7228 6289 5455 4849 4502 4279 4061 3917
2990.0 3862 3664 3184 2746 2319 1848 1454 1149 900 699
3030.0 559 473 409 367 336 307 291 287 276 258
3070.0 249 232 223 226 222 213 204 196 183 177
3110.0 176 172 174 172 168 170 174 170 153 143
3150.0 140 133 131 122 109 106 102 98 96 82
3190.0 70 66 52 49 53 47 44 39 41 44
3230.0 32 26 22 23 29 31 30 37 44 37
3270.0 32 34 36 34 40 53 49 38 43 49
3310.0 44 41 37 32 28 31 32 24 26 27
3350.0 22 24 27 32 31 23 24 26 30 31
3390.0 21 19 20 19 18 14 18 31 29 16
3430.0 15 18 24 20 20 14 13 19 11 6
3470.0 19 21 12 10 18 22 9 3 12 9
3510.0 10 12 12 14 11 12 9 13 16 9
3550.0 5 15 12 6 11 11 11 16 12 5
3590.0 7 10 2 2 12 15 18 13 14 19
3630.0 21 21 20 19 21 28 25 23 28 28
3670.0 23 22 19 11 18 19 12 18 20 22
3710.0 25 31 33 27 28 32 30 29 25 17
3750.0 20 28 27 29 28 26 35 40 39 38
3790.0 40 42 39 29 31 38 39 47 47 45
3830.0 45 43 44 39 34
##END=
