##TITLE=1,2,3-Trimethylcyclopentene
##JCAMP-DX=4.24
##DATA TYPE=INFRARED SPECTRUM
##ORIGIN=NIST Mass Spectrometry Data Center
##OWNER=NIST Standard Reference Data Program
Collection (C) 2018 copyright by the U.S. Secretary of Commerce
on behalf of the United States of America. All rights reserved.
##CAS REGISTRY NO=473-91-6
##MOLFORM=C 8 H 14
##$NIST SOURCE=MSDC-IR
##SPECTROMETER/DATA SYSTEM=HP-GC/MS/IRD
##STATE=gas
##XUNITS=1/CM
##YUNITS=ABSORBANCE
##XFACTOR=1.0
##YFACTOR=0.000003700
##DELTAX=4.0
##FIRSTX=550.0
##LASTX=3846.0
##FIRSTY=0.000104
##MAXX=3846
##MINX=550
##MAXY=0.037
##MINY=0
##NPOINTS=825
##XYDATA=(X++(Y..Y))
550.0 28 27 14 15 39 35 33 36 37 47
590.0 49 66 91 87 78 78 76 73 58 56
630.0 44 18 20 17 1 21 37 48 67 62
670.0 51 32 20 31 51 50 51 54 47 45
710.0 44 39 44 36 29 32 42 55 62 66
750.0 55 48 50 52 49 51 59 67 60 56
790.0 69 75 67 61 65 62 64 61 61 69
830.0 65 54 52 60 62 61 67 70 70 71
870.0 66 66 73 77 74 68 68 69 76 85
910.0 88 79 72 79 78 80 91 97 103 99
950.0 102 113 112 113 117 120 121 127 138 148
990.0 151 152 158 174 196 215 230 242 257 265
1030.0 266 258 257 257 250 253 263 276 300 338
1070.0 377 404 434 453 461 452 410 358 316 272
1110.0 230 197 178 163 150 135 122 125 132 141
1150.0 153 171 198 220 240 251 253 253 238 223
1190.0 220 224 228 239 255 260 262 264 250 219
1230.0 197 180 162 151 145 141 136 138 148 155
1270.0 165 178 183 197 211 217 228 241 265 296
1310.0 346 421 519 603 653 682 678 648 596 522
1350.0 470 464 494 554 635 775 904 920 914 884
1390.0 800 696 572 458 386 360 371 403 458 541
1430.0 652 783 942 1106 1252 1343 1355 1294 1197 1051
1470.0 876 707 550 430 350 294 255 228 216 203
1510.0 193 193 198 204 207 209 210 216 225 232
1550.0 233 226 223 216 205 192 178 169 160 149
1590.0 139 128 112 104 105 96 86 84 83 80
1630.0 77 78 77 73 74 75 76 78 83 94
1670.0 104 107 108 107 96 85 74 59 47 40
1710.0 34 28 29 32 28 27 26 27 32 32
1750.0 30 28 27 28 25 26 28 26 22 20
1790.0 19 20 18 16 16 15 10 9 9 6
1830.0 6 10 12 15 17 15 10 14 19 18
1870.0 16 17 14 14 16 17 19 17 16 14
1910.0 15 14 10 11 10 7 9 10 12 12
1950.0 12 16 17 15 14 16 19 20 19 13
1990.0 13 9 7 9 9 5 6 10 11 11
2030.0 8 7 8 6 2 1 6 6 2 0
2070.0 4 5 5 6 4 5 7 6 5 6
2110.0 7 6 6 2 0 2 5 4 7 5
2150.0 4 6 4 3 3 6 7 7 10 10
2190.0 13 11 5 6 7 6 5 9 12 12
2230.0 9 11 12 13 16 15 16 15 13 10
2270.0 13 17 16 14 13 14 15 15 18 19
2310.0 18 18 18 24 27 31 27 24 25 25
2350.0 23 25 28 32 28 22 18 19 27 32
2390.0 31 32 27 27 33 38 37 35 38 41
2430.0 39 32 30 32 28 31 30 26 30 34
2470.0 34 30 31 30 29 32 33 32 36 35
2510.0 33 40 40 35 37 45 50 47 51 56
2550.0 59 61 62 67 69 70 74 75 80 86
2590.0 92 91 95 101 97 98 101 103 104 104
2630.0 103 97 98 102 99 93 87 83 80 81
2670.0 82 82 89 95 97 99 106 117 126 138
2710.0 155 169 189 212 240 274 305 333 349 352
2750.0 351 342 323 306 302 309 328 348 372 410
2790.0 458 507 564 632 715 820 956 1135 1386 1721
2830.0 2172 2793 3520 4181 4755 5352 5988 6578 6980 7140
2870.0 7112 7049 6887 6510 6117 5836 5671 5662 5848 6249
2910.0 6812 7404 7928 8367 8723 9030 9235 9206 9120 9505
2950.0 10000 9844 9615 9144 8247 7297 6062 4760 3707 2937
2990.0 2364 1931 1621 1428 1314 1240 1200 1168 1133 1096
3030.0 1049 991 921 841 772 704 638 589 544 503
3070.0 462 428 405 383 361 340 327 309 286 264
3110.0 249 230 209 194 176 162 151 138 134 131
3150.0 127 121 122 129 124 118 115 113 105 95
3190.0 94 91 81 73 71 63 58 55 50 45
3230.0 45 45 40 44 43 43 47 45 45 46
3270.0 44 42 39 33 28 30 35 28 26 32
3310.0 32 30 24 19 23 26 25 29 32 28
3350.0 23 26 28 27 20 21 32 37 36 28
3390.0 19 19 13 8 7 8 13 12 5 6
3430.0 11 14 11 14 15 19 18 13 18 12
3470.0 9 17 16 18 19 17 15 12 15 16
3510.0 17 18 13 14 9 4 16 12 6 11
3550.0 16 10 5 10 13 11 9 12 16 13
3590.0 10 9 13 21 20 19 20 25 16 10
3630.0 13 14 16 16 19 15 13 14 13 7
3670.0 6 14 18 14 15 19 18 18 16 12
3710.0 17 21 16 21 29 21 15 19 21 17
3750.0 16 22 27 29 30 32 25 25 29 26
3790.0 23 20 27 39 40 35 37 41 38 37
3830.0 41 42 41 44 38
##END=
