##TITLE=2-Bromo-6-methylheptane
##JCAMP-DX=4.24
##DATA TYPE=INFRARED SPECTRUM
##ORIGIN=NIST Mass Spectrometry Data Center
##OWNER=NIST Standard Reference Data Program
Collection (C) 2018 copyright by the U.S. Secretary of Commerce
on behalf of the United States of America. All rights reserved.
##CAS REGISTRY NO=4730-24-9
##MOLFORM=C 8 H 17 Br
##$NIST SOURCE=MSDC-IR
##SPECTROMETER/DATA SYSTEM=HP-GC/MS/IRD
##STATE=gas
##XUNITS=1/CM
##YUNITS=ABSORBANCE
##XFACTOR=1.0
##YFACTOR=0.000002500
##DELTAX=4.0
##FIRSTX=550.0
##LASTX=3846.0
##FIRSTY=0.001188
##MAXX=3846
##MINX=550
##MAXY=0.025
##MINY=0
##NPOINTS=825
##XYDATA=(X++(Y..Y))
550.0 475 434 341 236 238 219 168 179 158 145
590.0 146 160 180 150 157 236 310 362 411 427
630.0 345 226 163 136 104 80 47 25 20 15
670.0 17 8 7 27 46 35 44 80 61 66
710.0 100 82 70 99 154 195 213 234 237 220
750.0 203 174 132 107 79 60 63 73 73 81
790.0 89 98 124 141 145 152 138 132 152 153
830.0 155 150 150 161 152 141 143 151 165 162
870.0 151 148 146 155 183 204 201 189 176 165
910.0 153 159 166 169 158 167 184 184 192 202
950.0 207 234 249 255 261 259 261 247 227 224
990.0 255 288 309 342 364 349 323 305 268 230
1030.0 208 200 215 218 203 206 213 228 238 231
1070.0 227 209 194 190 187 199 223 235 236 238
1110.0 234 253 308 367 427 504 600 695 782 814
1150.0 790 749 737 754 808 896 967 1027 1057 1057
1190.0 998 900 811 752 753 820 908 976 1018 1018
1230.0 1002 969 913 861 815 754 682 603 545 511
1270.0 476 467 473 480 476 461 448 438 438 432
1310.0 413 397 388 390 398 404 419 433 427 421
1350.0 440 491 581 712 858 1003 1180 1356 1473 1479
1390.0 1297 1019 731 506 392 335 322 357 392 449
1430.0 547 680 816 951 1114 1255 1398 1518 1536 1488
1470.0 1380 1197 947 717 551 430 336 270 230 239
1510.0 209 167 164 152 121 97 91 108 119 93
1550.0 75 95 120 87 64 65 67 60 50 46
1590.0 48 62 51 47 54 51 62 77 75 62
1630.0 56 79 71 58 79 102 103 73 60 62
1670.0 72 74 62 76 83 67 82 98 90 64
1710.0 52 72 76 54 43 52 72 63 49 49
1750.0 53 41 38 42 37 29 26 32 36 33
1790.0 38 40 40 40 29 17 10 16 23 32
1830.0 28 15 22 34 37 27 14 13 17 30
1870.0 37 22 9 6 16 21 22 18 18 20
1910.0 23 23 30 27 21 19 12 10 13 8
1950.0 3 5 2 6 13 8 6 12 8 6
1990.0 14 14 10 5 4 10 8 3 3 14
2030.0 20 14 16 5 2 6 7 14 20 21
2070.0 22 22 11 9 17 8 4 9 0 3
2110.0 12 16 10 1 6 9 11 11 8 10
2150.0 15 12 7 12 10 5 8 17 16 13
2190.0 14 17 15 16 16 12 11 5 17 25
2230.0 15 17 27 19 13 12 16 21 21 23
2270.0 20 21 23 21 21 27 30 23 15 21
2310.0 26 25 21 18 14 7 4 8 7 13
2350.0 16 8 0 4 9 14 17 25 34 34
2390.0 32 35 45 47 42 40 45 49 45 44
2430.0 45 35 26 33 36 38 46 44 30 31
2470.0 41 41 41 43 44 35 36 47 50 48
2510.0 43 41 39 42 50 54 48 49 51 52
2550.0 52 56 55 61 57 56 62 66 79 91
2590.0 87 86 92 89 86 88 95 99 95 83
2630.0 89 102 103 105 96 92 92 94 95 104
2670.0 107 100 111 118 126 131 132 138 142 144
2710.0 143 154 170 175 179 195 214 220 217 211
2750.0 200 191 187 191 199 198 208 222 223 232
2790.0 250 273 301 325 355 395 427 470 533 612
2830.0 722 875 1040 1231 1477 1729 1955 2159 2378 2667
2870.0 3046 3459 3782 3976 4036 4019 4052 4177 4407 4719
2910.0 5025 5304 5602 5923 6267 6606 6880 7017 7029 7028
2950.0 7172 7657 8586 9596 10000 9374 7776 5870 4338 3418
2990.0 2943 2568 2085 1550 1100 795 600 490 426 373
3030.0 337 305 285 266 244 237 228 221 214 207
3070.0 203 206 207 202 190 165 161 165 166 161
3110.0 146 148 145 138 147 145 141 128 114 122
3150.0 128 149 162 149 152 149 147 163 164 145
3190.0 134 135 120 112 114 103 97 78 80 87
3230.0 76 69 65 64 68 63 57 46 36 51
3270.0 62 59 45 42 49 43 45 46 50 56
3310.0 43 31 30 37 38 35 30 27 34 25
3350.0 29 27 27 45 49 49 43 46 54 40
3390.0 41 43 50 62 51 36 26 42 49 42
3430.0 38 45 54 49 43 35 39 54 41 23
3470.0 23 31 36 29 12 3 16 27 31 42
3510.0 46 28 22 29 47 53 37 14 33 46
3550.0 33 29 28 37 49 42 38 39 37 54
3590.0 53 44 35 25 39 65 82 69 51 65
3630.0 66 61 66 41 53 76 70 53 30 42
3670.0 65 82 75 42 51 57 40 45 58 66
3710.0 65 54 43 45 40 48 75 75 78 92
3750.0 85 54 44 51 56 67 61 63 73 70
3790.0 65 66 80 94 85 74 78 85 78 84
3830.0 100 105 106 115 108
##END=
