##TITLE=Tris(2-methoxyphenyl)phosphine
##JCAMP-DX=4.24
##DATA TYPE=INFRARED SPECTRUM
##ORIGIN=EPA-IR VAPOR PHASE LIBRARY
##OWNER=SRD/NIST
Collection (C) 2018 copyright by the U.S. Secretary of Commerce
on behalf of the United States of America. All rights reserved.
##CAS REGISTRY NO=4731-65-1
##MOLFORM=C 21 H 21 O 3 P
##$NIST SOURCE=MSDC-IR
##STATE=gas
##XUNITS=1/CM
##YUNITS=ABSORBANCE
##XFACTOR=1.
##YFACTOR=0.001
##DELTAX=1.92898
##FIRSTX=549.8
##LASTX=4000.7
##FIRSTY=2.816
##MAXX=4000.7
##MINX=549.759
##MAXY=0.096046
##MINY=0
##NPOINTS=1790
##XYDATA=(X++(Y..Y))
549.759 2.816 2.316 1.786 1.556 1.986 2.246 1.756 1.896 2.416 3.106
569.049 3.236 3.056 3.066 3.256 3.396 3.186 3.386 3.526 3.046 2.666
588.339 2.536 2.536 2.416 2.186 2.046 1.656 1.516 1.696 1.596 1.426
607.628 1.2405 1.2328 1.586 1.4228 1.2093 1.436 1.2704 1.3533 1.242 0.9889
626.918 1.1293 1.0964 0.9261 0.9236 1.0406 1.1319 1.047 0.952 1.0764 1.0799
646.208 0.9957 0.9527 1.1158 0.9409 1.0273 1.399 1.4156 1.3839 1.456 1.626
665.498 1.756 1.816 2.076 2.606 2.776 2.826 2.746 2.326 1.976 1.896
684.787 2.126 1.966 1.636 1.616 1.636 1.846 1.736 1.666 1.856 1.976
704.077 2.146 2.256 2.416 2.656 2.996 3.306 3.976 4.816 5.866 7.526
723.367 9.636 11.986 14.226 16.086 17.316 17.726 17.556 17.296 17.476 18.456
742.657 20.446 24.196 28.976 34.126 38.426 40.876 40.716 37.126 31.906 25.996
761.947 20.606 16.436 13.276 11.096 9.306 8.296 7.876 7.466 6.916 6.706
781.236 7.016 7.606 8.686 9.846 10.926 11.896 12.556 12.966 12.466 11.336
800.526 10.176 8.716 7.376 6.096 5.086 4.326 3.556 3.106 2.566 2.206
819.816 2.016 1.856 1.756 1.686 1.716 1.796 1.906 1.776 1.696 1.766
839.106 1.916 2.176 2.476 2.496 2.616 2.656 2.466 2.156 1.586 1.686
858.395 1.766 1.676 1.716 1.576 1.3784 1.0792 1.1461 1.3325 1.0993 0.745
877.685 0.8466 1.2606 1.2224 1.1049 1.2052 1.2408 1.1198 1.2215 1.1663 1.1065
896.975 1.3408 1.3139 1.14 1.1297 1.1017 1.2606 1.2081 1.1598 1.3693 1.3395
916.265 1.2556 1.0239 1.2004 1.4222 1.476 1.886 1.886 1.806 2.176 2.276
935.555 1.986 1.596 1.486 1.536 1.716 1.886 1.746 1.446 1.3905 1.666
954.844 2.066 1.766 1.756 2.196 1.996 2.046 2.296 2.316 2.526 2.446
974.134 2.286 2.536 2.736 3.216 3.416 3.586 3.916 4.476 4.746 4.696
993.424 5.266 5.876 6.376 7.076 7.856 8.846 10.036 11.266 12.556 14.326
1012.714 17.126 20.036 22.956 26.926 30.656 33.286 35.266 36.376 35.936 33.976
1032.003 31.456 28.836 26.896 25.516 24.286 22.136 19.606 17.066 14.736 12.926
1051.293 11.146 10.016 10.276 10.846 10.906 11.736 13.596 15.696 17.416 18.316
1070.583 18.716 18.726 17.376 15.386 13.476 11.516 9.946 8.356 6.866 6.536
1089.873 5.696 5.036 5.056 4.446 4.366 4.846 4.566 4.326 4.656 4.526
1109.163 5.066 5.636 5.576 6.106 7.506 9.406 11.646 13.866 14.916 15.656
1128.452 16.106 14.986 13.056 10.606 8.616 7.806 6.676 5.506 4.726 4.806
1147.742 6.056 6.486 6.786 8.616 11.066 12.746 13.206 12.926 11.526 9.716
1167.032 9.086 9.406 9.826 10.756 11.566 12.086 12.596 12.536 12.316 11.556
1186.322 11.006 10.136 9.826 10.786 10.506 10.066 10.066 9.996 10.636 11.476
1205.611 12.926 14.716 16.426 17.796 18.746 20.806 23.786 27.156 31.066 35.716
1224.901 41.556 48.626 56.416 65.076 73.986 82.566 89.856 94.296 96.046 94.456
1244.191 88.996 81.406 73.626 65.906 58.706 53.656 50.476 48.596 48.046 47.946
1263.481 48.476 48.486 47.166 44.436 41.116 37.726 33.836 30.446 27.856 25.546
1282.771 23.386 21.466 20.016 18.926 17.506 16.036 14.746 13.356 12.186 11.086
1302.060 9.886 8.726 7.766 7.056 6.376 5.856 5.336 4.806 4.576 4.336
1321.350 3.936 3.676 3.586 3.466 3.296 3.136 3.046 2.976 2.906 2.896
1340.640 2.856 2.716 2.636 2.666 2.576 2.466 2.526 2.596 2.576 2.546
1359.930 2.506 2.516 2.626 2.646 2.686 2.806 2.846 2.936 3.066 3.156
1379.219 3.296 3.556 3.746 3.896 4.126 4.246 4.426 4.586 4.656 4.836
1398.509 5.046 5.206 5.446 5.776 6.186 6.886 7.866 8.916 10.186 11.826
1417.799 13.946 16.836 20.686 25.496 31.216 37.216 42.286 45.176 44.806 41.236
1437.089 35.586 29.696 24.876 21.666 20.196 20.056 21.016 22.586 24.846 28.046
1456.378 32.216 37.646 44.466 52.846 62.096 71.266 78.326 81.366 78.786 70.626
1475.668 59.106 46.516 35.376 26.716 20.526 16.346 13.696 11.846 10.306 9.126
1494.958 8.176 7.476 6.916 6.356 5.926 5.606 5.366 5.036 4.706 4.456
1514.248 4.146 3.846 3.756 3.716 3.526 3.396 3.316 3.226 3.216 3.256
1533.538 3.256 3.426 3.666 3.896 4.076 4.506 5.036 5.426 6.036 6.886
1552.827 7.986 9.456 11.266 13.526 16.366 19.556 22.856 25.886 28.446 30.096
1572.117 30.656 30.516 30.076 29.776 29.616 29.256 28.236 26.066 22.746 18.796
1591.407 15.016 11.896 9.376 7.676 6.536 5.556 4.886 4.486 4.106 3.716
1610.697 3.486 3.246 2.956 2.736 2.636 2.496 2.286 2.036 1.886 1.886
1629.986 1.846 1.816 1.746 1.606 1.546 1.576 1.536 1.3613 1.1932 1.2403
1649.276 1.2965 1.4023 1.466 1.4248 1.576 1.716 1.766 1.776 1.776 1.786
1668.566 1.806 1.856 1.946 1.916 1.926 2.086 2.176 2.256 2.316 2.256
1687.856 2.206 2.196 2.166 2.056 1.916 1.856 1.796 1.696 1.686 1.646
1707.146 1.496 1.3336 1.3319 1.446 1.446 1.4172 1.4178 1.3724 1.3476 1.3173
1726.435 1.2713 1.232 1.2119 1.1932 1.1629 1.2465 1.3348 1.2943 1.2007 1.2516
1745.725 1.2998 1.2289 1.2985 1.3192 1.2464 1.2836 1.341 1.456 1.586 1.546
1765.015 1.606 1.816 1.906 1.926 1.996 2.066 2.056 1.996 1.946 1.826
1784.305 1.746 1.706 1.646 1.586 1.566 1.586 1.596 1.646 1.706 1.756
1803.594 1.746 1.706 1.726 1.746 1.756 1.726 1.696 1.686 1.556 1.486
1822.884 1.466 1.4015 1.3252 1.3003 1.2717 1.2571 1.213 1.0975 1.068 1.0714
1842.174 1.0663 1.1563 1.1642 1.1101 1.1568 1.1905 1.1942 1.3283 1.516 1.506
1861.464 1.506 1.556 1.676 1.746 1.666 1.576 1.556 1.536 1.506 1.596
1880.754 1.706 1.806 2.086 2.326 2.546 2.826 3.046 3.216 3.316 3.216
1900.043 3.056 2.856 2.516 2.266 2.076 1.916 1.786 1.766 1.756 1.806
1919.333 1.926 2.006 2.186 2.356 2.476 2.486 2.396 2.256 2.036 1.796
1938.623 1.536 1.2339 1.0422 1.0033 0.9923 1.0103 0.9894 0.9075 0.7881 0.7308
1957.913 0.7551 0.7709 0.7569 0.7883 0.7871 0.7743 0.8309 0.838 0.8273 0.8465
1977.202 0.7942 0.8336 0.8933 0.7931 0.8111 0.9036 0.9696 1.0588 1.0975 1.0887
1996.492 1.0441 1.0291 1.1255 1.234 1.258 1.3255 1.4008 1.456 1.606 1.736
2015.782 1.926 2.086 2.176 2.376 2.506 2.496 2.556 2.686 2.726 2.686
2035.072 2.656 2.556 2.426 2.316 2.346 2.326 2.196 2.116 2.066 2.056
2054.362 1.996 1.916 1.866 1.826 1.886 1.846 1.676 1.586 1.466 1.436
2073.651 1.3866 1.3504 1.399 1.3739 1.2706 1.166 1.2102 1.1568 1.0996 1.1252
2092.941 1.1186 1.1677 1.1048 0.9747 0.9565 0.9966 0.9637 1.0356 1.047 0.9471
2112.231 0.8999 0.8416 0.8454 0.9111 0.8655 0.8045 0.8144 0.8724 0.8804 0.8718
2131.521 0.879 0.8198 0.8654 0.898 0.8812 0.8909 0.9008 0.8711 0.7613 0.6892
2150.810 0.756 0.7323 0.7408 0.7982 0.6814 0.6183 0.6911 0.6901 0.6433 0.6147
2170.100 0.5606 0.4995 0.5637 0.6049 0.5374 0.50352 0.5557 0.6292 0.573 0.5449
2189.390 0.5608 0.47944 0.4668 0.5795 0.532 0.45601 0.51752 0.5891 0.5497 0.51643
2208.680 0.5358 0.5975 0.6857 0.6888 0.7043 0.6798 0.6603 0.6568 0.5977 0.6495
2227.970 0.7193 0.7461 0.7466 0.6775 0.6961 0.7124 0.6956 0.7416 0.7893 0.8618
2247.259 0.9469 0.9572 0.9633 0.9949 1.0871 1.1365 1.0851 1.0415 1.0061 1.0014
2266.549 0.9576 0.9097 0.9268 0.9731 0.9649 0.9002 0.7796 0.6879 0.6605 0.7305
2285.839 0.7758 0.7247 0.7876 0.764 0.6482 0.5694 0.51245 0.5455 0.5801 0.5783
2305.129 0.6466 0.5876 0.42166 0.51324 0.6305 0.7281 0.7677 0.6687 0.6527 0.6698
2324.418 0.7127 0.6508 0.5968 0.6559 0.5645 0.431873 0.46606 0.5296 0.45721 0.49613
2343.708 0.6488 0.6279 0.5386 0.5649 0.6043 0.559 0.52433 0.50932 0.561 0.575
2362.998 0.5896 0.6565 0.7032 0.6425 0.6354 0.6655 0.6339 0.6963 0.7013 0.6311
2382.288 0.5769 0.5895 0.6394 0.50862 0.46819 0.5634 0.5602 0.5354 0.44253 0.48904
2401.578 0.5522 0.52446 0.5577 0.5918 0.5939 0.5904 0.6093 0.663 0.61 0.5914
2420.867 0.5978 0.49143 0.5571 0.5789 0.47843 0.44076 0.3671 0.3734 0.3763 0.47105
2440.157 0.6338 0.6909 0.6613 0.7506 0.8266 0.7404 0.7213 0.7029 0.631 0.6104
2459.447 0.6667 0.6969 0.7368 0.746 0.6942 0.6483 0.6365 0.7477 0.7675 0.6622
2478.737 0.7399 0.8499 0.8919 0.8298 0.8576 0.9858 0.9166 0.8754 0.8888 0.7777
2498.026 0.7531 0.8287 0.8897 1.0777 1.0693 0.9357 1.0618 1.1394 1.1025 1.0453
2517.316 1.0645 1.1005 1.1053 1.1566 1.1563 1.1581 1.2723 1.2827 1.1939 1.1274
2536.606 1.1715 1.2911 1.2476 1.0498 0.8901 0.9018 0.9845 1.1274 1.1605 1.0296
2555.896 0.8949 0.8759 0.8993 0.8414 0.8521 0.8584 0.8072 0.8113 0.9469 0.9068
2575.186 0.7446 0.8303 0.9117 0.8729 0.8725 0.8543 0.6985 0.6597 0.7444 0.8405
2594.475 0.8587 0.6937 0.7188 0.7308 0.6598 0.7005 0.6724 0.5805 0.5876 0.6671
2613.765 0.6793 0.6869 0.6786 0.6429 0.6409 0.7243 0.7421 0.7374 0.7647 0.7126
2633.055 0.7692 0.8 0.6839 0.6888 0.7162 0.6858 0.7544 0.7526 0.6323 0.6249
2652.345 0.6641 0.6046 0.5331 0.46741 0.52053 0.51512 0.51472 0.7177 0.7676 0.6747
2671.634 0.6086 0.6037 0.6211 0.6499 0.6199 0.49114 0.50181 0.6604 0.6707 0.6406
2690.924 0.7359 0.7379 0.6486 0.6709 0.702 0.6473 0.6819 0.7383 0.7983 0.7695
2710.214 0.7869 0.7816 0.6439 0.596 0.6963 0.6575 0.44306 0.5354 0.6978 0.6619
2729.504 0.723 0.7273 0.5815 0.6555 0.6935 0.6218 0.6801 0.6513 0.6425 0.824
2748.794 0.8444 0.7595 0.6581 0.564 0.6279 0.7746 0.8101 0.8243 0.9435 1.0019
2768.083 0.9066 0.8348 0.9321 1.0392 1.0655 1.0391 1.0978 1.0966 1.0684 1.2167
2787.373 1.343 1.446 1.546 1.576 1.676 1.856 2.026 2.006 2.126 2.396
2806.663 2.616 2.836 3.126 3.556 3.936 4.276 4.746 5.246 5.616 6.326
2825.953 7.306 8.396 9.776 11.526 13.606 15.876 17.836 18.786 18.676 17.456
2845.242 15.616 13.716 11.926 10.586 9.606 8.866 8.406 8.066 7.796 7.616
2864.532 7.486 7.176 6.916 6.906 6.936 6.916 6.986 7.106 7.186 7.376
2883.822 7.526 7.676 7.846 7.906 8.126 8.286 8.456 8.936 9.296 9.696
2903.112 10.256 10.866 11.526 12.116 12.566 12.526 12.586 12.906 13.186 13.336
2922.401 13.566 14.216 15.196 16.276 17.496 19.646 22.216 24.736 27.216 29.156
2941.691 30.186 29.996 28.636 26.376 23.976 22.056 20.476 19.106 17.896 16.786
2960.981 15.586 14.296 13.066 11.996 11.026 10.286 9.706 9.256 9.106 8.926
2980.271 8.966 9.236 9.496 9.726 10.236 11.106 12.066 13.116 14.416 15.896
2999.561 17.096 18.016 18.496 18.036 16.976 15.556 13.976 12.306 10.736 9.646
3018.850 8.706 7.976 7.626 7.256 6.936 6.896 6.626 6.716 6.956 6.946
3038.140 7.006 7.076 7.346 7.806 8.616 9.676 10.966 12.586 14.616 17.236
3057.430 20.156 23.136 26.166 29.146 31.636 32.996 32.946 30.786 26.416 21.626
3076.720 17.556 14.646 12.936 11.986 11.426 10.816 9.966 8.906 7.756 6.776
3096.009 5.686 4.666 3.886 3.426 3.246 3.046 2.786 2.586 2.606 2.556
3115.299 2.356 2.276 2.266 2.186 2.206 2.426 2.466 2.386 2.486 2.386
3134.589 2.386 2.606 2.626 2.506 2.276 2.136 2.086 1.876 1.656 1.546
3153.879 1.446 1.3905 1.231 1.1229 1.0365 0.9612 0.9826 0.9353 0.9618 0.9149
3173.169 1.0239 0.9731 0.6697 0.5362 0.3814 0.5826 0.7889 0.6334 0.7015 0.7734
3192.458 0.5715 0.5544 0.6693 0.7274 0.8051 0.6113 0.45798 0.3851 0.3585 0.5589
3211.748 0.48767 0.41944 0.44261 0.4118 0.3735 0.291 0.4043 0.6093 0.52289 0.3297
3231.038 0.381 0.5499 0.5886 0.47358 0.42119 0.188 0.072 0.29 0.3817 0.427319
3250.328 0.3601 0.3999 0.5572 0.3872 0.203 0.299 0.4081 0.3975 0.48488 0.3674
3269.617 0.149 0.183 0.156 0.075 0.172 0.295 0.267 0.317 0.50533 0.596
3288.907 0.348 0.047 0.156 0.43848 0.51002 0.213 0.059 0.243 0.3399 0.3827
3308.197 0.3659 0.26 0.3294 0.3674 0.3564 0.321 0.261 0.5314 0.5811 0.43736
3327.487 0.3987 0.24 0.167 0.196 0.216 0.272 0.301 0.3373 0.3464 0.232
3346.777 0.302 0.55 0.5811 0.49338 0.287 0.245 0.471 0.4019 0.29 0.3841
3366.066 0.5298 0.5696 0.3599 0.262 0.224 0.254 0.5534 0.5858 0.48126 0.48056
3385.356 0.42385 0.3485 0.47398 0.305 0.204 0.51996 0.6149 0.50533 0.38 0.365
3404.646 0.6117 0.7095 0.44256 0.3834 0.44108 0.47769 0.581 0.45256 0.44396 0.6058
3423.936 0.50657 0.427042 0.285 0.3537 0.5841 0.48 0.3351 0.50884 0.6329 0.4952
3443.225 0.3401 0.238 0.358 0.426634 0.3801 0.223 0.156 0.3388 0.47945 0.50464
3462.515 0.52077 0.45888 0.275 0.291 0.5266 0.51017 0.272 0.251 0.3262 0.318
3481.805 0.435532 0.3845 0.072 0.271 0.4136 0.268 0.319 0.3404 0.192 0.225
3501.095 0.211 0.053 0.119 0.144 0.101 0.006 0 0.045 0.11 0.38
3520.385 0.426557 0.257 0.149 0.215 0.3891 0.5858 0.611 0.430694 0.44423 0.4077
3539.674 0.3335 0.24 0.241 0.41851 0.432012 0.3721 0.396 0.321 0.185 0.161
3558.964 0.303 0.46823 0.5465 0.49205 0.318 0.45442 0.51932 0.3857 0.289 0.425326
3578.254 0.5511 0.3972 0.234 0.255 0.6282 0.5977 0.50067 0.5872 0.3954 0.46039
3597.544 0.6059 0.6408 0.428058 0.191 0.25 0.3874 0.3314 0.269 0.299 0.206
3616.833 0.285 0.3938 0.42051 0.42465 0.3896 0.3908 0.48162 0.44502 0.329 0.3516
3636.123 0.259 0.124 0.3831 0.50506 0.46023 0.50479 0.52279 0.50958 0.48583 0.3899
3655.413 0.3457 0.305 0.047 0.11 0.224 0.274 0.3883 0.47998 0.5465 0.45184
3674.703 0.32 0.272 0.156 0.283 0.4072 0.149 0.243 0.313 0.257 0.3395
3693.993 0.263 0.311 0.3363 0.25 0.288 0.46203 0.4267 0.272 0.3887 0.5511
3713.282 0.6345 0.7557 0.7257 0.49188 0.49496 0.4122 0.42074 0.5829 0.45991 0.483
3732.572 0.5266 0.4111 0.44785 0.6256 0.7228 0.6638 0.46305 0.3558 0.48863 0.5852
3751.862 0.5955 0.7421 0.6786 0.430985 0.51084 0.5324 0.3415 0.19 0.24 0.339
3771.152 0.5724 0.587 0.245 0.194 0.44289 0.49979 0.5099 0.5517 0.428384 0.3641
3790.441 0.552 0.51976 0.315 0.3948 0.3863 0.3983 0.45539 0.3779 0.3829 0.3277
3809.731 0.307 0.48224 0.4126 0.45223 0.50363 0.355 0.45492 0.6053 0.7593 0.6477
3829.021 0.46248 0.49508 0.45908 0.5859 0.52279 0.4114 0.6321 0.7093 0.6553 0.7912
3848.311 0.9084 1.0426 1.0485 0.8295 0.7569 0.6426 0.7194 0.8226 0.7178 0.6647
3867.601 0.6919 0.7154 0.4758 0.296 0.284 0.3766 0.44626 0.315 0.3875 0.42338
3886.890 0.4817 0.6031 0.49082 0.456 0.41 0.318 0.4126 0.46509 0.354 0.32
3906.180 0.431742 0.465 0.3519 0.184 0.284 0.48672 0.50989 0.47867 0.5369 0.6312
3925.470 0.50073 0.246 0.3349 0.6637 0.6036 0.428686 0.48668 0.5906 0.6148 0.45831
3944.760 0.45827 0.5346 0.43713 0.50401 0.6133 0.7989 0.8471 0.6024 0.5353 0.5577
3964.049 0.3292 0.3453 0.3559 0.268 0.305 0.31 0.41931 0.61 0.6551 0.45023
3983.339 0.3831 0.44696 0.4146 0.429752 0.5668 0.8729 0.8965 0.5947 0.5346 0.7006
##END=
