##TITLE=Hexyl methyl ether
##JCAMP-DX=4.24
##DATA TYPE=INFRARED SPECTRUM
##ORIGIN=NIST Mass Spectrometry Data Center
##OWNER=NIST Standard Reference Data Program
Collection (C) 2018 copyright by the U.S. Secretary of Commerce
on behalf of the United States of America. All rights reserved.
##CAS REGISTRY NO=4747-07-3
##MOLFORM=C 7 H 16 O
##$NIST SOURCE=MSDC-IR
##SPECTROMETER/DATA SYSTEM=HP-GC/MS/IRD
##STATE=gas
##XUNITS=1/CM
##YUNITS=ABSORBANCE
##XFACTOR=1.0
##YFACTOR=0.000004500
##DELTAX=4.0
##FIRSTX=550.0
##LASTX=3846.0
##FIRSTY=0.000045
##MAXX=3846
##MINX=550
##MAXY=0.045
##MINY=0
##NPOINTS=825
##XYDATA=(X++(Y..Y))
550.0 10 31 28 4 0 2 16 30 30 26
590.0 25 36 30 16 12 10 8 21 29 30
630.0 25 20 12 21 38 34 23 29 38 26
670.0 14 25 39 52 59 58 69 74 84 96
710.0 99 121 143 153 158 172 166 149 152 146
750.0 131 129 140 144 134 126 123 117 113 117
790.0 114 115 111 97 97 110 122 116 112 116
830.0 120 122 125 137 143 138 137 151 170 189
870.0 209 225 249 290 323 349 391 431 448 457
910.0 465 473 472 466 457 441 428 416 401 400
950.0 394 385 384 378 371 357 351 345 344 353
990.0 354 359 361 360 362 361 362 370 375 397
1030.0 428 455 487 517 552 585 613 657 721 805
1070.0 911 1039 1204 1422 1692 2014 2388 2798 3230 3699
1110.0 4198 4688 5134 5442 5510 5303 4825 4159 3453 2845
1150.0 2370 2018 1759 1588 1491 1435 1420 1449 1489 1520
1190.0 1525 1473 1370 1240 1100 976 878 789 715 646
1230.0 587 524 468 424 390 375 360 347 340 338
1270.0 337 335 325 322 323 321 316 318 323 316
1310.0 302 291 279 269 269 283 305 326 352 380
1350.0 399 418 448 487 552 662 809 961 1063 1086
1390.0 1026 881 698 539 435 374 344 340 359 396
1430.0 447 519 609 713 832 952 1073 1178 1233 1225
1470.0 1150 1031 891 746 609 488 393 320 267 224
1510.0 201 183 163 148 135 125 120 108 101 100
1550.0 95 86 79 81 81 73 70 71 74 72
1590.0 65 63 63 61 60 59 53 52 55 50
1630.0 46 40 38 37 37 34 34 40 36 33
1670.0 36 37 38 33 26 27 23 19 22 21
1710.0 23 23 22 26 22 20 16 15 21 20
1750.0 16 16 14 15 16 14 16 16 15 14
1790.0 11 9 11 14 14 15 15 11 14 16
1830.0 10 10 13 10 9 14 14 10 11 15
1870.0 16 13 13 16 15 14 16 17 19 18
1910.0 21 24 22 19 20 24 27 25 23 22
1950.0 22 24 26 29 30 31 37 41 41 42
1990.0 42 45 50 56 57 63 68 71 76 75
2030.0 76 76 76 80 81 77 72 72 70 64
2070.0 64 66 67 65 62 56 53 55 54 53
2110.0 50 48 47 40 37 37 34 31 29 29
2150.0 32 31 30 30 28 28 25 28 28 25
2190.0 25 26 23 21 23 20 15 14 14 15
2230.0 18 16 14 12 15 15 15 17 14 11
2270.0 13 13 11 8 7 8 5 0 2 8
2310.0 7 8 9 10 10 9 7 8 6 5
2350.0 8 7 4 1 1 7 10 11 15 18
2390.0 19 18 18 22 24 21 20 23 21 15
2430.0 16 20 22 17 16 19 15 12 12 15
2470.0 18 16 12 13 19 21 22 22 23 25
2510.0 23 25 29 26 29 36 36 39 41 43
2550.0 46 52 54 55 58 62 69 77 76 78
2590.0 85 94 98 102 104 101 105 105 107 112
2630.0 114 119 124 123 127 135 142 145 148 158
2670.0 166 177 183 189 198 203 208 216 229 245
2710.0 257 274 302 334 362 392 421 442 454 463
2750.0 462 459 463 467 481 497 524 571 626 705
2790.0 799 911 1064 1273 1540 1833 2119 2394 2638 2827
2830.0 2972 3102 3223 3365 3620 4029 4555 5116 5622 5995
2870.0 6177 6195 6063 5794 5497 5250 5091 5070 5209 5484
2910.0 5876 6406 7098 7898 8704 9396 9867 10000 9742 9193
2950.0 8505 7826 7284 6907 6532 6023 5423 4743 4044 3440
2990.0 2938 2503 2091 1702 1384 1155 990 865 765 686
3030.0 623 572 529 491 458 434 410 385 363 343
3070.0 321 305 294 281 263 245 231 222 218 205
3110.0 188 175 162 156 156 148 142 133 119 115
3150.0 107 107 105 99 101 98 92 92 89 81
3190.0 79 73 70 74 70 73 70 61 57 54
3230.0 46 43 52 49 42 47 47 34 32 35
3270.0 40 37 28 26 28 35 30 29 33 28
3310.0 21 18 21 22 22 25 27 26 18 17
3350.0 22 20 25 33 36 30 29 25 18 20
3390.0 19 12 19 26 23 16 15 15 16 19
3430.0 15 15 16 16 19 21 11 4 13 20
3470.0 18 10 11 18 24 17 12 11 10 17
3510.0 21 19 10 0 3 11 15 16 8 10
3550.0 15 15 10 4 10 10 12 14 10 8
3590.0 12 19 20 18 23 21 16 13 21 28
3630.0 24 30 32 31 25 18 13 20 24 25
3670.0 21 21 29 35 40 31 23 20 22 23
3710.0 24 28 26 34 40 27 22 36 38 34
3750.0 37 29 29 29 30 34 26 31 36 36
3790.0 41 37 36 36 38 43 39 46 55 51
3830.0 44 39 41 49 47
##END=
