##TITLE=1,1,6-Trimethyl tetralin
##JCAMP-DX=4.24
##DATA TYPE=INFRARED SPECTRUM
##ORIGIN=NIST Mass Spectrometry Data Center
##OWNER=NIST Standard Reference Data Program
Collection (C) 2018 copyright by the U.S. Secretary of Commerce
on behalf of the United States of America. All rights reserved.
##CAS REGISTRY NO=475-03-6
##MOLFORM=C 13 H 18
##$NIST SOURCE=MSDC-IR
##SPECTROMETER/DATA SYSTEM=HP-GC/MS/IRD
##STATE=gas
##XUNITS=1/CM
##YUNITS=ABSORBANCE
##XFACTOR=1.0
##YFACTOR=0.000004100
##DELTAX=4.0
##FIRSTX=550.0
##LASTX=3846.0
##FIRSTY=0.000992
##MAXX=3846
##MINX=550
##MAXY=0.041
##MINY=0
##NPOINTS=825
##XYDATA=(X++(Y..Y))
550.0 242 361 468 521 492 411 293 188 132 99
590.0 76 66 60 59 62 68 61 30 16 22
630.0 29 35 33 27 25 19 19 33 47 28
670.0 13 16 25 31 24 12 4 9 6 11
710.0 34 38 35 33 55 86 100 96 74 60
750.0 65 64 62 65 58 54 57 67 80 103
790.0 145 251 474 813 1169 1633 1877 1495 1035 666
830.0 372 234 180 163 169 176 157 134 144 184
870.0 227 249 253 261 267 259 246 241 232 213
910.0 179 145 112 87 91 97 96 99 101 102
950.0 104 107 113 129 140 140 137 123 98 81
990.0 77 78 76 72 73 69 69 66 76 93
1030.0 108 132 162 215 300 399 468 479 448 408
1070.0 403 422 423 378 290 194 130 100 88 93
1110.0 100 107 113 119 137 153 173 226 293 331
1150.0 340 306 241 194 180 168 162 173 178 179
1190.0 193 232 286 320 315 276 224 179 162 180
1230.0 230 286 297 267 221 156 117 113 116 128
1270.0 160 214 286 379 453 467 409 315 233 180
1310.0 153 141 149 174 224 285 322 353 371 379
1350.0 416 504 606 750 872 794 689 650 630 623
1390.0 598 538 445 388 391 434 481 516 542 561
1430.0 598 652 718 798 903 1041 1201 1328 1355 1298
1470.0 1189 1043 962 1014 1217 1517 1764 1839 1709 1412
1510.0 1062 792 588 439 346 296 272 250 227 207
1550.0 191 179 172 166 154 143 137 131 126 128
1590.0 143 172 212 275 352 407 423 391 317 229
1630.0 162 125 100 78 68 62 56 50 48 46
1670.0 50 50 55 63 63 65 65 59 57 51
1710.0 45 50 52 53 58 66 72 78 86 97
1750.0 114 120 118 104 80 66 54 44 37 35
1790.0 37 36 30 28 30 33 33 37 40 38
1830.0 38 38 36 35 39 42 39 41 48 55
1870.0 61 69 80 95 105 107 102 87 69 53
1910.0 42 30 24 23 24 23 18 17 20 17
1950.0 16 16 14 14 11 12 13 10 12 16
1990.0 11 8 10 6 6 6 4 11 18 12
2030.0 7 10 11 12 12 15 14 7 7 4
2070.0 2 2 0 4 6 7 8 8 7 6
2110.0 7 9 12 10 7 4 5 4 2 1
2150.0 0 1 5 6 10 12 11 12 10 9
2190.0 14 15 12 11 11 8 5 6 10 12
2230.0 12 17 20 15 14 17 14 14 16 16
2270.0 20 23 22 23 25 27 26 25 27 28
2310.0 25 24 22 19 20 22 22 19 21 19
2350.0 19 20 20 22 20 17 18 20 26 31
2390.0 32 33 32 33 32 33 33 29 25 23
2430.0 26 31 32 31 30 26 30 31 28 30
2470.0 32 30 29 31 30 29 32 34 33 30
2510.0 30 37 43 36 32 35 36 35 32 31
2550.0 32 34 33 34 38 41 43 39 42 43
2590.0 40 41 42 42 43 44 52 58 60 60
2630.0 62 65 66 70 76 84 100 119 133 142
2670.0 141 131 115 98 83 78 75 74 79 84
2710.0 89 99 111 122 134 153 164 174 178 171
2750.0 156 145 143 148 151 160 173 182 191 203
2790.0 215 231 243 255 276 301 324 361 411 477
2830.0 576 730 948 1239 1597 1993 2381 2711 2975 3232
2870.0 3513 3736 3817 3753 3590 3424 3339 3375 3540 3879
2910.0 4422 5191 6186 7296 8299 9138 9755 10000 9536 8489
2950.0 7421 6707 6538 6654 6687 6250 5209 4072 3112 2369
2990.0 1972 1872 1961 2101 2189 2176 2070 1906 1727 1560
3030.0 1403 1256 1137 1061 1025 1021 1025 1009 960 879
3070.0 783 679 568 470 397 345 305 287 278 274
3110.0 271 256 247 233 208 187 173 161 144 138
3150.0 133 124 117 115 115 109 104 96 91 91
3190.0 88 89 92 95 96 100 100 91 82 80
3230.0 82 75 67 65 60 55 54 53 50 50
3270.0 48 46 45 40 35 31 29 32 42 38
3310.0 34 32 29 32 33 36 35 30 28 30
3350.0 32 27 23 29 33 31 34 30 26 21
3390.0 23 26 26 26 23 29 33 36 37 32
3430.0 30 30 27 25 26 31 35 32 25 27
3470.0 35 30 27 27 23 26 21 18 22 21
3510.0 17 14 17 19 19 18 21 30 30 26
3550.0 21 22 24 19 17 18 17 19 19 15
3590.0 10 9 11 7 3 12 20 20 13 12
3630.0 19 18 23 25 20 21 25 29 26 26
3670.0 25 18 22 26 26 27 19 19 23 20
3710.0 23 29 33 32 31 31 29 29 31 39
3750.0 49 36 29 35 34 33 33 34 34 37
3790.0 39 35 34 36 43 48 46 38 31 32
3830.0 35 37 40 35 37
##END=
