##TITLE=N-(m-Nitrophenyl)benzamide
##JCAMP-DX=4.24
##DATA TYPE=INFRARED SPECTRUM
##ORIGIN=EPA-IR VAPOR PHASE LIBRARY
##OWNER=SRD/NIST
Collection (C) 2018 copyright by the U.S. Secretary of Commerce
on behalf of the United States of America. All rights reserved.
##CAS REGISTRY NO=4771-08-8
##MOLFORM=C 13 H 10 N 2 O 3
##$NIST SOURCE=MSDC-IR
##STATE=gas
##XUNITS=1/CM
##YUNITS=ABSORBANCE
##XFACTOR=1.
##YFACTOR=0.001
##DELTAX=1.92898
##FIRSTX=549.8
##LASTX=4000.7
##FIRSTY=2.15
##MAXX=4000.7
##MINX=549.759
##MAXY=0.06014
##MINY=0
##NPOINTS=1790
##XYDATA=(X++(Y..Y))
549.759 2.15 1.85 1.5 1.41 1.1188 1.28 1.8 1.72 1.46 1.34
569.049 1.41 1.74 2.26 2.61 3.1 3.6 3.9 4.6 5.26 5.26
588.339 5.16 4.7 3.83 2.88 2.14 1.78 1.55 1.37 1.1413 0.9644
607.628 0.9465 1.081 1.18 1.22 1.17 1.1356 1.1081 1.0322 1.0606 1.1086
626.918 0.9175 0.7478 0.6955 0.6894 0.7622 0.88 0.8343 0.9312 0.9553 0.9866
646.208 1.19 1.36 1.55 1.89 2.47 2.98 3.56 4.44 5.19 5.62
665.498 6.18 6.8 7.35 7.52 7.19 6.8 6.61 6.47 6.28 6.21
684.787 6.16 6.23 6.65 7.09 7.43 7.92 8.55 9.07 9.52 10.02
704.077 10.44 10.41 10.07 9.62 8.96 8.19 7.51 6.96 6.68 6.76
723.367 7.08 7.65 8.48 9.25 9.82 10.41 10.12 8.98 7.69 6.34
742.657 5.03 3.87 3.01 2.57 2.27 1.86 1.78 1.74 1.53 1.57
761.947 1.59 1.58 1.6 1.6 1.75 1.87 1.86 1.94 2.18 2.4
781.236 2.64 2.84 3.26 3.9 4.35 4.69 4.9 4.92 4.85 4.75
800.526 4.4 4.05 3.83 3.85 4.16 4.93 5.97 6.98 7.82 8.16
819.816 7.96 7.11 5.86 4.28 2.96 2.42 2.21 2.05 1.83 1.61
839.106 1.58 1.62 1.47 1.26 1.32 1.57 1.58 1.5 1.57 1.59
858.395 1.64 1.62 1.82 2.24 2.58 2.89 3.11 3.3 3.49 3.53
877.685 3.55 3.5 3.34 3.3 3.16 3.02 2.85 2.62 2.41 2.18
896.975 2.14 2.19 2.15 2.1 2.1 2.05 2.1 2.33 2.49 2.64
916.265 2.8 2.89 2.89 2.57 2.23 2.08 1.9 1.61 1.52 1.39
935.555 1.21 1.23 1.0949 1.0732 1.1641 1.1628 1.1132 0.8731 0.753 0.9013
954.844 0.9991 1.0507 0.9552 0.8779 1.0177 0.9807 0.8035 0.9415 0.9246 0.958
974.134 0.9892 0.8317 0.8096 0.7853 0.8027 0.8424 0.9405 0.967 0.952 0.8759
993.424 0.936 1.1177 1.24 1.43 1.4 1.64 1.64 1.4 1.33 1.19
1012.714 1.33 1.65 1.91 2.21 2.93 3.77 4.16 4.24 4.33 3.79
1032.003 2.98 2.41 1.95 1.61 1.39 1.25 1.4 1.66 1.81 2.09
1051.293 2.31 2.39 2.52 2.88 3.06 3.61 4.6 4.93 5.19 6.05
1070.583 6.36 6.1 6.06 6.33 6.54 6.25 6.05 6.52 7.36 7.9
1089.873 8.08 8.24 8.11 7.63 7.55 7.23 6.28 5.79 5.07 4.57
1109.163 4.13 3.63 3.2 2.56 2.32 2.3 2.09 1.39 0.8418 0.9992
1128.452 0.8367 0.3447 0.6824 1.28 1.42 1.1277 0.9354 1.0388 1.18 1.1283
1147.742 1.24 0.9794 0.7192 1.0612 1.25 1.1189 1.23 1.31 1.1205 1.3
1167.032 1.62 1.87 1.93 2.03 2.23 2.71 3.31 3.61 3.82 3.79
1186.322 3.63 3.2 2.68 2.62 2.14 1.91 2.18 2.28 2.31 2.4
1205.611 3.07 3.49 3.83 4.89 5.58 6.26 7.76 9.19 10.83 12.83
1224.901 15.1 17.62 19.94 21.62 22.53 23.08 22.84 21.86 20.75 19.67
1244.191 18.63 17.56 16.08 14.41 12.7 10.89 9.39 8.06 7.14 6.69
1263.481 6.59 6.65 6.65 6.83 7.36 8.3 9.3 10.25 11.15 11.89
1282.771 12.43 12.63 13.21 14.74 16.98 19.37 21.43 22.86 23.32 22.89
1302.060 21.98 21.25 20.87 20.58 20.13 19.41 18.41 17.24 15.98 14.74
1321.350 13.8 13.03 12.35 11.91 11.55 11.24 11.12 11.17 11.5 12.12
1340.640 13.11 14.63 16.77 19.6 23.16 27.16 30.85 33.28 33.8 32.26
1359.930 28.83 24.15 19.35 15.29 12.1 9.75 8.01 6.75 5.92 5.34
1379.219 4.85 4.49 4.3 4.22 4.26 4.31 4.37 4.59 4.89 5.29
1398.509 5.83 6.45 7.2 8.35 9.97 12.15 14.86 18.04 21.29 23.97
1417.799 25.47 25.65 24.75 23.03 20.93 18.86 16.62 14.21 11.89 10.02
1437.089 8.66 7.85 7.46 7.29 7.32 7.48 7.58 7.64 7.72 7.68
1456.378 7.67 7.71 7.82 8.16 8.62 9.18 9.95 10.95 12.23 13.85
1475.668 15.72 17.95 20.47 23.07 25.29 26.97 27.97 28.21 27.67 26.65
1494.958 25.69 25.1 25.15 26.05 27.92 30.49 33.53 36.62 39.54 42.25
1514.248 44.3 45.58 45.94 45.37 43.95 41.98 39.85 37.91 36.33 35.49
1533.538 35.46 36.39 38.35 41.57 45.84 50.62 55.42 59.01 60.14 57.9
1552.827 52.65 45.17 37.02 29.21 22.76 18.4 15.52 13.54 12.31 11.76
1572.117 11.46 11.54 11.96 12.34 12.76 13.33 14.02 14.65 15.21 15.74
1591.407 16 15.9 15.31 14.11 12.53 10.89 9.51 8.44 7.54 6.96
1610.697 6.66 6.55 6.52 6.51 6.45 6.16 5.72 5.21 4.62 4.09
1629.986 3.61 3.23 2.94 2.75 2.64 2.51 2.41 2.36 2.37 2.34
1649.276 2.24 2.29 2.4 2.29 2.31 2.36 2.32 2.45 2.58 2.7
1668.566 2.86 2.97 3.1 3.31 3.5 3.67 3.91 4.2 4.54 4.82
1687.856 5.19 5.81 6.52 7.37 8.51 9.89 11.63 13.92 16.31 18.96
1707.146 21.56 23.85 25.61 26.6 26.76 26.07 24.5 22.37 19.9 17.33
1726.435 14.74 12.4 10.48 8.97 7.7 6.69 5.93 5.3 4.82 4.46
1745.725 4.18 3.94 3.69 3.46 3.26 3.04 2.85 2.66 2.5 2.38
1765.015 2.24 2.1 2.01 1.93 1.89 1.81 1.66 1.59 1.49 1.38
1784.305 1.33 1.28 1.24 1.24 1.25 1.23 1.26 1.35 1.41 1.4
1803.594 1.32 1.27 1.3 1.26 1.18 1.1161 1.0087 0.9717 0.9176 0.8409
1822.884 0.8503 0.8326 0.7713 0.8223 0.8669 0.7888 0.7503 0.6934 0.5713 0.5877
1842.174 0.6129 0.6219 0.6965 0.706 0.6611 0.6573 0.6429 0.6311 0.6281 0.5621
1861.464 0.5734 0.6198 0.6294 0.6293 0.6389 0.6468 0.6648 0.7255 0.7692 0.7658
1880.754 0.76 0.8108 0.8693 0.9168 0.8977 0.841 0.829 0.8772 0.882 0.8306
1900.043 0.8002 0.8066 0.7882 0.7833 0.8136 0.7634 0.6647 0.5846 0.6237 0.6747
1919.333 0.6274 0.6246 0.6346 0.6618 0.7095 0.6832 0.6679 0.7347 0.7748 0.7984
1938.623 0.8268 0.8393 0.8279 0.7993 0.83 0.8858 0.9843 0.9961 0.8836 0.8359
1957.913 0.8547 0.8225 0.7805 0.7698 0.8535 0.8981 0.7739 0.7094 0.6859 0.6138
1977.202 0.603 0.5762 0.4985 0.4344 0.4421 0.4752 0.4169 0.3864 0.4053 0.4235
1996.492 0.4134 0.3861 0.3989 0.4485 0.4747 0.3998 0.3783 0.3899 0.3999 0.414
2015.782 0.4014 0.4247 0.4221 0.3685 0.3389 0.3411 0.3561 0.3988 0.4549 0.4563
2035.072 0.3892 0.3691 0.3712 0.3587 0.3744 0.4026 0.3714 0.3875 0.4268 0.3675
2054.362 0.3923 0.4299 0.3838 0.4018 0.4686 0.417 0.3333 0.3445 0.3482 0.3462
2073.651 0.3648 0.3643 0.3329 0.2992 0.2749 0.3132 0.3422 0.3274 0.3317 0.3994
2092.941 0.3763 0.289 0.2902 0.2718 0.25046 0.3071 0.3335 0.3433 0.389 0.3779
2112.231 0.3858 0.3905 0.3952 0.341 0.3153 0.3762 0.349 0.3375 0.3848 0.3764
2131.521 0.3291 0.3042 0.3233 0.3189 0.2932 0.3542 0.388 0.3362 0.3365 0.3895
2150.810 0.4222 0.4362 0.4568 0.4458 0.4363 0.4073 0.393 0.4277 0.4464 0.4539
2170.100 0.4219 0.4502 0.4662 0.4114 0.4397 0.4343 0.3907 0.3934 0.3794 0.4141
2189.390 0.4726 0.4573 0.4267 0.4138 0.3518 0.3402 0.4008 0.3975 0.3561 0.3822
2208.680 0.4279 0.4369 0.3915 0.3583 0.3153 0.2723 0.4001 0.4324 0.3107 0.23936
2227.970 0.23256 0.26165 0.2995 0.3601 0.3568 0.3552 0.3534 0.3335 0.3515 0.3047
2247.259 0.24362 0.3037 0.3413 0.3639 0.381 0.323 0.3227 0.3334 0.3701 0.4343
2266.549 0.3608 0.3376 0.2986 0.3155 0.4111 0.3948 0.405 0.4007 0.4249 0.4504
2285.839 0.4435 0.4654 0.4657 0.426 0.408 0.3575 0.3066 0.2996 0.3328 0.3855
2305.129 0.3992 0.4184 0.3904 0.3818 0.4315 0.474 0.4902 0.5083 0.4799 0.4623
2324.418 0.5178 0.5563 0.5726 0.5509 0.5016 0.4751 0.5054 0.5244 0.5238 0.5485
2343.708 0.635 0.589 0.4816 0.5124 0.502 0.5288 0.5361 0.469 0.5162 0.5591
2362.998 0.5421 0.5397 0.5215 0.5313 0.5166 0.5026 0.4625 0.4085 0.4223 0.4295
2382.288 0.4677 0.5033 0.5375 0.5205 0.4575 0.4533 0.5153 0.5183 0.4364 0.393
2401.578 0.4459 0.4653 0.4587 0.5011 0.5035 0.492 0.4788 0.4325 0.4465 0.4609
2420.867 0.4149 0.4039 0.3781 0.4287 0.4607 0.3869 0.338 0.2839 0.3533 0.3592
2440.157 0.3492 0.4259 0.4236 0.4365 0.4394 0.3998 0.3435 0.3591 0.4006 0.415
2459.447 0.4731 0.4506 0.3613 0.3881 0.4133 0.4001 0.3661 0.386 0.3822 0.338
2478.737 0.3919 0.4368 0.4557 0.4035 0.3599 0.3528 0.4049 0.4315 0.3896 0.4257
2498.026 0.4692 0.4757 0.4281 0.406 0.5022 0.5089 0.3899 0.3743 0.3361 0.372
2517.316 0.4564 0.4462 0.4337 0.443 0.409 0.3608 0.4432 0.4693 0.3959 0.3811
2536.606 0.4043 0.496 0.5979 0.5539 0.4639 0.4039 0.3981 0.4145 0.4176 0.4324
2555.896 0.443 0.4444 0.3979 0.3708 0.4134 0.4246 0.3718 0.369 0.3972 0.3791
2575.186 0.3964 0.4115 0.4372 0.4262 0.4124 0.4957 0.5732 0.5845 0.505 0.466
2594.475 0.4853 0.5174 0.5563 0.5714 0.5086 0.4705 0.5065 0.5329 0.4832 0.4033
2613.765 0.3831 0.4319 0.4556 0.4876 0.5199 0.4516 0.4282 0.3897 0.3245 0.355
2633.055 0.4094 0.4465 0.4366 0.428 0.4267 0.3355 0.25622 0.308 0.3415 0.2956
2652.345 0.3513 0.4212 0.3845 0.3709 0.4208 0.3628 0.3521 0.3329 0.3023 0.3438
2671.634 0.3397 0.4032 0.5425 0.6409 0.514 0.3699 0.3892 0.3643 0.3274 0.3895
2690.924 0.3681 0.3466 0.4638 0.4951 0.453 0.4257 0.3855 0.4425 0.5262 0.5528
2710.214 0.4833 0.3834 0.4347 0.497 0.4823 0.4361 0.3269 0.2884 0.3845 0.4171
2729.504 0.4043 0.3799 0.4325 0.4958 0.3961 0.3604 0.4759 0.4552 0.392 0.4155
2748.794 0.4076 0.4076 0.3537 0.284 0.2722 0.4201 0.454 0.4211 0.4128 0.3271
2768.083 0.3863 0.3971 0.3856 0.39 0.4632 0.4666 0.3635 0.4715 0.4753 0.3198
2787.373 0.295 0.2848 0.23817 0.3379 0.4229 0.4849 0.5708 0.4879 0.4064 0.4475
2806.663 0.5183 0.5205 0.5276 0.5456 0.5007 0.459 0.5453 0.5971 0.5244 0.5542
2825.953 0.5998 0.6054 0.5576 0.5178 0.5548 0.5108 0.4695 0.4489 0.4344 0.4383
2845.242 0.492 0.593 0.5429 0.476 0.5521 0.5968 0.5889 0.5224 0.4509 0.5403
2864.532 0.6419 0.5814 0.5776 0.6304 0.6294 0.6481 0.6474 0.6824 0.8093 0.9617
2883.822 0.9399 0.8884 0.8953 0.8145 0.8099 0.8302 0.8731 0.9247 0.8841 0.7962
2903.112 0.7889 0.8659 0.7978 0.7001 0.6631 0.6454 0.7231 0.6336 0.5486 0.5045
2922.401 0.4796 0.4538 0.3918 0.4874 0.5164 0.4634 0.4219 0.5468 0.5945 0.5234
2941.691 0.4681 0.442 0.4563 0.3433 0.2812 0.3628 0.4139 0.3215 0.2899 0.3824
2960.981 0.4239 0.3805 0.3686 0.4032 0.3405 0.3358 0.3247 0.3342 0.3952 0.3309
2980.271 0.3173 0.4269 0.6005 0.5951 0.4927 0.4672 0.435 0.4793 0.5862 0.6703
2999.561 0.6999 0.6716 0.5814 0.6218 0.7259 0.7402 0.8294 0.9208 0.9999 1.1441
3018.850 1.1617 1.21 1.46 1.73 2 2.34 2.74 3.2 3.49 3.51
3038.140 3.37 3.16 3.03 2.76 2.47 2.35 2.31 2.21 2.14 2.35
3057.430 2.39 2.44 2.68 3.01 3.56 4.2 4.94 5.52 5.83 5.94
3076.720 5.65 5.15 4.62 4.23 4 3.8 3.77 3.76 3.65 3.54
3096.009 3.31 3.06 2.82 2.65 2.47 2.34 2.27 2.1 1.99 1.81
3115.299 1.59 1.49 1.31 1.29 1.24 1.0626 1.0749 0.9376 0.8431 0.9442
3134.589 0.905 0.8522 0.8124 0.8041 0.7576 0.5868 0.5429 0.616 0.7094 0.6501
3153.879 0.5702 0.536 0.5217 0.5609 0.5278 0.4558 0.4103 0.4063 0.4569 0.4819
3173.169 0.3845 0.4035 0.4547 0.3971 0.3178 0.3939 0.5337 0.4431 0.3255 0.3229
3192.458 0.4366 0.4822 0.3849 0.3108 0.2934 0.4139 0.4038 0.3411 0.3637 0.4159
3211.748 0.4338 0.3502 0.3186 0.334 0.3247 0.3225 0.3636 0.3914 0.4071 0.3255
3231.038 0.3357 0.3718 0.3745 0.3227 0.26637 0.3523 0.4093 0.289 0.22013 0.19868
3250.328 0.1384 0.23434 0.2837 0.25593 0.16855 0.1287 0.1238 0.18265 0.2741 0.2762
3269.617 0.2776 0.284 0.2826 0.18277 0.1432 0.25914 0.3123 0.298 0.21911 0.20759
3288.907 0.2788 0.3207 0.25464 0.2846 0.3952 0.3426 0.3001 0.3126 0.23974 0.19341
3308.197 0.21313 0.277 0.3814 0.26071 0.21632 0.3184 0.2929 0.18739 0.25958 0.3133
3327.487 0.3492 0.4165 0.3558 0.3462 0.2797 0.24032 0.24837 0.1352 0.19679 0.3842
3346.777 0.3229 0.2621 0.1511 0 0.16384 0.2977 0.23666 0.19859 0.20828 0.3604
3366.066 0.3962 0.3653 0.4121 0.3714 0.4811 0.5928 0.5072 0.3375 0.26018 0.2927
3385.356 0.3301 0.4756 0.5417 0.4193 0.4729 0.6744 0.6964 0.6713 0.7536 0.8103
3404.646 0.8487 0.9722 0.97 0.8857 0.9665 1.0348 0.9122 0.941 1.078 0.9893
3423.936 0.8533 0.86 0.8928 0.81 0.8697 0.9449 0.9432 1.1291 1.1668 1.19
3443.225 1.35 1.41 1.49 1.69 1.94 2.05 2.28 2.68 3.07 3.24
3462.515 3.32 3.34 3.25 2.98 2.74 2.45 1.98 1.67 1.44 1.1452
3481.805 0.948 0.9349 0.7382 0.5865 0.6355 0.692 0.546 0.3497 0.4271 0.5959
3501.095 0.608 0.5389 0.4338 0.19921 0.21536 0.3947 0.4632 0.4016 0.4086 0.3899
3520.385 0.24289 0.26145 0.3707 0.4197 0.3423 0.24992 0.3234 0.4506 0.3387 0.18738
3539.674 0.19338 0.18439 0.1111 0.21946 0.3513 0.3234 0.1444 0.062 0.1076 0.20635
3558.964 0.197 0.176546 0.25376 0.2798 0.3921 0.3336 0.20704 0.2803 0.2923 0.23973
3578.254 0.25913 0.1556 0.24034 0.4049 0.3575 0.23919 0.2938 0.3857 0.285 0.2712
3597.544 0.3307 0.3475 0.3861 0.3768 0.2808 0.2985 0.382 0.3612 0.22601 0.25346
3616.833 0.37 0.3628 0.4048 0.3356 0.21423 0.3214 0.459 0.5361 0.3904 0.3163
3636.123 0.2636 0.11 0.24348 0.26372 0.20674 0.26679 0.23082 0.1543 0.3727 0.4631
3655.413 0.3846 0.3425 0.19267 0.25246 0.3321 0.2779 0.3436 0.25838 0.23368 0.4067
3674.703 0.4296 0.26797 0.1225 0.3309 0.4103 0.3265 0.3033 0.2774 0.24166 0.2509
3693.993 0.3324 0.3235 0.3296 0.3858 0.407 0.4574 0.3656 0.26535 0.3396 0.3131
3713.282 0.25557 0.2828 0.3839 0.3197 0.339 0.3571 0.24007 0.23542 0.21167 0.3093
3732.572 0.4272 0.3297 0.3023 0.3999 0.4023 0.4746 0.4443 0.2847 0.3521 0.4665
3751.862 0.3538 0.23626 0.24968 0.16823 0.16255 0.22027 0.18611 0.26758 0.3747 0.3438
3771.152 0.23892 0.20154 0.2712 0.2995 0.2773 0.26662 0.22386 0.16343 0.23124 0.26149
3790.441 0.2845 0.3047 0.1133 0.19878 0.2899 0.20304 0.20608 0.396 0.3514 0.22676
3809.731 0.24387 0.1269 0.1387 0.3458 0.3623 0.22348 0.2968 0.3383 0.3896 0.4954
3829.021 0.5051 0.4107 0.375 0.3054 0.323 0.465 0.4886 0.4243 0.24421 0.18072
3848.311 0.19724 0.21009 0.24382 0.2951 0.3518 0.21882 0.1438 0.25013 0.3528 0.4449
3867.601 0.5263 0.4113 0.3463 0.3765 0.3354 0.3437 0.3142 0.23224 0.22417 0.3235
3886.890 0.2297 0.0704 0.15 0.25955 0.256 0.19767 0.177299 0.24057 0.25817 0.1442
3906.180 0.2831 0.3356 0.19515 0.22286 0.1465 0.174035 0.4256 0.3521 0.21339 0.2328
3925.470 0.19421 0.2445 0.25867 0.2984 0.25538 0.18085 0.22689 0.2984 0.2957 0.3451
3944.760 0.481 0.3636 0.3753 0.3716 0.25082 0.20272 0.24316 0.3421 0.22888 0.25571
3964.049 0.2888 0.26691 0.3536 0.3965 0.3585 0.18555 0.151 0.20513 0.2786 0.3136
3983.339 0.3392 0.3804 0.22873 0.18739 0.3024 0.3666 0.3279 0.2759 0.19427 0.1428
##END=
