##TITLE=1,4-Cyclohexadiene-1,2-dicarboxylic anhydride
##JCAMP-DX=4.24
##DATA TYPE=INFRARED SPECTRUM
##ORIGIN=EPA-IR VAPOR PHASE LIBRARY
##OWNER=SRD/NIST
Collection (C) 2018 copyright by the U.S. Secretary of Commerce
on behalf of the United States of America. All rights reserved.
##CAS REGISTRY NO=4773-89-1
##MOLFORM=C 8 H 6 O 3
##$NIST SOURCE=MSDC-IR
##STATE=gas
##XUNITS=1/CM
##YUNITS=ABSORBANCE
##XFACTOR=1.
##YFACTOR=0.001
##DELTAX=1.92898
##FIRSTX=549.8
##LASTX=4000.7
##FIRSTY=0
##MAXX=4000.7
##MINX=549.759
##MAXY=0.227605
##MINY=0
##NPOINTS=1790
##XYDATA=(X++(Y..Y))
549.759 0 0.057 0.017 0.215 0.5001 0.5405 0.252 0 0.077 0.27
569.049 0.7348 0.7623 0.5355 0.5814 0.609 0.378 0.277 0.2969 0.3114 0.45096
588.339 0.5218 0.5051 0.29 0.249 0.46398 0.5178 0.47259 0.5351 0.5556 0.5706
607.628 0.4591 0.3303 0.254 0.40909 0.404997 0.2994 0.5385 0.5948 0.6247 0.6156
626.918 0.719 1.0266 1.2094 1.715 2.495 3.275 4.215 5.445 7.095 9.115
646.208 11.075 12.665 14.525 16.785 19.375 23.335 28.255 27.235 20.505 16.115
665.498 14.765 13.925 12.475 10.495 8.355 6.335 4.715 3.555 2.625 1.975
684.787 1.705 1.685 1.615 1.405 1.3336 1.595 1.685 1.545 1.555 1.675
704.077 1.855 2.235 3.035 3.515 2.925 2.625 2.805 3.055 3.475 4.095
723.367 4.985 5.675 5.475 4.615 3.915 3.605 3.615 3.435 3.095 2.795
742.657 2.465 2.095 1.645 1.445 1.373 1.1711 1.1962 1.1102 0.8757 0.9752
761.947 1.0491 0.9926 0.9395 1.1581 1.3665 1.3788 1.3445 1.3331 1.525 1.665
781.236 1.835 2.255 2.715 3.035 3.525 4.135 4.595 5.005 5.135 5.145
800.526 4.975 4.805 4.855 4.635 4.095 3.415 2.855 2.555 2.205 2.015
819.816 1.855 1.675 1.715 1.575 1.455 1.505 1.625 1.735 1.825 2.015
839.106 2.125 2.225 2.415 2.645 2.925 3.255 3.545 3.805 4.255 4.625
858.395 4.955 5.625 6.425 7.385 8.585 10.015 11.905 14.515 17.705 21.395
877.685 25.785 30.805 36.555 42.635 48.985 55.755 62.315 68.455 73.755 77.435
896.975 78.735 77.735 75.115 71.595 67.665 63.175 56.685 47.765 38.295 29.745
916.265 22.745 17.685 14.275 11.955 10.365 9.255 8.815 8.805 8.875 8.945
935.555 8.695 7.795 7.065 7.085 7.335 7.085 6.155 5.315 4.785 4.485
954.844 4.375 4.275 4.035 3.685 3.325 3.005 2.805 2.755 2.635 2.295
974.134 2.055 2.035 1.835 1.575 1.455 1.405 1.435 1.465 1.515 1.775
993.424 1.965 1.995 2.225 2.175 1.995 2.165 2.255 2.365 2.495 2.435
1012.714 2.375 2.395 2.405 2.495 2.575 2.735 2.645 2.495 2.685 2.855
1032.003 3.005 3.215 3.505 3.985 4.805 5.705 6.925 8.325 9.845 11.685
1051.293 13.365 14.495 15.235 15.585 15.645 15.445 14.205 12.725 11.255 9.375
1070.583 7.275 5.215 3.915 3.265 2.815 2.715 2.485 2.165 2.135 2.105
1089.873 2.175 2.145 1.675 1.425 1.935 2.005 1.815 1.735 1.665 1.575
1109.163 1.2078 0.8269 0.8337 0.9853 0.42551 0.014 0.38775 0.6369 0.671 0.7943
1128.452 0.7471 0.7519 0.8235 0.7103 0.6123 0.7438 0.5919 0.6033 0.9015 1.1772
1147.742 1.445 1.635 1.935 1.965 1.895 2.005 2.295 2.505 2.525 2.665
1167.032 2.795 2.945 3.105 3.385 4.055 4.445 4.615 4.805 4.835 4.895
1186.322 5.005 5.025 4.855 4.385 4.255 4.475 4.005 3.445 3.035 2.775
1205.611 2.715 2.645 2.855 2.885 3.015 3.305 3.775 4.315 4.805 5.545
1224.901 6.225 7.105 7.995 9.185 10.665 12.195 13.835 15.555 17.775 20.455
1244.191 23.555 27.255 31.685 36.695 42.085 47.535 51.885 54.435 55.525 55.345
1263.481 54.025 51.365 47.595 43.075 37.325 30.325 23.225 17.625 14.025 11.915
1282.771 10.625 9.685 8.965 8.215 7.565 7.015 6.375 5.805 5.375 5.085
1302.060 4.865 4.685 4.525 4.465 4.515 4.595 4.705 4.675 4.595 4.545
1321.350 4.435 4.225 3.945 3.735 3.605 3.455 3.355 3.285 3.155 3.015
1340.640 2.845 2.645 2.535 2.405 2.265 2.195 2.125 2.015 1.935 1.975
1359.930 2.055 2.135 2.175 2.285 2.375 2.425 2.515 2.585 2.625 2.635
1379.219 2.615 2.565 2.555 2.605 2.605 2.625 2.705 2.765 2.855 2.935
1398.509 3.035 3.135 3.165 3.225 3.235 3.245 3.305 3.415 3.555 3.795
1417.799 4.225 4.835 5.545 6.365 7.145 7.725 7.975 7.865 7.725 7.825
1437.089 7.795 7.345 6.605 5.635 4.595 3.695 2.955 2.395 1.915 1.555
1456.378 1.445 1.395 1.3474 1.3549 1.3598 1.3158 1.367 1.435 1.515 1.595
1475.668 1.625 1.665 1.675 1.765 1.915 2.055 2.165 2.205 2.215 2.165
1494.958 2.065 1.995 1.945 1.855 1.705 1.585 1.455 1.2042 1.0073 0.9163
1514.248 0.8287 0.816 0.8184 0.8256 0.8005 0.7503 0.7252 0.7285 0.752 0.7731
1533.538 0.7938 0.7905 0.8742 0.9548 0.9697 0.9568 0.9773 1.0065 1.0018 1.0172
1552.827 1.0307 1.1012 1.1923 1.2684 1.2638 1.2139 1.2047 1.2022 1.1637 1.1546
1572.117 1.2169 1.2498 1.272 1.2565 1.259 1.2686 1.2626 1.2048 1.1215 1.1986
1591.407 1.2448 1.2193 1.231 1.2473 1.2321 1.1959 1.2033 1.2294 1.2763 1.3651
1610.697 1.475 1.625 1.855 2.105 2.255 2.465 2.815 3.205 3.605 4.095
1629.986 4.545 4.935 5.405 5.645 5.625 5.555 5.355 5.085 4.745 4.275
1649.276 3.735 3.305 2.785 2.135 1.725 1.505 1.435 1.455 1.455 1.585
1668.566 1.745 1.805 1.915 2.135 2.395 2.635 2.915 3.165 3.415 3.665
1687.856 3.745 3.855 4.025 4.175 4.275 4.285 4.325 4.255 4.115 4.025
1707.146 4.005 4.055 4.155 4.345 4.565 4.705 4.815 4.925 5.065 5.145
1726.435 5.305 5.495 5.555 5.635 5.795 5.905 6.135 6.555 7.145 7.985
1745.725 9.005 10.315 11.945 13.825 15.925 18.215 20.655 23.075 25.635 28.235
1765.015 31.015 34.265 38.255 43.305 50.265 59.485 72.175 89.235 111.115 137.305
1784.305 166.075 193.985 214.955 224.845 223.905 220.645 223.495 227.605 218.975 193.525
1803.594 158.545 122.205 90.005 64.705 46.275 33.535 25.005 19.295 15.525 12.955
1822.884 11.205 10.035 9.215 8.775 8.755 9.035 9.735 10.845 12.335 14.365
1842.174 17.045 20.285 23.725 27.055 29.995 32.185 33.805 34.745 34.775 34.045
1861.464 32.745 30.485 27.055 23.095 19.285 16.135 13.665 11.615 9.925 8.585
1880.754 7.545 6.795 6.195 5.695 5.295 4.905 4.555 4.235 3.975 3.805
1900.043 3.675 3.575 3.585 3.645 3.615 3.495 3.445 3.405 3.345 3.355
1919.333 3.275 3.185 3.205 3.165 3.145 3.145 3.065 3.035 3.085 3.105
1938.623 3.115 3.105 3.115 3.105 3.075 3.065 3.045 2.935 2.765 2.615
1957.913 2.465 2.295 2.075 1.845 1.685 1.545 1.435 1.3028 1.1618 1.0888
1977.202 1.0609 1.0537 1.0153 0.9744 0.9317 0.9134 0.9275 0.9181 0.8708 0.8644
1996.492 0.9076 0.9435 0.9412 0.9588 0.9899 0.9893 1.0105 1.0628 1.0827 1.1138
2015.782 1.1781 1.1751 1.1609 1.1743 1.207 1.2477 1.2373 1.2192 1.2289 1.2439
2035.072 1.203 1.2005 1.2542 1.2651 1.2903 1.2962 1.3019 1.415 1.515 1.495
2054.362 1.485 1.525 1.515 1.515 1.505 1.455 1.415 1.389 1.3757 1.2688
2073.651 1.1202 1.0881 1.0671 0.9933 0.9587 0.9097 0.9043 0.9243 0.8839 0.9175
2092.941 0.9536 0.8853 0.8134 0.767 0.7541 0.7544 0.7748 0.8176 0.8482 0.8577
2112.231 0.8835 0.8838 0.8854 0.9967 1.0698 1.1056 1.1835 1.2218 1.2352 1.296
2131.521 1.3079 1.3753 1.475 1.545 1.605 1.675 1.825 1.875 1.785 1.755
2150.810 1.795 1.785 1.765 1.765 1.695 1.565 1.505 1.3717 1.2623 1.1998
2170.100 1.08 0.9931 0.9394 0.8605 0.798 0.7473 0.6642 0.6784 0.6919 0.6523
2189.390 0.6386 0.6131 0.6008 0.5834 0.5662 0.5715 0.5566 0.6018 0.6559 0.5908
2208.680 0.5329 0.5561 0.5889 0.5759 0.5233 0.45151 0.43729 0.46499 0.5229 0.5729
2227.970 0.5172 0.43479 0.3817 0.43377 0.4565 0.46124 0.535 0.5728 0.5839 0.5986
2247.259 0.6117 0.5831 0.5733 0.595 0.5881 0.5659 0.49301 0.48532 0.5796 0.5779
2266.549 0.5744 0.585 0.6275 0.6579 0.5807 0.5944 0.6847 0.6462 0.6137 0.676
2285.839 0.6898 0.667 0.6721 0.6936 0.7359 0.7594 0.7593 0.7775 0.7446 0.668
2305.129 0.6671 0.7175 0.6829 0.6947 0.7386 0.7026 0.6485 0.6686 0.667 0.6643
2324.418 0.6943 0.625 0.5768 0.6046 0.6746 0.654 0.6348 0.6891 0.7347 0.7575
2343.708 0.7249 0.6702 0.655 0.7002 0.7424 0.7717 0.7604 0.7596 0.8013 0.8107
2362.998 0.84 0.7463 0.6401 0.7107 0.7584 0.6824 0.6607 0.6719 0.6498 0.6323
2382.288 0.6193 0.6376 0.6024 0.5141 0.47651 0.5065 0.5044 0.5368 0.5836 0.5652
2401.578 0.5165 0.48006 0.5195 0.4974 0.5082 0.5206 0.46773 0.49232 0.48394 0.48745
2420.867 0.523 0.5355 0.5913 0.6093 0.6178 0.6319 0.6786 0.7353 0.748 0.7663
2440.157 0.7376 0.6752 0.6802 0.6816 0.6044 0.5928 0.5643 0.47297 0.43541 0.40529
2459.447 0.396284 0.45174 0.4579 0.48145 0.5221 0.5026 0.5145 0.5175 0.5199 0.5356
2478.737 0.5148 0.5254 0.596 0.6507 0.6209 0.6131 0.6162 0.6471 0.6888 0.6514
2498.026 0.5882 0.515 0.46369 0.49116 0.54 0.47495 0.41224 0.45913 0.47595 0.49106
2517.316 0.5154 0.44884 0.3473 0.3615 0.38678 0.333 0.395976 0.42034 0.3762 0.43402
2536.606 0.43842 0.39034 0.3782 0.3866 0.48306 0.48079 0.38847 0.3534 0.41448 0.42321
2555.896 0.3509 0.349 0.3706 0.3615 0.399462 0.48881 0.48143 0.43911 0.43161 0.401984
2575.186 0.3787 0.41414 0.43045 0.4953 0.5583 0.5696 0.5457 0.4952 0.5209 0.5452
2594.475 0.5341 0.49122 0.47771 0.46499 0.38941 0.3805 0.394355 0.44204 0.48229 0.41159
2613.765 0.343 0.3289 0.3085 0.3106 0.3352 0.397904 0.42881 0.3401 0.3577 0.426
2633.055 0.39045 0.44359 0.5301 0.44074 0.42571 0.5345 0.5076 0.5014 0.4942 0.48381
2652.345 0.524 0.5729 0.5435 0.5972 0.7341 0.6893 0.5938 0.6177 0.6748 0.5966
2671.634 0.5247 0.5148 0.5253 0.44676 0.42025 0.367 0.276 0.3352 0.42158 0.47526
2690.924 0.44229 0.397522 0.3677 0.38843 0.3762 0.3079 0.28 0.242 0.274 0.3683
2710.214 0.3845 0.3118 0.272 0.3319 0.3269 0.3242 0.404051 0.4279 0.44047 0.46801
2729.504 0.42974 0.39203 0.3849 0.42174 0.5185 0.5588 0.6159 0.6118 0.496 0.48869
2748.794 0.5444 0.5159 0.5911 0.6411 0.5943 0.5346 0.48507 0.5292 0.5415 0.48704
2768.083 0.46452 0.4349 0.45839 0.5549 0.5089 0.46094 0.43726 0.47017 0.48761 0.46333
2787.373 0.5479 0.5691 0.6284 0.7411 0.7 0.6278 0.5632 0.5676 0.7029 0.7504
2806.663 0.7671 0.8718 0.9079 0.9596 1.0791 1.1825 1.2896 1.3273 1.475 1.695
2825.953 1.865 2.115 2.505 2.855 3.055 3.185 3.325 3.455 3.425 3.335
2845.242 3.225 3.005 2.765 2.495 2.115 1.825 1.685 1.495 1.3015 1.1258
2864.532 1.011 0.9655 0.9098 0.9259 0.956 0.9231 0.9094 0.9422 0.9272 1.0046
2883.822 1.1035 1.154 1.365 1.785 2.295 2.725 3.155 3.735 4.425 5.245
2903.112 6.195 7.555 8.975 9.025 7.965 7.115 6.795 6.635 6.335 5.665
2922.401 4.645 3.795 2.995 2.195 1.685 1.3318 1.0639 0.8917 0.8077 0.8074
2941.691 0.6971 0.6006 0.607 0.6321 0.6372 0.65 0.6989 0.7249 0.6239 0.6199
2960.981 0.7276 0.6848 0.7248 0.7783 0.7582 0.9075 1.0238 1.0235 0.9877 0.9975
2980.271 1.0261 1.0517 1.154 1.0472 0.9132 0.8035 0.7603 0.9192 0.9412 0.8339
2999.561 0.8389 0.7773 0.6357 0.6156 0.5985 0.6033 0.5976 0.6009 0.5596 0.5578
3018.850 0.6632 0.73 0.8152 0.926 1.0284 1.2178 1.545 2.035 2.695 3.605
3038.140 4.805 6.265 7.725 8.935 9.755 10.185 10.465 10.565 10.155 9.535
3057.430 8.985 8.035 6.585 4.935 3.655 2.825 2.305 2.045 1.755 1.475
3076.720 1.3049 1.2366 1.1801 1.1594 1.0589 0.9463 0.9511 0.9033 0.8101 0.7078
3096.009 0.6836 0.7383 0.743 0.7259 0.64 0.585 0.48835 0.3548 0.397313 0.5011
3115.299 0.44216 0.40642 0.49139 0.47188 0.5073 0.513 0.5334 0.5731 0.4988 0.5135
3134.589 0.5984 0.5705 0.49218 0.562 0.5503 0.47382 0.45728 0.49327 0.5097 0.41483
3153.879 0.42425 0.3227 0.283 0.43733 0.45356 0.3602 0.3541 0.48856 0.535 0.42335
3173.169 0.48016 0.5155 0.47919 0.5512 0.48633 0.299 0.237 0.27 0.339 0.3776
3192.458 0.3662 0.43968 0.43806 0.3848 0.4128 0.44479 0.41737 0.3257 0.2988 0.3443
3211.748 0.3162 0.3374 0.3604 0.3136 0.3126 0.3155 0.238 0.226 0.144 0.161
3231.038 0.3273 0.3497 0.3624 0.3299 0.3161 0.2982 0.245 0.284 0.37 0.394557
3250.328 0.3427 0.3109 0.3288 0.29 0.3001 0.40512 0.403716 0.39326 0.3809 0.38
3269.617 0.41661 0.39302 0.3623 0.3662 0.3662 0.282 0.293 0.43504 0.42024 0.3031
3288.907 0.231 0.3148 0.43914 0.3754 0.3205 0.241 0.197 0.49179 0.6805 0.5826
3308.197 0.47834 0.5001 0.569 0.4827 0.3528 0.283 0.271 0.265 0.3181 0.3557
3327.487 0.38768 0.399881 0.400681 0.42319 0.3603 0.43955 0.5203 0.44589 0.3536 0.29
3346.777 0.262 0.265 0.3531 0.43623 0.36 0.3462 0.45683 0.44691 0.4255 0.3694
3366.066 0.3665 0.43478 0.44811 0.44767 0.44781 0.402713 0.3835 0.43435 0.355 0.2969
3385.356 0.44645 0.5273 0.5224 0.46216 0.46027 0.5109 0.3603 0.262 0.257 0.286
3404.646 0.287 0.232 0.3319 0.288 0.206 0.3669 0.45345 0.395899 0.3478 0.397052
3423.936 0.42963 0.3664 0.42019 0.5369 0.4278 0.268 0.171 0.257 0.3427 0.255
3443.225 0.252 0.3397 0.43397 0.396077 0.3427 0.3114 0.3307 0.356 0.3381 0.48203
3462.515 0.41599 0.2972 0.42362 0.46664 0.43469 0.4866 0.42257 0.41235 0.45186 0.40901
3481.805 0.3523 0.44867 0.582 0.46301 0.5717 0.5971 0.47014 0.5044 0.5296 0.49012
3501.095 0.38699 0.395918 0.44618 0.45815 0.49332 0.46834 0.48609 0.5296 0.48647 0.5092
3520.385 0.5434 0.5577 0.5321 0.5224 0.5444 0.47247 0.4985 0.5896 0.6134 0.6336
3539.674 0.6762 0.6128 0.5704 0.6742 0.8703 0.8545 0.6693 0.7445 0.8716 1.0335
3558.964 1.1232 1.1058 1.2005 1.3013 1.3277 1.2681 1.2917 1.3331 1.3872 1.405
3578.254 1.3362 1.435 1.515 1.485 1.475 1.465 1.435 1.465 1.625 1.725
3597.544 1.695 1.675 1.625 1.545 1.615 1.785 1.955 1.985 2.045 2.245
3616.833 2.415 2.565 2.745 2.885 2.925 3.035 3.075 3.085 3.115 3.135
3636.123 3.175 2.955 2.745 2.635 2.315 1.945 1.805 1.515 1.2908 1.2694
3655.413 1.0562 0.9517 0.8989 0.7483 0.6333 0.5691 0.6358 0.6878 0.5661 0.5584
3674.703 0.6603 0.6823 0.6031 0.6585 0.6883 0.6634 0.6733 0.6481 0.5855 0.5362
3693.993 0.708 0.85 0.851 0.7071 0.6513 0.6632 0.5785 0.7396 0.8181 0.6666
3713.282 0.6784 0.6035 0.47435 0.57 0.6998 0.6277 0.44097 0.44928 0.5839 0.638
3732.572 0.6771 0.6541 0.6114 0.5097 0.45764 0.47547 0.45453 0.5524 0.596 0.7085
3751.862 0.7628 0.6397 0.4927 0.43142 0.48966 0.5349 0.5789 0.67 0.6141 0.44434
3771.152 0.44517 0.44147 0.47866 0.6276 0.6649 0.6276 0.6576 0.6435 0.5898 0.5418
3790.441 0.5915 0.4994 0.3807 0.41314 0.5461 0.6575 0.571 0.49087 0.5614 0.6022
3809.731 0.42951 0.39267 0.5123 0.5463 0.45225 0.45344 0.46863 0.38929 0.41779 0.5239
3829.021 0.5833 0.5083 0.48996 0.5912 0.6054 0.576 0.5047 0.4989 0.5114 0.5811
3848.311 0.6558 0.6307 0.6606 0.6997 0.6777 0.6699 0.7025 0.6216 0.603 0.5481
3867.601 0.397962 0.48658 0.6059 0.7006 0.6453 0.5526 0.6899 0.6291 0.5825 0.612
3886.890 0.6795 0.6302 0.46152 0.46595 0.5218 0.48837 0.5127 0.5637 0.4927 0.5367
3906.180 0.5532 0.44578 0.3282 0.3338 0.47571 0.514 0.4911 0.5102 0.41992 0.41902
3925.470 0.5708 0.5862 0.5286 0.5465 0.6257 0.5611 0.3808 0.5728 0.59 0.49267
3944.760 0.6226 0.5386 0.3593 0.3442 0.39198 0.4797 0.5319 0.5762 0.46548 0.259
3964.049 0.3553 0.48273 0.41038 0.3485 0.3602 0.3217 0.22 0.259 0.43888 0.48915
3983.339 0.4977 0.461 0.47575 0.47206 0.46804 0.40966 0.46261 0.6088 0.39371 0.208
##END=
