##TITLE=2,6-Dichloropyrazine
##JCAMP-DX=4.24
##DATA TYPE=INFRARED SPECTRUM
##ORIGIN=EPA-IR VAPOR PHASE LIBRARY
##OWNER=SRD/NIST
Collection (C) 2018 copyright by the U.S. Secretary of Commerce
on behalf of the United States of America. All rights reserved.
##CAS REGISTRY NO=4774-14-5
##MOLFORM=C 4 H 2 Cl 2 N 2
##$NIST SOURCE=MSDC-IR
##STATE=gas
##XUNITS=1/CM
##YUNITS=ABSORBANCE
##XFACTOR=1.
##YFACTOR=0.001
##DELTAX=1.92898
##FIRSTX=549.8
##LASTX=4000.7
##FIRSTY=0.72516
##MAXX=4000.7
##MINX=549.759
##MAXY=0.6869
##MINY=0
##NPOINTS=1790
##XYDATA=(X++(Y..Y))
549.759 0.72516 0.7911 0.9899 0.525 0.7863 0.9254 1.0699 1.4834 1.7 1.96
569.049 2.03 2.09 1.6363 1.326 1.1486 0.8118 0.302 0.031 0.518 0.279
588.339 0 0.153 0.314 0.337 0.15 0.131 0.266 0.546 0.76761 0.70276
607.628 0.71321 0.9927 1.2364 1.265 1.7 2.69 3.3 3.12 2.71 2.88
626.918 3.2 3.33 3.21 2.88 2.68 2.61 2.36 2.39 2.49 2.22
646.208 1.87 1.3421 1.4091 1.6291 1.81 2.29 2.75 2.83 2.75 3.06
665.498 3.16 2.99 3.29 3.35 2.87 2.66 2.38 2 2.08 2.21
684.787 2.55 2.88 3.11 3.45 3.4 3.55 3.9 3.83 3.82 4.28
704.077 4.44 4.6 5.53 6.7 8.11 9.74 11.83 14.13 15.87 17.19
723.367 18.66 20.51 23.93 29.55 35.06 31.99 24.45 21.94 20.32 18.39
742.657 16.44 14.47 12.58 10.54 9.14 8.06 7.2 6.71 6.14 6.2
761.947 6.8 7.52 8.16 8.24 8.79 9.56 10.14 10.84 11.37 11.68
781.236 11.63 11.17 10.77 10.49 10.54 10.86 10.68 10.4 10.9 11.87
800.526 13.24 15.46 19.59 26.29 34.78 46.73 63.48 85.43 113.79 150.27
819.816 196.3 251.83 312.54 368.4 409.22 430.27 435.73 431.31 415.86 388.78
839.106 354.81 298.22 211.96 128.01 71.78 44.35 34.98 33.6 35.49 40.18
858.395 47.54 56.47 66.56 77.32 88.38 99.02 110.1 124.27 137.33 140.81
877.685 128.24 108.58 97.44 89.17 77.58 64.49 51.27 38.8 27.63 18.78
896.975 12.8 8.94 6.56 5.16 3.98 3.09 2.55 2.53 2.58 2.62
916.265 2.54 2.48 2.38 2.82 3.18 3.22 3.74 3.88 3.88 4.35
935.555 4.64 4.7 4.85 4.65 4.28 4.03 3.94 3.92 3.67 3.31
954.844 2.84 2.67 2.81 2.94 2.98 3.32 4.01 5.16 6.85 9.11
974.134 12.03 16.06 21.99 29.45 38.88 50.63 64.73 80.71 97.93 116.1
993.424 132.98 144.99 147.89 139.93 128.49 128.88 140.84 142.47 126.89 104.25
1012.714 82.56 64.86 50.92 40.6 32.39 26.01 21.62 18.58 16.44 15.53
1032.003 14.92 13.74 12.75 11.87 10.8 9.99 9.06 7.91 6.7 5.42
1051.293 4.43 4.17 4.47 4.4 4.03 3.84 3.74 3.99 4.42 4.97
1070.583 5.3 5.41 5.72 5.86 5.96 6.69 8.21 8.89 9.16 10.58
1089.873 13.24 16.47 18.62 21.12 24.87 28.47 32.24 36.93 43.21 50.99
1109.163 60.94 74.07 90.12 111.47 139.14 172.7 212.45 258.02 307.29 357.87
1128.452 408 454.3 494.22 527.71 559.72 587.64 599.84 584.79 549.9 505.61
1147.742 460.76 422.22 375.99 318.01 262.3 222 200.74 195.99 202.49 217.01
1167.032 242.01 280.91 336.83 405.63 479.35 556.23 622.7 666.36 686.9 683.81
1186.322 671.51 647.04 603.24 546.07 465.13 356.91 242.19 151.12 93.36 61.47
1205.611 45.11 35.47 29.39 26.3 24.53 23.05 23.96 25.78 26.3 26.86
1224.901 27.12 27.06 26.71 25.83 24.58 22.55 20.05 17.04 13.97 11.84
1244.191 9.63 7.63 6.13 5.26 4.62 3.53 3.35 3.28 3.14 3.24
1263.481 3.14 3.07 3.11 3 2.59 2.54 2.91 3.35 3.69 3.76
1282.771 4.08 4.51 4.79 5.16 5.42 5.74 6.15 6.48 6.89 7.5
1302.060 8.17 8.84 9.72 10.65 11.39 12.19 13.09 14.03 15.08 16.1
1321.350 17.04 17.86 18.28 18.06 17.65 17.72 18.24 18.82 19.02 19.15
1340.640 19.79 21.62 25.43 31.92 42.67 59.78 85.18 121.01 168.98 229.41
1359.930 300.05 375.75 447.9 505.18 538.96 548.87 538.87 532.51 516.92 482.31
1379.219 452.89 412.31 359.72 315.76 286.31 267.65 254.23 243.18 228.97 210.42
1398.509 188.66 159.61 126.79 96.97 73.86 57.9 47.56 40.73 36.2 32.98
1417.799 29.87 26.22 22.4 18.7 15.54 13.4 12.04 11.03 10.24 9.72
1437.089 9.54 9.57 9.67 9.9 10.07 10.18 10.17 10.12 10.25 10.59
1456.378 11.25 12.21 13.16 14.15 15.21 16.45 17.78 19.22 20.99 23.22
1475.668 26.22 30.18 35.38 42.6 52.6 66.09 83.71 105.38 131.06 159.32
1494.958 189.08 219.65 250.02 281.06 313.18 345.9 377.95 403.45 415.63 411.99
1514.248 394.24 369.74 342.62 312.13 276.4 237.96 193.28 147.21 111.17 90.27
1533.538 81.51 79.31 79.25 78.45 75.6 70.79 64.48 57.05 49.53 43.18
1552.827 38.34 33.76 29.2 24.9 21.05 17.99 15.73 13.91 12.38 11.04
1572.117 10 9.05 8.08 7.29 6.63 5.97 5.42 5.07 4.75 4.43
1591.407 4.14 3.89 3.74 3.54 3.2 2.93 2.72 2.57 2.51 2.28
1610.697 2.11 2.04 1.89 1.8 1.7 1.6319 1.5818 1.6169 1.6427 1.5935
1629.986 1.6135 1.6218 1.71 1.77 1.73 1.72 1.72 1.91 2.02 2
1649.276 2.1 2.13 2.06 2.11 2.36 2.5 2.53 2.54 2.61 2.74
1668.566 2.68 2.66 2.72 2.77 2.76 2.72 2.63 2.56 2.59 2.52
1687.856 2.37 2.27 2.28 2.3 2.29 2.24 2.2 2.33 2.42 2.45
1707.146 2.5 2.51 2.61 2.69 2.69 2.8 2.88 2.96 3.22 3.44
1726.435 3.6 3.83 4.14 4.39 4.62 4.91 5.24 5.63 5.82 5.85
1745.725 5.82 5.64 5.53 5.38 5.2 5.13 4.9 4.53 4.17 3.92
1765.015 3.81 3.78 4 4.42 4.94 5.56 6.31 7.25 8.28 9.27
1784.305 10.33 11.52 12.56 13.49 14.35 14.83 14.89 14.62 14.03 13.13
1803.594 12.1 10.99 9.89 8.92 7.9 6.81 6.1 5.83 5.85 6.21
1822.884 6.83 7.63 8.64 9.54 10.25 10.89 11.42 11.71 11.75 11.64
1842.174 11.36 10.77 9.94 8.84 7.7 6.95 6.41 6.11 5.81 5.63
1861.464 5.63 5.44 5.02 4.63 4.26 3.85 3.52 3.26 2.98 2.59
1880.754 2.22 2.04 1.99 1.86 1.6771 1.5946 1.5755 1.6223 1.6223 1.5665
1900.043 1.4897 1.4744 1.5238 1.4868 1.5238 1.5449 1.5367 1.5914 1.5206 1.4661
1919.333 1.4747 1.4111 1.3771 1.3422 1.2528 1.1832 1.203 1.2056 1.2355 1.2786
1938.623 1.2852 1.388 1.5343 1.4442 1.34 1.4329 1.4964 1.5578 1.6737 1.81
1957.913 2.04 2.12 2.11 2.24 2.22 2.21 2.29 2.2 2.15 2.16
1977.202 2.14 2.09 2.09 2.17 2.25 2.3 2.42 2.6 2.61 2.6
1996.492 2.64 2.73 2.84 2.93 3.01 3.11 3.17 3.22 3.34 3.47
2015.782 3.62 3.7 3.65 3.45 3.22 3.04 2.88 2.63 2.43 2.25
2035.072 1.96 1.84 1.8 1.6519 1.5656 1.5915 1.519 1.3959 1.308 1.2547
2054.362 1.232 1.159 1.1637 1.1552 0.9933 1.0205 1.1066 1.0906 1.1149 1.1122
2073.651 1.0557 1.0299 0.966 0.8559 0.9527 0.9171 0.75026 0.76573 0.8239 0.8753
2092.941 0.8961 0.8712 0.8626 0.9271 0.9494 0.9548 0.9465 0.9586 1.0235 1.0346
2112.231 1.0323 1.0791 1.0616 0.9162 0.8817 0.9298 0.9383 0.9344 0.9334 0.929
2131.521 1.0374 1.0482 0.9716 0.9374 0.9959 1.1577 1.2956 1.3421 1.3543 1.4485
2150.810 1.6087 1.78 1.91 2.05 2.06 2.11 2.33 2.56 2.71 2.87
2170.100 3.17 3.39 3.54 3.86 4.24 4.63 4.84 4.95 4.91 4.7
2189.390 4.5 4.29 3.95 3.49 3.03 2.5 1.92 1.4365 1.1925 0.9426
2208.680 0.77685 0.8423 0.8583 0.893 0.9175 0.9543 1.0025 0.9283 0.8508 0.9119
2227.970 1.0331 1.0067 1.0276 1.046 1.028 1.02 0.9775 1.0428 1.1176 1.0933
2247.259 1.0379 1.0805 1.0668 1.0816 1.1818 1.1639 1.1622 1.2848 1.4221 1.497
2266.549 1.6156 1.6107 1.6402 1.73 1.75 1.91 1.98 1.98 2.02 2.01
2285.839 2.05 2.11 2.07 2.01 2.07 2.22 2.27 2.26 2.21 2.07
2305.129 2.02 2.02 2.01 1.95 1.84 1.81 1.81 1.94 1.92 1.79
2324.418 1.93 2.01 2.02 2.16 2.29 2.4 2.56 2.78 2.9 3.04
2343.708 3.35 3.53 3.59 3.72 3.64 3.56 3.59 3.44 3.24 3.19
2362.998 3.16 3.07 3.1 3.05 3.16 3.22 3.08 3.08 3.07 2.94
2382.288 2.71 2.36 2.1 2 1.8 1.5165 1.4192 1.2553 1.0905 1.076
2401.578 1.0453 1.0389 1.1506 1.149 1.019 1.1613 1.2905 1.3236 1.3236 1.2503
2420.867 1.2873 1.3375 1.4386 1.4915 1.4503 1.5474 1.505 1.5457 1.6277 1.4257
2440.157 1.2583 1.3043 1.3 1.1902 1.1031 1.0451 0.9797 0.968 1.0746 1.1198
2459.447 1.0291 1.0116 1.1149 1.0902 0.9523 1.1144 1.3489 1.278 1.2667 1.4247
2478.737 1.5183 1.603 1.74 1.91 2.16 2.31 2.41 2.67 2.96 3.19
2498.026 3.34 3.63 3.87 3.97 4.17 4.21 4.29 4.4 4.54 4.6
2517.316 4.54 4.56 4.62 4.67 4.79 5.01 5.13 5.27 5.5 5.69
2536.606 5.87 5.97 6.03 5.91 5.63 5.36 5.09 4.72 4.46 4.2
2555.896 3.79 3.42 3.09 2.94 2.78 2.71 2.77 2.76 2.77 2.85
2575.186 2.91 2.88 2.88 2.88 2.91 2.92 2.91 2.79 2.59 2.53
2594.475 2.39 2.2 2.04 1.79 1.5914 1.5757 1.6525 1.68 1.6314 1.5879
2613.765 1.7 1.91 1.94 1.89 2.08 2.26 2.42 2.72 2.92 2.92
2633.055 3.01 3.32 3.58 3.78 3.78 3.62 3.69 3.79 3.84 3.81
2652.345 3.66 3.62 3.72 3.75 3.78 3.82 3.87 4.12 4.34 4.51
2671.634 4.84 5.2 5.48 5.78 6.1 6.4 6.68 6.66 6.59 6.48
2690.924 6.18 5.91 5.45 5 4.71 4.21 3.56 3.14 2.8 2.5
2710.214 2.31 2.08 1.93 1.83 1.72 1.82 1.88 1.86 1.79 1.73
2729.504 1.81 1.6752 1.4183 1.3484 1.3655 1.46 1.3806 1.2055 1.1583 1.061
2748.794 0.9545 0.8308 0.7947 0.798 0.689254 0.76498 0.73481 0.70626 0.8479 0.77851
2768.083 0.70071 0.8144 0.8999 0.8492 0.73908 0.72976 0.71619 0.70569 0.8372 0.8069
2787.373 0.73603 0.681478 0.67394 0.7414 0.73387 0.8234 0.9092 0.8611 0.6239 0.504
2806.663 0.614 0.72204 0.8119 0.7975 0.7814 0.74108 0.69043 0.561 0.451 0.507
2825.953 0.5898 0.5873 0.526 0.484 0.571 0.6596 0.5992 0.562 0.6169 0.685273
2845.242 0.6564 0.486 0.39 0.475 0.501 0.474 0.392 0.535 0.9157 0.9192
2864.532 0.77962 0.75223 0.67523 0.6034 0.688009 0.798 0.886 0.9571 0.9893 1.1
2883.822 1.2164 1.4738 1.6058 1.6718 1.84 1.83 1.97 2.08 2.04 2.08
2903.112 1.99 2.04 2.08 2.02 1.99 1.84 1.6194 1.4819 1.4157 1.33
2922.401 1.2656 1.1477 1.045 1.0221 1.0081 0.9978 1.0783 1.0141 0.8907 0.8773
2941.691 0.805 0.6594 0.6528 0.67291 0.685381 0.7826 0.6639 0.517 0.485 0.51
2960.981 0.5856 0.6248 0.6092 0.72808 0.8073 0.76422 0.76866 0.8146 0.74811 0.539
2980.271 0.41 0.556 0.681841 0.74827 0.9531 1.0015 0.8946 0.8786 0.8891 0.8758
2999.561 0.9125 0.9749 1.0833 1.1294 1.2573 1.4051 1.5234 1.3547 1.2275 1.4923
3018.850 1.659 1.85 1.99 2.15 2.47 2.84 3.05 3.24 3.69 4.16
3038.140 4.75 5.3 5.89 6.36 6.78 7.29 7.67 8.01 8.31 8.46
3057.430 8.46 8.71 9.25 10.15 11.35 13.25 15.94 18.93 22.04 24.78
3076.720 26.31 26.22 25.98 25.77 24.11 22.42 20.72 16.99 12.18 8.16
3096.009 5.47 4.01 3.14 2.66 2.44 2.17 2.12 2.08 1.73 1.4168
3115.299 1.2611 1.1566 1.2642 1.2177 0.9379 0.9183 1.0328 0.8873 0.8207 0.9916
3134.589 0.9966 0.8752 0.73076 0.72362 0.8643 0.9047 0.77885 0.69186 0.7725 0.6628
3153.879 0.535 0.459 0.512 0.69006 0.6685 0.644 0.628 0.71713 0.8222 0.70367
3173.169 0.6347 0.6013 0.576 0.5836 0.6034 0.73473 0.76917 0.6013 0.54 0.46
3192.458 0.518 0.528 0.529 0.6637 0.596 0.563 0.5944 0.465 0.37 0.39
3211.748 0.302 0.332 0.494 0.6359 0.79 0.8091 0.72019 0.67107 0.6145 0.73041
3231.038 0.8219 0.8074 0.9486 0.75404 0.6023 0.689601 0.6199 0.6617 0.6658 0.644
3250.328 0.67772 0.71943 0.6096 0.537 0.6655 0.77894 0.8566 0.844 0.77788 0.76803
3269.617 0.70093 0.6123 0.70469 0.74867 0.74749 0.71443 0.6512 0.70273 0.77133 0.8137
3288.907 0.9104 1.0179 0.7845 0.49 0.5932 0.7922 0.8114 0.5932 0.434 0.545
3308.197 0.67229 0.6652 0.6418 0.6462 0.701 0.67079 0.6275 0.6326 0.5821 0.561
3327.487 0.543 0.561 0.505 0.53 0.73454 0.9 0.9408 0.74919 0.573 0.545
3346.777 0.6493 0.73026 0.72429 0.69845 0.439 0.463 0.462 0.505 0.8246 0.73503
3366.066 0.6344 0.796 0.5981 0.448 0.7041 0.7744 0.506 0.409 0.547 0.655
3385.356 0.652 0.76892 0.929 0.72353 0.514 0.536 0.48 0.477 0.608 0.5889
3404.646 0.687378 0.6195 0.572 0.5948 0.509 0.76276 1.0114 1.0589 0.9441 0.839
3423.936 0.7898 0.75341 0.893 0.9689 0.983 0.9601 0.9632 0.9937 1.0301 0.9897
3443.225 1.0235 1.0589 1.1333 1.1861 1.2623 1.3528 1.4301 1.4662 1.2094 1.2747
3462.515 1.181 0.8688 1.0876 1.1131 1.1979 1.5121 1.4221 1.4849 1.4928 1.4537
3481.805 1.455 1.4891 1.5434 1.2966 1.2796 1.2349 1.1405 1.2173 1.0592 0.71825
3501.095 0.7513 0.8907 0.8574 0.8795 0.8631 0.72564 0.784 1.0221 1.1141 1.1716
3520.385 1.0411 0.8131 0.72606 0.6107 0.6522 0.632 0.69488 0.8644 0.8262 0.72742
3539.674 0.8082 0.9909 1.0327 0.8407 0.8405 0.8925 0.71001 0.818 0.9019 1.0478
3558.964 1.077 0.9017 0.79 0.6397 0.6624 0.526 0.37 0.525 0.575 0.658
3578.254 0.506 0.431 0.5952 0.5981 0.8537 0.8119 0.5937 0.6695 0.684908 0.6755
3597.544 0.76864 0.77851 0.552 0.49 0.71438 0.6698 0.461 0.433 0.423 0.6421
3616.833 0.5915 0.366 0.385 0.345 0.442 0.507 0.417 0.449 0.52 0.427
3636.123 0.346 0.48 0.6078 0.6552 0.7991 0.76239 0.5843 0.509 0.523 0.6511
3655.413 0.76832 0.8987 0.8351 0.8561 0.8229 0.514 0.465 0.614 0.522 0.6069
3674.703 0.74035 0.532 0.565 0.574 0.5979 0.6098 0.4 0.443 0.6091 0.477
3693.993 0.375 0.507 0.74873 0.9584 0.8256 0.73354 0.8205 0.8321 0.8228 0.76216
3713.282 0.7698 0.71518 0.74054 0.7873 0.70429 0.9288 1.1052 0.9938 0.833 0.6274
3732.572 0.575 0.6476 0.6423 0.7023 0.74883 0.527 0.416 0.6254 0.456 0.197
3751.862 0.183 0.249 0.325 0.513 0.71382 0.6092 0.5 0.6337 0.75061 0.549
3771.152 0.42 0.403 0.526 0.506 0.69032 0.8031 0.605 0.446 0.281 0.316
3790.441 0.399 0.394 0.302 0.458 0.488 0.548 0.75331 0.6247 0.607 0.5974
3809.731 0.495 0.64 0.74384 0.891 1.0626 0.8426 0.5849 0.6549 0.70006 0.6247
3829.021 0.77056 0.9549 0.855 0.7849 0.7062 0.8908 0.9619 0.72031 0.74822 0.8373
3848.311 0.7887 0.5981 0.5919 0.579 0.5876 0.8725 0.9513 0.984 1.0036 0.8895
3867.601 0.8519 0.881 0.8524 0.76567 0.75089 0.8656 0.9764 1.1182 1.2237 1.1291
3886.890 1.2317 1.5638 1.5686 1.3903 1.5595 1.5424 1.2964 1.4205 1.6725 1.7
3906.180 1.68 1.6392 1.6475 1.77 1.6688 1.6654 1.84 1.72 1.6095 1.5937
3925.470 1.4875 1.3946 1.4137 1.3661 1.4227 1.6187 1.4124 1.1848 1.098 1.1182
3944.760 1.1121 0.9144 0.924 1.0674 1.0995 1.0028 0.9869 0.9915 0.877 0.8713
3964.049 0.8675 0.8908 0.7876 0.508 0.455 0.574 0.7955 0.70896 0.524 0.537
3983.339 0.545 0.680213 0.5869 0.67804 1.0057 0.7994 0.6842 0.8971 0.8245 0.8741
##END=
