##TITLE=Benzofuroxan
##JCAMP-DX=4.24
##DATA TYPE=INFRARED SPECTRUM
##ORIGIN=NIST Mass Spectrometry Data Center
##OWNER=NIST Standard Reference Data Program
Collection (C) 2018 copyright by the U.S. Secretary of Commerce
on behalf of the United States of America. All rights reserved.
##CAS REGISTRY NO=480-96-6
##MOLFORM=C 6 H 4 N 2 O 2
##$NIST SOURCE=MSDC-IR
##SPECTROMETER/DATA SYSTEM=HP-GC/MS/IRD
##STATE=gas
##XUNITS=1/CM
##YUNITS=ABSORBANCE
##XFACTOR=1.0
##YFACTOR=0.000006500
##DELTAX=4.0
##FIRSTX=550.0
##LASTX=3846.0
##FIRSTY=0.001112
##MAXX=3846
##MINX=550
##MAXY=0.065
##MINY=0
##NPOINTS=825
##XYDATA=(X++(Y..Y))
550.0 171 221 271 322 333 295 295 277 197 121
590.0 74 53 37 19 17 22 33 37 33 27
630.0 26 38 48 65 89 114 133 142 138 126
670.0 107 90 72 48 41 43 39 56 95 174
710.0 286 463 707 1008 1286 1681 1982 2034 2042 1573
750.0 1169 954 663 420 248 144 101 87 68 57
790.0 49 46 60 66 74 92 118 157 198 213
830.0 205 188 163 118 83 70 68 74 81 90
870.0 103 128 167 206 222 242 264 248 199 142
910.0 103 72 50 52 53 48 48 48 52 55
950.0 59 66 88 116 120 112 117 130 147 156
990.0 191 264 359 482 610 726 802 831 872 846
1030.0 749 669 587 492 410 318 238 183 143 123
1070.0 100 84 71 68 75 85 93 108 126 158
1110.0 196 214 212 193 193 158 116 92 73 76
1150.0 70 61 51 41 27 19 27 30 35 77
1190.0 155 236 277 291 293 259 164 70 30 11
1230.0 4 8 3 0 8 22 34 34 35 35
1270.0 34 35 43 50 50 45 42 38 37 39
1310.0 40 44 50 54 62 78 96 125 158 184
1350.0 192 190 175 147 108 74 57 57 62 66
1390.0 71 81 95 116 155 207 238 251 256 263
1430.0 264 241 215 203 203 186 152 140 165 225
1470.0 331 506 726 926 1039 1063 1042 954 755 544
1510.0 421 394 448 590 836 1192 1591 1906 2060 2084
1550.0 1990 1718 1325 1038 937 964 1122 1480 2094 2952
1590.0 3867 4669 5552 6802 8251 9386 9945 10000 9633 8646
1630.0 6731 4389 2727 1971 1589 1273 967 704 509 380
1670.0 307 264 239 223 202 184 166 151 137 130
1710.0 126 121 114 104 93 75 59 56 55 60
1750.0 72 84 103 125 140 147 152 150 143 140
1790.0 133 124 111 99 88 71 55 49 50 51
1830.0 52 53 52 50 49 48 46 46 45 42
1870.0 43 45 46 47 50 53 58 61 57 59
1910.0 58 52 47 48 54 62 68 69 67 64
1950.0 55 40 30 26 20 15 11 11 10 10
1990.0 12 13 14 15 17 18 19 18 17 16
2030.0 16 19 17 12 14 15 14 13 11 11
2070.0 8 6 7 6 7 10 10 9 10 11
2110.0 12 14 16 17 20 23 23 21 17 15
2150.0 20 21 15 19 25 28 30 30 26 21
2190.0 21 19 14 12 9 9 7 2 0 2
2230.0 6 6 5 4 9 9 5 7 5 7
2270.0 14 17 14 13 15 17 21 23 24 25
2310.0 25 30 32 29 29 30 22 14 19 19
2350.0 21 23 21 24 28 27 28 29 26 24
2390.0 24 21 22 27 29 28 33 39 42 47
2430.0 47 51 53 46 41 38 35 31 26 24
2470.0 21 23 24 18 23 30 29 26 21 17
2510.0 18 17 15 12 13 17 13 11 13 11
2550.0 7 11 11 12 17 22 18 11 11 10
2590.0 8 12 17 21 21 20 21 21 21 22
2630.0 26 34 33 29 28 26 24 25 26 23
2670.0 25 28 27 24 25 29 33 37 39 41
2710.0 44 45 51 56 58 68 70 66 59 54
2750.0 53 49 43 38 42 42 40 44 49 53
2790.0 60 70 73 76 81 82 82 83 81 76
2830.0 62 46 40 42 39 37 38 36 39 41
2870.0 40 42 41 50 53 50 48 49 48 45
2910.0 43 43 35 28 28 26 23 25 21 19
2950.0 24 28 29 27 21 21 24 23 25 26
2990.0 21 27 37 41 42 48 57 70 79 85
3030.0 87 85 84 84 88 96 120 153 177 192
3070.0 197 206 226 235 236 242 234 209 172 136
3110.0 105 81 70 58 45 34 35 41 39 43
3150.0 50 46 34 28 31 35 38 45 50 57
3190.0 60 57 58 57 55 45 44 45 40 34
3230.0 29 31 35 31 27 28 27 24 20 17
3270.0 16 20 27 23 18 17 18 16 8 3
3310.0 4 7 18 25 14 6 7 13 18 20
3350.0 19 9 1 10 25 29 21 13 10 12
3390.0 13 18 14 5 4 9 16 24 27 19
3430.0 11 4 7 6 8 9 8 8 10 9
3470.0 8 15 15 10 6 6 9 9 20 29
3510.0 24 22 17 13 14 15 13 10 0 2
3550.0 4 11 13 15 21 17 9 7 9 15
3590.0 19 11 5 16 22 21 21 22 22 12
3630.0 5 5 10 13 16 17 15 16 14 15
3670.0 21 13 10 14 18 20 18 24 24 19
3710.0 16 10 8 4 5 10 17 19 17 16
3750.0 12 16 24 23 25 26 22 24 11 13
3790.0 15 7 7 16 22 10 8 19 19 22
3830.0 30 21 13 19 26
##END=
