##TITLE=.beta.-Phenoxyethyl acrylate
##JCAMP-DX=4.24
##DATA TYPE=INFRARED SPECTRUM
##ORIGIN=EPA-IR VAPOR PHASE LIBRARY
##OWNER=SRD/NIST
Collection (C) 2018 copyright by the U.S. Secretary of Commerce
on behalf of the United States of America. All rights reserved.
##CAS REGISTRY NO=48145-04-6
##MOLFORM=C11 H12 O3
##$NIST SOURCE=MSDC-IR
##STATE=gas
##XUNITS=1/CM
##YUNITS=ABSORBANCE
##XFACTOR=1.
##YFACTOR=0.001
##DELTAX=1.92898
##FIRSTX=549.8
##LASTX=4000.7
##FIRSTY=1.941
##MAXX=4000.7
##MINX=549.759
##MAXY=0.272191
##MINY=0
##NPOINTS=1790
##XYDATA=(X++(Y..Y))
549.759 1.941 1.981 2.071 1.931 1.881 1.921 2.041 2.111 2.151 2.221
569.049 2.391 2.571 2.621 2.591 2.681 2.871 3.051 3.011 2.951 3.051
588.339 3.221 3.401 3.541 3.471 3.681 3.791 3.691 3.791 3.681 3.341
607.628 3.001 2.841 2.561 2.331 2.141 1.981 1.951 1.861 1.821 1.821
626.918 1.701 1.681 1.751 1.811 1.941 1.991 2.001 2.121 2.111 2.181
646.208 2.511 2.741 2.901 3.181 3.701 4.071 4.541 5.231 5.841 6.551
665.498 7.151 7.811 8.571 9.281 10.291 11.451 12.671 14.181 15.911 17.691
684.787 19.391 20.881 21.811 21.661 20.621 19.191 17.481 15.691 13.921 12.291
704.077 10.941 9.741 8.781 7.931 7.141 6.551 6.141 6.011 6.001 5.971
723.367 6.101 6.451 7.091 7.981 9.131 10.631 12.481 14.801 17.651 20.821
742.657 24.091 27.371 30.431 32.981 34.411 34.601 33.621 31.681 29.461 27.061
761.947 24.701 22.691 20.931 19.441 18.211 17.051 16.061 15.321 14.651 14.031
781.236 13.661 13.621 13.451 13.271 13.471 13.741 13.811 13.991 14.501 15.071
800.526 15.801 16.551 17.201 17.611 17.701 17.641 17.211 16.581 15.821 14.901
819.816 13.911 12.991 12.231 11.541 10.981 10.471 10.031 9.691 9.351 8.991
839.106 8.801 8.581 8.371 8.281 8.031 7.951 7.931 7.821 7.761 7.721
858.395 7.721 7.691 7.731 7.951 8.111 8.321 8.611 8.891 9.291 9.781
877.685 10.181 10.341 10.541 10.821 10.961 11.041 10.891 10.781 10.671 10.561
896.975 10.561 10.461 10.401 10.531 10.631 10.751 11.051 11.301 11.651 12.211
916.265 12.821 13.571 14.311 15.151 16.301 17.501 18.531 19.611 20.771 21.741
935.555 22.591 23.281 23.641 23.721 23.541 23.201 22.731 22.401 22.361 22.511
954.844 22.901 23.551 24.431 25.371 26.401 27.251 27.561 27.651 27.791 27.791
974.134 27.771 27.891 27.991 28.171 28.301 28.381 28.261 27.621 26.731 25.761
993.424 24.821 23.981 23.151 22.411 21.971 22.001 22.351 22.671 23.171 23.671
1012.714 23.911 24.091 23.931 23.881 24.021 24.171 24.271 24.241 24.781 25.851
1032.003 27.361 29.321 31.861 34.861 38.051 41.481 44.741 47.931 50.931 53.791
1051.293 56.671 59.041 60.951 62.791 64.821 66.461 67.301 67.441 67.001 65.991
1070.583 64.381 62.621 60.621 58.141 55.371 52.471 49.451 46.081 42.641 39.311
1089.873 35.561 31.981 28.851 25.891 23.271 21.301 19.651 18.081 16.941 16.111
1109.163 15.501 15.051 14.581 14.161 13.871 13.751 13.721 13.721 13.721 13.731
1128.452 14.021 14.471 14.961 15.761 16.721 17.701 19.021 20.801 23.111 26.021
1147.742 29.521 33.791 38.441 43.531 49.931 58.001 67.791 79.911 94.831 111.681
1167.032 129.791 149.831 171.801 195.221 219.161 241.101 258.721 269.921 272.191 264.311
1186.322 246.851 221.401 191.421 161.341 134.481 112.771 96.211 84.131 76.371 72.331
1205.611 71.281 72.851 76.701 81.891 87.511 92.961 98.041 102.601 106.701 110.731
1224.901 114.561 118.941 123.931 129.661 136.211 142.631 148.571 153.341 156.201 156.611
1244.191 154.291 149.631 143.231 135.751 128.401 121.851 116.261 111.851 108.281 105.001
1263.481 101.711 98.131 93.821 89.181 84.421 79.621 75.181 71.341 68.281 66.061
1282.771 64.621 64.111 64.461 65.311 66.361 67.081 66.951 65.621 62.901 58.901
1302.060 53.831 48.031 42.141 36.761 32.151 28.311 25.151 22.551 20.421 18.741
1321.350 17.461 16.591 16.011 15.741 15.561 15.321 15.051 14.611 14.001 13.211
1340.640 12.301 11.381 10.591 9.921 9.391 9.041 8.811 8.691 8.711 8.851
1359.930 9.121 9.491 9.911 10.251 10.421 10.481 10.411 10.261 10.111 10.041
1379.219 10.071 10.281 10.741 11.431 12.321 13.471 14.931 16.841 19.341 22.561
1398.509 26.771 32.151 38.881 46.651 54.001 59.191 61.551 61.251 58.341 52.581
1417.799 44.511 36.061 29.091 23.961 20.331 17.861 16.131 15.041 14.471 14.201
1437.089 14.171 14.391 14.721 15.131 15.711 16.421 17.281 18.451 19.981 21.841
1456.378 23.721 25.361 26.521 27.141 27.311 27.091 26.531 26.081 26.271 27.201
1475.668 28.711 30.771 33.561 37.291 42.321 49.001 57.781 68.411 79.221 87.491
1494.958 91.191 90.011 84.541 75.091 62.131 48.161 36.251 27.571 21.601 17.431
1514.248 14.461 12.301 10.621 9.321 8.351 7.571 6.911 6.341 5.911 5.561
1533.538 5.301 5.141 5.031 4.941 4.891 4.941 5.001 5.091 5.241 5.491
1552.827 5.791 6.121 6.571 7.101 7.741 8.531 9.471 10.591 11.911 13.481
1572.117 15.341 17.531 20.101 23.101 26.721 30.891 35.711 41.051 46.641 52.321
1591.407 57.621 62.141 65.111 65.781 64.071 60.111 54.251 47.151 39.761 32.881
1610.697 27.081 22.611 19.491 17.391 15.921 15.021 14.431 14.061 13.911 13.901
1629.986 14.001 14.241 14.441 14.371 14.051 13.451 12.531 11.411 10.101 8.701
1649.276 7.441 6.461 5.741 5.201 4.771 4.451 4.291 4.191 4.111 4.041
1668.566 4.041 4.061 4.131 4.311 4.471 4.631 4.851 5.151 5.421 5.701
1687.856 6.031 6.431 6.921 7.401 7.891 8.551 9.261 9.971 10.811 11.741
1707.146 12.751 13.931 15.271 16.831 18.581 20.671 23.271 26.311 29.941 34.141
1726.435 39.131 45.071 51.951 59.811 68.781 79.001 90.131 101.901 113.431 123.361
1745.725 130.541 134.321 134.441 130.631 122.981 112.461 100.641 88.811 77.711 67.731
1765.015 58.841 51.031 44.131 38.061 32.801 28.291 24.491 21.281 18.581 16.301
1784.305 14.341 12.661 11.301 10.091 9.031 8.161 7.401 6.781 6.251 5.751
1803.594 5.371 5.061 4.721 4.441 4.241 4.061 3.921 3.771 3.641 3.601
1822.884 3.591 3.551 3.561 3.571 3.561 3.531 3.501 3.461 3.381 3.371
1842.174 3.351 3.261 3.201 3.191 3.161 3.151 3.161 3.111 2.991 2.841
1861.464 2.721 2.601 2.521 2.451 2.331 2.241 2.181 2.141 2.121 2.091
1880.754 2.031 2.021 2.041 2.061 2.091 2.131 2.191 2.251 2.341 2.451
1900.043 2.591 2.751 2.901 3.071 3.251 3.501 3.761 3.981 4.251 4.511
1919.333 4.761 4.971 5.141 5.341 5.481 5.511 5.491 5.471 5.411 5.281
1938.623 5.071 4.811 4.531 4.211 3.891 3.581 3.291 3.031 2.811 2.671
1957.913 2.531 2.401 2.291 2.281 2.271 2.211 2.231 2.241 2.241 2.261
1977.202 2.251 2.291 2.331 2.391 2.381 2.441 2.491 2.501 2.591 2.621
1996.492 2.621 2.661 2.701 2.731 2.731 2.731 2.771 2.801 2.841 2.881
2015.782 2.941 3.041 3.091 3.081 3.101 3.181 3.161 3.151 3.161 3.161
2035.072 3.171 3.201 3.211 3.131 3.031 2.941 2.911 2.881 2.801 2.731
2054.362 2.621 2.551 2.521 2.551 2.541 2.481 2.431 2.411 2.431 2.451
2073.651 2.421 2.341 2.241 2.171 2.121 2.081 2.041 2.011 1.951 1.921
2092.941 1.891 1.831 1.821 1.791 1.761 1.711 1.641 1.641 1.631 1.571
2112.231 1.511 1.511 1.461 1.401 1.381 1.341 1.301 1.291 1.281 1.271
2131.521 1.2006 1.1318 1.1202 1.1316 1.0941 1.061 1.0429 1.0014 0.9297 0.8916
2150.810 0.9003 0.8453 0.8129 0.8137 0.794 0.7637 0.7553 0.7302 0.6854 0.6709
2170.100 0.675 0.6659 0.662 0.6661 0.678 0.6248 0.5754 0.6104 0.6082 0.586
2189.390 0.589 0.6077 0.6066 0.5493 0.5213 0.5375 0.5368 0.5222 0.5268 0.55
2208.680 0.58 0.5848 0.5921 0.5782 0.5908 0.6083 0.5694 0.5424 0.4927 0.4877
2227.970 0.5616 0.5873 0.593 0.6254 0.6263 0.627 0.6488 0.689 0.6858 0.6688
2247.259 0.6792 0.6995 0.6992 0.737 0.7908 0.8017 0.8333 0.8026 0.7971 0.8493
2266.549 0.8868 0.9288 0.9335 0.93 0.957 0.9626 0.9715 1.0018 0.9228 0.9035
2285.839 0.9604 0.9231 0.9175 0.9448 0.9801 0.9682 0.9046 0.9026 0.9471 0.9901
2305.129 1.0101 1.0384 1.0542 1.0141 0.9903 1.0047 1.0199 1.0021 1.0019 1.0177
2324.418 0.9903 1.0077 1.0451 1.0734 1.1506 1.1789 1.1632 1.1859 1.1941 1.1946
2343.708 1.195 1.21 1.2157 1.231 1.251 1.251 1.271 1.291 1.321 1.291
2362.998 1.241 1.251 1.261 1.251 1.1747 1.1196 1.1232 1.1237 1.126 1.1259
2382.288 1.0975 1.0438 1.0399 1.0478 1.0499 1.0703 1.025 0.978 1.0066 1.0058
2401.578 0.9601 0.9334 0.9442 0.9914 1.0021 0.9961 0.9686 0.9232 0.9552 1.0189
2420.867 1.0519 1.0483 1.0486 1.0751 1.1143 1.0881 1.0404 1.0929 1.1025 1.0476
2440.157 1.0555 1.0351 1.0216 1.0393 1.0332 1.0376 1.0717 1.1011 1.0375 0.9916
2459.447 1.0512 1.0925 1.1177 1.1312 1.0871 1.0921 1.1319 1.1331 1.1308 1.1868
2478.737 1.2022 1.1434 1.1478 1.1624 1.1968 1.241 1.1784 1.079 1.0734 1.1108
2498.026 1.0412 0.9939 1.0177 1.0406 1.0155 0.9975 1.0595 1.0791 1.1323 1.1884
2517.316 1.1639 1.1645 1.177 1.2187 1.214 1.1678 1.195 1.1905 1.2098 1.2135
2536.606 1.1717 1.1231 1.0732 1.0612 1.0543 1.1011 1.0989 1.1035 1.0815 1.0275
2555.896 1.0211 1.0093 1.02 0.9782 0.9565 0.9453 0.9235 0.8976 0.846 0.8019
2575.186 0.7554 0.7004 0.706 0.7334 0.7021 0.6674 0.6429 0.6104 0.6207 0.5869
2594.475 0.5507 0.5828 0.5736 0.5635 0.5785 0.5331 0.4571 0.48 0.5243 0.5608
2613.765 0.5423 0.4669 0.4339 0.491 0.5074 0.505 0.5506 0.5583 0.4784 0.4404
2633.055 0.5084 0.4752 0.4336 0.4735 0.4543 0.391 0.4197 0.4585 0.503 0.5023
2652.345 0.4395 0.4365 0.4254 0.4679 0.5626 0.5999 0.5971 0.4893 0.4543 0.5446
2671.634 0.5377 0.5053 0.4654 0.4638 0.5332 0.5344 0.5238 0.5414 0.625 0.644
2690.924 0.5859 0.6152 0.5948 0.6469 0.7659 0.7675 0.7048 0.7501 0.8389 0.8642
2710.214 0.9078 0.9482 0.9514 0.867 0.8484 0.8953 0.9476 1.0068 1.0564 1.0538
2729.504 1.0906 1.1427 1.152 1.1573 1.1513 1.2183 1.1919 1.1366 1.0837 1.0501
2748.794 1.0476 0.9815 0.9842 0.9932 0.9681 0.9803 0.9471 0.9028 0.9028 0.9835
2768.083 0.9571 0.9022 0.9943 1.0967 1.1006 1.0798 1.1556 1.1585 1.085 1.0888
2787.373 1.118 1.0593 1.0086 0.967 0.9504 0.9907 1.0226 1.0189 0.9717 0.9949
2806.663 1.0149 0.9714 1.0195 1.069 1.1466 1.231 1.2135 1.261 1.311 1.281
2825.953 1.291 1.331 1.411 1.451 1.481 1.631 1.691 1.721 1.811 1.921
2845.242 2.051 2.211 2.411 2.621 2.871 3.091 3.341 3.601 3.891 4.351
2864.532 4.941 5.541 6.141 6.821 7.561 8.191 8.791 9.281 9.611 10.011
2883.822 10.311 10.461 10.511 10.451 10.441 10.371 10.211 10.071 9.811 9.651
2903.112 9.611 9.461 9.451 9.591 9.721 9.821 10.021 10.371 10.741 11.101
2922.401 11.551 12.011 12.431 12.901 13.221 13.451 13.801 14.081 14.401 14.821
2941.691 15.251 15.911 16.681 17.461 18.261 18.951 19.561 20.081 20.481 20.601
2960.981 20.501 20.221 19.771 19.341 18.811 18.131 17.531 16.941 16.391 15.851
2980.271 15.311 14.891 14.431 13.981 13.651 13.351 13.041 12.661 12.301 11.911
2999.561 11.341 10.751 10.201 9.521 8.851 8.431 8.121 7.851 7.711 7.791
3018.850 7.891 8.061 8.451 8.931 9.541 10.261 11.151 12.161 13.181 14.381
3038.140 15.631 16.781 17.631 18.191 18.461 18.241 17.641 16.621 15.421 14.411
3057.430 13.831 13.701 13.901 14.381 15.041 15.801 16.551 17.461 18.371 19.021
3076.720 19.321 19.131 18.521 17.571 16.401 15.131 13.771 12.721 12.181 11.871
3096.009 11.681 11.501 11.221 11.011 10.841 10.601 10.351 9.871 9.151 8.281
3115.299 7.351 6.361 5.171 4.011 3.221 2.681 2.171 1.771 1.581 1.431
3134.589 1.271 1.1257 0.972 0.7782 0.7083 0.6701 0.6128 0.6694 0.6488 0.5593
3153.879 0.6042 0.6468 0.5727 0.5715 0.6288 0.5621 0.5166 0.4541 0.30744 0.28359
3173.169 0.3767 0.4355 0.4051 0.3737 0.30829 0.30117 0.3911 0.4335 0.3792 0.2779
3192.458 0.22593 0.2082 0.26558 0.31929 0.384 0.3734 0.28547 0.31891 0.4173 0.4227
3211.748 0.228335 0.1238 0.115 0.1562 0.28308 0.3943 0.3808 0.27989 0.193 0.24477
3231.038 0.25946 0.1832 0.1958 0.21189 0.23124 0.226482 0.22239 0.22962 0.28287 0.24451
3250.328 0.25502 0.30048 0.1921 0.1339 0.1451 0.1941 0.1972 0.21768 0.23104 0.1239
3269.617 0.1233 0.113 0.094 0.078 0.044 0.051 0.052 0.104 0.104 0.1525
3288.907 0.1 0.028 0.178 0.220104 0.1 0.1595 0.209 0.038 0.034 0.115
3308.197 0.129 0.2175 0.25098 0.2004 0.2085 0.092 0.012 0.032 0.096 0.1795
3327.487 0.24398 0.1872 0.1 0.1603 0.1983 0.2366 0.24568 0.28085 0.28531 0.24526
3346.777 0.1276 0.1516 0.3301 0.4783 0.4898 0.4253 0.3545 0.3795 0.4606 0.4461
3366.066 0.3792 0.3389 0.3158 0.23992 0.26959 0.22966 0.1877 0.21652 0.3201 0.3607
3385.356 0.247 0.26064 0.21318 0.21554 0.2011 0.1212 0.1757 0.205 0.30101 0.3803
3404.646 0.3597 0.24252 0.037 0.045 0.1261 0.224502 0.24232 0.1764 0.1279 0.045
3423.936 0.1413 0.2439 0.21845 0.21569 0.2 0.26661 0.3671 0.31607 0.3689 0.434
3443.225 0.3999 0.4018 0.4559 0.5372 0.5398 0.6409 0.7372 0.7664 0.9021 1.0215
3462.515 1.0512 1.0741 1.2025 1.291 1.321 1.361 1.471 1.551 1.551 1.571
3481.805 1.521 1.391 1.281 1.261 1.163 1.1106 1.0785 1.0207 0.9139 0.7746
3501.095 0.7394 0.6848 0.7433 0.6684 0.5169 0.5448 0.5645 0.5615 0.525 0.4251
3520.385 0.3956 0.417 0.4276 0.4145 0.3952 0.3215 0.30261 0.3932 0.28599 0.1681
3539.674 0.21444 0.325 0.3636 0.229254 0.1871 0.1713 0.034 0.1459 0.23723 0.1675
3558.964 0.118 0.097 0.116 0.07 0.03 0.143 0.2484 0.28692 0.28429 0.25527
3578.254 0.26432 0.1949 0.25491 0.3582 0.30928 0.2002 0.1516 0.165 0.102 0
3597.544 0.102 0.1981 0.1663 0.1463 0.24053 0.230597 0.1974 0.26352 0.25395 0.25492
3616.833 0.25316 0.29561 0.25428 0.2006 0.1889 0.159 0.103 0.1639 0.27371 0.30702
3636.123 0.2102 0.1614 0.29711 0.1718 0.098 0.2445 0.326 0.3342 0.3943 0.3418
3655.413 0.2893 0.28551 0.332 0.3639 0.29866 0.28201 0.28887 0.24783 0.26637 0.3916
3674.703 0.4878 0.5433 0.4993 0.3607 0.3325 0.3908 0.3437 0.224468 0.1522 0.1264
3693.993 0.25008 0.3815 0.29283 0.31087 0.29041 0.1729 0.1929 0.1372 0.1888 0.3547
3713.282 0.26593 0.2106 0.24926 0.3322 0.4315 0.3882 0.3824 0.2036 0.099 0.3059
3732.572 0.26975 0.25885 0.3521 0.2703 0.1669 0.093 0.1658 0.28179 0.24237 0.23982
3751.862 0.1525 0.2066 0.230853 0.1264 0.1466 0.1691 0.24064 0.24966 0.25185 0.1969
3771.152 0.1406 0.191 0.27093 0.31682 0.25327 0.3051 0.1727 0.118 0.309 0.426
3790.441 0.4343 0.23879 0.3617 0.3576 0.1314 0.119 0.1628 0.28783 0.29627 0.3051
3809.731 0.30599 0.1286 0.115 0.072 0.09 0.2041 0.30233 0.4298 0.3357 0.26908
3829.021 0.3453 0.30444 0.23132 0.221813 0.24515 0.28885 0.2511 0.31145 0.4783 0.5573
3848.311 0.5252 0.4059 0.379 0.3939 0.3927 0.469 0.4159 0.3806 0.4215 0.3881
3867.601 0.3392 0.25443 0.3546 0.3734 0.24962 0.28972 0.29127 0.30639 0.2009 0.1381
3886.890 0.167 0.1988 0.1898 0.1999 0.3906 0.4227 0.29655 0.3809 0.43 0.2021
3906.180 0.24612 0.4034 0.3856 0.34 0.24102 0.26103 0.29184 0.3881 0.4839 0.4536
3925.470 0.4378 0.3253 0.335 0.504 0.3536 0.27663 0.3885 0.3426 0.29724 0.30334
3944.760 0.3992 0.4822 0.5918 0.5729 0.3543 0.356 0.4735 0.4926 0.5014 0.3413
3964.049 0.227973 0.3286 0.4481 0.4611 0.4245 0.4592 0.4405 0.5008 0.5586 0.5626
3983.339 0.5158 0.4198 0.4769 0.5373 0.5324 0.5245 0.5044 0.5085 0.5384 0.5036
##END=
