##TITLE=.alpha.-Mercaptoacetanilide
##JCAMP-DX=4.24
##DATA TYPE=INFRARED SPECTRUM
##ORIGIN=EPA-IR VAPOR PHASE LIBRARY
##OWNER=SRD/NIST
Collection (C) 2018 copyright by the U.S. Secretary of Commerce
on behalf of the United States of America. All rights reserved.
##CAS REGISTRY NO=4822-44-0
##MOLFORM=C 8 H 9 N O S
##$NIST SOURCE=MSDC-IR
##STATE=gas
##XUNITS=1/CM
##YUNITS=ABSORBANCE
##XFACTOR=1.
##YFACTOR=0.001
##DELTAX=1.92898
##FIRSTX=549.8
##LASTX=4000.7
##FIRSTY=4.337
##MAXX=4000.7
##MINX=549.759
##MAXY=0.093997
##MINY=0
##NPOINTS=1790
##XYDATA=(X++(Y..Y))
549.759 4.337 4.327 4.317 4.117 3.827 3.517 3.617 3.627 3.687 3.847
569.049 3.527 3.147 2.987 2.837 2.547 2.397 2.457 2.667 2.727 2.607
588.339 2.877 2.977 2.787 3.007 3.017 3.057 3.187 2.977 2.787 2.897
607.628 3.197 3.387 3.497 3.647 3.487 3.397 3.547 3.557 3.397 3.227
626.918 3.267 3.097 2.647 2.647 2.857 2.587 2.277 2.387 2.527 2.567
646.208 2.717 2.677 2.637 2.767 2.907 3.047 3.217 3.287 3.597 4.147
665.498 4.437 4.907 5.467 5.957 6.837 7.677 8.257 9.037 9.947 10.627
684.787 11.427 12.227 12.677 12.407 11.807 11.377 10.797 10.067 9.427 8.817
704.077 8.177 7.517 6.887 6.387 6.197 6.047 6.007 6.027 5.977 6.257
723.367 6.407 6.737 7.397 7.867 8.877 10.187 11.397 12.717 13.947 15.437
742.657 17.097 18.377 19.207 19.817 20.027 19.417 18.127 16.687 15.037 13.317
761.947 11.967 10.557 9.027 7.777 6.667 5.747 5.117 4.527 4.187 3.967
781.236 3.637 3.367 3.187 2.967 2.927 3.117 3.147 2.967 3.057 3.037
800.526 2.827 2.717 2.717 2.547 2.357 2.307 2.067 2.097 2.157 2.197
819.816 2.137 1.957 1.847 1.907 1.837 1.547 1.587 1.597 1.617 1.847
839.106 1.857 1.637 1.567 1.647 1.637 1.657 1.737 1.757 1.837 1.757
858.395 1.627 1.697 1.697 1.587 1.637 1.817 1.887 1.697 1.647 1.787
877.685 1.847 1.927 2.177 2.277 2.327 2.367 2.377 2.417 2.497 2.547
896.975 2.387 2.357 2.407 2.397 2.437 2.527 2.387 2.307 2.357 2.257
916.265 2.137 2.057 2.017 2.067 2.037 2.047 2.197 2.187 2.167 2.167
935.555 2.187 2.197 2.197 2.377 2.317 2.157 2.267 2.427 2.537 2.507
954.844 2.497 2.327 2.217 2.377 2.407 2.317 2.277 2.397 2.567 2.687
974.134 2.747 2.797 2.767 2.787 2.867 2.967 3.157 3.327 3.337 3.107
993.424 3.157 3.167 2.997 2.957 2.847 2.807 2.807 2.647 2.487 2.307
1012.714 2.177 2.267 2.027 2.167 2.497 2.747 3.227 3.587 3.697 3.747
1032.003 3.767 3.657 3.417 3.047 2.707 2.697 2.487 2.317 2.537 2.567
1051.293 2.557 2.777 3.137 3.137 2.957 3.077 3.547 4.137 4.237 4.077
1070.583 4.437 4.527 4.257 4.237 3.827 3.607 3.887 4.447 4.437 3.957
1089.873 3.987 4.337 4.857 5.037 5.657 5.777 5.457 5.697 6.037 6.107
1109.163 5.997 6.187 6.337 6.477 6.417 6.787 7.027 6.947 7.307 7.817
1128.452 7.887 7.787 7.917 8.007 8.077 7.777 7.437 7.557 7.617 7.857
1147.742 7.937 7.527 7.477 7.287 7.167 7.347 7.207 7.277 7.257 7.227
1167.032 7.327 7.377 7.317 7.217 7.377 7.427 7.297 7.167 7.047 6.997
1186.322 7.087 7.067 6.897 6.667 6.857 7.297 7.557 7.797 7.827 7.657
1205.611 7.757 8.197 8.767 9.217 9.487 9.777 10.797 11.647 12.407 13.497
1224.901 14.697 16.047 17.587 19.537 21.057 22.427 23.627 24.057 24.267 23.627
1244.191 21.817 20.267 18.327 16.077 14.247 12.367 11.007 10.167 9.317 8.387
1263.481 7.937 7.827 7.597 7.897 8.357 8.797 9.597 10.397 11.007 11.587
1282.771 12.107 12.607 13.257 13.817 14.167 14.657 15.577 16.767 18.067 19.487
1302.060 20.997 22.347 23.527 24.507 25.187 25.547 25.257 24.247 22.957 21.607
1321.350 20.077 18.337 16.517 14.737 13.087 11.787 10.817 10.147 9.647 9.157
1340.640 8.727 8.297 7.907 7.527 7.137 6.777 6.397 6.017 5.697 5.407
1359.930 5.137 4.907 4.737 4.587 4.507 4.497 4.447 4.407 4.397 4.377
1379.219 4.397 4.427 4.447 4.447 4.447 4.487 4.637 4.897 5.187 5.587
1398.509 6.147 6.757 7.427 8.187 8.897 9.627 10.407 11.157 11.937 12.727
1417.799 13.557 14.627 15.927 17.647 19.987 22.997 26.797 31.327 36.267 40.847
1437.089 44.397 46.057 45.837 44.197 41.117 36.467 30.467 24.167 18.877 15.247
1456.378 12.977 11.717 11.147 10.907 10.987 11.307 11.727 12.177 12.597 13.037
1475.668 13.477 13.957 14.667 15.667 17.157 19.227 22.247 26.397 31.607 37.537
1494.958 43.617 49.507 54.937 59.977 64.657 68.667 71.967 75.157 78.717 82.707
1514.248 86.847 90.487 92.967 93.997 93.247 90.627 85.937 79.427 71.647 63.107
1533.538 54.427 45.957 38.317 31.397 25.607 21.247 18.027 15.627 13.817 12.457
1552.827 11.447 10.637 9.907 9.297 8.957 8.757 8.597 8.437 8.337 8.377
1572.117 8.587 8.877 9.237 9.777 10.667 11.897 13.407 15.407 18.007 21.207
1591.407 24.957 29.097 33.207 36.817 39.377 40.047 38.797 35.877 31.637 26.737
1610.697 21.557 16.787 13.077 10.437 8.667 7.517 6.657 6.037 5.597 5.147
1629.986 4.757 4.537 4.437 4.357 4.227 4.117 4.147 4.157 4.197 4.197
1649.276 4.217 4.287 4.357 4.497 4.597 4.717 4.867 5.057 5.297 5.617
1668.566 5.947 6.177 6.517 6.957 7.407 7.887 8.407 9.027 9.787 10.677
1687.856 11.687 12.927 14.587 16.617 19.197 22.297 25.857 30.457 35.497 41.107
1707.146 47.117 53.227 58.877 63.467 66.647 68.507 69.347 69.257 67.637 64.187
1726.435 59.327 53.677 47.737 41.917 36.267 31.177 26.857 23.037 19.817 17.157
1745.725 15.027 13.277 11.757 10.477 9.457 8.567 7.857 7.337 6.807 6.317
1765.015 5.897 5.547 5.277 5.057 4.797 4.547 4.387 4.197 3.987 3.827
1784.305 3.657 3.467 3.297 3.167 3.007 2.777 2.607 2.547 2.457 2.407
1803.594 2.327 2.177 2.037 1.957 1.917 1.837 1.797 1.757 1.737 1.687
1822.884 1.657 1.627 1.587 1.607 1.657 1.687 1.697 1.707 1.747 1.737
1842.174 1.707 1.767 1.847 1.897 1.897 1.917 1.947 1.977 2.017 2.027
1861.464 2.017 2.007 1.987 1.927 1.857 1.827 1.817 1.767 1.717 1.627
1880.754 1.4918 1.4021 1.4123 1.364 1.2762 1.2498 1.2392 1.3204 1.3421 1.3206
1900.043 1.2811 1.3002 1.3555 1.3716 1.4628 1.4483 1.4564 1.5074 1.5127 1.557
1919.333 1.627 1.667 1.667 1.687 1.697 1.767 1.827 1.797 1.767 1.797
1938.623 1.807 1.727 1.687 1.687 1.657 1.657 1.637 1.557 1.5095 1.4244
1957.913 1.3329 1.2344 1.1259 1.0357 0.9782 0.9604 0.9651 0.9389 0.9513 0.9916
1977.202 0.9648 0.9146 0.9058 0.9279 0.8921 0.8606 0.8842 0.8821 0.9344 0.9434
1996.492 0.9296 0.9632 0.9074 0.8724 0.9041 0.9982 1.0005 0.8884 0.8701 0.8976
2015.782 0.9074 0.8902 0.8713 0.8382 0.8326 0.8309 0.8183 0.8343 0.8329 0.8438
2035.072 0.8283 0.8241 0.8429 0.821 0.8274 0.8934 0.9026 0.8664 0.8331 0.761
2054.362 0.7414 0.8164 0.8637 0.8273 0.8301 0.8387 0.829 0.809 0.8649 0.9352
2073.651 0.8807 0.8142 0.8641 0.9492 0.9054 0.875 0.8929 0.8849 0.9031 0.9091
2092.941 0.9068 0.9103 0.9419 0.9209 0.8331 0.8333 0.8503 0.8138 0.8053 0.8304
2112.231 0.7966 0.7886 0.8575 0.9073 0.8715 0.8223 0.7852 0.7752 0.7683 0.7514
2131.521 0.789 0.8061 0.796 0.8271 0.8488 0.8372 0.8127 0.8132 0.8116 0.8197
2150.810 0.84 0.8085 0.7914 0.7997 0.7593 0.728 0.746 0.7291 0.7226 0.748
2170.100 0.7563 0.7782 0.8067 0.7889 0.7649 0.7428 0.7491 0.7829 0.7887 0.7847
2189.390 0.8274 0.8055 0.7257 0.6632 0.6506 0.7155 0.7014 0.6849 0.7456 0.703
2208.680 0.6394 0.6568 0.6566 0.6419 0.6574 0.6693 0.7269 0.7919 0.7706 0.7322
2227.970 0.7368 0.787 0.7286 0.61652 0.6425 0.6769 0.7208 0.7522 0.6789 0.63477
2247.259 0.6766 0.6868 0.6376 0.6445 0.6898 0.7636 0.7868 0.737 0.705 0.7054
2266.549 0.637 0.6424 0.7037 0.7706 0.8169 0.7697 0.7823 0.7322 0.7134 0.6785
2285.839 0.6572 0.6572 0.62987 0.6213 0.5964 0.61145 0.6396 0.6706 0.6694 0.684
2305.129 0.7158 0.7303 0.7414 0.7767 0.8204 0.7619 0.6789 0.7422 0.8269 0.8421
2324.418 0.7528 0.6975 0.7612 0.8024 0.8093 0.7308 0.7263 0.8061 0.8659 0.8922
2343.708 0.8675 0.9156 0.9851 0.9096 0.8641 0.9532 0.9633 0.9138 0.9052 0.9607
2362.998 1.0198 0.9807 0.9379 0.94 0.9399 0.8969 0.8358 0.8318 0.9329 0.985
2382.288 0.9176 0.9257 0.903 0.8061 0.7751 0.7601 0.7918 0.8505 0.7906 0.7422
2401.578 0.7767 0.7719 0.737 0.7236 0.7297 0.735 0.6905 0.6433 0.6711 0.6648
2420.867 0.671 0.7169 0.7153 0.7059 0.7093 0.7585 0.7564 0.7744 0.8598 0.8051
2440.157 0.7774 0.8042 0.8374 0.8475 0.8006 0.8962 0.9431 0.8625 0.8072 0.8351
2459.447 0.8876 0.9 0.8861 0.8236 0.7701 0.836 0.8723 0.8348 0.8438 0.8461
2478.737 0.8235 0.7578 0.6512 0.6754 0.7623 0.7305 0.667 0.6683 0.7283 0.7605
2498.026 0.7346 0.714 0.715 0.7157 0.6884 0.7073 0.733 0.7668 0.8391 0.842
2517.316 0.7438 0.6507 0.6424 0.6972 0.7296 0.6853 0.7117 0.7757 0.7906 0.7817
2536.606 0.7476 0.7068 0.7726 0.8298 0.7962 0.7343 0.743 0.8352 0.8223 0.7258
2555.896 0.7157 0.7506 0.7279 0.6732 0.7088 0.7814 0.8016 0.8631 0.9062 0.8666
2575.186 0.8367 0.9107 0.9606 0.967 0.9308 0.9638 1.0249 1.1067 1.0965 0.9587
2594.475 0.9368 0.9145 0.8758 0.7361 0.6589 0.6932 0.6859 0.6971 0.6494 0.6773
2613.765 0.7103 0.56888 0.4482 0.5201 0.55953 0.58195 0.6989 0.7267 0.6679 0.6912
2633.055 0.7462 0.7029 0.63482 0.60106 0.702 0.771 0.7464 0.7836 0.8253 0.7731
2652.345 0.7528 0.837 0.8559 0.861 0.7862 0.7794 0.7932 0.6938 0.691 0.694
2671.634 0.6488 0.6669 0.711 0.6637 0.6822 0.6984 0.6951 0.6849 0.6524 0.7018
2690.924 0.6922 0.58582 0.62033 0.6584 0.61243 0.61463 0.5942 0.56793 0.62461 0.6468
2710.214 0.6471 0.63241 0.59054 0.61791 0.6216 0.61667 0.6683 0.688 0.6472 0.6357
2729.504 0.60046 0.57294 0.60137 0.61746 0.5933 0.516 0.57847 0.7124 0.7181 0.7303
2748.794 0.7468 0.7157 0.6726 0.671 0.7458 0.7937 0.8113 0.7726 0.6873 0.7036
2768.083 0.6691 0.6819 0.6532 0.537302 0.52727 0.6393 0.6867 0.60642 0.61104 0.58718
2787.373 0.5118 0.60469 0.6651 0.59425 0.58784 0.5075 0.4799 0.5113 0.53129 0.59017
2806.663 0.62608 0.6786 0.63579 0.58464 0.60787 0.57121 0.557 0.59092 0.6908 0.7082
2825.953 0.5633 0.5154 0.59229 0.58941 0.58252 0.56062 0.5231 0.57746 0.57484 0.621
2845.242 0.7198 0.62819 0.60249 0.6597 0.6909 0.6749 0.6928 0.6738 0.55183 0.60245
2864.532 0.62647 0.55827 0.54717 0.59313 0.60237 0.63209 0.61534 0.56331 0.58113 0.60053
2883.822 0.662 0.7419 0.6807 0.7311 0.7685 0.7039 0.7948 0.7862 0.7956 0.917
2903.112 0.966 0.9818 1.0516 1.1603 1.2105 1.2769 1.3973 1.4453 1.4562 1.4993
2922.401 1.737 1.817 1.737 1.797 1.787 1.887 1.987 1.957 1.877 1.887
2941.691 1.847 1.797 1.837 1.877 1.697 1.567 1.717 1.757 1.727 1.647
2960.981 1.587 1.5225 1.5001 1.4757 1.3019 1.1494 1.1808 1.2972 1.2843 1.2337
2980.271 1.2177 1.2719 1.2384 1.1936 1.2992 1.198 1.1459 1.2912 1.3048 1.2738
2999.561 1.3732 1.5187 1.627 1.707 1.857 2.077 2.187 2.377 2.697 3.087
3018.850 3.527 3.967 4.397 4.927 5.467 5.907 6.247 6.397 6.517 6.627
3038.140 6.617 6.417 6.077 5.707 5.457 5.357 5.377 5.547 5.867 6.337
3057.430 6.857 7.507 8.187 8.817 9.437 9.757 9.847 9.837 9.517 8.807
3076.720 8.187 7.577 6.827 6.067 5.577 5.267 4.977 4.857 4.757 4.507
3096.009 4.267 4.177 3.987 3.897 3.757 3.377 3.187 3.167 2.867 2.477
3115.299 2.207 1.927 1.747 1.717 1.657 1.4783 1.3146 1.1554 1.0054 0.8869
3134.589 0.8512 0.9176 0.9146 0.9309 0.8561 0.7216 0.6463 0.525 0.4907 0.4868
3153.879 0.4548 0.4517 0.61679 0.6456 0.427 0.423 0.4827 0.4518 0.4932 0.4675
3173.169 0.379 0.4379 0.55624 0.62405 0.55142 0.5162 0.57784 0.58097 0.55601 0.5073
3192.458 0.52723 0.5755 0.5027 0.4841 0.457 0.401 0.4848 0.433 0.4687 0.454
3211.748 0.327 0.412 0.58128 0.5063 0.368 0.406 0.365 0.428 0.58752 0.59515
3231.038 0.4747 0.5091 0.4749 0.344 0.415 0.4769 0.4967 0.546452 0.52888 0.4845
3250.328 0.378 0.302 0.362 0.4484 0.4897 0.5049 0.4884 0.348 0.342 0.4881
3269.617 0.56924 0.6542 0.6607 0.4893 0.5155 0.58178 0.414 0.417 0.5202 0.4691
3288.907 0.56993 0.59824 0.58047 0.62826 0.56058 0.6499 0.6405 0.56637 0.59471 0.6824
3308.197 0.698 0.6825 0.7126 0.6804 0.7795 0.8794 0.8884 0.8681 0.869 0.8654
3327.487 0.8822 0.7938 0.7617 0.8127 0.8724 0.9384 0.9098 1.0136 0.927 0.9315
3346.777 1.0259 0.9673 1.0305 1.1358 1.2683 1.4277 1.547 1.657 1.737 1.747
3366.066 1.867 2.077 2.287 2.577 2.817 3.007 3.407 3.917 4.527 5.267
3385.356 5.997 6.807 7.867 9.017 10.037 10.857 11.387 11.887 12.177 12.017
3404.646 11.787 11.437 10.747 9.907 9.307 8.627 7.957 7.307 6.707 6.327
3423.936 5.887 5.367 4.877 4.437 4.167 3.817 3.547 3.457 3.217 3.027
3443.225 2.887 2.827 2.817 2.757 2.637 2.467 2.227 2.207 2.267 2.217
3462.515 2.167 1.967 1.807 1.767 1.607 1.4572 1.3578 1.3226 1.2116 1.1046
3481.805 1.0962 0.8898 0.8161 0.8535 0.8347 0.7822 0.7465 0.7389 0.6419 0.5173
3501.095 0.4743 0.439 0.359 0.358 0.423 0.4592 0.421 0.369 0.344 0.4676
3520.385 0.4 0.348 0.323 0.271 0.308 0.335 0.356 0.319 0.282 0.208
3539.674 0.24 0.238 0.283 0.289 0.374 0.5079 0.434 0.365 0.329 0.286
3558.964 0.328 0.302 0.326 0.427 0.418 0.326 0.391 0.4941 0.341 0.4454
3578.254 0.57092 0.381 0.272 0.275 0.287 0.217 0.106 0.12 0.251 0.404
3597.544 0.418 0.325 0.34 0.379 0.4 0.419 0.404 0.423 0.4471 0.4671
3616.833 0.4 0.361 0.374 0.382 0.437 0.423 0.284 0.411 0.543032 0.302
3636.123 0.196 0.264 0.206 0.126 0.169 0.35 0.542004 0.5264 0.505 0.4531
3655.413 0.418 0.38 0.305 0.343 0.303 0.361 0.4496 0.401 0.351 0.374
3674.703 0.325 0.241 0.237 0.265 0.294 0.208 0.24 0.275 0.213 0.258
3693.993 0.227 0.217 0.261 0.23 0.323 0.303 0.179 0.221 0.264 0.38
3713.282 0.4688 0.416 0.363 0.4485 0.56162 0.53059 0.361 0.217 0.179 0.325
3732.572 0.5229 0.58741 0.4827 0.317 0.209 0.208 0.198 0.147 0.351 0.4826
3751.862 0.349 0.374 0.4494 0.348 0.359 0.407 0.308 0.24 0.258 0.257
3771.152 0.219 0.232 0.307 0.304 0.177 0.157 0.239 0.229 0.223 0.177
3790.441 0.084 0.1 0.187 0.172 0.134 0.223 0.238 0.212 0.212 0.174
3809.731 0.331 0.44 0.431 0.4784 0.4 0.257 0.249 0.308 0.137 0.081
3829.021 0.113 0 0.133 0.298 0.283 0.356 0.361 0.237 0.182 0.073
3848.311 0.112 0.293 0.314 0.253 0.216 0.148 0.173 0.23 0.275 0.235
3867.601 0.198 0.347 0.354 0.333 0.32 0.245 0.231 0.282 0.154 0.112
3886.890 0.256 0.304 0.342 0.281 0.31 0.35 0.262 0.309 0.305 0.352
3906.180 0.404 0.195 0.236 0.25 0.17 0.33 0.283 0.271 0.357 0.243
3925.470 0.331 0.416 0.331 0.293 0.409 0.4559 0.282 0.208 0.329 0.376
3944.760 0.395 0.366 0.395 0.4794 0.285 0.297 0.337 0.295 0.299 0.339
3964.049 0.365 0.318 0.153 0.072 0.136 0.127 0.214 0.266 0.4553 0.4628
3983.339 0.266 0.313 0.333 0.235 0.368 0.399 0.292 0.29 0.33 0.318
##END=
