##TITLE=2-Bromoethyl acrylate
##JCAMP-DX=4.24
##DATA TYPE=INFRARED SPECTRUM
##ORIGIN=EPA-IR VAPOR PHASE LIBRARY
##OWNER=SRD/NIST
Collection (C) 2018 copyright by the U.S. Secretary of Commerce
on behalf of the United States of America. All rights reserved.
##CAS REGISTRY NO=4823-47-6
##MOLFORM=C 5 H 7 Br O 2
##$NIST SOURCE=MSDC-IR
##STATE=gas
##XUNITS=1/CM
##YUNITS=ABSORBANCE
##XFACTOR=1.
##YFACTOR=0.001
##DELTAX=1.92898
##FIRSTX=549.8
##LASTX=4000.7
##FIRSTY=0.5751
##MAXX=4000.7
##MINX=549.759
##MAXY=0.087798
##MINY=0
##NPOINTS=1790
##XYDATA=(X++(Y..Y))
549.759 0.5751 0.3891 0.448 0.8576 0.8509 0.9099 0.9918 1.0135 1.318 1.628
569.049 1.668 1.778 1.888 2.218 2.528 2.248 2.458 2.598 2.398 2.148
588.339 1.558 1.308 1.468 1.388 1.1387 1.1482 1.0273 1.0109 1.0213 0.9176
607.628 0.9359 0.8742 0.8348 0.8001 0.8475 0.9428 0.8702 0.7964 0.8256 0.839
626.918 0.723 0.7656 0.8246 0.8952 1.0497 1.0502 1.0756 1.2297 1.368 1.378
646.208 1.508 1.658 1.788 1.828 1.878 1.928 1.758 1.968 2.178 2.048
665.498 2.108 2.358 2.448 2.368 2.378 2.538 2.738 2.638 2.468 2.518
684.787 2.418 2.148 1.978 1.798 1.568 1.558 1.588 1.378 1.235 1.258
704.077 1.0756 1.0056 1.1563 1.0754 0.9554 0.9283 0.9833 1.0327 0.9928 0.8983
723.367 0.8762 0.8846 0.8409 0.886 0.9888 0.978 0.8365 0.8381 0.7868 0.6332
742.657 0.5862 0.6478 0.7065 0.593 0.6695 0.7849 0.8193 0.9378 0.9731 0.9312
761.947 1.0151 1.0837 1.0893 1.1344 1.0741 1.1871 1.338 1.498 1.578 1.808
781.236 2.248 2.428 2.648 2.968 3.338 3.828 4.088 4.448 5.088 5.568
800.526 5.858 6.248 6.598 6.808 6.828 6.668 6.368 5.898 5.518 5.148
819.816 4.568 4.118 3.928 3.538 3.208 2.918 2.638 2.448 2.278 2.258
839.106 2.148 1.988 1.948 1.908 1.898 2.068 2.078 2.038 2.338 2.348
858.395 2.058 2.038 2.038 2.118 2.178 2.108 2.158 2.178 2.148 2.088
877.685 2.158 2.248 2.328 2.348 2.208 2.238 2.308 2.228 2.178 2.118
896.975 2.078 2.208 2.268 2.198 2.098 1.918 1.958 2.028 2.058 2.108
916.265 1.928 1.858 1.928 1.938 2.038 2.078 1.888 2.008 2.228 2.288
935.555 2.588 2.888 3.178 3.478 3.948 4.348 4.568 5.018 5.548 6.248
954.844 6.778 7.198 7.898 8.818 9.648 10.388 10.888 11.108 11.508 11.858
974.134 12.418 12.888 13.168 13.528 13.738 13.818 13.938 13.908 13.618 13.048
993.424 12.338 11.488 10.628 9.868 8.788 7.918 7.298 6.768 6.428 5.858
1012.714 5.258 5.088 4.898 4.708 4.998 5.248 5.688 6.378 6.708 7.278
1032.003 8.148 8.578 8.958 9.808 10.698 11.358 12.068 12.688 13.428 14.288
1051.293 15.178 16.038 16.598 16.828 16.908 16.548 16.138 15.928 15.498 14.988
1070.583 14.708 14.548 14.368 14.508 14.388 13.918 13.638 13.428 12.608 11.708
1089.873 10.808 9.828 8.788 7.698 6.698 5.858 5.428 4.888 4.478 4.018
1109.163 4.198 4.488 4.028 3.748 3.808 3.888 3.928 4.188 4.428 4.748
1128.452 5.088 5.488 5.908 6.218 7.028 7.948 8.798 10.138 11.788 13.358
1147.742 15.128 17.308 19.818 23.138 27.328 32.228 37.708 43.988 51.118 58.788
1167.032 66.668 73.948 80.048 84.468 87.208 87.798 86.188 82.848 77.518 70.708
1186.322 63.368 56.378 49.928 43.728 38.188 32.998 28.128 24.418 21.118 18.708
1205.611 17.148 15.718 15.148 14.718 14.448 14.608 14.488 14.658 15.238 15.408
1224.901 15.358 15.368 15.498 15.888 16.378 16.858 17.628 18.868 20.108 21.548
1244.191 23.608 26.018 28.708 31.638 34.738 37.648 39.528 40.258 40.118 38.968
1263.481 36.808 33.928 30.588 26.838 23.218 20.188 17.918 16.368 15.378 14.928
1282.771 14.928 15.418 16.238 17.328 18.248 18.718 18.728 18.288 17.588 16.468
1302.060 14.908 12.968 10.908 9.088 7.578 6.388 5.558 4.888 4.338 3.938
1321.350 3.538 3.198 3.058 2.908 2.718 2.498 2.338 2.248 2.098 2.018
1340.640 1.998 1.988 1.948 1.958 1.958 1.958 2.008 2.038 2.068 2.128
1359.930 2.228 2.278 2.348 2.528 2.728 2.868 2.988 3.108 3.198 3.268
1379.219 3.338 3.418 3.538 3.698 3.868 4.168 4.668 5.458 6.568 8.108
1398.509 10.378 13.498 17.198 20.758 23.058 23.858 23.978 23.818 22.878 20.598
1417.799 17.128 13.498 10.798 8.968 7.828 7.228 6.798 6.478 6.278 6.128
1437.089 5.978 5.908 5.838 5.708 5.568 5.478 5.388 5.278 5.178 5.058
1456.378 4.908 4.708 4.488 4.238 3.988 3.798 3.558 3.278 3.028 2.798
1475.668 2.528 2.268 2.138 2.058 1.908 1.778 1.668 1.588 1.528 1.508
1494.958 1.488 1.458 1.438 1.368 1.338 1.318 1.24 1.1998 1.2097 1.1934
1514.248 1.1452 1.1349 1.1649 1.125 1.1337 1.1741 1.0691 1.0114 1.0056 0.9843
1533.538 0.9803 0.9457 0.9739 0.9731 0.9118 0.8609 0.8362 0.8138 0.7651 0.7344
1552.827 0.7879 0.8075 0.8094 0.8237 0.7978 0.7884 0.8216 0.8564 0.8735 0.8445
1572.117 0.8044 0.8905 0.9262 0.9445 0.9937 1.0445 1.1131 1.1599 1.2385 1.298
1591.407 1.308 1.368 1.418 1.508 1.608 1.728 1.838 1.988 2.068 2.108
1610.697 2.328 2.518 2.628 2.828 3.058 3.348 3.618 3.878 4.178 4.528
1629.986 4.848 5.148 5.328 5.308 5.138 4.908 4.638 4.248 3.758 3.208
1649.276 2.688 2.298 2.008 1.768 1.608 1.488 1.368 1.298 1.298 1.308
1668.566 1.328 1.308 1.288 1.318 1.338 1.388 1.418 1.518 1.688 1.798
1687.856 1.878 2.058 2.248 2.348 2.468 2.678 2.948 3.218 3.478 3.758
1707.146 4.038 4.398 4.858 5.408 6.098 6.868 7.718 8.818 10.148 11.708
1726.435 13.608 15.868 18.518 21.498 25.068 29.018 33.098 37.518 41.768 45.498
1745.725 48.228 49.868 50.548 50.768 50.588 49.398 46.628 42.648 37.958 33.238
1765.015 28.868 24.828 21.158 17.958 15.098 12.668 10.638 8.948 7.528 6.358
1784.305 5.448 4.768 4.188 3.758 3.428 3.108 2.918 2.748 2.578 2.428
1803.594 2.328 2.228 2.108 2.028 1.918 1.838 1.758 1.648 1.578 1.478
1822.884 1.398 1.298 1.1808 1.1374 1.1339 1.1468 1.1017 1.0613 1.0431 1.0209
1842.174 1.011 0.9973 1.0047 1.0081 0.9552 0.9712 1.0288 1.0143 0.9441 0.8999
1861.464 0.9036 0.8959 0.9006 0.8781 0.8989 0.9357 0.9252 0.8892 0.8463 0.8547
1880.754 0.8642 0.8822 0.9039 0.8851 0.8823 0.8817 0.8716 0.8583 0.8369 0.8309
1900.043 0.8159 0.8287 0.884 0.8798 0.9458 1.0141 0.9866 1.0159 1.0156 1.0705
1919.333 1.1857 1.268 1.308 1.378 1.468 1.478 1.538 1.568 1.518 1.488
1938.623 1.438 1.408 1.368 1.278 1.2189 1.1636 1.09 1.0255 0.9928 0.9561
1957.913 0.8851 0.8936 0.9521 0.9468 0.9019 0.879 0.8806 0.8651 0.847 0.8346
1977.202 0.7851 0.7702 0.7956 0.839 0.8803 0.8746 0.8397 0.8255 0.8542 0.8504
1996.492 0.8362 0.8272 0.7922 0.7749 0.8009 0.8308 0.8074 0.7786 0.7718 0.8019
2015.782 0.8579 0.8911 0.8936 0.9412 0.9889 0.9334 0.8987 0.8581 0.8386 0.8311
2035.072 0.8234 0.8551 0.8457 0.8269 0.8384 0.8334 0.8426 0.835 0.8007 0.8109
2054.362 0.8015 0.7943 0.8495 0.8589 0.8498 0.8516 0.8472 0.8647 0.805 0.7324
2073.651 0.7414 0.7572 0.7324 0.689 0.6697 0.638 0.6155 0.6523 0.679 0.6901
2092.941 0.6835 0.6258 0.5778 0.5469 0.5135 0.5663 0.5708 0.5595 0.5884 0.5512
2112.231 0.5554 0.6131 0.6513 0.6437 0.5605 0.4988 0.5204 0.5373 0.5192 0.4996
2131.521 0.4798 0.4649 0.4772 0.4542 0.4425 0.474 0.4661 0.453 0.4827 0.5278
2150.810 0.5025 0.4477 0.4496 0.4261 0.4247 0.482 0.4488 0.4369 0.4982 0.466
2170.100 0.4061 0.3931 0.3975 0.4626 0.5157 0.504 0.4488 0.3867 0.407 0.4411
2189.390 0.371 0.3589 0.3913 0.422 0.4346 0.373 0.4072 0.4239 0.4071 0.4349
2208.680 0.4254 0.4292 0.4765 0.4436 0.4325 0.4599 0.4516 0.4459 0.4384 0.4835
2227.970 0.5015 0.4484 0.4145 0.4391 0.3882 0.33732 0.4717 0.4994 0.4247 0.4471
2247.259 0.4313 0.4145 0.4476 0.4204 0.424 0.4583 0.4439 0.3938 0.3911 0.4709
2266.549 0.4412 0.3844 0.3873 0.4145 0.4156 0.3749 0.3819 0.3944 0.4005 0.4163
2285.839 0.3993 0.4375 0.4506 0.3841 0.3768 0.3964 0.3886 0.4045 0.4181 0.4527
2305.129 0.4858 0.4767 0.4661 0.4311 0.4451 0.3931 0.33061 0.3892 0.414 0.3941
2324.418 0.4487 0.4908 0.4608 0.4613 0.5389 0.5552 0.4753 0.42 0.5107 0.5341
2343.708 0.4018 0.4185 0.4598 0.4085 0.4086 0.4575 0.4779 0.5133 0.5065 0.5369
2362.998 0.5543 0.4746 0.427 0.4603 0.4575 0.4479 0.4741 0.4382 0.4613 0.4797
2382.288 0.4637 0.4047 0.3604 0.35204 0.35061 0.34101 0.33255 0.33307 0.32752 0.33349
2401.578 0.31985 0.33719 0.32323 0.34511 0.3612 0.3542 0.4295 0.4167 0.34691 0.31205
2420.867 0.33985 0.3966 0.4025 0.4158 0.3781 0.3865 0.4176 0.4421 0.4137 0.4114
2440.157 0.4199 0.4012 0.4095 0.4241 0.3954 0.3834 0.4411 0.423 0.3614 0.3976
2459.447 0.442 0.34044 0.3671 0.35408 0.33596 0.438 0.4682 0.4728 0.4504 0.3678
2478.737 0.33308 0.3594 0.35711 0.3887 0.31912 0.29929 0.4062 0.4047 0.4152 0.3826
2498.026 0.30205 0.33448 0.398 0.35226 0.30763 0.3809 0.417 0.4034 0.3794 0.35647
2517.316 0.33553 0.30298 0.27931 0.33477 0.4054 0.3603 0.3786 0.3988 0.4204 0.3973
2536.606 0.34582 0.4007 0.3988 0.3653 0.35646 0.3675 0.35502 0.378 0.34842 0.26963
2555.896 0.261265 0.30256 0.35073 0.33899 0.30785 0.26958 0.28605 0.30785 0.3103 0.31857
2575.186 0.35273 0.4258 0.3656 0.27856 0.34468 0.3633 0.38 0.4039 0.29965 0.3116
2594.475 0.3704 0.33692 0.27329 0.30199 0.33032 0.33454 0.32949 0.29103 0.29953 0.27869
2613.765 0.32325 0.3943 0.3739 0.34859 0.34273 0.28953 0.2245 0.2114 0.2253 0.30884
2633.055 0.3068 0.2192 0.27189 0.32419 0.32432 0.27802 0.26907 0.257802 0.2144 0.2374
2652.345 0.30156 0.32422 0.33288 0.3836 0.438 0.4245 0.3809 0.4009 0.4606 0.4567
2671.634 0.4258 0.3874 0.34778 0.4228 0.3814 0.34288 0.3592 0.3626 0.30419 0.2406
2690.924 0.32914 0.438 0.4083 0.32106 0.28095 0.2756 0.31807 0.27195 0.33691 0.4924
2710.214 0.436 0.28536 0.31796 0.3677 0.33835 0.358 0.4159 0.489 0.5025 0.4525
2729.504 0.4189 0.371 0.33153 0.30104 0.28673 0.28613 0.3992 0.4509 0.34747 0.30723
2748.794 0.3781 0.4765 0.391 0.30245 0.31341 0.29128 0.31215 0.31574 0.28324 0.28401
2768.083 0.266596 0.28632 0.31746 0.29598 0.31461 0.3865 0.3877 0.3645 0.34645 0.35053
2787.373 0.28539 0.1835 0.2251 0.28655 0.32273 0.402 0.3889 0.3638 0.398 0.3616
2806.663 0.33153 0.3632 0.4435 0.4743 0.4601 0.4646 0.5374 0.5281 0.4632 0.4229
2825.953 0.4289 0.495 0.492 0.5552 0.5571 0.5339 0.5596 0.6383 0.6284 0.5341
2845.242 0.5717 0.6183 0.5863 0.4917 0.5612 0.7191 0.6787 0.5713 0.5564 0.6396
2864.532 0.7144 0.758 0.8415 0.9036 0.8548 0.9245 1.0778 1.0458 1.1061 1.2106
2883.822 1.2161 1.2446 1.308 1.338 1.268 1.268 1.358 1.328 1.318 1.368
2903.112 1.318 1.298 1.2398 1.2554 1.298 1.298 1.348 1.318 1.298 1.328
2922.401 1.398 1.568 1.698 1.828 1.828 1.888 2.158 2.268 2.388 2.518
2941.691 2.638 2.798 2.878 2.898 2.878 2.878 2.938 2.928 2.788 2.798
2960.981 3.018 3.128 3.318 3.628 3.968 4.238 4.358 4.488 4.708 4.818
2980.271 4.798 4.848 4.878 4.758 4.538 4.378 4.218 3.988 3.778 3.528
2999.561 3.138 2.838 2.718 2.478 2.178 2.078 1.978 1.848 1.798 1.688
3018.850 1.668 1.668 1.658 1.688 1.678 1.708 1.728 1.828 1.888 1.868
3038.140 1.938 1.998 1.968 2.048 2.018 1.778 1.618 1.538 1.418 1.2557
3057.430 1.0312 0.8893 0.8669 0.8864 0.9193 0.7305 0.5262 0.6964 0.8764 0.8385
3076.720 0.6992 0.7497 0.8194 0.7302 0.733 0.7958 0.8263 0.8106 0.7537 0.7331
3096.009 0.8577 0.9255 0.8969 0.9429 1.1249 1.298 1.448 1.578 1.568 1.518
3115.299 1.528 1.448 1.2212 1.0116 0.8092 0.6293 0.6176 0.5374 0.4425 0.5137
3134.589 0.4972 0.4215 0.34233 0.25433 0.275 0.3584 0.3708 0.30507 0.31791 0.4384
3153.879 0.534 0.3637 0.27186 0.3829 0.31532 0.3676 0.46 0.31176 0.29143 0.3512
3173.169 0.31965 0.3987 0.4086 0.29453 0.28955 0.262865 0.31073 0.35647 0.30575 0.26973
3192.458 0.25079 0.3698 0.3712 0.30014 0.27196 0.32276 0.33867 0.260924 0.1689 0.191
3211.748 0.29736 0.30821 0.4454 0.4492 0.34911 0.33097 0.3921 0.3906 0.30755 0.28861
3231.038 0.32945 0.33229 0.32064 0.34431 0.33259 0.3719 0.3723 0.4399 0.4291 0.1991
3250.328 0.258486 0.3861 0.25064 0.155 0.1804 0.2373 0.31037 0.31226 0.3687 0.442
3269.617 0.2731 0.2361 0.344 0.2226 0.1617 0.30626 0.34381 0.31105 0.45 0.4849
3288.907 0.33417 0.2366 0.1703 0.2129 0.26923 0.29017 0.33163 0.28026 0.125 0.2416
3308.197 0.4682 0.34793 0.2228 0.2308 0.27376 0.2526 0.28084 0.30748 0.2228 0.31572
3327.487 0.3865 0.34488 0.34694 0.35235 0.3667 0.4739 0.3991 0.27537 0.2172 0.25031
3346.777 0.27171 0.2035 0.1649 0.2092 0.34117 0.4543 0.5521 0.4133 0.25218 0.30837
3366.066 0.4885 0.5019 0.4075 0.4173 0.4217 0.3226 0.2419 0.27019 0.33325 0.417
3385.356 0.27644 0.2108 0.4075 0.4156 0.31407 0.2173 0.25098 0.34559 0.4236 0.394
3404.646 0.27902 0.3326 0.3997 0.4458 0.4364 0.35764 0.31105 0.35447 0.3744 0.34239
3423.936 0.4305 0.5437 0.4837 0.4454 0.4337 0.33818 0.3571 0.3998 0.4504 0.4701
3443.225 0.3743 0.31355 0.30486 0.4393 0.5874 0.6101 0.6355 0.59 0.6387 0.6951
3462.515 0.6884 0.714 0.6678 0.7091 0.8582 0.9444 0.9104 0.8502 0.8787 0.908
3481.805 0.9294 0.877 0.7763 0.8613 0.9369 0.979 0.8731 0.787 0.8774 0.8448
3501.095 0.7385 0.7124 0.6167 0.507 0.5896 0.6361 0.4683 0.3781 0.52 0.5081
3520.385 0.4135 0.5035 0.492 0.4029 0.4997 0.3675 0.15 0.265675 0.3786 0.33249
3539.674 0.29273 0.29193 0.29356 0.27722 0.3759 0.5032 0.4112 0.27665 0.24966 0.3951
3558.964 0.4755 0.3734 0.2978 0.3722 0.3847 0.28086 0.31872 0.3668 0.3611 0.374
3578.254 0.4233 0.5066 0.4566 0.34259 0.3758 0.33462 0.30888 0.4568 0.4516 0.4427
3597.544 0.4663 0.4367 0.4338 0.4095 0.374 0.33051 0.35647 0.263106 0.2389 0.35562
3616.833 0.4098 0.4363 0.4187 0.3683 0.31536 0.33363 0.2408 0.2171 0.34545 0.30197
3636.123 0.31607 0.3914 0.4273 0.4135 0.3948 0.3224 0.3652 0.4959 0.3833 0.25549
3655.413 0.143 0.134 0.126 0.1871 0.3793 0.4704 0.392 0.2284 0.2086 0.25201
3674.703 0.30891 0.32731 0.3681 0.4259 0.4494 0.3965 0.35636 0.4222 0.34455 0.3419
3693.993 0.4405 0.4365 0.2408 0 0.046 0.1781 0.262276 0.3693 0.32683 0.30549
3713.282 0.27868 0.2081 0.1934 0.24864 0.32147 0.2171 0.125 0.1829 0.3798 0.4804
3732.572 0.4304 0.4028 0.4156 0.3299 0.30512 0.35253 0.28331 0.31133 0.3827 0.4144
3751.862 0.4259 0.3691 0.29981 0.33988 0.3744 0.3603 0.3762 0.35094 0.3114 0.30271
3771.152 0.260328 0.31303 0.4137 0.5085 0.5204 0.4729 0.4549 0.3795 0.3705 0.3911
3790.441 0.4077 0.4895 0.4854 0.30128 0.2115 0.2319 0.3645 0.3674 0.2205 0.32357
3809.731 0.35124 0.31411 0.28991 0.30007 0.3678 0.4272 0.3723 0.260751 0.31933 0.29487
3829.021 0.2467 0.3663 0.508 0.4345 0.32408 0.25052 0.33984 0.4894 0.4356 0.4658
3848.311 0.33053 0.082 0.1764 0.4076 0.3768 0.2967 0.32348 0.2221 0.2282 0.28062
3867.601 0.29805 0.3647 0.4465 0.4609 0.42 0.35439 0.3763 0.4786 0.4463 0.35506
3886.890 0.2439 0.213 0.35106 0.31442 0.1982 0.33973 0.4268 0.452 0.4163 0.30305
3906.180 0.4683 0.5673 0.4479 0.29462 0.2259 0.1745 0.2444 0.32997 0.30009 0.4307
3925.470 0.5368 0.4473 0.33862 0.29494 0.2177 0.25423 0.34855 0.4274 0.3662 0.31056
3944.760 0.3614 0.33071 0.35392 0.3754 0.3522 0.4103 0.27086 0.181 0.35645 0.4274
3964.049 0.31817 0.2045 0.219 0.31046 0.31989 0.244 0.24818 0.264633 0.35401 0.4422
3983.339 0.4311 0.3614 0.27649 0.30295 0.3708 0.3853 0.3201 0.28862 0.32915 0.4544
##END=
