##TITLE=(4-Chlorobutyl)benzene
##JCAMP-DX=4.24
##DATA TYPE=INFRARED SPECTRUM
##ORIGIN=NIST Mass Spectrometry Data Center
##OWNER=NIST Standard Reference Data Program
Collection (C) 2018 copyright by the U.S. Secretary of Commerce
on behalf of the United States of America. All rights reserved.
##CAS REGISTRY NO=4830-93-7
##MOLFORM=C 10 H 13 Cl
##$NIST SOURCE=MSDC-IR
##SPECTROMETER/DATA SYSTEM=HP-GC/MS/IRD
##STATE=gas
##XUNITS=1/CM
##YUNITS=ABSORBANCE
##XFACTOR=1.0
##YFACTOR=0.000001600
##DELTAX=4.0
##FIRSTX=550.0
##LASTX=3846.0
##FIRSTY=0.001456
##MAXX=3846
##MINX=550
##MAXY=0.016
##MINY=0
##NPOINTS=825
##XYDATA=(X++(Y..Y))
550.0 910 473 256 389 443 455 388 359 298 222
590.0 144 91 45 5 29 81 110 113 153 216
630.0 250 350 480 675 968 1308 1698 2084 2293 2319
670.0 2279 2288 2490 3009 3886 5119 6294 6828 6534 5666
710.0 4774 4269 4160 4403 5023 5856 6654 7163 7174 6680
750.0 5923 5059 4060 3032 2232 1677 1290 1049 851 708
790.0 626 603 668 707 732 729 707 619 534 492
830.0 428 389 368 334 264 228 219 207 208 235
870.0 260 268 277 302 314 310 365 435 485 511
910.0 496 408 318 267 236 193 203 178 137 133
950.0 113 104 123 167 199 242 280 294 325 320
990.0 282 268 275 304 325 339 406 506 702 965
1030.0 1072 973 739 540 482 496 526 530 543 580
1070.0 620 623 563 495 415 321 243 182 131 110
1110.0 110 84 68 59 59 73 71 61 79 99
1150.0 96 95 74 80 100 113 120 120 140 179
1190.0 205 228 248 242 214 191 193 213 237 264
1230.0 313 352 424 520 604 705 839 965 1088 1222
1270.0 1391 1601 1760 1862 1932 1998 2087 2203 2298 2318
1310.0 2244 2096 1898 1670 1459 1277 1130 1055 1013 956
1350.0 936 896 814 752 652 546 467 393 339 292
1390.0 256 246 250 267 296 319 375 483 592 754
1430.0 1009 1336 1770 2332 2941 3352 3470 3190 2635 2109
1470.0 1705 1400 1224 1273 1638 2323 2924 2976 2459 1623
1510.0 901 568 449 401 358 331 321 332 319 268
1550.0 247 282 337 312 311 375 452 542 640 782
1590.0 959 1188 1422 1539 1438 1142 773 463 293 212
1630.0 168 172 151 143 154 172 161 79 53 60
1670.0 63 52 41 71 73 38 77 115 98 72
1710.0 59 80 94 75 84 123 154 158 152 138
1750.0 127 104 82 83 102 127 138 152 211 303
1790.0 397 439 399 313 229 169 130 116 103 88
1830.0 79 84 89 111 134 158 189 220 247 259
1870.0 277 288 259 216 180 139 109 91 76 77
1910.0 88 112 153 207 249 290 344 380 396 401
1950.0 385 337 257 165 100 69 51 41 34 32
1990.0 29 15 7 11 12 22 35 45 38 34
2030.0 35 27 33 41 33 16 20 32 38 36
2070.0 27 24 18 28 34 30 35 32 25 28
2110.0 28 20 29 39 24 5 20 44 47 44
2150.0 33 31 35 31 33 44 47 45 49 40
2190.0 36 40 43 38 32 24 14 26 38 30
2230.0 40 42 30 37 37 31 42 51 40 33
2270.0 45 52 44 46 46 41 44 49 64 72
2310.0 78 93 95 76 61 63 70 62 50 57
2350.0 64 66 66 41 29 41 42 41 34 36
2390.0 40 30 27 36 44 38 27 23 18 28
2430.0 41 29 27 37 30 19 20 25 21 18
2470.0 30 31 40 36 27 30 24 24 25 33
2510.0 49 45 34 40 45 41 29 16 5 18
2550.0 31 24 12 21 31 45 57 40 32 45
2590.0 55 55 64 78 88 90 87 76 75 68
2630.0 72 90 95 106 109 111 109 93 93 108
2670.0 123 116 103 127 130 117 118 104 108 115
2710.0 116 111 105 101 91 96 108 117 124 125
2750.0 119 102 99 110 120 149 187 193 207 245
2790.0 274 284 269 282 319 354 392 441 503 593
2830.0 706 833 1026 1300 1650 2093 2588 3087 3528 3804
2870.0 3937 3878 3636 3354 3117 2968 2974 3132 3395 3745
2910.0 4227 4855 5595 6457 7303 8072 8806 9445 9897 10000
2950.0 9681 9061 8268 7381 6433 5371 4301 3465 2940 2737
2990.0 2848 3148 3371 3345 3103 2901 2944 3320 4031 4933
3030.0 5685 5872 5395 4467 3528 2997 2917 3201 3875 4716
3070.0 5196 5098 4449 3668 3122 2724 2370 2036 1716 1439
3110.0 1188 957 725 532 386 279 214 170 156 144
3150.0 125 122 126 131 143 139 120 103 56 31
3190.0 47 71 83 55 52 70 51 35 25 5
3230.0 19 38 33 21 20 31 53 62 40 34
3270.0 30 26 47 48 27 31 42 37 23 32
3310.0 67 37 15 21 0 11 27 57 52 29
3350.0 50 67 60 53 27 26 38 32 48 45
3390.0 10 20 49 48 56 47 28 44 34 33
3430.0 66 46 35 44 37 37 49 46 58 58
3470.0 70 77 70 53 48 66 49 38 47 57
3510.0 64 75 72 64 63 67 68 80 113 104
3550.0 82 69 81 79 92 94 62 52 76 115
3590.0 108 74 66 76 122 141 129 145 144 138
3630.0 124 112 136 138 149 162 159 153 139 157
3670.0 180 163 119 93 138 164 124 129 134 124
3710.0 172 186 160 152 145 130 166 161 141 187
3750.0 197 150 109 124 148 132 102 120 132 109
3790.0 100 116 137 155 179 188 182 172 164 142
3830.0 133 169 183 173 159
##END=
