##TITLE=Bicyclo[4.4.0]-2-decanone
##JCAMP-DX=4.24
##DATA TYPE=INFRARED SPECTRUM
##ORIGIN=NIST Mass Spectrometry Data Center
##OWNER=NIST Standard Reference Data Program
Collection (C) 2018 copyright by the U.S. Secretary of Commerce
on behalf of the United States of America. All rights reserved.
##CAS REGISTRY NO=4832-16-0
##MOLFORM=C 10 H 16 O
##$NIST SOURCE=MSDC-IR
##SPECTROMETER/DATA SYSTEM=HP-GC/MS/IRD
##STATE=gas
##XUNITS=1/CM
##YUNITS=ABSORBANCE
##XFACTOR=1.0
##YFACTOR=0.000003100
##DELTAX=4.0
##FIRSTX=550.0
##LASTX=3846.0
##FIRSTY=0.000409
##MAXX=3846
##MINX=550
##MAXY=0.031
##MINY=0
##NPOINTS=825
##XYDATA=(X++(Y..Y))
550.0 132 58 17 26 17 17 38 80 78 85
590.0 98 104 84 68 43 24 3 5 28 26
630.0 16 1 1 10 24 30 25 21 18 22
670.0 23 34 39 24 32 45 23 6 11 3
710.0 2 34 56 47 45 48 47 48 67 85
750.0 77 77 81 77 93 109 87 74 75 72
790.0 84 74 65 68 71 75 84 118 146 147
830.0 153 166 169 162 152 132 90 72 70 53
870.0 49 56 49 51 64 61 68 81 85 101
910.0 112 109 106 92 72 63 60 84 109 123
950.0 135 150 170 181 189 195 199 190 170 151
990.0 133 120 115 110 107 111 121 135 133 120
1030.0 136 160 177 199 208 210 216 219 220 231
1070.0 219 186 159 144 156 185 219 246 264 271
1110.0 286 299 273 239 209 189 175 171 199 249
1150.0 318 391 430 441 408 368 343 346 382 430
1190.0 493 535 534 511 474 465 467 474 495 501
1230.0 490 468 450 445 454 458 448 445 425 375
1270.0 313 264 216 179 163 161 181 211 250 288
1310.0 316 337 345 364 397 425 451 457 425 370
1350.0 308 241 215 223 235 235 221 194 155 128
1390.0 116 117 129 159 209 283 384 499 609 691
1430.0 751 796 813 840 891 969 1019 981 896 773
1470.0 626 467 326 227 159 112 79 63 53 35
1510.0 32 40 35 30 37 40 37 26 21 35
1550.0 43 34 20 31 45 40 32 38 50 48
1590.0 45 46 46 54 65 58 48 50 58 68
1630.0 79 79 84 95 107 121 141 178 206 224
1670.0 247 275 323 374 427 511 602 723 914 1217
1710.0 1692 2409 3387 4502 5509 6144 6182 5592 4545 3324
1750.0 2227 1458 980 683 505 393 318 276 249 227
1790.0 210 207 207 209 204 184 160 133 112 96
1830.0 79 69 66 59 54 55 59 61 60 56
1870.0 48 49 47 38 33 34 34 30 28 27
1910.0 22 22 27 21 22 25 23 26 26 26
1950.0 26 21 17 17 16 16 19 15 15 14
1990.0 10 11 11 16 20 17 22 24 19 18
2030.0 17 16 22 23 19 16 18 15 11 12
2070.0 14 18 16 16 17 17 14 12 16 19
2110.0 19 16 13 12 16 19 16 12 13 21
2150.0 21 15 15 16 19 24 25 18 10 10
2190.0 9 10 14 10 10 11 13 14 12 7
2230.0 7 12 11 9 8 10 10 9 5 2
2270.0 9 10 7 8 7 3 4 8 5 3
2310.0 6 8 10 10 6 0 0 0 0 0
2350.0 0 2 0 0 0 0 2 3 2 2
2390.0 2 0 0 4 13 9 5 10 10 6
2430.0 10 4 5 15 8 7 11 14 16 19
2470.0 20 15 17 16 12 10 15 14 8 12
2510.0 15 18 22 20 18 16 17 24 21 18
2550.0 18 17 22 30 31 26 25 29 33 40
2590.0 45 41 44 49 52 49 46 54 58 65
2630.0 72 79 86 91 98 106 125 137 139 139
2670.0 142 145 131 119 109 98 92 89 80 79
2710.0 81 78 82 82 78 81 82 79 80 75
2750.0 74 82 86 90 92 92 99 109 118 123
2790.0 125 134 141 153 161 171 198 233 273 317
2830.0 371 436 518 642 866 1254 1828 2497 3104 3577
2870.0 3857 3865 3685 3443 3154 2832 2590 2518 2612 2846
2910.0 3254 3895 4859 6236 7867 9238 10000 9896 8778 7045
2950.0 5348 3988 2970 2342 1951 1632 1329 1023 728 488
2990.0 340 253 205 173 145 132 117 110 110 99
3030.0 89 92 93 88 77 79 86 75 67 68
3070.0 61 47 50 43 35 48 63 53 47 57
3110.0 65 49 40 35 31 31 34 44 39 31
3150.0 33 33 32 33 30 35 37 23 9 25
3190.0 24 17 29 30 36 28 21 31 35 30
3230.0 28 30 31 26 23 17 19 24 23 24
3270.0 18 21 31 31 24 20 13 11 15 15
3310.0 6 2 22 34 29 22 23 20 23 36
3350.0 44 38 30 32 27 26 34 39 40 36
3390.0 30 26 32 29 29 35 45 51 56 71
3430.0 76 85 95 98 98 96 98 95 83 68
3470.0 54 58 57 39 39 49 46 29 25 31
3510.0 27 26 23 27 26 22 19 18 11 10
3550.0 28 15 1 6 6 5 7 14 8 7
3590.0 19 24 19 21 25 28 32 25 22 20
3630.0 1 6 14 12 5 5 16 13 20 28
3670.0 23 7 9 18 15 15 26 29 28 26
3710.0 25 33 27 23 29 22 17 16 5 0
3750.0 7 28 38 34 24 19 27 24 25 33
3790.0 49 45 19 13 24 22 16 25 34 42
3830.0 33 25 27 22 32
##END=
