##TITLE=2,3,4,5,6-Pentamethylbenzyl alcohol
##JCAMP-DX=4.24
##DATA TYPE=INFRARED SPECTRUM
##ORIGIN=EPA-IR VAPOR PHASE LIBRARY
##OWNER=SRD/NIST
Collection (C) 2018 copyright by the U.S. Secretary of Commerce
on behalf of the United States of America. All rights reserved.
##CAS REGISTRY NO=484-66-2
##MOLFORM=C 12 H 18 O
##$NIST SOURCE=MSDC-IR
##STATE=gas
##XUNITS=1/CM
##YUNITS=ABSORBANCE
##XFACTOR=1.
##YFACTOR=0.001
##DELTAX=1.92934
##FIRSTX=549.9
##LASTX=3999.5
##FIRSTY=1.0858
##MAXX=3999.53
##MINX=549.863
##MAXY=0.039556
##MINY=0
##NPOINTS=1789
##XYDATA=(X++(Y..Y))
549.863 1.0858 1.0805 1.1612 1.2071 1.0796 0.9091 0.8117 0.7847 0.5164 0.394
569.156 0.64613 0.704 0.5298 0.4991 0.63808 0.62631 0.5689 0.565 0.5345 0.5063
588.450 0.478 0.488 0.397 0.314 0.32 0.324 0.323 0.315 0.42 0.387
607.743 0.364 0.439 0.41 0.399 0.494 0.493 0.5333 0.64872 0.60811 0.64126
627.037 0.6991 0.63859 0.65386 0.68916 0.69063 0.793 0.934 1.0481 1.1817 1.3578
646.330 1.5235 1.716 1.906 1.946 1.896 1.836 1.796 1.626 1.3551 1.2046
665.624 1.0097 0.8813 0.7903 0.7349 0.7077 0.67524 0.7075 0.66389 0.65051 0.61726
684.917 0.5698 0.5644 0.467 0.453 0.5722 0.5482 0.489 0.482 0.5036 0.5311
704.210 0.432 0.409 0.461 0.484 0.486 0.5112 0.448 0.338 0.405 0.464
723.504 0.5359 0.63732 0.65288 0.566 0.5446 0.604031 0.59459 0.5515 0.5553 0.61149
742.797 0.68044 0.7232 0.7169 0.6952 0.66673 0.66896 0.68592 0.7231 0.768 0.7547
762.091 0.7395 0.7672 0.8042 0.8451 0.8971 0.9498 1.0321 1.0818 1.1846 1.3414
781.384 1.4826 1.756 2.106 2.446 2.866 3.316 3.716 4.126 4.486 4.636
800.678 4.586 4.386 4.106 3.726 3.246 2.696 2.226 1.906 1.676 1.4978
819.971 1.3739 1.2981 1.2106 1.0635 1.0133 1.0894 0.9926 0.9388 0.9956 0.9906
839.264 0.9302 0.8511 0.8833 0.9403 0.9184 0.907 0.9109 0.9588 1.0223 0.9631
858.558 0.9182 1.0011 1.1277 1.1316 1.0638 1.0507 1.0637 1.0568 1.0695 1.1003
877.851 1.0916 1.1094 1.1424 1.1413 1.1803 1.2141 1.2176 1.2713 1.3047 1.3035
897.145 1.3481 1.4038 1.4235 1.492 1.596 1.696 1.746 1.816 1.906 1.986
916.438 2.026 2.076 2.146 2.236 2.386 2.466 2.606 2.716 2.786 2.896
935.732 3.056 3.276 3.496 3.806 4.176 4.566 5.066 5.696 6.416 7.216
955.025 7.996 8.776 9.616 10.456 11.306 12.156 13.006 13.876 14.906 16.086
974.318 17.406 18.896 20.516 22.226 23.876 25.386 26.676 27.546 27.926 27.826
993.612 27.196 26.026 24.446 22.716 20.896 18.936 17.056 15.326 13.746 12.446
1012.905 11.346 10.406 9.656 9.036 8.566 8.246 7.916 7.666 7.466 7.256
1032.199 7.156 6.996 6.836 6.676 6.556 6.536 6.546 6.556 6.586 6.676
1051.492 6.806 7.036 7.326 7.676 8.126 8.646 9.136 9.586 9.866 9.986
1070.786 9.956 9.666 9.136 8.456 7.666 6.786 6.006 5.336 4.656 4.086
1090.079 3.716 3.406 3.196 3.056 2.916 2.766 2.636 2.546 2.446 2.366
1109.372 2.306 2.196 2.226 2.176 2.036 2.056 2.036 1.986 2.006 2.046
1128.666 2.096 2.096 2.076 1.996 2.016 2.006 2.026 2.136 2.046 2.036
1147.959 2.156 2.186 2.146 2.096 2.106 2.196 2.246 2.226 2.196 2.216
1167.253 2.356 2.426 2.426 2.526 2.586 2.526 2.566 2.706 2.796 2.856
1186.546 2.946 3.026 3.066 3.136 3.236 3.336 3.456 3.636 3.676 3.696
1205.840 3.826 3.976 4.196 4.306 4.276 4.106 4.116 4.176 4.166 4.286
1225.133 4.296 4.366 4.486 4.626 4.756 4.836 4.936 5.096 5.306 5.296
1244.426 5.216 5.236 5.186 5.126 4.986 4.796 4.696 4.546 4.496 4.476
1263.720 4.426 4.456 4.426 4.496 4.536 4.516 4.656 4.806 5.016 5.166
1283.013 5.196 5.236 5.336 5.366 5.306 5.186 4.946 4.686 4.416 4.096
1302.307 3.776 3.546 3.336 3.186 3.096 3.026 3.026 2.976 2.906 2.936
1321.600 2.956 2.926 2.936 2.986 3.006 3.006 3.066 3.176 3.236 3.326
1340.894 3.466 3.546 3.706 3.916 4.166 4.456 4.756 5.096 5.436 5.866
1360.187 6.376 6.906 7.406 7.916 8.586 9.206 9.816 10.506 11.136 11.716
1379.480 12.236 12.686 13.006 13.206 13.316 13.316 13.186 12.976 12.736 12.386
1398.774 11.906 11.466 11.106 10.706 10.306 10.016 9.766 9.606 9.546 9.496
1418.067 9.526 9.586 9.616 9.626 9.576 9.506 9.446 9.396 9.286 9.096
1437.361 8.956 8.846 8.726 8.596 8.486 8.416 8.326 8.266 8.176 8.096
1456.654 8.016 7.906 7.836 7.756 7.596 7.406 7.296 7.196 7.066 6.936
1475.948 6.826 6.736 6.636 6.576 6.546 6.536 6.556 6.556 6.576 6.596
1495.241 6.606 6.616 6.586 6.486 6.396 6.306 6.136 5.886 5.616 5.386
1514.534 5.156 4.936 4.726 4.556 4.326 4.106 3.966 3.846 3.736 3.656
1533.828 3.586 3.486 3.416 3.326 3.256 3.246 3.216 3.176 3.176 3.166
1553.121 3.186 3.206 3.226 3.286 3.276 3.216 3.246 3.276 3.226 3.186
1572.415 3.136 3.046 2.956 2.806 2.726 2.656 2.556 2.476 2.366 2.246
1591.708 2.116 2.036 1.956 1.896 1.846 1.806 1.786 1.726 1.686 1.656
1611.002 1.636 1.616 1.5611 1.5377 1.4421 1.3814 1.4177 1.403 1.3703 1.339
1630.295 1.268 1.1931 1.1747 1.1603 1.1503 1.1429 1.0529 1.0306 1.0466 0.9586
1649.588 0.9321 0.9625 0.9358 0.8702 0.8393 0.8047 0.7296 0.7404 0.7982 0.7678
1668.882 0.7361 0.7181 0.68135 0.64923 0.63187 0.62695 0.62874 0.601773 0.60767 0.63232
1688.175 0.601228 0.5717 0.5576 0.62862 0.68329 0.63974 0.62867 0.61551 0.5782 0.5531
1707.469 0.5662 0.571 0.542 0.493 0.464 0.46 0.447 0.419 0.393 0.431
1726.762 0.471 0.471 0.471 0.454 0.428 0.388 0.4 0.456 0.448 0.397
1746.056 0.399 0.437 0.421 0.402 0.412 0.417 0.398 0.39 0.44 0.469
1765.349 0.436 0.413 0.428 0.447 0.43 0.388 0.393 0.467 0.435 0.369
1784.642 0.39 0.43 0.425 0.383 0.366 0.361 0.372 0.364 0.343 0.322
1803.936 0.331 0.343 0.323 0.32 0.313 0.299 0.278 0.285 0.291 0.256
1823.229 0.292 0.346 0.298 0.246 0.259 0.276 0.266 0.284 0.328 0.331
1842.523 0.343 0.331 0.299 0.273 0.269 0.278 0.237 0.244 0.256 0.266
1861.816 0.301 0.308 0.298 0.31 0.308 0.276 0.282 0.28 0.262 0.261
1881.110 0.25 0.264 0.31 0.251 0.231 0.28 0.292 0.307 0.294 0.263
1900.403 0.311 0.323 0.283 0.358 0.384 0.325 0.335 0.35 0.297 0.267
1919.696 0.309 0.36 0.352 0.345 0.391 0.42 0.442 0.431 0.389 0.405
1938.990 0.433 0.439 0.443 0.484 0.474 0.459 0.4981 0.5161 0.5083 0.5124
1958.283 0.5257 0.5639 0.596425 0.577 0.5321 0.5081 0.5206 0.495 0.477 0.456
1977.577 0.447 0.5009 0.485 0.459 0.4967 0.465 0.431 0.43 0.384 0.373
1996.870 0.392 0.384 0.382 0.396 0.369 0.345 0.371 0.349 0.366 0.363
2016.164 0.32 0.347 0.363 0.362 0.357 0.335 0.355 0.398 0.413 0.401
2035.457 0.403 0.411 0.411 0.423 0.376 0.346 0.371 0.386 0.402 0.413
2054.750 0.387 0.369 0.361 0.356 0.364 0.36 0.38 0.379 0.364 0.329
2074.044 0.325 0.354 0.365 0.354 0.342 0.333 0.321 0.35 0.376 0.363
2093.337 0.341 0.36 0.351 0.389 0.433 0.386 0.373 0.365 0.372 0.354
2112.631 0.323 0.346 0.316 0.306 0.352 0.353 0.345 0.346 0.349 0.346
2131.924 0.33 0.351 0.363 0.37 0.37 0.323 0.321 0.355 0.345 0.34
2151.218 0.36 0.372 0.369 0.374 0.406 0.401 0.379 0.402 0.41 0.379
2170.511 0.377 0.386 0.381 0.363 0.342 0.369 0.387 0.367 0.372 0.407
2189.804 0.419 0.407 0.413 0.379 0.368 0.386 0.373 0.399 0.417 0.373
2209.098 0.354 0.302 0.306 0.364 0.357 0.356 0.356 0.376 0.38 0.365
2228.391 0.378 0.366 0.322 0.347 0.366 0.358 0.374 0.388 0.413 0.384
2247.685 0.337 0.333 0.325 0.298 0.336 0.405 0.375 0.355 0.366 0.354
2266.978 0.336 0.329 0.344 0.353 0.325 0.347 0.376 0.376 0.384 0.339
2286.272 0.324 0.346 0.371 0.392 0.381 0.385 0.402 0.391 0.366 0.346
2305.565 0.371 0.409 0.43 0.431 0.444 0.427 0.392 0.38 0.403 0.449
2324.858 0.449 0.441 0.461 0.482 0.469 0.477 0.462 0.492 0.5669 0.5477
2344.152 0.5064 0.485 0.482 0.5359 0.5694 0.5365 0.5202 0.5586 0.59077 0.59141
2363.445 0.60619 0.61152 0.5724 0.5222 0.5177 0.5229 0.5043 0.5421 0.5626 0.5803
2382.739 0.5432 0.4986 0.574 0.59106 0.5692 0.5799 0.5574 0.5761 0.64099 0.62319
2402.032 0.5781 0.5504 0.5548 0.5842 0.61035 0.5738 0.541 0.553 0.5562 0.58926
2421.326 0.5848 0.5654 0.62131 0.68583 0.66719 0.66181 0.66288 0.63902 0.65592 0.65359
2440.619 0.62312 0.63125 0.61224 0.62107 0.66346 0.67159 0.66839 0.63042 0.62833 0.68314
2459.912 0.68046 0.63865 0.61132 0.59395 0.64272 0.64901 0.62573 0.67184 0.65677 0.62114
2479.206 0.68642 0.7233 0.7009 0.65849 0.61198 0.63046 0.64975 0.65887 0.64994 0.65644
2498.499 0.6759 0.701 0.6986 0.63286 0.60993 0.6149 0.63624 0.61106 0.5844 0.5693
2517.793 0.595447 0.64649 0.6416 0.63243 0.58804 0.555 0.5563 0.5456 0.528 0.5314
2537.086 0.5659 0.60517 0.62675 0.63899 0.58645 0.508 0.485 0.52 0.5288 0.5579
2556.380 0.58 0.5529 0.5693 0.60768 0.63519 0.62362 0.5591 0.5328 0.5464 0.539
2575.673 0.5166 0.5565 0.65436 0.64949 0.64271 0.66074 0.60756 0.59216 0.58803 0.5504
2594.966 0.59412 0.603217 0.5793 0.63093 0.706 0.67578 0.6199 0.64419 0.65129 0.65072
2614.260 0.69584 0.69355 0.63746 0.63621 0.64042 0.63569 0.68124 0.698 0.6516 0.62009
2633.553 0.58681 0.59325 0.59441 0.62323 0.68831 0.68582 0.62769 0.59313 0.63223 0.67684
2652.847 0.68201 0.65645 0.6998 0.7203 0.7169 0.7157 0.7149 0.7123 0.7162 0.7511
2672.140 0.7398 0.7754 0.7943 0.7603 0.8132 0.8221 0.8025 0.8134 0.825 0.8594
2691.434 0.8482 0.8105 0.7919 0.8325 0.8668 0.8928 0.9188 0.9606 0.9948 1.0687
2710.727 1.1449 1.1443 1.1367 1.1509 1.2531 1.3339 1.379 1.4286 1.5322 1.656
2730.020 1.726 1.836 1.936 2.016 2.086 2.156 2.156 2.186 2.136 1.966
2749.314 1.926 1.926 1.866 1.746 1.726 1.726 1.746 1.806 1.866 1.876
2768.607 1.896 1.986 1.996 1.966 1.996 2.026 2.046 2.056 2.036 2.116
2787.901 2.196 2.216 2.246 2.296 2.306 2.256 2.306 2.506 2.556 2.566
2807.194 2.646 2.716 2.816 2.896 3.056 3.226 3.346 3.436 3.656 3.826
2826.488 3.986 4.196 4.246 4.406 4.676 4.916 5.166 5.466 5.836 6.206
2845.781 6.596 7.136 7.696 8.266 8.816 9.466 10.276 11.156 12.116 13.176
2865.074 14.306 15.426 16.526 17.626 18.756 19.826 20.776 21.696 22.446 23.056
2884.368 23.616 24.046 24.386 24.696 24.886 25.066 25.226 25.396 25.656 25.916
2903.661 26.286 26.746 27.216 27.786 28.646 29.546 30.476 31.556 32.656 33.826
2922.955 34.956 36.076 37.106 37.976 38.756 39.316 39.556 39.546 39.396 39.056
2942.248 38.666 38.156 37.306 36.466 35.506 34.456 33.486 32.446 31.306 30.096
2961.542 28.896 27.726 26.606 25.496 24.456 23.536 22.696 21.896 21.206 20.556
2980.835 20.056 19.696 19.286 18.966 18.716 18.366 18.086 17.916 17.646 17.366
3000.128 17.206 17.006 16.726 16.566 16.576 16.536 16.326 16.106 15.946 15.726
3019.422 15.456 15.286 15.036 14.756 14.536 14.176 13.886 13.596 13.276 12.896
3038.715 12.476 12.156 11.786 11.416 11.066 10.706 10.336 9.896 9.436 9.216
3058.009 8.876 8.436 8.076 7.746 7.436 7.026 6.596 6.346 6.276 6.026
3077.302 5.626 5.236 4.966 4.796 4.576 4.276 4.046 4.026 3.906 3.736
3096.596 3.616 3.336 3.146 3.076 2.926 2.806 2.676 2.526 2.486 2.436
3115.889 2.296 2.236 2.186 2.166 2.056 1.876 1.796 1.726 1.746 1.5866
3135.182 1.4908 1.4346 1.3517 1.4228 1.2964 1.2277 1.2056 1.1006 1.1605 1.2157
3154.476 1.1213 1.0767 0.992 0.9327 0.9666 0.9365 0.9739 0.9435 0.8574 0.8304
3173.769 0.8308 0.7882 0.6741 0.5267 0.5425 0.59338 0.62746 0.7433 0.69269 0.5817
3193.063 0.5116 0.331 0.341 0.482 0.401 0.331 0.357 0.36 0.358 0.362
3212.356 0.426 0.42 0.463 0.4972 0.43 0.429 0.343 0.373 0.402 0.363
3231.650 0.383 0.351 0.293 0.219 0.208 0.212 0.239 0.302 0.276 0.127
3250.943 0.124 0.34 0.283 0.178 0.299 0.301 0.211 0.182 0.149 0.252
3270.236 0.208 0.13 0.231 0.189 0.172 0.26 0.337 0.261 0.127 0.104
3289.530 0.211 0.208 0.179 0.246 0.187 0.149 0.152 0.18 0.278 0.23
3308.823 0.108 0.148 0.069 0.087 0.165 0.093 0.151 0.051 0 0.165
3328.117 0.14 0.079 0.087 0.127 0.125 0.102 0.225 0.3 0.149 0.13
3347.410 0.264 0.23 0.205 0.17 0.15 0.176 0.193 0.228 0.282 0.272
3366.704 0.12 0.103 0.132 0.262 0.373 0.265 0.256 0.299 0.216 0.215
3385.997 0.25 0.204 0.147 0.146 0.2 0.107 0.043 0.043 0.242 0.27
3405.290 0.14 0.205 0.164 0.2 0.345 0.4 0.321 0.278 0.328 0.299
3424.584 0.291 0.389 0.359 0.325 0.318 0.426 0.453 0.276 0.244 0.192
3443.877 0.116 0.142 0.231 0.287 0.295 0.287 0.261 0.172 0.15 0.214
3463.171 0.251 0.239 0.185 0.238 0.247 0.273 0.351 0.23 0.196 0.258
3482.464 0.174 0.16 0.201 0.212 0.181 0.233 0.352 0.367 0.278 0.238
3501.758 0.244 0.139 0.136 0.26 0.329 0.372 0.395 0.234 0.231 0.331
3521.051 0.241 0.203 0.192 0.228 0.388 0.511 0.5209 0.411 0.286 0.233
3540.344 0.272 0.232 0.128 0.128 0.247 0.321 0.285 0.322 0.366 0.285
3559.638 0.248 0.265 0.205 0.194 0.176 0.156 0.172 0.224 0.391 0.411
3578.931 0.328 0.298 0.272 0.235 0.28 0.284 0.236 0.276 0.276 0.265
3598.225 0.19 0.203 0.3 0.361 0.365 0.312 0.321 0.386 0.413 0.429
3617.518 0.5461 0.5294 0.5128 0.600708 0.6643 0.7691 0.8916 1.049 1.3308 1.836
3636.812 2.486 3.086 3.566 4.186 4.956 5.876 6.716 6.676 5.666 4.676
3656.105 4.116 3.606 3.056 2.496 1.846 1.3408 1.0421 0.8571 0.7342 0.5612
3675.398 0.5793 0.5724 0.495 0.447 0.401 0.404 0.385 0.382 0.333 0.35
3694.692 0.344 0.305 0.341 0.383 0.376 0.336 0.356 0.294 0.261 0.435
3713.985 0.4973 0.411 0.423 0.414 0.381 0.359 0.268 0.233 0.328 0.379
3733.279 0.383 0.365 0.315 0.359 0.397 0.363 0.381 0.366 0.351 0.379
3752.572 0.355 0.252 0.266 0.372 0.32 0.274 0.35 0.369 0.426 0.379
3771.866 0.312 0.35 0.374 0.366 0.321 0.384 0.388 0.344 0.31 0.29
3791.159 0.32 0.346 0.431 0.425 0.474 0.5285 0.418 0.453 0.482 0.423
3810.452 0.38 0.404 0.408 0.378 0.425 0.383 0.387 0.475 0.458 0.377
3829.746 0.337 0.394 0.372 0.241 0.227 0.343 0.418 0.38 0.385 0.411
3849.039 0.393 0.479 0.58645 0.5659 0.5513 0.5065 0.463 0.5362 0.484 0.5157
3868.333 0.5427 0.496 0.5813 0.5051 0.403 0.479 0.5035 0.462 0.404 0.333
3887.626 0.376 0.494 0.495 0.5355 0.60928 0.5385 0.491 0.5273 0.439 0.339
3906.920 0.377 0.439 0.467 0.396 0.472 0.438 0.45 0.5523 0.5295 0.482
3926.213 0.481 0.4983 0.436 0.488 0.5065 0.423 0.446 0.47 0.392 0.465
3945.506 0.5336 0.442 0.366 0.31 0.344 0.43 0.414 0.352 0.327 0.41
3964.800 0.5001 0.4995 0.399 0.355 0.335 0.339 0.5116 0.495 0.45 0.5745
3984.093 0.5212 0.377 0.309 0.361 0.441 0.396 0.429 0.435 0.353
##END=
