##TITLE=2,9-Dimethyl-1,10-phenanthroline
##JCAMP-DX=4.24
##DATA TYPE=INFRARED SPECTRUM
##ORIGIN=NIST Mass Spectrometry Data Center
##OWNER=NIST Standard Reference Data Program
Collection (C) 2018 copyright by the U.S. Secretary of Commerce
on behalf of the United States of America. All rights reserved.
##CAS REGISTRY NO=484-11-7
##MOLFORM=C 14 H 12 N 2
##$NIST SOURCE=MSDC-IR
##SPECTROMETER/DATA SYSTEM=HP-GC/MS/IRD
##STATE=gas
##XUNITS=1/CM
##YUNITS=ABSORBANCE
##XFACTOR=1.0
##YFACTOR=0.000001500
##DELTAX=4.0
##FIRSTX=550.0
##LASTX=3846.0
##FIRSTY=0.001817
##MAXX=3846
##MINX=550
##MAXY=0.015
##MINY=0
##NPOINTS=825
##XYDATA=(X++(Y..Y))
550.0 1211 786 450 226 49 49 191 170 128 139
590.0 49 58 60 0 61 95 92 210 431 961
630.0 1627 1821 1521 813 271 164 209 206 183 184
670.0 190 259 350 366 278 140 85 80 116 191
710.0 278 469 876 1432 2155 2365 1856 1371 1055 919
750.0 804 664 556 524 604 782 915 771 584 454
790.0 334 284 267 238 270 316 423 594 838 1518
830.0 3060 5080 7835 8880 6514 4077 2268 1164 865 931
870.0 1203 1413 1367 1033 675 506 487 501 451 379
910.0 315 263 247 218 170 144 149 163 167 190
950.0 239 337 429 449 418 386 391 385 413 428
990.0 422 491 543 524 432 332 231 155 136 167
1030.0 262 328 375 395 422 414 391 387 320 235
1070.0 207 205 213 218 182 222 346 523 684 727
1110.0 588 387 295 271 428 822 1550 2213 2237 1662
1150.0 879 437 285 232 240 236 282 354 387 569
1190.0 835 1253 1785 2010 1932 1600 1115 752 573 530
1230.0 592 706 736 665 573 508 514 572 728 930
1270.0 1091 1140 1093 1044 1085 1275 1471 1493 1304 975
1310.0 693 564 492 454 466 509 575 733 1070 1667
1350.0 2496 3098 3179 2813 2401 2333 2420 2390 2159 1826
1390.0 1584 1450 1340 1265 1319 1641 2176 2620 2733 2481
1430.0 2129 1902 1762 1667 1631 1611 1595 1592 1645 1821
1470.0 2219 2987 4231 5906 7581 8774 9386 9797 10000 9198
1510.0 7164 4659 2739 1886 1667 1699 1886 2098 2153 1962
1550.0 1596 1263 1160 1299 1604 2032 2534 3108 3736 4521
1590.0 5423 6128 6470 6557 6695 6919 6591 5306 3576 2279
1630.0 1619 1236 998 854 720 589 465 401 410 461
1670.0 563 634 597 483 364 282 223 193 167 163
1710.0 204 256 297 298 276 278 288 273 246 209
1750.0 168 157 173 211 245 277 310 358 426 465
1790.0 419 304 210 163 141 122 112 91 72 77
1830.0 72 74 83 80 86 83 81 73 65 80
1870.0 89 101 136 189 253 288 298 292 275 282
1910.0 316 380 478 544 522 407 257 168 113 84
1950.0 78 63 49 41 47 48 50 61 61 51
1990.0 37 39 30 23 33 41 44 52 47 37
2030.0 53 63 54 60 58 56 77 76 69 58
2070.0 53 63 62 54 48 45 43 45 46 41
2110.0 39 33 21 29 48 45 31 25 23 9
2150.0 12 39 46 47 53 45 45 62 70 82
2190.0 76 47 50 50 27 1 11 22 16 19
2230.0 41 42 29 41 42 39 37 43 45 51
2270.0 91 109 115 116 110 104 96 98 80 62
2310.0 73 88 99 84 64 69 67 63 67 62
2350.0 54 61 80 91 78 76 76 71 75 77
2390.0 71 90 110 132 146 147 140 122 135 126
2430.0 125 142 128 97 79 96 90 74 71 87
2470.0 109 109 106 119 132 134 115 105 101 72
2510.0 58 57 49 53 64 66 66 68 69 78
2550.0 65 53 70 69 70 74 92 118 117 113
2590.0 110 92 95 110 111 116 108 87 85 84
2630.0 81 87 98 100 84 98 116 106 95 100
2670.0 106 113 108 94 73 69 94 96 106 121
2710.0 129 149 165 196 240 272 264 232 201 179
2750.0 154 136 123 123 111 131 162 148 144 138
2790.0 159 210 232 223 212 220 254 297 308 317
2830.0 355 414 484 578 672 747 828 888 940 997
2870.0 991 957 936 936 969 996 1040 1131 1233 1346
2910.0 1507 1765 2203 2843 3553 4024 4029 3564 2887 2310
2950.0 1961 1764 1611 1433 1232 1055 909 826 797 796
2990.0 822 904 1049 1280 1582 1906 2168 2353 2461 2579
3030.0 2815 3333 4080 4844 5541 6097 6545 6766 6366 5252
3070.0 3766 2397 1515 1100 900 761 696 648 589 576
3110.0 540 503 490 451 397 334 275 271 274 251
3150.0 217 184 210 223 168 143 168 189 176 180
3190.0 195 193 189 183 181 164 140 134 135 109
3230.0 123 153 147 123 86 94 93 96 103 116
3270.0 124 111 100 89 85 149 153 87 65 81
3310.0 76 84 66 80 128 114 82 64 85 112
3350.0 130 130 112 121 135 102 57 69 84 78
3390.0 73 97 119 108 86 80 120 97 54 41
3430.0 35 46 59 28 25 58 75 108 111 96
3470.0 82 70 68 76 81 75 84 77 51 44
3510.0 32 60 71 45 79 96 41 27 53 46
3550.0 57 76 92 106 46 9 33 43 77 75
3590.0 75 87 43 4 6 63 84 51 59 75
3630.0 43 37 45 57 63 88 100 75 63 52
3670.0 45 62 89 109 95 77 81 65 69 73
3710.0 39 8 22 58 46 61 84 72 98 80
3750.0 42 23 61 71 57 82 75 108 63 9
3790.0 59 78 53 58 72 87 136 134 95 53
3830.0 87 87 40 64 81
##END=
