##TITLE=9-Phenanthrol
##JCAMP-DX=4.24
##DATA TYPE=INFRARED SPECTRUM
##ORIGIN=NIST Mass Spectrometry Data Center
##OWNER=NIST Standard Reference Data Program
Collection (C) 2018 copyright by the U.S. Secretary of Commerce
on behalf of the United States of America. All rights reserved.
##CAS REGISTRY NO=484-17-3
##MOLFORM=C 14 H 10 O
##$NIST SOURCE=MSDC-IR
##SPECTROMETER/DATA SYSTEM=HP-GC/MS/IRD
##STATE=gas
##XUNITS=1/CM
##YUNITS=ABSORBANCE
##XFACTOR=1.0
##YFACTOR=0.000001700
##DELTAX=4.0
##FIRSTX=550.0
##LASTX=3846.0
##FIRSTY=0.000156
##MAXX=3846
##MINX=550
##MAXY=0.017
##MINY=0
##NPOINTS=825
##XYDATA=(X++(Y..Y))
550.0 92 149 179 268 321 482 652 687 646 486
590.0 312 232 196 183 251 477 726 813 743 482
630.0 269 270 457 801 1087 1138 943 574 270 165
670.0 93 22 38 45 61 80 99 152 327 764
710.0 1596 2683 4102 5607 5380 4453 4057 3735 3435 3390
750.0 3795 4456 5228 4879 3380 2158 1242 697 471 323
790.0 250 206 164 175 278 517 868 1327 1842 1777
830.0 1359 1088 821 648 594 668 858 1055 1090 1119
870.0 1173 1069 889 671 421 242 142 97 97 109
910.0 95 94 107 93 84 89 133 202 240 259
950.0 263 201 149 106 50 44 38 54 109 186
990.0 263 330 392 434 473 477 519 671 916 1266
1030.0 1667 1913 1912 1673 1341 1203 1461 2232 3384 4380
1070.0 4770 4323 3123 1939 1219 872 811 1030 1395 1609
1110.0 1602 1301 862 588 502 543 769 1228 1796 2119
1150.0 2200 2057 1816 1884 2216 2458 2449 2228 1941 1807
1190.0 1939 2399 3322 5003 7353 9369 10000 9009 6649 4120
1230.0 2551 1805 1415 1163 1003 863 725 629 558 564
1270.0 648 774 913 1058 1150 1198 1241 1288 1397 1724
1310.0 2280 2705 2803 2564 1914 1273 883 606 389 263
1350.0 213 203 226 266 321 378 427 472 522 603
1390.0 754 1009 1327 1583 1676 1597 1411 1246 1194 1244
1430.0 1329 1384 1495 1851 2459 3017 3092 2545 1643 912
1470.0 618 555 581 651 821 1154 1611 2027 2175 1942
1510.0 1505 1118 921 878 856 767 600 465 354 288
1550.0 271 279 325 422 557 703 815 912 999 1134
1590.0 1382 1721 2124 2464 2643 2661 2622 2816 3405 4231
1630.0 4790 4747 4072 3023 2088 1470 1056 803 660 594
1670.0 594 606 613 596 591 610 692 889 1172 1410
1710.0 1503 1389 1078 752 518 361 270 234 222 227
1750.0 224 211 203 189 164 140 140 142 161 189
1790.0 210 232 245 259 269 246 229 230 230 228
1830.0 214 193 170 133 93 66 58 59 66 84
1870.0 121 154 170 171 155 165 200 250 299 310
1910.0 303 287 272 271 305 371 423 435 396 322
1950.0 246 175 110 65 46 34 19 19 31 33
1990.0 35 35 30 37 47 34 26 33 31 27
2030.0 26 26 25 34 40 27 20 26 25 20
2070.0 17 23 33 29 20 21 32 33 30 24
2110.0 23 29 23 15 19 30 37 40 37 27
2150.0 22 20 19 18 17 31 33 25 25 21
2190.0 13 19 29 20 19 30 41 47 45 34
2230.0 27 26 28 36 48 63 71 77 66 55
2270.0 58 64 69 71 63 61 62 60 62 64
2310.0 74 88 94 83 76 74 66 67 72 67
2350.0 62 61 51 48 61 71 69 67 71 68
2390.0 64 66 77 72 47 35 39 40 33 42
2430.0 51 61 66 45 40 52 51 48 56 72
2470.0 67 49 44 51 56 49 29 33 41 29
2510.0 34 39 39 36 31 38 35 25 27 21
2550.0 28 32 31 40 44 35 28 21 14 17
2590.0 26 41 49 56 46 42 51 37 24 37
2630.0 55 64 64 58 51 43 48 60 60 54
2670.0 46 31 36 34 23 28 36 39 39 43
2710.0 34 27 21 21 28 19 11 26 32 2
2750.0 2 8 5 20 19 6 3 10 10 15
2790.0 13 8 0 7 27 28 12 10 25 31
2830.0 27 25 24 26 30 44 43 26 28 34
2870.0 34 44 43 46 46 50 61 54 47 46
2910.0 72 81 73 95 119 137 171 183 180 195
2950.0 199 184 171 170 170 184 195 195 202 228
2990.0 281 350 467 647 899 1200 1499 1723 1860 1907
3030.0 1870 1804 1777 1783 1858 2081 2478 2975 3478 3869
3070.0 4054 4073 3966 3719 3342 2823 2249 1760 1385 1087
3110.0 861 683 514 385 282 224 193 157 141 116
3150.0 96 98 82 53 37 29 42 38 34 34
3190.0 17 43 47 26 29 39 34 26 50 83
3230.0 79 63 53 41 55 72 63 36 25 22
3270.0 25 26 19 18 31 33 40 49 30 50
3310.0 45 34 62 68 86 94 64 37 21 59
3350.0 62 33 52 60 58 58 45 51 62 52
3390.0 46 56 58 44 47 49 32 34 50 53
3430.0 48 59 64 50 39 38 46 50 61 73
3470.0 63 57 46 45 58 49 71 72 55 49
3510.0 44 57 58 37 41 71 73 52 35 40
3550.0 84 100 93 75 79 95 72 46 49 60
3590.0 71 90 83 80 111 126 155 234 327 501
3630.0 830 1445 2507 4022 4893 4864 4176 2613 1290 631
3670.0 342 247 183 155 138 108 86 99 109 86
3710.0 94 102 81 79 82 95 66 43 52 26
3750.0 48 88 76 62 63 61 54 61 66 94
3790.0 103 97 88 86 98 86 66 69 89 120
3830.0 122 98 116 144 114
##END=
