##TITLE=Silvex, methyl ester
##JCAMP-DX=4.24
##DATA TYPE=INFRARED SPECTRUM
##ORIGIN=NIST Mass Spectrometry Data Center
##OWNER=NIST Standard Reference Data Program
Collection (C) 2018 copyright by the U.S. Secretary of Commerce
on behalf of the United States of America. All rights reserved.
##CAS REGISTRY NO=4841-20-7
##MOLFORM=C 10 H 9 Cl 3 O 3
##SOURCE REFERENCE=No.290103 (NIST/EPA/NIH MS Database)
##$NIST SOURCE=MSDC-IR
##SPECTROMETER/DATA SYSTEM=HP-GC/MS/IRD
##STATE=gas
##XUNITS=1/CM
##YUNITS=ABSORBANCE
##XFACTOR=1.0
##YFACTOR=0.000017700
##DELTAX=4.0
##FIRSTX=550.0
##LASTX=3846.0
##FIRSTY=0.002425
##MAXX=3846
##MINX=550
##MAXY=0.177
##MINY=0
##NPOINTS=825
##XYDATA=(X++(Y..Y))
550.0 137 175 79 65 44 44 74 123 179 227
590.0 236 193 123 67 34 21 19 18 18 25
630.0 35 58 84 103 114 118 136 176 245 398
670.0 720 1237 1688 1653 1146 609 329 234 209 200
710.0 190 201 241 319 444 614 826 1054 1240 1335
750.0 1306 1159 948 748 598 496 436 412 412 419
790.0 419 397 357 315 280 261 268 307 384 502
830.0 624 696 694 630 531 441 395 407 493 687
870.0 994 1291 1360 1198 1036 955 872 718 511 326
910.0 204 141 114 104 109 124 155 207 286 395
950.0 521 633 709 732 750 832 1027 1323 1582 1610
990.0 1363 999 706 542 461 435 446 493 580 718
1030.0 925 1195 1511 1809 2034 2173 2262 2374 2589 3035
1070.0 3878 5215 6730 7698 7672 6943 6101 5355 4700 4265
1110.0 4199 4546 5223 6031 6641 6729 6161 5090 3914 2972
1150.0 2357 2013 1856 1835 1940 2170 2507 2899 3293 3649
1190.0 3969 4252 4434 4435 4253 3978 3734 3616 3679 3960
1230.0 4444 5002 5373 5385 5086 4653 4253 4006 3960 4040
1270.0 4125 4106 3923 3581 3121 2630 2212 1932 1792 1762
1310.0 1794 1838 1871 1918 2018 2173 2349 2575 2953 3504
1350.0 3959 3869 3152 2261 1645 1365 1307 1377 1401 1240
1390.0 970 753 639 598 599 631 685 769 898 1104
1430.0 1452 2008 2794 3788 5098 6824 8659 9960 10000 8856
1470.0 7490 6537 5803 4857 3707 2661 1948 1533 1265 1039
1510.0 836 690 599 541 502 477 464 464 467 468
1550.0 466 470 489 532 617 760 961 1182 1299 1204
1590.0 929 627 413 291 221 182 156 138 128 123
1630.0 119 114 110 105 103 102 102 105 110 115
1670.0 120 124 131 140 155 172 197 230 281 349
1710.0 436 543 663 803 970 1171 1419 1730 2169 2843
1750.0 3832 4940 5617 5543 5134 4949 4943 4701 4041 3164
1790.0 2372 1762 1321 992 755 584 465 383 320 266
1830.0 217 178 147 122 105 93 83 74 68 64
1870.0 60 57 55 54 50 48 45 43 46 45
1910.0 47 51 54 57 59 62 65 66 67 68
1950.0 68 67 69 70 69 68 66 64 62 62
1990.0 60 55 51 49 46 43 43 43 44 44
2030.0 42 40 38 35 33 30 27 27 28 27
2070.0 28 29 32 34 35 36 36 38 39 38
2110.0 37 36 35 35 34 32 33 34 34 32
2150.0 29 29 30 29 28 27 25 24 23 22
2190.0 20 18 17 16 16 17 16 16 15 13
2230.0 11 12 11 8 5 4 1 0 0 0
2270.0 1 1 2 4 5 7 10 13 16 18
2310.0 19 18 17 17 18 19 21 19 19 18
2350.0 17 18 17 14 15 17 16 14 16 18
2390.0 18 17 19 22 22 23 25 23 22 22
2430.0 19 16 14 12 14 15 16 18 20 23
2470.0 28 33 36 38 42 44 45 46 48 51
2510.0 52 50 48 45 41 40 36 30 29 28
2550.0 26 27 28 27 27 31 38 41 44 48
2590.0 48 45 42 40 39 36 32 30 29 27
2630.0 22 21 18 17 17 18 19 21 22 26
2670.0 29 30 32 33 34 36 36 37 34 32
2710.0 29 25 23 21 20 21 20 18 19 23
2750.0 24 26 29 33 37 41 50 55 58 63
2790.0 64 65 65 66 66 67 69 74 82 90
2830.0 104 119 137 168 211 256 273 246 206 178
2870.0 172 184 207 231 250 268 283 303 326 343
2910.0 363 387 411 439 480 541 623 728 873 1049
2950.0 1212 1376 1603 1760 1618 1227 874 692 643 679
2990.0 791 983 1213 1338 1213 934 679 521 442 394
3030.0 364 340 312 281 248 218 195 177 163 155
3070.0 150 147 148 148 151 153 154 155 149 138
3110.0 123 110 100 95 88 81 77 70 65 62
3150.0 58 56 52 50 47 44 44 43 42 40
3190.0 37 36 38 35 32 33 31 28 27 26
3230.0 22 19 20 20 15 15 19 19 17 16
3270.0 13 13 15 15 14 14 14 13 12 13
3310.0 15 13 11 13 15 14 14 15 16 14
3350.0 11 14 15 14 13 11 12 13 13 12
3390.0 11 14 18 18 16 17 19 18 21 15
3430.0 16 19 19 21 22 24 25 26 29 31
3470.0 35 36 39 49 56 65 71 73 73 69
3510.0 68 70 70 69 71 69 67 63 55 49
3550.0 46 44 43 39 36 35 32 30 26 22
3590.0 24 27 27 23 22 25 27 26 26 25
3630.0 22 19 22 25 23 21 17 19 24 25
3670.0 24 22 22 20 20 21 20 20 23 25
3710.0 25 27 28 22 20 24 25 22 20 23
3750.0 24 23 27 31 31 34 37 36 33 35
3790.0 37 34 30 29 30 28 28 30 32 34
3830.0 35 32 31 30 32
##END=
