##TITLE=Ninhydrin
##JCAMP-DX=4.24
##DATA TYPE=INFRARED SPECTRUM
##ORIGIN=EPA-IR VAPOR PHASE LIBRARY
##OWNER=SRD/NIST
Collection (C) 2018 copyright by the U.S. Secretary of Commerce
on behalf of the United States of America. All rights reserved.
##CAS REGISTRY NO=485-47-2
##MOLFORM=C 9 H 6 O 4
##$NIST SOURCE=MSDC-IR
##STATE=gas
##XUNITS=1/CM
##YUNITS=ABSORBANCE
##XFACTOR=1.
##YFACTOR=0.001
##DELTAX=1.92898
##FIRSTX=549.8
##LASTX=4000.7
##FIRSTY=0.41093
##MAXX=4000.7
##MINX=549.759
##MAXY=0.024764
##MINY=0
##NPOINTS=1790
##XYDATA=(X++(Y..Y))
549.759 0.41093 0.42357 0.5536 0.4338 0.2812 0.36513 0.42059 0.4466 0.49 0.34158
569.049 0.4116 0.5918 0.6146 0.5164 0.2711 0.5007 0.5432 0.3127 0.2266 0.2931
588.339 0.6047 0.4663 0.143 0.2305 0.283 0.4285 0.5654 0.4496 0.36108 0.2572
607.628 0.2461 0.2942 0.4405 0.5873 0.39754 0.329756 0.5152 0.4411 0.5178 0.6054
626.918 0.5469 0.6542 0.6312 0.559 0.5581 0.6524 0.6932 0.6326 0.5315 0.33784
646.208 0.3529 0.38119 0.38392 0.4989 0.4961 0.3931 0.2555 0.2363 0.327592 0.3186
665.498 0.35552 0.40994 0.2734 0.34163 0.305 0.39092 0.7108 0.621 0.5348 0.4651
684.787 0.539 0.6346 0.5015 0.5051 0.5242 0.5787 0.7433 0.7702 0.7495 0.729
704.077 0.7811 0.9827 1.0845 1.0007 0.8789 0.8828 0.9576 0.9391 0.8524 0.8995
723.367 0.8657 0.9733 1.494 2.084 2.544 3.054 3.574 3.924 4.284 5.014
742.657 7.154 9.204 7.594 5.004 4.564 4.314 3.884 3.464 2.754 2.194
761.947 1.694 1.2405 0.9721 0.9023 0.7716 0.7103 0.8021 0.7543 0.7003 0.6634
781.236 0.6377 0.5763 0.6072 0.6127 0.33542 0.224 0.4269 0.4285 0.35316 0.3682
800.526 0.35132 0.34695 0.2944 0.41239 0.4277 0.216 0.33474 0.40541 0.6378 0.8182
819.816 0.5508 0.5086 0.5305 0.5064 0.627 0.651 0.598 0.615 0.5912 0.5696
839.106 0.6571 0.5991 0.4657 0.5304 0.5415 0.5142 0.469 0.5528 0.5684 0.39877
858.395 0.5285 0.5474 0.4966 0.6237 0.5261 0.5619 0.58 0.5232 0.6829 0.7521
877.685 0.8427 0.9399 0.9135 0.745 0.6049 0.5601 0.6134 0.615 0.4917 0.2922
896.975 0.253 0.39038 0.38324 0.38743 0.2996 0.138 0.209 0.36943 0.33601 0.2567
916.265 0.213 0.2843 0.2908 0.2254 0.174 0.138 0.3058 0.5763 0.5245 0.35826
935.555 0.36448 0.2637 0.42358 0.5554 0.5064 0.6461 0.7018 0.5482 0.5751 0.688
954.844 0.7388 0.9682 1.1093 1.3108 1.784 2.414 3.064 3.594 3.944 4.164
974.134 4.184 4.054 3.904 3.714 3.264 2.424 1.574 1.0536 0.8208 0.6276
993.424 0.5105 0.6724 0.8032 0.7301 0.7569 0.7339 0.6042 0.6216 0.8924 1.0726
1012.714 1.1679 1.2693 1.324 1.454 1.604 1.764 2.114 2.324 2.394 2.294
1032.003 2.014 2.234 2.074 1.534 1.374 1.344 1.1646 0.7378 0.6354 0.8285
1051.293 0.6813 0.5478 0.4509 0.41775 0.34714 0.179 0.34664 0.326609 0.4363 0.6548
1070.583 0.5277 0.39341 0.2948 0.2409 0.5072 0.7442 0.586 0.552 0.5657 0.2922
1089.873 0.2669 0.39645 0.32092 0.2918 0.19 0.037 0.125 0.40498 0.4315 0.36815
1109.163 0.5032 0.5883 0.5648 0.36644 0.2866 0.40275 0.4804 0.486 0.41914 0.33931
1128.452 0.3958 0.3903 0.7049 0.8733 0.5342 0.5859 0.8393 0.9622 0.9863 0.9954
1147.742 1.374 1.784 1.904 2.214 2.064 1.904 2.384 2.544 2.174 2.154
1167.032 2.164 1.964 1.784 1.774 1.884 1.874 1.794 1.654 1.904 2.074
1186.322 1.694 1.624 1.814 1.954 2.184 2.294 2.634 3.014 3.374 3.904
1205.611 4.484 5.344 6.444 7.404 8.424 9.404 10.054 10.584 11.124 11.414
1224.901 11.244 11.014 10.824 10.084 8.944 8.074 7.364 6.414 5.474 4.664
1244.191 3.864 3.124 2.624 2.374 2.224 2.144 2.154 2.204 2.364 2.514
1263.481 2.334 2.284 2.404 2.304 2.004 1.854 1.754 1.684 1.654 1.764
1282.771 2.064 2.124 2.174 2.284 2.314 2.254 2.284 2.364 2.304 2.094
1302.060 1.814 1.584 1.404 1.2907 1.2081 1.1756 1.1493 1.1724 1.2844 1.454
1321.350 1.584 1.704 1.754 1.844 2.014 2.104 2.184 2.224 2.164 2.074
1340.640 2.024 1.904 1.664 1.474 1.3062 1.1197 0.9424 0.7936 0.7198 0.7134
1359.930 0.6861 0.6607 0.6858 0.6569 0.6153 0.5815 0.5461 0.573 0.5261 0.4982
1379.219 0.5241 0.4976 0.5054 0.5383 0.5299 0.5273 0.5336 0.5346 0.5127 0.4945
1398.509 0.5275 0.5395 0.5323 0.5531 0.5712 0.5247 0.5157 0.5244 0.5058 0.5341
1417.799 0.5252 0.4322 0.40656 0.4345 0.38485 0.33672 0.34773 0.3384 0.35586 0.37159
1437.089 0.36588 0.333672 0.34404 0.36526 0.2908 0.235 0.219 0.2662 0.33047 0.3025
1456.378 0.2929 0.3136 0.33625 0.39837 0.3856 0.36629 0.35432 0.2947 0.3075 0.3729
1475.668 0.35307 0.35247 0.40522 0.4981 0.5139 0.5096 0.567 0.5221 0.4793 0.4341
1494.958 0.425 0.4625 0.41322 0.323279 0.326074 0.39334 0.40976 0.3972 0.39357 0.40765
1514.248 0.40866 0.4323 0.461 0.4753 0.4566 0.4863 0.5074 0.4887 0.524 0.5307
1533.538 0.5682 0.6259 0.5698 0.5079 0.5766 0.6117 0.5591 0.6104 0.7043 0.6934
1552.827 0.6021 0.5672 0.6343 0.6242 0.6254 0.6271 0.6124 0.6388 0.656 0.6823
1572.117 0.7247 0.819 0.8672 0.8544 0.97 1.1976 1.374 1.574 1.824 2.104
1591.407 2.394 2.554 2.764 2.864 2.824 2.774 2.654 2.514 2.294 1.974
1610.697 1.694 1.514 1.2536 1.1041 0.9506 0.8273 0.8235 0.7913 0.7659 0.6937
1629.986 0.6975 0.7469 0.7628 0.7665 0.7699 0.6433 0.6018 0.6404 0.593 0.5954
1649.276 0.6267 0.7247 0.7646 0.7148 0.7542 0.8441 0.8702 0.8775 0.9478 0.8905
1668.566 0.7809 0.7974 0.8305 0.9097 0.9748 0.9362 0.9594 1.0076 1.0173 1.0652
1687.856 1.0643 1.1644 1.2983 1.414 1.574 1.734 1.934 2.144 2.424 2.694
1707.146 3.044 3.534 4.164 4.844 5.654 6.744 8.064 9.644 11.544 13.584
1726.435 15.784 17.894 19.764 21.384 22.734 23.714 24.224 24.504 24.764 24.624
1745.725 23.544 21.774 19.954 18.424 17.214 16.294 15.704 15.244 14.544 13.744
1765.015 13.054 12.544 12.074 11.574 11.014 10.294 9.264 7.884 6.464 5.344
1784.305 4.584 3.904 3.314 2.934 2.594 2.164 1.774 1.434 1.2405 1.1872
1803.594 1.0709 0.945 0.9021 0.8754 0.8195 0.7216 0.6831 0.6866 0.6506 0.6408
1822.884 0.6261 0.6058 0.6156 0.5713 0.5411 0.6025 0.6971 0.7803 0.8116 0.8403
1842.174 0.9025 0.9412 0.9617 0.9439 0.9021 0.9026 0.8743 0.8243 0.7865 0.7557
1861.464 0.6724 0.5644 0.5583 0.5649 0.5863 0.5202 0.4607 0.4891 0.4852 0.543
1880.754 0.5742 0.5455 0.4938 0.4669 0.5103 0.5315 0.4525 0.39921 0.3985 0.40196
1900.043 0.4263 0.4513 0.4437 0.4269 0.4448 0.4484 0.429 0.37739 0.38371 0.38581
1919.333 0.34661 0.37986 0.39527 0.3924 0.37545 0.38593 0.4588 0.4407 0.37666 0.39098
1938.623 0.39373 0.4301 0.4876 0.4348 0.37458 0.39334 0.41801 0.41056 0.4394 0.4465
1957.913 0.4264 0.444 0.4166 0.40469 0.4363 0.4922 0.5011 0.4309 0.40852 0.4371
1977.202 0.4486 0.41272 0.4504 0.4855 0.4915 0.4595 0.40589 0.4296 0.447 0.40067
1996.492 0.41914 0.4383 0.38094 0.33718 0.35278 0.38567 0.37597 0.38749 0.34462 0.247
2015.782 0.2464 0.3045 0.31622 0.328688 0.3375 0.3014 0.3031 0.326576 0.3009 0.3094
2035.072 0.3104 0.2806 0.3129 0.3126 0.2913 0.2878 0.2728 0.2506 0.31957 0.38484
2054.362 0.34723 0.31969 0.33582 0.33906 0.2988 0.2882 0.2432 0.2557 0.305 0.32157
2073.651 0.2887 0.202 0.219 0.2851 0.31875 0.328011 0.276 0.2748 0.304 0.266
2092.941 0.2422 0.2833 0.2777 0.2522 0.2244 0.209 0.2692 0.2773 0.27 0.2412
2112.231 0.184 0.179 0.2566 0.2438 0.202 0.221 0.2263 0.2661 0.2696 0.2589
2131.521 0.177 0.1 0.134 0.141 0.135 0.189 0.2944 0.31984 0.2899 0.2651
2150.810 0.203 0.2476 0.2847 0.2641 0.21 0.162 0.2398 0.3181 0.2954 0.2663
2170.100 0.2543 0.2325 0.2376 0.2707 0.31828 0.3081 0.2301 0.2376 0.2543 0.2586
2189.390 0.2566 0.188 0.209 0.2373 0.2661 0.3047 0.31934 0.31429 0.32943 0.2976
2208.680 0.2349 0.233 0.214 0.2585 0.2865 0.330651 0.2995 0.196 0.223 0.2571
2227.970 0.2328 0.221 0.2405 0.2727 0.2477 0.218 0.2792 0.3 0.2791 0.2671
2247.259 0.2811 0.2717 0.205 0.161 0.2261 0.2768 0.2832 0.2339 0.2374 0.2905
2266.549 0.248 0.201 0.19 0.165 0.199 0.2705 0.31902 0.333282 0.2823 0.31648
2285.839 0.332426 0.2654 0.202 0.219 0.2971 0.2885 0.2621 0.2815 0.3042 0.306
2305.129 0.2812 0.3073 0.34727 0.3552 0.35289 0.37131 0.33516 0.3039 0.3071 0.2818
2324.418 0.3023 0.3147 0.34216 0.35133 0.2711 0.2837 0.33782 0.32099 0.276 0.218
2343.708 0.264 0.3069 0.2816 0.253 0.222 0.228 0.3002 0.31706 0.2392 0.2925
2362.998 0.37322 0.2536 0.178 0.214 0.2417 0.2617 0.171 0.099 0.168 0.2399
2382.288 0.2844 0.21 0.147 0.2313 0.2724 0.2448 0.134 0.205 0.2975 0.163
2401.578 0.15 0.2961 0.2661 0.205 0.2504 0.213 0.188 0.214 0.2549 0.181
2420.867 0.147 0.183 0.161 0.16 0.196 0.192 0.178 0.2632 0.2889 0.2581
2440.157 0.2314 0.183 0.178 0.2338 0.2534 0.2581 0.2465 0.216 0.2252 0.2373
2459.447 0.2331 0.2523 0.253 0.218 0.214 0.2329 0.2545 0.2438 0.201 0.224
2478.737 0.252 0.217 0.218 0.2658 0.2376 0.221 0.2917 0.301 0.2967 0.282
2498.026 0.2442 0.2262 0.162 0.184 0.221 0.109 0.128 0.212 0.2306 0.213
2517.316 0.218 0.219 0.129 0.102 0.193 0.25 0.186 0.156 0.151 0.184
2536.606 0.2845 0.199 0.143 0.195 0.2344 0.2849 0.198 0.146 0.184 0.176
2555.896 0.126 0.059 0.116 0.191 0.192 0.218 0.134 0.138 0.218 0.18
2575.186 0.095 0.024 0.046 0.155 0.2328 0.2674 0.3108 0.2477 0.194 0.191
2594.475 0.187 0.214 0.214 0.17 0.12 0.156 0.2715 0.37931 0.332824 0.2392
2613.765 0.2459 0.2297 0.2505 0.329288 0.33835 0.34772 0.33537 0.36184 0.35325 0.2874
2633.055 0.33738 0.37711 0.40576 0.39185 0.324444 0.2781 0.2538 0.2253 0.2599 0.3026
2652.345 0.2733 0.2651 0.326118 0.37037 0.38115 0.37827 0.2944 0.253 0.2997 0.2931
2671.634 0.2531 0.2465 0.2797 0.2846 0.194 0.2482 0.323897 0.39197 0.4496 0.3654
2690.924 0.2402 0.2302 0.2562 0.2385 0.3046 0.267 0.195 0.13 0.075 0.095
2710.214 0.115 0.134 0.201 0.209 0.19 0.136 0.086 0.144 0.186 0.205
2729.504 0.2579 0.2287 0.12 0.143 0.2936 0.2599 0.213 0.215 0.118 0.168
2748.794 0.192 0.172 0.177 0.193 0.173 0.115 0.072 0.098 0.19 0.205
2768.083 0.184 0.126 0.159 0.2346 0.2437 0.3062 0.2299 0.11 0.203 0.2824
2787.373 0.209 0.171 0.204 0.202 0.219 0.2526 0.2478 0.208 0.217 0.2333
2806.663 0.2708 0.331463 0.323787 0.326077 0.3836 0.38227 0.2954 0.15 0.127 0.243
2825.953 0.33658 0.2832 0.153 0.104 0.125 0.161 0.203 0.206 0.146 0.127
2845.242 0.168 0.165 0.131 0.156 0.21 0.2737 0.221 0.234 0.2351 0.181
2864.532 0.217 0.189 0.224 0.2583 0.2438 0.2715 0.3129 0.32128 0.2848 0.2841
2883.822 0.2905 0.173 0.201 0.324071 0.2266 0.2307 0.3014 0.241 0.2486 0.31971
2903.112 0.34198 0.33946 0.2645 0.2805 0.38358 0.31818 0.2276 0.2365 0.2964 0.4246
2922.401 0.2926 0.125 0.181 0.2793 0.36103 0.35673 0.2607 0.119 0.086 0.061
2941.691 0.122 0.34883 0.33637 0.178 0.085 0.075 0.206 0.213 0.2709 0.36731
2960.981 0.35615 0.263 0.183 0.2373 0.2503 0.212 0.146 0.139 0.142 0.137
2980.271 0.134 0.219 0.217 0.169 0.2676 0.191 0.132 0.183 0.166 0.2721
2999.561 0.4318 0.31479 0.2737 0.2468 0.123 0.2264 0.33511 0.32254 0.2575 0.204
3018.850 0.2446 0.2693 0.2508 0.2921 0.333922 0.3 0.2591 0.2557 0.2499 0.36758
3038.140 0.37469 0.2877 0.2898 0.3103 0.34263 0.38121 0.4843 0.5731 0.6917 0.5873
3057.430 0.39176 0.4802 0.5934 0.4992 0.5644 0.7492 0.8809 0.9708 1.0705 1.3087
3076.720 1.334 1.3189 1.364 1.414 1.424 1.324 1.2196 0.9988 0.8325 0.8448
3096.009 0.756 0.6398 0.5849 0.4834 0.6334 0.5814 0.325757 0.3 0.2824 0.223
3115.299 0.192 0.22 0.215 0.2587 0.33603 0.2608 0.213 0.294 0.2925 0.2609
3134.589 0.265 0.31602 0.39925 0.3664 0.2745 0.35762 0.36294 0.4381 0.40213 0.2647
3153.879 0.37146 0.2738 0.244 0.3812 0.3072 0.192 0.11 0.089 0.14 0.197
3173.169 0.227 0.2755 0.172 0.026 0.08 0.2502 0.191 0.038 0.206 0.3026
3192.458 0.198 0.153 0.2 0.35285 0.31898 0.162 0.152 0.189 0.2976 0.3037
3211.748 0.36078 0.307 0.108 0.132 0.2356 0.4407 0.5067 0.2366 0.19 0.324839
3231.038 0.3088 0.37353 0.2672 0.212 0.2644 0.143 0.065 0.072 0.196 0.2435
3250.328 0.324482 0.4718 0.4859 0.4406 0.40233 0.41347 0.309 0.2412 0.2913 0.184
3269.617 0.197 0.4802 0.4969 0.36124 0.4603 0.4181 0.2844 0.2463 0.2584 0.218
3288.907 0.2571 0.31878 0.32461 0.403 0.35015 0.2578 0.2468 0.36365 0.39023 0.2974
3308.197 0.2819 0.292 0.2676 0.2315 0.3091 0.40622 0.3071 0.2545 0.2715 0.219
3327.487 0.3054 0.39401 0.35775 0.3071 0.36431 0.2654 0.196 0.34245 0.3219 0.213
3346.777 0.2652 0.2582 0.172 0.139 0.172 0.256 0.326531 0.2923 0.134 0.183
3366.066 0.2817 0.40307 0.37893 0.3074 0.2905 0.159 0.172 0.213 0.2983 0.38194
3385.356 0.2976 0.3009 0.327382 0.36153 0.2303 0.189 0.38328 0.3919 0.4633 0.39868
3404.646 0.2253 0.2669 0.2884 0.198 0.2985 0.40375 0.327011 0.332319 0.41343 0.2969
3423.936 0.184 0.32008 0.4805 0.5587 0.40064 0.34431 0.37436 0.2803 0.37712 0.4533
3443.225 0.4811 0.5645 0.6187 0.6401 0.7904 0.8002 0.7895 0.8715 0.7926 0.7693
3462.515 0.7413 0.7101 0.91 1.0827 1.0546 0.9932 1.0227 1.0087 0.779 0.7275
3481.805 0.7337 0.6043 0.615 0.7005 0.6313 0.4759 0.38294 0.3548 0.41993 0.6446
3501.095 0.6261 0.6456 0.7669 0.6883 0.5964 0.6808 0.865 0.7648 0.6796 0.6884
3520.385 0.5112 0.4576 0.5496 0.5794 0.7018 0.651 0.5417 0.4585 0.5229 0.6474
3539.674 0.5581 0.5185 0.4797 0.5336 0.4717 0.34479 0.455 0.5051 0.4276 0.4356
3558.964 0.4522 0.41637 0.4575 0.38379 0.37555 0.5437 0.5156 0.427 0.311 0.202
3578.254 0.199 0.2637 0.347 0.4407 0.39352 0.36526 0.4905 0.40033 0.4656 0.4731
3597.544 0.186 0.21 0.327044 0.2665 0.3125 0.4518 0.429 0.34219 0.39693 0.39117
3616.833 0.35308 0.2685 0.131 0.175 0.169 0.214 0.32091 0.145 0.056 0.21
3636.123 0.31978 0.34059 0.35203 0.35242 0.32106 0.2266 0.097 0.153 0.35911 0.5287
3655.413 0.4281 0.198 0.201 0.202 0.067 0.176 0.2706 0.2626 0.2 0.2288
3674.703 0.34955 0.144 0.026 0.2698 0.37428 0.4702 0.4402 0.192 0.12 0.115
3693.993 0.249 0.329549 0.157 0.049 0.2816 0.4578 0.4819 0.39612 0.31795 0.3132
3713.282 0.2517 0.2505 0.323801 0.36321 0.39404 0.3 0.2273 0.2696 0.178 0.049
3732.572 0 0.033 0.028 0.026 0.017 0.049 0.075 0.107 0.2321 0.192
3751.862 0.097 0.102 0.2944 0.4985 0.5583 0.36931 0.2439 0.31693 0.37179 0.38044
3771.152 0.31832 0.35985 0.2983 0.36118 0.488 0.38812 0.4403 0.3908 0.2255 0.205
3790.441 0.188 0.194 0.172 0.212 0.3105 0.3491 0.35891 0.3023 0.2513 0.2753
3809.731 0.324786 0.2481 0.222 0.2806 0.185 0.2678 0.3059 0.2401 0.3204 0.221
3829.021 0.2622 0.5792 0.3664 0.048 0.079 0.2506 0.40695 0.2635 0.114 0.042
3848.311 0.159 0.323217 0.195 0.06 0.119 0.2658 0.4842 0.39766 0.164 0.2932
3867.601 0.41915 0.2937 0.004 0.008 0.2241 0.212 0.202 0.223 0.2711 0.332552
3886.890 0.4494 0.468 0.33436 0.2265 0.137 0.155 0.2301 0.214 0.045 0.006
3906.180 0.148 0.04 0.035 0.34383 0.38804 0.329513 0.32196 0.2477 0.37887 0.39213
3925.470 0.32036 0.3102 0.123 0.019 0.154 0.2422 0.112 0.2977 0.4697 0.2368
3944.760 0.2711 0.2504 0.2626 0.2602 0.13 0.169 0.194 0.145 0.217 0.36849
3964.049 0.2904 0.2274 0.2505 0.34411 0.227 0.132 0.137 0.195 0.323258 0.34757
3983.339 0.35914 0.4748 0.35438 0.166 0.179 0.028 0.3057 0.4815 0.2767 0.145
##END=
