##TITLE=2,3-Dichloropyrazine
##JCAMP-DX=4.24
##DATA TYPE=INFRARED SPECTRUM
##ORIGIN=EPA-IR VAPOR PHASE LIBRARY
##OWNER=SRD/NIST
Collection (C) 2018 copyright by the U.S. Secretary of Commerce
on behalf of the United States of America. All rights reserved.
##CAS REGISTRY NO=4858-85-9
##MOLFORM=C 4 H 2 Cl 2 N 2
##$NIST SOURCE=MSDC-IR
##STATE=gas
##XUNITS=1/CM
##YUNITS=ABSORBANCE
##XFACTOR=1.
##YFACTOR=0.001
##DELTAX=1.92898
##FIRSTX=549.8
##LASTX=4000.7
##FIRSTY=0.7541
##MAXX=4000.7
##MINX=549.759
##MAXY=0.377905
##MINY=0
##NPOINTS=1790
##XYDATA=(X++(Y..Y))
549.759 0.7541 1.1057 1.1399 1.0094 0.7516 1.1074 1.0946 0.8493 0.649 1.275
569.049 2.335 2.385 1.715 1.335 1.265 0.7145 0.4834 0.8708 1.0849 1.285
588.339 1.2204 0.8834 0.6861 0.7927 0.8182 0.7476 0.3499 0.2358 0.8267 1.2466
607.628 1.1157 0.32328 0.4906 1.0802 0.99 0.9143 1.0404 1.0464 1.154 1.565
626.918 1.605 2.005 2.675 2.945 3.405 3.725 3.175 2.885 3.325 3.105
646.208 3.045 3.725 3.725 3.435 3.055 2.145 1.455 1.1381 1.2338 1.455
665.498 1.355 1.1391 0.5174 0.4829 0.6376 0.8323 1.0777 0.657 0.4477 0.7049
684.787 1.0933 1.1639 1.0757 1.395 1.665 1.825 1.715 1.655 1.725 1.715
704.077 1.925 2.015 1.845 1.815 1.825 1.995 2.015 1.575 1.525 1.555
723.367 1.955 2.005 1.405 1.2077 0.9955 1.0165 1.485 1.565 1.355 1.375
742.657 1.625 1.735 1.495 1.855 2.065 1.395 1.435 2.155 2.605 2.745
761.947 2.595 2.725 3.415 3.545 3.415 3.725 3.945 4.055 4.855 5.785
781.236 6.095 6.705 7.595 9.315 11.835 14.735 17.895 20.775 24.135 26.845
800.526 27.985 28.205 27.705 28.115 29.255 28.945 26.725 23.425 19.715 15.835
819.816 12.565 10.295 8.995 8.815 9.655 11.455 13.695 16.575 20.875 25.055
839.106 28.675 31.715 33.975 37.915 46.045 59.985 74.455 74.265 53.545 34.805
858.395 31.485 32.125 30.635 27.465 22.975 18.165 13.905 10.345 7.675 6.335
877.685 5.165 4.145 4.075 3.995 4.025 4.135 4.055 3.835 3.645 4.025
896.975 4.165 3.925 4.045 4.215 4.115 4.125 3.925 3.695 4.285 4.625
916.265 4.265 3.665 3.145 2.775 2.565 2.205 2.335 2.685 2.365 2.375
935.555 2.455 2.225 2.565 2.855 2.935 3.325 3.565 3.935 4.035 4.125
954.844 4.475 4.665 4.325 4.195 4.485 4.675 4.915 4.625 4.365 4.455
974.134 4.335 4.095 4.105 4.235 4.465 4.655 5.425 5.905 5.685 5.865
993.424 5.335 5.095 5.555 5.825 5.695 5.355 5.565 6.305 6.895 7.515
1012.714 8.625 10.025 12.215 14.885 18.675 24.355 32.055 43.265 58.555 78.015
1032.003 102.775 133.705 166.335 197.295 223.405 240.605 249.655 251.405 249.875 251.435
1051.293 257.825 257.325 238.205 206.415 169.665 134.705 106.105 84.175 69.175 59.435
1070.583 52.625 47.705 43.115 37.055 30.135 23.775 18.805 15.185 12.835 11.115
1089.873 10.365 9.995 10.125 10.535 10.985 12.975 14.875 16.465 18.005 18.365
1109.163 19.355 22.015 24.595 26.435 27.535 31.515 36.975 42.405 51.285 61.195
1128.452 72.625 87.895 105.615 122.305 137.025 151.615 164.485 173.685 181.905 187.495
1147.742 189.055 186.405 178.675 167.495 151.025 130.405 109.655 91.855 76.985 64.105
1167.032 54.105 45.755 39.825 37.835 38.735 42.745 49.075 60.015 76.445 95.435
1186.322 116.825 138.685 157.395 171.125 179.245 184.035 186.805 188.195 182.335 169.535
1205.611 157.715 143.735 123.355 97.865 74.735 56.625 45.665 39.705 35.345 33.825
1224.901 33.695 33.305 33.545 33.215 31.295 29.555 27.745 25.275 22.595 19.475
1244.191 15.775 12.185 9.355 7.545 6.385 5.495 6.005 6.815 7.625 9.385
1263.481 10.685 11.965 13.895 15.515 17.195 18.985 20.265 21.365 22.655 23.725
1282.771 24.395 24.625 24.285 24.025 23.275 22.325 21.665 21.085 20.695 20.545
1302.060 20.605 20.765 20.875 21.005 21.315 21.985 23.465 25.445 28.205 32.205
1321.350 37.485 44.795 54.615 67.445 83.865 104.475 129.975 160.595 196.115 236.055
1340.640 278.265 317.825 349.795 369.965 377.905 377.425 371.215 356.525 331.585 305.775
1359.930 277.715 236.665 184.025 131.115 87.515 57.215 38.715 27.635 20.825 16.575
1379.219 13.715 11.715 10.265 9.375 8.885 8.705 8.875 9.355 9.965 10.725
1398.509 11.775 12.745 13.765 14.665 15.465 16.485 17.105 17.735 18.765 19.995
1417.799 21.535 23.145 24.825 26.585 27.985 28.955 29.195 28.505 27.335 26.935
1437.089 27.395 27.255 25.725 22.715 18.915 14.985 11.425 8.865 7.185 6.365
1456.378 5.835 5.265 4.905 4.765 4.615 4.525 4.685 4.825 4.915 5.115
1475.668 5.585 6.085 6.685 7.405 8.145 9.115 10.435 11.955 13.735 15.625
1494.958 17.365 19.245 21.165 22.825 24.215 25.175 25.655 25.865 25.525 24.825
1514.248 24.215 23.395 22.355 21.145 19.465 17.845 16.205 14.915 14.185 13.775
1533.538 13.365 12.845 12.315 11.535 10.915 10.085 9.165 8.745 8.095 7.315
1552.827 6.795 6.285 5.775 5.285 5.095 4.985 4.705 4.645 4.545 4.405
1572.117 4.475 4.305 3.945 3.735 3.525 3.435 3.355 2.955 2.735 2.795
1591.407 2.795 2.695 2.745 2.775 2.745 2.915 3.245 3.345 3.145 3.145
1610.697 3.335 3.615 3.755 3.695 3.865 3.715 3.655 3.925 3.815 3.585
1629.986 3.245 2.695 2.325 2.395 2.435 2.275 2.045 1.865 1.675 1.535
1649.276 1.285 1.1224 1.2331 1.365 1.545 1.615 1.455 1.405 1.605 1.695
1668.566 1.565 1.665 1.905 2.025 2.225 2.475 2.675 2.835 3.025 3.435
1687.856 3.825 4.025 4.335 4.435 4.495 4.775 4.615 4.345 4.275 4.115
1707.146 3.895 3.525 3.175 2.885 2.415 1.935 1.685 1.505 1.455 1.335
1726.435 1.1195 1.0556 0.9899 0.9933 0.9638 0.9564 0.9814 0.9223 1.101 1.1628
1745.725 1.0807 1.0857 1.0529 1.1648 1.1204 1.0191 1.1622 1.265 1.365 1.375
1765.015 1.405 1.515 1.675 1.805 1.905 2.025 2.205 2.505 2.805 3.035
1784.305 3.215 3.545 3.925 4.085 4.355 4.705 4.925 5.085 5.135 5.205
1803.594 5.015 4.785 4.615 4.325 4.045 3.765 3.435 3.145 2.895 2.565
1822.884 2.455 2.495 2.395 2.425 2.455 2.325 2.255 2.295 2.325 2.225
1842.174 2.135 1.965 1.895 1.875 1.725 1.695 1.505 1.265 1.325 1.325
1861.464 1.335 1.315 1.415 1.545 1.535 1.695 1.795 1.765 1.795 1.915
1880.754 1.995 2.085 2.335 2.675 2.935 3.105 3.315 3.645 3.965 4.265
1900.043 4.645 5.035 5.295 5.615 5.795 5.795 5.735 5.555 5.335 5.125
1919.333 4.745 4.375 4.185 3.875 3.515 2.995 2.575 2.305 1.945 1.815
1938.623 1.695 1.525 1.495 1.385 1.385 1.515 1.375 1.335 1.425 1.365
1957.913 1.535 1.595 1.435 1.545 1.775 2.035 2.215 2.285 2.305 2.505
1977.202 2.915 3.245 3.475 3.705 3.935 4.055 4.235 4.295 4.185 4.235
1996.492 4.305 4.235 3.975 3.675 3.405 2.975 2.445 2.115 1.945 1.845
2015.782 1.775 1.615 1.455 1.365 1.2599 1.265 1.2101 1.345 1.425 1.1841
2035.072 1.2492 1.365 1.305 1.285 1.2187 1.1918 1.1564 0.9568 0.8699 1.0512
2054.362 1.1549 1.0953 1.217 1.1435 0.8791 0.8199 0.937 1.0643 0.9923 0.9308
2073.651 0.9258 0.9254 0.9309 0.9321 0.953 0.8548 0.7478 0.7454 0.77 0.8703
2092.941 0.9613 0.8397 0.7998 0.7981 0.7718 0.8349 0.9632 1.1199 1.119 1.2347
2112.231 1.385 1.415 1.265 1.1916 1.275 1.1843 1.1239 1.1256 1.0682 1.0273
2131.521 1.0703 1.1752 1.2132 1.0854 1.0123 1.0238 1.074 1.073 1.065 1.112
2150.810 1.1334 1.1661 1.0369 1.0675 1.1922 1.1423 1.1048 1.0841 0.9529 0.8265
2170.100 0.9633 0.9501 0.8724 0.992 0.8828 0.7203 0.7963 1.076 1.295 1.2132
2189.390 1.0836 1.118 1.1604 0.9944 0.8851 0.9838 1.0279 0.9076 0.973 1.1446
2208.680 1.1387 1.168 1.1859 1.0422 0.9858 1.12 1.2609 1.325 1.1891 1.1337
2227.970 1.355 1.385 1.475 1.695 1.615 1.595 1.655 1.655 1.835 1.905
2247.259 1.925 1.975 2.105 2.315 2.375 2.455 2.495 2.395 2.435 2.365
2266.549 2.365 2.505 2.425 2.385 2.295 2.165 2.165 2.235 2.325 2.435
2285.839 2.495 2.405 2.505 2.575 2.585 2.695 2.625 2.735 2.755 2.665
2305.129 2.605 2.455 2.395 2.365 2.405 2.425 2.435 2.455 2.645 2.795
2324.418 2.795 2.795 2.935 3.125 3.405 3.815 4.035 4.085 4.205 4.205
2343.708 4.175 4.355 4.445 4.335 4.115 3.775 3.405 3.175 2.965 2.875
2362.998 2.505 2.275 2.225 1.905 1.665 1.655 1.615 1.505 1.585 1.815
2382.288 1.925 1.845 1.675 1.685 1.845 1.695 1.505 1.525 1.595 1.625
2401.578 1.325 1.285 1.315 1.1742 1.1608 1.146 1.2615 1.1828 1.1467 1.1152
2420.867 0.9522 0.9793 0.9869 1.0237 0.9429 1.1211 1.445 1.385 1.1827 0.879
2440.157 0.8718 1.122 1.2533 1.315 1.335 1.405 1.405 1.305 1.425 1.385
2459.447 1.335 1.425 1.385 1.295 1.365 1.415 1.315 1.365 1.435 1.535
2478.737 1.665 1.685 1.735 1.915 1.875 1.705 1.725 1.725 1.415 1.395
2498.026 1.455 1.375 1.325 1.2235 1.325 1.275 1.2111 1.2468 1.0063 0.8667
2517.316 0.9271 0.9232 1.098 1.1882 1.112 1.0106 0.8771 0.8226 0.6884 0.5667
2536.606 0.8404 1.0581 1.0934 1.0377 0.8892 0.9962 0.9649 1.0448 1.2159 1.1007
2555.896 0.9422 0.9767 0.9584 0.9651 1.0715 1.1411 1.2527 1.295 1.151 1.1219
2575.186 1.2416 1.2505 1.335 1.225 1.0416 1.1847 1.345 1.405 1.495 1.415
2594.475 1.1303 1.1268 1.335 1.305 1.335 1.425 1.285 1.1635 1.1841 1.2182
2613.765 1.2252 1.061 0.9998 1.2624 1.495 1.525 1.525 1.475 1.285 1.435
2633.055 1.755 1.695 1.315 1.305 1.635 1.805 1.615 1.505 1.705 1.665
2652.345 1.615 1.975 2.095 1.965 2.075 2.025 2.075 2.325 2.135 2.125
2671.634 2.175 2.165 2.335 2.615 2.595 2.275 2.345 2.255 2.255 2.105
2690.924 1.845 1.825 1.845 1.875 1.795 1.895 1.865 1.745 1.665 1.545
2710.214 1.645 1.805 1.705 1.325 1.1948 1.445 1.525 1.415 1.475 1.665
2729.504 1.695 1.525 1.645 1.855 1.925 1.825 1.555 1.545 1.565 1.605
2748.794 1.515 1.121 1.0132 1.1306 1.0509 1.2031 1.425 1.2642 1.1656 1.1318
2768.083 1.2315 1.1445 0.9211 0.8835 0.9428 1.2236 1.375 1.305 1.1333 0.9886
2787.373 1.0978 1.0406 0.7523 0.7063 0.9171 0.8927 0.7355 0.7811 0.9171 0.9132
2806.663 0.9011 1.1743 1.2486 1.097 1.0218 0.8549 0.7688 1.0031 0.9475 0.86
2825.953 0.9569 0.9102 0.9741 1.1407 1.395 1.435 1.2568 1.1641 1.285 1.285
2845.242 1.0309 1.0691 1.375 1.445 1.325 1.2069 1.0346 1.1453 1.375 1.315
2864.532 0.8819 0.9578 1.305 1.0754 0.8683 1.0333 0.9027 0.6214 0.6513 0.6424
2883.822 0.697 0.8359 0.8816 0.9759 0.9545 0.8679 0.9343 1.0449 0.8859 0.7441
2903.112 0.8561 0.819 0.7985 0.7989 0.7909 0.7386 0.6606 0.9593 1.0617 0.9981
2922.401 0.9306 0.8349 0.9285 1.0008 1.275 1.0452 0.866 1.0859 1.265 1.2335
2941.691 1.0239 1.1674 1.485 1.325 1.0806 1.455 1.535 1.275 1.1184 0.8277
2960.981 0.7871 0.978 1.1753 1.465 1.345 1.0051 0.9768 0.9228 0.6903 0.9471
2980.271 1.1318 1.2598 1.345 0.9744 1.1092 1.285 1.249 1.275 1.1555 1.1969
2999.561 1.305 1.495 1.785 2.005 2.305 2.475 2.645 2.825 2.615 2.775
3018.850 3.325 3.695 4.175 4.665 5.035 5.515 6.445 7.415 8.345 9.645
3038.140 11.055 12.735 14.775 16.535 18.075 19.705 20.935 21.455 21.755 21.825
3057.430 21.485 20.785 19.905 18.875 17.545 16.765 16.315 15.635 15.545 15.755
3076.720 16.515 18.495 20.175 21.865 23.615 25.135 26.925 27.485 27.765 27.985
3096.009 27.385 26.095 24.125 21.915 19.215 16.645 14.325 11.835 9.515 7.235
3115.299 5.575 4.135 2.855 2.555 2.235 1.695 1.635 1.695 1.405 1.2088
3134.589 0.9613 0.8646 0.8421 0.5197 0.6653 1.1494 1.231 0.9085 0.6773 0.8346
3153.879 1.0229 0.815 0.7358 0.6929 0.4664 0.8164 1.1319 1.1595 1.285 1.2489
3173.169 1.425 1.535 1.395 1.345 0.9022 0.4905 0.5843 0.8644 0.8721 0.6873
3192.458 0.7594 0.9513 0.7673 0.5199 0.6434 0.6275 0.6753 0.5537 0.3772 0.4851
3211.748 0.4014 0.5077 0.8873 0.9907 0.6133 0.5475 0.6101 0.29686 0.3971 0.3851
3231.038 0.454 0.7176 0.4643 0.5067 0.6528 0.5174 0.5539 0.9291 0.9249 0.7056
3250.328 0.822 0.8016 0.8416 0.855 0.5102 0.142 0.34717 0.437 0.476 0.7853
3269.617 0.554 0.29227 0.825 1.1748 0.5836 0.43 0.6503 0.6737 0.7436 0.6914
3288.907 0.697 0.8005 0.6371 0.5163 0.7651 0.4796 0.523 0.7371 0.5731 0.859
3308.197 0.5746 0.4377 0.7232 0.5579 0.6102 0.8555 0.7597 0.595 0.7769 0.899
3327.487 1.0061 0.6223 0.36047 0.7891 0.9287 0.7505 0.4684 0.5477 0.7725 0.9461
3346.777 0.8656 0.4948 0.4881 0.4789 0.3715 0.6263 0.6437 0.6373 0.6044 0.6765
3366.066 1.0998 1.0996 0.8664 0.6418 0.7648 0.7891 0.34324 0.36481 0.5397 0.7581
3385.356 0.9047 0.5821 0.6424 0.861 0.6872 0.3989 0.092 0.26233 0.5213 0.3922
3404.646 0.4764 0.7084 0.8132 0.7696 0.7723 0.913 0.7052 0.5243 0.6989 0.6983
3423.936 0.777 0.8047 0.6649 0.7989 1.0709 0.9073 0.7501 0.8611 0.8955 0.8122
3443.225 0.6949 0.8758 0.9285 0.7351 0.6153 0.5992 0.3948 0.29565 0.4938 0.3731
3462.515 0.5041 0.663 0.5364 0.5279 0.6855 0.9244 0.8098 0.715 0.63 0.4021
3481.805 0.1683 0.1915 0.6362 0.992 0.9469 0.8945 0.7694 0.99 1.295 1.1503
3501.095 1.1834 1.0826 0.9645 1.0677 1.1383 0.9757 0.8835 1.325 1.2204 0.2547
3520.385 0.3857 0.7004 0.8181 1.0956 0.8934 0.6945 0.7832 0.9589 0.9574 0.9501
3539.674 0.9471 0.6184 0.5246 0.7447 0.8443 0.8692 0.4951 0.7658 1.1593 0.8944
3558.964 0.7265 0.7366 0.6072 0.9603 0.9842 0.5282 0.4951 0.27913 0.15 0.6583
3578.254 0.9768 0.5935 0.8056 1.405 1.1777 0.8012 0.7719 0.634 0.34015 0.4075
3597.544 0.6178 0.5283 0.3873 0.4564 0.5682 0.4035 0.35827 0.4025 0.3703 0.4934
3616.833 0.692 0.903 0.5651 0.2278 0.7405 0.6095 0.2143 0.3884 0.5847 0.545
3636.123 0.4776 0.5777 0.7269 0.6298 0.3886 0.5923 0.6869 0.8054 0.6275 0.596
3655.413 0.7362 0.7268 0.8005 0.4821 0.4848 0.7004 0.7439 0.9845 1.2327 0.883
3674.703 0.5154 0.3838 0.33867 0.2453 0.5395 1.1391 1.0177 0.4185 0.2165 0.8317
3693.993 0.666 0.047 0.098 0.099 0.4138 0.6468 0.6326 0.6216 0.4907 0.4387
3713.282 0.374 0.4376 0.158 0 0.33464 0.5212 0.36267 0.2487 0.5413 0.5965
3732.572 0.4413 0.5431 0.7973 0.8835 0.707 0.5679 0.3422 0.3729 0.6235 0.7806
3751.862 0.7654 0.8328 1.029 0.9615 0.8223 0.6457 0.7326 1.1774 1.375 0.8344
3771.152 0.676 0.6527 0.36028 0.07 0.29977 0.5054 0.418 0.638 0.8316 0.6923
3790.441 0.1934 0.2345 0.688 0.7934 0.7531 0.5536 0.3805 0.5517 0.29005 0.5542
3809.731 0.8665 0.6674 0.5353 0.5814 0.949 1.0239 0.804 0.6193 0.4905 0.4834
3829.021 0.6431 0.8795 0.9766 1.0444 1.1358 1.2036 1.325 1.2453 1.0366 1.335
3848.311 1.535 0.7654 0.7654 1.395 1.595 1.475 1.315 1.535 1.685 1.555
3867.601 1.535 1.375 1.0792 1.1837 1.505 1.555 1.465 2.005 2.065 1.425
3886.890 1.495 1.495 1.2552 1.395 1.2396 1.1289 0.881 0.5716 0.7218 0.6084
3906.180 0.7356 0.7757 0.5565 0.7949 1.093 0.9853 0.8259 1.0266 1.335 0.9441
3925.470 0.8511 1.0578 1.0352 1.2096 0.8974 0.3975 0.4226 0.7474 0.5328 0.4811
3944.760 0.539 0.59 0.641 0.9484 1.1697 0.9811 0.577 0.30935 0.5248 0.4056
3964.049 0.4727 0.5873 0.8101 1.128 0.6733 0.6358 0.8629 0.5336 0.7161 0.9405
3983.339 0.982 0.9442 0.8847 0.9832 0.9761 1.0783 1.0416 0.778 0.7931 0.5745
##END=
