##TITLE=9-Fluorenone
##JCAMP-DX=4.24
##DATA TYPE=INFRARED SPECTRUM
##ORIGIN=NIST Mass Spectrometry Data Center
##OWNER=NIST Standard Reference Data Program
Collection (C) 2018 copyright by the U.S. Secretary of Commerce
on behalf of the United States of America. All rights reserved.
##CAS REGISTRY NO=486-25-9
##MOLFORM=C 13 H 8 O
##$NIST SOURCE=MSDC-IR
##SPECTROMETER/DATA SYSTEM=HP-GC/MS/IRD
##STATE=gas
##XUNITS=1/CM
##YUNITS=ABSORBANCE
##XFACTOR=1.0
##YFACTOR=0.000005100
##DELTAX=4.0
##FIRSTX=550.0
##LASTX=3846.0
##FIRSTY=0.000097
##MAXX=3846
##MINX=550
##MAXY=0.051
##MINY=0
##NPOINTS=825
##XYDATA=(X++(Y..Y))
550.0 19 19 26 27 5 2 14 12 11 9
590.0 13 26 38 48 60 92 126 124 114 98
630.0 97 122 157 238 390 559 690 748 753 826
670.0 834 665 499 376 268 198 157 134 139 157
710.0 239 456 994 2061 3340 4902 6870 6097 4042 2854
750.0 1536 698 357 246 216 223 222 190 160 145
790.0 149 175 228 291 388 423 329 254 189 132
830.0 104 91 76 71 70 83 104 119 137 146
870.0 142 134 136 145 173 221 302 469 920 1829
910.0 2711 3002 2741 1906 965 539 398 321 290 299
950.0 288 225 174 137 114 101 90 95 114 142
990.0 160 157 135 105 90 86 74 67 62 51
1030.0 45 43 55 65 69 77 80 89 105 127
1070.0 159 211 289 392 545 730 846 829 685 450
1110.0 252 165 147 153 168 194 240 337 534 711
1150.0 779 762 587 477 567 739 958 1277 1643 1797
1190.0 1676 1318 773 386 266 240 234 236 238 239
1230.0 230 206 179 153 127 117 132 166 203 243
1270.0 288 340 426 621 997 1568 2200 2523 2349 1820
1310.0 1149 672 488 399 303 205 139 105 93 86
1350.0 83 90 104 114 118 113 104 100 105 113
1390.0 114 108 105 109 130 176 225 262 296 324
1430.0 356 419 550 869 1517 2126 2244 1947 1292 619
1470.0 362 311 262 197 139 107 95 93 93 92
1510.0 83 76 78 79 78 86 97 108 120 130
1550.0 149 179 213 238 264 321 420 599 883 1273
1590.0 1722 2187 2647 3179 3691 3872 3536 2706 1678 892
1630.0 516 384 321 290 275 263 242 214 197 198
1670.0 227 274 324 373 423 459 506 587 707 898
1710.0 1268 1950 3199 5179 7670 9557 10000 9340 7088 4050
1750.0 2005 1020 598 405 296 237 204 186 174 169
1790.0 166 166 170 180 204 245 291 331 362 370
1830.0 344 306 262 229 215 205 182 150 121 101
1870.0 90 89 96 105 119 128 126 115 102 104
1910.0 122 156 188 199 188 161 129 109 120 165
1950.0 215 231 208 153 94 54 38 37 35 34
1990.0 33 36 40 41 40 43 44 41 37 29
2030.0 24 22 21 22 20 22 26 22 22 26
2070.0 26 28 30 31 36 45 54 59 54 51
2110.0 44 34 32 32 31 25 21 17 13 14
2150.0 11 10 11 11 15 16 15 16 16 17
2190.0 19 17 16 23 26 27 29 32 35 30
2230.0 27 33 36 38 38 38 35 30 26 24
2270.0 26 24 20 22 26 34 38 42 50 60
2310.0 70 67 52 40 35 29 26 27 22 17
2350.0 17 16 17 19 21 23 25 26 27 26
2390.0 26 25 21 17 13 8 8 10 8 12
2430.0 15 15 14 15 19 20 19 19 18 13
2470.0 14 18 16 12 12 13 9 6 6 8
2510.0 12 13 10 6 5 4 6 7 6 6
2550.0 4 6 1 1 1 0 7 14 15 14
2590.0 16 16 12 13 16 18 21 25 28 30
2630.0 31 31 30 27 25 22 22 25 23 19
2670.0 22 23 25 25 21 23 26 25 23 17
2710.0 10 7 6 9 11 15 17 17 16 16
2750.0 22 21 20 26 29 28 32 37 43 42
2790.0 44 41 31 26 20 12 8 8 10 12
2830.0 7 3 5 8 8 12 19 23 26 29
2870.0 29 27 33 33 28 28 32 31 29 31
2910.0 33 31 32 34 33 33 41 49 51 51
2950.0 49 41 37 36 35 32 23 25 31 31
2990.0 37 49 63 79 109 145 198 276 356 434
3030.0 501 562 623 698 790 883 971 1084 1275 1567
3070.0 1899 2132 2131 1892 1523 1138 803 536 330 198
3110.0 123 82 59 48 40 35 34 30 27 30
3150.0 31 33 35 37 44 52 59 60 55 49
3190.0 46 31 21 27 29 26 24 20 14 13
3230.0 14 18 12 5 5 4 4 2 0 3
3270.0 7 5 7 10 9 9 10 10 12 13
3310.0 16 14 8 6 8 18 25 18 16 17
3350.0 11 10 17 18 9 6 12 15 12 7
3390.0 8 16 15 19 28 31 29 35 48 68
3430.0 91 114 138 171 201 211 202 173 135 96
3470.0 62 40 34 36 32 23 21 18 12 8
3510.0 6 5 9 8 11 16 12 13 8 7
3550.0 11 10 12 13 9 8 7 8 16 17
3590.0 13 14 13 8 4 10 13 11 12 16
3630.0 12 12 17 13 11 15 17 20 23 25
3670.0 24 24 29 25 22 24 18 20 24 21
3710.0 16 11 6 9 17 22 15 9 16 32
3750.0 34 28 28 25 30 27 22 24 21 19
3790.0 26 27 26 25 26 25 27 33 28 25
3830.0 27 33 35 30 26
##END=
