##TITLE=Isopropylphenyl acetate
##JCAMP-DX=4.24
##DATA TYPE=INFRARED SPECTRUM
##ORIGIN=EPA-IR VAPOR PHASE LIBRARY
##OWNER=SRD/NIST
Collection (C) 2018 copyright by the U.S. Secretary of Commerce
on behalf of the United States of America. All rights reserved.
##CAS REGISTRY NO=4861-85-2
##MOLFORM=C 11 H 14 O 2
##$NIST SOURCE=MSDC-IR
##STATE=gas
##XUNITS=1/CM
##YUNITS=ABSORBANCE
##XFACTOR=1.
##YFACTOR=0.001
##DELTAX=3.85796
##FIRSTX=501.5
##LASTX=4000.7
##FIRSTY=1.43
##MAXX=4000.7
##MINX=501.534
##MAXY=0.25409
##MINY=0.000008551
##NPOINTS=908
##XYDATA=(X++(Y..Y))
501.534 1.43 1.44 1.71 2.07 2.7 3.71 4.95 6.23 7.14 7.51
540.114 7.19 6.52 5.75 4.94 4.19 3.77 3.57 3.37 3.29 3.37
578.693 3.55 3.72 3.81 3.86 3.87 3.88 4.07 4.46 5.14 6.07
617.273 7.28 8.69 9.72 9.98 9.52 8.69 7.8 7.17 6.78 6.58
655.852 6.71 7.25 8.23 9.74 11.8 14.59 18.55 24.23 31.85 40.33
694.432 47.46 51.94 54.45 56.22 57.45 56.97 53.56 47.5 40.39 33.63
733.011 27.95 23.65 20.76 18.95 18.06 17.68 16.9 15.17 12.57 9.82
771.591 7.62 6.25 5.53 5.18 5.05 5.18 5.7 6.49 7.54 8.8
810.170 9.94 10.49 10.29 9.4 8.23 7.26 6.6 6.23 6.02 5.8
848.750 5.48 5.1 4.81 4.74 4.9 5.24 5.78 6.42 7.06 7.67
887.330 8.1 8.37 8.68 9.25 9.98 10.7 11.23 11.62 12.02 12.57
925.909 13.41 14.73 16.62 19.08 22.31 26.73 32.62 39.72 47.26 53.54
964.489 56.32 54.06 46.85 36.87 27.37 20.39 15.85 12.98 11.56 11.07
1003.068 10.48 9.77 8.92 8.15 8.43 10.29 12.89 14 13.57 11.65
1041.648 9.4 8.81 9.35 10.4 11.77 13.5 15.61 18.02 20.72 24.06
1080.227 28.68 35.33 45.44 60.65 83.24 114.94 152.64 186.56 205.27 203.49
1118.807 185.53 165.45 154.73 153.39 156.36 159.44 160.42 158.7 155.15 150.37
1157.387 143.62 134.5 122.82 109.57 96.98 86.26 77.3 69.67 63.21 58.44
1195.966 56.01 55.93 58.11 62.27 67.87 74.39 81.55 89.72 99.66 111.66
1234.546 125.47 140.08 153.52 163.47 167.69 164.43 153.33 136.33 117.24 99.94
1273.125 86.49 77.22 71.39 67.94 65.55 63.39 61.24 59.15 57.34 55.97
1311.705 55.19 54.79 54.25 53.15 51.45 49.27 46.79 44.19 41.8 40.16
1350.284 39.71 40.31 41.09 41.48 41.73 42.5 44.24 46.27 47.39 46.2
1388.864 41.62 34.82 27.45 21.25 17.44 15.57 15 15.3 16.17 17.32
1427.443 18.62 19.93 21.11 22.22 23.3 24.37 25.24 25.63 25.52 25.01
1466.023 24.24 23.11 21.35 19.24 17.85 18.71 23.14 28.69 30.47 27.75
1504.603 20.93 12.92 8.52 6.67 5.75 5.25 4.99 4.87 4.76 4.69
1543.182 4.61 4.53 4.48 4.51 4.61 4.74 4.93 5.24 5.7 6.34
1581.762 7.18 8.29 9.72 11.41 13.15 14.34 14.27 12.82 10.51 8.16
1620.341 6.48 5.53 5.03 4.78 4.67 4.69 4.77 4.92 5.11 5.34
1658.921 5.6 5.94 6.34 6.8 7.35 8.02 8.78 9.73 10.88 12.35
1697.500 14.16 16.29 18.8 22.08 26.49 32.96 42.78 57.85 80.92 113.77
1736.080 155.77 199.36 235.35 254.09 250.55 224.01 182.91 138.75 100.05 70.51
1774.659 50.13 36.96 28.59 23.27 19.75 17.09 14.81 12.7 10.85 9.4
1813.239 8.31 7.47 6.81 6.29 5.85 5.5 5.24 5.03 4.89 4.81
1851.819 4.74 4.67 4.62 4.58 4.49 4.34 4.16 3.97 3.77 3.57
1890.398 3.41 3.28 3.21 3.21 3.28 3.44 3.64 3.89 4.17 4.46
1928.978 4.79 5.08 5.28 5.38 5.43 5.41 5.17 4.68 4 3.26
1967.557 2.64 2.23 1.98 1.83 1.72 1.63 1.58 1.5 1.45 1.44
2006.137 1.44 1.46 1.49 1.51 1.52 1.55 1.57 1.56 1.56 1.55
2044.716 1.55 1.55 1.54 1.53 1.48 1.43 1.41 1.36 1.32 1.29
2083.296 1.24 1.19 1.16 1.13 1.12 1.1 1.09 1.08 1.05 1.02
2121.875 0.9871 0.9626 0.9307 0.8961 0.8469 0.7799 0.7149 0.6668 0.6315 0.6208
2160.455 0.62 0.6116 0.6181 0.6271 0.6257 0.6396 0.6722 0.6832 0.6799 0.6886
2199.035 0.7015 0.7259 0.7545 0.7809 0.7812 0.7878 0.8062 0.821 0.8529 0.8765
2237.614 0.8841 0.9401 1.03 1.11 1.15 1.2 1.25 1.27 1.25 1.22
2276.194 1.19 1.16 1.12 1.09 1.06 1.04 1.08 1.17 1.27 1.37
2314.773 1.44 1.43 1.35 1.24 1.16 1.12 1.1 1.08 1.04 0.9947
2353.353 0.9514 0.9142 0.8908 0.876 0.8558 0.838 0.8317 0.8124 0.7973 0.7781
2391.932 0.7352 0.6904 0.6798 0.6538 0.6169 0.6029 0.5782 0.5583 0.5241 0.4885
2430.512 0.4557 0.431 0.4207 0.4407 0.4757 0.4692 0.4587 0.4539 0.474 0.5013
2469.092 0.486 0.4841 0.5128 0.5361 0.5644 0.5899 0.613 0.6459 0.6668 0.7044
2507.671 0.7142 0.7061 0.7024 0.6899 0.6704 0.6197 0.5789 0.5473 0.505 0.4469
2546.251 0.3911 0.3878 0.4028 0.3945 0.3886 0.3879 0.3869 0.3753 0.3666 0.3694
2584.830 0.4039 0.4259 0.4437 0.4636 0.4686 0.4873 0.4839 0.4863 0.4956 0.5004
2623.410 0.5385 0.5874 0.5959 0.5776 0.5575 0.531 0.5046 0.4933 0.4797 0.4783
2661.989 0.5185 0.5511 0.5714 0.5989 0.6372 0.6839 0.7245 0.7706 0.809 0.8217
2700.569 0.8338 0.8958 0.9743 1.02 1.05 1.09 1.11 1.19 1.3 1.44
2739.148 1.58 1.65 1.67 1.61 1.49 1.39 1.35 1.36 1.39 1.39
2777.728 1.41 1.47 1.5 1.56 1.57 1.56 1.64 1.74 1.9 2.15
2816.308 2.41 2.67 2.91 3.18 3.43 3.6 3.8 4.05 4.3 4.63
2854.887 5.04 5.54 6.21 7.15 8.45 10.1 12.04 13.93 15.32 16
2893.467 16.05 15.79 15.7 16.1 16.96 18.21 19.98 22.39 25.68 29.92
2932.046 34.73 39.53 43.32 44.95 43.71 40.13 35.78 32.61 32.27 35.68
2970.626 44.1 59.34 80.67 99.46 106.18 97.91 78.86 59.87 45.69 35.38
3009.205 28.6 24.81 23.56 24.5 27.37 31.6 36.06 38.81 38.42 35.11
3047.785 30.22 26.12 24.59 25.99 30.24 35.68 38.79 38.14 34.15 28.49
3086.364 24.21 21.66 19.55 17.43 15.2 12.98 10.99 9.22 7.55 6.01
3124.944 4.73 3.75 3.05 2.61 2.31 2.14 2.07 2.04 2.03 2.02
3163.524 1.99 1.99 1.95 1.89 1.79 1.65 1.56 1.47 1.39 1.27
3202.103 1.14 1.1 1.03 0.9401 0.8942 0.822 0.7172 0.6836 0.6396 0.5385
3240.683 0.452 0.4075 0.38 0.2763 0.1957 0.1896 0.155 0.1114 0.114 0.09
3279.262 0.06588 0.05819 0.02527 0.05697 0.08764 0.04803 0.03377 0.04091 0.02238 0.05041
3317.842 0.09391 0.06811 0.04232 0.07409 0.127 0.1155 0.1049 0.08622 0.04671 0.04728
3356.421 0.03963 0.1004 0.1502 0.1736 0.244 0.255 0.2511 0.2738 0.2836 0.311
3395.001 0.3213 0.2944 0.2877 0.2959 0.3068 0.3286 0.3248 0.3436 0.3746 0.3902
3433.580 0.443 0.5153 0.6728 0.8496 0.9727 1.15 1.41 1.68 1.93 2.21
3472.160 2.43 2.53 2.53 2.44 2.2 1.92 1.66 1.37 1.19 1.02
3510.740 0.7836 0.6053 0.5314 0.5106 0.4478 0.3724 0.3154 0.2577 0.172 0.1542
3549.319 0.1551 0.144 0.1193 0.07452 0.07578 0.1111 0.1068 0.09346 0.06546 0.008551
3587.899 0.04805 0.04867 0.04159 0.06302 0.07952 0.0919 0.1185 0.1374 0.1 0.1207
3626.478 0.0809 0.09401 0.1631 0.1686 0.2249 0.2843 0.3104 0.3351 0.2935 0.2306
3665.058 0.1973 0.1457 0.1138 0.1252 0.1212 0.1255 0.1228 0.1114 0.1734 0.2074
3703.637 0.1656 0.1651 0.1884 0.1259 0.06718 0.06368 0.08445 0.08263 0.0458 0.04288
3742.217 0.03919 0.02684 0.06798 0.06007 0.06186 0.1475 0.1638 0.1353 0.137 0.181
3780.797 0.2187 0.2057 0.2028 0.2102 0.2059 0.201 0.239 0.2634 0.2661 0.3034
3819.376 0.3394 0.363 0.3364 0.3018 0.2842 0.3222 0.389 0.3783 0.3421 0.3026
3857.956 0.2767 0.3302 0.3695 0.3765 0.4053 0.4108 0.3786 0.3556 0.355 0.3506
3896.535 0.3556 0.3808 0.361 0.3073 0.3149 0.3495 0.3601 0.3496 0.328 0.3033
3935.115 0.2661 0.2392 0.269 0.2902 0.2405 0.2302 0.2524 0.1986 0.167 0.1762
3973.694 0.2233 0.2417 0.2145 0.2063 0.2595 0.301 0.246 0.2772
##END=
