##TITLE=3-Chlorothioanisole
##JCAMP-DX=4.24
##DATA TYPE=INFRARED SPECTRUM
##ORIGIN=EPA-IR VAPOR PHASE LIBRARY
##OWNER=SRD/NIST
Collection (C) 2018 copyright by the U.S. Secretary of Commerce
on behalf of the United States of America. All rights reserved.
##CAS REGISTRY NO=4867-37-2
##MOLFORM=C 7 H 7 Cl S
##$NIST SOURCE=MSDC-IR
##STATE=gas
##XUNITS=1/CM
##YUNITS=ABSORBANCE
##XFACTOR=1.
##YFACTOR=0.001
##DELTAX=1.92898
##FIRSTX=549.8
##LASTX=4000.7
##FIRSTY=3.148
##MAXX=4000.7
##MINX=549.759
##MAXY=0.10934
##MINY=0
##NPOINTS=1790
##XYDATA=(X++(Y..Y))
549.759 3.148 3.422 2.99 2.42 2.46 3.101 4.08317 4.168 4.148 3.543
569.049 2.73 3.82 3.635 3.567 4.04264 3.443 3.584 3.914 3.89 3.566
588.339 3.635 4.08603 3.909 3.596 3.284 3.028 3.1 3.292 3.514 3.72
607.628 3.665 3.745 3.877 3.518 3.135 3.535 3.9522 3.9266 4.11614 3.588
626.918 3.9235 4.8118 4.7731 4.5498 4.4228 4.5609 5.15 5.66 6.04 6.81
646.208 6.75 6.62 7.33 8.47 9.54 10.07 10.83 11.7 12.62 14.03
665.498 16.23 18.45 20.31 21.82 23.67 26.95 31.08 32.62 29.97 26.17
684.787 23.44 21.52 19.47 17.3 15.86 14.45 12.66 10.95 9.31 8.56
704.077 8.04 7.73 7.71 7.23 7.33 7.46 7.33 7.13 6.81 6.71
723.367 6.66 6.69 6.81 6.52 6.56 6.69 6.27 6.39 7.01 7.26
742.657 7.53 8.72 9.71 10.85 13.03 15.11 17.24 21.2 26.56 31.89
761.947 37.83 45.45 54.82 66.12 79.98 94.47 104.66 108.67 109.34 108.22
781.236 105.01 99.04 89.69 77.63 63.94 50.49 39.55 31.45 25.57 21.19
800.526 17.6 15.45 13.35 11.73 10.79 9.79 8.91 8.57 8.73 8.01
819.816 8.52 9.5 9.28 9.25 7.85 7.31 7.67 7.03 7.28 7.56
839.106 7.09 7.17 7.57 7.73 8.18 8.63 9.22 9.58 10.09 10.65
858.395 10.93 11.57 12.43 12.92 13.32 13.87 14.04 14.16 14.04 13.39
877.685 12.36 11.31 10.86 10.21 9.17 8.54 7.78 7.27 6.83 6.51
896.975 6.62 6.22 5.88 5.66 5.28 5.27 5.55 5.85 6.04 5.58
916.265 5.16 5.1 5.39 5.74 5.63 5.53 5.65 5.76 5.59 5.65
935.555 5.84 5.89 6.34 6.69 7.01 7.29 7.55 7.95 8.67 9.25
954.844 9.28 9.81 10.59 11.34 11.86 12.47 12.83 12.79 12.5 12.2
974.134 11.49 11.06 10.52 9.43 9.09 9.03 9.31 9.24 9.2 9.52
993.424 8.95 8.74 8.78 8.37 8.19 7.97 7.36 6.89 6.67 6.32
1012.714 5.95 5.85 6.2 5.77 5.72 6.24 6.2 6.25 6.26 5.65
1032.003 5.85 7.02 6.45 4.9614 5.14 6.45 7.49 7.24 7.65 8.46
1051.293 9.59 10.56 10.4 12.07 14.86 16.57 18.07 19.58 19.81 21.33
1070.583 23.56 25.02 27.43 30.23 33.81 36.04 36.74 36.59 34.27 32.32
1089.873 30.13 27 25.1 22.45 20.35 19.69 19.21 20.03 20.29 21.17
1109.163 21.31 20.23 21.94 22.64 22.62 24.09 23.61 22.15 21.27 19.22
1128.452 17.77 16.71 14.12 12.17 10.31 8.45 7.36 6.99 6.56 5.76
1147.742 5.48 5.13 4.7432 4.5221 4.3135 4.7413 5.32 5.65 5.76 5.7
1167.032 5.22 4.5274 4.1271 3.484 3.768 3.85 3.08 3.21 3.646 3.9202
1186.322 2.81 2.38 2.9 2.95 3.476 3.583 3.725 2.5 1.31 1.77
1205.611 1.61 1.42 0.84 0.53 1.94 2.52 2.28 1.49 0.56 0.26
1224.901 1.09 2.04 0.65 0 0.59 1.27 2.11 2.3 3.524 4.8735
1244.191 4.9123 4.8786 5.12 5.21 5.24 4.8284 4.515 4.07076 3.408 3.211
1263.481 2.89 2.5 2.59 2.87 2.76 3.09 4.03508 4.3031 4.09598 4.3238
1282.771 5.0135 5.37 5.26 5.32 5.57 5.76 5.71 5.67 5.78 5.83
1302.060 6 6.15 6.41 7.18 7.93 8.61 9.35 10.02 10.63 11.05
1321.350 11.16 11.07 10.94 10.57 10 9.17 8.16 7.31 6.36 5.68
1340.640 5.22 4.9813 4.9291 4.9532 5.03 4.9493 4.8423 4.8232 4.9663 5.0158
1359.930 5.12 5.33 5.53 5.79 6.34 6.83 7.29 7.99 8.82 9.9
1379.219 11.01 12.19 13.51 14.73 15.93 17.3 18.8 20.22 21.56 23.02
1398.509 24.34 25.43 25.99 26.13 26.34 26.41 26.29 25.96 25.23 24.28
1417.799 23.15 22.09 21.38 20.83 20.61 20.79 21.3 22.19 23.49 25.09
1437.089 26.81 28.51 30.31 31.99 33.87 36.43 39.79 44.08 49.44 54.99
1456.378 60.49 65.21 67.87 68.5 67.13 64.16 59.91 53.83 45.6 36.53
1475.668 28.66 22.77 18.94 16.56 14.98 13.79 13.15 13.03 12.95 12.86
1494.958 12.63 12.55 12.52 12.34 12.09 11.68 11.34 10.86 10.16 9.69
1514.248 9.39 9.08 8.92 8.74 8.67 8.68 8.8 9.19 9.73 10.25
1533.538 10.88 11.82 13.09 14.51 16.19 18.25 20.84 23.91 27.42 31.9
1552.827 36.76 41.6 46.76 52.57 59.11 66.1 73.75 82.05 90.21 98.13
1572.117 103.84 106.21 104.82 99.37 91.72 82.41 71.47 59.47 47.36 35.97
1591.407 26.55 19.78 15.71 13.23 11.64 10.8 9.95 9.24 8.89 8.38
1610.697 8.14 8 7.71 7.48 7.29 7.28 7.01 6.75 6.75 6.61
1629.986 6.36 6.35 6.31 5.99 5.87 5.89 5.76 5.73 5.86 5.85
1649.276 5.93 5.94 5.83 5.72 5.87 5.88 5.74 5.74 5.67 5.65
1668.566 5.6 5.36 5.13 5.1 4.9504 4.802 4.6371 4.4615 4.434 4.4521
1687.856 4.2963 4.1807 4.1232 4.10585 4.2411 4.2645 4.2774 4.2288 4.247 4.3974
1707.146 4.3194 4.276 4.3953 4.5433 4.4993 4.4577 4.5819 4.6061 4.8099 5.1
1726.435 5.14 5.26 5.29 5.29 5.45 5.52 5.8 6.02 6.03 6.03
1745.725 6.08 5.97 5.86 5.83 5.74 5.68 5.53 5.41 5.42 5.4
1765.015 5.43 5.54 5.45 5.48 5.59 5.54 5.54 5.57 5.39 5.03
1784.305 4.9928 5.1 5.07 5.06 4.9584 4.8041 4.7122 4.6722 4.5159 4.3
1803.594 4.3691 4.6344 4.6597 4.5247 4.4263 4.3497 4.4573 4.4042 4.3913 4.5031
1822.884 4.522 4.603 4.6022 4.7578 4.9069 4.8831 4.9106 5.03 5.2 5.26
1842.174 5.38 5.65 5.73 5.79 5.77 5.63 5.73 5.8 5.77 5.64
1861.464 5.44 5.19 4.8794 4.7298 4.776 4.6416 4.4456 4.511 4.5773 4.5491
1880.754 4.3976 4.4035 4.425 4.4328 4.5618 4.5309 4.3997 4.4011 4.5652 4.6423
1900.043 4.8022 4.9971 5.04 5.22 5.31 5.36 5.5 5.65 5.8 5.87
1919.333 5.94 6.1 6.15 6.01 6 6 5.88 5.81 5.73 5.61
1938.623 5.43 5.17 4.7945 4.5628 4.6608 4.5584 4.3375 4.2312 4.2169 4.1831
1957.913 4.2129 4.308 4.2818 4.343 4.3 4.17 4.2446 4.2619 4.243 4.10932
1977.202 4.07798 4.1782 4.1913 4.2982 4.2728 4.126 4.10861 4.1863 4.04862 4.0065
1996.492 4.10428 4.10099 4.08784 4.02408 4.08205 4.07569 4.01069 4.05979 4.06494 4.10685
2015.782 4.08598 4.1332 4.2328 4.1945 4.1944 4.2241 4.1684 4.2109 4.2223 4.07294
2035.072 4.03546 4.10729 4.1512 4.10369 4.05597 4.03048 4.07961 4.06434 4.05593 4.1761
2054.362 4.1684 4.0852 4.1525 4.2276 4.1362 4.01724 4.07988 4.1995 4.0999 4.0025
2073.651 3.903 3.91 4.11533 4.1624 4.06223 3.9953 4.03331 4.1288 4.11485 4.03122
2092.941 4.06222 4.1403 4.11564 4.06144 4.1385 4.1475 4.07407 3.992 3.888 3.9439
2112.231 3.879 3.747 3.906 4.0693 4.1486 4.312 4.1525 4.0019 4.1779 4.1265
2131.521 4.0098 4.07661 4.08025 3.9276 3.864 3.889 3.9647 3.862 3.813 3.9893
2150.810 3.9451 4.01102 4.2051 4.201 4.1714 4.1512 4.1516 4.1249 3.9514 3.9929
2170.100 4.10278 4.09055 4.3107 4.463 4.2596 4.07432 4.1669 4.2553 4.2498 4.1286
2189.390 3.9999 4.05771 4.19 4.1293 4.1378 4.1947 4.11793 4.1411 4.1388 4.05911
2208.680 3.998 4.1445 4.2729 4.3221 4.2417 4.228 4.232 4.10205 4.1513 4.2647
2227.970 4.3359 4.3921 4.4007 4.3224 4.3128 4.2935 4.3062 4.3772 4.4001 4.3399
2247.259 4.1301 4.1303 4.3039 4.3526 4.2823 4.2139 4.3749 4.3178 4.1214 4.11968
2266.549 4.3708 4.6504 4.4593 4.3373 4.3944 4.4468 4.4798 4.3431 4.531 4.6379
2285.839 4.5187 4.5185 4.3745 4.2759 4.2669 4.3119 4.2234 4.2318 4.3677 4.3009
2305.129 4.4316 4.3158 4.06185 4.2211 4.2846 4.2175 4.1703 4.267 4.2849 4.1756
2324.418 4.4292 4.7614 4.6882 4.5346 4.6076 4.6792 4.6528 4.5031 4.474 4.4625
2343.708 4.4925 4.6334 4.5881 4.5838 4.4834 4.5199 4.7522 4.7282 4.668 4.7967
2362.998 4.7759 4.3789 4.3796 4.6257 4.5301 4.3295 4.5095 4.6132 4.5632 4.5969
2382.288 4.4216 4.4409 4.5642 4.5441 4.5795 4.8029 4.731 4.5961 4.648 4.7437
2401.578 4.8286 4.7659 4.6362 4.3961 4.4327 4.5945 4.6716 4.5845 4.451 4.5541
2420.867 4.508 4.3578 4.4697 4.654 4.5702 4.412 4.2831 4.2642 4.2366 4.2314
2440.157 4.2023 4.1363 4.1796 4.1612 4.07035 4.1658 4.2987 4.4359 4.3677 4.2512
2459.447 4.3155 4.2274 4.07477 4.08232 3.9628 3.9 4.1766 4.3093 4.357 4.2889
2478.737 4.3137 4.2098 4.0067 3.873 4.05532 4.4131 4.4608 4.3381 4.0018 3.901
2498.026 4.03005 4.1891 4.2893 4.2019 4.2844 4.3338 4.1361 4.2169 4.3735 4.3946
2517.316 4.4769 4.2732 3.9815 3.915 4.04405 4.3787 4.3251 4.1613 4.1402 3.899
2536.606 4.08608 4.6045 4.4992 4.1314 4.2716 4.2991 4.11844 4.10706 4.2327 4.212
2555.896 4.0226 4.3035 4.7997 4.7947 4.4511 4.3989 4.4747 4.6465 4.8106 4.7111
2575.186 4.5505 4.4559 4.4657 4.142 4.08192 4.3875 4.2513 4.1848 4.2518 4.341
2594.475 4.3406 4.1969 4.4646 4.5191 4.3769 4.11509 3.9944 4.4115 4.6062 4.3773
2613.765 4.2954 4.3653 4.3781 4.4172 4.4167 4.3235 4.3576 4.3396 4.2828 4.3474
2633.055 4.4018 4.3676 4.4094 4.4681 4.4103 4.666 4.8413 4.7603 4.5325 4.4941
2652.345 4.5806 4.4594 4.5634 4.5419 4.3708 4.4602 4.3854 4.6129 4.7071 4.5792
2671.634 4.6403 4.4854 4.4921 4.7194 4.6767 4.6219 4.6669 4.8378 4.818 4.6362
2690.924 4.6392 4.4995 4.515 4.5913 4.6563 4.5553 4.3658 4.3165 4.3243 4.488
2710.214 4.482 4.4134 4.619 4.6539 4.6202 4.4953 4.5295 4.6168 4.5355 4.3809
2729.504 4.2796 4.205 4.2456 4.4308 4.2644 4.101 4.2896 4.3786 4.2322 4.1746
2748.794 4.1644 4.3104 4.2119 4.2666 4.3157 4.2327 4.2219 4.1469 4.1772 4.1531
2768.083 4.3055 4.5295 4.6419 4.7049 4.5299 4.2989 4.532 4.7245 4.4826 4.336
2787.373 4.4134 4.6046 4.6229 4.6237 4.783 5.08 5.08 5.13 5.3 5.06
2806.663 4.9963 5.13 5.13 5.13 5.42 5.53 5.35 5.59 6.02 6.09
2825.953 6.17 6.18 6.35 6.72 6.84 6.76 7.06 7.4 7.51 7.66
2845.242 8.1 8.46 8.67 8.79 8.63 8.5 8.36 8.31 7.97 7.65
2864.532 7.54 7.42 7.58 7.62 7.24 7.15 7.21 7.04 7.04 7.28
2883.822 7.14 7.02 7.02 6.75 7.11 7.65 7.4 7.52 8.18 8.61
2903.112 8.73 9.23 9.9 10.09 10.45 11 11.89 12.77 13.59 14.99
2922.401 16.75 18.7 21.19 23.6 25.02 25.23 25.17 24.88 24.61 23.83
2941.691 21.73 19.22 16.6 14.81 13.65 12.46 11.9 11.27 10.72 10.83
2960.981 10.36 9.69 9.76 10.06 9.9 9.24 9.15 9.54 9.54 9.71
2980.271 10.22 10.69 10.87 11.28 11.92 12.72 13.57 14.24 14.87 14.68
2999.561 14.26 14 13.7 13.91 13.5 12.51 11.89 11.24 10.64 10.02
3018.850 9.52 9.05 8.52 8.13 7.64 7.52 7.56 7.14 6.82 7.14
3038.140 7.48 7.13 6.73 6.95 7.35 7.72 8.08 8.93 10.12 11.12
3057.430 12.09 12.95 13.73 14.65 15.63 16.02 16.92 18.04 18.15 18.41
3076.720 18.39 17.98 16.97 15.66 15.06 14.52 13.12 11.64 10.72 10.05
3096.009 9.33 8.58 8.16 7.59 6.82 6.26 6.12 5.71 5.18 4.9423
3115.299 4.7768 4.6219 5.1 5.5 5.21 5.14 4.9621 5.27 5.84 5.3
3134.589 4.9488 5.05 5.15 5.46 5.25 4.7812 4.9665 5.19 5.4 5.74
3153.879 5.46 5.21 5.07 5.0012 4.9615 4.8505 4.6458 4.574 4.941 4.7453
3173.169 4.4863 4.7553 4.7482 4.6129 4.8922 4.448 4.5491 4.9614 4.4346 4.3038
3192.458 4.3736 4.2994 4.05982 4.1254 4.3479 4.4908 4.3086 3.9868 4.306 4.4314
3211.748 4.1896 4.1879 4.1646 4.5311 4.5327 4.3334 4.7977 4.6167 3.906 4.07651
3231.038 4.6333 4.6411 4.4547 4.2267 4.10081 4.5781 4.5862 3.9705 3.848 3.9718
3250.328 4.04015 3.9315 4.06256 4.3008 4.3043 3.9677 3.878 4.06011 4.0083 4.06006
3269.617 4.10154 4.1238 4.07939 4.2228 4.3197 4.222 4.243 3.915 3.749 3.813
3288.907 3.909 4.2326 4.11777 3.887 4.2165 4.2696 4.02678 3.821 3.571 3.811
3308.197 3.9836 3.906 3.867 3.767 3.9481 4.4466 4.3009 3.561 3.459 4.2388
3327.487 4.4616 4.0036 3.841 4.01012 4.1274 3.9205 3.852 4.08877 4.281 3.86
3346.777 3.657 4.1161 4.03522 3.594 3.725 3.783 3.535 3.876 3.844 3.346
3366.066 3.865 4.2107 3.831 3.657 3.711 3.82 3.829 3.781 3.723 3.757
3385.356 3.836 3.839 3.638 3.408 3.791 4.10224 3.903 3.67 3.546 4.07526
3404.646 4.5186 4.3611 4.2445 4.1969 4.2754 4.11451 3.759 3.679 3.618 3.563
3423.936 3.665 3.792 3.774 3.891 3.613 3.52 3.57 3.77 3.879 3.644
3443.225 4.03922 3.907 3.704 4.01294 3.9623 3.581 3.658 3.642 3.725 3.96
3462.515 3.752 3.483 3.712 4.06739 3.898 3.661 3.62 3.934 4.01418 3.804
3481.805 3.9804 3.743 3.269 3.507 3.729 3.883 3.829 3.695 3.9636 3.9419
3501.095 4.0099 4.1573 4.1421 4.1484 3.645 3.9665 4.2221 4.06324 4.09259 3.827
3520.385 3.859 3.9836 3.832 3.662 3.638 3.9297 4.02924 3.39 3.497 3.751
3539.674 3.505 3.497 3.755 3.816 3.91 4.4621 4.3517 3.646 3.678 3.869
3558.964 3.78 4.10118 4.2648 3.897 3.856 3.712 3.627 3.89 3.798 3.699
3578.254 3.5 3.579 3.823 3.786 3.477 3.621 3.814 3.834 3.9729 3.827
3597.544 3.818 3.9607 3.585 3.443 3.836 3.683 3.665 3.633 3.489 3.737
3616.833 3.617 3.12 3.115 3.608 3.9221 3.597 3.254 3.313 3.642 3.641
3636.123 3.891 3.9727 3.767 4.07311 4.2812 4.4082 4.1416 4.07868 4.2315 4.2082
3655.413 4.2768 4.0258 3.874 3.9431 3.541 3.282 3.077 3.422 4.2159 3.9387
3674.703 3.783 4.07007 4.145 4.1298 3.9777 3.704 3.831 4.164 4.6115 4.6514
3693.993 4.1214 3.765 3.726 3.89 3.818 3.83 3.777 3.612 3.707 3.761
3713.282 4.1528 4.4648 4.2186 3.869 4.04201 4.2095 3.9329 3.9718 3.9221 3.547
3732.572 3.671 4.04987 4.1194 3.651 3.516 3.9678 3.9698 3.56 4.07656 4.543
3751.862 4.2298 4.2363 4.3975 4.6275 4.6844 4.2856 3.574 3.493 3.727 3.783
3771.152 3.841 3.669 3.697 4.05518 3.916 3.683 3.639 3.535 3.178 3.353
3790.441 4.02535 4.04009 3.711 3.77 3.914 3.991 4.3064 4.1614 4.01379 4.04094
3809.731 3.699 3.623 3.769 4.2348 4.722 4.3208 3.9947 4.3636 4.1501 3.916
3829.021 4.03971 3.9638 4.04962 4.0026 3.9677 4.03261 4.1934 4.5112 4.3157 4.1933
3848.311 4.441 4.427 4.3835 3.9783 3.711 3.9431 3.94 3.9582 4.143 4.06157
3867.601 3.904 3.88 3.906 3.9745 4.2823 4.4385 4.2443 3.9264 3.682 3.643
3886.890 3.676 4.2372 4.5347 4.854 4.9185 4.3733 4.2268 3.9399 4.1239 4.11366
3906.180 4.04102 4.2371 3.994 3.813 3.634 3.675 4.0319 3.9969 4.3933 4.9173
3925.470 4.6166 4.8007 4.5967 4.2114 4.3538 4.08779 3.798 3.809 4.2679 4.4034
3944.760 4.2207 4.31 4.1331 4.0069 4.1584 3.9646 3.792 3.556 3.822 4.6537
3964.049 4.3367 3.845 3.596 3.621 3.652 3.222 2.97 3.735 4.3227 4.06521
3983.339 4.05323 4.275 4.3602 4.1826 4.09398 4.1976 4.1433 3.9877 4.1876 4.3489
##END=
