##TITLE=.alpha.-Bromophenyl acetic acid
##JCAMP-DX=4.24
##DATA TYPE=INFRARED SPECTRUM
##ORIGIN=NIST Mass Spectrometry Data Center
##OWNER=NIST Standard Reference Data Program
Collection (C) 2018 copyright by the U.S. Secretary of Commerce
on behalf of the United States of America. All rights reserved.
##CAS REGISTRY NO=4870-65-9
##MOLFORM=C 8 H 7 Br O 2
##$NIST SOURCE=MSDC-IR
##SPECTROMETER/DATA SYSTEM=HP-GC/MS/IRD
##STATE=gas
##XUNITS=1/CM
##YUNITS=ABSORBANCE
##XFACTOR=1.0
##YFACTOR=0.000001500
##DELTAX=4.0
##FIRSTX=550.0
##LASTX=3846.0
##FIRSTY=0.000999
##MAXX=3846
##MINX=550
##MAXY=0.015
##MINY=0
##NPOINTS=825
##XYDATA=(X++(Y..Y))
550.0 666 1048 902 1065 1272 1606 2046 2708 3530 4267
590.0 4709 4524 4040 3551 3280 3463 3911 4285 4401 4202
630.0 3783 3356 2936 2536 2210 1988 1839 1731 1695 1995
670.0 2132 2081 2399 2918 3513 3991 4168 3920 3407 2853
710.0 2368 2007 1811 1693 1528 1419 1443 1447 1331 1215
750.0 1074 942 831 674 557 489 413 330 293 247
790.0 189 187 217 205 176 182 172 178 180 210
830.0 280 362 457 527 541 477 369 254 196 178
870.0 178 169 136 133 133 147 169 143 107 128
910.0 135 106 70 50 58 36 41 44 50 60
950.0 46 30 37 50 13 22 59 38 48 97
990.0 140 183 239 265 315 337 327 378 422 511
1030.0 607 636 593 515 482 533 641 711 843 1059
1070.0 1318 1601 2014 2590 3308 4347 5752 7386 8706 9093
1110.0 8467 7125 5662 4641 4197 4208 4400 4576 4675 4636
1150.0 4352 3876 3386 2999 2694 2513 2411 2367 2384 2432
1190.0 2484 2436 2290 2057 1808 1587 1389 1252 1165 1087
1230.0 1038 1006 952 910 842 781 760 762 761 772
1270.0 809 843 872 913 1000 1109 1198 1305 1448 1612
1310.0 1764 1875 1920 1904 1843 1733 1627 1569 1539 1517
1350.0 1541 1591 1613 1592 1513 1386 1238 1081 936 788
1390.0 630 493 383 300 254 221 199 195 193 204
1430.0 224 245 288 381 520 644 748 750 624 468
1470.0 341 273 259 306 429 637 808 824 705 482
1510.0 266 155 98 84 91 93 90 70 62 78
1550.0 74 53 42 68 87 93 91 113 155 192
1590.0 216 207 194 180 163 137 105 88 81 66
1630.0 68 76 65 60 63 56 51 75 81 70
1670.0 70 89 116 119 134 156 170 211 267 340
1710.0 453 574 695 836 1009 1201 1418 1684 2033 2542
1750.0 3232 4112 5139 6304 7545 8701 9575 10000 9921 9261
1790.0 8146 6891 5728 4727 3925 3247 2636 2113 1686 1348
1830.0 1072 841 680 563 461 385 337 297 276 248
1870.0 223 224 214 199 191 180 168 156 139 126
1910.0 111 101 91 88 95 110 133 166 195 186
1950.0 169 173 168 166 145 108 83 64 47 51
1990.0 60 44 49 56 50 46 50 53 44 33
2030.0 27 36 30 19 28 31 29 37 41 28
2070.0 17 13 24 30 19 15 17 6 6 32
2110.0 50 48 52 49 51 42 37 41 32 22
2150.0 18 20 34 55 70 56 55 62 55 53
2190.0 48 54 59 49 46 53 52 39 36 40
2230.0 38 40 32 38 47 56 67 76 82 98
2270.0 133 160 179 205 268 348 420 522 647 777
2310.0 908 1047 1173 1244 1281 1292 1232 1163 1113 1009
2350.0 989 1238 1515 1650 1639 1499 1232 893 558 294
2390.0 154 79 47 55 52 64 78 49 45 61
2430.0 68 61 44 36 52 58 58 52 51 48
2470.0 64 79 56 50 64 58 38 50 68 70
2510.0 61 62 64 51 26 9 4 16 26 21
2550.0 29 29 21 21 10 17 25 30 34 34
2590.0 49 46 37 43 70 79 52 44 53 37
2630.0 34 32 20 20 36 36 30 48 43 35
2670.0 53 67 57 35 34 38 37 40 42 47
2710.0 53 46 28 6 18 44 57 62 45 29
2750.0 35 31 6 7 28 41 34 37 42 47
2790.0 62 64 66 43 39 51 49 43 42 45
2830.0 34 31 44 55 60 61 36 26 34 68
2870.0 61 45 62 68 68 57 70 87 91 92
2910.0 101 80 87 118 114 77 71 93 97 92
2950.0 95 92 86 94 100 117 150 136 109 136
2990.0 156 176 192 192 196 231 296 372 475 620
3030.0 807 984 1093 1109 1016 896 833 881 1052 1302
3070.0 1598 1727 1622 1380 1084 917 841 751 634 525
3110.0 476 365 291 257 181 146 125 102 86 77
3150.0 75 111 113 75 78 86 70 68 56 34
3190.0 14 21 51 61 46 41 69 63 49 55
3230.0 25 10 47 45 36 59 43 10 21 47
3270.0 78 86 57 16 0 43 61 61 84 100
3310.0 117 74 51 59 55 55 54 59 66 58
3350.0 33 32 51 50 41 41 56 91 89 59
3390.0 55 43 32 48 40 45 71 76 79 69
3430.0 71 90 120 109 75 81 98 98 120 117
3470.0 107 132 156 167 211 270 311 369 398 396
3510.0 387 376 394 408 397 401 426 457 495 547
3550.0 684 884 1320 2297 3847 5496 6343 6081 4725 2908
3590.0 1586 910 607 464 366 296 243 208 200 169
3630.0 176 173 133 138 153 171 162 133 128 150
3670.0 151 130 139 120 96 163 190 138 149 160
3710.0 129 119 122 133 193 211 175 124 117 93
3750.0 102 112 105 96 70 84 108 112 67 72
3790.0 101 115 103 60 87 114 99 69 78 126
3830.0 132 97 77 92 93
##END=
