##TITLE=1-Cyclopentylcyclopentene
##JCAMP-DX=4.24
##DATA TYPE=INFRARED SPECTRUM
##ORIGIN=NIST Mass Spectrometry Data Center
##OWNER=NIST Standard Reference Data Program
Collection (C) 2018 copyright by the U.S. Secretary of Commerce
on behalf of the United States of America. All rights reserved.
##CAS REGISTRY NO=4884-21-3
##MOLFORM=C 10 H 16
##$NIST SOURCE=MSDC-IR
##SPECTROMETER/DATA SYSTEM=HP-GC/MS/IRD
##STATE=gas
##XUNITS=1/CM
##YUNITS=ABSORBANCE
##XFACTOR=1.0
##YFACTOR=0.000006400
##DELTAX=4.0
##FIRSTX=550.0
##LASTX=3846.0
##FIRSTY=0.000243
##MAXX=3846
##MINX=550
##MAXY=0.064
##MINY=0
##NPOINTS=825
##XYDATA=(X++(Y..Y))
550.0 38 18 2 0 5 15 9 13 14 9
590.0 14 9 6 7 6 7 11 17 12 6
630.0 3 7 4 6 8 8 11 12 7 3
670.0 0 12 23 10 6 13 13 9 17 25
710.0 26 31 45 44 40 45 45 42 42 48
750.0 57 62 64 75 90 105 126 159 204 254
790.0 314 369 411 436 447 438 401 349 301 261
830.0 213 176 147 121 104 92 81 70 64 63
870.0 68 82 103 124 142 156 164 169 169 162
910.0 158 158 157 165 179 192 210 225 234 233
950.0 224 207 181 155 126 100 81 66 59 49
990.0 41 43 50 57 71 98 132 171 204 238
1030.0 265 266 248 220 176 137 111 84 64 57
1070.0 51 39 31 29 31 29 24 23 26 31
1110.0 35 38 42 44 48 53 56 58 56 56
1150.0 60 63 70 74 72 73 78 80 86 94
1190.0 100 112 125 140 155 166 170 169 166 163
1230.0 160 162 164 163 167 173 179 176 181 194
1270.0 205 219 234 251 264 274 272 263 249 244
1310.0 245 244 234 216 189 159 138 127 124 126
1350.0 128 122 112 96 77 65 55 45 45 47
1390.0 43 48 57 64 72 79 87 102 116 134
1430.0 165 202 250 305 353 391 410 410 397 368
1470.0 337 308 272 235 197 163 130 103 82 68
1510.0 60 52 42 38 35 30 26 22 20 15
1550.0 12 10 10 15 17 15 15 20 21 23
1590.0 29 33 39 43 47 54 62 70 82 97
1630.0 112 124 134 141 131 107 80 56 41 32
1670.0 27 23 23 20 15 17 16 14 14 12
1710.0 10 10 7 6 8 5 2 2 3 5
1750.0 7 5 4 2 3 4 2 2 2 0
1790.0 0 4 4 5 4 6 10 11 13 15
1830.0 16 18 20 23 21 17 15 14 13 11
1870.0 8 8 6 4 3 2 4 2 2 4
1910.0 3 4 5 9 10 7 8 7 6 6
1950.0 7 6 5 6 7 7 6 5 5 3
1990.0 1 1 0 0 2 3 3 4 5 5
2030.0 4 5 6 7 7 6 5 5 4 6
2070.0 7 7 8 7 6 9 10 8 8 8
2110.0 8 9 9 11 10 10 9 8 9 12
2150.0 14 15 19 20 19 18 19 21 21 20
2190.0 21 20 19 18 17 17 18 16 16 17
2230.0 18 19 20 21 22 21 21 20 19 20
2270.0 19 18 17 15 16 16 16 15 15 18
2310.0 20 21 21 24 25 26 26 23 24 25
2350.0 23 19 15 12 10 9 8 6 9 9
2390.0 7 6 5 2 2 5 5 3 3 1
2430.0 4 7 4 3 0 0 3 1 3 9
2470.0 11 10 8 6 7 8 8 9 10 9
2510.0 8 9 12 12 10 14 17 15 16 20
2550.0 22 24 28 31 32 33 35 36 35 36
2590.0 37 36 33 30 32 31 28 29 29 25
2630.0 23 22 24 26 28 30 28 26 28 31
2670.0 32 34 36 38 38 42 45 48 52 58
2710.0 62 67 69 70 77 85 88 89 91 97
2750.0 104 112 120 128 139 152 163 171 182 195
2790.0 214 237 262 293 336 384 443 516 608 733
2830.0 905 1145 1474 1918 2473 3047 3502 3811 4024 4170
2870.0 4277 4367 4407 4356 4202 4015 3896 3884 3953 4074
2910.0 4233 4419 4634 4884 5170 5487 5866 6376 7064 7913
2950.0 8813 9586 10000 9769 8779 7328 5782 4373 3249 2435
2990.0 1878 1504 1248 1058 908 794 704 631 582 561
3030.0 562 586 636 705 775 833 846 799 711 591
3070.0 451 329 250 199 164 140 119 104 94 88
3110.0 76 67 60 54 51 46 43 45 42 37
3150.0 35 35 34 33 31 32 33 28 27 29
3190.0 27 24 27 30 28 27 23 20 23 24
3230.0 21 19 19 16 17 18 13 12 15 12
3270.0 11 14 12 12 12 10 10 12 14 12
3310.0 7 6 1 0 0 0 2 1 0 3
3350.0 6 4 0 0 4 7 3 2 6 8
3390.0 9 8 9 8 8 12 12 10 8 12
3430.0 9 9 14 10 10 12 7 8 8 9
3470.0 13 14 12 8 8 12 11 9 11 15
3510.0 17 14 12 13 14 12 14 13 14 15
3550.0 16 18 17 12 14 16 19 21 18 17
3590.0 16 15 15 18 19 16 13 11 12 17
3630.0 19 16 18 16 17 19 20 21 17 16
3670.0 15 15 17 16 19 24 23 20 23 27
3710.0 31 32 31 30 28 29 27 26 29 27
3750.0 29 33 32 32 39 39 39 38 35 36
3790.0 36 37 37 32 30 35 34 31 34 34
3830.0 31 32 38 39 42
##END=
