##TITLE=2-Cyclopentylcyclopentanol
##JCAMP-DX=4.24
##DATA TYPE=INFRARED SPECTRUM
##ORIGIN=NIST Mass Spectrometry Data Center
##OWNER=NIST Standard Reference Data Program
Collection (C) 2018 copyright by the U.S. Secretary of Commerce
on behalf of the United States of America. All rights reserved.
##CAS REGISTRY NO=4884-25-7
##MOLFORM=C 10 H 18 O
##$NIST SOURCE=MSDC-IR
##SPECTROMETER/DATA SYSTEM=HP-GC/MS/IRD
##STATE=gas
##XUNITS=1/CM
##YUNITS=ABSORBANCE
##XFACTOR=1.0
##YFACTOR=0.000004000
##DELTAX=4.0
##FIRSTX=550.0
##LASTX=3846.0
##FIRSTY=0.000168
##MAXX=3846
##MINX=550
##MAXY=0.04
##MINY=0
##NPOINTS=825
##XYDATA=(X++(Y..Y))
550.0 42 32 23 8 9 29 33 30 27 15
590.0 32 45 41 38 42 47 42 34 30 21
630.0 21 28 27 26 27 30 36 44 31 17
670.0 16 27 32 22 18 20 18 23 26 26
710.0 37 33 22 17 19 25 29 40 40 39
750.0 44 46 45 38 40 45 50 62 68 68
790.0 75 89 92 96 110 123 128 136 147 176
830.0 205 219 252 268 265 263 249 229 207 188
870.0 185 195 221 257 293 322 340 331 306 283
910.0 272 267 260 253 246 239 239 238 238 245
950.0 257 272 291 313 350 403 468 539 612 689
990.0 763 812 836 843 839 833 838 847 841 822
1030.0 796 761 719 678 651 647 641 633 633 625
1070.0 609 590 580 566 548 529 508 498 502 505
1110.0 510 527 547 565 583 591 580 557 524 498
1150.0 475 458 450 438 441 445 449 464 479 496
1190.0 507 518 526 528 518 508 502 498 505 505
1230.0 501 495 497 498 497 502 505 510 515 521
1270.0 529 540 548 546 544 539 525 512 497 482
1310.0 466 450 445 438 429 419 410 396 385 373
1350.0 367 369 372 369 366 359 352 342 325 312
1390.0 291 267 247 230 216 206 199 198 204 219
1430.0 244 282 331 381 444 488 498 479 451 426
1470.0 410 391 362 323 271 220 175 138 116 103
1510.0 88 75 65 59 53 46 40 40 39 32
1550.0 30 31 29 22 19 20 18 20 20 20
1590.0 16 12 13 11 11 13 11 12 13 10
1630.0 9 10 9 10 11 9 7 6 6 5
1670.0 4 6 6 5 7 10 12 14 13 8
1710.0 7 8 10 10 12 20 29 37 44 51
1750.0 60 62 55 49 39 26 17 11 8 6
1790.0 6 4 4 3 5 3 3 5 3 2
1830.0 5 5 4 6 6 4 4 6 8 9
1870.0 10 8 7 6 6 3 2 1 1 3
1910.0 6 3 1 2 4 4 3 2 2 1
1950.0 1 2 2 0 0 0 2 5 2 0
1990.0 0 2 4 5 2 0 3 0 1 3
2030.0 4 4 3 3 5 6 6 5 3 3
2070.0 4 6 8 9 8 6 3 4 10 9
2110.0 5 8 8 8 11 11 12 14 12 11
2150.0 12 11 12 15 15 13 13 14 17 22
2190.0 25 22 18 18 20 18 18 21 22 20
2230.0 17 17 18 18 16 14 13 12 13 13
2270.0 14 15 14 17 18 14 15 19 19 21
2310.0 23 25 21 22 28 30 28 26 27 26
2350.0 26 28 25 21 18 14 11 10 7 7
2390.0 9 9 8 7 8 11 13 10 7 5
2430.0 7 11 11 7 7 12 15 13 12 9
2470.0 9 10 13 15 13 14 12 10 14 14
2510.0 10 13 14 15 17 18 19 18 17 19
2550.0 19 23 30 31 34 37 38 38 38 40
2590.0 43 44 48 53 51 47 48 51 49 51
2630.0 54 51 51 51 53 55 51 54 59 58
2670.0 58 60 62 63 67 70 70 69 72 74
2710.0 75 80 83 81 83 90 91 94 96 102
2750.0 107 115 114 112 119 125 131 137 149 161
2790.0 176 189 200 208 225 251 281 316 356 404
2830.0 467 550 649 782 957 1202 1537 1954 2443 2977
2870.0 3500 3896 4083 4057 3871 3614 3425 3366 3433 3589
2910.0 3784 4002 4225 4451 4687 4957 5311 5820 6519 7412
2950.0 8403 9326 10000 9996 9109 7663 6020 4465 3206 2318
2990.0 1742 1368 1122 935 783 671 584 507 445 390
3030.0 337 297 263 232 210 192 173 150 138 134
3070.0 123 112 100 90 85 79 73 67 62 63
3110.0 60 54 47 43 45 44 39 34 31 31
3150.0 33 32 31 26 24 29 29 20 23 27
3190.0 23 25 28 23 19 15 16 17 19 18
3230.0 15 11 10 11 11 12 12 8 7 11
3270.0 9 7 13 11 5 4 9 10 5 5
3310.0 8 7 6 6 9 14 10 10 13 15
3350.0 17 21 24 22 18 22 22 20 25 27
3390.0 24 21 26 31 29 28 27 25 27 32
3430.0 34 33 31 28 26 23 23 25 29 33
3470.0 29 26 30 36 37 35 40 38 38 41
3510.0 36 32 32 36 37 31 24 18 22 31
3550.0 32 26 31 36 32 25 23 29 34 35
3590.0 39 41 44 44 38 43 55 65 74 98
3630.0 134 176 234 313 403 470 490 468 411 314
3670.0 228 162 115 87 74 69 65 59 54 55
3710.0 51 46 46 43 48 53 54 49 45 50
3750.0 47 39 40 49 48 41 47 50 51 52
3790.0 51 53 53 51 52 59 64 54 48 58
3830.0 58 56 59 51 52
##END=
