##TITLE=2-Cyclopentylcyclopentanone
##JCAMP-DX=4.24
##DATA TYPE=INFRARED SPECTRUM
##ORIGIN=NIST Mass Spectrometry Data Center
##OWNER=NIST Standard Reference Data Program
Collection (C) 2018 copyright by the U.S. Secretary of Commerce
on behalf of the United States of America. All rights reserved.
##CAS REGISTRY NO=4884-24-6
##MOLFORM=C 10 H 16 O
##$NIST SOURCE=MSDC-IR
##SPECTROMETER/DATA SYSTEM=HP-GC/MS/IRD
##STATE=gas
##XUNITS=1/CM
##YUNITS=ABSORBANCE
##XFACTOR=1.0
##YFACTOR=0.000003900
##DELTAX=4.0
##FIRSTX=550.0
##LASTX=3846.0
##FIRSTY=0.000550
##MAXX=3846
##MINX=550
##MAXY=0.039
##MINY=0
##NPOINTS=825
##XYDATA=(X++(Y..Y))
550.0 141 117 104 106 100 102 113 114 120 138
590.0 139 125 129 138 130 118 91 81 86 66
630.0 61 71 60 50 46 41 36 31 34 33
670.0 32 32 18 3 7 9 10 18 24 11
710.0 0 15 22 27 25 30 39 40 40 36
750.0 36 44 52 53 56 64 75 83 90 104
790.0 126 146 176 201 236 286 328 351 295 280
830.0 296 243 196 153 123 108 102 104 106 103
870.0 100 112 134 159 182 196 199 194 191 188
910.0 190 197 216 251 290 324 340 336 314 290
950.0 270 245 218 205 197 183 189 205 228 279
990.0 336 373 392 386 350 315 283 256 234 214
1030.0 201 193 192 189 184 191 198 216 245 275
1070.0 312 346 360 365 373 383 393 419 463 513
1110.0 561 608 667 730 815 937 1118 1353 1603 1815
1150.0 1932 1926 1803 1584 1322 1051 812 624 496 424
1190.0 380 342 311 285 260 242 226 216 213 219
1230.0 237 259 279 298 316 331 354 393 436 458
1270.0 452 415 353 287 232 208 206 222 261 307
1310.0 347 366 358 331 301 274 264 271 272 282
1350.0 313 337 343 327 279 222 176 139 123 130
1390.0 146 181 232 298 411 535 625 650 583 470
1430.0 371 325 326 361 450 545 632 668 642 600
1470.0 561 523 450 373 318 260 198 157 126 134
1510.0 132 101 93 86 70 56 51 64 76 59
1550.0 42 48 66 43 25 27 30 31 18 18
1590.0 22 23 22 26 29 33 45 49 48 47
1630.0 45 57 63 67 82 104 113 93 93 109
1670.0 129 148 165 201 231 251 311 385 444 499
1710.0 571 693 855 1064 1413 1979 2829 3940 5227 6434
1750.0 7229 7432 6955 5822 4390 3050 1997 1302 898 658
1790.0 519 426 365 320 265 230 204 176 154 141
1830.0 123 103 92 88 78 64 56 50 49 58
1870.0 58 51 47 45 44 43 36 31 30 25
1910.0 23 26 28 25 20 20 21 18 19 21
1950.0 18 20 23 20 18 18 17 17 15 14
1990.0 16 13 10 7 6 9 8 10 8 5
2030.0 5 4 5 8 10 13 12 8 6 4
2070.0 5 3 2 4 6 6 9 12 15 9
2110.0 5 5 5 3 2 0 6 11 10 12
2150.0 12 10 11 10 11 16 18 15 12 16
2190.0 22 23 19 20 22 21 21 22 24 22
2230.0 22 20 19 20 21 25 23 20 24 25
2270.0 22 22 22 24 27 27 30 32 31 28
2310.0 26 31 36 37 36 34 35 37 41 36
2350.0 31 40 42 38 39 32 23 20 19 19
2390.0 17 12 12 12 12 15 15 15 15 12
2430.0 11 11 10 8 11 13 12 10 10 9
2470.0 7 4 7 11 9 2 1 5 7 5
2510.0 5 7 7 8 11 12 10 8 9 13
2550.0 10 9 15 17 19 24 29 31 30 31
2590.0 33 33 37 35 34 38 39 34 32 29
2630.0 28 30 33 30 31 39 36 29 27 31
2670.0 32 31 31 33 36 35 35 39 43 41
2710.0 41 43 46 50 51 59 65 64 69 74
2750.0 81 82 87 93 103 115 123 131 142 154
2790.0 166 188 208 226 248 278 311 338 373 418
2830.0 474 556 664 802 967 1161 1399 1702 2110 2629
2870.0 3234 3809 4203 4352 4236 3890 3462 3105 2888 2837
2910.0 2940 3145 3395 3653 3908 4191 4554 5054 5734 6589
2950.0 7541 8549 9490 10000 9904 9197 7901 6259 4601 3238
2990.0 2290 1676 1282 1034 863 742 653 579 514 462
3030.0 411 364 321 281 243 203 177 164 147 133
3070.0 125 117 111 101 95 90 86 76 71 70
3110.0 67 61 58 60 56 55 52 46 44 41
3150.0 37 36 34 33 37 35 32 33 33 30
3190.0 26 25 26 26 24 19 18 19 21 18
3230.0 20 16 10 12 9 8 14 12 7 7
3270.0 7 4 12 18 13 11 6 4 6 7
3310.0 8 3 0 3 2 3 9 8 7 6
3350.0 4 1 3 7 10 16 13 11 12 11
3390.0 11 11 9 14 17 19 17 21 21 21
3430.0 23 27 31 26 28 33 39 53 64 71
3470.0 92 119 139 148 149 145 127 112 111 94
3510.0 74 60 53 55 56 43 42 45 52 52
3550.0 36 23 22 33 42 29 21 27 31 39
3590.0 30 18 15 20 36 40 31 29 20 26
3630.0 31 11 11 13 30 42 26 22 19 16
3670.0 22 34 32 17 22 30 19 17 22 28
3710.0 39 36 30 34 37 35 46 39 41 50
3750.0 42 37 33 27 27 29 21 16 16 15
3790.0 12 16 27 35 34 31 40 44 38 35
3830.0 29 28 38 34 22
##END=
