##TITLE=Methyl thiosalicylate
##JCAMP-DX=4.24
##DATA TYPE=INFRARED SPECTRUM
##ORIGIN=EPA-IR VAPOR PHASE LIBRARY
##OWNER=SRD/NIST
Collection (C) 2018 copyright by the U.S. Secretary of Commerce
on behalf of the United States of America. All rights reserved.
##CAS REGISTRY NO=4892-02-8
##MOLFORM=C 8 H 8 O 2 S
##$NIST SOURCE=MSDC-IR
##STATE=gas
##XUNITS=1/CM
##YUNITS=ABSORBANCE
##XFACTOR=1.
##YFACTOR=0.001
##DELTAX=1.92898
##FIRSTX=549.8
##LASTX=4000.7
##FIRSTY=0.9678
##MAXX=4000.7
##MINX=549.759
##MAXY=0.22226
##MINY=0
##NPOINTS=1790
##XYDATA=(X++(Y..Y))
549.759 0.9678 1.0245 0.9969 0.7456 0.8803 1.0274 1.16 1.27 0.9573 0.8011
569.049 0.8336 0.7277 0.6707 0.7619 0.7404 0.7034 1.0847 1.17 0.7509 0.6154
588.339 0.8314 0.9071 0.8448 0.8033 0.8537 0.8834 0.8288 0.9473 0.896 0.7283
607.628 0.7577 0.7289 0.7823 0.9022 0.8959 0.9176 0.9146 1.0693 1.0152 0.903
626.918 0.8122 0.803 1.0381 1.26 1.37 1.67 2.38 3.2 4.31 5.57
646.208 6.43 7.08 7.96 8.44 8.59 8.63 8.24 7.31 5.83 4.44
665.498 3.67 3.23 3 3.09 3.24 3.36 3.66 4.25 4.85 5.58
684.787 6.18 7.01 8.21 9.06 9.44 9.54 9.38 9.19 9.16 9.09
704.077 9.13 9.39 9.83 10.37 11.2 12.34 13.71 15.55 18.14 21.37
723.367 25.3 30.17 35.7 41.15 45.98 50.83 57.66 68.27 80.01 80.5
742.657 67.1 54.9 48.4 43.05 37.19 30.69 24.35 18.69 14.27 11.15
761.947 8.81 7.31 6.43 5.62 4.92 4.43 4.21 3.96 3.66 3.44
781.236 3.22 3.11 3.07 2.95 2.73 2.61 2.73 2.85 2.94 3.14
800.526 3.54 3.94 4.29 4.86 5.5 6.23 7.21 8.46 9.56 10.39
819.816 10.92 11.16 11.13 10.91 10.49 9.68 8.64 7.58 6.4 5.12
839.106 4.3 3.92 3.48 3.17 2.94 2.67 2.53 2.52 2.57 2.45
858.395 2.32 2.29 2.26 2.23 2.31 2.34 2.37 2.42 2.6 2.76
877.685 2.89 3.24 3.37 3.56 3.81 4.06 4.45 4.69 4.83 5.29
896.975 5.71 5.82 6.11 6.24 6.27 6.33 6.05 5.8 5.56 5.22
916.265 4.82 4.34 3.96 3.64 3.32 3.12 3.15 3.28 3.39 3.63
935.555 3.97 4.32 4.74 5.19 5.8 6.34 6.72 7.28 7.59 7.72
954.844 8.13 8.59 8.82 8.9 8.91 8.73 8.3 7.96 7.72 7.39
974.134 7.06 6.61 6.09 5.6 5.23 4.84 4.32 4.04 3.9 3.83
993.424 3.76 3.56 3.34 3.29 3.32 3.22 3.31 3.59 3.7 3.71
1012.714 3.93 4.3 4.57 5.08 5.49 6.08 7.27 8.23 9.73 11.96
1032.003 14.45 16.94 19.1 21.03 22.74 24.33 26.77 30.05 33.64 38.3
1051.293 43.73 50.46 58.46 66.72 74.06 79.48 82.74 83.78 82.03 77.57
1070.583 70.93 62.25 52.52 42.88 34.37 27.74 23.63 21.38 19.86 19.61
1089.873 20.27 21.14 22.83 24.93 28.31 33.42 39.32 45.89 52.76 59.2
1109.163 65.25 70.19 73.44 75.51 75.8 74.51 72.1 68.43 64.28 60.41
1128.452 57.29 55.4 54.44 54.89 56.39 57.92 58.78 58.72 57.4 55.24
1147.742 52.91 50.31 47.43 43.74 39.99 37.2 34.47 31.79 30.35 29.16
1167.032 28.17 27.49 26.25 24.77 23.42 22.49 22.2 22.59 23.38 24.05
1186.322 25.08 26.04 26.08 25.65 25.38 25.09 24.32 23.19 21.96 20.88
1205.611 20.3 19.8 19.51 19.95 20.65 21.36 22.67 24.75 27.46 31.02
1224.901 35.73 42.15 50.6 61.4 74.52 90.71 110.01 131.05 153.03 174.28
1244.191 193.01 208.07 218.21 222.26 219.45 210.42 196.24 178.11 158.17 140.15
1263.481 126.17 116.87 112.37 112.23 116.03 122.37 130.17 138.27 145.26 150.57
1282.771 153.65 154.09 152.42 148.79 143.24 135.87 126.81 116.16 104.06 91.3
1302.060 78.88 67.48 57.49 49.05 41.79 35.51 30.17 25.75 22.35 19.83
1321.350 17.91 16.3 15 13.94 12.95 12.09 11.4 10.72 10.09 9.48
1340.640 8.99 8.6 8.2 7.9 7.62 7.36 7.18 7.03 6.82 6.63
1359.930 6.49 6.31 6.13 6 5.92 5.78 5.69 5.62 5.58 5.56
1379.219 5.5 5.51 5.52 5.51 5.5 5.5 5.52 5.61 5.74 5.88
1398.509 6.05 6.21 6.42 6.77 7.19 7.7 8.3 9.05 9.97 11.19
1417.799 12.82 14.9 17.6 21.02 25.21 29.97 35.17 40.47 45.27 48.88
1437.089 51.14 51.92 50.68 48.02 44.27 38.73 32.3 26.88 23.33 21.61
1456.378 21.36 22.13 23.51 25.2 26.77 27.92 28.53 28.6 28.21 27.34
1475.668 25.74 23.31 20.44 17.52 14.9 12.73 10.9 9.41 8.26 7.35
1494.958 6.69 6.12 5.68 5.3 5.02 4.76 4.54 4.43 4.22 4.07
1514.248 3.99 3.9 3.91 3.95 3.91 3.91 3.99 4.05 4.09 4.16
1533.538 4.23 4.29 4.45 4.75 5.03 5.34 5.73 6.26 7.08 7.93
1552.827 8.9 10.11 11.42 12.73 13.9 14.9 15.68 16.23 16.54 16.63
1572.117 16.42 16.09 15.94 16.13 16.71 17.7 18.87 20.04 21.09 21.59
1591.407 21.55 21.15 20.29 19.01 17.41 15.49 13.51 11.69 10.05 8.7
1610.697 7.71 6.97 6.39 5.91 5.6 5.42 5.25 5.17 5.07 5.02
1629.986 5.01 5.02 5.08 5.13 5.25 5.37 5.49 5.62 5.72 5.84
1649.276 5.97 6.09 6.21 6.32 6.45 6.62 6.77 6.96 7.16 7.34
1668.566 7.54 7.88 8.36 8.85 9.44 10.13 10.94 11.94 12.99 14.03
1687.856 15.25 16.64 18.13 19.75 21.56 23.62 26.1 29.32 33.08 37.74
1707.146 43.38 49.85 57.06 64.85 73.06 81.48 89.88 97.64 104.87 111.82
1726.435 118.71 125.58 131.92 136.94 139.85 140.28 138.56 135.21 130.65 124.78
1745.725 116.63 105.49 92.13 78.36 66.09 56.14 48.54 43.1 39.13 36
1765.015 33.36 30.98 28.59 26.23 23.89 21.45 18.97 16.5 14.08 11.97
1784.305 10.22 8.68 7.4 6.41 5.64 5.09 4.72 4.49 4.32 4.19
1803.594 4.14 4.1 4.06 3.99 3.89 3.73 3.57 3.44 3.32 3.17
1822.884 3 2.87 2.8 2.81 2.8 2.82 2.8 2.71 2.64 2.53
1842.174 2.45 2.35 2.19 2.05 1.97 1.91 1.84 1.81 1.76 1.72
1861.464 1.69 1.65 1.7 1.75 1.74 1.79 1.84 1.9 1.97 2.02
1880.754 2.06 2.16 2.23 2.23 2.22 2.25 2.32 2.33 2.35 2.44
1900.043 2.51 2.58 2.62 2.71 2.87 3 3.19 3.44 3.68 3.95
1919.333 4.15 4.26 4.34 4.37 4.32 4.27 4.13 3.95 3.84 3.71
1938.623 3.63 3.57 3.53 3.48 3.39 3.33 3.23 3.12 2.95 2.7
1957.913 2.54 2.34 2.08 1.85 1.64 1.48 1.35 1.29 1.23 1.17
1977.202 1.1314 1.0631 1.0439 1.1085 1.117 1.0828 1.0821 1.092 1.1122 1.1274
1996.492 1.18 1.25 1.25 1.26 1.38 1.45 1.46 1.5 1.56 1.63
2015.782 1.66 1.71 1.76 1.76 1.78 1.85 1.85 1.84 1.86 1.8
2035.072 1.71 1.63 1.56 1.53 1.56 1.54 1.51 1.53 1.6 1.63
2054.362 1.66 1.73 1.81 1.97 2.13 2.21 2.29 2.43 2.5 2.54
2073.651 2.58 2.57 2.52 2.48 2.41 2.32 2.25 2.18 2.07 1.95
2092.941 1.93 1.89 1.86 1.87 1.82 1.76 1.71 1.67 1.59 1.59
2112.231 1.52 1.45 1.39 1.29 1.22 1.2 1.17 1.1214 1.043 0.997
2131.521 1.0018 0.9629 0.9385 0.9439 0.9097 0.8727 0.831 0.8032 0.8293 0.7949
2150.810 0.7639 0.8009 0.8054 0.8311 0.8569 0.8471 0.874 0.8662 0.8496 0.8649
2170.100 0.8886 0.8343 0.7904 0.7941 0.7868 0.7733 0.7427 0.7545 0.781 0.7814
2189.390 0.7991 0.815 0.8423 0.883 0.8812 0.8552 0.8933 0.9571 0.966 0.9733
2208.680 1.0135 1.0126 1.0211 1.0381 1.0368 1.0381 0.9851 0.9619 0.9201 0.8509
2227.970 0.8806 0.8921 0.8463 0.8296 0.887 0.9335 0.8944 0.8841 0.8697 0.8772
2247.259 0.9089 0.9146 0.9507 0.9866 0.9553 0.9686 0.9672 0.9029 0.9285 0.9385
2266.549 0.9248 0.9753 0.9969 1.0335 1.0563 1.0242 1.061 1.0786 0.9769 0.9756
2285.839 1.0428 1.0615 1.0501 1.0186 1.0846 1.1389 1.1192 1.1363 1.1306 1.0984
2305.129 1.1076 1.14 1.15 1.1023 1.0887 1.0681 1.0017 1.0767 1.18 1.18
2324.418 1.15 1.15 1.19 1.25 1.24 1.18 1.18 1.18 1.129 1.0667
2343.708 1.0803 1.103 1.0182 0.9869 1.0356 1.0427 1.0537 1.0445 1.0023 1.0113
2362.998 1.0685 1.15 1.0553 1.0144 1.0972 1.15 1.1289 1.0697 0.9853 0.9337
2382.288 1.0569 1.15 1.1048 1.0991 1.1079 1.0514 1.0573 1.0362 0.9722 0.9277
2401.578 0.9238 0.941 0.9795 0.9458 0.9058 0.9471 0.9214 0.9407 0.9252 0.913
2420.867 0.89 0.8902 0.9125 0.9117 0.9944 0.9079 0.7983 0.8398 0.8585 0.8741
2440.157 0.8319 0.7831 0.8525 0.8912 0.8536 0.8813 0.9128 0.8305 0.8026 0.8282
2459.447 0.8663 0.8637 0.8916 0.9363 0.9115 0.8984 0.8947 0.918 0.9802 0.9997
2478.737 1.035 1.131 1.18 1.22 1.3 1.36 1.41 1.52 1.61 1.7
2498.026 1.82 1.9 1.98 2.08 2.28 2.43 2.49 2.51 2.64 2.9
2517.316 3.06 3.12 3.24 3.51 3.78 4.06 4.33 4.65 5.1 5.66
2536.606 6.27 6.88 7.55 8.35 9.14 9.77 10.32 10.98 11.61 12.09
2555.896 12.59 13.09 13.61 14.18 14.67 15.05 15.35 15.64 15.85 15.97
2575.186 15.98 15.71 15.17 14.41 13.42 12.31 11.16 9.92 8.73 7.54
2594.475 6.49 5.57 4.82 4.29 3.83 3.51 3.3 3.13 3.04 3.04
2613.765 3.1 3.05 2.99 3.01 3 2.9 2.84 2.7 2.58 2.5
2633.055 2.28 2.15 2.06 1.87 1.75 1.62 1.48 1.4 1.35 1.25
2652.345 1.16 1.0976 0.9963 0.9589 0.9588 0.8706 0.9138 0.9016 0.7574 0.7415
2671.634 0.6854 0.5763 0.5375 0.5227 0.494 0.4885 0.5258 0.5691 0.5553 0.5345
2690.924 0.5334 0.6016 0.7185 0.7372 0.6791 0.7484 0.7666 0.7373 0.819 0.8291
2710.214 0.9183 1.0189 0.9377 0.9046 1.0088 1.0131 1.003 1.0308 0.9694 0.9894
2729.504 0.9597 0.8772 0.9488 0.9607 0.8232 0.7357 0.7069 0.7009 0.75 0.8134
2748.794 0.7951 0.7393 0.699 0.7172 0.7507 0.7389 0.7452 0.7633 0.7914 0.7631
2768.083 0.7411 0.6727 0.5452 0.5043 0.5209 0.5714 0.6466 0.6889 0.6491 0.7118
2787.373 0.76 0.7458 0.7954 0.8436 0.8636 0.9459 1.0074 0.954 0.9963 1.1023
2806.663 1.25 1.27 1.26 1.28 1.36 1.4 1.43 1.62 1.67 1.66
2825.953 1.81 2 2.19 2.49 2.88 3.16 3.66 4.44 5.02 5.59
2845.242 6.2 6.6 6.9 6.93 6.81 6.55 6 5.33 4.67 4
2864.532 3.48 3.26 2.97 2.8 2.9 2.92 2.88 2.92 3.05 3.14
2883.822 3.19 3.46 3.76 3.98 4.28 4.56 4.81 5.12 5.37 5.58
2903.112 5.68 5.73 5.82 6 6.23 6.3 6.33 6.3 6.17 6.19
2922.401 6.24 6.23 6.33 6.25 6.18 6.24 6.38 6.66 7.1 7.69
2941.691 8.62 9.99 11.76 14.16 17.54 22.14 27.26 32.02 35.47 37.16
2960.981 38.07 37.88 36.11 33.66 30.18 25.16 19.68 15.17 12.15 10.27
2980.271 9.12 8.41 8.08 7.99 8.1 8.46 8.72 8.92 9.24 9.67
2999.561 10.1 10.54 10.8 10.86 10.84 10.74 10.67 10.53 10.45 10.44
3018.850 10.41 10.27 10.17 10.22 10.07 9.95 9.85 9.59 9.24 8.87
3038.140 8.49 8.14 7.83 7.58 7.63 7.86 8.44 9.39 10.66 12.42
3057.430 14.27 16.03 17.69 19.27 20.7 21.86 22.48 22.51 21.85 20.49
3076.720 18.84 17.42 16.05 14.42 12.74 11.04 9.62 8.5 7.79 7.36
3096.009 6.92 6.53 6.06 5.68 5.33 4.87 4.61 4.29 3.95 3.81
3115.299 3.67 3.48 3.47 3.46 3.41 3.41 3.33 3.16 2.98 2.84
3134.589 2.71 2.61 2.5 2.25 1.97 1.95 1.84 1.59 1.53 1.51
3153.879 1.37 1.25 1.19 1.21 1.17 1.0349 1.0589 1.0652 1.0499 1.0687
3173.169 1.0614 1.049 0.9642 0.8587 0.7496 0.6469 0.57 0.6892 0.8122 0.6692
3192.458 0.5608 0.5724 0.5571 0.5343 0.5957 0.5491 0.4368 0.289 0.3094 0.458
3211.748 0.3325 0.2996 0.4345 0.4908 0.4784 0.3643 0.3299 0.3636 0.4065 0.2807
3231.038 0.13382 0.1963 0.3155 0.20301 0.1624 0.2125 0.18979 0.2795 0.249 0.3001
3250.328 0.2843 0.128 0.1162 0.1115 0.281 0.3925 0.2676 0.22833 0.3372 0.441
3269.617 0.4204 0.4233 0.4041 0.20493 0.242 0.3833 0.3307 0.2821 0.2616 0.3346
3288.907 0.413 0.4978 0.5129 0.4311 0.3617 0.331 0.351 0.4336 0.4695 0.4095
3308.197 0.3424 0.3169 0.3742 0.3563 0.3702 0.3691 0.3792 0.4345 0.4775 0.4599
3327.487 0.4402 0.4155 0.23495 0.16272 0.2513 0.3716 0.433 0.3918 0.3958 0.4565
3346.777 0.4581 0.3618 0.2734 0.4205 0.4296 0.332 0.2988 0.22867 0.2771 0.3598
3366.066 0.3244 0.3223 0.3872 0.495 0.4696 0.4329 0.6457 0.6126 0.4757 0.4613
3385.356 0.4336 0.5003 0.552 0.5658 0.5974 0.6231 0.5815 0.6432 0.7243 0.683
3404.646 0.7855 0.9793 1.1098 1.14 1.0653 1.0296 1.1325 1.36 1.38 1.16
3423.936 1.1172 1.3 1.45 1.47 1.49 1.5 1.49 1.5 1.53 1.55
3443.225 1.74 1.8 1.83 1.87 1.83 1.86 1.88 2.07 2.11 2.08
3462.515 2.04 2.03 2.03 1.82 1.76 1.65 1.53 1.51 1.42 1.45
3481.805 1.37 1.26 1.24 1.22 1.16 1.1087 1.0458 0.9398 0.9423 1.0153
3501.095 0.9264 0.8552 0.8487 0.8103 0.8331 0.848 0.9202 0.7838 0.7199 0.7575
3520.385 0.6877 0.6352 0.622 0.61 0.4892 0.5052 0.491 0.5034 0.5654 0.4463
3539.674 0.3192 0.4656 0.5116 0.4005 0.3299 0.2577 0.2671 0.2243 0.2592 0.3425
3558.964 0.3581 0.3407 0.288 0.23434 0.16434 0.149938 0.20044 0.0738 0 0.3044
3578.254 0.3958 0.16637 0.16385 0.2407 0.23805 0.19552 0.23487 0.353 0.389 0.295
3597.544 0.14557 0.19151 0.21907 0.15358 0.16365 0.18966 0.18661 0.18914 0.22376 0.17884
3616.833 0.1501 0.1153 0.0939 0.0763 0.144751 0.3005 0.2472 0.18795 0.2661 0.2726
3636.123 0.148414 0.0478 0.17862 0.236 0.2673 0.3254 0.258 0.19767 0.241 0.2976
3655.413 0.2871 0.19002 0.0895 0.17481 0.17097 0.19296 0.2401 0.20942 0.2454 0.2884
3674.703 0.2929 0.2419 0.2268 0.21676 0.2578 0.3289 0.17955 0.2635 0.2813 0.19873
3693.993 0.4299 0.3573 0.16818 0.16974 0.22012 0.21212 0.16936 0.17463 0.3309 0.3371
3713.282 0.2477 0.2641 0.22916 0.2449 0.2702 0.19344 0.20729 0.2577 0.3618 0.3829
3732.572 0.3245 0.3984 0.3742 0.4106 0.5148 0.4658 0.4105 0.4614 0.4658 0.4502
3751.862 0.429 0.2847 0.23808 0.3012 0.3893 0.323 0.19748 0.3742 0.4534 0.3433
3771.152 0.2574 0.2902 0.3316 0.2817 0.2813 0.3194 0.3899 0.4046 0.31 0.3915
3790.441 0.4468 0.4247 0.3231 0.3258 0.6179 0.5719 0.4976 0.4116 0.3179 0.3604
3809.731 0.2572 0.23953 0.3514 0.3428 0.29 0.3605 0.4329 0.3942 0.3172 0.2603
3829.021 0.2657 0.2923 0.2564 0.15832 0.143499 0.20272 0.23844 0.3503 0.249 0.18098
3848.311 0.2595 0.3352 0.3776 0.2698 0.305 0.3081 0.20303 0.141206 0.13858 0.142765
3867.601 0.19982 0.2497 0.19508 0.22248 0.2625 0.2369 0.2724 0.3408 0.486 0.5874
3886.890 0.496 0.4502 0.3906 0.2938 0.3179 0.3167 0.23464 0.21014 0.0705 0.0659
3906.180 0.2648 0.3323 0.4293 0.4638 0.4894 0.3739 0.146455 0.16892 0.2736 0.2471
3925.470 0.23364 0.2649 0.242 0.324 0.3836 0.4057 0.3251 0.18608 0.20735 0.19004
3944.760 0.147114 0.2604 0.3791 0.2733 0.21175 0.18446 0.0513 0.2767 0.4021 0.20552
3964.049 0.21434 0.22345 0.3684 0.4789 0.3134 0.159 0.1003 0.21528 0.2833 0.3066
3983.339 0.3263 0.3646 0.3324 0.21625 0.19333 0.13306 0.21589 0.2705 0.2702 0.3289
##END=
