##TITLE=5-Chloro-1-methyl-4-nitroimidazole
##JCAMP-DX=4.24
##DATA TYPE=INFRARED SPECTRUM
##ORIGIN=NIST Mass Spectrometry Data Center
##OWNER=NIST Standard Reference Data Program
Collection (C) 2018 copyright by the U.S. Secretary of Commerce
on behalf of the United States of America. All rights reserved.
##CAS REGISTRY NO=4897-25-0
##MOLFORM=C 4 H 4 Cl N 3 O 2
##$NIST SOURCE=MSDC-IR
##SPECTROMETER/DATA SYSTEM=HP-GC/MS/IRD
##STATE=gas
##XUNITS=1/CM
##YUNITS=ABSORBANCE
##XFACTOR=1.0
##YFACTOR=0.000001500
##DELTAX=4.0
##FIRSTX=550.0
##LASTX=3846.0
##FIRSTY=0.000170
##MAXX=3846
##MINX=550
##MAXY=0.015
##MINY=0
##NPOINTS=825
##XYDATA=(X++(Y..Y))
550.0 113 109 47 60 75 61 38 17 8 14
590.0 10 2 55 72 55 81 119 159 223 325
630.0 416 452 489 533 552 620 673 563 402 291
670.0 202 147 111 109 128 140 147 107 81 107
710.0 115 122 189 220 178 159 141 110 105 125
750.0 155 200 237 211 177 183 169 172 212 246
790.0 344 492 617 761 1004 1184 1588 2783 3702 3984
830.0 3872 3359 2195 886 352 206 170 149 128 111
870.0 112 109 96 93 100 108 88 78 72 48
910.0 35 49 59 57 71 59 50 55 51 71
950.0 72 60 61 62 77 102 130 145 162 213
990.0 328 507 699 829 865 870 808 591 348 210
1030.0 151 133 120 124 174 175 146 122 125 103
1070.0 76 87 82 69 76 89 108 136 162 221
1110.0 293 410 589 780 973 1097 1084 1046 883 617
1150.0 440 303 203 155 134 120 106 94 105 117
1190.0 110 110 133 174 222 341 514 617 649 628
1230.0 524 352 235 201 209 247 315 416 571 847
1270.0 1307 1961 2708 3326 3590 3459 2939 2127 1333 822
1310.0 564 457 459 539 700 953 1313 1792 2386 3080
1350.0 3757 4237 4409 4209 3641 2819 2014 1455 1125 933
1390.0 797 717 682 681 698 729 807 902 934 913
1430.0 871 784 663 579 556 591 618 676 783 905
1470.0 1075 1332 1750 2410 3253 4069 4514 4506 4126 3390
1510.0 2561 2051 1850 1762 1734 1787 2020 2558 3549 5002
1550.0 6837 8652 9825 10000 9300 7751 5592 3544 2338 1735
1590.0 1475 1382 1374 1390 1355 1243 1065 885 706 522
1630.0 358 239 187 167 133 97 85 102 100 83
1670.0 74 75 74 46 33 60 47 22 36 58
1710.0 72 45 21 52 70 60 52 59 70 70
1750.0 61 62 62 65 58 31 23 37 38 35
1790.0 28 27 32 26 28 28 16 21 23 13
1830.0 13 28 37 24 21 32 45 51 46 49
1870.0 49 49 51 52 54 54 51 45 42 41
1910.0 43 36 24 27 23 14 17 23 31 27
1950.0 24 27 20 12 9 12 18 20 20 25
1990.0 21 18 25 33 36 32 34 44 46 45
2030.0 40 32 30 28 30 29 30 36 32 23
2070.0 17 16 15 19 18 15 10 1 0 11
2110.0 19 22 23 12 11 8 6 15 18 15
2150.0 14 22 20 13 14 11 11 24 27 25
2190.0 22 20 28 25 10 7 15 8 2 21
2230.0 25 16 14 8 11 16 9 15 11 11
2270.0 28 29 21 21 27 22 14 15 13 19
2310.0 19 32 32 19 21 24 17 6 10 22
2350.0 24 15 15 19 19 19 31 44 49 65
2390.0 77 76 69 58 52 46 35 28 27 31
2430.0 35 31 46 62 43 30 40 38 34 34
2470.0 25 27 38 36 30 29 40 49 44 39
2510.0 40 41 47 50 54 67 54 47 61 69
2550.0 85 97 87 86 95 83 80 89 73 60
2590.0 64 55 44 42 37 34 43 56 61 60
2630.0 60 74 88 94 91 82 82 85 97 108
2670.0 103 105 107 114 139 148 150 150 127 120
2710.0 121 109 110 116 105 93 89 86 73 66
2750.0 68 79 84 77 87 101 102 102 109 123
2790.0 133 121 122 126 115 113 118 132 145 156
2830.0 169 185 208 230 251 254 235 231 233 227
2870.0 226 234 258 252 249 288 297 280 289 294
2910.0 302 317 307 289 294 311 311 317 348 370
2950.0 399 462 568 669 698 685 600 469 368 309
2990.0 276 245 219 221 226 227 213 199 193 175
3030.0 159 133 114 101 97 114 105 68 75 104
3070.0 109 101 92 97 91 101 101 82 92 108
3110.0 98 95 95 99 112 98 81 75 72 69
3150.0 58 43 44 57 51 40 46 57 44 37
3190.0 45 35 45 72 84 69 47 56 61 50
3230.0 54 52 33 19 17 29 53 66 60 42
3270.0 61 86 72 47 55 85 59 41 41 42
3310.0 45 43 46 56 61 48 71 68 36 45
3350.0 53 37 26 42 55 55 51 34 15 28
3390.0 42 36 38 50 62 62 63 48 37 56
3430.0 45 52 63 80 72 41 38 42 49 58
3470.0 64 55 53 50 55 57 62 41 21 34
3510.0 24 20 50 58 47 65 50 31 59 57
3550.0 53 81 85 78 59 47 59 61 45 36
3590.0 58 84 75 54 39 13 32 77 82 71
3630.0 82 87 61 45 27 18 44 76 72 53
3670.0 51 16 17 76 71 66 74 59 39 16
3710.0 16 46 44 48 75 41 19 44 21 0
3750.0 0 0 43 92 75 63 77 84 88 88
3790.0 88 87 83 57 45 54 37 37 64 65
3830.0 66 48 34 71 105
##END=
