##TITLE=2,5-Dihydroxyacetophenone
##JCAMP-DX=4.24
##DATA TYPE=INFRARED SPECTRUM
##ORIGIN=NIST Mass Spectrometry Data Center
##OWNER=NIST Standard Reference Data Program
Collection (C) 2018 copyright by the U.S. Secretary of Commerce
on behalf of the United States of America. All rights reserved.
##CAS REGISTRY NO=490-78-8
##MOLFORM=C 8 H 8 O 3
##$NIST SOURCE=MSDC-IR
##SPECTROMETER/DATA SYSTEM=HP-GC/MS/IRD
##STATE=gas
##XUNITS=1/CM
##YUNITS=ABSORBANCE
##XFACTOR=1.0
##YFACTOR=0.000002600
##DELTAX=4.0
##FIRSTX=550.0
##LASTX=3846.0
##FIRSTY=0.000390
##MAXX=3846
##MINX=550
##MAXY=0.026
##MINY=0
##NPOINTS=825
##XYDATA=(X++(Y..Y))
550.0 150 112 0 16 1 20 52 40 52 92
590.0 114 141 186 239 278 337 421 576 878 1322
630.0 1728 1911 1951 1759 1291 848 565 407 338 319
670.0 332 346 381 439 469 537 703 857 948 997
710.0 984 908 844 809 800 863 980 1104 1231 1342
750.0 1409 1412 1367 1309 1274 1292 1469 1910 2446 2683
790.0 2601 2297 1688 1057 756 748 933 1198 1306 1339
830.0 1347 1225 1141 1033 859 766 699 667 691 656
870.0 498 362 277 204 164 158 201 324 583 942
910.0 1224 1319 1245 980 584 334 301 365 502 724
950.0 991 1212 1309 1277 1106 823 550 361 235 157
990.0 108 83 74 65 64 87 119 139 171 180
1030.0 156 136 124 116 127 132 153 164 163 160
1070.0 149 165 192 204 214 254 297 334 356 358
1110.0 386 447 528 624 739 877 1028 1223 1496 1848
1150.0 2404 3355 4795 6509 8138 9324 9784 9434 8659 7848
1190.0 7225 7047 7312 7741 7986 7867 7244 6145 4921 3758
1230.0 2851 2331 2112 2149 2345 2592 2808 2958 3027 3046
1270.0 3145 3540 4408 5805 7546 9126 10000 9863 8727 6955
1310.0 5285 4257 3839 3676 3495 3211 2826 2432 2161 2091
1350.0 2192 2454 2883 3397 3824 4035 3972 3620 3102 2641
1390.0 2318 2125 2032 2008 2036 2114 2234 2376 2534 2681
1430.0 2768 2772 2725 2634 2541 2521 2602 2832 3264 3994
1470.0 5005 6261 7579 8593 8942 8635 7731 6297 4777 3479
1510.0 2482 1837 1420 1175 1028 948 920 911 911 920
1550.0 925 940 976 1042 1154 1354 1632 1961 2247 2440
1590.0 2463 2298 2017 1737 1559 1533 1658 1889 2152 2396
1630.0 2612 2847 3187 3771 4845 6374 8041 9161 9375 8598
1670.0 6897 4867 3177 2066 1364 951 715 572 484 428
1710.0 398 396 418 430 432 422 389 341 295 262
1750.0 227 198 179 160 140 127 113 100 86 76
1790.0 77 74 69 71 66 52 46 44 41 36
1830.0 38 38 36 34 44 52 57 75 91 90
1870.0 80 83 87 90 97 104 105 100 85 64
1910.0 42 28 21 17 12 8 8 10 15 22
1950.0 24 34 43 42 46 41 34 32 28 31
1990.0 32 29 34 39 39 37 35 38 38 40
2030.0 45 45 46 50 54 56 53 55 57 54
2070.0 51 49 42 34 35 37 34 28 20 17
2110.0 21 26 28 32 30 24 25 26 14 4
2150.0 5 9 9 10 6 6 10 11 14 18
2190.0 11 3 2 6 10 8 8 7 7 10
2230.0 13 13 14 13 15 26 31 23 20 28
2270.0 36 38 43 52 52 44 34 21 18 16
2310.0 16 18 21 33 39 37 45 48 49 54
2350.0 53 43 46 55 65 77 88 101 110 116
2390.0 119 119 105 98 96 82 77 77 74 74
2430.0 75 69 81 83 83 89 79 72 76 81
2470.0 85 79 70 71 74 64 60 65 70 70
2510.0 68 68 70 83 99 107 107 112 108 111
2550.0 124 122 117 107 98 101 101 100 94 99
2590.0 115 119 115 114 114 122 137 150 153 146
2630.0 139 126 129 131 125 126 124 138 154 153
2670.0 162 173 173 169 174 182 174 172 172 166
2710.0 166 170 164 163 171 177 181 177 174 194
2750.0 202 183 180 183 178 173 177 181 175 187
2790.0 201 195 191 197 194 186 186 194 200 200
2830.0 191 195 210 212 205 206 206 201 204 203
2870.0 196 205 203 210 217 220 226 234 248 247
2910.0 247 262 281 286 291 307 342 353 359 365
2950.0 356 359 366 374 385 410 434 455 460 462
2990.0 478 494 511 549 602 656 720 796 862 905
3030.0 930 964 1017 1044 1045 1059 1057 1039 1009 997
3070.0 1013 1010 1005 990 947 917 891 866 879 886
3110.0 891 915 928 922 904 893 895 900 890 876
3150.0 873 877 872 856 856 854 859 863 853 840
3190.0 832 828 828 819 807 823 833 808 782 783
3230.0 786 767 765 760 754 740 738 741 738 736
3270.0 739 743 738 742 750 740 735 732 720 719
3310.0 720 716 706 687 662 639 619 592 586 572
3350.0 531 516 511 489 473 451 437 437 439 422
3390.0 416 410 419 434 433 418 419 423 386 355
3430.0 335 341 352 345 323 297 293 292 276 274
3470.0 266 248 233 224 222 205 188 195 181 164
3510.0 151 141 133 128 137 141 128 112 109 89
3550.0 86 83 65 72 78 77 78 68 59 68
3590.0 83 86 74 76 87 100 126 155 185 232
3630.0 320 465 721 1130 1705 2449 2974 2983 2728 2173
3670.0 1305 618 283 144 88 51 30 11 1 6
3710.0 11 8 2 2 10 3 2 2 2 2
3750.0 4 16 25 28 18 2 2 1 8 30
3790.0 20 14 26 39 50 53 62 58 43 40
3830.0 29 22 27 30 33
##END=
