##TITLE=3,4-Pyridinedicarboxylic acid
##JCAMP-DX=4.24
##DATA TYPE=INFRARED SPECTRUM
##ORIGIN=EPA-IR VAPOR PHASE LIBRARY
##OWNER=SRD/NIST
Collection (C) 2018 copyright by the U.S. Secretary of Commerce
on behalf of the United States of America. All rights reserved.
##CAS REGISTRY NO=490-11-9
##MOLFORM=C 7 H 5 N O 4
##$NIST SOURCE=MSDC-IR
##STATE=gas
##XUNITS=1/CM
##YUNITS=ABSORBANCE
##XFACTOR=1.
##YFACTOR=0.001
##DELTAX=1.92898
##FIRSTX=549.8
##LASTX=4000.7
##FIRSTY=1.895
##MAXX=4000.7
##MINX=549.759
##MAXY=0.044595
##MINY=0
##NPOINTS=1790
##XYDATA=(X++(Y..Y))
549.759 1.895 1.625 1.565 1.845 1.685 1.645 1.375 1.2857 1.0557 0.6378
569.049 0.6444 0.9178 0.8856 0.7132 0.7272 0.6379 0.6765 0.6527 0.5486 0.8069
588.339 0.7306 0.40455 0.6182 0.74 0.5592 0.5353 0.7543 0.9024 0.9029 0.8011
607.628 0.7122 0.7975 0.6898 0.4938 0.5949 0.5848 0.6122 0.4555 0.6188 0.872
626.918 0.6111 0.5202 0.7221 0.8461 0.7996 0.8403 0.6881 0.8048 0.8354 0.496
646.208 0.5887 0.6094 0.33896 0.4421 0.5406 0.7136 0.7521 0.5509 0.8466 1.2144
665.498 1.2743 1.395 1.675 1.955 2.125 2.315 2.615 2.675 2.905 3.075
684.787 2.675 2.165 1.815 1.665 1.485 1.1279 0.9924 0.9139 0.9956 1.0085
704.077 1.053 1.2842 1.505 1.855 2.145 2.335 2.465 2.695 3.265 4.725
723.367 6.105 5.195 3.635 3.275 3.175 2.985 2.865 2.575 2.195 1.775
742.657 1.425 1.1786 1.0938 1.246 1.0677 0.9451 0.9463 0.9441 0.8859 0.8431
761.947 0.9827 0.9829 0.9871 0.9815 0.8428 0.6764 0.5667 0.5954 0.6093 0.5323
781.236 0.6151 0.7873 0.7657 0.7183 0.6128 0.6118 0.7182 0.5797 0.4506 0.5217
800.526 0.5065 0.6132 0.6221 0.4566 0.4753 0.4493 0.6835 0.6771 0.4648 0.5309
819.816 0.6073 0.7081 0.9485 1.0393 1.1304 1.555 1.725 1.755 2.085 2.415
839.106 2.415 2.425 2.515 2.465 2.575 2.805 3.125 2.785 2.085 2.005
858.395 2.255 2.425 2.405 2.405 2.605 2.895 3.355 3.815 4.175 4.795
877.685 5.455 6.175 7.165 8.275 9.255 10.265 11.465 12.815 14.355 15.915
896.975 17.405 19.045 20.605 21.475 21.795 21.875 21.525 21.085 20.525 19.285
916.265 17.355 15.245 13.045 10.435 7.895 5.935 4.335 3.065 2.285 1.705
935.555 1.307 1.2146 1.1051 1.0189 1.106 0.9127 0.8749 0.9137 0.7903 0.8555
954.844 0.9489 0.8669 0.7902 0.6413 0.4796 0.5913 0.7508 1.0339 1.085 0.8958
974.134 0.7037 0.6415 0.6162 0.4458 0.4899 0.4739 0.4759 0.7348 0.7577 0.571
993.424 0.41291 0.184 0.2635 0.6073 0.5405 0.5216 0.6269 0.662 0.6832 0.5209
1012.714 0.40481 0.5801 0.7005 0.7139 0.6044 0.5176 0.8242 0.4969 0.18 0.3075
1032.003 0.41232 0.6739 0.5037 0.41361 0.3009 0.32057 0.5852 0.4996 0.4907 0.4622
1051.293 0.686 0.9004 0.9376 1.0335 0.8872 0.7184 0.5831 0.5989 0.6962 0.7874
1070.583 0.8296 0.4679 0.015 0.324731 0.784 0.9763 1.1989 1.485 1.925 2.085
1089.873 2.495 2.875 2.765 3.205 3.985 4.545 4.985 4.935 4.825 4.835
1109.163 4.805 4.995 4.785 4.195 3.875 3.425 2.815 2.415 2.225 2.185
1128.452 2.065 1.745 1.555 1.735 1.825 1.585 1.3165 1.385 1.365 1.325
1147.742 1.355 1.475 1.435 1.415 1.0905 0.6312 1.0221 1.2064 1.1497 1.2215
1167.032 1.0984 0.6769 0.7285 1.069 0.9095 0.9459 1.1469 1.0708 1.2607 1.715
1186.322 1.785 1.565 1.695 1.955 2.125 2.575 3.005 3.285 3.725 4.155
1205.611 4.475 5.015 5.495 5.745 5.965 5.805 5.465 5.235 5.195 4.965
1224.901 4.315 4.015 3.575 2.965 2.805 2.755 2.485 2.185 2.265 2.135
1244.191 1.825 1.795 1.735 1.885 2.145 2.425 3.025 3.495 4.145 5.415
1263.481 6.645 8.455 10.865 13.145 15.105 16.495 17.315 17.935 18.225 18.045
1282.771 17.125 15.915 14.565 12.255 9.305 6.525 4.705 3.645 2.975 2.675
1302.060 2.505 2.315 2.135 1.995 1.765 1.545 1.355 1.2016 1.0883 0.9944
1321.350 0.9714 0.9036 0.8339 0.8274 0.7748 0.7502 0.7636 0.7832 0.7596 0.7295
1340.640 0.7255 0.7677 0.7939 0.7557 0.7327 0.7454 0.848 0.8934 0.8739 0.8679
1359.930 0.8185 0.7361 0.7012 0.7578 0.8106 0.8524 0.9126 0.9042 0.871 0.9326
1379.219 0.978 0.9979 1.0209 0.9868 0.9555 0.925 0.9372 0.9735 0.9615 1.012
1398.509 1.0965 1.1781 1.345 1.515 1.705 1.955 2.215 2.495 2.765 2.895
1417.799 2.835 2.655 2.625 2.785 2.835 2.615 2.235 1.845 1.565 1.405
1437.089 1.2355 1.1865 1.1199 1.0591 1.014 0.919 0.9358 0.9352 0.9147 0.9251
1456.378 0.9164 0.9574 0.9456 0.843 0.7807 0.7963 0.8249 0.8535 0.8835 0.8539
1475.668 0.8235 0.815 0.7616 0.6762 0.6491 0.5738 0.4837 0.5146 0.5429 0.5111
1494.958 0.5313 0.5751 0.5738 0.6478 0.6466 0.5841 0.608 0.6026 0.6056 0.6557
1514.248 0.6157 0.6013 0.7112 0.7391 0.6933 0.687 0.7361 0.8109 0.7971 0.688
1533.538 0.6312 0.6345 0.6628 0.6352 0.5688 0.5543 0.5836 0.6072 0.5591 0.5426
1552.827 0.5392 0.5347 0.5003 0.5115 0.6088 0.6294 0.7267 0.8521 0.9791 1.0571
1572.117 1.0883 1.2161 1.345 1.395 1.435 1.645 1.985 2.175 2.415 2.755
1591.407 2.975 3.225 3.475 3.725 3.925 3.855 3.675 3.335 2.855 2.415
1610.697 2.015 1.745 1.425 1.1158 0.9519 0.9073 0.9724 0.9262 0.8091 0.7535
1629.986 0.71 0.7619 0.7979 0.7782 0.7546 0.7797 0.8635 0.7953 0.7141 0.7619
1649.276 0.7904 0.8469 0.8773 0.8247 0.8006 0.792 0.7875 0.7764 0.7529 0.8107
1668.566 0.8893 0.8071 0.7748 0.8346 0.8167 0.8007 0.7653 0.7319 0.7767 0.7861
1687.856 0.7442 0.7378 0.7166 0.7798 0.8015 0.7836 0.8176 0.7651 0.8012 0.8544
1707.146 0.8944 0.8849 0.7932 0.8041 0.8661 0.8576 0.8955 0.9296 0.9098 0.9471
1726.435 0.936 0.9486 0.9889 0.9766 1.0306 1.0522 1.1555 1.2541 1.2721 1.355
1745.725 1.465 1.565 1.675 1.875 2.045 2.295 2.675 2.965 3.265 3.605
1765.015 4.015 4.515 4.975 5.375 5.845 6.355 6.825 7.385 8.005 8.635
1784.305 9.415 10.415 11.705 13.495 15.935 18.985 22.545 26.545 30.645 34.425
1803.594 37.455 39.765 41.695 43.525 44.595 44.095 41.925 38.725 35.405 31.805
1822.884 27.385 22.655 18.265 14.515 11.615 9.495 7.865 6.655 5.665 4.875
1842.174 4.285 3.765 3.455 3.365 3.325 3.425 3.735 4.335 5.135 6.065
1861.464 7.325 8.765 10.185 11.395 12.205 12.645 12.775 12.595 12.115 11.495
1880.754 10.775 9.525 7.575 5.615 4.055 2.935 2.345 2.045 1.855 1.735
1900.043 1.735 1.745 1.725 1.705 1.695 1.695 1.685 1.665 1.565 1.435
1919.333 1.435 1.365 1.2433 1.1604 1.0986 1.0763 1.0148 0.9447 0.8951 0.8874
1938.623 0.8915 0.8924 0.8423 0.8756 0.9532 0.9637 0.9438 0.9926 1.0579 0.9747
1957.913 0.9757 0.983 0.9408 0.9882 0.9676 0.9544 0.9103 0.9085 0.9942 0.993
1977.202 0.9004 0.8166 0.8499 0.934 0.9514 0.8999 0.8832 0.8818 0.934 0.9816
1996.492 0.9534 0.9409 0.9708 0.9732 0.9924 0.9696 0.9485 0.9948 0.9883 0.9112
2015.782 0.9012 0.9692 0.9479 0.8802 0.8589 0.8696 0.8515 0.8235 0.7919 0.7641
2035.072 0.7364 0.657 0.5988 0.6101 0.6372 0.7022 0.6765 0.6247 0.6353 0.5967
2054.362 0.5979 0.6278 0.5927 0.5948 0.6875 0.6589 0.5667 0.5746 0.6291 0.6048
2073.651 0.5594 0.5925 0.5834 0.5411 0.5245 0.5168 0.5269 0.5715 0.5836 0.5372
2092.941 0.5252 0.5464 0.5756 0.555 0.5321 0.5326 0.5351 0.5701 0.5254 0.4829
2112.231 0.5592 0.5902 0.5827 0.5608 0.5261 0.5859 0.5945 0.5784 0.6118 0.5967
2131.521 0.5308 0.4946 0.5569 0.5954 0.548 0.5159 0.4997 0.4778 0.5127 0.5397
2150.810 0.5436 0.5884 0.5922 0.5442 0.5623 0.5654 0.5809 0.6543 0.6671 0.709
2170.100 0.7996 0.7787 0.8047 0.78 0.653 0.7117 0.7894 0.7533 0.7136 0.7307
2189.390 0.7096 0.6979 0.7414 0.7657 0.7202 0.6452 0.6156 0.5729 0.4979 0.4012
2208.680 0.36443 0.4315 0.5056 0.5251 0.4459 0.4169 0.5055 0.5875 0.5582 0.5102
2227.970 0.5223 0.5204 0.5022 0.5066 0.5498 0.507 0.4855 0.4634 0.37228 0.34354
2247.259 0.4324 0.4551 0.36505 0.38006 0.41741 0.4435 0.5039 0.5355 0.591 0.5739
2266.549 0.5313 0.513 0.471 0.4669 0.4772 0.4502 0.4781 0.5501 0.5185 0.41776
2285.839 0.36494 0.41019 0.4437 0.5103 0.5558 0.5091 0.4926 0.5218 0.5135 0.5275
2305.129 0.5575 0.5445 0.4994 0.4663 0.4923 0.5015 0.4733 0.4731 0.5306 0.4868
2324.418 0.41098 0.4832 0.4871 0.4515 0.4526 0.5008 0.5475 0.5717 0.5226 0.4677
2343.708 0.5126 0.5113 0.4713 0.4566 0.5267 0.5222 0.4447 0.4755 0.49 0.4687
2362.998 0.471 0.5265 0.5171 0.502 0.5378 0.4906 0.461 0.4286 0.4305 0.5168
2382.288 0.5295 0.4636 0.4835 0.4619 0.4936 0.5108 0.478 0.4609 0.4403 0.4903
2401.578 0.534 0.4894 0.4377 0.4854 0.5201 0.5144 0.5247 0.6045 0.5564 0.5059
2420.867 0.5626 0.5448 0.5829 0.609 0.5539 0.587 0.5792 0.4932 0.4661 0.5024
2440.157 0.517 0.5167 0.4368 0.41642 0.487 0.4585 0.4878 0.5083 0.5465 0.5377
2459.447 0.4945 0.4555 0.4635 0.5891 0.5257 0.37589 0.332845 0.33504 0.33604 0.3973
2478.737 0.4553 0.4958 0.5505 0.5208 0.4949 0.5198 0.4785 0.4595 0.4305 0.4768
2498.026 0.5489 0.5214 0.4804 0.4252 0.4664 0.4476 0.328376 0.37299 0.5543 0.5014
2517.316 0.3877 0.41481 0.4597 0.4727 0.4606 0.4532 0.41442 0.34369 0.37231 0.4748
2536.606 0.4581 0.41531 0.4975 0.6006 0.5285 0.5233 0.5698 0.499 0.4528 0.4267
2555.896 0.4577 0.5813 0.5702 0.39202 0.39022 0.4806 0.527 0.4992 0.5471 0.531
2575.186 0.5133 0.5368 0.5204 0.5752 0.6054 0.6007 0.536 0.4989 0.4936 0.5026
2594.475 0.4576 0.40538 0.42143 0.3805 0.40164 0.41761 0.35087 0.40077 0.4409 0.332278
2613.765 0.33816 0.4393 0.36967 0.40592 0.40884 0.37846 0.441 0.39839 0.4594 0.4177
2633.055 0.37878 0.4678 0.4488 0.3127 0.164 0.267 0.36856 0.40855 0.4581 0.4819
2652.345 0.4108 0.40516 0.36711 0.3538 0.38756 0.327077 0.324954 0.4259 0.5357 0.4387
2671.634 0.39895 0.4325 0.32218 0.2593 0.2815 0.32111 0.42299 0.4404 0.40285 0.5404
2690.924 0.5758 0.4626 0.4388 0.37984 0.4491 0.5839 0.5006 0.465 0.4699 0.4253
2710.214 0.4387 0.4013 0.39984 0.4552 0.4743 0.33969 0.31704 0.4927 0.5759 0.5344
2729.504 0.5209 0.5057 0.40468 0.4419 0.4659 0.4376 0.5237 0.651 0.6362 0.5155
2748.794 0.5184 0.5535 0.4816 0.4706 0.4643 0.41446 0.492 0.4735 0.40851 0.559
2768.083 0.6309 0.4837 0.4986 0.4989 0.4992 0.5205 0.4807 0.5356 0.4903 0.5149
2787.373 0.5516 0.4901 0.4831 0.5726 0.5892 0.5675 0.5527 0.4898 0.39253 0.39033
2806.663 0.5055 0.4268 0.41695 0.5019 0.5104 0.4716 0.36528 0.3766 0.4885 0.5569
2825.953 0.4621 0.287 0.2858 0.2278 0.2723 0.4875 0.5304 0.4688 0.3107 0.2491
2845.242 0.3707 0.326262 0.2457 0.37795 0.5708 0.5802 0.431 0.3485 0.33908 0.36421
2864.532 0.4421 0.40333 0.37888 0.4582 0.34249 0.206 0.3088 0.38455 0.35552 0.3755
2883.822 0.31696 0.213 0.288 0.40628 0.4691 0.5396 0.507 0.4333 0.5226 0.4958
2903.112 0.2863 0.40399 0.5372 0.4928 0.4868 0.4424 0.38398 0.34803 0.3634 0.4905
2922.401 0.473 0.472 0.5506 0.4749 0.4578 0.5778 0.6776 0.4756 0.40091 0.4513
2941.691 0.443 0.6024 0.5124 0.2667 0.2812 0.35872 0.36019 0.4732 0.5207 0.4758
2960.981 0.5161 0.4452 0.4352 0.38266 0.36048 0.4519 0.5304 0.4709 0.41391 0.624
2980.271 0.5511 0.34135 0.332767 0.4616 0.598 0.6639 0.696 0.6235 0.6549 0.6757
2999.561 0.5304 0.4511 0.4345 0.40483 0.454 0.4723 0.4766 0.5325 0.33966 0.3133
3018.850 0.40556 0.37883 0.587 0.6443 0.6183 0.5609 0.4797 0.6013 0.571 0.571
3038.140 0.6767 0.662 0.6966 0.7487 0.8538 1.03 1.2356 1.2378 1.1839 1.2675
3057.430 1.2129 1.0982 1.2107 1.2411 1.2582 1.2378 1.1525 1.1118 0.8381 0.8608
3076.720 0.7748 0.6977 0.8104 0.7757 0.7697 0.7535 0.7986 0.7885 0.6783 0.5521
3096.009 0.5728 0.8161 0.8167 0.5448 0.4989 0.6432 0.7208 0.6127 0.5638 0.5574
3115.299 0.4351 0.38635 0.2762 0.2394 0.507 0.6985 0.6243 0.4744 0.2505 0.132
3134.589 0.175 0.39211 0.7286 0.7734 0.7124 0.7143 0.626 0.4523 0.3734 0.39761
3153.879 0.38123 0.416 0.2445 0.245 0.4266 0.3003 0.4404 0.6145 0.5568 0.5516
3173.169 0.6873 0.7227 0.7407 0.7539 0.5398 0.36129 0.37589 0.4773 0.5857 0.6328
3192.458 0.6711 0.6738 0.36491 0.33659 0.4954 0.6268 0.5852 0.40213 0.5482 0.4874
3211.748 0.31842 0.2931 0.2902 0.35611 0.4959 0.4798 0.42368 0.6665 0.6934 0.42339
3231.038 0.2751 0.2506 0.331514 0.2544 0.2432 0.38408 0.4986 0.37084 0.326223 0.6322
3250.328 0.40942 0.2493 0.334626 0.35044 0.39383 0.4067 0.5408 0.5356 0.39741 0.3134
3269.617 0.41114 0.507 0.5236 0.6197 0.5975 0.4706 0.4882 0.5292 0.6059 0.5216
3288.907 0.41902 0.5627 0.495 0.4478 0.4768 0.41989 0.31708 0.327836 0.181 0.086
3308.197 0.2382 0.3076 0.38652 0.39423 0.39326 0.5014 0.5342 0.40617 0.258 0.32252
3327.487 0.6651 0.7048 0.5845 0.5772 0.4681 0.5443 0.5627 0.426 0.41166 0.4414
3346.777 0.5 0.5285 0.4777 0.35933 0.38235 0.35875 0.211 0.2929 0.4831 0.6085
3366.066 0.4056 0.3027 0.4316 0.39966 0.37365 0.36641 0.4377 0.37675 0.2939 0.35674
3385.356 0.4023 0.5207 0.5942 0.52 0.476 0.5053 0.40806 0.2536 0.4465 0.42404
3404.646 0.38645 0.5449 0.5735 0.5868 0.5781 0.5956 0.4935 0.5492 0.6161 0.5026
3423.936 0.5529 0.5594 0.5115 0.6199 0.6869 0.5235 0.6717 0.7893 0.5351 0.4681
3443.225 0.5174 0.504 0.4635 0.5312 0.6066 0.4458 0.327941 0.221 0.146 0.37896
3462.515 0.41746 0.41117 0.5307 0.5661 0.6688 0.5258 0.2334 0.36992 0.5842 0.5836
3481.805 0.5403 0.2861 0.2275 0.40099 0.35844 0.218 0.2 0.2689 0.2431 0.39011
3501.095 0.5438 0.5155 0.4454 0.4676 0.499 0.5098 0.5596 0.6374 0.7266 0.6071
3520.385 0.5063 0.4589 0.5635 0.6846 0.52 0.5578 0.5565 0.4586 0.6725 0.553
3539.674 0.3038 0.39606 0.5537 0.6423 0.5797 0.5173 0.5436 0.5169 0.513 0.38834
3558.964 0.39428 0.7731 0.797 0.6805 0.6493 0.457 0.6143 0.6807 0.6346 0.7638
3578.254 0.7378 0.6646 0.5187 0.6133 0.6597 0.6195 0.5569 0.5665 0.6941 0.6672
3597.544 0.676 0.6481 0.6357 0.7533 0.8066 0.8274 0.8626 0.8272 0.8448 0.7271
3616.833 0.7354 0.8365 0.7396 0.7123 0.8969 0.8931 0.8455 0.9768 0.8407 0.7174
3636.123 0.6657 0.6979 0.7263 0.6051 0.5887 0.8951 1.0133 0.9485 0.9399 0.9009
3655.413 0.9691 1.0696 0.9288 0.7625 0.8162 0.8056 0.9174 1.0398 0.9582 0.9053
3674.703 0.9473 1.0289 0.8506 0.7694 0.8393 0.7598 0.7755 0.7861 0.6931 0.6074
3693.993 0.632 0.6029 0.5931 0.6749 0.7237 0.7473 0.6105 0.38268 0.5395 0.6549
3713.282 0.4831 0.5444 0.6288 0.5852 0.6624 0.8043 0.6918 0.5775 0.6001 0.5156
3732.572 0.4372 0.4919 0.40734 0.4429 0.6152 0.6438 0.6938 0.7697 0.7596 0.5019
3751.862 0.2656 0.3012 0.40442 0.38789 0.333129 0.2967 0.4847 0.628 0.48 0.5121
3771.152 0.6266 0.4626 0.31781 0.4688 0.4659 0.38933 0.5557 0.548 0.5562 0.5202
3790.441 0.34633 0.36092 0.36737 0.2678 0.2849 0.40852 0.41752 0.5453 0.5133 0.166
3809.731 0 0.221 0.5019 0.40229 0.2852 0.4022 0.6312 0.7541 0.6022 0.4807
3829.021 0.4659 0.548 0.5228 0.5127 0.5859 0.41874 0.4728 0.4957 0.4473 0.6154
3848.311 0.5874 0.5397 0.40197 0.33625 0.40748 0.3854 0.4296 0.37578 0.2 0.37962
3867.601 0.6456 0.4709 0.5277 0.5608 0.41016 0.6224 0.7546 0.4954 0.36068 0.3462
3886.890 0.3351 0.2892 0.2272 0.5378 0.6746 0.4966 0.5595 0.493 0.33607 0.2825
3906.180 0.32232 0.42491 0.462 0.5028 0.40821 0.37584 0.5198 0.5549 0.5546 0.5705
3925.470 0.41721 0.5413 0.7439 0.6137 0.40938 0.35491 0.5446 0.4895 0.38466 0.5257
3944.760 0.7481 0.759 0.5512 0.40722 0.5581 0.5456 0.38201 0.5206 0.4735 0.4705
3964.049 0.6865 0.6004 0.4747 0.3871 0.4704 0.5986 0.4791 0.4634 0.6275 0.659
3983.339 0.4737 0.5535 0.34312 0.095 0.37608 0.5541 0.431 0.4514 0.39964 0.38813
##END=
