##TITLE=Methyl 4-butyloxybenzoate
##JCAMP-DX=4.24
##DATA TYPE=INFRARED SPECTRUM
##ORIGIN=EPA-IR VAPOR PHASE LIBRARY
##OWNER=SRD/NIST
Collection (C) 2018 copyright by the U.S. Secretary of Commerce
on behalf of the United States of America. All rights reserved.
##CAS REGISTRY NO=4906-25-6
##MOLFORM=C 12 H 16 O 3
##$NIST SOURCE=MSDC-IR
##STATE=gas
##XUNITS=1/CM
##YUNITS=ABSORBANCE
##XFACTOR=1.
##YFACTOR=0.001
##DELTAX=1.92898
##FIRSTX=549.8
##LASTX=4000.7
##FIRSTY=1.5214
##MAXX=4000.7
##MINX=549.759
##MAXY=0.253685
##MINY=0
##NPOINTS=1790
##XYDATA=(X++(Y..Y))
549.759 1.5214 1.0815 1.1786 2.295 1.6021 0.57 1.5969 1.4913 0.616 0.8983
569.049 1.4803 1.6537 1.5876 0.812 0.585 1.05352 1.1488 1.1936 1.0808 1.3134
588.339 1.5863 1.4027 2.085 2.625 2.475 3.205 4.205 4.785 5.155 5.545
607.628 5.395 5.065 5.175 5.675 5.985 5.655 5.175 5.075 4.825 5.265
626.918 6.235 6.595 6.955 8.015 9.135 10.385 11.345 11.925 12.615 12.655
646.208 12.175 11.145 9.605 8.245 7.275 5.395 3.865 3.165 2.575 2.305
665.498 2.135 2.515 2.775 2.565 2.625 3.215 4.015 4.545 4.935 5.345
684.787 6.065 6.985 7.525 8.005 8.355 8.515 8.735 8.535 8.055 7.675
704.077 7.305 6.835 6.685 5.885 4.685 3.785 2.945 2.755 2.825 2.825
723.367 2.675 2.575 2.365 2.285 2.225 2.325 2.875 3.285 3.475 3.765
742.657 4.125 4.475 4.895 5.415 5.825 6.585 8.235 9.915 11.455 13.605
761.947 15.785 18.285 20.815 23.015 24.485 23.795 22.285 21.035 19.285 16.885
781.236 14.385 12.085 10.385 8.975 7.715 6.745 6.195 5.645 5.075 5.425
800.526 5.465 5.415 5.495 5.605 5.705 5.865 6.295 6.315 6.255 6.055
819.816 5.535 6.085 7.445 8.425 9.255 9.975 10.995 12.715 14.685 16.275
839.106 17.775 19.175 20.405 21.535 21.965 21.175 20.035 18.735 17.345 15.595
858.395 13.785 12.345 11.025 10.165 9.645 9.435 8.975 8.725 8.725 8.455
877.685 8.365 8.185 7.385 6.805 6.755 6.285 5.555 5.135 5.615 5.575
896.975 5.205 5.245 4.795 4.625 4.265 4.155 4.455 4.305 4.435 4.445
916.265 4.165 3.895 3.625 3.575 3.735 3.755 3.715 3.625 3.805 4.385
935.555 4.555 4.585 4.565 4.685 5.275 6.055 6.475 7.135 8.075 8.785
954.844 9.805 10.475 10.885 11.945 12.825 13.215 14.565 16.045 17.255 18.195
974.134 18.955 19.365 18.835 18.055 17.285 16.585 15.415 14.785 14.535 14.565
993.424 14.855 15.385 16.565 18.435 20.435 22.635 26.055 30.345 34.265 37.095
1012.714 38.135 38.305 36.985 35.005 34.255 33.615 34.265 34.615 33.635 32.735
1032.003 31.925 30.195 27.825 25.765 24.515 22.685 20.485 18.825 18.695 17.585
1051.293 15.775 16.975 18.665 19.225 21.095 23.525 24.965 26.435 27.965 29.525
1070.583 29.995 30.605 31.275 31.245 31.855 32.455 33.205 35.905 39.435 45.115
1089.873 51.915 58.995 66.555 73.755 79.855 84.445 89.995 94.905 98.505 99.885
1109.163 97.635 94.805 89.475 81.415 73.665 64.625 56.855 50.455 42.455 36.005
1128.452 32.045 28.205 25.465 22.925 20.885 19.535 19.075 19.735 20.625 20.565
1147.742 20.155 21.245 24.175 28.185 33.535 43.465 60.325 84.915 115.665 145.115
1167.032 163.005 166.625 156.535 131.935 100.515 73.745 55.635 44.925 38.495 35.605
1186.322 34.045 33.315 33.685 32.215 31.545 31.865 30.915 30.355 30.675 32.685
1205.611 33.495 34.255 36.125 39.105 43.445 49.015 56.385 62.065 69.695 76.805
1224.901 81.795 87.935 96.095 106.705 118.105 131.115 146.695 165.145 184.055 203.875
1244.191 223.635 239.335 249.585 253.685 250.325 239.595 225.975 213.115 203.495 198.675
1263.481 200.295 207.985 218.605 229.015 237.345 241.045 237.295 226.245 208.205 184.905
1282.771 159.785 136.895 118.355 103.475 92.555 85.085 78.965 73.535 68.815 65.135
1302.060 62.165 59.515 57.685 56.045 54.075 51.605 48.485 45.475 42.595 39.685
1321.350 36.915 34.235 31.625 28.995 26.245 23.515 21.025 18.905 17.265 15.745
1340.640 14.655 14.025 13.265 12.635 12.155 11.705 11.535 11.485 11.275 11.015
1359.930 10.665 10.435 10.425 10.355 10.365 10.495 10.715 11.335 11.925 12.535
1379.219 13.455 14.585 15.735 16.505 16.795 16.595 15.975 15.075 13.925 12.845
1398.509 12.155 11.755 11.525 11.685 12.215 12.985 14.015 15.125 16.145 16.825
1417.799 17.205 17.225 17.085 17.075 17.975 20.065 23.955 30.575 39.675 48.515
1437.089 53.655 54.225 50.965 42.485 32.255 25.005 20.825 18.755 17.675 17.425
1456.378 17.615 17.715 18.115 18.815 20.005 21.565 22.965 24.195 25.135 25.365
1475.668 24.895 23.935 22.385 20.515 18.715 17.285 16.425 16.215 16.885 18.515
1494.958 21.175 25.495 31.635 39.885 49.985 60.275 69.895 75.405 74.875 68.645
1514.248 57.995 45.165 32.985 24.655 18.885 15.445 13.425 11.855 10.835 10.425
1533.538 9.975 9.845 10.055 9.925 9.975 9.895 9.855 9.795 9.505 9.425
1552.827 9.575 9.725 9.855 10.395 11.215 12.095 13.125 14.675 16.565 18.315
1572.117 20.425 22.585 24.905 26.955 28.295 29.185 29.945 31.835 34.735 38.855
1591.407 45.215 53.575 63.605 75.175 87.405 98.785 107.335 110.795 108.015 99.895
1610.697 88.225 74.705 61.745 50.235 41.125 34.585 29.355 24.865 21.015 17.875
1629.986 15.565 13.745 12.095 10.835 10.095 9.575 8.975 8.565 8.265 8.045
1649.276 8.005 7.665 7.415 7.535 7.415 7.285 7.205 6.905 6.835 6.775
1668.566 6.595 6.605 6.445 6.385 6.695 6.785 7.005 7.345 7.635 7.755
1687.856 8.025 8.515 9.065 9.475 9.985 10.585 10.875 11.175 11.485 12.155
1707.146 13.005 14.015 15.355 17.095 19.555 22.485 26.225 31.125 37.355 45.295
1726.435 55.925 69.535 86.965 108.315 136.015 165.425 188.435 201.265 202.465 191.495
1745.725 166.925 135.165 106.285 83.145 65.195 51.685 41.015 33.195 27.035 22.445
1765.015 19.405 17.095 14.965 13.425 12.155 11.095 10.095 8.985 8.255 7.715
1784.305 7.345 7.035 6.585 6.425 6.325 6.175 6.125 5.995 5.665 5.345
1803.594 5.055 4.755 4.445 4.055 3.835 3.615 3.425 3.265 3.025 3.005
1822.884 2.845 2.685 2.705 2.625 2.565 2.585 2.465 2.325 2.325 2.215
1842.174 2.145 2.325 2.565 2.535 2.355 2.265 2.305 2.495 2.415 2.235
1861.464 2.415 2.565 2.545 2.445 2.475 2.595 2.685 2.825 2.965 2.935
1880.754 2.855 2.975 3.085 3.285 3.405 3.435 3.525 3.615 3.705 3.765
1900.043 3.895 3.945 4.105 4.255 4.375 4.475 4.375 4.335 4.205 4.125
1919.333 4.305 4.235 4.025 3.975 3.915 3.985 3.955 3.805 3.805 3.655
1938.623 3.585 3.565 3.355 3.215 3.055 2.875 3.015 3.075 2.965 2.855
1957.913 2.745 2.635 2.615 2.685 2.575 2.465 2.345 2.325 2.525 2.665
1977.202 2.765 2.755 2.875 2.935 2.805 2.875 2.935 2.875 2.965 3.115
1996.492 3.115 3.255 3.405 3.345 3.215 3.205 3.195 3.245 3.275 3.255
2015.782 3.385 3.395 3.275 3.265 3.345 3.355 3.385 3.315 3.305 3.495
2035.072 3.355 3.265 3.485 3.445 3.305 3.325 3.435 3.395 3.375 3.505
2054.362 3.525 3.515 3.615 3.665 3.695 3.915 3.995 3.915 4.055 4.065
2073.651 4.075 4.125 4.015 3.955 3.975 4.055 3.985 3.975 3.875 3.515
2092.941 3.495 3.615 3.465 3.175 3.045 3.035 2.945 2.905 2.885 2.775
2112.231 2.545 2.445 2.435 2.325 2.205 2.215 2.335 2.345 2.125 2.005
2131.521 2.115 2.045 1.955 1.9459 1.8588 1.9 1.9097 1.8422 1.8522 1.9201
2150.810 2.145 2.135 1.9026 1.965 1.9159 1.7155 1.8057 1.7547 1.5593 1.5372
2170.100 1.7306 1.8865 1.7573 1.6015 1.5341 1.5237 1.6894 1.7005 1.402 1.3431
2189.390 1.5497 1.4459 1.3335 1.5131 1.5684 1.4131 1.4097 1.6851 1.6983 1.6564
2208.680 1.808 1.7805 1.7882 1.799 1.7119 1.5777 1.656 1.8071 1.6928 1.6491
2227.970 1.7165 1.6928 1.627 1.6586 1.6769 1.7931 1.8771 1.8281 1.721 1.6133
2247.259 1.6616 1.756 1.8007 1.921 1.9467 1.995 2.255 2.075 1.8709 1.9049
2266.549 1.8158 1.965 2.015 1.9383 1.9327 1.7972 1.7905 2.015 2.205 2.085
2285.839 2.095 2.045 2.145 2.275 1.8757 1.632 1.9064 2.165 2.135 2.175
2305.129 2.065 1.8929 1.7369 1.5703 1.5333 1.5905 1.6953 1.7805 1.9342 1.9495
2324.418 1.9444 1.975 1.8966 1.7908 1.8154 1.8368 1.955 2.035 1.9368 1.8991
2343.708 1.6977 1.7006 1.845 1.7923 1.6815 1.9262 2.135 1.965 1.7685 1.7939
2362.998 1.965 2.065 2.155 2.355 2.215 2.075 2.285 2.215 2.185 2.405
2382.288 2.585 2.565 2.575 2.505 2.345 2.155 2.075 2.275 2.435 2.585
2401.578 2.565 2.505 2.455 2.365 2.535 2.545 2.475 2.325 2.235 2.545
2420.867 2.745 2.495 2.165 2.175 2.275 2.275 2.385 2.345 2.045 2.005
2440.157 2.185 2.285 2.305 2.415 2.335 2.235 2.335 2.365 2.445 2.475
2459.447 2.595 2.615 2.235 2.245 2.595 2.585 2.695 2.765 2.595 2.765
2478.737 2.705 2.385 2.365 2.785 2.905 2.825 2.765 2.515 2.415 2.415
2498.026 2.415 2.475 2.385 2.465 2.405 2.285 2.465 2.575 2.535 2.425
2517.316 2.465 2.595 2.675 2.615 2.665 2.875 3.035 3.105 3.075 3.215
2536.606 3.435 3.415 3.255 3.515 3.915 3.785 3.575 3.545 3.505 3.415
2555.896 3.445 3.575 3.625 3.515 3.485 3.565 3.575 3.455 3.315 3.175
2575.186 3.195 3.045 2.845 3.045 3.145 3.095 3.105 3.045 2.885 2.965
2594.475 3.025 2.805 2.705 2.785 2.955 2.895 2.685 2.845 2.845 2.615
2613.765 2.465 2.395 2.515 2.435 2.385 2.305 1.975 2.065 2.295 2.345
2633.055 2.315 2.005 1.9533 2.025 2.135 2.425 2.335 2.235 2.275 1.975
2652.345 1.965 2.485 2.365 1.8772 2.105 2.155 1.9334 2.165 2.275 2.205
2671.634 2.015 2.035 2.085 2.125 2.365 2.245 2.155 2.105 1.9362 1.8783
2690.924 2.085 2.175 2.185 2.045 2.185 2.555 2.235 2.005 2.045 2.115
2710.214 1.8168 1.7221 1.995 2.215 2.425 2.835 2.905 2.415 2.515 2.625
2729.504 2.405 2.395 2.625 2.835 2.935 2.615 2.505 2.855 2.715 2.625
2748.794 2.945 3.065 3.395 3.615 3.325 3.365 3.355 3.385 3.545 3.645
2768.083 3.555 3.145 3.015 3.055 3.205 3.295 3.175 3.135 3.445 3.365
2787.373 3.305 3.575 3.385 3.225 3.135 3.145 3.445 3.485 3.495 3.655
2806.663 3.875 4.095 4.045 4.175 4.395 4.485 4.895 5.375 5.215 5.165
2825.953 5.495 5.725 6.385 6.715 6.705 7.385 8.295 9.025 10.155 11.685
2845.242 12.815 13.995 15.005 15.275 15.335 15.155 14.855 14.915 15.125 15.775
2864.532 16.965 17.985 19.265 20.725 22.175 23.775 25.415 27.115 28.785 30.285
2883.822 31.255 31.445 31.075 30.595 29.795 28.995 28.445 28.105 27.975 27.995
2903.112 28.505 29.015 29.625 30.665 32.045 33.595 34.635 35.585 36.505 36.985
2922.401 37.765 38.655 39.405 40.285 41.535 43.205 44.855 46.845 49.355 52.255
2941.691 54.955 56.785 58.485 59.915 61.585 64.225 67.975 72.835 78.045 81.965
2960.981 83.755 83.205 79.855 75.225 70.695 66.415 62.035 57.165 51.595 45.785
2980.271 40.305 35.455 31.565 28.335 25.345 23.495 21.905 20.015 18.855 18.225
2999.561 17.475 16.545 15.895 15.535 15.205 14.185 13.615 13.395 12.875 12.425
3018.850 11.935 11.405 11.215 11.225 10.965 10.645 10.425 10.275 9.965 9.495
3038.140 8.565 7.995 8.035 8.125 8.385 8.345 8.255 8.075 8.095 8.405
3057.430 8.325 7.885 7.385 7.245 7.425 7.825 8.215 8.285 8.125 8.745
3076.720 9.415 9.215 8.925 8.845 8.785 8.275 7.675 7.175 6.585 6.425
3096.009 6.475 6.215 6.165 6.405 6.285 6.175 5.945 5.425 5.165 4.705
3115.299 4.565 4.605 4.215 3.945 3.585 3.415 3.375 3.205 2.955 2.945
3134.589 2.805 2.575 2.845 3.245 2.935 2.785 2.625 2.345 2.285 2.345
3153.879 2.675 2.565 2.335 2.335 2.665 2.605 1.7829 1.5058 1.7006 1.9471
3173.169 1.985 1.995 1.837 1.7604 1.9305 1.6782 2.275 2.655 2.305 2.275
3192.458 2.245 2.275 2.225 1.9092 1.6151 1.7726 1.975 2.205 2.235 2.085
3211.748 1.8547 1.7031 1.5697 1.3969 1.4439 1.3083 1.6742 1.914 2.015 1.985
3231.038 1.8066 1.5634 1.4107 1.3464 1.1564 1.6585 1.7859 1.6194 1.5981 1.2532
3250.328 1.1504 1.5094 1.6623 1.2705 1.0799 1.3035 1.3278 1.6362 1.8155 1.5699
3269.617 2.075 2.015 1.3707 1.1401 1.1904 1.7661 1.88 1.2202 0.837 1.2437
3288.907 1.3604 1.1974 1.2149 1.0575 1.2096 1.1279 1.2062 1.4651 1.2877 1.4401
3308.197 1.502 0.847 0.385 0.777 1.05422 0.9185 0.815 0.97104 1.2717 1.5652
3327.487 1.5878 1.3576 1.2474 1.5381 1.8668 1.3186 0.752 0.955194 1.3825 1.7746
3346.777 1.6051 1.1364 1.0735 1.5517 1.7813 1.4647 1.1707 1.1507 1.1222 1.01255
3366.066 0.97405 0.8626 1.0949 1.0912 1.00456 0.624 0.779 1.0702 0.595 0.602
3385.356 0.777 0.726 0.689 0.692 0.756 0.63 0.657 1.02539 1.1823 1.0656
3404.646 0.8872 0.75 0.805 1.1094 1.1462 1.1414 1.2974 1.2618 1.1411 1.3328
3423.936 1.3055 1.2314 1.5668 1.4177 1.01427 1.1084 1.1981 0.94556 1.04427 1.4888
3443.225 1.7194 1.8376 1.975 1.813 1.9463 2.375 2.285 1.5653 1.5093 1.8258
3462.515 1.6479 1.9441 2.095 1.8745 2.265 2.505 1.8157 1.5019 1.7863 1.9459
3481.805 2.285 1.7092 1.2321 1.6701 1.9319 2.125 1.965 1.8369 1.6952 1.4453
3501.095 1.5509 1.4806 0.955998 1.03372 1.0153 0.78 0.825 0.487 0.262 0.64
3520.385 1.03005 0.8967 0.585 0.655 0.693 0.605 0.954316 1.05473 0.756 0.71
3539.674 0.453 0.814 0.99177 0.844 1.1718 1.3012 1.3506 0.848 0.425 0.375
3558.964 0.8651 1.3582 1.144 0.602 0.691 1.00007 0.9251 0.8998 1.1358 1.00834
3578.254 0.838 1.05178 0.77 0.143 0.19 0.778 0.363 0.183 0.688 1.1647
3597.544 1.372 1.2019 1.00313 0.836 0.53 0.382 0.276 0.434 0.589 0.778
3616.833 1.4074 1.4271 1.0886 0.751 0.729 1.04855 0.97495 0.816 0.9118 0.557
3636.123 0.717 0.9376 0.9218 1.2034 1.2367 1.1484 1.00541 1.1417 0.98012 0.9312
3655.413 0.617 0.386 0.685 0.589 0.9269 0.9043 0.594 0.667 0.678 0.673
3674.703 0.8891 1.3512 1.18 0.97151 1.3095 1.4381 1.00654 0.8958 0.769 0.735
3693.993 0.8591 0.814 1.01194 1.2508 1.4818 1.5384 1.1058 0.42 0.696 1.2589
3713.282 0.99168 0.8837 0.98413 1.0763 0.99993 1.1399 1.4535 1.3696 1.1073 1.0666
3732.572 1.2279 1.512 1.1857 1.0894 1.3325 0.824 0.848 1.1513 0.757 0.414
3751.862 0.95328 1.2545 0.931 0.846 1.1206 0.8936 0.331 0.633 1.2748 1.3996
3771.152 0.85 0.531 0.747 0.744 1.0202 1.3057 1.04006 0.8717 0.9301 0.8987
3790.441 0.836 0.807 0.9199 1.0898 1.4341 1.4936 1.1446 1.1909 1.3169 1.0858
3809.731 0.8664 0.77 0.231 0.537 1.02481 0.718 1.0837 1.2806 1.1689 1.4027
3829.021 1.5228 1.187 0.8769 0.9787 1.0726 1.3833 1.7454 1.8628 1.6805 1.2828
3848.311 0.681 0.741 1.1427 1.269 1.4144 1.3039 2.015 2.135 1.3583 1.1828
3867.601 0.9034 0.602 0.411 0.782 1.1379 0.661 0.736 1.0947 1.3257 1.6281
3886.890 1.5029 1.343 0.98277 1.0811 1.3439 1.0659 1.0652 1.393 1.4507 1.3354
3906.180 0.9058 0.611 1.3111 1.4697 0.97317 0.914 1.5533 2.055 1.6535 1.2035
3925.470 1.4213 1.5037 1.05323 0.771 0.9272 1.169 0.56 0 0.49 1.2908
3944.760 1.6167 1.2428 0.96517 1.04398 0.772 0.98004 1.4499 1.1006 0.933 0.65
3964.049 0.576 0.9475 1.1714 1.0607 0.9387 1.2686 1.633 1.8204 1.8019 1.5807
3983.339 1.5257 1.5021 1.3147 1.2335 1.2138 1.1666 1.01027 1.1249 1.5629 1.7959
##END=
