##TITLE=2,3-Dimethyl-2-pentanol
##JCAMP-DX=4.24
##DATA TYPE=INFRARED SPECTRUM
##ORIGIN=NIST Mass Spectrometry Data Center
##OWNER=NIST Standard Reference Data Program
Collection (C) 2018 copyright by the U.S. Secretary of Commerce
on behalf of the United States of America. All rights reserved.
##CAS REGISTRY NO=4911-70-0
##MOLFORM=C 7 H 16 O
##$NIST SOURCE=MSDC-IR
##SPECTROMETER/DATA SYSTEM=HP-GC/MS/IRD
##STATE=gas
##XUNITS=1/CM
##YUNITS=ABSORBANCE
##XFACTOR=1.0
##YFACTOR=0.000000700
##DELTAX=4.0
##FIRSTX=550.0
##LASTX=3846.0
##FIRSTY=0.000210
##MAXX=3846
##MINX=550
##MAXY=0.007
##MINY=0
##NPOINTS=825
##XYDATA=(X++(Y..Y))
550.0 300 262 239 205 210 100 92 170 21 26
590.0 172 130 66 123 209 251 303 332 292 192
630.0 181 274 283 236 179 172 141 121 187 206
670.0 206 255 304 310 350 415 336 247 320 392
710.0 400 373 402 406 309 317 353 309 299 313
750.0 283 266 282 280 290 342 376 389 402 430
790.0 435 394 355 396 379 373 388 371 284 319
830.0 539 535 528 591 546 506 475 475 488 498
870.0 565 661 754 883 1021 1118 1127 1103 1013 932
910.0 884 865 965 1126 1287 1419 1555 1598 1522 1401
950.0 1228 1029 862 775 721 658 629 611 598 565
990.0 513 504 543 554 566 645 705 681 654 645
1030.0 609 584 633 695 720 733 797 865 874 884
1070.0 924 978 1069 1180 1275 1324 1329 1379 1447 1470
1110.0 1503 1557 1625 1632 1621 1641 1691 1739 1710 1680
1150.0 1698 1776 1856 1984 2112 2201 2279 2256 2078 1839
1190.0 1668 1490 1325 1223 1168 1129 1083 1037 993 1014
1230.0 1051 992 970 984 966 979 991 995 1001 1003
1270.0 1005 1005 1042 1057 1042 1042 1064 1072 1057 1070
1310.0 1093 1059 1040 1014 960 933 897 883 906 973
1350.0 1064 1202 1455 1757 2060 2361 2575 2660 2604 2428
1390.0 2163 1818 1446 1152 915 762 701 649 639 691
1430.0 718 738 819 946 1081 1246 1369 1442 1532 1540
1470.0 1452 1336 1190 998 826 675 575 502 385 304
1510.0 349 361 307 302 312 284 279 192 163 254
1550.0 265 197 99 159 209 178 132 167 254 223
1590.0 201 201 219 218 214 215 183 179 181 183
1630.0 204 178 206 224 207 168 159 227 242 213
1670.0 167 174 211 153 135 175 122 66 113 183
1710.0 187 146 130 173 202 203 158 143 181 211
1750.0 220 204 193 206 202 153 148 187 196 188
1790.0 166 149 165 184 167 156 140 155 179 176
1830.0 162 156 142 133 146 155 159 157 127 129
1870.0 148 129 127 136 134 144 140 120 124 147
1910.0 143 134 139 136 145 134 120 137 145 120
1950.0 97 106 118 119 118 109 115 108 102 118
1990.0 121 114 109 127 117 101 124 131 95 89
2030.0 103 94 98 81 68 95 102 92 85 103
2070.0 116 103 110 135 130 114 122 136 124 106
2110.0 129 123 114 118 106 102 91 84 106 96
2150.0 80 97 108 103 86 84 105 89 81 92
2190.0 87 89 99 93 107 105 87 94 97 105
2230.0 89 69 97 88 79 82 66 68 65 73
2270.0 87 92 77 63 68 65 69 64 82 105
2310.0 82 61 62 57 23 2 2 2 21 42
2350.0 59 27 0 2 2 21 60 67 54 48
2390.0 47 61 68 55 49 52 51 57 54 63
2430.0 59 45 61 62 69 60 46 46 47 58
2470.0 56 36 28 10 5 37 62 45 21 48
2510.0 45 32 60 77 71 48 46 79 84 74
2550.0 69 60 78 72 43 50 73 62 72 87
2590.0 89 112 103 81 71 68 90 93 64 74
2630.0 99 107 93 105 124 97 76 71 116 115
2670.0 74 50 60 111 134 113 81 93 127 150
2710.0 152 151 123 116 155 174 189 215 191 177
2750.0 190 192 191 184 196 219 239 251 240 226
2790.0 222 228 218 253 310 337 353 398 458 453
2830.0 478 553 606 687 772 892 1088 1324 1631 1989
2870.0 2434 2964 3455 3791 3922 3913 3781 3599 3428 3256
2910.0 3199 3286 3509 3817 4174 4555 4898 5199 5422 5579
2950.0 5812 6210 6804 7688 8773 9633 10000 9860 9189 8019
2990.0 6636 5222 3913 2909 2163 1636 1276 999 828 736
3030.0 657 593 534 477 485 473 425 410 395 402
3070.0 375 350 356 348 336 313 285 261 251 237
3110.0 241 217 186 155 116 127 158 198 208 199
3150.0 196 192 153 143 172 170 186 186 194 206
3190.0 196 159 158 171 145 124 114 115 111 111
3230.0 104 91 93 117 109 83 114 155 136 94
3270.0 81 55 35 63 97 87 101 98 48 34
3310.0 41 70 135 127 97 108 146 106 74 95
3350.0 91 111 120 87 76 78 61 74 104 108
3390.0 78 53 35 2 50 95 66 60 59 138
3430.0 156 99 124 118 116 61 64 135 118 119
3470.0 105 52 80 90 80 84 47 22 37 61
3510.0 68 88 109 121 108 98 137 137 107 104
3550.0 123 125 93 80 102 105 70 27 42 71
3590.0 48 54 99 95 81 108 137 158 238 315
3630.0 374 451 511 544 506 487 447 353 310 192
3670.0 101 90 120 127 66 73 122 155 150 67
3710.0 9 3 34 98 114 68 6 2 2 2
3750.0 2 2 37 75 92 55 37 18 34 42
3790.0 66 105 89 43 34 69 82 34 1 32
3830.0 62 19 10 75 110
##END=
