##TITLE=N,N,3,5-Tetramethylaniline
##JCAMP-DX=4.24
##DATA TYPE=INFRARED SPECTRUM
##ORIGIN=EPA-IR VAPOR PHASE LIBRARY
##OWNER=SRD/NIST
Collection (C) 2018 copyright by the U.S. Secretary of Commerce
on behalf of the United States of America. All rights reserved.
##CAS REGISTRY NO=4913-13-7
##MOLFORM=C 10 H 15 N
##$NIST SOURCE=MSDC-IR
##STATE=gas
##XUNITS=1/CM
##YUNITS=ABSORBANCE
##XFACTOR=1.
##YFACTOR=0.001
##DELTAX=1.92898
##FIRSTX=549.8
##LASTX=4000.7
##FIRSTY=1.339
##MAXX=4000.7
##MINX=549.759
##MAXY=0.166599
##MINY=0
##NPOINTS=1790
##XYDATA=(X++(Y..Y))
549.759 1.339 1.239 1.279 1.329 1.279 1.479 1.819 2.119 2.439 2.429
569.049 2.469 2.569 2.599 2.629 2.569 2.579 2.349 1.989 1.869 1.759
588.339 1.659 1.619 1.639 1.759 1.639 1.399 1.289 1.299 1.309 1.189
607.628 1.249 1.199 1.0121 0.9626 0.8442 0.717 0.797 0.7007 0.4784 0.6076
626.918 0.8526 0.9535 0.7913 0.5715 0.6394 0.6581 0.6368 0.7278 0.9449 1.0313
646.208 0.8906 0.8831 0.7839 0.6805 0.7236 0.943 1.1336 1.1473 1.1481 1.399
665.498 1.799 2.049 2.409 3.129 3.929 4.829 5.939 7.039 8.219 9.309
684.787 10.639 12.679 13.979 13.459 12.109 10.829 9.679 8.549 7.469 6.379
704.077 5.419 4.319 3.269 2.519 2.009 1.679 1.329 1.199 1.1179 1.0931
723.367 1.1003 0.9937 0.9039 0.8761 0.918 0.9884 0.9105 0.8487 0.8587 0.8468
742.657 0.7366 0.6633 0.7431 0.7088 0.8743 1.0895 0.9402 0.7772 0.6884 0.7389
761.947 0.936 1.0535 0.961 0.9375 0.9475 0.9493 0.9303 0.94 1.1011 1.319
781.236 1.479 1.439 1.379 1.489 1.609 1.869 2.199 2.379 2.739 3.349
800.526 4.109 5.089 6.499 8.169 10.189 12.569 15.109 17.619 20.319 23.879
819.816 28.039 31.659 32.539 30.099 26.879 24.139 21.709 19.249 16.719 14.259
839.106 11.789 9.559 7.659 6.369 5.409 4.569 4.169 3.979 3.809 3.639
858.395 3.429 3.139 2.799 2.599 2.489 2.349 2.319 2.359 2.329 2.189
877.685 2.169 2.299 2.249 2.059 1.989 1.979 1.829 1.819 1.949 1.919
896.975 1.869 1.869 1.929 2.059 2.059 2.069 2.189 2.239 2.219 2.249
916.265 2.289 2.379 2.469 2.559 2.689 2.619 2.759 3.239 3.619 3.659
935.555 3.959 4.479 4.849 5.369 5.899 6.469 7.299 8.159 9.159 10.109
954.844 10.819 11.299 11.469 11.409 11.019 10.459 9.739 8.909 8.079 7.259
974.134 6.839 6.599 6.689 7.079 7.679 8.439 9.099 9.749 10.549 11.209
993.424 11.639 11.999 12.239 12.579 12.839 13.359 14.249 15.139 16.409 18.219
1012.714 20.059 22.079 24.089 25.429 26.349 27.129 27.409 27.129 26.309 25.339
1032.003 24.279 23.129 22.029 20.609 19.689 19.389 18.839 18.359 18.229 18.059
1051.293 17.599 17.359 17.209 16.739 16.539 16.319 15.839 15.119 14.319 13.289
1070.583 12.019 11.119 10.369 9.639 9.139 8.659 7.959 7.589 7.119 6.369
1089.873 6.139 6.209 6.319 6.429 6.689 6.599 6.369 6.619 6.779 6.809
1109.163 7.049 7.449 7.709 7.479 7.789 8.519 9.079 9.419 9.639 10.579
1128.452 11.689 12.349 13.419 14.619 15.969 17.139 18.359 19.959 21.169 22.479
1147.742 23.879 25.289 26.769 27.789 27.979 28.089 27.679 26.859 25.699 24.059
1167.032 22.329 20.469 18.709 17.119 15.419 13.949 12.889 11.919 11.189 10.919
1186.322 10.869 10.529 10.549 10.879 11.039 11.209 11.739 12.309 12.869 13.659
1205.611 14.379 14.719 14.929 15.279 15.769 16.259 16.489 16.439 16.219 15.759
1224.901 15.519 15.319 14.709 14.059 13.469 12.939 12.159 11.149 10.349 9.829
1244.191 9.039 8.239 7.589 7.039 6.609 6.019 5.549 5.479 5.429 5.349
1263.481 5.089 4.789 4.659 4.729 4.759 4.779 4.939 4.889 4.919 5.049
1282.771 5.249 5.479 5.579 5.879 6.249 6.589 7.089 7.509 7.979 8.429
1302.060 8.769 9.069 9.349 9.659 9.929 10.229 10.579 10.919 11.349 12.009
1321.350 12.899 14.039 15.529 17.299 19.429 22.019 24.979 28.429 32.299 36.509
1340.640 41.019 45.569 49.919 53.879 57.069 59.169 59.989 59.449 57.559 54.489
1359.930 50.459 45.739 40.629 35.559 30.879 26.869 23.749 21.459 19.809 18.579
1379.219 17.689 17.049 16.489 15.939 15.389 14.849 14.289 13.679 13.139 12.689
1398.509 12.419 12.369 12.459 12.639 12.929 13.259 13.599 13.969 14.369 14.829
1417.799 15.289 15.769 16.379 17.099 17.959 18.949 20.209 21.699 23.289 24.889
1437.089 26.479 27.769 28.759 29.469 29.899 30.219 30.529 30.739 30.969 31.309
1456.378 31.769 32.529 33.509 34.609 35.639 36.609 37.559 38.529 39.459 40.399
1475.668 41.409 42.469 43.459 44.409 45.229 45.869 46.259 46.319 46.039 45.399
1494.958 44.399 43.129 41.749 40.289 38.839 37.359 35.829 34.449 33.199 32.089
1514.248 31.179 30.379 29.649 29.059 28.539 28.019 27.569 27.199 26.809 26.409
1533.538 25.929 25.379 24.909 24.359 23.739 23.109 22.529 22.079 21.719 21.449
1552.827 21.409 21.479 21.789 22.389 23.059 23.939 25.209 26.879 28.889 31.329
1572.117 34.299 37.949 42.589 48.199 54.749 62.839 72.439 83.639 96.279 110.169
1591.407 124.749 139.129 151.999 161.729 166.599 165.339 157.709 144.429 127.189 107.669
1610.697 88.199 70.729 56.609 45.379 36.659 30.199 25.309 21.519 18.659 16.399
1629.986 14.529 13.129 12.049 11.109 10.309 9.649 9.059 8.639 8.269 7.919
1649.276 7.569 7.389 7.199 6.879 6.659 6.509 6.359 6.119 5.869 5.759
1668.566 5.689 5.549 5.339 5.229 5.139 4.999 4.909 4.839 4.769 4.689
1687.856 4.569 4.409 4.269 4.159 4.069 4.009 3.929 3.809 3.719 3.659
1707.146 3.579 3.509 3.449 3.359 3.319 3.319 3.259 3.229 3.189 3.109
1726.435 3.069 2.989 2.839 2.759 2.759 2.639 2.529 2.439 2.329 2.269
1745.725 2.219 2.159 2.089 2.009 1.999 1.989 1.929 1.889 1.819 1.759
1765.015 1.759 1.789 1.799 1.759 1.649 1.599 1.529 1.489 1.509 1.439
1784.305 1.329 1.279 1.259 1.269 1.229 1.209 1.259 1.279 1.279 1.289
1803.594 1.289 1.289 1.319 1.299 1.239 1.259 1.309 1.269 1.209 1.189
1822.884 1.1367 1.0549 1.0176 1.0335 1.0511 1.0466 1.0317 1.0383 1.0973 1.1373
1842.174 1.1206 1.1508 1.219 1.249 1.279 1.299 1.319 1.379 1.409 1.439
1861.464 1.499 1.559 1.569 1.629 1.689 1.659 1.639 1.659 1.699 1.729
1880.754 1.759 1.739 1.679 1.639 1.599 1.559 1.539 1.519 1.489 1.489
1900.043 1.489 1.519 1.569 1.549 1.609 1.679 1.639 1.569 1.599 1.689
1919.333 1.659 1.599 1.579 1.549 1.499 1.529 1.499 1.369 1.329 1.309
1938.623 1.269 1.219 1.1491 1.0924 1.0584 1.0173 0.9903 0.9862 1.0148 1.0398
1957.913 0.9645 0.8891 0.9245 0.9135 0.8702 0.8341 0.8219 0.8807 0.8499 0.8456
1977.202 0.9135 0.8917 0.8463 0.8672 0.8776 0.8767 0.8697 0.8461 0.892 0.8996
1996.492 0.876 0.8631 0.8431 0.8741 0.8866 0.8855 0.9149 0.9034 0.8446 0.8349
2015.782 0.8367 0.8042 0.7775 0.7466 0.7618 0.7815 0.7613 0.7408 0.7274 0.705
2035.072 0.6999 0.6478 0.6167 0.6371 0.5961 0.6074 0.6475 0.645 0.6528 0.6306
2054.362 0.5887 0.6163 0.6731 0.6937 0.7069 0.6619 0.6444 0.6699 0.6848 0.6892
2073.651 0.6532 0.6794 0.711 0.6887 0.6699 0.6156 0.5743 0.6243 0.6608 0.6776
2092.941 0.6878 0.6718 0.7224 0.7799 0.782 0.7931 0.7698 0.7676 0.7556 0.7876
2112.231 0.8676 0.8532 0.8358 0.8307 0.8378 0.8788 0.8315 0.7568 0.7176 0.7389
2131.521 0.8403 0.7797 0.7273 0.8 0.8199 0.8051 0.7921 0.8267 0.8386 0.867
2150.810 0.8922 0.9061 0.9964 1.0943 1.0947 1.1302 1.219 1.189 1.209 1.279
2170.100 1.279 1.289 1.299 1.269 1.151 1.0932 1.0829 1.1039 1.219 1.1659
2189.390 1.0721 1.0573 1.0667 1.1148 1.1149 1.1179 1.179 1.259 1.249 1.179
2208.680 1.1454 1.1405 1.0986 0.9694 0.8635 0.7817 0.8079 0.8936 0.8399 0.7354
2227.970 0.6974 0.7293 0.7312 0.6851 0.6569 0.7088 0.7503 0.6974 0.6514 0.609
2247.259 0.6299 0.648 0.6126 0.5595 0.5108 0.5624 0.6124 0.6087 0.6238 0.6159
2266.549 0.6067 0.6661 0.685 0.6443 0.5686 0.4845 0.5297 0.5846 0.5687 0.5753
2285.839 0.5728 0.5996 0.651 0.649 0.6274 0.6105 0.6113 0.6883 0.7524 0.7823
2305.129 0.7927 0.8157 0.7746 0.74 0.8467 0.9056 0.9198 0.8789 0.8587 0.9794
2324.418 1.0201 1.0463 1.179 1.15 1.1339 1.1476 1.0567 1.0327 1.0028 0.9596
2343.708 0.9465 0.9384 0.9377 0.8664 0.8349 0.8606 0.8545 0.8743 0.8714 0.8181
2362.998 0.7804 0.8235 0.8237 0.7657 0.7621 0.8088 0.8074 0.7681 0.7787 0.801
2382.288 0.8316 0.8318 0.7583 0.7409 0.8454 0.8873 0.825 0.8301 0.8973 0.9164
2401.578 0.933 0.9726 0.9132 0.8686 0.8835 0.903 0.9868 1.0059 0.9564 0.9444
2420.867 0.979 1.0028 1.0068 1.0405 1.083 1.034 0.9865 1.0263 1.0751 1.179
2440.157 1.179 1.1119 1.1555 1.179 1.1668 1.179 1.229 1.279 1.299 1.289
2459.447 1.319 1.309 1.289 1.249 1.209 1.249 1.289 1.239 1.1589 1.189
2478.737 1.199 1.219 1.249 1.279 1.299 1.309 1.299 1.319 1.359 1.399
2498.026 1.399 1.389 1.409 1.389 1.319 1.369 1.449 1.449 1.439 1.469
2517.316 1.499 1.489 1.479 1.449 1.449 1.439 1.499 1.539 1.429 1.429
2536.606 1.509 1.479 1.479 1.489 1.469 1.479 1.529 1.569 1.529 1.449
2555.896 1.429 1.439 1.429 1.509 1.509 1.489 1.539 1.449 1.439 1.449
2575.186 1.389 1.389 1.339 1.339 1.409 1.399 1.389 1.389 1.359 1.359
2594.475 1.359 1.339 1.359 1.409 1.369 1.319 1.319 1.349 1.379 1.389
2613.765 1.459 1.459 1.449 1.509 1.539 1.479 1.479 1.529 1.509 1.529
2633.055 1.529 1.509 1.549 1.589 1.589 1.579 1.549 1.579 1.599 1.539
2652.345 1.539 1.609 1.659 1.659 1.629 1.619 1.699 1.789 1.729 1.729
2671.634 1.859 1.889 1.889 1.939 1.989 2.059 2.119 2.259 2.349 2.359
2690.924 2.509 2.669 2.699 2.739 2.909 2.999 3.049 3.129 3.119 3.219
2710.214 3.399 3.499 3.639 3.789 3.959 4.099 4.299 4.539 4.759 5.069
2729.504 5.429 5.639 5.839 6.179 6.469 6.759 6.939 7.099 7.329 7.529
2748.794 7.799 8.089 8.459 8.849 9.279 9.749 10.199 10.749 11.429 12.199
2768.083 12.959 13.829 14.819 15.839 17.069 18.399 19.889 21.579 23.339 25.299
2787.373 27.309 29.339 31.399 33.259 34.989 36.509 37.609 38.329 38.549 38.359
2806.663 37.979 37.199 36.129 35.129 34.059 32.849 31.839 31.029 30.349 29.989
2825.953 29.819 29.729 29.919 30.449 31.009 31.679 32.519 33.489 34.519 35.509
2845.242 36.499 37.419 38.249 39.179 40.169 41.159 42.269 43.329 44.279 45.209
2864.532 46.089 46.839 47.379 47.719 47.819 47.749 47.459 47.009 46.409 45.629
2883.822 44.859 44.189 43.629 43.199 42.899 42.739 42.869 43.109 43.469 44.009
2903.112 44.629 45.489 46.479 47.659 49.209 51.189 53.579 56.399 59.519 62.629
2922.401 65.519 67.969 69.709 70.739 71.159 70.979 70.149 68.629 66.459 63.869
2941.691 61.149 58.549 56.279 54.469 52.839 51.329 50.069 48.859 47.489 46.139
2960.981 44.869 43.439 41.849 40.449 39.259 38.229 37.329 36.609 36.159 35.839
2980.271 35.579 35.369 35.209 35.029 34.759 34.309 33.669 32.989 32.169 31.199
2999.561 30.249 29.339 28.489 27.859 27.249 26.999 27.189 27.509 27.959 28.499
3018.850 29.159 29.689 30.049 30.219 30.129 29.849 29.389 28.679 27.789 26.889
3038.140 26.059 25.159 24.229 23.499 22.899 22.329 21.759 21.229 20.729 20.269
3057.430 20.029 19.839 19.469 19.029 18.589 18.109 17.559 16.909 16.089 15.109
3076.720 14.159 13.149 12.149 11.139 10.109 9.239 8.329 7.349 6.529 5.919
3096.009 5.499 5.109 4.739 4.359 4.089 3.969 3.729 3.489 3.279 3.159
3115.299 3.039 2.829 2.659 2.529 2.439 2.249 2.139 2.029 1.909 1.759
3134.589 1.609 1.669 1.569 1.509 1.529 1.469 1.459 1.319 1.219 1.239
3153.879 1.1662 1.0456 1.0874 1.0959 1.0547 1.0573 1.0142 1.0686 1.0587 0.9678
3173.169 0.96 0.8996 0.7899 0.7435 0.8323 0.7872 0.7385 0.8247 0.761 0.7951
3192.458 0.7525 0.6218 0.6626 0.6312 0.7054 0.7147 0.643 0.6207 0.5665 0.6155
3211.748 0.5991 0.5679 0.5687 0.6386 0.6768 0.5996 0.5203 0.5009 0.5735 0.5925
3231.038 0.621 0.5498 0.5165 0.6027 0.5485 0.6307 0.6662 0.5653 0.546 0.4926
3250.328 0.441 0.446 0.5371 0.5267 0.4999 0.5522 0.5502 0.54 0.5294 0.5491
3269.617 0.4988 0.465 0.4512 0.419 0.4155 0.331 0.2768 0.3688 0.4677 0.3796
3288.907 0.3445 0.3615 0.3114 0.272 0.314 0.3633 0.3514 0.3446 0.2827 0.2826
3308.197 0.2943 0.24894 0.3145 0.3452 0.3148 0.2809 0.1588 0.18264 0.2606 0.2004
3327.487 0.22194 0.22691 0.168532 0.2879 0.3187 0.26009 0.24154 0.2956 0.3555 0.2818
3346.777 0.3005 0.3962 0.3322 0.173284 0.1269 0.1522 0.25458 0.3489 0.2776 0.3402
3366.066 0.41 0.2375 0.2951 0.3723 0.2933 0.24829 0.173581 0.23966 0.3458 0.3356
3385.356 0.24339 0.21044 0.1969 0.25918 0.3493 0.26813 0.18 0.20267 0.3005 0.3393
3404.646 0.25907 0.19846 0.21149 0.3345 0.3732 0.3427 0.3257 0.3087 0.3327 0.20096
3423.936 0.18785 0.3035 0.3762 0.4553 0.5018 0.5126 0.4532 0.3812 0.3838 0.4222
3443.225 0.3063 0.3145 0.3461 0.22038 0.16203 0.18719 0.3822 0.3358 0.2146 0.24848
3462.515 0.18102 0.24647 0.3492 0.24079 0.18749 0.2825 0.25934 0.25446 0.3639 0.4318
3481.805 0.4314 0.4124 0.3756 0.3112 0.19614 0.21147 0.26478 0.1417 0.0917 0.1323
3501.095 0.3076 0.3558 0.3171 0.4199 0.366 0.23192 0.25959 0.3522 0.22088 0.0988
3520.385 0.1378 0.1394 0.21056 0.2937 0.3335 0.2932 0.1825 0.20586 0.2781 0.26055
3539.674 0.24926 0.3264 0.3458 0.2862 0.22189 0.3202 0.5199 0.4673 0.3218 0.3058
3558.964 0.25595 0.2851 0.2696 0.1452 0.177228 0.3516 0.4015 0.2821 0.289 0.3058
3578.254 0.3085 0.23926 0.1373 0.16393 0.3002 0.426 0.3959 0.3802 0.3599 0.3028
3597.544 0.178776 0.1397 0.1589 0.0982 0.24846 0.3073 0.18308 0.0951 0.077 0.19584
3616.833 0.22093 0.1371 0.1576 0.18536 0.21227 0.254 0.3371 0.2978 0.16005 0.20003
3636.123 0.2987 0.2874 0.20326 0.22761 0.3221 0.26863 0.24066 0.3067 0.334 0.2864
3655.413 0.20638 0.24441 0.26656 0.16583 0.0832 0.22244 0.3523 0.3957 0.4317 0.3845
3674.703 0.2991 0.21866 0.2773 0.3364 0.4076 0.3468 0.21628 0.1552 0.115 0.1137
3693.993 0.1027 0.19668 0.2808 0.21745 0 0.062 0.2794 0.2611 0.1538 0.0917
3713.282 0.1163 0.19809 0.2826 0.3689 0.175385 0.1258 0.2948 0.178959 0.20474 0.2868
3732.572 0.1373 0.076 0.19696 0.2756 0.2722 0.19979 0.114 0.1084 0.19397 0.3365
3751.862 0.2791 0.26071 0.3233 0.3088 0.2951 0.3446 0.2815 0.1524 0.24204 0.172835
3771.152 0.0976 0.26656 0.4096 0.4822 0.4254 0.3139 0.2933 0.3639 0.3629 0.22306
3790.441 0.24361 0.385 0.3371 0.3385 0.3861 0.3185 0.3545 0.3818 0.4192 0.4255
3809.731 0.3047 0.17974 0.2951 0.397 0.3902 0.3821 0.4908 0.5911 0.5285 0.3856
3829.021 0.19343 0.174926 0.3098 0.2709 0.25362 0.4642 0.4415 0.4016 0.4306 0.3936
3848.311 0.4019 0.4606 0.6174 0.6664 0.466 0.4497 0.5188 0.6006 0.6648 0.5764
3867.601 0.6272 0.6299 0.5959 0.649 0.6122 0.5388 0.6003 0.6539 0.6602 0.669
3886.890 0.5383 0.4824 0.5777 0.6748 0.6446 0.5645 0.5849 0.5804 0.522 0.5629
3906.180 0.6166 0.665 0.5733 0.4759 0.6028 0.5778 0.5928 0.6589 0.646 0.8183
3925.470 0.7859 0.5897 0.5794 0.747 0.7649 0.6409 0.6287 0.664 0.5954 0.5696
3944.760 0.6589 0.6841 0.7444 0.8403 0.7838 0.5568 0.4875 0.5118 0.4893 0.5636
3964.049 0.739 0.6971 0.5468 0.5644 0.6288 0.8167 0.877 0.6949 0.6427 0.6144
3983.339 0.4801 0.4497 0.61 0.721 0.7632 0.7754 0.7542 0.8482 0.928 0.9097
##END=
