##TITLE=cis-3,4-Dimethyl-2-pentene
##JCAMP-DX=4.24
##DATA TYPE=INFRARED SPECTRUM
##ORIGIN=NIST Mass Spectrometry Data Center
##OWNER=NIST Standard Reference Data Program
Collection (C) 2018 copyright by the U.S. Secretary of Commerce
on behalf of the United States of America. All rights reserved.
##CAS REGISTRY NO=4914-91-4
##MOLFORM=C 7 H 14
##$NIST SOURCE=MSDC-IR
##SPECTROMETER/DATA SYSTEM=HP-GC/MS/IRD
##STATE=gas
##XUNITS=1/CM
##YUNITS=ABSORBANCE
##XFACTOR=1.0
##YFACTOR=0.000003700
##DELTAX=4.0
##FIRSTX=550.0
##LASTX=3846.0
##FIRSTY=0.001095
##MAXX=3846
##MINX=550
##MAXY=0.037
##MINY=0
##NPOINTS=825
##XYDATA=(X++(Y..Y))
550.0 296 304 291 258 214 229 323 330 236 208
590.0 194 161 96 74 80 78 86 86 50 49
630.0 71 54 23 1 25 59 68 83 83 79
670.0 67 56 67 80 70 77 115 115 98 74
710.0 65 73 67 50 40 57 83 77 56 71
750.0 82 82 103 107 117 125 155 218 294 395
790.0 503 652 786 900 987 989 883 747 617 481
830.0 363 263 196 171 151 148 152 148 157 158
870.0 145 155 161 146 152 149 136 129 121 137
910.0 135 134 152 172 198 223 220 221 232 215
950.0 204 189 174 152 126 125 142 149 146 144
990.0 147 167 204 232 277 335 385 436 488 546
1030.0 595 592 578 575 539 493 459 441 411 377
1070.0 364 351 339 380 448 542 654 731 776 786
1110.0 753 668 565 437 341 273 230 226 226 220
1150.0 230 241 239 223 187 165 152 127 117 104
1190.0 95 112 115 112 137 162 190 208 201 198
1230.0 201 185 170 161 149 139 134 134 139 145
1270.0 150 159 178 200 215 232 261 302 364 412
1310.0 425 413 373 321 279 261 270 288 324 399
1350.0 505 624 757 984 1222 1273 1293 1349 1296 1188
1390.0 1046 872 719 600 514 469 469 493 521 563
1430.0 629 721 836 970 1093 1186 1261 1312 1323 1300
1470.0 1208 1058 912 764 633 533 460 407 367 345
1510.0 333 312 293 279 267 255 246 236 221 211
1550.0 194 186 182 167 165 158 155 162 168 169
1590.0 172 190 208 213 216 214 206 195 184 173
1630.0 149 133 127 125 127 136 149 149 145 139
1670.0 127 121 109 92 78 65 68 69 59 55
1710.0 49 41 44 42 44 46 40 33 35 40
1750.0 41 46 49 45 40 41 39 36 45 53
1790.0 49 53 64 64 67 68 66 74 80 88
1830.0 88 86 89 81 81 82 74 63 61 64
1870.0 60 53 43 39 35 34 34 35 32 32
1910.0 35 33 33 33 37 34 23 30 36 30
1950.0 22 24 30 25 20 24 24 24 25 18
1990.0 16 17 15 23 15 11 21 21 12 17
2030.0 22 19 14 15 21 24 26 28 30 35
2070.0 34 26 18 14 20 20 9 2 0 3
2110.0 6 4 2 3 5 8 8 12 9 8
2150.0 5 8 19 14 5 13 18 14 7 7
2190.0 13 15 21 14 7 8 6 8 12 15
2230.0 12 18 27 22 17 19 19 13 12 19
2270.0 27 25 17 16 14 21 20 17 15 21
2310.0 28 19 10 18 26 28 34 40 35 29
2350.0 24 26 36 34 32 36 33 36 43 48
2390.0 55 49 47 61 66 59 51 50 56 50
2430.0 50 53 51 48 43 43 52 44 39 47
2470.0 55 57 46 46 51 56 53 52 52 46
2510.0 49 52 53 51 42 44 42 36 40 37
2550.0 30 37 42 57 58 56 75 78 67 69
2590.0 72 77 85 84 79 83 89 96 93 81
2630.0 87 88 88 83 73 81 91 96 91 94
2670.0 104 112 114 114 114 117 121 119 127 146
2710.0 167 178 189 214 233 254 277 288 288 290
2750.0 284 274 264 246 247 255 255 257 274 292
2790.0 288 299 337 366 395 431 457 486 521 554
2830.0 600 663 745 844 972 1168 1449 1794 2218 2671
2870.0 3085 3428 3718 3904 3932 3881 3822 3769 3765 3829
2910.0 3997 4279 4648 5072 5518 5909 6180 6339 6463 6684
2950.0 7083 7709 8552 9397 9943 10000 9458 8445 7121 5676
2990.0 4402 3435 2800 2414 2182 2036 1948 1875 1807 1724
3030.0 1626 1525 1397 1260 1129 1004 885 793 709 631
3070.0 584 538 475 436 429 424 400 380 363 362
3110.0 355 329 306 283 265 249 238 231 240 230
3150.0 208 208 201 196 198 188 187 199 196 172
3190.0 164 169 158 148 156 161 140 120 117 106
3230.0 99 101 103 104 100 87 83 91 87 72
3270.0 61 67 67 73 75 67 58 50 66 63
3310.0 50 60 68 85 84 66 64 71 81 67
3350.0 63 61 63 68 55 46 36 31 29 38
3390.0 45 41 53 50 49 60 44 46 65 52
3430.0 34 33 37 44 49 51 44 37 50 53
3470.0 53 65 59 48 53 47 33 37 57 56
3510.0 42 48 53 52 46 37 31 23 27 51
3550.0 63 48 39 45 40 34 38 38 40 36
3590.0 27 30 40 46 48 29 16 33 54 60
3630.0 44 30 22 29 31 24 26 24 30 39
3670.0 56 55 42 38 30 28 13 4 25 42
3710.0 39 36 28 33 38 36 34 40 42 48
3750.0 62 45 26 34 47 52 54 55 54 36
3790.0 33 33 34 50 69 72 63 70 71 59
3830.0 66 64 59 74 71
##END=
