##TITLE=4-Hydroxy-3,5-dimethylbenzoic acid
##JCAMP-DX=4.24
##DATA TYPE=INFRARED SPECTRUM
##ORIGIN=EPA-IR VAPOR PHASE LIBRARY
##OWNER=SRD/NIST
Collection (C) 2018 copyright by the U.S. Secretary of Commerce
on behalf of the United States of America. All rights reserved.
##CAS REGISTRY NO=4919-37-3
##MOLFORM=C 9 H 10 O 3
##$NIST SOURCE=MSDC-IR
##STATE=gas
##XUNITS=1/CM
##YUNITS=ABSORBANCE
##XFACTOR=1.
##YFACTOR=0.001
##DELTAX=1.92934
##FIRSTX=549.9
##LASTX=3999.5
##FIRSTY=12.29
##MAXX=3999.53
##MINX=549.863
##MAXY=0.32589
##MINY=0
##NPOINTS=1789
##XYDATA=(X++(Y..Y))
549.863 12.29 11.72 11.53 11.47 11.56 11.8 12.43 13.38 14.5 15.94
569.156 17.88 20.4 23.28 26.32 29.56 32.8 36.01 38.96 41.12 42.42
588.450 43.18 42.01 38.53 35.13 32.39 29.68 27.24 24.92 22.57 20.2
607.743 17.81 15.6 13.9 12.5 11.33 10.46 9.86 9.57 9.39 9.37
627.037 9.68 10.17 10.78 11.54 12.54 13.73 15.04 16.81 19.66 24.57
646.330 32.78 44.64 57.72 67.01 71.02 73.29 72.73 69.53 65.15 55.86
665.624 42.23 28.98 19 12.87 9.43 7.39 6.17 5.38 4.81 4.45
684.917 4.16 3.87 3.62 3.43 3.23 3.0355 2.9284 2.8307 2.729 2.6912
704.210 2.7705 2.8081 2.7893 2.8843 2.9784 2.9991 3.0162 3.037 3.0064 2.9212
723.504 2.907 2.9217 2.8953 2.9397 3.0309 3.1493 3.36 3.66 4.07 4.64
742.797 5.45 6.5 7.76 9.33 11.22 13.58 16.37 19.59 23.09 26.51
762.091 29.77 33.25 37.56 42.96 46.01 42.04 35.66 31.72 28.66 25.45
781.384 21.93 18.33 15.06 12.39 10.34 8.72 7.51 6.59 5.85 5.29
800.678 4.83 4.46 4.22 4.1 4 3.95 3.93 3.95 4.05 4.12
819.971 4.12 4.11 4.1 4.01 3.91 3.88 3.83 3.68 3.5 3.42
839.264 3.34 3.27 3.2146 3.1322 3.0629 3.0458 3.1013 3.1408 3.1367 3.1847
858.558 3.31 3.47 3.62 3.82 4.01 4.16 4.25 4.32 4.37 4.42
877.851 4.54 4.76 5.06 5.49 6.09 6.83 7.76 8.8 9.87 10.82
897.145 11.62 12.51 13.49 14.3 14.83 14.83 14.36 13.81 13.38 13.25
916.438 13.49 13.89 14.17 14.33 14.53 15.07 16 16.85 17.34 17.47
935.732 17.33 17.04 16.55 15.95 15.22 14.33 13.24 11.9 10.52 9.32
955.025 8.47 7.88 7.43 7.14 7 6.98 7.07 7.17 7.35 7.66
974.318 8.04 8.49 9.01 9.6 10.25 10.94 11.69 12.55 13.43 14.31
993.612 15.06 15.55 15.85 15.99 15.97 15.8 15.54 15.15 14.75 14.48
1012.905 14.3 14.19 14.06 13.85 13.55 13.2 12.83 12.39 11.91 11.44
1032.199 11.04 10.74 10.52 10.37 10.34 10.33 10.33 10.36 10.35 10.29
1051.492 10.21 10.1 10.01 9.98 9.99 10.13 10.33 10.6 11.03 11.54
1070.786 12.2 13.18 14.47 16.06 18.05 20.5 23.47 27.02 31.33 36.5
1090.079 42.45 49.07 56.03 62.77 68.32 72 73.87 74.21 73.22 70.61
1109.372 66.14 60.32 54.09 48.53 44.79 43.55 44.89 48.92 55.89 66.04
1128.666 80.07 98.71 122.48 151.72 185.06 219.02 248.74 270.18 283.04 288.35
1147.959 285.81 274.8 254.14 225.87 196.45 171.28 152.42 139.26 130.42 124.49
1167.253 119.66 114.83 109.43 103.18 96.41 89.64 83.45 78.39 75.24 74.98
1186.546 77.93 83.7 91.01 97.86 103.14 106.18 106.48 103.87 98.38 89.86
1205.840 78.96 67.27 56.44 47.57 40.78 35.97 32.7 30.29 28.43 27.12
1225.133 25.91 24.85 23.62 22.07 20.58 19 17.38 16.01 14.9 14.31
1244.426 14.3 14.93 16.3 18.05 20.26 23.04 25.93 28.66 31.11 33
1263.720 34.17 34.63 34.44 33.53 31.97 30.17 28.55 27.37 26.73 26.71
1283.013 27.33 28.51 30.12 32.11 34.37 36.81 39.22 41.37 43.23 44.72
1302.307 45.96 46.99 47.93 48.86 49.83 50.92 52.02 53.06 54.06 55.01
1321.600 55.77 56.3 56.59 56.72 56.83 57.12 57.88 59.33 61.48 64.32
1340.894 67.65 70.97 73.65 75.21 75.43 74.38 72.29 69.31 65.61 61.79
1360.187 58.54 56.61 56.31 57.29 58.87 60.27 60.8 60 57.82 54.68
1379.480 50.95 46.88 42.4 37.63 33.17 29.42 26.37 24.01 21.89 19.64
1398.774 17.49 15.8 14.75 14.23 14.13 14.48 15.25 16.39 17.95 19.8
1418.067 21.82 23.9 25.64 26.95 27.83 28.22 28.18 27.65 26.68 25.52
1437.361 24.35 23.4 22.78 22.44 22.26 22.12 21.98 21.91 21.85 21.83
1456.654 21.84 21.8 21.89 22.17 22.59 23.2 24.07 25.26 26.78 28.6
1475.948 30.64 32.97 35.35 37.55 39.28 40.31 40.48 39.74 38.05 35.57
1495.241 32.48 28.92 25.3 21.85 18.82 16.37 14.4 12.81 11.6 10.62
1514.534 9.83 9.19 8.64 8.27 7.96 7.72 7.51 7.36 7.29 7.26
1533.828 7.26 7.21 7.2 7.19 7.1 7.03 6.92 6.77 6.63 6.48
1553.121 6.37 6.28 6.25 6.24 6.18 6.18 6.34 6.58 6.86 7.28
1572.415 7.83 8.52 9.4 10.37 11.53 12.94 14.56 16.55 18.95 21.63
1591.708 24.66 27.96 31.42 34.82 37.88 40.27 41.79 42.44 42.09 40.72
1611.002 38.4 35.25 31.63 27.81 24.25 21.19 18.54 16.27 14.33 12.62
1630.295 11.08 9.74 8.65 7.75 7.01 6.44 6.03 5.79 5.63 5.5
1649.588 5.41 5.42 5.47 5.35 5.29 5.37 5.44 5.5 5.51 5.55
1668.882 5.63 5.7 5.79 5.88 5.99 6.16 6.39 6.73 7.22 7.76
1688.175 8.37 9.14 10.05 11.02 12.13 13.26 14.43 15.37 15.65 15.48
1707.469 15.2 15.01 14.75 14.49 14.36 14.33 14.31 14.41 14.94 16.11
1726.762 18.15 21.33 25.9 32.31 41.41 53.75 70.81 94.7 125.7 164.44
1746.056 208.74 253.81 291.71 316.19 325.89 325.45 318.27 300.94 265.8 213.97
1765.349 158.33 111.09 77.18 55.26 40.95 31.86 26.12 22.51 20.21 18.67
1784.642 17.61 16.88 16.38 16.08 15.95 15.91 15.98 16.27 16.69 17.1
1803.936 17.51 17.88 18.01 17.71 16.73 15.08 13.24 11.57 10.13 8.82
1823.229 7.62 6.54 5.62 4.95 4.48 4.17 3.94 3.79 3.74 3.71
1842.523 3.72 3.75 3.75 3.72 3.67 3.62 3.55 3.44 3.28 3.1082
1861.816 2.9388 2.8132 2.6714 2.5216 2.4023 2.32723 2.27192 2.24083 2.22167 2.2042
1881.110 2.1938 2.1811 2.2057 2.24944 2.25035 2.23766 2.28758 2.3473 2.3779 2.4305
1900.403 2.4852 2.5159 2.5684 2.6566 2.7376 2.8009 2.8849 2.9806 3.0851 3.1444
1919.696 3.1538 3.1598 3.1227 3.0164 2.9318 2.8262 2.6794 2.5678 2.4931 2.4249
1938.990 2.3809 2.3761 2.3935 2.4099 2.4129 2.3893 2.3712 2.3804 2.3421 2.28027
1958.283 2.2097 2.1658 2.1362 2.078 2.039 1.998 1.997 2.041 2.05 2.04
1977.577 2.023 2.006 1.989 1.972 1.959 1.93 1.89 1.888 1.866 1.821
1996.870 1.802 1.802 1.799 1.835 1.887 1.896 1.909 1.944 1.961 1.976
2016.164 1.994 2.001 2.027 2.049 2.073 2.092 2.102 2.1346 2.1375 2.09
2035.457 2.017 1.956 1.935 1.897 1.849 1.814 1.824 1.87 1.911 1.922
2054.750 1.964 2.071 2.1366 2.2088 2.31135 2.3948 2.4718 2.4945 2.5054 2.497
2074.044 2.4564 2.4325 2.3659 2.28603 2.22076 2.1731 2.1428 2.117 2.111 2.086
2093.337 2.061 2.047 2.036 2.022 2.019 1.984 1.904 1.883 1.848 1.739
2112.631 1.655 1.595 1.522 1.474 1.442 1.409 1.373 1.347 1.344 1.359
2131.924 1.363 1.363 1.382 1.377 1.364 1.368 1.379 1.366 1.365 1.361
2151.218 1.359 1.37 1.369 1.402 1.397 1.386 1.385 1.394 1.437 1.448
2170.511 1.457 1.518 1.55 1.576 1.642 1.682 1.736 1.811 1.875 1.907
2189.804 1.959 1.988 2.011 2.036 2.033 2.071 2.106 2.097 2.097 2.102
2209.098 2.089 2.073 2.056 2.042 2.065 2.085 2.059 2.078 2.099 2.077
2228.391 2.088 2.091 2.104 2.128 2.1428 2.1508 2.18 2.1837 2.1475 2.112
2247.685 2.071 2.031 1.974 1.957 1.958 1.927 1.889 1.897 1.909 1.92
2266.978 1.924 1.917 1.954 1.998 2.05 2.068 2.065 2.093 2.108 2.1468
2286.272 2.147 2.121 2.125 2.122 2.127 2.1314 2.117 2.115 2.129 2.088
2305.565 2.057 2.057 2.043 2.047 2.039 2.013 1.994 2.005 2.033 2.039
2324.858 2.018 1.984 1.972 1.968 1.962 1.982 1.996 1.965 1.921 1.911
2344.152 1.897 1.864 1.837 1.836 1.873 1.924 1.975 2.016 2.046 2.038
2363.445 2.021 2.005 2.001 1.977 1.929 1.907 1.876 1.836 1.8 1.753
2382.739 1.704 1.703 1.699 1.678 1.673 1.678 1.708 1.74 1.751 1.783
2402.032 1.8 1.807 1.853 1.893 1.915 1.961 1.991 2.004 2.057 2.1337
2421.326 2.1884 2.2133 2.24232 2.29851 2.345 2.3875 2.4309 2.4109 2.4131 2.4312
2440.619 2.4183 2.4266 2.4342 2.4266 2.4727 2.5324 2.5402 2.5712 2.5639 2.5242
2459.912 2.5095 2.4994 2.5004 2.4831 2.4362 2.3826 2.3585 2.30223 2.259 2.2492
2479.206 2.209 2.1968 2.1809 2.126 2.121 2.073 2.004 1.98 1.906 1.88
2498.499 1.86 1.81 1.837 1.852 1.835 1.827 1.829 1.854 1.856 1.884
2517.793 1.875 1.854 1.879 1.877 1.884 1.895 1.902 1.899 1.853 1.826
2537.086 1.795 1.705 1.692 1.686 1.619 1.577 1.555 1.551 1.551 1.499
2556.380 1.442 1.411 1.349 1.33 1.373 1.418 1.385 1.349 1.383 1.417
2575.673 1.403 1.387 1.391 1.389 1.417 1.454 1.457 1.446 1.452 1.458
2594.966 1.456 1.415 1.368 1.347 1.385 1.405 1.406 1.429 1.431 1.413
2614.260 1.4 1.401 1.408 1.387 1.413 1.476 1.491 1.483 1.498 1.527
2633.553 1.57 1.624 1.685 1.763 1.809 1.83 1.814 1.831 1.9 1.951
2652.847 1.936 1.928 1.94 1.942 1.928 1.897 1.891 1.929 1.944 1.907
2672.140 1.875 1.855 1.83 1.862 1.884 1.869 1.851 1.806 1.782 1.713
2691.434 1.651 1.675 1.665 1.631 1.607 1.628 1.599 1.575 1.624 1.629
2710.727 1.643 1.658 1.71 1.755 1.751 1.746 1.742 1.714 1.734 1.738
2730.020 1.671 1.711 1.836 1.917 1.995 2.121 2.24417 2.3526 2.4737 2.5908
2749.314 2.6932 2.6953 2.6234 2.579 2.486 2.29221 2.119 1.942 1.758 1.618
2768.607 1.521 1.479 1.423 1.312 1.326 1.357 1.234 1.16 1.18 1.16
2787.901 1.13 1.2 1.276 1.317 1.314 1.288 1.347 1.442 1.499 1.511
2807.194 1.467 1.521 1.676 1.789 1.846 1.903 1.991 2.113 2.27924 2.4262
2826.488 2.5636 2.6627 2.7532 2.9423 3.1625 3.37 3.6 3.85 4.15 4.58
2845.781 5.03 5.51 6.07 6.72 7.51 8.37 9.25 10.16 11.07 11.97
2865.074 12.76 13.45 13.99 14.39 14.67 14.78 14.75 14.62 14.38 13.99
2884.368 13.63 13.29 12.93 12.61 12.27 12.07 12.07 12.08 12.27 12.65
2903.661 13.12 13.78 14.56 15.33 16.24 17.36 18.58 19.87 21.16 22.46
2922.955 23.8 25.1 26.37 27.53 28.38 28.89 28.93 28.48 27.61 26.44
2942.248 25 23.34 21.5 19.72 18.06 16.55 15.36 14.45 13.77 13.39
2961.542 13.21 13.05 12.91 12.76 12.67 12.63 12.69 12.91 13.27 13.69
2980.835 13.99 14.26 14.38 14.23 13.93 13.51 12.88 12.02 11.04 9.97
3000.128 8.96 7.97 7.13 6.49 5.88 5.31 4.97 4.79 4.48 4.23
3019.422 4.15 4.02 3.96 4.02 4.05 3.98 3.92 3.97 4.08 4.2
3038.715 4.32 4.5 4.72 4.88 5.07 5.33 5.59 5.93 6.28 6.57
3058.009 6.86 6.94 7.01 7.06 6.91 6.73 6.51 6.18 5.77 5.24
3077.302 4.78 4.43 4.07 3.64 3.23 3.0113 2.7903 2.6138 2.5213 2.4137
3096.596 2.30983 2.23289 2.12 1.955 1.79 1.766 1.822 1.74 1.688 1.608
3115.889 1.465 1.397 1.498 1.43 1.252 1.261 1.233 1.1 0.93 0.94
3135.182 0.81 0.65 0.62 0.53 0.47 0.43 0.43 0.39 0.35 0.3
3154.476 0.24 0.25 0.19 0.18 0.23 0.19 0.08 0.01 0.05 0.18
3173.769 0.24 0.18 0.2 0.22 0.18 0.16 0.25 0.28 0.24 0.18
3193.063 0.16 0.2 0.14 0.18 0.38 0.5 0.53 0.43 0.35 0.34
3212.356 0.38 0.4 0.36 0.4 0.39 0.36 0.43 0.44 0.33 0.34
3231.650 0.35 0.29 0.26 0.21 0.2 0.27 0.35 0.21 0.15 0.33
3250.943 0.28 0.08 0 0.07 0.2 0.21 0.24 0.21 0.14 0.19
3270.236 0.2 0.21 0.19 0.2 0.23 0.15 0.19 0.19 0.19 0.25
3289.530 0.2 0.19 0.21 0.24 0.36 0.31 0.26 0.34 0.43 0.46
3308.823 0.52 0.54 0.57 0.58 0.55 0.69 0.81 0.71 0.61 0.64
3328.117 0.74 0.8 0.79 0.75 0.67 0.61 0.7 0.8 0.84 0.93
3347.410 0.98 0.97 0.92 0.91 0.9 0.9 0.94 0.94 0.84 0.84
3366.704 0.81 0.79 0.87 0.83 0.8 0.75 0.75 0.75 0.68 0.72
3385.997 0.69 0.69 0.71 0.7 0.73 0.68 0.64 0.62 0.66 0.71
3405.290 0.67 0.77 0.92 0.94 0.92 0.87 0.8 0.9 1 1
3424.584 1 0.91 0.83 0.82 0.86 0.87 0.84 0.85 0.87 0.95
3443.877 0.95 0.94 0.94 0.92 0.94 0.97 0.9 0.81 0.8 0.93
3463.171 1.07 1.07 1.13 1.2 1.3 1.467 1.647 1.839 1.997 2.1472
3482.464 2.29389 2.5391 2.7303 2.7803 2.8449 2.8094 2.7182 2.6406 2.4912 2.29323
3501.758 2.051 1.876 1.676 1.572 1.545 1.382 1.22 1.24 1.24 1.17
3521.051 1.21 1.289 1.419 1.417 1.294 1.316 1.455 1.408 1.424 1.525
3540.344 1.537 1.578 1.628 1.751 1.942 2.1671 2.31057 2.4823 2.8521 3.23
3559.638 3.77 4.67 5.96 8.07 11.27 16.01 23.2 33.41 46.71 62.08
3578.931 77.11 88.72 94.76 95.79 93.39 87.14 76.75 63.05 46.72 30.69
3598.225 18.5 11.23 7.64 5.92 5.19 4.84 4.65 4.7 4.96 5.49
3617.518 6.3 7.37 8.68 10.37 12.59 15.4 18.84 22.84 27.52 33.25
3636.812 39.92 47.15 54.1 59.16 61.24 60.81 58.72 55.5 50.92 44.33
3656.105 35.96 27.34 20.01 14.39 10.46 7.84 6.04 4.87 4.08 3.4
3675.398 2.8911 2.6252 2.432 2.30718 2.23352 2.112 2.104 2.05 1.903 1.84
3694.692 1.748 1.623 1.51 1.524 1.516 1.45 1.371 1.359 1.357 1.33
3713.985 1.258 1.15 1.19 1.231 1.277 1.301 1.294 1.296 1.289 1.293
3733.279 1.338 1.369 1.326 1.239 1.237 1.311 1.36 1.338 1.269 1.256
3752.572 1.258 1.22 1.18 1.17 1.18 1.21 1.16 1.06 1.04 1.1
3771.866 1.1 1.05 1.04 1.07 1.15 1.13 1.08 1.16 1.21 1.19
3791.159 1.16 1.13 1.09 1.11 1.14 1.14 1.18 1.272 1.279 1.2
3810.452 1.16 1.23 1.27 1.235 1.241 1.2 1.21 1.277 1.251 1.304
3829.746 1.249 1.16 1.23 1.297 1.379 1.391 1.387 1.372 1.41 1.411
3849.039 1.348 1.38 1.414 1.315 1.334 1.402 1.384 1.398 1.396 1.409
3868.333 1.411 1.397 1.392 1.375 1.35 1.339 1.338 1.362 1.429 1.429
3887.626 1.36 1.35 1.381 1.398 1.432 1.433 1.447 1.429 1.392 1.378
3906.920 1.398 1.475 1.49 1.503 1.476 1.399 1.448 1.461 1.412 1.42
3926.213 1.347 1.383 1.438 1.384 1.379 1.527 1.551 1.442 1.42 1.434
3945.506 1.469 1.487 1.498 1.523 1.537 1.511 1.502 1.572 1.603 1.596
3964.800 1.695 1.757 1.704 1.716 1.75 1.692 1.717 1.784 1.739 1.675
3984.093 1.712 1.765 1.739 1.728 1.8 1.786 1.749 1.761 1.643
##END=
