##TITLE=(1R,2S)-(-)-Norephedrine
##JCAMP-DX=4.24
##DATA TYPE=INFRARED SPECTRUM
##ORIGIN=EPA-IR VAPOR PHASE LIBRARY
##OWNER=SRD/NIST
Collection (C) 2018 copyright by the U.S. Secretary of Commerce
on behalf of the United States of America. All rights reserved.
##CAS REGISTRY NO=492-41-1
##MOLFORM=C 9 H 13 N O
##$NIST SOURCE=MSDC-IR
##STATE=gas
##XUNITS=1/CM
##YUNITS=ABSORBANCE
##XFACTOR=1.
##YFACTOR=0.001
##DELTAX=1.92898
##FIRSTX=549.8
##LASTX=4000.7
##FIRSTY=6.0699
##MAXX=4000.7
##MINX=549.759
##MAXY=0.0346299
##MINY=0
##NPOINTS=1790
##XYDATA=(X++(Y..Y))
549.759 6.0699 6.2499 6.1399 5.9999 5.8299 6.0099 5.9299 5.8299 5.8299 5.1999
569.049 4.4499 4.8199 4.9599 4.3799 4.4099 4.3399 4.2599 4.0499 3.9899 4.2599
588.339 4.2399 4.4599 4.4399 4.1899 4.3399 4.2299 4.1099 4.5299 4.9199 5.0899
607.628 5.3299 5.5699 6.0199 6.6499 7.4299 8.1799 8.4699 8.6499 8.9999 9.1999
626.918 9.2899 9.1299 8.7899 8.2999 7.8299 7.6799 7.3099 6.9099 6.5699 6.4799
646.208 6.6099 6.6399 6.9899 7.5099 7.6199 7.7899 8.2899 8.7099 8.9999 9.0599
665.498 9.1799 9.3999 9.4999 9.6999 9.9999 10.4299 10.9499 11.3799 12.2599 13.7499
684.787 15.7399 18.2899 20.9699 23.7799 26.6799 29.4699 31.8799 33.7799 34.6299 34.2699
704.077 32.9999 31.2099 28.9399 26.4399 24.0099 21.5599 19.7799 18.3599 17.2999 17.1099
723.367 17.4099 17.9699 18.9499 20.2299 21.4499 22.7299 24.3099 25.5899 26.1899 26.7799
742.657 27.3699 27.6399 27.6999 27.4999 27.1099 26.5499 25.8099 25.0399 24.1299 23.2499
761.947 22.3699 21.6299 21.1599 20.5999 20.1699 19.7499 19.4099 19.5399 19.8199 19.8499
781.236 19.9099 19.6999 19.5299 19.6399 19.5699 19.6399 19.5699 19.2699 19.0399 18.8999
800.526 18.4199 17.8099 17.2399 16.6599 16.2099 15.8499 15.5399 15.1399 14.7999 14.3399
819.816 13.8699 13.5199 13.2099 12.7999 12.3899 12.0499 11.6199 11.1099 10.7199 10.4399
839.106 10.0599 9.9199 9.8399 9.5299 9.1199 8.7499 8.5799 8.5699 8.1899 8.0499
858.395 8.1299 7.8599 7.6299 7.4599 7.4399 7.1299 6.7099 6.4999 6.1499 5.8799
877.685 5.6699 5.6299 5.4099 5.1599 5.2499 5.1199 4.8699 4.6799 4.5799 4.4899
896.975 4.4499 4.5099 4.7699 4.8599 4.8399 4.9699 5.0199 4.9399 4.8899 5.0399
916.265 5.0799 5.1099 5.1599 5.1599 5.1799 5.1399 5.2699 5.5099 5.6799 5.7599
935.555 5.8799 6.0499 6.0899 6.1299 6.3799 6.5199 6.4499 6.3199 6.0899 5.9199
954.844 5.7899 5.7299 5.7699 5.8299 5.7999 5.7899 5.8699 6.2299 6.5899 6.8199
974.134 7.2299 7.6799 8.2199 8.8499 9.7099 10.4999 11.2799 12.1299 12.7299 13.3099
993.424 13.8899 14.3599 14.8199 15.2399 15.5099 15.9699 16.5899 17.2899 18.1199 18.9799
1012.714 20.0899 21.0499 22.0199 22.7599 23.6499 24.6199 25.2599 25.4999 25.4499 25.5099
1032.003 25.1499 24.9299 24.7399 24.1699 23.6399 23.1999 22.3999 21.5899 20.9599 20.1099
1051.293 18.9999 17.8899 17.1299 16.4699 15.7399 15.0399 14.4699 13.5899 12.6799 12.1099
1070.583 11.3599 11.0299 10.7299 10.3899 10.5699 10.1799 9.3699 9.0999 9.1599 9.1999
1089.873 8.9599 8.8299 9.1399 9.5499 9.3599 9.2799 9.6899 10.1399 10.4399 10.6599
1109.163 11.1999 11.3599 11.0699 11.3699 11.6499 11.4099 11.2599 10.7299 10.3099 9.9999
1128.452 9.4499 8.9999 8.7599 8.8699 8.4299 7.8799 7.7099 7.5499 7.3599 7.0399
1147.742 6.8499 6.8199 6.8899 6.8099 6.8299 6.8799 6.7399 6.7599 6.7799 7.2699
1167.032 8.0099 8.2799 8.2299 8.3999 8.8799 9.0299 9.4899 10.2699 10.6899 10.7799
1186.322 11.0199 11.3599 11.4699 11.9499 12.4499 12.9699 13.3499 13.3699 13.2699 13.5699
1205.611 13.3399 12.9699 12.8699 12.3199 12.2499 11.9699 11.5699 11.5899 11.7499 11.8999
1224.901 11.7699 11.6699 11.4699 11.2699 11.4199 11.5199 10.9599 10.7499 10.6499 10.3299
1244.191 10.2299 9.9299 9.7099 9.3499 9.2999 9.2499 9.0799 8.9999 8.9499 8.7499
1263.481 8.4299 8.4799 8.4299 8.5599 8.8099 8.7199 8.8299 9.1099 8.9599 8.7599
1282.771 8.7999 8.9399 8.9299 8.8699 8.9799 9.2099 9.3899 9.5699 9.7299 9.9199
1302.060 10.2299 10.5799 10.8699 11.0199 11.1499 11.3099 11.4699 11.6299 11.7399 11.6999
1321.350 11.6099 11.4999 11.3499 11.0099 10.6299 10.4099 10.0899 9.7299 9.3799 9.0099
1340.640 8.6499 8.3499 8.1399 7.9499 7.8299 7.7999 7.7899 7.7999 7.9499 8.2499
1359.930 8.5799 8.9999 9.5199 10.1899 10.9999 11.6999 12.4199 13.0899 13.7099 14.2699
1379.219 14.5799 14.7399 14.6899 14.4599 14.1099 13.6599 13.0899 12.4299 11.7999 11.1699
1398.509 10.4599 9.7299 9.1399 8.5799 8.1099 7.6499 7.1599 6.6099 6.1099 5.8099
1417.799 5.5699 5.3099 5.0599 4.9299 4.8999 4.8799 4.9799 5.2099 5.4999 5.8199
1437.089 6.3599 7.1099 7.8599 8.5899 9.3799 10.1399 10.7299 11.0599 11.1499 11.1699
1456.378 11.0299 10.5399 9.8999 9.1599 8.3599 7.6199 6.8599 6.2499 5.7899 5.4999
1475.668 5.4099 5.3799 5.4899 5.7899 6.2299 6.7599 7.2099 7.5199 7.7499 7.8599
1494.958 7.8099 7.5599 7.0899 6.4699 5.8299 5.0499 4.3799 3.9099 3.4199 3.0599
1514.248 2.9099 2.7799 2.6799 2.6699 2.6599 2.6599 2.6599 2.6799 2.6999 2.7899
1533.538 2.8299 2.8499 2.8299 2.7599 2.7899 2.7799 2.8399 2.8199 2.7399 2.7999
1552.827 2.8099 2.7699 2.7499 2.7099 2.6899 2.7199 2.7399 2.9099 3.0499 3.0999
1572.117 3.3199 3.4999 3.5699 3.6999 3.8299 4.0199 4.3499 4.6099 4.8999 5.2599
1591.407 5.6899 6.1599 6.6499 7.2099 7.6399 7.9599 8.2599 8.5699 8.7699 8.8799
1610.697 9.0799 9.0799 8.9799 8.9899 9.0399 9.0099 8.8299 8.6099 8.3199 7.9599
1629.986 7.4699 6.9899 6.5499 6.0899 5.6899 5.2599 4.7799 4.3199 4.0399 3.7899
1649.276 3.5199 3.3199 3.0799 2.8899 2.7499 2.5799 2.4299 2.3599 2.2499 2.1299
1668.566 2.0999 1.9999 1.8799 1.7999 1.7699 1.7299 1.6299 1.5499 1.4499 1.3499
1687.856 1.3299 1.3099 1.2699 1.2799 1.2199 1.1599 1.2299 1.2699 1.2099 1.1999
1707.146 1.1799 1.1599 1.1899 1.1799 1.1699 1.2099 1.2499 1.2199 1.1999 1.2199
1726.435 1.1799 1.1499 1.1899 1.1699 1.0999 1.0299 1.1199 1.2299 1.2299 1.2099
1745.725 1.2399 1.2899 1.3299 1.3999 1.4099 1.2599 1.1599 1.1699 1.1799 1.1499
1765.015 1.1299 1.0999 1.0399 1.0053 1.0036 1.0399 1.0399 0.9512 1.0045 1.0799
1784.305 1.1599 1.2499 1.2999 1.4199 1.5699 1.7499 1.8599 1.9399 1.9999 1.9999
1803.594 1.9999 1.9899 1.8899 1.7599 1.6599 1.5099 1.3499 1.1799 1.0299 1.0499
1822.884 1.0799 0.9882 0.9696 0.9132 0.8786 0.854 0.7176 0.7372 0.7785 0.74
1842.174 0.7446 0.7428 0.7628 0.7486 0.726 0.7731 0.866 0.9373 0.9418 1.0176
1861.464 1.1499 1.1799 1.2399 1.2899 1.3299 1.4299 1.4299 1.4699 1.5499 1.5399
1880.754 1.5399 1.6099 1.6299 1.5699 1.5599 1.5499 1.4499 1.2999 1.1999 1.1499
1900.043 1.0499 0.9387 0.8571 0.8381 0.7983 0.7372 0.6974 0.6612 0.7237 0.771
1919.333 0.759 0.7954 0.8631 0.9109 0.9839 1.0699 1.2099 1.3599 1.4399 1.5399
1938.623 1.6299 1.6899 1.7399 1.7599 1.8399 1.8699 1.7999 1.7599 1.7999 1.7199
1957.913 1.5199 1.4299 1.3199 1.1799 1.0999 0.9652 0.8131 0.6714 0.597 0.5214
1977.202 0.5056 0.536 0.5191 0.4826 0.468 0.5028 0.4471 0.3911 0.3914 0.3651
1996.492 0.3632 0.362 0.3669 0.4338 0.4795 0.4372 0.3893 0.3894 0.4076 0.3554
2015.782 0.3501 0.3808 0.3258 0.3875 0.4083 0.3615 0.4237 0.4446 0.3952 0.4131
2035.072 0.4001 0.3373 0.378 0.4633 0.4856 0.3539 0.2975 0.3133 0.3066 0.3308
2054.362 0.3479 0.3429 0.3167 0.2946 0.2765 0.2566 0.2633 0.303 0.3069 0.3151
2073.651 0.2973 0.2624 0.3025 0.3214 0.2199 0.253 0.3476 0.2762 0.1674 0.2563
2092.941 0.3637 0.3555 0.3681 0.3521 0.3065 0.2909 0.2962 0.2952 0.2993 0.2333
2112.231 0.2415 0.3093 0.297 0.2478 0.2307 0.2811 0.2961 0.2298 0.1959 0.176
2131.521 0.1291 0.1823 0.2894 0.3241 0.2411 0.216 0.2537 0.2138 0.2208 0.2853
2150.810 0.3027 0.3516 0.3208 0.2405 0.2721 0.2597 0.2403 0.2106 0.2062 0.3458
2170.100 0.3315 0.2792 0.3558 0.3214 0.3188 0.3388 0.3452 0.2957 0.1884 0.1676
2189.390 0.154 0.1796 0.2175 0.2413 0.1873 0.1447 0.164 0.2063 0.2866 0.3084
2208.680 0.3096 0.3676 0.381 0.3846 0.3936 0.3394 0.2545 0.2461 0.2881 0.2269
2227.970 0.1971 0.2409 0.3604 0.3742 0.2948 0.3776 0.4708 0.4651 0.4243 0.304
2247.259 0.3084 0.41 0.4595 0.36 0.1997 0.1967 0.2422 0.2737 0.2588 0.2784
2266.549 0.3313 0.374 0.3499 0.2896 0.2591 0.1989 0.2164 0.2743 0.2534 0.216
2285.839 0.2945 0.3566 0.3109 0.3254 0.2733 0.2547 0.3587 0.3773 0.3287 0.3316
2305.129 0.3794 0.3841 0.3562 0.3636 0.4554 0.5819 0.6034 0.5816 0.5272 0.4716
2324.418 0.4529 0.4006 0.47 0.488 0.4781 0.5268 0.5695 0.5496 0.5299 0.5633
2343.708 0.5036 0.4536 0.4169 0.4663 0.5132 0.4239 0.3773 0.4254 0.4223 0.3868
2362.998 0.3347 0.2969 0.3705 0.358 0.3151 0.3314 0.374 0.4264 0.4157 0.3971
2382.288 0.4039 0.4312 0.4655 0.466 0.4464 0.4356 0.392 0.3079 0.2156 0.1977
2401.578 0.3371 0.5094 0.5169 0.5027 0.4252 0.3318 0.3192 0.3166 0.3926 0.4645
2420.867 0.3515 0.3353 0.3955 0.3185 0.3787 0.4192 0.3439 0.3939 0.4153 0.406
2440.157 0.4309 0.3627 0.3345 0.3707 0.4129 0.4386 0.4304 0.4959 0.5601 0.4837
2459.447 0.3432 0.2996 0.324 0.3754 0.4573 0.4755 0.405 0.3839 0.4739 0.5332
2478.737 0.4344 0.3358 0.3176 0.2952 0.3328 0.4101 0.4503 0.4492 0.4358 0.4436
2498.026 0.387 0.3954 0.4971 0.437 0.3981 0.393 0.3928 0.3956 0.4253 0.4616
2517.316 0.4889 0.5003 0.419 0.3912 0.4334 0.423 0.4033 0.4928 0.5796 0.5665
2536.606 0.5091 0.469 0.586 0.6239 0.5234 0.5367 0.5391 0.4966 0.6094 0.6152
2555.896 0.5171 0.53 0.5169 0.5037 0.5737 0.684 0.6449 0.6289 0.7466 0.739
2575.186 0.7173 0.8038 0.8431 0.8634 0.8586 0.8886 0.955 0.9662 0.861 0.8448
2594.475 0.9059 0.9932 1.0499 0.9476 0.8976 0.8721 0.948 1.0299 0.9478 0.848
2613.765 0.8825 0.9808 0.9489 0.7732 0.796 0.9093 0.9803 0.9739 0.9089 1.0069
2633.055 1.0187 0.9664 0.9141 0.8805 0.9398 0.9599 0.9865 0.9158 0.8543 0.9488
2652.345 0.9054 0.8054 0.8616 0.8271 0.6788 0.7595 0.8074 0.8121 0.8519 0.7046
2671.634 0.7596 0.9157 0.8455 0.7701 0.7125 0.7236 0.8605 0.946 0.9688 0.9788
2690.924 0.9397 0.9483 0.9805 0.8736 0.8594 1.0069 1.0699 1.0083 0.9887 1.0699
2710.214 1.0799 1.1099 1.1399 0.9917 0.9369 1.0699 1.2299 1.3299 1.2599 1.1599
2729.504 1.0999 1.1599 1.1899 1.1499 1.2899 1.3599 1.3099 1.2899 1.2299 1.1299
2748.794 1.2599 1.4099 1.3999 1.3599 1.3399 1.2199 1.3399 1.4999 1.3699 1.4399
2768.083 1.6099 1.6399 1.6499 1.6099 1.6099 1.7099 1.7799 1.8399 1.7999 1.8499
2787.373 1.9799 2.0499 2.1699 2.2499 2.1399 2.0699 2.1599 2.2299 2.2699 2.3599
2806.663 2.4099 2.5599 2.7199 2.7599 2.7799 3.0199 3.3099 3.5399 3.8099 3.8599
2825.953 3.9899 4.3499 4.5599 4.8499 5.2899 5.6899 6.0099 6.3599 6.8299 7.0399
2845.242 7.5199 7.9999 8.2599 8.6799 9.1299 9.5899 9.9599 10.4599 11.0199 11.5499
2864.532 12.1799 12.8599 13.5499 14.3999 15.2999 16.1099 16.8299 17.4099 17.9599 18.4199
2883.822 18.7999 19.0299 18.9099 18.7799 18.7299 18.3699 18.0599 17.6999 17.3899 17.2999
2903.112 16.9799 16.6699 16.4499 16.2999 15.8999 15.3699 14.9999 14.5999 14.3699 14.1599
2922.401 13.9499 13.7999 13.7499 13.6699 13.5799 13.5999 13.5899 13.3199 12.9499 12.6799
2941.691 12.2499 11.6399 11.0499 10.4599 10.0999 10.1699 10.4999 11.1699 12.0999 13.2499
2960.981 14.7099 16.3699 17.9799 19.2099 19.8799 20.2799 20.5699 20.3599 19.8599 19.1699
2980.271 18.1599 16.9299 15.7099 14.7499 13.7499 12.6599 11.5899 10.3799 9.4499 8.6099
2999.561 7.6799 7.0299 6.6199 6.2399 5.7299 5.4599 5.5899 5.8799 6.3299 7.0199
3018.850 7.7799 8.4499 9.5799 10.9499 11.9899 13.1099 14.1299 14.6199 15.0199 15.0199
3038.140 14.5799 14.0199 13.2299 12.3899 11.5899 10.8199 10.2999 10.0899 10.0999 10.4699
3057.430 11.1999 12.2299 13.2999 14.4299 15.7799 16.8299 17.5199 17.7699 17.6099 17.4599
3076.720 17.0799 16.0499 14.7399 13.5999 12.4099 11.2699 10.5999 9.8799 9.0299 8.4899
3096.009 7.9199 7.3799 6.8499 6.2199 5.5899 5.1399 4.7399 4.0999 3.6599 3.3199
3115.299 2.8899 2.5999 2.3499 1.9699 1.6699 1.5199 1.4199 1.3899 1.2499 1.1299
3134.589 1.1299 1.1399 1.0031 0.9279 0.8716 0.92 0.9662 0.8235 0.8516 0.8914
3153.879 0.938 0.9525 1.0499 1.1499 0.9902 0.8881 0.9687 0.9078 0.7003 0.7187
3173.169 0.7928 0.7261 0.6327 0.6441 0.6474 0.6755 0.6991 0.66 0.7294 0.7702
3192.458 0.7465 0.7482 0.6352 0.5918 0.8111 0.8617 0.7042 0.6158 0.7516 0.7195
3211.748 0.3823 0.2648 0.4202 0.5113 0.4857 0.4904 0.5196 0.695 0.6585 0.5546
3231.038 0.4918 0.4207 0.5317 0.5323 0.4284 0.3633 0.3052 0.4449 0.4898 0.3475
3250.328 0.4646 0.4657 0.3417 0.3156 0.3618 0.3525 0.3831 0.4008 0.2661 0.3472
3269.617 0.3272 0.3059 0.4176 0.3228 0.3005 0.4153 0.383 0.3627 0.4367 0.4369
3288.907 0.4013 0.4063 0.543 0.5571 0.5404 0.5412 0.442 0.4156 0.5138 0.4919
3308.197 0.4198 0.5967 0.6561 0.4908 0.3705 0.4421 0.5408 0.5153 0.5752 0.5613
3327.487 0.5669 0.6216 0.5279 0.7059 1.0199 1.0067 0.9336 0.9326 0.9295 0.9062
3346.777 0.8235 0.9851 1.0144 0.5603 0.4681 0.6601 0.6815 0.7414 0.8218 0.8467
3366.066 0.897 0.8438 0.5753 0.4006 0.4866 0.6756 0.6888 0.6678 0.7912 0.7511
3385.356 0.8095 0.9923 0.9394 0.8692 0.9095 0.9648 0.893 1.0195 1.3399 1.3699
3404.646 1.4899 1.7299 1.7099 1.5899 1.5899 1.6999 1.7799 1.7399 1.6399 1.4199
3423.936 1.3599 1.4699 1.3399 1.2599 1.2599 1.1699 1.1499 1.1999 1.3199 1.3899
3443.225 1.3299 1.3199 1.1999 1.2999 1.3299 1.2399 1.3499 1.3899 1.5299 1.5099
3462.515 1.3799 1.2899 1.1599 1.1999 1.3599 1.3799 1.1999 1.0399 1.0999 1.1699
3481.805 1.2199 1.2399 1.1999 1.1799 1.1499 1.2099 1.3199 1.3799 1.3799 1.5099
3501.095 1.6699 1.6899 1.7599 1.9799 1.9999 1.9999 2.4299 2.8799 2.9999 3.1499
3520.385 3.6399 4.2099 4.5899 4.7899 4.8899 5.2799 5.4799 5.2299 5.1399 5.1799
3539.674 5.0399 4.6499 4.2099 3.7899 3.8399 3.7099 3.2699 3.1799 2.7799 2.4399
3558.964 2.3899 2.3799 2.2499 2.1399 2.0999 2.2399 2.4799 2.3899 2.1799 1.9299
3578.254 1.7199 1.7799 1.8099 1.7699 1.6799 1.6299 1.6699 1.7299 1.7399 1.6099
3597.544 1.5899 1.7299 1.8199 1.6899 1.6699 1.7099 1.7399 1.7699 1.7199 1.6499
3616.833 1.5399 1.5899 1.7999 1.9699 2.0299 2.0899 2.2299 2.4999 2.7599 3.1899
3636.123 3.7599 4.0699 4.5799 5.2999 5.9999 6.6299 7.0399 7.2899 7.3599 7.2299
3655.413 7.0299 6.6599 6.1299 5.3699 4.6499 3.9399 3.4399 3.0899 2.5899 2.2499
3674.703 1.8799 1.4499 1.3599 1.3499 1.2999 1.2899 1.1099 1.0499 1.0299 1.0061
3693.993 0.884 0.8821 1.0599 0.9512 0.8912 0.7924 0.6201 0.5872 0.6324 0.7707
3713.282 0.7523 0.5136 0.4609 0.6515 0.7698 0.8042 0.8564 0.7783 0.5295 0.4753
3732.572 0.5616 0.4509 0.4409 0.3916 0.5066 0.7113 0.5602 0.4098 0.4862 0.4214
3751.862 0.1829 0.11364 0.1891 0.232 0.3709 0.4321 0.3004 0.349 0.3752 0.439
3771.152 0.4625 0.601 0.714 0.6167 0.6572 0.6475 0.4816 0.2464 0.1404 0.1669
3790.441 0.1642 0.1373 0.2738 0.3597 0.1864 0.2874 0.4693 0.4518 0.5225 0.7116
3809.731 0.6935 0.5645 0.477 0.2854 0.2364 0.3465 0.1741 0.278 0.3485 0.1405
3829.021 0.4451 0.4351 0.3739 0.4984 0.3119 0.2921 0.4106 0.2844 0.314 0.6048
3848.311 0.6307 0.3285 0.3306 0.4859 0.3698 0.3196 0.3211 0.381 0.6696 0.7163
3867.601 0.6644 0.592 0.4715 0.6096 0.7602 0.6679 0.6199 0.6699 0.5627 0.4151
3886.890 0.3115 0.4226 0.5774 0.7088 0.6517 0.3889 0.3326 0.5967 0.7681 0.5912
3906.180 0.4651 0.3839 0.4109 0.6218 0.7705 0.7741 0.5431 0.3176 0.4923 0.6435
3925.470 0.6716 0.7228 0.4883 0.3975 0.3201 0.201 0.3346 0.3249 0.1757 0.11851
3944.760 0.1217 0.11081 0.1677 0.1656 0 0.138 0.3495 0.3138 0.3579 0.466
3964.049 0.5538 0.4445 0.3975 0.5193 0.6178 0.607 0.5442 0.6171 0.816 0.6851
3983.339 0.2681 0.2741 0.4908 0.3157 0.03607 0.0323 0.245 0.3778 0.2168 0.1955
##END=
