##TITLE=2-Nitro-3-methoxybenzoic acid
##JCAMP-DX=4.24
##DATA TYPE=INFRARED SPECTRUM
##ORIGIN=EPA-IR VAPOR PHASE LIBRARY
##OWNER=SRD/NIST
Collection (C) 2018 copyright by the U.S. Secretary of Commerce
on behalf of the United States of America. All rights reserved.
##CAS REGISTRY NO=4920-80-3
##MOLFORM=C 8 H 7 N O 5
##$NIST SOURCE=MSDC-IR
##STATE=gas
##XUNITS=1/CM
##YUNITS=ABSORBANCE
##XFACTOR=1.
##YFACTOR=0.001
##DELTAX=1.92898
##FIRSTX=549.8
##LASTX=4000.7
##FIRSTY=3.637
##MAXX=4000.7
##MINX=549.759
##MAXY=0.026247
##MINY=0
##NPOINTS=1790
##XYDATA=(X++(Y..Y))
549.759 3.637 3.627 3.357 3.617 3.897 3.567 3.507 3.857 3.767 3.497
569.049 3.527 3.507 3.457 3.467 3.317 3.347 3.487 3.437 3.487 3.537
588.339 3.107 3.057 3.167 2.967 2.967 3.057 2.897 2.767 2.857 2.747
607.628 2.497 2.447 2.477 2.267 1.877 1.787 1.937 1.817 1.627 1.517
626.918 1.527 1.677 1.827 1.957 2.107 2.127 2.497 3.077 3.527 4.217
646.208 4.717 5.177 5.607 5.617 5.727 5.967 5.407 4.557 4.087 3.677
665.498 3.157 2.557 2.057 1.627 1.3457 1.3844 1.3611 1.1714 1.0707 1.0421
684.787 1.1918 1.1282 0.9649 0.9957 1.0936 1.0938 0.8622 0.8725 1.1309 1.2429
704.077 1.0394 0.787 0.7607 0.9337 1.0298 1.0323 1.1242 1.1765 1.1982 1.4027
723.367 1.717 2.007 2.487 3.007 3.737 4.447 4.977 5.657 6.207 6.807
742.657 7.257 7.557 7.917 8.157 8.447 8.857 9.137 8.947 8.217 7.147
761.947 6.217 5.507 4.697 3.907 3.247 2.747 2.367 2.077 1.827 1.797
781.236 1.857 1.657 1.597 1.747 1.637 1.3184 1.256 1.3593 1.4812 1.607
800.526 1.497 1.4746 1.4186 1.4452 1.597 1.517 1.4625 1.4517 1.4635 1.4601
819.816 1.4659 1.527 1.4823 1.3632 1.4025 1.537 1.4221 1.3514 1.617 1.907
839.106 2.087 2.507 3.157 3.597 3.737 3.587 3.797 4.247 4.097 3.577
858.395 3.107 2.437 1.907 1.537 1.2369 1.1959 1.2041 1.0922 0.9195 0.9219
877.685 1.2497 1.1948 0.9935 1.2715 1.3235 1.224 1.3241 1.4645 1.557 1.507
896.975 1.3325 1.281 1.3177 1.497 1.567 1.3891 1.3264 1.4015 1.385 1.2278
916.265 1.0619 1.0027 0.9863 1.0576 1.0989 1.1335 1.2421 1.2165 1.1325 1.0326
935.555 1.0117 1.0728 0.9768 0.9458 0.9102 0.7663 0.8111 0.8823 0.8545 0.9647
954.844 1.0098 0.9181 0.8522 0.8633 0.9126 0.9242 1.054 0.999 0.9309 1.1294
974.134 1.2223 1.184 1.2208 1.2412 1.2505 1.254 1.339 1.3501 1.2562 1.3775
993.424 1.4834 1.3037 1.4483 1.827 1.947 2.087 2.037 2.217 2.487 2.637
1012.714 3.037 3.337 3.487 3.927 4.737 5.287 5.577 6.217 6.797 7.337
1032.003 7.967 8.427 8.717 8.897 9.357 9.687 10.007 10.267 10.227 10.377
1051.293 10.607 11.027 11.107 10.657 10.457 10.227 9.647 8.967 8.177 7.307
1070.583 6.697 6.117 5.837 5.297 4.527 4.217 3.867 3.617 3.567 3.617
1089.873 3.557 3.567 4.037 4.357 4.427 4.437 4.907 5.857 6.527 6.787
1109.163 7.017 7.167 7.217 7.457 7.247 7.097 7.157 6.807 6.707 6.997
1128.452 7.217 7.407 7.657 8.227 8.747 9.327 9.587 9.147 8.767 8.367
1147.742 7.527 6.577 5.917 5.217 4.717 4.477 4.367 4.327 4.617 5.187
1167.032 5.477 5.627 5.577 5.677 5.847 5.297 4.697 4.447 4.307 3.927
1186.322 3.347 2.807 2.417 2.207 2.217 2.267 1.947 1.747 1.797 1.917
1205.611 2.337 2.767 2.997 3.267 3.577 3.917 4.087 4.267 4.357 4.367
1224.901 4.027 3.567 3.387 3.087 2.867 2.867 2.677 2.647 2.907 2.907
1244.191 2.967 3.017 3.087 3.397 3.837 4.407 4.787 5.247 5.917 6.667
1263.481 7.707 8.917 10.017 11.157 12.327 13.207 13.787 14.077 13.987 13.587
1282.771 13.267 12.757 11.877 11.007 10.497 10.127 9.647 9.407 9.297 9.167
1302.060 9.077 9.117 9.007 8.707 8.427 8.107 7.857 7.597 7.327 7.097
1321.350 6.837 6.557 6.337 6.197 6.037 5.937 5.977 6.087 6.257 6.487
1340.640 6.837 7.437 8.157 8.917 9.767 10.807 12.027 13.267 14.407 15.427
1359.930 16.177 16.567 16.637 16.297 15.447 14.217 12.807 11.277 9.707 8.247
1379.219 6.907 5.847 5.007 4.277 3.727 3.347 3.067 2.847 2.667 2.507
1398.509 2.427 2.377 2.327 2.267 2.277 2.257 2.247 2.317 2.347 2.397
1417.799 2.467 2.697 2.977 3.207 3.577 3.997 4.427 4.867 5.277 5.567
1437.089 5.837 6.037 6.037 6.007 5.937 5.907 5.887 5.917 6.087 6.337
1456.378 6.567 6.767 6.887 6.927 6.917 6.927 6.937 6.957 6.997 6.967
1475.668 6.827 6.587 6.277 5.907 5.467 4.897 4.307 3.817 3.407 3.107
1494.958 2.867 2.697 2.587 2.497 2.447 2.407 2.327 2.317 2.367 2.467
1514.248 2.537 2.657 2.827 2.877 3.007 3.227 3.467 3.737 4.047 4.357
1533.538 4.717 5.197 5.707 6.327 7.127 7.987 8.967 10.297 11.927 13.727
1552.827 15.617 17.667 19.597 21.347 22.877 23.937 24.307 23.787 22.507 20.887
1572.117 19.117 17.427 15.967 14.747 13.667 12.647 11.677 10.687 9.797 8.997
1591.407 8.087 7.087 6.277 5.577 5.077 4.747 4.437 4.227 4.107 3.877
1610.697 3.527 3.247 3.077 2.867 2.647 2.457 2.327 2.227 2.097 1.997
1629.986 1.907 1.867 1.757 1.657 1.687 1.637 1.597 1.567 1.4642 1.4549
1649.276 1.4711 1.4272 1.4006 1.371 1.3361 1.3171 1.2789 1.2383 1.2538 1.2007
1668.566 1.0537 1.0609 1.0739 1.0168 1.0078 1.0472 1.0591 1.0278 1.0535 1.0793
1687.856 1.0889 1.0896 1.1182 1.1169 1.11 1.2016 1.2476 1.2451 1.3169 1.3644
1707.146 1.4149 1.547 1.727 1.787 1.837 1.987 2.127 2.187 2.307 2.447
1726.435 2.597 2.727 2.867 3.047 3.287 3.557 3.877 4.337 4.797 5.317
1745.725 5.887 6.527 7.407 8.547 10.107 12.097 14.427 16.917 19.387 21.767
1765.015 23.847 25.387 26.247 25.917 24.277 22.087 19.907 17.637 15.277 12.967
1784.305 10.877 9.247 8.087 7.247 6.687 6.277 5.917 5.577 5.207 4.717
1803.594 4.227 3.747 3.317 2.947 2.557 2.217 1.947 1.737 1.587 1.476
1822.884 1.4377 1.3521 1.2019 1.1134 1.0697 1.0296 1.036 1.0784 1.048 0.967
1842.174 0.9058 0.8735 0.8607 0.8548 0.9186 0.9379 0.9083 0.8818 0.8655 0.8851
1861.464 0.87 0.8846 0.9203 0.865 0.8152 0.8151 0.8771 0.9011 0.8216 0.7573
1880.754 0.7881 0.805 0.7535 0.7388 0.7325 0.7346 0.7628 0.7495 0.6895 0.6521
1900.043 0.6411 0.6938 0.7197 0.6852 0.7164 0.7101 0.6925 0.7385 0.7276 0.7271
1919.333 0.7744 0.8334 0.8353 0.7984 0.8616 0.953 0.9542 0.8462 0.8815 0.973
1938.623 0.9376 0.9048 0.8417 0.8053 0.7928 0.8569 0.8793 0.8509 0.7764 0.7374
1957.913 0.7452 0.6796 0.6602 0.6664 0.6432 0.6626 0.6574 0.62 0.6627 0.6485
1977.202 0.58339 0.54729 0.55028 0.6582 0.6808 0.6282 0.6445 0.6352 0.618 0.6157
1996.492 0.6175 0.6469 0.6415 0.58143 0.6124 0.6701 0.7092 0.7366 0.7369 0.7362
2015.782 0.7493 0.7335 0.758 0.784 0.7652 0.788 0.7793 0.7778 0.7818 0.7759
2035.072 0.7457 0.7419 0.6931 0.6458 0.6769 0.6627 0.6884 0.6926 0.6782 0.7225
2054.362 0.7597 0.6825 0.6078 0.5996 0.6405 0.6863 0.6442 0.6556 0.6761 0.6056
2073.651 0.57307 0.6042 0.6011 0.6243 0.6581 0.6728 0.6772 0.6193 0.5959 0.6723
2092.941 0.654 0.6375 0.6599 0.6409 0.6277 0.5893 0.6356 0.6661 0.5901 0.56699
2112.231 0.6402 0.6738 0.6458 0.611 0.6213 0.6585 0.6544 0.6346 0.56489 0.52446
2131.521 0.55851 0.54008 0.5962 0.6299 0.5914 0.6039 0.5877 0.601 0.6123 0.6048
2150.810 0.5774 0.58494 0.6149 0.616 0.6314 0.6692 0.7109 0.7002 0.6322 0.6047
2170.100 0.6574 0.6557 0.6795 0.6938 0.6732 0.7035 0.6917 0.6901 0.6599 0.58333
2189.390 0.596 0.6214 0.58314 0.58534 0.57273 0.57553 0.6135 0.5979 0.6195 0.625
2208.680 0.6574 0.6468 0.6071 0.6827 0.6569 0.53889 0.54041 0.52784 0.51751 0.58356
2227.970 0.55012 0.50318 0.493065 0.57941 0.6365 0.58151 0.53841 0.54408 0.54752 0.6436
2247.259 0.6911 0.5762 0.53044 0.56696 0.6251 0.5954 0.6035 0.56725 0.51911 0.56915
2266.549 0.6071 0.56768 0.52301 0.53951 0.58122 0.614 0.57447 0.49919 0.54534 0.6021
2285.839 0.5714 0.5965 0.5876 0.53472 0.51466 0.56518 0.5895 0.52773 0.50546 0.55908
2305.129 0.6128 0.57522 0.5332 0.58539 0.6279 0.628 0.613 0.6128 0.6332 0.6054
2324.418 0.6164 0.6355 0.6366 0.6274 0.6183 0.6342 0.6112 0.6206 0.6408 0.6383
2343.708 0.6244 0.6022 0.6006 0.6038 0.57841 0.5921 0.6162 0.6056 0.6136 0.57835
2362.998 0.55637 0.6756 0.7118 0.6046 0.55536 0.56333 0.625 0.7089 0.6983 0.6396
2382.288 0.6852 0.6821 0.6564 0.6393 0.5965 0.613 0.6368 0.6132 0.54953 0.55015
2401.578 0.5909 0.6372 0.6298 0.5955 0.6093 0.6414 0.6796 0.6763 0.6197 0.54011
2420.867 0.53298 0.6372 0.6539 0.6173 0.6142 0.683 0.6925 0.6347 0.6435 0.6517
2440.157 0.6016 0.4901 0.5683 0.7494 0.7331 0.7242 0.6877 0.51236 0.51596 0.6614
2459.447 0.664 0.604 0.6231 0.6415 0.6111 0.6353 0.6873 0.7111 0.7297 0.7261
2478.737 0.7481 0.6753 0.58488 0.6537 0.7208 0.6526 0.6055 0.6024 0.53482 0.6361
2498.026 0.7592 0.6968 0.6219 0.6184 0.6262 0.5887 0.6501 0.7227 0.7343 0.6938
2517.316 0.6015 0.6342 0.6778 0.6378 0.6199 0.6499 0.6368 0.5922 0.5951 0.6339
2536.606 0.6717 0.6789 0.6893 0.7031 0.7418 0.83 0.8374 0.6903 0.6543 0.6947
2555.896 0.7414 0.7569 0.7434 0.7596 0.7124 0.7185 0.7247 0.7022 0.6716 0.6215
2575.186 0.6886 0.7317 0.6797 0.6621 0.6904 0.6743 0.5917 0.6447 0.6398 0.57273
2594.475 0.6121 0.6324 0.5876 0.57437 0.6408 0.634 0.6994 0.6706 0.6038 0.55781
2613.765 0.49417 0.54615 0.6432 0.6938 0.6479 0.6447 0.6672 0.7411 0.6928 0.6137
2633.055 0.58191 0.50402 0.50969 0.53792 0.6385 0.7239 0.7116 0.6194 0.58498 0.6516
2652.345 0.6137 0.6271 0.7085 0.7655 0.6896 0.57635 0.58644 0.6162 0.6301 0.57442
2671.634 0.4718 0.4464 0.50667 0.5398 0.56835 0.6587 0.7248 0.733 0.6516 0.6687
2690.924 0.7227 0.7083 0.7341 0.7973 0.7812 0.6916 0.6899 0.7409 0.7321 0.7201
2710.214 0.7651 0.7783 0.7654 0.7238 0.7685 0.7965 0.6908 0.6439 0.6509 0.6703
2729.504 0.7012 0.6944 0.6966 0.6603 0.6755 0.6957 0.6049 0.5929 0.6521 0.6673
2748.794 0.7142 0.7242 0.7044 0.67 0.6215 0.6389 0.6167 0.6088 0.6959 0.7048
2768.083 0.57035 0.6313 0.751 0.7395 0.7236 0.702 0.659 0.5927 0.5955 0.6227
2787.373 0.5916 0.5925 0.6885 0.6943 0.6802 0.7348 0.7794 0.7769 0.7016 0.7473
2806.663 0.7516 0.7191 0.7439 0.6857 0.7006 0.7862 0.8191 0.8465 0.8525 0.8441
2825.953 0.8571 0.8396 0.8588 0.9 0.9902 1.0924 1.2643 1.3013 1.3812 1.677
2845.242 1.877 1.937 1.937 1.927 1.927 1.887 1.777 1.717 1.737 1.577
2864.532 1.4306 1.4847 1.419 1.3756 1.4248 1.4228 1.3073 1.2733 1.3334 1.4155
2883.822 1.405 1.3395 1.3951 1.315 1.3244 1.454 1.497 1.537 1.597 1.697
2903.112 1.667 1.767 1.827 1.767 1.807 1.747 1.767 1.837 1.787 1.897
2922.401 2.007 1.877 1.857 1.927 1.927 1.847 1.797 2.007 2.197 2.397
2941.691 2.757 2.887 2.997 3.197 3.227 3.137 3.077 2.927 2.817 2.747
2960.981 2.587 2.417 2.387 2.357 2.147 2.177 2.177 2.027 2.017 1.987
2980.271 1.897 1.797 1.707 1.677 1.537 1.497 1.617 1.597 1.497 1.517
2999.561 1.537 1.507 1.607 1.527 1.4837 1.617 1.687 1.767 1.907 1.997
3018.850 2.007 2.067 2.097 2.087 1.957 1.817 1.687 1.547 1.4227 1.3716
3038.140 1.4324 1.4681 1.38 1.4115 1.371 1.143 1.0148 1.0988 1.1799 1.1158
3057.430 1.1527 1.093 1.0582 1.0827 1.1527 1.2507 1.1486 1.2625 1.367 1.3983
3076.720 1.4132 1.4105 1.4024 1.497 1.577 1.497 1.557 1.487 1.3504 1.4038
3096.009 1.3589 1.2619 1.221 1.196 1.1045 0.8526 0.8139 0.9032 0.975 0.86
3115.299 0.7979 0.7895 0.5903 0.6597 0.7894 0.6798 0.5996 0.5906 0.6904 0.6082
3134.589 0.6875 0.8576 0.6963 0.6637 0.7318 0.7217 0.7175 0.7703 0.8229 0.7051
3153.879 0.6635 0.7215 0.6493 0.6918 0.7452 0.6545 0.6018 0.5995 0.6186 0.5909
3173.169 0.7059 0.8206 0.7605 0.58357 0.362 0.3903 0.4658 0.4283 0.4558 0.58275
3192.458 0.6152 0.6924 0.6718 0.6256 0.6571 0.564 0.51858 0.56284 0.55776 0.53758
3211.748 0.6595 0.6335 0.5292 0.628 0.6942 0.57853 0.4455 0.53143 0.6078 0.6858
3231.038 0.6159 0.4484 0.53455 0.6237 0.703 0.6164 0.4553 0.356 0.352 0.4733
3250.328 0.52014 0.55913 0.51278 0.4403 0.4041 0.243 0.153 0.3 0.3965 0.52686
3269.617 0.56687 0.4098 0.289 0.175 0.229 0.4157 0.57353 0.6069 0.4271 0.36
3288.907 0.362 0.347 0.4307 0.4552 0.346 0.232 0.23 0.377 0.316 0.175
3308.197 0.34 0.341 0.278 0.364 0.277 0.294 0.3999 0.3984 0.47935 0.4659
3327.487 0.285 0.165 0.151 0.16 0.361 0.38 0.359 0.47723 0.4546 0.4527
3346.777 0.4278 0.4042 0.314 0.318 0.5263 0.4291 0.221 0.36 0.47907 0.34
3366.066 0.251 0.4116 0.4478 0.31 0.4358 0.4745 0.271 0.303 0.358 0.296
3385.356 0.256 0.114 0.154 0.311 0.265 0.239 0.364 0.4008 0.4412 0.56384
3404.646 0.4064 0.307 0.37 0.4358 0.6462 0.7457 0.55835 0.4017 0.291 0.307
3423.936 0.359 0.297 0.366 0.4146 0.495323 0.4594 0.4043 0.58693 0.494299 0.4022
3443.225 0.4488 0.33 0.342 0.4326 0.490657 0.4757 0.4245 0.4344 0.50653 0.6325
3462.515 0.51479 0.334 0.4258 0.5996 0.5734 0.335 0.346 0.4153 0.362 0.4344
3481.805 0.379 0.248 0.333 0.50328 0.490182 0.343 0.309 0.358 0.494053 0.6033
3501.095 0.52419 0.4531 0.4535 0.3895 0.52579 0.6294 0.53464 0.489186 0.6101 0.8095
3520.385 0.6684 0.52038 0.55437 0.6087 0.6953 0.7564 0.7191 0.6828 0.6575 0.7046
3539.674 0.8525 0.7266 0.6212 0.7274 0.8814 0.856 0.8893 1.043 1.0628 1.171
3558.964 1.2911 1.617 2.237 3.057 4.467 6.397 8.277 10.027 11.667 12.717
3578.254 13.007 12.717 11.797 10.507 8.687 6.667 4.827 3.337 2.317 1.647
3597.544 1.214 0.9097 0.8571 0.7898 0.6874 0.6702 0.6804 0.6553 0.6201 0.6608
3616.833 0.6418 0.50255 0.58229 0.6226 0.56228 0.56828 0.441 0.325 0.365 0.55768
3636.123 0.56767 0.377 0.238 0.346 0.4421 0.4085 0.377 0.303 0.377 0.54124
3655.413 0.421 0.308 0.285 0.257 0.294 0.225 0.168 0.305 0.364 0.364
3674.703 0.3942 0.56154 0.6684 0.6156 0.6446 0.532 0.4565 0.4082 0.347 0.489265
3693.993 0.51372 0.338 0.282 0.376 0.344 0.326 0.375 0.219 0.165 0.178
3713.282 0.132 0.199 0.317 0.283 0.281 0.237 0.109 0.205 0.4718 0.56142
3732.572 0.4282 0.4231 0.4464 0.307 0.386 0.4189 0.309 0.353 0.318 0.28
3751.862 0.359 0.457 0.287 0.237 0.324 0.4707 0.53398 0.4178 0.4321 0.4359
3771.152 0.5082 0.4405 0.277 0.325 0.316 0.18 0.267 0.31 0.2 0.18
3790.441 0.266 0.4298 0.51977 0.4319 0.254 0.186 0.236 0.327 0.4996 0.47953
3809.731 0.349 0.56018 0.50635 0.351 0.348 0.126 0.061 0.216 0.306 0.282
3829.021 0.303 0.352 0.307 0.3905 0.308 0.185 0.243 0.207 0.301 0.356
3848.311 0.345 0.4225 0.4059 0.302 0.342 0.4554 0.55694 0.494131 0.381 0.3906
3867.601 0.52139 0.4635 0.236 0.112 0.097 0.354 0.55814 0.335 0.106 0.129
3886.890 0.262 0.296 0.253 0.4527 0.4146 0.229 0.201 0.244 0.4024 0.384
3906.180 0.214 0.232 0.261 0.262 0.31 0.334 0.372 0.4748 0.58686 0.4502
3925.470 0.357 0.356 0.186 0.248 0.284 0.194 0.167 0.089 0.194 0.276
3944.760 0.208 0.196 0.352 0.4498 0.3955 0.224 0.297 0.53448 0.375 0.217
3964.049 0.272 0.327 0.4682 0.4336 0.247 0.171 0.145 0.335 0.47825 0.353
3983.339 0.267 0.289 0.4151 0.4149 0.13 0 0.156 0.224 0.313 0.4117
##END=
