##TITLE=1-Ethyl-3-isopropylbenzene
##JCAMP-DX=4.24
##DATA TYPE=INFRARED SPECTRUM
##ORIGIN=NIST Mass Spectrometry Data Center
##OWNER=NIST Standard Reference Data Program
Collection (C) 2018 copyright by the U.S. Secretary of Commerce
on behalf of the United States of America. All rights reserved.
##CAS REGISTRY NO=4920-99-4
##MOLFORM=C 11 H 16
##$NIST SOURCE=MSDC-IR
##SPECTROMETER/DATA SYSTEM=HP-GC/MS/IRD
##STATE=gas
##XUNITS=1/CM
##YUNITS=ABSORBANCE
##XFACTOR=1.0
##YFACTOR=0.000004100
##DELTAX=4.0
##FIRSTX=550.0
##LASTX=3846.0
##FIRSTY=0.000426
##MAXX=3846
##MINX=550
##MAXY=0.041
##MINY=0
##NPOINTS=825
##XYDATA=(X++(Y..Y))
550.0 104 77 69 66 69 62 45 23 35 43
590.0 34 28 17 5 1 14 13 19 32 37
630.0 50 62 64 67 74 56 44 57 66 64
670.0 71 108 175 276 429 706 1064 1469 1849 1815
710.0 1437 1060 712 440 286 203 156 140 132 136
750.0 149 175 212 256 322 439 616 830 1035 1221
790.0 1274 1107 870 641 443 313 251 226 189 194
830.0 215 200 192 167 114 77 60 52 61 89
870.0 146 231 326 440 516 509 482 467 447 408
910.0 338 246 176 140 113 86 66 51 43 48
950.0 47 41 38 40 53 64 68 67 72 64
990.0 54 52 50 55 59 62 68 74 77 93
1030.0 121 147 202 282 366 436 463 453 414 382
1070.0 372 361 354 353 337 308 286 266 231 186
1110.0 152 131 106 91 91 87 69 53 51 49
1150.0 46 57 86 123 169 223 253 245 211 158
1190.0 99 66 56 45 36 42 50 50 53 63
1230.0 78 92 93 96 104 110 115 116 126 142
1270.0 170 207 242 275 302 320 341 373 419 461
1310.0 483 485 476 470 454 434 409 370 341 329
1350.0 328 344 377 423 491 531 528 550 576 570
1390.0 541 483 404 350 337 353 382 415 464 537
1430.0 628 724 818 899 963 1030 1100 1180 1251 1282
1470.0 1291 1299 1337 1362 1311 1168 949 691 473 328
1510.0 247 205 166 136 123 117 107 95 88 90
1550.0 96 101 113 144 188 249 338 457 607 777
1590.0 968 1151 1307 1389 1344 1159 886 587 358 234
1630.0 167 132 106 83 77 73 71 76 79 81
1670.0 85 98 108 107 104 99 81 55 40 38
1710.0 36 28 25 33 31 22 21 28 38 47
1750.0 49 62 84 102 107 105 107 107 103 98
1790.0 90 76 61 50 38 32 26 22 25 28
1830.0 31 36 49 66 89 122 149 150 130 99
1870.0 67 42 28 27 28 24 21 27 31 36
1910.0 48 64 80 100 111 106 99 74 44 33
1950.0 24 18 19 20 20 19 18 16 12 9
1990.0 14 16 16 20 18 11 14 18 21 18
2030.0 17 17 14 16 16 14 15 15 14 13
2070.0 13 8 1 4 7 6 5 8 7 4
2110.0 1 3 4 4 3 2 0 0 1 3
2150.0 2 1 4 7 3 2 6 7 5 3
2190.0 6 5 1 4 8 10 12 13 14 10
2230.0 10 12 13 17 19 18 16 15 18 21
2270.0 20 18 21 22 20 20 19 22 21 15
2310.0 14 16 13 11 15 21 23 28 32 33
2350.0 31 32 33 26 21 25 27 26 25 27
2390.0 27 25 25 28 29 27 30 29 32 35
2430.0 36 40 34 30 32 31 28 31 30 32
2470.0 40 37 29 32 33 32 34 33 33 35
2510.0 37 38 40 40 35 33 31 30 30 29
2550.0 36 42 42 44 47 46 47 53 62 69
2590.0 79 81 80 76 68 64 62 60 60 64
2630.0 65 62 59 63 61 57 57 52 50 54
2670.0 52 53 55 58 61 65 66 65 67 77
2710.0 87 90 97 109 127 137 142 147 145 146
2750.0 149 147 145 149 158 165 169 172 173 177
2790.0 188 200 213 226 244 266 286 307 330 357
2830.0 393 436 486 559 651 761 904 1096 1348 1653
2870.0 2016 2393 2710 2910 2981 2957 2923 2898 2878 2863
2910.0 2841 2812 2841 2996 3307 3739 4200 4542 4664 4654
2950.0 4719 5189 6337 7943 9411 10000 9190 7350 5247 3539
2990.0 2527 2002 1732 1598 1535 1521 1550 1610 1690 1757
3030.0 1783 1756 1675 1590 1540 1536 1553 1549 1505 1416
3070.0 1256 1054 869 723 619 564 522 490 458 418
3110.0 372 328 291 260 235 214 197 192 182 169
3150.0 172 176 162 151 143 137 139 138 136 132
3190.0 130 131 132 121 113 103 100 99 90 84
3230.0 75 70 64 60 66 61 53 52 50 47
3270.0 47 51 57 61 58 50 42 39 34 31
3310.0 28 30 32 36 31 28 31 35 40 36
3350.0 32 26 12 10 25 36 28 17 16 22
3390.0 28 32 32 31 34 24 22 27 30 33
3430.0 35 33 27 28 26 24 30 32 32 23
3470.0 16 19 17 17 20 17 28 35 25 20
3510.0 25 35 25 29 30 23 31 24 21 25
3550.0 34 33 16 8 8 14 17 23 26 19
3590.0 22 22 19 18 14 9 19 25 19 7
3630.0 0 16 28 28 20 9 17 25 35 31
3670.0 20 20 25 32 33 29 26 25 28 31
3710.0 32 33 29 25 31 40 34 32 31 23
3750.0 25 34 40 38 28 28 38 39 38 40
3790.0 43 55 56 43 39 44 46 42 38 37
3830.0 40 37 40 46 40
##END=
