##TITLE=trans-Decahydronaphthalene
##JCAMP-DX=4.24
##DATA TYPE=INFRARED SPECTRUM
##ORIGIN=NIST Mass Spectrometry Data Center
##OWNER=NIST Standard Reference Data Program
Collection (C) 2018 copyright by the U.S. Secretary of Commerce
on behalf of the United States of America. All rights reserved.
##CAS REGISTRY NO=493-02-7
##MOLFORM=C 10 H 18
##$NIST SOURCE=MSDC-IR
##SPECTROMETER/DATA SYSTEM=HP-GC/MS/IRD
##STATE=gas
##XUNITS=1/CM
##YUNITS=ABSORBANCE
##XFACTOR=1.0
##YFACTOR=0.000022100
##DELTAX=4.0
##FIRSTX=550.0
##LASTX=3846.0
##FIRSTY=0.000398
##MAXX=3846
##MINX=550
##MAXY=0.221
##MINY=0
##NPOINTS=825
##XYDATA=(X++(Y..Y))
550.0 18 20 28 36 37 29 22 28 32 26
590.0 22 20 16 12 8 2 1 1 4 7
630.0 13 12 13 21 19 14 14 15 14 8
670.0 7 7 4 2 3 4 5 6 6 10
710.0 8 7 13 13 11 13 12 9 8 9
750.0 7 6 7 6 3 5 4 2 5 5
790.0 6 8 10 18 21 26 36 50 61 89
830.0 120 131 129 116 93 55 28 19 13 8
870.0 8 6 5 5 7 9 10 13 18 25
910.0 36 48 69 78 82 82 70 53 37 26
950.0 22 26 38 55 69 71 77 81 68 48
990.0 36 27 20 16 14 15 21 30 34 37
1030.0 38 36 28 23 23 24 27 29 27 24
1070.0 20 14 10 9 8 7 7 8 9 11
1110.0 14 19 23 28 36 47 53 56 52 47
1150.0 43 37 31 26 20 13 10 11 12 12
1190.0 10 11 12 13 17 28 43 61 75 79
1230.0 76 71 60 59 73 79 78 87 76 48
1270.0 30 19 14 14 18 23 29 39 50 60
1310.0 58 53 55 58 63 78 94 97 103 110
1350.0 94 72 57 42 30 24 22 24 26 25
1390.0 25 28 30 31 33 37 42 47 56 76
1430.0 125 216 342 478 624 796 839 712 584 450
1470.0 313 185 97 57 37 27 20 16 14 11
1510.0 10 8 7 6 6 4 2 1 2 3
1550.0 5 4 1 4 6 7 6 9 11 11
1590.0 12 11 9 9 8 8 6 5 5 4
1630.0 5 4 5 4 4 1 1 3 2 2
1670.0 4 3 3 2 1 2 3 3 5 5
1710.0 6 6 4 4 5 6 6 8 8 7
1750.0 7 6 6 5 5 4 3 4 8 9
1790.0 7 10 9 9 8 7 6 5 4 3
1830.0 2 3 4 3 4 5 5 6 7 6
1870.0 7 6 5 6 5 4 3 3 4 4
1910.0 5 4 3 4 3 4 4 3 4 3
1950.0 3 4 4 3 2 2 4 5 5 6
1990.0 6 5 4 4 5 3 4 4 6 5
2030.0 4 3 4 5 6 6 5 4 3 3
2070.0 4 4 3 1 0 1 3 1 0 0
2110.0 1 3 2 1 0 0 0 0 1 2
2150.0 3 3 4 7 10 11 12 13 13 12
2190.0 13 12 11 12 12 12 12 10 8 5
2230.0 3 2 1 2 1 1 3 3 2 3
2270.0 4 5 6 7 10 12 13 13 12 11
2310.0 10 11 10 9 7 6 6 8 10 9
2350.0 8 8 9 9 8 9 10 11 15 16
2390.0 16 15 14 13 13 13 12 11 11 12
2430.0 11 10 8 9 8 6 7 7 8 9
2470.0 10 12 13 13 14 15 17 20 20 18
2510.0 17 16 15 13 14 14 16 17 16 17
2550.0 20 22 24 27 31 34 38 41 46 48
2590.0 48 49 51 50 51 53 56 59 63 65
2630.0 69 73 75 78 86 99 115 130 140 145
2670.0 140 125 108 97 91 85 82 81 78 74
2710.0 71 69 65 59 57 56 51 48 47 48
2750.0 50 52 55 61 72 82 95 110 128 148
2790.0 164 179 191 201 207 214 222 237 266 323
2830.0 433 641 994 1525 2196 2986 3850 4327 4217 3714
2870.0 2990 2212 1573 1252 1201 1349 1641 2064 2659 3481
2910.0 4522 5746 7039 8294 9638 10000 9026 7875 6440 4685
2950.0 2962 1558 767 434 288 214 168 140 121 107
2990.0 93 82 72 63 55 48 42 38 38 39
3030.0 41 42 46 53 59 66 74 81 80 72
3070.0 58 45 35 29 24 20 17 17 15 12
3110.0 11 13 17 18 19 21 23 24 26 28
3150.0 27 25 24 19 16 14 14 14 13 15
3190.0 19 21 22 25 27 29 29 27 25 23
3230.0 22 22 23 25 24 24 27 30 28 23
3270.0 19 16 13 8 7 8 6 5 5 6
3310.0 7 6 7 6 7 9 9 9 9 7
3350.0 6 5 4 5 5 4 4 6 8 9
3390.0 9 8 7 8 7 10 12 11 9 10
3430.0 11 13 12 13 15 15 15 17 17 15
3470.0 14 14 16 16 14 12 11 10 7 4
3510.0 4 3 0 1 4 2 1 3 4 4
3550.0 4 5 3 3 4 3 2 1 2 3
3590.0 4 4 3 2 3 2 1 0 0 1
3630.0 2 1 2 1 2 6 5 4 5 6
3670.0 5 4 5 8 10 10 11 12 12 11
3710.0 12 16 16 14 13 14 13 13 12 11
3750.0 12 13 17 19 17 17 17 17 18 17
3790.0 15 12 8 7 11 10 8 12 12 11
3830.0 12 11 10 12 13
##END=
