##TITLE=Isotetralin
##JCAMP-DX=4.24
##DATA TYPE=INFRARED SPECTRUM
##ORIGIN=NIST Mass Spectrometry Data Center
##OWNER=NIST Standard Reference Data Program
Collection (C) 2018 copyright by the U.S. Secretary of Commerce
on behalf of the United States of America. All rights reserved.
##CAS REGISTRY NO=493-04-9
##MOLFORM=C 10 H 12
##$NIST SOURCE=MSDC-IR
##SPECTROMETER/DATA SYSTEM=HP-GC/MS/IRD
##STATE=gas
##XUNITS=1/CM
##YUNITS=ABSORBANCE
##XFACTOR=1.0
##YFACTOR=0.000001300
##DELTAX=4.0
##FIRSTX=550.0
##LASTX=3846.0
##FIRSTY=0.000250
##MAXX=3846
##MINX=550
##MAXY=0.013
##MINY=0
##NPOINTS=825
##XYDATA=(X++(Y..Y))
550.0 192 84 22 65 125 131 143 129 144 166
590.0 197 163 118 169 145 93 112 179 266 356
630.0 463 554 735 990 1279 1734 2401 3186 4035 5397
670.0 6751 6115 4580 3649 2753 1799 1027 592 362 301
710.0 298 317 343 501 654 614 552 630 617 460
750.0 391 358 304 291 295 294 287 292 250 201
790.0 173 147 138 135 150 114 109 154 158 125
830.0 88 87 70 50 83 80 68 91 101 111
870.0 119 118 108 109 128 122 129 152 163 196
910.0 202 174 160 148 129 136 185 273 397 586
950.0 868 1183 1489 1813 2127 2314 2184 1954 1750 1532
990.0 1498 1336 979 700 529 401 303 237 211 180
1030.0 150 147 164 164 155 148 146 185 190 168
1070.0 150 111 86 88 115 118 131 157 165 210
1110.0 213 187 200 233 266 274 260 234 197 135
1150.0 95 106 82 49 43 60 86 89 91 58
1190.0 11 0 6 10 5 14 22 22 15 20
1230.0 47 40 43 66 67 89 111 128 143 163
1270.0 156 149 163 133 108 91 72 82 101 117
1310.0 126 137 170 208 228 265 298 309 297 280
1350.0 268 242 195 155 149 155 149 146 146 166
1390.0 193 208 201 190 198 214 274 390 566 810
1430.0 1005 965 934 957 767 532 387 282 217 171
1470.0 149 148 143 148 148 152 165 166 154 153
1510.0 137 109 114 122 124 121 112 127 136 123
1550.0 127 159 186 182 179 170 169 160 154 152
1590.0 145 157 181 204 250 329 398 442 451 448
1630.0 444 439 441 518 694 929 1131 1209 1196 1078
1670.0 855 563 310 209 178 129 121 150 162 152
1710.0 140 158 170 139 127 130 112 90 88 93
1750.0 99 93 94 104 101 109 115 109 117 109
1790.0 116 118 127 126 124 129 113 114 104 94
1830.0 94 98 108 113 123 118 101 91 76 65
1870.0 60 63 72 84 86 83 88 105 113 121
1910.0 131 143 150 156 157 156 146 130 122 130
1950.0 137 118 95 93 102 95 85 88 92 78
1990.0 67 74 61 51 52 55 44 52 62 66
2030.0 63 51 53 65 60 61 60 43 48 59
2070.0 51 63 71 66 55 58 67 58 65 78
2110.0 65 48 61 69 66 75 81 60 44 61
2150.0 62 55 63 65 53 54 52 50 65 63
2190.0 56 61 62 60 75 81 68 64 57 52
2230.0 64 82 81 89 90 73 70 68 66 71
2270.0 70 61 63 72 70 80 92 86 97 96
2310.0 108 121 116 129 124 115 103 105 115 113
2350.0 122 138 156 154 135 116 101 91 79 68
2390.0 58 76 104 108 95 97 102 104 101 96
2430.0 93 88 61 59 69 46 47 43 44 56
2470.0 76 88 86 69 69 74 76 90 94 92
2510.0 96 90 73 65 80 88 94 100 97 81
2550.0 84 116 123 125 117 108 111 105 113 104
2590.0 114 140 138 137 140 141 145 134 124 133
2630.0 153 163 175 212 249 270 288 334 356 369
2670.0 371 356 355 327 281 270 294 322 346 374
2710.0 412 446 474 513 554 569 553 541 541 528
2750.0 515 520 534 560 608 646 687 769 852 923
2790.0 1032 1159 1337 1675 2270 3245 4650 6439 7965 8428
2830.0 8557 8660 8039 7264 6984 7139 8367 10000 9723 8731
2870.0 8519 8631 8732 8335 7528 6991 6134 4578 3075 2020
2910.0 1317 902 719 689 714 719 731 762 796 791
2950.0 799 838 888 968 1092 1259 1410 1473 1513 1525
2990.0 1408 1229 1084 972 922 963 1189 1760 3019 5233
3030.0 7748 9275 9623 9104 7601 5061 2737 1593 1167 973
3070.0 841 768 687 572 471 397 336 328 339 313
3110.0 309 309 310 299 271 248 264 276 265 206
3150.0 136 142 146 114 97 106 103 92 116 112
3190.0 95 105 108 111 98 94 100 133 141 128
3230.0 132 150 169 150 156 180 153 123 106 78
3270.0 51 75 96 106 104 86 111 131 118 120
3310.0 118 119 125 101 92 95 80 93 101 88
3350.0 74 69 93 106 98 91 77 72 77 98
3390.0 104 94 96 64 53 81 83 89 78 75
3430.0 78 70 79 83 111 113 95 102 78 73
3470.0 96 99 94 103 100 129 112 62 79 114
3510.0 120 112 96 127 139 112 111 87 75 78
3550.0 77 83 53 52 104 107 75 93 103 95
3590.0 119 95 52 51 69 87 90 107 98 77
3630.0 73 84 86 70 54 76 107 116 120 90
3670.0 90 107 82 96 134 120 126 166 152 139
3710.0 146 127 132 131 134 149 139 129 139 166
3750.0 166 148 154 179 187 151 118 118 135 165
3790.0 152 142 155 170 152 142 180 204 210 154
3830.0 130 170 158 168 179
##END=
