##TITLE=1-Adamantaneacetic acid
##JCAMP-DX=4.24
##DATA TYPE=INFRARED SPECTRUM
##ORIGIN=EPA-IR VAPOR PHASE LIBRARY
##OWNER=SRD/NIST
Collection (C) 2018 copyright by the U.S. Secretary of Commerce
on behalf of the United States of America. All rights reserved.
##CAS REGISTRY NO=4942-47-6
##MOLFORM=C 12 H 18 O 2
##$NIST SOURCE=MSDC-IR
##STATE=gas
##XUNITS=1/CM
##YUNITS=ABSORBANCE
##XFACTOR=1.
##YFACTOR=0.001
##DELTAX=1.92898
##FIRSTX=549.8
##LASTX=4000.7
##FIRSTY=2.787
##MAXX=4000.7
##MINX=549.759
##MAXY=0.148887
##MINY=0
##NPOINTS=1790
##XYDATA=(X++(Y..Y))
549.759 2.787 2.597 2.617 2.207 2.317 3.517 3.867 3.647 3.397 3.357
569.049 3.807 4.317 4.517 4.457 5.357 6.167 6.457 7.777 8.967 10.567
588.339 13.187 16.277 18.937 20.867 22.847 24.637 25.177 24.937 23.577 20.767
607.628 18.527 17.007 15.717 14.927 14.687 13.887 12.927 12.077 11.317 11.287
626.918 10.657 9.647 9.167 8.997 8.317 7.227 7.037 7.307 6.707 5.577
646.208 5.227 5.167 4.897 4.417 4.067 3.937 3.497 3.307 3.347 3.577
665.498 3.507 3.127 2.757 2.877 2.997 2.857 2.557 2.537 3.027 3.027
684.787 2.967 3.257 3.567 3.727 3.957 4.097 4.007 3.937 3.707 3.257
704.077 2.877 2.737 3.037 3.227 2.677 1.947 1.664 1.7418 1.7644 1.6277
723.367 1.2241 1.2982 1.6104 1.5475 1.1891 1.093 1.3536 1.4217 2.067 2.497
742.657 2.497 2.297 2.127 2.407 2.487 2.437 2.057 2.327 2.927 2.327
761.947 2.027 1.907 1.544 1.3332 1.3889 1.5121 1.5927 1.6561 1.5871 1.4972
781.236 1.6599 1.997 1.867 1.7407 1.907 1.7991 1.3864 1.1562 1.424 1.5523
800.526 1.5928 1.827 2.047 2.097 1.917 1.877 1.3694 1.4866 1.6926 1.6834
819.816 2.267 1.947 1.7191 2.317 1.857 1.3836 1.53 1.4022 1.4665 1.5786
839.106 1.2977 1.3788 1.5871 1.3681 1.3849 1.2665 1.1273 1.4935 1.6499 1.2426
858.395 1.4176 1.987 1.947 1.5683 1.2195 1.4469 1.5486 1.4213 1.927 2.157
877.685 2.117 1.867 1.4308 1.3962 1.3561 1.1847 1.3315 1.6337 1.7444 1.867
896.975 1.907 1.6456 1.1403 1.1083 1.2145 1.3319 1.612 1.3592 0.936 0.9319
916.265 1.3734 1.6383 1.4303 1.2149 1.4274 1.7711 1.907 1.977 2.177 2.307
935.555 2.287 1.977 2.097 2.377 2.137 2.047 1.817 1.4794 1.4871 1.5921
954.844 1.3644 1.4789 1.827 1.6946 1.5649 1.947 2.077 1.997 2.177 2.557
974.134 3.387 3.877 4.197 4.597 4.757 4.897 5.267 4.977 4.347 3.997
993.424 3.597 3.307 2.987 3.067 3.147 2.517 2.167 2.327 2.137 2.137
1012.714 2.587 2.157 1.7265 2.007 2.277 2.477 1.877 1.7623 2.327 2.627
1032.003 3.317 3.737 3.897 4.417 4.777 4.907 4.857 4.677 4.707 5.287
1051.293 5.507 5.407 5.147 4.997 4.527 4.387 5.427 5.977 5.757 5.737
1070.583 6.517 7.337 8.107 8.767 9.677 10.597 12.267 15.357 18.147 21.107
1089.873 23.027 24.757 28.117 30.477 30.947 31.347 32.807 34.227 34.707 34.577
1109.163 35.587 37.307 38.257 38.247 39.667 40.227 38.637 36.167 32.377 28.427
1128.452 24.717 21.777 19.667 17.867 15.667 13.577 12.707 12.437 10.797 9.847
1147.742 9.717 9.057 8.127 7.667 7.587 7.507 7.687 7.587 7.757 7.947
1167.032 7.987 8.607 9.867 10.827 10.947 11.107 11.957 13.417 14.747 14.867
1186.322 14.427 13.387 12.997 13.287 12.807 12.067 10.807 9.827 9.897 10.277
1205.611 10.197 10.947 10.667 10.107 10.097 10.197 11.037 11.307 11.167 10.437
1224.901 10.167 9.887 9.297 8.707 8.227 8.307 8.257 7.667 6.657 6.087
1244.191 6.167 5.957 5.837 6.257 6.207 5.717 5.407 5.687 6.637 6.777
1263.481 6.337 5.807 5.297 4.997 4.487 4.377 4.537 4.317 4.317 4.397
1282.771 4.217 3.947 4.147 4.507 4.317 4.357 4.577 4.557 4.607 4.427
1302.060 4.427 4.587 4.737 5.267 5.697 6.127 6.607 6.867 6.877 6.647
1321.350 6.407 6.097 5.917 5.957 6.077 6.437 6.927 7.437 7.917 8.187
1340.640 8.407 8.827 9.157 9.307 9.677 9.997 10.127 10.367 10.427 10.487
1359.930 10.487 10.107 9.827 9.577 9.137 8.957 8.937 8.867 8.797 8.617
1379.219 8.287 7.747 7.087 6.437 5.707 4.987 4.567 4.337 4.067 3.877
1398.509 3.557 3.487 3.617 3.497 3.297 3.237 3.327 3.427 3.457 3.457
1417.799 3.567 3.667 3.757 3.917 4.037 4.087 4.237 4.437 4.807 5.287
1437.089 5.637 6.067 6.687 7.367 8.337 9.397 10.407 11.477 12.187 12.397
1456.378 12.087 11.267 10.567 9.547 8.297 6.997 5.547 4.467 3.647 2.937
1475.668 2.467 2.227 1.967 1.635 1.4463 1.359 1.3576 1.3136 1.2245 1.1297
1494.958 1.097 0.9588 0.88689 1.0129 1.0447 1.0911 1.0791 1.0826 1.0615 1.0898
1514.248 1.1868 1.1076 1.1252 1.2771 1.1223 0.9525 1.1458 1.3757 1.3217 1.1785
1533.538 1.1163 0.9641 0.9631 1.1149 1.0498 1.1384 1.1277 0.88687 1.0337 1.1746
1552.827 1.0971 1.0323 0.94 1.0614 1.0866 0.86527 0.8649 1.0118 1.1304 1.1249
1572.117 1.0374 1.1193 1.1162 0.7378 0.7908 1.0891 0.9709 0.9738 1.0318 1.0899
1591.407 1.2193 1.2011 1.1179 1.1157 0.9591 0.7512 0.914 1.3576 1.3117 0.9237
1610.697 0.9638 1.1275 1.172 1.2305 1.2241 1.1158 1.1932 1.2872 1.2226 1.1943
1629.986 1.298 1.2962 1.1613 1.1046 1.0775 1.1937 1.4614 1.4896 1.4661 1.5408
1649.276 1.3885 1.2653 1.1945 1.1862 1.1567 1.2655 1.5408 1.5981 1.6325 1.6443
1668.566 1.6671 1.6935 1.5366 1.6004 1.759 1.745 1.957 2.137 2.317 2.307
1687.856 2.207 2.327 2.417 2.577 2.637 2.607 2.867 3.107 3.187 3.427
1707.146 3.477 3.597 3.947 4.217 4.387 4.617 4.887 5.307 5.747 6.267
1726.435 6.927 7.567 8.327 9.047 9.917 11.067 12.277 13.607 15.087 16.807
1745.725 18.577 20.487 22.587 24.687 27.057 29.697 32.547 35.847 39.567 43.157
1765.015 46.157 48.597 50.387 51.137 50.687 49.017 46.417 43.057 39.177 35.377
1784.305 31.857 28.597 25.547 22.967 20.807 18.557 16.577 14.967 13.327 11.757
1803.594 10.457 9.237 8.117 7.307 6.527 5.677 5.057 4.587 4.197 3.827
1822.884 3.547 3.307 3.137 3.037 2.757 2.507 2.417 2.367 2.237 2.167
1842.174 2.177 2.207 2.057 1.827 1.7722 1.6624 1.6082 1.613 1.5016 1.4543
1861.464 1.5874 1.5694 1.4763 1.6246 1.6442 1.5367 1.4955 1.3945 1.3357 1.3168
1880.754 1.3914 1.3607 1.3068 1.3439 1.3488 1.2211 1.1116 1.2395 1.2194 1.1644
1900.043 1.1867 1.1838 1.1317 1.1948 1.2959 1.2826 1.1254 0.9335 1.0635 1.1382
1919.333 1.0909 1.2436 1.2021 1.0979 1.072 1.1389 1.2398 1.1017 1.0823 1.1391
1938.623 1.1036 0.9943 0.7905 0.83146 1.0344 1.0801 0.90316 0.84073 0.9464 1.0401
1957.913 1.2113 1.0263 0.90587 1.038 1.0734 1.1349 1.1436 1.1204 1.0122 0.89225
1977.202 0.9816 1.089 0.9865 0.9637 1.0043 1.0291 1.0217 1.0686 1.0974 1.0546
1996.492 1.0371 1.0646 0.9945 0.9782 1.0629 1.0368 1.0174 0.89694 0.87891 0.9665
2015.782 0.9827 0.998 1.0057 1.0086 0.908 0.90051 1.0196 0.9817 0.9449 0.9731
2035.072 0.9833 0.9968 0.9739 1.0183 0.9195 0.672 0.704 0.928 0.9672 0.9131
2054.362 0.7954 0.702 0.8418 0.87309 0.86461 0.85923 0.82216 0.7807 0.80064 0.83634
2073.651 0.9326 0.87814 0.83164 0.816333 0.7924 0.87275 0.814472 0.7647 0.608 0.627
2092.941 0.7695 0.87921 1.0489 1.2127 1.1788 1.0286 1.005 0.9897 0.9469 0.85444
2112.231 0.88432 0.9829 1.033 1.1296 1.1419 1.067 0.84966 0.814528 0.9997 0.9962
2131.521 0.88222 0.9435 0.9663 0.908 0.85947 0.7824 0.89329 0.9835 0.9941 0.9785
2150.810 0.9128 0.8634 0.85709 0.89935 0.9939 1.0956 1.0803 1.0172 0.9406 0.767
2170.100 0.82678 0.89378 0.7833 0.83464 1.0198 0.9383 0.88631 0.85779 0.84303 1.0796
2189.390 1.0398 0.9774 0.9245 0.698 0.7881 1.073 1.052 1.0919 1.1524 0.89315
2208.680 0.7944 0.85932 0.9221 0.9761 0.88779 0.85363 0.9536 1.0131 0.9481 0.87905
2227.970 0.9207 0.90314 0.8916 0.9318 1.1289 1.1676 0.9745 0.932 0.9169 0.7936
2247.259 0.635 0.689 0.83558 1.023 0.9551 0.692 0.689 0.87493 1.0148 0.90467
2266.549 0.7818 0.9271 0.9771 0.80478 0.7593 0.592 0.439 0.596 0.7835 0.87526
2285.839 0.86809 0.9422 1.064 0.9708 0.86153 0.8254 0.9015 1.0019 0.9817 0.89423
2305.129 0.82924 0.86541 1.0085 1.0375 0.86069 0.9125 1.0233 1.0634 1.0694 0.87839
2324.418 0.705 0.806058 0.89087 0.9438 1.0034 0.9913 0.89671 0.82385 1.0283 1.0681
2343.708 0.79754 0.79775 0.84106 0.78 0.7665 0.7115 0.618 0.578 0.7287 0.7328
2362.998 0.80291 0.8846 0.68 0.594 0.7179 0.7824 0.9663 1.03 1.002 1.019
2382.288 0.9376 0.86379 0.9396 0.9879 0.83179 0.7925 0.7724 0.85044 0.90087 0.86475
2401.578 0.9781 0.9608 0.83778 0.732 0.7717 0.7314 0.698 0.774 0.81723 0.7855
2420.867 0.697 0.88681 0.9952 0.88375 0.7443 0.7868 0.9653 0.89578 0.82351 0.89303
2440.157 0.7226 0.569 0.7426 0.9085 0.9168 0.9228 1.0823 1.192 1.1053 1.0107
2459.447 0.9085 0.84883 0.9748 0.9917 0.89562 1.047 0.9157 0.85763 1.1165 1.0457
2478.737 0.9863 0.9433 0.671 0.679 0.7897 0.635 0.695 1.0679 1.2384 0.88098
2498.026 0.66 0.7958 0.689 0.806714 0.81791 0.518 0.613 0.7324 0.632 0.584
2517.316 0.813299 1.1139 1.0709 1.0332 1.0311 0.927 0.90625 0.81796 0.86318 0.9445
2536.606 0.9851 1.0453 0.84457 0.7343 0.9299 0.90597 0.813449 0.86497 0.9861 1.1159
2555.896 1.2418 1.0427 0.89732 1.1746 1.1944 1.1757 1.2877 1.1763 1.4138 1.6179
2575.186 1.422 1.2417 1.1889 1.3859 1.486 1.2534 1.087 1.2331 1.2658 1.0777
2594.475 1.2592 1.4814 1.113 1.02 1.1763 1.1896 1.0451 1.0287 1.1884 1.1009
2613.765 1.1764 1.5074 1.5912 1.4675 1.548 1.5237 1.5691 1.7953 1.8044 1.662
2633.055 1.5994 1.847 1.967 1.847 1.5797 1.634 1.827 2.097 2.277 2.137
2652.345 2.037 2.137 2.177 2.267 2.387 2.327 2.537 2.637 2.527 2.337
2671.634 2.447 2.287 2.007 2.207 2.297 2.267 1.967 1.6212 1.6462 1.6972
2690.924 1.6405 1.5993 1.6419 1.6461 1.5927 1.2675 1.0414 1.2314 1.2875 1.2759
2710.214 1.1637 0.93 1.1102 1.2674 1.1714 1.2017 1.1586 1.2282 1.2072 0.9609
2729.504 1.0642 1.1122 1.2685 1.4143 1.235 1.2226 1.2847 1.4243 1.4729 1.5035
2748.794 1.5071 1.4969 1.5105 1.6316 1.5442 1.4029 1.5663 1.2348 0.9152 1.0751
2768.083 1.0878 1.0522 1.2481 1.4188 1.5198 1.2703 1.0183 1.2626 1.2675 1.1666
2787.373 1.1504 1.2804 1.5244 1.4319 1.378 1.4271 1.6736 2.007 2.017 1.997
2806.663 2.167 2.527 2.637 2.667 2.907 2.987 3.197 3.517 3.657 4.067
2825.953 4.557 5.017 5.057 4.897 5.827 6.937 7.837 9.347 11.497 13.747
2845.242 16.527 20.227 24.107 27.937 31.967 35.417 37.377 37.867 37.107 34.867
2864.532 31.507 27.877 23.987 20.237 17.357 14.987 13.347 12.547 11.777 11.707
2883.822 12.287 13.157 14.737 16.967 20.257 25.487 32.367 41.107 52.287 65.317
2903.112 79.407 93.877 107.807 120.557 132.457 142.927 148.887 147.197 140.387 131.877
2922.401 119.357 106.537 93.237 76.987 62.337 51.827 45.307 41.037 37.437 34.147
2941.691 31.037 28.117 24.997 21.967 19.337 16.447 14.117 12.357 10.687 9.607
2960.981 8.457 7.217 6.757 6.427 5.737 5.087 4.597 4.137 3.917 3.697
2980.271 3.347 2.867 2.627 2.537 2.287 1.987 1.5875 1.371 1.867 2.417
2999.561 2.197 1.927 1.897 1.5381 1.111 1.0297 1.349 1.6159 1.6884 1.322
3018.850 1.2069 1.438 1.2664 1.0367 1.4945 1.5691 1.3817 1.5884 1.7238 1.6016
3038.140 1.3646 1.5682 1.5402 1.3528 1.3196 1.205 1.248 1.3327 1.2651 1.3933
3057.430 1.0605 0.9159 1.1883 1.3191 1.4088 1.429 1.2242 0.84186 0.614 0.7073
3076.720 0.9255 0.82962 0.8774 0.810731 0.589 0.79875 0.7918 0.88418 0.9704 0.82491
3096.009 0.813339 0.7927 0.88839 0.82001 0.809901 0.506 0 0.188 0.7692 0.89427
3115.299 0.83505 1.0091 1.2614 1.4891 1.2862 0.9524 0.9923 1.241 1.2825 1.1846
3134.589 1.3061 1.2908 1.0911 1.4691 1.2065 0.705 0.971 0.84653 0.662 0.84046
3153.879 1.2331 1.1927 0.676 1.0408 1.3309 0.82698 0.9031 1.0824 0.9956 0.9214
3173.169 0.84059 0.689 0.659 0.68 0.536 0.602 0.7344 0.57 0.706 0.623
3192.458 0.66 0.89532 0.638 0.7778 0.683 0.217 0.37 0.7517 0.7363 0.9898
3211.748 1.2853 1.0982 1.0321 1.1378 0.87065 0.7931 0.7256 0.518 0.7551 1.0402
3231.038 1.0834 0.698 0.7895 0.9598 0.473 0.556 0.9963 1.2385 1.0156 1.0489
3250.328 1.2307 0.9868 0.8437 0.9263 0.9183 0.738 1.1597 1.0973 0.9252 0.88766
3269.617 0.559 0.7911 1.0243 1.0615 1.1071 1.1007 0.9637 0.986 0.596 0.52
3288.907 0.948 0.546 0.337 0.814893 1.0575 1.1116 1.0747 0.9577 0.9366 0.614
3308.197 0.595 0.632 0.402 0.621 0.83557 0.82265 0.85076 1.0195 0.85936 0.86139
3327.487 0.9702 0.7819 0.7 0.74 0.89266 0.84855 0.7493 0.7223 0.7392 0.7478
3346.777 0.9733 1.1099 0.88699 1.0554 1.426 1.282 0.9452 0.7677 0.7999 0.86361
3366.066 1.079 0.9191 0.9348 1.4183 1.2802 1.2878 1.3673 0.813138 0.645 0.7475
3385.356 0.504 0.9073 1.3237 0.90205 0.7072 0.81914 0.7681 1.0127 1.1563 0.9741
3404.646 0.9209 0.557 0.462 1.1648 1.5103 1.2695 1.1769 1.0742 0.679 0.537
3423.936 0.596 0.9414 0.88016 0.446 0.405 0.505 0.810966 0.9851 0.701 0.9377
3443.225 1.1784 0.8132 0.6 0.7399 0.84688 0.7111 0.7446 0.7366 1.0467 1.063
3462.515 0.758 1.0771 1.5866 1.807 1.5968 0.89859 0.451 0.48 0.658 0.9983
3481.805 1.2434 1.0611 1.0157 0.9544 1.099 1.3103 1.0686 1.1468 1.3672 1.1178
3501.095 0.85409 0.7625 1.1071 1.3345 1.2892 1.827 2.197 2.277 1.807 1.5499
3520.385 1.7618 1.474 1.2934 1.3052 1.1499 0.9892 1.4331 1.5751 1.6466 1.7522
3539.674 1.5328 1.751 1.867 2.057 2.177 2.407 3.347 4.597 5.727 7.657
3558.964 10.477 14.087 18.357 21.357 23.097 24.277 24.077 22.677 20.197 16.427
3578.254 12.357 8.847 6.317 4.477 3.527 2.957 2.047 1.6002 1.3067 1.4309
3597.544 1.5703 1.2152 1.0417 1.1396 1.0639 1.0016 1.2393 1.5875 1.5573 1.3633
3616.833 1.3056 0.9727 0.9788 1.2093 1.1074 0.9789 1.0626 1.1421 1.0315 1.1281
3636.123 1.2604 1.2454 1.3804 1.2435 1.2876 1.2131 1.1357 0.9273 0.553 0.648
3655.413 0.7485 0.659 0.41 0.368 0.789 0.9474 0.90466 0.9813 0.7861 0.627
3674.703 0.389 0.7142 1.13 0.90556 0.702 0.81798 1.0751 1.0568 1.0149 1.1266
3693.993 0.9809 0.8794 0.9737 0.7155 0.582 0.633 0.365 0.242 0.16 0.7555
3713.282 1.1334 0.9645 1.0834 0.9677 1.0233 0.414 0.21 0.89972 1.159 1.1146
3732.572 0.9755 1.0103 0.7279 0.649 0.9802 1.0519 0.598 0.7319 1.235 0.9793
3751.862 0.693 0.482 0.205 0.218 0.291 0.493 0.652 0.641 0.512 0.339
3771.152 0.90268 0.9407 0.7597 1.1403 1.1889 1.0634 0.633 0.384 0.84706 1.1073
3790.441 0.87071 0.9678 1.1167 0.9958 0.621 0.599 1.0222 1.287 1.0651 0.7486
3809.731 0.393 0.397 0.83199 0.533 0.369 0.637 0.294 0.201 0.629 0.7432
3829.021 0.672 0.644 0.80509 1.0912 0.975 0.7341 1.0365 0.9952 0.9347 1.105
3848.311 1.1473 1.1564 1.2671 1.3093 1.2487 1.0796 0.9133 0.9164 0.808328 0.9671
3867.601 1.4731 1.3888 0.698 0.85543 1.0973 0.9254 0.7672 0.665 0.9327 1.0638
3886.890 1.0295 0.8661 0.84816 0.84852 1.0472 1.0309 0.59 0.459 0.643 0.9122
3906.180 1.0265 1.0979 1.0524 0.83394 0.463 0.346 0.603 0.727 0.679 0.536
3925.470 0.587 0.997 0.87948 0.704 0.662 0.52 0.87403 1.0408 0.84738 0.9132
3944.760 1.1281 1.0841 1.0841 0.7555 0.514 0.645 0.596 1.0919 1.5102 1.2207
3964.049 1.1629 1.2126 1.0073 0.494 0.049 0.155 0.31 0.242 0.354 0.7956
3983.339 0.7176 0.599 0.703 0.559 0.806441 1.2457 1.3485 1.2067 1.0298 1.0157
##END=
