##TITLE=Benzhydroxamic acid
##JCAMP-DX=4.24
##DATA TYPE=INFRARED SPECTRUM
##ORIGIN=NIST Mass Spectrometry Data Center
##OWNER=NIST Standard Reference Data Program
Collection (C) 2018 copyright by the U.S. Secretary of Commerce
on behalf of the United States of America. All rights reserved.
##CAS REGISTRY NO=495-18-1
##MOLFORM=C 7 H 7 N O 2
##$NIST SOURCE=MSDC-IR
##SPECTROMETER/DATA SYSTEM=HP-GC/MS/IRD
##STATE=gas
##XUNITS=1/CM
##YUNITS=ABSORBANCE
##XFACTOR=1.0
##YFACTOR=0.000003600
##DELTAX=4.0
##FIRSTX=550.0
##LASTX=3846.0
##FIRSTY=0.001886
##MAXX=3846
##MINX=550
##MAXY=0.036
##MINY=0
##NPOINTS=825
##XYDATA=(X++(Y..Y))
550.0 524 803 576 611 596 586 593 579 553 554
590.0 542 502 462 437 432 421 417 399 383 384
630.0 384 401 416 434 472 526 618 823 1100 1457
670.0 1856 2184 2468 2808 3227 3610 3817 3952 4039 3867
710.0 3450 2950 2451 1974 1554 1236 1002 856 773 742
750.0 738 702 662 645 625 591 528 472 434 385
790.0 331 286 247 212 192 180 179 209 209 253
830.0 321 309 247 149 66 27 7 2 18 54
870.0 101 165 273 414 575 761 934 1062 1148 1181
910.0 1171 1108 991 858 711 568 461 391 349 329
950.0 327 337 362 398 444 517 635 804 1048 1414
990.0 1860 2327 2801 3114 3103 2831 2381 1793 1237 856
1030.0 634 506 383 294 249 252 267 299 327 344
1070.0 362 358 365 372 369 356 350 335 302 273
1110.0 247 216 205 234 264 288 291 263 226 176
1150.0 128 120 118 132 175 228 280 303 304 280
1190.0 233 188 151 137 138 144 146 169 211 259
1230.0 312 365 423 491 564 645 736 835 908 974
1270.0 1051 1121 1195 1285 1340 1289 1170 1028 870 760
1310.0 726 736 768 804 844 904 1013 1172 1349 1579
1350.0 1896 2316 2889 3691 4774 6166 7767 9197 10000 9934
1390.0 8998 7369 5473 3881 2800 2113 1688 1412 1196 1052
1430.0 977 967 1013 1074 1119 1097 1053 941 772 675
1470.0 670 727 785 872 1007 1156 1299 1424 1487 1509
1510.0 1453 1305 1124 924 737 612 533 486 449 407
1550.0 380 389 431 451 487 556 621 665 689 732
1590.0 783 814 827 819 799 748 693 657 647 670
1630.0 725 819 918 1020 1137 1263 1397 1516 1718 2057
1670.0 2586 3332 4282 5268 5982 6333 6495 6188 5353 4442
1710.0 3641 2994 2451 1997 1646 1371 1135 926 775 691
1750.0 653 611 559 509 481 436 341 265 228 207
1790.0 206 219 237 256 252 238 213 184 161 145
1830.0 132 116 101 96 86 68 55 49 47 58
1870.0 69 74 82 86 98 115 124 123 121 114
1910.0 99 85 73 60 52 52 64 81 98 114
1950.0 118 123 131 130 121 102 79 56 38 26
1990.0 18 14 10 8 7 3 3 2 0 1
2030.0 4 6 2 1 1 1 1 2 7 9
2070.0 6 2 8 13 12 17 21 21 20 21
2110.0 22 21 23 20 18 21 28 34 41 49
2150.0 57 65 80 100 116 130 146 165 183 202
2190.0 221 246 272 290 307 327 338 349 374 414
2230.0 470 556 674 834 1045 1309 1609 1917 2187 2400
2270.0 2588 2736 2779 2698 2527 2268 1893 1486 1167 954
2310.0 818 723 655 611 581 552 517 483 459 423
2350.0 424 486 553 592 599 568 503 419 326 234
2390.0 169 123 92 70 52 41 34 26 24 27
2430.0 25 15 13 12 12 12 9 13 14 11
2470.0 9 9 7 8 10 8 11 11 10 12
2510.0 12 8 7 11 13 17 17 10 7 15
2550.0 17 15 20 19 16 12 17 19 12 13
2590.0 19 22 24 25 21 17 17 20 20 23
2630.0 23 21 20 21 17 15 16 15 10 8
2670.0 5 1 3 5 12 14 9 9 20 21
2710.0 13 12 15 21 26 27 27 28 25 20
2750.0 19 22 19 11 9 16 17 5 2 3
2790.0 0 2 10 16 17 8 5 13 17 21
2830.0 20 21 25 26 29 37 50 53 53 59
2870.0 57 43 41 34 33 30 28 33 27 19
2910.0 16 20 18 15 21 23 19 21 24 26
2950.0 27 23 24 17 15 24 24 32 43 48
2990.0 51 58 83 106 120 140 177 226 284 368
3030.0 465 555 622 661 685 692 702 789 949 1139
3070.0 1277 1334 1318 1218 1041 853 727 630 536 442
3110.0 359 281 214 149 106 82 64 52 47 42
3150.0 39 45 49 43 42 45 36 33 34 27
3190.0 22 17 13 16 13 11 12 10 10 4
3230.0 2 3 6 22 26 21 17 15 18 23
3270.0 35 36 40 54 66 75 84 103 121 142
3310.0 185 228 296 371 430 485 531 581 601 596
3350.0 593 576 568 549 523 506 495 483 459 439
3390.0 432 423 426 444 466 507 567 648 762 898
3430.0 1065 1225 1342 1416 1426 1361 1234 1081 924 781
3470.0 665 584 516 472 444 418 415 417 405 405
3510.0 428 457 462 446 413 341 247 164 113 97
3550.0 78 61 52 59 77 77 71 77 89 102
3590.0 92 67 52 39 50 66 59 61 62 74
3630.0 98 104 124 175 236 315 390 469 531 544
3670.0 494 414 304 175 103 71 43 24 19 23
3710.0 40 24 9 16 14 22 44 26 10 16
3750.0 10 0 0 0 0 0 0 0 0 0
3790.0 0 0 0 0 0 0 0 0 0 0
3830.0 0 0 0 0 0
##END=
