##TITLE=1,3-Diphenyl-2-buten-1-one
##JCAMP-DX=4.24
##DATA TYPE=INFRARED SPECTRUM
##ORIGIN=EPA-IR VAPOR PHASE LIBRARY
##OWNER=SRD/NIST
Collection (C) 2018 copyright by the U.S. Secretary of Commerce
on behalf of the United States of America. All rights reserved.
##CAS REGISTRY NO=495-45-4
##MOLFORM=C 16 H 14 O
##$NIST SOURCE=MSDC-IR
##STATE=gas
##XUNITS=1/CM
##YUNITS=ABSORBANCE
##XFACTOR=1.
##YFACTOR=0.001
##DELTAX=1.92898
##FIRSTX=549.8
##LASTX=4000.7
##FIRSTY=3.366
##MAXX=4000.7
##MINX=549.759
##MAXY=0.043136
##MINY=0
##NPOINTS=1790
##XYDATA=(X++(Y..Y))
549.759 3.366 3.586 4.076 4.736 5.246 6.076 6.396 6.346 6.526 6.036
569.049 5.246 4.626 3.676 2.796 2.456 2.416 2.066 1.956 1.736 1.746
588.339 1.856 1.606 1.646 1.736 1.936 2.086 2.226 2.156 1.966 1.706
607.628 1.516 1.566 1.726 1.756 1.586 1.636 1.816 1.686 1.506 1.526
626.918 1.446 1.376 1.406 1.436 1.606 1.916 2.046 2.166 2.326 2.486
646.208 2.796 3.056 3.406 3.936 4.446 4.916 5.556 6.216 6.856 7.626
665.498 8.456 9.156 9.676 10.226 10.886 11.576 12.246 13.006 13.926 15.256
684.787 16.896 18.696 20.676 22.426 23.576 23.986 23.576 22.336 20.656 18.726
704.077 16.446 14.186 12.166 10.446 9.276 8.346 7.656 7.256 6.856 6.496
723.367 6.316 6.476 6.686 6.966 7.346 7.966 8.966 10.096 11.336 12.726
742.657 14.126 15.856 17.576 18.806 19.466 19.336 18.796 17.646 15.886 14.146
761.947 12.496 10.876 9.326 8.126 7.256 6.326 5.656 5.226 4.666 4.186
781.236 3.946 3.626 3.266 2.936 2.736 2.666 2.466 2.166 2.176 2.176
800.526 2.076 2.046 1.856 1.776 1.796 1.806 1.766 1.736 1.756 1.656
819.816 1.686 1.776 1.696 1.866 2.106 2.096 2.166 2.386 2.636 2.866
839.106 2.986 3.416 4.176 4.976 5.726 6.526 7.226 7.586 7.716 7.566
858.395 7.106 6.366 5.816 5.436 5.156 4.966 4.596 4.196 3.796 3.456
877.685 3.166 2.876 2.706 2.676 2.636 2.506 2.426 2.326 2.226 2.306
896.975 2.556 2.606 2.456 2.456 2.466 2.426 2.446 2.586 2.746 2.766
916.265 2.846 3.016 3.086 3.356 3.736 3.906 4.226 4.716 5.256 5.816
935.555 6.586 7.666 8.896 10.456 12.156 13.606 14.626 15.076 14.876 14.066
954.844 12.626 10.746 9.016 7.606 6.236 5.086 4.426 4.036 3.566 3.196
974.134 2.956 2.746 2.726 2.566 2.556 2.626 2.356 2.416 2.626 2.766
993.424 2.916 3.066 3.386 3.736 4.106 4.196 4.086 4.216 4.566 5.226
1012.714 5.906 6.946 8.936 11.156 13.056 14.336 14.706 14.136 12.976 11.406
1032.003 10.216 9.946 10.756 12.006 13.016 13.596 13.276 12.076 10.136 8.446
1051.293 7.156 5.946 4.906 4.316 4.166 4.156 4.076 3.966 3.776 3.936
1070.583 4.236 3.956 3.826 4.116 3.936 3.456 3.156 2.886 2.866 2.626
1089.873 2.146 2.396 2.416 1.926 2.146 2.086 1.956 2.066 2.066 1.996
1109.163 1.956 2.056 1.916 1.836 1.616 1.566 1.506 1.336 1.726 1.596
1128.452 1.336 1.516 1.316 1.306 1.416 1.356 1.586 1.756 1.656 1.736
1147.742 1.746 1.906 2.486 2.776 2.916 3.056 3.156 3.456 3.856 4.306
1167.032 4.986 6.076 7.686 9.836 12.386 14.436 15.276 15.396 14.296 12.256
1186.322 10.256 8.796 8.656 9.036 10.216 12.566 15.556 19.436 24.246 29.686
1205.611 34.506 37.986 39.186 38.096 34.416 29.246 24.236 19.356 15.966 13.846
1224.901 12.476 11.616 10.736 10.276 10.006 9.586 9.536 9.586 9.206 9.046
1244.191 9.246 9.546 10.186 10.906 11.766 12.906 14.076 15.296 16.616 18.146
1263.481 19.646 21.036 22.426 23.156 23.216 22.556 21.026 18.766 16.226 13.866
1282.771 11.776 10.216 9.056 8.306 7.806 7.396 7.146 6.986 6.846 6.666
1302.060 6.496 6.326 6.246 6.296 6.286 6.176 6.026 5.916 5.786 5.626
1321.350 5.596 5.686 5.776 5.906 6.096 6.266 6.446 6.656 6.906 7.206
1340.640 7.636 8.156 8.706 9.336 9.896 10.226 10.336 10.156 9.706 9.006
1359.930 8.246 7.516 6.896 6.466 6.196 6.166 6.296 6.596 7.036 7.526
1379.219 8.016 8.426 8.566 8.466 8.216 7.696 7.006 6.346 5.736 5.176
1398.509 4.736 4.386 4.156 3.986 3.906 3.856 3.806 3.816 3.846 3.966
1417.799 4.066 4.196 4.456 4.626 4.786 5.016 5.316 5.686 6.076 6.526
1437.089 7.176 8.066 9.086 10.446 12.016 13.066 13.376 12.996 11.916 10.216
1456.378 8.256 6.796 5.946 5.336 4.846 4.486 4.326 4.176 3.946 3.936
1475.668 4.016 4.086 4.316 4.746 5.346 6.066 6.876 7.696 8.276 8.416
1494.958 8.156 7.506 6.586 5.606 4.836 4.226 3.736 3.606 3.546 3.416
1514.248 3.366 3.306 3.296 3.266 3.286 3.496 3.666 3.776 3.876 3.906
1533.538 4.026 4.226 4.306 4.376 4.586 4.806 4.976 5.196 5.446 5.736
1552.827 6.066 6.466 6.786 7.016 7.686 8.426 9.066 9.856 10.566 11.376
1572.117 12.276 13.136 13.986 14.896 15.716 16.506 17.406 18.436 19.706 21.406
1591.407 23.506 25.796 28.346 31.036 33.746 36.416 38.996 41.116 42.526 43.136
1610.697 42.516 40.466 37.176 32.876 28.546 24.616 21.006 17.996 15.466 13.276
1629.986 11.526 10.226 9.116 8.266 7.806 7.526 7.376 7.316 7.386 7.656
1649.276 8.086 8.616 9.356 10.626 12.296 14.436 17.156 20.636 24.826 29.366
1668.566 33.956 38.056 40.806 41.986 41.666 39.816 36.296 31.836 26.906 22.356
1687.856 18.616 15.376 12.826 10.816 9.266 8.126 7.176 6.426 5.936 5.386
1707.146 4.946 4.566 4.196 3.806 3.506 3.206 2.976 2.846 2.656 2.506
1726.435 2.466 2.286 1.976 1.766 1.676 1.666 1.586 1.506 1.536 1.506
1745.725 1.446 1.396 1.326 1.316 1.346 1.286 1.286 1.326 1.276 1.356
1765.015 1.406 1.336 1.316 1.296 1.306 1.376 1.416 1.366 1.376 1.436
1784.305 1.396 1.466 1.606 1.696 1.826 1.966 1.976 1.906 1.866 1.886
1803.594 1.936 1.906 1.886 1.816 1.736 1.656 1.586 1.526 1.446 1.396
1822.884 1.326 1.206 1.186 1.136 1.0562 1.0472 1.0435 1.076 1.0332 0.9701
1842.174 0.9277 0.8499 0.8299 0.8628 0.8931 0.8697 0.8689 0.9415 0.9583 1.0045
1861.464 1.086 1.086 1.0639 1.032 1.0329 1.096 1.206 1.306 1.376 1.396
1880.754 1.436 1.496 1.536 1.606 1.686 1.696 1.666 1.576 1.466 1.426
1900.043 1.376 1.266 1.236 1.236 1.166 1.136 1.116 1.086 1.106 1.066
1919.333 1.0201 0.9971 0.9928 0.9553 0.9536 1.0387 1.116 1.166 1.156 1.206
1938.623 1.276 1.316 1.386 1.496 1.596 1.656 1.726 1.816 1.876 1.886
1957.913 1.846 1.796 1.686 1.516 1.356 1.216 1.136 1.086 0.9559 0.8375
1977.202 0.7426 0.6616 0.6245 0.5817 0.5358 0.4981 0.5014 0.5233 0.4605 0.4016
1996.492 0.4186 0.4512 0.4953 0.4896 0.4402 0.398 0.4291 0.4391 0.4557 0.4574
2015.782 0.4045 0.3811 0.3984 0.4091 0.3785 0.3761 0.3824 0.3982 0.3933 0.3717
2035.072 0.3585 0.4045 0.4516 0.4269 0.4484 0.4782 0.4383 0.4272 0.4551 0.4719
2054.362 0.4746 0.5066 0.5061 0.4476 0.4586 0.5283 0.5133 0.4638 0.5131 0.5559
2073.651 0.5413 0.4916 0.4536 0.4827 0.4781 0.4693 0.4653 0.4709 0.4539 0.4173
2092.941 0.4168 0.3994 0.3855 0.4301 0.4354 0.4191 0.4357 0.4558 0.4508 0.3955
2112.231 0.405 0.3685 0.3666 0.4284 0.4125 0.4155 0.3581 0.3508 0.3717 0.351
2131.521 0.3363 0.3222 0.3489 0.3217 0.3256 0.3325 0.312 0.3176 0.345 0.3372
2150.810 0.2718 0.3202 0.379 0.3211 0.2647 0.2608 0.3136 0.2989 0.2972 0.2763
2170.100 0.2555 0.3082 0.3617 0.365 0.335 0.326 0.3089 0.3221 0.273 0.2245
2189.390 0.2667 0.2581 0.232 0.2499 0.2278 0.2351 0.2897 0.3287 0.3092 0.2737
2208.680 0.319 0.3255 0.3045 0.2998 0.3154 0.3683 0.3644 0.3817 0.3784 0.3497
2227.970 0.3572 0.3036 0.2243 0.2319 0.33 0.3415 0.2835 0.2639 0.2873 0.2951
2247.259 0.2741 0.3318 0.3653 0.3402 0.3491 0.3561 0.3199 0.3121 0.3716 0.3648
2266.549 0.3052 0.3421 0.4109 0.439 0.4413 0.4292 0.4048 0.4015 0.4101 0.3528
2285.839 0.3502 0.3936 0.3561 0.2935 0.2788 0.345 0.3305 0.34 0.3758 0.3523
2305.129 0.3868 0.4203 0.4662 0.4778 0.5221 0.5901 0.5823 0.6057 0.6064 0.5361
2324.418 0.5177 0.4771 0.3582 0.3709 0.4771 0.4941 0.462 0.4635 0.5024 0.5034
2343.708 0.48 0.4703 0.4462 0.3998 0.3805 0.3073 0.3046 0.3142 0.3077 0.3959
2362.998 0.3944 0.3159 0.3353 0.3798 0.3531 0.3751 0.4293 0.441 0.4389 0.4387
2382.288 0.3968 0.3769 0.4081 0.4322 0.4172 0.4397 0.4592 0.4421 0.4068 0.3903
2401.578 0.4453 0.4496 0.4057 0.3758 0.4351 0.5307 0.5356 0.4453 0.441 0.4849
2420.867 0.4425 0.4318 0.416 0.4389 0.4348 0.3792 0.4078 0.4138 0.3778 0.4045
2440.157 0.3976 0.4118 0.4679 0.479 0.4408 0.3905 0.4128 0.4527 0.4492 0.4698
2459.447 0.4364 0.3579 0.4262 0.4272 0.3151 0.2834 0.3074 0.3436 0.3983 0.4098
2478.737 0.4768 0.5177 0.4801 0.3954 0.3152 0.3072 0.3108 0.3457 0.2981 0.2416
2498.026 0.2804 0.3157 0.3087 0.2871 0.3043 0.3156 0.3199 0.3111 0.324 0.3845
2517.316 0.3522 0.3181 0.3102 0.3184 0.2937 0.2679 0.2845 0.3077 0.3557 0.3691
2536.606 0.3239 0.2733 0.2968 0.325 0.3724 0.3822 0.3615 0.4428 0.469 0.3902
2555.896 0.3397 0.3564 0.3604 0.329 0.3034 0.3397 0.3966 0.3669 0.3107 0.3507
2575.186 0.3641 0.3323 0.3612 0.3612 0.3735 0.4241 0.4021 0.319 0.3643 0.4078
2594.475 0.3464 0.4306 0.4712 0.3929 0.3558 0.335 0.3277 0.3969 0.4589 0.4213
2613.765 0.3969 0.4109 0.3357 0.2384 0.2805 0.3482 0.3616 0.3962 0.3623 0.3172
2633.055 0.3744 0.3895 0.355 0.3666 0.3776 0.4109 0.5072 0.5202 0.4553 0.3776
2652.345 0.3605 0.4034 0.3541 0.392 0.4633 0.4027 0.3343 0.2961 0.315 0.3695
2671.634 0.3398 0.2878 0.2675 0.2381 0.2932 0.2613 0.2494 0.2437 0.2314 0.2741
2690.924 0.3466 0.4033 0.3981 0.3977 0.3332 0.2933 0.3086 0.2944 0.2469 0.3083
2710.214 0.373 0.3628 0.4253 0.4459 0.3526 0.3184 0.3901 0.4369 0.3827 0.351
2729.504 0.4113 0.445 0.4273 0.4121 0.3962 0.3862 0.3812 0.374 0.387 0.4228
2748.794 0.5078 0.4728 0.3815 0.4449 0.4391 0.3941 0.3898 0.4166 0.4495 0.4119
2768.083 0.3107 0.3023 0.4115 0.4903 0.4581 0.4138 0.3999 0.4483 0.5264 0.453
2787.373 0.5068 0.585 0.5435 0.5086 0.5297 0.5487 0.4329 0.4497 0.5136 0.5863
2806.663 0.5783 0.5657 0.6417 0.6027 0.5565 0.5714 0.5757 0.5799 0.6244 0.6214
2825.953 0.6192 0.7206 0.8022 0.7245 0.7184 0.7598 0.7131 0.7038 0.8243 0.9491
2845.242 1.0015 0.9447 0.9456 1.066 1.146 1.186 1.236 1.296 1.256 1.306
2864.532 1.386 1.336 1.266 1.256 1.286 1.336 1.366 1.386 1.366 1.246
2883.822 1.276 1.366 1.366 1.366 1.346 1.336 1.396 1.366 1.356 1.456
2903.112 1.486 1.536 1.606 1.656 1.776 1.966 2.156 2.336 2.606 2.916
2922.401 3.216 3.536 3.756 3.906 3.996 3.866 3.796 3.786 3.606 3.406
2941.691 3.276 3.176 3.026 2.886 2.776 2.616 2.566 2.636 2.606 2.506
2960.981 2.386 2.296 2.306 2.236 2.156 2.026 1.926 1.946 2.006 1.976
2980.271 1.926 1.956 1.956 2.016 2.086 2.166 2.196 2.186 2.226 2.346
2999.561 2.446 2.506 2.656 2.766 2.956 3.216 3.366 3.586 4.026 4.436
3018.850 4.846 5.366 5.936 6.676 7.436 8.136 8.886 9.516 9.916 10.236
3038.140 10.286 9.916 9.296 8.646 8.086 7.796 7.876 8.166 8.636 9.476
3057.430 10.456 11.716 13.336 15.246 17.426 19.206 20.116 20.136 19.296 17.796
3076.720 15.966 14.276 13.196 12.756 12.626 12.306 11.796 11.176 10.376 9.486
3096.009 8.536 7.636 6.936 6.386 5.796 5.326 4.856 4.156 3.626 3.166
3115.299 2.616 2.256 1.966 1.696 1.586 1.566 1.396 1.146 1.116 1.126
3134.589 1.0517 1.0157 1.0025 0.9913 0.9896 0.9545 0.9444 0.9759 0.9603 0.9375
3153.879 0.9779 0.9283 0.8555 0.8437 0.7266 0.7095 0.7481 0.6745 0.7097 0.6906
3173.169 0.6133 0.6707 0.6267 0.5087 0.5593 0.5562 0.4304 0.293 0.2494 0.3437
3192.458 0.3233 0.2962 0.35 0.3856 0.4549 0.4536 0.4267 0.4133 0.4056 0.4141
3211.748 0.428 0.366 0.4251 0.4616 0.4023 0.4593 0.4097 0.3374 0.3337 0.3562
3231.038 0.4044 0.4906 0.4514 0.3689 0.3914 0.4195 0.4413 0.3076 0.3179 0.4061
3250.328 0.318 0.3131 0.3324 0.3882 0.4263 0.3648 0.3843 0.3734 0.3798 0.3628
3269.617 0.4095 0.4426 0.3918 0.4383 0.3574 0.2948 0.3442 0.4019 0.4323 0.442
3288.907 0.3945 0.3737 0.4762 0.4687 0.4545 0.5104 0.4828 0.4675 0.4322 0.3406
3308.197 0.3878 0.3975 0.4809 0.6894 0.6903 0.6025 0.614 0.6389 0.6148 0.6932
3327.487 0.8185 0.8494 0.9031 0.9008 0.7726 0.7979 0.8985 0.9553 0.9321 0.9034
3346.777 0.7546 0.5968 0.5501 0.3863 0.3355 0.4342 0.5613 0.5388 0.4643 0.4339
3366.066 0.488 0.5136 0.4033 0.3492 0.3732 0.3696 0.4593 0.5766 0.4702 0.3668
3385.356 0.2751 0.3302 0.3625 0.263 0.2492 0.3397 0.3839 0.3177 0.2902 0.3494
3404.646 0.3721 0.2947 0.2524 0.2955 0.3713 0.2794 0.2405 0.2533 0.1762 0.2549
3423.936 0.3493 0.2473 0.08444 0.13484 0.3125 0.2792 0.2052 0.457 0.4285 0.2117
3443.225 0.2118 0.16085 0.13202 0.1897 0.2332 0.2096 0.2499 0.2998 0.3852 0.3962
3462.515 0.2267 0.2699 0.3118 0.1852 0.2733 0.2679 0.2115 0.3808 0.382 0.1879
3481.805 0.2374 0.3126 0.2481 0.2027 0.2101 0.2161 0.2531 0.302 0.3 0.3385
3501.095 0.408 0.2799 0.061 0.039 0.15095 0.15179 0.10338 0.2329 0.425 0.364
3520.385 0.1961 0.2173 0.2852 0.2208 0.2742 0.4244 0.4381 0.3741 0.2279 0.16499
3539.674 0.2122 0.2495 0.14522 0.14061 0.2703 0.342 0.2872 0.2403 0.3425 0.2813
3558.964 0.1695 0.2556 0.3263 0.2836 0.2223 0.15221 0.1696 0.3007 0.3639 0.309
3578.254 0.212 0.11543 0.0478 0.1338 0.272 0.3887 0.2379 0.16203 0.3985 0.4585
3597.544 0.4386 0.2619 0.0416 0.15636 0.2344 0.1871 0.2374 0.2406 0.3492 0.4885
3616.833 0.3746 0.1722 0.1965 0.2597 0.3042 0.3173 0.2473 0.308 0.3334 0.3117
3636.123 0.2793 0.3079 0.3857 0.4069 0.385 0.353 0.3008 0.2369 0.3165 0.3997
3655.413 0.3551 0.3524 0.3154 0.3607 0.3442 0.2491 0.3796 0.3391 0.12822 0.1999
3674.703 0.2618 0.2186 0.3369 0.3009 0.216 0.2114 0.246 0.1874 0.15108 0.3958
3693.993 0.4693 0.4587 0.5937 0.5381 0.47 0.4823 0.4252 0.3817 0.2399 0.15948
3713.282 0.2763 0.4466 0.4596 0.4732 0.4288 0.3849 0.4914 0.5366 0.596 0.5848
3732.572 0.491 0.3071 0.3428 0.4863 0.3636 0.2734 0.2333 0.2848 0.3223 0.1938
3751.862 0.231 0.417 0.44 0.4854 0.5519 0.4891 0.4384 0.454 0.5963 0.4822
3771.152 0.311 0.2939 0.1775 0.1732 0.2474 0.242 0.1747 0.2179 0.3607 0.339
3790.441 0.2386 0.2668 0.4247 0.4036 0.2535 0.1754 0.13207 0.2015 0.15153 0.1823
3809.731 0.2679 0.2921 0.2616 0.2518 0.2672 0.13229 0.16178 0.334 0.4088 0.433
3829.021 0.48 0.349 0.2656 0.3792 0.368 0.2962 0.243 0.2729 0.3652 0.4366
3848.311 0.4105 0.2755 0.12983 0 0.0393 0.2452 0.3712 0.3459 0.3151 0.2926
3867.601 0.3104 0.3866 0.3988 0.3475 0.3436 0.354 0.3878 0.3106 0.2319 0.2796
3886.890 0.3026 0.3948 0.4177 0.2859 0.3112 0.4035 0.3053 0.4237 0.5228 0.2727
3906.180 0.2692 0.3489 0.3019 0.3783 0.495 0.4489 0.4534 0.4447 0.39 0.4303
3925.470 0.3604 0.2793 0.2291 0.2645 0.3618 0.3329 0.333 0.4314 0.3683 0.3241
3944.760 0.2865 0.2439 0.3656 0.4026 0.3397 0.342 0.3319 0.2883 0.3361 0.3664
3964.049 0.388 0.4944 0.582 0.4865 0.3607 0.3576 0.3886 0.392 0.4059 0.3667
3983.339 0.3084 0.3769 0.3492 0.2891 0.4021 0.4979 0.4798 0.4792 0.5158 0.5967
##END=
