##TITLE=4-(Trifluoromethoxy)phenylacetonitrile
##JCAMP-DX=4.24
##DATA TYPE=INFRARED SPECTRUM
##ORIGIN=EPA-IR VAPOR PHASE LIBRARY
##OWNER=SRD/NIST
Collection (C) 2018 copyright by the U.S. Secretary of Commerce
on behalf of the United States of America. All rights reserved.
##CAS REGISTRY NO=49561-96-8
##MOLFORM=C 9 H 6 F 3 N O
##$NIST SOURCE=MSDC-IR
##STATE=gas
##XUNITS=1/CM
##YUNITS=ABSORBANCE
##XFACTOR=1.
##YFACTOR=0.001
##DELTAX=1.92898
##FIRSTX=549.8
##LASTX=4000.7
##FIRSTY=2.466
##MAXX=4000.7
##MINX=549.759
##MAXY=0.53949
##MINY=0
##NPOINTS=1790
##XYDATA=(X++(Y..Y))
549.759 2.466 3.2588 3.84 2.329 2.094 2.309 1.25 1.31 1.55 1.986
569.049 1.711 0.99 0.79 1.52 1.676 1.21 1.18 1.584 2.108 2.023
588.339 2.039 2.115 1.829 1.5 1.06 1.882 3.3924 3.2998 3.154 3.4568
607.628 4.03 4.52 4.3 4.33 4.84 5.27 5.54 5.76 5.67 5.35
626.918 5.8 5.63 4.9 4.62 4.15 4.11 3.9 3.65 2.941 2.195
646.208 2.8545 3.5289 3.62 3.4769 3.3565 3.2879 3.78 4.25 4.35 4.86
665.498 5.15 5.41 5.82 5.97 6.03 6.25 6.38 6.41 6.45 5.86
684.787 5.5 5.49 5.77 6.21 6.01 5.69 5.58 5.6 5.65 5.53
704.077 4.86 4.83 5.41 5.75 5.83 5.37 5.11 4.54 4.25 4.55
723.367 4 3.65 3.97 3.86 3.3536 3.1373 3.4361 3.3181 3.0278 3.2871
742.657 3.57 3.3534 2.7166 3.0172 3.61 3.2934 3.0001 2.58023 2.60793 2.8382
761.947 2.8352 3.73 4.3 4.01 4.27 4.56 4.46 4.56 4.8 4.82
781.236 4.76 4.97 5.29 5.87 6.17 6.68 7.45 8.28 9.34 9.73
800.526 10.67 11.72 12.82 13.77 14.59 15.22 15.9 16.15 14.72 15.19
819.816 16.25 16.4 16.38 17.01 17.73 17.22 16.4 15.9 15.72 15.16
839.106 14.57 13.65 13.04 12.54 11.37 10.5 9.53 8.57 8 7.23
858.395 6.31 5.92 5.86 5.34 4.79 4.8 4.52 4.31 4.44 4.12
877.685 3.1622 2.7868 3.1356 2.8514 3.1559 3.63 3.69 3.89 3.61 3.5271
896.975 4.01 4.11 4.27 4.4 4.56 5.02 5.21 5.18 5.41 6.01
916.265 6.65 7.58 8.6 9.4 10.1 10.13 9.75 9.37 8.54 7.76
935.555 7.67 7.17 6.39 6.25 6.08 5.65 5.3 5.37 5.2 5.1
954.844 4.9 4.41 4.37 4.01 3.324 3.4453 3.87 3.59 3.0656 3.0967
974.134 3.1933 3.1419 3.3218 2.9479 2.7252 2.7302 2.5268 2.178 2.302 2.376
993.424 2.59197 3.3686 3.4568 3.1131 2.66283 2.285 3.0507 3.89 4.24 5.51
1012.714 7.16 10.67 14.36 15.01 14.72 14.17 12.29 9.67 6.5 4.28
1032.003 2.7887 2.5445 2.859 2.266 2.702 3.4602 3.2497 2.6982 2.61153 2.289
1051.293 2.466 2.63696 2.8265 3.2148 3.59 4.58 5.14 4.31 2.8357 3.5569
1070.583 4.81 4.19 3.4288 3.4184 3.3828 3.4883 4.14 5.76 6.21 5.39
1089.873 6.02 7.48 8.6 8.42 8.37 8.61 9.62 10.24 10.25 10.61
1109.163 10.72 10.91 10.14 8.94 9.09 11.07 11.59 11.84 12.29 12.5
1128.452 12.98 13.37 13.71 15.13 16.3 15.56 16.38 17.53 18.93 22.07
1147.742 25.19 27.97 30.4 33.87 38.1 42.5 48.62 56.04 63.78 72.54
1167.032 84.26 97.58 112.58 127.08 140.97 157.41 175.18 193.59 209.86 225.46
1186.322 239.23 246.61 247.59 242.45 229.36 213.27 200.95 191.29 186.53 187.99
1205.611 196.5 212.95 231.46 250.29 270.34 289.6 303.56 308.93 308.29 301.23
1224.901 288.8 272.74 252.46 232.46 216.55 202.71 192.68 187.5 183.82 182.85
1244.191 185.54 191.99 204.87 222.86 244.92 272.59 305.85 343.24 385.01 430.8
1263.481 472.7 506.71 531.2 539.49 529.85 501.14 455.07 397.75 334.8 273.17
1282.771 218.63 175.12 142.55 117.95 99.74 85.75 74.82 66.22 58.33 52
1302.060 47 42.11 38.08 35.08 32.23 29.6 27.49 25.44 23.31 21.86
1321.350 20.67 19.18 17.89 16.77 15.74 14.94 13.97 13.05 12.35 11.68
1340.640 11.19 10.59 9.94 9.48 9.02 8.55 8.09 7.65 7.28 7.02
1359.930 6.68 6.43 6.29 6.05 5.85 5.53 5.29 5.16 4.86 4.84
1379.219 4.85 4.78 4.89 4.8 4.73 4.75 4.7 4.73 4.78 4.91
1398.509 5.08 5.23 5.42 5.65 5.97 6.25 6.47 6.83 7.17 7.63
1417.799 8.4 9.55 10.67 11.92 13.12 13.58 13.84 13.57 12.43 10.65
1437.089 8.84 7.6 6.92 6.5 6.02 5.84 5.81 5.68 5.45 5.25
1456.378 5.21 5.32 5.07 4.73 4.85 5.01 5.12 5.23 5.36 5.54
1475.668 5.63 6.01 6.5 6.78 7.22 7.83 8.66 9.79 11.21 12.94
1494.958 15.63 19.5 24.83 32.18 41.52 52.62 64.99 75.22 80.47 80.49
1514.248 76.11 67.63 55.56 43.1 32.4 25.53 21.54 19.34 17.76 16.58
1533.538 14.9 13.33 12.46 11.43 10.03 8.94 8.35 7.81 7.31 7.02
1552.827 6.58 6.22 6.19 5.85 5.37 5.13 5.07 5.2 5.51 5.67
1572.117 5.72 5.91 5.79 5.72 5.94 5.87 5.95 6.24 6.63 6.91
1591.407 6.81 7.04 7.14 7.19 7.24 7.33 7.76 7.87 7.95 8.12
1610.697 8.22 8.04 7.61 6.74 6.02 5.55 5.08 4.85 4.38 4.12
1629.986 4 3.82 3.69 3.58 3.72 3.69 3.5334 3.3221 3.1265 3.1654
1649.276 2.9589 3.0633 2.987 2.7115 3.0832 3.0081 2.62783 2.5573 2.382 2.404
1668.566 2.62648 2.5375 2.218 2.175 2.202 2.203 2.349 2.318 2.159 2.167
1687.856 2.159 1.786 1.689 1.837 1.939 2.203 2.248 2.059 1.836 1.857
1707.146 1.861 1.933 2.043 2.023 2.07 2.186 2.386 2.34 2.37 2.285
1726.435 1.976 1.948 2.029 2.101 2.426 2.303 2.079 2.112 2.141 2.355
1745.725 2.459 2.57698 2.7385 2.9256 2.797 2.7081 2.9846 3.0551 3.0329 3.1222
1765.015 3.2435 3.4238 3.65 3.67 3.65 3.61 3.2407 2.9398 2.8424 2.6824
1784.305 2.347 2.197 2.21 2.161 2.261 2.207 2.229 2.339 2.104 2.074
1803.594 2.162 2.115 2.095 1.961 2.02 2.097 1.892 1.825 1.985 2.131
1822.884 2.08 1.97 1.896 1.835 1.992 2.133 2.033 2.046 2.081 2.128
1842.174 2.147 1.862 1.755 2.009 2.039 2.018 2.277 2.304 2.348 2.463
1861.464 2.56168 2.6927 2.56418 2.4873 2.6547 2.66531 2.61745 2.7495 2.9983 3.1251
1880.754 3.1319 3.0922 3.0993 3.191 3.3569 3.4938 3.64 3.67 3.5286 3.5008
1900.043 3.4367 3.2567 3.2218 3.3039 3.2652 3.1825 3.1511 3.0188 2.8236 2.62269
1919.333 2.424 2.338 2.232 2.147 2.149 2.032 1.823 1.779 1.706 1.682
1938.623 1.675 1.718 1.863 1.865 1.744 1.601 1.744 1.768 1.704 1.894
1957.913 1.837 1.779 1.879 1.836 1.79 1.777 1.888 1.993 1.997 1.918
1977.202 1.9 1.992 2.079 2.146 2.161 2.153 2.257 2.413 2.4767 2.419
1996.492 2.363 2.396 2.45 2.433 2.349 2.5278 2.4768 2.271 2.246 2.434
2015.782 2.5508 2.384 2.412 2.5007 2.5376 2.462 2.443 2.376 2.188 2.139
2035.072 2.227 2.445 2.5587 2.64913 2.6316 2.6156 2.6149 2.5323 2.7811 2.9694
2054.362 2.7638 2.56553 2.382 2.347 2.59906 2.419 2.233 2.384 2.345 2.27
2073.651 2.295 2.367 2.182 2.186 2.286 2.171 2.232 2.448 2.4998 2.315
2092.941 2.375 2.393 2.257 2.144 2.204 2.392 2.327 2.301 2.344 2.391
2112.231 2.416 2.407 2.5197 2.5394 2.457 2.58385 2.59098 2.399 2.219 2.001
2131.521 2.211 2.457 2.282 2.052 1.958 2.113 2.181 2.162 2.236 2.279
2150.810 2.315 2.294 2.185 1.965 1.656 1.597 1.762 1.88 1.845 1.909
2170.100 1.943 1.862 1.92 1.809 1.793 2.008 1.995 1.99 2.071 1.943
2189.390 1.946 2.11 2.153 2.024 1.824 1.762 1.643 1.54 1.51 1.39
2208.680 1.3 1.38 1.27 1.32 1.37 1.14 1.16 1.11 1.11 1.14
2227.970 1.07 1.08 1.13 1.31 1.44 1.26 1.3 1.5 1.55 1.56
2247.259 1.669 1.841 1.972 2.185 2.066 2.083 2.138 1.99 1.979 2.023
2266.549 2.129 2.007 1.833 1.781 1.605 1.676 1.581 1.4 1.49 1.42
2285.839 1.36 1.42 1.43 1.21 1.21 1.2 1.22 1.33 1.15 1.22
2305.129 1.4 1.41 1.584 1.751 1.712 1.44 1.39 1.805 2.11 1.821
2324.418 1.55 1.575 1.767 1.855 1.849 1.915 1.878 1.779 1.642 1.697
2343.708 1.865 2.05 2.004 1.853 1.849 1.78 1.608 1.793 1.883 1.788
2362.998 2.008 1.852 1.685 1.735 1.733 1.874 1.793 1.737 1.912 2.139
2382.288 2.381 2.231 2.174 2.26 2.272 2.425 2.467 2.45 2.285 2.365
2401.578 2.57267 2.7569 2.9609 2.9394 2.8362 2.8371 2.5379 2.64519 2.9781 2.9117
2420.867 3.0113 2.993 2.9951 3.2666 3.4781 3.5312 3.3357 3.4222 3.71 3.78
2440.157 3.86 3.93 4.03 4.05 3.98 3.71 3.63 3.68 3.4227 3.2857
2459.447 3.5263 3.59 3.3685 3.1417 3.0625 3.0198 2.8695 2.7341 2.7743 2.9509
2478.737 2.9661 3.1461 3.4592 3.2017 3.2902 3.4904 3.3682 3.2136 3.0916 3.1001
2498.026 3.1932 3.1294 2.9791 2.9931 2.8176 2.60903 2.62069 2.6966 2.383 2.324
2517.316 2.5216 2.5306 2.334 2.321 2.243 2.074 2.196 2.239 2.078 2.04
2536.606 2.163 1.969 2.03 2.029 1.972 1.914 1.722 1.881 2.125 2.066
2555.896 1.626 1.41 1.622 1.626 1.751 1.718 1.34 1.25 1.15 1.45
2575.186 1.668 1.41 1.4 1.43 1.45 1.4 1.28 1.27 1.32 1.612
2594.475 1.777 1.577 1.38 1.13 1.11 1.23 1.49 1.621 1.61 1.54
2613.765 1.24 1.22 1.17 1.13 1.29 1.48 1.41 1.07 1.16 1.29
2633.055 1.1 1.22 1.27 1.03 0.95 1.01 1.31 1.26 1.01 1.08
2652.345 1.26 1.53 1.43 1.31 1.12 1.01 1.2 1.17 1.02 1.01
2671.634 1.06 1.19 1.22 1.1 0.98 0.85 0.88 1.06 1.38 1.52
2690.924 1.26 1.24 1.38 1.1 0.95 1.01 0.96 0.92 1.13 1.26
2710.214 1.28 1.47 1.33 1.05 0.8 0.48 0.79 1.34 1.627 1.55
2729.504 1.21 0.94 1.19 1.44 1.38 1.34 1.28 1.46 1.4 1.51
2748.794 1.43 1.11 1.43 1.61 1.12 0.95 1.11 1.13 1.15 0.99
2768.083 1 1.02 1.01 0.9 0.76 0.98 1.13 1.12 1.07 1.37
2787.373 1.679 1.643 1.37 0.87 1.08 1.48 1.5 1.47 1.46 1.36
2806.663 1.47 1.702 1.594 1.52 1.46 1.13 1.21 1.42 1.43 1.48
2825.953 1.39 1.593 1.605 1.47 1.53 1.616 1.623 1.611 1.56 1.36
2845.242 1.3 1.4 1.5 1.47 1.49 1.52 1.53 1.41 1.37 1.2
2864.532 1.14 1.28 1.3 1.49 1.38 0.89 0.61 1.1 1.45 1.28
2883.822 1.55 1.35 0.9 0.95 0.97 0.78 0.87 1.19 1.4 1.42
2903.112 1.48 1.796 1.662 1.56 1.694 1.644 1.591 2.094 2.5059 2.419
2922.401 2.33 2.4761 3.0296 3.0456 2.991 3.4801 3.76 3.7 3.3233 2.9508
2941.691 2.9158 2.9229 2.9919 2.7023 2.246 2.008 2.105 2.178 1.957 1.831
2960.981 1.45 1.47 1.598 1.581 1.766 1.813 1.701 1.832 1.72 1.15
2980.271 0.79 1.25 1.701 1.54 1.44 1.5 1.648 1.49 1.55 1.86
2999.561 1.599 1.46 1.735 1.68 1.835 1.836 1.671 2.069 2.356 2.332
3018.850 2.314 2.7668 2.9231 2.6759 2.9592 3.3789 3.3167 3.3971 3.73 3.93
3038.140 4.5 4.97 5.38 5.83 5.96 5.89 5.89 5.89 5.88 5.4
3057.430 4.88 4.3 3.71 3.7 3.3231 2.9483 2.9839 3.0733 2.7971 2.317
3076.720 2.394 2.443 2.5115 2.394 1.761 2.044 2.56607 2.259 1.601 1.52
3096.009 1.983 2.267 2.088 1.971 2.026 2.107 1.898 1.885 1.889 1.52
3115.299 1.49 1.657 1.638 1.49 1.29 1.24 1.34 1.21 1.42 1.764
3134.589 1.845 1.54 1.24 1.33 1 0.96 0.96 0.83 1.27 1.4
3153.879 1.15 1.47 1.908 1.42 0.9 0.77 0.9 0.84 0.64 1.09
3173.169 1.23 0.92 1.03 1.35 1.26 1.16 1.44 1.39 1.31 1.38
3192.458 1.19 0.93 0.95 1.07 1.25 1.597 1.856 1.655 1.19 1.48
3211.748 1.826 1.41 1.04 0.98 0.77 0.59 0.33 0.24 0.53 0.74
3231.038 1.1 1.4 1.26 0.79 1.02 1.2 1 1.42 1.585 1.29
3250.328 1.2 1.46 1.27 0.89 1.34 1.27 0.54 0.54 0.7 0.84
3269.617 1.04 0.99 1.11 1.21 0.72 1.15 1.821 1.4 1.17 0.97
3288.907 0.85 0.73 0.42 0.91 1.43 1.28 1.02 0.79 1.03 1.11
3308.197 0.83 0.85 0.88 0.73 0.89 1.15 0.89 0.67 0.97 1.13
3327.487 0.84 0.7 0.78 0.92 1.15 1.52 1.52 1.3 0.97 0.66
3346.777 0.88 1.08 0.93 0.94 1.03 0.72 0.47 0.44 0.69 0.67
3366.066 0.08 0.53 1.4 1.11 0.79 0.98 0.89 0.65 0.92 1.01
3385.356 0.58 0.63 1.07 1.2 0.91 0.75 0.69 0.55 0.77 0.87
3404.646 0.84 0.62 0.47 0.91 1.35 1.33 0.94 0.86 0.87 0.93
3423.936 0.63 0.18 0.52 1.25 1.05 0.4 0.6 0.7 0.89 0.98
3443.225 1 0.88 0.85 1.3 1.14 0.75 0.49 0.76 0.61 0.68
3462.515 0.8 0.49 0.75 1.01 1.25 0.98 1.01 1.13 0.95 0.7
3481.805 0.68 1.03 0.7 0.55 0.52 0.5 0.63 0.59 0.6 0.88
3501.095 0.82 0.62 1.29 1.55 1.36 0.82 0.46 0.59 0.82 1.12
3520.385 1.11 1.05 0.48 0 0.26 0.72 0.68 0.33 0.83 1.52
3539.674 1.612 1.38 1.57 1.612 0.91 0.96 1.15 0.89 0.99 0.93
3558.964 0.82 0.76 0.83 1.13 0.97 1.07 1.17 0.75 0.83 0.83
3578.254 0.51 0.61 0.69 0.7 0.72 1.16 1.37 1.2 0.99 0.63
3597.544 0.31 0.42 0.47 0.04 0.42 1.01 1.19 0.89 1.04 1.09
3616.833 0.92 1.23 1.28 1.3 0.96 0.62 0.97 0.98 0.84 0.92
3636.123 0.38 0.63 1.17 1.38 1.24 0.56 0.95 1.585 1.1 0.84
3655.413 1.33 1.724 1.654 1.08 1.03 0.88 0.68 1.04 1.1 1.01
3674.703 0.81 1.01 1.24 1.41 1.672 1.15 1.11 1.53 1.603 1.39
3693.993 0.98 0.71 0.81 1.24 0.96 0.96 1 0.88 0.96 0.82
3713.282 1.21 1.37 0.99 1.29 1.615 1.02 0.74 1.1 1.689 1.29
3732.572 0.48 0.65 1.25 1.16 1.1 1.575 1.47 1.1 0.72 0.63
3751.862 0.93 0.91 0.86 1.07 0.94 0.84 0.73 0.87 1.583 1.4
3771.152 0.68 0.51 0.84 1.638 1.4 0.78 0.98 0.86 0.62 0.58
3790.441 0.8 1.23 1.34 0.92 1.34 2.028 1.607 1.03 0.5 0.89
3809.731 1.26 0.95 0.93 1.11 1.31 1.34 1.14 1.22 1.25 0.93
3829.021 0.86 0.73 0.91 1.36 1.46 1.41 1.27 1.21 1.12 0.9
3848.311 1.06 1.03 0.86 0.88 1.03 0.83 0.43 0.93 1.04 0.61
3867.601 0.58 0.77 1.39 1.24 0.66 0.81 0.83 0.76 1.02 1.27
3886.890 1.5 1.19 0.7 0.95 1.05 0.89 1.09 1.15 0.79 0.64
3906.180 0.69 0.68 0.53 0.2 0.55 0.88 0.77 0.89 0.82 0.94
3925.470 1.05 0.79 0.7 0.7 0.8 1.04 1.54 1.701 1.09 0.85
3944.760 1.07 1.27 1.36 1.01 0.84 1.34 1.33 1.2 0.89 0.81
3964.049 1.32 1.2 0.76 0.84 0.91 0.63 0.7 0.71 0.89 1.16
3983.339 0.99 0.77 1.22 1.54 1.48 1.19 1.14 1.3 0.81 0.94
##END=
