##TITLE=(.alpha.-Bromoisovaleryl)urea
##JCAMP-DX=4.24
##DATA TYPE=INFRARED SPECTRUM
##ORIGIN=NIST Mass Spectrometry Data Center
##OWNER=NIST Standard Reference Data Program
Collection (C) 2018 copyright by the U.S. Secretary of Commerce
on behalf of the United States of America. All rights reserved.
##CAS REGISTRY NO=496-67-3
##MOLFORM=C 6 H 11 Br N 2 O 2
##$NIST SOURCE=MSDC-IR
##SPECTROMETER/DATA SYSTEM=HP-GC/MS/IRD
##STATE=gas
##XUNITS=1/CM
##YUNITS=ABSORBANCE
##XFACTOR=1.0
##YFACTOR=0.000003200
##DELTAX=4.0
##FIRSTX=550.0
##LASTX=3846.0
##FIRSTY=0.000682
##MAXX=3846
##MINX=550
##MAXY=0.032
##MINY=0
##NPOINTS=825
##XYDATA=(X++(Y..Y))
550.0 213 140 0 52 92 154 233 332 424 468
590.0 434 410 374 343 355 373 385 422 460 427
630.0 366 303 264 260 268 301 347 364 375 402
670.0 430 442 442 424 397 369 334 313 326 348
710.0 368 408 472 560 672 827 1001 1134 1180 1159
750.0 1093 986 851 713 620 561 501 469 446 406
790.0 379 387 404 423 460 504 565 640 689 737
830.0 743 725 685 630 591 566 561 553 540 513
870.0 489 478 454 441 436 436 428 411 402 397
910.0 401 424 449 485 510 520 541 552 534 512
950.0 501 485 470 455 428 396 347 292 247 207
990.0 187 167 143 137 135 125 110 106 96 86
1030.0 92 89 82 86 90 96 103 117 132 155
1070.0 176 184 188 186 163 145 147 163 180 191
1110.0 216 232 203 183 183 162 139 132 157 180
1150.0 193 222 269 350 462 602 759 920 1055 1130
1190.0 1124 1033 872 687 512 388 316 290 300 311
1230.0 316 323 327 330 337 343 341 341 336 330
1270.0 337 356 388 433 486 544 611 690 794 913
1310.0 1055 1221 1418 1637 1862 2092 2337 2578 2791 2957
1350.0 3046 2999 2848 2627 2359 2092 1903 1673 1436 1265
1390.0 1086 917 747 574 417 287 204 162 143 133
1430.0 139 156 190 234 296 388 497 599 676 717
1470.0 715 663 562 443 332 242 178 143 129 124
1510.0 132 140 150 167 187 213 244 286 352 443
1550.0 579 812 1194 1773 2482 3243 3882 4261 4297 3968
1590.0 3386 2724 2097 1582 1195 921 724 593 503 436
1630.0 393 360 341 346 365 402 456 541 647 772
1670.0 915 1073 1243 1421 1641 1933 2395 3168 4366 5918
1710.0 7588 9051 9908 10000 9441 8225 6790 5627 4673 3837
1750.0 3171 2602 2057 1594 1237 953 743 598 493 406
1790.0 330 264 204 163 138 121 108 102 93 88
1830.0 78 68 60 54 54 48 43 42 41 40
1870.0 35 33 39 40 38 36 32 31 36 40
1910.0 41 45 44 46 51 51 51 53 51 49
1950.0 47 47 43 40 38 35 36 30 26 28
1990.0 27 26 21 21 26 25 24 28 29 29
2030.0 27 22 23 25 27 26 28 34 29 31
2070.0 36 29 26 34 39 36 31 27 29 32
2110.0 32 31 33 31 28 28 36 37 33 40
2150.0 47 44 41 40 36 38 45 43 36 39
2190.0 44 45 49 55 60 62 55 57 54 49
2230.0 54 52 55 51 49 48 43 43 43 45
2270.0 48 46 43 44 42 38 39 41 36 36
2310.0 33 28 26 22 21 21 21 22 27 27
2350.0 22 21 21 21 21 21 21 21 30 49
2390.0 58 63 64 62 63 64 66 71 72 77
2430.0 80 77 74 76 82 84 81 79 71 69
2470.0 67 57 58 60 58 59 66 65 61 59
2510.0 58 59 59 54 48 55 61 57 55 57
2550.0 61 61 58 61 61 61 58 57 62 65
2590.0 59 55 59 55 59 67 66 61 63 59
2630.0 55 61 64 69 74 73 72 70 67 69
2670.0 68 65 66 68 62 56 61 67 63 64
2710.0 58 55 61 64 70 78 86 95 103 109
2750.0 108 104 105 105 106 114 112 115 120 115
2790.0 122 131 137 140 150 152 152 162 166 173
2830.0 181 187 199 206 212 222 240 264 308 391
2870.0 505 658 812 941 1018 1037 1010 964 927 928
2910.0 949 988 1037 1086 1149 1254 1377 1487 1578 1614
2950.0 1611 1644 1808 2142 2649 3259 3545 3434 3149 2634
2990.0 1997 1444 1039 748 521 375 301 243 198 178
3030.0 173 165 158 157 158 161 161 159 158 145
3070.0 138 142 131 132 132 121 129 131 118 115
3110.0 112 109 103 99 115 123 109 100 112 116
3150.0 118 126 119 109 106 107 111 112 109 100
3190.0 102 109 110 110 102 84 64 65 68 63
3230.0 58 54 56 59 64 64 56 47 48 48
3270.0 54 64 62 61 74 74 65 64 66 72
3310.0 74 69 72 65 57 61 55 66 75 64
3350.0 54 58 73 95 111 109 128 172 194 228
3390.0 282 345 433 533 681 854 1041 1225 1356 1375
3430.0 1277 1076 831 602 422 311 249 227 223 205
3470.0 200 210 229 249 262 293 344 409 472 554
3510.0 677 816 978 1167 1375 1610 1873 2089 2145 2034
3550.0 1746 1329 899 540 318 205 144 109 95 100
3590.0 84 69 83 77 62 60 65 57 50 62
3630.0 65 60 51 54 54 40 29 36 46 50
3670.0 54 46 33 29 36 38 48 49 39 45
3710.0 40 32 42 56 57 53 59 49 45 51
3750.0 50 53 55 52 61 57 31 31 45 52
3790.0 54 60 60 44 47 49 40 39 41 48
3830.0 44 41 42 31 41
##END=
