##TITLE=Phthalan
##JCAMP-DX=4.24
##DATA TYPE=INFRARED SPECTRUM
##ORIGIN=NIST Mass Spectrometry Data Center
##OWNER=NIST Standard Reference Data Program
Collection (C) 2018 copyright by the U.S. Secretary of Commerce
on behalf of the United States of America. All rights reserved.
##CAS REGISTRY NO=496-14-0
##MOLFORM=C 8 H 8 O
##$NIST SOURCE=MSDC-IR
##SPECTROMETER/DATA SYSTEM=HP-GC/MS/IRD
##STATE=gas
##XUNITS=1/CM
##YUNITS=ABSORBANCE
##XFACTOR=1.0
##YFACTOR=0.000002900
##DELTAX=4.0
##FIRSTX=550.0
##LASTX=3846.0
##FIRSTY=0.000307
##MAXX=3846
##MINX=550
##MAXY=0.029
##MINY=0
##NPOINTS=825
##XYDATA=(X++(Y..Y))
550.0 106 68 84 131 140 152 180 182 148 167
590.0 191 154 86 71 69 42 20 6 2 31
630.0 39 24 85 148 108 83 117 139 159 169
670.0 194 248 315 432 607 784 869 959 1137 1330
710.0 1654 2275 3216 4348 5519 6794 8856 10000 8165 6205
750.0 5198 4069 2845 1784 1087 695 480 382 355 377
790.0 458 546 660 795 887 980 1061 1102 1107 1151
830.0 1162 1108 1019 871 711 558 464 405 344 304
870.0 279 281 325 403 546 789 1169 1782 2657 3401
910.0 3733 3688 3392 2948 2061 1141 637 446 378 339
950.0 300 261 239 240 239 237 251 263 281 314
990.0 336 355 406 517 673 861 1067 1278 1590 2081
1030.0 2812 3824 5089 6510 7737 8476 8501 8134 7695 6511
1070.0 4909 3613 2619 1938 1528 1273 1113 993 873 752
1110.0 628 525 460 401 337 292 250 218 204 209
1150.0 224 243 274 296 310 294 262 257 258 242
1190.0 227 221 217 225 244 255 260 261 263 258
1230.0 259 278 299 354 440 556 711 791 743 732
1270.0 753 634 460 335 255 199 163 148 148 168
1310.0 202 251 295 303 315 357 407 469 549 692
1350.0 978 1443 1980 2316 2401 2350 2136 1695 1038 537
1390.0 320 247 211 172 169 168 176 202 199 186
1430.0 195 250 321 417 612 847 1117 1298 1310 1493
1470.0 1733 1720 1545 1357 1198 974 665 402 245 226
1510.0 189 134 154 174 138 100 106 140 153 113
1550.0 101 141 196 169 144 188 269 337 375 421
1590.0 445 461 463 441 382 307 264 237 187 138
1630.0 107 117 103 94 134 199 227 177 166 174
1670.0 166 145 115 139 140 100 128 172 160 123
1710.0 121 167 189 144 126 165 189 161 142 145
1750.0 164 156 139 155 185 226 249 241 233 236
1790.0 246 212 167 155 135 140 164 191 215 230
1830.0 231 224 218 219 213 200 201 214 213 207
1870.0 206 198 208 224 246 269 286 284 269 259
1910.0 231 188 167 172 196 246 308 360 395 419
1950.0 420 408 365 301 270 245 197 148 117 97
1990.0 89 75 61 66 66 61 62 60 55 56
2030.0 57 50 48 48 45 48 48 45 42 31
2070.0 25 25 24 22 23 29 30 26 29 32
2110.0 30 30 23 19 16 15 19 24 22 32
2150.0 41 27 19 27 41 46 37 34 39 32
2190.0 28 29 27 27 25 21 23 30 32 37
2230.0 44 41 34 28 28 26 27 34 41 40
2270.0 39 43 46 47 46 42 38 29 28 28
2310.0 21 27 35 37 28 18 16 14 11 6
2350.0 0 0 0 0 0 0 0 0 0 0
2390.0 0 0 3 6 3 5 7 8 9 6
2430.0 0 4 11 11 15 17 21 25 19 8
2470.0 11 13 4 7 13 14 13 12 13 14
2510.0 18 21 20 21 23 19 13 16 18 29
2550.0 35 30 27 26 20 20 27 34 41 36
2590.0 36 42 51 68 80 83 89 103 106 95
2630.0 95 114 138 152 155 168 176 181 194 204
2670.0 217 229 233 241 242 227 209 185 159 151
2710.0 157 161 166 170 174 190 222 259 294 339
2750.0 402 465 525 598 665 722 783 852 942 1056
2790.0 1188 1334 1481 1664 1852 2037 2221 2385 2511 2628
2830.0 2763 2862 2939 3073 3378 3977 4811 5760 6840 7995
2870.0 8719 8892 9026 9009 8501 7700 6953 6488 6155 5489
2910.0 4487 3651 3044 2515 2059 1700 1518 1508 1603 1709
2950.0 1774 1808 1822 1783 1683 1536 1363 1190 1052 917
2990.0 793 715 685 718 815 976 1212 1504 1872 2281
3030.0 2560 2628 2713 2903 2892 2670 2491 2446 2514 2687
3070.0 2867 2924 2874 2802 2681 2370 1911 1414 1007 772
3110.0 629 502 394 310 240 183 142 111 90 87
3150.0 93 90 72 65 72 79 88 87 72 53
3190.0 51 48 34 26 31 26 19 20 15 15
3230.0 20 22 31 37 28 21 23 35 27 17
3270.0 21 27 26 4 3 28 38 31 30 37
3310.0 33 20 12 14 21 23 32 32 13 12
3350.0 14 12 18 31 37 32 33 35 35 41
3390.0 38 35 38 38 39 39 43 43 41 47
3430.0 47 44 38 27 38 61 47 22 27 39
3470.0 37 45 47 48 40 41 55 38 34 40
3510.0 39 44 40 52 63 42 42 57 63 71
3550.0 82 82 63 70 97 85 52 48 55 88
3590.0 97 67 58 58 75 83 64 64 60 78
3630.0 84 43 38 52 80 100 87 70 51 50
3670.0 75 91 78 63 86 95 61 54 60 70
3710.0 90 76 57 65 78 77 94 90 104 129
3750.0 126 92 60 60 62 71 70 81 106 95
3790.0 82 89 101 109 94 86 109 128 107 79
3830.0 80 109 127 94 68
##END=
