##TITLE=Indan
##JCAMP-DX=4.24
##DATA TYPE=INFRARED SPECTRUM
##ORIGIN=NIST Mass Spectrometry Data Center
##OWNER=NIST Standard Reference Data Program
Collection (C) 2018 copyright by the U.S. Secretary of Commerce
on behalf of the United States of America. All rights reserved.
##CAS REGISTRY NO=496-11-7
##MOLFORM=C 9 H 10
##$NIST SOURCE=MSDC-IR
##SPECTROMETER/DATA SYSTEM=HP-GC/MS/IRD
##STATE=gas
##XUNITS=1/CM
##YUNITS=ABSORBANCE
##XFACTOR=1.0
##YFACTOR=0.000007000
##DELTAX=4.0
##FIRSTX=550.0
##LASTX=3846.0
##FIRSTY=0.000329
##MAXX=3846
##MINX=550
##MAXY=0.07
##MINY=0
##NPOINTS=825
##XYDATA=(X++(Y..Y))
550.0 47 23 24 60 44 23 27 42 42 41
590.0 44 34 23 25 29 30 36 42 38 33
630.0 32 31 29 32 32 21 17 24 18 2
670.0 7 14 15 15 22 39 59 100 173 311
710.0 540 932 1528 2318 3204 4259 5596 6589 7002 6720
750.0 5699 4455 3398 2466 1628 995 569 327 201 127
790.0 97 82 69 71 68 67 68 62 64 66
830.0 69 71 76 89 95 90 80 71 64 56
870.0 55 52 48 47 54 65 78 96 107 114
910.0 127 130 122 118 136 148 107 80 70 55
950.0 42 29 22 22 23 24 31 47 60 74
990.0 86 93 101 104 124 181 271 331 354 359
1030.0 365 336 241 165 130 108 83 77 92 122
1070.0 162 190 184 173 171 152 116 83 59 45
1110.0 40 41 42 39 33 37 44 56 83 114
1150.0 139 142 137 134 113 76 46 33 30 33
1190.0 47 69 107 164 238 318 369 387 375 340
1230.0 285 206 155 149 163 194 238 280 303 310
1270.0 315 294 249 205 168 152 162 195 245 284
1310.0 295 300 295 250 184 125 90 79 76 81
1350.0 93 95 89 84 79 81 89 99 110 118
1390.0 120 113 104 101 103 107 124 157 203 274
1430.0 392 548 724 919 1174 1457 1645 1658 1670 1847
1470.0 2023 2183 2217 2115 1952 1745 1384 837 406 207
1510.0 122 81 58 43 30 21 18 21 22 24
1550.0 30 38 50 71 105 156 223 285 335 372
1590.0 391 396 373 332 290 256 215 173 132 99
1630.0 84 78 65 52 52 60 75 94 109 122
1670.0 126 121 109 94 75 57 48 46 47 45
1710.0 42 37 33 26 22 24 26 26 28 37
1750.0 46 56 74 98 125 146 160 172 174 165
1790.0 152 130 108 101 102 116 134 147 155 156
1830.0 143 115 94 91 97 107 117 122 123 125
1870.0 124 130 156 194 235 264 268 257 247 215
1910.0 168 123 101 107 124 150 172 175 167 147
1950.0 113 72 36 18 11 7 6 4 2 4
1990.0 6 9 10 12 15 13 11 6 3 1
2030.0 1 5 4 6 9 11 11 13 16 18
2070.0 20 18 17 13 11 10 8 9 6 5
2110.0 6 5 8 5 8 10 9 7 9 12
2150.0 11 10 9 9 11 14 12 7 8 9
2190.0 9 13 14 17 21 23 23 24 20 19
2230.0 16 14 17 17 16 13 13 18 17 16
2270.0 21 27 37 47 56 62 73 82 83 77
2310.0 70 64 56 45 31 24 27 20 16 19
2350.0 11 0 0 0 0 0 0 0 0 0
2390.0 0 0 0 0 7 14 13 17 25 29
2430.0 31 30 25 22 18 15 10 10 12 10
2470.0 11 11 9 6 2 1 4 3 4 6
2510.0 8 8 9 10 11 11 13 14 10 8
2550.0 10 11 14 17 24 32 38 42 41 42
2590.0 41 38 37 42 47 52 52 51 48 44
2630.0 39 32 26 23 22 26 31 34 36 41
2670.0 44 42 37 38 35 29 27 30 36 39
2710.0 39 43 47 52 54 59 70 79 89 100
2750.0 109 113 117 125 131 135 142 147 151 163
2790.0 170 176 188 205 232 260 291 339 411 514
2830.0 668 920 1309 1870 2584 3258 3640 3790 3942 3989
2870.0 3730 3350 3096 2970 2971 3043 3148 3342 3587 3794
2910.0 3969 4119 4276 4485 4727 5015 5451 6150 6988 7660
2950.0 8204 8986 9858 10000 9053 7576 6143 4867 3520 2366
2990.0 1674 1329 1219 1272 1462 1782 2222 2670 2943 3032
3030.0 3170 3290 3125 2851 2695 2658 2723 2931 3253 3496
3070.0 3536 3462 3354 3090 2605 1984 1417 1051 836 681
3110.0 538 412 315 241 197 174 154 139 130 123
3150.0 123 124 124 116 106 103 100 86 73 65
3190.0 61 55 41 38 43 35 28 30 33 28
3230.0 20 17 17 17 16 12 9 7 4 1
3270.0 4 8 8 1 1 8 6 8 8 10
3310.0 10 2 6 11 10 11 10 8 9 9
3350.0 12 7 2 6 11 9 2 4 14 13
3390.0 6 6 9 10 9 11 12 11 16 24
3430.0 22 20 24 26 24 18 16 22 21 14
3470.0 13 19 23 18 18 17 15 19 18 16
3510.0 27 30 25 26 26 22 27 29 38 43
3550.0 39 41 37 37 41 43 44 40 34 35
3590.0 37 34 32 30 27 28 27 27 26 31
3630.0 36 30 28 26 22 26 29 28 26 24
3670.0 22 21 27 25 19 17 22 29 28 24
3710.0 26 25 20 18 19 17 22 25 25 24
3750.0 27 28 30 35 40 45 43 44 47 49
3790.0 48 45 47 48 43 40 46 45 39 46
3830.0 47 47 52 50 47
##END=
