##TITLE=3-Bromochromone
##JCAMP-DX=4.24
##DATA TYPE=INFRARED SPECTRUM
##ORIGIN=EPA-IR VAPOR PHASE LIBRARY
##OWNER=SRD/NIST
Collection (C) 2018 copyright by the U.S. Secretary of Commerce
on behalf of the United States of America. All rights reserved.
##CAS REGISTRY NO=49619-82-1
##MOLFORM=C 9 H 5 Br O 2
##$NIST SOURCE=MSDC-IR
##STATE=gas
##XUNITS=1/CM
##YUNITS=ABSORBANCE
##XFACTOR=1.
##YFACTOR=0.001
##DELTAX=1.92898
##FIRSTX=549.8
##LASTX=4000.7
##FIRSTY=4.119
##MAXX=4000.7
##MINX=549.759
##MAXY=0.324779
##MINY=0
##NPOINTS=1790
##XYDATA=(X++(Y..Y))
549.759 4.119 3.219 2.769 3.369 3.929 5.639 7.419 8.739 9.239 8.589
569.049 8.599 8.469 7.889 6.139 5.099 4.869 3.869 3.239 2.839 2.359
588.339 1.899 2.109 2.279 2.209 2.239 1.989 2.039 2.939 3.829 4.739
607.628 6.569 7.929 9.209 12.989 20.859 33.679 47.929 55.059 56.679 57.859
626.918 58.729 52.529 36.369 20.519 10.889 6.359 4.919 4.009 2.839 2.799
646.208 2.909 2.699 2.799 3.549 4.279 4.039 3.829 3.919 3.729 3.729
665.498 4.029 4.659 6.159 7.949 9.839 12.669 16.579 20.049 22.379 24.379
684.787 28.069 34.739 36.019 28.689 23.579 21.809 19.219 15.659 11.649 8.739
704.077 6.769 5.099 3.839 3.409 2.789 2.249 2.529 2.859 2.989 2.839
723.367 2.859 3.409 4.179 5.299 6.399 7.149 9.199 12.699 17.579 24.369
742.657 33.039 43.579 55.259 67.939 80.819 93.029 105.659 121.679 130.469 113.139
761.947 91.979 82.529 72.689 60.439 47.799 36.319 27.129 20.429 15.679 12.839
781.236 11.439 10.169 8.179 6.879 6.149 5.609 5.639 5.439 5.459 5.939
800.526 6.389 6.769 7.219 7.899 8.589 9.319 9.919 9.479 10.179 11.449
819.816 11.059 10.729 12.199 14.229 17.229 22.949 32.049 43.259 53.129 57.899
839.106 58.269 57.799 55.729 48.639 35.979 23.849 17.199 15.419 15.819 18.189
858.395 23.989 34.709 52.119 74.049 90.419 96.579 99.649 102.469 99.079 82.239
877.685 60.089 47.419 44.829 45.829 46.219 45.959 45.089 42.939 38.819 31.429
896.975 24.569 20.509 17.259 14.499 11.809 9.369 7.649 6.199 4.879 4.259
916.265 3.979 3.229 2.839 2.799 2.309 2.229 2.369 2.059 1.889 1.819
935.555 2.229 2.979 2.709 2.679 3.469 3.499 3.829 4.959 5.799 6.569
954.844 6.969 7.379 7.579 6.819 5.729 5.059 4.899 4.479 4.079 3.969
974.134 4.029 4.279 4.209 3.919 4.079 4.239 4.429 4.569 3.999 3.519
993.424 3.539 3.849 4.409 4.669 4.639 4.919 6.129 7.059 8.059 10.239
1012.714 13.049 16.359 19.389 20.819 20.769 21.209 22.359 21.139 17.339 14.179
1032.003 11.889 9.959 8.669 8.769 9.609 10.099 11.169 13.309 16.999 22.469
1051.293 29.299 39.409 53.539 72.029 96.199 123.889 149.289 166.629 174.769 175.639
1070.583 168.939 152.829 124.859 90.459 64.139 48.979 40.589 33.869 28.489 25.189
1089.873 23.809 24.779 27.669 33.149 39.699 46.589 53.339 59.189 61.399 59.519
1109.163 57.109 56.069 51.999 43.329 34.079 26.109 21.459 18.459 14.899 13.259
1128.452 13.069 12.949 12.609 11.659 10.149 10.099 11.079 11.949 13.429 13.189
1147.742 13.379 14.809 16.699 19.799 21.889 23.419 23.819 22.889 22.029 20.509
1167.032 16.659 11.129 7.469 6.119 5.309 4.989 5.219 4.819 3.619 4.319
1186.322 4.329 4.779 7.109 9.579 13.479 17.209 21.469 25.039 29.669 35.869
1205.611 41.399 48.359 54.689 57.959 58.619 55.339 50.859 44.449 32.999 23.159
1224.901 17.479 14.469 12.019 10.409 10.789 11.179 11.639 12.379 13.079 15.479
1244.191 19.689 23.459 26.579 28.819 29.209 29.009 27.579 23.679 18.789 14.359
1263.481 11.159 8.889 7.659 7.359 7.439 7.639 8.559 10.509 12.549 15.119
1282.771 19.069 24.279 31.289 39.719 50.399 63.599 78.229 93.519 107.669 119.599
1302.060 128.869 136.429 142.939 146.219 144.289 139.039 133.689 128.319 120.789 110.829
1321.350 102.149 98.569 101.529 109.989 120.829 130.569 136.059 136.029 131.309 122.869
1340.640 110.479 95.579 82.829 76.009 75.359 78.089 81.629 84.629 85.779 84.429
1359.930 80.779 75.349 68.389 60.579 52.539 44.919 38.259 32.959 28.939 25.359
1379.219 21.999 18.719 15.469 13.089 11.639 10.929 10.889 11.049 10.939 10.559
1398.509 10.119 9.509 8.659 7.679 6.829 6.199 5.839 5.639 5.559 5.669
1417.799 5.799 5.799 6.009 6.409 6.909 7.519 8.129 9.069 10.419 12.319
1437.089 15.309 18.609 21.879 25.449 29.519 34.719 42.169 52.539 68.059 90.079
1456.378 121.489 162.089 202.419 233.289 245.589 243.739 232.489 206.199 157.529 101.189
1475.668 62.939 43.189 32.759 24.919 18.629 14.179 11.339 9.379 8.099 7.579
1494.958 7.229 6.829 6.589 6.559 6.869 7.409 8.189 8.949 9.499 9.699
1514.248 9.699 9.319 8.539 7.859 7.239 6.679 6.229 6.169 6.559 7.229
1533.538 8.169 9.109 9.589 10.039 10.489 10.489 10.759 11.239 11.789 12.799
1552.827 14.159 15.899 18.319 21.799 26.169 30.849 35.379 38.929 41.279 41.979
1572.117 41.159 39.169 35.369 30.809 26.709 23.829 23.149 24.049 26.159 29.279
1591.407 33.369 38.689 45.609 53.789 63.669 76.149 90.359 106.309 122.869 137.619
1610.697 147.149 148.559 142.419 130.339 114.749 96.079 76.449 60.319 49.169 41.719
1629.986 35.869 30.879 27.309 24.589 22.319 20.829 19.949 19.379 19.529 19.909
1649.276 20.239 21.179 22.469 23.579 25.309 28.439 33.039 39.009 47.179 58.169
1668.566 72.479 90.559 112.409 138.189 169.179 203.169 240.859 276.839 304.669 320.229
1687.856 324.369 324.779 318.969 298.569 263.019 223.469 184.119 144.549 114.049 89.599
1707.146 71.739 58.169 48.439 41.709 36.489 31.649 27.249 23.779 21.339 19.769
1726.435 18.879 18.429 18.329 18.379 18.389 18.519 18.579 18.339 17.999 17.589
1745.725 17.169 16.199 14.829 13.749 12.829 11.929 11.309 10.769 10.219 9.909
1765.015 9.839 9.789 9.789 9.949 10.129 10.249 10.099 9.629 9.139 8.609
1784.305 8.269 7.809 7.119 6.359 5.679 5.149 4.809 4.649 4.509 4.689
1803.594 4.989 5.179 5.399 5.689 6.039 6.279 6.479 6.749 6.789 6.619
1822.884 6.479 6.119 5.769 5.489 5.339 5.189 4.999 5.009 5.209 5.299
1842.174 5.209 5.019 4.629 4.299 3.939 3.449 3.029 2.849 2.749 2.539
1861.464 2.549 2.619 2.569 2.659 2.809 2.789 2.819 2.769 2.709 2.819
1880.754 2.789 2.669 2.549 2.439 2.239 2.279 2.399 2.479 2.649 2.849
1900.043 2.969 3.169 3.399 3.619 3.959 4.209 4.209 4.259 4.459 4.319
1919.333 4.039 4.079 4.309 4.619 4.959 5.379 5.829 6.289 6.669 6.779
1938.623 6.779 6.609 6.209 5.689 5.139 4.589 4.119 3.889 3.959 4.079
1957.913 4.379 4.529 4.359 4.299 4.149 3.749 3.369 2.919 2.739 2.649
1977.202 2.279 2.319 2.449 2.499 2.509 2.179 2.119 2.079 1.819 1.5933
1996.492 1.6165 1.5665 1.4256 1.4387 1.4501 1.5584 1.699 1.4644 1.2987 1.5556
2015.782 1.5553 1.4466 1.5825 1.669 1.769 1.699 1.709 1.979 1.999 1.879
2035.072 2.029 2.279 2.429 2.579 2.529 2.649 3.089 3.279 3.229 3.119
2054.362 2.839 2.739 2.559 2.259 1.999 1.779 1.759 1.729 1.779 1.789
2073.651 1.709 1.659 1.659 1.809 2.049 2.119 2.099 2.059 2.079 2.069
2092.941 1.879 1.789 1.789 1.621 1.3936 1.3809 1.3575 1.5448 1.5983 1.3834
2112.231 1.3665 1.2635 1.4997 1.819 1.739 1.769 2.089 2.289 2.319 2.309
2131.521 2.259 2.419 2.429 2.229 2.139 1.999 1.889 1.809 1.819 1.849
2150.810 1.849 1.859 1.739 1.809 2.069 2.089 2.099 2.289 2.569 2.759
2170.100 2.669 2.749 2.879 2.719 2.479 2.399 2.469 2.479 2.389 2.379
2189.390 2.509 2.509 2.529 2.589 2.549 2.479 2.189 2.039 2.159 2.019
2208.680 1.859 1.789 1.749 1.819 1.849 1.949 1.849 1.819 2.089 2.119
2227.970 1.859 1.869 1.929 1.959 1.999 1.819 1.759 1.869 1.989 2.179
2247.259 2.239 2.129 1.959 2.099 2.239 2.299 2.449 2.379 2.369 2.499
2266.549 2.489 2.359 2.229 2.159 2.069 1.919 1.899 1.939 1.869 1.669
2285.839 1.689 1.829 2.049 2.179 2.199 2.369 2.629 2.729 2.819 2.829
2305.129 2.739 2.939 3.119 2.929 2.789 2.719 2.739 2.689 2.599 2.619
2324.418 2.449 2.219 1.929 1.849 1.749 1.669 1.969 1.969 1.659 1.749
2343.708 2.009 2.069 2.129 2.089 2.049 1.859 1.869 2.099 2.279 2.729
2362.998 2.899 2.889 2.979 3.029 2.979 2.959 3.039 2.799 2.659 2.529
2382.288 2.079 1.869 1.779 1.6366 1.719 1.799 1.799 1.779 1.869 2.089
2401.578 2.059 2.139 2.319 2.309 2.509 2.659 2.459 2.469 2.629 2.659
2420.867 2.539 2.249 2.009 1.849 1.799 1.789 1.669 1.5667 1.4984 1.3123
2440.157 1.2392 1.2035 1.1433 1.3072 1.5117 1.779 1.929 1.709 1.789 1.969
2459.447 1.879 1.899 1.919 1.849 1.929 1.869 1.859 1.769 1.6169 1.699
2478.737 1.6204 1.779 2.049 2.049 2.009 2.039 1.959 1.6417 1.5312 1.649
2498.026 1.749 1.729 1.6172 1.749 1.5096 1.2015 1.3677 1.299 1.244 1.2992
2517.316 1.4617 1.5034 1.4359 1.6417 1.739 1.699 1.759 1.6442 1.463 1.4604
2536.606 1.5957 1.5645 1.4911 1.6039 1.769 1.829 1.779 1.899 1.859 1.799
2555.896 1.4619 1.222 1.4505 1.323 1.2791 1.6383 1.769 1.5754 1.4068 1.3867
2575.186 1.5221 1.3351 1.1861 1.2557 1.2447 1.336 1.2575 1.0697 1.0926 1.276
2594.475 1.4603 1.4184 1.2196 1.1896 1.3222 1.384 1.1116 1.2473 1.478 1.3379
2613.765 1.3475 1.4447 1.4417 1.4848 1.588 1.5328 1.332 1.3493 1.719 1.959
2633.055 1.999 1.759 1.5888 1.849 1.889 1.659 1.6402 1.5891 1.4942 1.4473
2652.345 1.5656 1.899 1.6322 1.5967 2.049 1.929 1.879 2.239 2.419 2.229
2671.634 2.169 2.339 2.339 2.239 2.429 2.499 2.189 1.939 1.809 1.6459
2690.924 1.6066 1.5777 1.5825 1.4658 1.4876 1.779 1.759 1.949 2.169 2.119
2710.214 1.909 1.919 2.079 1.789 1.879 1.879 1.729 1.989 1.709 1.4235
2729.504 1.4559 1.4493 1.1793 1.2065 1.2903 1.1115 1.0294 0.9439 1.1632 1.3906
2748.794 1.4918 1.4462 1.5689 1.739 1.709 1.649 1.779 1.849 1.859 2.039
2768.083 2.059 1.989 1.829 1.899 2.029 2.039 2.159 2.189 2.289 1.909
2787.373 1.5749 1.699 1.699 1.5468 1.649 1.729 1.749 1.739 1.4921 1.4744
2806.663 1.283 1.3598 1.4264 1.4925 1.869 1.939 1.819 1.759 1.6323 1.689
2825.953 1.5419 1.4626 1.5204 1.2913 0.875 0.5816 0.67063 0.70055 0.8313 0.71984
2845.242 0.458 0.5816 0.9003 1.0133 0.9891 0.8836 0.7859 1.2079 1.5376 1.3731
2864.532 1.232 1.1563 1.1887 1.1558 1.1522 1.136 1.1382 1.1657 1.0862 0.849
2883.822 0.8677 0.8596 0.9561 1.1715 1.1951 1.3464 1.1937 1.315 1.6177 1.3386
2903.112 1.2247 1.2796 1.1173 1.1281 1.081 1.0852 1.4569 1.3042 0.9936 1.1375
2922.401 1.3545 1.4317 1.4714 1.4829 1.3248 1.251 1.32 1.5017 1.3141 1.1692
2941.691 1.4941 1.3447 1.2853 1.2147 0.9265 1.3654 1.5508 1.1791 0.8436 0.8052
2960.981 0.8127 0.6353 0.8166 0.9193 0.9252 1.0235 0.70936 0.5676 0.9026 0.9481
2980.271 0.73494 0.9673 1.1404 0.9901 1.0456 0.9346 0.8931 0.9613 0.9141 1.1608
2999.561 1.0931 1.1741 1.769 2.019 2.239 2.619 2.939 3.099 3.449 3.719
3018.850 3.619 3.689 3.899 3.789 3.579 3.329 3.259 3.299 3.369 3.539
3038.140 3.969 4.249 4.169 4.709 5.139 5.529 6.029 6.519 7.399 8.129
3057.430 8.419 8.629 9.539 10.359 10.569 10.949 12.289 14.679 17.119 19.729
3076.720 22.179 23.859 24.949 25.679 25.799 25.049 23.549 21.379 19.189 17.199
3096.009 15.199 12.539 9.269 6.799 5.279 4.079 3.249 2.729 2.189 1.749
3115.299 1.5671 1.5757 1.919 1.749 1.4582 1.5522 1.3423 1.0309 1.0737 1.3804
3134.589 1.324 1.4869 1.749 1.341 1.1534 1.6365 1.5702 1.3616 1.5214 1.3149
3153.879 1.2884 1.5405 1.2473 1.0902 1.0174 0.72091 1.087 1.0694 0.8503 1.1687
3173.169 1.363 1.659 1.719 1.4951 1.5047 1.649 1.5903 1.3864 1.2661 0.9296
3192.458 0.73478 0.9468 0.9816 0.9532 1.1103 1.2415 1.2582 1.3013 1.0996 0.8671
3211.748 1.0219 1.1218 1.4673 1.2676 0.70696 0.70749 0.9941 1.1456 1.2463 1.335
3231.038 1.1638 0.8754 1.0179 1.0365 0.8144 0.866 0.9256 0.9724 1.1364 1.3416
3250.328 1.1338 0.8694 1.3329 1.5171 0.85 0.67326 0.67704 0.6027 0.73055 0.6418
3269.617 0.389 0.274 0.7752 1.0503 0.795 0.9578 0.901 1.0234 1.5061 1.4438
3288.907 1.2137 1.2143 1.1873 1.235 1.3852 1.635 1.5284 1.1862 1.0792 0.9048
3308.197 0.9814 1.0237 0.892 0.934 1.361 1.3823 0.9515 0.439 0.437 1.1666
3327.487 1.6346 1.729 1.889 1.879 1.849 2.109 2.399 2.659 3.129 3.349
3346.777 3.399 4.079 4.459 4.529 4.359 4.729 5.109 4.639 4.619 4.899
3366.066 4.779 4.089 3.359 3.079 2.809 2.339 2.269 2.029 1.799 1.939
3385.356 1.689 1.0967 1.2137 1.4718 1.3049 1.3363 1.5407 1.2762 0.315 0.305
3404.646 0.9597 0.993 0.7576 0.547 0.525 0.509 0.8316 1.2229 1.2056 0.7579
3423.936 0.7274 0.883 0.508 0.9095 1.1889 1.2061 0.7678 0.595 1.008 0.907
3443.225 0.74623 0.5586 0.5808 0.6045 0.507 0.8669 0.71654 0.358 0.448 0.368
3462.515 0.451 0.464 0.194 0.5 0.9689 0.8534 0.6139 0.5564 0.289 0.431
3481.805 0.68282 0.161 0.483 0.6071 0.365 0.304 0.111 0.448 0.6161 0.655291
3501.095 0.9896 1.1016 0.7869 0.7574 1.0154 0.873 1.022 1.0001 0.7681 0.9274
3520.385 0.74457 0.74402 0.8281 0.8379 1.2684 1.409 1.1094 0.8489 0.68726 0.73696
3539.674 0.8038 0.6063 0.546 0.358 0.263 0.396 0.482 0.9393 0.9548 0.8413
3558.964 0.928 0.347 0.345 0.7609 0.5585 0.5713 0.8594 1.0016 0.8201 0.7985
3578.254 0.9173 0.9692 1.0275 0.9231 0.637 0.485 0.382 0.571 1.1419 1.0288
3597.544 0.7823 0.9004 0.649306 0.422 0.514 0.6317 0.513 0.67571 0.9417 0.70983
3616.833 0.67359 0.441 0.043 0.244 0.463 0.41 0.464 0.72694 0.421 0.277
3636.123 0.5547 0.71252 0.9993 0.8649 0.8346 0.9229 0.6363 0.5549 0.63925 0.70073
3655.413 0.5501 0.499 0.8383 0.9534 0.8718 0.519 0.5765 0.893 0.68048 0.68493
3674.703 0.5617 0.493 0.64202 0.464 0.345 0.274 0.162 0.48 0.73854 0.497
3693.993 0.7353 0.67648 0.396 0.7756 0.6262 0.5708 0.68551 0.346 0.473 0.6278
3713.282 0.70762 0.7854 0.544 0.343 0.6728 1.1922 1.2188 0.7784 0.427 0.5629
3732.572 0.67093 0.66183 0.9192 0.9655 0.332 0.28 0.353 0.357 0.66234 0.507
3751.862 0.198 0.336 0.505 0.326 0.413 0.454 0.72094 0.71199 0.24 0.392
3771.152 0.9514 0.7596 0.435 0.7562 1.0086 1.087 0.9884 0.523 0.322 0.66615
3790.441 0.7829 0.5501 0.529 0.9599 1.0131 0.70432 0.375 0.5775 1.0256 0.70879
3809.731 0.546 0.433 0.5879 1.1443 1.3137 1.2337 0.786 0.332 0.68208 0.8046
3829.021 0.7901 0.9979 1.0206 0.811 0.342 0.354 0.484 0.239 0.12 0
3848.311 0.035 0.434 0.516 0.66183 0.9564 0.73704 0.373 0.437 0.9649 1.0822
3867.601 0.5701 0.459 0.7197 0.524 0.653386 0.9302 0.7585 0.9525 1.3189 1.1597
3886.890 0.515 0.45 0.8267 1.3286 1.4152 1.1317 0.9776 1.0281 1.089 1.2635
3906.180 1.6046 1.5225 1.1596 0.9033 0.9335 1.0105 1.0076 1.0725 0.71385 0.388
3925.470 0.385 0.429 0.6164 0.9105 0.9149 0.796 0.8385 0.7988 0.492 0.298
3944.760 0.6249 0.772 0.9178 1.0307 0.9543 0.71829 0.354 0.135 0.332 0.35
3964.049 0.344 0.883 1.0851 0.8722 0.767 0.73708 0.7967 1.0742 1.3334 0.9947
3983.339 0.7855 0.72987 0.367 0.204 0.522 1.0128 0.73991 0.412 0.456 0.7706
##END=
