##TITLE=2,4,6-Triisopropylbenzoic acid
##JCAMP-DX=4.24
##DATA TYPE=INFRARED SPECTRUM
##ORIGIN=EPA-IR VAPOR PHASE LIBRARY
##OWNER=SRD/NIST
Collection (C) 2018 copyright by the U.S. Secretary of Commerce
on behalf of the United States of America. All rights reserved.
##CAS REGISTRY NO=49623-71-4
##MOLFORM=C16 H24 O2
##$NIST SOURCE=MSDC-IR
##STATE=gas
##XUNITS=1/CM
##YUNITS=ABSORBANCE
##XFACTOR=1.
##YFACTOR=0.001
##DELTAX=1.92898
##FIRSTX=549.8
##LASTX=4000.7
##FIRSTY=5.2867
##MAXX=4000.7
##MINX=549.759
##MAXY=0.118067
##MINY=0
##NPOINTS=1790
##XYDATA=(X++(Y..Y))
549.759 5.2867 5.2667 5.1467 5.4067 5.5167 5.5867 5.7167 5.8867 5.9067 6.0867
569.049 6.6667 7.2167 7.6967 8.2467 8.7967 9.2167 9.7367 10.2967 10.6467 10.9967
588.339 11.4867 11.9367 12.7267 13.6067 14.1867 14.4367 14.5567 14.6367 14.2367 13.5967
607.628 13.0867 12.5467 12.2167 12.2867 12.3867 12.3667 12.0267 11.3367 10.5367 9.4167
626.918 7.9967 7.0567 6.3567 5.3467 4.6067 3.9567 3.3967 3.2767 3.0767 2.8167
646.208 2.6467 2.4867 2.5167 2.6867 2.8667 2.8867 2.6867 2.4267 2.2267 2.1667
665.498 2.0567 2.0267 2.0067 1.9767 1.8667 1.5767 1.5067 1.5767 1.4067 1.1667
684.787 1.2167 1.4267 1.5867 1.6267 1.6167 1.5467 1.6367 1.7967 2.0967 2.4767
704.077 2.7267 3.1867 3.8367 4.4067 5.1867 6.4067 7.7167 8.7267 9.2867 9.5267
723.367 9.3767 8.7467 7.7367 6.4567 5.2867 4.4567 3.9167 3.4667 3.0367 2.7067
742.657 2.6267 2.7267 2.6367 2.5767 2.7467 2.9167 2.9467 3.2367 3.6567 4.0967
761.947 4.9167 5.8467 7.0267 8.8467 10.9467 12.7267 14.0167 14.7867 14.5967 13.3467
781.236 11.5767 9.6267 7.7367 6.1867 4.8967 3.7967 3.1167 2.6367 2.1967 1.9567
800.526 1.6067 1.4467 1.7267 1.7367 1.5867 1.4167 1.5567 1.7567 1.7367 1.9767
819.816 2.0567 1.9967 2.2767 2.3067 2.1367 2.0467 2.0167 2.1067 2.1467 2.3867
839.106 2.6167 2.6267 2.2667 1.9067 1.8067 1.7867 1.6767 1.3067 1.2567 1.4067
858.395 1.4367 1.6167 1.7767 2.1267 2.7967 3.7167 4.9267 6.2667 7.5767 9.0967
877.685 9.3967 7.9367 6.5367 5.4367 4.1167 2.9067 2.2567 1.7567 1.4867 1.4367
896.975 1.4267 1.4267 1.2167 1.1267 1.3367 1.2467 1.1767 1.3367 1.4667 1.6567
916.265 1.7667 1.9267 2.1467 2.2867 2.6267 3.1667 3.6067 3.9467 4.1767 4.5467
935.555 4.8667 5.0467 5.2367 5.3767 5.4367 5.2267 4.9567 4.5767 4.0367 3.4167
954.844 2.8367 2.4767 2.1167 1.9467 1.8567 1.7667 1.7167 1.4967 1.4367 1.5267
974.134 1.5567 1.5067 1.5167 1.6367 1.5667 1.3267 1.5067 1.6967 1.5267 1.5467
993.424 1.6867 1.7667 1.6967 1.8867 2.1067 2.2167 2.3267 2.4267 2.4567 2.1567
1012.714 2.2267 2.5067 2.4267 2.4367 2.8467 3.3467 3.5867 3.5667 4.0067 4.9667
1032.003 5.9767 7.4767 9.3567 12.1567 15.9367 20.1367 24.6167 28.3167 31.4167 33.5167
1051.293 34.1267 34.2367 34.5567 35.1967 35.7567 35.9467 35.3667 32.9967 29.3567 25.4267
1070.583 21.5967 18.3367 15.7567 14.3667 13.3667 12.6667 12.2867 11.9167 12.0367 12.3367
1089.873 12.7167 12.9367 13.6367 14.9967 15.9867 16.7767 17.2967 17.3167 17.2167 16.9867
1109.163 17.0867 17.3967 17.6467 18.3667 19.2467 20.2467 21.6267 22.3167 22.1067 21.4967
1128.452 20.9567 20.1167 18.7767 17.5467 16.4867 15.5167 14.5567 13.9967 13.7367 13.3767
1147.742 12.8067 12.6767 12.6567 12.4367 12.4567 12.5067 13.1867 14.2867 15.6167 17.1467
1167.032 18.5667 20.1167 21.1967 21.7767 21.8367 20.9667 19.5967 18.0167 16.2867 14.8067
1186.322 14.1867 13.9567 14.1067 15.1167 16.3667 17.3467 18.3867 19.3967 19.7167 19.2667
1205.611 18.1567 16.8567 15.6367 14.3367 13.1867 11.9767 10.6567 9.5867 8.7167 8.1167
1224.901 7.8667 7.8467 7.9867 7.8767 7.8167 7.8867 7.9967 8.1567 8.3067 8.5267
1244.191 8.6367 8.3867 8.0167 7.7167 7.2867 6.9967 7.0567 7.2167 6.9967 6.8167
1263.481 7.0367 7.2467 7.1767 6.8567 6.8467 7.2167 7.3067 7.3867 7.9967 8.6367
1282.771 9.2167 10.1267 11.2467 12.2567 13.3167 14.5667 15.7367 16.7567 17.5867 18.1567
1302.060 18.3567 18.2167 17.8067 17.1667 16.2467 15.1367 13.9467 12.7667 11.7367 10.9267
1321.350 10.2867 9.7367 9.3267 8.9867 8.6567 8.3767 8.1767 8.0067 7.8167 7.6967
1340.640 7.6967 7.7867 7.8467 7.9367 7.9967 7.9767 7.9667 8.0267 8.3067 8.9267
1359.930 9.8067 10.8367 11.8267 12.8767 14.0067 13.7267 11.9467 10.4067 9.0967 7.9067
1379.219 7.3167 7.4767 8.1967 9.0767 9.7067 9.9167 9.6567 8.9167 7.7867 6.6467
1398.509 5.7767 5.3167 5.1467 5.0667 5.1367 5.3167 5.5067 5.7467 6.0867 6.5467
1417.799 7.0067 7.4067 7.7867 8.1867 8.4967 8.5867 8.5867 8.4267 8.0767 7.6267
1437.089 7.1767 6.8267 6.5667 6.4867 6.6567 7.0167 7.5067 8.0667 8.8067 9.7967
1456.378 10.8867 12.1067 13.4067 14.5367 15.2967 15.7167 15.6067 14.9567 13.8667 12.3467
1475.668 10.7067 9.1067 7.6167 6.3467 5.3367 4.6067 4.0767 3.6867 3.3367 3.0967
1494.958 2.9567 2.8067 2.6567 2.5567 2.4767 2.3867 2.2567 2.1867 2.1867 2.1167
1514.248 2.1067 2.1767 2.1267 2.0867 2.1267 2.1167 2.1767 2.3267 2.4067 2.5067
1533.538 2.6067 2.6867 2.8167 2.9667 3.1167 3.1967 3.2867 3.4067 3.4667 3.4867
1552.827 3.6167 3.8667 4.1567 4.6167 5.2267 5.9267 6.6767 7.3467 8.0367 8.4467
1572.117 8.5267 8.2967 7.7567 7.0267 6.3567 5.8767 5.5967 5.5967 5.8567 6.3467
1591.407 7.1567 8.4267 10.0467 11.8667 13.7667 15.4167 16.5067 16.6967 15.8767 14.2167
1610.697 11.9567 9.5467 7.3767 5.6667 4.4767 3.6667 3.1267 2.7067 2.3367 2.1567
1629.986 1.9067 1.7667 1.7067 1.5467 1.4467 1.4267 1.4067 1.4067 1.3967 1.3567
1649.276 1.3167 1.2867 1.2867 1.2567 1.2567 1.2167 1.2467 1.3067 1.3067 1.3467
1668.566 1.3867 1.4167 1.4667 1.5267 1.5567 1.6167 1.7267 1.8267 1.9867 2.1867
1687.856 2.3567 2.5867 2.8867 3.2267 3.6467 4.1267 4.5367 5.0167 5.4867 5.9167
1707.146 6.2567 6.5567 6.8467 6.9867 7.0867 7.0767 7.0067 6.8567 6.6567 6.5567
1726.435 6.5667 6.7067 7.0467 7.6967 8.5567 9.7267 11.4267 13.8167 17.3067 22.4867
1745.725 29.9367 40.5367 54.2567 70.4367 87.1567 101.797 111.307 111.827 102.387 86.6767
1765.015 69.1567 52.3067 38.0867 27.7667 20.9667 16.9767 14.8467 13.8267 13.6467 13.9567
1784.305 14.4467 14.8667 14.9867 14.5967 13.5567 12.1767 10.7367 9.4067 8.2267 7.2667
1803.594 6.5667 5.9167 5.2867 4.7367 4.2667 3.8467 3.4467 3.1967 2.9267 2.6167
1822.884 2.4267 2.2867 2.1667 2.0767 1.9867 1.8967 1.8267 1.7667 1.7067 1.6567
1842.174 1.5167 1.4067 1.3667 1.2967 1.1967 1.1267 1.0867 1.0187 0.9193 0.8189
1861.464 0.7825 0.7692 0.749 0.7566 0.7357 0.6914 0.6115 0.6018 0.6588 0.6793
1880.754 0.6751 0.6826 0.6725 0.6745 0.6922 0.6945 0.7055 0.6777 0.6389 0.6161
1900.043 0.5818 0.6031 0.6301 0.5461 0.4916 0.5492 0.5851 0.5108 0.4845 0.5664
1919.333 0.5675 0.5503 0.5913 0.6119 0.6631 0.6521 0.5457 0.5505 0.5657 0.4422
1938.623 0.3985 0.4118 0.3012 0.2216 0.2618 0.3054 0.3457 0.3338 0.2631 0.2764
1957.913 0.2559 0.2689 0.2876 0.251 0.2782 0.3298 0.3006 0.2835 0.3598 0.3076
1977.202 0.3249 0.3699 0.3045 0.3316 0.3487 0.293 0.3375 0.3725 0.2842 0.2606
1996.492 0.2988 0.2783 0.2937 0.3231 0.2781 0.278 0.2893 0.2749 0.3092 0.3756
2015.782 0.3325 0.243 0.2645 0.3079 0.3317 0.3061 0.2949 0.3069 0.259 0.2707
2035.072 0.2724 0.319 0.3284 0.2715 0.3486 0.3616 0.2819 0.2434 0.2688 0.2868
2054.362 0.259 0.2384 0.2357 0.2848 0.26 0.1975 0.2188 0.1963 0.2034 0.2576
2073.651 0.3183 0.3243 0.3056 0.3071 0.3004 0.3217 0.3276 0.3413 0.3624 0.3494
2092.941 0.35 0.3398 0.3009 0.2912 0.3136 0.336 0.3715 0.3706 0.3449 0.3358
2112.231 0.3229 0.3587 0.3291 0.2622 0.2629 0.315 0.3447 0.328 0.3469 0.3033
2131.521 0.2507 0.2861 0.2883 0.2957 0.317 0.2965 0.2993 0.3147 0.3134 0.2776
2150.810 0.2253 0.2594 0.2875 0.2942 0.2967 0.2711 0.3012 0.2996 0.3208 0.3669
2170.100 0.3734 0.3877 0.3408 0.2811 0.3568 0.3561 0.3131 0.3714 0.3757 0.4126
2189.390 0.4091 0.4062 0.4292 0.341 0.3834 0.4101 0.3106 0.3106 0.3876 0.4136
2208.680 0.3781 0.4026 0.3753 0.3172 0.3343 0.3266 0.3245 0.4122 0.4697 0.4322
2227.970 0.432 0.4283 0.3939 0.3355 0.3206 0.3829 0.4054 0.3948 0.3214 0.2469
2247.259 0.2815 0.3212 0.2971 0.3141 0.3721 0.4057 0.3835 0.3458 0.2466 0.226
2266.549 0.3339 0.3374 0.3217 0.2594 0.2477 0.3164 0.2412 0.18307 0.2111 0.2486
2285.839 0.3141 0.3057 0.2981 0.2903 0.2872 0.3607 0.4027 0.3749 0.3177 0.3203
2305.129 0.3506 0.3871 0.3876 0.3559 0.3212 0.3307 0.3999 0.3686 0.3448 0.3289
2324.418 0.309 0.3981 0.4493 0.4566 0.4611 0.4652 0.4539 0.4208 0.338 0.2928
2343.708 0.371 0.392 0.3218 0.3322 0.3957 0.4005 0.374 0.3597 0.404 0.4216
2362.998 0.442 0.4536 0.4503 0.4813 0.4327 0.4239 0.4845 0.571 0.5489 0.4648
2382.288 0.4441 0.5083 0.5364 0.4049 0.3337 0.4251 0.4789 0.4367 0.5096 0.5487
2401.578 0.4664 0.4596 0.4201 0.3227 0.34 0.3564 0.3272 0.3211 0.3111 0.3461
2420.867 0.3805 0.3928 0.3676 0.2915 0.2717 0.2952 0.3507 0.3862 0.3752 0.3502
2440.157 0.3839 0.4025 0.3485 0.3661 0.4091 0.412 0.4334 0.3652 0.3659 0.4276
2459.447 0.3975 0.4282 0.5173 0.5639 0.4912 0.4646 0.4791 0.4679 0.5305 0.5575
2478.737 0.4963 0.453 0.4742 0.5461 0.5319 0.5193 0.4593 0.3631 0.3504 0.3295
2498.026 0.3214 0.3502 0.3209 0.329 0.352 0.2595 0.2975 0.3277 0.2965 0.2816
2517.316 0.2787 0.342 0.3906 0.3049 0.195 0.2509 0.4014 0.449 0.345 0.2667
2536.606 0.3 0.3188 0.304 0.3489 0.3726 0.3466 0.3438 0.3773 0.3716 0.2961
2555.896 0.2961 0.3267 0.3477 0.4183 0.4844 0.4999 0.4957 0.447 0.4279 0.4938
2575.186 0.5247 0.5806 0.5957 0.6079 0.5864 0.5946 0.607 0.5778 0.5808 0.569
2594.475 0.5944 0.6084 0.594 0.5679 0.6053 0.563 0.4884 0.5574 0.5923 0.5511
2613.765 0.5511 0.5818 0.5558 0.4999 0.5185 0.6107 0.5964 0.5391 0.5036 0.4726
2633.055 0.4639 0.5021 0.559 0.5621 0.5185 0.4714 0.5171 0.5482 0.5672 0.53
2652.345 0.4637 0.464 0.4691 0.5309 0.5315 0.4702 0.4689 0.4922 0.5294 0.5022
2671.634 0.4616 0.5118 0.5562 0.5358 0.4992 0.4908 0.5096 0.5397 0.5434 0.5682
2690.924 0.572 0.6207 0.6607 0.5943 0.5604 0.6267 0.6201 0.602 0.7305 0.7701
2710.214 0.7113 0.7967 0.8895 1.0147 1.1167 1.1267 1.2867 1.3967 1.4067 1.4067
2729.504 1.3767 1.4267 1.3867 1.3467 1.3767 1.3367 1.2867 1.1867 1.1567 1.1467
2748.794 1.1967 1.2067 1.1667 1.2667 1.3267 1.3667 1.4267 1.4067 1.4167 1.4867
2768.083 1.5367 1.4867 1.4367 1.4467 1.3067 1.2567 1.3467 1.3267 1.2967 1.3267
2787.373 1.3067 1.3467 1.4367 1.5467 1.6167 1.6967 1.7967 1.8367 1.9167 2.0167
2806.663 2.1267 2.2567 2.3267 2.3667 2.4067 2.4967 2.5967 2.6067 2.5767 2.6067
2825.953 2.7367 2.7167 2.6767 2.8367 3.0467 3.0967 3.2367 3.4467 3.4367 3.5567
2845.242 3.9267 4.3467 4.7967 5.1867 5.5567 6.1267 6.7467 7.3167 7.9867 8.9167
2864.532 10.1367 11.5867 13.4867 15.8767 18.6267 21.6167 24.4467 26.8167 28.4067 28.8767
2883.822 28.3567 27.1167 25.5467 23.9767 22.4867 21.3667 20.7367 20.7467 20.9967 21.2567
2903.112 21.7267 22.2967 22.7367 23.1067 23.4767 23.7767 24.0267 24.2267 24.5267 24.8467
2922.401 25.4267 26.6067 28.1667 30.1167 32.3967 34.9267 37.4067 39.3567 40.5467 40.7767
2941.691 40.1667 38.9167 37.4967 35.9967 34.9567 35.0667 36.4367 39.9667 46.6467 56.7767
2960.981 70.2567 85.5467 100.197 111.787 118.067 117.807 110.777 98.5567 84.0667 69.7267
2980.271 56.6567 45.5867 36.7567 29.8767 24.5267 20.6267 17.7967 15.6567 14.0267 12.5567
2999.561 11.3067 10.2067 9.3167 8.6167 7.9767 7.4067 6.9767 6.5967 6.2267 5.8667
3018.850 5.4767 5.2867 5.1667 5.0367 4.7867 4.5867 4.5367 4.4367 4.3567 4.2867
3038.140 4.1167 4.0067 4.0067 4.1767 4.2267 4.1367 4.1967 4.4167 4.5367 4.5067
3057.430 4.6467 4.6967 4.6867 4.6167 4.5167 4.3867 4.1667 3.9567 3.6467 3.3567
3076.720 3.1967 3.1167 3.0867 2.9467 2.7667 2.6667 2.4567 2.3867 2.4667 2.3267
3096.009 2.2767 2.2267 2.1567 1.9967 1.8667 1.9367 1.8967 1.7867 1.7567 1.7267
3115.299 1.6167 1.6067 1.5667 1.5867 1.6867 1.7267 1.6767 1.5767 1.5267 1.4667
3134.589 1.2867 1.2467 1.3467 1.3367 1.4167 1.4267 1.2867 1.2367 1.3467 1.2567
3153.879 1.1167 1.1767 1.1567 1.1967 1.3267 1.2567 1.2767 1.3967 1.4167 1.3767
3173.169 1.3667 1.4267 1.3567 1.3867 1.3867 1.3467 1.4067 1.4267 1.3367 1.3967
3192.458 1.3567 1.2167 1.3367 1.3667 1.3467 1.4167 1.4267 1.3567 1.3767 1.3267
3211.748 1.2667 1.2167 1.0167 1.0281 1.1567 1.1567 1.0551 0.8863 0.8167 0.8791
3231.038 0.7344 0.6266 0.7098 0.6192 0.6989 0.8001 0.6869 0.5452 0.4784 0.5517
3250.328 0.5399 0.3726 0.4101 0.496 0.464 0.452 0.315 0.2281 0.2512 0.4214
3269.617 0.5564 0.5255 0.5004 0.4123 0.3935 0.3373 0.3616 0.4052 0.3894 0.4376
3288.907 0.5144 0.5192 0.4089 0.3962 0.3544 0.3371 0.3173 0.3082 0.3418 0.3375
3308.197 0.261 0.2165 0.2659 0.3513 0.4473 0.4979 0.4294 0.3071 0.3096 0.2095
3327.487 0.2009 0.455 0.4907 0.4724 0.4851 0.393 0.4449 0.4995 0.4661 0.4344
3346.777 0.4399 0.4505 0.4485 0.4088 0.3692 0.3685 0.4065 0.4041 0.3483 0.3994
3366.066 0.3892 0.4093 0.4138 0.199 0.14579 0.3825 0.5426 0.5438 0.4016 0.2106
3385.356 0.2842 0.3175 0.342 0.4384 0.3333 0.2667 0.1238 0.18555 0.4026 0.379
3404.646 0.3583 0.2906 0.2232 0.2046 0.2259 0.2853 0.3114 0.17123 0.09567 0.2697
3423.936 0.2404 0.1974 0.4896 0.5457 0.4572 0.3949 0.3573 0.4318 0.3122 0.2234
3443.225 0.2683 0.3109 0.2587 0.189 0.1914 0.2186 0.2572 0.3141 0.2886 0.3595
3462.515 0.4187 0.3996 0.4187 0.4013 0.4993 0.5958 0.4846 0.489 0.6811 0.6909
3481.805 0.6014 0.524 0.5957 0.8319 0.9032 0.9085 1.1267 1.3267 1.3567 1.4167
3501.095 1.4467 1.3567 1.2467 1.1467 1.0838 0.9688 0.8 0.8184 0.827 0.8015
3520.385 0.9515 1.0847 1.1667 1.2467 1.2467 1.3167 1.3967 1.5667 1.8767 2.4967
3539.674 3.5767 5.1767 8.0967 13.1367 20.2367 27.9267 33.8967 37.0167 36.5367 32.4967
3558.964 26.2067 18.4867 11.5467 7.0267 4.4767 3.2167 2.4667 1.9467 1.5667 1.3067
3578.254 1.1667 1.1267 0.9692 0.8734 0.8012 0.6642 0.7195 0.7255 0.8087 0.8242
3597.544 0.9173 0.9984 1.0164 1.3767 1.5867 1.7267 1.8167 1.5767 1.3767 1.2767
3616.833 1.1367 0.8758 0.7715 0.6369 0.4771 0.4606 0.4155 0.4018 0.5183 0.5549
3636.123 0.445 0.4432 0.4305 0.2984 0.2327 0.3354 0.4738 0.3548 0.2244 0.3651
3655.413 0.3601 0.2187 0.2044 0.3113 0.4968 0.5535 0.415 0.2997 0.3498 0.354
3674.703 0.2536 0.2339 0.1563 0.2242 0.3984 0.5002 0.468 0.3831 0.308 0.249
3693.993 0.3597 0.4008 0.2874 0.16522 0.2746 0.3477 0.2243 0.14492 0.2761 0.4448
3713.282 0.4283 0.3546 0.3096 0.3564 0.3748 0.2562 0.3032 0.3694 0.2709 0.275
3732.572 0.3011 0.3338 0.4044 0.3086 0.3172 0.4463 0.4069 0.4227 0.5268 0.522
3751.862 0.3484 0.2898 0.2758 0.3803 0.307 0 0.07903 0.10992 0.18589 0.3237
3771.152 0.2771 0.2944 0.2485 0.13307 0.1881 0.3424 0.3859 0.4118 0.4627 0.4074
3790.441 0.2887 0.17583 0.0675 0.2477 0.4777 0.4553 0.4314 0.4496 0.3603 0.2207
3809.731 0.2459 0.4057 0.3621 0.3954 0.5391 0.4486 0.4419 0.5475 0.5745 0.5372
3829.021 0.5945 0.6126 0.583 0.5137 0.4482 0.5129 0.6109 0.6742 0.5205 0.4983
3848.311 0.5556 0.4383 0.3923 0.485 0.4771 0.338 0.2373 0.3388 0.5401 0.4826
3867.601 0.339 0.3692 0.4916 0.4205 0.2566 0.3219 0.2981 0.3556 0.6035 0.5184
3886.890 0.3256 0.4874 0.6468 0.538 0.5078 0.4781 0.5028 0.5103 0.3738 0.2619
3906.180 0.2997 0.522 0.5655 0.4232 0.3237 0.2616 0.3058 0.3406 0.4107 0.442
3925.470 0.3258 0.2206 0.2112 0.2868 0.4016 0.3637 0.26 0.3957 0.5008 0.4566
3944.760 0.4876 0.4927 0.454 0.511 0.6303 0.5455 0.4748 0.5357 0.4573 0.4809
3964.049 0.4644 0.3873 0.2242 0.3255 0.4872 0.3555 0.5202 0.6503 0.6462 0.6344
3983.339 0.4562 0.4006 0.4599 0.4839 0.5805 0.6621 0.6397 0.6312 0.6902 0.6775
##END=
