##TITLE=7-Chloroquinaldine
##JCAMP-DX=4.24
##DATA TYPE=INFRARED SPECTRUM
##ORIGIN=EPA-IR VAPOR PHASE LIBRARY
##OWNER=SRD/NIST
Collection (C) 2018 copyright by the U.S. Secretary of Commerce
on behalf of the United States of America. All rights reserved.
##CAS REGISTRY NO=4965-33-7
##MOLFORM=C 10 H 8 Cl N
##$NIST SOURCE=MSDC-IR
##STATE=gas
##XUNITS=1/CM
##YUNITS=ABSORBANCE
##XFACTOR=1.
##YFACTOR=0.001
##DELTAX=1.92898
##FIRSTX=549.8
##LASTX=4000.7
##FIRSTY=1.522
##MAXX=4000.7
##MINX=549.759
##MAXY=0.143302
##MINY=0
##NPOINTS=1790
##XYDATA=(X++(Y..Y))
549.759 1.522 2.312 2.762 3.322 3.972 4.112 4.342 5.092 5.612 6.312
569.049 7.342 7.242 5.942 4.862 4.512 4.162 3.732 3.192 2.512 1.872
588.339 1.792 1.772 1.322 0.9487 0.9253 0.937 1.1195 1.362 1.452 2.042
607.628 3.142 4.672 7.502 12.362 18.372 21.152 21.072 20.912 21.902 23.402
626.918 19.992 14.122 10.292 8.392 7.672 7.412 7.122 5.902 4.752 4.432
646.208 3.662 2.882 2.582 2.262 1.952 1.652 1.502 1.522 1.372 1.1229
665.498 1.1723 1.242 1.322 1.422 1.242 1.1738 1.232 1.252 1.382 1.332
684.787 1.302 1.592 1.752 1.592 1.452 1.242 1.1633 1.232 1.0657 1.034
704.077 1.0907 1.242 1.452 1.802 2.322 2.742 3.372 4.422 5.702 7.122
723.367 8.662 10.472 11.802 12.102 12.232 12.382 11.902 10.522 8.462 6.552
742.657 5.352 4.712 4.612 5.082 5.632 6.312 7.282 8.312 9.512 10.892
761.947 12.042 13.262 14.972 16.852 17.612 15.862 13.552 12.412 11.342 9.962
781.236 8.232 6.352 4.812 3.592 2.842 2.372 2.012 1.732 1.512 1.422
800.526 1.532 1.982 2.412 2.752 3.432 4.342 5.832 7.942 10.522 14.032
819.816 18.442 23.342 29.192 35.322 40.972 46.352 51.902 59.352 66.412 64.632
839.106 55.702 49.512 45.602 40.462 34.122 27.632 21.672 16.812 13.112 10.162
858.395 8.212 6.782 5.862 5.842 6.502 7.432 9.042 11.302 13.842 16.412
877.685 18.742 21.052 23.702 27.212 31.292 30.382 25.042 22.062 20.802 19.612
896.975 18.592 18.212 19.822 24.262 31.212 39.762 47.932 53.582 56.352 57.452
916.265 56.832 52.732 44.852 35.682 28.242 23.322 20.242 18.332 17.242 16.492
935.555 15.852 15.842 16.442 16.402 15.662 14.652 13.612 12.612 11.012 8.762
954.844 6.482 4.952 4.332 4.162 4.082 4.072 4.422 4.752 4.652 4.732
974.134 4.942 4.852 4.762 4.812 4.882 4.852 4.562 4.522 4.532 4.402
993.424 4.332 4.232 4.292 4.342 4.422 4.492 4.532 4.502 4.202 3.832
1012.714 3.832 4.042 3.832 3.632 3.682 3.732 3.722 3.712 4.082 4.422
1032.003 4.702 5.042 5.502 5.832 5.852 6.182 6.422 6.852 7.612 8.502
1051.293 9.552 11.352 14.592 19.332 26.142 34.522 42.182 46.672 48.132 48.862
1070.583 48.462 45.132 37.582 27.552 19.382 14.522 11.772 10.222 9.282 8.222
1089.873 6.822 6.192 5.982 4.962 4.332 4.582 4.522 3.942 3.662 3.902
1109.163 4.702 5.592 7.182 10.372 14.592 20.692 29.782 39.772 46.672 48.462
1128.452 48.952 49.122 47.882 42.122 31.152 21.702 15.992 13.112 11.362 9.772
1147.742 8.192 6.512 4.852 3.392 2.802 2.672 2.322 2.192 2.192 2.312
1167.032 2.552 2.282 2.352 2.612 2.382 2.482 3.122 3.702 4.482 5.542
1186.322 6.102 6.462 6.802 6.832 6.622 6.172 6.132 6.332 7.232 9.152
1205.611 11.272 13.932 16.292 18.102 19.702 20.052 19.872 19.822 18.592 16.112
1224.901 13.932 12.522 11.812 11.002 10.302 10.112 9.572 8.942 8.302 7.322
1244.191 6.462 5.802 5.302 4.872 4.532 4.062 3.522 3.302 2.982 2.602
1263.481 2.342 2.012 1.852 1.962 2.012 2.182 2.332 2.482 2.792 3.322
1282.771 4.232 5.262 6.482 7.942 9.362 10.442 11.042 11.412 11.742 11.712
1302.060 11.152 10.182 9.192 8.592 8.632 9.232 10.262 12.042 14.512 17.492
1321.350 20.712 23.512 25.212 25.572 24.802 23.272 20.932 17.702 14.002 10.672
1340.640 8.522 7.522 7.232 7.312 7.612 8.112 8.852 9.942 11.152 12.222
1359.930 13.182 13.982 14.572 15.122 15.632 15.952 15.952 15.652 15.332 15.212
1379.219 15.192 14.872 14.142 13.272 12.422 11.832 11.752 12.182 13.012 14.232
1398.509 15.732 17.192 18.432 19.352 19.842 20.172 20.302 19.982 19.102 17.662
1417.799 15.812 13.992 12.282 10.662 9.462 8.682 8.272 8.302 8.652 9.232
1437.089 10.062 10.962 11.702 12.272 12.632 12.922 13.092 12.932 12.412 11.632
1456.378 10.792 10.062 9.522 9.112 8.892 8.902 9.192 9.852 11.052 12.862
1475.668 15.532 19.372 24.832 32.792 43.902 58.452 75.732 93.312 107.732 116.012
1494.958 117.832 114.502 106.352 92.852 74.372 54.732 39.132 29.252 23.512 20.162
1514.248 18.052 16.652 15.722 15.032 14.532 14.192 14.112 14.292 14.642 15.092
1533.538 15.352 15.462 15.482 15.322 14.992 14.592 14.302 14.282 14.502 14.722
1552.827 14.922 15.132 15.182 14.982 14.812 14.502 14.072 13.662 13.312 13.352
1572.117 13.932 14.972 16.372 18.202 20.672 23.712 27.092 30.782 34.982 39.852
1591.407 45.692 52.752 60.712 69.742 80.232 91.922 104.422 116.712 127.422 135.702
1610.697 141.162 143.302 141.222 134.402 123.362 109.432 93.882 77.342 60.222 43.832
1629.986 30.292 21.022 15.642 12.652 11.052 10.082 9.382 8.882 8.322 7.782
1649.276 7.312 6.762 6.152 5.612 5.102 4.752 4.622 4.472 4.462 4.552
1668.566 4.612 4.562 4.492 4.572 4.582 4.432 4.192 4.032 3.832 3.642
1687.856 3.462 3.322 3.252 3.132 3.112 3.092 3.132 3.272 3.472 3.742
1707.146 3.952 4.032 4.142 4.242 4.212 4.162 4.052 3.792 3.482 3.182
1726.435 2.952 2.832 2.752 2.752 2.852 2.992 3.172 3.282 3.372 3.432
1745.725 3.442 3.352 3.212 3.112 3.012 3.012 3.102 3.212 3.382 3.562
1765.015 3.752 3.872 3.932 4.022 4.202 4.382 4.302 4.082 3.812 3.572
1784.305 3.312 2.992 2.732 2.512 2.272 2.112 2.102 2.052 1.962 1.902
1803.594 1.842 1.722 1.642 1.572 1.472 1.412 1.352 1.292 1.272 1.302
1822.884 1.282 1.332 1.352 1.312 1.322 1.312 1.322 1.352 1.312 1.222
1842.174 1.1956 1.262 1.332 1.362 1.362 1.372 1.422 1.462 1.502 1.532
1861.464 1.492 1.472 1.472 1.422 1.412 1.472 1.542 1.722 1.942 2.152
1880.754 2.482 2.812 3.072 3.312 3.452 3.522 3.452 3.252 3.062 2.842
1900.043 2.542 2.252 2.112 2.102 2.082 2.062 2.172 2.282 2.332 2.362
1919.333 2.422 2.512 2.612 2.752 2.852 2.862 2.772 2.682 2.592 2.392
1938.623 2.182 1.922 1.672 1.462 1.332 1.242 1.2153 1.2177 1.172 1.1252
1957.913 1.1324 1.1023 1.0356 1.0542 1.119 1.0853 0.9967 0.9541 0.8719 0.816
1977.202 0.8323 0.8336 0.7574 0.7385 0.7531 0.7165 0.6903 0.6136 0.5743 0.626
1996.492 0.7124 0.6966 0.698 0.7317 0.6461 0.6146 0.6378 0.6684 0.7024 0.7052
2015.782 0.7445 0.758 0.745 0.7495 0.7457 0.7488 0.762 0.7836 0.7878 0.7843
2035.072 0.7747 0.7704 0.767 0.795 0.843 0.8546 0.8107 0.7806 0.762 0.7512
2054.362 0.807 0.8109 0.7747 0.8342 0.8699 0.896 0.929 0.9321 0.9506 0.8996
2073.651 0.899 1.0017 1.0187 0.9951 0.9655 0.9223 0.9203 0.9084 0.9221 0.9381
2092.941 0.9358 1.025 1.1055 1.11 1.143 1.1399 1.1162 1.1485 1.094 1.035
2112.231 1.0034 0.9054 0.8729 0.7949 0.7838 0.8068 0.7932 0.7948 0.7935 0.8508
2131.521 0.8779 0.828 0.7176 0.7133 0.7415 0.7015 0.6621 0.6093 0.5922 0.6152
2150.810 0.5896 0.4986 0.4596 0.4695 0.4825 0.4906 0.4499 0.4502 0.48 0.4764
2170.100 0.4279 0.4177 0.4259 0.4419 0.4774 0.4603 0.4895 0.5219 0.5748 0.6111
2189.390 0.5898 0.5388 0.5042 0.5066 0.5247 0.6017 0.5509 0.4473 0.4079 0.4926
2208.680 0.5633 0.4544 0.4813 0.5306 0.5065 0.4589 0.4978 0.614 0.6457 0.6593
2227.970 0.658 0.7133 0.7589 0.7694 0.8852 0.9294 0.8895 0.8944 0.8936 0.893
2247.259 0.8848 0.9365 0.9452 0.9106 0.8518 0.8371 0.8703 0.8589 0.8942 0.916
2266.549 0.891 0.952 0.9909 0.9648 0.9734 0.964 0.9596 0.982 1.0015 0.9753
2285.839 0.9604 0.9101 0.8639 0.851 0.8126 0.7572 0.7663 0.7848 0.7339 0.7528
2305.129 0.7493 0.7668 0.8015 0.8287 0.8839 0.942 0.9754 0.9537 0.9691 0.9574
2324.418 0.9383 0.938 0.8775 0.8417 0.8909 0.9256 0.8804 0.8321 0.814 0.8095
2343.708 0.8321 0.804 0.7695 0.8256 0.8568 0.8782 0.8498 0.8048 0.8223 0.8346
2362.998 0.8446 0.805 0.8151 0.8183 0.8505 0.9121 0.9089 0.9464 0.9401 0.9763
2382.288 1.0518 1.0474 1.0308 1.0181 1.0372 1.0914 1.085 1.04 1.0454 1.0223
2401.578 0.9885 0.9766 1.0561 1.1573 1.1405 1.1824 1.262 1.362 1.442 1.352
2420.867 1.402 1.572 1.612 1.592 1.552 1.522 1.532 1.432 1.292 1.222
2440.157 1.1788 1.1717 1.0972 1.0132 0.9821 0.9209 0.9227 0.9744 0.9483 0.8796
2459.447 0.9148 0.9729 0.9403 0.9086 0.9444 0.9686 0.9581 0.9827 0.9961 0.9864
2478.737 1.0261 1.001 0.9172 0.9613 1.0207 0.9547 0.9571 0.9238 0.8358 0.7746
2498.026 0.7419 0.7824 0.7929 0.7543 0.7378 0.7244 0.7164 0.7376 0.7225 0.7011
2517.316 0.7674 0.8312 0.7521 0.6181 0.5815 0.6411 0.7262 0.8185 0.8545 0.9157
2536.606 1.0074 1.063 1.0998 1.0792 1.0531 1.0638 1.1233 1.1445 1.0368 1.0156
2555.896 1.0301 0.9725 0.9078 0.8853 0.8733 0.8616 0.8329 0.8551 0.897 0.8296
2575.186 0.9024 0.9227 0.806 0.8001 0.9258 1.091 1.1408 1.0612 1.0239 1.0743
2594.475 1.1376 1.1984 1.1882 1.152 1.0389 0.9661 0.9252 0.816 0.7731 0.7795
2613.765 0.8104 0.7976 0.7392 0.6488 0.6414 0.661 0.6995 0.6969 0.557 0.5872
2633.055 0.6437 0.6142 0.5853 0.5636 0.5365 0.4935 0.5291 0.6509 0.6783 0.6883
2652.345 0.7985 0.7439 0.6315 0.6467 0.6806 0.6589 0.6632 0.677 0.7205 0.7555
2671.634 0.6633 0.6334 0.7414 0.7902 0.6834 0.6201 0.7041 0.7113 0.6695 0.6669
2690.924 0.5657 0.5515 0.5838 0.5815 0.6369 0.6304 0.6719 0.7406 0.7616 0.7973
2710.214 0.8144 0.8015 0.8236 0.8948 1.0616 1.167 1.18 1.302 1.392 1.382
2729.504 1.342 1.422 1.442 1.332 1.292 1.332 1.242 1.1549 1.1731 1.0342
2748.794 0.9197 1.0336 0.9959 0.9194 0.9139 0.8742 0.8503 0.8172 0.8081 0.7624
2768.083 0.7003 0.745 0.8208 0.9306 1.007 0.8424 0.7436 0.807 0.7792 0.8359
2787.373 0.8656 0.8335 0.8607 0.8194 0.8429 0.8074 0.8691 0.9731 0.9603 1.0399
2806.663 1.1044 1.1837 1.262 1.282 1.1919 1.1705 1.322 1.362 1.422 1.532
2825.953 1.632 1.732 1.852 2.002 2.092 2.152 2.302 2.412 2.682 3.012
2845.242 3.072 3.252 3.632 3.822 3.952 4.272 4.532 4.732 4.912 5.082
2864.532 5.292 5.332 5.332 5.412 5.412 5.332 5.302 5.352 5.242 5.042
2883.822 5.042 5.002 4.922 4.982 5.042 5.042 5.222 5.232 5.262 5.312
2903.112 5.292 5.572 5.862 6.092 6.382 6.872 7.632 8.602 9.822 11.262
2922.401 12.982 15.252 17.622 19.792 21.492 22.322 22.522 22.012 20.672 18.812
2941.691 16.572 14.382 12.612 11.182 10.112 9.482 9.132 8.742 8.362 8.132
2960.981 7.782 7.262 6.852 6.542 6.142 5.762 5.542 5.192 4.742 4.482
2980.271 4.372 4.302 4.312 4.382 4.402 4.462 4.622 4.902 5.212 5.562
2999.561 5.962 6.362 6.892 7.422 7.802 8.332 9.032 9.772 10.432 10.952
3018.850 11.382 11.712 12.152 12.552 12.672 12.792 12.822 12.872 13.092 13.362
3038.140 13.842 14.612 15.732 17.112 18.982 21.472 23.912 26.182 28.472 30.582
3057.430 32.232 33.342 33.772 33.292 32.142 30.082 27.322 24.322 21.102 18.112
3076.720 15.372 13.182 11.302 9.522 8.142 7.082 6.362 5.902 5.562 5.212
3096.009 4.942 4.692 4.442 4.212 4.102 3.942 3.592 3.342 3.062 2.722
3115.299 2.392 2.032 1.802 1.682 1.602 1.512 1.332 1.2128 1.0335 1.0152
3134.589 1.1094 1.102 1.0318 0.9233 0.8994 0.9291 0.9375 1.0282 1.0377 0.9223
3153.879 0.9131 0.7983 0.7395 0.9095 1.0452 1.0591 1.1197 1.0892 1.0453 1.0372
3173.169 0.9345 0.9579 1.0792 1.1137 0.9906 0.9371 0.9133 0.7457 0.6879 0.7672
3192.458 0.7214 0.7108 0.7736 0.804 0.7876 0.6732 0.6224 0.6491 0.6707 0.7762
3211.748 0.744 0.6944 0.7407 0.7091 0.7001 0.7443 0.689 0.6705 0.7155 0.6515
3231.038 0.6077 0.5037 0.4982 0.6141 0.6602 0.7005 0.6153 0.5032 0.4792 0.4258
3250.328 0.4749 0.501 0.3789 0.3853 0.3367 0.1966 0.3581 0.4385 0.2811 0.1648
3269.617 0.226807 0.3641 0.31148 0.21658 0.3063 0.3368 0.23804 0.1679 0.3398 0.4236
3288.907 0.1513 0.1386 0.21264 0.1769 0.24921 0.29248 0.1822 0.121 0.24438 0.29661
3308.197 0.348 0.3937 0.29785 0.113 0.1268 0.1434 0.21468 0.2104 0.1262 0.30226
3327.487 0.3569 0.3713 0.4162 0.3344 0.3227 0.31376 0.3577 0.4662 0.22991 0.23889
3346.777 0.4094 0.4092 0.3879 0.24722 0.1749 0.2038 0.26304 0.30052 0.25488 0.26688
3366.066 0.3312 0.31725 0.3249 0.27814 0.1421 0.27111 0.4463 0.31592 0.26396 0.25677
3385.356 0.067 0.113 0.25447 0.2059 0.31276 0.4276 0.2822 0.28391 0.3339 0.28438
3404.646 0.1865 0.21564 0.2089 0.031 0.119 0.1964 0.1712 0.099 0.24638 0.3361
3423.936 0.3614 0.29472 0.230003 0.3797 0.4015 0.31473 0.1688 0.2023 0.1798 0.163
3443.225 0.1829 0.27106 0.3395 0.27372 0.26736 0.27691 0.27907 0.28039 0.25159 0.22042
3462.515 0.29106 0.3235 0.30964 0.353 0.3762 0.30112 0.28854 0.3748 0.25991 0.21307
3481.805 0.23618 0.1361 0.1472 0.26917 0.482 0.5326 0.4827 0.4099 0.4466 0.4355
3501.095 0.3229 0.27452 0.29677 0.3389 0.4182 0.4566 0.30797 0.30936 0.3593 0.4218
3520.385 0.4108 0.3563 0.26917 0.3284 0.3773 0.28551 0.3692 0.3239 0.231489 0.2119
3539.674 0.23661 0.3504 0.24384 0.074 0.1316 0.1977 0.24549 0.30912 0.26566 0.06
3558.964 0.031 0.231179 0.29633 0.28531 0.31241 0.32183 0.1748 0.1526 0.28152 0.223916
3578.254 0.24038 0.24206 0.1673 0.1717 0.1779 0.1438 0.224425 0.21854 0.1515 0.25592
3597.544 0.1458 0.046 0.1682 0.32002 0.2837 0.1954 0.1713 0.106 0.228445 0.28816
3616.833 0.226918 0.2026 0.25903 0.3682 0.1931 0.051 0.27297 0.4836 0.4532 0.3455
3636.123 0.396 0.3764 0.3308 0.3814 0.2377 0.159 0.3343 0.3369 0.3709 0.4324
3655.413 0.30104 0.24914 0.24685 0.28536 0.3783 0.4567 0.3747 0.23988 0.2046 0.098
3674.703 0.1777 0.3397 0.3817 0.3943 0.30808 0.3402 0.3379 0.2836 0.4058 0.543
3693.993 0.3811 0.3815 0.502 0.4718 0.4649 0.3547 0.3971 0.4069 0.28178 0.28662
3713.282 0.30371 0.30902 0.4689 0.4848 0.377 0.4679 0.4299 0.3582 0.3811 0.28997
3732.572 0.28422 0.412 0.28715 0.21414 0.28634 0.3511 0.3505 0.29889 0.361 0.3768
3751.862 0.2716 0.24748 0.3313 0.3573 0.3837 0.31031 0.29345 0.3286 0.4307 0.4203
3771.152 0.2198 0.3377 0.4601 0.4233 0.4186 0.412 0.3631 0.3361 0.4437 0.24819
3790.441 0 0.099 0.23775 0.27765 0.22346 0.23315 0.3613 0.4153 0.4265 0.338
3809.731 0.24201 0.2002 0.1735 0.26699 0.4154 0.4059 0.231893 0.2775 0.3385 0.27832
3829.021 0.222529 0.2097 0.24502 0.1871 0.30666 0.4085 0.4315 0.4473 0.24625 0.1955
3848.311 0.26261 0.305 0.3447 0.3293 0.29871 0.27515 0.28635 0.2001 0.1998 0.30699
3867.601 0.3619 0.30079 0.23348 0.222397 0.2054 0.25979 0.093 0.1407 0.4825 0.4224
3886.890 0.23644 0.23352 0.1705 0.1825 0.30015 0.30475 0.3307 0.3507 0.3918 0.4455
3906.180 0.3733 0.2068 0.1634 0.3469 0.3823 0.26874 0.25343 0.4039 0.4455 0.3378
3925.470 0.31919 0.3733 0.465 0.4954 0.4784 0.4138 0.4297 0.4065 0.29664 0.3414
3944.760 0.3602 0.4091 0.5088 0.619 0.5631 0.4023 0.4898 0.6276 0.6838 0.7366
3964.049 0.781 0.7952 0.7182 0.8625 1.0573 0.8831 0.7419 0.6808 0.685 0.7478
3983.339 0.7927 0.9359 0.9757 0.9646 1.0452 1.0823 1.1394 1.242 1.1218 1.0717
##END=
