##TITLE=trans-2-Methyl-2-butenal
##JCAMP-DX=4.24
##DATA TYPE=INFRARED SPECTRUM
##ORIGIN=NIST Mass Spectrometry Data Center
##OWNER=NIST Standard Reference Data Program
Collection (C) 2018 copyright by the U.S. Secretary of Commerce
on behalf of the United States of America. All rights reserved.
##CAS REGISTRY NO=497-03-0
##MOLFORM=C 5 H 8 O
##$NIST SOURCE=MSDC-IR
##SPECTROMETER/DATA SYSTEM=HP-GC/MS/IRD
##STATE=gas
##XUNITS=1/CM
##YUNITS=ABSORBANCE
##XFACTOR=1.0
##YFACTOR=0.000002800
##DELTAX=4.0
##FIRSTX=550.0
##LASTX=3846.0
##FIRSTY=0.000426
##MAXX=3846
##MINX=550
##MAXY=0.028
##MINY=0
##NPOINTS=825
##XYDATA=(X++(Y..Y))
550.0 152 83 34 28 25 12 5 0 7 33
590.0 5 30 59 34 76 127 157 215 296 326
630.0 299 286 298 309 277 214 158 122 103 81
670.0 53 46 47 48 63 51 32 41 48 64
710.0 71 67 67 66 78 94 101 112 118 112
750.0 104 115 138 173 190 206 276 397 523 671
790.0 831 948 1023 1052 1084 1116 1078 954 787 647
830.0 556 462 388 340 283 226 190 151 123 109
870.0 89 87 102 111 106 99 110 122 132 145
910.0 150 169 210 264 315 383 456 527 591 631
950.0 650 657 642 601 540 467 397 340 316 326
990.0 334 345 377 440 503 575 649 729 789 816
1030.0 839 858 868 864 868 852 808 770 734 679
1070.0 616 555 480 414 353 307 276 250 219 180
1110.0 156 147 134 105 94 100 98 96 81 91
1150.0 103 97 101 109 112 115 136 152 176 216
1190.0 264 341 469 658 887 1103 1236 1268 1259 1229
1230.0 1143 936 646 399 257 185 166 164 151 132
1270.0 125 125 126 127 121 113 115 126 141 153
1310.0 166 187 209 235 281 348 426 496 528 544
1350.0 566 603 640 629 623 647 694 750 824 936
1390.0 1048 1086 1033 958 897 850 768 628 511 443
1430.0 406 396 408 415 395 369 352 344 346 335
1470.0 310 297 289 278 273 267 257 254 256 250
1510.0 247 251 246 244 240 241 244 237 233 234
1550.0 227 208 196 202 214 216 223 252 282 303
1590.0 322 344 361 376 395 413 432 468 521 599
1630.0 706 835 988 1134 1241 1297 1311 1310 1291 1244
1670.0 1173 1174 1329 1728 2564 4103 6353 8603 9459 9510
1710.0 9905 10000 9863 7851 4473 2250 1286 902 712 601
1750.0 513 445 395 340 284 232 189 157 140 126
1790.0 126 133 133 140 144 150 163 176 190 199
1830.0 191 181 178 169 156 146 134 122 114 105
1870.0 90 76 72 66 57 46 39 37 40 43
1910.0 41 39 34 37 37 38 40 43 40 41
1950.0 46 41 39 43 44 40 45 52 50 46
1990.0 47 43 42 51 57 63 71 67 62 59
2030.0 55 55 49 38 29 24 21 19 20 12
2070.0 10 14 7 5 5 8 11 12 18 12
2110.0 10 18 19 18 16 14 13 14 16 17
2150.0 14 22 32 33 35 36 39 36 36 37
2190.0 25 15 7 1 5 4 3 7 8 2
2230.0 3 10 12 6 9 9 6 2 1 11
2270.0 15 14 16 16 14 21 19 11 15 16
2310.0 13 10 2 0 0 4 5 3 3 0
2350.0 1 5 0 1 5 2 1 9 16 17
2390.0 14 17 20 30 39 37 30 29 41 44
2430.0 46 48 45 47 50 46 41 39 38 32
2470.0 27 29 23 14 19 23 19 29 36 26
2510.0 17 18 20 26 29 23 18 15 18 23
2550.0 18 19 19 18 24 31 35 45 49 46
2590.0 49 53 50 49 53 51 51 59 61 57
2630.0 57 62 69 67 81 98 105 119 149 188
2670.0 243 326 431 564 740 944 1135 1248 1263 1278
2710.0 1346 1410 1368 1219 1054 932 851 788 729 688
2750.0 672 676 695 696 717 765 824 899 999 1122
2790.0 1234 1354 1455 1503 1504 1479 1446 1388 1278 1125
2830.0 972 833 712 625 570 543 529 531 552 569
2870.0 586 612 620 625 632 632 646 681 716 770
2910.0 855 975 1115 1219 1284 1329 1338 1317 1280 1222
2950.0 1128 1018 935 870 814 771 743 733 726 726
2990.0 723 730 750 792 818 822 818 816 818 801
3030.0 773 745 717 683 640 595 563 515 461 426
3070.0 378 330 309 274 241 219 187 157 146 145
3110.0 133 109 94 97 92 84 70 63 62 49
3150.0 44 40 38 37 28 32 40 40 45 44
3190.0 34 32 33 35 34 27 17 14 27 35
3230.0 26 30 36 27 29 30 25 26 26 32
3270.0 30 30 41 40 30 19 22 25 32 34
3310.0 32 40 35 39 46 44 26 23 42 32
3350.0 31 45 58 72 76 87 116 136 153 190
3390.0 215 222 227 223 204 177 145 116 89 74
3430.0 76 57 44 48 40 37 48 42 32 40
3470.0 36 22 13 19 26 23 27 41 44 33
3510.0 27 29 31 18 4 14 38 37 14 15
3550.0 12 9 21 23 25 32 33 28 26 20
3590.0 26 39 39 34 36 22 10 19 24 28
3630.0 32 34 25 15 14 1 1 21 16 9
3670.0 25 31 21 15 15 27 40 46 34 25
3710.0 24 23 30 27 24 16 9 21 39 33
3750.0 17 23 19 20 19 25 38 29 19 18
3790.0 18 23 11 0 6 11 15 25 31 41
3830.0 35 26 22 14 19
##END=
