##TITLE=p-Phenoxystyrene
##JCAMP-DX=4.24
##DATA TYPE=INFRARED SPECTRUM
##ORIGIN=EPA-IR VAPOR PHASE LIBRARY
##OWNER=SRD/NIST
Collection (C) 2018 copyright by the U.S. Secretary of Commerce
on behalf of the United States of America. All rights reserved.
##CAS REGISTRY NO=4973-29-9
##MOLFORM=C 14 H 12 O
##$NIST SOURCE=MSDC-IR
##STATE=gas
##XUNITS=1/CM
##YUNITS=ABSORBANCE
##XFACTOR=1.
##YFACTOR=0.001
##DELTAX=1.929
##FIRSTX=549.8
##LASTX=4000.8
##FIRSTY=1.926
##MAXX=4000.75
##MINX=549.766
##MAXY=0.229626
##MINY=0
##NPOINTS=1790
##XYDATA=(X++(Y..Y))
549.766 1.926 1.596 1.716 1.456 1.1119 1.1618 1.0819 0.8689 0.453625 0.3857
569.056 0.50902 0.7812 0.9678 0.8088 0.9025 0.8035 0.7596 0.9196 0.9757 0.9818
588.346 1.0123 0.9805 0.8693 0.7639 0.8456 0.8592 0.7725 0.8341 0.8485 0.8512
607.636 0.869 1.0025 1.0602 0.8924 0.8896 1.0758 1.0336 1.0595 1.1659 1.0745
626.926 1.085 1.23 1.3001 1.1785 1.0789 1.2904 1.486 1.466 1.496 1.656
646.216 1.626 1.626 1.936 1.966 1.806 1.776 1.836 1.916 2.036 2.136
665.506 2.166 2.456 2.906 3.286 3.866 4.656 5.426 6.446 7.596 8.856
684.796 10.236 11.246 11.866 12.176 12.056 11.576 10.816 9.776 8.586 7.556
704.086 6.806 6.096 5.556 5.126 4.876 4.716 4.556 4.576 4.616 4.686
723.376 4.776 4.986 5.326 5.716 6.096 6.556 7.116 7.696 8.296 8.846
742.666 9.386 9.966 10.536 11.006 11.386 11.736 12.026 12.226 12.296 12.196
761.956 12.016 11.796 11.356 10.716 10.116 9.356 8.496 7.736 6.936 6.266
781.246 5.706 5.246 4.896 4.566 4.316 4.196 4.006 3.916 3.886 3.696
800.536 3.676 3.836 3.936 3.976 4.136 4.306 4.516 4.876 5.206 5.616
819.826 6.096 6.516 7.086 7.896 8.926 10.076 11.246 12.576 14.046 15.536
839.116 16.846 17.906 18.686 18.946 18.746 18.286 17.546 16.716 16.056 15.946
858.406 16.796 18.856 22.436 27.056 31.026 32.796 32.416 30.356 26.626 21.506
877.696 16.406 12.596 10.216 8.946 8.366 8.166 8.266 8.656 9.246 10.056
896.986 10.966 11.906 12.826 13.596 14.066 14.356 14.196 13.596 12.746 11.616
916.276 10.356 8.956 7.676 6.636 5.676 4.896 4.316 3.936 3.696 3.406
935.566 3.186 3.146 3.226 3.176 3.126 3.146 3.086 3.076 3.116 3.116
954.856 3.136 3.196 3.186 3.256 3.406 3.636 3.836 4.066 4.436 4.906
974.146 5.316 5.696 6.196 6.596 6.956 7.196 7.136 7.056 6.906 6.606
993.436 6.236 5.746 5.326 5.056 4.936 5.126 5.746 6.696 7.476 7.766
1012.726 7.866 8.176 8.316 8.056 7.676 7.266 6.876 6.366 5.476 4.366
1032.016 3.496 2.896 2.506 2.296 2.076 1.806 1.706 1.736 1.736 1.806
1051.306 1.896 2.106 2.306 2.356 2.596 2.896 3.076 3.236 3.366 3.446
1070.596 3.426 3.216 3.036 2.886 2.666 2.466 2.186 1.986 1.966 2.026
1089.886 2.106 2.276 2.476 2.776 3.076 3.416 3.786 4.016 4.106 4.106
1109.176 4.026 3.886 3.656 3.336 3.156 2.916 2.606 2.486 2.356 2.236
1128.467 2.196 2.216 2.316 2.446 2.636 2.846 3.116 3.406 3.976 4.746
1147.757 5.496 6.416 7.566 9.016 11.026 13.806 17.376 21.306 24.006 24.716
1167.047 24.216 22.916 19.956 15.776 12.386 10.446 9.576 9.306 9.296 9.456
1186.337 9.836 10.356 10.866 11.286 11.816 12.516 13.086 13.666 14.406 15.066
1205.627 15.956 17.136 18.646 20.846 23.626 27.156 31.726 37.216 43.806 51.656
1224.917 60.986 72.556 86.766 104.276 125.716 150.686 177.496 202.636 221.446 229.626
1244.207 224.786 207.826 181.706 150.216 118.156 90.256 69.306 54.936 45.246 38.696
1263.497 34.096 30.796 28.346 26.356 24.686 23.206 21.826 20.546 19.426 18.316
1282.787 17.326 16.516 15.816 15.176 14.536 13.876 13.196 12.506 11.816 11.186
1302.077 10.586 9.956 9.536 9.276 9.046 8.936 8.796 8.606 8.406 8.236
1321.367 7.976 7.566 7.136 6.866 6.646 6.286 5.936 5.666 5.396 5.146
1340.657 4.856 4.556 4.286 4.016 3.746 3.526 3.346 3.196 3.086 2.976
1359.947 2.896 2.846 2.826 2.726 2.626 2.606 2.586 2.586 2.576 2.596
1379.237 2.676 2.796 2.936 3.026 3.166 3.386 3.586 3.796 4.056 4.306
1398.527 4.636 4.946 5.176 5.316 5.376 5.326 5.176 5.056 4.866 4.596
1417.817 4.456 4.356 4.276 4.256 4.136 4.036 3.986 3.906 3.866 3.856
1437.107 3.936 4.026 4.126 4.326 4.606 4.936 5.346 5.846 6.446 7.226
1456.397 8.156 9.076 10.006 11.056 12.076 13.206 14.526 16.046 18.066 21.026
1475.687 25.316 31.886 41.676 55.616 73.396 92.716 108.926 117.486 118.416 114.186
1494.977 105.176 92.886 83.346 79.776 79.616 78.306 73.766 66.436 56.246 43.426
1514.267 31.406 22.806 17.646 14.716 12.866 11.646 10.786 10.146 9.666 9.276
1533.557 8.876 8.506 8.246 7.936 7.586 7.246 6.976 6.806 6.806 6.906
1552.847 7.006 7.226 7.596 8.156 8.776 9.506 10.506 11.776 13.386 15.396
1572.137 17.856 20.816 24.586 29.006 33.816 39.116 44.516 49.466 53.316 55.416
1591.427 55.196 52.626 47.956 41.856 35.176 28.806 23.486 19.336 16.266 14.096
1610.717 12.596 11.546 10.826 10.366 10.116 10.156 10.466 10.996 11.546 11.876
1630.007 11.886 11.546 10.826 9.726 8.486 7.216 6.066 5.166 4.496 4.106
1649.297 3.846 3.596 3.276 3.016 2.946 2.826 2.636 2.566 2.476 2.306
1668.587 2.206 2.136 2.046 1.936 1.806 1.736 1.636 1.616 1.586 1.476
1687.877 1.4425 1.4279 1.4373 1.486 1.506 1.486 1.496 1.566 1.576 1.536
1707.167 1.596 1.636 1.636 1.666 1.686 1.686 1.716 1.716 1.646 1.616
1726.457 1.586 1.546 1.506 1.466 1.446 1.4223 1.4118 1.4012 1.3575 1.3265
1745.747 1.3445 1.3633 1.3851 1.476 1.566 1.646 1.756 1.886 2.006 2.126
1765.037 2.186 2.176 2.146 2.116 2.076 1.986 1.896 1.796 1.676 1.616
1784.327 1.596 1.496 1.3753 1.3409 1.3149 1.3471 1.3288 1.3138 1.3926 1.486
1803.617 1.626 1.786 1.946 2.186 2.496 2.766 2.916 3.046 3.086 3.056
1822.907 2.986 2.816 2.636 2.396 2.176 2.016 1.866 1.726 1.646 1.626
1842.197 1.586 1.516 1.496 1.526 1.496 1.496 1.506 1.546 1.626 1.636
1861.487 1.666 1.756 1.836 1.956 2.116 2.206 2.276 2.396 2.476 2.526
1880.777 2.546 2.556 2.586 2.556 2.466 2.356 2.226 2.036 1.866 1.736
1900.067 1.616 1.506 1.4419 1.4083 1.4015 1.4188 1.4427 1.476 1.536 1.586
1919.357 1.646 1.746 1.826 1.896 1.956 1.966 2.006 2.076 2.126 2.206
1938.647 2.296 2.376 2.436 2.526 2.556 2.506 2.476 2.426 2.376 2.306
1957.937 2.186 2.076 1.936 1.776 1.696 1.596 1.486 1.4023 1.3053 1.2476
1977.227 1.1978 1.1327 1.0867 1.0771 1.1034 1.0793 1.0563 1.0189 0.9624 0.9545
1996.517 0.9372 0.9024 0.9319 0.9705 0.9461 0.9909 1.0449 1.057 1.1146 1.2115
2015.807 1.3223 1.4204 1.476 1.626 1.766 1.886 2.006 2.096 2.126 2.176
2035.097 2.236 2.226 2.186 2.106 2.016 1.886 1.816 1.776 1.676 1.576
2054.387 1.526 1.536 1.536 1.566 1.596 1.616 1.656 1.676 1.616 1.536
2073.677 1.506 1.4286 1.3091 1.2374 1.1747 1.107 1.068 1.0172 0.9817 0.9629
2092.967 0.9191 0.9218 0.9367 0.8609 0.7934 0.7676 0.7243 0.6896 0.6961 0.6638
2112.257 0.6179 0.5812 0.564 0.54542 0.5099 0.51822 0.52041 0.5238 0.51285 0.49371
2131.547 0.47782 0.4037 0.43889 0.50182 0.45883 0.4261 0.46597 0.49392 0.44189 0.3669
2150.837 0.332 0.3879 0.3868 0.3929 0.3926 0.4014 0.4273 0.451274 0.53656 0.54366
2170.127 0.49398 0.47055 0.43946 0.4007 0.3738 0.3766 0.4253 0.4402 0.4221 0.3947
2189.417 0.4293 0.52437 0.5571 0.5569 0.5672 0.51651 0.50172 0.51955 0.53171 0.50712
2208.707 0.46186 0.4831 0.50408 0.49829 0.5158 0.47988 0.4108 0.4272 0.453863 0.4283
2227.997 0.4304 0.4217 0.402 0.3854 0.3729 0.4049 0.3601 0.313 0.331 0.3
2247.287 0.274 0.34 0.4228 0.3921 0.3501 0.3774 0.3933 0.455091 0.50448 0.49622
2266.577 0.47659 0.49792 0.5809 0.6199 0.6167 0.5762 0.52418 0.54218 0.6571 0.6888
2285.868 0.6376 0.6585 0.6536 0.6435 0.6456 0.6252 0.6323 0.7121 0.7157 0.677
2305.158 0.709 0.763 0.8079 0.8303 0.8247 0.7724 0.7875 0.7969 0.7795 0.8374
2324.448 0.8843 0.8619 0.8638 0.8461 0.7852 0.7877 0.8126 0.7481 0.7436 0.7772
2343.738 0.7012 0.639 0.6222 0.7124 0.7442 0.7313 0.7509 0.7011 0.6874 0.7996
2363.028 0.8638 0.8097 0.7779 0.806 0.8789 0.9224 0.9204 0.9197 1.0151 1.0957
2382.318 1.1074 1.1572 1.2264 1.3227 1.4012 1.4419 1.586 1.756 1.816 1.826
2401.608 1.856 1.946 1.966 1.906 1.836 1.726 1.646 1.556 1.496 1.516
2420.898 1.596 1.626 1.676 1.726 1.816 1.916 1.986 2.066 2.086 2.116
2440.188 2.146 2.086 1.986 1.896 1.766 1.576 1.456 1.3771 1.2774 1.2347
2459.478 1.2222 1.2053 1.1982 1.1894 1.1368 1.0839 1.0656 1.0601 1.0034 0.9891
2478.768 0.9743 0.9061 0.8929 0.8422 0.8138 0.7699 0.7025 0.7111 0.7394 0.7178
2498.058 0.7191 0.7189 0.6599 0.6604 0.7185 0.7506 0.7164 0.6792 0.6621 0.6981
2517.348 0.7189 0.7415 0.7134 0.626 0.6314 0.6271 0.6081 0.6891 0.7574 0.7225
2536.638 0.7099 0.7126 0.7133 0.7109 0.7609 0.8218 0.7781 0.7142 0.735 0.8046
2555.928 0.841 0.8317 0.7888 0.8159 0.8444 0.7973 0.7699 0.7509 0.7512 0.7069
2575.218 0.6336 0.5707 0.49531 0.50694 0.46403 0.388 0.342 0.339 0.3665 0.3698
2594.508 0.3814 0.3895 0.3692 0.319 0.338 0.3824 0.3509 0.3505 0.3655 0.338
2613.798 0.3505 0.3957 0.364 0.3714 0.44333 0.3755 0.3 0.293 0.316 0.3803
2633.088 0.332 0.239 0.272 0.3 0.302 0.29 0.323 0.3525 0.288 0.248
2652.378 0.253 0.269 0.276 0.286 0.309 0.309 0.264 0.249 0.27 0.242
2671.668 0.228 0.301 0.4092 0.3873 0.268 0.285 0.3543 0.3971 0.4171 0.3956
2690.958 0.4133 0.4324 0.4022 0.3727 0.4016 0.4281 0.44787 0.47234 0.3624 0.291
2710.248 0.31 0.322 0.34 0.3772 0.3916 0.315 0.264 0.266 0.321 0.3847
2729.538 0.4096 0.4345 0.4186 0.4077 0.44491 0.449583 0.45701 0.445844 0.3958 0.453073
2748.828 0.53016 0.51838 0.51583 0.44049 0.325 0.325 0.3628 0.4125 0.33 0.259
2768.118 0.312 0.288 0.286 0.329 0.317 0.265 0.254 0.329 0.3973 0.353
2787.408 0.315 0.313 0.243 0.217 0.228 0.241 0.257 0.27 0.297 0.281
2806.698 0.245 0.322 0.3668 0.3929 0.3945 0.313 0.339 0.4002 0.3655 0.3601
2825.988 0.3625 0.268 0.3711 0.50241 0.445265 0.3696 0.364 0.4356 0.48706 0.5131
2845.278 0.48499 0.4328 0.343 0.294 0.4297 0.52746 0.5498 0.51819 0.46429 0.449671
2864.568 0.43 0.43933 0.3999 0.3955 0.4344 0.47189 0.47482 0.49683 0.49769 0.4346
2883.858 0.46396 0.4291 0.412 0.4345 0.47383 0.50822 0.47647 0.52304 0.44065 0.332
2903.148 0.44075 0.53032 0.49392 0.447648 0.53151 0.6174 0.53838 0.379 0.3706 0.53061
2922.438 0.51421 0.4141 0.51346 0.49806 0.48466 0.5774 0.5998 0.6442 0.6338 0.5559
2941.728 0.6149 0.6074 0.5938 0.7138 0.6904 0.6137 0.6396 0.6905 0.7933 0.8735
2961.018 0.8405 0.9148 1.0322 1.1463 1.2897 1.3759 1.546 1.846 2.036 2.176
2980.308 2.336 2.516 2.796 2.976 3.076 3.196 3.286 3.336 3.436 3.526
2999.598 3.726 4.126 4.646 5.426 6.446 7.686 8.936 9.816 10.246 10.306
3018.888 10.056 9.486 8.806 8.456 8.636 9.236 10.146 11.166 12.266 13.346
3038.178 14.216 14.926 15.286 15.266 14.886 14.156 13.386 12.646 11.726 10.916
3057.468 10.536 10.236 10.176 10.336 10.486 10.926 11.616 12.356 13.126 14.026
3076.758 14.806 15.256 15.306 15.086 14.886 14.746 14.886 15.456 16.036 16.016
3096.048 15.446 14.616 13.236 11.256 9.066 7.236 5.946 5.016 4.426 3.706
3115.338 3.096 2.746 2.286 1.926 1.616 1.346 1.2685 1.2787 1.1993 1.0067
3134.628 0.8704 0.8229 0.7716 0.5909 0.452111 0.5578 0.5884 0.48422 0.47507 0.50575
3153.918 0.52597 0.49145 0.46352 0.4182 0.371 0.3599 0.334 0.4279 0.48532 0.451575
3173.208 0.3801 0.345 0.319 0.324 0.4153 0.3864 0.294 0.3754 0.47728 0.318
3192.498 0.257 0.243 0.183 0.29 0.3907 0.3544 0.243 0.204 0.279 0.304
3211.788 0.295 0.3676 0.3488 0.201 0.054 0.068 0.207 0.244 0.192 0.172
3231.078 0.139 0.124 0.28 0.275 0.326 0.46741 0.305 0.245 0.28 0.162
3250.368 0.151 0.263 0.286 0.185 0.106 0.031 0.03 0.162 0.176 0.162
3269.658 0.228 0.288 0.331 0.329 0.341 0.329 0.182 0.015 0.052 0.148
3288.948 0.167 0.271 0.308 0.166 0.114 0.208 0.299 0.178 0 0.084
3308.238 0.17 0.18 0.202 0.248 0.228 0.132 0.166 0.151 0.11 0.222
3327.528 0.186 0.17 0.149 0.125 0.134 0.206 0.262 0.112 0.099 0.211
3346.818 0.269 0.223 0.182 0.175 0.165 0.065 0.048 0.182 0.228 0.221
3366.108 0.114 0.197 0.291 0.263 0.3777 0.4119 0.287 0.11 0.127 0.242
3385.398 0.211 0.179 0.155 0.225 0.247 0.143 0.106 0.1 0.101 0.026
3404.688 0.119 0.27 0.207 0.25 0.29 0.214 0.184 0.12 0.016 0.182
3423.978 0.421 0.277 0.3 0.4301 0.34 0.293 0.277 0.254 0.189 0.145
3443.269 0.166 0.258 0.249 0.226 0.296 0.284 0.262 0.276 0.25 0.188
3462.559 0.197 0.217 0.248 0.3642 0.286 0.199 0.281 0.345 0.3893 0.341
3481.849 0.324 0.265 0.296 0.3772 0.338 0.307 0.285 0.288 0.273 0.288
3501.139 0.334 0.303 0.287 0.279 0.214 0.174 0.23 0.291 0.303 0.327
3520.429 0.29 0.253 0.203 0.193 0.265 0.287 0.297 0.241 0.128 0.141
3539.719 0.302 0.3557 0.228 0.178 0.291 0.3963 0.4326 0.47924 0.47394 0.4251
3559.009 0.3485 0.3507 0.3496 0.3652 0.48348 0.48348 0.417 0.304 0.231 0.229
3578.299 0.216 0.164 0.223 0.3604 0.292 0.172 0.287 0.4176 0.306 0.176
3597.589 0.221 0.281 0.239 0.331 0.47955 0.4712 0.409 0.331 0.3953 0.50327
3616.879 0.48321 0.4178 0.265 0.279 0.276 0.308 0.338 0.252 0.264 0.287
3636.169 0.332 0.367 0.3 0.278 0.279 0.201 0.166 0.267 0.34 0.429
3655.459 0.4292 0.343 0.4702 0.454391 0.4319 0.47174 0.451522 0.4257 0.45985 0.47684
3674.749 0.46378 0.46248 0.447097 0.341 0.226 0.278 0.3672 0.3749 0.255 0.3
3694.039 0.3841 0.341 0.297 0.284 0.259 0.209 0.218 0.325 0.50803 0.49
3713.329 0.303 0.329 0.4314 0.447327 0.50897 0.43646 0.301 0.233 0.277 0.3629
3732.619 0.3674 0.3643 0.286 0.332 0.445246 0.49663 0.4329 0.3683 0.454282 0.3873
3751.909 0.3872 0.51354 0.45132 0.305 0.3561 0.455708 0.3886 0.301 0.242 0.239
3771.199 0.3625 0.336 0.278 0.4102 0.393 0.31 0.32 0.3487 0.3964 0.407
3790.489 0.3905 0.4296 0.43748 0.319 0.301 0.4166 0.44094 0.47608 0.5674 0.4219
3809.779 0.224 0.323 0.3673 0.3613 0.3803 0.43798 0.4221 0.3995 0.48815 0.45611
3829.069 0.44273 0.326 0.322 0.4005 0.311 0.238 0.228 0.22 0.169 0.182
3848.359 0.192 0.243 0.3802 0.313 0.3707 0.51011 0.48476 0.47546 0.4884 0.4261
3867.649 0.48914 0.6903 0.6853 0.5761 0.46045 0.3679 0.4211 0.4226 0.281 0.333
3886.939 0.52056 0.47276 0.4299 0.46785 0.48779 0.46723 0.4251 0.3766 0.429 0.5582
3906.229 0.5112 0.44404 0.3863 0.286 0.215 0.28 0.3894 0.447981 0.3771 0.435
3925.519 0.50274 0.43815 0.4069 0.3622 0.302 0.319 0.451938 0.4095 0.37 0.51205
3944.809 0.52854 0.455488 0.46013 0.3628 0.249 0.34 0.4149 0.3857 0.321 0.338
3964.099 0.4231 0.338 0.329 0.447824 0.47669 0.3622 0.343 0.3926 0.3845 0.48924
3983.389 0.47848 0.331 0.3552 0.394 0.212 0.196 0.3804 0.4329 0.332 0.315
##END=
