##TITLE=2,6-Octadiene
##JCAMP-DX=4.24
##DATA TYPE=INFRARED SPECTRUM
##ORIGIN=NIST Mass Spectrometry Data Center
##OWNER=NIST Standard Reference Data Program
Collection (C) 2018 copyright by the U.S. Secretary of Commerce
on behalf of the United States of America. All rights reserved.
##CAS REGISTRY NO=4974-27-0
##MOLFORM=C 8 H 14
##$NIST SOURCE=MSDC-IR
##SPECTROMETER/DATA SYSTEM=HP-GC/MS/IRD
##STATE=gas
##XUNITS=1/CM
##YUNITS=ABSORBANCE
##XFACTOR=1.0
##YFACTOR=0.000002300
##DELTAX=4.0
##FIRSTX=550.0
##LASTX=3846.0
##FIRSTY=0.000968
##MAXX=3846
##MINX=550
##MAXY=0.023
##MINY=0
##NPOINTS=825
##XYDATA=(X++(Y..Y))
550.0 421 283 141 145 122 148 174 167 141 105
590.0 114 128 153 128 93 63 44 77 86 53
630.0 66 133 133 86 71 39 31 84 107 102
670.0 109 108 100 70 43 59 59 40 42 44
710.0 31 27 47 64 76 52 54 81 54 48
750.0 57 34 34 46 47 59 64 63 59 56
790.0 54 27 43 74 96 102 80 84 145 147
830.0 95 112 136 146 172 165 150 158 175 204
870.0 210 219 280 334 368 409 449 488 533 611
910.0 681 791 933 1088 1280 1508 1752 2030 2382 2800
950.0 3309 3854 4277 4481 4417 4092 3594 3060 2592 2204
990.0 1870 1566 1317 1121 958 854 787 732 714 719
1030.0 724 742 769 792 823 831 789 728 652 583
1070.0 505 425 386 344 293 289 277 242 224 222
1110.0 208 173 172 178 142 131 139 122 124 107
1150.0 109 134 140 133 135 151 159 183 192 199
1190.0 213 193 186 201 219 253 289 298 297 296
1230.0 286 307 333 337 318 300 295 296 287 282
1270.0 291 315 349 389 420 438 460 483 506 512
1310.0 492 482 483 469 459 467 488 522 545 536
1350.0 506 471 462 475 493 532 587 642 670 685
1390.0 677 640 601 587 594 609 642 702 794 935
1430.0 1101 1273 1446 1556 1589 1558 1482 1349 1214 1077
1470.0 936 813 703 627 555 493 452 415 393 363
1510.0 330 312 304 291 272 250 237 230 221 196
1550.0 172 172 179 165 151 155 153 150 148 128
1590.0 129 132 129 137 138 118 115 128 115 108
1630.0 110 105 114 134 141 146 154 155 176 195
1670.0 205 213 207 210 212 203 219 251 260 256
1710.0 264 272 266 257 252 241 232 216 196 186
1750.0 171 167 165 158 154 160 157 141 146 140
1790.0 132 132 132 135 121 98 102 104 98 88
1830.0 91 89 81 86 78 72 79 78 69 67
1870.0 67 54 43 51 59 55 58 62 61 50
1910.0 48 45 44 56 55 46 54 63 72 74
1950.0 65 71 75 64 59 57 57 64 72 81
1990.0 91 93 95 101 97 89 70 57 54 47
2030.0 50 50 49 40 35 44 40 28 32 47
2070.0 61 49 32 31 32 25 30 37 34 31
2110.0 31 34 30 27 24 30 40 45 34 28
2150.0 35 33 34 32 28 33 32 29 27 36
2190.0 47 48 37 25 29 37 36 28 25 21
2230.0 15 22 28 40 39 34 38 32 23 19
2270.0 26 31 27 28 29 23 29 36 36 30
2310.0 32 41 34 36 47 36 33 45 48 42
2350.0 47 58 55 63 69 66 63 60 57 65
2390.0 64 50 48 44 32 39 50 45 40 40
2430.0 42 46 43 53 55 39 38 54 59 52
2470.0 41 33 31 37 38 34 30 29 26 29
2510.0 32 30 45 40 30 39 37 30 28 33
2550.0 32 35 45 33 24 27 24 28 33 38
2590.0 35 24 31 32 25 25 43 49 32 32
2630.0 48 57 54 68 54 44 61 58 67 72
2670.0 64 73 85 92 97 91 86 80 75 86
2710.0 104 105 116 136 157 198 244 298 327 324
2750.0 297 252 220 218 226 223 221 232 256 271
2790.0 277 299 333 355 386 420 447 520 630 756
2830.0 928 1158 1464 1810 2182 2593 2969 3362 3781 4056
2870.0 4125 4071 3908 3708 3656 3812 4099 4502 5001 5584
2910.0 6267 7086 8086 9140 9852 10000 9707 8911 7775 6806
2950.0 6105 5546 5130 4842 4622 4427 4253 4057 3848 3679
2990.0 3546 3467 3430 3419 3442 3487 3503 3502 3466 3342
3030.0 3144 2870 2551 2233 1936 1678 1463 1288 1135 1010
3070.0 902 812 747 689 647 608 564 503 465 439
3110.0 400 372 345 332 323 298 270 234 215 209
3150.0 201 185 137 108 123 113 96 92 86 82
3190.0 88 83 70 69 67 69 69 59 52 65
3230.0 59 39 33 35 47 54 53 47 42 44
3270.0 30 21 23 30 38 43 34 17 28 35
3310.0 29 21 11 14 16 25 20 3 0 17
3350.0 31 36 37 42 43 39 40 31 30 42
3390.0 45 52 53 53 52 51 49 58 62 55
3430.0 56 65 59 50 37 37 61 68 51 37
3470.0 59 52 53 78 66 54 53 48 65 62
3510.0 56 46 44 81 89 68 68 62 57 71
3550.0 75 79 76 81 73 61 47 26 29 49
3590.0 56 64 72 71 62 60 79 62 66 83
3630.0 77 74 73 81 79 87 78 60 70 77
3670.0 92 94 80 69 76 78 57 64 72 73
3710.0 80 83 88 91 83 72 65 67 77 75
3750.0 86 96 70 70 77 62 69 76 64 76
3790.0 91 101 100 89 82 85 73 47 54 76
3830.0 78 68 75 78 73
##END=
