##TITLE=1,4-Dimethylenecyclohexane
##JCAMP-DX=4.24
##DATA TYPE=INFRARED SPECTRUM
##ORIGIN=NIST Mass Spectrometry Data Center
##OWNER=NIST Standard Reference Data Program
Collection (C) 2018 copyright by the U.S. Secretary of Commerce
on behalf of the United States of America. All rights reserved.
##CAS REGISTRY NO=4982-20-1
##MOLFORM=C 8 H 12
##$NIST SOURCE=MSDC-IR
##SPECTROMETER/DATA SYSTEM=HP-GC/MS/IRD
##STATE=gas
##XUNITS=1/CM
##YUNITS=ABSORBANCE
##XFACTOR=1.0
##YFACTOR=0.000000600
##DELTAX=4.0
##FIRSTX=550.0
##LASTX=3846.0
##FIRSTY=0.000383
##MAXX=3846
##MINX=550
##MAXY=0.006
##MINY=0
##NPOINTS=825
##XYDATA=(X++(Y..Y))
550.0 638 307 46 94 40 69 105 122 271 302
590.0 260 240 287 365 415 401 372 382 487 474
630.0 378 371 382 484 459 341 377 476 461 494
670.0 600 787 993 1177 1296 1698 2076 1695 1390 1238
710.0 994 789 628 530 425 484 539 533 569 557
750.0 537 519 529 521 554 697 797 858 886 864
790.0 934 1027 874 740 695 628 627 487 377 450
830.0 553 638 620 600 659 718 788 920 1153 1504
870.0 1986 2549 3219 4027 4792 5805 6712 6134 5044 4281
910.0 3507 2718 1987 1462 1066 855 777 688 625 623
950.0 625 596 581 645 729 779 826 852 834 812
990.0 783 728 651 591 577 525 504 508 490 512
1030.0 496 479 484 501 486 442 446 501 513 476
1070.0 486 473 446 443 448 486 473 385 404 468
1110.0 431 416 476 556 561 519 521 588 666 703
1150.0 743 817 855 855 831 806 798 796 775 750
1190.0 731 667 569 508 512 514 460 411 427 440
1230.0 469 463 413 372 359 358 310 329 393 387
1270.0 376 387 427 461 479 518 540 604 726 887
1310.0 1005 1048 1015 943 921 791 613 534 503 467
1350.0 444 454 487 504 488 498 526 580 650 719
1390.0 802 883 938 960 956 964 1032 1139 1277 1442
1430.0 1700 2019 2216 2356 2452 2389 2221 1929 1575 1298
1470.0 1055 792 607 513 457 411 385 375 392 407
1510.0 394 400 418 434 401 372 378 371 351 341
1550.0 343 354 354 364 396 410 402 397 439 477
1590.0 463 455 466 501 516 536 575 646 776 1006
1630.0 1305 1727 2240 2659 2977 3094 3000 2715 2236 1729
1670.0 1206 807 625 540 468 431 429 410 372 375
1710.0 362 321 294 283 278 278 280 298 285 283
1750.0 292 284 315 342 350 413 498 546 612 720
1790.0 776 756 701 649 574 466 376 307 270 249
1830.0 234 230 218 209 208 191 209 220 207 202
1870.0 203 207 194 173 179 192 184 158 147 185
1910.0 183 167 177 181 170 152 146 157 154 132
1950.0 140 165 176 160 137 131 136 142 156 165
1990.0 148 140 156 131 136 149 132 125 146 150
2030.0 139 135 138 159 130 126 154 148 124 102
2070.0 125 138 82 82 114 134 151 147 129 111
2110.0 113 135 136 118 124 132 122 119 134 103
2150.0 92 129 117 101 92 69 91 103 81 95
2190.0 110 103 89 93 99 95 105 120 120 117
2230.0 127 102 92 87 58 51 59 67 75 87
2270.0 93 94 72 83 91 74 73 51 27 51
2310.0 62 59 70 90 89 83 66 48 36 19
2350.0 40 62 55 72 76 34 24 25 28 57
2390.0 73 69 44 65 96 100 96 89 87 84
2430.0 83 79 83 82 49 64 83 54 54 31
2470.0 34 47 55 77 62 42 44 38 59 70
2510.0 65 61 18 0 21 45 61 50 15 6
2550.0 20 22 20 22 34 28 17 38 55 73
2590.0 70 43 52 59 56 70 49 51 66 70
2630.0 72 71 86 107 102 94 97 103 88 66
2670.0 49 38 61 71 30 44 58 52 77 101
2710.0 89 91 118 119 102 85 96 121 152 165
2750.0 185 185 153 176 174 190 215 192 202 204
2790.0 195 203 209 229 257 283 330 407 552 750
2830.0 1032 1422 1805 2162 2519 2844 2949 2810 2534 2258
2870.0 2023 1838 1761 1813 1976 2250 2571 2878 3234 3553
2910.0 3929 4323 4585 4894 5504 6551 8048 9441 10000 9701
2950.0 9369 8893 7348 5275 3686 2785 2431 2437 2596 2637
2990.0 2637 2488 2198 1803 1238 820 612 517 501 520
3030.0 526 529 553 581 659 810 1009 1292 1691 2155
3070.0 2659 2786 2513 2566 2566 2060 1488 1004 669 450
3110.0 325 294 260 200 154 138 141 126 104 101
3150.0 71 42 35 26 54 64 63 74 90 88
3190.0 56 45 48 72 91 113 87 60 52 68
3230.0 79 84 92 97 118 89 95 117 126 134
3270.0 133 157 157 116 104 131 166 193 191 189
3310.0 180 165 145 131 155 189 185 176 173 195
3350.0 164 114 138 137 111 106 123 124 112 146
3390.0 160 167 173 134 134 133 133 178 175 131
3430.0 98 117 124 130 147 135 164 178 171 211
3470.0 215 173 145 140 133 130 151 150 156 143
3510.0 146 191 145 96 125 166 157 151 141 129
3550.0 130 141 171 179 191 180 154 153 156 205
3590.0 204 189 196 157 177 205 181 139 114 134
3630.0 184 256 211 154 200 213 183 183 151 131
3670.0 171 208 169 129 166 181 177 172 169 181
3710.0 168 165 170 165 159 153 180 152 192 183
3750.0 184 248 264 224 175 149 132 111 143 192
3790.0 194 183 159 194 205 188 207 191 230 277
3830.0 270 248 245 223 123
##END=
