##TITLE=3-Fluorobenzhydrazide
##JCAMP-DX=4.24
##DATA TYPE=INFRARED SPECTRUM
##ORIGIN=EPA-IR VAPOR PHASE LIBRARY
##OWNER=SRD/NIST
Collection (C) 2018 copyright by the U.S. Secretary of Commerce
on behalf of the United States of America. All rights reserved.
##CAS REGISTRY NO=499-55-8
##MOLFORM=C 7 H 7 F N 2 O
##$NIST SOURCE=MSDC-IR
##STATE=gas
##XUNITS=1/CM
##YUNITS=ABSORBANCE
##XFACTOR=1.
##YFACTOR=0.001
##DELTAX=1.92898
##FIRSTX=549.8
##LASTX=4000.7
##FIRSTY=2.073
##MAXX=4000.7
##MINX=549.759
##MAXY=0.021173
##MINY=0
##NPOINTS=1790
##XYDATA=(X++(Y..Y))
549.759 2.073 1.963 2.013 1.823 1.653 1.833 2.063 2.113 1.983 1.863
569.049 1.543 1.543 1.873 2.123 1.873 1.483 1.573 1.653 1.583 1.413
588.339 1.563 1.643 1.493 1.383 1.1668 1.0997 1.2765 1.493 1.383 1.2903
607.628 1.363 1.413 1.3229 1.2877 1.483 1.623 1.623 1.3367 1.2623 1.393
626.918 1.2692 1.2649 1.2951 1.2178 1.443 1.463 1.3302 1.2824 1.1575 1.3183
646.208 1.343 1.3329 1.563 1.643 1.623 1.423 1.593 1.803 1.873 2.133
665.498 2.353 2.503 2.593 2.763 2.903 3.043 3.313 3.483 3.153 3.083
684.787 3.193 2.893 2.663 2.603 2.503 2.313 2.133 2.013 2.013 1.893
704.077 1.623 1.613 1.773 1.853 1.883 1.843 1.723 1.643 1.723 2.053
723.367 2.253 2.323 2.413 2.613 2.823 2.913 3.183 3.483 3.863 4.123
742.657 4.473 4.803 5.033 5.203 5.253 5.063 4.703 4.573 4.283 3.863
761.947 3.603 3.453 3.293 3.063 2.923 2.853 2.713 2.683 2.913 3.013
781.236 2.913 3.013 3.193 3.393 3.793 3.873 3.813 3.983 3.953 3.743
800.526 3.633 3.553 3.453 3.423 3.403 3.523 3.783 4.143 4.433 4.813
819.816 5.273 5.733 5.823 5.753 5.663 5.443 5.253 4.843 4.503 4.113
839.106 3.863 3.753 3.653 3.443 3.423 3.613 3.533 3.753 3.903 3.843
858.395 3.903 4.063 4.393 4.623 4.793 5.063 5.353 5.463 5.573 5.773
877.685 5.823 6.023 6.263 6.433 6.603 6.773 6.923 7.013 7.103 7.293
896.975 7.543 7.453 7.233 7.183 6.933 6.703 6.603 6.383 6.063 5.663
916.265 5.423 5.143 4.783 4.653 4.343 3.873 3.593 3.503 3.443 3.173
935.555 3.123 3.263 3.123 3.093 3.313 3.473 3.723 4.013 4.223 4.533
954.844 4.653 4.573 4.553 4.463 4.323 4.223 4.123 3.953 3.583 3.163
974.134 2.843 2.633 2.303 2.033 1.953 1.763 1.573 1.413 1.3011 1.3019
993.424 1.453 1.493 1.3244 1.573 1.713 1.383 1.211 1.3057 1.473 1.493
1012.714 1.403 1.1722 0.871 0.8427 0.8688 0.9432 0.8887 0.6672 0.9326 1.2798
1032.003 1.3207 1.1181 0.8739 0.8443 0.9342 1.0224 1.0781 1.124 1.0983 0.977
1051.293 1.1104 1.0847 1.0778 1.453 1.3366 1.119 1.2411 1.1692 1.0468 1.2542
1070.583 1.403 1.623 1.823 1.733 1.793 1.633 1.2859 1.363 1.433 1.293
1089.873 1.353 1.218 0.9279 1.1268 1.373 1.513 1.3367 1.2028 1.493 1.613
1109.163 1.383 0.9244 0.9458 1.2889 1.0369 0.9897 1.0977 1.1785 1.593 1.693
1128.452 1.563 1.563 1.973 2.273 2.333 2.263 2.113 2.013 2.013 2.253
1147.742 2.233 2.173 2.343 2.123 1.743 1.723 1.803 1.623 1.403 1.0529
1167.032 0.994 1.1087 1.1802 1.2769 1.1207 1.1076 1.493 1.563 1.3031 1.1277
1186.322 1.0629 1.2699 1.373 1.353 1.543 1.793 1.763 1.823 1.853 2.203
1205.611 2.413 2.423 3.273 3.853 3.913 4.843 5.563 5.753 6.103 6.293
1224.901 6.453 6.653 6.543 6.613 6.703 6.203 5.683 5.393 5.083 4.693
1244.191 4.533 4.213 3.863 4.043 4.403 4.603 4.793 5.053 5.413 6.073
1263.481 7.143 8.183 9.333 10.623 11.823 13.263 14.623 15.713 16.703 16.993
1282.771 16.803 16.873 16.653 16.173 15.503 14.553 13.443 12.263 11.183 10.143
1302.060 9.243 8.493 7.793 7.203 6.603 5.963 5.373 4.823 4.253 3.723
1321.350 3.313 2.983 2.703 2.453 2.343 2.263 2.183 2.063 1.923 1.933
1340.640 1.903 1.843 1.823 1.793 1.753 1.763 1.763 1.703 1.723 1.753
1359.930 1.703 1.653 1.633 1.603 1.543 1.513 1.503 1.483 1.443 1.423
1379.219 1.443 1.443 1.453 1.513 1.603 1.693 1.743 1.783 1.843 1.953
1398.509 2.083 2.293 2.513 2.653 2.873 3.203 3.553 3.873 4.223 4.713
1417.799 5.233 5.753 6.333 6.993 7.653 8.383 9.173 9.983 10.823 11.633
1437.089 12.473 13.353 14.263 15.093 15.913 16.643 17.103 17.563 17.943 18.063
1456.378 17.993 17.793 17.363 16.753 16.023 15.243 14.533 13.883 13.363 12.933
1475.668 12.613 12.243 11.843 11.503 11.173 10.843 10.483 10.093 9.713 9.303
1494.958 8.873 8.493 8.063 7.643 7.263 6.743 6.203 5.653 5.113 4.653
1514.248 4.223 3.903 3.653 3.373 3.183 3.013 2.773 2.663 2.593 2.503
1533.538 2.343 2.213 2.233 2.243 2.243 2.223 2.223 2.243 2.273 2.323
1552.827 2.423 2.523 2.653 2.753 2.933 3.213 3.553 3.963 4.403 4.963
1572.117 5.633 6.453 7.373 8.293 9.183 9.993 10.693 11.183 11.473 11.533
1591.407 11.413 11.073 10.623 10.023 9.263 8.453 7.723 7.253 6.963 6.663
1610.697 6.453 6.383 6.193 6.023 5.953 5.913 5.853 5.813 5.923 6.053
1629.986 6.213 6.343 6.383 6.323 6.143 5.923 5.753 5.553 5.273 4.913
1649.276 4.563 4.263 4.053 3.883 3.763 3.673 3.643 3.753 3.843 3.963
1668.566 4.113 4.353 4.583 4.853 5.253 5.683 6.123 6.603 7.253 8.203
1687.856 9.433 10.933 12.803 14.873 16.993 18.963 20.303 20.833 20.853 20.993
1707.146 21.173 20.733 19.263 16.893 14.243 11.873 10.043 8.653 7.483 6.643
1726.435 5.973 5.423 5.103 4.933 4.733 4.433 4.033 3.603 3.293 3.013
1745.725 2.763 2.563 2.263 2.023 1.893 1.763 1.663 1.543 1.423 1.363
1765.015 1.383 1.353 1.2546 1.2284 1.2123 1.1894 1.2051 1.1864 1.1677 1.1293
1784.305 1.1346 1.1547 1.1202 1.0994 1.0839 1.0745 1.0117 0.9343 0.9579 0.9889
1803.594 0.9869 0.9627 0.8846 0.8366 0.843 0.8403 0.8317 0.8208 0.8178 0.8491
1822.884 0.7954 0.7499 0.7888 0.7679 0.7373 0.7424 0.7446 0.7843 0.8514 0.8461
1842.174 0.8062 0.7811 0.7702 0.8081 0.8407 0.8035 0.7974 0.7926 0.7581 0.8018
1861.464 0.824 0.7824 0.7484 0.7772 0.7507 0.7066 0.7025 0.712 0.7388 0.7143
1880.754 0.7116 0.7017 0.7144 0.6974 0.6405 0.5903 0.5323 0.543 0.6078 0.6586
1900.043 0.6906 0.6869 0.6573 0.6019 0.592 0.6272 0.6599 0.6807 0.665 0.7557
1919.333 0.7756 0.7497 0.7364 0.7058 0.7067 0.6786 0.6528 0.6594 0.6838 0.7196
1938.623 0.7096 0.6505 0.6462 0.6206 0.6216 0.6373 0.58 0.5905 0.5818 0.5701
1957.913 0.5924 0.588 0.5677 0.5152 0.5145 0.5221 0.4934 0.4953 0.4944 0.475
1977.202 0.4595 0.5033 0.5302 0.4825 0.4612 0.4577 0.5048 0.5137 0.4625 0.4921
1996.492 0.5235 0.44104 0.42809 0.4764 0.4823 0.5058 0.4954 0.4744 0.4731 0.503
2015.782 0.5043 0.4434 0.4662 0.4811 0.4757 0.4812 0.43278 0.4622 0.4993 0.4947
2035.072 0.4806 0.4604 0.4772 0.5104 0.5063 0.43921 0.44252 0.5103 0.5411 0.4876
2054.362 0.4662 0.5191 0.5087 0.4723 0.4702 0.4548 0.4669 0.483 0.529 0.5385
2073.651 0.4864 0.43531 0.38223 0.43081 0.4773 0.4679 0.43957 0.4492 0.4666 0.41989
2092.941 0.43266 0.4678 0.4634 0.5204 0.534 0.4637 0.37772 0.38099 0.4595 0.4892
2112.231 0.42787 0.36261 0.39797 0.4847 0.4779 0.4684 0.5221 0.5121 0.4881 0.42853
2131.521 0.42461 0.40098 0.42351 0.4653 0.41629 0.40836 0.38284 0.37894 0.43176 0.41556
2150.810 0.40755 0.38532 0.2899 0.33581 0.43611 0.4513 0.4567 0.43608 0.40043 0.41162
2170.100 0.38764 0.36178 0.39761 0.41288 0.42015 0.42208 0.41367 0.4531 0.4689 0.4495
2189.390 0.43943 0.477 0.4642 0.4505 0.5054 0.44102 0.38654 0.40111 0.39253 0.39243
2208.680 0.3934 0.41834 0.459 0.42183 0.33542 0.38204 0.4713 0.4656 0.42999 0.43214
2227.970 0.42643 0.3365 0.3049 0.38267 0.41907 0.40953 0.40306 0.37006 0.42501 0.42525
2247.259 0.38707 0.42512 0.42067 0.41564 0.37406 0.39218 0.4621 0.4509 0.41006 0.3586
2266.549 0.2833 0.3023 0.42096 0.42835 0.41379 0.37796 0.2712 0.3082 0.36267 0.40975
2285.839 0.4884 0.456 0.41128 0.42961 0.42204 0.39812 0.38806 0.36544 0.3319 0.35967
2305.129 0.345532 0.40211 0.496 0.41864 0.39059 0.4605 0.4927 0.43314 0.38973 0.40988
2324.418 0.37031 0.37804 0.4858 0.5354 0.5333 0.44025 0.42036 0.42933 0.39947 0.38545
2343.708 0.35441 0.38165 0.37955 0.38635 0.40039 0.3684 0.347786 0.38585 0.42495 0.42118
2362.998 0.42676 0.41561 0.40421 0.40623 0.42276 0.40115 0.36261 0.41478 0.4611 0.4634
2382.288 0.42827 0.39555 0.33992 0.33869 0.36856 0.40976 0.4432 0.42252 0.37449 0.3585
2401.578 0.43098 0.43739 0.3248 0.3038 0.40863 0.41825 0.37191 0.40242 0.4546 0.3966
2420.867 0.40961 0.43314 0.40103 0.43417 0.43973 0.40358 0.39105 0.42943 0.4175 0.4308
2440.157 0.4503 0.4542 0.4478 0.43881 0.40768 0.37214 0.4726 0.5362 0.5077 0.4847
2459.447 0.5225 0.5096 0.39792 0.37461 0.42792 0.39589 0.39132 0.4168 0.37858 0.347319
2478.737 0.37554 0.43538 0.5168 0.5125 0.4767 0.5178 0.4872 0.4846 0.5243 0.5542
2498.026 0.5038 0.5009 0.5855 0.5087 0.36828 0.296 0.33815 0.41933 0.41201 0.44046
2517.316 0.4577 0.4445 0.39964 0.39485 0.42166 0.41601 0.36193 0.39689 0.4566 0.33556
2536.606 0.332 0.38484 0.35369 0.33333 0.38758 0.4146 0.39258 0.3933 0.41692 0.41132
2555.896 0.33908 0.349583 0.40403 0.38656 0.41888 0.4622 0.4869 0.43777 0.37728 0.43158
2575.186 0.42412 0.37942 0.41779 0.4633 0.4692 0.41638 0.37501 0.37482 0.41916 0.43899
2594.475 0.40913 0.41884 0.41434 0.41618 0.37439 0.39226 0.4693 0.39505 0.3742 0.4471
2613.765 0.40608 0.42919 0.42731 0.3132 0.33413 0.36488 0.37456 0.37845 0.39018 0.40768
2633.055 0.3206 0.2722 0.33665 0.41371 0.37164 0.39459 0.43233 0.36999 0.3265 0.227
2652.345 0.2477 0.36142 0.37393 0.33377 0.2486 0.199 0.19 0.183 0.2531 0.3944
2671.634 0.4608 0.37626 0.3161 0.3138 0.2436 0.2879 0.3276 0.262 0.3661 0.343081
2690.924 0.2993 0.350902 0.3134 0.3151 0.352262 0.352047 0.3104 0.34985 0.38547 0.39661
2710.214 0.43004 0.38937 0.33975 0.4484 0.5616 0.505 0.41772 0.38837 0.42227 0.4784
2729.504 0.42427 0.2888 0.2766 0.34087 0.36235 0.36071 0.36965 0.35643 0.39335 0.476
2748.794 0.4597 0.41268 0.41262 0.464 0.43439 0.3134 0.2662 0.36477 0.33527 0.2605
2768.083 0.38445 0.43082 0.33408 0.350349 0.37534 0.3009 0.3055 0.2945 0.2832 0.3154
2787.373 0.3176 0.2772 0.189 0.225 0.2876 0.33627 0.38766 0.40563 0.3207 0.34036
2806.663 0.5131 0.4364 0.3182 0.3138 0.2661 0.3088 0.34105 0.33692 0.342464 0.39621
2825.953 0.38737 0.36196 0.4668 0.44124 0.37298 0.331 0.38438 0.43975 0.36504 0.3253
2845.242 0.33784 0.2675 0.2498 0.3006 0.347825 0.346622 0.228 0.2553 0.39452 0.36938
2864.532 0.3397 0.37578 0.2987 0.40049 0.4882 0.2942 0.2497 0.3058 0.37924 0.43506
2883.822 0.40731 0.3512 0.3008 0.35661 0.38559 0.2919 0.2716 0.2867 0.3262 0.3162
2903.112 0.2615 0.343606 0.43516 0.43782 0.35432 0.3134 0.35732 0.36618 0.3115 0.221
2922.401 0.217 0.2442 0.2901 0.311 0.2625 0.282 0.325 0.3315 0.2854 0.33839
2941.691 0.39193 0.35502 0.36959 0.3041 0.2554 0.3095 0.2701 0.2438 0.2867 0.35882
2960.981 0.38612 0.2449 0.197 0.33326 0.34012 0.2609 0.3308 0.40684 0.3022 0.2681
2980.271 0.42158 0.42502 0.37419 0.39555 0.43525 0.33968 0.3318 0.38607 0.3451 0.42622
2999.561 0.4753 0.42977 0.38828 0.3248 0.2997 0.39278 0.4313 0.4484 0.4685 0.43004
3018.850 0.38372 0.42397 0.489 0.4789 0.5298 0.5098 0.38021 0.41935 0.524 0.5322
3038.140 0.5573 0.6289 0.699 0.7424 0.7604 0.9264 0.8618 0.7749 0.8858 0.9071
3057.430 1.042 1.106 1.165 1.2035 1.1755 1.2496 1.353 1.393 1.463 1.613
3076.720 1.683 1.763 1.813 1.723 1.703 1.663 1.533 1.493 1.383 1.1531
3096.009 0.9953 0.8308 0.7065 0.6257 0.5483 0.5313 0.5389 0.56 0.5196 0.5284
3115.299 0.4647 0.42162 0.4495 0.35754 0.35571 0.39843 0.42719 0.38281 0.342681 0.37041
3134.589 0.36392 0.348619 0.37567 0.44139 0.40852 0.4633 0.4462 0.3023 0.28 0.2998
3153.879 0.36437 0.40665 0.39482 0.2658 0.149 0.167 0.3007 0.38355 0.3604 0.41147
3173.169 0.4725 0.4733 0.43331 0.41467 0.465 0.39351 0.206 0.36253 0.5795 0.4988
3192.458 0.4499 0.461 0.42856 0.534 0.5604 0.5103 0.6491 0.7443 0.6601 0.663
3211.748 0.5226 0.3247 0.4802 0.5716 0.43804 0.40664 0.44033 0.39216 0.42791 0.5794
3231.038 0.4752 0.4133 0.4761 0.4622 0.39889 0.2705 0.2526 0.2952 0.3068 0.3058
3250.328 0.214 0.2745 0.40523 0.40046 0.42944 0.3758 0.40878 0.42673 0.4269 0.35733
3269.617 0.2544 0.3008 0.39427 0.301 0.253 0.42328 0.5539 0.5818 0.5904 0.5655
3288.907 0.5634 0.4801 0.40349 0.5336 0.5121 0.36004 0.2899 0.36491 0.5457 0.7005
3308.197 0.6463 0.4973 0.4573 0.4683 0.4636 0.5216 0.5559 0.5312 0.6013 0.6087
3327.487 0.42537 0.2993 0.41976 0.5769 0.5306 0.4797 0.5105 0.4634 0.5729 0.6966
3346.777 0.6859 0.7281 0.6565 0.5726 0.5817 0.7228 0.8 0.6204 0.4736 0.4899
3366.066 0.5232 0.5136 0.537 0.5333 0.42744 0.4784 0.5842 0.5668 0.5473 0.5472
3385.356 0.5851 0.5346 0.5412 0.6122 0.7006 0.5607 0.4878 0.7529 0.5922 0.42902
3404.646 0.4783 0.4669 0.4917 0.5093 0.5852 0.5635 0.4977 0.5283 0.5849 0.6611
3423.936 0.8491 0.8439 0.8795 0.9697 1.0165 1.1275 1.0796 1.0908 1.0899 1.1455
3443.225 1.3118 1.353 1.403 1.533 1.793 2.133 2.193 2.133 2.393 2.763
3462.515 3.023 3.263 3.423 3.513 3.543 3.503 3.553 3.603 3.423 3.243
3481.805 3.093 2.843 2.513 2.183 1.893 1.573 1.3383 1.0926 1.1001 1.1962
3501.095 1.0366 0.9496 0.7791 0.5928 0.6771 0.6437 0.5389 0.644 0.6865 0.7014
3520.385 0.7219 0.6313 0.4919 0.40607 0.5506 0.5782 0.42308 0.3155 0.3014 0.41332
3539.674 0.39221 0.40086 0.4746 0.40822 0.34119 0.40122 0.40696 0.44213 0.5497 0.38693
3558.964 0.2955 0.35934 0.38055 0.39963 0.4776 0.5594 0.5168 0.4533 0.4359 0.39687
3578.254 0.39742 0.3072 0.2634 0.43137 0.4435 0.4487 0.5254 0.4776 0.41121 0.40408
3597.544 0.35581 0.2896 0.3074 0.3116 0.226 0.316 0.42975 0.38404 0.33935 0.241
3616.833 0.2594 0.2736 0.201 0.2438 0.3022 0.36341 0.349519 0.215 0.133 0.171
3636.123 0.211 0.2438 0.346502 0.40034 0.3181 0.3233 0.38224 0.3282 0.34137 0.4074
3655.413 0.39139 0.317 0.205 0.212 0.3193 0.3566 0.202 0.017 0.095 0.2646
3674.703 0.35728 0.2959 0.214 0.3104 0.2621 0.204 0.33354 0.39379 0.3088 0.133
3693.993 0.084 0.165 0.2954 0.2798 0.198 0.2963 0.2661 0.3279 0.38456 0.174
3713.282 0.183 0.2977 0.38108 0.4575 0.38715 0.2759 0.33414 0.39958 0.2998 0.226
3732.572 0.174 0.2 0.194 0.2436 0.2463 0.2505 0.3143 0.36669 0.37929 0.2466
3751.862 0.177 0.3141 0.342111 0.2575 0.189 0.054 0.21 0.3117 0.2888 0.3525
3771.152 0.311 0.349787 0.38431 0.3238 0.5242 0.5574 0.2907 0.2923 0.3254 0.2838
3790.441 0.255 0.2442 0.2554 0.2927 0.2885 0.239 0.139 0.059 0.108 0.1
3809.731 0.225 0.3304 0.3136 0.2973 0.208 0.2803 0.37447 0.189 0.103 0.2439
3829.021 0.3083 0.238 0.212 0.2714 0.2971 0.2613 0.3227 0.4045 0.3219 0.33597
3848.311 0.3863 0.3261 0.3137 0.3152 0.3205 0.36964 0.37187 0.2806 0.2557 0.36161
3867.601 0.3104 0.2967 0.37219 0.351778 0.3263 0.2742 0.3216 0.37714 0.3348 0.2724
3886.890 0.38698 0.40502 0.348353 0.4897 0.4732 0.2438 0.067 0.177 0.23 0.203
3906.180 0.213 0.204 0.346065 0.2946 0.167 0.082 0.056 0.219 0.228 0.176
3925.470 0.111 0.022 0.091 0.3225 0.44226 0.40212 0.37548 0.243 0.165 0.2925
3944.760 0.40912 0.40604 0.3117 0.171 0.009 0.044 0.171 0.084 0.169 0.2709
3964.049 0.124 0.065 0.198 0.3278 0.37066 0.4686 0.44051 0.2644 0.194 0.262
3983.339 0.2859 0.35566 0.4833 0.41842 0.37648 0.2677 0.136 0.23 0.174 0
##END=
