##TITLE=3-Methylenecyclopropane-trans-1,2-dicarboxylic acid
##JCAMP-DX=4.24
##DATA TYPE=INFRARED SPECTRUM
##ORIGIN=EPA-IR VAPOR PHASE LIBRARY
##OWNER=SRD/NIST
Collection (C) 2018 copyright by the U.S. Secretary of Commerce
on behalf of the United States of America. All rights reserved.
##CAS REGISTRY NO=499-02-5
##MOLFORM=C 6 H 6 O 4
##$NIST SOURCE=MSDC-IR
##STATE=gas
##XUNITS=1/CM
##YUNITS=ABSORBANCE
##XFACTOR=1.
##YFACTOR=0.001
##DELTAX=1.92898
##FIRSTX=549.8
##LASTX=4000.7
##FIRSTY=18.522
##MAXX=4000.7
##MINX=549.759
##MAXY=0.119652
##MINY=0
##NPOINTS=1790
##XYDATA=(X++(Y..Y))
549.759 18.522 18.512 18.582 19.692 21.312 21.932 21.502 21.402 21.472 20.922
569.049 20.152 19.832 19.492 18.772 18.282 18.282 18.072 17.582 16.822 16.212
588.339 15.892 15.182 14.462 13.892 13.602 13.322 12.762 12.762 13.042 12.932
607.628 12.792 13.302 13.852 13.852 14.072 14.412 14.542 14.282 13.952 13.572
626.918 12.952 12.512 12.112 11.182 10.282 9.702 9.062 8.212 7.322 7.042
646.208 6.822 6.352 5.972 5.742 5.602 5.102 4.452 4.562 4.902 4.662
665.498 5.482 8.932 8.542 5.572 4.762 4.192 4.062 4.252 4.542 4.522
684.787 4.332 4.472 4.862 4.842 5.022 5.492 5.572 5.762 5.982 6.222
704.077 6.352 6.322 6.282 5.752 5.722 5.892 5.132 4.462 4.332 4.012
723.367 3.912 4.032 4.082 4.122 4.012 4.182 3.952 3.472 3.702 4.012
742.657 4.012 4.042 4.202 4.142 4.282 4.632 4.572 4.402 4.402 4.112
761.947 4.102 4.172 3.732 3.262 2.672 1.982 1.532 1.722 1.962 2.132
781.236 2.162 2.202 2.182 1.782 1.682 1.942 1.972 1.792 1.832 1.932
800.526 2.052 2.142 2.272 2.312 2.422 2.582 2.822 2.772 2.782 2.952
819.816 2.782 2.822 3.012 3.182 3.392 3.472 3.542 3.702 3.682 4.202
839.106 4.822 4.632 4.662 4.932 5.122 5.412 5.512 5.772 6.012 6.012
858.395 6.112 6.242 6.282 6.162 6.172 6.152 5.872 5.812 5.752 5.782
877.685 6.132 6.212 6.162 6.192 6.032 6.032 6.522 7.112 7.812 8.462
896.975 8.462 8.662 9.392 9.782 9.582 8.882 8.232 7.932 7.452 6.562
916.265 5.922 5.582 5.492 5.522 5.442 5.152 5.042 5.262 5.302 5.162
935.555 5.382 5.572 5.452 5.242 5.082 5.262 5.302 5.342 5.212 4.952
954.844 4.972 5.262 5.012 4.482 4.262 4.052 4.232 4.352 4.292 4.332
974.134 4.382 4.722 4.952 4.882 5.042 5.362 5.682 5.772 5.922 6.042
993.424 6.162 6.732 7.082 7.362 7.212 6.862 7.222 7.122 6.752 7.002
1012.714 7.022 6.842 7.202 7.332 7.132 7.062 7.022 7.012 7.632 8.332
1032.003 7.782 7.422 7.762 8.052 7.972 8.162 8.462 8.732 9.122 9.322
1051.293 9.472 9.602 9.882 10.132 10.392 10.842 11.592 12.152 12.722 13.632
1070.583 14.752 15.402 15.832 16.332 16.962 17.552 17.952 18.482 19.692 20.372
1089.873 21.172 23.462 25.792 28.922 32.112 35.572 40.112 45.572 51.082 57.542
1109.163 64.942 72.112 78.722 84.782 88.842 91.002 92.452 91.622 89.112 85.282
1128.452 79.992 73.402 66.112 59.182 53.192 48.232 44.982 43.322 41.942 40.142
1147.742 39.492 39.662 39.212 39.322 39.342 39.222 39.012 37.662 36.652 35.722
1167.032 33.882 32.092 30.142 28.012 25.572 23.222 21.202 19.282 17.182 15.402
1186.322 14.722 13.692 12.082 11.222 10.622 9.952 9.792 9.472 9.012 8.862
1205.611 8.242 7.842 7.652 7.122 7.552 7.272 6.482 7.012 7.542 7.962
1224.901 7.862 7.252 7.402 8.242 8.892 8.742 8.302 8.592 8.862 8.842
1244.191 8.832 9.022 9.552 9.272 8.942 9.222 9.442 9.632 10.032 10.162
1263.481 10.082 10.212 10.132 10.142 10.282 10.412 10.542 10.702 10.822 10.842
1282.771 10.862 10.642 10.762 10.892 10.712 10.802 10.682 10.452 10.532 10.692
1302.060 10.772 10.702 10.532 10.552 10.802 10.992 11.022 11.052 11.242 11.582
1321.350 11.902 12.172 12.472 12.832 13.192 13.612 14.142 14.732 15.302 15.912
1340.640 16.432 16.902 17.502 17.932 18.222 18.572 19.102 19.562 19.792 20.002
1359.930 20.192 20.352 20.362 20.392 20.522 20.452 20.322 20.082 19.572 19.022
1379.219 18.482 17.912 17.282 16.552 15.842 15.062 14.272 13.432 12.582 11.882
1398.509 11.122 10.162 9.292 8.672 8.132 7.702 7.352 6.882 6.482 6.292
1417.799 6.162 5.882 5.632 5.472 5.252 5.042 4.712 4.362 4.052 3.792
1437.089 3.512 3.222 3.072 2.982 2.822 2.652 2.482 2.302 2.152 2.072
1456.378 2.022 1.982 1.962 1.922 1.812 1.702 1.682 1.672 1.732 1.592
1475.668 1.472 1.402 1.352 1.382 1.452 1.462 1.392 1.412 1.342 1.242
1494.958 1.282 1.382 1.342 1.232 1.182 1.222 1.322 1.422 1.422 1.342
1514.248 1.172 1.1416 1.162 1.182 1.252 1.242 1.212 1.1286 1.08 1.1101
1533.538 1.1496 1.1429 1.172 1.272 1.262 1.212 1.172 1.172 1.202 0.9767
1552.827 0.8575 0.8914 0.8506 0.6509 0.4546 0.4059 0.3396 0.3371 0.611 0.9038
1572.117 0.9985 1.162 1.282 1.312 1.572 1.872 2.032 2.332 2.412 2.262
1591.407 2.202 2.122 2.072 2.062 2.002 1.992 2.102 2.172 2.162 2.312
1610.697 2.542 2.542 2.462 2.172 1.632 1.192 0.9384 0.7389 0.5719 0.5582
1629.986 0.6178 0.7051 0.9729 1.312 1.532 1.702 1.982 2.222 2.402 2.682
1649.276 2.792 2.922 3.272 3.412 3.482 3.752 3.842 3.812 3.892 4.102
1668.566 4.202 4.132 4.082 4.052 4.092 4.082 4.082 4.182 4.232 4.252
1687.856 4.352 4.502 4.732 4.892 5.032 5.362 5.762 6.082 6.322 6.682
1707.146 7.072 7.452 8.082 8.712 9.332 9.982 10.752 11.682 12.642 13.782
1726.435 14.902 16.242 17.832 19.522 21.332 23.172 25.252 27.592 30.122 32.932
1745.725 35.982 39.362 43.082 47.442 52.472 58.072 64.482 71.562 79.342 87.572
1765.015 96.052 104.462 112.192 117.652 119.652 118.672 115.732 110.902 103.482 93.612
1784.305 82.652 72.082 62.742 54.592 47.532 41.742 37.382 34.302 32.302 31.132
1803.594 30.622 30.662 31.082 31.582 31.852 31.912 31.742 30.942 29.552 27.942
1822.884 26.252 24.232 21.962 19.472 16.862 14.552 12.602 11.202 10.072 9.002
1842.174 8.192 7.532 6.962 6.602 6.312 6.002 5.772 5.572 5.302 4.972
1861.464 4.562 4.342 4.192 4.012 3.842 3.682 3.442 3.272 3.162 2.972
1880.754 2.922 2.872 2.722 2.542 2.432 2.352 2.222 2.032 1.962 1.952
1900.043 1.872 1.822 1.822 1.792 1.712 1.692 1.682 1.692 1.622 1.532
1919.333 1.462 1.382 1.422 1.412 1.402 1.422 1.382 1.312 1.292 1.212
1938.623 1.232 1.232 1.182 1.152 1.1333 1.0842 1.0116 1.1049 1.202 1.133
1957.913 0.9963 1.0128 0.9663 0.8315 0.9403 1.0517 0.9922 0.9928 0.9226 0.9049
1977.202 0.9555 0.9955 1.072 0.9495 0.8149 0.8737 0.9683 1.0265 1.0172 0.9907
1996.492 0.9512 0.8654 0.9768 1.0845 0.9979 0.8699 0.9178 1.0671 0.9805 1.0057
2015.782 1.127 1.0951 1.1156 1.1027 1.1421 1.1304 1.0509 1.0828 1.152 1.192
2035.072 1.172 1.0301 0.9086 0.957 0.9792 0.94 0.9178 0.9373 0.9234 0.8643
2054.362 0.948 1.0107 0.9392 0.9533 0.9677 0.913 0.8629 0.8508 0.8825 0.8249
2073.651 0.7984 0.865 0.8271 0.7683 0.6908 0.7314 0.8314 0.7895 0.7067 0.6616
2092.941 0.6463 0.627 0.7507 0.7787 0.6959 0.7079 0.7588 0.8104 0.7937 0.7076
2112.231 0.6358 0.7066 0.7832 0.8112 0.7683 0.6999 0.7531 0.8354 0.884 0.8291
2131.521 0.7736 0.8363 0.8871 0.8837 0.891 0.9981 0.8917 0.6452 0.6513 0.6958
2150.810 0.6492 0.6841 0.6818 0.6665 0.6989 0.7512 0.7725 0.7428 0.796 0.8039
2170.100 0.7532 0.6841 0.6934 0.7628 0.7978 0.7148 0.7823 0.871 0.7741 0.715
2189.390 0.6883 0.7158 0.7886 0.883 0.9036 0.8159 0.7569 0.7873 0.8042 0.8614
2208.680 0.8773 0.8414 0.8864 0.8976 0.8047 0.778 0.9759 1.0897 1.016 1.0557
2227.970 1.099 1.1105 1.0748 1.0626 1.0558 0.9929 0.9995 0.9943 0.918 0.9499
2247.259 1.047 1.015 1.0016 1.0483 1.0569 1.0551 1.1082 1.172 1.202 1.182
2266.549 1.1457 1.1184 1.172 1.282 1.382 1.482 1.462 1.562 1.782 1.932
2285.839 2.232 2.472 2.632 3.002 3.292 3.472 3.832 4.272 4.612 4.882
2305.129 5.252 5.602 6.102 6.602 6.912 7.182 7.492 7.852 8.122 8.312
2324.418 8.302 8.322 8.462 8.442 8.282 8.082 7.912 7.812 7.692 7.552
2343.708 7.342 6.712 5.982 6.012 6.972 8.152 9.202 10.002 10.482 10.902
2362.998 11.142 11.122 10.802 10.132 9.462 8.732 7.812 6.812 5.732 4.602
2382.288 3.592 2.772 2.052 1.462 1.162 1.1291 1.0849 0.9214 0.8193 0.821
2401.578 0.7835 0.8732 0.8304 0.6694 0.7273 0.8171 0.8481 0.8536 0.8494 0.889
2420.867 0.8852 0.8356 0.9066 0.8848 0.9017 0.9528 0.7685 0.7569 0.8091 0.698
2440.157 0.6947 0.7086 0.7367 0.802 0.7652 0.7131 0.7898 0.9043 1.0475 1.0285
2459.447 0.9666 0.9303 0.8455 0.8642 0.8907 0.8219 0.7131 0.6715 0.7321 0.8451
2478.737 0.8082 0.8211 0.8343 0.938 1.0193 0.8986 0.9202 0.8947 0.8603 0.8494
2498.026 0.7612 0.7235 0.7164 0.785 0.8355 0.7959 0.766 0.7974 0.7979 0.7284
2517.316 0.6392 0.6319 0.6544 0.6426 0.6695 0.7346 0.7299 0.5912 0.6361 0.7305
2536.606 0.6136 0.5544 0.5732 0.631 0.6845 0.6196 0.605 0.6435 0.5973 0.5903
2555.896 0.6748 0.75 0.5996 0.488 0.5694 0.6253 0.5221 0.3697 0.4485 0.4354
2575.186 0.5095 0.6249 0.5418 0.4892 0.482 0.5247 0.5614 0.5477 0.4695 0.4382
2594.475 0.4474 0.4707 0.5635 0.5804 0.5225 0.6663 0.6322 0.4787 0.5289 0.5834
2613.765 0.4794 0.4359 0.5349 0.5836 0.5546 0.4404 0.4183 0.3927 0.4557 0.5314
2633.055 0.5918 0.5693 0.606 0.7115 0.5213 0.4007 0.5053 0.6296 0.6615 0.4861
2652.345 0.3515 0.4683 0.5317 0.536 0.531 0.4493 0.4828 0.5473 0.4857 0.4568
2671.634 0.4786 0.429 0.4323 0.5464 0.5396 0.4732 0.5391 0.6952 0.6684 0.5854
2690.924 0.5594 0.5702 0.5734 0.4065 0.3654 0.4236 0.4377 0.4728 0.4653 0.466
2710.214 0.5705 0.5688 0.588 0.5163 0.3406 0.4185 0.5544 0.4961 0.4507 0.3387
2729.504 0.21341 0.4267 0.4786 0.4683 0.4669 0.4439 0.4049 0.3004 0.3827 0.4747
2748.794 0.4689 0.4269 0.5433 0.5305 0.4687 0.5635 0.5769 0.4639 0.4612 0.5288
2768.083 0.6234 0.5205 0.4648 0.457 0.2589 0.4021 0.5387 0.5826 0.5835 0.3614
2787.373 0.2712 0.3932 0.4287 0.3808 0.4859 0.539 0.4223 0.5114 0.5322 0.6132
2806.663 0.6837 0.6333 0.614 0.4629 0.4044 0.4124 0.5175 0.5715 0.4788 0.5361
2825.953 0.5697 0.4377 0.4564 0.4768 0.5008 0.5024 0.5406 0.5765 0.5269 0.5956
2845.242 0.7276 0.7556 0.636 0.4221 0.3807 0.6421 0.7838 0.7049 0.7537 0.8282
2864.532 0.7733 0.7666 0.9251 0.9898 0.8571 0.7482 0.7468 0.8976 0.9176 0.9171
2883.822 0.8897 1.0066 1.0644 0.8182 0.9096 1.0449 1.1167 1.192 1.1034 1.0895
2903.112 1.332 1.472 1.412 1.582 1.552 1.432 1.462 1.492 1.592 1.572
2922.401 1.572 1.502 1.392 1.412 1.342 1.162 1.0879 1.1244 1.0582 1.0244
2941.691 1.0958 0.9175 0.6872 0.9096 1.0445 0.9384 1.0391 1.262 1.202 1.162
2960.981 1.352 1.372 1.382 1.402 1.462 1.602 1.552 1.502 1.652 1.782
2980.271 1.712 1.602 1.502 1.502 1.532 1.342 1.302 1.402 1.482 1.502
2999.561 1.372 1.452 1.732 1.712 1.672 1.682 1.742 1.852 1.682 1.492
3018.850 1.472 1.622 1.652 1.562 1.452 1.262 1.212 1.262 1.222 1.232
3038.140 1.332 1.182 0.9249 0.7835 0.8375 0.9665 0.9271 0.7424 0.6309 0.6839
3057.430 0.7085 0.7329 0.907 1.0301 0.9497 1.0451 1.0136 0.9321 0.9545 0.9643
3076.720 1.0851 1.0716 0.9962 0.9525 0.9962 1.0758 1.152 1.332 1.392 1.362
3096.009 1.272 1.292 1.412 1.272 1.0857 1.0843 0.9402 0.8297 0.9426 0.8961
3115.299 0.8163 0.7393 0.6528 0.6846 0.636 0.7898 0.8567 0.6139 0.543 0.6262
3134.589 0.5995 0.5692 0.5967 0.5658 0.4359 0.4256 0.6259 0.5185 0.5809 0.7098
3153.879 0.5571 0.5683 0.4745 0.4146 0.3856 0.3682 0.5122 0.5008 0.4152 0.4238
3173.169 0.4658 0.4714 0.6273 0.7314 0.5419 0.4038 0.25107 0.3951 0.6315 0.6295
3192.458 0.3456 0.069 0.1228 0.2662 0.3358 0.2708 0.4196 0.5035 0.4445 0.3549
3211.748 0.3535 0.4149 0.24503 0.21085 0.3818 0.4238 0.4421 0.4995 0.4869 0.3851
3231.038 0.2882 0.3606 0.6053 0.509 0.3571 0.3821 0.2679 0.383 0.4688 0.3395
3250.328 0.3305 0.44 0.393 0.4392 0.4695 0.23568 0.3193 0.3463 0.3889 0.3599
3269.617 0.3115 0.3785 0.3111 0.5221 0.542 0.20434 0.1326 0.2843 0.2727 0.3602
3288.907 0.5973 0.5375 0.6028 0.5858 0.4839 0.5566 0.4359 0.3449 0.3045 0.3753
3308.197 0.504 0.6488 0.6513 0.3957 0.2939 0.497 0.6325 0.4961 0.4526 0.536
3327.487 0.5372 0.4959 0.3592 0.3798 0.6418 0.6518 0.3442 0.160238 0.4748 0.5778
3346.777 0.3139 0.3275 0.5575 0.6891 0.5339 0.3865 0.3381 0.3158 0.3737 0.5096
3366.066 0.54 0.4138 0.457 0.5788 0.6306 0.49 0.3253 0.4831 0.5761 0.5338
3385.356 0.4904 0.3662 0.455 0.6512 0.5208 0.393 0.4607 0.6744 0.6814 0.613
3404.646 0.6729 0.6211 0.514 0.4361 0.6225 0.7467 0.4586 0.4501 0.5169 0.4449
3423.936 0.5247 0.4571 0.3198 0.3776 0.4625 0.3386 0.3605 0.5811 0.7142 0.6606
3443.225 0.7124 0.589 0.5699 0.8877 0.7964 0.5155 0.4198 0.3998 0.4688 0.4655
3462.515 0.4007 0.4502 0.4037 0.5971 0.7231 0.7237 0.8506 0.8313 0.8056 0.7397
3481.805 0.6256 0.5337 0.543 0.4592 0.527 0.7286 0.7053 0.6983 0.6709 0.5422
3501.095 0.7988 1.0941 1.0432 0.9509 1.0087 1.1457 1.0504 1.152 1.222 1.262
3520.385 1.442 1.212 1.292 1.552 1.502 1.422 1.612 2.002 1.812 1.612
3539.674 1.722 1.812 1.882 1.862 1.682 1.842 2.482 3.082 3.832 4.842
3558.964 6.142 8.682 12.712 17.572 23.202 28.962 33.782 37.702 41.412 44.102
3578.254 44.572 43.802 42.122 38.322 32.822 26.902 21.192 16.282 12.442 9.132
3597.544 6.542 4.922 3.782 3.022 2.512 2.292 1.892 1.372 1.232 1.202
3616.833 1.512 1.592 1.362 1.312 1.292 1.182 1.252 1.182 0.9471 0.8703
3636.123 0.797 0.8778 1.0341 1.1085 0.8497 0.8088 0.8856 0.6954 0.6171 0.6249
3655.413 0.5485 0.5359 0.7134 0.8064 0.6765 0.4914 0.46 0.6175 0.6427 0.5192
3674.703 0.5913 0.6144 0.5208 0.5003 0.2869 0.2956 0.5239 0.5683 0.5111 0.3286
3693.993 0.3916 0.4403 0.5533 0.7845 0.7107 0.6071 0.3694 0.3036 0.4148 0.4726
3713.282 0.5501 0.5425 0.6057 0.7414 0.8771 0.6319 0.4567 0.6175 0.5464 0.5464
3732.572 0.744 0.8351 0.6922 0.5407 0.5389 0.5428 0.3666 0.2185 0.4625 0.489
3751.862 0.5073 0.454 0.2914 0.488 0.3911 0.4 0.5111 0.255 0.3404 0.24827
3771.152 0.1191 0.21854 0.16755 0.0811 0.0949 0.1284 0.2874 0.435 0.3472 0.19956
3790.441 0.19807 0.479 0.3243 0.1181 0.3546 0.3044 0.159202 0.24814 0.4588 0.3822
3809.731 0.0991 0.18239 0.4505 0.4715 0.2742 0.389 0.6286 0.5417 0.23432 0.0759
3829.021 0.3339 0.3974 0.22065 0.3118 0.3067 0.2679 0.0814 0.2733 0.2963 0.0958
3848.311 0.18046 0 0.21181 0.3301 0.18547 0.3134 0.4322 0.3502 0.327 0.5089
3867.601 0.551 0.417 0.19795 0.3014 0.5479 0.4424 0.3088 0.3389 0.2556 0.19039
3886.890 0.24988 0.21462 0.16847 0.2592 0.22178 0.16091 0.24878 0.3573 0.4515 0.4258
3906.180 0.2615 0.1178 0.22919 0.2565 0.255 0.5558 0.5099 0.2827 0.4174 0.4453
3925.470 0.24416 0.0839 0.20109 0.3141 0.3771 0.3683 0.4852 0.5617 0.3712 0.5152
3944.760 0.8343 0.8654 0.6376 0.4417 0.3275 0.20798 0.16616 0.24471 0.3278 0.16544
3964.049 0.18291 0.3174 0.4952 0.5219 0.3567 0.3819 0.2662 0.2669 0.3219 0.19438
3983.339 0.3615 0.4477 0.3339 0.3585 0.2949 0.3441 0.4536 0.3148 0.2095 0.15065
##END=
