##TITLE=Phenobarbital
##JCAMP-DX=4.24
##DATA TYPE=INFRARED SPECTRUM
##ORIGIN=NIST Mass Spectrometry Data Center
##OWNER=NIST Standard Reference Data Program
Collection (C) 2018 copyright by the U.S. Secretary of Commerce
on behalf of the United States of America. All rights reserved.
##CAS REGISTRY NO=50-06-6
##MOLFORM=C 12 H 12 N 2 O 3
##$NIST SOURCE=MSDC-IR
##SPECTROMETER/DATA SYSTEM=HP-GC/MS/IRD
##STATE=gas
##XUNITS=1/CM
##YUNITS=ABSORBANCE
##XFACTOR=1.0
##YFACTOR=0.000002900
##DELTAX=4.0
##FIRSTX=550.0
##LASTX=3846.0
##FIRSTY=0.001395
##MAXX=3846
##MINX=550
##MAXY=0.029
##MINY=0
##NPOINTS=825
##XYDATA=(X++(Y..Y))
550.0 481 471 333 176 90 36 2 5 33 52
590.0 61 93 135 169 217 262 292 312 306 293
630.0 314 376 476 598 762 1006 1270 1459 1534 1435
670.0 1202 938 753 668 635 645 652 615 561 533
710.0 548 626 706 727 663 585 554 581 676 882
750.0 1150 1325 1285 1034 724 480 337 278 257 236
790.0 214 200 180 158 132 108 91 65 38 32
830.0 25 14 19 27 15 9 19 20 14 15
870.0 21 22 22 22 33 44 38 33 32 25
910.0 22 31 43 58 64 55 45 38 33 38
950.0 43 54 72 75 70 64 58 51 49 58
990.0 77 111 159 207 233 217 172 123 98 112
1030.0 143 151 146 123 89 82 87 102 115 108
1070.0 101 105 115 124 120 115 127 145 158 173
1110.0 202 241 272 291 289 275 258 235 218 195
1150.0 179 172 174 185 207 240 280 345 440 564
1190.0 698 806 847 799 689 564 472 420 396 393
1230.0 397 408 424 452 480 507 567 648 751 901
1270.0 1098 1373 1744 2197 2663 3038 3218 3129 2787 2335
1310.0 1940 1660 1495 1395 1344 1367 1456 1552 1579 1496
1350.0 1333 1185 1107 1118 1216 1356 1528 1732 1927 2094
1390.0 2204 2229 2227 2260 2332 2382 2302 2029 1621 1217
1430.0 918 752 689 666 640 608 548 494 456 409
1470.0 370 340 337 357 395 468 568 630 605 494
1510.0 366 283 218 175 158 144 124 101 76 77
1550.0 83 81 77 95 109 122 144 169 201 232
1590.0 252 253 241 221 190 157 135 130 135 140
1630.0 149 157 161 160 167 167 172 198 226 255
1670.0 298 346 393 450 512 574 635 709 823 1014
1710.0 1372 2032 3178 4665 6014 6565 5999 4980 4264 4235
1750.0 4965 6159 7309 8086 8635 9323 10000 9832 8309 5959
1790.0 3873 2546 1824 1400 1127 921 748 608 496 403
1830.0 340 301 270 245 228 220 217 215 212 208
1870.0 206 208 204 201 193 182 179 177 173 167
1910.0 161 145 125 109 101 94 87 84 83 83
1950.0 81 83 82 74 65 59 56 47 43 43
1990.0 45 48 53 66 74 77 73 66 59 55
2030.0 54 47 39 32 32 33 30 29 25 24
2070.0 21 19 23 24 20 19 19 15 11 14
2110.0 14 14 16 17 15 11 6 7 10 9
2150.0 9 12 16 17 14 13 12 9 10 11
2190.0 8 7 6 6 7 6 3 3 2 2
2230.0 5 5 5 4 5 4 1 0 4 4
2270.0 5 7 13 12 11 15 19 18 15 15
2310.0 12 13 17 21 24 26 24 21 22 23
2350.0 20 23 27 27 29 29 32 33 35 35
2390.0 33 37 40 42 38 31 32 33 29 26
2430.0 28 23 18 22 21 15 16 21 18 18
2470.0 21 22 18 21 27 29 29 27 27 23
2510.0 23 25 24 24 23 27 27 24 24 24
2550.0 21 24 27 27 24 23 23 21 21 21
2590.0 17 16 20 26 24 17 15 16 16 18
2630.0 20 21 19 20 22 21 21 19 17 19
2670.0 21 22 25 24 22 26 30 29 27 24
2710.0 24 26 29 37 40 37 36 41 42 44
2750.0 51 53 55 57 58 53 54 53 55 57
2790.0 50 43 40 40 43 41 39 43 43 41
2830.0 41 43 41 37 42 51 63 68 67 72
2870.0 89 105 122 147 181 220 234 212 178 144
2910.0 123 118 127 141 153 176 209 247 293 348
2950.0 395 402 370 329 318 348 416 489 515 476
2990.0 403 316 240 191 164 153 142 133 131 146
3030.0 163 179 195 205 207 207 211 231 288 372
3070.0 444 463 407 325 259 218 202 195 188 175
3110.0 154 133 117 103 91 81 72 67 64 62
3150.0 72 75 73 76 80 78 70 59 46 41
3190.0 43 40 29 23 26 27 28 33 37 28
3230.0 25 28 24 25 27 36 39 30 26 33
3270.0 30 26 30 29 28 29 31 28 29 26
3310.0 27 23 21 31 34 35 29 27 31 29
3350.0 29 30 27 24 31 38 44 55 64 77
3390.0 81 92 120 172 253 408 675 1123 1770 2442
3430.0 2790 2545 1829 1071 558 323 237 195 180 166
3470.0 150 143 128 107 93 77 69 65 62 65
3510.0 61 60 73 82 86 97 108 112 105 94
3550.0 95 90 73 55 43 34 35 40 36 21
3590.0 14 22 24 14 1 5 9 5 19 20
3630.0 9 8 22 28 16 15 19 22 25 18
3670.0 10 13 8 11 18 12 11 15 17 17
3710.0 9 3 6 2 1 8 0 5 10 7
3750.0 5 0 9 19 14 18 18 22 25 22
3790.0 21 11 10 10 5 13 16 11 11 12
3830.0 17 23 16 15 13
##END=
