##TITLE=Mephenytoin
##JCAMP-DX=4.24
##DATA TYPE=INFRARED SPECTRUM
##ORIGIN=NIST Mass Spectrometry Data Center
##OWNER=NIST Standard Reference Data Program
Collection (C) 2018 copyright by the U.S. Secretary of Commerce
on behalf of the United States of America. All rights reserved.
##CAS REGISTRY NO=50-12-4
##MOLFORM=C 12 H 14 N 2 O 2
##$NIST SOURCE=MSDC-IR
##SPECTROMETER/DATA SYSTEM=HP-GC/MS/IRD
##STATE=gas
##XUNITS=1/CM
##YUNITS=ABSORBANCE
##XFACTOR=1.0
##YFACTOR=0.000003700
##DELTAX=4.0
##FIRSTX=550.0
##LASTX=3846.0
##FIRSTY=0.000359
##MAXX=3846
##MINX=550
##MAXY=0.037
##MINY=0
##NPOINTS=825
##XYDATA=(X++(Y..Y))
550.0 97 70 55 29 15 19 2 6 36 49
590.0 69 97 109 91 62 45 26 18 26 32
630.0 51 93 140 176 173 134 92 60 61 89
670.0 100 114 160 224 302 406 509 558 532 457
710.0 395 345 318 310 291 267 238 228 234 256
750.0 305 362 407 433 426 388 327 255 189 146
790.0 110 78 61 52 45 42 35 30 27 18
830.0 19 27 28 24 35 56 79 102 124 128
870.0 103 69 44 32 16 6 2 6 11 12
910.0 13 13 16 22 31 45 63 72 84 102
950.0 126 166 220 267 288 280 255 210 157 116
990.0 93 86 85 90 94 84 77 86 115 149
1030.0 184 220 263 331 424 530 604 592 489 352
1070.0 247 175 128 101 89 84 81 88 99 100
1110.0 103 114 117 117 144 197 252 305 356 380
1150.0 358 296 215 136 87 70 64 70 72 72
1190.0 88 97 98 110 125 134 132 127 127 116
1230.0 101 90 83 84 88 94 119 162 223 305
1270.0 391 448 457 436 410 407 439 474 502 512
1310.0 501 470 429 399 377 367 353 329 322 330
1350.0 354 406 483 576 668 725 750 793 902 1101
1390.0 1334 1476 1420 1185 895 671 554 539 613 761
1430.0 987 1292 1675 2056 2319 2354 2125 1732 1355 1043
1470.0 805 614 480 403 374 386 402 389 343 265
1510.0 203 174 148 130 120 109 100 96 87 75
1550.0 69 69 66 64 66 60 57 61 65 73
1590.0 80 91 103 100 84 62 52 50 50 51
1630.0 51 57 67 73 78 85 94 107 123 137
1670.0 146 156 175 194 225 275 331 398 479 581
1710.0 716 900 1189 1640 2393 3695 5779 8261 10000 9873
1750.0 7770 4986 2853 1698 1169 923 815 808 913 1187
1790.0 1719 2517 3253 3478 3010 2084 1226 737 497 362
1830.0 278 224 186 153 128 115 102 96 91 87
1870.0 84 82 78 74 71 67 61 55 52 48
1910.0 47 45 43 44 43 42 42 49 49 48
1950.0 53 53 50 48 41 35 32 30 24 21
1990.0 25 19 16 19 21 18 14 12 12 11
2030.0 7 7 7 6 6 7 4 2 5 8
2070.0 8 4 2 3 6 8 10 8 7 8
2110.0 7 6 3 5 5 6 7 7 7 5
2150.0 6 9 7 2 1 3 5 4 0 0
2190.0 2 0 3 6 3 0 0 0 2 6
2230.0 5 5 3 0 0 2 4 7 6 3
2270.0 2 1 2 5 4 4 6 6 8 9
2310.0 8 10 12 12 10 11 14 19 19 22
2350.0 21 20 22 19 13 11 10 9 11 10
2390.0 10 12 13 13 12 11 14 13 10 13
2430.0 13 15 16 16 16 17 13 11 12 9
2470.0 8 9 8 6 5 5 4 5 7 7
2510.0 7 7 3 4 6 7 6 2 2 3
2550.0 1 2 4 3 3 5 3 2 4 2
2590.0 0 0 3 3 1 0 2 8 9 7
2630.0 6 5 4 9 10 6 6 10 14 15
2670.0 14 14 14 9 10 13 9 8 10 10
2710.0 13 12 10 9 5 6 8 11 18 19
2750.0 17 17 15 15 19 15 17 18 14 18
2790.0 18 14 14 16 19 19 20 24 27 31
2830.0 34 35 35 38 45 48 56 70 84 94
2870.0 108 126 144 171 207 233 237 225 212 202
2910.0 203 213 234 271 324 375 410 426 440 459
2950.0 478 472 441 410 413 469 557 622 616 519
2990.0 383 263 181 139 116 102 97 104 121 139
3030.0 164 187 201 212 209 194 188 210 255 317
3070.0 370 375 329 269 216 193 183 160 137 112
3110.0 96 84 73 58 45 39 32 30 29 30
3150.0 29 29 31 31 33 32 25 17 15 12
3190.0 8 8 12 14 7 0 2 8 11 10
3230.0 7 6 6 4 3 4 10 11 8 9
3270.0 10 5 5 6 8 8 2 5 7 2
3310.0 3 5 0 1 2 2 5 6 7 8
3350.0 3 2 6 8 3 4 3 6 10 15
3390.0 26 20 14 10 10 13 17 20 22 29
3430.0 31 36 38 36 45 66 85 117 174 238
3470.0 308 366 397 383 320 246 178 120 86 71
3510.0 65 62 63 65 63 65 59 57 47 30
3550.0 28 29 26 26 14 19 30 19 21 17
3590.0 17 26 28 22 19 20 20 20 18 14
3630.0 12 14 22 18 8 8 12 11 12 16
3670.0 12 8 15 15 11 7 9 13 18 19
3710.0 16 20 22 18 17 17 11 3 2 5
3750.0 9 11 12 11 10 15 16 14 19 18
3790.0 10 3 5 11 14 14 16 17 12 15
3830.0 20 16 15 11 10
##END=
