##TITLE=2,6-Dichlorobenzoic acid
##JCAMP-DX=4.24
##DATA TYPE=INFRARED SPECTRUM
##ORIGIN=EPA-IR VAPOR PHASE LIBRARY
##OWNER=SRD/NIST
Collection (C) 2018 copyright by the U.S. Secretary of Commerce
on behalf of the United States of America. All rights reserved.
##CAS REGISTRY NO=50-30-6
##MOLFORM=C 7 H 4 Cl 2 O 2
##$NIST SOURCE=MSDC-IR
##STATE=gas
##XUNITS=1/CM
##YUNITS=ABSORBANCE
##XFACTOR=1.
##YFACTOR=0.001
##DELTAX=1.92898
##FIRSTX=549.8
##LASTX=4000.7
##FIRSTY=6.272
##MAXX=4000.7
##MINX=549.759
##MAXY=0.067412
##MINY=0
##NPOINTS=1790
##XYDATA=(X++(Y..Y))
549.759 6.272 6.562 6.652 6.892 7.302 7.412 8.272 9.412 10.032 10.332
569.049 10.402 10.472 10.302 9.872 8.952 7.662 6.662 5.472 3.952 3.102
588.339 2.912 2.912 2.502 2.152 2.052 1.622 1.762 2.152 1.962 1.592
607.628 1.602 1.682 1.652 1.882 1.902 1.642 1.412 1.272 1.1854 1.035
626.918 1.1166 1.302 1.432 1.682 2.312 3.212 4.582 6.252 7.762 9.192
646.208 10.432 11.032 10.922 10.842 10.362 9.102 7.452 5.702 4.152 3.022
665.498 2.392 1.952 1.582 1.372 1.352 1.2274 1.2138 1.472 1.492 1.342
684.787 1.722 2.062 1.972 2.102 2.272 2.192 2.162 2.212 2.182 2.122
704.077 1.902 1.922 2.032 1.902 1.902 2.012 2.142 2.442 2.852 3.382
723.367 4.292 5.132 5.892 7.072 8.272 9.372 11.072 13.532 15.262 15.262
742.657 14.172 13.352 12.992 11.992 10.742 9.552 8.012 6.312 5.542 5.642
761.947 5.842 6.522 7.562 8.462 9.192 10.282 11.942 14.452 16.042 14.542
781.236 12.822 12.512 12.382 12.182 11.712 11.242 10.962 10.962 11.392 12.272
800.526 13.302 13.752 13.622 13.422 12.862 11.782 10.202 8.252 6.062 4.042
819.816 2.762 1.822 1.412 1.0043 0.8894 1.0131 0.8265 0.7736 0.8176 0.7996
839.106 0.7702 0.6506 0.5904 0.613 0.6758 0.8329 0.766 0.5882 0.5941 0.6025
858.395 0.4383 0.5612 0.5784 0.4709 0.5593 0.6342 0.5522 0.489 0.5371 0.5673
877.685 0.6579 0.7027 0.9402 1.0859 0.9084 0.9392 1.0336 0.802 0.7314 1.0241
896.975 0.9522 0.8864 0.9188 0.6769 0.4893 0.6971 0.9509 1.0067 1.051 0.9052
916.265 0.8747 0.977 0.7578 0.6365 0.7406 0.7797 0.8274 0.776 0.575 0.6949
935.555 0.8339 0.6231 0.61 0.7384 0.6796 0.6384 0.6414 0.8015 1.0373 1.0263
954.844 0.8683 0.7485 0.7393 0.8086 1.0877 1.1306 0.8946 0.7866 0.7747 0.7194
974.134 0.836 0.9014 0.9685 1.0069 0.7384 0.8078 0.8055 0.7809 0.9501 0.9431
993.424 0.9869 1.2 1.122 0.8594 0.9436 0.9827 1.1345 1.134 0.9591 1.282
1012.714 1.442 1.272 1.0985 1.292 1.702 1.972 1.872 1.782 2.162 2.642
1032.003 3.342 3.992 4.742 5.522 6.282 7.212 8.082 8.762 8.932 8.692
1051.293 8.212 7.292 6.462 5.562 4.592 4.312 4.082 3.552 3.282 3.452
1070.583 4.132 5.052 5.622 6.232 7.382 8.352 8.612 8.112 7.352 7.082
1089.873 7.112 6.832 6.272 5.372 4.942 5.352 5.982 6.102 7.172 9.772
1109.163 12.312 14.722 17.262 20.342 23.402 27.122 30.352 32.832 35.232 36.672
1128.452 36.372 34.792 33.012 30.002 25.892 21.562 17.462 13.882 10.812 8.542
1147.742 7.112 6.022 5.722 5.472 4.922 5.332 5.662 5.252 5.122 5.622
1167.032 5.902 6.102 6.712 7.732 9.072 10.502 12.462 14.312 16.532 19.212
1186.322 21.742 24.562 26.662 27.432 27.142 25.542 22.982 19.812 16.332 13.422
1205.611 10.232 6.952 5.072 3.822 3.362 2.902 2.702 2.662 2.462 2.692
1224.901 2.162 1.882 2.142 2.412 2.452 2.192 2.292 2.322 2.342 2.552
1244.191 2.732 2.832 2.962 2.872 2.912 3.202 3.042 3.062 3.352 3.392
1263.481 3.752 4.222 4.182 4.242 4.722 5.122 5.462 5.952 6.452 7.132
1282.771 7.962 8.762 9.522 10.362 11.162 11.912 12.462 12.762 12.592 11.952
1302.060 11.352 10.502 9.432 8.442 7.402 6.342 5.472 4.772 4.172 3.812
1321.350 3.682 3.582 3.582 3.692 3.822 4.032 4.282 4.572 4.832 5.082
1340.640 5.372 5.632 5.852 5.972 5.992 6.022 5.952 5.742 5.562 5.252
1359.930 4.802 4.442 4.092 3.572 3.122 2.812 2.552 2.322 2.102 1.952
1379.219 1.792 1.652 1.562 1.482 1.332 1.2232 1.1602 1.1247 1.1174 1.1131
1398.509 1.0967 1.0722 1.0615 1.1018 1.218 1.392 1.622 1.972 2.452 3.242
1417.799 4.432 6.002 8.032 10.512 13.342 16.152 18.522 20.172 21.102 21.232
1437.089 20.332 18.582 16.102 12.842 9.582 7.032 5.382 4.472 3.842 3.382
1456.378 3.022 2.722 2.492 2.312 2.172 1.912 1.692 1.612 1.572 1.502
1475.668 1.472 1.482 1.452 1.402 1.392 1.402 1.502 1.572 1.612 1.612
1494.958 1.552 1.512 1.432 1.412 1.442 1.462 1.412 1.362 1.392 1.352
1514.248 1.1462 1.0549 1.1157 1.0677 1.0194 1.0812 1.1484 1.1564 1.1206 1.1541
1533.538 1.2007 1.252 1.292 1.492 1.742 1.932 2.332 2.812 3.402 4.312
1552.827 5.392 6.772 8.422 10.112 11.752 13.192 14.272 14.862 14.982 14.462
1572.117 13.392 11.992 10.582 9.422 8.542 7.922 7.282 6.602 6.052 5.482
1591.407 4.812 4.082 3.322 2.682 2.222 1.922 1.702 1.582 1.562 1.522
1610.697 1.562 1.642 1.462 1.432 1.422 1.292 1.2188 1.1173 1.0772 1.0241
1629.986 1.0601 1.1578 1.1378 1.0425 1.0136 0.9502 0.8943 0.8626 0.8812 0.9499
1649.276 0.91 0.8821 0.8862 0.9816 1.0592 1.0096 1.0154 1.105 1.0852 0.9722
1668.566 0.9073 0.9069 0.8761 0.8618 0.8063 0.7171 0.6067 0.5049 0.6047 0.6791
1687.856 0.6964 0.6395 0.6372 0.7647 0.8747 0.9608 1.0441 1.1326 1.2097 1.332
1707.146 1.402 1.472 1.652 1.882 2.152 2.492 2.872 3.202 3.492 3.782
1726.435 4.032 4.182 4.322 4.382 4.352 4.242 4.132 4.032 3.862 3.692
1745.725 3.792 4.012 4.292 4.892 5.712 6.952 8.772 11.222 14.522 18.662
1765.015 23.792 29.842 36.552 43.502 50.642 57.272 62.982 66.922 67.412 63.332
1784.305 55.602 47.072 39.612 32.632 25.622 19.232 14.322 10.732 8.342 7.012
1803.594 6.242 5.862 5.782 5.632 5.502 5.482 5.502 5.422 5.262 5.162
1822.884 5.012 4.732 4.432 4.032 3.522 3.062 2.642 2.302 2.012 1.832
1842.174 1.692 1.612 1.642 1.672 1.692 1.702 1.702 1.592 1.582 1.562
1861.464 1.402 1.312 1.217 1.1349 0.9943 0.8606 0.7862 0.7562 0.7048 0.6151
1880.754 0.5401 0.5234 0.546 0.5418 0.572 0.547 0.5311 0.574 0.577 0.5433
1900.043 0.5414 0.5552 0.5984 0.6395 0.6423 0.6388 0.6132 0.602 0.5563 0.5888
1919.333 0.6874 0.7668 0.8465 0.8722 0.9146 0.9455 0.9219 1.0225 1.0885 0.9775
1938.623 0.912 0.9084 0.9092 0.8924 0.8579 0.8158 0.781 0.7385 0.7237 0.6498
1957.913 0.5679 0.6045 0.6109 0.6123 0.6073 0.5885 0.4889 0.4248 0.4537 0.4656
1977.202 0.4688 0.3665 0.3893 0.4242 0.4132 0.3871 0.26825 0.27524 0.3594 0.412
1996.492 0.401 0.415 0.3502 0.29176 0.29456 0.29632 0.3657 0.35 0.3489 0.32513
2015.782 0.26061 0.25789 0.31308 0.32945 0.26729 0.23445 0.25872 0.29382 0.28323 0.2288
2035.072 0.243667 0.32523 0.32815 0.31425 0.27704 0.247616 0.33428 0.3838 0.26099 0.1637
2054.362 0.248889 0.3369 0.33264 0.3486 0.30478 0.26004 0.27215 0.33532 0.3757 0.29474
2073.651 0.29199 0.29812 0.30757 0.29387 0.29167 0.27683 0.28491 0.4031 0.4019 0.3661
2092.941 0.32934 0.29444 0.3563 0.3931 0.3677 0.3689 0.3946 0.3817 0.32158 0.28092
2112.231 0.29019 0.2195 0.2167 0.31686 0.33748 0.3697 0.3368 0.3824 0.3966 0.27982
2131.521 0.2941 0.32528 0.296 0.31383 0.31932 0.32738 0.4156 0.4339 0.3393 0.2971
2150.810 0.32902 0.32073 0.31044 0.3114 0.3549 0.4196 0.4344 0.3859 0.3928 0.464
2170.100 0.427 0.4015 0.4086 0.3662 0.3651 0.32453 0.26502 0.32801 0.46 0.4457
2189.390 0.33688 0.2958 0.2317 0.2166 0.32251 0.4145 0.4532 0.4489 0.407 0.463
2208.680 0.4999 0.3946 0.3787 0.4192 0.3798 0.3951 0.4003 0.3681 0.3715 0.32066
2227.970 0.28522 0.28286 0.31588 0.3842 0.3528 0.3456 0.4334 0.4276 0.392 0.3401
2247.259 0.3494 0.3768 0.32552 0.3526 0.34028 0.3779 0.4307 0.4209 0.4666 0.4314
2266.549 0.303 0.28719 0.30198 0.23279 0.25347 0.26832 0.27206 0.4026 0.3783 0.27396
2285.839 0.33832 0.3832 0.403 0.3948 0.3499 0.4058 0.4588 0.4828 0.6003 0.5675
2305.129 0.3619 0.4145 0.5842 0.6084 0.5968 0.4995 0.499 0.5951 0.652 0.7263
2324.418 0.6548 0.5801 0.527 0.4587 0.4142 0.4969 0.5892 0.4902 0.5505 0.677
2343.708 0.6088 0.4928 0.4685 0.4032 0.4296 0.5461 0.563 0.5717 0.4752 0.5438
2362.998 0.6388 0.5176 0.5082 0.5033 0.5109 0.619 0.5926 0.5322 0.5281 0.5001
2382.288 0.4643 0.3781 0.29269 0.31228 0.4126 0.3914 0.353 0.3957 0.353 0.26752
2401.578 0.3637 0.4933 0.4297 0.34041 0.25729 0.226 0.31504 0.4077 0.3682 0.27436
2420.867 0.3498 0.4495 0.4108 0.3478 0.3666 0.3829 0.31746 0.31532 0.3703 0.4028
2440.157 0.3696 0.3489 0.32073 0.4285 0.4029 0.25692 0.29374 0.29536 0.32864 0.3808
2459.447 0.4179 0.3677 0.26702 0.25791 0.26255 0.3742 0.4117 0.27465 0.29417 0.3494
2478.737 0.3435 0.3011 0.3004 0.28175 0.26784 0.26525 0.23636 0.33491 0.4506 0.4175
2498.026 0.3972 0.33199 0.31382 0.4159 0.3644 0.3545 0.3542 0.3553 0.34158 0.26936
2517.316 0.28366 0.27479 0.2286 0.2259 0.2268 0.25988 0.3455 0.29754 0.2274 0.30502
2536.606 0.3655 0.3721 0.4208 0.33416 0.31585 0.3761 0.29626 0.27444 0.29918 0.2016
2555.896 0.1653 0.29091 0.30469 0.27762 0.30731 0.3477 0.3539 0.3796 0.29824 0.158
2575.186 0.243914 0.32991 0.23809 0.1866 0.29479 0.33554 0.2754 0.2051 0.173 0.2656
2594.475 0.33923 0.28775 0.201 0.2286 0.25659 0.23296 0.27822 0.29027 0.26176 0.28051
2613.765 0.31771 0.33582 0.32988 0.26208 0.23433 0.3486 0.33488 0.26805 0.27977 0.30379
2633.055 0.26652 0.25761 0.3943 0.3558 0.247456 0.245223 0.3193 0.4109 0.3602 0.1987
2652.345 0.23325 0.33307 0.246348 0.1821 0.21 0.3945 0.4329 0.4328 0.4413 0.33534
2671.634 0.4348 0.3457 0.2004 0.27833 0.27451 0.25351 0.25689 0.31992 0.34123 0.29046
2690.924 0.3694 0.4399 0.4091 0.351 0.29616 0.29843 0.3903 0.4827 0.4712 0.4242
2710.214 0.3662 0.2628 0.1955 0.2015 0.26236 0.1558 0.2159 0.4426 0.3685 0.3128
2729.504 0.246792 0.2252 0.3511 0.3755 0.28979 0.25312 0.2276 0.25886 0.29258 0.29856
2748.794 0.26918 0.26315 0.32103 0.30304 0.27211 0.32447 0.412 0.3677 0.25645 0.2191
2768.083 0.24021 0.247026 0.31777 0.31803 0.234 0.1659 0.2216 0.25327 0.134 0.2077
2787.373 0.30047 0.33207 0.32826 0.27008 0.26895 0.2129 0.1849 0.26041 0.32834 0.29999
2806.663 0.32209 0.3987 0.3865 0.3841 0.3987 0.3805 0.3723 0.32007 0.3958 0.5073
2825.953 0.4554 0.31014 0.28356 0.33354 0.27726 0.28989 0.3871 0.4682 0.4356 0.3887
2845.242 0.2174 0.096 0.2274 0.31993 0.3727 0.3957 0.3063 0.26147 0.3636 0.33698
2864.532 0.33356 0.4124 0.3537 0.3683 0.3694 0.33034 0.29757 0.28861 0.3217 0.3445
2883.822 0.31016 0.26602 0.2101 0.2017 0.3273 0.31896 0.25548 0.31185 0.24496 0.27198
2903.112 0.34022 0.27577 0.4777 0.6385 0.6463 0.5002 0.3821 0.4496 0.4879 0.4672
2922.401 0.4407 0.4225 0.4549 0.4319 0.27427 0.28488 0.32905 0.33807 0.31288 0.30359
2941.691 0.34044 0.4481 0.4774 0.3899 0.3543 0.452 0.5068 0.4135 0.3853 0.3984
2960.981 0.5079 0.4277 0.2258 0.3477 0.4102 0.30979 0.32094 0.4118 0.5201 0.5648
2980.271 0.5822 0.6009 0.4612 0.4013 0.4494 0.5273 0.6526 0.3677 0.23976 0.28791
2999.561 0.28359 0.3494 0.32685 0.3446 0.3552 0.3305 0.3691 0.5423 0.5664 0.4309
3018.850 0.5086 0.4616 0.32356 0.3859 0.3983 0.347 0.4085 0.5057 0.397 0.4183
3038.140 0.407 0.25637 0.32042 0.4238 0.4589 0.4848 0.5573 0.5406 0.5164 0.7063
3057.430 0.9193 0.9861 1.0113 1.0241 1.0609 1.1487 1.2298 1.1581 1.0433 1.242
3076.720 1.342 1.1884 1.0408 1.0186 1.084 0.9879 0.8892 0.8335 0.8094 0.7748
3096.009 0.6748 0.6262 0.5806 0.5987 0.6088 0.5929 0.5503 0.4642 0.5627 0.5737
3115.299 0.46 0.4807 0.6016 0.7753 0.6969 0.5274 0.4958 0.4453 0.4964 0.5622
3134.589 0.5426 0.6191 0.5317 0.29476 0.29933 0.3883 0.4556 0.28993 0.084 0.1445
3153.879 0.2485 0.250024 0.30965 0.2762 0.122 0.23488 0.27135 0.1941 0.109 0.1865
3173.169 0.4027 0.3663 0.33173 0.2126 0.083 0.1923 0.097 0 0.26307 0.2361
3192.458 0.071 0.1892 0.26067 0.1752 0.14 0.28507 0.2261 0.1675 0.27329 0.27249
3211.748 0.401 0.3464 0.1547 0.156 0.2368 0.2758 0.247597 0.3452 0.34157 0.1843
3231.038 0.1596 0.159 0.1507 0.2253 0.174 0.27047 0.27919 0.2817 0.30876 0.23669
3250.328 0.33048 0.1995 0.125 0.29444 0.33323 0.3562 0.4861 0.5187 0.3677 0.28864
3269.617 0.29758 0.2305 0.29356 0.28959 0.27814 0.4767 0.511 0.4149 0.32875 0.27827
3288.907 0.2622 0.25528 0.32118 0.3507 0.33409 0.1491 0.2116 0.3611 0.3499 0.2238
3308.197 0.099 0.23954 0.3492 0.2232 0.085 0.258 0.26571 0.2002 0.26343 0.3637
3327.487 0.475 0.4379 0.4116 0.3614 0.2319 0.3444 0.3926 0.3687 0.28076 0.2278
3346.777 0.28811 0.1559 0.23659 0.31822 0.1951 0.26318 0.241277 0.27039 0.3687 0.1515
3366.066 0.1544 0.243313 0.26641 0.2623 0.112 0.126 0.1629 0.2179 0.168 0.23792
3385.356 0.4033 0.33401 0.3637 0.488 0.4267 0.3559 0.4796 0.5256 0.4799 0.4271
3404.646 0.3845 0.3907 0.3194 0.27748 0.4749 0.5112 0.30842 0.1856 0.3564 0.4246
3423.936 0.31713 0.4325 0.404 0.30144 0.134 0.06 0.1662 0.202 0.4458 0.4378
3443.225 0.34028 0.4723 0.3548 0.1544 0.29675 0.4726 0.29451 0.138 0.31688 0.4274
3462.515 0.32392 0.1993 0.1552 0.2097 0.3601 0.4785 0.3997 0.4113 0.1805 0.058
3481.805 0.2175 0.33828 0.4564 0.3891 0.4063 0.4067 0.362 0.28467 0.134 0.2147
3501.095 0.4348 0.5399 0.5501 0.4691 0.4699 0.5303 0.5389 0.6487 0.7971 0.7219
3520.385 0.6387 0.7798 0.8445 0.9161 1.0782 1.2173 1.252 1.1671 1.292 1.512
3539.674 1.702 2.032 2.382 2.772 3.742 5.162 7.262 10.142 13.522 17.142
3558.964 20.322 22.492 23.382 23.242 22.492 21.392 19.212 15.942 12.012 8.322
3578.254 5.652 3.672 2.382 1.712 1.392 1.2055 1.071 1.0617 0.8649 0.6252
3597.544 0.6761 0.7161 0.7625 0.8814 0.9761 1.0852 1.1306 1.1126 1.1662 1.1135
3616.833 1.085 1.0266 0.685 0.4955 0.627 0.6806 0.6734 0.6194 0.5022 0.4156
3636.123 0.4067 0.3558 0.3896 0.4851 0.3819 0.25537 0.30285 0.3961 0.4807 0.5594
3655.413 0.3133 0.085 0.1551 0.3612 0.4298 0.29239 0.33098 0.201 0.025 0.138
3674.703 0.23435 0.27651 0.32848 0.4264 0.3486 0.29575 0.3913 0.3868 0.2626 0.2158
3693.993 0.4115 0.4761 0.4289 0.3899 0.3351 0.27836 0.241219 0.3644 0.4891 0.5185
3713.282 0.5262 0.4638 0.379 0.3725 0.4336 0.5109 0.4136 0.24091 0.1675 0.2053
3732.572 0.26132 0.1774 0.108 0.4199 0.631 0.5817 0.4281 0.29559 0.3472 0.31549
3751.862 0.2193 0.244887 0.31134 0.3611 0.29475 0.128 0.1595 0.26549 0.158 0.084
3771.152 0.1499 0.1557 0.33192 0.30864 0.1731 0.29196 0.3807 0.32489 0.3728 0.32108
3790.441 0.1568 0.169 0.3524 0.4283 0.29152 0.1739 0.093 0.1477 0.2082 0.33639
3809.731 0.3729 0.31086 0.31237 0.3722 0.3511 0.28759 0.25918 0.3871 0.3936 0.23782
3829.021 0.23872 0.3621 0.515 0.33551 0.3899 0.4718 0.26887 0.2255 0.33188 0.4532
3848.311 0.3994 0.30988 0.14 0.2235 0.34012 0.32208 0.3611 0.4075 0.4561 0.3483
3867.601 0.3662 0.4222 0.29773 0.3798 0.3896 0.27997 0.4114 0.29761 0.23484 0.3929
3886.890 0.4181 0.5534 0.65 0.4828 0.3458 0.31718 0.1775 0.061 0.29014 0.3881
3906.180 0.3744 0.4499 0.4531 0.29126 0.1561 0.131 0.136 0.4209 0.4974 0.247775
3925.470 0.23714 0.31285 0.2369 0.26059 0.23207 0.173 0.23974 0.33566 0.33599 0.30348
3944.760 0.25603 0.1443 0.1698 0.3537 0.3967 0.3431 0.4888 0.4307 0.24089 0.2682
3964.049 0.3496 0.3566 0.29842 0.1777 0.1434 0.23575 0.26025 0.3507 0.2314 0.25609
3983.339 0.542 0.33844 0.115 0.246925 0.4088 0.3617 0.1877 0.1661 0.29145 0.3592
##END=
