##TITLE=5-Heptylresorcinol
##JCAMP-DX=4.24
##DATA TYPE=INFRARED SPECTRUM
##ORIGIN=EPA-IR VAPOR PHASE LIBRARY
##OWNER=SRD/NIST
Collection (C) 2018 copyright by the U.S. Secretary of Commerce
on behalf of the United States of America. All rights reserved.
##CAS REGISTRY NO=500-67-4
##MOLFORM=C13 H20 O2
##$NIST SOURCE=MSDC-IR
##STATE=gas
##XUNITS=1/CM
##YUNITS=ABSORBANCE
##XFACTOR=1.
##YFACTOR=0.001
##DELTAX=1.92898
##FIRSTX=549.8
##LASTX=4000.7
##FIRSTY=2.3974
##MAXX=4000.7
##MINX=549.759
##MAXY=0.0775074
##MINY=0
##NPOINTS=1790
##XYDATA=(X++(Y..Y))
549.759 2.3974 2.2974 2.0974 2.4674 2.7374 2.6074 2.2374 2.3274 2.6774 2.6974
569.049 2.9374 3.0074 2.5874 2.4274 2.4274 2.2374 2.1674 2.2274 2.2674 2.3774
588.339 2.2974 2.2874 2.2074 2.1374 2.0374 1.9374 1.9274 2.0174 2.0674 2.1874
607.628 2.2474 1.9174 1.7474 1.6274 1.4874 1.6974 1.9274 1.8074 1.7274 1.6074
626.918 1.5274 1.4074 1.2274 1.0063 1.0674 1.3974 1.5774 1.8374 1.8974 2.0074
646.208 2.2474 2.2474 2.1974 1.7474 1.3974 1.5574 1.7574 1.7174 1.8574 2.2474
665.498 2.5474 2.9674 3.3074 3.8374 4.7374 6.0774 7.4474 8.5674 9.7074 10.3474
684.787 10.3874 9.8974 8.6274 7.3074 6.2774 5.2474 4.3774 3.5674 3.0074 2.6774
704.077 2.2074 1.8974 1.8974 1.8874 1.8574 1.8874 1.7874 1.8574 2.0774 1.9774
723.367 1.8174 1.8674 2.0874 2.0774 1.7274 1.4874 1.5174 1.5774 1.4974 1.5774
742.657 1.4874 1.2374 1.3374 1.2774 1.3474 1.4374 1.5074 1.6974 1.4474 1.2074
761.947 1.3574 1.5674 1.5674 1.4574 1.3574 1.3574 1.5174 1.5774 1.6774 1.8674
781.236 1.7974 1.8174 2.1074 2.4074 2.6774 2.8274 3.0874 3.4774 3.7374 3.8774
800.526 4.1774 4.6174 4.7474 5.0174 5.6674 6.1874 6.7874 7.3274 7.8474 8.9274
819.816 10.1874 11.2074 12.0774 12.3574 12.1374 11.5574 10.8974 10.3774 10.0874 10.0074
839.106 9.8374 9.8274 9.7874 9.6674 9.5974 9.2674 8.6574 7.8574 7.1174 6.5674
858.395 5.8274 5.1274 4.5674 4.0074 3.7774 3.7174 3.4474 3.0874 2.8874 3.1174
877.685 3.1374 2.8774 2.8474 2.6474 2.4874 2.5074 2.7374 2.8474 2.9074 2.8674
896.975 2.6074 2.5774 2.6874 2.7774 2.7374 2.6774 2.8074 2.8874 2.7974 2.9774
916.265 3.0274 2.8774 2.9774 3.0274 2.9874 2.8874 2.8074 2.8874 2.9374 2.9074
935.555 2.9474 3.0874 3.1874 3.1474 3.1374 3.2474 3.3474 3.4674 3.6774 3.8974
954.844 3.9874 4.2774 4.6874 5.0674 5.7774 6.4674 7.0674 7.7774 8.7674 10.0074
974.134 11.2974 12.8374 14.6374 16.5674 18.3574 19.8774 20.7674 20.8974 20.9374 20.7074
993.424 19.7574 18.4074 16.8274 15.2774 13.5274 11.7774 10.2474 9.0374 8.1574 7.3974
1012.714 6.9174 6.2974 5.8374 5.8774 5.6474 4.9874 4.7174 4.5974 4.4274 4.2574
1032.003 3.6474 3.1874 3.1474 3.3074 3.0174 2.5874 2.4874 2.3574 2.6774 2.7674
1051.293 2.2574 2.0274 1.9374 1.9374 2.1174 2.1474 2.2874 2.6574 2.7874 2.6574
1070.583 2.3674 2.0174 2.2774 2.2274 2.1574 2.4974 3.0074 3.1574 3.2674 3.4974
1089.873 3.5974 4.0774 4.6674 5.3874 5.5574 5.7474 6.1274 6.4774 7.4674 8.8074
1109.163 10.0574 11.4174 13.0474 14.8574 16.9474 19.8074 23.6074 27.5774 30.9374 34.0174
1128.452 37.2974 40.9074 44.0974 46.8874 49.5174 51.8174 54.5174 56.5874 57.7374 58.7574
1147.742 58.9274 57.4774 55.1974 52.2474 48.1174 43.6774 39.7474 36.2874 33.1174 30.8974
1167.032 29.0574 27.5774 26.4774 25.4774 25.0574 24.2374 23.2374 22.2574 20.5474 18.8474
1186.322 17.4574 16.1674 15.7274 16.0174 17.4374 19.5474 22.3874 25.8874 28.7374 30.5474
1205.611 31.8074 32.6174 31.9574 29.9974 27.6974 24.9774 21.8474 19.1674 16.5474 13.7374
1224.901 11.7274 10.5374 9.2574 8.0674 7.2274 6.8274 6.4674 5.9674 5.6974 5.6374
1244.191 5.4774 5.3374 5.3874 5.7674 5.8974 5.7974 5.9074 6.0274 6.5674 6.9974
1263.481 7.1874 7.6774 7.9774 8.3974 9.2374 10.0774 10.9174 11.8574 12.8974 13.9074
1282.771 14.8574 15.8374 16.6174 17.0874 17.1874 16.9074 16.4574 15.8374 15.0874 14.4874
1302.060 14.1874 14.0974 14.2374 14.6074 14.9874 15.4374 15.9474 16.4074 16.8374 17.1474
1321.350 17.4274 17.7074 17.8474 17.9674 18.2174 18.3874 18.4974 18.5974 18.5774 18.5174
1340.640 18.4474 18.2374 17.8974 17.4574 16.6974 15.6974 14.6274 13.4774 12.1774 10.8874
1359.930 9.6874 8.6374 7.7574 6.9374 6.1974 5.6474 5.1874 4.8274 4.6974 4.5874
1379.219 4.4374 4.3974 4.3174 4.2274 4.1174 3.9474 3.7474 3.5774 3.5174 3.4774
1398.509 3.4574 3.4674 3.4874 3.6174 3.7974 3.9774 4.1874 4.4574 4.8274 5.2674
1417.799 5.6774 6.1574 6.7774 7.3374 7.9374 8.5474 9.1774 9.9174 10.6774 11.5174
1437.089 12.4374 13.3774 14.4374 15.4574 16.4374 17.3574 18.1374 18.8274 19.5874 20.3474
1456.378 21.1074 22.1774 23.3074 24.2374 24.9574 25.3474 25.3674 24.9974 24.0874 22.9374
1475.668 21.4674 19.7874 18.2474 16.8074 15.5974 14.6574 14.0074 13.3874 12.8374 12.4074
1494.958 12.1274 11.8674 11.5474 11.2774 10.9474 10.6774 10.4374 10.2674 10.0574 9.7574
1514.248 9.3974 8.9374 8.4374 7.8474 7.2874 6.7874 6.3074 5.8874 5.4974 5.2074
1533.538 4.9174 4.6374 4.2874 4.0174 3.9174 3.7774 3.7674 3.7974 3.8074 3.8674
1552.827 3.9474 4.1374 4.4474 4.7474 5.0774 5.5274 6.1474 6.8874 7.5974 8.6474
1572.117 10.0074 11.5374 13.4874 15.8874 18.7174 21.9374 25.5674 29.7574 34.3774 39.1674
1591.407 43.9374 48.4174 52.5174 56.0674 58.9874 61.1774 62.5174 63.0874 62.9274 62.2774
1610.697 61.2974 60.0074 58.2874 56.0274 53.3074 50.2774 46.8974 43.1374 39.2074 35.3174
1629.986 31.4574 27.6174 24.1774 20.9974 18.1074 15.6574 13.5574 11.8174 10.3274 9.1574
1649.276 8.2074 7.4174 6.7474 6.1974 5.7874 5.4174 5.1374 4.9074 4.6474 4.3674
1668.566 4.1474 3.9374 3.7874 3.6974 3.4674 3.2574 3.0974 2.9074 2.7074 2.5874
1687.856 2.4774 2.3474 2.2774 2.2474 2.1274 2.0674 2.0074 1.8474 1.7474 1.7274
1707.146 1.6474 1.5874 1.5874 1.5474 1.5174 1.3974 1.3174 1.3474 1.2974 1.3074
1726.435 1.2974 1.1874 1.1174 1.0222 0.9453 0.9926 0.9425 0.8155 0.8012 0.7674
1745.725 0.7511 0.7311 0.6658 0.581 0.6134 0.6688 0.6042 0.6162 0.6246 0.6135
1765.015 0.5831 0.4885 0.4951 0.5201 0.4988 0.5113 0.54 0.5719 0.5683 0.5534
1784.305 0.4677 0.3905 0.4372 0.4398 0.4167 0.4681 0.4288 0.439 0.4897 0.5207
1803.594 0.5291 0.4824 0.4965 0.4663 0.4179 0.41 0.4667 0.4501 0.3826 0.4151
1822.884 0.429 0.4574 0.4336 0.3641 0.3267 0.3428 0.4227 0.3917 0.3892 0.3741
1842.174 0.294 0.3424 0.3886 0.391 0.3938 0.3227 0.2793 0.3177 0.3452 0.2632
1861.464 0.2 0.2135 0.2157 0.2514 0.1862 0.16579 0.2172 0.2669 0.32 0.249
1880.754 0.1945 0.25 0.2571 0.2837 0.3437 0.2605 0.1826 0.1899 0.2414 0.2373
1900.043 0.2572 0.3106 0.3376 0.3259 0.2446 0.2646 0.2962 0.2283 0.1858 0.1701
1919.333 0.15701 0.1827 0.2184 0.273 0.306 0.2377 0.2068 0.263 0.2627 0.2841
1938.623 0.269 0.2435 0.2319 0.1893 0.2457 0.2513 0.2293 0.2748 0.2569 0.2115
1957.913 0.2502 0.2887 0.3153 0.3694 0.2871 0.2755 0.3413 0.3274 0.3536 0.3922
1977.202 0.3532 0.3655 0.4015 0.3665 0.3487 0.4162 0.5022 0.4714 0.399 0.3695
1996.492 0.3597 0.3532 0.3622 0.3096 0.2669 0.3004 0.3469 0.3745 0.3299 0.3231
2015.782 0.341 0.2397 0.2697 0.3076 0.3095 0.3762 0.3667 0.421 0.4844 0.3887
2035.072 0.3128 0.3176 0.3168 0.3416 0.3322 0.3229 0.3198 0.3222 0.3017 0.3497
2054.362 0.3981 0.3869 0.3738 0.2833 0.2801 0.3379 0.3476 0.3305 0.2891 0.3256
2073.651 0.3552 0.3727 0.3633 0.3272 0.3943 0.3906 0.2817 0.2765 0.3107 0.3541
2092.941 0.3807 0.4259 0.4946 0.5235 0.5296 0.5323 0.5295 0.5206 0.5734 0.5713
2112.231 0.6012 0.7083 0.7116 0.6653 0.6572 0.6969 0.7187 0.7076 0.735 0.792
2131.521 0.7851 0.723 0.6828 0.7146 0.7944 0.8246 0.8373 0.7711 0.7228 0.7133
2150.810 0.6914 0.7043 0.7707 0.7792 0.7787 0.7209 0.6483 0.6669 0.6662 0.6802
2170.100 0.6208 0.5585 0.5409 0.5679 0.5786 0.5705 0.6152 0.5994 0.5672 0.5037
2189.390 0.5139 0.5728 0.4802 0.4183 0.4488 0.3789 0.3324 0.4744 0.4896 0.4472
2208.680 0.4355 0.3959 0.4602 0.5364 0.5063 0.4309 0.3993 0.4176 0.4505 0.4666
2227.970 0.4733 0.4938 0.5234 0.5043 0.4385 0.4038 0.4122 0.4271 0.5313 0.5075
2247.259 0.3783 0.3747 0.4207 0.4476 0.4656 0.5313 0.6145 0.5799 0.475 0.4669
2266.549 0.6078 0.6556 0.5622 0.5541 0.6412 0.6334 0.6321 0.7039 0.7305 0.7363
2285.839 0.7432 0.7938 0.8875 0.8977 0.7735 0.7431 0.7249 0.6821 0.6988 0.7126
2305.129 0.7502 0.8265 0.8882 0.8946 0.8912 0.903 0.8813 0.8462 0.8817 0.9086
2324.418 0.8871 0.8656 0.8922 0.8946 0.9245 0.8984 0.854 0.8684 0.8639 0.8545
2343.708 0.8579 0.8501 0.737 0.6717 0.7054 0.7575 0.7312 0.6698 0.655 0.6936
2362.998 0.6986 0.7467 0.8215 0.7798 0.7365 0.7117 0.7436 0.8462 0.8194 0.6855
2382.288 0.7174 0.739 0.6639 0.7355 0.7666 0.7715 0.8994 0.8451 0.6798 0.6884
2401.578 0.7404 0.7457 0.7562 0.7741 0.7984 0.8257 0.9018 0.9092 0.7695 0.7961
2420.867 0.8377 0.8415 0.8684 0.8633 0.8709 0.9002 0.8483 0.8043 0.9399 0.9355
2440.157 0.9013 0.9086 0.9272 0.9596 1.017 1.0437 0.9554 0.9783 1.0197 1.0525
2459.447 1.0974 1.0774 1.0874 1.1974 1.1574 1.0361 1.1174 1.1574 1.1174 1.1174
2478.737 1.1074 1.0874 1.1074 1.0477 1.0423 1.1674 1.1674 1.0498 0.9712 0.9607
2498.026 1.0136 1.0874 1.1074 1.0342 0.8383 0.7481 0.8463 0.7839 0.7281 0.7559
2517.316 0.7147 0.675 0.6488 0.5768 0.572 0.631 0.5357 0.5181 0.6552 0.6581
2536.606 0.5834 0.5792 0.5211 0.5618 0.5831 0.5538 0.5468 0.4976 0.4989 0.4964
2555.896 0.4969 0.5276 0.6344 0.6459 0.6598 0.6938 0.6264 0.6158 0.6033 0.4772
2575.186 0.465 0.5632 0.6228 0.6422 0.6853 0.7265 0.6713 0.649 0.706 0.7087
2594.475 0.6351 0.6386 0.6285 0.5757 0.6341 0.7026 0.8058 0.7856 0.6837 0.7232
2613.765 0.8061 0.804 0.8098 0.8445 0.8631 0.87 0.8885 0.8761 0.8806 0.9142
2633.055 0.8949 0.9348 1.0099 1.0105 0.9538 0.9629 0.985 0.99 0.9719 0.9448
2652.345 0.9826 0.9721 1.0458 1.0511 0.9229 0.9399 0.9928 0.9896 1.0013 1.0231
2671.634 1.044 1.1274 1.2674 1.2574 1.1674 1.1174 1.0032 0.9933 1.0077 0.984
2690.924 0.9247 0.8449 0.8526 0.9292 0.9822 1.0448 1.0158 0.989 0.9172 0.8406
2710.214 0.9116 0.9884 1.0325 0.979 0.8954 0.897 0.8809 0.9436 1.0774 1.1074
2729.504 1.0774 1.0974 1.1574 1.2174 1.2274 1.2274 1.2974 1.3474 1.3274 1.3374
2748.794 1.3674 1.2674 1.2074 1.1774 1.2174 1.3274 1.3774 1.3874 1.3674 1.3174
2768.083 1.4274 1.5674 1.5974 1.6774 1.6774 1.5974 1.6374 1.8374 1.9774 2.0574
2787.373 2.0474 1.9974 1.9874 2.0874 2.2474 2.2774 2.2674 2.4174 2.4874 2.4874
2806.663 2.5974 2.7174 2.8774 3.0774 3.2374 3.3274 3.4674 3.6374 3.8374 4.0374
2825.953 4.2574 4.5674 4.7874 5.0174 5.3174 5.7474 6.2374 6.7674 7.5374 8.4274
2845.242 9.4274 10.6674 12.3874 14.5674 16.7274 19.1174 21.7774 24.3574 26.5974 28.2674
2864.532 29.2674 29.4374 28.8774 27.8874 26.6174 25.2574 23.9074 22.8174 22.0474 21.2474
2883.822 20.4474 19.8274 19.3074 18.6074 18.1974 18.0774 18.1574 18.7174 19.5774 20.5974
2903.112 21.9774 23.5474 25.2774 27.3574 29.5574 32.1174 35.0274 38.4074 42.4674 47.1374
2922.401 52.2174 57.4574 62.9274 68.0874 72.4474 75.6474 77.3574 77.5074 76.1374 73.3474
2941.691 69.3874 64.3874 58.7874 53.0774 47.6574 42.9474 39.1474 36.2574 34.3474 33.4174
2960.981 33.2174 33.4274 33.5874 33.2674 32.2074 30.3074 27.6574 24.4374 21.1074 18.0774
2980.271 15.6174 13.6074 11.8874 10.4274 9.2674 8.4074 7.7074 7.2374 6.7874 6.2774
2999.561 5.8474 5.6174 5.4874 5.3674 5.1774 5.0574 5.1874 5.4974 5.6874 5.8574
3018.850 6.1574 6.3774 6.6974 6.8474 6.9274 6.9374 6.6874 6.4374 6.2474 5.9974
3038.140 5.6574 5.4674 5.3774 5.2974 5.1974 4.9374 4.6874 4.5874 4.3874 4.0774
3057.430 3.8474 3.7074 3.5174 3.2474 3.1374 2.9774 2.6774 2.5874 2.4174 2.1774
3076.720 2.1874 2.1174 1.9774 1.8774 1.7174 1.6674 1.6574 1.5374 1.4874 1.4074
3096.009 1.3174 1.3774 1.3274 1.1574 1.0386 0.8763 1.0225 1.1174 0.9743 1.0481
3115.299 1.061 0.9012 0.9071 1.0363 0.9113 0.7989 0.8211 0.8256 0.8472 0.7785
3134.589 0.6021 0.524 0.6018 0.6693 0.5556 0.5596 0.7061 0.6799 0.5007 0.5361
3153.879 0.649 0.6108 0.5887 0.5209 0.497 0.598 0.5736 0.6504 0.6531 0.537
3173.169 0.4445 0.4327 0.5524 0.4714 0.4055 0.4838 0.4604 0.4714 0.4827 0.4727
3192.458 0.5789 0.3804 0.3169 0.5555 0.5074 0.3836 0.4478 0.4123 0.3699 0.3813
3211.748 0.3413 0.4975 0.5633 0.3981 0.3194 0.4614 0.5581 0.4106 0.339 0.405
3231.038 0.4194 0.359 0.3697 0.3688 0.4287 0.4464 0.4083 0.3732 0.3939 0.3988
3250.328 0.2736 0.2784 0.3285 0.3848 0.4141 0.387 0.2764 0.2771 0.2598 0.1964
3269.617 0.2212 0.2472 0.3424 0.3597 0.2971 0.1858 0.2704 0.3028 0.1962 0.2952
3288.907 0.3527 0.1954 0.14602 0.3308 0.3779 0.3399 0.3061 0.3107 0.2301 0.2304
3308.197 0.4114 0.3511 0.2842 0.3962 0.4615 0.4127 0.3872 0.3746 0.3284 0.4256
3327.487 0.5925 0.7266 0.7534 0.8513 0.9156 0.767 0.8031 0.8395 0.7998 0.6865
3346.777 0.6016 0.6058 0.5118 0.5235 0.6378 0.7708 0.8238 0.7224 0.6885 0.6986
3366.066 0.8027 0.8569 0.6487 0.6238 0.6474 0.6915 0.695 0.5902 0.4982 0.4446
3385.356 0.5128 0.5752 0.6568 0.662 0.5034 0.3683 0.3775 0.4547 0.5096 0.3785
3404.646 0.4162 0.6148 0.4008 0.16728 0.3088 0.358 0.3147 0.4396 0.6447 0.5709
3423.936 0.4817 0.5821 0.5625 0.6808 0.5003 0.3303 0.3059 0.2385 0.4291 0.5216
3443.225 0.4224 0.3166 0.374 0.3696 0.2991 0.3644 0.3567 0.2973 0.2832 0.2013
3462.515 0.1703 0.16589 0.1819 0.1998 0.2574 0.2546 0.2956 0.3751 0.3876 0.3601
3481.805 0.2526 0.2844 0.2372 0.070075 0.11284 0.16418 0.0165 0.073811 0.2244 0.3378
3501.095 0.398 0.2712 0.11555 0.14394 0.2844 0.4172 0.4283 0.3786 0.3612 0.1829
3520.385 0.0337 0.1759 0.12302 0.0479 0.237 0.3152 0.3545 0.3219 0.2909 0.18
3539.674 0.1756 0.1809 0.08539 0.14004 0.16339 0 0.0466 0.1677 0.1975 0.202
3558.964 0.16663 0.3387 0.3193 0.13919 0.14357 0.2808 0.468 0.5266 0.3884 0.3177
3578.254 0.3793 0.3804 0.398 0.4122 0.3089 0.3158 0.3686 0.5583 0.6244 0.4515
3597.544 0.4323 0.6381 0.7856 0.7157 0.681 0.785 0.9938 1.2974 1.4774 1.4274
3616.833 1.5374 1.7274 2.0274 2.4474 2.9574 3.6774 4.6274 5.8374 7.2574 9.3074
3636.123 12.0974 15.7574 20.4074 25.8874 32.1474 38.8274 45.0774 49.3574 50.5674 48.4874
3655.413 43.4774 36.0974 27.5774 19.7474 13.7774 9.7974 6.9774 5.0274 3.8774 2.9374
3674.703 2.1974 1.7674 1.3774 1.0974 0.9973 0.8776 0.8648 0.6918 0.5241 0.5198
3693.993 0.4763 0.4276 0.3595 0.3286 0.2407 0.2395 0.3244 0.4157 0.3887 0.3216
3713.282 0.3171 0.2277 0.3658 0.3055 0.08338 0.11553 0.2225 0.3169 0.2577 0.14069
3732.572 0.039 0.10736 0.3559 0.4719 0.3575 0.2826 0.3285 0.1771 0.14684 0.1828
3751.862 0.10551 0.13992 0.1964 0.2217 0.15213 0.1916 0.3574 0.5474 0.4413 0.2222
3771.152 0.3023 0.3904 0.4058 0.3396 0.2247 0.09381 0.14245 0.2063 0.237 0.3015
3790.441 0.13411 0.231 0.497 0.3794 0.13286 0.2162 0.3373 0.4015 0.4328 0.4511
3809.731 0.3125 0.1857 0.3329 0.3318 0.3557 0.4613 0.4714 0.3838 0.3572 0.5142
3829.021 0.5896 0.6016 0.5239 0.4135 0.5159 0.5579 0.561 0.5748 0.5029 0.4638
3848.311 0.4644 0.5507 0.5933 0.5205 0.4517 0.34 0.331 0.5048 0.5807 0.5572
3867.601 0.4492 0.5647 0.5739 0.4606 0.49 0.4505 0.3291 0.2755 0.4753 0.5367
3886.890 0.5518 0.4393 0.4246 0.4486 0.3779 0.4494 0.4984 0.4599 0.3304 0.3493
3906.180 0.4212 0.3486 0.2942 0.2755 0.3713 0.4673 0.5425 0.5026 0.3606 0.4829
3925.470 0.6168 0.7046 0.7587 0.5784 0.5327 0.6153 0.5475 0.5381 0.4784 0.5001
3944.760 0.6722 0.6146 0.5522 0.5449 0.5615 0.6394 0.6016 0.7079 0.8413 0.6377
3964.049 0.4471 0.653 0.6834 0.5409 0.5648 0.4364 0.3467 0.4269 0.5569 0.3798
3983.339 0.3221 0.4628 0.629 0.6541 0.4113 0.2581 0.3064 0.2538 0.3284 0.6764
##END=
