##TITLE=4-Methyl-1-isopropylcyclohexene
##JCAMP-DX=4.24
##DATA TYPE=INFRARED SPECTRUM
##ORIGIN=NIST Mass Spectrometry Data Center
##OWNER=NIST Standard Reference Data Program
Collection (C) 2018 copyright by the U.S. Secretary of Commerce
on behalf of the United States of America. All rights reserved.
##CAS REGISTRY NO=500-00-5
##MOLFORM=C 10 H 18
##$NIST SOURCE=MSDC-IR
##SPECTROMETER/DATA SYSTEM=HP-GC/MS/IRD
##STATE=gas
##XUNITS=1/CM
##YUNITS=ABSORBANCE
##XFACTOR=1.0
##YFACTOR=0.000003100
##DELTAX=4.0
##FIRSTX=550.0
##LASTX=3846.0
##FIRSTY=0.000564
##MAXX=3846
##MINX=550
##MAXY=0.031
##MINY=0
##NPOINTS=825
##XYDATA=(X++(Y..Y))
550.0 182 234 244 198 147 122 102 75 41 25
590.0 9 11 30 36 35 46 35 18 11 7
630.0 26 29 22 33 35 23 33 46 57 69
670.0 47 19 17 23 21 28 37 22 21 24
710.0 32 41 47 45 28 33 46 42 53 62
750.0 65 63 59 62 68 65 53 64 83 104
790.0 143 196 262 335 408 441 395 322 249 187
830.0 132 82 66 65 65 75 84 86 92 101
870.0 111 130 172 209 252 318 376 395 372 324
910.0 274 234 199 155 129 132 129 121 111 112
950.0 121 116 105 97 95 92 93 97 121 170
990.0 210 250 299 345 370 392 408 396 361 315
1030.0 264 215 185 185 208 243 254 245 265 291
1070.0 311 343 371 375 355 311 262 231 209 203
1110.0 182 173 180 169 172 179 194 225 239 227
1150.0 202 179 149 134 135 147 152 164 181 188
1190.0 193 186 164 139 139 140 143 162 171 179
1230.0 188 185 175 176 191 196 196 196 199 207
1270.0 225 278 363 440 486 502 475 407 337 299
1310.0 275 258 255 266 286 310 324 329 338 355
1350.0 399 469 544 623 713 815 907 966 964 879
1390.0 736 575 423 320 271 252 256 285 327 391
1430.0 484 601 721 841 965 1080 1189 1274 1311 1281
1470.0 1166 996 801 595 436 313 235 199 169 146
1510.0 123 109 102 94 85 74 68 68 64 55
1550.0 51 50 57 58 57 47 45 43 45 54
1590.0 50 54 54 59 63 64 72 78 80 77
1630.0 75 73 75 82 88 98 100 98 100 104
1670.0 99 92 83 79 78 72 82 89 83 74
1710.0 72 74 60 44 40 45 47 43 41 44
1750.0 43 40 34 27 28 34 38 23 20 27
1790.0 27 26 26 19 19 18 22 26 19 21
1830.0 22 16 18 26 24 24 26 20 19 22
1870.0 24 26 21 18 16 20 26 25 23 21
1910.0 17 19 24 25 24 20 16 16 11 11
1950.0 18 16 13 12 8 12 13 12 13 13
1990.0 9 7 7 3 5 11 10 9 12 13
2030.0 15 16 11 7 8 9 11 16 11 3
2070.0 5 10 9 12 13 13 11 14 14 10
2110.0 8 5 3 4 2 4 9 6 4 2
2150.0 0 9 13 9 10 13 14 14 7 3
2190.0 6 12 17 19 17 19 21 15 13 17
2230.0 23 27 28 22 15 18 25 17 7 12
2270.0 11 12 12 8 6 7 7 9 16 15
2310.0 11 15 11 9 25 32 30 28 23 20
2350.0 24 33 37 34 34 32 32 30 24 24
2390.0 26 26 24 26 24 23 28 25 25 33
2430.0 39 37 33 26 29 41 40 40 43 43
2470.0 43 40 37 39 43 45 42 35 35 42
2510.0 40 43 37 31 38 43 43 40 44 44
2550.0 40 52 65 64 66 72 86 90 90 97
2590.0 96 91 83 85 96 103 98 94 100 102
2630.0 101 112 122 121 120 118 120 132 133 122
2670.0 124 125 129 132 122 127 140 136 136 146
2710.0 159 180 197 208 215 216 225 227 221 214
2750.0 209 204 207 219 224 230 240 257 286 297
2790.0 316 348 378 425 474 543 629 751 959 1274
2830.0 1708 2177 2565 2850 3010 3032 3008 3029 3166 3492
2870.0 4038 4687 5270 5691 5881 5886 5910 6127 6582 7208
2910.0 7848 8426 8864 9047 8949 8562 7957 7253 6614 6321
2950.0 6645 7673 8990 9869 10000 9245 7588 5600 3946 2809
2990.0 2089 1633 1322 1115 990 901 844 799 755 712
3030.0 676 642 617 597 577 548 514 471 418 377
3070.0 334 293 269 262 261 235 229 221 209 204
3110.0 192 179 176 173 165 174 182 181 180 173
3150.0 156 143 147 151 155 157 154 142 135 138
3190.0 126 122 118 102 92 86 80 81 79 81
3230.0 86 81 76 72 64 64 70 69 62 57
3270.0 61 63 52 59 55 42 52 50 47 53
3310.0 60 67 53 39 43 43 47 43 48 60
3350.0 50 36 30 29 34 34 33 35 37 45
3390.0 38 28 27 31 28 22 20 24 29 15
3430.0 6 18 29 32 25 17 24 21 26 37
3470.0 29 31 34 31 21 23 18 13 20 26
3510.0 39 44 43 33 19 13 27 18 21 21
3550.0 14 30 21 18 27 33 36 32 28 28
3590.0 30 27 32 35 34 30 27 30 42 44
3630.0 40 25 14 21 38 53 48 47 45 38
3670.0 42 63 73 56 44 50 48 29 26 37
3710.0 47 51 49 43 37 34 48 47 46 63
3750.0 66 60 66 76 64 39 42 56 59 61
3790.0 47 41 50 58 66 61 59 67 76 69
3830.0 64 70 59 45 45
##END=
