##TITLE=Phenylsulphonylacetone
##JCAMP-DX=4.24
##DATA TYPE=INFRARED SPECTRUM
##ORIGIN=EPA-IR VAPOR PHASE LIBRARY
##OWNER=SRD/NIST
Collection (C) 2018 copyright by the U.S. Secretary of Commerce
on behalf of the United States of America. All rights reserved.
##CAS REGISTRY NO=5000-44-2
##MOLFORM=C 9 H 10 O 3 S
##$NIST SOURCE=MSDC-IR
##STATE=gas
##XUNITS=1/CM
##YUNITS=ABSORBANCE
##XFACTOR=1.
##YFACTOR=0.001
##DELTAX=1.929
##FIRSTX=549.8
##LASTX=4000.8
##FIRSTY=14.791
##MAXX=4000.75
##MINX=549.766
##MAXY=0.077891
##MINY=0
##NPOINTS=1790
##XYDATA=(X++(Y..Y))
549.766 14.791 12.011 9.761 8.071 6.751 5.841 5.531 5.261 4.531 4.071
569.056 3.851 3.781 3.891 3.891 3.801 3.991 4.541 4.741 4.991 5.731
588.346 6.731 8.041 9.631 11.541 13.271 14.861 16.211 17.281 18.171 18.711
607.636 18.921 18.751 18.091 17.051 15.871 14.461 12.771 10.721 8.721 6.891
626.926 5.341 4.331 3.481 2.661 2.271 2.201 2.051 1.991 2.001 1.851
646.216 1.691 1.751 1.931 2.101 2.341 2.511 2.671 3.001 3.271 3.631
665.506 4.061 4.471 5.021 5.591 6.531 7.681 8.981 10.551 12.311 13.941
684.796 15.061 15.641 15.571 14.971 13.931 12.601 11.141 9.931 9.231 8.641
704.086 8.431 8.681 9.321 10.401 11.721 13.041 14.271 15.531 16.681 17.731
723.376 18.651 19.481 20.531 21.891 23.391 24.801 26.031 26.901 27.001 26.201
742.666 24.481 22.221 19.701 17.151 15.261 14.071 13.621 13.711 13.831 13.981
761.956 14.021 13.771 13.171 12.391 11.411 10.391 9.651 8.931 8.581 8.871
781.246 9.331 9.831 10.581 11.551 12.551 13.451 14.301 14.761 14.671 14.281
800.536 13.631 12.581 11.221 9.751 8.221 7.141 6.211 5.141 4.581 4.411
819.826 4.211 3.961 3.861 3.871 3.761 3.621 3.591 3.541 3.511 3.401
839.116 3.241 3.271 3.361 3.351 3.521 3.721 3.821 3.901 3.961 4.071
858.406 4.051 3.931 3.841 3.721 3.481 3.231 3.021 2.711 2.301 2.021
877.696 1.781 1.511 1.3993 1.3606 1.1816 0.9397 0.9424 0.9978 0.9566 0.8967
896.986 0.8699 0.8454 0.8278 0.8836 0.9156 0.8659 0.8682 0.9049 0.8987 0.9354
916.276 1.0136 0.9843 1.01 1.0854 1.0097 1.0281 1.1242 1.083 1.0054 1.0782
935.566 1.1317 1.1348 1.2347 1.2949 1.3146 1.3477 1.3957 1.511 1.631 1.771
954.856 1.931 2.081 2.301 2.591 2.891 3.151 3.351 3.681 4.111 4.591
974.146 5.121 5.691 6.381 7.071 7.721 8.281 8.731 8.971 8.981 8.911
993.436 8.621 8.121 7.611 7.171 6.691 6.151 5.701 5.261 4.941 4.741
1012.726 4.641 4.641 4.681 4.771 4.901 4.931 4.751 4.581 4.361 4.021
1032.016 3.631 3.231 2.931 2.861 2.861 2.721 2.611 2.651 2.631 2.571
1051.306 2.741 3.011 3.201 3.401 3.711 4.091 4.411 4.741 5.251 5.821
1070.596 6.541 7.661 9.091 10.951 13.221 15.501 17.531 19.021 19.871 20.061
1089.886 19.331 17.831 15.791 13.421 11.061 9.151 7.921 7.221 6.791 6.621
1109.176 6.691 6.851 7.051 7.291 7.541 7.771 8.021 8.351 8.611 8.941
1128.467 9.431 9.911 10.551 11.281 12.091 13.231 14.691 16.431 18.531 21.221
1147.757 24.581 28.631 33.581 39.081 44.921 50.961 56.431 60.781 63.631 64.501
1167.047 63.361 60.361 55.851 50.291 44.121 38.121 32.851 28.401 24.921 22.471
1186.337 20.671 19.581 19.231 19.401 20.031 21.121 22.621 24.471 26.481 28.441
1205.627 30.291 31.671 32.311 32.461 32.291 31.601 30.431 29.171 28.011 26.991
1224.917 26.201 25.651 25.161 24.431 23.401 22.281 21.141 19.801 18.291 16.651
1244.207 14.981 13.291 11.761 10.461 9.321 8.481 7.841 7.301 6.991 6.831
1263.497 6.621 6.411 6.301 6.341 6.361 6.441 6.591 6.691 6.811 6.861
1282.787 6.861 6.941 6.961 6.881 6.771 6.611 6.541 6.511 6.501 6.551
1302.077 6.721 6.951 7.241 7.651 8.091 8.591 9.231 10.121 11.261 12.721
1321.367 14.581 16.831 19.311 22.171 25.401 28.961 33.041 37.641 42.921 48.941
1340.657 55.481 62.051 68.241 73.481 76.921 77.891 75.961 71.221 64.591 57.171
1359.947 49.561 42.201 35.701 30.401 26.121 22.681 19.921 17.601 15.551 13.811
1379.237 12.361 11.301 10.601 10.121 9.741 9.471 9.221 8.941 8.651 8.321
1398.527 7.911 7.441 6.991 6.541 6.141 5.821 5.551 5.341 5.221 5.161
1417.817 5.151 5.151 5.201 5.231 5.311 5.481 5.681 6.021 6.441 6.931
1437.107 7.651 8.471 9.321 9.981 10.481 10.851 10.921 10.331 9.191 8.041
1456.397 6.871 5.801 4.981 4.241 3.681 3.331 3.141 3.121 3.191 3.291
1475.687 3.361 3.401 3.441 3.411 3.341 3.201 2.961 2.701 2.481 2.221
1494.977 1.911 1.741 1.701 1.641 1.591 1.541 1.4478 1.4649 1.551 1.541
1514.267 1.491 1.481 1.491 1.4491 1.4422 1.511 1.501 1.459 1.4605 1.4608
1533.557 1.481 1.4454 1.349 1.2539 1.2659 1.3204 1.3257 1.3203 1.2769 1.2666
1552.847 1.2939 1.335 1.2747 1.1119 1.2043 1.3127 1.347 1.4248 1.4276 1.4224
1572.137 1.4486 1.491 1.571 1.711 1.831 1.921 1.961 1.981 2.021 1.931
1591.427 1.841 1.791 1.771 1.741 1.691 1.701 1.701 1.741 1.811 1.851
1610.717 1.931 2.061 2.211 2.281 2.291 2.351 2.351 2.291 2.241 2.191
1630.007 2.101 1.971 1.791 1.671 1.641 1.621 1.621 1.631 1.691 1.671
1649.297 1.681 1.731 1.771 1.911 1.991 2.061 2.141 2.221 2.331 2.371
1668.587 2.431 2.601 2.781 2.901 3.031 3.201 3.361 3.581 3.831 4.071
1687.877 4.371 4.721 5.041 5.321 5.661 6.171 6.731 7.431 8.231 9.181
1707.167 10.361 11.661 13.281 15.211 17.291 19.551 22.181 24.791 27.401 29.911
1726.457 31.961 33.601 34.771 35.221 34.981 34.121 32.591 30.531 28.221 25.591
1745.747 22.951 20.491 18.281 16.331 14.671 13.241 11.961 10.851 9.841 8.941
1765.037 8.111 7.321 6.631 6.021 5.391 4.891 4.441 4.051 3.701 3.381
1784.327 3.101 2.851 2.661 2.491 2.371 2.291 2.261 2.281 2.311 2.311
1803.617 2.291 2.241 2.191 2.131 1.991 1.791 1.651 1.551 1.4077 1.3457
1822.907 1.3066 1.2431 1.1808 1.1062 1.0749 1.0672 1.0319 0.9884 0.9311 0.9443
1842.197 0.9266 0.8714 0.8953 0.8644 0.8373 0.8232 0.8248 0.8232 0.7872 0.7814
1861.487 0.7885 0.7674 0.7172 0.6891 0.7 0.6681 0.6805 0.7433 0.7865 0.8622
1880.777 0.8814 0.9278 1.0096 1.073 1.1006 1.1426 1.1894 1.2073 1.2786 1.2722
1900.067 1.2233 1.2293 1.2769 1.2694 1.2313 1.2109 1.1982 1.1112 1.014 0.9996
1919.357 0.9407 0.8056 0.727 0.7065 0.69 0.6585 0.6371 0.6887 0.7233 0.7445
1938.647 0.7265 0.7451 0.8162 0.8624 0.9035 0.9919 1.0824 1.1343 1.2163 1.2234
1957.937 1.2197 1.2456 1.2385 1.2374 1.2291 1.221 1.2303 1.2318 1.2085 1.1489
1977.227 1.0746 1.0532 0.9602 0.8612 0.7908 0.6693 0.6192 0.6342 0.5944 0.52126
1996.517 0.51144 0.50066 0.49184 0.49096 0.46941 0.470389 0.51175 0.5367 0.51074 0.50537
2015.807 0.48454 0.46832 0.463 0.398 0.339 0.421 0.46745 0.4025 0.3933 0.3785
2035.097 0.389 0.4187 0.4059 0.3727 0.3726 0.3816 0.381 0.4254 0.471919 0.4361
2054.387 0.4069 0.46326 0.473181 0.4649 0.46792 0.4404 0.434 0.445 0.5156 0.5086
2073.677 0.4507 0.476522 0.4359 0.4071 0.474929 0.50789 0.471214 0.4477 0.4488 0.4482
2092.967 0.4545 0.4487 0.479347 0.51775 0.51081 0.48758 0.48491 0.52313 0.52947 0.50643
2112.257 0.50408 0.5009 0.471478 0.4372 0.4256 0.3798 0.3835 0.4057 0.3864 0.4229
2131.547 0.445 0.4536 0.48308 0.49503 0.47582 0.43 0.4235 0.4328 0.46181 0.480214
2150.837 0.51006 0.55188 0.53361 0.53257 0.50739 0.51334 0.55191 0.54012 0.55749 0.55448
2170.127 0.55256 0.54132 0.4569 0.51554 0.5928 0.55821 0.46283 0.4252 0.4316 0.4209
2189.417 0.46874 0.50015 0.52781 0.50482 0.4961 0.49103 0.4454 0.4256 0.4361 0.4568
2208.707 0.4342 0.4339 0.4536 0.470678 0.473387 0.4405 0.4302 0.50474 0.53472 0.49006
2227.997 0.51518 0.55322 0.56602 0.5931 0.6196 0.6159 0.6356 0.6957 0.7108 0.6692
2247.287 0.6705 0.6636 0.5955 0.6484 0.6659 0.56379 0.50883 0.49743 0.4488 0.50982
2266.577 0.6301 0.5748 0.5144 0.476176 0.4885 0.49065 0.49039 0.49385 0.46124 0.4507
2285.868 0.4352 0.4505 0.4605 0.418 0.4278 0.41 0.3724 0.4123 0.395 0.3884
2305.158 0.4594 0.47075 0.4001 0.4262 0.48759 0.53901 0.6129 0.6998 0.7255 0.6807
2324.448 0.6921 0.7075 0.6637 0.5934 0.5854 0.5956 0.49701 0.50598 0.6347 0.5916
2343.738 0.54281 0.56824 0.53533 0.50294 0.52576 0.55759 0.50085 0.4414 0.4343 0.368
2363.028 0.361 0.4395 0.4212 0.3917 0.3827 0.4115 0.46378 0.48451 0.50611 0.51884
2382.318 0.54913 0.52232 0.48128 0.4497 0.480373 0.4983 0.46224 0.46475 0.4236 0.366
2401.608 0.3724 0.4203 0.4281 0.4165 0.4037 0.4273 0.4506 0.478208 0.4549 0.3878
2420.898 0.4356 0.4501 0.46533 0.50564 0.51982 0.50705 0.51424 0.56582 0.5925 0.54659
2440.188 0.475732 0.46926 0.51208 0.56718 0.53862 0.51365 0.48905 0.4539 0.4208 0.4448
2459.478 0.5352 0.518 0.4424 0.4419 0.4482 0.4571 0.50829 0.46733 0.4534 0.51722
2478.768 0.49545 0.4604 0.52023 0.50803 0.4247 0.4437 0.511 0.54302 0.5342 0.51912
2498.058 0.49745 0.56373 0.5895 0.51224 0.5199 0.52465 0.51609 0.5815 0.5969 0.52858
2517.348 0.4473 0.4124 0.4202 0.4517 0.4365 0.4226 0.4508 0.4511 0.442 0.4369
2536.638 0.4266 0.4062 0.4286 0.4413 0.4525 0.4397 0.3802 0.3806 0.3932 0.4289
2555.928 0.480425 0.51044 0.48134 0.4584 0.50282 0.48571 0.52255 0.52797 0.48783 0.54165
2575.218 0.51896 0.48409 0.53127 0.53137 0.52283 0.52735 0.55047 0.51032 0.4587 0.474908
2594.508 0.4659 0.4423 0.4545 0.4929 0.54323 0.54242 0.4635 0.4338 0.50293 0.5711
2613.798 0.48595 0.476943 0.49176 0.4249 0.4193 0.3711 0.345 0.3755 0.338 0.353
2633.088 0.4204 0.346 0.269 0.335 0.35 0.286 0.301 0.329 0.279 0.321
2652.378 0.3935 0.3897 0.3962 0.4168 0.4104 0.4344 0.52493 0.53036 0.50744 0.51192
2671.668 0.53921 0.51982 0.4608 0.4559 0.4297 0.3884 0.357 0.36 0.367 0.344
2690.958 0.279 0.242 0.3715 0.4286 0.3834 0.305 0.275 0.25 0.244 0.333
2710.248 0.324 0.324 0.336 0.296 0.261 0.259 0.349 0.3966 0.3806 0.367
2729.538 0.343 0.351 0.33 0.298 0.342 0.3976 0.3826 0.343 0.3826 0.4353
2748.828 0.4295 0.3874 0.346 0.358 0.3969 0.284 0.165 0.194 0.257 0.31
2768.118 0.25 0.295 0.3717 0.344 0.295 0.184 0.196 0.302 0.342 0.3738
2787.408 0.357 0.295 0.239 0.302 0.395 0.337 0.29 0.29 0.256 0.208
2806.698 0.186 0.263 0.336 0.349 0.3846 0.345 0.325 0.354 0.347 0.359
2825.988 0.3804 0.3805 0.4206 0.4273 0.4259 0.3729 0.343 0.4276 0.47534 0.46377
2845.278 0.4538 0.46197 0.51816 0.50783 0.480912 0.4421 0.4104 0.48311 0.474957 0.4581
2864.568 0.48127 0.51563 0.50849 0.56281 0.55056 0.50028 0.53757 0.53926 0.52512 0.53444
2883.858 0.5722 0.632 0.6804 0.594 0.5767 0.6597 0.6197 0.612 0.6855 0.7009
2903.148 0.6686 0.6789 0.6611 0.6837 0.8238 0.799 0.7381 0.7941 0.9718 1.1168
2922.438 1.1494 1.2338 1.3546 1.3374 1.3517 1.3916 1.3603 1.373 1.4013 1.3954
2941.728 1.2866 1.1403 0.948 0.9613 0.9938 0.9444 0.9984 0.9787 0.9094 0.9598
2961.018 0.9592 0.9492 0.9824 0.9758 1.0123 1.0824 1.0519 1.0025 1.0562 1.0805
2980.308 1.1657 1.1707 1.0202 1.1153 1.192 1.1318 1.1419 1.2288 1.346 1.3861
2999.598 1.4197 1.541 1.711 1.781 1.911 1.931 1.941 2.161 2.331 2.391
3018.888 2.431 2.361 2.291 2.291 2.281 2.101 1.921 1.941 1.891 1.781
3038.178 1.671 1.741 1.811 1.851 1.921 1.871 2.041 2.341 2.551 2.801
3057.468 3.201 3.791 4.461 5.161 5.991 6.981 8.041 8.971 9.541 9.811
3076.758 9.821 9.541 8.931 8.131 7.081 5.811 4.941 4.371 3.841 3.501
3096.048 3.201 2.821 2.351 2.091 1.801 1.501 1.3648 1.1436 0.9965 0.9058
3115.338 0.8042 0.8101 0.7413 0.6813 0.6733 0.6758 0.7095 0.5991 0.6153 0.6486
3134.628 0.62 0.56627 0.50981 0.5741 0.5994 0.6036 0.56311 0.6131 0.6969 0.6246
3153.918 0.715 0.7407 0.6558 0.7352 0.7388 0.7169 0.6865 0.633 0.658 0.69
3173.208 0.6482 0.6026 0.5806 0.52089 0.4599 0.49378 0.451 0.287 0.332 0.46496
3192.498 0.3899 0.334 0.3953 0.33 0.273 0.4107 0.50642 0.5009 0.4606 0.314
3211.788 0.252 0.3744 0.357 0.355 0.4246 0.312 0.218 0.123 0.157 0.305
3231.078 0.341 0.331 0.283 0.273 0.22 0.334 0.48831 0.327 0.207 0.253
3250.368 0.255 0.274 0.341 0.3812 0.311 0.225 0.103 0.069 0.17 0.168
3269.658 0.259 0.331 0.202 0.147 0.253 0.216 0.204 0.243 0.182 0.231
3288.948 0.4534 0.49492 0.332 0.261 0.29 0.246 0.194 0.272 0.223 0.142
3308.238 0.324 0.3842 0.182 0.112 0.14 0.214 0.26 0.281 0.21 0.033
3327.528 0.107 0.255 0.182 0.207 0.227 0.255 0.301 0.199 0.133 0.123
3346.818 0.206 0.212 0.21 0.332 0.286 0.189 0.101 0.063 0.123 0.121
3366.108 0.149 0.322 0.227 0.09 0.106 0.123 0.152 0.22 0.339 0.321
3385.398 0.245 0.245 0.326 0.328 0.191 0.179 0.3 0.309 0.299 0.216
3404.688 0.356 0.4301 0.4288 0.3971 0.216 0.287 0.4431 0.48248 0.5768 0.7045
3423.978 0.6787 0.6492 0.6162 0.6012 0.635 0.7846 0.8539 0.848 0.8667 0.8415
3443.269 0.88 0.8179 0.8421 0.9025 0.8147 0.7608 0.869 0.9217 0.8326 0.6127
3462.559 0.51826 0.56607 0.6018 0.52215 0.355 0.4276 0.48434 0.4258 0.3999 0.4528
3481.849 0.53555 0.4971 0.3899 0.286 0.247 0.235 0.251 0.303 0.204 0.079
3501.139 0.153 0.354 0.301 0.292 0.301 0.239 0.168 0.09 0.215 0.356
3520.429 0.331 0.207 0.318 0.357 0.245 0.18 0.223 0.224 0.104 0.051
3539.719 0.122 0.193 0.301 0.315 0.073 0.035 0.204 0.185 0.16 0.212
3559.009 0.117 0.056 0.101 0.092 0.096 0.242 0.263 0.236 0.243 0.137
3578.299 0.143 0.164 0.129 0.086 0.029 0.023 0.17 0.152 0.063 0.204
3597.589 0.244 0.244 0.28 0.29 0.301 0.261 0.193 0.218 0.217 0.154
3616.879 0.111 0.208 0.304 0.178 0.196 0.233 0.083 0 0.048 0.213
3636.169 0.205 0.236 0.326 0.283 0.101 0.16 0.338 0.264 0.258 0.189
3655.459 0.207 0.303 0.277 0.249 0.195 0.221 0.256 0.213 0.192 0.249
3674.749 0.318 0.315 0.221 0.194 0.189 0.159 0.24 0.23 0.176 0.134
3694.039 0.21 0.211 0.277 0.4511 0.4399 0.4506 0.298 0.142 0.26 0.34
3713.329 0.368 0.4565 0.49255 0.52192 0.480835 0.46157 0.298 0.194 0.332 0.275
3732.619 0.249 0.221 0.15 0.142 0.154 0.122 0.104 0.112 0.074 0.128
3751.909 0.219 0.174 0.171 0.127 0.215 0.388 0.3758 0.298 0.248 0.198
3771.199 0.281 0.309 0.237 0.269 0.244 0.233 0.232 0.195 0.223 0.244
3790.489 0.105 0.158 0.193 0.168 0.216 0.25 0.266 0.314 0.296 0.207
3809.779 0.182 0.239 0.253 0.182 0.157 0.209 0.277 0.202 0.111 0.215
3829.069 0.26 0.146 0.266 0.346 0.112 0.05 0.093 0.2 0.309 0.256
3848.359 0.281 0.257 0.258 0.289 0.18 0.131 0.186 0.277 0.213 0.119
3867.649 0.069 0.058 0.137 0.206 0.221 0.299 0.329 0.197 0.196 0.3
3886.939 0.48859 0.52007 0.347 0.239 0.228 0.329 0.4051 0.359 0.248 0.247
3906.229 0.248 0.182 0.154 0.229 0.351 0.3936 0.4063 0.25 0.258 0.46336
3925.519 0.52457 0.3715 0.197 0.265 0.28 0.211 0.318 0.357 0.31 0.329
3944.809 0.354 0.361 0.278 0.199 0.199 0.201 0.211 0.199 0.197 0.256
3964.099 0.351 0.3848 0.303 0.181 0.157 0.305 0.4143 0.4561 0.3887 0.34
3983.389 0.301 0.116 0.257 0.4511 0.48253 0.4398 0.288 0.244 0.252 0.287
##END=
