##TITLE=.alpha.-Isopropylideneaminooxypropionic acid
##JCAMP-DX=4.24
##DATA TYPE=INFRARED SPECTRUM
##ORIGIN=EPA-IR VAPOR PHASE LIBRARY
##OWNER=SRD/NIST
Collection (C) 2018 copyright by the U.S. Secretary of Commerce
on behalf of the United States of America. All rights reserved.
##CAS REGISTRY NO=5001-36-5
##MOLFORM=C 6 H 11 N O 3
##$NIST SOURCE=MSDC-IR
##STATE=gas
##XUNITS=1/CM
##YUNITS=ABSORBANCE
##XFACTOR=1.
##YFACTOR=0.001
##DELTAX=1.92898
##FIRSTX=549.8
##LASTX=4000.7
##FIRSTY=16.505
##MAXX=4000.7
##MINX=549.759
##MAXY=0.099105
##MINY=0
##NPOINTS=1790
##XYDATA=(X++(Y..Y))
549.759 16.505 17.165 17.915 19.185 19.755 19.815 20.855 21.835 21.935 22.645
569.049 23.435 23.155 22.855 23.095 23.585 23.355 22.155 21.965 22.195 22.085
588.339 22.055 22.075 22.415 22.835 22.785 22.275 21.625 21.325 21.075 20.135
607.628 19.075 18.365 17.745 16.795 16.055 15.735 15.115 14.425 14.015 13.995
626.918 13.735 13.095 12.805 12.365 12.075 11.415 10.755 10.895 10.335 9.545
646.208 8.885 7.975 7.595 7.295 6.625 6.075 5.695 5.485 5.175 4.645
665.498 4.285 4.065 3.935 4.175 4.235 4.035 3.685 3.195 3.145 3.125
684.787 3.005 3.115 3.415 3.395 3.395 3.465 3.175 3.175 3.615 3.715
704.077 3.735 3.905 3.745 3.855 4.185 4.125 4.295 4.525 4.265 4.625
723.367 5.025 5.205 5.555 5.795 6.495 6.815 6.875 7.255 7.295 7.265
742.657 7.355 7.315 7.095 6.825 6.715 6.385 5.995 5.795 5.695 5.605
761.947 5.475 5.605 5.775 5.615 5.465 5.595 5.655 5.815 5.785 5.745
781.236 5.845 5.805 5.835 5.985 6.285 6.375 6.145 6.165 6.445 6.615
800.526 6.715 6.935 7.155 7.225 7.035 6.725 6.545 6.185 5.765 5.575
819.816 5.105 5.075 5.055 4.955 4.985 4.905 4.765 4.305 4.475 4.555
839.106 4.225 4.245 4.285 4.445 4.435 4.365 4.365 4.235 4.405 4.675
858.395 4.875 4.985 5.245 5.805 6.785 7.565 8.035 9.205 10.455 11.695
877.685 13.485 15.525 17.955 20.455 23.105 25.745 28.225 30.345 31.495 32.325
896.975 32.575 32.085 30.985 29.205 26.745 24.305 22.205 19.665 17.765 16.535
916.265 15.725 15.605 15.935 16.785 17.815 19.065 20.665 22.465 24.465 26.635
935.555 29.065 31.175 32.985 34.735 35.765 36.095 35.775 35.125 33.975 32.165
954.844 30.065 27.445 25.045 23.385 21.295 19.285 18.015 16.695 15.425 14.765
974.134 14.125 12.935 11.885 10.795 9.945 9.735 9.135 8.515 8.195 7.925
993.424 8.085 8.335 8.165 7.665 7.875 8.295 8.455 9.365 10.355 11.355
1012.714 12.595 13.695 15.415 17.415 19.285 20.855 22.015 23.555 25.065 26.225
1032.003 27.235 27.955 28.085 27.995 28.425 28.875 29.255 29.325 29.705 30.475
1051.293 30.505 31.335 33.375 34.225 34.555 36.145 38.145 39.415 40.505 41.485
1070.583 42.385 43.465 45.425 47.915 50.365 53.965 58.495 63.085 67.485 72.185
1089.873 77.585 82.755 87.545 91.875 95.285 97.555 98.425 97.135 93.125 89.075
1109.163 84.735 79.155 73.525 67.495 59.895 52.955 47.875 43.375 39.735 37.405
1128.452 34.985 32.835 31.125 29.575 28.705 27.035 26.065 25.795 26.205 26.215
1147.742 25.625 25.805 25.845 26.025 26.275 26.795 27.105 26.685 26.175 26.505
1167.032 26.855 26.265 25.535 25.015 24.155 22.855 22.095 21.595 20.665 19.305
1186.322 18.075 16.895 15.765 15.195 14.315 13.445 12.565 12.085 11.425 11.165
1205.611 11.035 10.525 10.455 9.625 8.755 8.675 8.865 7.905 7.555 8.375
1224.901 8.555 8.375 8.645 9.025 8.815 9.085 9.495 8.985 8.415 8.725
1244.191 9.135 9.325 10.345 11.575 11.975 12.265 12.905 13.815 14.905 16.345
1263.481 17.715 18.225 18.585 18.885 19.045 18.805 17.915 17.325 17.095 16.815
1282.771 16.595 16.035 15.695 15.835 16.165 16.335 16.605 17.215 17.635 18.125
1302.060 18.825 19.425 20.095 20.705 21.335 21.965 22.355 22.755 23.155 23.505
1321.350 23.795 24.135 24.455 24.725 24.765 24.825 24.895 24.905 25.095 25.315
1340.640 25.525 25.695 25.925 26.205 26.695 27.235 27.715 28.325 29.045 29.925
1359.930 30.865 31.815 33.045 34.515 35.855 37.205 38.505 39.375 39.735 39.445
1379.219 38.805 37.765 36.085 34.075 31.485 28.625 25.815 23.155 20.905 19.045
1398.509 17.425 16.015 14.935 14.085 13.265 12.525 12.115 11.775 11.385 11.115
1417.799 10.775 10.535 10.525 10.585 10.685 10.735 10.905 11.235 11.665 12.125
1437.089 12.665 13.125 13.415 13.745 14.125 14.205 14.175 14.095 13.885 13.475
1456.378 12.655 11.895 11.295 10.605 9.795 9.025 8.345 7.725 7.145 6.645
1475.668 6.215 5.835 5.465 5.115 4.895 4.685 4.635 4.755 4.545 4.365
1494.958 4.345 4.215 4.065 3.965 3.945 3.775 3.635 3.585 3.465 3.435
1514.248 3.515 3.495 3.365 3.265 3.225 3.195 3.175 3.215 3.335 3.235
1533.538 3.025 2.935 2.855 2.865 2.975 2.915 2.885 2.845 2.785 2.745
1552.827 2.715 2.745 2.765 2.655 2.475 2.455 2.495 2.575 2.685 2.615
1572.117 2.525 2.405 2.475 2.585 2.565 2.635 2.585 2.345 2.325 2.485
1591.407 2.445 2.415 2.355 2.325 2.285 2.285 2.305 2.245 2.375 2.495
1610.697 2.595 2.735 2.735 2.375 2.395 2.705 2.635 2.655 2.635 2.655
1629.986 2.835 3.025 3.225 3.465 3.655 3.725 3.945 4.125 4.195 4.495
1649.276 4.715 4.585 4.355 4.405 4.435 4.125 3.795 3.755 3.675 3.445
1668.566 3.085 2.875 2.805 2.565 2.395 2.375 2.295 2.205 2.225 2.275
1687.856 2.175 2.105 2.225 2.215 2.225 2.445 2.555 2.615 2.625 2.665
1707.146 2.955 3.235 3.435 3.695 4.005 4.325 4.785 5.315 5.895 6.445
1726.435 6.985 7.765 8.615 9.535 10.625 11.545 12.465 13.555 14.645 15.805
1745.725 17.155 18.625 20.225 22.245 24.405 26.685 29.545 33.015 37.175 42.045
1765.015 47.675 53.765 60.135 66.395 72.135 77.285 81.925 85.965 89.625 92.805
1784.305 94.895 96.135 97.105 98.135 99.045 99.105 97.745 95.125 90.985 85.205
1803.594 78.385 70.845 62.975 55.265 48.055 41.435 35.625 30.775 26.745 23.295
1822.884 20.615 18.625 16.885 15.375 14.005 12.875 11.975 11.055 10.215 9.425
1842.174 8.715 8.075 7.385 6.815 6.335 5.815 5.315 4.955 4.705 4.285
1861.464 3.795 3.535 3.385 3.225 2.985 2.725 2.675 2.595 2.375 2.245
1880.754 2.115 2.005 2.025 2.015 1.935 1.895 1.785 1.585 1.575 1.565
1900.043 1.515 1.545 1.535 1.595 1.595 1.565 1.575 1.475 1.415 1.455
1919.333 1.465 1.3142 1.1845 1.2807 1.335 1.385 1.2988 1.2452 1.355 1.308
1938.623 1.2437 1.1999 1.1203 1.094 1.1655 1.1718 1.121 1.1831 1.0847 1.0992
1957.913 1.2545 1.315 1.304 1.2088 1.1876 1.2172 1.2121 1.1865 1.1873 1.1558
1977.202 1.1225 1.0436 1.0696 1.0564 1.064 1.2584 1.1812 1.1057 1.161 1.1835
1996.492 1.1698 1.0408 0.9813 0.9886 1.0353 1.0275 0.9624 1.0216 1.0761 1.1372
2015.782 1.161 1.1932 1.1478 0.9965 1.0268 1.0403 0.999 1.0075 0.9318 0.9116
2035.072 1.0083 1.1308 1.0609 0.865 0.9262 1.0052 1.017 0.9004 0.7822 0.8852
2054.362 0.9483 1.0466 1.0318 0.8979 0.7889 0.6951 0.7854 0.8871 0.9596 0.878
2073.651 0.7572 0.9107 0.9393 0.8326 0.7899 0.7748 0.9057 1.0078 0.9407 0.9197
2092.941 0.9587 0.8755 0.8071 0.8149 0.7373 0.8607 0.9522 0.8706 0.9391 0.8324
2112.231 0.7116 0.7872 0.7571 0.6798 0.7151 0.7501 0.823 0.8694 0.7962 0.8049
2131.521 0.7972 0.7831 0.8486 0.8486 0.8418 0.7864 0.8511 0.9294 0.8173 0.7298
2150.810 0.7701 0.8034 0.8334 0.9839 0.89 0.7856 0.9732 0.9772 0.8862 0.8628
2170.100 0.9443 1.0336 1.0469 1.0542 1.0219 1.0008 1.0274 1.1388 1.1303 1.0726
2189.390 1.1315 1.1285 1.1263 1.1625 1.2553 1.315 1.2613 1.2649 1.3076 1.1681
2208.680 1.1152 1.1262 1.051 1.1241 1.175 1.179 1.1144 1.0774 1.1177 1.0643
2227.970 1.0972 1.0979 0.9058 0.8496 0.8756 0.9256 0.9647 0.959 0.9583 0.9927
2247.259 1.076 1.2126 1.1509 0.9784 1.0791 1.1886 1.0873 0.8832 1.0063 1.0947
2266.549 0.9982 1.0435 0.9881 1.0056 1.0009 1.0824 1.0571 0.8258 0.7303 0.7374
2285.839 0.8586 0.864 0.919 0.9749 1.0124 1.045 0.9539 0.7351 0.7652 1.0014
2305.129 1.1017 1.1349 1.0026 0.9118 0.9678 1.084 1.2053 1.2784 1.315 1.365
2324.418 1.3007 1.2547 1.335 1.2932 1.415 1.475 1.2989 1.2317 1.2454 1.2297
2343.708 1.1742 1.1336 1.2008 1.335 1.495 1.535 1.315 1.3075 1.495 1.415
2362.998 1.375 1.365 1.2471 1.2059 1.345 1.315 1.0493 1.0373 1.0638 1.1525
2382.288 1.1666 0.9274 0.8761 0.9132 0.9449 0.9623 0.8395 0.7601 0.8222 0.9061
2401.578 0.7786 0.812 0.9339 0.8829 0.8109 0.7925 0.8494 0.9496 1.0105 1.0074
2420.867 0.9232 0.9501 0.9605 0.9472 0.9558 0.937 1.0722 0.9913 0.8984 0.9795
2440.157 0.9761 0.8437 0.9078 1.0444 1.049 0.9454 0.8423 0.8566 0.888 0.8468
2459.447 0.9288 0.9603 0.935 0.9668 0.9717 0.9684 1.0017 1.0924 1.0007 0.9139
2478.737 0.9766 0.9166 0.9811 1.0541 1.0134 1.0685 0.9494 0.8336 0.9556 0.9272
2498.026 0.8434 0.7854 0.787 0.8192 0.7987 0.8402 0.7124 0.8325 0.9797 0.9897
2517.316 1.0228 0.9738 0.8504 0.8771 0.8499 0.8067 0.9731 0.8744 0.8557 0.8672
2536.606 0.81 0.8423 0.8911 0.9368 0.68 0.5007 0.5915 0.7128 0.716 0.6799
2555.896 0.6126 0.7291 1.0047 0.9204 0.7243 0.7287 0.7892 0.8351 0.7615 0.5761
2575.186 0.738 0.879 0.7635 0.8066 0.7551 0.6989 0.8153 0.6905 0.6513 0.8918
2594.475 0.9123 0.8604 0.9056 0.8413 0.8279 0.9291 0.8911 0.9472 0.9278 0.7802
2613.765 0.7824 0.7558 0.7535 0.9413 0.8795 0.865 1.0584 1.0683 0.9989 1.0141
2633.055 1.0807 0.8612 0.7849 0.9559 0.9354 0.8034 0.8493 1.0193 1.0787 0.9466
2652.345 0.8131 0.7751 0.817 0.9352 1.083 1.0846 0.9854 0.8784 0.864 0.9739
2671.634 0.9484 1.009 0.9985 0.949 1.0125 0.8168 0.9151 1.1011 0.9073 1.0021
2690.924 1.149 0.9695 0.8977 0.9549 0.9457 0.9915 1.0186 0.9308 0.9625 0.9873
2710.214 0.8614 0.9153 0.9643 1.0246 1.1267 1.1122 1.325 1.415 1.335 1.188
2729.504 1.1379 1.1767 1.2147 1.365 1.315 1.2387 1.485 1.725 1.625 1.475
2748.794 1.2997 1.415 1.405 1.1149 1.0643 1.0828 1.0801 1.114 1.2077 1.2984
2768.083 1.335 1.2392 1.315 1.425 1.2366 1.0786 1.2772 1.355 1.2375 1.2606
2787.373 1.2296 1.2903 1.335 1.335 1.415 1.425 1.565 1.565 1.515 1.735
2806.663 1.855 1.705 1.705 1.825 1.755 1.815 1.935 1.935 2.095 2.295
2825.953 2.315 2.365 2.445 2.565 2.725 2.485 2.465 2.685 2.765 3.105
2845.242 3.245 3.415 3.565 3.885 4.315 4.565 4.955 5.195 5.565 5.835
2864.532 5.785 5.885 6.005 6.085 6.245 6.425 6.555 6.505 6.405 6.615
2883.822 6.905 7.225 7.455 7.325 7.365 7.435 7.565 7.695 7.655 8.125
2903.112 8.515 8.835 9.265 9.625 10.555 11.445 12.135 13.545 15.605 17.765
2922.401 19.845 21.555 23.255 24.905 26.045 26.795 27.395 27.335 26.525 25.325
2941.691 24.235 23.125 22.125 21.305 20.345 19.735 18.995 18.105 17.435 16.405
2960.981 15.325 14.465 13.505 12.535 11.615 10.925 10.435 10.455 10.675 10.895
2980.271 11.345 11.965 12.945 14.335 15.865 17.555 19.385 20.905 21.895 22.195
2999.561 21.845 21.315 20.485 19.165 17.585 15.615 13.455 11.595 10.075 8.915
3018.850 7.965 7.225 6.685 6.235 5.795 5.285 4.785 4.755 4.815 4.835
3038.140 4.675 4.355 4.405 4.555 4.375 3.995 4.125 4.395 4.365 4.115
3057.430 3.795 3.575 3.515 3.675 3.595 3.565 3.585 3.455 3.415 3.225
3076.720 3.155 2.965 2.875 3.105 3.155 3.305 3.195 3.085 3.105 2.745
3096.009 2.805 3.025 2.835 2.705 2.755 3.015 3.175 2.995 2.885 2.865
3115.299 2.895 2.835 2.825 2.895 2.935 3.015 3.015 2.785 2.855 2.845
3134.589 2.555 2.495 2.365 2.215 2.265 2.415 2.585 2.435 2.285 2.625
3153.879 2.475 2.205 2.455 2.285 2.385 2.565 2.365 2.415 2.345 2.395
3173.169 2.725 2.695 2.475 2.305 2.365 2.525 2.435 2.205 2.165 2.385
3192.458 2.525 2.415 2.225 2.205 2.505 2.725 2.705 2.565 2.485 2.845
3211.748 2.935 2.685 2.825 3.015 2.825 2.645 2.795 2.865 2.645 2.645
3231.038 3.045 3.235 2.855 2.575 2.725 2.895 3.095 3.135 3.055 3.225
3250.328 3.135 2.865 2.775 2.935 3.205 3.225 2.975 3.005 3.005 2.825
3269.617 2.935 2.975 3.175 3.395 3.285 3.465 3.535 3.255 3.245 3.345
3288.907 3.295 3.375 3.305 3.235 3.215 3.175 3.235 3.285 3.185 3.415
3308.197 3.685 3.285 2.795 2.855 3.045 3.095 3.045 2.865 2.865 2.795
3327.487 3.095 3.385 3.275 3.275 3.175 3.085 3.045 2.985 2.875 2.985
3346.777 3.275 3.245 3.205 3.195 3.115 3.195 3.375 3.435 3.485 3.525
3366.066 3.325 3.225 3.005 2.815 2.985 2.885 2.875 2.995 2.895 3.175
3385.356 3.315 2.955 3.055 3.085 2.835 2.775 2.695 2.525 2.655 2.685
3404.646 2.595 2.815 2.765 2.895 3.095 2.845 2.755 2.855 2.815 2.715
3423.936 2.935 2.875 2.785 2.785 2.555 2.555 2.985 3.175 2.585 2.135
3443.225 2.305 2.685 2.785 2.585 2.335 2.595 3.055 3.025 2.925 2.795
3462.515 2.895 2.965 2.695 2.765 3.065 3.065 2.895 2.975 3.045 3.155
3481.805 3.275 3.495 3.875 3.925 3.795 4.055 4.545 4.615 4.605 4.735
3501.095 5.045 5.395 5.675 6.315 7.035 7.465 7.965 8.605 9.055 9.365
3520.385 9.715 10.085 10.245 10.345 10.795 10.935 10.495 10.255 9.955 9.905
3539.674 9.475 8.915 8.875 8.695 8.795 8.945 9.015 9.505 10.485 11.915
3558.964 13.665 16.025 19.375 23.305 26.835 29.405 31.205 32.105 32.085 31.385
3578.254 29.685 27.515 24.475 20.135 16.015 12.645 9.965 7.745 6.105 4.735
3597.544 3.945 3.505 2.835 2.585 2.515 2.265 2.205 2.065 1.935 2.095
3616.833 1.865 1.595 1.395 0.9835 0.9966 1.425 1.455 1.2976 1.009 1.026
3636.123 0.8132 0.4924 0.7127 0.8142 0.6825 0.6669 0.439 0.2857 0.2538 0.069
3655.413 0.7258 1.0633 0.8383 0.84 0.8479 0.5484 0.5497 0.6848 0.455 0.38601
3674.703 0.37825 0.5413 0.5373 0.40717 0.37427 0.4829 0.5954 0.8704 0.9045 0.4653
3693.993 0.3433 0.5569 0.6543 0.7192 0.899 0.7654 0.5658 0.6781 0.8592 0.6934
3713.282 0.3027 0.4683 0.7484 0.6278 0.5001 0.528 0.6425 0.5659 0.2906 0.181
3732.572 0.40318 0.231 0 0.13 0.2241 0.483 0.6854 0.7021 0.7305 0.7432
3751.862 0.702 0.4838 0.203 0.2406 0.34704 0.5365 0.40947 0.6168 0.8955 0.624
3771.152 0.6866 0.8404 1.2192 1.0254 0.583 0.4514 0.4453 0.4443 0.4197 0.7712
3790.441 0.7917 0.4554 0.23 0.5527 1.0748 0.875 0.7913 0.9266 0.7699 0.6989
3809.731 0.7687 0.6659 0.5722 0.5272 0.7983 0.8948 0.8044 1.0496 0.8343 0.6192
3829.021 0.6192 0.7813 0.6123 0.6877 0.704 0.5468 0.8637 0.6406 0.5263 0.41283
3848.311 0.323916 0.4808 0.195 0.35668 0.811 0.7163 0.681 0.6222 0.4166 0.2767
3867.601 0.37536 0.6087 0.5369 0.323544 0.8141 1.1736 1.058 1.1648 1.1292 0.973
3886.890 0.8669 0.8656 0.8623 0.4935 0.39679 0.7542 0.757 0.36532 0.029 0.2765
3906.180 0.4235 0.4543 0.6956 0.6328 0.4426 0.716 1.0093 0.6291 0.2655 0.5042
3925.470 0.8142 0.5968 0.34359 0.4981 0.7786 0.7692 0.323141 0.316901 0.7959 0.5926
3944.760 0.187 0.4764 0.6831 0.6671 0.5922 0.723 0.9826 0.7942 0.6501 0.5117
3964.049 0.7784 0.9702 0.6713 0.7086 0.753 0.5478 0.5296 0.6945 0.8879 0.7725
3983.339 0.5946 0.713 0.9065 0.9094 0.8239 0.7798 0.6918 0.4772 0.4312 0.609
##END=
