##TITLE=Cyclobutanecarboxylic acid chloride
##JCAMP-DX=4.24
##DATA TYPE=INFRARED SPECTRUM
##ORIGIN=NIST Mass Spectrometry Data Center
##OWNER=NIST Standard Reference Data Program
Collection (C) 2018 copyright by the U.S. Secretary of Commerce
on behalf of the United States of America. All rights reserved.
##CAS REGISTRY NO=5006-22-4
##MOLFORM=C 5 H 7 Cl O
##$NIST SOURCE=MSDC-IR
##SPECTROMETER/DATA SYSTEM=HP-GC/MS/IRD
##STATE=gas
##XUNITS=1/CM
##YUNITS=ABSORBANCE
##XFACTOR=1.0
##YFACTOR=0.000008900
##DELTAX=4.0
##FIRSTX=550.0
##LASTX=3846.0
##FIRSTY=0.001682
##MAXX=3846
##MINX=550
##MAXY=0.089
##MINY=0
##NPOINTS=825
##XYDATA=(X++(Y..Y))
550.0 189 159 32 73 81 97 92 63 41 31
590.0 17 0 6 22 38 57 79 111 149 195
630.0 272 354 411 452 483 503 516 524 537 549
670.0 560 579 607 651 721 829 1002 1289 1709 2224
710.0 2701 2924 2902 2711 2408 1896 1254 808 596 515
750.0 502 533 587 663 776 907 1053 1243 1485 1788
790.0 2161 2572 2914 3073 3069 2960 2707 2279 1840 1531
830.0 1329 1184 1077 995 946 919 921 959 1016 1079
870.0 1155 1229 1275 1278 1244 1177 1076 957 858 803
910.0 816 891 1037 1266 1579 1983 2460 2934 3316 3538
950.0 3510 3229 2769 2217 1625 1064 650 420 313 265
990.0 238 226 226 243 283 329 383 458 533 611
1030.0 708 812 947 1161 1481 1885 2296 2626 2795 2810
1070.0 2673 2344 1856 1367 1031 840 732 675 643 613
1110.0 596 590 588 595 626 662 679 662 616 555
1150.0 463 360 284 225 180 160 150 144 151 166
1190.0 190 212 232 250 266 277 273 262 257 262
1230.0 277 304 334 351 351 340 303 236 157 93
1270.0 51 34 26 24 33 49 67 94 137 198
1310.0 275 352 401 414 401 367 310 240 176 135
1350.0 116 107 105 104 102 99 93 81 69 60
1390.0 51 43 44 48 54 60 71 87 108 136
1430.0 169 209 247 270 282 278 262 236 201 163
1470.0 128 103 82 61 47 38 30 27 27 23
1510.0 21 23 20 20 22 21 18 13 10 9
1550.0 9 6 3 3 5 2 0 6 9 7
1590.0 6 3 5 4 3 4 5 6 7 8
1630.0 11 16 18 18 20 21 23 28 31 35
1670.0 42 44 47 52 58 63 73 86 99 113
1710.0 131 157 186 221 257 307 373 454 551 666
1750.0 805 972 1169 1412 1723 2140 2705 3445 4385 5511
1790.0 6748 8029 9170 9896 10000 9723 9252 8259 6789 5299
1830.0 4037 3040 2287 1745 1359 1091 901 758 649 567
1870.0 501 442 390 345 306 269 240 216 187 165
1910.0 145 127 113 102 91 81 72 66 65 66
1950.0 65 64 65 65 67 67 69 69 67 65
1990.0 59 54 53 54 55 55 53 51 53 51
2030.0 48 41 40 40 39 42 42 46 53 58
2070.0 62 71 80 87 93 102 111 120 126 132
2110.0 140 148 159 169 178 188 193 191 184 171
2150.0 156 138 119 101 84 71 64 59 55 55
2190.0 55 52 50 49 49 47 47 46 44 48
2230.0 51 50 47 46 44 39 35 32 29 28
2270.0 29 28 27 22 16 15 16 14 12 11
2310.0 12 15 19 20 21 23 25 21 21 22
2350.0 26 31 30 32 31 32 36 36 33 30
2390.0 30 27 25 24 22 18 17 17 13 12
2430.0 11 12 13 9 6 4 5 7 9 8
2470.0 8 11 7 3 3 1 5 9 5 2
2510.0 4 5 2 4 9 6 5 4 0 3
2550.0 5 7 4 6 7 4 7 8 8 10
2590.0 10 14 13 9 5 10 16 16 16 15
2630.0 16 18 18 14 17 20 16 15 15 21
2670.0 26 24 25 25 26 28 28 29 24 26
2710.0 31 26 22 20 22 22 22 23 21 21
2750.0 22 24 23 20 22 26 31 33 29 27
2790.0 27 31 34 37 42 42 43 55 69 78
2830.0 87 96 113 137 161 189 234 294 366 455
2870.0 559 665 756 810 834 826 794 757 722 701
2910.0 708 731 777 851 932 1041 1197 1412 1692 2025
2950.0 2380 2705 2955 3103 3150 3126 3054 2958 2910 2925
2990.0 2984 3036 3037 2936 2620 2222 1820 1405 1049 775
3030.0 583 445 351 299 270 241 217 197 181 166
3070.0 149 134 112 101 96 86 72 58 51 46
3110.0 44 35 29 31 27 24 22 22 21 18
3150.0 18 19 17 16 14 7 5 6 7 12
3190.0 5 4 13 11 5 1 8 13 6 5
3230.0 13 14 10 10 9 10 17 22 19 17
3270.0 17 17 13 16 13 10 10 7 12 12
3310.0 5 2 2 5 4 4 5 5 6 9
3350.0 6 1 3 8 8 6 7 5 4 2
3390.0 0 0 1 3 4 5 5 6 7 8
3430.0 12 13 11 8 8 11 14 13 12 11
3470.0 14 14 15 16 21 23 29 28 24 24
3510.0 26 30 33 34 38 42 43 47 60 68
3550.0 76 90 110 123 129 150 167 176 187 198
3590.0 199 195 185 161 145 138 123 107 95 83
3630.0 78 71 67 62 55 53 48 35 30 28
3670.0 30 34 31 29 29 27 25 31 36 32
3710.0 30 33 40 41 33 34 36 35 27 30
3750.0 29 30 28 25 33 37 35 26 26 27
3790.0 27 25 20 20 25 26 19 19 19 17
3830.0 30 34 32 31 30
##END=
