##TITLE=Diphenylacetylene
##JCAMP-DX=4.24
##DATA TYPE=INFRARED SPECTRUM
##ORIGIN=NIST Mass Spectrometry Data Center
##OWNER=NIST Standard Reference Data Program
Collection (C) 2018 copyright by the U.S. Secretary of Commerce
on behalf of the United States of America. All rights reserved.
##CAS REGISTRY NO=501-65-5
##MOLFORM=C 14 H 10
##$NIST SOURCE=MSDC-IR
##SPECTROMETER/DATA SYSTEM=HP-GC/MS/IRD
##STATE=gas
##XUNITS=1/CM
##YUNITS=ABSORBANCE
##XFACTOR=1.0
##YFACTOR=0.000001400
##DELTAX=4.0
##FIRSTX=550.0
##LASTX=3846.0
##FIRSTY=0.001280
##MAXX=3846
##MINX=550
##MAXY=0.014
##MINY=0
##NPOINTS=825
##XYDATA=(X++(Y..Y))
550.0 914 706 528 510 467 441 493 609 719 668
590.0 499 380 307 290 291 300 336 334 348 355
630.0 333 341 361 370 459 696 1042 1443 1906 2495
670.0 3291 4198 5111 5949 6732 6883 6401 5781 4850 3807
710.0 2881 2233 1883 1867 2225 3012 4187 5590 7079 8482
750.0 9621 10000 9154 7826 6350 4655 3104 1925 1240 921
790.0 761 690 669 651 595 488 413 363 287 237
830.0 235 250 248 257 248 245 270 288 306 327
870.0 363 432 515 580 612 662 713 722 723 743
910.0 804 768 633 538 440 317 222 160 97 86
950.0 87 80 95 111 129 123 107 110 124 139
990.0 168 223 277 290 278 362 593 998 1510 1739
1030.0 1518 1067 735 614 621 679 766 866 906 907
1070.0 853 756 642 539 460 400 351 297 248 205
1110.0 143 98 76 41 29 37 11 3 35 42
1150.0 45 44 49 51 48 119 220 220 139 53
1190.0 21 26 19 13 21 27 22 42 65 76
1230.0 94 103 98 118 131 125 140 144 145 151
1270.0 155 154 163 202 251 364 595 966 1351 1511
1310.0 1293 839 485 324 255 221 193 162 138 137
1350.0 157 164 168 174 177 170 159 144 126 103
1390.0 83 66 67 97 139 191 232 290 394 537
1430.0 732 947 1114 1154 1084 944 756 605 535 533
1470.0 628 878 1286 1827 2759 4766 7414 8534 6945 3894
1510.0 1801 1106 798 650 612 663 683 602 469 390
1550.0 377 377 416 505 604 705 835 1044 1372 1900
1590.0 2726 3839 5068 5863 5394 3712 1851 803 478 346
1630.0 277 235 211 203 201 239 359 509 588 536
1670.0 385 233 145 118 100 94 89 90 121 148
1710.0 160 173 220 288 360 420 436 421 402 378
1750.0 334 290 243 197 167 172 220 270 330 447
1790.0 593 695 651 507 414 413 452 463 399 289
1830.0 206 174 169 175 190 214 242 289 353 396
1870.0 431 507 603 689 715 627 443 263 173 158
1910.0 170 191 242 316 384 427 461 503 563 642
1950.0 728 795 747 551 309 145 89 73 74 71
1990.0 55 46 45 44 44 31 19 16 23 26
2030.0 16 7 0 3 8 11 15 16 21 19
2070.0 15 19 20 28 18 6 15 21 18 15
2110.0 16 13 17 17 21 26 19 14 20 27
2150.0 29 42 44 48 57 46 40 40 39 32
2190.0 14 10 20 19 14 18 26 28 32 35
2230.0 37 36 46 53 58 77 85 79 76 77
2270.0 62 40 33 27 31 32 31 40 53 86
2310.0 136 159 172 152 115 107 109 117 112 100
2350.0 95 91 69 50 45 30 8 14 21 21
2390.0 23 24 21 14 19 23 30 31 38 67
2430.0 81 69 49 40 35 29 37 37 35 39
2470.0 29 25 27 30 29 33 30 29 30 37
2510.0 38 21 18 13 20 37 35 33 36 26
2550.0 19 16 3 11 15 13 27 36 42 47
2590.0 50 59 57 56 42 39 56 56 58 55
2630.0 38 35 35 30 28 33 30 24 30 26
2670.0 23 38 44 33 31 38 42 43 39 44
2710.0 55 63 57 56 81 96 109 128 129 126
2750.0 123 116 102 79 69 73 64 60 57 48
2790.0 48 37 41 56 56 56 52 54 71 77
2830.0 69 78 89 85 97 114 116 109 116 134
2870.0 150 159 170 191 194 172 158 150 149 148
2910.0 132 120 126 155 167 159 170 164 146 145
2950.0 132 122 132 163 180 190 208 221 228 241
2990.0 282 340 410 520 647 815 1029 1270 1569 1924
3030.0 2403 3024 3463 3417 3024 2833 3321 4496 6080 7560
3070.0 8033 7244 5878 4918 4589 4391 4117 3731 3255 2650
3110.0 1940 1288 819 557 428 381 374 375 376 367
3150.0 325 243 155 105 89 76 85 85 70 74
3190.0 76 57 47 71 75 80 91 59 43 36
3230.0 25 32 37 45 53 46 26 28 25 24
3270.0 32 43 55 39 33 28 26 15 18 36
3310.0 34 38 36 42 55 51 62 52 38 55
3350.0 53 43 54 69 60 46 41 40 61 67
3390.0 57 55 59 46 22 31 36 21 41 47
3430.0 28 29 42 41 30 37 56 78 69 54
3470.0 50 44 34 21 15 10 17 19 17 13
3510.0 25 48 46 46 43 47 51 42 21 21
3550.0 49 65 30 3 30 52 60 68 50 24
3590.0 19 41 73 65 44 43 39 30 52 67
3630.0 35 56 84 79 92 79 76 76 75 76
3670.0 76 81 72 85 84 60 60 83 80 65
3710.0 83 105 103 67 54 75 71 67 59 62
3750.0 79 87 84 86 102 113 103 85 80 89
3790.0 88 81 64 50 57 61 42 31 32 49
3830.0 80 81 79 80 62
##END=
