##TITLE=Farnesal
##JCAMP-DX=4.24
##DATA TYPE=INFRARED SPECTRUM
##ORIGIN=EPA-IR VAPOR PHASE LIBRARY
##OWNER=SRD/NIST
Collection (C) 2018 copyright by the U.S. Secretary of Commerce
on behalf of the United States of America. All rights reserved.
##CAS REGISTRY NO=502-67-0
##MOLFORM=C 15 H 24 O
##$NIST SOURCE=MSDC-IR
##STATE=gas
##XUNITS=1/CM
##YUNITS=ABSORBANCE
##XFACTOR=1.
##YFACTOR=0.001
##DELTAX=1.92898
##FIRSTX=549.8
##LASTX=4000.7
##FIRSTY=1.532
##MAXX=4000.7
##MINX=549.759
##MAXY=0.062062
##MINY=0
##NPOINTS=1790
##XYDATA=(X++(Y..Y))
549.759 1.532 1.402 1.562 1.802 1.342 1.1235 1.2171 1.2352 1.292 0.95
569.049 0.9339 1.2878 1.233 1.522 1.682 1.482 1.712 1.652 1.442 1.372
588.339 1.2708 1.412 1.432 1.0997 0.9023 1.0494 1.1128 1.201 1.362 1.2774
607.628 1.1421 1.0503 0.9569 0.832 0.6889 0.7334 0.9259 0.9214 0.6298 0.5497
626.918 0.6808 0.774 0.747 0.644 0.5898 0.5724 0.5357 0.36777 0.4964 0.6684
646.208 0.719 0.7647 0.8045 0.7473 0.4602 0.30469 0.6129 0.8268 0.8236 0.8012
665.498 0.7008 0.7998 0.7855 0.7311 0.9024 0.9264 0.8094 0.7902 0.7408 0.858
684.787 1.0767 1.1535 1.472 1.782 1.712 1.702 1.792 1.872 1.972 2.232
704.077 2.202 1.932 1.762 1.552 1.462 1.412 1.422 1.552 1.522 1.472
723.367 1.392 1.362 1.672 1.892 1.752 1.742 1.912 2.092 2.332 2.362
742.657 2.272 2.212 2.072 2.042 1.972 1.912 1.952 1.952 1.902 1.932
761.947 1.922 1.872 1.862 1.752 1.642 1.722 1.892 1.792 1.812 1.902
781.236 1.992 2.012 2.042 2.212 2.302 2.422 2.292 2.032 2.192 2.492
800.526 2.602 2.902 3.242 3.332 3.422 3.492 3.652 3.892 4.102 4.342
819.816 4.642 4.862 4.992 4.972 4.912 4.872 4.712 4.692 4.682 4.712
839.106 4.472 4.152 4.162 3.912 3.692 3.782 3.722 3.402 3.272 3.252
858.395 2.932 2.582 2.622 2.792 2.812 2.722 2.602 2.612 2.612 2.262
877.685 2.282 2.512 2.292 2.152 2.022 2.162 2.162 2.122 2.312 2.382
896.975 2.342 2.342 2.392 2.332 2.302 2.142 2.052 2.322 2.492 2.312
916.265 2.182 2.232 2.262 2.252 2.472 2.342 2.092 2.162 2.162 2.232
935.555 2.172 2.112 2.182 2.222 2.242 2.182 2.352 2.562 2.502 2.462
954.844 2.602 2.842 3.042 3.212 3.472 3.542 3.462 3.572 3.632 3.532
974.134 3.442 3.332 3.322 3.492 3.552 3.412 3.352 3.452 3.342 3.142
993.424 3.082 3.242 3.092 2.822 3.042 3.172 3.082 3.082 2.882 2.642
1012.714 2.562 2.672 2.922 2.872 2.642 2.432 2.712 2.932 2.542 2.502
1032.003 2.842 2.642 2.652 2.892 2.572 2.462 2.682 2.562 2.612 3.142
1051.293 2.972 2.662 2.692 2.792 2.942 2.662 2.632 2.892 2.912 2.972
1070.583 2.782 2.442 2.822 3.142 3.352 3.452 3.562 4.002 4.362 4.822
1089.873 4.932 5.422 5.992 6.262 6.432 6.742 7.772 8.912 9.542 9.942
1109.163 9.962 9.142 8.552 7.802 6.752 5.862 5.092 4.322 3.512 3.192
1128.452 3.302 3.242 2.712 2.292 2.112 2.192 2.522 2.652 2.802 2.962
1147.742 2.882 2.912 3.062 3.002 3.072 3.402 3.632 3.552 3.622 3.672
1167.032 3.792 3.912 4.042 4.322 4.572 5.182 5.782 6.222 6.842 7.982
1186.322 8.942 9.152 9.202 9.032 8.462 7.652 6.322 5.112 4.352 3.762
1205.611 3.502 3.112 2.772 2.502 2.532 2.782 3.032 3.272 2.902 2.602
1224.901 2.682 2.662 2.322 2.242 2.222 2.202 2.422 2.182 1.832 1.682
1244.191 1.622 1.692 1.762 1.772 1.672 1.752 1.772 1.612 1.642 1.662
1263.481 1.642 1.702 1.562 1.492 1.492 1.432 1.622 1.812 1.832 1.692
1282.771 1.552 1.602 1.652 1.612 1.752 2.002 2.122 2.132 2.162 2.292
1302.060 2.312 2.382 2.502 2.552 2.702 2.782 2.732 2.842 3.002 3.132
1321.350 3.262 3.302 3.322 3.372 3.352 3.212 3.092 3.002 2.842 2.802
1340.640 2.822 2.812 2.952 3.062 3.142 3.292 3.412 3.532 3.662 3.802
1359.930 3.952 4.172 4.492 4.852 5.282 5.792 6.402 7.112 7.952 8.812
1379.219 9.652 10.382 10.832 10.922 10.692 10.172 9.502 8.732 7.932 7.322
1398.509 6.842 6.522 6.312 6.062 5.882 5.652 5.462 5.362 5.202 5.122
1417.799 5.122 5.122 5.212 5.362 5.562 5.752 6.022 6.332 6.642 7.012
1437.089 7.492 7.902 8.212 8.532 8.742 8.812 8.712 8.502 8.202 7.792
1456.378 7.352 6.982 6.602 6.152 5.722 5.322 4.942 4.602 4.292 3.992
1475.668 3.772 3.602 3.422 3.232 3.032 2.812 2.692 2.602 2.532 2.492
1494.958 2.422 2.342 2.272 2.292 2.272 2.182 2.122 2.062 2.042 2.052
1514.248 2.052 1.962 1.952 2.032 2.032 2.042 2.042 2.022 2.062 2.022
1533.538 1.982 2.072 2.162 2.082 2.052 2.132 2.072 2.132 2.212 2.162
1552.827 2.142 2.132 2.252 2.322 2.312 2.352 2.312 2.392 2.492 2.522
1572.117 2.602 2.622 2.682 2.892 3.082 3.242 3.402 3.532 3.692 3.912
1591.407 4.152 4.512 4.972 5.542 6.092 6.732 7.652 8.782 10.072 11.572
1610.697 13.192 14.672 15.942 16.942 17.322 17.062 16.152 14.882 13.642 12.482
1629.986 11.572 10.882 10.232 9.622 9.102 8.552 7.982 7.372 6.812 6.512
1649.276 6.242 5.962 5.902 5.992 6.042 6.232 6.452 6.642 6.952 7.242
1668.566 7.642 8.162 8.872 9.852 11.142 12.662 14.742 17.472 21.332 26.472
1687.856 32.772 40.522 48.942 56.152 60.662 62.062 59.462 52.682 44.452 36.322
1707.146 29.872 24.812 20.792 17.532 14.772 12.472 10.442 8.842 7.532 6.452
1726.435 5.672 4.982 4.432 4.042 3.742 3.512 3.312 3.102 2.952 2.852
1745.725 2.732 2.542 2.262 1.982 1.862 1.782 1.652 1.512 1.432 1.412
1765.015 1.332 1.2502 1.302 1.288 1.2265 1.2179 1.1872 1.1228 1.0964 1.1294
1784.305 1.1249 1.1278 1.1304 1.1066 1.0682 0.9811 0.992 1.0275 0.9791 0.982
1803.594 1.0004 1.0033 1.0094 0.9934 0.9047 0.8584 0.8788 0.8558 0.8675 0.8403
1822.884 0.8216 0.8498 0.8356 0.7773 0.7253 0.7056 0.7223 0.7375 0.6945 0.6699
1842.174 0.713 0.704 0.6566 0.6544 0.6812 0.6886 0.6634 0.624 0.6228 0.6551
1861.464 0.7023 0.6826 0.6323 0.6539 0.6017 0.5679 0.5734 0.531 0.5023 0.517
1880.754 0.538 0.5648 0.5863 0.5779 0.5527 0.5257 0.5501 0.5416 0.5684 0.6722
1900.043 0.6568 0.5993 0.6028 0.5496 0.5609 0.5609 0.4714 0.4969 0.5363 0.5084
1919.333 0.5279 0.5298 0.5602 0.6164 0.5514 0.5431 0.5942 0.5552 0.5271 0.5341
1938.623 0.5424 0.54 0.5381 0.5146 0.511 0.5245 0.5091 0.5074 0.4922 0.5048
1957.913 0.5384 0.533 0.5309 0.5416 0.5176 0.4833 0.5068 0.5842 0.599 0.4839
1977.202 0.4423 0.5257 0.6257 0.6254 0.536 0.4836 0.4721 0.5416 0.5601 0.4917
1996.492 0.4991 0.4909 0.4551 0.493 0.5364 0.539 0.5375 0.5596 0.5139 0.5022
2015.782 0.4916 0.4709 0.4941 0.5057 0.5271 0.5287 0.4901 0.4439 0.4956 0.4963
2035.072 0.4441 0.4416 0.4582 0.4316 0.4573 0.5291 0.5087 0.4814 0.4515 0.4477
2054.362 0.4472 0.4325 0.4639 0.4164 0.403 0.5029 0.4914 0.505 0.5247 0.4942
2073.651 0.4861 0.4827 0.4795 0.4502 0.4371 0.4145 0.3977 0.4244 0.4631 0.4457
2092.941 0.4175 0.4427 0.4216 0.4188 0.4607 0.4778 0.4589 0.4577 0.4676 0.4594
2112.231 0.518 0.565 0.4901 0.438 0.4459 0.4614 0.4699 0.514 0.5367 0.4788
2131.521 0.4914 0.4854 0.4549 0.4939 0.5062 0.5115 0.5237 0.5356 0.5224 0.492
2150.810 0.5648 0.5815 0.5154 0.4749 0.4422 0.4369 0.4556 0.4888 0.5423 0.5352
2170.100 0.5049 0.4966 0.5136 0.5068 0.4906 0.4485 0.4818 0.578 0.5041 0.47
2189.390 0.5953 0.596 0.5765 0.6018 0.6116 0.6353 0.6016 0.5847 0.5545 0.469
2208.680 0.4682 0.4808 0.4947 0.5712 0.6017 0.5654 0.5053 0.5286 0.5597 0.5694
2227.970 0.5309 0.4339 0.36087 0.38349 0.4314 0.4198 0.4053 0.4041 0.36586 0.3989
2247.259 0.5112 0.5587 0.5392 0.404 0.35996 0.4178 0.4564 0.5223 0.5112 0.4885
2266.549 0.4535 0.4327 0.4812 0.4772 0.4368 0.37804 0.36914 0.4472 0.4574 0.441
2285.839 0.4688 0.4149 0.4205 0.449 0.4509 0.5511 0.5696 0.5249 0.4951 0.4967
2305.129 0.5422 0.5395 0.4435 0.38831 0.4106 0.39162 0.4272 0.4586 0.3973 0.405
2324.418 0.4447 0.4452 0.4712 0.4865 0.4624 0.4373 0.38311 0.4289 0.4093 0.3922
2343.708 0.527 0.5251 0.4864 0.4866 0.4333 0.4393 0.4886 0.4189 0.3987 0.4366
2362.998 0.4823 0.4547 0.4188 0.459 0.4265 0.4329 0.4364 0.457 0.4739 0.505
2382.288 0.5195 0.4972 0.5142 0.5311 0.536 0.5068 0.4381 0.4383 0.5329 0.5733
2401.578 0.4787 0.4321 0.5045 0.5662 0.6033 0.5627 0.5538 0.5029 0.5004 0.5324
2420.867 0.4661 0.4981 0.5386 0.5264 0.4935 0.4693 0.4585 0.4804 0.5269 0.5079
2440.157 0.5697 0.5434 0.483 0.5093 0.4721 0.4394 0.4386 0.4714 0.496 0.4888
2459.447 0.4614 0.4665 0.4374 0.4969 0.5308 0.5045 0.4984 0.518 0.5863 0.5385
2478.737 0.5146 0.4762 0.4934 0.5658 0.5229 0.4879 0.5198 0.5198 0.5453 0.5113
2498.026 0.4528 0.4845 0.4498 0.4613 0.5116 0.4479 0.4273 0.4378 0.435 0.518
2517.316 0.567 0.5396 0.4974 0.4315 0.4546 0.572 0.5423 0.5323 0.5566 0.5134
2536.606 0.4915 0.5139 0.5711 0.5931 0.5324 0.4976 0.4977 0.4321 0.5147 0.5829
2555.896 0.5936 0.5653 0.4104 0.4402 0.535 0.5537 0.5062 0.4869 0.5089 0.5113
2575.186 0.6237 0.6726 0.5813 0.5263 0.5503 0.5715 0.6106 0.5907 0.5787 0.666
2594.475 0.6721 0.5992 0.6219 0.6527 0.5902 0.5798 0.6473 0.7084 0.8086 0.8738
2613.765 0.7641 0.6353 0.5857 0.6957 0.7737 0.8024 0.8069 0.7199 0.8054 0.9662
2633.055 0.9375 0.8559 0.8585 0.9344 0.9419 0.8964 0.9611 0.999 0.9779 0.9777
2652.345 1.0385 1.0316 0.995 1.0424 1.0854 1.0554 1.1069 1.1727 1.1579 1.1715
2671.634 1.2907 1.392 1.312 1.342 1.502 1.582 1.652 1.732 1.792 1.892
2690.924 2.002 2.202 2.492 2.712 2.962 3.232 3.492 3.962 4.452 4.902
2710.214 5.552 6.382 7.232 8.082 8.912 9.702 10.282 10.472 10.262 9.722
2729.504 8.982 8.192 7.632 7.222 6.892 6.592 6.262 6.022 5.842 5.782
2748.794 5.712 5.562 5.512 5.512 5.542 5.562 5.412 5.302 5.112 4.852
2768.083 4.722 4.522 4.262 3.972 3.732 3.582 3.512 3.562 3.612 3.542
2787.373 3.512 3.512 3.542 3.532 3.452 3.592 3.732 3.892 4.092 4.212
2806.663 4.482 4.682 4.862 5.232 5.592 6.022 6.642 7.302 7.982 8.692
2825.953 9.592 10.622 11.472 12.202 12.882 13.292 13.472 13.532 13.362 13.282
2845.242 13.572 13.902 14.342 14.962 15.532 16.162 16.822 17.312 17.692 18.072
2864.532 18.342 18.302 18.212 18.232 17.882 17.382 17.122 16.862 16.862 16.972
2883.822 17.062 17.312 17.682 18.152 18.822 19.342 19.832 20.642 21.282 22.012
2903.112 22.902 23.782 24.722 25.692 26.792 27.892 28.912 29.902 30.892 31.752
2922.401 32.482 32.932 33.172 33.222 32.712 32.152 31.652 30.952 30.122 29.212
2941.691 28.092 26.972 25.892 24.752 23.702 22.732 21.842 21.042 20.492 19.992
2960.981 19.552 19.442 19.302 19.142 19.052 19.012 19.062 18.842 18.612 18.292
2980.271 17.872 17.472 17.022 16.532 16.092 15.592 14.932 14.412 13.682 12.932
2999.561 12.392 11.882 11.422 10.802 10.172 9.802 9.372 9.042 8.802 8.482
3018.850 8.392 8.152 8.002 7.962 7.742 7.532 7.342 7.092 6.882 6.742
3038.140 6.542 6.362 6.112 5.852 5.692 5.502 5.352 5.152 4.882 4.662
3057.430 4.382 4.122 4.072 3.892 3.642 3.552 3.242 2.972 2.952 2.862
3076.720 2.682 2.582 2.402 2.362 2.422 2.312 2.192 2.112 2.102 2.022
3096.009 1.872 1.682 1.682 1.802 1.732 1.532 1.422 1.392 1.332 1.372
3115.299 1.382 1.2599 1.0182 0.8496 0.9815 1.0767 1.0561 0.9579 0.9328 0.9825
3134.589 0.8679 0.8055 0.7123 0.6378 0.6826 0.5827 0.6628 0.7762 0.6205 0.6376
3153.879 0.7398 0.6483 0.5461 0.6338 0.6758 0.5521 0.4691 0.5485 0.55 0.4722
3173.169 0.38555 0.4787 0.558 0.35562 0.34942 0.35764 0.33345 0.4264 0.36589 0.31656
3192.458 0.31083 0.35993 0.4972 0.5294 0.402 0.438 0.5925 0.5991 0.6477 0.6699
3211.748 0.5182 0.36737 0.39105 0.29181 0.32724 0.4276 0.4991 0.6306 0.4056 0.301611
3231.038 0.30772 0.2785 0.3931 0.486 0.4747 0.35481 0.37442 0.5507 0.5608 0.38102
3250.328 0.30608 0.298475 0.33923 0.36783 0.4705 0.4332 0.398 0.4728 0.4924 0.4055
3269.617 0.36134 0.4932 0.5441 0.6025 0.4743 0.4397 0.4796 0.4113 0.4017 0.291182
3288.907 0.35071 0.3931 0.35779 0.36844 0.38346 0.4637 0.4312 0.4788 0.608 0.6983
3308.197 0.6737 0.5971 0.4878 0.5358 0.5181 0.4225 0.588 0.6478 0.6519 0.6475
3327.487 0.5326 0.5745 0.7936 0.8297 0.6152 0.465 0.5283 0.5748 0.5995 0.8062
3346.777 0.6774 0.6372 0.6772 0.5846 0.7307 0.774 0.8228 0.8223 0.7768 0.898
3366.066 1.0628 1.057 1.2154 1.322 1.1116 1.152 1.1538 1.0462 1.0454 0.9096
3385.356 0.8113 0.7197 0.7309 0.6865 0.6088 0.7501 0.746 0.5858 0.5117 0.5482
3404.646 0.4683 0.4135 0.36886 0.33546 0.4311 0.4607 0.472 0.4475 0.4583 0.5495
3423.936 0.4823 0.38028 0.4166 0.489 0.5693 0.5112 0.36202 0.2112 0.2657 0.4203
3443.225 0.33781 0.30887 0.4443 0.5496 0.5231 0.3927 0.36697 0.33366 0.2662 0.165
3462.515 0.139 0.2376 0.300701 0.38501 0.4603 0.35654 0.176 0.113 0.2694 0.37649
3481.805 0.4144 0.38734 0.30626 0.2818 0.2446 0.32619 0.39104 0.4804 0.38551 0.3165
3501.095 0.37863 0.31128 0.31136 0.37583 0.4764 0.4462 0.2617 0.2249 0.28473 0.3036
3520.385 0.28847 0.163 0.045 0.2389 0.31079 0.2616 0.2271 0.125 0.2297 0.4458
3539.674 0.4575 0.142 0 0.067 0.16 0.4069 0.4784 0.34204 0.2336 0.28637
3558.964 0.3378 0.135 0.126 0.175 0.2113 0.157 0.164 0.2408 0.188 0.2522
3578.254 0.2611 0.38053 0.37342 0.2317 0.2247 0.2234 0.2164 0.36473 0.5178 0.36866
3597.544 0.34496 0.33383 0.148 0.12 0.146 0.30583 0.34884 0.32475 0.5487 0.6447
3616.833 0.5094 0.37147 0.33284 0.38871 0.4335 0.36735 0.33151 0.28632 0.2836 0.3502
3636.123 0.38138 0.4104 0.296266 0.31383 0.4132 0.5359 0.6149 0.4969 0.4361 0.31373
3655.413 0.293289 0.35811 0.2816 0.2589 0.31836 0.4568 0.6252 0.5991 0.4573 0.3434
3674.703 0.2219 0.158 0.2175 0.36335 0.4533 0.4291 0.296311 0.31923 0.4089 0.34897
3693.993 0.33785 0.2247 0.2209 0.2745 0.38307 0.5547 0.5928 0.5056 0.34637 0.2659
3713.282 0.2075 0.2129 0.2049 0.1996 0.2032 0.144 0.185 0.227 0.165 0.168
3732.572 0.189 0.2182 0.38411 0.4331 0.4 0.4309 0.293354 0.2076 0.4135 0.6846
3751.862 0.6748 0.5605 0.4766 0.35486 0.37137 0.292237 0.30795 0.4881 0.35347 0.2716
3771.152 0.36996 0.30917 0.31292 0.37893 0.2165 0.32971 0.4607 0.39076 0.30964 0.44
3790.441 0.5284 0.33205 0.2724 0.2802 0.2666 0.2101 0.086 0.129 0.18 0.174
3809.731 0.34478 0.4221 0.3934 0.2783 0.37588 0.4042 0.35687 0.497 0.4652 0.32211
3829.021 0.28537 0.4012 0.5629 0.5163 0.4681 0.33542 0.225 0.31398 0.4074 0.4239
3848.311 0.37638 0.28 0.31973 0.5366 0.4212 0.35644 0.4909 0.5476 0.4885 0.4654
3867.601 0.4931 0.4949 0.4649 0.38841 0.37392 0.3581 0.35014 0.4029 0.3646 0.37346
3886.890 0.37563 0.31203 0.4114 0.4306 0.34639 0.449 0.37519 0.2635 0.4363 0.4955
3906.180 0.4606 0.556 0.6152 0.4762 0.300956 0.4627 0.4031 0.30416 0.4756 0.4535
3925.470 0.4025 0.2591 0.2001 0.172 0.2419 0.4535 0.4613 0.456 0.4819 0.4423
3944.760 0.5892 0.5217 0.2478 0.28854 0.346 0.2608 0.3927 0.5159 0.38274 0.31454
3964.049 0.37999 0.6044 0.6096 0.36748 0.2665 0.108 0.157 0.35839 0.4246 0.38059
3983.339 0.35027 0.32796 0.35791 0.5315 0.596 0.539 0.4405 0.4597 0.523 0.5051
##END=
