##TITLE=Cyclooctanone
##JCAMP-DX=4.24
##DATA TYPE=INFRARED SPECTRUM
##ORIGIN=NIST Mass Spectrometry Data Center
##OWNER=NIST Standard Reference Data Program
Collection (C) 2018 copyright by the U.S. Secretary of Commerce
on behalf of the United States of America. All rights reserved.
##CAS REGISTRY NO=502-49-8
##MOLFORM=C 8 H 14 O
##$NIST SOURCE=MSDC-IR
##SPECTROMETER/DATA SYSTEM=HP-GC/MS/IRD
##STATE=gas
##XUNITS=1/CM
##YUNITS=ABSORBANCE
##XFACTOR=1.0
##YFACTOR=0.000005200
##DELTAX=4.0
##FIRSTX=550.0
##LASTX=3846.0
##FIRSTY=0.000374
##MAXX=3846
##MINX=550
##MAXY=0.052
##MINY=0
##NPOINTS=825
##XYDATA=(X++(Y..Y))
550.0 72 62 47 36 12 7 19 18 15 14
590.0 3 8 17 18 21 23 18 13 17 3
630.0 1 7 7 15 13 6 8 17 22 14
670.0 8 10 22 26 21 28 37 39 47 57
710.0 59 65 74 79 88 94 104 108 111 114
750.0 112 105 94 94 99 99 113 134 152 160
790.0 169 192 205 220 244 263 272 275 283 283
830.0 289 305 322 343 337 299 258 208 162 127
870.0 106 91 76 65 62 61 58 59 76 94
910.0 102 116 133 142 155 164 165 172 172 173
950.0 182 195 209 216 213 200 185 165 148 141
990.0 142 146 147 144 136 130 124 123 121 118
1030.0 118 120 125 139 167 210 254 300 347 387
1070.0 425 455 491 540 590 629 638 612 555 478
1110.0 394 317 265 246 257 293 363 444 516 576
1150.0 614 603 576 532 471 424 402 399 426 491
1190.0 584 685 767 819 824 768 676 571 475 414
1230.0 391 396 419 454 485 511 527 520 503 465
1270.0 416 369 319 274 239 219 212 220 244 290
1310.0 365 457 559 672 771 851 908 926 895 837
1350.0 757 654 544 434 334 253 190 148 128 121
1390.0 127 149 186 247 327 414 488 553 613 670
1430.0 746 862 1039 1234 1410 1536 1594 1614 1539 1446
1470.0 1329 1046 813 667 508 362 255 189 144 109
1510.0 90 82 66 60 61 58 53 48 45 50
1550.0 55 54 48 54 56 56 58 61 66 67
1590.0 68 66 66 69 72 78 83 85 92 100
1630.0 110 118 129 140 147 158 180 213 256 303
1670.0 361 438 531 658 866 1176 1648 2337 3247 4207
1710.0 5038 5676 5984 5561 4616 3596 2506 1574 1001 682
1750.0 514 410 339 289 248 210 181 162 144 129
1790.0 116 105 100 94 87 77 70 62 54 47
1830.0 42 42 40 35 33 32 30 29 30 28
1870.0 24 25 25 23 24 26 23 20 19 23
1910.0 23 21 23 22 22 23 24 24 20 17
1950.0 19 17 17 19 15 11 11 11 9 8
1990.0 7 9 11 12 12 13 14 12 14 14
2030.0 13 12 13 15 18 19 18 14 14 15
2070.0 14 15 14 13 13 15 18 19 19 16
2110.0 15 16 16 17 14 14 16 14 16 19
2150.0 18 18 19 21 21 19 17 16 20 21
2190.0 20 20 18 20 20 18 20 18 17 15
2230.0 12 13 14 16 19 17 19 23 24 23
2270.0 21 19 21 21 19 19 19 16 11 9
2310.0 8 8 10 9 7 6 6 4 6 4
2350.0 6 6 4 5 6 6 7 7 6 7
2390.0 8 9 8 7 10 9 8 8 10 10
2430.0 9 6 5 9 8 6 6 4 3 1
2470.0 2 5 3 3 1 0 3 3 6 7
2510.0 5 7 7 6 10 13 14 14 13 16
2550.0 19 19 18 19 21 20 17 18 21 21
2590.0 24 27 28 30 29 27 30 32 32 37
2630.0 42 43 50 54 59 62 66 72 79 93
2670.0 102 112 128 140 147 155 160 154 141 132
2710.0 121 105 88 78 74 68 64 62 65 67
2750.0 65 69 75 79 82 92 108 120 134 145
2790.0 156 171 190 211 233 253 273 293 311 327
2830.0 350 394 475 620 865 1199 1575 1961 2294 2481
2870.0 2511 2457 2344 2227 2132 2079 2163 2370 2662 3012
2910.0 3487 4227 5073 6080 7319 8534 9479 10000 9947 9205
2950.0 8063 6712 5525 4512 3462 2723 2147 1604 1167 858
2990.0 651 503 390 310 258 216 186 162 144 129
3030.0 115 105 97 87 76 71 67 63 62 57
3070.0 51 49 47 46 44 42 37 34 33 34
3110.0 33 30 30 29 30 31 29 29 31 35
3150.0 36 33 31 29 28 26 22 19 14 14
3190.0 13 10 12 13 13 16 13 11 13 14
3230.0 16 19 18 16 19 17 15 16 22 24
3270.0 20 15 12 14 15 9 11 10 6 2
3310.0 2 6 6 11 9 10 14 15 16 16
3350.0 15 18 23 24 27 31 37 41 45 50
3390.0 63 78 92 100 108 115 116 121 117 96
3430.0 80 65 49 39 35 29 25 21 18 17
3470.0 13 13 15 13 9 5 7 7 2 0
3510.0 3 4 6 7 5 6 7 5 7 11
3550.0 13 5 2 7 4 3 4 3 2 1
3590.0 0 1 5 5 7 7 4 1 3 5
3630.0 0 5 12 15 8 5 13 11 11 14
3670.0 12 9 6 9 10 8 9 12 9 8
3710.0 10 12 11 11 20 14 8 14 10 11
3750.0 18 17 17 21 22 21 20 20 19 17
3790.0 21 21 15 12 15 15 8 4 11 20
3830.0 21 17 12 16 22
##END=
