##TITLE=N-2,4,6-Trisopropylbenzenesulphonylimidazole
##JCAMP-DX=4.24
##DATA TYPE=INFRARED SPECTRUM
##ORIGIN=EPA-IR VAPOR PHASE LIBRARY
##OWNER=SRD/NIST
Collection (C) 2018 copyright by the U.S. Secretary of Commerce
on behalf of the United States of America. All rights reserved.
##CAS REGISTRY NO=50257-40-4
##MOLFORM=C 18 H 26 N 2 O 2 S
##$NIST SOURCE=MSDC-IR
##STATE=gas
##XUNITS=1/CM
##YUNITS=ABSORBANCE
##XFACTOR=1.
##YFACTOR=0.001
##DELTAX=1.92898
##FIRSTX=549.8
##LASTX=4000.7
##FIRSTY=13.292
##MAXX=4000.7
##MINX=549.759
##MAXY=0.085722
##MINY=0
##NPOINTS=1790
##XYDATA=(X++(Y..Y))
549.759 13.292 15.002 16.002 16.142 14.352 13.122 12.932 12.452 11.962 12.312
569.049 12.752 13.012 14.172 16.152 17.772 19.922 23.352 27.662 32.272 36.162
588.339 40.152 42.772 43.332 42.452 39.212 35.102 30.922 26.782 23.082 20.032
607.628 17.662 15.222 13.612 12.592 11.272 10.752 11.042 11.252 10.762 10.882
626.918 11.562 11.722 11.972 11.902 11.552 11.612 12.332 13.562 15.082 16.492
646.208 17.512 18.012 19.052 20.362 21.792 24.742 29.552 36.392 45.322 55.622
665.498 65.282 71.942 72.942 67.552 57.542 45.192 33.812 25.502 19.712 14.922
684.787 11.412 9.622 8.492 7.292 5.882 5.422 5.312 4.702 4.252 3.932
704.077 3.952 4.412 4.602 5.322 6.312 7.192 8.092 8.842 9.242 8.502
723.367 7.252 6.442 6.002 5.732 6.212 7.272 8.052 8.452 8.362 7.362
742.657 5.892 4.742 4.162 3.672 3.472 3.292 2.912 2.582 2.442 2.562
761.947 2.332 1.732 1.4898 1.4518 1.5045 1.6037 1.6086 1.672 1.762 1.802
781.236 1.772 1.682 1.5727 1.5816 1.5886 1.5791 1.6149 1.752 1.842 2.312
800.526 3.182 3.412 3.712 4.442 5.052 5.852 5.752 5.082 4.662 4.632
819.816 4.792 5.352 6.452 7.252 7.692 7.712 7.102 6.022 5.082 4.602
839.106 4.242 3.282 2.562 2.492 2.172 1.4139 1.3033 1.5634 1.565 2.052
858.395 2.212 1.922 2.012 2.332 2.412 2.572 3.212 4.052 4.312 4.742
877.685 6.292 7.662 8.492 9.332 9.502 8.942 8.182 7.162 5.902 4.922
896.975 4.142 3.592 3.182 2.852 2.682 2.462 2.462 2.482 2.682 2.732
916.265 2.862 3.222 3.672 3.982 4.252 4.852 5.462 5.832 5.882 6.312
935.555 6.512 6.272 5.752 4.872 4.092 3.822 3.422 2.552 2.602 2.772
954.844 2.852 2.602 2.452 2.332 2.052 2.422 2.592 2.442 2.182 2.452
974.134 2.432 2.112 2.052 2.662 3.172 2.862 2.822 2.982 3.142 3.062
993.424 2.822 2.692 2.602 2.152 2.232 2.842 2.872 2.762 2.592 2.912
1012.714 3.512 3.542 3.832 3.892 4.022 5.322 6.402 6.832 7.982 10.332
1032.003 13.012 16.432 22.512 31.912 45.632 62.102 76.762 85.722 85.092 74.332
1051.293 57.382 39.562 26.732 19.952 15.552 12.482 11.062 10.202 9.292 8.802
1070.583 8.442 7.672 7.222 7.162 6.942 6.902 7.442 8.202 8.832 10.022
1089.873 10.722 11.972 13.792 14.072 13.772 13.052 12.002 9.472 7.902 8.042
1109.163 6.922 5.832 5.252 5.242 4.672 4.812 5.842 6.222 7.032 8.882
1128.452 11.292 13.132 15.512 20.012 27.662 38.622 50.862 62.262 70.452 71.412
1147.742 65.312 54.652 42.032 31.272 25.072 22.822 21.152 20.512 20.432 20.382
1167.032 22.182 24.432 27.032 31.072 34.862 38.492 42.392 44.082 44.742 44.922
1186.322 43.412 40.742 37.592 34.482 30.992 27.762 24.372 19.702 15.682 12.812
1205.611 9.692 8.442 7.302 5.832 6.312 6.462 5.462 4.332 5.022 6.502
1224.901 6.292 5.032 4.402 4.892 5.882 7.482 8.552 8.782 8.552 8.572
1244.191 8.852 8.812 9.282 9.932 9.862 9.622 9.702 9.692 9.592 9.732
1263.481 9.572 9.002 8.112 6.802 6.382 5.952 4.852 4.172 3.592 3.282
1282.771 3.052 3.122 3.112 2.772 2.792 3.292 3.522 3.302 3.322 3.522
1302.060 4.042 4.382 4.742 5.132 5.402 5.822 5.922 5.702 5.372 5.052
1321.350 4.732 4.502 4.592 4.542 4.492 4.622 4.932 5.452 5.942 6.472
1340.640 7.332 8.282 9.152 10.172 11.012 11.802 12.592 13.122 13.732 14.372
1359.930 15.062 16.072 17.502 19.262 21.202 22.572 23.252 24.192 25.852 28.522
1379.219 32.232 36.462 40.292 42.812 43.392 41.862 38.372 33.542 28.092 22.992
1398.509 18.762 15.622 13.682 12.512 11.982 11.942 12.362 13.312 14.772 16.712
1417.799 19.102 21.702 23.952 25.582 26.452 25.962 24.212 21.922 19.322 16.992
1437.089 15.152 13.942 13.332 13.212 13.532 14.252 15.312 16.322 17.432 18.822
1456.378 20.272 21.532 22.562 23.282 23.202 22.332 21.192 19.872 18.152 16.412
1475.668 14.732 12.732 10.772 9.172 7.852 6.692 5.772 5.262 4.982 4.712
1494.958 4.532 4.532 4.642 4.742 5.032 5.282 5.632 6.202 6.882 7.842
1514.248 8.452 8.582 8.172 7.292 6.382 5.472 4.922 4.782 4.782 5.002
1533.538 5.452 5.872 6.292 6.782 7.172 7.552 8.012 8.332 8.512 8.722
1552.827 8.812 8.922 9.102 9.232 9.242 8.832 8.272 7.892 7.362 6.882
1572.117 6.582 6.262 6.182 6.492 7.022 7.812 8.842 9.942 11.492 13.732
1591.407 16.252 18.492 20.192 20.632 19.722 17.742 15.052 11.992 9.202 7.272
1610.697 6.002 5.222 4.672 4.162 3.622 3.312 2.932 2.642 2.472 2.302
1629.986 2.202 2.192 2.252 2.222 2.032 1.992 2.212 2.272 2.182 2.022
1649.276 2.122 2.152 2.032 1.972 1.862 1.812 1.722 1.692 1.6148 1.5793
1668.566 1.692 1.702 1.6557 1.6309 1.702 1.682 1.742 1.822 1.772 1.682
1687.856 1.6459 1.672 1.6339 1.6537 1.5715 1.4881 1.357 1.2465 1.2879 1.275
1707.146 1.2416 1.324 1.5676 1.6546 1.5201 1.5298 1.852 1.972 1.832 1.692
1726.435 1.5006 1.2366 1.1894 1.205 1.0162 0.927 0.871 1.0743 1.1737 1.0596
1745.725 1.0484 0.8569 0.73071 0.71266 0.67266 0.75779 0.841 0.9555 1.0102 0.9394
1765.015 1.092 1.22 1.2304 1.3292 1.3598 1.3561 1.3033 1.2726 1.1991 1.1046
1784.305 1.0798 1.0641 1.0692 0.9764 0.8675 0.9837 1.0185 0.9331 0.9689 0.9952
1803.594 1.1235 0.9786 0.7898 0.8969 1.049 0.9806 0.8755 0.9117 0.8789 0.9721
1822.884 0.8986 0.7721 0.7667 0.73194 0.73767 0.838 0.8412 0.8169 0.9299 0.8466
1842.174 0.75343 0.71596 0.70114 0.7921 0.73845 0.7849 0.9838 1.0007 0.9034 0.886
1861.464 0.8817 0.8688 0.863 0.8439 0.8452 0.803 0.7625 0.8022 0.7946 0.70554
1880.754 0.8144 0.9132 0.8253 0.71661 0.762 0.8608 0.8473 0.935 0.8492 0.6053
1900.043 0.5992 0.68937 0.74212 0.7974 0.662304 0.5964 0.6519 0.6403 0.7115 0.7835
1919.333 0.70276 0.603 0.548 0.6106 0.69447 0.6145 0.534 0.52 0.557 0.52
1938.623 0.5944 0.6445 0.5996 0.538 0.494 0.509 0.67437 0.71764 0.6013 0.5918
1957.913 0.71732 0.70242 0.6173 0.72249 0.7625 0.6477 0.6016 0.69009 0.68054 0.8072
1977.202 0.8761 0.6502 0.424 0.549 0.70934 0.6321 0.562 0.505 0.5911 0.76163
1996.492 0.8112 0.6184 0.524 0.73652 0.7868 0.73255 0.8245 0.9068 0.8602 0.72073
2015.782 0.804 0.9341 0.8536 0.9659 1.0387 0.9701 0.9276 0.9404 1.0279 1.1068
2035.072 1.0371 0.9629 0.8283 0.74991 0.75648 0.73159 0.8392 0.7861 0.70922 0.7817
2054.362 0.7913 0.8127 0.8128 0.65292 0.67413 0.68577 0.66003 0.8055 0.809 0.8623
2073.651 0.877 0.8429 0.8657 0.8348 0.7673 0.70429 0.7664 0.7775 0.7897 0.9314
2092.941 0.8563 0.72934 0.7805 0.70773 0.8082 0.9106 0.7778 0.72425 0.72735 0.6978
2112.231 0.7219 0.8345 0.9159 0.9283 0.8944 0.8096 0.8433 1.0311 1.1978 1.1725
2131.521 1.0334 1.0844 1.089 0.9914 0.9236 0.9364 0.8512 0.69792 0.73731 0.7685
2150.810 0.8659 0.8894 0.73105 0.70346 0.811 0.8454 0.75784 0.7835 0.816 0.75378
2170.100 0.8457 0.8269 0.8071 0.8562 0.9861 0.9415 0.70256 0.7648 0.9109 1.0461
2189.390 1.0788 0.9546 0.933 0.8727 0.7644 0.8681 0.9385 0.9687 0.9683 0.9472
2208.680 0.8208 0.71639 0.8012 0.786 0.8152 0.8434 0.8501 0.902 0.9236 0.8766
2227.970 0.9277 1.0162 1.0402 0.9742 0.9459 0.9799 0.9117 1.0024 1.0126 0.8855
2247.259 0.9036 0.9713 0.8616 0.9123 0.8122 0.7368 0.9759 0.9165 0.8939 0.8741
2266.549 0.73242 0.828 0.953 0.9103 0.9147 0.7875 0.7335 0.8999 0.9406 0.8571
2285.839 0.8796 1.061 1.0013 0.9684 0.9092 0.7607 0.9113 0.9143 0.8103 0.9056
2305.129 1.0094 0.9187 0.8004 0.9407 1.0484 0.8326 0.8101 1.0318 1.0733 0.9131
2324.418 0.8661 0.9738 0.8387 0.73628 0.8243 0.9281 0.9724 0.9341 0.9947 0.9602
2343.708 0.8454 0.8304 0.6508 0.72519 0.9283 0.72559 0.642 0.8381 0.9529 0.8399
2362.998 0.7869 0.832 0.9577 1.1083 0.9956 0.9041 1.0626 1.1216 1.0215 0.9688
2382.288 0.9713 0.9297 0.9744 1.0969 0.9188 0.6303 0.5986 0.74743 0.75345 0.6937
2401.578 0.7901 0.8392 0.9004 1.0179 0.9943 0.9594 0.8876 0.7721 0.8402 0.9865
2420.867 1.0018 0.9839 0.9792 0.9082 0.9131 0.94 0.9559 0.8732 0.8259 0.9683
2440.157 1.0611 1.0938 1.0905 1.2057 1.2189 0.9865 0.8967 0.966 1.046 1.1312
2459.447 1.2151 1.2494 1.3916 1.3393 1.2564 1.3368 1.3829 1.4988 1.4538 1.3262
2478.737 1.3106 1.4393 1.3773 1.3701 1.4747 1.376 1.3394 1.1939 1.1677 1.2617
2498.026 1.1906 1.2338 1.372 1.4902 1.4867 1.494 1.3708 1.3399 1.3224 1.1998
2517.316 1.1767 1.1486 1.1766 1.0878 1.1302 0.961 0.8097 1.0223 1.0097 0.923
2536.606 1.0211 1.146 1.199 1.2456 1.2005 1.1627 1.157 0.8572 0.7636 1.193
2555.896 1.3467 1.1802 1.1148 1.3461 1.4796 1.3273 1.2867 1.2279 1.1792 1.1181
2575.186 1.0196 1.0225 1.1437 1.2069 1.2063 1.252 1.256 1.2229 1.28 1.223
2594.475 1.2468 1.5073 1.5108 1.4361 1.3996 1.5292 1.4411 1.2998 1.4261 1.301
2613.765 1.2595 1.2603 1.1908 1.2566 1.3367 1.1741 1.1887 1.2421 1.0499 1.1368
2633.055 1.2393 1.0688 0.8634 0.9432 1.1343 1.159 1.0567 0.8711 0.8516 0.9391
2652.345 1.0165 1.1622 1.069 1.0619 1.1479 1.0914 1.0502 1.0051 1.1524 1.1911
2671.634 1.137 1.1559 1.1669 1.1686 1.1071 0.9298 0.7854 1.0237 1.2371 1.1547
2690.924 1.1584 1.193 1.1558 1.0617 0.912 1.1206 1.3498 1.2911 1.0841 0.8137
2710.214 0.7859 0.8957 1.1428 1.4394 1.6136 1.5484 1.6028 1.822 1.662 1.4621
2729.504 1.5555 1.6452 1.4991 1.3919 1.4119 1.5662 1.5629 1.5361 1.6232 1.5085
2748.794 1.5206 1.3423 0.9953 1.1165 1.4274 1.4311 1.4748 1.4827 1.432 1.6252
2768.083 1.862 1.792 1.832 1.852 1.822 1.832 1.672 1.5711 1.482 1.5427
2787.373 1.3465 1.4101 1.772 1.802 1.782 1.772 1.922 1.882 1.882 2.062
2806.663 2.022 1.822 1.822 2.292 2.532 2.342 2.162 2.222 2.272 2.262
2825.953 2.332 2.432 2.162 2.132 2.282 2.372 2.572 2.762 3.132 3.282
2845.242 3.162 3.522 3.992 4.022 4.452 4.842 4.992 5.442 5.902 6.342
2864.532 6.892 7.962 9.232 10.732 12.582 14.582 16.812 18.562 19.472 19.712
2883.822 19.292 18.212 16.702 15.492 14.502 13.822 13.592 13.762 14.002 14.392
2903.112 14.742 14.882 15.272 15.662 15.852 15.782 16.032 16.162 16.042 16.362
2922.401 16.862 17.332 18.182 19.612 21.322 23.332 25.302 26.512 26.922 27.022
2941.691 26.382 25.162 23.972 22.752 22.022 22.522 24.172 27.162 32.062 39.162
2960.981 47.582 56.042 63.682 69.292 72.172 72.022 68.672 62.812 55.022 46.242
2980.271 38.162 31.092 25.392 21.012 17.542 14.722 12.692 11.342 9.932 8.742
2999.561 7.942 7.162 6.512 6.102 5.612 5.372 5.062 4.572 4.552 4.692
3018.850 4.612 4.312 4.252 4.332 4.472 4.392 4.222 4.092 4.182 4.272
3038.140 4.132 4.322 4.182 4.232 4.312 4.032 4.272 4.652 4.702 4.642
3057.430 4.622 4.482 4.462 4.562 4.462 4.412 4.182 3.852 3.722 3.672
3076.720 3.692 3.542 3.432 3.242 2.992 2.972 2.802 2.602 2.472 2.442
3096.009 2.532 2.572 2.452 2.462 2.592 2.452 2.492 2.482 2.222 2.482
3115.299 2.532 2.362 2.602 2.842 3.142 3.172 3.292 3.212 2.882 2.832
3134.589 2.982 3.142 2.892 2.942 2.952 2.712 2.622 2.422 2.182 2.352
3153.879 2.842 2.892 2.692 2.662 2.712 2.542 2.452 2.402 2.112 1.792
3173.169 1.772 1.942 1.852 1.6276 1.6112 1.712 1.6536 1.5514 1.5612 1.682
3192.458 1.5024 1.3662 1.4388 1.3697 1.4973 1.682 1.5581 1.4919 1.4494 1.2534
3211.748 1.141 1.3532 1.5555 1.3113 1.2488 1.4523 1.3461 1.179 1.3097 1.2013
3231.038 0.8529 0.9296 1.2587 1.1764 1.0019 1.0425 1.0218 0.9071 1.0388 1.1632
3250.328 0.75892 0.5895 0.662768 0.304 0.34 0.8534 0.8227 0.65425 0.7643 0.78
3269.617 0.876 0.8045 0.73337 0.71671 0.7524 0.9657 0.8595 0.8713 1.0426 1.1263
3288.907 1.2085 1.1659 1.0275 0.69702 0.671297 0.895 0.876 0.74081 0.7712 0.8665
3308.197 0.9023 0.9645 0.8919 0.8549 0.74358 0.7642 0.6469 0.69412 1.1297 0.9104
3327.487 0.6069 0.436 0.528 0.7647 0.68052 0.72847 0.73726 0.74322 0.72912 0.771
3346.777 0.771 0.448 0.70432 0.8133 0.512 0.6295 0.954 1.2336 1.1496 0.9277
3366.066 0.8637 0.9392 1.0747 0.8998 0.70084 0.5674 0.399 0.439 0.569 0.70643
3385.356 0.527 0.498 0.72938 0.8894 0.9148 0.9043 0.9375 0.8141 0.9308 0.9277
3404.646 0.8481 0.9655 0.8012 0.551 0.562 0.54 0.398 0.70204 0.75669 0.51
3423.936 0.7311 0.9433 0.9152 0.72344 0.8294 1.0157 0.6511 0.5936 0.6415 0.557
3443.225 0.661981 0.7882 0.9042 0.793 0.7338 0.69829 0.546 0.65746 0.9763 1.1475
3462.515 0.9512 0.8312 0.9402 1.0215 1.0428 1.0364 0.71543 0.303 0.332 0.392
3481.805 0.292 0.245 0.38 0.363 0.523 0.432 0.204 0.5901 1.1151 0.8313
3501.095 0.441 0.405 0.318 0.6242 0.677 0.5982 0.68593 0.5941 0.502 0.69224
3520.385 0.71792 0.5665 0.668086 0.8203 0.8139 0.6097 0.5668 0.5628 0.556 0.667596
3539.674 0.6275 0.496 0.515 0.645 0.5679 0.69496 0.7477 0.5859 0.6201 0.363
3558.964 0 0.104 0.561 0.7656 0.5965 0.503 0.251 0.361 0.69557 0.792
3578.254 0.8003 0.512 0.546 0.72676 0.72872 0.7972 0.6467 0.435 0.481 0.557
3597.544 0.5897 0.5894 0.456 0.485 0.72457 0.7927 0.8471 0.664139 0.6357 0.7664
3616.833 0.72639 0.7374 0.514 0.74635 0.9003 0.8087 0.7975 0.282 0.107 0.407
3636.123 0.6444 0.606 0.5946 0.69221 0.6189 0.445 0.381 0.459 0.6337 0.5977
3655.413 0.477 0.7416 0.75755 0.73686 0.8282 0.6417 0.72098 0.9624 0.629 0.282
3674.703 0.079 0.113 0.518 0.506 0.441 0.7888 0.65796 0.478 0.68048 0.69796
3693.993 0.70589 0.70528 0.6351 0.6888 1.0703 1.1388 0.9736 0.8127 0.5813 0.5938
3713.282 0.402 0.379 0.604 0.525 0.477 0.554 0.5731 0.5882 0.6165 0.397
3732.572 0.355 0.6221 0.6343 0.354 0.241 0.43 0.5945 0.552 0.351 0.52
3751.862 0.6465 0.514 0.6196 0.513 0.442 0.523 0.377 0.287 0.236 0.48
3771.152 1.0104 0.8292 0.255 0.323 0.563 0.71121 1.0035 1.1386 0.9715 0.6448
3790.441 0.451 0.453 0.68817 0.9195 0.8842 0.8487 0.6236 0.505 0.466 0.317
3809.731 0.68504 1.1527 1.0707 0.727 0.8127 1.0944 0.9672 0.74871 0.8265 0.879
3829.021 0.8621 1.0695 1.0178 1.113 1.0995 0.65786 0.668539 0.9321 1.1712 1.0549
3848.311 0.73448 0.8454 1.0691 0.9898 0.9293 0.9459 0.8954 0.71909 0.71236 0.8565
3867.601 0.9815 0.7636 0.521 1.1459 1.662 1.3097 1.08 1.1565 1.2019 1.1421
3886.890 0.8953 0.9207 0.70617 0.667069 1.0783 0.9821 0.8081 1.007 0.85 0.9633
3906.180 0.73436 0.377 0.9072 0.9571 0.8231 0.9637 0.9577 0.9621 0.9445 0.68619
3925.470 0.59 0.71099 0.8036 0.7977 0.6252 0.437 0.262 0.29 0.67412 0.67871
3944.760 0.272 0.474 0.8352 0.8356 1.1498 1.104 0.8343 0.68998 0.446 0.525
3964.049 0.385 0.356 0.667895 0.8024 0.6417 0.8248 0.9981 0.8109 0.72859 0.72091
3983.339 0.7822 0.9836 0.9954 0.465 0.5832 0.7666 0.7961 0.9255 0.9421 0.9657
##END=
