##TITLE=N-Mesitylenesulphonylimidazole
##JCAMP-DX=4.24
##DATA TYPE=INFRARED SPECTRUM
##ORIGIN=EPA-IR VAPOR PHASE LIBRARY
##OWNER=SRD/NIST
Collection (C) 2018 copyright by the U.S. Secretary of Commerce
on behalf of the United States of America. All rights reserved.
##CAS REGISTRY NO=50257-39-1
##MOLFORM=C 12 H 14 N 2 O 2 S
##$NIST SOURCE=MSDC-IR
##STATE=gas
##XUNITS=1/CM
##YUNITS=ABSORBANCE
##XFACTOR=1.
##YFACTOR=0.001
##DELTAX=1.92898
##FIRSTX=549.8
##LASTX=4000.7
##FIRSTY=11.188
##MAXX=4000.7
##MINX=549.759
##MAXY=0.188698
##MINY=0
##NPOINTS=1790
##XYDATA=(X++(Y..Y))
549.759 11.188 9.698 8.238 7.338 6.898 6.708 7.448 8.438 8.788 9.758
569.049 10.728 10.838 11.508 12.058 12.028 12.678 13.768 15.678 18.768 24.088
588.339 31.838 41.378 52.828 64.258 73.878 81.658 85.608 85.268 81.398 74.298
607.628 66.158 57.608 49.298 41.518 33.738 26.628 20.948 16.948 14.318 12.768
626.918 12.038 11.698 11.298 11.858 13.558 15.058 16.648 18.788 20.778 22.928
646.208 25.748 28.828 32.598 38.338 46.568 59.148 78.238 103.688 132.868 161.108
665.498 181.188 188.698 183.498 166.498 139.178 106.268 76.098 54.098 40.618 32.558
684.787 26.658 21.578 17.608 14.738 12.728 11.348 10.568 10.368 10.278 10.418
704.077 11.208 12.378 14.068 16.568 19.128 21.588 23.378 24.078 23.518 21.668
723.367 19.508 17.008 14.798 13.788 13.508 13.208 13.548 14.268 14.248 13.608
742.657 12.518 11.428 9.878 8.188 6.958 6.128 5.358 4.408 3.738 3.538
761.947 3.328 3.448 3.518 3.128 2.988 2.938 2.888 2.888 2.758 2.588
781.236 2.438 2.488 2.968 3.098 3.558 3.928 3.598 3.778 4.088 4.578
800.526 5.328 6.148 7.258 8.398 9.158 9.288 9.468 9.548 9.068 9.428
819.816 9.958 10.358 11.038 12.088 13.358 13.208 12.498 12.278 11.478 10.308
839.106 9.498 9.548 10.378 11.478 12.788 13.728 14.118 12.998 11.258 9.498
858.395 7.478 5.918 5.118 4.578 3.808 3.158 2.678 2.898 3.358 3.448
877.685 3.638 4.298 5.498 6.738 8.158 9.248 9.708 9.648 8.708 7.578
896.975 5.988 4.528 3.968 3.488 3.258 3.228 3.008 2.908 2.908 3.018
916.265 3.068 2.848 2.758 2.658 2.468 2.228 1.988 1.998 1.998 2.378
935.555 2.558 2.308 2.218 2.328 2.908 2.998 2.588 2.428 2.658 3.158
954.844 3.558 3.588 3.918 4.178 3.978 3.978 4.118 3.998 3.598 3.518
974.134 3.808 4.198 4.408 4.658 4.798 4.858 5.288 5.918 6.278 6.008
993.424 5.628 5.428 5.038 4.608 4.488 4.748 5.078 5.358 5.668 6.258
1012.714 6.628 6.798 7.238 8.458 9.798 11.078 12.758 14.698 17.428 21.078
1032.003 26.218 35.048 47.958 65.128 87.388 111.068 131.628 146.758 152.298 146.468
1051.293 131.558 109.068 83.938 61.418 43.778 31.338 22.908 17.248 13.348 10.748
1070.583 9.598 9.188 8.828 8.678 9.488 10.508 11.248 13.138 14.588 16.168
1089.873 20.318 22.888 23.508 24.648 23.518 20.918 18.128 14.378 11.398 9.308
1109.163 7.168 5.758 5.968 6.048 7.048 7.868 7.268 7.108 8.328 11.308
1128.452 14.518 18.398 24.698 34.378 47.748 65.528 85.848 105.788 123.158 133.278
1147.742 135.028 127.958 110.808 88.458 65.178 45.648 33.528 28.548 28.298 30.738
1167.032 36.788 45.308 55.808 67.218 77.558 87.448 94.098 96.648 97.888 98.348
1186.322 97.048 95.338 91.388 83.828 76.538 68.568 60.128 51.738 43.888 38.498
1205.611 34.648 30.978 26.578 23.778 21.408 19.268 17.618 14.928 14.288 13.638
1224.901 12.588 13.468 12.748 12.468 13.598 13.658 14.268 15.128 15.448 15.918
1244.191 16.268 15.858 15.098 14.868 15.048 15.058 14.798 15.108 16.018 16.498
1263.481 17.298 17.298 16.418 15.368 13.628 11.928 10.918 10.028 9.098 8.418
1282.771 8.188 7.988 7.148 6.448 5.928 5.398 4.938 4.508 4.158 3.928
1302.060 3.778 3.778 3.778 3.808 3.808 3.788 3.818 3.868 3.908 4.028
1321.350 4.268 4.378 4.658 5.028 5.538 6.138 6.718 7.458 8.308 9.068
1340.640 9.828 10.658 11.208 11.528 11.688 11.838 12.268 13.078 14.328 16.298
1359.930 19.088 22.648 27.348 33.418 41.338 51.418 63.318 76.488 89.558 100.398
1379.219 107.088 107.588 101.428 90.718 78.098 65.438 54.018 45.068 38.828 34.848
1398.509 32.618 31.728 31.598 31.638 31.998 32.348 32.458 32.088 31.548 30.878
1417.799 29.958 29.088 28.288 27.408 26.408 25.338 24.188 23.198 22.398 21.798
1437.089 21.638 21.908 22.688 23.978 25.428 27.408 29.918 32.428 35.248 38.078
1456.378 40.418 42.248 42.938 42.368 40.918 38.638 35.718 32.838 30.338 28.278
1475.668 26.408 24.548 22.638 20.538 18.658 16.988 15.478 14.208 13.358 12.648
1494.958 12.128 11.988 11.898 12.048 12.298 12.668 13.458 14.468 15.738 17.288
1514.248 18.448 18.968 18.788 17.748 16.258 14.578 12.478 10.938 10.008 9.298
1533.538 9.298 9.588 9.858 10.288 10.838 11.438 12.258 13.228 14.018 14.678
1552.827 15.168 15.348 15.398 15.268 14.978 14.588 14.228 13.838 13.168 12.758
1572.117 12.708 12.808 12.938 13.018 13.538 14.298 15.108 16.238 17.618 19.378
1591.407 21.848 25.078 28.428 31.408 33.788 35.018 34.678 32.518 28.948 24.668
1610.697 20.128 15.898 12.518 10.078 8.478 7.268 6.298 5.688 5.268 4.838
1629.986 4.418 4.188 4.038 3.928 3.728 3.478 3.348 3.448 3.608 3.618
1649.276 3.558 3.528 3.598 3.618 3.498 3.448 3.408 3.218 3.068 2.998
1668.566 2.948 2.898 3.018 3.048 2.928 2.978 2.898 2.848 2.988 3.098
1687.856 3.098 2.978 2.968 2.958 2.888 2.668 2.458 2.358 2.248 2.308
1707.146 2.418 2.348 2.468 2.778 3.028 3.268 3.648 3.888 3.818 3.808
1726.435 3.748 3.488 3.208 2.858 2.388 2.078 1.968 1.858 1.7222 1.6928
1745.725 1.6303 1.602 1.7626 1.7975 1.7945 1.7737 1.6145 1.5898 1.638 1.5961
1765.015 1.5116 1.3114 1.1886 1.1961 1.2497 1.2262 1.1788 1.1949 1.0429 0.9799
1784.305 0.9873 0.9898 1.0012 0.8693 0.8015 0.7735 0.7549 0.7955 0.86181 0.91646
1803.594 0.949 0.91646 0.9559 1.0064 0.9312 0.91756 0.9122 0.84989 0.84492 0.84946
1822.884 0.88349 0.9922 0.9464 0.7858 0.8109 0.91373 0.90339 0.84724 0.7973 0.83848
1842.174 0.88872 0.87181 0.86547 0.837193 0.92248 0.9587 0.9446 1.0296 0.9256 0.81884
1861.464 0.7868 0.86146 0.85 0.698 0.7298 0.88443 0.9414 0.91655 0.89537 0.85456
1880.754 0.9791 1.1567 1.0394 0.85392 0.89047 1.0685 1.1618 1.0282 1.0141 1.0672
1900.043 0.9829 0.986 1.068 1.1139 1.0397 0.9609 1.0123 0.988 0.9473 0.99
1919.333 1.0379 1.1559 1.1036 1.0459 1.1302 1.1263 1.0293 0.9326 0.9505 0.86921
1938.623 0.7999 0.9064 0.9438 0.9928 1.0738 1.0546 1.0819 1.1333 1.1997 1.147
1957.913 0.9301 0.91426 0.9827 1.0173 1.0983 1.0671 0.86685 0.7588 0.7998 0.748
1977.202 0.7827 0.89079 0.9594 1.0805 1.0621 0.87128 0.86701 0.9623 0.9658 0.9683
1996.492 0.9289 0.837336 0.8194 0.808 0.92465 1.0181 0.9429 0.89432 0.829808 0.84021
2015.782 0.88082 0.836988 0.85242 0.9399 1.0125 1.0658 1.173 1.2145 1.1716 1.1829
2035.072 1.2149 1.2748 1.1476 0.9766 0.9605 1.0067 1.0092 0.9791 0.88046 0.7672
2054.362 0.7644 0.8737 0.88441 0.87176 0.9774 0.9335 0.88845 1.0481 1.0785 1.0696
2073.651 1.1332 1.1108 1.1563 1.2141 1.172 1.1093 1.1216 1.2103 1.3266 1.2553
2092.941 1.2433 1.2275 1.2277 1.2739 1.2884 1.2328 1.1193 1.0979 1.0506 1.1151
2112.231 1.1571 1.1376 1.1888 1.2236 1.2606 1.4634 1.5795 1.5221 1.5791 1.6051
2131.521 1.5796 1.6147 1.5941 1.5671 1.5095 1.3438 1.2594 1.2549 1.1885 1.0407
2150.810 0.87274 0.745 0.7798 0.9296 1.0835 1.0938 1.083 1.1338 0.89338 0.7506
2170.100 0.87156 0.993 0.9746 1.0471 1.153 1.0991 1.0686 1.0801 1.1912 1.2377
2189.390 1.1309 1.0703 1.0683 0.9482 0.944 0.88383 0.7825 0.9517 0.992 0.92545
2208.680 0.9625 1.0471 1.0328 0.85142 0.722 0.722 0.86456 0.9704 0.90885 0.85972
2227.970 0.954 0.9479 0.9779 1.1361 1.0163 0.8622 1.0155 1.0591 0.9706 1.0939
2247.259 1.1898 1.0907 0.9307 0.90722 0.88542 0.86046 1.0093 0.88926 0.7775 1.0061
2266.549 1.0334 0.9508 1.0308 1.0444 0.9363 0.9319 1.0091 1.1875 1.0714 0.87642
2285.839 1.0166 1.0809 1.0329 1.0206 1.1164 1.2017 1.2513 1.1884 1.0225 0.8535
2305.129 0.82024 0.9554 1.0648 1.0896 1.1446 1.1716 1.1962 1.1776 1.2409 1.3144
2324.418 1.2089 1.1045 1.1979 1.1837 1.1272 1.0776 1.0355 1.2428 1.3541 1.328
2343.708 1.2148 1.183 1.2072 1.2446 1.1324 0.9768 1.0525 1.0498 1.0981 1.0373
2362.998 0.90861 0.9914 0.97 0.9912 1.1948 1.1492 1.0158 1.1712 1.1149 1.1275
2382.288 1.2461 1.2514 1.2015 1.1292 1.2001 1.3288 1.3637 1.1661 1.0878 1.1431
2401.578 1.1154 1.2236 1.2619 1.1907 1.1899 1.3286 1.4546 1.5101 1.4599 1.4361
2420.867 1.5071 1.4328 1.4636 1.4209 1.5254 1.6563 1.502 1.4885 1.4939 1.5064
2440.157 1.4629 1.3935 1.353 1.4026 1.5188 1.3824 1.2884 1.4309 1.5751 1.6209
2459.447 1.6498 1.6551 1.5978 1.4963 1.4184 1.5187 1.5425 1.6121 1.7027 1.6385
2478.737 1.5008 1.4567 1.7009 1.7507 1.7183 1.6025 1.5152 1.5524 1.5531 1.697
2498.026 1.7881 1.7907 1.858 1.908 1.828 1.858 1.868 1.848 1.7476 1.5628
2517.316 1.4877 1.5341 1.6497 1.6334 1.5966 1.5415 1.3836 1.5238 1.7085 1.6904
2536.606 1.5597 1.5003 1.5004 1.4084 1.4957 1.6992 1.7421 1.6081 1.5326 1.6744
2555.896 1.675 1.5165 1.6262 1.5837 1.461 1.4169 1.3901 1.465 1.4592 1.3736
2575.186 1.3325 1.3329 1.2335 1.1223 1.1194 1.2247 1.1485 1.012 1.1666 1.2716
2594.475 1.3053 1.1695 1.1405 1.2987 1.3201 1.2494 1.2798 1.4211 1.3054 1.235
2613.765 1.2886 1.1923 1.2203 1.2482 1.0514 1.0202 1.0382 1.0083 1.0012 0.9703
2633.055 1.0826 1.0843 1.0569 1.1857 1.1929 1.1171 1.1217 1.2139 1.2446 1.2629
2652.345 1.1719 1.0361 1.0579 1.0918 1.0503 0.9391 0.85214 1.0423 1.172 1.1226
2671.634 1.0428 1.0277 1.0367 0.985 0.9334 0.9736 1.0925 0.9676 0.9619 1.076
2690.924 1.047 1.0995 1.2209 1.0972 1.034 1.069 0.9643 0.9377 0.9572 0.9953
2710.214 1.0341 1.0057 0.90697 0.9917 1.1972 1.2321 1.2282 1.0581 1.1355 1.3088
2729.504 1.1205 1.02 1.0726 1.1353 1.3186 1.5025 1.5435 1.6042 1.828 1.988
2748.794 1.968 2.008 2.068 1.968 1.838 2.018 1.858 1.5389 1.5956 1.5458
2768.083 1.5537 1.5835 1.5359 1.408 1.3347 1.26 1.2487 1.3828 1.3762 1.2259
2787.373 1.429 1.6078 1.4895 1.5433 1.6284 1.6247 1.6017 1.6108 1.4774 1.3801
2806.663 1.4417 1.4917 1.5271 1.5308 1.31 1.455 1.6187 1.5095 1.4031 1.3216
2825.953 1.6521 2.038 2.128 2.128 2.218 2.218 2.138 2.438 2.768 2.888
2845.242 3.058 3.068 3.308 3.698 3.838 4.088 4.228 4.358 5.038 5.608
2864.532 5.768 5.928 6.188 6.458 6.698 6.848 6.878 6.868 6.778 6.548
2883.822 6.568 6.738 6.658 6.348 6.248 6.328 6.348 6.278 6.298 6.488
2903.112 6.548 6.468 6.678 7.178 7.548 7.968 8.248 8.538 9.288 9.938
2922.401 10.618 11.638 12.538 13.378 14.228 14.868 15.468 15.958 16.518 16.918
2941.691 17.218 17.618 18.088 18.588 18.728 18.788 18.778 18.308 17.198 15.898
2960.981 14.638 13.068 11.918 11.428 10.778 10.058 9.838 9.898 10.208 10.598
2980.271 10.938 11.498 11.998 12.518 13.008 13.428 13.538 13.408 13.438 13.408
2999.561 13.198 12.648 12.058 11.508 10.848 10.388 10.118 9.808 9.468 9.368
3018.850 9.558 9.748 10.058 10.438 10.988 11.658 12.108 12.598 13.368 13.868
3038.140 13.808 13.528 13.168 12.538 11.708 10.848 9.728 8.708 7.948 7.078
3057.430 6.228 5.608 5.038 4.558 4.288 4.138 3.938 3.638 3.078 2.928
3076.720 2.958 2.648 2.678 2.588 2.388 2.288 2.278 2.558 2.438 2.318
3096.009 2.278 2.108 2.168 2.088 2.148 2.008 2.028 2.108 2.138 2.428
3115.299 2.628 2.878 3.128 3.198 3.388 3.598 3.638 3.828 3.918 3.888
3134.589 3.698 3.548 3.288 2.968 3.058 2.998 2.698 2.978 3.328 3.438
3153.879 3.518 3.668 3.828 3.738 3.518 3.538 3.298 2.868 2.338 1.868
3173.169 1.7767 1.5813 1.4643 1.4223 1.2116 1.1128 1.2449 1.0084 0.81976 0.92668
3192.458 1.0156 0.9408 0.87662 0.84815 0.90048 1.0258 0.91075 0.87385 0.92682 0.82028
3211.748 0.82617 0.7479 0.8133 1.0526 0.88879 0.629 0.661 1.0538 1.2432 0.9817
3231.038 0.7716 0.693 0.696 0.554 0.497 0.7441 0.9748 0.9627 0.84663 0.706
3250.328 0.634 0.85794 1.0344 0.88355 0.629 0.474 0.397 0.504 0.587 0.494
3269.617 0.489 0.8179 0.82097 0.637 0.68 0.41 0.284 0.675 0.9711 0.90362
3288.907 0.7314 0.704 0.702 0.7846 0.7505 0.46 0.386 0.461 0.49 0.64
3308.197 0.7352 0.713 0.84363 0.559 0.444 0.634 0.709 0.90418 0.83853 0.714
3327.487 0.7494 0.88814 0.7941 0.7915 0.90287 0.643 0.721 0.82463 0.696 0.7906
3346.777 0.7972 0.7841 0.7689 0.672 0.7662 0.7319 0.68 0.7463 0.583 0.528
3366.066 0.655 0.47 0.254 0.484 0.631 0.712 0.668 0.693 0.7547 0.719
3385.356 0.628 0.567 0.586 0.551 0.673 0.611 0.549 0.661 0.643 0.707
3404.646 0.654 0.7654 0.9293 0.685 0.584 0.572 0.48 0.409 0.43 0.568
3423.936 0.537 0.536 0.628 0.451 0.43 0.614 0.421 0.241 0.458 0.372
3443.225 0.383 0.681 0.659 0.62 0.492 0.475 0.8891 0.9849 0.7887 0.512
3462.515 0.581 0.9476 0.9482 0.688 0.496 0.508 0.85062 1.0739 0.679 0.513
3481.805 0.639 0.84408 0.837223 0.54 0.641 0.7685 0.631 0.379 0.383 0.609
3501.095 0.571 0.649 0.7965 0.596 0.631 0.8814 0.608 0.28 0.516 0.687
3520.385 0.633 0.54 0.453 0.464 0.505 0.8035 0.9615 0.71 0.373 0.413
3539.674 0.648 0.683 0.72 0.7475 0.8067 0.663 0.755 0.829384 0.632 0.704
3558.964 0.8391 0.7684 0.629 0.574 0.388 0.564 0.84651 0.649 0.58 0.532
3578.254 0.485 0.69 0.535 0.383 0.329 0.28 0.412 0.529 0.7557 0.559
3597.544 0.397 0.622 0.685 0.7405 0.8002 0.625 0.56 0.72 0.59 0.392
3616.833 0.523 0.451 0.306 0.363 0.377 0.47 0.451 0.488 0.7376 0.673
3636.123 0.569 0.451 0.219 0.439 0.517 0.531 0.72 0.613 0.69 0.7719
3655.413 0.478 0.25 0.413 0.273 0 0.158 0.25 0.084 0.136 0.382
3674.703 0.583 0.617 0.591 0.521 0.285 0.598 0.709 0.184 0.267 0.517
3693.993 0.561 0.634 0.695 0.72 0.349 0.136 0.414 0.621 0.711 0.756
3713.282 0.7389 0.633 0.6 0.668 0.543 0.625 0.547 0.342 0.59 0.7339
3732.572 0.535 0.511 0.577 0.485 0.592 0.86563 0.603 0.439 0.665 0.388
3751.862 0.268 0.263 0.182 0.476 0.689 0.401 0.391 0.531 0.39 0.448
3771.152 0.484 0.468 0.589 0.7864 0.86736 0.9797 1.0285 0.82431 0.62 0.598
3790.441 0.635 0.647 0.576 0.15 0.097 0.65 0.639 0.387 0.637 0.721
3809.731 0.5 0.598 0.642 0.608 0.548 0.289 0.487 0.90979 0.815 0.553
3829.021 0.614 0.7849 0.5 0.374 0.53 0.511 0.697 0.467 0.215 0.311
3848.311 0.297 0.39 0.678 0.45 0.124 0.302 0.488 0.578 0.616 0.482
3867.601 0.395 0.624 0.654 0.508 0.435 0.424 0.494 0.726 0.724 0.31
3886.890 0.346 0.721 0.628 0.431 0.401 0.659 0.716 0.542 0.537 0.525
3906.180 0.632 0.556 0.686 0.83822 0.9161 0.86504 0.578 0.645 0.7939 0.426
3925.470 0.308 0.783 0.655 0.64 0.658 0.599 0.958 1.0078 0.667 0.62
3944.760 0.611 0.592 0.666 0.479 0.531 0.693 0.699 0.7494 0.648 0.687
3964.049 0.702 0.561 0.713 0.90812 0.9863 0.84951 0.7975 1.0839 1.0345 0.639
3983.339 0.547 0.7542 1.1538 1.1514 1.0041 0.86323 0.7283 0.89481 0.86108 0.92252
##END=
