##TITLE=p-Nonyloxyaniline
##JCAMP-DX=4.24
##DATA TYPE=INFRARED SPECTRUM
##ORIGIN=EPA-IR VAPOR PHASE LIBRARY
##OWNER=SRD/NIST
Collection (C) 2018 copyright by the U.S. Secretary of Commerce
on behalf of the United States of America. All rights reserved.
##CAS REGISTRY NO=50262-67-4
##MOLFORM=C 15 H 25 N O
##$NIST SOURCE=MSDC-IR
##STATE=gas
##XUNITS=1/CM
##YUNITS=ABSORBANCE
##XFACTOR=1.
##YFACTOR=0.001
##DELTAX=1.92898
##FIRSTX=549.8
##LASTX=4000.7
##FIRSTY=6.1504
##MAXX=4000.7
##MINX=549.759
##MAXY=0.14041
##MINY=0
##NPOINTS=1790
##XYDATA=(X++(Y..Y))
549.759 6.1504 5.7704 5.7104 5.8604 5.5804 5.3604 5.3604 5.5104 5.2804 4.7404
569.049 4.7104 4.8704 4.6804 4.7404 5.1404 5.1204 4.8504 4.8504 4.9804 4.8004
588.339 4.9004 4.9104 4.9904 5.3804 5.1804 5.0304 5.2704 5.3704 5.2004 5.2204
607.628 5.5304 5.5704 5.4904 5.5304 5.6504 5.8504 6.3904 6.6704 6.6804 7.2304
626.918 7.5404 7.8004 8.2904 8.7704 9.4804 10.1904 10.6804 11.4804 12.3904 13.0804
646.208 13.9404 14.7504 15.2604 15.5704 15.6204 15.3204 14.7304 14.0304 13.4104 12.8504
665.498 12.0204 11.2904 11.0404 10.8704 10.6804 10.3904 10.2604 10.2104 10.2104 10.4804
684.787 10.4104 10.3904 10.4804 10.4004 10.3504 10.3304 10.3904 10.3804 10.4804 10.5804
704.077 10.5904 10.5904 10.6604 10.6004 10.5204 10.5004 10.5104 10.7604 10.8204 10.5804
723.367 10.4704 10.3904 10.1604 9.7504 9.4504 9.1504 8.9504 9.0304 8.8204 8.5904
742.657 8.5104 8.1804 7.8804 7.5904 7.3304 7.0504 6.9204 6.8804 6.8904 7.0204
761.947 6.7304 6.6004 6.5704 6.3404 6.1904 6.0904 5.8404 5.6604 5.7404 5.5504
781.236 5.6604 5.9704 6.2004 6.6604 6.9104 7.2104 7.5804 7.9604 8.4604 9.0204
800.526 9.7804 10.5104 11.1604 12.0704 13.4604 15.1404 16.7504 18.3904 19.8904 20.4504
819.816 20.1904 19.6004 18.6504 17.4504 15.9204 14.4404 13.1304 12.0404 11.2304 10.4404
839.106 9.5404 8.7704 8.2604 7.7204 7.2504 6.6504 6.2804 5.9904 5.6204 5.4504
858.395 5.3404 5.3004 5.2604 4.9104 4.8604 4.7704 4.4904 4.4004 4.1304 4.0504
877.685 4.0704 3.9404 3.6904 3.4304 3.6004 3.6204 3.3504 3.3404 3.4704 3.6304
896.975 3.5704 3.5204 3.6104 3.7904 3.7204 3.6704 3.5804 3.6604 4.1104 4.4504
916.265 4.5104 4.4304 4.4704 4.6904 4.6704 4.5404 4.7004 4.7304 4.6704 4.6604
935.555 4.6804 4.5804 4.3604 4.1204 4.0404 4.2804 4.4704 4.3304 4.1504 4.0304
954.844 4.3004 4.4704 4.3604 4.4604 4.4904 4.4204 4.7704 5.0204 5.2304 5.8804
974.134 6.1504 6.3104 6.4604 6.7004 7.1504 7.5304 7.8204 7.8104 8.0004 8.2804
993.424 8.4004 8.8204 9.1404 9.5804 9.9704 10.4204 11.0704 11.2804 11.8104 12.4004
1012.714 12.8604 13.2704 13.5504 14.0304 14.6804 15.1204 15.4804 15.9904 16.0104 16.5704
1032.003 17.3304 17.3204 17.4204 18.0704 18.2904 18.2104 18.4104 18.1204 17.8004 17.4404
1051.293 16.9004 16.1504 15.4804 15.1904 14.5204 13.8804 13.4704 13.0904 12.5004 12.0704
1070.583 11.8404 11.9104 11.3404 10.2604 9.7104 9.1304 9.0004 8.7504 8.2104 7.4104
1089.873 6.9504 6.6904 5.9704 6.1204 6.2804 6.0004 6.1704 6.1604 5.7704 5.4604
1109.163 5.5804 5.8904 5.9504 5.9404 5.8504 5.8404 6.1804 6.1804 6.3104 6.0604
1128.452 5.1804 5.0104 5.1204 4.7504 4.2104 3.7904 3.8404 3.9204 3.4604 3.1704
1147.742 2.8404 2.9604 3.6504 4.0104 4.2504 4.4504 5.1104 5.9604 6.7204 7.2804
1167.032 7.3804 7.5904 7.7904 7.4804 7.1304 6.7704 6.7104 7.1704 7.4104 7.6404
1186.322 8.5404 9.5404 10.8004 12.5804 14.3604 15.8704 17.1304 18.4404 20.1904 22.4104
1205.611 24.4004 26.3004 28.9904 32.4504 36.5204 41.0604 46.3904 52.1404 57.9404 63.9504
1224.901 70.2404 76.9004 83.7804 90.4104 96.0504 100.29 101.29 98.2004 91.7104 82.5204
1244.191 71.8004 61.4904 52.6604 45.8904 41.0704 37.4504 34.6304 32.3004 30.7304 28.9104
1263.481 26.4304 24.0404 21.7004 19.5504 17.4404 16.0204 15.1504 14.2704 13.6904 13.2704
1282.771 13.0604 12.8604 12.3704 12.1204 12.0304 11.7904 11.5604 11.2404 10.8704 10.5004
1302.060 10.1904 9.7704 9.2704 8.8404 8.3604 7.8804 7.5304 7.3604 7.1404 6.9904
1321.350 6.8604 6.6704 6.4804 6.2204 5.9904 5.7704 5.6204 5.4304 5.2504 5.1204
1340.640 5.0204 5.0704 5.1304 5.1704 5.2004 5.1704 5.1104 5.0804 5.0604 4.9604
1359.930 4.8804 4.9104 4.9504 5.0704 5.2704 5.5204 5.8504 6.3104 6.9404 7.7104
1379.219 8.6504 9.5404 10.2504 10.5704 10.4504 9.9704 9.1604 8.2104 7.3304 6.4804
1398.509 5.7404 5.2304 4.7704 4.4504 4.2904 4.1904 4.1004 4.0604 4.0404 4.0404
1417.799 4.1204 4.1604 4.2704 4.4204 4.6304 4.9004 5.1104 5.3704 5.7404 6.0404
1437.089 6.4104 6.9504 7.3604 7.7804 8.3204 8.8504 9.4704 10.1704 10.8204 11.5004
1456.378 12.0904 12.7604 13.5704 14.2304 15.0304 16.0704 17.4004 18.8504 20.0304 20.7304
1475.668 20.6904 19.9304 18.5104 17.0304 15.9404 15.4704 15.9704 17.3504 19.8204 23.6104
1494.958 29.0704 36.9404 47.6104 61.5304 78.8704 98.6104 119.06 134.84 140.41 134.27
1514.248 117.73 94.9304 72.1204 54.1704 40.9504 31.7504 24.9804 20.0404 16.2304 13.3204
1533.538 11.1704 9.4004 8.0904 7.0804 6.2904 5.6004 5.0804 4.7904 4.5604 4.3304
1552.827 4.0804 3.8404 3.6904 3.5704 3.4904 3.4904 3.4604 3.4004 3.3404 3.3604
1572.117 3.3804 3.4004 3.5004 3.7504 3.9604 4.0404 4.2604 4.4704 4.6404 4.9204
1591.407 5.0904 5.2104 5.5604 5.9604 6.3904 7.1304 8.0304 9.1704 10.5304 11.8804
1610.697 13.2404 14.3404 14.8604 15.0404 15.0604 14.9304 14.6704 14.2304 13.6204 12.8604
1629.986 11.8104 10.5804 9.3404 8.1404 7.1904 6.3204 5.5904 5.0204 4.4404 3.8704
1649.276 3.5104 3.2604 2.9204 2.7404 2.6904 2.6104 2.3704 2.1504 2.0304 1.9304
1668.566 1.9004 1.8004 1.6704 1.5404 1.4804 1.5404 1.5204 1.4604 1.2804 1.2304
1687.856 1.3104 1.3304 1.3604 1.3604 1.3404 1.3004 1.2404 1.2704 1.3304 1.3604
1707.146 1.3804 1.4104 1.4904 1.5604 1.5604 1.5404 1.5904 1.6104 1.6204 1.5904
1726.435 1.6404 1.6104 1.5004 1.4304 1.2604 1.3004 1.4204 1.3604 1.3304 1.3404
1745.725 1.2604 1.1604 1.1204 1.1404 1.1404 1.1404 1.1604 1.1104 1.0203 1.0291
1765.015 1.0804 0.9977 0.9496 0.9524 0.969 0.9381 0.9653 1.0327 1.0704 1.1104
1784.305 1.0704 1.0404 1.0043 1.026 1.0704 1.0604 1.1304 1.1404 1.1104 1.1604
1803.594 1.2404 1.2804 1.2704 1.2604 1.2704 1.3704 1.3704 1.3604 1.4204 1.3704
1822.884 1.3904 1.4404 1.5204 1.5304 1.4804 1.6104 1.8004 1.8604 1.7704 1.7804
1842.174 1.8404 1.9204 1.9304 1.8304 1.8504 1.8004 1.8304 1.8404 1.7404 1.6704
1861.464 1.6204 1.5304 1.3804 1.2504 1.2604 1.3204 1.2304 1.2204 1.1804 1.0804
1880.754 1.0804 0.9984 0.954 1.0253 1.0402 0.9892 0.9451 0.8935 0.8973 0.9978
1900.043 1.0285 1.0279 1.0504 1.0504 0.9935 1.04 1.0904 1.1104 1.1604 1.1504
1919.333 1.1404 1.1404 1.1404 1.1604 1.2504 1.1804 1.0804 1.1404 1.1704 1.1804
1938.623 1.1604 1.1104 1.1204 1.1204 1.1404 1.1704 1.1304 1.1004 1.1204 1.2404
1957.913 1.3004 1.2104 1.2104 1.2404 1.2004 1.2704 1.3604 1.3104 1.3004 1.3304
1977.202 1.3004 1.3104 1.3704 1.3304 1.1904 1.2104 1.3004 1.2904 1.3304 1.4204
1996.492 1.4004 1.3204 1.3004 1.3004 1.2704 1.2704 1.3204 1.3404 1.3604 1.4004
2015.782 1.3804 1.3104 1.3104 1.3104 1.2304 1.3004 1.3604 1.3004 1.2904 1.3104
2035.072 1.3204 1.2504 1.2504 1.3304 1.3804 1.3704 1.3604 1.3604 1.3304 1.2504
2054.362 1.2704 1.2604 1.2504 1.2804 1.1604 1.1804 1.3004 1.3004 1.2204 1.2204
2073.651 1.2204 1.1904 1.1804 1.1404 1.1504 1.2004 1.1404 1.0331 1.0195 1.0391
2092.941 0.9726 0.9367 0.9068 0.9672 1.0207 0.8993 0.8315 0.792 0.7994 0.8429
2112.231 0.8305 0.7937 0.6693 0.6002 0.6351 0.6491 0.6623 0.675 0.5709 0.5152
2131.521 0.5832 0.5671 0.5838 0.6664 0.6295 0.5474 0.5458 0.5967 0.6466 0.5788
2150.810 0.5369 0.5104 0.5448 0.6224 0.5801 0.5413 0.5369 0.4997 0.5223 0.5331
2170.100 0.4675 0.5257 0.5732 0.5676 0.5754 0.603 0.5523 0.4444 0.4552 0.5716
2189.390 0.6182 0.5696 0.5771 0.5716 0.5394 0.5227 0.468 0.4233 0.4175 0.3697
2208.680 0.3443 0.3646 0.3667 0.4651 0.538 0.4864 0.4589 0.5267 0.6015 0.5749
2227.970 0.5049 0.5161 0.5244 0.5803 0.6405 0.5628 0.4923 0.5414 0.5947 0.627
2247.259 0.6818 0.6118 0.5469 0.5874 0.6615 0.7096 0.6966 0.7307 0.7028 0.6697
2266.549 0.7173 0.7887 0.7728 0.6698 0.6177 0.6833 0.7853 0.815 0.8009 0.7116
2285.839 0.709 0.6733 0.5751 0.6301 0.6916 0.667 0.6644 0.693 0.7136 0.6881
2305.129 0.707 0.6872 0.6716 0.6876 0.6774 0.7148 0.7809 0.8293 0.8345 0.8033
2324.418 0.7513 0.6834 0.6831 0.7094 0.7306 0.7174 0.7124 0.807 0.9188 0.9251
2343.708 0.9182 0.9203 0.8651 0.8751 0.9175 0.9248 0.9756 0.9787 0.8744 0.8461
2362.998 0.8102 0.7476 0.6547 0.6684 0.7187 0.6158 0.5739 0.5799 0.6096 0.6821
2382.288 0.7093 0.7753 0.8384 0.8479 0.8044 0.7576 0.7331 0.7489 0.7594 0.6536
2401.578 0.6563 0.7074 0.6903 0.7703 0.7744 0.6222 0.6014 0.7245 0.7563 0.6833
2420.867 0.6587 0.684 0.6693 0.6991 0.7448 0.6505 0.5987 0.7129 0.7688 0.7698
2440.157 0.786 0.8233 0.8682 0.8887 0.8503 0.8305 0.8853 0.8482 0.8888 0.9368
2459.447 0.9251 0.9161 0.8648 0.8913 0.8824 0.8671 0.8794 0.9446 0.9752 0.8559
2478.737 0.7902 0.7813 0.759 0.7378 0.6267 0.6777 0.7713 0.7561 0.9077 0.8336
2498.026 0.7094 0.8543 0.9192 0.8856 0.9134 0.9039 0.9543 0.9189 0.9505 1.1504
2517.316 1.1304 0.9821 0.8528 0.9191 1.0076 0.9674 0.9895 1.0404 0.9667 0.8534
2536.606 0.7651 0.7821 0.8374 0.8381 0.7775 0.6746 0.6502 0.7132 0.7084 0.7082
2555.896 0.6819 0.5495 0.5739 0.6525 0.7136 0.7339 0.6571 0.648 0.7326 0.7986
2575.186 0.7715 0.6999 0.7656 0.7717 0.7479 0.796 0.8286 0.8192 0.785 0.8288
2594.475 0.8448 0.8838 0.9521 0.9771 0.9639 0.8578 0.8594 0.8548 0.8038 0.9106
2613.765 0.9547 1.027 1.0804 0.9608 0.8992 0.8767 0.868 0.9305 0.9755 1.0191
2633.055 1.0704 1.035 1.0704 1.1604 1.2004 1.1204 0.9724 1.0904 1.1604 1.1404
2652.345 1.1704 1.2004 1.2604 1.3004 1.2904 1.3604 1.3604 1.2404 1.2304 1.2604
2671.634 1.3504 1.3104 1.3204 1.4704 1.5804 1.6104 1.6604 1.6804 1.5904 1.5004
2690.924 1.5404 1.6304 1.6004 1.5804 1.5204 1.4604 1.4504 1.5104 1.5204 1.5004
2710.214 1.5104 1.4904 1.6204 1.7304 1.6804 1.5704 1.5504 1.6904 1.8104 1.9004
2729.504 1.8804 1.8104 1.9104 2.0004 2.0604 2.1704 2.1904 2.1704 2.2304 2.2504
2748.794 2.2104 2.2404 2.2204 2.1304 2.1604 2.1904 2.1804 2.1904 2.1604 2.1104
2768.083 2.1804 2.1704 2.0604 2.0104 2.1104 2.2604 2.1904 2.1304 2.2204 2.2504
2787.373 2.4004 2.6204 2.7404 2.8204 2.8404 2.8504 3.0204 3.1804 3.2304 3.3104
2806.663 3.3904 3.4804 3.7004 4.0504 4.1404 4.3704 4.8104 5.0304 5.4404 5.7904
2825.953 5.9504 6.2804 6.7304 7.2004 7.8604 8.6804 9.3904 10.2904 11.3404 12.6104
2845.242 14.4004 16.4004 18.7604 21.7204 25.0904 28.6204 32.3404 35.8104 38.6904 40.8604
2864.532 42.0904 42.4004 41.8904 40.8304 39.4804 38.0704 36.8104 35.7904 34.7804 33.6304
2883.822 32.7704 31.9504 30.9904 30.2404 29.8404 29.8004 30.1804 31.1804 32.5304 34.2004
2903.112 36.4504 39.0104 41.6804 44.5204 47.3604 50.5904 54.3504 58.4404 63.1504 68.4904
2922.401 74.3304 80.7004 87.2404 93.2804 98.0804 101.15 102.37 101.63 99.2704 95.7704
2941.691 91.0504 85.7704 80.3804 74.9004 69.6504 64.7804 60.4004 56.8104 54.0804 51.8104
2960.981 49.9904 48.5604 47.1904 45.4704 43.0504 39.8304 35.7904 31.4304 27.4504 23.8704
2980.271 20.8104 18.2604 16.1204 14.4604 13.2704 12.2804 11.3004 10.8004 10.4804 10.1804
2999.561 10.1504 10.1604 10.1504 10.2604 10.5404 10.7504 10.7704 10.4704 10.4104 10.4404
3018.850 10.1704 10.0504 10.0604 10.2004 10.4704 10.8304 11.3204 11.9004 12.6204 13.5004
3038.140 14.0004 13.9804 13.3204 12.2404 10.8004 9.1404 7.7804 6.7604 6.2204 5.8204
3057.430 5.3004 5.0204 5.0704 5.0404 4.8204 4.8204 4.7604 4.6604 4.6204 4.4004
3076.720 4.2704 4.0604 3.8804 3.6204 3.3604 3.4604 3.5104 3.3404 3.1904 3.1804
3096.009 3.0004 2.8704 3.0204 3.0804 2.8604 2.7704 2.6704 2.4404 2.3404 2.2804
3115.299 2.2904 2.1904 2.0004 1.9304 1.8804 1.7304 1.5004 1.3604 1.4104 1.3904
3134.589 1.2804 1.4304 1.3604 1.0804 0.9915 0.9714 0.9571 0.9439 0.8982 0.8133
3153.879 0.7211 0.7451 0.72 0.7038 0.7918 0.8462 0.8054 0.6729 0.5113 0.5291
3173.169 0.6354 0.5374 0.664 0.7562 0.6074 0.5534 0.6538 0.7386 0.6969 0.6608
3192.458 0.6616 0.4983 0.3913 0.4969 0.5521 0.6608 0.8386 0.7208 0.6364 0.6528
3211.748 0.679 0.8125 0.7486 0.5661 0.553 0.6151 0.4871 0.6092 0.7692 0.5992
3231.038 0.3759 0.3684 0.537 0.6567 0.6424 0.5565 0.5999 0.5823 0.6131 0.6356
3250.328 0.4549 0.2516 0.2291 0.4349 0.5154 0.5166 0.6689 0.7421 0.5468 0.4551
3269.617 0.5484 0.5977 0.4104 0.2982 0.5267 0.5251 0.4235 0.444 0.4593 0.4556
3288.907 0.4762 0.4475 0.3732 0.2715 0.2398 0.3213 0.3577 0.3534 0.2864 0.4233
3308.197 0.3083 0.12171 0.2991 0.2669 0.274 0.35 0.2429 0.1852 0.2798 0.2922
3327.487 0.3063 0.2126 0.07615 0.13577 0.195 0.1556 0.049153 0.07597 0.05932 0.05415
3346.777 0.2626 0.2626 0.2879 0.4364 0.4613 0.3764 0.2503 0.3474 0.4384 0.3941
3366.066 0.3022 0.3631 0.5377 0.5985 0.7244 0.8703 1.0006 1.0504 1.0284 1.1604
3385.356 1.3404 1.5204 1.5704 1.5104 1.6604 1.9904 2.3204 2.4504 2.6104 2.7904
3404.646 2.5904 2.3304 2.0604 1.9004 1.7204 1.2504 1.0504 0.939 0.8774 0.7929
3423.936 0.5555 0.6293 0.7084 0.67 0.9541 0.9156 0.7335 0.7971 0.9478 1.0704
3443.225 0.9435 0.9697 1.0305 1.0305 0.9944 0.9713 1.1804 1.3104 1.1904 1.4104
3462.515 1.5304 1.4304 1.5304 1.7204 1.7704 1.8304 1.9504 1.9604 1.9804 2.0504
3481.805 2.1204 2.0304 1.9404 1.9504 1.7904 1.5004 1.3304 1.4004 1.2604 1.022
3501.095 1.1404 1.0127 0.7461 0.764 0.7253 0.5621 0.531 0.431 0.2472 0.2206
3520.385 0.1775 0.2319 0.3226 0.393 0.4477 0.4789 0.5229 0.3139 0.204 0.4653
3539.674 0.5018 0.4217 0.4155 0.5014 0.5137 0.4442 0.3314 0.2902 0.3957 0.3828
3558.964 0.4202 0.3807 0.3207 0.2643 0.2107 0.4154 0.4494 0.301 0.3354 0.4184
3578.254 0.5241 0.3459 0.2591 0.2249 0.2303 0.3111 0.11996 0.12295 0.2329 0.2371
3597.544 0.2176 0.3135 0.2002 0.1725 0.2523 0.1547 0.1997 0.246 0.1711 0.0249
3616.833 0.1489 0.2631 0.3538 0.357 0.1519 0.2107 0.2706 0.3306 0.3091 0.11363
3636.123 0.10359 0.2515 0.2758 0.2148 0.2652 0.3826 0.3396 0.08311 0.11486 0.2489
3655.413 0.3578 0.3715 0.3781 0.447 0.3305 0.2871 0.433 0.5173 0.43 0.2122
3674.703 0.10268 0.1971 0.191 0.2197 0.4012 0.5134 0.3032 0.2776 0.3394 0.2652
3693.993 0.3185 0.3487 0.2623 0.197 0.11253 0.13136 0.2565 0.1429 0.1622 0.1946
3713.282 0.156 0.1535 0.2573 0.3465 0.13376 0.1688 0.3191 0.2392 0.09983 0.2383
3732.572 0.3909 0.1842 0.11136 0.2524 0.198 0.2256 0.2476 0.343 0.3073 0.05116
3751.862 0.09904 0.3683 0.5005 0.2061 0 0.12597 0.3231 0.372 0.2206 0.11006
3771.152 0.05874 0.1995 0.276 0.09129 0.2345 0.402 0.3267 0.3038 0.3188 0.2251
3790.441 0.13909 0.1475 0.0122 0.05152 0.2181 0.145 0.2547 0.4507 0.366 0.06101
3809.731 0.1324 0.3785 0.3725 0.2972 0.2962 0.3528 0.3394 0.2765 0.1564 0.1583
3829.021 0.2054 0.2531 0.3233 0.2644 0.2633 0.204 0.10604 0.11759 0.12619 0.0986
3848.311 0.1535 0.3037 0.3857 0.4243 0.4485 0.5616 0.6039 0.5631 0.5324 0.3906
3867.601 0.4088 0.4338 0.3611 0.384 0.3792 0.4947 0.4647 0.3477 0.4013 0.4936
3886.890 0.4451 0.4271 0.6554 0.7018 0.5923 0.506 0.4506 0.2254 0.3262 0.6082
3906.180 0.6175 0.654 0.7282 0.682 0.5515 0.5949 0.3859 0.2608 0.605 0.8413
3925.470 0.7531 0.5306 0.3901 0.4449 0.4065 0.3802 0.4771 0.5263 0.4653 0.3033
3944.760 0.1859 0.3844 0.5492 0.5152 0.5428 0.5542 0.5397 0.4621 0.5233 0.6209
3964.049 0.6861 0.5729 0.3777 0.3334 0.3104 0.3909 0.3813 0.34 0.5332 0.6508
3983.339 0.581 0.7874 0.8581 0.847 0.9367 0.868 0.7264 0.7972 0.835 0.7554
##END=
