##TITLE=p-Nonyloxybenzaldehyde
##JCAMP-DX=4.24
##DATA TYPE=INFRARED SPECTRUM
##ORIGIN=EPA-IR VAPOR PHASE LIBRARY
##OWNER=SRD/NIST
Collection (C) 2018 copyright by the U.S. Secretary of Commerce
on behalf of the United States of America. All rights reserved.
##CAS REGISTRY NO=50262-46-9
##MOLFORM=C 16 H 24 O 2
##$NIST SOURCE=MSDC-IR
##STATE=gas
##XUNITS=1/CM
##YUNITS=ABSORBANCE
##XFACTOR=1.
##YFACTOR=0.001
##DELTAX=1.92898
##FIRSTX=549.8
##LASTX=4000.7
##FIRSTY=1.515
##MAXX=4000.7
##MINX=549.759
##MAXY=0.098805
##MINY=0
##NPOINTS=1790
##XYDATA=(X++(Y..Y))
549.759 1.515 1.305 1.2196 1.1976 1.315 1.2386 1.1006 1.605 1.625 1.0752
569.049 1.0943 1.515 1.365 0.9575 0.9247 1.0453 1.375 1.715 1.735 2.225
588.339 2.945 3.315 3.495 3.725 4.155 4.305 4.435 4.935 5.505 6.105
607.628 6.505 6.535 6.875 7.505 7.805 7.925 7.785 6.785 5.465 4.555
626.918 3.715 2.895 2.625 2.575 2.515 3.045 3.665 4.145 4.305 4.145
646.208 4.465 4.525 4.375 4.355 3.935 3.425 3.135 2.685 2.245 1.905
665.498 1.585 1.475 1.375 1.1563 1.1224 1.088 1.1158 1.1356 1.0545 1.1209
684.787 1.1755 1.2158 1.1745 1.1819 1.395 1.515 1.495 1.535 1.635 1.645
704.077 1.685 1.715 1.735 1.745 1.785 2.045 2.205 2.145 2.045 1.995
723.367 1.975 2.005 2.105 2.215 2.265 2.175 2.115 2.225 2.245 2.135
742.657 2.165 2.245 2.185 2.365 2.695 2.845 2.765 2.855 2.795 2.595
761.947 2.645 2.615 2.725 2.845 2.885 3.025 3.065 2.975 3.015 2.905
781.236 2.915 3.115 3.185 3.205 3.265 3.475 3.865 4.175 4.445 4.965
800.526 5.485 5.855 6.245 6.805 7.425 8.015 8.575 9.265 10.125 11.365
819.816 12.975 14.345 15.335 16.425 17.165 17.335 17.455 17.065 16.335 15.685
839.106 15.325 15.175 15.005 15.015 15.075 15.075 14.885 14.335 13.445 12.245
858.395 10.865 9.415 7.965 6.965 6.315 5.335 4.565 4.225 3.915 3.585
877.685 3.235 3.015 2.835 2.615 2.475 2.315 2.225 2.345 2.535 2.535
896.975 2.345 2.155 2.185 2.295 2.345 2.245 2.315 2.455 2.535 2.615
916.265 2.705 2.895 2.985 3.095 3.335 3.455 3.295 3.215 3.215 3.155
935.555 3.065 3.025 2.995 2.985 3.075 3.065 3.005 2.885 2.825 2.945
954.844 3.115 3.305 3.365 3.275 3.285 3.505 3.565 3.795 4.215 4.325
974.134 4.535 4.945 5.345 5.705 6.075 6.435 6.775 7.015 7.065 7.435
993.424 8.015 8.535 8.965 8.945 8.865 9.285 9.615 9.675 9.935 10.335
1012.714 10.545 10.945 11.565 11.865 12.135 12.715 13.245 13.095 12.815 12.675
1032.003 12.525 12.755 12.985 12.595 12.225 12.075 11.805 11.725 11.295 10.705
1051.293 10.145 9.235 8.535 8.155 7.955 7.815 7.375 7.045 6.665 6.285
1070.583 6.025 5.675 5.445 5.255 5.055 4.655 4.305 4.245 4.215 4.265
1089.873 4.065 3.845 3.845 3.805 4.285 4.655 5.255 5.705 5.885 5.765
1109.163 5.325 5.205 5.055 4.895 4.855 4.755 4.635 4.675 4.535 4.315
1128.452 4.465 4.625 4.615 4.805 5.295 5.725 6.315 7.425 8.855 11.125
1147.742 14.545 19.785 27.215 38.315 52.905 65.925 72.865 71.185 60.755 45.575
1167.032 31.575 21.905 15.605 11.825 9.835 8.585 7.895 7.715 7.775 8.005
1186.322 8.245 8.725 9.745 11.365 13.005 14.965 17.615 20.205 23.345 26.185
1205.611 28.105 29.505 30.125 30.505 30.665 31.565 33.225 35.315 37.045 38.165
1224.901 39.625 40.535 41.505 43.155 45.215 48.095 51.805 55.535 59.245 63.025
1244.191 66.945 70.385 72.575 74.025 74.175 72.465 68.815 63.055 55.975 48.685
1263.481 41.645 35.235 30.015 25.945 22.745 20.435 18.675 17.235 16.365 15.885
1282.771 15.725 16.075 16.745 17.765 19.155 20.995 23.105 25.145 27.075 28.565
1302.060 29.185 28.595 26.965 24.745 22.205 19.705 17.475 15.515 13.825 12.395
1321.350 11.145 10.145 9.345 8.615 8.005 7.465 7.055 6.765 6.445 6.265
1340.640 6.195 6.125 6.065 5.995 5.975 5.925 5.785 5.655 5.495 5.285
1359.930 5.065 4.865 4.835 4.885 4.945 5.075 5.245 5.545 6.105 6.875
1379.219 7.805 8.925 10.135 11.175 11.735 11.755 11.265 10.305 9.055 7.875
1398.509 6.965 6.205 5.625 5.205 4.975 4.895 4.865 4.905 5.045 5.225
1417.799 5.485 5.925 6.525 6.975 7.095 6.925 6.585 6.135 5.685 5.425
1437.089 5.395 5.505 5.685 5.875 6.165 6.535 6.935 7.385 7.875 8.385
1456.378 8.775 9.235 9.825 10.325 10.895 11.705 12.695 13.665 14.225 14.235
1475.668 13.575 12.245 10.775 9.425 8.355 7.705 7.525 7.715 8.485 9.785
1494.958 11.625 14.375 18.085 22.635 27.645 31.955 34.295 33.865 30.645 25.215
1514.248 19.415 14.525 11.015 8.685 7.015 5.995 5.315 4.805 4.475 4.285
1533.538 4.065 3.935 3.845 3.725 3.765 3.825 3.905 4.035 4.085 4.245
1552.827 4.445 4.715 5.185 5.715 6.435 7.365 8.695 10.335 12.325 14.805
1572.117 17.725 21.065 24.645 27.865 30.115 31.385 32.095 33.025 35.275 39.315
1591.407 45.045 52.355 60.285 67.765 73.725 76.665 75.445 70.095 61.815 51.915
1610.697 42.185 33.705 26.835 21.385 17.215 14.085 11.675 9.815 8.375 7.265
1629.986 6.355 5.665 5.215 4.845 4.545 4.325 4.125 3.985 3.795 3.615
1649.276 3.565 3.515 3.455 3.585 3.695 3.725 3.835 4.005 4.255 4.505
1668.566 4.745 5.135 5.575 5.885 6.275 6.735 7.085 7.375 7.855 8.545
1687.856 9.275 10.215 11.385 12.705 14.405 16.545 19.185 22.895 27.355 33.325
1707.146 41.125 50.905 63.085 77.125 90.535 98.805 98.415 89.205 72.545 53.895
1726.435 38.535 27.675 20.285 15.265 11.715 9.455 7.795 6.375 5.435 4.675
1745.725 4.075 3.635 3.175 2.875 2.745 2.605 2.465 2.365 2.235 2.195
1765.015 2.165 1.955 1.895 1.915 1.795 1.705 1.675 1.575 1.495 1.465
1784.305 1.435 1.435 1.405 1.355 1.385 1.405 1.375 1.365 1.365 1.285
1803.594 1.265 1.2465 1.1327 1.099 1.1141 1.0993 1.1112 1.1043 1.0464 0.985
1822.884 1.0105 1.0392 1.0452 0.9953 0.9603 1.0061 1.0104 1.0035 0.9764 0.9825
1842.174 0.9628 0.9392 1.0006 1.0528 1.11 1.1308 1.1431 1.1492 1.1197 1.1109
1861.464 1.0832 1.0343 1.0361 1.0169 1.0577 1.1165 1.1326 1.137 1.1138 1.195
1880.754 1.2362 1.265 1.365 1.425 1.485 1.575 1.655 1.615 1.575 1.595
1900.043 1.575 1.545 1.425 1.335 1.275 1.2139 1.2265 1.2115 1.1421 1.1088
1919.333 1.1156 1.1352 1.1727 1.1568 1.1352 1.1706 1.1886 1.179 1.1101 1.0672
1938.623 1.0737 1.0901 1.0612 1.052 1.0806 1.0919 1.1218 1.1447 1.1709 1.164
1957.913 1.1456 1.186 1.2063 1.1407 1.178 1.275 1.275 1.25 1.275 1.345
1977.202 1.335 1.345 1.355 1.335 1.355 1.405 1.435 1.395 1.405 1.455
1996.492 1.485 1.465 1.555 1.685 1.745 1.825 1.885 1.925 1.885 1.865
2015.782 1.865 1.765 1.675 1.675 1.625 1.535 1.505 1.525 1.425 1.355
2035.072 1.355 1.335 1.365 1.395 1.365 1.315 1.335 1.335 1.325 1.325
2054.362 1.295 1.2255 1.2181 1.255 1.2123 1.1422 1.1442 1.1738 1.1254 1.1036
2073.651 1.1473 1.1093 1.1255 1.1231 1.0208 1.0026 1.0007 0.9891 1.0149 0.9772
2092.941 0.9062 0.9142 0.9526 1.0075 0.9843 0.9263 0.9485 0.9759 0.937 0.9027
2112.231 0.9307 0.8634 0.7888 0.7914 0.7428 0.7237 0.7206 0.709 0.6603 0.6554
2131.521 0.6991 0.686 0.7044 0.7022 0.6294 0.6123 0.6832 0.7033 0.7334 0.7199
2150.810 0.6421 0.6628 0.6326 0.6357 0.685 0.6554 0.6476 0.6775 0.6714 0.6776
2170.100 0.6576 0.6067 0.6384 0.6028 0.5656 0.5794 0.6105 0.6195 0.5814 0.5785
2189.390 0.604 0.5883 0.5582 0.5899 0.5925 0.6298 0.6558 0.5895 0.5722 0.5777
2208.680 0.5349 0.5217 0.585 0.6003 0.614 0.6585 0.6856 0.7077 0.668 0.6712
2227.970 0.6214 0.6053 0.676 0.6294 0.6249 0.6522 0.6649 0.7063 0.6972 0.7251
2247.259 0.7957 0.766 0.7387 0.7709 0.8463 0.8182 0.7021 0.7318 0.7568 0.7228
2266.549 0.7612 0.7866 0.7668 0.7265 0.7519 0.7659 0.719 0.7387 0.7838 0.7893
2285.839 0.7498 0.739 0.7275 0.7542 0.7155 0.6421 0.6685 0.7232 0.7542 0.748
2305.129 0.7908 0.7787 0.735 0.7063 0.7111 0.6952 0.7323 0.7822 0.7934 0.7844
2324.418 0.7141 0.7165 0.699 0.6576 0.672 0.6902 0.6771 0.6324 0.5696 0.5877
2343.708 0.6411 0.6781 0.6945 0.6444 0.6323 0.6789 0.6882 0.6818 0.6309 0.5962
2362.998 0.5978 0.6256 0.6985 0.7193 0.7103 0.6969 0.6668 0.6348 0.708 0.7979
2382.288 0.8092 0.8276 0.7834 0.7926 0.8206 0.8022 0.8565 0.8574 0.865 0.8614
2401.578 0.8914 0.9832 1.0493 1.0661 1.031 1.0649 1.151 1.1169 1.1169 1.1259
2420.867 1.0897 1.0661 1.0296 1.0374 1.0038 0.9753 1.0041 1.0612 1.0992 1.1112
2440.157 1.0672 1.0609 1.0279 1.0456 1.1482 1.2087 1.2215 1.1635 1.1364 1.2164
2459.447 1.2523 1.2062 1.1716 1.1896 1.2365 1.221 1.1948 1.1045 1.0776 1.0616
2478.737 1.0846 1.1334 1.1544 1.2125 1.2152 1.2134 1.1637 1.1644 1.2055 1.1653
2498.026 1.2086 1.2289 1.179 1.1967 1.2156 1.251 1.335 1.355 1.275 1.2154
2517.316 1.1891 1.2065 1.2407 1.25 1.275 1.345 1.275 1.305 1.405 1.365
2536.606 1.435 1.505 1.505 1.555 1.645 1.675 1.695 1.735 1.755 1.725
2555.896 1.675 1.695 1.775 1.785 1.695 1.645 1.625 1.685 1.695 1.615
2575.186 1.575 1.615 1.665 1.645 1.645 1.715 1.685 1.685 1.725 1.685
2594.475 1.655 1.655 1.635 1.525 1.515 1.625 1.615 1.535 1.515 1.535
2613.765 1.555 1.465 1.405 1.405 1.395 1.435 1.435 1.435 1.465 1.445
2633.055 1.435 1.465 1.495 1.545 1.595 1.625 1.615 1.585 1.665 1.685
2652.345 1.655 1.775 1.775 1.775 1.875 1.935 2.045 2.135 2.265 2.415
2671.634 2.575 2.715 2.905 3.165 3.315 3.595 3.865 3.945 4.135 4.335
2690.924 4.505 4.815 5.115 5.365 5.615 6.035 6.535 7.085 7.815 8.555
2710.214 9.285 10.185 11.235 12.175 13.075 13.995 14.635 14.985 15.045 14.755
2729.504 14.125 13.285 12.175 10.925 9.755 8.795 8.035 7.325 6.765 6.265
2748.794 5.855 5.485 5.195 4.965 4.795 4.635 4.565 4.575 4.595 4.725
2768.083 4.845 4.935 5.165 5.445 5.685 6.035 6.375 6.825 7.445 8.035
2787.373 8.645 9.145 9.535 9.835 10.095 10.315 10.365 10.455 10.515 10.505
2806.663 10.555 10.835 11.155 11.445 11.815 12.015 12.005 11.815 11.425 10.945
2825.953 10.535 10.055 9.615 9.275 9.125 9.155 9.225 9.425 9.885 10.645
2845.242 11.555 12.625 14.085 15.785 17.775 20.325 22.935 25.315 27.385 28.885
2864.532 29.735 29.915 29.495 28.645 27.715 26.805 25.945 25.275 24.705 24.225
2883.822 23.655 22.935 22.305 21.705 21.315 21.185 21.365 21.855 22.545 23.555
2903.112 24.805 26.325 27.995 30.105 32.605 35.255 38.285 41.715 45.575 49.645
2922.401 54.175 59.185 64.275 68.945 72.885 75.745 76.965 76.695 75.285 72.775
2941.691 69.375 65.585 61.665 57.535 53.385 49.505 46.295 43.705 41.435 39.755
2960.981 38.575 37.835 37.305 36.305 34.755 32.695 29.965 26.715 23.345 20.355
2980.271 17.785 15.525 13.625 12.095 10.865 9.765 8.915 8.245 7.625 7.085
2999.561 6.675 6.365 5.995 5.775 5.535 5.185 4.955 4.775 4.655 4.645
3018.850 4.635 4.555 4.515 4.485 4.515 4.765 4.875 4.925 5.075 5.085
3038.140 4.955 4.665 4.385 4.105 3.755 3.395 3.105 3.105 2.985 2.795
3057.430 2.815 2.795 2.765 2.915 3.095 3.225 3.425 3.555 3.725 3.865
3076.720 3.835 3.815 3.655 3.495 3.355 3.115 3.075 3.025 3.055 3.215
3096.009 3.155 3.135 3.035 2.805 2.715 2.575 2.275 2.135 2.085 1.995
3115.299 1.925 1.855 1.805 1.745 1.625 1.465 1.395 1.295 1.1437 1.2219
3134.589 1.2459 1.0795 0.9849 1.0573 1.1234 1.0747 1.0649 0.9983 1.0132 1.0612
3153.879 1.0729 1.0497 1.1241 1.0394 0.894 0.8384 0.696 0.7662 0.8502 0.8275
3173.169 0.8591 0.9603 0.8471 0.6912 0.6478 0.7204 0.9169 0.978 0.9567 1.0275
3192.458 0.9795 0.849 0.8315 0.8427 0.8129 0.6975 0.8255 0.9625 0.8386 0.6276
3211.748 0.5441 0.6992 0.778 0.5909 0.4024 0.4306 0.5814 0.5137 0.4362 0.5254
3231.038 0.44 0.5901 0.6252 0.3814 0.3896 0.4191 0.3636 0.3577 0.30583 0.2385
3250.328 0.31496 0.4618 0.5983 0.5436 0.3788 0.32041 0.3785 0.4468 0.3711 0.28192
3269.617 0.4203 0.4744 0.4721 0.4703 0.5157 0.583 0.4978 0.48 0.4076 0.3629
3288.907 0.4824 0.5814 0.512 0.4645 0.5279 0.5013 0.4589 0.53 0.49 0.3994
3308.197 0.4224 0.4109 0.4432 0.5815 0.6004 0.5053 0.5276 0.4665 0.4022 0.4643
3327.487 0.599 0.5828 0.4685 0.6258 0.6209 0.5145 0.53 0.5019 0.4794 0.5465
3346.777 0.655 0.558 0.4834 0.5213 0.4715 0.4803 0.5376 0.5665 0.5382 0.5555
3366.066 0.4984 0.4192 0.5179 0.5561 0.4319 0.4007 0.4995 0.5271 0.521 0.5786
3385.356 0.6445 0.7434 0.7414 0.7323 0.8816 0.9084 0.9195 1.1035 1.2171 1.265
3404.646 1.315 1.405 1.485 1.555 1.625 1.515 1.505 1.555 1.485 1.365
3423.936 1.1632 1.0444 0.9573 0.881 0.8859 0.8158 0.6903 0.6121 0.634 0.6781
3443.225 0.4889 0.3703 0.5338 0.5864 0.5428 0.6812 0.7138 0.4614 0.4264 0.5083
3462.515 0.4669 0.387 0.4027 0.43 0.27337 0.2272 0.4085 0.5538 0.5307 0.4377
3481.805 0.3769 0.4104 0.4786 0.35032 0.2359 0.33923 0.5332 0.5924 0.4514 0.4277
3501.095 0.4402 0.29681 0.33529 0.4343 0.319 0.172 0.2311 0.33749 0.35015 0.4762
3520.385 0.30146 0 0.108 0.27 0.28308 0.4076 0.3968 0.26838 0.28198 0.2435
3539.674 0.31454 0.3986 0.34971 0.32706 0.30368 0.258442 0.2236 0.3771 0.44 0.28706
3558.964 0.27998 0.33685 0.4293 0.4142 0.3623 0.4643 0.4175 0.3998 0.5171 0.4564
3578.254 0.3656 0.32285 0.3827 0.4296 0.4401 0.5056 0.478 0.4663 0.4125 0.32328
3597.544 0.34016 0.4814 0.489 0.4397 0.3613 0.28601 0.33239 0.3956 0.3765 0.4096
3616.833 0.3691 0.30029 0.4052 0.499 0.5518 0.3979 0.372 0.5479 0.5836 0.5464
3636.123 0.5268 0.5919 0.6525 0.5222 0.5191 0.5601 0.424 0.3951 0.4653 0.4742
3655.413 0.5508 0.5523 0.5023 0.5299 0.5023 0.5448 0.593 0.5049 0.4635 0.4342
3674.703 0.4225 0.5933 0.5762 0.5896 0.6621 0.6636 0.6056 0.4163 0.4266 0.5006
3693.993 0.3794 0.3538 0.3976 0.3831 0.4545 0.388 0.33269 0.3687 0.31284 0.30172
3713.282 0.33392 0.362 0.533 0.618 0.4762 0.4054 0.4421 0.4587 0.4413 0.4378
3732.572 0.4724 0.4989 0.4815 0.5238 0.5496 0.5546 0.4954 0.5392 0.6232 0.4627
3751.862 0.461 0.5964 0.5079 0.4625 0.4243 0.31867 0.4158 0.5577 0.4688 0.3553
3771.152 0.4043 0.6184 0.6408 0.5111 0.5921 0.596 0.5177 0.5004 0.5264 0.3754
3790.441 0.33175 0.3992 0.4762 0.4552 0.4148 0.4709 0.4056 0.4086 0.29178 0.30337
3809.731 0.5447 0.5773 0.4616 0.4012 0.4783 0.4097 0.34229 0.474 0.5855 0.6774
3829.021 0.5978 0.4872 0.4352 0.3999 0.374 0.35156 0.3828 0.4093 0.4333 0.5003
3848.311 0.4032 0.383 0.3305 0.30348 0.4911 0.4891 0.4421 0.3882 0.4419 0.5484
3867.601 0.6176 0.6365 0.5828 0.4706 0.5694 0.5141 0.4927 0.7551 0.6517 0.5629
3886.890 0.5968 0.4956 0.29567 0.4342 0.6321 0.4284 0.3743 0.4602 0.5192 0.4927
3906.180 0.5372 0.6447 0.6773 0.6617 0.6922 0.6191 0.5528 0.589 0.6899 0.7774
3925.470 0.6717 0.8339 0.7189 0.4226 0.4157 0.4288 0.4221 0.5318 0.4711 0.29913
3944.760 0.4077 0.4726 0.31061 0.35387 0.5889 0.6665 0.6377 0.6588 0.6973 0.6208
3964.049 0.512 0.5102 0.5813 0.4867 0.4472 0.5391 0.6154 0.5867 0.5079 0.5137
3983.339 0.561 0.7003 0.7272 0.6217 0.6791 0.6948 0.6214 0.6085 0.636 0.699
##END=
