##TITLE=6-Methyl-1-heptene
##JCAMP-DX=4.24
##DATA TYPE=INFRARED SPECTRUM
##ORIGIN=NIST Mass Spectrometry Data Center
##OWNER=NIST Standard Reference Data Program
Collection (C) 2018 copyright by the U.S. Secretary of Commerce
on behalf of the United States of America. All rights reserved.
##CAS REGISTRY NO=5026-76-6
##MOLFORM=C 8 H 16
##$NIST SOURCE=MSDC-IR
##SPECTROMETER/DATA SYSTEM=HP-GC/MS/IRD
##STATE=gas
##XUNITS=1/CM
##YUNITS=ABSORBANCE
##XFACTOR=1.0
##YFACTOR=0.000002500
##DELTAX=4.0
##FIRSTX=550.0
##LASTX=3846.0
##FIRSTY=0.000813
##MAXX=3846
##MINX=550
##MAXY=0.025
##MINY=0
##NPOINTS=825
##XYDATA=(X++(Y..Y))
550.0 325 204 48 41 82 102 69 67 69 70
590.0 78 99 129 131 126 164 201 246 280 277
630.0 315 327 299 290 271 229 166 116 109 72
670.0 60 67 50 34 25 42 49 36 8 37
710.0 63 50 50 67 76 66 82 93 100 119
750.0 118 97 74 70 74 68 56 45 53 61
790.0 67 63 68 76 85 83 87 96 68 95
830.0 151 166 166 178 173 176 214 234 244 274
870.0 302 314 344 417 494 595 754 991 1320 1674
910.0 1921 1993 1915 1665 1321 1037 832 709 623 551
950.0 513 485 467 472 476 503 554 611 691 771
990.0 839 878 844 761 662 559 470 374 332 296
1030.0 257 237 199 190 176 166 173 151 126 114
1070.0 99 95 97 100 120 117 100 90 87 103
1110.0 118 124 133 140 137 123 128 145 165 193
1150.0 227 262 307 347 372 375 345 295 253 219
1190.0 190 182 190 177 171 186 193 187 184 185
1230.0 173 171 172 164 150 134 132 136 152 157
1270.0 174 192 188 201 221 225 229 236 236 238
1310.0 251 268 296 321 340 368 386 407 423 446
1350.0 486 542 618 708 780 828 879 943 969 933
1390.0 862 762 626 496 423 392 386 400 422 460
1430.0 503 583 700 815 932 1047 1151 1225 1248 1261
1470.0 1228 1116 944 754 584 450 351 276 218 189
1510.0 158 132 129 123 103 87 88 101 103 93
1550.0 86 92 94 85 76 74 87 85 83 96
1590.0 103 105 116 131 144 184 235 285 369 498
1630.0 649 806 894 888 812 657 452 300 216 172
1670.0 145 126 114 113 104 87 86 93 79 57
1710.0 61 66 59 53 52 53 54 51 47 44
1750.0 44 43 43 38 42 53 51 39 36 47
1790.0 51 54 56 65 87 107 135 170 209 233
1830.0 231 215 184 153 118 86 73 65 52 42
1870.0 43 39 27 28 26 24 24 31 31 24
1910.0 24 17 16 10 9 11 6 8 11 9
1950.0 11 7 7 18 27 33 29 31 31 24
1990.0 23 18 15 22 17 16 9 6 15 10
2030.0 9 7 11 15 16 17 10 9 12 15
2070.0 23 21 14 3 2 15 12 6 8 8
2110.0 15 20 19 14 9 10 7 3 4 6
2150.0 16 24 20 15 9 5 10 12 14 19
2190.0 15 9 5 6 15 7 0 4 5 9
2230.0 15 9 9 18 21 22 18 18 24 24
2270.0 24 30 34 32 28 23 23 22 13 12
2310.0 27 30 27 27 30 23 17 26 33 30
2350.0 27 26 25 28 26 21 20 20 30 28
2390.0 19 19 12 7 11 15 16 19 16 13
2430.0 18 21 26 21 23 27 23 19 17 17
2470.0 11 16 20 20 22 23 25 21 13 14
2510.0 16 14 23 22 15 22 31 22 14 22
2550.0 26 26 19 27 38 42 46 45 53 56
2590.0 49 56 72 72 65 69 69 67 74 84
2630.0 87 79 82 77 70 77 75 69 80 81
2670.0 80 89 88 91 94 97 96 93 104 109
2710.0 116 124 136 150 162 168 159 150 155 154
2750.0 153 156 157 169 172 179 183 190 211 230
2790.0 246 266 296 324 368 410 455 515 592 683
2830.0 806 986 1216 1487 1794 2121 2448 2756 3042 3361
2870.0 3680 3946 4127 4265 4353 4401 4496 4720 5081 5539
2910.0 6046 6563 7092 7628 8155 8627 8921 8955 8815 8636
2950.0 8607 8953 9615 10000 9713 8857 7435 5709 4166 3093
2990.0 2446 2053 1795 1600 1433 1283 1121 949 807 711
3030.0 639 580 550 545 551 569 606 670 742 823
3070.0 945 1127 1334 1439 1407 1322 1145 864 610 469
3110.0 381 321 291 259 224 192 171 161 160 149
3150.0 139 143 154 137 121 121 120 135 135 136
3190.0 119 91 86 85 73 62 58 57 45 37
3230.0 32 21 16 32 52 61 46 23 22 36
3270.0 36 26 26 36 34 35 27 15 14 10
3310.0 24 35 39 26 17 22 23 29 49 48
3350.0 29 32 37 32 28 35 34 30 31 40
3390.0 49 42 34 31 28 25 33 32 21 24
3430.0 28 37 29 17 27 35 30 25 9 15
3470.0 32 27 28 25 19 23 24 21 36 51
3510.0 47 45 35 38 34 21 28 33 35 36
3550.0 32 38 50 48 40 42 40 26 24 31
3590.0 37 36 35 37 26 26 41 44 32 35
3630.0 43 35 33 48 48 43 49 59 67 64
3670.0 59 56 37 39 54 47 32 29 41 52
3710.0 44 26 24 29 49 66 70 59 40 46
3750.0 48 44 49 54 43 45 62 55 45 56
3790.0 66 72 69 62 68 49 35 46 51 55
3830.0 56 62 73 69 45
##END=
