##TITLE=p-Hexyloxybenzylidene p-aminophenol
##JCAMP-DX=4.24
##DATA TYPE=INFRARED SPECTRUM
##ORIGIN=EPA-IR VAPOR PHASE LIBRARY
##OWNER=SRD/NIST
Collection (C) 2018 copyright by the U.S. Secretary of Commerce
on behalf of the United States of America. All rights reserved.
##CAS REGISTRY NO=50262-77-6
##MOLFORM=C 19 H 23 N O 2
##$NIST SOURCE=MSDC-IR
##STATE=gas
##XUNITS=1/CM
##YUNITS=ABSORBANCE
##XFACTOR=1.
##YFACTOR=0.001
##DELTAX=1.92898
##FIRSTX=549.8
##LASTX=4000.7
##FIRSTY=2.5421
##MAXX=4000.7
##MINX=549.759
##MAXY=0.0502421
##MINY=0
##NPOINTS=1790
##XYDATA=(X++(Y..Y))
549.759 2.5421 2.4521 2.3521 1.9321 1.9421 1.6921 1.0509 1.2921 1.4921 1.0921
569.049 0.9073 0.7919 0.5655 0.5943 0.7638 0.8584 1.0107 0.8524 0.5392 0.6345
588.339 0.8238 0.7836 0.6454 0.5937 0.7854 0.8173 0.8188 0.8788 0.8434 0.9424
607.628 1.0821 0.9758 0.9557 1.0821 0.9174 0.7565 0.7953 0.9318 0.702 0.4623
626.918 0.5661 0.5542 0.5361 0.6543 0.5946 0.5325 0.6107 0.643 0.6197 0.5432
646.208 0.5434 0.443 0.5444 0.6474 0.4612 0.4342 0.3426 0.2889 0.2957 0.243
665.498 0.3106 0.3389 0.4555 0.4848 0.3499 0.3309 0.426 0.3667 0.3066 0.4052
684.787 0.485 0.4634 0.4573 0.4825 0.4663 0.46 0.5137 0.5183 0.5109 0.5509
704.077 0.499 0.5541 0.5667 0.6844 0.9065 0.9505 0.9116 0.8008 0.8061 0.9563
723.367 0.9837 0.8655 0.9644 1.1721 1.1121 0.9975 1.0493 1.1621 1.2721 1.4321
742.657 1.5021 1.4321 1.4821 1.6321 1.7621 1.9121 2.0821 2.3121 2.3821 2.3621
761.947 2.6221 2.8321 2.8521 2.7821 2.8121 3.0121 3.0421 2.7021 2.4321 2.4821
781.236 2.5521 2.6621 2.8221 2.9221 3.0421 3.1621 3.2521 3.3421 3.1621 3.1921
800.526 3.2021 3.0421 3.1821 3.2721 3.3321 3.5121 3.7821 4.1221 4.7221 5.2621
819.816 5.7321 6.2721 6.8021 7.4021 7.9821 8.5721 8.9921 9.2121 9.3021 8.9621
839.106 8.3521 7.7521 7.0321 6.4421 5.8921 5.3021 4.8621 4.3521 3.8021 3.3121
858.395 3.0721 2.9021 2.5421 2.3321 2.3521 2.3621 2.2721 2.3521 2.6021 2.7421
877.685 3.0521 3.5821 4.0321 4.3521 4.3921 4.1921 3.8421 3.1621 2.4521 2.2021
896.975 2.0821 1.7721 1.5521 1.4521 1.4221 1.4821 1.5521 1.5121 1.5921 1.5921
916.265 1.4521 1.5521 1.5921 1.6321 1.6421 1.5621 1.6221 1.8921 2.0621 2.0821
935.555 2.1021 2.0921 2.1821 2.1921 2.1121 1.9921 2.0121 2.0421 1.9921 1.9221
954.844 1.8921 1.8421 1.8221 1.9621 1.9421 2.1121 2.2321 2.1821 2.2321 2.1921
974.134 2.1421 2.1521 2.1321 1.9021 1.8321 1.9721 1.8521 1.7921 2.0621 2.1621
993.424 2.2121 2.5521 2.8121 3.1621 3.4521 3.7921 4.5121 5.1321 5.5521 6.1321
1012.714 6.2921 6.2921 6.5121 6.4821 6.4021 6.3421 6.1921 5.8721 5.7321 5.5121
1032.003 5.2721 5.2621 5.0621 4.7121 4.4921 4.5021 4.3221 4.1221 4.0321 4.0121
1051.293 4.1321 4.0421 3.8621 3.3721 3.0021 3.0121 2.8321 2.7521 2.9321 2.9621
1070.583 2.5621 2.3321 2.3621 2.5321 2.7121 3.0221 3.2021 3.0721 3.3121 3.4321
1089.873 3.1921 3.2921 3.7521 3.9821 3.8521 3.6621 4.0421 3.9121 3.4121 3.5421
1109.163 3.8721 3.5721 3.0221 2.7921 2.8121 2.7721 2.8221 3.0221 3.0121 2.7421
1128.452 2.6421 3.0521 3.2421 3.2121 3.2321 3.5821 3.7721 3.9521 4.3621 4.5921
1147.742 4.9621 5.9521 7.3321 9.6521 13.4021 18.8121 27.0521 37.2921 45.5621 48.5021
1167.032 46.2821 41.2521 35.9221 31.2421 26.7521 22.6621 20.2321 19.3021 19.2221 19.9921
1186.322 20.4621 19.9221 18.2021 15.3621 12.6321 10.6121 9.5821 9.0821 9.0121 9.2321
1205.611 9.4221 9.9721 10.5921 11.2421 12.1121 13.0421 13.8821 14.5521 14.9121 15.6421
1224.901 16.9821 18.6221 20.6121 22.3421 24.2621 27.0221 29.7021 32.3021 35.0221 37.6221
1244.191 39.6221 41.1521 42.0721 41.9721 40.7821 37.8321 33.4221 28.1921 22.6021 18.0721
1263.481 14.8121 12.3621 10.8821 9.8821 9.1721 8.6521 8.2721 8.1621 8.1121 8.1221
1282.771 8.1821 8.3521 8.5121 8.7621 9.0021 9.1021 9.3821 9.7921 10.3021 10.8521
1302.060 11.1521 10.9721 10.3421 9.6821 9.0921 8.6421 8.2921 8.0221 7.7421 7.2121
1321.350 6.5421 5.9321 5.4121 5.0421 4.8121 4.6121 4.4721 4.2821 4.0321 3.8121
1340.640 3.5321 3.2821 3.0921 2.9121 2.7621 2.6621 2.5921 2.5021 2.5021 2.5821
1359.930 2.6021 2.5721 2.5821 2.6121 2.6521 2.6721 2.6821 2.7121 2.7921 2.9121
1379.219 3.0821 3.2921 3.5321 3.6921 3.7121 3.6521 3.4221 3.0921 2.8121 2.6021
1398.509 2.4421 2.3021 2.1821 2.1121 2.2021 2.3321 2.5121 2.8221 3.2821 3.9021
1417.799 4.4421 4.8421 4.9521 4.7921 4.6821 4.7321 4.9421 5.1621 5.0921 4.6221
1437.089 3.9821 3.3921 3.0421 2.9521 2.9821 3.0521 3.1321 3.2921 3.4521 3.6321
1456.378 3.8621 4.0321 4.1721 4.3621 4.6121 5.0021 5.5021 6.1021 6.7021 7.0021
1475.668 6.9121 6.4921 5.9521 5.4321 5.1521 5.2321 5.7121 6.5121 7.7221 9.4021
1494.958 11.8121 15.3821 20.1921 26.3621 33.6421 40.9421 47.0821 50.2421 48.8621 42.8221
1514.248 34.0021 25.1421 18.0621 13.3021 10.1821 8.1521 6.6521 5.5521 4.8121 4.2821
1533.538 3.8121 3.4421 3.2521 3.0521 2.8821 2.7921 2.7521 2.6621 2.6421 2.6621
1552.827 2.6621 2.7021 2.8421 2.9921 3.2521 3.6821 4.1721 4.8121 5.7621 6.9121
1572.117 8.0021 8.8521 9.2121 8.9721 8.2921 7.5321 7.1421 7.3821 8.1621 9.3521
1591.407 10.9421 12.9121 15.3421 18.1921 21.1521 23.6321 25.0721 25.1621 23.9221 21.6321
1610.697 18.7621 15.8221 13.3021 11.5221 10.5121 10.3321 10.9721 12.3721 14.3421 16.6021
1629.986 18.4121 18.7521 17.3921 14.6621 11.5821 9.0121 7.1021 5.7621 4.7921 4.1321
1649.276 3.6621 3.2221 2.8721 2.6521 2.4521 2.3421 2.1921 2.0721 1.9721 1.8521
1668.566 1.7621 1.6821 1.5921 1.5021 1.4421 1.4121 1.4321 1.3721 1.2421 1.1421
1687.856 1.1121 1.1021 1.0721 1.0432 1.0352 1.0276 0.9555 0.8796 0.8593 0.8449
1707.146 0.9177 0.8773 0.8277 0.8698 0.8012 0.7997 0.8117 0.7806 0.8077 0.8584
1726.435 0.862 0.8397 0.8348 0.8293 0.8434 0.8668 0.8952 0.8662 0.8061 0.7956
1745.725 0.8167 0.8045 0.7672 0.7437 0.758 0.7942 0.8254 0.7879 0.7727 0.7897
1765.015 0.761 0.7584 0.7263 0.7359 0.7843 0.7575 0.6718 0.6307 0.6214 0.618
1784.305 0.573 0.5983 0.6578 0.6301 0.6258 0.604 0.5895 0.5499 0.5702 0.5967
1803.594 0.5682 0.5662 0.6083 0.606 0.5543 0.5306 0.5083 0.5484 0.5684 0.5158
1822.884 0.5503 0.5637 0.5052 0.4903 0.5427 0.6096 0.5934 0.5544 0.5483 0.5731
1842.174 0.5873 0.6227 0.6931 0.6792 0.6329 0.6464 0.6795 0.743 0.7661 0.7714
1861.464 0.7706 0.7385 0.7289 0.6903 0.6524 0.6685 0.6987 0.7216 0.7188 0.6835
1880.754 0.6855 0.7038 0.7131 0.7414 0.7107 0.7138 0.758 0.731 0.6699 0.6444
1900.043 0.6391 0.6203 0.5893 0.5665 0.5636 0.5392 0.5563 0.617 0.6386 0.6604
1919.333 0.6445 0.6719 0.7178 0.7046 0.7266 0.767 0.735 0.7282 0.751 0.7122
1938.623 0.7187 0.6986 0.6366 0.5929 0.6024 0.6462 0.6376 0.5746 0.6036 0.6781
1957.913 0.6575 0.6056 0.5897 0.5622 0.5609 0.6346 0.6868 0.6569 0.5455 0.546
1977.202 0.6411 0.6279 0.5955 0.5719 0.5685 0.5665 0.5843 0.6906 0.7284 0.6779
1996.492 0.6156 0.5868 0.6253 0.6911 0.7324 0.7561 0.7232 0.6771 0.7202 0.7549
2015.782 0.7737 0.8359 0.8975 0.8891 0.8069 0.7833 0.8149 0.8115 0.7812 0.7937
2035.072 0.7802 0.764 0.7759 0.7783 0.8045 0.811 0.8188 0.8191 0.8038 0.811
2054.362 0.7666 0.7165 0.7153 0.6945 0.683 0.6456 0.6515 0.6898 0.6598 0.633
2073.651 0.6309 0.6312 0.582 0.5256 0.5617 0.6069 0.615 0.5834 0.5168 0.5008
2092.941 0.5182 0.5269 0.5155 0.5103 0.5158 0.5063 0.4934 0.4922 0.4765 0.4499
2112.231 0.4541 0.4802 0.4487 0.4176 0.4233 0.4115 0.4234 0.4099 0.367 0.3312
2131.521 0.3463 0.338 0.3198 0.377 0.3965 0.3518 0.309 0.2969 0.2747 0.3235
2150.810 0.3581 0.375 0.3582 0.2761 0.3197 0.3728 0.3825 0.3628 0.3267 0.301
2170.100 0.3039 0.2877 0.2435 0.259 0.2961 0.3294 0.3026 0.2629 0.2646 0.2404
2189.390 0.2652 0.305 0.3197 0.318 0.2996 0.2894 0.2475 0.2691 0.3106 0.3361
2208.680 0.3233 0.2993 0.3053 0.3121 0.2986 0.2957 0.3192 0.2978 0.2666 0.2482
2227.970 0.2983 0.3344 0.335 0.3224 0.3016 0.3004 0.3112 0.369 0.3694 0.3513
2247.259 0.4022 0.425 0.3997 0.3805 0.3792 0.412 0.4055 0.3811 0.4337 0.4154
2266.549 0.3355 0.3736 0.3945 0.3777 0.3705 0.3625 0.3654 0.3359 0.3141 0.347
2285.839 0.4181 0.4342 0.435 0.4193 0.3702 0.3758 0.3989 0.4016 0.364 0.3223
2305.129 0.3502 0.4123 0.4268 0.4415 0.4444 0.4383 0.4889 0.4685 0.4046 0.4438
2324.418 0.4947 0.4541 0.4266 0.4616 0.474 0.4571 0.477 0.4711 0.4622 0.5168
2343.708 0.5536 0.558 0.5644 0.5231 0.515 0.5214 0.4739 0.5051 0.4465 0.3508
2362.998 0.4523 0.4977 0.4994 0.5087 0.4949 0.5436 0.5909 0.5608 0.5659 0.6076
2382.288 0.5757 0.5649 0.5262 0.5392 0.5373 0.4724 0.5193 0.5981 0.6505 0.6756
2401.578 0.6193 0.5624 0.56 0.57 0.6429 0.7003 0.7523 0.7823 0.7345 0.7574
2420.867 0.7635 0.7316 0.8017 0.8148 0.7577 0.6946 0.6634 0.6966 0.6329 0.5987
2440.157 0.5533 0.5159 0.5712 0.6206 0.6428 0.5999 0.5596 0.5747 0.5795 0.6133
2459.447 0.6538 0.5849 0.5553 0.6008 0.6681 0.6475 0.6292 0.6351 0.6462 0.6085
2478.737 0.6657 0.7618 0.6507 0.6501 0.6744 0.6629 0.6894 0.6834 0.7552 0.7454
2498.026 0.6936 0.7101 0.6488 0.6758 0.7257 0.7108 0.6498 0.5561 0.5723 0.6304
2517.316 0.6386 0.5878 0.5584 0.621 0.6523 0.6793 0.7285 0.6998 0.6873 0.7276
2536.606 0.7422 0.7519 0.7631 0.7154 0.7011 0.699 0.6604 0.6351 0.6329 0.6521
2555.896 0.6193 0.6211 0.7135 0.7419 0.6936 0.5768 0.5207 0.5797 0.5772 0.5939
2575.186 0.638 0.6133 0.5729 0.5663 0.5665 0.6106 0.6234 0.5576 0.5312 0.5618
2594.475 0.572 0.5686 0.5962 0.5532 0.5122 0.5279 0.5359 0.5209 0.5206 0.5304
2613.765 0.5545 0.5429 0.4801 0.4983 0.4887 0.4599 0.4793 0.5292 0.5361 0.4486
2633.055 0.5278 0.5716 0.4678 0.5035 0.5382 0.4703 0.4751 0.5331 0.4837 0.4504
2652.345 0.4742 0.4323 0.3619 0.3967 0.4615 0.4461 0.4542 0.5156 0.5768 0.559
2671.634 0.4938 0.5064 0.5224 0.4885 0.4752 0.4322 0.406 0.4689 0.5059 0.479
2690.924 0.4685 0.4894 0.547 0.6315 0.6348 0.581 0.5949 0.5696 0.591 0.6315
2710.214 0.5491 0.5672 0.5889 0.5561 0.5612 0.5605 0.6013 0.642 0.6646 0.6781
2729.504 0.6649 0.6671 0.7576 0.7592 0.7053 0.7072 0.674 0.7395 0.7577 0.7704
2748.794 0.8545 0.8679 0.8495 0.8144 0.8276 0.8796 0.8683 0.8084 0.8535 0.8875
2768.083 0.8265 0.7708 0.7777 0.8089 0.7728 0.7595 0.814 0.8449 0.7937 0.7978
2787.373 0.8778 0.8668 0.8837 0.9264 0.8866 0.8817 0.8953 0.9544 1.0411 1.0921
2806.663 1.0502 1.0621 1.1021 1.1021 1.1221 1.1921 1.2321 1.2321 1.4021 1.5521
2825.953 1.5621 1.6121 1.7321 1.8921 2.0121 2.1421 2.3621 2.6521 2.9021 3.2321
2845.242 3.5521 3.9221 4.5221 5.0721 5.4821 5.8621 6.3621 6.9221 7.3121 7.6921
2864.532 8.0621 8.3021 8.4121 8.5321 8.6221 8.6321 8.6621 8.6121 8.5021 8.3221
2883.822 8.1221 7.9221 7.6521 7.2921 6.9321 6.6421 6.5021 6.4421 6.4921 6.6021
2903.112 6.7221 6.9921 7.3221 7.7221 8.0521 8.3721 8.8821 9.4721 10.0821 10.6621
2922.401 11.2021 11.8621 12.5821 13.3321 14.1421 14.7721 15.2121 15.5221 15.7021 15.7321
2941.691 15.6021 15.4121 15.0121 14.4021 13.8221 13.2621 12.8121 12.5121 12.2421 12.0521
2960.981 12.2021 12.3821 12.3021 12.1221 11.7621 11.2921 10.5021 9.3921 8.3121 7.2121
2980.271 6.1421 5.4221 4.9421 4.5421 4.1021 3.7221 3.5021 3.4621 3.3721 3.2021
2999.561 3.1721 3.0321 3.0121 3.0621 3.1121 3.1621 3.1221 3.1121 3.0521 2.9521
3018.850 2.9921 3.0421 2.9721 2.9921 3.2821 3.6921 4.1721 4.5721 4.8821 5.0121
3038.140 4.7321 4.1921 3.5821 3.0121 2.5621 2.3721 2.2521 2.1821 2.2121 2.2021
3057.430 2.2021 2.2421 2.2821 2.3621 2.5721 2.7021 2.8421 3.0421 3.1821 3.0721
3076.720 2.8321 2.5621 2.2321 2.0421 1.9021 1.7821 1.7421 1.7321 1.6521 1.5921
3096.009 1.5821 1.5821 1.5421 1.4321 1.4021 1.3621 1.2721 1.2821 1.2921 1.1621
3115.299 1.0721 1.1121 1.0821 0.9067 0.8154 0.7473 0.6275 0.6191 0.6531 0.6387
3134.589 0.6001 0.6487 0.5923 0.4914 0.4641 0.4256 0.4558 0.5555 0.6121 0.5559
3153.879 0.5242 0.4799 0.4606 0.4545 0.4104 0.3619 0.3232 0.4355 0.3777 0.287
3173.169 0.3397 0.3857 0.4024 0.496 0.5269 0.4076 0.3874 0.4336 0.5036 0.4987
3192.458 0.4417 0.3587 0.4218 0.498 0.492 0.516 0.4796 0.4299 0.3971 0.4026
3211.748 0.4081 0.315 0.2665 0.3147 0.3329 0.3949 0.4185 0.3591 0.3767 0.4085
3231.038 0.4354 0.6472 0.7573 0.6068 0.5029 0.4465 0.4996 0.5972 0.4541 0.3631
3250.328 0.3647 0.3945 0.4828 0.5233 0.5388 0.4408 0.3832 0.3832 0.3657 0.3865
3269.617 0.3857 0.31 0.3561 0.4417 0.2895 0.2505 0.3488 0.3173 0.2376 0.1782
3288.907 0.2182 0.2554 0.2461 0.2451 0.2222 0.2657 0.3335 0.2312 0.2915 0.3498
3308.197 0.1929 0.2713 0.2907 0.1883 0.1882 0.211 0.2251 0.1767 0.1735 0.2237
3327.487 0.213 0.13054 0.1527 0.2324 0.2201 0.2318 0.2374 0.2205 0.3611 0.4346
3346.777 0.3366 0.3459 0.3363 0.2697 0.3412 0.4049 0.4175 0.3888 0.3913 0.4674
3366.066 0.379 0.2412 0.3442 0.3903 0.3046 0.3441 0.3205 0.3276 0.4056 0.393
3385.356 0.3773 0.353 0.4002 0.465 0.349 0.2749 0.2837 0.2235 0.3368 0.467
3404.646 0.3115 0.2239 0.2465 0.2158 0.1748 0.1546 0.14579 0.2002 0.2384 0.313
3423.936 0.3585 0.2535 0.13543 0.11369 0.1852 0.2101 0.13574 0.1688 0.1771 0.1672
3443.225 0.3141 0.2652 0.1833 0.2055 0.2927 0.2139 0.055493 0.12938 0.1615 0.1909
3462.515 0.3553 0.3106 0.12905 0.2514 0.3293 0.1739 0.14002 0.2264 0.3187 0.2773
3481.805 0.2862 0.2639 0.13656 0.12858 0.1876 0.1913 0.2029 0.2253 0.2133 0.1803
3501.095 0.04264 0.0272 0.1407 0.1632 0.09191 0.07068 0.1653 0.2203 0.2403 0.2613
3520.385 0.15094 0.1758 0.262 0.10822 0.06728 0.1654 0.07788 0.059743 0.15177 0.1675
3539.674 0.2386 0.3107 0.2989 0.3831 0.3977 0.3249 0.2788 0.1812 0.2204 0.273
3558.964 0.2015 0.09227 0.1929 0.3514 0.3132 0.2653 0.3014 0.2765 0.2492 0.2312
3578.254 0.1688 0.2675 0.2405 0.1617 0.2334 0.2837 0.2524 0.2312 0.3699 0.4393
3597.544 0.3711 0.3146 0.2634 0.1956 0.2379 0.3292 0.4122 0.3959 0.3659 0.3611
3616.833 0.2586 0.4158 0.4844 0.5673 0.8336 0.8167 0.8058 1.0165 1.3421 1.6521
3636.123 1.9821 2.5021 3.0221 3.7621 4.9621 6.3221 7.8221 9.4221 11.1121 12.5221
3655.413 12.2721 9.8921 6.6721 3.9621 2.4421 1.8221 1.4921 1.2921 0.9939 0.7703
3674.703 0.7527 0.6412 0.4839 0.4623 0.5668 0.5306 0.4471 0.3895 0.2094 0.1956
3693.993 0.2912 0.2759 0.3444 0.3136 0.12208 0.04704 0.14802 0.2249 0.2236 0.3077
3713.282 0.2737 0.2358 0.3343 0.3362 0.3421 0.2973 0.2265 0.3246 0.3767 0.406
3732.572 0.3557 0.2447 0.2407 0.1624 0.08419 0.0386 0.14733 0.2581 0.2438 0.1831
3751.862 0.1636 0.1535 0.09849 0.12954 0.2275 0.2783 0.2391 0.264 0.2026 0.10802
3771.152 0.1985 0.3314 0.3579 0.3547 0.3145 0.2493 0.2441 0.2452 0.1946 0.2774
3790.441 0.321 0.2347 0.13204 0.2064 0.3022 0.2432 0.1982 0.11695 0.1836 0.2221
3809.731 0.2428 0.2357 0.1561 0.10285 0.11505 0.13071 0.15015 0.1693 0.2173 0.2263
3829.021 0.08488 0.0362 0.1109 0.184 0.1977 0.2534 0.2516 0.08826 0.14961 0.2593
3848.311 0.1876 0.2104 0.3293 0.3385 0.2219 0.2197 0.2664 0.2004 0.09957 0.13363
3867.601 0.14374 0.1989 0.2296 0.1802 0.2661 0.3235 0.2008 0.07918 0.2018 0.3087
3886.890 0.3403 0.4262 0.3419 0.1744 0.2004 0.243 0.1888 0.1669 0.1626 0.1989
3906.180 0.2164 0.2532 0.2868 0.34 0.5064 0.4588 0.3661 0.4561 0.3906 0.2468
3925.470 0.2927 0.292 0.2379 0.1732 0.06368 0.12695 0.1831 0.15164 0.2723 0.3327
3944.760 0.3509 0.3568 0.273 0.3219 0.3229 0.2618 0.2303 0.1822 0.13497 0.1559
3964.049 0.1778 0.04558 0 0.14822 0.2563 0.2301 0.2083 0.1581 0.1894 0.1633
3983.339 0.13227 0.2213 0.11224 0.061929 0.1649 0.2912 0.3615 0.3571 0.12503 0.051413
##END=
