##TITLE=sym-Tetraacetylethane
##JCAMP-DX=4.24
##DATA TYPE=INFRARED SPECTRUM
##ORIGIN=EPA-IR VAPOR PHASE LIBRARY
##OWNER=SRD/NIST
Collection (C) 2018 copyright by the U.S. Secretary of Commerce
on behalf of the United States of America. All rights reserved.
##CAS REGISTRY NO=5027-32-7
##MOLFORM=C 10 H 14 O 4
##$NIST SOURCE=MSDC-IR
##STATE=gas
##XUNITS=1/CM
##YUNITS=ABSORBANCE
##XFACTOR=1.
##YFACTOR=0.001
##DELTAX=1.92898
##FIRSTX=549.8
##LASTX=4000.7
##FIRSTY=1.963
##MAXX=4000.7
##MINX=549.759
##MAXY=0.057713
##MINY=0
##NPOINTS=1790
##XYDATA=(X++(Y..Y))
549.759 1.963 1.773 1.493 1.543 1.423 1.016 0.8002 1.1022 1.333 1.0153
569.049 0.7778 1.0893 1.393 1.393 1.1851 0.9505 0.8057 0.9469 1.1465 1.0021
588.339 0.9251 0.9263 0.9313 1.1269 0.9059 0.6079 0.7665 0.9422 0.6982 0.6734
607.628 1.001 0.9822 1.0618 1.1674 1.1543 1.1772 1.0811 0.8558 0.8782 0.8382
626.918 0.7011 0.9027 1.0956 0.9619 0.9184 1.0614 0.8111 0.6401 0.878 0.9464
646.208 0.9432 0.9195 0.9314 0.9081 0.6925 0.6466 0.6102 0.5828 0.7778 0.9124
665.498 1.0702 1.1568 1.263 1.463 1.383 1.433 1.583 1.583 1.563 1.413
684.787 1.403 1.593 1.473 1.1282 1.0754 0.9834 0.8458 0.7624 0.7957 0.9935
704.077 0.9678 0.8639 0.7446 0.8019 0.8784 0.7501 0.6785 0.7402 0.8114 0.7714
723.367 0.7317 0.636 0.4144 0.5009 0.7349 0.7708 0.8003 0.7035 0.703 0.814
742.657 1.0359 1.035 0.9221 0.9695 0.9067 1.0054 1.0773 1.1266 1.0521 0.9533
761.947 0.9909 0.9933 1.1006 1.1814 1.02 0.9711 1.0945 0.9846 0.9218 1.0698
781.236 1.1895 1.1805 1.1264 1.0624 1.1317 1.333 1.1951 1.203 1.493 1.333
800.526 1.0711 1.1978 1.353 1.393 1.443 1.533 1.583 1.593 1.553 1.593
819.816 1.593 1.543 1.603 1.533 1.533 1.763 1.833 1.763 1.713 1.793
839.106 1.933 1.873 1.913 2.113 2.083 2.263 2.433 2.403 2.463 2.543
858.395 2.603 2.713 2.843 2.903 3.103 3.213 3.283 3.643 3.873 3.963
877.685 4.183 4.553 5.033 5.473 6.033 6.653 7.223 8.033 9.033 10.023
896.975 10.963 11.893 12.803 13.463 13.683 13.503 13.053 12.403 11.503 10.613
916.265 9.963 9.443 8.973 8.583 8.383 8.353 8.503 8.603 8.523 8.393
935.555 8.373 8.563 8.593 8.653 8.703 8.823 8.893 9.093 9.513 9.723
954.844 9.743 9.933 10.223 10.513 10.713 10.803 10.853 11.103 11.293 11.253
974.134 11.473 11.563 11.533 11.533 11.473 11.173 10.713 10.433 10.053 9.463
993.424 9.063 8.793 8.393 7.793 7.493 7.373 7.223 6.953 6.933 6.833
1012.714 6.423 6.293 6.323 6.113 5.933 6.103 6.043 5.653 5.453 5.353
1032.003 5.273 5.153 4.873 4.623 4.303 4.163 3.943 3.783 3.643 3.533
1051.293 3.603 3.613 3.613 3.503 3.613 3.543 3.173 3.353 3.433 3.383
1070.583 3.403 3.233 2.933 3.043 3.313 2.883 2.853 3.263 3.293 3.523
1089.873 3.583 3.153 2.863 3.103 3.193 3.153 3.193 3.003 2.993 3.033
1109.163 3.203 3.143 2.963 3.243 3.423 3.463 3.373 3.473 3.613 3.593
1128.452 3.713 3.813 4.033 4.503 4.453 4.373 4.803 4.893 5.163 5.403
1147.742 5.673 5.943 5.593 5.613 5.963 6.093 6.323 6.463 6.683 6.803
1167.032 6.453 6.413 6.963 7.243 7.273 7.383 7.443 7.573 7.923 8.043
1186.322 7.993 8.253 8.773 9.073 8.963 9.263 9.733 9.523 9.653 10.523
1205.611 11.173 11.793 12.513 13.103 13.623 14.163 14.923 15.953 16.693 17.273
1224.901 18.043 18.903 19.903 20.563 21.143 21.573 21.533 21.633 21.643 21.343
1244.191 21.103 20.883 20.623 20.083 19.693 19.453 19.113 19.093 19.143 18.823
1263.481 18.813 18.933 18.873 18.913 18.803 18.903 19.073 19.213 19.373 19.413
1282.771 19.413 19.443 19.573 19.833 19.883 19.913 20.063 20.043 19.973 19.943
1302.060 20.033 20.123 20.133 20.173 20.263 20.323 20.363 20.343 20.343 20.373
1321.350 20.423 20.473 20.513 20.553 20.583 20.673 20.733 20.823 20.983 21.113
1340.640 21.203 21.383 21.683 21.983 22.273 22.673 23.223 23.813 24.473 25.153
1359.930 25.883 26.703 27.443 28.313 29.223 30.113 31.063 31.913 32.753 33.573
1379.219 34.293 35.003 35.593 36.003 36.263 36.393 36.383 36.283 36.053 35.633
1398.509 35.113 34.523 33.903 33.253 32.643 32.033 31.373 30.823 30.233 29.533
1417.799 29.043 28.573 28.033 27.623 27.313 26.983 26.603 26.183 25.893 25.683
1437.089 25.413 25.173 24.953 24.773 24.623 24.463 24.373 24.263 24.133 24.073
1456.378 24.043 24.053 24.013 23.963 23.933 23.893 23.833 23.843 23.913 23.913
1475.668 23.893 23.933 24.023 24.053 24.073 24.163 24.243 24.313 24.413 24.563
1494.958 24.653 24.773 24.963 25.093 25.193 25.443 25.713 25.813 26.003 26.233
1514.248 26.453 26.703 26.853 27.063 27.353 27.593 27.813 28.043 28.303 28.643
1533.538 29.053 29.413 29.803 30.233 30.653 31.123 31.603 32.123 32.723 33.453
1552.827 34.183 34.913 35.693 36.613 37.613 38.473 39.403 40.503 41.593 42.573
1572.117 43.573 44.703 45.893 46.893 47.833 48.843 49.713 50.523 51.313 52.123
1591.407 52.863 53.463 54.023 54.613 55.113 55.593 56.083 56.503 56.873 57.233
1610.697 57.513 57.633 57.693 57.713 57.503 57.113 56.553 55.723 54.753 53.593
1629.986 52.203 50.743 49.113 47.313 45.453 43.593 41.633 39.783 37.953 36.053
1649.276 34.323 32.823 31.183 29.583 28.153 26.823 25.623 24.503 23.373 22.293
1668.566 21.413 20.543 19.663 18.893 18.203 17.583 16.993 16.503 16.103 15.633
1687.856 15.113 14.673 14.353 14.023 13.723 13.463 13.303 13.163 13.043 12.953
1707.146 12.903 12.863 12.743 12.593 12.403 12.153 11.763 11.273 10.953 10.633
1726.435 10.243 9.863 9.563 9.353 9.123 8.863 8.663 8.433 8.103 7.713
1745.725 7.363 7.133 6.863 6.553 6.333 6.143 5.983 5.833 5.683 5.563
1765.015 5.413 5.293 5.163 5.043 4.963 4.843 4.783 4.773 4.703 4.563
1784.305 4.473 4.453 4.433 4.343 4.293 4.313 4.263 4.173 4.123 4.063
1803.594 4.073 4.023 3.973 4.043 3.933 3.803 3.793 3.813 3.823 3.823
1822.884 3.813 3.753 3.683 3.693 3.673 3.583 3.583 3.613 3.623 3.643
1842.174 3.593 3.583 3.523 3.453 3.473 3.473 3.403 3.373 3.363 3.353
1861.464 3.383 3.423 3.423 3.443 3.433 3.373 3.383 3.373 3.323 3.323
1880.754 3.303 3.303 3.293 3.233 3.213 3.243 3.213 3.153 3.133 3.123
1900.043 3.153 3.143 3.103 3.153 3.143 3.063 3.043 3.053 3.013 2.993
1919.333 2.983 2.933 2.893 2.903 2.913 2.933 2.913 2.873 2.803 2.763
1938.623 2.813 2.843 2.803 2.733 2.713 2.733 2.743 2.733 2.793 2.843
1957.913 2.833 2.813 2.773 2.753 2.813 2.803 2.753 2.823 2.863 2.843
1977.202 2.843 2.833 2.853 2.863 2.823 2.863 2.933 2.953 2.893 2.803
1996.492 2.823 2.793 2.753 2.853 2.853 2.813 2.833 2.823 2.823 2.863
2015.782 2.873 2.903 2.873 2.813 2.833 2.863 2.943 2.953 2.923 2.973
2035.072 2.933 2.923 2.913 2.833 2.843 2.823 2.833 2.813 2.783 2.783
2054.362 2.843 2.873 2.863 2.843 2.783 2.763 2.763 2.743 2.703 2.693
2073.651 2.713 2.703 2.733 2.783 2.793 2.763 2.753 2.773 2.763 2.763
2092.941 2.753 2.713 2.653 2.633 2.653 2.643 2.613 2.653 2.633 2.553
2112.231 2.553 2.553 2.523 2.563 2.583 2.533 2.513 2.483 2.463 2.483
2131.521 2.443 2.413 2.423 2.433 2.433 2.403 2.423 2.443 2.383 2.333
2150.810 2.343 2.363 2.373 2.373 2.373 2.423 2.413 2.383 2.403 2.363
2170.100 2.333 2.343 2.373 2.393 2.333 2.333 2.373 2.383 2.373 2.333
2189.390 2.393 2.453 2.383 2.373 2.413 2.423 2.403 2.423 2.503 2.503
2208.680 2.523 2.513 2.473 2.493 2.523 2.483 2.463 2.463 2.433 2.443
2227.970 2.513 2.483 2.423 2.443 2.453 2.513 2.553 2.563 2.563 2.513
2247.259 2.553 2.603 2.663 2.703 2.683 2.623 2.633 2.713 2.753 2.763
2266.549 2.813 2.903 2.873 2.783 2.813 2.833 2.843 2.813 2.733 2.693
2285.839 2.653 2.703 2.673 2.593 2.663 2.683 2.603 2.613 2.693 2.693
2305.129 2.623 2.653 2.683 2.703 2.673 2.663 2.663 2.583 2.583 2.653
2324.418 2.673 2.643 2.653 2.673 2.673 2.683 2.613 2.613 2.633 2.683
2343.708 2.703 2.673 2.623 2.583 2.633 2.673 2.663 2.663 2.703 2.713
2362.998 2.723 2.733 2.713 2.653 2.643 2.713 2.703 2.653 2.623 2.623
2382.288 2.643 2.623 2.603 2.603 2.563 2.503 2.483 2.553 2.593 2.593
2401.578 2.633 2.633 2.613 2.623 2.633 2.603 2.543 2.553 2.613 2.593
2420.867 2.563 2.573 2.553 2.513 2.533 2.583 2.583 2.543 2.553 2.593
2440.157 2.593 2.643 2.653 2.633 2.643 2.613 2.613 2.623 2.573 2.593
2459.447 2.613 2.643 2.643 2.623 2.643 2.673 2.703 2.703 2.713 2.703
2478.737 2.623 2.643 2.673 2.683 2.743 2.723 2.713 2.673 2.723 2.883
2498.026 2.923 2.893 2.893 2.903 2.903 2.913 2.863 2.853 2.863 2.953
2517.316 3.033 3.013 3.013 3.003 3.043 3.103 3.033 3.023 3.143 3.123
2536.606 3.123 3.183 3.183 3.143 3.133 3.223 3.283 3.263 3.183 3.143
2555.896 3.213 3.243 3.223 3.233 3.253 3.183 3.223 3.303 3.163 3.223
2575.186 3.343 3.283 3.293 3.313 3.263 3.223 3.313 3.343 3.283 3.323
2594.475 3.293 3.263 3.313 3.333 3.313 3.233 3.243 3.363 3.413 3.343
2613.765 3.343 3.353 3.283 3.243 3.273 3.283 3.313 3.343 3.173 3.123
2633.055 3.213 3.313 3.253 3.173 3.283 3.343 3.293 3.283 3.293 3.253
2652.345 3.223 3.213 3.183 3.173 3.183 3.183 3.193 3.223 3.163 3.113
2671.634 3.183 3.163 3.203 3.283 3.243 3.243 3.263 3.263 3.293 3.253
2690.924 3.133 3.133 3.203 3.253 3.233 3.223 3.263 3.263 3.233 3.203
2710.214 3.163 3.163 3.183 3.213 3.283 3.273 3.233 3.233 3.213 3.243
2729.504 3.353 3.373 3.303 3.243 3.193 3.193 3.213 3.243 3.303 3.293
2748.794 3.283 3.263 3.173 3.193 3.213 3.143 3.233 3.233 3.163 3.313
2768.083 3.353 3.283 3.243 3.263 3.313 3.233 3.263 3.353 3.333 3.233
2787.373 3.233 3.323 3.273 3.173 3.313 3.363 3.313 3.333 3.333 3.273
2806.663 3.223 3.173 3.163 3.253 3.313 3.343 3.283 3.263 3.293 3.353
2825.953 3.423 3.463 3.403 3.363 3.403 3.433 3.473 3.503 3.453 3.433
2845.242 3.393 3.423 3.523 3.523 3.483 3.403 3.373 3.403 3.323 3.323
2864.532 3.353 3.373 3.423 3.453 3.403 3.323 3.383 3.383 3.423 3.453
2883.822 3.353 3.273 3.283 3.233 3.263 3.383 3.433 3.503 3.503 3.473
2903.112 3.493 3.393 3.363 3.643 3.733 3.803 4.003 4.233 4.463 4.573
2922.401 4.913 5.313 5.623 5.973 6.323 6.583 6.703 6.753 6.733 6.583
2941.691 6.373 6.253 6.043 5.793 5.663 5.423 5.393 5.353 5.173 5.113
2960.981 5.013 4.923 4.863 4.823 4.743 4.663 4.613 4.523 4.393 4.493
2980.271 4.483 4.313 4.313 4.273 4.233 4.213 4.183 4.233 4.193 4.183
2999.561 4.203 4.203 4.223 4.223 4.303 4.383 4.443 4.413 4.453 4.583
3018.850 4.623 4.713 4.823 4.943 4.943 4.873 4.923 4.933 4.883 4.873
3038.140 4.973 4.963 4.903 4.843 4.683 4.603 4.553 4.373 4.243 4.293
3057.430 4.173 4.053 4.063 3.943 3.833 3.763 3.583 3.493 3.493 3.483
3076.720 3.443 3.323 3.353 3.323 3.203 3.193 3.133 3.043 3.083 3.053
3096.009 2.913 2.773 2.873 2.923 2.673 2.623 2.673 2.613 2.523 2.393
3115.299 2.433 2.473 2.353 2.333 2.503 2.613 2.433 2.373 2.343 2.173
3134.589 2.133 2.183 2.243 2.203 2.243 2.223 2.103 2.003 1.953 2.063
3153.879 2.083 2.043 2.023 2.003 1.933 1.963 1.933 1.853 1.793 1.793
3173.169 1.943 1.943 1.863 1.873 1.913 1.893 1.773 1.733 1.903 1.923
3192.458 1.743 1.673 1.793 1.833 1.903 1.893 1.883 1.933 1.813 1.763
3211.748 1.853 1.833 1.863 1.863 1.813 1.793 1.793 1.813 1.733 1.673
3231.038 1.743 1.783 1.603 1.633 1.593 1.593 1.663 1.583 1.593 1.533
3250.328 1.463 1.453 1.493 1.433 1.413 1.313 1.263 1.343 1.283 1.353
3269.617 1.353 1.413 1.633 1.523 1.403 1.453 1.383 1.293 1.293 1.343
3288.907 1.195 1.1151 1.1713 1.223 1.283 1.223 1.2016 1.243 1.243 1.1264
3308.197 1.1268 1.1793 1.0908 1.0203 0.9782 1.0411 1.1829 1.263 1.2004 1.0436
3327.487 1.099 1.1309 0.9748 0.8676 0.8901 0.9559 1.0519 1.033 0.9227 0.9024
3346.777 0.9342 0.9377 0.7968 0.92 1.0605 0.9794 0.9843 0.9661 0.8631 0.8704
3366.066 1.04 1.0177 0.8352 0.852 0.7634 0.6332 0.7469 0.8213 0.8201 0.7741
3385.356 0.7691 0.8713 0.9372 0.9197 0.8143 0.7792 0.7156 0.7104 0.7527 0.7269
3404.646 0.8055 0.824 0.7658 0.6662 0.6308 0.6049 0.4945 0.5152 0.6603 0.6911
3423.936 0.6221 0.6973 0.7306 0.6897 0.722 0.6985 0.7569 0.7258 0.6547 0.562
3443.225 0.4708 0.4574 0.4998 0.4274 0.25065 0.4118 0.5964 0.6034 0.6835 0.6304
3462.515 0.5617 0.5804 0.5551 0.5762 0.4334 0.4652 0.5671 0.5542 0.6533 0.7087
3481.805 0.5957 0.4858 0.5603 0.5596 0.5143 0.4762 0.3653 0.43 0.6052 0.5648
3501.095 0.4037 0.4235 0.5387 0.6034 0.6373 0.5255 0.4556 0.5789 0.6191 0.4649
3520.385 0.4523 0.4663 0.3776 0.3607 0.4754 0.5247 0.426 0.3854 0.4201 0.4374
3539.674 0.4902 0.4526 0.3536 0.28336 0.3593 0.4492 0.3438 0.4874 0.6155 0.4926
3558.964 0.5445 0.601 0.4767 0.4604 0.5139 0.5491 0.4973 0.5701 0.5914 0.4316
3578.254 0.3511 0.23564 0.24899 0.3961 0.4267 0.5089 0.5191 0.4618 0.4614 0.3052
3597.544 0.21671 0.3125 0.4061 0.5335 0.5224 0.4036 0.4609 0.4823 0.3986 0.4258
3616.833 0.3199 0.27916 0.3903 0.4388 0.4767 0.4809 0.4152 0.4211 0.5213 0.475
3636.123 0.3626 0.3381 0.5123 0.5492 0.4673 0.4909 0.4659 0.4718 0.4141 0.26549
3655.413 0.3384 0.3129 0.3154 0.447 0.4517 0.4415 0.3241 0.26802 0.3172 0.28747
3674.703 0.3174 0.3815 0.3696 0.3765 0.2862 0.4137 0.5556 0.4936 0.4571 0.3531
3693.993 0.3752 0.4143 0.3216 0.27712 0.3667 0.3673 0.27737 0.26352 0.373 0.4695
3713.282 0.513 0.5186 0.4904 0.387 0.29229 0.3596 0.437 0.39 0.3717 0.4117
3732.572 0.4055 0.461 0.3678 0.3409 0.3815 0.3939 0.4176 0.4203 0.3814 0.4028
3751.862 0.42 0.23182 0.25533 0.4412 0.4842 0.3817 0.25704 0.22323 0.24426 0.28275
3771.152 0.28531 0.3068 0.3126 0.3404 0.4362 0.3148 0.23764 0.4075 0.4472 0.3546
3790.441 0.4044 0.3796 0.24519 0.3359 0.4141 0.1793 0 0.1594 0.4161 0.3468
3809.731 0.3283 0.4466 0.24199 0.1459 0.3336 0.4697 0.3654 0.28935 0.3221 0.3559
3829.021 0.3702 0.3688 0.4065 0.3309 0.25815 0.248 0.1783 0.23939 0.3495 0.3665
3848.311 0.4291 0.2814 0.22402 0.3602 0.3191 0.27834 0.29789 0.332 0.27224 0.3064
3867.601 0.3239 0.26173 0.25236 0.3055 0.4852 0.4861 0.3438 0.3184 0.3309 0.3645
3886.890 0.3303 0.3199 0.4462 0.4903 0.5134 0.4867 0.4031 0.4617 0.48 0.4371
3906.180 0.3658 0.28309 0.3757 0.26267 0.064 0.1788 0.19408 0.27337 0.4048 0.3509
3925.470 0.28708 0.19762 0.3167 0.4903 0.26999 0.084 0.333 0.3954 0.3565 0.4451
3944.760 0.5015 0.4019 0.3727 0.4204 0.4033 0.4791 0.444 0.3322 0.3088 0.28638
3964.049 0.28922 0.3327 0.3585 0.28131 0.25297 0.3769 0.3927 0.309 0.3199 0.24298
3983.339 0.21684 0.19503 0.1685 0.4031 0.3389 0.312 0.3859 0.3825 0.4766 0.3719
##END=
