##TITLE=N-(3-Aminopropyl)-imidazole
##JCAMP-DX=4.24
##DATA TYPE=INFRARED SPECTRUM
##ORIGIN=NIST Mass Spectrometry Data Center
##OWNER=NIST Standard Reference Data Program
Collection (C) 2018 copyright by the U.S. Secretary of Commerce
on behalf of the United States of America. All rights reserved.
##CAS REGISTRY NO=5036-48-6
##MOLFORM=C 6 H 11 N 3
##$NIST SOURCE=MSDC-IR
##SPECTROMETER/DATA SYSTEM=HP-GC/MS/IRD
##STATE=gas
##XUNITS=1/CM
##YUNITS=ABSORBANCE
##XFACTOR=1.0
##YFACTOR=0.000001600
##DELTAX=4.0
##FIRSTX=550.0
##LASTX=3846.0
##FIRSTY=0.000765
##MAXX=3846
##MINX=550
##MAXY=0.016
##MINY=0
##NPOINTS=825
##XYDATA=(X++(Y..Y))
550.0 478 223 43 39 3 52 174 225 306 338
590.0 370 516 623 775 1002 1258 1489 1675 1767 1773
630.0 1712 1638 1749 2093 2667 3330 3907 4272 4309 4076
670.0 3616 3134 2817 2662 2636 2765 3077 3550 4247 5178
710.0 6257 7302 7986 8087 7659 6905 6121 5560 5237 5129
750.0 5183 5328 5497 5603 5597 5506 5351 5163 4979 4890
790.0 5026 5381 5834 6241 6378 6017 5315 4374 3467 2787
830.0 2319 2009 1787 1694 1681 1609 1485 1402 1325 1230
870.0 1132 1095 1123 1178 1378 1838 2300 2419 2369 2276
910.0 1835 1205 860 721 636 605 572 526 475 450
950.0 459 491 498 521 536 514 518 523 519 528
990.0 581 643 724 856 1084 1411 1849 2413 2972 3286
1030.0 3310 3143 2744 2268 1967 1846 1990 2457 3387 4819
1070.0 6035 6579 6703 6231 5014 3820 3084 2724 2698 2700
1110.0 2528 2367 2156 1787 1377 1033 818 705 640 610
1150.0 580 518 528 549 514 525 579 612 659 736
1190.0 810 932 1111 1374 1813 2503 3619 5120 6551 7361
1230.0 7380 6717 5310 3535 2217 1598 1426 1505 1850 2479
1270.0 3310 4125 4667 4784 4489 3785 2904 2205 1756 1488
1310.0 1341 1264 1226 1228 1293 1416 1607 1928 2344 2801
1350.0 3199 3471 3612 3644 3564 3476 3441 3396 3258 2996
1390.0 2668 2337 2017 1741 1545 1415 1357 1390 1508 1703
1430.0 1975 2338 2814 3359 3900 4285 4458 4427 4175 3724
1470.0 3243 2995 3090 3597 4619 6223 8112 9605 10000 9307
1510.0 7686 5489 3583 2447 1866 1542 1339 1196 1052 949
1550.0 977 1158 1439 1631 1705 1735 1669 1456 1245 1171
1590.0 1223 1357 1566 1810 2041 2242 2406 2510 2503 2399
1630.0 2234 2021 1796 1594 1442 1324 1192 1025 870 726
1670.0 612 564 575 662 770 797 789 745 617 442
1710.0 319 272 234 193 190 200 197 184 178 162
1750.0 160 169 151 134 140 139 120 109 107 105
1790.0 116 120 113 124 114 103 116 124 124 124
1830.0 125 119 106 111 118 109 103 91 78 81
1870.0 80 62 58 53 53 54 33 41 45 37
1910.0 24 24 43 36 31 35 37 34 35 26
1950.0 21 27 30 28 22 5 1 15 24 28
1990.0 27 23 29 19 9 14 7 10 6 12
2030.0 25 13 3 12 13 17 21 22 24 28
2070.0 22 22 23 18 23 19 9 1 0 8
2110.0 26 32 19 28 35 40 50 48 69 66
2150.0 52 48 32 33 40 31 19 14 9 14
2190.0 15 18 28 47 46 41 38 26 26 32
2230.0 18 14 30 18 8 17 26 30 22 44
2270.0 63 60 77 87 73 64 72 84 89 96
2310.0 92 87 86 80 73 74 67 67 85 83
2350.0 86 94 125 149 138 125 126 123 94 69
2390.0 55 57 59 49 45 36 30 51 57 51
2430.0 68 71 64 56 72 85 79 93 99 79
2470.0 75 63 59 61 62 70 72 67 75 91
2510.0 95 104 116 111 101 110 116 110 96 94
2550.0 91 83 97 129 149 132 133 132 112 107
2590.0 121 135 137 142 153 157 163 171 166 168
2630.0 173 181 176 179 197 218 231 232 233 268
2670.0 293 296 320 365 403 413 429 451 460 437
2710.0 423 455 479 490 520 560 581 569 570 588
2750.0 602 620 627 619 633 687 705 711 717 698
2790.0 692 688 713 742 779 859 935 1027 1148 1290
2830.0 1458 1671 1919 2163 2475 2848 3237 3646 4048 4428
2870.0 4721 4899 4964 4866 4668 4456 4274 4119 4089 4230
2910.0 4525 4976 5634 6422 7254 8112 8898 9437 9671 9630
2950.0 9318 8767 8050 7243 6366 5404 4493 3685 2982 2408
2990.0 1925 1547 1224 970 772 606 516 469 416 341
3030.0 291 270 238 221 224 206 206 222 198 164
3070.0 144 162 198 196 218 288 373 451 593 793
3110.0 972 1111 1192 1193 1094 925 750 678 657 586
3150.0 496 415 333 250 197 167 152 149 149 123
3190.0 111 113 126 128 101 90 81 105 120 147
3230.0 127 85 87 86 71 35 7 16 53 83
3270.0 81 69 46 36 54 73 81 62 61 67
3310.0 61 80 118 85 39 56 99 138 127 142
3350.0 166 171 183 149 120 119 123 100 72 113
3390.0 137 167 172 137 173 185 177 202 212 192
3430.0 182 179 166 135 132 134 93 86 77 65
3470.0 62 98 116 108 100 47 39 59 91 120
3510.0 78 23 51 95 108 106 80 82 70 65
3550.0 70 56 67 108 113 61 56 74 58 84
3590.0 95 71 83 115 118 108 138 125 64 62
3630.0 82 92 129 141 130 116 89 83 77 68
3670.0 109 136 131 89 105 119 81 83 90 76
3710.0 71 71 46 32 42 84 125 84 81 130
3750.0 125 114 89 62 97 121 82 96 111 86
3790.0 88 99 100 105 99 77 70 83 93 104
3830.0 106 103 109 106 78
##END=
