##TITLE=5,8-Dimethyltetralone
##JCAMP-DX=4.24
##DATA TYPE=INFRARED SPECTRUM
##ORIGIN=NIST Mass Spectrometry Data Center
##OWNER=NIST Standard Reference Data Program
Collection (C) 2018 copyright by the U.S. Secretary of Commerce
on behalf of the United States of America. All rights reserved.
##CAS REGISTRY NO=5037-63-8
##MOLFORM=C 12 H 14 O
##$NIST SOURCE=MSDC-IR
##SPECTROMETER/DATA SYSTEM=HP-GC/MS/IRD
##STATE=gas
##XUNITS=1/CM
##YUNITS=ABSORBANCE
##XFACTOR=1.0
##YFACTOR=0.000003600
##DELTAX=4.0
##FIRSTX=550.0
##LASTX=3846.0
##FIRSTY=0.000511
##MAXX=3846
##MINX=550
##MAXY=0.036
##MINY=0
##NPOINTS=825
##XYDATA=(X++(Y..Y))
550.0 142 176 170 199 271 385 461 494 473 396
590.0 299 243 268 335 398 417 387 315 224 143
630.0 112 108 104 88 63 56 48 17 1 17
670.0 16 20 25 20 26 23 18 25 24 10
710.0 6 4 14 37 46 36 28 25 35 42
750.0 54 72 76 72 55 47 58 66 86 116
790.0 181 330 602 924 1314 1794 1645 1240 1031 744
830.0 535 379 269 199 173 194 238 259 266 295
870.0 330 381 482 574 601 562 449 314 229 193
910.0 185 179 182 189 183 188 204 238 305 400
950.0 473 500 465 393 302 216 166 146 149 162
990.0 182 215 271 350 423 471 482 472 440 426
1030.0 446 496 556 579 557 495 416 352 291 264
1070.0 263 278 298 331 393 457 530 611 691 743
1110.0 729 644 524 402 304 239 209 211 224 236
1150.0 264 333 460 651 879 1124 1335 1388 1268 1034
1190.0 730 466 312 248 227 226 249 281 319 393
1230.0 505 671 958 1409 1987 2588 3048 3242 3181 2966
1270.0 2728 2548 2343 2033 1610 1160 826 644 576 612
1310.0 749 940 1084 1120 1037 855 654 534 495 480
1350.0 464 434 398 367 371 432 556 769 990 1123
1390.0 1135 965 723 568 495 502 582 697 822 931
1430.0 1028 1132 1259 1379 1446 1517 1644 1844 2104 2337
1470.0 2398 2243 1899 1410 945 644 489 407 361 337
1510.0 318 308 307 307 308 305 309 328 366 425
1550.0 516 645 833 1059 1297 1472 1504 1380 1124 823
1590.0 588 449 372 325 305 302 313 322 321 316
1630.0 317 324 346 394 471 573 684 799 924 1072
1670.0 1304 1717 2410 3540 5280 7365 9151 10000 9586 7937
1710.0 5632 3632 2322 1578 1176 942 797 693 602 515
1750.0 440 369 302 251 213 184 160 144 128 112
1790.0 103 93 78 66 60 56 57 58 53 52
1830.0 57 62 69 76 75 68 59 57 58 63
1870.0 72 84 110 132 148 155 144 121 88 58
1910.0 43 37 33 30 25 24 29 32 29 25
1950.0 22 24 29 32 35 33 31 31 32 29
1990.0 29 30 20 8 6 9 10 6 5 8
2030.0 5 5 7 8 10 11 11 15 13 9
2070.0 7 5 9 10 11 15 15 17 17 16
2110.0 19 19 9 0 0 6 7 8 9 7
2150.0 10 6 6 8 7 5 10 14 16 18
2190.0 18 17 12 11 16 12 12 12 8 6
2230.0 4 6 7 9 8 6 8 9 13 18
2270.0 21 24 25 26 25 20 18 19 19 22
2310.0 19 18 14 14 23 28 27 27 35 29
2350.0 22 26 22 20 26 22 16 17 16 16
2390.0 19 21 19 23 27 25 23 20 22 26
2430.0 23 23 27 23 21 24 29 28 28 26
2470.0 25 26 27 29 30 30 29 26 24 21
2510.0 26 33 32 30 32 33 30 31 30 28
2550.0 28 27 24 22 26 26 28 27 21 21
2590.0 30 33 29 34 39 42 43 45 46 47
2630.0 52 49 51 61 65 64 68 72 76 86
2670.0 88 85 82 71 66 74 77 75 75 74
2710.0 68 71 74 74 84 98 108 126 153 177
2750.0 194 192 179 160 141 135 139 138 137 147
2790.0 170 186 192 204 229 263 302 349 402 462
2830.0 529 597 671 761 870 988 1107 1217 1346 1519
2870.0 1754 2005 2195 2233 2127 1973 1839 1737 1682 1667
2910.0 1680 1729 1864 2181 2716 3426 4209 4914 5462 5818
2950.0 5819 5502 4903 4052 3270 2772 2529 2397 2218 1958
2990.0 1673 1396 1197 1102 1090 1117 1158 1177 1143 1075
3030.0 988 921 890 897 948 1042 1133 1171 1122 982
3070.0 769 558 416 322 254 218 199 181 170 162
3110.0 151 153 147 134 129 123 115 109 100 98
3150.0 107 109 103 100 99 97 87 73 68 64
3190.0 61 58 56 50 52 57 51 46 43 41
3230.0 46 40 30 27 30 29 39 53 55 53
3270.0 53 50 51 47 37 36 44 37 31 30
3310.0 36 40 39 42 47 61 57 58 66 71
3350.0 74 76 88 107 127 146 161 158 157 151
3390.0 122 97 93 79 65 59 60 52 46 51
3430.0 50 48 31 18 26 34 27 23 26 30
3470.0 19 17 14 17 30 33 41 31 18 16
3510.0 13 16 30 29 24 19 18 23 20 20
3550.0 21 13 10 22 28 17 6 9 18 24
3590.0 20 6 3 8 10 8 6 18 23 14
3630.0 19 25 16 3 12 20 13 17 17 11
3670.0 5 10 24 19 19 22 19 17 13 20
3710.0 34 33 27 26 26 30 36 27 20 43
3750.0 44 46 49 33 43 41 31 36 39 32
3790.0 21 28 31 40 45 29 29 44 50 52
3830.0 55 43 34 34 36
##END=
