##TITLE=Orcinol
##JCAMP-DX=4.24
##DATA TYPE=INFRARED SPECTRUM
##ORIGIN=NIST Mass Spectrometry Data Center
##OWNER=NIST Standard Reference Data Program
Collection (C) 2018 copyright by the U.S. Secretary of Commerce
on behalf of the United States of America. All rights reserved.
##CAS REGISTRY NO=504-15-4
##MOLFORM=C 7 H 8 O 2
##$NIST SOURCE=MSDC-IR
##SPECTROMETER/DATA SYSTEM=HP-GC/MS/IRD
##STATE=gas
##XUNITS=1/CM
##YUNITS=ABSORBANCE
##XFACTOR=1.0
##YFACTOR=0.000002600
##DELTAX=4.0
##FIRSTX=550.0
##LASTX=3846.0
##FIRSTY=0.000790
##MAXX=3846
##MINX=550
##MAXY=0.026
##MINY=0
##NPOINTS=825
##XYDATA=(X++(Y..Y))
550.0 304 402 246 278 300 334 365 406 462 482
590.0 483 454 404 364 320 270 217 207 164 101
630.0 88 97 67 53 86 163 312 536 775 824
670.0 1294 1936 1363 805 730 508 288 130 42 2
710.0 19 19 11 9 19 26 26 27 17 12
750.0 25 35 41 45 68 68 69 127 203 290
790.0 408 565 764 979 1156 1332 1527 1666 1936 2122
830.0 2067 1894 1615 1486 1401 1148 841 658 525 410
870.0 336 282 245 232 233 266 282 285 290 287
910.0 281 278 274 257 252 278 334 422 593 905
950.0 1313 1721 2050 2299 2455 2377 2080 1801 1501 1140
990.0 914 886 1004 1211 1435 1590 1698 1749 1657 1450
1030.0 1206 981 776 599 488 440 429 431 433 438
1070.0 466 492 518 552 603 703 843 989 1203 1512
1110.0 1919 2523 3354 4345 5413 6570 7797 8923 9705 10000
1150.0 9870 9350 8489 7450 6354 5313 4475 3918 3534 3096
1190.0 2714 2778 3285 3850 4195 4305 4139 3627 2846 2043
1230.0 1453 1095 900 808 770 766 782 825 907 1045
1270.0 1268 1610 2035 2431 2704 2868 2926 2877 2759 2637
1310.0 2561 2540 2567 2632 2697 2716 2672 2593 2446 2161
1350.0 1704 1213 850 625 487 426 383 363 357 364
1390.0 377 388 398 424 458 516 614 741 895 1073
1430.0 1270 1475 1652 1780 1901 2052 2211 2362 2486 2571
1470.0 2607 2602 2549 2468 2430 2449 2490 2527 2512 2417
1510.0 2251 2060 1859 1669 1524 1384 1245 1128 1009 911
1550.0 879 906 1002 1186 1462 1880 2499 3382 4484 5735
1590.0 6973 7983 8666 8970 8838 8359 7809 7338 6901 6379
1630.0 5690 4866 3975 3143 2397 1784 1322 1010 812 692
1670.0 610 549 502 458 407 355 319 285 261 249
1710.0 243 247 252 254 263 272 264 244 221 191
1750.0 160 138 115 95 81 77 68 55 54 48
1790.0 48 48 40 36 29 24 26 28 30 26
1830.0 23 21 21 17 21 27 23 20 23 30
1870.0 25 17 13 10 10 16 20 21 24 25
1910.0 25 26 28 35 27 17 17 17 19 14
1950.0 12 12 13 25 30 28 23 22 15 8
1990.0 8 3 3 9 11 9 14 13 12 10
2030.0 10 10 4 6 8 2 4 8 5 9
2070.0 11 7 11 21 27 32 44 54 62 78
2110.0 85 93 96 79 64 55 57 60 54 58
2150.0 62 57 53 58 65 62 64 71 67 66
2190.0 65 55 48 43 40 37 30 29 21 15
2230.0 17 17 13 7 9 12 13 20 23 27
2270.0 37 35 40 55 56 61 72 76 79 80
2310.0 76 78 78 74 70 66 77 89 89 82
2350.0 83 92 92 85 75 67 67 71 76 78
2390.0 78 81 90 92 87 83 73 64 66 69
2430.0 84 94 90 99 116 125 130 132 137 150
2470.0 151 148 158 165 167 161 146 134 117 104
2510.0 86 65 62 60 51 50 36 28 33 27
2550.0 16 11 14 21 24 14 14 15 16 19
2590.0 17 19 26 27 27 35 38 36 29 24
2630.0 29 25 23 39 27 19 28 23 19 19
2670.0 27 26 18 23 19 19 15 8 14 9
2710.0 1 3 11 23 32 39 50 60 65 67
2750.0 69 71 58 46 44 40 36 36 35 49
2790.0 62 57 57 68 82 83 80 80 92 111
2830.0 121 129 149 174 188 216 270 334 387 431
2870.0 460 487 501 477 439 412 406 409 438 497
2910.0 574 688 829 980 1098 1157 1165 1128 1046 917
2950.0 755 616 519 443 384 346 324 324 344 367
2990.0 399 434 461 508 570 655 755 884 1022 1117
3030.0 1166 1172 1115 999 875 766 686 629 556 480
3070.0 417 349 284 249 227 195 170 153 135 118
3110.0 95 83 74 57 57 51 40 44 27 6
3150.0 4 1 3 10 7 6 5 8 5 6
3190.0 14 10 23 24 13 11 9 23 32 32
3230.0 33 29 22 11 10 23 30 19 23 37
3270.0 31 18 7 0 24 45 43 44 35 43
3310.0 48 41 58 58 52 88 118 117 110 111
3350.0 113 124 131 119 98 88 92 99 95 77
3390.0 79 73 78 77 72 80 81 84 93 105
3430.0 98 75 78 78 67 74 72 71 63 65
3470.0 73 64 48 46 52 58 61 58 55 50
3510.0 45 47 43 48 54 60 74 65 53 63
3550.0 72 68 58 56 60 58 73 83 88 103
3590.0 104 102 116 141 172 204 242 324 464 694
3630.0 1099 1855 3114 4655 5790 6143 6019 5579 4475 2847
3670.0 1459 698 376 249 183 126 93 78 93 92
3710.0 65 54 49 48 43 43 45 45 37 36
3750.0 44 54 75 66 49 35 32 47 46 36
3790.0 31 40 51 54 70 78 72 88 85 72
3830.0 79 72 71 69 79
##END=
