##TITLE=2-Aminopyridine
##JCAMP-DX=4.24
##DATA TYPE=INFRARED SPECTRUM
##ORIGIN=NIST Mass Spectrometry Data Center
##OWNER=NIST Standard Reference Data Program
Collection (C) 2018 copyright by the U.S. Secretary of Commerce
on behalf of the United States of America. All rights reserved.
##CAS REGISTRY NO=504-29-0
##MOLFORM=C 5 H 6 N 2
##$NIST SOURCE=MSDC-IR
##SPECTROMETER/DATA SYSTEM=HP-GC/MS/IRD
##STATE=gas
##XUNITS=1/CM
##YUNITS=ABSORBANCE
##XFACTOR=1.0
##YFACTOR=0.000001400
##DELTAX=4.0
##FIRSTX=550.0
##LASTX=3846.0
##FIRSTY=0.000829
##MAXX=3846
##MINX=550
##MAXY=0.014
##MINY=0
##NPOINTS=825
##XYDATA=(X++(Y..Y))
550.0 592 430 199 87 105 212 398 511 514 419
590.0 453 519 418 295 333 412 374 313 362 315
630.0 249 237 234 265 284 345 330 350 400 436
670.0 516 699 1000 1154 1079 866 688 780 1033 1366
710.0 1872 2119 1709 1185 913 767 822 787 630 545
750.0 502 559 578 516 517 520 513 426 401 416
790.0 332 366 414 478 576 618 827 1073 1174 1102
830.0 958 861 764 720 704 727 830 902 948 1053
870.0 1156 1269 1500 1799 2048 2224 2565 3090 3697 4162
910.0 4254 4054 3685 3328 2828 2194 1689 1442 1245 1010
950.0 989 1063 1085 1097 1092 1148 1122 993 915 831
990.0 736 709 717 623 574 573 549 588 543 415
1030.0 361 407 486 434 304 288 330 362 370 360
1070.0 477 593 608 723 891 1021 1291 1538 1656 1548
1110.0 1089 734 640 608 589 634 584 456 316 231
1150.0 314 602 921 888 531 150 36 8 29 166
1190.0 348 547 810 1180 1698 2295 3022 4184 5397 5449
1230.0 4075 2539 1736 1465 1481 1673 2010 2330 2407 2208
1270.0 1853 1458 1175 1011 891 811 808 799 689 573
1310.0 541 574 674 808 909 934 847 689 569 505
1350.0 439 401 405 383 370 370 372 405 429 428
1390.0 438 437 448 457 453 482 558 602 609 555
1430.0 439 377 351 339 344 353 326 300 308 318
1470.0 334 355 398 450 454 391 317 279 281 269
1510.0 250 259 243 234 277 299 287 268 249 265
1550.0 288 288 293 352 423 472 515 577 628 646
1590.0 670 671 688 724 692 653 625 544 450 406
1630.0 389 347 341 352 360 400 422 454 522 575
1670.0 620 673 778 955 1268 1682 1802 1513 1119 828
1710.0 699 652 611 609 582 519 487 510 531 538
1750.0 584 678 782 976 1325 1850 2550 3382 4199 4945
1790.0 5832 7108 8699 9937 10000 9075 7872 6550 5031 3604
1830.0 2648 2151 1912 1840 1908 2094 2347 2688 3120 3473
1870.0 3500 3107 2516 1976 1560 1250 1045 878 701 552
1910.0 480 433 360 330 305 293 305 310 286 277
1950.0 275 262 275 274 259 262 274 284 271 260
1990.0 256 247 258 283 274 264 258 259 247 205
2030.0 188 197 188 187 190 193 189 181 173 160
2070.0 163 157 143 143 146 165 171 144 146 149
2110.0 138 140 128 115 125 152 159 168 173 173
2150.0 168 170 169 153 157 156 123 110 133 129
2190.0 122 131 115 117 126 120 116 118 105 96
2230.0 123 138 156 155 147 160 150 145 138 98
2270.0 109 120 104 108 94 119 137 114 122 152
2310.0 149 135 145 142 98 80 121 126 135 161
2350.0 150 144 138 116 95 103 123 119 121 121
2390.0 120 110 92 88 89 64 57 90 106 111
2430.0 102 90 75 62 66 63 70 97 87 67
2470.0 113 100 72 74 47 64 100 83 74 104
2510.0 101 82 65 65 60 80 79 62 98 80
2550.0 62 86 60 39 73 95 102 73 69 75
2590.0 36 47 81 71 54 53 37 52 62 37
2630.0 8 26 81 76 53 56 57 84 106 79
2670.0 48 58 57 41 61 80 39 50 62 48
2710.0 64 94 108 87 78 99 87 65 85 72
2750.0 61 115 113 73 126 115 109 115 68 97
2790.0 140 172 164 146 120 110 118 109 86 81
2830.0 96 115 106 80 73 82 112 83 51 73
2870.0 104 126 137 105 136 157 115 135 130 103
2910.0 109 96 87 109 108 100 86 101 128 106
2950.0 89 80 90 123 126 107 60 82 97 83
2990.0 106 110 100 102 132 143 142 117 67 63
3030.0 110 123 116 137 146 139 103 88 156 169
3070.0 118 99 155 158 132 160 111 86 158 168
3110.0 141 127 130 127 131 156 173 168 147 121
3150.0 155 161 99 112 151 170 133 90 125 151
3190.0 131 119 145 102 114 163 133 68 96 161
3230.0 161 155 132 165 207 158 125 113 86 76
3270.0 80 138 139 141 171 106 113 144 73 52
3310.0 112 182 165 106 60 39 68 122 99 107
3350.0 102 34 75 188 201 135 88 82 97 115
3390.0 122 82 56 116 97 50 74 54 30 26
3430.0 0 44 140 164 130 102 68 94 136 132
3470.0 100 97 121 102 153 194 108 42 44 17
3510.0 11 75 120 121 72 111 127 106 117 128
3550.0 62 49 140 75 3 90 162 95 53 107
3590.0 88 32 66 118 167 199 140 90 157 170
3630.0 196 242 193 205 180 155 186 155 81 65
3670.0 113 168 187 95 109 163 131 101 91 144
3710.0 181 110 23 40 66 57 119 137 65 30
3750.0 80 133 131 111 72 21 65 68 72 124
3790.0 116 94 90 98 89 62 61 124 179 153
3830.0 124 102 48 86 95
##END=
