##TITLE=2,6,11,15-Tetramethylhexadecane
##JCAMP-DX=4.24
##DATA TYPE=INFRARED SPECTRUM
##ORIGIN=NIST Mass Spectrometry Data Center
##OWNER=NIST Standard Reference Data Program
Collection (C) 2018 copyright by the U.S. Secretary of Commerce
on behalf of the United States of America. All rights reserved.
##CAS REGISTRY NO=504-44-9
##MOLFORM=C 20 H 42
##$NIST SOURCE=MSDC-IR
##SPECTROMETER/DATA SYSTEM=HP-GC/MS/IRD
##STATE=gas
##XUNITS=1/CM
##YUNITS=ABSORBANCE
##XFACTOR=1.0
##YFACTOR=0.000004700
##DELTAX=4.0
##FIRSTX=550.0
##LASTX=3846.0
##FIRSTY=0.000818
##MAXX=3846
##MINX=550
##MAXY=0.047
##MINY=0
##NPOINTS=825
##XYDATA=(X++(Y..Y))
550.0 174 105 73 80 70 65 68 67 48 30
590.0 28 38 47 39 23 24 18 16 14 30
630.0 51 35 16 25 36 40 28 20 21 14
670.0 3 1 22 45 29 15 43 61 43 51
710.0 86 92 86 117 143 131 144 151 107 86
750.0 90 67 67 84 62 57 75 55 54 81
790.0 68 64 65 50 67 76 73 78 67 72
830.0 85 84 81 79 76 75 75 65 60 68
870.0 69 62 57 56 55 62 74 80 87 92
910.0 97 111 127 134 134 135 134 133 126 116
950.0 111 103 101 108 116 119 119 116 108 104
990.0 103 96 94 92 97 102 102 108 104 97
1030.0 100 100 98 98 95 98 94 86 77 64
1070.0 55 58 54 44 44 49 55 61 65 71
1110.0 75 76 75 85 95 106 124 147 172 191
1150.0 215 231 246 279 301 286 252 201 158 146
1190.0 145 142 144 149 155 155 144 133 137 141
1230.0 129 121 124 129 131 130 122 117 128 147
1270.0 160 162 162 163 176 184 182 183 193 215
1310.0 231 243 253 268 294 320 352 393 412 422
1350.0 451 506 588 675 757 862 964 1039 1061 1009
1390.0 839 609 430 313 255 230 233 255 253 253
1430.0 284 358 448 543 683 840 1047 1248 1353 1363
1470.0 1259 1045 775 554 432 353 281 235 199 207
1510.0 198 155 146 141 114 95 91 99 110 96
1550.0 79 86 109 83 55 53 54 55 43 42
1590.0 45 51 51 47 49 52 60 63 64 64
1630.0 63 76 71 66 81 97 102 76 68 74
1670.0 81 88 83 99 100 74 82 103 97 77
1710.0 65 81 88 65 53 72 90 72 63 73
1750.0 84 72 60 61 66 72 61 51 60 60
1790.0 60 61 56 58 50 49 49 45 48 52
1830.0 51 45 46 59 62 47 38 41 43 49
1870.0 52 43 39 38 39 40 40 38 34 33
1910.0 32 35 45 42 35 32 29 34 42 39
1950.0 33 32 34 36 40 37 32 34 32 32
1990.0 38 38 33 31 32 34 38 37 37 39
2030.0 37 36 37 41 42 35 35 39 39 38
2070.0 38 37 34 33 37 39 35 36 40 40
2110.0 37 35 37 34 36 40 37 36 37 40
2150.0 41 38 37 38 38 39 40 39 39 42
2190.0 38 35 36 37 36 38 38 37 40 41
2230.0 40 37 39 40 40 42 42 41 44 45
2270.0 42 42 40 36 35 35 36 33 25 17
2310.0 11 2 1 1 1 1 1 1 1 1
2350.0 1 1 1 1 1 1 1 10 25 37
2390.0 42 47 49 45 44 46 46 45 45 47
2430.0 47 50 51 49 44 45 47 46 44 45
2470.0 48 46 46 47 45 45 48 52 51 53
2510.0 54 54 56 57 60 62 59 61 67 67
2550.0 65 68 68 70 75 80 82 87 95 97
2590.0 100 101 104 107 110 115 118 118 119 121
2630.0 122 122 122 124 120 119 121 123 122 128
2670.0 132 136 142 137 138 149 147 146 153 160
2710.0 164 172 183 196 207 211 216 214 204 198
2750.0 197 199 207 211 218 228 235 246 261 281
2790.0 304 322 350 383 417 456 501 552 611 684
2830.0 777 910 1112 1421 1877 2458 3000 3359 3560 3714
2870.0 3935 4246 4484 4441 4231 4127 4276 4698 5328 6011
2910.0 6563 6982 7474 8189 9072 9812 10000 9473 8487 7557
2950.0 7169 7603 8680 9559 9254 7637 5469 3627 2448 1748
2990.0 1313 1026 827 687 575 493 434 386 342 309
3030.0 291 277 257 240 228 220 209 203 202 196
3070.0 192 185 178 177 175 170 159 150 147 146
3110.0 143 132 124 126 129 130 132 133 132 133
3150.0 132 134 134 133 137 137 129 125 124 125
3190.0 120 111 101 95 97 91 78 78 78 67
3230.0 63 59 52 52 55 56 56 54 50 49
3270.0 50 52 54 49 48 44 47 49 48 53
3310.0 47 40 47 52 55 54 52 53 47 45
3350.0 49 43 37 38 38 39 45 50 46 37
3390.0 37 45 45 37 30 26 34 28 21 28
3430.0 29 28 26 21 18 16 22 27 18 9
3470.0 8 10 10 12 13 7 3 9 13 10
3510.0 9 6 9 16 17 14 13 9 15 29
3550.0 17 0 4 16 40 35 9 9 16 36
3590.0 34 21 12 2 17 37 30 27 18 27
3630.0 39 16 8 12 27 41 30 20 6 8
3670.0 28 37 26 10 14 16 7 7 4 3
3710.0 28 37 21 23 22 21 52 45 46 58
3750.0 40 20 4 7 10 8 6 6 11 5
3790.0 1 2 12 23 20 11 18 29 21 3
3830.0 7 24 37 31 18
##END=
