##TITLE=Vinclozolin
##JCAMP-DX=4.24
##DATA TYPE=INFRARED SPECTRUM
##ORIGIN=NIST Mass Spectrometry Data Center
##OWNER=NIST Standard Reference Data Program
Collection (C) 2018 copyright by the U.S. Secretary of Commerce
on behalf of the United States of America. All rights reserved.
##CAS REGISTRY NO=50471-44-8
##MOLFORM=C 12 H 9 Cl 2 N O 3
##$NIST SOURCE=MSDC-IR
##SPECTROMETER/DATA SYSTEM=HP-GC/MS/IRD
##STATE=gas
##XUNITS=1/CM
##YUNITS=ABSORBANCE
##XFACTOR=1.0
##YFACTOR=0.000006900
##DELTAX=4.0
##FIRSTX=550.0
##LASTX=3846.0
##FIRSTY=0.000290
##MAXX=3846
##MINX=550
##MAXY=0.069
##MINY=0
##NPOINTS=825
##XYDATA=(X++(Y..Y))
550.0 42 5 0 9 10 24 45 51 86 103
590.0 106 113 100 93 87 89 108 142 219 368
630.0 576 749 771 642 482 364 317 387 545 618
670.0 496 316 200 152 130 124 132 132 149 179
710.0 219 283 343 398 463 600 918 1301 1369 1016
750.0 601 384 285 243 251 266 258 224 207 239
790.0 306 466 758 1129 1414 1393 1067 688 471 390
830.0 363 351 340 350 438 624 846 949 811 589
870.0 445 353 286 221 173 150 149 146 138 144
910.0 150 163 183 199 236 317 453 670 876 902
950.0 758 584 449 360 310 296 299 320 362 394
990.0 388 334 268 242 245 265 306 360 407 452
1030.0 524 629 729 773 717 574 434 353 311 300
1070.0 309 344 402 474 566 659 762 892 1000 1037
1110.0 1004 959 959 1012 1101 1210 1349 1505 1595 1608
1150.0 1551 1458 1369 1298 1280 1344 1491 1741 2046 2235
1190.0 2169 1918 1703 1680 1863 2191 2488 2561 2391 2118
1230.0 1870 1660 1451 1204 940 740 608 520 461 422
1270.0 401 391 383 374 362 341 322 317 320 332
1310.0 340 345 357 381 418 470 540 627 747 913
1350.0 1144 1485 2006 2734 3543 4084 4199 4174 4055 3479
1390.0 2606 2013 1727 1520 1416 1511 1748 1987 2158 2317
1430.0 2616 3092 3667 4209 4524 4283 3373 2188 1337 874
1470.0 635 498 425 377 337 307 289 275 266 264
1510.0 277 293 300 304 314 331 341 342 345 369
1550.0 418 510 687 1013 1519 2213 2904 3298 3223 2912
1590.0 2598 2159 1564 1040 732 571 468 386 316 263
1630.0 230 219 219 214 194 171 153 147 150 152
1670.0 154 154 154 159 166 174 184 198 222 244
1710.0 264 292 338 404 483 576 690 835 1044 1373
1750.0 1908 2765 4108 6102 8427 10000 9637 7511 4987 3106
1790.0 1982 1348 990 797 721 727 807 977 1267 1701
1830.0 2292 2925 3352 3326 2868 2235 1656 1222 923 723
1870.0 586 487 415 367 320 275 238 205 180 158
1910.0 144 135 124 113 103 96 89 88 88 87
1950.0 88 89 88 86 82 75 69 66 60 57
1990.0 55 51 49 46 48 49 44 38 38 39
2030.0 40 40 40 37 36 41 44 48 54 60
2070.0 64 72 78 77 74 68 61 56 49 46
2110.0 42 35 32 28 28 29 30 28 28 30
2150.0 28 29 32 29 26 26 27 28 28 29
2190.0 30 29 30 37 36 35 41 45 48 52
2230.0 56 61 61 61 64 66 61 55 56 52
2270.0 45 43 43 40 38 37 34 32 26 22
2310.0 25 32 32 30 32 34 30 27 27 28
2350.0 26 26 25 23 24 27 31 34 37 42
2390.0 49 50 49 54 56 50 45 43 40 35
2430.0 30 28 27 30 29 29 27 26 23 24
2470.0 25 24 23 25 28 26 29 30 25 27
2510.0 29 28 29 28 29 26 22 21 17 13
2550.0 16 21 21 14 10 13 16 20 20 18
2590.0 15 16 22 25 20 18 20 16 13 16
2630.0 16 13 11 14 15 17 15 15 12 13
2670.0 15 15 14 13 13 16 16 14 11 12
2710.0 15 13 8 5 10 11 8 11 11 2
2750.0 2 12 18 12 6 4 6 8 8 9
2790.0 10 11 15 13 13 16 21 21 17 21
2830.0 23 17 19 27 24 18 18 21 27 35
2870.0 41 43 49 51 50 45 36 32 30 29
2910.0 27 29 37 42 42 54 73 98 134 155
2950.0 131 86 62 57 54 62 65 79 111 178
2990.0 307 408 377 272 199 145 100 82 77 88
3030.0 105 111 96 66 48 44 37 35 39 43
3070.0 43 39 42 53 62 80 102 125 165 189
3110.0 163 117 95 81 75 67 50 46 55 63
3150.0 63 55 49 46 46 41 37 29 25 23
3190.0 22 24 19 15 17 23 18 20 21 16
3230.0 14 12 17 22 18 15 15 16 22 22
3270.0 18 15 9 6 14 19 14 8 9 8
3310.0 8 11 6 5 3 12 17 15 12 14
3350.0 19 7 3 10 8 6 10 10 13 10
3390.0 3 7 6 4 7 3 10 15 15 7
3430.0 1 1 7 11 6 11 9 10 15 7
3470.0 8 15 9 8 18 16 16 16 7 11
3510.0 25 27 31 36 35 35 39 42 52 51
3550.0 39 37 37 36 32 33 37 35 31 33
3590.0 36 40 48 55 53 49 43 37 35 26
3630.0 12 19 26 29 26 23 25 28 40 38
3670.0 30 35 42 36 28 28 27 25 19 18
3710.0 17 18 16 12 20 22 18 19 14 10
3750.0 7 6 16 18 21 22 22 27 17 5
3790.0 14 25 21 17 19 19 9 6 9 15
3830.0 23 19 19 25 22
##END=
