##TITLE=6-Cyano-1-hexene
##JCAMP-DX=4.24
##DATA TYPE=INFRARED SPECTRUM
##ORIGIN=EPA-IR VAPOR PHASE LIBRARY
##OWNER=SRD/NIST
Collection (C) 2018 copyright by the U.S. Secretary of Commerce
on behalf of the United States of America. All rights reserved.
##CAS REGISTRY NO=5048-25-9
##MOLFORM=C 7 H 11 N
##$NIST SOURCE=MSDC-IR
##STATE=gas
##XUNITS=1/CM
##YUNITS=ABSORBANCE
##XFACTOR=1.
##YFACTOR=0.001
##DELTAX=1.929
##FIRSTX=549.8
##LASTX=4000.8
##FIRSTY=0.72177
##MAXX=4000.75
##MINX=549.766
##MAXY=0.027132
##MINY=0
##NPOINTS=1790
##XYDATA=(X++(Y..Y))
549.766 0.72177 0.6494 0.302 0.6412 0.9892 1.0986 0.9813 0.8821 0.8962 0.6212
569.056 0.71874 1.0161 0.9043 0.6375 0.394 0.472 0.6655 0.9027 0.9457 0.6648
588.346 0.636 0.8159 0.6238 0.533 0.579 0.8365 0.9494 0.8661 1.0712 1.3463
607.636 1.3883 1.4209 1.5188 1.4984 1.6161 1.812 1.912 1.862 1.892 1.912
626.926 1.882 2.002 2.162 2.152 1.982 1.972 2.092 1.962 1.762 1.6558
646.216 1.4932 1.4791 1.4969 1.3376 1.3277 1.5526 1.4847 1.2299 1.1712 1.2559
665.506 1.1724 0.9763 1.0108 1.1129 1.0687 1.0457 1.1505 1.0761 0.8256 0.6134
684.796 0.564 0.72249 1.008 0.9747 0.8319 0.942 1.0012 1.0034 1.0074 0.9885
704.086 0.9961 1.103 1.2461 1.3216 1.3302 1.2406 1.2209 1.3672 1.3648 1.1686
723.376 1.2565 1.3128 1.3446 1.6044 1.6399 1.5527 1.5352 1.4873 1.6112 1.6905
742.666 1.6472 1.5922 1.466 1.5074 1.397 1.3374 1.4215 1.4602 1.2402 1.2136
761.956 1.3239 1.1711 1.1774 1.0811 1.0413 1.1107 1.1631 1.1819 1.0416 0.9555
781.246 0.9851 1.016 1.0183 1.0026 1.095 1.1938 1.014 0.9311 1.0139 1.11
800.536 1.273 1.3153 1.1948 1.2285 1.1876 1.0427 1.1522 1.2998 1.1607 0.9467
819.826 1.2173 1.3699 1.2597 1.3606 1.4528 1.3244 1.322 1.3995 1.4028 1.4401
839.116 1.4611 1.5161 1.5491 1.5429 1.5969 1.657 1.722 1.722 1.5974 1.6616
858.406 1.812 1.832 1.962 2.112 2.092 2.082 2.132 2.182 2.192 2.262
877.696 2.402 2.542 2.692 2.892 3.172 3.372 3.412 3.692 4.132 4.572
896.986 5.002 5.532 6.152 6.752 7.502 8.372 9.302 10.222 11.102 11.722
916.276 12.032 12.212 12.112 11.782 11.382 10.712 9.812 8.832 7.832 6.912
935.566 6.182 5.582 5.072 4.772 4.422 4.042 3.862 3.742 3.612 3.472
954.856 3.442 3.402 3.232 3.092 3.072 3.102 3.192 3.342 3.402 3.562
974.146 3.882 4.082 4.292 4.652 4.942 5.272 5.652 5.882 6.042 6.232
993.436 6.302 6.202 6.132 5.962 5.592 5.182 4.762 4.312 3.942 3.712
1012.726 3.532 3.282 2.972 2.782 2.732 2.742 2.542 2.302 2.372 2.272
1032.016 2.052 2.022 2.042 2.042 1.972 1.922 1.972 1.942 1.802 1.712
1051.306 1.702 1.6673 1.64 1.5976 1.5881 1.5607 1.5123 1.4889 1.4302 1.3555
1070.596 1.3782 1.3917 1.3518 1.4253 1.5042 1.4279 1.3053 1.2936 1.3715 1.3654
1089.886 1.2213 1.2126 1.2106 1.0938 1.066 1.1347 1.0713 1.0307 1.1683 1.2704
1109.176 1.2074 1.0684 1.093 1.1342 1.1799 1.2415 1.1879 1.1122 1.0845 1.153
1128.467 1.1782 1.081 1.0561 1.0775 0.9902 1.0316 1.1148 0.9099 0.8369 0.8689
1147.757 0.74153 0.8336 0.9233 0.8445 0.8643 0.9089 0.8964 0.904 0.8956 0.9127
1167.047 0.9873 1.0867 1.1228 1.1015 1.101 1.0594 1.0833 1.1189 1.2006 1.1714
1186.337 0.9904 0.9968 0.9262 0.8543 0.8941 0.868 0.9962 0.9729 0.9721 1.0956
1205.627 1.1186 1.0945 1.0953 0.9997 0.905 0.8832 0.8105 0.9116 0.9756 0.9091
1224.917 0.9 0.9474 0.9816 0.9503 0.8557 0.8425 0.8567 0.9236 1.0008 0.9534
1244.207 0.9192 0.9906 1.019 0.9392 1.0453 1.1884 1.1467 1.1159 1.1063 1.214
1263.497 1.3122 1.326 1.3226 1.3024 1.296 1.371 1.4556 1.4356 1.4659 1.5318
1282.787 1.4772 1.4645 1.5491 1.4881 1.4442 1.5454 1.625 1.684 1.712 1.722
1302.077 1.6855 1.702 1.812 1.832 1.872 1.912 1.912 1.962 2.012 2.072
1321.367 2.142 2.222 2.282 2.282 2.262 2.262 2.282 2.352 2.402 2.412
1340.657 2.402 2.362 2.322 2.392 2.412 2.362 2.362 2.362 2.332 2.232
1359.947 2.172 2.152 2.062 1.942 1.802 1.6704 1.5975 1.5987 1.5586 1.5387
1379.237 1.5014 1.4619 1.5021 1.507 1.5302 1.5741 1.5689 1.6011 1.6858 1.722
1398.527 1.762 1.932 2.012 2.052 2.192 2.292 2.472 2.682 2.892 3.082
1417.817 3.252 3.522 3.902 4.232 4.572 4.992 5.322 5.672 6.082 6.422
1437.107 6.652 6.812 6.962 7.042 6.972 6.842 6.772 6.712 6.502 6.302
1456.397 6.042 5.782 5.642 5.392 4.972 4.542 4.222 3.902 3.582 3.292
1475.687 3.012 2.722 2.542 2.342 2.032 1.922 1.802 1.5758 1.5351 1.5487
1494.977 1.409 1.3132 1.2612 1.1704 1.1973 1.1057 0.9932 1.1231 1.1785 1.1641
1514.267 1.1561 1.0483 1.0858 1.1128 1.0503 1.0652 1.0276 1.0727 1.0769 1.0143
1533.557 0.9991 1.0365 1.0511 0.9171 0.8943 1.0482 1.1065 1.0643 1.0666 1.0774
1552.847 1.0408 0.9851 0.944 0.8404 0.9163 1.0455 1.0372 0.9605 0.9203 1.0008
1572.137 1.0575 1.022 0.969 0.9846 1.0206 1.0318 1.0385 1.1328 1.1446 1.0378
1591.427 1.006 1.075 1.1446 1.2162 1.2404 1.2554 1.2633 1.3095 1.4145 1.4406
1610.717 1.5579 1.6642 1.6522 1.802 2.012 2.162 2.302 2.532 2.852 3.162
1630.007 3.542 3.972 4.272 4.592 4.912 5.092 5.112 4.972 4.732 4.522
1649.297 4.232 3.692 3.102 2.692 2.322 2.062 1.862 1.5952 1.4813 1.3133
1668.587 1.1133 1.1344 1.1829 1.1163 1.0692 1.0246 1.0047 0.9516 0.76099 0.685
1687.877 0.8324 0.9628 0.9334 0.8316 0.79954 0.832 0.77205 0.75325 0.8224 0.79871
1707.167 0.77369 0.78707 0.8339 0.77702 0.73679 0.6872 0.6605 0.76566 0.73715 0.7468
1726.457 0.839 0.8155 0.78419 0.72798 0.615 0.704318 0.74371 0.69949 0.76866 0.78957
1745.747 0.79227 0.7573 0.71466 0.708733 0.71284 0.74464 0.76612 0.80142 0.8113 0.823
1765.037 0.8621 0.76098 0.6434 0.6855 0.714 0.77147 0.8638 0.9211 0.8887 0.8533
1784.327 0.8424 0.8426 0.8519 0.79414 0.78018 0.8134 0.8613 0.8752 0.8437 0.9208
1803.617 0.9897 0.9679 0.988 1.0268 1.0352 1.0337 1.0548 1.1175 1.2153 1.3398
1822.907 1.3813 1.3984 1.5464 1.6436 1.732 1.902 1.952 1.872 1.822 1.822
1842.197 1.812 1.782 1.772 1.6974 1.5682 1.417 1.3424 1.3194 1.254 1.1732
1861.487 1.0777 1.0377 1.0209 0.9713 0.9245 0.9752 0.9753 0.9244 0.9296 0.9408
1880.777 0.9009 0.8497 0.8996 0.9142 0.8806 0.8985 0.8759 0.8211 0.8622 0.8785
1900.067 0.8652 0.8842 0.9034 0.8898 0.8421 0.77632 0.7383 0.8402 0.8864 0.8087
1919.357 0.8209 0.8495 0.79474 0.79041 0.78646 0.75073 0.78271 0.8222 0.8155 0.8256
1938.647 0.8886 0.8812 0.8307 0.8702 0.8493 0.8116 0.8216 0.825 0.8596 0.8898
1957.937 0.8822 0.8465 0.8922 0.9175 0.869 0.891 0.9164 0.9127 0.9513 0.9425
1977.227 0.9364 0.9537 0.9471 0.9278 0.8858 0.8577 0.8703 0.8811 0.8455 0.8328
1996.517 0.8424 0.8623 0.8529 0.8749 0.9102 0.863 0.8704 0.8418 0.7958 0.8367
2015.807 0.8339 0.8163 0.825 0.8745 0.8975 0.8942 0.8456 0.8307 0.8536 0.8226
2035.097 0.8836 0.9146 0.8771 0.8522 0.8081 0.8167 0.846 0.8488 0.8467 0.832
2054.387 0.852 0.806 0.8081 0.8544 0.8244 0.8744 0.9187 0.8674 0.8073 0.8076
2073.677 0.8423 0.8675 0.868 0.874 0.8817 0.8475 0.8067 0.8144 0.8336 0.8258
2092.967 0.76031 0.8087 0.878 0.8344 0.8451 0.8456 0.8594 0.8771 0.8725 0.8989
2112.257 0.9156 0.8915 0.824 0.78221 0.8303 0.8481 0.76853 0.77917 0.8552 0.8527
2131.547 0.8645 0.8772 0.8754 0.8366 0.79287 0.8029 0.80072 0.8659 0.8967 0.8321
2150.837 0.8153 0.8187 0.8536 0.8745 0.8584 0.9027 0.9286 0.889 0.8867 0.8832
2170.127 0.8541 0.8314 0.805 0.8125 0.8571 0.8676 0.8728 0.8841 0.8475 0.8407
2189.417 0.8578 0.8046 0.78721 0.8322 0.8507 0.8876 0.8779 0.8952 0.9042 0.8572
2208.707 0.8319 0.8311 0.88 0.908 0.8671 0.8706 0.8852 0.9203 0.9928 1.0162
2227.997 1.1405 1.2229 1.2284 1.2624 1.2803 1.314 1.4634 1.6311 1.6677 1.712
2247.287 1.792 1.812 1.792 1.802 1.762 1.772 1.712 1.5632 1.4839 1.4179
2266.577 1.3712 1.267 1.1724 1.1528 1.1305 1.0782 1.0344 1.0416 0.9579 0.9019
2285.868 0.9318 0.937 0.9774 0.9574 0.9372 0.9548 0.9454 0.912 0.9134 0.8961
2305.158 0.9007 0.9327 0.8543 0.8324 0.8559 0.8023 0.813 0.8638 0.8103 0.80123
2324.448 0.9435 0.9839 0.9573 0.9391 0.8435 0.8409 0.8872 0.8547 0.8327 0.8489
2343.738 0.8421 0.78246 0.76792 0.8244 0.8625 0.8384 0.8032 0.8436 0.77618 0.79815
2363.028 0.8837 0.8459 0.8282 0.8327 0.8823 0.8658 0.8812 0.9374 0.9108 0.8231
2382.318 0.8052 0.79273 0.8052 0.8657 0.8761 0.8521 0.8145 0.77845 0.7427 0.79032
2401.608 0.803 0.8117 0.8099 0.72709 0.71489 0.7867 0.77225 0.71846 0.8145 0.898
2420.898 0.8497 0.80186 0.8114 0.833 0.8469 0.8829 0.8606 0.76224 0.8318 0.8368
2440.188 0.75829 0.8176 0.8308 0.8695 0.8584 0.8049 0.8321 0.8736 0.8682 0.849
2459.478 0.8591 0.8757 0.8961 0.8937 0.8546 0.7786 0.8028 0.9155 0.927 0.8644
2478.768 0.8343 0.8688 0.9179 0.8547 0.8311 0.8298 0.8116 0.865 0.9053 0.9095
2498.058 0.8932 0.8731 0.8861 0.8789 0.8868 0.8782 0.8405 0.8799 0.888 0.891
2517.348 0.8221 0.8093 0.8811 0.8928 0.8801 0.8717 0.8763 0.79984 0.8337 0.8728
2536.638 0.8644 0.9225 0.8654 0.8673 0.9139 0.79326 0.8059 0.8748 0.8419 0.8338
2555.928 0.8817 0.8493 0.8358 0.9148 0.8445 0.8154 0.8787 0.9121 0.9363 0.9851
2575.218 0.9257 0.8387 0.865 0.9192 0.9789 1.0409 1.0197 0.9788 0.9707 0.8991
2594.508 0.8578 0.9564 1.0245 0.9817 1.0203 1.108 1.0915 1.0228 0.9553 0.9802
2613.798 0.9558 0.9 0.9673 1.0303 0.9761 0.954 0.9415 0.9491 0.9407 0.9016
2633.088 0.9539 0.9893 0.9688 0.9139 0.9088 1.0154 1.0672 1.0149 1.0993 1.1878
2652.378 1.1182 1.0469 1.0705 1.0908 1.0921 1.0139 0.972 1.0413 1.0846 1.1694
2671.668 1.1295 1.0728 1.0921 0.9639 0.967 1.0055 0.9831 1.0318 1.026 1.01
2690.958 1.0404 1.0554 1.0347 1.0383 1.1035 1.1004 1.1048 1.1297 1.0478 0.9834
2710.248 0.9761 1.0228 1.0862 1.0582 1.0992 1.0467 0.9782 1.0612 1.0092 1.0124
2729.538 1.079 1.0275 0.9452 0.9693 1.0054 1.0291 1.0825 1.0556 1.0506 1.0915
2748.828 1.0759 0.9969 0.9459 0.9796 1.0451 1.1265 1.0956 1.0404 1.1093 1.145
2768.118 1.1509 1.1787 1.2038 1.1645 1.1937 1.1913 1.1971 1.3379 1.332 1.3707
2787.408 1.294 1.1934 1.3083 1.339 1.264 1.2737 1.3681 1.4401 1.4736 1.4154
2806.698 1.4164 1.5781 1.595 1.5253 1.6372 1.822 2.022 2.142 2.102 2.132
2825.988 2.242 2.352 2.512 2.722 2.952 3.162 3.392 3.782 4.172 4.582
2845.278 5.002 5.302 5.692 6.102 6.542 6.992 7.342 7.752 8.162 8.422
2864.568 8.662 9.002 9.252 9.342 9.422 9.412 9.422 9.372 9.202 9.002
2883.858 8.812 8.582 8.322 8.212 8.112 8.172 8.242 8.292 8.572 8.922
2903.148 9.342 9.782 10.232 10.842 11.602 12.372 13.162 14.152 15.252 16.282
2922.438 17.222 18.152 19.162 20.292 21.432 22.462 23.412 24.302 25.132 25.762
2941.728 26.302 26.822 27.132 27.132 26.932 26.512 25.772 25.012 24.372 23.392
2961.018 22.042 20.632 19.262 17.752 16.252 14.972 13.752 12.532 11.382 10.622
2980.308 9.952 9.292 8.772 8.332 7.972 7.722 7.422 7.132 7.002 6.612
2999.598 6.342 6.372 6.232 5.982 5.722 5.442 5.242 5.082 4.792 4.542
3018.888 4.432 4.072 3.702 3.492 3.232 3.042 2.912 2.732 2.692 2.732
3038.178 2.682 2.612 2.472 2.472 2.612 2.602 2.592 2.672 2.782 2.982
3057.468 3.082 3.252 3.492 3.572 3.812 4.082 4.382 4.672 4.892 5.332
3076.758 5.812 6.272 6.702 6.912 7.012 7.032 6.842 6.812 6.662 6.352
3096.048 5.992 5.252 4.482 3.922 3.392 2.942 2.612 2.292 2.062 1.752
3115.338 1.6299 1.5876 1.4258 1.3505 1.2487 1.2303 1.2448 1.0385 1.0066 1.2021
3134.628 1.2667 1.153 0.9494 0.8531 0.9702 1.1014 1.0142 0.9365 0.9325 1.0163
3153.918 1.0467 0.9211 0.8205 0.74639 0.7635 0.8364 0.8097 0.78548 0.6787 0.74969
3173.208 0.9158 0.8311 0.77691 0.8432 0.78207 0.6758 0.6707 0.69849 0.77343 0.71442
3192.498 0.73729 0.6498 0.527 0.548 0.478 0.412 0.533 0.70037 0.596 0.6546
3211.788 0.75488 0.586 0.564 0.568 0.489 0.476 0.534 0.6489 0.562 0.494
3231.078 0.555 0.579 0.6454 0.6914 0.535 0.506 0.677 0.73133 0.75083 0.56
3250.368 0.484 0.6902 0.69598 0.595 0.511 0.372 0.488 0.456 0.401 0.506
3269.658 0.364 0.273 0.362 0.499 0.47 0.438 0.405 0.335 0.389 0.553
3288.948 0.69697 0.687 0.6739 0.6091 0.6541 0.6156 0.527 0.508 0.417 0.513
3308.238 0.6292 0.606 0.522 0.475 0.398 0.392 0.507 0.525 0.568 0.6711
3327.528 0.594 0.534 0.57 0.33 0.376 0.575 0.462 0.369 0.357 0.449
3346.818 0.6141 0.6054 0.446 0.403 0.457 0.537 0.429 0.416 0.576 0.523
3366.108 0.404 0.297 0.32 0.39 0.39 0.357 0.405 0.497 0.356 0.289
3385.398 0.405 0.487 0.572 0.497 0.314 0.316 0.377 0.342 0.439 0.445
3404.688 0.436 0.597 0.595 0.6298 0.566 0.393 0.22 0.204 0.215 0.329
3423.978 0.501 0.373 0.384 0.461 0.517 0.6245 0.57 0.337 0.331 0.484
3443.269 0.404 0.238 0.267 0.428 0.373 0.348 0.433 0.471 0.459 0.32
3462.559 0.32 0.421 0.418 0.314 0.227 0.273 0.329 0.36 0.45 0.6041
3481.849 0.597 0.431 0.239 0.272 0.368 0.314 0.312 0.329 0.263 0.204
3501.139 0.318 0.211 0.209 0.34 0.415 0.469 0.323 0.349 0.404 0.227
3520.429 0.205 0.311 0.243 0.196 0.303 0.375 0.345 0.321 0.269 0.318
3539.719 0.425 0.313 0.25 0.269 0.339 0.386 0.275 0.158 0.226 0.315
3559.009 0.156 0.158 0.347 0.494 0.466 0.355 0.45 0.485 0.425 0.452
3578.299 0.485 0.461 0.43 0.432 0.379 0.291 0.27 0.382 0.307 0.285
3597.589 0.35 0.27 0.296 0.303 0.216 0.211 0.366 0.499 0.422 0.315
3616.879 0.222 0.162 0.134 0.251 0.358 0.212 0.242 0.332 0.354 0.346
3636.169 0.335 0.525 0.6142 0.428 0.292 0.133 0.06 0.187 0.479 0.526
3655.459 0.426 0.527 0.564 0.446 0.334 0.376 0.257 0.256 0.216 0.135
3674.749 0.29 0.358 0.369 0.387 0.224 0.168 0.376 0.355 0.341 0.435
3694.039 0.275 0.254 0.356 0.346 0.315 0.066 0.008 0.237 0.214 0.375
3713.329 0.487 0.43 0.6105 0.48 0.117 0.064 0.41 0.6409 0.494 0.294
3732.619 0.331 0.388 0.371 0.361 0.354 0.398 0.407 0.317 0.136 0.101
3751.909 0.229 0.35 0.385 0.375 0.411 0.287 0.316 0.465 0.456 0.484
3771.199 0.516 0.562 0.57 0.349 0.411 0.515 0.322 0.299 0.433 0.495
3790.489 0.473 0.526 0.563 0.49 0.268 0.094 0.073 0.183 0.312 0.273
3809.779 0.303 0.389 0.401 0.363 0.239 0.252 0.334 0.431 0.466 0.364
3829.069 0.319 0.319 0.247 0.026 0 0.199 0.135 0.089 0.221 0.416
3848.359 0.43 0.327 0.189 0.125 0.252 0.334 0.244 0.277 0.47 0.419
3867.649 0.34 0.511 0.48 0.141 0.142 0.311 0.418 0.545 0.501 0.339
3886.939 0.299 0.429 0.442 0.465 0.538 0.477 0.573 0.564 0.468 0.5
3906.229 0.567 0.506 0.461 0.422 0.36 0.517 0.427 0.295 0.543 0.6714
3925.519 0.554 0.6173 0.562 0.302 0.356 0.337 0.346 0.6735 0.545 0.298
3944.809 0.438 0.543 0.6124 0.6802 0.6819 0.6132 0.436 0.385 0.452 0.511
3964.099 0.575 0.6144 0.595 0.6105 0.6265 0.6134 0.553 0.505 0.585 0.6281
3983.389 0.439 0.341 0.403 0.518 0.8554 0.8308 0.596 0.6193 0.585 0.462
##END=
