##TITLE=Ethyl 4-aminocinnamate
##JCAMP-DX=4.24
##DATA TYPE=INFRARED SPECTRUM
##ORIGIN=EPA-IR VAPOR PHASE LIBRARY
##OWNER=SRD/NIST
Collection (C) 2018 copyright by the U.S. Secretary of Commerce
on behalf of the United States of America. All rights reserved.
##CAS REGISTRY NO=5048-82-8
##MOLFORM=C 11 H 13 N O 2
##$NIST SOURCE=MSDC-IR
##STATE=gas
##XUNITS=1/CM
##YUNITS=ABSORBANCE
##XFACTOR=1.
##YFACTOR=0.001
##DELTAX=1.92898
##FIRSTX=549.8
##LASTX=4000.7
##FIRSTY=5.645
##MAXX=4000.7
##MINX=549.759
##MAXY=0.226105
##MINY=0
##NPOINTS=1790
##XYDATA=(X++(Y..Y))
549.759 5.645 5.965 5.815 5.435 5.585 6.205 5.375 4.685 5.335 5.485
569.049 5.215 5.345 5.655 5.705 5.115 4.685 4.955 4.995 4.565 4.265
588.339 4.095 4.235 4.115 4.225 4.955 4.915 4.885 4.935 4.885 4.725
607.628 4.455 4.705 4.885 5.105 5.385 5.315 5.685 6.065 6.485 7.305
626.918 7.905 8.225 8.605 9.125 9.605 10.425 11.555 12.495 13.335 14.845
646.208 16.525 17.665 18.805 20.485 22.465 23.105 23.215 23.755 23.665 22.735
665.498 21.605 20.535 19.615 18.975 18.345 17.625 16.905 16.715 16.255 15.425
684.787 14.945 14.645 14.825 14.725 14.245 14.275 14.075 13.615 13.425 13.395
704.077 13.025 12.755 12.435 11.965 11.685 11.465 11.715 11.755 11.645 11.125
723.367 10.475 10.265 9.755 9.065 8.405 8.625 8.875 8.265 8.275 8.165
742.657 7.625 7.945 8.025 7.955 8.215 7.935 8.035 7.795 7.695 8.335
761.947 8.555 8.195 7.875 8.225 8.595 8.635 8.765 8.735 8.855 9.405
781.236 9.595 9.655 9.835 10.175 10.515 10.755 11.125 11.855 12.605 13.115
800.526 13.805 14.955 16.455 18.005 19.835 22.395 24.615 26.295 27.795 29.205
819.816 29.915 30.125 29.675 28.275 26.775 24.805 22.545 20.115 17.645 16.365
839.106 15.385 13.945 13.125 12.195 11.475 11.485 11.015 10.305 10.195 9.785
858.395 9.185 8.915 8.835 8.805 8.385 7.575 7.005 7.215 8.145 8.285
877.685 8.235 8.425 8.035 8.105 8.545 8.535 8.115 8.005 7.495 7.025
896.975 7.085 6.475 5.905 5.945 6.075 5.695 5.615 5.995 5.935 5.815
916.265 5.805 6.065 6.445 6.375 6.155 6.115 6.045 6.495 7.315 7.325
935.555 7.125 7.775 8.095 7.825 7.865 8.365 8.975 8.955 8.705 9.075
954.844 9.635 9.765 10.395 11.385 12.445 13.415 14.485 16.535 18.065 19.175
974.134 19.935 20.185 20.495 20.375 19.425 17.865 16.525 15.285 14.015 12.455
993.424 11.005 9.795 8.945 8.685 8.285 8.285 8.415 7.925 7.705 8.155
1012.714 9.105 9.915 10.545 11.585 12.785 13.825 15.485 17.635 20.395 23.555
1032.003 26.555 29.265 31.035 33.225 36.165 38.565 39.245 38.235 36.645 34.725
1051.293 32.325 29.085 25.875 23.995 21.275 18.845 17.965 16.805 15.745 14.875
1070.583 13.685 13.345 14.325 14.125 14.315 14.465 13.275 13.475 15.555 16.705
1089.873 16.265 17.485 18.825 19.765 20.575 19.965 20.055 20.355 19.245 18.425
1109.163 18.595 18.375 17.585 17.175 17.575 18.795 19.185 20.035 21.415 23.305
1128.452 24.145 24.535 27.365 29.905 31.595 33.905 38.255 43.715 49.515 58.735
1147.742 70.545 85.465 103.975 127.155 153.425 180.795 206.385 221.805 226.105 219.495
1167.032 202.655 180.375 160.185 146.525 136.505 124.625 111.335 97.665 78.735 58.485
1186.322 45.365 38.825 35.995 36.065 38.475 43.255 47.155 49.145 51.625 51.295
1205.611 49.985 48.565 44.945 41.855 38.465 34.895 31.945 29.585 27.795 25.745
1224.901 25.845 27.595 27.265 28.245 31.805 34.495 37.115 41.195 46.145 53.325
1244.191 62.505 72.285 83.195 94.455 105.295 114.575 121.025 121.835 116.305 107.625
1263.481 96.555 83.455 71.505 62.635 57.135 55.605 56.995 59.455 62.735 65.735
1282.771 67.385 66.775 63.465 58.355 52.485 47.375 44.415 43.655 44.945 48.735
1302.060 54.475 60.555 65.375 67.555 66.935 63.235 56.895 50.265 44.995 41.365
1321.350 39.345 37.885 35.825 32.905 29.085 24.785 20.505 16.835 14.025 12.125
1340.640 10.915 9.955 9.255 8.825 8.415 8.185 8.175 8.325 8.785 9.595
1359.930 10.835 12.855 15.565 18.275 19.715 19.705 19.075 17.385 14.705 12.285
1379.219 10.705 9.895 9.555 9.275 9.225 9.245 9.145 9.035 9.025 8.955
1398.509 8.695 8.405 8.015 7.615 7.405 7.305 7.275 7.185 7.225 7.515
1417.799 7.925 8.435 9.025 10.035 11.435 12.865 14.485 15.995 16.875 16.925
1437.089 16.205 14.795 12.895 11.145 9.875 8.995 8.605 8.335 8.175 8.195
1456.378 8.255 8.405 8.575 8.895 9.365 9.705 9.805 10.045 10.175 9.885
1475.668 9.465 8.915 8.465 8.125 7.775 7.635 7.645 7.735 7.915 8.345
1494.958 9.185 10.535 12.415 15.125 19.105 24.685 32.105 41.345 51.755 61.485
1514.248 68.235 70.405 67.415 59.585 48.285 36.475 26.375 19.445 15.135 12.495
1533.538 10.915 9.775 9.045 8.675 8.255 7.825 7.635 7.485 7.435 7.435
1552.827 7.365 7.245 7.185 7.585 7.985 8.355 8.925 9.685 10.665 11.785
1572.117 13.105 14.535 15.855 16.895 17.715 18.255 19.035 20.135 21.625 24.375
1591.407 28.355 33.155 38.825 45.545 52.775 59.815 65.735 69.595 71.555 72.115
1610.697 72.405 74.815 80.445 89.585 100.585 110.765 118.705 122.805 122.215 117.375
1629.986 109.725 100.725 91.415 81.605 71.245 60.735 50.485 41.215 33.355 27.185
1649.276 22.825 19.845 17.775 16.295 15.185 14.385 13.755 13.225 12.805 12.705
1668.566 12.675 12.575 12.485 12.295 12.225 12.255 12.105 12.135 12.245 12.165
1687.856 12.215 12.495 12.735 13.015 13.395 13.825 14.585 15.465 16.655 18.325
1707.146 20.485 23.145 26.575 31.015 36.725 44.085 53.415 65.085 79.195 95.365
1726.435 111.995 126.755 138.145 144.995 145.045 136.635 123.185 108.365 92.635 76.445
1745.725 62.205 50.665 41.155 33.265 27.075 22.455 18.775 15.865 13.845 12.325
1765.015 10.935 10.025 9.335 8.695 8.225 7.735 7.115 6.645 6.365 5.955
1784.305 5.775 5.545 5.305 5.135 4.845 4.615 4.535 4.525 4.325 4.085
1803.594 4.045 3.955 3.585 3.335 3.345 3.305 3.155 3.035 3.005 3.025
1822.884 2.965 2.865 2.755 2.605 2.585 2.695 2.685 2.715 2.775 2.715
1842.174 2.765 2.795 2.635 2.425 2.505 2.665 2.575 2.645 2.795 3.045
1861.464 3.125 3.045 3.095 3.275 3.345 3.415 3.705 3.775 3.745 3.675
1880.754 3.635 3.465 3.215 3.065 2.975 2.865 2.795 2.755 2.585 2.485
1900.043 2.415 2.335 2.285 2.185 2.205 2.355 2.415 2.405 2.325 2.295
1919.333 2.355 2.395 2.395 2.335 2.505 2.725 2.655 2.555 2.495 2.595
1938.623 2.605 2.535 2.605 2.505 2.435 2.455 2.295 2.315 2.465 2.375
1957.913 2.235 2.135 2.175 2.285 2.085 1.905 2.015 2.145 2.105 1.885
1977.202 1.775 1.855 1.965 1.855 1.775 1.865 1.885 1.895 1.775 1.635
1996.492 1.585 1.725 1.835 1.935 2.045 2.065 1.995 1.825 1.915 2.025
2015.782 2.055 2.145 2.375 2.565 2.565 2.515 2.425 2.315 2.275 2.325
2035.072 2.175 2.005 1.985 2.005 2.035 2.035 1.945 1.865 1.985 1.985
2054.362 1.895 1.975 1.935 1.935 2.045 1.955 1.875 1.855 1.825 1.715
2073.651 1.685 1.815 1.745 1.745 1.805 1.775 1.835 1.855 1.825 1.675
2092.941 1.815 2.045 2.055 1.975 1.855 1.905 2.005 1.815 1.785 1.945
2112.231 2.055 2.205 2.105 2.045 2.175 2.165 2.065 1.995 2.015 1.895
2131.521 1.815 1.915 1.895 1.815 1.725 1.625 1.645 1.465 1.295 1.385
2150.810 1.455 1.555 1.395 1.255 1.345 1.305 1.2307 1.325 1.345 1.265
2170.100 1.2025 1.275 1.365 1.365 1.2324 1.285 1.285 1.206 1.275 1.275
2189.390 1.345 1.405 1.335 1.275 1.2022 1.0696 1.0798 0.9469 0.9559 1.04
2208.680 0.96 0.9651 1.0185 1.1288 1.0762 1.1118 1.1575 0.9762 1.0212 1.1773
2227.970 1.0548 0.968 1.035 1.1994 1.1215 0.9051 1.0121 1.0795 1.0313 1.1177
2247.259 1.1282 1.228 1.1855 1.0865 1.128 1.0295 1.1848 1.2274 1.1763 1.335
2266.549 1.405 1.295 1.2358 1.365 1.515 1.555 1.525 1.495 1.465 1.405
2285.839 1.455 1.445 1.335 1.365 1.415 1.325 1.245 1.1839 1.1515 1.295
2305.129 1.385 1.535 1.475 1.345 1.415 1.295 1.1613 1.205 1.285 1.455
2324.418 1.655 1.555 1.395 1.365 1.295 1.315 1.395 1.335 1.365 1.405
2343.708 1.375 1.1945 1.1619 1.405 1.445 1.2042 1.1964 1.405 1.355 1.2191
2362.998 1.2425 1.315 1.1513 1.1134 1.2293 1.2139 1.245 1.1201 0.9974 1.1785
2382.288 1.2091 1.113 1.0828 1.1118 1.2091 1.2338 1.255 1.2012 1.082 1.0855
2401.578 1.285 1.2291 1.0686 1.0556 1.0572 0.9733 0.7968 0.938 1.1351 1.2026
2420.867 1.2211 1.048 1.0981 1.2123 1.455 1.415 1.1062 1.2067 1.2354 1.305
2440.157 1.295 1.2023 1.305 1.305 1.255 1.455 1.565 1.525 1.335 1.2054
2459.447 1.395 1.505 1.345 1.245 1.2019 1.2309 1.305 1.1712 1.1292 1.13
2478.737 1.1714 1.2337 1.1216 1.1303 1.265 1.255 1.325 1.395 1.255 1.1501
2498.026 1.1205 1.275 1.265 1.0879 1.078 0.9671 0.8924 1.0075 1.265 1.335
2517.316 1.2123 1.1641 1.1849 1.1154 1.0028 1.052 1.285 1.315 1.2008 1.2373
2536.606 1.285 1.245 1.275 1.305 1.335 1.355 1.385 1.405 1.465 1.575
2555.896 1.465 1.395 1.455 1.565 1.655 1.595 1.455 1.275 0.9947 1.0627
2575.186 1.325 1.2138 1.265 1.445 1.305 1.325 1.595 1.625 1.525 1.665
2594.475 1.715 1.505 1.395 1.605 1.785 1.825 1.635 1.505 1.675 1.625
2613.765 1.615 1.555 1.395 1.475 1.625 1.675 1.715 1.535 1.375 1.585
2633.055 1.535 1.2075 1.1894 1.2125 1.315 1.345 1.106 1.0324 1.305 1.405
2652.345 1.295 1.2333 1.1026 1.1806 1.245 1.1407 1.1007 1.0186 1.0877 1.335
2671.634 1.1847 0.8519 0.7011 0.8112 0.7401 0.6609 0.8631 1.0891 1.1023 0.9155
2690.924 0.911 1.1436 1.2313 1.1203 0.9994 0.9596 1.0735 0.9921 0.7778 0.8137
2710.214 0.9219 0.9222 0.8171 0.8922 0.9831 0.8777 1.0555 1.202 1.0038 1.0598
2729.504 1.0016 1.0421 1.1507 0.986 0.9954 1.1708 1.245 1.1251 1.315 1.375
2748.794 1.295 1.325 1.2313 1.285 1.475 1.375 1.315 1.515 1.635 1.695
2768.083 1.625 1.535 1.725 1.735 1.675 1.655 1.675 1.705 1.675 1.635
2787.373 1.695 1.975 2.025 1.845 1.735 1.725 1.755 1.795 1.755 1.595
2806.663 1.645 1.695 1.545 1.665 1.965 2.045 1.975 1.935 1.725 1.855
2825.953 1.925 1.505 1.435 1.765 1.975 1.945 1.875 1.795 1.865 2.105
2845.242 2.185 2.135 2.075 1.935 2.215 2.665 2.765 2.665 2.865 3.205
2864.532 2.905 2.865 3.185 3.375 3.575 3.925 4.355 4.505 5.035 5.565
2883.822 5.665 5.745 5.865 6.015 6.075 6.075 6.205 6.425 6.675 6.845
2903.112 6.965 7.325 7.565 7.875 8.035 8.055 7.995 7.985 7.935 7.785
2922.401 7.685 7.835 8.135 8.185 8.465 9.305 10.265 11.335 12.225 12.965
2941.691 13.895 14.325 14.065 13.495 12.895 12.205 11.445 11.345 11.825 11.945
2960.981 11.735 12.015 12.915 13.695 14.495 15.385 16.205 17.455 19.405 21.435
2980.271 23.385 25.015 25.735 25.405 24.245 22.895 21.325 19.665 18.425 17.575
2999.561 16.955 16.525 15.955 15.205 14.455 13.785 13.135 12.605 12.115 12.075
3018.850 12.215 12.305 12.845 13.745 14.755 15.885 17.205 18.505 19.015 18.605
3038.140 17.635 16.025 13.805 11.945 10.935 10.205 9.985 10.005 9.875 9.845
3057.430 9.925 10.315 10.465 10.075 9.655 9.145 8.615 7.945 6.905 6.385
3076.720 6.125 5.515 4.945 4.815 4.905 4.925 4.645 4.425 4.495 4.195
3096.009 4.015 3.795 3.445 3.265 2.865 2.715 2.775 2.695 2.585 2.265
3115.299 1.985 1.885 2.055 2.105 2.205 2.385 2.055 1.705 1.915 1.955
3134.589 1.605 1.635 1.645 1.795 2.035 2.065 1.635 1.485 1.545 1.275
3153.879 1.315 1.365 1.365 1.255 1.0776 0.995 1.0726 1.0119 0.6588 0.7478
3173.169 1.0889 1.0551 1.06 1.1557 1.265 1.255 1.0907 0.9708 0.9868 1.1656
3192.458 1.122 1.1297 1.475 1.515 1.415 1.585 1.805 2.065 1.995 1.965
3211.748 2.375 2.435 2.265 2.075 1.675 1.805 1.965 1.685 1.835 1.775
3231.038 1.585 1.845 1.825 1.515 1.445 1.515 1.375 1.1139 1.0792 1.0929
3250.328 0.9275 1.125 1.375 1.1025 1.0034 0.9709 0.9662 1.1992 0.9201 0.665
3269.617 0.7255 1.0005 1.1955 0.9365 0.8541 0.8735 0.8266 0.7177 0.5869 0.6207
3288.907 0.7251 1.0473 0.9785 0.537 0.5114 0.5044 0.4789 0.4646 0.606 0.746
3308.197 0.4597 0.5613 0.7928 0.7309 1.0563 1.0067 0.7054 0.6855 0.30915 0.4212
3327.487 0.8817 0.8534 0.8246 0.8553 0.612 0.6781 0.8609 0.9377 1.1488 1.345
3346.777 1.265 0.9529 0.8468 0.8403 0.9252 0.8303 0.782 1.091 1.365 1.315
3366.066 1.415 1.595 1.515 1.665 1.705 1.745 1.675 1.585 1.895 1.875
3385.356 2.055 2.495 2.525 2.775 3.685 4.115 4.285 4.795 5.585 6.405
3404.646 7.245 8.145 8.705 9.545 10.335 10.625 10.785 10.555 10.145 9.785
3423.936 9.335 9.355 9.165 8.805 8.235 7.025 5.515 4.125 3.805 3.495
3443.225 2.945 2.685 2.275 2.195 2.345 2.535 2.475 2.145 2.455 2.655
3462.515 2.175 2.105 1.965 1.995 2.275 2.155 2.535 2.465 2.265 2.615
3481.805 2.825 3.195 3.295 3.375 3.345 3.425 3.705 3.545 3.425 3.395
3501.095 3.395 3.915 3.965 3.745 4.065 3.625 3.275 3.475 3.435 3.085
3520.385 2.795 2.895 2.885 2.305 1.965 1.915 1.755 1.645 1.255 0.9432
3539.674 1.0156 1.1673 0.9176 0.8789 1.0794 1.065 1.1083 0.7325 0.6146 0.8551
3558.964 0.735 0.4601 0.469 0.4269 0.184 0.1866 0.536 0.6739 0.4545 0.4407
3578.254 0.5557 0.5667 0.5857 0.4813 0.3453 0.462 0.117 0 0.1788 0.27204
3597.544 0.2044 0.30076 0.7487 1.0144 0.7703 0.7055 0.811 0.7735 0.8151 0.6553
3616.833 0.6076 0.7179 0.8398 0.6214 0.5088 0.254372 0.074 0.30532 0.6549 0.6985
3636.123 0.4599 0.6812 0.7177 0.4273 0.3605 0.6106 0.7082 0.6473 0.668 0.5289
3655.413 0.126 0.007 0.525 0.7502 0.6955 0.73 0.7217 0.5523 0.5319 0.7354
3674.703 0.815 0.6256 0.5493 0.6079 0.6375 0.7171 0.507 0.417 0.4604 0.5085
3693.993 0.5921 0.7559 0.6772 0.34437 0.2043 0.2655 0.4794 0.5775 1.0202 1.1379
3713.282 0.6966 0.6697 0.7112 0.7313 0.6897 0.4206 0.25905 0.27339 0.4143 0.6013
3732.572 0.4486 0.3545 0.3407 0.4546 0.7799 0.8968 1.0364 0.9837 0.7241 0.4306
3751.862 0.5539 0.9955 0.9354 0.7977 0.6941 0.546 0.479 0.5309 0.7689 0.6523
3771.152 0.3968 0.4795 0.7198 0.6843 0.6752 0.8119 0.4784 0.3552 0.5632 0.5497
3790.441 0.6514 0.8688 0.5958 0.4612 0.6932 0.7515 0.9028 0.9183 0.7028 0.8465
3809.731 1.2204 0.9801 0.6597 0.8232 1.0782 1.0968 0.8803 0.5985 1.0606 1.465
3829.021 1.161 1.0182 1.149 0.9173 0.5804 0.9106 1.234 1.1322 0.9891 1.265
3848.311 1.505 1.615 1.635 1.895 1.775 1.117 1.1971 1.2122 1.2147 1.1554
3867.601 1.285 1.305 0.7463 0.6639 0.7188 0.8086 1.0256 0.8934 0.8278 1.0321
3886.890 0.8719 0.7908 0.7309 0.6111 0.6605 0.9525 0.5704 0.1779 0.2312 0.3914
3906.180 0.793 0.6475 0.6351 0.62 0.506 0.6535 0.6044 0.4148 0.3874 0.7139
3925.470 0.5358 0.2098 0.4811 0.7606 0.847 0.7958 0.8095 0.9475 1.1752 0.865
3944.760 0.7314 0.9591 1.0756 0.9533 0.8925 1.051 1.214 1.0108 0.6555 0.8148
3964.049 0.9395 0.88 0.9618 0.8514 0.8356 0.7788 0.7774 0.7572 0.6383 0.7468
3983.339 0.5595 0.7991 0.8223 0.934 1.0165 0.9152 0.8858 0.8002 0.9277 0.4419
##END=
