##TITLE=1,11-Undecanedicarboxylic acid
##JCAMP-DX=4.24
##DATA TYPE=INFRARED SPECTRUM
##ORIGIN=EPA-IR VAPOR PHASE LIBRARY
##OWNER=SRD/NIST
Collection (C) 2018 copyright by the U.S. Secretary of Commerce
on behalf of the United States of America. All rights reserved.
##CAS REGISTRY NO=505-52-2
##MOLFORM=C 13 H 24 O 4
##$NIST SOURCE=MSDC-IR
##STATE=gas
##XUNITS=1/CM
##YUNITS=ABSORBANCE
##XFACTOR=1.
##YFACTOR=0.001
##DELTAX=1.92898
##FIRSTX=549.8
##LASTX=4000.7
##FIRSTY=3.242
##MAXX=4000.7
##MINX=549.759
##MAXY=0.022672
##MINY=0
##NPOINTS=1790
##XYDATA=(X++(Y..Y))
549.759 3.242 3.612 3.642 3.662 3.782 3.792 3.812 3.772 3.602 3.642
569.049 3.812 3.822 3.802 3.712 3.712 3.832 3.932 3.902 4.032 4.322
588.339 4.452 4.342 4.322 4.332 4.172 4.182 4.212 4.272 4.242 4.162
607.628 4.222 4.302 4.312 4.192 4.072 4.042 4.112 4.162 4.042 3.962
626.918 3.902 3.872 3.822 3.532 3.362 3.342 3.182 3.042 2.982 2.832
646.208 2.662 2.562 2.412 2.292 2.262 2.152 2.002 1.962 1.952 1.852
665.498 1.792 1.842 1.852 1.792 1.692 1.732 1.842 1.782 1.652 1.562
684.787 1.552 1.482 1.462 1.522 1.542 1.592 1.562 1.562 1.632 1.602
704.077 1.562 1.642 1.622 1.592 1.592 1.632 1.772 1.762 1.642 1.592
723.367 1.632 1.642 1.592 1.652 1.622 1.472 1.422 1.382 1.432 1.532
742.657 1.492 1.432 1.422 1.392 1.422 1.382 1.312 1.332 1.302 1.242
761.947 1.242 1.1335 1.0086 1.0296 1.061 1.0093 0.9601 0.9368 0.8774 0.775
781.236 0.6899 0.7961 0.8608 0.8076 0.7862 0.734 0.7616 0.8379 0.8073 0.79
800.526 0.8915 1.0081 0.9828 0.8959 0.9111 0.929 0.9258 0.8946 0.8717 0.9105
819.816 0.832 0.7479 0.8518 0.8693 0.8513 0.8071 0.8098 0.9217 0.8787 0.8725
839.106 0.8776 0.8854 0.9292 1.006 0.9377 0.9348 0.9858 0.8694 0.915 0.961
858.395 0.9464 0.9507 0.8485 0.6864 0.7935 0.9539 0.9152 0.8454 0.8138 0.8971
877.685 0.864 0.7643 0.8081 0.8434 0.822 0.8382 0.7665 0.6526 0.6784 0.7595
896.975 0.8602 0.8226 0.7584 0.7511 0.7611 0.781 0.7841 0.8294 0.8427 0.7888
916.265 0.7091 0.7132 0.8149 0.8405 0.7726 0.8216 0.8911 0.8488 0.8137 0.8095
935.555 0.7926 0.7232 0.7928 0.8763 0.84 0.846 0.9096 0.9128 0.9155 0.996
954.844 1.0104 0.8942 0.8501 0.9135 0.8952 0.8837 1.0254 1.0295 0.9162 0.9414
974.134 0.9372 0.8566 0.7938 0.8968 1.0269 1.0905 1.182 1.172 1.0346 0.9843
993.424 1.0889 1.1194 1.1314 1.242 1.282 1.292 1.282 1.272 1.442 1.602
1012.714 1.592 1.582 1.572 1.542 1.642 1.862 1.972 1.932 1.882 2.092
1032.003 2.272 2.232 2.312 2.362 2.432 2.482 2.472 2.642 2.712 2.802
1051.293 3.012 3.022 3.082 3.352 3.652 3.922 4.232 4.452 4.682 5.022
1070.583 5.422 5.772 6.012 6.392 6.722 6.982 7.282 7.502 7.652 7.992
1089.873 8.352 8.462 8.422 8.392 8.492 8.592 8.912 9.222 9.322 9.712
1109.163 10.132 10.332 10.642 10.982 11.312 11.592 11.672 11.682 11.742 11.682
1128.452 11.612 11.532 11.232 10.772 10.382 9.942 9.542 9.262 8.892 8.572
1147.742 8.222 7.972 7.632 7.202 7.022 6.782 6.462 6.332 6.252 5.962
1167.032 5.722 5.622 5.522 5.342 5.112 4.912 4.802 4.632 4.502 4.362
1186.322 4.352 4.362 4.182 4.092 3.962 3.942 3.872 3.672 3.772 3.842
1205.611 3.632 3.442 3.322 3.232 3.252 3.202 3.022 2.882 2.912 2.782
1224.901 2.722 2.832 2.782 2.632 2.632 2.572 2.452 2.502 2.552 2.652
1244.191 2.592 2.492 2.462 2.482 2.492 2.492 2.522 2.582 2.662 2.742
1263.481 2.832 2.822 2.762 2.582 2.512 2.492 2.412 2.432 2.452 2.442
1282.771 2.412 2.342 2.292 2.252 2.192 2.182 2.152 2.082 2.042 2.062
1302.060 2.012 1.912 1.902 1.922 1.912 1.872 1.872 1.922 1.912 1.872
1321.350 1.872 1.872 1.892 1.912 1.962 2.042 2.072 2.102 2.172 2.272
1340.640 2.372 2.422 2.512 2.632 2.692 2.772 2.842 2.892 2.962 3.032
1359.930 3.102 3.182 3.262 3.292 3.322 3.402 3.432 3.432 3.452 3.482
1379.219 3.472 3.452 3.372 3.272 3.172 3.012 2.872 2.712 2.522 2.342
1398.509 2.172 2.032 1.902 1.792 1.702 1.622 1.582 1.532 1.502 1.492
1417.799 1.482 1.492 1.512 1.542 1.592 1.642 1.672 1.692 1.682 1.662
1437.089 1.702 1.692 1.682 1.712 1.702 1.722 1.792 1.852 1.922 2.012
1456.378 2.072 2.092 2.092 2.102 2.032 1.902 1.742 1.582 1.412 1.262
1475.668 1.162 1.0474 0.9109 0.7945 0.7366 0.6877 0.6469 0.6128 0.5659 0.5475
1494.958 0.5254 0.5452 0.5241 0.4841 0.4982 0.4709 0.4348 0.4208 0.4094 0.4268
1514.248 0.4321 0.3733 0.3579 0.3912 0.3765 0.341 0.3413 0.348 0.3269 0.3187
1533.538 0.3255 0.3539 0.3714 0.3541 0.3513 0.3674 0.3507 0.3188 0.3359 0.3525
1552.827 0.3625 0.4044 0.3954 0.3204 0.3355 0.4252 0.419 0.4381 0.4806 0.4832
1572.117 0.5228 0.5249 0.4841 0.4498 0.4741 0.4922 0.4567 0.4493 0.4254 0.4137
1591.407 0.3992 0.3755 0.3983 0.4079 0.4328 0.4563 0.4507 0.4331 0.4065 0.4146
1610.697 0.386 0.3654 0.4195 0.4457 0.4555 0.4068 0.3542 0.4136 0.4648 0.4256
1629.986 0.3829 0.4 0.4187 0.423 0.3972 0.3952 0.4102 0.429 0.4895 0.4923
1649.276 0.469 0.4825 0.4501 0.4515 0.4789 0.4667 0.4747 0.5104 0.5356 0.5318
1668.566 0.535 0.5096 0.5179 0.555 0.5945 0.6201 0.5786 0.5561 0.6013 0.6856
1687.856 0.7453 0.7619 0.7776 0.8062 0.8187 0.857 0.8961 0.9418 1.0327 1.1018
1707.146 1.182 1.272 1.392 1.502 1.582 1.742 1.912 2.082 2.272 2.522
1726.435 2.792 3.092 3.442 3.782 4.182 4.612 5.062 5.542 6.062 6.632
1745.725 7.222 7.872 8.512 9.242 10.032 10.772 11.662 12.652 13.682 14.852
1765.015 16.132 17.492 18.902 20.212 21.392 22.282 22.672 22.502 21.772 20.582
1784.305 19.142 17.582 16.052 14.612 13.282 12.062 11.012 10.012 9.062 8.182
1803.594 7.382 6.592 5.842 5.132 4.492 3.982 3.502 3.082 2.722 2.372
1822.884 2.102 1.872 1.672 1.512 1.392 1.262 1.1606 1.0769 0.9837 0.9404
1842.174 0.8963 0.8408 0.7711 0.7041 0.704 0.7278 0.6643 0.5936 0.5845 0.5602
1861.464 0.5769 0.5861 0.5347 0.502 0.4868 0.4797 0.492 0.5169 0.5105 0.4786
1880.754 0.4281 0.4195 0.4589 0.4539 0.4133 0.4296 0.4835 0.4595 0.4194 0.3761
1900.043 0.3642 0.4137 0.4077 0.3521 0.3645 0.3873 0.383 0.4042 0.4077 0.4042
1919.333 0.3768 0.3685 0.3765 0.3686 0.3589 0.3469 0.3281 0.3107 0.3342 0.3518
1938.623 0.3731 0.3717 0.3362 0.3387 0.3559 0.3456 0.325 0.3212 0.275 0.2795
1957.913 0.3151 0.3136 0.3331 0.3469 0.3435 0.3485 0.3624 0.3562 0.327 0.3189
1977.202 0.3463 0.3413 0.3224 0.3151 0.3243 0.3337 0.3479 0.3621 0.3494 0.3262
1996.492 0.3171 0.3019 0.2646 0.23017 0.2691 0.3219 0.3296 0.3307 0.3173 0.3301
2015.782 0.3332 0.3129 0.2922 0.2702 0.2832 0.3084 0.3332 0.3256 0.2995 0.2961
2035.072 0.3128 0.3298 0.306 0.2891 0.2943 0.3035 0.2788 0.24524 0.3016 0.3467
2054.362 0.3097 0.2887 0.2842 0.25835 0.2392 0.23894 0.266 0.2735 0.2722 0.3171
2073.651 0.3151 0.295 0.3106 0.2934 0.2864 0.2941 0.2745 0.2667 0.2675 0.276
2092.941 0.2955 0.3186 0.3151 0.2912 0.291 0.3211 0.3174 0.3061 0.3192 0.3076
2112.231 0.3018 0.3036 0.3273 0.3287 0.2969 0.2831 0.2984 0.3304 0.3189 0.2646
2131.521 0.2906 0.3068 0.2632 0.2629 0.2429 0.23404 0.2688 0.2747 0.281 0.2876
2150.810 0.3079 0.2955 0.2791 0.3011 0.3173 0.3181 0.3133 0.3148 0.3032 0.2931
2170.100 0.26066 0.2683 0.2766 0.25974 0.3142 0.3298 0.2916 0.2857 0.2873 0.2943
2189.390 0.3057 0.308 0.3156 0.2889 0.25416 0.24777 0.2527 0.2827 0.2633 0.26132
2208.680 0.301 0.3222 0.3278 0.3031 0.2902 0.2946 0.3023 0.334 0.3429 0.3424
2227.970 0.3165 0.3085 0.3224 0.3001 0.2905 0.2834 0.2813 0.2642 0.2848 0.3014
2247.259 0.2692 0.298 0.3189 0.3 0.2932 0.2725 0.2557 0.2721 0.2773 0.24061
2266.549 0.23904 0.23485 0.2633 0.3145 0.3108 0.3014 0.25461 0.24447 0.2863 0.2969
2285.839 0.2758 0.19542 0.20659 0.2771 0.2563 0.23886 0.2675 0.2822 0.2688 0.25563
2305.129 0.23039 0.2344 0.21622 0.18526 0.21284 0.23109 0.25557 0.2759 0.23684 0.19658
2324.418 0.23035 0.2758 0.23798 0.22329 0.23146 0.21484 0.2119 0.24482 0.2626 0.2164
2343.708 0.21508 0.23603 0.23473 0.25341 0.23147 0.23377 0.25887 0.23063 0.20593 0.19915
2362.998 0.2039 0.24409 0.2972 0.3289 0.2897 0.22149 0.19249 0.20669 0.22796 0.20855
2382.288 0.20912 0.21128 0.22214 0.2735 0.2834 0.2749 0.2881 0.2679 0.2665 0.25536
2401.578 0.24981 0.23835 0.21038 0.23681 0.23924 0.26186 0.24477 0.23627 0.2977 0.2896
2420.867 0.24696 0.232 0.24914 0.24039 0.2807 0.3003 0.2856 0.26144 0.20294 0.20902
2440.157 0.20974 0.25221 0.2623 0.25825 0.2999 0.268 0.24364 0.24067 0.23495 0.25207
2459.447 0.19817 0.18593 0.23848 0.24863 0.20851 0.20161 0.22743 0.23348 0.22484 0.24395
2478.737 0.24116 0.18759 0.23251 0.286 0.22181 0.18078 0.21327 0.21 0.21125 0.1992
2498.026 0.17438 0.18148 0.19896 0.20581 0.18412 0.18213 0.25529 0.2968 0.2679 0.23307
2517.316 0.23867 0.2702 0.24962 0.23302 0.23735 0.23701 0.25339 0.19385 0.1398 0.20405
2536.606 0.24432 0.22763 0.24531 0.23017 0.20957 0.21093 0.19723 0.2635 0.25223 0.25594
2555.896 0.2778 0.22975 0.19384 0.17878 0.16001 0.1167 0.17829 0.20894 0.170566 0.17707
2575.186 0.23266 0.23022 0.19655 0.20013 0.18615 0.168986 0.164974 0.20537 0.22896 0.22712
2594.475 0.21832 0.22239 0.22291 0.18665 0.20957 0.2908 0.305 0.2918 0.2467 0.1947
2613.765 0.18855 0.21974 0.24286 0.20201 0.1799 0.19236 0.23172 0.22076 0.23384 0.24942
2633.055 0.20637 0.20946 0.22464 0.22255 0.22392 0.21972 0.2047 0.20957 0.25775 0.26107
2652.345 0.25514 0.2828 0.2435 0.22641 0.25553 0.22561 0.23683 0.2794 0.22942 0.22859
2671.634 0.2956 0.2993 0.2888 0.23609 0.19342 0.24239 0.2761 0.25147 0.2836 0.2837
2690.924 0.21817 0.24514 0.2755 0.3127 0.3434 0.2982 0.2139 0.21191 0.23681 0.18614
2710.214 0.18698 0.21684 0.2933 0.3287 0.2732 0.25208 0.25232 0.2834 0.273 0.23908
2729.504 0.2798 0.2541 0.23398 0.318 0.3042 0.2711 0.2986 0.315 0.25871 0.23523
2748.794 0.23996 0.2686 0.2887 0.2889 0.3544 0.3371 0.275 0.3129 0.3325 0.285
2768.083 0.2802 0.2706 0.2684 0.3437 0.3387 0.2872 0.3004 0.2659 0.24774 0.2975
2787.373 0.3369 0.2999 0.317 0.3631 0.3262 0.3775 0.4516 0.3922 0.3726 0.4281
2806.663 0.4635 0.4619 0.4594 0.4563 0.402 0.3868 0.4876 0.5703 0.6062 0.6413
2825.953 0.6973 0.7413 0.7493 0.8247 0.9164 0.9387 0.9602 1.0469 1.192 1.392
2845.242 1.532 1.622 1.842 2.222 2.622 3.012 3.462 3.972 4.452 4.862
2864.532 5.152 5.202 5.082 4.902 4.612 4.312 4.042 3.712 3.502 3.252
2883.822 2.972 2.802 2.692 2.612 2.622 2.602 2.632 2.682 2.772 3.082
2903.112 3.342 3.502 3.842 4.262 4.682 5.192 5.712 6.272 6.942 7.692
2922.401 8.492 9.252 10.112 10.952 11.642 12.222 12.672 12.952 12.942 12.712
2941.691 12.322 11.812 11.282 10.582 9.822 9.062 8.292 7.522 6.802 6.132
2960.981 5.572 5.062 4.532 4.052 3.572 3.252 3.012 2.782 2.522 2.412
2980.271 2.272 2.042 1.842 1.722 1.652 1.522 1.402 1.282 1.1613 1.0536
2999.561 0.962 0.911 0.849 0.8171 0.787 0.7158 0.612 0.5011 0.5066 0.4926
3018.850 0.4883 0.5069 0.4888 0.4482 0.4018 0.3842 0.3823 0.4528 0.4032 0.3644
3038.140 0.3672 0.3179 0.3755 0.4061 0.367 0.2936 0.22911 0.2924 0.3286 0.2808
3057.430 0.3022 0.3238 0.3666 0.3375 0.22947 0.19048 0.21542 0.22115 0.23004 0.2649
3076.720 0.2831 0.2897 0.3452 0.3293 0.1959 0.19803 0.21375 0.22004 0.25408 0.24339
3096.009 0.17329 0.1247 0.1479 0.15319 0.2017 0.19005 0.17878 0.1473 0.0944 0.1226
3115.299 0.0639 0.0705 0.169275 0.19436 0.19171 0.167611 0.1418 0.1338 0.1084 0.1356
3134.589 0.20025 0.137 0.0928 0.1129 0.1097 0.1502 0.18924 0.2685 0.2861 0.24654
3153.879 0.22034 0.19909 0.1468 0.116 0.21467 0.22937 0.1326 0.169519 0.23714 0.2706
3173.169 0.25423 0.17726 0.1825 0.23293 0.24111 0.166991 0.18749 0.24053 0.1166 0.1222
3192.458 0.20826 0.18476 0.1419 0.1516 0.21534 0.2767 0.2687 0.22329 0.23212 0.17878
3211.748 0.20661 0.2656 0.2947 0.3022 0.17881 0.15676 0.169231 0.161957 0.17631 0.1253
3231.038 0.1206 0.143 0.085 0.0684 0.1217 0.1215 0.162339 0.169509 0.21449 0.2755
3250.328 0.21967 0.2252 0.15688 0.059 0.048 0.094 0.1153 0.0876 0.18649 0.2691
3269.617 0.23243 0.16018 0.15757 0.162309 0.1298 0.19046 0.2667 0.2835 0.22958 0.23393
3288.907 0.21742 0.1284 0.1442 0.25069 0.2667 0.18351 0.075 0.084 0.22397 0.2293
3308.197 0.21702 0.18514 0.1706 0.21599 0.2734 0.2772 0.2645 0.3194 0.278 0.20619
3327.487 0.15328 0.1341 0.18309 0.16333 0.073 0.1005 0.165998 0.18283 0.3026 0.3892
3346.777 0.3234 0.2816 0.2743 0.23736 0.161024 0.15921 0.26122 0.2911 0.22631 0.170314
3366.066 0.19814 0.22688 0.24612 0.2168 0.2753 0.23416 0.15882 0.25435 0.2293 0.21357
3385.356 0.25217 0.2814 0.2378 0.18051 0.24632 0.2807 0.21201 0.2823 0.347 0.2871
3404.646 0.23491 0.23313 0.1283 0.0697 0.166738 0.18216 0.21061 0.2811 0.20476 0.1486
3423.936 0.2947 0.3195 0.21625 0.21865 0.25427 0.21707 0.19137 0.1714 0.0943 0.20582
3443.225 0.3152 0.23588 0.25726 0.3323 0.3457 0.2666 0.171331 0.1415 0.18619 0.3048
3462.515 0.3553 0.3191 0.2982 0.22134 0.21622 0.2951 0.23858 0.19873 0.21394 0.2794
3481.805 0.29 0.21508 0.26041 0.3662 0.4141 0.3868 0.4543 0.4203 0.21969 0.20585
3501.095 0.22714 0.2631 0.3423 0.3622 0.4461 0.465 0.4607 0.4591 0.3639 0.2779
3520.385 0.3913 0.5081 0.5727 0.64 0.6696 0.692 0.6644 0.6182 0.5701 0.5845
3539.674 0.6891 0.7809 0.7432 0.8021 1.0116 1.1242 1.1208 1.322 1.572 1.892
3558.964 2.262 2.592 3.182 3.852 4.682 5.972 7.472 8.702 9.402 9.392
3578.254 8.772 7.562 5.982 4.592 3.502 2.662 2.202 1.852 1.512 1.322
3597.544 1.101 0.9067 0.8529 0.7881 0.6927 0.5937 0.6416 0.6788 0.6188 0.5962
3616.833 0.5042 0.5098 0.4422 0.2925 0.2795 0.3079 0.2881 0.19537 0.2932 0.4592
3636.123 0.4752 0.4419 0.3173 0.295 0.347 0.20706 0.18209 0.16884 0.1236 0.1024
3655.413 0.1397 0.1936 0.18593 0.21611 0.21026 0.2907 0.3333 0.2657 0.22999 0.2771
3674.703 0.2865 0.23818 0.2685 0.2321 0.1293 0.168411 0.1433 0.1388 0.15778 0.1395
3693.993 0.22765 0.267 0.2833 0.2442 0.1422 0.067 0.15684 0.3071 0.276 0.24337
3713.282 0.19089 0.1518 0.1116 0.113 0.24312 0.25157 0.166113 0.1031 0.1478 0.168987
3732.572 0.19737 0.17204 0.0869 0.16065 0.2221 0.2856 0.25428 0.1324 0.125 0.21679
3751.862 0.20067 0.18889 0.23439 0.18646 0.20574 0.170738 0.1199 0.0883 0.0755 0.131
3771.152 0.15322 0.17027 0.25574 0.2697 0.19926 0.166472 0.0696 0.18567 0.3434 0.1529
3790.441 0.0864 0.1167 0.16906 0.22057 0.20071 0.3025 0.3655 0.286 0.1221 0.045
3809.731 0.1144 0.24364 0.2762 0.2825 0.2148 0.1162 0.168281 0.23889 0.107 0.121
3829.021 0.2697 0.24035 0.15319 0.0961 0.171037 0.2785 0.2631 0.1368 0.083 0.0737
3848.311 0.165712 0.1397 0.1279 0.24454 0.152 0.0847 0.1286 0.052 0.024 0.170614
3867.601 0.166398 0.1446 0.2787 0.17471 0.0708 0.19651 0.25346 0.3183 0.3323 0.1251
3886.890 0.0697 0.17611 0.15355 0.18698 0.25754 0.2644 0.2229 0.19949 0.1956 0.21578
3906.180 0.23659 0.162611 0.2623 0.2803 0.2621 0.3181 0.24443 0.135 0.0671 0.051
3925.470 0.0949 0.25606 0.3539 0.2987 0.18089 0.18541 0.17148 0.1102 0.0837 0.1379
3944.760 0.1265 0.1398 0.23431 0.18442 0.061 0.0729 0.22712 0.22199 0.15513 0.18492
3964.049 0.168421 0.1233 0.22311 0.1489 0.0836 0.1501 0.1355 0.23928 0.24105 0.1318
3983.339 0.1442 0.2593 0.23069 0.1352 0.041 0 0.0652 0.1036 0.1496 0.1875
##END=
