##TITLE=Homopiperazine
##JCAMP-DX=4.24
##DATA TYPE=INFRARED SPECTRUM
##ORIGIN=EPA-IR VAPOR PHASE LIBRARY
##OWNER=SRD/NIST
Collection (C) 2018 copyright by the U.S. Secretary of Commerce
on behalf of the United States of America. All rights reserved.
##CAS REGISTRY NO=505-66-8
##MOLFORM=C 5 H 12 N 2
##$NIST SOURCE=MSDC-IR
##STATE=gas
##XUNITS=1/CM
##YUNITS=ABSORBANCE
##XFACTOR=1.
##YFACTOR=0.001
##DELTAX=1.92934
##FIRSTX=549.9
##LASTX=3999.5
##FIRSTY=31.61
##MAXX=3999.53
##MINX=549.863
##MAXY=0.38882
##MINY=0
##NPOINTS=1789
##XYDATA=(X++(Y..Y))
549.863 31.61 31.55 31.49 31.45 31.52 31.52 31.41 31.2 31.09 31.09
569.156 31.16 31.25 31.2 30.9 30.64 30.69 30.88 30.89 31.01 31.38
588.450 31.57 31.76 32.14 32.55 33.11 33.83 34.48 35.16 35.87 36.58
607.743 37.56 38.62 39.6 40.51 41.41 42.46 43.59 44.8 45.9 46.98
627.037 48.16 49.3 50.3 51.24 52.23 53.2 54.13 55.07 55.93 56.79
646.330 57.73 58.7 59.59 60.25 60.98 61.87 62.79 63.68 64.39 65.12
665.624 65.95 66.67 67.29 67.78 68.21 68.64 68.9 68.98 68.98 68.96
684.917 68.76 68.39 67.98 67.46 66.85 66.17 65.35 64.34 63.25 62.15
704.210 60.99 59.77 58.38 56.94 55.44 53.65 51.66 49.59 47.47 45.42
723.504 43.46 41.59 39.75 37.94 36.24 34.6 33.08 31.68 30.38 29.24
742.797 28.22 27.27 26.5 25.8 25.23 24.74 24.21 23.86 23.63 23.3
762.091 23 22.9 22.76 22.51 22.14 21.9 21.69 21.47 21.31 21.16
781.384 20.98 20.67 20.29 19.97 19.69 19.33 18.99 18.76 18.61 18.34
800.678 18.08 17.87 17.73 17.6 17.39 17.17 17.1 17.24 17.29 17.24
819.971 17.28 17.29 17.38 17.51 17.67 17.79 17.69 17.62 17.59 17.51
839.264 17.43 17.31 17.08 16.84 16.64 16.49 16.29 16.06 15.8 15.44
858.558 15.09 14.75 14.38 14 13.62 13.24 12.72 12.11 11.63 11.22
877.851 10.79 10.47 10.19 9.93 9.77 9.62 9.5 9.45 9.54 9.69
897.145 9.81 10.04 10.37 10.78 11.19 11.58 11.97 12.35 12.79 13.17
916.438 13.57 14.08 14.62 15.13 15.59 16.14 16.81 17.41 18.01 18.56
935.732 19.07 19.62 20.08 20.48 20.99 21.58 22.14 22.67 23.13 23.48
955.025 23.75 23.84 23.81 23.73 23.53 23.39 23.11 22.51 21.97 21.47
974.318 20.88 20.23 19.63 19.1 18.52 17.94 17.38 16.86 16.46 16.16
993.612 15.84 15.44 15.06 14.78 14.64 14.66 14.83 15.07 15.31 15.68
1012.905 16.2 16.73 17.35 17.99 18.6 19.31 19.99 20.61 21.11 21.44
1032.199 21.57 21.51 21.26 20.84 20.29 19.67 19.02 18.35 17.64 16.92
1051.492 16.32 15.59 14.75 14.02 13.36 12.77 12.32 12.07 11.83 11.56
1070.786 11.35 11.25 11.19 11.03 10.86 10.71 10.65 10.61 10.49 10.38
1090.079 10.36 10.43 10.56 10.72 10.85 10.91 11.06 11.21 11.26 11.27
1109.372 11.27 11.33 11.5 11.86 12.08 12.32 13.01 13.72 14.47 15.54
1128.666 16.83 18.52 20.62 23.07 26.09 29.68 33.73 38.38 43.7 49.68
1147.959 56.11 62.91 69.99 76.86 83.32 89.12 94.06 97.88 100.47 101.93
1167.253 102.19 101.18 99.28 96.88 93.79 89.59 84.33 78.5 72.29 65.97
1186.546 59.64 53.19 46.88 41.26 36.27 32.24 28.97 26.52 24.89 23.33
1205.840 21.73 20.75 20.39 20.16 19.96 19.74 19.46 18.96 18.89 19.04
1225.133 18.82 18.56 18.34 18 17.65 17.3 16.92 16.81 16.62 16.1
1244.426 15.7 15.36 15.03 14.65 14.3 14.04 13.76 13.41 13.19 13.06
1263.720 12.87 12.62 12.29 12.12 12.04 12 11.96 11.86 11.84 11.78
1283.013 11.74 11.86 12.03 12.12 12.27 12.59 13.03 13.54 13.96 14.52
1302.307 15.26 16.11 17.03 18.15 19.58 21.27 23.15 25.36 27.93 30.69
1321.600 33.76 37.08 40.43 43.62 46.61 49.35 51.61 53.35 54.75 55.75
1340.894 56.3 56.47 56.28 55.56 54.4 53.01 51.25 49.01 46.32 43.27
1360.187 40.1 36.99 34.02 31.35 28.95 26.82 24.96 23.32 21.82 20.37
1379.480 19 17.73 16.5 15.44 14.45 13.49 12.76 12.16 11.71 11.34
1398.774 11.06 10.88 10.95 11.21 11.6 12.18 12.99 13.99 15.23 16.69
1418.067 18.33 20.01 21.69 23.58 25.5 27.53 29.76 31.9 33.74 35.62
1437.361 37.66 39.46 41.29 43.01 44.49 45.82 46.92 47.77 48.28 48.39
1456.654 48.07 47.08 45.67 44.24 42.8 41.16 39.3 37.15 34.75 32.2
1475.948 29.74 27.3 24.9 22.55 20.37 18.4 16.63 15.02 13.49 12.1
1495.241 11.01 10 9.05 8.24 7.57 7.14 6.79 6.39 5.93 5.45
1514.534 5.21 5.08 4.86 4.75 4.55 4.33 4.25 4.04 3.9158 3.8941
1533.828 3.8207 3.7303 3.6842 3.7026 3.7101 3.5924 3.4434 3.3248 3.3208 3.2787
1553.121 3.2796 3.2953 3.2907 3.3998 3.2426 3.0836 3.03966 2.9527 2.96229 2.98583
1572.415 2.9403 2.9558 2.99477 2.9063 2.837 2.843 2.793 2.717 2.723 2.752
1591.708 2.738 2.704 2.712 2.801 2.827 2.794 2.778 2.745 2.728 2.726
1611.002 2.702 2.71 2.759 2.788 2.791 2.761 2.761 2.806 2.8 2.848
1630.295 2.877 2.869 2.937 2.97898 2.9421 2.9347 2.8752 2.859 3.04963 3.0972
1649.588 3.00804 3.1279 3.2179 3.03617 2.96656 2.98667 3.00179 3.05612 2.98004 2.9582
1668.882 3.03119 3.02291 2.96783 2.9562 2.9402 2.98813 2.98228 2.9006 2.9248 2.834
1688.175 2.791 2.79 2.726 2.799 2.8776 2.815 2.839 2.771 2.66 2.663
1707.469 2.64 2.62 2.576 2.596 2.664 2.747 2.677 2.504 2.464 2.432
1726.762 2.437 2.466 2.435 2.528 2.601 2.433 2.329 2.319 2.352 2.361
1746.056 2.294 2.352 2.411 2.356 2.274 2.287 2.242 2.182 2.23 2.17
1765.349 2.078 2.126 2.198 2.202 2.151 2.145 2.176 2.193 2.161 2.075
1784.642 2.106 2.123 2.106 2.211 2.268 2.237 2.252 2.303 2.387 2.452
1803.936 2.456 2.477 2.532 2.59 2.623 2.606 2.636 2.651 2.643 2.661
1823.229 2.711 2.729 2.654 2.631 2.621 2.627 2.615 2.609 2.625 2.58
1842.523 2.634 2.685 2.63 2.599 2.592 2.562 2.507 2.499 2.53 2.52
1861.816 2.478 2.443 2.398 2.421 2.409 2.35 2.289 2.197 2.199 2.228
1881.110 2.15 2.071 2.06 2.044 2.045 2.007 1.977 1.975 1.96 1.98
1900.403 1.993 1.995 1.97 1.95 1.96 1.979 1.991 1.995 1.987 2.013
1919.696 2.043 2.046 1.997 1.95 2.006 2.016 2.014 2.082 2.07 2.009
1938.990 1.996 2.005 2.021 2.04 2.043 2.035 2.032 2.045 2.027 1.999
1958.283 2.004 2.02 1.997 1.984 2.015 2.012 1.97 1.976 2.022 2.051
1977.577 2.076 2.063 2.063 2.077 2.071 2.097 2.16 2.22 2.226 2.191
1996.870 2.194 2.189 2.177 2.207 2.247 2.244 2.234 2.27 2.294 2.278
2016.164 2.271 2.288 2.325 2.292 2.249 2.248 2.182 2.131 2.126 2.116
2035.457 2.086 2.041 2.021 2.008 1.97 1.91 1.85 1.83 1.78 1.72
2054.750 1.74 1.72 1.69 1.7 1.67 1.7 1.71 1.7 1.67 1.62
2074.044 1.61 1.61 1.63 1.61 1.57 1.59 1.63 1.67 1.64 1.59
2093.337 1.62 1.63 1.64 1.63 1.61 1.64 1.66 1.63 1.61 1.6
2112.631 1.63 1.64 1.67 1.66 1.64 1.69 1.7 1.68 1.67 1.65
2131.924 1.7 1.72 1.71 1.74 1.73 1.7 1.71 1.72 1.73 1.73
2151.218 1.76 1.82 1.85 1.85 1.86 1.86 1.88 1.92 1.95 1.96
2170.511 1.998 2.02 1.983 2.007 2.082 2.068 2.03 2.092 2.107 2.057
2189.804 2.019 2.045 2.076 2.065 2.083 2.061 2.029 2.053 2.072 2.056
2209.098 2.062 2.064 2.033 2.046 2.047 2.013 2.04 2.113 2.106 2.078
2228.391 2.067 2.06 2.083 2.066 2.034 2.007 2.005 2.032 2.036 2.033
2247.685 2.045 2.046 2.023 2.021 2.027 1.997 2.028 2.108 2.134 2.158
2266.978 2.174 2.152 2.173 2.225 2.21 2.209 2.27 2.309 2.293 2.267
2286.272 2.305 2.352 2.351 2.335 2.378 2.403 2.428 2.445 2.408 2.373
2305.565 2.352 2.351 2.348 2.34 2.352 2.37 2.365 2.314 2.274 2.317
2324.858 2.31 2.293 2.307 2.292 2.248 2.243 2.255 2.229 2.236 2.222
2344.152 2.196 2.231 2.237 2.214 2.239 2.28 2.248 2.236 2.286 2.259
2363.445 2.235 2.27 2.335 2.347 2.32 2.343 2.348 2.349 2.32 2.261
2382.739 2.298 2.336 2.302 2.349 2.343 2.261 2.222 2.233 2.228 2.205
2402.032 2.243 2.245 2.266 2.248 2.212 2.18 2.169 2.193 2.192 2.185
2421.326 2.187 2.17 2.129 2.148 2.208 2.246 2.196 2.182 2.236 2.286
2440.619 2.302 2.252 2.238 2.272 2.321 2.343 2.329 2.35 2.427 2.493
2459.912 2.529 2.567 2.567 2.601 2.643 2.648 2.67 2.732 2.831 2.9149
2479.206 2.9488 2.896 2.847 2.8955 2.9324 2.96455 3.01731 3.02821 3.04275 3.04382
2498.499 3.06631 3.06388 3.04442 3.05494 3.05035 3.0827 3.1094 3.0718 3.098 3.1605
2517.793 3.1989 3.2398 3.2535 3.2718 3.2862 3.299 3.3341 3.3383 3.3622 3.4574
2537.086 3.5158 3.5624 3.5903 3.6042 3.6217 3.6561 3.703 3.7652 3.8683 3.8998
2556.380 3.9239 3.9596 4.02 4.07 4.05 4.09 4.2 4.32 4.34 4.3
2575.673 4.36 4.43 4.44 4.53 4.65 4.69 4.79 4.89 4.92 4.99
2594.966 5.1 5.21 5.28 5.4 5.55 5.57 5.7 5.91 6.04 6.19
2614.260 6.39 6.52 6.65 6.83 6.92 7.08 7.3 7.48 7.7 7.99
2633.553 8.25 8.56 8.92 9.24 9.59 9.96 10.35 10.8 11.28 11.75
2652.847 12.23 12.73 13.34 13.94 14.53 15.1 15.58 16.12 16.64 17.08
2672.140 17.61 18.2 18.74 19.22 19.59 20.01 20.47 20.82 21.13 21.35
2691.434 21.61 21.88 22.11 22.38 22.62 22.78 22.9 23.16 23.47 23.73
2710.727 24.06 24.43 24.79 25.31 25.94 26.51 27.23 28.07 28.87 29.75
2730.020 30.65 31.55 32.56 33.58 34.59 35.53 36.4 37.13 37.73 38.22
2749.314 38.52 38.76 38.96 38.92 38.97 39.13 39.17 39.33 39.54 39.76
2768.607 40.16 40.85 41.67 42.73 44.12 45.81 47.73 49.94 52.52 55.35
2787.901 58.47 61.81 65.4 69.33 73.48 77.79 82.2 86.77 91.46 96.23
2807.194 100.97 105.6 110.21 114.85 119.46 123.89 128.13 132.13 135.74 138.75
2826.488 141.12 142.87 144.11 145 145.6 146.14 146.65 146.95 147.06 146.9
2845.781 146.45 145.84 145.02 144.29 143.81 143.48 143.27 143.02 142.61 142.21
2865.074 142.03 141.97 142.01 141.94 141.68 141.54 141.5 141.59 141.95 142.82
2884.368 144.08 146 148.89 152.56 157.04 162.46 169.14 177.01 185.95 196.05
2903.661 206.98 218.53 230.99 244.47 258.92 274.47 290.88 307.61 324.29 340.46
2922.955 355.33 367.9 377.57 384.44 388.34 388.82 385.59 378.25 367.09 352.49
2942.248 335.01 315.22 293.82 271.48 248.38 224.85 201.05 177.78 155.59 134.72
2961.542 115.64 98.78 84.09 71.42 60.86 51.99 44.73 38.89 34.03 30.01
2980.835 26.55 23.6 21.29 19.4 17.62 16.13 14.93 13.74 12.66 11.87
3000.128 11.13 10.35 9.71 9.09 8.51 7.91 7.62 7.44 7.02 6.59
3019.422 6.35 6.17 5.89 5.73 5.56 5.31 5.09 4.82 4.48 4.27
3038.715 4.33 4.38 4.22 4 3.9124 3.8427 3.7139 3.676 3.5448 3.3004
3058.009 3.2899 3.2329 3.04436 2.9944 2.9405 2.866 2.8745 2.847 2.638 2.554
3077.302 2.518 2.424 2.413 2.438 2.396 2.298 2.275 2.161 2.08 2.101
3096.596 2.031 1.9 1.86 2.055 2.067 1.94 1.93 1.77 1.71 1.74
3115.889 1.77 1.77 1.75 1.77 1.89 1.96 1.84 1.66 1.66 1.66
3135.182 1.7 1.62 1.46 1.42 1.46 1.55 1.52 1.39 1.45 1.47
3154.476 1.41 1.41 1.39 1.45 1.37 1.35 1.5 1.54 1.48 1.32
3173.769 1.27 1.26 1.28 1.34 1.36 1.46 1.51 1.47 1.45 1.44
3193.063 1.49 1.49 1.54 1.67 1.75 1.63 1.55 1.68 1.67 1.57
3212.356 1.56 1.66 1.78 1.74 1.63 1.58 1.69 1.71 1.59 1.7
3231.650 1.72 1.57 1.49 1.57 1.65 1.65 1.46 1.41 1.43 1.49
3250.943 1.48 1.36 1.32 1.29 1.33 1.21 1.26 1.34 1.18 1.05
3270.236 1.24 1.36 1.29 1.2 1.11 1.07 1.15 1.16 1.11 1.17
3289.530 1.13 1 0.93 0.95 0.96 0.77 0.81 0.94 1.02 0.96
3308.823 0.88 0.87 0.75 0.88 1.06 0.92 0.72 0.88 0.91 0.79
3328.117 0.8 0.84 0.93 0.97 0.89 0.95 0.96 0.74 0.82 1.15
3347.410 1.29 1.08 1.06 1.29 1.26 1.24 1.26 1.36 1.47 1.5
3366.704 1.53 1.61 1.6 1.52 1.5 1.57 1.66 1.68 1.91 1.94
3385.997 1.71 1.74 1.86 1.71 1.51 1.47 1.43 1.31 1.17 1.22
3405.290 1.37 1.34 1.14 1.06 0.99 0.9 0.94 1 0.95 0.92
3424.584 0.89 0.86 0.87 0.87 0.93 0.92 0.84 0.87 0.92 0.97
3443.877 1.01 0.87 0.78 0.7 0.61 0.58 0.55 0.62 0.79 0.86
3463.171 0.78 0.78 0.74 0.75 0.74 0.67 0.64 0.56 0.47 0.51
3482.464 0.45 0.33 0.38 0.41 0.46 0.4 0.28 0.38 0.38 0.31
3501.758 0.43 0.48 0.43 0.36 0.4 0.32 0.32 0.38 0.28 0.28
3521.051 0.29 0.28 0.35 0.38 0.35 0.34 0.3 0.33 0.38 0.29
3540.344 0.15 0.23 0.27 0.29 0.3 0 0.02 0.26 0.34 0.27
3559.638 0.15 0.12 0.13 0.28 0.37 0.38 0.4 0.35 0.3 0.22
3578.931 0.28 0.44 0.38 0.26 0.32 0.39 0.32 0.22 0.24 0.43
3598.225 0.41 0.36 0.45 0.5 0.5 0.42 0.43 0.44 0.43 0.34
3617.518 0.4 0.5 0.44 0.46 0.52 0.62 0.69 0.57 0.44 0.55
3636.812 0.61 0.54 0.62 0.65 0.56 0.63 0.69 0.7 0.6 0.53
3656.105 0.6 0.48 0.43 0.45 0.44 0.53 0.62 0.75 0.65 0.59
3675.398 0.77 0.78 0.74 0.69 0.64 0.73 0.86 0.85 0.78 0.79
3694.692 0.67 0.7 0.72 0.75 0.89 0.82 0.69 0.68 0.79 0.8
3713.985 0.81 0.84 0.81 0.86 0.96 1 1.01 0.98 0.91 0.97
3733.279 0.97 0.97 1.04 0.89 0.8 0.93 0.98 1.04 1 0.9
3752.572 0.95 0.98 0.98 0.94 0.84 0.91 0.96 0.9 0.97 0.97
3771.866 0.88 0.9 0.95 0.9 0.97 1.04 1.08 1.05 1.07 1.13
3791.159 1.05 1 0.98 1.02 1.16 1.19 1.11 1.14 1.21 1.16
3810.452 1.14 1.08 1.06 1.16 1.17 1.19 1.22 1.23 1.17 1.14
3829.746 1.26 1.39 1.42 1.34 1.36 1.36 1.3 1.24 1.16 1.27
3849.039 1.39 1.46 1.52 1.5 1.43 1.41 1.33 1.36 1.39 1.31
3868.333 1.43 1.59 1.59 1.48 1.51 1.69 1.68 1.54 1.48 1.54
3887.626 1.58 1.6 1.62 1.61 1.58 1.56 1.63 1.68 1.66 1.62
3906.920 1.55 1.51 1.45 1.45 1.56 1.65 1.7 1.76 1.68 1.52
3926.213 1.54 1.55 1.53 1.6 1.53 1.52 1.63 1.63 1.61 1.5
3945.506 1.44 1.58 1.66 1.57 1.52 1.53 1.6 1.6 1.53 1.6
3964.800 1.67 1.66 1.69 1.71 1.66 1.68 1.7 1.65 1.71 1.76
3984.093 1.83 1.91 1.88 1.82 1.81 1.86 1.93 1.91 1.98
##END=
