##TITLE=7-Methoxybenzofuran-2-carboxylic acid, ethyl ester
##JCAMP-DX=4.24
##DATA TYPE=INFRARED SPECTRUM
##ORIGIN=EPA-IR VAPOR PHASE LIBRARY
##OWNER=SRD/NIST
Collection (C) 2018 copyright by the U.S. Secretary of Commerce
on behalf of the United States of America. All rights reserved.
##CAS REGISTRY NO=50551-58-1
##MOLFORM=C 12 H 12 O 4
##$NIST SOURCE=MSDC-IR
##STATE=gas
##XUNITS=1/CM
##YUNITS=ABSORBANCE
##XFACTOR=1.
##YFACTOR=0.001
##DELTAX=1.92898
##FIRSTX=549.8
##LASTX=4000.7
##FIRSTY=1.842
##MAXX=4000.7
##MINX=549.759
##MAXY=0.212482
##MINY=0
##NPOINTS=1790
##XYDATA=(X++(Y..Y))
549.759 1.842 2.232 2.362 1.912 1.672 1.4754 1.3627 1.3481 1.2723 1.1683
569.049 0.9482 0.5141 0.301 0.56453 0.7229 0.61452 0.63768 0.8641 0.7485 0.264
588.339 0.252 0.397 0.404 0.4989 0.58923 0.60585 0.4934 0.4825 0.59504 0.7185
607.628 0.8418 0.8627 1.0014 1.2024 1.1132 1.2437 1.2544 1.1395 1.3726 1.3956
626.918 1.1071 0.9986 0.9576 0.8631 0.8312 0.8049 0.8296 0.7847 0.6134 0.462
646.208 0.64012 0.7897 0.7544 0.7242 0.7703 0.7412 0.65407 0.6039 0.438 0.419
665.498 0.7427 0.8979 0.8432 1.0204 1.2483 1.343 1.4808 1.782 1.912 1.932
684.787 2.082 2.202 2.362 2.582 2.742 2.852 2.972 3.002 2.982 3.122
704.077 3.412 3.462 3.562 3.992 4.512 5.542 7.522 10.402 14.092 18.702
723.367 23.462 28.002 33.212 38.082 37.592 31.792 26.582 22.392 17.672 13.192
742.657 9.622 7.372 5.952 4.972 4.852 5.092 5.192 5.452 6.102 6.732
761.947 6.902 7.002 7.342 8.052 8.882 10.142 11.812 13.532 15.462 17.392
781.236 18.572 18.802 17.932 16.112 14.222 12.252 10.332 8.542 7.102 6.252
800.526 5.782 5.392 5.132 4.982 5.042 5.162 5.282 5.722 5.972 6.122
819.816 6.522 7.232 8.152 9.162 10.622 12.002 13.332 14.782 16.102 16.982
839.106 17.272 17.042 16.382 15.642 14.992 14.682 14.582 14.832 15.012 15.142
858.395 15.212 14.842 14.162 13.012 11.622 10.272 8.902 7.442 6.142 5.232
877.685 4.552 3.922 3.352 3.112 2.962 2.612 2.342 2.122 1.952 2.022
896.975 2.242 2.402 2.272 2.012 2.092 2.302 2.362 2.482 2.582 2.572
916.265 2.722 2.702 2.732 3.062 3.522 4.042 4.732 5.812 7.002 8.502
935.555 10.392 12.302 14.092 15.502 16.212 16.362 16.082 14.862 13.072 11.132
954.844 9.532 8.302 7.272 6.702 6.462 6.392 6.632 7.022 7.692 8.572
974.134 9.412 10.352 11.242 12.102 12.532 12.552 12.372 11.662 10.662 9.762
993.424 9.202 8.822 8.642 8.712 8.932 9.802 10.732 11.762 13.052 14.672
1012.714 16.412 17.652 18.862 19.652 19.622 19.452 18.822 17.492 16.262 15.062
1032.003 14.012 13.252 12.642 12.722 13.492 14.272 15.182 16.102 16.432 16.642
1051.293 17.122 17.322 17.252 17.382 17.692 18.142 19.252 20.952 23.562 27.032
1070.583 31.252 36.342 41.912 47.532 53.232 58.752 64.002 69.232 73.582 77.762
1089.873 81.242 84.032 86.742 88.242 88.362 87.162 84.132 78.482 70.112 60.642
1109.163 51.212 42.062 34.132 27.832 23.432 20.352 17.882 16.452 15.712 14.792
1128.452 14.252 14.002 13.982 14.232 14.342 14.752 15.182 15.462 16.052 16.982
1147.742 17.962 19.302 20.962 23.322 26.712 30.482 35.022 41.122 49.192 59.722
1167.032 73.172 90.172 111.002 134.932 159.532 182.312 200.582 211.062 212.482 204.482
1186.322 189.822 172.032 154.192 139.052 127.772 118.332 108.562 98.502 87.842 77.292
1205.611 67.172 58.932 52.962 48.742 46.422 45.332 45.022 45.432 45.812 45.822
1224.901 44.992 43.362 40.892 37.202 33.092 29.222 25.822 22.962 20.822 19.432
1244.191 18.822 18.932 19.722 21.052 23.302 26.932 31.702 37.752 45.532 54.512
1263.481 63.422 71.362 77.252 80.852 82.752 82.922 82.382 82.862 86.012 93.002
1282.771 103.172 115.282 128.062 140.002 149.252 154.442 155.032 150.882 142.542 130.942
1302.060 117.462 103.592 90.262 78.122 67.792 59.752 54.152 51.092 50.162 50.522
1321.350 51.552 52.402 52.412 51.412 49.292 46.372 43.162 40.162 37.492 35.022
1340.640 32.632 30.092 27.472 24.842 22.252 20.002 18.262 17.042 16.372 16.302
1359.930 16.862 18.222 20.522 23.532 26.562 28.592 29.212 28.542 26.532 23.142
1379.219 19.182 15.872 13.602 12.232 11.372 10.882 10.612 10.402 10.272 10.152
1398.509 9.882 9.632 9.412 9.262 9.232 9.302 9.572 10.002 10.632 11.442
1417.799 12.332 13.262 14.022 14.552 14.902 14.892 14.512 13.982 13.312 12.712
1437.089 12.402 12.332 12.462 12.802 13.222 13.562 13.932 14.272 14.472 14.562
1456.378 14.712 15.052 15.392 15.862 16.462 17.082 17.692 18.382 19.222 20.182
1475.668 21.492 23.512 26.422 30.302 34.892 39.672 43.762 46.292 46.932 45.852
1494.958 42.922 37.982 32.022 26.252 21.262 17.282 14.122 11.692 9.992 8.842
1514.248 8.112 7.542 6.992 6.632 6.342 6.092 5.892 5.772 5.732 5.752
1533.538 5.902 6.072 6.292 6.682 7.082 7.372 7.702 8.162 8.742 9.502
1552.827 10.502 11.792 13.582 16.062 19.202 22.932 27.262 32.062 37.032 41.992
1572.117 46.772 51.022 54.702 57.512 59.212 60.042 59.782 58.372 56.262 54.202
1591.407 52.332 50.282 47.822 44.612 40.732 36.542 32.292 28.252 24.932 22.452
1610.697 20.692 19.272 18.092 17.092 15.932 14.712 13.522 12.332 11.242 10.142
1629.986 9.192 8.432 7.762 7.162 6.612 6.252 5.962 5.672 5.562 5.452
1649.276 5.252 5.172 5.112 5.032 4.992 4.992 5.062 5.142 5.172 5.222
1668.566 5.272 5.262 5.292 5.342 5.412 5.442 5.422 5.432 5.582 5.732
1687.856 5.852 6.152 6.492 6.882 7.332 7.682 8.012 8.372 8.672 9.092
1707.146 9.682 10.412 11.242 12.102 13.162 14.522 16.252 18.532 21.842 26.672
1726.435 33.832 43.942 57.632 74.032 92.142 107.402 117.032 122.552 123.532 118.302
1745.725 108.342 99.912 97.282 99.212 101.422 101.482 99.122 93.902 84.282 70.482
1765.015 55.662 42.442 31.852 24.332 18.862 15.112 12.662 11.002 9.862 9.042
1784.305 8.382 7.892 7.552 7.282 7.072 6.892 6.702 6.532 6.342 6.132
1803.594 6.002 5.842 5.642 5.422 5.172 4.992 4.832 4.702 4.582 4.452
1822.884 4.382 4.222 4.022 3.862 3.672 3.462 3.222 2.962 2.732 2.572
1842.174 2.492 2.382 2.302 2.262 2.202 2.142 2.092 2.092 2.072 2.082
1861.464 2.122 2.162 2.222 2.282 2.272 2.312 2.382 2.472 2.532 2.532
1880.754 2.632 2.772 2.862 2.962 3.142 3.252 3.232 3.262 3.302 3.322
1900.043 3.232 3.112 2.942 2.722 2.442 2.152 1.912 1.692 1.572 1.5515
1919.333 1.572 1.5124 1.5033 1.5498 1.548 1.5687 1.612 1.652 1.722 1.782
1938.623 1.792 1.892 2.032 2.122 2.202 2.252 2.322 2.352 2.362 2.382
1957.913 2.382 2.402 2.352 2.292 2.252 2.152 2.042 1.992 1.922 1.822
1977.202 1.782 1.732 1.692 1.612 1.4914 1.4369 1.4049 1.3869 1.3512 1.2773
1996.492 1.2526 1.2617 1.3291 1.3649 1.3462 1.3295 1.342 1.3763 1.3893 1.3884
2015.782 1.4236 1.5321 1.555 1.5266 1.5298 1.582 1.632 1.602 1.5494 1.572
2035.072 1.632 1.652 1.692 1.742 1.742 1.752 1.762 1.822 1.892 1.922
2054.362 2.012 1.992 1.962 2.082 2.132 2.132 2.122 2.072 2.092 2.062
2073.651 1.992 1.972 1.902 1.812 1.802 1.822 1.762 1.652 1.622 1.592
2092.941 1.4956 1.434 1.3808 1.2848 1.2798 1.3337 1.3034 1.2443 1.2386 1.2509
2112.231 1.2297 1.2101 1.1554 1.137 1.1945 1.2544 1.2462 1.1883 1.1297 1.1148
2131.521 1.0921 1.0755 1.0847 1.1196 1.1218 1.1062 1.1249 1.122 1.1275 1.114
2150.810 1.1373 1.1353 1.1819 1.2515 1.2153 1.198 1.2343 1.259 1.192 1.1524
2170.100 1.1667 1.1332 1.1601 1.178 1.1499 1.1629 1.1706 1.1355 1.1099 1.1481
2189.390 1.1391 1.1036 1.1385 1.1358 1.136 1.1451 1.1449 1.1219 1.1014 1.1416
2208.680 1.1045 1.0712 1.123 1.1804 1.1993 1.1922 1.1738 1.2014 1.1751 1.1655
2227.970 1.1763 1.1635 1.2082 1.209 1.2333 1.2476 1.2893 1.3593 1.3389 1.3213
2247.259 1.3712 1.3701 1.371 1.3638 1.3167 1.3691 1.3497 1.281 1.3094 1.3202
2266.549 1.3158 1.3475 1.3069 1.2749 1.247 1.2155 1.2563 1.3002 1.2627 1.1974
2285.839 1.2155 1.1742 1.0709 1.0319 1.0308 1.0068 1.005 1.0293 1.0018 0.9915
2305.129 1.0719 1.0991 1.0436 0.9949 0.9895 1.02 0.9948 0.9757 0.9797 0.9579
2324.418 0.9812 0.9432 0.8951 0.9475 1.0122 1.0361 1.0696 1.0755 1.0905 1.0629
2343.708 1.0088 1.0216 0.9327 0.9074 0.9438 0.9294 0.8935 0.9118 0.9357 0.958
2362.998 0.9854 1.012 1.0719 1.0655 1.0021 1.0541 1.0998 1.0996 1.1477 1.136
2382.288 1.1032 1.0785 1.091 1.085 1.071 1.0714 1.0912 1.1275 1.1578 1.1753
2401.578 1.1515 1.1275 1.1215 1.0746 1.0203 1.0308 1.053 1.0788 1.0314 0.9654
2420.867 0.9748 1.0028 1.0209 0.9728 0.9672 0.969 0.9834 0.9878 0.9117 0.8739
2440.157 0.8807 0.9763 1.0875 1.0446 1.0326 1.0788 1.0928 1.0864 1.0838 1.0919
2459.447 1.0927 1.107 1.139 1.2943 1.2956 1.2568 1.3039 1.2081 1.1454 1.2181
2478.737 1.2647 1.2246 1.2495 1.246 1.1684 1.1193 1.1375 1.1596 1.1219 1.0867
2498.026 1.119 1.1229 1.1252 1.1477 1.1658 1.1764 1.1322 1.1278 1.1966 1.2602
2517.316 1.1931 1.2475 1.3218 1.3165 1.3793 1.3571 1.3445 1.3789 1.4564 1.5126
2536.606 1.4479 1.3793 1.3355 1.2825 1.2342 1.173 1.0866 1.0206 0.9906 1.0182
2555.896 1.0319 1.0287 1.0129 0.9605 0.9667 0.9184 0.9082 0.9661 0.9533 0.9288
2575.186 0.9839 1.0847 1.0965 1.0575 1.0578 0.9905 0.966 0.9945 0.9616 0.9964
2594.475 1.059 1.0458 0.9909 0.9979 1.0098 0.9343 0.9319 0.9956 0.9644 0.9399
2613.765 1.0615 1.1814 1.1261 0.966 0.9007 0.9562 1.042 1.0956 1.1283 1.0935
2633.055 1.0768 1.0928 1.0424 1.0854 1.0929 1.0702 1.1251 1.2072 1.1739 1.0706
2652.345 1.1241 1.1664 1.1018 0.9726 0.9487 0.9835 0.9963 1.0483 1.0831 1.0833
2671.634 1.1099 1.0921 1.1065 1.1426 1.1193 1.1866 1.2277 1.1788 1.1619 1.2234
2690.924 1.2397 1.1974 1.1034 1.0431 1.0768 1.0935 1.1277 1.0951 1.0899 1.1237
2710.214 1.0274 1.0042 1.0286 0.9432 0.9738 1.0992 1.0827 1.0606 0.9991 1.0026
2729.504 1.1185 1.124 1.1634 1.2375 1.2879 1.319 1.2603 1.3012 1.3613 1.3622
2748.794 1.3271 1.2478 1.3009 1.4103 1.3408 1.3155 1.341 1.3176 1.3464 1.3915
2768.083 1.4506 1.4116 1.4083 1.532 1.582 1.572 1.5357 1.5243 1.5663 1.622
2787.373 1.682 1.762 1.812 1.782 1.852 1.952 1.932 1.972 2.032 2.212
2806.663 2.442 2.412 2.492 2.682 2.792 2.962 3.092 3.132 3.222 3.392
2825.953 3.592 3.842 4.102 4.302 4.702 5.322 5.892 6.662 7.552 8.352
2845.242 9.262 10.002 10.392 10.482 10.252 9.712 8.992 8.242 7.552 7.022
2864.532 6.612 6.332 6.152 6.042 6.082 6.212 6.432 6.702 7.042 7.352
2883.822 7.542 7.812 8.062 8.122 8.232 8.402 8.642 8.942 9.182 9.592
2903.112 10.062 10.552 11.082 11.582 12.092 12.432 12.642 12.672 12.742 12.842
2922.401 12.792 12.772 12.902 13.232 13.832 14.722 15.812 17.112 18.822 20.742
2941.691 22.582 24.162 25.132 25.382 25.022 24.122 22.982 22.092 21.292 20.642
2960.981 20.372 20.262 20.372 20.582 20.772 21.122 21.542 22.012 22.732 23.942
2980.271 25.592 27.232 28.552 29.222 29.062 28.222 26.742 24.892 23.112 21.882
2999.561 20.922 20.162 19.762 19.342 19.012 18.562 17.902 17.142 16.162 15.012
3018.850 13.792 12.532 11.172 10.062 9.152 8.342 7.762 7.412 7.092 6.892
3038.140 6.742 6.552 6.572 6.852 7.102 7.152 7.202 7.302 7.412 7.542
3057.430 7.692 7.742 7.932 8.262 8.702 9.392 10.322 11.322 12.342 13.312
3076.720 13.662 13.452 12.972 11.982 10.502 8.892 7.312 6.082 5.272 4.542
3096.009 3.942 3.592 3.422 3.092 2.772 2.662 2.522 2.392 2.192 1.972
3115.299 1.912 1.882 1.822 1.662 1.5661 1.582 1.592 1.5226 1.4736 1.3637
3134.589 1.2442 1.3064 1.4028 1.3785 1.2497 1.2651 1.2377 1.0885 1.0581 0.9951
3153.879 1.005 1.0655 1.0578 1.2078 1.2848 1.1418 1.1167 1.1704 1.2075 1.2716
3173.169 1.2085 1.0611 1.0241 0.9817 0.8902 0.8342 0.9434 0.9281 0.8487 0.8758
3192.458 0.8091 0.7851 0.7289 0.7284 0.7115 0.7392 0.763 0.7089 0.7739 0.66845
3211.748 0.57792 0.7221 0.7931 0.7601 0.5578 0.472 0.5475 0.59516 0.5337 0.63642
3231.038 0.7362 0.5051 0.431 0.4845 0.475 0.401 0.38 0.4875 0.5515 0.5301
3250.328 0.5339 0.5314 0.4798 0.424 0.394 0.436 0.386 0.322 0.346 0.459
3269.617 0.403 0.264 0.4798 0.438 0.315 0.355 0.267 0.237 0.307 0.389
3288.907 0.299 0.301 0.43 0.412 0.338 0.364 0.428 0.5575 0.62104 0.5279
3308.197 0.5441 0.545 0.66077 0.65145 0.5005 0.66427 0.8256 0.7126 0.6813 0.7301
3327.487 0.6968 0.66647 0.58284 0.455 0.451 0.574118 0.60538 0.4867 0.5266 0.63055
3346.777 0.574456 0.5075 0.4747 0.434 0.32 0.4 0.404 0.377 0.346 0.291
3366.066 0.444 0.38 0.277 0.337 0.352 0.348 0.288 0.281 0.349 0.366
3385.356 0.4737 0.501 0.437 0.455 0.479 0.448 0.56654 0.5428 0.443 0.4842
3404.646 0.32 0.299 0.393 0.386 0.362 0.279 0.314 0.37 0.376 0.461
3423.936 0.42 0.384 0.5107 0.519 0.418 0.38 0.4741 0.59483 0.64293 0.59417
3443.225 0.59335 0.6946 0.7098 0.803 0.929 1.0699 1.2124 1.1117 0.9566 0.9614
3462.515 0.9726 1.0173 1.0037 0.8572 0.6813 0.63914 0.8093 0.9174 0.8864 0.8905
3481.805 0.9225 0.8822 0.947 0.992 0.9915 1.1291 1.1999 1.1253 1.0191 0.9282
3501.095 0.8697 0.7962 0.7044 0.64338 0.59119 0.65839 0.62375 0.452 0.352 0.381
3520.385 0.453 0.407 0.496 0.5013 0.313 0.326 0.448 0.38 0.32 0.351
3539.674 0.256 0.288 0.291 0.177 0.115 0.159 0.282 0.337 0.343 0.258
3558.964 0.196 0.156 0.181 0.368 0.37 0.263 0.18 0.149 0.181 0.232
3578.254 0.301 0.19 0.194 0.264 0.245 0.28 0.286 0.288 0.347 0.255
3597.544 0.246 0.335 0.157 0.079 0.094 0.13 0.294 0.282 0.164 0.135
3616.833 0.156 0.174 0.155 0.206 0.34 0.406 0.269 0.198 0.28 0.299
3636.123 0.316 0.279 0.214 0.228 0.167 0.074 0.157 0.422 0.5493 0.394
3655.413 0.239 0.157 0.294 0.324 0.224 0.284 0.334 0.377 0.295 0.261
3674.703 0.448 0.60684 0.58708 0.451 0.313 0.36 0.5266 0.58995 0.5479 0.334
3693.993 0.248 0.412 0.445 0.422 0.5219 0.5553 0.463 0.4797 0.446 0.318
3713.282 0.236 0.285 0.383 0.5304 0.5117 0.288 0.282 0.28 0.056 0
3732.572 0.217 0.359 0.369 0.394 0.367 0.249 0.335 0.429 0.4849 0.456
3751.862 0.324 0.294 0.404 0.417 0.183 0.198 0.289 0.325 0.351 0.21
3771.152 0.243 0.353 0.252 0.219 0.226 0.136 0.18 0.294 0.313 0.228
3790.441 0.165 0.177 0.234 0.286 0.386 0.446 0.304 0.215 0.38 0.5104
3809.731 0.458 0.343 0.236 0.325 0.372 0.291 0.318 0.437 0.278 0.105
3829.021 0.138 0.193 0.318 0.4 0.399 0.425 0.378 0.262 0.322 0.376
3848.311 0.418 0.382 0.319 0.159 0.178 0.393 0.5029 0.4867 0.451 0.398
3867.601 0.34 0.283 0.19 0.234 0.355 0.4857 0.5269 0.451 0.397 0.4956
3886.890 0.48 0.35 0.363 0.577282 0.62766 0.437 0.381 0.388 0.391 0.5067
3906.180 0.56796 0.59954 0.62903 0.576379 0.4811 0.317 0.277 0.463 0.5549 0.5185
3925.470 0.5388 0.4957 0.386 0.331 0.278 0.298 0.451 0.573587 0.4971 0.452
3944.760 0.45 0.464 0.580462 0.56597 0.448 0.395 0.421 0.4994 0.4892 0.4997
3964.049 0.5528 0.577646 0.5287 0.329 0.196 0.258 0.294 0.285 0.401 0.464
3983.339 0.432 0.389 0.331 0.46 0.513 0.436 0.37 0.307 0.421 0.393
##END=
