##TITLE=5-Methyl-5-hexen-2-ol
##JCAMP-DX=4.24
##DATA TYPE=INFRARED SPECTRUM
##ORIGIN=NIST Mass Spectrometry Data Center
##OWNER=NIST Standard Reference Data Program
Collection (C) 2018 copyright by the U.S. Secretary of Commerce
on behalf of the United States of America. All rights reserved.
##CAS REGISTRY NO=50551-88-7
##MOLFORM=C 7 H 14 O
##$NIST SOURCE=MSDC-IR
##SPECTROMETER/DATA SYSTEM=HP-GC/MS/IRD
##STATE=gas
##XUNITS=1/CM
##YUNITS=ABSORBANCE
##XFACTOR=1.0
##YFACTOR=0.000001400
##DELTAX=4.0
##FIRSTX=550.0
##LASTX=3846.0
##FIRSTY=0.000685
##MAXX=3846
##MINX=550
##MAXY=0.014
##MINY=0
##NPOINTS=825
##XYDATA=(X++(Y..Y))
550.0 489 427 403 399 359 308 249 220 254 262
590.0 221 155 145 180 195 157 75 42 108 92
630.0 10 34 57 43 28 4 30 83 114 100
670.0 76 69 79 115 109 68 83 93 51 39
710.0 59 72 78 38 34 82 106 103 102 130
750.0 119 108 139 160 158 156 148 125 130 214
790.0 276 291 282 238 270 298 315 343 365 377
830.0 412 468 510 571 681 835 943 1061 1269 1539
870.0 1916 2451 3143 3940 4671 5133 5163 4788 4152 3405
910.0 2710 2176 1884 1762 1734 1784 1878 1970 1996 1996
950.0 1989 1914 1776 1616 1454 1326 1210 1122 1101 1101
990.0 1128 1221 1332 1449 1521 1595 1658 1675 1701 1729
1030.0 1763 1819 1925 2021 2102 2250 2411 2513 2607 2703
1070.0 2809 2934 3058 3214 3402 3613 3808 3951 4036 4061
1110.0 4037 3934 3762 3537 3249 2937 2584 2231 1929 1679
1150.0 1484 1336 1245 1196 1186 1180 1198 1254 1320 1372
1190.0 1402 1425 1431 1454 1487 1514 1580 1688 1786 1867
1230.0 1986 2109 2204 2257 2266 2239 2183 2112 2032 1926
1270.0 1838 1762 1686 1605 1501 1405 1331 1254 1189 1144
1310.0 1116 1105 1124 1158 1203 1288 1375 1467 1582 1713
1350.0 1877 2078 2321 2624 2999 3441 3833 4066 4141 3990
1390.0 3558 3067 2627 2249 1963 1742 1620 1587 1602 1682
1430.0 1823 2024 2251 2458 2644 2759 2763 2621 2388 2089
1470.0 1787 1479 1182 959 798 657 546 474 412 383
1510.0 352 317 291 267 252 235 231 243 238 220
1550.0 225 239 254 238 241 263 275 284 292 311
1590.0 318 328 340 382 436 476 541 636 755 916
1630.0 1124 1375 1625 1825 1928 1925 1786 1513 1191 900
1670.0 672 496 367 293 239 188 173 166 147 134
1710.0 123 116 109 92 86 91 92 85 84 84
1750.0 88 98 109 121 159 215 245 269 298 318
1790.0 324 303 279 235 181 147 109 91 93 87
1830.0 76 68 53 44 48 41 32 30 34 39
1870.0 32 27 36 38 37 33 28 35 38 37
1910.0 34 32 28 28 31 31 31 29 15 6
1950.0 8 8 8 6 17 22 20 32 26 16
1990.0 22 27 22 25 28 16 22 22 21 31
2030.0 19 22 23 25 36 31 19 20 21 15
2070.0 15 9 0 2 6 7 14 28 33 17
2110.0 9 14 9 14 10 11 17 11 18 18
2150.0 18 26 21 7 11 26 26 17 19 29
2190.0 20 16 19 33 39 27 24 17 7 20
2230.0 26 26 19 23 32 29 29 20 29 27
2270.0 25 35 34 31 30 31 25 36 47 51
2310.0 49 49 60 67 72 82 84 78 83 62
2350.0 60 88 101 112 116 101 79 64 56 55
2390.0 60 56 55 66 61 48 45 43 45 45
2430.0 52 44 36 46 38 45 59 65 58 40
2470.0 33 46 50 44 51 56 55 52 48 48
2510.0 59 59 52 41 39 56 65 47 49 54
2550.0 60 74 69 60 51 60 68 70 69 68
2590.0 74 89 98 102 106 111 118 130 140 148
2630.0 162 167 169 175 182 198 208 208 190 197
2670.0 217 202 192 200 207 203 204 215 209 198
2710.0 215 245 251 264 280 285 296 317 338 346
2750.0 344 342 337 336 349 363 377 383 415 452
2790.0 490 529 566 602 658 726 797 884 986 1118
2830.0 1287 1498 1759 2060 2379 2739 3114 3480 3827 4140
2870.0 4419 4654 4851 5004 5123 5237 5373 5566 5858 6247
2910.0 6726 7291 7909 8561 9179 9672 9971 10000 9780 9367
2950.0 8833 8385 8185 8306 8766 9410 9743 9504 8815 7682
2990.0 6186 4708 3548 2715 2126 1710 1418 1220 1080 976
3030.0 895 839 801 792 819 868 971 1127 1328 1653
3070.0 2111 2517 2709 2750 2642 2273 1709 1238 897 652
3110.0 527 447 366 318 285 267 243 223 218 187
3150.0 159 143 139 149 136 110 130 133 102 111
3190.0 127 109 81 89 117 117 106 97 60 46
3230.0 38 18 25 45 41 48 55 48 43 28
3270.0 10 11 23 19 24 34 32 43 43 35
3310.0 34 41 23 20 50 51 58 51 43 59
3350.0 63 55 58 66 37 22 55 69 57 81
3390.0 112 100 73 72 85 83 86 85 100 102
3430.0 96 91 92 104 95 92 106 95 75 83
3470.0 77 52 79 109 111 110 96 81 75 66
3510.0 72 79 85 88 66 45 46 49 55 81
3550.0 100 98 87 89 94 92 96 105 130 163
3590.0 174 206 274 342 409 475 515 564 621 663
3630.0 721 787 870 982 1150 1271 1297 1244 1124 967
3670.0 764 566 415 317 266 220 175 132 111 124
3710.0 123 96 99 101 101 82 77 106 114 117
3750.0 97 88 85 83 82 84 64 53 71 69
3790.0 56 68 111 132 100 76 101 121 123 130
3830.0 136 139 126 119 124
##END=
