##TITLE=5-Methoxybenzofuran-2-carboxylic acid, ethyl ester
##JCAMP-DX=4.24
##DATA TYPE=INFRARED SPECTRUM
##ORIGIN=EPA-IR VAPOR PHASE LIBRARY
##OWNER=SRD/NIST
Collection (C) 2018 copyright by the U.S. Secretary of Commerce
on behalf of the United States of America. All rights reserved.
##CAS REGISTRY NO=50551-56-9
##MOLFORM=C 12 H 12 O 4
##$NIST SOURCE=MSDC-IR
##STATE=gas
##XUNITS=1/CM
##YUNITS=ABSORBANCE
##XFACTOR=1.
##YFACTOR=0.001
##DELTAX=1.92898
##FIRSTX=549.8
##LASTX=4000.7
##FIRSTY=5.431
##MAXX=4000.7
##MINX=549.759
##MAXY=0.461561
##MINY=0
##NPOINTS=1790
##XYDATA=(X++(Y..Y))
549.759 5.431 5.121 5.011 4.821 4.511 4.291 3.831 3.431 3.081 2.541
569.049 2.571 2.601 1.911 1.601 1.801 1.711 1.451 1.3722 1.431 1.651
588.339 1.531 1.3307 1.441 1.641 1.641 1.561 1.821 2.341 2.571 2.711
607.628 2.961 3.321 3.631 4.021 4.451 4.591 4.871 5.101 5.141 5.111
626.918 5.091 5.081 4.971 4.751 4.511 4.141 3.811 3.521 2.961 2.561
646.208 2.581 2.551 2.441 2.281 1.881 1.511 1.481 1.531 1.681 1.721
665.498 1.641 1.451 1.3315 1.411 1.611 1.701 1.541 1.441 1.381 1.511
684.787 1.771 1.801 1.681 1.731 1.901 2.141 2.211 2.241 2.451 2.671
704.077 2.851 2.911 2.961 3.111 3.461 3.851 4.211 4.741 5.531 6.391
723.367 7.461 8.861 10.481 12.511 14.551 16.501 18.851 21.221 23.281 25.961
742.657 30.171 35.931 42.311 47.711 51.401 53.101 52.061 48.881 45.561 43.771
761.947 43.451 42.641 40.271 37.221 33.881 30.361 26.541 22.951 20.161 17.991
781.236 16.601 16.231 16.771 17.821 19.461 21.801 24.901 28.471 32.191 35.971
800.526 39.451 42.451 45.061 46.961 47.131 45.531 43.351 41.041 38.441 36.101
819.816 33.881 31.701 30.271 29.471 29.411 30.181 31.731 34.131 37.011 40.541
839.106 44.471 48.241 51.361 53.121 53.451 52.461 50.511 48.281 46.211 44.161
858.395 42.201 40.611 39.101 37.031 34.221 30.981 27.491 23.901 20.411 17.301
877.685 14.411 12.061 10.281 8.811 7.851 7.081 6.571 6.291 5.981 5.701
896.975 5.441 5.171 5.231 5.441 5.431 5.321 5.231 5.491 5.761 5.791
916.265 6.061 6.731 7.371 8.061 9.101 10.191 11.731 13.531 15.231 16.891
935.555 18.241 19.681 21.281 22.571 23.681 24.581 24.691 24.291 23.801 22.701
954.844 20.861 18.551 16.281 14.461 12.801 11.451 10.551 10.001 9.621 9.441
974.134 9.661 9.851 9.951 10.411 10.941 11.501 12.291 13.141 13.991 14.751
993.424 15.791 17.311 19.061 20.941 23.341 26.301 29.701 33.901 39.031 44.941
1012.714 51.461 58.821 66.051 72.781 78.291 82.051 84.401 84.891 83.691 81.281
1032.003 77.901 73.211 67.531 61.401 55.221 48.961 43.361 38.451 33.871 30.371
1051.293 27.881 25.931 24.421 23.451 23.031 22.911 23.211 24.501 26.611 29.341
1070.583 33.141 38.431 45.191 53.671 64.721 77.761 92.561 109.331 127.071 145.801
1089.873 165.781 185.021 201.471 212.131 213.521 204.481 185.461 159.941 131.431 104.581
1109.163 83.391 67.821 56.741 49.341 44.201 40.361 37.771 36.511 35.871 35.911
1128.452 36.951 38.981 42.051 46.531 53.211 61.601 71.631 84.121 98.961 114.921
1147.742 129.661 141.591 149.681 153.601 153.061 149.171 144.051 139.061 136.361 138.331
1167.032 145.891 159.681 181.431 211.721 249.801 292.711 332.791 361.841 374.851 368.341
1186.322 344.531 310.611 275.621 249.131 235.601 235.671 249.321 275.191 309.801 350.011
1205.611 391.761 427.201 451.641 461.561 457.721 446.371 432.821 425.401 427.901 436.251
1224.901 446.271 453.341 448.941 430.631 397.781 352.701 302.181 252.531 208.281 170.681
1244.191 140.531 117.201 99.281 86.271 77.231 70.981 67.681 67.271 68.981 71.601
1263.481 73.451 74.471 74.531 73.131 71.441 71.061 72.901 77.001 82.551 89.681
1282.771 98.491 108.651 119.841 132.081 146.351 162.951 181.541 200.771 218.151 230.881
1302.060 236.831 235.381 227.031 214.041 199.111 184.101 169.311 154.271 138.851 123.441
1321.350 109.211 97.371 88.501 82.651 79.571 78.531 78.501 78.741 78.451 76.921
1340.640 73.791 69.141 63.271 56.661 50.071 44.211 39.521 36.311 34.811 35.001
1359.930 37.051 41.331 48.161 57.201 66.241 72.091 73.361 70.371 63.051 52.681
1379.219 42.591 35.241 30.551 27.781 26.181 25.351 25.091 25.101 25.071 24.831
1398.509 24.381 23.681 22.841 22.051 21.351 20.761 20.441 20.421 20.671 21.131
1417.799 21.871 23.001 24.651 26.941 30.111 34.261 39.771 46.631 54.691 63.011
1437.089 70.761 76.701 80.281 81.301 79.981 77.341 74.301 71.551 69.311 67.861
1456.378 67.711 69.161 72.591 78.251 86.011 95.461 105.241 113.891 119.241 119.561
1475.668 113.811 102.571 87.861 71.881 56.931 44.751 35.841 29.701 25.471 22.471
1494.958 20.281 18.621 17.281 16.171 15.301 14.561 13.831 13.211 12.861 12.591
1514.248 12.501 12.631 13.001 13.511 14.021 14.641 15.331 16.011 16.791 17.771
1533.538 18.911 20.341 22.231 24.801 27.981 31.971 37.171 43.841 52.661 64.671
1552.827 79.661 97.991 117.091 136.041 153.301 166.761 177.411 185.861 192.551 196.821
1572.117 195.881 187.021 168.941 143.921 116.271 90.211 70.241 56.441 47.711 42.121
1591.407 38.391 35.591 33.561 31.991 30.771 29.901 29.391 29.251 29.381 29.591
1610.697 29.841 29.891 29.861 29.701 29.101 28.371 27.631 26.591 25.321 23.851
1629.986 22.281 20.801 19.341 17.911 16.661 15.681 14.891 14.171 13.641 13.201
1649.276 12.771 12.641 12.491 12.201 12.001 11.811 11.741 11.711 11.631 11.551
1668.566 11.461 11.381 11.371 11.461 11.581 11.741 11.951 12.371 12.911 13.431
1687.856 14.091 14.931 15.721 16.361 17.171 17.971 18.781 19.711 20.701 22.091
1707.146 23.841 26.031 28.651 31.801 35.821 41.051 48.061 56.921 68.911 84.841
1726.435 105.431 131.141 162.411 196.611 230.161 254.251 265.981 270.071 263.491 245.421
1745.725 227.601 221.301 227.771 243.041 257.861 263.161 257.321 241.511 210.771 167.801
1765.015 126.991 95.801 73.111 56.751 44.371 35.341 28.951 24.421 21.151 18.731
1784.305 17.011 15.721 14.801 14.131 13.651 13.251 12.961 12.751 12.651 12.531
1803.594 12.401 12.251 12.111 11.971 11.781 11.561 11.271 10.951 10.651 10.341
1822.884 10.091 9.811 9.491 9.221 8.941 8.641 8.411 8.191 7.941 7.751
1842.174 7.661 7.591 7.561 7.541 7.571 7.611 7.611 7.691 7.741 7.771
1861.464 7.791 7.731 7.631 7.431 7.131 6.751 6.411 6.121 5.811 5.511
1880.754 5.291 5.101 4.891 4.711 4.541 4.411 4.311 4.161 4.041 3.951
1900.043 3.861 3.791 3.711 3.611 3.561 3.511 3.421 3.391 3.331 3.291
1919.333 3.281 3.231 3.221 3.231 3.241 3.281 3.311 3.341 3.391 3.471
1938.623 3.581 3.661 3.721 3.771 3.831 3.951 4.021 4.041 4.071 4.111
1957.913 4.101 4.091 4.141 4.071 3.931 3.781 3.611 3.551 3.471 3.231
1977.202 3.081 3.021 2.941 2.831 2.711 2.641 2.601 2.521 2.511 2.491
1996.492 2.451 2.491 2.511 2.571 2.641 2.681 2.781 2.911 3.021 3.121
2015.782 3.201 3.281 3.391 3.501 3.641 3.761 3.891 4.061 4.191 4.321
2035.072 4.471 4.671 4.871 5.011 5.141 5.261 5.351 5.371 5.351 5.311
2054.362 5.231 5.181 5.061 4.951 4.831 4.661 4.541 4.391 4.221 4.061
2073.651 3.881 3.691 3.501 3.301 3.181 3.051 2.891 2.831 2.751 2.691
2092.941 2.631 2.561 2.471 2.411 2.391 2.361 2.301 2.301 2.281 2.251
2112.231 2.261 2.251 2.231 2.201 2.181 2.181 2.181 2.201 2.201 2.241
2131.521 2.281 2.361 2.381 2.381 2.421 2.411 2.411 2.381 2.391 2.391
2150.810 2.341 2.351 2.361 2.361 2.331 2.321 2.401 2.431 2.451 2.441
2170.100 2.411 2.481 2.471 2.441 2.451 2.451 2.501 2.501 2.441 2.371
2189.390 2.271 2.221 2.221 2.211 2.171 2.111 2.081 2.101 2.091 2.041
2208.680 2.071 2.161 2.271 2.401 2.461 2.541 2.641 2.711 2.781 2.751
2227.970 2.711 2.771 2.871 2.901 2.871 2.851 2.821 2.821 2.761 2.641
2247.259 2.541 2.471 2.401 2.331 2.251 2.221 2.181 2.091 2.011 1.921
2266.549 1.881 1.831 1.721 1.671 1.681 1.631 1.621 1.591 1.471 1.421
2285.839 1.461 1.531 1.561 1.621 1.661 1.671 1.701 1.751 1.851 1.881
2305.129 1.881 1.971 2.031 2.031 2.101 2.141 2.101 2.081 2.121 2.121
2324.418 2.051 1.961 1.921 1.931 1.931 1.961 1.941 1.931 1.901 1.901
2343.708 1.901 1.881 1.921 1.981 1.951 1.891 1.911 2.011 2.071 2.031
2362.998 1.971 1.981 2.021 2.081 1.991 1.991 2.111 2.101 2.081 2.081
2382.288 2.081 2.031 2.071 2.141 2.161 2.171 2.201 2.251 2.311 2.391
2401.578 2.431 2.461 2.441 2.521 2.581 2.571 2.531 2.501 2.481 2.441
2420.867 2.381 2.331 2.241 2.091 2.071 2.071 1.981 1.941 1.851 1.861
2440.157 1.951 1.891 1.831 1.831 1.841 1.801 1.761 1.791 1.771 1.751
2459.447 1.741 1.761 1.821 1.801 1.801 1.851 1.901 1.951 1.931 1.931
2478.737 2.011 2.041 2.101 2.131 2.151 2.191 2.201 2.251 2.281 2.321
2498.026 2.341 2.341 2.381 2.421 2.391 2.241 2.181 2.181 2.191 2.131
2517.316 2.021 1.941 1.911 1.911 1.881 1.811 1.841 2.001 2.011 1.911
2536.606 1.881 1.951 2.001 1.991 2.011 2.081 2.191 2.291 2.341 2.341
2555.896 2.361 2.471 2.521 2.501 2.481 2.521 2.491 2.371 2.261 2.181
2575.186 2.091 2.081 2.091 2.041 2.021 2.021 2.011 1.991 1.971 1.951
2594.475 1.991 2.011 1.961 1.851 1.811 1.791 1.791 1.841 1.801 1.761
2613.765 1.851 1.921 1.861 1.801 1.861 1.801 1.721 1.671 1.571 1.571
2633.055 1.641 1.631 1.561 1.571 1.631 1.651 1.631 1.561 1.511 1.551
2652.345 1.541 1.471 1.421 1.3566 1.451 1.631 1.631 1.621 1.671 1.771
2671.634 1.831 1.781 1.801 1.881 1.841 1.801 1.871 1.931 1.901 1.871
2690.924 1.821 1.781 1.721 1.731 1.781 1.711 1.751 1.791 1.771 1.811
2710.214 1.791 1.781 1.751 1.701 1.731 1.761 1.801 1.861 1.941 1.991
2729.504 2.071 2.151 2.091 2.251 2.351 2.311 2.321 2.311 2.371 2.471
2748.794 2.571 2.651 2.661 2.711 2.821 2.831 2.851 2.951 2.961 2.971
2768.083 3.151 3.361 3.531 3.651 3.711 3.661 3.621 3.711 3.851 3.921
2787.373 4.051 4.181 4.241 4.331 4.411 4.551 4.841 5.121 5.331 5.581
2806.663 5.901 6.301 6.691 7.121 7.681 8.201 8.691 9.291 10.051 10.861
2825.953 11.861 13.151 14.651 16.641 19.201 22.091 24.941 27.181 28.341 28.361
2845.242 27.201 25.111 22.641 20.351 18.561 17.211 16.341 15.811 15.401 15.211
2864.532 15.241 15.441 15.791 16.301 16.881 17.591 18.451 19.271 20.151 21.291
2883.822 22.381 23.211 23.801 24.121 24.421 24.691 24.961 25.371 25.991 26.781
2903.112 27.551 28.511 29.601 30.551 31.611 32.531 33.171 33.621 33.981 34.281
2922.401 34.581 35.101 35.861 37.081 38.821 41.101 44.161 47.911 52.301 57.011
2941.691 61.281 64.391 65.781 65.561 63.911 60.921 57.531 54.581 52.131 50.191
2960.981 48.621 47.491 46.801 46.471 46.391 46.591 47.281 48.621 50.801 54.101
2980.271 58.731 63.851 68.161 70.651 70.661 68.271 64.361 60.291 57.421 56.371
2999.561 56.931 58.411 59.981 60.491 59.121 55.611 50.141 43.491 36.611 30.661
3018.850 26.141 22.741 20.181 18.251 16.801 15.621 14.611 13.781 13.081 12.531
3038.140 12.121 11.651 11.191 10.811 10.431 10.011 9.771 9.531 9.241 9.031
3057.430 8.931 8.921 8.921 8.971 9.071 9.221 9.341 9.661 10.231 10.781
3076.720 11.221 11.581 11.761 11.691 11.491 11.181 10.761 10.231 9.631 9.041
3096.009 8.591 8.301 8.041 7.721 7.221 6.721 6.181 5.621 5.031 4.581
3115.299 4.241 3.831 3.591 3.441 3.291 3.071 2.981 2.911 2.911 2.871
3134.589 2.741 2.741 2.741 2.621 2.611 2.661 2.641 2.621 2.541 2.401
3153.879 2.231 2.231 2.211 2.041 1.871 1.821 1.781 1.701 1.741 1.861
3173.169 1.901 1.821 1.771 1.751 1.741 1.651 1.541 1.521 1.461 1.431
3192.458 1.471 1.451 1.3311 1.247 1.2779 1.3492 1.2584 1.1521 1.2301 1.2596
3211.748 1.0487 0.9577 0.997 0.878 0.8812 0.984 0.9075 0.8807 0.8631 0.8213
3231.038 0.8844 0.8802 0.7468 0.7169 0.6811 0.6563 0.6459 0.5855 0.6068 0.551
3250.328 0.5522 0.5134 0.3412 0.2819 0.341 0.3656 0.2885 0.239 0.3382 0.37322
3269.617 0.3395 0.3528 0.43605 0.40716 0.2993 0.37898 0.43836 0.3636 0.45479 0.583
3288.907 0.5375 0.5475 0.6197 0.7866 0.849 0.7662 0.8347 1.0169 1.0888 1.2057
3308.197 1.3346 1.381 1.441 1.3809 1.421 1.3428 1.1305 1.0682 1.0694 1.0461
3327.487 0.9004 0.6275 0.5129 0.4709 0.5158 0.5389 0.47218 0.5479 0.5294 0.44775
3346.777 0.43616 0.5001 0.5432 0.5256 0.4884 0.45603 0.41431 0.41618 0.5309 0.6032
3366.066 0.5707 0.4828 0.34 0.43907 0.6285 0.7573 0.7476 0.5353 0.44418 0.45516
3385.356 0.5939 0.6416 0.5011 0.37413 0.3388 0.387793 0.3556 0.3443 0.40785 0.3959
3404.646 0.46301 0.541 0.498 0.45934 0.43831 0.4857 0.5125 0.5638 0.545 0.5005
3423.936 0.4855 0.5488 0.5824 0.6272 0.7313 0.7274 0.8967 1.0526 1.1775 1.2809
3443.225 1.3616 1.641 1.801 1.841 2.011 2.241 2.321 2.191 2.151 2.131
3462.515 1.911 1.731 1.641 1.451 1.401 1.441 1.35 1.2976 1.334 1.401
3481.805 1.501 1.551 1.581 1.691 1.801 2.001 2.101 2.061 1.961 1.811
3501.095 1.641 1.451 1.3423 1.1905 1.0798 1.0108 0.7573 0.6766 0.7598 0.6843
3520.385 0.5368 0.5421 0.5574 0.3686 0.3175 0.388699 0.3625 0.42299 0.3453 0.248
3539.674 0.43838 0.45177 0.382742 0.43419 0.3577 0.39232 0.4477 0.2915 0.175 0.177
3558.964 0.205 0.3484 0.389326 0.3503 0.244 0.106 0.169 0.249 0.274 0.3261
3578.254 0.2983 0.197 0.185 0.193 0.11 0.045 0.17 0.226 0.233 0.3219
3597.544 0.279 0.27 0.26 0.174 0.108 0.227 0.3647 0.242 0.158 0.112
3616.833 0.159 0.3066 0.37209 0.221 0.165 0.251 0.227 0.134 0.146 0.234
3636.123 0.253 0.264 0.212 0.133 0.165 0.164 0.206 0.231 0.134 0.223
3655.413 0.169 0.185 0.2856 0.3015 0.3245 0.257 0.239 0.3111 0.2843 0.208
3674.703 0.25 0.21 0.162 0.253 0.3383 0.3557 0.266 0.228 0.3176 0.2909
3693.993 0.17 0.15 0.259 0.173 0 0.035 0.143 0.207 0.264 0.297
3713.282 0.218 0.241 0.3305 0.3455 0.3013 0.3217 0.3375 0.2982 0.254 0.228
3732.572 0.3023 0.43681 0.42098 0.237 0.222 0.277 0.3348 0.37556 0.41234 0.44474
3751.862 0.44051 0.44787 0.40696 0.3517 0.274 0.294 0.3286 0.206 0.131 0.22
3771.152 0.245 0.253 0.17 0.127 0.21 0.236 0.2824 0.228 0.239 0.2821
3790.441 0.19 0.235 0.3657 0.44103 0.5391 0.5158 0.511 0.5943 0.5147 0.41427
3809.731 0.44831 0.37301 0.501 0.7092 0.5152 0.4844 0.5514 0.4898 0.4683 0.45218
3829.021 0.594 0.6443 0.5479 0.5474 0.5089 0.4799 0.4826 0.45328 0.41055 0.4893
3848.311 0.5061 0.4856 0.6094 0.6336 0.7062 0.6976 0.46883 0.3534 0.41548 0.5109
3867.601 0.5388 0.6722 0.6464 0.5095 0.6366 0.7538 0.7055 0.6194 0.5462 0.5671
3886.890 0.6623 0.6585 0.5564 0.5296 0.5409 0.387296 0.3255 0.41287 0.3603 0.3183
3906.180 0.47664 0.5421 0.47599 0.2883 0.273 0.39252 0.380075 0.4981 0.5264 0.562
3925.470 0.636 0.5864 0.5896 0.6063 0.5559 0.46521 0.4923 0.5118 0.5006 0.6132
3944.760 0.7038 0.713 0.6354 0.5379 0.5612 0.611 0.6361 0.7381 0.8596 0.9393
3964.049 0.8271 0.718 0.7843 0.764 0.6889 0.7355 0.8056 0.8685 0.8817 0.8067
3983.339 0.7895 0.8808 0.9687 1.0358 0.9129 0.8447 0.9407 1.0205 1.0159 1.0162
##END=
