##TITLE=Stearolic acid
##JCAMP-DX=4.24
##DATA TYPE=INFRARED SPECTRUM
##ORIGIN=EPA-IR VAPOR PHASE LIBRARY
##OWNER=SRD/NIST
Collection (C) 2018 copyright by the U.S. Secretary of Commerce
on behalf of the United States of America. All rights reserved.
##CAS REGISTRY NO=506-24-1
##MOLFORM=C 18 H 32 O 2
##$NIST SOURCE=MSDC-IR
##STATE=gas
##XUNITS=1/CM
##YUNITS=ABSORBANCE
##XFACTOR=1.
##YFACTOR=0.001
##DELTAX=1.92898
##FIRSTX=549.8
##LASTX=4000.7
##FIRSTY=15.743
##MAXX=4000.7
##MINX=549.759
##MAXY=0.265113
##MINY=0
##NPOINTS=1790
##XYDATA=(X++(Y..Y))
549.759 15.743 16.063 15.973 16.133 16.963 18.133 18.023 17.633 17.473 17.783
569.049 17.743 17.643 17.913 17.553 17.603 17.573 17.343 17.593 18.403 19.133
588.339 19.343 18.903 18.503 19.023 19.363 19.733 20.033 19.883 19.913 19.823
607.628 19.723 19.543 19.153 18.833 18.583 18.593 18.593 18.313 17.703 17.443
626.918 17.203 16.733 16.163 15.743 15.303 14.673 13.673 12.893 12.603 11.793
646.208 10.993 10.473 9.973 9.213 8.843 8.433 8.093 8.153 7.783 7.703
665.498 7.683 7.353 7.213 7.013 6.803 6.953 7.133 6.983 6.673 6.643
684.787 6.873 6.983 7.133 7.173 6.933 6.733 6.803 7.123 7.153 7.033
704.077 7.543 7.873 7.903 7.893 8.073 9.033 9.453 9.283 9.233 9.123
723.367 8.953 8.873 9.143 8.993 8.613 8.483 8.023 7.623 7.223 6.543
742.657 6.363 6.673 6.563 6.193 6.173 6.043 5.913 5.973 5.413 5.063
761.947 5.223 4.793 4.403 4.623 4.833 4.593 4.013 3.713 3.833 4.023
781.236 3.833 3.443 3.083 3.163 3.233 3.173 3.213 3.003 2.883 2.923
800.526 2.653 2.253 2.163 2.303 2.523 2.923 2.773 2.703 3.003 2.753
819.816 2.533 2.443 2.413 2.683 2.953 3.123 3.183 3.063 2.963 2.833
839.106 2.613 2.753 3.023 2.873 2.693 2.913 2.793 2.623 2.813 2.883
858.395 3.023 3.043 3.163 3.153 2.763 2.763 2.753 2.793 3.093 2.983
877.685 2.843 2.833 2.923 2.993 3.083 2.883 2.853 3.263 3.293 3.253
896.975 2.933 2.753 2.913 2.743 2.503 2.613 2.903 3.013 2.913 2.903
916.265 2.903 2.493 2.323 2.673 2.683 2.843 3.263 3.013 2.703 2.893
935.555 2.753 2.643 2.833 2.923 3.253 3.483 3.233 3.123 3.163 3.343
954.844 3.683 3.803 3.733 3.513 3.513 3.873 3.893 3.523 3.623 3.913
974.134 4.073 4.043 4.003 3.983 4.023 4.173 4.093 4.293 4.923 4.953
993.424 4.843 5.013 5.113 5.853 6.463 6.283 6.013 5.933 6.303 6.583
1012.714 6.273 6.603 7.183 7.733 7.853 7.943 8.183 7.583 7.693 8.693
1032.003 9.323 9.273 9.283 9.733 10.493 10.683 10.973 12.153 12.763 13.093
1051.293 13.873 14.833 15.483 17.083 18.733 19.663 21.413 23.243 24.833 26.133
1070.583 27.073 27.843 28.503 29.793 31.503 32.083 32.513 33.463 33.443 33.703
1089.873 34.893 35.163 35.073 35.843 36.513 37.683 39.243 40.323 42.443 45.423
1109.163 49.003 52.103 54.643 57.363 59.703 61.573 62.623 62.543 61.533 59.813
1128.452 57.553 54.463 50.693 47.703 45.093 43.223 41.263 38.753 37.033 36.273
1147.742 35.763 33.843 33.103 32.843 31.713 31.063 30.513 29.223 28.153 27.993
1167.032 27.483 26.823 26.573 25.943 24.843 24.443 23.543 22.383 21.793 20.953
1186.322 20.903 20.503 19.343 18.383 18.133 18.063 18.083 17.733 16.933 16.193
1205.611 15.353 14.863 14.303 13.443 13.013 13.593 13.573 13.153 13.403 12.603
1224.901 11.143 10.973 10.793 11.063 11.273 10.913 11.143 12.023 12.723 12.413
1244.191 11.773 11.333 11.343 11.883 12.043 11.693 11.743 12.023 12.453 12.453
1263.481 12.103 12.553 12.613 12.263 12.343 12.523 12.813 12.743 12.493 12.663
1282.771 13.023 12.963 12.813 12.873 12.893 12.983 13.053 12.953 12.983 13.273
1302.060 13.293 13.433 13.733 13.813 13.893 13.973 14.323 14.773 15.253 15.963
1321.350 16.993 18.363 19.813 21.303 22.633 23.563 23.843 23.613 23.043 22.203
1340.640 21.713 21.693 21.903 22.183 22.433 22.573 22.673 22.523 22.273 22.063
1359.930 21.853 21.653 21.653 21.713 21.393 21.233 21.193 21.043 20.953 20.713
1379.219 20.413 20.173 19.833 19.063 18.103 17.153 15.903 14.723 13.813 12.853
1398.509 11.833 11.093 10.623 10.143 9.663 9.343 9.203 9.183 9.153 9.173
1417.799 9.393 9.773 10.213 10.723 11.473 12.383 13.553 14.993 16.773 18.473
1437.089 20.033 21.473 22.233 22.303 22.243 22.113 22.263 22.773 23.133 23.773
1456.378 24.483 25.013 25.063 24.473 23.423 21.993 20.333 18.463 16.393 14.333
1475.668 12.563 10.913 9.533 8.353 7.433 6.693 5.993 5.313 4.903 4.673
1494.958 4.253 3.963 3.743 3.473 3.303 3.063 2.653 2.583 2.623 2.393
1514.248 2.313 2.303 2.283 2.083 2.043 2.163 2.033 1.953 2.023 1.823
1533.538 1.673 1.683 1.653 1.713 1.723 1.733 1.613 1.593 1.623 1.513
1552.827 1.313 1.273 1.403 1.283 1.183 1.373 1.503 1.453 1.413 1.343
1572.117 1.173 1.223 1.383 1.443 1.423 1.393 1.453 1.363 1.333 1.413
1591.407 1.393 1.293 1.153 1.243 1.403 1.483 1.583 1.413 1.133 1.113
1610.697 1.203 1.193 1.213 1.0756 0.8596 0.9968 1.143 1.133 1.143 1.044
1629.986 1.203 1.373 1.253 1.263 1.243 1.193 1.363 1.373 1.103 1.0524
1649.276 1.213 1.263 1.133 1.143 1.333 1.433 1.453 1.413 1.413 1.573
1668.566 1.713 1.723 1.813 1.813 1.863 1.923 1.993 2.003 1.963 2.243
1687.856 2.533 2.673 2.723 2.783 2.843 3.143 3.373 3.543 3.923 4.303
1707.146 4.683 5.013 5.363 5.993 6.603 7.143 7.903 8.833 9.763 10.783
1726.435 12.023 13.283 14.633 16.083 17.853 19.953 22.153 24.493 27.093 30.013
1745.725 33.003 36.113 39.513 43.153 47.183 51.403 55.963 60.933 66.463 72.783
1765.015 79.473 86.393 93.623 100.633 106.813 111.163 112.883 111.413 106.863 100.343
1784.305 92.633 84.573 76.963 69.863 63.463 57.863 52.723 47.763 43.133 38.893
1803.594 34.933 31.003 27.293 24.013 21.083 18.303 15.903 13.963 12.173 10.523
1822.884 9.303 8.303 7.333 6.443 5.923 5.503 4.813 4.233 3.973 3.813
1842.174 3.463 3.073 2.803 2.683 2.653 2.563 2.343 2.223 2.073 1.953
1861.464 1.983 1.883 1.713 1.593 1.603 1.513 1.493 1.563 1.533 1.483
1880.754 1.493 1.483 1.293 1.233 1.293 1.383 1.263 1.153 1.243 1.193
1900.043 1.203 1.173 1.0771 1.0786 1.113 1.0861 1.193 1.263 1.133 1.113
1919.333 1.133 1.0357 1.0164 1.0086 1.0159 1.0799 1.078 1.0605 0.9834 0.9872
1938.623 0.9096 0.8358 0.9213 0.961 0.9922 0.9822 1.0654 1.0519 0.9276 0.8603
1957.913 0.8793 0.9997 0.9616 0.8819 0.901 0.9601 0.8992 0.9026 0.9819 0.9179
1977.202 0.8417 0.7789 0.7732 0.8678 0.9513 0.8723 0.6272 0.5936 0.7214 0.8264
1996.492 0.9205 0.9155 0.8381 0.8655 0.9601 0.9067 0.8752 0.9896 1.0321 0.9945
2015.782 0.9834 0.989 0.9554 0.9139 0.8862 0.867 0.8228 0.8685 0.9913 1.0115
2035.072 1.0694 1.0187 0.9441 0.9231 0.8848 0.839 0.8124 0.9104 0.892 0.7909
2054.362 0.8168 0.8902 0.9188 0.9488 0.9066 0.9166 0.9193 0.8819 0.9136 0.8764
2073.651 0.763 0.7901 0.8301 0.7193 0.7091 0.7697 0.7839 0.7972 0.8846 0.8929
2092.941 0.8711 0.8313 0.81 0.8578 0.8189 0.7605 0.6878 0.7146 0.7915 0.7942
2112.231 0.7084 0.6975 0.8867 0.8653 0.8549 0.9265 0.7852 0.7172 0.7252 0.7263
2131.521 0.756 0.7679 0.7887 0.8376 0.9825 1.0362 0.8419 0.8142 0.8735 0.8702
2150.810 0.968 1.0579 1.0628 1.133 1.163 0.9906 0.9352 0.9552 0.9813 1.0466
2170.100 0.9914 0.9287 0.9317 0.9377 0.9637 1.0273 1.0611 1.0472 1.0133 0.9532
2189.390 0.9757 1.113 1.223 1.123 1.0934 1.183 1.0847 1.0008 1.048 1.021
2208.680 1.063 1.143 1.123 1.0701 0.9679 0.9821 0.9698 1.0392 1.163 1.0833
2227.970 1.0755 1.133 1.153 1.103 1.0204 0.9951 1.0526 1.1014 1.0428 1.0104
2247.259 1.113 1.183 1.0932 0.9714 0.9521 0.898 0.9007 0.9284 0.9592 1.0192
2266.549 1.0229 0.9293 0.8424 0.8988 0.9048 0.9073 0.8714 0.8362 0.882 0.8873
2285.839 0.9241 0.9167 0.8668 0.884 0.9287 0.9531 1.0385 0.861 0.7039 0.9393
2305.129 1.0268 0.913 0.7443 0.7107 0.8085 0.9529 0.9464 0.8145 0.7811 0.8178
2324.418 0.9408 0.9752 0.9416 0.8972 0.891 1.0466 0.9123 0.7469 0.8945 0.95
2343.708 0.985 1.0522 0.9368 0.8974 1.0203 1.0041 0.8906 0.8786 0.8841 0.8144
2362.998 0.8752 0.9264 0.7701 0.7047 0.854 0.9728 0.8471 0.8145 0.9004 0.8668
2382.288 0.8658 0.8647 0.9517 0.9991 1.0313 1.0428 0.9582 0.9541 1.0224 0.9665
2401.578 0.772 0.8375 0.9472 0.8678 0.9399 1.0579 1.0017 0.9494 0.9371 0.8631
2420.867 0.7968 0.8464 0.9012 0.935 0.9404 0.8316 0.6805 0.7351 0.891 0.9972
2440.157 1.0052 0.9561 0.8853 0.8053 0.7371 0.597 0.5556 0.6704 0.787 0.8043
2459.447 0.9285 1.0854 1.143 0.9794 0.8856 1.093 1.0352 0.9428 0.9844 0.9057
2478.737 0.8918 0.8745 0.9394 1.032 0.873 0.7686 0.8638 0.8555 0.9126 0.9165
2498.026 0.8599 0.9056 0.9721 1.0169 0.9911 0.9757 1.0017 1.0338 1.0438 1.0587
2517.316 1.0617 1.113 1.0713 1.0111 1.0821 1.0989 1.0809 1.0803 1.0673 1.123
2536.606 1.0596 1.0024 1.143 1.253 1.113 1.123 1.263 1.293 1.293 1.183
2555.896 1.173 1.203 1.0914 1.203 1.283 1.273 1.393 1.353 1.203 1.163
2575.186 1.383 1.513 1.473 1.473 1.343 1.193 1.233 1.423 1.493 1.433
2594.475 1.473 1.413 1.463 1.573 1.443 1.503 1.703 1.703 1.583 1.573
2613.765 1.573 1.533 1.563 1.663 1.753 1.863 2.003 1.983 2.003 2.073
2633.055 2.063 2.133 2.233 2.123 2.173 2.423 2.483 2.493 2.363 2.353
2652.345 2.423 2.343 2.473 2.593 2.533 2.583 2.713 2.873 2.853 2.743
2671.634 2.783 2.863 2.883 2.913 2.953 2.983 3.163 3.173 3.003 3.003
2690.924 3.023 2.923 2.833 2.763 2.713 2.613 2.623 2.753 2.713 2.603
2710.214 2.633 2.383 2.353 2.503 2.513 2.473 2.423 2.603 2.663 2.663
2729.504 2.853 2.833 2.763 3.043 3.163 3.133 3.183 3.103 3.033 2.943
2748.794 3.003 3.243 3.423 3.433 3.093 3.203 3.493 3.243 3.403 3.873
2768.083 3.863 3.673 3.743 3.883 3.863 3.913 3.923 4.083 4.493 4.703
2787.373 4.813 4.933 5.023 5.333 5.723 5.973 6.213 6.583 6.763 6.803
2806.663 7.223 7.623 7.893 8.243 8.623 9.153 9.693 10.103 10.573 11.373
2825.953 12.183 12.903 13.793 15.133 16.523 17.963 19.943 22.133 24.973 28.643
2845.242 32.883 38.083 44.003 50.523 57.623 64.973 72.763 80.493 87.323 92.503
2864.532 95.213 95.173 92.333 87.503 81.993 76.473 71.083 66.563 63.083 60.113
2883.822 57.753 55.823 54.113 52.873 52.423 52.963 54.283 56.643 59.963 64.443
2903.112 69.993 76.403 83.853 91.653 99.743 108.383 117.603 127.613 139.043 152.493
2922.401 167.403 183.273 200.293 217.523 233.553 247.933 258.943 264.993 265.113 259.043
2941.691 247.383 230.613 209.803 187.383 165.883 146.583 130.103 116.843 106.643 99.053
2960.981 93.173 88.553 85.063 81.073 75.813 70.063 63.633 56.313 49.203 43.213
2980.271 38.033 33.613 30.003 27.083 24.873 22.873 20.763 18.783 17.183 15.843
2999.561 14.643 13.603 12.643 11.763 11.073 10.413 9.793 9.263 8.923 8.533
3018.850 8.063 7.473 7.083 6.863 6.513 6.323 6.073 5.843 5.773 5.513
3038.140 5.163 4.943 4.833 4.643 4.193 4.013 4.213 4.153 3.843 3.613
3057.430 3.303 3.143 3.123 2.993 2.933 3.033 3.003 2.873 2.873 2.703
3076.720 2.623 2.633 2.523 2.403 2.363 2.453 2.453 2.303 2.373 2.483
3096.009 2.283 2.273 2.243 1.953 1.963 2.023 1.913 1.703 1.683 1.733
3115.299 1.683 1.613 1.423 1.473 1.363 1.233 1.343 1.513 1.563 1.493
3134.589 1.533 1.753 1.773 1.593 1.503 1.323 1.353 1.533 1.463 1.373
3153.879 1.213 0.9769 1.113 1.233 1.153 1.103 0.9938 0.977 1.0982 1.283
3173.169 1.313 1.263 1.263 1.493 1.513 1.313 1.273 1.0704 1.113 1.133
3192.458 1.243 1.143 0.7505 0.9488 0.961 0.8114 0.7983 0.8488 0.8975 0.7766
3211.748 0.7505 0.8496 0.8539 0.7478 0.9099 1.0691 0.8598 0.5822 0.6945 0.6212
3231.038 0.5907 0.6104 0.6465 0.6045 0.6897 1.0298 0.95 0.7946 0.4978 0.6329
3250.328 0.6887 0.5108 0.8227 0.842 0.5135 0.4677 0.5854 0.4826 0.3943 0.3576
3269.617 0.414 0.5502 0.5166 0.4146 0.5616 0.7996 0.9131 0.795 0.7743 0.7296
3288.907 0.699 0.8127 0.4431 0.396 0.4487 0.596 0.7907 0.5897 0.6063 0.741
3308.197 0.5911 0.4643 0.4899 0.5454 0.7213 0.6265 0.5467 0.5654 0.4821 0.4978
3327.487 0.19459 0 0.2284 0.3284 0.5647 0.6896 0.5932 0.8021 0.8293 0.6099
3346.777 0.6515 0.6211 0.5461 0.6612 0.7822 0.6826 0.4806 0.632 0.7744 0.6947
3366.066 0.6797 0.5606 0.5853 0.5642 0.3444 0.3421 0.18434 0.266 0.5515 0.45
3385.356 0.3488 0.5216 0.5824 0.49 0.4282 0.421 0.5269 0.8352 0.8871 0.6307
3404.646 0.4482 0.19896 0.3981 0.423 0.09613 0.19548 0.3115 0.5762 0.6125 0.3292
3423.936 0.4445 0.411 0.456 0.5451 0.5906 0.7384 0.6222 0.6162 0.7315 0.8496
3443.225 0.7322 0.6552 0.8074 0.6965 0.6062 0.6669 0.6044 0.4597 0.4752 0.503
3462.515 0.3526 0.347 0.4314 0.6106 0.6635 0.7667 0.8997 0.7297 0.5986 0.4292
3481.805 0.4046 0.6897 0.884 0.5332 0.4523 0.7754 0.7662 0.799 1.0818 1.163
3501.095 0.8485 0.6635 0.8984 1.0157 1.0122 1.273 1.453 1.633 1.653 1.573
3520.385 1.593 1.793 1.813 1.803 2.003 2.153 2.353 2.563 2.733 2.643
3539.674 2.833 3.133 3.613 4.083 4.413 5.013 5.853 6.643 7.473 8.903
3558.964 10.653 12.953 16.013 20.013 25.353 32.033 38.983 44.833 47.853 46.423
3578.254 41.273 33.843 25.943 19.543 15.103 11.963 9.573 7.853 6.353 5.253
3597.544 4.473 3.903 3.573 3.103 2.743 2.583 2.493 2.203 1.993 1.893
3616.833 1.683 1.573 1.673 1.723 1.333 1.0478 1.143 1.343 1.333 1.0655
3636.123 1.0619 1.0785 1.0439 1.0584 1.143 0.8472 0.5992 0.7595 0.9118 0.9776
3655.413 0.86 0.7921 1.0346 1.203 0.9364 0.8785 0.8714 0.364 0.302 0.6337
3674.703 0.3931 0.2771 0.4314 0.5223 0.6926 0.7252 0.5159 0.3828 0.5136 0.6595
3693.993 0.6521 0.7759 0.6673 0.5777 0.7471 0.5964 0.4715 0.6043 0.6595 0.6071
3713.282 0.7244 0.7158 0.5309 0.4918 0.7582 0.7735 0.4697 0.3903 0.5232 0.5588
3732.572 0.5224 0.5195 0.4347 0.4403 0.5385 0.5954 0.4675 0.5443 0.4441 0.4241
3751.862 0.5639 0.6479 0.5794 0.3495 0.7267 0.9264 0.7215 0.4941 0.3502 0.5754
3771.152 0.4324 0.3072 0.4843 0.254 0.2295 0.6863 0.7722 0.53 0.5067 0.2849
3790.441 0.4417 0.6877 0.4423 0.3465 0.5458 0.6617 0.5783 0.7012 0.9726 0.8234
3809.731 0.6984 0.6653 0.3974 0.6173 0.8527 0.5163 0.19248 0.3505 0.7273 0.8853
3829.021 0.9197 0.7026 0.3933 0.4447 0.4363 0.3248 0.4802 0.655 0.6032 0.4782
3848.311 0.4003 0.3871 0.2247 0.4231 0.7981 0.6895 0.8088 0.9936 0.7925 0.7335
3867.601 0.6783 0.5154 0.5315 0.7662 0.9644 0.8979 0.8279 0.7825 0.6933 0.5305
3886.890 0.3811 0.5232 0.68 0.6785 0.7625 0.7623 0.6298 0.7589 0.8894 1.0566
3906.180 1.123 0.6259 0.377 0.7115 0.7218 0.3828 0.2905 0.3332 0.4307 0.5577
3925.470 0.663 0.7011 0.6887 0.3743 0.2694 0.608 0.664 0.6811 0.6343 0.4035
3944.760 0.45 0.6815 0.4309 0.3898 0.7344 0.5326 0.6142 0.9435 0.6537 0.8066
3964.049 0.9772 0.8534 0.8835 0.7043 0.7447 0.7758 0.8947 0.6819 0.6299 0.8705
3983.339 0.9698 0.9231 0.8424 0.7958 0.8011 0.9323 0.8712 0.7148 0.7735 1.0229
##END=
