##TITLE=N-Hydroxymethyltrifluoroacetamide
##JCAMP-DX=4.24
##DATA TYPE=INFRARED SPECTRUM
##ORIGIN=EPA-IR VAPOR PHASE LIBRARY
##OWNER=SRD/NIST
Collection (C) 2018 copyright by the U.S. Secretary of Commerce
on behalf of the United States of America. All rights reserved.
##CAS REGISTRY NO=50667-69-1
##MOLFORM=C 3 H 4 F 3 N O 2
##$NIST SOURCE=MSDC-IR
##STATE=gas
##XUNITS=1/CM
##YUNITS=ABSORBANCE
##XFACTOR=1.
##YFACTOR=0.001
##DELTAX=1.92934
##FIRSTX=549.9
##LASTX=3999.5
##FIRSTY=5.66
##MAXX=3999.53
##MINX=549.863
##MAXY=0.11519
##MINY=0
##NPOINTS=1789
##XYDATA=(X++(Y..Y))
549.863 5.66 5.72 5.69 5.77 5.84 5.81 5.79 5.85 5.77 5.76
569.156 5.73 5.61 5.5 5.25 4.94 4.71 4.57 4.39 4.15 3.84
588.450 3.6 3.51 3.42 3.18 2.98 2.7982 2.5654 2.3047 2.1093 2.0674
607.743 1.955 1.86119 1.9377 2.0251 2.1203 2.3036 2.7497 3.42 4.19 5.16
627.037 6.09 6.85 7.38 7.49 7.35 7.2 8.06 11.42 12.29 9.24
646.330 7.9 8.28 8.81 9.01 8.59 7.65 6.45 5.3 4.27 3.43
665.624 2.92 2.6198 2.3595 2.1482 2.0708 1.9977 1.88507 1.85397 1.88843 1.88678
684.917 1.8879 1.9008 1.87552 1.9067 1.9727 2.0302 2.0801 2.1455 2.2058 2.2603
704.210 2.3012 2.3585 2.4404 2.4904 2.5697 2.7198 2.82 2.84 2.92 2.98
723.504 3.06 3.18 3.27 3.45 3.6 3.73 3.89 4.08 4.3 4.48
742.797 4.69 4.95 5.18 5.37 5.55 5.67 5.74 5.81 5.91 6.09
762.091 6.33 6.71 7.19 7.5 7.17 6.48 6.07 5.82 5.64 5.58
781.384 5.55 5.44 5.26 5.16 5.1 5.01 4.91 4.8 4.71 4.61
800.678 4.52 4.48 4.47 4.47 4.48 4.55 4.58 4.57 4.65 4.7
819.971 4.72 4.73 4.71 4.75 4.8 4.82 4.8 4.85 4.87 4.86
839.264 4.88 4.9 4.9 4.86 4.78 4.77 4.8 4.78 4.76 4.79
858.558 4.78 4.79 4.82 4.85 4.88 4.87 4.87 4.84 4.83 4.82
877.851 4.74 4.68 4.63 4.63 4.64 4.62 4.63 4.59 4.5 4.44
897.145 4.42 4.32 4.18 4.1 4.05 3.99 3.93 3.88 3.78 3.69
916.438 3.63 3.59 3.57 3.57 3.62 3.62 3.54 3.53 3.53 3.54
935.732 3.55 3.57 3.62 3.58 3.55 3.56 3.57 3.58 3.6 3.59
955.025 3.55 3.47 3.45 3.45 3.42 3.43 3.42 3.41 3.42 3.4
974.318 3.5 3.6 3.46 3.39 3.42 3.38 3.38 3.38 3.38 3.43
993.612 3.47 3.52 3.55 3.58 3.65 3.62 3.61 3.67 3.71 3.66
1012.905 3.61 3.62 3.61 3.61 3.62 3.6 3.81 4.01 3.72 3.6
1032.199 3.72 3.66 3.53 3.5 3.5 3.51 3.55 3.62 3.7 3.9
1051.492 4.09 4.06 4.11 4.22 4.34 4.51 4.6 4.67 4.71 4.79
1070.786 4.98 5.3 5.57 5.33 5.1 5.15 5.19 5.26 5.38 5.54
1090.079 5.71 5.95 6.23 6.53 6.96 7.37 7.72 8.08 8.34 8.65
1109.372 9 9.44 9.95 10.39 10.93 11.68 12.46 13.01 13.63 14.56
1128.666 15.7 16.98 18.44 20.19 22.26 24.66 27.41 30.56 34.11 38.21
1147.959 42.82 47.89 53.62 60.01 67.09 74.69 82.61 90.29 97.48 103.83
1167.253 108.77 112.8 115.19 114.97 112.19 107.68 102.38 96.5 90.29 84.35
1186.546 79.01 74.47 71.16 68.56 66.21 64.71 63.93 63.64 63.54 63.3
1205.840 62.9 62.3 61.92 62.1 62.38 62.42 62.42 62.23 61.76 60.89
1225.133 59.6 58.19 56.75 55.12 53.45 51.79 49.84 47.47 44.66 41.71
1244.426 38.97 36.38 33.86 31.41 29.09 26.97 24.98 23.16 21.45 19.79
1263.720 18.26 16.83 15.47 14.29 13.26 12.63 11.91 10.7 9.67 8.79
1283.013 8.01 7.33 6.74 6.32 5.95 5.59 5.31 5.09 5 4.91
1302.307 4.63 4.43 4.37 4.24 4.1 4.06 4.02 4 3.95 4.12
1321.600 4.74 4.58 3.73 3.47 3.49 3.52 3.5 3.45 3.51 3.55
1340.894 3.55 3.61 3.76 3.8 3.63 3.53 3.56 3.6 3.65 3.68
1360.187 3.75 3.81 3.87 4.06 4.4 4.83 4.9 4.73 4.87 5.15
1379.480 5.46 5.79 6.12 6.54 6.91 7.16 7.36 7.56 7.7 7.69
1398.774 7.73 7.85 7.93 8.02 8.03 8 7.89 7.7 7.48 7.18
1418.067 6.84 6.37 5.72 5.17 4.76 4.45 4.17 3.92 3.72 3.6
1437.361 3.45 3.26 3.19 3.11 3.02 2.99 2.97 2.93 2.89 2.96
1456.654 3.05 3 2.94 2.96 2.97 2.96 2.96 2.92 2.89 2.87
1475.948 2.7652 2.6317 2.5412 2.4184 2.2928 2.179 2.0681 1.959 1.86508 1.82151
1495.241 1.925 1.9779 2.371 3.38 3.58 3.07 2.7011 2.4489 2.3298 2.3041
1514.534 2.3338 2.4214 2.5417 2.6663 2.7385 2.7665 2.82 2.82 2.7916 2.806
1533.828 2.82 2.8065 2.84 2.94 2.97 2.93 2.94 2.96 3.05 3.13
1553.121 3.24 3.34 3.49 3.75 3.94 4.21 4.6 5.11 5.78 6.55
1572.415 7.39 8.35 9.41 10.38 11.23 11.95 12.47 12.87 13.37 14.01
1591.708 14.61 14.84 14.55 14.17 14.1 14.14 13.92 13.33 12.49 11.54
1611.002 10.49 9.44 8.44 7.46 6.55 5.82 5.23 4.7 4.27 3.91
1630.295 3.59 3.31 3.16 3.04 2.88 2.79 2.7314 2.7222 2.766 2.81
1649.588 2.88 3.01 3.12 3.19 3.32 3.46 3.6 3.73 3.86 4.04
1668.882 4.21 4.41 4.56 4.72 4.92 5.14 5.33 5.58 5.94 6.15
1688.175 6.34 6.61 6.86 7.21 7.56 7.72 7.93 8.26 8.47 8.74
1707.469 8.93 9.02 9.2 9.32 9.5 9.67 9.58 9.53 9.65 9.81
1726.762 9.66 9.57 9.71 9.95 10.4 11.11 12.05 13.97 18.57 29.01
1746.056 30.13 21.49 20.86 23.51 26.23 29.75 33.79 38.33 43.17 48.17
1765.349 53.02 57.59 61.43 64.24 66.03 66.91 67.04 66.72 66.41 66.22
1784.642 66.21 66.35 66.22 66.11 66.19 65.71 63.52 59.07 53.1 46.66
1803.936 40.45 34.89 30.17 26.23 22.87 19.93 17.33 14.98 12.86 10.96
1823.229 9.25 7.76 6.51 5.48 4.65 4 3.49 3.07 2.7446 2.4815
1842.523 2.3066 2.1983 2.0704 1.9429 1.85897 1.82498 1.80517 1.7641 1.7333 1.7191
1861.816 1.649 1.606 1.605 1.592 1.559 1.522 1.526 1.494 1.447 1.453
1881.110 1.493 1.512 1.484 1.478 1.508 1.497 1.467 1.457 1.441 1.414
1900.403 1.397 1.39 1.397 1.41 1.413 1.429 1.419 1.416 1.442 1.447
1919.696 1.44 1.442 1.44 1.443 1.491 1.534 1.519 1.505 1.515 1.532
1938.990 1.534 1.52 1.504 1.51 1.539 1.565 1.553 1.523 1.535 1.549
1958.283 1.531 1.525 1.541 1.547 1.53 1.505 1.502 1.485 1.495 1.501
1977.577 1.489 1.511 1.509 1.487 1.473 1.466 1.467 1.464 1.466 1.45
1996.870 1.448 1.461 1.433 1.441 1.461 1.452 1.421 1.416 1.459 1.452
2016.164 1.437 1.428 1.409 1.405 1.4 1.414 1.413 1.409 1.4 1.37
2035.457 1.346 1.342 1.328 1.312 1.293 1.312 1.29 1.245 1.249 1.242
2054.750 1.234 1.194 1.191 1.23 1.226 1.182 1.174 1.183 1.179 1.178
2074.044 1.169 1.177 1.163 1.166 1.172 1.146 1.152 1.145 1.129 1.135
2093.337 1.134 1.112 1.122 1.148 1.145 1.138 1.155 1.179 1.17 1.166
2112.631 1.18 1.176 1.141 1.131 1.156 1.153 1.147 1.152 1.143 1.149
2131.924 1.184 1.177 1.173 1.219 1.209 1.207 1.234 1.234 1.242 1.253
2151.218 1.233 1.228 1.254 1.252 1.233 1.221 1.261 1.293 1.277 1.28
2170.511 1.278 1.276 1.263 1.233 1.234 1.251 1.26 1.26 1.253 1.233
2189.804 1.209 1.197 1.208 1.21 1.192 1.193 1.186 1.163 1.163 1.167
2209.098 1.159 1.176 1.191 1.19 1.18 1.172 1.16 1.15 1.2 1.219
2228.391 1.218 1.243 1.214 1.191 1.221 1.255 1.255 1.261 1.262 1.242
2247.685 1.275 1.304 1.268 1.25 1.287 1.286 1.258 1.256 1.263 1.275
2266.978 1.284 1.279 1.296 1.316 1.302 1.287 1.306 1.313 1.303 1.297
2286.272 1.302 1.334 1.337 1.313 1.314 1.334 1.366 1.396 1.401 1.418
2305.565 1.401 1.399 1.419 1.457 1.464 1.417 1.417 1.449 1.445 1.424
2324.858 1.421 1.432 1.437 1.428 1.419 1.401 1.385 1.388 1.408 1.391
2344.152 1.368 1.376 1.362 1.328 1.337 1.349 1.335 1.312 1.322 1.327
2363.445 1.303 1.274 1.249 1.266 1.295 1.303 1.291 1.281 1.299 1.31
2382.739 1.305 1.308 1.273 1.255 1.261 1.275 1.266 1.249 1.258 1.262
2402.032 1.288 1.274 1.25 1.243 1.256 1.254 1.205 1.191 1.234 1.255
2421.326 1.248 1.263 1.271 1.245 1.244 1.278 1.262 1.27 1.263 1.243
2440.619 1.245 1.217 1.235 1.268 1.274 1.272 1.281 1.269 1.267 1.306
2459.912 1.308 1.296 1.299 1.299 1.316 1.321 1.328 1.342 1.362 1.38
2479.206 1.363 1.354 1.366 1.347 1.33 1.34 1.362 1.366 1.352 1.354
2498.499 1.351 1.317 1.28 1.287 1.271 1.244 1.246 1.256 1.248 1.221
2517.793 1.219 1.227 1.225 1.218 1.203 1.178 1.172 1.199 1.182 1.176
2537.086 1.21 1.208 1.227 1.232 1.198 1.205 1.191 1.186 1.21 1.218
2556.380 1.202 1.177 1.209 1.234 1.224 1.251 1.237 1.242 1.312 1.317
2575.673 1.273 1.233 1.263 1.284 1.238 1.229 1.248 1.268 1.304 1.312
2594.966 1.308 1.352 1.414 1.451 1.487 1.514 1.534 1.546 1.523 1.517
2614.260 1.504 1.502 1.532 1.57 1.6 1.602 1.597 1.625 1.68 1.685
2633.553 1.693 1.7471 1.7914 1.89385 2.0446 2.0307 1.912 1.86079 1.9497 2.1995
2652.847 2.2377 2.0817 1.9719 1.977 2.0288 2.0411 2.145 2.5629 2.93 2.6605
2672.140 2.3871 2.5125 2.6508 2.465 2.361 2.6119 3.08 3.28 3.08 3.08
2691.434 3.14 3.12 3.13 3.25 3.57 4.13 4.45 4.28 4.32 4.66
2710.727 4.84 4.78 4.76 4.99 5.17 5.26 5.55 5.9 6.51 7.52
2730.020 8.04 7.73 7.65 7.81 7.85 7.9 8.03 8.33 9.1 9.95
2749.314 9.7 9.04 8.8 8.54 8.12 7.78 7.76 8.28 10.1 10.98
2768.607 9.4 8.3 8.07 8.12 9.07 11.09 10.65 8.23 6.93 6.21
2787.901 5.91 6.29 7.2 8.24 9.72 11.7 13.13 13.7 13 12.24
2807.194 12.53 12.43 11.66 11.19 11.22 11.34 11.71 12.12 11.41 9.99
2826.488 9.25 9.13 9.17 9.09 8.6 7.51 6.68 6.37 6.13 6.22
2845.781 6.72 6.71 5.94 5.55 5.56 5.31 5.15 5.64 7.6 9.54
2865.074 8.68 7.14 6.87 6.98 6.88 6.51 6.22 6.1 6.53 6.91
2884.368 6.14 5.2 5.1 5.31 5.84 7.51 9.92 8.92 5.74 4.66
2903.661 4.31 4.17 4.5 5.02 5.12 4.4 4.07 4.15 4.12 4.42
2922.955 5.24 5.82 4.84 3.58 3.36 3.35 3.24 3.26 3.49 3.51
2942.248 3.35 3.25 3.29 3.52 3.79 3.77 3.5 3.42 3.55 3.61
2961.542 3.57 3.49 3.37 3.18 3.03 3.09 3.41 3.26 2.87 2.7628
2980.835 2.6011 2.5316 2.5298 2.4914 2.5664 2.6323 2.5597 2.5021 2.4328 2.2406
3000.128 2.1922 2.2156 2.161 2.1786 2.1457 2.0695 1.9694 1.87661 1.82582 1.90479
3019.422 1.9793 2.0913 2.208 2.2229 2.1779 1.995 1.85277 1.7615 1.614 1.493
3038.715 1.441 1.447 1.507 1.454 1.482 1.648 1.588 1.401 1.33 1.195
3058.009 1.099 1.134 1.038 1.015 1.14 1.146 1.111 1.12 1.03 0.78
3077.302 0.74 0.79 0.72 0.69 0.75 0.75 0.68 0.76 0.78 0.71
3096.596 0.68 0.62 0.62 0.57 0.44 0.51 0.59 0.55 0.58 0.72
3115.889 0.7 0.51 0.38 0.4 0.34 0.38 0.39 0.35 0.49 0.53
3135.182 0.49 0.48 0.44 0.41 0.41 0.42 0.48 0.5 0.45 0.49
3154.476 0.52 0.53 0.52 0.57 0.6 0.49 0.54 0.63 0.59 0.54
3173.769 0.56 0.59 0.44 0.48 0.61 0.57 0.49 0.57 0.61 0.53
3193.063 0.49 0.51 0.47 0.39 0.34 0.27 0.2 0.32 0.4 0.3
3212.356 0.2 0.11 0.14 0.25 0.25 0.12 0.15 0.19 0.14 0.16
3231.650 0.15 0.12 0.18 0.19 0.25 0.23 0.17 0.17 0.07 0.15
3250.943 0.31 0.23 0.14 0.21 0.27 0.2 0.07 0.08 0.17 0.22
3270.236 0.23 0.21 0.17 0.11 0.16 0.2 0.17 0.15 0.17 0.17
3289.530 0.13 0.16 0.15 0.15 0.27 0.23 0.02 0.04 0.08 0
3308.823 0.09 0.21 0.27 0.22 0.24 0.3 0.34 0.35 0.34 0.27
3328.117 0.22 0.19 0.14 0.19 0.26 0.3 0.28 0.2 0.16 0.34
3347.410 0.47 0.5 0.57 0.5 0.47 0.56 0.65 0.7 0.68 0.77
3366.704 0.818 0.859 1.013 1.028 1.087 1.134 1.101 1.214 1.354 1.449
3385.997 1.536 1.563 1.617 1.7767 1.9313 2.1075 2.3227 2.5318 2.7953 3.01
3405.290 3.22 3.56 3.94 4.29 4.62 5.04 5.52 5.99 6.45 6.88
3424.584 7.29 7.76 8.44 9.19 9.76 10.2 10.42 10.44 10.35 10.16
3443.877 10.04 10.06 10.02 9.73 9.2 8.87 8.74 8.46 8.1 7.53
3463.171 6.87 6.27 5.78 5.44 4.83 3.87 3.21 2.91 2.7473 2.541
3482.464 2.3526 2.28 2.3916 2.574 2.6355 2.5864 2.5921 2.6662 2.6816 2.83
3501.758 3.06 3.18 3.27 3.46 3.65 3.81 3.98 4.29 4.56 4.86
3521.051 5.17 5.4 5.68 5.78 5.84 5.96 6.29 6.77 7.18 7.36
3540.344 7.54 8.04 8.83 9.64 10.37 10.99 11.47 11.8 11.78 11.61
3559.638 11.59 11.91 12.43 12.71 12.14 11.06 10.25 9.81 9.52 8.94
3578.931 8.1 6.99 5.76 4.74 3.88 3.2 2.5768 2.0946 1.83804 1.697
3598.225 1.532 1.364 1.34 1.316 1.207 1.186 1.229 1.07 0.995 0.974
3617.518 0.987 1.027 0.905 0.83 0.833 0.865 0.842 0.811 0.84 0.819
3636.812 0.74 0.67 0.72 0.78 0.866 0.948 0.835 0.79 0.75 0.66
3656.105 0.65 0.73 0.823 0.896 0.96 0.925 0.876 0.816 0.75 0.72
3675.398 0.8 0.846 0.832 0.834 0.77 0.67 0.75 0.79 0.75 0.846
3694.692 0.876 0.883 0.839 0.899 0.983 0.954 0.961 0.937 0.909 0.895
3713.985 0.836 0.857 0.981 1 0.9 0.899 0.89 0.86 0.841 0.911
3733.279 0.962 0.857 0.9 0.914 0.872 0.892 0.88 0.8 0.73 0.79
3752.572 0.875 0.901 0.87 0.873 0.909 0.911 0.943 0.96 0.907 0.876
3771.866 0.859 0.854 0.923 0.932 0.956 0.937 0.923 0.924 0.888 0.914
3791.159 0.928 0.926 0.93 0.988 1.024 1.014 1.007 0.969 0.853 0.816
3810.452 0.87 0.927 0.895 0.833 0.894 0.937 0.922 0.877 0.886 0.876
3829.746 0.904 0.871 0.826 0.913 0.944 0.904 0.855 0.87 0.878 0.856
3849.039 0.908 0.948 0.903 0.875 0.837 0.833 0.929 0.875 0.817 0.84
3868.333 0.855 0.89 0.925 0.898 0.845 0.851 0.879 0.853 0.826 0.91
3887.626 0.94 0.888 0.853 0.816 0.849 0.93 0.919 0.968 0.992 0.839
3906.920 0.77 0.819 0.89 0.917 0.854 0.857 0.868 0.844 0.903 0.922
3926.213 0.91 0.924 0.935 0.986 0.984 0.88 0.827 0.894 0.949 0.886
3945.506 0.922 0.965 0.882 0.907 0.913 0.8 0.829 0.939 0.964 0.97
3964.800 0.961 0.943 1.012 1.091 0.978 0.916 0.93 0.877 0.911 0.994
3984.093 0.972 0.984 1.025 0.969 0.929 0.865 0.825 0.866 0.87
##END=
