##TITLE=2-Chlorobenzoyl isothiocyanate
##JCAMP-DX=4.24
##DATA TYPE=INFRARED SPECTRUM
##ORIGIN=EPA-IR VAPOR PHASE LIBRARY
##OWNER=SRD/NIST
Collection (C) 2018 copyright by the U.S. Secretary of Commerce
on behalf of the United States of America. All rights reserved.
##CAS REGISTRY NO=5067-90-3
##MOLFORM=C 8 H 4 Cl N O S
##$NIST SOURCE=MSDC-IR
##STATE=gas
##XUNITS=1/CM
##YUNITS=ABSORBANCE
##XFACTOR=1.
##YFACTOR=0.001
##DELTAX=1.92934
##FIRSTX=549.9
##LASTX=3999.5
##FIRSTY=0.31
##MAXX=3999.53
##MINX=549.863
##MAXY=0.030011
##MINY=0
##NPOINTS=1789
##XYDATA=(X++(Y..Y))
549.863 0.31 0.406 0.411 0.254 0.251 0.406 0.411 0.281 0.347 0.541
569.156 0.614 0.644 0.572 0.479 0.566 0.544 0.475 0.552 0.693 0.85355
588.450 0.733 0.486 0.454 0.518 0.575 0.619 0.661 0.648 0.631 0.708
607.743 0.7967 0.8358 0.86408 0.850777 0.88756 1.0744 1.1919 1.2308 1.3093 1.4669
627.037 1.5571 1.6527 1.8124 1.971 2.281 2.541 2.721 2.921 3.091 3.241
646.330 3.291 3.341 3.341 3.121 2.841 2.691 2.551 2.271 2.011 1.8274
665.624 1.6263 1.5205 1.5392 1.5856 1.5631 1.5599 1.6542 1.7173 1.7209 1.6966
684.917 1.6906 1.734 1.7627 1.746 1.7887 1.861 1.971 2.071 2.151 2.251
704.210 2.321 2.391 2.501 2.621 2.711 2.851 3.051 3.241 3.431 3.671
723.504 3.941 4.281 4.621 4.931 5.231 5.491 5.771 6.011 5.971 5.381
742.797 4.601 4.051 3.571 3.061 2.621 2.261 1.931 1.7236 1.6214 1.515
762.091 1.4594 1.4029 1.3375 1.289 1.2463 1.2067 1.1277 1.0402 1.0516 1.0507
781.384 0.9696 0.94404 0.9026 0.89222 0.8675 0.8126 0.772 0.744 0.7907 0.8164
800.678 0.793 0.8123 0.851353 0.855279 0.86739 0.89814 0.93858 0.9681 0.972 0.9727
819.971 0.982 1.0161 1.0831 1.1784 1.2309 1.3097 1.4098 1.4704 1.6285 1.851
839.264 2.151 2.511 2.821 3.221 3.751 4.301 4.901 5.531 6.201 6.861
858.558 7.341 7.611 7.681 7.661 7.471 7.111 6.741 6.271 5.781 5.381
877.851 5.021 4.711 4.351 4.041 3.801 3.501 3.311 3.171 3.001 2.881
897.145 2.791 2.661 2.521 2.391 2.281 2.251 2.141 1.991 1.891 1.826
916.438 1.8285 1.7931 1.6953 1.6239 1.6279 1.6831 1.6838 1.6622 1.6315 1.5814
935.732 1.5782 1.6044 1.633 1.6464 1.624 1.6212 1.6422 1.613 1.5947 1.596
955.025 1.5775 1.5642 1.5623 1.5744 1.5983 1.5831 1.5464 1.5515 1.5528 1.5307
974.318 1.5087 1.4649 1.4047 1.3481 1.3524 1.3316 1.2986 1.2735 1.2318 1.1924
993.612 1.1499 1.147 1.1219 1.0831 1.0819 1.1131 1.1282 1.1341 1.095 1.071
1012.905 1.0873 1.068 1.102 1.1685 1.2206 1.2751 1.3464 1.4364 1.5771 1.7416
1032.199 1.941 2.171 2.381 2.551 2.781 3.061 3.221 3.321 3.411 3.421
1051.492 3.341 3.201 3.011 2.741 2.451 2.201 1.941 1.7784 1.707 1.7032
1070.786 1.6508 1.6702 1.793 1.8491 1.961 2.131 2.331 2.591 2.851 3.141
1090.079 3.531 3.831 4.011 4.211 4.321 4.321 4.261 4.201 4.061 3.861
1109.372 3.701 3.561 3.441 3.311 3.091 2.901 2.791 2.591 2.381 2.221
1128.666 2.211 2.291 2.291 2.351 2.381 2.231 2.061 1.931 1.7591 1.5467
1147.959 1.2962 1.2712 1.3302 1.2897 1.3829 1.3847 1.425 1.5558 1.5959 1.5685
1167.253 1.494 1.4551 1.3109 1.22 1.2243 1.1758 1.224 1.3858 1.549 1.5194
1186.546 1.5707 1.7719 1.941 2.241 2.431 2.581 2.971 3.421 3.951 4.701
1205.840 5.341 6.271 7.091 7.641 8.311 8.891 9.671 10.311 10.981 11.521
1225.133 11.811 12.061 12.071 11.791 11.171 10.301 9.471 8.581 7.501 6.431
1244.426 5.531 4.691 3.961 3.461 3.201 3.131 3.191 3.571 4.121 4.881
1263.720 5.931 6.951 7.831 8.711 9.441 9.841 9.861 9.551 9.041 8.301
1283.013 7.371 6.411 5.491 4.561 3.751 3.141 2.611 2.211 1.971 1.7082
1302.307 1.4618 1.3499 1.2537 1.1836 1.1032 1.0468 1.0373 0.9949 0.9841 0.9831
1321.600 0.9673 0.94202 0.92694 0.9196 0.92604 0.89157 0.87091 0.91154 0.93532 0.93317
1340.894 0.90477 0.87167 0.87563 0.89234 0.9063 0.91236 0.88851 0.856666 0.8354 0.860721
1360.187 0.859611 0.84278 0.8151 0.743 0.743 0.7691 0.7846 0.7718 0.735 0.749
1379.480 0.764 0.749 0.7573 0.7659 0.7679 0.7589 0.7517 0.7761 0.8057 0.8132
1398.774 0.8291 0.84947 0.839 0.855791 0.93081 0.9943 1.0129 1.075 1.1702 1.2588
1418.067 1.3527 1.4625 1.5802 1.6988 1.901 2.121 2.291 2.481 2.671 2.801
1437.361 2.831 2.781 2.711 2.601 2.391 2.161 1.941 1.7249 1.6222 1.6412
1456.654 1.706 1.714 1.7901 1.931 2.051 2.121 2.131 2.171 2.151 2.071
1475.948 2.001 1.83 1.6534 1.4822 1.3269 1.2191 1.1454 1.0915 1.0441 0.9942
1495.241 0.9933 0.9724 0.92998 0.90743 0.91354 0.9582 0.9778 0.9643 0.9271 0.88158
1514.534 0.856154 0.872 0.89521 0.93547 0.91673 0.88089 0.89432 0.86817 0.87219 0.91706
1533.828 0.93801 0.87977 0.8702 0.957 0.9821 0.9907 0.9891 1.0205 1.081 1.0847
1553.121 1.1429 1.2104 1.2515 1.3565 1.4098 1.4679 1.5551 1.6432 1.7033 1.7588
1572.415 1.8379 1.951 2.071 2.091 2.131 2.191 2.301 2.421 2.491 2.571
1591.708 2.561 2.441 2.341 2.171 1.931 1.7679 1.5761 1.3648 1.2694 1.1945
1611.002 1.1478 1.0983 1.053 1.0666 1.0443 1.0203 1.0462 1.0232 0.9819 0.99
1630.295 0.9977 0.9947 0.9977 1.0316 1.0261 1.0349 1.0501 1.0572 1.043 1.0178
1649.588 1.032 1.083 1.1366 1.1272 1.1476 1.1778 1.2138 1.2509 1.3172 1.3924
1668.882 1.4017 1.4334 1.5365 1.6348 1.695 1.7901 1.971 2.171 2.351 2.471
1688.175 2.631 2.871 3.151 3.481 3.841 4.201 4.561 4.951 5.321 5.691
1707.469 6.031 6.381 6.771 7.141 7.521 7.971 8.431 8.901 9.451 10.051
1726.762 10.701 11.331 11.851 12.211 12.461 12.511 12.341 12.041 11.611 11.021
1746.056 10.261 9.461 8.671 7.871 7.121 6.501 5.881 5.341 4.871 4.391
1765.349 4.011 3.691 3.431 3.161 2.901 2.711 2.491 2.291 2.181 2.101
1784.642 1.961 1.8156 1.784 1.7908 1.7602 1.6671 1.5886 1.5712 1.6062 1.6419
1803.936 1.6117 1.5297 1.5087 1.5505 1.5596 1.5235 1.4794 1.4596 1.4317 1.3955
1823.229 1.3794 1.3975 1.3696 1.3089 1.302 1.3064 1.3126 1.3124 1.359 1.3991
1842.523 1.3864 1.4019 1.3974 1.4262 1.5035 1.5106 1.5217 1.6092 1.6812 1.7419
1861.816 1.8416 1.921 1.941 2.001 2.081 2.171 2.281 2.391 2.551 2.721
1881.110 2.871 3.011 3.161 3.411 3.661 3.851 4.131 4.441 4.721 5.011
1900.403 5.321 5.641 5.991 6.301 6.611 6.961 7.311 7.661 8.051 8.441
1919.696 8.811 9.191 9.621 10.081 10.561 11.061 11.631 12.231 12.851 13.511
1938.990 14.191 14.921 15.701 16.511 17.371 18.231 19.091 19.941 20.871 21.771
1958.283 22.651 23.571 24.491 25.471 26.451 27.411 28.291 29.021 29.591 29.941
1977.577 30.011 29.831 29.421 28.811 28.151 27.441 26.711 26.021 25.311 24.611
1996.870 23.931 23.311 22.751 22.211 21.771 21.441 21.171 20.941 20.681 20.431
2016.164 20.161 19.781 19.281 18.721 18.071 17.301 16.431 15.511 14.561 13.611
2035.457 12.661 11.751 10.901 10.091 9.341 8.711 8.131 7.611 7.161 6.771
2054.750 6.451 6.141 5.881 5.661 5.441 5.291 5.101 4.971 4.891 4.751
2074.044 4.621 4.491 4.391 4.331 4.301 4.271 4.181 4.101 4.051 3.971
2093.337 3.901 3.841 3.801 3.751 3.651 3.511 3.401 3.311 3.181 3.051
2112.631 2.941 2.791 2.641 2.541 2.461 2.371 2.321 2.261 2.211 2.181
2131.924 2.151 2.111 2.051 2.031 2.011 1.971 1.941 1.931 1.901 1.8258
2151.218 1.7881 1.78 1.7645 1.6947 1.6429 1.6406 1.6139 1.5961 1.5921 1.5786
2170.511 1.5437 1.4969 1.5048 1.4821 1.4303 1.4198 1.4384 1.4448 1.4185 1.4211
2189.804 1.4193 1.3632 1.333 1.3543 1.373 1.3427 1.3191 1.3153 1.3223 1.3135
2209.098 1.2716 1.247 1.2587 1.253 1.2476 1.2602 1.2391 1.2194 1.2233 1.2213
2228.391 1.2285 1.2341 1.2031 1.1997 1.2129 1.1999 1.1575 1.1527 1.1527 1.1408
2247.685 1.1323 1.1249 1.1409 1.134 1.1302 1.1247 1.1148 1.1191 1.1129 1.11
2266.978 1.0843 1.0488 1.0529 1.0461 1.0093 0.995 1.0086 1.0003 1.0105 1.0117
2286.272 1.0052 1.0278 1.0204 0.9931 0.9783 0.9799 0.9545 0.93186 0.93547 0.9726
2305.565 0.9835 0.9694 0.9993 1.0153 1.0135 0.9999 1.0033 1.041 1.028 0.9907
2324.858 0.9974 0.9928 0.9821 1.0202 1.0088 0.9732 0.9674 0.93762 0.9616 0.9815
2344.152 0.92415 0.90763 0.92105 0.93929 0.94689 0.94134 0.94056 0.92788 0.9081 0.87451
2363.445 0.850798 0.855969 0.8827 0.90453 0.90925 0.88276 0.86508 0.859299 0.88606 0.88205
2382.739 0.8188 0.7994 0.822 0.84557 0.856935 0.8464 0.8307 0.8104 0.8139 0.8277
2402.032 0.8046 0.7964 0.7946 0.7735 0.7599 0.75 0.7734 0.7704 0.748 0.7681
2421.326 0.7839 0.8151 0.7851 0.7591 0.796 0.8134 0.8052 0.8047 0.8192 0.8209
2440.619 0.8178 0.7938 0.7861 0.8073 0.8112 0.8049 0.8122 0.8322 0.8275 0.8261
2459.912 0.8306 0.84235 0.8668 0.852623 0.8253 0.8333 0.857098 0.84394 0.8168 0.8183
2479.206 0.851816 0.818 0.8122 0.8719 0.89524 0.8787 0.856822 0.87413 0.90683 0.92777
2498.499 0.90597 0.88239 0.87969 0.852511 0.850342 0.89447 0.8817 0.87643 0.86823 0.8674
2517.793 0.93493 0.9278 0.90792 0.90263 0.89057 0.87363 0.855785 0.90305 0.9441 0.92176
2537.086 0.89934 0.93184 0.9502 0.9593 0.9617 0.92691 0.91405 0.94547 0.9562 0.92155
2556.380 0.91956 0.92407 0.90686 0.88803 0.89524 0.92998 0.89695 0.857809 0.8306 0.8048
2575.673 0.8212 0.84686 0.84905 0.8333 0.8257 0.7955 0.8218 0.857758 0.8172 0.84525
2594.966 0.855602 0.8046 0.8133 0.8305 0.803 0.8029 0.824 0.84281 0.84913 0.8397
2614.260 0.855308 0.89881 0.9144 0.87838 0.91304 0.93558 0.88307 0.89272 0.9512 0.94682
2633.553 0.94018 0.95017 0.9527 0.9535 0.92917 0.97 0.93147 0.88512 0.9727 0.9887
2652.847 0.94155 0.92428 0.88872 0.86158 0.86807 0.93985 0.9829 0.94055 0.94374 0.9626
2672.140 0.9579 0.9515 0.87568 0.84953 0.89832 0.89779 0.90717 0.91798 0.94179 0.93563
2691.434 0.88728 0.87097 0.88351 0.89694 0.90368 0.88518 0.851006 0.86991 0.857439 0.7901
2710.727 0.7801 0.7641 0.7842 0.8074 0.8258 0.86986 0.86351 0.8217 0.8237 0.86411
2730.020 0.8111 0.77 0.825 0.8279 0.7595 0.719 0.749 0.7705 0.7525 0.7626
2749.314 0.746 0.699 0.728 0.71 0.699 0.7809 0.7672 0.739 0.685 0.655
2768.607 0.706 0.729 0.718 0.704 0.684 0.671 0.629 0.567 0.603 0.638
2787.901 0.669 0.703 0.682 0.683 0.688 0.699 0.707 0.708 0.692 0.674
2807.194 0.699 0.671 0.668 0.673 0.646 0.667 0.682 0.688 0.724 0.695
2826.488 0.664 0.649 0.666 0.703 0.692 0.685 0.635 0.602 0.611 0.65
2845.781 0.618 0.638 0.686 0.655 0.723 0.7612 0.742 0.711 0.683 0.659
2865.074 0.581 0.579 0.668 0.712 0.681 0.665 0.638 0.655 0.698 0.644
2884.368 0.622 0.693 0.669 0.55 0.621 0.7763 0.709 0.6 0.628 0.663
2903.661 0.7 0.666 0.682 0.694 0.599 0.506 0.581 0.7 0.631 0.591
2922.955 0.594 0.563 0.582 0.565 0.598 0.637 0.597 0.57 0.509 0.471
2942.248 0.493 0.46 0.504 0.592 0.552 0.597 0.536 0.5 0.6 0.595
2961.542 0.525 0.512 0.481 0.515 0.636 0.589 0.544 0.49 0.375 0.451
2980.835 0.591 0.605 0.549 0.493 0.532 0.547 0.513 0.515 0.573 0.597
3000.128 0.54 0.477 0.52 0.566 0.557 0.539 0.502 0.496 0.459 0.498
3019.422 0.57 0.666 0.665 0.552 0.604 0.596 0.526 0.566 0.484 0.408
3038.715 0.406 0.406 0.476 0.526 0.449 0.446 0.537 0.583 0.535 0.67
3058.009 0.7616 0.692 0.742 0.738 0.8228 0.93063 1.0077 1.1048 1.1388 1.0916
3077.302 1.0733 1.1479 1.1908 1.1488 1.1309 1.0024 0.89694 0.94917 0.88866 0.7525
3096.596 0.715 0.727 0.637 0.546 0.487 0.453 0.506 0.473 0.381 0.351
3115.889 0.285 0.323 0.391 0.398 0.398 0.327 0.439 0.527 0.426 0.413
3135.182 0.4 0.337 0.344 0.363 0.426 0.49 0.411 0.409 0.512 0.433
3154.476 0.256 0.25 0.296 0.314 0.4 0.456 0.431 0.406 0.407 0.373
3173.769 0.307 0.261 0.296 0.316 0.321 0.428 0.38 0.275 0.242 0.303
3193.063 0.401 0.339 0.321 0.373 0.307 0.276 0.314 0.282 0.299 0.372
3212.356 0.368 0.295 0.239 0.383 0.493 0.373 0.34 0.343 0.376 0.397
3231.650 0.359 0.461 0.483 0.367 0.233 0.104 0.138 0.29 0.28 0.167
3250.943 0.111 0.061 0.212 0.35 0.25 0.245 0.28 0.199 0.233 0.273
3270.236 0.35 0.42 0.26 0.233 0.296 0.246 0.134 0.229 0.42 0.393
3289.530 0.26 0.154 0.215 0.257 0.205 0.14 0.106 0.188 0.208 0.277
3308.823 0.295 0.154 0.159 0.247 0.287 0.289 0.371 0.372 0.344 0.309
3328.117 0.288 0.253 0.189 0.176 0.096 0.108 0.189 0.183 0.103 0.121
3347.410 0.155 0.054 0 0.054 0.095 0.166 0.258 0.284 0.194 0.187
3366.704 0.27 0.276 0.244 0.234 0.311 0.362 0.33 0.331 0.32 0.303
3385.997 0.219 0.151 0.206 0.142 0.184 0.282 0.276 0.328 0.316 0.235
3405.290 0.254 0.195 0.185 0.279 0.203 0.207 0.351 0.419 0.358 0.287
3424.584 0.329 0.35 0.29 0.276 0.35 0.477 0.51 0.523 0.487 0.405
3443.877 0.344 0.327 0.406 0.379 0.34 0.289 0.25 0.309 0.348 0.26
3463.171 0.236 0.366 0.431 0.464 0.394 0.354 0.371 0.342 0.355 0.454
3482.464 0.473 0.484 0.542 0.482 0.366 0.318 0.371 0.368 0.46 0.48
3501.758 0.291 0.238 0.319 0.382 0.362 0.37 0.348 0.378 0.441 0.398
3521.051 0.438 0.367 0.241 0.383 0.448 0.461 0.495 0.405 0.464 0.433
3540.344 0.417 0.455 0.419 0.426 0.452 0.492 0.484 0.459 0.35 0.329
3559.638 0.396 0.342 0.348 0.406 0.409 0.354 0.26 0.368 0.517 0.447
3578.931 0.313 0.328 0.399 0.401 0.433 0.434 0.435 0.439 0.44 0.355
3598.225 0.284 0.366 0.41 0.415 0.402 0.423 0.466 0.45 0.375 0.381
3617.518 0.464 0.453 0.401 0.479 0.526 0.456 0.425 0.36 0.325 0.345
3636.812 0.418 0.393 0.321 0.392 0.444 0.431 0.377 0.364 0.478 0.521
3656.105 0.449 0.423 0.473 0.502 0.483 0.515 0.474 0.421 0.458 0.462
3675.398 0.452 0.455 0.477 0.401 0.37 0.442 0.384 0.385 0.425 0.437
3694.692 0.488 0.455 0.426 0.476 0.527 0.48 0.46 0.485 0.526 0.527
3713.985 0.499 0.562 0.558 0.475 0.495 0.472 0.441 0.493 0.503 0.561
3733.279 0.583 0.527 0.507 0.569 0.567 0.529 0.561 0.684 0.7569 0.652
3752.572 0.48 0.402 0.431 0.535 0.566 0.478 0.506 0.582 0.571 0.564
3771.866 0.557 0.547 0.586 0.582 0.591 0.572 0.484 0.476 0.501 0.507
3791.159 0.52 0.552 0.603 0.577 0.513 0.529 0.563 0.543 0.509 0.506
3810.452 0.561 0.575 0.533 0.491 0.526 0.536 0.488 0.567 0.639 0.582
3829.746 0.546 0.549 0.571 0.634 0.672 0.684 0.641 0.656 0.633 0.547
3849.039 0.563 0.645 0.707 0.701 0.663 0.636 0.641 0.676 0.688 0.708
3868.333 0.744 0.679 0.636 0.64 0.626 0.622 0.649 0.681 0.732 0.713
3887.626 0.586 0.611 0.705 0.671 0.609 0.616 0.702 0.748 0.8254 0.815
3906.920 0.638 0.582 0.616 0.541 0.578 0.686 0.741 0.8162 0.7822 0.7747
3926.213 0.7948 0.749 0.715 0.726 0.666 0.638 0.672 0.671 0.655 0.699
3945.506 0.674 0.613 0.735 0.743 0.73 0.742 0.737 0.7609 0.704 0.729
3964.800 0.769 0.723 0.7586 0.7819 0.7599 0.8315 0.8212 0.728 0.665 0.616
3984.093 0.632 0.66 0.636 0.635 0.619 0.624 0.686 0.693 0.701
##END=
