##TITLE=3-Methoxybenzylamine
##JCAMP-DX=4.24
##DATA TYPE=INFRARED SPECTRUM
##ORIGIN=EPA-IR VAPOR PHASE LIBRARY
##OWNER=SRD/NIST
Collection (C) 2018 copyright by the U.S. Secretary of Commerce
on behalf of the United States of America. All rights reserved.
##CAS REGISTRY NO=5071-96-5
##MOLFORM=C 8 H 11 N O
##$NIST SOURCE=MSDC-IR
##STATE=gas
##XUNITS=1/CM
##YUNITS=ABSORBANCE
##XFACTOR=1.
##YFACTOR=0.001
##DELTAX=1.92934
##FIRSTX=549.9
##LASTX=3999.5
##FIRSTY=9.46
##MAXX=3999.53
##MINX=549.863
##MAXY=0.12784
##MINY=0
##NPOINTS=1789
##XYDATA=(X++(Y..Y))
549.863 9.46 9.49 9.38 9.37 9.39 9.33 9.23 9.18 9.03 8.83
569.156 8.75 8.59 8.31 8.18 8.09 8 8 7.89 7.76 7.71
588.450 7.65 7.47 7.34 7.34 7.37 7.46 7.48 7.41 7.37 7.45
607.743 7.48 7.53 7.65 7.61 7.57 7.66 7.78 7.8 7.79 7.81
627.037 7.82 7.85 7.85 7.86 7.88 7.95 8.06 8.11 8.08 8.11
646.330 8.24 8.39 8.45 8.59 8.8 8.97 9.13 9.34 9.65 10.09
665.624 10.71 11.52 12.3 13.33 14.83 16.56 18.38 20.24 22.15 24.11
684.917 26.25 28.58 31.38 34.4 35.99 35.08 33.2 31.72 30.71 29.86
704.210 29.06 28.37 27.66 27.06 26.7 26.61 26.69 26.78 26.94 27.13
723.504 27.27 27.27 27.21 27.02 26.69 26.42 26.26 26.18 26.27 26.61
742.797 27.15 27.83 28.8 30.08 31.54 33.2 35.11 37.25 39.54 42.12
762.091 44.8 47.55 50.36 53.07 55.55 57.55 59.04 60.29 61.34 61.73
781.384 61.2 59.84 57.9 55.77 53.6 51.38 49.16 46.9 44.65 42.51
800.678 40.56 38.71 36.92 35.32 33.83 32.47 31.21 29.98 28.8 27.65
819.971 26.54 25.47 24.38 23.32 22.41 21.49 20.62 19.92 19.3 18.86
839.264 18.59 18.4 18.29 18.28 18.34 18.4 18.53 18.7 18.87 19.04
858.558 19.21 19.46 19.67 19.93 20.24 20.47 20.63 20.78 20.83 20.74
877.851 20.59 20.24 19.82 19.43 18.96 18.52 18.04 17.56 17.11 16.6
897.145 16.09 15.6 15.08 14.56 14.05 13.6 13.08 12.5 11.98 11.43
916.438 10.93 10.47 10.06 9.73 9.33 9.02 8.85 8.61 8.3 7.97
935.732 7.69 7.43 7.25 7.17 7.11 7.09 7.06 7.07 7.14 7.17
955.025 7.24 7.36 7.45 7.64 7.84 8.03 8.11 7.98 8.01 8.16
974.318 8.29 8.42 8.6 8.8 9.04 9.32 9.63 9.95 10.24 10.5
993.612 10.69 10.83 11.09 11.38 11.71 12 12.29 12.68 13.18 13.89
1012.905 14.76 15.79 17.15 18.87 20.9 23.27 25.98 29 32.32 35.79
1032.199 39.31 42.77 46.03 49.05 51.66 53.71 55.22 56.15 56.2 55.4
1051.492 53.92 51.75 48.89 45.37 41.43 37.23 33.02 29.01 25.17 21.84
1070.786 19.22 17.23 15.76 14.58 13.64 12.92 12.41 11.96 11.34 10.72
1090.079 10.17 9.65 9.2 8.78 8.31 7.87 7.62 7.46 7.2 7.06
1109.372 7.11 7.17 7.33 7.59 7.87 8.2 8.78 9.48 10.16 11.12
1128.666 12.4 13.98 15.93 18.31 21.15 24.48 28.27 32.26 36.4 40.51
1147.959 44.18 47.27 49.74 51.38 51.95 51.51 49.84 47.03 43.7 40.11
1167.253 36.45 32.86 29.51 26.37 23.53 21.08 18.8 16.89 15.42 14.28
1186.546 13.4 12.59 11.92 11.51 11.19 10.89 10.72 10.52 10.37 10.46
1205.840 10.7 10.94 11.4 12.05 12.68 13.43 14.33 15.35 16.5 17.78
1225.133 19.25 20.98 23.05 25.57 28.49 31.93 36.11 40.97 46.73 53.52
1244.426 61.15 69.58 78.62 88.06 97.55 106.51 114.42 120.89 125.48 127.79
1263.720 127.84 125.76 121.5 115.27 107.57 99.04 90.35 82.02 74.6 68.29
1283.013 62.89 58.4 54.68 51.5 48.76 46.33 44.15 42.09 40.08 38.22
1302.307 36.47 34.79 33.2 31.64 30.08 28.57 27.14 25.77 24.51 23.34
1321.600 22.26 21.32 20.46 19.68 18.94 18.31 17.76 17.23 16.77 16.35
1340.894 15.88 15.41 14.94 14.5 14.13 13.72 13.38 13.18 13.05 13.02
1360.187 13.09 13.26 13.58 13.93 14.24 14.61 15.03 15.38 15.62 15.71
1379.480 15.62 15.44 15.19 14.8 14.34 13.83 13.33 12.91 12.58 12.3
1398.774 12.11 12.03 12.07 12.18 12.36 12.64 13.05 13.61 14.37 15.42
1418.067 16.78 18.59 20.88 23.7 26.97 30.46 33.97 37.16 39.94 42.09
1437.361 43.35 43.91 44.05 43.88 43.43 42.79 41.98 41.28 41.16 41.7
1456.654 42.94 44.57 46.22 47.62 48.24 48.22 48.18 48.65 49.93 51.95
1475.948 54.51 57.37 60.07 62.32 63.68 64 63.31 61.64 59.02 55.54
1495.241 50.91 45.09 38.77 32.5 26.91 22.4 18.78 15.95 13.93 12.49
1514.534 11.42 10.64 10.15 9.85 9.57 9.41 9.3 9.21 9.18 9.21
1533.828 9.3 9.36 9.47 9.63 9.82 10.05 10.29 10.57 11 11.56
1553.121 12.22 13.04 14.05 15.39 16.91 18.58 20.75 23.38 26.52 30.24
1572.415 34.39 39 44.12 49.26 54.33 59.24 63.84 68.39 72.97 77.43
1591.708 81.48 84.86 87.2 88.38 88.49 87.38 85.06 81.61 77.24 72.14
1611.002 66.6 60.83 55.04 49.23 43.76 38.88 34.42 30.38 26.89 23.91
1630.295 21.29 19.06 17.27 15.68 14.27 13.14 12.2 11.45 10.82 10.27
1649.588 9.72 9.25 8.68 8.05 7.56 7.15 6.85 6.55 6.22 5.96
1668.882 5.74 5.49 5.26 5.07 4.86 4.67 4.55 4.48 4.36 4.22
1688.175 4.12 4.05 4 3.93 3.9 3.91 3.94 3.91 3.87 3.9
1707.469 3.92 3.88 3.88 3.94 3.97 4 4.01 3.96 3.93 3.9
1726.762 3.87 3.86 3.8 3.81 3.86 3.84 3.78 3.66 3.6 3.6
1746.056 3.53 3.49 3.46 3.4 3.3 3.24 3.23 3.17 3.08 3.0062
1765.349 2.9254 2.8931 2.8548 2.7996 2.7437 2.6589 2.6164 2.5969 2.5422 2.4877
1784.642 2.5027 2.4635 2.3993 2.4198 2.4373 2.4485 2.4455 2.4439 2.4769 2.488
1803.936 2.4693 2.5142 2.5818 2.6121 2.6063 2.6509 2.7614 2.7845 2.8132 2.8804
1823.229 2.9206 2.9761 2.9915 3.0291 3.07 3.07 3.07 3.09 3.09 3.0185
1842.523 2.9835 2.9506 2.8696 2.7908 2.7205 2.6647 2.6134 2.5623 2.4511 2.3527
1861.816 2.3398 2.3625 2.3797 2.3713 2.3463 2.322 2.3217 2.3073 2.236 2.1991
1881.110 2.2026 2.1721 2.1742 2.1612 2.163 2.1832 2.1951 2.2396 2.2712 2.3297
1900.403 2.4165 2.5338 2.6681 2.7767 2.8883 2.9894 3.12 3.2 3.19 3.2
1919.696 3.16 3.11 3.0415 2.9257 2.8164 2.6915 2.5701 2.3846 2.1974 2.10647
1938.990 1.9926 1.932 1.947 1.911 1.875 1.865 1.877 1.864 1.82 1.829
1958.283 1.843 1.884 1.911 1.887 1.924 1.942 1.926 1.9864 2.0465 2.07788
1977.577 2.0585 2.0412 2.05871 2.07465 2.08513 2.07702 2.09184 2.06217 2.0131 1.9988
1996.870 1.9771 1.9611 1.95 1.916 1.9 1.897 1.88 1.866 1.885 1.885
2016.164 1.877 1.894 1.899 1.955 2.0383 2.05585 2.0469 2.08032 2.11934 2.13893
2035.457 2.15103 2.2018 2.2293 2.2261 2.2355 2.2318 2.2377 2.2313 2.2252 2.242
2054.750 2.2538 2.2247 2.1973 2.207 2.186 2.1837 2.1994 2.15287 2.14348 2.1895
2074.044 2.2182 2.2209 2.1842 2.15703 2.1751 2.1887 2.1963 2.1616 2.13491 2.13127
2093.337 2.10411 2.06377 2.0068 1.9711 1.94 1.887 1.855 1.817 1.773 1.734
2112.631 1.664 1.628 1.584 1.558 1.568 1.554 1.561 1.545 1.538 1.561
2131.924 1.551 1.566 1.579 1.59 1.63 1.647 1.68 1.694 1.667 1.688
2151.218 1.721 1.748 1.745 1.722 1.738 1.772 1.743 1.728 1.762 1.74
2170.511 1.713 1.703 1.698 1.702 1.68 1.669 1.697 1.707 1.712 1.688
2189.804 1.658 1.671 1.661 1.638 1.636 1.669 1.695 1.665 1.636 1.595
2209.098 1.538 1.491 1.447 1.4 1.382 1.332 1.285 1.242 1.185 1.149
2228.391 1.114 1.074 1.06 1.06 1.04 1.083 1.04 0.96 1 1
2247.685 1 1.02 1.03 1.04 1.02 1.01 1.02 1.04 1.04 1.04
2266.978 1.06 1.088 1.071 1.061 1.061 1.05 1.065 1.07 1.09 1.101
2286.272 1.11 1.096 1.132 1.198 1.213 1.251 1.281 1.309 1.343 1.342
2305.565 1.373 1.433 1.441 1.426 1.457 1.464 1.445 1.452 1.452 1.458
2324.858 1.463 1.456 1.475 1.468 1.46 1.438 1.389 1.376 1.399 1.405
2344.152 1.309 1.254 1.27 1.228 1.192 1.202 1.216 1.22 1.24 1.207
2363.445 1.192 1.234 1.221 1.207 1.181 1.144 1.139 1.142 1.106 1.108
2382.739 1.152 1.131 1.121 1.133 1.131 1.132 1.12 1.112 1.141 1.16
2402.032 1.168 1.157 1.172 1.204 1.192 1.186 1.225 1.272 1.241 1.228
2421.326 1.245 1.239 1.241 1.26 1.223 1.176 1.185 1.164 1.145 1.12
2440.619 1.062 1.06 1.063 1.04 1.01 1 1.02 1.01 0.99 1.02
2459.912 1.03 1.02 1.04 1.076 1.081 1.067 1.066 1.091 1.139 1.134
2479.206 1.107 1.141 1.146 1.118 1.152 1.168 1.178 1.178 1.2 1.253
2498.499 1.252 1.241 1.235 1.252 1.292 1.309 1.304 1.3 1.33 1.372
2517.793 1.361 1.402 1.446 1.391 1.439 1.505 1.493 1.486 1.488 1.513
2537.086 1.507 1.492 1.488 1.476 1.492 1.502 1.5 1.478 1.457 1.49
2556.380 1.445 1.388 1.414 1.455 1.461 1.418 1.399 1.395 1.416 1.422
2575.673 1.393 1.374 1.333 1.327 1.348 1.379 1.418 1.427 1.386 1.374
2594.966 1.402 1.4 1.387 1.412 1.438 1.441 1.456 1.428 1.378 1.384
2614.260 1.42 1.417 1.394 1.386 1.383 1.336 1.335 1.359 1.331 1.339
2633.553 1.337 1.316 1.352 1.361 1.342 1.35 1.372 1.387 1.401 1.396
2652.847 1.344 1.31 1.293 1.282 1.308 1.272 1.266 1.289 1.253 1.238
2672.140 1.271 1.288 1.265 1.28 1.324 1.353 1.324 1.321 1.351 1.339
2691.434 1.354 1.332 1.336 1.4 1.412 1.444 1.493 1.511 1.513 1.579
2710.727 1.684 1.753 1.797 1.876 1.915 1.884 1.885 1.954 2.0587 2.14917
2730.020 2.1725 2.1915 2.2324 2.3027 2.4183 2.45 2.4525 2.4477 2.461 2.556
2749.314 2.6184 2.6218 2.5891 2.6055 2.695 2.7395 2.7609 2.7536 2.7463 2.808
2768.607 2.8232 2.8472 2.8965 2.9995 3.13 3.18 3.32 3.42 3.54 3.74
2787.901 3.9 4.08 4.25 4.43 4.68 4.98 5.27 5.48 5.74 6.08
2807.194 6.54 7.01 7.46 8.02 8.6 9.29 10.05 10.85 11.86 12.96
2826.488 14.27 15.96 17.8 19.86 22.12 24.36 26.34 27.91 29.13 30.03
2845.781 30.61 30.92 30.81 30.21 29.12 27.99 27 26.14 25.52 25.05
2865.074 24.88 24.76 24.51 24.41 24.38 24.32 24.27 24.29 24.3 24.31
2884.368 24.4 24.68 25.07 25.35 25.67 26.2 26.73 27.28 27.79 28.23
2903.661 28.76 29.27 29.74 30.25 30.82 31.22 31.56 31.94 32.2 32.45
2922.955 32.59 32.83 33.37 33.99 34.85 36.04 37.53 39.41 41.2 42.69
2942.248 43.97 44.84 45.17 45.06 44.69 43.85 42.63 41.08 38.96 36.31
2961.542 33.44 30.56 27.88 25.62 23.66 21.91 20.38 19 17.77 16.96
2980.835 16.43 16.09 16.08 16.31 16.86 17.84 19.21 20.91 22.87 24.84
3000.128 26.49 27.52 27.84 27.7 27.33 26.76 25.75 24.39 22.74 20.82
3019.422 19.13 18.04 17.51 17.24 17.22 17.48 17.81 18.05 18.35 18.66
3038.715 18.94 19.33 19.47 19.65 19.86 19.88 19.89 19.84 19.76 19.63
3058.009 19.42 19.11 18.84 18.66 18.47 18.33 18.15 17.85 17.43 16.99
3077.302 16.69 16.38 15.87 15.08 14.23 13.19 12.02 10.98 10.02 9.27
3096.596 8.39 7.61 7.01 6.33 5.88 5.47 5.04 4.73 4.37 3.97
3115.889 3.63 3.23 2.8696 2.6701 2.4748 2.15931 1.924 1.771 1.667 1.488
3135.182 1.327 1.282 1.278 1.211 1 0.89 0.9 0.81 0.77 0.77
3154.476 0.74 0.85 0.83 0.68 0.67 0.65 0.65 0.64 0.5 0.44
3173.769 0.46 0.51 0.58 0.47 0.3 0.34 0.43 0.39 0.38 0.42
3193.063 0.44 0.52 0.57 0.55 0.41 0.42 0.4 0.3 0.29 0.24
3212.356 0.26 0.35 0.37 0.27 0.18 0.15 0.26 0.25 0.29 0.34
3231.650 0.16 0.09 0.19 0.11 0 0.02 0.06 0.07 0.11 0.2
3250.943 0.12 0.12 0.15 0.17 0.27 0.15 0.11 0.18 0.26 0.19
3270.236 0.06 0.08 0.12 0.18 0.21 0.18 0.14 0.2 0.26 0.15
3289.530 0.12 0.21 0.2 0.23 0.27 0.24 0.33 0.32 0.21 0.22
3308.823 0.27 0.32 0.25 0.25 0.37 0.33 0.28 0.4 0.46 0.5
3328.117 0.6 0.73 0.82 0.87 1.01 1.066 1 0.97 1.168 1.385
3347.410 1.344 1.332 1.273 1.094 1.111 1.178 1.062 0.86 0.72 0.75
3366.704 0.82 0.73 0.63 0.63 0.52 0.44 0.56 0.44 0.34 0.47
3385.997 0.54 0.65 0.59 0.42 0.43 0.56 0.63 0.63 0.53 0.48
3405.290 0.57 0.68 0.81 0.8 0.76 0.76 0.77 0.82 0.84 0.9
3424.584 0.89 0.78 0.65 0.72 0.83 0.68 0.6 0.63 0.57 0.44
3443.877 0.44 0.53 0.56 0.63 0.64 0.62 0.63 0.59 0.5 0.49
3463.171 0.59 0.63 0.53 0.58 0.48 0.39 0.46 0.49 0.64 0.65
3482.464 0.51 0.37 0.41 0.44 0.39 0.44 0.51 0.52 0.45 0.4
3501.758 0.39 0.45 0.53 0.47 0.45 0.51 0.49 0.42 0.47 0.53
3521.051 0.57 0.58 0.56 0.66 0.62 0.61 0.68 0.73 0.73 0.63
3540.344 0.69 0.59 0.54 0.62 0.6 0.59 0.55 0.63 0.73 0.69
3559.638 0.6 0.6 0.73 0.78 0.64 0.63 0.68 0.66 0.62 0.68
3578.931 0.78 0.68 0.7 0.76 0.67 0.69 0.81 0.94 0.89 0.72
3598.225 0.63 0.67 0.66 0.74 0.82 0.79 0.73 0.72 0.84 0.76
3617.518 0.7 0.81 0.84 0.84 0.88 0.8 0.66 0.76 0.84 0.79
3636.812 0.85 0.84 0.84 0.85 0.82 0.84 0.95 0.92 0.83 0.82
3656.105 0.75 0.77 0.69 0.64 0.82 0.91 0.88 0.86 0.83 0.76
3675.398 0.81 0.84 0.82 0.76 0.73 0.76 0.78 0.87 0.91 0.85
3694.692 0.82 0.82 0.84 0.78 0.79 0.82 0.84 0.85 0.83 0.88
3713.985 0.8 0.74 0.83 0.83 0.8 0.93 0.97 0.89 0.88 0.96
3733.279 0.99 1.03 1.092 1.03 0.95 0.99 1.146 1.118 1.07 1.1
3752.572 1.06 0.97 0.96 1.02 0.99 1.01 1.08 1.03 1.01 1.02
3771.866 0.89 0.85 0.98 0.97 0.92 0.91 0.95 0.95 0.85 0.87
3791.159 0.9 0.87 0.87 0.94 1.081 1.111 1.07 0.97 0.9 0.99
3810.452 0.98 0.96 1.01 1 1 1.089 1.04 0.95 0.93 0.92
3829.746 0.89 0.94 1 1.068 1.165 1.068 0.99 0.89 0.86 0.94
3849.039 0.95 0.98 1.071 1.184 1.186 1.131 1.081 1.069 1.071 1.03
3868.333 1.065 1.115 1.061 1.02 1.164 1.286 1.124 1.04 1.06 1.094
3887.626 1.251 1.237 1.148 1.064 1.089 1.241 1.26 1.217 1.192 1.01
3906.920 0.96 1.102 1.189 1.2 1.125 1.116 1.116 1.093 1.092 1.04
3926.213 1.065 1.062 0.98 1.01 1 0.99 0.99 1.06 1.077 1.01
3945.506 1.02 1.07 1.146 1.152 1.096 1.05 1.094 1.167 1.142 1.101
3964.800 1.163 1.107 1.08 1.156 1.202 1.183 1.186 1.229 1.242 1.278
3984.093 1.334 1.357 1.312 1.299 1.272 1.239 1.252 1.272 1.301
##END=
