##TITLE=5-Chloro-2-methylbenzonitrile
##JCAMP-DX=4.24
##DATA TYPE=INFRARED SPECTRUM
##ORIGIN=EPA-IR VAPOR PHASE LIBRARY
##OWNER=SRD/NIST
Collection (C) 2018 copyright by the U.S. Secretary of Commerce
on behalf of the United States of America. All rights reserved.
##CAS REGISTRY NO=50712-70-4
##MOLFORM=C 8 H 6 Cl N
##$NIST SOURCE=MSDC-IR
##STATE=gas
##XUNITS=1/CM
##YUNITS=ABSORBANCE
##XFACTOR=1.
##YFACTOR=0.001
##DELTAX=1.92898
##FIRSTX=549.8
##LASTX=4000.7
##FIRSTY=2.14
##MAXX=4000.7
##MINX=549.759
##MAXY=0.21146
##MINY=0.00001697
##NPOINTS=1790
##XYDATA=(X++(Y..Y))
549.759 2.14 2.71 3.71 4.7 5.95 6.9 6.61 5.96 5.78 6.02
569.049 6.33 6.29 5.75 5.21 4.8 4.8 5.35 5.78 6.53 7.92
588.339 9.21 8.83 7.98 7.78 7.72 7.5 6.63 5.91 5.14 4.24
607.628 3.56 2.95 2.49 2.19 1.95 1.74 1.48 1.35 1.32 1.17
626.918 1.04 1.2 1.35 1.38 1.54 1.75 2.08 2.59 3.45 4.73
646.208 6.78 10.54 16.39 23.58 30.02 33.18 33.54 34.34 34.3 33.75
665.498 33.75 29.26 20.88 13.4 8.62 6.4 5.39 5.1 5.04 5.02
684.787 5.47 6.37 7.44 8.59 9.9 11.09 11.99 12.93 14.04 15.72
704.077 18.18 18.53 15.76 13.46 12.65 12.18 11.8 11.2 10.48 9.9
723.367 9.38 9.32 9.78 10.39 10.7 10.77 10.72 10.59 10.61 10.46
742.657 10.01 9.77 9.46 9.15 9.36 9.94 10.57 11 11.2 11.14
761.947 10.71 10.15 9.26 8.1 6.93 5.77 4.83 4.19 3.99 4.08
781.236 4.38 4.85 5.57 6.51 7.75 9.33 11.48 14.65 19.39 25.74
800.526 33.55 42.95 53.63 64.86 76.21 87.56 99.31 113.75 135.62 155.64
819.816 141.21 109.67 93.86 85.52 77.22 67.68 57.17 47.33 38.86 32.38
839.106 27.8 24.45 22.26 21.08 20.69 20.84 21.7 24.09 29.26 38.95
858.395 55.26 79.13 107.67 133.36 148.74 156.63 166.83 173.83 174.4 172.64
877.685 157.73 130.29 106.45 94.48 91.63 85.6 67.87 53.25 47.04 41.37
896.975 35.45 29.36 23.46 18.11 13.84 10.76 8.71 7.24 6.23 5.77
916.265 5.67 5.64 5.76 6 6.19 6.19 6.11 6.16 6.13 5.96
935.555 5.63 5.13 4.73 4.46 4.31 4.31 4.27 4.33 4.45 4.73
954.844 4.98 5.15 5.52 5.9 6.29 6.69 6.97 7.15 7.68 8.31
974.134 8.71 9.13 9.54 10.04 10.74 11.32 11.98 12.74 13.45 14.07
993.424 14.49 14.72 14.68 14.44 13.95 13.18 12.26 11.04 9.98 9.21
1012.714 8.46 7.84 7.27 6.8 6.71 6.69 6.85 7.23 7.44 7.74
1032.003 8.09 8.49 9.12 9.68 10.33 11.04 11.73 12.48 12.99 13.16
1051.293 13.12 13.02 12.87 12.8 12.51 11.8 11.13 10.71 10.88 11.69
1070.583 13.18 16.34 20.87 26.79 33.92 40.97 47.55 52.78 55.45 56.75
1089.873 57.08 54.19 49.17 42.04 32.72 24.18 18.7 16.33 15.99 17.34
1109.163 20.15 24.54 30.81 39.11 50.1 63.86 79.65 95.77 108.31 113.13
1128.452 111.4 108.77 106.49 103.29 94.99 78.1 57.69 40.15 27.96 20.41
1147.742 15.37 11.95 10.06 8.95 8.41 8.82 10.3 12.3 14.57 17.25
1167.032 20.76 25.64 31.81 39.55 48.15 56.25 62 64.25 64.77 64.79
1186.322 63.79 62.09 58.28 50.82 42.12 34.92 30.6 28.74 27.74 26.84
1205.611 25.46 23.41 21.02 19.17 18.32 17.35 15.91 13.94 12 10.71
1224.901 9.76 9.34 9.11 8.93 8.89 8.53 8.15 8.26 8.64 9.07
1244.191 9.52 10 10.57 11.43 12.46 13.22 13.95 14.82 15.75 17.16
1263.481 19.11 21.69 24.84 27.65 29.37 30.44 31.84 32.88 33.17 32.84
1282.771 30.84 27.38 24.08 21.47 19.16 16.57 13.67 11.01 9.13 7.95
1302.060 7.18 6.61 6.19 5.91 5.71 5.69 5.76 5.8 5.92 6.05
1321.350 6.18 6.37 6.59 6.82 6.97 7.05 7.17 7.29 7.35 7.43
1340.640 7.41 7.35 7.27 7.17 7.1 7.08 7.09 7.13 7.17 7.22
1359.930 7.35 7.57 7.89 8.36 9.08 10.1 11.46 13.32 15.88 19.07
1379.219 23.03 27.69 32.72 37.44 41.14 43.63 45.35 46.72 47.4 46.59
1398.509 43.71 39.05 34.04 29.81 26.68 24.25 22.24 20.72 19.65 18.98
1417.799 18.63 18.58 18.81 19.16 19.67 20.38 21.32 22.43 23.64 25.02
1437.089 26.54 28.16 29.99 32.07 34.42 37.13 40.5 44.78 50.37 57.61
1456.378 67.08 78.86 92.27 106.78 120.7 132.3 140.33 146.01 152.36 161.85
1475.668 173.94 188.11 201.72 210.23 211.46 207.77 203.08 196.1 183.44 166.05
1494.958 140.73 108.1 78.14 56.64 43.42 35.74 31.09 27.99 25.75 24.01
1514.248 22.72 21.7 20.78 19.97 19.24 18.61 18.23 17.98 17.76 17.73
1533.538 17.87 17.95 17.99 18.06 18.24 18.55 18.99 19.65 20.45 21.35
1552.827 22.49 23.93 25.45 27.01 28.59 29.98 31.08 31.66 31.68 31.26
1572.117 30.41 29.27 27.88 26.33 24.96 24.16 24.23 25.42 27.63 30.32
1591.407 32.97 34.86 35.67 35.31 33.96 31.97 29.27 25.9 21.94 17.75
1610.697 14.2 11.76 10.52 10.09 10.14 10.54 11.1 11.73 12.42 13.02
1629.986 13.35 13.29 12.99 12.6 12.14 11.61 10.81 9.66 8.32 7.12
1649.276 6.18 5.43 4.75 4.15 3.72 3.36 3.06 2.86 2.65 2.41
1668.566 2.23 2.16 2.11 2.06 2 2.05 2.18 2.27 2.35 2.45
1687.856 2.5 2.54 2.58 2.62 2.7 2.72 2.76 2.77 2.73 2.66
1707.146 2.62 2.56 2.44 2.34 2.27 2.18 2.03 1.96 1.96 1.97
1726.435 2.04 2.17 2.35 2.62 3.02 3.45 4.01 4.69 5.4 6.15
1745.725 6.97 7.87 8.87 10.04 11.22 12.42 13.62 14.68 15.46 15.9
1765.015 15.94 15.47 14.51 13.41 12.45 11.3 9.79 8.11 6.55 5.29
1784.305 4.31 3.62 3.13 2.74 2.37 2.04 1.79 1.62 1.46 1.31
1803.594 1.2 1.12 1.12 1.12 1.11 1.15 1.21 1.27 1.39 1.56
1822.884 1.7 1.87 2.07 2.26 2.41 2.55 2.7 2.78 2.76 2.75
1842.174 2.78 2.79 2.75 2.66 2.57 2.47 2.37 2.31 2.24 2.19
1861.464 2.21 2.21 2.18 2.15 2.16 2.18 2.23 2.33 2.51 2.79
1880.754 3.18 3.73 4.43 5.25 6.19 7.19 8.25 9.29 10.1 10.6
1900.043 10.58 10.19 9.76 9.32 8.79 7.86 6.55 5.21 4.11 3.22
1919.333 2.6 2.2 1.87 1.64 1.48 1.37 1.31 1.24 1.21 1.21
1938.623 1.2 1.26 1.33 1.34 1.37 1.4 1.38 1.4 1.38 1.33
1957.913 1.32 1.25 1.15 1.1 1.02 0.9269 0.8988 0.8648 0.8323 0.8486
1977.202 0.8129 0.7522 0.7652 0.7324 0.688 0.7337 0.7461 0.7497 0.7548 0.7163
1996.492 0.7283 0.769 0.784 0.8053 0.8128 0.8073 0.8089 0.7992 0.754 0.6951
2015.782 0.6808 0.6924 0.6539 0.623 0.6486 0.6392 0.6256 0.5901 0.6008 0.6529
2035.072 0.6704 0.7001 0.7383 0.7713 0.7563 0.7077 0.7491 0.8303 0.8323 0.8463
2054.362 0.8265 0.7724 0.7372 0.7145 0.7022 0.6774 0.6846 0.6549 0.5807 0.5057
2073.651 0.4806 0.5176 0.5105 0.5199 0.5544 0.574 0.5726 0.5925 0.6333 0.6776
2092.941 0.7128 0.6873 0.6621 0.6699 0.6549 0.6152 0.5651 0.5336 0.5603 0.5948
2112.231 0.5891 0.5786 0.6314 0.6636 0.7054 0.7566 0.7824 0.809 0.7664 0.7431
2131.521 0.747 0.7073 0.6494 0.6296 0.622 0.5566 0.504 0.4883 0.4713 0.4652
2150.810 0.5052 0.5317 0.526 0.5421 0.5356 0.5154 0.5217 0.4974 0.4995 0.5375
2170.100 0.5724 0.576 0.5716 0.5826 0.6513 0.7339 0.7293 0.7538 0.8257 0.8183
2189.390 0.8244 0.8939 0.9765 1.13 1.32 1.6 1.99 2.5 3.04 3.67
2208.680 4.57 5.73 7.17 8.96 11.16 13.77 16.68 19.77 22.74 25.17
2227.970 26.87 27.65 27.44 26.52 24.99 22.72 19.59 15.73 11.7 8.25
2247.259 5.89 4.44 3.57 3.05 2.71 2.5 2.37 2.29 2.23 2.1
2266.549 1.93 1.8 1.69 1.58 1.5 1.41 1.37 1.36 1.32 1.36
2285.839 1.44 1.48 1.51 1.57 1.66 1.71 1.72 1.77 1.81 1.83
2305.129 1.84 1.81 1.77 1.75 1.66 1.59 1.55 1.42 1.33 1.31
2324.418 1.29 1.27 1.17 1.16 1.22 1.26 1.34 1.43 1.49 1.55
2343.708 1.66 1.77 1.9 2.06 2.27 2.44 2.55 2.65 2.77 2.79
2362.998 2.76 2.7 2.5 2.32 2.11 1.87 1.72 1.62 1.51 1.43
2382.288 1.39 1.35 1.33 1.32 1.31 1.35 1.38 1.35 1.35 1.35
2401.578 1.4 1.44 1.41 1.41 1.39 1.35 1.37 1.34 1.25 1.28
2420.867 1.28 1.24 1.18 1.15 1.11 1.09 1.06 1.01 0.9954 0.9656
2440.157 0.9966 1.07 1.05 1.06 1.05 1 0.9884 0.9681 0.9416 0.9699
2459.447 0.9332 0.905 0.9962 1.06 1.11 1.22 1.31 1.27 1.25 1.28
2478.737 1.26 1.24 1.24 1.24 1.22 1.14 1.11 1.03 0.9693 1.01
2498.026 0.9994 0.9471 0.9356 0.9811 1.06 1.15 1.23 1.28 1.36 1.41
2517.316 1.47 1.53 1.61 1.62 1.52 1.43 1.33 1.25 1.19 1.12
2536.606 1.06 0.9828 0.9679 1.03 1.06 1.09 1.14 1.19 1.24 1.22
2555.896 1.25 1.33 1.38 1.41 1.47 1.52 1.52 1.48 1.5 1.56
2575.186 1.59 1.55 1.57 1.59 1.55 1.61 1.67 1.78 1.86 1.89
2594.475 1.93 1.91 1.91 1.96 1.92 1.88 1.81 1.67 1.49 1.35
2613.765 1.23 1.14 1.08 0.9494 0.8122 0.7264 0.6859 0.7008 0.6697 0.6745
2633.055 0.6857 0.65 0.6621 0.6942 0.7266 0.7927 0.8402 0.8245 0.855 0.8319
2652.345 0.8035 0.8666 0.8607 0.8619 0.9135 0.9545 1 1.04 1.05 1.06
2671.634 1.14 1.16 1.17 1.23 1.29 1.37 1.51 1.67 1.72 1.84
2690.924 1.96 2.03 2.1 2.15 2.15 2.1 2.01 1.87 1.8 1.75
2710.214 1.76 1.78 1.77 1.86 2 2.09 2.1 2.08 2.07 2.11
2729.504 2.18 2.22 2.27 2.27 2.24 2.26 2.35 2.48 2.63 2.86
2748.794 3.05 3.21 3.39 3.51 3.53 3.53 3.54 3.47 3.32 3.11
2768.083 2.95 2.76 2.58 2.52 2.45 2.34 2.3 2.24 2.21 2.26
2787.373 2.29 2.26 2.19 2.13 2.18 2.18 2.18 2.19 2.12 2.09
2806.663 2.15 2.23 2.31 2.4 2.51 2.57 2.65 2.84 2.95 3.01
2825.953 3.16 3.33 3.44 3.56 3.81 4.09 4.34 4.64 5.01 5.35
2845.242 5.65 6.02 6.51 7.12 7.74 8.29 8.9 9.67 10.5 11.37
2864.532 12.36 13.38 14.41 15.43 16.3 17.03 17.51 17.78 17.93 17.81
2883.822 17.48 17.04 16.49 15.84 15.31 14.91 14.49 14.15 13.96 13.88
2903.112 13.82 13.81 14 14.22 14.53 15.01 15.58 16.46 17.64 19.01
2922.401 20.8 23.19 26.15 29.61 33.28 36.78 39.64 41.52 42.39 42.54
2941.691 41.91 40.52 38.41 35.45 32.03 28.81 26.16 24.25 22.9 22.01
2960.981 21.49 21.24 21.22 21.1 20.9 20.59 20.17 19.94 19.91 19.83
2980.271 19.8 19.81 19.75 19.73 19.75 19.78 19.77 19.69 19.51 19.23
2999.561 18.91 18.5 18.06 17.66 17.24 16.91 16.72 16.65 16.78 17.14
3018.850 17.69 18.38 19.24 20.29 21.4 22.47 23.4 23.96 24.28 24.5
3038.140 24.46 24.28 23.87 23.17 22.35 21.6 21.05 20.8 20.91 21.21
3057.430 21.69 22.39 23.09 23.79 24.44 24.74 24.65 24.34 23.92 23.32
3076.720 22.34 20.79 18.92 17.08 15.3 13.66 12.05 10.61 9.51 8.6
3096.009 7.93 7.34 6.83 6.45 6.09 5.71 5.35 4.99 4.58 4.25
3115.299 3.91 3.6 3.24 2.84 2.62 2.54 2.52 2.35 2.13 1.96
3134.589 1.84 1.79 1.63 1.55 1.55 1.39 1.31 1.35 1.3 1.22
3153.879 1.2 1.1 1.1 1.15 1.09 1.03 1.03 1.05 0.9453 0.888
3173.169 0.8363 0.7913 0.8325 0.8837 0.9567 0.8973 0.8093 0.8911 0.9028 0.7881
3192.458 0.6746 0.6702 0.7259 0.7351 0.6712 0.5398 0.4976 0.4656 0.4594 0.477
3211.748 0.3859 0.2906 0.2847 0.3098 0.2948 0.2195 0.1607 0.2333 0.3205 0.2214
3231.038 0.1843 0.1651 0.06251 0.1032 0.1392 0.1373 0.1521 0.154 0.1672 0.1944
3250.328 0.2136 0.2959 0.2458 0.1249 0.1898 0.2541 0.233 0.2345 0.189 0.145
3269.617 0.2304 0.3214 0.2909 0.2047 0.1826 0.1873 0.1328 0.2179 0.3137 0.27
3288.907 0.229 0.2938 0.3412 0.2843 0.2246 0.1496 0.1532 0.1659 0.1803 0.1908
3308.197 0.2469 0.3053 0.2114 0.2629 0.3752 0.2957 0.2945 0.3875 0.3728 0.3544
3327.487 0.3027 0.2872 0.3138 0.2933 0.3445 0.3731 0.421 0.4339 0.3588 0.4631
3346.777 0.6074 0.5233 0.4586 0.4791 0.4476 0.48 0.5182 0.4857 0.4238 0.3832
3366.066 0.4228 0.3864 0.4227 0.443 0.3337 0.3254 0.3203 0.2491 0.2769 0.2892
3385.356 0.1936 0.3372 0.5126 0.6012 0.6026 0.7267 0.8318 0.8772 0.9836 1.04
3404.646 1.13 1.26 1.33 1.32 1.41 1.39 1.38 1.36 1.21 1.16
3423.936 1.23 1.17 1.01 1.03 1.13 1.05 0.9304 1.05 1.08 0.9697
3443.225 0.8725 0.8142 0.7558 0.6487 0.5809 0.5347 0.4813 0.4705 0.4343 0.4017
3462.515 0.4348 0.3229 0.2401 0.2621 0.2191 0.2362 0.281 0.2269 0.2202 0.2692
3481.805 0.3129 0.2735 0.1551 0.141 0.2023 0.1927 0.1953 0.2574 0.2438 0.2527
3501.095 0.2397 0.2134 0.2765 0.1332 0.09928 0.1721 0.1768 0.153 0.08455 0.1217
3520.385 0.2058 0.2439 0.2271 0.2078 0.1951 0.1638 0.1891 0.2312 0.1228 0.06455
3539.674 0.1282 0.2475 0.1843 0.09162 0.1562 0.1882 0.2017 0.2607 0.1799 0.1193
3558.964 0.1293 0.01697 0.04329 0.1463 0.1445 0.1646 0.0852 0.04508 0.1256 0.1725
3578.254 0.1663 0.09757 0.1131 0.1245 0.1211 0.1264 0.2104 0.2572 0.0998 0.04262
3597.544 0.2148 0.2488 0.2217 0.2255 0.1414 0.1859 0.3176 0.2767 0.1602 0.1818
3616.833 0.2793 0.3332 0.3372 0.4281 0.5114 0.4074 0.3165 0.3574 0.3398 0.1865
3636.123 0.1822 0.2403 0.1801 0.2373 0.3291 0.1535 0.05298 0.2336 0.3031 0.264
3655.413 0.1574 0.09686 0.1012 0.1919 0.2759 0.2627 0.219 0.2014 0.2956 0.3607
3674.703 0.4506 0.3908 0.3866 0.5813 0.5625 0.5855 0.7055 0.8075 0.8812 0.8308
3693.993 0.7435 0.7976 0.9338 0.8227 0.6763 0.6796 0.7055 0.6932 0.5603 0.5128
3713.282 0.5379 0.5151 0.4706 0.4434 0.4198 0.3913 0.4334 0.4231 0.4997 0.5129
3732.572 0.3952 0.4152 0.4538 0.4795 0.4123 0.3921 0.4824 0.4539 0.3977 0.4362
3751.862 0.4456 0.4128 0.445 0.4457 0.4811 0.5045 0.485 0.4782 0.4719 0.4945
3771.152 0.5244 0.5311 0.4622 0.473 0.4138 0.3588 0.421 0.4065 0.4167 0.3771
3790.441 0.3314 0.3326 0.2929 0.4154 0.4832 0.3783 0.4059 0.492 0.4466 0.4156
3809.731 0.4726 0.4413 0.5138 0.5105 0.4484 0.5374 0.6107 0.5772 0.5532 0.6473
3829.021 0.7391 0.7429 0.7275 0.7463 0.6952 0.6489 0.5759 0.5541 0.5671 0.4203
3848.311 0.383 0.4845 0.4604 0.3898 0.4846 0.5132 0.4907 0.4907 0.4088 0.429
3867.601 0.4044 0.3186 0.3554 0.4571 0.4953 0.4673 0.4359 0.4398 0.4612 0.4124
3886.890 0.4056 0.4477 0.4362 0.4536 0.5214 0.5122 0.5441 0.5338 0.5841 0.7895
3906.180 0.7451 0.6965 0.699 0.7109 0.6814 0.6757 0.7893 0.8232 0.9509 1.01
3925.470 1.06 1.02 0.986 1.22 1.46 1.62 1.74 1.89 2 2.07
3944.760 2.16 2.22 2.24 2.23 2 1.76 1.62 1.45 1.41 1.28
3964.049 1.05 0.9694 0.9327 0.8711 0.8717 0.8655 0.8312 0.7438 0.6296 0.6316
3983.339 0.6353 0.5987 0.5916 0.6101 0.6545 0.5371 0.5164 0.6361 0.6601 0.6586
##END=
