##TITLE=4-Chloro-2-methylbenzonitrile
##JCAMP-DX=4.24
##DATA TYPE=INFRARED SPECTRUM
##ORIGIN=EPA-IR VAPOR PHASE LIBRARY
##OWNER=SRD/NIST
Collection (C) 2018 copyright by the U.S. Secretary of Commerce
on behalf of the United States of America. All rights reserved.
##CAS REGISTRY NO=50712-68-0
##MOLFORM=C 8 H 6 Cl N
##$NIST SOURCE=MSDC-IR
##STATE=gas
##XUNITS=1/CM
##YUNITS=ABSORBANCE
##XFACTOR=1.
##YFACTOR=0.001
##DELTAX=1.92898
##FIRSTX=549.8
##LASTX=4000.7
##FIRSTY=2.48
##MAXX=4000.7
##MINX=549.759
##MAXY=0.0491
##MINY=0.0001217
##NPOINTS=1790
##XYDATA=(X++(Y..Y))
549.759 2.48 3.08 3.97 4.84 5.44 6.23 6.88 7.1 7.78 9.65
569.049 12.46 12.22 9.21 7.88 7.76 7.38 6.7 6.2 5.9 5.54
588.339 5.1 4.67 4.27 3.94 3.89 4.15 4.12 3.94 4.2 4.96
607.628 5.89 6.8 7.48 7.82 7.97 7.98 7.95 7.62 6.72 5.69
626.918 4.79 3.96 3.37 3.02 3.01 2.74 2.27 1.93 1.43 0.9853
646.208 0.7039 0.5386 0.5947 0.6825 0.6248 0.9179 1.05 0.7639 0.7363 0.7565
665.498 0.5379 0.4499 0.4467 0.3907 0.5154 0.5724 0.5525 0.599 0.5576 0.468
684.787 0.6469 0.678 0.464 0.4564 0.5589 0.6447 0.5169 0.543 0.6049 0.5718
704.077 0.5965 0.5621 0.6437 0.5038 0.4881 0.7873 0.7591 0.7769 0.9517 0.89
723.367 0.8609 0.9464 1.01 1.18 1.32 1.3 1.37 1.37 1.3 1.45
742.657 1.42 1.32 1.33 1.31 1.26 1.13 1.06 1.15 1.25 1.11
761.947 1.05 0.946 0.939 1.11 1.19 1.29 1.21 1.14 1.25 1.31
781.236 1.41 1.64 1.91 2.12 2.55 3.18 3.92 4.92 6.04 7.3
800.526 9.07 11.27 13.43 15.51 17.87 20.24 22.08 23.79 26.88 31.63
819.816 36.98 36.28 28.42 23.34 21.82 20.06 17.74 15.11 12.34 9.64
839.106 7.42 5.91 4.92 4.23 4.01 3.81 3.95 4.75 5.49 6.33
858.395 7.45 8.62 10.07 11.73 13.43 15.44 18.48 23.12 29.2 33.91
877.685 36.74 40.65 43.89 44.73 44.52 43.93 42.52 39.54 33.4 24.97
896.975 17.59 12.71 9.94 8.17 6.72 5.52 4.59 3.61 2.88 2.51
916.265 2.17 1.94 1.7 1.57 1.59 1.49 1.43 1.3 1.24 1.32
935.555 1.35 1.34 1.3 1.4 1.46 1.42 1.58 1.74 1.86 2.15
954.844 2.3 2.3 2.3 2.22 2.28 2.27 2.18 2.3 2.32 2.13
974.134 1.98 2.07 2.27 2.38 2.56 2.57 2.52 2.75 2.75 2.74
993.424 2.88 2.91 2.85 2.67 2.54 2.59 2.64 2.49 2.38 2.2
1012.714 2.13 2.36 2.18 1.77 1.78 2.03 1.92 1.9 2.32 2.27
1032.003 2.15 2.17 2.1 2.14 2.34 2.53 2.55 2.43 2.15 2.17
1051.293 2.03 2.03 2.69 2.75 2.58 2.73 2.6 2.58 2.94 3.4
1070.583 3.67 3.9 4.73 5.98 7.09 8.99 11.45 14.03 16.86 19.05
1089.873 20.73 21.72 21.8 21.61 21.2 20.05 18.16 16.21 15.02 14.66
1109.163 14.95 15.73 17.12 17.77 17.61 17.46 17.34 16.76 15.69 14.59
1128.452 12.73 10.62 9.17 8.23 7.42 6.7 5.67 4.76 4.03 3.12
1147.742 2.83 2.51 1.62 1.46 1.99 2.35 3.14 4.44 6.16 8.01
1167.032 9.74 11.42 12.35 12.62 13.07 13.32 12.74 11.37 9.44 7.76
1186.322 6.67 6.57 7.3 8.07 9.19 10.34 11.22 12.08 12.66 13.38
1205.611 13.86 13.52 13.15 12.61 12.08 11.34 10.7 10.18 9.19 8.52
1224.901 7.58 6.6 5.97 5.42 4.81 4.17 3.82 3.58 3.48 3.42
1244.191 3.07 2.83 2.77 2.8 3.05 3.4 3.71 4.17 4.69 4.9
1263.481 5.1 5.6 6.17 6.57 6.4 5.93 5.62 5.43 5.2 4.66
1282.771 3.93 3.28 2.81 2.47 2.26 2.03 1.7 1.4 1.31 1.29
1302.060 1.23 1.2 1.23 1.28 1.31 1.27 1.26 1.32 1.33 1.37
1321.350 1.42 1.46 1.46 1.44 1.39 1.42 1.54 1.54 1.5 1.56
1340.640 1.66 1.81 1.98 2.09 2.3 2.57 2.78 2.94 3.14 3.36
1359.930 3.5 3.59 3.65 3.69 3.76 3.84 3.96 4.05 4.13 4.31
1379.219 4.61 4.96 5.39 5.87 6.39 7.03 7.71 8.42 9.1 9.54
1398.509 9.7 9.66 9.59 9.62 9.55 9.23 8.68 7.95 7.29 6.78
1417.799 6.38 6.09 5.88 5.75 5.82 6.05 6.52 7.09 7.71 8.47
1437.089 9.24 9.86 10.26 10.54 10.75 10.95 11 10.71 10.34 10.27
1456.378 10.56 11.18 12.05 13.29 15.1 17.56 20.69 24.54 29.06 33.93
1475.668 38.39 42.14 44.69 45.82 45.23 43.21 40.1 36.15 31.59 26.73
1494.958 21.88 17.58 14.51 12.51 11.26 10.54 10.06 9.77 9.66 9.68
1514.248 9.76 9.75 9.72 9.68 9.62 9.57 9.49 9.29 9.07 8.9
1533.538 8.8 8.82 8.99 9.13 9.31 9.7 10.11 10.39 10.72 11.07
1552.827 11.36 11.61 11.72 11.81 11.76 11.61 11.46 11.29 11.3 11.5
1572.117 11.94 12.71 14.05 16.16 18.91 22.39 26.46 31.23 36.35 41.32
1591.407 45.55 48.31 49.1 47.85 45.25 41.8 37.44 31.99 25.69 19.38
1610.697 14.26 10.71 8.49 7.11 6.12 5.35 4.71 4.29 4.07 3.85
1629.986 3.73 3.8 3.74 3.69 3.62 3.42 3.32 3.2 3.02 2.82
1649.276 2.58 2.25 1.95 1.74 1.56 1.43 1.43 1.37 1.3 1.31
1668.566 1.23 1.17 1.12 1.14 1.19 1.19 1.22 1.27 1.28 1.29
1687.856 1.31 1.31 1.33 1.36 1.4 1.4 1.46 1.52 1.55 1.66
1707.146 1.8 1.9 2.02 2.18 2.35 2.41 2.37 2.38 2.32 2.25
1726.435 2.22 2.18 2.08 2.08 2.19 2.23 2.33 2.43 2.45 2.37
1745.725 2.32 2.36 2.4 2.43 2.3 2.23 2.26 2.24 2.19 2.17
1765.015 2.07 1.91 1.74 1.57 1.38 1.21 1.12 0.9574 0.8392 0.7661
1784.305 0.7071 0.666 0.592 0.5646 0.5999 0.6347 0.6159 0.5513 0.5458 0.6114
1803.594 0.5809 0.5486 0.5929 0.5954 0.5919 0.6255 0.6575 0.6433 0.6263 0.6856
1822.884 0.7278 0.6856 0.6567 0.6307 0.615 0.6619 0.6398 0.5667 0.5338 0.5399
1842.174 0.5537 0.5281 0.5217 0.4832 0.4469 0.4655 0.4717 0.4758 0.4996 0.5263
1861.464 0.6028 0.649 0.6803 0.7598 0.7554 0.8461 0.9972 1.11 1.22 1.33
1880.754 1.51 1.75 1.92 2.04 2.25 2.45 2.56 2.58 2.54 2.48
1900.043 2.43 2.38 2.21 2.01 1.83 1.61 1.39 1.25 1.15 1.02
1919.333 0.8929 0.8182 0.7875 0.792 0.7627 0.7209 0.7111 0.7425 0.7305 0.6734
1938.623 0.6371 0.568 0.5779 0.612 0.5386 0.5414 0.5491 0.4981 0.4936 0.5213
1957.913 0.5258 0.5102 0.4881 0.4461 0.4378 0.4613 0.4785 0.4808 0.5314 0.5453
1977.202 0.4846 0.4883 0.5294 0.5263 0.4714 0.4994 0.5106 0.445 0.4818 0.498
1996.492 0.442 0.4252 0.46 0.4504 0.3781 0.3838 0.437 0.3986 0.3556 0.3814
2015.782 0.3546 0.3544 0.3623 0.3527 0.3344 0.2584 0.2294 0.2326 0.2288 0.2586
2035.072 0.3127 0.2641 0.2494 0.3235 0.3305 0.3633 0.3767 0.371 0.3675 0.3083
2054.362 0.3387 0.4336 0.4243 0.3294 0.3339 0.3752 0.4072 0.4405 0.395 0.3957
2073.651 0.4047 0.3966 0.4567 0.4849 0.4582 0.4393 0.4664 0.4947 0.4835 0.4648
2092.941 0.4621 0.4088 0.3877 0.4542 0.4753 0.4683 0.4414 0.3812 0.3537 0.3242
2112.231 0.339 0.3502 0.2833 0.3079 0.3115 0.3168 0.3202 0.3123 0.3707 0.3687
2131.521 0.3073 0.303 0.3402 0.3915 0.3861 0.292 0.2635 0.3125 0.4045 0.368
2150.810 0.2888 0.3264 0.3206 0.2969 0.3186 0.35 0.4012 0.435 0.3608 0.3393
2170.100 0.3957 0.4191 0.483 0.4881 0.4945 0.4705 0.4924 0.6385 0.6428 0.6372
2189.390 0.6733 0.691 0.7708 0.7812 0.8774 1.07 1.18 1.27 1.4 1.63
2208.680 1.97 2.39 2.91 3.6 4.51 5.67 7.08 8.63 10.15 11.41
2227.970 12.24 12.56 12.41 11.81 10.73 9.33 7.55 5.47 3.6 2.32
2247.259 1.59 1.21 1.05 0.9241 0.8682 0.8114 0.7717 0.8065 0.842 0.8112
2266.549 0.7735 0.7909 0.7659 0.7497 0.7187 0.6637 0.6689 0.6821 0.7061 0.6928
2285.839 0.7299 0.7515 0.699 0.7381 0.7429 0.6877 0.6752 0.6746 0.7106 0.6975
2305.129 0.6926 0.7581 0.7134 0.678 0.747 0.7773 0.7479 0.71 0.6911 0.6904
2324.418 0.7016 0.6868 0.63 0.629 0.6433 0.6517 0.6393 0.5507 0.5336 0.5528
2343.708 0.5391 0.6298 0.6768 0.6551 0.7567 0.7577 0.6556 0.6757 0.7113 0.7964
2362.998 0.9004 0.8343 0.7902 0.8715 0.8502 0.8453 0.9226 0.9021 0.859 0.8107
2382.288 0.8013 0.8182 0.7991 0.7662 0.7416 0.7191 0.6939 0.6628 0.6307 0.6196
2401.578 0.5245 0.5248 0.5632 0.52 0.4821 0.4923 0.5189 0.5107 0.4955 0.5566
2420.867 0.5363 0.4326 0.4635 0.4583 0.4146 0.4126 0.4524 0.5218 0.4586 0.4031
2440.157 0.4278 0.3918 0.3741 0.4504 0.5155 0.5692 0.5646 0.5037 0.531 0.5242
2459.447 0.5588 0.6057 0.6 0.6014 0.6192 0.6171 0.6431 0.6598 0.6179 0.5988
2478.737 0.5787 0.5982 0.6175 0.5309 0.4615 0.4885 0.4471 0.418 0.4922 0.5533
2498.026 0.4644 0.3831 0.5076 0.5017 0.5116 0.5287 0.3994 0.4383 0.5315 0.5315
2517.316 0.5309 0.5181 0.5324 0.6625 0.7454 0.7123 0.7787 0.9203 0.9244 0.9427
2536.606 0.9721 0.966 0.8884 0.8696 0.9585 0.9768 0.9016 0.8446 0.7917 0.7227
2555.896 0.6932 0.7211 0.7195 0.6725 0.6516 0.6136 0.61 0.623 0.672 0.6834
2575.186 0.6802 0.6813 0.6097 0.6106 0.6574 0.6267 0.584 0.5987 0.5515 0.4225
2594.475 0.418 0.4404 0.4711 0.4994 0.472 0.4934 0.4658 0.3888 0.4192 0.4441
2613.765 0.3627 0.3537 0.4035 0.379 0.3472 0.3553 0.3478 0.3301 0.3662 0.3621
2633.055 0.3485 0.3417 0.3212 0.3408 0.3459 0.3343 0.3759 0.5019 0.5013 0.4842
2652.345 0.5387 0.5147 0.5183 0.5463 0.527 0.5378 0.5655 0.5514 0.5408 0.5214
2671.634 0.5179 0.5107 0.4732 0.5072 0.4688 0.437 0.4696 0.5207 0.5849 0.5283
2690.924 0.4036 0.4018 0.5103 0.5352 0.5538 0.597 0.5849 0.5696 0.6266 0.6723
2710.214 0.7411 0.7837 0.7662 0.7571 0.8414 0.8862 0.8228 0.8299 0.7675 0.7167
2729.504 0.7796 0.8397 0.7609 0.6872 0.7886 0.8185 0.7295 0.6861 0.7478 0.8428
2748.794 0.8368 0.862 0.8844 0.8777 0.9533 0.9625 0.9201 0.8282 0.713 0.6827
2768.083 0.676 0.6269 0.6241 0.6458 0.6946 0.6414 0.5965 0.6515 0.5641 0.5583
2787.373 0.5482 0.5629 0.6474 0.6473 0.6256 0.5997 0.6595 0.7307 0.7113 0.5881
2806.663 0.4883 0.538 0.6244 0.6939 0.804 0.856 0.8577 0.8629 0.8736 0.8367
2825.953 0.7458 0.8317 0.9358 0.9685 0.9918 1.01 1.12 1.25 1.3 1.27
2845.242 1.31 1.43 1.51 1.54 1.71 1.77 1.8 1.91 2.05 2.06
2864.532 2.08 2.46 2.64 2.62 2.77 2.88 2.84 2.79 2.75 2.84
2883.822 2.87 2.81 2.9 2.84 2.69 2.66 2.65 2.56 2.51 2.55
2903.112 2.7 2.8 2.78 2.87 3.06 3.28 3.54 3.87 4.05 4.25
2922.401 4.67 5.15 5.58 6.02 6.57 6.96 7.22 7.45 7.56 7.6
2941.691 7.48 7.31 7 6.54 6.12 5.71 5.21 4.75 4.57 4.43
2960.981 4.3 4.16 4.01 4.01 3.99 3.98 3.94 3.81 3.86 3.87
2980.271 3.78 3.87 3.99 4.05 4 4.04 4.08 4.12 4.21 4.05
2999.561 3.9 3.82 3.69 3.58 3.39 3.24 3.26 3.25 3.21 3.12
3018.850 3.15 3.14 3.15 3.16 3.09 3.2 3.29 3.31 3.43 3.48
3038.140 3.37 3.37 3.43 3.48 3.43 3.34 3.3 3.06 2.82 2.67
3057.430 2.46 2.32 2.22 2.19 2.17 1.97 1.89 1.96 2.09 2.2
3076.720 2.28 2.45 2.52 2.47 2.54 2.56 2.64 2.78 2.73 2.61
3096.009 2.49 2.44 2.45 2.35 2.17 2.09 1.93 1.72 1.56 1.39
3115.299 1.21 1.14 1.05 1.01 1.06 1 0.7954 0.649 0.6773 0.6327
3134.589 0.4828 0.3941 0.4146 0.4476 0.4524 0.4014 0.4782 0.6505 0.6639 0.5235
3153.879 0.4644 0.5551 0.5536 0.5367 0.4314 0.188 0.3357 0.6259 0.5417 0.3822
3173.169 0.2706 0.3878 0.3569 0.2216 0.2639 0.234 0.3123 0.3861 0.3877 0.4435
3192.458 0.4402 0.3402 0.3211 0.2631 0.1558 0.1572 0.2045 0.3029 0.3615 0.3275
3211.748 0.3133 0.3719 0.3699 0.387 0.3867 0.3388 0.2749 0.2841 0.3045 0.2631
3231.038 0.3083 0.306 0.2952 0.2337 0.2154 0.3245 0.3675 0.2833 0.2655 0.3168
3250.328 0.3794 0.3314 0.2053 0.2077 0.3007 0.3422 0.4182 0.3141 0.1486 0.2205
3269.617 0.3464 0.3734 0.3361 0.2572 0.2738 0.3529 0.2429 0.2153 0.1777 0.133
3288.907 0.2778 0.3628 0.2708 0.2917 0.3175 0.1719 0.272 0.5082 0.5281 0.3662
3308.197 0.2936 0.4437 0.4742 0.3492 0.257 0.3873 0.3363 0.2256 0.2903 0.33
3327.487 0.4221 0.4433 0.4334 0.3701 0.4398 0.573 0.5428 0.5142 0.487 0.4686
3346.777 0.4765 0.4137 0.2722 0.3077 0.4626 0.4728 0.4855 0.5464 0.4875 0.3414
3366.066 0.2981 0.4109 0.4312 0.3914 0.4315 0.4073 0.3507 0.3954 0.5487 0.5858
3385.356 0.4102 0.4183 0.5704 0.6664 0.7507 0.6584 0.5704 0.4323 0.4989 0.559
3404.646 0.3973 0.5023 0.653 0.7835 0.8029 0.6407 0.6621 0.7355 0.6802 0.6595
3423.936 0.5805 0.5234 0.5511 0.5327 0.5878 0.7035 0.8022 0.8048 0.7493 0.7625
3443.225 0.7102 0.6103 0.6473 0.8018 0.7642 0.5111 0.4931 0.5851 0.4832 0.4411
3462.515 0.456 0.37 0.3192 0.3611 0.5024 0.431 0.331 0.5175 0.5351 0.4845
3481.805 0.4889 0.4437 0.4323 0.4551 0.3976 0.3721 0.395 0.4164 0.5018 0.4496
3501.095 0.4519 0.5555 0.4614 0.4274 0.4959 0.5399 0.5424 0.584 0.5707 0.3696
3520.385 0.3689 0.6077 0.4295 0.1217 0.18 0.2913 0.4043 0.4119 0.4536 0.4964
3539.674 0.3951 0.2383 0.2257 0.3608 0.3546 0.3836 0.4341 0.2702 0.3168 0.5146
3558.964 0.4308 0.4732 0.6143 0.648 0.5217 0.4537 0.4668 0.382 0.4635 0.5366
3578.254 0.5464 0.517 0.4316 0.4162 0.3732 0.2815 0.3738 0.5758 0.5271 0.3661
3597.544 0.3757 0.393 0.4111 0.3927 0.4141 0.3519 0.3867 0.3484 0.3675 0.4608
3616.833 0.4457 0.5068 0.5959 0.6711 0.641 0.6379 0.5016 0.3465 0.468 0.5486
3636.123 0.4993 0.4752 0.34 0.4013 0.6152 0.6611 0.5254 0.4579 0.4 0.4193
3655.413 0.4456 0.438 0.526 0.508 0.4278 0.3812 0.5289 0.6357 0.5988 0.5187
3674.703 0.4885 0.5205 0.4834 0.461 0.452 0.4863 0.5416 0.4757 0.3811 0.4537
3693.993 0.55 0.5686 0.5976 0.7189 0.6992 0.6048 0.5851 0.5979 0.6345 0.6099
3713.282 0.5881 0.5075 0.4264 0.4413 0.4581 0.5001 0.4378 0.4328 0.5997 0.5673
3732.572 0.4441 0.5682 0.59 0.5838 0.6295 0.4922 0.5339 0.5081 0.4027 0.4008
3751.862 0.4909 0.5872 0.5454 0.4356 0.4591 0.6087 0.5496 0.4983 0.5044 0.4878
3771.152 0.5267 0.631 0.6767 0.5471 0.3967 0.3796 0.4598 0.5206 0.5926 0.7199
3790.441 0.8226 0.6738 0.5273 0.6681 0.6637 0.6072 0.5245 0.5251 0.6161 0.6883
3809.731 0.7081 0.6602 0.6351 0.5611 0.5988 0.6738 0.5813 0.5316 0.6143 0.736
3829.021 0.6982 0.6398 0.6718 0.6639 0.7347 0.5893 0.4743 0.5718 0.658 0.6375
3848.311 0.5705 0.5174 0.4912 0.4532 0.3795 0.4543 0.5257 0.535 0.548 0.4862
3867.601 0.4401 0.498 0.5382 0.6099 0.5308 0.3777 0.3074 0.4664 0.6343 0.6421
3886.890 0.705 0.5727 0.5168 0.484 0.522 0.5736 0.4881 0.418 0.5391 0.6784
3906.180 0.5468 0.4707 0.5134 0.5201 0.4689 0.4466 0.4775 0.5092 0.3681 0.3091
3925.470 0.4443 0.5766 0.6945 0.6822 0.6376 0.5585 0.5386 0.6893 0.7041 0.6048
3944.760 0.6699 0.6813 0.6491 0.6718 0.8819 0.9153 0.7621 0.7175 0.6905 0.7326
3964.049 0.861 0.7943 0.6636 0.7571 0.8801 0.8533 0.6763 0.7277 0.8717 0.9067
3983.339 0.8017 0.7568 0.7499 0.7667 0.7134 0.5553 0.5994 0.5216 0.4349 0.5435
##END=
