##TITLE=Chromone-3-carbonitrile
##JCAMP-DX=4.24
##DATA TYPE=INFRARED SPECTRUM
##ORIGIN=EPA-IR VAPOR PHASE LIBRARY
##OWNER=SRD/NIST
Collection (C) 2018 copyright by the U.S. Secretary of Commerce
on behalf of the United States of America. All rights reserved.
##CAS REGISTRY NO=50743-17-4
##MOLFORM=C 10 H 5 N O 2
##$NIST SOURCE=MSDC-IR
##STATE=gas
##XUNITS=1/CM
##YUNITS=ABSORBANCE
##XFACTOR=1.
##YFACTOR=0.001
##DELTAX=1.92898
##FIRSTX=549.8
##LASTX=4000.7
##FIRSTY=2.23
##MAXX=4000.7
##MINX=549.759
##MAXY=0.03188
##MINY=0
##NPOINTS=1790
##XYDATA=(X++(Y..Y))
549.759 2.23 1.5387 1.6701 2.0255 2.38 1.9096 1.22319 1.4226 1.7584 1.9825
569.049 1.9675 1.9656 1.8739 2.4 2.24 1.8713 2.54 2.0373 2.0041 2.67
588.339 2.25 1.7272 1.4735 1.7795 1.7607 1.5265 2.0799 2.0243 1.741 1.9142
607.628 1.8346 2.1299 2.51 2.55 2.47 2.3 2.76 3.03 2.6 3.17
626.918 2.97 2.0648 2.21 2.38 2.64 2.71 2.7 2.51 2.0317 2.67
646.208 2.93 2.25 2.25 2.79 2.55 2.39 2.47 2.94 3.58 3.32
665.498 3 2.58 2.64 3.01 2.82 2.73 3.17 2.81 2.94 3.23
684.787 3.3 3.31 3.31 3.94 4.22 4 3.72 3.38 2.57 2.67
704.077 3.27 3.3 2.78 1.8853 1.789 2.25 2.37 2.45 2.0181 1.6406
723.367 2.19 2.26 2.0004 1.9057 1.6646 2.0008 2.38 2.67 3.36 3.67
742.657 4.55 5.19 5.73 6.35 7.31 8.71 9.44 10.44 12.81 13.47
761.947 10.91 8.69 8.15 7.61 6.13 5.47 4.86 3.76 2.68 2.0205
781.236 2.43 2.44 1.6391 1.0456 1.6595 2.59 2.1292 1.627 2.0871 2.74
800.526 2.51 2.46 2.22 1.21296 0.703 1.8517 2.51 1.8995 1.518 1.15945
819.816 1.3544 1.9556 2.24 1.8108 2.0826 2.81 2.36 2.23 2.51 2.56
839.106 2.97 3.15 3.44 3.78 3.76 3.23 3.04 3.6 4.03 3.61
858.395 2.32 1.8747 2.54 2.73 2.0949 1.9178 1.7649 1.7432 1.6605 1.7004
877.685 1.7761 1.4081 1.7618 2.38 2.33 1.9841 1.9454 1.9159 1.7407 2.24
896.975 2.61 2.37 2.31 2.18 2.69 3.14 3.28 3.69 3.98 4.13
916.265 4.63 5.81 6.29 5.81 5.37 4.97 4.59 4.14 3.56 2.64
935.555 2.38 2.45 2.49 2.44 2.1063 2.0467 1.6685 1.3844 1.13507 0.903
954.844 1.4474 1.9329 2.65 3.02 2.81 2.83 2.26 1.903 2.15 2.2
974.134 1.844 1.2987 0.945 1.2308 1.2456 1.4009 1.777 1.3901 1.12876 1.2946
993.424 1.307 1.3678 1.4201 1.647 1.9852 1.6159 1.18376 1.0534 1.6614 2.19
1012.714 1.792 1.6987 1.8631 1.5937 1.7375 2.2 1.5054 1.2537 1.4387 1.2759
1032.003 1.1054 1.14678 0.812 0.767 2.21 2.54 2.28 2.49 2.21 1.9234
1051.293 2.15 2.15 1.9423 1.5204 1.01 0.642 0.46 0.344 0 1.4199
1070.583 1.8317 0.638 1.8036 2.4 2.61 2.85 1.7252 1.3455 1.9453 3.07
1089.873 3.67 3.44 3.12 3.45 3.55 3.92 4.23 3.96 5.58 6.27
1109.163 4.33 4.01 4.52 3.97 2.76 2.92 6.22 6.84 4.99 5.21
1128.452 5.88 5.28 4.95 6.23 7.44 8.18 9.31 8.57 7.07 6.78
1147.742 6.53 6.16 6.42 6.13 5.62 6.98 8.07 9.02 10.28 11.76
1167.032 13.28 13.98 14.57 15.2 14.29 12.17 10.18 8.17 6.69 6.14
1186.322 5.28 4.45 5.12 5.15 4.29 4.75 5.45 6.29 6.77 5.73
1205.611 5.66 6.94 8.53 9.09 10.54 12.87 10.24 9.3 10.28 9.03
1224.901 8.98 8.58 8.18 7.31 5.25 4.69 4.77 4.14 4.36 4.78
1244.191 4.89 4.45 3.23 3 3.1 3.54 4.5 4.89 4.98 4.97
1263.481 5.82 6.06 5.47 4.74 4.58 4.64 4.71 4.27 3.93 4.14
1282.771 4.29 4.97 5.43 6.25 6.94 7.22 7.64 8 8.37 8.95
1302.060 9.88 11.14 12.15 12.74 13.29 13.88 14.33 14.8 15.05 14.9
1321.350 14.65 14.45 14.65 15.13 16 16.95 17.33 17.19 16.51 15.55
1340.640 14.41 13.01 11.47 9.54 7.57 6.11 5.31 5.09 4.85 4.61
1359.930 4.94 5.45 5.97 6.77 7.72 8.63 9.55 10.35 10.86 11.08
1379.219 10.62 9.86 8.82 7.58 6.4 5.44 4.83 4.27 3.75 3.54
1398.509 3.55 3.23 3.01 3.06 2.89 2.81 2.73 2.61 2.5 2.22
1417.799 2.0602 2.15 2.23 2.26 2.39 2.46 2.42 2.43 2.44 2.49
1437.089 2.84 3.11 3.34 3.75 4.39 5.05 5.84 6.65 8.12 10.6
1456.378 13.41 16.4 18.67 20.23 20.99 21.24 21.02 19.74 17.21 13.48
1475.668 9.64 6.76 5.13 4.23 3.72 3.15 2.74 2.8 2.82 2.68
1494.958 2.65 2.54 2.3 2.21 2.0255 1.8735 1.835 1.922 2.1033 1.9564
1514.248 2.0091 2.0291 2.037 2.0038 1.949 1.9097 1.7079 1.9921 2.19 1.8104
1533.538 1.6142 1.6866 1.7252 1.7 1.7658 2.1053 2.36 2.38 2.52 2.99
1552.827 3.49 3.91 4.15 4.26 4.37 4.79 5.48 5.94 6.31 6.75
1572.117 6.89 6.94 6.84 6.91 6.62 5.73 5.27 4.47 3.75 3.64
1591.407 3.66 3.84 4.14 4.29 4.37 4.78 5.57 6.61 7.93 9.28
1610.697 10.86 12.85 14.84 16.08 16.68 16.95 16.56 16.07 15.05 13.27
1629.986 11.03 8.61 7.04 5.89 4.95 4.55 4.29 4.16 3.82 3.67
1649.276 3.72 3.61 3.7 3.89 3.9 3.83 3.85 4.04 4.03 4.09
1668.566 4.38 4.6 4.88 5.38 6.45 7.51 8.47 9.99 12.47 15.76
1687.856 19.15 22.77 26.13 28.81 30.65 31.52 31.88 31.79 30.62 28.06
1707.146 24.66 20.82 16.87 13.56 11.02 8.68 6.76 5.33 4.27 3.88
1726.435 3.77 3.36 2.99 2.71 2.58 2.55 2.41 2.53 2.48 2.39
1745.725 2.58 2.58 2.56 2.75 2.75 2.64 2.67 2.61 2.55 2.57
1765.015 2.46 2.6 2.7 2.54 2.38 2.21 2.2 2.22 2.21 2.17
1784.305 2.15 2.0462 1.9523 2.1206 2.0565 1.9982 2.17 2.1165 1.9639 2.1179
1803.594 2.38 2.42 2.18 2.0838 2.14 2.21 2.46 2.59 2.73 2.78
1822.884 2.55 2.45 2.66 2.78 2.78 2.72 2.84 2.72 2.59 2.56
1842.174 2.48 2.5 2.54 2.44 2.28 2.38 2.4 2.37 2.18 2.17
1861.464 2.15 1.9492 1.9837 1.8952 2.0575 2.22 2.108 1.9966 1.9083 1.8673
1880.754 1.8637 1.7611 1.6361 1.7918 1.8816 1.681 1.618 1.8478 1.9104 1.8965
1900.043 1.8878 1.8597 1.8343 1.6713 1.5519 1.6194 1.8252 2.0334 2.0497 1.8853
1919.333 1.9692 2.048 2.0042 1.9216 1.8281 1.8633 1.8747 1.893 1.9763 2.0828
1938.623 2.24 2.13 1.8806 1.877 1.8153 1.7021 1.6336 1.608 1.6642 1.8172
1957.913 1.9979 1.8369 1.5538 1.6849 1.9218 2.0343 1.9532 1.8951 1.938 1.644
1977.202 1.4357 1.7125 1.7312 1.5903 1.7567 1.7988 1.7859 1.5876 1.5675 1.6951
1996.492 1.4979 1.4739 1.6774 1.8312 1.7415 1.6421 1.7809 1.7804 1.5974 1.5814
2015.782 1.5862 1.6785 1.7102 1.4962 1.4854 1.5438 1.6739 1.73 1.5813 1.7628
2035.072 1.7658 1.5167 1.4404 1.4684 1.5392 1.5292 1.6348 1.8029 1.9425 1.8271
2054.362 1.5996 1.5788 1.6253 1.6462 1.6601 1.7923 2.028 2.13 2.1045 1.9057
2073.651 1.6658 1.7217 1.6707 1.7298 1.6694 1.5369 1.7954 1.6434 1.4116 1.5634
2092.941 1.6765 1.5222 1.3708 1.3278 1.4425 1.5751 1.3267 1.4223 1.6639 1.5024
2112.231 1.4928 1.5224 1.443 1.5095 1.6128 1.5413 1.4638 1.619 1.5942 1.6372
2131.521 1.6041 1.484 1.4258 1.3903 1.528 1.7014 1.7349 1.4378 1.3034 1.412
2150.810 1.5503 1.572 1.6557 1.7369 1.4992 1.4072 1.6249 1.8337 1.6163 1.4245
2170.100 1.5542 1.5414 1.5007 1.5213 1.2816 1.12518 1.3983 1.6105 1.7604 1.6165
2189.390 1.5392 1.5487 1.4627 1.4156 1.4788 1.5609 1.4909 1.5248 1.4698 1.6689
2208.680 1.7621 1.5633 1.6044 1.8093 1.7825 1.7177 1.8284 1.6816 1.5865 1.7455
2227.970 1.8019 1.9655 2.0348 2.071 2.38 2.46 2.34 2.3 2.27 2.25
2247.259 2.32 2.25 2.16 2.0541 1.8143 1.6232 1.5387 1.5197 1.3517 1.17166
2266.549 1.3514 1.4164 1.5149 1.6052 1.4682 1.546 1.4946 1.3944 1.5245 1.4063
2285.839 1.2978 1.4657 1.4799 1.4227 1.4878 1.3584 1.3428 1.4516 1.4207 1.4976
2305.129 1.7693 1.9201 1.8173 1.7075 1.7247 2.0102 1.8374 1.6375 1.7013 1.6407
2324.418 1.7935 1.8007 1.7575 1.6696 1.5044 1.6982 1.8086 1.6132 1.5652 1.5335
2343.708 1.5889 1.6854 1.6583 1.8903 1.8853 1.5375 1.4109 1.5214 1.5338 1.402
2362.998 1.0967 1.21207 1.5668 1.6508 1.7361 1.4519 1.5571 1.7816 1.7664 1.8264
2382.288 1.786 2.0693 2.2 2.0158 1.764 1.6288 1.6848 1.6807 1.8093 1.7151
2401.578 1.5249 1.6673 1.9028 1.7723 1.5386 1.5752 1.735 1.8331 1.6539 1.4173
2420.867 1.3922 1.3952 1.4446 1.7122 1.7174 1.9497 2.083 1.9097 1.6975 1.4707
2440.157 1.6327 1.8252 1.5823 1.3978 1.4461 1.4784 1.442 1.5255 1.5101 1.2982
2459.447 1.3789 1.5939 1.3996 1.116 1.3554 1.6325 1.5687 1.3229 1.373 1.2938
2478.737 1.1926 1.4522 1.3599 1.3596 1.5141 1.657 1.3838 1.12933 1.4856 1.8223
2498.026 1.7639 1.7372 1.8455 1.5781 1.4707 1.4864 1.3128 1.18719 1.3802 1.9188
2517.316 1.9463 1.7095 1.6669 1.4981 1.6342 1.6973 1.467 1.3007 1.2958 1.20951
2536.606 1.5591 1.5612 1.2858 1.4364 1.4041 1.3018 1.3218 1.21273 1.17878 1.2415
2555.896 0.993 1.13726 1.20588 1.17056 1.18918 1.13863 1.14492 1.2645 1.4725 1.4314
2575.186 1.4818 1.4127 1.3496 1.3678 1.2414 1.2486 1.3206 1.6659 1.7309 1.6275
2594.475 1.434 1.3986 1.4799 1.3843 1.4719 1.5337 1.5702 1.266 1.0318 1.22329
2613.765 1.2939 1.2567 1.369 1.4669 1.6072 1.6087 1.6393 1.6304 1.5115 1.6446
2633.055 1.7633 1.6777 1.598 1.2894 0.882 1.0612 1.5335 1.5533 1.5833 1.4352
2652.345 1.008 1.074 1.3364 1.5082 1.6483 1.6723 1.4928 1.3219 1.3796 1.4238
2671.634 1.4727 1.5913 1.4406 1.5664 1.6196 1.5417 1.8881 1.5866 1.2715 1.6418
2690.924 1.8362 1.6527 1.4566 1.2553 1.0946 1.13681 1.3038 1.3784 1.4727 1.4273
2710.214 1.14934 1.1178 1.2449 1.0655 0.943 1.16856 1.2489 1.4226 1.6796 1.6391
2729.504 1.4229 1.2759 1.09 1.2974 1.3642 1.3346 1.4249 1.15018 1.2749 1.6886
2748.794 1.4958 1.2842 1.3732 1.026 1.018 1.4864 1.6515 1.5289 1.3088 1.3294
2768.083 1.6617 1.2822 0.929 1.3658 1.3836 1.3265 1.572 1.7201 1.4963 1.6052
2787.373 1.5853 1.22361 1.3091 1.0378 1.0827 1.3003 1.20713 1.4259 1.5106 1.672
2806.663 1.7207 1.2607 1.4772 1.6854 1.2713 1.3509 1.5377 1.768 1.6394 1.4157
2825.953 1.4316 1.0559 1.2463 1.5484 1.1046 0.926 1.42 1.7257 1.5976 1.2498
2845.242 1.2393 1.7224 1.5971 1.4216 1.8024 2.0321 1.7835 1.6149 1.7875 1.7609
2864.532 1.5336 1.4099 1.26 1.20147 1.3901 1.13016 0.879 1.0606 1.3366 1.5658
2883.822 1.205 1.21192 1.3924 1.2483 1.2448 1.0379 1.1413 1.3167 1.4842 1.3925
2903.112 1.3451 1.4626 1.0927 1.2667 1.3638 0.844 0.895 1.3715 1.6404 1.2724
2922.401 1.0503 1.0999 0.963 1.261 1.4271 1.263 0.976 1.13556 1.418 1.3119
2941.691 1.3585 1.4046 1.0583 1.0315 1.6841 1.4067 0.777 1.0991 1.012 1.0807
2960.981 1.3733 1.2319 1.3043 1.119 1.2926 1.3105 1.106 1.298 1.2356 1.13452
2980.271 1.15887 1.4841 1.5224 1.0894 1.079 1.3469 1.5892 1.7135 1.5038 1.3554
2999.561 1.2561 0.838 1.0915 1.3145 1.3467 1.8865 1.9081 1.3368 1.3069 0.997
3018.850 0.837 1.4845 1.3041 1.19738 1.4854 1.6447 1.321 1.2399 1.3039 1.1159
3038.140 1.3588 1.7963 1.8466 1.5189 1.13399 1.17051 1.7488 2.0076 2.099 1.989
3057.430 1.3822 1.0471 1.16606 1.7515 2.0093 1.8765 2.0482 2.0004 2.2 2.73
3076.720 2.7 2.49 2.67 2.45 3.04 3.57 2.98 3.01 2.9 2.46
3096.009 2.31 1.8912 2.081 2.67 2.55 2.0238 1.4272 1.341 1.4555 1.3764
3115.299 1.3478 1.2907 1.7982 2.21 1.6984 1.5577 1.5512 1.452 1.6742 1.7791
3134.589 1.4879 1.15006 1.4843 2.0264 1.7458 1.2523 1.723 1.7023 1.20179 1.4242
3153.879 1.3625 1.696 1.8081 1.2379 1.0309 1.0935 1.258 1.2697 1.2446 1.21494
3173.169 1.471 1.8084 1.3825 1.14284 1.4656 1.2903 0.952 0.503 0.582 1.16813
3192.458 1.3702 1.3135 0.991 0.621 0.654 1.2991 1.2969 1.21114 1.2053 0.804
3211.748 1.023 1.20433 1.3388 1.5721 1.6199 1.2791 1.21375 1.3122 1.4287 1.743
3231.038 1.22075 1.18278 1.4943 1.13443 1.20055 1.8295 1.8838 1.642 1.4847 1.3208
3250.328 1.286 1.2959 1.735 2.097 1.9287 1.8605 2.0165 1.5321 1.0927 1.399
3269.617 1.8687 1.14987 1.15569 1.9301 1.5289 1.18971 1.5701 1.7579 2.18 2.35
3288.907 1.7177 1.0786 0.733 1.027 1.4107 1.4262 1.4126 1.4899 1.31 1.5106
3308.197 1.3575 1.14923 1.2384 1.286 1.2879 1.22902 1.5161 1.4511 1.1193 1.021
3327.487 1.2863 1.6216 1.6915 1.9416 1.8887 1.5879 1.33 1.2612 1.008 0.805
3346.777 1.20839 0.958 0.96 1.2477 1.2303 1.4 1.3899 1.4673 1.4945 1.2753
3366.066 1.12129 1.303 1.5607 2.24 2.21 1.6549 1.7366 1.8254 1.6036 1.2378
3385.356 1.2932 1.3623 1.3251 1.4609 1.3761 1.4852 1.9148 1.5275 1.3479 1.8639
3404.646 2.2 1.8998 1.4988 1.9051 1.4965 0.933 1.22749 1.5828 2.0714 1.6778
3423.936 1.1112 1.3243 1.3956 1.3257 1.2361 0.975 1.328 1.4944 1.4166 1.6143
3443.225 1.6077 1.5149 1.5456 1.026 0.606 0.997 1.18016 1.1877 1.029 1.0694
3462.515 1.0674 1.147 1.7424 2.0744 1.6389 1.5985 1.64 1.16622 1.3308 1.4758
3481.805 1.3683 1.8 2.0668 1.6732 1.7223 1.4677 0.565 0.636 1.1362 1.12921
3501.095 1.12273 1.574 1.5478 1.22079 1.2496 1.12747 1.4529 2.0489 1.9496 1.7832
3520.385 2.075 1.968 1.5268 1.3744 1.6629 2.36 1.9954 1.7209 1.8915 1.3377
3539.674 1.6714 1.987 1.426 1.2306 1.9561 2.38 1.8284 1.7626 1.5155 1.0688
3558.964 1.4466 2.055 2.26 2.35 1.9122 1.4642 1.3616 1.2802 1.5981 1.7747
3578.254 1.8911 1.458 1.6125 2.41 2.37 2.1055 1.3773 1.4527 1.6876 0.946
3597.544 1.3354 2.1239 2.16 2.0315 1.6601 1.4691 1.4208 1.3161 1.0994 0.84
3616.833 1.4472 1.5386 1.2628 1.45 1.3563 1.22814 1.5467 1.7159 1.6192 1.4766
3636.123 1.0803 1.2731 1.6878 1.6462 1.4072 1.5121 1.7507 2.14 1.9532 1.104
3655.413 0.882 1.0981 1.518 1.832 1.5722 1.016 0.933 0.835 0.871 1.18709
3674.703 1.7369 1.7889 1.5806 1.6562 1.5041 1.4727 1.7189 2.0869 2.0968 1.8977
3693.993 1.8934 1.2828 1.21856 1.7076 1.7738 1.5709 1.3608 1.995 2.33 1.9041
3713.282 1.9841 1.9569 1.16664 0.915 1.2531 1.9422 1.9951 1.6416 1.4712 1.18446
3732.572 1.5215 1.8049 1.3239 1.3393 1.8976 2.38 2.18 1.8593 2.02 1.772
3751.862 2.0724 2.42 1.8281 1.7792 1.7068 1.3659 1.3178 1.3155 1.9919 2.57
3771.152 1.903 1.9021 2.67 2.65 2.57 1.8951 1.4169 1.20276 1.1014 1.2965
3790.441 1.3306 1.5873 2.1211 2.15 1.7179 1.2809 0.74 0.824 0.749 1.12849
3809.731 1.5648 1.3063 1.4927 1.6123 2.0608 2.45 2.0162 2.0907 1.7599 1.21878
3829.021 1.6165 1.392 0.667 1.4358 2.33 2.0843 2.0235 1.7636 1.8419 2.38
3848.311 2.49 2.3 1.7206 1.6704 1.6807 1.2403 1.4876 1.382 0.881 0.381
3867.601 0.525 0.869 1.024 1.318 1.3087 1.7748 1.6278 0.931 0.863 0.854
3886.890 1.14551 1.3216 1.19073 1.679 2.0373 1.5692 1.366 1.5216 1.2804 1.6171
3906.180 1.3969 1.4263 1.9967 1.7232 1.7029 1.9054 1.8484 1.6145 1.4801 1.4791
3925.470 1.8174 2.16 1.792 1.9209 1.899 1.3745 1.3757 1.733 1.7275 1.6318
3944.760 1.7982 1.5595 1.0781 1.2865 1.9698 1.8551 1.6845 1.5474 1.5307 2.0044
3964.049 2.2 1.8271 1.4078 1.19027 1.1047 1.2613 1.4095 1.3671 1.4464 1.0869
3983.339 1.1115 1.3963 1.18166 1.3881 1.5757 1.4598 1.1296 1.2462 2.25 2.21
##END=
