##TITLE=1,5-Dimethyl-2-pyrrolidinone
##JCAMP-DX=4.24
##DATA TYPE=INFRARED SPECTRUM
##ORIGIN=EPA-IR VAPOR PHASE LIBRARY
##OWNER=SRD/NIST
Collection (C) 2018 copyright by the U.S. Secretary of Commerce
on behalf of the United States of America. All rights reserved.
##CAS REGISTRY NO=5075-92-3
##MOLFORM=C 6 H 11 N O
##$NIST SOURCE=MSDC-IR
##STATE=gas
##XUNITS=1/CM
##YUNITS=ABSORBANCE
##XFACTOR=1.
##YFACTOR=0.001
##DELTAX=3.85796
##FIRSTX=501.5
##LASTX=4000.7
##FIRSTY=3.216
##MAXX=4000.7
##MINX=501.534
##MAXY=0.265126
##MINY=0
##NPOINTS=908
##XYDATA=(X++(Y..Y))
501.534 3.216 2.766 1.996 1.356 0.9701 0.6344 0.4562 0.5154 0.6772 0.8242
540.114 1.0592 1.306 1.606 1.836 2.036 2.206 2.116 1.986 1.806 1.636
578.693 1.566 1.406 1.306 1.286 1.216 1.206 1.226 1.196 1.256 1.396
617.273 1.546 1.816 2.226 2.726 3.236 3.726 4.166 4.496 4.626 4.566
655.852 4.356 3.886 3.246 2.576 1.976 1.566 1.296 1.0928 0.9697 0.9014
694.432 0.8571 0.8269 0.7779 0.6994 0.6783 0.6881 0.631 0.5915 0.6408 0.7008
733.011 0.726 0.7404 0.7748 0.8201 0.8489 0.8347 0.8783 0.9202 0.9095 0.963
771.591 0.9804 0.994 1.0243 1.0652 1.1027 1.1313 1.156 1.196 1.356 1.496
810.170 1.566 1.626 1.746 1.746 1.596 1.476 1.276 1.0486 0.8915 0.7819
848.750 0.7633 0.7806 0.8 0.9298 1.216 1.656 2.226 2.836 3.416 3.896
887.330 4.126 4.146 4.016 3.676 3.136 2.556 2.156 2.006 2.136 2.636
925.909 3.376 4.146 4.876 5.506 5.916 6.066 6.036 5.696 5.046 4.286
964.489 3.666 3.296 3.086 2.966 2.956 2.946 2.896 2.856 2.786 2.686
1003.068 2.536 2.326 2.156 2.136 2.226 2.386 2.686 2.996 3.226 3.406
1041.648 3.496 3.516 3.416 3.276 3.216 3.296 3.556 3.956 4.546 5.236
1080.227 5.956 6.906 8.106 9.416 10.846 12.326 13.706 14.806 15.396 15.426
1118.807 14.976 14.116 12.936 11.486 9.976 8.596 7.506 6.786 6.266 5.946
1157.387 5.936 6.296 6.846 7.326 7.566 7.666 7.586 7.356 6.966 6.316
1195.966 5.736 5.406 5.366 5.536 5.826 6.306 6.936 7.736 8.946 10.586
1234.546 12.726 15.416 18.536 21.866 25.216 28.576 32.036 35.396 38.146 39.876
1273.125 40.336 39.586 37.836 35.216 31.726 27.806 24.346 21.656 19.426 17.446
1311.705 15.796 14.456 13.336 12.376 11.636 11.556 12.496 14.516 17.216 20.056
1350.284 22.856 25.516 28.346 32.096 36.706 42.136 48.806 56.916 64.276 68.576
1388.864 70.326 68.376 62.816 56.196 49.856 44.396 40.216 37.406 35.646 34.506
1427.443 33.506 32.066 29.596 26.236 23.006 20.566 19.016 18.196 17.736 17.236
1466.023 16.526 15.586 14.386 12.986 11.416 9.816 8.346 7.036 5.916 4.976
1504.603 4.286 3.776 3.396 3.126 2.936 2.806 2.716 2.676 2.666 2.676
1543.182 2.706 2.736 2.756 2.776 2.796 2.796 2.756 2.716 2.686 2.636
1581.762 2.576 2.556 2.586 2.626 2.666 2.746 2.826 2.886 2.946 2.976
1620.341 3.006 3.046 3.086 3.116 3.146 3.176 3.236 3.366 3.546 3.816
1658.921 4.196 4.786 5.586 6.686 8.036 9.576 11.386 13.786 16.826 21.346
1697.500 28.316 39.356 57.176 85.616 125.766 173.636 217.166 246.856 265.126 264.186
1736.080 244.526 212.066 158.236 99.046 56.146 32.606 20.716 14.356 10.666 8.356
1774.659 6.816 5.696 4.806 4.086 3.526 3.086 2.726 2.466 2.296 2.166
1813.239 2.066 1.996 1.946 1.886 1.856 1.836 1.816 1.796 1.786 1.776
1851.819 1.746 1.666 1.556 1.426 1.296 1.166 1.0417 0.9338 0.8391 0.7672
1890.398 0.724 0.6731 0.627 0.6057 0.5807 0.5789 0.5607 0.5159 0.4985 0.4855
1928.978 0.4602 0.4357 0.4101 0.3803 0.3679 0.3563 0.3536 0.3593 0.3615 0.3752
1967.557 0.4064 0.4495 0.4771 0.514 0.5529 0.5771 0.5951 0.6149 0.6309 0.6324
2006.137 0.6226 0.6038 0.5857 0.5411 0.4996 0.4676 0.4255 0.3926 0.3626 0.3218
2044.716 0.2913 0.272 0.2677 0.2808 0.2926 0.289 0.2862 0.2874 0.294 0.3212
2083.296 0.3486 0.3749 0.3971 0.3963 0.393 0.4013 0.4038 0.3964 0.3932 0.3876
2121.875 0.378 0.3867 0.3853 0.3855 0.4209 0.4368 0.4294 0.4294 0.4394 0.4604
2160.455 0.4696 0.4724 0.4816 0.4942 0.5069 0.5186 0.5158 0.4984 0.5001 0.5095
2199.035 0.5069 0.5073 0.4964 0.4815 0.4529 0.421 0.3975 0.3881 0.3971 0.3917
2237.614 0.3805 0.3728 0.3738 0.372 0.3808 0.3979 0.4137 0.4279 0.4235 0.4242
2276.194 0.4477 0.4564 0.4431 0.4357 0.4183 0.4016 0.3811 0.3707 0.384 0.3892
2314.773 0.4 0.4003 0.4032 0.4087 0.4093 0.3976 0.4004 0.4042 0.3936 0.3946
2353.353 0.4172 0.4559 0.4609 0.4625 0.4736 0.479 0.494 0.4927 0.4678 0.4425
2391.932 0.4123 0.3957 0.3922 0.3952 0.4131 0.4283 0.427 0.4254 0.4428 0.4789
2430.512 0.4933 0.5096 0.5203 0.5193 0.5288 0.5302 0.5242 0.4967 0.4787 0.4723
2469.092 0.4642 0.4312 0.3945 0.3867 0.3733 0.3488 0.3449 0.3449 0.3397 0.3457
2507.671 0.3623 0.3915 0.4129 0.4162 0.4347 0.4624 0.4803 0.4893 0.4998 0.5183
2546.251 0.5005 0.4934 0.4955 0.4727 0.4642 0.4457 0.4241 0.4338 0.4563 0.4605
2584.830 0.4687 0.4925 0.5107 0.5174 0.5249 0.5559 0.5768 0.5841 0.6374 0.7052
2623.410 0.7569 0.7843 0.8198 0.9001 0.9794 1.0567 1.1258 1.206 1.296 1.386
2661.989 1.476 1.556 1.646 1.716 1.766 1.816 1.856 1.866 1.826 1.776
2700.569 1.696 1.586 1.476 1.396 1.346 1.326 1.356 1.436 1.496 1.516
2739.148 1.556 1.586 1.656 1.716 1.786 1.856 1.926 2.046 2.196 2.336
2777.728 2.506 2.706 2.946 3.236 3.546 3.906 4.316 4.766 5.306 5.936
2816.308 6.626 7.426 8.396 9.546 10.856 12.316 13.846 15.326 16.686 17.806
2854.887 18.556 19.106 19.736 20.556 21.666 23.006 24.426 25.836 27.126 28.246
2893.467 29.086 29.486 29.536 29.426 29.286 29.196 29.306 29.736 30.586 31.766
2932.046 33.046 34.426 35.756 36.906 38.206 39.836 42.486 46.676 51.786 55.916
2970.626 59.376 60.326 56.796 51.486 44.156 34.776 25.576 18.666 13.956 10.566
3009.205 8.196 6.586 5.496 4.756 4.296 3.986 3.766 3.606 3.496 3.416
3047.785 3.346 3.246 3.126 2.986 2.846 2.706 2.536 2.386 2.276 2.156
3086.364 2.026 1.926 1.816 1.736 1.686 1.616 1.506 1.416 1.326 1.216
3124.944 1.1318 1.0309 0.984 0.9479 0.8487 0.794 0.7802 0.7073 0.6529 0.63
3163.524 0.5706 0.5028 0.4634 0.4694 0.4619 0.4218 0.418 0.4374 0.4511 0.4738
3202.103 0.4584 0.427 0.4382 0.414 0.3694 0.3302 0.29 0.2659 0.21552 0.1632
3240.683 0.13871 0.1163 0.0564 0.046 0.0636 0.0618 0.0836 0.0809 0.09 0.0892
3279.262 0.0785 0.0995 0.0788 0.0578 0.0937 0.0899 0.0727 0.0987 0.1255 0.14441
3317.842 0.16545 0.1313 0.1116 0.0986 0.0999 0.1379 0.1333 0.153578 0.154031 0.1293
3356.421 0.0847 0.0775 0.0959 0.1058 0.1175 0.0938 0.1144 0.16678 0.23677 0.2944
3395.001 0.3094 0.3924 0.4919 0.5175 0.6262 0.8608 1.081 1.316 1.606 1.886
3433.580 2.186 2.376 2.456 2.436 2.286 2.036 1.696 1.376 1.0354 0.7694
3472.160 0.6155 0.5271 0.4748 0.3995 0.3146 0.2513 0.21266 0.18331 0.15806 0.15816
3510.740 0.16699 0.16126 0.1027 0.1031 0.16201 0.1628 0.1408 0.1332 0.1025 0.0863
3549.319 0.1202 0.0817 0.039 0.0788 0.1149 0.1006 0.0997 0.0898 0.1003 0.1009
3587.899 0.0801 0.0925 0.1029 0.0948 0.061 0.0545 0.0641 0.0664 0.0661 0.036
3626.478 0.018 0.04 0.033 0.026 0.03 0.0644 0.0743 0.0575 0.039 0.01
3665.058 0.0535 0.0693 0.043 0.033 0.037 0.054 0.041 0.015 0.017 0.0736
3703.637 0.1106 0.0476 0 0.025 0.045 0.0689 0.0883 0.0824 0.1032 0.1045
3742.217 0.0686 0.037 0.046 0.043 0.031 0.0502 0.0658 0.0611 0.095 0.09
3780.797 0.0549 0.0834 0.093 0.0902 0.1174 0.1338 0.1223 0.13822 0.1243 0.119
3819.376 0.13855 0.1224 0.0975 0.0838 0.1095 0.145645 0.1027 0.076 0.1131 0.149285
3857.956 0.147663 0.14295 0.14207 0.1134 0.1101 0.152599 0.16504 0.150389 0.18776 0.19968
3896.535 0.19999 0.1658 0.15912 0.20793 0.20853 0.20954 0.20569 0.16421 0.1125 0.15655
3935.115 0.23218 0.2664 0.23689 0.20706 0.20912 0.19725 0.22842 0.2897 0.2738 0.266
3973.694 0.2766 0.2663 0.2894 0.2885 0.2617 0.2586 0.293 0.2919
##END=
