##TITLE=Sarcosine anhydride
##JCAMP-DX=4.24
##DATA TYPE=INFRARED SPECTRUM
##ORIGIN=EPA-IR VAPOR PHASE LIBRARY
##OWNER=SRD/NIST
Collection (C) 2018 copyright by the U.S. Secretary of Commerce
on behalf of the United States of America. All rights reserved.
##CAS REGISTRY NO=5076-82-4
##MOLFORM=C 6 H 10 N 2 O 2
##$NIST SOURCE=MSDC-IR
##STATE=gas
##XUNITS=1/CM
##YUNITS=ABSORBANCE
##XFACTOR=1.
##YFACTOR=0.001
##DELTAX=1.92898
##FIRSTX=549.8
##LASTX=4000.7
##FIRSTY=1.76
##MAXX=4000.7
##MINX=549.759
##MAXY=0.8234
##MINY=0
##NPOINTS=1790
##XYDATA=(X++(Y..Y))
549.759 1.76 1.6 1.74 2.35 2.34 1.9 2.3 2.06 2.05 2.79
569.049 2.16 1.9 3 4.24 4.74 5.11 5.55 5.7 6.24 6.53
588.339 6.71 7.3 7.42 7.4 7.98 8.16 8.21 8.42 8.85 9.48
607.628 9.78 9.8 9.88 9.8 9.7 9.09 8.22 7.52 7.21 6.93
626.918 6.22 5.68 5.44 5.19 4.63 4.49 4.5 4.29 3.73 3.29
646.208 2.75 2.27 2.17 2.02 2.11 1.87 1.6 1.83 1.78 1.46
665.498 1.57 1.74 1.41 1.2441 1.65 1.76 1.48 1.33 1.0653 0.7453
684.787 0.7811 1.1567 1.47 1.64 1.48 1.3 1.55 1.53 1.2106 1.2152
704.077 1.34 1.79 2.14 2.11 2.38 2.75 3.04 3.5 3.76 4.05
723.367 5 5.51 5.33 5.45 5.9 6.27 6.64 6.52 6.38 6.5
742.657 6.4 6.37 6.56 6.42 6.35 6.15 5.59 5.4 5.04 5.09
761.947 5.07 4.73 4.55 4.18 3.54 3.03 3.07 2.92 2.77 2.71
781.236 2.44 2.15 1.73 1.65 1.84 2.06 1.91 1.62 1.87 1.78
800.526 1.34 1.39 1.83 1.84 2.04 2.45 2.42 2.72 2.75 2.81
819.816 3.37 3.04 2.09 2.03 2.18 1.91 1.99 2.06 1.86 1.47
839.106 1.2609 1.1092 0.8517 1.0989 1.0092 0.6212 0.6146 0.6542 0.8 0.8261
858.395 0.7055 1.0297 1.1379 0.7404 0.6931 0.9178 0.9788 0.9395 1.0557 0.9654
877.685 0.8725 1.35 1.66 1.52 1.67 1.7 1.37 1.2141 1.38 1.57
896.975 1.56 1.35 1.48 1.63 1.32 1.37 1.76 1.66 1.44 1.63
916.265 1.73 1.64 1.84 2.13 2 1.97 2.01 1.97 2.19 2.37
935.555 2.43 2.42 2.67 2.45 2.11 2.37 2.58 2.41 2.5 2.3
954.844 2.05 2.59 2.82 2.77 3.17 3.45 3.09 3.3 3.54 3.54
974.134 3.95 4.31 4.44 4.98 5.86 6.77 7.58 8.69 10.13 11.99
993.424 14.66 17.44 20.15 22.98 26.59 30.07 33.55 37.38 40.72 43.48
1012.714 45.67 46.62 46.57 45.49 43.79 41.52 37.67 34.06 30.64 26.2
1032.003 21.71 18.75 15.67 13.01 12.16 10.74 8.85 8.2 8.06 7.66
1051.293 7.07 6.81 6.41 5.86 5.67 5.29 5.39 6.06 5.67 5.02
1070.583 5.37 5.26 4.69 4.12 4.46 5.22 5.52 5.1 5.43 5.89
1089.873 5.41 5.2 5.24 5.74 5.84 4.95 5.05 5.63 5.47 5.68
1109.163 5.6 5.6 5.55 6.68 7.35 6.08 6.43 7.08 7.03 8.26
1128.452 8.74 8.59 8.79 9.26 9.46 10.43 11.5 11.09 11.79 13.03
1147.742 14.17 15.12 15.97 17.72 19.12 20.35 21.17 21.49 21.88 21.47
1167.032 21.7 22.8 22.84 22.47 22.58 21.98 21.09 21.31 20.91 20.28
1186.322 20.31 20.47 21.01 20.76 21.43 22.62 23.4 24.48 24.35 23.79
1205.611 24.25 24.09 23.44 23.74 24.86 25.99 26.4 27.09 27.37 27.75
1224.901 29.31 31.48 33.56 35.87 40.16 46.17 52.34 58.96 66.48 73.54
1244.191 80.79 88.41 94.23 98.83 102.85 104.37 103.56 102.15 99.99 95.84
1263.481 90.14 83.19 75.55 68.89 62.54 56.62 51.95 48.23 45.64 43.88
1282.771 42.74 42.65 44.04 46.44 49.84 54.73 60.73 68.1 76.71 86.33
1302.060 96.39 106.28 115.69 124.01 131.32 137.58 142.2 144.64 144.68 142.04
1321.350 137.07 130.4 122.23 112.97 103.02 92.48 81.86 71.82 62.58 54.16
1340.640 46.49 39.83 34.17 29.44 25.49 22.41 20.07 18.18 16.84 15.85
1359.930 15.14 14.75 14.7 15.05 15.6 16.24 17.29 18.69 20.43 22.65
1379.219 25.35 28.58 32.48 37.04 42.4 48.68 55.73 63.37 71.7 80.04
1398.509 87.77 94.27 98.55 100.33 100.19 99.82 100.33 100.73 99.11 95.47
1417.799 91.09 86.86 83.76 82.4 82.38 83.22 84.6 85.8 86.81 87.73
1437.089 88.46 89.2 90.13 91 92.05 93.24 94.62 96.43 98.76 101.51
1456.378 104.9 108.97 112.96 116.42 119.38 121.82 123.18 123.69 123.42 122.15
1475.668 119.93 116.55 112.34 107.65 102.37 96.49 89.94 83.2 76.31 69.63
1494.958 63.18 56.7 50.76 45.43 40.59 36.3 32.48 29.05 26.37 24.15
1514.248 22.21 20.64 19.4 18.42 17.51 16.71 15.91 15.4 15.08 14.69
1533.538 14.52 14.25 14.13 14.17 13.97 13.76 13.51 13.2 12.92 12.65
1552.827 12.51 12.27 12.1 11.92 11.62 11.19 10.66 10.49 10.16 9.65
1572.117 9.59 9.54 9.37 9.22 9.11 8.92 8.79 8.74 8.75 8.63
1591.407 8.5 8.64 8.71 8.89 9.36 9.68 9.89 10.11 10.64 11.05
1610.697 11.31 11.83 12.54 13.4 14.1 14.31 14.4 14.59 14.97 15.48
1629.986 16.09 16.78 17.67 18.61 19.55 20.54 21.54 22.61 24.09 25.61
1649.276 27.19 29.14 31.3 33.13 35.28 37.48 39.76 42.43 45.49 48.75
1668.566 53 58.52 65.39 73.82 85.46 100.34 121.12 147.36 183.05 228.65
1687.856 281.15 344.97 416.71 490.73 567.12 640.16 697.44 751.65 791.01 816.51
1707.146 823.4 811.65 778.5 727.38 660.7 584.63 501.09 420.6 341.78 270.76
1726.435 211.14 163.99 127.58 100.64 79.29 63.49 52.6 43.81 37.42 32.69
1745.725 28.84 25.64 23.24 21.07 19.03 17.29 15.81 14.39 13.28 12.5
1765.015 11.7 10.95 10.55 10.28 10.12 10 10.03 10.29 10.46 10.66
1784.305 10.99 11.17 11.34 11.37 11.22 10.81 10.15 9.49 8.93 8.32
1803.594 7.72 7.27 6.74 6.05 5.54 5.32 5.07 4.56 4.31 4.19
1822.884 3.96 3.81 3.73 3.74 3.67 3.57 3.48 3.4 3.41 3.37
1842.174 3.37 3.37 3.25 3.15 3.15 3.15 3.12 2.95 2.71 2.62
1861.464 2.7 2.67 2.6 2.52 2.31 2.23 2.14 2.05 2.11 2.03
1880.754 1.91 1.9 1.87 1.81 1.84 1.77 1.64 1.7 1.75 1.72
1900.043 1.66 1.62 1.74 1.81 1.75 1.61 1.45 1.56 1.65 1.6
1919.333 1.56 1.56 1.61 1.55 1.58 1.61 1.6 1.53 1.41 1.43
1938.623 1.53 1.54 1.47 1.35 1.2831 1.2971 1.208 1.1768 1.2558 1.2618
1957.913 1.2706 1.1577 1.0931 1.1816 1.197 1.2618 1.41 1.44 1.34 1.2272
1977.202 1.1183 1.1471 1.2205 1.2386 1.2786 1.266 1.2355 1.1908 1.1835 1.2799
1996.492 1.35 1.2747 1.2328 1.2905 1.41 1.54 1.43 1.47 1.62 1.64
2015.782 1.77 1.87 1.9 1.98 2.03 2.08 2.14 2.2 2.24 2.28
2035.072 2.29 2.3 2.26 2.15 2.14 2.18 2.22 2.21 2.1 2
2054.362 1.88 1.92 1.9 1.6 1.51 1.59 1.63 1.61 1.47 1.51
2073.651 1.57 1.53 1.52 1.57 1.63 1.51 1.5 1.51 1.47 1.53
2092.941 1.47 1.37 1.2676 1.2237 1.2864 1.38 1.48 1.46 1.38 1.43
2112.231 1.47 1.44 1.54 1.58 1.61 1.69 1.69 1.76 1.87 1.81
2131.521 1.78 1.84 1.78 1.87 2.01 1.92 1.86 1.9 1.99 1.94
2150.810 1.96 2.06 1.96 1.92 2.02 2.12 1.99 1.89 1.98 2.14
2170.100 2.24 2.24 2.16 2.13 2.22 2.27 2.21 2.16 2.22 2.19
2189.390 2.01 1.96 2.14 2.27 2.23 2.14 2.15 2.06 2.04 2.21
2208.680 2.1 2.09 2.14 2.15 2.16 1.94 1.92 2.09 2.09 1.93
2227.970 1.93 1.98 2.05 2.04 1.96 2.05 2.05 1.91 1.75 1.83
2247.259 1.98 1.95 1.84 1.82 1.79 1.79 1.87 1.84 1.59 1.42
2266.549 1.56 1.46 1.47 1.57 1.46 1.36 1.34 1.32 1.38 1.34
2285.839 1.2414 1.35 1.34 1.31 1.2155 1.1859 1.2847 1.32 1.35 1.5
2305.129 1.58 1.44 1.53 1.64 1.67 1.71 1.61 1.58 1.73 1.65
2324.418 1.48 1.56 1.51 1.59 1.61 1.48 1.45 1.54 1.45 1.2897
2343.708 1.35 1.34 1.39 1.33 1.173 1.1516 1.1946 1.2177 1.1408 1.0743
2362.998 1.1401 1.0418 0.9731 1.0784 1.2351 1.2204 0.9372 0.8529 0.9556 0.9714
2382.288 0.9707 0.9059 0.9037 1.0567 1.1798 1.1053 1.1722 1.42 1.5 1.46
2401.578 1.38 1.43 1.49 1.64 1.75 1.69 1.67 1.77 1.92 1.94
2420.867 1.77 1.77 1.91 1.97 1.88 1.86 1.85 1.71 1.74 1.87
2440.157 1.9 1.7 1.54 1.43 1.35 1.38 1.44 1.4 1.2458 1.0807
2459.447 1.004 1.0936 1.1897 1.1576 1.1243 1.0775 0.9264 0.89 1.1626 1.41
2478.737 1.2842 1.0645 0.9844 1.0313 1.104 1.1307 1.059 0.977 0.9613 1.1332
2498.026 1.1941 1.1613 1.31 1.39 1.51 1.54 1.56 1.66 1.69 1.85
2517.316 1.93 1.91 2.02 2.05 1.89 1.91 1.91 1.79 1.83 1.75
2536.606 1.76 1.72 1.62 1.57 1.51 1.41 1.44 1.49 1.45 1.6
2555.896 1.72 1.67 1.54 1.61 1.78 1.88 2 1.73 1.56 1.76
2575.186 1.76 1.99 2.15 1.92 1.9 1.76 1.62 1.53 1.43 1.47
2594.475 1.51 1.48 1.39 1.43 1.42 1.2608 1.0719 1.1141 1.2656 1.2359
2613.765 1.1979 1.1986 1.1481 1.2545 1.2937 1.0615 1.1645 1.33 1.42 1.48
2633.055 1.34 1.36 1.5 1.44 1.2617 1.2461 1.42 1.41 1.34 1.36
2652.345 1.43 1.34 1.2898 1.4 1.66 1.93 1.75 1.68 1.85 1.91
2671.634 1.81 1.78 1.83 1.81 1.76 1.93 1.94 1.91 2.13 2.16
2690.924 2 1.99 2.03 2.03 2.09 2.16 2.17 2.15 2.29 2.33
2710.214 2.53 2.58 2.38 2.34 2.41 2.67 2.8 2.68 2.65 2.49
2729.504 2.53 2.89 2.96 3.07 3.18 3.09 3.15 3.2 3.27 3.62
2748.794 3.7 3.52 3.53 3.67 3.67 3.65 3.69 3.84 3.88 3.9
2768.083 4.25 4.39 4.38 4.7 5.26 5.5 5.63 5.93 6.44 7.2
2787.373 7.54 7.83 8.42 8.83 9.02 9.53 10.06 10.33 10.52 10.62
2806.663 10.88 11.15 11.47 11.82 11.98 12.32 12.89 13.25 13.88 14.63
2825.953 15.53 16.55 17.4 18.42 19.49 20.51 21.56 22.85 24.17 25.5
2845.242 26.64 27.79 29.23 30.21 30.96 31.98 33.28 34.38 35.32 36.54
2864.532 37.53 38.72 40.09 41.2 42.59 44.08 45.55 47.29 48.6 49.65
2883.822 50.62 51.27 51.87 51.86 51.24 50.92 50.69 50.26 49.48 48.88
2903.112 48.89 48.77 48.78 49.06 49.61 50.75 52.07 53.35 55.17 57.62
2922.401 59.74 61.7 64.02 66.26 68.37 70.54 71.9 72.62 73.14 73.07
2941.691 72.22 70.53 68.43 65.64 62.27 58.92 55.19 51.45 47.71 43.84
2960.981 40.55 37.55 34.48 31.69 29.28 27.27 25.13 23 21.43 19.95
2980.271 18.52 17.12 15.93 15.08 14.15 13.45 12.84 11.9 11.18 10.78
2999.561 10.45 10.02 9.73 9.51 9.16 9.14 9.22 9.12 9.03 8.89
3018.850 8.85 9.12 9.4 9.12 8.85 8.84 8.86 8.73 8.64 8.67
3038.140 8.67 8.5 8.07 8.05 7.96 7.89 7.89 7.68 7.45 7.22
3057.430 6.99 6.75 6.58 6.68 6.9 6.46 6.09 6.15 6.16 5.78
3076.720 5.13 4.72 4.75 4.62 4.45 4.42 4.22 4.37 4.4 4.04
3096.009 3.65 3.35 3.31 3.44 3.29 3.22 3.37 3.07 2.81 2.89
3115.299 2.87 2.76 2.65 2.65 2.51 2.42 2.53 2.45 2.43 2.38
3134.589 2.4 2.47 2.48 2.64 2.63 2.37 2.05 2.04 2.18 2.44
3153.879 2.31 1.89 1.99 2.23 2.16 2.16 2.04 1.74 1.82 1.85
3173.169 1.69 1.97 2.19 2.21 2.22 1.93 1.68 1.58 1.89 1.96
3192.458 1.91 2.01 1.7 1.64 1.77 1.81 2.09 1.9 1.53 1.52
3211.748 1.75 1.73 1.56 1.34 1.2459 1.1653 1.0356 1.2773 1.1618 1.2404
3231.038 1.2974 0.9719 0.7397 0.5822 0.7139 1.0138 1.2495 1.33 0.866 0.4898
3250.328 0.36596 0.35997 0.7785 0.5658 0.3634 0.7864 0.9302 0.7075 0.6649 0.7182
3269.617 0.4956 0.4053 0.4368 0.35863 0.5901 0.7467 0.4105 0.5507 0.9823 1.059
3288.907 0.8935 1.097 1.1864 0.9153 0.8032 0.8383 0.8918 0.6427 0.6274 0.8106
3308.197 0.8228 0.7996 0.7442 0.7408 0.9485 0.9684 1.1181 1.2671 1.1408 1.1106
3327.487 0.9644 0.8435 0.7806 0.9935 1.1819 1.1211 1.2461 1.2947 1.31 1.2183
3346.777 1.1165 1.44 1.77 1.99 1.77 1.71 1.83 1.72 2.01 2.27
3366.066 2.53 2.69 2.81 3.35 3.81 4.18 4.61 5.07 5.54 6.05
3385.356 6.77 7.3 7.68 8.08 8.22 8.35 8.17 7.64 7.45 7.01
3404.646 6.21 5.39 4.91 4.5 3.62 2.96 2.63 2.24 2.11 2.14
3423.936 2.31 2.17 1.68 1.44 1.65 1.38 0.905 1.2763 1.32 1.1336
3443.225 1.1467 0.8732 0.2398 0.09 0.5531 0.853 0.895 0.7722 0.7627 0.7865
3462.515 0.7813 0.7995 0.8752 0.7713 0.577 0.7449 0.6885 0.7346 1.0518 0.9917
3481.805 0.8736 0.8284 0.6901 0.6089 0.4539 0.5347 0.7197 0.4506 0.29343 0.5456
3501.095 0.4435 0.32168 0.5259 0.4518 0.3108 0.35801 0.4507 0.304861 0.5093 0.5429
3520.385 0.35947 0.6635 0.8004 0.71 0.4301 0.4589 0.2598 0.214 0.39246 0.141
3539.674 0.127 0.2146 0.2398 0.2577 0.2799 0.5594 0.815 0.608 0.3436 0.112
3558.964 0.175 0.2865 0.2711 0.35507 0.6264 0.6902 0.6789 0.7132 0.6533 0.7437
3578.254 0.8819 0.8413 0.5824 0.5746 0.825 0.7566 0.5909 0.257 0.2356 0.6043
3597.544 0.4472 0.31127 0.2614 0.7955 1.127 0.7878 0.8365 0.6687 0.4336 0.32415
3616.833 0.33772 0.6078 0.5181 0.39896 0.4029 0.2812 0.5414 0.5742 0.38832 0.6302
3636.123 1.0007 1.0695 0.5833 0.2778 0.5796 0.5349 0.35584 0.7982 0.895 0.8236
3655.413 0.8972 0.9613 1.1179 1.055 0.8202 0.5145 0.32227 0.2426 0.5432 0.6791
3674.703 0.5968 0.6901 0.6799 0.6804 0.7674 0.7183 0.33183 0.2353 0.6697 0.8438
3693.993 0.6992 0.5638 0.7227 0.6772 0.32797 0.2713 0.4291 0.7179 0.7318 0.5942
3713.282 0.584 0.39062 0.34367 0.5324 0.34883 0.193 0.4073 0.34284 0.2619 0.421
3732.572 0.2796 0.2536 0.2506 0.4583 0.4407 0.38176 0.6914 0.5308 0.6402 0.8527
3751.862 0.8655 0.6827 0.4537 0.6481 0.8077 0.6066 0.2125 0.044 0.192 0.5631
3771.152 0.6689 0.5492 0.7166 0.7407 0.5922 0.4124 0.2879 0.5212 0.8188 0.656
3790.441 0.2303 0.069 0 0.2497 0.8228 0.8673 0.7512 0.6726 0.4822 0.4678
3809.731 0.5322 0.5427 0.7915 0.8896 0.5892 0.5264 0.893 0.8447 0.6379 0.4349
3829.021 0.2556 0.555 0.7326 0.8858 1.03 1.0433 0.9658 0.7961 0.5632 0.6477
3848.311 0.8042 0.7568 1.0002 1.1573 0.8755 0.5486 0.4074 0.6222 0.6352 0.5065
3867.601 0.8678 1.0278 0.8958 1.056 0.9512 0.8201 0.9697 0.7663 0.5675 0.5097
3886.890 0.739 0.8881 0.8879 1.1722 0.9955 0.9369 1.0131 0.8068 0.552 0.4674
3906.180 0.5077 0.38059 0.5716 0.876 0.719 0.5554 0.6278 0.4003 0.35444 0.6552
3925.470 0.8164 0.7175 0.7613 0.5715 0.4599 0.8095 0.7236 0.8899 1.0743 0.7857
3944.760 0.6024 0.6548 0.9457 0.7145 0.2306 0.514 0.9215 0.8049 0.4595 0.5721
3964.049 0.7878 0.9333 1.1014 0.8048 0.5265 0.6515 0.7864 0.9898 1.0041 0.763
3983.339 0.35152 0.063 0.5184 0.7611 0.6621 0.9181 0.9249 0.601 0.6758 0.8724
##END=
