##TITLE=trans-3-Methyl-1,5-heptadiene
##JCAMP-DX=4.24
##DATA TYPE=INFRARED SPECTRUM
##ORIGIN=NIST Mass Spectrometry Data Center
##OWNER=NIST Standard Reference Data Program
Collection (C) 2018 copyright by the U.S. Secretary of Commerce
on behalf of the United States of America. All rights reserved.
##CAS REGISTRY NO=50763-51-4
##MOLFORM=C 8 H 14
##$NIST SOURCE=MSDC-IR
##SPECTROMETER/DATA SYSTEM=HP-GC/MS/IRD
##STATE=gas
##XUNITS=1/CM
##YUNITS=ABSORBANCE
##XFACTOR=1.0
##YFACTOR=0.000001600
##DELTAX=4.0
##FIRSTX=550.0
##LASTX=3846.0
##FIRSTY=0.000075
##MAXX=3846
##MINX=550
##MAXY=0.016
##MINY=0
##NPOINTS=825
##XYDATA=(X++(Y..Y))
550.0 47 100 113 32 16 60 62 53 64 76
590.0 80 73 42 19 59 91 82 120 135 127
630.0 140 156 171 185 231 309 393 467 591 702
670.0 759 790 777 717 599 464 352 246 188 164
710.0 123 105 103 115 106 95 85 85 92 100
750.0 103 72 55 64 62 56 69 71 71 77
790.0 73 103 132 134 148 145 141 171 198 214
830.0 224 246 271 298 331 328 347 383 403 449
870.0 505 579 668 781 940 1191 1591 2161 2885 3650
910.0 4249 4542 4502 4155 3556 2968 2575 2389 2397 2589
950.0 2965 3451 3909 4232 4344 4197 3849 3486 3224 3032
990.0 2843 2651 2417 2094 1765 1514 1310 1148 1035 945
1030.0 886 852 827 788 746 734 706 693 693 675
1070.0 665 668 669 650 631 583 524 494 482 467
1110.0 448 432 439 452 459 455 436 427 411 393
1150.0 342 280 265 252 220 195 175 166 182 195
1190.0 203 215 224 218 230 256 272 291 287 249
1230.0 236 224 198 199 224 260 301 341 369 376
1270.0 380 378 368 395 418 440 481 513 539 545
1310.0 550 541 518 509 499 498 510 522 523 536
1350.0 554 571 633 736 897 1053 1170 1270 1309 1236
1390.0 1114 989 908 891 936 1041 1169 1265 1320 1367
1430.0 1412 1457 1530 1633 1745 1824 1846 1800 1714 1549
1470.0 1352 1140 939 783 645 531 459 401 353 333
1510.0 302 278 266 254 239 219 209 207 202 190
1550.0 168 172 208 217 223 243 259 274 282 273
1590.0 269 276 284 297 315 367 456 572 717 912
1630.0 1126 1303 1376 1355 1249 1050 803 607 490 407
1670.0 348 311 276 247 224 212 216 209 203 216
1710.0 221 214 199 185 171 155 150 142 120 99
1750.0 97 93 90 98 104 109 108 103 110 120
1790.0 129 138 143 150 171 212 259 318 384 424
1830.0 438 415 375 321 250 190 145 112 88 68
1870.0 55 55 54 48 45 41 40 39 41 47
1910.0 43 43 44 45 35 28 28 33 45 45
1950.0 38 33 41 58 69 71 74 88 83 79
1990.0 81 81 77 65 49 45 46 45 40 29
2030.0 19 13 15 15 18 15 15 18 19 19
2070.0 17 24 21 7 6 9 10 16 17 13
2110.0 8 3 3 11 14 6 4 3 9 16
2150.0 9 4 9 4 0 3 3 4 5 14
2190.0 23 16 13 15 11 15 21 20 19 14
2230.0 16 15 17 25 25 32 30 22 24 24
2270.0 30 36 28 20 22 34 49 48 41 43
2310.0 36 32 41 45 40 48 70 70 60 55
2350.0 60 71 65 68 83 81 71 57 48 54
2390.0 60 61 53 49 51 54 54 55 54 49
2430.0 53 63 60 54 53 60 59 60 66 58
2470.0 57 65 67 62 56 52 51 55 66 74
2510.0 70 70 76 78 79 72 65 68 78 82
2550.0 78 70 68 75 86 90 85 90 100 96
2590.0 101 104 95 90 96 103 94 95 94 96
2630.0 107 105 98 93 89 96 110 109 111 117
2670.0 124 128 119 108 110 117 132 141 153 167
2710.0 170 187 206 219 246 274 310 338 350 350
2750.0 331 294 257 243 262 271 274 274 289 312
2790.0 330 342 363 416 464 518 586 672 784 919
2830.0 1107 1332 1574 1826 2064 2318 2642 3089 3618 4096
2870.0 4500 4803 4961 5052 5189 5393 5697 6097 6552 7013
2910.0 7455 7921 8377 8749 8900 8760 8416 7945 7421 7045
2950.0 6977 7231 7836 8741 9593 10000 9831 9194 8172 6826
2990.0 5599 4857 4456 4238 4074 3902 3746 3596 3417 3207
3030.0 2944 2658 2389 2137 1921 1764 1671 1660 1718 1838
3070.0 2020 2265 2530 2722 2688 2481 2186 1773 1334 995
3110.0 789 664 577 514 471 440 399 363 339 314
3150.0 290 271 261 258 248 248 250 215 206 208
3190.0 199 187 178 177 163 147 149 142 126 118
3230.0 112 111 112 105 102 96 100 97 93 95
3270.0 96 100 85 78 80 75 70 47 48 55
3310.0 49 66 78 72 60 52 46 46 41 53
3350.0 78 78 77 79 59 35 33 42 55 59
3390.0 48 33 27 48 54 37 29 37 49 40
3430.0 27 25 19 33 52 74 85 65 50 37
3470.0 30 43 41 26 23 16 36 55 38 27
3510.0 23 19 29 12 19 43 25 16 16 22
3550.0 25 36 46 27 20 33 37 38 39 40
3590.0 29 34 62 53 35 34 47 44 28 32
3630.0 31 36 42 36 17 25 19 23 53 58
3670.0 55 48 46 54 61 61 60 60 52 41
3710.0 45 67 61 47 61 61 56 49 48 63
3750.0 66 65 72 63 47 55 57 60 75 78
3790.0 70 67 82 92 91 91 80 84 102 95
3830.0 91 75 69 74 58
##END=
