##TITLE=Tricyclene
##JCAMP-DX=4.24
##DATA TYPE=INFRARED SPECTRUM
##ORIGIN=NIST Mass Spectrometry Data Center
##OWNER=NIST Standard Reference Data Program
Collection (C) 2018 copyright by the U.S. Secretary of Commerce
on behalf of the United States of America. All rights reserved.
##CAS REGISTRY NO=508-32-7
##MOLFORM=C 10 H 16
##$NIST SOURCE=MSDC-IR
##SPECTROMETER/DATA SYSTEM=HP-GC/MS/IRD
##STATE=gas
##XUNITS=1/CM
##YUNITS=ABSORBANCE
##XFACTOR=1.0
##YFACTOR=0.000060200
##DELTAX=4.0
##FIRSTX=550.0
##LASTX=3846.0
##FIRSTY=0.003793
##MAXX=3846
##MINX=550
##MAXY=0.602
##MINY=0
##NPOINTS=825
##XYDATA=(X++(Y..Y))
550.0 63 89 62 49 26 10 3 1 0 0
590.0 1 1 4 10 17 26 34 42 44 39
630.0 32 24 16 10 6 3 3 2 0 0
670.0 2 3 4 4 5 7 8 10 16 22
710.0 27 34 33 26 22 16 9 6 6 6
750.0 7 9 11 12 14 16 17 19 24 32
790.0 50 88 154 238 298 369 420 368 351 359
830.0 354 387 472 575 605 641 702 642 543 507
870.0 445 349 266 194 129 89 75 76 79 79
910.0 78 76 76 75 76 79 87 88 84 80
950.0 76 77 96 129 158 193 227 207 179 150
990.0 102 71 60 63 74 86 96 110 133 143
1030.0 147 155 172 175 143 127 110 89 84 102
1070.0 138 186 239 290 313 297 257 205 148 101
1110.0 72 57 55 64 63 65 76 85 99 121
1150.0 141 150 160 172 174 180 205 229 241 250
1190.0 246 210 165 134 105 81 73 72 67 63
1230.0 62 63 66 71 81 93 91 95 108 123
1270.0 147 178 208 257 327 360 395 464 505 518
1310.0 510 456 377 297 219 158 130 130 154 204
1350.0 295 425 564 697 925 1007 939 938 858 758
1390.0 630 494 398 296 206 154 136 138 156 194
1430.0 254 338 445 583 750 913 1062 1196 1241 1208
1470.0 1136 981 798 635 494 388 305 239 188 146
1510.0 112 87 70 59 51 44 41 38 37 36
1550.0 36 37 36 38 40 42 44 46 48 50
1590.0 52 54 55 56 58 59 60 60 60 59
1630.0 58 55 52 49 47 46 45 44 45 44
1670.0 45 44 43 43 45 47 49 49 48 45
1710.0 39 33 26 20 15 10 7 6 5 4
1750.0 5 5 6 6 7 8 10 11 13 14
1790.0 16 18 20 19 18 19 20 20 22 25
1830.0 26 27 29 28 27 27 28 27 27 26
1870.0 25 24 25 26 27 28 28 29 28 28
1910.0 28 29 30 31 33 34 34 33 32 30
1950.0 29 27 27 28 29 29 28 29 29 28
1990.0 29 31 32 33 35 33 31 29 26 24
2030.0 22 19 18 17 16 15 13 12 10 9
2070.0 9 9 10 9 11 12 12 13 12 12
2110.0 11 10 11 12 14 17 20 23 27 30
2150.0 31 31 30 28 26 24 23 21 20 19
2190.0 17 15 14 12 11 12 11 13 13 14
2230.0 16 15 16 15 14 13 12 13 13 12
2270.0 11 10 9 8 6 5 6 6 5 6
2310.0 5 4 5 4 3 4 5 5 6 5
2350.0 6 5 6 5 4 5 4 4 4 2
2390.0 2 3 4 3 3 2 1 0 1 0
2430.0 1 2 1 0 0 1 0 0 2 1
2470.0 2 1 2 1 2 1 2 3 3 4
2510.0 5 6 5 5 6 5 6 6 5 4
2550.0 5 4 4 5 6 8 9 10 11 10
2590.0 11 10 11 10 11 12 13 14 15 15
2630.0 16 16 17 18 17 18 17 16 17 17
2670.0 18 18 19 22 23 26 31 35 41 49
2710.0 59 69 83 99 115 134 147 158 168 169
2750.0 166 162 157 154 153 155 157 157 159 161
2790.0 167 176 188 203 220 238 258 278 303 334
2830.0 368 409 461 529 621 756 968 1312 1839 2533
2870.0 3324 4189 4919 5334 5630 5507 5088 4729 4361 4102
2910.0 4048 4197 4525 4983 5474 5946 6427 6913 7398 8032
2950.0 8832 9367 9794 10000 9861 9753 9025 8004 7175 6136
2990.0 4769 3548 2631 1874 1281 884 649 518 454 440
3030.0 483 606 825 1121 1514 2064 2334 2418 2475 2065
3070.0 1634 1248 805 503 361 303 275 258 247 240
3110.0 234 228 220 212 204 193 180 168 157 148
3150.0 141 134 129 124 118 111 103 94 84 73
3190.0 65 57 53 48 43 39 34 29 26 22
3230.0 19 17 15 15 14 14 15 15 16 16
3270.0 16 17 16 14 12 11 10 9 10 9
3310.0 10 11 13 14 16 18 20 22 22 23
3350.0 25 23 21 19 17 14 11 10 9 9
3390.0 10 11 13 16 18 21 23 24 26 25
3430.0 24 21 18 14 11 8 6 5 4 2
3470.0 3 4 3 5 6 7 9 10 10 11
3510.0 10 9 8 6 5 5 3 1 0 0
3550.0 0 0 0 0 0 0 2 1 2 1
3590.0 2 3 4 5 6 5 6 5 4 5
3630.0 4 3 4 4 6 7 6 7 6 7
3670.0 8 9 9 8 8 7 6 5 6 5
3710.0 4 3 6 8 9 9 10 11 12 11
3750.0 11 12 11 12 13 14 15 17 17 18
3790.0 18 19 18 19 20 22 23 24 25 27
3830.0 28 28 29 28 28
##END=
