##TITLE=Methyl 3-methoxy-4-nitrobenzoate
##JCAMP-DX=4.24
##DATA TYPE=INFRARED SPECTRUM
##ORIGIN=EPA-IR VAPOR PHASE LIBRARY
##OWNER=SRD/NIST
Collection (C) 2018 copyright by the U.S. Secretary of Commerce
on behalf of the United States of America. All rights reserved.
##CAS REGISTRY NO=5081-37-8
##MOLFORM=C 9 H 9 N O 5
##$NIST SOURCE=MSDC-IR
##STATE=gas
##XUNITS=1/CM
##YUNITS=ABSORBANCE
##XFACTOR=1.
##YFACTOR=0.001
##DELTAX=1.92898
##FIRSTX=549.8
##LASTX=4000.7
##FIRSTY=3.089
##MAXX=4000.7
##MINX=549.759
##MAXY=0.300399
##MINY=0
##NPOINTS=1790
##XYDATA=(X++(Y..Y))
549.759 3.089 3.459 3.909 4.079 3.899 3.969 4.179 4.289 4.369 4.649
569.049 5.079 4.929 4.439 4.439 5.079 5.179 4.799 4.529 4.489 4.979
588.339 5.319 5.669 5.749 6.149 6.309 6.099 6.309 6.179 6.179 5.869
607.628 5.249 4.719 4.369 4.159 3.439 2.869 2.659 2.609 2.699 2.239
626.918 2.019 2.479 2.209 1.729 1.689 1.749 1.5555 1.1893 1.2226 1.2698
646.208 1.4417 1.669 1.709 1.5572 1.5193 1.3836 1.3489 1.4512 1.3486 1.3808
665.498 1.869 2.289 2.469 2.609 2.739 3.799 5.079 6.009 6.889 8.019
684.787 8.799 8.829 8.829 8.249 7.249 6.589 6.099 5.659 5.429 5.469
704.077 5.389 5.029 4.849 5.019 5.179 5.189 4.979 4.739 4.859 5.229
723.367 5.599 5.959 6.539 7.409 8.789 10.469 12.549 14.709 17.139 20.229
742.657 23.239 26.169 28.279 29.569 30.229 30.519 30.499 29.189 27.509 26.519
761.947 25.889 25.379 24.949 24.839 24.769 24.519 24.409 23.999 23.829 24.429
781.236 25.349 25.939 25.789 24.889 22.869 19.819 16.749 13.959 11.349 9.439
800.526 8.439 8.099 7.709 7.299 7.119 7.289 7.519 8.289 9.259 10.129
819.816 11.679 14.059 17.769 23.319 30.679 38.779 46.039 50.789 52.519 51.279
839.106 47.229 40.609 32.639 25.379 19.769 15.759 12.999 11.259 10.229 9.339
858.395 8.689 8.169 7.869 8.039 8.379 8.949 9.619 10.529 11.439 12.859
877.685 14.419 15.669 17.559 19.619 21.259 22.659 23.629 23.719 23.079 21.919
896.975 20.199 17.949 15.819 14.289 12.999 11.909 10.959 9.769 8.649 7.859
916.265 6.929 5.849 5.409 5.359 4.609 3.889 4.119 4.239 4.089 3.859
935.555 3.319 3.489 3.859 4.099 4.449 4.379 4.319 4.679 5.159 5.399
954.844 5.679 6.229 6.829 7.669 8.619 9.369 10.799 12.759 14.859 17.019
974.134 19.089 21.259 23.709 25.549 26.569 27.709 28.219 27.869 27.059 25.669
993.424 24.159 22.589 20.659 19.229 18.309 17.959 18.049 18.849 20.709 22.989
1012.714 26.089 30.379 35.599 40.579 46.339 53.499 59.579 63.999 67.199 68.399
1032.003 67.989 66.009 61.659 56.129 50.169 44.329 39.519 35.209 31.559 29.079
1051.293 27.049 25.329 24.489 23.799 23.509 24.259 24.899 25.799 27.289 29.189
1070.583 30.579 31.969 35.339 38.549 42.429 46.509 49.719 52.889 55.229 56.689
1089.873 56.829 57.269 57.969 58.259 58.189 59.639 63.179 65.699 67.299 69.009
1109.163 69.179 67.779 64.409 60.319 55.859 51.019 46.439 40.909 36.049 31.989
1128.452 28.569 26.299 24.339 22.579 21.449 21.079 20.449 19.889 19.819 19.879
1147.742 20.329 21.329 21.729 21.519 21.279 21.279 20.639 19.619 19.849 20.339
1167.032 20.639 21.529 22.289 23.879 26.249 28.499 31.329 34.419 36.579 38.319
1186.322 40.719 41.759 41.629 41.599 40.929 40.039 39.449 39.519 41.089 42.289
1205.611 43.549 46.239 49.919 54.359 61.069 69.039 78.389 90.179 102.919 118.029
1224.901 135.399 152.869 168.919 185.529 199.899 209.369 214.119 211.499 202.599 189.669
1244.191 172.539 153.909 135.419 118.909 105.749 95.909 89.109 84.239 81.879 81.919
1263.481 83.409 86.279 90.569 96.569 104.219 114.099 127.039 142.679 160.579 180.779
1282.771 203.629 227.239 250.239 271.649 288.219 298.599 300.399 292.309 275.669 252.019
1302.060 224.049 194.749 166.989 142.639 122.139 105.029 90.679 78.839 69.259 61.619
1321.350 55.539 50.829 47.359 44.839 43.349 42.719 42.629 43.139 44.619 46.839
1340.640 49.559 52.919 56.709 60.889 65.239 69.339 73.029 76.199 78.499 79.639
1359.930 79.349 77.399 74.139 69.789 64.369 58.439 52.499 46.819 41.789 37.799
1379.219 34.839 32.809 31.639 31.159 31.299 32.349 34.439 37.389 41.409 46.449
1398.509 52.569 59.459 66.459 73.159 78.409 81.539 82.109 79.689 74.669 67.739
1417.799 59.989 52.389 46.049 41.529 38.719 37.769 39.079 43.139 49.549 56.679
1437.089 62.549 65.629 66.029 63.929 58.699 51.049 44.619 41.649 41.119 41.839
1456.378 43.279 44.879 46.379 47.839 48.969 49.539 49.719 49.769 49.659 49.329
1475.668 48.899 48.709 48.759 49.149 49.799 50.209 50.239 49.809 48.769 47.029
1494.958 44.919 42.839 40.689 38.609 37.119 36.169 35.779 36.069 36.649 37.739
1514.248 39.189 40.919 42.999 45.139 47.629 50.689 54.399 58.739 64.219 71.059
1533.538 79.389 89.069 99.549 110.949 122.119 132.309 140.589 145.689 146.469 142.719
1552.827 135.469 125.959 115.999 105.689 95.459 86.339 78.539 72.219 67.289 63.739
1572.117 61.579 60.969 61.389 62.619 64.789 67.599 70.599 73.489 75.939 77.679
1591.407 79.009 80.009 80.619 81.099 81.719 82.479 83.059 83.239 82.749 81.149
1610.697 77.999 73.479 67.649 60.509 52.799 45.099 37.859 31.549 26.309 22.209
1629.986 18.939 16.169 14.249 12.929 11.769 10.929 10.369 9.849 9.329 9.019
1649.276 8.749 8.379 8.109 7.859 7.719 7.679 7.589 7.449 7.449 7.689
1668.566 7.889 8.039 8.179 8.289 8.319 8.509 8.739 8.819 8.799 8.929
1687.856 9.079 9.179 9.549 10.069 10.679 11.379 12.229 13.419 14.619 15.729
1707.146 16.729 17.479 18.129 18.699 19.149 19.769 20.679 21.829 23.459 25.849
1726.435 29.149 33.829 40.609 50.029 63.279 80.869 102.649 128.719 155.799 179.439
1745.725 196.259 206.199 208.129 199.769 180.839 154.209 124.499 97.449 75.509 58.859
1765.015 46.799 38.169 32.059 27.879 25.069 23.299 22.119 21.269 20.659 20.399
1784.305 20.059 19.429 18.619 17.399 15.809 14.139 12.629 11.209 9.979 8.839
1803.594 7.799 6.959 6.379 5.969 5.539 5.199 4.979 4.719 4.349 4.129
1822.884 4.029 3.829 3.539 3.299 3.229 3.199 3.149 3.049 3.059 3.049
1842.174 2.999 3.069 3.039 2.999 3.059 3.129 3.169 3.329 3.379 3.339
1861.464 3.429 3.489 3.389 3.229 3.159 3.129 3.089 2.989 2.949 2.959
1880.754 2.949 2.869 2.809 2.809 2.919 3.139 3.189 3.159 3.299 3.409
1900.043 3.419 3.409 3.499 3.659 3.599 3.489 3.489 3.359 3.239 3.099
1919.333 2.929 2.809 2.859 3.039 2.929 2.709 2.679 2.679 2.659 2.659
1938.623 2.619 2.619 2.689 2.689 2.709 2.709 2.679 2.589 2.449 2.459
1957.913 2.499 2.439 2.459 2.559 2.519 2.509 2.549 2.549 2.559 2.649
1977.202 2.679 2.729 2.749 2.639 2.549 2.529 2.539 2.659 2.769 2.709
1996.492 2.649 2.629 2.599 2.689 2.829 2.969 3.069 3.019 3.029 3.059
2015.782 2.989 2.919 2.879 2.839 2.689 2.669 2.659 2.619 2.659 2.589
2035.072 2.559 2.509 2.469 2.539 2.609 2.669 2.719 2.739 2.869 2.999
2054.362 2.999 2.979 3.099 3.199 3.269 3.449 3.489 3.519 3.739 3.779
2073.651 3.679 3.589 3.569 3.529 3.319 3.219 3.139 2.999 2.849 2.649
2092.941 2.449 2.389 2.479 2.509 2.369 2.269 2.319 2.439 2.469 2.419
2112.231 2.559 2.609 2.639 2.689 2.749 2.919 2.979 2.969 2.949 2.919
2131.521 2.879 2.879 2.849 2.699 2.629 2.589 2.399 2.309 2.249 2.039
2150.810 1.889 1.849 1.859 1.859 1.809 1.659 1.5192 1.4841 1.526 1.709
2170.100 1.699 1.639 1.619 1.579 1.679 1.749 1.689 1.599 1.729 1.879
2189.390 1.829 1.749 1.769 1.769 1.769 1.849 1.839 1.779 1.739 1.669
2208.680 1.569 1.5562 1.5069 1.4141 1.4919 1.4938 1.3633 1.2694 1.2701 1.3673
2227.970 1.4182 1.2961 1.319 1.349 1.3585 1.3957 1.346 1.3026 1.2759 1.244
2247.259 1.1725 1.2626 1.2792 1.2052 1.2738 1.2691 1.2979 1.3908 1.3441 1.2675
2266.549 1.216 1.2281 1.352 1.3432 1.3098 1.342 1.3537 1.3976 1.4859 1.5441
2285.839 1.496 1.4309 1.4339 1.4122 1.5493 1.749 1.639 1.4685 1.4547 1.4206
2305.129 1.4365 1.4971 1.4324 1.4967 1.569 1.4976 1.4594 1.4005 1.4616 1.619
2324.418 1.659 1.599 1.4316 1.3939 1.4575 1.3593 1.4 1.599 1.609 1.579
2343.708 1.669 1.639 1.619 1.659 1.5516 1.5158 1.779 1.979 1.839 1.769
2362.998 1.789 1.739 1.639 1.869 2.059 1.999 2.009 1.979 2.099 2.129
2382.288 2.099 2.049 1.879 1.829 1.889 1.869 1.789 1.719 1.669 1.629
2401.578 1.659 1.649 1.669 1.699 1.669 1.569 1.509 1.5117 1.5297 1.5363
2420.867 1.5092 1.5436 1.639 1.719 1.709 1.579 1.5284 1.599 1.639 1.629
2440.157 1.689 1.699 1.669 1.619 1.659 1.769 1.699 1.729 1.769 1.619
2459.447 1.599 1.749 1.759 1.609 1.599 1.659 1.719 1.659 1.579 1.609
2478.737 1.739 1.679 1.629 1.739 1.639 1.709 1.839 1.739 1.649 1.599
2498.026 1.589 1.719 1.699 1.569 1.589 1.719 1.849 1.829 1.789 1.799
2517.316 1.709 1.649 1.709 1.839 1.949 1.789 1.819 1.979 1.859 1.889
2536.606 1.949 1.879 1.859 1.779 1.759 1.669 1.639 1.769 1.769 1.629
2555.896 1.629 1.869 1.909 1.729 1.729 1.979 1.959 1.869 1.959 2.029
2575.186 2.059 2.059 2.089 2.159 2.309 2.309 2.179 2.159 2.209 2.229
2594.475 2.349 2.279 2.089 2.159 2.219 2.119 2.019 2.109 2.129 2.029
2613.765 1.979 1.949 1.969 1.959 2.049 2.079 1.959 1.879 1.879 1.879
2633.055 1.869 1.919 1.979 1.969 1.949 2.089 2.179 2.099 2.019 1.979
2652.345 1.939 1.929 1.899 1.859 1.849 1.759 1.809 1.799 1.709 1.729
2671.634 1.739 1.809 1.919 1.879 1.809 1.729 1.889 2.069 2.089 2.239
2690.924 2.309 2.339 2.369 2.469 2.479 2.359 2.509 2.599 2.469 2.409
2710.214 2.359 2.319 2.539 2.499 2.239 2.199 2.029 2.119 2.169 1.979
2729.504 1.889 1.869 1.859 1.739 1.759 1.829 1.729 1.729 1.849 1.869
2748.794 1.809 1.789 1.739 1.789 1.859 1.919 1.889 1.749 1.839 1.919
2768.083 1.849 1.799 1.749 1.769 1.879 1.909 1.859 1.899 1.939 1.949
2787.373 2.019 1.979 1.999 2.079 2.079 2.019 2.099 2.349 2.439 2.559
2806.663 2.729 2.809 2.849 3.089 3.509 3.679 3.749 4.239 4.639 4.869
2825.953 5.109 5.519 6.039 6.529 7.289 8.169 9.109 9.989 11.169 12.429
2845.242 13.459 14.469 15.339 15.729 15.949 15.789 15.139 14.479 13.589 12.859
2864.532 12.439 12.189 11.929 11.729 11.679 11.679 11.819 11.819 12.019 12.119
2883.822 11.839 11.689 11.629 11.789 11.819 11.739 11.939 12.219 12.529 12.849
2903.112 13.019 13.079 13.249 13.539 13.739 14.069 14.239 14.329 14.649 14.719
2922.401 14.829 14.969 14.919 15.069 15.229 15.549 16.339 17.369 18.529 20.089
2941.691 22.209 24.449 26.929 29.559 31.929 34.729 38.379 42.859 48.039 52.569
2960.981 54.949 55.009 53.199 49.519 44.119 37.589 31.199 26.409 23.169 20.589
2980.271 18.689 17.359 16.329 15.509 14.729 14.209 13.839 13.759 14.129 14.329
2999.561 14.539 14.959 15.609 16.259 16.659 16.819 17.119 17.909 18.579 18.939
3018.850 19.199 19.169 18.829 18.359 17.479 16.339 15.229 13.939 12.739 11.869
3038.140 11.089 10.419 9.969 9.369 8.769 8.249 7.719 7.349 7.089 6.879
3057.430 6.519 6.149 6.069 6.059 5.819 5.659 5.669 5.589 5.389 5.399
3076.720 5.609 5.799 6.119 6.369 6.589 6.619 6.459 6.169 5.749 5.409
3096.009 4.989 4.719 4.639 4.389 4.119 3.869 3.629 3.289 3.069 3.049
3115.299 3.129 3.279 3.249 3.159 2.859 2.719 2.639 2.299 2.279 2.269
3134.589 2.249 2.289 2.009 2.029 2.079 2.079 2.109 1.959 1.829 1.659
3153.879 1.689 1.739 1.699 1.719 1.599 1.609 1.569 1.377 1.619 1.599
3173.169 1.2828 1.1361 0.9315 0.9911 1.1189 1.1733 1.196 1.1947 1.1328 1.138
3192.458 1.1711 1.1092 0.9844 0.9458 1.0012 1.0271 0.9575 1.0909 1.2835 1.0981
3211.748 0.8417 0.6933 0.7824 0.7658 0.8924 0.9535 0.7667 0.734 0.6718 0.58222
3231.038 0.62738 0.7469 0.63117 0.717 0.862 0.7901 0.5378 0.423 0.7082 0.7145
3250.328 0.5499 0.7736 0.8268 0.7198 0.7325 0.7764 0.8191 0.57205 0.58318 0.8736
3269.617 0.9345 0.6919 0.344 0.55043 0.63921 0.415 0.5531 0.393 0.251 0.422
3288.907 0.345 0.387 0.4892 0.44 0.365 0.425 0.4775 0.261 0.401 0.59679
3308.197 0.417 0.4764 0.562335 0.373 0.4836 0.852 0.9254 0.8984 1.1845 1.0839
3327.487 0.6958 0.62642 0.7185 0.7543 0.8673 0.7019 0.7458 0.9393 0.58384 0.5324
3346.777 0.560447 0.38 0.404 0.412 0.358 0.454 0.5 0.5402 0.566052 0.64119
3366.066 0.563345 0.567403 0.5143 0.202 0.321 0.559325 0.7906 0.6852 0.55792 0.57288
3385.356 0.448 0.67 0.6705 0.408 0.288 0.328 0.4747 0.456 0.447 0.5127
3404.646 0.62472 0.6677 0.6745 0.63909 0.5416 0.395 0.324 0.411 0.366 0.514
3423.936 0.60351 0.466 0.61038 0.8715 0.8155 0.4744 0.307 0.355 0.5178 0.679
3443.225 0.7721 0.8745 0.8427 0.6698 0.8353 1.0839 0.9431 0.9152 1.1552 1.1819
3462.515 1.3094 1.789 1.969 1.979 2.019 2.279 2.469 2.339 2.429 2.449
3481.805 2.169 2.019 1.899 1.729 1.4449 1.4071 1.2913 0.9866 1.0217 0.9686
3501.095 0.9319 1.1225 0.9737 0.7296 0.79 0.8872 0.8186 0.6692 0.7031 0.7423
3520.385 0.61516 0.431 0.4619 0.65551 0.7443 0.4593 0.185 0.442 0.374 0.172
3539.674 0.304 0.461 0.279 0.214 0.437 0.335 0.268 0.339 0.59243 0.54911
3558.964 0.425 0.5057 0.5178 0.58366 0.428 0.368 0.338 0.088 0.38 0.5073
3578.254 0.208 0.207 0.4659 0.369 0.27 0.282 0.306 0.322 0.029 0.126
3597.544 0.232 0.001 0.07 0.329 0.349 0.363 0.419 0.188 0.051 0.112
3616.833 0.085 0.065 0.071 0.325 0.57956 0.389 0.092 0.095 0.183 0.129
3636.123 0.216 0.434 0.434 0.188 0.039 0.095 0.4967 0.698 0.549 0.397
3655.413 0.206 0.123 0.225 0.288 0.233 0.388 0.294 0.193 0.22 0.272
3674.703 0.352 0.381 0.4735 0.456 0.281 0.266 0.1 0.036 0.375 0.36
3693.993 0.322 0.353 0.5147 0.417 0.235 0.5269 0.7663 0.61458 0.391 0.427
3713.282 0.5308 0.59344 0.435 0.306 0.369 0.457 0.58651 0.387 0.355 0.344
3732.572 0.218 0.437 0.5217 0.271 0.4 0.8398 0.7367 0.5358 0.337 0.26
3751.862 0.318 0.41 0.60495 0.411 0.178 0.362 0.60053 0.5027 0.181 0.413
3771.152 0.4911 0.265 0.387 0.325 0.252 0.367 0.485 0.375 0.199 0.244
3790.441 0.382 0.403 0.358 0.56929 0.5328 0.358 0.341 0.282 0.298 0.425
3809.731 0.425 0.351 0.418 0.277 0.193 0.4979 0.474 0.241 0.267 0.5021
3829.021 0.57074 0.477 0.60495 0.719 0.6168 0.4753 0.5404 0.698 0.5008 0.395
3848.311 0.7341 0.471 0.104 0.205 0 0.087 0.6677 0.64497 0.418 0.478
3867.601 0.5523 0.561159 0.7328 0.8395 0.59543 0.281 0.308 0.5408 0.57832 0.6318
3886.890 0.60865 0.58338 0.6975 0.59506 0.5247 0.5344 0.5429 0.6859 0.6796 0.61329
3906.180 0.6684 0.612 0.6844 0.55384 0.03 0.136 0.57605 0.8176 0.61897 0.458
3925.470 0.65595 0.7782 0.6786 0.5371 0.65438 0.7197 0.6307 0.7918 1.0378 1.0813
3944.760 0.7532 0.59069 0.9826 0.9791 0.8269 0.7108 0.57994 0.8571 1.1304 1.286
3964.049 1.0119 0.8096 0.8927 0.8502 0.8507 0.8072 0.7548 0.774 0.874 0.8564
3983.339 0.9615 0.8763 0.58314 0.57674 0.818 1.2126 1.0918 0.61541 0.7305 0.7688
##END=
