##TITLE=8-Bromo-1-octanol
##JCAMP-DX=4.24
##DATA TYPE=INFRARED SPECTRUM
##ORIGIN=EPA-IR VAPOR PHASE LIBRARY
##OWNER=SRD/NIST
Collection (C) 2018 copyright by the U.S. Secretary of Commerce
on behalf of the United States of America. All rights reserved.
##CAS REGISTRY NO=50816-19-8
##MOLFORM=C 8 H 17 Br O
##$NIST SOURCE=MSDC-IR
##STATE=gas
##XUNITS=1/CM
##YUNITS=ABSORBANCE
##XFACTOR=1.
##YFACTOR=0.001
##DELTAX=3.85796
##FIRSTX=501.5
##LASTX=4000.7
##FIRSTY=0.2971
##MAXX=4000.7
##MINX=501.534
##MAXY=0.0483214
##MINY=0
##NPOINTS=908
##XYDATA=(X++(Y..Y))
501.534 0.2971 0.3801 0.3837 0.4156 0.5046 0.4958 0.3474 0.317 0.4469 0.4953
540.114 0.5103 0.5921 0.5829 0.6152 0.788 1.0614 1.4714 1.6514 1.7014 1.6214
578.693 1.2714 0.9005 0.6615 0.4611 0.3538 0.3479 0.2686 0.2571 0.2455 0.2638
617.273 0.3026 0.3651 0.5189 0.6594 0.8625 1.1014 1.4414 1.9014 2.2014 2.2514
655.852 2.0714 1.6014 1.1114 0.7881 0.5783 0.468 0.3935 0.3985 0.4481 0.444
694.432 0.4495 0.5729 0.6983 0.77 0.8781 1.0414 1.1814 1.2314 1.2514 1.2314
733.011 1.2014 1.1214 1.0714 1.0314 1.0004 0.9861 0.8948 0.8053 0.768 0.6869
771.591 0.6517 0.6499 0.6036 0.5709 0.5932 0.6726 0.6836 0.6826 0.7063 0.7143
810.170 0.7169 0.731 0.7747 0.7973 0.7828 0.7318 0.771 0.8233 0.8412 0.8843
848.750 0.9013 0.9411 1.0058 1.0314 1.0514 1.1314 1.2114 1.3114 1.3014 1.2514
887.330 1.2914 1.3414 1.3414 1.3314 1.3714 1.3514 1.4114 1.4814 1.4914 1.5514
925.909 1.6014 1.6314 1.6814 1.7514 1.8014 1.8314 1.8914 1.9514 2.0414 2.1314
964.489 2.2114 2.3414 2.5414 2.7014 2.8314 3.0114 3.2414 3.5414 3.9314 4.3714
1003.068 4.8314 5.3414 5.8714 6.4514 7.1014 7.8014 8.5014 9.1614 9.7614 10.2814
1041.648 10.6714 10.8514 10.8314 10.6314 10.2214 9.4714 8.5914 7.7314 6.9414 6.3614
1080.227 5.7614 5.0714 4.3614 3.7614 3.2814 2.7414 2.3714 2.1514 1.9514 1.7914
1118.807 1.6814 1.6014 1.4614 1.4314 1.4614 1.5014 1.4714 1.3114 1.3414 1.3514
1157.387 1.3714 1.4614 1.3914 1.3714 1.4414 1.5214 1.5914 1.6514 1.8314 1.9814
1195.966 2.1114 2.3614 2.6714 3.0114 3.4214 3.8214 4.1214 4.4114 4.5814 4.6614
1234.546 4.7514 4.8614 5.0414 5.2014 5.3514 5.3914 5.3414 5.3214 5.1714 4.9514
1273.125 4.8214 4.6214 4.3714 4.1714 3.9914 3.8114 3.6214 3.4514 3.2514 3.0314
1311.705 2.8314 2.6314 2.5114 2.4514 2.4014 2.4114 2.4914 2.6414 2.7914 2.9714
1350.284 3.1314 3.1914 3.1414 3.0614 3.0014 3.0214 3.0614 3.0914 3.1514 3.1614
1388.864 3.0714 2.8914 2.6314 2.3314 2.0914 1.9214 1.8014 1.7814 1.8414 1.9914
1427.443 2.2814 2.7114 3.2714 3.8714 4.3114 4.5114 4.5614 4.6414 4.6514 4.4414
1466.023 4.0114 3.4914 2.9914 2.5214 2.0814 1.6514 1.3014 1.0514 0.88 0.7293
1504.603 0.6382 0.5676 0.5077 0.4694 0.435 0.4072 0.3621 0.336 0.3269 0.3265
1543.182 0.3198 0.3013 0.2697 0.2484 0.2435 0.2253 0.2188 0.2131 0.2038 0.1957
1581.762 0.1839 0.1755 0.1779 0.1706 0.1547 0.147 0.1434 0.1357 0.1412 0.1369
1620.341 0.11688 0.10622 0.09548 0.09004 0.08246 0.08033 0.09242 0.09231 0.10279 0.10479
1658.921 0.08893 0.08587 0.05637 0.0272 0.037595 0.04288 0.06047 0.06922 0.04952 0.04178
1697.500 0.04664 0.04466 0.030605 0.0314809 0.039899 0.0321235 0.02741 0.0212 0.0194 0.036201
1736.080 0.036637 0.0155 0.0035 0.0242 0.036732 0.0171 0 0.0083 0.0196 0.03026
1774.659 0.02433 0.0037 0.0052 0.02251 0.038368 0.0313172 0.0175 0.02655 0.04761 0.05436
1813.239 0.05292 0.06531 0.05747 0.05097 0.05292 0.0475 0.06104 0.06407 0.05276 0.05159
1851.819 0.0649 0.06784 0.06227 0.05865 0.05809 0.06359 0.07175 0.07126 0.05541 0.0432
1890.398 0.05459 0.07561 0.08463 0.08693 0.08268 0.07345 0.07549 0.08707 0.09512 0.10166
1928.978 0.09959 0.09681 0.09975 0.10209 0.09217 0.07009 0.06939 0.0906 0.11643 0.12941
1967.557 0.12679 0.1302 0.1302 0.12355 0.121 0.12384 0.1359 0.1465 0.1413 0.1536
2006.137 0.1747 0.1734 0.1862 0.2012 0.2063 0.2355 0.2397 0.2166 0.2184 0.2336
2044.716 0.2454 0.2367 0.2197 0.2116 0.2267 0.2407 0.2153 0.192 0.1894 0.1882
2083.296 0.1824 0.1824 0.1769 0.1687 0.1666 0.1545 0.1428 0.1351 0.1367 0.1415
2121.875 0.1439 0.1477 0.1604 0.1695 0.1566 0.1587 0.1687 0.1727 0.1663 0.1547
2160.455 0.1613 0.1728 0.1808 0.1954 0.2082 0.1904 0.1806 0.1931 0.1945 0.199
2199.035 0.2151 0.2185 0.2209 0.21 0.1951 0.2089 0.2272 0.2063 0.1951 0.2053
2237.614 0.2097 0.2083 0.2177 0.2079 0.1872 0.204 0.2124 0.2117 0.207 0.2094
2276.194 0.205 0.2026 0.2269 0.2368 0.2175 0.2214 0.2243 0.2167 0.2341 0.2364
2314.773 0.2327 0.2385 0.2473 0.2487 0.2461 0.2556 0.2765 0.2694 0.2621 0.2685
2353.353 0.2624 0.2714 0.2752 0.2936 0.2864 0.2678 0.2775 0.2768 0.2667 0.2669
2391.932 0.274 0.2734 0.2723 0.264 0.2511 0.2493 0.2589 0.268 0.2685 0.2708
2430.512 0.2648 0.2614 0.2546 0.2572 0.2665 0.2529 0.2549 0.2659 0.2665 0.2821
2469.092 0.2941 0.2649 0.2522 0.2646 0.2547 0.243 0.2608 0.2822 0.2889 0.2772
2507.671 0.2632 0.2771 0.2774 0.2788 0.2996 0.3029 0.3114 0.325 0.3168 0.3143
2546.251 0.3347 0.3276 0.3249 0.3052 0.2651 0.287 0.3197 0.3234 0.3447 0.3556
2584.830 0.3414 0.3598 0.381 0.3918 0.4022 0.4151 0.4362 0.4286 0.4396 0.4761
2623.410 0.4853 0.5052 0.5312 0.5706 0.5958 0.5905 0.6036 0.6293 0.6501 0.6817
2661.989 0.7163 0.7521 0.7742 0.7783 0.7993 0.8423 0.8623 0.8839 0.8968 0.8894
2700.569 0.9096 0.9213 0.9245 0.9191 0.9285 0.9543 0.964 0.9725 0.9975 1.0414
2739.148 1.0914 1.1114 1.1414 1.2014 1.2314 1.2314 1.2714 1.3414 1.3914 1.4414
2777.728 1.4914 1.5614 1.6414 1.7214 1.8014 1.9014 2.0214 2.1514 2.2814 2.4614
2816.308 2.7014 2.9614 3.3014 3.7214 4.2214 4.9214 5.8714 7.1014 8.7614 10.8614
2854.887 13.3414 15.9714 18.1814 19.4314 19.5714 18.9114 17.9214 16.8814 15.9714 15.3914
2893.467 15.3714 15.8514 16.8314 18.3214 20.2914 22.8514 26.1714 30.4314 35.4714 40.7514
2932.046 45.4214 48.3214 48.2514 44.8414 38.9414 32.2214 26.1014 21.3014 17.8714 15.3714
2970.626 13.3214 11.3314 9.3814 7.6114 6.1514 5.0614 4.3214 3.8914 3.6814 3.6614
3009.205 3.7814 3.7914 3.4714 2.9014 2.3214 1.8814 1.6014 1.4014 1.2414 1.0714
3047.785 0.9546 0.8978 0.8256 0.8209 0.7907 0.7161 0.6966 0.6372 0.6009 0.6157
3086.364 0.5837 0.5141 0.482 0.4532 0.462 0.4717 0.4333 0.4341 0.4205 0.4256
3124.944 0.3979 0.3949 0.3881 0.3351 0.3421 0.3446 0.3449 0.3343 0.3332 0.3357
3163.524 0.3216 0.3134 0.2964 0.3218 0.3542 0.3591 0.3542 0.351 0.3143 0.279
3202.103 0.3133 0.3062 0.2802 0.2594 0.2666 0.3181 0.3145 0.304 0.2954 0.2413
3240.683 0.2394 0.2815 0.2755 0.2796 0.2826 0.2464 0.2621 0.3005 0.3126 0.3231
3279.262 0.338 0.2984 0.2475 0.2486 0.2409 0.2434 0.2827 0.2828 0.279 0.3056
3317.842 0.2621 0.2367 0.274 0.2861 0.2813 0.3205 0.3412 0.3284 0.3153 0.3066
3356.421 0.3147 0.289 0.3097 0.3439 0.3395 0.3243 0.3093 0.3461 0.3556 0.3405
3395.001 0.3532 0.3613 0.3453 0.3281 0.331 0.3151 0.2937 0.3361 0.3951 0.3907
3433.580 0.3307 0.3323 0.3867 0.4292 0.4121 0.3809 0.4024 0.3755 0.3538 0.3975
3472.160 0.3954 0.364 0.3773 0.3756 0.3838 0.3983 0.3384 0.3341 0.3815 0.433
3510.740 0.4307 0.3678 0.4216 0.4316 0.3818 0.3944 0.4009 0.3778 0.3351 0.3635
3549.319 0.3708 0.3345 0.3991 0.4289 0.3732 0.3613 0.4205 0.4697 0.4382 0.4041
3587.899 0.4289 0.4266 0.4156 0.4485 0.4758 0.5215 0.5768 0.6162 0.6546 0.6927
3626.478 0.7838 0.8773 0.9293 1.0814 1.2614 1.4614 1.8214 2.2814 2.7314 3.1114
3665.058 3.3414 3.4514 3.3914 3.0514 2.5214 1.9914 1.5814 1.2614 1.0414 0.9048
3703.637 0.7981 0.7347 0.697 0.6305 0.5553 0.5252 0.4967 0.4615 0.4786 0.5186
3742.217 0.5267 0.4968 0.4856 0.5248 0.502 0.4402 0.4121 0.4517 0.463 0.4778
3780.797 0.5013 0.5011 0.5152 0.5223 0.5434 0.5412 0.521 0.5827 0.5458 0.4869
3819.376 0.5114 0.5394 0.5459 0.4959 0.4641 0.5151 0.5783 0.5062 0.5041 0.5312
3857.956 0.4912 0.5031 0.5325 0.5359 0.5361 0.5238 0.4971 0.5264 0.5477 0.5347
3896.535 0.5311 0.5288 0.4423 0.3956 0.4496 0.4471 0.4126 0.4303 0.4634 0.4641
3935.115 0.4522 0.44 0.4651 0.4615 0.4533 0.4708 0.4468 0.4292 0.4445 0.4264
3973.694 0.4713 0.5089 0.4817 0.4913 0.4673 0.494 0.5783 0.5609
##END=
