##TITLE=1-Bromo-8-tetrahydropyranyloxyoctane
##JCAMP-DX=4.24
##DATA TYPE=INFRARED SPECTRUM
##ORIGIN=EPA-IR VAPOR PHASE LIBRARY
##OWNER=SRD/NIST
Collection (C) 2018 copyright by the U.S. Secretary of Commerce
on behalf of the United States of America. All rights reserved.
##CAS REGISTRY NO=50816-20-1
##MOLFORM=C 13 H 25 Br O 2
##$NIST SOURCE=MSDC-IR
##STATE=gas
##XUNITS=1/CM
##YUNITS=ABSORBANCE
##XFACTOR=1.
##YFACTOR=0.001
##DELTAX=1.92898
##FIRSTX=549.8
##LASTX=4000.7
##FIRSTY=8.36
##MAXX=4000.7
##MINX=549.759
##MAXY=0.50908
##MINY=0.0002015
##NPOINTS=1790
##XYDATA=(X++(Y..Y))
549.759 8.36 8.56 9.13 9.5 10.37 12 13.45 14.85 16.37 17.18
569.049 17.78 17.57 16.79 15.56 13.48 11.84 10.32 9.01 7.92 6.77
588.339 5.52 4.72 4.42 4.05 4.04 4.05 3.84 3.61 3.61 3.66
607.628 3.74 3.66 3.88 4.28 4.54 4.5 4.27 4.63 4.88 5.48
626.918 6.03 6.53 7.23 7.85 8.62 9.6 10.82 12.02 13.61 15.3
646.208 16.34 16.78 16.8 16.33 15.43 14.1 12.1 10.05 8.68 7.33
665.498 6.11 5.42 4.75 4.44 4.3 3.81 3.54 3.4 3.18 3.07
684.787 3.19 3.18 3.23 3.49 3.63 3.9 4.27 4.4 4.61 5.08
704.077 5.53 5.86 6.52 7.42 8.32 8.91 9.21 9.69 10.19 10.86
723.367 11.16 11.71 11.58 10.58 10.12 9.78 9.62 9.54 9.34 9.09
742.657 8.93 9 9.02 8.8 8.67 8.44 8.33 8.18 7.84 7.49
761.947 7.36 7.52 7.42 7.2 7.13 7.23 7.23 7.08 7.22 7.42
781.236 7.39 7.37 7.64 8.17 8.69 9.23 9.74 10.32 11.21 12.33
800.526 13.43 14.69 16.42 18.28 19.73 20.95 22.06 22.7 22.38 21.21
819.816 19.4 17.42 15.33 13.53 12.44 11.27 10.66 10.48 10.25 10.31
839.106 10.52 10.99 11.62 12.44 13.28 14.15 15.17 16.27 17.87 20.04
858.395 22.49 25.25 28.29 31.52 35.05 38.36 40.64 41.69 41.14 39.25
877.685 36.64 33.8 31.42 29.63 28.14 27.33 27.46 28.05 29.01 30.3
896.975 32.4 35.29 38.08 40.6 42.93 44.3 43.9 42.07 39.4 36.33
916.265 33.22 30.54 28.29 26.12 24.19 22.91 22.14 21.49 20.78 20.41
935.555 20.47 20.5 20.52 20.79 21.37 22.06 23.1 24.24 25.34 26.98
954.844 29.12 31.65 34.61 37.63 40.76 43.8 46.86 50.13 52.84 55.27
974.134 57.64 59.73 61.35 63.03 64.96 66.29 67.35 67.55 67.19 66.37
993.424 65.07 63.87 62.54 62.26 63.08 64.34 66.66 70.41 75.95 83.77
1012.714 94.37 107.87 124.02 142.66 161.74 180.15 197.9 215.23 232.97 250.16
1032.003 267.41 283.29 294.12 295.52 284.15 261.67 232.73 203.31 177.47 156.47
1051.293 142.27 135.1 132.73 135.17 140.6 148.05 156.46 164.21 171.78 179.04
1070.583 185.42 192.76 200.63 206.28 208.59 204.84 194.52 177.36 156.05 134.76
1089.873 116.45 102.22 90.74 82.9 77.82 75.1 75.36 77.41 81.14 86.28
1109.163 91.57 98.1 106.99 116.47 125.77 134.57 141.27 146.53 150.58 153.56
1128.452 157.78 162.51 165.08 164.73 160.9 152.89 141.06 127.6 115.53 105.76
1147.742 98.4 93.39 90.53 89.43 88.99 89.24 89.46 89.18 88.84 87.53
1167.032 85.08 82.3 79.78 76.8 74.53 74.05 72.89 71.29 70.59 69.31
1186.322 68.01 66.08 63.94 63.95 66.36 70.76 75.53 79.73 82.07 82.07
1205.611 78.93 73.48 67.94 63.17 60.73 58.1 54.55 52.28 50.75 49.31
1224.901 47.18 44.98 43.68 42.92 42.24 41.89 41.42 41.51 42.85 44.2
1244.191 45.32 47.24 50.06 52.92 55.89 58.78 61.5 63.76 65.41 65.69
1263.481 64.37 62.34 59.66 56.95 54.75 53.22 51.8 50.46 49.15 47.83
1282.771 46.35 44.44 42.25 40.06 37.8 35.57 33.92 32.47 30.97 29.92
1302.060 29.26 28.58 27.97 27.64 27.56 27.7 27.99 28.5 29.39 30.22
1321.350 31.03 31.47 31.18 30.56 30.03 30.14 31.5 34.26 38.4 43.95
1340.640 50.6 57.58 63.91 69.25 72.98 74.72 74.71 72.87 69.79 66.46
1359.930 63.69 61.77 60.33 58.86 56.78 54.07 51.13 48.23 45.59 43.32
1379.219 41.21 39.01 36.54 33.69 30.62 27.8 25.43 23.45 21.92 20.82
1398.509 20.14 19.71 19.31 18.98 18.74 18.5 18.34 18.13 17.84 17.56
1417.799 17.4 17.61 18.15 19.06 20.44 22.34 24.83 27.92 31.57 35.44
1437.089 39.48 43.73 47.95 51.38 53.3 53.82 53.42 52.99 53.47 54.69
1456.378 55.89 56.15 55.12 53.04 50.42 47.82 45.03 41.7 37.93 33.95
1475.668 30.29 26.86 23.64 20.7 18.06 15.74 13.71 12 10.6 9.4
1494.958 8.37 7.58 6.92 6.26 5.79 5.47 5.13 4.78 4.46 4.1
1514.248 3.91 3.87 3.71 3.39 3.18 3.09 3.05 2.94 2.68 2.57
1533.538 2.57 2.56 2.56 2.61 2.55 2.4 2.4 2.38 2.22 2.2
1552.827 2.22 2.26 2.26 2.13 2.2 2.13 1.94 1.99 2.04 2.11
1572.117 2.02 1.85 1.85 1.83 1.83 1.73 1.71 1.91 1.89 1.77
1591.407 1.81 1.86 1.83 1.84 1.94 2.02 1.89 1.8 1.84 1.98
1610.697 2.09 2.03 2.11 2.28 2.49 2.45 2.4 2.54 2.79 2.88
1629.986 2.79 2.88 3.04 3.3 3.37 3.2 3.19 3.24 3.28 3.3
1649.276 3.26 3.2 3.12 3.1 3.03 2.99 2.87 2.7 2.65 2.6
1668.566 2.58 2.46 2.14 1.92 1.87 1.73 1.68 1.72 1.68 1.7
1687.856 1.69 1.66 1.69 1.63 1.6 1.62 1.64 1.66 1.66 1.57
1707.146 1.56 1.58 1.61 1.63 1.63 1.69 1.6 1.61 1.76 1.64
1726.435 1.55 1.64 1.55 1.58 1.68 1.64 1.58 1.6 1.65 1.7
1745.725 1.59 1.49 1.56 1.6 1.64 1.66 1.7 1.67 1.65 1.68
1765.015 1.68 1.77 1.75 1.65 1.75 1.78 1.73 1.72 1.67 1.67
1784.305 1.71 1.73 1.77 1.8 1.78 1.85 1.82 1.71 1.7 1.75
1803.594 1.82 1.8 1.75 1.77 1.8 1.86 1.94 2.01 2.06 2.01
1822.884 2.05 2.1 2.09 2.16 2.26 2.3 2.24 2.31 2.42 2.45
1842.174 2.46 2.49 2.54 2.51 2.49 2.47 2.38 2.3 2.31 2.28
1861.464 2.16 2.01 2.01 1.98 1.97 2.01 2.02 2.08 2.1 2.15
1880.754 2.2 2.26 2.31 2.33 2.39 2.42 2.47 2.55 2.64 2.65
1900.043 2.68 2.81 2.82 2.76 2.8 2.8 2.82 2.8 2.79 2.84
1919.333 2.85 2.84 2.77 2.7 2.82 2.81 2.77 2.81 2.75 2.71
1938.623 2.68 2.72 2.71 2.64 2.58 2.55 2.59 2.51 2.5 2.59
1957.913 2.58 2.61 2.64 2.69 2.78 2.74 2.74 2.79 2.81 2.86
1977.202 2.85 2.94 3.07 3.05 3.03 3.05 3.06 3.06 3.08 3.09
1996.492 3.13 3.06 2.93 2.97 3.03 3.03 2.95 2.96 3 3.06
2015.782 3.16 3.19 3.19 3.18 3.14 3.03 3.02 3.01 2.96 2.98
2035.072 2.94 2.77 2.74 2.86 2.8 2.67 2.66 2.7 2.69 2.66
2054.362 2.59 2.54 2.53 2.62 2.68 2.59 2.58 2.58 2.66 2.68
2073.651 2.7 2.7 2.6 2.59 2.67 2.79 2.7 2.64 2.63 2.61
2092.941 2.7 2.72 2.71 2.74 2.77 2.78 2.67 2.54 2.59 2.59
2112.231 2.49 2.44 2.48 2.49 2.44 2.41 2.35 2.31 2.37 2.33
2131.521 2.32 2.44 2.44 2.5 2.56 2.47 2.49 2.59 2.56 2.49
2150.810 2.53 2.59 2.59 2.5 2.54 2.56 2.51 2.49 2.39 2.38
2170.100 2.42 2.47 2.42 2.4 2.39 2.32 2.35 2.42 2.43 2.31
2189.390 2.3 2.28 2.25 2.3 2.23 2.3 2.34 2.27 2.3 2.35
2208.680 2.34 2.36 2.34 2.25 2.28 2.3 2.32 2.3 2.31 2.27
2227.970 2.25 2.4 2.46 2.31 2.27 2.35 2.38 2.49 2.57 2.49
2247.259 2.41 2.43 2.47 2.46 2.45 2.33 2.26 2.32 2.29 2.28
2266.549 2.29 2.21 2.13 2.12 2.12 2.21 2.21 2.14 2.21 2.19
2285.839 2.04 1.99 1.99 1.97 1.98 1.93 1.9 1.96 2.09 2.1
2305.129 1.94 2.02 2.05 1.94 1.97 1.91 1.91 2.02 1.98 2.02
2324.418 2.1 1.99 1.89 1.95 1.9 1.85 1.85 1.8 1.84 1.78
2343.708 1.72 1.77 1.77 1.75 1.79 1.81 1.78 1.81 1.9 1.97
2362.998 1.88 1.82 1.89 1.81 1.81 1.83 1.83 1.92 2.02 2.08
2382.288 2.07 2.02 1.99 2 2.02 2 1.94 1.91 1.92 2.02
2401.578 2.04 2.05 2.05 2.03 2.01 1.86 1.91 1.88 1.79 1.76
2420.867 1.72 1.71 1.67 1.8 1.81 1.73 1.74 1.71 1.77 1.76
2440.157 1.68 1.57 1.52 1.61 1.61 1.6 1.69 1.68 1.64 1.66
2459.447 1.77 1.86 1.83 1.82 1.83 1.88 1.83 1.82 1.9 1.97
2478.737 1.97 1.99 1.94 1.94 2.05 1.99 2 1.99 1.97 2.12
2498.026 2.09 1.94 1.94 1.9 1.99 2.11 2.08 2.1 2.23 2.22
2517.316 2.15 2.17 2.08 2.02 2.14 2.18 2.18 2.22 2.18 2.29
2536.606 2.28 2.19 2.24 2.2 2.13 2.29 2.36 2.36 2.44 2.42
2555.896 2.38 2.43 2.58 2.5 2.4 2.42 2.54 2.57 2.55 2.65
2575.186 2.64 2.74 2.9 2.92 3.08 3.3 3.4 3.39 3.36 3.57
2594.475 3.76 3.88 4.05 4.29 4.46 4.6 4.8 4.93 5.13 5.22
2613.765 5.19 5.38 5.6 5.72 5.82 5.94 6.13 6.36 6.47 6.6
2633.055 6.89 7.17 7.5 7.92 8.25 8.49 8.83 9.08 9.38 9.75
2652.345 10.03 10.33 10.41 10.36 10.62 10.73 10.52 10.38 10.39 10.33
2671.634 10.22 10.14 9.98 9.95 10 9.96 9.82 9.85 9.92 9.86
2690.924 9.93 9.87 9.88 10.02 10.05 10.05 10.03 10.06 10.3 10.51
2710.214 10.6 10.67 10.73 10.86 10.98 11.27 11.39 11.55 12.04 12.16
2729.504 12.21 12.42 12.42 12.53 12.68 12.64 12.73 12.76 12.73 12.69
2748.794 12.53 12.52 12.51 12.45 12.49 12.58 12.8 13.02 13.14 13.26
2768.083 13.52 14.08 14.55 14.95 15.52 16.17 17.04 18.08 18.89 19.47
2787.373 20.15 20.84 21.39 21.64 21.86 22.16 22.38 22.49 22.63 23.01
2806.663 23.43 23.93 24.76 25.69 26.58 27.78 29.26 31.03 33.04 35.17
2825.953 37.51 40.45 43.82 47.48 51.91 57.15 63.32 70.41 78.25 86.62
2845.242 95.1 103.7 112.66 122.63 134.27 147.79 162.74 177.63 190.52 200.39
2864.532 206.93 209.64 209.14 206.55 202.06 196.37 190.1 183.08 175.55 167.46
2883.822 159.12 151.58 145.59 141.53 140.02 141 144.25 149.86 157.06 165.85
2903.112 175.43 184.9 194.12 202.65 211.18 220.31 230.69 243.33 258.67 277.29
2922.401 299.74 325.65 353.5 381.98 409.18 433.37 454.01 471.27 484.86 495.08
2941.691 502.88 507.04 509.08 505.62 489.25 461.58 425.3 386.13 351.55 321.71
2960.981 294.3 268.85 246.59 229.73 217.38 204.77 188.13 167.52 144.54 122.04
2980.271 103 87.43 74.27 63.36 54.7 47.75 42.19 37.74 33.98 31.02
2999.561 29.03 27.76 26.99 26.84 27.22 27.75 28.21 28.08 26.77 24.47
3018.850 21.73 18.95 16.59 14.74 13.39 12.26 11.28 10.41 9.59 9.14
3038.140 8.74 8.2 7.8 7.49 7.24 7.1 6.81 6.64 6.48 6.19
3057.430 5.9 5.69 5.69 5.6 5.21 4.96 4.89 4.88 4.76 4.63
3076.720 4.61 4.42 4.28 4.19 3.99 3.71 3.57 3.58 3.5 3.37
3096.009 3.34 3.17 2.89 2.74 2.61 2.48 2.51 2.59 2.6 2.49
3115.299 2.55 2.59 2.36 2.18 2.04 2.11 2.12 2.14 2.22 2.13
3134.589 2.27 2.34 2.23 2.08 2.07 2.13 2.08 1.98 1.86 2.12
3153.879 2.19 2.07 2.12 2.09 1.91 1.81 1.81 1.9 1.88 1.93
3173.169 1.97 1.81 1.82 1.83 1.88 1.79 1.59 1.61 1.69 1.71
3192.458 1.55 1.67 1.81 1.5 1.41 1.5 1.43 1.31 1.28 1.35
3211.748 1.28 1.18 1.27 1.3 1.22 1.27 1.25 1.24 1.34 1.14
3231.038 0.9265 0.9167 0.9134 0.9568 0.9847 0.95 1.06 1.21 1.28 1.11
3250.328 1.02 1.11 1.21 1.22 1.04 1.04 1.11 0.925 0.7546 0.8839
3269.617 1 1.1 1.06 0.7775 0.7084 0.8478 0.8587 0.7426 0.7478 0.9125
3288.907 0.9936 0.9448 0.8575 0.829 0.923 0.9394 0.6657 0.4436 0.5755 0.6642
3308.197 0.8606 0.8259 0.6729 0.829 0.8284 0.7857 0.7629 0.7187 0.7818 0.8975
3327.487 0.6788 0.7576 0.9994 0.8436 0.8317 0.8245 0.8812 0.8709 0.7984 0.7936
3346.777 0.771 0.7712 0.7375 0.6629 0.6181 0.7551 0.946 0.8763 0.7077 0.6566
3366.066 0.6701 0.567 0.4985 0.5971 0.6185 0.6371 0.7916 0.8217 0.6352 0.5802
3385.356 0.7549 0.7161 0.5542 0.5412 0.6579 0.7399 0.6086 0.7422 0.675 0.6322
3404.646 0.8089 0.8353 0.8432 0.7385 0.6853 0.7003 0.792 0.814 0.862 0.715
3423.936 0.4367 0.5811 0.6364 0.3958 0.4455 0.5539 0.6023 0.4854 0.285 0.3966
3443.225 0.542 0.5729 0.5248 0.5545 0.6901 0.6892 0.7316 0.7911 0.7884 0.8451
3462.515 0.8521 0.818 0.7254 0.7736 0.7356 0.6923 0.6406 0.5946 0.6166 0.6401
3481.805 0.6915 0.7337 0.7269 0.5819 0.4988 0.5439 0.5559 0.5337 0.6076 0.6656
3501.095 0.6422 0.7313 0.8096 0.6655 0.6699 0.7452 0.5493 0.4249 0.4601 0.4475
3520.385 0.6061 0.521 0.4828 0.7285 0.6852 0.744 0.7029 0.532 0.6248 0.6123
3539.674 0.257 0.2015 0.5144 0.6 0.4031 0.318 0.5274 0.6144 0.6553 0.5741
3558.964 0.3784 0.5009 0.5688 0.3298 0.3082 0.4915 0.4419 0.3192 0.4059 0.6167
3578.254 0.7585 0.618 0.5169 0.58 0.538 0.4454 0.3638 0.3464 0.3571 0.4935
3597.544 0.6191 0.6565 0.8325 0.8269 0.8011 0.7932 0.6417 0.7985 0.8868 0.6879
3616.833 0.5839 0.6832 0.7822 0.7844 0.8002 0.7722 0.8392 0.8242 0.7534 0.7582
3636.123 0.8507 0.9544 1.16 1.16 0.9107 0.7716 0.7377 0.7858 0.8556 1.12
3655.413 1.2 1.3 1.35 1.15 1.17 1.29 1.35 1.39 1.24 1.45
3674.703 1.59 1.25 1.18 1.17 1.09 1.04 0.9888 0.9342 0.9601 1.16
3693.993 1.12 1.09 1.04 0.8168 0.9468 0.9542 0.9835 1.06 0.9496 0.881
3713.282 0.9057 1.12 1.07 1.04 1.11 1.02 0.7684 0.596 0.8962 1.2
3732.572 1.26 1.21 1.07 0.9778 1.13 1.15 1.32 1.24 1.06 1.33
3751.862 1.29 1.25 1.4 1.28 1.18 1.26 1.37 1.38 1.29 1.46
3771.152 1.38 1.12 1.22 1.25 1.3 1.31 1.19 1.29 1.41 1.48
3790.441 1.46 1.33 1.28 1.23 1.12 1.25 1.27 1.3 1.38 1.44
3809.731 1.62 1.46 1.39 1.34 1.26 1.28 1.39 1.52 1.3 1.27
3829.021 1.24 0.9458 1.16 1.31 1.33 1.41 1.3 1.34 1.31 1.36
3848.311 1.56 1.77 1.58 1.28 1.39 1.45 1.51 1.7 1.75 1.48
3867.601 1.3 1.16 1.12 1.3 1.35 1.32 1.44 1.55 1.55 1.5
3886.890 1.66 1.73 1.47 1.49 1.47 1.54 1.63 1.74 1.9 1.92
3906.180 1.8 1.58 1.73 1.89 1.88 1.86 1.83 1.77 1.84 1.68
3925.470 1.55 1.66 1.8 1.93 1.66 1.62 1.82 1.68 1.72 1.92
3944.760 1.99 1.97 2.05 2.15 2.06 2.07 2.13 2.06 1.87 1.87
3964.049 2.12 1.99 1.78 1.99 2.06 2.02 1.95 1.8 2 2.23
3983.339 2.16 2.2 2.02 1.91 2.2 2.01 2.01 2.35 2.23 2.28
##END=
