##TITLE=3-(Trifluoromethoxy)benzyl alcohol
##JCAMP-DX=4.24
##DATA TYPE=INFRARED SPECTRUM
##ORIGIN=EPA-IR VAPOR PHASE LIBRARY
##OWNER=SRD/NIST
Collection (C) 2018 copyright by the U.S. Secretary of Commerce
on behalf of the United States of America. All rights reserved.
##CAS REGISTRY NO=50823-90-0
##MOLFORM=C 8 H 7 F 3 O 2
##$NIST SOURCE=MSDC-IR
##STATE=gas
##XUNITS=1/CM
##YUNITS=ABSORBANCE
##XFACTOR=1.
##YFACTOR=0.001
##DELTAX=1.92898
##FIRSTX=549.8
##LASTX=4000.7
##FIRSTY=4.031
##MAXX=4000.7
##MINX=549.759
##MAXY=0.953531
##MINY=0
##NPOINTS=1790
##XYDATA=(X++(Y..Y))
549.759 4.031 4.961 4.851 4.461 4.081 3.461 3.571 3.581 3.971 4.051
569.049 3.661 4.461 4.461 3.921 3.691 4.241 4.531 3.771 3.921 4.791
588.339 5.161 4.701 4.771 5.211 5.601 6.111 6.371 6.821 7.391 8.001
607.628 8.221 8.731 9.421 9.331 10.051 11.651 12.861 14.611 17.091 19.961
626.918 23.111 26.551 28.801 29.531 29.931 29.251 27.441 24.111 19.441 15.281
646.208 12.421 10.641 9.491 8.681 7.571 6.921 6.951 6.641 6.331 6.381
665.498 6.051 6.231 6.911 7.531 8.501 9.621 11.241 13.091 15.441 17.641
684.787 20.011 23.161 25.671 27.921 30.411 32.251 33.361 33.771 33.521 32.311
704.077 29.771 27.161 24.891 22.051 19.281 16.801 14.711 13.161 11.811 10.641
723.367 9.441 8.801 8.751 8.361 8.231 8.561 8.801 9.081 9.151 9.271
742.657 9.731 10.801 11.721 12.511 13.641 14.641 15.361 15.921 16.611 16.951
761.947 17.061 17.241 17.501 18.111 18.721 19.501 20.811 21.911 23.451 25.541
781.236 27.331 28.891 30.351 31.681 32.441 31.931 30.631 29.021 26.751 24.221
800.526 21.531 18.281 15.581 13.521 11.251 9.901 9.001 7.671 6.781 6.051
819.816 5.751 5.891 5.611 5.311 5.701 5.981 5.861 5.841 6.571 7.401
839.106 8.001 9.051 10.321 11.591 12.941 15.021 17.421 19.711 22.271 25.091
858.395 27.501 29.041 29.751 30.621 30.691 29.331 27.791 26.601 25.251 23.981
877.685 22.691 21.271 20.111 18.731 17.511 16.241 15.131 14.361 13.221 12.151
896.975 11.511 11.031 10.601 10.291 10.021 9.751 9.291 8.951 8.841 8.591
916.265 8.481 8.621 8.741 9.211 9.331 9.141 9.271 9.421 9.661 9.871
935.555 10.451 10.901 11.211 12.311 12.941 13.191 13.931 14.961 15.971 16.991
954.844 18.401 19.561 20.351 21.141 22.061 22.611 23.261 23.811 24.161 24.221
974.134 23.831 23.971 23.761 23.431 23.391 22.981 22.971 23.191 23.791 24.861
993.424 26.781 28.511 30.231 32.561 33.971 35.511 37.431 39.131 39.701 39.671
1012.714 40.551 42.091 43.881 45.781 47.551 49.531 50.881 51.951 53.721 55.571
1032.003 56.451 56.331 56.811 56.551 55.031 53.401 51.591 50.311 48.421 46.261
1051.293 43.871 41.011 39.571 38.601 37.351 35.311 32.721 30.601 29.051 27.731
1070.583 25.781 23.631 22.901 22.971 22.331 21.221 19.901 18.431 17.821 17.221
1089.873 16.821 17.541 17.491 16.831 16.731 16.291 16.521 16.491 15.991 15.661
1109.163 16.121 16.941 17.451 19.091 19.701 19.641 21.861 23.751 26.131 29.041
1128.452 29.911 32.081 36.201 40.611 43.911 47.851 52.491 57.041 61.741 66.881
1147.742 71.121 76.411 82.791 88.301 95.931 104.541 114.401 126.361 139.841 155.481
1167.032 174.121 195.241 217.751 242.781 268.311 294.071 322.181 346.741 369.721 389.461
1186.322 397.861 398.391 389.871 374.151 354.481 333.051 314.611 303.561 301.061 307.101
1205.611 323.911 348.091 378.371 416.711 456.381 498.021 536.351 566.141 585.321 590.511
1224.901 582.981 560.551 530.651 491.581 448.621 412.911 388.031 373.271 368.231 374.291
1244.191 393.131 420.321 454.901 500.521 552.131 611.131 678.831 751.001 821.011 878.281
1263.481 927.061 952.591 953.531 931.531 873.551 792.821 700.231 599.741 496.701 402.101
1282.771 323.211 262.991 219.421 187.781 163.901 144.871 129.991 118.021 107.491 98.021
1302.060 89.761 82.441 75.691 69.791 64.681 60.171 56.151 52.521 49.201 46.321
1321.350 43.791 41.411 39.171 37.221 35.421 33.621 32.121 30.731 29.321 28.121
1340.640 27.021 25.921 25.021 24.411 23.931 23.551 23.321 23.371 23.661 24.081
1359.930 24.771 25.481 26.221 27.251 28.171 29.011 29.941 30.791 31.251 31.341
1379.219 31.251 30.761 29.771 28.651 27.651 26.381 25.131 24.241 23.261 22.341
1398.509 21.671 20.861 20.181 19.691 19.101 18.411 17.841 17.551 17.111 16.691
1417.799 16.481 16.461 16.361 16.371 16.781 17.451 18.651 20.351 22.551 25.711
1437.089 29.611 34.081 39.121 43.921 47.961 50.571 51.531 50.771 48.311 44.831
1456.378 40.511 35.951 32.741 30.591 29.161 28.091 27.381 27.191 26.971 26.961
1475.668 27.411 28.631 30.831 34.111 38.301 42.611 46.151 48.291 48.751 47.271
1494.958 44.691 41.011 35.921 30.441 25.591 21.611 18.481 16.071 14.191 12.681
1514.248 11.361 10.461 9.641 9.091 8.821 8.291 7.961 7.971 7.761 7.541
1533.538 7.581 7.461 7.561 7.841 8.011 8.351 8.771 9.021 9.091 9.241
1552.827 9.631 10.101 10.551 11.311 11.911 12.281 12.821 13.451 14.301 15.491
1572.117 16.971 18.781 20.871 23.571 26.661 30.021 33.701 37.201 40.261 42.541
1591.407 43.791 44.141 43.601 42.101 40.011 38.031 36.641 35.871 35.571 35.301
1610.697 34.691 33.431 31.731 29.381 26.131 22.521 19.051 16.101 13.401 11.201
1629.986 9.721 8.481 7.531 6.901 6.351 5.941 5.651 5.481 5.481 5.431
1649.276 5.371 5.291 5.051 4.811 4.721 4.701 4.621 4.641 4.611 4.261
1668.566 4.171 4.191 3.891 3.821 3.721 3.651 3.791 3.671 3.471 3.441
1687.856 3.641 3.821 3.811 3.731 3.601 3.531 3.601 3.721 3.571 3.321
1707.146 3.131 3.101 3.321 3.401 3.381 3.431 3.311 3.251 3.351 3.331
1726.435 3.261 3.351 3.281 3.171 3.241 3.291 3.451 3.611 3.511 3.521
1745.725 3.761 3.831 3.851 4.001 4.001 4.131 4.271 4.301 4.471 4.341
1765.015 4.321 4.531 4.561 4.571 4.601 4.581 4.441 4.451 4.501 4.291
1784.305 4.111 4.181 4.121 3.831 3.691 3.531 3.501 3.391 3.241 3.141
1803.594 2.941 2.771 2.761 2.861 2.901 2.831 2.701 2.661 2.661 2.731
1822.884 2.731 2.761 2.861 2.931 2.931 2.901 2.971 3.011 3.131 3.191
1842.174 3.191 3.251 3.261 3.351 3.411 3.371 3.481 3.671 3.621 3.671
1861.464 3.861 4.021 4.041 4.081 4.031 3.881 3.841 3.751 3.591 3.331
1880.754 3.211 3.121 2.841 2.651 2.701 2.751 2.731 2.771 2.841 2.711
1900.043 2.571 2.831 2.921 2.841 3.011 3.091 3.021 3.121 3.411 3.571
1919.333 3.721 3.791 3.931 4.191 4.331 4.531 4.671 4.591 4.561 4.351
1938.623 4.101 4.031 3.781 3.501 3.211 3.021 2.941 2.631 2.351 2.491
1957.913 2.511 2.401 2.331 2.271 2.421 2.411 2.251 2.281 2.571 2.731
1977.202 2.481 2.491 2.591 2.741 2.811 2.651 2.701 2.881 2.781 2.661
1996.492 2.721 2.671 2.621 2.771 2.821 2.821 2.961 2.771 2.731 3.021
2015.782 2.961 2.961 3.101 3.061 3.171 3.171 3.171 3.271 3.151 3.201
2035.072 3.321 3.161 3.141 3.211 3.281 3.451 3.441 3.351 3.481 3.431
2054.362 3.241 3.311 3.421 3.361 3.171 3.401 3.801 3.891 3.831 3.841
2073.651 3.911 4.001 4.111 4.131 3.891 3.821 3.871 3.781 3.671 3.601
2092.941 3.621 3.521 3.541 3.771 3.821 3.691 3.711 3.801 3.881 3.891
2112.231 3.871 3.861 3.821 3.961 4.211 4.221 4.161 4.171 4.101 3.901
2131.521 3.791 3.691 3.541 3.511 3.431 3.261 3.151 2.951 2.671 2.461
2150.810 2.431 2.481 2.321 2.021 1.941 2.041 1.891 2.001 2.031 1.791
2170.100 1.791 1.811 1.851 1.811 1.801 1.891 2.041 2.071 1.731 1.561
2189.390 1.561 1.641 1.731 1.661 1.671 1.921 1.971 1.771 1.771 1.731
2208.680 1.821 1.921 1.851 1.861 1.831 1.791 1.781 1.771 1.771 1.701
2227.970 1.661 1.711 1.631 1.411 1.381 1.491 1.331 1.371 1.521 1.351
2247.259 1.351 1.481 1.511 1.531 1.581 1.651 1.531 1.401 1.441 1.391
2266.549 1.381 1.461 1.461 1.371 1.281 1.441 1.731 1.721 1.731 1.731
2285.839 1.631 1.581 1.651 1.681 1.521 1.481 1.441 1.341 1.581 1.791
2305.129 1.681 1.561 1.671 1.731 1.791 1.941 1.811 1.901 1.931 1.801
2324.418 1.831 1.841 1.841 1.951 2.011 2.031 2.241 2.291 2.191 2.371
2343.708 2.351 2.301 2.481 2.701 2.651 2.321 2.031 2.061 2.241 2.301
2362.998 2.301 2.141 2.231 2.421 2.421 2.521 2.421 2.391 2.561 2.531
2382.288 2.591 2.761 2.671 2.691 2.891 3.051 3.101 3.001 3.071 3.211
2401.578 3.201 3.101 3.081 3.091 3.201 3.311 3.291 3.331 3.391 3.281
2420.867 3.341 3.371 3.471 3.681 3.891 4.171 4.561 4.961 5.191 5.291
2440.157 5.291 5.381 5.531 5.481 5.331 5.131 5.011 4.951 4.931 4.951
2459.447 4.911 4.881 4.871 4.931 5.121 5.261 5.411 5.551 5.461 5.521
2478.737 5.691 5.781 5.871 6.011 6.001 5.901 5.791 5.521 5.631 5.351
2498.026 4.781 4.721 4.551 4.401 4.381 4.231 3.851 3.431 3.401 3.411
2517.316 3.321 3.311 3.281 3.131 3.071 2.991 2.681 2.551 2.711 2.731
2536.606 2.551 2.271 2.321 2.461 2.441 2.391 2.331 2.251 2.011 1.831
2555.896 1.671 1.721 1.771 1.711 1.671 1.511 1.491 1.521 1.451 1.391
2575.186 1.331 1.451 1.511 1.451 1.471 1.311 1.411 1.461 1.1684 1.2373
2594.475 1.301 1.351 1.381 1.441 1.301 1.125 1.321 1.1516 0.8942 1.1884
2613.765 1.521 1.451 1.341 1.261 1.1887 1.2192 1.2097 1.0491 1.0716 1.0773
2633.055 0.9063 1.0113 1.261 1.351 1.321 1.138 1.1021 1.1247 1.0804 1.2234
2652.345 1.2412 1.1659 1.1156 1.0646 1.1755 1.165 1.0256 1.2095 1.2357 0.8897
2671.634 0.9747 1.1309 1.0268 1.1638 1.331 1.311 1.291 1.2306 1.451 1.481
2690.924 1.391 1.581 1.861 1.751 1.571 1.691 1.631 1.541 1.631 1.771
2710.214 1.621 1.611 1.631 1.681 1.841 1.781 1.791 1.851 1.991 2.091
2729.504 2.001 1.821 1.631 1.511 1.441 1.681 1.631 1.691 2.001 2.071
2748.794 2.121 1.981 2.111 2.081 1.951 1.791 1.911 2.341 2.321 2.161
2768.083 1.981 2.031 2.051 1.981 1.951 2.121 2.391 2.421 2.321 2.341
2787.373 2.741 2.781 2.441 2.701 2.941 2.861 3.041 2.921 2.991 3.531
2806.663 3.671 3.581 3.621 3.651 3.811 3.861 4.001 4.381 4.371 4.431
2825.953 4.751 5.061 5.491 5.561 5.851 6.211 6.441 6.921 7.201 7.531
2845.242 7.961 8.601 9.171 9.791 10.371 10.581 11.031 11.751 12.381 13.401
2864.532 14.351 15.061 15.711 16.721 17.991 19.021 19.981 20.931 22.081 22.891
2883.822 23.551 23.761 23.501 23.071 22.751 22.471 21.661 21.011 20.851 20.701
2903.112 20.251 19.581 19.131 18.781 18.541 18.261 18.251 18.471 18.541 18.581
2922.401 18.651 18.571 18.641 18.931 19.061 19.301 19.221 19.001 18.801 18.271
2941.691 17.681 17.551 17.661 16.931 16.281 15.841 15.451 15.251 14.571 13.861
2960.981 13.331 12.571 11.701 10.961 10.671 10.161 9.251 8.821 8.371 7.561
2980.271 6.881 6.461 6.131 5.691 5.361 5.071 4.671 4.391 3.871 3.631
2999.561 3.591 3.261 3.261 3.451 3.431 3.331 3.161 3.291 3.691 3.961
3018.850 4.001 4.221 4.631 4.721 5.081 5.751 6.391 6.951 7.351 7.641
3038.140 8.201 9.011 9.561 9.861 10.171 10.181 10.101 10.591 10.971 10.921
3057.430 10.781 10.541 10.621 10.821 10.941 11.251 11.291 11.601 11.861 11.841
3076.720 11.531 11.471 11.641 11.221 10.491 9.681 9.131 8.361 7.491 6.681
3096.009 5.911 5.711 5.311 4.751 4.361 4.051 3.531 3.151 3.061 2.981
3115.299 2.561 2.041 2.201 2.291 1.791 1.501 1.611 1.481 1.261 1.281
3134.589 1.391 1.371 1.0772 0.8107 0.9301 0.8587 0.6573 1.0006 1.1101 0.8427
3153.879 0.9198 1.0891 0.7077 0.5585 0.7028 0.6836 1.1326 1.311 1.2215 1.1365
3173.169 0.9714 0.7933 0.5663 0.7818 0.9704 0.945 0.783 1.0575 0.8319 0.4035
3192.458 0.5837 0.7787 0.9216 0.9047 0.88 0.8782 1.261 1.421 1.0679 0.8256
3211.748 0.9759 0.9404 0.8054 0.8534 0.8665 0.9266 0.7045 0.485 0.6881 0.813
3231.038 0.9869 0.7314 0.4887 0.5618 0.6783 0.8495 0.9132 1.177 1.042 0.5234
3250.328 0.097 0 0.4926 0.8297 1.0226 1.1423 0.892 0.4753 0.8343 1.0543
3269.617 0.5748 0.624 0.6397 0.7073 1.0547 0.7709 0.6551 0.8408 0.9687 0.8585
3288.907 0.8154 1.1707 0.7558 0.6748 1.0064 0.7106 0.6749 1.0372 0.7779 0.6467
3308.197 0.6711 0.5571 0.7528 1.0088 1.1054 0.891 0.8213 0.7993 0.6776 0.6318
3327.487 0.7464 0.7118 0.5144 0.7099 0.9354 1.2098 1.2074 0.8946 0.7279 0.9349
3346.777 1.1995 1.0594 0.8622 1.016 0.9407 1.0789 1.661 1.441 1.1586 1.1026
3366.066 1.0052 1.0146 1.056 1.261 1.661 1.621 1.361 1.1353 1.321 1.601
3385.356 1.391 1.431 1.291 0.8851 1.0028 1.1899 0.9887 0.7287 0.6206 0.6897
3404.646 0.9424 1.481 1.461 0.9902 1.1306 1.321 1.371 1.301 0.7715 0.9403
3423.936 1.531 1.651 1.541 1.421 1.371 1.361 1.681 1.941 1.921 1.331
3443.225 0.6401 0.843 0.9095 0.7715 0.7348 1.1224 1.721 1.281 0.886 1.2178
3462.515 1.531 1.401 0.9619 0.9677 1.1248 1.451 1.561 1.621 1.761 1.271
3481.805 1.311 1.751 1.861 1.691 1.691 1.511 1.481 1.661 1.381 1.1778
3501.095 1.551 1.841 1.471 0.985 1.2194 1.371 1.214 1.251 1.0206 1.0913
3520.385 0.8686 0.7588 1.2007 1.561 1.661 1.921 2.041 1.591 1.0647 1.1743
3539.674 1.311 1.0431 1.461 1.731 1.621 1.441 1.291 1.481 1.331 1.0275
3558.964 1.251 1.371 1.431 1.561 1.2256 0.8879 0.9303 0.9512 1.1522 1.581
3578.254 1.741 1.441 1.521 1.611 1.501 1.871 1.761 1.471 1.701 1.711
3597.544 1.551 1.681 1.981 2.811 3.191 2.711 2.731 2.981 3.341 3.921
3616.833 4.091 4.171 4.631 4.661 4.881 5.471 5.861 6.691 7.251 7.901
3636.123 8.821 9.311 10.331 11.741 12.761 13.741 14.561 15.471 16.331 16.471
3655.413 16.651 16.771 17.231 17.481 17.011 16.741 16.321 15.641 14.851 14.161
3674.703 13.471 12.731 11.371 10.331 10.311 9.681 8.541 7.811 7.791 7.481
3693.993 6.191 5.421 5.201 4.731 4.251 3.771 3.571 3.291 3.141 2.631
3713.282 2.351 2.721 2.211 2.211 2.481 2.071 2.021 2.071 2.111 1.971
3732.572 2.061 2.201 1.721 1.361 1.531 1.421 1.391 1.861 1.671 1.831
3751.862 2.121 1.881 1.821 1.591 1.1532 1.0142 1.0516 0.8772 0.8824 1.271
3771.152 1.391 1.301 1.421 1.411 1.601 1.831 1.531 1.491 1.501 1.261
3790.441 1.0088 1.1255 1.551 1.841 2.001 1.841 1.701 1.681 1.681 1.441
3809.731 1.251 1.531 1.571 1.1401 1.0031 1.291 0.9732 0.8648 1 1.2139
3829.021 1.581 1.661 1.691 1.451 1.521 1.751 1.661 1.351 1.581 1.961
3848.311 2.031 1.801 1.611 1.531 1.2125 1.1166 1.271 1.0805 1.0816 1.391
3867.601 1.671 1.751 1.491 1.331 1.571 1.951 1.701 1.691 1.671 1.811
3886.890 2.241 1.911 1.571 1.601 1.681 1.761 2.161 2.081 1.401 1.411
3906.180 1.661 1.301 0.9507 1.291 2.041 1.741 0.6372 0.7271 0.9252 0.7765
3925.470 1.381 1.991 1.611 1.361 1.411 1.1404 1.1001 0.9544 0.7826 0.9773
3944.760 1.2155 0.9839 0.4622 0.6999 0.8928 0.26127 0.143 1.0708 1.1985 0.7545
3964.049 0.8044 0.8196 0.8845 1.0193 1.1558 1.411 1.501 1.2259 0.7661 0.6933
3983.339 1.2091 1.2064 1.371 1.0322 0.897 1.0658 0.9189 1.006 0.8552 0.6778
##END=
