##TITLE=trans-1,1,3,5-Tetramethylcyclohexane
##JCAMP-DX=4.24
##DATA TYPE=INFRARED SPECTRUM
##ORIGIN=NIST Mass Spectrometry Data Center
##OWNER=NIST Standard Reference Data Program
Collection (C) 2018 copyright by the U.S. Secretary of Commerce
on behalf of the United States of America. All rights reserved.
##CAS REGISTRY NO=50876-31-8
##MOLFORM=C 10 H 20
##$NIST SOURCE=MSDC-IR
##SPECTROMETER/DATA SYSTEM=HP-GC/MS/IRD
##STATE=gas
##XUNITS=1/CM
##YUNITS=ABSORBANCE
##XFACTOR=1.0
##YFACTOR=0.000004900
##DELTAX=4.0
##FIRSTX=550.0
##LASTX=3846.0
##FIRSTY=0.000309
##MAXX=3846
##MINX=550
##MAXY=0.049
##MINY=0
##NPOINTS=825
##XYDATA=(X++(Y..Y))
550.0 63 74 69 63 75 73 47 38 38 41
590.0 38 34 38 29 16 22 36 42 52 50
630.0 37 39 40 29 19 21 29 38 27 4
670.0 14 23 32 30 30 34 28 34 34 29
710.0 25 22 29 22 20 34 20 9 24 23
750.0 19 23 22 20 24 25 20 27 17 4
790.0 12 15 23 28 23 36 48 39 35 42
830.0 51 62 74 81 101 122 126 124 120 109
870.0 92 75 59 48 39 32 30 30 39 51
910.0 64 79 92 100 110 115 113 101 83 79
950.0 71 54 52 67 73 73 80 84 79 71
990.0 61 52 45 42 39 35 39 38 37 48
1030.0 47 40 43 47 44 35 36 42 54 58
1070.0 56 55 61 61 53 50 40 44 53 67
1110.0 79 80 80 78 75 65 56 52 53 61
1150.0 71 85 98 108 121 139 158 173 187 193
1190.0 193 178 148 133 131 125 118 121 133 138
1230.0 148 160 172 197 208 210 209 208 202 183
1270.0 163 154 151 149 152 155 150 147 147 143
1310.0 141 142 148 163 188 230 282 333 377 423
1350.0 477 532 604 674 791 885 911 994 1083 1047
1390.0 920 747 539 361 239 183 167 169 194 246
1430.0 312 395 503 646 825 1019 1189 1369 1463 1374
1470.0 1219 1040 840 654 486 356 258 189 144 114
1510.0 90 76 66 57 45 38 39 36 35 36
1550.0 35 35 37 34 30 31 31 26 29 32
1590.0 35 37 36 36 38 40 38 36 36 34
1630.0 35 34 31 28 30 30 26 30 31 31
1670.0 32 32 31 31 29 28 30 28 28 27
1710.0 24 24 25 21 23 27 25 26 26 31
1750.0 40 45 48 47 45 42 38 31 27 25
1790.0 23 18 16 11 7 11 13 13 12 11
1830.0 12 12 9 9 10 10 6 6 10 14
1870.0 13 13 12 11 14 8 7 9 9 10
1910.0 9 8 4 7 6 7 4 1 2 3
1950.0 5 5 5 4 4 5 4 6 8 7
1990.0 6 6 4 6 5 7 10 7 4 6
2030.0 8 7 4 1 0 4 5 6 8 5
2070.0 4 3 4 4 2 0 0 3 5 6
2110.0 5 8 12 10 12 14 11 11 10 9
2150.0 9 10 13 13 10 9 9 9 12 13
2190.0 13 8 8 12 11 7 6 5 8 8
2230.0 4 6 4 6 6 7 7 8 9 9
2270.0 8 8 9 5 4 6 11 15 17 20
2310.0 16 11 7 7 7 7 10 16 16 15
2350.0 14 8 8 8 9 9 12 11 5 8
2390.0 13 16 17 15 16 22 24 21 19 21
2430.0 23 24 21 19 25 27 24 24 20 17
2470.0 20 23 23 24 21 18 20 23 24 22
2510.0 20 22 22 24 26 23 27 26 27 33
2550.0 33 32 34 31 36 42 44 48 51 55
2590.0 56 55 58 61 66 75 84 88 93 97
2630.0 103 107 102 102 99 94 97 100 102 108
2670.0 111 114 112 113 120 122 126 134 142 148
2710.0 152 162 177 191 199 204 205 196 189 184
2750.0 179 172 169 174 174 178 192 207 216 227
2790.0 246 267 292 324 363 414 478 557 664 809
2830.0 1023 1323 1693 2067 2380 2566 2625 2661 2776 3052
2870.0 3454 3920 4368 4743 5105 5578 6191 6941 7800 8602
2910.0 9088 9139 8748 7914 7021 6345 5849 5660 5974 6828
2950.0 8006 9389 10000 9061 7486 5683 3876 2672 2096 1808
2990.0 1625 1466 1256 1015 799 612 469 366 303 269
3030.0 244 232 220 207 202 196 187 179 176 177
3070.0 173 172 176 177 174 176 180 166 147 144
3110.0 143 136 142 147 140 135 133 129 124 116
3150.0 105 107 114 115 114 115 118 117 119 119
3190.0 110 104 103 97 91 90 88 83 72 64
3230.0 62 60 59 56 51 50 48 40 30 30
3270.0 29 32 34 29 25 25 28 33 35 39
3310.0 43 34 28 31 33 44 45 45 45 36
3350.0 36 34 38 45 47 45 34 27 31 34
3390.0 28 25 24 28 34 25 19 25 28 25
3430.0 22 18 13 12 19 21 16 15 16 9
3470.0 12 28 32 22 20 15 13 15 9 6
3510.0 12 17 17 12 7 5 10 6 4 13
3550.0 16 15 14 12 10 7 11 9 4 6
3590.0 17 22 17 11 12 22 24 15 8 11
3630.0 21 23 23 22 18 20 30 27 29 26
3670.0 12 16 21 18 22 25 25 31 28 14
3710.0 15 25 23 23 28 22 20 29 37 32
3750.0 27 28 27 34 31 30 34 36 38 39
3790.0 31 28 39 42 33 30 31 41 45 36
3830.0 35 36 33 33 36
##END=
