##TITLE=5-Methyl-3-hepten-2-one
##JCAMP-DX=4.24
##DATA TYPE=INFRARED SPECTRUM
##ORIGIN=NIST Mass Spectrometry Data Center
##OWNER=NIST Standard Reference Data Program
Collection (C) 2018 copyright by the U.S. Secretary of Commerce
on behalf of the United States of America. All rights reserved.
##CAS REGISTRY NO=5090-16-4
##MOLFORM=C 8 H 14 O
##$NIST SOURCE=MSDC-IR
##SPECTROMETER/DATA SYSTEM=HP-GC/MS/IRD
##STATE=gas
##XUNITS=1/CM
##YUNITS=ABSORBANCE
##XFACTOR=1.0
##YFACTOR=0.000000500
##DELTAX=4.0
##FIRSTX=550.0
##LASTX=3846.0
##FIRSTY=0.000448
##MAXX=3846
##MINX=550
##MAXY=0.005
##MINY=0
##NPOINTS=825
##XYDATA=(X++(Y..Y))
550.0 895 898 862 916 953 863 720 667 743 688
590.0 539 725 842 809 908 837 721 650 491 317
630.0 273 266 155 125 112 126 205 240 223 182
670.0 164 192 232 178 107 109 80 37 61 64
710.0 68 120 100 52 68 69 57 44 106 192
750.0 177 159 155 132 172 234 281 350 362 389
790.0 389 301 270 206 195 244 163 159 199 178
830.0 163 177 245 306 308 249 266 298 288 346
870.0 431 411 294 288 278 296 464 590 635 769
910.0 892 884 889 886 806 686 654 696 791 1012
950.0 1188 1419 1705 1941 2165 2436 2700 2794 2804 2716
990.0 2496 2235 1944 1625 1356 1138 951 893 874 758
1030.0 697 660 547 497 480 450 447 456 471 496
1070.0 477 424 460 503 477 460 453 431 393 443
1110.0 527 544 527 538 620 750 847 973 1233 1471
1150.0 1691 1938 2072 2119 2215 2377 2515 2546 2423 2189
1190.0 1831 1522 1358 1233 1224 1240 1337 1587 1910 2443
1230.0 3105 3944 4903 5588 5769 5399 4576 3567 2696 2193
1270.0 2013 1970 2002 2038 2015 1967 1844 1682 1545 1405
1310.0 1298 1262 1268 1307 1371 1515 1751 2006 2440 2948
1350.0 3528 4123 4489 4619 4487 3926 3250 2744 2355 1997
1390.0 1718 1506 1292 1150 1020 946 911 872 955 1079
1430.0 1160 1143 1163 1301 1331 1428 1489 1526 1629 1575
1470.0 1374 1116 960 822 608 431 416 381 293 124
1510.0 131 222 199 197 222 241 229 190 179 248
1550.0 285 267 207 302 394 383 432 481 557 663
1590.0 776 889 1024 1241 1520 1881 2376 3052 3813 4438
1630.0 4732 4536 3913 3015 2166 1620 1372 1429 1535 1715
1670.0 2055 2603 3521 4849 6707 8500 9626 9971 9558 8444
1710.0 7229 6342 5627 5040 4467 3808 3144 2679 2233 1767
1750.0 1409 1171 951 750 602 477 417 363 322 313
1790.0 280 268 233 216 236 197 165 145 122 95
1830.0 100 134 133 70 39 73 94 71 55 20
1870.0 0 42 68 88 87 25 6 48 66 56
1910.0 43 27 16 44 78 76 72 73 66 51
1950.0 66 85 85 83 62 64 69 37 42 39
1990.0 29 69 62 43 69 82 69 69 68 65
2030.0 67 51 37 33 34 56 72 65 42 65
2070.0 82 74 62 50 48 27 31 44 32 20
2110.0 33 57 40 28 63 51 54 72 62 74
2150.0 87 94 95 82 79 65 42 68 79 65
2190.0 59 84 93 76 92 73 44 37 40 53
2230.0 86 107 88 98 127 135 111 89 95 106
2270.0 94 115 111 96 112 110 102 104 121 129
2310.0 123 127 107 106 92 58 87 119 116 116
2350.0 118 126 121 94 94 109 155 202 204 194
2390.0 196 177 194 219 211 222 250 259 226 221
2430.0 238 233 227 222 204 215 257 264 225 216
2470.0 227 213 216 221 218 261 291 266 276 321
2510.0 297 286 317 333 330 321 313 291 325 348
2550.0 319 346 332 284 302 305 334 355 339 343
2590.0 369 388 382 351 338 354 352 377 429 379
2630.0 358 395 399 388 399 415 424 410 381 413
2670.0 432 437 465 463 460 473 459 414 415 455
2710.0 477 435 421 470 516 496 481 545 557 526
2750.0 556 591 576 560 554 549 555 587 586 598
2790.0 638 676 692 690 705 740 778 823 865 917
2830.0 980 996 1061 1171 1301 1498 1749 2119 2531 2895
2870.0 3277 3624 3932 4143 4216 4192 4046 3825 3740 3785
2910.0 3955 4284 4743 5311 5878 6250 6384 6322 6039 5711
2950.0 5601 5803 6337 7320 8785 9863 10000 9330 7884 6045
2990.0 4501 3469 2849 2589 2444 2321 2270 2219 2121 1972
3030.0 1866 1793 1697 1605 1524 1375 1268 1265 1214 1166
3070.0 1102 1024 956 906 926 874 814 801 776 748
3110.0 684 687 664 640 654 652 655 641 602 610
3150.0 593 520 537 591 567 535 543 561 552 534
3190.0 533 498 461 460 443 452 530 463 382 429
3230.0 452 412 413 401 368 391 396 330 357 413
3270.0 368 346 354 333 344 356 393 405 377 355
3310.0 378 399 405 381 346 356 365 358 392 447
3350.0 473 390 335 380 379 427 478 464 419 416
3390.0 381 340 387 392 362 396 430 405 393 354
3430.0 290 336 326 314 310 256 294 294 254 266
3470.0 282 253 277 276 229 204 252 267 247 240
3510.0 176 151 209 202 181 185 201 238 256 225
3550.0 213 238 251 221 148 155 224 209 135 46
3590.0 82 199 215 182 111 95 172 130 147 146
3630.0 98 198 204 156 119 108 200 228 252 236
3670.0 170 198 190 214 187 193 278 226 246 278
3710.0 209 219 275 238 158 183 123 103 135 146
3750.0 198 189 243 260 254 290 315 293 251 252
3790.0 260 230 216 268 322 268 230 233 266 290
3830.0 267 256 245 241 262
##END=
