##TITLE=3,5-Dichlorobenzoic acid
##JCAMP-DX=4.24
##DATA TYPE=INFRARED SPECTRUM
##ORIGIN=EPA-IR VAPOR PHASE LIBRARY
##OWNER=SRD/NIST
Collection (C) 2018 copyright by the U.S. Secretary of Commerce
on behalf of the United States of America. All rights reserved.
##CAS REGISTRY NO=51-36-5
##MOLFORM=C 7 H 4 Cl 2 O 2
##$NIST SOURCE=MSDC-IR
##STATE=gas
##XUNITS=1/CM
##YUNITS=ABSORBANCE
##XFACTOR=1.
##YFACTOR=0.001
##DELTAX=3.85796
##FIRSTX=501.5
##LASTX=4000.7
##FIRSTY=1.153
##MAXX=4000.7
##MINX=501.534
##MAXY=0.059029
##MINY=0
##NPOINTS=908
##XYDATA=(X++(Y..Y))
501.534 1.153 0.9857 1.033 1.1644 1.339 1.589 1.919 2.199 2.569 3.109
540.114 3.739 4.429 5.059 5.529 5.929 6.229 6.379 6.549 7.379 8.599
578.693 9.979 11.149 9.879 7.669 5.969 4.659 3.939 3.229 2.649 2.189
617.273 1.809 1.649 1.689 1.949 2.569 4.179 9.189 16.369 19.819 19.479
655.852 15.169 8.039 3.739 2.289 1.619 1.2476 0.9934 0.9032 0.8268 0.7207
694.432 0.6722 0.6327 0.5852 0.5853 0.6049 0.6891 0.7592 0.7867 0.8391 0.9112
733.011 0.9857 1.1747 1.529 2.019 2.699 3.679 5.019 6.319 7.749 9.069
771.591 8.559 7.169 6.179 5.439 5.589 6.739 9.119 12.589 15.599 16.819
810.170 15.749 12.249 7.919 4.829 3.209 2.489 2.289 2.309 2.359 2.449
848.750 2.559 2.759 3.129 3.509 3.909 4.389 4.919 4.879 3.789 2.719
887.330 2.029 1.579 1.499 1.499 1.489 1.379 1.1514 0.8906 0.6416 0.4791
925.909 0.4038 0.4081 0.4607 0.4557 0.4051 0.382 0.4109 0.4366 0.4196 0.4159
964.489 0.3698 0.3609 0.4246 0.4921 0.5158 0.5313 0.5392 0.5153 0.5346 0.5527
1003.068 0.5638 0.5607 0.6286 0.7325 0.6998 0.6047 0.6736 0.8183 0.9191 1.0264
1041.648 1.1517 1.319 1.329 1.309 1.379 1.419 1.579 1.949 2.499 3.399
1080.227 4.809 6.719 8.999 10.829 11.749 12.049 11.969 12.239 13.379 15.519
1118.807 18.269 20.119 19.519 16.659 12.449 8.459 6.219 5.269 4.769 4.489
1157.387 4.369 4.649 5.539 7.639 11.529 17.559 25.199 31.869 34.389 31.589
1195.966 24.339 15.969 10.299 7.379 5.939 5.239 4.919 4.889 4.949 5.089
1234.546 5.119 5.069 4.929 4.619 4.219 3.729 3.299 3.149 3.139 3.129
1273.125 3.229 3.469 3.769 4.109 4.589 5.089 5.599 6.299 7.159 8.289
1311.705 9.979 12.329 14.979 16.759 16.709 14.709 11.339 8.039 5.989 5.079
1350.284 4.749 4.799 5.219 5.989 6.839 7.269 7.129 6.599 6.179 6.429
1388.864 7.279 8.009 7.959 7.139 6.009 5.199 5.269 6.089 7.109 7.979
1427.443 8.589 8.969 8.859 8.079 6.659 4.769 3.099 2.129 1.609 1.319
1466.023 1.1461 1.0033 0.8918 0.8001 0.7034 0.6299 0.5703 0.5338 0.5358 0.5579
1504.603 0.6089 0.6716 0.773 0.9212 1.0916 1.269 1.429 1.569 1.649 1.759
1543.182 2.049 2.639 3.819 5.929 9.229 13.369 17.009 18.699 17.619 13.889
1581.762 9.309 5.899 3.789 2.469 1.729 1.359 1.1777 1.0695 0.9968 0.9415
1620.341 0.9019 0.8775 0.8289 0.7635 0.7188 0.6752 0.6682 0.7085 0.7345 0.7856
1658.921 0.8385 0.8618 0.8908 0.9052 0.8778 0.8447 0.8421 0.8394 0.8474 0.9415
1697.500 1.1182 1.349 1.709 2.269 2.959 3.749 4.339 4.309 4.059 3.879
1736.080 3.819 4.299 5.569 8.029 13.069 22.789 37.819 52.519 59.029 55.419
1774.659 41.079 23.079 11.559 6.649 4.629 3.809 3.539 3.569 3.819 4.159
1813.239 4.359 4.089 3.239 2.299 1.589 1.1183 0.872 0.7457 0.6511 0.5666
1851.819 0.5173 0.4847 0.4535 0.4124 0.4085 0.4148 0.3913 0.3927 0.3912 0.3845
1890.398 0.41 0.4426 0.499 0.5685 0.6482 0.6857 0.6763 0.6362 0.5555 0.5042
1928.978 0.4769 0.4682 0.4497 0.4502 0.4539 0.4375 0.4446 0.4408 0.4214 0.3862
1967.557 0.3835 0.4048 0.416 0.4057 0.3921 0.372 0.33759 0.33477 0.31859 0.27912
2006.137 0.27318 0.259838 0.2408 0.25639 0.26942 0.29174 0.32027 0.33231 0.33291 0.33958
2044.716 0.3283 0.29894 0.27488 0.2448 0.2294 0.2338 0.2426 0.2312 0.2352 0.2393
2083.296 0.2346 0.258742 0.26937 0.27022 0.27075 0.263592 0.27353 0.28601 0.266504 0.2378
2121.875 0.215 0.2173 0.2273 0.2044 0.2032 0.2303 0.2238 0.2192 0.221 0.2262
2160.455 0.2355 0.2392 0.2439 0.27067 0.29964 0.3027 0.32794 0.32961 0.31859 0.32899
2199.035 0.33833 0.33228 0.32158 0.34444 0.3342 0.32325 0.33135 0.30282 0.28008 0.259404
2237.614 0.25565 0.2487 0.2354 0.2184 0.2145 0.2338 0.2392 0.2306 0.22 0.2253
2276.194 0.2266 0.2347 0.259212 0.25208 0.2403 0.2259 0.2078 0.2214 0.2454 0.2475
2314.773 0.2304 0.2196 0.2203 0.2187 0.2276 0.2411 0.246 0.25264 0.2478 0.2366
2353.353 0.25721 0.28571 0.28084 0.29332 0.30945 0.30927 0.32594 0.33429 0.31505 0.31053
2391.932 0.29433 0.28277 0.27907 0.28058 0.29355 0.27578 0.27655 0.28519 0.27331 0.27016
2430.512 0.27447 0.26983 0.27468 0.268894 0.264446 0.260452 0.263371 0.2837 0.29111 0.29266
2469.092 0.27678 0.2432 0.2318 0.2295 0.2231 0.259416 0.264217 0.2232 0.2289 0.2307
2507.671 0.2098 0.2016 0.1819 0.2009 0.2325 0.2335 0.2399 0.25403 0.2459 0.2342
2546.251 0.2405 0.2439 0.25848 0.25193 0.2447 0.259512 0.2342 0.2311 0.25064 0.2285
2584.830 0.2295 0.2261 0.2145 0.2182 0.2209 0.2254 0.2158 0.2233 0.227 0.2289
2623.410 0.2468 0.2458 0.2188 0.1961 0.1917 0.1851 0.1864 0.1965 0.2162 0.2377
2661.989 0.2108 0.1967 0.208 0.2128 0.2211 0.2075 0.196 0.187 0.1652 0.1742
2700.569 0.1887 0.1908 0.1741 0.1625 0.1827 0.1675 0.153 0.148 0.135 0.146
2739.148 0.158 0.177 0.2062 0.2231 0.2266 0.2215 0.2036 0.1856 0.1992 0.2093
2777.728 0.2147 0.2425 0.2291 0.1984 0.1819 0.1862 0.2005 0.1834 0.158 0.138
2816.308 0.149 0.141 0.155 0.1805 0.2005 0.2313 0.2242 0.2472 0.27395 0.262632
2854.887 0.267985 0.32156 0.34127 0.34157 0.32903 0.27875 0.2387 0.2368 0.227 0.1988
2893.467 0.2176 0.208 0.155 0.146 0.1606 0.1637 0.1599 0.151 0.146 0.108
2932.046 0.112 0.131 0.118 0.098 0.114 0.132 0.1 0.106 0.127 0.108
2970.626 0.112 0.129 0.128 0.148 0.175 0.1689 0.15 0.1924 0.259225 0.28209
3009.205 0.2288 0.2117 0.2003 0.1752 0.2214 0.2463 0.232 0.1807 0.1688 0.198
3047.785 0.2019 0.197 0.2098 0.2245 0.2208 0.2367 0.28305 0.3817 0.5436 0.7715
3086.364 0.9873 1.065 0.9828 0.7696 0.5292 0.3626 0.2408 0.1601 0.141 0.1608
3124.944 0.189 0.1949 0.1896 0.2244 0.2446 0.2219 0.2044 0.1785 0.148 0.144
3163.524 0.144 0.1 0.105 0.153 0.14 0.127 0.13 0.1628 0.152 0.104
3202.103 0.138 0.141 0.077 0.047 0.071 0.101 0.139 0.11 0.098 0.156
3240.683 0.148 0.104 0.091 0.122 0.136 0.117 0.086 0.076 0.092 0.095
3279.262 0.112 0.119 0.075 0.101 0.128 0.077 0.076 0.117 0.126 0.129
3317.842 0.14 0.098 0.075 0.106 0.125 0.124 0.105 0.118 0.113 0.125
3356.421 0.15 0.122 0.114 0.136 0.155 0.127 0.116 0.121 0.085 0.071
3395.001 0.084 0.095 0.109 0.123 0.081 0.099 0.1707 0.1655 0.1911 0.1957
3433.580 0.1616 0.15 0.1607 0.1623 0.145 0.146 0.124 0.133 0.2178 0.25507
3472.160 0.28316 0.26984 0.1949 0.1726 0.1955 0.267817 0.29492 0.27324 0.3624 0.4977
3510.740 0.5646 0.654 0.6934 0.6623 0.6294 0.5956 0.5825 0.5223 0.5459 0.6423
3549.319 0.6855 0.8063 1.0124 1.609 2.999 5.809 10.729 16.939 21.229 21.139
3587.899 17.169 10.659 4.799 2.049 1.1558 0.7544 0.5372 0.3632 0.31497 0.33259
3626.478 0.31557 0.32251 0.28541 0.2134 0.2177 0.201 0.1675 0.146 0.139 0.134
3665.058 0.104 0.138 0.2207 0.2194 0.1815 0.2069 0.1955 0.1641 0.158 0.104
3703.637 0.107 0.146 0.152 0.152 0.118 0.088 0.125 0.1818 0.1759 0.123
3742.217 0.118 0.126 0.099 0.108 0.15 0.15 0.116 0.089 0.082 0.114
3780.797 0.118 0.12 0.137 0.052 0.081 0.1807 0.1841 0.116 0.046 0.029
3819.376 0.014 0.091 0.133 0.09 0.104 0.092 0.053 0.099 0.131 0.066
3857.956 0.033 0.108 0.129 0.116 0.147 0.114 0.102 0.111 0.091 0.041
3896.535 0.018 0.054 0.08 0.092 0.093 0.075 0.066 0.09 0.078 0.101
3935.115 0.1663 0.1781 0.1726 0.146 0.119 0.106 0.105 0.133 0.097 0.078
3973.694 0.043 0 0.051 0.076 0.116 0.145 0.131 0.118
##END=
