##TITLE=3-Chloro-2-iodotoluene
##JCAMP-DX=4.24
##DATA TYPE=INFRARED SPECTRUM
##ORIGIN=EPA-IR VAPOR PHASE LIBRARY
##OWNER=SRD/NIST
Collection (C) 2018 copyright by the U.S. Secretary of Commerce
on behalf of the United States of America. All rights reserved.
##CAS REGISTRY NO=5100-98-1
##MOLFORM=C 7 H 6 Cl I
##$NIST SOURCE=MSDC-IR
##STATE=gas
##XUNITS=1/CM
##YUNITS=ABSORBANCE
##XFACTOR=1.
##YFACTOR=0.001
##DELTAX=1.92934
##FIRSTX=549.9
##LASTX=3999.5
##FIRSTY=4.875
##MAXX=3999.53
##MINX=549.863
##MAXY=0.124745
##MINY=0
##NPOINTS=1789
##XYDATA=(X++(Y..Y))
549.863 4.875 3.445 2.365 1.875 1.945 1.895 1.6426 1.4659 1.5438 1.695
569.156 1.5717 1.3669 1.1547 1.121 1.2361 1.1087 0.9587 1.0778 1.0651 1.0359
588.450 1.2889 1.3098 1.1933 1.134 1.0447 1.0707 1.1903 1.2284 1.2647 1.5048
607.743 1.845 2.025 2.225 2.425 2.395 2.335 2.245 2.055 1.905 1.695
627.037 1.3667 1.1734 1.0872 1.0567 1.1592 1.1739 1.1617 1.2572 1.17 1.0121
646.330 1.0406 1.1295 1.135 1.2005 1.3896 1.3619 1.3064 1.3372 1.4288 1.5729
665.624 1.6699 1.845 1.955 2.025 2.365 3.035 3.885 5.095 6.555 8.015
684.917 9.525 10.885 12.395 15.435 20.355 21.495 17.785 15.925 16.605 17.535
704.210 18.245 18.735 19.325 20.105 20.865 21.475 21.515 20.915 19.625 17.815
723.504 15.645 13.275 11.065 9.145 7.595 6.345 5.475 4.975 4.655 4.635
742.797 4.935 5.555 6.725 8.875 12.405 17.925 25.675 35.515 46.305 56.625
762.091 65.575 76.415 94.485 121.035 124.745 92.135 68.545 60.875 53.345 43.445
781.384 32.055 21.975 14.365 9.555 6.705 5.045 4.065 3.635 3.375 3.135
800.678 2.965 2.745 2.465 2.355 2.255 2.115 1.955 1.925 2.055 2.135
819.971 2.135 2.195 2.355 2.645 3.045 3.565 4.355 5.475 6.875 8.675
839.264 11.055 14.095 17.725 21.725 25.915 29.685 32.195 33.185 33.135 32.815
858.558 31.825 29.055 24.615 19.685 15.165 11.535 8.745 6.635 5.245 4.365
877.851 3.745 3.365 3.185 3.105 2.965 2.885 2.925 2.835 2.705 2.605
897.145 2.545 2.495 2.295 2.085 2.035 1.995 1.925 1.965 1.995 1.945
916.438 1.965 1.975 1.925 1.935 1.895 1.915 1.945 1.885 1.905 1.895
935.732 1.945 2.015 2.005 1.995 1.995 2.015 2.065 2.135 2.295 2.515
955.025 2.775 3.145 3.585 4.165 4.825 5.515 6.055 6.435 6.705 6.805
974.318 6.815 6.785 6.625 6.405 6.285 6.325 6.605 7.175 8.035 9.235
993.612 10.815 12.835 15.445 18.755 22.875 27.875 33.855 40.535 47.125 52.925
1012.905 56.925 58.615 58.355 56.225 52.185 46.705 39.965 32.635 26.455 22.455
1032.199 20.375 19.245 18.525 17.845 16.905 15.795 14.495 13.155 11.555 9.755
1051.492 8.145 6.815 5.775 4.985 4.335 3.745 3.315 3.015 2.835 2.625
1070.786 2.495 2.435 2.455 2.565 2.735 3.105 3.475 4.085 5.075 6.295
1090.079 7.565 8.575 9.095 9.035 8.935 9.215 9.255 8.365 6.905 5.495
1109.372 4.315 3.525 3.125 2.845 2.735 2.705 2.645 2.925 3.385 3.645
1128.666 4.075 4.865 5.895 7.355 9.405 12.065 15.105 18.345 20.945 22.585
1147.959 23.565 24.485 25.945 26.455 25.295 23.465 21.765 20.665 20.365 21.115
1167.253 22.865 25.265 28.215 31.305 32.865 31.785 29.645 29.325 29.465 27.015
1186.546 22.205 16.745 12.095 8.655 6.325 4.965 4.075 3.445 2.865 2.775
1205.840 2.815 2.525 2.815 3.095 2.805 2.405 2.545 2.785 2.725 2.395
1225.133 1.885 1.855 2.085 2.115 2.025 2.045 2.145 2.115 2.365 2.625
1244.426 2.665 2.835 3.015 3.155 3.205 3.195 3.085 2.965 2.905 2.675
1263.720 2.485 2.345 2.065 1.825 1.6014 1.4304 1.4337 1.3983 1.4233 1.4808
1283.013 1.4819 1.5192 1.4797 1.4182 1.4154 1.3648 1.4029 1.476 1.3706 1.3829
1302.307 1.414 1.3317 1.3746 1.4365 1.3977 1.3129 1.2785 1.2783 1.2814 1.2682
1321.600 1.2556 1.2724 1.2327 1.2062 1.2421 1.2552 1.2645 1.301 1.3362 1.34
1340.894 1.3967 1.522 1.5825 1.6358 1.715 1.805 1.975 2.195 2.475 2.805
1360.187 3.235 3.715 4.225 4.885 5.785 6.915 8.325 10.045 11.865 13.695
1379.480 15.575 17.485 19.555 21.695 23.845 25.585 26.755 27.595 28.015 28.015
1398.774 27.665 26.705 25.195 23.285 21.225 19.255 17.575 16.445 15.745 15.535
1418.067 15.955 16.995 18.745 21.355 25.195 30.365 37.095 45.255 54.565 64.245
1437.361 73.795 80.935 84.455 84.915 84.695 83.875 79.765 72.255 63.255 55.035
1456.654 47.755 41.745 37.235 33.515 30.435 27.675 25.435 23.505 21.615 19.715
1475.948 17.965 16.255 14.805 13.545 12.425 11.465 10.575 9.705 8.885 8.175
1495.241 7.635 7.185 6.815 6.535 6.425 6.415 6.295 6.025 5.865 5.805
1514.534 5.765 5.755 5.705 5.685 5.835 6.035 6.305 6.775 7.335 7.935
1533.828 8.555 9.115 9.845 10.655 11.315 12.085 13.015 13.865 14.575 15.255
1553.121 15.925 16.435 16.805 17.105 17.245 17.265 17.425 17.815 18.345 18.975
1572.415 19.595 20.135 20.255 19.975 19.315 18.135 16.615 14.825 12.935 10.975
1591.708 9.005 7.245 5.885 4.875 4.125 3.545 3.105 2.765 2.555 2.375
1611.002 2.265 2.155 2.065 1.985 1.865 1.825 1.855 1.855 1.845 1.925
1630.295 1.985 2.075 2.275 2.525 2.735 2.985 3.365 3.895 4.325 4.565
1649.588 4.825 5.025 4.965 4.725 4.455 4.025 3.465 2.935 2.395 1.905
1668.882 1.5789 1.2858 1.1554 1.1781 1.1055 0.9641 0.9093 0.9048 0.8672 0.86
1688.175 0.8501 0.8267 0.8117 0.8023 0.8221 0.8152 0.8198 0.798 0.8252 0.8519
1707.469 0.8854 0.9616 1.0147 1.1452 1.2985 1.4349 1.5139 1.5497 1.6148 1.6131
1726.762 1.5801 1.5896 1.5993 1.4773 1.2919 1.1634 1.012 0.8838 0.7753 0.72824
1746.056 0.74788 0.7923 0.8687 1.0073 1.181 1.4093 1.725 2.005 2.295 2.605
1765.349 2.765 2.795 2.775 2.735 2.515 2.195 1.855 1.5169 1.2385 0.9323
1784.642 0.72678 0.70374 0.7066 0.674841 0.70885 0.71694 0.69569 0.70672 0.70867 0.72359
1803.936 0.75385 0.75387 0.71403 0.67318 0.66816 0.66795 0.6464 0.6624 0.70192 0.70457
1823.229 0.73819 0.8249 0.9552 1.1271 1.3347 1.6625 2.015 2.355 2.725 3.025
1842.523 3.285 3.485 3.495 3.335 3.105 2.905 2.605 2.185 1.805 1.5074
1861.816 1.2708 1.0838 0.9563 0.8413 0.7198 0.6359 0.5825 0.5835 0.6169 0.6141
1881.110 0.6198 0.6341 0.6313 0.6053 0.6511 0.74178 0.7793 0.8541 0.8925 0.9379
1900.403 1.0573 1.2239 1.4388 1.745 2.065 2.425 2.905 3.445 4.015 4.605
1919.696 5.135 5.385 5.395 5.255 4.985 4.485 3.895 3.285 2.585 1.885
1938.990 1.3464 1.0414 0.8945 0.75006 0.6016 0.547 0.551 0.497 0.455 0.428
1958.283 0.38 0.353 0.374 0.377 0.39 0.419 0.428 0.427 0.391 0.43
1977.577 0.401 0.348 0.384 0.41 0.413 0.436 0.496 0.484 0.423 0.447
1996.870 0.502 0.52 0.521 0.513 0.486 0.461 0.508 0.538 0.506 0.491
2016.164 0.51 0.56 0.549 0.517 0.551 0.5934 0.591 0.5984 0.617 0.6232
2035.457 0.6019 0.535 0.467 0.395 0.399 0.411 0.347 0.334 0.356 0.328
2054.750 0.345 0.355 0.323 0.31 0.291 0.307 0.272 0.232 0.253 0.263
2074.044 0.263 0.284 0.352 0.348 0.349 0.366 0.398 0.416 0.359 0.34
2093.337 0.337 0.357 0.394 0.386 0.387 0.389 0.387 0.39 0.304 0.256
2112.631 0.282 0.288 0.249 0.229 0.247 0.185 0.155 0.178 0.151 0.123
2131.924 0.135 0.148 0.131 0.099 0.088 0.132 0.155 0.184 0.174 0.114
2151.218 0.101 0.109 0.119 0.129 0.115 0.156 0.186 0.158 0.114 0.119
2170.511 0.119 0.076 0.06 0.093 0.088 0.049 0.093 0.098 0.071 0.076
2189.804 0.092 0.095 0.106 0.097 0.036 0.029 0.028 0.048 0.111 0.102
2209.098 0.089 0.104 0.131 0.141 0.179 0.232 0.232 0.24 0.258 0.259
2228.391 0.272 0.298 0.332 0.358 0.337 0.309 0.33 0.337 0.332 0.346
2247.685 0.343 0.308 0.318 0.34 0.288 0.286 0.303 0.297 0.28 0.313
2266.978 0.372 0.407 0.406 0.388 0.356 0.335 0.357 0.388 0.373 0.339
2286.272 0.364 0.367 0.378 0.402 0.403 0.461 0.483 0.469 0.447 0.369
2305.565 0.365 0.374 0.32 0.297 0.337 0.335 0.338 0.347 0.382 0.454
2324.858 0.439 0.434 0.465 0.483 0.478 0.436 0.445 0.471 0.5 0.552
2344.152 0.5772 0.5842 0.5989 0.6271 0.6154 0.6137 0.6325 0.6067 0.565 0.539
2363.445 0.487 0.388 0.282 0.222 0.194 0.155 0.135 0.142 0.149 0.169
2382.739 0.192 0.202 0.201 0.223 0.232 0.263 0.292 0.295 0.368 0.413
2402.032 0.405 0.382 0.316 0.323 0.412 0.454 0.495 0.512 0.474 0.453
2421.326 0.462 0.451 0.422 0.471 0.453 0.398 0.407 0.363 0.329 0.284
2440.619 0.279 0.281 0.234 0.208 0.202 0.218 0.246 0.261 0.282 0.302
2459.912 0.309 0.399 0.394 0.36 0.427 0.506 0.522 0.518 0.5764 0.6035
2479.206 0.6341 0.70834 0.75382 0.7477 0.8165 0.8813 0.8744 0.8223 0.8126 0.7972
2498.499 0.71034 0.70893 0.70272 0.6502 0.6207 0.6108 0.561 0.512 0.442 0.393
2517.793 0.402 0.389 0.377 0.35 0.328 0.295 0.292 0.304 0.328 0.313
2537.086 0.279 0.284 0.293 0.348 0.434 0.454 0.439 0.418 0.396 0.368
2556.380 0.408 0.458 0.467 0.542 0.568 0.5921 0.6135 0.6281 0.6012 0.57
2575.673 0.575 0.493 0.449 0.484 0.462 0.457 0.463 0.454 0.485 0.475
2594.966 0.388 0.338 0.342 0.288 0.279 0.336 0.339 0.329 0.337 0.331
2614.260 0.326 0.322 0.315 0.376 0.458 0.465 0.409 0.364 0.426 0.443
2633.553 0.388 0.373 0.343 0.296 0.296 0.316 0.256 0.232 0.26 0.255
2652.847 0.279 0.274 0.249 0.189 0.197 0.227 0.145 0.122 0.128 0.088
2672.140 0.116 0.075 0.066 0.093 0.061 0.043 0 0.077 0.154 0.163
2691.434 0.151 0.076 0.017 0.059 0.098 0.081 0.027 0.041 0.09 0.109
2710.727 0.127 0.078 0.167 0.267 0.267 0.241 0.19 0.297 0.351 0.271
2730.020 0.284 0.408 0.495 0.564 0.6312 0.6487 0.8077 0.9771 0.9354 0.8116
2749.314 0.8135 0.8786 0.8 0.6931 0.5772 0.467 0.412 0.365 0.299 0.269
2768.607 0.271 0.264 0.228 0.262 0.28 0.257 0.291 0.309 0.26 0.158
2787.901 0.117 0.174 0.274 0.253 0.238 0.273 0.3 0.322 0.47 0.492
2807.194 0.4 0.536 0.5948 0.592 0.67012 0.69905 0.8376 0.9638 0.9899 1.0535
2826.488 1.1641 1.3055 1.4419 1.5486 1.6149 1.669 1.705 1.915 2.175 2.325
2845.781 2.455 2.515 2.765 3.105 3.425 3.775 4.005 4.215 4.465 4.765
2865.074 4.985 4.975 5.135 5.245 5.175 5.135 4.945 4.795 4.635 4.355
2884.368 4.225 4.215 4.235 4.255 4.225 4.285 4.545 4.735 4.925 5.185
2903.661 5.455 5.785 6.175 6.595 6.945 7.495 8.235 9.055 9.935 11.115
2922.955 12.575 14.115 15.815 17.435 18.805 19.675 19.895 19.625 19.145 18.355
2942.248 16.925 15.345 13.845 12.425 11.555 11.165 11.215 11.515 11.865 12.505
2961.542 13.205 14.115 14.915 15.035 15.155 15.505 16.205 17.285 18.435 19.685
2980.835 20.885 21.665 21.885 21.745 21.365 20.705 19.305 17.565 15.755 13.785
3000.128 12.155 10.825 9.655 8.705 7.945 7.365 6.745 6.055 5.715 5.445
3019.422 5.045 4.825 4.745 4.775 4.875 5.035 5.385 5.865 6.505 7.385
3038.715 8.565 10.065 11.845 13.895 16.075 18.115 20.025 21.905 23.665 25.485
3058.009 27.505 29.415 30.755 31.265 30.955 29.885 28.275 26.185 23.625 20.695
3077.302 17.265 13.715 10.775 8.715 7.275 6.305 5.695 5.275 4.845 4.445
3096.596 4.185 4.085 4.025 3.895 3.895 3.895 3.795 3.715 3.565 3.395
3115.889 3.205 3.105 2.895 2.675 2.735 2.595 2.385 2.395 2.225 2.035
3135.182 2.005 1.995 2.035 1.915 1.765 1.6322 1.5618 1.5991 1.5396 1.4296
3154.476 1.4004 1.2537 0.9385 0.8229 0.8647 0.8503 0.7806 0.679142 0.554 0.466
3173.769 0.323 0.307 0.462 0.365 0.399 0.532 0.387 0.374 0.467 0.461
3193.063 0.394 0.485 0.433 0.345 0.319 0.276 0.394 0.459 0.449 0.347
3212.356 0.311 0.317 0.413 0.342 0.303 0.413 0.348 0.421 0.313 0.233
3231.650 0.335 0.261 0.276 0.41 0.328 0.224 0.318 0.225 0.168 0.175
3250.943 0.223 0.413 0.226 0.171 0.313 0.253 0.416 0.368 0.348 0.425
3270.236 0.397 0.346 0.21 0.236 0.258 0.354 0.423 0.515 0.5937 0.378
3289.530 0.418 0.6272 0.6242 0.5873 0.6064 0.66991 0.432 0.33 0.409 0.438
3308.823 0.412 0.24 0.227 0.337 0.443 0.42 0.301 0.252 0.282 0.453
3328.117 0.5828 0.472 0.319 0.331 0.349 0.412 0.521 0.451 0.384 0.396
3347.410 0.476 0.6077 0.6436 0.444 0.452 0.502 0.301 0.329 0.483 0.53
3366.704 0.6716 0.69236 0.493 0.417 0.508 0.526 0.433 0.448 0.45 0.47
3385.997 0.499 0.435 0.501 0.503 0.539 0.683262 0.6523 0.6287 0.70228 0.68565
3405.290 0.6307 0.66695 0.642 0.5959 0.53 0.542 0.506 0.5777 0.75676 0.5828
3424.584 0.458 0.6015 0.66511 0.582 0.6451 0.69024 0.5757 0.542 0.553 0.5949
3443.877 0.6005 0.459 0.431 0.504 0.483 0.6499 0.7653 0.52 0.354 0.535
3463.171 0.5951 0.5852 0.6627 0.8201 0.9364 0.8426 0.8948 0.8559 0.69675 0.6687
3482.464 0.72273 0.71386 0.71159 0.8026 0.795 0.76346 0.5816 0.55 0.6515 0.77243
3501.758 0.952 0.946 0.8233 0.75885 0.7883 0.8485 0.954 0.9798 0.8345 0.68511
3521.051 0.70234 0.75678 0.8426 0.69987 0.68962 0.76472 0.68879 0.69666 0.70377 0.70258
3540.344 0.66516 0.7652 0.8699 0.75244 0.68956 0.76073 0.71846 0.6627 0.6918 0.71377
3559.638 0.72992 0.6038 0.6462 0.5933 0.448 0.6427 0.70089 0.6135 0.512 0.573
3578.931 0.674596 0.6566 0.676236 0.6616 0.8192 0.7756 0.6131 0.7898 0.8541 0.6648
3598.225 0.614 0.6202 0.557 0.67794 0.76312 0.8496 0.8285 0.7972 0.928 0.8068
3617.518 0.75969 0.8702 0.7544 0.6229 0.66735 0.74538 0.72432 0.7553 0.8157 0.75757
3636.812 0.6258 0.517 0.515 0.6135 0.69534 0.76638 0.72058 0.67265 0.6516 0.68658
3656.105 0.76731 0.6549 0.6347 0.66577 0.581 0.548 0.564 0.6349 0.6414 0.69335
3675.398 0.74027 0.73455 0.75529 0.72183 0.5788 0.573 0.70825 0.73445 0.67022 0.6496
3694.692 0.74347 0.8392 0.9296 0.8749 0.8749 0.8215 0.66574 0.66596 0.8007 0.785
3713.985 0.6287 0.552 0.531 0.555 0.6476 0.8031 0.8344 0.69618 0.7803 0.8934
3733.279 0.8389 0.77415 0.77153 0.7771 0.7354 0.8368 0.8347 0.75133 0.8172 1.018
3752.572 0.9905 0.7561 0.72522 0.7903 0.9425 1.0093 0.8613 0.937 1.1799 1.1085
3771.866 1.0611 1.1417 1.0164 1.0577 1.2374 1.161 1.012 0.9525 0.958 0.9627
3791.159 0.9129 0.8635 0.76743 0.75154 0.9863 1.1019 0.8901 0.6611 0.72723 0.7976
3810.452 0.7832 0.8931 0.9655 0.8533 0.7762 0.8795 0.863 0.675306 0.572 0.678357
3829.746 0.66697 0.6299 0.6581 0.73284 0.8449 0.8713 0.9139 0.9042 0.8261 0.75607
3849.039 0.71932 0.72954 0.8071 0.8016 0.68837 0.74876 0.7893 0.73022 0.78 0.7905
3868.333 0.72393 0.69191 0.6225 0.518 0.43 0.415 0.6006 0.678706 0.5987 0.6517
3887.626 0.71596 0.6269 0.5798 0.72724 0.7296 0.679673 0.6475 0.5999 0.68751 0.7972
3906.920 0.7783 0.69011 0.75632 0.7751 0.73055 0.76115 0.8197 0.9855 1.0688 1.0437
3926.213 0.9982 0.9342 0.933 0.9086 0.9919 1.0995 0.9331 0.682801 0.69162 0.683397
3945.506 0.6187 0.75616 0.8434 0.74891 0.72874 0.8473 0.8808 0.8445 0.74353 0.70352
3964.800 0.74553 0.71218 0.6599 0.69726 0.73553 0.77136 0.7852 0.76354 0.8066 0.8017
3984.093 0.792 0.8052 0.72902 0.69223 0.66949 0.6596 0.69844 0.71949 0.72157
##END=
