##TITLE=Ethyl 6-isocyanatohexanoate
##JCAMP-DX=4.24
##DATA TYPE=INFRARED SPECTRUM
##ORIGIN=EPA-IR VAPOR PHASE LIBRARY
##OWNER=SRD/NIST
Collection (C) 2018 copyright by the U.S. Secretary of Commerce
on behalf of the United States of America. All rights reserved.
##CAS REGISTRY NO=5100-36-7
##MOLFORM=C 9 H 15 N O 3
##$NIST SOURCE=MSDC-IR
##STATE=gas
##XUNITS=1/CM
##YUNITS=ABSORBANCE
##XFACTOR=1.
##YFACTOR=0.001
##DELTAX=1.92898
##FIRSTX=549.8
##LASTX=4000.7
##FIRSTY=2.157
##MAXX=4000.7
##MINX=549.759
##MAXY=0.02281
##MINY=0
##NPOINTS=1790
##XYDATA=(X++(Y..Y))
549.759 2.157 1.7328 1.9705 1.7521 2.0581 2.4954 1.8161 2.1309 2.1772 1.8394
569.049 2.76 3.27 3.13 3.22 3.1 2.94 2.5384 2.3973 2.78 2.81
588.339 2.68 3.56 3.4 2.439 2.79 3.29 3.35 3.05 3.24 3.61
607.628 3.78 3.46 3.13 3.34 3.51 2.95 3.49 4.06 3.37 3.36
626.918 3.34 2.91 2.69 2.98 2.83 2.59 1.9026 1.359 1.8577 2.4565
646.208 2.87 2.95 3.07 2.83 2.0447 1.7494 1.66927 1.9135 2.2041 1.8901
665.498 2.0218 1.7839 1.256 1.414 1.9227 2.4329 2.5518 2.412 2.3859 2.69
684.787 2.6 2.3115 2.2522 2.2205 2.5263 2.4514 2.0883 2.5056 2.5027 2.1142
704.077 2.5146 2.4709 2.65 2.84 2.2424 1.9719 1.496 1.352 1.8813 2.092
723.367 1.9344 1.59757 1.7541 2.059 1.66778 1.5496 2.3628 2.5038 2.0047 2.0858
742.657 2.5172 2.63 2.73 2.2095 1.431 1.7944 2.1442 1.64936 1.9922 2.55
761.947 1.8644 2.0818 2.77 2.4832 2.0695 2.2497 2.006 1.9689 2.89 2.77
781.236 2.2591 2.0956 2.0174 2.1242 2.356 2.71 2.58 2.65 2.92 2.5143
800.526 2.3159 2.1573 1.57765 1.9806 2.5202 2.4013 2.5127 2.77 2.3081 1.6703
819.816 1.307 2.2605 2.3416 1.7727 2.1321 1.9869 2.2835 2.5577 2.2672 2.0296
839.106 2.1138 2.0416 2.145 2.381 2.3695 2.1827 2.0725 1.7655 2.0797 2.63
858.395 1.9722 1.452 1.7786 1.9547 1.62599 1.7043 1.8332 1.7575 1.816 2.1021
877.685 2.2795 2.3722 2.3704 1.7913 1.5033 1.57216 1.725 2.0422 2.3222 2.0631
896.975 1.9473 2.1124 1.7234 1.63888 1.7955 1.7863 1.9157 1.9646 2.0665 1.9643
916.265 1.286 0.978 1.27 1.465 1.6481 1.9382 1.8274 1.65516 2.2903 2.4823
935.555 2.0755 2.1642 1.8675 1.425 1.39 1.453 1.5298 1.9051 2.4873 2.1719
954.844 1.372 1.108 1.64779 1.7958 1.436 1.7439 1.9332 1.83 1.64669 1.423
974.134 1.172 0.845 0.977 1.4709 1.354 0.958 1.114 1.347 0.832 0.683
993.424 1.325 1.258 0.992 1.345 1.5436 1.323 1.339 1.158 0 0.15
1012.714 1.396 1.61351 1.227 1.076 1.65559 2.474 2.7 2.529 1.9915 1.437
1032.003 1.8701 2.66 2.78 2.4083 2.2432 1.61628 1.8371 2.85 3.14 2.83
1051.293 2.1786 2.0135 1.8331 1.7361 1.977 1.121 0.37 1.375 2.71 2.0234
1070.583 1.9301 2.5588 1.431 1.3 2.72 3.46 3.13 2.0553 1.62816 2.0125
1089.873 1.8086 1.183 1.66496 2.63 1.8852 2.77 4.08 5.45 6.71 5.7
1109.163 3.76 3.97 3.87 2.2129 3.75 5.27 5.04 4.59 4.63 3.71
1128.452 4.36 6.91 7.02 5.18 4.24 4.64 5.49 6.37 6.07 6.62
1147.742 8.49 8.59 8.67 9.75 9.71 8.76 9.05 9.35 8.6 8.24
1167.032 9 9.36 9.49 10.51 10.71 9.69 8.62 8.78 10.19 10.35
1186.322 9.9 10.79 11.3 12.32 12.08 10.04 9.92 11.26 11.53 11.4
1205.611 12.01 11.76 10.78 12.58 14.41 12.89 11.35 12.7 14.23 14.62
1224.901 13.46 13.14 12.84 10.97 10.27 10.04 9.41 9.53 10.11 9.54
1244.191 8.6 8.67 8.73 8.27 8.4 8 7.53 7.79 7.5 7.11
1263.481 7.14 7.09 7.48 7.31 7.2 7.11 6.22 5.87 5.84 5.96
1282.771 6.39 6.36 5.95 5.86 5.41 5.17 5.16 4.98 4.89 4.86
1302.060 4.84 4.71 4.62 4.47 4.22 4.12 4.25 4.28 4.35 4.4
1321.350 4.3 4.32 4.32 4.32 4.39 4.21 4.07 4.17 4.26 4.39
1340.640 4.54 4.52 4.32 4.43 4.81 4.7 4.62 4.66 4.63 4.77
1359.930 4.92 4.8 4.46 4.42 4.57 4.61 4.5 4.48 4.42 4.26
1379.219 4.18 4.06 3.93 3.59 3.27 3.06 2.97 3.04 2.95 2.84
1398.509 2.87 2.72 2.73 2.98 2.9 2.86 2.75 2.5518 2.64 2.66
1417.799 2.5048 2.66 2.85 2.74 2.82 3.06 2.93 2.78 2.96 3
1437.089 2.83 2.87 2.87 2.76 2.65 2.64 2.67 2.6 2.77 2.86
1456.378 2.85 2.99 3.04 3.01 3 3.01 2.82 2.5204 2.72 2.94
1475.668 2.93 2.74 2.355 2.3431 2.4295 2.1437 1.887 2.0315 2.2515 2.0153
1494.958 1.8132 1.9097 2.1849 2.0679 1.7434 1.7061 1.7651 1.9695 1.8601 1.4971
1514.248 1.45 1.4891 1.4844 1.6816 1.63949 1.4966 1.355 1.43 1.5492 1.56454
1533.538 1.814 1.9681 1.9829 1.959 1.694 1.59853 1.64984 1.818 1.8456 1.63719
1552.827 1.819 1.8295 1.8 2.0419 1.57329 1.436 1.6835 1.7086 1.88 2.0201
1572.117 1.9984 1.8815 1.9087 2.1117 2.1397 1.9233 1.9622 1.8301 1.7118 2.2307
1591.407 2.3107 2.1616 2.0603 2.1335 2.3343 2.0261 2.2515 2.3362 2.1164 2.218
1610.697 2.1891 2.1815 2.3641 2.4334 2.4963 2.73 2.58 2.2871 2.2596 2.3796
1629.986 2.4261 2.3125 2.3375 2.2789 2.2334 2.3464 2.3525 2.2863 2.446 2.5506
1649.276 2.4812 2.74 2.67 2.2997 2.3837 2.3093 2.0866 2.2017 2.3054 2.3901
1668.566 2.4647 2.2296 1.9882 2.1288 2.3225 2.2543 2.0517 1.964 2.1032 2.366
1687.856 2.472 2.5407 2.7 2.5026 2.3605 2.69 2.83 2.76 2.96 3.06
1707.146 3.18 3.36 3.21 3.14 3.22 3.31 3.29 3.41 3.53 3.69
1726.435 3.89 4.13 4.5 4.77 5.22 5.73 6.24 6.67 7.18 7.67
1745.725 8.14 8.62 8.98 9.34 9.49 9.31 8.74 8.12 7.69 7.25
1765.015 6.52 5.77 5.36 5.08 4.69 4.27 3.8 3.49 3.3 3.02
1784.305 3 2.92 2.74 2.74 2.79 2.81 2.65 2.5597 2.61 2.67
1803.594 2.4401 2.18 2.1489 2.0992 2.0875 2.1741 2.1431 2.1279 2.0557 1.7722
1822.884 1.9567 2.2516 2.1256 1.9665 1.7948 1.9011 2.005 1.9295 1.9698 1.9012
1842.174 1.9127 1.9859 1.977 1.951 1.8896 1.9791 2.0406 2.0065 2.0685 1.9592
1861.464 1.8528 1.9145 1.8622 1.8802 1.9579 1.9341 1.9213 1.8522 1.814 1.7231
1880.754 1.8344 2.0298 1.8023 1.8048 2.0024 2.0044 1.8955 1.7172 1.59597 1.7005
1900.043 1.65155 1.62341 1.7307 1.65457 1.7017 1.6948 1.6949 1.7019 1.7161 1.59306
1919.333 1.672 1.8474 1.708 1.60982 1.348 1.287 1.474 1.5492 1.6937 1.7965
1938.623 1.7623 1.7682 1.6192 1.5091 1.61776 1.5543 1.392 1.56054 1.7761 1.622
1957.913 1.365 1.281 1.245 1.355 1.375 1.4855 1.7778 1.60495 1.62067 1.7854
1977.202 1.57844 1.3 1.212 1.308 1.349 1.352 1.371 1.474 1.541 1.5043
1996.492 1.4861 1.66817 1.6922 1.4942 1.4778 1.44 1.5217 1.458 1.385 1.4931
2015.782 1.5495 1.4743 1.251 1.212 1.335 1.5449 1.6774 1.5545 1.395 1.381
2035.072 1.289 1.317 1.409 1.425 1.444 1.4703 1.5558 1.56892 1.5237 1.442
2054.362 1.385 1.459 1.56835 1.58276 1.458 1.391 1.335 1.371 1.445 1.56491
2073.651 1.58431 1.336 1.241 1.326 1.5598 1.5192 1.417 1.5559 1.63644 1.529
2092.941 1.56073 1.66834 1.65166 1.60587 1.301 1.254 1.5228 1.66303 1.786 1.7993
2112.231 1.58822 1.5173 1.57841 1.4936 1.463 1.412 1.304 1.5098 1.5508 1.237
2131.521 1.4765 1.7016 1.60486 1.6769 1.62422 1.445 1.62349 1.73 1.57211 1.62686
2150.810 1.7138 1.7919 1.9425 2.0174 1.9426 1.8019 1.8752 2.2075 2.1172 1.9508
2170.100 2.0448 2.0891 2.148 2.1302 2.1551 2.2669 2.3756 2.2634 2.1011 2.2819
2189.390 2.4297 2.4155 2.4739 2.77 2.96 2.9 2.98 3.14 3.34 3.49
2208.680 3.43 3.73 4.05 4.17 4.6 4.93 5.07 4.88 5.15 5.63
2227.970 5.97 6.74 7.26 7.56 8.27 8.89 9.26 9.94 10.59 11.42
2247.259 12.26 13.23 14.48 15.53 16.67 17.71 18.66 19.59 20.53 21.66
2266.549 22.42 22.63 22.74 22.75 22.81 22.6 21.89 21.25 20.61 19.56
2285.839 18.49 17.28 15.76 14.57 13.24 12.02 11.16 10.33 9.47 8.61
2305.129 7.99 7.41 6.92 6.6 5.89 5.46 5.41 4.97 4.78 4.73
2324.418 4.39 4.07 3.86 3.77 3.61 3.24 3.06 3.08 3.02 2.94
2343.708 2.81 2.64 2.62 2.5333 2.4666 2.3926 2.2587 2.0962 2.006 2.1711
2362.998 2.2737 2.2928 2.0413 2.0756 2.3168 1.9342 1.8264 1.9726 1.8205 1.5458
2382.288 1.41 1.5336 1.63103 1.5421 1.447 1.346 1.089 1.325 1.5146 1.4816
2401.578 1.5022 1.457 1.5182 1.60571 1.62418 1.4737 1.5381 1.58104 1.444 1.325
2420.867 1.232 1.5747 1.8941 1.5442 1.15 1.177 1.532 1.5327 1.374 1.375
2440.157 1.465 1.59336 1.64623 1.405 1.067 1.252 1.38 1.185 1.213 1.308
2459.447 1.223 1.469 1.297 0.918 1.003 1.074 1.097 1.236 1.283 1.11
2478.737 1.004 0.95 0.892 0.91 1.04 1.086 1.132 1.212 0.932 0.983
2498.026 0.99 0.999 1.168 1.073 1.175 1.176 1.195 1.166 1.075 1.233
2517.316 1.209 1.113 1.035 1.007 1.053 1.05 1.066 0.951 0.81 0.772
2536.606 1.109 1.122 0.893 0.867 0.884 0.934 0.775 0.805 1.015 1.254
2555.896 1.127 0.984 0.994 0.882 1.276 1.234 0.929 0.945 0.798 0.64
2575.186 0.752 0.955 0.823 0.591 0.44 0.616 1.067 1.073 0.606 0.804
2594.475 1.022 0.659 0.56 0.758 0.894 0.982 0.979 0.822 0.763 0.723
2613.765 0.882 0.883 0.823 0.84 0.684 0.865 1.04 1.02 1.007 0.787
2633.055 0.767 0.777 0.652 0.51 0.894 0.992 0.951 1.136 0.929 0.816
2652.345 0.839 0.912 0.791 0.807 0.736 0.57 0.598 0.684 0.684 0.53
2671.634 0.664 0.93 0.952 1.189 1.158 0.667 0.705 1.099 1.054 0.992
2690.924 0.941 0.625 0.629 0.53 0.6 0.88 1.03 0.917 0.744 0.708
2710.214 0.788 0.769 0.735 0.46 0.37 0.56 0.44 0.755 0.888 0.757
2729.504 0.845 0.974 0.913 0.843 0.95 0.856 0.847 1.056 0.932 0.608
2748.794 0.4 0.36 0.29 0.41 0.571 0.703 0.857 0.631 0.33 0.672
2768.083 1.129 0.814 0.635 0.877 0.813 0.641 0.682 0.697 0.56 0.744
2787.373 1.009 0.868 0.49 0.644 0.8 0.848 0.942 0.875 0.742 0.642
2806.663 0.879 1.169 1.053 0.89 1.235 1.4797 1.464 1.36 0.899 0.774
2825.953 1.143 0.847 0.731 0.86 0.998 1.202 1.198 1.169 1.034 1.173
2845.242 1.318 1.406 1.359 1.444 1.3 1.38 1.9485 1.9413 1.401 1.261
2864.532 1.7092 2.0022 1.9569 2.056 2.1437 2.2452 2.3297 2.1569 2.3665 2.3748
2883.822 2.0049 2.1021 2.4914 2.2672 2.1483 2.4427 2.5415 2.69 2.3737 2.0344
2903.112 1.8282 1.9381 2.78 2.89 2.4773 2.351 2.53 2.59 2.76 2.95
2922.401 3.17 3.04 2.9 3.49 3.56 3.46 3.75 4.2 4.59 4.79
2941.691 5.05 5.27 5.33 5.24 5.56 5.65 5.23 5.13 5.42 5.33
2960.981 4.59 4.5 4.72 3.98 3.89 4.2 3.63 3.47 3.59 3.62
2980.271 3.62 3.78 3.73 3.26 2.95 2.88 2.77 3 3.08 2.74
2999.561 2.5106 2.0368 1.9051 2.204 2.0944 1.9402 1.60626 1.375 1.168 1.105
3018.850 1.64873 1.7855 1.487 1.294 1.407 1.328 1.183 1.252 1.387 1.031
3038.140 1.113 1.5587 1.255 1.349 1.338 0.769 0.758 1.003 0.909 0.927
3057.430 1.056 0.983 0.83 0.51 0.25 0.55 0.574 0.641 0.767 0.9
3076.720 1.287 1.351 1.6858 1.7074 1.8015 1.5175 1.018 1.263 1.383 1.176
3096.009 1.116 1.388 1.139 0.628 0.883 1.154 0.926 1.064 1.378 1.348
3115.299 1.347 1.079 1.18 1.488 1.233 1.103 1.105 1.177 1.269 1.253
3134.589 1.35 1.165 0.98 1.073 0.694 0.786 1.038 0.976 1.081 1.248
3153.879 1.178 0.741 0.626 0.828 0.948 1.106 1.387 1.62138 1.462 1.277
3173.169 1.163 0.915 0.847 0.892 1.022 1.321 1.168 0.641 0.768 0.977
3192.458 0.977 1.236 1.273 1.248 1 1.064 1.334 1.339 1.5053 1.408
3211.748 1.5045 1.149 0.797 0.647 0.647 1.222 1.6807 1.7765 1.239 0.869
3231.038 1.35 1.424 1.17 1.57993 1.56622 1.341 1.25 0.768 0.744 0.902
3250.328 0.57 0.43 0.775 1.15 0.976 1.149 1.7877 1.066 0.625 0.916
3269.617 1.116 1.156 1.277 1.5157 1.136 1.256 1.358 1.415 1.4945 1.442
3288.907 1.416 0.998 0.642 0.5 0.53 1.005 0.996 0.822 1.46 1.431
3308.197 1.05 1.366 1.323 0.984 1.148 1.29 1.13 1.279 1.162 1.13
3327.487 1.096 0.859 1.302 1.4711 1.345 1.397 1.192 0.833 0.884 0.911
3346.777 1.136 1.411 1.119 0.981 0.939 0.862 1.366 2.3067 2.2919 1.58497
3366.066 1.66052 1.64156 1.63329 1.5104 0.971 1.5194 1.66462 1.316 1.5086 1.7535
3385.356 1.58086 1.121 0.971 1.027 1.351 1.417 1.164 1.5072 2.0666 1.7339
3404.646 0.873 0.577 1.4891 1.61395 0.737 0.822 1.021 0.876 1.107 1.305
3423.936 1.56615 2.0906 1.967 1.66802 1.8203 1.8076 1.7237 2.0546 1.8759 1.45
3443.225 1.361 1.5177 2.0973 2.059 0.853 0.56 1.65615 2.187 1.8166 1.9963
3462.515 2.3384 2.253 2.2837 2.4009 2.154 1.555 1.126 1.316 1.58205 1.7303
3481.805 2.1062 1.9879 1.219 0.985 1.64084 1.9571 1.7678 1.428 1.66724 1.9105
3501.095 1.8232 2.052 2.2302 2.1046 2.0899 2.0793 1.7194 1.434 1.8084 2.2746
3520.385 2.0986 1.527 1.223 1.7688 2.0277 1.393 1.112 1.343 1.59191 1.8882
3539.674 1.9557 2.1172 2.0749 1.264 1.072 1.264 1.105 1.221 0.998 1.202
3558.964 2.1327 2.115 1.9152 1.7751 1.59306 1.7993 1.4727 0.965 1.267 1.56772
3578.254 1.394 1.467 1.9781 1.9384 1.442 1.4967 1.346 1.7749 2.73 2.4313
3597.544 1.5137 1.358 1.117 1.078 1.784 1.374 0.714 1.4838 2.0219 1.9716
3616.833 2.0607 1.9348 1.4984 1.61564 2.1805 1.7894 1.56198 1.7064 1.6818 1.7854
3636.123 1.63909 0.809 0.66 1.122 1.089 1.274 0.643 0.683 1.456 1.376
3655.413 1.7159 1.8016 1.447 1.61034 1.9769 1.465 1.4861 1.9758 1.7148 1.5047
3674.703 1.256 1.109 1.006 1.56694 2.5327 2.5603 2.082 1.9509 1.5268 1.227
3693.993 1.5338 1.8248 1.8792 1.8138 1.5453 0.96 1.208 1.8799 1.376 0.667
3713.282 0.92 1.8157 1.8972 1.242 1.277 1.108 0.915 1.202 1.541 1.555
3732.572 1.7633 2.0425 2.088 1.7843 1.409 1.2 1.133 1.301 0.927 0.947
3751.862 1.127 1.5593 1.5236 1.069 1.357 1.427 1.231 0.961 1.305 1.465
3771.152 1.058 1.229 1.61466 1.4844 1.324 1.353 1.5028 0.929 0.63 0.989
3790.441 0.97 1.158 1.013 0.906 1.353 1.57352 1.2 1.06 1.7005 2.146
3809.731 1.9619 1.263 0.889 1.299 1.132 1.41 2.4355 1.9843 1.12 1.193
3829.021 1.202 1.393 1.298 0.873 0.578 1.337 2.123 1.8153 1.5067 1.294
3848.311 0.781 0.583 1.174 1.352 1.292 1.64378 1.377 0.948 1.237 0.802
3867.601 0.31 0.658 1.092 1.5834 1.403 1.6793 1.64935 1.29 1.5389 0.906
3886.890 0.874 1.469 1.135 0.825 0.677 0.78 1.146 1.25 0.99 0.935
3906.180 1.419 1.325 1.112 1.15 1.1 1.098 1.435 1.678 1.468 0.871
3925.470 1.097 1.841 1.089 1.095 1.58433 1.5191 1.63327 1.59811 1.8127 1.7987
3944.760 1.421 1.232 1.197 0.924 1.213 1.012 0.813 0.958 0.991 1.329
3964.049 0.919 0.602 1.038 1.341 1.5994 1.57508 1.7962 1.7241 1.179 1.8724
3983.339 2.2929 1.851 1.443 1.462 1.59205 1.739 2.0816 2.069 1.7201 1.5439
##END=
