##TITLE=6-Methyl-2-heptyne
##JCAMP-DX=4.24
##DATA TYPE=INFRARED SPECTRUM
##ORIGIN=NIST Mass Spectrometry Data Center
##OWNER=NIST Standard Reference Data Program
Collection (C) 2018 copyright by the U.S. Secretary of Commerce
on behalf of the United States of America. All rights reserved.
##CAS REGISTRY NO=51065-64-6
##MOLFORM=C 8 H 14
##$NIST SOURCE=MSDC-IR
##SPECTROMETER/DATA SYSTEM=HP-GC/MS/IRD
##STATE=gas
##XUNITS=1/CM
##YUNITS=ABSORBANCE
##XFACTOR=1.0
##YFACTOR=0.000003600
##DELTAX=4.0
##FIRSTX=550.0
##LASTX=3846.0
##FIRSTY=0.000630
##MAXX=3846
##MINX=550
##MAXY=0.036
##MINY=0
##NPOINTS=825
##XYDATA=(X++(Y..Y))
550.0 175 171 154 143 141 141 116 83 77 91
590.0 66 62 81 65 42 32 26 41 30 14
630.0 8 8 20 8 19 50 40 21 17 32
670.0 37 27 29 32 39 44 53 50 35 29
710.0 42 45 33 36 35 30 42 64 62 50
750.0 66 68 65 73 65 58 58 56 53 49
790.0 55 56 49 31 40 49 38 50 53 31
830.0 27 32 29 35 41 39 50 56 53 59
870.0 68 79 94 95 83 75 69 73 77 73
910.0 87 104 114 122 132 132 120 94 73 73
950.0 81 76 74 79 80 80 82 82 81 82
990.0 87 100 104 109 120 124 125 124 115 91
1030.0 81 69 55 56 54 50 52 56 63 68
1070.0 67 74 80 86 86 92 115 128 144 161
1110.0 167 174 176 164 154 153 142 137 146 157
1150.0 181 213 263 314 338 335 304 249 189 144
1190.0 120 121 132 138 145 148 151 146 136 131
1230.0 133 132 144 158 179 208 218 215 215 204
1270.0 191 186 189 200 225 254 283 318 375 448
1310.0 532 619 700 751 772 775 748 687 653 689
1350.0 748 805 894 994 1067 1126 1236 1345 1352 1297
1390.0 1196 1027 796 607 513 467 476 544 582 618
1430.0 727 859 959 1041 1135 1200 1260 1337 1389 1394
1470.0 1350 1252 1098 919 767 653 560 481 413 389
1510.0 353 306 281 268 253 232 225 254 255 204
1550.0 176 179 198 168 143 145 154 139 117 109
1590.0 103 99 89 87 88 80 84 88 82 76
1630.0 66 73 69 61 69 88 90 66 60 59
1670.0 62 63 57 65 63 43 55 72 59 44
1710.0 44 51 54 39 30 41 46 32 30 29
1750.0 28 27 25 21 19 33 33 21 19 18
1790.0 20 20 16 17 14 16 18 13 13 22
1830.0 25 20 15 22 28 19 13 14 13 18
1870.0 19 10 8 11 12 12 14 12 10 11
1910.0 11 9 9 8 6 2 6 8 7 8
1950.0 7 2 4 8 7 7 8 3 0 1
1990.0 7 7 5 5 5 6 9 7 7 11
2030.0 14 16 26 35 42 49 50 44 39 33
2070.0 24 18 13 10 11 12 11 8 12 14
2110.0 12 9 6 4 5 6 6 8 6 6
2150.0 6 4 3 4 5 8 11 10 13 12
2190.0 7 6 4 8 13 10 12 16 11 12
2230.0 20 18 18 11 6 10 11 14 22 22
2270.0 18 12 13 15 15 16 16 17 21 20
2310.0 14 14 17 25 30 23 19 20 21 22
2350.0 24 29 34 30 28 30 26 25 27 30
2390.0 33 33 33 36 41 43 46 50 48 48
2430.0 49 47 51 47 45 49 48 46 46 54
2470.0 54 54 56 55 53 53 54 56 55 56
2510.0 56 54 52 49 50 51 56 58 58 55
2550.0 58 60 61 63 62 64 72 78 78 84
2590.0 87 94 99 93 88 85 88 96 98 105
2630.0 112 106 110 116 115 120 121 114 114 116
2670.0 115 120 124 125 124 127 134 132 136 145
2710.0 153 163 174 193 212 233 262 279 289 303
2750.0 314 305 279 259 249 248 246 246 255 266
2790.0 280 297 318 343 367 398 435 473 516 573
2830.0 657 764 913 1114 1374 1692 2053 2438 2861 3342
2870.0 3799 4111 4251 4231 4075 3861 3718 3728 3937 4371
2910.0 4990 5787 6746 7806 8867 9669 10000 9930 9504 8871
2950.0 8444 8577 9162 9663 9481 8618 7298 5536 3859 2708
2990.0 1970 1535 1252 1109 995 839 749 659 602 568
3030.0 566 564 499 447 410 394 386 386 386 354
3070.0 316 291 279 274 270 264 258 237 212 206
3110.0 204 202 191 179 181 174 174 176 176 173
3150.0 174 173 168 169 163 163 165 166 165 153
3190.0 146 144 135 126 124 109 94 88 79 71
3230.0 63 60 60 54 51 50 49 48 39 40
3270.0 49 47 44 44 49 48 44 42 49 52
3310.0 54 63 68 73 81 78 77 81 78 68
3350.0 67 67 62 57 44 47 52 53 58 48
3390.0 43 43 33 32 35 37 39 29 30 41
3430.0 38 34 35 41 47 47 38 33 41 41
3470.0 35 36 38 33 23 20 26 27 16 10
3510.0 12 16 15 12 12 9 9 14 15 13
3550.0 7 6 11 29 34 23 16 7 6 24
3590.0 31 20 16 8 15 30 28 23 16 23
3630.0 37 24 13 23 49 42 22 21 12 18
3670.0 30 37 41 39 45 49 32 30 32 25
3710.0 41 34 18 27 38 44 60 51 46 54
3750.0 40 33 32 30 39 42 24 17 17 21
3790.0 33 41 45 64 67 50 51 55 58 58
3830.0 54 61 73 69 53
##END=
