##TITLE=5-Methoxyindane
##JCAMP-DX=4.24
##DATA TYPE=INFRARED SPECTRUM
##ORIGIN=EPA-IR VAPOR PHASE LIBRARY
##OWNER=SRD/NIST
Collection (C) 2018 copyright by the U.S. Secretary of Commerce
on behalf of the United States of America. All rights reserved.
##CAS REGISTRY NO=5111-69-3
##MOLFORM=C 10 H 12 O
##$NIST SOURCE=MSDC-IR
##STATE=gas
##XUNITS=1/CM
##YUNITS=ABSORBANCE
##XFACTOR=1.
##YFACTOR=0.001
##DELTAX=1.92898
##FIRSTX=549.8
##LASTX=4000.7
##FIRSTY=2.68
##MAXX=4000.7
##MINX=549.759
##MAXY=0.22859
##MINY=0
##NPOINTS=1790
##XYDATA=(X++(Y..Y))
549.759 2.68 3.15 3.24 3.34 3.73 4.32 4.41 4.82 5.58 6.41
569.049 6.56 5.98 5.93 6.36 6.65 6.36 6.19 6.51 6.65 6.22
588.339 6.16 6.01 5.44 4.49 4.14 4.35 4.52 4.06 3.32 3.25
607.628 2.84 2.54 2.52 2.86 3.32 3.01 2.56 2.4 2.98 3.12
626.918 2.57 2.94 3.23 3.08 2.78 2.36 2.49 2.26 2.1 2.1
646.208 2 1.8 1.72 1.6 1.3843 1.55 1.79 1.6 1.69 2.2
665.498 1.65 1.3716 1.96 2.56 2.61 2.95 3.17 3.11 3.88 4.75
684.787 5.27 5.69 6.43 7.29 7.98 8.36 8.24 8.04 7.75 7.54
704.077 7.4 7.15 7.36 7.54 7.07 7.48 8.91 9.75 10.62 11.82
723.367 12.96 13.27 13.38 13.83 13.59 12.87 11.63 9.66 8.17 7.05
742.657 6.19 5.88 5.52 5.17 5.26 5.19 5.56 5.92 6.05 6.26
761.947 6.48 6.64 6.51 6.49 6.54 6.56 6.82 7.04 7.23 7.88
781.236 9.05 10.64 11.91 13.43 15.49 17.84 20.59 23.33 25.84 26.93
800.526 27.73 28.8 29.49 30.86 31.95 32.73 33.86 32.82 29.34 26.73
819.816 25.11 23.86 22.91 22.16 21.22 20.43 20.42 20.94 21.76 22.96
839.106 23.75 23.71 23.79 24.38 24.96 25.19 25.47 25.66 26.33 27.03
858.395 27.4 27.95 27.54 25.43 22.85 21.24 20.1 18.38 16.32 14.82
877.685 13.26 11.84 11.33 10.61 9.56 8.7 8.22 8.13 8.22 8.44
896.975 8.22 8.53 9.38 9.45 9.51 9.59 9.95 10.78 11.52 11.99
916.265 12.33 12.35 11.78 11.36 10.73 9.75 8.73 7.39 6.1 5.32
935.555 4.84 4.38 4.02 4.02 3.9 3.41 3.73 4.28 4.15 4.24
954.844 4.14 4.06 4.13 4.27 4.7 4.84 5.02 5.28 5.5 5.6
974.134 5.87 6.08 6.65 7.49 7.65 7.93 8.55 9.08 9.72 9.89
993.424 9.98 10.43 10.79 11.25 11.7 12.66 13.77 14.14 15.12 17.35
1012.714 20.22 22.84 25.79 30.24 35.19 40.19 45.82 51.83 57.83 62.34
1032.003 65.08 67.46 67.62 65.41 62.09 57.55 52.57 47.29 41.73 35.87
1051.293 30.14 25.09 21.63 19.78 18.53 18.4 18.56 18.17 18.28 19.31
1070.583 22.13 25.23 29.31 34.55 39.35 44.12 47.4 49.78 51.78 54.17
1089.873 54.14 50.68 46.66 44.31 42.71 39.2 34.84 30.84 28.31 26.68
1109.163 25.85 25.75 25.71 27.65 30.22 32.89 35.49 38.03 42.07 46.68
1128.452 51.06 56.55 62.87 68.01 72.46 76.22 76.62 75.32 74.05 71.73
1147.742 68.74 64.16 58.07 52.76 47.85 45.24 44.4 42.27 40.7 39.08
1167.032 37.22 35.45 33.1 31.26 31.27 31 31.22 33.04 36.52 40.22
1186.322 42.88 46.02 48.42 49.36 48.89 47.39 46.41 44.53 42.41 40.84
1205.611 38.15 36.69 36.09 34.85 34.04 34.95 35.88 35.52 36.32 38.52
1224.901 41.48 43.73 46.64 52.45 60.78 70.43 80.17 91.68 104.18 116.38
1244.191 128.13 139.26 149.59 157.44 163.29 169.14 172.51 172.98 172.58 170.54
1263.481 167.66 163.59 158.39 153.21 146.78 140 133.49 126.89 120.69 114.8
1282.771 109.41 104.61 100.32 96.65 93.31 89.86 86.36 83.2 79.9 75.51
1302.060 70.3 64.77 59.43 55.13 52.19 50.34 48.92 47.66 46.47 45.62
1321.350 45.02 43.66 41.65 38.97 35.55 31.81 27.69 23.43 19.55 16.34
1340.640 13.74 11.84 10.62 9.88 9.41 9 8.81 8.76 8.68 8.61
1359.930 8.44 8.36 8.23 8.03 7.95 7.78 7.58 7.38 7.13 6.88
1379.219 6.92 7.09 7.03 6.96 7.2 7.42 7.42 7.69 8.11 8.5
1398.509 8.78 9.25 9.92 10.72 11.73 13.13 15.08 17.47 20.43 24.11
1417.799 28.65 33.38 37.74 41.99 46.02 49.42 51.91 53.74 54.59 54.53
1437.089 53.79 52.34 50.44 48.53 47.41 47.14 47.23 47.66 48.19 49.01
1456.378 50.66 53.19 56.41 60 63.29 66.42 70.17 75.16 82.38 92.53
1475.668 105.73 122.23 142.09 165 188.6 208.88 222.66 228.59 227.02 219.61
1494.958 206.22 186.03 159.67 129.44 99.87 75.41 56.9 43.71 34.63 28.18
1514.248 23.65 20.3 17.81 15.89 14.56 13.55 12.62 11.91 11.27 10.84
1533.538 10.31 9.97 9.82 9.52 9.27 9.25 9.47 9.49 9.51 9.96
1552.827 10.35 10.66 11.4 12.11 12.95 14.1 15.68 17.73 20.12 23.02
1572.117 26.15 29.55 33.38 37.27 40.6 43.34 45.81 47.92 49.95 51.73
1591.407 53.11 54.37 55.78 57.83 60.86 64.51 68.53 72.77 76.58 79.11
1610.697 80.18 79.88 77.98 74.48 69.57 63.59 57.02 50.12 43.32 37.23
1629.986 31.89 27.19 23.31 20.17 17.84 15.98 14.46 13.31 12.28 11.48
1649.276 10.6 9.86 9.36 8.72 8.39 8.05 7.65 7.48 6.96 6.43
1668.566 6.22 6 5.73 5.41 5.36 5.21 4.95 4.82 4.5 4.33
1687.856 4.25 4.17 4.26 4.23 4.1 4.24 4.32 4.24 4.24 4.39
1707.146 4.54 4.61 4.79 4.85 4.67 4.73 4.98 4.69 4.42 4.41
1726.435 4.53 4.63 4.45 4.28 4.23 4.22 4.16 4.2 4.1 3.94
1745.725 3.92 3.73 3.63 3.48 3.19 3.08 2.88 2.84 2.81 2.59
1765.015 2.38 2.25 2.29 2.17 2 1.93 1.83 1.99 2.18 2.28
1784.305 2.32 2.27 2.25 2.32 2.35 2.28 2.38 2.38 2.24 2.45
1803.594 2.69 2.69 2.81 2.84 2.69 2.82 2.96 3.03 3.21 3.42
1822.884 3.7 3.85 3.92 4.04 4.1 4.12 4.22 4.32 4.36 4.41
1842.174 4.62 4.68 4.69 4.79 4.66 4.68 4.82 5.15 5.28 5.26
1861.464 5.32 5.23 5.05 4.84 4.94 4.82 4.47 4.43 4.38 4.12
1880.754 3.8 3.54 3.32 3.08 2.89 2.76 2.68 2.55 2.39 2.39
1900.043 2.42 2.28 2.17 2.05 2.12 2.2 2.09 1.96 1.88 2.04
1919.333 2.05 2 2.1 2.07 1.97 1.94 1.83 1.88 2.06 2.06
1938.623 2.15 2.37 2.33 2.1 2.05 2.14 2.3 2.37 2.34 2.41
1957.913 2.51 2.49 2.58 2.65 2.68 2.85 3.02 3 3.03 3.23
1977.202 3.5 3.55 3.37 3.37 3.45 3.64 3.76 3.83 3.97 4
1996.492 3.98 4.05 4.1 4 4 3.99 3.93 3.78 3.66 3.68
2015.782 3.8 3.74 3.54 3.41 3.14 3.14 3.39 3.44 3.48 3.67
2035.072 3.88 3.92 3.89 3.97 4.04 3.94 3.95 4.19 4.45 4.57
2054.362 4.44 4.3 4.44 4.51 4.46 4.56 4.64 4.6 4.44 4.29
2073.651 4.16 3.99 3.83 3.58 3.32 3.05 2.87 2.8 2.68 2.51
2092.941 2.51 2.39 2.04 2.05 2.11 2.05 2.08 2.1 2.21 2.32
2112.231 2.44 2.27 2.14 2.36 2.56 2.52 2.43 2.45 2.36 2.4
2131.521 2.34 2.25 2.32 2.26 2.27 2.53 2.58 2.45 2.5 2.56
2150.810 2.7 2.82 2.83 3.07 3.35 3.43 3.57 3.64 3.69 3.87
2170.100 3.85 3.67 3.72 3.82 3.77 3.82 3.86 3.73 3.6 3.53
2189.390 3.44 3.27 3.07 2.88 2.81 2.75 2.72 2.72 2.63 2.61
2208.680 2.68 2.69 2.56 2.57 2.67 2.67 2.65 2.45 2.21 2.26
2227.970 2.34 2.18 2.06 2.19 2.2 2.09 2.15 1.97 1.78 1.95
2247.259 1.97 1.79 1.71 1.67 1.75 1.65 1.56 1.72 1.67 1.63
2266.549 1.76 1.96 2.04 2 1.84 2.02 2.44 2.52 2.52 2.56
2285.839 2.5 2.39 2.45 2.53 2.64 2.78 2.72 2.77 2.94 2.82
2305.129 2.78 3.04 3.09 2.77 2.53 2.65 2.63 2.68 2.67 2.55
2324.418 2.56 2.74 2.79 2.71 2.82 2.68 2.65 2.56 2.59 2.8
2343.708 2.84 2.63 2.39 2.45 2.61 2.5 2.24 2.21 2.34 2.37
2362.998 2.25 2.06 1.91 1.92 1.99 2.09 2.09 2 2.09 2.08
2382.288 1.89 1.93 2.04 2.04 2.04 2.06 2.03 2.15 2.27 2.1
2401.578 2.12 2.21 2.25 2.34 2.24 2.07 2.16 2.07 1.81 1.96
2420.867 2.23 2.12 2 1.9 2.12 2.15 1.87 1.87 1.92 2.15
2440.157 2.24 2.21 2.14 2.17 2.05 1.89 1.97 1.87 1.88 2.1
2459.447 2.14 2.03 1.9 1.94 2.06 2.12 2.03 1.96 2.05 2.03
2478.737 2 1.94 1.69 1.71 1.93 1.95 2.07 2.17 2.17 2.42
2498.026 2.56 2.51 2.45 2.5 2.43 2.63 2.93 2.85 2.69 2.63
2517.316 2.74 2.7 2.84 2.94 2.9 2.95 2.79 2.85 2.9 2.61
2536.606 2.43 2.28 2.46 2.6 2.62 2.7 2.53 2.7 2.85 2.66
2555.896 2.61 2.78 2.71 2.35 2.4 2.61 2.54 2.55 2.4 2.32
2575.186 2.5 2.59 2.43 2.35 2.57 2.59 2.53 2.51 2.56 2.74
2594.475 2.62 2.51 2.85 3 3.01 2.98 2.69 2.62 2.75 2.87
2613.765 2.97 3.04 2.96 2.93 2.85 2.66 2.68 2.69 2.7 2.8
2633.055 2.84 2.82 2.88 2.74 2.74 2.76 2.8 2.89 2.58 2.4
2652.345 2.62 2.59 2.45 2.53 2.43 2.46 2.7 2.44 2.22 2.62
2671.634 2.89 2.9 2.54 2.21 2.2 2.55 2.75 2.82 2.97 2.77
2690.924 2.61 2.72 2.79 2.71 2.86 3.01 3.03 3.02 3.06 3.26
2710.214 3.42 3.35 3.23 3.14 3.32 3.62 3.4 3.24 3.56 3.6
2729.504 3.39 3.47 3.79 3.69 3.57 3.68 3.71 3.77 3.88 4.07
2748.794 3.97 3.94 4.04 4.01 4.2 4.44 4.63 4.73 4.61 4.62
2768.083 4.99 5.17 5.24 5.52 5.59 5.9 5.83 5.56 6.4 6.91
2787.373 6.81 7.35 7.81 8.02 8.36 8.65 9.06 9.68 10.13 10.51
2806.663 11.22 12.04 13.03 14.1 15.12 16.47 17.81 19.24 21.29 23.94
2825.953 26.96 30.62 35.13 40.36 45.82 51.46 57.31 62.32 67.15 73.14
2845.242 78.86 83.73 87.86 90.31 90.92 90.22 89.1 88.12 86.96 84.76
2864.532 81.59 77.86 74.41 72 69.87 67.55 65.88 64.62 63.96 63.46
2883.822 62.84 62.22 61.59 61.57 62.81 65.41 68.34 71.61 75.43 79.08
2903.112 82.33 85.82 89.32 92.45 95.47 98.27 100.04 101.63 103.25 104.28
2922.401 105.87 107.54 109.45 112.41 116.33 121.53 127.82 134.97 143.06 151.79
2941.691 160.7 169.31 176.8 183.87 191.21 197 200.95 202.74 201.63 199.02
2960.981 195.47 188.44 176.47 161.32 145.63 130.93 117.09 103.54 90.65 79.19
2980.271 69.61 61.78 56.18 53.19 51.46 51.52 53.36 55.73 59.45 63.32
2999.561 65.92 67.31 67.49 66.76 65.34 63.11 59.41 55.24 51.28 47.51
3018.850 44.59 43 42.04 41.07 40.09 39.36 38.31 36.21 34.35 32.73
3038.140 30.76 28.7 27.08 25.68 24.53 23.29 22.09 21.61 21.86 21.91
3057.430 21.9 22.21 22.56 22.74 23.3 23.62 22.94 22.85 22.95 22.77
3076.720 22.82 22.24 21.38 21.12 20.48 19.79 19.15 18.26 16.75 15.97
3096.009 15.45 14.62 14.02 12.86 11.96 11.37 10.47 9.61 8.9 8.27
3115.299 7.82 7.67 7 6.46 6.5 5.99 5.49 5.3 5.04 4.78
3134.589 4.57 4.4 4.38 4.41 4.09 3.83 4.01 3.96 3.56 3.06
3153.879 3.21 3.75 3.37 2.79 2.94 3.21 3.17 2.79 2.56 2.59
3173.169 2.73 2.77 2.37 2.22 2.32 2.17 2.21 2.29 2.14 1.98
3192.458 1.95 1.7 1.69 1.92 1.9 1.58 1.4203 1.57 1.4674 1.74
3211.748 1.72 1.67 1.74 1.4377 1.3975 1.65 1.66 1.338 1.2438 1.62
3231.038 1.97 1.72 1.4649 1.73 1.73 1.2414 1.3367 1.3533 1.2785 1.4437
3250.328 1.7 1.63 1.4762 1.55 0.9838 0.7868 1.3686 1.4552 1.3323 1.424
3269.617 1.5122 1.4732 1.2635 1.2524 1.0492 0.8865 1.2486 1.2917 0.8853 0.61202
3288.907 0.8441 1.2538 1.1218 0.8682 0.60021 0.8687 0.9061 0.7405 0.9938 0.9941
3308.197 1.0628 1.0232 0.7887 0.759 0.9909 0.8997 0.8191 0.769 0.58514 0.7079
3327.487 0.8205 0.7831 0.712 0.471 0.403 0.6893 0.7531 0.9279 1.0392 0.9238
3346.777 1.0167 0.9963 1.1025 1.1994 0.9746 0.6818 0.60294 0.7675 1.0529 1.4731
3366.066 1.3472 0.6566 0.61632 1.0547 0.8 1.0272 1.121 0.8243 1.0414 0.7575
3385.356 0.8178 0.8845 0.7737 0.8458 0.415 0.55847 0.8121 0.7592 0.7626 0.37
3404.646 0.55808 0.6788 0.58953 0.439 0 0.243 0.557 0.7314 0.9067 0.856
3423.936 0.8557 0.7717 0.62871 0.6707 0.6634 0.7699 1.0082 1.0023 0.7727 0.274
3443.225 0.285 0.9741 0.9348 0.7093 0.52623 0.294 0.54256 0.7541 0.7176 0.6758
3462.515 0.7058 1.0322 1.01 0.52895 0.7037 1.2847 1.151 0.53778 0.7888 1.3504
3481.805 1.2902 0.772 0.8528 1.1486 1.0114 1.0057 1.1028 0.8507 0.8887 1.016
3501.095 1.1225 1.0442 0.8878 1.0125 0.8628 0.8796 1.1039 1.58 1.4084 0.8258
3520.385 1.0121 1.2552 1.0809 0.8608 0.8176 0.9004 1.0426 1.383 1.1888 0.8013
3539.674 0.7131 0.7572 0.9174 0.8818 0.8175 0.9053 1.1624 0.9557 0.54619 0.6941
3558.964 0.9258 0.8834 0.6521 0.4422 0.6745 0.8578 0.8325 1.0126 0.9176 1.1271
3578.254 1.4323 1.1654 0.9449 0.60907 0.249 0.452 0.58277 0.7265 1.0974 0.8599
3597.544 0.6861 0.391 0.7979 1.3852 0.413 0.156 0.7266 0.8158 1.0508 1.1151
3616.833 0.9525 1.0199 0.8735 0.8306 1.1772 1.1941 1.1178 1.1791 1.1814 0.9478
3636.123 0.4917 0.339 0.54053 0.8724 0.8718 0.5097 0.7419 0.8459 0.6443 0.4978
3655.413 0.6912 0.9483 0.7107 0.9517 1.2839 1.2605 1.2023 1.1332 0.9102 0.8345
3674.703 1.0341 1.1197 0.9462 1.0096 1.1136 1.1053 1.2679 1.3287 0.9888 0.7438
3693.993 1.034 1.2233 1.0671 0.9597 0.7802 1.0137 1.0679 1.0519 0.9825 0.419
3713.282 0.08 0.54901 1.1808 1.0007 0.9314 0.9095 0.9195 0.8632 0.7149 0.8533
3732.572 0.971 1.2973 1.4174 1.2095 1.4782 1.55 1.2428 1.3068 1.3527 1.5104
3751.862 1.57 1.3221 1.245 1.2318 1.0944 0.705 1.0081 1.3945 1.1722 1.1493
3771.152 1.4028 1.3374 1.0658 1.1396 1.2437 1.2361 0.9384 0.813 1.1995 1.4038
3790.441 1.4583 1.2017 1.2564 1.0607 0.55764 0.8425 1.0472 0.9645 0.7864 1.1735
3809.731 1.4725 1.61 1.53 1.1326 1.2297 1.2029 1.4795 1.83 1.4354 1.114
3829.021 0.9781 0.9922 0.878 0.8101 1.2095 1.3714 1.2038 1.1248 0.9733 0.7577
3848.311 1.4169 1.75 1.3482 1.3588 1.62 1.76 1.76 1.69 1.64 1.97
3867.601 2.08 1.75 1.55 1.55 1.72 1.288 1.0772 1.72 1.67 1.65
3886.890 1.85 2.15 1.96 1.3675 1.4752 1.58 1.81 1.62 1.3992 1.54
3906.180 0.818 0.52526 0.8954 1.2562 1.66 1.71 1.86 2.15 1.69 1.28
3925.470 1.71 1.74 1.1781 1.2699 1.71 1.81 1.21 1.096 1.99 2.13
3944.760 1.87 1.4548 1.4384 1.67 1.7 1.86 1.86 1.54 1.4406 1.71
3964.049 1.89 1.78 1.73 1.76 1.56 1.59 1.99 2.41 2.53 2.38
3983.339 2.16 2.19 2.23 1.96 1.85 1.75 1.71 1.84 2.11 2.47
##END=
