##TITLE=4-Benzyl-4-hydroxypiperidine
##JCAMP-DX=4.24
##DATA TYPE=INFRARED SPECTRUM
##ORIGIN=EPA-IR VAPOR PHASE LIBRARY
##OWNER=SRD/NIST
Collection (C) 2018 copyright by the U.S. Secretary of Commerce
on behalf of the United States of America. All rights reserved.
##CAS REGISTRY NO=51135-96-7
##MOLFORM=C 12 H 17 N O
##$NIST SOURCE=MSDC-IR
##STATE=gas
##XUNITS=1/CM
##YUNITS=ABSORBANCE
##XFACTOR=1.
##YFACTOR=0.001
##DELTAX=1.92898
##FIRSTX=549.8
##LASTX=4000.7
##FIRSTY=2.703
##MAXX=4000.7
##MINX=549.759
##MAXY=0.047683
##MINY=0
##NPOINTS=1790
##XYDATA=(X++(Y..Y))
549.759 2.703 2.463 2.223 2.643 2.483 2.003 2.763 3.223 3.223 3.763
569.049 4.023 4.493 4.603 4.773 5.033 4.643 4.513 4.433 4.163 3.733
588.339 3.373 2.933 3.003 2.753 2.613 2.773 2.283 2.173 2.493 2.893
607.628 2.683 2.493 2.923 3.193 3.323 3.733 4.423 4.483 4.783 5.863
626.918 5.953 5.973 6.193 5.983 5.683 4.753 4.543 4.323 3.253 3.033
646.208 3.473 3.463 2.743 2.313 2.403 2.593 2.483 2.493 2.573 2.493
665.498 2.853 3.373 3.533 3.483 3.693 3.683 3.773 4.293 4.523 5.403
684.787 6.493 7.523 9.353 11.313 13.293 15.533 17.553 19.393 20.793 21.003
704.077 20.733 19.913 18.473 17.443 16.663 15.483 14.393 14.053 13.253 12.043
723.367 11.353 11.103 11.183 10.953 11.053 11.413 11.853 12.703 13.493 14.483
742.657 15.553 16.193 16.823 17.743 18.753 19.603 19.603 19.493 19.183 18.463
761.947 18.183 16.893 15.013 14.033 12.763 11.473 10.513 9.093 8.003 7.223
781.236 6.243 5.593 5.063 4.603 4.513 4.233 3.813 3.993 4.263 3.583
800.526 3.263 3.363 3.353 3.283 2.873 2.723 2.793 2.313 2.243 2.813
819.816 2.823 1.833 1.703 3.503 3.343 2.303 2.043 1.983 2.443 2.523
839.106 2.333 2.303 2.173 2.223 2.443 2.843 3.303 3.153 3.123 3.073
858.395 3.423 3.653 3.433 3.393 3.363 3.603 3.523 3.633 3.733 3.343
877.685 2.883 2.923 2.813 2.303 2.663 2.713 2.263 2.203 2.073 2.083
896.975 2.073 2.033 2.003 1.693 2.163 2.723 2.533 2.223 2.393 2.673
916.265 2.323 2.233 2.123 1.993 2.173 2.353 2.563 2.753 2.533 2.243
935.555 2.533 2.923 2.843 2.893 3.193 3.233 3.363 3.473 4.123 4.603
954.844 4.493 4.863 5.103 5.053 5.033 5.433 6.003 6.313 6.703 7.323
974.134 8.043 8.413 8.723 8.853 8.783 8.303 7.673 7.603 7.153 6.523
993.424 6.193 5.353 4.683 4.363 3.923 3.893 4.413 4.583 4.523 4.643
1012.714 4.093 3.543 3.473 3.433 3.713 4.133 4.413 4.863 4.673 4.353
1032.003 4.463 4.543 4.403 3.853 3.713 3.953 4.133 4.553 4.923 4.683
1051.293 4.903 5.323 4.623 4.833 5.913 5.953 5.993 6.333 6.113 6.183
1070.583 6.463 6.753 7.523 8.213 7.833 7.903 8.633 7.353 5.863 6.213
1089.873 6.643 5.973 5.933 5.923 5.573 4.913 5.503 5.693 4.813 5.303
1109.163 5.053 5.043 5.663 6.423 7.913 8.373 8.403 9.043 9.283 10.043
1128.452 10.903 11.273 11.603 12.143 12.883 12.783 12.633 13.303 12.853 12.133
1147.742 11.923 11.763 11.263 10.493 9.723 9.253 9.663 9.583 8.843 8.343
1167.032 8.153 7.833 8.273 8.303 7.713 7.283 6.603 5.863 5.843 6.793
1186.322 6.673 6.293 6.163 5.993 6.453 5.543 5.073 5.863 5.703 5.723
1205.611 6.233 5.763 5.493 6.093 6.603 6.833 5.753 4.733 5.303 5.513
1224.901 5.273 5.103 5.783 5.393 5.013 4.773 3.923 3.903 3.713 4.473
1244.191 5.123 4.743 4.513 4.563 4.563 4.833 4.933 4.923 5.303 5.243
1263.481 5.163 5.493 5.583 5.603 5.573 5.853 6.093 5.923 5.613 5.453
1282.771 5.653 5.763 5.713 5.723 5.583 5.563 5.733 5.943 6.143 6.163
1302.060 6.263 6.323 6.463 6.833 7.383 7.863 8.523 9.493 10.483 11.133
1321.350 11.443 11.643 11.473 10.983 10.433 9.763 9.013 8.223 7.613 7.313
1340.640 7.053 6.813 6.843 7.073 7.343 7.523 7.613 7.933 8.333 8.463
1359.930 8.563 8.633 8.603 8.453 8.153 7.863 7.673 7.423 7.113 6.833
1379.219 6.473 6.263 6.203 6.073 5.853 5.693 5.473 5.043 4.723 4.443
1398.509 4.263 3.963 3.713 3.733 3.663 3.493 3.493 3.693 3.983 4.353
1417.799 4.693 4.903 5.213 5.513 5.813 6.243 6.733 7.123 7.433 7.823
1437.089 8.353 8.963 9.243 9.413 9.453 9.403 9.093 8.813 8.673 8.213
1456.378 7.713 7.203 6.603 6.093 5.763 5.523 5.413 5.193 4.923 4.663
1475.668 4.393 4.103 4.033 4.253 4.303 4.473 5.133 5.993 6.743 7.243
1494.958 7.483 7.223 6.683 6.063 5.143 4.123 3.183 2.603 2.203 1.663
1514.248 1.473 1.533 1.3765 1.3174 1.2996 1.2583 1.2454 1.0685 0.984 1.0339
1533.538 1.1721 1.3327 1.3875 1.3249 1.341 1.3313 1.2267 1.1598 1.1995 1.2828
1552.827 1.1834 1.1084 1.0983 1.0323 1.1926 1.2532 1.0738 1.1345 1.2707 1.387
1572.117 1.423 1.513 1.573 1.593 1.783 1.903 2.013 2.293 2.623 2.703
1591.407 2.893 3.263 3.493 3.543 3.593 3.713 3.683 3.523 3.293 2.993
1610.697 2.773 2.473 2.013 1.753 1.543 1.2597 1.1033 0.9474 0.9484 1.0908
1629.986 1.0651 1.0341 1.1868 1.1241 0.9304 0.8226 0.7523 0.6469 0.5964 0.7769
1649.276 0.9381 1.0128 0.9507 0.9695 1.1418 1.1353 1.0033 0.9825 0.9533 0.9122
1668.566 0.9665 0.9053 0.8299 0.8708 1.008 1.0204 0.8984 0.858 0.7413 0.7175
1687.856 0.8677 0.952 1.0263 1.041 0.9474 0.872 0.7495 0.724 0.8615 0.8928
1707.146 0.8271 0.7659 0.8682 0.9282 0.8406 0.8433 0.92 0.8662 0.8104 1.0203
1726.435 1.0606 0.9886 1.0058 0.9867 1.0689 1.0188 0.9386 0.9759 0.9924 0.9829
1745.725 0.8787 0.9963 1.2574 1.1996 1.0116 0.9596 0.9152 0.8886 0.9397 1.0725
1765.015 1.1482 0.9507 0.7979 0.8059 0.8432 0.8713 0.7607 0.8316 0.9924 1.0885
1784.305 1.175 1.0811 1.0334 1.0333 1.0912 1.3029 1.523 1.423 1.3131 1.413
1803.594 1.463 1.3783 1.2794 1.3033 1.155 0.9869 0.9467 0.8993 0.9439 0.9408
1822.884 0.9625 1.0914 1.1249 0.9795 0.9013 0.864 0.7516 0.781 0.8295 0.7882
1842.174 0.7718 0.8189 0.8619 0.823 0.8684 0.9176 0.8349 0.8868 1.0187 1.1028
1861.464 1.0922 1.141 1.2818 1.3793 1.3482 1.3029 1.3386 1.3457 1.355 1.3357
1880.754 1.324 1.2951 1.3854 1.443 1.2518 1.1492 1.0856 1.064 1.0118 0.9375
1900.043 0.831 0.8081 0.8423 0.7742 0.7619 0.7686 0.8316 0.8168 0.7401 0.8264
1919.333 0.8574 0.8697 0.9367 0.8233 0.8932 1.2068 1.453 1.493 1.423 1.3708
1938.623 1.433 1.493 1.433 1.473 1.493 1.483 1.533 1.523 1.463 1.3456
1957.913 1.1145 0.9722 1.0294 0.9888 0.8764 0.8546 0.8667 0.7508 0.7078 0.7857
1977.202 0.6965 0.6586 0.5984 0.5941 0.713 0.7557 0.8223 0.8 0.7576 0.7305
1996.492 0.6937 0.6956 0.7033 0.48201 0.3269 0.43407 0.5989 0.7427 0.6984 0.6371
2015.782 0.6946 0.7693 0.6623 0.6141 0.6595 0.6858 0.5607 0.581 0.7128 0.7118
2035.072 0.8439 0.7524 0.6651 0.8062 0.8617 0.8208 0.7651 0.7109 0.6551 0.5752
2054.362 0.6612 0.7727 0.6358 0.47201 0.6307 0.7653 0.6213 0.5413 0.5206 0.5123
2073.651 0.48983 0.5699 0.7331 0.6404 0.5774 0.7149 0.7896 0.6768 0.5668 0.6739
2092.941 0.6879 0.5739 0.6024 0.6153 0.6144 0.6516 0.5639 0.6336 0.7392 0.632
2112.231 0.49573 0.44564 0.5279 0.6709 0.7271 0.7774 0.822 0.9358 0.9832 0.8772
2131.521 0.799 0.7708 0.673 0.5934 0.5912 0.6875 0.8012 0.6591 0.6002 0.6359
2150.810 0.6485 0.5616 0.5372 0.6876 0.7349 0.644 0.5825 0.6148 0.5529 0.47689
2170.100 0.5422 0.5553 0.527 0.45288 0.5454 0.5548 0.50282 0.50284 0.4975 0.5511
2189.390 0.5965 0.7083 0.6847 0.593 0.6184 0.7434 0.6831 0.5638 0.5618 0.5311
2208.680 0.5216 0.5815 0.6307 0.546 0.47274 0.43147 0.5254 0.5806 0.49623 0.5475
2227.970 0.5169 0.47186 0.47937 0.5795 0.6205 0.656 0.7887 0.7799 0.6602 0.7293
2247.259 0.8371 0.6734 0.6184 0.6596 0.5916 0.5185 0.48672 0.50129 0.6234 0.7086
2266.549 0.6058 0.6918 0.8625 0.8042 0.6396 0.7597 0.9139 0.7852 0.7866 0.8307
2285.839 0.71 0.5973 0.7568 0.8492 0.7797 0.826 0.8027 0.7519 0.6867 0.5905
2305.129 0.6638 0.7353 0.7937 0.875 0.8852 0.8465 0.7505 0.8099 0.9433 0.7151
2324.418 0.6389 0.895 0.8435 0.799 0.7695 0.7858 0.9548 0.8845 0.6763 0.6502
2343.708 0.6659 0.6931 0.8299 0.8628 0.8474 0.7537 0.649 0.736 0.6879 0.6093
2362.998 0.621 0.6763 0.6287 0.6642 0.6334 0.5212 0.6483 0.5351 0.6301 0.9479
2382.288 0.9521 0.7236 0.5559 0.6421 0.5904 0.46377 0.5952 0.7923 0.7241 0.5541
2401.578 0.524 0.6512 0.6879 0.5915 0.6286 0.6892 0.6648 0.755 0.723 0.5672
2420.867 0.7023 0.7402 0.672 0.7405 0.7702 0.6366 0.6021 0.5718 0.5298 0.6273
2440.157 0.6049 0.5964 0.6603 0.7426 0.7325 0.6982 0.7237 0.6873 0.6962 0.547
2459.447 0.3845 0.5368 0.6529 0.6978 0.7349 0.8677 0.7906 0.7503 0.8207 0.5747
2478.737 0.631 0.889 0.917 0.787 0.8092 0.7867 0.8473 0.705 0.47242 0.6309
2498.026 0.6615 0.7143 0.9037 0.9891 0.9201 0.7595 0.5797 0.6506 0.6421 0.6432
2517.316 0.7651 0.7102 0.7202 0.6079 0.5776 0.749 0.7269 0.7902 0.7569 0.6129
2536.606 0.7432 0.6852 0.6022 0.8173 0.976 0.9161 0.8572 0.8102 0.6386 0.561
2555.896 0.6127 0.7826 0.7845 0.8198 0.9131 0.6664 0.5595 0.6569 0.8089 1.0479
2575.186 0.974 0.8779 0.9297 0.8178 0.8028 0.9045 0.9032 0.8478 0.9034 0.873
2594.475 0.8042 1.005 1.0512 1.0303 1.0628 0.9445 0.8962 1.1072 1.2215 1.1803
2613.765 1.3636 1.3671 1.1503 1.1874 1.3706 1.423 1.3757 1.2522 1.2351 1.413
2633.055 1.473 1.603 1.663 1.3409 1.2508 1.3437 1.503 1.543 1.433 1.453
2652.345 1.3094 1.2315 1.3482 1.2662 1.0768 1.1494 1.3972 1.453 1.483 1.473
2671.634 1.3231 1.473 1.803 1.693 1.543 1.593 1.573 1.683 1.563 1.483
2690.924 1.543 1.3652 1.3549 1.543 1.743 1.793 1.583 1.803 2.113 1.983
2710.214 1.903 1.953 2.103 2.243 2.283 2.393 2.623 2.463 2.563 3.023
2729.504 3.033 3.143 3.603 3.913 3.873 3.863 4.093 4.263 4.293 4.063
2748.794 3.863 3.853 3.753 3.673 3.603 3.373 3.153 3.093 3.013 2.903
2768.083 2.873 3.253 3.643 3.553 3.743 3.993 3.803 3.783 3.913 4.153
2787.373 4.473 4.813 5.103 5.403 5.713 5.913 6.053 6.443 6.783 7.053
2806.663 7.663 8.193 8.743 9.323 9.943 10.563 11.193 11.963 12.413 12.923
2825.953 13.353 13.663 14.113 14.323 14.133 13.833 13.843 13.753 13.363 12.893
2845.242 12.653 12.393 11.833 11.363 10.813 10.213 9.923 9.813 9.813 9.663
2864.532 9.403 9.423 9.363 9.333 9.693 9.753 9.703 9.793 9.593 9.383
2883.822 9.293 9.233 9.083 8.833 8.603 8.913 9.583 10.223 11.073 12.033
2903.112 12.993 14.163 15.723 17.543 19.503 21.713 23.873 25.863 27.803 29.043
2922.401 29.973 31.423 32.533 33.203 33.833 34.453 35.763 37.283 38.743 40.853
2941.691 42.873 44.583 46.333 47.483 47.683 46.993 44.763 41.443 37.253 32.303
2960.981 27.013 21.813 17.213 13.103 10.143 8.423 6.943 5.273 4.293 3.903
2980.271 3.563 3.283 2.733 2.223 2.333 2.483 2.293 2.153 2.253 2.293
2999.561 2.263 2.133 2.173 2.403 2.583 2.693 3.073 3.593 3.933 4.623
3018.850 5.293 5.853 6.773 7.933 8.983 10.093 10.993 11.413 11.543 11.333
3038.140 10.863 9.873 8.903 8.293 7.293 6.123 5.693 5.493 5.233 5.423
3057.430 5.863 6.413 7.553 8.763 9.903 10.813 11.123 11.453 11.233 10.403
3076.720 9.443 8.603 8.163 7.783 7.213 6.873 6.593 6.243 5.813 5.223
3096.009 4.733 4.123 3.793 3.493 2.903 2.683 2.653 2.623 2.473 2.273
3115.299 1.833 1.593 1.563 1.3403 1.2649 1.0926 0.957 0.9281 1.0623 1.2421
3134.589 1.1571 0.8368 0.6793 0.8306 0.8399 0.564 0.5383 0.8606 0.8271 0.6183
3153.879 0.8601 0.926 0.9203 0.9598 0.6659 0.5383 0.6463 0.7236 0.7338 0.41969
3173.169 0.4971 0.6347 0.48645 0.5769 0.6346 0.548 0.511 0.3876 0.217 0.301
3192.458 0.409507 0.683 0.8417 0.6333 0.412136 0.5212 0.6438 0.7643 0.781 0.39601
3211.748 0.157 0.272 0.5456 0.8045 0.6487 0.48151 0.5257 0.44607 0.6153 0.7705
3231.038 0.5702 0.46771 0.47635 0.47849 0.41636 0.49008 0.6079 0.6451 0.5201 0.3098
3250.328 0.41846 0.5186 0.43964 0.3231 0 0.095 0.8155 0.8719 0.6298 0.5611
3269.617 0.3755 0.7639 1.1684 0.8094 0.7484 0.761 0.5366 0.7506 0.8028 0.5545
3288.907 0.39469 0.47721 0.9567 0.9134 0.8081 0.9986 0.759 0.402476 0.47161 1.0337
3308.197 1.2958 1.3049 1.0921 0.44842 0.410501 0.7448 0.7084 0.6335 0.8655 1.0938
3327.487 0.6091 0.41532 0.6536 0.7969 0.8737 0.7569 0.46976 0.6783 0.6714 0.5288
3346.777 0.8118 0.8345 0.8273 0.7398 0.736 0.9428 1.2139 1.1285 0.9773 0.9087
3366.066 0.7015 0.49698 0.48864 0.7377 0.6499 0.3754 0.5257 0.9059 0.9032 0.6551
3385.356 0.5502 0.5696 0.5631 0.6535 0.7395 0.9399 0.9014 0.48326 0.3569 0.3422
3404.646 0.44656 0.6668 0.7118 0.43849 0.7478 1.2081 0.8954 0.7926 0.7195 0.45558
3423.936 0.6934 0.8128 1.0576 1.0617 0.7968 0.8086 0.822 0.9897 0.7546 0.7304
3443.225 0.8935 0.7087 0.9699 1.366 1.0173 0.8887 0.8576 0.45822 0.5311 0.7795
3462.515 0.9222 0.7442 0.537 0.5231 0.7909 1.2631 1.303 0.8952 0.6971 0.8455
3481.805 0.9627 0.9704 0.932 1.0934 1.1311 0.7517 0.7437 0.8253 0.8597 1.0496
3501.095 0.8416 0.3583 0.28 0.5717 0.48265 0.292 0.239 0.6977 1.1048 0.766
3520.385 0.6905 0.8319 0.49461 0.5528 0.8308 0.7513 1.0166 1.1691 1.031 0.8861
3539.674 0.6838 0.7718 0.9646 0.9273 0.6341 0.6508 0.8856 0.867 0.9567 0.8857
3558.964 0.9715 1.1321 0.5847 0.3066 0.3893 0.44568 0.848 1.337 1.1044 0.8475
3578.254 1.0995 1.066 0.9141 0.9572 1.2916 1.463 1.583 1.693 1.623 1.593
3597.544 1.663 2.143 2.913 3.453 3.713 3.793 4.363 4.673 4.163 4.133
3616.833 4.303 3.893 3.493 3.363 3.333 3.373 3.223 3.033 2.873 2.803
3636.123 2.523 2.293 2.083 1.783 1.853 1.953 1.793 1.853 1.783 1.583
3655.413 1.673 1.513 1.2852 1.079 0.8983 0.7057 0.9845 1.1448 0.9081 0.42005
3674.703 0.099 0.5229 0.5421 0.4661 0.5861 0.6387 0.836 0.6559 0.5152 0.6583
3693.993 0.45305 0.21 0.41635 0.8698 0.7619 0.6367 0.8789 0.7879 0.406451 0.256
3713.282 0.215 0.307 0.539 0.6952 0.8158 0.7887 0.6103 0.3033 0.4413 0.8557
3732.572 0.5728 0.49902 0.3196 0.3822 0.7664 0.6393 0.5974 0.3415 0.191 0.48074
3751.862 0.8094 0.8112 0.575 0.8046 1.0325 0.8715 0.9314 0.8398 0.369 0.3839
3771.152 0.5798 0.6175 0.8713 0.8585 0.42972 0.6035 0.9367 0.7052 0.6109 0.599
3790.441 0.7566 0.6085 0.45226 0.3876 0.3363 0.7747 1.3257 1.0412 0.4558 0.5955
3809.731 0.8723 0.8416 0.6409 0.885 0.7185 0.612 1.1977 1.0073 0.8376 0.8316
3829.021 0.7474 0.9359 0.843 0.46594 0.50039 0.9388 0.9986 0.592 0.6272 0.7377
3848.311 0.3751 0.7554 1.0514 0.8106 0.9357 0.8456 0.5791 0.8577 1.3694 1.1327
3867.601 0.605 0.7689 1.157 1.0076 0.5353 0.3809 0.8508 0.9909 0.8572 0.9998
3886.890 0.9556 0.8219 0.8375 0.8493 0.8442 0.8604 0.5566 0.6586 1.119 0.9191
3906.180 0.8305 1.0804 0.9695 1.0328 0.9489 0.5982 0.7247 0.8961 0.9902 1.2254
3925.470 1.1818 0.8539 0.511 0.509 0.8301 1.0249 0.8119 0.49427 0.7448 0.7424
3944.760 0.47945 0.43898 0.5464 0.47907 0.666 0.9222 0.6477 0.9101 0.9895 0.6663
3964.049 0.5536 0.6542 0.41948 0.45212 1.001 0.7986 0.516 0.23 0.205 0.43428
3983.339 0.7093 0.8684 0.40254 0.5768 0.286 0.252 0.44867 0.016 0.5602 0.9896
##END=
