##TITLE=2,4,4-Trimethyl-1-hexene
##JCAMP-DX=4.24
##DATA TYPE=INFRARED SPECTRUM
##ORIGIN=NIST Mass Spectrometry Data Center
##OWNER=NIST Standard Reference Data Program
Collection (C) 2018 copyright by the U.S. Secretary of Commerce
on behalf of the United States of America. All rights reserved.
##CAS REGISTRY NO=51174-12-0
##MOLFORM=C 9 H 18
##$NIST SOURCE=MSDC-IR
##SPECTROMETER/DATA SYSTEM=HP-GC/MS/IRD
##STATE=gas
##XUNITS=1/CM
##YUNITS=ABSORBANCE
##XFACTOR=1.0
##YFACTOR=0.000002100
##DELTAX=4.0
##FIRSTX=550.0
##LASTX=3846.0
##FIRSTY=0.000160
##MAXX=3846
##MINX=550
##MAXY=0.021
##MINY=0
##NPOINTS=825
##XYDATA=(X++(Y..Y))
550.0 76 133 133 60 63 80 61 73 73 38
590.0 13 37 39 14 11 10 15 35 28 1
630.0 34 47 34 45 18 3 9 14 29 45
670.0 45 51 60 56 64 68 32 1 5 13
710.0 9 1 23 56 51 31 46 70 92 82
750.0 46 46 60 71 89 114 156 186 189 198
790.0 189 154 120 124 132 117 115 100 82 83
830.0 97 90 74 93 124 151 166 208 270 342
870.0 450 629 952 1378 1789 2186 2373 2139 1735 1304
910.0 877 575 403 296 251 228 194 157 147 139
950.0 117 106 105 102 101 120 143 155 172 181
990.0 196 229 258 299 338 355 354 331 284 233
1030.0 191 160 150 160 179 186 188 198 193 174
1070.0 155 136 104 73 65 50 40 48 50 51
1110.0 57 42 40 64 66 63 75 117 149 150
1150.0 149 152 178 198 211 240 289 331 350 365
1190.0 384 387 362 326 296 266 235 207 191 194
1230.0 211 240 274 287 295 300 287 259 228 209
1270.0 197 204 218 220 240 248 249 255 259 267
1310.0 274 274 277 296 321 328 317 323 344 369
1350.0 435 548 698 901 1180 1431 1602 1701 1701 1597
1390.0 1380 1131 907 730 593 508 485 496 518 571
1430.0 650 749 865 998 1148 1312 1489 1654 1768 1823
1470.0 1799 1688 1473 1205 951 726 552 426 336 288
1510.0 241 203 193 183 167 160 152 152 149 149
1550.0 149 144 157 162 160 164 161 160 160 151
1590.0 158 177 192 210 237 273 321 390 475 575
1630.0 685 796 867 864 801 688 545 412 297 220
1670.0 167 137 117 102 88 76 75 67 59 49
1710.0 43 50 54 53 48 43 42 41 39 44
1750.0 52 55 54 57 58 67 87 112 134 161
1790.0 189 196 180 153 126 95 74 64 54 47
1830.0 49 43 34 35 30 16 20 32 33 28
1870.0 27 21 16 22 23 23 20 19 20 18
1910.0 12 14 16 11 15 17 8 11 15 11
1950.0 5 6 9 13 19 18 15 15 14 13
1990.0 14 12 13 10 16 18 14 16 8 7
2030.0 7 5 8 16 24 18 19 18 13 13
2070.0 8 11 17 16 17 16 10 10 14 17
2110.0 14 14 23 17 13 24 22 19 19 12
2150.0 10 13 11 7 10 13 10 14 8 0
2190.0 9 19 23 12 5 4 8 12 1 4
2230.0 21 33 30 24 29 29 17 17 22 16
2270.0 9 16 23 21 20 16 15 16 9 8
2310.0 10 16 21 17 16 17 20 13 10 12
2350.0 17 18 14 23 22 19 27 27 25 26
2390.0 34 29 24 26 22 25 21 20 22 20
2430.0 20 20 20 17 19 27 23 22 28 19
2470.0 18 22 19 16 15 20 26 28 30 23
2510.0 16 25 33 31 31 29 18 13 25 39
2550.0 43 35 27 39 48 40 31 26 25 34
2590.0 42 50 48 45 51 58 65 69 70 71
2630.0 77 80 80 81 80 89 94 94 85 78
2670.0 88 99 91 86 89 87 78 78 92 108
2710.0 117 127 148 163 172 176 184 194 195 191
2750.0 188 193 192 187 192 196 201 206 217 232
2790.0 240 256 288 314 343 389 435 491 551 611
2830.0 709 828 972 1140 1357 1621 1876 2143 2412 2674
2870.0 2935 3180 3436 3665 3847 4006 4165 4383 4634 4938
2910.0 5316 5674 5954 6152 6258 6298 6319 6349 6416 6600
2950.0 6966 7546 8324 9167 9809 10000 9494 8335 6816 5236
2990.0 3876 2867 2196 1725 1381 1130 964 854 773 700
3030.0 634 595 583 584 589 616 648 702 817 1005
3070.0 1233 1409 1500 1475 1309 1061 785 570 448 385
3110.0 335 296 269 249 229 210 193 192 189 172
3150.0 155 143 136 138 140 132 127 128 128 123
3190.0 129 136 130 121 112 113 113 109 104 101
3230.0 90 80 79 94 103 98 80 68 77 82
3270.0 71 60 55 57 61 46 39 54 58 57
3310.0 46 40 42 48 51 45 55 49 32 44
3350.0 61 48 28 28 36 39 38 38 40 49
3390.0 49 26 25 37 31 30 40 37 37 41
3430.0 36 35 28 29 33 24 17 20 23 22
3470.0 10 10 12 17 26 31 33 31 34 32
3510.0 38 32 26 28 28 34 28 33 34 42
3550.0 34 6 9 26 14 0 5 12 13 16
3590.0 35 33 27 32 29 35 38 30 18 19
3630.0 23 20 32 34 30 40 52 46 31 29
3670.0 30 22 16 26 31 38 41 40 33 24
3710.0 23 19 20 25 44 46 41 37 28 45
3750.0 56 30 34 37 20 19 20 19 20 27
3790.0 36 41 39 31 33 30 27 33 47 44
3830.0 56 69 53 43 31
##END=
