##TITLE=Trimethyl phosphate
##JCAMP-DX=4.24
##DATA TYPE=INFRARED SPECTRUM
##ORIGIN=NIST Mass Spectrometry Data Center
##OWNER=NIST Standard Reference Data Program
Collection (C) 2018 copyright by the U.S. Secretary of Commerce
on behalf of the United States of America. All rights reserved.
##CAS REGISTRY NO=512-56-1
##MOLFORM=C 3 H 9 O 4 P
##SOURCE REFERENCE=No.222433 (NIST/EPA/NIH MS Database)
##$NIST SOURCE=MSDC-IR
##SPECTROMETER/DATA SYSTEM=HP-GC/MS/IRD
##STATE=gas
##XUNITS=1/CM
##YUNITS=ABSORBANCE
##XFACTOR=1.0
##YFACTOR=0.000023700
##DELTAX=4.0
##FIRSTX=550.0
##LASTX=3846.0
##FIRSTY=0.001090
##MAXX=3846
##MINX=550
##MAXY=0.237
##MINY=0
##NPOINTS=825
##XYDATA=(X++(Y..Y))
550.0 46 62 42 32 22 18 13 7 5 6
590.0 6 4 3 3 5 3 5 5 4 4
630.0 2 1 4 3 3 5 5 5 4 5
670.0 7 11 12 15 18 21 26 31 37 50
710.0 68 86 113 149 193 243 303 356 394 429
750.0 457 442 371 305 256 200 151 125 117 121
790.0 132 148 169 199 239 300 400 565 831 1242
830.0 1825 2541 3254 3782 3992 3754 3116 2339 1591 990
870.0 614 410 299 235 193 165 144 129 119 112
910.0 104 100 96 92 89 90 92 96 99 104
950.0 110 119 126 135 144 154 168 185 209 238
990.0 273 319 375 448 544 674 857 1124 1520 2111
1030.0 2952 4081 5462 6962 8380 9471 10000 9937 9279 8111
1070.0 6702 5317 4184 3345 2714 2241 1894 1647 1471 1337
1110.0 1230 1141 1061 985 909 833 762 697 639 592
1150.0 555 533 524 534 561 607 668 735 792 827
1190.0 836 810 756 686 608 540 489 452 426 409
1230.0 395 384 376 371 371 382 408 456 544 686
1270.0 889 1133 1385 1656 2017 2274 2274 2280 2305 2243
1310.0 2164 1954 1572 1240 959 672 450 316 245 204
1350.0 178 160 148 138 132 126 122 120 117 115
1390.0 113 111 109 107 105 102 100 100 101 105
1430.0 113 130 156 190 225 260 288 298 295 279
1470.0 258 236 213 192 171 152 135 121 112 105
1510.0 100 96 94 93 93 94 96 97 97 98
1550.0 98 98 96 95 92 90 88 84 81 78
1590.0 73 70 66 62 57 52 47 42 38 35
1630.0 31 29 26 24 23 21 19 19 18 17
1670.0 18 19 18 17 17 16 14 12 11 10
1710.0 9 7 5 5 6 6 6 6 7 10
1750.0 11 13 17 21 26 31 37 44 51 56
1790.0 60 65 66 67 65 61 54 46 38 31
1830.0 25 21 19 18 18 19 20 22 25 29
1870.0 34 40 47 53 60 69 75 80 82 85
1910.0 84 82 79 77 74 69 66 62 58 54
1950.0 48 43 36 31 27 24 20 18 16 14
1990.0 13 12 11 11 10 10 12 13 15 16
2030.0 17 18 17 18 18 15 13 11 9 8
2070.0 8 7 7 8 9 10 11 12 11 12
2110.0 11 11 12 12 11 12 13 12 11 11
2150.0 10 8 6 5 4 2 1 1 2 2
2190.0 1 0 1 1 0 1 0 1 0 0
2230.0 0 0 0 1 1 2 1 1 2 3
2270.0 3 3 4 4 4 5 6 7 6 6
2310.0 7 6 5 4 5 4 3 2 1 3
2350.0 4 4 3 2 1 2 3 2 2 1
2390.0 1 2 2 2 3 4 3 3 4 4
2430.0 3 3 2 2 0 2 3 2 3 4
2470.0 3 2 2 3 4 3 3 4 5 4
2510.0 5 4 5 6 6 5 4 5 6 6
2550.0 5 6 8 9 8 7 8 8 7 7
2590.0 8 10 11 12 13 14 13 14 15 13
2630.0 13 13 14 15 15 14 13 13 12 12
2670.0 12 11 9 10 10 9 9 10 10 9
2710.0 10 9 8 10 11 10 11 12 11 12
2750.0 13 14 15 15 14 15 16 17 20 22
2790.0 23 26 30 35 40 47 54 64 75 86
2830.0 100 119 148 196 271 368 455 522 572 558
2870.0 509 448 354 274 228 209 207 213 224 241
2910.0 261 284 304 323 338 354 378 425 518 678
2950.0 897 1099 1248 1360 1344 1241 1105 903 713 597
2990.0 545 527 523 521 514 504 488 468 445 413
3030.0 376 339 306 278 254 236 225 217 211 207
3070.0 204 197 189 179 168 156 145 134 123 112
3110.0 103 94 86 78 71 63 55 49 43 39
3150.0 36 32 29 26 23 21 18 16 15 14
3190.0 14 13 12 12 11 12 11 9 11 9
3230.0 7 9 10 9 8 8 7 8 8 7
3270.0 8 7 6 6 8 5 3 4 5 6
3310.0 5 3 6 7 6 5 6 7 6 5
3350.0 5 6 7 6 5 6 5 4 3 4
3390.0 3 3 4 5 6 5 6 6 4 4
3430.0 3 4 4 3 3 4 5 4 4 5
3470.0 6 5 4 3 2 4 5 5 4 3
3510.0 4 4 3 4 3 2 3 2 3 4
3550.0 5 5 4 2 2 3 3 2 2 1
3590.0 3 3 1 2 4 2 1 3 3 2
3630.0 2 3 2 1 2 3 2 3 4 2
3670.0 2 3 2 3 2 3 2 3 3 2
3710.0 2 3 5 2 1 3 3 1 3 4
3750.0 4 6 4 4 4 2 1 2 2 3
3790.0 3 2 3 4 4 2 2 1 3 4
3830.0 3 3 2 4 5
##END=
