##TITLE=Amyl phenylacetate
##JCAMP-DX=4.24
##DATA TYPE=INFRARED SPECTRUM
##ORIGIN=NIST Mass Spectrometry Data Center
##OWNER=NIST Standard Reference Data Program
Collection (C) 2018 copyright by the U.S. Secretary of Commerce
on behalf of the United States of America. All rights reserved.
##CAS REGISTRY NO=5137-52-0
##MOLFORM=C 13 H 18 O 2
##$NIST SOURCE=MSDC-IR
##SPECTROMETER/DATA SYSTEM=HP-GC/MS/IRD
##STATE=gas
##XUNITS=1/CM
##YUNITS=ABSORBANCE
##XFACTOR=1.0
##YFACTOR=0.000002300
##DELTAX=4.0
##FIRSTX=550.0
##LASTX=3846.0
##FIRSTY=0.000409
##MAXX=3846
##MINX=550
##MAXY=0.023
##MINY=0
##NPOINTS=825
##XYDATA=(X++(Y..Y))
550.0 178 207 127 111 59 53 72 60 19 14
590.0 39 42 54 72 69 72 122 180 239 289
630.0 314 330 353 311 242 216 198 210 261 319
670.0 401 504 630 825 1135 1521 1879 2117 2270 2347
710.0 2360 2326 2175 1891 1568 1291 1083 900 770 689
750.0 626 579 506 440 384 312 259 218 196 156
790.0 129 142 137 123 113 127 131 141 150 160
830.0 170 170 178 178 193 209 205 212 235 238
870.0 234 238 253 261 263 276 293 303 306 295
910.0 289 294 293 294 280 288 313 324 338 346
950.0 343 360 393 436 529 681 912 1216 1550 1853
990.0 2049 2094 2020 1904 1745 1557 1401 1376 1454 1566
1030.0 1624 1572 1477 1371 1275 1138 979 875 867 930
1070.0 995 1027 1000 928 903 936 980 1082 1231 1413
1110.0 1708 2126 2646 3353 4262 5321 6441 7374 7909 7932
1150.0 7496 6792 5926 5008 4176 3513 3011 2657 2404 2231
1190.0 2141 2128 2199 2345 2569 2860 3198 3585 4062 4650
1230.0 5290 5914 6424 6710 6752 6519 6045 5404 4685 3995
1270.0 3440 3060 2827 2682 2590 2518 2422 2314 2216 2137
1310.0 2083 2052 2046 2048 2041 2006 1923 1794 1620 1412
1350.0 1204 1028 896 816 759 726 737 804 867 879
1390.0 808 684 579 511 477 478 507 562 646 742
1430.0 835 923 979 1020 1081 1147 1218 1271 1274 1231
1470.0 1129 994 876 807 839 1003 1192 1210 1013 689
1510.0 427 309 254 221 202 183 170 162 156 148
1550.0 144 150 151 158 162 163 175 205 248 286
1590.0 334 397 464 499 484 415 327 241 176 145
1630.0 148 147 133 136 144 155 170 179 187 198
1670.0 211 227 249 278 304 349 406 484 591 711
1710.0 860 1032 1251 1542 1927 2480 3319 4562 6267 8167
1750.0 9603 10000 9177 7445 5545 3992 2887 2147 1644 1302
1790.0 1061 870 717 588 483 405 342 292 263 235
1830.0 206 196 187 175 165 164 171 166 160 162
1870.0 162 157 159 153 141 137 126 117 110 104
1910.0 105 105 113 123 131 144 162 176 184 187
1950.0 177 163 144 128 105 88 90 84 81 86
1990.0 84 79 78 76 73 74 66 66 68 74
2030.0 75 75 76 67 57 54 59 57 58 59
2070.0 51 49 48 45 48 53 47 36 42 47
2110.0 35 30 32 28 30 39 33 28 28 18
2150.0 21 30 25 23 35 33 29 27 17 16
2190.0 18 22 27 26 26 28 31 32 33 30
2230.0 25 29 32 38 33 27 38 41 38 42
2270.0 39 33 36 39 41 44 40 34 36 43
2310.0 43 37 38 48 49 53 55 42 40 37
2350.0 42 52 39 37 47 37 29 33 42 33
2390.0 19 16 25 29 34 39 31 35 41 37
2430.0 44 39 28 28 35 37 29 23 20 22
2470.0 19 20 30 28 31 35 34 34 35 37
2510.0 25 19 26 16 13 27 36 32 24 22
2550.0 15 17 21 18 19 24 26 26 40 49
2590.0 44 46 47 49 54 46 45 52 59 60
2630.0 54 59 60 46 36 57 77 71 58 55
2670.0 65 72 69 68 82 83 77 82 76 75
2710.0 71 62 75 88 86 86 101 115 129 134
2750.0 131 128 127 126 122 134 142 141 142 154
2790.0 171 174 180 202 213 225 258 290 314 352
2830.0 396 461 528 597 721 889 1077 1289 1512 1734
2870.0 1918 2048 2135 2157 2121 2053 1991 2005 2115 2265
2910.0 2456 2730 3071 3476 3940 4420 4879 5220 5345 5250
2950.0 5036 4928 5093 5427 5650 5475 4859 3981 3107 2451
2990.0 1952 1564 1306 1108 959 883 879 925 1009 1157
3030.0 1354 1512 1570 1485 1278 1085 993 1021 1135 1329
3070.0 1498 1495 1352 1125 948 838 748 668 582 507
3110.0 434 362 297 227 183 147 121 111 97 99
3150.0 104 88 70 77 87 77 75 68 71 70
3190.0 46 47 54 52 49 36 28 24 24 31
3230.0 41 46 34 24 31 36 39 52 53 36
3270.0 21 3 3 21 25 17 7 0 10 14
3310.0 0 2 17 32 33 39 22 16 47 48
3350.0 36 23 26 40 51 46 27 26 25 22
3390.0 36 44 35 32 37 44 43 23 16 49
3430.0 58 42 29 30 43 49 69 71 70 88
3470.0 90 94 114 117 111 116 111 106 96 94
3510.0 97 82 89 78 47 41 43 43 31 31
3550.0 38 32 58 65 39 36 35 26 19 12
3590.0 42 63 35 24 27 37 46 49 37 20
3630.0 25 31 30 38 44 38 29 35 39 50
3670.0 56 40 26 23 49 67 61 63 60 61
3710.0 63 56 46 41 45 38 29 40 44 49
3750.0 55 55 44 48 69 66 56 39 41 55
3790.0 62 53 36 20 27 46 55 59 57 58
3830.0 73 67 49 42 43
##END=
