##TITLE=5-Bromo-2-fluorotoluene
##JCAMP-DX=4.24
##DATA TYPE=INFRARED SPECTRUM
##ORIGIN=EPA-IR VAPOR PHASE LIBRARY
##OWNER=SRD/NIST
Collection (C) 2018 copyright by the U.S. Secretary of Commerce
on behalf of the United States of America. All rights reserved.
##CAS REGISTRY NO=51437-00-4
##MOLFORM=C 7 H 6 Br F
##$NIST SOURCE=MSDC-IR
##STATE=gas
##XUNITS=1/CM
##YUNITS=ABSORBANCE
##XFACTOR=1.
##YFACTOR=0.001
##DELTAX=1.92898
##FIRSTX=549.8
##LASTX=4000.7
##FIRSTY=9.901
##MAXX=4000.7
##MINX=549.759
##MAXY=0.201611
##MINY=0
##NPOINTS=1790
##XYDATA=(X++(Y..Y))
549.759 9.901 9.681 9.351 8.901 8.271 7.451 6.691 5.531 4.091 2.831
569.049 2.261 2.181 1.641 1.169 1.411 1.451 1.231 1.431 1.551 1.501
588.339 1.631 2.131 2.351 2.191 2.391 2.411 2.541 3.071 3.901 5.311
607.628 7.901 12.191 18.101 25.251 33.141 40.171 44.501 46.001 46.071 44.191
626.918 40.031 33.641 24.521 15.231 8.741 5.351 3.651 2.491 1.851 1.541
646.208 1.341 1.321 1.411 1.431 1.421 1.551 1.431 1.1285 0.9372 0.6692
665.498 0.5835 0.5333 0.23363 0.28266 0.4138 0.26608 0.063 0.034 0.1513 0.1532
684.787 0.30129 0.3933 0.28442 0.30264 0.27862 0.31058 0.4615 0.4767 0.3479 0.3435
704.077 0.4564 0.3529 0.220727 0.23105 0.403 0.5099 0.4369 0.4455 0.5161 0.5843
723.367 0.7623 0.9855 0.9933 1.0022 1.1972 1.321 1.591 2.041 2.731 3.901
742.657 5.781 8.741 12.511 16.471 19.661 21.101 21.061 21.061 21.311 20.401
761.947 16.851 12.181 8.751 6.811 5.551 4.611 4.121 3.741 3.331 3.261
781.236 3.411 3.711 4.391 5.601 7.471 9.961 13.121 16.991 21.511 26.331
800.526 30.791 34.911 38.851 43.841 51.451 59.381 56.701 44.641 37.831 35.491
819.816 32.151 27.951 23.261 18.471 14.111 10.491 7.621 5.581 4.241 3.351
839.106 2.931 2.811 2.901 3.101 3.611 4.531 5.381 6.831 8.901 11.471
858.395 14.961 18.941 23.231 27.061 29.621 31.531 34.151 35.751 32.091 25.891
877.685 20.891 16.791 13.461 10.801 8.631 6.801 5.291 3.971 3.131 2.591
896.975 2.171 1.901 1.761 1.741 1.601 1.421 1.291 1.391 1.371 1.1351
916.265 1.0789 1.0858 1.1856 1.251 1.291 1.461 1.581 1.481 1.581 1.731
935.555 1.501 1.321 1.2156 1.331 1.481 1.481 1.391 1.241 1.241 1.281
954.844 1.331 1.451 1.531 1.571 1.711 1.851 1.961 2.191 2.631 2.841
974.134 2.761 2.911 3.181 3.451 3.791 4.061 4.271 4.511 4.681 4.841
993.424 4.911 4.781 4.671 4.151 3.651 3.291 2.561 2.111 1.991 1.881
1012.714 1.591 1.411 1.561 1.401 1.0823 1.1655 1.271 1.381 1.691 1.711
1032.003 1.651 1.661 1.641 1.711 1.931 1.991 2.111 2.221 2.071 2.471
1051.293 2.621 2.761 3.031 3.501 4.451 5.281 6.651 8.301 10.021 12.051
1070.583 14.041 15.491 16.651 17.421 17.511 17.681 18.271 18.491 18.161 18.031
1089.873 17.551 16.891 16.551 15.971 15.261 14.701 13.711 13.281 14.801 17.531
1109.163 22.041 27.601 32.821 37.051 39.201 39.681 39.271 38.451 36.281 31.801
1128.452 25.991 20.591 16.441 13.551 11.511 9.751 8.351 6.891 5.401 4.491
1147.742 4.101 3.911 3.901 3.921 4.091 4.921 6.351 8.561 12.231 18.131
1167.032 27.191 40.431 57.981 78.591 97.071 108.961 114.141 114.351 112.011 105.721
1186.322 90.851 67.941 44.741 28.061 19.301 15.401 13.861 13.291 12.661 11.871
1205.611 10.971 10.251 10.211 9.721 8.991 8.851 8.931 10.601 13.701 18.221
1224.901 24.961 35.101 48.251 63.181 78.531 92.051 103.431 112.351 118.381 119.431
1244.191 113.621 101.661 86.471 72.441 60.591 49.841 39.211 29.011 21.351 16.731
1263.481 14.041 12.111 10.301 8.561 7.011 5.851 5.051 4.511 4.121 3.521
1282.771 2.971 2.671 2.331 2.081 1.951 1.871 1.881 1.791 1.651 1.751
1302.060 1.871 1.931 1.961 1.971 1.981 1.981 1.961 1.921 1.961 1.921
1321.350 1.741 1.681 1.691 1.671 1.631 1.671 1.781 1.831 1.821 1.941
1340.640 2.141 2.301 2.471 2.701 2.901 3.081 3.251 3.361 3.661 3.951
1359.930 4.171 4.501 4.781 4.961 5.141 5.361 5.631 5.951 6.401 6.911
1379.219 7.531 8.531 9.891 11.581 13.561 15.761 17.841 19.441 20.591 21.371
1398.509 21.691 21.511 20.831 19.671 18.381 17.241 16.371 15.781 15.241 14.671
1417.799 14.141 13.721 13.211 12.391 11.321 10.341 9.661 9.341 9.261 9.271
1437.089 9.251 9.151 9.121 9.221 9.461 9.811 10.331 11.071 12.041 13.411
1456.378 15.361 18.011 21.691 26.831 33.691 42.651 53.441 65.451 77.871 90.391
1475.668 103.951 120.951 141.651 164.011 183.281 195.581 201.171 201.611 196.621 185.151
1494.958 165.631 139.861 113.491 89.071 67.771 51.331 39.691 31.941 26.891 23.311
1514.248 20.591 18.341 16.251 14.491 13.161 12.191 11.491 10.911 10.391 9.881
1533.538 9.321 8.651 8.001 7.521 6.991 6.491 6.101 5.651 5.311 5.031
1552.827 4.801 4.651 4.591 4.661 4.681 4.641 4.781 4.981 5.111 5.341
1572.117 5.611 5.871 6.181 6.431 6.571 6.671 6.631 6.511 6.431 6.261
1591.407 6.001 5.701 5.461 5.381 5.331 5.401 5.641 5.731 5.791 5.961
1610.697 6.091 6.081 6.061 5.751 5.251 4.781 4.311 3.971 3.701 3.411
1629.986 3.041 2.621 2.261 1.991 1.701 1.391 1.281 1.2089 1.0697 0.9748
1649.276 0.9041 0.9408 1.0029 1.0024 0.9762 0.9802 0.9669 0.9384 0.9909 1.0498
1668.566 1.1989 1.341 1.341 1.371 1.461 1.501 1.471 1.531 1.571 1.491
1687.856 1.491 1.431 1.421 1.431 1.281 1.261 1.291 1.241 1.1663 1.1038
1707.146 1.0499 1.0111 1.1212 1.1686 1.2009 1.411 1.641 1.911 2.191 2.541
1726.435 3.031 3.591 4.151 4.611 5.021 5.281 5.251 5.031 4.791 4.511
1745.725 4.111 3.521 2.831 2.181 1.701 1.381 1.1163 0.9511 0.8524 0.7514
1765.015 0.6876 0.6372 0.5959 0.5967 0.5659 0.5377 0.5212 0.5089 0.5039 0.5197
1784.305 0.5949 0.6532 0.7036 0.7697 0.8449 0.9212 0.9857 1.0076 1.0167 1.0918
1803.594 1.0971 1.0719 1.0397 0.9886 0.8874 0.8005 0.8266 0.7765 0.6113 0.5813
1822.884 0.617 0.6327 0.7153 0.7214 0.7176 0.8122 0.9388 1.1052 1.281 1.401
1842.174 1.621 1.941 2.181 2.491 2.891 3.241 3.641 4.031 4.291 4.461
1861.464 4.551 4.541 4.361 4.191 4.091 3.821 3.391 2.901 2.451 2.141
1880.754 1.791 1.431 1.2085 0.9817 0.8331 0.8037 0.7605 0.6914 0.6177 0.5299
1900.043 0.5063 0.5671 0.557 0.5216 0.5272 0.4866 0.5342 0.5811 0.5332 0.5138
1919.333 0.5501 0.5814 0.6124 0.6406 0.5566 0.534 0.5673 0.5631 0.6189 0.5957
1938.623 0.5757 0.6082 0.558 0.4867 0.4528 0.4649 0.4552 0.4107 0.3914 0.4425
1957.913 0.4672 0.4402 0.4418 0.4416 0.4518 0.5001 0.5223 0.5257 0.5592 0.6281
1977.202 0.7397 0.8449 0.9591 1.1789 1.371 1.491 1.601 1.691 1.801 1.841
1996.492 1.761 1.681 1.601 1.481 1.311 1.1848 1.1138 1.0097 0.9243 0.8213
2015.782 0.7247 0.6424 0.5403 0.4789 0.4985 0.4808 0.4184 0.3804 0.31952 0.3483
2035.072 0.4011 0.3693 0.3283 0.3258 0.3556 0.3392 0.3222 0.3563 0.3788 0.381
2054.362 0.3502 0.27675 0.25381 0.28096 0.26234 0.2982 0.3767 0.31472 0.2377 0.26232
2073.651 0.27793 0.31293 0.31205 0.25843 0.30183 0.27958 0.28055 0.3452 0.3575 0.344
2092.941 0.30522 0.31432 0.3407 0.3703 0.4313 0.5218 0.5697 0.6331 0.6808 0.6896
2112.231 0.7276 0.6706 0.6384 0.6538 0.6231 0.5794 0.5151 0.5045 0.5146 0.4706
2131.521 0.4558 0.4721 0.5168 0.5149 0.4539 0.4531 0.4871 0.5248 0.4707 0.3961
2150.810 0.3681 0.3767 0.3605 0.28464 0.24652 0.28769 0.3357 0.3431 0.3281 0.3418
2170.100 0.3729 0.3354 0.3222 0.31379 0.24027 0.21649 0.22592 0.223567 0.27019 0.3222
2189.390 0.3398 0.2963 0.24952 0.27244 0.3443 0.447 0.4578 0.3956 0.3522 0.3523
2208.680 0.4149 0.4753 0.5325 0.5979 0.6363 0.7078 0.7938 0.7934 0.7731 0.8529
2227.970 0.9336 1.03 1.0734 1.0608 1.1352 1.201 1.241 1.251 1.311 1.351
2247.259 1.251 1.1434 1.1287 1.0934 1.0269 1.0834 1.0602 0.9303 0.9399 0.936
2266.549 0.8515 0.7898 0.7433 0.6849 0.7037 0.6545 0.5613 0.5345 0.4893 0.5057
2285.839 0.5347 0.5286 0.4931 0.49 0.5168 0.4978 0.4979 0.5604 0.5803 0.5573
2305.129 0.5135 0.5127 0.5454 0.5313 0.5383 0.5644 0.6145 0.6259 0.6454 0.702
2324.418 0.7144 0.724 0.7641 0.7887 0.8725 0.9015 0.8393 0.9248 0.992 0.9559
2343.708 0.9261 0.9314 0.9591 0.9164 0.8795 0.9594 0.9898 0.9524 0.9341 0.8867
2362.998 0.8581 0.8025 0.7493 0.7012 0.7009 0.6987 0.6477 0.6934 0.6806 0.5874
2382.288 0.5412 0.5948 0.6492 0.6454 0.6472 0.6555 0.5925 0.6151 0.6701 0.6823
2401.578 0.7352 0.7385 0.7272 0.7607 0.835 0.9025 0.94 0.9018 0.907 1.0523
2420.867 1.0794 0.9847 0.9439 0.8861 0.8578 0.8801 0.8166 0.7826 0.8901 0.9341
2440.157 0.9077 0.9052 0.9816 0.9821 0.9828 1.0994 1.0825 1.086 1.1553 1.1714
2459.447 1.1249 1.2069 1.351 1.361 1.431 1.581 1.601 1.601 1.701 1.741
2478.737 1.761 1.781 1.701 1.591 1.481 1.351 1.231 1.2207 1.1629 1.0873
2498.026 1.0668 0.9639 1.0174 1.0322 0.8388 0.7423 0.7949 0.8162 0.7083 0.713
2517.316 0.839 0.8064 0.6935 0.5788 0.5834 0.6444 0.6386 0.6616 0.6173 0.5693
2536.606 0.5712 0.5406 0.5895 0.623 0.6168 0.6403 0.7117 0.6861 0.6463 0.7064
2555.896 0.7022 0.7446 0.8124 0.7 0.6282 0.696 0.7025 0.7203 0.6702 0.5556
2575.186 0.5113 0.5596 0.5576 0.5418 0.5291 0.509 0.468 0.3619 0.402 0.4084
2594.475 0.4348 0.5555 0.575 0.536 0.4307 0.397 0.5373 0.5803 0.503 0.4054
2613.765 0.3487 0.3689 0.3675 0.4023 0.46 0.4301 0.376 0.3807 0.4358 0.4317
2633.055 0.3679 0.4616 0.573 0.5313 0.3864 0.4396 0.6408 0.6351 0.5489 0.5644
2652.345 0.5403 0.4158 0.4724 0.564 0.5617 0.6263 0.6622 0.5684 0.4431 0.4967
2671.634 0.5628 0.526 0.4448 0.4589 0.4845 0.3738 0.3753 0.3619 0.3606 0.4392
2690.924 0.5017 0.5443 0.5784 0.5553 0.4585 0.5483 0.6115 0.5055 0.414 0.4202
2710.214 0.4964 0.5315 0.5832 0.6803 0.6713 0.6264 0.6575 0.7251 0.8077 0.869
2729.504 0.8405 0.8201 0.8351 0.9017 1.0184 1.035 1.0818 1.0828 1.0523 1.091
2748.794 1.241 1.361 1.381 1.281 1.164 1.261 1.261 1.1345 1.0599 1.016
2768.083 0.9629 0.9219 0.865 0.8332 0.8172 0.8127 0.8258 0.7656 0.7414 0.7813
2787.373 0.8347 0.8684 0.8589 0.8235 0.8563 0.8855 0.8872 0.8911 0.8903 0.9721
2806.663 1.0378 1.0352 1.0139 1.0104 1.0801 1.1531 1.241 1.301 1.261 1.301
2825.953 1.421 1.441 1.481 1.611 1.711 1.791 1.831 1.861 2.021 2.161
2845.242 2.321 2.591 2.751 2.871 3.121 3.491 3.731 4.031 4.531 4.971
2864.532 5.391 5.881 6.351 6.761 7.111 7.451 7.721 7.831 7.801 7.691
2883.822 7.501 7.201 6.931 6.731 6.551 6.481 6.411 6.371 6.371 6.391
2903.112 6.431 6.581 6.701 6.711 6.851 7.141 7.561 8.061 8.571 9.151
2922.401 9.811 10.601 11.461 12.551 13.781 15.001 16.411 17.661 18.681 19.271
2941.691 19.281 19.131 18.751 17.961 16.861 15.411 13.981 12.671 11.381 10.451
2960.981 9.861 9.431 9.051 8.711 8.671 8.801 8.701 8.361 8.151 8.021
2980.271 7.901 7.951 8.001 7.871 7.831 7.881 7.751 7.521 7.311 7.041
2999.561 6.571 6.161 5.711 5.161 4.731 4.371 4.131 3.871 3.551 3.351
3018.850 3.441 3.561 3.501 3.511 3.671 3.821 3.921 4.051 4.471 4.791
3038.140 4.951 5.211 5.411 5.661 5.801 6.001 6.171 6.231 6.311 6.391
3057.430 6.491 6.461 6.381 6.371 6.421 6.251 5.931 5.861 5.751 5.271
3076.720 4.901 4.771 4.661 4.341 3.961 3.711 3.661 3.661 3.481 3.361
3096.009 3.221 3.051 3.091 3.021 2.851 2.651 2.391 2.201 2.011 1.981
3115.299 1.831 1.531 1.431 1.421 1.331 1.2165 1.0864 0.9192 0.8213 0.8037
3134.589 0.7129 0.6658 0.69 0.6361 0.6384 0.6301 0.7023 0.7046 0.5242 0.5276
3153.879 0.553 0.4485 0.4289 0.4051 0.4493 0.5168 0.6042 0.6538 0.5026 0.4208
3173.169 0.31598 0.23529 0.29982 0.3847 0.4369 0.4045 0.4099 0.425 0.4166 0.3798
3192.458 0.3899 0.4462 0.4312 0.3314 0.31894 0.4543 0.4951 0.395 0.3984 0.3484
3211.748 0.31497 0.3461 0.29424 0.3335 0.24094 0.121 0.24406 0.30676 0.32018 0.2104
3231.038 0.1703 0.3622 0.4499 0.26225 0.1556 0.30565 0.29393 0.2643 0.2949 0.2039
3250.328 0.057 0.12 0.24635 0.3252 0.3801 0.3233 0.29641 0.28431 0.1644 0.1449
3269.617 0.1628 0.1809 0.220785 0.2532 0.387 0.29287 0.082 0.087 0.1929 0.1669
3288.907 0.1862 0.23997 0.31317 0.4221 0.4248 0.2953 0.1909 0.3467 0.4405 0.31759
3308.197 0.21484 0.1916 0.1844 0.24008 0.31944 0.25541 0.1949 0.28613 0.31478 0.2041
3327.487 0.105 0.21353 0.25915 0.1724 0.24681 0.3294 0.4504 0.5434 0.4625 0.31081
3346.777 0.28375 0.3352 0.27592 0.1943 0.21137 0.27261 0.21428 0.23879 0.31903 0.26732
3366.066 0.1567 0.2101 0.1714 0.068 0.1964 0.24338 0.30173 0.3277 0.21622 0.151
3385.356 0.25706 0.29069 0.31271 0.4238 0.3355 0.1413 0.05 0.058 0.096 0.1862
3404.646 0.24746 0.25375 0.2383 0.1789 0.1567 0.2738 0.25716 0.1231 0.102 0.1498
3423.936 0.23288 0.25369 0.228499 0.30476 0.4512 0.4223 0.2091 0.112 0.1763 0.1845
3443.225 0.1381 0.062 0.1578 0.4103 0.4145 0.29238 0.23847 0.1683 0 0.083
3462.515 0.27678 0.30749 0.3431 0.3612 0.3782 0.3285 0.3476 0.3473 0.3235 0.3678
3481.805 0.3434 0.26978 0.30157 0.29202 0.1957 0.25527 0.30271 0.21595 0.228585 0.3471
3501.095 0.3627 0.29204 0.16 0.1725 0.28554 0.3396 0.30077 0.1929 0.23892 0.27347
3520.385 0.28419 0.4122 0.3618 0.25758 0.3831 0.5138 0.43 0.31606 0.28592 0.24323
3539.674 0.1524 0.086 0.15 0.198 0.1664 0.2038 0.26168 0.1689 0.028 0.098
3558.964 0.3222 0.3077 0.28489 0.30253 0.1561 0.038 0.112 0.1464 0.1649 0.23612
3578.254 0.31168 0.3743 0.28869 0.24567 0.3085 0.26289 0.1422 0.224891 0.21682 0.1503
3597.544 0.228141 0.30001 0.3579 0.3206 0.3308 0.3116 0.1915 0.26447 0.2932 0.23802
3616.833 0.28176 0.4019 0.332 0.1998 0.21406 0.29866 0.3432 0.28414 0.30234 0.27508
3636.123 0.34 0.4322 0.226921 0.102 0.230115 0.221995 0.3241 0.5359 0.4295 0.5012
3655.413 0.5574 0.3998 0.25839 0.31396 0.3896 0.24938 0.2022 0.1939 0.1947 0.3291
3674.703 0.4474 0.5428 0.5222 0.388 0.27294 0.29627 0.3289 0.1982 0.3365 0.4248
3693.993 0.29226 0.25881 0.5267 0.5432 0.3244 0.4678 0.4467 0.30664 0.4105 0.4663
3713.282 0.3586 0.4497 0.4813 0.29444 0.21229 0.1877 0.25859 0.3333 0.4097 0.3845
3732.572 0.2017 0.221194 0.27738 0.29013 0.3375 0.3731 0.4257 0.4559 0.3909 0.3934
3751.862 0.4093 0.4141 0.3637 0.187 0.2829 0.3748 0.3226 0.24112 0.108 0.1245
3771.152 0.3305 0.3751 0.1908 0.1595 0.269 0.3299 0.4121 0.436 0.3825 0.24737
3790.441 0.1829 0.30281 0.3145 0.1848 0.1797 0.223978 0.1764 0.26714 0.3512 0.3369
3809.731 0.3358 0.3602 0.29217 0.24651 0.3818 0.4483 0.3548 0.28295 0.2765 0.3318
3829.021 0.3341 0.4118 0.4154 0.3815 0.3755 0.3561 0.4066 0.28216 0.1769 0.3818
3848.311 0.4607 0.3686 0.4591 0.4756 0.5947 0.6233 0.4108 0.4078 0.4604 0.3503
3867.601 0.3916 0.3591 0.3176 0.4007 0.28281 0.091 0.1602 0.419 0.5094 0.3575
3886.890 0.23855 0.21234 0.26598 0.4774 0.4653 0.4905 0.5092 0.444 0.5095 0.4455
3906.180 0.3729 0.41 0.5281 0.5415 0.6175 0.7283 0.6654 0.7559 0.8896 0.774
3925.470 0.6964 0.8178 0.8047 0.8569 0.884 0.8068 0.8854 0.9234 0.9226 0.84
3944.760 0.8155 0.9018 0.849 0.7102 0.7618 0.759 0.8971 0.9801 0.8374 0.8021
3964.049 0.7359 0.6551 0.6579 0.6231 0.6419 0.6581 0.4169 0.3684 0.4554 0.4718
3983.339 0.5662 0.667 0.6812 0.7454 0.5712 0.3809 0.4731 0.5362 0.6156 0.5881
##END=
