##TITLE=2,4,6-Trichlorobenzenesulphonyl chloride
##JCAMP-DX=4.24
##DATA TYPE=INFRARED SPECTRUM
##ORIGIN=EPA-IR VAPOR PHASE LIBRARY
##OWNER=SRD/NIST
Collection (C) 2018 copyright by the U.S. Secretary of Commerce
on behalf of the United States of America. All rights reserved.
##CAS REGISTRY NO=51527-73-2
##MOLFORM=C 6 H 2 Cl 4 O 2 S
##$NIST SOURCE=MSDC-IR
##STATE=gas
##XUNITS=1/CM
##YUNITS=ABSORBANCE
##XFACTOR=1.
##YFACTOR=0.001
##DELTAX=1.92898
##FIRSTX=549.8
##LASTX=4000.7
##FIRSTY=23.267
##MAXX=4000.7
##MINX=549.759
##MAXY=0.137307
##MINY=0
##NPOINTS=1790
##XYDATA=(X++(Y..Y))
549.759 23.267 22.337 21.577 20.807 18.657 16.607 15.287 14.767 14.027 13.977
569.049 15.917 18.847 24.297 31.987 41.567 52.807 63.937 76.667 83.177 72.497
588.339 58.867 49.857 40.847 33.467 28.977 28.697 32.777 40.947 54.357 74.177
607.628 97.097 117.467 130.107 131.977 121.827 102.817 78.357 53.247 34.377 22.777
626.918 15.927 11.497 9.027 7.767 6.657 5.947 5.557 5.297 4.647 4.557
646.208 5.067 4.597 3.957 3.687 3.857 3.307 2.937 3.927 4.567 4.217
665.498 3.617 3.147 3.077 3.147 2.717 1.9587 1.5089 1.5814 1.7586 1.6874
684.787 1.3258 1.2896 1.5087 1.5786 1.5967 1.882 2.217 2.647 3.657 4.657
704.077 5.077 5.097 4.537 4.457 4.407 3.477 2.597 2.767 2.727 2.357
723.367 2.477 1.997 2.117 2.367 1.9233 1.7247 1.5977 1.4763 1.8829 2.387
742.657 2.667 2.847 2.687 2.657 2.787 2.887 2.927 2.347 1.885 2.457
761.947 2.957 2.527 2.217 2.227 2.567 3.387 3.617 3.867 4.517 4.687
781.236 5.447 7.027 8.677 10.427 12.527 15.357 18.917 22.187 25.157 27.917
800.526 30.027 31.847 32.817 32.727 31.767 29.697 27.437 25.667 23.827 22.117
819.816 22.657 24.007 25.397 28.227 31.757 38.167 46.207 55.047 63.757 69.557
839.106 72.167 70.247 64.027 54.537 43.987 34.827 28.287 24.877 24.547 25.547
858.395 26.857 28.417 31.047 33.047 28.937 23.047 19.047 15.097 11.707 9.217
877.685 7.477 6.587 5.987 5.467 5.297 4.907 4.637 4.087 3.687 3.517
896.975 3.007 2.657 2.657 2.797 2.527 2.227 2.027 1.997 2.157 1.8716
916.265 1.2426 1.1989 1.4085 1.2524 1.3807 1.5446 1.3393 1.1136 1.3262 1.5235
935.555 1.4188 1.4241 1.0906 0.98473 1.02619 0.567 0.687 1.1668 1.2506 1.3641
954.844 1.0717 0.9421 1.5086 1.6146 1.4857 1.3781 1.1749 0.818 0.8722 1.3454
974.134 1.4494 1.1878 0.725 0.697 1.3691 1.4595 1.1579 1.2287 1.6411 1.9488
993.424 1.852 1.804 1.7635 1.6464 1.5115 1.3389 0.9245 1.1842 1.8767 1.6699
1012.714 1.7711 1.7797 1.3705 2.257 3.237 3.377 4.647 5.997 6.347 6.927
1032.003 7.857 8.407 7.777 6.407 5.247 4.547 3.047 1.896 2.097 2.157
1051.293 2.127 2.287 2.457 2.377 1.7797 1.7344 2.017 2.297 2.647 1.7132
1070.583 1.2369 2.347 2.397 2.797 2.957 2.817 2.707 2.797 3.407 2.897
1089.873 2.157 2.977 4.427 4.777 4.467 4.347 5.547 5.757 5.467 5.537
1109.163 5.777 6.017 5.717 6.827 6.807 6.427 7.207 7.577 8.417 8.787
1128.452 8.577 9.077 10.717 13.227 17.107 22.127 27.257 32.077 35.817 38.637
1147.742 39.237 37.087 32.407 26.057 20.297 15.607 12.437 10.627 10.157 10.567
1167.032 11.047 11.457 12.857 15.167 18.557 23.387 28.657 35.987 45.097 53.727
1186.322 62.937 73.747 83.657 91.637 95.797 94.387 88.327 76.617 62.387 49.657
1205.611 38.437 29.907 24.127 19.407 16.087 15.887 16.767 16.257 17.007 17.427
1224.901 17.247 18.667 19.197 18.247 15.947 14.337 13.017 10.697 9.367 9.047
1244.191 8.067 6.987 6.507 5.697 4.877 4.527 4.667 4.327 3.607 3.737
1263.481 3.937 3.607 3.747 3.287 2.577 2.907 3.157 2.957 2.757 2.467
1282.771 2.077 1.977 1.9334 1.9368 1.928 1.7757 1.6448 1.6784 1.6527 1.8755
1302.060 2.417 2.667 2.597 2.707 2.867 3.227 3.657 3.847 4.107 4.537
1321.350 5.057 5.447 5.967 6.497 6.887 7.357 7.967 8.507 8.977 9.697
1340.640 10.637 11.567 12.667 14.137 16.267 19.307 22.637 26.287 29.807 32.247
1359.930 33.057 31.107 28.257 26.057 23.847 21.767 20.087 19.047 18.487 18.137
1379.219 17.927 17.887 18.127 18.537 19.077 19.717 20.577 21.747 23.017 24.707
1398.509 26.877 30.107 34.927 42.357 53.607 69.597 90.247 112.707 130.457 137.307
1417.799 134.187 125.477 108.637 82.787 56.437 36.817 24.167 16.887 12.817 10.337
1437.089 8.777 7.857 7.067 6.527 5.977 5.477 5.187 4.997 4.647 4.197
1456.378 4.147 4.147 3.977 3.887 3.857 3.967 4.117 3.997 3.927 4.007
1475.668 4.047 4.057 3.927 3.837 3.667 3.617 3.417 3.267 3.517 3.547
1494.958 3.767 3.997 4.097 4.477 4.817 5.267 5.787 6.387 7.227 8.387
1514.248 9.777 11.507 14.037 17.127 21.417 27.007 33.867 42.397 52.167 62.247
1533.538 71.597 78.507 81.647 81.347 77.877 72.177 66.117 62.767 63.907 69.427
1552.827 77.937 87.887 96.447 102.207 103.977 101.287 94.347 84.177 72.187 59.627
1572.117 48.347 38.787 30.157 23.087 17.907 13.967 11.297 9.547 8.507 7.937
1591.407 7.257 6.627 6.487 6.307 5.967 5.927 5.837 5.737 5.437 5.167
1610.697 4.777 4.097 3.617 3.367 3.127 2.947 2.817 2.557 2.437 2.437
1629.986 2.387 2.257 2.317 2.307 2.207 2.247 2.457 2.447 2.237 2.197
1649.276 2.147 2.007 1.9125 1.9667 1.9433 1.9506 2.087 1.987 1.8181 1.967
1668.566 2.067 1.977 1.977 1.8897 1.8104 1.9527 1.987 1.8617 1.7138 1.7268
1687.856 1.8175 1.7604 1.6413 1.6134 1.5651 1.6252 1.6186 1.5975 1.8418 1.8268
1707.146 1.8549 2.017 2.027 2.167 2.347 2.517 2.767 3.137 3.537 3.857
1726.435 3.977 4.157 4.297 4.337 4.287 3.907 3.557 3.207 3.007 2.717
1745.725 2.407 2.287 2.067 1.7412 1.6035 1.5772 1.5587 1.5694 1.4343 1.1684
1765.015 1.1328 1.292 1.2421 1.2191 1.3462 1.3239 1.2082 1.0935 1.086 1.1265
1784.305 1.1559 1.1746 1.1929 1.1378 1.03695 1.0798 1.1173 1.2397 1.3156 1.2479
1803.594 1.3214 1.382 1.2618 1.2296 1.2512 1.1593 1.01961 1.03438 1.2683 1.2733
1822.884 1.1559 1.2182 1.1612 1.06264 0.861 0.718 0.807 0.969627 1.02721 1.1208
1842.174 1.1376 1.05161 1.02375 1.0988 1.09 0.9206 0.9366 1.04156 1.1535 1.06181
1861.464 1.01576 1.1497 1.1395 1.2503 1.4161 1.3603 1.4062 1.3789 1.2575 1.222
1880.754 1.1499 1.05217 1.0972 1.1454 1.193 1.1667 1.2387 1.3137 1.3574 1.5112
1900.043 1.3084 1.1441 1.129 1.0724 1.209 1.3538 1.2169 1.1393 1.3211 1.4202
1919.333 1.3147 1.2979 1.3901 1.4321 1.4185 1.4889 1.4863 1.4632 1.5864 1.5462
1938.623 1.4274 1.5174 1.6479 1.5529 1.579 1.5066 1.2505 1.3298 1.4644 1.4294
1957.913 1.2655 1.1714 1.2194 1.2509 1.2673 1.2028 1.1062 1.1031 1.2053 1.2613
1977.202 1.1874 1.2109 1.127 1.1975 1.2521 1.1419 1.1602 1.0676 1.1096 1.1223
1996.492 1.01224 1.03706 0.98702 1.0042 1.1193 1.0677 0.98581 0.836 0.762 0.745
2015.782 0.8837 0.9386 0.805 0.81 0.759 0.635 0.567 0.59 0.662 0.778
2035.072 0.815 0.9117 0.9911 0.806 0.681 0.777 0.767 0.674 0.78 0.8968
2054.362 0.9022 0.8823 0.856 0.9094 0.9189 0.82 0.839 0.847 0.8925 0.9445
2073.651 0.9457 0.9384 0.835 0.657 0.766 0.8915 0.65 0.703 0.8885 0.8688
2092.941 0.83 0.9024 0.99263 0.9014 0.731 0.784 0.795 0.801 0.825 0.772
2112.231 0.819 0.733 0.78 0.8734 0.805 0.775 0.754 0.746 0.771 0.843
2131.521 0.9343 0.816 0.838 0.9364 0.856 0.99764 1.1158 1.02032 1.01011 1.1996
2150.810 1.1935 1.2019 1.2988 1.19 1.02378 1.00055 1.01867 1.00118 0.974845 0.8781
2170.100 0.8848 0.84 0.706 0.82 0.8952 0.821 0.9294 0.97912 1.03524 0.9484
2189.390 0.825 0.882 0.9223 0.86 0.8751 0.821 0.61 0.67 0.752 0.778
2208.680 0.813 0.8829 1.03592 1.02679 1.00147 0.9356 0.865 0.96396 0.923 0.8936
2227.970 0.9039 0.8965 0.8861 0.849 0.823 0.79 0.694 0.732 0.970699 0.9088
2247.259 0.759 0.816 0.8872 0.9513 0.752 0.502 0.72 0.781 0.544 0.584
2266.549 0.68 0.722 0.575 0.386 0.544 0.801 0.817 0.645 0.633 0.84
2285.839 0.96033 0.786 0.763 0.821 0.755 0.818 0.777 0.805 0.9086 0.9209
2305.129 1.1036 1.1961 1.05962 0.86 0.78 0.864 0.773 0.789 0.99625 0.9092
2324.418 0.78 0.828 0.768 0.502 0.451 0.675 0.74 0.97922 1.1247 0.9178
2343.708 0.857 0.789 0.808 0.973413 1.02519 0.95899 1.0709 1.1482 0.96561 0.9039
2362.998 0.9407 1.1222 1.2207 1.0767 1.06043 0.9428 0.9066 1.0773 1.0795 0.9466
2382.288 0.829 1.0752 1.1194 0.9311 0.803 0.748 0.9134 0.95 0.782 0.767
2401.578 1.03577 1.05246 0.798 0.764 0.841 0.828 0.751 0.8808 0.975008 0.95721
2420.867 1.078 0.9922 0.969326 0.99313 1.00867 0.8912 0.779 0.776 0.574 0.665
2440.157 0.8774 0.801 0.8812 0.9084 0.856 0.861 0.734 0.8847 1.01666 1.05204
2459.447 1.06147 1.05938 1.2417 1.1778 1.02828 1.018 1.2932 1.5115 1.442 1.526
2478.737 1.5908 1.4882 1.408 1.3364 1.249 1.2756 1.2382 1.1575 1.0563 1.05251
2498.026 1.1009 1.03488 1.03029 1.1896 1.1591 0.9537 1.0797 1.0755 0.9533 0.98769
2517.316 0.974725 0.9265 0.9357 0.903 0.9383 0.796 0.589 0.647 0.671 0.9066
2536.606 1.1404 1.2331 1.0821 0.924 0.9365 0.876 1.2685 1.3608 1.0094 0.863
2555.896 0.864 0.8715 0.9152 0.9085 0.98647 1.2386 1.1537 1.0497 1.1002 1.0808
2575.186 1.1435 1.3035 1.341 1.3409 1.2389 1.3993 1.5888 1.415 1.3709 1.4523
2594.475 1.6788 2.077 2.007 1.8868 1.9246 1.7382 1.5365 1.4547 1.5439 1.5737
2613.765 1.5292 1.1603 1.01583 1.1643 1.05975 1.254 1.1642 0.9007 0.85 0.9102
2633.055 1.03745 1.1336 1.0917 0.976199 1.1735 1.2321 0.9868 1.0869 1.2148 0.8704
2652.345 0.98068 1.32 1.1984 0.859 0.856 1.03913 0.98713 0.8768 0.818 0.619
2671.634 0.655 0.795 0.639 0.595 0.494 0.639 0.796 0.728 0.795 0.83
2690.924 1.0916 1.096 0.772 0.525 0.656 0.804 0.683 0.754 0.599 0.33
2710.214 0.716 1.06123 0.9415 0.654 0.49 0.556 0.498 0.555 0.619 0.859
2729.504 0.731 0.5 0.344 0.355 0.683 0.789 0.693 0.521 0.8907 0.9035
2748.794 0.749 0.9074 0.768 0.691 0.748 0.682 0.766 0.8788 0.98444 1.1084
2768.083 1.01253 0.98454 0.98435 0.9479 0.9357 0.789 0.742 0.655 0.637 0.827
2787.373 0.9374 0.9204 0.533 0.388 0.644 0.811 0.98319 0.8689 0.779 0.9456
2806.663 0.862 0.658 0.603 0.702 0.531 0.338 0.513 0.9116 0.9397 0.707
2825.953 0.451 0.49 0.571 0.52 0.9286 0.76 0.531 0.472 0.635 0.96386
2845.242 0.737 0.584 0.515 0.629 0.755 0.66 0.542 0.652 0.758 0.845
2864.532 1.1335 0.822 0.656 0.768 0.575 0.415 0.465 0.691 0.733 0.49
2883.822 0.33 0.572 0.801 0.526 0.368 0.269 0.395 0.819 0.63 0.463
2903.112 0.485 0.732 0.9046 0.8775 0.785 0.681 0.8855 1.03877 1.02134 0.852
2922.401 0.789 1.3492 1.5973 1.1227 0.807 1.05219 1.2363 1.1838 0.81 0.838
2941.691 1.03067 0.9421 0.9337 0.741 0.831 0.816 0.809 0.825 0.796 0.8745
2960.981 0.885 1.00567 0.9283 0.512 0.343 0.835 1.2407 1.05616 0.866 0.731
2980.271 0.72 0.8769 0.9183 0.672 0.782 0.68 0.668 0.9348 0.828 0.845
2999.561 0.714 0.829 0.729 0.493 0.56 0.489 0.633 0.9368 0.865 0.745
3018.850 0.85 0.8 0.976143 1.0241 0.926 0.635 0.581 0.704 0.771 0.816
3038.140 0.66 0.686 0.768 0.778 0.755 0.664 0.651 0.8888 1.1119 1.1296
3057.430 0.851 0.972285 1.3388 1.4677 1.4218 1.6018 1.5486 1.2239 1.3229 1.8925
3076.720 2.017 1.8518 1.6462 1.34 1.3506 1.1552 1.1067 1.2508 1.4311 1.43
3096.009 1.338 1.6782 2.097 2.157 1.7392 1.563 1.871 2.127 2.417 2.277
3115.299 1.861 1.8086 1.7324 1.5223 1.3786 1.3246 1.5061 1.5854 1.579 1.2204
3134.589 0.749 0.9318 0.916 0.9435 1.2026 1.2579 1.4019 1.0703 0.654 0.743
3153.879 0.358 0.163 0.248 0.222 0.248 0.386 0.583 0.509 0.606 0.447
3173.169 0.34 0.462 0.614 0.837 0.9176 0.9239 0.98062 1.0917 1.2137 0.8964
3192.458 0.554 0.765 0.749 1.05386 1.00687 0.641 0.747 0.572 0.697 0.554
3211.748 0.396 0.4 0.496 0.542 0.412 0.63 0.593 0.425 0.304 0.199
3231.038 0.21 0.585 1.04909 1.02178 0.587 0.453 0.386 0.209 0.145 0.066
3250.328 0.548 0.797 0.71 0.9225 0.796 0.35 0.346 0.8765 0.712 0.523
3269.617 0.642 0.562 0.737 0.99714 0.99303 0.864 0.811 0.653 0.735 0.727
3288.907 0.514 0.467 0.513 0.678 0.561 0.469 0.419 0.32 0.388 0.247
3308.197 0.371 0.806 0.814 0.8702 1.1522 1.05687 0.584 0.287 0.142 0.27
3327.487 0.645 0.518 0.222 0.281 0.316 0.189 0.549 0.575 0.249 0.328
3346.777 0.326 0.508 0.818 0.8916 1.0685 0.862 0.554 0.505 0.771 0.9283
3366.066 0.459 0.588 0.796 0.704 0.826 0.705 0.769 0.84 0.418 0.377
3385.356 0.581 0.738 1.1843 1.5408 1.0727 0.704 0.675 0.64 0.8775 0.655
3404.646 0.561 0.492 0.43 0.267 0.35 0.824 0.784 0.492 0.512 0.65
3423.936 0.665 0.837 0.9972 0.99336 0.734 0.689 0.667 0.564 0.728 0.9514
3443.225 0.788 0.663 0.674 0.9105 1.00834 0.9432 0.81 0.86 1.3263 1.1708
3462.515 0.71 0.556 0.814 1.02649 0.9523 1.03884 0.847 0.538 0.549 0.707
3481.805 0.715 0.452 0.674 1.05839 0.842 0.412 0.433 0.716 0.715 0.706
3501.095 0.464 0.262 0.586 0.851 1.1265 1.0678 0.762 0.427 0.446 0.9484
3520.385 0.657 0.417 0.8888 0.9315 0.44 0.77 1.1394 0.73 0.397 0.644
3539.674 0.8747 0.529 0.36 0.698 0.812 1.00843 1.0916 1.0717 1.2325 1.1967
3558.964 1.04052 0.478 0.284 0.639 0.744 0.611 0.594 0.388 0.235 0.339
3578.254 0.363 0.359 0.447 0.677 0.971218 0.791 0.555 0.848 0.9356 0.648
3597.544 0.535 0.408 0.305 0.495 0.754 0.658 0.777 0.744 0.39 0.384
3616.833 0.382 0.648 0.857 0.626 0.47 0.447 0.312 0.355 0.967117 1.2031
3636.123 0.99022 1.2407 1.1554 1.0976 1.1262 0.802 0.562 0.528 0.635 0.281
3655.413 0.375 0.664 0.241 0.308 0.702 0.9354 1.0874 1.1013 1.1902 0.847
3674.703 0.704 0.778 0.578 0.605 0.576 0.554 0.839 0.806 0.536 0.537
3693.993 0.614 0.62 0.9091 1.1501 1.1507 0.971657 0.448 0.379 0.705 1.02645
3713.282 1.294 1.144 0.647 0.408 0.16 0 0.311 0.458 0.651 0.773
3732.572 1.2013 1.3089 0.777 0.8846 1.02198 0.8998 0.675 0.545 0.863 0.789
3751.862 0.194 0.349 0.970498 1.2581 0.789 0.257 0.339 0.851 1.02628 1.0337
3771.152 1.0744 0.823 0.81 0.557 0.343 0.357 0.312 0.712 0.822 0.9319
3790.441 0.8953 0.737 0.9449 0.836 0.62 0.607 0.663 0.72 0.736 1.02834
3809.731 0.967549 0.597 0.555 0.735 1.2102 0.924 0.646 0.8908 0.9136 0.727
3829.021 0.567 0.266 0.456 0.74 0.24 0.126 0.58 0.98066 1.4351 1.3332
3848.311 1.1533 1.05161 0.56 0.373 0.596 0.9016 0.9281 1.176 1.04723 0.9829
3867.601 1.1093 1.0843 0.9483 0.865 1.1591 0.813 0.8736 1.06696 0.722 0.834
3886.890 0.78 0.491 0.368 0.354 0.523 0.8799 1.05778 0.716 0.273 0.704
3906.180 0.9031 0.642 1.1318 0.783 0.283 0.322 0.552 1.4939 1.3457 0.679
3925.470 0.483 0.379 0.766 0.8787 1.1737 1.05177 0.9175 0.98196 0.798 0.749
3944.760 0.623 0.797 1.1939 1.2564 1.2374 1.2403 0.569 0.202 0.668 0.9184
3964.049 0.75 0.717 0.8959 1.4058 1.1036 0.663 0.707 0.609 0.377 0.399
3983.339 0.9087 1.3109 1.2407 0.98152 0.98246 0.557 0.408 0.8872 1.1482 1.0719
##END=
