##TITLE=p-Bromophenyloctane
##JCAMP-DX=4.24
##DATA TYPE=INFRARED SPECTRUM
##ORIGIN=EPA-IR VAPOR PHASE LIBRARY
##OWNER=SRD/NIST
Collection (C) 2018 copyright by the U.S. Secretary of Commerce
on behalf of the United States of America. All rights reserved.
##CAS REGISTRY NO=51554-93-9
##MOLFORM=C14 H21 Br
##$NIST SOURCE=MSDC-IR
##STATE=gas
##XUNITS=1/CM
##YUNITS=ABSORBANCE
##XFACTOR=1.
##YFACTOR=0.001
##DELTAX=1.92898
##FIRSTX=549.8
##LASTX=4000.7
##FIRSTY=0.5269
##MAXX=4000.7
##MINX=549.759
##MAXY=0.085874
##MINY=0
##NPOINTS=1790
##XYDATA=(X++(Y..Y))
549.759 0.5269 0.23926 0.27222 0.27534 0 0.082 0.5295 0.4867 0.1583 0.2275
569.049 0.4734 0.509 0.5133 0.4735 0.1677 0.2281 0.3984 0.3232 0.4802 0.56
588.339 0.7011 1.039 1.0689 1.294 1.674 1.904 2.054 2.004 1.954 1.554
607.628 1.1112 0.9929 1.1524 1.0105 0.7507 0.7928 1.0912 1.2059 1.244 1.554
626.918 1.604 1.874 2.124 2.034 1.814 1.494 1.0923 0.9235 0.8998 0.7194
646.208 0.5662 0.5765 0.6185 0.5498 0.5322 0.5061 0.5775 0.4716 0.2886 0.249863
665.498 0.4225 0.4881 0.5498 0.6725 0.5882 0.5516 0.506 0.503 0.546 0.4866
684.787 0.4872 0.4394 0.4805 0.6921 0.6852 0.6718 0.7901 0.9598 0.9744 0.9193
704.077 1.0674 1.304 1.424 1.454 1.594 1.804 1.844 1.754 1.874 1.864
723.367 1.644 1.634 1.664 1.644 1.664 1.684 1.544 1.464 1.484 1.374
742.657 1.344 1.544 1.774 1.664 1.654 1.794 1.784 1.844 1.904 2.094
761.947 2.254 2.374 2.584 2.774 3.054 3.284 3.674 3.924 4.084 4.444
781.236 4.844 5.184 5.204 5.244 5.614 6.134 6.564 6.854 7.094 7.204
800.526 7.434 7.684 7.814 7.824 7.554 7.434 7.334 7.244 7.064 6.844
819.816 6.724 6.634 6.664 6.434 6.164 5.984 5.504 5.134 4.804 4.334
839.106 3.874 3.504 3.244 2.944 2.834 2.674 2.364 1.944 1.714 1.804
858.395 1.724 1.584 1.614 1.624 1.424 1.2405 1.264 1.284 1.1627 0.9827
877.685 0.8679 1.0011 1.1024 0.9736 0.9033 0.9125 0.8387 0.7494 0.8769 0.994
896.975 0.9974 0.9542 0.8263 0.9342 0.9547 0.7998 0.7253 0.7596 0.9436 0.9828
916.265 0.8251 0.6133 0.6896 0.9123 1.0155 1.0134 0.8929 0.8335 0.65 0.6039
935.555 0.6704 0.7047 0.8278 0.809 0.7816 0.8308 0.8902 0.9712 0.9316 0.6964
954.844 0.6213 0.7781 0.7277 0.7354 0.7162 0.668 0.7662 0.6826 0.5574 0.5787
974.134 0.6979 0.6523 0.5927 0.6773 0.6945 0.6261 0.7208 0.9187 1.1158 1.1966
993.424 1.239 1.344 1.854 2.584 3.274 4.584 6.924 10.974 16.544 20.604
1012.714 21.224 18.884 13.394 7.654 4.574 3.094 2.134 1.844 1.794 1.344
1032.003 1.0728 1.0056 1.0525 1.2276 1.2236 1.1519 1.354 1.454 1.404 1.564
1051.293 1.404 1.484 2.104 2.234 2.394 3.014 3.674 4.834 7.014 9.894
1070.583 13.344 16.324 17.544 16.454 13.364 9.404 6.554 5.194 4.514 4.144
1089.873 3.284 2.714 2.564 2.064 1.714 1.744 1.694 1.754 1.974 2.084
1109.163 2.614 2.664 2.054 1.714 1.754 1.764 1.434 1.167 0.8776 0.7134
1128.452 0.9673 0.9816 0.8625 1.0981 0.905 0.9122 1.0269 0.8904 0.8738 0.9925
1147.742 0.8769 0.26639 0.1938 0.4355 0.5413 0.4534 0.3743 0.7004 0.8195 0.8643
1167.032 1.0031 0.8824 0.9631 1.1577 1.0008 0.8069 0.8302 1.404 1.814 1.644
1186.322 1.664 1.884 2.134 2.334 2.384 2.394 2.134 1.724 1.554 1.504
1205.611 1.584 1.564 1.524 1.594 1.654 1.494 1.824 2.404 2.184 1.914
1224.901 2.014 2.174 1.874 1.474 1.218 1.128 1.324 1.0844 1.0297 1.008
1244.191 1.0105 1.1002 0.9862 0.8604 0.7993 0.9562 0.9918 0.9059 0.9008 0.8954
1263.481 0.9506 1.1256 1.1325 1.148 1.1889 1.1422 1.187 1.344 1.344 1.314
1282.771 1.344 1.284 1.1797 1.2109 1.364 1.524 1.554 1.544 1.534 1.574
1302.060 1.664 1.724 1.764 1.724 1.734 1.804 1.804 1.804 1.854 1.864
1321.350 1.834 1.864 1.954 2.034 2.144 2.254 2.404 2.554 2.634 2.744
1340.640 2.844 2.964 3.064 3.154 3.214 3.264 3.254 3.214 3.204 3.144
1359.930 3.024 2.954 2.864 2.754 2.744 2.754 2.724 2.654 2.604 2.664
1379.219 2.744 2.894 2.984 2.964 2.984 2.974 2.994 2.994 3.054 3.164
1398.509 3.214 3.214 3.284 3.284 3.134 2.984 2.884 2.784 2.624 2.494
1417.799 2.374 2.334 2.334 2.334 2.384 2.464 2.574 2.774 3.024 3.324
1437.089 3.734 4.124 4.574 5.134 5.744 6.264 6.724 7.204 7.604 7.964
1456.378 8.304 8.604 8.874 9.034 9.054 9.054 9.054 9.114 9.314 9.714
1475.668 10.424 11.794 13.804 16.594 20.304 24.534 28.194 29.644 28.024 23.784
1494.958 18.034 12.424 8.534 6.174 4.704 3.794 3.174 2.694 2.314 2.024
1514.248 1.824 1.664 1.544 1.434 1.344 1.2352 1.1813 1.1513 1.0348 0.9729
1533.538 0.9945 0.9468 0.8745 0.855 0.8161 0.8388 0.8437 0.7545 0.7635 0.8089
1552.827 0.7259 0.7318 0.8714 0.8006 0.6929 0.7225 0.7752 0.7822 0.7972 0.8457
1572.117 0.8692 0.9416 0.9892 1.0204 1.0572 1.0735 1.2262 1.394 1.484 1.554
1591.407 1.554 1.554 1.504 1.424 1.354 1.1792 1.1029 1.0302 0.855 0.8142
1610.697 0.869 0.9183 0.8689 0.7801 0.8554 0.9725 0.9532 0.9367 0.9593 0.973
1629.986 0.9352 0.9067 0.9785 0.9536 0.9417 0.9127 0.8113 0.8204 0.7926 0.7849
1649.276 0.7998 0.7695 0.7046 0.6631 0.6803 0.6849 0.5928 0.5505 0.6184 0.6317
1668.566 0.5663 0.4951 0.5202 0.5765 0.5872 0.506 0.4314 0.4464 0.4411 0.4402
1687.856 0.4126 0.3924 0.3978 0.4508 0.4907 0.4704 0.3769 0.34394 0.369 0.33524
1707.146 0.4095 0.4466 0.4143 0.3766 0.3814 0.4193 0.4005 0.3576 0.4141 0.4298
1726.435 0.3695 0.33566 0.32646 0.3594 0.3557 0.3722 0.4417 0.4605 0.4829 0.507
1745.725 0.4773 0.4642 0.4967 0.4787 0.4398 0.4653 0.4959 0.5841 0.7122 0.8068
1765.015 0.8948 0.9528 1.0064 1.0392 0.9991 0.9539 0.8668 0.716 0.5554 0.4746
1784.305 0.3998 0.3559 0.3868 0.3484 0.31986 0.356 0.389 0.3565 0.34206 0.3852
1803.594 0.3879 0.33935 0.29123 0.32547 0.3697 0.3856 0.361 0.28012 0.27007 0.3609
1822.884 0.3729 0.33094 0.3454 0.33279 0.3284 0.33376 0.3652 0.3728 0.33575 0.3749
1842.174 0.3939 0.3664 0.3715 0.3584 0.3672 0.33961 0.3785 0.4755 0.4714 0.4831
1861.464 0.5016 0.5142 0.5949 0.6567 0.6553 0.6973 0.7963 0.827 0.8448 0.9868
1880.754 1.1282 1.211 1.274 1.344 1.404 1.404 1.374 1.304 1.1658 1.0215
1900.043 0.9076 0.8204 0.7307 0.6408 0.6025 0.5845 0.5629 0.5451 0.4915 0.4637
1919.333 0.4396 0.4189 0.4624 0.418 0.3464 0.3833 0.3955 0.33809 0.3559 0.4119
1938.623 0.3527 0.3648 0.32374 0.2689 0.3803 0.3508 0.28326 0.3647 0.3899 0.3522
1957.913 0.3717 0.4024 0.3594 0.3318 0.3341 0.29572 0.31313 0.3601 0.3717 0.345
1977.202 0.32065 0.318 0.29696 0.32009 0.250041 0.253108 0.3469 0.29737 0.30309 0.3471
1996.492 0.4042 0.34185 0.27152 0.3347 0.3757 0.3589 0.33036 0.3731 0.3802 0.32725
2015.782 0.27814 0.31426 0.3588 0.3971 0.4386 0.4618 0.4313 0.3603 0.3826 0.3957
2035.072 0.3828 0.3925 0.4073 0.4322 0.4133 0.3853 0.4148 0.4428 0.4363 0.3708
2054.362 0.3576 0.3943 0.4296 0.4468 0.4028 0.3876 0.4059 0.4189 0.3697 0.32587
2073.651 0.3565 0.3821 0.3832 0.3686 0.3788 0.4073 0.4277 0.4163 0.3883 0.3596
2092.941 0.3686 0.4102 0.4651 0.4973 0.4629 0.4046 0.3727 0.34215 0.30598 0.3448
2112.231 0.358 0.31103 0.3693 0.4612 0.4207 0.357 0.3788 0.4324 0.4533 0.4178
2131.521 0.4246 0.3893 0.3603 0.3784 0.34147 0.34346 0.3779 0.3887 0.4146 0.4368
2150.810 0.3842 0.3532 0.3626 0.3448 0.3595 0.4041 0.3873 0.3561 0.4225 0.4579
2170.100 0.34278 0.28663 0.33467 0.3776 0.3979 0.3814 0.3565 0.3566 0.3953 0.4269
2189.390 0.4035 0.3751 0.3483 0.3695 0.3775 0.3693 0.4076 0.4089 0.357 0.31259
2208.680 0.313 0.417 0.4516 0.3524 0.3867 0.3727 0.3251 0.3945 0.3745 0.3828
2227.970 0.4021 0.33726 0.4006 0.4298 0.3786 0.3776 0.4421 0.4974 0.5169 0.4718
2247.259 0.3448 0.3244 0.4065 0.4451 0.4143 0.3629 0.4021 0.4935 0.513 0.4735
2266.549 0.4363 0.4281 0.4337 0.3771 0.32798 0.4066 0.4711 0.5329 0.5602 0.4967
2285.839 0.4887 0.552 0.5365 0.4939 0.5122 0.5082 0.4952 0.4885 0.491 0.4682
2305.129 0.3484 0.3705 0.4976 0.4542 0.4065 0.4961 0.5087 0.4273 0.4045 0.4726
2324.418 0.4831 0.4335 0.4488 0.4254 0.3858 0.35 0.3681 0.4382 0.3999 0.3477
2343.708 0.3742 0.4022 0.4111 0.3847 0.3873 0.4062 0.4501 0.4462 0.4328 0.453
2362.998 0.4728 0.4989 0.4906 0.4793 0.4069 0.3979 0.475 0.4621 0.4124 0.4099
2382.288 0.4334 0.4195 0.4009 0.4161 0.4142 0.4075 0.3836 0.3778 0.4638 0.472
2401.578 0.4311 0.4297 0.4143 0.4585 0.4423 0.4297 0.4551 0.3895 0.3848 0.4558
2420.867 0.4639 0.4698 0.435 0.3939 0.4263 0.4384 0.3778 0.3797 0.4075 0.3972
2440.157 0.3762 0.34341 0.375 0.4516 0.4323 0.3741 0.4234 0.4704 0.4266 0.3958
2459.447 0.4002 0.346 0.403 0.4467 0.3664 0.29793 0.28264 0.34194 0.33151 0.30431
2478.737 0.28504 0.28557 0.30032 0.27637 0.30708 0.3995 0.4428 0.4487 0.4872 0.4829
2498.026 0.4716 0.4239 0.4121 0.4465 0.411 0.4086 0.453 0.4799 0.4625 0.4627
2517.316 0.435 0.3782 0.4013 0.4459 0.5265 0.5033 0.3802 0.4012 0.4575 0.4642
2536.606 0.4513 0.5015 0.5468 0.5698 0.6065 0.6527 0.6277 0.5586 0.5882 0.5809
2555.896 0.594 0.6058 0.6384 0.6905 0.7024 0.7776 0.7321 0.6168 0.6573 0.7345
2575.186 0.6755 0.5861 0.6043 0.6814 0.7287 0.6257 0.6009 0.6688 0.6848 0.6814
2594.475 0.6861 0.7126 0.7217 0.6991 0.6939 0.7681 0.739 0.6927 0.7183 0.742
2613.765 0.7657 0.7178 0.7159 0.7798 0.7394 0.7359 0.7661 0.7085 0.7646 0.8678
2633.055 0.8312 0.8171 0.8317 0.8271 0.9134 1.0047 1.0142 0.9453 0.9395 0.9967
2652.345 1.0214 1.0627 1.0499 0.9895 0.9538 1.001 1.0868 1.0885 1.0401 1.0333
2671.634 1.0428 1.022 0.9977 1.0046 1.0273 1.0791 1.0983 1.0787 1.0279 1.0425
2690.924 1.034 1.0037 1.0362 0.9296 0.8731 0.9691 0.9867 0.969 1.0266 1.068
2710.214 0.9822 0.9384 0.9841 0.9244 0.925 1.0238 1.0017 1.0447 1.1506 1.0827
2729.504 0.9951 0.9906 1.0052 1.0667 1.173 1.2223 1.244 1.2362 1.1944 1.1807
2748.794 1.1741 1.16 1.2271 1.2373 1.1447 1.0841 1.1274 1.1982 1.274 1.384
2768.083 1.364 1.304 1.324 1.444 1.484 1.584 1.654 1.614 1.674 1.764
2787.373 1.844 1.884 1.924 1.934 1.984 2.064 2.164 2.274 2.324 2.384
2806.663 2.494 2.504 2.524 2.744 3.054 3.264 3.284 3.404 3.634 3.884
2825.953 4.134 4.324 4.564 4.894 5.224 5.604 6.134 6.774 7.414 8.274
2845.242 9.444 10.804 12.514 14.644 17.254 20.184 23.264 26.354 29.054 30.854
2864.532 31.524 31.344 30.434 28.904 27.024 25.054 23.344 22.164 21.134 20.294
2883.822 19.674 19.064 18.384 17.834 17.604 17.534 17.674 18.204 19.054 20.154
2903.112 21.554 23.194 25.004 27.114 29.464 32.064 35.184 38.794 43.054 48.114
2922.401 53.904 60.524 67.404 73.954 79.734 83.884 85.874 85.464 82.744 78.204
2941.691 72.424 65.614 58.414 51.564 45.414 40.224 36.204 33.354 31.584 30.754
2960.981 30.574 30.764 30.964 30.834 29.974 28.314 25.914 22.874 19.684 17.034
2980.271 14.834 12.904 11.474 10.244 9.154 8.354 7.714 7.134 6.564 6.084
2999.561 5.684 5.374 5.124 4.954 4.754 4.664 4.694 4.654 4.734 4.934
3018.850 5.184 5.464 5.814 6.264 6.704 6.914 6.884 6.574 6.114 5.714
3038.140 5.414 5.224 5.054 4.884 4.594 4.254 3.874 3.634 3.544 3.344
3057.430 3.074 3.004 3.044 3.044 3.024 2.894 2.834 2.884 2.944 3.164
3076.720 3.394 3.444 3.624 3.804 3.844 3.764 3.574 3.424 3.274 3.054
3096.009 2.814 2.624 2.344 2.064 1.824 1.714 1.584 1.434 1.404 1.314
3115.299 1.1659 1.0082 0.9613 0.9291 0.878 0.9414 0.9049 0.846 0.8153 0.8058
3134.589 0.8529 0.7161 0.583 0.6083 0.6265 0.5629 0.6417 0.7444 0.7745 0.755
3153.879 0.6423 0.6031 0.6136 0.6333 0.6722 0.6257 0.6198 0.5499 0.503 0.6197
3173.169 0.5556 0.502 0.5744 0.6187 0.5363 0.4789 0.4881 0.4899 0.5098 0.4648
3192.458 0.4885 0.6049 0.6727 0.6564 0.6733 0.6576 0.6209 0.6144 0.6097 0.6131
3211.748 0.5335 0.5844 0.6255 0.5877 0.5168 0.4679 0.4203 0.29123 0.31794 0.29806
3231.038 0.33671 0.33373 0.32358 0.4074 0.30901 0.23712 0.30171 0.31528 0.3524 0.28623
3250.328 0.3382 0.4697 0.3817 0.4122 0.33901 0.2573 0.3688 0.4249 0.4096 0.4323
3269.617 0.4063 0.3595 0.27147 0.2095 0.352 0.4265 0.24295 0.2311 0.251535 0.30898
3288.907 0.33044 0.2875 0.357 0.3525 0.2272 0.1811 0.31063 0.3529 0.23987 0.32956
3308.197 0.4125 0.3722 0.4622 0.415 0.32301 0.26404 0.2039 0.2043 0.27812 0.25872
3327.487 0.27083 0.31775 0.27673 0.26111 0.26552 0.2005 0.07 0.057 0.2279 0.247182
3346.777 0.1678 0.243738 0.2225 0.23445 0.4232 0.3821 0.31105 0.4183 0.3678 0.3628
3366.066 0.444 0.3637 0.3715 0.31829 0.2159 0.3155 0.31783 0.2168 0.2096 0.31179
3385.356 0.4335 0.31965 0.26468 0.3718 0.32085 0.362 0.29791 0.1791 0.3679 0.3518
3404.646 0.26749 0.2306 0.1485 0.31137 0.3493 0.33538 0.3899 0.3015 0.359 0.3505
3423.936 0.26299 0.305 0.245655 0.27071 0.406 0.30603 0.158 0.1753 0.1959 0.126
3443.225 0.155 0.32188 0.3617 0.3222 0.24081 0.2177 0.25028 0.1668 0.142 0.32249
3462.515 0.33326 0.2281 0.2326 0.32619 0.4668 0.4636 0.4029 0.3849 0.3802 0.33904
3481.805 0.2302 0.1459 0.1993 0.34275 0.4065 0.27233 0.1901 0.1739 0.1791 0.32881
3501.095 0.32059 0.31789 0.3956 0.3606 0.28358 0.2309 0.118 0.065 0.1908 0.26416
3520.385 0.29563 0.26377 0.27363 0.28639 0.1584 0.134 0.265 0.1967 0.1738 0.27754
3539.674 0.30722 0.24064 0.1853 0.2297 0.28543 0.34163 0.33278 0.3625 0.4223 0.3983
3558.964 0.23447 0.2114 0.2305 0.2032 0.3177 0.3947 0.3669 0.34239 0.3725 0.247363
3578.254 0.26539 0.4509 0.39 0.3475 0.3561 0.28008 0.3181 0.48 0.4935 0.4036
3597.544 0.387 0.3521 0.29219 0.26173 0.2202 0.253414 0.29796 0.29942 0.2273 0.124
3616.833 0.2018 0.1994 0.14 0.111 0.1607 0.3714 0.4087 0.3596 0.3687 0.3658
3636.123 0.3787 0.3858 0.4489 0.4564 0.33864 0.33416 0.3468 0.32925 0.4346 0.3897
3655.413 0.27365 0.33575 0.4393 0.5085 0.5194 0.4879 0.5072 0.5675 0.4347 0.2862
3674.703 0.28619 0.31414 0.3564 0.4248 0.503 0.4132 0.26021 0.2313 0.244043 0.4082
3693.993 0.4386 0.3812 0.4927 0.5405 0.4115 0.3587 0.5335 0.5684 0.4126 0.3634
3713.282 0.4822 0.3989 0.247613 0.252014 0.252317 0.3758 0.408 0.3985 0.4086 0.30626
3732.572 0.29162 0.3568 0.3717 0.3475 0.3504 0.3519 0.30469 0.33557 0.366 0.28014
3751.862 0.3726 0.3949 0.33173 0.4159 0.3616 0.33418 0.2171 0.136 0.223 0.34108
3771.152 0.4347 0.4706 0.4184 0.3476 0.249152 0.136 0.30573 0.3916 0.33721 0.384
3790.441 0.3731 0.278 0.29335 0.3443 0.4086 0.371 0.4074 0.3596 0.30812 0.30713
3809.731 0.31924 0.4394 0.27723 0.1912 0.32447 0.32696 0.3831 0.4071 0.3826 0.4242
3829.021 0.3804 0.3491 0.29839 0.29896 0.3483 0.3748 0.3585 0.1879 0.1789 0.224
3848.311 0.2135 0.2901 0.3709 0.31289 0.2094 0.26781 0.29981 0.3594 0.3735 0.29589
3867.601 0.3726 0.4406 0.414 0.4105 0.4574 0.475 0.4476 0.3888 0.3716 0.25549
3886.890 0.123 0.2222 0.4369 0.4862 0.4008 0.25665 0.2213 0.29206 0.3768 0.5374
3906.180 0.4736 0.3489 0.1975 0.1853 0.30091 0.33455 0.2806 0.23424 0.3529 0.4113
3925.470 0.364 0.32884 0.3931 0.3833 0.3649 0.4747 0.5389 0.5626 0.4919 0.5483
3944.760 0.5944 0.3929 0.33586 0.4372 0.4403 0.4251 0.3738 0.29526 0.3852 0.5341
3964.049 0.5088 0.4417 0.4334 0.4878 0.4855 0.4494 0.3703 0.27594 0.3881 0.5382
3983.339 0.4564 0.3987 0.4433 0.4325 0.3647 0.30271 0.3924 0.4474 0.4327 0.3879
##END=
