##TITLE=1-(2-Chlorophenyl)imidazole
##JCAMP-DX=4.24
##DATA TYPE=INFRARED SPECTRUM
##ORIGIN=EPA-IR VAPOR PHASE LIBRARY
##OWNER=SRD/NIST
Collection (C) 2018 copyright by the U.S. Secretary of Commerce
on behalf of the United States of America. All rights reserved.
##CAS REGISTRY NO=51581-50-1
##MOLFORM=C 9 H 7 Cl N 2
##$NIST SOURCE=MSDC-IR
##STATE=gas
##XUNITS=1/CM
##YUNITS=ABSORBANCE
##XFACTOR=1.
##YFACTOR=0.001
##DELTAX=1.92898
##FIRSTX=549.8
##LASTX=4000.7
##FIRSTY=1.718
##MAXX=4000.7
##MINX=549.759
##MAXY=0.108218
##MINY=0
##NPOINTS=1790
##XYDATA=(X++(Y..Y))
549.759 1.718 1.298 1.0761 0.9623 1.1108 1.348 1.106 0.7079 0.4946 0.4477
569.049 0.594 0.4609 0.1822 0.31485 0.4701 0.4913 0.4897 0.5003 0.6395 0.7854
588.339 0.4813 0.095 0.013 0.128 0.3999 0.3714 0.2502 0.5131 0.4757 0.4486
607.628 0.8501 0.9825 1.1862 1.548 1.808 2.138 2.448 3.008 3.028 3.008
626.918 3.228 3.078 3.048 3.238 3.288 3.238 3.718 4.598 5.848 7.618
646.208 9.798 12.008 13.818 14.608 14.878 15.628 15.858 15.058 13.558 11.288
665.498 8.718 6.628 5.058 3.798 2.918 2.328 2.088 2.048 2.178 2.358
684.787 2.368 2.468 2.538 2.518 2.488 2.558 2.758 2.948 3.078 3.478
704.077 4.038 4.648 5.798 7.448 9.468 12.078 15.328 18.378 20.738 21.758
723.367 22.088 23.418 24.278 23.158 20.858 18.998 17.778 16.808 16.828 17.698
742.657 19.408 21.988 24.698 27.528 30.288 33.278 37.608 39.298 33.208 25.758
761.947 21.898 18.848 15.778 12.558 9.268 6.508 4.758 4.008 3.408 2.918
781.236 2.588 2.318 2.328 2.258 2.448 2.938 3.428 3.758 4.488 5.748
800.526 7.178 8.928 10.578 11.548 11.598 11.268 11.418 11.548 10.598 9.038
819.816 7.458 5.748 4.468 3.718 2.918 2.358 2.128 1.938 1.898 2.178
839.106 2.288 2.278 2.368 2.538 2.798 2.858 2.788 2.518 2.438 2.368
858.395 2.108 2.038 1.718 1.458 1.508 1.408 1.378 1.308 1.1083 1.2506
877.685 1.508 1.598 1.928 2.518 3.248 4.038 5.098 6.138 6.628 6.928
896.975 7.318 6.968 6.118 5.668 4.598 3.208 2.268 1.678 1.2317 1.0427
916.265 1.1388 0.9737 0.7879 0.8103 0.8898 0.9541 1.0069 1.0061 1.1367 1.2125
935.555 1.1352 1.318 1.628 1.668 1.778 1.888 1.638 1.838 2.428 3.148
954.844 4.058 5.288 6.568 7.318 7.558 7.758 7.388 6.778 6.388 5.228
974.134 3.668 2.458 1.668 1.518 1.508 1.2333 0.9433 0.8838 0.887 0.8095
993.424 0.6823 0.6595 0.8819 1.0665 1.1213 1.0879 1.1944 1.448 1.548 1.508
1012.714 1.638 1.898 2.198 2.438 2.768 3.298 4.198 5.628 6.758 7.548
1032.003 8.598 10.028 11.978 14.628 17.958 21.988 26.858 31.398 34.218 35.358
1051.293 36.168 36.598 35.618 34.858 33.538 30.368 26.718 23.988 22.418 21.108
1070.583 19.648 17.258 14.018 11.208 8.688 6.528 5.138 4.278 4.168 3.968
1089.873 3.738 4.108 5.028 6.018 6.968 7.698 8.568 9.978 9.898 8.918
1109.163 8.498 8.248 7.958 7.208 6.338 5.788 5.578 5.658 5.748 5.858
1128.452 5.728 5.228 4.798 4.788 4.568 3.748 2.878 2.438 2.088 1.878
1147.742 1.788 1.428 1.298 1.278 1.318 1.318 1.588 1.798 1.568 1.398
1167.032 1.448 1.648 1.848 1.718 1.488 1.518 1.378 1.1504 1.2056 1.418
1186.322 1.448 1.1594 1.2541 1.348 1.428 1.458 1.0256 1.1556 1.668 1.588
1205.611 1.438 1.728 1.948 2.198 2.328 2.068 1.798 2.338 3.128 3.398
1224.901 4.078 5.188 6.198 7.918 10.598 12.998 14.438 15.448 16.288 16.178
1244.191 15.578 14.478 12.338 9.948 7.778 5.958 4.838 4.348 3.898 3.508
1263.481 3.368 3.468 3.498 3.528 3.558 3.638 3.638 3.758 4.148 4.348
1282.771 4.778 5.348 6.048 7.438 9.018 10.808 13.108 15.818 18.548 20.868
1302.060 22.408 22.938 22.658 21.538 19.578 16.928 13.708 10.308 7.278 4.978
1321.350 3.528 2.668 2.148 1.848 1.688 1.518 1.408 1.358 1.2109 1.1613
1340.640 1.1502 1.115 1.1117 1.1792 1.2493 1.318 1.408 1.568 1.808 2.048
1359.930 2.338 2.678 2.928 3.128 3.298 3.388 3.428 3.338 3.078 2.688
1379.219 2.268 1.948 1.738 1.568 1.408 1.288 1.241 1.246 1.298 1.428
1398.509 1.508 1.608 1.768 1.888 1.888 1.908 2.018 2.138 2.288 2.458
1417.799 2.748 3.098 3.418 3.808 4.318 4.868 5.468 6.148 6.858 7.638
1437.089 8.538 9.328 9.978 10.448 10.598 10.438 10.268 10.318 10.278 9.978
1456.378 9.578 9.238 9.148 9.348 9.798 10.378 10.948 11.418 12.028 13.058
1475.668 14.578 16.808 20.058 24.868 31.678 40.898 52.588 65.948 79.768 92.088
1494.958 101.398 106.978 108.218 105.058 97.478 85.828 70.398 53.498 38.338 26.848
1514.248 19.618 15.308 12.518 10.608 9.228 8.368 7.858 7.458 7.168 6.858
1533.538 6.558 6.188 5.778 5.358 4.938 4.398 3.788 3.338 2.988 2.758
1552.827 2.698 2.768 3.008 3.328 3.828 4.458 5.198 6.108 7.208 8.158
1572.117 8.848 9.468 9.808 9.888 10.028 10.118 10.058 9.868 9.678 9.598
1591.407 9.448 9.168 8.778 8.238 7.598 7.008 6.368 5.758 5.398 5.128
1610.697 4.948 4.948 4.948 4.808 4.608 4.388 4.088 3.758 3.438 3.018
1629.986 2.548 2.198 1.978 1.808 1.578 1.358 1.2589 1.2221 1.2184 1.298
1649.276 1.408 1.608 1.888 2.088 2.208 2.248 2.328 2.428 2.338 2.138
1668.566 1.948 1.728 1.478 1.328 1.308 1.338 1.408 1.508 1.648 1.838
1687.856 1.998 2.218 2.478 2.808 3.098 3.208 3.238 3.118 2.898 2.578
1707.146 2.288 2.068 1.768 1.558 1.348 1.1411 1.0759 1.0743 1.0897 1.0625
1726.435 1.0208 1.0394 1.0317 0.9529 0.9041 0.9106 0.9149 0.8172 0.6873 0.6772
1745.725 0.6651 0.5934 0.5187 0.4608 0.4844 0.5101 0.5256 0.5421 0.5238 0.533
1765.015 0.5362 0.5041 0.5001 0.519 0.535 0.5439 0.541 0.5627 0.6094 0.6897
1784.305 0.7897 0.902 1.0876 1.288 1.418 1.428 1.418 1.488 1.538 1.448
1803.594 1.368 1.318 1.2102 1.0834 0.9464 0.8753 0.8102 0.7761 0.777 0.7544
1822.884 0.7738 0.7825 0.7984 0.8362 0.8112 0.8082 0.8157 0.7353 0.6578 0.5488
1842.174 0.4825 0.4619 0.4305 0.379 0.29238 0.2445 0.29437 0.35684 0.31487 0.28528
1861.464 0.31419 0.3675 0.3741 0.36704 0.4253 0.4424 0.4683 0.5355 0.5448 0.5826
1880.754 0.622 0.6122 0.6992 0.6914 0.5956 0.6232 0.6366 0.6073 0.6481 0.6857
1900.043 0.7333 0.8501 0.9807 1.1434 1.318 1.428 1.488 1.498 1.448 1.398
1919.333 1.308 1.2552 1.1325 1.02 0.9541 0.8162 0.7727 0.888 0.9168 0.951
1938.623 1.0553 1.0948 1.1503 1.2078 1.1767 1.1487 1.1026 0.9893 0.9036 0.7978
1957.913 0.7373 0.6649 0.5423 0.4854 0.4322 0.3697 0.33056 0.32245 0.31842 0.270099
1977.202 0.2356 0.2574 0.32341 0.32829 0.28631 0.32608 0.33882 0.32592 0.29788 0.28466
1996.492 0.29809 0.27869 0.269065 0.29085 0.28703 0.28372 0.29004 0.28118 0.32524 0.31553
2015.782 0.30998 0.31141 0.31093 0.30064 0.29794 0.32907 0.35362 0.34687 0.35517 0.35006
2035.072 0.31652 0.32635 0.30141 0.2417 0.2216 0.2385 0.2835 0.31226 0.26669 0.25905
2054.362 0.270706 0.2462 0.2202 0.1862 0.2192 0.30872 0.32383 0.29022 0.26308 0.2504
2073.651 0.277642 0.3127 0.34232 0.34626 0.29685 0.270299 0.33911 0.35685 0.359 0.34948
2092.941 0.32261 0.34616 0.3754 0.36497 0.34155 0.33649 0.277005 0.28223 0.31941 0.28201
2112.231 0.28423 0.305 0.2564 0.2526 0.28546 0.30472 0.33866 0.36149 0.3821 0.3973
2131.521 0.3887 0.4292 0.442 0.3807 0.36022 0.455 0.5238 0.5584 0.5274 0.4639
2150.810 0.4891 0.4594 0.4738 0.4707 0.4306 0.478 0.5013 0.4642 0.4513 0.444
2170.100 0.3911 0.4076 0.4293 0.4155 0.4544 0.4201 0.30266 0.2525 0.28285 0.26686
2189.390 0.23 0.32874 0.3698 0.36166 0.3716 0.3844 0.4172 0.4167 0.4037 0.3802
2208.680 0.4122 0.4431 0.4239 0.4026 0.4127 0.35819 0.29864 0.30875 0.35204 0.407
2227.970 0.4266 0.4185 0.3775 0.35288 0.33082 0.30871 0.3256 0.34156 0.3884 0.35496
2247.259 0.30267 0.29945 0.273228 0.28996 0.30225 0.3381 0.37 0.3821 0.3719 0.35205
2266.549 0.34592 0.30444 0.28989 0.31835 0.3735 0.3917 0.3722 0.3862 0.4169 0.4745
2285.839 0.5314 0.5427 0.5243 0.4869 0.4659 0.5174 0.5332 0.4916 0.4228 0.3783
2305.129 0.4231 0.441 0.4643 0.4625 0.4588 0.4937 0.5004 0.5039 0.5605 0.6583
2324.418 0.6811 0.6588 0.6444 0.5051 0.4195 0.4941 0.5084 0.5182 0.5132 0.5028
2343.708 0.5108 0.4998 0.4979 0.4588 0.379 0.4001 0.4197 0.4465 0.4639 0.3725
2362.998 0.395 0.381 0.3734 0.3693 0.35958 0.4256 0.4338 0.3686 0.26013 0.239
2382.288 0.2373 0.2494 0.30289 0.35745 0.3698 0.374 0.4456 0.4916 0.4912 0.4793
2401.578 0.4579 0.4895 0.5165 0.5454 0.527 0.5021 0.5075 0.5301 0.5818 0.5633
2420.867 0.555 0.5088 0.502 0.5737 0.5342 0.487 0.4227 0.4155 0.3807 0.35662
2440.157 0.3918 0.36295 0.3802 0.4173 0.3986 0.35215 0.32131 0.35375 0.4268 0.4311
2459.447 0.4498 0.482 0.5173 0.5527 0.509 0.5256 0.5339 0.4786 0.5308 0.5232
2478.737 0.5467 0.5033 0.4257 0.4835 0.5447 0.5504 0.5247 0.558 0.5586 0.5666
2498.026 0.5873 0.5065 0.5466 0.6384 0.6173 0.6386 0.6694 0.6776 0.6827 0.6854
2517.316 0.6557 0.6706 0.7337 0.731 0.7863 0.8736 0.876 0.8706 0.8843 0.8922
2536.606 0.8857 0.8557 0.8669 0.849 0.8253 0.9221 0.9625 0.9767 0.9587 0.9291
2555.896 0.9313 0.8707 0.8417 0.8701 0.8725 0.8761 0.896 0.8878 0.887 0.8998
2575.186 0.9374 0.868 0.807 0.8586 0.8379 0.7483 0.7074 0.7405 0.7972 0.8274
2594.475 0.8154 0.8103 0.7927 0.7944 0.718 0.6868 0.7382 0.7152 0.7 0.6777
2613.765 0.6214 0.5235 0.5332 0.5618 0.5309 0.4961 0.4709 0.469 0.35288 0.27913
2633.055 0.2925 0.35507 0.382 0.3814 0.4877 0.4292 0.276637 0.31299 0.33788 0.32117
2652.345 0.36474 0.35008 0.3415 0.3778 0.3758 0.36175 0.3057 0.2233 0.31802 0.3681
2671.634 0.3715 0.4396 0.43 0.4498 0.4515 0.4008 0.31474 0.2366 0.29001 0.36193
2690.924 0.33488 0.4393 0.5095 0.4806 0.4175 0.3987 0.4602 0.4818 0.5313 0.4985
2710.214 0.5413 0.6108 0.6485 0.6161 0.5764 0.5959 0.6944 0.7739 0.7505 0.7842
2729.504 0.7794 0.7992 0.818 0.8258 0.8267 0.7488 0.6917 0.6947 0.6824 0.6059
2748.794 0.5357 0.5173 0.5447 0.5918 0.5072 0.517 0.5691 0.5016 0.5734 0.6171
2768.083 0.5543 0.5532 0.6133 0.6027 0.5931 0.5566 0.5215 0.5704 0.5728 0.5949
2787.373 0.6354 0.6333 0.6967 0.6172 0.5448 0.6851 0.7248 0.6334 0.6302 0.6637
2806.663 0.6341 0.62 0.6328 0.5806 0.5156 0.4471 0.4022 0.4273 0.3726 0.30782
2825.953 0.29516 0.3918 0.5086 0.4833 0.4924 0.48 0.4328 0.4539 0.4561 0.4202
2845.242 0.396 0.3982 0.4502 0.5016 0.3779 0.27974 0.2441 0.232 0.275327 0.276649
2864.532 0.2132 0.165 0.2416 0.2218 0.125 0.1732 0.2134 0.2084 0.1775 0.2089
2883.822 0.274795 0.2543 0.33864 0.4151 0.3852 0.36392 0.35168 0.26428 0.157 0.2553
2903.112 0.31586 0.31807 0.4035 0.4131 0.30793 0.2532 0.26073 0.34046 0.4189 0.4582
2922.401 0.4987 0.3971 0.3875 0.4639 0.5035 0.4945 0.4046 0.36282 0.4396 0.4676
2941.691 0.3866 0.4027 0.3887 0.29955 0.29317 0.401 0.4312 0.4306 0.4673 0.4524
2960.981 0.4316 0.4326 0.4419 0.4809 0.5177 0.3982 0.384 0.44 0.4904 0.5489
2980.271 0.5587 0.5562 0.5921 0.6801 0.6598 0.5543 0.5909 0.6271 0.607 0.5987
2999.561 0.5096 0.4319 0.5054 0.6382 0.5636 0.3893 0.3977 0.473 0.4939 0.6339
3018.850 0.7435 0.7648 0.8259 0.8545 0.9571 1.0331 1.0358 1.1174 1.2282 1.368
3038.140 1.448 1.498 1.528 1.678 1.798 1.638 1.598 1.718 1.848 2.018
3057.430 2.278 2.508 2.818 3.408 3.858 4.468 5.208 5.798 6.518 6.978
3076.720 7.118 7.148 6.978 6.518 6.098 5.568 4.748 4.038 3.628 3.138
3096.009 2.578 2.228 1.958 1.738 1.638 1.528 1.438 1.478 1.528 1.848
3115.299 2.098 2.118 2.298 2.548 2.788 2.988 2.928 2.668 2.398 2.188
3134.589 1.948 1.668 1.478 1.328 1.2615 1.254 1.318 1.398 1.438 1.548
3153.879 1.428 1.388 1.448 1.308 1.1972 0.9821 0.7052 0.5572 0.4536 0.4343
3173.169 0.5825 0.5933 0.4537 0.317 0.2315 0.4232 0.4697 0.30516 0.269591 0.34436
3192.458 0.31799 0.2399 0.29484 0.26638 0.2544 0.1875 0.146 0.29966 0.4093 0.4137
3211.748 0.26396 0.2446 0.34014 0.30959 0.33353 0.36418 0.2146 0.136 0.122 0.149
3231.038 0.1992 0.29572 0.2238 0.133 0.3139 0.36727 0.3071 0.132 0.169 0.1887
3250.328 0.145 0.2012 0.31366 0.3865 0.34154 0.28029 0.155 0.229 0.32757 0.1943
3269.617 0.1863 0.2577 0.276646 0.2311 0.1973 0.107 0.115 0.3154 0.32367 0.121
3288.907 0.057 0.143 0.2373 0.4227 0.36323 0.148 0.2087 0.2303 0.134 0.114
3308.197 0.077 0.096 0.147 0.1856 0.2275 0.1942 0.081 0.14 0.3941 0.4965
3327.487 0.36744 0.28416 0.2087 0.2034 0.32045 0.256 0.2548 0.28895 0.277428 0.3985
3346.777 0.2359 0.162 0.2435 0.151 0.1747 0.144 0.115 0.2259 0.3812 0.4784
3366.066 0.3851 0.1997 0.2028 0.2328 0.2264 0.275845 0.2029 0.11 0.121 0.2369
3385.356 0.34418 0.32861 0.2047 0.116 0.3211 0.4595 0.3476 0.2953 0.183 0.098
3404.646 0.2407 0.27822 0.1818 0.123 0.066 0.2116 0.28664 0.2372 0.31702 0.4635
3423.936 0.4082 0.2291 0.1788 0.138 0.124 0.121 0.043 0.088 0.29226 0.33786
3443.225 0.30171 0.29055 0.2089 0.1723 0.122 0.1959 0.28253 0.33991 0.4018 0.27708
3462.515 0.30697 0.379 0.4303 0.4244 0.1743 0.035 0.162 0.202 0.1863 0.271411
3481.805 0.2147 0.1791 0.270806 0.30149 0.1992 0.1 0.1896 0.29865 0.4535 0.5183
3501.095 0.3819 0.28261 0.2028 0.35957 0.4028 0.2387 0.204 0.30818 0.29367 0.33748
3520.385 0.3768 0.2553 0.36047 0.36694 0.30662 0.33584 0.3808 0.33617 0.33952 0.30371
3539.674 0.26654 0.3703 0.3755 0.2295 0.159 0.2414 0.26216 0.2171 0.2281 0.2357
3558.964 0.272786 0.4173 0.4601 0.31278 0.30535 0.32319 0.152 0.077 0.154 0.30306
3578.254 0.30462 0.2279 0.29887 0.35866 0.30242 0.26136 0.28748 0.32703 0.2401 0.1947
3597.544 0.28804 0.4225 0.32866 0.34415 0.4519 0.34821 0.2327 0.162 0.159 0.205
3616.833 0.26086 0.33095 0.33573 0.4441 0.4657 0.29599 0.2183 0.013 0 0.058
3636.123 0.114 0.206 0.08 0.101 0.2064 0.1811 0.3288 0.387 0.211 0.1955
3655.413 0.26183 0.267722 0.424 0.4218 0.1834 0.164 0.2514 0.2419 0.30451 0.4794
3674.703 0.4658 0.35372 0.32333 0.31035 0.4138 0.5327 0.4525 0.4184 0.4526 0.3941
3693.993 0.29618 0.2039 0.28659 0.4935 0.3717 0.2455 0.30888 0.30746 0.3964 0.33222
3713.282 0.386 0.4617 0.2396 0.2371 0.4021 0.28954 0.12 0.30556 0.5447 0.5395
3732.572 0.529 0.3955 0.26501 0.28894 0.2577 0.26045 0.34725 0.6202 0.6937 0.3884
3751.862 0.375 0.4046 0.31065 0.4143 0.4563 0.4364 0.3985 0.388 0.31729 0.35056
3771.152 0.4565 0.3803 0.3927 0.4347 0.3988 0.3733 0.3843 0.4836 0.5051 0.4181
3790.441 0.3796 0.412 0.4555 0.5357 0.4494 0.4078 0.4788 0.4196 0.5873 0.5169
3809.731 0.270556 0.36483 0.4158 0.35618 0.4193 0.4212 0.30491 0.16 0.138 0.30379
3829.021 0.3462 0.1755 0.2062 0.4003 0.4576 0.28993 0.2452 0.5356 0.5445 0.4134
3848.311 0.31122 0.26272 0.4245 0.5493 0.4632 0.31672 0.3142 0.3826 0.35711 0.33131
3867.601 0.30769 0.268816 0.35389 0.3868 0.3925 0.30374 0.29503 0.274156 0.3032 0.4017
3886.890 0.153 0.136 0.34491 0.36243 0.28757 0.2371 0.247 0.2063 0.18 0.29013
3906.180 0.3824 0.29487 0.1766 0.1909 0.34976 0.29429 0.11 0.1708 0.3932 0.31392
3925.470 0.043 0.2306 0.34778 0.30875 0.4509 0.5031 0.34921 0.2478 0.136 0.063
3944.760 0.145 0.28678 0.35702 0.29874 0.272458 0.272408 0.3375 0.32912 0.2532 0.2018
3964.049 0.25818 0.3899 0.34363 0.1728 0.103 0.2424 0.3833 0.29089 0.2496 0.32513
3983.339 0.421 0.3946 0.28883 0.3732 0.35604 0.154 0.231 0.5179 0.4233 0.30541
##END=
