##TITLE=1-(3-Chlorophenyl)imidazole
##JCAMP-DX=4.24
##DATA TYPE=INFRARED SPECTRUM
##ORIGIN=EPA-IR VAPOR PHASE LIBRARY
##OWNER=SRD/NIST
Collection (C) 2018 copyright by the U.S. Secretary of Commerce
on behalf of the United States of America. All rights reserved.
##CAS REGISTRY NO=51581-52-3
##MOLFORM=C 9 H 7 Cl N 2
##$NIST SOURCE=MSDC-IR
##STATE=gas
##XUNITS=1/CM
##YUNITS=ABSORBANCE
##XFACTOR=1.
##YFACTOR=0.001
##DELTAX=1.92898
##FIRSTX=549.8
##LASTX=4000.7
##FIRSTY=0.023
##MAXX=4000.7
##MINX=549.759
##MAXY=0.22132
##MINY=0
##NPOINTS=1790
##XYDATA=(X++(Y..Y))
549.759 0.023 0.063 0.02 0 0.348 0.5165 0.62306 0.4834 0.355 0.423
569.049 0.567 0.8594 0.9241 0.8162 0.7164 0.8702 1.1903 1.3647 1.1689 1.0739
588.339 1.3138 1.3684 1.2515 1.2275 1.1241 1.0256 1.1295 1.3264 1.3287 1.3599
607.628 1.4438 1.5079 1.83 2.17 2.64 3.28 3.38 3.43 3.73 3.59
626.918 3.49 3.84 4.14 4.42 4.86 5.47 6.11 7.1 8.48 10.02
646.208 11.85 13.52 14.96 16.2 17.13 17.42 17.14 16.64 16.04 15.45
665.498 14.93 14.97 15.58 16.63 18.07 19.69 21.6 23.86 26.9 29.14
684.787 28.36 25.78 23.48 21.42 19.38 17.38 15.51 14.1 13.13 12.61
704.077 12.72 13.65 14.81 16.41 18.65 21 23.65 26.11 27.8 28.78
723.367 28.06 26.06 24.16 21.79 19.07 16.47 14.27 12.35 10.77 9.93
742.657 9.53 9.37 9.55 10.3 11.63 13.61 16.38 20.03 25.11 32.09
761.947 41.4 52.31 62.8 71.32 77.11 80.33 81.24 78.33 71.16 62.61
781.236 52.63 42.68 36.08 31.76 27.63 23.53 20.29 18.18 17.03 16.69
800.526 17.39 18.54 19.73 20.54 21.1 21.36 20.62 18.97 17.16 15.22
819.816 13.11 11.41 9.8 8.27 7.09 6.13 5.42 4.96 4.55 4.42
839.106 4.27 3.97 3.98 4.18 4.11 4.33 4.97 5.58 6.47 7.47
858.395 8.59 9.83 11.1 12.38 13.71 15.22 16.41 16.83 16.07 14.19
877.685 12.7 11.85 10.76 10.26 10.33 10.82 11.99 13.38 14.33 14.14
896.975 13.61 13.14 12.2 10.31 7.47 4.84 3.24 2.4 1.96 1.83
916.265 1.72 1.5275 1.3053 1.3554 1.4856 1.3885 1.2735 1.2257 1.3044 1.3157
935.555 1.1576 1.1736 1.4341 1.4699 1.3448 1.3419 1.4749 1.5047 1.6 2.03
954.844 2.28 2.59 3.02 3.27 3.66 4.22 5.03 5.99 7.03 8.25
974.134 9.38 10.09 10.43 10.32 10.31 10.44 9.78 8.65 7.32 6.25
993.424 5.74 5.21 4.64 4.28 4.15 4.2 4.13 4.09 4.03 3.8
1012.714 3.6 3.55 3.66 3.94 4.28 4.12 4.07 4.43 4.93 5.83
1032.003 6.76 8.26 11.41 16.14 22.73 32.31 45.25 60.94 76.92 88.92
1051.293 94.77 95.37 91.54 83.74 71.48 55.02 38.93 27.97 22.41 19.83
1070.583 19.08 19.08 18.94 19.39 20.32 21.49 22.99 24.64 26.75 28.52
1089.873 29.31 29.8 30.68 31.29 30.53 28.81 27.17 26.78 27.99 30.27
1109.163 32.18 32.43 31.57 29.82 27.5 24.3 20.32 15.91 11.93 9.23
1128.452 7.54 6.35 5.38 4.78 4.33 4.3 4.24 3.82 3.67 3.64
1147.742 3.48 3.51 3.46 3.31 3.35 3.6 3.63 3.45 3.55 3.75
1167.032 3.79 3.6 3.33 3.22 3.16 3.14 2.95 2.76 2.73 2.89
1186.322 2.93 2.54 2.23 2.36 2.54 2.39 2.3 2.31 2.56 3.24
1205.611 3.64 3.36 3.29 3.54 3.94 4.61 4.94 5.39 6.22 6.96
1224.901 8.23 9.95 12 14.46 17.42 21.03 24.66 27.75 30.32 31.71
1244.191 31.42 29.88 27.53 24.49 20.95 17.11 13.54 10.83 8.83 7.26
1263.481 6.13 5.58 5.31 5.35 5.73 6.2 6.93 8.02 9.44 11.13
1282.771 13.08 15.44 18.07 20.97 24.22 28.03 32.52 37.64 42.8 46.96
1302.060 49.5 50.55 50.29 47.97 43.19 36.7 29.9 23.96 18.88 14.47
1321.350 10.93 8.39 6.87 6.12 5.69 5.37 5.07 4.75 4.4 4.08
1340.640 3.84 3.66 3.46 3.42 3.54 3.61 3.71 3.85 3.96 4.15
1359.930 4.39 4.61 4.86 5.1 5.33 5.5 5.39 5.21 4.99 4.56
1379.219 4.13 3.78 3.45 3.23 3.15 3.11 3.22 3.48 3.68 3.87
1398.509 4.12 4.3 4.48 4.73 4.91 5.13 5.45 5.8 6.39 7.2
1417.799 8.19 9.43 10.75 12.28 13.84 15.17 16.24 16.93 17.3 17.42
1437.089 17.47 17.55 17.55 17.44 17.38 17.48 17.83 18.4 18.98 19.48
1456.378 19.84 20.12 20.49 21.09 21.92 22.99 24.47 26.61 29.79 34.52
1475.668 40.98 49.55 60.31 73.8 90.66 111.67 136.69 163.99 190.49 211.12
1494.958 221.32 219.88 208.39 188.71 161.24 127.22 90.16 60.34 42.32 32.34
1514.248 26.57 22.42 19.11 16.8 15.27 14.28 13.73 13.42 13.38 13.51
1533.538 13.57 13.59 13.49 13.24 12.79 12.25 11.79 11.39 11.11 10.96
1552.827 10.99 11.37 12.14 13.53 15.38 17.74 20.86 24.59 28.76 33.05
1572.117 37.32 41.59 46.01 50.6 55.4 61.18 68.7 78.55 91.1 105.6
1591.407 119.54 130.12 134.97 133.07 124.95 111.69 94.94 76.35 57.9 42.02
1610.697 30.44 22.91 18.28 15.35 13.17 11.4 10.15 9.12 8.24 7.6
1629.986 7.05 6.61 6.33 6.12 5.91 5.8 5.8 5.88 5.91 5.98
1649.276 6.18 6.46 6.75 6.96 7.22 7.38 7.4 7.29 6.99 6.58
1668.566 6.06 5.42 4.71 4.15 3.71 3.37 3.1 2.86 2.73 2.71
1687.856 2.73 2.84 3.13 3.48 3.97 4.5 5.12 5.64 5.89 6
1707.146 5.86 5.61 5.24 4.75 4.23 3.8 3.51 3.37 3.36 3.34
1726.435 3.36 3.38 3.39 3.41 3.42 3.42 3.4 3.42 3.34 3.22
1745.725 3.13 3.02 2.89 2.76 2.68 2.61 2.48 2.31 2.23 2.21
1765.015 2.18 2.22 2.28 2.38 2.46 2.43 2.36 2.3 2.3 2.32
1784.305 2.28 2.17 2.07 1.99 1.82 1.65 1.5763 1.4744 1.3375 1.247
1803.594 1.1854 1.0997 1.0278 0.9893 0.9971 1.0051 0.9948 1.03 1.074 1.0766
1822.884 1.0744 1.1382 1.2372 1.2971 1.308 1.339 1.4977 1.65 1.73 1.89
1842.174 2.04 2.17 2.3 2.55 2.74 2.84 2.88 2.83 2.78 2.56
1861.464 2.36 2.14 1.82 1.6 1.4547 1.351 1.2814 1.1724 1.1457 1.1708
1880.754 1.1414 1.0808 1.0259 0.9918 1.0539 1.1028 1.0435 1.0138 0.9989 0.9636
1900.043 1.0249 1.0371 1.0056 1.046 1.0784 1.1701 1.2786 1.4101 1.6 1.74
1919.333 1.84 1.97 2.13 2.26 2.36 2.35 2.24 2.23 2.2 2.07
1938.623 1.95 1.78 1.59 1.416 1.3228 1.2624 1.2458 1.2324 1.1312 1.1219
1957.913 1.1514 1.1003 1.0368 1.0347 1.0054 0.998 1.035 0.9929 0.9405 0.932
1977.202 0.9198 0.9005 0.8757 0.8245 0.8302 0.796 0.7349 0.7252 0.7331 0.7803
1996.492 0.8435 0.8342 0.7822 0.8192 0.7803 0.67728 0.6827 0.67739 0.7098 0.7644
2015.782 0.7521 0.7477 0.7664 0.8106 0.814 0.8015 0.8081 0.8009 0.8253 0.8353
2035.072 0.8188 0.7749 0.7523 0.7579 0.7108 0.7068 0.7548 0.7338 0.7016 0.7453
2054.362 0.7527 0.7519 0.7967 0.7761 0.7752 0.8699 0.8363 0.7919 0.8667 0.9127
2073.651 0.9065 0.8397 0.8171 0.8312 0.8065 0.7902 0.7914 0.7875 0.7518 0.7466
2092.941 0.7907 0.8146 0.7925 0.7913 0.7625 0.7993 0.864 0.7953 0.7719 0.7619
2112.231 0.7289 0.7444 0.7524 0.7427 0.7414 0.7552 0.7132 0.6834 0.7533 0.786
2131.521 0.7943 0.8332 0.8265 0.831 0.9441 1.008 0.9009 0.8635 0.9153 0.9902
2150.810 1.006 1.0207 1.0562 1.0209 1.0252 1.0961 1.1121 0.9902 0.95 0.9727
2170.100 0.9263 0.8599 0.8751 0.9475 0.9866 0.9568 0.9068 0.8751 0.8975 0.9488
2189.390 0.9272 0.9482 0.9909 0.9851 0.918 0.9254 1.0186 0.9672 0.9442 1.0022
2208.680 0.9898 0.9808 0.9856 0.919 0.8426 0.8648 0.8749 0.816 0.8094 0.7872
2227.970 0.7456 0.7502 0.73 0.7613 0.797 0.7188 0.7541 0.8391 0.8436 0.8354
2247.259 0.8797 0.9003 0.8242 0.8171 0.9095 1.0306 0.9979 0.8808 0.869 0.8903
2266.549 0.9303 0.8657 0.7845 0.843 0.8481 0.8269 0.8266 0.7909 0.8 0.8554
2285.839 0.8792 0.8181 0.7909 0.8353 0.8836 0.9052 0.9141 0.9932 0.9683 0.8719
2305.129 0.8861 0.842 0.8425 0.8873 0.8739 0.8381 0.8208 0.8321 0.8555 0.8772
2324.418 0.8774 0.9518 1.0201 1.0052 1.0026 1.0986 1.1526 1.165 1.094 1.0875
2343.708 1.219 1.1859 1.1057 1.1493 1.1568 1.1847 1.171 1.0899 1.0383 1.0162
2362.998 1.0273 0.9496 0.9524 1.0063 0.9771 0.9684 0.9256 0.9335 0.9972 0.989
2382.288 1.0347 1.0487 1.0679 1.0651 1.064 1.1606 1.2137 1.2548 1.2402 1.2238
2401.578 1.2807 1.2736 1.2658 1.2732 1.2705 1.337 1.3319 1.3539 1.3807 1.3284
2420.867 1.2658 1.2036 1.2344 1.2194 1.0674 1.062 1.0733 0.9241 0.8636 0.8493
2440.157 0.8553 0.9062 0.9042 0.8442 0.8253 0.8698 0.8615 0.8415 0.8702 0.896
2459.447 0.9569 1.0077 1.0506 1.1079 1.1707 1.2541 1.3495 1.4111 1.4394 1.456
2478.737 1.3964 1.3978 1.4472 1.4401 1.3377 1.2847 1.279 1.2134 1.242 1.2829
2498.026 1.1398 1.0667 1.1232 1.135 1.1888 1.2843 1.3063 1.2614 1.2949 1.4421
2517.316 1.5535 1.4049 1.3545 1.5367 1.59 1.5093 1.5328 1.5267 1.4588 1.429
2536.606 1.505 1.5395 1.6 1.65 1.65 1.69 1.7 1.69 1.71 1.73
2555.896 1.64 1.6 1.64 1.65 1.66 1.66 1.67 1.63 1.5742 1.62
2575.186 1.69 1.68 1.71 1.76 1.79 1.77 1.7 1.77 1.88 1.83
2594.475 1.85 1.92 1.77 1.65 1.62 1.5758 1.58 1.5022 1.3681 1.3574
2613.765 1.2726 1.1207 1.0216 1.0328 0.9976 0.9162 0.874 0.8583 0.8273 0.8287
2633.055 0.8375 0.7757 0.7955 0.8171 0.7276 0.67407 0.7697 0.8056 0.7968 0.8056
2652.345 0.8624 0.9078 0.9451 0.9639 0.9286 0.944 0.9591 0.9874 0.9767 0.9332
2671.634 0.941 0.9789 1.0049 0.9429 0.8845 0.9405 0.9891 0.9652 0.924 0.9169
2690.924 0.9494 0.966 1.0771 1.1575 1.2063 1.2125 1.2182 1.2946 1.3818 1.5734
2710.214 1.67 1.73 1.8 1.8 1.83 1.86 1.83 1.89 1.92 1.91
2729.504 2.04 2.07 2.02 1.97 1.89 1.85 1.77 1.69 1.5753 1.5467
2748.794 1.59 1.4315 1.3045 1.2096 1.193 1.2189 1.241 1.2773 1.2959 1.3243
2768.083 1.3222 1.3066 1.3545 1.4415 1.58 1.71 1.65 1.65 1.59 1.59
2787.373 1.74 1.78 1.77 1.71 1.69 1.71 1.5771 1.4191 1.3556 1.2617
2806.663 1.0895 1.0598 1.1068 0.9933 0.884 0.901 0.863 0.817 0.8397 0.8968
2825.953 1.0239 1.0291 0.8595 0.798 0.9254 0.9296 0.9334 0.9682 0.8539 0.9075
2845.242 0.9706 0.8352 0.7653 0.765 0.7085 0.6878 0.7829 0.7711 0.7288 0.685
2864.532 0.67846 0.7126 0.7412 0.8226 0.7679 0.7244 0.61069 0.52 0.5296 0.477
2883.822 0.48 0.5555 0.5105 0.5242 0.59216 0.5712 0.64176 0.6826 0.61718 0.5159
2903.112 0.5048 0.5018 0.5513 0.64894 0.65549 0.64331 0.64082 0.60931 0.64919 0.7155
2922.401 0.67458 0.7117 0.7286 0.7117 0.7756 0.8232 0.8793 0.8735 0.7861 0.7264
2941.691 0.8778 1.0377 1.0674 1.121 1.1004 0.9696 0.8434 1.0379 1.1838 1.0894
2960.981 1.0813 1.1488 1.1951 1.0881 0.9823 0.9593 0.9857 1.0048 0.931 0.8598
2980.271 0.9132 0.9287 0.7953 0.8304 0.9981 0.9688 0.8723 0.8005 0.8287 0.8418
2999.561 0.8489 0.9196 0.8975 0.7929 0.7508 0.8925 1.0495 1.049 0.9046 0.9667
3018.850 1.1139 1.101 1.2141 1.3267 1.3315 1.5712 1.76 1.76 1.88 2.2
3038.140 2.4 2.35 2.34 2.45 2.54 2.45 2.4 2.51 2.59 2.65
3057.430 2.71 2.77 2.95 3.33 3.73 3.93 4.28 4.78 5.22 5.77
3076.720 6.27 6.51 6.61 6.68 6.53 6.08 5.55 5.13 4.68 4.16
3096.009 3.7 3.41 3.15 2.92 2.81 2.78 2.78 2.87 2.99 2.9
3115.299 3.05 3.46 3.82 4.25 4.46 4.49 4.39 4.13 3.83 3.29
3134.589 2.82 2.37 2.07 2 1.89 1.86 1.9 2.08 2.18 2.1
3153.879 2.06 1.92 1.8 1.71 1.4195 1.1941 1.0541 0.8062 0.8043 0.8467
3173.169 0.67679 0.6195 0.6857 0.61225 0.5034 0.64825 0.7327 0.6923 0.7444 0.7835
3192.458 0.7129 0.4963 0.445 0.66465 0.77 0.8536 0.8198 0.5769 0.449 0.5289
3211.748 0.5008 0.381 0.4 0.37 0.327 0.318 0.339 0.382 0.391 0.352
3231.038 0.278 0.241 0.316 0.313 0.28 0.285 0.196 0.246 0.326 0.27
3250.328 0.191 0.306 0.5478 0.5656 0.427 0.338 0.31 0.365 0.434 0.4874
3269.617 0.435 0.274 0.244 0.271 0.254 0.147 0.246 0.299 0.349 0.5338
3288.907 0.471 0.414 0.339 0.226 0.257 0.419 0.4831 0.4939 0.464 0.413
3308.197 0.4922 0.4991 0.323 0.314 0.369 0.275 0.299 0.375 0.443 0.465
3327.487 0.479 0.417 0.306 0.33 0.235 0.203 0.257 0.311 0.403 0.292
3346.777 0.304 0.396 0.247 0.186 0.206 0.148 0.197 0.176 0.234 0.358
3366.066 0.466 0.556 0.461 0.405 0.385 0.461 0.432 0.311 0.376 0.257
3385.356 0.199 0.403 0.467 0.327 0.229 0.416 0.472 0.299 0.207 0.171
3404.646 0.207 0.479 0.63108 0.478 0.323 0.25 0.292 0.313 0.426 0.59067
3423.936 0.57784 0.477 0.356 0.275 0.312 0.248 0.24 0.276 0.302 0.405
3443.225 0.337 0.311 0.337 0.25 0.25 0.315 0.462 0.439 0.386 0.432
3462.515 0.467 0.435 0.443 0.59048 0.5683 0.5224 0.5353 0.4987 0.382 0.335
3481.805 0.458 0.516 0.64553 0.681 0.386 0.303 0.423 0.4802 0.45 0.308
3501.095 0.29 0.441 0.444 0.461 0.4984 0.345 0.268 0.323 0.44 0.471
3520.385 0.336 0.38 0.448 0.475 0.5045 0.5537 0.479 0.287 0.285 0.336
3539.674 0.399 0.452 0.427 0.47 0.422 0.5016 0.60579 0.457 0.369 0.416
3558.964 0.4905 0.358 0.374 0.457 0.362 0.412 0.5001 0.409 0.3 0.355
3578.254 0.426 0.277 0.211 0.265 0.302 0.436 0.419 0.371 0.332 0.297
3597.544 0.35 0.427 0.351 0.222 0.241 0.348 0.5189 0.466 0.266 0.351
3616.833 0.417 0.395 0.349 0.258 0.284 0.313 0.4836 0.60918 0.465 0.403
3636.123 0.295 0.216 0.262 0.222 0.337 0.346 0.239 0.354 0.358 0.433
3655.413 0.57386 0.5263 0.5336 0.451 0.358 0.437 0.418 0.37 0.44 0.479
3674.703 0.5056 0.59667 0.62687 0.5341 0.405 0.228 0.261 0.4 0.466 0.5377
3693.993 0.5453 0.5505 0.57639 0.61807 0.64911 0.5101 0.372 0.346 0.241 0.267
3713.282 0.457 0.6853 0.7121 0.6955 0.583042 0.351 0.479 0.64511 0.6953 0.546
3732.572 0.471 0.5066 0.418 0.5431 0.62412 0.61757 0.6629 0.5639 0.406 0.345
3751.862 0.453 0.5047 0.5246 0.449 0.4838 0.6288 0.65548 0.639 0.409 0.4889
3771.152 0.7051 0.6293 0.5274 0.423 0.5318 0.5435 0.389 0.258 0.263 0.404
3790.441 0.397 0.445 0.5144 0.5035 0.385 0.331 0.419 0.272 0.319 0.454
3809.731 0.378 0.309 0.428 0.476 0.366 0.352 0.399 0.5576 0.5184 0.416
3829.021 0.459 0.4988 0.5419 0.67288 0.724 0.63532 0.6735 0.59308 0.308 0.372
3848.311 0.392 0.5219 0.65054 0.5603 0.66243 0.61008 0.58152 0.5522 0.426 0.429
3867.601 0.4867 0.367 0.244 0.417 0.61332 0.65733 0.557 0.419 0.452 0.5596
3886.890 0.5262 0.454 0.406 0.457 0.5176 0.381 0.239 0.268 0.42 0.449
3906.180 0.369 0.417 0.5075 0.413 0.278 0.453 0.444 0.226 0.26 0.5313
3925.470 0.62906 0.401 0.293 0.457 0.6499 0.7392 0.5524 0.357 0.463 0.437
3944.760 0.391 0.321 0.239 0.257 0.409 0.475 0.438 0.381 0.277 0.419
3964.049 0.5375 0.409 0.386 0.322 0.321 0.357 0.5329 0.61291 0.365 0.353
3983.339 0.425 0.381 0.433 0.583136 0.64023 0.579238 0.436 0.357 0.304 0.398
##END=
