##TITLE=3-Chloro-4-methylbenzoic acid
##JCAMP-DX=4.24
##DATA TYPE=INFRARED SPECTRUM
##ORIGIN=EPA-IR VAPOR PHASE LIBRARY
##OWNER=SRD/NIST
Collection (C) 2018 copyright by the U.S. Secretary of Commerce
on behalf of the United States of America. All rights reserved.
##CAS REGISTRY NO=5162-82-3
##MOLFORM=C 8 H 7 Cl O 2
##$NIST SOURCE=MSDC-IR
##STATE=gas
##XUNITS=1/CM
##YUNITS=ABSORBANCE
##XFACTOR=1.
##YFACTOR=0.001
##DELTAX=1.92898
##FIRSTX=549.8
##LASTX=4000.7
##FIRSTY=7.223
##MAXX=4000.7
##MINX=549.759
##MAXY=0.123683
##MINY=0
##NPOINTS=1790
##XYDATA=(X++(Y..Y))
549.759 7.223 8.003 8.363 8.783 9.463 10.423 10.963 10.993 11.013 10.863
569.049 10.753 10.853 10.883 11.013 11.353 11.633 11.993 12.413 12.823 13.243
588.339 13.483 13.433 13.793 14.763 15.873 17.153 18.393 19.263 19.923 20.613
607.628 20.403 18.953 16.893 14.633 12.683 10.743 8.523 6.413 4.853 3.803
626.918 3.233 3.093 2.853 2.673 2.803 2.793 2.573 2.523 2.423 2.283
646.208 2.213 2.063 1.963 1.903 1.923 2.013 1.943 1.873 1.833 1.903
665.498 2.023 2.283 2.703 3.103 3.683 4.543 6.143 8.543 11.773 15.343
684.787 18.093 19.653 20.013 19.723 19.733 18.953 15.413 10.923 7.813 5.883
704.077 4.793 4.333 4.013 3.813 3.703 3.713 3.943 4.063 4.203 4.653
723.367 5.173 5.673 6.103 6.363 6.633 6.963 7.403 7.793 8.083 8.463
742.657 9.363 10.753 12.163 13.743 15.123 16.273 17.733 19.753 22.783 24.253
761.947 21.423 18.183 16.423 14.733 13.073 11.323 9.523 7.853 6.693 5.753
781.236 4.803 4.213 3.843 3.423 3.033 2.653 2.393 2.393 2.273 2.243
800.526 2.203 2.053 2.323 2.463 2.283 2.253 2.193 2.003 1.963 2.153
819.816 2.293 2.393 2.613 2.753 2.973 3.253 3.413 3.703 3.843 3.773
839.106 3.773 3.913 4.313 4.833 5.343 5.893 6.493 6.943 7.133 7.243
858.395 7.363 7.223 6.993 6.533 5.783 5.193 4.583 3.983 3.413 2.843
877.685 2.623 2.623 2.383 2.183 2.193 2.273 2.513 2.713 2.833 3.203
896.975 3.543 3.603 3.833 4.043 4.043 3.813 3.523 3.403 3.073 2.633
916.265 2.453 2.243 1.943 1.763 1.733 1.6307 1.4712 1.5095 1.5002 1.5274
935.555 1.5131 1.6239 1.6233 1.4285 1.5144 1.48 1.4014 1.4633 1.5816 1.5096
954.844 1.5109 1.5775 1.475 1.6087 1.621 1.6041 1.5852 1.529 1.693 1.713
974.134 1.693 1.873 2.093 2.173 2.263 2.523 2.693 2.763 3.023 3.433
993.424 3.653 3.583 3.603 3.623 3.333 3.293 3.343 3.023 2.843 2.883
1012.714 2.853 2.873 2.663 2.503 2.633 2.863 3.323 3.583 3.913 4.183
1032.003 4.543 5.493 6.363 6.893 7.403 7.963 8.703 9.473 10.383 11.273
1051.293 11.843 11.923 12.033 12.243 11.993 11.773 11.453 11.093 11.043 11.233
1070.583 12.233 14.373 17.223 20.763 24.963 30.093 35.863 41.073 45.763 49.873
1089.873 52.803 55.433 57.173 55.933 51.363 45.463 39.443 33.333 27.203 20.743
1109.163 15.313 12.213 11.473 11.573 11.183 11.303 11.553 11.553 11.813 11.923
1128.452 12.173 12.783 13.313 13.413 13.743 14.033 14.243 14.693 14.793 14.753
1147.742 14.493 14.193 14.463 14.903 14.983 15.123 15.933 17.583 19.843 22.593
1167.032 25.963 29.943 34.313 39.293 44.813 50.383 55.353 59.123 61.143 61.183
1186.322 59.483 55.993 50.633 44.323 37.353 30.233 24.103 19.443 16.173 13.633
1205.611 11.953 10.793 9.743 8.983 8.103 7.193 6.723 6.303 5.883 5.573
1224.901 5.243 4.953 4.753 4.873 5.113 5.003 5.063 5.493 5.683 5.823
1244.191 6.073 6.553 7.183 7.623 8.153 8.873 9.733 10.743 11.763 12.123
1263.481 12.163 12.223 12.013 11.453 10.723 9.983 8.913 7.973 7.453 7.083
1282.771 6.813 6.763 6.873 6.833 6.983 7.103 7.133 7.393 7.683 8.093
1302.060 8.543 9.093 9.763 10.643 11.683 12.813 14.133 15.553 16.913 18.153
1321.350 19.303 20.153 20.633 20.873 20.853 20.493 19.843 18.983 17.943 16.903
1340.640 15.883 14.923 14.063 13.303 12.733 12.523 12.693 13.213 14.083 15.233
1359.930 16.503 17.523 18.123 18.423 18.423 18.213 17.793 17.163 16.613 16.423
1379.219 16.613 17.073 17.833 18.763 19.443 19.683 19.403 18.443 16.993 15.453
1398.509 13.853 12.053 10.233 8.593 7.253 6.283 5.593 5.053 4.743 4.543
1417.799 4.413 4.363 4.333 4.303 4.303 4.313 4.393 4.543 4.683 4.843
1437.089 5.003 5.153 5.293 5.383 5.453 5.403 5.223 5.153 5.063 4.903
1456.378 4.753 4.553 4.443 4.333 4.263 4.283 4.333 4.353 4.343 4.443
1475.668 4.593 4.753 4.943 5.153 5.433 5.633 5.713 5.833 5.903 5.813
1494.958 5.673 5.423 5.073 4.633 4.133 3.763 3.483 3.203 2.973 2.753
1514.248 2.583 2.433 2.333 2.363 2.423 2.503 2.553 2.533 2.553 2.583
1533.538 2.653 2.683 2.793 2.983 3.073 3.153 3.203 3.403 3.593 3.693
1552.827 3.913 4.223 4.593 4.993 5.403 5.763 6.073 6.263 6.363 6.403
1572.117 6.283 6.183 6.053 5.643 5.273 4.983 4.663 4.463 4.473 4.583
1591.407 4.783 5.003 5.333 5.723 5.983 6.233 6.423 6.473 6.313 5.993
1610.697 5.643 5.203 4.733 4.183 3.643 3.143 2.773 2.593 2.343 2.083
1629.986 1.983 1.963 1.953 1.903 1.843 1.803 1.833 1.853 1.813 1.813
1649.276 1.823 1.873 1.873 1.813 1.843 1.813 1.813 1.863 1.883 1.853
1668.566 1.703 1.6769 1.793 1.783 1.6882 1.5771 1.6165 1.6785 1.6863 1.773
1687.856 1.923 2.083 2.253 2.493 2.813 3.153 3.633 4.083 4.543 5.113
1707.146 5.653 6.313 6.953 7.293 7.293 7.273 7.213 7.143 7.083 7.073
1726.435 7.143 7.213 7.403 7.853 8.683 9.873 11.513 13.883 17.043 21.493
1745.725 27.583 36.003 47.393 62.443 80.243 98.343 113.433 121.583 123.683 123.613
1765.015 122.773 117.863 103.743 82.163 59.743 43.263 32.703 25.723 21.023 17.623
1784.305 15.163 13.323 11.983 10.963 10.183 9.543 8.993 8.573 8.333 8.223
1803.594 8.163 8.123 8.153 8.203 8.243 8.053 7.683 7.083 6.313 5.603
1822.884 4.903 4.263 3.723 3.223 2.783 2.423 2.153 1.883 1.658 1.5513
1842.174 1.4704 1.3411 1.2483 1.195 1.1332 1.1486 1.2083 1.1879 1.1725 1.1622
1861.464 1.1817 1.1676 1.1212 1.1066 1.1209 1.1602 1.1821 1.1998 1.1854 1.1312
1880.754 1.0935 1.0937 1.0892 1.0799 1.1703 1.2369 1.2331 1.279 1.3016 1.3219
1900.043 1.4254 1.539 1.6373 1.753 1.843 1.933 1.973 2.033 2.013 1.933
1919.333 1.893 1.843 1.783 1.6127 1.4104 1.262 1.1817 1.1642 1.1159 1.0259
1938.623 0.9695 0.985 0.9772 0.9431 0.9304 0.9427 0.9427 0.8833 0.9001 0.9151
1957.913 0.8673 0.8824 0.876 0.8204 0.7995 0.844 0.881 0.8362 0.75578 0.71184
1977.202 0.71285 0.74739 0.75127 0.69502 0.698432 0.72292 0.71733 0.71406 0.70305 0.77465
1996.492 0.8341 0.76298 0.73055 0.75444 0.73583 0.72034 0.699728 0.6663 0.6504 0.694758
2015.782 0.73737 0.74004 0.76077 0.76228 0.77285 0.8058 0.78574 0.78595 0.8321 0.8226
2035.072 0.8209 0.7958 0.73048 0.7515 0.79153 0.78595 0.77533 0.71025 0.7062 0.73988
2054.362 0.7467 0.74375 0.72499 0.75617 0.75523 0.77095 0.71936 0.6707 0.72 0.699978
2073.651 0.6641 0.6723 0.73088 0.77701 0.701615 0.6352 0.6471 0.6326 0.6195 0.6488
2092.941 0.67 0.6772 0.75885 0.77918 0.75717 0.78906 0.79144 0.75588 0.74854 0.77363
2112.231 0.7946 0.8165 0.8097 0.76391 0.72831 0.6775 0.6526 0.70984 0.71213 0.6212
2131.521 0.6006 0.6632 0.71351 0.72546 0.70608 0.68601 0.6616 0.68857 0.6646 0.6507
2150.810 0.68652 0.6708 0.6432 0.6467 0.6763 0.678 0.694537 0.73397 0.72017 0.68605
2170.100 0.78627 0.8433 0.8138 0.7943 0.8218 0.8243 0.8006 0.8409 0.8782 0.8884
2189.390 0.8398 0.8045 0.814 0.8395 0.7991 0.78138 0.79146 0.72958 0.693518 0.6218
2208.680 0.6134 0.68462 0.697565 0.70793 0.70545 0.68964 0.6174 0.589 0.6513 0.67
2227.970 0.6462 0.6634 0.6263 0.6289 0.700023 0.6722 0.6529 0.6598 0.622 0.6069
2247.259 0.6123 0.616 0.6185 0.6283 0.696552 0.699565 0.6047 0.55 0.49 0.531
2266.549 0.6269 0.700024 0.7615 0.69037 0.6766 0.68445 0.68749 0.6535 0.6109 0.6686
2285.839 0.6741 0.6753 0.70341 0.6361 0.585 0.588 0.578 0.6049 0.6575 0.6639
2305.129 0.6614 0.6431 0.6433 0.6542 0.63 0.6509 0.70328 0.6771 0.6407 0.694847
2324.418 0.72484 0.697123 0.6781 0.69017 0.6824 0.694229 0.76767 0.79026 0.7749 0.73124
2343.708 0.64 0.6118 0.6454 0.6854 0.697523 0.75998 0.7965 0.8272 0.8466 0.8397
2362.998 0.78406 0.75865 0.8105 0.7769 0.73624 0.74859 0.77217 0.692296 0.6187 0.6547
2382.288 0.69088 0.72963 0.71458 0.6732 0.702679 0.6819 0.70745 0.8047 0.77395 0.72852
2401.578 0.71143 0.70647 0.71379 0.701219 0.73582 0.71669 0.68354 0.72413 0.8145 0.8068
2420.867 0.76511 0.78372 0.7729 0.78045 0.76851 0.75975 0.76919 0.8531 0.8907 0.8803
2440.157 0.8641 0.78716 0.76127 0.74932 0.7679 0.8201 0.78769 0.71418 0.68933 0.74428
2459.447 0.8093 0.8086 0.76379 0.7099 0.72175 0.73288 0.78573 0.76434 0.68636 0.69871
2478.737 0.7046 0.70848 0.70691 0.71486 0.68912 0.6549 0.70401 0.615 0.552 0.6373
2498.026 0.6342 0.6373 0.6403 0.6283 0.6435 0.6373 0.6281 0.6527 0.6627 0.6069
2517.316 0.575 0.6034 0.6322 0.6805 0.6388 0.537 0.6517 0.7792 0.8065 0.79137
2536.606 0.72392 0.70981 0.68591 0.701576 0.77877 0.71033 0.6273 0.71912 0.7379 0.78572
2555.896 0.8516 0.76343 0.72716 0.74758 0.77848 0.8049 0.8899 0.9224 0.8385 0.8131
2575.186 0.8072 0.78102 0.73046 0.6768 0.68553 0.6713 0.69138 0.78439 0.8 0.72612
2594.475 0.6562 0.64 0.6755 0.6763 0.592 0.593 0.583 0.565 0.59 0.592
2613.765 0.6246 0.586 0.534 0.533 0.579 0.6514 0.692884 0.6771 0.576 0.54
2633.055 0.623 0.6541 0.6585 0.6659 0.6694 0.6121 0.585 0.6757 0.70638 0.68825
2652.345 0.6744 0.6627 0.6558 0.6817 0.76655 0.70651 0.6269 0.6604 0.681 0.74912
2671.634 0.72446 0.579 0.529 0.559 0.57 0.6099 0.6404 0.642 0.629 0.6461
2690.924 0.6098 0.549 0.6342 0.702966 0.661 0.6399 0.554 0.498 0.539 0.485
2710.214 0.452 0.51 0.552 0.6366 0.6749 0.6259 0.6257 0.571 0.557 0.6383
2729.504 0.6018 0.578 0.6297 0.68665 0.6543 0.6022 0.6091 0.672 0.75166 0.8651
2748.794 0.8331 0.6775 0.70496 0.77331 0.74001 0.6166 0.5962 0.669 0.6828 0.5979
2768.083 0.561 0.6158 0.6718 0.7449 0.74414 0.71476 0.700855 0.7107 0.72681 0.6391
2787.373 0.70309 0.8084 0.7407 0.7073 0.7038 0.70867 0.70405 0.669 0.5948 0.549
2806.663 0.72695 0.8448 0.77639 0.75757 0.75529 0.8004 0.8828 0.8751 0.8177 0.8674
2825.953 0.963 0.9647 0.9499 0.9195 0.9271 0.9776 0.9809 1.0084 1.1091 1.2227
2845.242 1.2462 1.2995 1.295 1.3024 1.2656 1.261 1.4046 1.4826 1.536 1.5183
2864.532 1.5738 1.6869 1.803 1.863 1.853 1.863 1.843 1.833 1.813 1.6848
2883.822 1.6552 1.733 1.67 1.6546 1.703 1.5604 1.5442 1.703 1.6342 1.5594
2903.112 1.713 1.783 1.963 1.973 1.823 1.833 1.853 1.963 2.113 2.263
2922.401 2.453 2.653 2.893 3.363 3.793 4.073 4.483 4.773 4.773 4.853
2941.691 4.783 4.573 4.383 4.033 3.653 3.303 3.053 2.983 2.973 2.863
2960.981 2.923 2.993 2.933 3.033 3.083 3.033 3.083 3.133 3.163 3.163
2980.271 3.133 3.293 3.403 3.503 3.553 3.443 3.403 3.313 3.163 3.073
2999.561 2.903 2.663 2.533 2.373 2.143 2.093 2.163 2.053 2.033 2.073
3018.850 2.073 2.043 1.993 2.193 2.343 2.463 2.713 2.673 2.693 2.903
3038.140 2.863 2.793 2.783 2.703 2.613 2.513 2.493 2.403 2.243 2.213
3057.430 2.353 2.563 2.623 2.753 2.993 3.193 3.323 3.443 3.553 3.513
3076.720 3.443 3.353 3.253 3.123 2.863 2.673 2.353 2.083 1.953 1.5869
3096.009 1.3582 1.2376 1.1392 1.1621 1.1886 1.114 0.9299 0.9131 0.8781 0.8405
3115.299 0.8153 0.8102 0.9014 0.9276 0.77612 0.6497 0.8831 0.8933 0.75118 0.693812
3134.589 0.73702 0.8436 0.76409 0.68431 0.5931 0.55 0.54 0.5964 0.6446 0.693731
3153.879 0.6666 0.587 0.55 0.524 0.483 0.507 0.579 0.466 0.388 0.504
3173.169 0.625 0.6159 0.516 0.431 0.433 0.525 0.557 0.466 0.425 0.413
3192.458 0.461 0.464 0.342 0.308 0.353 0.448 0.373 0.313 0.544 0.6692
3211.748 0.554 0.433 0.443 0.48 0.497 0.484 0.33 0.218 0.287 0.358
3231.038 0.376 0.423 0.348 0.225 0.351 0.389 0.4 0.539 0.462 0.386
3250.328 0.4 0.435 0.432 0.305 0.344 0.468 0.564 0.558 0.52 0.499
3269.617 0.386 0.311 0.366 0.351 0.352 0.423 0.439 0.371 0.382 0.407
3288.907 0.475 0.502 0.42 0.388 0.38 0.389 0.258 0.224 0.381 0.376
3308.197 0.449 0.554 0.455 0.331 0.326 0.446 0.333 0.168 0.264 0.379
3327.487 0.382 0.41 0.535 0.414 0.322 0.46 0.441 0.383 0.369 0.48
3346.777 0.368 0.337 0.391 0.335 0.392 0.47 0.512 0.401 0.388 0.409
3366.066 0.353 0.373 0.451 0.444 0.417 0.48 0.405 0.378 0.425 0.32
3385.356 0.276 0.377 0.449 0.429 0.482 0.458 0.47 0.559 0.505 0.413
3404.646 0.421 0.294 0.151 0.306 0.543 0.504 0.39 0.353 0.338 0.396
3423.936 0.295 0.317 0.477 0.525 0.499 0.431 0.517 0.56 0.554 0.548
3443.225 0.484 0.451 0.463 0.375 0.179 0.239 0.384 0.455 0.381 0.303
3462.515 0.494 0.471 0.415 0.6407 0.58 0.415 0.491 0.466 0.384 0.426
3481.805 0.536 0.70784 0.8631 0.96 0.9041 0.9187 1.0477 1.0745 1.0979 1.1589
3501.095 1.3126 1.3375 1.3238 1.4398 1.3904 1.2887 1.4542 1.4389 1.1623 1.1256
3520.385 1.1518 1.0841 1.0117 0.9469 0.9847 0.989 0.8545 0.936 1.083 0.9934
3539.674 0.8813 0.989 1.0551 1.0047 1.0388 1.1376 1.1176 1.0224 1.2205 1.6165
3558.964 2.073 2.743 3.693 5.013 7.053 9.863 13.423 18.263 24.313 30.943
3578.254 36.993 40.873 41.893 40.993 38.953 35.553 30.723 24.293 17.043 10.783
3597.544 6.473 4.063 2.843 2.073 1.585 1.3536 1.2193 1.0549 1.0129 1.0814
3616.833 0.8534 0.76859 0.84 0.74892 0.8127 0.9025 0.77079 0.72643 0.71439 0.545
3636.123 0.481 0.579 0.6234 0.509 0.425 0.44 0.424 0.572 0.5933 0.432
3655.413 0.381 0.387 0.443 0.433 0.495 0.496 0.37 0.304 0.344 0.396
3674.703 0.341 0.354 0.414 0.338 0.341 0.372 0.458 0.386 0.357 0.45
3693.993 0.385 0.547 0.6082 0.455 0.496 0.388 0.338 0.434 0.398 0.413
3713.282 0.417 0.294 0.266 0.352 0.356 0.358 0.534 0.6213 0.495 0.555
3732.572 0.547 0.387 0.463 0.66 0.6508 0.551 0.477 0.364 0.399 0.386
3751.862 0.324 0.449 0.433 0.425 0.361 0.219 0.286 0.391 0.311 0.213
3771.152 0.292 0.388 0.476 0.437 0.391 0.45 0.426 0.414 0.517 0.6084
3790.441 0.574 0.509 0.545 0.415 0.222 0.246 0.325 0.413 0.509 0.341
3809.731 0.207 0.296 0.407 0.462 0.416 0.449 0.394 0.334 0.261 0.179
3829.021 0.322 0.463 0.474 0.449 0.43 0.367 0.271 0.262 0.159 0.15
3848.311 0.197 0.137 0.332 0.473 0.407 0.386 0.328 0.228 0.223 0.324
3867.601 0.241 0.177 0.227 0.271 0.276 0.143 0.16 0.222 0.167 0.132
3886.890 0.209 0.41 0.359 0.279 0.402 0.25 0.21 0.352 0.38 0.355
3906.180 0.3 0.361 0.296 0.276 0.403 0.488 0.431 0.302 0.134 0.103
3925.470 0.232 0.289 0.268 0.225 0.345 0.405 0.406 0.428 0.418 0.42
3944.760 0.403 0.338 0.18 0 0.138 0.306 0.269 0.315 0.498 0.557
3964.049 0.396 0.361 0.324 0.26 0.482 0.491 0.248 0.157 0.229 0.264
3983.339 0.225 0.087 0.123 0.432 0.4 0.204 0.272 0.318 0.217 0.167
##END=
