##TITLE=4-Iodophenylacetonitrile
##JCAMP-DX=4.24
##DATA TYPE=INFRARED SPECTRUM
##ORIGIN=EPA-IR VAPOR PHASE LIBRARY
##OWNER=SRD/NIST
Collection (C) 2018 copyright by the U.S. Secretary of Commerce
on behalf of the United States of America. All rights reserved.
##CAS REGISTRY NO=51628-12-7
##MOLFORM=C 8 H 6 I N
##$NIST SOURCE=MSDC-IR
##STATE=gas
##XUNITS=1/CM
##YUNITS=ABSORBANCE
##XFACTOR=1.
##YFACTOR=0.001
##DELTAX=1.92898
##FIRSTX=549.8
##LASTX=4000.7
##FIRSTY=1.302
##MAXX=4000.7
##MINX=549.759
##MAXY=0.069399
##MINY=0
##NPOINTS=1790
##XYDATA=(X++(Y..Y))
549.759 1.302 0.9208 0.41596 0.18 0.398 0.5982 0.7486 0.8294 0.579 0.42941
569.049 0.427701 0.7067 0.8092 0.6528 0.626 0.8769 0.9801 0.7743 0.7602 0.8638
588.339 1.0563 1.0207 0.8714 0.8671 1.1042 1.2545 1.2115 1.1836 1.065 0.9255
607.628 1.0278 1.2857 1.333 1.429 1.619 1.649 1.749 2.039 2.319 2.349
626.918 2.529 3.029 3.549 3.789 3.909 4.199 4.069 3.549 3.289 2.999
646.208 2.479 2.199 1.969 1.939 1.889 1.539 1.569 1.669 1.629 1.599
665.498 1.519 1.509 1.499 1.549 1.669 1.609 1.729 1.819 1.829 1.939
684.787 2.039 2.059 2.079 2.149 1.999 1.979 2.039 1.959 2.109 2.109
704.077 2.019 2.069 1.939 1.929 2.059 2.169 2.249 2.379 2.349 2.239
723.367 2.289 2.189 2.159 2.269 2.329 2.509 2.439 2.189 2.349 2.469
742.657 2.519 2.589 2.619 2.799 3.089 3.339 3.559 4.069 4.709 5.419
761.947 6.389 7.339 8.439 9.749 11.219 12.889 14.829 16.959 19.039 21.379
781.236 24.059 26.419 28.359 30.359 31.719 32.359 32.639 32.489 31.929 30.919
800.526 29.749 28.399 26.649 24.829 22.889 20.799 18.939 17.589 16.479 15.469
819.816 14.749 14.219 13.759 13.339 12.569 11.849 11.109 10.039 8.989 8.009
839.106 7.139 6.019 5.099 4.599 4.039 3.639 3.239 2.879 2.789 2.579
858.395 2.199 1.889 1.869 2.039 1.979 1.779 1.609 1.469 1.519 1.819
877.685 2.079 2.029 1.799 1.679 1.809 1.839 1.939 1.959 1.849 1.929
896.975 1.989 2.089 2.259 2.469 2.799 2.729 2.419 2.499 2.749 2.839
916.265 2.899 2.949 2.939 2.959 2.909 2.829 2.809 2.959 3.119 3.179
935.555 3.129 3.039 3.329 3.709 3.619 3.359 3.199 3.189 3.229 2.929
954.844 2.609 2.379 2.059 2.039 2.189 2.099 1.899 1.739 1.739 1.809
974.134 1.879 2.019 1.899 1.889 2.199 2.359 2.649 3.049 3.409 4.129
993.424 5.269 6.919 9.189 12.839 19.649 31.529 47.789 63.029 69.399 68.619
1012.714 67.699 60.829 41.919 21.869 10.709 6.049 4.129 3.249 2.729 2.559
1032.003 2.259 1.909 1.709 1.829 1.979 2.089 1.999 2.239 3.399 4.679
1051.293 6.649 9.539 13.329 17.579 21.319 23.319 23.589 22.479 19.239 14.299
1070.583 9.449 6.459 4.939 4.049 3.369 3.239 3.319 2.929 2.959 3.069
1089.873 2.799 2.599 2.209 2.099 2.059 2.169 2.849 3.149 3.549 3.509
1109.163 3.399 3.709 3.519 3.069 3.239 3.549 3.109 2.629 2.229 2.269
1128.452 2.389 2.069 1.879 1.659 1.489 1.3075 1.1659 1.3565 1.609 1.4167
1147.742 1.0405 1.1511 1.224 1.3713 1.809 1.779 1.529 1.529 1.549 1.3367
1167.032 1.649 2.349 2.759 3.209 3.599 4.409 5.759 6.609 7.199 7.799
1186.322 8.039 7.749 7.419 6.789 5.509 4.509 3.639 2.809 2.449 2.439
1205.611 2.539 2.709 2.639 2.709 3.439 3.969 4.299 4.629 4.419 4.459
1224.901 4.139 3.489 3.509 3.509 3.089 2.509 2.419 2.699 2.689 2.379
1244.191 2.259 2.399 2.549 2.479 2.299 2.139 2.079 2.109 2.019 2.059
1263.481 2.049 1.979 2.019 1.839 1.729 1.909 1.999 1.909 1.889 1.999
1282.771 2.179 2.259 2.489 2.759 2.959 3.119 3.179 3.359 3.389 3.389
1302.060 3.329 3.159 3.029 2.889 2.759 2.689 2.589 2.489 2.419 2.309
1321.350 2.149 2.029 1.969 1.889 1.809 1.769 1.729 1.669 1.609 1.569
1340.640 1.529 1.519 1.539 1.529 1.559 1.619 1.609 1.599 1.569 1.589
1359.930 1.619 1.629 1.689 1.779 1.959 2.129 2.249 2.529 2.889 3.229
1379.219 3.679 4.199 4.789 5.499 6.269 7.089 8.029 8.969 9.809 10.589
1398.509 11.329 11.949 12.459 12.859 13.099 13.159 13.189 13.269 13.179 13.089
1417.799 13.279 13.879 14.789 15.939 16.799 16.679 16.029 15.129 13.519 11.299
1437.089 9.179 7.789 6.949 6.409 6.049 5.809 5.619 5.569 5.479 5.319
1456.378 5.209 5.119 4.999 5.039 5.379 5.949 6.909 8.569 11.169 14.919
1475.668 20.119 27.359 36.659 47.539 57.749 64.159 65.239 62.139 55.579 44.859
1494.958 31.789 20.609 13.679 9.789 7.559 6.199 5.249 4.459 3.899 3.509
1514.248 3.189 2.859 2.559 2.339 2.209 2.099 1.939 1.769 1.699 1.679
1533.538 1.589 1.479 1.539 1.589 1.499 1.519 1.539 1.469 1.489 1.519
1552.827 1.509 1.569 1.689 1.779 1.739 1.819 1.959 1.989 2.039 2.129
1572.117 2.319 2.599 2.999 3.459 3.809 4.179 4.479 4.799 5.129 5.209
1591.407 5.109 4.939 4.829 4.669 4.429 4.209 3.869 3.619 3.429 3.179
1610.697 2.919 2.759 2.809 2.779 2.679 2.489 2.399 2.319 2.239 2.259
1629.986 2.159 2.039 2.079 2.009 1.849 1.789 1.749 1.729 1.629 1.459
1649.276 1.3614 1.3184 1.3097 1.2827 1.2344 1.1967 1.1216 1.0487 0.9646 0.8979
1668.566 0.879 0.8637 0.8203 0.8146 0.8033 0.7601 0.7635 0.7628 0.7268 0.7448
1687.856 0.7457 0.7304 0.7736 0.7408 0.6976 0.7598 0.8134 0.7864 0.7697 0.7985
1707.146 0.8465 0.7961 0.7357 0.7815 0.8563 0.8624 0.8171 0.8239 0.8686 0.9286
1726.435 0.996 1.0677 1.1002 1.1964 1.3185 1.3533 1.3745 1.4074 1.4163 1.439
1745.725 1.439 1.449 1.4066 1.2917 1.2296 1.2245 1.185 1.1427 1.1516 1.1856
1765.015 1.2632 1.449 1.689 1.939 2.259 2.529 2.759 2.919 2.909 2.769
1784.305 2.529 2.189 1.819 1.509 1.2619 1.004 0.8514 0.7641 0.6288 0.6146
1803.594 0.6796 0.7135 0.7073 0.5902 0.5399 0.5708 0.5398 0.5657 0.6591 0.6958
1822.884 0.6683 0.6386 0.6365 0.6324 0.6821 0.7144 0.6838 0.6916 0.7403 0.7318
1842.174 0.6531 0.6354 0.6471 0.6881 0.7741 0.8448 0.9575 1.0368 1.0322 1.118
1861.464 1.2647 1.3402 1.429 1.529 1.599 1.689 1.759 1.789 1.869 2.019
1880.754 2.089 2.129 2.139 2.139 2.209 2.249 2.249 2.299 2.369 2.409
1900.043 2.499 2.519 2.529 2.519 2.399 2.359 2.309 2.129 1.919 1.799
1919.333 1.679 1.509 1.3991 1.21 1.0815 1.0245 0.9065 0.805 0.7029 0.6766
1938.623 0.6819 0.6273 0.5811 0.5719 0.5881 0.5742 0.5692 0.5602 0.50391 0.50156
1957.913 0.5364 0.5704 0.6009 0.5193 0.49861 0.51796 0.49766 0.51861 0.5316 0.5348
1977.202 0.50381 0.49529 0.48598 0.47164 0.46121 0.424053 0.43054 0.418893 0.3891 0.3701
1996.492 0.3483 0.313 0.3553 0.422865 0.3751 0.3709 0.41141 0.418891 0.43026 0.49117
2015.782 0.5518 0.5557 0.5287 0.51407 0.5408 0.5419 0.49195 0.4679 0.43378 0.3841
2035.072 0.43102 0.47193 0.44217 0.47385 0.49419 0.44679 0.420562 0.424908 0.4047 0.428549
2054.362 0.5167 0.5455 0.5223 0.50642 0.50105 0.49603 0.5624 0.5917 0.6069 0.6593
2073.651 0.634 0.5693 0.5233 0.51517 0.5191 0.50853 0.50253 0.46193 0.48016 0.5487
2092.941 0.5534 0.5826 0.5479 0.5221 0.5805 0.616 0.6128 0.6246 0.6209 0.5985
2112.231 0.5673 0.6188 0.7037 0.74 0.721 0.6564 0.6624 0.7024 0.7009 0.6058
2131.521 0.5372 0.5474 0.51472 0.46084 0.5503 0.5415 0.46362 0.46921 0.424572 0.427281
2150.810 0.43235 0.47039 0.45804 0.41376 0.419554 0.3976 0.48612 0.4866 0.4003 0.41692
2170.100 0.3858 0.3741 0.4123 0.424486 0.44434 0.3812 0.362 0.41086 0.424 0.41361
2189.390 0.41519 0.43467 0.44857 0.4486 0.3882 0.3778 0.3534 0.3311 0.3867 0.43177
2208.680 0.47733 0.46693 0.45156 0.5832 0.6059 0.5219 0.49235 0.51156 0.5674 0.6134
2227.970 0.5978 0.6433 0.6949 0.7355 0.8013 0.875 0.9802 1.0203 1.0507 1.187
2247.259 1.429 1.639 1.769 1.859 1.979 2.039 1.999 1.869 1.769 1.689
2266.549 1.549 1.3854 1.249 1.0868 0.9669 0.9504 0.903 0.8803 0.8393 0.8118
2285.839 0.8353 0.837 0.8139 0.7969 0.886 0.9019 0.8697 0.9139 0.9525 0.9602
2305.129 0.9678 0.935 0.9071 0.9499 0.9339 0.8648 0.7978 0.7886 0.8149 0.7854
2324.418 0.7972 0.8485 0.8382 0.7882 0.7993 0.8014 0.7077 0.739 0.8148 0.7437
2343.708 0.6628 0.6763 0.6925 0.7073 0.7164 0.7273 0.7099 0.714 0.7092 0.6984
2362.998 0.7618 0.7265 0.6773 0.7234 0.7693 0.7646 0.7194 0.6852 0.6775 0.6433
2382.288 0.6686 0.7021 0.6495 0.6353 0.6139 0.6116 0.6937 0.7076 0.662 0.5883
2401.578 0.6201 0.5782 0.50488 0.6109 0.6881 0.6405 0.6027 0.5587 0.51538 0.5344
2420.867 0.5498 0.5334 0.5502 0.5192 0.48701 0.48239 0.5371 0.6293 0.6206 0.5475
2440.157 0.46766 0.525 0.51854 0.45346 0.48475 0.49785 0.41098 0.3577 0.43767 0.48643
2459.447 0.4565 0.4783 0.48116 0.45337 0.51856 0.5373 0.50214 0.50414 0.4872 0.49361
2478.737 0.50482 0.49677 0.50757 0.47488 0.43009 0.5796 0.6332 0.5517 0.5674 0.5415
2498.026 0.5582 0.6204 0.5641 0.5407 0.5622 0.46724 0.49538 0.6091 0.5908 0.6157
2517.316 0.6678 0.6467 0.625 0.5804 0.5662 0.6618 0.7296 0.7893 0.8168 0.8269
2536.606 0.7771 0.7408 0.8215 0.8571 0.9059 0.9306 0.9146 0.8475 0.7749 0.7209
2555.896 0.6438 0.6432 0.7442 0.6985 0.6366 0.7259 0.7758 0.7449 0.8152 0.9161
2575.186 0.8596 0.8952 0.9121 0.9215 1.0537 1.1702 1.2488 1.2954 1.2771 1.2675
2594.475 1.2379 1.2027 1.2786 1.2465 1.156 1.0983 1.0112 1.0279 1.0061 0.9046
2613.765 0.7805 0.6248 0.5689 0.5702 0.5765 0.5642 0.5081 0.46334 0.45409 0.49354
2633.055 0.5936 0.6095 0.48731 0.420411 0.51192 0.5803 0.5581 0.6002 0.6862 0.6213
2652.345 0.50296 0.46201 0.48129 0.5048 0.49648 0.5558 0.5779 0.5381 0.5578 0.5429
2671.634 0.5405 0.5267 0.49303 0.49339 0.44284 0.41198 0.42512 0.50689 0.6163 0.6053
2690.924 0.49799 0.46741 0.46403 0.51263 0.6006 0.5977 0.551 0.5274 0.5305 0.5461
2710.214 0.5249 0.5615 0.7127 0.7195 0.6155 0.5227 0.46251 0.51228 0.6507 0.6966
2729.504 0.6884 0.6665 0.6739 0.6564 0.45712 0.41694 0.5812 0.6187 0.5552 0.6673
2748.794 0.6923 0.5887 0.6012 0.6516 0.6713 0.6358 0.6113 0.5243 0.48681 0.5654
2768.083 0.5806 0.5668 0.5238 0.50474 0.5319 0.51872 0.5335 0.5215 0.5637 0.6298
2787.373 0.6263 0.589 0.51709 0.486 0.4917 0.562 0.5644 0.5216 0.5773 0.5792
2806.663 0.5443 0.6112 0.7839 0.9189 0.8792 0.7446 0.732 0.811 0.874 1.0112
2825.953 1.0247 1.0315 1.1147 1.1675 1.2953 1.3348 1.1865 1.1639 1.2337 1.1896
2845.242 1.1735 1.0804 1.0454 1.0609 0.934 0.7631 0.7019 0.8093 0.8419 0.7898
2864.532 0.8471 0.7142 0.5215 0.5343 0.6018 0.6624 0.7382 0.6804 0.5496 0.5556
2883.822 0.5899 0.5749 0.5483 0.5651 0.6552 0.696 0.7175 0.7624 0.7068 0.6693
2903.112 0.8343 0.8869 0.8668 1.05 1.2533 1.519 1.679 1.889 2.239 2.589
2922.401 3.089 3.469 3.819 4.199 4.509 4.819 4.969 4.859 4.479 4.059
2941.691 3.589 3.159 2.849 2.559 2.329 2.169 2.099 2.199 2.219 2.109
2960.981 2.009 2.039 2.059 2.059 2.119 2.139 2.099 1.899 1.719 1.639
2980.271 1.619 1.599 1.639 1.589 1.539 1.669 1.649 1.519 1.459 1.539
2999.561 1.579 1.419 1.419 1.559 1.729 1.979 2.229 2.439 2.649 3.059
3018.850 3.639 4.389 5.049 5.739 6.499 7.179 7.639 7.599 7.409 7.099
3038.140 6.619 6.159 5.749 5.489 5.409 5.239 5.129 5.139 5.039 5.099
3057.430 5.169 5.289 5.479 5.499 5.509 5.449 5.199 4.939 4.859 4.689
3076.720 4.509 4.499 4.539 4.679 4.779 4.709 4.619 4.639 4.489 4.159
3096.009 3.699 3.249 2.989 2.579 2.169 1.809 1.4042 1.1561 1.053 0.9646
3115.299 0.7995 0.5509 0.51371 0.5573 0.6085 0.6112 0.46097 0.4161 0.3744 0.314
3134.589 0.3541 0.44708 0.5837 0.6184 0.5584 0.7052 0.7049 0.5781 0.5446 0.46507
3153.879 0.45061 0.5312 0.5324 0.50128 0.6238 0.6575 0.6668 0.8043 0.6395 0.50964
3173.169 0.6531 0.7399 0.6266 0.5731 0.7853 0.9024 0.9104 0.8872 0.8183 0.8206
3192.458 0.8614 0.7996 0.7577 0.6724 0.6436 0.7735 0.7004 0.6051 0.49366 0.4417
3211.748 0.5705 0.6375 0.4853 0.45009 0.49487 0.3456 0.288 0.29 0.3814 0.420465
3231.038 0.281 0.221 0.306 0.3291 0.3358 0.4159 0.46592 0.3813 0.3579 0.4655
3250.328 0.47629 0.3634 0.4724 0.43657 0.43121 0.5821 0.46207 0.3234 0.3588 0.3948
3269.617 0.3696 0.3466 0.302 0.219 0.133 0.189 0.3726 0.3843 0.248 0.318
3288.907 0.3424 0.318 0.3809 0.44093 0.41716 0.3212 0.183 0.168 0.3 0.298
3308.197 0.19 0.187 0.183 0.243 0.274 0.232 0.278 0.3206 0.266 0.189
3327.487 0.19 0.25 0.294 0.269 0.233 0.187 0.194 0.186 0.231 0.244
3346.777 0.173 0.26 0.3717 0.317 0.185 0.123 0.171 0.275 0.3422 0.273
3366.066 0.298 0.3359 0.401 0.3826 0.276 0.41603 0.288 0.095 0.163 0.31
3385.356 0.45593 0.421547 0.287 0.3894 0.4741 0.232 0.178 0.154 0.109 0.175
3404.646 0.118 0.118 0.315 0.3256 0.235 0.3433 0.44425 0.50471 0.3903 0.3669
3423.936 0.41765 0.3223 0.235 0.092 0.184 0.3328 0.251 0.311 0.264 0.15
3443.225 0.3295 0.427529 0.278 0.187 0.228 0.208 0.298 0.44829 0.42955 0.3892
3462.515 0.4075 0.3367 0.129 0.071 0.084 0.096 0.095 0.107 0.178 0.165
3481.805 0.251 0.3415 0.3488 0.3387 0.327 0.244 0.291 0.3858 0.317 0.3247
3501.095 0.3262 0.41505 0.45672 0.315 0.161 0.131 0.111 0.151 0.272 0.43279
3520.385 0.420071 0.262 0.3894 0.47316 0.301 0.183 0.144 0.158 0.234 0.22
3539.674 0.211 0.153 0.272 0.3524 0.316 0.3351 0.275 0.146 0.102 0.281
3558.964 0.3706 0.273 0.195 0.143 0.238 0.40969 0.5241 0.425792 0.2 0.235
3578.254 0.239 0.114 0.143 0.182 0.211 0.359 0.245 0.017 0 0.096
3597.544 0.172 0.161 0.263 0.314 0.3483 0.3504 0.188 0.3733 0.46972 0.3524
3616.833 0.317 0.31 0.3227 0.3883 0.48194 0.41657 0.278 0.166 0.221 0.3822
3636.123 0.318 0.305 0.313 0.325 0.5279 0.5439 0.47391 0.426103 0.419674 0.43393
3655.413 0.43705 0.3617 0.43446 0.5606 0.51259 0.4351 0.47564 0.6796 0.654 0.5645
3674.703 0.49729 0.4772 0.5889 0.6262 0.6425 0.584 0.5525 0.561 0.4348 0.3965
3693.993 0.4052 0.41166 0.45949 0.43624 0.4795 0.628 0.6687 0.6026 0.48141 0.51277
3713.282 0.5722 0.5312 0.4883 0.5291 0.50922 0.3769 0.50918 0.5455 0.423255 0.418985
3732.572 0.43757 0.47389 0.3722 0.312 0.3409 0.3483 0.3458 0.302 0.306 0.284
3751.862 0.3445 0.48599 0.47823 0.42991 0.43731 0.48258 0.44195 0.275 0.3302 0.3997
3771.152 0.3309 0.248 0.295 0.47685 0.421779 0.2 0.196 0.298 0.211 0.246
3790.441 0.197 0.033 0.025 0.185 0.4031 0.51117 0.4101 0.278 0.4037 0.3912
3809.731 0.121 0.051 0.201 0.3214 0.239 0.157 0.41399 0.44205 0.241 0.3344
3829.021 0.321 0.207 0.109 0.088 0.3691 0.50626 0.48701 0.3614 0.207 0.213
3848.311 0.3196 0.343 0.231 0.283 0.318 0.23 0.44968 0.616 0.6234 0.786
3867.601 0.6841 0.45749 0.3234 0.3379 0.43507 0.45284 0.6079 0.6286 0.5526 0.46553
3886.890 0.317 0.3907 0.46605 0.5312 0.5528 0.4089 0.41181 0.47894 0.4001 0.43575
3906.180 0.40977 0.234 0.277 0.271 0.265 0.3946 0.3221 0.243 0.3201 0.302
3925.470 0.265 0.3245 0.40932 0.293 0.232 0.3484 0.4259 0.283 0.153 0.255
3944.760 0.3533 0.3967 0.29 0.276 0.271 0.187 0.258 0.3246 0.299 0.249
3964.049 0.3471 0.3961 0.309 0.27 0.44986 0.48896 0.28 0.249 0.3947 0.3959
3983.339 0.228 0.266 0.3791 0.3649 0.178 0.215 0.167 0.267 0.3331 0.264
##END=
