##TITLE=2,2,4-Trimethyl-3-pentanol
##JCAMP-DX=4.24
##DATA TYPE=INFRARED SPECTRUM
##ORIGIN=NIST Mass Spectrometry Data Center
##OWNER=NIST Standard Reference Data Program
Collection (C) 2018 copyright by the U.S. Secretary of Commerce
on behalf of the United States of America. All rights reserved.
##CAS REGISTRY NO=5162-48-1
##MOLFORM=C 8 H 18 O
##$NIST SOURCE=MSDC-IR
##SPECTROMETER/DATA SYSTEM=HP-GC/MS/IRD
##STATE=gas
##XUNITS=1/CM
##YUNITS=ABSORBANCE
##XFACTOR=1.0
##YFACTOR=0.000004600
##DELTAX=4.0
##FIRSTX=550.0
##LASTX=3846.0
##FIRSTY=0.000497
##MAXX=3846
##MINX=550
##MAXY=0.046
##MINY=0
##NPOINTS=825
##XYDATA=(X++(Y..Y))
550.0 108 80 60 61 54 60 69 77 76 66
590.0 59 59 61 52 57 69 79 91 100 101
630.0 93 81 64 45 37 37 33 23 11 12
670.0 15 18 21 14 0 7 10 5 11 11
710.0 19 19 18 26 32 42 51 61 74 92
750.0 101 102 102 98 86 71 67 56 38 35
790.0 41 51 57 55 58 60 53 60 49 51
830.0 64 55 52 51 50 46 46 52 61 77
870.0 99 120 135 138 139 137 130 126 128 147
910.0 179 209 248 292 327 368 408 454 511 588
950.0 681 789 910 1048 1200 1367 1560 1767 1964 2126
990.0 2202 2161 2006 1763 1491 1234 1042 931 894 915
1030.0 941 945 914 855 771 670 576 500 448 418
1070.0 408 417 437 460 495 535 582 640 703 772
1110.0 845 897 908 873 808 741 669 608 580 587
1150.0 623 673 739 802 845 860 849 816 767 722
1190.0 698 690 683 678 676 667 666 678 694 708
1230.0 715 713 704 685 650 614 583 560 538 518
1270.0 502 485 472 453 430 408 395 384 366 350
1310.0 334 320 309 305 313 325 351 386 433 518
1350.0 653 847 1082 1325 1563 1732 1732 1640 1560 1488
1390.0 1438 1390 1303 1160 972 774 600 481 412 375
1430.0 371 396 438 494 575 686 839 1016 1184 1363
1470.0 1532 1627 1610 1501 1319 1098 859 633 459 354
1510.0 274 217 185 163 137 117 107 110 105 85
1550.0 77 80 87 74 57 51 57 55 44 45
1590.0 43 43 42 41 39 42 48 46 44 44
1630.0 40 45 43 39 44 55 55 38 37 38
1670.0 38 37 32 40 38 25 35 45 38 28
1710.0 23 29 33 22 16 25 29 18 13 14
1750.0 18 15 14 15 12 17 15 9 13 11
1790.0 9 12 8 5 6 5 3 1 5 10
1830.0 10 8 6 6 8 8 6 8 9 11
1870.0 14 9 6 5 4 3 4 3 0 2
1910.0 4 4 6 5 4 4 5 10 12 9
1950.0 6 7 12 15 16 14 13 14 14 12
1990.0 11 10 10 7 7 7 5 5 5 7
2030.0 5 5 3 3 5 5 1 1 1 0
2070.0 0 3 2 2 5 7 6 4 5 6
2110.0 8 6 9 8 7 9 8 3 4 5
2150.0 5 3 6 10 6 5 6 2 0 1
2190.0 2 3 3 1 0 0 1 0 0 1
2230.0 5 7 6 5 6 8 7 7 7 4
2270.0 4 11 14 11 11 13 18 19 16 18
2310.0 18 16 16 16 17 15 17 19 14 13
2350.0 14 18 22 27 26 22 22 22 19 19
2390.0 21 22 23 24 26 26 23 23 23 23
2430.0 25 20 19 21 20 19 18 21 22 25
2470.0 23 21 21 20 23 23 19 19 22 22
2510.0 20 18 16 16 18 25 27 24 24 27
2550.0 30 34 36 38 43 47 53 53 51 55
2590.0 61 63 62 63 66 71 77 83 85 89
2630.0 92 93 93 96 104 108 111 111 113 117
2670.0 122 125 130 140 148 150 150 151 156 166
2710.0 177 183 190 201 207 208 210 207 202 198
2750.0 198 199 197 197 202 208 215 220 228 237
2790.0 250 270 293 314 339 365 397 439 492 552
2830.0 625 718 831 972 1144 1345 1585 1874 2218 2608
2870.0 3010 3380 3656 3787 3762 3644 3489 3354 3284 3315
2910.0 3431 3613 3833 4069 4320 4578 4867 5213 5645 6234
2950.0 7040 7996 8953 9717 10000 9689 8844 7580 6209 4961
2990.0 3923 3099 2442 1923 1511 1187 944 758 623 522
3030.0 442 380 333 300 278 253 235 223 209 201
3070.0 200 195 187 185 182 176 169 161 156 155
3110.0 153 145 141 141 144 141 136 135 134 135
3150.0 137 141 142 136 133 129 121 121 126 122
3190.0 122 117 108 108 109 103 95 85 80 74
3230.0 65 62 57 55 49 40 40 40 40 38
3270.0 33 31 29 28 26 25 24 21 15 13
3310.0 14 14 14 16 14 13 14 9 11 10
3350.0 7 12 12 11 15 17 17 18 17 13
3390.0 15 24 21 15 17 22 26 23 22 24
3430.0 23 22 19 20 25 25 26 30 28 26
3470.0 24 22 25 26 27 23 17 25 25 17
3510.0 13 15 13 6 5 7 2 0 5 10
3550.0 8 7 8 7 15 15 7 10 14 12
3590.0 9 10 15 16 24 33 39 50 61 85
3630.0 112 135 174 218 274 337 396 447 488 519
3670.0 515 461 380 290 205 138 93 66 49 39
3710.0 38 34 20 9 15 19 25 24 25 28
3750.0 20 15 8 10 9 8 9 12 12 14
3790.0 16 15 22 25 22 24 29 36 34 31
3830.0 32 38 41 40 41
##END=
