##TITLE=3-Phenoxyphenylacetonitrile
##JCAMP-DX=4.24
##DATA TYPE=INFRARED SPECTRUM
##ORIGIN=EPA-IR VAPOR PHASE LIBRARY
##OWNER=SRD/NIST
Collection (C) 2018 copyright by the U.S. Secretary of Commerce
on behalf of the United States of America. All rights reserved.
##CAS REGISTRY NO=51632-29-2
##MOLFORM=C 14 H 11 N O
##$NIST SOURCE=MSDC-IR
##STATE=gas
##XUNITS=1/CM
##YUNITS=ABSORBANCE
##XFACTOR=1.
##YFACTOR=0.001
##DELTAX=1.92898
##FIRSTX=549.8
##LASTX=4000.7
##FIRSTY=1.23
##MAXX=4000.7
##MINX=549.759
##MAXY=0.16332
##MINY=0
##NPOINTS=1790
##XYDATA=(X++(Y..Y))
549.759 1.23 0.7604 0.4804 0.6894 1.0044 1.1432 0.8898 0.6608 0.8321 1.038
569.049 0.9769 1.0469 0.859 0.8284 1.0029 0.6389 0.6879 1.1141 0.9438 0.7777
588.339 0.8535 0.6893 0.8588 1.0553 1.1796 1.28 0.9673 1.0623 1.31 1.28
607.628 1.3 1.29 1.27 1.3 1.38 1.49 1.46 1.39 1.29 1.28
626.918 1.35 1.41 1.73 1.84 1.73 1.85 2.01 1.9 1.98 2.15
646.208 2.3 2.58 2.88 3.18 3.34 3.53 3.86 4.09 4.51 4.87
665.498 4.97 5.51 6.31 7.16 8.38 10.1 12.34 14.96 18.3 22.48
684.787 27.12 31.55 34.72 36.43 36.42 34.49 31.39 27.53 23.19 19.21
704.077 15.86 13.21 11.31 10.08 9.21 8.38 7.93 7.83 8 8.28
723.367 8.62 9.2 9.8 10.49 11.44 12.4 13.48 14.35 15.05 15.9
742.657 16.58 17.27 18.14 19.04 19.98 21 21.91 22.94 24.15 25.32
761.947 26.33 27.35 28.35 28.99 29.39 29.64 29.59 29.3 28.68 27.79
781.236 26.5 25.03 23.29 21.11 19.38 17.73 15.86 14.28 13 11.89
800.526 11.14 10.93 10.96 11.21 11.18 10.74 10.59 10.65 10.56 10.38
819.816 10.2 10.22 10.51 10.58 10.43 10.03 9.35 8.65 7.83 7.11
839.106 6.74 6.36 5.81 5.56 5.49 5.28 5.39 5.8 6.08 6.39
858.395 6.79 7.22 7.47 7.4 7.46 7.54 7.7 7.88 7.74 7.84
877.685 8.02 8.33 8.88 9.31 10.05 10.83 11.69 12.56 13.14 14.03
896.975 14.92 15.4 15.73 15.45 14.65 13.95 12.88 11.78 10.78 9.75
916.265 8.94 8.33 8.03 7.87 7.71 7.63 7.52 7.45 7.46 7.22
935.555 6.92 6.68 6.65 6.86 6.72 6.73 6.93 7.18 7.89 8.94
954.844 10.43 12.3 14.34 16.42 18.16 19.18 19.31 18.7 17.48 15.88
974.134 13.95 12.03 10.42 8.76 7.3 6.33 5.44 4.92 4.5 4.16
993.424 4.2 3.98 3.65 3.82 4.03 3.93 3.83 3.51 3.46 4.01
1012.714 4.5 5.17 6.52 7.88 8.52 8.61 8 7.06 6.05 4.88
1032.003 3.54 2.28 1.87 1.96 1.96 1.73 1.62 1.72 1.71 1.8
1051.293 2.11 2.32 2.37 2.58 2.9 3.77 4.85 5.36 5.7 6.17
1070.583 6.54 6.32 6.03 6.07 5.69 5.09 5.31 5.07 4.12 3.45
1089.873 3.19 3.34 3.23 2.8 2.55 2.54 2.34 2.12 1.9 1.66
1109.163 1.82 2 2.28 2.74 2.7 2.79 3.51 3.99 4.74 5.82
1128.452 6.78 8.37 10.66 12.61 14.29 15.58 16.51 17.02 16.6 15.83
1147.742 15.06 14.48 14.62 16.05 18.63 21.54 23.81 25.17 25.78 24.97
1167.032 22.52 19.37 16.78 15.09 13.93 13.13 13.07 13.32 13.52 13.9
1186.322 14.87 16.24 18.13 21.1 24.66 29.28 35.26 42.73 51.14 59.51
1205.611 67 73.53 78.46 79.6 77.27 72.78 67.07 61.65 57.5 55.2
1224.901 54.82 56.61 60.44 65.59 71.79 79.85 89.55 100.04 111.38 123.62
1244.191 135.83 147.02 156.08 161.62 163.32 160.77 154.02 143.81 131.21 118.09
1263.481 105.51 94.19 84.67 76.72 69.79 63.63 57.92 52.69 47.86 43.38
1282.771 39.49 36.06 33.24 31.15 29.59 28.43 27.57 26.99 26.58 26.34
1302.060 26.36 26.32 26.3 26.21 25.71 24.95 23.85 22.49 21.04 19.53
1321.350 18.1 16.88 15.78 14.79 13.91 13.06 12.33 11.65 10.84 10.04
1340.640 9.29 8.45 7.63 6.87 6.18 5.65 5.22 4.83 4.54 4.31
1359.930 4.16 4.09 3.97 3.95 3.98 3.93 4.01 4.15 4.29 4.4
1379.219 4.5 4.58 4.59 4.59 4.56 4.61 4.78 4.97 5.17 5.47
1398.509 5.94 6.45 6.87 7.31 7.72 8.19 8.7 9.27 9.96 10.68
1417.799 11.55 12.74 14.2 15.74 17.03 18.07 19.24 20.69 22.61 25.52
1437.089 30.13 36.47 43.9 51.26 57.09 60.4 60.56 57.44 51.63 44.49
1456.378 37.64 32.21 28.57 26.44 25.55 25.84 27.57 30.81 36.01 44
1475.668 55.16 70.17 88.73 109.28 129.12 145.18 154.42 154.14 143.72 126.23
1494.958 105.26 83.07 62.88 47.52 37.27 30.33 25.09 21.11 18.13 15.73
1514.248 13.81 12.31 11.24 10.36 9.71 9.31 8.95 8.76 8.69 8.58
1533.538 8.53 8.56 8.62 8.78 8.94 9.13 9.52 10.04 10.68 11.45
1552.827 12.42 13.68 15.23 17.37 20.27 23.68 27.6 31.94 36.65 42.03
1572.117 48.07 55.09 63.76 73.95 84.94 95.74 104.65 110.28 111.55 108.34
1591.407 101.4 92.16 82.36 73.12 64.93 58.08 52.44 47.92 44.43 41.44
1610.697 38.41 34.97 31.05 26.62 22.25 18.3 14.71 11.87 9.82 8.31
1629.986 7.24 6.39 5.65 5.08 4.67 4.36 4.09 3.82 3.58 3.38
1649.276 3.19 3.03 2.82 2.73 2.73 2.57 2.52 2.55 2.51 2.42
1668.566 2.3 2.25 2.29 2.26 2.28 2.32 2.32 2.37 2.36 2.4
1687.856 2.45 2.43 2.5 2.52 2.51 2.64 2.64 2.57 2.72 2.8
1707.146 2.83 2.89 2.91 2.88 2.85 2.9 2.95 2.88 2.83 2.83
1726.435 2.86 2.93 2.92 2.79 2.69 2.68 2.55 2.48 2.45 2.38
1745.725 2.35 2.31 2.34 2.37 2.45 2.49 2.49 2.51 2.51 2.56
1765.015 2.62 2.71 2.77 2.82 2.82 2.85 2.94 2.84 2.63 2.49
1784.305 2.31 2.22 2.1 2.02 2.06 1.99 1.87 1.87 1.78 1.68
1803.594 1.77 1.8 1.77 1.79 1.76 1.73 1.76 1.83 1.93 1.98
1822.884 1.97 1.98 2.07 2.07 2.09 2.2 2.25 2.33 2.44 2.54
1842.174 2.52 2.55 2.75 2.86 2.94 3.04 3.02 3 3.05 3.06
1861.464 2.99 2.88 2.85 2.77 2.69 2.58 2.42 2.3 2.21 2.11
1880.754 2.02 1.98 1.92 1.79 1.71 1.77 1.82 1.85 1.81 1.81
1900.043 1.91 1.95 1.99 2.15 2.23 2.33 2.5 2.69 2.91 3.11
1919.333 3.38 3.63 3.88 4.1 4.24 4.38 4.39 4.23 3.98 3.77
1938.623 3.58 3.38 3.19 3.11 3.03 2.88 2.75 2.61 2.45 2.25
1957.913 2.09 2.06 2.07 2.03 2.03 2.08 2.08 2.11 2.15 2.15
1977.202 2.2 2.24 2.24 2.3 2.33 2.32 2.31 2.3 2.28 2.22
1996.492 2.15 2.09 2.06 2.07 2.04 2 1.95 1.92 1.96 1.99
2015.782 2.01 2.04 2.04 2.05 2.14 2.23 2.26 2.3 2.34 2.32
2035.072 2.26 2.13 2.13 2.15 2.04 2.06 2.04 1.9 1.89 1.88
2054.362 1.82 1.8 1.77 1.79 1.73 1.68 1.71 1.67 1.64 1.59
2073.651 1.55 1.56 1.55 1.52 1.48 1.49 1.48 1.35 1.31 1.36
2092.941 1.37 1.32 1.26 1.26 1.3 1.3 1.29 1.3 1.28 1.23
2112.231 1.2002 1.23 1.1767 1.0447 1.0336 1.0707 1.0536 1.077 1.1178 1.1208
2131.521 1.1132 1.0472 0.9505 1.0281 1.0942 1.0484 1.0779 1.0866 1.0323 1.0025
2150.810 0.9799 0.9568 0.9647 0.9664 1.0312 1.0937 1.0335 0.9747 1.0452 1.0835
2170.100 1.0563 1.0285 1.0274 1.0275 1.0484 1.0062 1.0565 1.0931 0.979 0.9549
2189.390 0.9701 0.9784 0.9516 1.0359 1.1082 1.1008 1.051 1.0218 1.1436 1.1821
2208.680 1.2095 1.26 1.1475 1.074 1.125 1.1183 1.1571 1.23 1.26 1.3
2227.970 1.3 1.3 1.28 1.23 1.1243 1.1745 1.34 1.46 1.54 1.58
2247.259 1.6 1.67 1.8 1.9 1.98 2.02 1.98 1.85 1.76 1.74
2266.549 1.64 1.49 1.45 1.44 1.35 1.2151 1.23 1.23 1.1674 1.1969
2285.839 1.29 1.33 1.24 1.25 1.32 1.29 1.33 1.48 1.53 1.5
2305.129 1.54 1.66 1.72 1.68 1.66 1.71 1.75 1.77 1.8 1.8
2324.418 1.75 1.66 1.68 1.68 1.54 1.45 1.54 1.54 1.49 1.52
2343.708 1.46 1.44 1.43 1.43 1.47 1.49 1.44 1.39 1.4 1.47
2362.998 1.53 1.57 1.6 1.65 1.67 1.69 1.79 1.97 2.18 2.2
2382.288 2.19 2.29 2.35 2.37 2.4 2.44 2.51 2.53 2.55 2.54
2401.578 2.5 2.51 2.59 2.6 2.54 2.57 2.58 2.51 2.45 2.4
2420.867 2.28 2.2 2.17 2.1 2.01 1.95 1.94 1.96 1.91 1.79
2440.157 1.77 1.8 1.8 1.79 1.72 1.72 1.74 1.68 1.65 1.72
2459.447 1.75 1.68 1.6 1.57 1.58 1.55 1.49 1.51 1.51 1.54
2478.737 1.52 1.45 1.48 1.49 1.5 1.49 1.43 1.48 1.51 1.5
2498.026 1.45 1.44 1.51 1.47 1.43 1.4 1.42 1.43 1.33 1.35
2517.316 1.33 1.2047 1.2081 1.1981 1.2019 1.2113 1.1098 1.0753 1.0941 1.0615
2536.606 1.0576 1.0977 1.1554 1.1612 1.2166 1.2167 1.24 1.29 1.32 1.215
2555.896 1.0821 1.1338 1.1682 1.27 1.28 1.23 1.33 1.49 1.48 1.36
2575.186 1.38 1.46 1.44 1.3 1.22 1.23 1.24 1.1578 1.1097 1.2149
2594.475 1.26 1.26 1.1871 1.1218 1.1498 1.146 1.1466 1.1534 1.1361 1.0498
2613.765 1.0163 1.0563 1.048 1.0018 0.9636 0.9211 0.8561 0.8561 0.7858 0.8092
2633.055 0.8164 0.7606 0.7879 0.7534 0.7837 0.7733 0.6997 0.6688 0.696 0.7192
2652.345 0.6936 0.6609 0.7233 0.6701 0.5352 0.5696 0.6027 0.594 0.6326 0.6901
2671.634 0.6202 0.5659 0.6291 0.6246 0.5357 0.5748 0.7458 0.815 0.7754 0.7302
2690.924 0.7006 0.6865 0.6192 0.6733 0.8197 0.8658 0.8453 0.8494 0.8794 0.8419
2710.214 0.8061 0.7662 0.8318 0.9088 0.8297 0.839 0.9109 0.936 0.9279 0.9216
2729.504 0.9526 0.9412 0.9222 0.9168 0.9286 1.0174 1.0512 0.9732 0.9372 0.8721
2748.794 0.806 0.8303 0.8625 0.8048 0.8136 0.8291 0.725 0.6754 0.6956 0.7181
2768.083 0.6482 0.6501 0.7115 0.6648 0.6238 0.6944 0.7165 0.6521 0.6138 0.7257
2787.373 0.7634 0.6832 0.6789 0.6351 0.5774 0.623 0.6795 0.677 0.619 0.5937
2806.663 0.7148 0.732 0.5885 0.6341 0.8147 0.7821 0.6562 0.7752 0.9196 0.9161
2825.953 0.946 0.9596 1.0295 1.1335 1.1469 1.1866 1.172 1.074 1.11 1.1993
2845.242 1.1673 1.1281 1.0859 1.0018 0.8518 0.7891 0.7857 0.8461 0.8702 0.8171
2864.532 0.8986 0.8803 0.8136 0.8408 0.8249 0.7653 0.7208 0.7166 0.7403 0.6848
2883.822 0.7566 0.8574 0.8356 0.7688 0.7897 0.8263 0.8414 0.9182 0.942 0.9206
2903.112 0.9343 1.111 1.29 1.27 1.32 1.41 1.47 1.68 1.86 1.94
2922.401 2.21 2.5 2.81 3.03 3.15 3.26 3.27 3.26 3.07 2.84
2941.691 2.58 2.27 2.06 1.88 1.69 1.59 1.65 1.65 1.49 1.39
2960.981 1.43 1.45 1.51 1.56 1.5 1.39 1.22 1.1073 0.9675 0.8832
2980.271 1.0198 1.0371 1.0289 1.1148 1.0088 0.9435 1.0781 1.1513 1.1644 1.3
2999.561 1.48 1.54 1.72 1.94 2.06 2.3 2.57 2.97 3.53 3.94
3018.850 4.43 5.12 5.68 6.31 7.05 7.94 8.93 9.9 10.99 12.12
3038.140 13.3 14.37 15.27 15.92 16.4 16.54 16.15 15.71 15.33 14.97
3057.430 14.66 14.54 14.88 15.57 16.19 16.7 17.36 18.15 19.08 20.28
3076.720 21.32 21.74 21.66 21 19.62 17.92 16.11 14.4 13.06 11.82
3096.009 10.84 10.16 9.36 8.45 7.53 6.77 6.01 5.22 4.58 4.02
3115.299 3.36 2.85 2.48 2.22 2.01 1.85 1.53 1.24 1.1679 1.0535
3134.589 0.8972 0.8524 0.8606 0.8614 0.7924 0.6786 0.801 0.9054 0.7532 0.6491
3153.879 0.6967 0.6867 0.6877 0.6678 0.5576 0.5444 0.6564 0.8378 0.791 0.6079
3173.169 0.6847 0.8186 0.686 0.6664 0.8938 0.8213 0.6978 0.8019 0.7473 0.6901
3192.458 0.7676 0.7453 0.6953 0.7677 0.8165 0.7314 0.7449 0.7106 0.695 0.7303
3211.748 0.7463 0.6732 0.6158 0.6485 0.4306 0.3607 0.5868 0.5879 0.4246 0.4383
3231.038 0.3838 0.27554 0.3322 0.467 0.5739 0.6484 0.6403 0.5028 0.392 0.3752
3250.328 0.25907 0.1287 0.3872 0.5273 0.3583 0.28298 0.4311 0.5574 0.4257 0.365
3269.617 0.4471 0.3877 0.3257 0.30474 0.23313 0.29663 0.3583 0.3841 0.4083 0.3421
3288.907 0.28596 0.28469 0.165 0.2098 0.30824 0.3538 0.4538 0.5514 0.4731 0.3923
3308.197 0.4178 0.27174 0.27486 0.308 0.27686 0.4152 0.5147 0.439 0.3817 0.1722
3327.487 0.007 0.1423 0.24539 0.3381 0.3972 0.25068 0.1 0.21355 0.26421 0.1977
3346.777 0.26507 0.28905 0.26806 0.3221 0.3634 0.28551 0.23536 0.27198 0.28341 0.3519
3366.066 0.3317 0.3219 0.3261 0.229642 0.2565 0.3472 0.396 0.226301 0.093 0.1738
3385.356 0.2064 0.30228 0.4066 0.3833 0.4138 0.3601 0.3576 0.3159 0.3817 0.6024
3404.646 0.5888 0.552 0.5178 0.30517 0.25915 0.3344 0.201 0.26327 0.28383 0.166
3423.936 0.24143 0.28039 0.3438 0.28102 0.223812 0.24854 0.1383 0.1973 0.23398 0.25333
3443.225 0.1814 0.039 0.077 0.1686 0.1955 0.1343 0.1598 0.2507 0.29283 0.3425
3462.515 0.4029 0.27195 0.1905 0.3751 0.4646 0.3752 0.4118 0.3676 0.28097 0.3459
3481.805 0.29663 0.29819 0.4463 0.3296 0.2078 0.3576 0.3967 0.3358 0.28605 0.23363
3501.095 0.27618 0.27017 0.220753 0.29548 0.3304 0.3361 0.4319 0.4249 0.3069 0.3905
3520.385 0.463 0.4724 0.4308 0.4619 0.5293 0.3611 0.4491 0.4854 0.3374 0.3371
3539.674 0.3134 0.4309 0.477 0.3573 0.1512 0.1535 0.1421 0.116 0.3933 0.4096
3558.964 0.3603 0.3944 0.3267 0.3612 0.3225 0.4008 0.4301 0.226736 0.31073 0.4326
3578.254 0.4762 0.4627 0.2659 0.1937 0.121 0.30956 0.452 0.27933 0.3361 0.4812
3597.544 0.4878 0.4053 0.3869 0.342 0.1857 0.27517 0.3736 0.2977 0.4342 0.5485
3616.833 0.4452 0.4644 0.4634 0.4979 0.4868 0.3748 0.4019 0.23588 0.24137 0.333
3636.123 0.4121 0.4697 0.4333 0.5379 0.6378 0.3875 0.4203 0.6458 0.51 0.4985
3655.413 0.6301 0.6104 0.5398 0.436 0.26218 0.3617 0.6367 0.5763 0.4187 0.4421
3674.703 0.3949 0.3914 0.5055 0.5967 0.5076 0.3627 0.381 0.3206 0.3557 0.5422
3693.993 0.5089 0.5532 0.563 0.5069 0.44 0.27037 0.30272 0.4277 0.30857 0.25945
3713.282 0.3851 0.4067 0.4012 0.3755 0.3236 0.3415 0.31819 0.21295 0.1338 0.099
3732.572 0.3236 0.4619 0.31939 0.2823 0.31849 0.3965 0.3619 0.27638 0.28524 0.3625
3751.862 0.4761 0.3405 0.2069 0.23464 0.2095 0.24729 0.21014 0.026 0.018 0.21651
3771.152 0.3335 0.3325 0.4349 0.3486 0.1211 0.24953 0.4113 0.31516 0.1276 0.1806
3790.441 0.27981 0.371 0.4302 0.30886 0.30959 0.3325 0.36 0.4242 0.5102 0.6514
3809.731 0.626 0.4819 0.4033 0.31042 0.31126 0.3584 0.2589 0.26726 0.4182 0.5014
3829.021 0.4826 0.4206 0.388 0.4577 0.3633 0.3343 0.5389 0.5651 0.4378 0.3871
3848.311 0.4631 0.4759 0.4347 0.3915 0.4179 0.435 0.392 0.3347 0.3779 0.31961
3867.601 0.24402 0.26736 0.28361 0.28232 0.1842 0.27241 0.412 0.4277 0.4432 0.5113
3886.890 0.5223 0.4041 0.27684 0.3473 0.5663 0.4911 0.1995 0.1928 0.1986 0.1805
3906.180 0.26427 0.1551 0.1943 0.5054 0.5 0.31421 0.27088 0.23479 0.1937 0.31372
3925.470 0.4164 0.31154 0.3755 0.3352 0.3738 0.4725 0.25737 0.2092 0.24593 0.25883
3944.760 0.26265 0.1937 0.1757 0.1788 0.29775 0.3336 0.4895 0.4642 0.3325 0.2476
3964.049 0 0.008 0.1401 0.072 0.063 0.23601 0.1807 0.2033 0.5684 0.605
3983.339 0.5067 0.4208 0.22637 0.3372 0.3761 0.227381 0.097 0.048 0.21688 0.378
##END=
