##TITLE=4-Ethylphenylacetonitrile
##JCAMP-DX=4.24
##DATA TYPE=INFRARED SPECTRUM
##ORIGIN=EPA-IR VAPOR PHASE LIBRARY
##OWNER=SRD/NIST
Collection (C) 2018 copyright by the U.S. Secretary of Commerce
on behalf of the United States of America. All rights reserved.
##CAS REGISTRY NO=51632-28-1
##MOLFORM=C 10 H 11 N
##$NIST SOURCE=MSDC-IR
##STATE=gas
##XUNITS=1/CM
##YUNITS=ABSORBANCE
##XFACTOR=1.
##YFACTOR=0.001
##DELTAX=1.92898
##FIRSTX=549.8
##LASTX=4000.7
##FIRSTY=3.157
##MAXX=4000.7
##MINX=549.759
##MAXY=0.048117
##MINY=0
##NPOINTS=1790
##XYDATA=(X++(Y..Y))
549.759 3.157 2.947 2.517 2.467 2.437 2.507 2.477 2.417 2.417 2.447
569.049 2.637 2.627 2.437 2.437 2.427 2.497 2.517 2.147 2.107 2.207
588.339 2.267 2.197 2.007 2.257 2.567 2.637 2.407 2.147 2.227 1.997
607.628 1.877 1.987 1.767 1.3363 1.2619 1.3143 1.0898 1.0315 1.09 1.1014
626.918 0.8641 0.7759 0.9252 0.8397 0.9949 1.0219 0.7783 0.7877 0.8336 0.8277
646.208 0.7261 0.7845 0.9614 1.0591 1.0645 0.8947 0.989 1.098 0.9419 1.1112
665.498 1.2581 1.202 1.1411 1.1534 1.4337 1.567 1.547 1.807 1.807 1.827
684.787 2.037 2.157 2.177 2.337 2.417 2.377 2.367 2.487 2.777 2.697
704.077 2.587 2.627 2.627 2.597 2.647 2.657 2.697 2.877 2.847 2.727
723.367 2.757 2.697 2.637 2.727 2.927 3.127 3.257 3.217 3.197 3.177
742.657 3.067 2.947 2.927 2.897 2.967 3.117 3.177 3.067 2.907 3.007
761.947 3.167 3.237 3.307 3.437 3.667 3.867 4.117 4.617 5.037 5.327
781.236 5.717 6.267 6.807 7.457 8.317 9.367 10.227 10.937 12.097 13.237
800.526 14.097 14.807 15.477 16.057 16.477 16.757 16.707 16.687 16.537 16.297
819.816 15.827 15.157 14.597 13.837 12.927 12.097 11.477 10.577 9.697 9.107
839.106 8.277 7.657 6.967 6.127 5.677 5.127 4.587 4.437 4.127 3.587
858.395 3.337 3.077 2.587 2.237 2.117 2.107 2.037 1.907 1.747 1.617
877.685 1.587 1.577 1.537 1.527 1.338 1.2365 1.4451 1.647 1.627 1.587
896.975 1.687 1.857 2.067 1.897 1.847 2.087 2.137 2.157 2.157 2.167
916.265 2.207 2.267 2.257 2.167 2.207 2.327 2.257 2.177 2.187 2.167
935.555 2.047 2.107 2.067 1.987 1.997 1.917 1.887 1.947 2.087 1.937
954.844 1.997 2.307 2.447 2.627 2.817 2.767 2.857 3.127 3.037 2.817
974.134 2.637 2.397 2.257 2.057 1.887 1.657 1.647 1.817 1.817 1.577
993.424 1.2736 1.1591 1.1641 1.1583 1.2664 1.487 1.4714 1.617 1.987 2.667
1012.714 3.757 4.807 5.537 5.837 5.857 5.727 5.377 4.917 4.217 3.257
1032.003 2.527 2.197 2.197 2.187 2.247 2.337 2.477 2.827 2.837 2.817
1051.293 2.937 3.317 3.817 4.197 4.537 4.377 4.047 3.907 3.707 3.397
1070.583 3.037 2.627 2.267 1.657 1.3748 1.0059 0.9979 1.4287 1.3888 1.537
1089.873 1.1159 0.8625 1.2892 1.627 1.717 1.667 1.827 2.047 2.267 2.387
1109.163 2.397 2.767 2.687 2.567 2.797 3.007 3.107 2.927 3.017 3.017
1128.452 2.827 2.657 2.377 2.277 1.827 1.3428 1.4553 1.4024 1.527 1.4587
1147.742 1.3103 1.1299 0.54125 0.478863 0.9275 1.0841 0.925 0.8281 1.0745 1.1065
1167.032 1.0752 1.2749 1.1676 0.9364 0.8007 0.7249 0.739 0.9664 1.2693 1.419
1186.322 1.2373 1.627 1.967 1.837 2.247 2.517 2.287 2.077 2.057 2.147
1205.611 2.297 2.397 2.217 2.197 2.127 1.917 2.047 2.197 2.327 2.597
1224.901 2.837 2.877 2.907 2.867 3.007 3.097 2.947 2.697 2.187 2.047
1244.191 2.067 2.007 2.037 1.957 1.787 1.517 1.587 1.877 1.967 2.017
1263.481 2.087 2.037 2.007 1.907 1.947 2.297 2.337 2.327 2.557 2.637
1282.771 2.527 2.677 2.847 2.967 3.137 3.197 3.247 3.397 3.457 3.477
1302.060 3.587 3.597 3.607 3.687 3.717 3.737 3.887 4.067 4.197 4.367
1321.350 4.487 4.527 4.537 4.497 4.357 4.207 3.947 3.637 3.357 3.107
1340.640 2.907 2.667 2.517 2.407 2.287 2.217 2.167 2.137 2.087 2.107
1359.930 2.137 2.207 2.287 2.267 2.277 2.347 2.397 2.477 2.577 2.707
1379.219 2.857 3.007 3.157 3.257 3.297 3.397 3.577 3.687 3.817 4.087
1398.509 4.427 4.757 5.157 5.577 6.107 6.807 7.517 8.237 8.927 9.777
1417.799 10.797 11.897 13.047 13.967 14.317 14.327 14.227 14.037 13.667 12.727
1437.089 11.417 10.247 9.447 8.937 8.437 8.087 7.917 7.827 7.727 7.597
1456.378 7.537 7.517 7.487 7.447 7.427 7.237 7.007 6.787 6.557 6.267
1475.668 5.877 5.457 5.127 4.947 4.767 4.677 4.767 4.867 5.107 5.557
1494.958 6.227 7.157 8.367 9.987 12.227 15.097 18.367 21.437 23.887 25.247
1514.248 25.417 24.777 23.377 21.157 17.907 14.017 10.267 7.397 5.547 4.367
1533.538 3.607 3.157 2.917 2.627 2.477 2.457 2.247 2.047 1.917 1.887
1552.827 1.907 1.827 1.707 1.627 1.547 1.4602 1.3835 1.3741 1.3875 1.3634
1572.117 1.3169 1.2625 1.3101 1.3555 1.2738 1.1963 1.1981 1.215 1.1859 1.2204
1591.407 1.2857 1.3242 1.3022 1.2235 1.197 1.2354 1.3049 1.4147 1.4711 1.477
1610.697 1.507 1.4634 1.547 1.667 1.697 1.777 1.757 1.767 1.727 1.727
1629.986 1.857 1.807 1.797 1.837 1.807 1.757 1.817 1.857 1.847 1.727
1649.276 1.657 1.717 1.657 1.697 1.697 1.597 1.537 1.497 1.4651 1.4478
1668.566 1.3867 1.3475 1.3265 1.2359 1.1548 1.0905 1.0262 0.9993 1.037 1.0398
1687.856 0.9643 0.8588 0.8142 0.8189 0.8023 0.8053 0.8634 0.8589 0.7681 0.7419
1707.146 0.7801 0.8367 0.8711 0.8731 0.8451 0.8233 0.8031 0.7901 0.8651 0.9416
1726.435 0.8942 0.8416 0.825 0.8959 0.9513 0.9899 1.0726 1.0641 1.0785 1.1367
1745.725 1.1798 1.1902 1.251 1.3706 1.4244 1.477 1.547 1.597 1.617 1.587
1765.015 1.627 1.687 1.717 1.777 1.837 1.957 2.067 2.167 2.327 2.457
1784.305 2.477 2.437 2.317 2.157 1.987 1.767 1.477 1.2433 1.0959 0.9779
1803.594 0.8293 0.7494 0.7772 0.8425 0.8303 0.7696 0.7576 0.7418 0.7048 0.7142
1822.884 0.7567 0.7367 0.6962 0.6737 0.7385 0.8051 0.8166 0.7882 0.7598 0.7276
1842.174 0.7678 0.8247 0.8329 0.881 0.9363 0.9934 0.9778 0.964 1.0767 1.1401
1861.464 1.1611 1.2154 1.2627 1.3494 1.4402 1.487 1.577 1.677 1.687 1.707
1880.754 1.757 1.797 1.847 1.967 2.067 2.097 2.117 2.167 2.237 2.227
1900.043 2.207 2.237 2.197 2.147 2.177 2.197 2.127 2.087 1.987 1.807
1919.333 1.587 1.4369 1.3571 1.2765 1.1977 1.0905 0.9241 0.8813 0.9018 0.8537
1938.623 0.7883 0.6895 0.6377 0.6792 0.6958 0.6705 0.6281 0.615 0.5914 0.54486
1957.913 0.54866 0.54288 0.51426 0.51983 0.53193 0.56109 0.57683 0.54763 0.55633 0.56155
1977.202 0.5831 0.6027 0.6049 0.6423 0.7013 0.6383 0.6016 0.6295 0.5996 0.55221
1996.492 0.52471 0.54944 0.5021 0.50971 0.6175 0.6529 0.5921 0.55522 0.56459 0.55983
2015.782 0.56466 0.6073 0.6222 0.6574 0.7269 0.7204 0.7121 0.6686 0.6551 0.6549
2035.072 0.6444 0.6363 0.6299 0.6547 0.6069 0.55472 0.56901 0.5861 0.5804 0.6162
2054.362 0.631 0.57656 0.4877 0.4662 0.55443 0.5982 0.53019 0.5449 0.6323 0.676
2073.651 0.6419 0.6028 0.6201 0.6263 0.55746 0.54619 0.5778 0.55462 0.603 0.6541
2092.941 0.668 0.6766 0.6273 0.55388 0.56337 0.6015 0.5795 0.6236 0.677 0.6674
2112.231 0.7285 0.7395 0.6756 0.6472 0.6083 0.5805 0.5901 0.6254 0.57297 0.49544
2131.521 0.6155 0.6924 0.5864 0.52009 0.5831 0.6185 0.6154 0.6315 0.56725 0.52224
2150.810 0.53371 0.54081 0.6293 0.6365 0.5847 0.5904 0.597 0.5978 0.6121 0.6124
2170.100 0.6487 0.7096 0.6501 0.6033 0.6481 0.657 0.6235 0.6389 0.6356 0.6353
2189.390 0.6692 0.6658 0.6474 0.6371 0.6631 0.6919 0.6575 0.601 0.57199 0.55447
2208.680 0.587 0.6131 0.6058 0.6303 0.6726 0.6943 0.7219 0.8152 0.864 0.8348
2227.970 0.7945 0.7775 0.8579 0.9757 1.1225 1.2636 1.358 1.426 1.517 1.647
2247.259 1.767 1.967 2.077 2.127 2.227 2.187 2.127 2.077 1.937 1.807
2266.549 1.597 1.3476 1.2271 1.1596 1.0861 1.0507 1.0619 1.004 0.9532 0.9437
2285.839 0.8245 0.7694 0.8685 0.871 0.7811 0.832 0.8509 0.8776 0.9456 0.8967
2305.129 0.9111 0.9 0.9269 1.0081 1.0234 1.0419 1.0242 0.9245 0.9444 0.9938
2324.418 1.005 1.0312 0.9964 1.0231 1.0418 1.0653 1.0617 1.002 1.0617 1.0848
2343.708 1.0596 1.0136 0.928 0.9314 0.9784 1.0124 1.0121 0.9631 0.9208 0.8763
2362.998 0.8085 0.8159 0.9036 0.8912 0.8458 0.8659 0.8706 0.8586 0.8218 0.7618
2382.288 0.6937 0.7489 0.738 0.6559 0.7323 0.7625 0.782 0.7665 0.7158 0.7303
2401.578 0.7714 0.7373 0.6999 0.713 0.7491 0.7678 0.6808 0.6704 0.6964 0.6498
2420.867 0.6922 0.7712 0.7163 0.6881 0.7222 0.7534 0.7647 0.7597 0.7586 0.6821
2440.157 0.6375 0.6816 0.7267 0.7292 0.7439 0.7197 0.6991 0.6536 0.6158 0.6283
2459.447 0.6276 0.645 0.6001 0.54488 0.53851 0.57589 0.6237 0.6514 0.5979 0.55896
2478.737 0.6325 0.6568 0.6485 0.6774 0.6484 0.6112 0.5841 0.56828 0.6066 0.6609
2498.026 0.6589 0.6921 0.7702 0.7184 0.6694 0.6888 0.7406 0.6981 0.7108 0.7053
2517.316 0.692 0.7922 0.7071 0.7118 0.8482 0.8213 0.7015 0.7716 0.8529 0.7885
2536.606 0.7909 0.8311 0.7594 0.6922 0.6842 0.7302 0.7572 0.7703 0.8808 0.8702
2555.896 0.8123 0.8192 0.7801 0.7125 0.8217 0.9646 0.9214 0.8429 0.915 1.0113
2575.186 0.9972 0.9605 0.8563 0.865 0.9125 1.0113 1.0699 1.0563 1.0427 0.9911
2594.475 1.0203 1.1002 1.1128 0.9971 1.0791 1.0932 1.005 1.026 1.0955 1.1445
2613.765 1.1187 1.2173 1.2228 1.1957 1.1317 1.0057 1.0428 1.0308 1.0575 1.1981
2633.055 1.2243 1.1583 1.0806 1.0426 1.0606 1.0233 0.9989 1.0005 0.978 0.9388
2652.345 0.8626 0.8045 0.792 0.7953 0.783 0.8241 0.8464 0.8479 0.8028 0.8443
2671.634 0.8692 0.8759 0.8482 0.7974 0.8616 0.8675 0.8477 0.7602 0.7246 0.7535
2690.924 0.7964 0.8916 0.847 0.7651 0.8857 0.9359 0.9938 0.9904 0.9007 0.9535
2710.214 0.9239 0.9533 0.9242 0.985 1.095 1.0015 0.9884 1.1014 1.1365 1.1816
2729.504 1.2914 1.2987 1.4136 1.4241 1.3704 1.3821 1.4329 1.382 1.2933 1.4238
2748.794 1.4079 1.3103 1.2701 1.2429 1.3272 1.4424 1.497 1.4321 1.3478 1.3861
2768.083 1.4202 1.477 1.4744 1.517 1.667 1.677 1.657 1.607 1.527 1.497
2787.373 1.547 1.617 1.607 1.627 1.647 1.677 1.707 1.727 1.757 1.817
2806.663 1.907 1.967 2.107 2.267 2.327 2.237 2.237 2.407 2.567 2.757
2825.953 2.997 3.157 3.267 3.477 3.747 3.977 4.097 4.257 4.467 4.597
2845.242 4.767 4.967 5.197 5.447 5.687 6.047 6.487 7.007 7.597 8.317
2864.532 9.097 9.897 10.677 11.347 12.007 12.547 13.087 13.827 14.477 15.017
2883.822 15.517 15.767 15.887 15.957 15.887 15.717 15.437 15.127 14.947 14.827
2903.112 14.967 15.277 15.437 15.617 15.807 15.937 16.327 16.867 17.457 18.037
2922.401 18.837 19.817 20.767 22.017 23.267 24.297 25.447 26.687 27.867 28.797
2941.691 29.397 29.667 29.417 28.887 28.347 27.497 26.637 25.897 25.287 25.247
2960.981 25.907 27.577 30.567 34.837 40.017 44.797 47.577 48.117 47.707 46.867
2980.271 44.877 40.617 34.447 28.507 24.117 21.177 19.257 17.727 16.537 15.797
2999.561 15.097 14.507 14.127 13.947 13.807 13.577 13.627 13.847 14.267 14.827
3018.850 15.667 16.857 17.897 18.807 19.617 20.077 20.047 19.727 18.987 18.047
3038.140 16.937 15.297 13.817 12.787 12.207 11.937 11.657 11.517 11.367 11.197
3057.430 11.047 10.887 10.617 10.197 9.937 9.527 8.927 8.397 7.827 7.307
3076.720 6.977 6.517 6.157 6.087 5.937 5.687 5.397 5.327 5.187 4.947
3096.009 4.887 4.627 4.327 4.177 3.997 3.887 3.817 3.667 3.387 3.227
3115.299 3.147 3.067 2.857 2.677 2.617 2.457 2.337 2.307 2.337 2.387
3134.589 2.277 2.137 2.167 2.117 2.047 2.027 1.907 1.907 1.757 1.677
3153.879 1.707 1.4759 1.4698 1.4737 1.3444 1.3763 1.4165 1.4042 1.4479 1.487
3173.169 1.44 1.597 1.567 1.4157 1.497 1.3212 1.2625 1.4131 1.487 1.4763
3192.458 1.4043 1.4306 1.4253 1.358 1.3454 1.2025 0.9933 0.9178 0.8957 0.9921
3211.748 1.0825 1.0335 0.8635 0.7928 0.8099 0.6373 0.54517 0.6446 0.7884 0.7638
3231.038 0.7693 0.7225 0.54259 0.6257 0.56346 0.4322 0.4445 0.6031 0.6012 0.3929
3250.328 0.4103 0.53544 0.53448 0.49453 0.4461 0.4357 0.483001 0.453 0.4542 0.50452
3269.617 0.52261 0.53744 0.6435 0.5823 0.4465 0.480267 0.46869 0.53491 0.49725 0.4451
3288.907 0.4525 0.327 0.56033 0.7489 0.6735 0.5783 0.4181 0.506 0.57516 0.6
3308.197 0.6948 0.6246 0.53347 0.5851 0.4204 0.3976 0.5807 0.50436 0.52361 0.3935
3327.487 0.254 0.3943 0.324 0.35 0.4541 0.321 0.284 0.288 0.252 0.364
3346.777 0.49811 0.3 0.228 0.4293 0.47568 0.4202 0.46977 0.402 0.34 0.3843
3366.066 0.349 0.231 0.192 0.3771 0.4722 0.47135 0.606 0.6673 0.353 0.26
3385.356 0.358 0.224 0.149 0.246 0.335 0.4342 0.57032 0.56689 0.427 0.343
3404.646 0.346 0.307 0.291 0.266 0.258 0.343 0.4519 0.4497 0.3812 0.3891
3423.936 0.355 0.3908 0.484589 0.4621 0.315 0.335 0.498 0.4357 0.337 0.238
3443.225 0.254 0.269 0.313 0.4162 0.285 0.27 0.332 0.4134 0.4365 0.331
3462.515 0.319 0.306 0.298 0.224 0.307 0.292 0.173 0.255 0.296 0.355
3481.805 0.3895 0.321 0.21 0.132 0.186 0.312 0.283 0.284 0.31 0.241
3501.095 0.263 0.278 0.423 0.50248 0.54331 0.5819 0.4338 0.286 0.254 0.264
3520.385 0.214 0.204 0.159 0.142 0.343 0.301 0.221 0.296 0.312 0.234
3539.674 0.09 0.235 0.4431 0.4223 0.224 0.131 0.376 0.6067 0.54185 0.329
3558.964 0.207 0.268 0.3792 0.3875 0.336 0.486791 0.57079 0.4512 0.35 0.36
3578.254 0.3986 0.341 0.371 0.33 0.192 0.06 0 0.174 0.231 0.248
3597.544 0.216 0.176 0.233 0.347 0.4274 0.309 0.211 0.114 0.173 0.4422
3616.833 0.339 0.059 0.08 0.126 0.151 0.198 0.173 0.251 0.202 0.188
3636.123 0.338 0.236 0.072 0.289 0.54308 0.257 0.28 0.57059 0.47317 0.4383
3655.413 0.4303 0.281 0.365 0.6376 0.56642 0.57032 0.6841 0.51885 0.4227 0.47821
3674.703 0.61 0.5831 0.3798 0.4316 0.5905 0.6177 0.6476 0.6577 0.6332 0.48756
3693.993 0.4128 0.54175 0.6345 0.484929 0.244 0.32 0.50433 0.485733 0.481274 0.3877
3713.282 0.362 0.51594 0.6141 0.57175 0.4407 0.4651 0.377 0.3831 0.484605 0.483093
3732.572 0.50474 0.53129 0.317 0.303 0.5992 0.47423 0.352 0.3999 0.3789 0.4392
3751.862 0.57088 0.5942 0.608 0.6574 0.56139 0.434 0.4324 0.54415 0.5084 0.252
3771.152 0.192 0.372 0.4553 0.3879 0.315 0.279 0.4083 0.4164 0.294 0.203
3790.441 0.131 0.251 0.351 0.4314 0.308 0.328 0.56805 0.56604 0.53467 0.57367
3809.731 0.4046 0.294 0.4234 0.365 0.342 0.47151 0.52629 0.4538 0.47437 0.6007
3829.021 0.478284 0.31 0.3899 0.4431 0.5859 0.6539 0.53125 0.4181 0.483793 0.5748
3848.311 0.52761 0.50384 0.374 0.366 0.38 0.309 0.292 0.341 0.4382 0.50309
3867.601 0.6261 0.6217 0.4542 0.4339 0.49683 0.5636 0.6569 0.7091 0.5859 0.6115
3886.890 0.5793 0.4183 0.478018 0.49764 0.4652 0.4233 0.50323 0.4338 0.348 0.3947
3906.180 0.4411 0.52591 0.54676 0.6521 0.48836 0.341 0.386 0.284 0.355 0.4499
3925.470 0.349 0.296 0.353 0.4702 0.5793 0.56849 0.54923 0.6383 0.7308 0.6092
3944.760 0.5993 0.702 0.6523 0.7273 0.7429 0.7212 0.6166 0.283 0.245 0.184
3964.049 0.177 0.299 0.344 0.47095 0.52312 0.669 0.7019 0.50461 0.3978 0.56079
3983.339 0.6207 0.5447 0.55726 0.5922 0.5492 0.50778 0.5821 0.605 0.57029 0.6065
##END=
