##TITLE=2-Bromo-4,5-dimethoxyphenylacetonitrile
##JCAMP-DX=4.24
##DATA TYPE=INFRARED SPECTRUM
##ORIGIN=EPA-IR VAPOR PHASE LIBRARY
##OWNER=SRD/NIST
Collection (C) 2018 copyright by the U.S. Secretary of Commerce
on behalf of the United States of America. All rights reserved.
##CAS REGISTRY NO=51655-39-1
##MOLFORM=C 10 H 10 Br N O 2
##$NIST SOURCE=MSDC-IR
##STATE=gas
##XUNITS=1/CM
##YUNITS=ABSORBANCE
##XFACTOR=1.
##YFACTOR=0.001
##DELTAX=1.92898
##FIRSTX=549.8
##LASTX=4000.7
##FIRSTY=1.745
##MAXX=4000.7
##MINX=549.759
##MAXY=0.116415
##MINY=0
##NPOINTS=1790
##XYDATA=(X++(Y..Y))
549.759 1.745 1.715 1.935 1.925 1.985 1.985 1.835 1.985 2.095 2.225
569.049 2.265 2.075 2.185 2.685 2.885 3.245 3.715 3.705 3.775 4.105
588.339 4.285 4.095 3.905 3.705 3.505 3.435 3.245 2.965 2.905 3.005
607.628 2.945 3.085 3.245 3.315 3.295 3.155 3.185 3.445 3.455 3.175
626.918 3.235 3.305 3.185 3.225 3.125 3.075 3.185 3.085 3.005 2.755
646.208 2.515 2.505 2.455 2.425 2.535 2.555 2.415 2.485 2.645 2.615
665.498 2.435 2.295 2.225 2.105 1.925 1.865 1.825 1.815 1.635 1.495
684.787 1.3979 1.4205 1.433 1.3745 1.3612 1.3371 1.437 1.3552 1.2484 1.2628
704.077 1.3254 1.3814 1.315 1.2928 1.3739 1.4234 1.505 1.4002 1.4379 1.605
723.367 1.605 1.725 1.865 1.945 2.115 2.225 2.225 2.245 2.205 2.405
742.657 2.365 2.035 2.035 2.135 2.075 2.025 2.015 1.915 2.015 2.315
761.947 2.375 2.295 2.405 2.725 3.185 3.675 4.075 4.685 5.455 6.255
781.236 7.525 9.045 10.635 12.295 13.835 15.305 16.265 16.385 16.155 15.475
800.526 14.305 12.795 11.335 10.135 8.885 7.605 6.715 6.185 5.395 4.845
819.816 4.695 4.575 4.525 4.445 4.425 4.455 4.695 5.045 5.355 5.585
839.106 5.845 6.295 6.935 7.285 7.555 8.035 8.195 8.275 8.115 7.775
858.395 7.695 7.735 7.705 7.805 8.195 8.835 9.435 9.745 9.845 9.885
877.685 9.815 9.415 8.385 7.295 6.555 5.895 5.205 4.675 4.365 4.125
896.975 3.955 3.925 4.015 4.145 4.185 4.305 4.345 4.225 4.325 4.415
916.265 4.475 4.775 5.195 5.565 6.075 6.535 6.925 7.475 7.925 8.195
935.555 8.655 8.865 8.755 8.655 8.665 8.685 8.615 8.655 8.885 9.315
954.844 9.765 9.945 10.085 10.035 9.785 9.485 8.815 8.315 7.955 7.505
974.134 7.105 6.575 6.335 6.505 6.465 6.365 6.525 6.915 7.295 7.845
993.424 8.635 9.395 10.065 10.855 12.125 13.595 15.235 17.305 19.865 22.785
1012.714 25.835 29.025 32.365 35.365 37.325 38.605 39.415 39.265 38.705 37.895
1032.003 36.655 35.485 34.395 32.895 30.795 28.555 25.955 23.125 20.055 17.035
1051.293 14.475 12.195 10.475 8.915 7.765 7.225 6.755 6.295 5.795 5.275
1070.583 5.125 4.825 4.265 4.085 3.905 3.595 3.515 3.375 3.445 3.765
1089.873 3.495 2.935 3.295 3.635 3.385 3.155 2.805 3.025 3.445 3.325
1109.163 3.265 3.405 3.475 3.635 3.925 4.235 4.515 4.885 5.175 5.485
1128.452 6.005 6.785 7.905 9.045 10.235 12.045 14.475 16.985 19.875 23.105
1147.742 26.955 31.705 35.885 39.505 42.475 44.075 44.695 44.435 43.295 41.055
1167.032 38.385 35.795 32.975 30.635 29.165 28.055 27.005 26.455 26.285 26.085
1186.322 26.155 26.365 26.625 27.075 28.415 30.345 32.375 34.785 37.865 41.405
1205.611 45.045 48.625 51.385 53.705 55.245 55.545 54.755 53.145 51.115 48.665
1224.901 45.445 41.915 38.955 36.135 33.395 31.415 30.115 29.055 28.565 28.575
1244.191 28.975 30.115 31.905 34.085 36.785 39.505 42.095 44.385 46.325 47.885
1263.481 48.875 49.865 50.395 50.805 51.955 53.165 54.405 55.905 57.405 58.855
1282.771 59.715 59.735 59.025 57.215 54.165 50.345 45.845 41.075 36.525 32.615
1302.060 29.665 27.615 26.295 25.835 25.975 26.355 26.985 27.575 27.965 28.035
1321.350 27.585 26.795 25.685 24.225 22.565 20.895 19.285 17.835 16.535 15.355
1340.640 14.385 13.505 12.645 11.895 11.205 10.695 10.335 10.125 10.285 10.765
1359.930 11.575 12.835 14.745 17.305 20.445 24.195 28.265 32.125 35.275 37.075
1379.219 37.155 35.555 32.445 28.295 23.665 19.365 16.005 13.515 11.765 10.585
1398.509 9.885 9.495 9.395 9.495 9.675 10.095 10.705 11.605 12.945 14.875
1417.799 17.385 20.115 22.365 23.895 24.825 25.265 25.305 25.295 26.125 28.015
1437.089 30.525 32.845 34.445 35.195 34.925 33.725 31.965 30.085 28.585 27.625
1456.378 27.135 27.175 27.815 29.045 30.555 31.875 32.795 33.445 33.805 34.105
1475.668 34.785 36.055 38.345 42.285 47.775 54.715 63.325 73.235 83.885 94.335
1494.958 103.475 110.755 115.315 116.415 113.925 108.205 99.615 89.675 79.315 68.605
1514.248 58.405 49.095 40.875 34.075 28.325 23.905 20.545 17.995 16.005 14.545
1533.538 13.465 12.555 11.845 11.375 11.095 10.965 10.935 10.965 11.185 11.535
1552.827 11.965 12.415 12.855 13.245 13.535 13.695 13.605 13.235 12.545 11.755
1572.117 10.985 10.115 9.245 8.615 8.215 7.985 8.035 8.275 8.725 9.285
1591.407 9.955 10.775 11.525 12.175 12.695 12.975 12.975 12.555 11.725 10.655
1610.697 9.515 8.305 7.235 6.325 5.435 4.785 4.385 4.035 3.675 3.455
1629.986 3.325 3.125 2.895 2.795 2.765 2.665 2.605 2.535 2.465 2.435
1649.276 2.405 2.285 2.245 2.375 2.405 2.355 2.285 2.235 2.285 2.285
1668.566 2.305 2.375 2.385 2.315 2.275 2.305 2.305 2.255 2.105 2.035
1687.856 1.995 1.915 1.895 1.745 1.535 1.545 1.525 1.475 1.495 1.475
1707.146 1.495 1.515 1.535 1.4644 1.4327 1.495 1.515 1.439 1.3502 1.4176
1726.435 1.545 1.505 1.4525 1.461 1.495 1.585 1.565 1.625 1.715 1.765
1745.725 1.705 1.655 1.715 1.715 1.715 1.705 1.755 1.715 1.605 1.555
1765.015 1.605 1.625 1.575 1.525 1.465 1.495 1.429 1.3605 1.3904 1.4359
1784.305 1.465 1.4328 1.3919 1.3504 1.3134 1.3565 1.3374 1.2891 1.2729 1.2355
1803.594 1.2341 1.2919 1.3313 1.3689 1.3801 1.3481 1.3074 1.2567 1.2849 1.3063
1822.884 1.2859 1.2827 1.2954 1.3117 1.262 1.2142 1.2462 1.2749 1.2608 1.1839
1842.174 1.1518 1.1956 1.2468 1.2342 1.1775 1.1728 1.1441 1.1015 1.1025 1.0897
1861.464 1.0674 1.0288 0.9493 0.9971 1.0484 0.9786 0.9829 1.0253 1.0534 1.0791
1880.754 1.1215 1.0776 1.0469 1.0912 1.0784 1.0393 1.0317 1.0284 1.023 1.0778
1900.043 1.1112 1.0617 1.0316 0.9989 0.9739 1.0287 1.0402 0.99 0.9537 0.9582
1919.333 0.9634 0.9613 1.0073 1.0736 1.075 1.0752 1.0865 1.1287 1.1733 1.167
1938.623 1.1669 1.2179 1.3009 1.3721 1.3915 1.3809 1.4116 1.4345 1.4465 1.475
1957.913 1.515 1.535 1.525 1.515 1.545 1.605 1.665 1.645 1.645 1.645
1977.202 1.715 1.765 1.695 1.725 1.785 1.845 1.905 1.905 1.895 1.935
1996.492 1.975 1.985 1.965 1.985 1.965 1.895 1.905 1.945 1.965 1.955
2015.782 1.955 1.935 1.865 1.835 1.835 1.775 1.715 1.745 1.785 1.835
2035.072 1.775 1.765 1.795 1.805 1.805 1.845 1.935 1.945 1.935 1.925
2054.362 1.955 1.995 2.035 2.085 2.165 2.185 2.205 2.235 2.215 2.205
2073.651 2.165 2.125 2.105 2.005 1.885 1.845 1.815 1.745 1.685 1.615
2092.941 1.505 1.4243 1.4047 1.3721 1.3066 1.2226 1.174 1.1563 1.1551 1.1215
2112.231 1.1043 1.0543 1.0315 1.0826 1.0153 0.9796 0.9992 1.0055 0.9548 0.8664
2131.521 0.9046 0.9338 0.9143 0.9225 0.9147 0.8941 0.8885 0.9164 0.9085 0.9111
2150.810 0.9315 0.8799 0.8688 0.8975 0.8846 0.8853 0.8978 0.9148 0.918 0.9268
2170.100 0.9497 1.0119 1.0551 0.9886 0.9731 0.9753 1.0029 0.9993 0.9125 0.8807
2189.390 0.8911 0.8964 0.8953 0.8864 0.8752 0.9175 0.9423 0.8977 0.8353 0.8643
2208.680 0.9483 0.9963 0.9749 0.9596 0.9832 0.9965 0.9477 0.8859 0.9457 1.0277
2227.970 1.0199 1.0127 1.0472 1.1258 1.1401 1.1541 1.2549 1.3811 1.495 1.525
2247.259 1.575 1.635 1.665 1.665 1.665 1.695 1.625 1.4435 1.3417 1.3437
2266.549 1.3497 1.2773 1.2272 1.2023 1.1702 1.189 1.1569 1.1027 1.206 1.2974
2285.839 1.2439 1.191 1.1554 1.1632 1.2654 1.2816 1.2491 1.2144 1.1923 1.2378
2305.129 1.2001 1.14 1.1248 1.0856 1.0747 1.0599 1.0265 0.9938 0.9521 0.9079
2324.418 0.9308 0.9453 0.8711 0.8268 0.8476 0.8896 0.8413 0.8048 0.7856 0.7724
2343.708 0.8095 0.8253 0.809 0.7827 0.8066 0.7668 0.7236 0.6695 0.658 0.6939
2362.998 0.7091 0.8107 0.8575 0.8058 0.8 0.7722 0.7552 0.811 0.808 0.8806
2382.288 0.8806 0.7736 0.8197 0.8842 0.9071 0.8907 0.8295 0.842 0.8868 0.8783
2401.578 0.7838 0.7809 0.9211 0.8453 0.7647 0.8411 0.862 0.8466 0.8245 0.8224
2420.867 0.786 0.7839 0.8442 0.8842 0.8586 0.8575 0.902 0.8628 0.8596 0.8748
2440.157 0.8827 0.8991 0.851 0.8419 0.8545 0.8435 0.8451 0.8658 0.8847 0.9213
2459.447 0.9562 0.9097 0.8814 0.879 0.8843 0.8951 0.8767 0.8732 0.9241 0.938
2478.737 0.9041 0.9352 0.9353 0.9305 1.0078 1.031 0.9605 0.9415 0.9339 0.9451
2498.026 0.9883 1.0264 1.0083 0.9816 1.0271 1.0126 1.0076 1.1093 1.113 1.0148
2517.316 1.0364 1.083 1.112 1.2074 1.2933 1.2939 1.2384 1.2115 1.2701 1.2688
2536.606 1.2172 1.3243 1.3919 1.3779 1.4142 1.4486 1.505 1.495 1.545 1.625
2555.896 1.655 1.645 1.655 1.715 1.755 1.805 1.785 1.815 1.805 1.775
2575.186 1.855 1.815 1.795 1.835 1.785 1.815 1.895 1.835 1.855 1.845
2594.475 1.695 1.725 1.815 1.815 1.715 1.655 1.595 1.495 1.4563 1.4293
2613.765 1.3595 1.2134 1.1975 1.1562 1.0489 1.0247 0.9666 0.993 1.059 1.0092
2633.055 1.0264 1.009 0.969 0.9458 0.8807 0.8941 0.9485 1.0192 0.9839 0.8816
2652.345 0.8491 0.9346 0.9371 0.8956 0.8751 0.862 0.8334 0.781 0.8215 0.8275
2671.634 0.7527 0.6976 0.7676 0.7767 0.7833 0.8367 0.7657 0.8316 1.0038 0.9722
2690.924 0.9243 0.94 0.8806 0.7924 0.8251 0.8632 0.838 0.8015 0.7893 0.8688
2710.214 0.8975 0.8952 0.9345 0.9448 0.9753 1.0199 1.0199 0.9761 0.9877 0.9757
2729.504 0.913 0.9613 1.0626 1.0097 0.9633 1.0732 1.102 1.1137 1.1406 1.1714
2748.794 1.1434 1.13 1.1598 1.1478 1.2047 1.2865 1.2866 1.276 1.2592 1.2883
2768.083 1.3506 1.3813 1.3691 1.3122 1.3026 1.3015 1.4239 1.515 1.615 1.695
2787.373 1.685 1.815 1.885 1.925 1.975 2.015 2.205 2.455 2.575 2.755
2806.663 2.935 3.135 3.345 3.555 3.875 4.085 4.385 4.725 5.005 5.365
2825.953 5.785 6.205 6.645 7.155 7.815 8.695 9.615 10.775 12.175 13.715
2845.242 15.225 16.455 17.145 17.325 17.155 16.465 15.235 13.785 12.395 11.065
2864.532 9.735 8.755 8.135 7.625 7.305 7.095 6.915 6.885 6.815 6.755
2883.822 6.845 6.975 7.215 7.525 7.785 7.965 8.165 8.455 8.905 9.325
2903.112 9.755 10.275 10.855 11.365 11.895 12.535 13.115 13.695 14.165 14.545
2922.401 14.855 15.185 15.665 16.285 16.845 17.795 19.275 20.975 22.985 25.055
2941.691 26.965 28.385 29.355 29.795 29.445 28.415 27.015 25.615 24.275 23.135
2960.981 22.235 21.555 20.815 19.945 19.125 18.215 17.095 16.025 15.085 14.265
2980.271 13.555 12.925 12.475 12.065 11.755 11.725 11.855 12.095 12.505 13.205
2999.561 14.145 15.195 16.315 17.665 19.155 20.155 20.525 20.225 19.215 17.665
3018.850 15.625 13.385 11.325 9.725 8.475 7.335 6.545 6.015 5.525 5.175
3038.140 4.965 4.805 4.565 4.365 4.265 4.085 3.905 3.795 3.595 3.435
3057.430 3.425 3.435 3.405 3.225 3.045 2.965 2.845 2.845 2.885 2.925
3076.720 3.015 3.045 2.915 2.805 2.675 2.665 2.605 2.405 2.325 2.245
3096.009 2.155 2.165 2.165 2.095 1.945 1.855 1.985 1.835 1.695 1.655
3115.299 1.525 1.575 1.535 1.3931 1.2769 1.2324 1.3287 1.3352 1.2744 1.3335
3134.589 1.2915 1.1876 1.1366 1.0857 1.0659 1.0826 1.1083 1.1773 1.2312 1.1792
3153.879 1.0725 1.0826 1.0307 0.9251 0.9886 0.9202 0.8567 0.9261 1.0561 1.1129
3173.169 0.9245 0.8169 0.9148 0.8481 0.8471 1.0085 0.9832 0.9922 0.953 0.843
3192.458 0.7839 0.727 0.7918 0.8278 0.8098 0.8461 0.8333 0.7518 0.6473 0.6921
3211.748 0.7759 0.6985 0.633 0.55091 0.51599 0.6822 0.6227 0.48318 0.6329 0.6343
3231.038 0.6062 0.5948 0.53932 0.576 0.596 0.53126 0.4141 0.415 0.45531 0.4505
3250.328 0.4089 0.3844 0.3848 0.359 0.4269 0.472636 0.354 0.364 0.345 0.287
3269.617 0.4172 0.3864 0.279 0.361 0.348 0.293 0.4035 0.5658 0.46084 0.287
3288.907 0.3861 0.46018 0.336 0.263 0.356 0.309 0.193 0.188 0.298 0.3925
3308.197 0.363 0.209 0.297 0.4214 0.3658 0.34 0.222 0.221 0.264 0.323
3327.487 0.296 0.262 0.3735 0.4026 0.4183 0.50375 0.4538 0.258 0.15 0.096
3346.777 0.027 0.021 0.181 0.353 0.364 0.35 0.365 0.261 0.236 0.227
3366.066 0.205 0.297 0.363 0.3967 0.346 0.304 0.303 0.348 0.194 0.148
3385.356 0.4149 0.49341 0.295 0.247 0.357 0.346 0.242 0.148 0.279 0.278
3404.646 0.232 0.397 0.46296 0.3696 0.298 0.224 0.104 0.185 0.292 0.265
3423.936 0.333 0.3815 0.399 0.329 0.355 0.3799 0.252 0.338 0.3818 0.331
3443.225 0.3986 0.266 0.107 0.206 0.289 0.226 0.125 0.218 0.257 0.256
3462.515 0.196 0.278 0.32 0.049 0 0.141 0.184 0.256 0.312 0.282
3481.805 0.3772 0.319 0.311 0.3655 0.269 0.34 0.3972 0.338 0.356 0.252
3501.095 0.145 0.143 0.132 0.274 0.4223 0.45912 0.345 0.216 0.272 0.338
3520.385 0.402 0.4285 0.4427 0.3722 0.245 0.165 0.228 0.317 0.314 0.3674
3539.674 0.33 0.3839 0.46037 0.465002 0.3995 0.3661 0.359 0.313 0.3684 0.409
3558.964 0.4314 0.364 0.321 0.248 0.241 0.359 0.4404 0.3693 0.195 0.204
3578.254 0.332 0.4149 0.3755 0.359 0.304 0.24 0.247 0.333 0.3937 0.323
3597.544 0.342 0.289 0.129 0.11 0.17 0.265 0.281 0.306 0.359 0.332
3616.833 0.224 0.284 0.347 0.376 0.4007 0.313 0.241 0.253 0.253 0.221
3636.123 0.261 0.257 0.197 0.099 0.165 0.113 0.147 0.337 0.289 0.294
3655.413 0.286 0.304 0.265 0.186 0.267 0.25 0.297 0.327 0.238 0.16
3674.703 0.225 0.306 0.3787 0.48692 0.329 0.26 0.225 0.145 0.134 0.101
3693.993 0.09 0.181 0.268 0.265 0.267 0.28 0.3669 0.31 0.225 0.202
3713.282 0.155 0.21 0.196 0.283 0.466527 0.3855 0.3941 0.336 0.172 0.265
3732.572 0.225 0.188 0.247 0.244 0.204 0.193 0.231 0.251 0.286 0.309
3751.862 0.36 0.313 0.296 0.3788 0.3829 0.326 0.314 0.359 0.314 0.281
3771.152 0.32 0.4079 0.4379 0.277 0.22 0.3688 0.342 0.245 0.279 0.297
3790.441 0.3967 0.5822 0.5766 0.36 0.331 0.4311 0.4316 0.325 0.108 0.215
3809.731 0.4265 0.45558 0.3886 0.295 0.339 0.361 0.276 0.342 0.473032 0.48356
3829.021 0.48581 0.4481 0.333 0.141 0.163 0.194 0.308 0.3776 0.323 0.307
3848.311 0.295 0.354 0.342 0.4483 0.6027 0.55497 0.3796 0.3773 0.52221 0.54883
3867.601 0.471856 0.465046 0.4283 0.257 0.265 0.303 0.316 0.431 0.4848 0.4496
3886.890 0.336 0.259 0.221 0.178 0.3671 0.47704 0.304 0.285 0.225 0.222
3906.180 0.3907 0.337 0.281 0.304 0.3 0.35 0.347 0.49628 0.5966 0.4245
3925.470 0.364 0.341 0.347 0.354 0.302 0.333 0.4131 0.304 0.3 0.319
3944.760 0.231 0.317 0.4572 0.49214 0.3877 0.4087 0.4383 0.4486 0.596 0.6266
3964.049 0.4493 0.4042 0.47033 0.4401 0.45945 0.51122 0.48554 0.54439 0.615 0.48776
3983.339 0.423 0.45567 0.377 0.319 0.352 0.468265 0.46447 0.45634 0.53146 0.4345
##END=
