##TITLE=2,4-Dimethyl-3-ethylpyrrole
##JCAMP-DX=4.24
##DATA TYPE=INFRARED SPECTRUM
##ORIGIN=NIST Mass Spectrometry Data Center
##OWNER=NIST Standard Reference Data Program
Collection (C) 2018 copyright by the U.S. Secretary of Commerce
on behalf of the United States of America. All rights reserved.
##CAS REGISTRY NO=517-22-6
##MOLFORM=C 8 H 13 N
##$NIST SOURCE=MSDC-IR
##SPECTROMETER/DATA SYSTEM=HP-GC/MS/IRD
##STATE=gas
##XUNITS=1/CM
##YUNITS=ABSORBANCE
##XFACTOR=1.0
##YFACTOR=0.000001400
##DELTAX=4.0
##FIRSTX=550.0
##LASTX=3846.0
##FIRSTY=0.000309
##MAXX=3846
##MINX=550
##MAXY=0.014
##MINY=0
##NPOINTS=825
##XYDATA=(X++(Y..Y))
550.0 221 219 98 178 171 99 41 19 53 10
590.0 62 127 46 26 23 28 47 31 0 14
630.0 60 80 82 74 105 194 252 308 289 207
670.0 223 236 229 271 317 379 472 621 893 1236
710.0 1612 1963 2607 3168 2734 2147 1778 1366 914 563
750.0 364 213 156 154 128 139 133 96 70 84
790.0 116 107 114 125 114 116 155 217 229 204
830.0 220 297 336 379 440 578 832 1183 1690 2336
870.0 3045 3704 4163 4323 4190 3736 3079 2358 1693 1196
910.0 863 658 532 438 388 378 395 425 471 561
950.0 676 754 799 774 709 664 607 565 526 483
990.0 427 368 338 313 326 318 302 324 330 327
1030.0 333 344 350 380 478 589 657 713 757 776
1070.0 833 957 1093 1218 1313 1339 1302 1166 932 711
1110.0 512 374 279 220 185 120 136 182 154 143
1150.0 118 86 104 144 143 164 236 253 242 271
1190.0 288 270 240 224 252 282 323 446 631 784
1230.0 870 886 857 763 616 439 348 345 342 356
1270.0 396 465 616 910 1320 1700 1917 1972 1894 1688
1310.0 1283 853 610 524 479 439 433 430 409 398
1350.0 401 433 490 564 641 732 876 933 889 859
1390.0 815 736 647 583 589 637 717 849 1023 1235
1430.0 1513 1884 2334 2837 3333 3635 3688 3550 3226 2752
1470.0 2180 1613 1181 888 711 616 574 576 600 645
1510.0 704 726 728 731 714 666 593 498 417 360
1550.0 335 304 281 285 273 270 288 318 391 463
1590.0 505 535 534 506 451 373 301 251 210 176
1630.0 164 160 157 162 158 127 122 142 157 154
1670.0 126 106 94 78 63 75 88 80 66 54
1710.0 65 88 95 86 83 80 75 76 71 71
1750.0 68 59 58 61 50 43 65 63 40 34
1790.0 39 35 31 31 40 34 37 51 49 42
1830.0 24 27 38 38 30 33 40 38 26 37
1870.0 49 41 43 51 52 45 39 47 59 65
1910.0 45 38 48 55 53 38 50 62 56 48
1950.0 41 42 31 20 20 27 41 36 23 27
1990.0 37 41 38 15 3 10 15 15 9 16
2030.0 37 56 61 55 43 42 42 28 40 47
2070.0 29 23 29 33 32 25 27 33 21 16
2110.0 22 26 33 21 14 17 19 12 2 12
2150.0 16 19 25 35 37 18 22 33 29 15
2190.0 7 15 18 17 17 12 4 11 17 15
2230.0 21 25 33 23 26 34 21 15 25 31
2270.0 18 12 17 15 13 15 11 12 13 17
2310.0 23 38 36 24 31 40 31 28 41 50
2350.0 43 54 72 63 57 70 66 64 75 68
2390.0 67 83 80 58 47 64 72 55 51 72
2430.0 87 76 75 90 95 102 115 114 112 108
2470.0 102 109 114 107 98 99 100 106 113 93
2510.0 91 109 102 85 92 105 105 107 122 125
2550.0 105 112 120 114 114 110 90 95 105 99
2590.0 106 97 93 89 75 81 79 72 90 110
2630.0 95 92 115 123 113 119 119 117 123 134
2670.0 144 149 136 121 128 137 140 147 151 157
2710.0 180 192 204 232 277 332 410 472 514 521
2750.0 517 509 452 403 410 399 386 422 452 450
2790.0 459 491 520 549 596 638 703 793 879 982
2830.0 1125 1291 1479 1734 2101 2549 3065 3723 4431 5065
2870.0 5602 5933 6077 5993 5726 5457 5271 5278 5477 5892
2910.0 6504 7227 8048 8837 9516 9953 10000 9589 8917 8208
2950.0 7646 7511 7779 8215 8511 8314 7653 6597 5243 4009
2990.0 3120 2549 2202 1968 1805 1700 1645 1606 1534 1460
3030.0 1393 1316 1257 1181 1103 1022 923 859 808 748
3070.0 706 677 643 632 634 615 576 545 524 522
3110.0 557 561 511 495 488 465 416 349 311 278
3150.0 242 202 178 172 172 166 144 137 112 66
3190.0 44 67 81 83 93 59 36 58 64 57
3230.0 71 81 74 80 68 44 15 17 37 43
3270.0 57 74 64 54 63 64 69 42 9 4
3310.0 2 5 28 34 24 24 9 35 67 49
3350.0 24 18 26 12 14 30 24 36 93 103
3390.0 58 34 26 30 30 15 33 57 61 95
3430.0 119 115 150 164 170 208 219 251 322 396
3470.0 520 630 757 1003 1249 1518 1964 2649 3363 3741
3510.0 3791 3583 3175 2531 1624 876 478 314 242 149
3550.0 87 61 77 92 91 80 71 64 53 51
3590.0 61 49 54 74 60 39 37 31 66 92
3630.0 62 42 46 52 46 34 4 54 80 38
3670.0 38 38 10 11 34 33 27 36 13 0
3710.0 8 4 2 7 48 61 49 31 23 8
3750.0 22 27 24 48 36 34 68 62 35 20
3790.0 46 76 60 31 21 39 52 33 21 30
3830.0 44 43 29 3 28
##END=
