##TITLE=3-Decyn-1-ol
##JCAMP-DX=4.24
##DATA TYPE=INFRARED SPECTRUM
##ORIGIN=NIST Mass Spectrometry Data Center
##OWNER=NIST Standard Reference Data Program
Collection (C) 2018 copyright by the U.S. Secretary of Commerce
on behalf of the United States of America. All rights reserved.
##CAS REGISTRY NO=51721-39-2
##MOLFORM=C 10 H 18 O
##$NIST SOURCE=MSDC-IR
##SPECTROMETER/DATA SYSTEM=HP-GC/MS/IRD
##STATE=gas
##XUNITS=1/CM
##YUNITS=ABSORBANCE
##XFACTOR=1.0
##YFACTOR=0.000006400
##DELTAX=4.0
##FIRSTX=550.0
##LASTX=3846.0
##FIRSTY=0.000006
##MAXX=3846
##MINX=550
##MAXY=0.064
##MINY=0
##NPOINTS=825
##XYDATA=(X++(Y..Y))
550.0 1 32 41 18 22 18 24 32 19 27
590.0 34 32 41 47 47 35 34 35 34 38
630.0 41 36 22 19 22 29 30 33 30 26
670.0 34 44 38 40 42 38 51 55 66 82
710.0 88 106 118 127 125 117 113 105 99 92
750.0 84 83 84 83 84 85 84 80 78 80
790.0 79 75 74 74 76 79 81 74 71 77
830.0 82 84 92 94 96 103 109 111 116 123
870.0 130 139 145 149 155 158 159 163 170 174
910.0 177 188 198 203 211 217 223 240 253 259
950.0 277 298 311 321 335 353 377 398 419 451
990.0 487 527 581 647 729 821 919 1026 1141 1269
1030.0 1389 1490 1575 1629 1637 1613 1554 1460 1346 1210
1070.0 1083 981 892 802 711 622 540 460 387 332
1110.0 289 257 242 229 223 223 214 208 210 205
1150.0 205 210 207 204 210 218 218 219 227 234
1190.0 238 249 262 270 275 281 287 292 297 308
1230.0 310 314 323 330 338 346 351 353 357 361
1270.0 366 373 382 392 409 428 453 493 549 632
1310.0 752 916 1096 1213 1203 1090 947 821 729 673
1350.0 640 616 590 561 545 540 541 543 546 544
1390.0 528 494 449 405 374 356 344 345 364 402
1430.0 478 587 702 781 803 812 824 830 805 736
1470.0 640 542 455 372 299 241 196 168 143 122
1510.0 107 94 83 75 69 64 57 51 48 48
1550.0 45 41 42 44 40 34 35 34 35 34
1590.0 31 27 25 25 26 26 23 23 23 24
1630.0 19 19 17 16 17 17 18 15 14 13
1670.0 14 13 13 12 10 12 11 7 7 8
1710.0 7 8 7 6 4 3 5 8 4 0
1750.0 0 2 3 2 4 8 8 6 4 2
1790.0 3 2 2 2 4 7 8 9 9 8
1830.0 7 7 6 8 10 13 17 14 13 16
1870.0 15 15 13 11 10 11 10 10 10 14
1910.0 12 11 13 12 11 11 10 9 8 7
1950.0 8 9 13 16 14 13 14 12 12 17
1990.0 15 12 14 16 19 21 26 27 26 27
2030.0 28 32 35 37 38 34 31 30 28 25
2070.0 25 26 24 20 20 20 18 20 18 19
2110.0 19 20 20 18 17 17 16 17 16 17
2150.0 18 19 20 17 15 13 15 19 21 23
2190.0 20 17 18 19 20 20 19 20 20 20
2230.0 20 18 19 20 22 21 20 17 17 20
2270.0 22 22 22 23 21 22 20 21 22 22
2310.0 21 21 22 24 25 23 24 25 22 24
2350.0 25 26 28 24 26 29 26 26 29 27
2390.0 29 30 30 30 29 29 34 34 32 30
2430.0 30 33 34 34 31 33 31 32 32 29
2470.0 29 30 29 30 33 36 35 36 40 43
2510.0 44 44 41 38 38 41 43 40 42 46
2550.0 47 46 46 44 47 52 54 54 57 61
2590.0 62 61 60 65 69 73 79 80 86 94
2630.0 97 101 104 104 103 103 105 108 112 118
2670.0 119 122 125 127 133 136 134 133 131 133
2710.0 137 139 142 147 155 162 168 173 183 193
2750.0 195 200 212 215 223 235 245 249 258 278
2790.0 295 310 332 356 383 413 451 500 560 631
2830.0 716 833 993 1221 1541 1968 2500 3076 3546 3760
2870.0 3681 3434 3180 2993 2892 2870 2928 3090 3385 3811
2910.0 4332 4928 5658 6591 7684 8784 9653 10000 9576 8395
2950.0 6815 5279 4071 3247 2735 2456 2374 2399 2314 2004
2990.0 1581 1239 1026 873 754 653 563 486 425 370
3030.0 321 284 253 225 203 193 179 166 155 143
3070.0 135 129 121 108 108 109 101 92 87 88
3110.0 90 94 95 90 87 88 85 80 74 75
3150.0 80 78 73 69 69 65 59 57 56 57
3190.0 56 49 48 46 41 38 34 34 34 36
3230.0 37 33 33 36 34 32 29 28 26 26
3270.0 24 19 17 19 27 29 27 28 31 28
3310.0 25 24 28 30 29 28 27 35 36 31
3350.0 32 34 33 32 30 27 28 28 24 29
3390.0 31 31 29 27 25 26 35 37 37 39
3430.0 33 34 38 44 45 41 42 42 41 40
3470.0 40 44 43 41 45 40 36 37 37 37
3510.0 34 30 25 22 26 29 27 29 27 24
3550.0 26 24 25 25 27 32 31 29 32 36
3590.0 41 43 46 53 57 57 61 70 74 83
3630.0 98 107 125 156 191 240 304 367 412 433
3670.0 429 396 340 271 206 160 133 114 95 81
3710.0 70 59 57 52 45 43 37 43 43 37
3750.0 44 43 40 38 37 39 41 48 49 43
3790.0 45 44 48 55 53 42 37 47 52 47
3830.0 47 47 49 50 50
##END=
