##TITLE=p-Decyloxybenzylidene p-butylaniline
##JCAMP-DX=4.24
##DATA TYPE=INFRARED SPECTRUM
##ORIGIN=EPA-IR VAPOR PHASE LIBRARY
##OWNER=SRD/NIST
Collection (C) 2018 copyright by the U.S. Secretary of Commerce
on behalf of the United States of America. All rights reserved.
##CAS REGISTRY NO=51749-29-2
##MOLFORM=C 27 H 39 N O
##$NIST SOURCE=MSDC-IR
##STATE=gas
##XUNITS=1/CM
##YUNITS=ABSORBANCE
##XFACTOR=1.
##YFACTOR=0.001
##DELTAX=1.92898
##FIRSTX=549.8
##LASTX=4000.7
##FIRSTY=0.4184
##MAXX=4000.7
##MINX=549.759
##MAXY=0.009279
##MINY=0
##NPOINTS=1790
##XYDATA=(X++(Y..Y))
549.759 0.4184 0.4489 0.5409 0.4578 0.3455 0.3248 0.6008 0.6736 0.6757 0.5617
569.049 0.4635 0.5039 0.5463 0.5612 0.5485 0.5014 0.140141 0.1015 0.1186 0.0988
588.339 0.3481 0.3571 0.2716 0.4217 0.5001 0.3957 0.3141 0.3136 0.2372 0.2769
607.628 0.5312 0.5618 0.5087 0.5098 0.3606 0.2656 0.3496 0.2655 0.14914 0.3023
626.918 0.3472 0.18755 0.18416 0.16512 0.19384 0.15181 0.14194 0.20552 0.188 0.2513
646.208 0.3021 0.3039 0.16059 0.21158 0.2756 0.2438 0.189 0.16627 0.2411 0.3762
665.498 0.3164 0.19403 0.2784 0.17842 0.19407 0.3762 0.4871 0.3193 0 0.0407
684.787 0.18817 0.3238 0.35 0.2645 0.18692 0.293 0.4264 0.3266 0.23454 0.2828
704.077 0.4087 0.3484 0.2265 0.2526 0.3151 0.5175 0.5637 0.4656 0.4917 0.4421
723.367 0.4254 0.4309 0.4675 0.4418 0.17009 0.17512 0.4272 0.4628 0.4876 0.3336
742.657 0.15192 0.2879 0.3884 0.3501 0.4613 0.5232 0.5078 0.468 0.4251 0.2887
761.947 0.1106 0.3089 0.557 0.5222 0.3608 0.23147 0.23628 0.3531 0.5721 0.5648
781.236 0.4304 0.4447 0.4543 0.5716 0.5843 0.4711 0.4419 0.4701 0.6296 0.6175
800.526 0.5732 0.7483 0.8213 0.7581 0.721 0.7889 0.8709 0.9824 1.1095 0.9904
819.816 1.1189 1.289 1.1056 0.8369 1.159 1.629 1.659 1.659 1.689 1.589
839.106 1.429 1.339 1.0802 1.0044 0.9937 1.0114 0.9486 0.7617 0.7254 0.7329
858.395 0.7523 0.6979 0.4787 0.3966 0.5444 0.7562 0.6853 0.6131 0.8278 0.9379
877.685 0.8574 0.8244 1.0154 1.249 1.419 1.259 1.0931 1.1192 1.0339 0.87
896.975 0.8212 0.8574 0.684 0.6037 0.6661 0.6275 0.539 0.4687 0.4487 0.4597
916.265 0.5114 0.581 0.6066 0.5688 0.4906 0.5026 0.5166 0.5058 0.5187 0.4746
935.555 0.539 0.5624 0.4894 0.5907 0.5825 0.4559 0.5524 0.7 0.6648 0.6581
954.844 0.7441 0.6862 0.6014 0.6564 0.7023 0.5794 0.4885 0.619 0.678 0.7945
974.134 0.973 0.8018 0.7178 0.7124 0.5936 0.5443 0.6885 0.7755 0.6315 0.6289
993.424 0.8333 0.8969 0.7861 0.7962 0.9793 1.0118 0.9126 0.9703 1.149 1.349
1012.714 1.449 1.459 1.429 1.409 1.429 1.259 1.0299 1.0285 1.239 1.359
1032.003 1.249 1.239 1.309 1.409 1.349 1.369 1.319 0.9086 0.9188 1.189
1051.293 1.159 1.0969 0.918 0.7193 0.9889 1.149 0.9901 0.8765 0.7837 0.8646
1070.583 0.9581 0.9922 0.8102 0.5878 0.7129 0.7309 0.8617 0.7932 0.504 0.731
1089.873 0.9995 0.806 0.7039 0.6662 0.6075 0.6404 0.8396 1.159 1.0698 0.6484
1109.163 0.8154 0.9206 0.9752 1.0365 0.4003 0.4091 0.6051 0.397 0.5093 0.7044
1128.452 0.9464 0.9759 0.6885 0.4632 0.506 0.5792 0.4704 0.4905 0.5293 0.6661
1147.742 1.0594 1.439 1.469 1.609 2.179 3.299 4.849 6.549 7.679 7.219
1167.032 5.599 4.079 2.889 1.919 1.339 1.269 1.139 0.8604 1.0857 1.249
1186.322 1.131 1.169 1.389 1.599 1.549 1.579 1.479 1.439 1.699 1.569
1205.611 1.699 1.969 2.009 2.109 2.199 2.559 2.599 2.439 2.839 3.169
1224.901 3.299 3.579 3.829 4.329 4.889 5.029 5.219 5.369 5.809 6.299
1244.191 6.369 6.389 6.079 5.529 5.189 4.769 4.189 3.519 2.779 2.449
1263.481 2.299 2.039 1.909 1.819 1.659 1.569 1.499 1.439 1.449 1.379
1282.771 1.429 1.589 1.689 1.759 1.819 1.829 1.889 2.019 2.169 2.339
1302.060 2.409 2.319 2.149 1.989 1.829 1.589 1.389 1.269 1.169 1.0469
1321.350 1.0055 0.9688 0.8911 0.8591 0.8553 0.8146 0.7608 0.7646 0.8147 0.8359
1340.640 0.8028 0.7915 0.829 0.8623 0.8417 0.8179 0.8065 0.8225 0.8219 0.8029
1359.930 0.7961 0.7831 0.7966 0.7677 0.7631 0.7683 0.7758 0.8218 0.8114 0.8189
1379.219 0.8766 0.907 0.8982 0.9666 1.0205 0.9973 0.9093 0.801 0.7494 0.6762
1398.509 0.6367 0.6412 0.642 0.6412 0.6481 0.6948 0.746 0.7722 0.8697 1.0275
1417.799 1.169 1.219 1.0837 0.9308 0.8704 0.8023 0.7269 0.6988 0.6924 0.7218
1437.089 0.7237 0.7239 0.7781 0.8479 0.92 0.9867 1.0435 1.1247 1.179 1.169
1456.378 1.229 1.279 1.289 1.329 1.419 1.519 1.599 1.789 1.909 1.869
1475.668 1.789 1.629 1.439 1.339 1.239 1.159 1.239 1.369 1.439 1.529
1494.958 1.769 2.089 2.469 3.089 3.969 4.989 6.209 7.249 7.489 6.819
1514.248 5.499 4.079 2.979 2.299 1.809 1.499 1.319 1.159 1.0344 0.9533
1533.538 0.8938 0.8174 0.7231 0.6922 0.6924 0.7036 0.6748 0.6728 0.6983 0.6887
1552.827 0.725 0.7554 0.7587 0.8051 0.937 1.041 1.169 1.329 1.499 1.779
1572.117 2.139 2.419 2.489 2.359 2.159 2.019 2.019 2.139 2.419 2.849
1591.407 3.409 4.109 4.839 5.479 5.859 5.859 5.529 4.989 4.369 3.809
1610.697 3.249 2.719 2.309 2.029 1.869 1.869 2.039 2.299 2.629 3.049
1629.986 3.469 3.709 3.629 3.179 2.619 2.119 1.749 1.519 1.289 1.0772
1649.276 0.968 0.8688 0.7752 0.754 0.7135 0.6509 0.5881 0.5269 0.5064 0.4966
1668.566 0.4819 0.4699 0.4573 0.4816 0.509 0.4567 0.4044 0.4022 0.4014 0.399
1687.856 0.4137 0.4151 0.3908 0.3996 0.3693 0.3326 0.3152 0.3163 0.3253 0.2818
1707.146 0.2432 0.2576 0.2983 0.2866 0.2657 0.327 0.3264 0.2915 0.3059 0.3385
1726.435 0.3388 0.2866 0.3162 0.3106 0.22715 0.22783 0.2614 0.2904 0.3239 0.3205
1745.725 0.281 0.3113 0.3546 0.31 0.2982 0.3195 0.3194 0.3044 0.2899 0.3369
1765.015 0.3509 0.3007 0.3105 0.3089 0.3421 0.359 0.3043 0.2743 0.2493 0.2416
1784.305 0.277 0.2837 0.261 0.2877 0.3001 0.2718 0.2571 0.2672 0.2675 0.2705
1803.594 0.2774 0.2545 0.2498 0.2646 0.246 0.261 0.2517 0.2616 0.2856 0.2655
1822.884 0.2801 0.2803 0.2526 0.2599 0.2516 0.21157 0.2537 0.2852 0.2741 0.2923
1842.174 0.2683 0.22285 0.19224 0.21347 0.2654 0.2857 0.2724 0.2454 0.2422 0.2433
1861.464 0.2534 0.2439 0.2414 0.2915 0.3009 0.3016 0.33 0.2944 0.2618 0.2845
1880.754 0.2865 0.317 0.3258 0.3496 0.3404 0.2919 0.3145 0.2783 0.268 0.3013
1900.043 0.3023 0.3064 0.3066 0.2891 0.3005 0.3112 0.2858 0.3338 0.3401 0.274
1919.333 0.2587 0.2722 0.2909 0.3096 0.3271 0.3276 0.306 0.3073 0.3049 0.2809
1938.623 0.2949 0.2909 0.2858 0.2688 0.2518 0.3003 0.3263 0.3346 0.3325 0.2638
1957.913 0.22929 0.2681 0.22332 0.20437 0.2655 0.2741 0.2799 0.3043 0.3121 0.2976
1977.202 0.2651 0.23259 0.2421 0.23292 0.2417 0.2563 0.272 0.2846 0.2928 0.2609
1996.492 0.18399 0.2457 0.3137 0.3119 0.3075 0.2679 0.2673 0.3008 0.2879 0.2555
2015.782 0.2792 0.3561 0.3307 0.2772 0.2742 0.2722 0.2408 0.22662 0.2616 0.2609
2035.072 0.2939 0.2972 0.23093 0.23835 0.3088 0.2638 0.23623 0.2863 0.2845 0.2639
2054.362 0.2756 0.272 0.2625 0.2714 0.2517 0.2976 0.3187 0.3047 0.3083 0.2983
2073.651 0.2999 0.3067 0.3252 0.3156 0.2989 0.2595 0.2532 0.2708 0.22972 0.2558
2092.941 0.2717 0.2555 0.286 0.2949 0.2645 0.2779 0.3126 0.3007 0.2789 0.2562
2112.231 0.2456 0.2518 0.2567 0.2446 0.2384 0.19981 0.21896 0.2432 0.21975 0.2791
2131.521 0.2916 0.23403 0.21647 0.20711 0.18609 0.20314 0.2502 0.2724 0.254 0.2543
2150.810 0.2597 0.2491 0.2574 0.2755 0.23643 0.15881 0.17832 0.19422 0.16714 0.19768
2170.100 0.18956 0.122 0.0976 0.19373 0.2664 0.23114 0.20675 0.21573 0.21433 0.18971
2189.390 0.21166 0.2394 0.2418 0.2588 0.21776 0.16652 0.1955 0.2037 0.21462 0.23225
2208.680 0.19953 0.20241 0.2442 0.2511 0.2521 0.2469 0.22332 0.18945 0.2208 0.2832
2227.970 0.29 0.2813 0.244 0.22797 0.2403 0.2452 0.2674 0.2872 0.2991 0.2572
2247.259 0.19513 0.22179 0.2464 0.22494 0.2523 0.2494 0.22761 0.2832 0.3238 0.2814
2266.549 0.3067 0.3361 0.3287 0.3221 0.2861 0.2635 0.2854 0.3356 0.2641 0.2044
2285.839 0.20774 0.19691 0.19069 0.20831 0.2747 0.2663 0.21445 0.2677 0.2594 0.22544
2305.129 0.2805 0.2545 0.18471 0.18136 0.1658 0.18256 0.19252 0.20037 0.2509 0.2555
2324.418 0.2514 0.21089 0.2021 0.1819 0.18071 0.21427 0.18393 0.23541 0.2972 0.2987
2343.708 0.3173 0.2633 0.20212 0.22833 0.2914 0.3072 0.2716 0.3174 0.3092 0.21931
2362.998 0.1874 0.20151 0.20706 0.2493 0.2761 0.2586 0.272 0.2515 0.2583 0.2526
2382.288 0.2402 0.2575 0.2684 0.2924 0.2694 0.2662 0.2733 0.23657 0.23854 0.2843
2401.578 0.3341 0.3129 0.22528 0.2655 0.3066 0.3092 0.3255 0.2916 0.2574 0.22611
2420.867 0.20952 0.20892 0.2582 0.3125 0.3241 0.2852 0.2513 0.2659 0.22855 0.20153
2440.157 0.2741 0.2537 0.14944 0.1273 0.16028 0.20626 0.21129 0.22773 0.2516 0.20146
2459.447 0.1601 0.18805 0.22042 0.21749 0.22627 0.23142 0.2762 0.3162 0.291 0.323
2478.737 0.3369 0.2597 0.2455 0.2898 0.31 0.317 0.3039 0.23077 0.21282 0.22283
2498.026 0.254 0.3349 0.2978 0.2885 0.2892 0.23628 0.2441 0.2559 0.2996 0.3142
2517.316 0.2936 0.3314 0.3191 0.2838 0.2916 0.2843 0.2421 0.2672 0.3205 0.3077
2536.606 0.316 0.3905 0.3861 0.2875 0.3202 0.3896 0.4128 0.384 0.3465 0.3475
2555.896 0.3009 0.2968 0.2779 0.2604 0.3116 0.3014 0.2838 0.3246 0.3342 0.3007
2575.186 0.2859 0.2869 0.2655 0.3061 0.3712 0.3714 0.3597 0.3321 0.3087 0.2716
2594.475 0.25 0.2493 0.2628 0.279 0.2581 0.2486 0.2755 0.3239 0.3073 0.2849
2613.765 0.2994 0.3232 0.3559 0.3233 0.2741 0.3018 0.2864 0.2645 0.2926 0.2837
2633.055 0.2617 0.2608 0.2704 0.19201 0.15933 0.2484 0.3199 0.3428 0.2735 0.21351
2652.345 0.2506 0.3529 0.3464 0.26 0.2802 0.2802 0.2899 0.2675 0.2667 0.3164
2671.634 0.3528 0.3589 0.3458 0.3503 0.3432 0.278 0.2733 0.3728 0.372 0.2886
2690.924 0.2841 0.3139 0.3027 0.253 0.23167 0.3103 0.3131 0.3553 0.3799 0.3056
2710.214 0.3285 0.395 0.407 0.3218 0.2589 0.3152 0.4093 0.3538 0.2793 0.3566
2729.504 0.3975 0.3248 0.2901 0.3935 0.4629 0.4262 0.3896 0.4398 0.5199 0.5263
2748.794 0.4085 0.3211 0.4109 0.4112 0.4137 0.4352 0.3804 0.4232 0.4175 0.3954
2768.083 0.376 0.3858 0.437 0.4108 0.3489 0.4275 0.4436 0.3106 0.3673 0.4477
2787.373 0.4361 0.4899 0.5113 0.4911 0.5002 0.5584 0.5889 0.5104 0.4928 0.4985
2806.663 0.522 0.5248 0.4922 0.539 0.6195 0.6942 0.6483 0.6335 0.7449 0.7657
2825.953 0.7777 0.8205 0.8391 0.8674 0.8948 1.0215 1.0984 1.169 1.269 1.379
2845.242 1.569 1.769 2.029 2.199 2.509 2.939 3.229 3.509 3.699 3.819
2864.532 4.009 4.079 3.989 3.879 3.719 3.599 3.549 3.469 3.359 3.299
2883.822 3.219 3.099 2.919 2.789 2.829 2.799 2.789 2.849 2.959 3.079
2903.112 3.149 3.269 3.489 3.799 4.149 4.469 4.759 5.099 5.569 6.049
2922.401 6.589 7.189 7.709 8.319 8.889 9.229 9.279 9.099 8.899 8.549
2941.691 8.029 7.489 6.999 6.589 6.059 5.649 5.299 4.939 4.829 4.739
2960.981 4.749 4.849 4.889 4.839 4.689 4.429 4.119 3.689 3.179 2.719
2980.271 2.299 2.029 1.889 1.829 1.699 1.559 1.469 1.399 1.289 1.189
2999.561 1.139 1.1376 1.1364 1.0477 0.9337 0.9246 1.0731 1.1043 1.0146 1.02
3018.850 1.0917 1.169 1.229 1.399 1.489 1.459 1.449 1.459 1.349 1.199
3038.140 1.0904 0.9982 0.9296 0.7791 0.5744 0.6148 0.7555 0.7928 0.8467 0.7827
3057.430 0.7544 0.7133 0.6614 0.6896 0.6728 0.726 0.7803 0.8075 0.8789 0.8785
3076.720 0.8763 0.9043 0.8855 0.7469 0.708 0.6785 0.6953 0.7923 0.7391 0.6466
3096.009 0.5932 0.5108 0.4816 0.5046 0.4663 0.557 0.6492 0.4981 0.4138 0.4006
3115.299 0.4137 0.408 0.3937 0.4083 0.4068 0.4785 0.526 0.431 0.3473 0.3926
3134.589 0.4162 0.392 0.3657 0.3767 0.3373 0.3622 0.4164 0.3239 0.2798 0.3549
3153.879 0.337 0.3101 0.35 0.3244 0.2565 0.3488 0.3357 0.2685 0.3469 0.2794
3173.169 0.21406 0.23609 0.18003 0.21582 0.2558 0.2709 0.3208 0.3752 0.4266 0.4037
3192.458 0.3409 0.2599 0.2915 0.3198 0.3002 0.2688 0.20566 0.2866 0.322 0.3245
3211.748 0.315 0.2883 0.3598 0.4591 0.5387 0.4415 0.2979 0.3487 0.3964 0.3726
3231.038 0.2946 0.18956 0.3005 0.3757 0.339 0.21158 0.294 0.3176 0.1941 0.3398
3250.328 0.4016 0.4324 0.3987 0.2911 0.2642 0.2851 0.3097 0.2439 0.2675 0.372
3269.617 0.366 0.3959 0.3832 0.3579 0.3066 0.2601 0.286 0.3093 0.321 0.3027
3288.907 0.3573 0.451 0.3668 0.22956 0.2931 0.3259 0.20261 0.16153 0.19083 0.2516
3308.197 0.289 0.2562 0.3081 0.2599 0.0469 0.0973 0.15616 0.17173 0.2743 0.22074
3327.487 0.20771 0.2614 0.2913 0.2932 0.2933 0.263 0.23173 0.2585 0.2693 0.3091
3346.777 0.309 0.3403 0.3301 0.2998 0.341 0.2997 0.3118 0.3055 0.3286 0.3263
3366.066 0.2679 0.2547 0.2772 0.3441 0.3215 0.21446 0.15512 0.17307 0.2761 0.3729
3385.356 0.3303 0.2832 0.3715 0.2631 0.19738 0.2778 0.2699 0.21292 0.20286 0.3276
3404.646 0.3128 0.3063 0.3533 0.3474 0.3012 0.3159 0.2667 0.2279 0.2792 0.23237
3423.936 0.23193 0.2392 0.21111 0.2602 0.3244 0.3362 0.3528 0.3032 0.2466 0.3705
3443.225 0.4987 0.4102 0.3812 0.3838 0.3054 0.21819 0.22074 0.2804 0.21455 0.2624
3462.515 0.2544 0.20062 0.3181 0.3209 0.2571 0.2511 0.3092 0.3716 0.2935 0.3385
3481.805 0.3011 0.142298 0.21611 0.20429 0.15162 0.3196 0.3948 0.3361 0.3001 0.2693
3501.095 0.3414 0.3701 0.3511 0.3504 0.3488 0.2953 0.2817 0.2848 0.23683 0.16891
3520.385 0.17234 0.188 0.15336 0.2869 0.3859 0.3076 0.20121 0.23886 0.3682 0.3344
3539.674 0.3302 0.3652 0.3007 0.2243 0.23447 0.3154 0.2694 0.2832 0.4006 0.3728
3558.964 0.3532 0.3961 0.3129 0.2934 0.19943 0.0913 0.19912 0.23469 0.248 0.2697
3578.254 0.18759 0.15061 0.19069 0.19699 0.3538 0.4145 0.3463 0.3342 0.2482 0.140018
3597.544 0.031 0.0814 0.23648 0.2629 0.2833 0.2995 0.2546 0.2839 0.3489 0.4183
3616.833 0.3838 0.3292 0.3225 0.2776 0.2872 0.3412 0.3404 0.3917 0.4214 0.2496
3636.123 0.15071 0.2411 0.3658 0.2544 0.0758 0.16177 0.2589 0.20974 0.22683 0.3178
3655.413 0.3347 0.2691 0.2667 0.21814 0.15894 0.2391 0.3742 0.3348 0.23589 0.2607
3674.703 0.23806 0.3005 0.4225 0.3729 0.3161 0.3094 0.2835 0.2829 0.3011 0.3639
3693.993 0.3701 0.3122 0.2893 0.2648 0.17556 0.2772 0.3582 0.2719 0.1847 0.16677
3713.282 0.3042 0.3604 0.3413 0.2427 0.2987 0.401 0.2964 0.3044 0.3539 0.4647
3732.572 0.446 0.4379 0.5174 0.3896 0.2811 0.3243 0.3576 0.2842 0.2537 0.3622
3751.862 0.4348 0.3693 0.3729 0.318 0.2415 0.22672 0.286 0.3263 0.3129 0.23816
3771.152 0.1653 0.3038 0.3507 0.3314 0.2781 0.20306 0.2674 0.3468 0.4218 0.379
3790.441 0.3953 0.3481 0.2865 0.2883 0.21155 0.2575 0.243 0.2975 0.275 0.19518
3809.731 0.3173 0.3403 0.18015 0.11 0.2599 0.319 0.241 0.2545 0.2556 0.2569
3829.021 0.2463 0.23223 0.2974 0.2708 0.18157 0.1822 0.3352 0.3614 0.2957 0.2446
3848.311 0.22494 0.3002 0.21433 0.19144 0.3022 0.2473 0.2617 0.3295 0.2957 0.2915
3867.601 0.3632 0.3953 0.3468 0.3159 0.2999 0.3211 0.3699 0.4105 0.4015 0.2825
3886.890 0.2689 0.3191 0.2649 0.22074 0.3042 0.4577 0.3459 0.18619 0.21404 0.17461
3906.180 0.22058 0.2894 0.3016 0.3332 0.2888 0.18355 0.2514 0.3847 0.3081 0.312
3925.470 0.319 0.3433 0.3751 0.23766 0.2685 0.4231 0.3365 0.2895 0.3115 0.3785
3944.760 0.4598 0.3698 0.3751 0.3915 0.3307 0.3257 0.4239 0.4155 0.3027 0.2716
3964.049 0.2747 0.3204 0.4263 0.5008 0.4209 0.2685 0.2285 0.2407 0.2818 0.2751
3983.339 0.3519 0.4426 0.3341 0.3702 0.2482 0.1013 0.21561 0.2551 0.2692 0.3346
##END=
