##TITLE=Dimethyl 5-bromoisophthalate
##JCAMP-DX=4.24
##DATA TYPE=INFRARED SPECTRUM
##ORIGIN=EPA-IR VAPOR PHASE LIBRARY
##OWNER=SRD/NIST
Collection (C) 2018 copyright by the U.S. Secretary of Commerce
on behalf of the United States of America. All rights reserved.
##CAS REGISTRY NO=51760-21-5
##MOLFORM=C 10 H 9 Br O 4
##$NIST SOURCE=MSDC-IR
##STATE=gas
##XUNITS=1/CM
##YUNITS=ABSORBANCE
##XFACTOR=1.
##YFACTOR=0.001
##DELTAX=1.92898
##FIRSTX=549.8
##LASTX=4000.7
##FIRSTY=0.546
##MAXX=4000.7
##MINX=549.759
##MAXY=0.37238
##MINY=0
##NPOINTS=1790
##XYDATA=(X++(Y..Y))
549.759 0.546 0.4413 0.6677 0.6658 0.4051 0.3428 0.5138 0.6176 0.7343 0.6924
569.049 0.5897 0.7821 0.8052 0.6462 0.3977 0.4678 0.3781 0.4258 0.5874 0.3649
588.339 0.4794 0.5474 0.3379 0.22126 0.23567 0.3943 0.4669 0.5402 0.6294 0.5038
607.628 0.5324 0.5914 0.4121 0.3424 0.3812 0.5373 0.6332 0.4831 0.3635 0.3822
626.918 0.4148 0.5212 0.6714 0.4901 0.4435 0.526 0.7019 0.8435 0.7277 0.6514
646.208 0.8698 0.8886 0.7295 0.9736 1.34 1.5 1.83 2.21 2.5 3
665.498 3.16 3.01 2.58 2.31 2.24 1.91 1.66 1.52 1.4 1.29
684.787 1.1528 1.1702 1.28 1.36 1.5 1.78 2.14 2.48 2.93 3.62
704.077 4.59 5.73 7.36 10.41 14.57 18.99 22.88 25.63 27.43 28.67
723.367 29.86 32.01 34.73 36.86 37.62 36.24 32.26 26.19 20.16 16.5
742.657 15.41 16.02 18.23 21.67 25.69 30.82 35.35 34.69 30.17 25.08
761.947 19.87 15.12 11.29 8.39 6.42 5.08 4.05 3.36 2.8 2.46
781.236 2.24 2.08 1.98 1.89 1.79 1.7 1.7 1.83 1.79 1.66
800.526 1.69 1.82 2.14 2.65 3.28 4.13 5.1 5.97 6.92 7.73
819.816 8.56 9.27 9.47 9.31 8.83 8.23 7.26 5.83 4.44 3.55
839.106 3.02 2.56 2.38 2.51 2.5 2.57 2.71 2.88 3.42 3.87
858.395 4.3 4.85 5.35 5.79 5.98 5.99 5.82 5.29 4.74 4.26
877.685 3.88 3.72 3.74 3.89 4.32 5 5.68 6.5 7.37 8.21
896.975 8.74 8.68 8.29 7.57 6.41 5.17 4.25 3.61 3.13 2.7
916.265 2.51 2.6 2.59 2.52 2.55 2.7 2.75 2.8 2.89 2.84
935.555 2.79 2.82 2.81 2.99 3.09 3.16 3.59 3.92 4.58 5.52
954.844 6.35 7.26 8.17 9.27 10.57 11.87 12.91 13.75 14.62 15.1
974.134 14.85 14.08 13.22 12.27 11.61 11.65 12.32 14.19 16.95 20.48
993.424 24.78 29.3 33.62 37.47 40.06 40.51 38.83 35.06 30.3 24.71
1012.714 19 14.42 11.05 8.62 6.84 5.65 4.81 4.1 3.72 3.71
1032.003 3.56 3.33 3.34 3.24 2.88 2.78 2.88 3.19 3.22 2.82
1051.293 2.89 3.16 3.1 3.16 3.42 3.76 3.89 3.9 3.89 3.76
1070.583 4.29 4.81 4.68 4.76 5.35 6.07 6.57 7.3 8.65 10.33
1089.873 11.75 13.86 16.79 19.49 21.93 24.34 26.58 27.93 28.14 27.23
1109.163 26.54 26.29 24.62 22.53 20.96 19.74 19.4 19.9 21.1 23.07
1128.452 25.75 28.63 31.86 34.82 36.93 38.38 38.49 36.99 34.2 30.8
1147.742 27.04 23.27 20.51 18.53 16.69 15.7 15.1 14.51 14.5 14.4
1167.032 14.21 14.5 14.89 15.33 15.54 15.92 16.69 17.58 18.83 20.44
1186.322 22.17 23.9 26.13 28.59 30.74 32.59 34.34 36.19 38.45 40.92
1205.611 43.51 46.25 49.79 54.25 59.79 66.43 74.74 86.11 99.98 117.29
1224.901 139.96 168.62 203.43 243.62 286.55 327.12 357.76 372.38 367.18 342.45
1244.191 303.03 256.5 211.29 172.72 142.03 118.22 99.06 82.3 68.06 57.33
1263.481 49.45 44.2 41.04 38.72 37.22 36.96 37.88 39.91 43.35 48.68
1282.771 56.12 65.94 78.45 92.87 108.82 125.56 141.52 155.25 165.11 169.89
1302.060 168.33 159.78 144.74 124.66 102.11 79.98 60.66 45.69 35.22 28.44
1321.350 24.27 21.47 19.52 18.16 17.08 16.16 15.35 14.66 13.93 13.24
1340.640 12.6 12.02 11.52 11.01 10.49 10.1 9.68 9.16 8.59 8.16
1359.930 7.75 7.33 7.06 6.82 6.61 6.55 6.63 6.72 6.8 6.86
1379.219 6.89 6.99 7.11 7.21 7.27 7.34 7.43 7.48 7.49 7.51
1398.509 7.52 7.65 7.86 8.07 8.36 8.73 9.25 9.91 10.79 11.89
1417.799 13.29 15.07 17.04 19.33 21.81 24.15 26.42 28.75 31.52 35.03
1437.089 39.17 42.96 45.45 45.85 43.59 38.66 31.91 24.87 18.97 15.03
1456.378 12.53 10.98 10.05 9.48 9.09 8.63 8.17 7.78 7.39 6.89
1475.668 6.41 5.99 5.73 5.64 5.39 5.08 4.94 4.82 4.76 4.63
1494.958 4.44 4.4 4.42 4.43 4.38 4.33 4.25 4.14 4.09 4.05
1514.248 4 3.92 3.84 3.87 3.89 3.9 4.01 4.15 4.34 4.53
1533.538 4.69 4.78 4.8 4.85 5.03 5.19 5.35 5.69 6.11 6.57
1552.827 7.12 7.81 8.6 9.51 10.62 11.88 13.4 15.15 17.06 18.9
1572.117 20.41 21.27 21.1 19.84 17.57 14.61 11.63 9.13 7.21 5.96
1591.407 5.28 4.82 4.65 4.69 4.9 5.17 5.35 5.38 5.35 5.17
1610.697 4.72 4.21 3.62 3.11 2.79 2.6 2.49 2.38 2.34 2.31
1629.986 2.37 2.44 2.43 2.49 2.59 2.63 2.74 2.75 2.77 2.86
1649.276 2.93 3.05 3.15 3.3 3.57 3.84 4 4.08 4.19 4.3
1668.566 4.39 4.56 4.77 4.99 5.19 5.37 5.37 5.29 5.35 5.34
1687.856 5.4 5.6 5.82 6.13 6.59 7.23 8.3 9.92 11.9 14.13
1707.146 16.39 18.41 19.93 20.66 20.52 19.81 19.08 18.68 18.59 18.84
1726.435 19.47 20.83 23.16 26.84 32.76 42.51 58.59 84.86 122.68 169.39
1745.725 215.17 249.57 267.46 265.49 239.3 194.19 146.21 107.7 76.74 51.06
1765.015 33 22.6 17.28 14.68 13.57 13.52 14.3 15.81 17.85 20.04
1784.305 22.01 23.11 22.73 20.76 17.78 14.73 11.99 9.74 8.11 6.98
1803.594 6.21 5.7 5.37 5.19 5.11 5.06 5.05 5.09 5.14 5.14
1822.884 5.15 5.07 4.89 4.79 4.66 4.58 4.48 4.31 4.14 3.95
1842.174 3.81 3.64 3.52 3.45 3.35 3.31 3.19 3.06 2.9 2.7
1861.464 2.54 2.36 2.2 2.03 1.87 1.75 1.66 1.56 1.43 1.29
1880.754 1.1861 1.1194 1.0326 1.0067 1.0009 0.9264 0.8719 0.8727 0.9144 0.9378
1900.043 0.866 0.8532 0.9065 0.8827 0.9157 1.0209 1.0628 1.0394 1.0581 1.0979
1919.333 1.145 1.1857 1.1376 1.1051 1.1896 1.26 1.3 1.34 1.35 1.38
1938.623 1.49 1.58 1.58 1.63 1.76 1.84 1.92 2.04 2.14 2.29
1957.913 2.37 2.39 2.45 2.44 2.41 2.39 2.35 2.19 2.04 1.97
1977.202 1.9 1.81 1.7 1.59 1.55 1.46 1.41 1.51 1.54 1.47
1996.492 1.5 1.54 1.51 1.46 1.41 1.34 1.31 1.3 1.24 1.1721
2015.782 1.0927 1.0698 1.0695 1.0061 0.9861 1.0189 0.9878 0.9779 0.9706 0.9018
2035.072 0.9018 0.9211 0.9501 0.9928 1.0372 1.0768 1.0953 1.1535 1.1846 1.26
2054.362 1.39 1.48 1.52 1.6 1.68 1.71 1.68 1.7 1.74 1.68
2073.651 1.62 1.6 1.57 1.56 1.46 1.37 1.4 1.41 1.4 1.48
2092.941 1.52 1.52 1.6 1.67 1.71 1.72 1.77 1.81 1.72 1.67
2112.231 1.65 1.59 1.53 1.52 1.51 1.49 1.44 1.35 1.35 1.33
2131.521 1.26 1.24 1.22 1.189 1.24 1.22 1.1549 1.1127 1.1115 1.1422
2150.810 1.1658 1.1832 1.21 1.19 1.1718 1.2 1.1355 1.0654 1.0621 1.0021
2170.100 0.9542 0.9642 0.8386 0.7135 0.7192 0.7552 0.8072 0.819 0.781 0.7235
2189.390 0.7535 0.7532 0.6279 0.6253 0.6916 0.6461 0.6196 0.6451 0.6054 0.5562
2208.680 0.5672 0.6067 0.5804 0.5256 0.4969 0.5054 0.5504 0.5661 0.5669 0.4767
2227.970 0.4302 0.4797 0.5176 0.5411 0.518 0.5388 0.5128 0.4314 0.435 0.535
2247.259 0.5387 0.4897 0.4704 0.5012 0.5079 0.4417 0.4402 0.4784 0.5097 0.532
2266.549 0.5199 0.5241 0.5625 0.555 0.574 0.5769 0.5562 0.5358 0.4977 0.4841
2285.839 0.4612 0.4561 0.5038 0.532 0.4945 0.5203 0.6378 0.6589 0.6571 0.6655
2305.129 0.7018 0.6948 0.6984 0.7274 0.6683 0.6427 0.6686 0.6568 0.639 0.5705
2324.418 0.5152 0.5479 0.5913 0.5547 0.5202 0.5611 0.564 0.5512 0.5698 0.6861
2343.708 0.7055 0.627 0.5977 0.5662 0.5573 0.5424 0.4619 0.4932 0.5732 0.6059
2362.998 0.5994 0.5675 0.5406 0.5713 0.6084 0.5496 0.5623 0.6183 0.6513 0.6986
2382.288 0.6779 0.6502 0.6395 0.6438 0.6961 0.7134 0.6727 0.5824 0.6063 0.6176
2401.578 0.6364 0.6799 0.6146 0.6226 0.6501 0.6525 0.6533 0.6076 0.5581 0.6376
2420.867 0.6716 0.6323 0.6514 0.5817 0.6285 0.678 0.5759 0.5174 0.5404 0.4963
2440.157 0.4261 0.4882 0.6055 0.6011 0.5841 0.5953 0.4878 0.4537 0.5115 0.5325
2459.447 0.5209 0.4779 0.4906 0.6025 0.5925 0.493 0.4556 0.5518 0.6349 0.5855
2478.737 0.5722 0.6232 0.6224 0.585 0.581 0.6355 0.6307 0.5947 0.5439 0.5044
2498.026 0.5292 0.483 0.4418 0.4923 0.5867 0.5814 0.464 0.4353 0.5068 0.514
2517.316 0.5401 0.5664 0.5655 0.6435 0.6658 0.6496 0.6763 0.6418 0.6778 0.7472
2536.606 0.7146 0.6457 0.6594 0.7108 0.6763 0.6228 0.6326 0.6697 0.6086 0.4773
2555.896 0.4794 0.529 0.5067 0.5258 0.5933 0.6207 0.5812 0.6441 0.6987 0.7058
2575.186 0.6999 0.7085 0.7349 0.7349 0.7515 0.7262 0.7346 0.7889 0.8237 0.8074
2594.475 0.7805 0.7597 0.6561 0.6427 0.7515 0.757 0.7502 0.7532 0.7039 0.583
2613.765 0.5464 0.5549 0.5863 0.5378 0.4256 0.4526 0.4808 0.5082 0.5502 0.4997
2633.055 0.4898 0.5265 0.5101 0.5347 0.5646 0.5289 0.5143 0.5011 0.4238 0.4135
2652.345 0.4938 0.5232 0.5132 0.4819 0.4614 0.4923 0.4758 0.4584 0.4933 0.4379
2671.634 0.3987 0.5169 0.4692 0.4317 0.4521 0.3946 0.3594 0.4368 0.5136 0.479
2690.924 0.4706 0.4399 0.429 0.3838 0.33 0.4346 0.5188 0.534 0.5539 0.4924
2710.214 0.4639 0.502 0.5372 0.5165 0.4624 0.4508 0.377 0.3425 0.4704 0.4178
2729.504 0.404 0.4329 0.3592 0.4377 0.5125 0.4813 0.478 0.4896 0.5289 0.5066
2748.794 0.4162 0.38 0.3524 0.4031 0.4429 0.4226 0.4 0.4473 0.3999 0.3691
2768.083 0.4801 0.4342 0.3894 0.4487 0.4019 0.3501 0.3724 0.4264 0.4695 0.5345
2787.373 0.6274 0.6316 0.521 0.3862 0.4241 0.4996 0.5456 0.6003 0.6598 0.6639
2806.663 0.6608 0.7915 0.7916 0.7967 0.9417 0.9967 1.0022 1.0733 1.1878 1.25
2825.953 1.33 1.41 1.5 1.68 1.91 2.19 2.47 2.93 3.53 4.22
2845.242 5.11 5.81 6.16 6.33 6.35 6.06 5.4 4.75 4.32 3.88
2864.532 3.49 3.26 3.13 3.04 3.02 2.94 2.94 3.11 3.12 3.19
2883.822 3.27 3.25 3.25 3.38 3.59 3.85 4.11 4.35 4.53 4.71
2903.112 5.01 5.13 5.12 5.19 5.38 5.48 5.69 5.85 5.75 5.74
2922.401 5.73 5.59 5.35 5.18 5.22 5.3 5.29 5.33 5.51 5.91
2941.691 6.41 7.06 8 9.25 11.07 13.77 17.59 22.92 29.68 36.67
2960.981 41.68 43.41 41.96 37.37 30.17 22.37 16 11.73 9.15 7.61
2980.271 6.74 6.23 5.87 5.79 5.99 6.13 6.33 6.67 7.21 7.71
2999.561 8.12 8.75 9.1 9.14 8.96 8.6 8.07 7.51 7.02 6.55
3018.850 6.21 5.96 5.92 6.06 6.26 6.47 6.77 6.85 6.66 6.49
3038.140 6.17 5.64 5.18 4.8 4.27 3.9 3.66 3.4 3.27 3.1
3057.430 3.01 2.8 2.63 2.72 2.76 2.8 2.81 2.98 3.14 3.33
3076.720 3.69 3.98 4.41 4.79 4.83 4.67 4.45 4.15 3.87 3.7
3096.009 3.38 3.05 2.84 2.58 2.34 2.18 2.16 2.1 1.9 1.75
3115.299 1.7 1.61 1.46 1.3 1.31 1.29 1.25 1.27 1.1333 1.0842
3134.589 1.1268 1.0477 0.9135 0.9805 1.0257 0.9204 0.852 0.8101 0.7349 0.7786
3153.879 0.9341 0.9179 0.8313 0.926 0.9067 0.6955 0.7126 0.7117 0.5656 0.5917
3173.169 0.7025 0.7697 0.8085 0.7499 0.7752 0.6764 0.5301 0.5474 0.5825 0.7201
3192.458 0.7055 0.7117 0.8275 0.6042 0.4444 0.553 0.5602 0.5564 0.6206 0.5808
3211.748 0.4389 0.28975 0.3204 0.3969 0.24547 0.1789 0.3219 0.5051 0.4429 0.23952
3231.038 0.24378 0.3109 0.4121 0.3732 0.21787 0.196199 0.18693 0.26368 0.28383 0.21787
3250.328 0.191742 0.20256 0.25803 0.4 0.4649 0.2964 0.27685 0.3226 0.3237 0.3391
3269.617 0.2622 0.3437 0.3406 0.23844 0.21237 0.25724 0.4846 0.4061 0.2986 0.4161
3288.907 0.3495 0.27985 0.23209 0.22656 0.3965 0.4559 0.27848 0.3037 0.3315 0.3225
3308.197 0.21908 0.1049 0.113 0.0961 0.26411 0.4887 0.5746 0.4637 0.3298 0.21969
3327.487 0.25538 0.2802 0.4879 0.5336 0.27952 0.3298 0.3759 0.3686 0.3497 0.24988
3346.777 0.3445 0.432 0.326 0.3062 0.351 0.326 0.3463 0.5509 0.5416 0.3464
3366.066 0.27914 0.3134 0.3925 0.3833 0.23572 0.1747 0.24943 0.3092 0.3367 0.3191
3385.356 0.24994 0.22563 0.3398 0.4441 0.3432 0.3295 0.3918 0.3871 0.3184 0.27906
3404.646 0.21445 0.1665 0.3324 0.3301 0.272 0.24699 0.28341 0.343 0.3796 0.4228
3423.936 0.4147 0.4248 0.3924 0.3212 0.22669 0.3475 0.4289 0.5984 0.627 0.4399
3443.225 0.5417 0.6142 0.6571 0.7482 0.7802 0.759 0.7253 0.726 0.817 0.8
3462.515 0.8767 1.0035 1.0945 1.33 1.7 1.92 2.01 2.33 2.64 2.78
3481.805 2.79 2.71 2.43 2.1 1.79 1.42 1.1712 1.1812 1.1037 0.9795
3501.095 0.9565 0.9535 0.9476 0.918 0.9004 0.7898 0.8003 0.838 0.5939 0.4522
3520.385 0.5509 0.5823 0.7219 0.6479 0.4413 0.4255 0.3538 0.3668 0.373 0.3358
3539.674 0.3665 0.3981 0.3113 0.3046 0.4138 0.495 0.402 0.2917 0.3436 0.4069
3558.964 0.3091 0.24701 0.4492 0.5357 0.5065 0.5181 0.3979 0.3572 0.3471 0.28303
3578.254 0.25969 0.2205 0.22816 0.3506 0.433 0.22745 0.24025 0.4012 0.393 0.2971
3597.544 0.24153 0.24065 0.21682 0.24404 0.2261 0.21435 0.2636 0.3671 0.3372 0.28161
3616.833 0.3585 0.3956 0.2961 0.193231 0.151 0.079 0.1125 0.191402 0.352 0.3725
3636.123 0.27709 0.2998 0.28973 0.28478 0.24146 0.22242 0.23592 0.28827 0.3249 0.21055
3655.413 0.27853 0.3523 0.3431 0.25718 0.192915 0.20769 0.153 0.192438 0.21488 0.1123
3674.703 0.025 0.189694 0.3571 0.3513 0.27463 0.22306 0.1494 0.1747 0.22903 0.3095
3693.993 0.2963 0.069 0.021 0.1468 0.3234 0.24658 0 0.1582 0.3857 0.3647
3713.282 0.4235 0.4015 0.3219 0.3405 0.25878 0.3613 0.4723 0.4156 0.3135 0.21538
3732.572 0.196406 0.21146 0.23206 0.2263 0.23206 0.20384 0.3664 0.3243 0.084 0.085
3751.862 0.1114 0.026 0.1523 0.33 0.22255 0.1766 0.21675 0.3606 0.3795 0.28257
3771.152 0.20338 0.1332 0.28576 0.3461 0.27991 0.21786 0.22114 0.165 0.1499 0.22057
3790.441 0.22219 0.23968 0.23069 0.22358 0.18229 0.1658 0.23786 0.27774 0.4215 0.4505
3809.731 0.3245 0.3932 0.4455 0.365 0.5184 0.4538 0.2378 0.27332 0.23499 0.18117
3829.021 0.3361 0.4055 0.28044 0.24135 0.20504 0.199121 0.193053 0.2946 0.3635 0.218
3848.311 0.20586 0.3961 0.5025 0.3549 0.3398 0.3678 0.23892 0.27052 0.28828 0.26346
3867.601 0.3187 0.26269 0.21903 0.25785 0.4306 0.6224 0.4665 0.298 0.25179 0.25196
3886.890 0.190898 0.18018 0.24594 0.18831 0.1768 0.23488 0.24131 0.26462 0.2972 0.2944
3906.180 0.3427 0.3048 0.2384 0.3292 0.3886 0.3359 0.24163 0.3441 0.5953 0.5544
3925.470 0.4228 0.3601 0.26651 0.39 0.439 0.26231 0.2331 0.3207 0.26142 0.3406
3944.760 0.5917 0.6559 0.3959 0.1077 0.1596 0.4186 0.5106 0.4529 0.3717 0.2994
3964.049 0.4099 0.3453 0.24896 0.4134 0.485 0.4647 0.5448 0.4386 0.22494 0.27146
3983.339 0.3484 0.28693 0.26259 0.3916 0.524 0.5058 0.3839 0.27062 0.21652 0.4082
##END=
