##TITLE=.gamma.-(4-Fluorophenyl)-.gamma.-butyrolactone
##JCAMP-DX=4.24
##DATA TYPE=INFRARED SPECTRUM
##ORIGIN=EPA-IR VAPOR PHASE LIBRARY
##OWNER=SRD/NIST
Collection (C) 2018 copyright by the U.S. Secretary of Commerce
on behalf of the United States of America. All rights reserved.
##CAS REGISTRY NO=51787-96-3
##MOLFORM=C 10 H 9 F O 2
##$NIST SOURCE=MSDC-IR
##STATE=gas
##XUNITS=1/CM
##YUNITS=ABSORBANCE
##XFACTOR=1.
##YFACTOR=0.001
##DELTAX=1.92898
##FIRSTX=549.8
##LASTX=4000.7
##FIRSTY=16.0216
##MAXX=4000.7
##MINX=549.759
##MAXY=0.495282
##MINY=0
##NPOINTS=1790
##XYDATA=(X++(Y..Y))
549.759 16.0216 15.5516 15.1516 14.5316 13.8916 13.5516 12.1816 10.4016 9.2016 8.0916
569.049 7.1516 5.8916 5.0716 5.1616 4.5616 3.7316 3.7616 3.5516 2.7816 2.6516
588.339 2.6316 2.3216 2.4416 2.5116 2.4416 2.7516 3.2716 3.3116 3.0916 3.1716
607.628 3.3816 3.6316 3.6016 3.7116 3.7316 3.8316 3.8016 3.6916 3.9216 4.1816
626.918 4.2616 4.3816 4.7816 4.8816 5.1016 5.3516 4.9216 4.8516 5.1416 5.1816
646.208 5.4216 5.7316 5.9316 6.1216 6.2916 6.4716 6.8116 6.8516 7.1216 7.4116
665.498 7.1316 7.2816 7.4116 7.2516 7.3216 7.1716 6.7816 6.5516 6.3816 6.1816
684.787 5.8616 5.5416 5.3716 5.1716 5.1316 4.9916 4.7116 4.5816 4.4116 3.9116
704.077 3.6616 3.8816 3.8016 3.4616 3.2716 3.3616 3.1916 2.8816 2.9616 2.8616
723.367 2.5816 2.4116 2.3516 2.3816 2.5116 2.7816 2.6416 2.5416 2.8116 3.1316
742.657 3.3416 3.4516 3.6716 3.8016 3.9016 3.9816 4.1816 4.3116 4.6316 5.1816
761.947 5.7816 6.2916 6.5916 7.1416 7.7916 8.7216 9.8116 10.8216 11.9616 12.7016
781.236 13.3416 14.2216 14.5316 14.5316 14.5516 14.6716 14.9616 15.6416 16.5516 17.3116
800.526 18.6216 20.1816 21.7816 23.7516 25.3416 26.7216 28.3516 30.1816 32.1316 34.0516
819.816 36.5016 39.6116 43.1016 46.7216 50.5216 54.4316 57.6216 59.5416 60.3116 60.5916
839.106 60.5516 60.4416 59.8716 58.2916 56.0016 52.8016 48.8716 44.7416 40.5216 37.0216
858.395 34.5916 33.2616 32.9716 33.5716 35.0416 36.7016 38.2716 39.6716 41.1816 42.3416
877.685 42.1616 40.9816 38.5916 35.2316 31.7316 27.4816 23.0416 18.8516 15.2516 12.9016
896.975 11.3916 10.3616 9.8416 9.2316 8.6916 8.7316 8.6516 8.3816 8.4016 9.0116
916.265 10.0216 10.8616 11.9516 13.6816 15.7616 18.3516 21.5116 25.5716 30.0416 34.2116
935.555 37.1316 38.1216 37.8516 36.3716 33.7716 29.8816 25.0316 20.5616 17.1616 14.8516
954.844 13.1716 12.1316 11.8516 11.5316 11.3616 11.3416 11.5816 12.1416 12.5316 13.2116
974.134 14.1516 15.1016 16.2816 17.9116 19.3516 20.3316 21.6216 22.8016 23.6816 24.2916
993.424 24.6116 24.6516 24.3416 24.2116 24.4516 25.1416 27.1116 30.2116 34.0216 36.8616
1012.714 38.2916 40.0616 42.2416 45.0016 47.7916 50.9716 55.4716 61.6716 69.1216 76.5816
1032.003 83.7116 90.4816 96.3216 99.7316 100.902 100.992 98.2116 93.0416 86.9216 79.5816
1051.293 71.5116 63.2716 55.9616 48.7616 41.5316 35.4716 30.5216 26.4316 23.5316 21.5616
1070.583 19.7216 18.6516 18.1616 17.4916 16.9416 16.9416 16.7116 16.8716 17.4216 17.6816
1089.873 18.8116 20.8016 22.7416 25.0816 26.8616 27.9716 30.0116 32.2816 34.1816 37.2716
1109.163 41.8016 46.4516 53.9916 63.4016 74.4816 88.5916 105.082 123.592 142.732 161.272
1128.452 176.892 186.682 189.312 186.672 179.702 169.082 156.482 144.432 135.012 131.412
1147.742 133.062 137.122 142.962 148.312 149.312 146.302 143.722 140.452 132.402 119.772
1167.032 106.082 94.7216 85.9616 77.4416 68.3616 59.3616 51.6516 45.9816 41.1916 36.9516
1186.322 34.1916 32.1416 31.0516 30.7616 30.9416 31.3016 32.1216 33.8016 35.3416 36.9916
1205.611 38.0916 38.6816 39.1316 39.0016 38.8316 40.1516 42.9916 45.5816 49.6516 56.0316
1224.901 63.7516 74.1616 89.2616 108.962 132.462 156.882 175.622 185.782 187.562 180.662
1244.191 165.212 138.862 105.212 74.9116 53.7116 41.0516 33.9116 29.7116 26.9516 25.3116
1263.481 24.4216 24.1216 23.7716 23.2316 23.2916 23.4316 23.7016 24.1816 24.5616 25.1416
1282.771 25.8716 26.3516 26.9716 27.5116 27.6416 27.3616 26.7316 26.1816 25.7516 25.3516
1302.060 25.0616 25.0516 25.3016 25.7416 26.6816 28.1816 30.1016 32.2516 34.2316 35.7916
1321.350 36.8216 37.1116 36.5316 35.1016 33.0416 30.6516 28.2616 26.1516 24.4816 23.3216
1340.640 22.6416 22.2616 22.0916 22.2816 22.6516 23.2616 24.0416 24.8016 25.3316 25.5216
1359.930 25.2716 24.3916 22.9016 21.0516 19.0716 16.9216 14.7416 12.8316 11.2916 10.0316
1379.219 9.1216 8.4616 7.8616 7.5316 7.3416 7.1916 7.2016 7.2416 7.2816 7.3316
1398.509 7.3116 7.3716 7.4916 7.4716 7.5716 7.8516 8.1816 8.5916 9.0116 9.4516
1417.799 9.9316 10.5716 11.3616 12.2116 13.0016 13.4616 13.4916 13.3016 12.8916 12.2916
1437.089 11.5016 10.5416 9.7316 9.3216 9.1416 9.1416 9.3616 9.7716 10.5616 11.5716
1456.378 12.7716 14.1016 15.2416 16.0116 16.3816 16.4716 16.3616 15.7616 14.8616 14.1516
1475.668 13.4016 12.8816 12.6216 12.5516 12.9416 13.5616 14.6716 16.2416 18.4416 21.4616
1494.958 25.3916 30.8716 38.2016 47.9716 60.7216 76.3216 94.9116 114.252 130.552 141.212
1514.248 144.402 140.652 130.612 114.802 93.8416 72.1816 52.8916 38.3716 28.4616 21.9016
1533.538 17.4216 14.2816 12.1516 10.5216 9.2116 8.3016 7.4516 6.7916 6.5016 6.0916
1552.827 5.6316 5.4316 5.3316 5.2316 5.2316 5.3616 5.6216 5.8216 5.9016 6.0616
1572.117 6.4416 6.8316 7.2616 7.9216 8.6516 9.4516 10.4216 11.7816 13.4016 15.2816
1591.407 17.5716 20.3616 23.6416 27.4316 31.6816 36.0016 40.1116 43.4916 45.2716 45.1416
1610.697 43.1816 39.6916 35.3816 30.3316 25.3416 21.0716 17.4616 14.6916 12.5516 11.0116
1629.986 9.7416 8.7116 7.9916 7.4116 6.9316 6.6516 6.4616 6.3316 6.2916 6.1316
1649.276 6.0016 5.9616 5.8116 5.7116 5.6916 5.5316 5.3516 5.0916 4.9416 4.8816
1668.566 4.6716 4.4216 4.2916 4.1316 3.9916 3.9916 4.0016 3.9616 3.8216 3.6916
1687.856 3.7416 3.8216 3.7916 3.7716 3.7616 3.6716 3.7316 3.8316 3.7716 3.8116
1707.146 3.8816 3.9516 3.9916 4.0616 4.1716 4.3616 4.5016 4.5716 4.9016 5.1816
1726.435 5.4216 5.8016 6.1616 6.4916 6.8816 7.2316 7.6916 8.1416 8.7016 9.3016
1745.725 9.7716 10.3216 10.9716 11.7116 12.6016 13.6616 14.6316 15.6516 16.7816 17.9216
1765.015 19.1816 20.5116 21.7916 22.9816 24.3916 25.9016 27.6316 29.8316 32.4816 35.8416
1784.305 40.2416 45.7316 52.7216 61.6516 72.9416 87.2316 105.102 127.652 155.902 191.542
1803.594 235.562 287.652 345.272 402.382 450.322 482.212 495.282 489.262 464.022 419.642
1822.884 360.372 295.632 235.282 184.702 143.922 112.792 89.2316 71.4816 58.1016 48.0116
1842.174 40.4016 34.5016 29.9416 26.3516 23.5216 21.3316 19.4016 17.8216 16.6016 15.6316
1861.464 14.7616 13.9816 13.4316 12.9316 12.5716 12.3116 12.0216 11.7816 11.6316 11.5316
1880.754 11.4216 11.2516 10.9216 10.6616 10.3916 9.9616 9.5916 9.1216 8.6016 8.1816
1900.043 7.8916 7.6016 7.2616 6.9816 6.6916 6.3716 6.1316 6.0316 5.9016 5.6116
1919.333 5.3416 5.1716 4.9416 4.7016 4.5316 4.3616 4.2716 4.1816 3.9916 3.9016
1938.623 3.9716 3.8916 3.7516 3.7216 3.6316 3.5216 3.4116 3.2516 3.2016 3.2016
1957.913 3.1016 3.0316 2.9516 2.8616 2.8516 2.9016 2.8716 2.8816 2.9416 2.8816
1977.202 2.9116 2.9516 2.9616 3.0416 3.0316 3.1316 3.3416 3.4216 3.4716 3.6616
1996.492 3.8616 3.9016 4.0116 4.0916 4.0416 4.0516 4.0616 4.0016 3.9016 3.7816
2015.782 3.6316 3.5016 3.4416 3.3216 3.2416 3.1616 3.0216 2.9516 2.8316 2.6916
2035.072 2.6216 2.6116 2.5916 2.6116 2.6816 2.6816 2.6716 2.6616 2.6416 2.5216
2054.362 2.3316 2.3016 2.3216 2.3016 2.2816 2.2816 2.3516 2.3816 2.2716 2.1516
2073.651 2.1616 2.1116 2.0616 2.0516 2.0416 2.0016 1.9116 1.9216 1.9116 1.8016
2092.941 1.7016 1.7116 1.6016 1.4216 1.3716 1.3216 1.2516 1.1116 1.0347 1.0916
2112.231 1.1016 1.0916 1.0533 1.0392 1.0655 1.1116 1.0916 1.0008 0.9762 1.0209
2131.521 1.0299 0.9954 1.0424 1.015 0.9656 1.0124 1.0334 1.0816 1.0737 1.0273
2150.810 1.0595 1.2116 1.2516 1.2016 1.2216 1.2216 1.1916 1.1816 1.2216 1.3016
2170.100 1.3916 1.3416 1.3116 1.3816 1.3716 1.3916 1.4216 1.4216 1.4216 1.3816
2189.390 1.4516 1.5316 1.4516 1.3916 1.4816 1.4416 1.3916 1.4216 1.3516 1.3916
2208.680 1.4516 1.3916 1.3416 1.3516 1.3616 1.4516 1.5316 1.5516 1.5916 1.6916
2227.970 1.7316 1.7516 1.7916 1.7916 1.8416 1.7616 1.7616 1.9316 2.0516 2.1716
2247.259 2.2516 2.3416 2.5316 2.6416 2.6816 2.7016 2.7216 2.7116 2.6816 2.7216
2266.549 2.6916 2.6316 2.5416 2.5516 2.5516 2.4816 2.5216 2.5016 2.4616 2.4216
2285.839 2.4216 2.4516 2.4216 2.3916 2.3616 2.3616 2.2816 2.1716 2.1516 2.1316
2305.129 2.0616 1.9416 1.9116 1.9316 1.8116 1.6916 1.7016 1.6416 1.6016 1.6716
2324.418 1.6716 1.6516 1.5716 1.5316 1.5116 1.4016 1.4516 1.4616 1.3616 1.2616
2343.708 1.2116 1.2316 1.2316 1.2416 1.2316 1.2216 1.2016 1.2116 1.2616 1.2116
2362.998 1.2016 1.2716 1.3416 1.3516 1.2616 1.2416 1.2416 1.2216 1.2616 1.2616
2382.288 1.3216 1.4216 1.3616 1.4116 1.4716 1.4016 1.4416 1.5516 1.5916 1.6616
2401.578 1.7016 1.5616 1.5116 1.5016 1.4616 1.3816 1.3416 1.3316 1.2716 1.2116
2420.867 1.2416 1.3316 1.3916 1.5916 1.5216 1.3916 1.4316 1.5016 1.6016 1.6016
2440.157 1.7016 1.7516 1.7616 1.8516 1.8016 1.8316 1.9616 2.0016 2.0816 2.1516
2459.447 2.1916 2.1816 2.2316 2.2016 2.1616 2.2016 2.2316 2.2716 2.2916 2.2916
2478.737 2.0716 1.9416 1.9416 1.7516 1.5416 1.4816 1.5216 1.3716 1.2516 1.2216
2498.026 1.1416 1.0807 1.0538 1.1416 1.1516 1.0257 0.9617 0.9412 1.0109 1.0023
2517.316 0.9833 0.9281 0.796 0.8706 0.9223 0.8193 0.8514 0.8755 0.8693 0.8477
2536.606 0.8617 0.9032 0.8567 0.9345 0.9683 0.8934 0.8542 0.8986 0.9667 0.8876
2555.896 0.9606 1.0916 1.0789 1.1116 1.0643 1.0816 1.0687 1.0221 0.9785 1.0615
2575.186 1.1216 1.0382 1.0701 1.1616 1.2116 1.2016 1.1016 1.0001 0.9346 0.9461
2594.475 1.0347 0.9772 0.9798 1.0538 1.037 0.9238 0.8453 0.9035 0.9511 0.9647
2613.765 0.8804 0.7114 0.6867 0.9054 1.1216 1.0085 0.8671 0.9974 1.0495 0.8961
2633.055 0.805 0.8599 0.8398 0.8101 0.9008 0.8749 0.8455 0.7636 0.6205 0.6502
2652.345 0.8226 0.7845 0.7344 0.7299 0.7055 0.6776 0.6133 0.7679 0.7929 0.6793
2671.634 0.6728 0.7112 0.7409 0.7745 0.7984 0.8074 0.7892 0.8087 0.8555 0.9543
2690.924 0.8748 0.8568 0.9545 0.9761 0.9712 0.8863 0.8829 0.8594 0.9205 0.9222
2710.214 0.8504 0.8819 0.9333 0.9783 0.8774 0.7528 0.7434 0.8275 0.8391 0.8327
2729.504 0.8349 0.8272 0.7594 0.7565 0.9301 0.9318 0.7996 0.7847 0.7979 0.8668
2748.794 0.8395 0.7713 0.9737 1.0916 1.0746 1.0059 0.8802 0.9061 0.9455 0.9134
2768.083 1.005 0.8773 0.7613 0.7962 0.7692 0.8654 0.9488 0.8566 0.7741 0.7319
2787.373 0.703 0.6508 0.6522 0.8358 1.0597 1.0091 0.8284 0.8083 0.7965 0.855
2806.663 0.8611 0.9346 0.9882 0.9155 1.0527 1.1216 1.1116 1.1616 1.1816 1.2116
2825.953 1.2516 1.2916 1.3416 1.4516 1.6716 1.8016 1.9216 2.0716 2.2316 2.3416
2845.242 2.2216 2.2116 2.2716 2.3916 2.5116 2.4716 2.6016 2.8216 3.0016 3.2516
2864.532 3.4616 3.6516 3.9416 4.3416 4.8616 5.5716 6.3016 6.7216 7.1416 7.7516
2883.822 8.4116 9.1016 9.8116 10.4016 11.0016 11.5416 12.0516 12.7016 13.0616 13.1916
2903.112 13.1616 13.1416 13.0916 12.7916 12.3616 11.9716 11.6016 11.2316 10.9416 10.6416
2922.401 10.6416 10.9016 11.1116 11.5916 12.2316 12.9816 13.7916 14.3816 15.0416 15.6016
2941.691 15.8416 15.9716 16.0316 16.1416 16.5516 17.1916 17.8316 18.4116 18.9416 19.2316
2960.981 19.3816 19.5016 19.4516 19.2916 19.1816 19.1516 19.2516 19.4316 19.8616 20.4716
2980.271 20.9716 21.4116 21.7416 21.6816 21.5216 21.6916 21.5016 20.8216 19.9316 18.9216
2999.561 17.8516 16.5816 15.3116 14.0816 12.8216 11.5016 10.3716 9.4216 8.4816 7.8616
3018.850 7.5116 7.1116 6.7716 6.5916 6.4516 6.5316 6.8416 7.1616 7.5516 8.1216
3038.140 8.6816 9.0116 9.3616 9.6516 9.7516 9.7516 9.5016 8.8716 8.2916 7.8116
3057.430 7.1816 6.6516 6.2316 5.9416 5.7516 5.3416 5.0616 5.1416 5.2516 5.5316
3076.720 5.7916 6.0016 6.0116 5.9416 5.9316 5.5216 4.9416 4.3916 3.7716 3.3616
3096.009 3.1816 3.0516 2.9716 2.8516 2.5816 2.3816 2.3016 2.3516 2.5716 2.5216
3115.299 2.3316 2.3316 2.3916 2.2616 2.0616 2.0816 2.2516 2.1516 1.8916 1.6816
3134.589 1.5716 1.4316 1.1816 1.1116 1.0916 1.0309 0.9114 0.7101 0.7529 0.7125
3153.879 0.5252 0.5102 0.6134 0.7201 0.5225 0.4454 0.5386 0.4377 0.3476 0.2829
3173.169 0.3994 0.5505 0.4367 0.5187 0.6802 0.6063 0.6316 0.5906 0.5309 0.4277
3192.458 0.3559 0.3614 0.3613 0.4415 0.4369 0.4171 0.5616 0.6766 0.6796 0.6597
3211.748 0.6222 0.6674 0.4576 0.2479 0.2222 0.12237 0 0.13842 0.314 0.2947
3231.038 0.2795 0.2455 0.2934 0.3551 0.1979 0.11948 0.3705 0.351 0.2414 0.364
3250.328 0.3365 0.3398 0.4568 0.4983 0.368 0.2479 0.12547 0.11061 0.1946 0.301
3269.617 0.3135 0.2084 0.12684 0.019 0.1857 0.3239 0.2754 0.3064 0.2818 0.2894
3288.907 0.2823 0.084436 0.09517 0.2424 0.2825 0.3256 0.2766 0.15931 0.2604 0.2768
3308.197 0.15432 0.2864 0.3404 0.2929 0.2051 0.0794 0.18077 0.3043 0.17008 0.16955
3327.487 0.12191 0.086592 0.17618 0.13572 0.2028 0.2421 0.2263 0.07265 0.12343 0.2592
3346.777 0.1929 0.2601 0.3954 0.3189 0.3515 0.2776 0.1892 0.3167 0.3074 0.2372
3366.066 0.15532 0.1643 0.10535 0.0366 0.10138 0.405 0.4096 0.07254 0.17856 0.1926
3385.356 0.0669 0.3041 0.6171 0.5673 0.5009 0.4814 0.2906 0.232 0.15265 0.12039
3404.646 0.2857 0.3708 0.2542 0.2334 0.16206 0.080796 0.14358 0.11272 0.3084 0.3801
3423.936 0.1978 0.2522 0.2797 0.2627 0.3744 0.4148 0.2836 0.1989 0.2327 0.3968
3443.225 0.3599 0.17249 0.16731 0.2978 0.351 0.2447 0.1886 0.2249 0.4428 0.5696
3462.515 0.5144 0.3078 0.2228 0.4683 0.5991 0.4348 0.2365 0.237 0.10991 0.2165
3481.805 0.5531 0.5913 0.5755 0.4862 0.2184 0.2159 0.2752 0.2783 0.2749 0.2115
3501.095 0.3513 0.5108 0.4906 0.5028 0.4505 0.3375 0.5478 0.7033 0.585 0.661
3520.385 0.5965 0.3383 0.3079 0.4802 0.5513 0.4551 0.5014 0.5603 0.6546 0.6995
3539.674 0.5738 0.6863 0.9534 0.8475 0.6494 0.7401 0.8144 0.7727 0.844 1.0283
3558.964 1.0398 0.8767 0.8474 0.7281 0.6761 1.0233 1.0816 1.1716 1.3116 1.3316
3578.254 1.5016 1.5716 1.6816 1.8316 1.9116 2.1316 2.3116 2.5116 3.0316 3.3516
3597.544 3.4716 3.9116 4.5116 4.7516 4.8016 5.1816 5.4816 5.6116 5.7016 5.6716
3616.833 5.6216 5.2416 4.7216 4.2116 3.9216 3.6716 3.2716 2.9216 2.5116 2.2616
3636.123 2.1116 1.9816 1.9616 1.7816 1.4216 1.3116 1.3116 1.2316 1.1916 1.1316
3655.413 0.9051 0.7482 0.9012 0.9079 0.6918 0.7321 0.7597 0.7218 0.7421 0.7125
3674.703 0.8111 0.7806 0.8465 0.9237 0.6547 0.5558 0.739 0.7017 0.6284 0.5973
3693.993 0.5456 0.5928 0.6694 0.7243 0.6757 0.6038 0.7006 0.7792 0.7634 0.7594
3713.282 0.5922 0.5601 0.7083 0.6168 0.3642 0.3367 0.5299 0.6381 0.436 0.2568
3732.572 0.3262 0.4626 0.5743 0.6627 0.673 0.6059 0.5692 0.4853 0.3726 0.3912
3751.862 0.4798 0.5155 0.709 0.8057 0.5139 0.5464 0.6709 0.4925 0.4289 0.4545
3771.152 0.3949 0.4531 0.3845 0.3291 0.3647 0.2304 0.2601 0.3079 0.15137 0.15797
3790.441 0.3814 0.5396 0.5669 0.4351 0.403 0.3483 0.4356 0.6432 0.4886 0.2846
3809.731 0.2839 0.4621 0.5227 0.5197 0.6013 0.5439 0.527 0.4196 0.2925 0.3118
3829.021 0.246 0.3137 0.4908 0.5122 0.6075 0.7031 0.6234 0.4729 0.3096 0.12579
3848.311 0.245 0.4423 0.4386 0.3661 0.351 0.4585 0.6454 0.7009 0.4743 0.4292
3867.601 0.6449 0.6218 0.5641 0.6518 0.6101 0.5766 0.5211 0.3626 0.3182 0.5702
3886.890 0.624 0.5097 0.383 0.336 0.4758 0.4524 0.3939 0.5665 0.6698 0.5568
3906.180 0.5315 0.5966 0.6336 0.5537 0.5718 0.6199 0.4382 0.4908 0.5555 0.5619
3925.470 0.8091 0.735 0.6309 0.9006 0.8702 0.8833 0.9734 0.689 0.6127 0.6226
3944.760 0.4814 0.4282 0.5895 0.6548 0.8205 0.8391 0.5758 0.5206 0.4561 0.444
3964.049 0.5522 0.6228 0.6109 0.6155 0.6448 0.6266 0.7948 0.7255 0.3797 0.4332
3983.339 0.5995 0.708 0.609 0.5362 0.7587 0.8669 0.7814 0.6617 0.6509 0.6491
##END=
