##TITLE=4-Fluoro-2-methoxyacetophenone
##JCAMP-DX=4.24
##DATA TYPE=INFRARED SPECTRUM
##ORIGIN=EPA-IR VAPOR PHASE LIBRARY
##OWNER=SRD/NIST
Collection (C) 2018 copyright by the U.S. Secretary of Commerce
on behalf of the United States of America. All rights reserved.
##CAS REGISTRY NO=51788-80-8
##MOLFORM=C 9 H 9 F O 2
##$NIST SOURCE=MSDC-IR
##STATE=gas
##XUNITS=1/CM
##YUNITS=ABSORBANCE
##XFACTOR=1.
##YFACTOR=0.001
##DELTAX=1.92898
##FIRSTX=549.8
##LASTX=4000.7
##FIRSTY=13.948
##MAXX=4000.7
##MINX=549.759
##MAXY=0.205918
##MINY=0
##NPOINTS=1790
##XYDATA=(X++(Y..Y))
549.759 13.948 13.598 13.398 13.888 15.068 15.418 14.818 14.428 14.948 15.448
569.049 15.568 16.368 16.728 16.018 15.718 15.678 14.988 13.858 12.968 12.478
588.339 12.268 11.418 10.678 10.788 11.168 11.438 10.808 9.688 9.548 10.148
607.628 10.178 10.158 9.818 10.238 11.078 11.378 11.628 11.438 10.958 10.158
626.918 9.078 8.238 7.328 6.858 6.538 6.158 5.508 4.508 4.218 3.928
646.208 2.918 2.358 2.278 2.098 2.398 2.218 1.2823 1.6199 2.028 1.7215
665.498 1.5071 1.3923 1.4927 1.5913 1.908 2.118 1.7334 1.4971 1.6565 1.7075
684.787 1.6807 2.438 2.998 2.348 1.7416 1.3822 1.2302 1.1891 1.563 1.7187
704.077 2.018 2.298 2.078 2.438 2.778 3.088 2.988 3.348 4.388 4.898
723.367 5.298 5.198 5.078 5.308 5.168 5.088 5.108 4.708 4.318 3.898
742.657 3.008 2.408 3.028 3.138 2.398 1.998 2.058 2.348 2.638 2.478
761.947 2.478 2.538 2.338 2.508 2.238 2.468 2.668 2.308 2.308 2.668
781.236 3.578 3.948 3.458 3.398 4.328 4.968 5.658 6.538 7.798 9.538
800.526 11.158 12.728 14.558 17.008 19.498 21.538 22.058 21.718 20.408 18.448
819.816 17.718 20.798 23.808 25.628 28.508 30.868 34.558 39.918 45.748 48.458
839.106 46.578 43.178 40.448 37.418 34.088 30.558 27.198 24.128 20.678 17.608
858.395 14.778 12.708 11.458 10.098 9.168 8.078 6.528 5.878 5.848 5.388
877.685 4.768 4.438 4.198 4.278 4.698 5.228 4.968 4.548 4.278 4.018
896.975 4.088 4.408 4.368 4.138 4.708 5.098 5.238 5.208 4.968 5.288
916.265 5.428 5.488 6.338 6.718 7.308 8.758 9.798 10.938 12.578 14.458
935.555 16.258 18.528 22.308 26.328 29.928 34.568 39.498 44.208 49.558 54.288
954.844 57.748 60.208 61.798 61.858 59.898 56.878 52.728 47.498 42.668 37.508
974.134 31.658 26.348 22.578 19.558 16.748 15.588 14.628 13.988 13.338 12.348
993.424 12.738 13.328 13.238 12.798 13.068 14.488 15.638 17.108 17.738 18.398
1012.714 20.688 23.758 27.818 31.808 35.468 39.128 42.488 45.608 49.288 52.328
1032.003 52.948 53.068 51.448 47.628 44.348 41.478 38.548 33.508 28.778 25.958
1051.293 23.348 21.838 21.308 21.368 22.338 23.228 23.618 21.998 21.368 21.818
1070.583 20.998 19.398 17.448 17.138 16.888 16.278 14.818 14.618 15.498 15.008
1089.873 14.228 15.328 17.558 20.488 22.858 25.118 31.688 39.468 49.598 60.808
1109.163 68.128 69.168 67.978 67.258 66.368 65.068 57.238 46.748 38.548 31.868
1128.452 26.398 23.558 23.928 26.938 30.228 34.538 42.388 51.458 60.438 71.688
1147.742 80.978 86.298 90.378 92.008 90.608 86.488 80.468 72.658 62.178 51.308
1167.032 43.218 36.158 32.238 29.978 27.558 28.208 30.168 32.178 34.298 36.528
1186.322 39.478 43.398 47.898 52.288 53.728 52.408 51.958 50.738 46.708 44.868
1205.611 43.038 40.818 41.168 44.468 48.228 52.848 60.918 69.718 79.418 88.618
1224.901 94.658 96.768 98.748 98.438 95.538 92.928 89.128 85.448 83.318 81.828
1244.191 83.768 90.168 98.938 109.058 121.478 135.438 149.538 162.058 171.368 177.998
1263.481 181.358 180.738 177.838 171.798 163.288 154.918 145.948 137.178 129.018 121.848
1282.771 115.348 108.218 100.808 92.148 81.788 71.718 62.518 54.078 46.418 39.838
1302.060 34.298 29.288 24.788 20.958 17.838 15.528 13.768 12.328 11.758 11.458
1321.350 11.108 11.098 11.208 11.318 11.508 11.958 12.628 13.348 14.038 15.228
1340.640 16.748 18.308 20.428 23.418 27.358 32.098 37.288 42.488 47.158 50.218
1359.930 51.838 52.218 51.018 48.728 44.768 39.438 33.998 29.368 26.628 25.318
1379.219 24.788 25.038 26.038 27.628 29.938 32.888 36.498 41.128 46.378 51.818
1398.509 57.758 64.218 70.248 75.568 79.888 82.838 84.138 83.468 80.988 76.808
1417.799 71.398 65.048 58.408 51.838 45.388 40.038 35.678 32.148 29.448 27.478
1437.089 25.958 25.178 25.198 25.658 26.598 28.218 30.588 33.358 36.718 40.318
1456.378 44.208 48.398 52.308 55.648 57.458 57.778 56.848 55.528 54.548 54.238
1475.668 54.308 54.388 54.928 56.508 59.278 63.318 68.118 72.168 74.518 75.068
1494.958 73.578 70.208 65.728 59.658 51.828 43.298 34.598 27.788 22.918 19.068
1514.248 16.578 15.128 14.318 13.668 13.168 12.668 12.318 12.258 12.268 12.628
1533.538 12.718 12.528 13.008 13.598 14.038 14.648 15.358 16.378 17.628 18.778
1552.827 20.578 22.168 23.508 25.918 28.168 30.238 32.888 36.358 40.438 44.958
1572.117 50.558 57.638 66.188 76.308 87.678 100.068 113.478 127.678 141.888 156.448
1591.407 170.768 183.958 195.198 203.028 205.918 204.348 198.978 189.998 178.088 163.328
1610.697 146.418 128.418 110.498 92.498 76.548 63.758 53.618 45.758 39.988 35.498
1629.986 31.878 29.208 26.978 25.128 23.858 22.608 21.708 21.348 20.838 20.238
1649.276 19.848 19.918 20.228 20.458 20.698 21.238 21.858 22.568 23.298 24.118
1668.566 25.638 27.138 29.128 31.798 34.768 38.878 44.308 50.458 59.208 70.358
1687.856 83.088 97.688 112.578 126.008 136.018 142.368 146.568 149.898 149.228 142.228
1707.146 129.528 114.138 98.558 84.718 73.228 64.008 56.418 50.268 44.988 40.718
1726.435 36.808 33.508 30.908 28.448 25.888 23.678 21.788 19.868 18.158 16.588
1745.725 15.198 13.898 12.728 11.808 10.978 10.098 9.368 8.638 8.068 7.718
1765.015 7.068 6.368 5.948 5.598 5.408 5.198 4.848 4.538 4.478 4.418
1784.305 4.428 4.408 4.088 4.078 4.168 3.978 3.648 3.518 3.568 3.608
1803.594 3.588 3.458 3.338 3.378 3.508 3.628 3.628 3.508 3.588 3.438
1822.884 3.218 3.348 3.468 3.268 3.208 3.328 3.178 3.018 2.898 2.738
1842.174 2.748 2.798 2.768 2.698 2.618 2.548 2.658 2.698 2.728 2.798
1861.464 2.858 2.968 3.118 3.288 3.438 3.618 3.588 3.598 3.668 3.778
1880.754 3.948 3.928 3.958 3.998 3.998 4.058 4.018 4.008 4.008 3.918
1900.043 3.848 3.838 3.738 3.668 3.488 3.238 3.248 3.148 3.038 3.278
1919.333 3.448 3.388 3.328 3.258 3.268 3.078 2.908 2.918 2.908 2.858
1938.623 2.708 2.818 2.858 2.968 3.108 3.118 3.008 2.788 2.938 3.038
1957.913 3.018 2.918 3.028 3.168 2.798 2.678 3.108 3.278 3.118 3.168
1977.202 3.358 3.248 2.958 2.928 3.158 3.448 3.528 3.378 3.208 3.338
1996.492 3.318 3.218 3.308 3.138 3.098 3.158 3.098 3.048 2.848 2.678
2015.782 2.728 2.868 2.718 2.498 2.518 2.478 2.378 2.478 2.478 2.328
2035.072 2.338 2.458 2.508 2.468 2.528 2.568 2.428 2.188 2.228 2.478
2054.362 2.628 2.768 2.688 2.588 2.548 2.538 2.578 2.618 2.568 2.608
2073.651 2.638 2.438 2.358 2.648 2.788 2.398 2.398 2.378 2.328 2.368
2092.941 2.158 2.148 2.218 2.378 2.458 2.478 2.578 2.438 2.288 2.348
2112.231 2.298 2.178 2.178 2.108 2.158 2.418 2.348 2.028 2.158 2.238
2131.521 2.198 2.188 2.318 2.328 2.198 2.458 2.488 2.288 2.388 2.308
2150.810 1.918 1.908 1.978 1.789 1.805 1.938 2.118 2.048 1.8113 1.858
2170.100 1.938 1.908 1.7764 1.888 2.268 2.178 1.7641 2.018 2.448 2.438
2189.390 2.288 2.188 2.208 2.388 2.178 2.008 2.268 2.418 2.468 2.358
2208.680 2.398 2.528 2.738 2.918 2.808 2.808 2.378 2.158 2.608 2.618
2227.970 2.548 2.778 2.788 2.538 2.558 2.688 2.648 2.468 2.238 2.078
2247.259 1.878 2.038 2.178 1.928 1.898 2.148 2.318 2.288 2.168 2.018
2266.549 1.968 1.858 1.7971 1.7789 1.7721 2.048 1.988 1.928 2.188 2.208
2285.839 2.128 2.288 2.298 2.018 1.928 2.088 2.258 2.248 2.298 2.598
2305.129 2.708 2.728 2.738 2.628 2.638 2.488 2.798 3.178 3.198 3.078
2324.418 2.938 2.758 2.818 2.868 2.648 2.688 2.538 2.208 2.428 2.898
2343.708 2.568 2.258 2.538 2.768 2.498 2.328 2.368 2.178 2.308 2.678
2362.998 2.528 2.238 2.158 2.108 2.178 2.088 2.068 2.258 2.288 2.218
2382.288 2.408 2.428 2.428 2.218 2.088 2.328 2.208 1.988 2.428 2.858
2401.578 2.648 2.608 2.678 2.558 2.328 2.398 2.568 2.548 2.648 2.778
2420.867 2.678 2.518 2.648 2.778 2.958 3.038 3.198 3.318 2.928 2.748
2440.157 3.158 3.198 2.868 2.528 2.108 2.558 2.908 2.218 1.968 2.098
2459.447 1.84 2.018 2.148 2.028 2.238 2.208 2.168 1.898 1.888 2.118
2478.737 2.028 2.108 2.288 2.648 2.528 2.208 2.298 2.298 2.428 2.388
2498.026 2.118 1.898 2.068 2.248 2.028 1.978 2.038 2.238 2.338 2.348
2517.316 2.278 2.338 2.478 2.398 2.248 2.368 2.408 2.118 2.028 2.148
2536.606 2.498 2.398 2.298 2.548 2.358 2.028 2.188 2.498 2.728 2.698
2555.896 2.438 2.528 2.408 2.238 2.528 2.558 2.528 2.718 2.748 2.538
2575.186 2.518 2.838 3.098 2.968 2.668 2.628 2.458 2.508 2.868 2.738
2594.475 2.208 2.008 2.378 2.488 2.318 2.578 2.768 2.588 2.498 2.578
2613.765 2.548 2.518 2.428 1.918 1.868 2.418 2.788 2.438 2.098 2.198
2633.055 1.968 2.178 2.408 2.368 2.358 2.368 2.408 2.348 2.728 2.678
2652.345 2.188 2.038 1.938 1.868 2.008 2.238 2.078 1.868 1.968 2.358
2671.634 2.258 2.028 2.158 2.198 2.108 1.878 2.058 2.318 2.448 2.558
2690.924 2.378 2.148 2.228 2.548 2.678 2.448 2.278 2.288 2.438 2.478
2710.214 2.408 2.398 2.418 2.618 2.558 2.118 1.7124 1.7478 1.978 1.878
2729.504 2.008 2.198 2.348 2.728 2.518 2.078 1.898 2.118 2.448 2.328
2748.794 2.318 2.498 2.268 2.388 2.898 2.798 2.898 3.048 2.758 2.208
2768.083 2.228 2.648 2.398 2.208 2.528 2.828 3.348 3.438 3.248 3.248
2787.373 3.298 3.608 3.238 2.748 2.838 3.048 3.328 3.408 3.558 3.548
2806.663 3.308 3.778 3.898 3.898 4.088 4.228 4.728 5.118 5.658 6.418
2825.953 6.578 6.908 7.478 8.038 8.748 9.448 10.748 11.518 11.868 12.568
2845.242 13.068 13.248 13.208 13.218 13.148 12.938 12.638 12.248 12.158 11.928
2864.532 11.618 11.998 12.328 12.288 12.308 12.708 13.018 13.238 12.798 12.058
2883.822 11.938 12.198 11.868 10.968 10.698 10.408 10.168 10.058 9.918 10.058
2903.112 10.648 10.718 10.498 10.858 11.598 12.478 12.678 13.218 14.058 14.758
2922.401 15.548 15.938 16.288 17.108 17.928 18.558 19.618 20.988 22.728 24.558
2941.691 25.868 27.418 29.178 30.318 31.358 31.568 31.198 31.268 31.288 30.568
2960.981 29.418 28.388 27.358 26.508 25.578 24.488 23.318 21.698 20.188 19.088
2980.271 18.568 18.248 16.858 15.998 15.618 15.088 15.448 15.818 16.238 17.318
2999.561 18.298 19.608 21.578 23.168 24.168 24.598 24.188 23.698 23.098 22.058
3018.850 20.488 18.648 16.418 13.868 12.348 11.408 10.288 9.468 8.968 8.458
3038.140 7.698 7.118 7.088 6.928 6.978 7.208 6.788 6.528 6.368 5.948
3057.430 5.398 5.128 5.238 5.118 5.098 5.348 5.558 5.168 5.158 5.538
3076.720 5.668 6.148 6.298 6.248 6.188 6.328 6.418 6.358 6.578 6.608
3096.009 6.288 6.248 6.308 5.378 4.968 4.648 3.898 3.728 3.888 3.728
3115.299 3.148 3.098 3.348 3.508 3.728 3.548 2.808 1.928 1.958 2.748
3134.589 2.798 2.608 2.178 1.6699 1.7729 2.098 2.368 2.498 2.228 1.561
3153.879 1.6108 1.8014 1.5538 1.7224 1.7469 1.725 1.4277 1.4536 1.7049 1.1789
3173.169 1.174 1.5607 1.706 2.058 2.188 1.6616 1.6793 1.4968 1.1207 1.6723
3192.458 1.4023 1.3508 1.7168 1.3205 1.5123 1.6845 1.3722 1.0919 1.1258 1.1842
3211.748 1.2301 1.6941 2.168 2.118 1.3205 0.93146 1.438 2.138 2.488 1.998
3231.038 1.3137 1.262 1.2785 0.7643 0.724 1.2896 1.2806 0.849974 0.971 1.18
3250.328 1.2548 1.2796 1.0035 1.1116 1.4645 1.5206 1.1233 0.7983 1.5622 1.7747
3269.617 1.3224 1.4299 1.8247 2.048 1.978 1.7693 1.8155 1.7715 1.2453 1.0973
3288.907 1.317 1.2284 1.2163 1.1316 0.92695 1.4396 1.5626 1.1517 1.3046 1.4974
3308.197 1.269 0.90031 0.86601 0.747 0.9687 1.436 1.2168 0.86456 0.437 0.7878
3327.487 1.2599 1.1369 1.15 0.9551 0.857596 1.2346 1.4752 1.1642 1.0802 1.2738
3346.777 1.2391 1.4166 1.1672 0.9495 1.1853 1.6787 1.5979 1.5397 2.028 2.388
3366.066 2.618 2.828 2.968 2.808 2.928 3.168 3.678 3.848 3.478 3.578
3385.356 3.428 2.598 2.598 2.368 1.868 1.6367 1.3272 1.7914 2.258 2.428
3404.646 2.538 2.198 1.6644 1.6929 2.008 1.7995 1.6017 1.5631 1.5322 1.1937
3423.936 1.3877 1.858 1.7553 1.3226 1.1932 1.4093 1.3883 1.7138 1.8305 1.6371
3443.225 1.4943 1.3581 1.327 1.1467 0.87277 1.3096 1.1925 0.422 0.399 0.7599
3462.515 1.1954 1.1694 1.161 1.1775 0.509 0.647 1.406 1.3568 1.1395 0.94521
3481.805 1.1619 1.4468 1.439 1.0375 0.9969 1.0095 0.88221 1.3436 1.1054 0.675
3501.095 0.486 0.89296 1.1891 1.0786 0.9508 0.7678 0.7626 1.1371 1.4428 1.2924
3520.385 1.6223 1.726 1.1251 0.471 0.7969 1.064 0.452 0.206 0.278 0.649
3539.674 0.553 0.855155 1.452 1.1653 0.729 0.45 1.1488 1.1858 0.309 0.4
3558.964 1.1644 1.3568 0.633 0.142 0.691 1.3615 1.3958 1.1273 0.7759 1.0504
3578.254 1.3385 1.0226 0.34 0.166 0.387 0.56 1.1534 1.1479 1.3736 1.7932
3597.544 1.0679 0.84351 1.1547 1.1599 1.1251 1.1293 0.92934 1.0879 1.4697 1.03
3616.833 0.685 0.8093 0.98 1.0738 0.853052 0.453 1.0031 1.6364 1.5144 1.0223
3636.123 0.86417 0.62 0.11 0.461 1.0559 1.2385 1.6533 1.858 1.3465 1.4823
3655.413 1.6703 1.2363 1.125 1.3605 1.2028 0.614 0.92026 1.4522 0.9497 0.688
3674.703 0.416 0.407 0.463 0.042 0.241 0.62 0.92441 0.93599 0.678 0.744
3693.993 1.007 1.2968 1.2689 1.3292 1.3568 1.2906 0.94317 0.497 1.1061 1.5128
3713.282 1.0865 1.0494 1.0323 0.721 0.385 0.534 0.93728 1.1214 1.7788 1.8324
3732.572 1.2399 1.3778 1.5968 1.1942 1.0902 1.1886 0.382 0.043 0.475 0.811
3751.862 0.8357 1.0711 1.5936 1.1274 1.07 1.4074 1.2072 1.5798 1.3981 0.725
3771.152 0.9915 0.88299 0.547 0.739 0.644 0.88184 0.636 0.7671 1.8074 1.7036
3790.441 1.2574 0.90455 0.21 0.708 1.4988 1.0443 0.421 0 0.228 0.7998
3809.731 0.361 0.133 0.9864 1.067 0.503 0.556 0.623 0.8271 1.4823 1.4668
3829.021 1.4615 1.848 1.554 0.86421 0.546 1.2553 1.3896 0.90743 1.2779 1.0684
3848.311 0.9688 1.2836 1.2559 0.93593 1.2205 1.5679 0.93144 0.676 1.0635 1.2283
3867.601 1.1232 0.7748 0.8139 1.0538 1.0881 1.2336 1.466 1.848 1.379 0.8089
3886.890 0.90315 1.0725 1.0759 0.8154 0.7718 0.8054 0.487 0.424 0.261 0.338
3906.180 0.739 0.56 0.651 1.0193 1.1843 1.4922 1.8192 1.8274 1.461 1.1669
3925.470 1.3366 1.0062 1.2462 1.6401 1.1602 1.1545 1.1034 0.93074 1.1422 1.3738
3944.760 1.2142 0.9662 0.93192 0.87085 1.0652 1.4812 1.3789 1.2411 0.7967 0.65
3964.049 1.0838 1.978 2.008 1.4546 1.5875 1.7246 1.5942 1.2492 0.828 0.438
3983.339 0.89435 1.1846 0.8269 1.1692 1.5767 1.6074 1.968 2.038 1.6683 1.4202
##END=
