##TITLE=3-Trifluoroacetyl-D-camphor
##JCAMP-DX=4.24
##DATA TYPE=INFRARED SPECTRUM
##ORIGIN=EPA-IR VAPOR PHASE LIBRARY
##OWNER=SRD/NIST
Collection (C) 2018 copyright by the U.S. Secretary of Commerce
on behalf of the United States of America. All rights reserved.
##CAS REGISTRY NO=51800-98-7
##MOLFORM=C 12 H 15 F 3 O 2
##$NIST SOURCE=MSDC-IR
##STATE=gas
##XUNITS=1/CM
##YUNITS=ABSORBANCE
##XFACTOR=1.
##YFACTOR=0.001
##DELTAX=1.92898
##FIRSTX=549.8
##LASTX=4000.7
##FIRSTY=8.08
##MAXX=4000.7
##MINX=549.759
##MAXY=0.39482
##MINY=0.0002807
##NPOINTS=1790
##XYDATA=(X++(Y..Y))
549.759 8.08 10.17 13.26 16.78 19.63 21.92 23.04 22.27 20.54 18.03
569.049 15.35 12.28 9.49 8.31 7.72 6.86 6.09 5.52 5.4 5.55
588.339 5.17 5.22 5.6 5.46 5.1 4.83 4.81 4.77 4.46 4.43
607.628 4.58 4.75 4.9 4.99 4.91 4.75 5.17 5.86 6.5 7.13
626.918 8.02 9.15 9.95 10.51 10.74 10.35 9.41 8.15 7.18 6.58
646.208 6.11 5.92 5.6 5.42 5.76 6.21 6.88 7.71 8.59 9.91
665.498 12.11 14.68 18.27 22.28 25.75 28.6 29.83 29.45 27.87 25.36
684.787 22.19 19.36 18.1 17.66 17.45 17.41 17.6 17.88 17.92 17.72
704.077 17.62 18.23 19.27 20.19 21.19 22.18 22.62 22.64 22.33 21.47
723.367 20.97 21.19 21.55 22.26 23.67 25.11 25.87 26.31 26.81 26.9
742.657 26.71 26.68 26.86 27.96 28.87 29.46 29.87 30.03 30.08 29.1
761.947 27.29 24.93 22.39 19.91 17.41 15.04 13.02 11.45 10.57 9.77
781.236 8.62 7.89 7.66 7.54 7.84 8.13 8.91 10.65 12.92 16.11
800.526 20.17 24.29 27.77 30.5 31.91 32.03 30.89 28.38 25.31 22.39
819.816 19.42 16.54 14.43 12.71 11.38 10.48 9.77 9.55 9.34 9.13
839.106 9.15 8.98 8.9 9.17 9.36 9.23 9.07 9.09 8.8 8.24
858.395 7.91 8.03 8.5 8.78 8.86 9.25 9.16 8.72 8.5 8.22
877.685 7.92 7.76 7.7 7.19 6.53 6.67 6.99 7.08 7.3 7.42
896.975 7.69 8.15 8.34 8.68 9.35 10.29 11.53 12.69 13.8 14.85
916.265 15.38 15.49 15.18 14.34 13.28 12.29 10.93 9.92 10.03 9.91
935.555 9.34 9.11 9.05 8.73 8.26 7.85 7.68 7.6 7.49 7.17
954.844 6.86 6.92 7 7.07 6.99 7.06 7.25 7.07 7.11 7.29
974.134 7.37 7.33 7.49 8.02 8.6 9.49 10.21 11.04 12.3 13.56
993.424 15.23 17.47 19.83 21.93 23.47 24 23.99 23.89 23.1 22.18
1012.714 21.99 22.3 24.04 27.03 30.37 35.19 41.32 48.01 55.2 62.42
1032.003 68.99 73.77 75.52 74.62 71.75 67.49 61.85 56.27 51.95 48.33
1051.293 46.53 47.03 49.35 53.45 58.98 65.62 72.65 79.85 87.36 92.52
1070.583 93.99 92.62 87.96 80.31 70.55 59.28 49.76 42.26 36.63 33.37
1089.873 31.7 30.67 30.8 33.29 36.14 39.08 42.93 46.45 49.12 50.74
1109.163 50.09 48.24 46.88 45.18 43.97 44.39 46.11 49.3 53.27 56.64
1128.452 60.67 66.18 72.07 78.22 84.87 94.05 105.55 119.12 135.89 157.8
1147.742 182.89 211 242.51 273.55 302.32 324.86 340.36 346.89 343.46 334.39
1167.032 321.05 304.44 287.59 270.79 254.04 238.91 228.99 226.61 232.13 246.95
1186.322 272.02 304.6 340.56 371.69 391.41 394.82 380.79 355.65 322.7 286.67
1205.611 253.9 228.6 212.38 205.75 208.56 218.79 232.62 246.83 257.21 260.04
1224.901 253.37 237.54 215.22 188.11 159.72 135.76 119.54 109.65 104.29 102.64
1244.191 103.61 108.18 116.82 129.39 147.03 170.09 196.37 223.88 248.36 266.15
1263.481 274.4 271.11 258.33 237.53 212.32 187.05 164.93 147.34 133.16 121.3
1282.771 110.88 101.22 92.49 85.11 79.04 74.12 70.55 68.53 68.07 69.6
1302.060 74.23 82.98 96.32 113.83 134.09 154.55 171.34 180.73 181.31 172.76
1321.350 156.7 135.59 112.29 90.75 73.86 62.62 55.77 51.94 50.35 50.15
1340.640 50.84 52.16 53.7 55.13 56.31 57.02 57.24 57.23 56.96 56.67
1359.930 56.61 56.74 57.25 58.26 59.89 62.5 65.62 68.46 70.74 72.33
1379.219 73.14 72.87 71.04 68.3 65.54 62.76 59.61 56.42 53.55 50.66
1398.509 47.12 42.83 38.48 34.28 30.6 27.66 25.43 23.73 22.49 21.68
1417.799 21.15 20.68 20.24 20.09 20.08 20.14 20.42 20.73 21.27 22.02
1437.089 22.96 24.2 25.67 27.38 29.18 31.02 32.96 34.74 36.1 36.94
1456.378 37.29 37.13 36.4 35.23 33.91 32.78 31.79 31.11 31.04 31.06
1475.668 31.19 31.38 31.1 30.37 29.04 27.07 24.83 22.7 20.69 18.87
1494.958 17.29 15.99 15.2 14.58 14.06 13.72 13.42 13.27 13.11 12.76
1514.248 12.42 12.25 12.11 11.97 11.7 11.29 11.05 10.78 10.58 10.35
1533.538 10.06 9.98 9.97 9.86 9.69 9.66 9.75 9.81 9.93 10.08
1552.827 10.27 10.48 10.57 10.59 10.89 11.27 11.47 11.61 11.71 11.78
1572.117 11.97 12.13 12.09 12.2 12.15 11.91 11.79 11.7 11.63 11.62
1591.407 11.68 11.77 11.82 11.94 12.26 12.53 12.98 13.57 14.14 14.75
1610.697 15.47 16.39 17.62 19.06 20.44 21.98 23.65 25.45 27.47 29.6
1629.986 31.99 34.55 37.04 39.87 43.17 46.91 51.01 55.18 59.4 63.68
1649.276 67.74 70.88 72.94 73.5 72.32 69.21 64.3 58.37 52.07 45.95
1668.566 40.89 37.24 35.14 34.2 34.33 35.36 37.44 40.55 45 50.87
1687.856 58.24 67.76 79.75 94.27 112.13 132.4 153.34 175.21 193.41 206.88
1707.146 213.2 211.19 200.53 182.7 159.44 133.93 109.12 88 70.79 57.51
1726.435 47.59 40.48 35.74 32.71 30.91 30.29 30.62 31.46 32.65 33.98
1745.725 34.92 35.26 34.65 33.05 30.73 27.98 25.25 23.11 21.76 21.27
1765.015 21.72 22.94 24.87 27.22 29.71 31.84 33.22 33.73 33.08 31.28
1784.305 28.59 25.19 21.72 18.52 15.65 13.25 11.46 10.09 9 8.08
1803.594 7.45 6.98 6.56 6.15 5.86 5.69 5.4 5.15 4.95 4.79
1822.884 4.64 4.61 4.56 4.41 4.32 4.31 4.25 4.2 4.29 4.3
1842.174 4.27 4.24 4.26 4.25 4.16 3.95 3.8 3.85 3.73 3.57
1861.464 3.62 3.66 3.57 3.44 3.36 3.32 3.24 3.13 3.12 3.09
1880.754 2.98 2.95 2.96 2.89 2.81 2.82 2.75 2.63 2.62 2.68
1900.043 2.74 2.7 2.73 2.82 2.78 2.83 2.84 2.68 2.67 2.72
1919.333 2.7 2.65 2.6 2.68 2.62 2.37 2.32 2.37 2.39 2.44
1938.623 2.55 2.51 2.47 2.5 2.44 2.41 2.4 2.47 2.56 2.56
1957.913 2.53 2.51 2.55 2.45 2.46 2.5 2.39 2.37 2.35 2.27
1977.202 2.2 2.19 2.11 2.09 2.07 2.04 2.17 2.25 2.28 2.28
1996.492 2.3 2.33 2.35 2.39 2.27 2.19 2.2 2.14 2.02 1.91
2015.782 1.95 2.03 1.98 1.84 1.82 1.87 1.96 1.95 1.89 1.9
2035.072 1.83 1.81 1.77 1.76 1.75 1.71 1.71 1.77 1.82 1.85
2054.362 1.9 1.83 1.81 1.82 1.82 1.92 1.95 1.92 1.89 1.9
2073.651 1.93 1.89 1.88 1.85 1.69 1.64 1.7 1.73 1.73 1.74
2092.941 1.74 1.72 1.71 1.72 1.73 1.74 1.8 1.86 1.87 1.74
2112.231 1.68 1.73 1.69 1.72 1.69 1.71 1.74 1.68 1.68 1.6
2131.521 1.64 1.69 1.59 1.74 1.88 1.76 1.73 1.8 1.84 1.85
2150.810 1.87 1.87 1.92 1.89 1.88 1.94 1.93 2.1 2.09 2.05
2170.100 2.03 2.02 2.07 2.05 2.03 1.96 2.05 2.08 2.02 2.08
2189.390 2.09 2.07 2.02 1.99 1.98 1.98 1.96 1.96 2.07 2.06
2208.680 1.99 2.08 2.13 2.03 1.89 1.87 1.98 1.96 2.03 2.07
2227.970 1.89 1.85 1.85 1.85 1.89 1.82 1.84 1.97 1.99 2
2247.259 2.01 2.01 2.01 1.99 2.03 2.11 2.24 2.27 2.14 2.09
2266.549 2.11 2.09 2.19 2.27 2.35 2.36 2.38 2.55 2.71 2.8
2285.839 2.85 2.93 2.92 3.02 3.18 3.25 3.23 3.2 3.23 3.24
2305.129 3.2 3.14 3.15 3.11 3.09 3.27 3.36 3.19 3.03 3.02
2324.418 3.07 3.16 3.16 3.17 3.16 3.17 3.23 3.26 3.32 3.3
2343.708 3.22 3.09 2.98 3.04 3.11 3.1 3.02 2.99 3.02 2.9
2362.998 2.89 3.01 3.01 2.94 2.92 2.89 2.86 2.87 2.87 2.96
2382.288 2.87 2.75 2.85 2.91 2.78 2.7 2.7 2.6 2.57 2.53
2401.578 2.51 2.55 2.44 2.41 2.54 2.61 2.62 2.56 2.49 2.6
2420.867 2.68 2.71 2.65 2.57 2.58 2.64 2.73 2.74 2.84 3.02
2440.157 3.07 2.94 2.85 2.92 2.95 3.08 3.13 3.01 3.04 3.09
2459.447 3.13 3.1 2.96 2.88 2.98 3.09 3.05 2.99 2.98 2.91
2478.737 2.83 2.89 3.05 2.95 2.75 2.84 2.96 2.97 2.96 2.98
2498.026 3.04 3.09 3.02 3.05 3.18 3.32 3.34 3.26 3.22 3.18
2517.316 3.11 3.15 3.27 3.26 3.2 3.19 3.28 3.28 3.22 3.27
2536.606 3.34 3.27 3.15 3.16 3.19 3.21 3.18 3.15 3.29 3.44
2555.896 3.35 3.19 3.19 3.19 3.15 3.23 3.3 3.27 3.34 3.36
2575.186 3.26 3.18 3.08 3.12 3.08 3.11 3.23 3.27 3.23 3.22
2594.475 3.23 3.13 3.1 3.04 3.12 3.17 3.05 3.07 3.09 2.95
2613.765 3.07 3.21 3.17 3.21 3.21 3.22 3.42 3.48 3.26 3.22
2633.055 3.36 3.4 3.35 3.36 3.46 3.56 3.59 3.66 3.73 3.71
2652.345 3.7 3.83 3.94 3.88 3.93 4.11 4.05 4.02 4.04 4.02
2671.634 4.14 4.2 4.24 4.32 4.44 4.63 4.69 4.64 4.62 4.74
2690.924 4.76 4.59 4.52 4.49 4.47 4.54 4.57 4.58 4.53 4.5
2710.214 4.63 4.72 4.65 4.5 4.52 4.67 4.77 4.82 4.83 4.96
2729.504 5.22 5.45 5.53 5.67 5.9 6.15 6.58 6.84 6.7 6.68
2748.794 6.78 6.74 6.57 6.21 5.93 5.88 5.64 5.61 5.75 5.65
2768.083 5.71 5.76 5.58 5.77 6.07 6.07 6.06 5.98 5.93 6.01
2787.373 6.22 6.37 6.54 6.58 6.47 6.55 6.7 6.86 6.89 6.95
2806.663 7.15 7.34 7.51 7.59 7.69 7.76 7.82 7.89 8.06 8.34
2825.953 8.5 8.78 9.03 9.17 9.29 9.41 9.61 9.85 10.03 10.26
2845.242 10.6 10.83 11.09 11.61 12.19 12.82 13.61 14.5 15.61 17.05
2864.532 18.62 20.69 23.48 26.74 30.77 35.55 40.42 45.1 49.39 52.74
2883.822 55.13 56.4 56.35 55.64 54.59 53.23 51.75 50.25 48.93 47.49
2903.112 45.98 44.94 44.24 43.91 44.24 44.9 45.85 47.25 49.01 51.39
2922.401 54.18 57.07 60.41 64.43 69.19 73.9 78.22 81.88 84.01 84.47
2941.691 83.33 81.2 79.14 77.79 77.89 79.82 83.63 88.75 95.22 103.48
2960.981 113.16 124.95 139.4 155.85 172.55 186.21 193.02 191.43 181.22 163.1
2980.271 140.03 116.21 95.69 80.84 71.56 66.78 64.79 63.83 62.47 60.04
2999.561 56.86 52.51 47.15 41.56 36.08 31 26.51 23.06 20.24 18.04
3018.850 16.5 15.3 14.44 13.84 13.34 12.79 12.27 12 11.75 11.64
3038.140 11.62 11.21 10.93 11.04 11 10.95 10.87 10.92 11.09 10.99
3057.430 10.86 10.84 10.79 10.8 10.92 10.99 10.94 10.88 10.82 10.88
3076.720 11.01 11.07 10.99 11.09 11.23 11.23 11.19 11.15 11.15 11.08
3096.009 11.22 11.27 11.13 11.13 11.06 10.97 11 10.93 10.99 11.19
3115.299 10.97 10.82 11.04 10.87 10.8 10.76 10.53 10.77 11.02 10.94
3134.589 10.74 10.65 10.68 10.63 10.46 10.42 10.49 10.35 10.18 10.3
3153.879 10.19 10.05 10.06 9.73 9.56 9.63 9.71 9.74 9.69 9.67
3173.169 9.79 9.71 9.51 9.35 9.24 9.36 9.3 9.21 9.17 8.98
3192.458 8.89 8.78 8.53 8.64 8.87 8.76 8.62 8.53 8.34 8.18
3211.748 8.35 8.35 8.27 8.27 8.11 7.96 7.96 8.08 8 7.88
3231.038 7.72 7.46 7.58 7.66 7.58 7.62 7.45 7.28 7.17 7.19
3250.328 7.28 7.26 7.43 7.36 7.15 7.19 7.11 6.92 6.87 6.87
3269.617 6.8 6.72 6.87 7.04 6.95 6.92 6.72 6.61 6.76 6.81
3288.907 6.58 6.49 6.65 6.71 6.71 6.8 6.74 6.58 6.63 6.85
3308.197 6.99 6.82 6.84 7.08 7.08 6.98 6.88 6.82 6.7 6.58
3327.487 6.73 6.76 6.57 6.41 6.37 6.43 6.36 6.4 6.53 6.29
3346.777 6.11 6.14 6.03 6.07 5.96 5.86 5.83 5.58 5.27 5.22
3366.066 5.37 5.38 5.19 4.86 4.82 4.82 4.92 4.84 4.57 4.52
3385.356 4.53 4.61 4.53 4.53 4.62 4.57 4.47 4.52 4.55 4.52
3404.646 4.65 4.49 4.37 4.41 4.15 3.88 3.89 3.91 3.98 3.91
3423.936 3.67 3.57 3.32 3.15 3.16 3.02 2.95 2.88 2.78 2.91
3443.225 2.96 2.89 2.89 2.71 2.72 2.69 2.4 2.42 2.48 2.46
3462.515 2.41 2.33 2.36 2.46 2.4 2.33 2.42 2.33 2.31 2.54
3481.805 2.53 2.2 2.04 2.15 2.19 2.21 2.04 1.89 2.09 2.14
3501.095 1.88 1.63 1.61 1.95 2.22 1.87 1.67 1.64 1.56 1.61
3520.385 1.5 1.5 1.53 1.5 1.47 1.49 1.62 1.66 1.68 1.72
3539.674 1.61 1.53 1.46 1.28 1.33 1.51 1.52 1.37 1.33 1.32
3558.964 1.37 1.35 1.18 1.19 1.24 1.26 1.26 1.19 1.13 1.17
3578.254 1.04 0.8725 0.8919 0.8338 0.8516 0.8957 0.9275 0.9058 0.8473 0.993
3597.544 1.05 1.09 0.9591 0.9646 1.03 0.7279 0.6277 0.6746 0.6792 0.71
3616.833 0.711 0.703 0.7689 0.8978 0.8727 0.8378 0.808 0.6704 0.6748 0.8934
3636.123 1.02 0.8117 0.4947 0.4359 0.799 0.8885 0.7032 0.7008 0.5852 0.6857
3655.413 0.6863 0.6207 0.8041 0.7118 0.6699 0.6029 0.3945 0.51 0.8956 0.8628
3674.703 0.5348 0.5151 0.6223 0.4086 0.4415 0.631 0.5644 0.7001 0.8782 0.7129
3693.993 0.5898 0.7009 0.7816 0.8374 0.8343 0.7803 0.5785 0.3259 0.4714 0.4293
3713.282 0.564 0.7772 0.5917 0.6957 0.712 0.7768 0.7388 0.5867 0.6199 0.6798
3732.572 0.6172 0.4282 0.4499 0.5922 0.4538 0.3178 0.4042 0.5055 0.6319 0.6288
3751.862 0.5216 0.6733 0.7896 0.6975 0.5085 0.4503 0.5639 0.4544 0.3442 0.4134
3771.152 0.3738 0.4649 0.6264 0.6527 0.7741 0.8098 0.6669 0.5813 0.4143 0.5972
3790.441 0.8934 0.6207 0.5049 0.492 0.5127 0.7404 0.7995 0.6366 0.4994 0.4268
3809.731 0.4058 0.5866 0.6879 0.4677 0.4005 0.4612 0.5177 0.6787 0.5875 0.453
3829.021 0.5685 0.7336 0.6079 0.5822 0.6433 0.7462 0.9094 0.7575 0.3685 0.2807
3848.311 0.5099 0.5413 0.3509 0.4603 0.754 0.7391 0.6193 0.7407 0.978 0.902
3867.601 0.8457 0.7663 0.8493 0.7916 0.5322 0.7602 0.8912 0.8192 0.8566 0.7792
3886.890 0.8298 0.9609 1.06 0.9538 0.6658 0.6881 0.8232 0.7136 0.6099 0.6653
3906.180 0.6521 0.7409 0.7416 0.5491 0.6107 0.7237 0.6869 0.7204 0.7412 0.7657
3925.470 0.8232 0.7785 0.7281 0.5888 0.508 0.5423 0.5187 0.5914 0.6444 0.5855
3944.760 0.4882 0.4916 0.5864 0.6675 0.7615 0.6404 0.5218 0.6235 0.7186 0.7948
3964.049 0.766 0.7695 0.7248 0.422 0.3297 0.4502 0.526 0.6505 0.6592 0.6762
3983.339 0.6113 0.4878 0.4793 0.4035 0.3749 0.4906 0.6567 0.6499 0.5929 0.602
##END=
