##TITLE=Triphenylmethane
##JCAMP-DX=4.24
##DATA TYPE=INFRARED SPECTRUM
##ORIGIN=NIST Mass Spectrometry Data Center
##OWNER=NIST Standard Reference Data Program
Collection (C) 2018 copyright by the U.S. Secretary of Commerce
on behalf of the United States of America. All rights reserved.
##CAS REGISTRY NO=519-73-3
##MOLFORM=C 19 H 16
##$NIST SOURCE=MSDC-IR
##SPECTROMETER/DATA SYSTEM=HP-GC/MS/IRD
##STATE=gas
##XUNITS=1/CM
##YUNITS=ABSORBANCE
##XFACTOR=1.0
##YFACTOR=0.000002000
##DELTAX=4.0
##FIRSTX=550.0
##LASTX=3846.0
##FIRSTY=0.000112
##MAXX=3846
##MINX=550
##MAXY=0.02
##MINY=0
##NPOINTS=825
##XYDATA=(X++(Y..Y))
550.0 56 42 10 2 27 68 79 55 91 207
590.0 364 731 1852 3300 3841 2903 1612 1149 961 691
630.0 435 289 263 322 426 581 793 1020 1210 1446
670.0 1656 1810 1980 2333 3271 5278 8114 10000 9473 7182
710.0 4912 3713 3483 3722 3948 3779 3204 2886 3238 3926
750.0 4126 3422 2260 1281 756 525 407 346 295 268
790.0 265 253 263 274 278 320 375 387 334 255
830.0 216 203 190 174 156 168 204 241 238 200
870.0 158 135 131 124 142 145 124 115 143 213
910.0 278 306 270 192 120 86 83 87 92 98
950.0 83 101 127 114 108 108 105 107 106 111
990.0 117 147 221 278 268 226 255 382 659 1245
1030.0 1757 1675 1087 498 250 204 203 233 296 419
1070.0 603 778 806 635 415 273 209 190 176 172
1110.0 174 155 126 88 68 63 50 39 46 46
1150.0 39 41 51 83 122 158 218 303 354 353
1190.0 325 262 202 154 117 120 139 147 145 169
1230.0 224 274 301 304 283 269 272 265 251 232
1270.0 214 200 201 225 240 236 235 235 243 252
1310.0 264 276 274 279 290 292 278 237 194 160
1350.0 133 113 102 120 143 169 191 193 179 154
1390.0 144 155 152 145 150 159 174 207 253 313
1430.0 402 578 890 1301 1715 1840 1573 1158 846 721
1470.0 716 759 890 1271 2143 3496 4449 4091 2699 1365
1510.0 705 463 350 299 282 298 302 291 273 246
1550.0 227 227 246 284 338 419 550 747 1019 1401
1590.0 1922 2433 2577 2185 1521 968 637 426 302 236
1630.0 210 189 165 153 148 144 162 190 204 199
1670.0 167 138 120 97 83 84 84 81 90 102
1710.0 97 94 100 111 127 138 151 172 209 254
1750.0 290 292 253 216 210 219 229 243 261 309
1790.0 416 544 620 588 475 358 284 249 223 196
1830.0 169 143 127 123 122 120 122 134 160 221
1870.0 297 357 401 416 417 412 365 286 202 143
1910.0 123 128 149 180 231 318 435 536 567 536
1950.0 488 444 382 277 164 95 74 68 66 65
1990.0 53 44 45 39 25 27 34 34 30 31
2030.0 30 26 32 28 18 13 19 23 18 22
2070.0 25 16 15 16 19 18 17 21 14 14
2110.0 15 13 12 3 0 8 13 9 5 10
2150.0 16 14 15 23 22 22 26 25 26 30
2190.0 31 27 24 23 27 32 33 30 34 27
2230.0 16 20 21 24 22 20 27 33 35 29
2270.0 30 27 19 24 28 21 19 30 46 70
2310.0 92 94 73 58 62 63 71 81 82 70
2350.0 58 50 50 52 53 49 43 41 40 38
2390.0 39 33 28 36 44 46 46 52 52 49
2430.0 47 48 44 45 49 42 34 34 36 37
2470.0 34 33 37 33 32 37 43 39 35 46
2510.0 48 36 23 27 34 32 27 33 37 40
2550.0 35 31 33 31 34 33 47 61 61 65
2590.0 55 51 57 57 54 42 38 44 43 44
2630.0 54 51 44 38 34 33 32 32 25 19
2670.0 22 21 19 14 11 16 15 5 6 13
2710.0 16 14 10 11 15 24 27 28 30 26
2750.0 32 36 32 34 40 48 56 63 62 64
2790.0 58 44 41 34 32 49 52 54 66 67
2830.0 76 91 91 89 95 111 133 149 157 181
2870.0 225 300 428 619 823 861 720 534 387 300
2910.0 242 212 200 191 177 163 163 162 163 164
2950.0 157 152 149 148 166 174 177 201 230 265
2990.0 312 388 506 650 827 1071 1456 2096 3051 4129
3030.0 4859 4791 4061 3281 2865 2832 3135 3923 5281 6734
3070.0 7264 6409 4921 3923 3534 3160 2587 2011 1605 1330
3110.0 1103 845 600 423 299 246 222 193 174 169
3150.0 171 170 167 162 155 133 104 90 70 61
3190.0 60 59 61 43 33 33 33 31 21 23
3230.0 34 47 42 30 28 32 40 37 32 36
3270.0 31 17 21 38 46 34 23 19 15 14
3310.0 31 43 30 14 11 12 12 11 15 22
3350.0 18 17 30 35 22 17 19 21 24 27
3390.0 24 13 6 14 19 15 17 14 4 20
3430.0 30 21 16 19 25 19 19 29 34 40
3470.0 32 22 18 9 8 14 17 22 26 20
3510.0 19 25 29 28 36 23 11 20 24 17
3550.0 14 25 34 42 37 34 43 42 38 23
3590.0 5 11 25 29 26 31 39 34 47 52
3630.0 47 49 52 70 84 85 78 67 64 56
3670.0 59 69 68 64 80 88 77 83 71 61
3710.0 54 50 62 56 53 40 46 63 56 52
3750.0 39 43 48 50 51 30 25 32 37 30
3790.0 26 35 34 34 47 50 46 46 39 32
3830.0 38 47 43 37 50
##END=
