##TITLE=4-Isothiocyanatobenzenesulfonamide
##JCAMP-DX=4.24
##DATA TYPE=INFRARED SPECTRUM
##ORIGIN=EPA-IR VAPOR PHASE LIBRARY
##OWNER=SRD/NIST
Collection (C) 2018 copyright by the U.S. Secretary of Commerce
on behalf of the United States of America. All rights reserved.
##CAS REGISTRY NO=51908-29-3
##MOLFORM=C 7 H 6 N 2 O 2 S 2
##$NIST SOURCE=MSDC-IR
##STATE=gas
##XUNITS=1/CM
##YUNITS=ABSORBANCE
##XFACTOR=1.
##YFACTOR=0.001
##DELTAX=1.92898
##FIRSTX=549.8
##LASTX=4000.7
##FIRSTY=4.588
##MAXX=4000.7
##MINX=549.759
##MAXY=0.046778
##MINY=0
##NPOINTS=1790
##XYDATA=(X++(Y..Y))
549.759 4.588 4.568 4.198 3.818 3.338 2.948 2.708 2.298 2.168 2.308
569.049 2.368 2.368 2.528 2.238 2.098 2.468 2.358 2.298 2.208 2.108
588.339 2.618 2.918 2.888 3.248 3.468 3.548 3.928 4.498 5.138 5.678
607.628 6.288 7.058 7.578 8.038 8.338 8.218 7.998 7.758 7.518 7.408
626.918 7.118 6.558 6.358 6.078 5.828 5.648 5.048 4.558 4.338 4.018
646.208 3.738 3.498 3.138 2.938 2.638 2.508 2.648 2.578 2.538 2.438
665.498 2.248 2.228 2.278 2.168 2.178 2.218 2.088 2.038 2.098 2.178
684.787 2.228 2.198 2.318 2.318 2.168 2.258 2.278 2.188 2.068 2.158
704.077 2.208 2.048 2.148 2.228 2.108 2.098 2.018 1.918 1.938 2.188
723.367 2.488 2.458 2.588 2.878 3.218 3.788 4.478 5.278 6.188 6.748
742.657 6.918 6.908 6.618 6.088 5.088 4.298 3.738 3.118 2.708 2.518
761.947 2.458 2.378 2.248 2.158 2.258 2.148 2.178 2.298 2.168 2.078
781.236 1.928 1.818 1.898 2.048 2.048 2.018 2.188 2.378 2.558 2.628
800.526 2.728 2.818 2.788 2.928 3.008 3.118 3.548 3.898 4.148 4.488
819.816 4.808 5.188 5.678 6.198 6.828 7.398 7.768 8.218 8.448 8.238
839.106 8.148 8.148 8.208 8.248 8.348 8.718 9.058 9.158 9.268 9.278
858.395 9.118 9.018 8.438 7.948 7.468 6.528 5.918 5.488 4.838 4.378
877.685 4.078 3.568 3.198 2.938 2.748 2.538 2.248 2.098 1.988 1.878
896.975 1.758 1.888 1.988 1.878 1.838 1.588 1.448 1.618 1.688 1.778
916.265 1.848 1.798 1.898 1.908 1.778 1.858 1.998 1.938 1.998 2.228
935.555 2.298 2.308 2.268 2.428 2.628 2.628 2.728 2.578 2.338 2.118
954.844 1.798 1.718 1.618 1.488 1.368 1.144 1.0515 0.9588 0.838 0.8793
974.134 0.7457 0.5551 0.6808 0.78 0.8543 0.8688 0.8279 0.8048 0.7617 0.6895
993.424 0.6109 0.6398 0.7172 0.6729 0.5465 0.5977 0.6344 0.4318 0.4647 0.6903
1012.714 0.9144 1.0562 0.8813 0.5781 0.5278 0.6416 0.4979 0.59 0.9367 1.0586
1032.003 0.8746 0.6569 0.5088 0.5599 0.6675 0.5469 0.29035 0.2321 0.2324 0.24372
1051.293 0.4903 0.4444 0.5433 0.6471 0.5604 0.4279 0.34465 0.4353 0.31261 0.5268
1070.583 0.7041 0.4329 0.5991 1.1678 1.278 1.2154 1.1898 1.0838 1.708 2.298
1089.873 2.138 1.978 2.228 2.838 2.948 2.448 2.438 2.458 2.138 2.018
1109.163 1.988 1.828 1.458 1.0195 1.0564 1.348 1.498 1.588 1.1427 0.98
1128.452 1.1995 1.0632 0.7471 0.7885 0.8666 0.9533 1.0752 0.9382 1.0067 1.318
1147.742 1.508 1.608 1.868 2.258 2.808 3.618 4.888 6.268 8.298 11.328
1167.032 14.828 18.458 20.678 21.488 21.728 20.628 18.058 15.368 13.148 11.118
1186.322 9.238 7.398 5.928 4.768 3.918 3.118 2.648 2.448 1.968 1.918
1205.611 1.848 1.588 1.548 1.428 1.1837 1.368 1.408 1.1914 1.478 1.508
1224.901 1.318 1.288 1.0795 1.0057 0.9817 1.0528 0.9379 0.9734 1.2255 1.348
1244.191 1.438 1.538 1.588 1.588 1.788 2.078 2.228 2.128 2.128 2.388
1263.481 2.338 1.908 1.848 1.918 1.878 1.818 1.878 1.908 1.798 1.638
1282.771 1.648 1.778 1.568 1.478 1.428 1.308 1.338 1.318 1.308 1.358
1302.060 1.298 1.1668 1.1565 1.1389 1.0938 1.031 0.9706 0.888 0.8465 1.0083
1321.350 1.0659 1.0059 1.0206 1.0333 1.0897 1.1885 1.224 1.2315 1.328 1.438
1340.640 1.528 1.658 1.928 2.138 2.368 2.558 2.728 3.058 3.418 3.778
1359.930 4.168 4.648 5.218 5.848 6.578 7.388 8.238 9.068 9.928 10.738
1379.219 11.338 11.708 11.848 11.668 11.198 10.628 9.848 8.898 7.898 6.948
1398.509 6.048 5.268 4.568 3.908 3.408 2.998 2.618 2.338 2.098 1.758
1417.799 1.458 1.368 1.338 1.1806 1.1164 1.1154 0.9689 0.8951 0.8941 0.8127
1437.089 0.7703 0.802 0.8166 0.7907 0.7593 0.7386 0.7218 0.6976 0.7109 0.7284
1456.378 0.6343 0.6598 0.8178 0.8605 0.9154 0.9715 1.0635 1.1607 1.1938 1.348
1475.668 1.668 2.128 2.688 3.158 3.548 3.908 4.048 4.078 4.058 3.888
1494.958 3.608 3.328 3.078 2.758 2.408 1.958 1.528 1.438 1.318 1.2285
1514.248 1.1915 1.0637 1.0869 1.1287 1.2377 1.348 1.348 1.448 1.578 1.658
1533.538 1.758 1.898 2.038 2.098 2.268 2.538 2.728 2.928 3.108 3.298
1552.827 3.398 3.388 3.378 3.288 3.348 3.508 3.568 3.718 3.908 4.038
1572.117 4.278 4.538 4.668 4.968 5.378 5.898 6.558 7.248 7.808 8.218
1591.407 8.438 8.338 7.868 6.978 5.988 5.038 4.208 3.628 3.068 2.638
1610.697 2.428 2.148 1.888 1.608 1.528 1.498 1.318 1.2023 1.2282 1.248
1629.986 1.1328 1.0219 0.9539 0.8747 0.8562 0.8196 0.8099 0.8352 0.6875 0.5934
1649.276 0.6547 0.6405 0.4922 0.5379 0.641 0.675 0.7044 0.6884 0.724 0.6637
1668.566 0.4869 0.4437 0.479 0.4814 0.5144 0.4981 0.4658 0.4194 0.32252 0.3527
1687.856 0.4557 0.4595 0.4678 0.4635 0.4137 0.34101 0.28829 0.30382 0.31973 0.33241
1707.146 0.3577 0.3578 0.3571 0.3965 0.3698 0.3539 0.3967 0.3979 0.3812 0.4091
1726.435 0.3935 0.3887 0.3577 0.29216 0.29913 0.3876 0.3896 0.3497 0.4482 0.5243
1745.725 0.5077 0.4718 0.4096 0.34319 0.4016 0.4646 0.4487 0.4662 0.5121 0.5202
1765.015 0.506 0.4997 0.5157 0.5384 0.5947 0.6171 0.6104 0.6441 0.5805 0.567
1784.305 0.6734 0.6429 0.6033 0.6118 0.5981 0.5989 0.6333 0.6364 0.6678 0.6585
1803.594 0.5771 0.5884 0.6105 0.6711 0.7322 0.7256 0.7461 0.7358 0.711 0.7907
1822.884 0.7849 0.7526 0.8596 0.8903 0.8804 0.9064 0.9025 0.8586 0.8323 0.8501
1842.174 0.8474 0.8777 0.9531 0.9715 1.0167 1.0562 0.9955 1.0046 1.0577 1.0537
1861.464 1.0519 1.1083 1.1674 1.1691 1.1989 1.258 1.298 1.298 1.288 1.318
1880.754 1.378 1.448 1.488 1.468 1.498 1.638 1.668 1.658 1.698 1.758
1900.043 1.838 1.908 2.028 2.098 2.188 2.258 2.328 2.458 2.558 2.598
1919.333 2.658 2.818 2.938 3.068 3.158 3.208 3.338 3.478 3.658 3.828
1938.623 4.078 4.368 4.648 4.978 5.288 5.568 5.908 6.268 6.618 7.038
1957.913 7.518 8.018 8.538 9.068 9.558 10.138 10.768 11.378 11.998 12.668
1977.202 13.468 14.258 15.078 16.058 17.048 18.108 19.148 20.248 21.438 22.538
1996.492 23.628 24.778 25.878 26.948 27.988 29.058 30.078 31.128 32.248 33.298
2015.782 34.478 35.988 37.658 39.448 41.518 43.648 45.488 46.628 46.778 45.948
2035.072 44.208 41.688 38.628 35.318 32.038 29.028 26.278 23.908 21.998 20.368
2054.362 19.048 18.178 17.588 17.278 17.248 17.588 18.268 19.138 20.268 21.678
2073.651 23.348 25.078 26.728 28.188 29.178 29.618 29.428 28.608 27.258 25.468
2092.941 23.388 21.278 19.238 17.258 15.458 13.948 12.748 11.578 10.578 9.858
2112.231 9.258 8.828 8.468 8.218 8.058 7.898 7.858 7.908 8.018 8.068
2131.521 8.138 8.188 8.098 8.028 7.818 7.438 7.068 6.668 6.208 5.848
2150.810 5.478 5.118 4.798 4.478 4.288 4.108 3.888 3.728 3.568 3.398
2170.100 3.248 3.138 3.028 2.968 2.898 2.818 2.768 2.678 2.638 2.608
2189.390 2.508 2.518 2.508 2.478 2.488 2.518 2.498 2.368 2.328 2.318
2208.680 2.138 2.028 1.868 1.758 1.668 1.578 1.538 1.398 1.338 1.278
2227.970 1.2137 1.1625 1.1618 1.2046 1.11 0.9759 0.9767 0.9457 0.9409 0.9637
2247.259 0.9237 0.8612 0.9077 0.95 0.8879 0.8665 0.8677 0.8147 0.7802 0.8193
2266.549 0.8393 0.8053 0.846 0.959 0.9166 0.7974 0.7749 0.7757 0.7697 0.7865
2285.839 0.7611 0.7699 0.7666 0.7042 0.7236 0.7032 0.729 0.7425 0.6663 0.5982
2305.129 0.5725 0.665 0.6161 0.5529 0.4836 0.3989 0.4346 0.4698 0.4755 0.5058
2324.418 0.5438 0.5573 0.54 0.5891 0.6425 0.6167 0.6463 0.6662 0.6036 0.594
2343.708 0.6486 0.6473 0.5787 0.4951 0.4748 0.4725 0.4779 0.4895 0.4895 0.4841
2362.998 0.465 0.3964 0.3584 0.4292 0.4672 0.4532 0.4527 0.5102 0.6056 0.5956
2382.288 0.4782 0.4832 0.5438 0.5144 0.5115 0.4652 0.4479 0.4559 0.4104 0.4032
2401.578 0.431 0.4247 0.444 0.477 0.4582 0.4513 0.4264 0.442 0.5052 0.5391
2420.867 0.5447 0.4984 0.493 0.4795 0.4112 0.4186 0.4978 0.4967 0.4958 0.5253
2440.157 0.4801 0.4536 0.4431 0.4562 0.4585 0.4645 0.4837 0.4724 0.4322 0.4099
2459.447 0.4424 0.4545 0.4809 0.5836 0.6185 0.5462 0.5047 0.5081 0.544 0.6001
2478.737 0.6093 0.5349 0.5319 0.5989 0.6067 0.5994 0.6818 0.7264 0.6691 0.64
2498.026 0.6616 0.6897 0.6556 0.7026 0.8193 0.8222 0.7679 0.693 0.7516 0.7981
2517.316 0.7047 0.6999 0.7508 0.8111 0.7733 0.7079 0.7293 0.7818 0.7612 0.7255
2536.606 0.758 0.7239 0.7076 0.73 0.7958 0.8565 0.8469 0.8705 0.9204 0.9856
2555.896 0.9963 0.9762 1.0303 1.0284 0.9559 0.9586 1.0447 1.0229 1.0469 1.15
2575.186 1.1723 1.1464 1.1811 1.2317 1.1592 1.1153 1.0778 1.077 1.0924 0.9985
2594.475 0.9579 0.9584 0.8672 0.8717 0.9224 0.834 0.6795 0.5748 0.6694 0.7286
2613.765 0.7554 0.7893 0.6801 0.6638 0.6854 0.719 0.7514 0.6678 0.6167 0.6779
2633.055 0.6903 0.6284 0.6151 0.6216 0.5602 0.5516 0.6489 0.6512 0.5716 0.5454
2652.345 0.5595 0.5938 0.612 0.6381 0.5958 0.5369 0.4462 0.4043 0.5136 0.4855
2671.634 0.462 0.4816 0.434 0.5155 0.5377 0.4336 0.4194 0.4079 0.4478 0.4933
2690.924 0.484 0.4516 0.3748 0.5109 0.6984 0.5948 0.427 0.424 0.44 0.4289
2710.214 0.4289 0.4247 0.4429 0.4812 0.5802 0.5331 0.3773 0.3841 0.5003 0.5457
2729.504 0.4415 0.4682 0.5378 0.5143 0.4552 0.4605 0.4849 0.4625 0.4202 0.462
2748.794 0.5822 0.4945 0.4684 0.5267 0.5195 0.5768 0.5952 0.4848 0.4876 0.5719
2768.083 0.58 0.5555 0.5376 0.5721 0.4967 0.4867 0.6893 0.7218 0.5968 0.5107
2787.373 0.4928 0.5459 0.5218 0.4678 0.4697 0.3817 0.3977 0.4674 0.4402 0.3741
2806.663 0.3782 0.4204 0.32728 0.3945 0.5658 0.4855 0.3682 0.4625 0.4937 0.4785
2825.953 0.5052 0.5214 0.4973 0.3949 0.4502 0.4969 0.3942 0.3569 0.251601 0.2063
2845.242 0.28218 0.29157 0.28931 0.3484 0.3904 0.4494 0.4483 0.3952 0.5846 0.5529
2864.532 0.3866 0.3977 0.33483 0.3826 0.438 0.3747 0.4503 0.3925 0.248786 0.28894
2883.822 0.3867 0.4202 0.382 0.29055 0.31416 0.33481 0.26896 0.29724 0.3782 0.4208
2903.112 0.34501 0.3574 0.4186 0.3931 0.3807 0.4659 0.4557 0.4289 0.3946 0.32056
2922.401 0.3906 0.4544 0.3915 0.3498 0.3933 0.3903 0.32361 0.3982 0.4437 0.4179
2941.691 0.498 0.5191 0.4202 0.4224 0.5372 0.4815 0.4813 0.4923 0.4347 0.4733
2960.981 0.4644 0.34517 0.3651 0.4633 0.4693 0.5236 0.4966 0.4093 0.4465 0.4623
2980.271 0.353 0.28617 0.362 0.363 0.30858 0.34648 0.4434 0.5078 0.4254 0.4024
2999.561 0.454 0.4294 0.3851 0.4134 0.4628 0.3944 0.4988 0.5836 0.4346 0.4467
3018.850 0.4399 0.4573 0.5276 0.3828 0.3614 0.4138 0.4006 0.4327 0.355 0.34731
3038.140 0.4661 0.5337 0.4028 0.34732 0.5039 0.5474 0.4757 0.3983 0.3809 0.456
3057.430 0.4373 0.3938 0.3785 0.3937 0.4149 0.4479 0.5407 0.6195 0.6117 0.6355
3076.720 0.7408 0.6992 0.7813 0.6948 0.5655 0.6089 0.5851 0.5401 0.4576 0.4071
3096.009 0.34402 0.4211 0.4888 0.5187 0.4685 0.28938 0.27979 0.34427 0.34396 0.3735
3115.299 0.3283 0.1894 0.2341 0.251778 0.25863 0.3833 0.4862 0.4964 0.4088 0.3614
3134.589 0.32669 0.2234 0.2311 0.4092 0.32692 0.2103 0.3864 0.4177 0.3585 0.3693
3153.879 0.4014 0.26378 0.1817 0.2263 0.191 0.28443 0.3961 0.32287 0.27659 0.3077
3173.169 0.27114 0.2138 0.32601 0.4525 0.5321 0.5215 0.474 0.5352 0.3855 0.24176
3192.458 0.2051 0.1714 0.119 0.121 0.1939 0.24297 0.29565 0.257381 0.1847 0.26893
3211.748 0.31642 0.236 0.1959 0.132 0.078 0.103 0.1681 0.28452 0.1831 0.083
3231.038 0.1775 0.1988 0.2132 0.3721 0.4617 0.348 0.31284 0.3921 0.4325 0.4418
3250.328 0.475 0.4348 0.34318 0.33603 0.23923 0.1498 0.2355 0.2321 0.2092 0.34459
3269.617 0.3761 0.3568 0.2323 0.23978 0.4442 0.4221 0.31752 0.3678 0.3449 0.34417
3288.907 0.3901 0.28628 0.3449 0.34061 0.2153 0.29845 0.3687 0.3487 0.4041 0.3719
3308.197 0.28043 0.33514 0.4428 0.3751 0.30055 0.3737 0.4173 0.2762 0.24684 0.3492
3327.487 0.4076 0.5832 0.6037 0.5263 0.5944 0.5609 0.6031 0.6776 0.7745 0.9021
3346.777 0.7986 0.679 0.864 1.1372 1.378 1.598 1.808 2.018 2.138 2.318
3366.066 2.568 2.738 2.728 2.698 2.748 2.718 2.598 2.478 2.248 1.958
3385.356 1.718 1.578 1.498 1.398 1.258 1.0633 0.9517 0.9505 0.8342 0.7729
3404.646 0.7661 0.6394 0.6036 0.575 0.5666 0.6156 0.5411 0.5797 0.6279 0.5988
3423.936 0.6001 0.608 0.5774 0.4785 0.4817 0.6391 0.743 0.7172 0.7626 0.8664
3443.225 0.959 0.9607 0.9044 0.9536 1.016 1.0112 1.0126 1.1483 1.428 1.648
3462.515 1.668 1.618 1.698 1.848 1.858 1.758 1.778 1.838 1.738 1.638
3481.805 1.548 1.508 1.578 1.488 1.2236 1.086 1.2023 1.368 1.358 1.2435
3501.095 0.9863 0.8092 0.8346 0.7634 0.5477 0.4528 0.5945 0.717 0.592 0.3923
3520.385 0.448 0.4205 0.4472 0.6193 0.5065 0.3887 0.461 0.6717 0.698 0.4787
3539.674 0.3559 0.4287 0.3755 0.29791 0.3417 0.2289 0.1931 0.32171 0.478 0.4644
3558.964 0.4577 0.3964 0.32514 0.2156 0.211 0.33651 0.3612 0.4738 0.4783 0.3569
3578.254 0.248482 0.3559 0.3531 0.1708 0.121 0.102 0.147 0.25366 0.2276 0.3897
3597.544 0.475 0.3496 0.26632 0.34033 0.4718 0.27831 0.27536 0.3591 0.3551 0.4185
3616.833 0.34131 0.3736 0.4246 0.416 0.4952 0.4416 0.30021 0.32763 0.3735 0.31878
3636.123 0.32609 0.26144 0.30768 0.3988 0.32911 0.30274 0.2136 0.2267 0.4115 0.481
3655.413 0.4089 0.31649 0.31139 0.382 0.3908 0.3878 0.4488 0.33012 0.1899 0.118
3674.703 0.057 0.109 0.2018 0.30377 0.3697 0.4025 0.257711 0.1936 0.3802 0.4067
3693.993 0.4769 0.5247 0.4431 0.4427 0.4363 0.29465 0.24461 0.32128 0.2321 0.1531
3713.282 0.124 0.252509 0.30378 0.26635 0.2074 0.2099 0.2255 0.035 0.023 0.072
3732.572 0.1727 0.34604 0.4393 0.5963 0.5681 0.3585 0.34155 0.375 0.31236 0.24069
3751.862 0.32893 0.34065 0.1903 0.28967 0.377 0.1728 0.045 0.1993 0.28508 0.252092
3771.152 0.24443 0.356 0.4432 0.32162 0.26573 0.21 0.1728 0.26894 0.2859 0.29369
3790.441 0.34075 0.39 0.4413 0.3548 0.3363 0.3884 0.23918 0.1587 0.31874 0.5504
3809.731 0.5126 0.26262 0.14 0.2133 0.256366 0.252154 0.12 0.2022 0.372 0.4363
3829.021 0.5296 0.3837 0.4233 0.396 0.2962 0.2317 0.1636 0.2141 0.23958 0.3858
3848.311 0.4184 0.2164 0.23801 0.34203 0.3728 0.33004 0.29286 0.4135 0.3501 0.253553
3867.601 0.33841 0.229 0.092 0.2274 0.1721 0 0.076 0.182 0.1695 0.24682
3886.890 0.26034 0.34232 0.4444 0.4717 0.5597 0.4099 0.3873 0.31589 0.1894 0.26124
3906.180 0.3407 0.4168 0.33414 0.3821 0.3959 0.4003 0.411 0.33682 0.33645 0.23809
3925.470 0.2153 0.359 0.5749 0.521 0.3564 0.2066 0.1864 0.33554 0.2152 0.2315
3944.760 0.4668 0.5086 0.4523 0.25989 0.352 0.4235 0.33325 0.4062 0.4661 0.3642
3964.049 0.117 0.1739 0.3613 0.26245 0.30279 0.3525 0.3647 0.4824 0.4621 0.5449
3983.339 0.6734 0.7741 0.7109 0.7512 0.6783 0.6737 0.8032 0.6605 0.4541 0.443
##END=
