##TITLE=5-Aminoindole
##JCAMP-DX=4.24
##DATA TYPE=INFRARED SPECTRUM
##ORIGIN=NIST Mass Spectrometry Data Center
##OWNER=NIST Standard Reference Data Program
Collection (C) 2018 copyright by the U.S. Secretary of Commerce
on behalf of the United States of America. All rights reserved.
##CAS REGISTRY NO=5192-03-0
##MOLFORM=C 8 H 8 N 2
##$NIST SOURCE=MSDC-IR
##SPECTROMETER/DATA SYSTEM=HP-GC/MS/IRD
##STATE=gas
##XUNITS=1/CM
##YUNITS=ABSORBANCE
##XFACTOR=1.0
##YFACTOR=0.000001300
##DELTAX=4.0
##FIRSTX=550.0
##LASTX=3846.0
##FIRSTY=0.001634
##MAXX=3846
##MINX=550
##MAXY=0.013
##MINY=0
##NPOINTS=825
##XYDATA=(X++(Y..Y))
550.0 1257 1965 1576 1823 1937 2089 2264 2438 2762 3016
590.0 2845 2707 2569 2364 2133 1900 1722 1529 1394 1347
630.0 1407 1474 1566 1763 2027 2440 3011 3643 4244 4658
670.0 4897 4920 4784 4716 4806 5155 5795 6556 7316 8510
710.0 10000 9470 8183 7755 7131 6410 5780 5346 5074 5269
750.0 5555 5071 4575 4586 4792 5098 5503 5913 6458 7237
790.0 7134 6151 5278 4443 3666 3086 2776 2720 2837 2994
830.0 3204 3514 3620 3447 3457 3443 2970 2412 2000 1603
870.0 1250 1012 919 1011 1453 2136 2589 2715 2685 2387
910.0 1721 1105 781 654 622 675 831 923 900 886
950.0 797 561 349 247 175 120 77 43 41 38
990.0 33 75 105 105 150 184 187 161 142 132
1030.0 178 247 276 331 465 717 1117 1482 1697 1778
1070.0 1813 1757 1591 1558 1713 1830 1792 1709 1641 1474
1110.0 1255 1089 1069 1136 1341 1652 1955 2334 2866 3424
1150.0 3535 3336 3205 2838 1940 1081 622 362 178 72
1190.0 46 72 162 298 536 1006 1804 3075 4510 5355
1230.0 5586 5592 4936 3365 2137 1630 1165 740 460 305
1270.0 260 315 479 777 1169 1462 1586 1624 1617 1541
1310.0 1605 2030 2752 3664 4597 5114 5086 4795 4190 3078
1350.0 1932 1198 761 503 390 347 345 384 445 551
1390.0 750 1020 1311 1553 1697 1744 1669 1481 1281 1211
1430.0 1288 1484 1940 2759 3806 4887 5692 6250 6489 6431
1470.0 6501 6884 7159 6992 6575 5775 4416 3007 2231 2024
1510.0 2157 2382 2433 2390 2321 2077 1794 1740 1886 2102
1550.0 2265 2284 2196 2196 2287 2484 2809 3154 3412 3485
1590.0 3452 3318 3158 3200 3582 4164 4794 5387 5699 5678
1630.0 5458 5034 4456 3862 3377 2938 2421 1949 1595 1316
1670.0 1101 983 965 919 914 914 829 727 651 573
1710.0 452 323 223 176 139 79 40 43 37 26
1750.0 26 50 67 71 84 86 93 86 61 61
1790.0 80 106 124 178 253 299 334 364 374 342
1830.0 293 230 165 105 70 60 39 19 3 0
1870.0 9 23 39 59 69 65 60 54 47 30
1910.0 21 20 13 23 41 43 45 52 49 56
1950.0 62 60 62 68 69 65 59 41 37 40
1990.0 26 24 27 31 32 33 28 33 41 36
2030.0 45 54 65 69 58 46 41 33 40 50
2070.0 47 47 52 54 58 63 59 64 80 84
2110.0 66 53 73 72 64 76 82 80 54 42
2150.0 47 53 69 85 82 74 67 78 84 77
2190.0 82 77 69 62 65 81 72 66 72 67
2230.0 63 74 73 61 69 61 39 40 53 66
2270.0 79 87 87 92 99 89 82 88 77 74
2310.0 81 96 81 51 42 35 41 44 46 60
2350.0 74 71 73 71 73 84 84 91 106 99
2390.0 89 75 61 61 61 63 66 78 77 69
2430.0 70 83 87 86 94 113 137 151 149 142
2470.0 144 141 150 145 138 135 130 120 102 113
2510.0 124 110 108 111 108 115 114 103 103 98
2550.0 100 103 100 94 111 128 121 120 128 126
2590.0 114 95 72 56 50 53 57 76 90 87
2630.0 95 105 112 101 91 93 85 80 85 106
2670.0 113 115 112 108 109 110 113 106 107 109
2710.0 101 91 89 112 114 96 93 89 74 61
2750.0 61 49 36 33 41 62 49 47 57 75
2790.0 83 72 68 71 72 72 56 59 73 63
2830.0 66 74 92 100 94 81 55 66 66 43
2870.0 34 43 36 45 75 84 111 112 119 152
2910.0 158 184 219 232 242 235 223 236 233 215
2950.0 217 231 234 234 240 237 224 233 275 314
2990.0 359 442 525 680 942 1306 1780 2289 2758 3116
3030.0 3356 3400 3206 2910 2659 2383 2120 1912 1669 1387
3070.0 1157 1019 917 842 767 729 717 693 690 697
3110.0 705 709 733 819 901 933 898 843 765 581
3150.0 370 258 188 124 117 112 90 74 93 93
3190.0 76 81 95 107 105 126 143 150 154 149
3230.0 154 153 142 130 104 105 107 106 145 158
3270.0 146 142 123 78 61 71 68 68 80 78
3310.0 81 85 60 63 70 80 67 53 103 143
3350.0 93 58 96 141 173 206 253 333 405 455
3390.0 540 587 547 493 433 355 316 306 317 338
3430.0 371 382 403 447 486 547 682 864 1044 1221
3470.0 1394 1579 1767 1990 2227 2397 2505 2735 3135 3644
3510.0 4416 5267 5719 5525 5165 4596 3366 2062 1244 771
3550.0 488 314 233 180 114 113 119 113 106 83
3590.0 93 93 73 43 33 63 70 82 100 105
3630.0 106 113 142 147 131 141 147 113 104 76
3670.0 55 76 94 88 64 51 51 53 58 53
3710.0 22 16 52 65 42 40 26 38 33 23
3750.0 26 59 110 99 102 115 130 107 47 63
3790.0 112 120 99 82 79 82 98 92 116 161
3830.0 157 122 124 136 169
##END=
