##TITLE=trans,trans-2,4-Hexadiene
##JCAMP-DX=4.24
##DATA TYPE=INFRARED SPECTRUM
##ORIGIN=NIST Mass Spectrometry Data Center
##OWNER=NIST Standard Reference Data Program
Collection (C) 2018 copyright by the U.S. Secretary of Commerce
on behalf of the United States of America. All rights reserved.
##CAS REGISTRY NO=5194-51-4
##MOLFORM=C 6 H 10
##$NIST SOURCE=MSDC-IR
##SPECTROMETER/DATA SYSTEM=HP-GC/MS/IRD
##STATE=gas
##XUNITS=1/CM
##YUNITS=ABSORBANCE
##XFACTOR=1.0
##YFACTOR=0.000002600
##DELTAX=4.0
##FIRSTX=550.0
##LASTX=3846.0
##FIRSTY=0.000538
##MAXX=3846
##MINX=550
##MAXY=0.026
##MINY=0
##NPOINTS=825
##XYDATA=(X++(Y..Y))
550.0 207 141 82 113 128 93 56 36 9 0
590.0 42 88 94 60 56 69 82 86 66 58
630.0 40 38 61 66 57 57 36 55 83 73
670.0 88 122 165 152 132 142 142 154 199 240
710.0 260 271 315 367 415 451 458 458 474 453
750.0 400 386 368 344 321 285 272 267 235 221
790.0 198 169 179 174 187 221 235 207 210 227
830.0 202 212 198 193 240 261 266 280 303 341
870.0 357 374 431 507 589 676 805 966 1151 1396
910.0 1716 2143 2652 3144 3531 3824 4085 4250 4275 4294
950.0 4463 4754 5134 5556 5935 6236 6472 6638 6756 6651
990.0 6230 5765 5343 4848 4315 3785 3264 2767 2307 1904
1030.0 1556 1265 1032 846 708 598 526 484 436 393
1070.0 366 340 317 309 301 281 265 261 263 263
1110.0 247 251 257 269 281 287 285 277 274 274
1150.0 274 277 295 306 314 333 342 357 374 369
1190.0 360 360 358 350 344 353 350 364 397 428
1230.0 481 499 506 546 560 549 521 497 486 480
1270.0 476 480 501 519 532 544 554 575 587 603
1310.0 615 614 616 619 629 643 661 681 704 729
1350.0 761 800 837 881 932 982 1005 1006 1005 1034
1390.0 1069 1078 1090 1118 1158 1196 1229 1286 1356 1418
1430.0 1481 1563 1662 1764 1801 1761 1715 1680 1617 1504
1470.0 1382 1273 1190 1094 991 901 812 737 667 608
1510.0 565 521 479 443 414 395 374 347 345 335
1550.0 326 332 326 327 330 331 332 334 346 338
1590.0 341 355 363 389 420 450 505 569 614 625
1630.0 615 591 545 487 434 409 426 456 510 585
1670.0 627 634 633 621 556 462 376 310 275 252
1710.0 239 229 211 203 197 182 165 160 164 172
1750.0 187 206 224 263 319 362 400 433 463 487
1790.0 492 492 502 509 508 498 472 427 384 336
1830.0 287 262 253 250 251 261 270 269 257 243
1870.0 220 193 164 135 112 92 85 90 85 67
1910.0 64 65 63 61 74 75 61 65 75 84
1950.0 95 102 102 99 103 110 109 103 95 94
1990.0 96 93 95 107 123 123 131 132 115 101
2030.0 88 66 45 40 40 36 30 26 29 25
2070.0 14 20 20 16 14 5 7 14 12 6
2110.0 2 5 11 13 17 19 11 13 8 6
2150.0 15 16 12 8 11 15 20 24 23 19
2190.0 17 24 20 10 12 16 27 27 21 24
2230.0 30 28 18 12 15 18 16 11 6 9
2270.0 10 7 13 11 4 2 9 14 14 11
2310.0 20 28 29 33 27 26 19 23 36 34
2350.0 36 50 66 67 74 89 97 115 135 142
2390.0 139 132 128 129 115 96 90 83 78 74
2430.0 68 65 62 66 79 72 76 87 93 99
2470.0 100 103 100 93 71 57 58 51 45 32
2510.0 30 50 61 54 58 61 62 72 75 71
2550.0 64 54 52 60 62 62 54 53 57 54
2590.0 53 54 54 56 62 57 51 46 51 67
2630.0 58 41 41 51 62 56 52 48 51 48
2670.0 51 76 90 92 95 108 105 109 133 144
2710.0 148 174 211 250 302 388 484 553 591 607
2750.0 581 513 429 370 322 295 288 289 309 333
2790.0 369 407 433 473 526 576 631 697 771 857
2830.0 957 1072 1216 1411 1690 2137 2841 3804 4753 5296
2870.0 5609 5956 5989 5659 5318 5125 5067 5132 5349 5789
2910.0 6539 7662 8923 9794 10000 9865 9514 8615 7461 6570
2950.0 6010 5772 5768 5803 5752 5687 5695 5703 5688 5697
2990.0 5784 5959 6205 6535 6916 7255 7444 7398 7217 7023
3030.0 6704 6142 5469 4861 4336 3863 3423 3007 2632 2298
3070.0 1996 1747 1534 1358 1220 1083 961 863 796 732
3110.0 662 602 544 499 456 406 373 345 324 301
3150.0 283 270 258 254 251 241 213 179 162 146
3190.0 133 124 120 120 114 103 91 98 108 111
3230.0 107 88 74 77 88 86 105 122 105 93
3270.0 74 66 83 83 77 69 69 82 79 79
3310.0 64 47 63 70 59 42 34 38 57 67
3350.0 51 39 40 62 56 52 51 36 49 54
3390.0 47 37 36 52 63 49 39 39 50 75
3430.0 73 64 54 46 28 13 38 57 51 56
3470.0 44 38 43 32 38 46 52 51 51 39
3510.0 49 56 44 40 29 46 67 52 39 38
3550.0 34 40 46 53 62 48 45 45 52 53
3590.0 33 19 22 33 32 20 8 11 8 2
3630.0 12 17 26 45 52 52 59 65 58 52
3670.0 52 42 47 67 59 48 47 42 54 62
3710.0 36 22 26 33 42 49 50 37 32 28
3750.0 22 36 42 49 40 42 60 61 82 80
3790.0 69 68 76 79 66 65 80 82 67 56
3830.0 63 64 62 78 85
##END=
