##TITLE=cis,trans-2,4-Hexadiene
##JCAMP-DX=4.24
##DATA TYPE=INFRARED SPECTRUM
##ORIGIN=NIST Mass Spectrometry Data Center
##OWNER=NIST Standard Reference Data Program
Collection (C) 2018 copyright by the U.S. Secretary of Commerce
on behalf of the United States of America. All rights reserved.
##CAS REGISTRY NO=5194-50-3
##MOLFORM=C 6 H 10
##$NIST SOURCE=MSDC-IR
##SPECTROMETER/DATA SYSTEM=HP-GC/MS/IRD
##STATE=gas
##XUNITS=1/CM
##YUNITS=ABSORBANCE
##XFACTOR=1.0
##YFACTOR=0.000001700
##DELTAX=4.0
##FIRSTX=550.0
##LASTX=3846.0
##FIRSTY=0.000500
##MAXX=3846
##MINX=550
##MAXY=0.017
##MINY=0
##NPOINTS=825
##XYDATA=(X++(Y..Y))
550.0 294 177 91 73 0 118 275 294 253 415
590.0 554 582 577 571 542 365 202 204 208 109
630.0 116 214 215 220 253 331 466 617 824 1026
670.0 1215 1491 1825 2090 2269 2474 2703 2858 2751 2466
710.0 2240 2001 1742 1461 1158 851 645 505 337 234
750.0 232 206 180 187 199 232 241 228 324 508
790.0 642 723 858 993 1108 1222 1348 1454 1364 1187
830.0 1074 994 906 784 655 581 517 448 441 460
870.0 435 421 435 446 479 556 670 877 1166 1547
910.0 2047 2673 3378 3931 4223 4470 4674 4702 4643 4239
950.0 3901 3902 3956 4007 4035 4093 4167 4031 3555 3069
990.0 2747 2482 2165 1795 1436 1151 963 793 669 593
1030.0 580 556 505 485 434 380 347 299 301 306
1070.0 299 289 266 252 205 174 195 205 189 191
1110.0 216 234 268 327 349 332 318 275 259 219
1150.0 216 230 192 185 189 196 189 180 181 192
1190.0 218 252 281 317 351 398 432 441 463 451
1230.0 439 406 349 324 269 237 254 251 272 267
1270.0 273 300 324 378 417 442 462 452 445 457
1310.0 466 471 473 474 480 481 492 542 585 651
1350.0 767 909 1069 1249 1434 1566 1637 1664 1696 1730
1390.0 1755 1803 1882 1947 1965 1980 2050 2073 2015 1975
1430.0 1974 2021 2131 2310 2415 2356 2224 2130 2043 1880
1470.0 1647 1424 1249 1123 1009 909 850 808 782 753
1510.0 740 762 736 695 679 658 631 600 578 567
1550.0 552 526 494 466 448 439 402 393 403 410
1590.0 399 383 405 445 477 499 551 631 743 877
1630.0 995 1091 1188 1282 1321 1295 1223 1115 1004 856
1670.0 655 484 378 313 290 271 243 238 245 253
1710.0 265 276 288 311 302 292 292 286 289 300
1750.0 306 308 305 316 345 373 429 486 534 562
1790.0 547 530 487 404 325 268 218 186 186 196
1830.0 218 240 252 278 296 276 253 230 189 147
1870.0 107 91 86 80 73 66 69 80 84 84
1910.0 79 77 83 89 75 61 71 89 92 93
1950.0 108 137 165 171 168 187 208 196 187 184
1990.0 189 186 197 198 166 141 128 113 95 87
2030.0 77 55 44 45 46 41 44 50 42 50
2070.0 41 35 41 26 37 29 6 16 29 35
2110.0 24 13 21 31 31 30 25 19 13 6
2150.0 9 17 6 13 19 32 28 22 26 13
2190.0 10 20 40 34 18 12 20 30 23 37
2230.0 41 37 27 14 25 29 43 39 26 25
2270.0 25 25 36 61 71 58 55 77 78 57
2310.0 51 41 54 83 76 57 59 59 55 56
2350.0 55 53 67 81 92 84 67 88 98 72
2390.0 61 64 66 66 63 73 78 70 75 85
2430.0 82 76 78 100 105 71 87 105 89 81
2470.0 75 66 69 81 59 49 44 58 81 62
2510.0 45 54 59 72 64 47 59 45 36 44
2550.0 49 65 45 28 32 40 42 40 26 18
2590.0 32 32 20 19 22 28 26 25 16 9
2630.0 16 38 52 49 48 66 65 42 40 42
2670.0 32 26 50 72 61 52 80 87 110 133
2710.0 134 153 185 246 313 360 407 427 431 441
2750.0 435 387 323 298 309 329 335 347 350 346
2790.0 383 431 466 495 538 577 629 701 782 870
2830.0 986 1160 1383 1655 2006 2472 3089 3775 4374 4746
2870.0 4991 5186 5270 5227 5136 5135 5185 5284 5561 6030
2910.0 6684 7586 8536 9199 9408 9382 9247 8729 7852 6862
2950.0 6015 5534 5318 5119 4875 4728 4693 4712 4705 4800
2990.0 5025 5346 5822 6444 7231 8176 9108 9735 9951 9945
3030.0 10000 9971 9422 8350 7142 6037 5056 4152 3381 2778
3070.0 2284 1913 1615 1397 1195 1016 946 892 810 738
3110.0 674 625 577 557 558 519 448 408 387 344
3150.0 304 263 240 209 176 162 166 156 128 120
3190.0 127 129 140 135 116 96 88 91 97 116
3230.0 104 82 78 69 69 59 80 91 85 76
3270.0 70 93 72 17 17 23 18 58 61 42
3310.0 31 20 42 55 48 43 35 45 69 61
3350.0 50 46 53 67 62 48 40 34 40 79
3390.0 67 52 77 70 65 57 60 89 95 91
3430.0 84 52 34 36 53 92 101 64 92 109
3470.0 74 94 109 104 110 79 76 79 67 60
3510.0 45 89 97 79 74 81 76 54 80 91
3550.0 58 37 66 79 86 113 118 120 110 97
3590.0 95 98 107 100 94 92 96 111 112 86
3630.0 91 102 94 114 109 95 100 118 115 78
3670.0 85 94 74 89 83 80 86 80 104 129
3710.0 135 125 143 150 140 124 130 129 104 95
3750.0 102 99 79 133 153 113 120 102 119 141
3790.0 129 137 143 130 130 152 156 139 152 183
3830.0 150 133 157 178 178
##END=
