##TITLE=4-Pyrrolidinobenzaldehyde
##JCAMP-DX=4.24
##DATA TYPE=INFRARED SPECTRUM
##ORIGIN=EPA-IR VAPOR PHASE LIBRARY
##OWNER=SRD/NIST
Collection (C) 2018 copyright by the U.S. Secretary of Commerce
on behalf of the United States of America. All rights reserved.
##CAS REGISTRY NO=51980-54-2
##MOLFORM=C 11 H 13 N O
##$NIST SOURCE=MSDC-IR
##STATE=gas
##XUNITS=1/CM
##YUNITS=ABSORBANCE
##XFACTOR=1.
##YFACTOR=0.001
##DELTAX=1.929
##FIRSTX=549.8
##LASTX=4000.8
##FIRSTY=2.1352
##MAXX=4000.75
##MINX=549.766
##MAXY=0.27814
##MINY=0
##NPOINTS=1790
##XYDATA=(X++(Y..Y))
549.766 2.1352 2.0026 2.094 1.848 1.6803 1.6548 1.6335 1.7247 1.8064 1.8016
569.056 1.5814 1.4529 1.4534 1.25422 1.063 1.1291 1.3761 1.7736 1.7007 1.3636
588.346 1.26837 1.3537 1.5788 1.5653 1.5024 1.6851 1.712 1.666 1.5914 1.6252
607.636 1.8937 2.0817 2.23 2.46 2.78 2.97 3.26 3.92 4.75 5.26
626.926 5.22 5.29 5.32 5.03 4.42 3.5 3.08 3.05 2.96 3.22
646.216 3.53 3.79 4.18 4.58 5.32 6.8 8.98 11.18 13.07 14.14
665.506 14.31 14.22 13.55 11.78 9.16 6.8 5.36 4.42 3.62 3.26
684.796 3.14 3.01 2.85 2.75 2.69 2.81 2.83 2.59 2.51 2.45
704.086 2.38 2.37 2.28 2.29 2.36 2.38 2.33 2.25 2.0989 1.8663
723.376 1.7815 1.8823 1.9858 1.9731 1.9406 1.9266 1.9459 1.9834 2.1069 2.26
742.666 2.32 2.51 2.94 3.3 3.64 4.08 4.66 5.18 5.49 5.78
761.956 5.83 5.65 5.45 5.12 4.83 4.65 4.52 4.45 4.47 4.74
781.246 5.07 5.62 6.32 7.15 8.3 9.7 11.33 13.21 15.69 18.41
800.536 20.96 23.69 26.62 29.47 32.07 34.7 37.65 39.41 37.99 35.41
819.826 33.47 31.42 29.22 26.8 24.38 22.33 20.62 19.42 18.71 18.14
839.116 17.58 17 16.16 14.96 13.7 12.22 10.66 9.29 8.06 7.11
858.406 6.27 5.64 5.18 4.81 4.53 4.19 3.89 3.66 3.47 3.29
877.696 3.12 2.94 2.75 2.66 2.54 2.44 2.34 2.28 2.36 2.36
896.986 2.29 2.33 2.44 2.62 2.88 3.3 3.79 4.2 4.44 4.56
916.276 4.45 4.28 4.12 3.73 3.23 2.89 2.82 2.78 2.8 2.87
935.566 2.86 2.83 3 3.3 3.88 4.73 5.84 7.46 9.42 11.39
954.856 13.15 14.34 14.69 14.25 13.11 11.29 9.07 7.12 5.74 4.88
974.146 4.33 4.05 3.85 3.6 3.47 3.44 3.43 3.54 3.76 4.19
993.436 4.89 5.91 6.94 7.48 7.6 7.63 7.58 7.07 6.14 5.31
1012.726 4.6 4.14 4 4.01 4.02 3.88 3.85 3.88 3.79 3.72
1032.016 3.69 3.64 3.59 3.55 3.61 3.63 3.57 3.54 3.56 3.48
1051.306 3.45 3.57 3.75 3.83 3.79 3.92 4.07 4.22 4.35 4.38
1070.596 4.48 4.53 4.48 4.45 4.44 4.49 4.48 4.5 4.54 4.52
1089.886 4.57 4.68 4.91 5.09 5.18 5.42 5.8 6.11 6.45 6.96
1109.176 7.57 8.2 8.88 9.67 10.42 11.02 11.45 11.75 11.87 11.98
1128.467 12.14 12.39 12.88 13.56 14.38 15.28 16.41 17.81 19.5 21.35
1147.757 23.54 26.45 30.24 35.35 42.69 53.87 71.7 99.24 134.51 164.76
1167.047 176.62 175.11 171.32 160.58 130.63 90.14 57.94 38.99 29.01 23.46
1186.337 20.03 17.6 15.9 14.69 13.85 13.43 13.45 13.95 14.74 15.89
1205.627 17.74 20.25 23.53 27.64 32.25 37.49 43.38 49.07 53.38 55.19
1224.917 54.34 51.47 46.74 40.09 32.44 25.53 20.58 17.68 16.02 15.06
1244.207 14.63 14.4 14.16 14.06 14.05 13.89 13.71 13.66 13.6 13.56
1263.497 13.57 13.65 13.84 14.14 14.58 15.17 16.08 17.26 18.78 20.62
1282.787 22.35 23.76 24.66 24.92 24.66 23.95 22.98 22.03 21.51 21.88
1302.077 23.26 25.64 28.94 32.89 36.67 39.4 40.76 41.02 40.3 38.37
1321.367 35.42 32.35 29.98 28.52 27.86 27.89 28.41 29.4 30.82 32.72
1340.657 35.07 37.84 41.18 45.08 49.56 54.67 60.56 67.5 75.73 85.47
1359.947 96.71 109.29 122.66 135.69 147.36 156.42 161.46 161.6 156.34 146.23
1379.237 131.94 115.25 97.58 80.66 65.35 52.38 42.44 35.24 29.85 25.34
1398.527 21.79 19.05 16.96 15.35 14.15 13.33 12.93 12.84 12.95 13.3
1417.817 13.89 14.68 15.67 16.78 17.97 19.08 19.9 20.26 20.01 19.2
1437.107 17.92 16.3 14.5 12.79 11.61 11.06 10.91 11.12 11.73 12.76
1456.397 14.56 17.14 19.97 22.42 23.73 24.17 24.17 23.55 21.82 19.46
1475.687 17.8 17.33 18.3 20.75 24.78 30.14 35.72 39.81 41.54 41.74
1494.977 40.96 38.51 34.58 30.83 29.16 30.31 34.1 39.8 46.74 54.81
1514.267 63.04 70.35 75.55 77.5 76.44 72.95 66.8 58.49 49.2 40.49
1533.557 33.23 27.43 23.01 19.64 17.45 16.63 17 18.43 20.98 24.78
1552.847 29.75 35.89 41.88 47.2 50.66 51.76 51.11 48.74 44.47 39.03
1572.137 34.75 33.13 33.98 36.55 41.02 47.72 56.78 68.9 84.39 103.82
1591.427 127.19 154.41 184.91 216.54 245.75 267.73 278.14 274.97 259.07 232.46
1610.717 198.13 159.25 122.77 92.21 70.81 58.09 49.86 44.21 39.81 35.82
1630.007 32.04 28.39 24.84 21.38 18.37 16.22 14.78 13.85 13.4 13.21
1649.297 13.14 13.37 13.73 13.99 14.35 14.87 15.51 16.25 16.94 17.63
1668.587 18.36 18.99 19.6 20.27 20.95 21.64 22.56 23.74 25.51 27.72
1687.877 30.51 34.32 39.39 46.11 56.01 69.36 87.41 113.13 139.77 164.76
1707.167 179.65 183.87 181.3 171.94 150.01 117.75 85.28 61.72 45.2 34.1
1726.457 26.84 21.98 18.64 16.35 14.59 13.08 11.89 10.82 9.89 8.95
1745.747 8.09 7.41 6.81 6.27 5.82 5.46 5.04 4.66 4.39 4.1
1765.037 3.81 3.55 3.35 3.16 3 2.87 2.77 2.71 2.68 2.68
1784.327 2.65 2.63 2.64 2.66 2.72 2.66 2.58 2.56 2.54 2.48
1803.617 2.39 2.38 2.42 2.4 2.33 2.35 2.42 2.4 2.34 2.41
1822.907 2.52 2.57 2.61 2.63 2.68 2.71 2.72 2.73 2.79 2.84
1842.197 2.84 2.83 2.79 2.73 2.7 2.68 2.65 2.64 2.62 2.6
1861.487 2.59 2.61 2.63 2.68 2.7 2.67 2.67 2.71 2.71 2.74
1880.777 2.86 2.86 2.86 2.9 2.9 2.82 2.75 2.69 2.65 2.64
1900.067 2.58 2.55 2.58 2.63 2.68 2.75 2.78 2.78 2.79 2.76
1919.357 2.67 2.61 2.48 2.3 2.1584 2.0421 2.0181 1.9524 1.8542 1.78
1938.647 1.7608 1.7475 1.6921 1.6642 1.6408 1.637 1.6205 1.6429 1.6649 1.6291
1957.937 1.6533 1.6873 1.7194 1.7121 1.6657 1.6822 1.7158 1.7497 1.7696 1.7892
1977.227 1.8255 1.8651 1.9049 1.9308 1.948 1.997 2.0654 2.1039 2.1855 2.3
1996.517 2.34 2.43 2.6 2.65 2.7 2.8 2.8 2.73 2.62 2.53
2015.807 2.46 2.4 2.38 2.32 2.27 2.24 2.1956 2.1781 2.1251 2.0583
2035.097 2.0387 1.9889 1.933 1.8931 1.813 1.7347 1.6709 1.6405 1.6937 1.6947
2054.387 1.6501 1.6221 1.5751 1.5777 1.5799 1.5725 1.5775 1.5248 1.4405 1.405
2073.677 1.399 1.4152 1.4403 1.3346 1.27503 1.3261 1.3298 1.3595 1.3758 1.3208
2092.967 1.27012 1.28814 1.31326 1.3314 1.30288 1.28812 1.3268 1.3401 1.3773 1.426
2112.257 1.4717 1.4471 1.4836 1.5637 1.5509 1.5755 1.6045 1.648 1.6578 1.6408
2131.547 1.6327 1.6136 1.5857 1.5584 1.5636 1.5525 1.5039 1.4249 1.3736 1.3307
2150.837 1.29585 1.23303 1.21344 1.24624 1.22327 1.22573 1.24953 1.2082 1.1418 1.1375
2170.127 1.1742 1.1835 1.1797 1.23378 1.23328 1.1833 1.1803 1.1533 1.125 1.1542
2189.417 1.1905 1.1508 1.111 1.101 1.068 1.108 1.1791 1.209 1.25487 1.24818
2208.707 1.22364 1.28454 1.31425 1.3443 1.4399 1.4588 1.4459 1.4377 1.4295 1.3759
2227.997 1.29833 1.30852 1.2609 1.22555 1.23173 1.1657 1.112 1.112 1.105 1.057
2247.287 1.041 1.091 1.1424 1.1493 1.1385 1.1648 1.2007 1.1796 1.1727 1.21619
2266.577 1.24437 1.30087 1.3625 1.388 1.4166 1.4819 1.534 1.5664 1.5648 1.5507
2285.868 1.5736 1.5672 1.5193 1.4384 1.4337 1.4861 1.4535 1.348 1.29792 1.343
2305.158 1.3786 1.3644 1.3733 1.3978 1.4077 1.3456 1.362 1.4585 1.451 1.4483
2324.448 1.517 1.5988 1.6339 1.7516 1.9137 1.9579 1.9507 1.9265 1.869 1.8601
2343.738 1.8013 1.6166 1.5344 1.5046 1.4225 1.3983 1.3463 1.3341 1.3897 1.3855
2363.028 1.3574 1.3691 1.4269 1.4526 1.4535 1.4409 1.4674 1.5255 1.5369 1.5326
2382.318 1.5442 1.5719 1.6019 1.5455 1.5294 1.5576 1.5549 1.5694 1.505 1.4547
2401.608 1.4443 1.4242 1.4038 1.3723 1.3301 1.33 1.3676 1.4115 1.4365 1.4142
2420.898 1.4122 1.4875 1.5365 1.5127 1.4854 1.5224 1.5931 1.6114 1.5868 1.6071
2440.188 1.6313 1.6179 1.6514 1.7379 1.76 1.6972 1.682 1.6629 1.601 1.5422
2459.478 1.5265 1.4695 1.403 1.443 1.414 1.3997 1.4095 1.3851 1.4147 1.4214
2478.768 1.4094 1.3614 1.3251 1.293 1.28641 1.3637 1.3891 1.3607 1.3838 1.4508
2498.058 1.5452 1.5435 1.5345 1.6464 1.7137 1.7255 1.7666 1.8274 1.9456 2.0608
2517.348 2.0832 2.0714 2.0509 2.1371 2.1829 2.1949 2.23 2.26 2.25 2.28
2536.638 2.31 2.32 2.31 2.32 2.33 2.31 2.41 2.53 2.58 2.6
2555.928 2.73 2.88 2.92 3.12 3.28 3.27 3.35 3.49 3.59 3.63
2575.218 3.67 3.69 3.76 3.75 3.74 3.76 3.8 3.82 3.63 3.48
2594.508 3.49 3.49 3.41 3.31 3.27 3.18 3.15 3.18 3.2 3.25
2613.798 3.21 3.14 3.18 3.34 3.47 3.54 3.56 3.66 3.82 3.95
2633.088 4.07 4.17 4.11 4.04 4.03 3.98 3.96 3.86 3.76 3.68
2652.378 3.67 3.69 3.7 3.79 3.91 4.1 4.27 4.48 4.79 5.07
2671.668 5.41 5.79 6.27 6.94 7.67 8.44 9.48 10.7 12.01 13.51
2690.958 14.97 16.13 17.03 17.76 18.22 18.45 18.56 18.75 19.24 20.16
2710.248 21.75 24.08 27.05 30.28 33.31 35.4 36.21 36.15 35.29 33.31
2729.538 30.16 26.6 23.45 20.81 18.59 16.72 15.09 13.72 12.6 11.59
2748.828 10.55 9.64 8.96 8.35 7.86 7.48 7.23 7.13 7.12 7.16
2768.118 7.19 7.37 7.62 7.97 8.51 9.07 9.79 10.87 12.14 13.69
2787.408 15.56 17.74 20.18 22.61 24.75 26.26 27.2 27.7 27.45 26.49
2806.698 25.09 23.49 22.09 20.93 20.04 19.3 18.79 18.44 18.1 18
2825.988 18.07 18.28 18.67 19.25 20.03 21.01 22.48 24.31 26.33 28.47
2845.278 30.78 33.12 35.34 37.2 38.48 39.15 39.13 38.53 37.22 35.35
2864.568 33.23 30.92 28.79 26.89 25.39 24.39 23.75 23.51 23.63 23.88
2883.858 24.08 24.11 23.94 23.59 23 22.29 21.65 21.2 21 21.05
2903.148 21.22 21.54 21.89 22.21 22.61 22.73 22.65 22.49 22.09 21.56
2922.438 20.98 20.45 19.96 19.54 19.41 19.36 19.42 19.81 20.34 20.84
2941.728 21.27 21.72 22.26 22.61 22.91 23.46 24.06 24.88 26.02 27.38
2961.018 29 31.1 33.78 36.97 40.69 44.6 48.25 50.85 52.22 52.42
2980.308 50.85 46.88 41.39 35.93 30.96 26.46 22.37 18.77 15.83 13.42
2999.598 11.42 10.07 9.14 8.45 8.13 7.99 7.81 7.78 7.89 7.97
3018.888 8.01 8.01 7.98 7.93 7.88 7.91 7.96 7.96 8.02 8.1
3038.178 8.25 8.18 7.93 7.7 7.27 6.79 6.36 5.86 5.41 5.03
3057.468 4.73 4.54 4.41 4.44 4.58 4.74 5.09 5.69 6.41 7.11
3076.758 7.79 8.29 8.43 8.38 8.32 8.09 7.8 7.53 7.3 7.13
3096.048 6.92 6.63 6.3 5.92 5.51 4.99 4.44 4.02 3.62 3.3
3115.338 3.15 3.01 2.85 2.72 2.6 2.53 2.47 2.26 1.9262 1.662
3134.628 1.4706 1.28405 1.1434 1.101 1.033 0.826 0.678 0.739 0.72 0.552
3153.918 0.452 0.422 0.41 0.426 0.472 0.583 0.581 0.487 0.544 0.531
3173.208 0.491 0.527 0.46 0.496 0.675 0.654 0.664 0.762 0.677 0.662
3192.498 0.767 0.721 0.736 0.899 0.941 1.014 1.036 0.961 0.89 0.761
3211.788 0.728 0.677 0.621 0.618 0.538 0.429 0.414 0.403 0.397 0.373
3231.078 0.296 0.271 0.269 0.251 0.287 0.375 0.4 0.372 0.288 0.329
3250.368 0.285 0.2 0.258 0.233 0.276 0.243 0.06 0.09 0.15 0.19
3269.658 0.19 0.16 0.13 0.07 0.17 0.292 0.293 0.257 0.22 0.245
3288.948 0.323 0.28 0.28 0.313 0.278 0.19 0.18 0.284 0.349 0.336
3308.238 0.352 0.36 0.421 0.475 0.446 0.437 0.357 0.299 0.232 0.257
3327.528 0.309 0.336 0.34 0.24 0.16 0.22 0.471 0.551 0.443 0.264
3346.818 0.14 0.244 0.459 0.553 0.49 0.566 0.56 0.529 0.559 0.636
3366.108 0.762 0.807 0.801 0.867 0.948 0.971 1.1438 1.27191 1.3507 1.5405
3385.398 1.7415 1.7518 1.8204 1.9458 1.9712 2.0612 2.1719 2.26 2.1634 1.9182
3404.688 1.7821 1.7219 1.5628 1.519 1.3249 1.098 1.012 0.926 0.856 0.64
3423.978 0.553 0.589 0.566 0.551 0.502 0.401 0.365 0.39 0.344 0.239
3443.269 0.2 0.2 0.242 0.305 0.288 0.22 0.22 0.234 0.2 0.11
3462.559 0.03 0 0.05 0.09 0.13 0.339 0.423 0.28 0.19 0.13
3481.849 0.279 0.387 0.3 0.328 0.367 0.261 0.24 0.32 0.327 0.269
3501.139 0.274 0.364 0.36 0.38 0.419 0.4 0.379 0.362 0.36 0.411
3520.429 0.388 0.41 0.386 0.453 0.528 0.335 0.314 0.431 0.383 0.381
3539.719 0.454 0.394 0.313 0.345 0.476 0.554 0.49 0.438 0.442 0.458
3559.009 0.449 0.487 0.543 0.44 0.407 0.491 0.479 0.372 0.363 0.394
3578.299 0.402 0.408 0.397 0.45 0.446 0.311 0.238 0.383 0.526 0.596
3597.589 0.603 0.594 0.539 0.471 0.44 0.439 0.451 0.355 0.316 0.315
3616.879 0.244 0.334 0.431 0.331 0.255 0.279 0.399 0.383 0.389 0.349
3636.169 0.38 0.38 0.411 0.549 0.503 0.494 0.455 0.422 0.408 0.532
3655.459 0.598 0.531 0.483 0.435 0.449 0.476 0.46 0.491 0.486 0.438
3674.749 0.593 0.555 0.427 0.514 0.541 0.55 0.544 0.454 0.343 0.346
3694.039 0.379 0.4 0.432 0.462 0.464 0.397 0.481 0.591 0.548 0.465
3713.329 0.463 0.477 0.479 0.485 0.56 0.673 0.648 0.578 0.595 0.522
3732.619 0.484 0.587 0.593 0.543 0.62 0.63 0.547 0.461 0.429 0.429
3751.909 0.464 0.509 0.506 0.422 0.411 0.503 0.438 0.458 0.487 0.476
3771.199 0.556 0.534 0.55 0.631 0.477 0.391 0.541 0.566 0.486 0.61
3790.489 0.706 0.739 0.784 0.668 0.585 0.635 0.638 0.642 0.677 0.611
3809.779 0.482 0.508 0.542 0.491 0.633 0.751 0.696 0.666 0.647 0.674
3829.069 0.654 0.55 0.509 0.549 0.584 0.617 0.578 0.523 0.506 0.585
3848.359 0.729 0.698 0.559 0.417 0.443 0.622 0.667 0.53 0.517 0.574
3867.649 0.612 0.612 0.639 0.65 0.463 0.321 0.426 0.633 0.67 0.671
3886.939 0.611 0.501 0.551 0.529 0.489 0.618 0.716 0.647 0.52 0.516
3906.229 0.505 0.548 0.698 0.58 0.447 0.498 0.532 0.468 0.379 0.446
3925.519 0.375 0.387 0.409 0.429 0.471 0.389 0.476 0.503 0.426 0.484
3944.809 0.636 0.496 0.3 0.38 0.452 0.471 0.45 0.35 0.384 0.381
3964.099 0.388 0.498 0.483 0.507 0.652 0.644 0.42 0.391 0.612 0.715
3983.389 0.635 0.588 0.598 0.518 0.423 0.429 0.621 0.751 0.688 0.642
##END=
