##TITLE=Trichlorfon
##JCAMP-DX=4.24
##DATA TYPE=INFRARED SPECTRUM
##ORIGIN=NIST Mass Spectrometry Data Center
##OWNER=NIST Standard Reference Data Program
Collection (C) 2018 copyright by the U.S. Secretary of Commerce
on behalf of the United States of America. All rights reserved.
##CAS REGISTRY NO=52-68-6
##MOLFORM=C 4 H 8 Cl 3 O 4 P
##SOURCE REFERENCE=No.289968 (NIST/EPA/NIH MS Database)
##$NIST SOURCE=MSDC-IR
##SPECTROMETER/DATA SYSTEM=HP-GC/MS/IRD
##STATE=gas
##XUNITS=1/CM
##YUNITS=ABSORBANCE
##XFACTOR=1.0
##YFACTOR=0.000003200
##DELTAX=4.0
##FIRSTX=550.0
##LASTX=3846.0
##FIRSTY=0.000947
##MAXX=3846
##MINX=550
##MAXY=0.032
##MINY=0
##NPOINTS=825
##XYDATA=(X++(Y..Y))
550.0 296 319 138 116 88 38 35 66 50 10
590.0 37 57 23 17 21 24 38 37 29 48
630.0 79 77 78 72 59 97 121 124 121 106
670.0 111 113 100 60 41 64 63 62 64 62
710.0 58 48 56 46 52 74 112 153 194 251
750.0 335 450 548 605 661 684 649 621 571 501
790.0 493 514 580 621 663 746 849 1003 1147 1346
830.0 1626 2041 2613 3402 4263 4928 5149 4721 3763 2655
870.0 1733 1126 784 592 477 392 341 308 295 267
910.0 241 226 239 242 238 258 294 341 408 521
950.0 680 909 1264 1784 2402 3020 3489 3645 3379 2742
990.0 1984 1371 1020 856 814 857 957 1128 1421 1812
1030.0 2344 3117 4114 5321 6648 7948 9033 9750 10000 9752
1070.0 9059 7943 6525 5100 3930 3116 2587 2269 2114 2016
1110.0 1938 1897 1875 1876 1904 2008 2202 2514 3051 3867
1150.0 4865 5752 6011 5397 4164 2883 2000 1520 1271 1127
1190.0 1026 950 871 794 743 697 655 640 645 620
1230.0 593 601 590 559 555 540 525 526 542 585
1270.0 668 823 1082 1421 1771 2036 2146 2105 2032 2036
1310.0 2148 2317 2464 2516 2391 2087 1681 1261 916 670
1350.0 508 404 335 289 261 245 226 219 210 194
1390.0 182 172 172 169 156 150 142 127 123 131
1430.0 139 141 160 193 226 264 287 297 300 285
1470.0 255 218 201 183 160 145 136 125 111 97
1510.0 104 110 101 96 101 106 102 96 100 107
1550.0 115 108 78 96 115 102 93 100 121 126
1590.0 127 145 160 168 189 215 234 263 315 384
1630.0 472 542 612 665 653 581 482 379 284 211
1670.0 150 104 80 71 59 66 56 41 35 46
1710.0 55 45 32 33 35 30 19 25 34 41
1750.0 47 56 71 67 54 40 32 29 28 35
1790.0 33 45 51 51 67 78 78 86 94 99
1830.0 94 88 86 75 64 56 51 56 54 48
1870.0 50 60 57 57 66 67 74 76 79 85
1910.0 92 95 93 91 83 79 71 59 52 45
1950.0 44 41 33 30 35 38 34 34 32 33
1990.0 38 38 38 42 47 58 58 53 46 40
2030.0 37 33 36 36 25 23 24 29 37 33
2070.0 31 32 24 27 31 18 13 20 17 17
2110.0 20 22 27 25 22 21 14 14 14 10
2150.0 15 18 18 21 21 26 28 23 26 34
2190.0 35 31 24 29 34 38 36 35 36 31
2230.0 34 26 23 24 19 24 23 20 20 27
2270.0 42 44 35 29 35 45 40 40 54 51
2310.0 42 39 45 37 22 22 14 10 12 17
2350.0 24 25 18 9 10 23 30 32 24 21
2390.0 17 14 27 27 19 12 17 25 34 28
2430.0 18 26 20 31 47 33 29 31 16 12
2470.0 21 23 21 26 28 20 20 34 26 18
2510.0 28 26 18 17 21 19 24 32 30 23
2550.0 29 28 26 29 28 34 42 41 17 17
2590.0 38 41 38 37 32 34 34 39 37 26
2630.0 43 46 34 43 33 22 34 30 25 18
2670.0 24 41 35 27 37 51 53 39 30 32
2710.0 36 17 13 24 30 33 29 31 44 41
2750.0 35 30 35 54 52 48 65 66 43 46
2790.0 64 71 77 73 76 82 80 88 101 96
2830.0 93 102 123 152 166 202 265 339 408 451
2870.0 441 363 300 247 197 194 179 165 176 181
2910.0 191 209 234 252 252 258 261 271 300 344
2950.0 433 571 764 988 1110 1092 949 744 572 456
2990.0 415 396 378 383 380 365 370 369 348 338
3030.0 313 301 270 237 235 230 219 223 244 270
3070.0 320 407 511 563 512 410 285 194 158 151
3110.0 125 123 132 110 85 81 67 69 96 97
3150.0 80 60 55 52 51 57 49 36 44 52
3190.0 28 36 54 46 45 29 31 38 40 44
3230.0 37 40 34 22 36 53 61 60 38 15
3270.0 24 61 59 35 25 32 38 48 41 14
3310.0 22 33 50 51 29 21 29 33 30 40
3350.0 48 44 23 18 23 12 16 36 53 54
3390.0 42 52 58 59 57 34 19 32 18 12
3430.0 28 17 25 36 29 21 18 34 47 32
3470.0 14 18 36 54 63 66 57 40 36 35
3510.0 32 36 30 27 45 47 39 30 50 52
3550.0 49 60 63 56 41 31 19 29 20 0
3590.0 14 31 52 61 30 24 41 38 46 63
3630.0 57 48 33 33 34 39 49 36 37 33
3670.0 13 11 24 32 22 20 46 73 60 25
3710.0 24 41 51 38 28 21 30 51 16 4
3750.0 22 29 34 34 32 20 36 54 69 43
3790.0 33 48 25 10 25 33 36 37 47 67
3830.0 65 34 7 33 70
##END=
