##TITLE=Famphur
##JCAMP-DX=4.24
##DATA TYPE=INFRARED SPECTRUM
##ORIGIN=NIST Mass Spectrometry Data Center
##OWNER=NIST Standard Reference Data Program
Collection (C) 2018 copyright by the U.S. Secretary of Commerce
on behalf of the United States of America. All rights reserved.
##CAS REGISTRY NO=52-85-7
##MOLFORM=C 10 H 16 N O 5 P S 2
##SOURCE REFERENCE=No.289914 (NIST/EPA/NIH MS Database)
##$NIST SOURCE=MSDC-IR
##SPECTROMETER/DATA SYSTEM=HP-GC/MS/IRD
##STATE=gas
##XUNITS=1/CM
##YUNITS=ABSORBANCE
##XFACTOR=1.0
##YFACTOR=0.000001100
##DELTAX=4.0
##FIRSTX=550.0
##LASTX=3846.0
##FIRSTY=0.000815
##MAXX=3846
##MINX=550
##MAXY=0.011
##MINY=0
##NPOINTS=825
##XYDATA=(X++(Y..Y))
550.0 741 624 697 1187 1708 1810 1354 771 519 478
590.0 441 576 975 1167 1108 852 525 255 105 54
630.0 79 195 407 707 1073 1419 1521 1352 1023 742
670.0 558 452 511 710 1035 1638 2625 3831 4529 4119
710.0 3056 2358 2397 2860 2952 2372 1455 737 413 170
750.0 45 44 21 18 30 75 179 337 450 487
790.0 543 657 737 878 1150 1466 1847 2251 2693 3147
830.0 3508 3901 4368 4939 5444 5439 4698 3518 2399 1634
870.0 1195 905 747 745 824 893 1004 1268 1587 2104
910.0 2930 4065 5507 7040 8320 8749 8017 6669 5515 4938
950.0 4673 4339 3868 3295 2640 2049 1631 1281 1022 885
990.0 731 633 654 699 784 1027 1457 1790 1956 2235
1030.0 2879 3925 5124 6355 7494 8420 8843 8776 8497 7977
1070.0 7435 6853 5936 4969 4297 3855 3374 2798 2325 1991
1110.0 1780 1642 1464 1317 1259 1241 1222 1281 1440 1660
1150.0 2163 3272 5393 8418 10000 8765 6673 4926 3605 2893
1190.0 2542 2319 2381 2704 3245 4139 5097 5619 5495 4971
1230.0 4248 3380 2566 1933 1512 1256 1118 1058 1042 1012
1270.0 991 993 914 832 808 785 723 628 545 483
1310.0 399 340 329 349 403 491 606 789 1088 1479
1350.0 1998 2613 3223 3660 3746 3454 2828 2090 1445 988
1390.0 744 644 618 655 654 608 527 432 375 348
1430.0 352 373 430 530 639 732 782 853 947 1051
1470.0 1182 1375 1704 2146 2680 3190 3277 2617 1678 994
1510.0 651 496 398 334 298 283 274 271 268 267
1550.0 295 347 364 405 485 589 774 1065 1462 1950
1590.0 2268 2110 1544 970 640 460 335 283 247 214
1630.0 189 161 143 138 141 130 117 126 124 115
1670.0 102 84 68 43 26 36 31 32 47 42
1710.0 50 47 27 45 42 27 39 45 47 35
1750.0 17 35 59 67 78 94 107 111 93 64
1790.0 57 62 55 52 49 39 54 85 98 84
1830.0 66 64 72 83 93 89 99 105 109 130
1870.0 151 153 147 150 159 194 191 156 160 175
1910.0 186 153 132 131 111 77 64 68 69 73
1950.0 80 82 73 60 48 43 41 57 68 63
1990.0 56 58 64 62 79 70 36 56 61 34
2030.0 36 46 44 43 50 64 63 49 38 29
2070.0 25 21 17 22 52 64 40 20 25 39
2110.0 31 27 33 37 48 47 30 28 31 48
2150.0 49 29 32 27 25 39 45 21 2 22
2190.0 36 37 46 39 36 20 22 20 24 36
2230.0 18 18 31 49 43 33 56 52 52 52
2270.0 29 36 61 52 47 43 30 29 16 12
2310.0 22 15 15 26 31 14 6 23 13 30
2350.0 28 10 2 30 46 13 16 41 57 58
2390.0 52 45 68 82 81 75 56 43 55 71
2430.0 60 60 65 67 60 74 77 56 51 47
2470.0 25 41 70 45 34 61 75 61 68 88
2510.0 78 68 74 92 100 96 91 94 67 49
2550.0 61 66 72 91 102 103 80 57 80 86
2590.0 65 57 71 64 50 57 62 39 40 65
2630.0 74 65 40 50 39 23 34 43 43 55
2670.0 99 83 71 69 54 37 20 51 69 65
2710.0 55 44 50 44 37 53 55 48 66 72
2750.0 64 58 46 72 74 64 83 81 131 165
2790.0 146 153 183 239 273 295 361 410 407 386
2830.0 406 427 413 437 527 688 816 907 926 841
2870.0 752 703 650 651 709 717 739 770 781 880
2910.0 930 939 929 954 994 1006 1071 1179 1286 1479
2950.0 1781 2174 2501 2536 2167 1634 1240 1004 822 705
2990.0 667 637 607 626 639 595 577 579 522 508
3030.0 518 445 379 369 345 307 317 328 304 302
3070.0 311 326 369 388 352 309 314 288 221 210
3110.0 210 179 195 234 213 172 158 120 101 138
3150.0 144 121 105 76 98 115 84 57 85 128
3190.0 102 24 25 52 66 83 85 90 82 89
3230.0 110 99 61 63 95 73 60 95 119 101
3270.0 67 41 48 80 101 113 109 64 64 107
3310.0 57 125 154 59 56 117 133 106 103 82
3350.0 65 54 30 45 72 56 81 100 60 61
3390.0 94 80 47 76 72 86 49 7 72 72
3430.0 106 122 72 114 120 101 98 108 103 106
3470.0 103 45 3 7 48 80 67 76 84 51
3510.0 83 137 122 106 143 100 69 127 133 93
3550.0 72 81 73 50 57 72 56 24 4 0
3590.0 37 46 72 57 22 47 47 56 82 97
3630.0 89 114 73 39 48 3 48 35 4 94
3670.0 158 148 151 127 53 70 121 137 129 100
3710.0 127 101 43 88 72 75 99 113 118 71
3750.0 45 58 91 111 104 126 133 65 45 84
3790.0 125 178 156 105 69 103 149 143 138 86
3830.0 78 145 124 90 101
##END=
