##TITLE=2-Amino-5-chlorobenzamide
##JCAMP-DX=4.24
##DATA TYPE=INFRARED SPECTRUM
##ORIGIN=EPA-IR VAPOR PHASE LIBRARY
##OWNER=SRD/NIST
Collection (C) 2018 copyright by the U.S. Secretary of Commerce
on behalf of the United States of America. All rights reserved.
##CAS REGISTRY NO=5202-85-7
##MOLFORM=C 7 H 7 Cl N 2 O
##$NIST SOURCE=MSDC-IR
##STATE=gas
##XUNITS=1/CM
##YUNITS=ABSORBANCE
##XFACTOR=1.
##YFACTOR=0.001
##DELTAX=1.92898
##FIRSTX=549.8
##LASTX=4000.7
##FIRSTY=26.98
##MAXX=4000.7
##MINX=549.759
##MAXY=0.16196
##MINY=0.0001488
##NPOINTS=1790
##XYDATA=(X++(Y..Y))
549.759 26.98 26.55 25.99 24.36 23.16 22.23 20.79 20.06 19.78 19.27
569.049 18.72 18.61 18.23 17.86 17.68 17.05 16.86 16.9 17.22 17.7
588.339 17.21 16.86 16.97 17.08 16.93 16.65 17.01 17.29 17.44 18.07
607.628 18.41 18.58 19.09 19.52 19.98 20.18 20.68 21.28 21.77 23.08
626.918 24.72 26.21 27.87 29.44 30.93 31.92 32.2 32.41 32.91 33.59
646.208 33.85 33.87 33.42 32.9 32.99 33.35 33.67 33.71 33.73 33.07
665.498 31.79 30.33 28.69 26.46 23.85 21.76 19.71 17.94 16.84 16.32
684.787 15.94 15.63 15.59 15.71 15.05 14.72 15.19 14.91 14.78 14.8
704.077 14.58 14.34 14.15 14.22 14.3 14.08 13.85 13.98 14.1 14.12
723.367 13.81 13.92 14.4 14.42 14.53 14.63 14.55 14.44 14.35 14.57
742.657 14.93 14.83 14.41 14.29 14.2 14.16 14.22 13.77 13.06 12.32
761.947 12 11.99 11.89 12.15 12.21 12.17 12.56 12.79 12.87 13.04
781.236 13.26 13.09 13.01 13.17 13.53 13.82 14.3 14.97 15.8 17.8
800.526 19.87 22.08 24.74 27.58 30.48 33.49 36.85 40.08 40.2 35.96
819.816 32.13 29.9 27.17 24.52 22.49 20.29 18.04 16.63 15.41 14.33
839.106 13.71 13.08 12.77 12.78 12.63 12.53 12.49 12.43 12.47 12.67
858.395 13.4 14.2 14.99 16.09 17.12 18.11 19.06 20.11 21.1 21.52
877.685 21.58 21.13 20.18 19.1 17.62 16.52 15.96 15.32 14.51 13.66
896.975 13.14 12.71 12.58 12.37 11.96 11.89 11.92 11.69 11.51 11.28
916.265 10.82 10.58 10.31 10.02 10.09 10.15 9.93 9.68 9.5 9.24
935.555 8.94 8.67 8.55 8.43 8.34 8.39 8.14 7.86 7.86 7.98
954.844 7.92 7.93 7.89 7.77 7.43 7.04 7.3 7.25 7.03 7
974.134 6.96 6.97 6.98 6.81 6.56 6.5 6.56 6.72 6.82 6.95
993.424 7.24 7.18 6.94 6.9 6.86 6.99 6.73 6.75 6.83 6.49
1012.714 6.48 6.64 6.5 6.48 6.93 6.95 7.21 7.3 7.15 7.25
1032.003 7.16 7.52 7.91 8.11 8.38 8.4 8.82 9.55 9.94 10.6
1051.293 11.15 11.43 11.68 12.14 12.75 13.42 13.83 13.77 13.56 13.14
1070.583 12.67 12.11 11.58 11.71 10.85 9.78 9.56 8.95 9.32 9.23
1089.873 9.06 9.03 8.92 9.3 9.18 9.27 9.55 9.94 11.16 12.2
1109.163 12.14 12.28 12.01 11.61 11.41 11.75 12.29 12.75 13.85 14.68
1128.452 15.91 17.26 18.02 17.93 18.11 19.45 20.42 21.11 21.45 21.38
1147.742 22.37 23.56 24.21 24.59 24.17 23.6 24.27 24.32 22.44 19.92
1167.032 17.49 14.83 12.38 11.19 10.25 9.36 8.95 8.8 8.08 7.26
1186.322 7.77 8.77 9.09 8.65 7.92 7.6 7.48 6.86 6.87 7.43
1205.611 7.3 7.14 7.78 8.42 8.81 9.23 9.6 9.38 9.76 10.69
1224.901 11.5 12.98 14.58 16.2 17.65 19.74 22.21 24.13 26.32 29.41
1244.191 31.6 33.44 35.42 36.19 36.3 35.78 34.37 32.4 29.56 25.95
1263.481 22.88 20.15 17.56 15.91 15.24 14.28 13.99 14.7 15.01 15.6
1282.771 16.85 18.02 19.59 21.6 23.52 26.28 29.46 32.48 35.27 37.81
1302.060 39.78 40.77 41.14 40.92 40.1 38.82 37.29 35.51 33.61 31.73
1321.350 30.12 28.78 27.85 27.46 27.29 27.46 28.16 29.46 31.36 34.06
1340.640 37.75 42.35 47.9 54.46 61.72 68.92 75.59 81.3 85.24 86.98
1359.930 86.39 83.68 78.83 72.08 63.71 54.24 44.66 36.09 29.12 23.76
1379.219 19.84 17.02 15.14 13.99 13.23 12.88 13 13.46 14.14 15.13
1398.509 16.4 17.9 19.51 20.87 21.82 22.33 22.37 21.98 20.89 19.03
1417.799 16.72 14.42 12.43 10.82 9.7 8.84 8.24 7.93 7.67 7.43
1437.089 7.3 7.3 7.33 7.29 7.43 7.53 7.69 8.01 8.42 9.07
1456.378 9.73 10.67 12.03 13.81 15.99 18.82 22.05 25.69 30 34.83
1475.668 39.71 44.57 48.95 52.51 54.82 55.7 55.07 52.87 49.56 45.38
1494.958 40.32 35.03 29.96 25.16 21.34 18.61 16.44 14.91 14 13.3
1514.248 12.82 12.64 12.6 12.68 12.94 13.4 14.06 14.72 15.61 16.75
1533.538 18.06 19.82 21.89 24.37 27.12 30.03 33.22 36.1 38.46 40.6
1552.827 42.17 43.1 43.18 42.68 42.14 41.37 40.93 41.28 42.51 45.06
1572.117 48.88 53.7 59.58 65.99 72.29 78.62 85.07 91.32 96.79 101.25
1591.407 104.31 105.77 106.16 106.42 106.54 105.95 104.14 101.27 97.84 94.43
1610.697 91.5 88.59 85.18 81.51 77.43 72.57 66.92 60.73 54.24 47.9
1629.986 42.2 37.1 32.57 28.87 26.1 23.85 21.96 20.59 19.76 19.41
1649.276 19.67 20.1 20.7 21.6 22.47 23.49 24.51 25.25 25.79 26
1668.566 26.16 26.71 27.99 29.97 33.07 37.8 45.18 55.46 69.92 88.65
1687.856 108.75 128.14 143.8 154.43 160.29 161.96 158.15 147.32 130.55 110.13
1707.146 90.6 74.17 61.56 52.14 45.27 40.27 36.72 34.23 32.26 30.59
1726.435 29.25 28.01 26.74 25.66 24.52 23.38 22.21 20.81 19.38 17.81
1745.725 16.17 14.63 13.18 11.76 10.49 9.43 8.52 7.62 6.87 6.34
1765.015 5.79 5.29 4.84 4.4 4.12 3.9 3.7 3.52 3.29 3.13
1784.305 3.01 2.86 2.79 2.69 2.56 2.43 2.36 2.31 2.27 2.21
1803.594 2.1 2.14 2.18 2.12 2.13 2.15 2.2 2.15 2.02 2.01
1822.884 1.97 1.94 1.94 1.94 1.83 1.82 1.88 1.89 1.85 1.86
1842.174 1.92 2 2.1 2.08 2.12 2.27 2.38 2.38 2.45 2.66
1861.464 2.86 3.08 3.23 3.27 3.39 3.57 3.65 3.63 3.63 3.58
1880.754 3.44 3.21 3.06 2.86 2.6 2.31 2.1 2.04 1.81 1.76
1900.043 1.77 1.66 1.63 1.61 1.61 1.57 1.52 1.5 1.53 1.51
1919.333 1.45 1.46 1.47 1.44 1.39 1.46 1.57 1.43 1.25 1.29
1938.623 1.38 1.39 1.44 1.36 1.34 1.39 1.36 1.35 1.32 1.29
1957.913 1.29 1.24 1.24 1.19 1.09 1.17 1.25 1.24 1.17 1.17
1977.202 1.16 1.19 1.31 1.26 1.19 1.28 1.31 1.25 1.2 1.16
1996.492 1.25 1.29 1.3 1.2 1.13 1.13 1.13 1.07 1.06 1.1
2015.782 1.04 1.02 1.08 1.07 0.9495 0.9314 0.9766 1.02 1.07 1.05
2035.072 1.07 1.08 1.1 1.12 1.05 1.07 1.09 1.09 1.18 1.14
2054.362 1.13 1.11 0.9939 0.9379 0.9604 1.05 1.08 1.01 1.02 1.04
2073.651 0.9475 0.909 0.9075 0.918 0.9065 0.9414 0.9854 0.9933 0.9509 0.9181
2092.941 0.995 0.9454 0.9154 0.9761 1.09 1.07 0.9926 0.9942 0.9129 0.9822
2112.231 1.07 1.04 0.985 0.9513 1 1.03 1.06 1.1 0.9896 0.9813
2131.521 0.9954 0.9495 0.8116 0.7186 0.8297 0.9223 0.9146 0.8683 0.8113 0.8144
2150.810 0.8761 0.8664 0.9218 0.9177 0.9338 0.9721 0.9773 0.9789 0.9662 0.9936
2170.100 1.01 1.02 1.02 0.9477 0.8806 0.9143 0.9115 0.9011 1.03 1.1
2189.390 0.9308 0.8666 0.9298 0.9734 1.03 1.03 1.02 1.1 1.16 1.14
2208.680 1.07 1.04 1.06 1.17 1.26 1.21 1.18 1.18 1.14 1.12
2227.970 1.17 1.18 1.17 1.16 1.12 1.13 1.07 0.975 1.06 1.04
2247.259 1 0.9273 0.8509 0.7587 0.726 0.8018 0.7371 0.8182 0.9249 0.9191
2266.549 0.7987 0.6541 0.6772 0.7614 0.8092 0.8435 0.8473 0.8875 0.8157 0.6607
2285.839 0.6664 0.6759 0.7256 0.7874 0.7404 0.7979 0.9031 0.8683 0.8494 0.9309
2305.129 0.9146 0.8523 0.9375 0.9638 0.9946 0.9135 0.806 0.8712 0.9143 0.9014
2324.418 0.853 0.8421 0.8624 0.8241 0.772 0.7652 0.7552 0.8563 0.9614 0.9713
2343.708 0.9929 1.08 1.03 0.9477 0.977 0.882 0.8519 0.8241 0.8068 0.8901
2362.998 0.9531 0.9929 0.8722 0.8012 0.772 0.8071 0.8349 0.8689 0.9171 0.7883
2382.288 0.6374 0.6346 0.7073 0.7482 0.7702 0.7749 0.7993 0.7826 0.7761 0.7637
2401.578 0.7509 0.7734 0.8285 0.8675 0.8543 0.8249 0.7713 0.7007 0.7537 0.7486
2420.867 0.6708 0.6089 0.649 0.7291 0.5994 0.6754 0.8005 0.6891 0.693 0.7439
2440.157 0.6667 0.5619 0.6017 0.7644 0.7967 0.7227 0.6795 0.6928 0.7579 0.7852
2459.447 0.7349 0.7236 0.7647 0.8275 0.744 0.6847 0.7839 0.8236 0.869 0.8841
2478.737 0.843 0.739 0.7388 0.8298 0.745 0.7366 0.7498 0.6839 0.6629 0.6476
2498.026 0.6246 0.6013 0.5772 0.6215 0.6378 0.63 0.5257 0.5336 0.6389 0.4622
2517.316 0.3729 0.3261 0.2445 0.3424 0.4152 0.3501 0.4353 0.4538 0.3999 0.502
2536.606 0.5876 0.5282 0.4863 0.6329 0.7039 0.7432 0.7342 0.6799 0.7452 0.7273
2555.896 0.7496 0.82 0.681 0.5918 0.6178 0.6836 0.7023 0.6079 0.5925 0.5687
2575.186 0.6453 0.6848 0.5986 0.6062 0.653 0.6168 0.5315 0.6464 0.7223 0.7637
2594.475 0.8417 0.8717 1 1.06 1.03 1.03 1.03 0.9883 0.9274 1.03
2613.765 1.03 0.884 0.9136 0.8468 0.7855 0.6907 0.6455 0.7906 0.8411 0.8482
2633.055 0.8167 0.7537 0.8272 0.8748 0.86 0.8679 0.8261 0.8409 0.8368 0.8435
2652.345 0.7568 0.6963 0.7926 0.8314 0.8493 0.8275 0.8487 0.945 0.9313 0.8988
2671.634 0.8965 0.8659 0.817 0.8378 0.937 0.9447 0.8657 0.8616 0.9028 0.8151
2690.924 0.8062 0.8933 0.8973 0.7633 0.6862 0.8564 0.9139 0.8867 0.8389 0.8536
2710.214 0.902 0.8938 0.8415 0.802 0.8727 0.8557 0.9303 1.03 0.8874 0.9132
2729.504 1.01 0.8576 0.7753 0.8876 1.04 0.9647 0.8578 0.8376 0.9837 1.09
2748.794 0.9358 0.8929 1.07 1.14 1.14 1.01 0.8408 0.8527 0.919 1.11
2768.083 1.16 0.994 0.9034 0.9322 1.04 1.03 0.8844 0.9305 1.15 1.07
2787.373 0.9155 0.9375 0.8889 0.8759 0.8322 0.7317 0.7773 0.8651 0.8771 0.9248
2806.663 0.9543 0.9506 0.9097 0.9616 1.03 0.9869 0.8854 0.8513 0.8245 0.7103
2825.953 0.6556 0.6441 0.6278 0.684 0.8538 0.9518 0.8816 0.8695 0.8905 0.8404
2845.242 0.8905 0.8534 0.7831 0.8448 0.9746 1.08 1.02 1.06 1.17 1.17
2864.532 1.1 1.05 0.9499 0.862 1.05 1.06 1.04 1.16 0.9942 0.9537
2883.822 1.05 0.9658 0.8619 0.9383 1.09 1.01 0.8349 0.8012 0.8887 0.9901
2903.112 0.9076 0.8138 0.8993 0.9741 0.8869 0.7805 0.8881 0.9427 0.9232 0.976
2922.401 1 1.03 0.8526 0.8173 1.01 0.9049 0.9059 1.15 1.23 1.23
2941.691 1.22 1.22 1.15 1.17 1.24 1.25 1.11 1.07 1.14 1.11
2960.981 1.14 1.19 1.27 1.21 1.11 0.9687 0.9708 0.9981 0.9976 1.02
2980.271 1.07 1.1 1.03 1.14 1.3 1.13 1.09 1.19 1.25 1.26
2999.561 1.17 1.19 1.4 1.52 1.7 1.89 1.94 2.12 2.25 2.53
3018.850 2.9 3.51 4.04 4.41 4.83 5.32 5.65 5.74 5.83 5.85
3038.140 5.78 5.54 5.26 5.07 4.88 4.52 4.12 3.73 3.53 3.29
3057.430 2.91 2.99 3.05 2.97 3.07 3.27 3.5 3.45 3.44 3.55
3076.720 3.76 3.83 3.62 3.42 3.47 3.51 3.3 3.06 2.77 2.49
3096.009 2.22 2.2 2.15 2.06 2.1 1.8 1.7 1.69 1.55 1.64
3115.299 1.6 1.41 1.16 1.19 1.26 1.12 1.05 1.24 1.17 0.9939
3134.589 1.27 1.35 1.23 1.27 1.38 1.51 1.53 1.4 1.55 1.58
3153.879 1.48 1.63 1.68 1.59 1.53 1.56 1.54 1.62 1.61 1.57
3173.169 1.62 1.59 1.59 1.5 1.4 1.49 1.58 1.55 1.41 1.31
3192.458 1.3 1.41 1.45 1.45 1.55 1.54 1.41 1.47 1.47 1.3
3211.748 1.36 1.54 1.54 1.48 1.5 1.53 1.44 1.22 1.3 1.47
3231.038 1.38 1.29 1.38 1.4 1.37 1.41 1.3 1.37 1.73 1.66
3250.328 1.4 1.54 1.75 1.79 1.83 2.14 2.08 1.91 2.02 2.18
3269.617 2.3 2.28 2.43 2.4 2.35 2.61 2.77 2.9 3.07 3.17
3288.907 3.29 3.45 3.75 4 4.3 4.46 4.57 4.63 4.58 4.55
3308.197 4.42 4.51 4.54 4.39 4.38 4.36 4.22 4.54 4.79 4.75
3327.487 4.99 5.12 5.25 5.76 6.7 7.5 8.31 9.59 11.14 13.19
3346.777 15.6 18.22 21.09 24.02 26.89 29.69 32 33.89 35.31 35.85
3366.066 35.66 34.86 33.51 32.01 30.34 28.39 26.42 24.41 22.49 20.58
3385.356 18.73 17 15.26 13.61 12.12 11.14 10.31 9.44 8.81 8.58
3404.646 8.38 8.14 8.12 8.27 8.71 9.29 10.09 10.88 11.75 13.16
3423.936 14.67 16.23 17.8 18.98 19.75 20.03 19.99 19.77 18.96 17.56
3443.225 16.26 14.82 13.06 11.34 9.84 8.5 7.63 6.87 6.21 5.86
3462.515 5.5 5.55 5.67 5.76 5.84 6.12 6.55 6.58 6.87 7.41
3481.805 8.1 8.87 9.54 10.33 11.3 12.32 13.39 14.89 16.51 18.02
3501.095 19.6 21.01 21.93 22.62 23.07 22.95 22.56 22.22 21.47 20.19
3520.385 18.64 17.28 15.95 14.67 13.74 12.89 12.33 12.06 12.18 12.57
3539.674 12.85 13.47 14.35 14.99 15.25 15.46 15.51 15.28 14.99 14.26
3558.964 13.1 11.8 10.28 8.96 7.78 6.41 5.42 4.75 4.09 3.42
3578.254 3.03 2.84 2.61 2.45 2.31 2.16 1.87 1.76 1.84 1.87
3597.544 1.65 1.39 1.37 1.21 1.06 1.07 1.05 0.7624 0.6281 0.8005
3616.833 0.9499 0.8805 0.716 0.7781 0.6639 0.5389 0.5281 0.5752 0.4452 0.4556
3636.123 0.7537 0.6813 0.6313 0.6797 0.7111 0.8338 0.6945 0.5688 0.4394 0.5707
3655.413 0.8079 0.5501 0.5016 0.8397 0.9308 0.7816 0.7147 0.6974 0.7881 0.9616
3674.703 0.8492 0.6491 0.5584 0.4559 0.6144 0.6027 0.4738 0.5504 0.5913 0.4967
3693.993 0.5152 0.7451 0.7409 0.5885 0.7407 0.8833 0.8408 0.7774 0.7368 0.6209
3713.282 0.626 0.6506 0.6172 0.5817 0.2707 0.1488 0.5629 0.8729 0.8819 0.9442
3732.572 0.8039 0.6512 0.5397 0.6171 0.7489 0.6508 0.7654 0.6555 0.4324 0.3926
3751.862 0.4104 0.4439 0.4875 0.6183 0.6015 0.5549 0.493 0.6538 0.9636 0.8236
3771.152 0.7361 0.7049 0.4229 0.3307 0.375 0.3143 0.2536 0.4882 0.4473 0.3854
3790.441 0.4927 0.5977 0.5695 0.5907 0.7909 0.5722 0.5827 0.7395 0.6874 0.6517
3809.731 0.4881 0.4357 0.5231 0.411 0.6541 0.9132 0.6507 0.7574 0.9666 0.768
3829.021 0.5921 0.4992 0.5714 0.6714 0.6765 0.4855 0.4394 0.501 0.4737 0.5262
3848.311 0.8094 0.8767 0.508 0.5352 0.7433 0.7516 0.8261 0.6668 0.3907 0.4446
3867.601 0.4002 0.3473 0.328 0.4591 0.6966 0.6783 0.5501 0.5823 0.8115 0.9198
3886.890 0.8014 0.6183 0.5519 0.4878 0.629 0.6519 0.5828 0.7648 0.7199 0.5644
3906.180 0.521 0.6569 0.695 0.6693 0.7098 0.4342 0.3066 0.5072 0.5352 0.5359
3925.470 0.5395 0.6011 0.6398 0.8014 0.8469 0.8207 0.7369 0.6564 0.7472 0.653
3944.760 0.6488 0.7632 0.9587 0.9038 0.618 0.6965 0.8778 0.8074 0.7888 0.7774
3964.049 0.6423 0.606 0.5784 0.5757 0.5165 0.6431 0.8512 0.6099 0.4507 0.3709
3983.339 0.448 0.5101 0.4468 0.5783 0.7064 0.7084 0.6472 0.5637 0.6299 0.6908
##END=
