##TITLE=5-Decanol
##JCAMP-DX=4.24
##DATA TYPE=INFRARED SPECTRUM
##ORIGIN=NIST Mass Spectrometry Data Center
##OWNER=NIST Standard Reference Data Program
Collection (C) 2018 copyright by the U.S. Secretary of Commerce
on behalf of the United States of America. All rights reserved.
##CAS REGISTRY NO=5205-34-5
##MOLFORM=C 10 H 22 O
##$NIST SOURCE=MSDC-IR
##SPECTROMETER/DATA SYSTEM=HP-GC/MS/IRD
##STATE=gas
##XUNITS=1/CM
##YUNITS=ABSORBANCE
##XFACTOR=1.0
##YFACTOR=0.000005000
##DELTAX=4.0
##FIRSTX=550.0
##LASTX=3846.0
##FIRSTY=0.000310
##MAXX=3846
##MINX=550
##MAXY=0.05
##MINY=0
##NPOINTS=825
##XYDATA=(X++(Y..Y))
550.0 62 44 19 13 14 16 14 11 16 16
590.0 10 11 15 21 33 36 32 30 34 37
630.0 29 13 18 27 17 6 1 6 21 28
670.0 38 40 32 26 18 20 30 41 55 61
710.0 79 94 106 127 145 161 169 164 154 143
750.0 126 122 127 123 121 121 124 124 122 120
790.0 109 105 107 105 100 95 97 102 108 107
830.0 99 103 107 107 118 127 125 130 141 153
870.0 169 187 199 213 230 243 265 280 273 261
910.0 259 264 268 282 299 325 360 385 409 429
950.0 427 416 405 393 386 387 404 429 460 505
990.0 565 633 704 775 853 925 985 1031 1063 1072
1030.0 1055 1018 960 880 802 730 665 623 594 575
1070.0 569 566 558 547 537 538 537 540 555 566
1110.0 587 615 645 674 689 687 662 610 545 472
1150.0 412 365 332 315 318 328 344 372 388 405
1190.0 428 445 450 457 465 467 479 488 495 503
1230.0 517 534 546 552 558 568 568 562 546 524
1270.0 508 494 474 458 450 444 438 430 414 403
1310.0 401 390 384 386 396 418 449 487 525 553
1350.0 573 597 630 662 703 754 818 880 910 896
1390.0 825 723 628 546 478 426 389 368 365 380
1430.0 419 472 540 619 705 799 899 982 1014 984
1470.0 890 748 598 464 358 284 232 197 172 150
1510.0 131 119 108 97 88 81 75 69 66 63
1550.0 56 49 43 42 41 39 40 40 36 31
1590.0 29 29 29 29 26 22 24 22 17 18
1630.0 22 21 20 17 15 14 15 16 17 16
1670.0 14 13 13 11 7 7 8 7 8 9
1710.0 12 15 14 11 9 7 4 3 6 4
1750.0 3 4 2 1 0 2 4 4 3 3
1790.0 4 2 0 0 3 3 3 5 4 1
1830.0 2 3 2 3 2 4 9 9 7 7
1870.0 4 3 5 6 6 6 5 4 4 2
1910.0 2 5 3 1 2 1 0 0 1 2
1950.0 2 2 3 2 1 3 4 4 6 4
1990.0 4 5 3 2 4 5 6 7 7 10
2030.0 11 10 11 14 14 12 11 9 7 7
2070.0 7 9 9 10 9 6 6 8 6 5
2110.0 4 5 5 2 1 2 4 5 4 5
2150.0 5 6 8 8 10 10 8 6 5 5
2190.0 8 8 6 8 9 11 7 4 8 8
2230.0 6 6 5 5 6 8 8 8 8 4
2270.0 2 7 7 6 6 7 7 9 10 10
2310.0 12 13 11 9 11 15 17 16 14 13
2350.0 15 18 18 17 18 19 18 14 12 17
2390.0 18 18 17 15 15 15 10 11 16 16
2430.0 13 15 17 14 12 12 13 13 12 10
2470.0 12 14 13 12 11 10 13 16 13 13
2510.0 15 17 17 19 24 26 27 27 27 29
2550.0 31 32 35 41 46 43 44 43 46 54
2590.0 56 56 57 59 64 65 65 68 72 74
2630.0 76 83 88 93 101 103 101 107 115 120
2670.0 120 122 126 124 122 123 125 127 130 130
2710.0 129 132 136 143 150 159 170 178 185 189
2750.0 192 192 195 202 208 216 226 236 259 284
2790.0 298 319 347 376 405 445 495 544 604 685
2830.0 786 919 1095 1328 1639 2029 2500 3018 3514 3909
2870.0 4135 4210 4181 4057 3854 3613 3436 3449 3676 4083
2910.0 4639 5338 6175 7157 8231 9216 9881 10000 9483 8500
2950.0 7419 6631 6345 6487 6639 6297 5364 4105 2961 2173
2990.0 1668 1342 1115 944 818 715 633 565 502 449
3030.0 406 367 335 303 269 247 232 215 201 186
3070.0 177 171 158 153 154 149 143 130 124 122
3110.0 114 108 103 99 96 92 88 86 82 76
3150.0 74 74 70 68 67 66 65 59 62 64
3190.0 51 47 45 37 35 35 31 30 26 25
3230.0 22 20 17 14 15 17 14 12 9 5
3270.0 9 12 9 9 14 12 3 4 8 8
3310.0 5 5 6 8 5 6 14 10 2 5
3350.0 6 6 9 14 21 23 21 16 17 22
3390.0 23 22 22 18 23 24 24 29 27 24
3430.0 27 33 33 29 29 24 23 25 23 16
3470.0 15 16 17 21 20 16 16 21 24 21
3510.0 18 19 19 12 10 9 15 20 20 24
3550.0 25 25 20 16 19 19 18 19 21 24
3590.0 23 25 35 43 47 52 65 81 99 121
3630.0 148 183 222 276 339 393 412 394 333 259
3670.0 190 128 92 75 61 56 53 44 39 37
3710.0 33 31 34 29 22 26 24 24 29 29
3750.0 26 25 27 24 21 27 27 29 31 29
3790.0 26 24 25 26 28 28 28 36 41 38
3830.0 34 39 44 43 44
##END=
