##TITLE=3,5-Dinitro-4-hydroxybenzaldehyde
##JCAMP-DX=4.24
##DATA TYPE=INFRARED SPECTRUM
##ORIGIN=EPA-IR VAPOR PHASE LIBRARY
##OWNER=SRD/NIST
Collection (C) 2018 copyright by the U.S. Secretary of Commerce
on behalf of the United States of America. All rights reserved.
##CAS REGISTRY NO=52132-61-3
##MOLFORM=C 7 H 4 N 2 O 6
##$NIST SOURCE=MSDC-IR
##STATE=gas
##XUNITS=1/CM
##YUNITS=ABSORBANCE
##XFACTOR=1.
##YFACTOR=0.001
##DELTAX=3.85796
##FIRSTX=501.5
##LASTX=4000.7
##FIRSTY=0.498
##MAXX=4000.7
##MINX=501.534
##MAXY=0.02674
##MINY=0
##NPOINTS=908
##XYDATA=(X++(Y..Y))
501.534 0.498 0.734 0.908 1.0685 1.13032 1.20855 1.5014 1.4237 1.3447 1.4657
540.114 1.4124 1.5895 1.8731 1.9577 2.0298 1.7484 1.5491 1.6012 1.4697 1.4699
578.693 1.6831 1.8736 1.8918 1.8499 2.0651 2.28 2.35 2.49 2.6 2.77
617.273 2.98 3.03 2.96 2.89 2.94 2.93 2.91 3.08 3.16 3.23
655.852 3.26 3.3 3.49 3.81 4.09 4.18 4.18 4.06 4 4.01
694.432 4.04 4.12 4.27 4.54 4.91 5.54 6.44 7.55 8.45 8.51
733.011 7.55 5.87 4.4 3.58 3.14 2.87 2.68 2.62 2.88 3.29
771.591 3.82 4.27 4.1 3.55 2.91 2.23 1.7143 1.6272 1.6977 1.6552
810.170 1.6339 1.644 1.5557 1.4786 1.5058 1.4831 1.4208 1.3657 1.4444 1.5801
848.750 1.5461 1.4713 1.5106 1.5149 1.5409 1.5342 1.5848 1.6987 1.7669 1.9503
887.330 2.27 2.8 3.55 4.39 5.26 6.13 6.71 6.64 5.95 4.71
925.909 3.55 2.77 2.3 2.1256 2.18 2.38 2.69 3.29 3.96 4.25
964.489 4.08 3.48 2.74 2.16 1.7859 1.6524 1.6986 1.9156 1.9586 1.9073
1003.068 1.8398 1.5994 1.5576 1.6267 1.6104 1.4673 1.395 1.4526 1.4956 1.6086
1041.648 1.618 1.6446 1.5696 1.6211 1.7582 1.6461 1.7074 2.0207 2.33 2.76
1080.227 3.73 5.02 6.44 7.59 7.7 6.8 5.39 4.03 2.92 2.18
1118.807 1.8351 1.5499 1.4174 1.3433 1.2621 1.1995 1.3231 1.4787 1.5181 1.8105
1157.387 2.35 2.97 3.46 3.64 3.51 3.06 2.5 2.28 2.31 2.6
1195.966 3.48 4.95 7.1 9.71 11.79 12.57 11.78 9.66 7.54 6.32
1234.546 6.04 6.29 6.92 8.03 9.53 11.52 13.84 15.96 17.04 16.53
1273.125 14.49 12.12 10.06 8.45 7.62 7.55 8.07 9.06 10.64 12.69
1311.705 14.82 16.41 16.97 16.45 15.27 14.11 13.55 13.7 14.3 15.01
1350.284 15.35 14.84 13.42 11.42 9.54 8.45 8.21 8.24 7.95 7.18
1388.864 6.03 5 4.37 4.05 3.92 3.94 4.11 4.47 5.01 5.74
1427.443 6.68 7.52 7.99 7.89 7.23 6.36 5.57 5.07 4.86 4.84
1466.023 4.94 5.08 5.13 5.05 4.79 4.44 4.13 3.94 3.93 4.05
1504.603 4.25 4.52 4.82 5.2 5.66 6.2 6.92 7.88 9.13 10.89
1543.182 13.53 16.95 21.07 24.69 26.74 26.23 22.74 17.93 14.39 12.32
1581.762 11.5 11.2 10.88 10.4 10.01 9.88 10.21 11.03 12.26 14.15
1620.341 16.85 20.06 23.02 24.38 23.42 20.15 15.68 11.12 7.84 5.67
1658.921 4.53 3.86 3.58 3.52 3.5 3.56 3.62 3.62 3.56 3.44
1697.500 3.35 3.53 4.09 5.39 8.13 13.68 20.43 24.1 23.31 17.5
1736.080 9.86 5.52 3.73 3 2.65 2.5 2.48 2.41 2.31 2.23
1774.659 2.1124 1.974 1.842 1.7212 1.6338 1.594 1.5617 1.5653 1.6109 1.6115
1813.239 1.5737 1.505 1.4449 1.4585 1.4911 1.478 1.4047 1.3423 1.3133 1.2919
1851.819 1.2926 1.3087 1.3247 1.355 1.3673 1.343 1.3291 1.2963 1.2439 1.2226
1890.398 1.22437 1.21402 1.17806 1.15623 1.17103 1.19514 1.19491 1.2041 1.21896 1.2252
1928.978 1.20243 1.15946 1.15748 1.17351 1.19162 1.21093 1.17478 1.13056 1.13815 1.12971
1967.557 1.14866 1.17527 1.15187 1.14499 1.16513 1.14576 1.15626 1.20035 1.17091 1.15112
2006.137 1.16007 1.13612 1.13115 1.16069 1.19008 1.2321 1.20655 1.17731 1.17399 1.13136
2044.716 1.1088 1.1157 1.14351 1.16058 1.13021 1.1073 1.14949 1.18855 1.17343 1.1511
2083.296 1.14843 1.12455 1.1155 1.1342 1.13036 1.14007 1.15699 1.12605 1.1143 1.12111
2121.875 1.13486 1.15198 1.16117 1.14228 1.12343 1.12371 1.13652 1.19217 1.21293 1.19047
2160.455 1.17631 1.1656 1.18597 1.1962 1.19432 1.20914 1.18953 1.19635 1.20673 1.17851
2199.035 1.15617 1.17835 1.17158 1.14214 1.16401 1.1945 1.19211 1.2243 1.2352 1.21905
2237.614 1.2747 1.2733 1.2379 1.22169 1.2368 1.2464 1.2447 1.2708 1.2882 1.2854
2276.194 1.2714 1.2858 1.3176 1.2888 1.249 1.2706 1.2859 1.2923 1.2957 1.273
2314.773 1.2589 1.2556 1.2508 1.2316 1.1924 1.19551 1.21883 1.2476 1.2612 1.2327
2353.353 1.22716 1.2703 1.2796 1.2564 1.2809 1.3075 1.3098 1.3122 1.2724 1.2476
2391.932 1.2572 1.2573 1.2631 1.288 1.3009 1.2918 1.2898 1.2983 1.2999 1.3036
2430.512 1.329 1.3039 1.2942 1.3315 1.3443 1.3497 1.3256 1.3181 1.3422 1.3535
2469.092 1.3098 1.2833 1.29 1.2329 1.22559 1.2572 1.2628 1.2695 1.3254 1.3435
2507.671 1.3389 1.3738 1.3796 1.3658 1.332 1.3299 1.3791 1.3932 1.3467 1.3507
2546.251 1.389 1.3921 1.3984 1.3999 1.3871 1.3942 1.4169 1.4675 1.4622 1.4352
2584.830 1.4322 1.4277 1.4534 1.4268 1.4184 1.3816 1.3228 1.3694 1.4249 1.4564
2623.410 1.4682 1.4755 1.4888 1.5631 1.5816 1.5797 1.5826 1.5364 1.5302 1.5576
2661.989 1.5712 1.5157 1.5442 1.6294 1.6576 1.7167 1.7724 1.8157 1.8404 1.8246
2700.569 1.8639 1.9607 2.0726 2.26 2.62 3.01 3.35 3.51 3.39 3.11
2739.148 2.8 2.53 2.24 2.0863 1.9806 1.9033 1.8907 1.881 1.9281 1.9985
2777.728 2.044 2.21 2.42 2.66 2.98 3.22 3.45 3.73 3.95 4.19
2816.308 4.55 4.95 5.28 5.24 4.77 4.08 3.42 2.82 2.43 2.27
2854.887 2.18 2.19 2.19 2.1044 2.0255 1.9809 1.9671 1.9824 2.008 2.0301
2893.467 2.042 2.0367 2.0202 2.0196 2.0466 2.0198 1.9072 1.9033 1.9255 1.8216
2932.046 1.7798 1.7814 1.701 1.6854 1.7008 1.6199 1.5825 1.6241 1.6392 1.5861
2970.626 1.5364 1.4848 1.5147 1.611 1.6513 1.6104 1.5901 1.6112 1.555 1.5277
3009.205 1.5871 1.6184 1.6606 1.7023 1.709 1.669 1.6607 1.7067 1.7596 1.7937
3047.785 1.8427 1.8999 1.8855 1.899 1.9515 2.084 2.28 2.46 2.63 2.82
3086.364 2.92 2.83 2.66 2.59 2.6 2.6 2.55 2.48 2.48 2.53
3124.944 2.56 2.69 2.84 2.95 3.07 3.14 3.17 3.26 3.36 3.45
3163.524 3.54 3.59 3.58 3.65 3.68 3.68 3.69 3.68 3.7 3.69
3202.103 3.73 3.75 3.69 3.63 3.64 3.62 3.56 3.47 3.42 3.37
3240.683 3.33 3.28 3.21 3.2 3.24 3.26 3.14 3.01 2.98 2.96
3279.262 2.89 2.8 2.82 2.79 2.74 2.77 2.65 2.51 2.44 2.41
3317.842 2.45 2.42 2.3 2.23 2.19 2.16 2.17 2.13 2.0328 1.9793
3356.421 2.0067 2.0125 1.9614 1.8135 1.7364 1.7535 1.6417 1.6013 1.6859 1.6402
3395.001 1.5008 1.5534 1.5888 1.5381 1.584 1.5733 1.5453 1.6454 1.7835 1.8639
3433.580 1.8565 1.7435 1.6956 1.5878 1.3794 1.281 1.2446 1.236 1.1901 1.17246
3472.160 1.21566 1.21645 1.12042 1.0585 1.0557 1.0831 1.14391 1.1016 1.0461 1.013
3510.740 0.985 0.907 0.859 0.942 0.964 0.875 0.815 0.851 0.875 0.828
3549.319 0.739 0.713 0.709 0.681 0.72 0.718 0.729 0.814 0.815 0.671
3587.899 0.617 0.691 0.635 0.528 0.493 0.504 0.512 0.496 0.464 0.472
3626.478 0.498 0.56 0.529 0.417 0.339 0.277 0.322 0.406 0.427 0.41
3665.058 0.39 0.431 0.338 0.201 0.346 0.441 0.43 0.408 0.449 0.428
3703.637 0.267 0.297 0.407 0.358 0.287 0.284 0.256 0.242 0.162 0.151
3742.217 0.261 0.293 0.29 0.28 0.272 0.295 0.346 0.227 0.1 0.207
3780.797 0.323 0.465 0.489 0.349 0.307 0.285 0.212 0.236 0.243 0.175
3819.376 0.185 0.213 0.165 0.185 0.294 0.289 0.181 0.13 0.175 0.12
3857.956 0.11 0.146 0.1 0.06 0.169 0.23 0.231 0.249 0.276 0.328
3896.535 0.317 0.291 0.207 0.13 0.215 0.197 0.12 0.131 0.13 0.265
3935.115 0.22 0.199 0.218 0.184 0.213 0.32 0.402 0.287 0.236 0.329
3973.694 0.236 0.141 0.215 0.195 0.06 0 0.03 0.135
##END=
