##TITLE=2,3-Difluorocinnamic acid
##JCAMP-DX=4.24
##DATA TYPE=INFRARED SPECTRUM
##ORIGIN=EPA-IR VAPOR PHASE LIBRARY
##OWNER=SRD/NIST
Collection (C) 2018 copyright by the U.S. Secretary of Commerce
on behalf of the United States of America. All rights reserved.
##CAS REGISTRY NO=52158-22-2
##MOLFORM=C 9 H 6 F 2 O 2
##$NIST SOURCE=MSDC-IR
##STATE=gas
##XUNITS=1/CM
##YUNITS=ABSORBANCE
##XFACTOR=1.
##YFACTOR=0.001
##DELTAX=1.92934
##FIRSTX=549.9
##LASTX=3999.5
##FIRSTY=10.054
##MAXX=3999.53
##MINX=549.863
##MAXY=0.049244
##MINY=0
##NPOINTS=1789
##XYDATA=(X++(Y..Y))
549.863 10.054 9.624 9.194 8.874 8.604 8.244 7.904 7.844 7.914 7.944
569.156 8.074 8.214 8.194 8.224 8.184 8.024 7.814 7.414 7.034 6.574
588.450 5.964 5.314 4.674 4.154 3.724 3.444 3.244 3.084 3.014 2.984
607.743 3.004 3.064 3.264 3.454 3.564 3.724 3.964 4.204 4.404 4.634
627.037 4.914 5.164 5.494 5.824 6.024 6.114 6.074 5.744 5.304 4.824
646.330 4.134 3.524 2.994 2.514 2.104 1.8165 1.6697 1.5149 1.3927 1.3794
665.624 1.3694 1.3481 1.3801 1.4035 1.341 1.3048 1.4151 1.6092 1.7609 1.854
684.917 2.094 2.444 2.834 3.294 3.774 4.304 4.914 5.524 5.954 6.164
704.210 6.154 6.004 5.754 5.414 5.044 4.624 4.224 3.874 3.594 3.414
723.504 3.304 3.254 3.264 3.254 3.284 3.374 3.424 3.504 3.604 3.694
742.797 3.714 3.684 3.634 3.594 3.564 3.384 3.134 2.944 2.864 2.834
762.091 2.834 2.954 3.214 3.614 4.154 4.784 5.514 6.264 6.934 7.664
781.384 8.514 9.404 9.544 8.464 7.324 6.564 5.754 4.894 4.044 3.284
800.678 2.694 2.254 1.974 1.7726 1.6949 1.6861 1.7541 1.884 2.014 2.134
819.971 2.254 2.454 2.634 2.754 2.894 3.014 3.064 2.994 2.884 2.764
839.264 2.634 2.464 2.264 2.114 1.984 1.864 1.7545 1.7087 1.7282 1.7708
858.558 1.834 1.924 1.984 2.034 2.064 2.114 2.134 2.114 2.064 2.054
877.851 2.054 2.054 2.134 2.234 2.364 2.504 2.634 2.724 2.754 2.714
897.145 2.624 2.554 2.414 2.254 2.114 1.934 1.782 1.7055 1.6821 1.6386
916.438 1.5889 1.5361 1.5583 1.6418 1.7118 1.7923 1.904 2.024 2.164 2.294
935.732 2.344 2.394 2.404 2.324 2.234 2.134 2.054 1.974 1.874 1.844
955.025 1.864 1.954 2.144 2.344 2.614 2.994 3.444 4.004 4.644 5.294
974.318 5.974 6.654 7.274 7.784 8.094 8.124 7.904 7.484 7.004 6.544
993.612 6.044 5.534 5.034 4.614 4.334 4.164 4.024 3.944 3.914 3.924
1012.905 3.914 3.934 4.044 4.224 4.394 4.564 4.684 4.664 4.564 4.414
1032.199 4.234 3.924 3.524 3.204 2.944 2.754 2.694 2.654 2.684 2.814
1051.492 3.024 3.264 3.564 3.824 4.064 4.284 4.434 4.534 4.554 4.524
1070.786 4.434 4.304 4.144 4.004 3.974 3.944 3.964 4.064 4.224 4.504
1090.079 4.804 5.114 5.484 5.974 6.604 7.464 8.674 10.284 12.404 15.184
1109.372 18.704 22.854 27.464 32.104 36.054 38.934 40.434 40.374 38.564 35.254
1128.666 31.234 27.154 23.324 19.954 17.304 15.544 14.574 14.244 14.434 15.074
1147.959 16.164 17.594 19.114 20.424 21.194 21.224 20.674 19.734 18.204 16.014
1167.253 13.524 11.244 9.384 7.914 6.764 5.944 5.354 4.914 4.614 4.434
1186.546 4.354 4.324 4.354 4.434 4.644 5.014 5.564 6.254 7.084 7.864
1205.840 8.434 8.744 8.754 8.474 7.964 7.274 6.484 5.844 5.504 5.484
1225.133 5.654 5.914 6.214 6.514 6.774 6.964 7.064 7.134 7.144 7.134
1244.426 7.204 7.394 7.674 8.064 8.564 9.174 9.834 10.504 11.254 12.124
1263.720 13.124 14.134 14.994 15.794 16.544 17.144 17.654 18.004 18.134 18.134
1283.013 18.014 17.834 17.574 17.234 16.754 16.014 15.064 13.944 12.664 11.304
1302.307 9.944 8.764 7.864 7.214 6.844 6.624 6.504 6.514 6.464 6.424
1321.600 6.364 6.254 6.154 6.014 5.864 5.724 5.624 5.644 5.684 5.784
1340.894 6.004 6.314 6.794 7.394 8.054 8.824 9.694 10.494 11.114 11.534
1360.187 11.684 11.484 11.004 10.334 9.504 8.554 7.634 6.744 5.934 5.244
1379.480 4.604 4.014 3.494 3.084 2.754 2.494 2.314 2.174 2.044 1.934
1398.774 1.854 1.7403 1.6372 1.5952 1.5756 1.5678 1.5546 1.5285 1.5138 1.4992
1418.067 1.4709 1.4563 1.4458 1.4425 1.4422 1.447 1.4726 1.4714 1.5125 1.6267
1437.361 1.6606 1.6535 1.74 1.884 2.034 2.174 2.374 2.654 3.074 3.584
1456.654 4.214 5.014 5.994 7.274 8.854 10.664 12.534 14.434 16.364 18.394
1475.948 20.424 22.364 24.024 25.244 25.934 26.034 25.544 24.444 22.744 20.614
1495.241 18.154 15.534 13.064 10.824 8.914 7.374 6.124 5.184 4.474 3.894
1514.534 3.434 3.054 2.764 2.574 2.394 2.224 2.114 2.034 1.944 1.832
1533.828 1.7805 1.7562 1.6823 1.6079 1.6059 1.6457 1.6576 1.6766 1.7541 1.7751
1553.121 1.773 1.8226 1.874 1.964 2.104 2.224 2.294 2.404 2.544 2.714
1572.415 2.924 3.144 3.404 3.804 4.284 4.784 5.334 5.924 6.464 6.844
1591.708 7.054 7.004 6.674 6.164 5.574 4.934 4.374 4.034 3.924 3.994
1611.002 4.204 4.474 4.744 5.024 5.324 5.534 5.654 5.784 5.904 6.034
1630.295 6.274 6.674 7.264 8.114 9.154 10.284 11.214 11.714 11.694 11.124
1649.588 10.134 8.654 6.654 4.834 3.554 2.774 2.324 2.134 2.054 1.964
1668.882 1.914 1.884 1.924 1.994 1.984 1.934 1.884 1.834 1.7999 1.7903
1688.175 1.8245 1.801 1.7987 1.844 1.904 1.944 1.974 2.114 2.274 2.444
1707.469 2.664 2.924 3.224 3.554 3.924 4.304 4.714 5.174 5.684 6.244
1726.762 6.894 7.564 8.254 9.074 10.104 11.364 12.934 15.044 17.864 21.704
1746.056 26.484 32.004 37.554 42.424 45.994 48.304 49.244 47.954 44.034 38.814
1765.349 34.064 30.024 26.124 22.164 18.424 15.634 13.724 12.344 11.364 10.734
1784.642 10.244 9.824 9.414 8.924 8.314 7.654 6.914 6.134 5.404 4.704
1803.936 4.124 3.614 3.184 2.864 2.594 2.364 2.184 2.064 1.984 1.894
1823.229 1.844 1.834 1.7989 1.7352 1.7035 1.6874 1.7128 1.7576 1.7865 1.8002
1842.523 1.8038 1.834 1.854 1.8138 1.7711 1.6774 1.5666 1.463 1.3535 1.288
1861.816 1.2431 1.2109 1.1687 1.1629 1.1759 1.123 1.0835 1.0566 1.0433 1.0591
1881.110 1.0335 1.0094 1.0052 0.9704 0.9315 0.90737 0.90778 0.91046 0.89697 0.91692
1900.403 0.9396 0.9462 0.9724 1.0213 1.062 1.0726 1.0997 1.1515 1.1474 1.0899
1919.696 1.0597 1.043 1.0008 0.92771 0.8684 0.84779 0.8005 0.7573 0.7773 0.7904
1938.990 0.7585 0.7608 0.7629 0.7389 0.724 0.713 0.717 0.711 0.723 0.736
1958.283 0.7372 0.718 0.711 0.732 0.716 0.686 0.707 0.703 0.674 0.68
1977.577 0.683 0.658 0.624 0.628 0.645 0.658 0.653 0.638 0.634 0.628
1996.870 0.646 0.647 0.629 0.631 0.632 0.633 0.623 0.611 0.602 0.617
2016.164 0.641 0.634 0.649 0.674 0.686 0.699 0.692 0.688 0.708 0.733
2035.457 0.7591 0.7521 0.7478 0.7791 0.7891 0.818 0.86655 0.87657 0.85627 0.86184
2054.750 0.87272 0.86193 0.840709 0.8205 0.8128 0.7942 0.7561 0.734 0.708 0.685
2074.044 0.666 0.61 0.591 0.615 0.62 0.587 0.574 0.56 0.543 0.571
2093.337 0.572 0.546 0.553 0.554 0.511 0.532 0.57 0.546 0.531 0.508
2112.631 0.481 0.498 0.519 0.511 0.503 0.525 0.504 0.493 0.527 0.539
2131.924 0.515 0.503 0.515 0.511 0.533 0.554 0.553 0.537 0.51 0.504
2151.218 0.493 0.462 0.49 0.516 0.501 0.492 0.482 0.488 0.49 0.495
2170.511 0.508 0.505 0.501 0.508 0.509 0.505 0.525 0.538 0.536 0.54
2189.804 0.555 0.563 0.539 0.519 0.544 0.575 0.598 0.608 0.596 0.588
2209.098 0.599 0.622 0.63 0.602 0.592 0.638 0.632 0.605 0.635 0.651
2228.391 0.661 0.665 0.658 0.642 0.632 0.647 0.612 0.586 0.611 0.606
2247.685 0.581 0.575 0.586 0.592 0.578 0.562 0.555 0.534 0.521 0.524
2266.978 0.521 0.537 0.543 0.546 0.534 0.527 0.515 0.503 0.511 0.529
2286.272 0.541 0.527 0.524 0.524 0.524 0.544 0.574 0.601 0.613 0.609
2305.565 0.578 0.573 0.592 0.594 0.602 0.605 0.601 0.584 0.582 0.577
2324.858 0.567 0.556 0.518 0.522 0.536 0.516 0.493 0.466 0.462 0.481
2344.152 0.465 0.441 0.446 0.436 0.472 0.471 0.441 0.436 0.41 0.425
2363.445 0.421 0.393 0.401 0.428 0.458 0.47 0.462 0.477 0.471 0.418
2382.739 0.402 0.424 0.426 0.402 0.375 0.381 0.383 0.397 0.416 0.426
2402.032 0.408 0.4 0.431 0.446 0.469 0.451 0.451 0.475 0.464 0.474
2421.326 0.491 0.484 0.493 0.493 0.468 0.471 0.49 0.481 0.459 0.474
2440.619 0.506 0.49 0.47 0.456 0.471 0.511 0.528 0.54 0.559 0.574
2459.912 0.552 0.529 0.539 0.547 0.556 0.567 0.558 0.512 0.5 0.56
2479.206 0.593 0.551 0.502 0.48 0.485 0.498 0.454 0.473 0.529 0.514
2498.499 0.484 0.483 0.494 0.474 0.438 0.442 0.466 0.452 0.437 0.418
2517.793 0.391 0.401 0.433 0.438 0.393 0.385 0.389 0.375 0.391 0.385
2537.086 0.375 0.394 0.449 0.443 0.409 0.418 0.399 0.388 0.398 0.412
2556.380 0.404 0.394 0.441 0.464 0.422 0.442 0.455 0.447 0.454 0.456
2575.673 0.489 0.455 0.44 0.486 0.479 0.456 0.445 0.44 0.451 0.444
2594.966 0.412 0.398 0.393 0.383 0.379 0.368 0.349 0.362 0.341 0.304
2614.260 0.312 0.327 0.357 0.321 0.262 0.264 0.282 0.319 0.305 0.29
2633.553 0.319 0.317 0.29 0.25 0.26 0.285 0.274 0.27 0.266 0.251
2652.847 0.261 0.253 0.21 0.203 0.194 0.207 0.233 0.282 0.266 0.2
2672.140 0.21 0.228 0.223 0.201 0.229 0.24 0.206 0.224 0.262 0.234
2691.434 0.232 0.239 0.264 0.255 0.201 0.22 0.226 0.246 0.235 0.23
2710.727 0.248 0.231 0.216 0.195 0.206 0.214 0.179 0.201 0.19 0.161
2730.020 0.168 0.194 0.252 0.243 0.211 0.221 0.213 0.206 0.221 0.257
2749.314 0.304 0.3 0.262 0.216 0.221 0.278 0.277 0.249 0.246 0.228
2768.607 0.22 0.212 0.203 0.232 0.194 0.163 0.177 0.176 0.192 0.181
2787.901 0.188 0.163 0.168 0.192 0.181 0.212 0.198 0.164 0.188 0.148
2807.194 0.097 0.089 0.079 0.096 0.122 0.15 0.158 0.153 0.122 0.13
2826.488 0.19 0.192 0.14 0.117 0.103 0.086 0.108 0.086 0.108 0.13
2845.781 0.095 0.089 0.067 0.065 0.088 0.096 0.136 0.168 0.131 0.125
2865.074 0.144 0.146 0.169 0.157 0.162 0.204 0.18 0.182 0.224 0.235
2884.368 0.218 0.187 0.206 0.21 0.198 0.213 0.162 0.114 0.113 0.084
2903.661 0.118 0.132 0.139 0.203 0.177 0.118 0.17 0.217 0.145 0.097
2922.955 0.111 0.12 0.088 0.127 0.147 0.165 0.167 0.164 0.151 0.075
2942.248 0.056 0.131 0.213 0.175 0.122 0.155 0.184 0.124 0.064 0.075
2961.542 0.087 0.064 0.111 0.145 0.13 0.169 0.098 0.079 0.168 0.152
2980.835 0.117 0.12 0.163 0.228 0.267 0.186 0.111 0.137 0.169 0.166
3000.128 0.139 0.124 0.222 0.332 0.269 0.208 0.15 0.136 0.278 0.24
3019.422 0.197 0.32 0.295 0.299 0.389 0.416 0.436 0.43 0.432 0.474
3038.715 0.528 0.554 0.616 0.687 0.7485 0.8071 0.8234 0.86294 0.90251 0.87947
3058.009 0.92829 0.9394 0.9344 1.1042 1.142 1.1371 1.2412 1.2562 1.2564 1.2796
3077.302 1.2623 1.1988 1.1369 1.1051 1.0758 0.9841 0.7867 0.69 0.679 0.687
3096.596 0.663 0.632 0.606 0.545 0.481 0.459 0.437 0.352 0.365 0.319
3115.889 0.235 0.158 0.163 0.227 0.133 0.102 0.183 0.236 0.258 0.146
3135.182 0.115 0.238 0.217 0.082 0.082 0.122 0.198 0.232 0.103 0.072
3154.476 0.12 0.175 0.096 0.052 0.09 0.13 0.234 0.208 0.141 0.176
3173.769 0.197 0.143 0.108 0.199 0.221 0.113 0.047 0.038 0.055 0.021
3193.063 0 0.075 0.138 0.155 0.153 0.22 0.171 0.015 0.007 0.072
3212.356 0.223 0.258 0.237 0.206 0.062 0.065 0.087 0.114 0.154 0.237
3231.650 0.318 0.203 0.167 0.172 0.132 0.201 0.324 0.346 0.231 0.179
3250.943 0.252 0.25 0.278 0.374 0.368 0.279 0.181 0.183 0.228 0.261
3270.236 0.317 0.261 0.201 0.232 0.253 0.223 0.303 0.405 0.392 0.351
3289.530 0.406 0.45 0.352 0.291 0.256 0.231 0.208 0.229 0.208 0.243
3308.823 0.3 0.298 0.364 0.42 0.412 0.381 0.387 0.435 0.432 0.445
3328.117 0.452 0.358 0.312 0.39 0.476 0.383 0.372 0.438 0.481 0.548
3347.410 0.525 0.553 0.518 0.371 0.428 0.385 0.291 0.413 0.459 0.407
3366.704 0.476 0.572 0.529 0.512 0.526 0.496 0.468 0.454 0.42 0.507
3385.997 0.59 0.536 0.525 0.526 0.479 0.434 0.468 0.52 0.533 0.62
3405.290 0.682 0.628 0.575 0.518 0.497 0.562 0.631 0.602 0.578 0.542
3424.584 0.554 0.656 0.647 0.631 0.657 0.653 0.678 0.705 0.615 0.54
3443.877 0.632 0.656 0.633 0.685 0.603 0.601 0.692 0.694 0.694 0.684
3463.171 0.658 0.632 0.681 0.7442 0.7363 0.7469 0.693 0.641 0.707 0.8055
3482.464 0.839286 0.7725 0.7818 0.89392 0.9422 1.0212 1.0337 0.9799 1.0335 1.0226
3501.758 0.9946 1.0434 1.0225 0.9746 0.91588 0.90721 0.92065 0.91446 0.88397 0.83126
3521.051 0.92444 0.9522 0.835729 0.8119 0.86451 0.85219 0.8225 0.7661 0.8212 0.87763
3540.344 0.85468 0.85521 0.83167 0.91319 0.9939 1.0177 1.0358 1.0955 1.191 1.2375
3559.638 1.3485 1.5222 1.864 2.314 3.094 4.484 6.514 9.434 13.084 16.734
3578.931 19.474 20.944 21.414 20.734 18.504 15.024 11.404 8.404 5.874 3.964
3598.225 2.714 1.984 1.6994 1.4947 1.2793 1.0924 1.0916 1.1076 1.009 0.9662
3617.518 0.9446 0.89388 0.88745 0.91652 0.86932 0.7982 0.8225 0.86899 0.8321 0.836039
3636.812 0.842756 0.7839 0.7614 0.78 0.8166 0.86279 0.88577 0.87907 0.87069 0.88754
3656.105 0.9529 0.87445 0.83017 0.87875 0.8098 0.7764 0.8038 0.707 0.661 0.753
3675.398 0.66 0.616 0.713 0.7 0.678 0.717 0.7638 0.7363 0.65 0.698
3694.692 0.775 0.712 0.682 0.692 0.7401 0.7391 0.735 0.7474 0.694 0.697
3713.985 0.724 0.7727 0.701 0.579 0.684 0.8023 0.8207 0.7829 0.731 0.698
3733.279 0.694 0.7353 0.7497 0.712 0.665 0.637 0.63 0.648 0.617 0.56
3752.572 0.597 0.662 0.679 0.699 0.691 0.702 0.716 0.71 0.676 0.596
3771.866 0.599 0.634 0.667 0.678 0.679 0.699 0.665 0.622 0.627 0.671
3791.159 0.683 0.641 0.658 0.685 0.674 0.665 0.674 0.642 0.587 0.64
3810.452 0.61 0.613 0.651 0.621 0.618 0.609 0.615 0.674 0.668 0.588
3829.746 0.578 0.584 0.6 0.63 0.615 0.578 0.615 0.669 0.616 0.585
3849.039 0.575 0.569 0.612 0.617 0.638 0.674 0.659 0.66 0.647 0.647
3868.333 0.691 0.715 0.7647 0.717 0.667 0.686 0.709 0.714 0.697 0.7403
3887.626 0.7433 0.685 0.683 0.732 0.7375 0.72 0.684 0.698 0.703 0.682
3906.920 0.672 0.626 0.656 0.696 0.732 0.714 0.639 0.648 0.631 0.648
3926.213 0.658 0.601 0.586 0.59 0.637 0.639 0.663 0.647 0.618 0.674
3945.506 0.7 0.656 0.665 0.7 0.642 0.573 0.628 0.674 0.575 0.595
3964.800 0.68 0.605 0.547 0.604 0.602 0.587 0.584 0.541 0.572 0.605
3984.093 0.587 0.545 0.528 0.553 0.571 0.642 0.637 0.599 0.601
##END=
