##TITLE=Ethopropazine
##JCAMP-DX=4.24
##DATA TYPE=INFRARED SPECTRUM
##ORIGIN=NIST Mass Spectrometry Data Center
##OWNER=NIST Standard Reference Data Program
Collection (C) 2018 copyright by the U.S. Secretary of Commerce
on behalf of the United States of America. All rights reserved.
##CAS REGISTRY NO=522-00-9
##MOLFORM=C 19 H 24 N 2 S
##$NIST SOURCE=MSDC-IR
##SPECTROMETER/DATA SYSTEM=HP-GC/MS/IRD
##STATE=gas
##XUNITS=1/CM
##YUNITS=ABSORBANCE
##XFACTOR=1.0
##YFACTOR=0.000004300
##DELTAX=4.0
##FIRSTX=550.0
##LASTX=3846.0
##FIRSTY=0.000658
##MAXX=3846
##MINX=550
##MAXY=0.043
##MINY=0
##NPOINTS=825
##XYDATA=(X++(Y..Y))
550.0 153 161 148 145 161 165 184 194 185 183
590.0 171 144 142 153 175 202 227 219 170 126
630.0 133 174 216 195 121 63 41 29 21 24
670.0 19 8 5 8 12 10 22 42 42 40
710.0 56 56 44 49 54 75 98 111 149 206
750.0 251 285 342 446 613 848 1050 1011 762 542
790.0 469 601 849 976 910 787 703 679 684 691
830.0 690 687 689 652 559 445 352 293 252 213
870.0 186 174 174 193 218 231 229 219 211 221
910.0 260 336 413 463 483 483 491 510 550 574
950.0 548 502 474 502 584 686 793 876 850 721
990.0 626 635 733 884 1020 1077 1063 1048 1072 1137
1030.0 1251 1428 1630 1790 1825 1691 1444 1166 921 735
1070.0 634 646 719 725 619 509 457 438 415 377
1110.0 360 345 329 320 325 360 432 535 677 816
1150.0 909 979 1092 1312 1729 2226 2308 1828 1278 981
1190.0 863 833 851 898 992 1147 1355 1581 1801 2105
1230.0 2581 3199 3842 4375 4656 4535 4024 3354 2766 2355
1270.0 2097 1950 1881 1861 1869 1892 1893 1828 1687 1512
1310.0 1362 1264 1192 1111 1023 956 942 1017 1243 1648
1350.0 2174 2626 2813 2687 2358 2035 1920 2031 2249 2356
1390.0 2161 1747 1394 1273 1348 1545 1793 2037 2290 2585
1430.0 2884 3060 3021 2799 2495 2247 2132 2154 2246 2357
1470.0 2466 2627 2927 3452 4247 5323 6619 7983 9178 10000
1510.0 9998 8445 5858 3729 2645 2241 2250 2633 3317 3811
1550.0 3547 2734 2118 2002 2256 2853 3853 5352 7068 8310
1590.0 8244 6849 5031 3622 2778 2257 1831 1401 1034 779
1630.0 612 502 418 364 326 296 268 243 228 213
1670.0 201 189 176 166 156 150 148 145 144 144
1710.0 140 132 131 130 126 127 131 140 150 154
1750.0 153 152 148 137 122 107 93 83 74 73
1790.0 67 61 58 54 53 52 50 47 43 42
1830.0 47 48 46 42 47 55 56 54 56 56
1870.0 58 62 59 53 48 45 45 46 47 41
1910.0 42 44 45 46 54 68 83 95 97 82
1950.0 60 45 41 36 33 31 35 40 43 42
1990.0 46 47 48 51 50 48 48 46 46 45
2030.0 46 47 50 55 57 58 61 66 70 72
2070.0 70 69 64 59 54 47 38 27 20 15
2110.0 12 8 6 4 1 2 3 1 2 1
2150.0 3 5 4 3 5 6 0 1 6 5
2190.0 5 7 8 7 5 9 15 18 21 22
2230.0 24 29 35 38 41 49 52 49 48 52
2270.0 58 65 69 74 78 80 85 86 79 66
2310.0 53 41 36 34 34 37 34 35 38 40
2350.0 48 51 53 56 56 56 52 50 45 39
2390.0 37 36 34 29 30 31 36 40 39 38
2430.0 41 42 41 41 36 31 34 39 45 45
2470.0 47 51 52 51 52 56 58 58 59 59
2510.0 61 64 67 70 67 67 64 60 58 57
2550.0 57 60 58 57 59 56 54 57 57 54
2590.0 53 56 58 62 66 66 64 63 62 62
2630.0 65 71 72 75 82 88 91 90 93 98
2670.0 99 102 113 122 131 140 155 176 197 217
2710.0 238 262 291 311 334 372 407 444 492 553
2750.0 626 716 849 1039 1310 1620 1855 1909 1797 1644
2790.0 1494 1362 1247 1157 1109 1110 1166 1276 1396 1441
2830.0 1384 1301 1287 1308 1266 1168 1085 1049 1037 1013
2870.0 982 950 926 923 939 968 1015 1080 1168 1274
2910.0 1383 1479 1551 1600 1660 1751 1898 2093 2293 2431
2950.0 2447 2344 2159 1969 1857 1855 1892 1836 1673 1476
2990.0 1328 1272 1295 1350 1334 1173 971 868 902 1048
3030.0 1211 1233 1078 885 759 651 543 467 441 453
3070.0 470 453 397 325 277 263 265 282 301 308
3110.0 291 245 191 161 147 131 120 111 101 97
3150.0 98 100 103 107 106 112 109 98 92 86
3190.0 75 65 55 48 43 35 26 26 33 35
3230.0 30 25 21 22 23 17 13 15 18 17
3270.0 14 12 12 10 11 15 15 11 11 17
3310.0 21 25 21 14 13 9 10 15 16 16
3350.0 19 17 14 11 10 12 13 13 13 20
3390.0 20 14 15 14 10 11 19 24 21 24
3430.0 24 10 4 8 12 12 12 22 19 12
3470.0 11 10 8 12 15 10 11 13 15 13
3510.0 11 12 5 6 6 5 11 13 14 9
3550.0 10 11 8 13 12 11 20 23 17 7
3590.0 7 11 13 15 15 7 13 22 16 10
3630.0 12 15 20 29 24 24 23 24 27 20
3670.0 16 19 20 22 24 26 23 22 23 19
3710.0 17 22 27 22 18 22 18 12 16 23
3750.0 26 29 27 24 26 37 36 29 26 33
3790.0 33 26 27 35 37 38 43 44 44 43
3830.0 41 42 49 49 48
##END=
