##TITLE=6-Benzoyl-2-naphthol
##JCAMP-DX=4.24
##DATA TYPE=INFRARED SPECTRUM
##ORIGIN=NIST Mass Spectrometry Data Center
##OWNER=NIST Standard Reference Data Program
Collection (C) 2018 copyright by the U.S. Secretary of Commerce
on behalf of the United States of America. All rights reserved.
##CAS REGISTRY NO=52222-87-4
##MOLFORM=C 17 H 12 O 2
##$NIST SOURCE=MSDC-IR
##SPECTROMETER/DATA SYSTEM=HP-GC/MS/IRD
##STATE=gas
##XUNITS=1/CM
##YUNITS=ABSORBANCE
##XFACTOR=1.0
##YFACTOR=0.000002000
##DELTAX=4.0
##FIRSTX=550.0
##LASTX=3846.0
##FIRSTY=0.001164
##MAXX=3846
##MINX=550
##MAXY=0.02
##MINY=0
##NPOINTS=825
##XYDATA=(X++(Y..Y))
550.0 582 354 212 242 200 179 187 218 213 111
590.0 74 62 29 24 31 34 67 104 115 244
630.0 546 762 641 387 298 268 222 228 288 401
670.0 708 1243 1695 1664 1439 1598 2000 2139 2017 1958
710.0 2157 2481 2543 2165 1558 1055 772 673 665 641
750.0 585 517 476 438 396 422 503 530 563 700
790.0 856 1013 1132 1123 1051 944 802 673 539 426
830.0 354 327 405 575 844 1142 1346 1389 1338 1351
870.0 1403 1415 1564 2088 3263 4777 5323 4338 2995 2181
910.0 1625 1091 686 464 323 267 247 258 314 391
950.0 413 360 335 356 454 722 1053 1209 1177 1019
990.0 686 407 373 348 219 97 52 89 182 255
1030.0 246 163 127 152 143 148 154 181 235 267
1070.0 300 335 354 365 397 454 510 594 676 817
1110.0 1013 1205 1412 1726 2391 3521 4662 5080 4741 4329
1150.0 4147 4145 4216 4354 4946 6482 8756 10000 9031 7161
1190.0 6038 5874 6410 7259 7489 6422 4709 3395 2610 2048
1230.0 1655 1479 1465 1613 1898 2378 3169 4209 5284 6271
1270.0 7403 8609 9178 8806 7849 6436 4682 3274 2566 2258
1310.0 2088 1905 1587 1222 982 912 975 1206 1562 1743
1350.0 1563 1209 928 810 842 1008 1259 1547 1761 1725
1390.0 1372 938 652 556 580 667 844 1114 1310 1257
1430.0 1003 793 761 844 935 919 858 917 1186 1827
1470.0 2923 4236 4870 4261 3039 2124 1731 1646 1739 1779
1510.0 1609 1295 960 690 514 433 415 415 408 401
1550.0 401 421 470 544 646 804 980 1128 1190 1207
1590.0 1265 1416 1642 1888 2108 2353 2834 3780 5128 6407
1630.0 6848 6057 4550 3236 2430 2053 1962 2100 2596 3637
1670.0 5345 7148 7933 7128 5226 3507 2359 1660 1261 1035
1710.0 895 812 756 688 595 512 453 400 366 353
1750.0 347 344 348 340 314 300 291 272 251 231
1790.0 227 226 232 258 284 290 267 228 194 168
1830.0 146 133 123 114 108 103 108 112 112 125
1870.0 136 148 157 167 185 196 214 229 240 250
1910.0 241 226 203 183 175 159 146 140 146 162
1950.0 176 171 157 146 132 101 73 66 58 56
1990.0 57 51 50 52 53 59 58 62 70 64
2030.0 55 52 51 52 53 57 57 54 57 76
2070.0 87 72 64 68 63 54 60 68 66 66
2110.0 60 60 65 66 65 62 57 54 61 58
2150.0 45 39 36 46 51 52 56 49 40 31
2190.0 24 25 33 36 29 40 47 36 32 34
2230.0 48 42 27 26 33 37 43 48 45 45
2270.0 51 56 58 60 64 64 63 62 63 63
2310.0 64 80 86 88 84 85 94 102 112 116
2350.0 116 107 93 92 89 84 88 91 83 76
2390.0 83 91 91 95 100 97 104 118 117 95
2430.0 79 71 72 79 73 83 88 87 94 103
2470.0 90 67 69 71 60 58 66 64 52 47
2510.0 55 64 53 42 50 53 53 58 50 55
2550.0 58 51 59 73 79 74 61 52 58 63
2590.0 74 70 58 64 65 59 66 61 62 91
2630.0 99 77 61 61 60 55 46 54 58 49
2670.0 30 25 34 24 26 33 32 35 30 39
2710.0 44 25 30 36 30 33 33 37 56 64
2750.0 60 49 44 52 66 47 43 53 44 35
2790.0 31 31 32 31 31 39 24 0 11 17
2830.0 17 19 23 20 28 51 58 57 70 76
2870.0 63 89 89 72 90 84 81 53 45 72
2910.0 63 54 68 76 90 106 114 129 125 120
2950.0 113 88 93 124 140 159 171 173 184 208
2990.0 228 255 284 338 391 445 542 673 830 1010
3030.0 1134 1193 1213 1164 1083 1084 1213 1436 1718 2055
3070.0 2280 2162 1769 1400 1172 987 790 596 460 368
3110.0 274 216 157 121 121 109 98 88 91 97
3150.0 99 95 90 88 81 61 38 36 29 32
3190.0 47 56 64 51 40 46 63 50 43 47
3230.0 34 35 39 60 70 73 86 79 53 30
3270.0 23 43 51 61 73 76 74 80 77 71
3310.0 76 78 86 90 116 128 140 154 161 158
3350.0 142 142 139 145 146 125 114 116 111 109
3390.0 96 90 80 68 74 83 88 89 81 97
3430.0 102 88 92 99 106 112 106 87 68 65
3470.0 70 66 61 76 85 104 128 102 89 93
3510.0 116 129 115 101 96 111 114 105 99 94
3550.0 104 117 118 116 121 132 149 157 153 153
3590.0 157 150 158 180 174 185 218 272 316 393
3630.0 586 1011 1923 3531 4741 4507 3274 2000 1019 483
3670.0 329 259 210 164 161 166 154 145 137 135
3710.0 111 94 90 81 88 91 105 92 73 92
3750.0 96 90 72 58 54 71 92 102 93 57
3790.0 72 112 126 98 100 116 87 80 96 104
3830.0 88 93 110 89 82
##END=
