##TITLE=2-Ethylanthracene
##JCAMP-DX=4.24
##DATA TYPE=INFRARED SPECTRUM
##ORIGIN=NIST Mass Spectrometry Data Center
##OWNER=NIST Standard Reference Data Program
Collection (C) 2018 copyright by the U.S. Secretary of Commerce
on behalf of the United States of America. All rights reserved.
##CAS REGISTRY NO=52251-71-5
##MOLFORM=C 16 H 14
##$NIST SOURCE=MSDC-IR
##SPECTROMETER/DATA SYSTEM=HP-GC/MS/IRD
##STATE=gas
##XUNITS=1/CM
##YUNITS=ABSORBANCE
##XFACTOR=1.0
##YFACTOR=0.000000900
##DELTAX=4.0
##FIRSTX=550.0
##LASTX=3846.0
##FIRSTY=0.000045
##MAXX=3846
##MINX=550
##MAXY=0.009
##MINY=0
##NPOINTS=825
##XYDATA=(X++(Y..Y))
550.0 50 23 0 134 313 485 613 622 527 428
590.0 349 323 367 412 518 746 1013 1187 1108 828
630.0 648 562 520 537 573 530 414 363 353 277
670.0 168 120 111 140 182 154 140 217 252 343
710.0 541 851 1608 3135 5023 6959 8146 7024 5008 3159
750.0 1665 888 569 427 314 271 271 296 379 490
790.0 542 631 761 768 618 499 407 306 265 272
830.0 296 303 371 547 791 1097 1432 1638 1845 2333
870.0 3187 4386 5878 6888 6927 6778 6072 4600 3203 2082
910.0 1296 858 579 455 482 629 982 1336 1497 1403
950.0 1140 922 711 502 355 277 265 283 311 346
990.0 375 421 551 664 622 453 287 216 203 193
1030.0 231 301 362 473 663 830 909 879 736 579
1070.0 485 395 316 241 187 153 138 188 207 218
1110.0 276 314 383 509 594 589 524 420 376 451
1150.0 595 719 783 764 643 512 401 292 229 204
1190.0 183 162 167 214 259 257 206 169 197 225
1230.0 224 218 215 229 274 280 306 412 529 651
1270.0 710 672 582 511 493 540 692 926 1135 1255
1310.0 1339 1410 1477 1436 1297 1134 975 823 693 588
1350.0 521 476 416 360 377 383 384 443 519 580
1390.0 627 598 507 428 413 467 478 453 496 588
1430.0 670 704 755 833 876 1002 1171 1342 1473 1467
1470.0 1329 1149 1005 826 615 471 392 342 307 215
1510.0 179 236 311 476 763 1061 1145 924 582 393
1550.0 354 360 373 422 473 467 450 485 531 528
1590.0 486 436 404 409 446 542 702 945 1305 1727
1630.0 2145 2371 2239 1755 1165 749 546 486 424 382
1670.0 422 564 732 745 659 552 388 316 387 449
1710.0 458 402 347 337 319 287 269 348 423 467
1750.0 512 552 533 472 415 398 428 487 544 602
1790.0 665 653 546 396 291 224 181 194 235 260
1830.0 256 244 242 223 209 194 159 129 102 83
1870.0 85 112 121 136 199 302 439 548 580 569
1910.0 553 499 412 389 457 517 498 358 190 110
1950.0 77 47 43 52 49 39 36 31 3 15
1990.0 32 31 50 39 30 40 48 60 73 89
2030.0 88 66 63 61 49 38 46 66 60 46
2070.0 49 38 40 45 50 59 54 64 58 44
2110.0 39 28 17 19 24 26 28 31 40 30
2150.0 15 28 24 11 31 42 43 26 23 38
2190.0 29 34 45 51 61 58 49 46 59 54
2230.0 46 63 63 47 40 61 54 42 53 58
2270.0 82 102 116 102 69 79 93 75 74 86
2310.0 79 86 78 67 79 76 56 56 62 50
2350.0 28 4 0 0 0 4 26 40 44 39
2390.0 41 48 49 50 55 51 47 72 80 74
2430.0 87 76 56 62 72 81 78 72 80 65
2470.0 40 24 31 44 47 47 55 60 52 41
2510.0 51 62 66 64 64 90 94 84 82 84
2550.0 76 60 56 55 62 68 55 59 63 56
2590.0 50 55 51 39 51 63 66 72 78 77
2630.0 85 101 92 85 89 88 93 102 105 86
2670.0 76 89 96 99 106 110 101 109 126 121
2710.0 104 97 94 106 132 159 190 206 189 183
2750.0 183 190 221 210 209 215 210 215 218 241
2790.0 267 291 298 316 347 367 387 408 458 486
2830.0 527 620 670 721 827 999 1216 1484 1840 2183
2870.0 2413 2545 2669 2852 3044 3087 2965 2866 2895 2950
2910.0 2962 2946 2951 3099 3431 3848 4349 4918 5328 5339
2950.0 4965 4503 4433 5003 6578 8806 10000 9024 6577 4580
2990.0 3669 3291 3249 3352 3553 3760 3980 4233 4564 4920
3030.0 5230 5544 5905 6436 7216 8172 9008 9234 8581 7192
3070.0 5624 4375 3511 2849 2349 1988 1690 1395 1145 972
3110.0 916 878 792 675 603 550 487 440 392 349
3150.0 327 339 308 250 226 231 231 209 215 225
3190.0 246 267 272 237 203 223 222 171 159 156
3230.0 124 134 156 154 163 164 137 128 128 162
3270.0 180 149 158 142 111 89 82 123 136 123
3310.0 108 111 115 89 78 94 125 112 79 103
3350.0 122 91 96 114 98 78 102 135 122 109
3390.0 90 70 99 114 97 71 53 57 85 88
3430.0 97 122 118 126 142 126 95 103 101 107
3470.0 108 106 129 118 113 102 84 91 95 95
3510.0 94 105 99 79 65 100 115 94 89 39
3550.0 58 107 114 95 65 67 68 93 92 29
3590.0 56 115 125 121 97 67 63 66 97 112
3630.0 106 133 150 167 150 134 150 156 171 183
3670.0 149 139 174 177 132 119 154 137 114 144
3710.0 151 135 118 99 106 130 106 93 107 124
3750.0 99 112 147 145 150 159 182 203 186 163
3790.0 171 192 213 211 179 200 196 123 121 143
3830.0 125 114 115 136 152
##END=
