##TITLE=3,4-Ethylenedioxybromobenzene
##JCAMP-DX=4.24
##DATA TYPE=INFRARED SPECTRUM
##ORIGIN=EPA-IR VAPOR PHASE LIBRARY
##OWNER=SRD/NIST
Collection (C) 2018 copyright by the U.S. Secretary of Commerce
on behalf of the United States of America. All rights reserved.
##CAS REGISTRY NO=52287-51-1
##MOLFORM=C 8 H 7 Br O 2
##$NIST SOURCE=MSDC-IR
##STATE=gas
##XUNITS=1/CM
##YUNITS=ABSORBANCE
##XFACTOR=1.
##YFACTOR=0.001
##DELTAX=1.92934
##FIRSTX=549.9
##LASTX=3999.5
##FIRSTY=3.1893
##MAXX=3999.53
##MINX=549.863
##MAXY=0.39703
##MINY=0
##NPOINTS=1789
##XYDATA=(X++(Y..Y))
549.863 3.1893 3.3102 3.4176 3.6618 4.06 4.6 5.4 6.31 7.04 7.89
569.156 8.86 9.75 11.06 12.06 11.83 11.22 10.75 10.42 10.24 10.24
588.450 10.83 12.27 14.68 17.14 18.13 17.87 17.59 17.07 14.92 11.15
607.743 7.65 5.47 4.28 3.6209 3.2842 3.0303 2.9721 3.0995 3.2452 3.4725
627.037 3.6064 3.5962 3.6963 3.84 3.76 3.5047 3.4145 3.3253 3.1764 3.21
646.330 3.3639 3.5588 3.6309 3.73 4.02 4.3 4.67 5.2 5.98 7.23
665.624 8.91 11.19 13.94 16.3 17.78 18.62 19.12 18.96 17.67 15.41
684.917 12.85 10.51 8.55 7.04 5.91 4.97 4.44 4.12 3.86 3.73
704.210 3.591 3.3823 3.1826 2.9479 2.667 2.438 2.236 2.128 2.189 2.261
723.504 2.265 2.329 2.479 2.7988 3.4469 4.52 6.28 9.2 13.14 16.52
742.797 18.09 18.57 18.96 18.57 15.63 11.04 7.49 5.52 4.46 3.85
762.091 3.5223 3.3753 3.3735 3.5555 3.82 4.16 4.67 5.41 6.41 7.71
781.384 9.45 11.68 14.49 17.91 21.74 25.82 30.18 34.52 38.6 42.25
800.678 45.5 46.78 43.21 38.05 34.57 31.06 26.88 22.45 18.34 14.88
819.971 12.06 9.89 8.28 7.15 6.48 6.09 5.97 6.21 6.9 8.1
839.264 10 12.69 16.19 20.55 25.76 31.68 38.02 44.36 50.23 55.26
858.558 57.42 55.45 51.18 46.01 40.19 34.3 29.09 24.99 22.36 21.35
877.851 22.19 25.3 31.67 42.45 57.66 75.45 91.19 99.84 101.12 98.14
897.145 91.44 78.36 59.87 42.21 29.89 22.9 19.12 17.02 16.07 15.98
916.438 16.62 17.94 19.77 22.05 24.71 27.57 30.38 32.42 33.26 32.79
935.732 31.22 28.87 25.93 22.28 18.09 14.15 11.06 8.78 7.04 5.71
955.025 4.75 4.02 3.4055 3.0285 2.80593 2.595 2.508 2.477 2.451 2.493
974.318 2.574 2.6502 2.6865 2.74158 2.8426 2.9222 2.9794 3.0801 3.1705 3.2347
993.612 3.2714 3.2383 3.1867 3.1645 3.1313 3.0509 3.0067 2.9926 2.9733 2.9647
1012.905 3.0514 3.1737 3.3243 3.5431 3.8 4.14 4.57 5.08 5.68 6.33
1032.199 7.1 8.01 9.28 11.09 13.51 16.83 21.21 26.88 34.02 42.85
1051.492 53.74 67.31 84.13 104.04 125.41 145.72 162.8 175.87 184.09 184.61
1070.786 175.06 156.64 133.84 110.85 89.18 68.91 50.88 36.68 26.77 20.44
1090.079 16.42 13.8 12.28 11.57 11.77 12.95 14.72 16.47 17.93 19.54
1109.372 21.38 23.18 24.68 26.28 27.98 28.77 28.59 28.25 27.89 26.57
1128.666 23.68 20 16.5 13.62 11.41 9.63 8.3 7.4 6.75 6.26
1147.959 5.95 5.8 5.64 5.61 5.63 5.52 5.55 5.58 5.64 5.89
1167.253 6.35 7.14 8.22 9.79 11.8 14.31 17.65 21.91 27.2 33.47
1186.546 39.98 45.2 48.36 49.36 48.88 46.85 41.74 34.51 27.33 21.42
1205.840 17.04 14.09 12.23 11.04 10.61 10.83 11.77 13.47 15.96 19.3
1225.133 23.25 28.13 34.11 41.01 49.41 60.44 75.55 94.74 117.27 141.83
1244.426 164.73 180.67 186.68 184.12 173.82 154.7 128.1 100.49 79.23 66.8
1263.720 62.5 65.7 75.81 91.66 111.51 133.92 159.14 187.86 218.08 244.09
1283.013 260.05 267.65 274.6 281.45 279.17 262.4 237.03 210.54 183.7 152.57
1302.307 115.85 79.58 51.99 35.85 27.96 24.02 21.58 19.83 18.49 17.39
1321.600 16.54 15.9 15.49 15.31 15.31 15.36 15.45 15.56 15.58 15.47
1340.894 15.17 14.66 14.06 13.52 13.14 13.08 13.48 14.49 15.98 17.28
1360.187 18.02 18.81 19.9 20.89 21.48 22.39 24.44 27.19 29.68 30.91
1379.480 30.62 29.29 27.22 24.14 20.09 16.31 13.86 12.77 12.67 13.24
1398.774 14.34 15.78 17.48 19.37 21.32 23.05 24.41 25.3 25.8 26.35
1418.067 27.05 27.55 27.97 28.92 30.67 32.89 34.76 35.61 35.34 34.09
1437.361 31.8 28.8 25.63 23.09 21.93 22.4 24.39 27.67 32.47 38.83
1456.654 46.97 55.73 62.94 67.61 70 72.07 74.51 77.32 83.26 96.61
1475.948 119.79 153.89 198.18 251.77 309.55 361.33 393.18 397.03 377.98 345.71
1495.241 299.26 236.31 170.33 119.36 88.77 71.19 58.47 47.44 37.68 29.17
1514.534 22.44 17.62 14.57 12.9 12.04 11.72 11.86 12.23 12.72 13.27
1533.828 13.7 13.75 13.52 13.04 12.2 11.08 9.98 9.15 8.6 8.32
1553.121 8.33 8.64 9.18 9.94 10.84 11.94 13.55 15.73 18.59 22.27
1572.415 26.81 32.18 38.3 44.47 50.35 55.82 60.46 63.74 64.77 63.32
1591.708 60.06 55.9 50.85 44.64 38.05 32.27 27.66 23.69 20.01 16.71
1611.002 13.83 11.29 9.16 7.46 6.16 5.31 4.81 4.48 4.29 4.26
1630.295 4.29 4.29 4.32 4.27 4.11 3.97 3.78 3.6319 3.5594 3.4907
1649.588 3.4415 3.5323 3.698 3.74 3.81 3.97 4.12 4.21 4.23 4.2
1668.882 4.17 4.06 3.88 3.73 3.5212 3.3068 3.1628 3.0659 3.0494 3.0393
1688.175 3.073 3.1647 3.3489 3.6655 4.07 4.45 4.91 5.38 5.82 6.27
1707.469 6.64 6.94 7.07 7.08 7.13 7.1 6.84 6.48 6.06 5.56
1726.762 5.05 4.53 4.04 3.6583 3.2896 2.9459 2.73815 2.608 2.505 2.457
1746.056 2.452 2.489 2.509 2.507 2.485 2.474 2.49 2.509 2.54 2.544
1765.349 2.559 2.604 2.6286 2.7061 2.77922 2.80849 2.8891 2.9907 3.0822 3.2001
1784.642 3.2792 3.3228 3.3688 3.4169 3.4358 3.3482 3.2275 3.1384 3.0053 2.8767
1803.936 2.74537 2.6528 2.586 2.51 2.499 2.48 2.446 2.442 2.442 2.454
1823.229 2.526 2.617 2.73191 2.918 3.1524 3.4 3.6993 4.05 4.45 4.88
1842.523 5.34 5.76 6.07 6.32 6.44 6.44 6.33 6.16 5.97 5.71
1861.816 5.42 5.13 4.85 4.66 4.47 4.23 4.01 3.81 3.6293 3.455
1881.110 3.2592 3.0773 2.953 2.8855 2.79532 2.6697 2.564 2.494 2.415 2.34
1900.403 2.306 2.245 2.152 2.143 2.183 2.219 2.292 2.386 2.485 2.57
1919.696 2.6454 2.74351 2.846 2.9434 2.9875 3.0028 3.0379 3.0745 3.1039 3.1165
1938.990 3.1637 3.2305 3.2826 3.3822 3.4226 3.4628 3.6048 3.73 3.81 3.89
1958.283 3.94 3.96 4.07 4.11 4.12 4.13 4.16 4.26 4.36 4.47
1977.577 4.7 4.96 5.17 5.38 5.63 5.81 5.86 5.9 5.82 5.59
1996.870 5.33 4.97 4.57 4.17 3.83 3.5921 3.4386 3.3393 3.2721 3.2579
2016.164 3.2878 3.3254 3.3812 3.4845 3.6302 3.75 3.88 4.03 4.15 4.3
2035.457 4.47 4.6 4.73 4.87 4.98 5.07 5.09 5 4.86 4.71
2054.750 4.46 4.17 3.82 3.4037 3.026 2.73088 2.527 2.351 2.224 2.168
2074.044 2.161 2.168 2.204 2.277 2.372 2.498 2.601 2.7009 2.81716 2.9076
2093.337 2.9466 2.9892 3.0105 2.9907 2.9471 2.8568 2.80898 2.8448 2.8483 2.8741
2112.631 2.958 3.0179 3.0707 3.1241 3.1856 3.2177 3.2026 3.1771 3.116 3.0199
2131.924 2.9228 2.80102 2.71366 2.617 2.509 2.463 2.408 2.364 2.317 2.216
2151.218 2.147 2.11 2.038 2.011 2.005 2.005 2.028 2.044 2.093 2.147
2170.511 2.141 2.166 2.223 2.204 2.177 2.147 2.11 2.068 2 1.979
2189.804 1.958 1.944 1.962 1.933 1.914 1.917 1.938 1.998 2.064 2.116
2209.098 2.175 2.228 2.293 2.366 2.503 2.6727 2.8216 3.0074 3.2193 3.4109
2228.391 3.5708 3.72 3.82 3.79 3.697 3.5856 3.4461 3.2971 3.1682 3.0091
2247.685 2.9048 2.8275 2.7061 2.6229 2.614 2.609 2.595 2.641 2.6979 2.75445
2266.978 2.81193 2.8424 2.8743 2.8989 2.8548 2.77614 2.6992 2.6 2.475 2.365
2286.272 2.298 2.234 2.187 2.167 2.146 2.149 2.183 2.241 2.35 2.454
2305.565 2.565 2.705 2.8212 2.9102 2.9919 3.04 3.054 3.0953 3.1359 3.1536
2324.858 3.1212 3.0842 3.0693 3.0143 2.9432 2.8512 2.77561 2.77242 2.73912 2.6963
2344.152 2.71508 2.76534 2.80585 2.8601 2.9105 2.9251 2.9499 2.9575 2.9099 2.8528
2363.445 2.7664 2.6974 2.6949 2.7035 2.75161 2.8249 2.8757 2.9154 2.9715 3.0245
2382.739 3.0238 2.9478 2.8338 2.6723 2.498 2.37 2.235 2.096 1.995 1.944
2402.032 1.911 1.913 1.908 1.906 1.952 2.013 2.088 2.193 2.306 2.401
2421.326 2.547 2.6797 2.77024 2.8659 2.9047 2.9373 2.9549 2.9149 2.8731 2.8584
2440.619 2.8596 2.8786 2.8948 2.9265 2.9399 2.9007 2.8809 2.8704 2.8554 2.8533
2459.912 2.847 2.81931 2.80476 2.8365 2.8712 2.80543 2.72615 2.6611 2.585 2.515
2479.206 2.473 2.432 2.341 2.292 2.298 2.263 2.213 2.213 2.21 2.196
2498.499 2.211 2.255 2.265 2.3 2.378 2.384 2.457 2.527 2.597 2.77915
2517.793 2.9149 3.0659 3.2752 3.4485 3.5744 3.7044 3.82 3.87 3.88 3.82
2537.086 3.6886 3.5426 3.3585 3.2063 3.0508 2.868 2.73895 2.6278 2.535 2.474
2556.380 2.463 2.454 2.502 2.612 2.7088 2.8632 3.021 3.1425 3.2444 3.2838
2575.673 3.2639 3.2164 3.094 2.9315 2.76582 2.567 2.363 2.178 2.02 1.898
2594.966 1.819 1.765 1.76 1.758 1.71 1.69 1.7 1.743 1.75 1.72
2614.260 1.72 1.69 1.66 1.63 1.62 1.62 1.59 1.6 1.62 1.66
2633.553 1.66 1.65 1.65 1.66 1.69 1.72 1.784 1.822 1.827 1.912
2652.847 1.996 2.019 2.039 2.05 2.068 2.06 2.029 1.982 1.947 1.919
2672.140 1.897 1.877 1.877 1.905 1.905 1.885 1.896 1.92 1.992 2.029
2691.434 2.088 2.248 2.377 2.514 2.6958 2.926 3.1842 3.5081 3.85 4.23
2710.727 4.64 4.92 5.11 5.22 5.19 5.06 4.82 4.48 4.18 4
2730.020 3.86 3.74 3.6699 3.5836 3.5507 3.4993 3.3883 3.3409 3.2798 3.2118
2749.314 3.1532 3.0135 2.8783 2.73026 2.665 2.6513 2.523 2.49 2.586 2.6259
2768.607 2.7039 2.81901 2.8589 2.9226 2.9575 2.9349 2.9024 2.8892 2.9645 3.0344
2787.901 2.9691 2.8572 2.8281 2.80297 2.77024 2.79265 2.8225 2.80918 2.79604 2.8774
2807.194 2.9567 3.0016 3.1161 3.1972 3.2586 3.2563 3.2628 3.371 3.4669 3.6247
2826.488 3.7037 3.84 4.12 4.32 4.55 4.8 5.01 5.2 5.35 5.41
2845.781 5.48 5.63 5.78 5.92 6.29 6.9 7.49 8.2 9.17 10.29
2865.074 11.61 13.23 15.24 17.83 21.21 25.54 31.07 37.99 45.78 53.01
2884.368 58.11 60.72 61.17 59.04 54.04 47.25 40.22 34.14 29.39 25.7
2903.661 22.8 20.55 18.81 17.49 16.5 15.76 15.39 15.54 16.3 17.64
2922.955 19.48 21.92 24.72 27.45 29.76 31.61 32.96 33.69 33.96 33.63
2942.248 32.39 30.32 28.07 25.94 23.84 21.78 19.92 18.4 17.25 16.51
2961.542 16.26 16.41 17.18 18.92 21.68 25.86 32.03 41.02 53.49 68.83
2980.835 84.63 96.74 101.62 99.57 92.81 81.95 66.17 47.26 30.34 18.99
3000.128 12.48 8.74 6.61 5.22 4.27 3.7187 3.2696 2.8876 2.73371 2.589
3019.422 2.458 2.41 2.2 2.048 2.059 2.015 1.947 1.929 2.027 2.164
3038.715 2.232 2.351 2.625 2.849 3.0807 3.3679 3.5828 3.6382 3.7019 3.89
3058.009 4.07 4.25 4.32 4.32 4.4 4.46 4.47 4.45 4.5 4.54
3077.302 4.23 3.9 3.7167 3.4956 3.2293 2.9959 2.80595 2.63 2.558 2.309
3096.596 2.041 1.869 1.59 1.41 1.23 1.08 1 0.89 0.82 0.72
3115.889 0.56 0.42 0.41 0.38 0.27 0.22 0.14 0.06 0.11 0.14
3135.182 0.05 0.02 0.05 0.05 0.02 0.02 0.02 0.07 0.19 0.14
3154.476 0.07 0.07 0.16 0.18 0.12 0.11 0.1 0.1 0.05 0.1
3173.769 0.1 0.07 0.19 0.16 0.15 0.15 0.06 0.08 0.11 0.13
3193.063 0.18 0.3 0.28 0.26 0.3 0.22 0.11 0.08 0.19 0.27
3212.356 0.23 0.21 0.24 0.24 0.18 0.13 0.23 0.19 0.06 0.14
3231.650 0.22 0.27 0.34 0.19 0.14 0.18 0.17 0.21 0.26 0.35
3250.943 0.45 0.31 0.18 0.19 0.12 0.09 0.12 0.12 0.14 0.18
3270.236 0.06 0 0.03 0.15 0.29 0.21 0.14 0.22 0.21 0.21
3289.530 0.31 0.43 0.44 0.28 0.22 0.24 0.3 0.26 0.21 0.3
3308.823 0.37 0.3 0.32 0.41 0.42 0.35 0.27 0.19 0.06 0.12
3328.117 0.25 0.26 0.3 0.19 0.1 0.22 0.25 0.27 0.21 0.15
3347.410 0.19 0.16 0.25 0.31 0.28 0.33 0.37 0.3 0.23 0.26
3366.704 0.25 0.14 0.13 0.21 0.29 0.38 0.33 0.25 0.23 0.35
3385.997 0.4 0.33 0.34 0.29 0.32 0.41 0.43 0.36 0.32 0.47
3405.290 0.55 0.56 0.54 0.52 0.43 0.39 0.44 0.37 0.37 0.35
3424.584 0.28 0.35 0.32 0.28 0.31 0.36 0.31 0.3 0.48 0.58
3443.877 0.53 0.48 0.48 0.45 0.5 0.61 0.62 0.51 0.54 0.57
3463.171 0.58 0.59 0.49 0.58 0.76 0.73 0.68 0.64 0.62 0.72
3482.464 0.78 0.81 0.74 0.72 0.72 0.72 0.74 0.72 0.78 0.72
3501.758 0.71 0.78 0.73 0.7 0.78 0.82 0.75 0.68 0.58 0.64
3521.051 0.77 0.84 0.9 0.87 0.75 0.71 0.75 0.78 0.85 0.9
3540.344 0.88 0.79 0.78 0.8 0.8 0.82 0.9 0.96 0.92 0.85
3559.638 0.84 0.8 0.76 0.83 0.94 1.02 1.06 1.06 1.06 0.99
3578.931 0.97 0.95 0.91 0.99 1.01 0.98 1.03 1.11 1.09 1.02
3598.225 1 1 0.94 1 1.05 1.15 1.13 0.94 1.01 1.06
3617.518 1.04 1.13 1.05 1.03 1.04 1.05 1.06 1.06 1.13 1.13
3636.812 1.14 1.18 1.28 1.21 1.17 1.22 1.19 1.09 1.12 1.22
3656.105 1.17 1.14 1.24 1.34 1.22 1.15 1.26 1.24 1.21 1.18
3675.398 1.2 1.19 1.11 1.11 1.18 1.25 1.29 1.32 1.24 1.2
3694.692 1.14 1.03 1.07 1.15 1.22 1.24 1.21 1.2 1.17 1.15
3713.985 1.13 1.08 1.13 1.26 1.22 1.17 1.27 1.27 1.19 1.21
3733.279 1.23 1.25 1.2 1.17 1.26 1.35 1.27 1.2 1.31 1.34
3752.572 1.27 1.26 1.22 1.23 1.28 1.25 1.23 1.26 1.34 1.39
3771.866 1.39 1.34 1.4 1.49 1.45 1.46 1.47 1.5 1.45 1.36
3791.159 1.34 1.3 1.34 1.39 1.38 1.48 1.56 1.51 1.49 1.42
3810.452 1.41 1.4 1.33 1.36 1.38 1.42 1.41 1.37 1.29 1.32
3829.746 1.42 1.38 1.46 1.55 1.48 1.35 1.38 1.53 1.51 1.45
3849.039 1.42 1.43 1.51 1.48 1.44 1.48 1.53 1.54 1.57 1.61
3868.333 1.52 1.51 1.65 1.62 1.59 1.64 1.54 1.49 1.61 1.59
3887.626 1.47 1.42 1.41 1.42 1.41 1.43 1.45 1.54 1.58 1.54
3906.920 1.55 1.59 1.62 1.56 1.55 1.55 1.56 1.65 1.71 1.786
3926.213 1.78 1.787 1.858 1.858 1.933 1.977 1.96 1.961 1.979 2.051
3945.506 2.093 2.114 2.051 1.983 1.97 1.91 1.869 1.868 1.833 1.722
3964.800 1.67 1.71 1.7 1.61 1.55 1.57 1.58 1.59 1.59 1.57
3984.093 1.62 1.67 1.68 1.66 1.66 1.66 1.53 1.51 1.66
##END=
