##TITLE=9,10-Dibromoanthracene
##JCAMP-DX=4.24
##DATA TYPE=INFRARED SPECTRUM
##ORIGIN=NIST Mass Spectrometry Data Center
##OWNER=NIST Standard Reference Data Program
Collection (C) 2018 copyright by the U.S. Secretary of Commerce
on behalf of the United States of America. All rights reserved.
##CAS REGISTRY NO=523-27-3
##MOLFORM=C 14 H 8 Br 2
##$NIST SOURCE=MSDC-IR
##SPECTROMETER/DATA SYSTEM=HP-GC/MS/IRD
##STATE=gas
##XUNITS=1/CM
##YUNITS=ABSORBANCE
##XFACTOR=1.0
##YFACTOR=0.000001200
##DELTAX=4.0
##FIRSTX=550.0
##LASTX=3846.0
##FIRSTY=0.000185
##MAXX=3846
##MINX=550
##MAXY=0.012
##MINY=0
##NPOINTS=825
##XYDATA=(X++(Y..Y))
550.0 154 18 61 171 179 301 613 1271 1780 1386
590.0 761 488 568 653 598 460 253 116 123 178
630.0 142 95 100 115 128 143 186 157 116 223
670.0 443 661 584 346 240 217 216 207 184 151
710.0 147 168 217 269 353 478 687 1455 3527 7207
750.0 10000 7823 3790 1453 526 345 280 229 213 199
790.0 171 158 146 130 98 98 131 117 79 78
830.0 96 113 165 245 320 329 278 281 328 335
870.0 288 233 235 260 254 254 265 326 467 661
910.0 862 1120 1903 4389 7778 8517 5340 1873 720 501
950.0 378 300 233 190 148 123 106 92 78 69
990.0 44 23 25 43 66 104 225 504 875 1025
1030.0 817 449 169 91 69 64 67 69 71 69
1070.0 56 37 42 40 39 37 12 9 15 2
1110.0 27 45 29 22 22 57 106 126 165 226
1150.0 300 436 857 1290 1188 670 268 182 176 165
1190.0 172 179 172 158 162 178 167 147 167 227
1230.0 306 378 443 634 1172 2482 4215 4905 3819 2257
1270.0 1325 863 702 671 659 701 1147 2465 3919 3881
1310.0 2322 920 505 544 622 590 434 284 234 231
1350.0 212 181 119 68 61 58 53 50 52 44
1390.0 39 38 37 51 61 80 118 148 207 356
1430.0 663 1037 1216 1069 752 471 270 145 80 68
1470.0 73 62 61 82 124 171 217 227 193 167
1510.0 207 311 456 556 515 356 214 146 108 69
1550.0 46 39 26 33 28 31 47 66 108 148
1590.0 172 156 122 112 111 125 155 203 247 227
1630.0 159 95 67 52 35 33 30 28 45 53
1670.0 44 59 80 113 176 257 379 478 464 362
1710.0 240 143 103 108 112 103 98 110 111 93
1750.0 66 44 40 40 39 38 43 54 80 148
1790.0 234 301 292 255 276 350 391 328 197 99
1830.0 67 59 43 39 37 26 22 19 22 13
1870.0 4 13 29 37 44 60 76 113 150 170
1910.0 175 169 174 198 204 190 199 256 311 299
1950.0 206 118 70 41 33 32 27 34 43 31
1990.0 16 26 35 36 29 24 16 8 14 24
2030.0 20 9 28 43 36 41 47 43 32 25
2070.0 26 26 23 23 31 27 13 20 39 38
2110.0 23 18 26 37 33 37 29 15 8 7
2150.0 21 14 12 23 26 23 22 12 26 31
2190.0 26 32 39 30 22 38 39 35 44 57
2230.0 53 40 35 31 26 26 21 21 21 27
2270.0 38 26 29 30 28 41 33 26 30 29
2310.0 27 36 54 57 64 75 63 44 34 33
2350.0 33 19 16 27 26 25 35 41 38 31
2390.0 28 26 11 19 27 27 38 29 23 26
2430.0 34 38 27 18 20 32 32 33 49 57
2470.0 51 35 33 38 23 26 32 25 26 21
2510.0 12 14 20 25 30 44 43 29 26 23
2550.0 31 34 39 29 15 20 29 11 0 13
2590.0 23 27 26 26 25 18 17 26 31 32
2630.0 33 26 14 10 11 14 33 39 33 33
2670.0 32 37 35 34 39 34 26 24 19 20
2710.0 33 35 25 7 10 30 24 5 14 21
2750.0 9 11 8 4 9 19 21 16 26 32
2790.0 26 21 19 22 38 38 25 32 36 17
2830.0 13 13 6 10 6 3 24 28 21 32
2870.0 39 32 26 29 39 18 16 19 22 47
2910.0 61 68 53 23 31 47 46 48 47 43
2950.0 38 47 74 71 67 100 114 127 155 152
2990.0 150 146 118 88 95 97 96 136 201 284
3030.0 416 587 764 883 899 840 733 617 554 580
3070.0 726 1080 1675 2377 2734 2388 1515 736 352 218
3110.0 165 126 79 50 66 71 69 83 75 76
3150.0 94 87 71 55 59 61 70 68 39 28
3190.0 22 14 26 37 32 20 13 11 28 44
3230.0 42 50 49 37 16 12 27 25 33 42
3270.0 29 12 22 24 9 9 29 44 36 15
3310.0 8 16 23 25 33 31 35 39 28 21
3350.0 27 40 47 46 37 31 24 23 43 46
3390.0 26 15 18 24 56 74 35 10 31 40
3430.0 26 12 9 22 45 48 28 9 13 40
3470.0 43 58 61 39 43 49 56 68 55 58
3510.0 61 48 29 13 48 60 70 66 34 28
3550.0 19 33 37 26 43 49 20 10 48 58
3590.0 32 21 46 64 49 47 67 61 53 42
3630.0 56 43 53 82 67 62 57 68 78 63
3670.0 49 46 62 78 63 68 74 61 46 58
3710.0 82 82 54 40 51 70 83 93 86 60
3750.0 43 47 69 83 80 73 67 76 76 74
3790.0 75 69 45 29 41 43 50 51 37 41
3830.0 35 21 21 44 55
##END=
