##TITLE=Ethyl 2-cyano-3,3-diphenylacrylate
##JCAMP-DX=4.24
##DATA TYPE=INFRARED SPECTRUM
##ORIGIN=EPA-IR VAPOR PHASE LIBRARY
##OWNER=SRD/NIST
Collection (C) 2018 copyright by the U.S. Secretary of Commerce
on behalf of the United States of America. All rights reserved.
##CAS REGISTRY NO=5232-99-5
##MOLFORM=C 18 H 15 N O 2
##$NIST SOURCE=MSDC-IR
##STATE=gas
##XUNITS=1/CM
##YUNITS=ABSORBANCE
##XFACTOR=1.
##YFACTOR=0.001
##DELTAX=1.92934
##FIRSTX=549.9
##LASTX=3999.5
##FIRSTY=3.8
##MAXX=3999.53
##MINX=549.863
##MAXY=0.30445
##MINY=0
##NPOINTS=1789
##XYDATA=(X++(Y..Y))
549.863 3.8 3.84 4.09 4.3 4.53 4.66 4.74 4.88 4.82 4.84
569.156 4.93 4.98 4.96 4.98 5.06 5.01 5.04 5.17 5.23 5.3
588.450 5.52 5.84 6.35 6.99 7.96 9.59 11.93 15.32 19.17 22.1
607.743 23.42 22.94 20.8 17.53 14.18 11.72 10.19 9.08 8.13 7.3
627.037 6.6 6.1 5.78 5.65 5.68 5.85 6.17 6.66 7.34 8.16
646.330 9.33 11.01 13.35 16.16 19.06 21.55 23.16 23.7 23.26 22.06
665.624 20.62 19.72 19.65 20.05 20.71 21.73 23.03 24.71 27.17 31.12
684.917 37.43 47.24 61.42 79.31 97.71 111.88 118.04 114.8 103.21 86.34
704.210 68.7 53.91 42.8 34.73 28.94 24.83 22.01 20.25 19.39 19.23
723.504 19.7 20.78 22.57 25.08 28.35 32.17 36.22 39.82 42.2 43.08
742.797 42.5 41.04 39.43 38.41 38.39 39.45 41.23 43.16 44.57 44.78
762.091 43.25 40.08 35.94 31.53 27.33 23.63 20.57 18.24 16.48 15.09
781.384 13.98 13.13 12.52 12.04 11.67 11.37 11.11 10.79 10.36 9.93
800.678 9.55 9.2 8.87 8.52 8.17 7.93 7.79 7.66 7.46 7.28
819.971 7.16 7.04 6.99 7.03 7.09 7.2 7.47 7.74 7.91 8.08
839.264 8.26 8.44 8.62 8.89 9.4 10.15 11.08 12.09 13.07 13.9
858.558 14.37 14.43 14.08 13.37 12.45 11.42 10.38 9.4 8.56 7.9
877.851 7.38 7.03 6.88 6.87 7.07 7.47 8.04 8.79 9.68 10.68
897.145 11.57 12.16 12.25 11.77 10.84 9.71 8.61 7.7 7.14 6.85
916.438 6.76 6.78 6.78 6.79 6.66 6.37 5.99 5.58 5.27 4.99
935.732 4.71 4.52 4.37 4.25 4.21 4.17 4.18 4.24 4.3 4.43
955.025 4.64 4.89 5.19 5.56 5.91 6.16 6.29 6.25 6.15 6.09
974.318 6.18 6.41 6.77 7.17 7.68 8.28 8.95 9.75 10.8 12.24
993.612 14.17 16.63 19.35 21.96 24.35 26.47 28.35 30.22 32.46 35.11
1012.905 37.84 40.22 41.82 42.42 41.95 40.48 38.31 35.76 33.01 30.11
1032.199 27.14 24.22 21.47 18.94 16.72 14.98 13.77 12.97 12.52 12.33
1051.492 12.32 12.54 12.99 13.65 14.58 15.9 17.54 19.44 21.58 23.78
1070.786 25.81 27.57 28.98 30.1 31.22 32.79 35.24 38.8 43.77 50.58
1090.079 59.49 70.88 85.28 102.89 123.3 145.31 167.09 186.27 200.06 206.32
1109.372 204.11 194.05 178.17 159.1 139.46 121.19 105.29 92.08 81.08 71.67
1128.666 63.76 57.03 51.19 46.29 42.24 38.83 35.96 33.61 31.64 30.01
1147.959 28.73 27.73 26.93 26.27 25.91 25.7 25.49 25.38 25.46 25.86
1167.253 26.61 27.75 29.17 30.75 32.5 34.03 35.08 35.73 35.62 34.63
1186.546 33.01 31.24 29.83 28.93 28.77 29.37 30.82 32.88 35.48 39.05
1205.840 43.42 48.37 54.34 61.29 69.3 78.73 90.04 103.11 118.23 135.51
1225.133 154.51 175.35 197.43 220.17 242.76 264.24 282.87 296.87 304.45 303.88
1244.426 294.85 277.89 254.99 229.02 202.35 177.03 153.96 133.57 116.06 101.22
1263.720 88.87 78.96 71.13 64.76 59.51 55.36 52.29 50.11 49.01 49.09
1283.013 50.22 52.39 55.36 58.72 62.03 64.97 67.25 68.68 69.35 69.55
1302.307 69.49 69.29 69.04 68.76 68.28 67.55 66.44 64.85 62.69 59.8
1321.600 56.17 51.85 47.08 42.21 37.49 33.24 29.47 26.1 23.04 20.32
1340.894 17.99 16.04 14.53 13.47 12.77 12.41 12.37 12.66 13.4 14.59
1360.187 16.46 19.26 22.72 26 28.24 28.87 27.79 25.26 21.9 18.71
1379.480 16.32 14.74 13.72 13.03 12.52 12.21 12.07 11.97 11.83 11.73
1398.774 11.61 11.43 11.26 11.09 10.94 10.76 10.6 10.47 10.27 10.1
1418.067 10.02 9.99 10.09 10.28 10.61 11.16 11.96 13.03 14.49 16.5
1437.361 19.3 22.6 26.04 29.18 31.51 31.87 29.39 25.96 22.68 19.74
1456.654 17.59 16.45 16.14 16.24 16.71 17.37 18.01 18.55 18.9 19.08
1475.948 19.16 19.35 19.82 20.73 22.15 23.94 25.77 27.09 27.57 26.97
1495.241 25.17 22.47 19.42 16.46 13.92 11.97 10.56 9.61 9.03 8.68
1514.534 8.49 8.41 8.46 8.6 8.85 9.15 9.55 9.95 10.36 10.77
1533.828 11.18 11.6 11.92 12.31 12.8 13.36 14.01 14.73 15.6 16.63
1553.121 17.76 19.09 20.66 22.58 24.77 27.1 29.73 32.36 34.73 36.73
1572.415 38.18 39.22 40.12 41 41.82 42.46 42.57 41.71 39.58 36.22
1591.708 31.96 27.46 23.39 20.12 17.65 15.74 14.22 12.91 11.72 10.7
1611.002 9.79 9 8.45 7.97 7.57 7.24 6.87 6.55 6.29 6.1
1630.295 5.93 5.79 5.69 5.59 5.54 5.5 5.44 5.4 5.45 5.53
1649.588 5.61 5.72 5.87 6.03 6.16 6.29 6.46 6.62 6.75 6.87
1668.882 7.06 7.25 7.44 7.74 8.06 8.41 8.8 9.18 9.64 10.14
1688.175 10.6 11.11 11.69 12.34 13.11 13.95 14.88 15.95 16.98 18.08
1707.469 19.21 20.35 21.6 23.07 24.86 27.09 29.86 33.17 37.33 42.45
1726.762 48.66 56.29 65.68 77.08 91.9 109.58 129.94 153.84 178.38 201.33
1746.056 218.02 224.21 218 200.78 176.78 149.99 123.74 101.96 84.49 70.81
1765.349 60.2 51.51 44.28 38.41 33.38 29.36 26.14 23.53 21.41 19.75
1784.642 18.51 17.6 17 16.6 16.34 16.09 15.74 15.16 14.31 13.3
1803.936 12.14 10.91 9.78 8.9 8.25 7.75 7.35 7.03 6.71 6.37
1823.229 6.05 5.7 5.39 5.13 4.93 4.73 4.55 4.49 4.4 4.27
1842.523 4.26 4.28 4.27 4.28 4.35 4.46 4.59 4.66 4.74 4.88
1861.816 4.98 5.08 5.15 5.18 5.22 5.28 5.36 5.49 5.65 5.78
1881.110 5.91 6.04 6.04 5.96 5.85 5.68 5.54 5.38 5.23 5.13
1900.403 5.07 5.02 4.91 4.76 4.56 4.32 4.04 3.83 3.66 3.53
1919.696 3.48 3.46 3.46 3.54 3.69 3.89 4.17 4.54 5.03 5.58
1938.990 6.19 6.82 7.27 7.5 7.51 7.31 7.01 6.78 6.65 6.71
1958.283 6.9 7.02 6.99 6.74 6.28 5.6 4.88 4.26 3.76 3.4
1977.577 3.18 3.0275 2.9033 2.8077 2.721 2.6482 2.5454 2.4451 2.3924 2.3233
1996.870 2.2817 2.2557 2.2025 2.14827 2.11261 2.1369 2.14617 2.10497 2.06462 2.0447
2016.164 2.0543 2.0477 2.0214 2.0075 1.9749 1.9769 1.964 1.924 1.943 1.924
2035.457 1.907 1.902 1.917 1.94 1.941 1.942 1.92 1.917 1.937 1.947
2054.750 1.9821 2.0374 2.0555 2.0493 2.0415 2.0394 2.06472 2.10974 2.13258 2.1732
2074.044 2.1952 2.218 2.2636 2.3043 2.3244 2.3477 2.3792 2.3867 2.3867 2.4141
2093.337 2.4453 2.4364 2.406 2.38 2.3772 2.3794 2.3432 2.2584 2.1827 2.13533
2112.631 2.12175 2.11547 2.08593 2.0534 2.0108 1.9922 1.9888 1.932 1.874 1.869
2131.924 1.9 1.886 1.849 1.843 1.854 1.853 1.839 1.824 1.79 1.776
2151.218 1.751 1.726 1.732 1.741 1.754 1.759 1.793 1.815 1.798 1.807
2170.511 1.833 1.832 1.813 1.794 1.792 1.793 1.837 1.874 1.907 1.951
2189.804 1.9785 1.988 2.0071 2.07899 2.16917 2.2806 2.4266 2.6293 2.9307 3.3
2209.098 3.72 4.26 4.87 5.46 5.99 6.37 6.53 6.42 6.06 5.49
2228.391 4.79 4.11 3.52 3.0379 2.6536 2.3804 2.2155 2.09362 2.009 1.946
2247.685 1.903 1.908 1.902 1.882 1.888 1.881 1.893 1.876 1.83 1.823
2266.978 1.835 1.839 1.812 1.8 1.822 1.842 1.83 1.838 1.863 1.885
2286.272 1.88 1.87 1.858 1.798 1.767 1.769 1.747 1.759 1.755 1.746
2305.565 1.821 1.891 2.0395 2.2387 2.4496 2.7216 2.8926 2.9169 2.8759 2.7364
2324.858 2.5584 2.4379 2.3622 2.3581 2.4151 2.4853 2.5978 2.752 2.8408 2.8985
2344.152 2.9545 2.9628 2.8855 2.759 2.6659 2.58 2.5149 2.4521 2.3773 2.3352
2363.445 2.2967 2.2332 2.204 2.1977 2.13567 2.0544 2.014 1.9961 1.946 1.877
2382.739 1.865 1.844 1.795 1.805 1.825 1.79 1.743 1.758 1.771 1.766
2402.032 1.779 1.798 1.793 1.778 1.777 1.75 1.771 1.767 1.701 1.69
2421.326 1.668 1.624 1.628 1.611 1.561 1.542 1.488 1.448 1.43 1.457
2440.619 1.494 1.47 1.418 1.371 1.357 1.378 1.416 1.424 1.446 1.468
2459.912 1.448 1.408 1.425 1.483 1.487 1.461 1.45 1.454 1.47 1.468
2479.206 1.481 1.497 1.477 1.448 1.43 1.448 1.464 1.441 1.415 1.408
2498.499 1.413 1.381 1.359 1.377 1.357 1.359 1.333 1.325 1.333 1.295
2517.793 1.272 1.28 1.27 1.209 1.214 1.227 1.191 1.161 1.13 1.153
2537.086 1.18 1.204 1.215 1.24 1.256 1.208 1.185 1.179 1.177 1.152
2556.380 1.143 1.155 1.168 1.174 1.158 1.163 1.203 1.219 1.22 1.227
2575.673 1.231 1.263 1.263 1.259 1.323 1.328 1.336 1.408 1.448 1.461
2594.966 1.519 1.566 1.535 1.506 1.468 1.459 1.463 1.434 1.371 1.335
2614.260 1.342 1.354 1.351 1.339 1.33 1.333 1.307 1.269 1.238 1.166
2633.553 1.141 1.11 1.077 1.04 0.97 0.98 0.98 0.96 0.94 0.9
2652.847 0.89 0.9 0.89 0.86 0.9 0.95 0.95 0.96 0.95 0.97
2672.140 1.01 1 0.95 0.96 0.97 0.94 0.93 0.89 0.86 0.87
2691.434 0.88 0.87 0.89 0.94 0.96 0.93 0.92 0.94 0.93 0.99
2710.727 1 0.97 0.95 0.92 0.93 0.98 1.03 1.06 1.103 1.095
2730.020 1.104 1.156 1.129 1.112 1.136 1.1 1.077 1.176 1.245 1.235
2749.314 1.23 1.267 1.307 1.329 1.365 1.382 1.442 1.536 1.6 1.646
2768.607 1.688 1.738 1.797 1.82 1.828 1.813 1.741 1.735 1.79 1.716
2787.901 1.615 1.63 1.603 1.518 1.513 1.526 1.454 1.406 1.46 1.52
2807.194 1.546 1.556 1.589 1.676 1.712 1.788 1.936 2.0244 2.0907 2.11155
2826.488 2.11593 2.2225 2.3393 2.3847 2.4046 2.3996 2.3728 2.4248 2.5438 2.6382
2845.781 2.74 2.8262 2.8914 2.9598 3.0575 3.2 3.3 3.48 3.73 3.84
2865.074 3.98 4.27 4.56 4.84 5.19 5.58 6.09 6.7 7.25 7.74
2884.368 8.16 8.4 8.38 8.22 8.07 8.04 8.06 8.12 8.38 8.7
2903.661 9.01 9.39 9.82 10.16 10.48 10.67 10.64 10.41 10.22 10.16
2922.955 10.04 10.04 10.33 10.85 11.53 12.58 13.92 15.39 17.03 18.85
2942.248 20.47 21.51 21.72 21.13 19.93 18.35 16.86 15.74 15.19 15.08
2961.542 15.43 16.15 17.13 18.37 19.73 21.27 23.02 25.01 27.54 30.74
2980.835 34.62 38.77 42.27 44.09 43.74 41.41 37.64 33.45 29.76 26.98
3000.128 24.99 23.42 22.18 21.2 20.39 19.72 19.17 18.81 18.73 18.91
3019.422 19.29 19.86 20.66 21.69 22.74 23.66 24.47 25.12 25.41 25.24
3038.715 24.62 23.5 22.02 20.52 19.42 18.97 19.29 20.47 22.5 25.5
3058.009 29.54 34.56 40.55 46.95 52.87 57.16 58.69 57.14 53.07 47.55
3077.302 42.15 38.28 36.35 35.82 35.58 34.88 33.39 30.93 27.78 24.51
3096.596 21.6 19.1 17.03 15.52 14.28 13.06 11.82 10.55 9.26 8
3115.889 6.83 5.86 5.02 4.36 3.96 3.59 3.25 3.0664 2.9577 2.8562
3135.182 2.6625 2.4989 2.5369 2.4836 2.4541 2.5077 2.4571 2.4171 2.4071 2.3762
3154.476 2.2733 2.1845 2.11386 1.923 1.728 1.599 1.491 1.355 1.226 1.185
3173.769 1.079 0.91 0.84 0.87 0.92 0.91 0.83 0.71 0.63 0.61
3193.063 0.52 0.56 0.66 0.57 0.59 0.57 0.48 0.55 0.43 0.32
3212.356 0.42 0.44 0.37 0.34 0.41 0.34 0.26 0.39 0.39 0.26
3231.650 0.26 0.21 0.16 0.18 0.16 0.18 0.1 0 0.07 0.22
3250.943 0.16 0.06 0.15 0.17 0.23 0.22 0.14 0.2 0.11 0.07
3270.236 0.06 0.14 0.17 0.11 0.2 0.27 0.21 0.19 0.28 0.27
3289.530 0.23 0.33 0.29 0.16 0.2 0.23 0.2 0.21 0.3 0.36
3308.823 0.31 0.34 0.33 0.26 0.3 0.33 0.44 0.47 0.43 0.39
3328.117 0.36 0.46 0.46 0.47 0.47 0.39 0.44 0.45 0.32 0.32
3347.410 0.46 0.47 0.41 0.34 0.24 0.19 0.32 0.44 0.42 0.44
3366.704 0.37 0.35 0.39 0.31 0.33 0.41 0.47 0.56 0.62 0.61
3385.997 0.52 0.53 0.55 0.49 0.56 0.56 0.5 0.54 0.56 0.63
3405.290 0.76 0.68 0.6 0.62 0.61 0.63 0.6 0.6 0.66 0.79
3424.584 0.81 0.7 0.77 0.89 0.91 0.88 0.93 1.01 1.01 1
3443.877 1.071 1.169 1.259 1.37 1.304 1.265 1.426 1.573 1.701 1.767
3463.171 1.77 1.9954 2.2441 2.4058 2.4535 2.4253 2.4746 2.4951 2.4519 2.4266
3482.464 2.3106 2.202 2.10985 1.841 1.672 1.617 1.503 1.457 1.261 1.094
3501.758 1.07 1.05 1.078 1.05 1.03 1 0.98 0.91 0.91 0.99
3521.051 0.94 0.94 0.95 0.78 0.74 0.83 0.85 0.84 0.89 0.92
3540.344 0.83 0.78 0.83 0.8 0.66 0.68 0.79 0.77 0.66 0.67
3559.638 0.78 0.75 0.68 0.67 0.63 0.63 0.66 0.7 0.77 0.83
3578.931 0.77 0.76 0.85 0.83 0.75 0.74 0.79 0.73 0.68 0.72
3598.225 0.76 0.82 0.87 0.85 0.74 0.7 0.73 0.75 0.79 0.84
3617.518 0.82 0.9 1 0.99 1 1.072 1.06 1.03 1.02 0.98
3636.812 1.05 1.01 1.03 1.091 1.1 1.148 1.204 1.155 1.122 1.234
3656.105 1.196 1.103 1.107 1.174 1.192 1.126 1.087 1.07 1.11 1.122
3675.398 1.13 1.182 1.194 1.245 1.299 1.305 1.305 1.263 1.273 1.28
3694.692 1.258 1.342 1.398 1.367 1.354 1.418 1.395 1.313 1.326 1.333
3713.985 1.36 1.31 1.303 1.306 1.242 1.205 1.185 1.233 1.22 1.161
3733.279 1.144 1.115 1.03 1.1 1.24 1.191 1.149 1.186 1.235 1.227
3752.572 1.127 1.06 1.086 1.149 1.117 1.086 1.05 1.06 1.151 1.113
3771.866 1.095 1.158 1.132 1.104 1.089 1.142 1.216 1.212 1.211 1.209
3791.159 1.212 1.209 1.21 1.236 1.189 1.155 1.209 1.228 1.214 1.241
3810.452 1.293 1.258 1.236 1.254 1.233 1.176 1.126 1.109 1.126 1.151
3829.746 1.103 1.06 1.08 1.122 1.139 1.124 1.085 1.03 1.04 1.04
3849.039 1.07 1.133 1.03 1.06 1.138 1.182 1.22 1.082 1.072 1.12
3868.333 1.128 1.141 1.14 1.128 1.076 1.102 1.156 1.133 1.091 1.06
3887.626 1.01 0.95 0.97 1.05 1.076 1.092 1.07 1.06 1.05 1.05
3906.920 1.114 1.175 1.175 1.146 1.119 1.099 1.05 1.03 1.148 1.156
3926.213 1.18 1.238 1.159 1.137 1.176 1.192 1.211 1.247 1.245 1.193
3945.506 1.148 1.187 1.249 1.317 1.291 1.279 1.383 1.398 1.349 1.37
3964.800 1.437 1.458 1.433 1.359 1.32 1.375 1.418 1.399 1.415 1.431
3984.093 1.382 1.405 1.45 1.446 1.507 1.528 1.569 1.582 1.543
##END=
