##TITLE=Cyclohexanemethyl isothiocyanate
##JCAMP-DX=4.24
##DATA TYPE=INFRARED SPECTRUM
##ORIGIN=EPA-IR VAPOR PHASE LIBRARY
##OWNER=SRD/NIST
Collection (C) 2018 copyright by the U.S. Secretary of Commerce
on behalf of the United States of America. All rights reserved.
##CAS REGISTRY NO=52395-66-1
##MOLFORM=C 8 H 13 N S
##$NIST SOURCE=MSDC-IR
##STATE=gas
##XUNITS=1/CM
##YUNITS=ABSORBANCE
##XFACTOR=1.
##YFACTOR=0.001
##DELTAX=1.92898
##FIRSTX=549.8
##LASTX=4000.7
##FIRSTY=4.795
##MAXX=4000.7
##MINX=549.759
##MAXY=0.224705
##MINY=0
##NPOINTS=1790
##XYDATA=(X++(Y..Y))
549.759 4.795 4.945 4.895 4.655 4.715 4.845 4.825 4.925 4.895 4.795
569.049 4.715 4.555 4.675 4.825 4.875 4.925 5.035 5.165 5.045 5.035
588.339 4.975 4.865 4.785 4.515 4.285 4.115 4.075 4.155 3.995 3.555
607.628 3.425 3.355 3.055 2.945 2.825 2.585 2.325 2.095 1.995 1.865
626.918 1.705 1.725 1.865 1.825 1.625 1.615 1.735 1.645 1.575 1.725
646.208 1.875 1.745 1.685 1.895 2.205 2.415 2.365 2.355 2.465 2.595
665.498 2.885 3.105 3.335 3.575 3.775 4.025 4.265 4.535 4.835 5.175
684.787 5.565 6.055 6.555 6.835 6.865 7.015 7.075 7.025 6.975 7.025
704.077 7.155 7.015 6.955 7.045 6.935 6.695 6.575 6.405 5.995 5.495
723.367 4.915 4.365 3.795 3.285 2.685 2.225 2.025 1.785 1.405 1.0722
742.657 0.9294 0.9159 0.9395 0.7885 0.7396 0.8624 0.8592 0.8342 0.704 0.6521
761.947 0.7105 0.6674 0.8421 0.9894 1.0082 1.064 1.0467 1.0426 1.1661 1.2402
781.236 1.355 1.3084 1.1565 0.9958 0.7323 0.8235 0.9317 0.7816 0.5405 0.359153
800.526 0.4569 0.5381 0.40256 0.184 0.204 0.40972 0.41807 0.39331 0.4761 0.6033
819.816 0.6169 0.68 0.8895 0.8565 0.7275 0.7158 0.844 1.0987 1.1096 1.0748
839.106 1.1483 1.179 1.1641 1.223 1.2364 1.1406 1.1359 1.1185 1.1485 1.1516
858.395 1.1558 1.1948 1.1234 1.126 1.1249 1.2669 1.3337 1.2814 1.455 1.615
877.685 1.755 1.795 1.775 2.005 2.105 1.875 1.785 1.715 1.625 1.655
896.975 1.635 1.615 1.675 1.765 1.875 1.945 2.115 2.335 2.505 2.635
916.265 2.745 2.715 2.535 2.535 2.465 2.265 2.135 2.025 1.975 2.005
935.555 1.925 1.955 2.115 2.175 2.395 2.655 3.085 3.625 4.005 4.435
954.844 4.605 4.515 4.325 4.005 3.755 3.395 2.665 2.015 1.705 1.555
974.134 1.465 1.3489 1.2701 1.2654 1.2604 1.2964 1.1395 1.0999 1.2881 1.2582
993.424 1.1025 1.0044 1.0221 1.1141 1.0149 0.9295 0.9868 0.9972 1.0774 1.314
1012.714 1.455 1.435 1.455 1.455 1.575 1.785 1.865 1.875 1.985 1.975
1032.003 2.035 1.845 1.745 1.795 1.765 1.855 1.685 1.525 1.515 1.555
1051.293 1.525 1.645 1.735 1.935 2.235 2.305 2.415 2.455 2.385 2.395
1070.583 2.315 2.405 2.495 2.445 2.455 2.375 2.425 2.305 2.115 1.905
1089.873 2.025 2.355 2.125 2.195 2.465 2.555 2.495 2.385 2.135 2.035
1109.163 2.145 2.165 2.245 2.145 2.355 2.665 2.675 2.515 2.245 2.185
1128.452 2.285 2.275 2.245 2.325 2.475 2.195 2.065 2.205 2.095 2.065
1147.742 2.005 1.845 2.045 2.255 1.855 1.455 1.375 1.435 1.565 1.595
1167.032 1.595 1.575 1.705 1.855 1.975 2.155 2.065 2.035 2.205 2.305
1186.322 2.095 1.805 1.675 1.765 2.105 2.025 1.845 1.705 1.775 2.135
1205.611 2.285 2.185 2.015 2.075 2.235 2.325 2.485 2.875 2.965 2.855
1224.901 3.025 2.915 2.835 2.615 2.195 2.245 2.255 2.345 2.515 2.645
1244.191 2.935 2.965 3.015 3.245 3.335 3.465 3.645 3.875 4.045 4.175
1263.481 4.315 4.265 4.445 4.695 4.935 5.055 5.215 5.645 6.095 6.895
1282.771 7.885 8.595 9.055 9.295 9.265 9.195 8.925 8.225 7.445 6.705
1302.060 6.035 5.715 5.755 5.955 6.315 6.795 7.425 8.165 9.085 10.195
1321.350 11.375 12.725 14.085 15.555 17.125 18.695 20.225 21.595 22.755 23.835
1340.640 25.135 26.635 28.145 29.435 30.235 30.425 30.125 29.265 27.665 25.515
1359.930 23.055 20.595 18.315 16.235 14.585 13.375 12.355 11.485 10.695 9.975
1379.219 9.175 8.145 6.995 5.855 4.965 4.275 3.755 3.425 3.115 2.845
1398.509 2.635 2.485 2.385 2.325 2.315 2.275 2.295 2.355 2.455 2.565
1417.799 2.705 2.865 2.985 3.185 3.395 3.555 3.845 4.285 4.915 5.775
1437.089 6.895 8.255 9.995 12.285 15.065 18.325 21.915 25.565 28.675 30.345
1456.378 30.755 30.455 29.115 26.365 22.205 17.435 13.255 10.125 7.915 6.335
1475.668 5.205 4.365 3.755 3.305 2.925 2.655 2.455 2.235 1.995 1.765
1494.958 1.575 1.395 1.3198 1.2597 1.1258 1.0475 1.0321 0.9546 0.8561 0.8151
1514.248 0.8021 0.8282 0.8246 0.7483 0.7292 0.7116 0.6401 0.6667 0.7339 0.6855
1533.538 0.6388 0.6588 0.6334 0.6211 0.6437 0.5911 0.5705 0.6123 0.6518 0.7103
1552.827 0.7141 0.7075 0.7204 0.6683 0.6835 0.8052 0.8018 0.7529 0.7567 0.7381
1572.117 0.7402 0.7073 0.6733 0.6625 0.6826 0.7017 0.7168 0.7115 0.6141 0.593
1591.407 0.6412 0.6561 0.6736 0.6653 0.664 0.6651 0.612 0.5986 0.5522 0.5104
1610.697 0.5297 0.5756 0.5809 0.5457 0.5241 0.4921 0.5019 0.5143 0.4977 0.4977
1629.986 0.5441 0.5697 0.5233 0.558 0.5802 0.5475 0.5982 0.5982 0.559 0.5679
1649.276 0.5432 0.5102 0.5865 0.6361 0.6007 0.5694 0.5674 0.5838 0.6094 0.6533
1668.566 0.6634 0.6386 0.6566 0.6834 0.671 0.6844 0.7137 0.7265 0.7181 0.6845
1687.856 0.6436 0.6387 0.6519 0.6447 0.6152 0.6135 0.672 0.7151 0.7245 0.6813
1707.146 0.6757 0.7402 0.7717 0.7836 0.8043 0.7938 0.7626 0.7597 0.7674 0.74
1726.435 0.7197 0.7325 0.7174 0.7274 0.7639 0.7355 0.7178 0.7224 0.6905 0.6943
1745.725 0.7201 0.7156 0.7607 0.7594 0.7387 0.7681 0.803 0.8323 0.8669 0.8376
1765.015 0.7862 0.8519 0.909 0.9093 0.8714 0.8122 0.8246 0.8764 0.8499 0.8226
1784.305 0.8727 0.9109 0.9371 0.9623 0.9628 1.0192 1.037 0.9874 0.9758 0.9793
1803.594 0.9806 0.9545 0.9133 0.8876 0.868 0.891 0.8835 0.8863 0.9203 0.9068
1822.884 0.907 0.8768 0.8534 0.8837 0.8844 0.9061 0.9503 0.9549 0.9607 0.9318
1842.174 0.9604 1.0169 1.059 1.1121 1.104 1.1454 1.197 1.2153 1.278 1.3207
1861.464 1.352 1.385 1.435 1.585 1.695 1.665 1.695 1.795 1.885 1.965
1880.754 2.035 2.105 2.225 2.385 2.525 2.665 2.785 2.875 3.015 3.145
1900.043 3.305 3.435 3.575 3.715 3.865 4.045 4.215 4.415 4.625 4.795
1919.333 4.975 5.165 5.365 5.605 5.875 6.145 6.425 6.745 7.085 7.405
1938.623 7.765 8.155 8.495 8.925 9.365 9.845 10.375 10.915 11.535 12.175
1957.913 12.855 13.595 14.365 15.235 16.195 17.145 18.215 19.405 20.585 21.875
1977.202 23.195 24.505 25.995 27.555 29.155 30.865 32.645 34.555 36.595 38.715
1996.492 40.995 43.455 46.125 48.995 52.015 55.255 58.795 62.565 66.545 70.865
2015.782 75.575 80.655 86.065 91.895 98.245 105.015 112.155 119.635 127.425 135.455
2035.072 143.625 151.865 160.085 168.185 175.975 183.305 190.185 196.585 202.295 207.445
2054.362 211.885 215.595 218.725 221.165 222.975 224.205 224.705 224.445 223.355 221.345
2073.651 218.385 214.505 209.535 203.415 196.335 188.225 178.985 168.815 157.945 146.865
2092.941 135.925 125.435 115.715 107.045 99.465 92.835 87.255 82.705 78.975 75.905
2112.231 73.435 71.445 69.865 68.545 67.445 66.395 65.315 64.285 63.135 61.875
2131.521 60.665 59.385 58.075 56.845 55.535 54.075 52.475 50.895 49.275 47.675
2150.810 46.115 44.545 43.045 41.645 40.585 39.695 38.905 38.345 37.885 37.505
2170.100 37.115 36.725 36.395 35.945 35.505 35.055 34.525 33.985 33.415 32.925
2189.390 32.405 31.885 31.465 30.965 30.445 29.945 29.465 28.915 28.275 27.585
2208.680 26.835 26.035 25.155 24.255 23.285 22.275 21.245 20.145 19.085 18.075
2227.970 17.045 16.005 15.055 14.215 13.375 12.585 11.875 11.195 10.625 10.075
2247.259 9.535 9.045 8.515 8.045 7.655 7.265 6.935 6.605 6.245 5.915
2266.549 5.615 5.295 5.055 4.885 4.635 4.465 4.335 4.115 3.965 3.745
2285.839 3.565 3.535 3.495 3.365 3.225 3.065 2.955 2.885 2.805 2.715
2305.129 2.625 2.555 2.465 2.305 2.235 2.265 2.185 2.085 2.095 2.045
2324.418 1.905 1.835 1.795 1.795 1.755 1.685 1.665 1.675 1.685 1.655
2343.708 1.685 1.655 1.625 1.665 1.655 1.635 1.555 1.545 1.595 1.615
2362.998 1.555 1.505 1.525 1.495 1.435 1.435 1.465 1.475 1.475 1.455
2382.288 1.375 1.345 1.365 1.3357 1.3425 1.415 1.395 1.385 1.375 1.3446
2401.578 1.3317 1.2982 1.3157 1.2904 1.3104 1.3397 1.2891 1.2402 1.1299 1.0777
2420.867 1.116 1.0954 1.0486 1.0479 1.0377 1.0374 1.0255 0.9641 0.9648 0.9764
2440.157 0.9558 0.9535 0.9116 0.8723 0.827 0.858 0.9329 0.9134 0.9105 0.8985
2459.447 0.8882 0.9001 0.8763 0.892 0.9487 0.9859 0.9872 0.963 1.0019 1.0897
2478.737 1.172 1.1045 1.059 1.1245 1.1178 1.1312 1.1241 1.1016 1.1467 1.1935
2498.026 1.1802 1.1115 1.0926 1.1338 1.1225 1.0945 1.1406 1.2027 1.2148 1.1996
2517.316 1.171 1.1622 1.1759 1.2646 1.3341 1.3171 1.3237 1.375 1.425 1.445
2536.606 1.485 1.515 1.435 1.385 1.385 1.405 1.405 1.3299 1.334 1.405
2555.896 1.475 1.595 1.665 1.665 1.645 1.615 1.645 1.655 1.715 1.825
2575.186 1.845 1.875 1.905 1.895 1.885 1.875 1.815 1.795 1.845 1.805
2594.475 1.705 1.715 1.685 1.655 1.615 1.545 1.495 1.455 1.445 1.415
2613.765 1.445 1.435 1.405 1.415 1.435 1.455 1.465 1.495 1.565 1.575
2633.055 1.635 1.685 1.645 1.655 1.665 1.705 1.805 1.855 1.925 2.055
2652.345 2.155 2.175 2.205 2.365 2.475 2.535 2.665 2.765 2.745 2.725
2671.634 2.735 2.735 2.635 2.565 2.525 2.505 2.475 2.445 2.365 2.315
2690.924 2.255 2.195 2.245 2.305 2.275 2.265 2.265 2.315 2.335 2.325
2710.214 2.305 2.175 2.225 2.305 2.225 2.215 2.245 2.275 2.365 2.435
2729.504 2.405 2.395 2.525 2.605 2.605 2.645 2.745 2.905 3.005 3.025
2748.794 3.125 3.155 3.195 3.355 3.465 3.635 3.695 3.735 3.865 3.895
2768.083 3.955 3.965 3.975 4.075 4.115 4.155 4.265 4.255 4.335 4.425
2787.373 4.435 4.485 4.555 4.505 4.465 4.495 4.485 4.475 4.355 4.245
2806.663 4.255 4.325 4.315 4.285 4.275 4.325 4.435 4.535 4.625 4.755
2825.953 5.045 5.325 5.485 5.855 6.385 7.055 7.855 8.785 10.055 11.615
2845.242 13.525 16.025 19.105 22.765 27.085 31.915 37.195 42.385 46.515 49.315
2864.532 50.995 51.365 50.385 48.285 45.005 41.095 37.265 33.855 30.865 28.275
2883.822 26.225 24.585 23.355 22.675 22.515 22.755 23.495 24.645 26.045 27.845
2903.112 30.015 32.515 35.215 38.205 41.685 45.635 50.245 55.585 61.575 68.505
2922.401 76.665 86.035 96.725 108.555 120.825 132.315 142.275 150.905 157.795 160.585
2941.691 157.005 148.565 137.285 123.945 108.865 91.515 73.175 56.875 44.225 34.845
2960.981 27.735 22.555 18.705 15.635 13.245 11.385 9.905 8.655 7.615 6.685
2980.271 5.815 5.025 4.355 3.885 3.435 2.965 2.675 2.405 2.195 1.995
2999.561 1.785 1.795 1.785 1.675 1.615 1.515 1.415 1.3217 1.3185 1.405
3018.850 1.3125 1.1748 1.1223 1.1255 1.1929 1.2102 1.2115 1.2207 1.2636 1.338
3038.140 1.259 1.263 1.2681 1.1964 1.1639 1.1331 1.0422 1.0293 1.0752 1.1149
3057.430 1.2642 1.2695 1.2135 1.2276 1.1463 1.0851 1.1466 1.1449 1.0882 0.9248
3076.720 0.7741 0.7927 0.819 0.8093 0.9121 0.9547 0.853 0.8018 0.7887 0.7808
3096.009 0.7939 0.8683 0.8671 0.7904 0.7418 0.6457 0.6222 0.5956 0.6014 0.6479
3115.299 0.6144 0.6108 0.6624 0.7014 0.6063 0.5528 0.704 0.8287 0.6897 0.6279
3134.589 0.6409 0.5168 0.5069 0.5904 0.7409 0.7925 0.7039 0.6765 0.6423 0.687
3153.879 0.6625 0.6492 0.677 0.7092 0.707 0.7178 0.8665 0.8045 0.739 0.7343
3173.169 0.594 0.5056 0.6085 0.6128 0.4946 0.44511 0.41366 0.41235 0.43857 0.41097
3192.458 0.4444 0.5022 0.5123 0.5555 0.4838 0.4584 0.38414 0.3365 0.3158 0.206
3211.748 0.2791 0.2686 0.2 0.3082 0.3273 0.274 0.38466 0.4976 0.4877 0.4592
3231.038 0.37979 0.3037 0.2799 0.3332 0.36584 0.4604 0.5376 0.501 0.5296 0.5423
3250.328 0.5069 0.4767 0.4912 0.5086 0.4607 0.4684 0.5172 0.4926 0.37465 0.3111
3269.617 0.4101 0.44924 0.38709 0.3133 0.2702 0.3376 0.41865 0.40277 0.3246 0.3186
3288.907 0.3014 0.249 0.2603 0.252 0.2672 0.231 0.237 0.255 0.197 0.167
3308.197 0.075 0 0.059 0.164 0.163 0.244 0.3296 0.3124 0.38811 0.3165
3327.487 0.298 0.36822 0.38315 0.37805 0.3372 0.355468 0.42844 0.39479 0.34654 0.3196
3346.777 0.40274 0.4643 0.37591 0.355761 0.44878 0.4829 0.40547 0.41069 0.5238 0.5322
3366.066 0.36555 0.3373 0.42698 0.36658 0.39138 0.4833 0.4268 0.39888 0.42275 0.5225
3385.356 0.6245 0.4788 0.37477 0.4753 0.5094 0.511 0.46 0.43248 0.4758 0.5256
3404.646 0.4982 0.43688 0.37843 0.39032 0.43161 0.42122 0.364556 0.41681 0.44757 0.45453
3423.936 0.5815 0.4936 0.3321 0.45206 0.5615 0.42419 0.37067 0.41495 0.41693 0.49
3443.225 0.5559 0.41374 0.42436 0.45443 0.37146 0.41637 0.42819 0.492 0.44358 0.40157
3462.515 0.4758 0.493 0.4837 0.4689 0.4809 0.45177 0.40688 0.41753 0.43277 0.5056
3481.805 0.5831 0.5502 0.4525 0.42852 0.4925 0.5045 0.41727 0.357616 0.43284 0.4891
3501.095 0.44891 0.39065 0.2855 0.208 0.211 0.175 0.14 0.235 0.341 0.44062
3520.385 0.362078 0.2768 0.2582 0.2577 0.43443 0.4586 0.38852 0.497 0.4832 0.3256
3539.674 0.3033 0.254 0.2633 0.3059 0.3302 0.3053 0.3139 0.2946 0.2996 0.39586
3558.964 0.3337 0.3218 0.36654 0.3335 0.217 0.244 0.2892 0.3296 0.38599 0.2659
3578.254 0.2827 0.3439 0.355746 0.3165 0.2822 0.3009 0.2881 0.297 0.247 0.198
3597.544 0.251 0.2996 0.2577 0.248 0.3178 0.3359 0.253 0.2795 0.3021 0.3448
3616.833 0.3329 0.2677 0.39087 0.45313 0.39577 0.39557 0.39967 0.37697 0.3334 0.2824
3636.123 0.39415 0.5135 0.5104 0.6042 0.5412 0.3841 0.461 0.44875 0.44915 0.4976
3655.413 0.45003 0.40383 0.37096 0.36791 0.4796 0.5561 0.5417 0.43829 0.2791 0.3099
3674.703 0.42824 0.5339 0.5177 0.4473 0.44121 0.40589 0.4613 0.4758 0.4698 0.5318
3693.993 0.5066 0.5268 0.496 0.4889 0.5496 0.536 0.45128 0.45036 0.5566 0.5313
3713.282 0.44031 0.40735 0.363628 0.36584 0.5117 0.5416 0.4716 0.4762 0.4636 0.4752
3732.572 0.5596 0.4566 0.41251 0.5454 0.5148 0.5141 0.6324 0.5934 0.42978 0.38172
3751.862 0.4557 0.5212 0.45181 0.45329 0.6451 0.7137 0.6121 0.5027 0.4821 0.5209
3771.152 0.5673 0.5512 0.5026 0.4727 0.5087 0.694 0.675 0.6284 0.629 0.42383
3790.441 0.5092 0.7311 0.5957 0.4822 0.5159 0.43552 0.41827 0.5294 0.5723 0.6111
3809.731 0.6262 0.6126 0.6865 0.7113 0.6798 0.6352 0.5429 0.6061 0.6707 0.6291
3829.021 0.6548 0.6124 0.568 0.629 0.6211 0.556 0.5584 0.4907 0.5301 0.5809
3848.311 0.5202 0.4738 0.6106 0.7394 0.7318 0.7242 0.6423 0.5502 0.4679 0.42848
3867.601 0.4645 0.6984 0.8378 0.8625 0.8103 0.6305 0.638 0.7725 0.917 0.8682
3886.890 0.7153 0.7946 0.7281 0.5756 0.7821 0.8449 0.7168 0.71 0.7561 0.8379
3906.180 0.8352 0.881 0.808 0.701 0.7109 0.7214 0.6975 0.666 0.8079 0.8146
3925.470 0.6246 0.5788 0.6896 0.7024 0.6865 0.7234 0.689 0.7516 0.7397 0.6923
3944.760 0.8582 1.0218 0.974 0.9229 1.0075 1.0148 0.843 0.7519 0.7559 0.674
3964.049 0.8214 0.9258 0.8346 0.9275 0.9985 1.0897 1.1062 1.0531 0.9828 0.839
3983.339 0.8483 0.92 1.0577 1.2076 1.182 1.0992 1.0039 1.034 1.1685 1.2806
##END=
