##TITLE=1,2-Naphthoquinone
##JCAMP-DX=4.24
##DATA TYPE=INFRARED SPECTRUM
##ORIGIN=NIST Mass Spectrometry Data Center
##OWNER=NIST Standard Reference Data Program
Collection (C) 2018 copyright by the U.S. Secretary of Commerce
on behalf of the United States of America. All rights reserved.
##CAS REGISTRY NO=524-42-5
##MOLFORM=C 10 H 6 O 2
##$NIST SOURCE=MSDC-IR
##SPECTROMETER/DATA SYSTEM=HP-GC/MS/IRD
##STATE=gas
##XUNITS=1/CM
##YUNITS=ABSORBANCE
##XFACTOR=1.0
##YFACTOR=0.000000300
##DELTAX=4.0
##FIRSTX=550.0
##LASTX=3846.0
##FIRSTY=0.000241
##MAXX=3846
##MINX=550
##MAXY=0.003
##MINY=0
##NPOINTS=825
##XYDATA=(X++(Y..Y))
550.0 803 1020 803 745 619 692 431 126 308 480
590.0 480 410 243 323 576 638 719 675 429 337
630.0 198 170 323 470 381 249 245 292 346 428
670.0 543 699 798 665 633 473 318 396 417 281
710.0 160 153 136 219 375 471 631 868 1211 1603
750.0 1939 1742 1273 1094 845 546 558 805 1174 1532
790.0 1760 1728 1479 1146 736 395 293 227 370 621
830.0 758 1058 1401 1711 1557 1197 1040 812 539 384
870.0 298 326 252 56 87 133 118 113 81 144
910.0 204 171 162 255 264 276 435 654 1000 1429
950.0 1641 1663 1486 1066 737 499 329 259 247 217
990.0 91 95 196 115 76 152 92 142 257 180
1030.0 206 263 198 179 188 178 61 123 291 288
1070.0 166 227 310 352 406 514 601 593 496 465
1110.0 508 612 679 695 722 650 617 566 351 307
1150.0 305 241 316 284 341 504 688 931 1106 1239
1190.0 1344 1313 1182 1207 1304 1319 1377 1458 1527 1748
1230.0 2192 2514 2624 2452 2033 1542 1171 1035 1161 1484
1270.0 2142 3040 3715 4022 3903 3301 2506 1916 1633 1491
1310.0 1392 1231 967 754 572 461 390 290 293 340
1350.0 304 249 216 208 274 294 326 416 516 544
1390.0 552 528 448 401 357 315 225 107 113 180
1430.0 178 152 269 506 647 756 691 556 505 405
1470.0 260 162 273 309 194 128 149 187 160 43
1510.0 28 60 76 80 140 158 181 163 159 258
1550.0 367 423 449 537 599 675 731 792 960 1148
1590.0 1405 1633 1621 1489 1268 923 677 559 561 687
1630.0 781 756 831 915 961 1058 1191 1524 1967 2483
1670.0 3329 4608 6034 7375 8903 10000 9942 9290 8251 6700
1710.0 5174 3872 3004 2454 1748 1097 694 596 580 491
1750.0 462 506 533 569 526 442 446 408 317 265
1790.0 252 242 227 233 253 295 322 322 318 238
1830.0 206 254 253 201 174 215 237 211 214 210
1870.0 193 185 191 149 113 169 182 194 229 219
1910.0 206 230 199 176 242 274 273 290 292 295
1950.0 295 307 310 315 302 293 260 244 242 182
1990.0 173 194 173 160 184 232 272 213 168 155
2030.0 116 157 218 209 191 215 218 199 185 168
2070.0 174 167 141 139 155 152 148 150 142 143
2110.0 152 174 161 141 158 156 137 147 158 129
2150.0 141 168 181 180 138 124 135 140 133 129
2190.0 154 154 186 240 207 146 184 213 168 141
2230.0 162 177 186 203 137 104 140 140 152 160
2270.0 124 84 96 150 187 227 222 177 167 128
2310.0 173 222 150 125 138 138 126 176 192 172
2350.0 169 147 113 132 156 127 141 141 86 72
2390.0 141 201 222 196 194 214 197 219 211 181
2430.0 218 236 135 134 168 118 134 154 176 113
2470.0 129 199 220 208 168 220 250 214 194 183
2510.0 127 98 133 177 152 136 150 134 114 114
2550.0 148 132 142 194 200 134 138 120 79 89
2590.0 116 156 182 181 175 171 155 138 154 184
2630.0 219 248 181 144 154 145 152 165 141 171
2670.0 243 237 187 233 246 146 137 162 167 176
2710.0 135 68 70 120 124 143 184 152 129 167
2750.0 110 117 63 28 117 124 180 153 109 137
2790.0 179 153 209 252 181 175 154 121 185 285
2830.0 222 110 117 145 124 65 57 107 66 49
2870.0 88 126 149 87 41 76 127 89 117 189
2910.0 144 210 243 167 158 174 174 146 154 177
2950.0 121 51 103 154 175 211 193 193 188 197
2990.0 187 176 179 135 153 232 235 305 446 488
3030.0 579 686 836 980 1060 1123 1146 1114 1018 990
3070.0 1128 1292 1266 1141 905 675 557 490 417 353
3110.0 350 269 136 118 152 204 197 185 245 227
3150.0 187 166 185 188 155 206 266 188 120 81
3190.0 177 234 233 220 204 246 204 134 88 90
3230.0 105 64 0 73 139 131 154 144 156 130
3270.0 124 98 38 127 163 136 94 119 191 176
3310.0 184 229 277 301 283 232 218 186 308 404
3350.0 444 481 403 437 525 502 462 519 529 479
3390.0 426 317 410 541 394 272 240 293 368 286
3430.0 200 206 189 234 354 404 361 229 181 141
3470.0 110 236 312 189 94 163 129 92 81 149
3510.0 176 219 357 394 326 310 318 232 127 22
3550.0 130 262 325 285 193 196 217 299 332 129
3590.0 37 208 395 353 188 174 209 113 96 71
3630.0 110 296 283 135 31 77 219 238 260 349
3670.0 283 130 112 127 141 158 201 225 236 257
3710.0 215 247 334 315 303 248 159 121 199 256
3750.0 42 11 262 301 267 320 307 404 386 283
3790.0 275 277 330 293 222 337 414 388 357 269
3830.0 226 132 80 146 248
##END=
