##TITLE=2,4-Dichlorophenethylamine
##JCAMP-DX=4.24
##DATA TYPE=INFRARED SPECTRUM
##ORIGIN=EPA-IR VAPOR PHASE LIBRARY
##OWNER=SRD/NIST
Collection (C) 2018 copyright by the U.S. Secretary of Commerce
on behalf of the United States of America. All rights reserved.
##CAS REGISTRY NO=52516-13-9
##MOLFORM=C 8 H 9 Cl 2 N
##$NIST SOURCE=MSDC-IR
##STATE=gas
##XUNITS=1/CM
##YUNITS=ABSORBANCE
##XFACTOR=1.
##YFACTOR=0.001
##DELTAX=1.92898
##FIRSTX=549.8
##LASTX=4000.7
##FIRSTY=6.316
##MAXX=4000.7
##MINX=549.759
##MAXY=0.099786
##MINY=0
##NPOINTS=1790
##XYDATA=(X++(Y..Y))
549.759 6.316 7.276 8.276 8.976 9.496 10.546 12.006 12.836 12.796 12.586
569.049 12.266 11.696 10.786 9.786 9.066 8.316 7.616 7.046 6.066 5.516
588.339 5.416 5.236 5.416 5.396 5.356 5.596 5.716 5.696 5.846 5.846
607.628 5.666 5.686 5.676 5.656 5.786 5.976 6.106 6.396 6.726 6.866
626.918 7.176 7.546 8.086 8.936 9.806 10.976 11.926 12.576 13.286 13.686
646.208 13.676 13.306 12.776 11.996 11.086 10.386 10.076 10.056 9.956 9.636
665.498 9.346 9.256 9.236 9.656 9.966 10.096 10.766 11.646 12.716 14.456
684.787 16.366 17.956 19.456 20.506 21.146 21.706 21.976 21.776 21.046 20.146
704.077 19.536 19.096 18.886 18.816 18.936 19.086 19.526 20.336 21.036 21.766
723.367 22.666 23.736 25.046 26.356 28.116 30.306 32.406 34.866 37.496 39.936
742.657 42.066 43.806 44.936 45.726 46.026 46.286 46.626 46.586 46.556 46.316
761.947 45.666 44.666 43.646 42.486 40.966 39.526 38.166 36.736 35.396 34.036
781.236 32.946 32.006 31.276 31.066 30.896 30.856 31.306 32.546 34.346 36.406
800.526 39.256 42.756 46.536 51.076 55.846 59.916 63.436 65.866 66.866 66.616
819.816 65.466 63.136 59.116 54.406 49.216 43.346 37.736 33.326 30.086 28.126
839.106 27.676 28.106 28.896 29.506 29.896 30.026 29.666 29.196 28.976 28.616
858.395 28.396 28.866 29.616 31.026 33.136 35.226 33.896 29.186 25.836 23.416
877.685 20.506 17.456 14.736 12.486 10.846 9.956 9.216 8.496 8.156 7.936
896.975 7.616 7.586 7.576 7.156 6.796 6.656 6.296 6.116 5.906 5.616
916.265 5.526 5.416 5.236 5.016 4.886 4.706 4.586 4.516 4.316 4.126
935.555 4.116 4.196 4.146 4.206 4.226 4.166 4.156 4.346 4.586 4.646
954.844 4.686 4.656 4.816 5.016 5.236 5.366 5.516 5.696 5.816 6.016
974.134 6.366 6.716 6.856 6.966 7.036 7.136 7.316 7.366 7.366 7.436
993.424 7.436 7.456 7.646 7.586 7.456 7.486 7.356 7.176 7.166 7.166
1012.714 7.046 7.156 7.206 7.336 7.426 7.336 7.466 7.936 8.396 9.016
1032.003 10.166 11.386 13.106 15.866 19.186 23.006 27.196 30.896 33.886 36.036
1051.293 37.896 39.846 40.206 39.236 38.576 37.486 36.416 35.466 34.406 33.676
1070.583 32.406 30.656 28.696 26.676 25.206 24.036 22.516 21.556 21.336 21.786
1089.873 23.506 25.876 28.776 32.386 36.076 39.046 40.906 41.686 41.416 39.826
1109.163 36.816 33.256 29.586 25.386 21.826 19.646 18.246 16.766 15.786 14.886
1128.452 13.736 12.906 11.986 11.136 10.536 9.836 9.116 8.786 8.176 7.476
1147.742 7.206 6.846 6.306 5.876 5.476 4.826 4.616 4.586 4.396 4.216
1167.032 4.276 4.406 4.156 4.246 4.376 4.266 4.336 4.526 4.656 4.976
1186.322 5.026 4.786 4.836 4.916 4.726 4.716 4.796 4.476 4.186 4.006
1205.611 3.736 3.986 4.096 3.686 3.586 3.526 3.526 3.676 3.846 3.976
1224.901 3.806 3.736 3.816 3.566 3.536 3.686 3.856 4.086 4.286 4.716
1244.191 5.216 5.296 5.526 6.036 6.366 6.446 6.386 6.296 6.216 6.036
1263.481 5.466 4.966 4.536 4.266 4.306 4.316 4.236 4.116 4.066 4.076
1282.771 3.936 4.026 4.216 4.176 4.046 3.886 3.906 3.986 3.966 3.976
1302.060 3.906 3.766 3.746 3.786 3.756 3.756 3.796 3.746 3.816 4.006
1321.350 4.026 4.136 4.316 4.436 4.606 4.866 5.136 5.386 5.706 5.986
1340.640 6.286 6.706 7.166 7.716 8.386 9.096 9.766 10.446 11.186 12.006
1359.930 12.876 13.816 14.976 16.276 17.646 19.066 20.506 21.806 22.966 24.026
1379.219 24.816 25.126 24.856 24.106 22.896 21.276 19.436 17.336 15.086 12.926
1398.509 11.096 9.606 8.426 7.616 7.096 6.766 6.646 6.796 7.186 7.746
1417.799 8.516 9.576 10.706 11.996 13.446 14.626 15.666 16.436 16.906 17.296
1437.089 17.456 17.496 17.656 17.976 18.376 18.726 19.196 19.956 21.076 22.856
1456.378 25.846 30.376 36.696 45.476 56.706 69.576 82.156 92.396 98.336 99.786
1475.668 96.726 89.226 77.786 63.786 49.636 37.646 28.786 22.836 18.946 16.426
1494.958 14.786 13.736 13.076 12.576 12.156 11.836 11.516 11.036 10.486 9.846
1514.248 9.206 8.576 7.886 7.316 6.816 6.366 6.066 5.916 5.916 5.996
1533.538 6.206 6.566 7.046 7.826 8.706 9.786 11.146 12.566 14.126 15.876
1552.827 17.506 18.826 19.736 20.336 20.696 20.646 20.306 19.766 19.206 19.016
1572.117 19.316 20.206 21.926 24.126 26.586 29.276 31.866 34.206 35.906 36.636
1591.407 36.196 34.546 32.076 29.006 25.476 21.886 18.696 16.186 14.416 13.466
1610.697 13.246 13.466 13.906 14.436 14.866 15.186 15.386 15.336 14.956 14.436
1629.986 13.666 12.686 11.716 10.696 9.576 8.586 7.766 7.016 6.356 5.736
1649.276 5.256 4.956 4.546 4.146 3.826 3.476 3.306 3.186 2.996 2.836
1668.566 2.796 2.766 2.636 2.476 2.426 2.376 2.196 2.086 2.086 1.986
1687.856 1.896 1.896 1.896 1.866 1.916 1.866 1.796 1.766 1.726 1.746
1707.146 1.826 1.956 1.936 1.946 2.176 2.396 2.636 2.936 3.226 3.556
1726.435 3.946 4.266 4.466 4.516 4.386 4.306 4.286 4.096 3.796 3.536
1745.725 3.246 3.086 2.996 2.846 2.626 2.486 2.396 2.176 1.946 1.786
1765.015 1.666 1.616 1.616 1.576 1.496 1.446 1.406 1.366 1.346 1.336
1784.305 1.396 1.406 1.386 1.396 1.406 1.436 1.436 1.426 1.466 1.536
1803.594 1.576 1.586 1.556 1.546 1.596 1.596 1.586 1.576 1.516 1.476
1822.884 1.446 1.366 1.296 1.276 1.296 1.286 1.286 1.256 1.216 1.1632
1842.174 1.1165 1.186 1.1436 1.1258 1.1373 1.0453 1.0375 1.0467 1.0224 1.0694
1861.464 1.206 1.306 1.346 1.406 1.586 1.776 1.956 2.156 2.356 2.466
1880.754 2.456 2.506 2.616 2.616 2.506 2.376 2.196 1.996 1.776 1.556
1900.043 1.376 1.216 1.0347 0.9453 0.8676 0.8212 0.771 0.6671 0.6735 0.7215
1919.333 0.6836 0.6115 0.5545 0.5372 0.5073 0.5025 0.5769 0.6239 0.6048 0.5354
1938.623 0.5015 0.5005 0.5093 0.433 0.403 0.3959 0.3758 0.4345 0.4441 0.4106
1957.913 0.3896 0.3722 0.403 0.4356 0.3576 0.358 0.4027 0.3872 0.3722 0.3965
1977.202 0.405 0.3377 0.3231 0.3472 0.4099 0.4421 0.3648 0.3467 0.3858 0.3811
1996.492 0.3834 0.3673 0.3272 0.2829 0.25207 0.2774 0.3268 0.2786 0.24541 0.2847
2015.782 0.3065 0.3675 0.3975 0.3793 0.3526 0.3509 0.26113 0.21803 0.2937 0.324
2035.072 0.375 0.3886 0.3801 0.3297 0.3049 0.3379 0.341 0.2852 0.2912 0.3403
2054.362 0.3425 0.3403 0.3046 0.3195 0.3984 0.3796 0.3021 0.3164 0.3283 0.3417
2073.651 0.3732 0.3701 0.4185 0.3797 0.3223 0.3857 0.4217 0.4142 0.3497 0.3309
2092.941 0.3507 0.3099 0.3222 0.3736 0.3285 0.3354 0.4044 0.3853 0.2913 0.3061
2112.231 0.3321 0.3377 0.3607 0.3352 0.2992 0.3131 0.344 0.2759 0.3021 0.3534
2131.521 0.3473 0.3073 0.3466 0.3534 0.33 0.2749 0.23248 0.3218 0.3029 0.2817
2150.810 0.23344 0.22528 0.3056 0.3025 0.3185 0.3367 0.2776 0.25738 0.2727 0.3097
2170.100 0.3838 0.3043 0.22325 0.24568 0.25118 0.23496 0.22261 0.24547 0.21953 0.281
2189.390 0.3306 0.3189 0.3525 0.3663 0.2972 0.25148 0.2737 0.24105 0.22825 0.20924
2208.680 0.26261 0.3649 0.344 0.3109 0.3167 0.3559 0.4095 0.3442 0.2672 0.26089
2227.970 0.19898 0.174623 0.2877 0.345 0.3306 0.2823 0.2739 0.25127 0.22656 0.23205
2247.259 0.20985 0.25989 0.2683 0.2684 0.2878 0.24244 0.22394 0.315 0.3731 0.3343
2266.549 0.24803 0.19445 0.2655 0.3308 0.3604 0.3976 0.3362 0.2996 0.2854 0.24959
2285.839 0.23374 0.3192 0.3756 0.3729 0.3997 0.4536 0.5202 0.4708 0.4828 0.4624
2305.129 0.439 0.4354 0.3366 0.26116 0.336 0.3848 0.3652 0.3985 0.3574 0.3895
2324.418 0.3652 0.2926 0.2739 0.23629 0.3168 0.2949 0.2849 0.4621 0.4836 0.3829
2343.708 0.3495 0.3867 0.3983 0.3739 0.3392 0.3174 0.3376 0.3713 0.3983 0.3702
2362.998 0.3901 0.392 0.2803 0.25122 0.2682 0.23065 0.21953 0.25508 0.25596 0.2974
2382.288 0.3244 0.3337 0.351 0.26285 0.25046 0.3265 0.3609 0.2728 0.2431 0.306
2401.578 0.2684 0.2745 0.3329 0.3395 0.3737 0.3807 0.3278 0.3132 0.295 0.3777
2420.867 0.4286 0.3206 0.23405 0.22737 0.3174 0.3392 0.3564 0.379 0.3204 0.3511
2440.157 0.3584 0.3878 0.4292 0.3312 0.306 0.3322 0.35 0.3502 0.3476 0.3277
2459.447 0.2789 0.3454 0.4192 0.3494 0.26269 0.23795 0.2774 0.3187 0.3217 0.3162
2478.737 0.3474 0.3795 0.2879 0.2943 0.3914 0.4001 0.3979 0.4 0.3656 0.3802
2498.026 0.3939 0.3667 0.4429 0.4171 0.3656 0.451 0.4758 0.4393 0.4624 0.4192
2517.316 0.2892 0.3052 0.4179 0.4191 0.3931 0.466 0.487 0.5256 0.5397 0.4556
2536.606 0.4638 0.5163 0.4513 0.3894 0.4678 0.4739 0.347 0.3564 0.4252 0.3906
2555.896 0.3854 0.4162 0.3693 0.3579 0.4168 0.4292 0.4252 0.3914 0.4336 0.54
2575.186 0.5348 0.5189 0.5652 0.5997 0.6102 0.6086 0.5603 0.5288 0.563 0.6153
2594.475 0.6437 0.6738 0.6285 0.6517 0.666 0.6683 0.6191 0.6143 0.7528 0.7139
2613.765 0.7264 0.7775 0.7646 0.7984 0.8406 0.8114 0.8265 0.9816 1.0292 0.9329
2633.055 0.9828 1.1091 1.0869 1.0671 1.166 1.1339 1.0306 1.0473 1.0864 1.0965
2652.345 1.1405 1.186 1.206 1.266 1.206 1.1227 1.1579 1.266 1.336 1.326
2671.634 1.366 1.296 1.266 1.386 1.456 1.496 1.506 1.586 1.616 1.596
2690.924 1.656 1.606 1.536 1.586 1.636 1.636 1.606 1.556 1.556 1.566
2710.214 1.656 1.726 1.726 1.776 1.836 1.886 1.956 1.886 1.816 1.886
2729.504 1.946 1.936 2.036 2.176 2.236 2.296 2.286 2.296 2.346 2.366
2748.794 2.306 2.266 2.346 2.346 2.246 2.156 2.096 2.276 2.356 2.216
2768.083 2.066 2.036 2.136 2.186 2.286 2.336 2.236 2.226 2.266 2.306
2787.373 2.366 2.316 2.376 2.456 2.456 2.496 2.586 2.696 2.826 2.946
2806.663 2.996 3.096 3.306 3.476 3.556 3.696 3.956 4.076 4.196 4.446
2825.953 4.686 4.986 5.306 5.606 6.076 6.656 7.256 7.876 8.626 9.416
2845.242 10.216 11.266 12.466 13.526 14.716 16.106 17.376 18.586 19.796 20.956
2864.532 22.166 23.106 23.786 24.506 24.836 24.886 24.676 24.126 23.456 22.596
2883.822 21.556 20.306 18.976 17.846 16.836 15.996 15.256 14.676 14.416 14.336
2903.112 14.486 14.896 15.526 16.406 17.436 18.666 20.086 21.606 23.046 24.566
2922.401 26.136 27.716 29.116 30.396 31.826 32.986 34.016 35.106 35.936 36.176
2941.691 35.986 35.596 34.956 33.956 32.846 31.856 30.846 29.876 28.826 27.626
2960.981 26.136 24.386 22.446 20.436 18.366 16.386 14.546 12.756 11.156 9.626
2980.271 8.466 7.646 6.856 6.056 5.526 5.266 4.876 4.516 4.296 4.096
2999.561 3.956 3.916 3.816 3.806 3.946 3.886 3.876 4.026 4.076 4.196
3018.850 4.506 4.626 4.536 4.606 4.596 4.446 4.346 4.156 4.036 3.906
3038.140 3.706 3.486 3.286 3.246 3.196 3.246 3.476 3.706 3.956 4.326
3057.430 4.706 4.866 5.116 5.316 5.246 5.406 5.426 5.146 5.006 4.916
3076.720 4.786 4.566 4.086 3.706 3.506 3.216 2.816 2.386 2.036 1.686
3096.009 1.466 1.336 1.306 1.186 1.028 1.0385 1.0258 0.8553 0.7292 0.6887
3115.299 0.6678 0.5938 0.6123 0.647 0.5294 0.5396 0.5526 0.4448 0.5342 0.587
3134.589 0.415 0.4308 0.4512 0.4329 0.4728 0.4238 0.4111 0.4567 0.4367 0.4336
3153.879 0.4696 0.4348 0.3633 0.3661 0.4311 0.4242 0.4626 0.4801 0.3186 0.3373
3173.169 0.444 0.3491 0.2749 0.2782 0.39 0.556 0.4735 0.245 0.15737 0.323
3192.458 0.4023 0.3182 0.25499 0.21232 0.3151 0.5324 0.5768 0.4456 0.2844 0.3546
3211.748 0.3008 0.18629 0.3184 0.4976 0.4856 0.3019 0.2624 0.2132 0.25048 0.3441
3231.038 0.2763 0.24818 0.3383 0.3218 0.3216 0.2935 0.3334 0.404 0.3522 0.4292
3250.328 0.4005 0.23842 0.3218 0.3671 0.25713 0.20527 0.20719 0.3599 0.4386 0.3767
3269.617 0.2842 0.16141 0.3023 0.3671 0.24243 0.3811 0.4397 0.23818 0.3445 0.3639
3288.907 0.278 0.3246 0.3318 0.3043 0.2693 0.3465 0.3525 0.3682 0.24435 0.3081
3308.197 0.3781 0.23342 0.2362 0.3721 0.3905 0.2579 0.3393 0.22091 0.19581 0.3845
3327.487 0.5045 0.4993 0.4177 0.5104 0.6279 0.7146 0.667 0.6683 0.8857 0.9878
3346.777 0.9047 0.8728 0.8875 0.8786 0.8798 0.7352 0.6917 0.8377 0.7658 0.6223
3366.066 0.6368 0.6637 0.4512 0.3384 0.3887 0.359 0.3662 0.351 0.4064 0.4152
3385.356 0.3255 0.303 0.3371 0.493 0.5451 0.4684 0.4936 0.6872 0.6705 0.6113
3404.646 0.7406 0.826 0.8581 0.9761 0.9829 1.0853 1.266 1.186 1.0662 1.1486
3423.936 1.0276 0.7803 0.79 0.7359 0.6013 0.4467 0.404 0.3613 0.3998 0.4753
3443.225 0.26203 0.2268 0.3805 0.4261 0.4908 0.4831 0.5236 0.4134 0.3899 0.416
3462.515 0.19839 0.22315 0.123 0.015 0.1183 0.25795 0.3309 0.23028 0.2712 0.3185
3481.805 0.1463 0.1424 0.232 0.0964 0.172047 0.1262 0.19698 0.2966 0.3108 0.4149
3501.095 0.19464 0.061 0.047 0.171055 0.2963 0.21927 0.24582 0.0972 0.049 0.20902
3520.385 0.19259 0.25183 0.19104 0.055 0.0984 0.20496 0.16371 0.008 0.009 0.0888
3539.674 0.1832 0.24599 0.1198 0.1093 0.18284 0.0942 0.0662 0.054 0.065 0.16461
3558.964 0.2767 0.3031 0.19137 0.16952 0.23269 0.24984 0.2246 0.152 0.0966 0.0785
3578.254 0.19237 0.25512 0.20345 0.25296 0.3507 0.3405 0.2958 0.3687 0.3805 0.19034
3597.544 0.1245 0.1552 0.1029 0.1138 0.25016 0.3708 0.3417 0.21811 0.20619 0.3721
3616.833 0.3715 0.16485 0.1368 0.2359 0.24151 0.26438 0.4099 0.5101 0.3998 0.25763
3636.123 0.19314 0.354 0.4614 0.3636 0.3448 0.3802 0.3385 0.3051 0.3967 0.3957
3655.413 0.3892 0.3448 0.26044 0.18445 0.22485 0.3443 0.3593 0.3649 0.3215 0.3907
3674.703 0.3905 0.3256 0.3598 0.3337 0.377 0.3771 0.3111 0.4243 0.4985 0.2964
3693.993 0.1367 0.25373 0.24867 0.1495 0.1533 0.2662 0.4289 0.3466 0.4456 0.5858
3713.282 0.4179 0.399 0.3723 0.25328 0.25702 0.2893 0.2885 0.25995 0.24851 0.4323
3732.572 0.3431 0.046 0.1078 0.20195 0.22161 0.3409 0.25948 0.1109 0.168828 0.3259
3751.862 0.4243 0.3252 0.26135 0.25303 0.24006 0.3411 0.4999 0.4177 0.3407 0.3541
3771.152 0.3067 0.4434 0.4105 0.3612 0.394 0.4746 0.3758 0.3037 0.4149 0.3827
3790.441 0.3097 0.2832 0.3102 0.3134 0.3511 0.385 0.3368 0.4907 0.5721 0.3762
3809.731 0.3429 0.3285 0.20737 0.1455 0.2901 0.2721 0.15992 0.046 0.0941 0.167116
3829.021 0.2924 0.247 0.018 0.1627 0.1556 0.23793 0.3645 0.1599 0.1134 0.1264
3848.311 0.1464 0.277 0.5235 0.6 0.3017 0.1433 0.18216 0.19254 0.14 0.174602
3867.601 0.3041 0.3966 0.3873 0.2696 0.149 0 0.1329 0.4051 0.4147 0.3688
3886.890 0.3607 0.4039 0.4279 0.4569 0.4008 0.3283 0.3635 0.4075 0.2825 0.23315
3906.180 0.25944 0.2718 0.398 0.4798 0.4419 0.4363 0.4409 0.4431 0.6035 0.5453
3925.470 0.5316 0.5321 0.3634 0.3402 0.3144 0.4529 0.5119 0.3163 0.3755 0.3287
3944.760 0.18887 0.24153 0.2284 0.24576 0.15677 0.21086 0.4062 0.2318 0.15815 0.2825
3964.049 0.3612 0.4633 0.3944 0.335 0.3043 0.3859 0.3897 0.2693 0.3684 0.3534
3983.339 0.3282 0.3908 0.24769 0.22271 0.24906 0.2054 0.3789 0.2635 0.1225 0.17641
##END=
