##TITLE=2-Iodo-5-methylbenzoic acid
##JCAMP-DX=4.24
##DATA TYPE=INFRARED SPECTRUM
##ORIGIN=EPA-IR VAPOR PHASE LIBRARY
##OWNER=SRD/NIST
Collection (C) 2018 copyright by the U.S. Secretary of Commerce
on behalf of the United States of America. All rights reserved.
##CAS REGISTRY NO=52548-14-8
##MOLFORM=C 8 H 7 I O 2
##$NIST SOURCE=MSDC-IR
##STATE=gas
##XUNITS=1/CM
##YUNITS=ABSORBANCE
##XFACTOR=1.
##YFACTOR=0.001
##DELTAX=1.92898
##FIRSTX=549.8
##LASTX=4000.7
##FIRSTY=9.159
##MAXX=4000.7
##MINX=549.759
##MAXY=0.095639
##MINY=0
##NPOINTS=1790
##XYDATA=(X++(Y..Y))
549.759 9.159 9.239 9.689 9.709 9.879 10.289 10.429 11.059 11.649 12.119
569.049 12.899 13.959 15.029 16.209 17.399 18.969 21.059 22.529 23.559 24.669
588.339 25.509 25.339 24.509 23.199 21.079 18.829 16.439 13.629 11.369 9.679
607.628 8.299 7.289 6.419 6.009 5.589 5.099 5.009 4.949 5.279 6.219
626.918 7.539 9.689 12.659 15.899 18.549 20.329 22.209 23.359 22.109 19.619
646.208 17.679 15.329 12.119 8.949 6.489 4.879 3.739 3.019 2.629 2.489
665.498 2.419 2.159 1.829 1.659 1.809 1.969 1.789 1.749 1.829 1.969
684.787 2.219 2.309 2.519 2.749 2.859 2.879 2.879 2.939 3.099 3.359
704.077 3.789 4.319 5.079 6.159 7.229 7.979 8.249 8.359 8.519 8.469
723.367 7.679 6.239 4.859 3.929 3.349 2.959 2.679 2.579 2.659 2.669
742.657 2.719 2.709 2.759 2.889 3.059 3.239 3.419 3.669 3.829 4.219
761.947 4.759 5.359 6.019 6.749 7.619 8.439 9.329 10.369 11.069 10.769
781.236 9.799 9.159 8.689 8.029 7.329 6.959 6.949 6.889 7.009 7.489
800.526 8.159 8.959 9.819 10.619 11.639 12.549 13.309 13.629 12.739 11.049
819.816 9.109 7.419 6.109 5.089 3.959 2.949 2.439 2.079 1.749 1.589
839.106 1.469 1.459 1.539 1.429 1.239 1.359 1.539 1.599 1.599 1.449
858.395 1.369 1.389 1.379 1.339 1.399 1.489 1.569 1.759 1.879 1.959
877.685 2.359 2.899 3.459 3.939 4.259 4.539 4.829 4.939 4.899 4.479
896.975 4.029 3.589 3.119 2.709 2.259 1.989 1.819 1.729 1.459 1.369
916.265 1.519 1.579 1.429 1.339 1.349 1.249 1.1576 1.034 1.0514 1.229
935.555 1.279 1.249 1.319 1.369 1.449 1.469 1.389 1.469 1.569 1.529
954.844 1.659 1.929 1.929 1.849 1.819 1.709 1.619 1.719 1.999 2.199
974.134 2.149 2.119 2.179 2.199 2.209 2.359 2.619 2.769 2.869 3.199
993.424 3.709 4.169 4.789 5.899 7.459 9.289 11.959 15.699 19.909 24.219
1012.714 27.579 29.079 29.549 28.719 25.869 21.379 15.979 11.049 8.029 6.489
1032.003 5.739 5.359 5.139 5.169 5.049 4.989 5.139 5.549 5.939 6.229
1051.293 6.609 6.939 7.589 8.439 9.329 10.369 11.639 13.269 15.339 17.409
1070.583 19.559 22.509 25.509 28.619 31.329 33.149 34.339 34.729 34.119 32.969
1089.873 31.669 29.599 28.019 27.599 27.419 27.459 28.099 28.459 28.559 28.619
1109.163 28.159 27.259 25.979 24.189 22.039 20.069 18.729 18.229 18.159 18.089
1128.452 18.589 19.419 19.799 20.279 20.779 21.099 21.309 21.239 21.309 21.959
1147.742 22.769 24.209 26.429 29.019 32.489 36.909 41.779 46.129 49.719 52.509
1167.032 53.619 53.429 51.879 48.749 44.409 39.249 34.019 28.869 24.459 20.839
1186.322 17.859 15.609 13.689 12.339 11.449 10.469 9.829 9.489 9.049 8.619
1205.611 8.149 7.839 7.879 8.209 8.629 9.349 10.049 10.289 10.239 9.939
1224.901 9.699 9.539 8.839 7.909 7.509 7.179 6.759 6.749 6.769 6.839
1244.191 6.909 7.039 7.109 7.199 7.529 7.929 8.299 8.659 8.829 9.029
1263.481 9.209 9.279 9.279 9.199 9.219 9.179 9.149 9.219 9.289 9.449
1282.771 9.639 9.889 10.289 10.709 11.139 11.589 12.219 12.979 13.729 14.589
1302.060 15.479 16.319 17.079 17.649 18.009 18.229 18.419 18.429 18.389 18.459
1321.350 18.779 19.269 19.829 20.339 20.579 20.569 20.339 19.829 18.949 17.769
1340.640 16.339 14.749 13.219 11.879 10.749 9.829 9.149 8.619 8.169 7.949
1359.930 7.859 7.749 7.699 7.769 7.819 7.759 7.679 7.649 7.719 7.819
1379.219 7.959 8.169 8.459 8.939 9.549 10.109 10.669 11.209 11.649 11.899
1398.509 12.069 12.029 11.669 11.199 10.669 10.009 9.219 8.489 7.819 7.259
1417.799 6.799 6.369 5.969 5.569 5.269 5.009 4.789 4.629 4.499 4.429
1437.089 4.379 4.439 4.609 4.839 5.199 5.759 6.549 7.609 8.909 10.289
1456.378 11.779 13.299 14.509 15.299 15.689 15.679 15.219 14.289 13.069 11.709
1475.668 10.349 9.099 7.969 6.949 6.019 5.209 4.519 3.979 3.569 3.219
1494.958 2.999 2.759 2.539 2.399 2.309 2.259 2.189 2.199 2.149 2.059
1514.248 2.069 1.989 1.939 1.949 1.879 1.909 1.969 1.969 1.909 1.909
1533.538 1.949 1.879 1.919 1.989 2.109 2.209 2.279 2.389 2.599 2.909
1552.827 3.169 3.409 3.669 4.029 4.349 4.509 4.579 4.539 4.409 4.199
1572.117 3.909 3.679 3.339 2.989 2.839 2.679 2.529 2.479 2.569 2.669
1591.407 2.659 2.589 2.619 2.609 2.449 2.339 2.259 2.159 2.049 2.019
1610.697 2.029 2.019 2.059 2.119 2.119 2.109 2.089 2.109 2.129 2.109
1629.986 2.119 2.039 1.859 1.679 1.579 1.489 1.409 1.329 1.209 1.219
1649.276 1.299 1.329 1.319 1.289 1.299 1.339 1.349 1.449 1.479 1.449
1668.566 1.559 1.599 1.589 1.659 1.739 1.789 1.789 1.779 1.879 1.949
1687.856 2.009 2.119 2.269 2.399 2.559 2.729 2.979 3.259 3.499 3.899
1707.146 4.369 4.909 5.499 6.189 7.039 8.039 9.309 10.629 11.999 13.549
1726.435 15.219 16.959 18.679 20.439 22.219 24.059 26.119 28.459 31.049 34.089
1745.725 37.679 41.729 46.269 51.559 57.589 64.409 72.419 81.059 89.189 94.599
1765.015 95.639 93.229 88.179 81.299 72.199 61.159 50.669 43.179 38.699 36.059
1784.305 34.349 32.879 31.259 29.299 26.879 24.049 21.199 18.439 15.789 13.419
1803.594 11.389 9.699 8.309 7.119 6.249 5.529 4.879 4.289 3.809 3.379
1822.884 2.989 2.769 2.599 2.339 2.159 2.049 1.939 1.849 1.759 1.709
1842.174 1.699 1.719 1.699 1.699 1.639 1.549 1.509 1.479 1.429 1.319
1861.464 1.259 1.249 1.209 1.1637 1.1406 1.169 1.179 1.189 1.229 1.259
1880.754 1.259 1.229 1.279 1.299 1.329 1.389 1.409 1.449 1.509 1.559
1900.043 1.549 1.559 1.599 1.619 1.629 1.569 1.449 1.339 1.309 1.209
1919.333 1.0758 0.9663 0.9139 0.8706 0.7428 0.7117 0.7129 0.7004 0.7867 0.7987
1938.623 0.7207 0.6964 0.75 0.7507 0.7121 0.6855 0.6521 0.666 0.7273 0.7406
1957.913 0.6766 0.6535 0.6876 0.7427 0.694 0.6848 0.6935 0.6479 0.6783 0.7054
1977.202 0.703 0.6867 0.6784 0.6794 0.6626 0.6519 0.6023 0.6146 0.6374 0.6038
1996.492 0.6666 0.6993 0.6339 0.6057 0.5987 0.5623 0.5683 0.5533 0.562 0.5602
2015.782 0.5701 0.5388 0.5046 0.5906 0.5821 0.5709 0.5962 0.5923 0.5833 0.6063
2035.072 0.637 0.627 0.5651 0.5536 0.6279 0.5932 0.5636 0.6113 0.5892 0.5926
2054.362 0.6131 0.581 0.5641 0.5608 0.5433 0.533 0.5295 0.5017 0.4994 0.5056
2073.651 0.4766 0.4594 0.4764 0.4605 0.4404 0.4513 0.5054 0.5007 0.46 0.4692
2092.941 0.4428 0.4399 0.452 0.4783 0.5175 0.5185 0.5113 0.5291 0.4865 0.4851
2112.231 0.5853 0.5644 0.5431 0.5402 0.502 0.5064 0.4794 0.4404 0.4601 0.4879
2131.521 0.4741 0.4515 0.4932 0.5381 0.5322 0.5592 0.5768 0.5209 0.569 0.6285
2150.810 0.6406 0.7021 0.7085 0.697 0.6822 0.6337 0.6209 0.7143 0.7591 0.6452
2170.100 0.5947 0.6147 0.5246 0.4743 0.5272 0.5116 0.4874 0.4757 0.4832 0.5329
2189.390 0.5084 0.4814 0.4892 0.5096 0.4691 0.4403 0.4428 0.4246 0.47 0.4908
2208.680 0.523 0.535 0.4829 0.4705 0.4797 0.5119 0.5259 0.5316 0.5238 0.4913
2227.970 0.5017 0.4535 0.4349 0.4388 0.4655 0.5551 0.5027 0.4079 0.4392 0.5314
2247.259 0.5001 0.3972 0.4608 0.4836 0.4648 0.4925 0.5008 0.5646 0.5533 0.5263
2266.549 0.5158 0.4989 0.5302 0.5565 0.5557 0.5718 0.5693 0.5553 0.5665 0.5506
2285.839 0.5628 0.5738 0.5245 0.5381 0.5791 0.6271 0.5978 0.5708 0.567 0.5072
2305.129 0.4868 0.4773 0.4458 0.4819 0.5103 0.4739 0.4294 0.4039 0.4482 0.4265
2324.418 0.4677 0.503 0.4791 0.5023 0.5293 0.5309 0.5174 0.4986 0.4548 0.4333
2343.708 0.4261 0.4582 0.4694 0.5241 0.5346 0.4477 0.4618 0.5125 0.522 0.5328
2362.998 0.5109 0.5308 0.5901 0.6123 0.6392 0.5646 0.547 0.5476 0.5659 0.6515
2382.288 0.5687 0.5228 0.5433 0.5434 0.5603 0.5765 0.6374 0.5949 0.5744 0.5419
2401.578 0.5457 0.6449 0.6557 0.7045 0.7232 0.6886 0.7583 0.7971 0.7373 0.6779
2420.867 0.6754 0.676 0.6524 0.6435 0.6496 0.6703 0.6649 0.67 0.7229 0.7001
2440.157 0.6394 0.7008 0.7702 0.7971 0.7279 0.6477 0.5884 0.5708 0.5681 0.5722
2459.447 0.6431 0.668 0.659 0.5873 0.5158 0.5494 0.5725 0.5397 0.5393 0.6036
2478.737 0.6225 0.5676 0.5183 0.473 0.5376 0.6252 0.5546 0.5029 0.4395 0.3534
2498.026 0.3838 0.4677 0.5459 0.4801 0.4158 0.4827 0.5017 0.4645 0.4618 0.4467
2517.316 0.3896 0.3927 0.4134 0.4346 0.5398 0.4839 0.3632 0.3991 0.3796 0.4464
2536.606 0.5187 0.4694 0.4062 0.4032 0.4616 0.4518 0.4914 0.5132 0.4695 0.4537
2555.896 0.4238 0.3973 0.4162 0.3821 0.4083 0.4242 0.3511 0.4387 0.4656 0.3892
2575.186 0.4519 0.4309 0.4224 0.4696 0.424 0.4173 0.4868 0.5143 0.4604 0.5045
2594.475 0.5631 0.538 0.5369 0.5737 0.5801 0.6151 0.6051 0.5444 0.4964 0.5344
2613.765 0.5978 0.5039 0.386 0.4005 0.3865 0.4156 0.5183 0.5153 0.4681 0.4345
2633.055 0.4081 0.3718 0.3465 0.4144 0.4609 0.4365 0.3789 0.3378 0.3612 0.3439
2652.345 0.364 0.4586 0.4223 0.3543 0.3105 0.24719 0.3055 0.4107 0.3785 0.3078
2671.634 0.3229 0.3266 0.3602 0.388 0.3847 0.3189 0.2909 0.3737 0.3282 0.2712
2690.924 0.3087 0.3157 0.25234 0.2325 0.2898 0.3636 0.3502 0.2781 0.336 0.3253
2710.214 0.3383 0.4924 0.4949 0.4186 0.4684 0.5067 0.4195 0.3806 0.426 0.4888
2729.504 0.4874 0.4146 0.4324 0.4752 0.509 0.6125 0.738 0.7758 0.7451 0.793
2748.794 0.7527 0.7177 0.7634 0.6228 0.5588 0.6208 0.5672 0.4275 0.3745 0.4106
2768.083 0.4142 0.4136 0.4588 0.5262 0.533 0.4996 0.484 0.4446 0.4576 0.468
2787.373 0.481 0.5167 0.5481 0.5756 0.5392 0.4792 0.5206 0.5419 0.5461 0.5643
2806.663 0.5243 0.5748 0.5763 0.5299 0.4883 0.4803 0.56 0.6506 0.7269 0.7697
2825.953 0.8222 0.8662 1.004 0.9244 0.8256 0.9393 0.9916 1.04 1.107 1.179
2845.242 1.219 1.319 1.479 1.579 1.649 1.769 1.839 2.049 2.259 2.519
2864.532 2.829 3.029 3.229 3.489 3.639 3.669 3.779 3.809 3.729 3.739
2883.822 3.759 3.869 3.919 3.759 3.699 3.619 3.499 3.599 3.589 3.459
2903.112 3.419 3.439 3.449 3.509 3.539 3.669 3.929 4.089 4.389 4.859
2922.401 5.389 6.019 6.689 7.429 8.219 8.909 9.329 9.489 9.359 8.849
2941.691 8.169 7.379 6.599 5.819 5.099 4.619 4.259 3.899 3.579 3.389
2960.981 3.209 2.959 2.699 2.589 2.559 2.449 2.379 2.249 2.099 2.169
2980.271 2.169 2.199 2.329 2.429 2.489 2.549 2.529 2.599 2.949 3.269
2999.561 3.309 3.259 3.339 3.349 3.489 3.739 3.689 3.659 3.769 3.809
3018.850 3.989 4.109 4.209 4.509 4.729 4.889 4.989 5.159 5.419 5.619
3038.140 5.719 5.769 5.789 5.729 5.649 5.609 5.719 5.539 5.179 4.969
3057.430 4.759 4.529 4.279 3.929 3.469 3.249 3.099 2.839 2.529 2.229
3076.720 2.219 2.229 2.169 2.099 2.019 2.059 1.969 1.839 1.769 1.529
3096.009 1.379 1.319 1.279 1.1364 0.958 0.9054 0.8537 0.8045 0.6293 0.6017
3115.299 0.5904 0.5766 0.6279 0.6849 0.6804 0.5671 0.5082 0.4866 0.4404 0.3312
3134.589 0.4712 0.6084 0.5392 0.5224 0.602 0.6301 0.5964 0.6295 0.591 0.5967
3153.879 0.5736 0.4563 0.5455 0.6357 0.6363 0.6797 0.6863 0.6254 0.4766 0.4691
3173.169 0.602 0.5991 0.4784 0.5392 0.5456 0.3024 0.26319 0.3241 0.3634 0.3422
3192.458 0.21852 0.21432 0.3458 0.5073 0.3953 0.19135 0.24122 0.3069 0.16344 0.111
3211.748 0.4077 0.4621 0.26225 0.25574 0.3416 0.269 0.3117 0.3178 0.3757 0.4898
3231.038 0.3773 0.2866 0.4122 0.3889 0.2714 0.311 0.2967 0.3205 0.3871 0.3207
3250.328 0.2505 0.2902 0.21104 0.18117 0.20168 0.22664 0.24801 0.2273 0.21599 0.25982
3269.617 0.178418 0.1264 0.1141 0.16309 0.414 0.4494 0.2948 0.17913 0.1049 0.173719
3288.907 0.3402 0.3797 0.3483 0.4634 0.3723 0.21657 0.3841 0.3535 0.24288 0.3181
3308.197 0.26314 0.16711 0.18613 0.1842 0.22604 0.2996 0.3712 0.2726 0.22611 0.3408
3327.487 0.3016 0.2404 0.21329 0.171287 0.23063 0.2796 0.2809 0.3052 0.3366 0.3949
3346.777 0.3533 0.3101 0.24878 0.2741 0.3093 0.2807 0.3979 0.3919 0.3917 0.4416
3366.066 0.3818 0.3975 0.4347 0.3814 0.3147 0.3621 0.3607 0.3182 0.2708 0.1322
3385.356 0.20752 0.3647 0.3387 0.2801 0.2923 0.3915 0.4429 0.4395 0.4396 0.4008
3404.646 0.3591 0.3787 0.18875 0.2854 0.4885 0.3978 0.3904 0.3206 0.4131 0.6062
3423.936 0.6778 0.576 0.4446 0.4364 0.4679 0.568 0.6701 0.6257 0.5615 0.5768
3443.225 0.6162 0.6153 0.5299 0.429 0.4801 0.5043 0.5425 0.6449 0.5897 0.649
3462.515 0.8531 0.8976 0.9688 0.9067 0.7506 0.8031 0.897 0.9721 0.969 0.9821
3481.805 1.1392 1.219 1.1229 1.1628 1.189 1.179 1.219 1.279 1.439 1.439
3501.095 1.419 1.509 1.449 1.379 1.459 1.579 1.619 1.679 1.769 1.639
3520.385 1.479 1.549 1.599 1.699 1.829 1.759 1.709 1.969 2.039 2.079
3539.674 2.149 2.229 2.429 2.659 3.159 3.719 4.619 6.259 8.599 11.849
3558.964 16.229 21.559 26.919 31.009 33.779 36.009 37.859 38.379 36.739 33.139
3578.254 28.839 24.899 21.359 18.009 14.699 11.309 8.189 5.869 4.299 3.359
3597.544 2.839 2.399 2.049 1.949 1.829 1.689 1.799 1.639 1.309 1.199
3616.833 1.259 1.199 1.1064 1.0763 0.9514 0.8221 0.7906 0.8572 0.7506 0.5284
3636.123 0.4398 0.4906 0.5391 0.4505 0.4759 0.6045 0.3758 0.2859 0.4213 0.3515
3655.413 0.4632 0.4792 0.3287 0.3397 0.3109 0.3726 0.5151 0.4385 0.3386 0.2955
3674.703 0.277 0.2865 0.2922 0.3582 0.24476 0.2062 0.329 0.4816 0.6099 0.5036
3693.993 0.4914 0.4869 0.397 0.5091 0.537 0.4735 0.4701 0.4942 0.4545 0.3864
3713.282 0.3096 0.26899 0.3465 0.3685 0.402 0.4574 0.3271 0.20569 0.23308 0.3247
3732.572 0.3718 0.4097 0.3885 0.168002 0.064 0.0693 0.2724 0.3485 0.20804 0.3715
3751.862 0.4522 0.3696 0.5031 0.5378 0.4212 0.3762 0.3157 0.281 0.23919 0.2901
3771.152 0.2911 0.172188 0.3285 0.4577 0.4381 0.3718 0.2811 0.3526 0.2755 0.26893
3790.441 0.3156 0.2583 0.25706 0.18472 0.23381 0.25821 0.23788 0.2971 0.4246 0.4661
3809.731 0.354 0.3752 0.48 0.3546 0.0745 0 0.18794 0.2746 0.20779 0.3278
3829.021 0.2915 0.25265 0.4367 0.4353 0.2996 0.1315 0.1015 0.1065 0.068 0.1587
3848.311 0.16835 0.23462 0.3395 0.21214 0.294 0.4191 0.3642 0.3856 0.2916 0.23285
3867.601 0.3252 0.3575 0.22683 0.2725 0.4164 0.4022 0.3893 0.2761 0.1173 0.018
3886.890 0.058 0.1582 0.20567 0.24285 0.26408 0.2972 0.3742 0.284 0.25784 0.2653
3906.180 0.19573 0.22596 0.3234 0.3137 0.24623 0.3617 0.364 0.26176 0.3248 0.3764
3925.470 0.2941 0.19543 0.3151 0.3382 0.324 0.454 0.4399 0.3295 0.19484 0.175886
3944.760 0.1514 0.21856 0.3169 0.2897 0.3343 0.3219 0.20682 0.23901 0.3125 0.269
3964.049 0.22705 0.21677 0.21982 0.18529 0.175571 0.22817 0.24902 0.2996 0.24961 0.1529
3983.339 0.3282 0.3146 0.23952 0.3298 0.354 0.3516 0.24603 0.2007 0.176848 0.24199
##END=
