##TITLE=Xylometazoline
##JCAMP-DX=4.24
##DATA TYPE=INFRARED SPECTRUM
##ORIGIN=NIST Mass Spectrometry Data Center
##OWNER=NIST Standard Reference Data Program
Collection (C) 2018 copyright by the U.S. Secretary of Commerce
on behalf of the United States of America. All rights reserved.
##CAS REGISTRY NO=526-36-3
##MOLFORM=C 16 H 24 N 2
##$NIST SOURCE=MSDC-IR
##SPECTROMETER/DATA SYSTEM=HP-GC/MS/IRD
##STATE=gas
##XUNITS=1/CM
##YUNITS=ABSORBANCE
##XFACTOR=1.0
##YFACTOR=0.000001600
##DELTAX=4.0
##FIRSTX=550.0
##LASTX=3846.0
##FIRSTY=0.000765
##MAXX=3846
##MINX=550
##MAXY=0.016
##MINY=0
##NPOINTS=825
##XYDATA=(X++(Y..Y))
550.0 478 379 350 358 311 245 203 183 199 171
590.0 104 114 161 150 104 92 110 172 213 182
630.0 143 92 80 102 86 106 122 89 78 84
670.0 92 163 258 345 451 531 505 409 339 298
710.0 247 226 212 197 200 181 158 145 123 106
750.0 118 137 113 90 124 169 205 211 152 113
790.0 98 62 57 52 41 19 10 39 59 28
830.0 6 11 27 39 17 44 164 329 542 731
870.0 738 559 346 199 125 94 122 144 148 210
910.0 324 432 473 475 498 475 393 291 223 229
950.0 241 288 362 436 540 596 617 701 815 935
990.0 1056 1115 1103 1037 943 825 748 687 670 682
1030.0 683 652 557 445 336 250 182 140 113 93
1070.0 88 97 118 117 105 115 118 92 78 74
1110.0 82 100 128 127 120 166 205 224 236 263
1150.0 351 438 541 664 713 773 856 953 1099 1199
1190.0 1166 1007 823 690 586 493 449 498 662 917
1230.0 1146 1184 1011 774 607 531 481 479 520 582
1270.0 716 925 1184 1492 1740 1869 1837 1620 1274 961
1310.0 783 711 665 581 494 430 380 363 401 464
1350.0 543 661 801 974 1110 1140 1084 1033 1036 1088
1390.0 1233 1480 1743 1977 2276 2719 3136 3335 3228 2841
1430.0 2332 1923 1689 1581 1535 1514 1490 1468 1469 1451
1470.0 1432 1536 1777 1978 1932 1599 1188 877 677 530
1510.0 441 391 351 316 306 310 308 310 321 347
1550.0 384 413 453 514 561 597 625 635 632 655
1590.0 744 863 1023 1185 1295 1316 1310 1428 1775 2461
1630.0 3564 4843 5532 5067 3805 2594 1767 1250 932 722
1670.0 560 431 364 289 232 199 159 123 96 88
1710.0 76 66 62 81 107 114 128 143 147 155
1750.0 137 101 76 58 43 21 6 8 3 2
1790.0 5 4 10 6 9 5 2 14 23 21
1830.0 12 12 17 15 8 2 2 0 5 17
1870.0 19 20 25 24 24 27 18 20 26 42
1910.0 46 32 33 37 31 21 25 34 39 54
1950.0 57 47 41 32 26 29 29 22 25 29
1990.0 20 13 9 12 19 19 36 39 36 39
2030.0 42 31 15 19 28 38 36 21 12 20
2070.0 21 13 25 24 14 19 25 21 21 29
2110.0 31 24 14 10 19 21 22 24 29 26
2150.0 18 11 7 17 30 38 36 33 37 36
2190.0 30 22 25 29 38 43 26 21 28 31
2230.0 36 29 18 27 31 36 41 26 31 38
2270.0 27 21 22 30 21 21 26 27 19 18
2310.0 27 34 44 35 29 27 30 31 38 46
2350.0 37 48 47 35 40 49 61 60 53 55
2390.0 44 42 44 33 33 36 40 40 40 50
2430.0 55 40 14 19 26 16 14 18 22 26
2470.0 22 13 9 6 13 26 29 23 27 44
2510.0 50 38 33 39 32 38 43 38 46 49
2550.0 59 71 53 58 67 69 65 47 44 55
2590.0 63 78 82 73 73 74 61 61 59 65
2630.0 73 76 97 98 86 76 79 83 89 101
2670.0 101 107 107 103 108 106 112 108 107 128
2710.0 151 164 174 179 190 199 219 246 252 251
2750.0 239 216 203 214 221 231 245 242 253 262
2790.0 283 309 335 352 379 433 467 505 549 595
2830.0 674 770 873 991 1146 1328 1607 2020 2572 3304
2870.0 4119 4768 5015 4808 4352 3905 3617 3489 3485 3607
2910.0 3819 4015 4162 4336 4580 4883 5214 5572 5957 6441
2950.0 7082 7894 8788 9588 10000 9618 8394 6689 5062 3787
2990.0 2837 2172 1710 1391 1177 1020 905 839 840 853
3030.0 867 891 908 921 949 977 1016 1000 915 834
3070.0 743 623 522 444 378 367 343 304 270 222
3110.0 227 230 218 214 198 176 168 169 188 188
3150.0 158 151 150 128 112 136 149 132 119 126
3190.0 129 148 153 123 116 136 142 133 130 128
3230.0 118 120 127 122 109 115 111 112 129 133
3270.0 128 123 130 129 110 105 95 68 53 59
3310.0 66 74 71 66 69 67 56 28 24 41
3350.0 31 45 63 51 64 82 69 92 110 110
3390.0 137 143 139 169 228 323 466 573 615 619
3430.0 561 442 347 295 226 180 170 162 159 133
3470.0 90 64 70 81 72 68 66 53 53 65
3510.0 55 49 35 39 45 35 55 40 27 45
3550.0 37 23 9 17 13 14 32 22 6 13
3590.0 31 21 11 28 25 20 30 30 27 37
3630.0 36 43 43 23 36 24 19 28 36 43
3670.0 17 38 61 52 29 28 39 23 41 61
3710.0 36 15 2 4 38 38 33 27 33 50
3750.0 60 60 56 48 40 31 29 29 28 34
3790.0 38 42 55 63 33 36 74 68 61 82
3830.0 64 51 72 84 85
##END=
