##TITLE=2-Phthalimidoglutaranilic acid
##JCAMP-DX=4.24
##DATA TYPE=INFRARED SPECTRUM
##ORIGIN=EPA-IR VAPOR PHASE LIBRARY
##OWNER=SRD/NIST
Collection (C) 2018 copyright by the U.S. Secretary of Commerce
on behalf of the United States of America. All rights reserved.
##CAS REGISTRY NO=52604-91-8
##MOLFORM=C 19 H 16 N 2 O 5
##$NIST SOURCE=MSDC-IR
##STATE=gas
##XUNITS=1/CM
##YUNITS=ABSORBANCE
##XFACTOR=1.
##YFACTOR=0.001
##DELTAX=1.92898
##FIRSTX=549.8
##LASTX=4000.7
##FIRSTY=0.9128
##MAXX=4000.7
##MINX=549.759
##MAXY=0.01534
##MINY=0
##NPOINTS=1790
##XYDATA=(X++(Y..Y))
549.759 0.9128 0.36723 0.41379 0.6949 0.5343 0.38238 0.348576 0.42888 0.3278 0.43112
569.049 0.6856 0.6015 0.6093 0.983 1.0529 0.946 1.2672 1.43 1.1089 0.7258
588.339 0.8347 0.9993 0.9628 1.0974 1.0223 0.7635 0.6868 0.8677 0.9598 0.8677
607.628 0.9019 1.0495 1.3239 1.74 2.09 2.14 2.19 2.06 1.62 1.2408
626.918 0.9315 0.8621 0.8049 0.6674 0.4797 0.40425 0.4931 0.36054 0.4526 0.4883
646.208 0.2751 0.42607 0.6068 0.5208 0.4467 0.4668 0.5645 0.6187 0.5924 0.5886
665.498 0.6044 0.499 0.276 0.3073 0.4736 0.6095 0.5956 0.6035 0.7849 1.063
684.787 1.2792 1.49 1.59 1.68 1.74 1.51 1.2898 1.1051 1.0281 1.0125
704.077 1.1528 1.44 1.8 2.1 2.37 2.74 3.08 3.12 2.98 2.66
723.367 2.24 1.92 1.39 1.0784 1.0108 0.6992 0.6632 0.8362 0.7464 0.7535
742.657 0.8638 0.8512 0.8634 0.9836 0.8511 0.6341 0.5719 0.5625 0.5738 0.4779
761.947 0.39011 0.40879 0.4456 0.4999 0.5239 0.36756 0.4535 0.6316 0.5879 0.42273
781.236 0.4537 0.5575 0.6715 0.7391 0.5719 0.5286 0.5682 0.547 0.42611 0.4504
800.526 0.4589 0.4431 0.5191 0.4909 0.33852 0.4608 0.6353 0.4802 0.39361 0.5646
819.816 0.626 0.4563 0.38364 0.5247 0.6034 0.5844 0.5418 0.5017 0.6422 0.6007
839.106 0.5264 0.5489 0.5482 0.5279 0.39778 0.33273 0.23 0.2584 0.4481 0.5227
858.395 0.4126 0.2571 0.3285 0.4557 0.4768 0.5067 0.6386 0.6039 0.4693 0.6342
877.685 0.8804 0.8304 0.6955 0.6163 0.7084 0.9455 0.9886 0.9455 1.0565 1.0287
896.975 0.8085 0.5938 0.4828 0.449 0.5308 0.6507 0.5635 0.5842 0.5443 0.33242
916.265 0.39177 0.4548 0.42276 0.343604 0.3188 0.4424 0.5005 0.4588 0.4804 0.506
935.555 0.4577 0.555 0.4523 0.215 0.169 0.209 0.2853 0.48 0.5048 0.41538
954.844 0.4339 0.4571 0.597 0.6604 0.648 0.6963 0.7396 0.814 0.9736 1.1804
974.134 1.42 1.4 1.3049 1.2266 1.083 1.0579 0.9602 0.8715 0.9996 1.1664
993.424 1.1177 1.1226 1.2148 1.37 1.37 1.2521 1.2791 1.0704 0.8228 0.9662
1012.714 1.0406 0.9584 0.8412 0.7462 0.8444 0.9452 0.7634 0.4979 0.5708 0.7432
1032.003 0.8825 0.8711 0.8978 0.8776 0.6315 0.6935 0.9878 0.8964 0.6288 0.763
1051.293 0.9467 0.7098 0.6924 0.7349 0.5347 0.5054 0.5055 0.5956 0.6371 0.5618
1070.583 0.34005 0.4471 0.5133 0.789 1.2075 0.4959 0.40707 0.866 1.0604 1.41
1089.873 1.52 1.58 1.45 1.0749 1.38 1.68 1.58 1.85 1.78 1.4
1109.163 1.51 1.84 2.13 2.14 2.06 1.71 1.1876 1.3285 1.1225 0.6523
1128.452 0.58 0.7329 1.0432 1.0686 0.9986 1.2565 1.2797 0.9379 0.8449 1.1865
1147.742 1.56 1.71 1.68 1.75 1.95 2.15 2.6 3.03 3.39 3.72
1167.032 3.93 4.49 4.77 4.52 4.59 4.47 4.07 4.01 3.86 3.63
1186.322 3.46 2.9 2.2 2 1.96 1.56 1.45 1.46 1.3009 1.081
1205.611 0.9345 0.9133 0.6532 0.4773 0.22 0.4715 0.9444 0.6356 0.4846 0.2504
1224.901 0.1 0.43691 0.5799 0.7425 0.6999 0.7466 1.0951 1.2886 1.57 1.95
1244.191 2.41 2.79 3.13 3.47 3.6 3.41 3.05 2.52 2.01 1.63
1263.481 1.4 1.3246 1.1575 0.9682 0.7824 0.543 0.6698 0.8936 0.8937 0.9342
1282.771 1.0326 1.0635 1.1421 1.2574 1.2421 1.3328 1.53 1.76 1.95 2.05
1302.060 2.16 2.22 2.22 2.25 2.39 2.55 2.74 3.08 3.4 3.64
1321.350 3.75 3.65 3.37 3.08 2.88 2.81 2.83 2.97 3.32 3.81
1340.640 4.36 4.93 5.48 5.91 6.16 6.24 6.09 5.79 5.48 5.14
1359.930 4.91 4.85 4.86 4.99 5.21 5.56 6.09 6.76 7.53 8.32
1379.219 8.97 9.3 9.11 8.44 7.43 6.23 5.04 4.05 3.32 2.78
1398.509 2.35 2.07 1.93 1.79 1.61 1.46 1.4 1.37 1.3226 1.3006
1417.799 1.3217 1.3085 1.2684 1.226 1.204 1.2023 1.1399 1.117 1.0769 1.0096
1437.089 0.9662 0.8666 0.8246 0.8256 0.8392 0.8627 0.8622 0.9304 0.9698 0.9577
1456.378 0.9893 1 0.9382 0.9435 1.0747 1.1771 1.1993 1.1889 1.1501 1.0782
1475.668 1.0156 1.029 1.0355 1.0026 1.0246 1.062 1.09 1.1752 1.3071 1.43
1494.958 1.58 1.74 1.77 1.66 1.48 1.244 1.0191 0.9068 0.8153 0.7459
1514.248 0.7185 0.666 0.6177 0.6217 0.6392 0.6324 0.5725 0.5761 0.5938 0.5241
1533.538 0.504 0.5317 0.5427 0.5523 0.5629 0.5854 0.6272 0.6318 0.5785 0.5569
1552.827 0.5513 0.5308 0.5524 0.5621 0.5861 0.6455 0.6556 0.5811 0.5476 0.5052
1572.117 0.4695 0.5548 0.5988 0.6293 0.6671 0.6349 0.6999 0.797 0.7939 0.8462
1591.407 0.8873 0.9484 0.9877 0.8951 0.8995 0.8957 0.8726 0.892 0.8186 0.7721
1610.697 0.8155 0.7526 0.6783 0.6397 0.5695 0.594 0.6292 0.6166 0.6329 0.5853
1629.986 0.5616 0.631 0.5976 0.5138 0.5083 0.5717 0.6449 0.6546 0.6536 0.6688
1649.276 0.645 0.6496 0.6541 0.604 0.6705 0.7235 0.695 0.7064 0.6888 0.7208
1668.566 0.771 0.7991 0.8553 0.8923 0.9017 0.9509 1.051 1.1811 1.3007 1.39
1687.856 1.5 1.67 1.87 2.12 2.4 2.6 2.9 3.32 3.81 4.43
1707.146 5.1 5.96 7.01 8.32 9.94 11.62 13.06 13.89 13.94 13.4
1726.435 12.76 12.54 12.97 13.84 14.81 15.34 14.92 13.53 11.51 9.39
1745.725 7.67 6.35 5.57 5.14 4.78 4.56 4.39 4.08 3.7 3.35
1765.015 2.96 2.62 2.42 2.23 2.07 2.01 1.95 1.95 1.99 2.01
1784.305 2.1 2.23 2.36 2.45 2.44 2.34 2.09 1.76 1.46 1.2541
1803.594 1.1411 1.0063 0.8681 0.7722 0.7274 0.7426 0.7336 0.7082 0.6663 0.7016
1822.884 0.7323 0.7004 0.6909 0.6622 0.6405 0.6436 0.6432 0.601 0.5583 0.5763
1842.174 0.5711 0.5234 0.5325 0.5582 0.5453 0.5806 0.5663 0.5278 0.5628 0.5961
1861.464 0.5913 0.5538 0.5053 0.4978 0.5205 0.5438 0.534 0.493 0.4743 0.5168
1880.754 0.5068 0.5053 0.5359 0.5119 0.4913 0.4765 0.5017 0.4884 0.42688 0.42276
1900.043 0.43878 0.4815 0.5312 0.526 0.5245 0.5063 0.4646 0.41595 0.37681 0.39844
1919.333 0.4544 0.4722 0.4938 0.4592 0.4547 0.4897 0.4767 0.5265 0.5502 0.5014
1938.623 0.4886 0.5654 0.5831 0.4922 0.42475 0.39889 0.43179 0.4506 0.4709 0.4774
1957.913 0.4441 0.4491 0.42821 0.37173 0.38246 0.41505 0.38584 0.42752 0.4734 0.41876
1977.202 0.36846 0.35215 0.3918 0.4612 0.43213 0.39597 0.43343 0.4637 0.4546 0.42934
1996.492 0.43511 0.4496 0.4536 0.38857 0.38171 0.43648 0.39082 0.39458 0.40722 0.3651
2015.782 0.349684 0.38008 0.40406 0.42997 0.4692 0.4696 0.4404 0.4458 0.4712 0.40547
2035.072 0.40031 0.4754 0.4747 0.43672 0.345721 0.39841 0.5175 0.4901 0.4557 0.4774
2054.362 0.4426 0.35046 0.36457 0.441 0.42771 0.37119 0.43667 0.40933 0.36038 0.40308
2073.651 0.42494 0.41198 0.4567 0.43419 0.35775 0.40726 0.42472 0.40911 0.36 0.3189
2092.941 0.33113 0.39075 0.41253 0.37633 0.39983 0.39313 0.35749 0.37441 0.39501 0.41738
2112.231 0.41833 0.4489 0.4553 0.37899 0.40969 0.41533 0.35342 0.38874 0.42011 0.41863
2131.521 0.39347 0.38881 0.41972 0.36229 0.36983 0.4457 0.465 0.42895 0.37805 0.339323
2150.810 0.36187 0.42382 0.41693 0.42883 0.42441 0.40571 0.38394 0.40445 0.4133 0.40298
2170.100 0.4298 0.41659 0.39197 0.3911 0.3631 0.3534 0.36688 0.35386 0.38315 0.40337
2189.390 0.41763 0.4666 0.4515 0.41906 0.4484 0.4615 0.4308 0.4504 0.4491 0.40193
2208.680 0.42835 0.42385 0.41204 0.40329 0.43823 0.4523 0.42626 0.4418 0.40273 0.3224
2227.970 0.2902 0.33653 0.345307 0.39694 0.43869 0.35242 0.349912 0.4552 0.4278 0.3262
2247.259 0.38134 0.4597 0.42747 0.40407 0.4129 0.37964 0.37494 0.42244 0.4486 0.42936
2266.549 0.42831 0.42502 0.38615 0.35543 0.38309 0.43734 0.39033 0.35953 0.41478 0.43458
2285.839 0.41229 0.39917 0.39479 0.36387 0.38901 0.4613 0.4824 0.51 0.4868 0.39672
2305.129 0.39165 0.41471 0.4489 0.4914 0.4823 0.5074 0.4972 0.39253 0.37272 0.41305
2324.418 0.43465 0.42681 0.39145 0.365 0.35103 0.339137 0.33826 0.4235 0.4549 0.4443
2343.708 0.4752 0.41896 0.39176 0.43045 0.39532 0.36605 0.40933 0.4433 0.40803 0.33952
2362.998 0.37858 0.4651 0.36402 0.344726 0.48 0.4977 0.43548 0.4524 0.4817 0.43904
2382.288 0.466 0.5178 0.4554 0.39004 0.4401 0.4759 0.39648 0.347572 0.40346 0.4165
2401.578 0.39659 0.41532 0.4445 0.39453 0.35566 0.41632 0.457 0.5624 0.6147 0.5461
2420.867 0.5066 0.4534 0.38987 0.4795 0.5038 0.40985 0.40821 0.4454 0.4693 0.40729
2440.157 0.349734 0.40618 0.4675 0.43414 0.43749 0.42745 0.37789 0.3934 0.37836 0.37757
2459.447 0.42286 0.4402 0.4784 0.4596 0.4577 0.4837 0.4992 0.484 0.453 0.4493
2478.737 0.4414 0.4675 0.5081 0.4776 0.5319 0.5905 0.4658 0.36879 0.38592 0.4128
2498.026 0.39481 0.40951 0.4626 0.4567 0.4185 0.43676 0.42339 0.423 0.42204 0.39027
2517.316 0.38029 0.43183 0.508 0.5298 0.4653 0.4047 0.40169 0.4778 0.4778 0.36718
2536.606 0.36455 0.40676 0.40917 0.41182 0.40728 0.39347 0.348905 0.33347 0.4185 0.41658
2555.896 0.40487 0.43324 0.4471 0.4813 0.4847 0.4648 0.40048 0.38352 0.4713 0.4814
2575.186 0.4624 0.41364 0.34878 0.36092 0.43629 0.4881 0.38055 0.35584 0.4618 0.4778
2594.475 0.39513 0.40587 0.43173 0.4497 0.43481 0.348111 0.343522 0.39224 0.4353 0.38342
2613.765 0.3252 0.349765 0.40341 0.43357 0.3999 0.43462 0.4803 0.33993 0.318 0.35758
2633.055 0.42079 0.4976 0.43663 0.346473 0.2994 0.3072 0.3215 0.39473 0.41622 0.41061
2652.345 0.36379 0.3325 0.3127 0.35203 0.37153 0.38735 0.43363 0.43718 0.5114 0.4816
2671.634 0.4476 0.4618 0.4325 0.43314 0.4613 0.42332 0.33184 0.3135 0.35197 0.3288
2690.924 0.38615 0.40274 0.3034 0.35191 0.35169 0.2852 0.281 0.2533 0.2969 0.36621
2710.214 0.37685 0.2908 0.2793 0.37493 0.43215 0.4666 0.4817 0.4815 0.40961 0.39767
2729.504 0.36811 0.39208 0.42644 0.3492 0.37477 0.4597 0.4417 0.39616 0.43356 0.41673
2748.794 0.37115 0.35047 0.35231 0.35241 0.35357 0.3971 0.42288 0.39861 0.3284 0.3047
2768.083 0.3073 0.3155 0.36367 0.40031 0.4471 0.4823 0.4495 0.40183 0.40698 0.42846
2787.373 0.40837 0.37842 0.37908 0.342343 0.3264 0.4594 0.543 0.40245 0.2996 0.4561
2806.663 0.4933 0.342803 0.33866 0.3912 0.40015 0.41152 0.4432 0.43537 0.38999 0.4763
2825.953 0.4988 0.42823 0.41273 0.43537 0.4375 0.39497 0.41353 0.40625 0.4476 0.40656
2845.242 0.35002 0.4772 0.5073 0.4636 0.5455 0.5261 0.36534 0.35267 0.43462 0.4488
2864.532 0.4445 0.4768 0.5316 0.5103 0.5159 0.5377 0.442 0.42384 0.5182 0.5146
2883.822 0.4828 0.5238 0.469 0.4692 0.5279 0.5503 0.5906 0.6315 0.5909 0.5936
2903.112 0.6532 0.7391 0.9127 0.9512 0.9274 0.9088 0.8948 0.8386 0.8416 0.8339
2922.401 0.6896 0.5934 0.5471 0.5237 0.5181 0.5455 0.5428 0.52 0.5349 0.4954
2941.691 0.39884 0.39297 0.41675 0.42018 0.5388 0.5815 0.5226 0.597 0.6127 0.5973
2960.981 0.6993 0.743 0.8045 0.8373 0.7944 0.7131 0.6831 0.7301 0.7626 0.7065
2980.271 0.554 0.5299 0.5422 0.6052 0.6597 0.6179 0.48 0.42072 0.42481 0.41831
2999.561 0.5058 0.4955 0.4672 0.4737 0.4592 0.43143 0.38323 0.42182 0.4515 0.4945
3018.850 0.5682 0.6083 0.616 0.5371 0.5363 0.6028 0.585 0.5312 0.5621 0.6784
3038.140 0.6885 0.6858 0.8086 0.8138 0.8649 0.9247 0.7994 0.7347 0.8089 0.9167
3057.430 0.9154 0.8397 0.7922 0.6518 0.7101 0.8134 0.7676 0.7872 0.8412 0.9939
3076.720 1.126 1.0848 1.0339 1.065 1.0305 0.9198 0.9553 0.9926 0.9285 0.8575
3096.009 0.8176 0.8068 0.7829 0.6654 0.5903 0.643 0.6046 0.5975 0.5822 0.5009
3115.299 0.451 0.4561 0.43972 0.3283 0.2913 0.38871 0.42278 0.41497 0.40965 0.3006
3134.589 0.3257 0.4636 0.40007 0.37988 0.36871 0.38475 0.39832 0.33068 0.348103 0.4102
3153.879 0.40401 0.38454 0.4527 0.4584 0.38747 0.37946 0.4569 0.43744 0.4035 0.38493
3173.169 0.3198 0.41784 0.465 0.41845 0.4647 0.5193 0.42633 0.43551 0.4728 0.40518
3192.458 0.3161 0.157 0.164 0.2852 0.2553 0.211 0.176 0.2652 0.4529 0.40104
3211.748 0.347475 0.37257 0.41627 0.40337 0.35257 0.226 0.219 0.2708 0.197 0.222
3231.038 0.2667 0.40885 0.4647 0.35734 0.2859 0.2465 0.183 0.201 0.2606 0.37567
3250.328 0.4614 0.39518 0.4543 0.499 0.43842 0.41487 0.36586 0.3028 0.38875 0.494
3269.617 0.532 0.465 0.39593 0.39675 0.42122 0.2403 0.119 0.3292 0.39621 0.3204
3288.907 0.2 0.135 0.145 0.218 0.33876 0.3002 0.2942 0.3011 0.35456 0.38572
3308.197 0.3254 0.43001 0.4835 0.41037 0.38341 0.33572 0.3193 0.3117 0.2703 0.2851
3327.487 0.35729 0.33745 0.237 0.3271 0.4762 0.4165 0.3288 0.40844 0.43768 0.348568
3346.777 0.2855 0.33416 0.3071 0.2749 0.35199 0.36058 0.39234 0.37411 0.36458 0.40407
3366.066 0.42337 0.41386 0.42172 0.5624 0.564 0.39393 0.3065 0.3023 0.261 0.173
3385.356 0.222 0.309 0.2908 0.3231 0.4657 0.4318 0.34511 0.41814 0.38154 0.37091
3404.646 0.4743 0.529 0.40983 0.38128 0.4862 0.41879 0.35619 0.36819 0.40143 0.38891
3423.936 0.41048 0.40268 0.37495 0.40785 0.38686 0.4949 0.4696 0.33363 0.3167 0.3274
3443.225 0.3592 0.3326 0.38235 0.4675 0.5655 0.518 0.43616 0.42464 0.38853 0.4549
3462.515 0.343422 0.41246 0.4724 0.36691 0.5242 0.5748 0.5362 0.5172 0.4441 0.37705
3481.805 0.3812 0.5438 0.5045 0.41916 0.4892 0.4963 0.3919 0.38236 0.4517 0.43818
3501.095 0.41263 0.42946 0.42247 0.41285 0.4848 0.4868 0.4798 0.42668 0.36901 0.41957
3520.385 0.5283 0.4986 0.3369 0.192 0.22 0.3014 0.37344 0.39822 0.37483 0.39574
3539.674 0.3263 0.3263 0.37323 0.38253 0.4565 0.4521 0.459 0.42987 0.3058 0.3253
3558.964 0.348178 0.33195 0.38218 0.4485 0.38322 0.3188 0.2692 0.2556 0.2993 0.237
3578.254 0.197 0.225 0.2607 0.3173 0.347802 0.314 0.201 0.153 0.2747 0.36067
3597.544 0.3728 0.35804 0.3078 0.3251 0.2909 0.3087 0.36541 0.2929 0.2735 0.40406
3616.833 0.4561 0.37305 0.223 0.194 0.2938 0.36173 0.37969 0.228 0.154 0.3021
3636.123 0.33664 0.33509 0.4462 0.42747 0.349173 0.38495 0.43433 0.308 0.3261 0.325
3655.413 0.233 0.3112 0.3973 0.40388 0.2643 0.35532 0.4646 0.2912 0.2963 0.340167
3674.703 0.306 0.33354 0.2796 0.2618 0.3246 0.41835 0.42425 0.346279 0.3188 0.3275
3693.993 0.213 0.113 0.2484 0.37641 0.3106 0.152 0.174 0.343548 0.4772 0.43157
3713.282 0.35406 0.2434 0.219 0.237 0.199 0.202 0.2679 0.2907 0.195 0.186
3732.572 0.222 0.36838 0.40442 0.191 0.045 0 0.138 0.218 0.233 0.3058
3751.862 0.178 0.176 0.2564 0.254 0.209 0.344245 0.5155 0.5148 0.4739 0.40831
3771.152 0.39264 0.347909 0.3248 0.2486 0.35521 0.4676 0.33113 0.42961 0.5627 0.4698
3790.441 0.3669 0.3252 0.2727 0.155 0.182 0.33624 0.37826 0.3312 0.242 0.193
3809.731 0.3094 0.37606 0.348211 0.43434 0.37393 0.35522 0.33202 0.2848 0.267 0.187
3829.021 0.2894 0.2773 0.24 0.225 0.217 0.36633 0.3114 0.2593 0.3203 0.2805
3848.311 0.38257 0.33364 0.239 0.39301 0.40708 0.36034 0.3262 0.36634 0.4546 0.4876
3867.601 0.464 0.5301 0.5203 0.42628 0.35828 0.216 0.2929 0.3229 0.235 0.2625
3886.890 0.2459 0.229 0.223 0.153 0.145 0.234 0.2638 0.3142 0.40473 0.43724
3906.180 0.40733 0.35625 0.3242 0.2761 0.3176 0.4485 0.4518 0.2662 0.227 0.35134
3925.470 0.40944 0.33058 0.342135 0.4003 0.4381 0.41093 0.37269 0.42289 0.35799 0.3264
3944.760 0.339401 0.41234 0.42012 0.4274 0.4832 0.416 0.35269 0.39019 0.41098 0.3255
3964.049 0.2653 0.2469 0.183 0.202 0.2931 0.3159 0.3267 0.33287 0.3203 0.35263
3983.339 0.4574 0.5012 0.43441 0.39542 0.41643 0.3065 0.2505 0.35715 0.2888 0.136
##END=
